-0.20000000E+01  0.15105E+05
-0.19500000E+01  0.17226E+05
-0.19000000E+01  0.18282E+05
-0.18500000E+01  0.18610E+05
-0.18000000E+01  0.18255E+05
-0.17500000E+01  0.17342E+05
-0.17000000E+01  0.15894E+05
-0.16500001E+01  0.14638E+05
-0.16000000E+01  0.14044E+05
-0.15500000E+01  0.14047E+05
-0.15000000E+01  0.14767E+05
-0.14500000E+01  0.16336E+05
-0.14000001E+01  0.18662E+05
-0.13500000E+01  0.21807E+05
-0.13000001E+01  0.25569E+05
-0.12500000E+01  0.29485E+05
-0.12000000E+01  0.33945E+05
-0.11500001E+01  0.38996E+05
-0.11000000E+01  0.44268E+05
-0.10500001E+01  0.48846E+05
-0.10000000E+01  0.52019E+05
-0.95000005E+00  0.53932E+05
-0.90000010E+00  0.54747E+05
-0.85000002E+00  0.54167E+05
-0.80000007E+00  0.52044E+05
-0.75000012E+00  0.48812E+05
-0.70000005E+00  0.44704E+05
-0.65000010E+00  0.38602E+05
-0.60000014E+00  0.29578E+05
-0.55000007E+00  0.18286E+05
-0.50000012E+00  0.52227E+04
-0.45000005E+00 -0.91828E+04
-0.40000010E+00 -0.24207E+05
-0.35000014E+00 -0.39086E+05
-0.30000007E+00 -0.52601E+05
-0.25000012E+00 -0.63578E+05
-0.20000005E+00 -0.71861E+05
-0.15000010E+00 -0.77455E+05
-0.10000014E+00 -0.80202E+05
-0.50000072E-01 -0.80361E+05
-0.11920929E-06 -0.77859E+05
 0.49999952E-01 -0.73595E+05
 0.99999905E-01 -0.67876E+05
 0.14999986E+00 -0.60739E+05
 0.19999981E+00 -0.52086E+05
 0.24999976E+00 -0.41973E+05
 0.29999995E+00 -0.30782E+05
 0.34999990E+00 -0.18021E+05
 0.39999986E+00 -0.40143E+04
 0.44999981E+00  0.10417E+05
 0.49999976E+00  0.24321E+05
 0.54999995E+00  0.37119E+05
 0.59999990E+00  0.48814E+05
 0.64999986E+00  0.59748E+05
 0.69999981E+00  0.69249E+05
 0.74999976E+00  0.76966E+05
 0.79999971E+00  0.82847E+05
 0.84999990E+00  0.86341E+05
 0.89999986E+00  0.87090E+05
 0.94999981E+00  0.84902E+05
 0.99999976E+00  0.80351E+05
 0.10499997E+01  0.74120E+05
 0.10999999E+01  0.66563E+05
 0.11499999E+01  0.57656E+05
 0.11999998E+01  0.47710E+05
 0.12499998E+01  0.37899E+05
 0.12999997E+01  0.28612E+05
 0.13499999E+01  0.19919E+05
 0.13999999E+01  0.12139E+05
 0.14499998E+01  0.56936E+04
 0.14999998E+01  0.37628E+03
 0.15499997E+01 -0.40673E+04
 0.15999999E+01 -0.72475E+04
 0.16499999E+01 -0.92840E+04
 0.16999998E+01 -0.97910E+04
 0.17499998E+01 -0.83635E+04
 0.17999997E+01 -0.54301E+04
 0.18499997E+01 -0.10387E+04
 0.18999999E+01  0.40821E+04
 0.19499998E+01  0.97154E+04
 0.19999998E+01  0.16030E+05
 0.20499997E+01  0.22938E+05
 0.20999999E+01  0.30120E+05
 0.21499996E+01  0.37509E+05
 0.21999998E+01  0.45064E+05
 0.22499995E+01  0.51852E+05
 0.22999997E+01  0.57354E+05
 0.23499999E+01  0.60972E+05
 0.23999996E+01  0.62722E+05
 0.24499998E+01  0.62284E+05
 0.24999995E+01  0.59877E+05
 0.25499997E+01  0.55535E+05
 0.25999999E+01  0.49319E+05
 0.26499996E+01  0.41386E+05
 0.26999998E+01  0.31539E+05
 0.27499995E+01  0.20507E+05
 0.27999997E+01  0.92131E+04
 0.28499999E+01 -0.14983E+04
 0.28999996E+01 -0.11185E+05
 0.29499998E+01 -0.19351E+05
 0.29999995E+01 -0.25626E+05
 0.30499997E+01 -0.29861E+05
 0.30999999E+01 -0.32127E+05
 0.31499996E+01 -0.32918E+05
 0.31999998E+01 -0.32181E+05
 0.32499995E+01 -0.29965E+05
 0.32999997E+01 -0.26047E+05
 0.33499999E+01 -0.20610E+05
 0.33999996E+01 -0.14540E+05
 0.34499998E+01 -0.81492E+04
 0.34999995E+01 -0.21399E+04
 0.35499997E+01  0.33681E+04
 0.35999994E+01  0.85778E+04
 0.36499996E+01  0.13080E+05
 0.36999998E+01  0.16650E+05
 0.37499995E+01  0.18656E+05
 0.37999997E+01  0.18460E+05
 0.38499994E+01  0.16251E+05
 0.38999996E+01  0.12122E+05
 0.39499998E+01  0.63634E+04
 0.39999995E+01 -0.65901E+03
 0.40499997E+01 -0.87292E+04
 0.40999994E+01 -0.17231E+05
 0.41499996E+01 -0.25799E+05
 0.41999998E+01 -0.33823E+05
 0.42499995E+01 -0.40460E+05
 0.42999997E+01 -0.45423E+05
 0.43499994E+01 -0.48725E+05
 0.43999996E+01 -0.50220E+05
 0.44499998E+01 -0.50230E+05
 0.44999995E+01 -0.49485E+05
 0.45499997E+01 -0.47731E+05
 0.45999994E+01 -0.45764E+05
 0.46499996E+01 -0.43395E+05
 0.46999998E+01 -0.40412E+05
 0.47499995E+01 -0.36924E+05
 0.47999997E+01 -0.32663E+05
 0.48499994E+01 -0.28436E+05
 0.48999996E+01 -0.24459E+05
 0.49499998E+01 -0.21272E+05
 0.49999995E+01 -0.18679E+05
 0.50499997E+01 -0.17318E+05
 0.50999994E+01 -0.17412E+05
 0.51499996E+01 -0.19116E+05
 0.51999998E+01 -0.22443E+05
 0.52499995E+01 -0.26437E+05
 0.52999997E+01 -0.30828E+05
 0.53499994E+01 -0.34748E+05
 0.53999996E+01 -0.38165E+05
 0.54499993E+01 -0.40571E+05
 0.54999995E+01 -0.42261E+05
 0.55499997E+01 -0.43646E+05
 0.55999994E+01 -0.44885E+05
 0.56499996E+01 -0.46113E+05
 0.56999993E+01 -0.46782E+05
 0.57499995E+01 -0.47240E+05
 0.57999997E+01 -0.46952E+05
 0.58499994E+01 -0.45627E+05
 0.58999996E+01 -0.43412E+05
 0.59499993E+01 -0.40189E+05
 0.59999995E+01 -0.35735E+05
 0.60499992E+01 -0.29922E+05
 0.60999994E+01 -0.22729E+05
 0.61499996E+01 -0.14144E+05
 0.61999998E+01 -0.45923E+04
 0.62499990E+01  0.58389E+04
 0.62999992E+01  0.16263E+05
 0.63499994E+01  0.26698E+05
 0.63999996E+01  0.37008E+05
 0.64499998E+01  0.46364E+05
 0.64999990E+01  0.54226E+05
 0.65499992E+01  0.59553E+05
 0.65999994E+01  0.62244E+05
 0.66499996E+01  0.62326E+05
 0.66999998E+01  0.60209E+05
 0.67499990E+01  0.56250E+05
 0.67999992E+01  0.50741E+05
 0.68499994E+01  0.44134E+05
 0.68999996E+01  0.36452E+05
 0.69499998E+01  0.28403E+05
 0.69999990E+01  0.20859E+05
 0.70499992E+01  0.14439E+05
 0.70999994E+01  0.94500E+04
 0.71499996E+01  0.57394E+04
 0.71999998E+01  0.32632E+04
 0.72499990E+01  0.19315E+04
 0.72999992E+01  0.18837E+04
 0.73499994E+01  0.30644E+04
 0.73999996E+01  0.55890E+04
 0.74499998E+01  0.92507E+04
 0.74999990E+01  0.13488E+05
 0.75499992E+01  0.17599E+05
 0.75999994E+01  0.21135E+05
 0.76499996E+01  0.23796E+05
 0.76999998E+01  0.24951E+05
 0.77499990E+01  0.24252E+05
 0.77999992E+01  0.21975E+05
 0.78499994E+01  0.18435E+05
 0.78999996E+01  0.13659E+05
 0.79499998E+01  0.77678E+04
 0.79999990E+01  0.11851E+04
 0.80499992E+01 -0.57265E+04
 0.80999994E+01 -0.12818E+05
 0.81499996E+01 -0.19696E+05
 0.81999998E+01 -0.25816E+05
 0.82499990E+01 -0.31043E+05
 0.82999992E+01 -0.35308E+05
 0.83499994E+01 -0.38603E+05
 0.83999996E+01 -0.40487E+05
 0.84499998E+01 -0.40242E+05
 0.84999990E+01 -0.37941E+05
 0.85499992E+01 -0.33491E+05
 0.85999994E+01 -0.26950E+05
 0.86499996E+01 -0.18745E+05
 0.86999998E+01 -0.94890E+04
 0.87499990E+01  0.29652E+03
 0.87999992E+01  0.96424E+04
 0.88499994E+01  0.17783E+05
 0.88999996E+01  0.24419E+05
 0.89499998E+01  0.29982E+05
 0.89999990E+01  0.34569E+05
 0.90499992E+01  0.37851E+05
 0.90999994E+01  0.40070E+05
 0.91499996E+01  0.41120E+05
 0.91999989E+01  0.40952E+05
 0.92499990E+01  0.39110E+05
 0.92999992E+01  0.35669E+05
 0.93499994E+01  0.31574E+05
 0.93999996E+01  0.27480E+05
 0.94499989E+01  0.23471E+05
 0.94999990E+01  0.19606E+05
 0.95499992E+01  0.15702E+05
 0.95999994E+01  0.11449E+05
 0.96499996E+01  0.69697E+04
 0.96999989E+01  0.20319E+04
 0.97499990E+01 -0.29064E+04
 0.97999992E+01 -0.66011E+04
 0.98499994E+01 -0.88059E+04
 0.98999996E+01 -0.95998E+04
 0.99499989E+01 -0.90280E+04
 0.99999990E+01 -0.71475E+04
 0.10049999E+02 -0.38205E+04
 0.10099999E+02  0.75391E+03
 0.10150000E+02  0.60315E+04
 0.10199999E+02  0.11432E+05
 0.10249999E+02  0.16005E+05
 0.10299999E+02  0.18933E+05
 0.10349999E+02  0.20545E+05
 0.10400000E+02  0.20979E+05
 0.10449999E+02  0.20484E+05
 0.10499999E+02  0.19201E+05
 0.10549999E+02  0.17109E+05
 0.10599999E+02  0.14434E+05
 0.10650000E+02  0.10695E+05
 0.10699999E+02  0.56132E+04
 0.10749999E+02 -0.25507E+03
 0.10799999E+02 -0.64723E+04
 0.10849999E+02 -0.12531E+05
 0.10900000E+02 -0.17662E+05
 0.10949999E+02 -0.21418E+05
 0.10999999E+02 -0.24049E+05
 0.11049999E+02 -0.25722E+05
 0.11099999E+02 -0.26620E+05
 0.11150000E+02 -0.26813E+05
 0.11199999E+02 -0.26481E+05
 0.11249999E+02 -0.26606E+05
 0.11299999E+02 -0.26832E+05
 0.11349999E+02 -0.26546E+05
 0.11400000E+02 -0.25380E+05
 0.11449999E+02 -0.23790E+05
 0.11499999E+02 -0.21697E+05
 0.11549999E+02 -0.19087E+05
 0.11599999E+02 -0.15714E+05
 0.11650000E+02 -0.11375E+05
 0.11699999E+02 -0.65683E+04
 0.11749999E+02 -0.75954E+03
 0.11799999E+02  0.55525E+04
 0.11849999E+02  0.12392E+05
 0.11900000E+02  0.19329E+05
 0.11949999E+02  0.26071E+05
 0.11999999E+02  0.32265E+05
 0.12049999E+02  0.37817E+05
 0.12099999E+02  0.43055E+05
 0.12150000E+02  0.47065E+05
 0.12199999E+02  0.49665E+05
 0.12249999E+02  0.50594E+05
 0.12299999E+02  0.49933E+05
 0.12349999E+02  0.48272E+05
 0.12400000E+02  0.46172E+05
 0.12449999E+02  0.44015E+05
 0.12499999E+02  0.41409E+05
 0.12549999E+02  0.38418E+05
 0.12599999E+02  0.35199E+05
 0.12649999E+02  0.31719E+05
 0.12699999E+02  0.27442E+05
 0.12749999E+02  0.22038E+05
 0.12799999E+02  0.15518E+05
 0.12849999E+02  0.81163E+04
 0.12899999E+02  0.33931E+03
 0.12949999E+02 -0.78560E+04
 0.12999999E+02 -0.16088E+05
 0.13049999E+02 -0.24011E+05
 0.13099999E+02 -0.31636E+05
 0.13149999E+02 -0.39167E+05
 0.13199999E+02 -0.46662E+05
 0.13249999E+02 -0.53513E+05
 0.13299999E+02 -0.58618E+05
 0.13349999E+02 -0.60824E+05
 0.13399999E+02 -0.59632E+05
 0.13449999E+02 -0.55287E+05
 0.13499999E+02 -0.48839E+05
 0.13549999E+02 -0.41039E+05
 0.13599999E+02 -0.32102E+05
 0.13649999E+02 -0.22426E+05
 0.13699999E+02 -0.11997E+05
 0.13749999E+02 -0.45932E+03
 0.13799999E+02  0.11904E+05
 0.13849999E+02  0.24484E+05
 0.13899999E+02  0.36449E+05
 0.13949999E+02  0.47111E+05
 0.13999999E+02  0.55963E+05
 0.14049999E+02  0.62775E+05
 0.14099998E+02  0.67144E+05
 0.14150000E+02  0.69090E+05
 0.14199999E+02  0.68482E+05
 0.14249998E+02  0.65051E+05
 0.14299999E+02  0.59549E+05
 0.14349998E+02  0.53086E+05
 0.14400000E+02  0.46707E+05
 0.14449999E+02  0.40603E+05
 0.14499998E+02  0.34500E+05
 0.14549999E+02  0.28021E+05
 0.14599998E+02  0.21225E+05
 0.14650000E+02  0.14108E+05
 0.14699999E+02  0.65954E+04
 0.14749998E+02 -0.10824E+04
 0.14799999E+02 -0.87215E+04
 0.14849998E+02 -0.15851E+05
 0.14900000E+02 -0.21834E+05
 0.14949999E+02 -0.26411E+05
 0.14999998E+02 -0.29565E+05
 0.15049999E+02 -0.31294E+05
 0.15099998E+02 -0.31962E+05
 0.15150000E+02 -0.32201E+05
 0.15199999E+02 -0.32419E+05
 0.15249998E+02 -0.32655E+05
 0.15299999E+02 -0.32413E+05
 0.15349998E+02 -0.31752E+05
 0.15400000E+02 -0.30204E+05
 0.15449999E+02 -0.27814E+05
 0.15499998E+02 -0.24732E+05
 0.15549999E+02 -0.21031E+05
 0.15599998E+02 -0.16637E+05
 0.15650000E+02 -0.11560E+05
 0.15699999E+02 -0.63914E+04
 0.15749998E+02 -0.12749E+04
 0.15799999E+02  0.35333E+04
 0.15849998E+02  0.81039E+04
 0.15900000E+02  0.11598E+05
 0.15949999E+02  0.13939E+05
 0.15999998E+02  0.14804E+05
 0.16049999E+02  0.13707E+05
 0.16099998E+02  0.11266E+05
 0.16150000E+02  0.73448E+04
 0.16199999E+02  0.29170E+04
 0.16249998E+02 -0.14415E+04
 0.16299999E+02 -0.54685E+04
 0.16349998E+02 -0.89798E+04
 0.16400000E+02 -0.12261E+05
 0.16449999E+02 -0.15014E+05
 0.16499998E+02 -0.17781E+05
 0.16549999E+02 -0.20598E+05
 0.16599998E+02 -0.23630E+05
 0.16650000E+02 -0.26845E+05
 0.16699999E+02 -0.30545E+05
 0.16749998E+02 -0.35004E+05
 0.16799999E+02 -0.39668E+05
 0.16849998E+02 -0.44322E+05
 0.16900000E+02 -0.48250E+05
 0.16949999E+02 -0.51668E+05
 0.16999998E+02 -0.54140E+05
 0.17049999E+02 -0.55699E+05
 0.17099998E+02 -0.56610E+05
 0.17150000E+02 -0.56898E+05
 0.17199999E+02 -0.56387E+05
 0.17249998E+02 -0.54167E+05
 0.17299999E+02 -0.50506E+05
 0.17349998E+02 -0.44664E+05
 0.17400000E+02 -0.36505E+05
 0.17449999E+02 -0.26506E+05
 0.17499998E+02 -0.15148E+05
 0.17549999E+02 -0.34005E+04
 0.17599998E+02  0.83065E+04
 0.17650000E+02  0.19106E+05
 0.17699999E+02  0.28602E+05
 0.17749998E+02  0.36571E+05
 0.17799999E+02  0.42680E+05
 0.17849998E+02  0.47024E+05
 0.17900000E+02  0.49488E+05
 0.17949999E+02  0.50247E+05
 0.17999998E+02  0.49542E+05
 0.18049999E+02  0.47819E+05
 0.18099998E+02  0.45820E+05
 0.18150000E+02  0.44032E+05
 0.18199999E+02  0.42539E+05
 0.18249998E+02  0.41308E+05
 0.18299999E+02  0.40211E+05
 0.18349998E+02  0.39022E+05
 0.18400000E+02  0.37724E+05
 0.18449999E+02  0.36065E+05
 0.18499998E+02  0.33812E+05
 0.18549999E+02  0.30663E+05
 0.18599998E+02  0.26681E+05
 0.18650000E+02  0.22198E+05
 0.18699999E+02  0.17375E+05
 0.18749998E+02  0.12521E+05
 0.18799999E+02  0.83012E+04
 0.18849998E+02  0.51137E+04
 0.18900000E+02  0.25817E+04
 0.18949999E+02  0.78789E+03
 0.18999998E+02 -0.53613E+03
 0.19049999E+02 -0.14654E+04
 0.19099998E+02 -0.21831E+04
 0.19150000E+02 -0.27377E+04
 0.19199999E+02 -0.29178E+04
 0.19249998E+02 -0.27527E+04
 0.19299999E+02 -0.20329E+04
 0.19349998E+02 -0.13358E+04
 0.19400000E+02 -0.11261E+04
 0.19449999E+02 -0.15266E+04
 0.19499998E+02 -0.26766E+04
 0.19549999E+02 -0.41529E+04
 0.19599998E+02 -0.55850E+04
 0.19650000E+02 -0.63092E+04
 0.19699999E+02 -0.62285E+04
 0.19749998E+02 -0.56328E+04
 0.19799999E+02 -0.48279E+04
 0.19849998E+02 -0.40408E+04
 0.19900000E+02 -0.33696E+04
 0.19949999E+02 -0.35408E+04
 0.19999998E+02 -0.40982E+04
 0.20049999E+02 -0.47857E+04
 0.20099998E+02 -0.52433E+04
 0.20150000E+02 -0.49214E+04
 0.20199999E+02 -0.37701E+04
 0.20249998E+02 -0.18989E+04
 0.20299999E+02  0.86546E+03
 0.20349998E+02  0.39934E+04
 0.20399998E+02  0.67594E+04
 0.20449999E+02  0.98435E+04
 0.20499998E+02  0.13686E+05
 0.20549999E+02  0.17626E+05
 0.20599998E+02  0.24672E+05
 0.20649998E+02  0.33921E+05
 0.20699999E+02  0.44797E+05
 0.20749998E+02  0.52312E+05
 0.20799999E+02  0.56581E+05
 0.20849998E+02  0.55117E+05
 0.20899998E+02  0.47387E+05
 0.20949999E+02  0.39254E+05
 0.20999998E+02  0.35582E+05
 0.21049999E+02  0.36381E+05
 0.21099998E+02  0.43568E+05
 0.21149998E+02  0.60353E+05
 0.21199999E+02  0.69214E+05
 0.21249998E+02  0.68964E+05
 0.21299999E+02  0.79075E+05
 0.21349998E+02  0.11554E+06
 0.21399998E+02  0.14410E+06
 0.21449999E+02  0.16110E+06
 0.21499998E+02  0.88277E+05
 0.21549999E+02  0.33790E+05
 0.21599998E+02  0.35908E+05
 0.21649998E+02 -0.47854E+05
 0.21699999E+02 -0.24914E+05
 0.21749998E+02  0.17454E+05
 0.21799999E+02  0.14621E+05
 0.21849998E+02 -0.25944E+05
 0.21899998E+02 -0.82481E+05
 0.21949999E+02 -0.78209E+05
 0.21999998E+02 -0.34540E+05
 0.22049999E+02  0.10969E+06
 0.22099998E+02  0.79901E+05
 0.22149998E+02  0.13468E+06
 0.22199999E+02  0.19075E+06
 0.22249998E+02  0.79145E+05
 0.22299999E+02  0.15350E+06
 0.22349998E+02  0.21773E+06
 0.22399998E+02  0.27240E+06
 0.22449999E+02  0.20935E+06
 0.22499998E+02  0.14752E+06
 0.22549999E+02  0.10300E+06
 0.22599998E+02  0.37671E+05
 0.22649998E+02  0.10793E+06
 0.22699999E+02  0.14041E+06
 0.22749998E+02  0.15223E+06
 0.22799999E+02  0.70625E+05
 0.22849998E+02 -0.42984E+04
 0.22899998E+02 -0.68769E+05
 0.22949999E+02 -0.10743E+06
 0.22999998E+02 -0.12410E+05
 0.23049999E+02 -0.34723E+05
 0.23099998E+02 -0.97254E+04
 0.23149998E+02 -0.15210E+05
 0.23199999E+02 -0.67634E+05
 0.23249998E+02  0.10498E+05
 0.23299999E+02  0.41575E+05
 0.23349998E+02  0.13085E+06
 0.23399998E+02  0.13571E+06
 0.23449999E+02  0.83071E+05
 0.23499998E+02 -0.47390E+05
 0.23549999E+02 -0.15032E+06
 0.23599998E+02 -0.84594E+05
 0.23649998E+02 -0.40483E+05
 0.23699999E+02  0.31925E+05
 0.23749998E+02 -0.49981E+05
 0.23799999E+02 -0.21868E+05
 0.23849998E+02 -0.87554E+05
 0.23899998E+02 -0.16714E+06
 0.23949999E+02 -0.90632E+05
 0.23999998E+02 -0.10842E+06
 0.24049999E+02  0.83279E+05
 0.24099998E+02  0.14438E+06
 0.24149998E+02  0.15304E+06
 0.24199999E+02  0.17808E+06
 0.24249998E+02  0.13388E+06
 0.24299999E+02  0.20620E+06
 0.24349998E+02  0.15320E+06
 0.24399998E+02  0.98450E+05
 0.24449999E+02 -0.12801E+05
 0.24499998E+02 -0.96333E+05
 0.24549999E+02 -0.13916E+06
 0.24599998E+02 -0.20168E+06
 0.24649998E+02 -0.12455E+06
 0.24699999E+02 -0.11645E+06
 0.24749998E+02 -0.13491E+06
 0.24799999E+02 -0.20568E+06
 0.24849998E+02 -0.29376E+06
 0.24899998E+02 -0.34719E+06
 0.24949999E+02 -0.34198E+06
 0.24999998E+02 -0.23416E+06
 0.25049999E+02 -0.12849E+06
 0.25099998E+02 -0.14775E+06
 0.25149998E+02 -0.13848E+06
 0.25199999E+02 -0.88049E+05
 0.25249998E+02 -0.10468E+06
 0.25299999E+02 -0.29645E+05
 0.25349998E+02  0.72480E+05
 0.25399998E+02 -0.12626E+05
 0.25449999E+02 -0.58540E+05
 0.25499998E+02 -0.52808E+05
 0.25549999E+02 -0.58740E+05
 0.25599998E+02 -0.28039E+05
 0.25649998E+02 -0.30006E+05
 0.25699999E+02  0.72178E+03
 0.25749998E+02  0.35547E+05
 0.25799999E+02  0.23375E+05
 0.25849998E+02 -0.79742E+05
 0.25899998E+02 -0.49960E+05
 0.25949999E+02  0.66971E+05
 0.25999998E+02  0.65683E+05
 0.26049999E+02  0.11772E+06
 0.26099998E+02  0.21938E+06
 0.26149998E+02  0.29550E+06
 0.26199999E+02  0.36974E+06
 0.26249998E+02  0.28237E+06
 0.26299999E+02  0.21760E+06
 0.26349998E+02  0.24116E+06
 0.26399998E+02  0.20549E+06
 0.26449999E+02  0.20404E+06
 0.26499998E+02  0.18135E+06
 0.26549999E+02  0.55947E+05
 0.26599998E+02 -0.17086E+05
 0.26649998E+02 -0.80467E+05
 0.26699999E+02 -0.73219E+05
 0.26749998E+02 -0.37559E+05
 0.26799999E+02 -0.97249E+05
 0.26849998E+02 -0.12221E+06
 0.26899998E+02 -0.13174E+06
 0.26949999E+02 -0.72851E+05
 0.26999998E+02 -0.48126E+05
 0.27049997E+02 -0.14005E+05
 0.27099998E+02 -0.24096E+05
 0.27149998E+02 -0.54808E+05
 0.27199999E+02 -0.16880E+05
 0.27249998E+02 -0.28957E+05
 0.27299997E+02  0.78596E+04
 0.27349998E+02  0.49842E+05
 0.27399998E+02  0.73284E+05
 0.27449999E+02  0.10202E+06
 0.27499998E+02  0.52771E+05
 0.27549997E+02  0.93827E+04
 0.27599998E+02  0.58189E+05
 0.27649998E+02  0.35581E+05
 0.27699999E+02 -0.10390E+05
 0.27749998E+02  0.88596E+05
 0.27799997E+02  0.72272E+05
 0.27849998E+02 -0.79363E+04
 0.27899998E+02 -0.42644E+05
 0.27949999E+02 -0.52647E+05
 0.27999998E+02 -0.76462E+05
 0.28049997E+02 -0.12958E+06
 0.28099998E+02 -0.26849E+06
 0.28149998E+02 -0.31393E+06
 0.28199999E+02 -0.17969E+06
 0.28249998E+02 -0.97186E+05
 0.28299997E+02 -0.11000E+05
 0.28349998E+02  0.11958E+06
 0.28399998E+02  0.27789E+06
 0.28449999E+02  0.37941E+06
 0.28499998E+02  0.40236E+06
 0.28549997E+02  0.27341E+06
 0.28599998E+02  0.15076E+06
 0.28649998E+02  0.15399E+06
 0.28699999E+02  0.24096E+06
 0.28749998E+02  0.23636E+06
 0.28799997E+02  0.11029E+06
 0.28849998E+02 -0.47741E+05
 0.28899998E+02 -0.16128E+06
 0.28949999E+02 -0.18954E+06
 0.28999998E+02 -0.18095E+06
 0.29049997E+02 -0.26283E+06
 0.29099998E+02 -0.38878E+06
 0.29149998E+02 -0.37152E+06
 0.29199999E+02 -0.31998E+06
 0.29249998E+02 -0.25842E+06
 0.29299997E+02 -0.28362E+06
 0.29349998E+02 -0.34437E+06
 0.29399998E+02 -0.30363E+06
 0.29449999E+02 -0.28228E+06
 0.29499998E+02 -0.20964E+06
 0.29549997E+02 -0.11909E+06
 0.29599998E+02 -0.88045E+04
 0.29649998E+02  0.58111E+05
 0.29699999E+02  0.91943E+05
 0.29749998E+02  0.16143E+06
 0.29799997E+02  0.75150E+05
 0.29849998E+02 -0.16097E+05
 0.29899998E+02 -0.95774E+05
 0.29949999E+02 -0.11192E+06
 0.29999998E+02 -0.20642E+06
 0.30049999E+02 -0.31857E+06
 0.30099998E+02 -0.40718E+06
 0.30149998E+02 -0.44540E+06
 0.30199997E+02 -0.22946E+06
 0.30249996E+02 -0.20766E+06
 0.30299999E+02 -0.17169E+06
 0.30349998E+02 -0.11056E+06
 0.30399998E+02 -0.15161E+06
 0.30449997E+02  0.36011E+05
 0.30499996E+02  0.15984E+06
 0.30549999E+02  0.10520E+06
 0.30599998E+02 -0.13921E+04
 0.30649998E+02  0.47763E+05
 0.30699997E+02  0.17487E+06
 0.30749996E+02  0.15697E+06
 0.30799999E+02  0.47413E+05
 0.30849998E+02  0.26270E+05
 0.30899998E+02  0.82097E+04
 0.30949997E+02 -0.14213E+06
 0.30999996E+02 -0.36230E+06
 0.31049999E+02 -0.41777E+06
 0.31099998E+02 -0.24916E+06
 0.31149998E+02 -0.19525E+06
 0.31199997E+02 -0.12582E+05
 0.31249996E+02  0.18276E+06
 0.31299999E+02  0.20447E+06
 0.31349998E+02  0.11244E+06
 0.31399998E+02 -0.67988E+04
 0.31449997E+02 -0.11730E+04
 0.31499996E+02  0.16361E+06
 0.31549999E+02  0.24713E+06
 0.31599998E+02  0.11021E+06
 0.31649998E+02 -0.86180E+05
 0.31699997E+02 -0.23926E+06
 0.31749996E+02 -0.28737E+06
 0.31799999E+02 -0.35743E+06
 0.31849998E+02 -0.40868E+06
 0.31899998E+02 -0.39186E+06
 0.31949997E+02 -0.29640E+06
 0.31999996E+02 -0.24573E+06
 0.32049999E+02 -0.19232E+06
 0.32099998E+02 -0.14759E+06
 0.32149998E+02 -0.14820E+06
 0.32199997E+02 -0.12106E+06
 0.32249996E+02 -0.15737E+06
 0.32299999E+02 -0.16294E+06
 0.32349998E+02 -0.25394E+05
 0.32399998E+02  0.14089E+06
 0.32449997E+02  0.27634E+06
 0.32499996E+02  0.46883E+06
 0.32549999E+02  0.52698E+06
 0.32599998E+02  0.35406E+06
 0.32649998E+02  0.72019E+05
 0.32699997E+02 -0.67059E+05
 0.32749996E+02 -0.15924E+06
 0.32799999E+02 -0.20732E+06
 0.32849998E+02 -0.10762E+06
 0.32899998E+02 -0.62927E+05
 0.32949997E+02  0.61733E+05
 0.32999996E+02  0.18658E+06
 0.33049999E+02  0.20649E+06
 0.33099998E+02  0.14718E+06
 0.33149998E+02  0.44260E+05
 0.33199997E+02 -0.35370E+05
 0.33249996E+02 -0.40896E+05
 0.33299999E+02 -0.16461E+06
 0.33349998E+02 -0.38453E+06
 0.33399998E+02 -0.41716E+06
 0.33449997E+02 -0.32817E+06
 0.33499996E+02 -0.18433E+06
 0.33549999E+02 -0.18689E+06
 0.33599998E+02 -0.24054E+06
 0.33649998E+02 -0.19863E+06
 0.33699997E+02 -0.21742E+05
 0.33749996E+02  0.19789E+06
 0.33799999E+02  0.34944E+06
 0.33849998E+02  0.38731E+06
 0.33899998E+02  0.30487E+06
 0.33949997E+02  0.23400E+06
 0.33999996E+02  0.10227E+06
 0.34049999E+02  0.71700E+05
 0.34099998E+02  0.19455E+06
 0.34149998E+02  0.29236E+06
 0.34199997E+02  0.29913E+06
 0.34249996E+02  0.32895E+06
 0.34299999E+02  0.53282E+06
 0.34349998E+02  0.72009E+06
 0.34399998E+02  0.79745E+06
 0.34449997E+02  0.61070E+06
 0.34499996E+02  0.22036E+06
 0.34549999E+02 -0.91762E+05
 0.34599998E+02 -0.22845E+06
 0.34649998E+02 -0.10236E+06
 0.34699997E+02 -0.57870E+05
 0.34749996E+02 -0.43936E+05
 0.34799999E+02  0.73294E+05
 0.34849998E+02  0.31939E+06
 0.34899998E+02  0.27838E+06
 0.34949997E+02  0.12245E+06
 0.34999996E+02  0.17512E+06
 0.35049999E+02  0.79452E+05
 0.35099998E+02  0.64119E+05
 0.35149998E+02  0.20554E+05
 0.35199997E+02  0.53728E+05
 0.35249996E+02  0.54624E+06
 0.35299999E+02  0.17796E+07
 0.35349998E+02  0.31431E+07
 0.35399998E+02  0.31526E+07
 0.35449997E+02  0.15628E+07
 0.35499996E+02  0.26448E+06
 0.35549999E+02  0.28436E+05
 0.35599998E+02 -0.20472E+06
 0.35649998E+02 -0.32635E+06
 0.35699997E+02  0.51283E+05
 0.35749996E+02  0.64762E+06
 0.35799999E+02  0.81058E+06
 0.35849998E+02  0.47301E+06
 0.35899998E+02  0.75601E+06
 0.35949997E+02  0.80759E+06
 0.35999996E+02  0.10694E+06
 0.36049999E+02  0.13325E+06
 0.36099998E+02  0.44920E+06
 0.36149998E+02  0.64602E+06
 0.36199997E+02  0.10449E+07
 0.36249996E+02  0.11817E+07
 0.36299999E+02  0.55365E+06
 0.36349998E+02 -0.11338E+06
 0.36399998E+02 -0.15945E+06
 0.36449997E+02  0.41410E+06
 0.36499996E+02  0.10899E+07
 0.36549999E+02  0.14326E+07
 0.36599998E+02  0.11873E+07
 0.36649998E+02  0.55196E+06
 0.36699997E+02  0.33088E+06
 0.36749996E+02  0.54541E+05
 0.36799999E+02 -0.80954E+04
 0.36849998E+02  0.70690E+06
 0.36899998E+02  0.51482E+06
 0.36949997E+02 -0.55175E+06
 0.36999996E+02 -0.10190E+07
 0.37049999E+02 -0.12073E+07
 0.37099998E+02 -0.78377E+06
 0.37149998E+02  0.13925E+06
 0.37199997E+02  0.11273E+07
 0.37249996E+02  0.20147E+07
 0.37299999E+02  0.26091E+07
 0.37349998E+02  0.28143E+07
 0.37399998E+02  0.22012E+07
 0.37449997E+02  0.99220E+06
 0.37499996E+02 -0.41851E+06
 0.37549999E+02 -0.12838E+07
 0.37599998E+02 -0.14889E+07
 0.37649998E+02 -0.15316E+07
 0.37699997E+02 -0.99558E+06
 0.37749996E+02 -0.48329E+06
 0.37799999E+02 -0.33745E+06
 0.37849998E+02 -0.67253E+06
 0.37899998E+02 -0.13391E+07
 0.37949997E+02 -0.12932E+07
 0.37999996E+02 -0.69007E+06
 0.38049999E+02  0.10275E+06
 0.38099998E+02  0.93951E+06
 0.38149998E+02  0.16142E+07
 0.38199997E+02  0.16128E+07
 0.38249996E+02  0.86828E+06
 0.38299999E+02 -0.23130E+06
 0.38349998E+02 -0.14560E+07
 0.38399998E+02 -0.15193E+07
 0.38449997E+02 -0.38677E+06
 0.38499996E+02  0.17144E+06
 0.38549999E+02 -0.28213E+06
 0.38599998E+02 -0.87450E+06
 0.38649998E+02 -0.16781E+07
 0.38699997E+02 -0.21234E+07
 0.38749996E+02 -0.17367E+07
 0.38799999E+02 -0.16914E+07
 0.38849998E+02 -0.12340E+07
 0.38899998E+02 -0.94711E+06
 0.38949997E+02 -0.14304E+07
 0.38999996E+02 -0.97055E+06
 0.39049999E+02 -0.12578E+06
 0.39099998E+02  0.34863E+06
 0.39149998E+02  0.99767E+06
 0.39199997E+02  0.15925E+07
 0.39249996E+02  0.17558E+07
 0.39299999E+02  0.20491E+07
 0.39349998E+02  0.16985E+07
 0.39399998E+02  0.85707E+06
 0.39449997E+02  0.33306E+06
 0.39499996E+02 -0.28562E+06
 0.39549999E+02 -0.32548E+06
 0.39599998E+02  0.19032E+04
 0.39649998E+02  0.38195E+06
 0.39699997E+02  0.27864E+05
 0.39749996E+02 -0.36570E+06
 0.39799999E+02 -0.13503E+06
 0.39849998E+02 -0.79501E+03
 0.39899998E+02 -0.14596E+06
 0.39949997E+02 -0.37335E+06
 0.39999996E+02  0.45334E+05
 0.40049999E+02  0.56463E+06
 0.40099998E+02  0.35276E+06
 0.40149998E+02  0.14014E+06
 0.40199997E+02  0.55113E+06
 0.40249996E+02  0.10088E+07
 0.40299999E+02  0.12708E+07
 0.40349998E+02  0.61306E+06
 0.40399998E+02 -0.46766E+05
 0.40449997E+02  0.39809E+06
 0.40499996E+02  0.84446E+06
 0.40549999E+02  0.80675E+06
 0.40599998E+02  0.67389E+06
 0.40649998E+02  0.21292E+06
 0.40699997E+02 -0.39589E+06
 0.40749996E+02 -0.30056E+06
 0.40799999E+02  0.31811E+05
 0.40849998E+02  0.67887E+06
 0.40899998E+02  0.15496E+07
 0.40949997E+02  0.18129E+07
 0.40999996E+02  0.16016E+07
 0.41049999E+02  0.15750E+07
 0.41099998E+02  0.16697E+07
 0.41149998E+02  0.19827E+07
 0.41199997E+02  0.22872E+07
 0.41249996E+02  0.19030E+07
 0.41299999E+02  0.15975E+07
 0.41349998E+02  0.13601E+07
 0.41399998E+02  0.91202E+06
 0.41449997E+02  0.77219E+06
 0.41499996E+02  0.87359E+06
 0.41549999E+02  0.83877E+06
 0.41599998E+02  0.91601E+06
 0.41649998E+02  0.10565E+07
 0.41699997E+02  0.55560E+06
 0.41749996E+02 -0.41801E+04
 0.41799999E+02 -0.91863E+05
 0.41849998E+02 -0.15223E+06
 0.41899998E+02 -0.25280E+06
 0.41949997E+02 -0.56406E+06
 0.41999996E+02 -0.79421E+06
 0.42049999E+02 -0.63310E+06
 0.42099998E+02 -0.56500E+06
 0.42149998E+02 -0.34441E+06
 0.42199997E+02  0.28162E+06
 0.42249996E+02  0.79878E+06
 0.42299999E+02  0.73793E+06
 0.42349998E+02  0.20063E+06
 0.42399998E+02 -0.66686E+06
 0.42449997E+02 -0.91553E+06
 0.42499996E+02 -0.58390E+06
 0.42549999E+02 -0.41097E+06
 0.42599998E+02 -0.27106E+06
 0.42649998E+02 -0.47948E+06
 0.42699997E+02 -0.77046E+06
 0.42749996E+02 -0.81546E+06
 0.42799995E+02 -0.67664E+06
 0.42849998E+02 -0.87259E+06
 0.42899998E+02 -0.10511E+07
 0.42949997E+02 -0.75039E+06
 0.42999996E+02 -0.56618E+06
 0.43049995E+02 -0.39879E+06
 0.43099998E+02 -0.33828E+05
 0.43149998E+02  0.27557E+06
 0.43199997E+02  0.49023E+06
 0.43249996E+02  0.28040E+06
 0.43299995E+02  0.11028E+06
 0.43349998E+02  0.33008E+06
 0.43399998E+02  0.38196E+06
 0.43449997E+02  0.16390E+06
 0.43499996E+02 -0.10158E+06
 0.43549995E+02 -0.26096E+06
 0.43599998E+02 -0.46313E+05
 0.43649998E+02  0.49461E+06
 0.43699997E+02  0.81536E+06
 0.43749996E+02  0.79981E+06
 0.43799995E+02  0.36917E+06
 0.43849998E+02 -0.99903E+05
 0.43899998E+02 -0.42186E+06
 0.43949997E+02 -0.92079E+06
 0.43999996E+02 -0.13951E+07
 0.44049995E+02 -0.16503E+07
 0.44099998E+02 -0.16271E+07
 0.44149998E+02 -0.14927E+07
 0.44199997E+02 -0.10656E+07
 0.44249996E+02 -0.33637E+06
 0.44299995E+02  0.33941E+06
 0.44349998E+02  0.80514E+06
 0.44399998E+02  0.67852E+06
 0.44449997E+02  0.53463E+06
 0.44499996E+02  0.48151E+06
 0.44549995E+02  0.40014E+06
 0.44599998E+02  0.13778E+06
 0.44649998E+02 -0.37373E+06
 0.44699997E+02 -0.73112E+06
 0.44749996E+02 -0.88166E+06
 0.44799995E+02 -0.75712E+06
 0.44849998E+02 -0.39567E+06
 0.44899998E+02  0.30045E+06
 0.44949997E+02  0.10762E+07
 0.44999996E+02  0.16154E+07
 0.45049995E+02  0.17390E+07
 0.45099998E+02  0.17260E+07
 0.45149998E+02  0.17001E+07
 0.45199997E+02  0.14069E+07
 0.45249996E+02  0.98454E+06
 0.45299995E+02  0.86058E+06
 0.45349998E+02  0.96383E+06
 0.45399998E+02  0.85991E+06
 0.45449997E+02  0.68708E+06
 0.45499996E+02  0.65914E+06
 0.45549995E+02  0.77817E+06
 0.45599998E+02  0.90476E+06
 0.45649998E+02  0.88879E+06
 0.45699997E+02  0.10165E+07
 0.45749996E+02  0.13194E+07
 0.45799995E+02  0.12655E+07
 0.45849998E+02  0.71361E+06
 0.45899998E+02 -0.17700E+05
 0.45949997E+02 -0.57581E+06
 0.45999996E+02 -0.75670E+06
 0.46049995E+02 -0.79111E+06
 0.46099998E+02 -0.72286E+06
 0.46149998E+02 -0.26169E+06
 0.46199997E+02  0.45315E+06
 0.46249996E+02  0.85958E+06
 0.46299995E+02  0.10047E+07
 0.46349998E+02  0.91589E+06
 0.46399998E+02  0.71174E+06
 0.46449997E+02  0.72245E+06
 0.46499996E+02  0.88684E+06
 0.46549995E+02  0.95553E+06
 0.46599998E+02  0.77232E+06
 0.46649998E+02  0.67430E+06
 0.46699997E+02  0.84118E+06
 0.46749996E+02  0.10231E+07
 0.46799995E+02  0.10554E+07
 0.46849998E+02  0.12328E+07
 0.46899998E+02  0.13797E+07
 0.46949997E+02  0.12789E+07
 0.46999996E+02  0.93445E+06
 0.47049995E+02  0.41059E+06
 0.47099998E+02  0.10223E+06
 0.47149998E+02 -0.19659E+05
 0.47199997E+02 -0.88630E+05
 0.47249996E+02 -0.32204E+06
 0.47299995E+02 -0.60400E+06
 0.47349998E+02 -0.76017E+06
 0.47399998E+02 -0.80562E+06
 0.47449997E+02 -0.63077E+06
 0.47499996E+02 -0.35299E+06
 0.47549995E+02 -0.14277E+06
 0.47599998E+02 -0.23030E+06
 0.47649998E+02 -0.37811E+06
 0.47699997E+02 -0.28504E+06
 0.47749996E+02  0.78297E+04
 0.47799995E+02  0.26470E+06
 0.47849998E+02  0.26805E+06
 0.47899998E+02  0.21653E+06
 0.47949997E+02  0.21115E+06
 0.47999996E+02  0.11576E+06
 0.48049995E+02 -0.32500E+05
 0.48099998E+02 -0.81142E+05
 0.48149998E+02  0.20495E+06
 0.48199997E+02  0.65344E+06
 0.48249996E+02  0.96459E+06
 0.48299995E+02  0.11101E+07
 0.48349998E+02  0.10861E+07
 0.48399998E+02  0.11273E+07
 0.48449997E+02  0.12191E+07
 0.48499996E+02  0.13337E+07
 0.48549995E+02  0.12736E+07
 0.48599998E+02  0.11815E+07
 0.48649998E+02  0.11646E+07
 0.48699997E+02  0.10841E+07
 0.48749996E+02  0.11040E+07
 0.48799995E+02  0.12073E+07
 0.48849998E+02  0.12830E+07
 0.48899998E+02  0.10539E+07
 0.48949997E+02  0.70597E+06
 0.48999996E+02  0.37888E+06
 0.49049995E+02  0.85710E+05
 0.49099998E+02 -0.69155E+05
 0.49149998E+02 -0.16176E+06
 0.49199997E+02 -0.27553E+06
 0.49249996E+02 -0.33116E+06
 0.49299995E+02 -0.33747E+06
 0.49349998E+02 -0.57679E+06
 0.49399998E+02 -0.80865E+06
 0.49449997E+02 -0.10196E+07
 0.49499996E+02 -0.13228E+07
 0.49549995E+02 -0.15222E+07
 0.49599998E+02 -0.14768E+07
 0.49649998E+02 -0.10937E+07
 0.49699997E+02 -0.66663E+06
 0.49749996E+02 -0.44539E+06
 0.49799995E+02 -0.46010E+06
 0.49849998E+02 -0.52316E+06
 0.49899998E+02 -0.65625E+06
 0.49949997E+02 -0.85063E+06
 0.49999996E+02 -0.75984E+06
 0.50049995E+02 -0.37892E+06
 0.50099998E+02 -0.44572E+05
 0.50149998E+02  0.19408E+06
 0.50199997E+02  0.32765E+06
 0.50249996E+02  0.33866E+06
 0.50299995E+02  0.44004E+06
 0.50349998E+02  0.57276E+06
 0.50399998E+02  0.57390E+06
 0.50449997E+02  0.29863E+06
 0.50499996E+02 -0.12873E+06
 0.50549995E+02 -0.26201E+06
 0.50599998E+02 -0.34373E+05
 0.50649998E+02  0.32237E+06
 0.50699997E+02  0.57204E+06
 0.50749996E+02  0.59121E+06
 0.50799995E+02  0.43694E+06
 0.50849998E+02  0.14948E+06
 0.50899998E+02 -0.14755E+06
 0.50949997E+02 -0.44321E+06
 0.50999996E+02 -0.85399E+06
 0.51049995E+02 -0.11765E+07
 0.51099998E+02 -0.13666E+07
 0.51149998E+02 -0.15132E+07
 0.51199997E+02 -0.15224E+07
 0.51249996E+02 -0.13800E+07
 0.51299995E+02 -0.12041E+07
 0.51349998E+02 -0.12381E+07
 0.51399998E+02 -0.13875E+07
 0.51449997E+02 -0.15068E+07
 0.51499996E+02 -0.14987E+07
 0.51549995E+02 -0.14369E+07
 0.51599998E+02 -0.13997E+07
 0.51649998E+02 -0.13539E+07
 0.51699997E+02 -0.13857E+07
 0.51749996E+02 -0.14554E+07
 0.51799995E+02 -0.15062E+07
 0.51849998E+02 -0.13939E+07
 0.51899998E+02 -0.12782E+07
 0.51949997E+02 -0.11011E+07
 0.51999996E+02 -0.94272E+06
 0.52049995E+02 -0.80365E+06
 0.52099998E+02 -0.58786E+06
 0.52149998E+02 -0.45250E+06
 0.52199997E+02 -0.18041E+06
 0.52249996E+02  0.93086E+05
 0.52299995E+02  0.34207E+06
 0.52349998E+02  0.45867E+06
 0.52399998E+02  0.18354E+06
 0.52449997E+02 -0.27327E+06
 0.52499996E+02 -0.67643E+06
 0.52549995E+02 -0.84243E+06
 0.52599998E+02 -0.89414E+06
 0.52649998E+02 -0.88225E+06
 0.52699997E+02 -0.69665E+06
 0.52749996E+02 -0.41640E+06
 0.52799995E+02 -0.12814E+06
 0.52849998E+02  0.16570E+06
 0.52899998E+02  0.50910E+06
 0.52949997E+02  0.72206E+06
 0.52999996E+02  0.62162E+06
 0.53049995E+02  0.40163E+06
 0.53099998E+02  0.26783E+06
 0.53149998E+02  0.26248E+06
 0.53199997E+02  0.35998E+06
 0.53249996E+02  0.61330E+06
 0.53299995E+02  0.91047E+06
 0.53349998E+02  0.10617E+07
 0.53399998E+02  0.94066E+06
 0.53449997E+02  0.61233E+06
 0.53499996E+02  0.19148E+06
 0.53549995E+02 -0.37683E+06
 0.53599998E+02 -0.84829E+06
 0.53649998E+02 -0.11580E+07
 0.53699997E+02 -0.13031E+07
 0.53749996E+02 -0.11798E+07
 0.53799995E+02 -0.87281E+06
 0.53849998E+02 -0.46104E+06
 0.53899998E+02 -0.15212E+06
 0.53949997E+02 -0.85616E+05
 0.53999996E+02 -0.35840E+05
 0.54049995E+02  0.22689E+06
 0.54099998E+02  0.76468E+06
 0.54149998E+02  0.12888E+07
 0.54199997E+02  0.17482E+07
 0.54249996E+02  0.20308E+07
 0.54299995E+02  0.20688E+07
 0.54349998E+02  0.20378E+07
 0.54399998E+02  0.19543E+07
 0.54449997E+02  0.19288E+07
 0.54499996E+02  0.19615E+07
 0.54549995E+02  0.20500E+07
 0.54599998E+02  0.20822E+07
 0.54649998E+02  0.21526E+07
 0.54699997E+02  0.23185E+07
 0.54749996E+02  0.23942E+07
 0.54799995E+02  0.23651E+07
 0.54849998E+02  0.23267E+07
 0.54899998E+02  0.21572E+07
 0.54949997E+02  0.18280E+07
 0.54999996E+02  0.13087E+07
 0.55049995E+02  0.77778E+06
 0.55099998E+02  0.45751E+06
 0.55149998E+02  0.13368E+06
 0.55199997E+02 -0.23634E+06
 0.55249996E+02 -0.66715E+06
 0.55299995E+02 -0.97308E+06
 0.55349998E+02 -0.11518E+07
 0.55399998E+02 -0.14337E+07
 0.55449997E+02 -0.18062E+07
 0.55499996E+02 -0.20843E+07
 0.55549995E+02 -0.22242E+07
 0.55599998E+02 -0.22672E+07
 0.55649998E+02 -0.21220E+07
 0.55699997E+02 -0.17575E+07
 0.55749996E+02 -0.11524E+07
 0.55799995E+02 -0.50339E+06
 0.55849995E+02 -0.14558E+05
 0.55899998E+02  0.33687E+06
 0.55949997E+02  0.70408E+06
 0.55999996E+02  0.11405E+07
 0.56049995E+02  0.15630E+07
 0.56099995E+02  0.18600E+07
 0.56149998E+02  0.18485E+07
 0.56199997E+02  0.15831E+07
 0.56249996E+02  0.12846E+07
 0.56299995E+02  0.11732E+07
 0.56349995E+02  0.12306E+07
 0.56399998E+02  0.13593E+07
 0.56449997E+02  0.15565E+07
 0.56499996E+02  0.17420E+07
 0.56549995E+02  0.19376E+07
 0.56599995E+02  0.20390E+07
 0.56649998E+02  0.18714E+07
 0.56699997E+02  0.15257E+07
 0.56749996E+02  0.11363E+07
 0.56799995E+02  0.68620E+06
 0.56849995E+02  0.24054E+06
 0.56899998E+02 -0.20814E+06
 0.56949997E+02 -0.64780E+06
 0.56999996E+02 -0.10660E+07
 0.57049995E+02 -0.14074E+07
 0.57099995E+02 -0.16523E+07
 0.57149998E+02 -0.18011E+07
 0.57199997E+02 -0.17666E+07
 0.57249996E+02 -0.16598E+07
 0.57299995E+02 -0.15611E+07
 0.57349995E+02 -0.15068E+07
 0.57399998E+02 -0.14747E+07
 0.57449997E+02 -0.14531E+07
 0.57499996E+02 -0.13416E+07
 0.57549995E+02 -0.12091E+07
 0.57599995E+02 -0.10797E+07
 0.57649998E+02 -0.78978E+06
 0.57699997E+02 -0.43099E+06
 0.57749996E+02 -0.35350E+05
 0.57799995E+02  0.43404E+06
 0.57849995E+02  0.89999E+06
 0.57899998E+02  0.12726E+07
 0.57949997E+02  0.15052E+07
 0.57999996E+02  0.14829E+07
 0.58049995E+02  0.13022E+07
 0.58099995E+02  0.10683E+07
 0.58149998E+02  0.86956E+06
 0.58199997E+02  0.73829E+06
 0.58249996E+02  0.63878E+06
 0.58299995E+02  0.77844E+06
 0.58349995E+02  0.10634E+07
 0.58399998E+02  0.14033E+07
 0.58449997E+02  0.17330E+07
 0.58499996E+02  0.18112E+07
 0.58549995E+02  0.16050E+07
 0.58599995E+02  0.11745E+07
 0.58649998E+02  0.60816E+06
 0.58699997E+02  0.97989E+05
 0.58749996E+02 -0.26555E+06
 0.58799995E+02 -0.56660E+06
 0.58849995E+02 -0.81507E+06
 0.58899998E+02 -0.10509E+07
 0.58949997E+02 -0.12482E+07
 0.58999996E+02 -0.13385E+07
 0.59049995E+02 -0.13839E+07
 0.59099995E+02 -0.13967E+07
 0.59149998E+02 -0.13973E+07
 0.59199997E+02 -0.14039E+07
 0.59249996E+02 -0.14091E+07
 0.59299995E+02 -0.13997E+07
 0.59349995E+02 -0.12879E+07
 0.59399998E+02 -0.10445E+07
 0.59449997E+02 -0.80112E+06
 0.59499996E+02 -0.73299E+06
 0.59549995E+02 -0.84217E+06
 0.59599995E+02 -0.95962E+06
 0.59649998E+02 -0.94270E+06
 0.59699997E+02 -0.84100E+06
 0.59749996E+02 -0.74089E+06
 0.59799995E+02 -0.67146E+06
 0.59849995E+02 -0.61336E+06
 0.59899998E+02 -0.54566E+06
 0.59949997E+02 -0.52674E+06
 0.59999996E+02 -0.53630E+06
 0.60049995E+02 -0.45857E+06
 0.60099995E+02 -0.29026E+06
 0.60149998E+02 -0.16428E+06
 0.60199997E+02 -0.19789E+06
 0.60249996E+02 -0.35447E+06
 0.60299995E+02 -0.47091E+06
 0.60349995E+02 -0.57918E+06
 0.60399998E+02 -0.70724E+06
 0.60449997E+02 -0.68933E+06
 0.60499996E+02 -0.49854E+06
 0.60549995E+02 -0.29694E+06
 0.60599995E+02 -0.23075E+06
 0.60649998E+02 -0.27568E+06
 0.60699997E+02 -0.35602E+06
 0.60749996E+02 -0.47304E+06
 0.60799995E+02 -0.67876E+06
 0.60849995E+02 -0.90225E+06
 0.60899998E+02 -0.10562E+07
 0.60949997E+02 -0.11953E+07
 0.60999996E+02 -0.12587E+07
 0.61049995E+02 -0.11560E+07
 0.61099995E+02 -0.89071E+06
 0.61149998E+02 -0.70201E+06
 0.61199997E+02 -0.66996E+06
 0.61249996E+02 -0.63990E+06
 0.61299995E+02 -0.58699E+06
 0.61349995E+02 -0.43252E+06
 0.61399998E+02 -0.13451E+06
 0.61449997E+02  0.27540E+06
 0.61499996E+02  0.69081E+06
 0.61549995E+02  0.11199E+07
 0.61599995E+02  0.15610E+07
 0.61649998E+02  0.20074E+07
 0.61699997E+02  0.25277E+07
 0.61749996E+02  0.30796E+07
 0.61799995E+02  0.35689E+07
 0.61849995E+02  0.38801E+07
 0.61899998E+02  0.39626E+07
 0.61949997E+02  0.38226E+07
 0.61999996E+02  0.35611E+07
 0.62049995E+02  0.32980E+07
 0.62099998E+02  0.30672E+07
 0.62149994E+02  0.28649E+07
 0.62199997E+02  0.26502E+07
 0.62249992E+02  0.24207E+07
 0.62299995E+02  0.21592E+07
 0.62349998E+02  0.18132E+07
 0.62399994E+02  0.14459E+07
 0.62449997E+02  0.11127E+07
 0.62499992E+02  0.80326E+06
 0.62549995E+02  0.51978E+06
 0.62599998E+02  0.23839E+06
 0.62649994E+02 -0.23981E+05
 0.62699997E+02 -0.22753E+06
 0.62749992E+02 -0.37277E+06
 0.62799995E+02 -0.54043E+06
 0.62849998E+02 -0.74127E+06
 0.62899994E+02 -0.90020E+06
 0.62949997E+02 -0.10503E+07
 0.62999992E+02 -0.12105E+07
 0.63049995E+02 -0.13837E+07
 0.63099998E+02 -0.15516E+07
 0.63149994E+02 -0.17602E+07
 0.63199997E+02 -0.19889E+07
 0.63249992E+02 -0.21184E+07
 0.63299995E+02 -0.20582E+07
 0.63349998E+02 -0.17999E+07
 0.63399994E+02 -0.13967E+07
 0.63449997E+02 -0.92563E+06
 0.63499992E+02 -0.46133E+06
 0.63549995E+02 -0.36876E+05
 0.63599998E+02  0.27129E+06
 0.63649994E+02  0.48553E+06
 0.63699997E+02  0.59149E+06
 0.63749992E+02  0.53817E+06
 0.63799995E+02  0.41697E+06
 0.63849998E+02  0.29106E+06
 0.63899994E+02  0.15263E+06
 0.63949997E+02 -0.20537E+05
 0.63999992E+02 -0.26347E+06
 0.64049995E+02 -0.44274E+06
 0.64099998E+02 -0.54915E+06
 0.64149994E+02 -0.70024E+06
 0.64199997E+02 -0.81165E+06
 0.64249992E+02 -0.81420E+06
 0.64299995E+02 -0.79077E+06
 0.64349998E+02 -0.84748E+06
 0.64399994E+02 -0.10021E+07
 0.64449997E+02 -0.12422E+07
 0.64499992E+02 -0.15469E+07
 0.64549995E+02 -0.18255E+07
 0.64599998E+02 -0.20169E+07
 0.64649994E+02 -0.21295E+07
 0.64699997E+02 -0.22242E+07
 0.64749992E+02 -0.23111E+07
 0.64799995E+02 -0.24050E+07
 0.64849998E+02 -0.24891E+07
 0.64899994E+02 -0.24551E+07
 0.64949997E+02 -0.23712E+07
 0.64999992E+02 -0.23136E+07
 0.65049995E+02 -0.23162E+07
 0.65099998E+02 -0.23927E+07
 0.65149994E+02 -0.25318E+07
 0.65199997E+02 -0.26679E+07
 0.65249992E+02 -0.26297E+07
 0.65299995E+02 -0.23372E+07
 0.65349998E+02 -0.18770E+07
 0.65399994E+02 -0.13292E+07
 0.65449997E+02 -0.76493E+06
 0.65499992E+02 -0.29402E+06
 0.65549995E+02 -0.30056E+05
 0.65599998E+02  0.67516E+04
 0.65649994E+02 -0.99092E+05
 0.65699997E+02 -0.28478E+06
 0.65749992E+02 -0.43570E+06
 0.65799995E+02 -0.45557E+06
 0.65849998E+02 -0.26931E+06
 0.65899994E+02  0.12770E+06
 0.65949997E+02  0.61504E+06
 0.65999992E+02  0.11531E+07
 0.66049995E+02  0.17111E+07
 0.66099998E+02  0.21786E+07
 0.66149994E+02  0.24112E+07
 0.66199997E+02  0.24097E+07
 0.66249992E+02  0.22539E+07
 0.66299995E+02  0.19547E+07
 0.66349998E+02  0.15624E+07
 0.66399994E+02  0.11102E+07
 0.66449997E+02  0.63743E+06
 0.66499992E+02  0.23996E+06
 0.66549995E+02 -0.69066E+04
 0.66599998E+02 -0.12946E+06
 0.66649994E+02 -0.11411E+06
 0.66699997E+02  0.34829E+05
 0.66749992E+02  0.27274E+06
 0.66799995E+02  0.59579E+06
 0.66849998E+02  0.96931E+06
 0.66899994E+02  0.12643E+07
 0.66949997E+02  0.13490E+07
 0.66999992E+02  0.11880E+07
 0.67049995E+02  0.82308E+06
 0.67099998E+02  0.35107E+06
 0.67149994E+02 -0.14489E+06
 0.67199997E+02 -0.53767E+06
 0.67249992E+02 -0.69701E+06
 0.67299995E+02 -0.58881E+06
 0.67349998E+02 -0.30819E+06
 0.67399994E+02  0.68722E+05
 0.67449997E+02  0.49808E+06
 0.67499992E+02  0.91700E+06
 0.67549995E+02  0.12722E+07
 0.67599998E+02  0.16072E+07
 0.67649994E+02  0.20103E+07
 0.67699997E+02  0.24725E+07
 0.67749992E+02  0.29659E+07
 0.67799995E+02  0.33768E+07
 0.67849998E+02  0.36457E+07
 0.67899994E+02  0.37375E+07
 0.67949997E+02  0.36275E+07
 0.67999992E+02  0.33618E+07
 0.68049995E+02  0.29345E+07
 0.68099998E+02  0.24443E+07
 0.68149994E+02  0.19560E+07
 0.68199997E+02  0.15240E+07
 0.68249992E+02  0.12276E+07
 0.68299995E+02  0.10818E+07
 0.68349998E+02  0.10839E+07
 0.68399994E+02  0.11696E+07
 0.68449997E+02  0.12448E+07
 0.68499992E+02  0.12028E+07
 0.68549995E+02  0.10370E+07
 0.68599998E+02  0.69245E+06
 0.68649994E+02  0.16453E+06
 0.68699997E+02 -0.43807E+06
 0.68749992E+02 -0.10041E+07
 0.68799995E+02 -0.14040E+07
 0.68849998E+02 -0.16397E+07
 0.68899994E+02 -0.17570E+07
 0.68949997E+02 -0.17266E+07
 0.68999992E+02 -0.15939E+07
 0.69049995E+02 -0.14460E+07
 0.69099998E+02 -0.12813E+07
 0.69149994E+02 -0.10953E+07
 0.69199997E+02 -0.87586E+06
 0.69249992E+02 -0.64745E+06
 0.69299995E+02 -0.44967E+06
 0.69349998E+02 -0.32424E+06
 0.69399994E+02 -0.30152E+06
 0.69449997E+02 -0.39966E+06
 0.69499992E+02 -0.62911E+06
 0.69549995E+02 -0.95706E+06
 0.69599998E+02 -0.12917E+07
 0.69649994E+02 -0.15247E+07
 0.69699997E+02 -0.16362E+07
 0.69749992E+02 -0.16770E+07
 0.69799995E+02 -0.16790E+07
 0.69849998E+02 -0.16696E+07
 0.69899994E+02 -0.16948E+07
 0.69949997E+02 -0.16957E+07
 0.69999992E+02 -0.16964E+07
 0.70049995E+02 -0.17395E+07
 0.70099998E+02 -0.17460E+07
 0.70149994E+02 -0.16681E+07
 0.70199997E+02 -0.14918E+07
 0.70249992E+02 -0.12522E+07
 0.70299995E+02 -0.10249E+07
 0.70349998E+02 -0.89511E+06
 0.70399994E+02 -0.88461E+06
 0.70449997E+02 -0.97134E+06
 0.70499992E+02 -0.10945E+07
 0.70549995E+02 -0.11945E+07
 0.70599998E+02 -0.12538E+07
 0.70649994E+02 -0.12295E+07
 0.70699997E+02 -0.10859E+07
 0.70749992E+02 -0.85638E+06
 0.70799995E+02 -0.59863E+06
 0.70849998E+02 -0.34352E+06
 0.70899994E+02 -0.12357E+06
 0.70949997E+02  0.48875E+05
 0.70999992E+02  0.13967E+06
 0.71049995E+02  0.16792E+06
 0.71099998E+02  0.20858E+06
 0.71149994E+02  0.25537E+06
 0.71199997E+02  0.28975E+06
 0.71249992E+02  0.29204E+06
 0.71299995E+02  0.26016E+06
 0.71349998E+02  0.20257E+06
 0.71399994E+02  0.14120E+06
 0.71449997E+02  0.12005E+06
 0.71499992E+02  0.15232E+06
 0.71549995E+02  0.22341E+06
 0.71599998E+02  0.29246E+06
 0.71649994E+02  0.32286E+06
 0.71699997E+02  0.26775E+06
 0.71749992E+02  0.12330E+06
 0.71799995E+02 -0.58906E+05
 0.71849998E+02 -0.22819E+06
 0.71899994E+02 -0.33774E+06
 0.71949997E+02 -0.37995E+06
 0.71999992E+02 -0.37509E+06
 0.72049995E+02 -0.33837E+06
 0.72099998E+02 -0.28025E+06
 0.72149994E+02 -0.24227E+06
 0.72199997E+02 -0.22270E+06
 0.72249992E+02 -0.18459E+06
 0.72299995E+02 -0.13842E+06
 0.72349998E+02 -0.69657E+05
 0.72399994E+02  0.12550E+05
 0.72449997E+02  0.13763E+06
 0.72499992E+02  0.33780E+06
 0.72549995E+02  0.54954E+06
 0.72599998E+02  0.71482E+06
 0.72649994E+02  0.80472E+06
 0.72699997E+02  0.81521E+06
 0.72749992E+02  0.77211E+06
 0.72799995E+02  0.69336E+06
 0.72849998E+02  0.59120E+06
 0.72899994E+02  0.50795E+06
 0.72949997E+02  0.42867E+06
 0.72999992E+02  0.31948E+06
 0.73049995E+02  0.20656E+06
 0.73099998E+02  0.98573E+05
 0.73149994E+02 -0.12637E+05
 0.73199997E+02 -0.10346E+06
 0.73249992E+02 -0.17090E+06
 0.73299995E+02 -0.19492E+06
 0.73349998E+02 -0.18404E+06
 0.73399994E+02 -0.16603E+06
 0.73449997E+02 -0.13231E+06
 0.73499992E+02 -0.93013E+05
 0.73549995E+02 -0.98586E+05
 0.73599998E+02 -0.16909E+06
 0.73649994E+02 -0.24996E+06
 0.73699997E+02 -0.28110E+06
 0.73749992E+02 -0.20215E+06
 0.73799995E+02 -0.24763E+05
 0.73849998E+02  0.19131E+06
 0.73899994E+02  0.38991E+06
 0.73949997E+02  0.50283E+06
 0.73999992E+02  0.47734E+06
 0.74049995E+02  0.36364E+06
 0.74099998E+02  0.25506E+06
 0.74149994E+02  0.17669E+06
 0.74199997E+02  0.10864E+06
 0.74249992E+02  0.25207E+05
 0.74299995E+02 -0.57424E+05
 0.74349998E+02 -0.82455E+05
 0.74399994E+02 -0.17764E+05
 0.74449997E+02  0.12617E+06
 0.74499992E+02  0.33993E+06
 0.74549995E+02  0.59186E+06
 0.74599998E+02  0.79406E+06
 0.74649994E+02  0.84307E+06
 0.74699997E+02  0.73193E+06
 0.74749992E+02  0.53677E+06
 0.74799995E+02  0.34118E+06
 0.74849998E+02  0.16750E+06
 0.74899994E+02  0.21192E+05
 0.74949997E+02 -0.93796E+05
 0.74999992E+02 -0.19564E+06
 0.75049995E+02 -0.26971E+06
 0.75099998E+02 -0.28269E+06
 0.75149994E+02 -0.20092E+06
 0.75199997E+02 -0.45542E+05
 0.75249992E+02  0.12723E+06
 0.75299995E+02  0.28369E+06
 0.75349998E+02  0.40587E+06
 0.75399994E+02  0.52514E+06
 0.75449997E+02  0.66341E+06
 0.75499992E+02  0.83440E+06
 0.75549995E+02  0.10636E+07
 0.75599998E+02  0.13114E+07
 0.75649994E+02  0.15450E+07
 0.75699997E+02  0.17629E+07
 0.75749992E+02  0.19451E+07
 0.75799995E+02  0.20559E+07
 0.75849998E+02  0.20787E+07
 0.75899994E+02  0.19932E+07
 0.75949997E+02  0.18248E+07
 0.75999992E+02  0.16361E+07
 0.76049995E+02  0.14378E+07
 0.76099998E+02  0.12262E+07
 0.76149994E+02  0.10085E+07
 0.76199997E+02  0.80406E+06
 0.76249992E+02  0.62036E+06
 0.76299995E+02  0.43219E+06
 0.76349998E+02  0.23646E+06
 0.76399994E+02  0.70848E+05
 0.76449997E+02 -0.67671E+05
 0.76499992E+02 -0.23227E+06
 0.76549995E+02 -0.42861E+06
 0.76599998E+02 -0.67103E+06
 0.76649994E+02 -0.96819E+06
 0.76699997E+02 -0.12523E+07
 0.76749992E+02 -0.14789E+07
 0.76799995E+02 -0.16421E+07
 0.76849998E+02 -0.17514E+07
 0.76899994E+02 -0.18455E+07
 0.76949997E+02 -0.19567E+07
 0.76999992E+02 -0.20619E+07
 0.77049995E+02 -0.21707E+07
 0.77099998E+02 -0.23010E+07
 0.77149994E+02 -0.24195E+07
 0.77199997E+02 -0.25074E+07
 0.77249992E+02 -0.25720E+07
 0.77299995E+02 -0.26357E+07
 0.77349998E+02 -0.26944E+07
 0.77399994E+02 -0.27051E+07
 0.77449997E+02 -0.26623E+07
 0.77499992E+02 -0.25667E+07
 0.77549995E+02 -0.24313E+07
 0.77599998E+02 -0.23034E+07
 0.77649994E+02 -0.22073E+07
 0.77699997E+02 -0.21580E+07
 0.77749992E+02 -0.21381E+07
 0.77799995E+02 -0.21199E+07
 0.77849998E+02 -0.20840E+07
 0.77899994E+02 -0.20429E+07
 0.77949997E+02 -0.19871E+07
 0.77999992E+02 -0.18744E+07
 0.78049995E+02 -0.17190E+07
 0.78099998E+02 -0.15489E+07
 0.78149994E+02 -0.13672E+07
 0.78199997E+02 -0.11550E+07
 0.78249992E+02 -0.92566E+06
 0.78299995E+02 -0.71644E+06
 0.78349998E+02 -0.54627E+06
 0.78399994E+02 -0.39957E+06
 0.78449997E+02 -0.24842E+06
 0.78499992E+02 -0.71840E+05
 0.78549995E+02  0.13735E+06
 0.78599998E+02  0.34079E+06
 0.78649994E+02  0.51413E+06
 0.78699997E+02  0.67820E+06
 0.78749992E+02  0.84972E+06
 0.78799995E+02  0.10076E+07
 0.78849998E+02  0.11252E+07
 0.78899994E+02  0.11813E+07
 0.78949997E+02  0.11860E+07
 0.78999992E+02  0.12049E+07
 0.79049995E+02  0.12384E+07
 0.79099998E+02  0.12781E+07
 0.79149994E+02  0.13452E+07
 0.79199997E+02  0.14286E+07
 0.79249992E+02  0.15090E+07
 0.79299995E+02  0.15609E+07
 0.79349998E+02  0.15915E+07
 0.79399994E+02  0.16275E+07
 0.79449997E+02  0.16578E+07
 0.79499992E+02  0.16930E+07
 0.79549995E+02  0.17556E+07
 0.79599998E+02  0.18025E+07
 0.79649994E+02  0.17954E+07
 0.79699997E+02  0.17396E+07
 0.79749992E+02  0.16664E+07
 0.79799995E+02  0.15909E+07
 0.79849998E+02  0.15463E+07
 0.79899994E+02  0.15355E+07
 0.79949997E+02  0.15370E+07
 0.79999992E+02  0.15659E+07
 0.80049995E+02  0.16372E+07
 0.80099998E+02  0.17289E+07
 0.80149994E+02  0.17805E+07
 0.80199997E+02  0.17729E+07
 0.80249992E+02  0.17026E+07
 0.80299995E+02  0.15817E+07
 0.80349998E+02  0.14252E+07
 0.80399994E+02  0.12522E+07
 0.80449997E+02  0.10897E+07
 0.80499992E+02  0.94280E+06
 0.80549995E+02  0.83666E+06
 0.80599998E+02  0.74313E+06
 0.80649994E+02  0.61898E+06
 0.80699997E+02  0.44387E+06
 0.80749992E+02  0.25041E+06
 0.80799995E+02  0.90020E+05
 0.80849998E+02 -0.30203E+05
 0.80899994E+02 -0.11303E+06
 0.80949997E+02 -0.16858E+06
 0.80999992E+02 -0.17775E+06
 0.81049995E+02 -0.14577E+06
 0.81099998E+02 -0.98666E+05
 0.81149994E+02 -0.65260E+05
 0.81199997E+02 -0.85064E+05
 0.81249992E+02 -0.17315E+06
 0.81299995E+02 -0.33154E+06
 0.81349998E+02 -0.52897E+06
 0.81399994E+02 -0.71643E+06
 0.81449997E+02 -0.89599E+06
 0.81499992E+02 -0.10932E+07
 0.81549995E+02 -0.13017E+07
 0.81599998E+02 -0.14929E+07
 0.81649994E+02 -0.16543E+07
 0.81699997E+02 -0.17728E+07
 0.81749992E+02 -0.18468E+07
 0.81799995E+02 -0.18641E+07
 0.81849998E+02 -0.18288E+07
 0.81899994E+02 -0.17899E+07
 0.81949997E+02 -0.17699E+07
 0.81999992E+02 -0.17425E+07
 0.82049995E+02 -0.16713E+07
 0.82099998E+02 -0.15707E+07
 0.82149994E+02 -0.14722E+07
 0.82199997E+02 -0.14021E+07
 0.82249992E+02 -0.13743E+07
 0.82299995E+02 -0.13644E+07
 0.82349998E+02 -0.13572E+07
 0.82399994E+02 -0.13480E+07
 0.82449997E+02 -0.13289E+07
 0.82499992E+02 -0.13026E+07
 0.82549995E+02 -0.12617E+07
 0.82599998E+02 -0.12129E+07
 0.82649994E+02 -0.11490E+07
 0.82699997E+02 -0.10578E+07
 0.82749992E+02 -0.94207E+06
 0.82799995E+02 -0.79061E+06
 0.82849998E+02 -0.60639E+06
 0.82899994E+02 -0.43225E+06
 0.82949997E+02 -0.29337E+06
 0.82999992E+02 -0.17590E+06
 0.83049995E+02 -0.75658E+05
 0.83099998E+02  0.46524E+04
 0.83149994E+02  0.71309E+05
 0.83199997E+02  0.13534E+06
 0.83249992E+02  0.18033E+06
 0.83299995E+02  0.18781E+06
 0.83349998E+02  0.18567E+06
 0.83399994E+02  0.20431E+06
 0.83449997E+02  0.23761E+06
 0.83499992E+02  0.29815E+06
 0.83549995E+02  0.39008E+06
 0.83599998E+02  0.53610E+06
 0.83649994E+02  0.74104E+06
 0.83699997E+02  0.93491E+06
 0.83749992E+02  0.10693E+07
 0.83799995E+02  0.11480E+07
 0.83849998E+02  0.11911E+07
 0.83899994E+02  0.12023E+07
 0.83949997E+02  0.11916E+07
 0.83999992E+02  0.11879E+07
 0.84049995E+02  0.12121E+07
 0.84099998E+02  0.12510E+07
 0.84149994E+02  0.12729E+07
 0.84199997E+02  0.12520E+07
 0.84249992E+02  0.11984E+07
 0.84299995E+02  0.11136E+07
 0.84349998E+02  0.10055E+07
 0.84399994E+02  0.89605E+06
 0.84449997E+02  0.79554E+06
 0.84499992E+02  0.70734E+06
 0.84549995E+02  0.64303E+06
 0.84599998E+02  0.60366E+06
 0.84649994E+02  0.57564E+06
 0.84699997E+02  0.56324E+06
 0.84749992E+02  0.56299E+06
 0.84799995E+02  0.55501E+06
 0.84849998E+02  0.50193E+06
 0.84899994E+02  0.39655E+06
 0.84949997E+02  0.26192E+06
 0.84999992E+02  0.12588E+06
 0.85049995E+02  0.68241E+04
 0.85099998E+02 -0.94424E+05
 0.85149994E+02 -0.20358E+06
 0.85199997E+02 -0.34161E+06
 0.85249992E+02 -0.49813E+06
 0.85299995E+02 -0.66191E+06
 0.85349998E+02 -0.81947E+06
 0.85399994E+02 -0.96360E+06
 0.85449997E+02 -0.10938E+07
 0.85499992E+02 -0.12001E+07
 0.85549995E+02 -0.12929E+07
 0.85599998E+02 -0.13727E+07
 0.85649994E+02 -0.14308E+07
 0.85699997E+02 -0.14572E+07
 0.85749992E+02 -0.14508E+07
 0.85799995E+02 -0.14301E+07
 0.85849998E+02 -0.13776E+07
 0.85899994E+02 -0.12771E+07
 0.85949997E+02 -0.11402E+07
 0.85999992E+02 -0.99296E+06
 0.86049995E+02 -0.86232E+06
 0.86099998E+02 -0.75520E+06
 0.86149994E+02 -0.64462E+06
 0.86199997E+02 -0.51178E+06
 0.86249992E+02 -0.34209E+06
 0.86299995E+02 -0.16743E+06
 0.86349998E+02 -0.26129E+05
 0.86399994E+02  0.87675E+05
 0.86449997E+02  0.17231E+06
 0.86499992E+02  0.24041E+06
 0.86549995E+02  0.32466E+06
 0.86599998E+02  0.44087E+06
 0.86649994E+02  0.56497E+06
 0.86699997E+02  0.66849E+06
 0.86749992E+02  0.71303E+06
 0.86799995E+02  0.68586E+06
 0.86849998E+02  0.59426E+06
 0.86899994E+02  0.46484E+06
 0.86949997E+02  0.34106E+06
 0.86999992E+02  0.24859E+06
 0.87049995E+02  0.18908E+06
 0.87099998E+02  0.14885E+06
 0.87149994E+02  0.12828E+06
 0.87199997E+02  0.13224E+06
 0.87249992E+02  0.17383E+06
 0.87299995E+02  0.25814E+06
 0.87349998E+02  0.35300E+06
 0.87399994E+02  0.41562E+06
 0.87449997E+02  0.44701E+06
 0.87499992E+02  0.46898E+06
 0.87549995E+02  0.47944E+06
 0.87599991E+02  0.45482E+06
 0.87649994E+02  0.38788E+06
 0.87699997E+02  0.29792E+06
 0.87749992E+02  0.18744E+06
 0.87799995E+02  0.48225E+05
 0.87849991E+02 -0.95543E+05
 0.87899994E+02 -0.20340E+06
 0.87949997E+02 -0.27222E+06
 0.87999992E+02 -0.31700E+06
 0.88049995E+02 -0.34322E+06
 0.88099991E+02 -0.35332E+06
 0.88149994E+02 -0.35576E+06
 0.88199997E+02 -0.35484E+06
 0.88249992E+02 -0.33548E+06
 0.88299995E+02 -0.31090E+06
 0.88349991E+02 -0.30131E+06
 0.88399994E+02 -0.29733E+06
 0.88449997E+02 -0.30048E+06
 0.88499992E+02 -0.31724E+06
 0.88549995E+02 -0.33609E+06
 0.88599991E+02 -0.34376E+06
 0.88649994E+02 -0.34169E+06
 0.88699997E+02 -0.33082E+06
 0.88749992E+02 -0.32677E+06
 0.88799995E+02 -0.32932E+06
 0.88849991E+02 -0.34201E+06
 0.88899994E+02 -0.36182E+06
 0.88949997E+02 -0.38340E+06
 0.88999992E+02 -0.41373E+06
 0.89049995E+02 -0.43675E+06
 0.89099991E+02 -0.45457E+06
 0.89149994E+02 -0.47035E+06
 0.89199997E+02 -0.49904E+06
 0.89249992E+02 -0.55625E+06
 0.89299995E+02 -0.64244E+06
 0.89349991E+02 -0.74115E+06
 0.89399994E+02 -0.81846E+06
 0.89449997E+02 -0.84151E+06
 0.89499992E+02 -0.80748E+06
 0.89549995E+02 -0.74933E+06
 0.89599991E+02 -0.70062E+06
 0.89649994E+02 -0.67154E+06
 0.89699997E+02 -0.66169E+06
 0.89749992E+02 -0.66931E+06
 0.89799995E+02 -0.67446E+06
 0.89849991E+02 -0.64652E+06
 0.89899994E+02 -0.55006E+06
 0.89949997E+02 -0.39529E+06
 0.89999992E+02 -0.19958E+06
 0.90049995E+02  0.24091E+05
 0.90099991E+02  0.22556E+06
 0.90149994E+02  0.36125E+06
 0.90199997E+02  0.43740E+06
 0.90249992E+02  0.47962E+06
 0.90299995E+02  0.49482E+06
 0.90349991E+02  0.50600E+06
 0.90399994E+02  0.50996E+06
 0.90449997E+02  0.49382E+06
 0.90499992E+02  0.46246E+06
 0.90549995E+02  0.42821E+06
 0.90599991E+02  0.39513E+06
 0.90649994E+02  0.36913E+06
 0.90699997E+02  0.34699E+06
 0.90749992E+02  0.30568E+06
 0.90799995E+02  0.26719E+06
 0.90849991E+02  0.24433E+06
 0.90899994E+02  0.24025E+06
 0.90949997E+02  0.25982E+06
 0.90999992E+02  0.30584E+06
 0.91049995E+02  0.37907E+06
 0.91099991E+02  0.45694E+06
 0.91149994E+02  0.51568E+06
 0.91199997E+02  0.53136E+06
 0.91249992E+02  0.50244E+06
 0.91299995E+02  0.44287E+06
 0.91349991E+02  0.37419E+06
 0.91399994E+02  0.32315E+06
 0.91449997E+02  0.30704E+06
 0.91499992E+02  0.34323E+06
 0.91549995E+02  0.43415E+06
 0.91599991E+02  0.56185E+06
 0.91649994E+02  0.70630E+06
 0.91699997E+02  0.83363E+06
 0.91749992E+02  0.92226E+06
 0.91799995E+02  0.97291E+06
 0.91849991E+02  0.98265E+06
 0.91899994E+02  0.97079E+06
 0.91949997E+02  0.95528E+06
 0.91999992E+02  0.93080E+06
 0.92049995E+02  0.88827E+06
 0.92099991E+02  0.81671E+06
 0.92149994E+02  0.70946E+06
 0.92199997E+02  0.55635E+06
 0.92249992E+02  0.35039E+06
 0.92299995E+02  0.10638E+06
 0.92349991E+02 -0.14238E+06
 0.92399994E+02 -0.36038E+06
 0.92449997E+02 -0.53784E+06
 0.92499992E+02 -0.67435E+06
 0.92549995E+02 -0.77621E+06
 0.92599991E+02 -0.85064E+06
 0.92649994E+02 -0.88443E+06
 0.92699997E+02 -0.86872E+06
 0.92749992E+02 -0.80656E+06
 0.92799995E+02 -0.70371E+06
 0.92849991E+02 -0.56625E+06
 0.92899994E+02 -0.41146E+06
 0.92949997E+02 -0.26733E+06
 0.92999992E+02 -0.16554E+06
 0.93049995E+02 -0.11063E+06
 0.93099991E+02 -0.85320E+05
 0.93149994E+02 -0.91203E+05
 0.93199997E+02 -0.12293E+06
 0.93249992E+02 -0.16013E+06
 0.93299995E+02 -0.18345E+06
 0.93349991E+02 -0.18609E+06
 0.93399994E+02 -0.17122E+06
 0.93449997E+02 -0.14071E+06
 0.93499992E+02 -0.99685E+05
 0.93549995E+02 -0.51421E+05
 0.93599991E+02  0.26692E+04
 0.93649994E+02  0.64069E+05
 0.93699997E+02  0.11282E+06
 0.93749992E+02  0.13899E+06
 0.93799995E+02  0.14759E+06
 0.93849991E+02  0.13192E+06
 0.93899994E+02  0.10318E+06
 0.93949997E+02  0.77223E+05
 0.93999992E+02  0.63501E+05
 0.94049995E+02  0.70660E+05
 0.94099991E+02  0.90459E+05
 0.94149994E+02  0.10195E+06
 0.94199997E+02  0.98049E+05
 0.94249992E+02  0.86263E+05
 0.94299995E+02  0.63783E+05
 0.94349991E+02  0.23817E+05
 0.94399994E+02 -0.29090E+05
 0.94449997E+02 -0.81622E+05
 0.94499992E+02 -0.11691E+06
 0.94549995E+02 -0.14091E+06
 0.94599991E+02 -0.16606E+06
 0.94649994E+02 -0.19908E+06
 0.94699997E+02 -0.23654E+06
 0.94749992E+02 -0.28183E+06
 0.94799995E+02 -0.33798E+06
 0.94849991E+02 -0.40722E+06
 0.94899994E+02 -0.49261E+06
 0.94949997E+02 -0.58518E+06
 0.94999992E+02 -0.68587E+06
 0.95049995E+02 -0.77471E+06
 0.95099991E+02 -0.83657E+06
 0.95149994E+02 -0.87584E+06
 0.95199997E+02 -0.87920E+06
 0.95249992E+02 -0.83528E+06
 0.95299995E+02 -0.75449E+06
 0.95349991E+02 -0.66021E+06
 0.95399994E+02 -0.56853E+06
 0.95449997E+02 -0.48715E+06
 0.95499992E+02 -0.41113E+06
 0.95549995E+02 -0.32733E+06
 0.95599991E+02 -0.23710E+06
 0.95649994E+02 -0.14809E+06
 0.95699997E+02 -0.64583E+05
 0.95749992E+02  0.15367E+05
 0.95799995E+02  0.90203E+05
 0.95849991E+02  0.14932E+06
 0.95899994E+02  0.18351E+06
 0.95949997E+02  0.18997E+06
 0.95999992E+02  0.16645E+06
 0.96049995E+02  0.11817E+06
 0.96099991E+02  0.41134E+05
 0.96149994E+02 -0.68158E+05
 0.96199997E+02 -0.18139E+06
 0.96249992E+02 -0.27868E+06
 0.96299995E+02 -0.35905E+06
 0.96349991E+02 -0.41998E+06
 0.96399994E+02 -0.46273E+06
 0.96449997E+02 -0.48782E+06
 0.96499992E+02 -0.50989E+06
 0.96549995E+02 -0.53555E+06
 0.96599991E+02 -0.56697E+06
 0.96649994E+02 -0.59912E+06
 0.96699997E+02 -0.62148E+06
 0.96749992E+02 -0.64945E+06
 0.96799995E+02 -0.68413E+06
 0.96849991E+02 -0.72498E+06
 0.96899994E+02 -0.76291E+06
 0.96949997E+02 -0.78474E+06
 0.96999992E+02 -0.77764E+06
 0.97049995E+02 -0.73884E+06
 0.97099991E+02 -0.67801E+06
 0.97149994E+02 -0.60079E+06
 0.97199997E+02 -0.51551E+06
 0.97249992E+02 -0.42316E+06
 0.97299995E+02 -0.31308E+06
 0.97349991E+02 -0.17741E+06
 0.97399994E+02 -0.24745E+05
 0.97449997E+02  0.12761E+06
 0.97499992E+02  0.26203E+06
 0.97549995E+02  0.37333E+06
 0.97599991E+02  0.44598E+06
 0.97649994E+02  0.46737E+06
 0.97699997E+02  0.44224E+06
 0.97749992E+02  0.39467E+06
 0.97799995E+02  0.34004E+06
 0.97849991E+02  0.28744E+06
 0.97899994E+02  0.25526E+06
 0.97949997E+02  0.23994E+06
 0.97999992E+02  0.22314E+06
