-0.20000000E+01 -0.61906E+02
-0.19500000E+01 -0.62465E+02
-0.19000000E+01 -0.62055E+02
-0.18500000E+01 -0.63019E+02
-0.18000000E+01 -0.62288E+02
-0.17500000E+01 -0.60430E+02
-0.17000000E+01 -0.62682E+02
-0.16500001E+01 -0.62496E+02
-0.16000000E+01 -0.61783E+02
-0.15500000E+01 -0.61176E+02
-0.15000000E+01 -0.62127E+02
-0.14500000E+01 -0.62412E+02
-0.14000001E+01 -0.62793E+02
-0.13500000E+01 -0.60946E+02
-0.13000001E+01 -0.61029E+02
-0.12500000E+01 -0.62970E+02
-0.12000000E+01 -0.61984E+02
-0.11500001E+01 -0.62861E+02
-0.11000000E+01 -0.62081E+02
-0.10500001E+01 -0.61600E+02
-0.10000000E+01 -0.62985E+02
-0.95000005E+00 -0.63715E+02
-0.90000010E+00 -0.62540E+02
-0.85000002E+00 -0.61824E+02
-0.80000007E+00 -0.61860E+02
-0.75000012E+00 -0.62537E+02
-0.70000005E+00 -0.61752E+02
-0.65000010E+00 -0.61725E+02
-0.60000014E+00 -0.61592E+02
-0.55000007E+00 -0.61338E+02
-0.50000012E+00 -0.63157E+02
-0.45000005E+00 -0.61873E+02
-0.40000010E+00 -0.61593E+02
-0.35000014E+00 -0.61752E+02
-0.30000007E+00 -0.62041E+02
-0.25000012E+00 -0.62474E+02
-0.20000005E+00 -0.62159E+02
-0.15000010E+00 -0.62551E+02
-0.10000014E+00 -0.61693E+02
-0.50000072E-01 -0.61338E+02
-0.11920929E-06 -0.62516E+02
 0.49999952E-01 -0.61878E+02
 0.99999905E-01 -0.61255E+02
 0.14999986E+00 -0.61256E+02
 0.19999981E+00 -0.61778E+02
 0.24999976E+00 -0.61972E+02
 0.29999995E+00 -0.61562E+02
 0.34999990E+00 -0.61248E+02
 0.39999986E+00 -0.60782E+02
 0.44999981E+00 -0.62097E+02
 0.49999976E+00 -0.62940E+02
 0.54999995E+00 -0.62585E+02
 0.59999990E+00 -0.61801E+02
 0.64999986E+00 -0.62879E+02
 0.69999981E+00 -0.62092E+02
 0.74999976E+00 -0.60787E+02
 0.79999971E+00 -0.62255E+02
 0.84999990E+00 -0.61646E+02
 0.89999986E+00 -0.62617E+02
 0.94999981E+00 -0.63271E+02
 0.99999976E+00 -0.62136E+02
 0.10499997E+01 -0.63689E+02
 0.10999999E+01 -0.63064E+02
 0.11499999E+01 -0.63501E+02
 0.11999998E+01 -0.63529E+02
 0.12499998E+01 -0.63204E+02
 0.12999997E+01 -0.63085E+02
 0.13499999E+01 -0.62133E+02
 0.13999999E+01 -0.62232E+02
 0.14499998E+01 -0.62291E+02
 0.14999998E+01 -0.62315E+02
 0.15499997E+01 -0.62058E+02
 0.15999999E+01 -0.61906E+02
 0.16499999E+01 -0.61800E+02
 0.16999998E+01 -0.62753E+02
 0.17499998E+01 -0.61326E+02
 0.17999997E+01 -0.62877E+02
 0.18499997E+01 -0.62859E+02
 0.18999999E+01 -0.60827E+02
 0.19499998E+01 -0.62157E+02
 0.19999998E+01 -0.61807E+02
 0.20499997E+01 -0.62500E+02
 0.20999999E+01 -0.63935E+02
 0.21499996E+01 -0.64144E+02
 0.21999998E+01 -0.63383E+02
 0.22499995E+01 -0.62078E+02
 0.22999997E+01 -0.60904E+02
 0.23499999E+01 -0.60590E+02
 0.23999996E+01 -0.60699E+02
 0.24499998E+01 -0.62848E+02
 0.24999995E+01 -0.62149E+02
 0.25499997E+01 -0.61549E+02
 0.25999999E+01 -0.62581E+02
 0.26499996E+01 -0.61404E+02
 0.26999998E+01 -0.62239E+02
 0.27499995E+01 -0.62218E+02
 0.27999997E+01 -0.62116E+02
 0.28499999E+01 -0.61748E+02
 0.28999996E+01 -0.60820E+02
 0.29499998E+01 -0.62675E+02
 0.29999995E+01 -0.62928E+02
 0.30499997E+01 -0.61131E+02
 0.30999999E+01 -0.62154E+02
 0.31499996E+01 -0.62990E+02
 0.31999998E+01 -0.63143E+02
 0.32499995E+01 -0.62454E+02
 0.32999997E+01 -0.60852E+02
 0.33499999E+01 -0.61378E+02
 0.33999996E+01 -0.62250E+02
 0.34499998E+01 -0.61701E+02
 0.34999995E+01 -0.61726E+02
 0.35499997E+01 -0.61783E+02
 0.35999994E+01 -0.60979E+02
 0.36499996E+01 -0.60915E+02
 0.36999998E+01 -0.61125E+02
 0.37499995E+01 -0.61917E+02
 0.37999997E+01 -0.62050E+02
 0.38499994E+01 -0.62303E+02
 0.38999996E+01 -0.63111E+02
 0.39499998E+01 -0.62842E+02
 0.39999995E+01 -0.63018E+02
 0.40499997E+01 -0.62077E+02
 0.40999994E+01 -0.61410E+02
 0.41499996E+01 -0.62226E+02
 0.41999998E+01 -0.63029E+02
 0.42499995E+01 -0.62967E+02
 0.42999997E+01 -0.62464E+02
 0.43499994E+01 -0.62000E+02
 0.43999996E+01 -0.61811E+02
 0.44499998E+01 -0.61270E+02
 0.44999995E+01 -0.62623E+02
 0.45499997E+01 -0.62243E+02
 0.45999994E+01 -0.62350E+02
 0.46499996E+01 -0.61684E+02
 0.46999998E+01 -0.60984E+02
 0.47499995E+01 -0.62486E+02
 0.47999997E+01 -0.61751E+02
 0.48499994E+01 -0.62956E+02
 0.48999996E+01 -0.61634E+02
 0.49499998E+01 -0.61376E+02
 0.49999995E+01 -0.60604E+02
 0.50499997E+01 -0.61351E+02
 0.50999994E+01 -0.62422E+02
 0.51499996E+01 -0.63302E+02
 0.51999998E+01 -0.63975E+02
 0.52499995E+01 -0.61831E+02
 0.52999997E+01 -0.61974E+02
 0.53499994E+01 -0.61264E+02
 0.53999996E+01 -0.61299E+02
 0.54499993E+01 -0.62530E+02
 0.54999995E+01 -0.61932E+02
 0.55499997E+01 -0.62952E+02
 0.55999994E+01 -0.62474E+02
 0.56499996E+01 -0.61291E+02
 0.56999993E+01 -0.62426E+02
 0.57499995E+01 -0.62252E+02
 0.57999997E+01 -0.61090E+02
 0.58499994E+01 -0.61292E+02
 0.58999996E+01 -0.62952E+02
 0.59499993E+01 -0.62256E+02
 0.59999995E+01 -0.62488E+02
 0.60499992E+01 -0.63337E+02
 0.60999994E+01 -0.63704E+02
 0.61499996E+01 -0.62706E+02
 0.61999998E+01 -0.63045E+02
 0.62499990E+01 -0.62321E+02
 0.62999992E+01 -0.62258E+02
 0.63499994E+01 -0.63141E+02
 0.63999996E+01 -0.61975E+02
 0.64499998E+01 -0.62359E+02
 0.64999990E+01 -0.62793E+02
 0.65499992E+01 -0.62785E+02
 0.65999994E+01 -0.61459E+02
 0.66499996E+01 -0.62091E+02
 0.66999998E+01 -0.62110E+02
 0.67499990E+01 -0.62374E+02
 0.67999992E+01 -0.62339E+02
 0.68499994E+01 -0.62311E+02
 0.68999996E+01 -0.62762E+02
 0.69499998E+01 -0.62683E+02
 0.69999990E+01 -0.63440E+02
 0.70499992E+01 -0.62394E+02
 0.70999994E+01 -0.63258E+02
 0.71499996E+01 -0.63563E+02
 0.71999998E+01 -0.62662E+02
 0.72499990E+01 -0.62278E+02
 0.72999992E+01 -0.62115E+02
 0.73499994E+01 -0.61964E+02
 0.73999996E+01 -0.61657E+02
 0.74499998E+01 -0.63194E+02
 0.74999990E+01 -0.62546E+02
 0.75499992E+01 -0.61445E+02
 0.75999994E+01 -0.63154E+02
 0.76499996E+01 -0.61793E+02
 0.76999998E+01 -0.62589E+02
 0.77499990E+01 -0.63781E+02
 0.77999992E+01 -0.63307E+02
 0.78499994E+01 -0.63546E+02
 0.78999996E+01 -0.63052E+02
 0.79499998E+01 -0.63936E+02
 0.79999990E+01 -0.62912E+02
 0.80499992E+01 -0.63664E+02
 0.80999994E+01 -0.63150E+02
 0.81499996E+01 -0.62764E+02
 0.81999998E+01 -0.64229E+02
 0.82499990E+01 -0.63230E+02
 0.82999992E+01 -0.62807E+02
 0.83499994E+01 -0.62753E+02
 0.83999996E+01 -0.63098E+02
 0.84499998E+01 -0.62479E+02
 0.84999990E+01 -0.63760E+02
 0.85499992E+01 -0.62923E+02
 0.85999994E+01 -0.62198E+02
 0.86499996E+01 -0.62050E+02
 0.86999998E+01 -0.61984E+02
 0.87499990E+01 -0.62646E+02
 0.87999992E+01 -0.61021E+02
 0.88499994E+01 -0.63061E+02
 0.88999996E+01 -0.63136E+02
 0.89499998E+01 -0.63774E+02
 0.89999990E+01 -0.62697E+02
 0.90499992E+01 -0.62360E+02
 0.90999994E+01 -0.63675E+02
 0.91499996E+01 -0.63203E+02
 0.91999989E+01 -0.62830E+02
 0.92499990E+01 -0.62142E+02
 0.92999992E+01 -0.63156E+02
 0.93499994E+01 -0.63913E+02
 0.93999996E+01 -0.63135E+02
 0.94499989E+01 -0.62970E+02
 0.94999990E+01 -0.64576E+02
 0.95499992E+01 -0.63400E+02
 0.95999994E+01 -0.63536E+02
 0.96499996E+01 -0.62463E+02
 0.96999989E+01 -0.63151E+02
 0.97499990E+01 -0.62391E+02
 0.97999992E+01 -0.62228E+02
 0.98499994E+01 -0.63516E+02
 0.98999996E+01 -0.61844E+02
 0.99499989E+01 -0.63355E+02
 0.99999990E+01 -0.62890E+02
 0.10049999E+02 -0.62787E+02
 0.10099999E+02 -0.62662E+02
 0.10150000E+02 -0.62637E+02
 0.10199999E+02 -0.62957E+02
 0.10249999E+02 -0.63153E+02
 0.10299999E+02 -0.63489E+02
 0.10349999E+02 -0.62604E+02
 0.10400000E+02 -0.62801E+02
 0.10449999E+02 -0.63536E+02
 0.10499999E+02 -0.63776E+02
 0.10549999E+02 -0.63211E+02
 0.10599999E+02 -0.63518E+02
 0.10650000E+02 -0.62404E+02
 0.10699999E+02 -0.63248E+02
 0.10749999E+02 -0.64483E+02
 0.10799999E+02 -0.61387E+02
 0.10849999E+02 -0.61806E+02
 0.10900000E+02 -0.63505E+02
 0.10949999E+02 -0.62749E+02
 0.10999999E+02 -0.63195E+02
 0.11049999E+02 -0.63500E+02
 0.11099999E+02 -0.64153E+02
 0.11150000E+02 -0.64282E+02
 0.11199999E+02 -0.62292E+02
 0.11249999E+02 -0.63042E+02
 0.11299999E+02 -0.63466E+02
 0.11349999E+02 -0.63263E+02
 0.11400000E+02 -0.63392E+02
 0.11449999E+02 -0.63430E+02
 0.11499999E+02 -0.63037E+02
 0.11549999E+02 -0.62731E+02
 0.11599999E+02 -0.62889E+02
 0.11650000E+02 -0.62857E+02
 0.11699999E+02 -0.62997E+02
 0.11749999E+02 -0.64261E+02
 0.11799999E+02 -0.63296E+02
 0.11849999E+02 -0.62793E+02
 0.11900000E+02 -0.63381E+02
 0.11949999E+02 -0.62488E+02
 0.11999999E+02 -0.64207E+02
 0.12049999E+02 -0.63059E+02
 0.12099999E+02 -0.63810E+02
 0.12150000E+02 -0.63665E+02
 0.12199999E+02 -0.63231E+02
 0.12249999E+02 -0.63573E+02
 0.12299999E+02 -0.63397E+02
 0.12349999E+02 -0.63678E+02
 0.12400000E+02 -0.61742E+02
 0.12449999E+02 -0.61882E+02
 0.12499999E+02 -0.62271E+02
 0.12549999E+02 -0.62895E+02
 0.12599999E+02 -0.62922E+02
 0.12649999E+02 -0.62370E+02
 0.12699999E+02 -0.62690E+02
 0.12749999E+02 -0.63308E+02
 0.12799999E+02 -0.63040E+02
 0.12849999E+02 -0.63431E+02
 0.12899999E+02 -0.62743E+02
 0.12949999E+02 -0.62004E+02
 0.12999999E+02 -0.63297E+02
 0.13049999E+02 -0.62676E+02
 0.13099999E+02 -0.63275E+02
 0.13149999E+02 -0.63912E+02
 0.13199999E+02 -0.64214E+02
 0.13249999E+02 -0.63385E+02
 0.13299999E+02 -0.62743E+02
 0.13349999E+02 -0.64062E+02
 0.13399999E+02 -0.61781E+02
 0.13449999E+02 -0.63437E+02
 0.13499999E+02 -0.63460E+02
 0.13549999E+02 -0.62792E+02
 0.13599999E+02 -0.62753E+02
 0.13649999E+02 -0.62031E+02
 0.13699999E+02 -0.62927E+02
 0.13749999E+02 -0.62107E+02
 0.13799999E+02 -0.63007E+02
 0.13849999E+02 -0.62235E+02
 0.13899999E+02 -0.61937E+02
 0.13949999E+02 -0.62505E+02
 0.13999999E+02 -0.61873E+02
 0.14049999E+02 -0.63022E+02
 0.14099998E+02 -0.63367E+02
 0.14150000E+02 -0.62565E+02
 0.14199999E+02 -0.63806E+02
 0.14249998E+02 -0.63314E+02
 0.14299999E+02 -0.62146E+02
 0.14349998E+02 -0.62493E+02
 0.14400000E+02 -0.63764E+02
 0.14449999E+02 -0.62977E+02
 0.14499998E+02 -0.61766E+02
 0.14549999E+02 -0.61983E+02
 0.14599998E+02 -0.62927E+02
 0.14650000E+02 -0.63540E+02
 0.14699999E+02 -0.62262E+02
 0.14749998E+02 -0.62502E+02
 0.14799999E+02 -0.62108E+02
 0.14849998E+02 -0.62571E+02
 0.14900000E+02 -0.62847E+02
 0.14949999E+02 -0.61699E+02
 0.14999998E+02 -0.62164E+02
 0.15049999E+02 -0.63124E+02
 0.15099998E+02 -0.62524E+02
 0.15150000E+02 -0.62919E+02
 0.15199999E+02 -0.62901E+02
 0.15249998E+02 -0.62340E+02
 0.15299999E+02 -0.63362E+02
 0.15349998E+02 -0.62310E+02
 0.15400000E+02 -0.62705E+02
 0.15449999E+02 -0.62971E+02
 0.15499998E+02 -0.62156E+02
 0.15549999E+02 -0.62737E+02
 0.15599998E+02 -0.62178E+02
 0.15650000E+02 -0.62430E+02
 0.15699999E+02 -0.62406E+02
 0.15749998E+02 -0.62461E+02
 0.15799999E+02 -0.62745E+02
 0.15849998E+02 -0.62374E+02
 0.15900000E+02 -0.63146E+02
 0.15949999E+02 -0.62489E+02
 0.15999998E+02 -0.62224E+02
 0.16049999E+02 -0.63246E+02
 0.16099998E+02 -0.63121E+02
 0.16150000E+02 -0.63245E+02
 0.16199999E+02 -0.64693E+02
 0.16249998E+02 -0.62744E+02
 0.16299999E+02 -0.62892E+02
 0.16349998E+02 -0.63014E+02
 0.16400000E+02 -0.62057E+02
 0.16449999E+02 -0.63760E+02
 0.16499998E+02 -0.63267E+02
 0.16549999E+02 -0.62730E+02
 0.16599998E+02 -0.62005E+02
 0.16650000E+02 -0.62750E+02
 0.16699999E+02 -0.62869E+02
 0.16749998E+02 -0.62408E+02
 0.16799999E+02 -0.62221E+02
 0.16849998E+02 -0.63012E+02
 0.16900000E+02 -0.62573E+02
 0.16949999E+02 -0.62727E+02
 0.16999998E+02 -0.63333E+02
 0.17049999E+02 -0.64470E+02
 0.17099998E+02 -0.63061E+02
 0.17150000E+02 -0.61381E+02
 0.17199999E+02 -0.63239E+02
 0.17249998E+02 -0.62275E+02
 0.17299999E+02 -0.62157E+02
 0.17349998E+02 -0.63397E+02
 0.17400000E+02 -0.61978E+02
 0.17449999E+02 -0.61113E+02
 0.17499998E+02 -0.63491E+02
 0.17549999E+02 -0.61390E+02
 0.17599998E+02 -0.60654E+02
 0.17650000E+02 -0.62182E+02
 0.17699999E+02 -0.63396E+02
 0.17749998E+02 -0.62704E+02
 0.17799999E+02 -0.63104E+02
 0.17849998E+02 -0.63420E+02
 0.17900000E+02 -0.62112E+02
 0.17949999E+02 -0.64539E+02
 0.17999998E+02 -0.64435E+02
 0.18049999E+02 -0.64221E+02
 0.18099998E+02 -0.64691E+02
 0.18150000E+02 -0.62223E+02
 0.18199999E+02 -0.65702E+02
 0.18249998E+02 -0.64557E+02
 0.18299999E+02 -0.63603E+02
 0.18349998E+02 -0.62230E+02
 0.18400000E+02 -0.64238E+02
 0.18449999E+02 -0.63451E+02
 0.18499998E+02 -0.63805E+02
 0.18549999E+02 -0.63437E+02
 0.18599998E+02 -0.63820E+02
 0.18650000E+02 -0.64136E+02
 0.18699999E+02 -0.63592E+02
 0.18749998E+02 -0.65055E+02
 0.18799999E+02 -0.60797E+02
 0.18849998E+02 -0.64330E+02
 0.18900000E+02 -0.63284E+02
 0.18949999E+02 -0.64026E+02
 0.18999998E+02 -0.62119E+02
 0.19049999E+02 -0.64202E+02
 0.19099998E+02 -0.64825E+02
 0.19150000E+02 -0.63068E+02
 0.19199999E+02 -0.64494E+02
 0.19249998E+02 -0.63539E+02
 0.19299999E+02 -0.62767E+02
 0.19349998E+02 -0.64875E+02
 0.19400000E+02 -0.62781E+02
 0.19449999E+02 -0.63943E+02
 0.19499998E+02 -0.63095E+02
 0.19549999E+02 -0.64082E+02
 0.19599998E+02 -0.63383E+02
 0.19650000E+02 -0.62244E+02
 0.19699999E+02 -0.65008E+02
 0.19749998E+02 -0.61979E+02
 0.19799999E+02 -0.63984E+02
 0.19849998E+02 -0.62438E+02
 0.19900000E+02 -0.64568E+02
 0.19949999E+02 -0.64723E+02
 0.19999998E+02 -0.64062E+02
 0.20049999E+02 -0.62897E+02
 0.20099998E+02 -0.62504E+02
 0.20150000E+02 -0.64055E+02
 0.20199999E+02 -0.63998E+02
 0.20249998E+02 -0.63827E+02
 0.20299999E+02 -0.61956E+02
 0.20349998E+02 -0.64101E+02
 0.20399998E+02 -0.62226E+02
 0.20449999E+02 -0.62017E+02
 0.20499998E+02 -0.63559E+02
 0.20549999E+02 -0.62841E+02
 0.20599998E+02 -0.63733E+02
 0.20649998E+02 -0.63323E+02
 0.20699999E+02 -0.63579E+02
 0.20749998E+02 -0.63301E+02
 0.20799999E+02 -0.64993E+02
 0.20849998E+02 -0.62574E+02
 0.20899998E+02 -0.63054E+02
 0.20949999E+02 -0.63687E+02
 0.20999998E+02 -0.64207E+02
 0.21049999E+02 -0.64518E+02
 0.21099998E+02 -0.63581E+02
 0.21149998E+02 -0.63702E+02
 0.21199999E+02 -0.63843E+02
 0.21249998E+02 -0.64119E+02
 0.21299999E+02 -0.63373E+02
 0.21349998E+02 -0.64687E+02
 0.21399998E+02 -0.64109E+02
 0.21449999E+02 -0.64530E+02
 0.21499998E+02 -0.63708E+02
 0.21549999E+02 -0.64109E+02
 0.21599998E+02 -0.63487E+02
 0.21649998E+02 -0.62884E+02
 0.21699999E+02 -0.63932E+02
 0.21749998E+02 -0.63869E+02
 0.21799999E+02 -0.63217E+02
 0.21849998E+02 -0.62484E+02
 0.21899998E+02 -0.63586E+02
 0.21949999E+02 -0.64721E+02
 0.21999998E+02 -0.64221E+02
 0.22049999E+02 -0.63697E+02
 0.22099998E+02 -0.63863E+02
 0.22149998E+02 -0.64417E+02
 0.22199999E+02 -0.64466E+02
 0.22249998E+02 -0.64445E+02
 0.22299999E+02 -0.64418E+02
 0.22349998E+02 -0.63841E+02
 0.22399998E+02 -0.63715E+02
 0.22449999E+02 -0.63860E+02
 0.22499998E+02 -0.64039E+02
 0.22549999E+02 -0.62821E+02
 0.22599998E+02 -0.62877E+02
 0.22649998E+02 -0.62739E+02
 0.22699999E+02 -0.64170E+02
 0.22749998E+02 -0.61548E+02
 0.22799999E+02 -0.62458E+02
 0.22849998E+02 -0.64028E+02
 0.22899998E+02 -0.63403E+02
 0.22949999E+02 -0.64720E+02
 0.22999998E+02 -0.61678E+02
 0.23049999E+02 -0.65834E+02
 0.23099998E+02 -0.61598E+02
 0.23149998E+02 -0.66393E+02
 0.23199999E+02 -0.63396E+02
 0.23249998E+02 -0.63617E+02
 0.23299999E+02 -0.63436E+02
 0.23349998E+02 -0.62019E+02
 0.23399998E+02 -0.64782E+02
 0.23449999E+02 -0.62462E+02
 0.23499998E+02 -0.65817E+02
 0.23549999E+02 -0.62025E+02
 0.23599998E+02 -0.63620E+02
 0.23649998E+02 -0.61829E+02
 0.23699999E+02 -0.63888E+02
 0.23749998E+02 -0.62227E+02
 0.23799999E+02 -0.63120E+02
 0.23849998E+02 -0.63924E+02
 0.23899998E+02 -0.62556E+02
 0.23949999E+02 -0.63778E+02
 0.23999998E+02 -0.63583E+02
 0.24049999E+02 -0.63887E+02
 0.24099998E+02 -0.62924E+02
 0.24149998E+02 -0.64425E+02
 0.24199999E+02 -0.63641E+02
 0.24249998E+02 -0.61872E+02
 0.24299999E+02 -0.63067E+02
 0.24349998E+02 -0.64302E+02
 0.24399998E+02 -0.63338E+02
 0.24449999E+02 -0.62551E+02
 0.24499998E+02 -0.64243E+02
 0.24549999E+02 -0.63561E+02
 0.24599998E+02 -0.64150E+02
 0.24649998E+02 -0.62628E+02
 0.24699999E+02 -0.63204E+02
 0.24749998E+02 -0.64387E+02
 0.24799999E+02 -0.62792E+02
 0.24849998E+02 -0.63383E+02
 0.24899998E+02 -0.62771E+02
 0.24949999E+02 -0.62668E+02
 0.24999998E+02 -0.63151E+02
 0.25049999E+02 -0.63184E+02
 0.25099998E+02 -0.63383E+02
 0.25149998E+02 -0.63245E+02
 0.25199999E+02 -0.63935E+02
 0.25249998E+02 -0.63473E+02
 0.25299999E+02 -0.63292E+02
 0.25349998E+02 -0.62245E+02
 0.25399998E+02 -0.63040E+02
 0.25449999E+02 -0.64200E+02
 0.25499998E+02 -0.62723E+02
 0.25549999E+02 -0.62609E+02
 0.25599998E+02 -0.64913E+02
 0.25649998E+02 -0.64057E+02
 0.25699999E+02 -0.62855E+02
 0.25749998E+02 -0.64932E+02
 0.25799999E+02 -0.63509E+02
 0.25849998E+02 -0.62974E+02
 0.25899998E+02 -0.63093E+02
 0.25949999E+02 -0.63387E+02
 0.25999998E+02 -0.61388E+02
 0.26049999E+02 -0.65019E+02
 0.26099998E+02 -0.63346E+02
 0.26149998E+02 -0.63707E+02
 0.26199999E+02 -0.64060E+02
 0.26249998E+02 -0.63803E+02
 0.26299999E+02 -0.64524E+02
 0.26349998E+02 -0.63779E+02
 0.26399998E+02 -0.62486E+02
 0.26449999E+02 -0.62275E+02
 0.26499998E+02 -0.63949E+02
 0.26549999E+02 -0.63921E+02
 0.26599998E+02 -0.64025E+02
 0.26649998E+02 -0.61033E+02
 0.26699999E+02 -0.64964E+02
 0.26749998E+02 -0.61514E+02
 0.26799999E+02 -0.65411E+02
 0.26849998E+02 -0.65064E+02
 0.26899998E+02 -0.62004E+02
 0.26949999E+02 -0.62839E+02
 0.26999998E+02 -0.63560E+02
 0.27049997E+02 -0.65869E+02
 0.27099998E+02 -0.61207E+02
 0.27149998E+02 -0.64612E+02
 0.27199999E+02 -0.63841E+02
 0.27249998E+02 -0.64412E+02
 0.27299997E+02 -0.65150E+02
 0.27349998E+02 -0.63541E+02
 0.27399998E+02 -0.61639E+02
 0.27449999E+02 -0.61031E+02
 0.27499998E+02 -0.66354E+02
 0.27549997E+02 -0.62336E+02
 0.27599998E+02 -0.63532E+02
 0.27649998E+02 -0.61708E+02
 0.27699999E+02 -0.63536E+02
 0.27749998E+02 -0.65310E+02
 0.27799997E+02 -0.60453E+02
 0.27849998E+02 -0.62969E+02
 0.27899998E+02 -0.62800E+02
 0.27949999E+02 -0.61618E+02
 0.27999998E+02 -0.64536E+02
 0.28049997E+02 -0.65667E+02
 0.28099998E+02 -0.61130E+02
 0.28149998E+02 -0.65361E+02
 0.28199999E+02 -0.60724E+02
 0.28249998E+02 -0.65155E+02
 0.28299997E+02 -0.61656E+02
 0.28349998E+02 -0.63512E+02
 0.28399998E+02 -0.64400E+02
 0.28449999E+02 -0.60700E+02
 0.28499998E+02 -0.67996E+02
 0.28549997E+02 -0.59907E+02
 0.28599998E+02 -0.64494E+02
 0.28649998E+02 -0.59515E+02
 0.28699999E+02 -0.64280E+02
 0.28749998E+02 -0.60798E+02
 0.28799997E+02 -0.61169E+02
 0.28849998E+02 -0.65363E+02
 0.28899998E+02 -0.59620E+02
 0.28949999E+02 -0.65125E+02
 0.28999998E+02 -0.58059E+02
 0.29049997E+02 -0.64990E+02
 0.29099998E+02 -0.63947E+02
 0.29149998E+02 -0.63437E+02
 0.29199999E+02 -0.61835E+02
 0.29249998E+02 -0.61131E+02
 0.29299997E+02 -0.64115E+02
 0.29349998E+02 -0.62011E+02
 0.29399998E+02 -0.67099E+02
 0.29449999E+02 -0.59943E+02
 0.29499998E+02 -0.65591E+02
 0.29549997E+02 -0.59997E+02
 0.29599998E+02 -0.61489E+02
 0.29649998E+02 -0.63124E+02
 0.29699999E+02 -0.60526E+02
 0.29749998E+02 -0.65840E+02
 0.29799997E+02 -0.58777E+02
 0.29849998E+02 -0.64275E+02
 0.29899998E+02 -0.59738E+02
 0.29949999E+02 -0.62721E+02
 0.29999998E+02 -0.62653E+02
 0.30049999E+02 -0.61660E+02
 0.30099998E+02 -0.64243E+02
 0.30149998E+02 -0.59711E+02
 0.30199997E+02 -0.64691E+02
 0.30249996E+02 -0.61015E+02
 0.30299999E+02 -0.63425E+02
 0.30349998E+02 -0.61509E+02
 0.30399998E+02 -0.63225E+02
 0.30449997E+02 -0.63009E+02
 0.30499996E+02 -0.60334E+02
 0.30549999E+02 -0.63515E+02
 0.30599998E+02 -0.60381E+02
 0.30649998E+02 -0.63065E+02
 0.30699997E+02 -0.61477E+02
 0.30749996E+02 -0.63931E+02
 0.30799999E+02 -0.60833E+02
 0.30849998E+02 -0.62499E+02
 0.30899998E+02 -0.60321E+02
 0.30949997E+02 -0.61333E+02
 0.30999996E+02 -0.63358E+02
 0.31049999E+02 -0.60963E+02
 0.31099998E+02 -0.64068E+02
 0.31149998E+02 -0.61876E+02
 0.31199997E+02 -0.64593E+02
 0.31249996E+02 -0.61123E+02
 0.31299999E+02 -0.61814E+02
 0.31349998E+02 -0.63622E+02
 0.31399998E+02 -0.61635E+02
 0.31449997E+02 -0.63079E+02
 0.31499996E+02 -0.59993E+02
 0.31549999E+02 -0.63264E+02
 0.31599998E+02 -0.61061E+02
 0.31649998E+02 -0.62709E+02
 0.31699997E+02 -0.62362E+02
 0.31749996E+02 -0.61527E+02
 0.31799999E+02 -0.63362E+02
 0.31849998E+02 -0.59122E+02
 0.31899998E+02 -0.64190E+02
 0.31949997E+02 -0.61079E+02
 0.31999996E+02 -0.64885E+02
 0.32049999E+02 -0.63560E+02
 0.32099998E+02 -0.61603E+02
 0.32149998E+02 -0.63249E+02
 0.32199997E+02 -0.61537E+02
 0.32249996E+02 -0.64974E+02
 0.32299999E+02 -0.60546E+02
 0.32349998E+02 -0.64631E+02
 0.32399998E+02 -0.62385E+02
 0.32449997E+02 -0.61319E+02
 0.32499996E+02 -0.62371E+02
 0.32549999E+02 -0.60715E+02
 0.32599998E+02 -0.66432E+02
 0.32649998E+02 -0.60014E+02
 0.32699997E+02 -0.64010E+02
 0.32749996E+02 -0.60776E+02
 0.32799999E+02 -0.61580E+02
 0.32849998E+02 -0.62180E+02
 0.32899998E+02 -0.61705E+02
 0.32949997E+02 -0.64452E+02
 0.32999996E+02 -0.60030E+02
 0.33049999E+02 -0.63906E+02
 0.33099998E+02 -0.61059E+02
 0.33149998E+02 -0.64446E+02
 0.33199997E+02 -0.62989E+02
 0.33249996E+02 -0.62138E+02
 0.33299999E+02 -0.63118E+02
 0.33349998E+02 -0.60680E+02
 0.33399998E+02 -0.62671E+02
 0.33449997E+02 -0.62395E+02
 0.33499996E+02 -0.63232E+02
 0.33549999E+02 -0.62526E+02
 0.33599998E+02 -0.63718E+02
 0.33649998E+02 -0.61467E+02
 0.33699997E+02 -0.63007E+02
 0.33749996E+02 -0.63491E+02
 0.33799999E+02 -0.60513E+02
 0.33849998E+02 -0.62594E+02
 0.33899998E+02 -0.61726E+02
 0.33949997E+02 -0.64412E+02
 0.33999996E+02 -0.60896E+02
 0.34049999E+02 -0.63262E+02
 0.34099998E+02 -0.63486E+02
 0.34149998E+02 -0.63040E+02
 0.34199997E+02 -0.64226E+02
 0.34249996E+02 -0.64063E+02
 0.34299999E+02 -0.63096E+02
 0.34349998E+02 -0.61567E+02
 0.34399998E+02 -0.64103E+02
 0.34449997E+02 -0.61692E+02
 0.34499996E+02 -0.62296E+02
 0.34549999E+02 -0.63344E+02
 0.34599998E+02 -0.61416E+02
 0.34649998E+02 -0.62344E+02
 0.34699997E+02 -0.63231E+02
 0.34749996E+02 -0.63188E+02
 0.34799999E+02 -0.63093E+02
 0.34849998E+02 -0.64019E+02
 0.34899998E+02 -0.62676E+02
 0.34949997E+02 -0.60365E+02
 0.34999996E+02 -0.63630E+02
 0.35049999E+02 -0.61665E+02
 0.35099998E+02 -0.63601E+02
 0.35149998E+02 -0.62998E+02
 0.35199997E+02 -0.63292E+02
 0.35249996E+02 -0.62159E+02
 0.35299999E+02 -0.61257E+02
 0.35349998E+02 -0.61852E+02
 0.35399998E+02 -0.60779E+02
 0.35449997E+02 -0.62130E+02
 0.35499996E+02 -0.60663E+02
 0.35549999E+02 -0.61951E+02
 0.35599998E+02 -0.60562E+02
 0.35649998E+02 -0.62209E+02
 0.35699997E+02 -0.61063E+02
 0.35749996E+02 -0.61902E+02
 0.35799999E+02 -0.62507E+02
 0.35849998E+02 -0.61608E+02
 0.35899998E+02 -0.63835E+02
 0.35949997E+02 -0.62106E+02
 0.35999996E+02 -0.63858E+02
 0.36049999E+02 -0.62164E+02
 0.36099998E+02 -0.62309E+02
 0.36149998E+02 -0.63701E+02
 0.36199997E+02 -0.63352E+02
 0.36249996E+02 -0.63140E+02
 0.36299999E+02 -0.61196E+02
 0.36349998E+02 -0.62374E+02
 0.36399998E+02 -0.61822E+02
 0.36449997E+02 -0.63340E+02
 0.36499996E+02 -0.61208E+02
 0.36549999E+02 -0.62760E+02
 0.36599998E+02 -0.62719E+02
 0.36649998E+02 -0.60961E+02
 0.36699997E+02 -0.63712E+02
 0.36749996E+02 -0.61324E+02
 0.36799999E+02 -0.62880E+02
 0.36849998E+02 -0.60558E+02
 0.36899998E+02 -0.63345E+02
 0.36949997E+02 -0.62246E+02
 0.36999996E+02 -0.63151E+02
 0.37049999E+02 -0.63396E+02
 0.37099998E+02 -0.61711E+02
 0.37149998E+02 -0.64424E+02
 0.37199997E+02 -0.63074E+02
 0.37249996E+02 -0.63953E+02
 0.37299999E+02 -0.59422E+02
 0.37349998E+02 -0.63794E+02
 0.37399998E+02 -0.62671E+02
 0.37449997E+02 -0.61572E+02
 0.37499996E+02 -0.62955E+02
 0.37549999E+02 -0.61494E+02
 0.37599998E+02 -0.62817E+02
 0.37649998E+02 -0.60361E+02
 0.37699997E+02 -0.63956E+02
 0.37749996E+02 -0.62336E+02
 0.37799999E+02 -0.62347E+02
 0.37849998E+02 -0.61782E+02
 0.37899998E+02 -0.61417E+02
 0.37949997E+02 -0.63730E+02
 0.37999996E+02 -0.61124E+02
 0.38049999E+02 -0.63010E+02
 0.38099998E+02 -0.62035E+02
 0.38149998E+02 -0.62342E+02
 0.38199997E+02 -0.61656E+02
 0.38249996E+02 -0.63016E+02
 0.38299999E+02 -0.63785E+02
 0.38349998E+02 -0.61712E+02
 0.38399998E+02 -0.63139E+02
 0.38449997E+02 -0.62653E+02
 0.38499996E+02 -0.63649E+02
 0.38549999E+02 -0.62746E+02
 0.38599998E+02 -0.62457E+02
 0.38649998E+02 -0.61640E+02
 0.38699997E+02 -0.61300E+02
 0.38749996E+02 -0.62893E+02
 0.38799999E+02 -0.62629E+02
 0.38849998E+02 -0.62914E+02
 0.38899998E+02 -0.62409E+02
 0.38949997E+02 -0.60880E+02
 0.38999996E+02 -0.61579E+02
 0.39049999E+02 -0.62037E+02
 0.39099998E+02 -0.62916E+02
 0.39149998E+02 -0.63472E+02
 0.39199997E+02 -0.63346E+02
 0.39249996E+02 -0.61586E+02
 0.39299999E+02 -0.62845E+02
 0.39349998E+02 -0.62792E+02
 0.39399998E+02 -0.62537E+02
 0.39449997E+02 -0.62550E+02
 0.39499996E+02 -0.61348E+02
 0.39549999E+02 -0.64038E+02
 0.39599998E+02 -0.61970E+02
 0.39649998E+02 -0.63509E+02
 0.39699997E+02 -0.61288E+02
 0.39749996E+02 -0.63332E+02
 0.39799999E+02 -0.62841E+02
 0.39849998E+02 -0.61234E+02
 0.39899998E+02 -0.63307E+02
 0.39949997E+02 -0.62058E+02
 0.39999996E+02 -0.62990E+02
 0.40049999E+02 -0.62286E+02
 0.40099998E+02 -0.64683E+02
 0.40149998E+02 -0.61362E+02
 0.40199997E+02 -0.62431E+02
 0.40249996E+02 -0.61844E+02
 0.40299999E+02 -0.61927E+02
 0.40349998E+02 -0.61681E+02
 0.40399998E+02 -0.61298E+02
 0.40449997E+02 -0.62802E+02
 0.40499996E+02 -0.61541E+02
 0.40549999E+02 -0.62127E+02
 0.40599998E+02 -0.61033E+02
 0.40649998E+02 -0.62646E+02
 0.40699997E+02 -0.63001E+02
 0.40749996E+02 -0.63336E+02
 0.40799999E+02 -0.62666E+02
 0.40849998E+02 -0.61305E+02
 0.40899998E+02 -0.62627E+02
 0.40949997E+02 -0.61392E+02
 0.40999996E+02 -0.63321E+02
 0.41049999E+02 -0.62651E+02
 0.41099998E+02 -0.62275E+02
 0.41149998E+02 -0.63458E+02
 0.41199997E+02 -0.62222E+02
 0.41249996E+02 -0.62796E+02
 0.41299999E+02 -0.61072E+02
 0.41349998E+02 -0.62658E+02
 0.41399998E+02 -0.60534E+02
 0.41449997E+02 -0.62955E+02
 0.41499996E+02 -0.62995E+02
 0.41549999E+02 -0.62243E+02
 0.41599998E+02 -0.63236E+02
 0.41649998E+02 -0.62285E+02
 0.41699997E+02 -0.62113E+02
 0.41749996E+02 -0.61651E+02
 0.41799999E+02 -0.62759E+02
 0.41849998E+02 -0.62572E+02
 0.41899998E+02 -0.62768E+02
 0.41949997E+02 -0.62862E+02
 0.41999996E+02 -0.63223E+02
 0.42049999E+02 -0.63091E+02
 0.42099998E+02 -0.63128E+02
 0.42149998E+02 -0.64006E+02
 0.42199997E+02 -0.63978E+02
 0.42249996E+02 -0.63430E+02
 0.42299999E+02 -0.62996E+02
 0.42349998E+02 -0.62442E+02
 0.42399998E+02 -0.62946E+02
 0.42449997E+02 -0.63574E+02
 0.42499996E+02 -0.61784E+02
 0.42549999E+02 -0.61165E+02
 0.42599998E+02 -0.64578E+02
 0.42649998E+02 -0.61778E+02
 0.42699997E+02 -0.60902E+02
 0.42749996E+02 -0.61959E+02
 0.42799995E+02 -0.62548E+02
 0.42849998E+02 -0.62987E+02
 0.42899998E+02 -0.62067E+02
 0.42949997E+02 -0.63839E+02
 0.42999996E+02 -0.62522E+02
 0.43049995E+02 -0.63047E+02
 0.43099998E+02 -0.63161E+02
 0.43149998E+02 -0.63056E+02
 0.43199997E+02 -0.62897E+02
 0.43249996E+02 -0.63789E+02
 0.43299995E+02 -0.63144E+02
 0.43349998E+02 -0.61661E+02
 0.43399998E+02 -0.63189E+02
 0.43449997E+02 -0.63082E+02
 0.43499996E+02 -0.63852E+02
 0.43549995E+02 -0.62426E+02
 0.43599998E+02 -0.63435E+02
 0.43649998E+02 -0.62184E+02
 0.43699997E+02 -0.62751E+02
 0.43749996E+02 -0.63737E+02
 0.43799995E+02 -0.62846E+02
 0.43849998E+02 -0.62364E+02
 0.43899998E+02 -0.62277E+02
 0.43949997E+02 -0.62605E+02
 0.43999996E+02 -0.60473E+02
 0.44049995E+02 -0.61426E+02
 0.44099998E+02 -0.62737E+02
 0.44149998E+02 -0.63287E+02
 0.44199997E+02 -0.63225E+02
 0.44249996E+02 -0.62732E+02
 0.44299995E+02 -0.61359E+02
 0.44349998E+02 -0.62683E+02
 0.44399998E+02 -0.62146E+02
 0.44449997E+02 -0.60778E+02
 0.44499996E+02 -0.61993E+02
 0.44549995E+02 -0.61123E+02
 0.44599998E+02 -0.61222E+02
 0.44649998E+02 -0.61482E+02
 0.44699997E+02 -0.60812E+02
 0.44749996E+02 -0.62290E+02
 0.44799995E+02 -0.62751E+02
 0.44849998E+02 -0.62609E+02
 0.44899998E+02 -0.62506E+02
 0.44949997E+02 -0.60997E+02
 0.44999996E+02 -0.62626E+02
 0.45049995E+02 -0.62781E+02
 0.45099998E+02 -0.62578E+02
 0.45149998E+02 -0.62448E+02
 0.45199997E+02 -0.61903E+02
 0.45249996E+02 -0.62744E+02
 0.45299995E+02 -0.61780E+02
 0.45349998E+02 -0.61123E+02
 0.45399998E+02 -0.61664E+02
 0.45449997E+02 -0.61971E+02
 0.45499996E+02 -0.62335E+02
 0.45549995E+02 -0.62901E+02
 0.45599998E+02 -0.62248E+02
 0.45649998E+02 -0.62564E+02
 0.45699997E+02 -0.62576E+02
 0.45749996E+02 -0.62878E+02
 0.45799995E+02 -0.61869E+02
 0.45849998E+02 -0.62183E+02
 0.45899998E+02 -0.61540E+02
 0.45949997E+02 -0.62087E+02
 0.45999996E+02 -0.65182E+02
 0.46049995E+02 -0.62696E+02
 0.46099998E+02 -0.63331E+02
 0.46149998E+02 -0.61669E+02
 0.46199997E+02 -0.62188E+02
 0.46249996E+02 -0.63446E+02
 0.46299995E+02 -0.61172E+02
 0.46349998E+02 -0.62263E+02
 0.46399998E+02 -0.62427E+02
 0.46449997E+02 -0.63420E+02
 0.46499996E+02 -0.62459E+02
 0.46549995E+02 -0.63489E+02
 0.46599998E+02 -0.62995E+02
 0.46649998E+02 -0.62018E+02
 0.46699997E+02 -0.62661E+02
 0.46749996E+02 -0.61246E+02
 0.46799995E+02 -0.61508E+02
 0.46849998E+02 -0.62634E+02
 0.46899998E+02 -0.62326E+02
 0.46949997E+02 -0.60762E+02
 0.46999996E+02 -0.63697E+02
 0.47049995E+02 -0.62988E+02
 0.47099998E+02 -0.62887E+02
 0.47149998E+02 -0.63248E+02
 0.47199997E+02 -0.64116E+02
 0.47249996E+02 -0.61791E+02
 0.47299995E+02 -0.61811E+02
 0.47349998E+02 -0.64428E+02
 0.47399998E+02 -0.62096E+02
 0.47449997E+02 -0.62851E+02
 0.47499996E+02 -0.61733E+02
 0.47549995E+02 -0.63294E+02
 0.47599998E+02 -0.62794E+02
 0.47649998E+02 -0.61597E+02
 0.47699997E+02 -0.62039E+02
 0.47749996E+02 -0.62918E+02
 0.47799995E+02 -0.62516E+02
 0.47849998E+02 -0.61446E+02
 0.47899998E+02 -0.61850E+02
 0.47949997E+02 -0.62039E+02
 0.47999996E+02 -0.62855E+02
 0.48049995E+02 -0.63073E+02
 0.48099998E+02 -0.61723E+02
 0.48149998E+02 -0.62258E+02
 0.48199997E+02 -0.62747E+02
 0.48249996E+02 -0.62123E+02
 0.48299995E+02 -0.62227E+02
 0.48349998E+02 -0.62318E+02
 0.48399998E+02 -0.61886E+02
 0.48449997E+02 -0.61891E+02
 0.48499996E+02 -0.61951E+02
 0.48549995E+02 -0.62073E+02
 0.48599998E+02 -0.62245E+02
 0.48649998E+02 -0.61245E+02
 0.48699997E+02 -0.63169E+02
 0.48749996E+02 -0.62083E+02
 0.48799995E+02 -0.61361E+02
 0.48849998E+02 -0.62002E+02
 0.48899998E+02 -0.61391E+02
 0.48949997E+02 -0.63567E+02
 0.48999996E+02 -0.61836E+02
 0.49049995E+02 -0.62851E+02
 0.49099998E+02 -0.63656E+02
 0.49149998E+02 -0.62483E+02
 0.49199997E+02 -0.63745E+02
 0.49249996E+02 -0.62188E+02
 0.49299995E+02 -0.62333E+02
 0.49349998E+02 -0.62778E+02
 0.49399998E+02 -0.61285E+02
 0.49449997E+02 -0.62322E+02
 0.49499996E+02 -0.62195E+02
 0.49549995E+02 -0.61533E+02
 0.49599998E+02 -0.63517E+02
 0.49649998E+02 -0.62453E+02
 0.49699997E+02 -0.62032E+02
 0.49749996E+02 -0.62584E+02
 0.49799995E+02 -0.63142E+02
 0.49849998E+02 -0.61316E+02
 0.49899998E+02 -0.62667E+02
 0.49949997E+02 -0.61710E+02
 0.49999996E+02 -0.61809E+02
 0.50049995E+02 -0.63934E+02
 0.50099998E+02 -0.62401E+02
 0.50149998E+02 -0.62768E+02
 0.50199997E+02 -0.61945E+02
 0.50249996E+02 -0.62672E+02
 0.50299995E+02 -0.60859E+02
 0.50349998E+02 -0.60868E+02
 0.50399998E+02 -0.61066E+02
 0.50449997E+02 -0.61391E+02
 0.50499996E+02 -0.61320E+02
 0.50549995E+02 -0.61227E+02
 0.50599998E+02 -0.62085E+02
 0.50649998E+02 -0.61751E+02
 0.50699997E+02 -0.62528E+02
 0.50749996E+02 -0.62417E+02
 0.50799995E+02 -0.62695E+02
 0.50849998E+02 -0.62493E+02
 0.50899998E+02 -0.61332E+02
 0.50949997E+02 -0.62041E+02
 0.50999996E+02 -0.61699E+02
 0.51049995E+02 -0.62565E+02
 0.51099998E+02 -0.62237E+02
 0.51149998E+02 -0.62806E+02
 0.51199997E+02 -0.64121E+02
 0.51249996E+02 -0.62430E+02
 0.51299995E+02 -0.63183E+02
 0.51349998E+02 -0.62513E+02
 0.51399998E+02 -0.63369E+02
 0.51449997E+02 -0.62355E+02
 0.51499996E+02 -0.61905E+02
 0.51549995E+02 -0.62329E+02
 0.51599998E+02 -0.63012E+02
 0.51649998E+02 -0.64361E+02
 0.51699997E+02 -0.61370E+02
 0.51749996E+02 -0.62885E+02
 0.51799995E+02 -0.62614E+02
 0.51849998E+02 -0.62877E+02
 0.51899998E+02 -0.62751E+02
 0.51949997E+02 -0.60062E+02
 0.51999996E+02 -0.62479E+02
 0.52049995E+02 -0.62474E+02
 0.52099998E+02 -0.63829E+02
 0.52149998E+02 -0.62058E+02
 0.52199997E+02 -0.62174E+02
 0.52249996E+02 -0.62592E+02
 0.52299995E+02 -0.61513E+02
 0.52349998E+02 -0.63060E+02
 0.52399998E+02 -0.62826E+02
 0.52449997E+02 -0.64390E+02
 0.52499996E+02 -0.62180E+02
 0.52549995E+02 -0.63318E+02
 0.52599998E+02 -0.61823E+02
 0.52649998E+02 -0.61516E+02
 0.52699997E+02 -0.63203E+02
 0.52749996E+02 -0.62049E+02
 0.52799995E+02 -0.62816E+02
 0.52849998E+02 -0.62187E+02
 0.52899998E+02 -0.62045E+02
 0.52949997E+02 -0.62703E+02
 0.52999996E+02 -0.62683E+02
 0.53049995E+02 -0.62457E+02
 0.53099998E+02 -0.63854E+02
 0.53149998E+02 -0.62613E+02
 0.53199997E+02 -0.62713E+02
 0.53249996E+02 -0.62139E+02
 0.53299995E+02 -0.61614E+02
 0.53349998E+02 -0.62457E+02
 0.53399998E+02 -0.62745E+02
 0.53449997E+02 -0.62846E+02
 0.53499996E+02 -0.62324E+02
 0.53549995E+02 -0.62500E+02
 0.53599998E+02 -0.63628E+02
 0.53649998E+02 -0.61836E+02
 0.53699997E+02 -0.62327E+02
 0.53749996E+02 -0.63051E+02
 0.53799995E+02 -0.61917E+02
 0.53849998E+02 -0.63486E+02
 0.53899998E+02 -0.63595E+02
 0.53949997E+02 -0.62059E+02
 0.53999996E+02 -0.62992E+02
 0.54049995E+02 -0.63462E+02
 0.54099998E+02 -0.62534E+02
 0.54149998E+02 -0.63044E+02
 0.54199997E+02 -0.61992E+02
 0.54249996E+02 -0.63583E+02
 0.54299995E+02 -0.62527E+02
 0.54349998E+02 -0.63042E+02
 0.54399998E+02 -0.62667E+02
 0.54449997E+02 -0.61842E+02
 0.54499996E+02 -0.64455E+02
 0.54549995E+02 -0.62139E+02
 0.54599998E+02 -0.62166E+02
 0.54649998E+02 -0.62689E+02
 0.54699997E+02 -0.61410E+02
 0.54749996E+02 -0.63147E+02
 0.54799995E+02 -0.61664E+02
 0.54849998E+02 -0.61827E+02
 0.54899998E+02 -0.62258E+02
 0.54949997E+02 -0.60904E+02
 0.54999996E+02 -0.62532E+02
 0.55049995E+02 -0.61855E+02
 0.55099998E+02 -0.62350E+02
 0.55149998E+02 -0.62406E+02
 0.55199997E+02 -0.62369E+02
 0.55249996E+02 -0.62036E+02
 0.55299995E+02 -0.62254E+02
 0.55349998E+02 -0.60894E+02
 0.55399998E+02 -0.60573E+02
 0.55449997E+02 -0.61080E+02
 0.55499996E+02 -0.60875E+02
 0.55549995E+02 -0.61649E+02
 0.55599998E+02 -0.61662E+02
 0.55649998E+02 -0.62979E+02
 0.55699997E+02 -0.61204E+02
 0.55749996E+02 -0.62636E+02
 0.55799995E+02 -0.61417E+02
 0.55849995E+02 -0.61844E+02
 0.55899998E+02 -0.62886E+02
 0.55949997E+02 -0.61017E+02
 0.55999996E+02 -0.63392E+02
 0.56049995E+02 -0.63421E+02
 0.56099995E+02 -0.64116E+02
 0.56149998E+02 -0.63997E+02
 0.56199997E+02 -0.61866E+02
 0.56249996E+02 -0.62270E+02
 0.56299995E+02 -0.63316E+02
 0.56349995E+02 -0.62514E+02
 0.56399998E+02 -0.61366E+02
 0.56449997E+02 -0.60599E+02
 0.56499996E+02 -0.62749E+02
 0.56549995E+02 -0.62194E+02
 0.56599995E+02 -0.61757E+02
 0.56649998E+02 -0.63139E+02
 0.56699997E+02 -0.61455E+02
 0.56749996E+02 -0.63122E+02
 0.56799995E+02 -0.62138E+02
 0.56849995E+02 -0.61780E+02
 0.56899998E+02 -0.61976E+02
 0.56949997E+02 -0.61106E+02
 0.56999996E+02 -0.61512E+02
 0.57049995E+02 -0.62413E+02
 0.57099995E+02 -0.62733E+02
 0.57149998E+02 -0.60909E+02
 0.57199997E+02 -0.62253E+02
 0.57249996E+02 -0.62673E+02
 0.57299995E+02 -0.63148E+02
 0.57349995E+02 -0.63003E+02
 0.57399998E+02 -0.61516E+02
 0.57449997E+02 -0.61660E+02
 0.57499996E+02 -0.61419E+02
 0.57549995E+02 -0.62967E+02
 0.57599995E+02 -0.63101E+02
 0.57649998E+02 -0.61903E+02
 0.57699997E+02 -0.62760E+02
 0.57749996E+02 -0.62252E+02
 0.57799995E+02 -0.63515E+02
 0.57849995E+02 -0.63166E+02
 0.57899998E+02 -0.62693E+02
 0.57949997E+02 -0.62935E+02
 0.57999996E+02 -0.63244E+02
 0.58049995E+02 -0.64402E+02
 0.58099995E+02 -0.63044E+02
 0.58149998E+02 -0.64003E+02
 0.58199997E+02 -0.64379E+02
 0.58249996E+02 -0.63120E+02
 0.58299995E+02 -0.62317E+02
 0.58349995E+02 -0.62347E+02
 0.58399998E+02 -0.63174E+02
 0.58449997E+02 -0.63401E+02
 0.58499996E+02 -0.62451E+02
 0.58549995E+02 -0.63535E+02
 0.58599995E+02 -0.63504E+02
 0.58649998E+02 -0.61408E+02
 0.58699997E+02 -0.63805E+02
 0.58749996E+02 -0.64530E+02
 0.58799995E+02 -0.63549E+02
 0.58849995E+02 -0.64351E+02
 0.58899998E+02 -0.63216E+02
 0.58949997E+02 -0.62890E+02
 0.58999996E+02 -0.63054E+02
 0.59049995E+02 -0.63301E+02
 0.59099995E+02 -0.63415E+02
 0.59149998E+02 -0.62765E+02
 0.59199997E+02 -0.64532E+02
 0.59249996E+02 -0.63200E+02
 0.59299995E+02 -0.62558E+02
 0.59349995E+02 -0.61605E+02
 0.59399998E+02 -0.62448E+02
 0.59449997E+02 -0.64145E+02
 0.59499996E+02 -0.62555E+02
 0.59549995E+02 -0.64072E+02
 0.59599995E+02 -0.63042E+02
 0.59649998E+02 -0.63596E+02
 0.59699997E+02 -0.63115E+02
 0.59749996E+02 -0.62886E+02
 0.59799995E+02 -0.63348E+02
 0.59849995E+02 -0.63632E+02
 0.59899998E+02 -0.63470E+02
 0.59949997E+02 -0.61658E+02
 0.59999996E+02 -0.64313E+02
 0.60049995E+02 -0.63783E+02
 0.60099995E+02 -0.63789E+02
 0.60149998E+02 -0.62607E+02
 0.60199997E+02 -0.62518E+02
 0.60249996E+02 -0.63995E+02
 0.60299995E+02 -0.62515E+02
 0.60349995E+02 -0.63119E+02
 0.60399998E+02 -0.62326E+02
 0.60449997E+02 -0.62377E+02
 0.60499996E+02 -0.62120E+02
 0.60549995E+02 -0.62974E+02
 0.60599995E+02 -0.62752E+02
 0.60649998E+02 -0.61948E+02
 0.60699997E+02 -0.62275E+02
 0.60749996E+02 -0.61733E+02
 0.60799995E+02 -0.63333E+02
 0.60849995E+02 -0.61382E+02
 0.60899998E+02 -0.60995E+02
 0.60949997E+02 -0.62300E+02
 0.60999996E+02 -0.62566E+02
 0.61049995E+02 -0.62048E+02
 0.61099995E+02 -0.61912E+02
 0.61149998E+02 -0.62666E+02
 0.61199997E+02 -0.63178E+02
 0.61249996E+02 -0.63273E+02
 0.61299995E+02 -0.62306E+02
 0.61349995E+02 -0.64359E+02
 0.61399998E+02 -0.63417E+02
 0.61449997E+02 -0.62221E+02
 0.61499996E+02 -0.62399E+02
 0.61549995E+02 -0.63737E+02
 0.61599995E+02 -0.61705E+02
 0.61649998E+02 -0.61348E+02
 0.61699997E+02 -0.63512E+02
 0.61749996E+02 -0.62961E+02
 0.61799995E+02 -0.63481E+02
 0.61849995E+02 -0.62500E+02
 0.61899998E+02 -0.61805E+02
 0.61949997E+02 -0.62031E+02
 0.61999996E+02 -0.63615E+02
 0.62049995E+02 -0.64274E+02
 0.62099998E+02 -0.62920E+02
 0.62149994E+02 -0.63791E+02
 0.62199997E+02 -0.63614E+02
 0.62249992E+02 -0.61250E+02
 0.62299995E+02 -0.62249E+02
 0.62349998E+02 -0.61833E+02
 0.62399994E+02 -0.62041E+02
 0.62449997E+02 -0.61952E+02
 0.62499992E+02 -0.61992E+02
 0.62549995E+02 -0.61724E+02
 0.62599998E+02 -0.61016E+02
 0.62649994E+02 -0.61359E+02
 0.62699997E+02 -0.62177E+02
 0.62749992E+02 -0.63265E+02
 0.62799995E+02 -0.61373E+02
 0.62849998E+02 -0.62163E+02
 0.62899994E+02 -0.62210E+02
 0.62949997E+02 -0.61127E+02
 0.62999992E+02 -0.61229E+02
 0.63049995E+02 -0.61636E+02
 0.63099998E+02 -0.62491E+02
 0.63149994E+02 -0.61810E+02
 0.63199997E+02 -0.62886E+02
 0.63249992E+02 -0.62199E+02
 0.63299995E+02 -0.60804E+02
 0.63349998E+02 -0.61184E+02
 0.63399994E+02 -0.61730E+02
 0.63449997E+02 -0.61460E+02
 0.63499992E+02 -0.61610E+02
 0.63549995E+02 -0.61174E+02
 0.63599998E+02 -0.61427E+02
 0.63649994E+02 -0.61867E+02
 0.63699997E+02 -0.61439E+02
 0.63749992E+02 -0.62695E+02
 0.63799995E+02 -0.61941E+02
 0.63849998E+02 -0.60876E+02
 0.63899994E+02 -0.62335E+02
 0.63949997E+02 -0.61551E+02
 0.63999992E+02 -0.62102E+02
 0.64049995E+02 -0.63756E+02
 0.64099998E+02 -0.62404E+02
 0.64149994E+02 -0.61846E+02
 0.64199997E+02 -0.62039E+02
 0.64249992E+02 -0.62812E+02
 0.64299995E+02 -0.60707E+02
 0.64349998E+02 -0.62206E+02
 0.64399994E+02 -0.62650E+02
 0.64449997E+02 -0.61574E+02
 0.64499992E+02 -0.60302E+02
 0.64549995E+02 -0.60366E+02
 0.64599998E+02 -0.61451E+02
 0.64649994E+02 -0.61378E+02
 0.64699997E+02 -0.61808E+02
 0.64749992E+02 -0.60859E+02
 0.64799995E+02 -0.61919E+02
 0.64849998E+02 -0.60383E+02
 0.64899994E+02 -0.62499E+02
 0.64949997E+02 -0.62728E+02
 0.64999992E+02 -0.62541E+02
 0.65049995E+02 -0.63258E+02
 0.65099998E+02 -0.62200E+02
 0.65149994E+02 -0.63739E+02
 0.65199997E+02 -0.63306E+02
 0.65249992E+02 -0.63619E+02
 0.65299995E+02 -0.61737E+02
 0.65349998E+02 -0.61508E+02
 0.65399994E+02 -0.61579E+02
 0.65449997E+02 -0.61735E+02
 0.65499992E+02 -0.62644E+02
 0.65549995E+02 -0.61908E+02
 0.65599998E+02 -0.62218E+02
 0.65649994E+02 -0.61130E+02
 0.65699997E+02 -0.61709E+02
 0.65749992E+02 -0.61381E+02
 0.65799995E+02 -0.60467E+02
 0.65849998E+02 -0.61366E+02
 0.65899994E+02 -0.61617E+02
 0.65949997E+02 -0.61530E+02
 0.65999992E+02 -0.62522E+02
 0.66049995E+02 -0.62634E+02
 0.66099998E+02 -0.63584E+02
 0.66149994E+02 -0.63164E+02
 0.66199997E+02 -0.63023E+02
 0.66249992E+02 -0.62870E+02
 0.66299995E+02 -0.61699E+02
 0.66349998E+02 -0.62353E+02
 0.66399994E+02 -0.61846E+02
 0.66449997E+02 -0.62006E+02
 0.66499992E+02 -0.62438E+02
 0.66549995E+02 -0.63361E+02
 0.66599998E+02 -0.62379E+02
 0.66649994E+02 -0.61732E+02
 0.66699997E+02 -0.61508E+02
 0.66749992E+02 -0.62054E+02
 0.66799995E+02 -0.61712E+02
 0.66849998E+02 -0.61613E+02
 0.66899994E+02 -0.61569E+02
 0.66949997E+02 -0.62769E+02
 0.66999992E+02 -0.63300E+02
 0.67049995E+02 -0.62473E+02
 0.67099998E+02 -0.63147E+02
 0.67149994E+02 -0.62889E+02
 0.67199997E+02 -0.63698E+02
 0.67249992E+02 -0.61970E+02
 0.67299995E+02 -0.62988E+02
 0.67349998E+02 -0.62575E+02
 0.67399994E+02 -0.61693E+02
 0.67449997E+02 -0.61944E+02
 0.67499992E+02 -0.60915E+02
 0.67549995E+02 -0.61883E+02
 0.67599998E+02 -0.61752E+02
 0.67649994E+02 -0.62501E+02
 0.67699997E+02 -0.60386E+02
 0.67749992E+02 -0.60365E+02
 0.67799995E+02 -0.61769E+02
 0.67849998E+02 -0.61472E+02
 0.67899994E+02 -0.61740E+02
 0.67949997E+02 -0.60531E+02
 0.67999992E+02 -0.61964E+02
 0.68049995E+02 -0.62434E+02
 0.68099998E+02 -0.63542E+02
 0.68149994E+02 -0.63141E+02
 0.68199997E+02 -0.61584E+02
 0.68249992E+02 -0.62408E+02
 0.68299995E+02 -0.62049E+02
 0.68349998E+02 -0.61890E+02
 0.68399994E+02 -0.62114E+02
 0.68449997E+02 -0.61801E+02
 0.68499992E+02 -0.61346E+02
 0.68549995E+02 -0.61474E+02
 0.68599998E+02 -0.61103E+02
 0.68649994E+02 -0.62409E+02
 0.68699997E+02 -0.62096E+02
 0.68749992E+02 -0.61862E+02
 0.68799995E+02 -0.62806E+02
 0.68849998E+02 -0.61401E+02
 0.68899994E+02 -0.61351E+02
 0.68949997E+02 -0.60289E+02
 0.68999992E+02 -0.61657E+02
 0.69049995E+02 -0.62732E+02
 0.69099998E+02 -0.61896E+02
 0.69149994E+02 -0.62937E+02
 0.69199997E+02 -0.62083E+02
 0.69249992E+02 -0.61917E+02
 0.69299995E+02 -0.61931E+02
 0.69349998E+02 -0.62756E+02
 0.69399994E+02 -0.63290E+02
 0.69449997E+02 -0.61140E+02
 0.69499992E+02 -0.60966E+02
 0.69549995E+02 -0.62849E+02
 0.69599998E+02 -0.62713E+02
 0.69649994E+02 -0.61838E+02
 0.69699997E+02 -0.61544E+02
 0.69749992E+02 -0.62843E+02
 0.69799995E+02 -0.63092E+02
 0.69849998E+02 -0.62289E+02
 0.69899994E+02 -0.62460E+02
 0.69949997E+02 -0.61862E+02
 0.69999992E+02 -0.63304E+02
 0.70049995E+02 -0.63438E+02
 0.70099998E+02 -0.62104E+02
 0.70149994E+02 -0.64229E+02
 0.70199997E+02 -0.62725E+02
 0.70249992E+02 -0.62744E+02
 0.70299995E+02 -0.62003E+02
 0.70349998E+02 -0.61125E+02
 0.70399994E+02 -0.63228E+02
 0.70449997E+02 -0.62657E+02
 0.70499992E+02 -0.63097E+02
 0.70549995E+02 -0.61212E+02
 0.70599998E+02 -0.62355E+02
 0.70649994E+02 -0.62203E+02
 0.70699997E+02 -0.61162E+02
 0.70749992E+02 -0.62584E+02
 0.70799995E+02 -0.62561E+02
 0.70849998E+02 -0.61024E+02
 0.70899994E+02 -0.61553E+02
 0.70949997E+02 -0.63337E+02
 0.70999992E+02 -0.62262E+02
 0.71049995E+02 -0.62111E+02
 0.71099998E+02 -0.63957E+02
 0.71149994E+02 -0.63003E+02
 0.71199997E+02 -0.61772E+02
 0.71249992E+02 -0.62187E+02
 0.71299995E+02 -0.61745E+02
 0.71349998E+02 -0.63197E+02
 0.71399994E+02 -0.60449E+02
 0.71449997E+02 -0.61258E+02
 0.71499992E+02 -0.60630E+02
 0.71549995E+02 -0.61299E+02
 0.71599998E+02 -0.63419E+02
 0.71649994E+02 -0.61836E+02
 0.71699997E+02 -0.63327E+02
 0.71749992E+02 -0.60295E+02
 0.71799995E+02 -0.61168E+02
 0.71849998E+02 -0.62005E+02
 0.71899994E+02 -0.62283E+02
 0.71949997E+02 -0.60618E+02
 0.71999992E+02 -0.62039E+02
 0.72049995E+02 -0.63039E+02
 0.72099998E+02 -0.61823E+02
 0.72149994E+02 -0.61703E+02
 0.72199997E+02 -0.61607E+02
 0.72249992E+02 -0.62787E+02
 0.72299995E+02 -0.60297E+02
 0.72349998E+02 -0.61226E+02
 0.72399994E+02 -0.60715E+02
 0.72449997E+02 -0.60876E+02
 0.72499992E+02 -0.61750E+02
 0.72549995E+02 -0.60971E+02
 0.72599998E+02 -0.61208E+02
 0.72649994E+02 -0.61099E+02
 0.72699997E+02 -0.61536E+02
 0.72749992E+02 -0.61576E+02
 0.72799995E+02 -0.61098E+02
 0.72849998E+02 -0.61549E+02
 0.72899994E+02 -0.61331E+02
 0.72949997E+02 -0.61223E+02
 0.72999992E+02 -0.61897E+02
 0.73049995E+02 -0.62555E+02
 0.73099998E+02 -0.62335E+02
 0.73149994E+02 -0.62040E+02
 0.73199997E+02 -0.62121E+02
 0.73249992E+02 -0.62910E+02
 0.73299995E+02 -0.62465E+02
 0.73349998E+02 -0.62571E+02
 0.73399994E+02 -0.61361E+02
 0.73449997E+02 -0.61280E+02
 0.73499992E+02 -0.61334E+02
 0.73549995E+02 -0.60272E+02
 0.73599998E+02 -0.61509E+02
 0.73649994E+02 -0.61465E+02
 0.73699997E+02 -0.61836E+02
 0.73749992E+02 -0.61663E+02
 0.73799995E+02 -0.63053E+02
 0.73849998E+02 -0.61765E+02
 0.73899994E+02 -0.61024E+02
 0.73949997E+02 -0.62419E+02
 0.73999992E+02 -0.62058E+02
 0.74049995E+02 -0.62006E+02
 0.74099998E+02 -0.62100E+02
 0.74149994E+02 -0.61911E+02
 0.74199997E+02 -0.62661E+02
 0.74249992E+02 -0.62914E+02
 0.74299995E+02 -0.62025E+02
 0.74349998E+02 -0.61582E+02
 0.74399994E+02 -0.60271E+02
 0.74449997E+02 -0.62395E+02
 0.74499992E+02 -0.62237E+02
 0.74549995E+02 -0.61514E+02
 0.74599998E+02 -0.62825E+02
 0.74649994E+02 -0.63195E+02
 0.74699997E+02 -0.62061E+02
 0.74749992E+02 -0.63363E+02
 0.74799995E+02 -0.63356E+02
 0.74849998E+02 -0.61181E+02
 0.74899994E+02 -0.62513E+02
 0.74949997E+02 -0.62101E+02
 0.74999992E+02 -0.62426E+02
 0.75049995E+02 -0.61401E+02
 0.75099998E+02 -0.62541E+02
 0.75149994E+02 -0.63397E+02
 0.75199997E+02 -0.62514E+02
 0.75249992E+02 -0.62673E+02
 0.75299995E+02 -0.62589E+02
 0.75349998E+02 -0.62626E+02
 0.75399994E+02 -0.61758E+02
 0.75449997E+02 -0.62658E+02
 0.75499992E+02 -0.62275E+02
 0.75549995E+02 -0.61567E+02
 0.75599998E+02 -0.61519E+02
 0.75649994E+02 -0.61744E+02
 0.75699997E+02 -0.61560E+02
 0.75749992E+02 -0.60958E+02
 0.75799995E+02 -0.62385E+02
 0.75849998E+02 -0.63409E+02
 0.75899994E+02 -0.60883E+02
 0.75949997E+02 -0.61641E+02
 0.75999992E+02 -0.62841E+02
 0.76049995E+02 -0.62685E+02
 0.76099998E+02 -0.64348E+02
 0.76149994E+02 -0.63677E+02
 0.76199997E+02 -0.62557E+02
 0.76249992E+02 -0.62376E+02
 0.76299995E+02 -0.62537E+02
 0.76349998E+02 -0.61383E+02
 0.76399994E+02 -0.62466E+02
 0.76449997E+02 -0.62235E+02
 0.76499992E+02 -0.61295E+02
 0.76549995E+02 -0.61468E+02
 0.76599998E+02 -0.60930E+02
 0.76649994E+02 -0.61266E+02
 0.76699997E+02 -0.62011E+02
 0.76749992E+02 -0.62789E+02
 0.76799995E+02 -0.61841E+02
 0.76849998E+02 -0.61918E+02
 0.76899994E+02 -0.60949E+02
 0.76949997E+02 -0.61086E+02
 0.76999992E+02 -0.62209E+02
 0.77049995E+02 -0.61472E+02
 0.77099998E+02 -0.62571E+02
 0.77149994E+02 -0.61639E+02
 0.77199997E+02 -0.62709E+02
 0.77249992E+02 -0.62697E+02
 0.77299995E+02 -0.61888E+02
 0.77349998E+02 -0.61645E+02
 0.77399994E+02 -0.61658E+02
 0.77449997E+02 -0.61106E+02
 0.77499992E+02 -0.60737E+02
 0.77549995E+02 -0.61693E+02
 0.77599998E+02 -0.61420E+02
 0.77649994E+02 -0.61959E+02
 0.77699997E+02 -0.60424E+02
 0.77749992E+02 -0.62377E+02
 0.77799995E+02 -0.62069E+02
 0.77849998E+02 -0.62794E+02
 0.77899994E+02 -0.61784E+02
 0.77949997E+02 -0.61209E+02
 0.77999992E+02 -0.63485E+02
 0.78049995E+02 -0.61537E+02
 0.78099998E+02 -0.62217E+02
 0.78149994E+02 -0.62344E+02
 0.78199997E+02 -0.61923E+02
 0.78249992E+02 -0.62195E+02
 0.78299995E+02 -0.62193E+02
 0.78349998E+02 -0.61541E+02
 0.78399994E+02 -0.61054E+02
 0.78449997E+02 -0.61192E+02
 0.78499992E+02 -0.61932E+02
 0.78549995E+02 -0.62360E+02
 0.78599998E+02 -0.62692E+02
 0.78649994E+02 -0.62052E+02
 0.78699997E+02 -0.61554E+02
 0.78749992E+02 -0.59961E+02
 0.78799995E+02 -0.60138E+02
 0.78849998E+02 -0.61842E+02
 0.78899994E+02 -0.62247E+02
 0.78949997E+02 -0.62665E+02
 0.78999992E+02 -0.62334E+02
 0.79049995E+02 -0.62992E+02
 0.79099998E+02 -0.62553E+02
 0.79149994E+02 -0.62865E+02
 0.79199997E+02 -0.62596E+02
 0.79249992E+02 -0.62428E+02
 0.79299995E+02 -0.61830E+02
 0.79349998E+02 -0.61381E+02
 0.79399994E+02 -0.61796E+02
 0.79449997E+02 -0.61643E+02
 0.79499992E+02 -0.62529E+02
 0.79549995E+02 -0.62533E+02
 0.79599998E+02 -0.60961E+02
 0.79649994E+02 -0.60445E+02
 0.79699997E+02 -0.61818E+02
 0.79749992E+02 -0.60853E+02
 0.79799995E+02 -0.61240E+02
 0.79849998E+02 -0.61672E+02
 0.79899994E+02 -0.61809E+02
 0.79949997E+02 -0.61479E+02
 0.79999992E+02 -0.61434E+02
 0.80049995E+02 -0.61634E+02
 0.80099998E+02 -0.61398E+02
 0.80149994E+02 -0.62682E+02
 0.80199997E+02 -0.62879E+02
 0.80249992E+02 -0.63726E+02
 0.80299995E+02 -0.61898E+02
 0.80349998E+02 -0.62026E+02
 0.80399994E+02 -0.62130E+02
 0.80449997E+02 -0.62048E+02
 0.80499992E+02 -0.62271E+02
 0.80549995E+02 -0.61370E+02
 0.80599998E+02 -0.62639E+02
 0.80649994E+02 -0.62487E+02
 0.80699997E+02 -0.63109E+02
 0.80749992E+02 -0.63099E+02
 0.80799995E+02 -0.62453E+02
 0.80849998E+02 -0.62459E+02
 0.80899994E+02 -0.62318E+02
 0.80949997E+02 -0.63021E+02
 0.80999992E+02 -0.62589E+02
 0.81049995E+02 -0.61630E+02
 0.81099998E+02 -0.63223E+02
 0.81149994E+02 -0.62870E+02
 0.81199997E+02 -0.62042E+02
 0.81249992E+02 -0.62047E+02
 0.81299995E+02 -0.61672E+02
 0.81349998E+02 -0.63328E+02
 0.81399994E+02 -0.61977E+02
 0.81449997E+02 -0.61976E+02
 0.81499992E+02 -0.62585E+02
 0.81549995E+02 -0.61506E+02
 0.81599998E+02 -0.62329E+02
 0.81649994E+02 -0.62387E+02
 0.81699997E+02 -0.61701E+02
 0.81749992E+02 -0.62313E+02
 0.81799995E+02 -0.62993E+02
 0.81849998E+02 -0.61518E+02
 0.81899994E+02 -0.61573E+02
 0.81949997E+02 -0.61146E+02
 0.81999992E+02 -0.62344E+02
 0.82049995E+02 -0.63759E+02
 0.82099998E+02 -0.62598E+02
 0.82149994E+02 -0.63353E+02
 0.82199997E+02 -0.62621E+02
 0.82249992E+02 -0.63402E+02
 0.82299995E+02 -0.63757E+02
 0.82349998E+02 -0.62334E+02
 0.82399994E+02 -0.61529E+02
 0.82449997E+02 -0.61208E+02
 0.82499992E+02 -0.62475E+02
 0.82549995E+02 -0.62435E+02
 0.82599998E+02 -0.59735E+02
 0.82649994E+02 -0.61456E+02
 0.82699997E+02 -0.63130E+02
 0.82749992E+02 -0.62987E+02
 0.82799995E+02 -0.61799E+02
 0.82849998E+02 -0.61677E+02
 0.82899994E+02 -0.62790E+02
 0.82949997E+02 -0.61761E+02
 0.82999992E+02 -0.62874E+02
 0.83049995E+02 -0.61719E+02
 0.83099998E+02 -0.61760E+02
 0.83149994E+02 -0.63144E+02
 0.83199997E+02 -0.63457E+02
 0.83249992E+02 -0.60796E+02
 0.83299995E+02 -0.62269E+02
 0.83349998E+02 -0.63998E+02
 0.83399994E+02 -0.61110E+02
 0.83449997E+02 -0.62202E+02
 0.83499992E+02 -0.63322E+02
 0.83549995E+02 -0.64203E+02
 0.83599998E+02 -0.62454E+02
 0.83649994E+02 -0.61675E+02
 0.83699997E+02 -0.62995E+02
 0.83749992E+02 -0.61774E+02
 0.83799995E+02 -0.62763E+02
 0.83849998E+02 -0.62582E+02
 0.83899994E+02 -0.62539E+02
 0.83949997E+02 -0.62718E+02
 0.83999992E+02 -0.62250E+02
 0.84049995E+02 -0.63362E+02
 0.84099998E+02 -0.64438E+02
 0.84149994E+02 -0.62987E+02
 0.84199997E+02 -0.62203E+02
 0.84249992E+02 -0.63701E+02
 0.84299995E+02 -0.61459E+02
 0.84349998E+02 -0.62323E+02
 0.84399994E+02 -0.63031E+02
 0.84449997E+02 -0.61830E+02
 0.84499992E+02 -0.61832E+02
 0.84549995E+02 -0.62377E+02
 0.84599998E+02 -0.62652E+02
 0.84649994E+02 -0.63250E+02
 0.84699997E+02 -0.62713E+02
 0.84749992E+02 -0.62102E+02
 0.84799995E+02 -0.62416E+02
 0.84849998E+02 -0.62522E+02
 0.84899994E+02 -0.62482E+02
 0.84949997E+02 -0.61900E+02
 0.84999992E+02 -0.64160E+02
 0.85049995E+02 -0.63002E+02
 0.85099998E+02 -0.63237E+02
 0.85149994E+02 -0.62889E+02
 0.85199997E+02 -0.62894E+02
 0.85249992E+02 -0.62550E+02
 0.85299995E+02 -0.61198E+02
 0.85349998E+02 -0.62005E+02
 0.85399994E+02 -0.62162E+02
 0.85449997E+02 -0.62866E+02
 0.85499992E+02 -0.63146E+02
 0.85549995E+02 -0.62813E+02
 0.85599998E+02 -0.61584E+02
 0.85649994E+02 -0.62333E+02
 0.85699997E+02 -0.62381E+02
 0.85749992E+02 -0.63256E+02
 0.85799995E+02 -0.63285E+02
 0.85849998E+02 -0.63304E+02
 0.85899994E+02 -0.63057E+02
 0.85949997E+02 -0.62400E+02
 0.85999992E+02 -0.62596E+02
 0.86049995E+02 -0.63554E+02
 0.86099998E+02 -0.63847E+02
 0.86149994E+02 -0.62816E+02
 0.86199997E+02 -0.63668E+02
 0.86249992E+02 -0.63167E+02
 0.86299995E+02 -0.62050E+02
 0.86349998E+02 -0.61911E+02
 0.86399994E+02 -0.63179E+02
 0.86449997E+02 -0.61635E+02
 0.86499992E+02 -0.61968E+02
 0.86549995E+02 -0.62281E+02
 0.86599998E+02 -0.62172E+02
 0.86649994E+02 -0.63250E+02
 0.86699997E+02 -0.62692E+02
 0.86749992E+02 -0.62479E+02
 0.86799995E+02 -0.62214E+02
 0.86849998E+02 -0.62740E+02
 0.86899994E+02 -0.62091E+02
 0.86949997E+02 -0.62294E+02
 0.86999992E+02 -0.62726E+02
 0.87049995E+02 -0.63097E+02
 0.87099998E+02 -0.62765E+02
 0.87149994E+02 -0.63278E+02
 0.87199997E+02 -0.64410E+02
 0.87249992E+02 -0.63394E+02
 0.87299995E+02 -0.61796E+02
 0.87349998E+02 -0.62524E+02
 0.87399994E+02 -0.61754E+02
 0.87449997E+02 -0.63185E+02
 0.87499992E+02 -0.63421E+02
 0.87549995E+02 -0.61953E+02
 0.87599991E+02 -0.62883E+02
 0.87649994E+02 -0.62156E+02
 0.87699997E+02 -0.62609E+02
 0.87749992E+02 -0.61349E+02
 0.87799995E+02 -0.62915E+02
 0.87849991E+02 -0.63458E+02
 0.87899994E+02 -0.63220E+02
 0.87949997E+02 -0.63343E+02
 0.87999992E+02 -0.63181E+02
 0.88049995E+02 -0.64731E+02
 0.88099991E+02 -0.62262E+02
 0.88149994E+02 -0.62918E+02
 0.88199997E+02 -0.63644E+02
 0.88249992E+02 -0.62488E+02
 0.88299995E+02 -0.62618E+02
 0.88349991E+02 -0.62565E+02
 0.88399994E+02 -0.62976E+02
 0.88449997E+02 -0.61036E+02
 0.88499992E+02 -0.62621E+02
 0.88549995E+02 -0.64482E+02
 0.88599991E+02 -0.63791E+02
 0.88649994E+02 -0.62844E+02
 0.88699997E+02 -0.61591E+02
 0.88749992E+02 -0.63373E+02
 0.88799995E+02 -0.62657E+02
 0.88849991E+02 -0.62934E+02
 0.88899994E+02 -0.62428E+02
 0.88949997E+02 -0.60922E+02
 0.88999992E+02 -0.62624E+02
 0.89049995E+02 -0.63808E+02
 0.89099991E+02 -0.64623E+02
 0.89149994E+02 -0.63487E+02
 0.89199997E+02 -0.63539E+02
 0.89249992E+02 -0.63543E+02
 0.89299995E+02 -0.63037E+02
 0.89349991E+02 -0.61053E+02
 0.89399994E+02 -0.61794E+02
 0.89449997E+02 -0.62503E+02
 0.89499992E+02 -0.62043E+02
 0.89549995E+02 -0.62337E+02
 0.89599991E+02 -0.60880E+02
 0.89649994E+02 -0.61451E+02
 0.89699997E+02 -0.62073E+02
 0.89749992E+02 -0.62430E+02
 0.89799995E+02 -0.63118E+02
 0.89849991E+02 -0.62501E+02
 0.89899994E+02 -0.62344E+02
 0.89949997E+02 -0.63043E+02
 0.89999992E+02 -0.61966E+02
 0.90049995E+02 -0.63454E+02
 0.90099991E+02 -0.62398E+02
 0.90149994E+02 -0.62941E+02
 0.90199997E+02 -0.64203E+02
 0.90249992E+02 -0.63567E+02
 0.90299995E+02 -0.62644E+02
 0.90349991E+02 -0.61731E+02
 0.90399994E+02 -0.62494E+02
 0.90449997E+02 -0.62743E+02
 0.90499992E+02 -0.63438E+02
 0.90549995E+02 -0.62898E+02
 0.90599991E+02 -0.62564E+02
 0.90649994E+02 -0.62053E+02
 0.90699997E+02 -0.62553E+02
 0.90749992E+02 -0.63254E+02
 0.90799995E+02 -0.62749E+02
 0.90849991E+02 -0.63068E+02
 0.90899994E+02 -0.63895E+02
 0.90949997E+02 -0.62929E+02
 0.90999992E+02 -0.64276E+02
 0.91049995E+02 -0.63171E+02
 0.91099991E+02 -0.62361E+02
 0.91149994E+02 -0.62935E+02
 0.91199997E+02 -0.63444E+02
 0.91249992E+02 -0.63921E+02
 0.91299995E+02 -0.62469E+02
 0.91349991E+02 -0.63059E+02
 0.91399994E+02 -0.62618E+02
 0.91449997E+02 -0.63279E+02
 0.91499992E+02 -0.61816E+02
 0.91549995E+02 -0.62895E+02
 0.91599991E+02 -0.63781E+02
 0.91649994E+02 -0.62222E+02
 0.91699997E+02 -0.62900E+02
 0.91749992E+02 -0.62662E+02
 0.91799995E+02 -0.61770E+02
 0.91849991E+02 -0.61859E+02
 0.91899994E+02 -0.62255E+02
 0.91949997E+02 -0.62515E+02
 0.91999992E+02 -0.62146E+02
 0.92049995E+02 -0.62111E+02
 0.92099991E+02 -0.62200E+02
 0.92149994E+02 -0.62562E+02
 0.92199997E+02 -0.63491E+02
 0.92249992E+02 -0.61819E+02
 0.92299995E+02 -0.62983E+02
 0.92349991E+02 -0.62300E+02
 0.92399994E+02 -0.61798E+02
 0.92449997E+02 -0.62308E+02
 0.92499992E+02 -0.62362E+02
 0.92549995E+02 -0.63117E+02
 0.92599991E+02 -0.63327E+02
 0.92649994E+02 -0.61702E+02
 0.92699997E+02 -0.62590E+02
 0.92749992E+02 -0.63034E+02
 0.92799995E+02 -0.61772E+02
 0.92849991E+02 -0.62963E+02
 0.92899994E+02 -0.63343E+02
 0.92949997E+02 -0.63318E+02
 0.92999992E+02 -0.62596E+02
 0.93049995E+02 -0.63447E+02
 0.93099991E+02 -0.63616E+02
 0.93149994E+02 -0.63816E+02
 0.93199997E+02 -0.63880E+02
 0.93249992E+02 -0.62349E+02
 0.93299995E+02 -0.62116E+02
 0.93349991E+02 -0.62937E+02
 0.93399994E+02 -0.62297E+02
 0.93449997E+02 -0.62624E+02
 0.93499992E+02 -0.62177E+02
 0.93549995E+02 -0.62323E+02
 0.93599991E+02 -0.63841E+02
 0.93649994E+02 -0.62429E+02
 0.93699997E+02 -0.63441E+02
 0.93749992E+02 -0.62474E+02
 0.93799995E+02 -0.62676E+02
 0.93849991E+02 -0.62155E+02
 0.93899994E+02 -0.61151E+02
 0.93949997E+02 -0.64007E+02
 0.93999992E+02 -0.63526E+02
 0.94049995E+02 -0.63410E+02
 0.94099991E+02 -0.63265E+02
 0.94149994E+02 -0.63405E+02
 0.94199997E+02 -0.62964E+02
 0.94249992E+02 -0.64324E+02
 0.94299995E+02 -0.63295E+02
 0.94349991E+02 -0.61784E+02
 0.94399994E+02 -0.63241E+02
 0.94449997E+02 -0.63625E+02
 0.94499992E+02 -0.62559E+02
 0.94549995E+02 -0.62445E+02
 0.94599991E+02 -0.63026E+02
 0.94649994E+02 -0.62258E+02
 0.94699997E+02 -0.62186E+02
 0.94749992E+02 -0.63057E+02
 0.94799995E+02 -0.61736E+02
 0.94849991E+02 -0.61046E+02
 0.94899994E+02 -0.62824E+02
 0.94949997E+02 -0.62455E+02
 0.94999992E+02 -0.62846E+02
 0.95049995E+02 -0.63025E+02
 0.95099991E+02 -0.63535E+02
 0.95149994E+02 -0.62894E+02
 0.95199997E+02 -0.61597E+02
 0.95249992E+02 -0.62880E+02
 0.95299995E+02 -0.62383E+02
 0.95349991E+02 -0.61158E+02
 0.95399994E+02 -0.62766E+02
 0.95449997E+02 -0.62739E+02
 0.95499992E+02 -0.63006E+02
 0.95549995E+02 -0.63246E+02
 0.95599991E+02 -0.63583E+02
 0.95649994E+02 -0.62594E+02
 0.95699997E+02 -0.62619E+02
 0.95749992E+02 -0.64283E+02
 0.95799995E+02 -0.63000E+02
 0.95849991E+02 -0.62848E+02
 0.95899994E+02 -0.61974E+02
 0.95949997E+02 -0.62607E+02
 0.95999992E+02 -0.63449E+02
 0.96049995E+02 -0.63201E+02
 0.96099991E+02 -0.64018E+02
 0.96149994E+02 -0.64042E+02
 0.96199997E+02 -0.63598E+02
 0.96249992E+02 -0.64061E+02
 0.96299995E+02 -0.63166E+02
 0.96349991E+02 -0.63322E+02
 0.96399994E+02 -0.62964E+02
 0.96449997E+02 -0.62727E+02
 0.96499992E+02 -0.64229E+02
 0.96549995E+02 -0.63086E+02
 0.96599991E+02 -0.62600E+02
 0.96649994E+02 -0.62666E+02
 0.96699997E+02 -0.62182E+02
 0.96749992E+02 -0.63156E+02
 0.96799995E+02 -0.63576E+02
 0.96849991E+02 -0.64260E+02
 0.96899994E+02 -0.63796E+02
 0.96949997E+02 -0.62071E+02
 0.96999992E+02 -0.62609E+02
 0.97049995E+02 -0.62603E+02
 0.97099991E+02 -0.62787E+02
 0.97149994E+02 -0.62105E+02
 0.97199997E+02 -0.64162E+02
 0.97249992E+02 -0.63791E+02
 0.97299995E+02 -0.62030E+02
 0.97349991E+02 -0.63001E+02
 0.97399994E+02 -0.61772E+02
 0.97449997E+02 -0.62197E+02
 0.97499992E+02 -0.62342E+02
 0.97549995E+02 -0.62399E+02
 0.97599991E+02 -0.62555E+02
 0.97649994E+02 -0.61072E+02
 0.97699997E+02 -0.62840E+02
 0.97749992E+02 -0.63673E+02
 0.97799995E+02 -0.62294E+02
 0.97849991E+02 -0.62175E+02
 0.97899994E+02 -0.62170E+02
 0.97949997E+02 -0.63652E+02
 0.97999992E+02 -0.62030E+02
