-0.20000000E+01  0.11797E+05
-0.19500000E+01  0.11731E+05
-0.19000000E+01  0.11782E+05
-0.18500000E+01  0.11784E+05
-0.18000000E+01  0.11781E+05
-0.17500000E+01  0.11780E+05
-0.17000000E+01  0.11769E+05
-0.16500001E+01  0.11775E+05
-0.16000000E+01  0.11778E+05
-0.15500000E+01  0.11775E+05
-0.15000000E+01  0.11776E+05
-0.14500000E+01  0.11775E+05
-0.14000001E+01  0.11781E+05
-0.13500000E+01  0.11794E+05
-0.13000001E+01  0.11806E+05
-0.12500000E+01  0.11803E+05
-0.12000000E+01  0.11794E+05
-0.11500001E+01  0.11780E+05
-0.11000000E+01  0.11777E+05
-0.10500001E+01  0.11776E+05
-0.10000000E+01  0.11778E+05
-0.95000005E+00  0.11781E+05
-0.90000010E+00  0.11787E+05
-0.85000002E+00  0.11797E+05
-0.80000007E+00  0.11802E+05
-0.75000012E+00  0.11808E+05
-0.70000005E+00  0.11830E+05
-0.65000010E+00  0.11845E+05
-0.60000014E+00  0.11848E+05
-0.55000007E+00  0.11860E+05
-0.50000012E+00  0.11837E+05
-0.45000005E+00  0.11812E+05
-0.40000010E+00  0.11811E+05
-0.35000014E+00  0.11811E+05
-0.30000007E+00  0.11816E+05
-0.25000012E+00  0.11817E+05
-0.20000005E+00  0.11813E+05
-0.15000010E+00  0.11809E+05
-0.10000014E+00  0.11814E+05
-0.50000072E-01  0.11819E+05
-0.11920929E-06  0.11820E+05
 0.49999952E-01  0.11848E+05
 0.99999905E-01  0.11864E+05
 0.14999986E+00  0.11858E+05
 0.19999981E+00  0.11858E+05
 0.24999976E+00  0.11860E+05
 0.29999995E+00  0.11864E+05
 0.34999990E+00  0.11861E+05
 0.39999986E+00  0.11856E+05
 0.44999981E+00  0.11851E+05
 0.49999976E+00  0.11848E+05
 0.54999995E+00  0.11844E+05
 0.59999990E+00  0.11839E+05
 0.64999986E+00  0.11828E+05
 0.69999981E+00  0.11817E+05
 0.74999976E+00  0.11812E+05
 0.79999971E+00  0.11820E+05
 0.84999990E+00  0.11835E+05
 0.89999986E+00  0.11844E+05
 0.94999981E+00  0.11830E+05
 0.99999976E+00  0.11815E+05
 0.10499997E+01  0.11810E+05
 0.10999999E+01  0.11802E+05
 0.11499999E+01  0.11823E+05
 0.11999998E+01  0.11830E+05
 0.12499998E+01  0.11828E+05
 0.12999997E+01  0.11822E+05
 0.13499999E+01  0.11811E+05
 0.13999999E+01  0.11808E+05
 0.14499998E+01  0.11806E+05
 0.14999998E+01  0.11808E+05
 0.15499997E+01  0.11814E+05
 0.15999999E+01  0.11823E+05
 0.16499999E+01  0.11823E+05
 0.16999998E+01  0.11790E+05
 0.17499998E+01  0.11772E+05
 0.17999997E+01  0.11769E+05
 0.18499997E+01  0.11762E+05
 0.18999999E+01  0.11766E+05
 0.19499998E+01  0.11770E+05
 0.19999998E+01  0.11770E+05
 0.20499997E+01  0.11774E+05
 0.20999999E+01  0.11807E+05
 0.21499996E+01  0.11818E+05
 0.21999998E+01  0.11819E+05
 0.22499995E+01  0.11800E+05
 0.22999997E+01  0.11808E+05
 0.23499999E+01  0.11816E+05
 0.23999996E+01  0.11792E+05
 0.24499998E+01  0.11805E+05
 0.24999995E+01  0.11835E+05
 0.25499997E+01  0.11822E+05
 0.25999999E+01  0.11781E+05
 0.26499996E+01  0.11780E+05
 0.26999998E+01  0.11795E+05
 0.27499995E+01  0.11812E+05
 0.27999997E+01  0.11822E+05
 0.28499999E+01  0.11851E+05
 0.28999996E+01  0.11867E+05
 0.29499998E+01  0.11868E+05
 0.29999995E+01  0.11877E+05
 0.30499997E+01  0.11880E+05
 0.30999999E+01  0.11889E+05
 0.31499996E+01  0.11886E+05
 0.31999998E+01  0.11888E+05
 0.32499995E+01  0.11888E+05
 0.32999997E+01  0.11886E+05
 0.33499999E+01  0.11876E+05
 0.33999996E+01  0.11846E+05
 0.34499998E+01  0.11859E+05
 0.34999995E+01  0.11869E+05
 0.35499997E+01  0.11853E+05
 0.35999994E+01  0.11848E+05
 0.36499996E+01  0.11840E+05
 0.36999998E+01  0.11843E+05
 0.37499995E+01  0.11843E+05
 0.37999997E+01  0.11843E+05
 0.38499994E+01  0.11841E+05
 0.38999996E+01  0.11845E+05
 0.39499998E+01  0.11845E+05
 0.39999995E+01  0.11818E+05
 0.40499997E+01  0.11797E+05
 0.40999994E+01  0.11796E+05
 0.41499996E+01  0.11793E+05
 0.41999998E+01  0.11796E+05
 0.42499995E+01  0.11797E+05
 0.42999997E+01  0.11796E+05
 0.43499994E+01  0.11789E+05
 0.43999996E+01  0.11809E+05
 0.44499998E+01  0.11827E+05
 0.44999995E+01  0.11801E+05
 0.45499997E+01  0.11795E+05
 0.45999994E+01  0.11800E+05
 0.46499996E+01  0.11829E+05
 0.46999998E+01  0.11844E+05
 0.47499995E+01  0.11840E+05
 0.47999997E+01  0.11845E+05
 0.48499994E+01  0.11840E+05
 0.48999996E+01  0.11839E+05
 0.49499998E+01  0.11836E+05
 0.49999995E+01  0.11829E+05
 0.50499997E+01  0.11818E+05
 0.50999994E+01  0.11803E+05
 0.51499996E+01  0.11796E+05
 0.51999998E+01  0.11795E+05
 0.52499995E+01  0.11796E+05
 0.52999997E+01  0.11787E+05
 0.53499994E+01  0.11799E+05
 0.53999996E+01  0.11815E+05
 0.54499993E+01  0.11817E+05
 0.54999995E+01  0.11819E+05
 0.55499997E+01  0.11785E+05
 0.55999994E+01  0.11778E+05
 0.56499996E+01  0.11789E+05
 0.56999993E+01  0.11797E+05
 0.57499995E+01  0.11800E+05
 0.57999997E+01  0.11802E+05
 0.58499994E+01  0.11828E+05
 0.58999996E+01  0.11817E+05
 0.59499993E+01  0.11804E+05
 0.59999995E+01  0.11812E+05
 0.60499992E+01  0.11802E+05
 0.60999994E+01  0.11793E+05
 0.61499996E+01  0.11792E+05
 0.61999998E+01  0.11801E+05
 0.62499990E+01  0.11807E+05
 0.62999992E+01  0.11815E+05
 0.63499994E+01  0.11821E+05
 0.63999996E+01  0.11834E+05
 0.64499998E+01  0.11831E+05
 0.64999990E+01  0.11846E+05
 0.65499992E+01  0.11859E+05
 0.65999994E+01  0.11853E+05
 0.66499996E+01  0.11833E+05
 0.66999998E+01  0.11823E+05
 0.67499990E+01  0.11860E+05
 0.67999992E+01  0.11839E+05
 0.68499994E+01  0.11840E+05
 0.68999996E+01  0.11865E+05
 0.69499998E+01  0.11859E+05
 0.69999990E+01  0.11855E+05
 0.70499992E+01  0.11848E+05
 0.70999994E+01  0.11851E+05
 0.71499996E+01  0.11848E+05
 0.71999998E+01  0.11845E+05
 0.72499990E+01  0.11845E+05
 0.72999992E+01  0.11843E+05
 0.73499994E+01  0.11840E+05
 0.73999996E+01  0.11834E+05
 0.74499998E+01  0.11835E+05
 0.74999990E+01  0.11840E+05
 0.75499992E+01  0.11845E+05
 0.75999994E+01  0.11849E+05
 0.76499996E+01  0.11854E+05
 0.76999998E+01  0.11857E+05
 0.77499990E+01  0.11857E+05
 0.77999992E+01  0.11838E+05
 0.78499994E+01  0.11815E+05
 0.78999996E+01  0.11818E+05
 0.79499998E+01  0.11810E+05
 0.79999990E+01  0.11803E+05
 0.80499992E+01  0.11791E+05
 0.80999994E+01  0.11789E+05
 0.81499996E+01  0.11811E+05
 0.81999998E+01  0.11818E+05
 0.82499990E+01  0.11824E+05
 0.82999992E+01  0.11832E+05
 0.83499994E+01  0.11826E+05
 0.83999996E+01  0.11793E+05
 0.84499998E+01  0.11782E+05
 0.84999990E+01  0.11782E+05
 0.85499992E+01  0.11779E+05
 0.85999994E+01  0.11781E+05
 0.86499996E+01  0.11783E+05
 0.86999998E+01  0.11785E+05
 0.87499990E+01  0.11784E+05
 0.87999992E+01  0.11791E+05
 0.88499994E+01  0.11793E+05
 0.88999996E+01  0.11797E+05
 0.89499998E+01  0.11792E+05
 0.89999990E+01  0.11790E+05
 0.90499992E+01  0.11791E+05
 0.90999994E+01  0.11791E+05
 0.91499996E+01  0.11791E+05
 0.91999989E+01  0.11788E+05
 0.92499990E+01  0.11792E+05
 0.92999992E+01  0.11796E+05
 0.93499994E+01  0.11806E+05
 0.93999996E+01  0.11841E+05
 0.94499989E+01  0.11853E+05
 0.94999990E+01  0.11854E+05
 0.95499992E+01  0.11857E+05
 0.95999994E+01  0.11862E+05
 0.96499996E+01  0.11858E+05
 0.96999989E+01  0.11831E+05
 0.97499990E+01  0.11826E+05
 0.97999992E+01  0.11831E+05
 0.98499994E+01  0.11828E+05
 0.98999996E+01  0.11824E+05
 0.99499989E+01  0.11823E+05
 0.99999990E+01  0.11818E+05
 0.10049999E+02  0.11815E+05
 0.10099999E+02  0.11817E+05
 0.10150000E+02  0.11818E+05
 0.10199999E+02  0.11819E+05
 0.10249999E+02  0.11819E+05
 0.10299999E+02  0.11814E+05
 0.10349999E+02  0.11802E+05
 0.10400000E+02  0.11794E+05
 0.10449999E+02  0.11789E+05
 0.10499999E+02  0.11784E+05
 0.10549999E+02  0.11783E+05
 0.10599999E+02  0.11784E+05
 0.10650000E+02  0.11779E+05
 0.10699999E+02  0.11782E+05
 0.10749999E+02  0.11784E+05
 0.10799999E+02  0.11790E+05
 0.10849999E+02  0.11795E+05
 0.10900000E+02  0.11800E+05
 0.10949999E+02  0.11802E+05
 0.10999999E+02  0.11809E+05
 0.11049999E+02  0.11819E+05
 0.11099999E+02  0.11820E+05
 0.11150000E+02  0.11820E+05
 0.11199999E+02  0.11817E+05
 0.11249999E+02  0.11849E+05
 0.11299999E+02  0.11836E+05
 0.11349999E+02  0.11808E+05
 0.11400000E+02  0.11803E+05
 0.11449999E+02  0.11801E+05
 0.11499999E+02  0.11802E+05
 0.11549999E+02  0.11793E+05
 0.11599999E+02  0.11788E+05
 0.11650000E+02  0.11776E+05
 0.11699999E+02  0.11768E+05
 0.11749999E+02  0.11758E+05
 0.11799999E+02  0.11758E+05
 0.11849999E+02  0.11762E+05
 0.11900000E+02  0.11765E+05
 0.11949999E+02  0.11765E+05
 0.11999999E+02  0.11769E+05
 0.12049999E+02  0.11778E+05
 0.12099999E+02  0.11781E+05
 0.12150000E+02  0.11788E+05
 0.12199999E+02  0.11794E+05
 0.12249999E+02  0.11795E+05
 0.12299999E+02  0.11821E+05
 0.12349999E+02  0.11851E+05
 0.12400000E+02  0.11862E+05
 0.12449999E+02  0.11873E+05
 0.12499999E+02  0.11872E+05
 0.12549999E+02  0.11866E+05
 0.12599999E+02  0.11858E+05
 0.12649999E+02  0.11845E+05
 0.12699999E+02  0.11842E+05
 0.12749999E+02  0.11838E+05
 0.12799999E+02  0.11837E+05
 0.12849999E+02  0.11811E+05
 0.12899999E+02  0.11813E+05
 0.12949999E+02  0.11837E+05
 0.12999999E+02  0.11810E+05
 0.13049999E+02  0.11831E+05
 0.13099999E+02  0.11847E+05
 0.13149999E+02  0.11870E+05
 0.13199999E+02  0.11832E+05
 0.13249999E+02  0.11865E+05
 0.13299999E+02  0.11887E+05
 0.13349999E+02  0.11826E+05
 0.13399999E+02  0.11765E+05
 0.13449999E+02  0.11995E+05
 0.13499999E+02  0.12049E+05
 0.13549999E+02  0.11794E+05
 0.13599999E+02  0.11628E+05
 0.13649999E+02  0.11779E+05
 0.13699999E+02  0.11976E+05
 0.13749999E+02  0.11870E+05
 0.13799999E+02  0.12098E+05
 0.13849999E+02  0.11841E+05
 0.13899999E+02  0.11690E+05
 0.13949999E+02  0.11725E+05
 0.13999999E+02  0.12077E+05
 0.14049999E+02  0.12141E+05
 0.14099998E+02  0.12017E+05
 0.14150000E+02  0.11915E+05
 0.14199999E+02  0.11446E+05
 0.14249998E+02  0.11590E+05
 0.14299999E+02  0.12089E+05
 0.14349998E+02  0.12351E+05
 0.14400000E+02  0.11179E+05
 0.14449999E+02  0.11260E+05
 0.14499998E+02  0.12304E+05
 0.14549999E+02  0.12566E+05
 0.14599998E+02  0.11891E+05
 0.14650000E+02  0.11833E+05
 0.14699999E+02  0.11774E+05
 0.14749998E+02  0.11543E+05
 0.14799999E+02  0.11665E+05
 0.14849998E+02  0.11820E+05
 0.14900000E+02  0.12327E+05
 0.14949999E+02  0.11527E+05
 0.14999998E+02  0.11973E+05
 0.15049999E+02  0.11288E+05
 0.15099998E+02  0.10697E+05
 0.15150000E+02  0.13448E+05
 0.15199999E+02  0.14152E+05
 0.15249998E+02  0.10718E+05
 0.15299999E+02  0.10393E+05
 0.15349998E+02  0.11032E+05
 0.15400000E+02  0.12045E+05
 0.15449999E+02  0.10633E+05
 0.15499998E+02  0.12721E+05
 0.15549999E+02  0.14430E+05
 0.15599998E+02  0.96632E+04
 0.15650000E+02  0.95726E+04
 0.15699999E+02  0.11043E+05
 0.15749998E+02  0.16986E+05
 0.15799999E+02  0.13221E+05
 0.15849998E+02  0.94266E+04
 0.15900000E+02  0.11760E+05
 0.15949999E+02  0.10204E+05
 0.15999998E+02  0.10782E+05
 0.16049999E+02  0.13268E+05
 0.16099998E+02  0.14756E+05
 0.16150000E+02  0.88849E+04
 0.16199999E+02  0.11601E+05
 0.16249998E+02  0.13251E+05
 0.16299999E+02  0.11326E+05
 0.16349998E+02  0.12113E+05
 0.16400000E+02  0.11390E+05
 0.16449999E+02  0.12738E+05
 0.16499998E+02  0.87919E+04
 0.16549999E+02  0.11858E+05
 0.16599998E+02  0.14424E+05
 0.16650000E+02  0.10388E+05
 0.16699999E+02  0.11050E+05
 0.16749998E+02  0.13365E+05
 0.16799999E+02  0.14060E+05
 0.16849998E+02  0.13324E+05
 0.16900000E+02  0.10264E+05
 0.16949999E+02  0.93345E+04
 0.16999998E+02  0.12739E+05
 0.17049999E+02  0.93348E+04
 0.17099998E+02  0.14513E+05
 0.17150000E+02  0.15755E+05
 0.17199999E+02  0.92796E+04
 0.17249998E+02  0.98946E+04
 0.17299999E+02  0.13037E+05
 0.17349998E+02  0.12484E+05
 0.17400000E+02  0.86266E+04
 0.17449999E+02  0.11795E+05
 0.17499998E+02  0.15422E+05
 0.17549999E+02  0.11741E+05
 0.17599998E+02  0.70349E+04
 0.17650000E+02  0.14214E+05
 0.17699999E+02  0.13916E+05
 0.17749998E+02  0.90228E+04
 0.17799999E+02  0.12096E+05
 0.17849998E+02  0.14192E+05
 0.17900000E+02  0.12856E+05
 0.17949999E+02  0.10162E+05
 0.17999998E+02  0.94246E+04
 0.18049999E+02  0.13857E+05
 0.18099998E+02  0.11274E+05
 0.18150000E+02  0.11587E+05
 0.18199999E+02  0.14376E+05
 0.18249998E+02  0.10136E+05
 0.18299999E+02  0.82610E+04
 0.18349998E+02  0.11469E+05
 0.18400000E+02  0.11977E+05
 0.18449999E+02  0.96320E+04
 0.18499998E+02  0.14512E+05
 0.18549999E+02  0.14066E+05
 0.18599998E+02  0.13388E+05
 0.18650000E+02  0.14398E+05
 0.18699999E+02  0.14028E+05
 0.18749998E+02  0.79096E+04
 0.18799999E+02  0.68605E+04
 0.18849998E+02  0.14471E+05
 0.18900000E+02  0.13662E+05
 0.18949999E+02  0.93127E+04
 0.18999998E+02  0.83675E+04
 0.19049999E+02  0.17991E+05
 0.19099998E+02  0.14702E+05
 0.19150000E+02  0.60716E+04
 0.19199999E+02  0.13107E+05
 0.19249998E+02  0.15252E+05
 0.19299999E+02  0.11799E+05
 0.19349998E+02  0.11923E+05
 0.19400000E+02  0.93808E+04
 0.19449999E+02  0.73255E+04
 0.19499998E+02  0.14164E+05
 0.19549999E+02  0.13009E+05
 0.19599998E+02  0.99156E+04
 0.19650000E+02  0.77166E+04
 0.19699999E+02  0.15503E+05
 0.19749998E+02  0.19806E+05
 0.19799999E+02  0.17621E+05
 0.19849998E+02  0.91287E+04
 0.19900000E+02  0.27115E+04
 0.19949999E+02  0.11516E+05
 0.19999998E+02  0.11743E+05
 0.20049999E+02  0.10004E+05
 0.20099998E+02  0.13084E+05
 0.20150000E+02  0.14443E+05
 0.20199999E+02  0.14221E+05
 0.20249998E+02  0.10137E+05
 0.20299999E+02  0.69855E+04
 0.20349998E+02  0.13404E+05
 0.20399998E+02  0.12707E+05
 0.20449999E+02  0.10876E+05
 0.20499998E+02  0.11578E+05
 0.20549999E+02  0.10357E+05
 0.20599998E+02  0.82742E+04
 0.20649998E+02  0.11794E+05
 0.20699999E+02  0.12872E+05
 0.20749998E+02  0.44337E+04
 0.20799999E+02  0.11995E+05
 0.20849998E+02  0.14785E+05
 0.20899998E+02  0.78393E+04
 0.20949999E+02  0.67747E+04
 0.20999998E+02  0.62707E+04
 0.21049999E+02  0.16857E+05
 0.21099998E+02  0.96193E+04
 0.21149998E+02  0.97940E+04
 0.21199999E+02  0.14913E+05
 0.21249998E+02  0.13148E+05
 0.21299999E+02  0.17289E+05
 0.21349998E+02  0.70779E+04
 0.21399998E+02  0.86264E+04
 0.21449999E+02  0.17033E+05
 0.21499998E+02  0.19252E+05
 0.21549999E+02  0.21043E+05
 0.21599998E+02  0.15634E+05
 0.21649998E+02  0.76573E+04
 0.21699999E+02  0.12197E+05
 0.21749998E+02  0.20175E+05
 0.21799999E+02  0.17293E+05
 0.21849998E+02  0.47824E+04
 0.21899998E+02 -0.14410E+05
 0.21949999E+02 -0.14290E+05
 0.21999998E+02  0.19816E+04
 0.22049999E+02  0.17744E+05
 0.22099998E+02  0.33850E+05
 0.22149998E+02  0.25357E+05
 0.22199999E+02  0.76880E+02
 0.22249998E+02  0.14089E+05
 0.22299999E+02  0.95032E+04
 0.22349998E+02 -0.66664E+04
 0.22399998E+02  0.82971E+04
 0.22449999E+02  0.24666E+05
 0.22499998E+02  0.47137E+05
 0.22549999E+02  0.26726E+05
 0.22599998E+02  0.10467E+05
 0.22649998E+02  0.21374E+03
 0.22699999E+02  0.50698E+04
 0.22749998E+02  0.10271E+05
 0.22799999E+02  0.39106E+04
 0.22849998E+02  0.76878E+04
 0.22899998E+02 -0.27008E+04
 0.22949999E+02  0.25183E+05
 0.22999998E+02  0.38266E+05
 0.23049999E+02  0.28810E+05
 0.23099998E+02  0.17279E+04
 0.23149998E+02  0.48321E+04
 0.23199999E+02  0.25165E+05
 0.23249998E+02  0.15452E+05
 0.23299999E+02  0.29240E+05
 0.23349998E+02  0.25116E+04
 0.23399998E+02 -0.18648E+05
 0.23449999E+02 -0.18575E+05
 0.23499998E+02 -0.10318E+04
 0.23549999E+02  0.38948E+05
 0.23599998E+02  0.27654E+05
 0.23649998E+02  0.89969E+04
 0.23699999E+02 -0.20363E+03
 0.23749998E+02 -0.83448E+04
 0.23799999E+02  0.15152E+05
 0.23849998E+02  0.26520E+05
 0.23899998E+02  0.48056E+04
 0.23949999E+02  0.17062E+05
 0.23999998E+02  0.27359E+05
 0.24049999E+02  0.19155E+05
 0.24099998E+02  0.14562E+05
 0.24149998E+02  0.22378E+05
 0.24199999E+02  0.17030E+05
 0.24249998E+02 -0.14934E+05
 0.24299999E+02  0.31936E+04
 0.24349998E+02  0.23616E+05
 0.24399998E+02  0.31090E+05
 0.24449999E+02  0.18610E+05
 0.24499998E+02  0.23808E+05
 0.24549999E+02  0.28029E+05
 0.24599998E+02 -0.21784E+05
 0.24649998E+02 -0.25271E+05
 0.24699999E+02  0.11027E+05
 0.24749998E+02  0.26511E+05
 0.24799999E+02  0.20892E+05
 0.24849998E+02  0.23942E+05
 0.24899998E+02  0.17557E+05
 0.24949999E+02 -0.39099E+04
 0.24999998E+02 -0.10369E+05
 0.25049999E+02  0.54940E+04
 0.25099998E+02  0.43662E+04
 0.25149998E+02 -0.82619E+04
 0.25199999E+02  0.14766E+05
 0.25249998E+02  0.54825E+05
 0.25299999E+02  0.40839E+05
 0.25349998E+02 -0.14098E+05
 0.25399998E+02 -0.16545E+05
 0.25449999E+02 -0.24363E+04
 0.25499998E+02  0.18748E+05
 0.25549999E+02  0.37084E+05
 0.25599998E+02  0.30841E+05
 0.25649998E+02  0.22542E+05
 0.25699999E+02  0.10553E+05
 0.25749998E+02  0.13567E+05
 0.25799999E+02  0.16434E+05
 0.25849998E+02  0.12174E+05
 0.25899998E+02  0.44474E+04
 0.25949999E+02 -0.90821E+03
 0.25999998E+02  0.83744E+04
 0.26049999E+02  0.29333E+05
 0.26099998E+02  0.20038E+05
 0.26149998E+02 -0.52951E+04
 0.26199999E+02 -0.10034E+05
 0.26249998E+02  0.15456E+05
 0.26299999E+02  0.25801E+05
 0.26349998E+02  0.55950E+04
 0.26399998E+02  0.53038E+04
 0.26449999E+02  0.68945E+04
 0.26499998E+02  0.12721E+05
 0.26549999E+02  0.62551E+04
 0.26599998E+02 -0.52185E+04
 0.26649998E+02  0.14833E+05
 0.26699999E+02  0.31006E+05
 0.26749998E+02  0.34763E+05
 0.26799999E+02  0.25978E+05
 0.26849998E+02  0.11202E+05
 0.26899998E+02  0.15366E+05
 0.26949999E+02  0.54217E+04
 0.26999998E+02  0.39656E+04
 0.27049997E+02  0.12749E+05
 0.27099998E+02  0.12030E+04
 0.27149998E+02  0.43672E+04
 0.27199999E+02  0.14646E+05
 0.27249998E+02  0.10989E+05
 0.27299997E+02  0.81960E+04
 0.27349998E+02  0.12092E+05
 0.27399998E+02  0.19205E+05
 0.27449999E+02  0.25318E+05
 0.27499998E+02  0.23710E+05
 0.27549997E+02  0.16635E+05
 0.27599998E+02  0.41761E+04
 0.27649998E+02 -0.56572E+04
 0.27699999E+02 -0.88303E+04
 0.27749998E+02  0.31040E+04
 0.27799997E+02  0.21096E+05
 0.27849998E+02  0.21293E+05
 0.27899998E+02  0.14199E+05
 0.27949999E+02  0.12164E+05
 0.27999998E+02  0.65987E+04
 0.28049997E+02 -0.28951E+04
 0.28099998E+02  0.17078E+04
 0.28149998E+02  0.95621E+04
 0.28199999E+02  0.14686E+05
 0.28249998E+02  0.22506E+05
 0.28299997E+02  0.24999E+05
 0.28349998E+02  0.17751E+05
 0.28399998E+02 -0.28424E+04
 0.28449999E+02  0.46474E+03
 0.28499998E+02  0.12544E+05
 0.28549997E+02  0.17813E+05
 0.28599998E+02  0.25326E+05
 0.28649998E+02  0.21798E+05
 0.28699999E+02  0.12493E+05
 0.28749998E+02  0.26941E+03
 0.28799997E+02  0.16352E+04
 0.28849998E+02  0.62985E+04
 0.28899998E+02  0.12082E+05
 0.28949999E+02  0.13884E+05
 0.28999998E+02  0.11086E+05
 0.29049997E+02  0.13885E+05
 0.29099998E+02  0.15160E+05
 0.29149998E+02  0.12433E+05
 0.29199999E+02  0.13408E+05
 0.29249998E+02  0.20423E+05
 0.29299997E+02  0.12818E+05
 0.29349998E+02  0.51989E+04
 0.29399998E+02  0.55029E+04
 0.29449999E+02  0.10687E+05
 0.29499998E+02  0.13003E+05
 0.29549997E+02  0.11438E+05
 0.29599998E+02  0.10947E+05
 0.29649998E+02  0.52983E+04
 0.29699999E+02  0.97069E+04
 0.29749998E+02  0.20919E+05
 0.29799997E+02  0.32925E+05
 0.29849998E+02  0.27334E+05
 0.29899998E+02  0.89855E+04
 0.29949999E+02 -0.63605E+04
 0.29999998E+02 -0.12548E+04
 0.30049999E+02  0.14237E+05
 0.30099998E+02  0.94070E+04
 0.30149998E+02  0.12303E+05
 0.30199997E+02  0.24906E+05
 0.30249996E+02  0.28620E+05
 0.30299999E+02  0.18652E+05
 0.30349998E+02  0.62666E+04
 0.30399998E+02  0.11102E+05
 0.30449997E+02  0.16014E+05
 0.30499996E+02  0.94935E+04
 0.30549999E+02  0.13852E+05
 0.30599998E+02  0.13506E+05
 0.30649998E+02  0.77358E+04
 0.30699997E+02  0.87659E+04
 0.30749996E+02  0.93831E+04
 0.30799999E+02  0.13750E+05
 0.30849998E+02  0.15625E+05
 0.30899998E+02  0.15155E+05
 0.30949997E+02  0.10639E+05
 0.30999996E+02  0.66198E+04
 0.31049999E+02  0.26048E+04
 0.31099998E+02  0.78213E+04
 0.31149998E+02  0.14709E+05
 0.31199997E+02  0.68420E+04
 0.31249996E+02  0.52204E+04
 0.31299999E+02  0.10966E+05
 0.31349998E+02  0.77462E+04
 0.31399998E+02  0.55558E+04
 0.31449997E+02  0.11046E+05
 0.31499996E+02  0.13029E+05
 0.31549999E+02  0.15120E+05
 0.31599998E+02  0.15171E+05
 0.31649998E+02  0.15317E+05
 0.31699997E+02  0.16277E+05
 0.31749996E+02  0.97161E+04
 0.31799999E+02  0.40514E+04
 0.31849998E+02  0.61535E+04
 0.31899998E+02  0.10996E+05
 0.31949997E+02  0.11637E+05
 0.31999996E+02  0.15129E+05
 0.32049999E+02  0.22111E+05
 0.32099998E+02  0.18840E+05
 0.32149998E+02  0.14116E+05
 0.32199997E+02  0.12699E+05
 0.32249996E+02  0.99127E+04
 0.32299999E+02  0.72626E+04
 0.32349998E+02  0.58799E+04
 0.32399998E+02  0.10339E+05
 0.32449997E+02  0.69523E+04
 0.32499996E+02  0.15872E+04
 0.32549999E+02  0.62417E+04
 0.32599998E+02  0.12003E+05
 0.32649998E+02  0.14144E+05
 0.32699997E+02  0.10854E+05
 0.32749996E+02  0.13616E+05
 0.32799999E+02  0.16813E+05
 0.32849998E+02  0.16152E+05
 0.32899998E+02  0.16294E+05
 0.32949997E+02  0.11891E+05
 0.32999996E+02  0.88637E+04
 0.33049999E+02  0.11082E+05
 0.33099998E+02  0.13174E+05
 0.33149998E+02  0.13503E+05
 0.33199997E+02  0.16982E+05
 0.33249996E+02  0.15082E+05
 0.33299999E+02  0.12153E+05
 0.33349998E+02  0.14908E+05
 0.33399998E+02  0.14555E+05
 0.33449997E+02  0.88241E+04
 0.33499996E+02  0.56304E+04
 0.33549999E+02  0.13099E+05
 0.33599998E+02  0.16586E+05
 0.33649998E+02  0.15253E+05
 0.33699997E+02  0.10433E+05
 0.33749996E+02  0.36431E+04
 0.33799999E+02  0.21455E+04
 0.33849998E+02  0.60353E+04
 0.33899998E+02  0.13433E+05
 0.33949997E+02  0.12391E+05
 0.33999996E+02  0.13851E+05
 0.34049999E+02  0.19598E+05
 0.34099998E+02  0.22828E+05
 0.34149998E+02  0.18139E+05
 0.34199997E+02  0.11154E+05
 0.34249996E+02  0.11240E+05
 0.34299999E+02  0.12956E+05
 0.34349998E+02  0.12813E+05
 0.34399998E+02  0.90740E+04
 0.34449997E+02  0.64751E+04
 0.34499996E+02  0.46708E+04
 0.34549999E+02  0.11576E+05
 0.34599998E+02  0.75845E+04
 0.34649998E+02  0.41816E+04
 0.34699997E+02  0.10230E+05
 0.34749996E+02  0.11151E+05
 0.34799999E+02  0.13983E+05
 0.34849998E+02  0.19385E+05
 0.34899998E+02  0.25595E+05
 0.34949997E+02  0.18488E+05
 0.34999996E+02  0.15910E+05
 0.35049999E+02  0.16537E+05
 0.35099998E+02  0.98697E+04
 0.35149998E+02  0.90529E+04
 0.35199997E+02  0.12569E+05
 0.35249996E+02  0.17746E+05
 0.35299999E+02  0.24320E+05
 0.35349998E+02  0.14860E+05
 0.35399998E+02  0.75401E+04
 0.35449997E+02  0.11979E+05
 0.35499996E+02  0.75643E+04
 0.35549999E+02  0.80910E+04
 0.35599998E+02  0.40455E+04
 0.35649998E+02  0.71016E+03
 0.35699997E+02  0.25373E+03
 0.35749996E+02  0.36859E+04
 0.35799999E+02  0.11203E+05
 0.35849998E+02  0.13533E+05
 0.35899998E+02  0.14695E+05
 0.35949997E+02  0.12850E+05
 0.35999996E+02  0.12479E+05
 0.36049999E+02  0.13619E+05
 0.36099998E+02  0.16467E+05
 0.36149998E+02  0.14134E+05
 0.36199997E+02  0.10657E+05
 0.36249996E+02  0.69316E+04
 0.36299999E+02  0.64369E+04
 0.36349998E+02  0.65203E+04
 0.36399998E+02  0.87714E+04
 0.36449997E+02  0.16666E+05
 0.36499996E+02  0.18062E+05
 0.36549999E+02  0.10742E+05
 0.36599998E+02  0.55406E+04
 0.36649998E+02  0.57886E+04
 0.36699997E+02  0.87147E+04
 0.36749996E+02  0.12703E+05
 0.36799999E+02  0.18232E+05
 0.36849998E+02  0.21580E+05
 0.36899998E+02  0.15823E+05
 0.36949997E+02  0.15561E+05
 0.36999996E+02  0.16422E+05
 0.37049999E+02  0.12377E+05
 0.37099998E+02  0.10076E+05
 0.37149998E+02  0.95112E+04
 0.37199997E+02  0.83588E+04
 0.37249996E+02  0.84518E+04
 0.37299999E+02  0.10293E+05
 0.37349998E+02  0.15727E+05
 0.37399998E+02  0.15004E+05
 0.37449997E+02  0.97928E+04
 0.37499996E+02  0.10543E+05
 0.37549999E+02  0.10459E+05
 0.37599998E+02  0.11160E+05
 0.37649998E+02  0.95796E+04
 0.37699997E+02  0.11205E+05
 0.37749996E+02  0.13112E+05
 0.37799999E+02  0.12631E+05
 0.37849998E+02  0.12687E+05
 0.37899998E+02  0.11782E+05
 0.37949997E+02  0.13620E+05
 0.37999996E+02  0.11310E+05
 0.38049999E+02  0.10916E+05
 0.38099998E+02  0.13498E+05
 0.38149998E+02  0.13599E+05
 0.38199997E+02  0.13831E+05
 0.38249996E+02  0.14709E+05
 0.38299999E+02  0.15591E+05
 0.38349998E+02  0.14462E+05
 0.38399998E+02  0.87108E+04
 0.38449997E+02  0.95352E+04
 0.38499996E+02  0.13225E+05
 0.38549999E+02  0.12079E+05
 0.38599998E+02  0.16049E+05
 0.38649998E+02  0.14007E+05
 0.38699997E+02  0.94112E+04
 0.38749996E+02  0.52200E+04
 0.38799999E+02  0.45501E+04
 0.38849998E+02  0.88422E+04
 0.38899998E+02  0.14050E+05
 0.38949997E+02  0.16085E+05
 0.38999996E+02  0.14172E+05
 0.39049999E+02  0.12925E+05
 0.39099998E+02  0.71249E+04
 0.39149998E+02  0.50709E+04
 0.39199997E+02  0.85973E+04
 0.39249996E+02  0.14168E+05
 0.39299999E+02  0.17736E+05
 0.39349998E+02  0.16532E+05
 0.39399998E+02  0.13655E+05
 0.39449997E+02  0.96942E+04
 0.39499996E+02  0.89248E+04
 0.39549999E+02  0.89593E+04
 0.39599998E+02  0.10275E+05
 0.39649998E+02  0.13299E+05
 0.39699997E+02  0.11223E+05
 0.39749996E+02  0.85692E+04
 0.39799999E+02  0.12177E+05
 0.39849998E+02  0.14978E+05
 0.39899998E+02  0.14601E+05
 0.39949997E+02  0.18857E+05
 0.39999996E+02  0.15335E+05
 0.40049999E+02  0.76358E+04
 0.40099998E+02  0.72448E+04
 0.40149998E+02  0.99927E+04
 0.40199997E+02  0.13083E+05
 0.40249996E+02  0.95472E+04
 0.40299999E+02  0.91044E+04
 0.40349998E+02  0.13401E+05
 0.40399998E+02  0.12826E+05
 0.40449997E+02  0.12990E+05
 0.40499996E+02  0.12702E+05
 0.40549999E+02  0.11929E+05
 0.40599998E+02  0.11187E+05
 0.40649998E+02  0.11315E+05
 0.40699997E+02  0.76929E+04
 0.40749996E+02  0.66621E+04
 0.40799999E+02  0.10042E+05
 0.40849998E+02  0.11348E+05
 0.40899998E+02  0.13924E+05
 0.40949997E+02  0.14263E+05
 0.40999996E+02  0.15884E+05
 0.41049999E+02  0.11851E+05
 0.41099998E+02  0.12623E+05
 0.41149998E+02  0.14600E+05
 0.41199997E+02  0.10370E+05
 0.41249996E+02  0.11513E+05
 0.41299999E+02  0.12020E+05
 0.41349998E+02  0.13661E+05
 0.41399998E+02  0.14858E+05
 0.41449997E+02  0.13902E+05
 0.41499996E+02  0.14417E+05
 0.41549999E+02  0.14146E+05
 0.41599998E+02  0.96607E+04
 0.41649998E+02  0.66412E+04
 0.41699997E+02  0.93845E+04
 0.41749996E+02  0.95638E+04
 0.41799999E+02  0.77842E+04
 0.41849998E+02  0.99755E+04
 0.41899998E+02  0.12235E+05
 0.41949997E+02  0.14390E+05
 0.41999996E+02  0.12490E+05
 0.42049999E+02  0.11389E+05
 0.42099998E+02  0.12957E+05
 0.42149998E+02  0.82872E+04
 0.42199997E+02  0.74312E+04
 0.42249996E+02  0.13296E+05
 0.42299999E+02  0.14891E+05
 0.42349998E+02  0.11137E+05
 0.42399998E+02  0.10152E+05
 0.42449997E+02  0.11448E+05
 0.42499996E+02  0.11581E+05
 0.42549999E+02  0.11797E+05
 0.42599998E+02  0.14028E+05
 0.42649998E+02  0.13591E+05
 0.42699997E+02  0.12467E+05
 0.42749996E+02  0.15335E+05
 0.42799995E+02  0.14882E+05
 0.42849998E+02  0.13315E+05
 0.42899998E+02  0.12675E+05
 0.42949997E+02  0.11931E+05
 0.42999996E+02  0.11548E+05
 0.43049995E+02  0.11219E+05
 0.43099998E+02  0.12812E+05
 0.43149998E+02  0.13225E+05
 0.43199997E+02  0.10459E+05
 0.43249996E+02  0.10011E+05
 0.43299995E+02  0.13911E+05
 0.43349998E+02  0.14578E+05
 0.43399998E+02  0.13503E+05
 0.43449997E+02  0.14139E+05
 0.43499996E+02  0.12570E+05
 0.43549995E+02  0.91873E+04
 0.43599998E+02  0.83207E+04
 0.43649998E+02  0.11549E+05
 0.43699997E+02  0.11705E+05
 0.43749996E+02  0.10313E+05
 0.43799995E+02  0.94148E+04
 0.43849998E+02  0.11080E+05
 0.43899998E+02  0.89391E+04
 0.43949997E+02  0.63552E+04
 0.43999996E+02  0.10453E+05
 0.44049995E+02  0.11211E+05
 0.44099998E+02  0.11473E+05
 0.44149998E+02  0.12242E+05
 0.44199997E+02  0.15230E+05
 0.44249996E+02  0.16219E+05
 0.44299995E+02  0.13951E+05
 0.44349998E+02  0.14399E+05
 0.44399998E+02  0.14191E+05
 0.44449997E+02  0.10752E+05
 0.44499996E+02  0.87342E+04
 0.44549995E+02  0.84375E+04
 0.44599998E+02  0.96307E+04
 0.44649998E+02  0.10494E+05
 0.44699997E+02  0.11911E+05
 0.44749996E+02  0.14440E+05
 0.44799995E+02  0.12447E+05
 0.44849998E+02  0.10228E+05
 0.44899998E+02  0.87993E+04
 0.44949997E+02  0.80117E+04
 0.44999996E+02  0.10363E+05
 0.45049995E+02  0.12762E+05
 0.45099998E+02  0.13024E+05
 0.45149998E+02  0.12724E+05
 0.45199997E+02  0.15313E+05
 0.45249996E+02  0.14575E+05
 0.45299995E+02  0.12180E+05
 0.45349998E+02  0.11639E+05
 0.45399998E+02  0.11088E+05
 0.45449997E+02  0.94783E+04
 0.45499996E+02  0.88774E+04
 0.45549995E+02  0.12599E+05
 0.45599998E+02  0.15063E+05
 0.45649998E+02  0.15327E+05
 0.45699997E+02  0.12680E+05
 0.45749996E+02  0.99800E+04
 0.45799995E+02  0.78411E+04
 0.45849998E+02  0.93427E+04
 0.45899998E+02  0.16014E+05
 0.45949997E+02  0.19999E+05
 0.45999996E+02  0.18708E+05
 0.46049995E+02  0.14751E+05
 0.46099998E+02  0.10031E+05
 0.46149998E+02  0.73829E+04
 0.46199997E+02  0.81540E+04
 0.46249996E+02  0.10925E+05
 0.46299995E+02  0.10470E+05
 0.46349998E+02  0.79475E+04
 0.46399998E+02  0.10273E+05
 0.46449997E+02  0.12467E+05
 0.46499996E+02  0.15782E+05
 0.46549995E+02  0.15554E+05
 0.46599998E+02  0.13420E+05
 0.46649998E+02  0.13033E+05
 0.46699997E+02  0.95429E+04
 0.46749996E+02  0.11406E+05
 0.46799995E+02  0.13256E+05
 0.46849998E+02  0.13225E+05
 0.46899998E+02  0.96766E+04
 0.46949997E+02  0.78618E+04
 0.46999996E+02  0.97778E+04
 0.47049995E+02  0.89316E+04
 0.47099998E+02  0.97605E+04
 0.47149998E+02  0.11920E+05
 0.47199997E+02  0.13324E+05
 0.47249996E+02  0.12810E+05
 0.47299995E+02  0.13564E+05
 0.47349998E+02  0.14454E+05
 0.47399998E+02  0.11651E+05
 0.47449997E+02  0.94954E+04
 0.47499996E+02  0.10573E+05
 0.47549995E+02  0.11631E+05
 0.47599998E+02  0.10924E+05
 0.47649998E+02  0.12283E+05
 0.47699997E+02  0.11596E+05
 0.47749996E+02  0.86148E+04
 0.47799995E+02  0.11495E+05
 0.47849998E+02  0.12821E+05
 0.47899998E+02  0.13329E+05
 0.47949997E+02  0.12897E+05
 0.47999996E+02  0.13184E+05
 0.48049995E+02  0.14104E+05
 0.48099998E+02  0.12971E+05
 0.48149998E+02  0.13565E+05
 0.48199997E+02  0.13373E+05
 0.48249996E+02  0.14236E+05
 0.48299995E+02  0.13589E+05
 0.48349998E+02  0.14074E+05
 0.48399998E+02  0.13017E+05
 0.48449997E+02  0.81217E+04
 0.48499996E+02  0.78316E+04
 0.48549995E+02  0.96985E+04
 0.48599998E+02  0.94779E+04
 0.48649998E+02  0.91689E+04
 0.48699997E+02  0.10093E+05
 0.48749996E+02  0.11125E+05
 0.48799995E+02  0.11247E+05
 0.48849998E+02  0.13054E+05
 0.48899998E+02  0.16487E+05
 0.48949997E+02  0.15030E+05
 0.48999996E+02  0.12596E+05
 0.49049995E+02  0.11560E+05
 0.49099998E+02  0.88203E+04
 0.49149998E+02  0.70484E+04
 0.49199997E+02  0.80333E+04
 0.49249996E+02  0.10226E+05
 0.49299995E+02  0.11577E+05
 0.49349998E+02  0.13542E+05
 0.49399998E+02  0.13932E+05
 0.49449997E+02  0.12923E+05
 0.49499996E+02  0.13207E+05
 0.49549995E+02  0.14453E+05
 0.49599998E+02  0.12606E+05
 0.49649998E+02  0.10063E+05
 0.49699997E+02  0.12445E+05
 0.49749996E+02  0.13408E+05
 0.49799995E+02  0.11466E+05
 0.49849998E+02  0.11543E+05
 0.49899998E+02  0.12420E+05
 0.49949997E+02  0.10110E+05
 0.49999996E+02  0.11304E+05
 0.50049995E+02  0.13230E+05
 0.50099998E+02  0.11788E+05
 0.50149998E+02  0.10686E+05
 0.50199997E+02  0.10322E+05
 0.50249996E+02  0.11051E+05
 0.50299995E+02  0.10954E+05
 0.50349998E+02  0.12420E+05
 0.50399998E+02  0.13044E+05
 0.50449997E+02  0.10618E+05
 0.50499996E+02  0.83583E+04
 0.50549995E+02  0.10067E+05
 0.50599998E+02  0.11522E+05
 0.50649998E+02  0.13650E+05
 0.50699997E+02  0.14047E+05
 0.50749996E+02  0.12525E+05
 0.50799995E+02  0.13379E+05
 0.50849998E+02  0.11659E+05
 0.50899998E+02  0.10128E+05
 0.50949997E+02  0.10694E+05
 0.50999996E+02  0.12869E+05
 0.51049995E+02  0.13129E+05
 0.51099998E+02  0.13527E+05
 0.51149998E+02  0.14626E+05
 0.51199997E+02  0.13701E+05
 0.51249996E+02  0.12293E+05
 0.51299995E+02  0.12723E+05
 0.51349998E+02  0.12825E+05
 0.51399998E+02  0.10826E+05
 0.51449997E+02  0.10605E+05
 0.51499996E+02  0.10382E+05
 0.51549995E+02  0.10230E+05
 0.51599998E+02  0.10205E+05
 0.51649998E+02  0.10452E+05
 0.51699997E+02  0.11825E+05
 0.51749996E+02  0.13076E+05
 0.51799995E+02  0.13589E+05
 0.51849998E+02  0.13301E+05
 0.51899998E+02  0.12888E+05
 0.51949997E+02  0.11414E+05
 0.51999996E+02  0.96735E+04
 0.52049995E+02  0.89844E+04
 0.52099998E+02  0.97451E+04
 0.52149998E+02  0.95908E+04
 0.52199997E+02  0.97501E+04
 0.52249996E+02  0.11287E+05
 0.52299995E+02  0.11939E+05
 0.52349998E+02  0.12928E+05
 0.52399998E+02  0.14010E+05
 0.52449997E+02  0.13952E+05
 0.52499996E+02  0.13259E+05
 0.52549995E+02  0.13035E+05
 0.52599998E+02  0.12266E+05
 0.52649998E+02  0.12501E+05
 0.52699997E+02  0.11497E+05
 0.52749996E+02  0.11317E+05
 0.52799995E+02  0.11140E+05
 0.52849998E+02  0.99424E+04
 0.52899998E+02  0.10877E+05
 0.52949997E+02  0.12422E+05
 0.52999996E+02  0.12737E+05
 0.53049995E+02  0.11227E+05
 0.53099998E+02  0.11926E+05
 0.53149998E+02  0.11945E+05
 0.53199997E+02  0.11273E+05
 0.53249996E+02  0.10954E+05
 0.53299995E+02  0.11416E+05
 0.53349998E+02  0.10953E+05
 0.53399998E+02  0.10662E+05
 0.53449997E+02  0.11916E+05
 0.53499996E+02  0.11693E+05
 0.53549995E+02  0.11746E+05
 0.53599998E+02  0.12630E+05
 0.53649998E+02  0.14214E+05
 0.53699997E+02  0.14773E+05
 0.53749996E+02  0.13348E+05
 0.53799995E+02  0.12002E+05
 0.53849998E+02  0.12204E+05
 0.53899998E+02  0.12207E+05
 0.53949997E+02  0.11986E+05
 0.53999996E+02  0.12678E+05
 0.54049995E+02  0.12771E+05
 0.54099998E+02  0.10568E+05
 0.54149998E+02  0.95176E+04
 0.54199997E+02  0.11768E+05
 0.54249996E+02  0.11238E+05
 0.54299995E+02  0.96419E+04
 0.54349998E+02  0.11460E+05
 0.54399998E+02  0.13259E+05
 0.54449997E+02  0.13187E+05
 0.54499996E+02  0.11922E+05
 0.54549995E+02  0.11472E+05
 0.54599998E+02  0.10754E+05
 0.54649998E+02  0.10571E+05
 0.54699997E+02  0.12136E+05
 0.54749996E+02  0.10339E+05
 0.54799995E+02  0.94366E+04
 0.54849998E+02  0.12343E+05
 0.54899998E+02  0.13150E+05
 0.54949997E+02  0.12965E+05
 0.54999996E+02  0.14442E+05
 0.55049995E+02  0.14777E+05
 0.55099998E+02  0.13043E+05
 0.55149998E+02  0.13175E+05
 0.55199997E+02  0.12535E+05
 0.55249996E+02  0.12011E+05
 0.55299995E+02  0.11552E+05
 0.55349998E+02  0.10679E+05
 0.55399998E+02  0.11137E+05
 0.55449997E+02  0.11012E+05
 0.55499996E+02  0.11025E+05
 0.55549995E+02  0.11762E+05
 0.55599998E+02  0.13919E+05
 0.55649998E+02  0.14002E+05
 0.55699997E+02  0.12818E+05
 0.55749996E+02  0.11566E+05
 0.55799995E+02  0.11026E+05
 0.55849995E+02  0.11381E+05
 0.55899998E+02  0.12347E+05
 0.55949997E+02  0.12788E+05
 0.55999996E+02  0.11388E+05
 0.56049995E+02  0.10856E+05
 0.56099995E+02  0.10659E+05
 0.56149998E+02  0.10511E+05
 0.56199997E+02  0.11640E+05
 0.56249996E+02  0.12694E+05
 0.56299995E+02  0.11805E+05
 0.56349995E+02  0.10564E+05
 0.56399998E+02  0.10383E+05
 0.56449997E+02  0.10068E+05
 0.56499996E+02  0.94724E+04
 0.56549995E+02  0.10732E+05
 0.56599995E+02  0.12263E+05
 0.56649998E+02  0.12744E+05
 0.56699997E+02  0.12526E+05
 0.56749996E+02  0.11355E+05
 0.56799995E+02  0.10880E+05
 0.56849995E+02  0.10691E+05
 0.56899998E+02  0.10822E+05
 0.56949997E+02  0.12298E+05
 0.56999996E+02  0.12029E+05
 0.57049995E+02  0.11664E+05
 0.57099995E+02  0.11550E+05
 0.57149998E+02  0.11207E+05
 0.57199997E+02  0.12268E+05
 0.57249996E+02  0.12685E+05
 0.57299995E+02  0.11697E+05
 0.57349995E+02  0.10891E+05
 0.57399998E+02  0.10978E+05
 0.57449997E+02  0.11256E+05
 0.57499996E+02  0.12231E+05
 0.57549995E+02  0.12151E+05
 0.57599995E+02  0.11816E+05
 0.57649998E+02  0.11766E+05
 0.57699997E+02  0.12665E+05
 0.57749996E+02  0.12063E+05
 0.57799995E+02  0.11011E+05
 0.57849995E+02  0.11258E+05
 0.57899998E+02  0.10936E+05
 0.57949997E+02  0.12312E+05
 0.57999996E+02  0.13477E+05
 0.58049995E+02  0.13097E+05
 0.58099995E+02  0.12237E+05
 0.58149998E+02  0.11906E+05
 0.58199997E+02  0.11665E+05
 0.58249996E+02  0.11483E+05
 0.58299995E+02  0.11719E+05
 0.58349995E+02  0.13224E+05
 0.58399998E+02  0.13011E+05
 0.58449997E+02  0.12477E+05
 0.58499996E+02  0.13132E+05
 0.58549995E+02  0.12025E+05
 0.58599995E+02  0.11546E+05
 0.58649998E+02  0.10964E+05
 0.58699997E+02  0.11077E+05
 0.58749996E+02  0.11788E+05
 0.58799995E+02  0.12253E+05
 0.58849995E+02  0.12700E+05
 0.58899998E+02  0.12741E+05
 0.58949997E+02  0.13695E+05
 0.58999996E+02  0.14171E+05
 0.59049995E+02  0.13716E+05
 0.59099995E+02  0.12037E+05
 0.59149998E+02  0.10380E+05
 0.59199997E+02  0.10017E+05
 0.59249996E+02  0.10305E+05
 0.59299995E+02  0.11042E+05
 0.59349995E+02  0.11281E+05
 0.59399998E+02  0.10916E+05
 0.59449997E+02  0.11388E+05
 0.59499996E+02  0.11719E+05
 0.59549995E+02  0.11157E+05
 0.59599995E+02  0.11647E+05
 0.59649998E+02  0.12411E+05
 0.59699997E+02  0.11815E+05
 0.59749996E+02  0.11301E+05
 0.59799995E+02  0.11448E+05
 0.59849995E+02  0.11900E+05
 0.59899998E+02  0.12311E+05
 0.59949997E+02  0.12266E+05
 0.59999996E+02  0.11802E+05
 0.60049995E+02  0.10607E+05
 0.60099995E+02  0.10602E+05
 0.60149998E+02  0.11612E+05
 0.60199997E+02  0.11512E+05
 0.60249996E+02  0.10837E+05
 0.60299995E+02  0.11235E+05
 0.60349995E+02  0.11703E+05
 0.60399998E+02  0.11831E+05
 0.60449997E+02  0.12450E+05
 0.60499996E+02  0.12420E+05
 0.60549995E+02  0.11908E+05
 0.60599995E+02  0.11941E+05
 0.60649998E+02  0.12869E+05
 0.60699997E+02  0.13521E+05
 0.60749996E+02  0.11929E+05
 0.60799995E+02  0.10407E+05
 0.60849995E+02  0.10296E+05
 0.60899998E+02  0.10729E+05
 0.60949997E+02  0.11018E+05
 0.60999996E+02  0.12007E+05
 0.61049995E+02  0.13630E+05
 0.61099995E+02  0.12688E+05
 0.61149998E+02  0.11562E+05
 0.61199997E+02  0.10689E+05
 0.61249996E+02  0.11099E+05
 0.61299995E+02  0.11858E+05
 0.61349995E+02  0.11773E+05
 0.61399998E+02  0.12124E+05
 0.61449997E+02  0.12266E+05
 0.61499996E+02  0.12316E+05
 0.61549995E+02  0.12319E+05
 0.61599995E+02  0.12537E+05
 0.61649998E+02  0.12370E+05
 0.61699997E+02  0.12761E+05
 0.61749996E+02  0.12308E+05
 0.61799995E+02  0.12604E+05
 0.61849995E+02  0.13423E+05
 0.61899998E+02  0.13303E+05
 0.61949997E+02  0.13283E+05
 0.61999996E+02  0.12453E+05
 0.62049995E+02  0.11260E+05
 0.62099998E+02  0.10937E+05
 0.62149994E+02  0.11328E+05
 0.62199997E+02  0.11458E+05
 0.62249992E+02  0.10696E+05
 0.62299995E+02  0.10029E+05
 0.62349998E+02  0.99623E+04
 0.62399994E+02  0.97489E+04
 0.62449997E+02  0.99782E+04
 0.62499992E+02  0.10305E+05
 0.62549995E+02  0.11180E+05
 0.62599998E+02  0.12071E+05
 0.62649994E+02  0.12682E+05
 0.62699997E+02  0.12523E+05
 0.62749992E+02  0.11730E+05
 0.62799995E+02  0.11784E+05
 0.62849998E+02  0.11312E+05
 0.62899994E+02  0.11555E+05
 0.62949997E+02  0.11620E+05
 0.62999992E+02  0.11996E+05
 0.63049995E+02  0.13444E+05
 0.63099998E+02  0.13520E+05
 0.63149994E+02  0.12886E+05
 0.63199997E+02  0.12573E+05
 0.63249992E+02  0.12853E+05
 0.63299995E+02  0.13123E+05
 0.63349998E+02  0.13392E+05
 0.63399994E+02  0.13271E+05
 0.63449997E+02  0.12120E+05
 0.63499992E+02  0.11134E+05
 0.63549995E+02  0.10727E+05
 0.63599998E+02  0.10216E+05
 0.63649994E+02  0.10597E+05
 0.63699997E+02  0.11492E+05
 0.63749992E+02  0.11812E+05
 0.63799995E+02  0.11545E+05
 0.63849998E+02  0.11731E+05
 0.63899994E+02  0.12121E+05
 0.63949997E+02  0.12285E+05
 0.63999992E+02  0.11789E+05
 0.64049995E+02  0.11137E+05
 0.64099998E+02  0.10786E+05
 0.64149994E+02  0.10281E+05
 0.64199997E+02  0.11079E+05
 0.64249992E+02  0.11841E+05
 0.64299995E+02  0.12379E+05
 0.64349998E+02  0.12632E+05
 0.64399994E+02  0.12910E+05
 0.64449997E+02  0.13371E+05
 0.64499992E+02  0.12625E+05
 0.64549995E+02  0.12115E+05
 0.64599998E+02  0.11590E+05
 0.64649994E+02  0.11507E+05
 0.64699997E+02  0.11613E+05
 0.64749992E+02  0.11756E+05
 0.64799995E+02  0.12097E+05
 0.64849998E+02  0.12346E+05
 0.64899994E+02  0.12202E+05
 0.64949997E+02  0.11068E+05
 0.64999992E+02  0.11083E+05
 0.65049995E+02  0.11038E+05
 0.65099998E+02  0.10632E+05
 0.65149994E+02  0.10664E+05
 0.65199997E+02  0.10647E+05
 0.65249992E+02  0.10821E+05
 0.65299995E+02  0.11027E+05
 0.65349998E+02  0.11944E+05
 0.65399994E+02  0.12600E+05
 0.65449997E+02  0.12276E+05
 0.65499992E+02  0.12092E+05
 0.65549995E+02  0.12409E+05
 0.65599998E+02  0.11997E+05
 0.65649994E+02  0.11280E+05
 0.65699997E+02  0.11557E+05
 0.65749992E+02  0.11710E+05
 0.65799995E+02  0.11262E+05
 0.65849998E+02  0.11398E+05
 0.65899994E+02  0.12467E+05
 0.65949997E+02  0.12832E+05
 0.65999992E+02  0.12758E+05
 0.66049995E+02  0.12980E+05
 0.66099998E+02  0.12845E+05
 0.66149994E+02  0.11871E+05
 0.66199997E+02  0.11343E+05
 0.66249992E+02  0.11623E+05
 0.66299995E+02  0.11845E+05
 0.66349998E+02  0.11895E+05
 0.66399994E+02  0.12059E+05
 0.66449997E+02  0.12105E+05
 0.66499992E+02  0.11926E+05
 0.66549995E+02  0.11993E+05
 0.66599998E+02  0.11483E+05
 0.66649994E+02  0.11326E+05
 0.66699997E+02  0.11777E+05
 0.66749992E+02  0.12349E+05
 0.66799995E+02  0.12670E+05
 0.66849998E+02  0.12913E+05
 0.66899994E+02  0.13003E+05
 0.66949997E+02  0.12327E+05
 0.66999992E+02  0.11594E+05
 0.67049995E+02  0.11380E+05
 0.67099998E+02  0.11150E+05
 0.67149994E+02  0.11135E+05
 0.67199997E+02  0.11852E+05
 0.67249992E+02  0.12046E+05
 0.67299995E+02  0.11638E+05
 0.67349998E+02  0.11339E+05
 0.67399994E+02  0.11047E+05
 0.67449997E+02  0.11230E+05
 0.67499992E+02  0.11221E+05
 0.67549995E+02  0.11137E+05
 0.67599998E+02  0.11886E+05
 0.67649994E+02  0.12497E+05
 0.67699997E+02  0.12857E+05
 0.67749992E+02  0.12559E+05
 0.67799995E+02  0.12084E+05
 0.67849998E+02  0.12079E+05
 0.67899994E+02  0.11882E+05
 0.67949997E+02  0.11670E+05
 0.67999992E+02  0.11532E+05
 0.68049995E+02  0.11377E+05
 0.68099998E+02  0.11144E+05
 0.68149994E+02  0.11128E+05
 0.68199997E+02  0.11683E+05
 0.68249992E+02  0.12068E+05
 0.68299995E+02  0.12051E+05
 0.68349998E+02  0.11640E+05
 0.68399994E+02  0.11350E+05
 0.68449997E+02  0.11429E+05
 0.68499992E+02  0.11854E+05
 0.68549995E+02  0.12587E+05
 0.68599998E+02  0.12693E+05
 0.68649994E+02  0.12860E+05
 0.68699997E+02  0.12166E+05
 0.68749992E+02  0.11160E+05
 0.68799995E+02  0.10721E+05
 0.68849998E+02  0.10584E+05
 0.68899994E+02  0.10561E+05
 0.68949997E+02  0.10676E+05
 0.68999992E+02  0.11434E+05
 0.69049995E+02  0.12018E+05
 0.69099998E+02  0.12671E+05
 0.69149994E+02  0.13063E+05
 0.69199997E+02  0.12917E+05
 0.69249992E+02  0.12611E+05
 0.69299995E+02  0.12592E+05
 0.69349998E+02  0.12486E+05
 0.69399994E+02  0.12247E+05
 0.69449997E+02  0.11782E+05
 0.69499992E+02  0.11398E+05
 0.69549995E+02  0.11868E+05
 0.69599998E+02  0.12038E+05
 0.69649994E+02  0.11809E+05
 0.69699997E+02  0.11762E+05
 0.69749992E+02  0.11256E+05
 0.69799995E+02  0.10821E+05
 0.69849998E+02  0.10841E+05
 0.69899994E+02  0.10907E+05
 0.69949997E+02  0.11320E+05
 0.69999992E+02  0.11639E+05
 0.70049995E+02  0.11757E+05
 0.70099998E+02  0.11727E+05
 0.70149994E+02  0.11429E+05
 0.70199997E+02  0.11292E+05
 0.70249992E+02  0.11633E+05
 0.70299995E+02  0.12183E+05
 0.70349998E+02  0.12352E+05
 0.70399994E+02  0.12185E+05
 0.70449997E+02  0.12021E+05
 0.70499992E+02  0.11940E+05
 0.70549995E+02  0.11741E+05
 0.70599998E+02  0.11554E+05
 0.70649994E+02  0.11535E+05
 0.70699997E+02  0.11831E+05
 0.70749992E+02  0.11933E+05
 0.70799995E+02  0.11848E+05
 0.70849998E+02  0.11911E+05
 0.70899994E+02  0.12067E+05
 0.70949997E+02  0.12447E+05
 0.70999992E+02  0.12503E+05
 0.71049995E+02  0.12382E+05
 0.71099998E+02  0.12187E+05
 0.71149994E+02  0.12192E+05
 0.71199997E+02  0.12028E+05
 0.71249992E+02  0.11402E+05
 0.71299995E+02  0.11219E+05
 0.71349998E+02  0.11599E+05
 0.71399994E+02  0.11917E+05
 0.71449997E+02  0.11790E+05
 0.71499992E+02  0.11605E+05
 0.71549995E+02  0.11407E+05
 0.71599998E+02  0.11069E+05
 0.71649994E+02  0.11415E+05
 0.71699997E+02  0.12143E+05
 0.71749992E+02  0.11990E+05
 0.71799995E+02  0.11623E+05
 0.71849998E+02  0.11428E+05
 0.71899994E+02  0.11140E+05
 0.71949997E+02  0.10988E+05
 0.71999992E+02  0.11081E+05
 0.72049995E+02  0.11541E+05
 0.72099998E+02  0.12072E+05
 0.72149994E+02  0.11888E+05
 0.72199997E+02  0.11992E+05
 0.72249992E+02  0.12540E+05
 0.72299995E+02  0.12632E+05
 0.72349998E+02  0.12051E+05
 0.72399994E+02  0.11670E+05
 0.72449997E+02  0.11491E+05
 0.72499992E+02  0.11199E+05
 0.72549995E+02  0.12050E+05
 0.72599998E+02  0.12559E+05
 0.72649994E+02  0.12660E+05
 0.72699997E+02  0.12723E+05
 0.72749992E+02  0.12456E+05
 0.72799995E+02  0.12124E+05
 0.72849998E+02  0.11598E+05
 0.72899994E+02  0.11603E+05
 0.72949997E+02  0.11654E+05
 0.72999992E+02  0.11656E+05
 0.73049995E+02  0.11994E+05
 0.73099998E+02  0.12326E+05
 0.73149994E+02  0.12603E+05
 0.73199997E+02  0.12329E+05
 0.73249992E+02  0.11688E+05
 0.73299995E+02  0.11155E+05
 0.73349998E+02  0.10845E+05
 0.73399994E+02  0.10758E+05
 0.73449997E+02  0.11129E+05
 0.73499992E+02  0.11912E+05
 0.73549995E+02  0.12200E+05
 0.73599998E+02  0.12238E+05
 0.73649994E+02  0.12269E+05
 0.73699997E+02  0.11585E+05
 0.73749992E+02  0.10912E+05
 0.73799995E+02  0.11164E+05
 0.73849998E+02  0.11877E+05
 0.73899994E+02  0.12267E+05
 0.73949997E+02  0.12233E+05
 0.73999992E+02  0.12320E+05
 0.74049995E+02  0.12013E+05
 0.74099998E+02  0.11721E+05
 0.74149994E+02  0.12002E+05
 0.74199997E+02  0.11991E+05
 0.74249992E+02  0.12025E+05
 0.74299995E+02  0.12380E+05
 0.74349998E+02  0.12284E+05
 0.74399994E+02  0.11809E+05
 0.74449997E+02  0.11378E+05
 0.74499992E+02  0.11230E+05
 0.74549995E+02  0.11640E+05
 0.74599998E+02  0.12112E+05
 0.74649994E+02  0.12227E+05
 0.74699997E+02  0.12041E+05
 0.74749992E+02  0.12117E+05
 0.74799995E+02  0.12314E+05
 0.74849998E+02  0.12265E+05
 0.74899994E+02  0.12386E+05
 0.74949997E+02  0.12072E+05
 0.74999992E+02  0.11603E+05
 0.75049995E+02  0.11452E+05
 0.75099998E+02  0.11343E+05
 0.75149994E+02  0.11309E+05
 0.75199997E+02  0.11605E+05
 0.75249992E+02  0.12181E+05
 0.75299995E+02  0.12197E+05
 0.75349998E+02  0.11951E+05
 0.75399994E+02  0.11675E+05
 0.75449997E+02  0.11654E+05
 0.75499992E+02  0.11867E+05
 0.75549995E+02  0.11789E+05
 0.75599998E+02  0.11481E+05
 0.75649994E+02  0.11397E+05
 0.75699997E+02  0.12008E+05
 0.75749992E+02  0.12537E+05
 0.75799995E+02  0.12462E+05
 0.75849998E+02  0.12099E+05
 0.75899994E+02  0.11734E+05
 0.75949997E+02  0.11394E+05
 0.75999992E+02  0.11411E+05
 0.76049995E+02  0.11485E+05
 0.76099998E+02  0.11378E+05
 0.76149994E+02  0.11166E+05
 0.76199997E+02  0.11121E+05
 0.76249992E+02  0.11425E+05
 0.76299995E+02  0.11673E+05
 0.76349998E+02  0.11980E+05
 0.76399994E+02  0.12041E+05
 0.76449997E+02  0.12028E+05
 0.76499992E+02  0.12008E+05
 0.76549995E+02  0.11907E+05
 0.76599998E+02  0.11688E+05
 0.76649994E+02  0.11310E+05
 0.76699997E+02  0.11161E+05
 0.76749992E+02  0.11229E+05
 0.76799995E+02  0.11452E+05
 0.76849998E+02  0.11911E+05
 0.76899994E+02  0.12524E+05
 0.76949997E+02  0.12808E+05
 0.76999992E+02  0.12692E+05
 0.77049995E+02  0.12485E+05
 0.77099998E+02  0.12454E+05
 0.77149994E+02  0.12457E+05
 0.77199997E+02  0.12046E+05
 0.77249992E+02  0.11515E+05
 0.77299995E+02  0.11326E+05
 0.77349998E+02  0.11228E+05
 0.77399994E+02  0.11291E+05
 0.77449997E+02  0.11258E+05
 0.77499992E+02  0.11446E+05
 0.77549995E+02  0.11850E+05
 0.77599998E+02  0.12034E+05
 0.77649994E+02  0.12245E+05
 0.77699997E+02  0.12129E+05
 0.77749992E+02  0.11624E+05
 0.77799995E+02  0.10993E+05
 0.77849998E+02  0.11023E+05
 0.77899994E+02  0.11635E+05
 0.77949997E+02  0.12048E+05
 0.77999992E+02  0.12209E+05
 0.78049995E+02  0.12245E+05
 0.78099998E+02  0.11851E+05
 0.78149994E+02  0.11569E+05
 0.78199997E+02  0.11813E+05
 0.78249992E+02  0.11885E+05
 0.78299995E+02  0.11905E+05
 0.78349998E+02  0.12051E+05
 0.78399994E+02  0.12220E+05
 0.78449997E+02  0.12255E+05
 0.78499992E+02  0.12120E+05
 0.78549995E+02  0.11901E+05
 0.78599998E+02  0.11610E+05
 0.78649994E+02  0.11439E+05
 0.78699997E+02  0.11505E+05
 0.78749992E+02  0.12037E+05
 0.78799995E+02  0.12552E+05
 0.78849998E+02  0.12433E+05
 0.78899994E+02  0.12209E+05
 0.78949997E+02  0.11908E+05
 0.78999992E+02  0.11478E+05
 0.79049995E+02  0.11429E+05
 0.79099998E+02  0.11882E+05
 0.79149994E+02  0.12245E+05
 0.79199997E+02  0.12056E+05
 0.79249992E+02  0.11707E+05
 0.79299995E+02  0.11570E+05
 0.79349998E+02  0.11404E+05
 0.79399994E+02  0.11272E+05
 0.79449997E+02  0.11216E+05
 0.79499992E+02  0.11088E+05
 0.79549995E+02  0.11324E+05
 0.79599998E+02  0.11624E+05
 0.79649994E+02  0.11871E+05
 0.79699997E+02  0.12284E+05
 0.79749992E+02  0.12373E+05
 0.79799995E+02  0.12525E+05
 0.79849998E+02  0.12700E+05
 0.79899994E+02  0.12283E+05
 0.79949997E+02  0.11530E+05
 0.79999992E+02  0.11195E+05
 0.80049995E+02  0.11405E+05
 0.80099998E+02  0.11761E+05
 0.80149994E+02  0.12193E+05
 0.80199997E+02  0.12114E+05
 0.80249992E+02  0.11608E+05
 0.80299995E+02  0.11481E+05
 0.80349998E+02  0.11823E+05
 0.80399994E+02  0.12028E+05
 0.80449997E+02  0.12097E+05
 0.80499992E+02  0.12112E+05
 0.80549995E+02  0.11721E+05
 0.80599998E+02  0.11313E+05
 0.80649994E+02  0.11028E+05
 0.80699997E+02  0.11087E+05
 0.80749992E+02  0.11627E+05
 0.80799995E+02  0.12029E+05
 0.80849998E+02  0.12175E+05
 0.80899994E+02  0.12116E+05
 0.80949997E+02  0.11885E+05
 0.80999992E+02  0.11914E+05
 0.81049995E+02  0.12175E+05
 0.81099998E+02  0.12298E+05
 0.81149994E+02  0.12379E+05
 0.81199997E+02  0.12329E+05
 0.81249992E+02  0.12073E+05
 0.81299995E+02  0.12114E+05
 0.81349998E+02  0.12236E+05
 0.81399994E+02  0.12085E+05
 0.81449997E+02  0.12033E+05
 0.81499992E+02  0.12049E+05
 0.81549995E+02  0.11766E+05
 0.81599998E+02  0.11526E+05
 0.81649994E+02  0.11729E+05
 0.81699997E+02  0.12057E+05
 0.81749992E+02  0.11951E+05
 0.81799995E+02  0.11398E+05
 0.81849998E+02  0.11012E+05
 0.81899994E+02  0.10768E+05
 0.81949997E+02  0.10789E+05
 0.81999992E+02  0.10967E+05
 0.82049995E+02  0.11311E+05
 0.82099998E+02  0.11764E+05
 0.82149994E+02  0.11953E+05
 0.82199997E+02  0.12074E+05
 0.82249992E+02  0.12045E+05
 0.82299995E+02  0.11933E+05
 0.82349998E+02  0.11790E+05
 0.82399994E+02  0.11917E+05
 0.82449997E+02  0.12350E+05
 0.82499992E+02  0.12411E+05
 0.82549995E+02  0.12174E+05
 0.82599998E+02  0.12233E+05
 0.82649994E+02  0.12285E+05
 0.82699997E+02  0.12117E+05
 0.82749992E+02  0.11812E+05
 0.82799995E+02  0.11597E+05
 0.82849998E+02  0.11418E+05
 0.82899994E+02  0.11397E+05
 0.82949997E+02  0.11601E+05
 0.82999992E+02  0.11845E+05
 0.83049995E+02  0.12015E+05
 0.83099998E+02  0.11864E+05
 0.83149994E+02  0.11591E+05
 0.83199997E+02  0.11324E+05
 0.83249992E+02  0.11468E+05
 0.83299995E+02  0.11866E+05
 0.83349998E+02  0.12082E+05
 0.83399994E+02  0.12054E+05
 0.83449997E+02  0.11983E+05
 0.83499992E+02  0.11829E+05
 0.83549995E+02  0.11940E+05
 0.83599998E+02  0.12310E+05
 0.83649994E+02  0.12080E+05
 0.83699997E+02  0.11460E+05
 0.83749992E+02  0.11022E+05
 0.83799995E+02  0.11073E+05
 0.83849998E+02  0.11253E+05
 0.83899994E+02  0.11409E+05
 0.83949997E+02  0.11775E+05
 0.83999992E+02  0.12183E+05
 0.84049995E+02  0.12370E+05
 0.84099998E+02  0.12421E+05
 0.84149994E+02  0.12315E+05
 0.84199997E+02  0.11792E+05
 0.84249992E+02  0.11436E+05
 0.84299995E+02  0.11471E+05
 0.84349998E+02  0.11808E+05
 0.84399994E+02  0.12044E+05
 0.84449997E+02  0.12097E+05
 0.84499992E+02  0.12414E+05
 0.84549995E+02  0.12403E+05
 0.84599998E+02  0.12140E+05
 0.84649994E+02  0.12113E+05
 0.84699997E+02  0.12107E+05
 0.84749992E+02  0.12078E+05
 0.84799995E+02  0.12182E+05
 0.84849998E+02  0.12337E+05
 0.84899994E+02  0.12211E+05
 0.84949997E+02  0.11639E+05
 0.84999992E+02  0.11226E+05
 0.85049995E+02  0.11186E+05
 0.85099998E+02  0.11272E+05
 0.85149994E+02  0.11562E+05
 0.85199997E+02  0.11760E+05
 0.85249992E+02  0.11546E+05
 0.85299995E+02  0.11264E+05
 0.85349998E+02  0.11117E+05
 0.85399994E+02  0.11256E+05
 0.85449997E+02  0.11488E+05
 0.85499992E+02  0.11564E+05
 0.85549995E+02  0.11641E+05
 0.85599998E+02  0.11608E+05
 0.85649994E+02  0.11445E+05
 0.85699997E+02  0.11672E+05
 0.85749992E+02  0.12245E+05
 0.85799995E+02  0.12459E+05
 0.85849998E+02  0.12402E+05
 0.85899994E+02  0.12214E+05
 0.85949997E+02  0.12074E+05
 0.85999992E+02  0.11933E+05
 0.86049995E+02  0.11672E+05
 0.86099998E+02  0.11639E+05
 0.86149994E+02  0.11898E+05
 0.86199997E+02  0.12042E+05
 0.86249992E+02  0.12113E+05
 0.86299995E+02  0.12160E+05
 0.86349998E+02  0.12218E+05
 0.86399994E+02  0.12060E+05
 0.86449997E+02  0.11827E+05
 0.86499992E+02  0.11731E+05
 0.86549995E+02  0.11524E+05
 0.86599998E+02  0.11493E+05
 0.86649994E+02  0.11660E+05
 0.86699997E+02  0.12010E+05
 0.86749992E+02  0.12092E+05
 0.86799995E+02  0.11849E+05
 0.86849998E+02  0.11598E+05
 0.86899994E+02  0.11366E+05
 0.86949997E+02  0.11201E+05
 0.86999992E+02  0.11069E+05
 0.87049995E+02  0.11129E+05
 0.87099998E+02  0.11227E+05
 0.87149994E+02  0.11392E+05
 0.87199997E+02  0.11774E+05
 0.87249992E+02  0.11866E+05
 0.87299995E+02  0.11847E+05
 0.87349998E+02  0.12041E+05
 0.87399994E+02  0.12212E+05
 0.87449997E+02  0.12250E+05
 0.87499992E+02  0.12284E+05
 0.87549995E+02  0.12340E+05
 0.87599991E+02  0.12245E+05
 0.87649994E+02  0.12261E+05
 0.87699997E+02  0.12213E+05
 0.87749992E+02  0.11985E+05
 0.87799995E+02  0.11984E+05
 0.87849991E+02  0.12108E+05
 0.87899994E+02  0.12138E+05
 0.87949997E+02  0.12089E+05
 0.87999992E+02  0.12120E+05
 0.88049995E+02  0.12140E+05
 0.88099991E+02  0.12079E+05
 0.88149994E+02  0.11795E+05
 0.88199997E+02  0.11375E+05
 0.88249992E+02  0.11108E+05
 0.88299995E+02  0.11065E+05
 0.88349991E+02  0.11330E+05
 0.88399994E+02  0.11734E+05
 0.88449997E+02  0.12071E+05
 0.88499992E+02  0.12120E+05
 0.88549995E+02  0.11805E+05
 0.88599991E+02  0.11490E+05
 0.88649994E+02  0.11544E+05
 0.88699997E+02  0.11570E+05
 0.88749992E+02  0.11538E+05
 0.88799995E+02  0.11387E+05
 0.88849991E+02  0.11239E+05
 0.88899994E+02  0.11494E+05
 0.88949997E+02  0.11809E+05
 0.88999992E+02  0.12117E+05
 0.89049995E+02  0.12360E+05
 0.89099991E+02  0.12353E+05
 0.89149994E+02  0.12152E+05
 0.89199997E+02  0.11927E+05
 0.89249992E+02  0.11810E+05
 0.89299995E+02  0.11919E+05
 0.89349991E+02  0.12185E+05
 0.89399994E+02  0.12297E+05
 0.89449997E+02  0.12015E+05
 0.89499992E+02  0.11673E+05
 0.89549995E+02  0.11696E+05
 0.89599991E+02  0.11930E+05
 0.89649994E+02  0.11941E+05
 0.89699997E+02  0.11860E+05
 0.89749992E+02  0.11926E+05
 0.89799995E+02  0.11899E+05
 0.89849991E+02  0.11919E+05
 0.89899994E+02  0.12020E+05
 0.89949997E+02  0.12311E+05
 0.89999992E+02  0.12642E+05
 0.90049995E+02  0.12533E+05
 0.90099991E+02  0.12059E+05
 0.90149994E+02  0.11323E+05
 0.90199997E+02  0.10744E+05
 0.90249992E+02  0.10578E+05
 0.90299995E+02  0.10793E+05
 0.90349991E+02  0.11331E+05
 0.90399994E+02  0.11658E+05
 0.90449997E+02  0.11742E+05
 0.90499992E+02  0.11776E+05
 0.90549995E+02  0.11691E+05
 0.90599991E+02  0.11663E+05
 0.90649994E+02  0.11729E+05
 0.90699997E+02  0.11782E+05
 0.90749992E+02  0.11880E+05
 0.90799995E+02  0.11926E+05
 0.90849991E+02  0.11880E+05
 0.90899994E+02  0.11986E+05
 0.90949997E+02  0.12190E+05
 0.90999992E+02  0.12336E+05
 0.91049995E+02  0.12245E+05
 0.91099991E+02  0.11916E+05
 0.91149994E+02  0.11732E+05
 0.91199997E+02  0.11886E+05
 0.91249992E+02  0.12154E+05
 0.91299995E+02  0.12218E+05
 0.91349991E+02  0.12200E+05
 0.91399994E+02  0.12024E+05
 0.91449997E+02  0.11657E+05
 0.91499992E+02  0.11428E+05
 0.91549995E+02  0.11291E+05
 0.91599991E+02  0.11346E+05
 0.91649994E+02  0.11493E+05
 0.91699997E+02  0.11734E+05
 0.91749992E+02  0.11914E+05
 0.91799995E+02  0.11889E+05
 0.91849991E+02  0.11898E+05
 0.91899994E+02  0.11883E+05
 0.91949997E+02  0.11729E+05
 0.91999992E+02  0.11457E+05
 0.92049995E+02  0.11413E+05
 0.92099991E+02  0.11713E+05
 0.92149994E+02  0.11994E+05
 0.92199997E+02  0.12056E+05
 0.92249992E+02  0.12018E+05
 0.92299995E+02  0.11869E+05
 0.92349991E+02  0.11697E+05
 0.92399994E+02  0.11530E+05
 0.92449997E+02  0.11364E+05
 0.92499992E+02  0.11391E+05
 0.92549995E+02  0.11787E+05
 0.92599991E+02  0.12104E+05
 0.92649994E+02  0.12137E+05
 0.92699997E+02  0.12178E+05
 0.92749992E+02  0.12207E+05
 0.92799995E+02  0.12143E+05
 0.92849991E+02  0.12244E+05
 0.92899994E+02  0.12252E+05
 0.92949997E+02  0.11897E+05
 0.92999992E+02  0.11912E+05
 0.93049995E+02  0.12049E+05
 0.93099991E+02  0.12131E+05
 0.93149994E+02  0.12268E+05
 0.93199997E+02  0.12263E+05
 0.93249992E+02  0.12097E+05
 0.93299995E+02  0.11665E+05
 0.93349991E+02  0.11200E+05
 0.93399994E+02  0.10878E+05
 0.93449997E+02  0.10862E+05
 0.93499992E+02  0.11342E+05
 0.93549995E+02  0.11767E+05
 0.93599991E+02  0.11903E+05
 0.93649994E+02  0.11937E+05
 0.93699997E+02  0.11853E+05
 0.93749992E+02  0.11796E+05
 0.93799995E+02  0.11809E+05
 0.93849991E+02  0.11958E+05
 0.93899994E+02  0.12065E+05
 0.93949997E+02  0.12049E+05
 0.93999992E+02  0.11949E+05
 0.94049995E+02  0.11890E+05
 0.94099991E+02  0.11842E+05
 0.94149994E+02  0.11689E+05
 0.94199997E+02  0.11499E+05
 0.94249992E+02  0.11382E+05
 0.94299995E+02  0.11447E+05
 0.94349991E+02  0.11613E+05
 0.94399994E+02  0.11796E+05
 0.94449997E+02  0.11889E+05
 0.94499992E+02  0.12084E+05
 0.94549995E+02  0.12326E+05
 0.94599991E+02  0.12366E+05
 0.94649994E+02  0.12176E+05
 0.94699997E+02  0.11935E+05
 0.94749992E+02  0.11853E+05
 0.94799995E+02  0.11833E+05
 0.94849991E+02  0.11988E+05
 0.94899994E+02  0.12134E+05
 0.94949997E+02  0.12085E+05
 0.94999992E+02  0.11847E+05
 0.95049995E+02  0.11508E+05
 0.95099991E+02  0.11480E+05
 0.95149994E+02  0.11700E+05
 0.95199997E+02  0.11861E+05
 0.95249992E+02  0.11842E+05
 0.95299995E+02  0.11789E+05
 0.95349991E+02  0.11751E+05
 0.95399994E+02  0.11843E+05
 0.95449997E+02  0.12033E+05
 0.95499992E+02  0.12027E+05
 0.95549995E+02  0.11940E+05
 0.95599991E+02  0.11769E+05
 0.95649994E+02  0.11515E+05
 0.95699997E+02  0.11411E+05
 0.95749992E+02  0.11580E+05
 0.95799995E+02  0.11878E+05
 0.95849991E+02  0.11887E+05
 0.95899994E+02  0.11628E+05
 0.95949997E+02  0.11412E+05
 0.95999992E+02  0.11272E+05
 0.96049995E+02  0.11226E+05
 0.96099991E+02  0.11302E+05
 0.96149994E+02  0.11512E+05
 0.96199997E+02  0.11800E+05
 0.96249992E+02  0.11950E+05
 0.96299995E+02  0.11949E+05
 0.96349991E+02  0.11946E+05
 0.96399994E+02  0.12088E+05
 0.96449997E+02  0.12321E+05
 0.96499992E+02  0.12416E+05
 0.96549995E+02  0.12359E+05
 0.96599991E+02  0.12122E+05
 0.96649994E+02  0.11844E+05
 0.96699997E+02  0.11647E+05
 0.96749992E+02  0.11469E+05
 0.96799995E+02  0.11456E+05
 0.96849991E+02  0.11586E+05
 0.96899994E+02  0.11600E+05
 0.96949997E+02  0.11570E+05
 0.96999992E+02  0.11614E+05
 0.97049995E+02  0.11637E+05
 0.97099991E+02  0.11608E+05
 0.97149994E+02  0.11845E+05
 0.97199997E+02  0.12170E+05
 0.97249992E+02  0.12248E+05
 0.97299995E+02  0.12171E+05
 0.97349991E+02  0.11929E+05
 0.97399994E+02  0.11714E+05
 0.97449997E+02  0.11632E+05
 0.97499992E+02  0.11599E+05
 0.97549995E+02  0.11602E+05
 0.97599991E+02  0.11630E+05
 0.97649994E+02  0.11741E+05
 0.97699997E+02  0.11853E+05
 0.97749992E+02  0.11928E+05
 0.97799995E+02  0.12145E+05
 0.97849991E+02  0.12309E+05
 0.97899994E+02  0.12162E+05
 0.97949997E+02  0.11788E+05
 0.97999992E+02  0.11608E+05
