-0.20000000E+01  0.11842E+05
-0.19500000E+01  0.11772E+05
-0.19000000E+01  0.11828E+05
-0.18500000E+01  0.11838E+05
-0.18000000E+01  0.11839E+05
-0.17500000E+01  0.11843E+05
-0.17000000E+01  0.11837E+05
-0.16500001E+01  0.11831E+05
-0.16000000E+01  0.11835E+05
-0.15500000E+01  0.11829E+05
-0.15000000E+01  0.11827E+05
-0.14500000E+01  0.11824E+05
-0.14000001E+01  0.11821E+05
-0.13500000E+01  0.11823E+05
-0.13000001E+01  0.11828E+05
-0.12500000E+01  0.11829E+05
-0.12000000E+01  0.11825E+05
-0.11500001E+01  0.11828E+05
-0.11000000E+01  0.11828E+05
-0.10500001E+01  0.11831E+05
-0.10000000E+01  0.11835E+05
-0.95000005E+00  0.11840E+05
-0.90000010E+00  0.11846E+05
-0.85000002E+00  0.11857E+05
-0.80000007E+00  0.11857E+05
-0.75000012E+00  0.11859E+05
-0.70000005E+00  0.11865E+05
-0.65000010E+00  0.11860E+05
-0.60000014E+00  0.11862E+05
-0.55000007E+00  0.11860E+05
-0.50000012E+00  0.11865E+05
-0.45000005E+00  0.11867E+05
-0.40000010E+00  0.11860E+05
-0.35000014E+00  0.11869E+05
-0.30000007E+00  0.11867E+05
-0.25000012E+00  0.11873E+05
-0.20000005E+00  0.11874E+05
-0.15000010E+00  0.11864E+05
-0.10000014E+00  0.11872E+05
-0.50000072E-01  0.11865E+05
-0.11920929E-06  0.11872E+05
 0.49999952E-01  0.11873E+05
 0.99999905E-01  0.11861E+05
 0.14999986E+00  0.11862E+05
 0.19999981E+00  0.11852E+05
 0.24999976E+00  0.11853E+05
 0.29999995E+00  0.11837E+05
 0.34999990E+00  0.11825E+05
 0.39999986E+00  0.11826E+05
 0.44999981E+00  0.11815E+05
 0.49999976E+00  0.11805E+05
 0.54999995E+00  0.11795E+05
 0.59999990E+00  0.11804E+05
 0.64999986E+00  0.11801E+05
 0.69999981E+00  0.11804E+05
 0.74999976E+00  0.11810E+05
 0.79999971E+00  0.11805E+05
 0.84999990E+00  0.11812E+05
 0.89999986E+00  0.11812E+05
 0.94999981E+00  0.11814E+05
 0.99999976E+00  0.11816E+05
 0.10499997E+01  0.11824E+05
 0.10999999E+01  0.11823E+05
 0.11499999E+01  0.11836E+05
 0.11999998E+01  0.11846E+05
 0.12499998E+01  0.11834E+05
 0.12999997E+01  0.11840E+05
 0.13499999E+01  0.11838E+05
 0.13999999E+01  0.11841E+05
 0.14499998E+01  0.11841E+05
 0.14999998E+01  0.11836E+05
 0.15499997E+01  0.11849E+05
 0.15999999E+01  0.11855E+05
 0.16499999E+01  0.11853E+05
 0.16999998E+01  0.11852E+05
 0.17499998E+01  0.11860E+05
 0.17999997E+01  0.11868E+05
 0.18499997E+01  0.11862E+05
 0.18999999E+01  0.11860E+05
 0.19499998E+01  0.11865E+05
 0.19999998E+01  0.11874E+05
 0.20499997E+01  0.11869E+05
 0.20999999E+01  0.11868E+05
 0.21499996E+01  0.11875E+05
 0.21999998E+01  0.11865E+05
 0.22499995E+01  0.11868E+05
 0.22999997E+01  0.11864E+05
 0.23499999E+01  0.11866E+05
 0.23999996E+01  0.11862E+05
 0.24499998E+01  0.11855E+05
 0.24999995E+01  0.11854E+05
 0.25499997E+01  0.11849E+05
 0.25999999E+01  0.11841E+05
 0.26499996E+01  0.11837E+05
 0.26999998E+01  0.11842E+05
 0.27499995E+01  0.11842E+05
 0.27999997E+01  0.11840E+05
 0.28499999E+01  0.11833E+05
 0.28999996E+01  0.11836E+05
 0.29499998E+01  0.11831E+05
 0.29999995E+01  0.11832E+05
 0.30499997E+01  0.11831E+05
 0.30999999E+01  0.11826E+05
 0.31499996E+01  0.11833E+05
 0.31999998E+01  0.11832E+05
 0.32499995E+01  0.11827E+05
 0.32999997E+01  0.11817E+05
 0.33499999E+01  0.11819E+05
 0.33999996E+01  0.11821E+05
 0.34499998E+01  0.11811E+05
 0.34999995E+01  0.11815E+05
 0.35499997E+01  0.11837E+05
 0.35999994E+01  0.11810E+05
 0.36499996E+01  0.11810E+05
 0.36999998E+01  0.11848E+05
 0.37499995E+01  0.11819E+05
 0.37999997E+01  0.11821E+05
 0.38499994E+01  0.11833E+05
 0.38999996E+01  0.11818E+05
 0.39499998E+01  0.11845E+05
 0.39999995E+01  0.11829E+05
 0.40499997E+01  0.11844E+05
 0.40999994E+01  0.11839E+05
 0.41499996E+01  0.11838E+05
 0.41999998E+01  0.11850E+05
 0.42499995E+01  0.11832E+05
 0.42999997E+01  0.11846E+05
 0.43499994E+01  0.11838E+05
 0.43999996E+01  0.11844E+05
 0.44499998E+01  0.11849E+05
 0.44999995E+01  0.11855E+05
 0.45499997E+01  0.11859E+05
 0.45999994E+01  0.11866E+05
 0.46499996E+01  0.11855E+05
 0.46999998E+01  0.11864E+05
 0.47499995E+01  0.11868E+05
 0.47999997E+01  0.11853E+05
 0.48499994E+01  0.11865E+05
 0.48999996E+01  0.11869E+05
 0.49499998E+01  0.11854E+05
 0.49999995E+01  0.11856E+05
 0.50499997E+01  0.11835E+05
 0.50999994E+01  0.11843E+05
 0.51499996E+01  0.11836E+05
 0.51999998E+01  0.11832E+05
 0.52499995E+01  0.11843E+05
 0.52999997E+01  0.11824E+05
 0.53499994E+01  0.11845E+05
 0.53999996E+01  0.11836E+05
 0.54499993E+01  0.11834E+05
 0.54999995E+01  0.11822E+05
 0.55499997E+01  0.11823E+05
 0.55999994E+01  0.11832E+05
 0.56499996E+01  0.11828E+05
 0.56999993E+01  0.11837E+05
 0.57499995E+01  0.11844E+05
 0.57999997E+01  0.11836E+05
 0.58499994E+01  0.11839E+05
 0.58999996E+01  0.11851E+05
 0.59499993E+01  0.11848E+05
 0.59999995E+01  0.11856E+05
 0.60499992E+01  0.11859E+05
 0.60999994E+01  0.11855E+05
 0.61499996E+01  0.11849E+05
 0.61999998E+01  0.11864E+05
 0.62499990E+01  0.11842E+05
 0.62999992E+01  0.11838E+05
 0.63499994E+01  0.11841E+05
 0.63999996E+01  0.11826E+05
 0.64499998E+01  0.11835E+05
 0.64999990E+01  0.11836E+05
 0.65499992E+01  0.11824E+05
 0.65999994E+01  0.11831E+05
 0.66499996E+01  0.11850E+05
 0.66999998E+01  0.11800E+05
 0.67499990E+01  0.11876E+05
 0.67999992E+01  0.11802E+05
 0.68499994E+01  0.11887E+05
 0.68999996E+01  0.11787E+05
 0.69499998E+01  0.11882E+05
 0.69999990E+01  0.11803E+05
 0.70499992E+01  0.11900E+05
 0.70999994E+01  0.11778E+05
 0.71499996E+01  0.11892E+05
 0.71999998E+01  0.11791E+05
 0.72499990E+01  0.11957E+05
 0.72999992E+01  0.13115E+05
 0.73499994E+01  0.12862E+05
 0.73999996E+01  0.12097E+05
 0.74499998E+01  0.11649E+05
 0.74999990E+01  0.11226E+05
 0.75499992E+01  0.11604E+05
 0.75999994E+01  0.12751E+05
 0.76499996E+01  0.10417E+05
 0.76999998E+01  0.13988E+05
 0.77499990E+01  0.13654E+05
 0.77999992E+01  0.95637E+04
 0.78499994E+01  0.14248E+05
 0.78999996E+01  0.86992E+04
 0.79499998E+01  0.13704E+05
 0.79999990E+01  0.10981E+05
 0.80499992E+01  0.10765E+05
 0.80999994E+01  0.14683E+05
 0.81499996E+01  0.15308E+05
 0.81999998E+01  0.14474E+05
 0.82499990E+01  0.14317E+05
 0.82999992E+01  0.10929E+05
 0.83499994E+01  0.78875E+04
 0.83999996E+01  0.17944E+05
 0.84499998E+01 -0.47831E+04
 0.84999990E+01  0.17829E+05
 0.85499992E+01  0.29339E+05
 0.85999994E+01 -0.10893E+05
 0.86499996E+01  0.16959E+05
 0.86999998E+01  0.23653E+05
 0.87499990E+01 -0.99696E+04
 0.87999992E+01  0.24077E+05
 0.88499994E+01  0.88173E+04
 0.88999996E+01 -0.73320E+04
 0.89499998E+01  0.39469E+05
 0.89999990E+01  0.36829E+04
 0.90499992E+01  0.44299E+04
 0.90999994E+01  0.38701E+05
 0.91499996E+01 -0.11778E+05
 0.91999989E+01  0.95053E+04
 0.92499990E+01  0.38881E+05
 0.92999992E+01 -0.34426E+04
 0.93499994E+01 -0.43185E+04
 0.93999996E+01  0.45287E+05
 0.94499989E+01  0.27018E+04
 0.94999990E+01 -0.15025E+05
 0.95499992E+01  0.44217E+05
 0.95999994E+01  0.19710E+05
 0.96499996E+01 -0.12573E+05
 0.96999989E+01 -0.11374E+05
 0.97499990E+01  0.41174E+05
 0.97999992E+01  0.18350E+05
 0.98499994E+01 -0.14058E+05
 0.98999996E+01  0.22566E+05
 0.99499989E+01  0.22100E+05
 0.99999990E+01  0.26984E+05
 0.10049999E+02 -0.23118E+05
 0.10099999E+02  0.28924E+05
 0.10150000E+02  0.23736E+05
 0.10199999E+02 -0.37229E+05
 0.10249999E+02  0.64432E+05
 0.10299999E+02 -0.73021E+04
 0.10349999E+02  0.14946E+05
 0.10400000E+02  0.89132E+04
 0.10449999E+02  0.60070E+04
 0.10499999E+02  0.39776E+05
 0.10549999E+02 -0.38768E+05
 0.10599999E+02  0.41200E+05
 0.10650000E+02  0.21877E+05
 0.10699999E+02 -0.14535E+04
 0.10749999E+02 -0.63073E+04
 0.10799999E+02  0.32401E+05
 0.10849999E+02  0.30865E+05
 0.10900000E+02 -0.25912E+05
 0.10949999E+02  0.23360E+05
 0.10999999E+02  0.11611E+05
 0.11049999E+02  0.19515E+05
 0.11099999E+02  0.17108E+05
 0.11150000E+02 -0.73037E+04
 0.11199999E+02  0.10404E+05
 0.11249999E+02  0.16020E+05
 0.11299999E+02  0.44104E+05
 0.11349999E+02 -0.70511E+04
 0.11400000E+02 -0.24235E+04
 0.11449999E+02  0.37419E+05
 0.11499999E+02  0.51356E+04
 0.11549999E+02 -0.24764E+05
 0.11599999E+02 -0.27920E+05
 0.11650000E+02  0.55018E+05
 0.11699999E+02  0.32689E+05
 0.11749999E+02  0.14485E+05
 0.11799999E+02  0.25573E+05
 0.11849999E+02 -0.26881E+05
 0.11900000E+02 -0.34106E+05
 0.11949999E+02  0.27734E+05
 0.11999999E+02  0.64972E+05
 0.12049999E+02  0.21624E+05
 0.12099999E+02 -0.81413E+04
 0.12150000E+02  0.20793E+05
 0.12199999E+02 -0.75524E+05
 0.12249999E+02 -0.62248E+05
 0.12299999E+02  0.52185E+05
 0.12349999E+02  0.52200E+05
 0.12400000E+02  0.55259E+05
 0.12449999E+02  0.23470E+05
 0.12499999E+02 -0.13736E+05
 0.12549999E+02  0.98153E+05
 0.12599999E+02  0.96046E+05
 0.12649999E+02 -0.81389E+05
 0.12699999E+02  0.10526E+06
 0.12749999E+02  0.87212E+05
 0.12799999E+02 -0.82920E+05
 0.12849999E+02  0.17631E+06
 0.12899999E+02  0.15576E+06
 0.12949999E+02 -0.36090E+06
 0.12999999E+02 -0.11770E+06
 0.13049999E+02  0.13989E+06
 0.13099999E+02 -0.14642E+06
 0.13149999E+02 -0.84944E+05
 0.13199999E+02  0.88223E+05
 0.13249999E+02  0.17005E+06
 0.13299999E+02 -0.41151E+05
 0.13349999E+02 -0.28598E+05
 0.13399999E+02  0.16434E+05
 0.13449999E+02 -0.10893E+05
 0.13499999E+02  0.61208E+05
 0.13549999E+02 -0.66999E+05
 0.13599999E+02 -0.80337E+05
 0.13649999E+02  0.24954E+05
 0.13699999E+02  0.17426E+06
 0.13749999E+02  0.14277E+06
 0.13799999E+02 -0.91493E+05
 0.13849999E+02  0.18059E+05
 0.13899999E+02  0.13110E+06
 0.13949999E+02 -0.25638E+05
 0.13999999E+02 -0.13407E+06
 0.14049999E+02 -0.71136E+05
 0.14099998E+02  0.86704E+05
 0.14150000E+02  0.12591E+06
 0.14199999E+02 -0.20148E+05
 0.14249998E+02 -0.12955E+05
 0.14299999E+02  0.25807E+05
 0.14349998E+02 -0.21412E+05
 0.14400000E+02  0.14744E+05
 0.14449999E+02  0.28096E+05
 0.14499998E+02  0.57923E+05
 0.14549999E+02  0.43027E+05
 0.14599998E+02  0.60883E+05
 0.14650000E+02 -0.49342E+05
 0.14699999E+02 -0.80518E+05
 0.14749998E+02  0.14672E+05
 0.14799999E+02  0.49835E+05
 0.14849998E+02  0.87751E+04
 0.14900000E+02 -0.56320E+04
 0.14949999E+02  0.12644E+05
 0.14999998E+02 -0.55014E+05
 0.15049999E+02  0.99850E+05
 0.15099998E+02  0.11094E+06
 0.15150000E+02 -0.40833E+05
 0.15199999E+02 -0.14967E+05
 0.15249998E+02  0.58963E+05
 0.15299999E+02  0.83400E+03
 0.15349998E+02 -0.25647E+05
 0.15400000E+02  0.36273E+05
 0.15449999E+02 -0.58762E+05
 0.15499998E+02 -0.16248E+05
 0.15549999E+02  0.40822E+05
 0.15599998E+02 -0.24277E+05
 0.15650000E+02  0.28793E+05
 0.15699999E+02  0.85431E+05
 0.15749998E+02  0.48943E+04
 0.15799999E+02 -0.17733E+05
 0.15849998E+02  0.20420E+05
 0.15900000E+02  0.17278E+05
 0.15949999E+02 -0.41445E+04
 0.15999998E+02  0.28996E+05
 0.16049999E+02  0.26723E+05
 0.16099998E+02 -0.47711E+05
 0.16150000E+02  0.91207E+04
 0.16199999E+02  0.43488E+05
 0.16249998E+02  0.43092E+05
 0.16299999E+02  0.11657E+05
 0.16349998E+02  0.44298E+05
 0.16400000E+02  0.30396E+05
 0.16449999E+02 -0.31432E+04
 0.16499998E+02  0.20196E+05
 0.16549999E+02  0.13009E+05
 0.16599998E+02 -0.22545E+05
 0.16650000E+02 -0.93010E+04
 0.16699999E+02  0.17794E+05
 0.16749998E+02  0.90202E+04
 0.16799999E+02  0.33728E+05
 0.16849998E+02  0.18974E+05
 0.16900000E+02 -0.10575E+05
 0.16949999E+02 -0.60856E+04
 0.16999998E+02  0.30886E+05
 0.17049999E+02  0.70661E+04
 0.17099998E+02 -0.14493E+05
 0.17150000E+02 -0.61072E+04
 0.17199999E+02  0.48110E+05
 0.17249998E+02  0.34237E+05
 0.17299999E+02  0.11294E+05
 0.17349998E+02  0.43595E+05
 0.17400000E+02  0.55476E+04
 0.17449999E+02  0.81405E+04
 0.17499998E+02  0.40388E+05
 0.17549999E+02  0.19040E+05
 0.17599998E+02 -0.17389E+04
 0.17650000E+02  0.16056E+04
 0.17699999E+02  0.30256E+05
 0.17749998E+02 -0.47539E+04
 0.17799999E+02 -0.11508E+05
 0.17849998E+02 -0.11126E+05
 0.17900000E+02 -0.11974E+05
 0.17949999E+02 -0.68399E+04
 0.17999998E+02 -0.69959E+04
 0.18049999E+02  0.27236E+05
 0.18099998E+02  0.32902E+05
 0.18150000E+02  0.42156E+05
 0.18199999E+02  0.79090E+04
 0.18249998E+02  0.16896E+05
 0.18299999E+02  0.15815E+05
 0.18349998E+02  0.33655E+04
 0.18400000E+02  0.72958E+04
 0.18449999E+02  0.70412E+04
 0.18499998E+02  0.69541E+04
 0.18549999E+02  0.73527E+04
 0.18599998E+02  0.33207E+05
 0.18650000E+02  0.13678E+05
 0.18699999E+02  0.27453E+04
 0.18749998E+02  0.38873E+04
 0.18799999E+02  0.15082E+05
 0.18849998E+02  0.33568E+05
 0.18900000E+02 -0.15651E+05
 0.18949999E+02 -0.12922E+05
 0.18999998E+02  0.37763E+05
 0.19049999E+02 -0.19552E+04
 0.19099998E+02  0.51641E+03
 0.19150000E+02  0.18870E+05
 0.19199999E+02  0.80154E+04
 0.19249998E+02  0.18540E+05
 0.19299999E+02  0.54795E+04
 0.19349998E+02  0.94519E+03
 0.19400000E+02  0.32404E+05
 0.19449999E+02  0.22767E+05
 0.19499998E+02 -0.93059E+04
 0.19549999E+02  0.28108E+05
 0.19599998E+02  0.22445E+05
 0.19650000E+02 -0.13046E+05
 0.19699999E+02  0.65284E+04
 0.19749998E+02  0.22148E+05
 0.19799999E+02  0.13118E+04
 0.19849998E+02  0.12333E+05
 0.19900000E+02  0.24125E+05
 0.19949999E+02 -0.26616E+04
 0.19999998E+02  0.84131E+04
 0.20049999E+02  0.13683E+05
 0.20099998E+02  0.14704E+05
 0.20150000E+02  0.14433E+05
 0.20199999E+02  0.22375E+05
 0.20249998E+02  0.33109E+05
 0.20299999E+02 -0.31575E+04
 0.20349998E+02  0.20267E+05
 0.20399998E+02  0.26668E+05
 0.20449999E+02  0.49960E+04
 0.20499998E+02  0.10276E+05
 0.20549999E+02  0.59820E+04
 0.20599998E+02 -0.71377E+03
 0.20649998E+02  0.17911E+04
 0.20699999E+02  0.29230E+05
 0.20749998E+02  0.13097E+05
 0.20799999E+02  0.66928E+04
 0.20849998E+02  0.16412E+05
 0.20899998E+02  0.10501E+05
 0.20949999E+02  0.13922E+05
 0.20999998E+02  0.18223E+05
 0.21049999E+02  0.11961E+05
 0.21099998E+02  0.15696E+05
 0.21149998E+02  0.20203E+05
 0.21199999E+02  0.55632E+04
 0.21249998E+02  0.11996E+05
 0.21299999E+02  0.12886E+05
 0.21349998E+02  0.16195E+04
 0.21399998E+02  0.74516E+04
 0.21449999E+02  0.29602E+05
 0.21499998E+02  0.39048E+04
 0.21549999E+02 -0.24232E+03
 0.21599998E+02  0.30591E+05
 0.21649998E+02  0.10206E+05
 0.21699999E+02  0.36234E+03
 0.21749998E+02  0.82841E+04
 0.21799999E+02  0.28297E+05
 0.21849998E+02  0.10662E+05
 0.21899998E+02  0.15411E+04
 0.21949999E+02  0.13626E+05
 0.21999998E+02  0.93459E+03
 0.22049999E+02  0.82978E+04
 0.22099998E+02  0.92795E+04
 0.22149998E+02  0.12245E+05
 0.22199999E+02  0.17109E+05
 0.22249998E+02  0.14384E+05
 0.22299999E+02  0.13725E+05
 0.22349998E+02  0.74314E+04
 0.22399998E+02  0.16755E+05
 0.22449999E+02  0.22683E+05
 0.22499998E+02  0.19724E+04
 0.22549999E+02  0.96843E+03
 0.22599998E+02  0.18533E+05
 0.22649998E+02  0.18889E+05
 0.22699999E+02  0.11610E+05
 0.22749998E+02  0.19609E+05
 0.22799999E+02  0.82969E+04
 0.22849998E+02 -0.87721E+04
 0.22899998E+02  0.26726E+05
 0.22949999E+02  0.77363E+04
 0.22999998E+02 -0.26947E+03
 0.23049999E+02  0.30102E+05
 0.23099998E+02  0.16348E+05
 0.23149998E+02  0.10503E+05
 0.23199999E+02  0.14456E+05
 0.23249998E+02  0.18613E+05
 0.23299999E+02 -0.45208E+04
 0.23349998E+02  0.71974E+04
 0.23399998E+02  0.12201E+05
 0.23449999E+02  0.24778E+04
 0.23499998E+02  0.19812E+05
 0.23549999E+02  0.15396E+05
 0.23599998E+02  0.18654E+05
 0.23649998E+02  0.72929E+04
 0.23699999E+02  0.15224E+05
 0.23749998E+02  0.17476E+05
 0.23799999E+02  0.85991E+04
 0.23849998E+02  0.17249E+05
 0.23899998E+02 -0.25506E+03
 0.23949999E+02 -0.12342E+04
 0.23999998E+02  0.63884E+04
 0.24049999E+02  0.13722E+05
 0.24099998E+02  0.17917E+05
 0.24149998E+02  0.11151E+05
 0.24199999E+02  0.10618E+05
 0.24249998E+02  0.65029E+04
 0.24299999E+02  0.94365E+04
 0.24349998E+02  0.18596E+05
 0.24399998E+02  0.13405E+05
 0.24449999E+02  0.19594E+05
 0.24499998E+02  0.13712E+05
 0.24549999E+02  0.12860E+05
 0.24599998E+02  0.23245E+05
 0.24649998E+02  0.11279E+05
 0.24699999E+02  0.11212E+05
 0.24749998E+02  0.13599E+05
 0.24799999E+02  0.15330E+05
 0.24849998E+02  0.14358E+05
 0.24899998E+02  0.99211E+04
 0.24949999E+02  0.85730E+04
 0.24999998E+02  0.90729E+04
 0.25049999E+02  0.91029E+04
 0.25099998E+02  0.81394E+04
 0.25149998E+02  0.84416E+04
 0.25199999E+02  0.79413E+04
 0.25249998E+02  0.49193E+04
 0.25299999E+02  0.35518E+04
 0.25349998E+02  0.17306E+05
 0.25399998E+02  0.11266E+05
 0.25449999E+02  0.10877E+05
 0.25499998E+02  0.11967E+05
 0.25549999E+02  0.11956E+05
 0.25599998E+02  0.21972E+05
 0.25649998E+02  0.10158E+05
 0.25699999E+02  0.20095E+05
 0.25749998E+02  0.23929E+05
 0.25799999E+02  0.96245E+04
 0.25849998E+02  0.72577E+04
 0.25899998E+02  0.14347E+05
 0.25949999E+02  0.14598E+05
 0.25999998E+02  0.52061E+04
 0.26049999E+02  0.93359E+04
 0.26099998E+02  0.12598E+05
 0.26149998E+02 -0.73326E+03
 0.26199999E+02  0.73617E+04
 0.26249998E+02  0.21336E+05
 0.26299999E+02  0.84006E+04
 0.26349998E+02  0.99881E+04
 0.26399998E+02  0.14233E+05
 0.26449999E+02  0.72952E+04
 0.26499998E+02  0.13798E+05
 0.26549999E+02  0.11753E+05
 0.26599998E+02  0.12411E+05
 0.26649998E+02  0.17631E+05
 0.26699999E+02  0.14824E+05
 0.26749998E+02  0.14651E+05
 0.26799999E+02  0.16421E+05
 0.26849998E+02  0.15770E+05
 0.26899998E+02  0.11457E+05
 0.26949999E+02  0.16290E+05
 0.26999998E+02  0.21482E+04
 0.27049997E+02  0.45305E+04
 0.27099998E+02  0.20751E+05
 0.27149998E+02  0.10489E+05
 0.27199999E+02  0.11091E+05
 0.27249998E+02  0.20234E+05
 0.27299997E+02  0.16226E+05
 0.27349998E+02  0.52859E+04
 0.27399998E+02  0.10373E+05
 0.27449999E+02  0.15676E+05
 0.27499998E+02  0.36544E+04
 0.27549997E+02  0.12335E+05
 0.27599998E+02  0.20995E+05
 0.27649998E+02  0.10952E+05
 0.27699999E+02  0.59146E+04
 0.27749998E+02  0.84969E+04
 0.27799997E+02  0.18699E+05
 0.27849998E+02  0.87628E+04
 0.27899998E+02  0.54275E+04
 0.27949999E+02  0.16717E+05
 0.27999998E+02  0.10345E+05
 0.28049997E+02  0.90482E+04
 0.28099998E+02  0.99407E+04
 0.28149998E+02  0.85407E+04
 0.28199999E+02  0.58138E+04
 0.28249998E+02  0.85909E+04
 0.28299997E+02  0.68984E+04
 0.28349998E+02  0.56352E+04
 0.28399998E+02  0.18889E+05
 0.28449999E+02  0.79420E+04
 0.28499998E+02  0.11133E+05
 0.28549997E+02  0.16246E+05
 0.28599998E+02  0.11886E+05
 0.28649998E+02  0.17903E+05
 0.28699999E+02  0.17671E+05
 0.28749998E+02  0.14316E+05
 0.28799997E+02  0.14429E+05
 0.28849998E+02  0.21273E+05
 0.28899998E+02  0.15451E+05
 0.28949999E+02  0.66332E+04
 0.28999998E+02  0.11566E+05
 0.29049997E+02  0.14494E+05
 0.29099998E+02  0.14993E+05
 0.29149998E+02  0.14945E+05
 0.29199999E+02  0.15146E+05
 0.29249998E+02  0.10143E+05
 0.29299997E+02  0.21756E+04
 0.29349998E+02  0.66178E+04
 0.29399998E+02  0.13121E+05
 0.29449999E+02  0.76648E+04
 0.29499998E+02  0.41781E+04
 0.29549997E+02  0.14411E+05
 0.29599998E+02  0.12644E+05
 0.29649998E+02  0.16790E+05
 0.29699999E+02  0.18444E+05
 0.29749998E+02  0.91777E+04
 0.29799997E+02  0.13627E+05
 0.29849998E+02  0.10555E+05
 0.29899998E+02  0.95358E+04
 0.29949999E+02  0.12968E+05
 0.29999998E+02  0.10687E+05
 0.30049999E+02  0.66971E+04
 0.30099998E+02  0.14872E+05
 0.30149998E+02  0.14841E+05
 0.30199997E+02  0.33887E+04
 0.30249996E+02  0.97716E+04
 0.30299999E+02  0.10179E+05
 0.30349998E+02  0.12230E+05
 0.30399998E+02  0.82656E+04
 0.30449997E+02  0.14608E+05
 0.30499996E+02  0.16261E+05
 0.30549999E+02  0.82202E+04
 0.30599998E+02  0.15610E+05
 0.30649998E+02  0.17241E+05
 0.30699997E+02  0.17228E+05
 0.30749996E+02  0.12701E+05
 0.30799999E+02  0.10220E+05
 0.30849998E+02  0.83166E+04
 0.30899998E+02  0.10212E+05
 0.30949997E+02  0.13961E+05
 0.30999996E+02  0.97838E+04
 0.31049999E+02  0.12291E+05
 0.31099998E+02  0.13502E+05
 0.31149998E+02  0.61034E+04
 0.31199997E+02  0.12247E+05
 0.31249996E+02  0.13460E+05
 0.31299999E+02  0.10963E+05
 0.31349998E+02  0.93713E+04
 0.31399998E+02  0.66412E+04
 0.31449997E+02  0.11723E+05
 0.31499996E+02  0.12312E+05
 0.31549999E+02  0.13592E+05
 0.31599998E+02  0.11779E+05
 0.31649998E+02  0.16941E+05
 0.31699997E+02  0.17641E+05
 0.31749996E+02  0.11207E+05
 0.31799999E+02  0.13060E+05
 0.31849998E+02  0.10785E+05
 0.31899998E+02  0.82881E+04
 0.31949997E+02  0.73936E+04
 0.31999996E+02  0.12572E+05
 0.32049999E+02  0.13699E+05
 0.32099998E+02  0.12342E+05
 0.32149998E+02  0.13923E+05
 0.32199997E+02  0.91784E+04
 0.32249996E+02  0.12794E+05
 0.32299999E+02  0.12874E+05
 0.32349998E+02  0.15720E+05
 0.32399998E+02  0.14305E+05
 0.32449997E+02  0.76739E+04
 0.32499996E+02  0.14026E+05
 0.32549999E+02  0.11473E+05
 0.32599998E+02  0.58418E+04
 0.32649998E+02  0.77747E+04
 0.32699997E+02  0.12697E+05
 0.32749996E+02  0.15475E+05
 0.32799999E+02  0.14969E+05
 0.32849998E+02  0.94333E+04
 0.32899998E+02  0.11484E+05
 0.32949997E+02  0.20213E+05
 0.32999996E+02  0.11064E+05
 0.33049999E+02  0.94874E+04
 0.33099998E+02  0.99849E+04
 0.33149998E+02  0.78185E+04
 0.33199997E+02  0.14592E+05
 0.33249996E+02  0.12360E+05
 0.33299999E+02  0.77890E+04
 0.33349998E+02  0.10908E+05
 0.33399998E+02  0.13273E+05
 0.33449997E+02  0.13464E+05
 0.33499996E+02  0.14399E+05
 0.33549999E+02  0.11021E+05
 0.33599998E+02  0.10522E+05
 0.33649998E+02  0.10760E+05
 0.33699997E+02  0.11948E+05
 0.33749996E+02  0.10795E+05
 0.33799999E+02  0.11926E+05
 0.33849998E+02  0.12877E+05
 0.33899998E+02  0.14846E+05
 0.33949997E+02  0.15133E+05
 0.33999996E+02  0.12704E+05
 0.34049999E+02  0.10544E+05
 0.34099998E+02  0.95331E+04
 0.34149998E+02  0.12965E+05
 0.34199997E+02  0.11232E+05
 0.34249996E+02  0.10230E+05
 0.34299999E+02  0.12416E+05
 0.34349998E+02  0.13106E+05
 0.34399998E+02  0.12110E+05
 0.34449997E+02  0.11225E+05
 0.34499996E+02  0.80914E+04
 0.34549999E+02  0.11852E+05
 0.34599998E+02  0.13866E+05
 0.34649998E+02  0.76699E+04
 0.34699997E+02  0.12799E+05
 0.34749996E+02  0.19137E+05
 0.34799999E+02  0.12760E+05
 0.34849998E+02  0.13949E+05
 0.34899998E+02  0.13157E+05
 0.34949997E+02  0.10212E+05
 0.34999996E+02  0.11868E+05
 0.35049999E+02  0.10220E+05
 0.35099998E+02  0.10345E+05
 0.35149998E+02  0.87105E+04
 0.35199997E+02  0.59491E+04
 0.35249996E+02  0.11000E+05
 0.35299999E+02  0.11145E+05
 0.35349998E+02  0.67610E+04
 0.35399998E+02  0.12262E+05
 0.35449997E+02  0.10435E+05
 0.35499996E+02  0.11379E+05
 0.35549999E+02  0.13633E+05
 0.35599998E+02  0.13865E+05
 0.35649998E+02  0.12713E+05
 0.35699997E+02  0.15059E+05
 0.35749996E+02  0.15883E+05
 0.35799999E+02  0.10382E+05
 0.35849998E+02  0.14350E+05
 0.35899998E+02  0.12103E+05
 0.35949997E+02  0.12516E+05
 0.35999996E+02  0.13182E+05
 0.36049999E+02  0.11115E+05
 0.36099998E+02  0.10152E+05
 0.36149998E+02  0.12718E+05
 0.36199997E+02  0.15194E+05
 0.36249996E+02  0.87413E+04
 0.36299999E+02  0.90807E+04
 0.36349998E+02  0.11841E+05
 0.36399998E+02  0.11928E+05
 0.36449997E+02  0.13274E+05
 0.36499996E+02  0.11896E+05
 0.36549999E+02  0.10187E+05
 0.36599998E+02  0.11137E+05
 0.36649998E+02  0.80788E+04
 0.36699997E+02  0.11798E+05
 0.36749996E+02  0.16571E+05
 0.36799999E+02  0.91482E+04
 0.36849998E+02  0.96695E+04
 0.36899998E+02  0.15534E+05
 0.36949997E+02  0.11941E+05
 0.36999996E+02  0.13166E+05
 0.37049999E+02  0.13390E+05
 0.37099998E+02  0.12262E+05
 0.37149998E+02  0.13273E+05
 0.37199997E+02  0.89420E+04
 0.37249996E+02  0.83518E+04
 0.37299999E+02  0.14074E+05
 0.37349998E+02  0.94873E+04
 0.37399998E+02  0.85238E+04
 0.37449997E+02  0.15172E+05
 0.37499996E+02  0.12325E+05
 0.37549999E+02  0.11585E+05
 0.37599998E+02  0.11996E+05
 0.37649998E+02  0.13821E+05
 0.37699997E+02  0.10748E+05
 0.37749996E+02  0.10595E+05
 0.37799999E+02  0.11073E+05
 0.37849998E+02  0.11006E+05
 0.37899998E+02  0.13230E+05
 0.37949997E+02  0.14339E+05
 0.37999996E+02  0.15068E+05
 0.38049999E+02  0.10857E+05
 0.38099998E+02  0.11145E+05
 0.38149998E+02  0.10958E+05
 0.38199997E+02  0.85962E+04
 0.38249996E+02  0.12664E+05
 0.38299999E+02  0.12558E+05
 0.38349998E+02  0.71330E+04
 0.38399998E+02  0.10333E+05
 0.38449997E+02  0.15198E+05
 0.38499996E+02  0.13657E+05
 0.38549999E+02  0.13685E+05
 0.38599998E+02  0.14607E+05
 0.38649998E+02  0.10546E+05
 0.38699997E+02  0.15315E+05
 0.38749996E+02  0.14480E+05
 0.38799999E+02  0.84468E+04
 0.38849998E+02  0.13802E+05
 0.38899998E+02  0.14405E+05
 0.38949997E+02  0.83382E+04
 0.38999996E+02  0.11724E+05
 0.39049999E+02  0.13293E+05
 0.39099998E+02  0.11306E+05
 0.39149998E+02  0.11916E+05
 0.39199997E+02  0.10573E+05
 0.39249996E+02  0.12579E+05
 0.39299999E+02  0.10290E+05
 0.39349998E+02  0.11460E+05
 0.39399998E+02  0.12930E+05
 0.39449997E+02  0.11888E+05
 0.39499996E+02  0.10052E+05
 0.39549999E+02  0.10281E+05
 0.39599998E+02  0.13094E+05
 0.39649998E+02  0.11541E+05
 0.39699997E+02  0.12890E+05
 0.39749996E+02  0.13396E+05
 0.39799999E+02  0.10587E+05
 0.39849998E+02  0.10136E+05
 0.39899998E+02  0.10905E+05
 0.39949997E+02  0.10782E+05
 0.39999996E+02  0.10370E+05
 0.40049999E+02  0.11564E+05
 0.40099998E+02  0.99711E+04
 0.40149998E+02  0.86753E+04
 0.40199997E+02  0.11308E+05
 0.40249996E+02  0.12493E+05
 0.40299999E+02  0.12632E+05
 0.40349998E+02  0.11694E+05
 0.40399998E+02  0.12435E+05
 0.40449997E+02  0.11988E+05
 0.40499996E+02  0.15767E+05
 0.40549999E+02  0.16187E+05
 0.40599998E+02  0.11950E+05
 0.40649998E+02  0.11846E+05
 0.40699997E+02  0.11769E+05
 0.40749996E+02  0.12413E+05
 0.40799999E+02  0.12327E+05
 0.40849998E+02  0.12652E+05
 0.40899998E+02  0.11595E+05
 0.40949997E+02  0.89691E+04
 0.40999996E+02  0.85681E+04
 0.41049999E+02  0.10137E+05
 0.41099998E+02  0.10798E+05
 0.41149998E+02  0.11971E+05
 0.41199997E+02  0.10368E+05
 0.41249996E+02  0.10337E+05
 0.41299999E+02  0.13798E+05
 0.41349998E+02  0.13327E+05
 0.41399998E+02  0.12746E+05
 0.41449997E+02  0.14863E+05
 0.41499996E+02  0.11322E+05
 0.41549999E+02  0.82891E+04
 0.41599998E+02  0.11003E+05
 0.41649998E+02  0.13072E+05
 0.41699997E+02  0.12608E+05
 0.41749996E+02  0.10761E+05
 0.41799999E+02  0.12001E+05
 0.41849998E+02  0.13431E+05
 0.41899998E+02  0.13253E+05
 0.41949997E+02  0.14057E+05
 0.41999996E+02  0.13537E+05
 0.42049999E+02  0.11861E+05
 0.42099998E+02  0.11750E+05
 0.42149998E+02  0.12078E+05
 0.42199997E+02  0.10963E+05
 0.42249996E+02  0.12950E+05
 0.42299999E+02  0.13802E+05
 0.42349998E+02  0.12793E+05
 0.42399998E+02  0.13433E+05
 0.42449997E+02  0.11600E+05
 0.42499996E+02  0.12148E+05
 0.42549999E+02  0.11670E+05
 0.42599998E+02  0.12009E+05
 0.42649998E+02  0.11775E+05
 0.42699997E+02  0.10793E+05
 0.42749996E+02  0.10377E+05
 0.42799995E+02  0.95210E+04
 0.42849998E+02  0.12046E+05
 0.42899998E+02  0.11803E+05
 0.42949997E+02  0.10563E+05
 0.42999996E+02  0.95588E+04
 0.43049995E+02  0.10306E+05
 0.43099998E+02  0.12514E+05
 0.43149998E+02  0.11421E+05
 0.43199997E+02  0.10116E+05
 0.43249996E+02  0.10919E+05
 0.43299995E+02  0.12673E+05
 0.43349998E+02  0.10763E+05
 0.43399998E+02  0.11317E+05
 0.43449997E+02  0.12680E+05
 0.43499996E+02  0.10972E+05
 0.43549995E+02  0.11324E+05
 0.43599998E+02  0.12202E+05
 0.43649998E+02  0.13069E+05
 0.43699997E+02  0.11378E+05
 0.43749996E+02  0.11217E+05
 0.43799995E+02  0.13049E+05
 0.43849998E+02  0.11441E+05
 0.43899998E+02  0.10585E+05
 0.43949997E+02  0.12911E+05
 0.43999996E+02  0.12873E+05
 0.44049995E+02  0.12594E+05
 0.44099998E+02  0.12809E+05
 0.44149998E+02  0.97829E+04
 0.44199997E+02  0.12111E+05
 0.44249996E+02  0.15240E+05
 0.44299995E+02  0.11788E+05
 0.44349998E+02  0.12060E+05
 0.44399998E+02  0.14012E+05
 0.44449997E+02  0.13753E+05
 0.44499996E+02  0.11974E+05
 0.44549995E+02  0.11062E+05
 0.44599998E+02  0.10908E+05
 0.44649998E+02  0.10817E+05
 0.44699997E+02  0.12631E+05
 0.44749996E+02  0.12052E+05
 0.44799995E+02  0.10688E+05
 0.44849998E+02  0.10736E+05
 0.44899998E+02  0.11815E+05
 0.44949997E+02  0.14196E+05
 0.44999996E+02  0.13745E+05
 0.45049995E+02  0.11807E+05
 0.45099998E+02  0.11026E+05
 0.45149998E+02  0.11881E+05
 0.45199997E+02  0.12477E+05
 0.45249996E+02  0.96364E+04
 0.45299995E+02  0.98122E+04
 0.45349998E+02  0.10294E+05
 0.45399998E+02  0.10612E+05
 0.45449997E+02  0.12286E+05
 0.45499996E+02  0.11956E+05
 0.45549995E+02  0.10112E+05
 0.45599998E+02  0.87308E+04
 0.45649998E+02  0.10452E+05
 0.45699997E+02  0.12264E+05
 0.45749996E+02  0.13524E+05
 0.45799995E+02  0.11812E+05
 0.45849998E+02  0.10088E+05
 0.45899998E+02  0.10754E+05
 0.45949997E+02  0.10432E+05
 0.45999996E+02  0.10165E+05
 0.46049995E+02  0.11402E+05
 0.46099998E+02  0.13203E+05
 0.46149998E+02  0.12370E+05
 0.46199997E+02  0.13336E+05
 0.46249996E+02  0.15390E+05
 0.46299995E+02  0.15334E+05
 0.46349998E+02  0.15819E+05
 0.46399998E+02  0.14005E+05
 0.46449997E+02  0.11991E+05
 0.46499996E+02  0.11785E+05
 0.46549995E+02  0.12404E+05
 0.46599998E+02  0.11929E+05
 0.46649998E+02  0.10204E+05
 0.46699997E+02  0.11483E+05
 0.46749996E+02  0.11794E+05
 0.46799995E+02  0.10338E+05
 0.46849998E+02  0.10088E+05
 0.46899998E+02  0.11307E+05
 0.46949997E+02  0.12652E+05
 0.46999996E+02  0.12399E+05
 0.47049995E+02  0.13710E+05
 0.47099998E+02  0.12908E+05
 0.47149998E+02  0.12376E+05
 0.47199997E+02  0.12808E+05
 0.47249996E+02  0.11210E+05
 0.47299995E+02  0.11447E+05
 0.47349998E+02  0.10883E+05
 0.47399998E+02  0.12197E+05
 0.47449997E+02  0.11502E+05
 0.47499996E+02  0.92820E+04
 0.47549995E+02  0.10667E+05
 0.47599998E+02  0.11700E+05
 0.47649998E+02  0.98964E+04
 0.47699997E+02  0.10889E+05
 0.47749996E+02  0.12894E+05
 0.47799995E+02  0.88411E+04
 0.47849998E+02  0.92516E+04
 0.47899998E+02  0.12161E+05
 0.47949997E+02  0.10858E+05
 0.47999996E+02  0.11077E+05
 0.48049995E+02  0.11873E+05
 0.48099998E+02  0.12349E+05
 0.48149998E+02  0.12236E+05
 0.48199997E+02  0.12708E+05
 0.48249996E+02  0.12279E+05
 0.48299995E+02  0.11898E+05
 0.48349998E+02  0.13286E+05
 0.48399998E+02  0.14026E+05
 0.48449997E+02  0.14465E+05
 0.48499996E+02  0.15137E+05
 0.48549995E+02  0.14564E+05
 0.48599998E+02  0.12782E+05
 0.48649998E+02  0.13095E+05
 0.48699997E+02  0.12111E+05
 0.48749996E+02  0.12422E+05
 0.48799995E+02  0.13224E+05
 0.48849998E+02  0.10809E+05
 0.48899998E+02  0.10006E+05
 0.48949997E+02  0.10815E+05
 0.48999996E+02  0.11329E+05
 0.49049995E+02  0.11030E+05
 0.49099998E+02  0.10508E+05
 0.49149998E+02  0.11721E+05
 0.49199997E+02  0.11477E+05
 0.49249996E+02  0.11117E+05
 0.49299995E+02  0.11794E+05
 0.49349998E+02  0.11806E+05
 0.49399998E+02  0.12012E+05
 0.49449997E+02  0.12097E+05
 0.49499996E+02  0.12292E+05
 0.49549995E+02  0.10987E+05
 0.49599998E+02  0.11403E+05
 0.49649998E+02  0.12431E+05
 0.49699997E+02  0.11762E+05
 0.49749996E+02  0.12176E+05
 0.49799995E+02  0.12984E+05
 0.49849998E+02  0.11815E+05
 0.49899998E+02  0.10243E+05
 0.49949997E+02  0.11148E+05
 0.49999996E+02  0.94221E+04
 0.50049995E+02  0.95523E+04
 0.50099998E+02  0.11374E+05
 0.50149998E+02  0.11362E+05
 0.50199997E+02  0.12163E+05
 0.50249996E+02  0.12212E+05
 0.50299995E+02  0.12664E+05
 0.50349998E+02  0.11324E+05
 0.50399998E+02  0.11893E+05
 0.50449997E+02  0.12636E+05
 0.50499996E+02  0.10899E+05
 0.50549995E+02  0.10364E+05
 0.50599998E+02  0.12646E+05
 0.50649998E+02  0.13126E+05
 0.50699997E+02  0.11610E+05
 0.50749996E+02  0.12152E+05
 0.50799995E+02  0.10783E+05
 0.50849998E+02  0.11358E+05
 0.50899998E+02  0.13621E+05
 0.50949997E+02  0.13887E+05
 0.50999996E+02  0.12964E+05
 0.51049995E+02  0.12849E+05
 0.51099998E+02  0.12229E+05
 0.51149998E+02  0.11232E+05
 0.51199997E+02  0.11894E+05
 0.51249996E+02  0.10455E+05
 0.51299995E+02  0.10159E+05
 0.51349998E+02  0.10457E+05
 0.51399998E+02  0.11412E+05
 0.51449997E+02  0.12543E+05
 0.51499996E+02  0.11957E+05
 0.51549995E+02  0.12264E+05
 0.51599998E+02  0.12190E+05
 0.51649998E+02  0.12610E+05
 0.51699997E+02  0.12389E+05
 0.51749996E+02  0.12019E+05
 0.51799995E+02  0.11335E+05
 0.51849998E+02  0.11590E+05
 0.51899998E+02  0.13010E+05
 0.51949997E+02  0.12122E+05
 0.51999996E+02  0.11701E+05
 0.52049995E+02  0.12395E+05
 0.52099998E+02  0.13078E+05
 0.52149998E+02  0.12668E+05
 0.52199997E+02  0.11568E+05
 0.52249996E+02  0.11042E+05
 0.52299995E+02  0.11398E+05
 0.52349998E+02  0.11761E+05
 0.52399998E+02  0.11040E+05
 0.52449997E+02  0.11358E+05
 0.52499996E+02  0.12300E+05
 0.52549995E+02  0.12239E+05
 0.52599998E+02  0.12667E+05
 0.52649998E+02  0.13104E+05
 0.52699997E+02  0.11501E+05
 0.52749996E+02  0.10120E+05
 0.52799995E+02  0.99425E+04
 0.52849998E+02  0.10348E+05
 0.52899998E+02  0.10028E+05
 0.52949997E+02  0.10895E+05
 0.52999996E+02  0.11388E+05
 0.53049995E+02  0.11399E+05
 0.53099998E+02  0.12810E+05
 0.53149998E+02  0.12159E+05
 0.53199997E+02  0.11259E+05
 0.53249996E+02  0.11264E+05
 0.53299995E+02  0.11857E+05
 0.53349998E+02  0.12083E+05
 0.53399998E+02  0.12327E+05
 0.53449997E+02  0.12309E+05
 0.53499996E+02  0.12109E+05
 0.53549995E+02  0.12241E+05
 0.53599998E+02  0.12234E+05
 0.53649998E+02  0.12284E+05
 0.53699997E+02  0.13199E+05
 0.53749996E+02  0.12990E+05
 0.53799995E+02  0.11872E+05
 0.53849998E+02  0.12613E+05
 0.53899998E+02  0.11950E+05
 0.53949997E+02  0.12258E+05
 0.53999996E+02  0.12418E+05
 0.54049995E+02  0.12401E+05
 0.54099998E+02  0.12105E+05
 0.54149998E+02  0.11299E+05
 0.54199997E+02  0.12223E+05
 0.54249996E+02  0.12065E+05
 0.54299995E+02  0.12006E+05
 0.54349998E+02  0.11053E+05
 0.54399998E+02  0.10513E+05
 0.54449997E+02  0.11559E+05
 0.54499996E+02  0.11782E+05
 0.54549995E+02  0.11116E+05
 0.54599998E+02  0.10358E+05
 0.54649998E+02  0.10516E+05
 0.54699997E+02  0.11597E+05
 0.54749996E+02  0.12082E+05
 0.54799995E+02  0.10814E+05
 0.54849998E+02  0.10497E+05
 0.54899998E+02  0.11220E+05
 0.54949997E+02  0.11997E+05
 0.54999996E+02  0.12535E+05
 0.55049995E+02  0.12449E+05
 0.55099998E+02  0.11607E+05
 0.55149998E+02  0.11469E+05
 0.55199997E+02  0.12498E+05
 0.55249996E+02  0.12937E+05
 0.55299995E+02  0.12568E+05
 0.55349998E+02  0.11890E+05
 0.55399998E+02  0.12233E+05
 0.55449997E+02  0.12053E+05
 0.55499996E+02  0.12407E+05
 0.55549995E+02  0.12908E+05
 0.55599998E+02  0.12828E+05
 0.55649998E+02  0.11960E+05
 0.55699997E+02  0.10953E+05
 0.55749996E+02  0.10125E+05
 0.55799995E+02  0.10142E+05
 0.55849995E+02  0.10852E+05
 0.55899998E+02  0.11677E+05
 0.55949997E+02  0.12361E+05
 0.55999996E+02  0.11647E+05
 0.56049995E+02  0.11592E+05
 0.56099995E+02  0.12311E+05
 0.56149998E+02  0.12129E+05
 0.56199997E+02  0.12038E+05
 0.56249996E+02  0.12241E+05
 0.56299995E+02  0.11889E+05
 0.56349995E+02  0.12398E+05
 0.56399998E+02  0.12603E+05
 0.56449997E+02  0.12258E+05
 0.56499996E+02  0.12189E+05
 0.56549995E+02  0.11998E+05
 0.56599995E+02  0.11347E+05
 0.56649998E+02  0.11956E+05
 0.56699997E+02  0.12639E+05
 0.56749996E+02  0.13064E+05
 0.56799995E+02  0.12598E+05
 0.56849995E+02  0.12399E+05
 0.56899998E+02  0.12963E+05
 0.56949997E+02  0.12488E+05
 0.56999996E+02  0.12835E+05
 0.57049995E+02  0.12335E+05
 0.57099995E+02  0.11774E+05
 0.57149998E+02  0.12176E+05
 0.57199997E+02  0.12403E+05
 0.57249996E+02  0.11427E+05
 0.57299995E+02  0.11117E+05
 0.57349995E+02  0.11649E+05
 0.57399998E+02  0.11515E+05
 0.57449997E+02  0.11526E+05
 0.57499996E+02  0.11276E+05
 0.57549995E+02  0.11225E+05
 0.57599995E+02  0.10977E+05
 0.57649998E+02  0.10894E+05
 0.57699997E+02  0.11512E+05
 0.57749996E+02  0.11637E+05
 0.57799995E+02  0.10895E+05
 0.57849995E+02  0.11102E+05
 0.57899998E+02  0.10830E+05
 0.57949997E+02  0.10910E+05
 0.57999996E+02  0.11256E+05
 0.58049995E+02  0.10882E+05
 0.58099995E+02  0.11929E+05
 0.58149998E+02  0.11965E+05
 0.58199997E+02  0.11792E+05
 0.58249996E+02  0.11532E+05
 0.58299995E+02  0.11609E+05
 0.58349995E+02  0.12128E+05
 0.58399998E+02  0.11512E+05
 0.58449997E+02  0.11643E+05
 0.58499996E+02  0.11204E+05
 0.58549995E+02  0.11384E+05
 0.58599995E+02  0.12471E+05
 0.58649998E+02  0.12249E+05
 0.58699997E+02  0.12023E+05
 0.58749996E+02  0.12204E+05
 0.58799995E+02  0.12698E+05
 0.58849995E+02  0.13258E+05
 0.58899998E+02  0.13526E+05
 0.58949997E+02  0.12828E+05
 0.58999996E+02  0.12611E+05
 0.59049995E+02  0.12810E+05
 0.59099995E+02  0.12015E+05
 0.59149998E+02  0.11687E+05
 0.59199997E+02  0.12417E+05
 0.59249996E+02  0.11641E+05
 0.59299995E+02  0.11048E+05
 0.59349995E+02  0.11673E+05
 0.59399998E+02  0.11492E+05
 0.59449997E+02  0.11113E+05
 0.59499996E+02  0.11317E+05
 0.59549995E+02  0.11370E+05
 0.59599995E+02  0.11289E+05
 0.59649998E+02  0.12383E+05
 0.59699997E+02  0.12524E+05
 0.59749996E+02  0.12307E+05
 0.59799995E+02  0.11629E+05
 0.59849995E+02  0.11363E+05
 0.59899998E+02  0.11460E+05
 0.59949997E+02  0.11703E+05
 0.59999996E+02  0.12108E+05
 0.60049995E+02  0.11333E+05
 0.60099995E+02  0.11825E+05
 0.60149998E+02  0.11774E+05
 0.60199997E+02  0.11637E+05
 0.60249996E+02  0.11667E+05
 0.60299995E+02  0.11228E+05
 0.60349995E+02  0.10694E+05
 0.60399998E+02  0.10639E+05
 0.60449997E+02  0.11467E+05
 0.60499996E+02  0.11452E+05
 0.60549995E+02  0.11627E+05
 0.60599995E+02  0.11876E+05
 0.60649998E+02  0.11635E+05
 0.60699997E+02  0.11888E+05
 0.60749996E+02  0.11614E+05
 0.60799995E+02  0.11432E+05
 0.60849995E+02  0.11569E+05
 0.60899998E+02  0.11441E+05
 0.60949997E+02  0.11595E+05
 0.60999996E+02  0.11734E+05
 0.61049995E+02  0.12298E+05
 0.61099995E+02  0.12830E+05
 0.61149998E+02  0.12449E+05
 0.61199997E+02  0.10685E+05
 0.61249996E+02  0.11116E+05
 0.61299995E+02  0.12501E+05
 0.61349995E+02  0.12399E+05
 0.61399998E+02  0.12452E+05
 0.61449997E+02  0.12901E+05
 0.61499996E+02  0.12722E+05
 0.61549995E+02  0.12125E+05
 0.61599995E+02  0.12441E+05
 0.61649998E+02  0.12744E+05
 0.61699997E+02  0.13046E+05
 0.61749996E+02  0.13083E+05
 0.61799995E+02  0.12628E+05
 0.61849995E+02  0.12145E+05
 0.61899998E+02  0.12526E+05
 0.61949997E+02  0.12762E+05
 0.61999996E+02  0.12427E+05
 0.62049995E+02  0.12285E+05
 0.62099998E+02  0.11801E+05
 0.62149994E+02  0.11301E+05
 0.62199997E+02  0.11672E+05
 0.62249992E+02  0.11698E+05
 0.62299995E+02  0.11062E+05
 0.62349998E+02  0.11206E+05
 0.62399994E+02  0.12069E+05
 0.62449997E+02  0.12440E+05
 0.62499992E+02  0.11622E+05
 0.62549995E+02  0.11092E+05
 0.62599998E+02  0.11288E+05
 0.62649994E+02  0.12075E+05
 0.62699997E+02  0.11765E+05
 0.62749992E+02  0.10810E+05
 0.62799995E+02  0.11526E+05
 0.62849998E+02  0.11422E+05
 0.62899994E+02  0.11277E+05
 0.62949997E+02  0.11812E+05
 0.62999992E+02  0.11401E+05
 0.63049995E+02  0.10713E+05
 0.63099998E+02  0.10939E+05
 0.63149994E+02  0.11301E+05
 0.63199997E+02  0.10972E+05
 0.63249992E+02  0.11314E+05
 0.63299995E+02  0.11446E+05
 0.63349998E+02  0.11602E+05
 0.63399994E+02  0.11986E+05
 0.63449997E+02  0.11712E+05
 0.63499992E+02  0.11150E+05
 0.63549995E+02  0.11125E+05
 0.63599998E+02  0.12258E+05
 0.63649994E+02  0.12445E+05
 0.63699997E+02  0.11855E+05
 0.63749992E+02  0.11917E+05
 0.63799995E+02  0.12453E+05
 0.63849998E+02  0.12616E+05
 0.63899994E+02  0.12358E+05
 0.63949997E+02  0.12590E+05
 0.63999992E+02  0.12369E+05
 0.64049995E+02  0.11959E+05
 0.64099998E+02  0.12094E+05
 0.64149994E+02  0.12364E+05
 0.64199997E+02  0.12393E+05
 0.64249992E+02  0.12693E+05
 0.64299995E+02  0.12205E+05
 0.64349998E+02  0.11195E+05
 0.64399994E+02  0.11502E+05
 0.64449997E+02  0.11731E+05
 0.64499992E+02  0.11428E+05
 0.64549995E+02  0.11312E+05
 0.64599998E+02  0.10642E+05
 0.64649994E+02  0.10738E+05
 0.64699997E+02  0.11333E+05
 0.64749992E+02  0.11228E+05
 0.64799995E+02  0.11329E+05
 0.64849998E+02  0.11334E+05
 0.64899994E+02  0.11491E+05
 0.64949997E+02  0.11736E+05
 0.64999992E+02  0.11787E+05
 0.65049995E+02  0.11886E+05
 0.65099998E+02  0.11826E+05
 0.65149994E+02  0.11444E+05
 0.65199997E+02  0.12024E+05
 0.65249992E+02  0.12678E+05
 0.65299995E+02  0.12580E+05
 0.65349998E+02  0.12449E+05
 0.65399994E+02  0.12423E+05
 0.65449997E+02  0.12644E+05
 0.65499992E+02  0.12111E+05
 0.65549995E+02  0.11989E+05
 0.65599998E+02  0.12226E+05
 0.65649994E+02  0.11674E+05
 0.65699997E+02  0.11840E+05
 0.65749992E+02  0.12082E+05
 0.65799995E+02  0.12077E+05
 0.65849998E+02  0.12215E+05
 0.65899994E+02  0.12050E+05
 0.65949997E+02  0.11583E+05
 0.65999992E+02  0.11513E+05
 0.66049995E+02  0.12191E+05
 0.66099998E+02  0.12064E+05
 0.66149994E+02  0.11753E+05
 0.66199997E+02  0.11762E+05
 0.66249992E+02  0.11823E+05
 0.66299995E+02  0.12407E+05
 0.66349998E+02  0.12588E+05
 0.66399994E+02  0.11929E+05
 0.66449997E+02  0.12129E+05
 0.66499992E+02  0.12912E+05
 0.66549995E+02  0.12772E+05
 0.66599998E+02  0.12264E+05
 0.66649994E+02  0.12017E+05
 0.66699997E+02  0.12272E+05
 0.66749992E+02  0.12300E+05
 0.66799995E+02  0.11926E+05
 0.66849998E+02  0.11810E+05
 0.66899994E+02  0.11376E+05
 0.66949997E+02  0.10992E+05
 0.66999992E+02  0.11082E+05
 0.67049995E+02  0.11125E+05
 0.67099998E+02  0.11290E+05
 0.67149994E+02  0.11505E+05
 0.67199997E+02  0.11263E+05
 0.67249992E+02  0.10704E+05
 0.67299995E+02  0.10841E+05
 0.67349998E+02  0.11291E+05
 0.67399994E+02  0.11186E+05
 0.67449997E+02  0.10850E+05
 0.67499992E+02  0.10947E+05
 0.67549995E+02  0.11272E+05
 0.67599998E+02  0.10983E+05
 0.67649994E+02  0.11092E+05
 0.67699997E+02  0.11714E+05
 0.67749992E+02  0.11809E+05
 0.67799995E+02  0.11681E+05
 0.67849998E+02  0.11571E+05
 0.67899994E+02  0.11691E+05
 0.67949997E+02  0.11890E+05
 0.67999992E+02  0.12140E+05
 0.68049995E+02  0.12431E+05
 0.68099998E+02  0.12507E+05
 0.68149994E+02  0.12218E+05
 0.68199997E+02  0.12255E+05
 0.68249992E+02  0.12275E+05
 0.68299995E+02  0.12028E+05
 0.68349998E+02  0.12202E+05
 0.68399994E+02  0.12168E+05
 0.68449997E+02  0.11993E+05
 0.68499992E+02  0.11972E+05
 0.68549995E+02  0.11869E+05
 0.68599998E+02  0.12178E+05
 0.68649994E+02  0.12143E+05
 0.68699997E+02  0.11709E+05
 0.68749992E+02  0.11832E+05
 0.68799995E+02  0.12270E+05
 0.68849998E+02  0.12723E+05
 0.68899994E+02  0.12264E+05
 0.68949997E+02  0.12021E+05
 0.68999992E+02  0.12668E+05
 0.69049995E+02  0.12879E+05
 0.69099998E+02  0.12082E+05
 0.69149994E+02  0.11765E+05
 0.69199997E+02  0.12385E+05
 0.69249992E+02  0.12060E+05
 0.69299995E+02  0.11404E+05
 0.69349998E+02  0.11257E+05
 0.69399994E+02  0.11842E+05
 0.69449997E+02  0.12011E+05
 0.69499992E+02  0.11601E+05
 0.69549995E+02  0.11344E+05
 0.69599998E+02  0.11106E+05
 0.69649994E+02  0.11299E+05
 0.69699997E+02  0.11344E+05
 0.69749992E+02  0.11695E+05
 0.69799995E+02  0.11906E+05
 0.69849998E+02  0.11828E+05
 0.69899994E+02  0.11428E+05
 0.69949997E+02  0.11204E+05
 0.69999992E+02  0.11688E+05
 0.70049995E+02  0.11684E+05
 0.70099998E+02  0.11329E+05
 0.70149994E+02  0.11368E+05
 0.70199997E+02  0.11305E+05
 0.70249992E+02  0.11489E+05
 0.70299995E+02  0.12061E+05
 0.70349998E+02  0.11519E+05
 0.70399994E+02  0.11145E+05
 0.70449997E+02  0.11789E+05
 0.70499992E+02  0.12274E+05
 0.70549995E+02  0.12154E+05
 0.70599998E+02  0.12327E+05
 0.70649994E+02  0.12316E+05
 0.70699997E+02  0.11774E+05
 0.70749992E+02  0.12119E+05
 0.70799995E+02  0.12491E+05
 0.70849998E+02  0.12452E+05
 0.70899994E+02  0.12376E+05
 0.70949997E+02  0.11859E+05
 0.70999992E+02  0.11697E+05
 0.71049995E+02  0.11740E+05
 0.71099998E+02  0.11576E+05
 0.71149994E+02  0.11886E+05
 0.71199997E+02  0.12106E+05
 0.71249992E+02  0.11888E+05
 0.71299995E+02  0.11466E+05
 0.71349998E+02  0.11667E+05
 0.71399994E+02  0.11867E+05
 0.71449997E+02  0.11914E+05
 0.71499992E+02  0.12032E+05
 0.71549995E+02  0.11730E+05
 0.71599998E+02  0.11910E+05
 0.71649994E+02  0.12192E+05
 0.71699997E+02  0.12373E+05
 0.71749992E+02  0.12550E+05
 0.71799995E+02  0.12095E+05
 0.71849998E+02  0.11764E+05
 0.71899994E+02  0.12014E+05
 0.71949997E+02  0.12377E+05
 0.71999992E+02  0.12318E+05
 0.72049995E+02  0.11841E+05
 0.72099998E+02  0.11337E+05
 0.72149994E+02  0.11229E+05
 0.72199997E+02  0.11651E+05
 0.72249992E+02  0.11726E+05
 0.72299995E+02  0.11572E+05
 0.72349998E+02  0.11472E+05
 0.72399994E+02  0.11624E+05
 0.72449997E+02  0.11633E+05
 0.72499992E+02  0.11473E+05
 0.72549995E+02  0.11559E+05
 0.72599998E+02  0.11372E+05
 0.72649994E+02  0.11094E+05
 0.72699997E+02  0.11437E+05
 0.72749992E+02  0.11874E+05
 0.72799995E+02  0.11949E+05
 0.72849998E+02  0.11999E+05
 0.72899994E+02  0.12196E+05
 0.72949997E+02  0.12141E+05
 0.72999992E+02  0.11777E+05
 0.73049995E+02  0.11976E+05
 0.73099998E+02  0.12236E+05
 0.73149994E+02  0.12115E+05
 0.73199997E+02  0.11945E+05
 0.73249992E+02  0.11954E+05
 0.73299995E+02  0.11926E+05
 0.73349998E+02  0.12096E+05
 0.73399994E+02  0.12433E+05
 0.73449997E+02  0.12245E+05
 0.73499992E+02  0.12235E+05
 0.73549995E+02  0.12156E+05
 0.73599998E+02  0.11551E+05
 0.73649994E+02  0.11315E+05
 0.73699997E+02  0.11456E+05
 0.73749992E+02  0.11384E+05
 0.73799995E+02  0.11287E+05
 0.73849998E+02  0.11294E+05
 0.73899994E+02  0.11239E+05
 0.73949997E+02  0.11459E+05
 0.73999992E+02  0.11929E+05
 0.74049995E+02  0.12252E+05
 0.74099998E+02  0.12051E+05
 0.74149994E+02  0.12137E+05
 0.74199997E+02  0.12188E+05
 0.74249992E+02  0.11837E+05
 0.74299995E+02  0.11837E+05
 0.74349998E+02  0.11856E+05
 0.74399994E+02  0.11858E+05
 0.74449997E+02  0.11779E+05
 0.74499992E+02  0.11586E+05
 0.74549995E+02  0.11820E+05
 0.74599998E+02  0.11723E+05
 0.74649994E+02  0.11281E+05
 0.74699997E+02  0.11503E+05
 0.74749992E+02  0.11950E+05
 0.74799995E+02  0.12020E+05
 0.74849998E+02  0.11997E+05
 0.74899994E+02  0.12116E+05
 0.74949997E+02  0.12003E+05
 0.74999992E+02  0.11944E+05
 0.75049995E+02  0.11792E+05
 0.75099998E+02  0.11826E+05
 0.75149994E+02  0.11678E+05
 0.75199997E+02  0.11847E+05
 0.75249992E+02  0.12016E+05
 0.75299995E+02  0.11625E+05
 0.75349998E+02  0.11708E+05
 0.75399994E+02  0.11941E+05
 0.75449997E+02  0.12167E+05
 0.75499992E+02  0.12085E+05
 0.75549995E+02  0.11995E+05
 0.75599998E+02  0.11926E+05
 0.75649994E+02  0.11958E+05
 0.75699997E+02  0.11840E+05
 0.75749992E+02  0.11823E+05
 0.75799995E+02  0.12042E+05
 0.75849998E+02  0.12057E+05
 0.75899994E+02  0.12004E+05
 0.75949997E+02  0.11855E+05
 0.75999992E+02  0.11943E+05
 0.76049995E+02  0.11893E+05
 0.76099998E+02  0.11679E+05
 0.76149994E+02  0.11756E+05
 0.76199997E+02  0.11892E+05
 0.76249992E+02  0.11556E+05
 0.76299995E+02  0.11533E+05
 0.76349998E+02  0.11618E+05
 0.76399994E+02  0.11660E+05
 0.76449997E+02  0.12028E+05
 0.76499992E+02  0.12155E+05
 0.76549995E+02  0.12051E+05
 0.76599998E+02  0.11838E+05
 0.76649994E+02  0.11701E+05
 0.76699997E+02  0.11526E+05
 0.76749992E+02  0.11494E+05
 0.76799995E+02  0.11348E+05
 0.76849998E+02  0.11272E+05
 0.76899994E+02  0.11476E+05
 0.76949997E+02  0.11652E+05
 0.76999992E+02  0.11841E+05
 0.77049995E+02  0.11796E+05
 0.77099998E+02  0.11794E+05
 0.77149994E+02  0.11686E+05
 0.77199997E+02  0.11611E+05
 0.77249992E+02  0.12029E+05
 0.77299995E+02  0.12331E+05
 0.77349998E+02  0.12168E+05
 0.77399994E+02  0.11847E+05
 0.77449997E+02  0.11692E+05
 0.77499992E+02  0.11812E+05
 0.77549995E+02  0.12030E+05
 0.77599998E+02  0.11955E+05
 0.77649994E+02  0.12083E+05
 0.77699997E+02  0.12331E+05
 0.77749992E+02  0.12155E+05
 0.77799995E+02  0.11930E+05
 0.77849998E+02  0.11765E+05
 0.77899994E+02  0.11421E+05
 0.77949997E+02  0.11309E+05
 0.77999992E+02  0.11617E+05
 0.78049995E+02  0.11668E+05
 0.78099998E+02  0.11531E+05
 0.78149994E+02  0.11404E+05
 0.78199997E+02  0.11492E+05
 0.78249992E+02  0.11667E+05
 0.78299995E+02  0.11799E+05
 0.78349998E+02  0.11807E+05
 0.78399994E+02  0.11843E+05
 0.78449997E+02  0.12111E+05
 0.78499992E+02  0.12184E+05
 0.78549995E+02  0.12127E+05
 0.78599998E+02  0.12114E+05
 0.78649994E+02  0.12174E+05
 0.78699997E+02  0.11829E+05
 0.78749992E+02  0.11452E+05
 0.78799995E+02  0.11672E+05
 0.78849998E+02  0.11995E+05
 0.78899994E+02  0.11799E+05
 0.78949997E+02  0.11686E+05
 0.78999992E+02  0.11954E+05
 0.79049995E+02  0.11720E+05
 0.79099998E+02  0.11466E+05
 0.79149994E+02  0.11367E+05
 0.79199997E+02  0.11239E+05
 0.79249992E+02  0.11287E+05
 0.79299995E+02  0.11619E+05
 0.79349998E+02  0.11985E+05
 0.79399994E+02  0.12206E+05
 0.79449997E+02  0.12074E+05
 0.79499992E+02  0.11614E+05
 0.79549995E+02  0.11381E+05
 0.79599998E+02  0.11290E+05
 0.79649994E+02  0.11386E+05
 0.79699997E+02  0.11511E+05
 0.79749992E+02  0.11645E+05
 0.79799995E+02  0.12080E+05
 0.79849998E+02  0.12249E+05
 0.79899994E+02  0.12219E+05
 0.79949997E+02  0.12353E+05
 0.79999992E+02  0.12383E+05
 0.80049995E+02  0.12378E+05
 0.80099998E+02  0.12403E+05
 0.80149994E+02  0.12300E+05
 0.80199997E+02  0.11855E+05
 0.80249992E+02  0.11697E+05
 0.80299995E+02  0.11688E+05
 0.80349998E+02  0.11426E+05
 0.80399994E+02  0.11576E+05
 0.80449997E+02  0.11814E+05
 0.80499992E+02  0.11821E+05
 0.80549995E+02  0.11942E+05
 0.80599998E+02  0.12080E+05
 0.80649994E+02  0.12023E+05
 0.80699997E+02  0.12180E+05
 0.80749992E+02  0.12006E+05
 0.80799995E+02  0.11770E+05
 0.80849998E+02  0.12024E+05
 0.80899994E+02  0.11884E+05
 0.80949997E+02  0.12047E+05
 0.80999992E+02  0.12359E+05
 0.81049995E+02  0.12230E+05
 0.81099998E+02  0.11891E+05
 0.81149994E+02  0.11740E+05
 0.81199997E+02  0.11755E+05
 0.81249992E+02  0.11995E+05
 0.81299995E+02  0.12279E+05
 0.81349998E+02  0.12054E+05
 0.81399994E+02  0.11890E+05
 0.81449997E+02  0.11940E+05
 0.81499992E+02  0.11962E+05
 0.81549995E+02  0.11893E+05
 0.81599998E+02  0.11798E+05
 0.81649994E+02  0.11508E+05
 0.81699997E+02  0.11570E+05
 0.81749992E+02  0.11659E+05
 0.81799995E+02  0.11539E+05
 0.81849998E+02  0.11426E+05
 0.81899994E+02  0.11337E+05
 0.81949997E+02  0.11468E+05
 0.81999992E+02  0.11483E+05
 0.82049995E+02  0.11620E+05
 0.82099998E+02  0.11891E+05
 0.82149994E+02  0.11946E+05
 0.82199997E+02  0.11621E+05
 0.82249992E+02  0.11563E+05
 0.82299995E+02  0.11629E+05
 0.82349998E+02  0.11612E+05
 0.82399994E+02  0.11920E+05
 0.82449997E+02  0.12318E+05
 0.82499992E+02  0.12296E+05
 0.82549995E+02  0.11961E+05
 0.82599998E+02  0.12043E+05
 0.82649994E+02  0.12039E+05
 0.82699997E+02  0.11942E+05
 0.82749992E+02  0.11686E+05
 0.82799995E+02  0.11439E+05
 0.82849998E+02  0.11651E+05
 0.82899994E+02  0.11830E+05
 0.82949997E+02  0.11894E+05
 0.82999992E+02  0.11932E+05
 0.83049995E+02  0.11885E+05
 0.83099998E+02  0.11766E+05
 0.83149994E+02  0.11970E+05
 0.83199997E+02  0.12023E+05
 0.83249992E+02  0.11778E+05
 0.83299995E+02  0.11796E+05
 0.83349998E+02  0.11751E+05
 0.83399994E+02  0.11684E+05
 0.83449997E+02  0.11677E+05
 0.83499992E+02  0.11651E+05
 0.83549995E+02  0.11755E+05
 0.83599998E+02  0.11917E+05
 0.83649994E+02  0.12043E+05
 0.83699997E+02  0.12101E+05
 0.83749992E+02  0.12034E+05
 0.83799995E+02  0.11862E+05
 0.83849998E+02  0.11933E+05
 0.83899994E+02  0.11967E+05
 0.83949997E+02  0.11528E+05
 0.83999992E+02  0.11636E+05
 0.84049995E+02  0.12079E+05
 0.84099998E+02  0.11964E+05
 0.84149994E+02  0.12021E+05
 0.84199997E+02  0.12137E+05
 0.84249992E+02  0.12014E+05
 0.84299995E+02  0.11936E+05
 0.84349998E+02  0.11856E+05
 0.84399994E+02  0.11755E+05
 0.84449997E+02  0.11699E+05
 0.84499992E+02  0.11600E+05
 0.84549995E+02  0.11598E+05
 0.84599998E+02  0.11766E+05
 0.84649994E+02  0.11788E+05
 0.84699997E+02  0.11748E+05
 0.84749992E+02  0.11924E+05
 0.84799995E+02  0.11984E+05
 0.84849998E+02  0.11783E+05
 0.84899994E+02  0.11754E+05
 0.84949997E+02  0.11675E+05
 0.84999992E+02  0.11575E+05
 0.85049995E+02  0.11718E+05
 0.85099998E+02  0.11852E+05
 0.85149994E+02  0.11893E+05
 0.85199997E+02  0.11768E+05
 0.85249992E+02  0.11625E+05
 0.85299995E+02  0.11596E+05
 0.85349998E+02  0.11490E+05
 0.85399994E+02  0.11480E+05
 0.85449997E+02  0.11762E+05
 0.85499992E+02  0.11888E+05
 0.85549995E+02  0.11711E+05
 0.85599998E+02  0.11750E+05
 0.85649994E+02  0.12186E+05
 0.85699997E+02  0.12289E+05
 0.85749992E+02  0.12079E+05
 0.85799995E+02  0.11857E+05
 0.85849998E+02  0.11902E+05
 0.85899994E+02  0.12095E+05
 0.85949997E+02  0.11976E+05
 0.85999992E+02  0.11934E+05
 0.86049995E+02  0.11976E+05
 0.86099998E+02  0.11855E+05
 0.86149994E+02  0.11740E+05
 0.86199997E+02  0.11940E+05
 0.86249992E+02  0.11941E+05
 0.86299995E+02  0.11905E+05
 0.86349998E+02  0.12123E+05
 0.86399994E+02  0.12141E+05
 0.86449997E+02  0.11871E+05
 0.86499992E+02  0.11574E+05
 0.86549995E+02  0.11438E+05
 0.86599998E+02  0.11452E+05
 0.86649994E+02  0.11687E+05
 0.86699997E+02  0.11895E+05
 0.86749992E+02  0.11880E+05
 0.86799995E+02  0.11915E+05
 0.86849998E+02  0.11893E+05
 0.86899994E+02  0.11771E+05
 0.86949997E+02  0.11746E+05
 0.86999992E+02  0.11684E+05
 0.87049995E+02  0.11856E+05
 0.87099998E+02  0.12013E+05
 0.87149994E+02  0.11984E+05
 0.87199997E+02  0.11953E+05
 0.87249992E+02  0.11878E+05
 0.87299995E+02  0.11769E+05
 0.87349998E+02  0.11529E+05
 0.87399994E+02  0.11548E+05
 0.87449997E+02  0.11615E+05
 0.87499992E+02  0.11463E+05
 0.87549995E+02  0.11575E+05
 0.87599991E+02  0.11891E+05
 0.87649994E+02  0.12011E+05
 0.87699997E+02  0.11801E+05
 0.87749992E+02  0.11820E+05
 0.87799995E+02  0.11942E+05
 0.87849991E+02  0.11786E+05
 0.87899994E+02  0.11698E+05
 0.87949997E+02  0.11762E+05
 0.87999992E+02  0.11698E+05
 0.88049995E+02  0.11371E+05
 0.88099991E+02  0.11273E+05
 0.88149994E+02  0.11554E+05
 0.88199997E+02  0.11686E+05
 0.88249992E+02  0.11750E+05
 0.88299995E+02  0.11833E+05
 0.88349991E+02  0.11579E+05
 0.88399994E+02  0.11508E+05
 0.88449997E+02  0.11735E+05
 0.88499992E+02  0.11880E+05
 0.88549995E+02  0.11817E+05
 0.88599991E+02  0.11699E+05
 0.88649994E+02  0.11878E+05
 0.88699997E+02  0.12049E+05
 0.88749992E+02  0.12039E+05
 0.88799995E+02  0.12202E+05
 0.88849991E+02  0.12118E+05
 0.88899994E+02  0.11757E+05
 0.88949997E+02  0.11931E+05
 0.88999992E+02  0.12342E+05
 0.89049995E+02  0.12343E+05
 0.89099991E+02  0.11957E+05
 0.89149994E+02  0.11848E+05
 0.89199997E+02  0.12105E+05
 0.89249992E+02  0.12055E+05
 0.89299995E+02  0.11843E+05
 0.89349991E+02  0.11787E+05
 0.89399994E+02  0.12013E+05
 0.89449997E+02  0.12208E+05
 0.89499992E+02  0.12049E+05
 0.89549995E+02  0.11812E+05
 0.89599991E+02  0.11438E+05
 0.89649994E+02  0.11361E+05
 0.89699997E+02  0.11636E+05
 0.89749992E+02  0.11725E+05
 0.89799995E+02  0.11760E+05
 0.89849991E+02  0.11855E+05
 0.89899994E+02  0.11885E+05
 0.89949997E+02  0.12021E+05
 0.89999992E+02  0.12031E+05
 0.90049995E+02  0.11851E+05
 0.90099991E+02  0.11705E+05
 0.90149994E+02  0.11633E+05
 0.90199997E+02  0.11728E+05
 0.90249992E+02  0.11684E+05
 0.90299995E+02  0.11800E+05
 0.90349991E+02  0.11855E+05
 0.90399994E+02  0.11824E+05
 0.90449997E+02  0.11828E+05
 0.90499992E+02  0.11849E+05
 0.90549995E+02  0.11688E+05
 0.90599991E+02  0.11471E+05
 0.90649994E+02  0.11595E+05
 0.90699997E+02  0.11759E+05
 0.90749992E+02  0.11937E+05
 0.90799995E+02  0.11806E+05
 0.90849991E+02  0.11673E+05
 0.90899994E+02  0.11777E+05
 0.90949997E+02  0.11984E+05
 0.90999992E+02  0.12206E+05
 0.91049995E+02  0.12117E+05
 0.91099991E+02  0.11892E+05
 0.91149994E+02  0.11839E+05
 0.91199997E+02  0.11909E+05
 0.91249992E+02  0.12038E+05
 0.91299995E+02  0.11960E+05
 0.91349991E+02  0.11897E+05
 0.91399994E+02  0.12036E+05
 0.91449997E+02  0.12043E+05
 0.91499992E+02  0.11986E+05
 0.91549995E+02  0.11915E+05
 0.91599991E+02  0.11734E+05
 0.91649994E+02  0.11591E+05
 0.91699997E+02  0.11666E+05
 0.91749992E+02  0.11714E+05
 0.91799995E+02  0.11573E+05
 0.91849991E+02  0.11663E+05
 0.91899994E+02  0.11942E+05
 0.91949997E+02  0.12025E+05
 0.91999992E+02  0.12074E+05
 0.92049995E+02  0.12076E+05
 0.92099991E+02  0.11860E+05
 0.92149994E+02  0.11774E+05
 0.92199997E+02  0.12001E+05
 0.92249992E+02  0.12011E+05
 0.92299995E+02  0.11775E+05
 0.92349991E+02  0.11827E+05
 0.92399994E+02  0.11852E+05
 0.92449997E+02  0.11801E+05
 0.92499992E+02  0.11851E+05
 0.92549995E+02  0.11808E+05
 0.92599991E+02  0.11673E+05
 0.92649994E+02  0.11532E+05
 0.92699997E+02  0.11529E+05
 0.92749992E+02  0.11685E+05
 0.92799995E+02  0.11923E+05
 0.92849991E+02  0.11902E+05
 0.92899994E+02  0.11759E+05
 0.92949997E+02  0.11800E+05
 0.92999992E+02  0.11878E+05
 0.93049995E+02  0.11840E+05
 0.93099991E+02  0.11732E+05
 0.93149994E+02  0.11711E+05
 0.93199997E+02  0.11653E+05
 0.93249992E+02  0.11706E+05
 0.93299995E+02  0.12009E+05
 0.93349991E+02  0.12113E+05
 0.93399994E+02  0.12039E+05
 0.93449997E+02  0.11852E+05
 0.93499992E+02  0.11669E+05
 0.93549995E+02  0.11727E+05
 0.93599991E+02  0.11905E+05
 0.93649994E+02  0.11901E+05
 0.93699997E+02  0.11810E+05
 0.93749992E+02  0.11931E+05
 0.93799995E+02  0.12042E+05
 0.93849991E+02  0.12124E+05
 0.93899994E+02  0.12061E+05
 0.93949997E+02  0.11949E+05
 0.93999992E+02  0.11762E+05
 0.94049995E+02  0.11556E+05
 0.94099991E+02  0.11512E+05
 0.94149994E+02  0.11588E+05
 0.94199997E+02  0.11721E+05
 0.94249992E+02  0.11807E+05
 0.94299995E+02  0.11755E+05
 0.94349991E+02  0.11506E+05
 0.94399994E+02  0.11437E+05
 0.94449997E+02  0.11595E+05
 0.94499992E+02  0.11670E+05
 0.94549995E+02  0.11638E+05
 0.94599991E+02  0.11704E+05
 0.94649994E+02  0.11800E+05
 0.94699997E+02  0.12045E+05
 0.94749992E+02  0.12253E+05
 0.94799995E+02  0.12220E+05
 0.94849991E+02  0.12027E+05
 0.94899994E+02  0.11914E+05
 0.94949997E+02  0.11920E+05
 0.94999992E+02  0.11851E+05
 0.95049995E+02  0.11809E+05
 0.95099991E+02  0.11769E+05
 0.95149994E+02  0.11840E+05
 0.95199997E+02  0.11953E+05
 0.95249992E+02  0.11983E+05
 0.95299995E+02  0.11909E+05
 0.95349991E+02  0.11735E+05
 0.95399994E+02  0.11503E+05
 0.95449997E+02  0.11426E+05
 0.95499992E+02  0.11579E+05
 0.95549995E+02  0.11795E+05
 0.95599991E+02  0.11941E+05
 0.95649994E+02  0.12006E+05
 0.95699997E+02  0.11887E+05
 0.95749992E+02  0.11736E+05
 0.95799995E+02  0.11860E+05
 0.95849991E+02  0.11835E+05
 0.95899994E+02  0.11740E+05
 0.95949997E+02  0.11765E+05
 0.95999992E+02  0.11871E+05
 0.96049995E+02  0.11929E+05
 0.96099991E+02  0.11978E+05
 0.96149994E+02  0.12077E+05
 0.96199997E+02  0.11881E+05
 0.96249992E+02  0.11711E+05
 0.96299995E+02  0.11662E+05
 0.96349991E+02  0.11673E+05
 0.96399994E+02  0.11644E+05
 0.96449997E+02  0.11681E+05
 0.96499992E+02  0.11776E+05
 0.96549995E+02  0.11908E+05
 0.96599991E+02  0.12008E+05
 0.96649994E+02  0.11977E+05
 0.96699997E+02  0.11964E+05
 0.96749992E+02  0.11990E+05
 0.96799995E+02  0.12014E+05
 0.96849991E+02  0.11938E+05
 0.96899994E+02  0.11930E+05
 0.96949997E+02  0.11817E+05
 0.96999992E+02  0.11809E+05
 0.97049995E+02  0.11874E+05
 0.97099991E+02  0.11854E+05
 0.97149994E+02  0.11801E+05
 0.97199997E+02  0.11822E+05
 0.97249992E+02  0.11838E+05
 0.97299995E+02  0.11809E+05
 0.97349991E+02  0.11874E+05
 0.97399994E+02  0.11843E+05
 0.97449997E+02  0.11818E+05
 0.97499992E+02  0.11767E+05
 0.97549995E+02  0.11748E+05
 0.97599991E+02  0.11803E+05
 0.97649994E+02  0.11781E+05
 0.97699997E+02  0.11681E+05
 0.97749992E+02  0.11620E+05
 0.97799995E+02  0.11693E+05
 0.97849991E+02  0.11738E+05
 0.97899994E+02  0.11709E+05
 0.97949997E+02  0.11691E+05
 0.97999992E+02  0.11734E+05
