-0.20000000E+01 -0.15498E+06
-0.19500000E+01 -0.15445E+06
-0.19000000E+01 -0.15584E+06
-0.18500000E+01 -0.15677E+06
-0.18000000E+01 -0.15795E+06
-0.17500000E+01 -0.15923E+06
-0.17000000E+01 -0.16060E+06
-0.16500001E+01 -0.16217E+06
-0.16000000E+01 -0.16388E+06
-0.15500000E+01 -0.16569E+06
-0.15000000E+01 -0.16756E+06
-0.14500000E+01 -0.16942E+06
-0.14000001E+01 -0.17141E+06
-0.13500000E+01 -0.17356E+06
-0.13000001E+01 -0.17572E+06
-0.12500000E+01 -0.17778E+06
-0.12000000E+01 -0.17972E+06
-0.11500001E+01 -0.18144E+06
-0.11000000E+01 -0.18277E+06
-0.10500001E+01 -0.18354E+06
-0.10000000E+01 -0.18379E+06
-0.95000005E+00 -0.18366E+06
-0.90000010E+00 -0.18311E+06
-0.85000002E+00 -0.18225E+06
-0.80000007E+00 -0.18111E+06
-0.75000012E+00 -0.17965E+06
-0.70000005E+00 -0.17780E+06
-0.65000010E+00 -0.17549E+06
-0.60000014E+00 -0.17285E+06
-0.55000007E+00 -0.17017E+06
-0.50000012E+00 -0.16776E+06
-0.45000005E+00 -0.16582E+06
-0.40000010E+00 -0.16444E+06
-0.35000014E+00 -0.16348E+06
-0.30000007E+00 -0.16298E+06
-0.25000012E+00 -0.16291E+06
-0.20000005E+00 -0.16322E+06
-0.15000010E+00 -0.16400E+06
-0.10000014E+00 -0.16508E+06
-0.50000072E-01 -0.16633E+06
-0.11920929E-06 -0.16763E+06
 0.49999952E-01 -0.16895E+06
 0.99999905E-01 -0.17019E+06
 0.14999986E+00 -0.17133E+06
 0.19999981E+00 -0.17256E+06
 0.24999976E+00 -0.17403E+06
 0.29999995E+00 -0.17571E+06
 0.34999990E+00 -0.17737E+06
 0.39999986E+00 -0.17895E+06
 0.44999981E+00 -0.18040E+06
 0.49999976E+00 -0.18184E+06
 0.54999995E+00 -0.18327E+06
 0.59999990E+00 -0.18466E+06
 0.64999986E+00 -0.18596E+06
 0.69999981E+00 -0.18702E+06
 0.74999976E+00 -0.18782E+06
 0.79999971E+00 -0.18853E+06
 0.84999990E+00 -0.18919E+06
 0.89999986E+00 -0.18978E+06
 0.94999981E+00 -0.19022E+06
 0.99999976E+00 -0.19055E+06
 0.10499997E+01 -0.19076E+06
 0.10999999E+01 -0.19085E+06
 0.11499999E+01 -0.19087E+06
 0.11999998E+01 -0.19086E+06
 0.12499998E+01 -0.19079E+06
 0.12999997E+01 -0.19049E+06
 0.13499999E+01 -0.18989E+06
 0.13999999E+01 -0.18899E+06
 0.14499998E+01 -0.18800E+06
 0.14999998E+01 -0.18693E+06
 0.15499997E+01 -0.18571E+06
 0.15999999E+01 -0.18433E+06
 0.16499999E+01 -0.18285E+06
 0.16999998E+01 -0.18138E+06
 0.17499998E+01 -0.17986E+06
 0.17999997E+01 -0.17825E+06
 0.18499997E+01 -0.17667E+06
 0.18999999E+01 -0.17525E+06
 0.19499998E+01 -0.17398E+06
 0.19999998E+01 -0.17284E+06
 0.20499997E+01 -0.17182E+06
 0.20999999E+01 -0.17099E+06
 0.21499996E+01 -0.17040E+06
 0.21999998E+01 -0.17012E+06
 0.22499995E+01 -0.17016E+06
 0.22999997E+01 -0.17047E+06
 0.23499999E+01 -0.17098E+06
 0.23999996E+01 -0.17179E+06
 0.24499998E+01 -0.17293E+06
 0.24999995E+01 -0.17443E+06
 0.25499997E+01 -0.17617E+06
 0.25999999E+01 -0.17798E+06
 0.26499996E+01 -0.17990E+06
 0.26999998E+01 -0.18175E+06
 0.27499995E+01 -0.18351E+06
 0.27999997E+01 -0.18520E+06
 0.28499999E+01 -0.18691E+06
 0.28999996E+01 -0.18866E+06
 0.29499998E+01 -0.19018E+06
 0.29999995E+01 -0.19152E+06
 0.30499997E+01 -0.19260E+06
 0.30999999E+01 -0.19316E+06
 0.31499996E+01 -0.19316E+06
 0.31999998E+01 -0.19244E+06
 0.32499995E+01 -0.19112E+06
 0.32999997E+01 -0.18933E+06
 0.33499999E+01 -0.18713E+06
 0.33999996E+01 -0.18465E+06
 0.34499998E+01 -0.18218E+06
 0.34999995E+01 -0.17988E+06
 0.35499997E+01 -0.17781E+06
 0.35999994E+01 -0.17603E+06
 0.36499996E+01 -0.17466E+06
 0.36999998E+01 -0.17382E+06
 0.37499995E+01 -0.17349E+06
 0.37999997E+01 -0.17357E+06
 0.38499994E+01 -0.17413E+06
 0.38999996E+01 -0.17516E+06
 0.39499998E+01 -0.17646E+06
 0.39999995E+01 -0.17786E+06
 0.40499997E+01 -0.17936E+06
 0.40999994E+01 -0.18092E+06
 0.41499996E+01 -0.18223E+06
 0.41999998E+01 -0.18319E+06
 0.42499995E+01 -0.18381E+06
 0.42999997E+01 -0.18422E+06
 0.43499994E+01 -0.18445E+06
 0.43999996E+01 -0.18444E+06
 0.44499998E+01 -0.18421E+06
 0.44999995E+01 -0.18363E+06
 0.45499997E+01 -0.18263E+06
 0.45999994E+01 -0.18124E+06
 0.46499996E+01 -0.17971E+06
 0.46999998E+01 -0.17816E+06
 0.47499995E+01 -0.17662E+06
 0.47999997E+01 -0.17518E+06
 0.48499994E+01 -0.17379E+06
 0.48999996E+01 -0.17253E+06
 0.49499998E+01 -0.17136E+06
 0.49999995E+01 -0.17024E+06
 0.50499997E+01 -0.16932E+06
 0.50999994E+01 -0.16876E+06
 0.51499996E+01 -0.16865E+06
 0.51999998E+01 -0.16896E+06
 0.52499995E+01 -0.16966E+06
 0.52999997E+01 -0.17079E+06
 0.53499994E+01 -0.17227E+06
 0.53999996E+01 -0.17401E+06
 0.54499993E+01 -0.17611E+06
 0.54999995E+01 -0.17859E+06
 0.55499997E+01 -0.18120E+06
 0.55999994E+01 -0.18371E+06
 0.56499996E+01 -0.18598E+06
 0.56999993E+01 -0.18793E+06
 0.57499995E+01 -0.18943E+06
 0.57999997E+01 -0.19044E+06
 0.58499994E+01 -0.19102E+06
 0.58999996E+01 -0.19120E+06
 0.59499993E+01 -0.19095E+06
 0.59999995E+01 -0.19035E+06
 0.60499992E+01 -0.18951E+06
 0.60999994E+01 -0.18848E+06
 0.61499996E+01 -0.18731E+06
 0.61999998E+01 -0.18608E+06
 0.62499990E+01 -0.18476E+06
 0.62999992E+01 -0.18337E+06
 0.63499994E+01 -0.18184E+06
 0.63999996E+01 -0.18027E+06
 0.64499998E+01 -0.17884E+06
 0.64999990E+01 -0.17750E+06
 0.65499992E+01 -0.17623E+06
 0.65999994E+01 -0.17504E+06
 0.66499996E+01 -0.17412E+06
 0.66999998E+01 -0.17341E+06
 0.67499990E+01 -0.17283E+06
 0.67999992E+01 -0.17243E+06
 0.68499994E+01 -0.17225E+06
 0.68999996E+01 -0.17231E+06
 0.69499998E+01 -0.17263E+06
 0.69999990E+01 -0.17325E+06
 0.70499992E+01 -0.17423E+06
 0.70999994E+01 -0.17562E+06
 0.71499996E+01 -0.17737E+06
 0.71999998E+01 -0.17946E+06
 0.72499990E+01 -0.18186E+06
 0.72999992E+01 -0.18452E+06
 0.73499994E+01 -0.18716E+06
 0.73999996E+01 -0.18976E+06
 0.74499998E+01 -0.19238E+06
 0.74999990E+01 -0.19484E+06
 0.75499992E+01 -0.19693E+06
 0.75999994E+01 -0.19864E+06
 0.76499996E+01 -0.19979E+06
 0.76999998E+01 -0.20035E+06
 0.77499990E+01 -0.20028E+06
 0.77999992E+01 -0.19992E+06
 0.78499994E+01 -0.19917E+06
 0.78999996E+01 -0.19830E+06
 0.79499998E+01 -0.19713E+06
 0.79999990E+01 -0.19580E+06
 0.80499992E+01 -0.19441E+06
 0.80999994E+01 -0.19263E+06
 0.81499996E+01 -0.19119E+06
 0.81999998E+01 -0.18950E+06
 0.82499990E+01 -0.18761E+06
 0.82999992E+01 -0.18529E+06
 0.83499994E+01 -0.18294E+06
 0.83999996E+01 -0.18064E+06
 0.84499998E+01 -0.17827E+06
 0.84999990E+01 -0.17610E+06
 0.85499992E+01 -0.17374E+06
 0.85999994E+01 -0.17186E+06
 0.86499996E+01 -0.17000E+06
 0.86999998E+01 -0.16847E+06
 0.87499990E+01 -0.16728E+06
 0.87999992E+01 -0.16615E+06
 0.88499994E+01 -0.16544E+06
 0.88999996E+01 -0.16506E+06
 0.89499998E+01 -0.16518E+06
 0.89999990E+01 -0.16549E+06
 0.90499992E+01 -0.16593E+06
 0.90999994E+01 -0.16658E+06
 0.91499996E+01 -0.16722E+06
 0.91999989E+01 -0.16767E+06
 0.92499990E+01 -0.16781E+06
 0.92999992E+01 -0.16801E+06
 0.93499994E+01 -0.16773E+06
 0.93999996E+01 -0.16761E+06
 0.94499989E+01 -0.16703E+06
 0.94999990E+01 -0.16606E+06
 0.95499992E+01 -0.16519E+06
 0.95999994E+01 -0.16445E+06
 0.96499996E+01 -0.16305E+06
 0.96999989E+01 -0.16187E+06
 0.97499990E+01 -0.16001E+06
 0.97999992E+01 -0.15912E+06
 0.98499994E+01 -0.15841E+06
 0.98999996E+01 -0.15829E+06
 0.99499989E+01 -0.15728E+06
 0.99999990E+01 -0.15769E+06
 0.10049999E+02 -0.15133E+06
 0.10099999E+02 -0.13450E+06
 0.10150000E+02 -0.11189E+06
 0.10199999E+02 -0.10202E+06
 0.10249999E+02 -0.10426E+06
 0.10299999E+02 -0.10382E+06
 0.10349999E+02 -0.94266E+05
 0.10400000E+02 -0.69282E+05
 0.10449999E+02 -0.52999E+05
 0.10499999E+02 -0.46432E+05
 0.10549999E+02 -0.26283E+05
 0.10599999E+02  0.26977E+05
 0.10650000E+02  0.98351E+04
 0.10699999E+02 -0.45918E+05
 0.10749999E+02 -0.49564E+05
 0.10799999E+02  0.16035E+05
 0.10849999E+02  0.14597E+06
 0.10900000E+02  0.27852E+06
 0.10949999E+02  0.30029E+06
 0.10999999E+02  0.34833E+06
 0.11049999E+02  0.49183E+06
 0.11099999E+02  0.38848E+06
 0.11150000E+02  0.24061E+06
 0.11199999E+02  0.28536E+06
 0.11249999E+02  0.73006E+06
 0.11299999E+02  0.88883E+06
 0.11349999E+02  0.68883E+06
 0.11400000E+02  0.41329E+06
 0.11449999E+02  0.46101E+05
 0.11499999E+02  0.43657E+06
 0.11549999E+02  0.71570E+06
 0.11599999E+02  0.29518E+06
 0.11650000E+02  0.84676E+05
 0.11699999E+02  0.34321E+06
 0.11749999E+02  0.35888E+06
 0.11799999E+02 -0.12486E+04
 0.11849999E+02 -0.26957E+06
 0.11900000E+02  0.25253E+05
 0.11949999E+02  0.10989E+06
 0.11999999E+02 -0.34695E+06
 0.12049999E+02 -0.50431E+06
 0.12099999E+02 -0.45361E+06
 0.12150000E+02 -0.63787E+06
 0.12199999E+02 -0.92274E+06
 0.12249999E+02 -0.10329E+07
 0.12299999E+02 -0.98779E+06
 0.12349999E+02 -0.85684E+06
 0.12400000E+02 -0.10265E+07
 0.12449999E+02 -0.11240E+07
 0.12499999E+02 -0.94926E+06
 0.12549999E+02 -0.69065E+06
 0.12599999E+02 -0.50039E+06
 0.12649999E+02 -0.37626E+06
 0.12699999E+02 -0.45169E+06
 0.12749999E+02 -0.13513E+06
 0.12799999E+02  0.26773E+06
 0.12849999E+02  0.13074E+06
 0.12899999E+02  0.17991E+06
 0.12949999E+02  0.17952E+06
 0.12999999E+02  0.44269E+06
 0.13049999E+02  0.49283E+06
 0.13099999E+02  0.64833E+06
 0.13149999E+02  0.10013E+07
 0.13199999E+02  0.89966E+06
 0.13249999E+02  0.86524E+06
 0.13299999E+02  0.69773E+06
 0.13349999E+02  0.76183E+06
 0.13399999E+02  0.75953E+06
 0.13449999E+02  0.63520E+06
 0.13499999E+02  0.31091E+06
 0.13549999E+02 -0.21061E+06
 0.13599999E+02 -0.18362E+06
 0.13649999E+02 -0.17585E+06
 0.13699999E+02 -0.64955E+06
 0.13749999E+02 -0.10372E+07
 0.13799999E+02 -0.12375E+07
 0.13849999E+02 -0.11453E+07
 0.13899999E+02 -0.93959E+06
 0.13949999E+02 -0.92276E+06
 0.13999999E+02 -0.90905E+06
 0.14049999E+02 -0.64090E+06
 0.14099998E+02 -0.21329E+06
 0.14150000E+02 -0.12106E+06
 0.14199999E+02 -0.50514E+06
 0.14249998E+02 -0.93131E+06
 0.14299999E+02 -0.70915E+06
 0.14349998E+02 -0.65926E+06
 0.14400000E+02 -0.95820E+06
 0.14449999E+02 -0.96842E+06
 0.14499998E+02 -0.93324E+06
 0.14549999E+02 -0.10532E+07
 0.14599998E+02 -0.12477E+07
 0.14650000E+02 -0.95325E+06
 0.14699999E+02 -0.64847E+06
 0.14749998E+02 -0.63965E+06
 0.14799999E+02 -0.23273E+06
 0.14849998E+02 -0.13471E+06
 0.14900000E+02 -0.36234E+06
 0.14949999E+02 -0.29470E+06
 0.14999998E+02 -0.15993E+05
 0.15049999E+02  0.12989E+06
 0.15099998E+02  0.21232E+06
 0.15150000E+02  0.62325E+06
 0.15199999E+02  0.10806E+07
 0.15249998E+02  0.79307E+06
 0.15299999E+02  0.34508E+06
 0.15349998E+02  0.83361E+06
 0.15400000E+02  0.13395E+07
 0.15449999E+02  0.11404E+07
 0.15499998E+02  0.40255E+06
 0.15549999E+02  0.18080E+06
 0.15599998E+02  0.39972E+06
 0.15650000E+02 -0.13825E+06
 0.15699999E+02 -0.49629E+06
 0.15749998E+02 -0.45504E+06
 0.15799999E+02 -0.50306E+06
 0.15849998E+02 -0.24400E+06
 0.15900000E+02 -0.45978E+06
 0.15949999E+02 -0.99379E+06
 0.15999998E+02 -0.15909E+07
 0.16049999E+02 -0.20324E+07
 0.16099998E+02 -0.15576E+07
 0.16150000E+02 -0.12684E+07
 0.16199999E+02 -0.20265E+07
 0.16249998E+02 -0.23008E+07
 0.16299999E+02 -0.15503E+07
 0.16349998E+02 -0.14522E+07
 0.16400000E+02 -0.17159E+07
 0.16449999E+02 -0.16852E+07
 0.16499998E+02 -0.17376E+07
 0.16549999E+02 -0.13787E+07
 0.16599998E+02 -0.58411E+06
 0.16650000E+02  0.11632E+06
 0.16699999E+02 -0.14363E+06
 0.16749998E+02 -0.14925E+07
 0.16799999E+02 -0.18005E+07
 0.16849998E+02 -0.65914E+06
 0.16900000E+02  0.40327E+06
 0.16949999E+02  0.48937E+06
 0.16999998E+02 -0.13971E+06
 0.17049999E+02 -0.38954E+06
 0.17099998E+02 -0.12139E+07
 0.17150000E+02 -0.32983E+07
 0.17199999E+02 -0.47332E+07
 0.17249998E+02 -0.39896E+07
 0.17299999E+02 -0.12117E+07
 0.17349998E+02  0.51508E+05
 0.17400000E+02 -0.12626E+07
 0.17449999E+02 -0.14940E+07
 0.17499998E+02 -0.11771E+07
 0.17549999E+02 -0.19882E+07
 0.17599998E+02 -0.33617E+07
 0.17650000E+02 -0.39578E+07
 0.17699999E+02 -0.26709E+07
 0.17749998E+02 -0.14262E+07
 0.17799999E+02 -0.69170E+06
 0.17849998E+02  0.27275E+06
 0.17900000E+02  0.48755E+06
 0.17949999E+02  0.77590E+06
 0.17999998E+02  0.92250E+06
 0.18049999E+02  0.10427E+07
 0.18099998E+02  0.10668E+07
 0.18150000E+02  0.27119E+06
 0.18199999E+02 -0.65983E+06
 0.18249998E+02 -0.14592E+07
 0.18299999E+02 -0.20694E+07
 0.18349998E+02 -0.27444E+07
 0.18400000E+02 -0.36140E+07
 0.18449999E+02 -0.49957E+07
 0.18499998E+02 -0.52978E+07
 0.18549999E+02 -0.46057E+07
 0.18599998E+02 -0.36588E+07
 0.18650000E+02 -0.27528E+07
 0.18699999E+02 -0.23230E+07
 0.18749998E+02 -0.15245E+07
 0.18799999E+02 -0.98857E+06
 0.18849998E+02 -0.72369E+06
 0.18900000E+02 -0.10003E+07
 0.18949999E+02 -0.13252E+07
 0.18999998E+02 -0.88705E+06
 0.19049999E+02 -0.62273E+06
 0.19099998E+02 -0.65363E+06
 0.19150000E+02 -0.11352E+07
 0.19199999E+02 -0.11578E+07
 0.19249998E+02 -0.10588E+07
 0.19299999E+02 -0.23204E+07
 0.19349998E+02 -0.31040E+07
 0.19400000E+02 -0.24127E+07
 0.19449999E+02 -0.11929E+07
 0.19499998E+02 -0.45972E+06
 0.19549999E+02 -0.26916E+06
 0.19599998E+02 -0.41313E+06
 0.19650000E+02 -0.37643E+06
 0.19699999E+02 -0.19737E+05
 0.19749998E+02  0.73947E+05
 0.19799999E+02  0.56589E+06
 0.19849998E+02  0.13303E+07
 0.19900000E+02  0.21271E+07
 0.19949999E+02  0.18677E+07
 0.19999998E+02  0.52538E+06
 0.20049999E+02 -0.83785E+06
 0.20099998E+02 -0.21894E+07
 0.20150000E+02 -0.30912E+07
 0.20199999E+02 -0.39437E+07
 0.20249998E+02 -0.43815E+07
 0.20299999E+02 -0.41962E+07
 0.20349998E+02 -0.41556E+07
 0.20399998E+02 -0.43025E+07
 0.20449999E+02 -0.38054E+07
 0.20499998E+02 -0.28971E+07
 0.20549999E+02 -0.23284E+07
 0.20599998E+02 -0.22116E+07
 0.20649998E+02 -0.16815E+07
 0.20699999E+02 -0.66875E+06
 0.20749998E+02 -0.47106E+06
 0.20799999E+02 -0.49791E+06
 0.20849998E+02 -0.45901E+06
 0.20899998E+02 -0.37585E+06
 0.20949999E+02 -0.40821E+06
 0.20999998E+02 -0.86891E+06
 0.21049999E+02 -0.18724E+07
 0.21099998E+02 -0.27019E+07
 0.21149998E+02 -0.29284E+07
 0.21199999E+02 -0.30232E+07
 0.21249998E+02 -0.32354E+07
 0.21299999E+02 -0.32520E+07
 0.21349998E+02 -0.29039E+07
 0.21399998E+02 -0.27741E+07
 0.21449999E+02 -0.25009E+07
 0.21499998E+02 -0.23744E+07
 0.21549999E+02 -0.21910E+07
 0.21599998E+02 -0.25948E+07
 0.21649998E+02 -0.29789E+07
 0.21699999E+02 -0.25863E+07
 0.21749998E+02 -0.24081E+07
 0.21799999E+02 -0.22424E+07
 0.21849998E+02 -0.25992E+07
 0.21899998E+02 -0.28113E+07
 0.21949999E+02 -0.25176E+07
 0.21999998E+02 -0.27118E+07
 0.22049999E+02 -0.25145E+07
 0.22099998E+02 -0.24414E+07
 0.22149998E+02 -0.28435E+07
 0.22199999E+02 -0.30661E+07
 0.22249998E+02 -0.34900E+07
 0.22299999E+02 -0.38383E+07
 0.22349998E+02 -0.43660E+07
 0.22399998E+02 -0.47233E+07
 0.22449999E+02 -0.50686E+07
 0.22499998E+02 -0.51925E+07
 0.22549999E+02 -0.51050E+07
 0.22599998E+02 -0.51321E+07
 0.22649998E+02 -0.53191E+07
 0.22699999E+02 -0.51396E+07
 0.22749998E+02 -0.48195E+07
 0.22799999E+02 -0.48429E+07
 0.22849998E+02 -0.48631E+07
 0.22899998E+02 -0.49769E+07
 0.22949999E+02 -0.50662E+07
 0.22999998E+02 -0.52150E+07
 0.23049999E+02 -0.48723E+07
 0.23099998E+02 -0.42676E+07
 0.23149998E+02 -0.38088E+07
 0.23199999E+02 -0.36856E+07
 0.23249998E+02 -0.36018E+07
 0.23299999E+02 -0.36488E+07
 0.23349998E+02 -0.37803E+07
 0.23399998E+02 -0.39658E+07
 0.23449999E+02 -0.44953E+07
 0.23499998E+02 -0.50820E+07
 0.23549999E+02 -0.55033E+07
 0.23599998E+02 -0.54978E+07
 0.23649998E+02 -0.53821E+07
 0.23699999E+02 -0.51782E+07
 0.23749998E+02 -0.49311E+07
 0.23799999E+02 -0.47550E+07
 0.23849998E+02 -0.46242E+07
 0.23899998E+02 -0.44603E+07
 0.23949999E+02 -0.43556E+07
 0.23999998E+02 -0.42291E+07
 0.24049999E+02 -0.41064E+07
 0.24099998E+02 -0.42790E+07
 0.24149998E+02 -0.46201E+07
 0.24199999E+02 -0.49618E+07
 0.24249998E+02 -0.51828E+07
 0.24299999E+02 -0.53304E+07
 0.24349998E+02 -0.53924E+07
 0.24399998E+02 -0.53877E+07
 0.24449999E+02 -0.54379E+07
 0.24499998E+02 -0.58557E+07
 0.24549999E+02 -0.65840E+07
 0.24599998E+02 -0.68458E+07
 0.24649998E+02 -0.67182E+07
 0.24699999E+02 -0.66539E+07
 0.24749998E+02 -0.68770E+07
 0.24799999E+02 -0.70699E+07
 0.24849998E+02 -0.72201E+07
 0.24899998E+02 -0.74772E+07
 0.24949999E+02 -0.75122E+07
 0.24999998E+02 -0.73415E+07
 0.25049999E+02 -0.68660E+07
 0.25099998E+02 -0.63088E+07
 0.25149998E+02 -0.59205E+07
 0.25199999E+02 -0.56814E+07
 0.25249998E+02 -0.54774E+07
 0.25299999E+02 -0.51731E+07
 0.25349998E+02 -0.51512E+07
 0.25399998E+02 -0.53591E+07
 0.25449999E+02 -0.51874E+07
 0.25499998E+02 -0.51261E+07
 0.25549999E+02 -0.52931E+07
 0.25599998E+02 -0.56582E+07
 0.25649998E+02 -0.63279E+07
 0.25699999E+02 -0.68252E+07
 0.25749998E+02 -0.70943E+07
 0.25799999E+02 -0.72270E+07
 0.25849998E+02 -0.72276E+07
 0.25899998E+02 -0.73733E+07
 0.25949999E+02 -0.76440E+07
 0.25999998E+02 -0.79176E+07
 0.26049999E+02 -0.80711E+07
 0.26099998E+02 -0.79403E+07
 0.26149998E+02 -0.76254E+07
 0.26199999E+02 -0.71888E+07
 0.26249998E+02 -0.69301E+07
 0.26299999E+02 -0.68366E+07
 0.26349998E+02 -0.68247E+07
 0.26399998E+02 -0.69485E+07
 0.26449999E+02 -0.69253E+07
 0.26499998E+02 -0.68043E+07
 0.26549999E+02 -0.67882E+07
 0.26599998E+02 -0.69215E+07
 0.26649998E+02 -0.72710E+07
 0.26699999E+02 -0.74433E+07
 0.26749998E+02 -0.73934E+07
 0.26799999E+02 -0.73892E+07
 0.26849998E+02 -0.75065E+07
 0.26899998E+02 -0.76757E+07
 0.26949999E+02 -0.76046E+07
 0.26999998E+02 -0.74719E+07
 0.27049997E+02 -0.73525E+07
 0.27099998E+02 -0.71636E+07
 0.27149998E+02 -0.71521E+07
 0.27199999E+02 -0.73166E+07
 0.27249998E+02 -0.76134E+07
 0.27299997E+02 -0.78550E+07
 0.27349998E+02 -0.80495E+07
 0.27399998E+02 -0.83253E+07
 0.27449999E+02 -0.83729E+07
 0.27499998E+02 -0.83492E+07
 0.27549997E+02 -0.83605E+07
 0.27599998E+02 -0.83405E+07
 0.27649998E+02 -0.83540E+07
 0.27699999E+02 -0.83307E+07
 0.27749998E+02 -0.83556E+07
 0.27799997E+02 -0.83262E+07
 0.27849998E+02 -0.83724E+07
 0.27899998E+02 -0.79954E+07
 0.27949999E+02 -0.72057E+07
 0.27999998E+02 -0.64804E+07
 0.28049997E+02 -0.58117E+07
 0.28099998E+02 -0.54578E+07
 0.28149998E+02 -0.49429E+07
 0.28199999E+02 -0.48173E+07
 0.28249998E+02 -0.51178E+07
 0.28299997E+02 -0.55441E+07
 0.28349998E+02 -0.61511E+07
 0.28399998E+02 -0.66080E+07
 0.28449999E+02 -0.71809E+07
 0.28499998E+02 -0.76961E+07
 0.28549997E+02 -0.81195E+07
 0.28599998E+02 -0.83614E+07
 0.28649998E+02 -0.83504E+07
 0.28699999E+02 -0.83556E+07
 0.28749998E+02 -0.83502E+07
 0.28799997E+02 -0.83513E+07
 0.28849998E+02 -0.83444E+07
 0.28899998E+02 -0.79683E+07
 0.28949999E+02 -0.75409E+07
 0.28999998E+02 -0.72415E+07
 0.29049997E+02 -0.69112E+07
 0.29099998E+02 -0.67669E+07
 0.29149998E+02 -0.65037E+07
 0.29199999E+02 -0.62435E+07
 0.29249998E+02 -0.62432E+07
 0.29299997E+02 -0.63204E+07
 0.29349998E+02 -0.64103E+07
 0.29399998E+02 -0.64738E+07
 0.29449999E+02 -0.65463E+07
 0.29499998E+02 -0.65125E+07
 0.29549997E+02 -0.64390E+07
 0.29599998E+02 -0.65388E+07
 0.29649998E+02 -0.68154E+07
 0.29699999E+02 -0.72418E+07
 0.29749998E+02 -0.75102E+07
 0.29799997E+02 -0.79105E+07
 0.29849998E+02 -0.83347E+07
 0.29899998E+02 -0.83449E+07
 0.29949999E+02 -0.83454E+07
 0.29999998E+02 -0.83468E+07
 0.30049999E+02 -0.83460E+07
 0.30099998E+02 -0.83497E+07
 0.30149998E+02 -0.83472E+07
 0.30199997E+02 -0.83510E+07
 0.30249996E+02 -0.83467E+07
 0.30299999E+02 -0.83475E+07
 0.30349998E+02 -0.83435E+07
 0.30399998E+02 -0.83464E+07
 0.30449997E+02 -0.83440E+07
 0.30499996E+02 -0.83479E+07
 0.30549999E+02 -0.83470E+07
 0.30599998E+02 -0.83500E+07
 0.30649998E+02 -0.83477E+07
 0.30699997E+02 -0.83508E+07
 0.30749996E+02 -0.83465E+07
 0.30799999E+02 -0.83549E+07
 0.30849998E+02 -0.83215E+07
 0.30899998E+02 -0.82082E+07
 0.30949997E+02 -0.82555E+07
 0.30999996E+02 -0.83249E+07
 0.31049999E+02 -0.81290E+07
 0.31099998E+02 -0.79808E+07
 0.31149998E+02 -0.79387E+07
 0.31199997E+02 -0.79653E+07
 0.31249996E+02 -0.80396E+07
 0.31299999E+02 -0.80842E+07
 0.31349998E+02 -0.80211E+07
 0.31399998E+02 -0.77754E+07
 0.31449997E+02 -0.75447E+07
 0.31499996E+02 -0.73551E+07
 0.31549999E+02 -0.71766E+07
 0.31599998E+02 -0.69552E+07
 0.31649998E+02 -0.68083E+07
 0.31699997E+02 -0.67032E+07
 0.31749996E+02 -0.65869E+07
 0.31799999E+02 -0.66049E+07
 0.31849998E+02 -0.66503E+07
 0.31899998E+02 -0.67179E+07
 0.31949997E+02 -0.69729E+07
 0.31999996E+02 -0.73434E+07
 0.32049999E+02 -0.76967E+07
 0.32099998E+02 -0.81373E+07
 0.32149998E+02 -0.83589E+07
 0.32199997E+02 -0.83364E+07
 0.32249996E+02 -0.83446E+07
 0.32299999E+02 -0.83368E+07
 0.32349998E+02 -0.83411E+07
 0.32399998E+02 -0.83386E+07
 0.32449997E+02 -0.83420E+07
 0.32499996E+02 -0.83428E+07
 0.32549999E+02 -0.83459E+07
 0.32599998E+02 -0.83483E+07
 0.32649998E+02 -0.83509E+07
 0.32699997E+02 -0.83523E+07
 0.32749996E+02 -0.83535E+07
 0.32799999E+02 -0.83538E+07
 0.32849998E+02 -0.83539E+07
 0.32899998E+02 -0.83526E+07
 0.32949997E+02 -0.83525E+07
 0.32999996E+02 -0.83492E+07
 0.33049999E+02 -0.83488E+07
 0.33099998E+02 -0.83462E+07
 0.33149998E+02 -0.83442E+07
 0.33199997E+02 -0.83415E+07
 0.33249996E+02 -0.83407E+07
 0.33299999E+02 -0.83399E+07
 0.33349998E+02 -0.83399E+07
 0.33399998E+02 -0.83411E+07
 0.33449997E+02 -0.80043E+07
 0.33499996E+02 -0.74255E+07
 0.33549999E+02 -0.69289E+07
 0.33599998E+02 -0.64978E+07
 0.33649998E+02 -0.62173E+07
 0.33699997E+02 -0.60374E+07
 0.33749996E+02 -0.59328E+07
 0.33799999E+02 -0.59021E+07
 0.33849998E+02 -0.59108E+07
 0.33899998E+02 -0.60059E+07
 0.33949997E+02 -0.61680E+07
 0.33999996E+02 -0.64193E+07
 0.34049999E+02 -0.67858E+07
 0.34099998E+02 -0.71846E+07
 0.34149998E+02 -0.76850E+07
 0.34199997E+02 -0.82247E+07
 0.34249996E+02 -0.83598E+07
 0.34299999E+02 -0.83291E+07
 0.34349998E+02 -0.83492E+07
 0.34399998E+02 -0.83399E+07
 0.34449997E+02 -0.83529E+07
 0.34499996E+02 -0.83479E+07
 0.34549999E+02 -0.83558E+07
 0.34599998E+02 -0.83494E+07
 0.34649998E+02 -0.83536E+07
 0.34699997E+02 -0.83482E+07
 0.34749996E+02 -0.83504E+07
 0.34799999E+02 -0.83465E+07
 0.34849998E+02 -0.83470E+07
 0.34899998E+02 -0.83440E+07
 0.34949997E+02 -0.83424E+07
 0.34999996E+02 -0.83409E+07
 0.35049999E+02 -0.83365E+07
 0.35099998E+02 -0.83403E+07
 0.35149998E+02 -0.83344E+07
 0.35199997E+02 -0.83476E+07
 0.35249996E+02 -0.81000E+07
 0.35299999E+02 -0.77223E+07
 0.35349998E+02 -0.75130E+07
 0.35399998E+02 -0.74564E+07
 0.35449997E+02 -0.76224E+07
 0.35499996E+02 -0.78816E+07
 0.35549999E+02 -0.81249E+07
 0.35599998E+02 -0.83125E+07
 0.35649998E+02 -0.83490E+07
 0.35699997E+02 -0.83382E+07
 0.35749996E+02 -0.83408E+07
 0.35799999E+02 -0.83342E+07
 0.35849998E+02 -0.83376E+07
 0.35899998E+02 -0.83352E+07
 0.35949997E+02 -0.83372E+07
 0.35999996E+02 -0.83359E+07
 0.36049999E+02 -0.83372E+07
 0.36099998E+02 -0.83367E+07
 0.36149998E+02 -0.83379E+07
 0.36199997E+02 -0.83381E+07
 0.36249996E+02 -0.83393E+07
 0.36299999E+02 -0.83405E+07
 0.36349998E+02 -0.83405E+07
 0.36399998E+02 -0.83413E+07
 0.36449997E+02 -0.83420E+07
 0.36499996E+02 -0.83426E+07
 0.36549999E+02 -0.83422E+07
 0.36599998E+02 -0.83432E+07
 0.36649998E+02 -0.83372E+07
 0.36699997E+02 -0.83412E+07
 0.36749996E+02 -0.83442E+07
 0.36799999E+02 -0.83421E+07
 0.36849998E+02 -0.83425E+07
 0.36899998E+02 -0.83424E+07
 0.36949997E+02 -0.83429E+07
 0.36999996E+02 -0.83434E+07
 0.37049999E+02 -0.83432E+07
 0.37099998E+02 -0.83387E+07
 0.37149998E+02 -0.83327E+07
 0.37199997E+02 -0.83345E+07
 0.37249996E+02 -0.83436E+07
 0.37299999E+02 -0.83437E+07
 0.37349998E+02 -0.83438E+07
 0.37399998E+02 -0.83439E+07
 0.37449997E+02 -0.83437E+07
 0.37499996E+02 -0.83437E+07
 0.37549999E+02 -0.83424E+07
 0.37599998E+02 -0.83413E+07
 0.37649998E+02 -0.83401E+07
 0.37699997E+02 -0.83395E+07
 0.37749996E+02 -0.83383E+07
 0.37799999E+02 -0.83379E+07
 0.37849998E+02 -0.83378E+07
 0.37899998E+02 -0.83370E+07
 0.37949997E+02 -0.83356E+07
 0.37999996E+02 -0.83353E+07
 0.38049999E+02 -0.83360E+07
 0.38099998E+02 -0.83366E+07
 0.38149998E+02 -0.83369E+07
 0.38199997E+02 -0.83363E+07
 0.38249996E+02 -0.83365E+07
 0.38299999E+02 -0.83359E+07
 0.38349998E+02 -0.83364E+07
 0.38399998E+02 -0.83358E+07
 0.38449997E+02 -0.83363E+07
 0.38499996E+02 -0.83357E+07
 0.38549999E+02 -0.83362E+07
 0.38599998E+02 -0.83366E+07
 0.38649998E+02 -0.83391E+07
 0.38699997E+02 -0.83400E+07
 0.38749996E+02 -0.83414E+07
 0.38799999E+02 -0.83430E+07
 0.38849998E+02 -0.83426E+07
 0.38899998E+02 -0.83445E+07
 0.38949997E+02 -0.83413E+07
 0.38999996E+02 -0.83467E+07
 0.39049999E+02 -0.82591E+07
 0.39099998E+02 -0.81400E+07
 0.39149998E+02 -0.81725E+07
 0.39199997E+02 -0.83011E+07
 0.39249996E+02 -0.83495E+07
 0.39299999E+02 -0.83404E+07
 0.39349998E+02 -0.83444E+07
 0.39399998E+02 -0.83396E+07
 0.39449997E+02 -0.83397E+07
 0.39499996E+02 -0.83353E+07
 0.39549999E+02 -0.83364E+07
 0.39599998E+02 -0.83357E+07
 0.39649998E+02 -0.83361E+07
 0.39699997E+02 -0.83360E+07
 0.39749996E+02 -0.83360E+07
 0.39799999E+02 -0.83362E+07
 0.39849998E+02 -0.83359E+07
 0.39899998E+02 -0.83363E+07
 0.39949997E+02 -0.83361E+07
 0.39999996E+02 -0.83365E+07
 0.40049999E+02 -0.83364E+07
 0.40099998E+02 -0.83369E+07
 0.40149998E+02 -0.83364E+07
 0.40199997E+02 -0.83357E+07
 0.40249996E+02 -0.83353E+07
 0.40299999E+02 -0.83358E+07
 0.40349998E+02 -0.83364E+07
 0.40399998E+02 -0.83372E+07
 0.40449997E+02 -0.83383E+07
 0.40499996E+02 -0.83390E+07
 0.40549999E+02 -0.83390E+07
 0.40599998E+02 -0.83388E+07
 0.40649998E+02 -0.83388E+07
 0.40699997E+02 -0.83391E+07
 0.40749996E+02 -0.83396E+07
 0.40799999E+02 -0.83401E+07
 0.40849998E+02 -0.83398E+07
 0.40899998E+02 -0.83398E+07
 0.40949997E+02 -0.83397E+07
 0.40999996E+02 -0.83395E+07
 0.41049999E+02 -0.83392E+07
 0.41099998E+02 -0.83391E+07
 0.41149998E+02 -0.83379E+07
 0.41199997E+02 -0.83361E+07
 0.41249996E+02 -0.83361E+07
 0.41299999E+02 -0.83359E+07
 0.41349998E+02 -0.83360E+07
 0.41399998E+02 -0.83359E+07
 0.41449997E+02 -0.83360E+07
 0.41499996E+02 -0.83359E+07
 0.41549999E+02 -0.83361E+07
 0.41599998E+02 -0.83370E+07
 0.41649998E+02 -0.83381E+07
 0.41699997E+02 -0.83392E+07
 0.41749996E+02 -0.83402E+07
 0.41799999E+02 -0.83409E+07
 0.41849998E+02 -0.83406E+07
 0.41899998E+02 -0.83402E+07
 0.41949997E+02 -0.83396E+07
 0.41999996E+02 -0.83391E+07
 0.42049999E+02 -0.83386E+07
 0.42099998E+02 -0.83386E+07
 0.42149998E+02 -0.83380E+07
 0.42199997E+02 -0.83363E+07
 0.42249996E+02 -0.83358E+07
 0.42299999E+02 -0.83359E+07
 0.42349998E+02 -0.83359E+07
 0.42399998E+02 -0.83359E+07
 0.42449997E+02 -0.83359E+07
 0.42499996E+02 -0.83360E+07
 0.42549999E+02 -0.83360E+07
 0.42599998E+02 -0.83360E+07
 0.42649998E+02 -0.83355E+07
 0.42699997E+02 -0.83352E+07
 0.42749996E+02 -0.83357E+07
 0.42799995E+02 -0.83361E+07
 0.42849998E+02 -0.83369E+07
 0.42899998E+02 -0.83373E+07
 0.42949997E+02 -0.83381E+07
 0.42999996E+02 -0.83375E+07
 0.43049995E+02 -0.83373E+07
 0.43099998E+02 -0.83365E+07
 0.43149998E+02 -0.83367E+07
 0.43199997E+02 -0.83361E+07
 0.43249996E+02 -0.83364E+07
 0.43299995E+02 -0.83359E+07
 0.43349998E+02 -0.83361E+07
 0.43399998E+02 -0.83360E+07
 0.43449997E+02 -0.83358E+07
 0.43499996E+02 -0.83365E+07
 0.43549995E+02 -0.83382E+07
 0.43599998E+02 -0.83412E+07
 0.43649998E+02 -0.83409E+07
 0.43699997E+02 -0.83435E+07
 0.43749996E+02 -0.82224E+07
 0.43799995E+02 -0.80659E+07
 0.43849998E+02 -0.80104E+07
 0.43899998E+02 -0.79938E+07
 0.43949997E+02 -0.80338E+07
 0.43999996E+02 -0.81398E+07
 0.44049995E+02 -0.82898E+07
 0.44099998E+02 -0.83489E+07
 0.44149998E+02 -0.83386E+07
 0.44199997E+02 -0.83409E+07
 0.44249996E+02 -0.83348E+07
 0.44299995E+02 -0.83358E+07
 0.44349998E+02 -0.83347E+07
 0.44399998E+02 -0.83367E+07
 0.44449997E+02 -0.83368E+07
 0.44499996E+02 -0.83386E+07
 0.44549995E+02 -0.83388E+07
 0.44599998E+02 -0.83402E+07
 0.44649998E+02 -0.83408E+07
 0.44699997E+02 -0.83414E+07
 0.44749996E+02 -0.83420E+07
 0.44799995E+02 -0.83416E+07
 0.44849998E+02 -0.83408E+07
 0.44899998E+02 -0.83385E+07
 0.44949997E+02 -0.83384E+07
 0.44999996E+02 -0.83359E+07
 0.45049995E+02 -0.83383E+07
 0.45099998E+02 -0.83376E+07
 0.45149998E+02 -0.83431E+07
 0.45199997E+02 -0.83387E+07
 0.45249996E+02 -0.83509E+07
 0.45299995E+02 -0.82659E+07
 0.45349998E+02 -0.80476E+07
 0.45399998E+02 -0.78591E+07
 0.45449997E+02 -0.76890E+07
 0.45499996E+02 -0.75715E+07
 0.45549995E+02 -0.75326E+07
 0.45599998E+02 -0.75368E+07
 0.45649998E+02 -0.75613E+07
 0.45699997E+02 -0.76552E+07
 0.45749996E+02 -0.78375E+07
 0.45799995E+02 -0.80133E+07
 0.45849998E+02 -0.82299E+07
 0.45899998E+02 -0.83501E+07
 0.45949997E+02 -0.83381E+07
 0.45999996E+02 -0.83424E+07
 0.46049995E+02 -0.83374E+07
 0.46099998E+02 -0.83376E+07
 0.46149998E+02 -0.83363E+07
 0.46199997E+02 -0.83374E+07
 0.46249996E+02 -0.83376E+07
 0.46299995E+02 -0.83384E+07
 0.46349998E+02 -0.83397E+07
 0.46399998E+02 -0.83402E+07
 0.46449997E+02 -0.83408E+07
 0.46499996E+02 -0.83418E+07
 0.46549995E+02 -0.83434E+07
 0.46599998E+02 -0.83426E+07
 0.46649998E+02 -0.83428E+07
 0.46699997E+02 -0.83422E+07
 0.46749996E+02 -0.83426E+07
 0.46799995E+02 -0.83421E+07
 0.46849998E+02 -0.83413E+07
 0.46899998E+02 -0.83404E+07
 0.46949997E+02 -0.83400E+07
 0.46999996E+02 -0.83398E+07
 0.47049995E+02 -0.83389E+07
 0.47099998E+02 -0.83388E+07
 0.47149998E+02 -0.83386E+07
 0.47199997E+02 -0.83387E+07
 0.47249996E+02 -0.83389E+07
 0.47299995E+02 -0.83390E+07
 0.47349998E+02 -0.83401E+07
 0.47399998E+02 -0.83401E+07
 0.47449997E+02 -0.83421E+07
 0.47499996E+02 -0.83410E+07
 0.47549995E+02 -0.83441E+07
 0.47599998E+02 -0.83413E+07
 0.47649998E+02 -0.83472E+07
 0.47699997E+02 -0.83075E+07
 0.47749996E+02 -0.82338E+07
 0.47799995E+02 -0.82210E+07
 0.47849998E+02 -0.82839E+07
 0.47899998E+02 -0.83431E+07
 0.47949997E+02 -0.83429E+07
 0.47999996E+02 -0.83435E+07
 0.48049995E+02 -0.83420E+07
 0.48099998E+02 -0.83414E+07
 0.48149998E+02 -0.83409E+07
 0.48199997E+02 -0.83400E+07
 0.48249996E+02 -0.83396E+07
 0.48299995E+02 -0.83382E+07
 0.48349998E+02 -0.83384E+07
 0.48399998E+02 -0.83371E+07
 0.48449997E+02 -0.83372E+07
 0.48499996E+02 -0.83362E+07
 0.48549995E+02 -0.83373E+07
 0.48599998E+02 -0.83370E+07
 0.48649998E+02 -0.83384E+07
 0.48699997E+02 -0.83383E+07
 0.48749996E+02 -0.83400E+07
 0.48799995E+02 -0.83395E+07
 0.48849998E+02 -0.83401E+07
 0.48899998E+02 -0.83388E+07
 0.48949997E+02 -0.83396E+07
 0.48999996E+02 -0.83396E+07
 0.49049995E+02 -0.83415E+07
 0.49099998E+02 -0.83419E+07
 0.49149998E+02 -0.83427E+07
 0.49199997E+02 -0.83432E+07
 0.49249996E+02 -0.83436E+07
 0.49299995E+02 -0.83420E+07
 0.49349998E+02 -0.82434E+07
 0.49399998E+02 -0.81199E+07
 0.49449997E+02 -0.80359E+07
 0.49499996E+02 -0.79640E+07
 0.49549995E+02 -0.78945E+07
 0.49599998E+02 -0.78093E+07
 0.49649998E+02 -0.77257E+07
 0.49699997E+02 -0.76473E+07
 0.49749996E+02 -0.76059E+07
 0.49799995E+02 -0.76135E+07
 0.49849998E+02 -0.76857E+07
 0.49899998E+02 -0.77867E+07
 0.49949997E+02 -0.78801E+07
 0.49999996E+02 -0.79549E+07
 0.50049995E+02 -0.80268E+07
 0.50099998E+02 -0.81060E+07
 0.50149998E+02 -0.81950E+07
 0.50199997E+02 -0.83077E+07
 0.50249996E+02 -0.83477E+07
 0.50299995E+02 -0.83429E+07
 0.50349998E+02 -0.83455E+07
 0.50399998E+02 -0.83432E+07
 0.50449997E+02 -0.83432E+07
 0.50499996E+02 -0.83404E+07
 0.50549995E+02 -0.83421E+07
 0.50599998E+02 -0.83416E+07
 0.50649998E+02 -0.83428E+07
 0.50699997E+02 -0.83415E+07
 0.50749996E+02 -0.83411E+07
 0.50799995E+02 -0.83394E+07
 0.50849998E+02 -0.83390E+07
 0.50899998E+02 -0.83385E+07
 0.50949997E+02 -0.83403E+07
 0.50999996E+02 -0.83398E+07
 0.51049995E+02 -0.83423E+07
 0.51099998E+02 -0.83411E+07
 0.51149998E+02 -0.83467E+07
 0.51199997E+02 -0.83121E+07
 0.51249996E+02 -0.81884E+07
 0.51299995E+02 -0.80680E+07
 0.51349998E+02 -0.79731E+07
 0.51399998E+02 -0.79160E+07
 0.51449997E+02 -0.78818E+07
 0.51499996E+02 -0.78760E+07
 0.51549995E+02 -0.78990E+07
 0.51599998E+02 -0.79380E+07
 0.51649998E+02 -0.80094E+07
 0.51699997E+02 -0.81153E+07
 0.51749996E+02 -0.82838E+07
 0.51799995E+02 -0.83508E+07
 0.51849998E+02 -0.83385E+07
 0.51899998E+02 -0.83436E+07
 0.51949997E+02 -0.83383E+07
 0.51999996E+02 -0.83406E+07
 0.52049995E+02 -0.83381E+07
 0.52099998E+02 -0.83399E+07
 0.52149998E+02 -0.83391E+07
 0.52199997E+02 -0.83404E+07
 0.52249996E+02 -0.83407E+07
 0.52299995E+02 -0.83417E+07
 0.52349998E+02 -0.83426E+07
 0.52399998E+02 -0.83430E+07
 0.52449997E+02 -0.83443E+07
 0.52499996E+02 -0.83439E+07
 0.52549995E+02 -0.83448E+07
 0.52599998E+02 -0.83428E+07
 0.52649998E+02 -0.83436E+07
 0.52699997E+02 -0.83420E+07
 0.52749996E+02 -0.83426E+07
 0.52799995E+02 -0.83351E+07
 0.52849998E+02 -0.83205E+07
 0.52899998E+02 -0.83371E+07
 0.52949997E+02 -0.83485E+07
 0.52999996E+02 -0.83470E+07
 0.53049995E+02 -0.83483E+07
 0.53099998E+02 -0.83475E+07
 0.53149998E+02 -0.83482E+07
 0.53199997E+02 -0.83478E+07
 0.53249996E+02 -0.83469E+07
 0.53299995E+02 -0.83469E+07
 0.53349998E+02 -0.83450E+07
 0.53399998E+02 -0.83465E+07
 0.53449997E+02 -0.83434E+07
 0.53499996E+02 -0.83465E+07
 0.53549995E+02 -0.83411E+07
 0.53599998E+02 -0.83518E+07
 0.53649998E+02 -0.82844E+07
 0.53699997E+02 -0.80644E+07
 0.53749996E+02 -0.78397E+07
 0.53799995E+02 -0.76229E+07
 0.53849998E+02 -0.74261E+07
 0.53899998E+02 -0.72734E+07
 0.53949997E+02 -0.71519E+07
 0.53999996E+02 -0.70476E+07
 0.54049995E+02 -0.69579E+07
 0.54099998E+02 -0.68997E+07
 0.54149998E+02 -0.69093E+07
 0.54199997E+02 -0.70121E+07
 0.54249996E+02 -0.71898E+07
 0.54299995E+02 -0.74035E+07
 0.54349998E+02 -0.76153E+07
 0.54399998E+02 -0.78269E+07
 0.54449997E+02 -0.80308E+07
 0.54499996E+02 -0.82480E+07
 0.54549995E+02 -0.83501E+07
 0.54599998E+02 -0.83417E+07
 0.54649998E+02 -0.83465E+07
 0.54699997E+02 -0.83445E+07
 0.54749996E+02 -0.83480E+07
 0.54799995E+02 -0.83475E+07
 0.54849998E+02 -0.83492E+07
 0.54899998E+02 -0.83494E+07
 0.54949997E+02 -0.83502E+07
 0.54999996E+02 -0.83505E+07
 0.55049995E+02 -0.83508E+07
 0.55099998E+02 -0.83509E+07
 0.55149998E+02 -0.83504E+07
 0.55199997E+02 -0.83497E+07
 0.55249996E+02 -0.83483E+07
 0.55299995E+02 -0.83477E+07
 0.55349998E+02 -0.83470E+07
 0.55399998E+02 -0.83477E+07
 0.55449997E+02 -0.83475E+07
 0.55499996E+02 -0.83466E+07
 0.55549995E+02 -0.83053E+07
 0.55599998E+02 -0.82458E+07
 0.55649998E+02 -0.81819E+07
 0.55699997E+02 -0.81116E+07
 0.55749996E+02 -0.80458E+07
 0.55799995E+02 -0.79723E+07
 0.55849995E+02 -0.79118E+07
 0.55899998E+02 -0.78525E+07
 0.55949997E+02 -0.77772E+07
 0.55999996E+02 -0.76903E+07
 0.56049995E+02 -0.76021E+07
 0.56099995E+02 -0.75378E+07
 0.56149998E+02 -0.75002E+07
 0.56199997E+02 -0.74710E+07
 0.56249996E+02 -0.74499E+07
 0.56299995E+02 -0.74280E+07
 0.56349995E+02 -0.74066E+07
 0.56399998E+02 -0.74067E+07
 0.56449997E+02 -0.74317E+07
 0.56499996E+02 -0.74817E+07
 0.56549995E+02 -0.75503E+07
 0.56599995E+02 -0.76293E+07
 0.56649998E+02 -0.77212E+07
 0.56699997E+02 -0.78216E+07
 0.56749996E+02 -0.79375E+07
 0.56799995E+02 -0.80508E+07
 0.56849995E+02 -0.81323E+07
 0.56899998E+02 -0.81878E+07
 0.56949997E+02 -0.82374E+07
 0.56999996E+02 -0.83066E+07
 0.57049995E+02 -0.83475E+07
 0.57099995E+02 -0.83495E+07
 0.57149998E+02 -0.83438E+07
 0.57199997E+02 -0.83344E+07
 0.57249996E+02 -0.83202E+07
 0.57299995E+02 -0.82663E+07
 0.57349995E+02 -0.81938E+07
 0.57399998E+02 -0.81212E+07
 0.57449997E+02 -0.80382E+07
 0.57499996E+02 -0.79480E+07
 0.57549995E+02 -0.78637E+07
 0.57599995E+02 -0.77884E+07
 0.57649998E+02 -0.77277E+07
 0.57699997E+02 -0.76759E+07
 0.57749996E+02 -0.76205E+07
 0.57799995E+02 -0.75770E+07
 0.57849995E+02 -0.75505E+07
 0.57899998E+02 -0.75580E+07
 0.57949997E+02 -0.75908E+07
 0.57999996E+02 -0.76167E+07
 0.58049995E+02 -0.76282E+07
 0.58099995E+02 -0.76278E+07
 0.58149998E+02 -0.76112E+07
 0.58199997E+02 -0.75810E+07
 0.58249996E+02 -0.75393E+07
 0.58299995E+02 -0.74916E+07
 0.58349995E+02 -0.74506E+07
 0.58399998E+02 -0.74220E+07
 0.58449997E+02 -0.74234E+07
 0.58499996E+02 -0.74479E+07
 0.58549995E+02 -0.74823E+07
 0.58599995E+02 -0.75262E+07
 0.58649998E+02 -0.75726E+07
 0.58699997E+02 -0.76231E+07
 0.58749996E+02 -0.76762E+07
 0.58799995E+02 -0.77280E+07
 0.58849995E+02 -0.77727E+07
 0.58899998E+02 -0.78116E+07
 0.58949997E+02 -0.78473E+07
 0.58999996E+02 -0.78687E+07
 0.59049995E+02 -0.78705E+07
 0.59099995E+02 -0.78659E+07
 0.59149998E+02 -0.78558E+07
 0.59199997E+02 -0.78301E+07
 0.59249996E+02 -0.77971E+07
 0.59299995E+02 -0.77471E+07
 0.59349995E+02 -0.76832E+07
 0.59399998E+02 -0.76161E+07
 0.59449997E+02 -0.75395E+07
 0.59499996E+02 -0.74593E+07
 0.59549995E+02 -0.73907E+07
 0.59599995E+02 -0.73349E+07
 0.59649998E+02 -0.72868E+07
 0.59699997E+02 -0.72412E+07
 0.59749996E+02 -0.71875E+07
 0.59799995E+02 -0.71413E+07
 0.59849995E+02 -0.71229E+07
 0.59899998E+02 -0.71376E+07
 0.59949997E+02 -0.71836E+07
 0.59999996E+02 -0.72596E+07
 0.60049995E+02 -0.73570E+07
 0.60099995E+02 -0.74557E+07
 0.60149998E+02 -0.75358E+07
 0.60199997E+02 -0.76025E+07
 0.60249996E+02 -0.76657E+07
 0.60299995E+02 -0.77102E+07
 0.60349995E+02 -0.77155E+07
 0.60399998E+02 -0.76868E+07
 0.60449997E+02 -0.76407E+07
 0.60499996E+02 -0.75869E+07
 0.60549995E+02 -0.75347E+07
 0.60599995E+02 -0.74728E+07
 0.60649998E+02 -0.73915E+07
 0.60699997E+02 -0.72993E+07
 0.60749996E+02 -0.72071E+07
 0.60799995E+02 -0.71246E+07
 0.60849995E+02 -0.70615E+07
 0.60899998E+02 -0.70235E+07
 0.60949997E+02 -0.70015E+07
 0.60999996E+02 -0.69844E+07
 0.61049995E+02 -0.69690E+07
 0.61099995E+02 -0.69460E+07
 0.61149998E+02 -0.69119E+07
 0.61199997E+02 -0.68821E+07
 0.61249996E+02 -0.68657E+07
 0.61299995E+02 -0.68605E+07
 0.61349995E+02 -0.68596E+07
 0.61399998E+02 -0.68597E+07
 0.61449997E+02 -0.68519E+07
 0.61499996E+02 -0.68214E+07
 0.61549995E+02 -0.67807E+07
 0.61599995E+02 -0.67602E+07
 0.61649998E+02 -0.67619E+07
 0.61699997E+02 -0.67818E+07
 0.61749996E+02 -0.68200E+07
 0.61799995E+02 -0.68640E+07
 0.61849995E+02 -0.68939E+07
 0.61899998E+02 -0.69062E+07
 0.61949997E+02 -0.69065E+07
 0.61999996E+02 -0.68868E+07
 0.62049995E+02 -0.68546E+07
 0.62099998E+02 -0.68265E+07
 0.62149994E+02 -0.68116E+07
 0.62199997E+02 -0.67950E+07
 0.62249992E+02 -0.67722E+07
 0.62299995E+02 -0.67410E+07
 0.62349998E+02 -0.67051E+07
 0.62399994E+02 -0.66800E+07
 0.62449997E+02 -0.66643E+07
 0.62499992E+02 -0.66606E+07
 0.62549995E+02 -0.66726E+07
 0.62599998E+02 -0.66977E+07
 0.62649994E+02 -0.67304E+07
 0.62699997E+02 -0.67606E+07
 0.62749992E+02 -0.67808E+07
 0.62799995E+02 -0.67992E+07
 0.62849998E+02 -0.68217E+07
 0.62899994E+02 -0.68465E+07
 0.62949997E+02 -0.68608E+07
 0.62999992E+02 -0.68571E+07
 0.63049995E+02 -0.68510E+07
 0.63099998E+02 -0.68551E+07
 0.63149994E+02 -0.68618E+07
 0.63199997E+02 -0.68659E+07
 0.63249992E+02 -0.68683E+07
 0.63299995E+02 -0.68620E+07
 0.63349998E+02 -0.68420E+07
 0.63399994E+02 -0.68100E+07
 0.63449997E+02 -0.67717E+07
 0.63499992E+02 -0.67398E+07
 0.63549995E+02 -0.67108E+07
 0.63599998E+02 -0.66712E+07
 0.63649994E+02 -0.66227E+07
 0.63699997E+02 -0.65745E+07
 0.63749992E+02 -0.65351E+07
 0.63799995E+02 -0.65009E+07
 0.63849998E+02 -0.64738E+07
 0.63899994E+02 -0.64576E+07
 0.63949997E+02 -0.64543E+07
 0.63999992E+02 -0.64691E+07
 0.64049995E+02 -0.64938E+07
 0.64099998E+02 -0.65166E+07
 0.64149994E+02 -0.65373E+07
 0.64199997E+02 -0.65689E+07
 0.64249992E+02 -0.66124E+07
 0.64299995E+02 -0.66634E+07
 0.64349998E+02 -0.67184E+07
 0.64399994E+02 -0.67678E+07
 0.64449997E+02 -0.68160E+07
 0.64499992E+02 -0.68672E+07
 0.64549995E+02 -0.69153E+07
 0.64599998E+02 -0.69509E+07
 0.64649994E+02 -0.69629E+07
 0.64699997E+02 -0.69455E+07
 0.64749992E+02 -0.68988E+07
 0.64799995E+02 -0.68201E+07
 0.64849998E+02 -0.67128E+07
 0.64899994E+02 -0.65942E+07
 0.64949997E+02 -0.64697E+07
 0.64999992E+02 -0.63450E+07
 0.65049995E+02 -0.62318E+07
 0.65099998E+02 -0.61372E+07
 0.65149994E+02 -0.60655E+07
 0.65199997E+02 -0.60269E+07
 0.65249992E+02 -0.60257E+07
 0.65299995E+02 -0.60521E+07
 0.65349998E+02 -0.61010E+07
 0.65399994E+02 -0.61613E+07
 0.65449997E+02 -0.62162E+07
 0.65499992E+02 -0.62636E+07
 0.65549995E+02 -0.63105E+07
 0.65599998E+02 -0.63555E+07
 0.65649994E+02 -0.63935E+07
 0.65699997E+02 -0.64223E+07
 0.65749992E+02 -0.64324E+07
 0.65799995E+02 -0.64158E+07
 0.65849998E+02 -0.63895E+07
 0.65899994E+02 -0.63684E+07
 0.65949997E+02 -0.63527E+07
 0.65999992E+02 -0.63446E+07
 0.66049995E+02 -0.63430E+07
 0.66099998E+02 -0.63435E+07
 0.66149994E+02 -0.63392E+07
 0.66199997E+02 -0.63271E+07
 0.66249992E+02 -0.63125E+07
 0.66299995E+02 -0.63051E+07
 0.66349998E+02 -0.63076E+07
 0.66399994E+02 -0.63082E+07
 0.66449997E+02 -0.63020E+07
 0.66499992E+02 -0.62840E+07
 0.66549995E+02 -0.62500E+07
 0.66599998E+02 -0.62029E+07
 0.66649994E+02 -0.61434E+07
 0.66699997E+02 -0.60696E+07
 0.66749992E+02 -0.59871E+07
 0.66799995E+02 -0.59018E+07
 0.66849998E+02 -0.58136E+07
 0.66899994E+02 -0.57232E+07
 0.66949997E+02 -0.56350E+07
 0.66999992E+02 -0.55614E+07
 0.67049995E+02 -0.55033E+07
 0.67099998E+02 -0.54611E+07
 0.67149994E+02 -0.54366E+07
 0.67199997E+02 -0.54302E+07
 0.67249992E+02 -0.54357E+07
 0.67299995E+02 -0.54498E+07
 0.67349998E+02 -0.54810E+07
 0.67399994E+02 -0.55281E+07
 0.67449997E+02 -0.55862E+07
 0.67499992E+02 -0.56431E+07
 0.67549995E+02 -0.57015E+07
 0.67599998E+02 -0.57674E+07
 0.67649994E+02 -0.58244E+07
 0.67699997E+02 -0.58708E+07
 0.67749992E+02 -0.59150E+07
 0.67799995E+02 -0.59575E+07
 0.67849998E+02 -0.59871E+07
 0.67899994E+02 -0.60004E+07
 0.67949997E+02 -0.60076E+07
 0.67999992E+02 -0.60043E+07
 0.68049995E+02 -0.59795E+07
 0.68099998E+02 -0.59372E+07
 0.68149994E+02 -0.58969E+07
 0.68199997E+02 -0.58686E+07
 0.68249992E+02 -0.58449E+07
 0.68299995E+02 -0.58172E+07
 0.68349998E+02 -0.57845E+07
 0.68399994E+02 -0.57518E+07
 0.68449997E+02 -0.57274E+07
 0.68499992E+02 -0.57152E+07
 0.68549995E+02 -0.57090E+07
 0.68599998E+02 -0.56991E+07
 0.68649994E+02 -0.56824E+07
 0.68699997E+02 -0.56549E+07
 0.68749992E+02 -0.56110E+07
 0.68799995E+02 -0.55588E+07
 0.68849998E+02 -0.55137E+07
 0.68899994E+02 -0.54859E+07
 0.68949997E+02 -0.54752E+07
 0.68999992E+02 -0.54735E+07
 0.69049995E+02 -0.54748E+07
 0.69099998E+02 -0.54774E+07
 0.69149994E+02 -0.54877E+07
 0.69199997E+02 -0.55145E+07
 0.69249992E+02 -0.55573E+07
 0.69299995E+02 -0.56044E+07
 0.69349998E+02 -0.56482E+07
 0.69399994E+02 -0.56900E+07
 0.69449997E+02 -0.57237E+07
 0.69499992E+02 -0.57394E+07
 0.69549995E+02 -0.57340E+07
 0.69599998E+02 -0.57165E+07
 0.69649994E+02 -0.56925E+07
 0.69699997E+02 -0.56597E+07
 0.69749992E+02 -0.56173E+07
 0.69799995E+02 -0.55672E+07
 0.69849998E+02 -0.55148E+07
 0.69899994E+02 -0.54687E+07
 0.69949997E+02 -0.54305E+07
 0.69999992E+02 -0.53972E+07
 0.70049995E+02 -0.53729E+07
 0.70099998E+02 -0.53562E+07
 0.70149994E+02 -0.53385E+07
 0.70199997E+02 -0.53148E+07
 0.70249992E+02 -0.52851E+07
 0.70299995E+02 -0.52517E+07
 0.70349998E+02 -0.52167E+07
 0.70399994E+02 -0.51837E+07
 0.70449997E+02 -0.51529E+07
 0.70499992E+02 -0.51220E+07
 0.70549995E+02 -0.50902E+07
 0.70599998E+02 -0.50611E+07
 0.70649994E+02 -0.50372E+07
 0.70699997E+02 -0.50158E+07
 0.70749992E+02 -0.50005E+07
 0.70799995E+02 -0.49913E+07
 0.70849998E+02 -0.49865E+07
 0.70899994E+02 -0.49801E+07
 0.70949997E+02 -0.49641E+07
 0.70999992E+02 -0.49461E+07
 0.71049995E+02 -0.49332E+07
 0.71099998E+02 -0.49267E+07
 0.71149994E+02 -0.49218E+07
 0.71199997E+02 -0.49172E+07
 0.71249992E+02 -0.49180E+07
 0.71299995E+02 -0.49308E+07
 0.71349998E+02 -0.49555E+07
 0.71399994E+02 -0.49888E+07
 0.71449997E+02 -0.50289E+07
 0.71499992E+02 -0.50688E+07
 0.71549995E+02 -0.51036E+07
 0.71599998E+02 -0.51261E+07
 0.71649994E+02 -0.51351E+07
 0.71699997E+02 -0.51320E+07
 0.71749992E+02 -0.51130E+07
 0.71799995E+02 -0.50741E+07
 0.71849998E+02 -0.50185E+07
 0.71899994E+02 -0.49544E+07
 0.71949997E+02 -0.48869E+07
 0.71999992E+02 -0.48209E+07
 0.72049995E+02 -0.47650E+07
 0.72099998E+02 -0.47315E+07
 0.72149994E+02 -0.47250E+07
 0.72199997E+02 -0.47380E+07
 0.72249992E+02 -0.47614E+07
 0.72299995E+02 -0.47911E+07
 0.72349998E+02 -0.48236E+07
 0.72399994E+02 -0.48575E+07
 0.72449997E+02 -0.48918E+07
 0.72499992E+02 -0.49209E+07
 0.72549995E+02 -0.49470E+07
 0.72599998E+02 -0.49672E+07
 0.72649994E+02 -0.49714E+07
 0.72699997E+02 -0.49572E+07
 0.72749992E+02 -0.49359E+07
 0.72799995E+02 -0.49207E+07
 0.72849998E+02 -0.49144E+07
 0.72899994E+02 -0.49216E+07
 0.72949997E+02 -0.49391E+07
 0.72999992E+02 -0.49532E+07
 0.73049995E+02 -0.49607E+07
 0.73099998E+02 -0.49689E+07
 0.73149994E+02 -0.49761E+07
 0.73199997E+02 -0.49751E+07
 0.73249992E+02 -0.49690E+07
 0.73299995E+02 -0.49620E+07
 0.73349998E+02 -0.49483E+07
 0.73399994E+02 -0.49227E+07
 0.73449997E+02 -0.48868E+07
 0.73499992E+02 -0.48412E+07
 0.73549995E+02 -0.47824E+07
 0.73599998E+02 -0.47093E+07
 0.73649994E+02 -0.46245E+07
 0.73699997E+02 -0.45356E+07
 0.73749992E+02 -0.44604E+07
 0.73799995E+02 -0.44054E+07
 0.73849998E+02 -0.43632E+07
 0.73899994E+02 -0.43289E+07
 0.73949997E+02 -0.43014E+07
 0.73999992E+02 -0.42876E+07
 0.74049995E+02 -0.42931E+07
 0.74099998E+02 -0.43172E+07
 0.74149994E+02 -0.43594E+07
 0.74199997E+02 -0.44053E+07
 0.74249992E+02 -0.44385E+07
 0.74299995E+02 -0.44566E+07
 0.74349998E+02 -0.44629E+07
 0.74399994E+02 -0.44637E+07
 0.74449997E+02 -0.44610E+07
 0.74499992E+02 -0.44568E+07
 0.74549995E+02 -0.44494E+07
 0.74599998E+02 -0.44360E+07
 0.74649994E+02 -0.44158E+07
 0.74699997E+02 -0.43850E+07
 0.74749992E+02 -0.43467E+07
 0.74799995E+02 -0.43124E+07
 0.74849998E+02 -0.42848E+07
 0.74899994E+02 -0.42638E+07
 0.74949997E+02 -0.42484E+07
 0.74999992E+02 -0.42339E+07
 0.75049995E+02 -0.42220E+07
 0.75099998E+02 -0.42102E+07
 0.75149994E+02 -0.42004E+07
 0.75199997E+02 -0.41998E+07
 0.75249992E+02 -0.42036E+07
 0.75299995E+02 -0.42051E+07
 0.75349998E+02 -0.42064E+07
 0.75399994E+02 -0.42079E+07
 0.75449997E+02 -0.42088E+07
 0.75499992E+02 -0.42097E+07
 0.75549995E+02 -0.42079E+07
 0.75599998E+02 -0.42004E+07
 0.75649994E+02 -0.41919E+07
 0.75699997E+02 -0.41816E+07
 0.75749992E+02 -0.41623E+07
 0.75799995E+02 -0.41359E+07
 0.75849998E+02 -0.41116E+07
 0.75899994E+02 -0.40936E+07
 0.75949997E+02 -0.40779E+07
 0.75999992E+02 -0.40643E+07
 0.76049995E+02 -0.40520E+07
 0.76099998E+02 -0.40385E+07
 0.76149994E+02 -0.40261E+07
 0.76199997E+02 -0.40169E+07
 0.76249992E+02 -0.40116E+07
 0.76299995E+02 -0.40127E+07
 0.76349998E+02 -0.40218E+07
 0.76399994E+02 -0.40367E+07
 0.76449997E+02 -0.40528E+07
 0.76499992E+02 -0.40659E+07
 0.76549995E+02 -0.40773E+07
 0.76599998E+02 -0.40879E+07
 0.76649994E+02 -0.40970E+07
 0.76699997E+02 -0.41069E+07
 0.76749992E+02 -0.41208E+07
 0.76799995E+02 -0.41354E+07
 0.76849998E+02 -0.41481E+07
 0.76899994E+02 -0.41576E+07
 0.76949997E+02 -0.41585E+07
 0.76999992E+02 -0.41494E+07
 0.77049995E+02 -0.41328E+07
 0.77099998E+02 -0.41100E+07
 0.77149994E+02 -0.40771E+07
 0.77199997E+02 -0.40374E+07
 0.77249992E+02 -0.39933E+07
 0.77299995E+02 -0.39445E+07
 0.77349998E+02 -0.38965E+07
 0.77399994E+02 -0.38495E+07
 0.77449997E+02 -0.38000E+07
 0.77499992E+02 -0.37458E+07
 0.77549995E+02 -0.36939E+07
 0.77599998E+02 -0.36537E+07
 0.77649994E+02 -0.36283E+07
 0.77699997E+02 -0.36147E+07
 0.77749992E+02 -0.36113E+07
 0.77799995E+02 -0.36189E+07
 0.77849998E+02 -0.36330E+07
 0.77899994E+02 -0.36493E+07
 0.77949997E+02 -0.36669E+07
 0.77999992E+02 -0.36875E+07
 0.78049995E+02 -0.37146E+07
 0.78099998E+02 -0.37528E+07
 0.78149994E+02 -0.37984E+07
 0.78199997E+02 -0.38455E+07
 0.78249992E+02 -0.38925E+07
 0.78299995E+02 -0.39370E+07
 0.78349998E+02 -0.39725E+07
 0.78399994E+02 -0.39931E+07
 0.78449997E+02 -0.40013E+07
 0.78499992E+02 -0.40042E+07
 0.78549995E+02 -0.39985E+07
 0.78599998E+02 -0.39777E+07
 0.78649994E+02 -0.39468E+07
 0.78699997E+02 -0.39053E+07
 0.78749992E+02 -0.38496E+07
 0.78799995E+02 -0.37821E+07
 0.78849998E+02 -0.37118E+07
 0.78899994E+02 -0.36461E+07
 0.78949997E+02 -0.35844E+07
 0.78999992E+02 -0.35258E+07
 0.79049995E+02 -0.34723E+07
 0.79099998E+02 -0.34249E+07
 0.79149994E+02 -0.33792E+07
 0.79199997E+02 -0.33351E+07
 0.79249992E+02 -0.32955E+07
 0.79299995E+02 -0.32656E+07
 0.79349998E+02 -0.32440E+07
 0.79399994E+02 -0.32240E+07
 0.79449997E+02 -0.32059E+07
 0.79499992E+02 -0.31925E+07
 0.79549995E+02 -0.31863E+07
 0.79599998E+02 -0.31863E+07
 0.79649994E+02 -0.31895E+07
 0.79699997E+02 -0.31937E+07
 0.79749992E+02 -0.31957E+07
 0.79799995E+02 -0.31917E+07
 0.79849998E+02 -0.31822E+07
 0.79899994E+02 -0.31732E+07
 0.79949997E+02 -0.31703E+07
 0.79999992E+02 -0.31720E+07
 0.80049995E+02 -0.31763E+07
 0.80099998E+02 -0.31848E+07
 0.80149994E+02 -0.31996E+07
 0.80199997E+02 -0.32220E+07
 0.80249992E+02 -0.32498E+07
 0.80299995E+02 -0.32777E+07
 0.80349998E+02 -0.32992E+07
 0.80399994E+02 -0.33126E+07
 0.80449997E+02 -0.33258E+07
 0.80499992E+02 -0.33443E+07
 0.80549995E+02 -0.33665E+07
 0.80599998E+02 -0.33917E+07
 0.80649994E+02 -0.34140E+07
 0.80699997E+02 -0.34258E+07
 0.80749992E+02 -0.34262E+07
 0.80799995E+02 -0.34193E+07
 0.80849998E+02 -0.34128E+07
 0.80899994E+02 -0.34107E+07
 0.80949997E+02 -0.34131E+07
 0.80999992E+02 -0.34181E+07
 0.81049995E+02 -0.34253E+07
 0.81099998E+02 -0.34320E+07
 0.81149994E+02 -0.34317E+07
 0.81199997E+02 -0.34184E+07
 0.81249992E+02 -0.33939E+07
 0.81299995E+02 -0.33620E+07
 0.81349998E+02 -0.33265E+07
 0.81399994E+02 -0.32928E+07
 0.81449997E+02 -0.32612E+07
 0.81499992E+02 -0.32284E+07
 0.81549995E+02 -0.31928E+07
 0.81599998E+02 -0.31598E+07
 0.81649994E+02 -0.31347E+07
 0.81699997E+02 -0.31208E+07
 0.81749992E+02 -0.31141E+07
 0.81799995E+02 -0.31079E+07
 0.81849998E+02 -0.31024E+07
 0.81899994E+02 -0.30964E+07
 0.81949997E+02 -0.30833E+07
 0.81999992E+02 -0.30589E+07
 0.82049995E+02 -0.30291E+07
 0.82099998E+02 -0.30026E+07
 0.82149994E+02 -0.29840E+07
 0.82199997E+02 -0.29734E+07
 0.82249992E+02 -0.29671E+07
 0.82299995E+02 -0.29613E+07
 0.82349998E+02 -0.29536E+07
 0.82399994E+02 -0.29477E+07
 0.82449997E+02 -0.29454E+07
 0.82499992E+02 -0.29451E+07
 0.82549995E+02 -0.29462E+07
 0.82599998E+02 -0.29473E+07
 0.82649994E+02 -0.29475E+07
 0.82699997E+02 -0.29419E+07
 0.82749992E+02 -0.29260E+07
 0.82799995E+02 -0.29008E+07
 0.82849998E+02 -0.28700E+07
 0.82899994E+02 -0.28381E+07
 0.82949997E+02 -0.28079E+07
 0.82999992E+02 -0.27838E+07
 0.83049995E+02 -0.27657E+07
 0.83099998E+02 -0.27477E+07
 0.83149994E+02 -0.27304E+07
 0.83199997E+02 -0.27202E+07
 0.83249992E+02 -0.27185E+07
 0.83299995E+02 -0.27236E+07
 0.83349998E+02 -0.27357E+07
 0.83399994E+02 -0.27543E+07
 0.83449997E+02 -0.27734E+07
 0.83499992E+02 -0.27885E+07
 0.83549995E+02 -0.27987E+07
 0.83599998E+02 -0.28057E+07
 0.83649994E+02 -0.28105E+07
 0.83699997E+02 -0.28144E+07
 0.83749992E+02 -0.28214E+07
 0.83799995E+02 -0.28319E+07
 0.83849998E+02 -0.28464E+07
 0.83899994E+02 -0.28627E+07
 0.83949997E+02 -0.28782E+07
 0.83999992E+02 -0.28933E+07
 0.84049995E+02 -0.29041E+07
 0.84099998E+02 -0.29042E+07
 0.84149994E+02 -0.28949E+07
 0.84199997E+02 -0.28816E+07
 0.84249992E+02 -0.28670E+07
 0.84299995E+02 -0.28503E+07
 0.84349998E+02 -0.28278E+07
 0.84399994E+02 -0.27977E+07
 0.84449997E+02 -0.27636E+07
 0.84499992E+02 -0.27319E+07
 0.84549995E+02 -0.27034E+07
 0.84599998E+02 -0.26745E+07
 0.84649994E+02 -0.26426E+07
 0.84699997E+02 -0.26096E+07
 0.84749992E+02 -0.25753E+07
 0.84799995E+02 -0.25383E+07
 0.84849998E+02 -0.25039E+07
 0.84899994E+02 -0.24770E+07
 0.84949997E+02 -0.24591E+07
 0.84999992E+02 -0.24447E+07
 0.85049995E+02 -0.24266E+07
 0.85099998E+02 -0.24033E+07
 0.85149994E+02 -0.23786E+07
 0.85199997E+02 -0.23572E+07
 0.85249992E+02 -0.23405E+07
 0.85299995E+02 -0.23280E+07
 0.85349998E+02 -0.23213E+07
 0.85399994E+02 -0.23218E+07
 0.85449997E+02 -0.23269E+07
 0.85499992E+02 -0.23352E+07
 0.85549995E+02 -0.23460E+07
 0.85599998E+02 -0.23566E+07
 0.85649994E+02 -0.23645E+07
 0.85699997E+02 -0.23687E+07
 0.85749992E+02 -0.23705E+07
 0.85799995E+02 -0.23711E+07
 0.85849998E+02 -0.23740E+07
 0.85899994E+02 -0.23783E+07
 0.85949997E+02 -0.23796E+07
 0.85999992E+02 -0.23793E+07
 0.86049995E+02 -0.23773E+07
 0.86099998E+02 -0.23710E+07
 0.86149994E+02 -0.23599E+07
 0.86199997E+02 -0.23472E+07
 0.86249992E+02 -0.23382E+07
 0.86299995E+02 -0.23353E+07
 0.86349998E+02 -0.23366E+07
 0.86399994E+02 -0.23450E+07
 0.86449997E+02 -0.23626E+07
 0.86499992E+02 -0.23836E+07
 0.86549995E+02 -0.24031E+07
 0.86599998E+02 -0.24173E+07
 0.86649994E+02 -0.24236E+07
 0.86699997E+02 -0.24210E+07
 0.86749992E+02 -0.24125E+07
 0.86799995E+02 -0.24018E+07
 0.86849998E+02 -0.23877E+07
 0.86899994E+02 -0.23674E+07
 0.86949997E+02 -0.23403E+07
 0.86999992E+02 -0.23101E+07
 0.87049995E+02 -0.22800E+07
 0.87099998E+02 -0.22517E+07
 0.87149994E+02 -0.22256E+07
 0.87199997E+02 -0.22026E+07
 0.87249992E+02 -0.21851E+07
 0.87299995E+02 -0.21715E+07
 0.87349998E+02 -0.21592E+07
 0.87399994E+02 -0.21502E+07
 0.87449997E+02 -0.21460E+07
 0.87499992E+02 -0.21462E+07
 0.87549995E+02 -0.21480E+07
 0.87599991E+02 -0.21504E+07
 0.87649994E+02 -0.21515E+07
 0.87699997E+02 -0.21492E+07
 0.87749992E+02 -0.21449E+07
 0.87799995E+02 -0.21379E+07
 0.87849991E+02 -0.21282E+07
 0.87899994E+02 -0.21209E+07
 0.87949997E+02 -0.21160E+07
 0.87999992E+02 -0.21119E+07
 0.88049995E+02 -0.21112E+07
 0.88099991E+02 -0.21144E+07
 0.88149994E+02 -0.21187E+07
 0.88199997E+02 -0.21186E+07
 0.88249992E+02 -0.21121E+07
 0.88299995E+02 -0.21013E+07
 0.88349991E+02 -0.20864E+07
 0.88399994E+02 -0.20684E+07
 0.88449997E+02 -0.20457E+07
 0.88499992E+02 -0.20165E+07
 0.88549995E+02 -0.19847E+07
 0.88599991E+02 -0.19536E+07
 0.88649994E+02 -0.19261E+07
 0.88699997E+02 -0.19053E+07
 0.88749992E+02 -0.18914E+07
 0.88799995E+02 -0.18826E+07
 0.88849991E+02 -0.18751E+07
 0.88899994E+02 -0.18655E+07
 0.88949997E+02 -0.18560E+07
 0.88999992E+02 -0.18475E+07
 0.89049995E+02 -0.18389E+07
 0.89099991E+02 -0.18295E+07
 0.89149994E+02 -0.18190E+07
 0.89199997E+02 -0.18099E+07
 0.89249992E+02 -0.18008E+07
 0.89299995E+02 -0.17902E+07
 0.89349991E+02 -0.17806E+07
 0.89399994E+02 -0.17715E+07
 0.89449997E+02 -0.17647E+07
 0.89499992E+02 -0.17650E+07
 0.89549995E+02 -0.17731E+07
 0.89599991E+02 -0.17868E+07
 0.89649994E+02 -0.18009E+07
 0.89699997E+02 -0.18126E+07
 0.89749992E+02 -0.18220E+07
 0.89799995E+02 -0.18291E+07
 0.89849991E+02 -0.18351E+07
 0.89899994E+02 -0.18437E+07
 0.89949997E+02 -0.18544E+07
 0.89999992E+02 -0.18657E+07
 0.90049995E+02 -0.18775E+07
 0.90099991E+02 -0.18884E+07
 0.90149994E+02 -0.18976E+07
 0.90199997E+02 -0.19061E+07
 0.90249992E+02 -0.19150E+07
 0.90299995E+02 -0.19212E+07
 0.90349991E+02 -0.19224E+07
 0.90399994E+02 -0.19195E+07
 0.90449997E+02 -0.19126E+07
 0.90499992E+02 -0.19012E+07
 0.90549995E+02 -0.18843E+07
 0.90599991E+02 -0.18607E+07
 0.90649994E+02 -0.18320E+07
 0.90699997E+02 -0.18042E+07
 0.90749992E+02 -0.17805E+07
 0.90799995E+02 -0.17580E+07
 0.90849991E+02 -0.17375E+07
 0.90899994E+02 -0.17224E+07
 0.90949997E+02 -0.17134E+07
 0.90999992E+02 -0.17065E+07
 0.91049995E+02 -0.16986E+07
 0.91099991E+02 -0.16902E+07
 0.91149994E+02 -0.16806E+07
 0.91199997E+02 -0.16684E+07
 0.91249992E+02 -0.16559E+07
 0.91299995E+02 -0.16444E+07
 0.91349991E+02 -0.16324E+07
 0.91399994E+02 -0.16189E+07
 0.91449997E+02 -0.16062E+07
 0.91499992E+02 -0.15962E+07
 0.91549995E+02 -0.15885E+07
 0.91599991E+02 -0.15816E+07
 0.91649994E+02 -0.15744E+07
 0.91699997E+02 -0.15684E+07
 0.91749992E+02 -0.15654E+07
 0.91799995E+02 -0.15669E+07
 0.91849991E+02 -0.15730E+07
 0.91899994E+02 -0.15829E+07
 0.91949997E+02 -0.15953E+07
 0.91999992E+02 -0.16081E+07
 0.92049995E+02 -0.16181E+07
 0.92099991E+02 -0.16216E+07
 0.92149994E+02 -0.16194E+07
 0.92199997E+02 -0.16164E+07
 0.92249992E+02 -0.16123E+07
 0.92299995E+02 -0.16060E+07
 0.92349991E+02 -0.15998E+07
 0.92399994E+02 -0.15961E+07
 0.92449997E+02 -0.15931E+07
 0.92499992E+02 -0.15873E+07
 0.92549995E+02 -0.15740E+07
 0.92599991E+02 -0.15507E+07
 0.92649994E+02 -0.15203E+07
 0.92699997E+02 -0.14862E+07
 0.92749992E+02 -0.14513E+07
 0.92799995E+02 -0.14156E+07
 0.92849991E+02 -0.13793E+07
 0.92899994E+02 -0.13449E+07
 0.92949997E+02 -0.13135E+07
 0.92999992E+02 -0.12877E+07
 0.93049995E+02 -0.12683E+07
 0.93099991E+02 -0.12568E+07
 0.93149994E+02 -0.12524E+07
 0.93199997E+02 -0.12513E+07
 0.93249992E+02 -0.12525E+07
 0.93299995E+02 -0.12559E+07
 0.93349991E+02 -0.12616E+07
 0.93399994E+02 -0.12709E+07
 0.93449997E+02 -0.12849E+07
 0.93499992E+02 -0.13006E+07
 0.93549995E+02 -0.13137E+07
 0.93599991E+02 -0.13205E+07
 0.93649994E+02 -0.13216E+07
 0.93699997E+02 -0.13200E+07
 0.93749992E+02 -0.13126E+07
 0.93799995E+02 -0.12977E+07
 0.93849991E+02 -0.12785E+07
 0.93899994E+02 -0.12592E+07
 0.93949997E+02 -0.12436E+07
 0.93999992E+02 -0.12321E+07
 0.94049995E+02 -0.12255E+07
 0.94099991E+02 -0.12236E+07
 0.94149994E+02 -0.12259E+07
 0.94199997E+02 -0.12324E+07
 0.94249992E+02 -0.12414E+07
 0.94299995E+02 -0.12526E+07
 0.94349991E+02 -0.12653E+07
 0.94399994E+02 -0.12768E+07
 0.94449997E+02 -0.12879E+07
 0.94499992E+02 -0.13009E+07
 0.94549995E+02 -0.13155E+07
 0.94599991E+02 -0.13321E+07
 0.94649994E+02 -0.13489E+07
 0.94699997E+02 -0.13602E+07
 0.94749992E+02 -0.13629E+07
 0.94799995E+02 -0.13572E+07
 0.94849991E+02 -0.13473E+07
 0.94899994E+02 -0.13381E+07
 0.94949997E+02 -0.13288E+07
 0.94999992E+02 -0.13165E+07
 0.95049995E+02 -0.13030E+07
 0.95099991E+02 -0.12899E+07
 0.95149994E+02 -0.12755E+07
 0.95199997E+02 -0.12563E+07
 0.95249992E+02 -0.12321E+07
 0.95299995E+02 -0.12050E+07
 0.95349991E+02 -0.11765E+07
 0.95399994E+02 -0.11480E+07
 0.95449997E+02 -0.11208E+07
 0.95499992E+02 -0.10981E+07
 0.95549995E+02 -0.10803E+07
 0.95599991E+02 -0.10636E+07
 0.95649994E+02 -0.10461E+07
 0.95699997E+02 -0.10293E+07
 0.95749992E+02 -0.10166E+07
 0.95799995E+02 -0.10111E+07
 0.95849991E+02 -0.10125E+07
 0.95899994E+02 -0.10174E+07
 0.95949997E+02 -0.10231E+07
 0.95999992E+02 -0.10301E+07
 0.96049995E+02 -0.10410E+07
 0.96099991E+02 -0.10553E+07
 0.96149994E+02 -0.10721E+07
 0.96199997E+02 -0.10924E+07
 0.96249992E+02 -0.11164E+07
 0.96299995E+02 -0.11402E+07
 0.96349991E+02 -0.11601E+07
 0.96399994E+02 -0.11757E+07
 0.96449997E+02 -0.11885E+07
 0.96499992E+02 -0.11978E+07
 0.96549995E+02 -0.12013E+07
 0.96599991E+02 -0.11973E+07
 0.96649994E+02 -0.11841E+07
 0.96699997E+02 -0.11635E+07
 0.96749992E+02 -0.11373E+07
 0.96799995E+02 -0.11059E+07
 0.96849991E+02 -0.10705E+07
 0.96899994E+02 -0.10349E+07
 0.96949997E+02 -0.10011E+07
 0.96999992E+02 -0.96790E+06
 0.97049995E+02 -0.93599E+06
 0.97099991E+02 -0.90741E+06
 0.97149994E+02 -0.88364E+06
 0.97199997E+02 -0.86585E+06
 0.97249992E+02 -0.85684E+06
 0.97299995E+02 -0.85677E+06
 0.97349991E+02 -0.86301E+06
 0.97399994E+02 -0.87317E+06
 0.97449997E+02 -0.88769E+06
 0.97499992E+02 -0.90732E+06
 0.97549995E+02 -0.93078E+06
 0.97599991E+02 -0.95701E+06
 0.97649994E+02 -0.98380E+06
 0.97699997E+02 -0.10083E+07
 0.97749992E+02 -0.10282E+07
 0.97799995E+02 -0.10416E+07
 0.97849991E+02 -0.10490E+07
 0.97899994E+02 -0.10501E+07
 0.97949997E+02 -0.10413E+07
 0.97999992E+02 -0.10226E+07
