-0.19969940E+01  0.11646E+05
-0.19469941E+01  0.11609E+05
-0.18969940E+01  0.11678E+05
-0.18469940E+01  0.11723E+05
-0.17969940E+01  0.11785E+05
-0.17469940E+01  0.11847E+05
-0.16969941E+01  0.11908E+05
-0.16469941E+01  0.11927E+05
-0.15969940E+01  0.11902E+05
-0.15469940E+01  0.11861E+05
-0.14969940E+01  0.11825E+05
-0.14469941E+01  0.11784E+05
-0.13969941E+01  0.11751E+05
-0.13469940E+01  0.11708E+05
-0.12969941E+01  0.11657E+05
-0.12469940E+01  0.11609E+05
-0.11969941E+01  0.11574E+05
-0.11469941E+01  0.11545E+05
-0.10969940E+01  0.11520E+05
-0.10469941E+01  0.11518E+05
-0.99699408E+00  0.11504E+05
-0.94699407E+00  0.11491E+05
-0.89699411E+00  0.11480E+05
-0.84699404E+00  0.11480E+05
-0.79699409E+00  0.11483E+05
-0.74699414E+00  0.11488E+05
-0.69699407E+00  0.11511E+05
-0.64699411E+00  0.11503E+05
-0.59699416E+00  0.11495E+05
-0.54699409E+00  0.11492E+05
-0.49699414E+00  0.11485E+05
-0.44699407E+00  0.11507E+05
-0.39699411E+00  0.11539E+05
-0.34699416E+00  0.11604E+05
-0.29699409E+00  0.11667E+05
-0.24699414E+00  0.11743E+05
-0.19699407E+00  0.11846E+05
-0.14699411E+00  0.11941E+05
-0.96994162E-01  0.12012E+05
-0.46994090E-01  0.12055E+05
 0.30058622E-02  0.12073E+05
 0.53005934E-01  0.12049E+05
 0.10300589E+00  0.12001E+05
 0.15300584E+00  0.11945E+05
 0.20300579E+00  0.11890E+05
 0.25300574E+00  0.11842E+05
 0.30300593E+00  0.11774E+05
 0.35300589E+00  0.11709E+05
 0.40300584E+00  0.11635E+05
 0.45300579E+00  0.11562E+05
 0.50300574E+00  0.11532E+05
 0.55300593E+00  0.11532E+05
 0.60300589E+00  0.11556E+05
 0.65300584E+00  0.11590E+05
 0.70300579E+00  0.11638E+05
 0.75300574E+00  0.11683E+05
 0.80300570E+00  0.11720E+05
 0.85300589E+00  0.11755E+05
 0.90300584E+00  0.11781E+05
 0.95300579E+00  0.11815E+05
 0.10030057E+01  0.11851E+05
 0.10530057E+01  0.11849E+05
 0.11030059E+01  0.11837E+05
 0.11530058E+01  0.11801E+05
 0.12030058E+01  0.11749E+05
 0.12530057E+01  0.11689E+05
 0.13030057E+01  0.11615E+05
 0.13530059E+01  0.11544E+05
 0.14030058E+01  0.11462E+05
 0.14530058E+01  0.11400E+05
 0.15030057E+01  0.11346E+05
 0.15530057E+01  0.11302E+05
 0.16030059E+01  0.11270E+05
 0.16530058E+01  0.11271E+05
 0.17030058E+01  0.11307E+05
 0.17530057E+01  0.11368E+05
 0.18030057E+01  0.11448E+05
 0.18530056E+01  0.11520E+05
 0.19030058E+01  0.11596E+05
 0.19530058E+01  0.11690E+05
 0.20030057E+01  0.11788E+05
 0.20530057E+01  0.11881E+05
 0.21030059E+01  0.11960E+05
 0.21530056E+01  0.12005E+05
 0.22030058E+01  0.12015E+05
 0.22530055E+01  0.11978E+05
 0.23030057E+01  0.11937E+05
 0.23530059E+01  0.11888E+05
 0.24030056E+01  0.11818E+05
 0.24530058E+01  0.11786E+05
 0.25030055E+01  0.11747E+05
 0.25530057E+01  0.11700E+05
 0.26030059E+01  0.11651E+05
 0.26530056E+01  0.11610E+05
 0.27030058E+01  0.11589E+05
 0.27530055E+01  0.11562E+05
 0.28030057E+01  0.11556E+05
 0.28530059E+01  0.11561E+05
 0.29030056E+01  0.11575E+05
 0.29530058E+01  0.11582E+05
 0.30030055E+01  0.11578E+05
 0.30530057E+01  0.11583E+05
 0.31030059E+01  0.11596E+05
 0.31530056E+01  0.11638E+05
 0.32030058E+01  0.11691E+05
 0.32530055E+01  0.11735E+05
 0.33030057E+01  0.11774E+05
 0.33530059E+01  0.11811E+05
 0.34030056E+01  0.11828E+05
 0.34530058E+01  0.11831E+05
 0.35030055E+01  0.11820E+05
 0.35530057E+01  0.11787E+05
 0.36030054E+01  0.11751E+05
 0.36530056E+01  0.11696E+05
 0.37030058E+01  0.11654E+05
 0.37530055E+01  0.11619E+05
 0.38030057E+01  0.11587E+05
 0.38530054E+01  0.11551E+05
 0.39030056E+01  0.11509E+05
 0.39530058E+01  0.11473E+05
 0.40030055E+01  0.11439E+05
 0.40530057E+01  0.11426E+05
 0.41030054E+01  0.11425E+05
 0.41530056E+01  0.11450E+05
 0.42030058E+01  0.11498E+05
 0.42530055E+01  0.11538E+05
 0.43030057E+01  0.11572E+05
 0.43530054E+01  0.11611E+05
 0.44030056E+01  0.11638E+05
 0.44530058E+01  0.11673E+05
 0.45030055E+01  0.11734E+05
 0.45530057E+01  0.11779E+05
 0.46030054E+01  0.11833E+05
 0.46530056E+01  0.11888E+05
 0.47030058E+01  0.11925E+05
 0.47530055E+01  0.11953E+05
 0.48030057E+01  0.11922E+05
 0.48530054E+01  0.11880E+05
 0.49030056E+01  0.11833E+05
 0.49530058E+01  0.11759E+05
 0.50030055E+01  0.11682E+05
 0.50530057E+01  0.11610E+05
 0.51030054E+01  0.11578E+05
 0.51530056E+01  0.11574E+05
 0.52030058E+01  0.11592E+05
 0.52530055E+01  0.11617E+05
 0.53030057E+01  0.11629E+05
 0.53530054E+01  0.11658E+05
 0.54030056E+01  0.11702E+05
 0.54530053E+01  0.11745E+05
 0.55030055E+01  0.11776E+05
 0.55530057E+01  0.11784E+05
 0.56030054E+01  0.11784E+05
 0.56530056E+01  0.11757E+05
 0.57030053E+01  0.11723E+05
 0.57530055E+01  0.11685E+05
 0.58030057E+01  0.11644E+05
 0.58530054E+01  0.11626E+05
 0.59030056E+01  0.11586E+05
 0.59530053E+01  0.11542E+05
 0.60030055E+01  0.11497E+05
 0.60530052E+01  0.11464E+05
 0.61030054E+01  0.11454E+05
 0.61530056E+01  0.11441E+05
 0.62030058E+01  0.11446E+05
 0.62530050E+01  0.11455E+05
 0.63030052E+01  0.11471E+05
 0.63530054E+01  0.11494E+05
 0.64030056E+01  0.11509E+05
 0.64530058E+01  0.11522E+05
 0.65030050E+01  0.11558E+05
 0.65530052E+01  0.11607E+05
 0.66030054E+01  0.11696E+05
 0.66530056E+01  0.11808E+05
 0.67030058E+01  0.11906E+05
 0.67530050E+01  0.11991E+05
 0.68030052E+01  0.12033E+05
 0.68530054E+01  0.12053E+05
 0.69030056E+01  0.12046E+05
 0.69530058E+01  0.12021E+05
 0.70030050E+01  0.11985E+05
 0.70530052E+01  0.11935E+05
 0.71030054E+01  0.11896E+05
 0.71530056E+01  0.11861E+05
 0.72030058E+01  0.11825E+05
 0.72530050E+01  0.11794E+05
 0.73030052E+01  0.11768E+05
 0.73530054E+01  0.11739E+05
 0.74030056E+01  0.11716E+05
 0.74530058E+01  0.11690E+05
 0.75030050E+01  0.11666E+05
 0.75530052E+01  0.11647E+05
 0.76030054E+01  0.11639E+05
 0.76530056E+01  0.11644E+05
 0.77030058E+01  0.11622E+05
 0.77530050E+01  0.11580E+05
 0.78030052E+01  0.11530E+05
 0.78530054E+01  0.11481E+05
 0.79030056E+01  0.11439E+05
 0.79530058E+01  0.11407E+05
 0.80030050E+01  0.11388E+05
 0.80530052E+01  0.11369E+05
 0.81030054E+01  0.11345E+05
 0.81530056E+01  0.11324E+05
 0.82030058E+01  0.11300E+05
 0.82530050E+01  0.11305E+05
 0.83030052E+01  0.11327E+05
 0.83530054E+01  0.11370E+05
 0.84030056E+01  0.11422E+05
 0.84530058E+01  0.11451E+05
 0.85030050E+01  0.11479E+05
 0.85530052E+01  0.11522E+05
 0.86030054E+01  0.11587E+05
 0.86530056E+01  0.11660E+05
 0.87030058E+01  0.11725E+05
 0.87530050E+01  0.11784E+05
 0.88030052E+01  0.11842E+05
 0.88530054E+01  0.11890E+05
 0.89030056E+01  0.11930E+05
 0.89530058E+01  0.11967E+05
 0.90030050E+01  0.11988E+05
 0.90530052E+01  0.11993E+05
 0.91030054E+01  0.11989E+05
 0.91530056E+01  0.11974E+05
 0.92030048E+01  0.11947E+05
 0.92530050E+01  0.11914E+05
 0.93030052E+01  0.11882E+05
 0.93530054E+01  0.11842E+05
 0.94030056E+01  0.11788E+05
 0.94530048E+01  0.11749E+05
 0.95030050E+01  0.11712E+05
 0.95530052E+01  0.11670E+05
 0.96030054E+01  0.11639E+05
 0.96530056E+01  0.11612E+05
 0.97030048E+01  0.11593E+05
 0.97530050E+01  0.11577E+05
 0.98030052E+01  0.11552E+05
 0.98530054E+01  0.11551E+05
 0.99030056E+01  0.11570E+05
 0.99530048E+01  0.11608E+05
 0.10003005E+02  0.11672E+05
 0.10053005E+02  0.11742E+05
 0.10103005E+02  0.11829E+05
 0.10153006E+02  0.11915E+05
 0.10203005E+02  0.11980E+05
 0.10253005E+02  0.12025E+05
 0.10303005E+02  0.12056E+05
 0.10353005E+02  0.12073E+05
 0.10403006E+02  0.12067E+05
 0.10453005E+02  0.12031E+05
 0.10503005E+02  0.11967E+05
 0.10553005E+02  0.11879E+05
 0.10603005E+02  0.11772E+05
 0.10653006E+02  0.11675E+05
 0.10703005E+02  0.11580E+05
 0.10753005E+02  0.11488E+05
 0.10803005E+02  0.11400E+05
 0.10853005E+02  0.11327E+05
 0.10903006E+02  0.11278E+05
 0.10953005E+02  0.11247E+05
 0.11003005E+02  0.11223E+05
 0.11053005E+02  0.11191E+05
 0.11103005E+02  0.11197E+05
 0.11153006E+02  0.11223E+05
 0.11203005E+02  0.11258E+05
 0.11253005E+02  0.11302E+05
 0.11303005E+02  0.11341E+05
 0.11353005E+02  0.11381E+05
 0.11403006E+02  0.11422E+05
 0.11453005E+02  0.11451E+05
 0.11503005E+02  0.11504E+05
 0.11553005E+02  0.11551E+05
 0.11603005E+02  0.11569E+05
 0.11653006E+02  0.11578E+05
 0.11703005E+02  0.11571E+05
 0.11753005E+02  0.11587E+05
 0.11803005E+02  0.11631E+05
 0.11853005E+02  0.11695E+05
 0.11903006E+02  0.11761E+05
 0.11953005E+02  0.11823E+05
 0.12003005E+02  0.11879E+05
 0.12053005E+02  0.11932E+05
 0.12103005E+02  0.11956E+05
 0.12153006E+02  0.11963E+05
 0.12203005E+02  0.11936E+05
 0.12253005E+02  0.11904E+05
 0.12303005E+02  0.11864E+05
 0.12353005E+02  0.11822E+05
 0.12403006E+02  0.11787E+05
 0.12453005E+02  0.11734E+05
 0.12503005E+02  0.11710E+05
 0.12553005E+02  0.11705E+05
 0.12603005E+02  0.11716E+05
 0.12653005E+02  0.11730E+05
 0.12703005E+02  0.11742E+05
 0.12753005E+02  0.11741E+05
 0.12803005E+02  0.11738E+05
 0.12853005E+02  0.11725E+05
 0.12903005E+02  0.11723E+05
 0.12953005E+02  0.11706E+05
 0.13003005E+02  0.11694E+05
 0.13053005E+02  0.11700E+05
 0.13103005E+02  0.11697E+05
 0.13153005E+02  0.11703E+05
 0.13203005E+02  0.11705E+05
 0.13253005E+02  0.11715E+05
 0.13303005E+02  0.11724E+05
 0.13353005E+02  0.11731E+05
 0.13403005E+02  0.11735E+05
 0.13453005E+02  0.11720E+05
 0.13503005E+02  0.11714E+05
 0.13553005E+02  0.11718E+05
 0.13603005E+02  0.11708E+05
 0.13653005E+02  0.11687E+05
 0.13703005E+02  0.11657E+05
 0.13753005E+02  0.11612E+05
 0.13803005E+02  0.11571E+05
 0.13853005E+02  0.11539E+05
 0.13903005E+02  0.11525E+05
 0.13953005E+02  0.11532E+05
 0.14003005E+02  0.11552E+05
 0.14053005E+02  0.11587E+05
 0.14103004E+02  0.11618E+05
 0.14153006E+02  0.11660E+05
 0.14203005E+02  0.11696E+05
 0.14253004E+02  0.11729E+05
 0.14303005E+02  0.11762E+05
 0.14353004E+02  0.11786E+05
 0.14403006E+02  0.11816E+05
 0.14453005E+02  0.11826E+05
 0.14503004E+02  0.11814E+05
 0.14553005E+02  0.11789E+05
 0.14603004E+02  0.11741E+05
 0.14653006E+02  0.11707E+05
 0.14703005E+02  0.11693E+05
 0.14753004E+02  0.11682E+05
 0.14803005E+02  0.11687E+05
 0.14853004E+02  0.11675E+05
 0.14903006E+02  0.11668E+05
 0.14953005E+02  0.11663E+05
 0.15003004E+02  0.11653E+05
 0.15053005E+02  0.11668E+05
 0.15103004E+02  0.11700E+05
 0.15153006E+02  0.11730E+05
 0.15203005E+02  0.11750E+05
 0.15253004E+02  0.11749E+05
 0.15303005E+02  0.11737E+05
 0.15353004E+02  0.11716E+05
 0.15403006E+02  0.11700E+05
 0.15453005E+02  0.11677E+05
 0.15503004E+02  0.11636E+05
 0.15553005E+02  0.11584E+05
 0.15603004E+02  0.11529E+05
 0.15653006E+02  0.11497E+05
 0.15703005E+02  0.11466E+05
 0.15753004E+02  0.11458E+05
 0.15803005E+02  0.11463E+05
 0.15853004E+02  0.11469E+05
 0.15903006E+02  0.11487E+05
 0.15953005E+02  0.11514E+05
 0.16003004E+02  0.11539E+05
 0.16053005E+02  0.11561E+05
 0.16103004E+02  0.11598E+05
 0.16153006E+02  0.11637E+05
 0.16203005E+02  0.11679E+05
 0.16253004E+02  0.11725E+05
 0.16303005E+02  0.11783E+05
 0.16353004E+02  0.11841E+05
 0.16403006E+02  0.11907E+05
 0.16453005E+02  0.11964E+05
 0.16503004E+02  0.11986E+05
 0.16553005E+02  0.11989E+05
 0.16603004E+02  0.11965E+05
 0.16653006E+02  0.11928E+05
 0.16703005E+02  0.11885E+05
 0.16753004E+02  0.11834E+05
 0.16803005E+02  0.11786E+05
 0.16853004E+02  0.11726E+05
 0.16903006E+02  0.11652E+05
 0.16953005E+02  0.11590E+05
 0.17003004E+02  0.11534E+05
 0.17053005E+02  0.11487E+05
 0.17103004E+02  0.11457E+05
 0.17153006E+02  0.11432E+05
 0.17203005E+02  0.11412E+05
 0.17253004E+02  0.11403E+05
 0.17303005E+02  0.11419E+05
 0.17353004E+02  0.11445E+05
 0.17403006E+02  0.11477E+05
 0.17453005E+02  0.11526E+05
 0.17503004E+02  0.11584E+05
 0.17553005E+02  0.11637E+05
 0.17603004E+02  0.11673E+05
 0.17653006E+02  0.11706E+05
 0.17703005E+02  0.11741E+05
 0.17753004E+02  0.11765E+05
 0.17803005E+02  0.11781E+05
 0.17853004E+02  0.11769E+05
 0.17903006E+02  0.11758E+05
 0.17953005E+02  0.11736E+05
 0.18003004E+02  0.11699E+05
 0.18053005E+02  0.11664E+05
 0.18103004E+02  0.11620E+05
 0.18153006E+02  0.11592E+05
 0.18203005E+02  0.11571E+05
 0.18253004E+02  0.11557E+05
 0.18303005E+02  0.11551E+05
 0.18353004E+02  0.11556E+05
 0.18403006E+02  0.11563E+05
 0.18453005E+02  0.11580E+05
 0.18503004E+02  0.11595E+05
 0.18553005E+02  0.11618E+05
 0.18603004E+02  0.11640E+05
 0.18653006E+02  0.11682E+05
 0.18703005E+02  0.11733E+05
 0.18753004E+02  0.11775E+05
 0.18803005E+02  0.11820E+05
 0.18853004E+02  0.11849E+05
 0.18903006E+02  0.11872E+05
 0.18953005E+02  0.11874E+05
 0.19003004E+02  0.11872E+05
 0.19053005E+02  0.11860E+05
 0.19103004E+02  0.11834E+05
 0.19153006E+02  0.11806E+05
 0.19203005E+02  0.11778E+05
 0.19253004E+02  0.11749E+05
 0.19303005E+02  0.11721E+05
 0.19353004E+02  0.11694E+05
 0.19403006E+02  0.11665E+05
 0.19453005E+02  0.11637E+05
 0.19503004E+02  0.11605E+05
 0.19553005E+02  0.11582E+05
 0.19603004E+02  0.11557E+05
 0.19653006E+02  0.11541E+05
 0.19703005E+02  0.11527E+05
 0.19753004E+02  0.11537E+05
 0.19803005E+02  0.11564E+05
 0.19853004E+02  0.11587E+05
 0.19903006E+02  0.11601E+05
 0.19953005E+02  0.11620E+05
 0.20003004E+02  0.11641E+05
 0.20053005E+02  0.11649E+05
 0.20103004E+02  0.11664E+05
 0.20153006E+02  0.11659E+05
 0.20203005E+02  0.11641E+05
 0.20253004E+02  0.11626E+05
 0.20303005E+02  0.11617E+05
 0.20353004E+02  0.11612E+05
 0.20403004E+02  0.11602E+05
 0.20453005E+02  0.11598E+05
 0.20503004E+02  0.11588E+05
 0.20553005E+02  0.11587E+05
 0.20603004E+02  0.11601E+05
 0.20653004E+02  0.11632E+05
 0.20703005E+02  0.11682E+05
 0.20753004E+02  0.11733E+05
 0.20803005E+02  0.11773E+05
 0.20853004E+02  0.11810E+05
 0.20903004E+02  0.11850E+05
 0.20953005E+02  0.11878E+05
 0.21003004E+02  0.11905E+05
 0.21053005E+02  0.11905E+05
 0.21103004E+02  0.11895E+05
 0.21153004E+02  0.11878E+05
 0.21203005E+02  0.11855E+05
 0.21253004E+02  0.11828E+05
 0.21303005E+02  0.11789E+05
 0.21353004E+02  0.11747E+05
 0.21403004E+02  0.11707E+05
 0.21453005E+02  0.11688E+05
 0.21503004E+02  0.11670E+05
 0.21553005E+02  0.11646E+05
 0.21603004E+02  0.11611E+05
 0.21653004E+02  0.11596E+05
 0.21703005E+02  0.11591E+05
 0.21753004E+02  0.11599E+05
 0.21803005E+02  0.11614E+05
 0.21853004E+02  0.11637E+05
 0.21903004E+02  0.11669E+05
 0.21953005E+02  0.11692E+05
 0.22003004E+02  0.11722E+05
 0.22053005E+02  0.11758E+05
 0.22103004E+02  0.11789E+05
 0.22153004E+02  0.11785E+05
 0.22203005E+02  0.11767E+05
 0.22253004E+02  0.11723E+05
 0.22303005E+02  0.11657E+05
 0.22353004E+02  0.11591E+05
 0.22403004E+02  0.11517E+05
 0.22453005E+02  0.11459E+05
 0.22503004E+02  0.11407E+05
 0.22553005E+02  0.11354E+05
 0.22603004E+02  0.11327E+05
 0.22653004E+02  0.11318E+05
 0.22703005E+02  0.11318E+05
 0.22753004E+02  0.11346E+05
 0.22803005E+02  0.11378E+05
 0.22853004E+02  0.11403E+05
 0.22903004E+02  0.11439E+05
 0.22953005E+02  0.11474E+05
 0.23003004E+02  0.11522E+05
 0.23053005E+02  0.11577E+05
 0.23103004E+02  0.11638E+05
 0.23153004E+02  0.11695E+05
 0.23203005E+02  0.11750E+05
 0.23253004E+02  0.11817E+05
 0.23303005E+02  0.11864E+05
 0.23353004E+02  0.11905E+05
 0.23403004E+02  0.11933E+05
 0.23453005E+02  0.11948E+05
 0.23503004E+02  0.11956E+05
 0.23553005E+02  0.11952E+05
 0.23603004E+02  0.11936E+05
 0.23653004E+02  0.11924E+05
 0.23703005E+02  0.11913E+05
 0.23753004E+02  0.11894E+05
 0.23803005E+02  0.11873E+05
 0.23853004E+02  0.11836E+05
 0.23903004E+02  0.11801E+05
 0.23953005E+02  0.11759E+05
 0.24003004E+02  0.11727E+05
 0.24053005E+02  0.11705E+05
 0.24103004E+02  0.11678E+05
 0.24153004E+02  0.11647E+05
 0.24203005E+02  0.11610E+05
 0.24253004E+02  0.11572E+05
 0.24303005E+02  0.11550E+05
 0.24353004E+02  0.11554E+05
 0.24403004E+02  0.11546E+05
 0.24453005E+02  0.11568E+05
 0.24503004E+02  0.11586E+05
 0.24553005E+02  0.11587E+05
 0.24603004E+02  0.11645E+05
 0.24653004E+02  0.11714E+05
 0.24703005E+02  0.11742E+05
 0.24753004E+02  0.11781E+05
 0.24803005E+02  0.11731E+05
 0.24853004E+02  0.11654E+05
 0.24903004E+02  0.11679E+05
 0.24953005E+02  0.11663E+05
 0.25003004E+02  0.11760E+05
 0.25053005E+02  0.11846E+05
 0.25103004E+02  0.11733E+05
 0.25153004E+02  0.11713E+05
 0.25203005E+02  0.11741E+05
 0.25253004E+02  0.11690E+05
 0.25303005E+02  0.11841E+05
 0.25353004E+02  0.11861E+05
 0.25403004E+02  0.11886E+05
 0.25453005E+02  0.11835E+05
 0.25503004E+02  0.11614E+05
 0.25553005E+02  0.11814E+05
 0.25603004E+02  0.11710E+05
 0.25653004E+02  0.11832E+05
 0.25703005E+02  0.12068E+05
 0.25753004E+02  0.11890E+05
 0.25803005E+02  0.11578E+05
 0.25853004E+02  0.11495E+05
 0.25903004E+02  0.11438E+05
 0.25953005E+02  0.11425E+05
 0.26003004E+02  0.11662E+05
 0.26053005E+02  0.11846E+05
 0.26103004E+02  0.11843E+05
 0.26153004E+02  0.11537E+05
 0.26203005E+02  0.11113E+05
 0.26253004E+02  0.11447E+05
 0.26303005E+02  0.11639E+05
 0.26353004E+02  0.11907E+05
 0.26403004E+02  0.11494E+05
 0.26453005E+02  0.10922E+05
 0.26503004E+02  0.10793E+05
 0.26553005E+02  0.10227E+05
 0.26603004E+02  0.11512E+05
 0.26653004E+02  0.11941E+05
 0.26703005E+02  0.12024E+05
 0.26753004E+02  0.11696E+05
 0.26803005E+02  0.11332E+05
 0.26853004E+02  0.11084E+05
 0.26903004E+02  0.11462E+05
 0.26953005E+02  0.12400E+05
 0.27003004E+02  0.12946E+05
 0.27053003E+02  0.12343E+05
 0.27103004E+02  0.11738E+05
 0.27153004E+02  0.11427E+05
 0.27203005E+02  0.11293E+05
 0.27253004E+02  0.10960E+05
 0.27303003E+02  0.11254E+05
 0.27353004E+02  0.12284E+05
 0.27403004E+02  0.11496E+05
 0.27453005E+02  0.12191E+05
 0.27503004E+02  0.11577E+05
 0.27553003E+02  0.11934E+05
 0.27603004E+02  0.12394E+05
 0.27653004E+02  0.11835E+05
 0.27703005E+02  0.13526E+05
 0.27753004E+02  0.13017E+05
 0.27803003E+02  0.96825E+04
 0.27853004E+02  0.11158E+05
 0.27903004E+02  0.11697E+05
 0.27953005E+02  0.11878E+05
 0.28003004E+02  0.13383E+05
 0.28053003E+02  0.11512E+05
 0.28103004E+02  0.11552E+05
 0.28153004E+02  0.99277E+04
 0.28203005E+02  0.10348E+05
 0.28253004E+02  0.11777E+05
 0.28303003E+02  0.11042E+05
 0.28353004E+02  0.12102E+05
 0.28403004E+02  0.11361E+05
 0.28453005E+02  0.11568E+05
 0.28503004E+02  0.10462E+05
 0.28553003E+02  0.11246E+05
 0.28603004E+02  0.12281E+05
 0.28653004E+02  0.10847E+05
 0.28703005E+02  0.11931E+05
 0.28753004E+02  0.12199E+05
 0.28803003E+02  0.12930E+05
 0.28853004E+02  0.11391E+05
 0.28903004E+02  0.12335E+05
 0.28953005E+02  0.12510E+05
 0.29003004E+02  0.10036E+05
 0.29053003E+02  0.12080E+05
 0.29103004E+02  0.12027E+05
 0.29153004E+02  0.10039E+05
 0.29203005E+02  0.98841E+04
 0.29253004E+02  0.11113E+05
 0.29303003E+02  0.13607E+05
 0.29353004E+02  0.14379E+05
 0.29403004E+02  0.12236E+05
 0.29453005E+02  0.10706E+05
 0.29503004E+02  0.12506E+05
 0.29553003E+02  0.10334E+05
 0.29603004E+02  0.11733E+05
 0.29653004E+02  0.14085E+05
 0.29703005E+02  0.12203E+05
 0.29753004E+02  0.12508E+05
 0.29803003E+02  0.11442E+05
 0.29853004E+02  0.11082E+05
 0.29903004E+02  0.97316E+04
 0.29953005E+02  0.10464E+05
 0.30003004E+02  0.12838E+05
 0.30053005E+02  0.11767E+05
 0.30103004E+02  0.10965E+05
 0.30153004E+02  0.12487E+05
 0.30203003E+02  0.10018E+05
 0.30253002E+02  0.12409E+05
 0.30303005E+02  0.13458E+05
 0.30353004E+02  0.89366E+04
 0.30403004E+02  0.12710E+05
 0.30453003E+02  0.13896E+05
 0.30503002E+02  0.11781E+05
 0.30553005E+02  0.11588E+05
 0.30603004E+02  0.11311E+05
 0.30653004E+02  0.11756E+05
 0.30703003E+02  0.12341E+05
 0.30753002E+02  0.10264E+05
 0.30803005E+02  0.10301E+05
 0.30853004E+02  0.92230E+04
 0.30903004E+02  0.98539E+04
 0.30953003E+02  0.12185E+05
 0.31003002E+02  0.11560E+05
 0.31053005E+02  0.12885E+05
 0.31103004E+02  0.10568E+05
 0.31153004E+02  0.12573E+05
 0.31203003E+02  0.11603E+05
 0.31253002E+02  0.12622E+05
 0.31303005E+02  0.13933E+05
 0.31353004E+02  0.10718E+05
 0.31403004E+02  0.11707E+05
 0.31453003E+02  0.13430E+05
 0.31503002E+02  0.13730E+05
 0.31553005E+02  0.11257E+05
 0.31603004E+02  0.12452E+05
 0.31653004E+02  0.10478E+05
 0.31703003E+02  0.10051E+05
 0.31753002E+02  0.99763E+04
 0.31803005E+02  0.11820E+05
 0.31853004E+02  0.13294E+05
 0.31903004E+02  0.12337E+05
 0.31953003E+02  0.12486E+05
 0.32003002E+02  0.13482E+05
 0.32053005E+02  0.12100E+05
 0.32103004E+02  0.95475E+04
 0.32153004E+02  0.11004E+05
 0.32203003E+02  0.11168E+05
 0.32253002E+02  0.12836E+05
 0.32303005E+02  0.11837E+05
 0.32353004E+02  0.11561E+05
 0.32403004E+02  0.10635E+05
 0.32453003E+02  0.98194E+04
 0.32503002E+02  0.12365E+05
 0.32553005E+02  0.13738E+05
 0.32603004E+02  0.11637E+05
 0.32653004E+02  0.10555E+05
 0.32703003E+02  0.98934E+04
 0.32753002E+02  0.10642E+05
 0.32803005E+02  0.12279E+05
 0.32853004E+02  0.11788E+05
 0.32903004E+02  0.92944E+04
 0.32953003E+02  0.12837E+05
 0.33003002E+02  0.12458E+05
 0.33053005E+02  0.12447E+05
 0.33103004E+02  0.12332E+05
 0.33153004E+02  0.10549E+05
 0.33203003E+02  0.12056E+05
 0.33253002E+02  0.10340E+05
 0.33303005E+02  0.14485E+05
 0.33353004E+02  0.11332E+05
 0.33403004E+02  0.10401E+05
 0.33453003E+02  0.10579E+05
 0.33503002E+02  0.85644E+04
 0.33553005E+02  0.11411E+05
 0.33603004E+02  0.15220E+05
 0.33653004E+02  0.12974E+05
 0.33703003E+02  0.12283E+05
 0.33753002E+02  0.14829E+05
 0.33803005E+02  0.14922E+05
 0.33853004E+02  0.12220E+05
 0.33903004E+02  0.97748E+04
 0.33953003E+02  0.10098E+05
 0.34003002E+02  0.10448E+05
 0.34053005E+02  0.10836E+05
 0.34103004E+02  0.92867E+04
 0.34153004E+02  0.12373E+05
 0.34203003E+02  0.12679E+05
 0.34253002E+02  0.12988E+05
 0.34303005E+02  0.13218E+05
 0.34353004E+02  0.12794E+05
 0.34403004E+02  0.11036E+05
 0.34453003E+02  0.77701E+04
 0.34503002E+02  0.10228E+05
 0.34553005E+02  0.11283E+05
 0.34603004E+02  0.12108E+05
 0.34653004E+02  0.12957E+05
 0.34703003E+02  0.12985E+05
 0.34753002E+02  0.10067E+05
 0.34803005E+02  0.68804E+04
 0.34853004E+02  0.10089E+05
 0.34903004E+02  0.14679E+05
 0.34953003E+02  0.13541E+05
 0.35003002E+02  0.14000E+05
 0.35053005E+02  0.12657E+05
 0.35103004E+02  0.10831E+05
 0.35153004E+02  0.12757E+05
 0.35203003E+02  0.11251E+05
 0.35253002E+02  0.12988E+05
 0.35303005E+02  0.12817E+05
 0.35353004E+02  0.11958E+05
 0.35403004E+02  0.12515E+05
 0.35453003E+02  0.13566E+05
 0.35503002E+02  0.12097E+05
 0.35553005E+02  0.87452E+04
 0.35603004E+02  0.64955E+04
 0.35653004E+02  0.89172E+04
 0.35703003E+02  0.11886E+05
 0.35753002E+02  0.75745E+04
 0.35803005E+02  0.10701E+05
 0.35853004E+02  0.15797E+05
 0.35903004E+02  0.13845E+05
 0.35953003E+02  0.14996E+05
 0.36003002E+02  0.14627E+05
 0.36053005E+02  0.12263E+05
 0.36103004E+02  0.10991E+05
 0.36153004E+02  0.10840E+05
 0.36203003E+02  0.10242E+05
 0.36253002E+02  0.11184E+05
 0.36303005E+02  0.11506E+05
 0.36353004E+02  0.98024E+04
 0.36403004E+02  0.13583E+05
 0.36453003E+02  0.99250E+04
 0.36503002E+02  0.91323E+04
 0.36553005E+02  0.11201E+05
 0.36603004E+02  0.98807E+04
 0.36653004E+02  0.13833E+05
 0.36703003E+02  0.14195E+05
 0.36753002E+02  0.14171E+05
 0.36803005E+02  0.10429E+05
 0.36853004E+02  0.88778E+04
 0.36903004E+02  0.11258E+05
 0.36953003E+02  0.11154E+05
 0.37003002E+02  0.14096E+05
 0.37053005E+02  0.13011E+05
 0.37103004E+02  0.13704E+05
 0.37153004E+02  0.12146E+05
 0.37203003E+02  0.12070E+05
 0.37253002E+02  0.14524E+05
 0.37303005E+02  0.11378E+05
 0.37353004E+02  0.10071E+05
 0.37403004E+02  0.10739E+05
 0.37453003E+02  0.14235E+05
 0.37503002E+02  0.13280E+05
 0.37553005E+02  0.11071E+05
 0.37603004E+02  0.10731E+05
 0.37653004E+02  0.94298E+04
 0.37703003E+02  0.99499E+04
 0.37753002E+02  0.11654E+05
 0.37803005E+02  0.13430E+05
 0.37853004E+02  0.12057E+05
 0.37903004E+02  0.10955E+05
 0.37953003E+02  0.90428E+04
 0.38003002E+02  0.83785E+04
 0.38053005E+02  0.87683E+04
 0.38103004E+02  0.83147E+04
 0.38153004E+02  0.11079E+05
 0.38203003E+02  0.13912E+05
 0.38253002E+02  0.15115E+05
 0.38303005E+02  0.13756E+05
 0.38353004E+02  0.13763E+05
 0.38403004E+02  0.10195E+05
 0.38453003E+02  0.88538E+04
 0.38503002E+02  0.13694E+05
 0.38553005E+02  0.17644E+05
 0.38603004E+02  0.16548E+05
 0.38653004E+02  0.11648E+05
 0.38703003E+02  0.99395E+04
 0.38753002E+02  0.82648E+04
 0.38803005E+02  0.72485E+04
 0.38853004E+02  0.99003E+04
 0.38903004E+02  0.13662E+05
 0.38953003E+02  0.15478E+05
 0.39003002E+02  0.14238E+05
 0.39053005E+02  0.97231E+04
 0.39103004E+02  0.84449E+04
 0.39153004E+02  0.88582E+04
 0.39203003E+02  0.74190E+04
 0.39253002E+02  0.10126E+05
 0.39303005E+02  0.11428E+05
 0.39353004E+02  0.11462E+05
 0.39403004E+02  0.13329E+05
 0.39453003E+02  0.15299E+05
 0.39503002E+02  0.16140E+05
 0.39553005E+02  0.14962E+05
 0.39603004E+02  0.11159E+05
 0.39653004E+02  0.10111E+05
 0.39703003E+02  0.11221E+05
 0.39753002E+02  0.10460E+05
 0.39803005E+02  0.13339E+05
 0.39853004E+02  0.95062E+04
 0.39903004E+02  0.81512E+04
 0.39953003E+02  0.10408E+05
 0.40003002E+02  0.11646E+05
 0.40053005E+02  0.11956E+05
 0.40103004E+02  0.13276E+05
 0.40153004E+02  0.13902E+05
 0.40203003E+02  0.11247E+05
 0.40253002E+02  0.13462E+05
 0.40303005E+02  0.10770E+05
 0.40353004E+02  0.10695E+05
 0.40403004E+02  0.12002E+05
 0.40453003E+02  0.12141E+05
 0.40503002E+02  0.11662E+05
 0.40553005E+02  0.87240E+04
 0.40603004E+02  0.10824E+05
 0.40653004E+02  0.14131E+05
 0.40703003E+02  0.13570E+05
 0.40753002E+02  0.13436E+05
 0.40803005E+02  0.12208E+05
 0.40853004E+02  0.11207E+05
 0.40903004E+02  0.11459E+05
 0.40953003E+02  0.10666E+05
 0.41003002E+02  0.11238E+05
 0.41053005E+02  0.13141E+05
 0.41103004E+02  0.13196E+05
 0.41153004E+02  0.11994E+05
 0.41203003E+02  0.10908E+05
 0.41253002E+02  0.11914E+05
 0.41303005E+02  0.13568E+05
 0.41353004E+02  0.13127E+05
 0.41403004E+02  0.15412E+05
 0.41453003E+02  0.15876E+05
 0.41503002E+02  0.10874E+05
 0.41553005E+02  0.75180E+04
 0.41603004E+02  0.93812E+04
 0.41653004E+02  0.14314E+05
 0.41703003E+02  0.17598E+05
 0.41753002E+02  0.79050E+04
 0.41803005E+02 -0.10841E+04
 0.41853004E+02  0.13376E+04
 0.41903004E+02  0.13879E+05
 0.41953003E+02  0.23509E+05
 0.42003002E+02  0.18002E+05
 0.42053005E+02  0.11906E+05
 0.42103004E+02  0.92147E+04
 0.42153004E+02  0.79433E+04
 0.42203003E+02  0.51057E+04
 0.42253002E+02  0.40317E+04
 0.42303005E+02  0.92488E+04
 0.42353004E+02  0.14323E+05
 0.42403004E+02  0.17680E+05
 0.42453003E+02  0.51435E+04
 0.42503002E+02 -0.39054E+04
 0.42553005E+02  0.12262E+05
 0.42603004E+02  0.20817E+05
 0.42653004E+02  0.60642E+04
 0.42703003E+02 -0.79952E+04
 0.42753002E+02  0.81407E+03
 0.42803001E+02  0.23789E+05
 0.42853004E+02  0.47427E+05
 0.42903004E+02  0.56946E+05
 0.42953003E+02  0.48997E+05
 0.43003002E+02  0.30893E+05
 0.43053001E+02 -0.41148E+04
 0.43103004E+02 -0.35036E+05
 0.43153004E+02 -0.34424E+05
 0.43203003E+02 -0.13297E+05
 0.43253002E+02  0.22642E+05
 0.43303001E+02  0.35475E+05
 0.43353004E+02  0.25606E+05
 0.43403004E+02  0.13781E+05
 0.43453003E+02  0.76715E+04
 0.43503002E+02  0.12048E+05
 0.43553001E+02  0.12647E+05
 0.43603004E+02  0.15213E+04
 0.43653004E+02 -0.11867E+05
 0.43703003E+02  0.17440E+05
 0.43753002E+02  0.31467E+05
 0.43803001E+02  0.18730E+05
 0.43853004E+02  0.48239E+04
 0.43903004E+02  0.79453E+04
 0.43953003E+02  0.12176E+05
 0.44003002E+02 -0.79213E+03
 0.44053001E+02  0.11125E+05
 0.44103004E+02  0.50034E+04
 0.44153004E+02  0.32212E+04
 0.44203003E+02  0.21322E+05
 0.44253002E+02  0.16910E+05
 0.44303001E+02  0.61625E+04
 0.44353004E+02  0.75256E+04
 0.44403004E+02  0.15974E+05
 0.44453003E+02  0.12404E+05
 0.44503002E+02  0.10298E+05
 0.44553001E+02  0.16216E+05
 0.44603004E+02  0.22133E+05
 0.44653004E+02  0.25349E+05
 0.44703003E+02 -0.15372E+03
 0.44753002E+02  0.15677E+04
 0.44803001E+02  0.16366E+05
 0.44853004E+02  0.12693E+05
 0.44903004E+02  0.22487E+05
 0.44953003E+02  0.38838E+04
 0.45003002E+02 -0.23011E+03
 0.45053001E+02  0.21471E+05
 0.45103004E+02  0.20535E+05
 0.45153004E+02  0.23597E+05
 0.45203003E+02  0.11126E+05
 0.45253002E+02 -0.48770E+03
 0.45303001E+02  0.26427E+05
 0.45353004E+02  0.25617E+05
 0.45403004E+02  0.40970E+04
 0.45453003E+02  0.29953E+04
 0.45503002E+02 -0.64805E+04
 0.45553001E+02 -0.57495E+04
 0.45603004E+02  0.49018E+04
 0.45653004E+02  0.40069E+04
 0.45703003E+02  0.12865E+05
 0.45753002E+02  0.24819E+05
 0.45803001E+02  0.28587E+05
 0.45853004E+02  0.23542E+05
 0.45903004E+02  0.21832E+05
 0.45953003E+02  0.18688E+05
 0.46003002E+02  0.21859E+05
 0.46053001E+02  0.13660E+05
 0.46103004E+02 -0.30392E+04
 0.46153004E+02 -0.25450E+03
 0.46203003E+02  0.49543E+04
 0.46253002E+02  0.12110E+05
 0.46303001E+02 -0.46932E+03
 0.46353004E+02 -0.17463E+04
 0.46403004E+02  0.14926E+05
 0.46453003E+02  0.23807E+05
 0.46503002E+02  0.29288E+05
 0.46553001E+02  0.21169E+05
 0.46603004E+02  0.19045E+05
 0.46653004E+02  0.80801E+04
 0.46703003E+02  0.67105E+04
 0.46753002E+02  0.17335E+05
 0.46803001E+02  0.10621E+05
 0.46853004E+02  0.16489E+05
 0.46903004E+02  0.10668E+05
 0.46953003E+02  0.17062E+04
 0.47003002E+02  0.37375E+04
 0.47053001E+02  0.12543E+05
 0.47103004E+02  0.11208E+05
 0.47153004E+02  0.13497E+04
 0.47203003E+02  0.33647E+04
 0.47253002E+02  0.41041E+04
 0.47303001E+02  0.11213E+05
 0.47353004E+02  0.15686E+05
 0.47403004E+02  0.19874E+05
 0.47453003E+02  0.29241E+05
 0.47503002E+02  0.22675E+05
 0.47553001E+02 -0.20004E+04
 0.47603004E+02 -0.98327E+04
 0.47653004E+02  0.86649E+04
 0.47703003E+02  0.22218E+05
 0.47753002E+02  0.19160E+05
 0.47803001E+02  0.64760E+04
 0.47853004E+02 -0.13545E+04
 0.47903004E+02  0.63532E+03
 0.47953003E+02  0.56980E+04
 0.48003002E+02  0.19814E+05
 0.48053001E+02  0.19696E+05
 0.48103004E+02  0.10357E+05
 0.48153004E+02  0.97021E+04
 0.48203003E+02  0.19185E+05
 0.48253002E+02  0.28387E+05
 0.48303001E+02  0.18615E+05
 0.48353004E+02  0.68424E+04
 0.48403004E+02  0.23172E+04
 0.48453003E+02  0.58390E+03
 0.48503002E+02  0.54783E+04
 0.48553001E+02  0.11433E+05
 0.48603004E+02  0.17530E+05
 0.48653004E+02  0.22853E+05
 0.48703003E+02  0.22570E+05
 0.48753002E+02  0.10899E+05
 0.48803001E+02  0.96197E+04
 0.48853004E+02  0.12981E+05
 0.48903004E+02  0.35892E+04
 0.48953003E+02  0.70972E+04
 0.49003002E+02  0.39618E+04
 0.49053001E+02  0.73973E+04
 0.49103004E+02  0.94768E+04
 0.49153004E+02  0.11539E+04
 0.49203003E+02 -0.11973E+04
 0.49253002E+02  0.35311E+04
 0.49303001E+02  0.15327E+05
 0.49353004E+02  0.27207E+05
 0.49403004E+02  0.33315E+05
 0.49453003E+02  0.24769E+05
 0.49503002E+02  0.22467E+05
 0.49553001E+02  0.11175E+05
 0.49603004E+02 -0.16411E+04
 0.49653004E+02  0.35620E+04
 0.49703003E+02  0.11468E+05
 0.49753002E+02  0.23914E+05
 0.49803001E+02  0.16817E+05
 0.49853004E+02  0.54360E+04
 0.49903004E+02  0.10339E+05
 0.49953003E+02  0.88303E+04
 0.50003002E+02  0.89364E+04
 0.50053001E+02  0.96010E+04
 0.50103004E+02  0.19296E+05
 0.50153004E+02  0.31327E+05
 0.50203003E+02  0.23749E+05
 0.50253002E+02  0.12023E+05
 0.50303001E+02  0.21811E+04
 0.50353004E+02  0.46807E+04
 0.50403004E+02  0.14621E+05
 0.50453003E+02  0.16828E+05
 0.50503002E+02  0.17610E+05
 0.50553001E+02  0.10387E+05
 0.50603004E+02 -0.15642E+04
 0.50653004E+02 -0.58925E+04
 0.50703003E+02 -0.60469E+04
 0.50753002E+02  0.30953E+04
 0.50803001E+02  0.19599E+05
 0.50853004E+02  0.23732E+05
 0.50903004E+02  0.18462E+05
 0.50953003E+02  0.11527E+05
 0.51003002E+02  0.35931E+04
 0.51053001E+02  0.14970E+05
 0.51103004E+02  0.27890E+05
 0.51153004E+02  0.19321E+05
 0.51203003E+02  0.10651E+05
 0.51253002E+02  0.39167E+04
 0.51303001E+02 -0.59382E+04
 0.51353004E+02 -0.19220E+04
 0.51403004E+02  0.85950E+04
 0.51453003E+02  0.16310E+05
 0.51503002E+02  0.14633E+05
 0.51553001E+02  0.56392E+04
 0.51603004E+02  0.69337E+04
 0.51653004E+02  0.17415E+05
 0.51703003E+02  0.23758E+05
 0.51753002E+02  0.21966E+05
 0.51803001E+02  0.29260E+05
 0.51853004E+02  0.24973E+05
 0.51903004E+02  0.17945E+05
 0.51953003E+02  0.12125E+05
 0.52003002E+02 -0.31599E+04
 0.52053001E+02 -0.11463E+04
 0.52103004E+02  0.10261E+04
 0.52153004E+02  0.33931E+04
 0.52203003E+02  0.11506E+05
 0.52253002E+02  0.11423E+05
 0.52303001E+02  0.97725E+04
 0.52353004E+02  0.10079E+05
 0.52403004E+02  0.11229E+05
 0.52453003E+02  0.13747E+05
 0.52503002E+02  0.16289E+05
 0.52553001E+02  0.15313E+05
 0.52603004E+02  0.12656E+05
 0.52653004E+02  0.10922E+05
 0.52703003E+02  0.53467E+04
 0.52753002E+02  0.78831E+04
 0.52803001E+02  0.13813E+05
 0.52853004E+02  0.10967E+05
 0.52903004E+02  0.16917E+05
 0.52953003E+02  0.14982E+05
 0.53003002E+02  0.63020E+04
 0.53053001E+02  0.58039E+04
 0.53103004E+02  0.26711E+04
 0.53153004E+02  0.59372E+04
 0.53203003E+02  0.16350E+05
 0.53253002E+02  0.22143E+05
 0.53303001E+02  0.21760E+05
 0.53353004E+02  0.18741E+05
 0.53403004E+02  0.15606E+05
 0.53453003E+02  0.14250E+05
 0.53503002E+02  0.12643E+05
 0.53553001E+02  0.14078E+05
 0.53603004E+02  0.16757E+05
 0.53653004E+02  0.11836E+05
 0.53703003E+02  0.97466E+04
 0.53753002E+02  0.12557E+05
 0.53803001E+02  0.96851E+04
 0.53853004E+02  0.56834E+04
 0.53903004E+02  0.85293E+04
 0.53953003E+02  0.13115E+05
 0.54003002E+02  0.16986E+05
 0.54053001E+02  0.21368E+05
 0.54103004E+02  0.14896E+05
 0.54153004E+02  0.56703E+04
 0.54203003E+02  0.12047E+04
 0.54253002E+02  0.61494E+04
 0.54303001E+02  0.13704E+05
 0.54353004E+02  0.13388E+05
 0.54403004E+02  0.13057E+05
 0.54453003E+02  0.18206E+05
 0.54503002E+02  0.21654E+05
 0.54553001E+02  0.24701E+05
 0.54603004E+02  0.23485E+05
 0.54653004E+02  0.71478E+04
 0.54703003E+02 -0.99850E+03
 0.54753002E+02  0.71527E+02
 0.54803001E+02  0.24897E+04
 0.54853004E+02  0.38223E+04
 0.54903004E+02  0.87989E+04
 0.54953003E+02  0.14974E+05
 0.55003002E+02  0.16420E+05
 0.55053001E+02  0.10671E+05
 0.55103004E+02  0.55868E+04
 0.55153004E+02  0.14882E+05
 0.55203003E+02  0.18435E+05
 0.55253002E+02  0.17618E+05
 0.55303001E+02  0.21668E+05
 0.55353004E+02  0.19590E+05
 0.55403004E+02  0.10357E+05
 0.55453003E+02 -0.30344E+03
 0.55503002E+02 -0.47884E+04
 0.55553001E+02 -0.41958E+04
 0.55603004E+02  0.23940E+04
 0.55653004E+02  0.10844E+05
 0.55703003E+02  0.25160E+02
 0.55753002E+02 -0.68208E+04
 0.55803001E+02 -0.37094E+04
 0.55853001E+02  0.76329E+02
 0.55903004E+02  0.11173E+05
 0.55953003E+02  0.20763E+05
 0.56003002E+02  0.27068E+05
 0.56053001E+02  0.25080E+05
 0.56103001E+02  0.20186E+05
 0.56153004E+02  0.12081E+05
 0.56203003E+02  0.12500E+05
 0.56253002E+02  0.21630E+05
 0.56303001E+02  0.23728E+05
 0.56353001E+02  0.21506E+05
 0.56403004E+02  0.17510E+05
 0.56453003E+02  0.12365E+05
 0.56503002E+02  0.11111E+05
 0.56553001E+02  0.12098E+05
 0.56603001E+02  0.78248E+04
 0.56653004E+02  0.48830E+04
 0.56703003E+02  0.97456E+04
 0.56753002E+02  0.15777E+05
 0.56803001E+02  0.14618E+05
 0.56853001E+02  0.11910E+05
 0.56903004E+02  0.10537E+05
 0.56953003E+02  0.98693E+04
 0.57003002E+02  0.81553E+04
 0.57053001E+02  0.42283E+04
 0.57103001E+02 -0.77925E+03
 0.57153004E+02 -0.22330E+04
 0.57203003E+02  0.20291E+04
 0.57253002E+02  0.78687E+04
 0.57303001E+02  0.12827E+05
 0.57353001E+02  0.17852E+05
 0.57403004E+02  0.20676E+05
 0.57453003E+02  0.21842E+05
 0.57503002E+02  0.19857E+05
 0.57553001E+02  0.13877E+05
 0.57603001E+02  0.69248E+04
 0.57653004E+02  0.52549E+04
 0.57703003E+02  0.71459E+04
 0.57753002E+02  0.89964E+04
 0.57803001E+02  0.15220E+05
 0.57853001E+02  0.21110E+05
 0.57903004E+02  0.25311E+05
 0.57953003E+02  0.26162E+05
 0.58003002E+02  0.23371E+05
 0.58053001E+02  0.18812E+05
 0.58103001E+02  0.14210E+05
 0.58153004E+02  0.10863E+05
 0.58203003E+02  0.99866E+04
 0.58253002E+02  0.10868E+05
 0.58303001E+02  0.86443E+04
 0.58353001E+02  0.34160E+04
 0.58403004E+02  0.49218E+03
 0.58453003E+02 -0.40700E+04
 0.58503002E+02 -0.39661E+04
 0.58553001E+02  0.16056E+04
 0.58603001E+02  0.64334E+04
 0.58653004E+02  0.12952E+05
 0.58703003E+02  0.19276E+05
 0.58753002E+02  0.23156E+05
 0.58803001E+02  0.19253E+05
 0.58853001E+02  0.16312E+05
 0.58903004E+02  0.16859E+05
 0.58953003E+02  0.13045E+05
 0.59003002E+02  0.11584E+05
 0.59053001E+02  0.12807E+05
 0.59103001E+02  0.13258E+05
 0.59153004E+02  0.10601E+05
 0.59203003E+02  0.81608E+04
 0.59253002E+02  0.11571E+05
 0.59303001E+02  0.16349E+05
 0.59353001E+02  0.20949E+05
 0.59403004E+02  0.22038E+05
 0.59453003E+02  0.17717E+05
 0.59503002E+02  0.11532E+05
 0.59553001E+02  0.67808E+04
 0.59603001E+02  0.10839E+04
 0.59653004E+02  0.29128E+03
 0.59703003E+02  0.48771E+04
 0.59753002E+02  0.83528E+04
 0.59803001E+02  0.12842E+05
 0.59853001E+02  0.13891E+05
 0.59903004E+02  0.10643E+05
 0.59953003E+02  0.10965E+05
 0.60003002E+02  0.12463E+05
 0.60053001E+02  0.98984E+04
 0.60103001E+02  0.85481E+04
 0.60153004E+02  0.84105E+04
 0.60203003E+02  0.59223E+04
 0.60253002E+02  0.90956E+04
 0.60303001E+02  0.14905E+05
 0.60353001E+02  0.13293E+05
 0.60403004E+02  0.12748E+05
 0.60453003E+02  0.13450E+05
 0.60503002E+02  0.10750E+05
 0.60553001E+02  0.10010E+05
 0.60603001E+02  0.15867E+05
 0.60653004E+02  0.18069E+05
 0.60703003E+02  0.12689E+05
 0.60753002E+02  0.15430E+05
 0.60803001E+02  0.19740E+05
 0.60853001E+02  0.19102E+05
 0.60903004E+02  0.20245E+05
 0.60953003E+02  0.20812E+05
 0.61003002E+02  0.17234E+05
 0.61053001E+02  0.10551E+05
 0.61103001E+02  0.70126E+04
 0.61153004E+02  0.54072E+04
 0.61203003E+02  0.84877E+04
 0.61253002E+02  0.12796E+05
 0.61303001E+02  0.14182E+05
 0.61353001E+02  0.11632E+05
 0.61403004E+02  0.25939E+04
 0.61453003E+02  0.81720E+03
 0.61503002E+02  0.48402E+04
 0.61553001E+02  0.92732E+04
 0.61603001E+02  0.11848E+05
 0.61653004E+02  0.14564E+05
 0.61703003E+02  0.18657E+05
 0.61753002E+02  0.20581E+05
 0.61803001E+02  0.17336E+05
 0.61853001E+02  0.10516E+05
 0.61903004E+02  0.87967E+04
 0.61953003E+02  0.84257E+04
 0.62003002E+02  0.10962E+05
 0.62053001E+02  0.13427E+05
 0.62103004E+02  0.12974E+05
 0.62153000E+02  0.98352E+04
 0.62203003E+02  0.67925E+04
 0.62252998E+02  0.89044E+04
 0.62303001E+02  0.11354E+05
 0.62353004E+02  0.12124E+05
 0.62403000E+02  0.14501E+05
 0.62453003E+02  0.14074E+05
 0.62502998E+02  0.12887E+05
 0.62553001E+02  0.12543E+05
 0.62603004E+02  0.96192E+04
 0.62653000E+02  0.74014E+04
 0.62703003E+02  0.76498E+04
 0.62752998E+02  0.90500E+04
 0.62803001E+02  0.98248E+04
 0.62853004E+02  0.13306E+05
 0.62903000E+02  0.14359E+05
 0.62953003E+02  0.11936E+05
 0.63002998E+02  0.10681E+05
 0.63053001E+02  0.10368E+05
 0.63103004E+02  0.11020E+05
 0.63153000E+02  0.11033E+05
 0.63203003E+02  0.96277E+04
 0.63252998E+02  0.97008E+04
 0.63303001E+02  0.10198E+05
 0.63353004E+02  0.96736E+04
 0.63403000E+02  0.10599E+05
 0.63453003E+02  0.14824E+05
 0.63502998E+02  0.18844E+05
 0.63553001E+02  0.20389E+05
 0.63603004E+02  0.21880E+05
 0.63653000E+02  0.18425E+05
 0.63703003E+02  0.12949E+05
 0.63752998E+02  0.13073E+05
 0.63803001E+02  0.13988E+05
 0.63853004E+02  0.14268E+05
 0.63903000E+02  0.11822E+05
 0.63953003E+02  0.97751E+04
 0.64002998E+02  0.91467E+04
 0.64053001E+02  0.82368E+04
 0.64103004E+02  0.11674E+05
 0.64153000E+02  0.14278E+05
 0.64203003E+02  0.13378E+05
 0.64252998E+02  0.95617E+04
 0.64303001E+02  0.82092E+04
 0.64353004E+02  0.81114E+04
 0.64403000E+02  0.70206E+04
 0.64453003E+02  0.60232E+04
 0.64502998E+02  0.18342E+04
 0.64553001E+02 -0.11178E+04
 0.64603004E+02 -0.53625E+03
 0.64653000E+02  0.79635E+03
 0.64703003E+02  0.41426E+04
 0.64752998E+02  0.93694E+04
 0.64803001E+02  0.13378E+05
 0.64853004E+02  0.16868E+05
 0.64903000E+02  0.18248E+05
 0.64953003E+02  0.15508E+05
 0.65002998E+02  0.13214E+05
 0.65053001E+02  0.12589E+05
 0.65103004E+02  0.11560E+05
 0.65153000E+02  0.93709E+04
 0.65203003E+02  0.67207E+04
 0.65252998E+02  0.98324E+04
 0.65303001E+02  0.15212E+05
 0.65353004E+02  0.16884E+05
 0.65403000E+02  0.17939E+05
 0.65453003E+02  0.18571E+05
 0.65502998E+02  0.16893E+05
 0.65553001E+02  0.17642E+05
 0.65603004E+02  0.19332E+05
 0.65653000E+02  0.15061E+05
 0.65703003E+02  0.11900E+05
 0.65752998E+02  0.13028E+05
 0.65803001E+02  0.98935E+04
 0.65853004E+02  0.55001E+04
 0.65903000E+02  0.19323E+04
 0.65953003E+02  0.15128E+03
 0.66002998E+02  0.27417E+04
 0.66053001E+02  0.69029E+04
 0.66103004E+02  0.10922E+05
 0.66153000E+02  0.14862E+05
 0.66203003E+02  0.15689E+05
 0.66252998E+02  0.15210E+05
 0.66303001E+02  0.16905E+05
 0.66353004E+02  0.16751E+05
 0.66403000E+02  0.18187E+05
 0.66453003E+02  0.21459E+05
 0.66502998E+02  0.21631E+05
 0.66553001E+02  0.18325E+05
 0.66603004E+02  0.15526E+05
 0.66653000E+02  0.86363E+04
 0.66703003E+02 -0.66021E+03
 0.66752998E+02 -0.37785E+04
 0.66803001E+02 -0.13590E+04
 0.66853004E+02  0.38360E+04
 0.66903000E+02  0.87093E+04
 0.66953003E+02  0.10693E+05
 0.67002998E+02  0.10957E+05
 0.67053001E+02  0.12957E+05
 0.67103004E+02  0.15461E+05
 0.67153000E+02  0.17876E+05
 0.67203003E+02  0.19510E+05
 0.67252998E+02  0.19320E+05
 0.67303001E+02  0.17777E+05
 0.67353004E+02  0.15179E+05
 0.67403000E+02  0.13436E+05
 0.67453003E+02  0.11693E+05
 0.67502998E+02  0.11736E+05
 0.67553001E+02  0.15012E+05
 0.67603004E+02  0.17505E+05
 0.67653000E+02  0.18316E+05
 0.67703003E+02  0.17005E+05
 0.67752998E+02  0.13875E+05
 0.67803001E+02  0.97276E+04
 0.67853004E+02  0.70435E+04
 0.67903000E+02  0.87929E+04
 0.67953003E+02  0.10634E+05
 0.68002998E+02  0.11591E+05
 0.68053001E+02  0.10961E+05
 0.68103004E+02  0.85178E+04
 0.68153000E+02  0.49945E+04
 0.68203003E+02  0.23904E+04
 0.68252998E+02  0.58792E+04
 0.68303001E+02  0.11006E+05
 0.68353004E+02  0.14239E+05
 0.68403000E+02  0.15301E+05
 0.68453003E+02  0.15734E+05
 0.68502998E+02  0.13569E+05
 0.68553001E+02  0.11185E+05
 0.68603004E+02  0.11876E+05
 0.68653000E+02  0.11146E+05
 0.68703003E+02  0.11119E+05
 0.68752998E+02  0.12893E+05
 0.68803001E+02  0.15840E+05
 0.68853004E+02  0.18141E+05
 0.68903000E+02  0.18104E+05
 0.68953003E+02  0.15186E+05
 0.69002998E+02  0.11235E+05
 0.69053001E+02  0.75677E+04
 0.69103004E+02  0.30753E+04
 0.69153000E+02  0.81733E+03
 0.69203003E+02  0.12880E+04
 0.69252998E+02  0.34347E+04
 0.69303001E+02  0.53431E+04
 0.69353004E+02  0.62161E+04
 0.69403000E+02  0.67749E+04
 0.69453003E+02  0.82042E+04
 0.69502998E+02  0.10894E+05
 0.69553001E+02  0.13854E+05
 0.69603004E+02  0.17046E+05
 0.69653000E+02  0.19768E+05
 0.69703003E+02  0.20688E+05
 0.69752998E+02  0.17418E+05
 0.69803001E+02  0.14939E+05
 0.69853004E+02  0.15273E+05
 0.69903000E+02  0.15881E+05
 0.69953003E+02  0.16113E+05
 0.70002998E+02  0.14332E+05
 0.70053001E+02  0.13728E+05
 0.70103004E+02  0.14956E+05
 0.70153000E+02  0.14992E+05
 0.70203003E+02  0.13932E+05
 0.70252998E+02  0.12526E+05
 0.70303001E+02  0.98391E+04
 0.70353004E+02  0.80207E+04
 0.70403000E+02  0.86715E+04
 0.70453003E+02  0.91520E+04
 0.70502998E+02  0.82609E+04
 0.70553001E+02  0.82968E+04
 0.70603004E+02  0.82919E+04
 0.70653000E+02  0.87731E+04
 0.70703003E+02  0.10446E+05
 0.70752998E+02  0.96168E+04
 0.70803001E+02  0.88629E+04
 0.70853004E+02  0.10331E+05
 0.70903000E+02  0.12124E+05
 0.70953003E+02  0.13464E+05
 0.71002998E+02  0.14739E+05
 0.71053001E+02  0.14754E+05
 0.71103004E+02  0.12786E+05
 0.71153000E+02  0.11319E+05
 0.71203003E+02  0.98273E+04
 0.71252998E+02  0.86875E+04
 0.71303001E+02  0.10715E+05
 0.71353004E+02  0.14091E+05
 0.71403000E+02  0.15297E+05
 0.71453003E+02  0.15451E+05
 0.71502998E+02  0.15718E+05
 0.71553001E+02  0.14891E+05
 0.71603004E+02  0.12495E+05
 0.71653000E+02  0.88286E+04
 0.71703003E+02  0.55528E+04
 0.71752998E+02  0.46902E+04
 0.71803001E+02  0.79272E+04
 0.71853004E+02  0.11970E+05
 0.71903000E+02  0.14415E+05
 0.71953003E+02  0.15980E+05
 0.72002998E+02  0.15321E+05
 0.72053001E+02  0.12228E+05
 0.72103004E+02  0.88766E+04
 0.72153000E+02  0.73691E+04
 0.72203003E+02  0.69510E+04
 0.72252998E+02  0.79849E+04
 0.72303001E+02  0.90526E+04
 0.72353004E+02  0.92955E+04
 0.72403000E+02  0.11245E+05
 0.72453003E+02  0.13214E+05
 0.72502998E+02  0.13517E+05
 0.72553001E+02  0.11666E+05
 0.72603004E+02  0.94643E+04
 0.72653000E+02  0.88452E+04
 0.72703003E+02  0.94036E+04
 0.72752998E+02  0.11324E+05
 0.72803001E+02  0.13122E+05
 0.72853004E+02  0.14374E+05
 0.72903000E+02  0.14412E+05
 0.72953003E+02  0.13832E+05
 0.73002998E+02  0.12820E+05
 0.73053001E+02  0.13473E+05
 0.73103004E+02  0.15952E+05
 0.73153000E+02  0.15685E+05
 0.73203003E+02  0.12718E+05
 0.73252998E+02  0.10297E+05
 0.73303001E+02  0.96360E+04
 0.73353004E+02  0.92108E+04
 0.73403000E+02  0.11168E+05
 0.73453003E+02  0.14362E+05
 0.73502998E+02  0.15561E+05
 0.73553001E+02  0.16348E+05
 0.73603004E+02  0.17373E+05
 0.73653000E+02  0.15942E+05
 0.73703003E+02  0.12304E+05
 0.73752998E+02  0.77660E+04
 0.73803001E+02  0.30942E+04
 0.73853004E+02  0.48821E+03
 0.73903000E+02 -0.35510E+03
 0.73953003E+02  0.17378E+04
 0.74002998E+02  0.54630E+04
 0.74053001E+02  0.90111E+04
 0.74103004E+02  0.12664E+05
 0.74153000E+02  0.16009E+05
 0.74203003E+02  0.18167E+05
 0.74252998E+02  0.19958E+05
 0.74303001E+02  0.20677E+05
 0.74353004E+02  0.19709E+05
 0.74403000E+02  0.17501E+05
 0.74453003E+02  0.14096E+05
 0.74502998E+02  0.12737E+05
 0.74553001E+02  0.11520E+05
 0.74603004E+02  0.12440E+05
 0.74653000E+02  0.16502E+05
 0.74703003E+02  0.19350E+05
 0.74752998E+02  0.19170E+05
 0.74803001E+02  0.17282E+05
 0.74853004E+02  0.14931E+05
 0.74903000E+02  0.12098E+05
 0.74953003E+02  0.10262E+05
 0.75002998E+02  0.77653E+04
 0.75053001E+02  0.53252E+04
 0.75103004E+02  0.29911E+04
 0.75153000E+02  0.22911E+04
 0.75203003E+02  0.44659E+04
 0.75252998E+02  0.57330E+04
 0.75303001E+02  0.72787E+04
 0.75353004E+02  0.10705E+05
 0.75403000E+02  0.14564E+05
 0.75453003E+02  0.18080E+05
 0.75502998E+02  0.19918E+05
 0.75553001E+02  0.20662E+05
 0.75603004E+02  0.18651E+05
 0.75653000E+02  0.15107E+05
 0.75703003E+02  0.12386E+05
 0.75752998E+02  0.10061E+05
 0.75803001E+02  0.82777E+04
 0.75853004E+02  0.61795E+04
 0.75903000E+02  0.63530E+04
 0.75953003E+02  0.81983E+04
 0.76002998E+02  0.96119E+04
 0.76053001E+02  0.10137E+05
 0.76103004E+02  0.93708E+04
 0.76153000E+02  0.71110E+04
 0.76203003E+02  0.47762E+04
 0.76252998E+02  0.53634E+04
 0.76303001E+02  0.91002E+04
 0.76353004E+02  0.13288E+05
 0.76403000E+02  0.16273E+05
 0.76453003E+02  0.17811E+05
 0.76502998E+02  0.16796E+05
 0.76553001E+02  0.15274E+05
 0.76603004E+02  0.14570E+05
 0.76653000E+02  0.13326E+05
 0.76703003E+02  0.12025E+05
 0.76752998E+02  0.10941E+05
 0.76803001E+02  0.10428E+05
 0.76853004E+02  0.10294E+05
 0.76903000E+02  0.97619E+04
 0.76953003E+02  0.95577E+04
 0.77002998E+02  0.93027E+04
 0.77053001E+02  0.89767E+04
 0.77103004E+02  0.10358E+05
 0.77153000E+02  0.12014E+05
 0.77203003E+02  0.11862E+05
 0.77252998E+02  0.10719E+05
 0.77303001E+02  0.89625E+04
 0.77353004E+02  0.83765E+04
 0.77403000E+02  0.86510E+04
 0.77453003E+02  0.91243E+04
 0.77502998E+02  0.11701E+05
 0.77553001E+02  0.13324E+05
 0.77603004E+02  0.13784E+05
 0.77653000E+02  0.12905E+05
 0.77703003E+02  0.97677E+04
 0.77752998E+02  0.80485E+04
 0.77803001E+02  0.70956E+04
 0.77853004E+02  0.71421E+04
 0.77903000E+02  0.92950E+04
 0.77953003E+02  0.11507E+05
 0.78002998E+02  0.12339E+05
 0.78053001E+02  0.13205E+05
 0.78103004E+02  0.14620E+05
 0.78153000E+02  0.15209E+05
 0.78203003E+02  0.15984E+05
 0.78252998E+02  0.17197E+05
 0.78303001E+02  0.16817E+05
 0.78353004E+02  0.16032E+05
 0.78403000E+02  0.14946E+05
 0.78453003E+02  0.12878E+05
 0.78502998E+02  0.12380E+05
 0.78553001E+02  0.13116E+05
 0.78603004E+02  0.14495E+05
 0.78653000E+02  0.15654E+05
 0.78703003E+02  0.16274E+05
 0.78752998E+02  0.16529E+05
 0.78803001E+02  0.16297E+05
 0.78853004E+02  0.15728E+05
 0.78903000E+02  0.14428E+05
 0.78953003E+02  0.12614E+05
 0.79002998E+02  0.99126E+04
 0.79053001E+02  0.83257E+04
 0.79103004E+02  0.85275E+04
 0.79153000E+02  0.81153E+04
 0.79203003E+02  0.78210E+04
 0.79252998E+02  0.79151E+04
 0.79303001E+02  0.90332E+04
 0.79353004E+02  0.10298E+05
 0.79403000E+02  0.10202E+05
 0.79453003E+02  0.10842E+05
 0.79502998E+02  0.10692E+05
 0.79553001E+02  0.10690E+05
 0.79603004E+02  0.10685E+05
 0.79653000E+02  0.10805E+05
 0.79703003E+02  0.12015E+05
 0.79752998E+02  0.13112E+05
 0.79803001E+02  0.14679E+05
 0.79853004E+02  0.14748E+05
 0.79903000E+02  0.13987E+05
 0.79953003E+02  0.13656E+05
 0.80002998E+02  0.13644E+05
 0.80053001E+02  0.12571E+05
 0.80103004E+02  0.98959E+04
 0.80153000E+02  0.71848E+04
 0.80203003E+02  0.58732E+04
 0.80252998E+02  0.60138E+04
 0.80303001E+02  0.72679E+04
 0.80353004E+02  0.99043E+04
 0.80403000E+02  0.11629E+05
 0.80453003E+02  0.11050E+05
 0.80502998E+02  0.98123E+04
 0.80553001E+02  0.85337E+04
 0.80603004E+02  0.68629E+04
 0.80653000E+02  0.66941E+04
 0.80703003E+02  0.86701E+04
 0.80752998E+02  0.10333E+05
 0.80803001E+02  0.10781E+05
 0.80853004E+02  0.10829E+05
 0.80903000E+02  0.10696E+05
 0.80953003E+02  0.11100E+05
 0.81002998E+02  0.11761E+05
 0.81053001E+02  0.12300E+05
 0.81103004E+02  0.12217E+05
 0.81153000E+02  0.11451E+05
 0.81203003E+02  0.11709E+05
 0.81252998E+02  0.12256E+05
 0.81303001E+02  0.13551E+05
 0.81353004E+02  0.16203E+05
 0.81403000E+02  0.18437E+05
 0.81453003E+02  0.18914E+05
 0.81502998E+02  0.16661E+05
 0.81553001E+02  0.13279E+05
 0.81603004E+02  0.10580E+05
 0.81653000E+02  0.95660E+04
 0.81703003E+02  0.10600E+05
 0.81752998E+02  0.11420E+05
 0.81803001E+02  0.10777E+05
 0.81853004E+02  0.93596E+04
 0.81903000E+02  0.76910E+04
 0.81953003E+02  0.70347E+04
 0.82002998E+02  0.78238E+04
 0.82053001E+02  0.95155E+04
 0.82103004E+02  0.12138E+05
 0.82153000E+02  0.15312E+05
 0.82203003E+02  0.17788E+05
 0.82252998E+02  0.19394E+05
 0.82303001E+02  0.19638E+05
 0.82353004E+02  0.18239E+05
 0.82403000E+02  0.17366E+05
 0.82453003E+02  0.16062E+05
 0.82502998E+02  0.14539E+05
 0.82553001E+02  0.13461E+05
 0.82603004E+02  0.11991E+05
 0.82653000E+02  0.11200E+05
 0.82703003E+02  0.10843E+05
 0.82752998E+02  0.10338E+05
 0.82803001E+02  0.10129E+05
 0.82853004E+02  0.93760E+04
 0.82903000E+02  0.77298E+04
 0.82953003E+02  0.67246E+04
 0.83002998E+02  0.59750E+04
 0.83053001E+02  0.57522E+04
 0.83103004E+02  0.71244E+04
 0.83153000E+02  0.91358E+04
 0.83203003E+02  0.11281E+05
 0.83252998E+02  0.14296E+05
 0.83303001E+02  0.15528E+05
 0.83353004E+02  0.13735E+05
 0.83403000E+02  0.11127E+05
 0.83453003E+02  0.80459E+04
 0.83502998E+02  0.61975E+04
 0.83553001E+02  0.66300E+04
 0.83603004E+02  0.84978E+04
 0.83653000E+02  0.97567E+04
 0.83703003E+02  0.10104E+05
 0.83752998E+02  0.11123E+05
 0.83803001E+02  0.12040E+05
 0.83853004E+02  0.12954E+05
 0.83903000E+02  0.14369E+05
 0.83953003E+02  0.16378E+05
 0.84002998E+02  0.18354E+05
 0.84053001E+02  0.19161E+05
 0.84103004E+02  0.18716E+05
 0.84153000E+02  0.17745E+05
 0.84203003E+02  0.17220E+05
 0.84252998E+02  0.17230E+05
 0.84303001E+02  0.16926E+05
 0.84353004E+02  0.16134E+05
 0.84403000E+02  0.14518E+05
 0.84453003E+02  0.13639E+05
 0.84502998E+02  0.13575E+05
 0.84553001E+02  0.12755E+05
 0.84603004E+02  0.11750E+05
 0.84653000E+02  0.10071E+05
 0.84703003E+02  0.78887E+04
 0.84752998E+02  0.49829E+04
 0.84803001E+02  0.24006E+04
 0.84853004E+02  0.95503E+03
 0.84903000E+02  0.46645E+03
 0.84953003E+02  0.91215E+03
 0.85002998E+02  0.23669E+04
 0.85053001E+02  0.51073E+04
 0.85103004E+02  0.78165E+04
 0.85153000E+02  0.93698E+04
 0.85203003E+02  0.97937E+04
 0.85252998E+02  0.94715E+04
 0.85303001E+02  0.89305E+04
 0.85353004E+02  0.92417E+04
 0.85403000E+02  0.10252E+05
 0.85453003E+02  0.11871E+05
 0.85502998E+02  0.14011E+05
 0.85553001E+02  0.16800E+05
 0.85603004E+02  0.19292E+05
 0.85653000E+02  0.19975E+05
 0.85703003E+02  0.20122E+05
 0.85752998E+02  0.20848E+05
 0.85803001E+02  0.21529E+05
 0.85853004E+02  0.21147E+05
 0.85903000E+02  0.19362E+05
 0.85953003E+02  0.17144E+05
 0.86002998E+02  0.15239E+05
 0.86053001E+02  0.13907E+05
 0.86103004E+02  0.13196E+05
 0.86153000E+02  0.12671E+05
 0.86203003E+02  0.12214E+05
 0.86252998E+02  0.12194E+05
 0.86303001E+02  0.12175E+05
 0.86353004E+02  0.10297E+05
 0.86403000E+02  0.79032E+04
 0.86453003E+02  0.57439E+04
 0.86502998E+02  0.33984E+04
 0.86553001E+02  0.26862E+04
 0.86603004E+02  0.28194E+04
 0.86653000E+02  0.34897E+04
 0.86703003E+02  0.49878E+04
 0.86752998E+02  0.51004E+04
 0.86803001E+02  0.40202E+04
 0.86853004E+02  0.40925E+04
 0.86903000E+02  0.61974E+04
 0.86953003E+02  0.96790E+04
 0.87002998E+02  0.13317E+05
 0.87053001E+02  0.15736E+05
 0.87103004E+02  0.17008E+05
 0.87153000E+02  0.18299E+05
 0.87203003E+02  0.18431E+05
 0.87252998E+02  0.17651E+05
 0.87303001E+02  0.16720E+05
 0.87353004E+02  0.15770E+05
 0.87403000E+02  0.14940E+05
 0.87453003E+02  0.13357E+05
 0.87502998E+02  0.12901E+05
 0.87553001E+02  0.13200E+05
 0.87602997E+02  0.13914E+05
 0.87653000E+02  0.15164E+05
 0.87703003E+02  0.15293E+05
 0.87752998E+02  0.15231E+05
 0.87803001E+02  0.14902E+05
 0.87852997E+02  0.14176E+05
 0.87903000E+02  0.13390E+05
 0.87953003E+02  0.12299E+05
 0.88002998E+02  0.11215E+05
 0.88053001E+02  0.99256E+04
 0.88102997E+02  0.77716E+04
 0.88153000E+02  0.49474E+04
 0.88203003E+02  0.30271E+04
 0.88252998E+02  0.29223E+04
 0.88303001E+02  0.43971E+04
 0.88352997E+02  0.69187E+04
 0.88403000E+02  0.10055E+05
 0.88453003E+02  0.12570E+05
 0.88502998E+02  0.13363E+05
 0.88553001E+02  0.13646E+05
 0.88602997E+02  0.14086E+05
 0.88653000E+02  0.14636E+05
 0.88703003E+02  0.14822E+05
 0.88752998E+02  0.14370E+05
 0.88803001E+02  0.13241E+05
 0.88852997E+02  0.11568E+05
 0.88903000E+02  0.10916E+05
 0.88953003E+02  0.10996E+05
 0.89002998E+02  0.11837E+05
 0.89053001E+02  0.13097E+05
 0.89102997E+02  0.13488E+05
 0.89153000E+02  0.13787E+05
 0.89203003E+02  0.13977E+05
 0.89252998E+02  0.13805E+05
 0.89303001E+02  0.12908E+05
 0.89352997E+02  0.12416E+05
 0.89403000E+02  0.12557E+05
 0.89453003E+02  0.12157E+05
 0.89502998E+02  0.11224E+05
 0.89553001E+02  0.92886E+04
 0.89602997E+02  0.71143E+04
 0.89653000E+02  0.64298E+04
 0.89703003E+02  0.68071E+04
 0.89752998E+02  0.78062E+04
 0.89803001E+02  0.94040E+04
 0.89852997E+02  0.10883E+05
 0.89903000E+02  0.12029E+05
 0.89953003E+02  0.13067E+05
 0.90002998E+02  0.14133E+05
 0.90053001E+02  0.14176E+05
 0.90102997E+02  0.12990E+05
 0.90153000E+02  0.11663E+05
 0.90203003E+02  0.10885E+05
 0.90252998E+02  0.10723E+05
 0.90303001E+02  0.10813E+05
 0.90352997E+02  0.10798E+05
 0.90403000E+02  0.10729E+05
 0.90453003E+02  0.10289E+05
 0.90502998E+02  0.99278E+04
 0.90553001E+02  0.98791E+04
 0.90602997E+02  0.10852E+05
 0.90653000E+02  0.12718E+05
 0.90703003E+02  0.15181E+05
 0.90752998E+02  0.17281E+05
 0.90803001E+02  0.17717E+05
 0.90852997E+02  0.16819E+05
 0.90903000E+02  0.15431E+05
 0.90953003E+02  0.14959E+05
 0.91002998E+02  0.14053E+05
 0.91053001E+02  0.12526E+05
 0.91102997E+02  0.10417E+05
 0.91153000E+02  0.82494E+04
 0.91203003E+02  0.71010E+04
 0.91252998E+02  0.58155E+04
 0.91303001E+02  0.47934E+04
 0.91352997E+02  0.50624E+04
 0.91403000E+02  0.57610E+04
 0.91453003E+02  0.67897E+04
 0.91502998E+02  0.84384E+04
 0.91553001E+02  0.99844E+04
 0.91602997E+02  0.11576E+05
 0.91653000E+02  0.12921E+05
 0.91703003E+02  0.14210E+05
 0.91752998E+02  0.15802E+05
 0.91803001E+02  0.17068E+05
 0.91852997E+02  0.17238E+05
 0.91903000E+02  0.16946E+05
 0.91953003E+02  0.16205E+05
 0.92002998E+02  0.14807E+05
 0.92053001E+02  0.13465E+05
 0.92102997E+02  0.11567E+05
 0.92153000E+02  0.98383E+04
 0.92203003E+02  0.94281E+04
 0.92252998E+02  0.95088E+04
 0.92303001E+02  0.97195E+04
 0.92352997E+02  0.10882E+05
 0.92403000E+02  0.12709E+05
 0.92453003E+02  0.13736E+05
 0.92502998E+02  0.14452E+05
 0.92553001E+02  0.15320E+05
 0.92602997E+02  0.15260E+05
 0.92653000E+02  0.14337E+05
 0.92703003E+02  0.13259E+05
 0.92752998E+02  0.12842E+05
 0.92803001E+02  0.12035E+05
 0.92852997E+02  0.10793E+05
 0.92903000E+02  0.10618E+05
 0.92953003E+02  0.10375E+05
 0.93002998E+02  0.10036E+05
 0.93053001E+02  0.99867E+04
 0.93102997E+02  0.99383E+04
 0.93153000E+02  0.98454E+04
 0.93203003E+02  0.10145E+05
 0.93252998E+02  0.11672E+05
 0.93303001E+02  0.13105E+05
 0.93352997E+02  0.13648E+05
 0.93403000E+02  0.13517E+05
 0.93453003E+02  0.12903E+05
 0.93502998E+02  0.12129E+05
 0.93553001E+02  0.11305E+05
 0.93602997E+02  0.10551E+05
 0.93653000E+02  0.10282E+05
 0.93703003E+02  0.10144E+05
 0.93752998E+02  0.98896E+04
 0.93803001E+02  0.10178E+05
 0.93852997E+02  0.10674E+05
 0.93903000E+02  0.10659E+05
 0.93953003E+02  0.10540E+05
 0.94002998E+02  0.10449E+05
 0.94053001E+02  0.10093E+05
 0.94102997E+02  0.10116E+05
 0.94153000E+02  0.10411E+05
 0.94203003E+02  0.10757E+05
 0.94252998E+02  0.10962E+05
 0.94303001E+02  0.10765E+05
 0.94352997E+02  0.10184E+05
 0.94403000E+02  0.10103E+05
 0.94453003E+02  0.10855E+05
 0.94502998E+02  0.12118E+05
 0.94553001E+02  0.13875E+05
 0.94602997E+02  0.15590E+05
 0.94653000E+02  0.16177E+05
 0.94703003E+02  0.15308E+05
 0.94752998E+02  0.13941E+05
 0.94803001E+02  0.12855E+05
 0.94852997E+02  0.11741E+05
 0.94903000E+02  0.10999E+05
 0.94953003E+02  0.11294E+05
 0.95002998E+02  0.11115E+05
 0.95053001E+02  0.10664E+05
 0.95102997E+02  0.10367E+05
 0.95153000E+02  0.99650E+04
 0.95203003E+02  0.98826E+04
 0.95252998E+02  0.10349E+05
 0.95303001E+02  0.10956E+05
 0.95352997E+02  0.11438E+05
 0.95403000E+02  0.11780E+05
 0.95453003E+02  0.12213E+05
 0.95502998E+02  0.12611E+05
 0.95553001E+02  0.12288E+05
 0.95602997E+02  0.12027E+05
 0.95653000E+02  0.11885E+05
 0.95703003E+02  0.11486E+05
 0.95752998E+02  0.11023E+05
 0.95803001E+02  0.10814E+05
 0.95852997E+02  0.11339E+05
 0.95903000E+02  0.12106E+05
 0.95953003E+02  0.12538E+05
 0.96002998E+02  0.13261E+05
 0.96053001E+02  0.13932E+05
 0.96102997E+02  0.13848E+05
 0.96153000E+02  0.13482E+05
 0.96203003E+02  0.12760E+05
 0.96252998E+02  0.11574E+05
 0.96303001E+02  0.10648E+05
 0.96352997E+02  0.99004E+04
 0.96403000E+02  0.93177E+04
 0.96453003E+02  0.98612E+04
 0.96502998E+02  0.11288E+05
 0.96553001E+02  0.12271E+05
 0.96602997E+02  0.12688E+05
 0.96653000E+02  0.12996E+05
 0.96703003E+02  0.12716E+05
 0.96752998E+02  0.12505E+05
 0.96803001E+02  0.12167E+05
 0.96852997E+02  0.11422E+05
 0.96903000E+02  0.11487E+05
 0.96953003E+02  0.11618E+05
 0.97002998E+02  0.11488E+05
 0.97053001E+02  0.11218E+05
 0.97102997E+02  0.10812E+05
 0.97153000E+02  0.10507E+05
 0.97203003E+02  0.99533E+04
 0.97252998E+02  0.92937E+04
 0.97303001E+02  0.90778E+04
 0.97352997E+02  0.98242E+04
 0.97403000E+02  0.11197E+05
 0.97453003E+02  0.12253E+05
 0.97502998E+02  0.12694E+05
 0.97553001E+02  0.12813E+05
 0.97602997E+02  0.12877E+05
 0.97653000E+02  0.13151E+05
 0.97703003E+02  0.13476E+05
 0.97752998E+02  0.13479E+05
 0.97803001E+02  0.12551E+05
 0.97852997E+02  0.10914E+05
 0.97903000E+02  0.94065E+04
 0.97953003E+02  0.85423E+04
 0.98002998E+02  0.90384E+04
