-0.20000000E+01 -0.20200E+05
-0.19500000E+01 -0.29338E+05
-0.19000000E+01 -0.36720E+05
-0.18500000E+01 -0.42434E+05
-0.18000000E+01 -0.46135E+05
-0.17500000E+01 -0.48400E+05
-0.17000000E+01 -0.49956E+05
-0.16500001E+01 -0.50622E+05
-0.16000000E+01 -0.50700E+05
-0.15500000E+01 -0.50954E+05
-0.15000000E+01 -0.51960E+05
-0.14500000E+01 -0.53286E+05
-0.14000001E+01 -0.54138E+05
-0.13500000E+01 -0.54023E+05
-0.13000001E+01 -0.52826E+05
-0.12500000E+01 -0.51009E+05
-0.12000000E+01 -0.49271E+05
-0.11500001E+01 -0.47780E+05
-0.11000000E+01 -0.46276E+05
-0.10500001E+01 -0.44559E+05
-0.10000000E+01 -0.42790E+05
-0.95000005E+00 -0.41319E+05
-0.90000010E+00 -0.40486E+05
-0.85000002E+00 -0.40021E+05
-0.80000007E+00 -0.39118E+05
-0.75000012E+00 -0.37636E+05
-0.70000005E+00 -0.35759E+05
-0.65000010E+00 -0.34236E+05
-0.60000014E+00 -0.33342E+05
-0.55000007E+00 -0.33056E+05
-0.50000012E+00 -0.32898E+05
-0.45000005E+00 -0.32422E+05
-0.40000010E+00 -0.31079E+05
-0.35000014E+00 -0.28100E+05
-0.30000007E+00 -0.23517E+05
-0.25000012E+00 -0.17408E+05
-0.20000005E+00 -0.96746E+04
-0.15000010E+00 -0.24989E+03
-0.10000014E+00  0.10259E+05
-0.50000072E-01  0.21478E+05
-0.11920929E-06  0.32631E+05
 0.49999952E-01  0.42889E+05
 0.99999905E-01  0.52240E+05
 0.14999986E+00  0.60264E+05
 0.19999981E+00  0.66094E+05
 0.24999976E+00  0.68930E+05
 0.29999995E+00  0.68430E+05
 0.34999990E+00  0.64803E+05
 0.39999986E+00  0.59104E+05
 0.44999981E+00  0.51832E+05
 0.49999976E+00  0.43859E+05
 0.54999995E+00  0.35918E+05
 0.59999990E+00  0.28600E+05
 0.64999986E+00  0.22715E+05
 0.69999981E+00  0.18138E+05
 0.74999976E+00  0.15176E+05
 0.79999971E+00  0.13868E+05
 0.84999990E+00  0.14496E+05
 0.89999986E+00  0.17104E+05
 0.94999981E+00  0.21161E+05
 0.99999976E+00  0.26100E+05
 0.10499997E+01  0.30888E+05
 0.10999999E+01  0.34964E+05
 0.11499999E+01  0.38351E+05
 0.11999998E+01  0.41308E+05
 0.12499998E+01  0.43538E+05
 0.12999997E+01  0.44699E+05
 0.13499999E+01  0.44538E+05
 0.13999999E+01  0.42911E+05
 0.14499998E+01  0.40170E+05
 0.14999998E+01  0.37049E+05
 0.15499997E+01  0.34372E+05
 0.15999999E+01  0.32346E+05
 0.16499999E+01  0.30916E+05
 0.16999998E+01  0.29446E+05
 0.17499998E+01  0.28019E+05
 0.17999997E+01  0.26141E+05
 0.18499997E+01  0.23566E+05
 0.18999999E+01  0.19867E+05
 0.19499998E+01  0.14408E+05
 0.19999998E+01  0.73629E+04
 0.20499997E+01 -0.87173E+03
 0.20999999E+01 -0.97379E+04
 0.21499996E+01 -0.18646E+05
 0.21999998E+01 -0.26974E+05
 0.22499995E+01 -0.34849E+05
 0.22999997E+01 -0.41386E+05
 0.23499999E+01 -0.45458E+05
 0.23999996E+01 -0.46822E+05
 0.24499998E+01 -0.45608E+05
 0.24999995E+01 -0.42068E+05
 0.25499997E+01 -0.36892E+05
 0.25999999E+01 -0.30629E+05
 0.26499996E+01 -0.23790E+05
 0.26999998E+01 -0.16779E+05
 0.27499995E+01 -0.10075E+05
 0.27999997E+01 -0.43514E+04
 0.28499999E+01 -0.95057E+02
 0.28999996E+01  0.24542E+04
 0.29499998E+01  0.29600E+04
 0.29999995E+01  0.11402E+04
 0.30499997E+01 -0.30848E+04
 0.30999999E+01 -0.98056E+04
 0.31499996E+01 -0.18475E+05
 0.31999998E+01 -0.27944E+05
 0.32499995E+01 -0.36950E+05
 0.32999997E+01 -0.45058E+05
 0.33499999E+01 -0.51734E+05
 0.33999996E+01 -0.56819E+05
 0.34499998E+01 -0.60001E+05
 0.34999995E+01 -0.60709E+05
 0.35499997E+01 -0.59052E+05
 0.35999994E+01 -0.54887E+05
 0.36499996E+01 -0.48014E+05
 0.36999998E+01 -0.38462E+05
 0.37499995E+01 -0.27271E+05
 0.37999997E+01 -0.15288E+05
 0.38499994E+01 -0.30047E+04
 0.38999996E+01  0.91036E+04
 0.39499998E+01  0.21096E+05
 0.39999995E+01  0.33204E+05
 0.40499997E+01  0.44982E+05
 0.40999994E+01  0.55961E+05
 0.41499996E+01  0.65727E+05
 0.41999998E+01  0.73869E+05
 0.42499995E+01  0.80367E+05
 0.42999997E+01  0.85215E+05
 0.43499994E+01  0.88138E+05
 0.43999996E+01  0.88406E+05
 0.44499998E+01  0.85475E+05
 0.44999995E+01  0.78907E+05
 0.45499997E+01  0.69448E+05
 0.45999994E+01  0.57930E+05
 0.46499996E+01  0.45289E+05
 0.46999998E+01  0.32658E+05
 0.47499995E+01  0.20222E+05
 0.47999997E+01  0.83308E+04
 0.48499994E+01 -0.26315E+04
 0.48999996E+01 -0.12179E+05
 0.49499998E+01 -0.19871E+05
 0.49999995E+01 -0.25435E+05
 0.50499997E+01 -0.29401E+05
 0.50999994E+01 -0.31801E+05
 0.51499996E+01 -0.33050E+05
 0.51999998E+01 -0.33563E+05
 0.52499995E+01 -0.33203E+05
 0.52999997E+01 -0.32539E+05
 0.53499994E+01 -0.31820E+05
 0.53999996E+01 -0.31109E+05
 0.54499993E+01 -0.29740E+05
 0.54999995E+01 -0.27803E+05
 0.55499997E+01 -0.25104E+05
 0.55999994E+01 -0.21349E+05
 0.56499996E+01 -0.16735E+05
 0.56999993E+01 -0.11465E+05
 0.57499995E+01 -0.69315E+04
 0.57999997E+01 -0.39016E+04
 0.58499994E+01 -0.29782E+04
 0.58999996E+01 -0.40501E+04
 0.59499993E+01 -0.63090E+04
 0.59999995E+01 -0.96113E+04
 0.60499992E+01 -0.13396E+05
 0.60999994E+01 -0.17597E+05
 0.61499996E+01 -0.22250E+05
 0.61999998E+01 -0.27417E+05
 0.62499990E+01 -0.32378E+05
 0.62999992E+01 -0.37090E+05
 0.63499994E+01 -0.41565E+05
 0.63999996E+01 -0.45301E+05
 0.64499998E+01 -0.48727E+05
 0.64999990E+01 -0.52203E+05
 0.65499992E+01 -0.55812E+05
 0.65999994E+01 -0.59064E+05
 0.66499996E+01 -0.61704E+05
 0.66999998E+01 -0.63222E+05
 0.67499990E+01 -0.63133E+05
 0.67999992E+01 -0.61226E+05
 0.68499994E+01 -0.57441E+05
 0.68999996E+01 -0.52045E+05
 0.69499998E+01 -0.44600E+05
 0.69999990E+01 -0.35154E+05
 0.70499992E+01 -0.24762E+05
 0.70999994E+01 -0.13974E+05
 0.71499996E+01 -0.32378E+04
 0.71999998E+01  0.66115E+04
 0.72499990E+01  0.14844E+05
 0.72999992E+01  0.21158E+05
 0.73499994E+01  0.25474E+05
 0.73999996E+01  0.27708E+05
 0.74499998E+01  0.27914E+05
 0.74999990E+01  0.25909E+05
 0.75499992E+01  0.21392E+05
 0.75999994E+01  0.14764E+05
 0.76499996E+01  0.64956E+04
 0.76999998E+01 -0.24462E+04
 0.77499990E+01 -0.11491E+05
 0.77999992E+01 -0.20221E+05
 0.78499994E+01 -0.27814E+05
 0.78999996E+01 -0.33972E+05
 0.79499998E+01 -0.38430E+05
 0.79999990E+01 -0.41132E+05
 0.80499992E+01 -0.42139E+05
 0.80999994E+01 -0.41795E+05
 0.81499996E+01 -0.40380E+05
 0.81999998E+01 -0.38232E+05
 0.82499990E+01 -0.35575E+05
 0.82999992E+01 -0.32603E+05
 0.83499994E+01 -0.29476E+05
 0.83999996E+01 -0.26512E+05
 0.84499998E+01 -0.24434E+05
 0.84999990E+01 -0.23004E+05
 0.85499992E+01 -0.21701E+05
 0.85999994E+01 -0.19950E+05
 0.86499996E+01 -0.16940E+05
 0.86999998E+01 -0.12470E+05
 0.87499990E+01 -0.65045E+04
 0.87999992E+01  0.10224E+04
 0.88499994E+01  0.10060E+05
 0.88999996E+01  0.19628E+05
 0.89499998E+01  0.29066E+05
 0.89999990E+01  0.37702E+05
 0.90499992E+01  0.44560E+05
 0.90999994E+01  0.49974E+05
 0.91499996E+01  0.54297E+05
 0.91999989E+01  0.58428E+05
 0.92499990E+01  0.62974E+05
 0.92999992E+01  0.68041E+05
 0.93499994E+01  0.73402E+05
 0.93999996E+01  0.78806E+05
 0.94499989E+01  0.83775E+05
 0.94999990E+01  0.87572E+05
 0.95499992E+01  0.90329E+05
 0.95999994E+01  0.91510E+05
 0.96499996E+01  0.90935E+05
 0.96999989E+01  0.88548E+05
 0.97499990E+01  0.84680E+05
 0.97999992E+01  0.79870E+05
 0.98499994E+01  0.74371E+05
 0.98999996E+01  0.68695E+05
 0.99499989E+01  0.62982E+05
 0.99999990E+01  0.57197E+05
 0.10049999E+02  0.51532E+05
 0.10099999E+02  0.46582E+05
 0.10150000E+02  0.42487E+05
 0.10199999E+02  0.39069E+05
 0.10249999E+02  0.36133E+05
 0.10299999E+02  0.33294E+05
 0.10349999E+02  0.30199E+05
 0.10400000E+02  0.27514E+05
 0.10449999E+02  0.25767E+05
 0.10499999E+02  0.25656E+05
 0.10549999E+02  0.27501E+05
 0.10599999E+02  0.31181E+05
 0.10650000E+02  0.36447E+05
 0.10699999E+02  0.42189E+05
 0.10749999E+02  0.47060E+05
 0.10799999E+02  0.50050E+05
 0.10849999E+02  0.51363E+05
 0.10900000E+02  0.50915E+05
 0.10949999E+02  0.48438E+05
 0.10999999E+02  0.43833E+05
 0.11049999E+02  0.37807E+05
 0.11099999E+02  0.30883E+05
 0.11150000E+02  0.22806E+05
 0.11199999E+02  0.14020E+05
 0.11249999E+02  0.48476E+04
 0.11299999E+02 -0.47784E+04
 0.11349999E+02 -0.14817E+05
 0.11400000E+02 -0.24532E+05
 0.11449999E+02 -0.33321E+05
 0.11499999E+02 -0.40910E+05
 0.11549999E+02 -0.47131E+05
 0.11599999E+02 -0.51990E+05
 0.11650000E+02 -0.55354E+05
 0.11699999E+02 -0.57137E+05
 0.11749999E+02 -0.57047E+05
 0.11799999E+02 -0.54918E+05
 0.11849999E+02 -0.50744E+05
 0.11900000E+02 -0.45005E+05
 0.11949999E+02 -0.38210E+05
 0.11999999E+02 -0.30594E+05
 0.12049999E+02 -0.22858E+05
 0.12099999E+02 -0.15345E+05
 0.12150000E+02 -0.80384E+04
 0.12199999E+02 -0.94397E+03
 0.12249999E+02  0.51315E+04
 0.12299999E+02  0.95856E+04
 0.12349999E+02  0.12362E+05
 0.12400000E+02  0.13585E+05
 0.12449999E+02  0.13869E+05
 0.12499999E+02  0.13483E+05
 0.12549999E+02  0.12798E+05
 0.12599999E+02  0.12418E+05
 0.12649999E+02  0.12687E+05
 0.12699999E+02  0.13424E+05
 0.12749999E+02  0.13708E+05
 0.12799999E+02  0.13298E+05
 0.12849999E+02  0.12601E+05
 0.12899999E+02  0.11439E+05
 0.12949999E+02  0.98109E+04
 0.12999999E+02  0.77659E+04
 0.13049999E+02  0.48751E+04
 0.13099999E+02  0.96895E+03
 0.13149999E+02 -0.37282E+04
 0.13199999E+02 -0.87886E+04
 0.13249999E+02 -0.13565E+05
 0.13299999E+02 -0.17543E+05
 0.13349999E+02 -0.20425E+05
 0.13399999E+02 -0.21849E+05
 0.13449999E+02 -0.21473E+05
 0.13499999E+02 -0.19874E+05
 0.13549999E+02 -0.18036E+05
 0.13599999E+02 -0.16564E+05
 0.13649999E+02 -0.15519E+05
 0.13699999E+02 -0.15030E+05
 0.13749999E+02 -0.14549E+05
 0.13799999E+02 -0.14272E+05
 0.13849999E+02 -0.14786E+05
 0.13899999E+02 -0.16286E+05
 0.13949999E+02 -0.19199E+05
 0.13999999E+02 -0.23359E+05
 0.14049999E+02 -0.28677E+05
 0.14099998E+02 -0.34503E+05
 0.14150000E+02 -0.40202E+05
 0.14199999E+02 -0.45371E+05
 0.14249998E+02 -0.49234E+05
 0.14299999E+02 -0.52418E+05
 0.14349998E+02 -0.54863E+05
 0.14400000E+02 -0.56723E+05
 0.14449999E+02 -0.58063E+05
 0.14499998E+02 -0.58452E+05
 0.14549999E+02 -0.58329E+05
 0.14599998E+02 -0.57047E+05
 0.14650000E+02 -0.54978E+05
 0.14699999E+02 -0.52300E+05
 0.14749998E+02 -0.49686E+05
 0.14799999E+02 -0.47394E+05
 0.14849998E+02 -0.45319E+05
 0.14900000E+02 -0.43751E+05
 0.14949999E+02 -0.42490E+05
 0.14999998E+02 -0.41818E+05
 0.15049999E+02 -0.41356E+05
 0.15099998E+02 -0.40735E+05
 0.15150000E+02 -0.39846E+05
 0.15199999E+02 -0.38303E+05
 0.15249998E+02 -0.35249E+05
 0.15299999E+02 -0.30308E+05
 0.15349998E+02 -0.23799E+05
 0.15400000E+02 -0.16263E+05
 0.15449999E+02 -0.88227E+04
 0.15499998E+02 -0.22209E+04
 0.15549999E+02  0.35741E+04
 0.15599998E+02  0.88139E+04
 0.15650000E+02  0.13738E+05
 0.15699999E+02  0.17978E+05
 0.15749998E+02  0.21261E+05
 0.15799999E+02  0.23542E+05
 0.15849998E+02  0.24709E+05
 0.15900000E+02  0.24189E+05
 0.15949999E+02  0.22015E+05
 0.15999998E+02  0.17952E+05
 0.16049999E+02  0.11956E+05
 0.16099998E+02  0.52776E+04
 0.16150000E+02 -0.16756E+04
 0.16199999E+02 -0.81550E+04
 0.16249998E+02 -0.13609E+05
 0.16299999E+02 -0.18094E+05
 0.16349998E+02 -0.21485E+05
 0.16400000E+02 -0.23633E+05
 0.16449999E+02 -0.24388E+05
 0.16499998E+02 -0.23363E+05
 0.16549999E+02 -0.20390E+05
 0.16599998E+02 -0.15857E+05
 0.16650000E+02 -0.97336E+04
 0.16699999E+02 -0.29298E+04
 0.16749998E+02  0.39485E+04
 0.16799999E+02  0.11015E+05
 0.16849998E+02  0.18253E+05
 0.16900000E+02  0.25956E+05
 0.16949999E+02  0.33600E+05
 0.16999998E+02  0.40768E+05
 0.17049999E+02  0.47119E+05
 0.17099998E+02  0.52552E+05
 0.17150000E+02  0.56544E+05
 0.17199999E+02  0.58797E+05
 0.17249998E+02  0.59807E+05
 0.17299999E+02  0.59644E+05
 0.17349998E+02  0.58066E+05
 0.17400000E+02  0.55080E+05
 0.17449999E+02  0.50734E+05
 0.17499998E+02  0.45567E+05
 0.17549999E+02  0.40022E+05
 0.17599998E+02  0.34274E+05
 0.17650000E+02  0.28388E+05
 0.17699999E+02  0.22674E+05
 0.17749998E+02  0.17322E+05
 0.17799999E+02  0.12368E+05
 0.17849998E+02  0.80999E+04
 0.17900000E+02  0.39202E+04
 0.17949999E+02 -0.40410E+03
 0.17999998E+02 -0.50250E+04
 0.18049999E+02 -0.95741E+04
 0.18099998E+02 -0.13456E+05
 0.18150000E+02 -0.16194E+05
 0.18199999E+02 -0.17086E+05
 0.18249998E+02 -0.16040E+05
 0.18299999E+02 -0.13071E+05
 0.18349998E+02 -0.85296E+04
 0.18400000E+02 -0.25359E+04
 0.18449999E+02  0.44491E+04
 0.18499998E+02  0.11841E+05
 0.18549999E+02  0.19465E+05
 0.18599998E+02  0.26806E+05
 0.18650000E+02  0.33209E+05
 0.18699999E+02  0.38542E+05
 0.18749998E+02  0.42983E+05
 0.18799999E+02  0.46404E+05
 0.18849998E+02  0.48831E+05
 0.18900000E+02  0.49738E+05
 0.18949999E+02  0.48736E+05
 0.18999998E+02  0.46126E+05
 0.19049999E+02  0.42128E+05
 0.19099998E+02  0.37015E+05
 0.19150000E+02  0.31246E+05
 0.19199999E+02  0.25005E+05
 0.19249998E+02  0.18368E+05
 0.19299999E+02  0.11518E+05
 0.19349998E+02  0.53326E+04
 0.19400000E+02  0.74630E+03
 0.19449999E+02 -0.20260E+04
 0.19499998E+02 -0.30456E+04
 0.19549999E+02 -0.26203E+04
 0.19599998E+02 -0.83155E+03
 0.19650000E+02  0.16630E+04
 0.19699999E+02  0.43302E+04
 0.19749998E+02  0.71889E+04
 0.19799999E+02  0.97191E+04
 0.19849998E+02  0.11727E+05
 0.19900000E+02  0.13169E+05
 0.19949999E+02  0.14045E+05
 0.19999998E+02  0.13979E+05
 0.20049999E+02  0.12602E+05
 0.20099998E+02  0.99998E+04
 0.20150000E+02  0.64527E+04
 0.20199999E+02  0.24181E+04
 0.20249998E+02 -0.20518E+04
 0.20299999E+02 -0.72323E+04
 0.20349998E+02 -0.13018E+05
 0.20399998E+02 -0.18812E+05
 0.20449999E+02 -0.24201E+05
 0.20499998E+02 -0.28155E+05
 0.20549999E+02 -0.30742E+05
 0.20599998E+02 -0.31261E+05
 0.20649998E+02 -0.29821E+05
 0.20699999E+02 -0.27326E+05
 0.20749998E+02 -0.25667E+05
 0.20799999E+02 -0.25310E+05
 0.20849998E+02 -0.26988E+05
 0.20899998E+02 -0.30606E+05
 0.20949999E+02 -0.34092E+05
 0.20999998E+02 -0.36311E+05
 0.21049999E+02 -0.35376E+05
 0.21099998E+02 -0.31367E+05
 0.21149998E+02 -0.25582E+05
 0.21199999E+02 -0.20333E+05
 0.21249998E+02 -0.16945E+05
 0.21299999E+02 -0.13577E+05
 0.21349998E+02  0.97442E+04
 0.21399998E+02  0.28971E+05
 0.21449999E+02  0.38988E+05
 0.21499998E+02  0.30392E+05
 0.21549999E+02  0.60727E+04
 0.21599998E+02  0.14292E+05
 0.21649998E+02  0.62734E+04
 0.21699999E+02  0.88652E+04
 0.21749998E+02  0.18161E+05
 0.21799999E+02  0.18495E+05
 0.21849998E+02  0.28248E+04
 0.21899998E+02 -0.15349E+05
 0.21949999E+02  0.16698E+05
 0.21999998E+02  0.47430E+05
 0.22049999E+02  0.11383E+06
 0.22099998E+02  0.11897E+06
 0.22149998E+02  0.12603E+06
 0.22199999E+02  0.14804E+06
 0.22249998E+02  0.13334E+06
 0.22299999E+02  0.18900E+06
 0.22349998E+02  0.22458E+06
 0.22399998E+02  0.23590E+06
 0.22449999E+02  0.18311E+06
 0.22499998E+02  0.15503E+06
 0.22549999E+02  0.13515E+06
 0.22599998E+02  0.12738E+06
 0.22649998E+02  0.13192E+06
 0.22699999E+02  0.13325E+06
 0.22749998E+02  0.12634E+06
 0.22799999E+02 -0.85488E+04
 0.22849998E+02 -0.26329E+05
 0.22899998E+02 -0.44090E+05
 0.22949999E+02 -0.40777E+05
 0.22999998E+02 -0.36197E+05
 0.23049999E+02 -0.67104E+05
 0.23099998E+02 -0.36540E+05
 0.23149998E+02 -0.10462E+06
 0.23199999E+02 -0.13277E+06
 0.23249998E+02 -0.61099E+05
 0.23299999E+02  0.42692E+05
 0.23349998E+02  0.10041E+06
 0.23399998E+02  0.87766E+05
 0.23449999E+02  0.17777E+05
 0.23499998E+02 -0.11395E+05
 0.23549999E+02  0.10143E+05
 0.23599998E+02  0.96798E+04
 0.23649998E+02  0.70089E+05
 0.23699999E+02  0.14274E+06
 0.23749998E+02  0.33122E+05
 0.23799999E+02  0.49979E+04
 0.23849998E+02  0.33317E+05
 0.23899998E+02 -0.53846E+04
 0.23949999E+02  0.47589E+05
 0.23999998E+02  0.66879E+05
 0.24049999E+02  0.15969E+06
 0.24099998E+02  0.14480E+06
 0.24149998E+02  0.22006E+06
 0.24199999E+02  0.24823E+06
 0.24249998E+02  0.20902E+06
 0.24299999E+02  0.27804E+06
 0.24349998E+02  0.25533E+06
 0.24399998E+02  0.23769E+06
 0.24449999E+02  0.63048E+05
 0.24499998E+02  0.28285E+05
 0.24549999E+02  0.74024E+05
 0.24599998E+02  0.45224E+05
 0.24649998E+02  0.32352E+04
 0.24699999E+02 -0.41926E+05
 0.24749998E+02 -0.70426E+05
 0.24799999E+02 -0.10783E+06
 0.24849998E+02 -0.14105E+06
 0.24899998E+02 -0.23053E+06
 0.24949999E+02 -0.12961E+06
 0.24999998E+02 -0.99543E+05
 0.25049999E+02 -0.15986E+06
 0.25099998E+02 -0.11640E+06
 0.25149998E+02 -0.14316E+06
 0.25199999E+02 -0.13323E+06
 0.25249998E+02 -0.11746E+06
 0.25299999E+02 -0.22216E+05
 0.25349998E+02  0.22212E+05
 0.25399998E+02 -0.40455E+05
 0.25449999E+02 -0.58461E+05
 0.25499998E+02 -0.66482E+05
 0.25549999E+02 -0.70482E+05
 0.25599998E+02 -0.20951E+05
 0.25649998E+02 -0.30599E+05
 0.25699999E+02 -0.53344E+05
 0.25749998E+02 -0.11401E+06
 0.25799999E+02 -0.14679E+06
 0.25849998E+02 -0.94811E+05
 0.25899998E+02 -0.67372E+05
 0.25949999E+02 -0.46525E+05
 0.25999998E+02 -0.44775E+05
 0.26049999E+02  0.45348E+05
 0.26099998E+02  0.61961E+05
 0.26149998E+02  0.98700E+05
 0.26199999E+02  0.16192E+06
 0.26249998E+02  0.12912E+06
 0.26299999E+02  0.15943E+06
 0.26349998E+02  0.15925E+06
 0.26399998E+02  0.75804E+05
 0.26449999E+02  0.57910E+05
 0.26499998E+02  0.12747E+06
 0.26549999E+02  0.10121E+06
 0.26599998E+02  0.92315E+04
 0.26649998E+02 -0.54168E+05
 0.26699999E+02 -0.93008E+05
 0.26749998E+02 -0.39735E+05
 0.26799999E+02 -0.41469E+05
 0.26849998E+02 -0.14175E+06
 0.26899998E+02 -0.13524E+06
 0.26949999E+02 -0.31307E+05
 0.26999998E+02 -0.44076E+05
 0.27049997E+02 -0.22649E+05
 0.27099998E+02  0.81048E+04
 0.27149998E+02 -0.34437E+05
 0.27199999E+02 -0.11472E+06
 0.27249998E+02 -0.14117E+06
 0.27299997E+02 -0.76089E+05
 0.27349998E+02  0.44239E+05
 0.27399998E+02  0.12819E+06
 0.27449999E+02  0.35342E+05
 0.27499998E+02  0.28784E+05
 0.27549997E+02  0.11434E+06
 0.27599998E+02  0.61615E+05
 0.27649998E+02  0.21578E+05
 0.27699999E+02  0.68948E+05
 0.27749998E+02  0.44296E+05
 0.27799997E+02  0.43671E+05
 0.27849998E+02  0.86673E+05
 0.27899998E+02  0.88465E+05
 0.27949999E+02  0.41939E+05
 0.27999998E+02  0.48181E+05
 0.28049997E+02 -0.60843E+05
 0.28099998E+02 -0.44765E+05
 0.28149998E+02  0.18075E+05
 0.28199999E+02  0.17411E+05
 0.28249998E+02  0.40865E+05
 0.28299997E+02  0.94445E+05
 0.28349998E+02  0.16480E+06
 0.28399998E+02  0.24925E+06
 0.28449999E+02  0.35671E+06
 0.28499998E+02  0.32868E+06
 0.28549997E+02  0.30102E+06
 0.28599998E+02  0.25790E+06
 0.28649998E+02  0.19212E+06
 0.28699999E+02  0.11503E+06
 0.28749998E+02  0.11953E+06
 0.28799997E+02  0.59371E+05
 0.28849998E+02 -0.58240E+04
 0.28899998E+02 -0.16949E+05
 0.28949999E+02 -0.81727E+05
 0.28999998E+02 -0.75891E+05
 0.29049997E+02 -0.13050E+06
 0.29099998E+02 -0.19105E+06
 0.29149998E+02 -0.21503E+06
 0.29199999E+02 -0.18877E+06
 0.29249998E+02 -0.15160E+06
 0.29299997E+02 -0.11503E+06
 0.29349998E+02 -0.64086E+05
 0.29399998E+02 -0.10952E+06
 0.29449999E+02 -0.92009E+05
 0.29499998E+02  0.10764E+05
 0.29549997E+02  0.14276E+06
 0.29599998E+02  0.13992E+06
 0.29649998E+02  0.15716E+06
 0.29699999E+02  0.90477E+05
 0.29749998E+02  0.10459E+06
 0.29799997E+02  0.25610E+05
 0.29849998E+02 -0.22054E+05
 0.29899998E+02 -0.42385E+05
 0.29949999E+02 -0.11846E+06
 0.29999998E+02 -0.11025E+06
 0.30049999E+02 -0.28513E+06
 0.30099998E+02 -0.28237E+06
 0.30149998E+02 -0.25691E+06
 0.30199997E+02 -0.75776E+05
 0.30249996E+02 -0.11415E+06
 0.30299999E+02 -0.15333E+06
 0.30349998E+02 -0.28182E+05
 0.30399998E+02 -0.23792E+05
 0.30449997E+02  0.16883E+05
 0.30499996E+02  0.73372E+05
 0.30549999E+02  0.51303E+05
 0.30599998E+02  0.68883E+05
 0.30649998E+02  0.26080E+05
 0.30699997E+02 -0.59972E+05
 0.30749996E+02 -0.38330E+05
 0.30799999E+02 -0.16627E+05
 0.30849998E+02 -0.35028E+04
 0.30899998E+02 -0.17098E+06
 0.30949997E+02 -0.20895E+06
 0.30999996E+02 -0.30994E+06
 0.31049999E+02 -0.39356E+06
 0.31099998E+02 -0.34961E+06
 0.31149998E+02 -0.17477E+06
 0.31199997E+02  0.45876E+05
 0.31249996E+02  0.90419E+05
 0.31299999E+02  0.19810E+05
 0.31349998E+02 -0.15475E+06
 0.31399998E+02 -0.15913E+06
 0.31449997E+02 -0.65556E+05
 0.31499996E+02  0.26474E+05
 0.31549999E+02  0.10321E+06
 0.31599998E+02  0.28020E+04
 0.31649998E+02 -0.71594E+05
 0.31699997E+02 -0.16122E+06
 0.31749996E+02 -0.30865E+06
 0.31799999E+02 -0.41068E+06
 0.31849998E+02 -0.35823E+06
 0.31899998E+02 -0.29835E+06
 0.31949997E+02 -0.29108E+06
 0.31999996E+02 -0.16710E+06
 0.32049999E+02 -0.23459E+05
 0.32099998E+02 -0.15488E+05
 0.32149998E+02 -0.89616E+05
 0.32199997E+02 -0.52573E+05
 0.32249996E+02 -0.98417E+05
 0.32299999E+02 -0.12435E+06
 0.32349998E+02 -0.72425E+05
 0.32399998E+02 -0.11506E+05
 0.32449997E+02  0.11481E+06
 0.32499996E+02  0.25642E+06
 0.32549999E+02  0.31383E+06
 0.32599998E+02  0.32164E+06
 0.32649998E+02  0.10863E+06
 0.32699997E+02 -0.43487E+05
 0.32749996E+02 -0.86578E+04
 0.32799999E+02 -0.26132E+04
 0.32849998E+02 -0.13973E+05
 0.32899998E+02 -0.15101E+06
 0.32949997E+02 -0.49296E+05
 0.32999996E+02  0.95825E+05
 0.33049999E+02  0.13181E+06
 0.33099998E+02  0.59669E+05
 0.33149998E+02  0.18020E+04
 0.33199997E+02  0.67989E+05
 0.33249996E+02  0.58775E+04
 0.33299999E+02 -0.17181E+06
 0.33349998E+02 -0.31080E+06
 0.33399998E+02 -0.24416E+06
 0.33449997E+02 -0.15960E+06
 0.33499996E+02 -0.82019E+05
 0.33549999E+02 -0.12314E+05
 0.33599998E+02  0.70963E+05
 0.33649998E+02  0.15136E+06
 0.33699997E+02  0.14456E+06
 0.33749996E+02  0.74229E+05
 0.33799999E+02  0.10488E+06
 0.33849998E+02  0.28567E+06
 0.33899998E+02  0.22660E+06
 0.33949997E+02  0.26097E+06
 0.33999996E+02  0.39313E+06
 0.34049999E+02  0.40897E+06
 0.34099998E+02  0.43641E+06
 0.34149998E+02  0.47726E+06
 0.34199997E+02  0.48655E+06
 0.34249996E+02  0.44902E+06
 0.34299999E+02  0.49247E+06
 0.34349998E+02  0.51774E+06
 0.34399998E+02  0.53053E+06
 0.34449997E+02  0.48497E+06
 0.34499996E+02  0.24681E+06
 0.34549999E+02 -0.46567E+05
 0.34599998E+02 -0.18694E+06
 0.34649998E+02 -0.32496E+06
 0.34699997E+02 -0.32710E+06
 0.34749996E+02 -0.36617E+06
 0.34799999E+02 -0.42537E+06
 0.34849998E+02 -0.50937E+06
 0.34899998E+02 -0.72392E+06
 0.34949997E+02 -0.77899E+06
 0.34999996E+02 -0.49552E+06
 0.35049999E+02 -0.24705E+06
 0.35099998E+02 -0.23477E+06
 0.35149998E+02 -0.23627E+06
 0.35199997E+02 -0.37861E+06
 0.35249996E+02 -0.44000E+06
 0.35299999E+02 -0.67293E+06
 0.35349998E+02 -0.13734E+07
 0.35399998E+02 -0.23466E+07
 0.35449997E+02 -0.25768E+07
 0.35499996E+02 -0.14131E+07
 0.35549999E+02 -0.68606E+06
 0.35599998E+02 -0.16114E+07
 0.35649998E+02 -0.18697E+07
 0.35699997E+02 -0.35907E+06
 0.35749996E+02  0.14640E+07
 0.35799999E+02  0.19272E+07
 0.35849998E+02  0.98320E+06
 0.35899998E+02 -0.54556E+06
 0.35949997E+02 -0.12725E+07
 0.35999996E+02 -0.10636E+07
 0.36049999E+02 -0.45651E+06
 0.36099998E+02  0.65546E+06
 0.36149998E+02  0.11987E+07
 0.36199997E+02  0.12970E+07
 0.36249996E+02  0.11350E+07
 0.36299999E+02  0.17236E+07
 0.36349998E+02  0.22404E+07
 0.36399998E+02  0.17177E+07
 0.36449997E+02  0.18515E+07
 0.36499996E+02  0.19726E+07
 0.36549999E+02  0.12685E+07
 0.36599998E+02 -0.18359E+06
 0.36649998E+02 -0.89528E+06
 0.36699997E+02 -0.33958E+06
 0.36749996E+02  0.35199E+06
 0.36799999E+02  0.94711E+06
 0.36849998E+02  0.88031E+06
 0.36899998E+02  0.27437E+06
 0.36949997E+02 -0.34249E+06
 0.36999996E+02 -0.32735E+05
 0.37049999E+02  0.79583E+06
 0.37099998E+02  0.10754E+07
 0.37149998E+02  0.10355E+07
 0.37199997E+02  0.11302E+07
 0.37249996E+02  0.10384E+07
 0.37299999E+02  0.71437E+06
 0.37349998E+02  0.22215E+06
 0.37399998E+02 -0.81086E+06
 0.37449997E+02 -0.10629E+07
 0.37499996E+02 -0.17658E+06
 0.37549999E+02  0.14164E+06
 0.37599998E+02 -0.31017E+06
 0.37649998E+02 -0.19385E+06
 0.37699997E+02  0.12508E+07
 0.37749996E+02  0.29829E+07
 0.37799999E+02  0.33385E+07
 0.37849998E+02  0.22409E+07
 0.37899998E+02  0.67653E+06
 0.37949997E+02  0.12390E+06
 0.37999996E+02  0.75026E+06
 0.38049999E+02  0.15301E+07
 0.38099998E+02  0.25201E+07
 0.38149998E+02  0.35572E+07
 0.38199997E+02  0.39575E+07
 0.38249996E+02  0.34060E+07
 0.38299999E+02  0.32031E+07
 0.38349998E+02  0.35085E+07
 0.38399998E+02  0.27077E+07
 0.38449997E+02  0.20027E+07
 0.38499996E+02  0.21428E+07
 0.38549999E+02  0.23769E+07
 0.38599998E+02  0.25564E+07
 0.38649998E+02  0.25351E+07
 0.38699997E+02  0.23185E+07
 0.38749996E+02  0.23726E+07
 0.38799999E+02  0.29871E+07
 0.38849998E+02  0.34631E+07
 0.38899998E+02  0.36754E+07
 0.38949997E+02  0.36427E+07
 0.38999996E+02  0.35253E+07
 0.39049999E+02  0.30766E+07
 0.39099998E+02  0.23752E+07
 0.39149998E+02  0.24034E+07
 0.39199997E+02  0.23973E+07
 0.39249996E+02  0.16915E+07
 0.39299999E+02  0.12808E+07
 0.39349998E+02  0.10715E+07
 0.39399998E+02  0.62547E+06
 0.39449997E+02  0.22676E+06
 0.39499996E+02  0.38467E+06
 0.39549999E+02  0.98529E+06
 0.39599998E+02  0.92715E+06
 0.39649998E+02  0.82834E+06
 0.39699997E+02  0.13803E+07
 0.39749996E+02  0.20447E+07
 0.39799999E+02  0.18765E+07
 0.39849998E+02  0.83271E+06
 0.39899998E+02  0.58925E+06
 0.39949997E+02  0.88040E+06
 0.39999996E+02  0.10494E+07
 0.40049999E+02  0.13687E+07
 0.40099998E+02  0.19944E+07
 0.40149998E+02  0.24481E+07
 0.40199997E+02  0.19557E+07
 0.40249996E+02  0.86608E+06
 0.40299999E+02  0.39200E+06
 0.40349998E+02  0.11025E+07
 0.40399998E+02  0.18432E+07
 0.40449997E+02  0.22362E+07
 0.40499996E+02  0.27568E+07
 0.40549999E+02  0.34792E+07
 0.40599998E+02  0.38717E+07
 0.40649998E+02  0.38446E+07
 0.40699997E+02  0.35203E+07
 0.40749996E+02  0.34896E+07
 0.40799999E+02  0.38651E+07
 0.40849998E+02  0.38797E+07
 0.40899998E+02  0.36130E+07
 0.40949997E+02  0.28623E+07
 0.40999996E+02  0.20378E+07
 0.41049999E+02  0.13968E+07
 0.41099998E+02  0.68290E+06
 0.41149998E+02  0.29482E+06
 0.41199997E+02 -0.15924E+06
 0.41249996E+02 -0.86642E+06
 0.41299999E+02 -0.11929E+07
 0.41349998E+02 -0.84071E+06
 0.41399998E+02 -0.13838E+06
 0.41449997E+02  0.16035E+06
 0.41499996E+02  0.55658E+06
 0.41549999E+02  0.12499E+07
 0.41599998E+02  0.16423E+07
 0.41649998E+02  0.16463E+07
 0.41699997E+02  0.18719E+07
 0.41749996E+02  0.21533E+07
 0.41799999E+02  0.19184E+07
 0.41849998E+02  0.15343E+07
 0.41899998E+02  0.18690E+07
 0.41949997E+02  0.22538E+07
 0.41999996E+02  0.20900E+07
 0.42049999E+02  0.21470E+07
 0.42099998E+02  0.24390E+07
 0.42149998E+02  0.27597E+07
 0.42199997E+02  0.27780E+07
 0.42249996E+02  0.26720E+07
 0.42299999E+02  0.24031E+07
 0.42349998E+02  0.23533E+07
 0.42399998E+02  0.26465E+07
 0.42449997E+02  0.30128E+07
 0.42499996E+02  0.35421E+07
 0.42549999E+02  0.37900E+07
 0.42599998E+02  0.34642E+07
 0.42649998E+02  0.31699E+07
 0.42699997E+02  0.32535E+07
 0.42749996E+02  0.34038E+07
 0.42799995E+02  0.34785E+07
 0.42849998E+02  0.37899E+07
 0.42899998E+02  0.37526E+07
 0.42949997E+02  0.30412E+07
 0.42999996E+02  0.21993E+07
 0.43049995E+02  0.19923E+07
 0.43099998E+02  0.22366E+07
 0.43149998E+02  0.22323E+07
 0.43199997E+02  0.23757E+07
 0.43249996E+02  0.22227E+07
 0.43299995E+02  0.18090E+07
 0.43349998E+02  0.19349E+07
 0.43399998E+02  0.22153E+07
 0.43449997E+02  0.20759E+07
 0.43499996E+02  0.20357E+07
 0.43549995E+02  0.20043E+07
 0.43599998E+02  0.20610E+07
 0.43649998E+02  0.21185E+07
 0.43699997E+02  0.19977E+07
 0.43749996E+02  0.18452E+07
 0.43799995E+02  0.19514E+07
 0.43849998E+02  0.22361E+07
 0.43899998E+02  0.23116E+07
 0.43949997E+02  0.22046E+07
 0.43999996E+02  0.19574E+07
 0.44049995E+02  0.17316E+07
 0.44099998E+02  0.18423E+07
 0.44149998E+02  0.23467E+07
 0.44199997E+02  0.29578E+07
 0.44249996E+02  0.31513E+07
 0.44299995E+02  0.30501E+07
 0.44349998E+02  0.33288E+07
 0.44399998E+02  0.36212E+07
 0.44449997E+02  0.36338E+07
 0.44499996E+02  0.32603E+07
 0.44549995E+02  0.27544E+07
 0.44599998E+02  0.23448E+07
 0.44649998E+02  0.22274E+07
 0.44699997E+02  0.23073E+07
 0.44749996E+02  0.25507E+07
 0.44799995E+02  0.26189E+07
 0.44849998E+02  0.24282E+07
 0.44899998E+02  0.24262E+07
 0.44949997E+02  0.25603E+07
 0.44999996E+02  0.26152E+07
 0.45049995E+02  0.27149E+07
 0.45099998E+02  0.25931E+07
 0.45149998E+02  0.19822E+07
 0.45199997E+02  0.14655E+07
 0.45249996E+02  0.87775E+06
 0.45299995E+02  0.22140E+06
 0.45349998E+02 -0.57511E+05
 0.45399998E+02 -0.39570E+05
 0.45449997E+02  0.11276E+05
 0.45499996E+02  0.14445E+06
 0.45549995E+02  0.11365E+06
 0.45599998E+02 -0.45410E+05
 0.45649998E+02 -0.11617E+06
 0.45699997E+02 -0.14164E+06
 0.45749996E+02 -0.11518E+06
 0.45799995E+02  0.11007E+05
 0.45849998E+02  0.31768E+06
 0.45899998E+02  0.57240E+06
 0.45949997E+02  0.64189E+06
 0.45999996E+02  0.63220E+06
 0.46049995E+02  0.86595E+06
 0.46099998E+02  0.14537E+07
 0.46149998E+02  0.21682E+07
 0.46199997E+02  0.25615E+07
 0.46249996E+02  0.23462E+07
 0.46299995E+02  0.20047E+07
 0.46349998E+02  0.17809E+07
 0.46399998E+02  0.15719E+07
 0.46449997E+02  0.14045E+07
 0.46499996E+02  0.13395E+07
 0.46549995E+02  0.14257E+07
 0.46599998E+02  0.15929E+07
 0.46649998E+02  0.16097E+07
 0.46699997E+02  0.14470E+07
 0.46749996E+02  0.14846E+07
 0.46799995E+02  0.16002E+07
 0.46849998E+02  0.16422E+07
 0.46899998E+02  0.15486E+07
 0.46949997E+02  0.13980E+07
 0.46999996E+02  0.13340E+07
 0.47049995E+02  0.12706E+07
 0.47099998E+02  0.11831E+07
 0.47149998E+02  0.12851E+07
 0.47199997E+02  0.16559E+07
 0.47249996E+02  0.15526E+07
 0.47299995E+02  0.10380E+07
 0.47349998E+02  0.83326E+06
 0.47399998E+02  0.10725E+07
 0.47449997E+02  0.14059E+07
 0.47499996E+02  0.15151E+07
 0.47549995E+02  0.15066E+07
 0.47599998E+02  0.16225E+07
 0.47649998E+02  0.17986E+07
 0.47699997E+02  0.19449E+07
 0.47749996E+02  0.20937E+07
 0.47799995E+02  0.20539E+07
 0.47849998E+02  0.18955E+07
 0.47899998E+02  0.15458E+07
 0.47949997E+02  0.11249E+07
 0.47999996E+02  0.93352E+06
 0.48049995E+02  0.11598E+07
 0.48099998E+02  0.14482E+07
 0.48149998E+02  0.13884E+07
 0.48199997E+02  0.10169E+07
 0.48249996E+02  0.43643E+06
 0.48299995E+02  0.12573E+06
 0.48349998E+02  0.14387E+06
 0.48399998E+02  0.22928E+06
 0.48449997E+02  0.31971E+06
 0.48499996E+02  0.40399E+06
 0.48549995E+02  0.44876E+06
 0.48599998E+02  0.50993E+06
 0.48649998E+02  0.31773E+06
 0.48699997E+02 -0.53453E+05
 0.48749996E+02 -0.22065E+06
 0.48799995E+02 -0.24903E+06
 0.48849998E+02 -0.30375E+05
 0.48899998E+02  0.25125E+06
 0.48949997E+02  0.31363E+06
 0.48999996E+02  0.25435E+06
 0.49049995E+02  0.24445E+06
 0.49099998E+02  0.45475E+06
 0.49149998E+02  0.73834E+06
 0.49199997E+02  0.79963E+06
 0.49249996E+02  0.51240E+06
 0.49299995E+02  0.29644E+06
 0.49349998E+02  0.24120E+06
 0.49399998E+02  0.12031E+06
 0.49449997E+02  0.60692E+05
 0.49499996E+02  0.16591E+06
 0.49549995E+02  0.44447E+06
 0.49599998E+02  0.78976E+06
 0.49649998E+02  0.93000E+06
 0.49699997E+02  0.77264E+06
 0.49749996E+02  0.47367E+06
 0.49799995E+02  0.16763E+06
 0.49849998E+02 -0.18166E+06
 0.49899998E+02 -0.64984E+06
 0.49949997E+02 -0.11202E+07
 0.49999996E+02 -0.15097E+07
 0.50049995E+02 -0.16781E+07
 0.50099998E+02 -0.17171E+07
 0.50149998E+02 -0.17929E+07
 0.50199997E+02 -0.20395E+07
 0.50249996E+02 -0.24387E+07
 0.50299995E+02 -0.26844E+07
 0.50349998E+02 -0.23977E+07
 0.50399998E+02 -0.18092E+07
 0.50449997E+02 -0.13204E+07
 0.50499996E+02 -0.10304E+07
 0.50549995E+02 -0.11152E+07
 0.50599998E+02 -0.14648E+07
 0.50649998E+02 -0.19114E+07
 0.50699997E+02 -0.22203E+07
 0.50749996E+02 -0.22568E+07
 0.50799995E+02 -0.20480E+07
 0.50849998E+02 -0.17370E+07
 0.50899998E+02 -0.15485E+07
 0.50949997E+02 -0.14461E+07
 0.50999996E+02 -0.13771E+07
 0.51049995E+02 -0.12009E+07
 0.51099998E+02 -0.76383E+06
 0.51149998E+02 -0.22123E+06
 0.51199997E+02  0.11913E+06
 0.51249996E+02  0.45450E+05
 0.51299995E+02 -0.12212E+06
 0.51349998E+02 -0.14888E+06
 0.51399998E+02 -0.11670E+06
 0.51449997E+02  0.15303E+06
 0.51499996E+02  0.57955E+06
 0.51549995E+02  0.10486E+07
 0.51599998E+02  0.14069E+07
 0.51649998E+02  0.14964E+07
 0.51699997E+02  0.13551E+07
 0.51749996E+02  0.12410E+07
 0.51799995E+02  0.13193E+07
 0.51849998E+02  0.11782E+07
 0.51899998E+02  0.64394E+06
 0.51949997E+02  0.23554E+05
 0.51999996E+02 -0.30419E+06
 0.52049995E+02 -0.31331E+06
 0.52099998E+02 -0.55703E+05
 0.52149998E+02  0.10245E+06
 0.52199997E+02  0.25009E+05
 0.52249996E+02 -0.13711E+06
 0.52299995E+02 -0.33724E+06
 0.52349998E+02 -0.23613E+06
 0.52399998E+02 -0.41296E+05
 0.52449997E+02 -0.12382E+06
 0.52499996E+02 -0.24286E+06
 0.52549995E+02 -0.40820E+06
 0.52599998E+02 -0.69387E+06
 0.52649998E+02 -0.95706E+06
 0.52699997E+02 -0.12547E+07
 0.52749996E+02 -0.13153E+07
 0.52799995E+02 -0.11721E+07
 0.52849998E+02 -0.10363E+07
 0.52899998E+02 -0.10005E+07
 0.52949997E+02 -0.10128E+07
 0.52999996E+02 -0.74617E+06
 0.53049995E+02 -0.14155E+06
 0.53099998E+02  0.68660E+06
 0.53149998E+02  0.15429E+07
 0.53199997E+02  0.20694E+07
 0.53249996E+02  0.23220E+07
 0.53299995E+02  0.24693E+07
 0.53349998E+02  0.25180E+07
 0.53399998E+02  0.25748E+07
 0.53449997E+02  0.26607E+07
 0.53499996E+02  0.28091E+07
 0.53549995E+02  0.31032E+07
 0.53599998E+02  0.34958E+07
 0.53649998E+02  0.38411E+07
 0.53699997E+02  0.39246E+07
 0.53749996E+02  0.36159E+07
 0.53799995E+02  0.32050E+07
 0.53849998E+02  0.27289E+07
 0.53899998E+02  0.21988E+07
 0.53949997E+02  0.18057E+07
 0.53999996E+02  0.17524E+07
 0.54049995E+02  0.18918E+07
 0.54099998E+02  0.19879E+07
 0.54149998E+02  0.19620E+07
 0.54199997E+02  0.18180E+07
 0.54249996E+02  0.15371E+07
 0.54299995E+02  0.10546E+07
 0.54349998E+02  0.65948E+06
 0.54399998E+02  0.43239E+06
 0.54449997E+02  0.34221E+06
 0.54499996E+02  0.31241E+06
 0.54549995E+02  0.18130E+06
 0.54599998E+02 -0.20521E+06
 0.54649998E+02 -0.70310E+06
 0.54699997E+02 -0.11328E+07
 0.54749996E+02 -0.13424E+07
 0.54799995E+02 -0.12278E+07
 0.54849998E+02 -0.10193E+07
 0.54899998E+02 -0.83057E+06
 0.54949997E+02 -0.63479E+06
 0.54999996E+02 -0.35076E+06
 0.55049995E+02  0.24422E+05
 0.55099998E+02  0.56722E+06
 0.55149998E+02  0.12210E+07
 0.55199997E+02  0.17480E+07
 0.55249996E+02  0.22066E+07
 0.55299995E+02  0.25448E+07
 0.55349998E+02  0.27983E+07
 0.55399998E+02  0.32751E+07
 0.55449997E+02  0.38769E+07
 0.55499996E+02  0.44105E+07
 0.55549995E+02  0.48466E+07
 0.55599998E+02  0.49952E+07
 0.55649998E+02  0.47122E+07
 0.55699997E+02  0.39290E+07
 0.55749996E+02  0.29226E+07
 0.55799995E+02  0.20380E+07
 0.55849995E+02  0.14327E+07
 0.55899998E+02  0.11686E+07
 0.55949997E+02  0.11613E+07
 0.55999996E+02  0.12768E+07
 0.56049995E+02  0.13249E+07
 0.56099995E+02  0.12448E+07
 0.56149998E+02  0.97770E+06
 0.56199997E+02  0.63348E+06
 0.56249996E+02  0.32127E+06
 0.56299995E+02  0.57536E+05
 0.56349995E+02  0.51026E+05
 0.56399998E+02  0.31281E+06
 0.56449997E+02  0.63926E+06
 0.56499996E+02  0.79496E+06
 0.56549995E+02  0.62740E+06
 0.56599995E+02  0.20863E+06
 0.56649998E+02 -0.25055E+06
 0.56699997E+02 -0.57929E+06
 0.56749996E+02 -0.72433E+06
 0.56799995E+02 -0.59898E+06
 0.56849995E+02 -0.40560E+06
 0.56899998E+02 -0.23360E+06
 0.56949997E+02 -0.57782E+05
 0.56999996E+02  0.52394E+05
 0.57049995E+02  0.19195E+06
 0.57099995E+02  0.43010E+06
 0.57149998E+02  0.81948E+06
 0.57199997E+02  0.12316E+07
 0.57249996E+02  0.16037E+07
 0.57299995E+02  0.19474E+07
 0.57349995E+02  0.22924E+07
 0.57399998E+02  0.25775E+07
 0.57449997E+02  0.26076E+07
 0.57499996E+02  0.23658E+07
 0.57549995E+02  0.18621E+07
 0.57599995E+02  0.10079E+07
 0.57649998E+02  0.94403E+04
 0.57699997E+02 -0.81424E+06
 0.57749996E+02 -0.13326E+07
 0.57799995E+02 -0.15437E+07
 0.57849995E+02 -0.15975E+07
 0.57899998E+02 -0.16531E+07
 0.57949997E+02 -0.17383E+07
 0.57999996E+02 -0.18941E+07
 0.58049995E+02 -0.21515E+07
 0.58099995E+02 -0.23524E+07
 0.58149998E+02 -0.22922E+07
 0.58199997E+02 -0.19297E+07
 0.58249996E+02 -0.13396E+07
 0.58299995E+02 -0.65611E+06
 0.58349995E+02 -0.69663E+05
 0.58399998E+02  0.30049E+06
 0.58449997E+02  0.34894E+06
 0.58499996E+02  0.11442E+06
 0.58549995E+02 -0.25581E+06
 0.58599995E+02 -0.67443E+06
 0.58649998E+02 -0.10829E+07
 0.58699997E+02 -0.13971E+07
 0.58749996E+02 -0.16312E+07
 0.58799995E+02 -0.17105E+07
 0.58849995E+02 -0.16413E+07
 0.58899998E+02 -0.14047E+07
 0.58949997E+02 -0.10734E+07
 0.58999996E+02 -0.81991E+06
 0.59049995E+02 -0.61381E+06
 0.59099995E+02 -0.48625E+06
 0.59149998E+02 -0.48888E+06
 0.59199997E+02 -0.71721E+06
 0.59249996E+02 -0.11468E+07
 0.59299995E+02 -0.17614E+07
 0.59349995E+02 -0.24827E+07
 0.59399998E+02 -0.31044E+07
 0.59449997E+02 -0.35126E+07
 0.59499996E+02 -0.36938E+07
 0.59549995E+02 -0.36199E+07
 0.59599995E+02 -0.35079E+07
 0.59649998E+02 -0.35747E+07
 0.59699997E+02 -0.37964E+07
 0.59749996E+02 -0.40200E+07
 0.59799995E+02 -0.40636E+07
 0.59849995E+02 -0.38691E+07
 0.59899998E+02 -0.35141E+07
 0.59949997E+02 -0.30457E+07
 0.59999996E+02 -0.24822E+07
 0.60049995E+02 -0.19479E+07
 0.60099995E+02 -0.13860E+07
 0.60149998E+02 -0.77378E+06
 0.60199997E+02 -0.18571E+06
 0.60249996E+02  0.27293E+06
 0.60299995E+02  0.52778E+06
 0.60349995E+02  0.61920E+06
 0.60399998E+02  0.57072E+06
 0.60449997E+02  0.41067E+06
 0.60499996E+02  0.14820E+06
 0.60549995E+02 -0.19537E+06
 0.60599995E+02 -0.62441E+06
 0.60649998E+02 -0.11430E+07
 0.60699997E+02 -0.15733E+07
 0.60749996E+02 -0.17360E+07
 0.60799995E+02 -0.16203E+07
 0.60849995E+02 -0.13621E+07
 0.60899998E+02 -0.10949E+07
 0.60949997E+02 -0.89945E+06
 0.60999996E+02 -0.84909E+06
 0.61049995E+02 -0.95200E+06
 0.61099995E+02 -0.11331E+07
 0.61149998E+02 -0.13731E+07
 0.61199997E+02 -0.15672E+07
 0.61249996E+02 -0.15177E+07
 0.61299995E+02 -0.12435E+07
 0.61349995E+02 -0.84436E+06
 0.61399998E+02 -0.36850E+06
 0.61449997E+02  0.14511E+06
 0.61499996E+02  0.62879E+06
 0.61549995E+02  0.10607E+07
 0.61599995E+02  0.13958E+07
 0.61649998E+02  0.16541E+07
 0.61699997E+02  0.19076E+07
 0.61749996E+02  0.21380E+07
 0.61799995E+02  0.23754E+07
 0.61849995E+02  0.26620E+07
 0.61899998E+02  0.29508E+07
 0.61949997E+02  0.32070E+07
 0.61999996E+02  0.33827E+07
 0.62049995E+02  0.33766E+07
 0.62099998E+02  0.32557E+07
 0.62149994E+02  0.30167E+07
 0.62199997E+02  0.26755E+07
 0.62249992E+02  0.22906E+07
 0.62299995E+02  0.18517E+07
 0.62349998E+02  0.14264E+07
 0.62399994E+02  0.10874E+07
 0.62449997E+02  0.84141E+06
 0.62499992E+02  0.68264E+06
 0.62549995E+02  0.64864E+06
 0.62599998E+02  0.69452E+06
 0.62649994E+02  0.75066E+06
 0.62699997E+02  0.86624E+06
 0.62749992E+02  0.10619E+07
 0.62799995E+02  0.12440E+07
 0.62849998E+02  0.13691E+07
 0.62899994E+02  0.13692E+07
 0.62949997E+02  0.12786E+07
 0.62999992E+02  0.11604E+07
 0.63049995E+02  0.11004E+07
 0.63099998E+02  0.11303E+07
 0.63149994E+02  0.12214E+07
 0.63199997E+02  0.13243E+07
 0.63249992E+02  0.13486E+07
 0.63299995E+02  0.13402E+07
 0.63349998E+02  0.13176E+07
 0.63399994E+02  0.13046E+07
 0.63449997E+02  0.12930E+07
 0.63499992E+02  0.13404E+07
 0.63549995E+02  0.14564E+07
 0.63599998E+02  0.15475E+07
 0.63649994E+02  0.15496E+07
 0.63699997E+02  0.14634E+07
 0.63749992E+02  0.13362E+07
 0.63799995E+02  0.12557E+07
 0.63849998E+02  0.13461E+07
 0.63899994E+02  0.15453E+07
 0.63949997E+02  0.17214E+07
 0.63999992E+02  0.17375E+07
 0.64049995E+02  0.15137E+07
 0.64099998E+02  0.11248E+07
 0.64149994E+02  0.63448E+06
 0.64199997E+02  0.11007E+06
 0.64249992E+02 -0.34165E+06
 0.64299995E+02 -0.68656E+06
 0.64349998E+02 -0.88939E+06
 0.64399994E+02 -0.92637E+06
 0.64449997E+02 -0.79089E+06
 0.64499992E+02 -0.54699E+06
 0.64549995E+02 -0.28901E+06
 0.64599998E+02 -0.12509E+06
 0.64649994E+02 -0.14129E+06
 0.64699997E+02 -0.24640E+06
 0.64749992E+02 -0.40023E+06
 0.64799995E+02 -0.59005E+06
 0.64849998E+02 -0.77715E+06
 0.64899994E+02 -0.99250E+06
 0.64949997E+02 -0.12235E+07
 0.64999992E+02 -0.14421E+07
 0.65049995E+02 -0.16205E+07
 0.65099998E+02 -0.17486E+07
 0.65149994E+02 -0.18334E+07
 0.65199997E+02 -0.18780E+07
 0.65249992E+02 -0.19503E+07
 0.65299995E+02 -0.20412E+07
 0.65349998E+02 -0.20780E+07
 0.65399994E+02 -0.20341E+07
 0.65449997E+02 -0.19061E+07
 0.65499992E+02 -0.16577E+07
 0.65549995E+02 -0.12976E+07
 0.65599998E+02 -0.87314E+06
 0.65649994E+02 -0.47541E+06
 0.65699997E+02 -0.15886E+06
 0.65749992E+02  0.64198E+05
 0.65799995E+02  0.12330E+06
 0.65849998E+02 -0.41180E+05
 0.65899994E+02 -0.45388E+06
 0.65949997E+02 -0.11260E+07
 0.65999992E+02 -0.19613E+07
 0.66049995E+02 -0.27876E+07
 0.66099998E+02 -0.34554E+07
 0.66149994E+02 -0.38339E+07
 0.66199997E+02 -0.39265E+07
 0.66249992E+02 -0.37638E+07
 0.66299995E+02 -0.34123E+07
 0.66349998E+02 -0.28895E+07
 0.66399994E+02 -0.22935E+07
 0.66449997E+02 -0.17126E+07
 0.66499992E+02 -0.11576E+07
 0.66549995E+02 -0.74503E+06
 0.66599998E+02 -0.50857E+06
 0.66649994E+02 -0.51097E+06
 0.66699997E+02 -0.75582E+06
 0.66749992E+02 -0.11708E+07
 0.66799995E+02 -0.17026E+07
 0.66849998E+02 -0.22039E+07
 0.66899994E+02 -0.25175E+07
 0.66949997E+02 -0.25307E+07
 0.66999992E+02 -0.22578E+07
 0.67049995E+02 -0.17614E+07
 0.67099998E+02 -0.11218E+07
 0.67149994E+02 -0.47212E+06
 0.67199997E+02  0.14114E+06
 0.67249992E+02  0.67687E+06
 0.67299995E+02  0.11127E+07
 0.67349998E+02  0.14350E+07
 0.67399994E+02  0.16569E+07
 0.67449997E+02  0.17384E+07
 0.67499992E+02  0.16129E+07
 0.67549995E+02  0.12552E+07
 0.67599998E+02  0.69125E+06
 0.67649994E+02  0.15397E+05
 0.67699997E+02 -0.72236E+06
 0.67749992E+02 -0.14417E+07
 0.67799995E+02 -0.21049E+07
 0.67849998E+02 -0.26495E+07
 0.67899994E+02 -0.29443E+07
 0.67949997E+02 -0.29902E+07
 0.67999992E+02 -0.28019E+07
 0.68049995E+02 -0.24002E+07
 0.68099998E+02 -0.18728E+07
 0.68149994E+02 -0.13003E+07
 0.68199997E+02 -0.82224E+06
 0.68249992E+02 -0.49899E+06
 0.68299995E+02 -0.31736E+06
 0.68349998E+02 -0.21573E+06
 0.68399994E+02 -0.15232E+06
 0.68449997E+02 -0.12107E+06
 0.68499992E+02 -0.90658E+05
 0.68549995E+02 -0.22730E+05
 0.68599998E+02  0.12567E+06
 0.68649994E+02  0.35107E+06
 0.68699997E+02  0.61874E+06
 0.68749992E+02  0.89451E+06
 0.68799995E+02  0.11621E+07
 0.68849998E+02  0.13883E+07
 0.68899994E+02  0.15474E+07
 0.68949997E+02  0.16162E+07
 0.68999992E+02  0.15768E+07
 0.69049995E+02  0.14203E+07
 0.69099998E+02  0.11566E+07
 0.69149994E+02  0.78403E+06
 0.69199997E+02  0.33341E+06
 0.69249992E+02 -0.15579E+06
 0.69299995E+02 -0.66964E+06
 0.69349998E+02 -0.12034E+07
 0.69399994E+02 -0.17547E+07
 0.69449997E+02 -0.23162E+07
 0.69499992E+02 -0.28740E+07
 0.69549995E+02 -0.33340E+07
 0.69599998E+02 -0.36030E+07
 0.69649994E+02 -0.36416E+07
 0.69699997E+02 -0.33966E+07
 0.69749992E+02 -0.28763E+07
 0.69799995E+02 -0.21987E+07
 0.69849998E+02 -0.14772E+07
 0.69899994E+02 -0.82187E+06
 0.69949997E+02 -0.33721E+06
 0.69999992E+02 -0.23223E+05
 0.70049995E+02  0.19248E+06
 0.70099998E+02  0.34858E+06
 0.70149994E+02  0.42199E+06
 0.70199997E+02  0.39830E+06
 0.70249992E+02  0.33607E+06
 0.70299995E+02  0.32149E+06
 0.70349998E+02  0.39881E+06
 0.70399994E+02  0.58108E+06
 0.70449997E+02  0.81759E+06
 0.70499992E+02  0.10496E+07
 0.70549995E+02  0.12639E+07
 0.70599998E+02  0.13815E+07
 0.70649994E+02  0.13326E+07
 0.70699997E+02  0.11254E+07
 0.70749992E+02  0.78859E+06
 0.70799995E+02  0.43658E+06
 0.70849998E+02  0.13904E+06
 0.70899994E+02 -0.84235E+05
 0.70949997E+02 -0.22318E+06
 0.70999992E+02 -0.36803E+06
 0.71049995E+02 -0.56081E+06
 0.71099998E+02 -0.81062E+06
 0.71149994E+02 -0.10937E+07
 0.71199997E+02 -0.13337E+07
 0.71249992E+02 -0.14489E+07
 0.71299995E+02 -0.14180E+07
 0.71349998E+02 -0.13342E+07
 0.71399994E+02 -0.12605E+07
 0.71449997E+02 -0.12049E+07
 0.71499992E+02 -0.11278E+07
 0.71549995E+02 -0.93985E+06
 0.71599998E+02 -0.62226E+06
 0.71649994E+02 -0.20754E+06
 0.71699997E+02  0.29763E+06
 0.71749992E+02  0.84267E+06
 0.71799995E+02  0.13271E+07
 0.71849998E+02  0.16918E+07
 0.71899994E+02  0.18906E+07
 0.71949997E+02  0.19266E+07
 0.71999992E+02  0.18799E+07
 0.72049995E+02  0.18314E+07
 0.72099998E+02  0.17864E+07
 0.72149994E+02  0.17074E+07
 0.72199997E+02  0.15900E+07
 0.72249992E+02  0.14175E+07
 0.72299995E+02  0.11969E+07
 0.72349998E+02  0.91495E+06
 0.72399994E+02  0.56324E+06
 0.72449997E+02  0.17419E+06
 0.72499992E+02 -0.22226E+06
 0.72549995E+02 -0.54852E+06
 0.72599998E+02 -0.77742E+06
 0.72649994E+02 -0.96188E+06
 0.72699997E+02 -0.11573E+07
 0.72749992E+02 -0.13650E+07
 0.72799995E+02 -0.15200E+07
 0.72849998E+02 -0.15905E+07
 0.72899994E+02 -0.15779E+07
 0.72949997E+02 -0.15137E+07
 0.72999992E+02 -0.13925E+07
 0.73049995E+02 -0.11879E+07
 0.73099998E+02 -0.90731E+06
 0.73149994E+02 -0.57772E+06
 0.73199997E+02 -0.22898E+06
 0.73249992E+02  0.15023E+06
 0.73299995E+02  0.51339E+06
 0.73349998E+02  0.80039E+06
 0.73399994E+02  0.95298E+06
 0.73449997E+02  0.95042E+06
 0.73499992E+02  0.85792E+06
 0.73549995E+02  0.72140E+06
 0.73599998E+02  0.56831E+06
 0.73649994E+02  0.37537E+06
 0.73699997E+02  0.93247E+05
 0.73749992E+02 -0.26360E+06
 0.73799995E+02 -0.65399E+06
 0.73849998E+02 -0.10448E+07
 0.73899994E+02 -0.13948E+07
 0.73949997E+02 -0.16477E+07
 0.73999992E+02 -0.17842E+07
 0.74049995E+02 -0.18481E+07
 0.74099998E+02 -0.19122E+07
 0.74149994E+02 -0.20087E+07
 0.74199997E+02 -0.21298E+07
 0.74249992E+02 -0.23004E+07
 0.74299995E+02 -0.24977E+07
 0.74349998E+02 -0.27022E+07
 0.74399994E+02 -0.29220E+07
 0.74449997E+02 -0.31402E+07
 0.74499992E+02 -0.33322E+07
 0.74549995E+02 -0.34588E+07
 0.74599998E+02 -0.34998E+07
 0.74649994E+02 -0.34734E+07
 0.74699997E+02 -0.33952E+07
 0.74749992E+02 -0.32569E+07
 0.74799995E+02 -0.30407E+07
 0.74849998E+02 -0.27359E+07
 0.74899994E+02 -0.23905E+07
 0.74949997E+02 -0.20439E+07
 0.74999992E+02 -0.17318E+07
 0.75049995E+02 -0.15252E+07
 0.75099998E+02 -0.14475E+07
 0.75149994E+02 -0.14986E+07
 0.75199997E+02 -0.16403E+07
 0.75249992E+02 -0.17898E+07
 0.75299995E+02 -0.18877E+07
 0.75349998E+02 -0.19738E+07
 0.75399994E+02 -0.21137E+07
 0.75449997E+02 -0.22738E+07
 0.75499992E+02 -0.24384E+07
 0.75549995E+02 -0.25767E+07
 0.75599998E+02 -0.26645E+07
 0.75649994E+02 -0.26946E+07
 0.75699997E+02 -0.26581E+07
 0.75749992E+02 -0.25667E+07
 0.75799995E+02 -0.23470E+07
 0.75849998E+02 -0.19784E+07
 0.75899994E+02 -0.15370E+07
 0.75949997E+02 -0.10574E+07
 0.75999992E+02 -0.57015E+06
 0.76049995E+02 -0.10577E+06
 0.76099998E+02  0.30969E+06
 0.76149994E+02  0.64307E+06
 0.76199997E+02  0.89573E+06
 0.76249992E+02  0.10538E+07
 0.76299995E+02  0.10840E+07
 0.76349998E+02  0.10236E+07
 0.76399994E+02  0.94891E+06
 0.76449997E+02  0.88150E+06
 0.76499992E+02  0.83329E+06
 0.76549995E+02  0.83882E+06
 0.76599998E+02  0.91076E+06
 0.76649994E+02  0.10340E+07
 0.76699997E+02  0.11882E+07
 0.76749992E+02  0.13434E+07
 0.76799995E+02  0.14795E+07
 0.76849998E+02  0.15853E+07
 0.76899994E+02  0.16678E+07
 0.76949997E+02  0.17499E+07
 0.76999992E+02  0.18556E+07
 0.77049995E+02  0.19982E+07
 0.77099998E+02  0.21409E+07
 0.77149994E+02  0.22071E+07
 0.77199997E+02  0.21566E+07
 0.77249992E+02  0.20452E+07
 0.77299995E+02  0.19264E+07
 0.77349998E+02  0.17904E+07
 0.77399994E+02  0.16231E+07
 0.77449997E+02  0.14358E+07
 0.77499992E+02  0.12709E+07
 0.77549995E+02  0.11224E+07
 0.77599998E+02  0.93831E+06
 0.77649994E+02  0.72982E+06
 0.77699997E+02  0.54080E+06
 0.77749992E+02  0.38754E+06
 0.77799995E+02  0.27133E+06
 0.77849998E+02  0.17391E+06
 0.77899994E+02  0.78169E+05
 0.77949997E+02  0.18934E+05
 0.77999992E+02  0.21215E+05
 0.78049995E+02  0.71263E+05
 0.78099998E+02  0.13075E+06
 0.78149994E+02  0.18075E+06
 0.78199997E+02  0.21936E+06
 0.78249992E+02  0.25191E+06
 0.78299995E+02  0.28475E+06
 0.78349998E+02  0.32010E+06
 0.78399994E+02  0.34246E+06
 0.78449997E+02  0.30429E+06
 0.78499992E+02  0.19453E+06
 0.78549995E+02  0.25057E+05
 0.78599998E+02 -0.16071E+06
 0.78649994E+02 -0.30533E+06
 0.78699997E+02 -0.40672E+06
 0.78749992E+02 -0.50013E+06
 0.78799995E+02 -0.63567E+06
 0.78849998E+02 -0.83923E+06
 0.78899994E+02 -0.10676E+07
 0.78949997E+02 -0.12738E+07
 0.78999992E+02 -0.14191E+07
 0.79049995E+02 -0.15122E+07
 0.79099998E+02 -0.16143E+07
 0.79149994E+02 -0.17604E+07
 0.79199997E+02 -0.19396E+07
 0.79249992E+02 -0.21297E+07
 0.79299995E+02 -0.23307E+07
 0.79349998E+02 -0.25502E+07
 0.79399994E+02 -0.27911E+07
 0.79449997E+02 -0.30259E+07
 0.79499992E+02 -0.32276E+07
 0.79549995E+02 -0.34129E+07
 0.79599998E+02 -0.35725E+07
 0.79649994E+02 -0.36637E+07
 0.79699997E+02 -0.36837E+07
 0.79749992E+02 -0.36901E+07
 0.79799995E+02 -0.37277E+07
 0.79849998E+02 -0.37744E+07
 0.79899994E+02 -0.37883E+07
 0.79949997E+02 -0.37145E+07
 0.79999992E+02 -0.35368E+07
 0.80049995E+02 -0.32710E+07
 0.80099998E+02 -0.29470E+07
 0.80149994E+02 -0.26327E+07
 0.80199997E+02 -0.23699E+07
 0.80249992E+02 -0.21503E+07
 0.80299995E+02 -0.19462E+07
 0.80349998E+02 -0.17462E+07
 0.80399994E+02 -0.16070E+07
 0.80449997E+02 -0.15446E+07
 0.80499992E+02 -0.15205E+07
 0.80549995E+02 -0.14967E+07
 0.80599998E+02 -0.14578E+07
 0.80649994E+02 -0.14223E+07
 0.80699997E+02 -0.14036E+07
 0.80749992E+02 -0.14053E+07
 0.80799995E+02 -0.14218E+07
 0.80849998E+02 -0.14503E+07
 0.80899994E+02 -0.14799E+07
 0.80949997E+02 -0.14858E+07
 0.80999992E+02 -0.14421E+07
 0.81049995E+02 -0.13406E+07
 0.81099998E+02 -0.11650E+07
 0.81149994E+02 -0.91791E+06
 0.81199997E+02 -0.60402E+06
 0.81249992E+02 -0.25393E+06
 0.81299995E+02  0.79000E+05
 0.81349998E+02  0.35975E+06
 0.81399994E+02  0.56802E+06
 0.81449997E+02  0.70604E+06
 0.81499992E+02  0.79496E+06
 0.81549995E+02  0.86207E+06
 0.81599998E+02  0.92792E+06
 0.81649994E+02  0.10069E+07
 0.81699997E+02  0.10730E+07
 0.81749992E+02  0.11132E+07
 0.81799995E+02  0.11425E+07
 0.81849998E+02  0.11386E+07
 0.81899994E+02  0.10928E+07
 0.81949997E+02  0.10378E+07
 0.81999992E+02  0.99652E+06
 0.82049995E+02  0.98456E+06
 0.82099998E+02  0.99795E+06
 0.82149994E+02  0.10072E+07
 0.82199997E+02  0.98496E+06
 0.82249992E+02  0.92699E+06
 0.82299995E+02  0.86153E+06
 0.82349998E+02  0.79583E+06
 0.82399994E+02  0.69113E+06
 0.82449997E+02  0.56138E+06
 0.82499992E+02  0.49044E+06
 0.82549995E+02  0.49867E+06
 0.82599998E+02  0.52528E+06
 0.82649994E+02  0.53636E+06
 0.82699997E+02  0.50622E+06
 0.82749992E+02  0.43211E+06
 0.82799995E+02  0.34659E+06
 0.82849998E+02  0.26654E+06
 0.82899994E+02  0.19277E+06
 0.82949997E+02  0.12057E+06
 0.82999992E+02  0.64888E+05
 0.83049995E+02  0.42157E+05
 0.83099998E+02  0.36128E+05
 0.83149994E+02  0.42600E+04
 0.83199997E+02 -0.59665E+05
 0.83249992E+02 -0.14557E+06
 0.83299995E+02 -0.25953E+06
 0.83349998E+02 -0.39762E+06
 0.83399994E+02 -0.55294E+06
 0.83449997E+02 -0.71338E+06
 0.83499992E+02 -0.87185E+06
 0.83549995E+02 -0.10343E+07
 0.83599998E+02 -0.11883E+07
 0.83649994E+02 -0.13350E+07
 0.83699997E+02 -0.15051E+07
 0.83749992E+02 -0.16864E+07
 0.83799995E+02 -0.18400E+07
 0.83849998E+02 -0.19357E+07
 0.83899994E+02 -0.19717E+07
 0.83949997E+02 -0.19569E+07
 0.83999992E+02 -0.18928E+07
 0.84049995E+02 -0.17817E+07
 0.84099998E+02 -0.16425E+07
 0.84149994E+02 -0.15128E+07
 0.84199997E+02 -0.13962E+07
 0.84249992E+02 -0.13143E+07
 0.84299995E+02 -0.12783E+07
 0.84349998E+02 -0.12830E+07
 0.84399994E+02 -0.13460E+07
 0.84449997E+02 -0.14463E+07
 0.84499992E+02 -0.15444E+07
 0.84549995E+02 -0.16393E+07
 0.84599998E+02 -0.17594E+07
 0.84649994E+02 -0.18981E+07
 0.84699997E+02 -0.20271E+07
 0.84749992E+02 -0.21202E+07
 0.84799995E+02 -0.21539E+07
 0.84849998E+02 -0.21312E+07
 0.84899994E+02 -0.20609E+07
 0.84949997E+02 -0.19402E+07
 0.84999992E+02 -0.17859E+07
 0.85049995E+02 -0.16041E+07
 0.85099998E+02 -0.13972E+07
 0.85149994E+02 -0.11838E+07
 0.85199997E+02 -0.97054E+06
 0.85249992E+02 -0.76287E+06
 0.85299995E+02 -0.55995E+06
 0.85349998E+02 -0.35835E+06
 0.85399994E+02 -0.14669E+06
 0.85449997E+02  0.97040E+05
 0.85499992E+02  0.34485E+06
 0.85549995E+02  0.52767E+06
 0.85599998E+02  0.66086E+06
 0.85649994E+02  0.78093E+06
 0.85699997E+02  0.88860E+06
 0.85749992E+02  0.95921E+06
 0.85799995E+02  0.98539E+06
 0.85849998E+02  0.99638E+06
 0.85899994E+02  0.96907E+06
 0.85949997E+02  0.88923E+06
 0.85999992E+02  0.77771E+06
 0.86049995E+02  0.66421E+06
 0.86099998E+02  0.54189E+06
 0.86149994E+02  0.39727E+06
 0.86199997E+02  0.25962E+06
 0.86249992E+02  0.14039E+06
 0.86299995E+02  0.47420E+05
 0.86349998E+02 -0.32474E+05
 0.86399994E+02 -0.86879E+05
 0.86449997E+02 -0.10839E+06
 0.86499992E+02 -0.12102E+06
 0.86549995E+02 -0.13541E+06
 0.86599998E+02 -0.15877E+06
 0.86649994E+02 -0.18118E+06
 0.86699997E+02 -0.20635E+06
 0.86749992E+02 -0.21721E+06
 0.86799995E+02 -0.21596E+06
 0.86849998E+02 -0.20678E+06
 0.86899994E+02 -0.18744E+06
 0.86949997E+02 -0.16207E+06
 0.86999992E+02 -0.14430E+06
 0.87049995E+02 -0.17686E+06
 0.87099998E+02 -0.25725E+06
 0.87149994E+02 -0.36439E+06
 0.87199997E+02 -0.49380E+06
 0.87249992E+02 -0.65125E+06
 0.87299995E+02 -0.85442E+06
 0.87349998E+02 -0.10947E+07
 0.87399994E+02 -0.13535E+07
 0.87449997E+02 -0.16071E+07
 0.87499992E+02 -0.18331E+07
 0.87549995E+02 -0.20150E+07
 0.87599991E+02 -0.21315E+07
 0.87649994E+02 -0.21804E+07
 0.87699997E+02 -0.21593E+07
 0.87749992E+02 -0.20852E+07
 0.87799995E+02 -0.19554E+07
 0.87849991E+02 -0.17493E+07
 0.87899994E+02 -0.14726E+07
 0.87949997E+02 -0.11545E+07
 0.87999992E+02 -0.82073E+06
 0.88049995E+02 -0.47152E+06
 0.88099991E+02 -0.12423E+06
 0.88149994E+02  0.17746E+06
 0.88199997E+02  0.39256E+06
 0.88249992E+02  0.52852E+06
 0.88299995E+02  0.58966E+06
 0.88349991E+02  0.57692E+06
 0.88399994E+02  0.52791E+06
 0.88449997E+02  0.47943E+06
 0.88499992E+02  0.44124E+06
 0.88549995E+02  0.37934E+06
 0.88599991E+02  0.26338E+06
 0.88649994E+02  0.98105E+05
 0.88699997E+02 -0.87970E+05
 0.88749992E+02 -0.26234E+06
 0.88799995E+02 -0.40559E+06
 0.88849991E+02 -0.50652E+06
 0.88899994E+02 -0.57348E+06
 0.88949997E+02 -0.61624E+06
 0.88999992E+02 -0.65514E+06
 0.89049995E+02 -0.72025E+06
 0.89099991E+02 -0.81031E+06
 0.89149994E+02 -0.91625E+06
 0.89199997E+02 -0.10202E+07
 0.89249992E+02 -0.11100E+07
 0.89299995E+02 -0.11991E+07
 0.89349991E+02 -0.12754E+07
 0.89399994E+02 -0.13155E+07
 0.89449997E+02 -0.13118E+07
 0.89499992E+02 -0.12661E+07
 0.89549995E+02 -0.11954E+07
 0.89599991E+02 -0.11189E+07
 0.89649994E+02 -0.10452E+07
 0.89699997E+02 -0.96766E+06
 0.89749992E+02 -0.88688E+06
 0.89799995E+02 -0.80724E+06
 0.89849991E+02 -0.73192E+06
 0.89899994E+02 -0.66895E+06
 0.89949997E+02 -0.63328E+06
 0.89999992E+02 -0.63759E+06
 0.90049995E+02 -0.66858E+06
 0.90099991E+02 -0.72282E+06
 0.90149994E+02 -0.82327E+06
 0.90199997E+02 -0.95474E+06
 0.90249992E+02 -0.10725E+07
 0.90299995E+02 -0.11446E+07
 0.90349991E+02 -0.11589E+07
 0.90399994E+02 -0.11424E+07
 0.90449997E+02 -0.11159E+07
 0.90499992E+02 -0.10853E+07
 0.90549995E+02 -0.10644E+07
 0.90599991E+02 -0.10534E+07
 0.90649994E+02 -0.10339E+07
 0.90699997E+02 -0.99779E+06
 0.90749992E+02 -0.96283E+06
 0.90799995E+02 -0.92032E+06
 0.90849991E+02 -0.86283E+06
 0.90899994E+02 -0.80587E+06
 0.90949997E+02 -0.74135E+06
 0.90999992E+02 -0.66241E+06
 0.91049995E+02 -0.58834E+06
 0.91099991E+02 -0.53935E+06
 0.91149994E+02 -0.52913E+06
 0.91199997E+02 -0.55776E+06
 0.91249992E+02 -0.61015E+06
 0.91299995E+02 -0.68097E+06
 0.91349991E+02 -0.75723E+06
 0.91399994E+02 -0.84707E+06
 0.91449997E+02 -0.96899E+06
 0.91499992E+02 -0.11225E+07
 0.91549995E+02 -0.12925E+07
 0.91599991E+02 -0.14563E+07
 0.91649994E+02 -0.16046E+07
 0.91699997E+02 -0.17378E+07
 0.91749992E+02 -0.18630E+07
 0.91799995E+02 -0.19879E+07
 0.91849991E+02 -0.20985E+07
 0.91899994E+02 -0.21614E+07
 0.91949997E+02 -0.21428E+07
 0.91999992E+02 -0.20374E+07
 0.92049995E+02 -0.18667E+07
 0.92099991E+02 -0.16437E+07
 0.92149994E+02 -0.13857E+07
 0.92199997E+02 -0.11158E+07
 0.92249992E+02 -0.86067E+06
 0.92299995E+02 -0.62744E+06
 0.92349991E+02 -0.41583E+06
 0.92399994E+02 -0.23365E+06
 0.92449997E+02 -0.77260E+05
 0.92499992E+02  0.66613E+05
 0.92549995E+02  0.18752E+06
 0.92599991E+02  0.25821E+06
 0.92649994E+02  0.28005E+06
 0.92699997E+02  0.25290E+06
 0.92749992E+02  0.18575E+06
 0.92799995E+02  0.93435E+05
 0.92849991E+02 -0.10573E+05
 0.92899994E+02 -0.10546E+06
 0.92949997E+02 -0.17513E+06
 0.92999992E+02 -0.21432E+06
 0.93049995E+02 -0.23590E+06
 0.93099991E+02 -0.24056E+06
 0.93149994E+02 -0.22931E+06
 0.93199997E+02 -0.21627E+06
 0.93249992E+02 -0.20800E+06
 0.93299995E+02 -0.20993E+06
 0.93349991E+02 -0.22078E+06
 0.93399994E+02 -0.22161E+06
 0.93449997E+02 -0.20817E+06
 0.93499992E+02 -0.18049E+06
 0.93549995E+02 -0.14395E+06
 0.93599991E+02 -0.10670E+06
 0.93649994E+02 -0.66537E+05
 0.93699997E+02 -0.32901E+05
 0.93749992E+02 -0.70026E+04
 0.93799995E+02  0.14000E+05
 0.93849991E+02  0.39206E+05
 0.93899994E+02  0.81254E+05
 0.93949997E+02  0.14791E+06
 0.93999992E+02  0.22949E+06
 0.94049995E+02  0.29665E+06
 0.94099991E+02  0.32632E+06
 0.94149994E+02  0.30629E+06
 0.94199997E+02  0.22943E+06
 0.94249992E+02  0.11988E+06
 0.94299995E+02  0.16339E+04
 0.94349991E+02 -0.11101E+06
 0.94399994E+02 -0.20922E+06
 0.94449997E+02 -0.31024E+06
 0.94499992E+02 -0.41274E+06
 0.94549995E+02 -0.50527E+06
 0.94599991E+02 -0.57854E+06
 0.94649994E+02 -0.62872E+06
 0.94699997E+02 -0.65711E+06
 0.94749992E+02 -0.66417E+06
 0.94799995E+02 -0.65133E+06
 0.94849991E+02 -0.61543E+06
 0.94899994E+02 -0.55130E+06
 0.94949997E+02 -0.45902E+06
 0.94999992E+02 -0.34377E+06
 0.95049995E+02 -0.22365E+06
 0.95099991E+02 -0.11715E+06
 0.95149994E+02 -0.27371E+05
 0.95199997E+02  0.48534E+05
 0.95249992E+02  0.12828E+06
 0.95299995E+02  0.21899E+06
 0.95349991E+02  0.31331E+06
 0.95399994E+02  0.40396E+06
 0.95449997E+02  0.46852E+06
 0.95499992E+02  0.49651E+06
 0.95549995E+02  0.48503E+06
 0.95599991E+02  0.43753E+06
 0.95649994E+02  0.36933E+06
 0.95699997E+02  0.28939E+06
 0.95749992E+02  0.19371E+06
 0.95799995E+02  0.85065E+05
 0.95849991E+02 -0.16245E+05
 0.95899994E+02 -0.10161E+06
 0.95949997E+02 -0.16576E+06
 0.95999992E+02 -0.20938E+06
 0.96049995E+02 -0.25416E+06
 0.96099991E+02 -0.32859E+06
 0.96149994E+02 -0.43969E+06
 0.96199997E+02 -0.56571E+06
 0.96249992E+02 -0.68502E+06
 0.96299995E+02 -0.80089E+06
 0.96349991E+02 -0.92094E+06
 0.96399994E+02 -0.10345E+07
 0.96449997E+02 -0.11338E+07
 0.96499992E+02 -0.12131E+07
 0.96549995E+02 -0.12588E+07
 0.96599991E+02 -0.12595E+07
 0.96649994E+02 -0.12111E+07
 0.96699997E+02 -0.11238E+07
 0.96749992E+02 -0.10162E+07
 0.96799995E+02 -0.90317E+06
 0.96849991E+02 -0.79329E+06
 0.96899994E+02 -0.69485E+06
 0.96949997E+02 -0.62131E+06
 0.96999992E+02 -0.59074E+06
 0.97049995E+02 -0.60233E+06
 0.97099991E+02 -0.63808E+06
 0.97149994E+02 -0.67932E+06
 0.97199997E+02 -0.71037E+06
 0.97249992E+02 -0.71603E+06
 0.97299995E+02 -0.68247E+06
 0.97349991E+02 -0.61312E+06
 0.97399994E+02 -0.52222E+06
 0.97449997E+02 -0.42530E+06
 0.97499992E+02 -0.34267E+06
 0.97549995E+02 -0.29416E+06
 0.97599991E+02 -0.28470E+06
 0.97649994E+02 -0.30030E+06
 0.97699997E+02 -0.30932E+06
 0.97749992E+02 -0.30694E+06
 0.97799995E+02 -0.29983E+06
 0.97849991E+02 -0.28883E+06
 0.97899994E+02 -0.29617E+06
 0.97949997E+02 -0.33935E+06
 0.97999992E+02 -0.41669E+06
