-0.19969940E+01 -0.66433E+04
-0.19469941E+01 -0.65757E+04
-0.18969940E+01 -0.65937E+04
-0.18469940E+01 -0.65877E+04
-0.17969940E+01 -0.66192E+04
-0.17469940E+01 -0.66669E+04
-0.16969941E+01 -0.67077E+04
-0.16469941E+01 -0.67343E+04
-0.15969940E+01 -0.67333E+04
-0.15469940E+01 -0.67182E+04
-0.14969940E+01 -0.67045E+04
-0.14469941E+01 -0.66832E+04
-0.13969941E+01 -0.66561E+04
-0.13469940E+01 -0.66438E+04
-0.12969941E+01 -0.66372E+04
-0.12469940E+01 -0.66379E+04
-0.11969941E+01 -0.66671E+04
-0.11469941E+01 -0.66682E+04
-0.10969940E+01 -0.66738E+04
-0.10469941E+01 -0.66639E+04
-0.99699408E+00 -0.66586E+04
-0.94699407E+00 -0.66513E+04
-0.89699411E+00 -0.66155E+04
-0.84699404E+00 -0.66211E+04
-0.79699409E+00 -0.66223E+04
-0.74699414E+00 -0.66198E+04
-0.69699407E+00 -0.66209E+04
-0.64699411E+00 -0.66432E+04
-0.59699416E+00 -0.66692E+04
-0.54699409E+00 -0.66905E+04
-0.49699414E+00 -0.67168E+04
-0.44699407E+00 -0.67319E+04
-0.39699411E+00 -0.67488E+04
-0.34699416E+00 -0.67194E+04
-0.29699409E+00 -0.66754E+04
-0.24699414E+00 -0.66506E+04
-0.19699407E+00 -0.66397E+04
-0.14699411E+00 -0.66705E+04
-0.96994162E-01 -0.67031E+04
-0.46994090E-01 -0.67544E+04
 0.30058622E-02 -0.67918E+04
 0.53005934E-01 -0.68029E+04
 0.10300589E+00 -0.68134E+04
 0.15300584E+00 -0.67935E+04
 0.20300579E+00 -0.67679E+04
 0.25300574E+00 -0.67416E+04
 0.30300593E+00 -0.67061E+04
 0.35300589E+00 -0.66871E+04
 0.40300584E+00 -0.66711E+04
 0.45300579E+00 -0.66620E+04
 0.50300574E+00 -0.66652E+04
 0.55300593E+00 -0.66574E+04
 0.60300589E+00 -0.66475E+04
 0.65300584E+00 -0.66428E+04
 0.70300579E+00 -0.66380E+04
 0.75300574E+00 -0.66470E+04
 0.80300570E+00 -0.66449E+04
 0.85300589E+00 -0.66345E+04
 0.90300584E+00 -0.66297E+04
 0.95300579E+00 -0.66111E+04
 0.10030057E+01 -0.66246E+04
 0.10530057E+01 -0.66584E+04
 0.11030059E+01 -0.66939E+04
 0.11530058E+01 -0.67152E+04
 0.12030058E+01 -0.67206E+04
 0.12530057E+01 -0.67236E+04
 0.13030057E+01 -0.67066E+04
 0.13530059E+01 -0.66719E+04
 0.14030058E+01 -0.66560E+04
 0.14530058E+01 -0.66692E+04
 0.15030057E+01 -0.66890E+04
 0.15530057E+01 -0.67072E+04
 0.16030059E+01 -0.67163E+04
 0.16530058E+01 -0.67193E+04
 0.17030058E+01 -0.67171E+04
 0.17530057E+01 -0.67006E+04
 0.18030057E+01 -0.66819E+04
 0.18530056E+01 -0.66700E+04
 0.19030058E+01 -0.66605E+04
 0.19530058E+01 -0.66478E+04
 0.20030057E+01 -0.66374E+04
 0.20530057E+01 -0.66382E+04
 0.21030059E+01 -0.66171E+04
 0.21530056E+01 -0.66040E+04
 0.22030058E+01 -0.66099E+04
 0.22530055E+01 -0.66154E+04
 0.23030057E+01 -0.66260E+04
 0.23530059E+01 -0.66428E+04
 0.24030056E+01 -0.66670E+04
 0.24530058E+01 -0.66798E+04
 0.25030055E+01 -0.66910E+04
 0.25530057E+01 -0.66861E+04
 0.26030059E+01 -0.66953E+04
 0.26530056E+01 -0.66977E+04
 0.27030058E+01 -0.66885E+04
 0.27530055E+01 -0.66890E+04
 0.28030057E+01 -0.66734E+04
 0.28530059E+01 -0.66564E+04
 0.29030056E+01 -0.66394E+04
 0.29530058E+01 -0.66365E+04
 0.30030055E+01 -0.66385E+04
 0.30530057E+01 -0.66463E+04
 0.31030059E+01 -0.66511E+04
 0.31530056E+01 -0.66557E+04
 0.32030058E+01 -0.66778E+04
 0.32530055E+01 -0.66852E+04
 0.33030057E+01 -0.66876E+04
 0.33530059E+01 -0.66888E+04
 0.34030056E+01 -0.66818E+04
 0.34530058E+01 -0.66811E+04
 0.35030055E+01 -0.66767E+04
 0.35530057E+01 -0.66650E+04
 0.36030054E+01 -0.66511E+04
 0.36530056E+01 -0.66561E+04
 0.37030058E+01 -0.66804E+04
 0.37530055E+01 -0.67084E+04
 0.38030057E+01 -0.67243E+04
 0.38530054E+01 -0.67219E+04
 0.39030056E+01 -0.67172E+04
 0.39530058E+01 -0.66917E+04
 0.40030055E+01 -0.66649E+04
 0.40530057E+01 -0.66534E+04
 0.41030054E+01 -0.66478E+04
 0.41530056E+01 -0.66691E+04
 0.42030058E+01 -0.66857E+04
 0.42530055E+01 -0.66927E+04
 0.43030057E+01 -0.66905E+04
 0.43530054E+01 -0.66895E+04
 0.44030056E+01 -0.66843E+04
 0.44530058E+01 -0.66636E+04
 0.45030055E+01 -0.66524E+04
 0.45530057E+01 -0.66753E+04
 0.46030054E+01 -0.66987E+04
 0.46530056E+01 -0.67202E+04
 0.47030058E+01 -0.67512E+04
 0.47530055E+01 -0.67395E+04
 0.48030057E+01 -0.67188E+04
 0.48530054E+01 -0.66986E+04
 0.49030056E+01 -0.66802E+04
 0.49530058E+01 -0.66615E+04
 0.50030055E+01 -0.66442E+04
 0.50530057E+01 -0.66331E+04
 0.51030054E+01 -0.66382E+04
 0.51530056E+01 -0.66592E+04
 0.52030058E+01 -0.66816E+04
 0.52530055E+01 -0.67043E+04
 0.53030057E+01 -0.67354E+04
 0.53530054E+01 -0.67461E+04
 0.54030056E+01 -0.67385E+04
 0.54530053E+01 -0.67231E+04
 0.55030055E+01 -0.66930E+04
 0.55530057E+01 -0.66898E+04
 0.56030054E+01 -0.66944E+04
 0.56530056E+01 -0.67021E+04
 0.57030053E+01 -0.66998E+04
 0.57530055E+01 -0.66910E+04
 0.58030057E+01 -0.66928E+04
 0.58530054E+01 -0.66936E+04
 0.59030056E+01 -0.66856E+04
 0.59530053E+01 -0.66743E+04
 0.60030055E+01 -0.66689E+04
 0.60530052E+01 -0.66651E+04
 0.61030054E+01 -0.66656E+04
 0.61530056E+01 -0.66909E+04
 0.62030058E+01 -0.67167E+04
 0.62530050E+01 -0.67252E+04
 0.63030052E+01 -0.67253E+04
 0.63530054E+01 -0.67207E+04
 0.64030056E+01 -0.67016E+04
 0.64530058E+01 -0.66859E+04
 0.65030050E+01 -0.66719E+04
 0.65530052E+01 -0.66605E+04
 0.66030054E+01 -0.66580E+04
 0.66530056E+01 -0.66682E+04
 0.67030058E+01 -0.66899E+04
 0.67530050E+01 -0.66944E+04
 0.68030052E+01 -0.66932E+04
 0.68530054E+01 -0.66815E+04
 0.69030056E+01 -0.66783E+04
 0.69530058E+01 -0.66652E+04
 0.70030050E+01 -0.66569E+04
 0.70530052E+01 -0.66513E+04
 0.71030054E+01 -0.66384E+04
 0.71530056E+01 -0.66444E+04
 0.72030058E+01 -0.66479E+04
 0.72530050E+01 -0.66396E+04
 0.73030052E+01 -0.66312E+04
 0.73530054E+01 -0.66342E+04
 0.74030056E+01 -0.66309E+04
 0.74530058E+01 -0.66322E+04
 0.75030050E+01 -0.66307E+04
 0.75530052E+01 -0.66275E+04
 0.76030054E+01 -0.66249E+04
 0.76530056E+01 -0.66103E+04
 0.77030058E+01 -0.66190E+04
 0.77530050E+01 -0.66209E+04
 0.78030052E+01 -0.66206E+04
 0.78530054E+01 -0.66325E+04
 0.79030056E+01 -0.66476E+04
 0.79530058E+01 -0.66580E+04
 0.80030050E+01 -0.66604E+04
 0.80530052E+01 -0.66701E+04
 0.81030054E+01 -0.66767E+04
 0.81530056E+01 -0.66807E+04
 0.82030058E+01 -0.66721E+04
 0.82530050E+01 -0.66723E+04
 0.83030052E+01 -0.66711E+04
 0.83530054E+01 -0.66766E+04
 0.84030056E+01 -0.66997E+04
 0.84530058E+01 -0.67201E+04
 0.85030050E+01 -0.67336E+04
 0.85530052E+01 -0.67348E+04
 0.86030054E+01 -0.67385E+04
 0.86530056E+01 -0.67413E+04
 0.87030058E+01 -0.67419E+04
 0.87530050E+01 -0.67531E+04
 0.88030052E+01 -0.67651E+04
 0.88530054E+01 -0.67468E+04
 0.89030056E+01 -0.67222E+04
 0.89530058E+01 -0.66928E+04
 0.90030050E+01 -0.66520E+04
 0.90530052E+01 -0.66326E+04
 0.91030054E+01 -0.66201E+04
 0.91530056E+01 -0.66275E+04
 0.92030048E+01 -0.66728E+04
 0.92530050E+01 -0.67045E+04
 0.93030052E+01 -0.67246E+04
 0.93530054E+01 -0.67405E+04
 0.94030056E+01 -0.67250E+04
 0.94530048E+01 -0.66906E+04
 0.95030050E+01 -0.66606E+04
 0.95530052E+01 -0.66388E+04
 0.96030054E+01 -0.66383E+04
 0.96530056E+01 -0.66543E+04
 0.97030048E+01 -0.66620E+04
 0.97530050E+01 -0.66747E+04
 0.98030052E+01 -0.66782E+04
 0.98530054E+01 -0.66664E+04
 0.99030056E+01 -0.66676E+04
 0.99530048E+01 -0.66759E+04
 0.10003005E+02 -0.66851E+04
 0.10053005E+02 -0.67021E+04
 0.10103005E+02 -0.67064E+04
 0.10153006E+02 -0.67007E+04
 0.10203005E+02 -0.66858E+04
 0.10253005E+02 -0.66586E+04
 0.10303005E+02 -0.66309E+04
 0.10353005E+02 -0.66159E+04
 0.10403006E+02 -0.66127E+04
 0.10453005E+02 -0.66220E+04
 0.10503005E+02 -0.66422E+04
 0.10553005E+02 -0.66523E+04
 0.10603005E+02 -0.66596E+04
 0.10653006E+02 -0.66753E+04
 0.10703005E+02 -0.66806E+04
 0.10753005E+02 -0.66905E+04
 0.10803005E+02 -0.67021E+04
 0.10853005E+02 -0.66991E+04
 0.10903006E+02 -0.66855E+04
 0.10953005E+02 -0.66604E+04
 0.11003005E+02 -0.66463E+04
 0.11053005E+02 -0.66465E+04
 0.11103005E+02 -0.66608E+04
 0.11153006E+02 -0.66829E+04
 0.11203005E+02 -0.67131E+04
 0.11253005E+02 -0.67401E+04
 0.11303005E+02 -0.67468E+04
 0.11353005E+02 -0.67295E+04
 0.11403006E+02 -0.67250E+04
 0.11453005E+02 -0.67144E+04
 0.11503005E+02 -0.67029E+04
 0.11553005E+02 -0.67129E+04
 0.11603005E+02 -0.67145E+04
 0.11653006E+02 -0.67169E+04
 0.11703005E+02 -0.67228E+04
 0.11753005E+02 -0.67109E+04
 0.11803005E+02 -0.66961E+04
 0.11853005E+02 -0.66909E+04
 0.11903006E+02 -0.66776E+04
 0.11953005E+02 -0.66747E+04
 0.12003005E+02 -0.66751E+04
 0.12053005E+02 -0.66665E+04
 0.12103005E+02 -0.66549E+04
 0.12153006E+02 -0.66387E+04
 0.12203005E+02 -0.66275E+04
 0.12253005E+02 -0.66326E+04
 0.12303005E+02 -0.66402E+04
 0.12353005E+02 -0.66428E+04
 0.12403006E+02 -0.66615E+04
 0.12453005E+02 -0.66698E+04
 0.12503005E+02 -0.66767E+04
 0.12553005E+02 -0.66876E+04
 0.12603005E+02 -0.66741E+04
 0.12653005E+02 -0.66516E+04
 0.12703005E+02 -0.66366E+04
 0.12753005E+02 -0.66329E+04
 0.12803005E+02 -0.66283E+04
 0.12853005E+02 -0.66267E+04
 0.12903005E+02 -0.66270E+04
 0.12953005E+02 -0.66320E+04
 0.13003005E+02 -0.66375E+04
 0.13053005E+02 -0.66474E+04
 0.13103005E+02 -0.66528E+04
 0.13153005E+02 -0.66691E+04
 0.13203005E+02 -0.66888E+04
 0.13253005E+02 -0.66981E+04
 0.13303005E+02 -0.67040E+04
 0.13353005E+02 -0.66931E+04
 0.13403005E+02 -0.66789E+04
 0.13453005E+02 -0.66696E+04
 0.13503005E+02 -0.66610E+04
 0.13553005E+02 -0.66613E+04
 0.13603005E+02 -0.66748E+04
 0.13653005E+02 -0.66913E+04
 0.13703005E+02 -0.67151E+04
 0.13753005E+02 -0.67226E+04
 0.13803005E+02 -0.67127E+04
 0.13853005E+02 -0.67135E+04
 0.13903005E+02 -0.67180E+04
 0.13953005E+02 -0.67277E+04
 0.14003005E+02 -0.67360E+04
 0.14053005E+02 -0.67468E+04
 0.14103004E+02 -0.67428E+04
 0.14153006E+02 -0.67148E+04
 0.14203005E+02 -0.66915E+04
 0.14253004E+02 -0.66716E+04
 0.14303005E+02 -0.66688E+04
 0.14353004E+02 -0.66812E+04
 0.14403006E+02 -0.66848E+04
 0.14453005E+02 -0.66791E+04
 0.14503004E+02 -0.66790E+04
 0.14553005E+02 -0.66661E+04
 0.14603004E+02 -0.66474E+04
 0.14653006E+02 -0.66434E+04
 0.14703005E+02 -0.66511E+04
 0.14753004E+02 -0.66689E+04
 0.14803005E+02 -0.66824E+04
 0.14853004E+02 -0.66955E+04
 0.14903006E+02 -0.66968E+04
 0.14953005E+02 -0.67027E+04
 0.15003004E+02 -0.67061E+04
 0.15053005E+02 -0.66887E+04
 0.15103004E+02 -0.66778E+04
 0.15153006E+02 -0.66729E+04
 0.15203005E+02 -0.66707E+04
 0.15253004E+02 -0.66591E+04
 0.15303005E+02 -0.66514E+04
 0.15353004E+02 -0.66572E+04
 0.15403006E+02 -0.66497E+04
 0.15453005E+02 -0.66485E+04
 0.15503004E+02 -0.66620E+04
 0.15553005E+02 -0.66718E+04
 0.15603004E+02 -0.66854E+04
 0.15653006E+02 -0.66829E+04
 0.15703005E+02 -0.66808E+04
 0.15753004E+02 -0.66792E+04
 0.15803005E+02 -0.66650E+04
 0.15853004E+02 -0.66488E+04
 0.15903006E+02 -0.66669E+04
 0.15953005E+02 -0.66929E+04
 0.16003004E+02 -0.67068E+04
 0.16053005E+02 -0.67085E+04
 0.16103004E+02 -0.66924E+04
 0.16153006E+02 -0.66964E+04
 0.16203005E+02 -0.66844E+04
 0.16253004E+02 -0.66803E+04
 0.16303005E+02 -0.66774E+04
 0.16353004E+02 -0.66839E+04
 0.16403006E+02 -0.66800E+04
 0.16453005E+02 -0.66486E+04
 0.16503004E+02 -0.66331E+04
 0.16553005E+02 -0.66094E+04
 0.16603004E+02 -0.65861E+04
 0.16653006E+02 -0.65964E+04
 0.16703005E+02 -0.66254E+04
 0.16753004E+02 -0.66421E+04
 0.16803005E+02 -0.66512E+04
 0.16853004E+02 -0.66757E+04
 0.16903006E+02 -0.67031E+04
 0.16953005E+02 -0.67259E+04
 0.17003004E+02 -0.67399E+04
 0.17053005E+02 -0.67386E+04
 0.17103004E+02 -0.67276E+04
 0.17153006E+02 -0.66967E+04
 0.17203005E+02 -0.66708E+04
 0.17253004E+02 -0.66594E+04
 0.17303005E+02 -0.66573E+04
 0.17353004E+02 -0.66660E+04
 0.17403006E+02 -0.66828E+04
 0.17453005E+02 -0.67019E+04
 0.17503004E+02 -0.67201E+04
 0.17553005E+02 -0.67286E+04
 0.17603004E+02 -0.67270E+04
 0.17653006E+02 -0.67242E+04
 0.17703005E+02 -0.67103E+04
 0.17753004E+02 -0.66909E+04
 0.17803005E+02 -0.66777E+04
 0.17853004E+02 -0.66609E+04
 0.17903006E+02 -0.66426E+04
 0.17953005E+02 -0.66427E+04
 0.18003004E+02 -0.66423E+04
 0.18053005E+02 -0.66457E+04
 0.18103004E+02 -0.66560E+04
 0.18153006E+02 -0.66682E+04
 0.18203005E+02 -0.66775E+04
 0.18253004E+02 -0.66830E+04
 0.18303005E+02 -0.66903E+04
 0.18353004E+02 -0.66827E+04
 0.18403006E+02 -0.66646E+04
 0.18453005E+02 -0.66492E+04
 0.18503004E+02 -0.66388E+04
 0.18553005E+02 -0.66200E+04
 0.18603004E+02 -0.66227E+04
 0.18653006E+02 -0.66475E+04
 0.18703005E+02 -0.66880E+04
 0.18753004E+02 -0.67240E+04
 0.18803005E+02 -0.67369E+04
 0.18853004E+02 -0.67342E+04
 0.18903006E+02 -0.67249E+04
 0.18953005E+02 -0.67059E+04
 0.19003004E+02 -0.66733E+04
 0.19053005E+02 -0.66551E+04
 0.19103004E+02 -0.66601E+04
 0.19153006E+02 -0.66660E+04
 0.19203005E+02 -0.66577E+04
 0.19253004E+02 -0.66613E+04
 0.19303005E+02 -0.66677E+04
 0.19353004E+02 -0.66754E+04
 0.19403006E+02 -0.66772E+04
 0.19453005E+02 -0.66797E+04
 0.19503004E+02 -0.66918E+04
 0.19553005E+02 -0.66905E+04
 0.19603004E+02 -0.66658E+04
 0.19653006E+02 -0.66447E+04
 0.19703005E+02 -0.66359E+04
 0.19753004E+02 -0.66301E+04
 0.19803005E+02 -0.66352E+04
 0.19853004E+02 -0.66475E+04
 0.19903006E+02 -0.66755E+04
 0.19953005E+02 -0.67003E+04
 0.20003004E+02 -0.67130E+04
 0.20053005E+02 -0.67187E+04
 0.20103004E+02 -0.67275E+04
 0.20153006E+02 -0.67247E+04
 0.20203005E+02 -0.67063E+04
 0.20253004E+02 -0.66969E+04
 0.20303005E+02 -0.66903E+04
 0.20353004E+02 -0.66786E+04
 0.20403004E+02 -0.66571E+04
 0.20453005E+02 -0.66474E+04
 0.20503004E+02 -0.66596E+04
 0.20553005E+02 -0.66553E+04
 0.20603004E+02 -0.66527E+04
 0.20653004E+02 -0.66702E+04
 0.20703005E+02 -0.66736E+04
 0.20753004E+02 -0.66729E+04
 0.20803005E+02 -0.66692E+04
 0.20853004E+02 -0.66759E+04
 0.20903004E+02 -0.66836E+04
 0.20953005E+02 -0.66808E+04
 0.21003004E+02 -0.66807E+04
 0.21053005E+02 -0.66827E+04
 0.21103004E+02 -0.66718E+04
 0.21153004E+02 -0.66478E+04
 0.21203005E+02 -0.66396E+04
 0.21253004E+02 -0.66416E+04
 0.21303005E+02 -0.66554E+04
 0.21353004E+02 -0.66737E+04
 0.21403004E+02 -0.66825E+04
 0.21453005E+02 -0.66877E+04
 0.21503004E+02 -0.66974E+04
 0.21553005E+02 -0.67035E+04
 0.21603004E+02 -0.67101E+04
 0.21653004E+02 -0.67099E+04
 0.21703005E+02 -0.66976E+04
 0.21753004E+02 -0.66918E+04
 0.21803005E+02 -0.66894E+04
 0.21853004E+02 -0.66868E+04
 0.21903004E+02 -0.66839E+04
 0.21953005E+02 -0.66818E+04
 0.22003004E+02 -0.66837E+04
 0.22053005E+02 -0.66929E+04
 0.22103004E+02 -0.66959E+04
 0.22153004E+02 -0.66979E+04
 0.22203005E+02 -0.67033E+04
 0.22253004E+02 -0.66946E+04
 0.22303005E+02 -0.66831E+04
 0.22353004E+02 -0.66689E+04
 0.22403004E+02 -0.66617E+04
 0.22453005E+02 -0.66643E+04
 0.22503004E+02 -0.66694E+04
 0.22553005E+02 -0.66811E+04
 0.22603004E+02 -0.66907E+04
 0.22653004E+02 -0.66967E+04
 0.22703005E+02 -0.66959E+04
 0.22753004E+02 -0.66823E+04
 0.22803005E+02 -0.66755E+04
 0.22853004E+02 -0.66729E+04
 0.22903004E+02 -0.66818E+04
 0.22953005E+02 -0.67015E+04
 0.23003004E+02 -0.67143E+04
 0.23053005E+02 -0.67255E+04
 0.23103004E+02 -0.67263E+04
 0.23153004E+02 -0.67241E+04
 0.23203005E+02 -0.67158E+04
 0.23253004E+02 -0.66921E+04
 0.23303005E+02 -0.66697E+04
 0.23353004E+02 -0.66567E+04
 0.23403004E+02 -0.66490E+04
 0.23453005E+02 -0.66432E+04
 0.23503004E+02 -0.66456E+04
 0.23553005E+02 -0.66512E+04
 0.23603004E+02 -0.66483E+04
 0.23653004E+02 -0.66455E+04
 0.23703005E+02 -0.66375E+04
 0.23753004E+02 -0.66420E+04
 0.23803005E+02 -0.66382E+04
 0.23853004E+02 -0.66299E+04
 0.23903004E+02 -0.66347E+04
 0.23953005E+02 -0.66481E+04
 0.24003004E+02 -0.66631E+04
 0.24053005E+02 -0.66811E+04
 0.24103004E+02 -0.67055E+04
 0.24153004E+02 -0.67277E+04
 0.24203005E+02 -0.67542E+04
 0.24253004E+02 -0.67511E+04
 0.24303005E+02 -0.67508E+04
 0.24353004E+02 -0.67574E+04
 0.24403004E+02 -0.67520E+04
 0.24453005E+02 -0.67531E+04
 0.24503004E+02 -0.67380E+04
 0.24553005E+02 -0.67246E+04
 0.24603004E+02 -0.67125E+04
 0.24653004E+02 -0.66933E+04
 0.24703005E+02 -0.66834E+04
 0.24753004E+02 -0.66598E+04
 0.24803005E+02 -0.66345E+04
 0.24853004E+02 -0.66153E+04
 0.24903004E+02 -0.66005E+04
 0.24953005E+02 -0.66033E+04
 0.25003004E+02 -0.66160E+04
 0.25053005E+02 -0.66282E+04
 0.25103004E+02 -0.66393E+04
 0.25153004E+02 -0.66458E+04
 0.25203005E+02 -0.66479E+04
 0.25253004E+02 -0.66532E+04
 0.25303005E+02 -0.66567E+04
 0.25353004E+02 -0.66507E+04
 0.25403004E+02 -0.66467E+04
 0.25453005E+02 -0.66551E+04
 0.25503004E+02 -0.66701E+04
 0.25553005E+02 -0.66841E+04
 0.25603004E+02 -0.66871E+04
 0.25653004E+02 -0.66912E+04
 0.25703005E+02 -0.67064E+04
 0.25753004E+02 -0.67110E+04
 0.25803005E+02 -0.67063E+04
 0.25853004E+02 -0.67011E+04
 0.25903004E+02 -0.66808E+04
 0.25953005E+02 -0.66625E+04
 0.26003004E+02 -0.66564E+04
 0.26053005E+02 -0.66499E+04
 0.26103004E+02 -0.66581E+04
 0.26153004E+02 -0.66704E+04
 0.26203005E+02 -0.66781E+04
 0.26253004E+02 -0.66798E+04
 0.26303005E+02 -0.66650E+04
 0.26353004E+02 -0.66525E+04
 0.26403004E+02 -0.66401E+04
 0.26453005E+02 -0.66410E+04
 0.26503004E+02 -0.66520E+04
 0.26553005E+02 -0.66620E+04
 0.26603004E+02 -0.66798E+04
 0.26653004E+02 -0.66832E+04
 0.26703005E+02 -0.66843E+04
 0.26753004E+02 -0.66745E+04
 0.26803005E+02 -0.66582E+04
 0.26853004E+02 -0.66625E+04
 0.26903004E+02 -0.66801E+04
 0.26953005E+02 -0.67058E+04
 0.27003004E+02 -0.67049E+04
 0.27053003E+02 -0.66670E+04
 0.27103004E+02 -0.66206E+04
 0.27153004E+02 -0.65620E+04
 0.27203005E+02 -0.65418E+04
 0.27253004E+02 -0.65923E+04
 0.27303003E+02 -0.67134E+04
 0.27353004E+02 -0.68171E+04
 0.27403004E+02 -0.68525E+04
 0.27453005E+02 -0.68763E+04
 0.27503004E+02 -0.68102E+04
 0.27553003E+02 -0.67081E+04
 0.27603004E+02 -0.67005E+04
 0.27653004E+02 -0.68156E+04
 0.27703005E+02 -0.68849E+04
 0.27753004E+02 -0.68263E+04
 0.27803003E+02 -0.66405E+04
 0.27853004E+02 -0.64084E+04
 0.27903004E+02 -0.62311E+04
 0.27953005E+02 -0.63733E+04
 0.28003004E+02 -0.68442E+04
 0.28053003E+02 -0.72839E+04
 0.28103004E+02 -0.73353E+04
 0.28153004E+02 -0.69345E+04
 0.28203005E+02 -0.65659E+04
 0.28253004E+02 -0.63398E+04
 0.28303003E+02 -0.61777E+04
 0.28353004E+02 -0.59211E+04
 0.28403004E+02 -0.60237E+04
 0.28453005E+02 -0.64793E+04
 0.28503004E+02 -0.66206E+04
 0.28553003E+02 -0.67373E+04
 0.28603004E+02 -0.69563E+04
 0.28653004E+02 -0.72220E+04
 0.28703005E+02 -0.76257E+04
 0.28753004E+02 -0.79026E+04
 0.28803003E+02 -0.80822E+04
 0.28853004E+02 -0.69382E+04
 0.28903004E+02 -0.54616E+04
 0.28953005E+02 -0.45589E+04
 0.29003004E+02 -0.42890E+04
 0.29053003E+02 -0.52124E+04
 0.29103004E+02 -0.60765E+04
 0.29153004E+02 -0.74457E+04
 0.29203005E+02 -0.82599E+04
 0.29253004E+02 -0.86584E+04
 0.29303003E+02 -0.88876E+04
 0.29353004E+02 -0.86707E+04
 0.29403004E+02 -0.86588E+04
 0.29453005E+02 -0.70842E+04
 0.29503004E+02 -0.55375E+04
 0.29553003E+02 -0.46004E+04
 0.29603004E+02 -0.31397E+04
 0.29653004E+02 -0.20999E+04
 0.29703005E+02 -0.25482E+04
 0.29753004E+02 -0.53439E+04
 0.29803003E+02 -0.82479E+04
 0.29853004E+02 -0.11585E+05
 0.29903004E+02 -0.13923E+05
 0.29953005E+02 -0.13200E+05
 0.30003004E+02 -0.94191E+04
 0.30053005E+02 -0.55788E+04
 0.30103004E+02 -0.46109E+04
 0.30153004E+02 -0.32254E+04
 0.30203003E+02 -0.11305E+04
 0.30253002E+02 -0.20930E+03
 0.30303005E+02 -0.23391E+04
 0.30353004E+02 -0.47398E+04
 0.30403004E+02 -0.57894E+04
 0.30453003E+02 -0.10171E+05
 0.30503002E+02 -0.14468E+05
 0.30553005E+02 -0.13811E+05
 0.30603004E+02 -0.10575E+05
 0.30653004E+02 -0.85940E+04
 0.30703003E+02 -0.87781E+04
 0.30753002E+02 -0.69018E+04
 0.30803005E+02 -0.39657E+04
 0.30853004E+02 -0.64384E+02
 0.30903004E+02  0.23772E+04
 0.30953003E+02  0.22241E+04
 0.31003002E+02 -0.21236E+04
 0.31053005E+02 -0.83776E+04
 0.31103004E+02 -0.12882E+05
 0.31153004E+02 -0.16423E+05
 0.31203003E+02 -0.12528E+05
 0.31253002E+02 -0.11279E+05
 0.31303005E+02 -0.11362E+05
 0.31353004E+02 -0.73910E+04
 0.31403004E+02 -0.63895E+04
 0.31453003E+02 -0.55484E+04
 0.31503002E+02 -0.85721E+03
 0.31553005E+02  0.43729E+04
 0.31603004E+02  0.15291E+04
 0.31653004E+02 -0.44482E+04
 0.31703003E+02 -0.58711E+04
 0.31753002E+02 -0.74711E+04
 0.31803005E+02 -0.13248E+05
 0.31853004E+02 -0.13723E+05
 0.31903004E+02 -0.93933E+04
 0.31953003E+02 -0.65432E+04
 0.32003002E+02 -0.84034E+04
 0.32053005E+02 -0.10709E+05
 0.32103004E+02 -0.63244E+04
 0.32153004E+02 -0.60004E+04
 0.32203003E+02 -0.82230E+04
 0.32253002E+02 -0.49970E+04
 0.32303005E+02  0.67709E+03
 0.32353004E+02 -0.14349E+04
 0.32403004E+02 -0.70133E+04
 0.32453003E+02 -0.52453E+04
 0.32503002E+02 -0.46839E+04
 0.32553005E+02 -0.91203E+04
 0.32603004E+02 -0.11655E+05
 0.32653004E+02 -0.95551E+04
 0.32703003E+02 -0.87347E+04
 0.32753002E+02 -0.93801E+04
 0.32803005E+02 -0.56720E+04
 0.32853004E+02 -0.31813E+04
 0.32903004E+02 -0.40891E+04
 0.32953003E+02 -0.52497E+04
 0.33003002E+02 -0.67557E+04
 0.33053005E+02 -0.64067E+04
 0.33103004E+02 -0.30361E+04
 0.33153004E+02 -0.25150E+04
 0.33203003E+02 -0.48455E+04
 0.33253002E+02 -0.89638E+04
 0.33303005E+02 -0.13389E+05
 0.33353004E+02 -0.13861E+05
 0.33403004E+02 -0.11610E+05
 0.33453003E+02 -0.90195E+04
 0.33503002E+02 -0.56446E+04
 0.33553005E+02 -0.15120E+04
 0.33603004E+02 -0.34509E+04
 0.33653004E+02 -0.28814E+04
 0.33703003E+02 -0.61487E+03
 0.33753002E+02 -0.63279E+04
 0.33803005E+02 -0.13012E+05
 0.33853004E+02 -0.12504E+05
 0.33903004E+02 -0.10090E+05
 0.33953003E+02 -0.49748E+04
 0.34003002E+02 -0.21341E+03
 0.34053005E+02 -0.23158E+04
 0.34103004E+02 -0.40949E+04
 0.34153004E+02 -0.57572E+04
 0.34203003E+02 -0.73756E+04
 0.34253002E+02 -0.10529E+05
 0.34303005E+02 -0.11929E+05
 0.34353004E+02 -0.10301E+05
 0.34403004E+02 -0.81333E+04
 0.34453003E+02 -0.61760E+04
 0.34503002E+02 -0.34499E+04
 0.34553005E+02 -0.26955E+04
 0.34603004E+02 -0.55902E+04
 0.34653004E+02 -0.86246E+04
 0.34703003E+02 -0.93400E+04
 0.34753002E+02 -0.70045E+04
 0.34803005E+02 -0.55988E+04
 0.34853004E+02 -0.61837E+04
 0.34903004E+02 -0.60385E+04
 0.34953003E+02 -0.43938E+04
 0.35003002E+02 -0.42946E+04
 0.35053005E+02 -0.54932E+04
 0.35103004E+02 -0.86485E+04
 0.35153004E+02 -0.10242E+05
 0.35203003E+02 -0.90211E+04
 0.35253002E+02 -0.81055E+04
 0.35303005E+02 -0.72066E+04
 0.35353004E+02 -0.51203E+04
 0.35403004E+02 -0.21019E+04
 0.35453003E+02 -0.24478E+04
 0.35503002E+02 -0.62395E+04
 0.35553005E+02 -0.52044E+04
 0.35603004E+02 -0.34329E+04
 0.35653004E+02 -0.98960E+04
 0.35703003E+02 -0.12913E+05
 0.35753002E+02 -0.10579E+05
 0.35803005E+02 -0.75608E+04
 0.35853004E+02 -0.86264E+04
 0.35903004E+02 -0.12043E+05
 0.35953003E+02 -0.84045E+04
 0.36003002E+02 -0.33766E+04
 0.36053005E+02 -0.13524E+04
 0.36103004E+02 -0.85966E+03
 0.36153004E+02  0.35700E+03
 0.36203003E+02 -0.15142E+04
 0.36253002E+02 -0.82687E+04
 0.36303005E+02 -0.13962E+05
 0.36353004E+02 -0.12468E+05
 0.36403004E+02 -0.90509E+04
 0.36453003E+02 -0.78398E+04
 0.36503002E+02 -0.56275E+04
 0.36553005E+02 -0.67879E+04
 0.36603004E+02 -0.74244E+04
 0.36653004E+02 -0.37567E+04
 0.36703003E+02 -0.17194E+04
 0.36753002E+02 -0.48262E+04
 0.36803005E+02 -0.84696E+04
 0.36853004E+02 -0.99276E+04
 0.36903004E+02 -0.78083E+04
 0.36953003E+02 -0.53396E+04
 0.37003002E+02 -0.88936E+04
 0.37053005E+02 -0.86069E+04
 0.37103004E+02 -0.39498E+04
 0.37153004E+02 -0.54501E+04
 0.37203003E+02 -0.85035E+04
 0.37253002E+02 -0.10751E+05
 0.37303005E+02 -0.11052E+05
 0.37353004E+02 -0.66074E+04
 0.37403004E+02 -0.33805E+04
 0.37453003E+02 -0.31512E+04
 0.37503002E+02 -0.32446E+04
 0.37553005E+02 -0.25733E+04
 0.37603004E+02 -0.33747E+04
 0.37653004E+02 -0.51792E+04
 0.37703003E+02 -0.81457E+04
 0.37753002E+02 -0.10697E+05
 0.37803005E+02 -0.85881E+04
 0.37853004E+02 -0.94804E+04
 0.37903004E+02 -0.11019E+05
 0.37953003E+02 -0.79104E+04
 0.38003002E+02 -0.72567E+04
 0.38053005E+02 -0.76861E+04
 0.38103004E+02 -0.42956E+04
 0.38153004E+02 -0.94666E+03
 0.38203003E+02 -0.31882E+04
 0.38253002E+02 -0.59242E+04
 0.38303005E+02 -0.61890E+04
 0.38353004E+02 -0.63335E+04
 0.38403004E+02 -0.75585E+04
 0.38453003E+02 -0.97096E+04
 0.38503002E+02 -0.10612E+05
 0.38553005E+02 -0.84153E+04
 0.38603004E+02 -0.62984E+04
 0.38653004E+02 -0.62722E+04
 0.38703003E+02 -0.61461E+04
 0.38753002E+02 -0.59041E+04
 0.38803005E+02 -0.44719E+04
 0.38853004E+02 -0.33174E+04
 0.38903004E+02 -0.45330E+04
 0.38953003E+02 -0.79387E+04
 0.39003002E+02 -0.74351E+04
 0.39053005E+02 -0.41214E+04
 0.39103004E+02 -0.62304E+04
 0.39153004E+02 -0.94698E+04
 0.39203003E+02 -0.11025E+05
 0.39253002E+02 -0.10897E+05
 0.39303005E+02 -0.78644E+04
 0.39353004E+02 -0.77345E+04
 0.39403004E+02 -0.81219E+04
 0.39453003E+02 -0.76485E+04
 0.39503002E+02 -0.49940E+04
 0.39553005E+02 -0.32489E+04
 0.39603004E+02 -0.38762E+04
 0.39653004E+02 -0.17990E+04
 0.39703003E+02 -0.34147E+04
 0.39753002E+02 -0.55032E+04
 0.39803005E+02 -0.44543E+04
 0.39853004E+02 -0.74694E+04
 0.39903004E+02 -0.12264E+05
 0.39953003E+02 -0.12086E+05
 0.40003002E+02 -0.84306E+04
 0.40053005E+02 -0.69721E+04
 0.40103004E+02 -0.92821E+04
 0.40153004E+02 -0.81303E+04
 0.40203003E+02 -0.47094E+04
 0.40253002E+02 -0.32782E+04
 0.40303005E+02 -0.27407E+04
 0.40353004E+02 -0.49245E+04
 0.40403004E+02 -0.68792E+04
 0.40453003E+02 -0.73164E+04
 0.40503002E+02 -0.78221E+04
 0.40553005E+02 -0.74661E+04
 0.40603004E+02 -0.83857E+04
 0.40653004E+02 -0.92377E+04
 0.40703003E+02 -0.78790E+04
 0.40753002E+02 -0.75978E+04
 0.40803005E+02 -0.75636E+04
 0.40853004E+02 -0.40613E+04
 0.40903004E+02 -0.12201E+04
 0.40953003E+02 -0.18254E+04
 0.41003002E+02 -0.53752E+04
 0.41053005E+02 -0.92407E+04
 0.41103004E+02 -0.10416E+05
 0.41153004E+02 -0.99137E+04
 0.41203003E+02 -0.74078E+04
 0.41253002E+02 -0.51763E+04
 0.41303005E+02 -0.51835E+04
 0.41353004E+02 -0.70842E+04
 0.41403004E+02 -0.59774E+04
 0.41453003E+02 -0.51867E+04
 0.41503002E+02 -0.72032E+04
 0.41553005E+02 -0.79539E+04
 0.41603004E+02 -0.88178E+04
 0.41653004E+02 -0.70709E+04
 0.41703003E+02 -0.50595E+04
 0.41753002E+02 -0.58659E+04
 0.41803005E+02 -0.81395E+04
 0.41853004E+02 -0.65701E+04
 0.41903004E+02 -0.43988E+04
 0.41953003E+02 -0.60503E+04
 0.42003002E+02 -0.69468E+04
 0.42053005E+02 -0.87017E+04
 0.42103004E+02 -0.91800E+04
 0.42153004E+02 -0.76821E+04
 0.42203003E+02 -0.59801E+04
 0.42253002E+02 -0.43340E+04
 0.42303005E+02 -0.48799E+04
 0.42353004E+02 -0.60550E+04
 0.42403004E+02 -0.55019E+04
 0.42453003E+02 -0.52460E+04
 0.42503002E+02 -0.74916E+04
 0.42553005E+02 -0.98334E+04
 0.42603004E+02 -0.10237E+05
 0.42653004E+02 -0.69565E+04
 0.42703003E+02 -0.32328E+04
 0.42753002E+02 -0.49425E+04
 0.42803001E+02 -0.63058E+04
 0.42853004E+02 -0.65197E+04
 0.42903004E+02 -0.72820E+04
 0.42953003E+02 -0.78189E+04
 0.43003002E+02 -0.95118E+04
 0.43053001E+02 -0.91829E+04
 0.43103004E+02 -0.70866E+04
 0.43153004E+02 -0.53529E+04
 0.43203003E+02 -0.40526E+04
 0.43253002E+02 -0.20123E+04
 0.43303001E+02 -0.40678E+03
 0.43353004E+02 -0.19720E+04
 0.43403004E+02 -0.70654E+04
 0.43453003E+02 -0.11563E+05
 0.43503002E+02 -0.13044E+05
 0.43553001E+02 -0.14003E+05
 0.43603004E+02 -0.12525E+05
 0.43653004E+02 -0.59835E+04
 0.43703003E+02 -0.24344E+04
 0.43753002E+02 -0.28701E+04
 0.43803001E+02 -0.26982E+04
 0.43853004E+02 -0.59894E+04
 0.43903004E+02 -0.75198E+04
 0.43953003E+02 -0.58392E+04
 0.44003002E+02 -0.62516E+04
 0.44053001E+02 -0.79067E+04
 0.44103004E+02 -0.91131E+04
 0.44153004E+02 -0.87164E+04
 0.44203003E+02 -0.77296E+04
 0.44253002E+02 -0.70414E+04
 0.44303001E+02 -0.60653E+04
 0.44353004E+02 -0.46829E+04
 0.44403004E+02 -0.44742E+04
 0.44453003E+02 -0.59366E+04
 0.44503002E+02 -0.66570E+04
 0.44553001E+02 -0.58952E+04
 0.44603004E+02 -0.64525E+04
 0.44653004E+02 -0.80387E+04
 0.44703003E+02 -0.89290E+04
 0.44753002E+02 -0.80531E+04
 0.44803001E+02 -0.70044E+04
 0.44853004E+02 -0.62656E+04
 0.44903004E+02 -0.54062E+04
 0.44953003E+02 -0.58549E+04
 0.45003002E+02 -0.56062E+04
 0.45053001E+02 -0.70323E+04
 0.45103004E+02 -0.82393E+04
 0.45153004E+02 -0.67445E+04
 0.45203003E+02 -0.58843E+04
 0.45253002E+02 -0.55710E+04
 0.45303001E+02 -0.65445E+04
 0.45353004E+02 -0.79831E+04
 0.45403004E+02 -0.88232E+04
 0.45453003E+02 -0.99261E+04
 0.45503002E+02 -0.84906E+04
 0.45553001E+02 -0.53126E+04
 0.45603004E+02 -0.31774E+04
 0.45653004E+02 -0.25875E+04
 0.45703003E+02 -0.44970E+04
 0.45753002E+02 -0.66519E+04
 0.45803001E+02 -0.84595E+04
 0.45853004E+02 -0.93249E+04
 0.45903004E+02 -0.77304E+04
 0.45953003E+02 -0.72312E+04
 0.46003002E+02 -0.78654E+04
 0.46053001E+02 -0.63143E+04
 0.46103004E+02 -0.54359E+04
 0.46153004E+02 -0.51339E+04
 0.46203003E+02 -0.41872E+04
 0.46253002E+02 -0.56351E+04
 0.46303001E+02 -0.75529E+04
 0.46353004E+02 -0.70514E+04
 0.46403004E+02 -0.68235E+04
 0.46453003E+02 -0.92273E+04
 0.46503002E+02 -0.11873E+05
 0.46553001E+02 -0.10669E+05
 0.46603004E+02 -0.72599E+04
 0.46653004E+02 -0.51112E+04
 0.46703003E+02 -0.36936E+04
 0.46753002E+02 -0.30642E+04
 0.46803001E+02 -0.34442E+04
 0.46853004E+02 -0.47827E+04
 0.46903004E+02 -0.54872E+04
 0.46953003E+02 -0.49131E+04
 0.47003002E+02 -0.52286E+04
 0.47053001E+02 -0.62481E+04
 0.47103004E+02 -0.79112E+04
 0.47153004E+02 -0.94876E+04
 0.47203003E+02 -0.89240E+04
 0.47253002E+02 -0.66838E+04
 0.47303001E+02 -0.46719E+04
 0.47353004E+02 -0.43131E+04
 0.47403004E+02 -0.49644E+04
 0.47453003E+02 -0.59533E+04
 0.47503002E+02 -0.91909E+04
 0.47553001E+02 -0.13105E+05
 0.47603004E+02 -0.13395E+05
 0.47653004E+02 -0.11295E+05
 0.47703003E+02 -0.79650E+04
 0.47753002E+02 -0.40184E+04
 0.47803001E+02 -0.82827E+03
 0.47853004E+02  0.19059E+03
 0.47903004E+02 -0.18323E+04
 0.47953003E+02 -0.46909E+04
 0.48003002E+02 -0.90577E+04
 0.48053001E+02 -0.12147E+05
 0.48103004E+02 -0.10496E+05
 0.48153004E+02 -0.72834E+04
 0.48203003E+02 -0.34963E+04
 0.48253002E+02 -0.12942E+04
 0.48303001E+02 -0.35821E+04
 0.48353004E+02 -0.89933E+04
 0.48403004E+02 -0.13241E+05
 0.48453003E+02 -0.10133E+05
 0.48503002E+02 -0.44443E+04
 0.48553001E+02 -0.11722E+04
 0.48603004E+02  0.73095E+03
 0.48653004E+02  0.65328E+03
 0.48703003E+02 -0.11584E+04
 0.48753002E+02 -0.58781E+04
 0.48803001E+02 -0.12491E+05
 0.48853004E+02 -0.16554E+05
 0.48903004E+02 -0.16591E+05
 0.48953003E+02 -0.15393E+05
 0.49003002E+02 -0.13899E+05
 0.49053001E+02 -0.11924E+05
 0.49103004E+02 -0.92194E+04
 0.49153004E+02 -0.38289E+04
 0.49203003E+02  0.36768E+04
 0.49253002E+02  0.77556E+04
 0.49303001E+02  0.74162E+04
 0.49353004E+02  0.14161E+04
 0.49403004E+02 -0.74246E+04
 0.49453003E+02 -0.15381E+05
 0.49503002E+02 -0.19471E+05
 0.49553001E+02 -0.18235E+05
 0.49603004E+02 -0.14066E+05
 0.49653004E+02 -0.48485E+04
 0.49703003E+02  0.52229E+04
 0.49753002E+02  0.53583E+04
 0.49803001E+02 -0.40360E+04
 0.49853004E+02 -0.98932E+04
 0.49903004E+02 -0.89524E+04
 0.49953003E+02 -0.90599E+04
 0.50003002E+02 -0.11638E+05
 0.50053001E+02 -0.10671E+05
 0.50103004E+02 -0.59923E+04
 0.50153004E+02 -0.20374E+04
 0.50203003E+02 -0.27313E+04
 0.50253002E+02 -0.85349E+04
 0.50303001E+02 -0.17020E+05
 0.50353004E+02 -0.20126E+05
 0.50403004E+02 -0.16165E+05
 0.50453003E+02 -0.63159E+04
 0.50503002E+02  0.64782E+04
 0.50553001E+02  0.91261E+04
 0.50603004E+02 -0.14656E+04
 0.50653004E+02 -0.12744E+05
 0.50703003E+02 -0.13814E+05
 0.50753002E+02 -0.10106E+05
 0.50803001E+02 -0.72986E+04
 0.50853004E+02 -0.54656E+04
 0.50903004E+02 -0.17197E+04
 0.50953003E+02  0.42278E+04
 0.51003002E+02  0.51848E+04
 0.51053001E+02 -0.17129E+04
 0.51103004E+02 -0.11718E+05
 0.51153004E+02 -0.15658E+05
 0.51203003E+02 -0.14095E+05
 0.51253002E+02 -0.11786E+05
 0.51303001E+02 -0.67699E+04
 0.51353004E+02 -0.36116E+04
 0.51403004E+02 -0.66330E+04
 0.51453003E+02 -0.86150E+04
 0.51503002E+02 -0.60899E+04
 0.51553001E+02 -0.59597E+04
 0.51603004E+02 -0.73379E+04
 0.51653004E+02 -0.60675E+04
 0.51703003E+02 -0.71612E+03
 0.51753002E+02  0.25115E+04
 0.51803001E+02 -0.93106E+03
 0.51853004E+02 -0.42716E+04
 0.51903004E+02 -0.90209E+04
 0.51953003E+02 -0.13084E+05
 0.52003002E+02 -0.12241E+05
 0.52053001E+02 -0.73591E+04
 0.52103004E+02 -0.44759E+04
 0.52153004E+02 -0.38132E+04
 0.52203003E+02 -0.22939E+04
 0.52253002E+02 -0.52943E+04
 0.52303001E+02 -0.12335E+05
 0.52353004E+02 -0.17387E+05
 0.52403004E+02 -0.15672E+05
 0.52453003E+02 -0.84720E+04
 0.52503002E+02  0.21828E+04
 0.52553001E+02  0.52111E+04
 0.52603004E+02 -0.33321E+04
 0.52653004E+02 -0.10245E+05
 0.52703003E+02 -0.10840E+05
 0.52753002E+02 -0.78461E+04
 0.52803001E+02 -0.46903E+04
 0.52853004E+02 -0.57385E+04
 0.52903004E+02 -0.44192E+04
 0.52953003E+02  0.13172E+03
 0.53003002E+02 -0.39360E+04
 0.53053001E+02 -0.13552E+05
 0.53103004E+02 -0.18610E+05
 0.53153004E+02 -0.18889E+05
 0.53203003E+02 -0.16436E+05
 0.53253002E+02 -0.72973E+04
 0.53303001E+02  0.58117E+04
 0.53353004E+02  0.11927E+05
 0.53403004E+02  0.82642E+04
 0.53453003E+02 -0.26350E+03
 0.53503002E+02 -0.84166E+04
 0.53553001E+02 -0.11182E+05
 0.53603004E+02 -0.14582E+05
 0.53653004E+02 -0.18505E+05
 0.53703003E+02 -0.18241E+05
 0.53753002E+02 -0.15250E+05
 0.53803001E+02 -0.87026E+04
 0.53853004E+02 -0.34513E+04
 0.53903004E+02 -0.47161E+04
 0.53953003E+02 -0.97081E+04
 0.54003002E+02 -0.10037E+05
 0.54053001E+02 -0.81525E+04
 0.54103004E+02 -0.52687E+04
 0.54153004E+02  0.11073E+04
 0.54203003E+02  0.86661E+04
 0.54253002E+02  0.11854E+05
 0.54303001E+02  0.59328E+04
 0.54353004E+02 -0.57575E+04
 0.54403004E+02 -0.15413E+05
 0.54453003E+02 -0.15411E+05
 0.54503002E+02 -0.11785E+05
 0.54553001E+02 -0.11673E+05
 0.54603004E+02 -0.12325E+05
 0.54653004E+02 -0.10862E+05
 0.54703003E+02 -0.10345E+05
 0.54753002E+02 -0.11197E+05
 0.54803001E+02 -0.55455E+04
 0.54853004E+02  0.24410E+04
 0.54903004E+02  0.53384E+04
 0.54953003E+02  0.24253E+04
 0.55003002E+02 -0.56325E+04
 0.55053001E+02 -0.13070E+05
 0.55103004E+02 -0.16373E+05
 0.55153004E+02 -0.19662E+05
 0.55203003E+02 -0.19976E+05
 0.55253002E+02 -0.11509E+05
 0.55303001E+02  0.58190E+02
 0.55353004E+02  0.81898E+04
 0.55403004E+02  0.69026E+04
 0.55453003E+02 -0.14334E+04
 0.55503002E+02 -0.85116E+04
 0.55553001E+02 -0.88199E+04
 0.55603004E+02 -0.44935E+04
 0.55653004E+02 -0.21846E+04
 0.55703003E+02 -0.48862E+04
 0.55753002E+02 -0.12469E+05
 0.55803001E+02 -0.18419E+05
 0.55853001E+02 -0.18808E+05
 0.55903004E+02 -0.17755E+05
 0.55953003E+02 -0.14454E+05
 0.56003002E+02 -0.78166E+04
 0.56053001E+02 -0.45509E+03
 0.56103001E+02  0.77930E+04
 0.56153004E+02  0.69375E+04
 0.56203003E+02 -0.46444E+04
 0.56253002E+02 -0.14521E+05
 0.56303001E+02 -0.18180E+05
 0.56353001E+02 -0.16784E+05
 0.56403004E+02 -0.11336E+05
 0.56453003E+02 -0.69091E+04
 0.56503002E+02 -0.18725E+04
 0.56553001E+02  0.46012E+04
 0.56603001E+02  0.86268E+04
 0.56653004E+02  0.88239E+04
 0.56703003E+02  0.46145E+04
 0.56753002E+02 -0.42040E+04
 0.56803001E+02 -0.16591E+05
 0.56853001E+02 -0.23175E+05
 0.56903004E+02 -0.21076E+05
 0.56953003E+02 -0.15314E+05
 0.57003002E+02 -0.10204E+05
 0.57053001E+02 -0.59213E+04
 0.57103001E+02 -0.22853E+04
 0.57153004E+02 -0.11483E+04
 0.57203003E+02 -0.33376E+04
 0.57253002E+02 -0.65773E+04
 0.57303001E+02 -0.10615E+05
 0.57353001E+02 -0.16202E+05
 0.57403004E+02 -0.19219E+05
 0.57453003E+02 -0.14933E+05
 0.57503002E+02 -0.80846E+04
 0.57553001E+02 -0.20882E+04
 0.57603001E+02  0.49023E+04
 0.57653004E+02  0.85793E+04
 0.57703003E+02  0.67646E+04
 0.57753002E+02  0.14925E+04
 0.57803001E+02 -0.24356E+04
 0.57853001E+02 -0.71426E+04
 0.57903004E+02 -0.13257E+05
 0.57953003E+02 -0.14470E+05
 0.58003002E+02 -0.11668E+05
 0.58053001E+02 -0.87291E+04
 0.58103001E+02 -0.61507E+04
 0.58153004E+02 -0.35639E+04
 0.58203003E+02 -0.33592E+04
 0.58253002E+02 -0.60683E+04
 0.58303001E+02 -0.10287E+05
 0.58353001E+02 -0.12749E+05
 0.58403004E+02 -0.10686E+05
 0.58453003E+02 -0.63608E+04
 0.58503002E+02 -0.15228E+04
 0.58553001E+02  0.75664E+03
 0.58603001E+02 -0.58875E+02
 0.58653004E+02 -0.21760E+04
 0.58703003E+02 -0.51116E+04
 0.58753002E+02 -0.82705E+04
 0.58803001E+02 -0.11464E+05
 0.58853001E+02 -0.13429E+05
 0.58903004E+02 -0.13647E+05
 0.58953003E+02 -0.12333E+05
 0.59003002E+02 -0.10722E+05
 0.59053001E+02 -0.87015E+04
 0.59103001E+02 -0.60113E+04
 0.59153004E+02 -0.31883E+04
 0.59203003E+02  0.14882E+03
 0.59253002E+02  0.91954E+03
 0.59303001E+02 -0.62876E+04
 0.59353001E+02 -0.15456E+05
 0.59403004E+02 -0.16087E+05
 0.59453003E+02 -0.87035E+04
 0.59503002E+02 -0.41548E+03
 0.59553001E+02  0.42867E+04
 0.59603001E+02  0.53766E+04
 0.59653004E+02  0.24436E+04
 0.59703003E+02 -0.23749E+04
 0.59753002E+02 -0.68286E+04
 0.59803001E+02 -0.77403E+04
 0.59853001E+02 -0.60805E+04
 0.59903004E+02 -0.77773E+04
 0.59953003E+02 -0.11476E+05
 0.60003002E+02 -0.12486E+05
 0.60053001E+02 -0.11160E+05
 0.60103001E+02 -0.92099E+04
 0.60153004E+02 -0.65520E+04
 0.60203003E+02 -0.61750E+04
 0.60253002E+02 -0.54837E+04
 0.60303001E+02 -0.50253E+03
 0.60353001E+02  0.17468E+04
 0.60403004E+02 -0.29022E+04
 0.60453003E+02 -0.84886E+04
 0.60503002E+02 -0.10915E+05
 0.60553001E+02 -0.12070E+05
 0.60603001E+02 -0.13867E+05
 0.60653004E+02 -0.13779E+05
 0.60703003E+02 -0.10990E+05
 0.60753002E+02 -0.90329E+04
 0.60803001E+02 -0.72691E+04
 0.60853001E+02 -0.52714E+04
 0.60903004E+02 -0.53017E+04
 0.60953003E+02 -0.73064E+04
 0.61003002E+02 -0.84744E+04
 0.61053001E+02 -0.60994E+04
 0.61103001E+02 -0.19806E+04
 0.61153004E+02  0.82370E+03
 0.61203003E+02  0.20191E+03
 0.61253002E+02 -0.23749E+04
 0.61303001E+02 -0.55416E+04
 0.61353001E+02 -0.10119E+05
 0.61403004E+02 -0.14168E+05
 0.61453003E+02 -0.15555E+05
 0.61503002E+02 -0.14029E+05
 0.61553001E+02 -0.10274E+05
 0.61603001E+02 -0.40973E+04
 0.61653004E+02  0.14130E+04
 0.61703003E+02  0.26456E+04
 0.61753002E+02 -0.50187E+03
 0.61803001E+02 -0.47228E+04
 0.61853001E+02 -0.74212E+04
 0.61903004E+02 -0.94124E+04
 0.61953003E+02 -0.11523E+05
 0.62003002E+02 -0.11945E+05
 0.62053001E+02 -0.76049E+04
 0.62103004E+02 -0.54325E+04
 0.62153000E+02 -0.68360E+04
 0.62203003E+02 -0.88839E+04
 0.62252998E+02 -0.11272E+05
 0.62303001E+02 -0.11966E+05
 0.62353004E+02 -0.10743E+05
 0.62403000E+02 -0.59421E+04
 0.62453003E+02 -0.30852E+03
 0.62502998E+02  0.10238E+04
 0.62553001E+02 -0.28415E+04
 0.62603004E+02 -0.65677E+04
 0.62653000E+02 -0.90275E+04
 0.62703003E+02 -0.99173E+04
 0.62752998E+02 -0.92161E+04
 0.62803001E+02 -0.92053E+04
 0.62853004E+02 -0.88818E+04
 0.62903000E+02 -0.81630E+04
 0.62953003E+02 -0.71607E+04
 0.63002998E+02 -0.50527E+04
 0.63053001E+02 -0.18689E+04
 0.63103004E+02  0.10078E+04
 0.63153000E+02 -0.16969E+03
 0.63203003E+02 -0.61904E+04
 0.63252998E+02 -0.12427E+05
 0.63303001E+02 -0.15402E+05
 0.63353004E+02 -0.13054E+05
 0.63403000E+02 -0.90817E+04
 0.63453003E+02 -0.49268E+04
 0.63502998E+02 -0.90959E+03
 0.63553001E+02  0.51920E+03
 0.63603004E+02 -0.82604E+03
 0.63653000E+02 -0.36844E+04
 0.63703003E+02 -0.56485E+04
 0.63752998E+02 -0.68737E+04
 0.63803001E+02 -0.86782E+04
 0.63853004E+02 -0.11276E+05
 0.63903000E+02 -0.11078E+05
 0.63953003E+02 -0.84238E+04
 0.64002998E+02 -0.66147E+04
 0.64053001E+02 -0.53893E+04
 0.64103004E+02 -0.50799E+04
 0.64153000E+02 -0.57843E+04
 0.64203003E+02 -0.71483E+04
 0.64252998E+02 -0.89997E+04
 0.64303001E+02 -0.83356E+04
 0.64353004E+02 -0.53395E+04
 0.64403000E+02 -0.27774E+04
 0.64453003E+02 -0.15231E+04
 0.64502998E+02 -0.15842E+04
 0.64553001E+02 -0.41442E+04
 0.64603004E+02 -0.10333E+05
 0.64653000E+02 -0.17599E+05
 0.64703003E+02 -0.21653E+05
 0.64752998E+02 -0.18702E+05
 0.64803001E+02 -0.11958E+05
 0.64853004E+02 -0.56780E+04
 0.64903000E+02 -0.24305E+03
 0.64953003E+02  0.48100E+04
 0.65002998E+02  0.82853E+04
 0.65053001E+02  0.73910E+04
 0.65103004E+02  0.20233E+04
 0.65153000E+02 -0.57003E+04
 0.65203003E+02 -0.12859E+05
 0.65252998E+02 -0.16831E+05
 0.65303001E+02 -0.16364E+05
 0.65353004E+02 -0.13589E+05
 0.65403000E+02 -0.10781E+05
 0.65453003E+02 -0.70458E+04
 0.65502998E+02 -0.10096E+04
 0.65553001E+02  0.29775E+04
 0.65603004E+02  0.10899E+04
 0.65653000E+02 -0.42121E+04
 0.65703003E+02 -0.98300E+04
 0.65752998E+02 -0.12959E+05
 0.65803001E+02 -0.13490E+05
 0.65853004E+02 -0.12681E+05
 0.65903000E+02 -0.10475E+05
 0.65953003E+02 -0.77092E+04
 0.66002998E+02 -0.56030E+04
 0.66053001E+02 -0.40308E+04
 0.66103004E+02 -0.27138E+04
 0.66153000E+02 -0.14917E+04
 0.66203003E+02 -0.22951E+04
 0.66252998E+02 -0.45883E+04
 0.66303001E+02 -0.58186E+04
 0.66353004E+02 -0.78807E+04
 0.66403000E+02 -0.98524E+04
 0.66453003E+02 -0.91016E+04
 0.66502998E+02 -0.64784E+04
 0.66553001E+02 -0.41579E+04
 0.66603004E+02 -0.30208E+04
 0.66653000E+02 -0.32514E+04
 0.66703003E+02 -0.48468E+04
 0.66752998E+02 -0.76837E+04
 0.66803001E+02 -0.92535E+04
 0.66853004E+02 -0.82672E+04
 0.66903000E+02 -0.76430E+04
 0.66953003E+02 -0.92437E+04
 0.67002998E+02 -0.10826E+05
 0.67053001E+02 -0.87785E+04
 0.67103004E+02 -0.49075E+04
 0.67153000E+02 -0.31917E+04
 0.67203003E+02 -0.29417E+04
 0.67252998E+02 -0.17912E+04
 0.67303001E+02 -0.82408E+03
 0.67353004E+02 -0.22680E+04
 0.67403000E+02 -0.59174E+04
 0.67453003E+02 -0.96007E+04
 0.67502998E+02 -0.12060E+05
 0.67553001E+02 -0.12157E+05
 0.67603004E+02 -0.10512E+05
 0.67653000E+02 -0.86191E+04
 0.67703003E+02 -0.68143E+04
 0.67752998E+02 -0.49702E+04
 0.67803001E+02 -0.45578E+04
 0.67853004E+02 -0.73087E+04
 0.67903000E+02 -0.10407E+05
 0.67953003E+02 -0.11437E+05
 0.68002998E+02 -0.10665E+05
 0.68053001E+02 -0.90714E+04
 0.68103004E+02 -0.58719E+04
 0.68153000E+02 -0.20008E+04
 0.68203003E+02 -0.99613E+03
 0.68252998E+02 -0.34530E+04
 0.68303001E+02 -0.70523E+04
 0.68353004E+02 -0.90415E+04
 0.68403000E+02 -0.94214E+04
 0.68453003E+02 -0.91523E+04
 0.68502998E+02 -0.91404E+04
 0.68553001E+02 -0.85979E+04
 0.68603004E+02 -0.67854E+04
 0.68653000E+02 -0.51374E+04
 0.68703003E+02 -0.47943E+04
 0.68752998E+02 -0.51249E+04
 0.68803001E+02 -0.53786E+04
 0.68853004E+02 -0.57141E+04
 0.68903000E+02 -0.59628E+04
 0.68953003E+02 -0.71577E+04
 0.69002998E+02 -0.87861E+04
 0.69053001E+02 -0.86782E+04
 0.69103004E+02 -0.65292E+04
 0.69153000E+02 -0.39185E+04
 0.69203003E+02 -0.33826E+04
 0.69252998E+02 -0.48440E+04
 0.69303001E+02 -0.56269E+04
 0.69353004E+02 -0.57602E+04
 0.69403000E+02 -0.65623E+04
 0.69453003E+02 -0.74175E+04
 0.69502998E+02 -0.74263E+04
 0.69553001E+02 -0.63142E+04
 0.69603004E+02 -0.43470E+04
 0.69653000E+02 -0.31056E+04
 0.69703003E+02 -0.51916E+04
 0.69752998E+02 -0.98433E+04
 0.69803001E+02 -0.12538E+05
 0.69853004E+02 -0.13215E+05
 0.69903000E+02 -0.13127E+05
 0.69953003E+02 -0.11671E+05
 0.70002998E+02 -0.94724E+04
 0.70053001E+02 -0.67846E+04
 0.70103004E+02 -0.41336E+04
 0.70153000E+02 -0.24554E+04
 0.70203003E+02 -0.16871E+04
 0.70252998E+02 -0.17906E+04
 0.70303001E+02 -0.31036E+04
 0.70353004E+02 -0.48603E+04
 0.70403000E+02 -0.65147E+04
 0.70453003E+02 -0.80218E+04
 0.70502998E+02 -0.89300E+04
 0.70553001E+02 -0.89313E+04
 0.70603004E+02 -0.80036E+04
 0.70653000E+02 -0.68079E+04
 0.70703003E+02 -0.61740E+04
 0.70752998E+02 -0.61699E+04
 0.70803001E+02 -0.55013E+04
 0.70853004E+02 -0.43232E+04
 0.70903000E+02 -0.42654E+04
 0.70953003E+02 -0.47095E+04
 0.71002998E+02 -0.52049E+04
 0.71053001E+02 -0.60783E+04
 0.71103004E+02 -0.72366E+04
 0.71153000E+02 -0.75672E+04
 0.71203003E+02 -0.68851E+04
 0.71252998E+02 -0.55520E+04
 0.71303001E+02 -0.45664E+04
 0.71353004E+02 -0.50803E+04
 0.71403000E+02 -0.62157E+04
 0.71453003E+02 -0.66902E+04
 0.71502998E+02 -0.67423E+04
 0.71553001E+02 -0.78723E+04
 0.71603004E+02 -0.93136E+04
 0.71653000E+02 -0.95128E+04
 0.71703003E+02 -0.87081E+04
 0.71752998E+02 -0.80681E+04
 0.71803001E+02 -0.74275E+04
 0.71853004E+02 -0.64074E+04
 0.71903000E+02 -0.59175E+04
 0.71953003E+02 -0.61084E+04
 0.72002998E+02 -0.64856E+04
 0.72053001E+02 -0.70950E+04
 0.72103004E+02 -0.75299E+04
 0.72153000E+02 -0.79187E+04
 0.72203003E+02 -0.86034E+04
 0.72252998E+02 -0.97282E+04
 0.72303001E+02 -0.10916E+05
 0.72353004E+02 -0.10544E+05
 0.72403000E+02 -0.73413E+04
 0.72453003E+02 -0.25731E+04
 0.72502998E+02  0.60786E+03
 0.72553001E+02  0.11008E+04
 0.72603004E+02 -0.30228E+03
 0.72653000E+02 -0.19512E+04
 0.72703003E+02 -0.40341E+04
 0.72752998E+02 -0.75913E+04
 0.72803001E+02 -0.11630E+05
 0.72853004E+02 -0.14035E+05
 0.72903000E+02 -0.13183E+05
 0.72953003E+02 -0.10001E+05
 0.73002998E+02 -0.67069E+04
 0.73053001E+02 -0.48441E+04
 0.73103004E+02 -0.43619E+04
 0.73153000E+02 -0.49636E+04
 0.73203003E+02 -0.66319E+04
 0.73252998E+02 -0.82476E+04
 0.73303001E+02 -0.88485E+04
 0.73353004E+02 -0.84159E+04
 0.73403000E+02 -0.79171E+04
 0.73453003E+02 -0.77293E+04
 0.73502998E+02 -0.78097E+04
 0.73553001E+02 -0.84467E+04
 0.73603004E+02 -0.92256E+04
 0.73653000E+02 -0.93640E+04
 0.73703003E+02 -0.77696E+04
 0.73752998E+02 -0.50111E+04
 0.73803001E+02 -0.24532E+04
 0.73853004E+02 -0.15796E+04
 0.73903000E+02 -0.26006E+04
 0.73953003E+02 -0.45958E+04
 0.74002998E+02 -0.69152E+04
 0.74053001E+02 -0.89835E+04
 0.74103004E+02 -0.10781E+05
 0.74153000E+02 -0.11580E+05
 0.74203003E+02 -0.11254E+05
 0.74252998E+02 -0.96533E+04
 0.74303001E+02 -0.70828E+04
 0.74353004E+02 -0.45265E+04
 0.74403000E+02 -0.22976E+04
 0.74453003E+02 -0.82155E+03
 0.74502998E+02 -0.20217E+03
 0.74553001E+02 -0.14790E+04
 0.74603004E+02 -0.47702E+04
 0.74653000E+02 -0.85675E+04
 0.74703003E+02 -0.11000E+05
 0.74752998E+02 -0.11042E+05
 0.74803001E+02 -0.91629E+04
 0.74853004E+02 -0.63420E+04
 0.74903000E+02 -0.34464E+04
 0.74953003E+02 -0.13691E+04
 0.75002998E+02 -0.10556E+04
 0.75053001E+02 -0.24519E+04
 0.75103004E+02 -0.53349E+04
 0.75153000E+02 -0.83610E+04
 0.75203003E+02 -0.10417E+05
 0.75252998E+02 -0.11585E+05
 0.75303001E+02 -0.11761E+05
 0.75353004E+02 -0.10714E+05
 0.75403000E+02 -0.94913E+04
 0.75453003E+02 -0.81945E+04
 0.75502998E+02 -0.63827E+04
 0.75553001E+02 -0.54123E+04
 0.75603004E+02 -0.56882E+04
 0.75653000E+02 -0.69368E+04
 0.75703003E+02 -0.83846E+04
 0.75752998E+02 -0.85667E+04
 0.75803001E+02 -0.71825E+04
 0.75853004E+02 -0.49782E+04
 0.75903000E+02 -0.32791E+04
 0.75953003E+02 -0.32219E+04
 0.76002998E+02 -0.45855E+04
 0.76053001E+02 -0.67174E+04
 0.76103004E+02 -0.89698E+04
 0.76153000E+02 -0.10003E+05
 0.76203003E+02 -0.92472E+04
 0.76252998E+02 -0.75157E+04
 0.76303001E+02 -0.52591E+04
 0.76353004E+02 -0.30593E+04
 0.76403000E+02 -0.16627E+04
 0.76453003E+02 -0.17194E+04
 0.76502998E+02 -0.33122E+04
 0.76553001E+02 -0.52704E+04
 0.76603004E+02 -0.66038E+04
 0.76653000E+02 -0.80877E+04
 0.76703003E+02 -0.10234E+05
 0.76752998E+02 -0.11851E+05
 0.76803001E+02 -0.11918E+05
 0.76853004E+02 -0.10704E+05
 0.76903000E+02 -0.90195E+04
 0.76953003E+02 -0.67076E+04
 0.77002998E+02 -0.35722E+04
 0.77053001E+02 -0.67809E+03
 0.77103004E+02  0.55692E+02
 0.77153000E+02 -0.20252E+04
 0.77203003E+02 -0.53879E+04
 0.77252998E+02 -0.82299E+04
 0.77303001E+02 -0.95913E+04
 0.77353004E+02 -0.92652E+04
 0.77403000E+02 -0.77397E+04
 0.77453003E+02 -0.62950E+04
 0.77502998E+02 -0.60322E+04
 0.77553001E+02 -0.68331E+04
 0.77603004E+02 -0.87069E+04
 0.77653000E+02 -0.10670E+05
 0.77703003E+02 -0.11687E+05
 0.77752998E+02 -0.11906E+05
 0.77803001E+02 -0.11230E+05
 0.77853004E+02 -0.91121E+04
 0.77903000E+02 -0.56216E+04
 0.77953003E+02 -0.20348E+04
 0.78002998E+02  0.88271E+03
 0.78053001E+02  0.20906E+04
 0.78103004E+02  0.84803E+03
 0.78153000E+02 -0.27628E+04
 0.78203003E+02 -0.72259E+04
 0.78252998E+02 -0.10611E+05
 0.78303001E+02 -0.12317E+05
 0.78353004E+02 -0.12261E+05
 0.78403000E+02 -0.11109E+05
 0.78453003E+02 -0.92526E+04
 0.78502998E+02 -0.72429E+04
 0.78553001E+02 -0.56230E+04
 0.78603004E+02 -0.45526E+04
 0.78653000E+02 -0.41248E+04
 0.78703003E+02 -0.45891E+04
 0.78752998E+02 -0.55804E+04
 0.78803001E+02 -0.65424E+04
 0.78853004E+02 -0.74473E+04
 0.78903000E+02 -0.77598E+04
 0.78953003E+02 -0.77000E+04
 0.79002998E+02 -0.77698E+04
 0.79053001E+02 -0.73195E+04
 0.79103004E+02 -0.58887E+04
 0.79153000E+02 -0.44958E+04
 0.79203003E+02 -0.38128E+04
 0.79252998E+02 -0.39758E+04
 0.79303001E+02 -0.50080E+04
 0.79353004E+02 -0.69127E+04
 0.79403000E+02 -0.89292E+04
 0.79453003E+02 -0.98163E+04
 0.79502998E+02 -0.91375E+04
 0.79553001E+02 -0.76989E+04
 0.79603004E+02 -0.68976E+04
 0.79653000E+02 -0.62535E+04
 0.79703003E+02 -0.51439E+04
 0.79752998E+02 -0.46782E+04
 0.79803001E+02 -0.58851E+04
 0.79853004E+02 -0.79098E+04
 0.79903000E+02 -0.89537E+04
 0.79953003E+02 -0.82300E+04
 0.80002998E+02 -0.65057E+04
 0.80053001E+02 -0.49231E+04
 0.80103004E+02 -0.38982E+04
 0.80153000E+02 -0.36373E+04
 0.80203003E+02 -0.38987E+04
 0.80252998E+02 -0.43283E+04
 0.80303001E+02 -0.54902E+04
 0.80353004E+02 -0.72573E+04
 0.80403000E+02 -0.84128E+04
 0.80453003E+02 -0.82013E+04
 0.80502998E+02 -0.65806E+04
 0.80553001E+02 -0.49566E+04
 0.80603004E+02 -0.51765E+04
 0.80653000E+02 -0.68436E+04
 0.80703003E+02 -0.88320E+04
 0.80752998E+02 -0.10464E+05
 0.80803001E+02 -0.11208E+05
 0.80853004E+02 -0.11441E+05
 0.80903000E+02 -0.10883E+05
 0.80953003E+02 -0.88286E+04
 0.81002998E+02 -0.58089E+04
 0.81053001E+02 -0.29211E+04
 0.81103004E+02 -0.10953E+04
 0.81153000E+02 -0.89769E+03
 0.81203003E+02 -0.24818E+04
 0.81252998E+02 -0.56061E+04
 0.81303001E+02 -0.88919E+04
 0.81353004E+02 -0.10989E+05
 0.81403000E+02 -0.11188E+05
 0.81453003E+02 -0.94611E+04
 0.81502998E+02 -0.73583E+04
 0.81553001E+02 -0.62716E+04
 0.81603004E+02 -0.64884E+04
 0.81653000E+02 -0.66230E+04
 0.81703003E+02 -0.59538E+04
 0.81752998E+02 -0.51786E+04
 0.81803001E+02 -0.42215E+04
 0.81853004E+02 -0.37688E+04
 0.81903000E+02 -0.46228E+04
 0.81953003E+02 -0.65711E+04
 0.82002998E+02 -0.84245E+04
 0.82053001E+02 -0.89375E+04
 0.82103004E+02 -0.84400E+04
 0.82153000E+02 -0.75127E+04
 0.82203003E+02 -0.65764E+04
 0.82252998E+02 -0.64976E+04
 0.82303001E+02 -0.75143E+04
 0.82353004E+02 -0.90956E+04
 0.82403000E+02 -0.97670E+04
 0.82453003E+02 -0.82198E+04
 0.82502998E+02 -0.57290E+04
 0.82553001E+02 -0.37043E+04
 0.82603004E+02 -0.25195E+04
 0.82653000E+02 -0.22191E+04
 0.82703003E+02 -0.30577E+04
 0.82752998E+02 -0.47617E+04
 0.82803001E+02 -0.64925E+04
 0.82853004E+02 -0.84635E+04
 0.82903000E+02 -0.10010E+05
 0.82953003E+02 -0.10029E+05
 0.83002998E+02 -0.85677E+04
 0.83053001E+02 -0.63270E+04
 0.83103004E+02 -0.40946E+04
 0.83153000E+02 -0.32809E+04
 0.83203003E+02 -0.42758E+04
 0.83252998E+02 -0.59130E+04
 0.83303001E+02 -0.75395E+04
 0.83353004E+02 -0.87383E+04
 0.83403000E+02 -0.88603E+04
 0.83453003E+02 -0.82867E+04
 0.83502998E+02 -0.75523E+04
 0.83553001E+02 -0.71174E+04
 0.83603004E+02 -0.76663E+04
 0.83653000E+02 -0.83664E+04
 0.83703003E+02 -0.83810E+04
 0.83752998E+02 -0.76501E+04
 0.83803001E+02 -0.64112E+04
 0.83853004E+02 -0.50875E+04
 0.83903000E+02 -0.42384E+04
 0.83953003E+02 -0.43909E+04
 0.84002998E+02 -0.50226E+04
 0.84053001E+02 -0.50296E+04
 0.84103004E+02 -0.50406E+04
 0.84153000E+02 -0.60924E+04
 0.84203003E+02 -0.80117E+04
 0.84252998E+02 -0.99381E+04
 0.84303001E+02 -0.10861E+05
 0.84353004E+02 -0.10733E+05
 0.84403000E+02 -0.94948E+04
 0.84453003E+02 -0.70525E+04
 0.84502998E+02 -0.41116E+04
 0.84553001E+02 -0.18446E+04
 0.84603004E+02 -0.12268E+04
 0.84653000E+02 -0.25394E+04
 0.84703003E+02 -0.52551E+04
 0.84752998E+02 -0.81612E+04
 0.84803001E+02 -0.10323E+05
 0.84853004E+02 -0.11234E+05
 0.84903000E+02 -0.10491E+05
 0.84953003E+02 -0.88137E+04
 0.85002998E+02 -0.71993E+04
 0.85053001E+02 -0.58840E+04
 0.85103004E+02 -0.45229E+04
 0.85153000E+02 -0.34996E+04
 0.85203003E+02 -0.35546E+04
 0.85252998E+02 -0.48528E+04
 0.85303001E+02 -0.65507E+04
 0.85353004E+02 -0.75281E+04
 0.85403000E+02 -0.79011E+04
 0.85453003E+02 -0.80485E+04
 0.85502998E+02 -0.82528E+04
 0.85553001E+02 -0.83612E+04
 0.85603004E+02 -0.81889E+04
 0.85653000E+02 -0.77442E+04
 0.85703003E+02 -0.70760E+04
 0.85752998E+02 -0.63517E+04
 0.85803001E+02 -0.57610E+04
 0.85853004E+02 -0.51033E+04
 0.85903000E+02 -0.43474E+04
 0.85953003E+02 -0.38405E+04
 0.86002998E+02 -0.37156E+04
 0.86053001E+02 -0.41453E+04
 0.86103004E+02 -0.54920E+04
 0.86153000E+02 -0.75269E+04
 0.86203003E+02 -0.93199E+04
 0.86252998E+02 -0.10136E+05
 0.86303001E+02 -0.95937E+04
 0.86353004E+02 -0.80033E+04
 0.86403000E+02 -0.61115E+04
 0.86453003E+02 -0.49663E+04
 0.86502998E+02 -0.50735E+04
 0.86553001E+02 -0.60803E+04
 0.86603004E+02 -0.72066E+04
 0.86653000E+02 -0.78519E+04
 0.86703003E+02 -0.77477E+04
 0.86752998E+02 -0.72613E+04
 0.86803001E+02 -0.65476E+04
 0.86853004E+02 -0.57325E+04
 0.86903000E+02 -0.56636E+04
 0.86953003E+02 -0.64068E+04
 0.87002998E+02 -0.71961E+04
 0.87053001E+02 -0.77450E+04
 0.87103004E+02 -0.83561E+04
 0.87153000E+02 -0.86289E+04
 0.87203003E+02 -0.83272E+04
 0.87252998E+02 -0.76273E+04
 0.87303001E+02 -0.64210E+04
 0.87353004E+02 -0.46776E+04
 0.87403000E+02 -0.33283E+04
 0.87453003E+02 -0.29498E+04
 0.87502998E+02 -0.34078E+04
 0.87553001E+02 -0.45700E+04
 0.87602997E+02 -0.59586E+04
 0.87653000E+02 -0.70887E+04
 0.87703003E+02 -0.80087E+04
 0.87752998E+02 -0.88045E+04
 0.87803001E+02 -0.93951E+04
 0.87852997E+02 -0.95863E+04
 0.87903000E+02 -0.92021E+04
 0.87953003E+02 -0.85815E+04
 0.88002998E+02 -0.78616E+04
 0.88053001E+02 -0.69498E+04
 0.88102997E+02 -0.60405E+04
 0.88153000E+02 -0.54254E+04
 0.88203003E+02 -0.54656E+04
 0.88252998E+02 -0.58707E+04
 0.88303001E+02 -0.61246E+04
 0.88352997E+02 -0.62640E+04
 0.88403000E+02 -0.67033E+04
 0.88453003E+02 -0.74176E+04
 0.88502998E+02 -0.78996E+04
 0.88553001E+02 -0.79812E+04
 0.88602997E+02 -0.74600E+04
 0.88653000E+02 -0.64234E+04
 0.88703003E+02 -0.54609E+04
 0.88752998E+02 -0.49561E+04
 0.88803001E+02 -0.45995E+04
 0.88852997E+02 -0.45430E+04
 0.88903000E+02 -0.53327E+04
 0.88953003E+02 -0.68500E+04
 0.89002998E+02 -0.83538E+04
 0.89053001E+02 -0.90379E+04
 0.89102997E+02 -0.86880E+04
 0.89153000E+02 -0.76620E+04
 0.89203003E+02 -0.65066E+04
 0.89252998E+02 -0.53696E+04
 0.89303001E+02 -0.40665E+04
 0.89352997E+02 -0.31828E+04
 0.89403000E+02 -0.32831E+04
 0.89453003E+02 -0.44028E+04
 0.89502998E+02 -0.61824E+04
 0.89553001E+02 -0.78770E+04
 0.89602997E+02 -0.90072E+04
 0.89653000E+02 -0.95047E+04
 0.89703003E+02 -0.94733E+04
 0.89752998E+02 -0.89155E+04
 0.89803001E+02 -0.80052E+04
 0.89852997E+02 -0.70464E+04
 0.89903000E+02 -0.61344E+04
 0.89953003E+02 -0.56459E+04
 0.90002998E+02 -0.57309E+04
 0.90053001E+02 -0.59308E+04
 0.90102997E+02 -0.58276E+04
 0.90153000E+02 -0.57869E+04
 0.90203003E+02 -0.62419E+04
 0.90252998E+02 -0.68503E+04
 0.90303001E+02 -0.74952E+04
 0.90352997E+02 -0.79467E+04
 0.90403000E+02 -0.78518E+04
 0.90453003E+02 -0.75125E+04
 0.90502998E+02 -0.69543E+04
 0.90553001E+02 -0.58438E+04
 0.90602997E+02 -0.47740E+04
 0.90653000E+02 -0.44802E+04
 0.90703003E+02 -0.51536E+04
 0.90752998E+02 -0.63337E+04
 0.90803001E+02 -0.73267E+04
 0.90852997E+02 -0.76306E+04
 0.90903000E+02 -0.73198E+04
 0.90953003E+02 -0.71750E+04
 0.91002998E+02 -0.76604E+04
 0.91053001E+02 -0.81957E+04
 0.91102997E+02 -0.80805E+04
 0.91153000E+02 -0.73604E+04
 0.91203003E+02 -0.65238E+04
 0.91252998E+02 -0.58489E+04
 0.91303001E+02 -0.53421E+04
 0.91352997E+02 -0.51715E+04
 0.91403000E+02 -0.54933E+04
 0.91453003E+02 -0.63255E+04
 0.91502998E+02 -0.71146E+04
 0.91553001E+02 -0.74026E+04
 0.91602997E+02 -0.74661E+04
 0.91653000E+02 -0.76061E+04
 0.91703003E+02 -0.77361E+04
 0.91752998E+02 -0.78785E+04
 0.91803001E+02 -0.77676E+04
 0.91852997E+02 -0.70026E+04
 0.91903000E+02 -0.61856E+04
 0.91953003E+02 -0.61293E+04
 0.92002998E+02 -0.65307E+04
 0.92053001E+02 -0.67328E+04
 0.92102997E+02 -0.68742E+04
 0.92153000E+02 -0.70967E+04
 0.92203003E+02 -0.71428E+04
 0.92252998E+02 -0.70147E+04
 0.92303001E+02 -0.68691E+04
 0.92352997E+02 -0.66645E+04
 0.92403000E+02 -0.61936E+04
 0.92453003E+02 -0.57085E+04
 0.92502998E+02 -0.55036E+04
 0.92553001E+02 -0.56383E+04
 0.92602997E+02 -0.58056E+04
 0.92653000E+02 -0.60014E+04
 0.92703003E+02 -0.64373E+04
 0.92752998E+02 -0.70375E+04
 0.92803001E+02 -0.74235E+04
 0.92852997E+02 -0.71196E+04
 0.92903000E+02 -0.63174E+04
 0.92953003E+02 -0.59274E+04
 0.93002998E+02 -0.63077E+04
 0.93053001E+02 -0.68840E+04
 0.93102997E+02 -0.70322E+04
 0.93153000E+02 -0.66760E+04
 0.93203003E+02 -0.65067E+04
 0.93252998E+02 -0.65503E+04
 0.93303001E+02 -0.65539E+04
 0.93352997E+02 -0.65739E+04
 0.93403000E+02 -0.65611E+04
 0.93453003E+02 -0.63477E+04
 0.93502998E+02 -0.60149E+04
 0.93553001E+02 -0.58929E+04
 0.93602997E+02 -0.61249E+04
 0.93653000E+02 -0.63045E+04
 0.93703003E+02 -0.62839E+04
 0.93752998E+02 -0.63623E+04
 0.93803001E+02 -0.67234E+04
 0.93852997E+02 -0.72886E+04
 0.93903000E+02 -0.76916E+04
 0.93953003E+02 -0.76167E+04
 0.94002998E+02 -0.72939E+04
 0.94053001E+02 -0.69436E+04
 0.94102997E+02 -0.67399E+04
 0.94153000E+02 -0.67537E+04
 0.94203003E+02 -0.65540E+04
 0.94252998E+02 -0.63814E+04
 0.94303001E+02 -0.66114E+04
 0.94352997E+02 -0.69028E+04
 0.94403000E+02 -0.70016E+04
 0.94453003E+02 -0.69425E+04
 0.94502998E+02 -0.68838E+04
 0.94553001E+02 -0.69778E+04
 0.94602997E+02 -0.70107E+04
 0.94653000E+02 -0.68098E+04
 0.94703003E+02 -0.64345E+04
 0.94752998E+02 -0.61750E+04
 0.94803001E+02 -0.61092E+04
 0.94852997E+02 -0.60729E+04
 0.94903000E+02 -0.61678E+04
 0.94953003E+02 -0.64113E+04
 0.95002998E+02 -0.67619E+04
 0.95053001E+02 -0.72155E+04
 0.95102997E+02 -0.77375E+04
 0.95153000E+02 -0.81436E+04
 0.95203003E+02 -0.80784E+04
 0.95252998E+02 -0.75837E+04
 0.95303001E+02 -0.72322E+04
 0.95352997E+02 -0.69718E+04
 0.95403000E+02 -0.64367E+04
 0.95453003E+02 -0.56472E+04
 0.95502998E+02 -0.48830E+04
 0.95553001E+02 -0.47872E+04
 0.95602997E+02 -0.53128E+04
 0.95653000E+02 -0.58830E+04
 0.95703003E+02 -0.61798E+04
 0.95752998E+02 -0.65168E+04
 0.95803001E+02 -0.69684E+04
 0.95852997E+02 -0.74401E+04
 0.95903000E+02 -0.79018E+04
 0.95953003E+02 -0.82555E+04
 0.96002998E+02 -0.83883E+04
 0.96053001E+02 -0.80529E+04
 0.96102997E+02 -0.73081E+04
 0.96153000E+02 -0.63530E+04
 0.96203003E+02 -0.55917E+04
 0.96252998E+02 -0.52269E+04
 0.96303001E+02 -0.50622E+04
 0.96352997E+02 -0.50160E+04
 0.96403000E+02 -0.53096E+04
 0.96453003E+02 -0.59044E+04
 0.96502998E+02 -0.67618E+04
 0.96553001E+02 -0.77551E+04
 0.96602997E+02 -0.83088E+04
 0.96653000E+02 -0.81215E+04
 0.96703003E+02 -0.73388E+04
 0.96752998E+02 -0.64798E+04
 0.96803001E+02 -0.61454E+04
 0.96852997E+02 -0.62774E+04
 0.96903000E+02 -0.65944E+04
 0.96953003E+02 -0.69567E+04
 0.97002998E+02 -0.70497E+04
 0.97053001E+02 -0.67192E+04
 0.97102997E+02 -0.61506E+04
 0.97153000E+02 -0.57921E+04
 0.97203003E+02 -0.61647E+04
 0.97252998E+02 -0.71901E+04
 0.97303001E+02 -0.82595E+04
 0.97352997E+02 -0.84778E+04
 0.97403000E+02 -0.77121E+04
 0.97453003E+02 -0.65224E+04
 0.97502998E+02 -0.54756E+04
 0.97553001E+02 -0.50656E+04
 0.97602997E+02 -0.54901E+04
 0.97653000E+02 -0.64800E+04
 0.97703003E+02 -0.74578E+04
 0.97752998E+02 -0.79039E+04
 0.97803001E+02 -0.75805E+04
 0.97852997E+02 -0.68814E+04
 0.97903000E+02 -0.61240E+04
 0.97953003E+02 -0.57357E+04
 0.98002998E+02 -0.58006E+04
