-0.20000000E+01  0.39061E+04
-0.19500000E+01  0.39309E+04
-0.19000000E+01  0.40045E+04
-0.18500000E+01  0.40289E+04
-0.18000000E+01  0.40503E+04
-0.17500000E+01  0.40610E+04
-0.17000000E+01  0.40661E+04
-0.16500001E+01  0.40450E+04
-0.16000000E+01  0.40193E+04
-0.15500000E+01  0.40261E+04
-0.15000000E+01  0.40126E+04
-0.14500000E+01  0.40186E+04
-0.14000001E+01  0.40338E+04
-0.13500000E+01  0.40776E+04
-0.13000001E+01  0.41041E+04
-0.12500000E+01  0.41018E+04
-0.12000000E+01  0.41008E+04
-0.11500001E+01  0.40806E+04
-0.11000000E+01  0.40622E+04
-0.10500001E+01  0.40318E+04
-0.10000000E+01  0.40042E+04
-0.95000005E+00  0.39906E+04
-0.90000010E+00  0.40021E+04
-0.85000002E+00  0.40231E+04
-0.80000007E+00  0.40309E+04
-0.75000012E+00  0.40159E+04
-0.70000005E+00  0.39935E+04
-0.65000010E+00  0.39602E+04
-0.60000014E+00  0.39454E+04
-0.55000007E+00  0.39399E+04
-0.50000012E+00  0.39253E+04
-0.45000005E+00  0.39012E+04
-0.40000010E+00  0.38689E+04
-0.35000014E+00  0.38509E+04
-0.30000007E+00  0.38231E+04
-0.25000012E+00  0.38148E+04
-0.20000005E+00  0.37927E+04
-0.15000010E+00  0.37648E+04
-0.10000014E+00  0.37518E+04
-0.50000072E-01  0.37315E+04
-0.11920929E-06  0.37119E+04
 0.49999952E-01  0.37178E+04
 0.99999905E-01  0.37499E+04
 0.14999986E+00  0.37995E+04
 0.19999981E+00  0.38629E+04
 0.24999976E+00  0.39098E+04
 0.29999995E+00  0.39579E+04
 0.34999990E+00  0.40010E+04
 0.39999986E+00  0.40225E+04
 0.44999981E+00  0.40237E+04
 0.49999976E+00  0.40207E+04
 0.54999995E+00  0.40201E+04
 0.59999990E+00  0.40223E+04
 0.64999986E+00  0.40235E+04
 0.69999981E+00  0.40225E+04
 0.74999976E+00  0.40090E+04
 0.79999971E+00  0.39805E+04
 0.84999990E+00  0.39425E+04
 0.89999986E+00  0.39002E+04
 0.94999981E+00  0.39060E+04
 0.99999976E+00  0.39194E+04
 0.10499997E+01  0.39437E+04
 0.10999999E+01  0.39793E+04
 0.11499999E+01  0.40132E+04
 0.11999998E+01  0.40373E+04
 0.12499998E+01  0.40452E+04
 0.12999997E+01  0.40558E+04
 0.13499999E+01  0.40418E+04
 0.13999999E+01  0.40404E+04
 0.14499998E+01  0.40291E+04
 0.14999998E+01  0.40122E+04
 0.15499997E+01  0.40055E+04
 0.15999999E+01  0.40056E+04
 0.16499999E+01  0.40096E+04
 0.16999998E+01  0.39844E+04
 0.17499998E+01  0.39602E+04
 0.17999997E+01  0.39125E+04
 0.18499997E+01  0.38539E+04
 0.18999999E+01  0.37979E+04
 0.19499998E+01  0.37516E+04
 0.19999998E+01  0.37161E+04
 0.20499997E+01  0.36969E+04
 0.20999999E+01  0.36981E+04
 0.21499996E+01  0.37226E+04
 0.21999998E+01  0.37504E+04
 0.22499995E+01  0.37775E+04
 0.22999997E+01  0.38279E+04
 0.23499999E+01  0.38891E+04
 0.23999996E+01  0.39665E+04
 0.24499998E+01  0.40186E+04
 0.24999995E+01  0.40850E+04
 0.25499997E+01  0.41318E+04
 0.25999999E+01  0.41788E+04
 0.26499996E+01  0.42163E+04
 0.26999998E+01  0.42478E+04
 0.27499995E+01  0.42594E+04
 0.27999997E+01  0.42413E+04
 0.28499999E+01  0.42108E+04
 0.28999996E+01  0.41381E+04
 0.29499998E+01  0.40815E+04
 0.29999995E+01  0.40038E+04
 0.30499997E+01  0.39535E+04
 0.30999999E+01  0.38958E+04
 0.31499996E+01  0.38311E+04
 0.31999998E+01  0.37785E+04
 0.32499995E+01  0.37427E+04
 0.32999997E+01  0.37335E+04
 0.33499999E+01  0.37237E+04
 0.33999996E+01  0.37531E+04
 0.34499998E+01  0.37697E+04
 0.34999995E+01  0.37964E+04
 0.35499997E+01  0.38129E+04
 0.35999994E+01  0.37982E+04
 0.36499996E+01  0.37975E+04
 0.36999998E+01  0.38010E+04
 0.37499995E+01  0.38211E+04
 0.37999997E+01  0.38438E+04
 0.38499994E+01  0.38977E+04
 0.38999996E+01  0.39755E+04
 0.39499998E+01  0.40562E+04
 0.39999995E+01  0.41350E+04
 0.40499997E+01  0.42176E+04
 0.40999994E+01  0.42722E+04
 0.41499996E+01  0.42797E+04
 0.41999998E+01  0.42717E+04
 0.42499995E+01  0.42437E+04
 0.42999997E+01  0.42137E+04
 0.43499994E+01  0.41744E+04
 0.43999996E+01  0.41471E+04
 0.44499998E+01  0.41279E+04
 0.44999995E+01  0.41100E+04
 0.45499997E+01  0.40621E+04
 0.45999994E+01  0.40151E+04
 0.46499996E+01  0.39771E+04
 0.46999998E+01  0.39377E+04
 0.47499995E+01  0.38971E+04
 0.47999997E+01  0.38497E+04
 0.48499994E+01  0.38155E+04
 0.48999996E+01  0.37623E+04
 0.49499998E+01  0.37169E+04
 0.49999995E+01  0.36822E+04
 0.50499997E+01  0.36613E+04
 0.50999994E+01  0.36382E+04
 0.51499996E+01  0.36400E+04
 0.51999998E+01  0.36348E+04
 0.52499995E+01  0.36476E+04
 0.52999997E+01  0.36722E+04
 0.53499994E+01  0.36778E+04
 0.53999996E+01  0.37212E+04
 0.54499993E+01  0.37586E+04
 0.54999995E+01  0.38100E+04
 0.55499997E+01  0.38595E+04
 0.55999994E+01  0.39068E+04
 0.56499996E+01  0.39506E+04
 0.56999993E+01  0.39920E+04
 0.57499995E+01  0.40292E+04
 0.57999997E+01  0.40633E+04
 0.58499994E+01  0.40919E+04
 0.58999996E+01  0.41291E+04
 0.59499993E+01  0.41723E+04
 0.59999995E+01  0.41948E+04
 0.60499992E+01  0.42002E+04
 0.60999994E+01  0.41810E+04
 0.61499996E+01  0.41741E+04
 0.61999998E+01  0.41476E+04
 0.62499990E+01  0.41245E+04
 0.62999992E+01  0.41040E+04
 0.63499994E+01  0.40700E+04
 0.63999996E+01  0.40601E+04
 0.64499998E+01  0.40543E+04
 0.64999990E+01  0.40386E+04
 0.65499992E+01  0.40209E+04
 0.65999994E+01  0.39962E+04
 0.66499996E+01  0.39679E+04
 0.66999998E+01  0.39478E+04
 0.67499990E+01  0.39165E+04
 0.67999992E+01  0.38926E+04
 0.68499994E+01  0.38741E+04
 0.68999996E+01  0.38719E+04
 0.69499998E+01  0.38771E+04
 0.69999990E+01  0.38597E+04
 0.70499992E+01  0.38477E+04
 0.70999994E+01  0.38513E+04
 0.71499996E+01  0.38559E+04
 0.71999998E+01  0.38512E+04
 0.72499990E+01  0.38444E+04
 0.72999992E+01  0.38237E+04
 0.73499994E+01  0.37982E+04
 0.73999996E+01  0.37634E+04
 0.74499998E+01  0.37434E+04
 0.74999990E+01  0.37519E+04
 0.75499992E+01  0.37804E+04
 0.75999994E+01  0.38237E+04
 0.76499996E+01  0.38568E+04
 0.76999998E+01  0.39067E+04
 0.77499990E+01  0.39650E+04
 0.77999992E+01  0.40296E+04
 0.78499994E+01  0.40957E+04
 0.78999996E+01  0.41503E+04
 0.79499998E+01  0.41918E+04
 0.79999990E+01  0.42080E+04
 0.80499992E+01  0.42089E+04
 0.80999994E+01  0.41958E+04
 0.81499996E+01  0.41733E+04
 0.81999998E+01  0.41498E+04
 0.82499990E+01  0.41026E+04
 0.82999992E+01  0.40437E+04
 0.83499994E+01  0.40044E+04
 0.83999996E+01  0.39669E+04
 0.84499998E+01  0.39319E+04
 0.84999990E+01  0.38784E+04
 0.85499992E+01  0.38272E+04
 0.85999994E+01  0.38004E+04
 0.86499996E+01  0.37895E+04
 0.86999998E+01  0.37926E+04
 0.87499990E+01  0.37914E+04
 0.87999992E+01  0.38013E+04
 0.88499994E+01  0.38054E+04
 0.88999996E+01  0.38135E+04
 0.89499998E+01  0.38254E+04
 0.89999990E+01  0.38402E+04
 0.90499992E+01  0.38781E+04
 0.90999994E+01  0.39064E+04
 0.91499996E+01  0.39237E+04
 0.91999989E+01  0.39351E+04
 0.92499990E+01  0.39622E+04
 0.92999992E+01  0.39929E+04
 0.93499994E+01  0.40271E+04
 0.93999996E+01  0.40693E+04
 0.94499989E+01  0.41022E+04
 0.94999990E+01  0.41313E+04
 0.95499992E+01  0.41399E+04
 0.95999994E+01  0.41372E+04
 0.96499996E+01  0.41329E+04
 0.96999989E+01  0.41094E+04
 0.97499990E+01  0.40682E+04
 0.97999992E+01  0.40231E+04
 0.98499994E+01  0.39799E+04
 0.98999996E+01  0.39562E+04
 0.99499989E+01  0.39187E+04
 0.99999990E+01  0.38879E+04
 0.10049999E+02  0.38547E+04
 0.10099999E+02  0.38121E+04
 0.10150000E+02  0.37748E+04
 0.10199999E+02  0.37393E+04
 0.10249999E+02  0.37246E+04
 0.10299999E+02  0.37048E+04
 0.10349999E+02  0.37003E+04
 0.10400000E+02  0.37076E+04
 0.10449999E+02  0.37186E+04
 0.10499999E+02  0.37369E+04
 0.10549999E+02  0.37809E+04
 0.10599999E+02  0.38477E+04
 0.10650000E+02  0.39181E+04
 0.10699999E+02  0.39908E+04
 0.10749999E+02  0.40413E+04
 0.10799999E+02  0.40766E+04
 0.10849999E+02  0.41064E+04
 0.10900000E+02  0.41240E+04
 0.10949999E+02  0.41493E+04
 0.10999999E+02  0.41873E+04
 0.11049999E+02  0.41868E+04
 0.11099999E+02  0.41665E+04
 0.11150000E+02  0.41354E+04
 0.11199999E+02  0.41080E+04
 0.11249999E+02  0.40943E+04
 0.11299999E+02  0.40793E+04
 0.11349999E+02  0.40814E+04
 0.11400000E+02  0.40605E+04
 0.11449999E+02  0.40191E+04
 0.11499999E+02  0.39639E+04
 0.11549999E+02  0.39060E+04
 0.11599999E+02  0.38537E+04
 0.11650000E+02  0.38103E+04
 0.11699999E+02  0.37828E+04
 0.11749999E+02  0.37569E+04
 0.11799999E+02  0.37561E+04
 0.11849999E+02  0.37685E+04
 0.11900000E+02  0.37962E+04
 0.11949999E+02  0.38260E+04
 0.11999999E+02  0.38543E+04
 0.12049999E+02  0.38706E+04
 0.12099999E+02  0.38884E+04
 0.12150000E+02  0.39006E+04
 0.12199999E+02  0.38796E+04
 0.12249999E+02  0.39003E+04
 0.12299999E+02  0.39089E+04
 0.12349999E+02  0.39024E+04
 0.12400000E+02  0.39018E+04
 0.12449999E+02  0.38987E+04
 0.12499999E+02  0.39076E+04
 0.12549999E+02  0.39281E+04
 0.12599999E+02  0.39733E+04
 0.12649999E+02  0.40247E+04
 0.12699999E+02  0.40686E+04
 0.12749999E+02  0.40813E+04
 0.12799999E+02  0.40903E+04
 0.12849999E+02  0.40958E+04
 0.12899999E+02  0.40950E+04
 0.12949999E+02  0.40865E+04
 0.12999999E+02  0.40774E+04
 0.13049999E+02  0.40326E+04
 0.13099999E+02  0.39786E+04
 0.13149999E+02  0.39402E+04
 0.13199999E+02  0.39082E+04
 0.13249999E+02  0.38933E+04
 0.13299999E+02  0.38745E+04
 0.13349999E+02  0.38768E+04
 0.13399999E+02  0.38858E+04
 0.13449999E+02  0.38807E+04
 0.13499999E+02  0.38728E+04
 0.13549999E+02  0.38801E+04
 0.13599999E+02  0.38795E+04
 0.13649999E+02  0.38813E+04
 0.13699999E+02  0.39079E+04
 0.13749999E+02  0.39491E+04
 0.13799999E+02  0.39863E+04
 0.13849999E+02  0.40245E+04
 0.13899999E+02  0.40573E+04
 0.13949999E+02  0.40767E+04
 0.13999999E+02  0.40860E+04
 0.14049999E+02  0.40683E+04
 0.14099998E+02  0.40509E+04
 0.14150000E+02  0.40371E+04
 0.14199999E+02  0.40346E+04
 0.14249998E+02  0.40227E+04
 0.14299999E+02  0.40033E+04
 0.14349998E+02  0.39912E+04
 0.14400000E+02  0.39689E+04
 0.14449999E+02  0.39607E+04
 0.14499998E+02  0.39523E+04
 0.14549999E+02  0.39424E+04
 0.14599998E+02  0.39269E+04
 0.14650000E+02  0.39387E+04
 0.14699999E+02  0.39499E+04
 0.14749998E+02  0.39361E+04
 0.14799999E+02  0.39341E+04
 0.14849998E+02  0.39233E+04
 0.14900000E+02  0.39092E+04
 0.14949999E+02  0.38920E+04
 0.14999998E+02  0.38684E+04
 0.15049999E+02  0.38388E+04
 0.15099998E+02  0.38095E+04
 0.15150000E+02  0.37781E+04
 0.15199999E+02  0.37535E+04
 0.15249998E+02  0.37362E+04
 0.15299999E+02  0.37135E+04
 0.15349998E+02  0.37032E+04
 0.15400000E+02  0.36937E+04
 0.15449999E+02  0.37160E+04
 0.15499998E+02  0.37590E+04
 0.15549999E+02  0.38001E+04
 0.15599998E+02  0.38507E+04
 0.15650000E+02  0.39014E+04
 0.15699999E+02  0.39798E+04
 0.15749998E+02  0.40528E+04
 0.15799999E+02  0.41100E+04
 0.15849998E+02  0.41655E+04
 0.15900000E+02  0.42098E+04
 0.15949999E+02  0.42422E+04
 0.15999998E+02  0.42369E+04
 0.16049999E+02  0.42126E+04
 0.16099998E+02  0.42128E+04
 0.16150000E+02  0.42149E+04
 0.16199999E+02  0.41914E+04
 0.16249998E+02  0.41535E+04
 0.16299999E+02  0.40919E+04
 0.16349998E+02  0.40404E+04
 0.16400000E+02  0.40133E+04
 0.16449999E+02  0.39484E+04
 0.16499998E+02  0.39009E+04
 0.16549999E+02  0.38776E+04
 0.16599998E+02  0.38458E+04
 0.16650000E+02  0.38260E+04
 0.16699999E+02  0.38066E+04
 0.16749998E+02  0.37877E+04
 0.16799999E+02  0.37668E+04
 0.16849998E+02  0.37490E+04
 0.16900000E+02  0.37356E+04
 0.16949999E+02  0.37359E+04
 0.16999998E+02  0.37599E+04
 0.17049999E+02  0.37815E+04
 0.17099998E+02  0.37835E+04
 0.17150000E+02  0.37936E+04
 0.17199999E+02  0.38032E+04
 0.17249998E+02  0.38047E+04
 0.17299999E+02  0.38035E+04
 0.17349998E+02  0.38041E+04
 0.17400000E+02  0.38343E+04
 0.17449999E+02  0.38788E+04
 0.17499998E+02  0.39351E+04
 0.17549999E+02  0.39935E+04
 0.17599998E+02  0.40391E+04
 0.17650000E+02  0.40921E+04
 0.17699999E+02  0.41221E+04
 0.17749998E+02  0.41342E+04
 0.17799999E+02  0.41511E+04
 0.17849998E+02  0.41696E+04
 0.17900000E+02  0.41839E+04
 0.17949999E+02  0.41883E+04
 0.17999998E+02  0.41936E+04
 0.18049999E+02  0.41836E+04
 0.18099998E+02  0.41615E+04
 0.18150000E+02  0.41497E+04
 0.18199999E+02  0.41199E+04
 0.18249998E+02  0.40839E+04
 0.18299999E+02  0.40407E+04
 0.18349998E+02  0.39849E+04
 0.18400000E+02  0.39378E+04
 0.18449999E+02  0.38859E+04
 0.18499998E+02  0.38514E+04
 0.18549999E+02  0.38408E+04
 0.18599998E+02  0.38564E+04
 0.18650000E+02  0.38707E+04
 0.18699999E+02  0.38840E+04
 0.18749998E+02  0.39052E+04
 0.18799999E+02  0.39293E+04
 0.18849998E+02  0.39407E+04
 0.18900000E+02  0.39285E+04
 0.18949999E+02  0.39421E+04
 0.18999998E+02  0.39428E+04
 0.19049999E+02  0.39410E+04
 0.19099998E+02  0.39411E+04
 0.19150000E+02  0.39273E+04
 0.19199999E+02  0.39276E+04
 0.19249998E+02  0.39361E+04
 0.19299999E+02  0.39398E+04
 0.19349998E+02  0.39354E+04
 0.19400000E+02  0.39465E+04
 0.19449999E+02  0.39334E+04
 0.19499998E+02  0.39208E+04
 0.19549999E+02  0.39143E+04
 0.19599998E+02  0.39139E+04
 0.19650000E+02  0.39198E+04
 0.19699999E+02  0.39200E+04
 0.19749998E+02  0.39205E+04
 0.19799999E+02  0.39411E+04
 0.19849998E+02  0.39748E+04
 0.19900000E+02  0.39837E+04
 0.19949999E+02  0.39957E+04
 0.19999998E+02  0.39978E+04
 0.20049999E+02  0.39850E+04
 0.20099998E+02  0.39591E+04
 0.20150000E+02  0.39464E+04
 0.20199999E+02  0.39328E+04
 0.20249998E+02  0.39257E+04
 0.20299999E+02  0.39040E+04
 0.20349998E+02  0.38956E+04
 0.20399998E+02  0.39191E+04
 0.20449999E+02  0.39221E+04
 0.20499998E+02  0.39361E+04
 0.20549999E+02  0.39419E+04
 0.20599998E+02  0.39532E+04
 0.20649998E+02  0.39667E+04
 0.20699999E+02  0.39683E+04
 0.20749998E+02  0.39676E+04
 0.20799999E+02  0.39987E+04
 0.20849998E+02  0.40206E+04
 0.20899998E+02  0.40171E+04
 0.20949999E+02  0.40184E+04
 0.20999998E+02  0.39912E+04
 0.21049999E+02  0.39457E+04
 0.21099998E+02  0.38853E+04
 0.21149998E+02  0.38140E+04
 0.21199999E+02  0.37492E+04
 0.21249998E+02  0.36952E+04
 0.21299999E+02  0.36563E+04
 0.21349998E+02  0.36284E+04
 0.21399998E+02  0.36243E+04
 0.21449999E+02  0.36426E+04
 0.21499998E+02  0.36608E+04
 0.21549999E+02  0.36849E+04
 0.21599998E+02  0.37141E+04
 0.21649998E+02  0.37602E+04
 0.21699999E+02  0.38086E+04
 0.21749998E+02  0.38478E+04
 0.21799999E+02  0.38791E+04
 0.21849998E+02  0.39038E+04
 0.21899998E+02  0.39408E+04
 0.21949999E+02  0.40144E+04
 0.21999998E+02  0.40905E+04
 0.22049999E+02  0.41282E+04
 0.22099998E+02  0.41557E+04
 0.22149998E+02  0.41682E+04
 0.22199999E+02  0.41649E+04
 0.22249998E+02  0.41603E+04
 0.22299999E+02  0.41341E+04
 0.22349998E+02  0.41198E+04
 0.22399998E+02  0.41190E+04
 0.22449999E+02  0.41066E+04
 0.22499998E+02  0.40850E+04
 0.22549999E+02  0.40788E+04
 0.22599998E+02  0.40987E+04
 0.22649998E+02  0.40998E+04
 0.22699999E+02  0.40913E+04
 0.22749998E+02  0.40904E+04
 0.22799999E+02  0.41072E+04
 0.22849998E+02  0.41440E+04
 0.22899998E+02  0.41646E+04
 0.22949999E+02  0.41608E+04
 0.22999998E+02  0.41550E+04
 0.23049999E+02  0.41762E+04
 0.23099998E+02  0.41783E+04
 0.23149998E+02  0.41586E+04
 0.23199999E+02  0.41483E+04
 0.23249998E+02  0.41244E+04
 0.23299999E+02  0.41093E+04
 0.23349998E+02  0.40730E+04
 0.23399998E+02  0.40280E+04
 0.23449999E+02  0.39814E+04
 0.23499998E+02  0.39445E+04
 0.23549999E+02  0.39116E+04
 0.23599998E+02  0.38599E+04
 0.23649998E+02  0.38312E+04
 0.23699999E+02  0.37860E+04
 0.23749998E+02  0.37273E+04
 0.23799999E+02  0.36795E+04
 0.23849998E+02  0.36290E+04
 0.23899998E+02  0.35675E+04
 0.23949999E+02  0.35302E+04
 0.23999998E+02  0.35183E+04
 0.24049999E+02  0.35117E+04
 0.24099998E+02  0.35267E+04
 0.24149998E+02  0.35457E+04
 0.24199999E+02  0.35738E+04
 0.24249998E+02  0.36039E+04
 0.24299999E+02  0.36376E+04
 0.24349998E+02  0.36593E+04
 0.24399998E+02  0.36974E+04
 0.24449999E+02  0.37243E+04
 0.24499998E+02  0.37679E+04
 0.24549999E+02  0.38398E+04
 0.24599998E+02  0.39105E+04
 0.24649998E+02  0.39581E+04
 0.24699999E+02  0.39573E+04
 0.24749998E+02  0.39702E+04
 0.24799999E+02  0.40457E+04
 0.24849998E+02  0.41877E+04
 0.24899998E+02  0.43017E+04
 0.24949999E+02  0.43430E+04
 0.24999998E+02  0.43122E+04
 0.25049999E+02  0.42952E+04
 0.25099998E+02  0.42771E+04
 0.25149998E+02  0.43701E+04
 0.25199999E+02  0.44637E+04
 0.25249998E+02  0.44912E+04
 0.25299999E+02  0.43546E+04
 0.25349998E+02  0.41577E+04
 0.25399998E+02  0.40266E+04
 0.25449999E+02  0.40870E+04
 0.25499998E+02  0.42145E+04
 0.25549999E+02  0.42054E+04
 0.25599998E+02  0.41059E+04
 0.25649998E+02  0.40413E+04
 0.25699999E+02  0.39671E+04
 0.25749998E+02  0.38264E+04
 0.25799999E+02  0.38805E+04
 0.25849998E+02  0.40231E+04
 0.25899998E+02  0.41926E+04
 0.25949999E+02  0.40775E+04
 0.25999998E+02  0.38150E+04
 0.26049999E+02  0.35705E+04
 0.26099998E+02  0.34645E+04
 0.26149998E+02  0.39488E+04
 0.26199999E+02  0.43188E+04
 0.26249998E+02  0.41776E+04
 0.26299999E+02  0.35864E+04
 0.26349998E+02  0.30304E+04
 0.26399998E+02  0.31490E+04
 0.26449999E+02  0.40384E+04
 0.26499998E+02  0.47314E+04
 0.26549999E+02  0.45538E+04
 0.26599998E+02  0.37981E+04
 0.26649998E+02  0.29761E+04
 0.26699999E+02  0.29071E+04
 0.26749998E+02  0.33610E+04
 0.26799999E+02  0.44733E+04
 0.26849998E+02  0.45181E+04
 0.26899998E+02  0.40069E+04
 0.26949999E+02  0.39423E+04
 0.26999998E+02  0.32845E+04
 0.27049997E+02  0.29980E+04
 0.27099998E+02  0.39879E+04
 0.27149998E+02  0.44818E+04
 0.27199999E+02  0.47965E+04
 0.27249998E+02  0.50959E+04
 0.27299997E+02  0.41194E+04
 0.27349998E+02  0.26918E+04
 0.27399998E+02  0.25625E+04
 0.27449999E+02  0.42197E+04
 0.27499998E+02  0.51883E+04
 0.27549997E+02  0.46878E+04
 0.27599998E+02  0.33357E+04
 0.27649998E+02  0.29683E+04
 0.27699999E+02  0.28578E+04
 0.27749998E+02  0.44057E+04
 0.27799997E+02  0.67764E+04
 0.27849998E+02  0.47718E+04
 0.27899998E+02  0.36857E+04
 0.27949999E+02  0.40251E+04
 0.27999998E+02  0.25367E+04
 0.28049997E+02  0.33006E+04
 0.28099998E+02  0.44528E+04
 0.28149998E+02  0.42933E+04
 0.28199999E+02  0.52023E+04
 0.28249998E+02  0.32756E+04
 0.28299997E+02  0.26877E+04
 0.28349998E+02  0.43212E+04
 0.28399998E+02  0.46649E+04
 0.28449999E+02  0.32950E+04
 0.28499998E+02  0.44781E+04
 0.28549997E+02  0.50006E+04
 0.28599998E+02  0.31677E+04
 0.28649998E+02  0.37368E+04
 0.28699999E+02  0.35941E+04
 0.28749998E+02  0.44339E+04
 0.28799997E+02  0.39124E+04
 0.28849998E+02  0.38825E+04
 0.28899998E+02  0.42421E+04
 0.28949999E+02  0.27410E+04
 0.28999998E+02  0.16745E+04
 0.29049997E+02  0.49122E+04
 0.29099998E+02  0.64917E+04
 0.29149998E+02  0.50237E+04
 0.29199999E+02  0.27646E+04
 0.29249998E+02  0.25625E+04
 0.29299997E+02  0.28785E+04
 0.29349998E+02  0.43699E+04
 0.29399998E+02  0.54913E+04
 0.29449999E+02  0.30192E+04
 0.29499998E+02  0.20941E+04
 0.29549997E+02  0.34562E+04
 0.29599998E+02  0.56607E+04
 0.29649998E+02  0.43278E+04
 0.29699999E+02  0.27180E+04
 0.29749998E+02  0.30540E+04
 0.29799997E+02  0.44716E+04
 0.29849998E+02  0.53875E+04
 0.29899998E+02  0.45927E+04
 0.29949999E+02  0.21183E+04
 0.29999998E+02  0.24558E+04
 0.30049999E+02  0.54480E+04
 0.30099998E+02  0.52414E+04
 0.30149998E+02  0.59486E+04
 0.30199997E+02  0.31689E+04
 0.30249996E+02  0.60669E+03
 0.30299999E+02  0.27253E+04
 0.30349998E+02  0.46869E+04
 0.30399998E+02  0.67716E+04
 0.30449997E+02  0.47021E+04
 0.30499996E+02  0.50486E+04
 0.30549999E+02  0.36536E+04
 0.30599998E+02  0.20852E+04
 0.30649998E+02  0.78664E+03
 0.30699997E+02  0.24422E+04
 0.30749996E+02  0.73860E+04
 0.30799999E+02  0.65331E+04
 0.30849998E+02  0.48487E+04
 0.30899998E+02  0.23367E+04
 0.30949997E+02  0.17399E+04
 0.30999996E+02  0.45998E+04
 0.31049999E+02  0.43958E+04
 0.31099998E+02  0.34052E+04
 0.31149998E+02  0.28815E+04
 0.31199997E+02  0.46753E+04
 0.31249996E+02  0.59473E+04
 0.31299999E+02  0.36710E+04
 0.31349998E+02  0.34664E+04
 0.31399998E+02  0.36462E+04
 0.31449997E+02  0.35178E+04
 0.31499996E+02  0.44655E+04
 0.31549999E+02  0.51691E+04
 0.31599998E+02  0.40479E+04
 0.31649998E+02  0.48304E+04
 0.31699997E+02  0.45326E+04
 0.31749996E+02  0.57404E+04
 0.31799999E+02  0.37545E+04
 0.31849998E+02  0.16710E+04
 0.31899998E+02  0.37673E+04
 0.31949997E+02  0.57619E+04
 0.31999996E+02  0.53996E+04
 0.32049999E+02  0.28574E+04
 0.32099998E+02  0.50373E+04
 0.32149998E+02  0.49877E+04
 0.32199997E+02  0.26568E+04
 0.32249996E+02  0.27808E+04
 0.32299999E+02  0.31395E+04
 0.32349998E+02  0.22981E+04
 0.32399998E+02  0.30528E+04
 0.32449997E+02  0.49481E+04
 0.32499996E+02  0.48411E+04
 0.32549999E+02  0.44043E+04
 0.32599998E+02  0.34697E+04
 0.32649998E+02  0.16829E+04
 0.32699997E+02  0.36801E+04
 0.32749996E+02  0.41111E+04
 0.32799999E+02  0.50307E+04
 0.32849998E+02  0.37563E+04
 0.32899998E+02  0.39567E+04
 0.32949997E+02  0.55355E+04
 0.32999996E+02  0.36375E+04
 0.33049999E+02  0.29647E+04
 0.33099998E+02  0.25297E+04
 0.33149998E+02  0.23749E+04
 0.33199997E+02  0.31973E+04
 0.33249996E+02  0.40758E+04
 0.33299999E+02  0.48725E+04
 0.33349998E+02  0.59923E+04
 0.33399998E+02  0.55221E+04
 0.33449997E+02  0.52961E+04
 0.33499996E+02  0.28030E+04
 0.33549999E+02  0.48296E+04
 0.33599998E+02  0.28564E+04
 0.33649998E+02  0.11273E+04
 0.33699997E+02  0.34605E+04
 0.33749996E+02  0.42519E+04
 0.33799999E+02  0.49999E+04
 0.33849998E+02  0.44876E+04
 0.33899998E+02  0.32557E+04
 0.33949997E+02  0.13587E+04
 0.33999996E+02  0.38911E+04
 0.34049999E+02  0.48828E+04
 0.34099998E+02  0.55032E+04
 0.34149998E+02  0.43882E+04
 0.34199997E+02  0.59930E+04
 0.34249996E+02  0.60254E+04
 0.34299999E+02  0.99046E+03
 0.34349998E+02  0.12761E+04
 0.34399998E+02  0.36206E+04
 0.34449997E+02  0.56774E+04
 0.34499996E+02  0.48685E+04
 0.34549999E+02  0.31586E+04
 0.34599998E+02  0.39276E+04
 0.34649998E+02  0.62419E+04
 0.34699997E+02  0.49675E+04
 0.34749996E+02  0.44406E+04
 0.34799999E+02  0.45238E+04
 0.34849998E+02  0.43141E+04
 0.34899998E+02  0.45668E+04
 0.34949997E+02  0.47930E+04
 0.34999996E+02  0.64113E+04
 0.35049999E+02  0.45968E+04
 0.35099998E+02  0.84782E+03
 0.35149998E+02  0.23363E+03
 0.35199997E+02  0.14485E+04
 0.35249996E+02  0.32076E+04
 0.35299999E+02  0.38710E+04
 0.35349998E+02  0.43269E+04
 0.35399998E+02  0.57218E+04
 0.35449997E+02  0.55938E+04
 0.35499996E+02  0.62912E+04
 0.35549999E+02  0.38744E+04
 0.35599998E+02  0.13448E+04
 0.35649998E+02  0.90048E+03
 0.35699997E+02  0.32429E+04
 0.35749996E+02  0.67760E+04
 0.35799999E+02  0.62102E+04
 0.35849998E+02  0.42274E+04
 0.35899998E+02  0.27414E+04
 0.35949997E+02  0.26516E+04
 0.35999996E+02  0.26634E+04
 0.36049999E+02  0.37106E+04
 0.36099998E+02  0.56063E+04
 0.36149998E+02  0.51471E+04
 0.36199997E+02  0.46238E+04
 0.36249996E+02  0.38568E+04
 0.36299999E+02  0.27152E+04
 0.36349998E+02  0.12515E+04
 0.36399998E+02  0.20185E+04
 0.36449997E+02  0.57583E+04
 0.36499996E+02  0.62977E+04
 0.36549999E+02  0.36479E+04
 0.36599998E+02  0.23397E+04
 0.36649998E+02  0.36144E+04
 0.36699997E+02  0.23616E+04
 0.36749996E+02  0.43127E+04
 0.36799999E+02  0.59650E+04
 0.36849998E+02  0.29790E+04
 0.36899998E+02  0.39354E+04
 0.36949997E+02  0.52893E+04
 0.36999996E+02  0.56483E+04
 0.37049999E+02  0.39930E+04
 0.37099998E+02  0.25067E+04
 0.37149998E+02  0.34708E+04
 0.37199997E+02  0.58872E+04
 0.37249996E+02  0.35273E+04
 0.37299999E+02  0.18114E+04
 0.37349998E+02  0.41269E+04
 0.37399998E+02  0.13856E+04
 0.37449997E+02  0.24898E+04
 0.37499996E+02  0.56684E+04
 0.37549999E+02  0.56998E+04
 0.37599998E+02  0.38298E+04
 0.37649998E+02  0.56965E+04
 0.37699997E+02  0.63576E+04
 0.37749996E+02  0.53177E+04
 0.37799999E+02  0.50291E+04
 0.37849998E+02  0.25559E+04
 0.37899998E+02  0.47677E+04
 0.37949997E+02  0.26742E+04
 0.37999996E+02  0.25823E+04
 0.38049999E+02  0.34568E+04
 0.38099998E+02  0.16858E+04
 0.38149998E+02  0.41637E+04
 0.38199997E+02  0.32292E+04
 0.38249996E+02  0.20249E+04
 0.38299999E+02  0.39225E+04
 0.38349998E+02  0.59362E+04
 0.38399998E+02  0.48277E+04
 0.38449997E+02  0.33298E+04
 0.38499996E+02  0.33017E+04
 0.38549999E+02  0.24618E+04
 0.38599998E+02  0.32403E+04
 0.38649998E+02  0.54841E+04
 0.38699997E+02  0.48680E+04
 0.38749996E+02  0.42250E+04
 0.38799999E+02  0.44502E+04
 0.38849998E+02  0.51871E+04
 0.38899998E+02  0.38920E+04
 0.38949997E+02  0.20819E+04
 0.38999996E+02  0.30023E+04
 0.39049999E+02  0.44525E+04
 0.39099998E+02  0.55976E+04
 0.39149998E+02  0.34373E+04
 0.39199997E+02  0.42377E+04
 0.39249996E+02  0.62173E+04
 0.39299999E+02  0.41313E+04
 0.39349998E+02  0.41619E+04
 0.39399998E+02  0.20549E+04
 0.39449997E+02  0.24741E+04
 0.39499996E+02  0.54698E+04
 0.39549999E+02  0.32501E+04
 0.39599998E+02  0.33372E+04
 0.39649998E+02  0.19484E+04
 0.39699997E+02  0.88541E+03
 0.39749996E+02  0.27743E+04
 0.39799999E+02  0.52691E+04
 0.39849998E+02  0.56953E+04
 0.39899998E+02  0.41145E+04
 0.39949997E+02  0.57660E+04
 0.39999996E+02  0.61096E+04
 0.40049999E+02  0.31984E+04
 0.40099998E+02  0.52357E+04
 0.40149998E+02  0.62826E+04
 0.40199997E+02  0.40391E+04
 0.40249996E+02  0.31606E+04
 0.40299999E+02  0.55567E+03
 0.40349998E+02  0.20721E+04
 0.40399998E+02  0.43090E+04
 0.40449997E+02  0.54923E+04
 0.40499996E+02  0.59828E+04
 0.40549999E+02  0.59538E+04
 0.40599998E+02  0.60795E+04
 0.40649998E+02  0.34839E+04
 0.40699997E+02  0.36103E+04
 0.40749996E+02  0.56256E+04
 0.40799999E+02  0.48014E+04
 0.40849998E+02  0.35012E+04
 0.40899998E+02  0.18969E+04
 0.40949997E+02  0.25429E+04
 0.40999996E+02  0.38208E+04
 0.41049999E+02  0.14410E+04
 0.41099998E+02  0.13463E+04
 0.41149998E+02  0.17915E+04
 0.41199997E+02  0.59421E+04
 0.41249996E+02  0.83637E+04
 0.41299999E+02  0.76139E+04
 0.41349998E+02  0.48792E+04
 0.41399998E+02  0.17528E+04
 0.41449997E+02  0.25577E+04
 0.41499996E+02  0.14462E+04
 0.41549999E+02  0.43967E+04
 0.41599998E+02  0.57945E+04
 0.41649998E+02  0.16507E+04
 0.41699997E+02  0.21979E+04
 0.41749996E+02  0.54018E+04
 0.41799999E+02  0.56197E+04
 0.41849998E+02  0.65286E+04
 0.41899998E+02  0.76139E+04
 0.41949997E+02  0.10965E+05
 0.41999996E+02  0.63144E+04
 0.42049999E+02  0.11827E+04
 0.42099998E+02  0.14577E+04
 0.42149998E+02  0.26824E+04
 0.42199997E+02  0.78415E+03
 0.42249996E+02  0.12879E+04
 0.42299999E+02  0.58210E+04
 0.42349998E+02  0.76800E+04
 0.42399998E+02  0.51390E+04
 0.42449997E+02 -0.37253E+04
 0.42499996E+02 -0.23824E+04
 0.42549999E+02  0.67958E+04
 0.42599998E+02  0.11560E+05
 0.42649998E+02  0.78152E+04
 0.42699997E+02  0.53354E+04
 0.42749996E+02  0.35053E+04
 0.42799995E+02  0.71349E+03
 0.42849998E+02 -0.39257E+04
 0.42899998E+02 -0.99597E+04
 0.42949997E+02 -0.10389E+05
 0.42999996E+02 -0.29835E+04
 0.43049995E+02  0.91577E+04
 0.43099998E+02  0.13765E+05
 0.43149998E+02  0.81673E+04
 0.43199997E+02  0.33840E+04
 0.43249996E+02  0.48273E+04
 0.43299995E+02  0.12238E+05
 0.43349998E+02  0.13160E+05
 0.43399998E+02  0.83947E+04
 0.43449997E+02  0.30664E+04
 0.43499996E+02  0.78976E+03
 0.43549995E+02  0.18049E+04
 0.43599998E+02  0.69050E+04
 0.43649998E+02  0.72653E+04
 0.43699997E+02  0.87715E+04
 0.43749996E+02  0.13239E+05
 0.43799995E+02  0.63689E+03
 0.43849998E+02 -0.41076E+03
 0.43899998E+02  0.78941E+04
 0.43949997E+02  0.13895E+05
 0.43999996E+02  0.11466E+05
 0.44049995E+02  0.15660E+04
 0.44099998E+02 -0.12531E+05
 0.44149998E+02 -0.23977E+05
 0.44199997E+02 -0.18177E+05
 0.44249996E+02  0.18284E+04
 0.44299995E+02  0.17228E+05
 0.44349998E+02  0.12849E+05
 0.44399998E+02 -0.18372E+03
 0.44449997E+02 -0.83767E+04
 0.44499996E+02 -0.55451E+04
 0.44549995E+02 -0.12513E+04
 0.44599998E+02  0.48023E+04
 0.44649998E+02  0.47926E+04
 0.44699997E+02  0.55603E+04
 0.44749996E+02  0.14479E+05
 0.44799995E+02  0.20147E+05
 0.44849998E+02  0.13338E+05
 0.44899998E+02  0.77512E+04
 0.44949997E+02  0.47687E+04
 0.44999996E+02  0.50538E+04
 0.45049995E+02  0.63340E+03
 0.45099998E+02 -0.79713E+03
 0.45149998E+02 -0.50161E+04
 0.45199997E+02 -0.98633E+04
 0.45249996E+02  0.16305E+05
 0.45299995E+02  0.29036E+05
 0.45349998E+02  0.21902E+05
 0.45399998E+02  0.39822E+04
 0.45449997E+02 -0.19420E+05
 0.45499996E+02 -0.69443E+04
 0.45549995E+02  0.13261E+05
 0.45599998E+02  0.14361E+05
 0.45649998E+02  0.12190E+05
 0.45699997E+02  0.90589E+04
 0.45749996E+02  0.11509E+05
 0.45799995E+02 -0.18316E+04
 0.45849998E+02 -0.11557E+05
 0.45899998E+02 -0.10756E+05
 0.45949997E+02 -0.26938E+04
 0.45999996E+02  0.41142E+04
 0.46049995E+02  0.83018E+04
 0.46099998E+02 -0.22766E+04
 0.46149998E+02 -0.69078E+04
 0.46199997E+02  0.35631E+04
 0.46249996E+02  0.93198E+04
 0.46299995E+02  0.15440E+05
 0.46349998E+02  0.10154E+05
 0.46399998E+02  0.86620E+04
 0.46449997E+02  0.10845E+05
 0.46499996E+02  0.92108E+04
 0.46549995E+02  0.27356E+04
 0.46599998E+02 -0.25618E+04
 0.46649998E+02  0.68325E+04
 0.46699997E+02  0.13880E+05
 0.46749996E+02  0.31060E+04
 0.46799995E+02  0.10071E+05
 0.46849998E+02  0.50163E+04
 0.46899998E+02  0.18515E+04
 0.46949997E+02  0.25083E+04
 0.46999996E+02  0.43117E+04
 0.47049995E+02  0.79630E+04
 0.47099998E+02  0.18563E+04
 0.47149998E+02 -0.38111E+03
 0.47199997E+02  0.31059E+04
 0.47249996E+02  0.16394E+05
 0.47299995E+02  0.56164E+04
 0.47349998E+02  0.42100E+04
 0.47399998E+02  0.64315E+04
 0.47449997E+02 -0.18762E+04
 0.47499996E+02 -0.67617E+04
 0.47549995E+02 -0.21976E+04
 0.47599998E+02  0.73968E+04
 0.47649998E+02  0.61466E+04
 0.47699997E+02  0.28474E+03
 0.47749996E+02 -0.80932E+04
 0.47799995E+02 -0.12491E+05
 0.47849998E+02  0.98962E+03
 0.47899998E+02  0.90506E+04
 0.47949997E+02  0.11093E+05
 0.47999996E+02  0.12528E+05
 0.48049995E+02  0.27900E+03
 0.48099998E+02 -0.44373E+04
 0.48149998E+02 -0.12202E+03
 0.48199997E+02  0.21282E+03
 0.48249996E+02 -0.57484E+04
 0.48299995E+02  0.10928E+05
 0.48349998E+02  0.18667E+05
 0.48399998E+02  0.10109E+05
 0.48449997E+02 -0.13084E+03
 0.48499996E+02 -0.41290E+04
 0.48549995E+02  0.57210E+03
 0.48599998E+02  0.70901E+04
 0.48649998E+02  0.17438E+05
 0.48699997E+02  0.19731E+05
 0.48749996E+02  0.14423E+05
 0.48799995E+02 -0.87859E+04
 0.48849998E+02 -0.23324E+05
 0.48899998E+02 -0.23316E+05
 0.48949997E+02 -0.14978E+05
 0.48999996E+02  0.82586E+03
 0.49049995E+02  0.68628E+04
 0.49099998E+02  0.20814E+04
 0.49149998E+02  0.30359E+03
 0.49199997E+02 -0.16669E+04
 0.49249996E+02 -0.21397E+04
 0.49299995E+02 -0.43017E+03
 0.49349998E+02  0.66632E+04
 0.49399998E+02  0.16590E+05
 0.49449997E+02  0.18228E+05
 0.49499996E+02  0.25914E+05
 0.49549995E+02  0.13307E+05
 0.49599998E+02  0.13235E+04
 0.49649998E+02  0.15285E+04
 0.49699997E+02 -0.31728E+04
 0.49749996E+02  0.12932E+04
 0.49799995E+02  0.11307E+05
 0.49849998E+02  0.19972E+05
 0.49899998E+02  0.17887E+05
 0.49949997E+02  0.97873E+04
 0.49999996E+02  0.49701E+04
 0.50049995E+02  0.13018E+05
 0.50099998E+02  0.18428E+05
 0.50149998E+02  0.13409E+05
 0.50199997E+02  0.80965E+04
 0.50249996E+02  0.32624E+04
 0.50299995E+02  0.75594E+03
 0.50349998E+02 -0.32611E+04
 0.50399998E+02 -0.65887E+04
 0.50449997E+02 -0.41864E+04
 0.50499996E+02  0.55370E+04
 0.50549995E+02  0.42367E+04
 0.50599998E+02 -0.42902E+04
 0.50649998E+02 -0.30931E+04
 0.50699997E+02 -0.29648E+04
 0.50749996E+02  0.16213E+04
 0.50799995E+02  0.67027E+04
 0.50849998E+02  0.65601E+04
 0.50899998E+02 -0.19265E+04
 0.50949997E+02 -0.75321E+04
 0.50999996E+02 -0.11977E+04
 0.51049995E+02  0.42938E+04
 0.51099998E+02  0.25067E+04
 0.51149998E+02 -0.19993E+04
 0.51199997E+02  0.90827E+04
 0.51249996E+02  0.99412E+04
 0.51299995E+02  0.34350E+04
 0.51349998E+02  0.78670E+04
 0.51399998E+02  0.11121E+05
 0.51449997E+02  0.16888E+05
 0.51499996E+02  0.16569E+05
 0.51549995E+02  0.93017E+04
 0.51599998E+02  0.63518E+04
 0.51649998E+02  0.62312E+04
 0.51699997E+02  0.91558E+04
 0.51749996E+02  0.14795E+05
 0.51799995E+02  0.62820E+04
 0.51849998E+02 -0.74896E+04
 0.51899998E+02 -0.10269E+05
 0.51949997E+02 -0.42921E+04
 0.51999996E+02  0.18011E+04
 0.52049995E+02  0.60309E+04
 0.52099998E+02  0.84828E+04
 0.52149998E+02  0.35948E+04
 0.52199997E+02 -0.68704E+04
 0.52249996E+02 -0.13218E+05
 0.52299995E+02 -0.14862E+05
 0.52349998E+02 -0.67223E+04
 0.52399998E+02  0.12312E+05
 0.52449997E+02  0.22372E+05
 0.52499996E+02  0.12521E+05
 0.52549995E+02 -0.10114E+04
 0.52599998E+02 -0.34706E+04
 0.52649998E+02 -0.20243E+04
 0.52699997E+02 -0.44248E+03
 0.52749996E+02  0.39695E+04
 0.52799995E+02  0.11748E+05
 0.52849998E+02  0.13583E+05
 0.52899998E+02  0.58198E+04
 0.52949997E+02  0.15385E+04
 0.52999996E+02  0.67823E+04
 0.53049995E+02  0.11173E+05
 0.53099998E+02  0.74813E+04
 0.53149998E+02  0.52213E+04
 0.53199997E+02  0.45339E+04
 0.53249996E+02  0.40947E+04
 0.53299995E+02  0.51550E+04
 0.53349998E+02  0.43073E+04
 0.53399998E+02  0.11416E+05
 0.53449997E+02  0.10149E+05
 0.53499996E+02  0.14906E+03
 0.53549995E+02 -0.69476E+04
 0.53599998E+02 -0.57329E+04
 0.53649998E+02  0.38229E+04
 0.53699997E+02  0.20470E+04
 0.53749996E+02  0.43377E+04
 0.53799995E+02  0.10401E+05
 0.53849998E+02  0.85932E+04
 0.53899998E+02 -0.78785E+03
 0.53949997E+02  0.36186E+03
 0.53999996E+02  0.11481E+05
 0.54049995E+02  0.10312E+05
 0.54099998E+02  0.88981E+04
 0.54149998E+02  0.61825E+04
 0.54199997E+02  0.30943E+04
 0.54249996E+02  0.23370E+04
 0.54299995E+02  0.21669E+04
 0.54349998E+02 -0.18915E+04
 0.54399998E+02 -0.59642E+04
 0.54449997E+02 -0.13365E+04
 0.54499996E+02  0.76806E+04
 0.54549995E+02  0.16417E+05
 0.54599998E+02  0.12515E+05
 0.54649998E+02  0.24126E+04
 0.54699997E+02  0.24947E+03
 0.54749996E+02  0.18818E+04
 0.54799995E+02  0.41264E+04
 0.54849998E+02  0.83736E+04
 0.54899998E+02  0.81628E+04
 0.54949997E+02  0.11410E+04
 0.54999996E+02 -0.23049E+04
 0.55049995E+02 -0.36289E+03
 0.55099998E+02  0.41076E+04
 0.55149998E+02  0.57988E+04
 0.55199997E+02  0.51732E+04
 0.55249996E+02  0.31647E+04
 0.55299995E+02 -0.49914E+04
 0.55349998E+02 -0.12420E+05
 0.55399998E+02 -0.94854E+04
 0.55449997E+02  0.18700E+04
 0.55499996E+02  0.88612E+04
 0.55549995E+02  0.77127E+04
 0.55599998E+02  0.57080E+04
 0.55649998E+02  0.39736E+04
 0.55699997E+02  0.18343E+04
 0.55749996E+02  0.33357E+04
 0.55799995E+02  0.95786E+04
 0.55849995E+02  0.16205E+05
 0.55899998E+02  0.12110E+05
 0.55949997E+02  0.51577E+04
 0.55999996E+02 -0.86069E+03
 0.56049995E+02 -0.24476E+04
 0.56099995E+02  0.14688E+04
 0.56149998E+02  0.37831E+04
 0.56199997E+02  0.80075E+04
 0.56249996E+02  0.68513E+04
 0.56299995E+02  0.45930E+03
 0.56349995E+02  0.14797E+04
 0.56399998E+02  0.47031E+04
 0.56449997E+02  0.50137E+04
 0.56499996E+02  0.27369E+04
 0.56549995E+02  0.11565E+04
 0.56599995E+02  0.60458E+04
 0.56649998E+02  0.28322E+04
 0.56699997E+02 -0.11886E+04
 0.56749996E+02 -0.21491E+04
 0.56799995E+02 -0.65213E+03
 0.56849995E+02  0.24837E+04
 0.56899998E+02  0.66013E+04
 0.56949997E+02  0.97741E+04
 0.56999996E+02  0.87331E+04
 0.57049995E+02  0.80518E+04
 0.57099995E+02  0.67175E+04
 0.57149998E+02  0.92145E+04
 0.57199997E+02  0.12603E+05
 0.57249996E+02  0.13648E+05
 0.57299995E+02  0.12484E+05
 0.57349995E+02  0.89464E+04
 0.57399998E+02  0.59310E+04
 0.57449997E+02  0.46395E+04
 0.57499996E+02  0.31254E+04
 0.57549995E+02  0.24435E+04
 0.57599995E+02 -0.17143E+04
 0.57649998E+02 -0.70925E+04
 0.57699997E+02 -0.94745E+04
 0.57749996E+02 -0.84191E+04
 0.57799995E+02 -0.64345E+04
 0.57849995E+02 -0.14350E+04
 0.57899998E+02  0.44864E+04
 0.57949997E+02  0.43574E+04
 0.57999996E+02  0.30694E+03
 0.58049995E+02  0.20474E+04
 0.58099995E+02  0.61174E+04
 0.58149998E+02  0.10648E+05
 0.58199997E+02  0.12451E+05
 0.58249996E+02  0.47337E+04
 0.58299995E+02 -0.69326E+02
 0.58349995E+02 -0.12733E+04
 0.58399998E+02  0.23185E+04
 0.58449997E+02  0.59158E+04
 0.58499996E+02  0.94337E+04
 0.58549995E+02  0.15005E+05
 0.58599995E+02  0.17163E+05
 0.58649998E+02  0.14284E+05
 0.58699997E+02  0.97902E+04
 0.58749996E+02  0.64005E+04
 0.58799995E+02  0.38877E+04
 0.58849995E+02  0.37022E+04
 0.58899998E+02  0.23603E+04
 0.58949997E+02 -0.57564E+03
 0.58999996E+02  0.21025E+04
 0.59049995E+02  0.82013E+04
 0.59099995E+02  0.48830E+04
 0.59149998E+02 -0.44961E+03
 0.59199997E+02 -0.26283E+04
 0.59249996E+02 -0.82343E+04
 0.59299995E+02 -0.71899E+04
 0.59349995E+02  0.44563E+03
 0.59399998E+02  0.30718E+04
 0.59449997E+02 -0.27749E+03
 0.59499996E+02 -0.55055E+04
 0.59549995E+02 -0.29518E+04
 0.59599995E+02  0.49966E+04
 0.59649998E+02  0.94843E+04
 0.59699997E+02  0.10019E+05
 0.59749996E+02  0.13201E+05
 0.59799995E+02  0.11514E+05
 0.59849995E+02  0.87928E+04
 0.59899998E+02  0.53395E+04
 0.59949997E+02 -0.25937E+04
 0.59999996E+02 -0.10223E+04
 0.60049995E+02  0.35432E+04
 0.60099995E+02  0.73363E+04
 0.60149998E+02  0.90901E+04
 0.60199997E+02  0.91981E+04
 0.60249996E+02  0.95389E+04
 0.60299995E+02  0.75728E+04
 0.60349995E+02  0.39629E+04
 0.60399998E+02  0.16351E+03
 0.60449997E+02 -0.21604E+04
 0.60499996E+02 -0.30128E+04
 0.60549995E+02 -0.82055E+03
 0.60599995E+02  0.34097E+04
 0.60649998E+02  0.63230E+04
 0.60699997E+02  0.75462E+04
 0.60749996E+02  0.61663E+04
 0.60799995E+02  0.44760E+04
 0.60849995E+02  0.25909E+04
 0.60899998E+02  0.17339E+04
 0.60949997E+02  0.42460E+04
 0.60999996E+02  0.13469E+05
 0.61049995E+02  0.19289E+05
 0.61099995E+02  0.16708E+05
 0.61149998E+02  0.12051E+05
 0.61199997E+02  0.70227E+04
 0.61249996E+02  0.34551E+04
 0.61299995E+02 -0.14239E+04
 0.61349995E+02 -0.41937E+04
 0.61399998E+02 -0.31086E+04
 0.61449997E+02  0.31000E+04
 0.61499996E+02  0.72171E+04
 0.61549995E+02  0.77735E+04
 0.61599995E+02  0.83933E+04
 0.61649998E+02  0.72538E+04
 0.61699997E+02  0.53144E+04
 0.61749996E+02  0.46466E+04
 0.61799995E+02  0.48395E+04
 0.61849995E+02  0.31037E+04
 0.61899998E+02  0.22025E+04
 0.61949997E+02  0.32725E+04
 0.61999996E+02  0.20170E+04
 0.62049995E+02 -0.15730E+04
 0.62099998E+02 -0.48339E+04
 0.62149994E+02 -0.82491E+04
 0.62199997E+02 -0.65586E+04
 0.62249992E+02 -0.29598E+04
 0.62299995E+02 -0.67407E+03
 0.62349998E+02 -0.33983E+03
 0.62399994E+02  0.48774E+03
 0.62449997E+02  0.18066E+04
 0.62499992E+02  0.18894E+04
 0.62549995E+02  0.69701E+04
 0.62599998E+02  0.10562E+05
 0.62649994E+02  0.11141E+05
 0.62699997E+02  0.97614E+04
 0.62749992E+02  0.74667E+04
 0.62799995E+02  0.72932E+04
 0.62849998E+02  0.72268E+04
 0.62899994E+02  0.65731E+04
 0.62949997E+02  0.66647E+04
 0.62999992E+02  0.56201E+04
 0.63049995E+02  0.28003E+04
 0.63099998E+02  0.17656E+04
 0.63149994E+02  0.30495E+04
 0.63199997E+02  0.50352E+04
 0.63249992E+02  0.56411E+04
 0.63299995E+02  0.32693E+04
 0.63349998E+02  0.19035E+04
 0.63399994E+02  0.13775E+04
 0.63449997E+02  0.22681E+04
 0.63499992E+02  0.68472E+04
 0.63549995E+02  0.90940E+04
 0.63599998E+02  0.61162E+04
 0.63649994E+02  0.14628E+03
 0.63699997E+02 -0.18502E+04
 0.63749992E+02 -0.26780E+04
 0.63799995E+02 -0.28260E+04
 0.63849998E+02 -0.12167E+04
 0.63899994E+02  0.23090E+04
 0.63949997E+02  0.46154E+04
 0.63999992E+02  0.41343E+04
 0.64049995E+02  0.44108E+04
 0.64099998E+02  0.22697E+04
 0.64149994E+02  0.19982E+04
 0.64199997E+02  0.42286E+04
 0.64249992E+02  0.65736E+04
 0.64299995E+02  0.75874E+04
 0.64349998E+02  0.77118E+04
 0.64399994E+02  0.67881E+04
 0.64449997E+02  0.60284E+04
 0.64499992E+02  0.53278E+04
 0.64549995E+02  0.15634E+04
 0.64599998E+02 -0.57061E+03
 0.64649994E+02 -0.17389E+03
 0.64699997E+02  0.28308E+04
 0.64749992E+02  0.61247E+04
 0.64799995E+02  0.57533E+04
 0.64849998E+02  0.25951E+04
 0.64899994E+02 -0.16566E+03
 0.64949997E+02  0.24081E+04
 0.64999992E+02  0.66361E+04
 0.65049995E+02  0.10197E+05
 0.65099998E+02  0.12663E+05
 0.65149994E+02  0.15164E+05
 0.65199997E+02  0.12438E+05
 0.65249992E+02  0.39317E+04
 0.65299995E+02 -0.10659E+04
 0.65349998E+02 -0.31922E+04
 0.65399994E+02 -0.32524E+04
 0.65449997E+02 -0.13611E+03
 0.65499992E+02  0.58929E+04
 0.65549995E+02  0.87030E+04
 0.65599998E+02  0.60165E+04
 0.65649994E+02  0.33254E+04
 0.65699997E+02  0.34799E+04
 0.65749992E+02  0.38251E+04
 0.65799995E+02  0.46145E+04
 0.65849998E+02  0.43720E+04
 0.65899994E+02  0.61279E+04
 0.65949997E+02  0.80975E+04
 0.65999992E+02  0.60597E+04
 0.66049995E+02  0.37097E+04
 0.66099998E+02  0.49236E+04
 0.66149994E+02  0.81107E+04
 0.66199997E+02  0.47239E+04
 0.66249992E+02 -0.70609E+03
 0.66299995E+02 -0.40715E+04
 0.66349998E+02 -0.60025E+04
 0.66399994E+02 -0.51414E+04
 0.66449997E+02 -0.32284E+04
 0.66499992E+02 -0.47645E+03
 0.66549995E+02  0.50297E+04
 0.66599998E+02  0.80373E+04
 0.66649994E+02  0.54914E+04
 0.66699997E+02  0.13043E+04
 0.66749992E+02  0.84714E+03
 0.66799995E+02  0.32544E+04
 0.66849998E+02  0.72211E+04
 0.66899994E+02  0.11932E+05
 0.66949997E+02  0.12382E+05
 0.66999992E+02  0.93469E+04
 0.67049995E+02  0.50545E+04
 0.67099998E+02  0.25169E+04
 0.67149994E+02  0.99492E+03
 0.67199997E+02  0.17932E+04
 0.67249992E+02  0.43014E+04
 0.67299995E+02  0.61613E+04
 0.67349998E+02  0.64778E+04
 0.67399994E+02  0.66439E+04
 0.67449997E+02  0.57669E+04
 0.67499992E+02  0.75565E+04
 0.67549995E+02  0.94908E+04
 0.67599998E+02  0.74198E+04
 0.67649994E+02  0.67309E+04
 0.67699997E+02  0.46826E+04
 0.67749992E+02  0.38720E+04
 0.67799995E+02  0.48857E+04
 0.67849998E+02  0.79993E+04
 0.67899994E+02  0.10257E+05
 0.67949997E+02  0.97210E+04
 0.67999992E+02  0.83303E+04
 0.68049995E+02  0.58359E+04
 0.68099998E+02  0.30688E+04
 0.68149994E+02 -0.54504E+03
 0.68199997E+02 -0.40002E+04
 0.68249992E+02 -0.44050E+04
 0.68299995E+02 -0.20508E+04
 0.68349998E+02 -0.28575E+03
 0.68399994E+02  0.38142E+03
 0.68449997E+02 -0.76761E+03
 0.68499992E+02 -0.30513E+04
 0.68549995E+02 -0.61494E+04
 0.68599998E+02 -0.77099E+04
 0.68649994E+02 -0.81206E+04
 0.68699997E+02 -0.46652E+04
 0.68749992E+02  0.42879E+04
 0.68799995E+02  0.11648E+05
 0.68849998E+02  0.14903E+05
 0.68899994E+02  0.13352E+05
 0.68949997E+02  0.10450E+05
 0.68999992E+02  0.83762E+04
 0.69049995E+02  0.72378E+04
 0.69099998E+02  0.59703E+04
 0.69149994E+02  0.40561E+04
 0.69199997E+02  0.41679E+04
 0.69249992E+02  0.63098E+04
 0.69299995E+02  0.74261E+04
 0.69349998E+02  0.66946E+04
 0.69399994E+02  0.74385E+04
 0.69449997E+02  0.93916E+04
 0.69499992E+02  0.10358E+05
 0.69549995E+02  0.85108E+04
 0.69599998E+02  0.61375E+04
 0.69649994E+02  0.47269E+04
 0.69699997E+02  0.39778E+04
 0.69749992E+02  0.34162E+04
 0.69799995E+02  0.27614E+04
 0.69849998E+02  0.32991E+04
 0.69899994E+02  0.27702E+04
 0.69949997E+02  0.24927E+04
 0.69999992E+02  0.14269E+04
 0.70049995E+02 -0.37668E+03
 0.70099998E+02 -0.27451E+04
 0.70149994E+02 -0.52318E+04
 0.70199997E+02 -0.40270E+04
 0.70249992E+02  0.89614E+03
 0.70299995E+02  0.46359E+04
 0.70349998E+02  0.57228E+04
 0.70399994E+02  0.58863E+04
 0.70449997E+02  0.43834E+04
 0.70499992E+02  0.35010E+04
 0.70549995E+02  0.28741E+04
 0.70599998E+02  0.15033E+04
 0.70649994E+02 -0.31889E+03
 0.70699997E+02  0.17747E+03
 0.70749992E+02  0.44533E+03
 0.70799995E+02  0.23527E+03
 0.70849998E+02  0.85421E+03
 0.70899994E+02  0.23956E+04
 0.70949997E+02  0.41674E+04
 0.70999992E+02  0.45802E+04
 0.71049995E+02  0.44178E+04
 0.71099998E+02  0.39435E+04
 0.71149994E+02  0.48261E+04
 0.71199997E+02  0.62212E+04
 0.71249992E+02  0.87393E+04
 0.71299995E+02  0.11660E+05
 0.71349998E+02  0.12489E+05
 0.71399994E+02  0.10852E+05
 0.71449997E+02  0.91057E+04
 0.71499992E+02  0.71873E+04
 0.71549995E+02  0.52861E+04
 0.71599998E+02  0.44599E+04
 0.71649994E+02  0.45551E+04
 0.71699997E+02  0.43245E+04
 0.71749992E+02  0.30977E+04
 0.71799995E+02  0.17565E+04
 0.71849998E+02  0.31267E+03
 0.71899994E+02 -0.92325E+03
 0.71949997E+02 -0.87812E+03
 0.71999992E+02  0.60655E+03
 0.72049995E+02  0.27218E+04
 0.72099998E+02  0.53678E+04
 0.72149994E+02  0.69993E+04
 0.72199997E+02  0.62545E+04
 0.72249992E+02  0.47145E+04
 0.72299995E+02  0.23661E+04
 0.72349998E+02  0.66189E+03
 0.72399994E+02  0.25240E+04
 0.72449997E+02  0.56372E+04
 0.72499992E+02  0.83355E+04
 0.72549995E+02  0.91356E+04
 0.72599998E+02  0.77022E+04
 0.72649994E+02  0.66361E+04
 0.72699997E+02  0.56410E+04
 0.72749992E+02  0.43426E+04
 0.72799995E+02  0.33909E+04
 0.72849998E+02  0.26537E+04
 0.72899994E+02  0.17388E+04
 0.72949997E+02  0.11544E+04
 0.72999992E+02  0.19406E+04
 0.73049995E+02  0.20443E+04
 0.73099998E+02  0.18711E+04
 0.73149994E+02  0.17501E+04
 0.73199997E+02  0.17544E+04
 0.73249992E+02  0.24326E+04
 0.73299995E+02  0.31474E+04
 0.73349998E+02  0.52161E+04
 0.73399994E+02  0.73524E+04
 0.73449997E+02  0.84341E+04
 0.73499992E+02  0.79596E+04
 0.73549995E+02  0.52644E+04
 0.73599998E+02  0.22813E+04
 0.73649994E+02  0.10855E+04
 0.73699997E+02  0.16449E+04
 0.73749992E+02  0.13488E+04
 0.73799995E+02  0.10766E+04
 0.73849998E+02  0.12811E+04
 0.73899994E+02  0.22787E+04
 0.73949997E+02  0.50455E+04
 0.73999992E+02  0.78729E+04
 0.74049995E+02  0.96259E+04
 0.74099998E+02  0.93711E+04
 0.74149994E+02  0.87833E+04
 0.74199997E+02  0.70806E+04
 0.74249992E+02  0.61667E+04
 0.74299995E+02  0.52871E+04
 0.74349998E+02  0.23473E+04
 0.74399994E+02 -0.15457E+04
 0.74449997E+02 -0.49700E+04
 0.74499992E+02 -0.34695E+04
 0.74549995E+02  0.39108E+03
 0.74599998E+02  0.36249E+04
 0.74649994E+02  0.58587E+04
 0.74699997E+02  0.58068E+04
 0.74749992E+02  0.49112E+04
 0.74799995E+02  0.44180E+04
 0.74849998E+02  0.37801E+04
 0.74899994E+02  0.27751E+04
 0.74949997E+02  0.93555E+03
 0.74999992E+02 -0.49229E+03
 0.75049995E+02 -0.35365E+03
 0.75099998E+02  0.23920E+03
 0.75149994E+02  0.92988E+03
 0.75199997E+02  0.96646E+03
 0.75249992E+02  0.18120E+04
 0.75299995E+02  0.31758E+04
 0.75349998E+02  0.41286E+04
 0.75399994E+02  0.60989E+04
 0.75449997E+02  0.88343E+04
 0.75499992E+02  0.11221E+05
 0.75549995E+02  0.13029E+05
 0.75599998E+02  0.14112E+05
 0.75649994E+02  0.14089E+05
 0.75699997E+02  0.12548E+05
 0.75749992E+02  0.10976E+05
 0.75799995E+02  0.10593E+05
 0.75849998E+02  0.10184E+05
 0.75899994E+02  0.84927E+04
 0.75949997E+02  0.46718E+04
 0.75999992E+02  0.78812E+03
 0.76049995E+02 -0.32224E+04
 0.76099998E+02 -0.75071E+04
 0.76149994E+02 -0.10200E+05
 0.76199997E+02 -0.96629E+04
 0.76249992E+02 -0.65543E+04
 0.76299995E+02 -0.32213E+04
 0.76349998E+02 -0.12586E+03
 0.76399994E+02  0.25578E+04
 0.76449997E+02  0.44413E+04
 0.76499992E+02  0.42189E+04
 0.76549995E+02  0.18642E+04
 0.76599998E+02  0.83678E+03
 0.76649994E+02  0.20285E+04
 0.76699997E+02  0.40576E+04
 0.76749992E+02  0.68975E+04
 0.76799995E+02  0.87832E+04
 0.76849998E+02  0.96668E+04
 0.76899994E+02  0.10213E+05
 0.76949997E+02  0.10688E+05
 0.76999992E+02  0.97567E+04
 0.77049995E+02  0.79451E+04
 0.77099998E+02  0.80562E+04
 0.77149994E+02  0.97407E+04
 0.77199997E+02  0.10974E+05
 0.77249992E+02  0.10190E+05
 0.77299995E+02  0.85530E+04
 0.77349998E+02  0.69865E+04
 0.77399994E+02  0.48029E+04
 0.77449997E+02  0.23850E+04
 0.77499992E+02  0.10201E+04
 0.77549995E+02  0.23039E+03
 0.77599998E+02 -0.35540E+03
 0.77649994E+02 -0.60920E+03
 0.77699997E+02 -0.23782E+04
 0.77749992E+02 -0.50670E+04
 0.77799995E+02 -0.65029E+04
 0.77849998E+02 -0.60738E+04
 0.77899994E+02 -0.42137E+04
 0.77949997E+02 -0.22577E+04
 0.77999992E+02 -0.59635E+03
 0.78049995E+02  0.44428E+03
 0.78099998E+02  0.17434E+04
 0.78149994E+02  0.39167E+04
 0.78199997E+02  0.62362E+04
 0.78249992E+02  0.79868E+04
 0.78299995E+02  0.98400E+04
 0.78349998E+02  0.11659E+05
 0.78399994E+02  0.12591E+05
 0.78449997E+02  0.12129E+05
 0.78499992E+02  0.10387E+05
 0.78549995E+02  0.92284E+04
 0.78599998E+02  0.95393E+04
 0.78649994E+02  0.96310E+04
 0.78699997E+02  0.86684E+04
 0.78749992E+02  0.72267E+04
 0.78799995E+02  0.54137E+04
 0.78849998E+02  0.40665E+04
 0.78899994E+02  0.25447E+04
 0.78949997E+02  0.11484E+04
 0.78999992E+02  0.12732E+04
 0.79049995E+02  0.28181E+04
 0.79099998E+02  0.49305E+04
 0.79149994E+02  0.66774E+04
 0.79199997E+02  0.72192E+04
 0.79249992E+02  0.69256E+04
 0.79299995E+02  0.59341E+04
 0.79349998E+02  0.40539E+04
 0.79399994E+02  0.12257E+04
 0.79449997E+02 -0.24384E+04
 0.79499992E+02 -0.53263E+04
 0.79549995E+02 -0.65128E+04
 0.79599998E+02 -0.58261E+04
 0.79649994E+02 -0.43883E+04
 0.79699997E+02 -0.25146E+04
 0.79749992E+02 -0.66073E+03
 0.79799995E+02  0.10308E+04
 0.79849998E+02  0.27186E+04
 0.79899994E+02  0.36086E+04
 0.79949997E+02  0.41926E+04
 0.79999992E+02  0.45317E+04
 0.80049995E+02  0.39199E+04
 0.80099998E+02  0.34636E+04
 0.80149994E+02  0.37362E+04
 0.80199997E+02  0.43639E+04
 0.80249992E+02  0.56902E+04
 0.80299995E+02  0.76602E+04
 0.80349998E+02  0.91363E+04
 0.80399994E+02  0.87964E+04
 0.80449997E+02  0.85741E+04
 0.80499992E+02  0.90553E+04
 0.80549995E+02  0.83432E+04
 0.80599998E+02  0.67330E+04
 0.80649994E+02  0.55961E+04
 0.80699997E+02  0.49701E+04
 0.80749992E+02  0.50424E+04
 0.80799995E+02  0.56772E+04
 0.80849998E+02  0.62805E+04
 0.80899994E+02  0.55957E+04
 0.80949997E+02  0.43994E+04
 0.80999992E+02  0.42404E+04
 0.81049995E+02  0.31445E+04
 0.81099998E+02  0.87645E+03
 0.81149994E+02 -0.25118E+02
 0.81199997E+02  0.17040E+04
 0.81249992E+02  0.38735E+04
 0.81299995E+02  0.45401E+04
 0.81349998E+02  0.35809E+04
 0.81399994E+02  0.24708E+04
 0.81449997E+02  0.30318E+04
 0.81499992E+02  0.37647E+04
 0.81549995E+02  0.40205E+04
 0.81599998E+02  0.38769E+04
 0.81649994E+02  0.25836E+04
 0.81699997E+02  0.23344E+04
 0.81749992E+02  0.34172E+04
 0.81799995E+02  0.55824E+04
 0.81849998E+02  0.79434E+04
 0.81899994E+02  0.80288E+04
 0.81949997E+02  0.68608E+04
 0.81999992E+02  0.50393E+04
 0.82049995E+02  0.38108E+04
 0.82099998E+02  0.33566E+04
 0.82149994E+02  0.35424E+04
 0.82199997E+02  0.43480E+04
 0.82249992E+02  0.47351E+04
 0.82299995E+02  0.43507E+04
 0.82349998E+02  0.26290E+04
 0.82399994E+02  0.12223E+03
 0.82449997E+02 -0.27841E+04
 0.82499992E+02 -0.40839E+04
 0.82549995E+02 -0.24181E+04
 0.82599998E+02  0.88943E+03
 0.82649994E+02  0.50625E+04
 0.82699997E+02  0.84705E+04
 0.82749992E+02  0.10109E+05
 0.82799995E+02  0.92925E+04
 0.82849998E+02  0.61400E+04
 0.82899994E+02  0.30203E+04
 0.82949997E+02  0.10288E+04
 0.82999992E+02  0.78642E+03
 0.83049995E+02  0.19267E+04
 0.83099998E+02  0.37262E+04
 0.83149994E+02  0.49508E+04
 0.83199997E+02  0.48725E+04
 0.83249992E+02  0.40418E+04
 0.83299995E+02  0.35750E+04
 0.83349998E+02  0.34707E+04
 0.83399994E+02  0.25454E+04
 0.83449997E+02  0.19509E+04
 0.83499992E+02  0.20770E+04
 0.83549995E+02  0.29080E+04
 0.83599998E+02  0.35519E+04
 0.83649994E+02  0.36006E+04
 0.83699997E+02  0.42871E+04
 0.83749992E+02  0.51518E+04
 0.83799995E+02  0.56356E+04
 0.83849998E+02  0.62918E+04
 0.83899994E+02  0.66215E+04
 0.83949997E+02  0.66235E+04
 0.83999992E+02  0.72088E+04
 0.84049995E+02  0.72606E+04
 0.84099998E+02  0.74740E+04
 0.84149994E+02  0.73309E+04
 0.84199997E+02  0.60625E+04
 0.84249992E+02  0.44260E+04
 0.84299995E+02  0.30342E+04
 0.84349998E+02  0.31760E+04
 0.84399994E+02  0.39468E+04
 0.84449997E+02  0.49414E+04
 0.84499992E+02  0.60280E+04
 0.84549995E+02  0.66522E+04
 0.84599998E+02  0.64438E+04
 0.84649994E+02  0.54726E+04
 0.84699997E+02  0.43594E+04
 0.84749992E+02  0.26038E+04
 0.84799995E+02  0.50319E+03
 0.84849998E+02 -0.45917E+03
 0.84899994E+02 -0.41257E+03
 0.84949997E+02  0.72130E+03
 0.84999992E+02  0.27404E+04
 0.85049995E+02  0.50497E+04
 0.85099998E+02  0.68394E+04
 0.85149994E+02  0.69315E+04
 0.85199997E+02  0.61496E+04
 0.85249992E+02  0.49220E+04
 0.85299995E+02  0.32321E+04
 0.85349998E+02  0.21624E+04
 0.85399994E+02  0.22302E+04
 0.85449997E+02  0.35414E+04
 0.85499992E+02  0.58182E+04
 0.85549995E+02  0.68641E+04
 0.85599998E+02  0.63624E+04
 0.85649994E+02  0.45380E+04
 0.85699997E+02  0.25983E+04
 0.85749992E+02  0.24525E+04
 0.85799995E+02  0.38039E+04
 0.85849998E+02  0.55678E+04
 0.85899994E+02  0.67683E+04
 0.85949997E+02  0.78847E+04
 0.85999992E+02  0.82444E+04
 0.86049995E+02  0.75048E+04
 0.86099998E+02  0.67886E+04
 0.86149994E+02  0.58346E+04
 0.86199997E+02  0.37810E+04
 0.86249992E+02  0.18595E+04
 0.86299995E+02  0.20721E+03
 0.86349998E+02 -0.14206E+04
 0.86399994E+02 -0.28866E+04
 0.86449997E+02 -0.35087E+04
 0.86499992E+02 -0.29366E+04
 0.86549995E+02 -0.27984E+04
 0.86599998E+02 -0.25697E+04
 0.86649994E+02 -0.20201E+04
 0.86699997E+02 -0.10137E+04
 0.86749992E+02  0.15981E+03
 0.86799995E+02  0.53380E+03
 0.86849998E+02  0.81310E+03
 0.86899994E+02  0.11459E+04
 0.86949997E+02  0.18140E+04
 0.86999992E+02  0.34162E+04
 0.87049995E+02  0.49419E+04
 0.87099998E+02  0.61630E+04
 0.87149994E+02  0.64573E+04
 0.87199997E+02  0.56586E+04
 0.87249992E+02  0.43888E+04
 0.87299995E+02  0.34864E+04
 0.87349998E+02  0.42263E+04
 0.87399994E+02  0.55559E+04
 0.87449997E+02  0.67002E+04
 0.87499992E+02  0.69859E+04
 0.87549995E+02  0.69050E+04
 0.87599991E+02  0.71522E+04
 0.87649994E+02  0.79468E+04
 0.87699997E+02  0.92378E+04
 0.87749992E+02  0.98101E+04
 0.87799995E+02  0.93102E+04
 0.87849991E+02  0.85097E+04
 0.87899994E+02  0.77065E+04
 0.87949997E+02  0.67620E+04
 0.87999992E+02  0.57063E+04
 0.88049995E+02  0.46974E+04
 0.88099991E+02  0.44973E+04
 0.88149994E+02  0.38253E+04
 0.88199997E+02  0.22788E+04
 0.88249992E+02  0.10950E+04
 0.88299995E+02  0.60718E+03
 0.88349991E+02  0.77569E+03
 0.88399994E+02  0.10161E+04
 0.88449997E+02  0.17794E+04
 0.88499992E+02  0.26905E+04
 0.88549995E+02  0.33418E+04
 0.88599991E+02  0.46358E+04
 0.88649994E+02  0.61289E+04
 0.88699997E+02  0.74770E+04
 0.88749992E+02  0.86188E+04
 0.88799995E+02  0.93621E+04
 0.88849991E+02  0.95639E+04
 0.88899994E+02  0.85802E+04
 0.88949997E+02  0.68056E+04
 0.88999992E+02  0.47721E+04
 0.89049995E+02  0.25115E+04
 0.89099991E+02  0.66739E+03
 0.89149994E+02 -0.71782E+03
 0.89199997E+02 -0.18479E+04
 0.89249992E+02 -0.19478E+04
 0.89299995E+02 -0.67747E+03
 0.89349991E+02  0.10251E+04
 0.89399994E+02  0.24580E+04
 0.89449997E+02  0.22585E+04
 0.89499992E+02  0.54751E+03
 0.89549995E+02 -0.42235E+03
 0.89599991E+02  0.23830E+03
 0.89649994E+02  0.20744E+04
 0.89699997E+02  0.37682E+04
 0.89749992E+02  0.50307E+04
 0.89799995E+02  0.66538E+04
 0.89849991E+02  0.86658E+04
 0.89899994E+02  0.99952E+04
 0.89949997E+02  0.10150E+05
 0.89999992E+02  0.99083E+04
 0.90049995E+02  0.97149E+04
 0.90099991E+02  0.91192E+04
 0.90149994E+02  0.81275E+04
 0.90199997E+02  0.64562E+04
 0.90249992E+02  0.43720E+04
 0.90299995E+02  0.21758E+04
 0.90349991E+02  0.95750E+02
 0.90399994E+02 -0.83196E+03
 0.90449997E+02 -0.62491E+03
 0.90499992E+02  0.47554E+03
 0.90549995E+02  0.15135E+04
 0.90599991E+02  0.17480E+04
 0.90649994E+02  0.11869E+04
 0.90699997E+02  0.65752E+02
 0.90749992E+02 -0.76022E+03
 0.90799995E+02 -0.28958E+03
 0.90849991E+02  0.11065E+04
 0.90899994E+02  0.25688E+04
 0.90949997E+02  0.35471E+04
 0.90999992E+02  0.39227E+04
 0.91049995E+02  0.45579E+04
 0.91099991E+02  0.51938E+04
 0.91149994E+02  0.56983E+04
 0.91199997E+02  0.62881E+04
 0.91249992E+02  0.64962E+04
 0.91299995E+02  0.64250E+04
 0.91349991E+02  0.61581E+04
 0.91399994E+02  0.55774E+04
 0.91449997E+02  0.46037E+04
 0.91499992E+02  0.37098E+04
 0.91549995E+02  0.32439E+04
 0.91599991E+02  0.27259E+04
 0.91649994E+02  0.17611E+04
 0.91699997E+02  0.73474E+03
 0.91749992E+02  0.39805E+02
 0.91799995E+02  0.14181E+03
 0.91849991E+02  0.14237E+04
 0.91899994E+02  0.35112E+04
 0.91949997E+02  0.56006E+04
 0.91999992E+02  0.66267E+04
 0.92049995E+02  0.62316E+04
 0.92099991E+02  0.57613E+04
 0.92149994E+02  0.57349E+04
 0.92199997E+02  0.55617E+04
 0.92249992E+02  0.59122E+04
 0.92299995E+02  0.64884E+04
 0.92349991E+02  0.63819E+04
 0.92399994E+02  0.54352E+04
 0.92449997E+02  0.47869E+04
 0.92499992E+02  0.45985E+04
 0.92549995E+02  0.45103E+04
 0.92599991E+02  0.48620E+04
 0.92649994E+02  0.50149E+04
 0.92699997E+02  0.47573E+04
 0.92749992E+02  0.44019E+04
 0.92799995E+02  0.48086E+04
 0.92849991E+02  0.60955E+04
 0.92899994E+02  0.76606E+04
 0.92949997E+02  0.85656E+04
 0.92999992E+02  0.86359E+04
 0.93049995E+02  0.83720E+04
 0.93099991E+02  0.75939E+04
 0.93149994E+02  0.67418E+04
 0.93199997E+02  0.62324E+04
 0.93249992E+02  0.62240E+04
 0.93299995E+02  0.61781E+04
 0.93349991E+02  0.53946E+04
 0.93399994E+02  0.39371E+04
 0.93449997E+02  0.20998E+04
 0.93499992E+02 -0.11128E+03
 0.93549995E+02 -0.25573E+04
 0.93599991E+02 -0.39945E+04
 0.93649994E+02 -0.40067E+04
 0.93699997E+02 -0.33486E+04
 0.93749992E+02 -0.28226E+04
 0.93799995E+02 -0.22011E+04
 0.93849991E+02 -0.12867E+04
 0.93899994E+02 -0.52181E+03
 0.93949997E+02 -0.21364E+03
 0.93999992E+02 -0.17290E+03
 0.94049995E+02 -0.28290E+03
 0.94099991E+02 -0.40803E+03
 0.94149994E+02 -0.16635E+02
 0.94199997E+02  0.75600E+03
 0.94249992E+02  0.22605E+04
 0.94299995E+02  0.45674E+04
 0.94349991E+02  0.64596E+04
 0.94399994E+02  0.70236E+04
 0.94449997E+02  0.71014E+04
 0.94499992E+02  0.70879E+04
 0.94549995E+02  0.73262E+04
 0.94599991E+02  0.82472E+04
 0.94649994E+02  0.95320E+04
 0.94699997E+02  0.10586E+05
 0.94749992E+02  0.10931E+05
 0.94799995E+02  0.10444E+05
 0.94849991E+02  0.93665E+04
 0.94899994E+02  0.80493E+04
 0.94949997E+02  0.69878E+04
 0.94999992E+02  0.63287E+04
 0.95049995E+02  0.60665E+04
 0.95099991E+02  0.61841E+04
 0.95149994E+02  0.55472E+04
 0.95199997E+02  0.42948E+04
 0.95249992E+02  0.31678E+04
 0.95299995E+02  0.22038E+04
 0.95349991E+02  0.14391E+04
 0.95399994E+02  0.13492E+04
 0.95449997E+02  0.15627E+04
 0.95499992E+02  0.20701E+04
 0.95549995E+02  0.25266E+04
 0.95599991E+02  0.25900E+04
 0.95649994E+02  0.22868E+04
 0.95699997E+02  0.18514E+04
 0.95749992E+02  0.18034E+04
 0.95799995E+02  0.18024E+04
 0.95849991E+02  0.20591E+04
 0.95899994E+02  0.26171E+04
 0.95949997E+02  0.38443E+04
 0.95999992E+02  0.52715E+04
 0.96049995E+02  0.62848E+04
 0.96099991E+02  0.62708E+04
 0.96149994E+02  0.52737E+04
 0.96199997E+02  0.39802E+04
 0.96249992E+02  0.27768E+04
 0.96299995E+02  0.21335E+04
 0.96349991E+02  0.20759E+04
 0.96399994E+02  0.23737E+04
 0.96449997E+02  0.30890E+04
 0.96499992E+02  0.40433E+04
 0.96549995E+02  0.47631E+04
 0.96599991E+02  0.52523E+04
 0.96649994E+02  0.52320E+04
 0.96699997E+02  0.50759E+04
 0.96749992E+02  0.50656E+04
 0.96799995E+02  0.51710E+04
 0.96849991E+02  0.56222E+04
 0.96899994E+02  0.63387E+04
 0.96949997E+02  0.69134E+04
 0.96999992E+02  0.72502E+04
 0.97049995E+02  0.71281E+04
 0.97099991E+02  0.62950E+04
 0.97149994E+02  0.52451E+04
 0.97199997E+02  0.42858E+04
 0.97249992E+02  0.31993E+04
 0.97299995E+02  0.21745E+04
 0.97349991E+02  0.16324E+04
 0.97399994E+02  0.12984E+04
 0.97449997E+02  0.12152E+04
 0.97499992E+02  0.14528E+04
 0.97549995E+02  0.19642E+04
 0.97599991E+02  0.25482E+04
 0.97649994E+02  0.33144E+04
 0.97699997E+02  0.41797E+04
 0.97749992E+02  0.49125E+04
 0.97799995E+02  0.55473E+04
 0.97849991E+02  0.54857E+04
 0.97899994E+02  0.50750E+04
 0.97949997E+02  0.51277E+04
 0.97999992E+02  0.52076E+04
