-0.20000000E+01 -0.10303E+05
-0.19500000E+01 -0.90235E+04
-0.19000000E+01 -0.76517E+04
-0.18500000E+01 -0.63591E+04
-0.18000000E+01 -0.52102E+04
-0.17500000E+01 -0.43708E+04
-0.17000000E+01 -0.38194E+04
-0.16500001E+01 -0.35380E+04
-0.16000000E+01 -0.34615E+04
-0.15500000E+01 -0.35009E+04
-0.15000000E+01 -0.36154E+04
-0.14500000E+01 -0.37992E+04
-0.14000001E+01 -0.40785E+04
-0.13500000E+01 -0.43905E+04
-0.13000001E+01 -0.47224E+04
-0.12500000E+01 -0.50479E+04
-0.12000000E+01 -0.54186E+04
-0.11500001E+01 -0.58599E+04
-0.11000000E+01 -0.62363E+04
-0.10500001E+01 -0.64027E+04
-0.10000000E+01 -0.63999E+04
-0.95000005E+00 -0.63199E+04
-0.90000010E+00 -0.61749E+04
-0.85000002E+00 -0.59967E+04
-0.80000007E+00 -0.57938E+04
-0.75000012E+00 -0.56431E+04
-0.70000005E+00 -0.55404E+04
-0.65000010E+00 -0.55119E+04
-0.60000014E+00 -0.56557E+04
-0.55000007E+00 -0.59638E+04
-0.50000012E+00 -0.65204E+04
-0.45000005E+00 -0.73370E+04
-0.40000010E+00 -0.82872E+04
-0.35000014E+00 -0.94916E+04
-0.30000007E+00 -0.10969E+05
-0.25000012E+00 -0.12567E+05
-0.20000005E+00 -0.14289E+05
-0.15000010E+00 -0.16083E+05
-0.10000014E+00 -0.17803E+05
-0.50000072E-01 -0.19352E+05
-0.11920929E-06 -0.20683E+05
 0.49999952E-01 -0.21718E+05
 0.99999905E-01 -0.22371E+05
 0.14999986E+00 -0.22534E+05
 0.19999981E+00 -0.22250E+05
 0.24999976E+00 -0.21620E+05
 0.29999995E+00 -0.20687E+05
 0.34999990E+00 -0.19467E+05
 0.39999986E+00 -0.18035E+05
 0.44999981E+00 -0.16537E+05
 0.49999976E+00 -0.15039E+05
 0.54999995E+00 -0.13637E+05
 0.59999990E+00 -0.12280E+05
 0.64999986E+00 -0.10908E+05
 0.69999981E+00 -0.95441E+04
 0.74999976E+00 -0.81091E+04
 0.79999971E+00 -0.65051E+04
 0.84999990E+00 -0.47363E+04
 0.89999986E+00 -0.28083E+04
 0.94999981E+00 -0.71442E+03
 0.99999976E+00  0.14875E+04
 0.10499997E+01  0.37526E+04
 0.10999999E+01  0.60264E+04
 0.11499999E+01  0.83238E+04
 0.11999998E+01  0.10600E+05
 0.12499998E+01  0.12780E+05
 0.12999997E+01  0.14791E+05
 0.13499999E+01  0.16587E+05
 0.13999999E+01  0.18218E+05
 0.14499998E+01  0.19701E+05
 0.14999998E+01  0.21098E+05
 0.15499997E+01  0.22500E+05
 0.15999999E+01  0.23869E+05
 0.16499999E+01  0.25181E+05
 0.16999998E+01  0.26454E+05
 0.17499998E+01  0.27686E+05
 0.17999997E+01  0.28960E+05
 0.18499997E+01  0.30309E+05
 0.18999999E+01  0.31689E+05
 0.19499998E+01  0.33167E+05
 0.19999998E+01  0.34758E+05
 0.20499997E+01  0.36379E+05
 0.20999999E+01  0.37984E+05
 0.21499996E+01  0.39407E+05
 0.21999998E+01  0.40450E+05
 0.22499995E+01  0.41041E+05
 0.22999997E+01  0.41156E+05
 0.23499999E+01  0.40747E+05
 0.23999996E+01  0.39792E+05
 0.24499998E+01  0.38336E+05
 0.24999995E+01  0.36411E+05
 0.25499997E+01  0.34051E+05
 0.25999999E+01  0.31288E+05
 0.26499996E+01  0.28155E+05
 0.26999998E+01  0.24765E+05
 0.27499995E+01  0.21161E+05
 0.27999997E+01  0.17340E+05
 0.28499999E+01  0.13390E+05
 0.28999996E+01  0.94667E+04
 0.29499998E+01  0.56168E+04
 0.29999995E+01  0.17550E+04
 0.30499997E+01 -0.21570E+04
 0.30999999E+01 -0.61158E+04
 0.31499996E+01 -0.10166E+05
 0.31999998E+01 -0.14242E+05
 0.32499995E+01 -0.18242E+05
 0.32999997E+01 -0.22112E+05
 0.33499999E+01 -0.25766E+05
 0.33999996E+01 -0.29210E+05
 0.34499998E+01 -0.32366E+05
 0.34999995E+01 -0.35160E+05
 0.35499997E+01 -0.37499E+05
 0.35999994E+01 -0.39300E+05
 0.36499996E+01 -0.40571E+05
 0.36999998E+01 -0.41291E+05
 0.37499995E+01 -0.41373E+05
 0.37999997E+01 -0.40898E+05
 0.38499994E+01 -0.39980E+05
 0.38999996E+01 -0.38570E+05
 0.39499998E+01 -0.36671E+05
 0.39999995E+01 -0.34285E+05
 0.40499997E+01 -0.31385E+05
 0.40999994E+01 -0.27949E+05
 0.41499996E+01 -0.23957E+05
 0.41999998E+01 -0.19468E+05
 0.42499995E+01 -0.14541E+05
 0.42999997E+01 -0.92956E+04
 0.43499994E+01 -0.39791E+04
 0.43999996E+01  0.12554E+04
 0.44499998E+01  0.63348E+04
 0.44999995E+01  0.11099E+05
 0.45499997E+01  0.15310E+05
 0.45999994E+01  0.18897E+05
 0.46499996E+01  0.21813E+05
 0.46999998E+01  0.24034E+05
 0.47499995E+01  0.25572E+05
 0.47999997E+01  0.26380E+05
 0.48499994E+01  0.26425E+05
 0.48999996E+01  0.25843E+05
 0.49499998E+01  0.24811E+05
 0.49999995E+01  0.23473E+05
 0.50499997E+01  0.21968E+05
 0.50999994E+01  0.20366E+05
 0.51499996E+01  0.18753E+05
 0.51999998E+01  0.17166E+05
 0.52499995E+01  0.15639E+05
 0.52999997E+01  0.14259E+05
 0.53499994E+01  0.13027E+05
 0.53999996E+01  0.11826E+05
 0.54499993E+01  0.10644E+05
 0.54999995E+01  0.94448E+04
 0.55499997E+01  0.82267E+04
 0.55999994E+01  0.70932E+04
 0.56499996E+01  0.59388E+04
 0.56999993E+01  0.47061E+04
 0.57499995E+01  0.34598E+04
 0.57999997E+01  0.22895E+04
 0.58499994E+01  0.12227E+04
 0.58999996E+01  0.31043E+03
 0.59499993E+01 -0.43625E+03
 0.59999995E+01 -0.11177E+04
 0.60499992E+01 -0.17740E+04
 0.60999994E+01 -0.24461E+04
 0.61499996E+01 -0.30987E+04
 0.61999998E+01 -0.38582E+04
 0.62499990E+01 -0.48449E+04
 0.62999992E+01 -0.60625E+04
 0.63499994E+01 -0.74805E+04
 0.63999996E+01 -0.91034E+04
 0.64499998E+01 -0.10926E+05
 0.64999990E+01 -0.12885E+05
 0.65499992E+01 -0.14903E+05
 0.65999994E+01 -0.16809E+05
 0.66499996E+01 -0.18462E+05
 0.66999998E+01 -0.19858E+05
 0.67499990E+01 -0.21091E+05
 0.67999992E+01 -0.22101E+05
 0.68499994E+01 -0.22851E+05
 0.68999996E+01 -0.23345E+05
 0.69499998E+01 -0.23576E+05
 0.69999990E+01 -0.23617E+05
 0.70499992E+01 -0.23448E+05
 0.70999994E+01 -0.23054E+05
 0.71499996E+01 -0.22529E+05
 0.71999998E+01 -0.21913E+05
 0.72499990E+01 -0.21184E+05
 0.72999992E+01 -0.20302E+05
 0.73499994E+01 -0.19296E+05
 0.73999996E+01 -0.18186E+05
 0.74499998E+01 -0.17037E+05
 0.74999990E+01 -0.15825E+05
 0.75499992E+01 -0.14487E+05
 0.75999994E+01 -0.13150E+05
 0.76499996E+01 -0.11855E+05
 0.76999998E+01 -0.10578E+05
 0.77499990E+01 -0.93090E+04
 0.77999992E+01 -0.79877E+04
 0.78499994E+01 -0.65360E+04
 0.78999996E+01 -0.49666E+04
 0.79499998E+01 -0.33065E+04
 0.79999990E+01 -0.15371E+04
 0.80499992E+01  0.35612E+03
 0.80999994E+01  0.23076E+04
 0.81499996E+01  0.42118E+04
 0.81999998E+01  0.61173E+04
 0.82499990E+01  0.79642E+04
 0.82999992E+01  0.96711E+04
 0.83499994E+01  0.11209E+05
 0.83999996E+01  0.12587E+05
 0.84499998E+01  0.13898E+05
 0.84999990E+01  0.15011E+05
 0.85499992E+01  0.15834E+05
 0.85999994E+01  0.16349E+05
 0.86499996E+01  0.16596E+05
 0.86999998E+01  0.16644E+05
 0.87499990E+01  0.16578E+05
 0.87999992E+01  0.16462E+05
 0.88499994E+01  0.16416E+05
 0.88999996E+01  0.16493E+05
 0.89499998E+01  0.16712E+05
 0.89999990E+01  0.17188E+05
 0.90499992E+01  0.17881E+05
 0.90999994E+01  0.18797E+05
 0.91499996E+01  0.19956E+05
 0.91999989E+01  0.21317E+05
 0.92499990E+01  0.22714E+05
 0.92999992E+01  0.24104E+05
 0.93499994E+01  0.25452E+05
 0.93999996E+01  0.26708E+05
 0.94499989E+01  0.27798E+05
 0.94999990E+01  0.28590E+05
 0.95499992E+01  0.29055E+05
 0.95999994E+01  0.29150E+05
 0.96499996E+01  0.28789E+05
 0.96999989E+01  0.27959E+05
 0.97499990E+01  0.26801E+05
 0.97999992E+01  0.25376E+05
 0.98499994E+01  0.23733E+05
 0.98999996E+01  0.21933E+05
 0.99499989E+01  0.20023E+05
 0.99999990E+01  0.17988E+05
 0.10049999E+02  0.15942E+05
 0.10099999E+02  0.13888E+05
 0.10150000E+02  0.11721E+05
 0.10199999E+02  0.94731E+04
 0.10249999E+02  0.72382E+04
 0.10299999E+02  0.50802E+04
 0.10349999E+02  0.30410E+04
 0.10400000E+02  0.11652E+04
 0.10449999E+02 -0.55891E+03
 0.10499999E+02 -0.20954E+04
 0.10549999E+02 -0.34111E+04
 0.10599999E+02 -0.44460E+04
 0.10650000E+02 -0.51448E+04
 0.10699999E+02 -0.55693E+04
 0.10749999E+02 -0.57394E+04
 0.10799999E+02 -0.57369E+04
 0.10849999E+02 -0.56950E+04
 0.10900000E+02 -0.56881E+04
 0.10949999E+02 -0.58299E+04
 0.10999999E+02 -0.62433E+04
 0.11049999E+02 -0.69781E+04
 0.11099999E+02 -0.80591E+04
 0.11150000E+02 -0.95038E+04
 0.11199999E+02 -0.11281E+05
 0.11249999E+02 -0.13398E+05
 0.11299999E+02 -0.15816E+05
 0.11349999E+02 -0.18421E+05
 0.11400000E+02 -0.21036E+05
 0.11449999E+02 -0.23527E+05
 0.11499999E+02 -0.25852E+05
 0.11549999E+02 -0.27945E+05
 0.11599999E+02 -0.29690E+05
 0.11650000E+02 -0.30970E+05
 0.11699999E+02 -0.31724E+05
 0.11749999E+02 -0.32070E+05
 0.11799999E+02 -0.32006E+05
 0.11849999E+02 -0.31473E+05
 0.11900000E+02 -0.30519E+05
 0.11949999E+02 -0.29190E+05
 0.11999999E+02 -0.27442E+05
 0.12049999E+02 -0.25269E+05
 0.12099999E+02 -0.22747E+05
 0.12150000E+02 -0.19942E+05
 0.12199999E+02 -0.17002E+05
 0.12249999E+02 -0.13906E+05
 0.12299999E+02 -0.10584E+05
 0.12349999E+02 -0.70528E+04
 0.12400000E+02 -0.33496E+04
 0.12449999E+02  0.36869E+03
 0.12499999E+02  0.39723E+04
 0.12549999E+02  0.73868E+04
 0.12599999E+02  0.10440E+05
 0.12649999E+02  0.13222E+05
 0.12699999E+02  0.15752E+05
 0.12749999E+02  0.17832E+05
 0.12799999E+02  0.19333E+05
 0.12849999E+02  0.20292E+05
 0.12899999E+02  0.20703E+05
 0.12949999E+02  0.20615E+05
 0.12999999E+02  0.20197E+05
 0.13049999E+02  0.19468E+05
 0.13099999E+02  0.18552E+05
 0.13149999E+02  0.17557E+05
 0.13199999E+02  0.16525E+05
 0.13249999E+02  0.15525E+05
 0.13299999E+02  0.14616E+05
 0.13349999E+02  0.13831E+05
 0.13399999E+02  0.13101E+05
 0.13449999E+02  0.12214E+05
 0.13499999E+02  0.11099E+05
 0.13549999E+02  0.98109E+04
 0.13599999E+02  0.83542E+04
 0.13649999E+02  0.67300E+04
 0.13699999E+02  0.49252E+04
 0.13749999E+02  0.29378E+04
 0.13799999E+02  0.86242E+03
 0.13849999E+02 -0.12255E+04
 0.13899999E+02 -0.31724E+04
 0.13949999E+02 -0.49023E+04
 0.13999999E+02 -0.65308E+04
 0.14049999E+02 -0.80482E+04
 0.14099998E+02 -0.94344E+04
 0.14150000E+02 -0.10616E+05
 0.14199999E+02 -0.11463E+05
 0.14249998E+02 -0.11980E+05
 0.14299999E+02 -0.12148E+05
 0.14349998E+02 -0.12029E+05
 0.14400000E+02 -0.11662E+05
 0.14449999E+02 -0.10958E+05
 0.14499998E+02 -0.10001E+05
 0.14549999E+02 -0.89504E+04
 0.14599998E+02 -0.77733E+04
 0.14650000E+02 -0.63738E+04
 0.14699999E+02 -0.48415E+04
 0.14749998E+02 -0.32534E+04
 0.14799999E+02 -0.15829E+04
 0.14849998E+02  0.25733E+03
 0.14900000E+02  0.21994E+04
 0.14949999E+02  0.41894E+04
 0.14999998E+02  0.63036E+04
 0.15049999E+02  0.85203E+04
 0.15099998E+02  0.10755E+05
 0.15150000E+02  0.12878E+05
 0.15199999E+02  0.14868E+05
 0.15249998E+02  0.16729E+05
 0.15299999E+02  0.18442E+05
 0.15349998E+02  0.19972E+05
 0.15400000E+02  0.21242E+05
 0.15449999E+02  0.22247E+05
 0.15499998E+02  0.22964E+05
 0.15549999E+02  0.23479E+05
 0.15599998E+02  0.23839E+05
 0.15650000E+02  0.24037E+05
 0.15699999E+02  0.24095E+05
 0.15749998E+02  0.23949E+05
 0.15799999E+02  0.23534E+05
 0.15849998E+02  0.22880E+05
 0.15900000E+02  0.22029E+05
 0.15949999E+02  0.20908E+05
 0.15999998E+02  0.19467E+05
 0.16049999E+02  0.17741E+05
 0.16099998E+02  0.15756E+05
 0.16150000E+02  0.13569E+05
 0.16199999E+02  0.11301E+05
 0.16249998E+02  0.89718E+04
 0.16299999E+02  0.65194E+04
 0.16349998E+02  0.39206E+04
 0.16400000E+02  0.13066E+04
 0.16449999E+02 -0.12445E+04
 0.16499998E+02 -0.35892E+04
 0.16549999E+02 -0.57103E+04
 0.16599998E+02 -0.77681E+04
 0.16650000E+02 -0.96378E+04
 0.16699999E+02 -0.11251E+05
 0.16749998E+02 -0.12723E+05
 0.16799999E+02 -0.14035E+05
 0.16849998E+02 -0.15201E+05
 0.16900000E+02 -0.16142E+05
 0.16949999E+02 -0.16774E+05
 0.16999998E+02 -0.17184E+05
 0.17049999E+02 -0.17400E+05
 0.17099998E+02 -0.17393E+05
 0.17150000E+02 -0.17179E+05
 0.17199999E+02 -0.16857E+05
 0.17249998E+02 -0.16413E+05
 0.17299999E+02 -0.15825E+05
 0.17349998E+02 -0.15191E+05
 0.17400000E+02 -0.14603E+05
 0.17449999E+02 -0.14099E+05
 0.17499998E+02 -0.13698E+05
 0.17549999E+02 -0.13352E+05
 0.17599998E+02 -0.12991E+05
 0.17650000E+02 -0.12556E+05
 0.17699999E+02 -0.12092E+05
 0.17749998E+02 -0.11609E+05
 0.17799999E+02 -0.10954E+05
 0.17849998E+02 -0.10024E+05
 0.17900000E+02 -0.88186E+04
 0.17949999E+02 -0.73481E+04
 0.17999998E+02 -0.56162E+04
 0.18049999E+02 -0.36730E+04
 0.18099998E+02 -0.15098E+04
 0.18150000E+02  0.90071E+03
 0.18199999E+02  0.33875E+04
 0.18249998E+02  0.57732E+04
 0.18299999E+02  0.79617E+04
 0.18349998E+02  0.99050E+04
 0.18400000E+02  0.11590E+05
 0.18449999E+02  0.12914E+05
 0.18499998E+02  0.13809E+05
 0.18549999E+02  0.14397E+05
 0.18599998E+02  0.14824E+05
 0.18650000E+02  0.15074E+05
 0.18699999E+02  0.15106E+05
 0.18749998E+02  0.14836E+05
 0.18799999E+02  0.14304E+05
 0.18849998E+02  0.13562E+05
 0.18900000E+02  0.12581E+05
 0.18949999E+02  0.11411E+05
 0.18999998E+02  0.10065E+05
 0.19049999E+02  0.86044E+04
 0.19099998E+02  0.70689E+04
 0.19150000E+02  0.54500E+04
 0.19199999E+02  0.37753E+04
 0.19249998E+02  0.20079E+04
 0.19299999E+02  0.20209E+03
 0.19349998E+02 -0.15582E+04
 0.19400000E+02 -0.33753E+04
 0.19449999E+02 -0.52659E+04
 0.19499998E+02 -0.72235E+04
 0.19549999E+02 -0.92449E+04
 0.19599998E+02 -0.11197E+05
 0.19650000E+02 -0.13008E+05
 0.19699999E+02 -0.14652E+05
 0.19749998E+02 -0.16159E+05
 0.19799999E+02 -0.17546E+05
 0.19849998E+02 -0.18767E+05
 0.19900000E+02 -0.19757E+05
 0.19949999E+02 -0.20459E+05
 0.19999998E+02 -0.20835E+05
 0.20049999E+02 -0.20860E+05
 0.20099998E+02 -0.20591E+05
 0.20150000E+02 -0.20047E+05
 0.20199999E+02 -0.19156E+05
 0.20249998E+02 -0.18027E+05
 0.20299999E+02 -0.16794E+05
 0.20349998E+02 -0.15426E+05
 0.20399998E+02 -0.14003E+05
 0.20449999E+02 -0.12565E+05
 0.20499998E+02 -0.11085E+05
 0.20549999E+02 -0.95793E+04
 0.20599998E+02 -0.81301E+04
 0.20649998E+02 -0.68044E+04
 0.20699999E+02 -0.56789E+04
 0.20749998E+02 -0.47117E+04
 0.20799999E+02 -0.38611E+04
 0.20849998E+02 -0.31752E+04
 0.20899998E+02 -0.27099E+04
 0.20949999E+02 -0.25191E+04
 0.20999998E+02 -0.24895E+04
 0.21049999E+02 -0.25924E+04
 0.21099998E+02 -0.27781E+04
 0.21149998E+02 -0.29925E+04
 0.21199999E+02 -0.31822E+04
 0.21249998E+02 -0.33726E+04
 0.21299999E+02 -0.35308E+04
 0.21349998E+02 -0.35768E+04
 0.21399998E+02 -0.35860E+04
 0.21449999E+02 -0.35851E+04
 0.21499998E+02 -0.35344E+04
 0.21549999E+02 -0.33622E+04
 0.21599998E+02 -0.30721E+04
 0.21649998E+02 -0.26724E+04
 0.21699999E+02 -0.21494E+04
 0.21749998E+02 -0.15036E+04
 0.21799999E+02 -0.69140E+03
 0.21849998E+02  0.28642E+03
 0.21899998E+02  0.13136E+04
 0.21949999E+02  0.23846E+04
 0.21999998E+02  0.35467E+04
 0.22049999E+02  0.47689E+04
 0.22099998E+02  0.60317E+04
 0.22149998E+02  0.72387E+04
 0.22199999E+02  0.83742E+04
 0.22249998E+02  0.95185E+04
 0.22299999E+02  0.10571E+05
 0.22349998E+02  0.11459E+05
 0.22399998E+02  0.12245E+05
 0.22449999E+02  0.12915E+05
 0.22499998E+02  0.13485E+05
 0.22549999E+02  0.14063E+05
 0.22599998E+02  0.14707E+05
 0.22649998E+02  0.15443E+05
 0.22699999E+02  0.16218E+05
 0.22749998E+02  0.16898E+05
 0.22799999E+02  0.17445E+05
 0.22849998E+02  0.17885E+05
 0.22899998E+02  0.18194E+05
 0.22949999E+02  0.18318E+05
 0.22999998E+02  0.18246E+05
 0.23049999E+02  0.18041E+05
 0.23099998E+02  0.17803E+05
 0.23149998E+02  0.17561E+05
 0.23199999E+02  0.17299E+05
 0.23249998E+02  0.17031E+05
 0.23299999E+02  0.16746E+05
 0.23349998E+02  0.16412E+05
 0.23399998E+02  0.16102E+05
 0.23449999E+02  0.15859E+05
 0.23499998E+02  0.15584E+05
 0.23549999E+02  0.15308E+05
 0.23599998E+02  0.15139E+05
 0.23649998E+02  0.15047E+05
 0.23699999E+02  0.14958E+05
 0.23749998E+02  0.14908E+05
 0.23799999E+02  0.14881E+05
 0.23849998E+02  0.14953E+05
 0.23899998E+02  0.15144E+05
 0.23949999E+02  0.15275E+05
 0.23999998E+02  0.15356E+05
 0.24049999E+02  0.15449E+05
 0.24099998E+02  0.15458E+05
 0.24149998E+02  0.15345E+05
 0.24199999E+02  0.15132E+05
 0.24249998E+02  0.14784E+05
 0.24299999E+02  0.14329E+05
 0.24349998E+02  0.13818E+05
 0.24399998E+02  0.13247E+05
 0.24449999E+02  0.12602E+05
 0.24499998E+02  0.11949E+05
 0.24549999E+02  0.11226E+05
 0.24599998E+02  0.10360E+05
 0.24649998E+02  0.93883E+04
 0.24699999E+02  0.82993E+04
 0.24749998E+02  0.70669E+04
 0.24799999E+02  0.57082E+04
 0.24849998E+02  0.43637E+04
 0.24899998E+02  0.30668E+04
 0.24949999E+02  0.17734E+04
 0.24999998E+02  0.49084E+03
 0.25049999E+02 -0.74113E+03
 0.25099998E+02 -0.18858E+04
 0.25149998E+02 -0.29681E+04
 0.25199999E+02 -0.39170E+04
 0.25249998E+02 -0.46443E+04
 0.25299999E+02 -0.51888E+04
 0.25349998E+02 -0.56260E+04
 0.25399998E+02 -0.58554E+04
 0.25449999E+02 -0.58594E+04
 0.25499998E+02 -0.56767E+04
 0.25549999E+02 -0.53582E+04
 0.25599998E+02 -0.50236E+04
 0.25649998E+02 -0.47362E+04
 0.25699999E+02 -0.45948E+04
 0.25749998E+02 -0.46680E+04
 0.25799999E+02 -0.50454E+04
 0.25849998E+02 -0.56474E+04
 0.25899998E+02 -0.63955E+04
 0.25949999E+02 -0.72207E+04
 0.25999998E+02 -0.81173E+04
 0.26049999E+02 -0.91090E+04
 0.26099998E+02 -0.10027E+05
 0.26149998E+02 -0.10906E+05
 0.26199999E+02 -0.11827E+05
 0.26249998E+02 -0.12693E+05
 0.26299999E+02 -0.13414E+05
 0.26349998E+02 -0.13929E+05
 0.26399998E+02 -0.14216E+05
 0.26449999E+02 -0.14255E+05
 0.26499998E+02 -0.13988E+05
 0.26549999E+02 -0.13489E+05
 0.26599998E+02 -0.12845E+05
 0.26649998E+02 -0.12080E+05
 0.26699999E+02 -0.11244E+05
 0.26749998E+02 -0.10318E+05
 0.26799999E+02 -0.92680E+04
 0.26849998E+02 -0.80392E+04
 0.26899998E+02 -0.67383E+04
 0.26949999E+02 -0.54611E+04
 0.26999998E+02 -0.41140E+04
 0.27049997E+02 -0.26250E+04
 0.27099998E+02 -0.11515E+04
 0.27149998E+02  0.12475E+03
 0.27199999E+02  0.14920E+04
 0.27249998E+02  0.29846E+04
 0.27299997E+02  0.44213E+04
 0.27349998E+02  0.56300E+04
 0.27399998E+02  0.65922E+04
 0.27449999E+02  0.72958E+04
 0.27499998E+02  0.78708E+04
 0.27549997E+02  0.80855E+04
 0.27599998E+02  0.77368E+04
 0.27649998E+02  0.69899E+04
 0.27699999E+02  0.58980E+04
 0.27749998E+02  0.47548E+04
 0.27799997E+02  0.34259E+04
 0.27849998E+02  0.17404E+04
 0.27899998E+02 -0.39304E+03
 0.27949999E+02 -0.30314E+04
 0.27999998E+02 -0.59405E+04
 0.28049997E+02 -0.87037E+04
 0.28099998E+02 -0.11311E+05
 0.28149998E+02 -0.13712E+05
 0.28199999E+02 -0.15773E+05
 0.28249998E+02 -0.17466E+05
 0.28299997E+02 -0.18940E+05
 0.28349998E+02 -0.19940E+05
 0.28399998E+02 -0.20434E+05
 0.28449999E+02 -0.20217E+05
 0.28499998E+02 -0.19475E+05
 0.28549997E+02 -0.18761E+05
 0.28599998E+02 -0.18317E+05
 0.28649998E+02 -0.18121E+05
 0.28699999E+02 -0.17622E+05
 0.28749998E+02 -0.16559E+05
 0.28799997E+02 -0.15008E+05
 0.28849998E+02 -0.14053E+05
 0.28899998E+02 -0.13389E+05
 0.28949999E+02 -0.12574E+05
 0.28999998E+02 -0.11700E+05
 0.29049997E+02 -0.10341E+05
 0.29099998E+02 -0.83542E+04
 0.29149998E+02 -0.66010E+04
 0.29199999E+02 -0.52823E+04
 0.29249998E+02 -0.41022E+04
 0.29299997E+02 -0.28577E+04
 0.29349998E+02 -0.14571E+04
 0.29399998E+02  0.47515E+03
 0.29449999E+02  0.28413E+04
 0.29499998E+02  0.43490E+04
 0.29549997E+02  0.52200E+04
 0.29599998E+02  0.60957E+04
 0.29649998E+02  0.71380E+04
 0.29699999E+02  0.80610E+04
 0.29749998E+02  0.96814E+04
 0.29799997E+02  0.11201E+05
 0.29849998E+02  0.11836E+05
 0.29899998E+02  0.12043E+05
 0.29949999E+02  0.11880E+05
 0.29999998E+02  0.12032E+05
 0.30049999E+02  0.12799E+05
 0.30099998E+02  0.13626E+05
 0.30149998E+02  0.13155E+05
 0.30199997E+02  0.11718E+05
 0.30249996E+02  0.98651E+04
 0.30299999E+02  0.81230E+04
 0.30349998E+02  0.74843E+04
 0.30399998E+02  0.67241E+04
 0.30449997E+02  0.48426E+04
 0.30499996E+02  0.21611E+04
 0.30549999E+02 -0.74371E+03
 0.30599998E+02 -0.31344E+04
 0.30649998E+02 -0.51420E+04
 0.30699997E+02 -0.68481E+04
 0.30749996E+02 -0.85952E+04
 0.30799999E+02 -0.10216E+05
 0.30849998E+02 -0.11813E+05
 0.30899998E+02 -0.13897E+05
 0.30949997E+02 -0.15420E+05
 0.30999996E+02 -0.15873E+05
 0.31049999E+02 -0.16291E+05
 0.31099998E+02 -0.16710E+05
 0.31149998E+02 -0.18241E+05
 0.31199997E+02 -0.20822E+05
 0.31249996E+02 -0.21494E+05
 0.31299999E+02 -0.20406E+05
 0.31349998E+02 -0.20084E+05
 0.31399998E+02 -0.21292E+05
 0.31449997E+02 -0.23084E+05
 0.31499996E+02 -0.24867E+05
 0.31549999E+02 -0.26453E+05
 0.31599998E+02 -0.26172E+05
 0.31649998E+02 -0.24218E+05
 0.31699997E+02 -0.21575E+05
 0.31749996E+02 -0.19442E+05
 0.31799999E+02 -0.17645E+05
 0.31849998E+02 -0.14832E+05
 0.31899998E+02 -0.11710E+05
 0.31949997E+02 -0.90844E+04
 0.31999996E+02 -0.57065E+04
 0.32049999E+02 -0.30554E+04
 0.32099998E+02 -0.30915E+04
 0.32149998E+02 -0.32235E+04
 0.32199997E+02 -0.31513E+04
 0.32249996E+02 -0.25201E+04
 0.32299999E+02  0.52678E+03
 0.32349998E+02  0.56032E+04
 0.32399998E+02  0.86817E+04
 0.32449997E+02  0.10332E+05
 0.32499996E+02  0.12581E+05
 0.32549999E+02  0.20378E+05
 0.32599998E+02  0.28563E+05
 0.32649998E+02  0.33362E+05
 0.32699997E+02  0.35989E+05
 0.32749996E+02  0.41352E+05
 0.32799999E+02  0.51480E+05
 0.32849998E+02  0.53506E+05
 0.32899998E+02  0.49618E+05
 0.32949997E+02  0.45437E+05
 0.32999996E+02  0.51952E+05
 0.33049999E+02  0.60527E+05
 0.33099998E+02  0.61814E+05
 0.33149998E+02  0.56903E+05
 0.33199997E+02  0.53148E+05
 0.33249996E+02  0.52808E+05
 0.33299999E+02  0.49829E+05
 0.33349998E+02  0.51359E+05
 0.33399998E+02  0.40648E+05
 0.33449997E+02  0.29060E+05
 0.33499996E+02  0.32307E+05
 0.33549999E+02  0.36438E+05
 0.33599998E+02  0.33158E+05
 0.33649998E+02  0.29939E+05
 0.33699997E+02  0.30143E+05
 0.33749996E+02  0.37984E+05
 0.33799999E+02  0.51208E+05
 0.33849998E+02  0.48607E+05
 0.33899998E+02  0.37805E+05
 0.33949997E+02  0.38750E+05
 0.33999996E+02  0.47235E+05
 0.34049999E+02  0.47447E+05
 0.34099998E+02  0.42115E+05
 0.34149998E+02  0.41275E+05
 0.34199997E+02  0.45430E+05
 0.34249996E+02  0.45481E+05
 0.34299999E+02  0.42650E+05
 0.34349998E+02  0.39807E+05
 0.34399998E+02  0.39004E+05
 0.34449997E+02  0.41520E+05
 0.34499996E+02  0.45523E+05
 0.34549999E+02  0.43832E+05
 0.34599998E+02  0.30174E+05
 0.34649998E+02  0.27233E+05
 0.34699997E+02  0.34089E+05
 0.34749996E+02  0.29754E+05
 0.34799999E+02  0.22864E+05
 0.34849998E+02  0.16223E+05
 0.34899998E+02  0.11777E+05
 0.34949997E+02  0.54523E+04
 0.34999996E+02 -0.44197E+04
 0.35049999E+02 -0.61510E+04
 0.35099998E+02 -0.50780E+04
 0.35149998E+02 -0.11091E+05
 0.35199997E+02 -0.18282E+05
 0.35249996E+02 -0.12363E+05
 0.35299999E+02 -0.15231E+05
 0.35349998E+02 -0.14600E+05
 0.35399998E+02 -0.53415E+04
 0.35449997E+02 -0.17558E+04
 0.35499996E+02 -0.60595E+04
 0.35549999E+02 -0.10529E+05
 0.35599998E+02 -0.14869E+03
 0.35649998E+02  0.11862E+05
 0.35699997E+02  0.19515E+05
 0.35749996E+02  0.22039E+05
 0.35799999E+02  0.31216E+05
 0.35849998E+02  0.21032E+05
 0.35899998E+02  0.97498E+03
 0.35949997E+02 -0.24213E+04
 0.35999996E+02  0.24706E+04
 0.36049999E+02  0.73598E+04
 0.36099998E+02  0.16862E+03
 0.36149998E+02 -0.11659E+05
 0.36199997E+02 -0.25859E+05
 0.36249996E+02 -0.35091E+05
 0.36299999E+02 -0.33363E+05
 0.36349998E+02 -0.34899E+05
 0.36399998E+02 -0.46510E+05
 0.36449997E+02 -0.56078E+05
 0.36499996E+02 -0.60207E+05
 0.36549999E+02 -0.59305E+05
 0.36599998E+02 -0.46369E+05
 0.36649998E+02 -0.35807E+05
 0.36699997E+02 -0.33795E+05
 0.36749996E+02 -0.24046E+05
 0.36799999E+02 -0.18875E+05
 0.36849998E+02 -0.16545E+05
 0.36899998E+02 -0.10576E+05
 0.36949997E+02 -0.44434E+04
 0.36999996E+02 -0.17852E+03
 0.37049999E+02 -0.22828E+04
 0.37099998E+02  0.60019E+03
 0.37149998E+02  0.10552E+05
 0.37199997E+02  0.76973E+04
 0.37249996E+02  0.25701E+04
 0.37299999E+02 -0.75061E+04
 0.37349998E+02 -0.37875E+05
 0.37399998E+02 -0.59265E+05
 0.37449997E+02 -0.61877E+05
 0.37499996E+02 -0.52093E+05
 0.37549999E+02 -0.58355E+05
 0.37599998E+02 -0.72330E+05
 0.37649998E+02 -0.70681E+05
 0.37699997E+02 -0.53919E+05
 0.37749996E+02 -0.44823E+05
 0.37799999E+02 -0.43654E+05
 0.37849998E+02 -0.36179E+05
 0.37899998E+02 -0.35401E+05
 0.37949997E+02 -0.28949E+05
 0.37999996E+02 -0.29448E+05
 0.38049999E+02 -0.37129E+05
 0.38099998E+02 -0.45573E+05
 0.38149998E+02 -0.34965E+05
 0.38199997E+02 -0.84070E+04
 0.38249996E+02  0.14277E+04
 0.38299999E+02  0.15034E+04
 0.38349998E+02 -0.11511E+04
 0.38399998E+02 -0.11065E+05
 0.38449997E+02 -0.24316E+05
 0.38499996E+02 -0.22410E+05
 0.38549999E+02 -0.17539E+05
 0.38599998E+02 -0.15187E+05
 0.38649998E+02 -0.64905E+04
 0.38699997E+02  0.54749E+04
 0.38749996E+02  0.21189E+05
 0.38799999E+02  0.41442E+05
 0.38849998E+02  0.73488E+05
 0.38899998E+02  0.91561E+05
 0.38949997E+02  0.73898E+05
 0.38999996E+02  0.52536E+05
 0.39049999E+02  0.51811E+05
 0.39099998E+02  0.48488E+05
 0.39149998E+02  0.31841E+05
 0.39199997E+02  0.13327E+05
 0.39249996E+02 -0.19921E+05
 0.39299999E+02 -0.38903E+05
 0.39349998E+02 -0.29012E+05
 0.39399998E+02 -0.39771E+04
 0.39449997E+02  0.28690E+05
 0.39499996E+02  0.43965E+05
 0.39549999E+02  0.36667E+05
 0.39599998E+02  0.11007E+05
 0.39649998E+02 -0.24042E+04
 0.39699997E+02  0.11447E+05
 0.39749996E+02  0.26330E+05
 0.39799999E+02  0.30966E+05
 0.39849998E+02  0.46978E+05
 0.39899998E+02  0.60383E+05
 0.39949997E+02  0.57241E+05
 0.39999996E+02  0.64573E+05
 0.40049999E+02  0.75763E+05
 0.40099998E+02  0.83362E+05
 0.40149998E+02  0.88411E+05
 0.40199997E+02  0.95409E+05
 0.40249996E+02  0.89826E+05
 0.40299999E+02  0.71426E+05
 0.40349998E+02  0.51835E+05
 0.40399998E+02  0.25332E+05
 0.40449997E+02  0.98577E+04
 0.40499996E+02  0.24460E+03
 0.40549999E+02 -0.34453E+04
 0.40599998E+02  0.11933E+05
 0.40649998E+02  0.45486E+05
 0.40699997E+02  0.89865E+05
 0.40749996E+02  0.11062E+06
 0.40799999E+02  0.95246E+05
 0.40849998E+02  0.75282E+05
 0.40899998E+02  0.60453E+05
 0.40949997E+02  0.45095E+05
 0.40999996E+02  0.26941E+05
 0.41049999E+02  0.99072E+04
 0.41099998E+02 -0.17941E+03
 0.41149998E+02 -0.12245E+05
 0.41199997E+02 -0.24591E+05
 0.41249996E+02 -0.44339E+05
 0.41299999E+02 -0.77406E+05
 0.41349998E+02 -0.10605E+06
 0.41399998E+02 -0.10803E+06
 0.41449997E+02 -0.72440E+05
 0.41499996E+02 -0.23490E+05
 0.41549999E+02  0.46469E+04
 0.41599998E+02  0.48206E+04
 0.41649998E+02  0.13228E+04
 0.41699997E+02  0.52484E+04
 0.41749996E+02  0.44700E+04
 0.41799999E+02 -0.15236E+05
 0.41849998E+02 -0.22887E+05
 0.41899998E+02  0.96356E+03
 0.41949997E+02  0.14667E+05
 0.41999996E+02  0.12126E+05
 0.42049999E+02  0.28532E+04
 0.42099998E+02  0.26794E+04
 0.42149998E+02  0.85531E+04
 0.42199997E+02 -0.40065E+04
 0.42249996E+02 -0.24160E+05
 0.42299999E+02 -0.22501E+05
 0.42349998E+02 -0.53875E+02
 0.42399998E+02  0.24933E+05
 0.42449997E+02  0.41417E+05
 0.42499996E+02  0.44989E+05
 0.42549999E+02  0.54067E+05
 0.42599998E+02  0.66561E+05
 0.42649998E+02  0.62123E+05
 0.42699997E+02  0.34332E+05
 0.42749996E+02  0.13311E+05
 0.42799995E+02  0.29226E+04
 0.42849998E+02 -0.11823E+05
 0.42899998E+02 -0.93848E+04
 0.42949997E+02  0.11914E+05
 0.42999996E+02  0.40368E+05
 0.43049995E+02  0.52264E+05
 0.43099998E+02  0.48074E+05
 0.43149998E+02  0.43243E+05
 0.43199997E+02  0.25314E+05
 0.43249996E+02 -0.30998E+04
 0.43299995E+02 -0.26248E+05
 0.43349998E+02 -0.42727E+05
 0.43399998E+02 -0.59649E+05
 0.43449997E+02 -0.76080E+05
 0.43499996E+02 -0.84650E+05
 0.43549995E+02 -0.77085E+05
 0.43599998E+02 -0.61833E+05
 0.43649998E+02 -0.51830E+05
 0.43699997E+02 -0.42784E+05
 0.43749996E+02 -0.22668E+05
 0.43799995E+02 -0.45916E+04
 0.43849998E+02  0.37534E+04
 0.43899998E+02  0.13837E+05
 0.43949997E+02  0.23828E+05
 0.43999996E+02  0.32210E+05
 0.44049995E+02  0.31404E+05
 0.44099998E+02  0.11549E+05
 0.44149998E+02 -0.20502E+05
 0.44199997E+02 -0.36396E+05
 0.44249996E+02 -0.33517E+05
 0.44299995E+02 -0.18688E+05
 0.44349998E+02 -0.68364E+03
 0.44399998E+02  0.30464E+04
 0.44449997E+02 -0.57356E+04
 0.44499996E+02 -0.92094E+04
 0.44549995E+02 -0.24741E+04
 0.44599998E+02  0.42953E+03
 0.44649998E+02 -0.39094E+03
 0.44699997E+02 -0.51170E+04
 0.44749996E+02 -0.67374E+04
 0.44799995E+02  0.50143E+04
 0.44849998E+02  0.25385E+05
 0.44899998E+02  0.27462E+05
 0.44949997E+02  0.10943E+05
 0.44999996E+02 -0.61080E+04
 0.45049995E+02 -0.26331E+05
 0.45099998E+02 -0.46829E+05
 0.45149998E+02 -0.58993E+05
 0.45199997E+02 -0.59797E+05
 0.45249996E+02 -0.57563E+05
 0.45299995E+02 -0.54759E+05
 0.45349998E+02 -0.34812E+05
 0.45399998E+02 -0.41225E+04
 0.45449997E+02  0.12144E+05
 0.45499996E+02  0.16170E+05
 0.45549995E+02  0.12119E+05
 0.45599998E+02  0.34325E+03
 0.45649998E+02 -0.15941E+05
 0.45699997E+02 -0.36674E+05
 0.45749996E+02 -0.58609E+05
 0.45799995E+02 -0.70847E+05
 0.45849998E+02 -0.72525E+05
 0.45899998E+02 -0.49513E+05
 0.45949997E+02 -0.84647E+04
 0.45999996E+02  0.21579E+05
 0.46049995E+02  0.30876E+05
 0.46099998E+02  0.16125E+05
 0.46149998E+02 -0.12609E+05
 0.46199997E+02 -0.32768E+05
 0.46249996E+02 -0.34319E+05
 0.46299995E+02 -0.44016E+05
 0.46349998E+02 -0.69365E+05
 0.46399998E+02 -0.86525E+05
 0.46449997E+02 -0.85824E+05
 0.46499996E+02 -0.80036E+05
 0.46549995E+02 -0.77206E+05
 0.46599998E+02 -0.79231E+05
 0.46649998E+02 -0.88602E+05
 0.46699997E+02 -0.97310E+05
 0.46749996E+02 -0.97615E+05
 0.46799995E+02 -0.87770E+05
 0.46849998E+02 -0.80860E+05
 0.46899998E+02 -0.85613E+05
 0.46949997E+02 -0.86671E+05
 0.46999996E+02 -0.88135E+05
 0.47049995E+02 -0.93147E+05
 0.47099998E+02 -0.89604E+05
 0.47149998E+02 -0.82227E+05
 0.47199997E+02 -0.74549E+05
 0.47249996E+02 -0.57457E+05
 0.47299995E+02 -0.24964E+05
 0.47349998E+02  0.12033E+05
 0.47399998E+02  0.38988E+05
 0.47449997E+02  0.57339E+05
 0.47499996E+02  0.77805E+05
 0.47549995E+02  0.10226E+06
 0.47599998E+02  0.12806E+06
 0.47649998E+02  0.13393E+06
 0.47699997E+02  0.11780E+06
 0.47749996E+02  0.97877E+05
 0.47799995E+02  0.70974E+05
 0.47849998E+02  0.37574E+05
 0.47899998E+02  0.80706E+04
 0.47949997E+02 -0.10841E+05
 0.47999996E+02 -0.21049E+05
 0.48049995E+02 -0.21308E+05
 0.48099998E+02 -0.12104E+05
 0.48149998E+02 -0.77069E+03
 0.48199997E+02  0.92423E+04
 0.48249996E+02  0.17477E+05
 0.48299995E+02  0.20895E+05
 0.48349998E+02  0.19607E+05
 0.48399998E+02  0.13205E+05
 0.48449997E+02 -0.43893E+04
 0.48499996E+02 -0.29623E+05
 0.48549995E+02 -0.49258E+05
 0.48599998E+02 -0.46347E+05
 0.48649998E+02 -0.36321E+05
 0.48699997E+02 -0.32320E+05
 0.48749996E+02 -0.21835E+05
 0.48799995E+02 -0.71394E+04
 0.48849998E+02  0.42760E+04
 0.48899998E+02  0.13285E+05
 0.48949997E+02  0.24042E+05
 0.48999996E+02  0.31416E+05
 0.49049995E+02  0.30841E+05
 0.49099998E+02  0.26251E+05
 0.49149998E+02  0.29740E+05
 0.49199997E+02  0.21884E+05
 0.49249996E+02 -0.12011E+05
 0.49299995E+02 -0.57094E+05
 0.49349998E+02 -0.94370E+05
 0.49399998E+02 -0.10967E+06
 0.49449997E+02 -0.11464E+06
 0.49499996E+02 -0.12103E+06
 0.49549995E+02 -0.12123E+06
 0.49599998E+02 -0.11514E+06
 0.49649998E+02 -0.11684E+06
 0.49699997E+02 -0.12803E+06
 0.49749996E+02 -0.12507E+06
 0.49799995E+02 -0.10096E+06
 0.49849998E+02 -0.81565E+05
 0.49899998E+02 -0.75348E+05
 0.49949997E+02 -0.78896E+05
 0.49999996E+02 -0.90216E+05
 0.50049995E+02 -0.98635E+05
 0.50099998E+02 -0.94660E+05
 0.50149998E+02 -0.78307E+05
 0.50199997E+02 -0.61013E+05
 0.50249996E+02 -0.61647E+05
 0.50299995E+02 -0.83966E+05
 0.50349998E+02 -0.10305E+06
 0.50399998E+02 -0.93713E+05
 0.50449997E+02 -0.64505E+05
 0.50499996E+02 -0.44423E+05
 0.50549995E+02 -0.51056E+05
 0.50599998E+02 -0.70316E+05
 0.50649998E+02 -0.83843E+05
 0.50699997E+02 -0.89766E+05
 0.50749996E+02 -0.96322E+05
 0.50799995E+02 -0.10775E+06
 0.50849998E+02 -0.12693E+06
 0.50899998E+02 -0.13995E+06
 0.50949997E+02 -0.13658E+06
 0.50999996E+02 -0.13229E+06
 0.51049995E+02 -0.12528E+06
 0.51099998E+02 -0.11424E+06
 0.51149998E+02 -0.10640E+06
 0.51199997E+02 -0.10422E+06
 0.51249996E+02 -0.10124E+06
 0.51299995E+02 -0.10329E+06
 0.51349998E+02 -0.10900E+06
 0.51399998E+02 -0.10927E+06
 0.51449997E+02 -0.11029E+06
 0.51499996E+02 -0.11572E+06
 0.51549995E+02 -0.12257E+06
 0.51599998E+02 -0.12939E+06
 0.51649998E+02 -0.14142E+06
 0.51699997E+02 -0.14327E+06
 0.51749996E+02 -0.13891E+06
 0.51799995E+02 -0.13694E+06
 0.51849998E+02 -0.12775E+06
 0.51899998E+02 -0.11724E+06
 0.51949997E+02 -0.10515E+06
 0.51999996E+02 -0.10207E+06
 0.52049995E+02 -0.10936E+06
 0.52099998E+02 -0.10702E+06
 0.52149998E+02 -0.10083E+06
 0.52199997E+02 -0.10275E+06
 0.52249996E+02 -0.11310E+06
 0.52299995E+02 -0.12280E+06
 0.52349998E+02 -0.12084E+06
 0.52399998E+02 -0.11273E+06
 0.52449997E+02 -0.99451E+05
 0.52499996E+02 -0.89838E+05
 0.52549995E+02 -0.81128E+05
 0.52599998E+02 -0.70678E+05
 0.52649998E+02 -0.63591E+05
 0.52699997E+02 -0.59896E+05
 0.52749996E+02 -0.62854E+05
 0.52799995E+02 -0.62966E+05
 0.52849998E+02 -0.56588E+05
 0.52899998E+02 -0.42415E+05
 0.52949997E+02 -0.89521E+04
 0.52999996E+02  0.37635E+05
 0.53049995E+02  0.72652E+05
 0.53099998E+02  0.86714E+05
 0.53149998E+02  0.97602E+05
 0.53199997E+02  0.11746E+06
 0.53249996E+02  0.13353E+06
 0.53299995E+02  0.13575E+06
 0.53349998E+02  0.13229E+06
 0.53399998E+02  0.12377E+06
 0.53449997E+02  0.10453E+06
 0.53499996E+02  0.76894E+05
 0.53549995E+02  0.44228E+05
 0.53599998E+02  0.21654E+05
 0.53649998E+02  0.16579E+05
 0.53699997E+02  0.19721E+05
 0.53749996E+02  0.16440E+05
 0.53799995E+02  0.22432E+04
 0.53849998E+02 -0.88486E+04
 0.53899998E+02 -0.19199E+05
 0.53949997E+02 -0.26441E+05
 0.53999996E+02 -0.14496E+05
 0.54049995E+02  0.55779E+04
 0.54099998E+02  0.32465E+05
 0.54149998E+02  0.54777E+05
 0.54199997E+02  0.64766E+05
 0.54249996E+02  0.63622E+05
 0.54299995E+02  0.58863E+05
 0.54349998E+02  0.66562E+05
 0.54399998E+02  0.67692E+05
 0.54449997E+02  0.54192E+05
 0.54499996E+02  0.33447E+05
 0.54549995E+02  0.23570E+05
 0.54599998E+02  0.38713E+05
 0.54649998E+02  0.74444E+05
 0.54699997E+02  0.11747E+06
 0.54749996E+02  0.15530E+06
 0.54799995E+02  0.18091E+06
 0.54849998E+02  0.17943E+06
 0.54899998E+02  0.16789E+06
 0.54949997E+02  0.15740E+06
 0.54999996E+02  0.15016E+06
 0.55049995E+02  0.15093E+06
 0.55099998E+02  0.13554E+06
 0.55149998E+02  0.10781E+06
 0.55199997E+02  0.82530E+05
 0.55249996E+02  0.63166E+05
 0.55299995E+02  0.55408E+05
 0.55349998E+02  0.49656E+05
 0.55399998E+02  0.41156E+05
 0.55449997E+02  0.40818E+05
 0.55499996E+02  0.47519E+05
 0.55549995E+02  0.52571E+05
 0.55599998E+02  0.60181E+05
 0.55649998E+02  0.68355E+05
 0.55699997E+02  0.75161E+05
 0.55749996E+02  0.71520E+05
 0.55799995E+02  0.48801E+05
 0.55849995E+02  0.26406E+05
 0.55899998E+02  0.99093E+04
 0.55949997E+02 -0.13684E+05
 0.55999996E+02 -0.35923E+05
 0.56049995E+02 -0.47691E+05
 0.56099995E+02 -0.68576E+05
 0.56149998E+02 -0.92102E+05
 0.56199997E+02 -0.10453E+06
 0.56249996E+02 -0.10603E+06
 0.56299995E+02 -0.98165E+05
 0.56349995E+02 -0.89961E+05
 0.56399998E+02 -0.74846E+05
 0.56449997E+02 -0.45796E+05
 0.56499996E+02 -0.53440E+04
 0.56549995E+02  0.42909E+05
 0.56599995E+02  0.77700E+05
 0.56649998E+02  0.84875E+05
 0.56699997E+02  0.95390E+05
 0.56749996E+02  0.12748E+06
 0.56799995E+02  0.16140E+06
 0.56849995E+02  0.20641E+06
 0.56899998E+02  0.27958E+06
 0.56949997E+02  0.36191E+06
 0.56999996E+02  0.43533E+06
 0.57049995E+02  0.47892E+06
 0.57099995E+02  0.47779E+06
 0.57149998E+02  0.45297E+06
 0.57199997E+02  0.44267E+06
 0.57249996E+02  0.44008E+06
 0.57299995E+02  0.42081E+06
 0.57349995E+02  0.38464E+06
 0.57399998E+02  0.34657E+06
 0.57449997E+02  0.32277E+06
 0.57499996E+02  0.29422E+06
 0.57549995E+02  0.24488E+06
 0.57599995E+02  0.17433E+06
 0.57649998E+02  0.83259E+05
 0.57699997E+02  0.64909E+04
 0.57749996E+02 -0.47422E+05
 0.57799995E+02 -0.10519E+06
 0.57849995E+02 -0.17837E+06
 0.57899998E+02 -0.26426E+06
 0.57949997E+02 -0.33204E+06
 0.57999996E+02 -0.35481E+06
 0.58049995E+02 -0.34950E+06
 0.58099995E+02 -0.34201E+06
 0.58149998E+02 -0.33664E+06
 0.58199997E+02 -0.30989E+06
 0.58249996E+02 -0.24949E+06
 0.58299995E+02 -0.17287E+06
 0.58349995E+02 -0.86271E+05
 0.58399998E+02 -0.29467E+04
 0.58449997E+02  0.71174E+05
 0.58499996E+02  0.13418E+06
 0.58549995E+02  0.18928E+06
 0.58599995E+02  0.24848E+06
 0.58649998E+02  0.29556E+06
 0.58699997E+02  0.30136E+06
 0.58749996E+02  0.26059E+06
 0.58799995E+02  0.19592E+06
 0.58849995E+02  0.14317E+06
 0.58899998E+02  0.11812E+06
 0.58949997E+02  0.10937E+06
 0.58999996E+02  0.11178E+06
 0.59049995E+02  0.11659E+06
 0.59099995E+02  0.11350E+06
 0.59149998E+02  0.10316E+06
 0.59199997E+02  0.84375E+05
 0.59249996E+02  0.67854E+05
 0.59299995E+02  0.67539E+05
 0.59349995E+02  0.65326E+05
 0.59399998E+02  0.45377E+05
 0.59449997E+02  0.15095E+05
 0.59499996E+02 -0.24564E+05
 0.59549995E+02 -0.65299E+05
 0.59599995E+02 -0.88798E+05
 0.59649998E+02 -0.84706E+05
 0.59699997E+02 -0.71287E+05
 0.59749996E+02 -0.81069E+05
 0.59799995E+02 -0.11181E+06
 0.59849995E+02 -0.13912E+06
 0.59899998E+02 -0.15052E+06
 0.59949997E+02 -0.15132E+06
 0.59999996E+02 -0.15038E+06
 0.60049995E+02 -0.13746E+06
 0.60099995E+02 -0.98481E+05
 0.60149998E+02 -0.37883E+05
 0.60199997E+02  0.27299E+05
 0.60249996E+02  0.74578E+05
 0.60299995E+02  0.10462E+06
 0.60349995E+02  0.14073E+06
 0.60399998E+02  0.19675E+06
 0.60449997E+02  0.26222E+06
 0.60499996E+02  0.31388E+06
 0.60549995E+02  0.33229E+06
 0.60599995E+02  0.30395E+06
 0.60649998E+02  0.23543E+06
 0.60699997E+02  0.15675E+06
 0.60749996E+02  0.95615E+05
 0.60799995E+02  0.51816E+05
 0.60849995E+02  0.10868E+05
 0.60899998E+02 -0.33464E+05
 0.60949997E+02 -0.87733E+05
 0.60999996E+02 -0.17209E+06
 0.61049995E+02 -0.28925E+06
 0.61099995E+02 -0.38869E+06
 0.61149998E+02 -0.43136E+06
 0.61199997E+02 -0.41781E+06
 0.61249996E+02 -0.36068E+06
 0.61299995E+02 -0.29156E+06
 0.61349995E+02 -0.21550E+06
 0.61399998E+02 -0.12145E+06
 0.61449997E+02 -0.21232E+05
 0.61499996E+02  0.75265E+05
 0.61549995E+02  0.16913E+06
 0.61599995E+02  0.25415E+06
 0.61649998E+02  0.31645E+06
 0.61699997E+02  0.35212E+06
 0.61749996E+02  0.36008E+06
 0.61799995E+02  0.35917E+06
 0.61849995E+02  0.36949E+06
 0.61899998E+02  0.37134E+06
 0.61949997E+02  0.34947E+06
 0.61999996E+02  0.31693E+06
 0.62049995E+02  0.26857E+06
 0.62099998E+02  0.19412E+06
 0.62149994E+02  0.10164E+06
 0.62199997E+02  0.11605E+05
 0.62249992E+02 -0.48308E+05
 0.62299995E+02 -0.73726E+05
 0.62349998E+02 -0.78038E+05
 0.62399994E+02 -0.81302E+05
 0.62449997E+02 -0.83958E+05
 0.62499992E+02 -0.88152E+05
 0.62549995E+02 -0.10309E+06
 0.62599998E+02 -0.11232E+06
 0.62649994E+02 -0.10922E+06
 0.62699997E+02 -0.11235E+06
 0.62749992E+02 -0.13511E+06
 0.62799995E+02 -0.16532E+06
 0.62849998E+02 -0.19245E+06
 0.62899994E+02 -0.19651E+06
 0.62949997E+02 -0.16167E+06
 0.62999992E+02 -0.10725E+06
 0.63049995E+02 -0.58222E+05
 0.63099998E+02 -0.29167E+05
 0.63149994E+02 -0.14771E+05
 0.63199997E+02 -0.28861E+04
 0.63249992E+02  0.24978E+05
 0.63299995E+02  0.72109E+05
 0.63349998E+02  0.12643E+06
 0.63399994E+02  0.17010E+06
 0.63449997E+02  0.17266E+06
 0.63499992E+02  0.13986E+06
 0.63549995E+02  0.96649E+05
 0.63599998E+02  0.49207E+05
 0.63649994E+02 -0.66469E+04
 0.63699997E+02 -0.81562E+05
 0.63749992E+02 -0.17578E+06
 0.63799995E+02 -0.26849E+06
 0.63849998E+02 -0.35023E+06
 0.63899994E+02 -0.42040E+06
 0.63949997E+02 -0.47355E+06
 0.63999992E+02 -0.49310E+06
 0.64049995E+02 -0.46943E+06
 0.64099998E+02 -0.42735E+06
 0.64149994E+02 -0.38330E+06
 0.64199997E+02 -0.32646E+06
 0.64249992E+02 -0.24595E+06
 0.64299995E+02 -0.15020E+06
 0.64349998E+02 -0.73990E+05
 0.64399994E+02 -0.35110E+05
 0.64449997E+02 -0.16123E+05
 0.64499992E+02 -0.52755E+03
 0.64549995E+02  0.20264E+05
 0.64599998E+02  0.43809E+05
 0.64649994E+02  0.57190E+05
 0.64699997E+02  0.64526E+05
 0.64749992E+02  0.80545E+05
 0.64799995E+02  0.99514E+05
 0.64849998E+02  0.11392E+06
 0.64899994E+02  0.13245E+06
 0.64949997E+02  0.17271E+06
 0.64999992E+02  0.23624E+06
 0.65049995E+02  0.30672E+06
 0.65099998E+02  0.36163E+06
 0.65149994E+02  0.38372E+06
 0.65199997E+02  0.38280E+06
 0.65249992E+02  0.37405E+06
 0.65299995E+02  0.35035E+06
 0.65349998E+02  0.30516E+06
 0.65399994E+02  0.24783E+06
 0.65449997E+02  0.19670E+06
 0.65499992E+02  0.16433E+06
 0.65549995E+02  0.14052E+06
 0.65599998E+02  0.11667E+06
 0.65649994E+02  0.10628E+06
 0.65699997E+02  0.12625E+06
 0.65749992E+02  0.16717E+06
 0.65799995E+02  0.19766E+06
 0.65849998E+02  0.20520E+06
 0.65899994E+02  0.21290E+06
 0.65949997E+02  0.23259E+06
 0.65999992E+02  0.23690E+06
 0.66049995E+02  0.20146E+06
 0.66099998E+02  0.13307E+06
 0.66149994E+02  0.57913E+05
 0.66199997E+02  0.48667E+04
 0.66249992E+02 -0.12260E+05
 0.66299995E+02 -0.46807E+04
 0.66349998E+02  0.13552E+05
 0.66399994E+02  0.38831E+05
 0.66449997E+02  0.75139E+05
 0.66499992E+02  0.13076E+06
 0.66549995E+02  0.19167E+06
 0.66599998E+02  0.24548E+06
 0.66649994E+02  0.30566E+06
 0.66699997E+02  0.37549E+06
 0.66749992E+02  0.44380E+06
 0.66799995E+02  0.50051E+06
 0.66849998E+02  0.54610E+06
 0.66899994E+02  0.57943E+06
 0.66949997E+02  0.60107E+06
 0.66999992E+02  0.61574E+06
 0.67049995E+02  0.61506E+06
 0.67099998E+02  0.59576E+06
 0.67149994E+02  0.56241E+06
 0.67199997E+02  0.51645E+06
 0.67249992E+02  0.46106E+06
 0.67299995E+02  0.39743E+06
 0.67349998E+02  0.32301E+06
 0.67399994E+02  0.22998E+06
 0.67449997E+02  0.11465E+06
 0.67499992E+02 -0.42363E+04
 0.67549995E+02 -0.10936E+06
 0.67599998E+02 -0.19792E+06
 0.67649994E+02 -0.26994E+06
 0.67699997E+02 -0.32572E+06
 0.67749992E+02 -0.35932E+06
 0.67799995E+02 -0.36399E+06
 0.67849998E+02 -0.34729E+06
 0.67899994E+02 -0.32322E+06
 0.67949997E+02 -0.30222E+06
 0.67999992E+02 -0.28449E+06
 0.68049995E+02 -0.26440E+06
 0.68099998E+02 -0.24157E+06
 0.68149994E+02 -0.21653E+06
 0.68199997E+02 -0.18895E+06
 0.68249992E+02 -0.15423E+06
 0.68299995E+02 -0.10996E+06
 0.68349998E+02 -0.64553E+05
 0.68399994E+02 -0.30218E+05
 0.68449997E+02 -0.62330E+04
 0.68499992E+02  0.84437E+04
 0.68549995E+02  0.11511E+05
 0.68599998E+02  0.32541E+04
 0.68649994E+02 -0.12198E+05
 0.68699997E+02 -0.28324E+05
 0.68749992E+02 -0.43739E+05
 0.68799995E+02 -0.62466E+05
 0.68849998E+02 -0.93100E+05
 0.68899994E+02 -0.13986E+06
 0.68949997E+02 -0.18544E+06
 0.68999992E+02 -0.21110E+06
 0.69049995E+02 -0.21980E+06
 0.69099998E+02 -0.21488E+06
 0.69149994E+02 -0.20627E+06
 0.69199997E+02 -0.20051E+06
 0.69249992E+02 -0.19224E+06
 0.69299995E+02 -0.18290E+06
 0.69349998E+02 -0.17631E+06
 0.69399994E+02 -0.17377E+06
 0.69449997E+02 -0.18126E+06
 0.69499992E+02 -0.20221E+06
 0.69549995E+02 -0.23171E+06
 0.69599998E+02 -0.26319E+06
 0.69649994E+02 -0.28696E+06
 0.69699997E+02 -0.29519E+06
 0.69749992E+02 -0.28496E+06
 0.69799995E+02 -0.26642E+06
 0.69849998E+02 -0.25675E+06
 0.69899994E+02 -0.26368E+06
 0.69949997E+02 -0.28365E+06
 0.69999992E+02 -0.30545E+06
 0.70049995E+02 -0.32604E+06
 0.70099998E+02 -0.35175E+06
 0.70149994E+02 -0.37843E+06
 0.70199997E+02 -0.39839E+06
 0.70249992E+02 -0.40782E+06
 0.70299995E+02 -0.40322E+06
 0.70349998E+02 -0.38284E+06
 0.70399994E+02 -0.34819E+06
 0.70449997E+02 -0.30425E+06
 0.70499992E+02 -0.24454E+06
 0.70549995E+02 -0.16737E+06
 0.70599998E+02 -0.85402E+05
 0.70649994E+02 -0.85534E+04
 0.70699997E+02  0.55539E+05
 0.70749992E+02  0.10249E+06
 0.70799995E+02  0.13272E+06
 0.70849998E+02  0.14737E+06
 0.70899994E+02  0.14506E+06
 0.70949997E+02  0.12913E+06
 0.70999992E+02  0.10384E+06
 0.71049995E+02  0.73809E+05
 0.71099998E+02  0.45536E+05
 0.71149994E+02  0.19421E+05
 0.71199997E+02 -0.57682E+04
 0.71249992E+02 -0.29531E+05
 0.71299995E+02 -0.46333E+05
 0.71349998E+02 -0.50138E+05
 0.71399994E+02 -0.41537E+05
 0.71449997E+02 -0.27946E+05
 0.71499992E+02 -0.17044E+05
 0.71549995E+02 -0.11788E+05
 0.71599998E+02 -0.10166E+05
 0.71649994E+02 -0.88847E+04
 0.71699997E+02 -0.69864E+04
 0.71749992E+02 -0.45804E+04
 0.71799995E+02 -0.37288E+04
 0.71849998E+02 -0.54872E+04
 0.71899994E+02 -0.81164E+04
 0.71949997E+02 -0.49540E+04
 0.71999992E+02  0.97374E+04
 0.72049995E+02  0.36107E+05
 0.72099998E+02  0.68723E+05
 0.72149994E+02  0.97960E+05
 0.72199997E+02  0.11982E+06
 0.72249992E+02  0.13344E+06
 0.72299995E+02  0.14230E+06
 0.72349998E+02  0.15503E+06
 0.72399994E+02  0.17242E+06
 0.72449997E+02  0.19002E+06
 0.72499992E+02  0.20439E+06
 0.72549995E+02  0.21184E+06
 0.72599998E+02  0.21295E+06
 0.72649994E+02  0.20899E+06
 0.72699997E+02  0.19626E+06
 0.72749992E+02  0.16772E+06
 0.72799995E+02  0.11525E+06
 0.72849998E+02  0.34282E+05
 0.72899994E+02 -0.65474E+05
 0.72949997E+02 -0.16776E+06
 0.72999992E+02 -0.26681E+06
 0.73049995E+02 -0.36079E+06
 0.73099998E+02 -0.44488E+06
 0.73149994E+02 -0.51122E+06
 0.73199997E+02 -0.55088E+06
 0.73249992E+02 -0.56283E+06
 0.73299995E+02 -0.55278E+06
 0.73349998E+02 -0.52323E+06
 0.73399994E+02 -0.47328E+06
 0.73449997E+02 -0.40400E+06
 0.73499992E+02 -0.32130E+06
 0.73549995E+02 -0.23131E+06
 0.73599998E+02 -0.13693E+06
 0.73649994E+02 -0.41120E+05
 0.73699997E+02  0.45411E+05
 0.73749992E+02  0.11149E+06
 0.73799995E+02  0.15238E+06
 0.73849998E+02  0.16897E+06
 0.73899994E+02  0.16585E+06
 0.73949997E+02  0.14531E+06
 0.73999992E+02  0.11100E+06
 0.74049995E+02  0.71570E+05
 0.74099998E+02  0.32761E+05
 0.74149994E+02 -0.56228E+04
 0.74199997E+02 -0.39483E+05
 0.74249992E+02 -0.64489E+05
 0.74299995E+02 -0.80609E+05
 0.74349998E+02 -0.87676E+05
 0.74399994E+02 -0.87051E+05
 0.74449997E+02 -0.84804E+05
 0.74499992E+02 -0.88009E+05
 0.74549995E+02 -0.97322E+05
 0.74599998E+02 -0.10534E+06
 0.74649994E+02 -0.10491E+06
 0.74699997E+02 -0.97319E+05
 0.74749992E+02 -0.89382E+05
 0.74799995E+02 -0.84855E+05
 0.74849998E+02 -0.80361E+05
 0.74899994E+02 -0.73588E+05
 0.74949997E+02 -0.68198E+05
 0.74999992E+02 -0.67201E+05
 0.75049995E+02 -0.69724E+05
 0.75099998E+02 -0.74094E+05
 0.75149994E+02 -0.80419E+05
 0.75199997E+02 -0.90475E+05
 0.75249992E+02 -0.10442E+06
 0.75299995E+02 -0.12090E+06
 0.75349998E+02 -0.13732E+06
 0.75399994E+02 -0.15046E+06
 0.75449997E+02 -0.15651E+06
 0.75499992E+02 -0.15480E+06
 0.75549995E+02 -0.14950E+06
 0.75599998E+02 -0.14412E+06
 0.75649994E+02 -0.13623E+06
 0.75699997E+02 -0.11804E+06
 0.75749992E+02 -0.88898E+05
 0.75799995E+02 -0.54176E+05
 0.75849998E+02 -0.18467E+05
 0.75899994E+02  0.14437E+05
 0.75949997E+02  0.41109E+05
 0.75999992E+02  0.62042E+05
 0.76049995E+02  0.79646E+05
 0.76099998E+02  0.95597E+05
 0.76149994E+02  0.10816E+06
 0.76199997E+02  0.11472E+06
 0.76249992E+02  0.11427E+06
 0.76299995E+02  0.10577E+06
 0.76349998E+02  0.89473E+05
 0.76399994E+02  0.66234E+05
 0.76449997E+02  0.39471E+05
 0.76499992E+02  0.86865E+04
 0.76549995E+02 -0.27539E+05
 0.76599998E+02 -0.67929E+05
 0.76649994E+02 -0.10765E+06
 0.76699997E+02 -0.14083E+06
 0.76749992E+02 -0.16679E+06
 0.76799995E+02 -0.18610E+06
 0.76849998E+02 -0.19675E+06
 0.76899994E+02 -0.19763E+06
 0.76949997E+02 -0.18981E+06
 0.76999992E+02 -0.17325E+06
 0.77049995E+02 -0.15064E+06
 0.77099998E+02 -0.12717E+06
 0.77149994E+02 -0.10532E+06
 0.77199997E+02 -0.85711E+05
 0.77249992E+02 -0.67588E+05
 0.77299995E+02 -0.50496E+05
 0.77349998E+02 -0.37013E+05
 0.77399994E+02 -0.24913E+05
 0.77449997E+02 -0.83565E+04
 0.77499992E+02  0.14211E+05
 0.77549995E+02  0.44686E+05
 0.77599998E+02  0.82330E+05
 0.77649994E+02  0.12514E+06
 0.77699997E+02  0.17103E+06
 0.77749992E+02  0.21297E+06
 0.77799995E+02  0.24386E+06
 0.77849998E+02  0.26231E+06
 0.77899994E+02  0.27047E+06
 0.77949997E+02  0.27153E+06
 0.77999992E+02  0.26545E+06
 0.78049995E+02  0.24778E+06
 0.78099998E+02  0.22040E+06
 0.78149994E+02  0.18868E+06
 0.78199997E+02  0.15624E+06
 0.78249992E+02  0.12677E+06
 0.78299995E+02  0.10097E+06
 0.78349998E+02  0.79838E+05
 0.78399994E+02  0.67298E+05
 0.78449997E+02  0.66006E+05
 0.78499992E+02  0.73552E+05
 0.78549995E+02  0.86391E+05
 0.78599998E+02  0.10147E+06
 0.78649994E+02  0.11327E+06
 0.78699997E+02  0.12060E+06
 0.78749992E+02  0.12534E+06
 0.78799995E+02  0.12931E+06
 0.78849998E+02  0.13469E+06
 0.78899994E+02  0.13936E+06
 0.78949997E+02  0.14141E+06
 0.78999992E+02  0.14451E+06
 0.79049995E+02  0.15317E+06
 0.79099998E+02  0.17022E+06
 0.79149994E+02  0.19401E+06
 0.79199997E+02  0.21671E+06
 0.79249992E+02  0.23214E+06
 0.79299995E+02  0.23935E+06
 0.79349998E+02  0.23898E+06
 0.79399994E+02  0.23235E+06
 0.79449997E+02  0.22264E+06
 0.79499992E+02  0.21278E+06
 0.79549995E+02  0.20296E+06
 0.79599998E+02  0.19471E+06
 0.79649994E+02  0.18954E+06
 0.79699997E+02  0.18719E+06
 0.79749992E+02  0.18670E+06
 0.79799995E+02  0.18398E+06
 0.79849998E+02  0.17457E+06
 0.79899994E+02  0.15786E+06
 0.79949997E+02  0.13533E+06
 0.79999992E+02  0.10748E+06
 0.80049995E+02  0.72692E+05
 0.80099998E+02  0.33048E+05
 0.80149994E+02 -0.40556E+04
 0.80199997E+02 -0.33409E+05
 0.80249992E+02 -0.52713E+05
 0.80299995E+02 -0.62625E+05
 0.80349998E+02 -0.66280E+05
 0.80399994E+02 -0.65448E+05
 0.80449997E+02 -0.57986E+05
 0.80499992E+02 -0.42949E+05
 0.80549995E+02 -0.23590E+05
 0.80599998E+02 -0.49158E+04
 0.80649994E+02  0.82071E+04
 0.80699997E+02  0.14181E+05
 0.80749992E+02  0.13431E+05
 0.80799995E+02  0.33254E+04
 0.80849998E+02 -0.19068E+05
 0.80899994E+02 -0.51664E+05
 0.80949997E+02 -0.89924E+05
 0.80999992E+02 -0.12581E+06
 0.81049995E+02 -0.14959E+06
 0.81099998E+02 -0.15538E+06
 0.81149994E+02 -0.14212E+06
 0.81199997E+02 -0.11522E+06
 0.81249992E+02 -0.81353E+05
 0.81299995E+02 -0.43400E+05
 0.81349998E+02 -0.25927E+04
 0.81399994E+02  0.36884E+05
 0.81449997E+02  0.66390E+05
 0.81499992E+02  0.79905E+05
 0.81549995E+02  0.76818E+05
 0.81599998E+02  0.60924E+05
 0.81649994E+02  0.35807E+05
 0.81699997E+02  0.25164E+04
 0.81749992E+02 -0.35776E+05
 0.81799995E+02 -0.74008E+05
 0.81849998E+02 -0.10790E+06
 0.81899994E+02 -0.13528E+06
 0.81949997E+02 -0.15468E+06
 0.81999992E+02 -0.16515E+06
 0.82049995E+02 -0.16596E+06
 0.82099998E+02 -0.15950E+06
 0.82149994E+02 -0.15076E+06
 0.82199997E+02 -0.14220E+06
 0.82249992E+02 -0.13357E+06
 0.82299995E+02 -0.12538E+06
 0.82349998E+02 -0.11762E+06
 0.82399994E+02 -0.10698E+06
 0.82449997E+02 -0.89078E+05
 0.82499992E+02 -0.60711E+05
 0.82549995E+02 -0.23456E+05
 0.82599998E+02  0.17975E+05
 0.82649994E+02  0.59352E+05
 0.82699997E+02  0.98560E+05
 0.82749992E+02  0.13637E+06
 0.82799995E+02  0.17170E+06
 0.82849998E+02  0.19950E+06
 0.82899994E+02  0.21451E+06
 0.82949997E+02  0.21507E+06
 0.82999992E+02  0.20428E+06
 0.83049995E+02  0.18692E+06
 0.83099998E+02  0.16524E+06
 0.83149994E+02  0.14064E+06
 0.83199997E+02  0.11705E+06
 0.83249992E+02  0.96754E+05
 0.83299995E+02  0.79546E+05
 0.83349998E+02  0.64303E+05
 0.83399994E+02  0.50812E+05
 0.83449997E+02  0.39667E+05
 0.83499992E+02  0.29468E+05
 0.83549995E+02  0.21208E+05
 0.83599998E+02  0.17415E+05
 0.83649994E+02  0.19283E+05
 0.83699997E+02  0.28746E+05
 0.83749992E+02  0.44889E+05
 0.83799995E+02  0.63177E+05
 0.83849998E+02  0.81226E+05
 0.83899994E+02  0.99420E+05
 0.83949997E+02  0.11761E+06
 0.83999992E+02  0.13351E+06
 0.84049995E+02  0.14537E+06
 0.84099998E+02  0.15477E+06
 0.84149994E+02  0.16308E+06
 0.84199997E+02  0.17112E+06
 0.84249992E+02  0.17967E+06
 0.84299995E+02  0.18697E+06
 0.84349998E+02  0.18914E+06
 0.84399994E+02  0.18671E+06
 0.84449997E+02  0.18213E+06
 0.84499992E+02  0.17245E+06
 0.84549995E+02  0.15485E+06
 0.84599998E+02  0.12983E+06
 0.84649994E+02  0.10050E+06
 0.84699997E+02  0.69669E+05
 0.84749992E+02  0.40097E+05
 0.84799995E+02  0.15565E+05
 0.84849998E+02 -0.27488E+02
 0.84899994E+02 -0.59640E+04
 0.84949997E+02 -0.48415E+04
 0.84999992E+02  0.12766E+04
 0.85049995E+02  0.92613E+04
 0.85099998E+02  0.15689E+05
 0.85149994E+02  0.18558E+05
 0.85199997E+02  0.14423E+05
 0.85249992E+02  0.19943E+03
 0.85299995E+02 -0.22797E+05
 0.85349998E+02 -0.51279E+05
 0.85399994E+02 -0.80380E+05
 0.85449997E+02 -0.10419E+06
 0.85499992E+02 -0.12048E+06
 0.85549995E+02 -0.12873E+06
 0.85599998E+02 -0.12819E+06
 0.85649994E+02 -0.12119E+06
 0.85699997E+02 -0.10897E+06
 0.85749992E+02 -0.93694E+05
 0.85799995E+02 -0.78086E+05
 0.85849998E+02 -0.61898E+05
 0.85899994E+02 -0.47473E+05
 0.85949997E+02 -0.37641E+05
 0.85999992E+02 -0.32009E+05
 0.86049995E+02 -0.30844E+05
 0.86099998E+02 -0.35673E+05
 0.86149994E+02 -0.45405E+05
 0.86199997E+02 -0.59367E+05
 0.86249992E+02 -0.76941E+05
 0.86299995E+02 -0.96600E+05
 0.86349998E+02 -0.11603E+06
 0.86399994E+02 -0.13090E+06
 0.86449997E+02 -0.14001E+06
 0.86499992E+02 -0.14461E+06
 0.86549995E+02 -0.14564E+06
 0.86599998E+02 -0.14366E+06
 0.86649994E+02 -0.13880E+06
 0.86699997E+02 -0.13185E+06
 0.86749992E+02 -0.12618E+06
 0.86799995E+02 -0.12286E+06
 0.86849998E+02 -0.12031E+06
 0.86899994E+02 -0.11954E+06
 0.86949997E+02 -0.12206E+06
 0.86999992E+02 -0.12851E+06
 0.87049995E+02 -0.13814E+06
 0.87099998E+02 -0.14820E+06
 0.87149994E+02 -0.15673E+06
 0.87199997E+02 -0.16442E+06
 0.87249992E+02 -0.17390E+06
 0.87299995E+02 -0.18600E+06
 0.87349998E+02 -0.19677E+06
 0.87399994E+02 -0.20278E+06
 0.87449997E+02 -0.20356E+06
 0.87499992E+02 -0.19918E+06
 0.87549995E+02 -0.18981E+06
 0.87599991E+02 -0.17679E+06
 0.87649994E+02 -0.16356E+06
 0.87699997E+02 -0.15387E+06
 0.87749992E+02 -0.14937E+06
 0.87799995E+02 -0.14857E+06
 0.87849991E+02 -0.14771E+06
 0.87899994E+02 -0.14399E+06
 0.87949997E+02 -0.13703E+06
 0.87999992E+02 -0.12612E+06
 0.88049995E+02 -0.11014E+06
 0.88099991E+02 -0.89459E+05
 0.88149994E+02 -0.65593E+05
 0.88199997E+02 -0.41049E+05
 0.88249992E+02 -0.17403E+05
 0.88299995E+02  0.65964E+04
 0.88349991E+02  0.30400E+05
 0.88399994E+02  0.51763E+05
 0.88449997E+02  0.69461E+05
 0.88499992E+02  0.82134E+05
 0.88549995E+02  0.88354E+05
 0.88599991E+02  0.86271E+05
 0.88649994E+02  0.76092E+05
 0.88699997E+02  0.58597E+05
 0.88749992E+02  0.35520E+05
 0.88799995E+02  0.10688E+05
 0.88849991E+02 -0.13144E+05
 0.88899994E+02 -0.35209E+05
 0.88949997E+02 -0.55464E+05
 0.88999992E+02 -0.72992E+05
 0.89049995E+02 -0.86199E+05
 0.89099991E+02 -0.92521E+05
 0.89149994E+02 -0.89155E+05
 0.89199997E+02 -0.76629E+05
 0.89249992E+02 -0.58051E+05
 0.89299995E+02 -0.34835E+05
 0.89349991E+02 -0.89345E+04
 0.89399994E+02  0.15221E+05
 0.89449997E+02  0.35222E+05
 0.89499992E+02  0.51076E+05
 0.89549995E+02  0.62967E+05
 0.89599991E+02  0.71299E+05
 0.89649994E+02  0.77080E+05
 0.89699997E+02  0.81205E+05
 0.89749992E+02  0.84107E+05
 0.89799995E+02  0.86850E+05
 0.89849991E+02  0.90486E+05
 0.89899994E+02  0.95013E+05
 0.89949997E+02  0.10034E+06
 0.89999992E+02  0.10594E+06
 0.90049995E+02  0.11067E+06
 0.90099991E+02  0.11219E+06
 0.90149994E+02  0.10845E+06
 0.90199997E+02  0.99587E+05
 0.90249992E+02  0.86616E+05
 0.90299995E+02  0.71726E+05
 0.90349991E+02  0.58037E+05
 0.90399994E+02  0.49026E+05
 0.90449997E+02  0.46445E+05
 0.90499992E+02  0.49424E+05
 0.90549995E+02  0.55823E+05
 0.90599991E+02  0.63395E+05
 0.90649994E+02  0.71166E+05
 0.90699997E+02  0.78230E+05
 0.90749992E+02  0.82951E+05
 0.90799995E+02  0.84499E+05
 0.90849991E+02  0.84364E+05
 0.90899994E+02  0.84584E+05
 0.90949997E+02  0.83669E+05
 0.90999992E+02  0.80171E+05
 0.91049995E+02  0.73352E+05
 0.91099991E+02  0.62306E+05
 0.91149994E+02  0.47587E+05
 0.91199997E+02  0.30830E+05
 0.91249992E+02  0.13720E+05
 0.91299995E+02 -0.24432E+04
 0.91349991E+02 -0.16797E+05
 0.91399994E+02 -0.28627E+05
 0.91449997E+02 -0.35433E+05
 0.91499992E+02 -0.36409E+05
 0.91549995E+02 -0.32546E+05
 0.91599991E+02 -0.24749E+05
 0.91649994E+02 -0.14534E+05
 0.91699997E+02 -0.51074E+04
 0.91749992E+02  0.23272E+04
 0.91799995E+02  0.91938E+04
 0.91849991E+02  0.17018E+05
 0.91899994E+02  0.27036E+05
 0.91949997E+02  0.39108E+05
 0.91999992E+02  0.53550E+05
 0.92049995E+02  0.71503E+05
 0.92099991E+02  0.92628E+05
 0.92149994E+02  0.11418E+06
 0.92199997E+02  0.13353E+06
 0.92249992E+02  0.14908E+06
 0.92299995E+02  0.15973E+06
 0.92349991E+02  0.16436E+06
 0.92399994E+02  0.16375E+06
 0.92449997E+02  0.15956E+06
 0.92499992E+02  0.15311E+06
 0.92549995E+02  0.14509E+06
 0.92599991E+02  0.13524E+06
 0.92649994E+02  0.12325E+06
 0.92699997E+02  0.11007E+06
 0.92749992E+02  0.98113E+05
 0.92799995E+02  0.88571E+05
 0.92849991E+02  0.81627E+05
 0.92899994E+02  0.77967E+05
 0.92949997E+02  0.77651E+05
 0.92999992E+02  0.78870E+05
 0.93049995E+02  0.80143E+05
 0.93099991E+02  0.82283E+05
 0.93149994E+02  0.87029E+05
 0.93199997E+02  0.93816E+05
 0.93249992E+02  0.10112E+06
 0.93299995E+02  0.10767E+06
 0.93349991E+02  0.11290E+06
 0.93399994E+02  0.11862E+06
 0.93449997E+02  0.12540E+06
 0.93499992E+02  0.13127E+06
 0.93549995E+02  0.13423E+06
 0.93599991E+02  0.13498E+06
 0.93649994E+02  0.13539E+06
 0.93699997E+02  0.13627E+06
 0.93749992E+02  0.13649E+06
 0.93799995E+02  0.13494E+06
 0.93849991E+02  0.13131E+06
 0.93899994E+02  0.12492E+06
 0.93949997E+02  0.11617E+06
 0.93999992E+02  0.10575E+06
 0.94049995E+02  0.93699E+05
 0.94099991E+02  0.80122E+05
 0.94149994E+02  0.64626E+05
 0.94199997E+02  0.45647E+05
 0.94249992E+02  0.22958E+05
 0.94299995E+02 -0.38518E+04
 0.94349991E+02 -0.35388E+05
 0.94399994E+02 -0.70780E+05
 0.94449997E+02 -0.10922E+06
 0.94499992E+02 -0.14975E+06
 0.94549995E+02 -0.18955E+06
 0.94599991E+02 -0.22617E+06
 0.94649994E+02 -0.25811E+06
 0.94699997E+02 -0.28407E+06
 0.94749992E+02 -0.30444E+06
 0.94799995E+02 -0.32026E+06
 0.94849991E+02 -0.33172E+06
 0.94899994E+02 -0.33837E+06
 0.94949997E+02 -0.34044E+06
 0.94999992E+02 -0.33955E+06
 0.95049995E+02 -0.33723E+06
 0.95099991E+02 -0.33374E+06
 0.95149994E+02 -0.32802E+06
 0.95199997E+02 -0.31851E+06
 0.95249992E+02 -0.30473E+06
 0.95299995E+02 -0.28586E+06
 0.95349991E+02 -0.26132E+06
 0.95399994E+02 -0.23185E+06
 0.95449997E+02 -0.19976E+06
 0.95499992E+02 -0.16717E+06
 0.95549995E+02 -0.13518E+06
 0.95599991E+02 -0.10503E+06
 0.95649994E+02 -0.77377E+05
 0.95699997E+02 -0.52119E+05
 0.95749992E+02 -0.28525E+05
 0.95799995E+02 -0.58445E+04
 0.95849991E+02  0.16972E+05
 0.95899994E+02  0.39597E+05
 0.95949997E+02  0.62277E+05
 0.95999992E+02  0.85940E+05
 0.96049995E+02  0.10911E+06
 0.96099991E+02  0.13080E+06
 0.96149994E+02  0.15145E+06
 0.96199997E+02  0.17069E+06
 0.96249992E+02  0.18713E+06
 0.96299995E+02  0.19852E+06
 0.96349991E+02  0.20386E+06
 0.96399994E+02  0.20561E+06
 0.96449997E+02  0.20646E+06
 0.96499992E+02  0.20784E+06
 0.96549995E+02  0.20916E+06
 0.96599991E+02  0.20880E+06
 0.96649994E+02  0.20745E+06
 0.96699997E+02  0.20612E+06
 0.96749992E+02  0.20431E+06
 0.96799995E+02  0.20114E+06
 0.96849991E+02  0.19773E+06
 0.96899994E+02  0.19586E+06
 0.96949997E+02  0.19499E+06
 0.96999992E+02  0.19229E+06
 0.97049995E+02  0.18539E+06
 0.97099991E+02  0.17351E+06
 0.97149994E+02  0.15702E+06
 0.97199997E+02  0.13661E+06
 0.97249992E+02  0.11254E+06
 0.97299995E+02  0.85657E+05
 0.97349991E+02  0.57286E+05
 0.97399994E+02  0.28966E+05
 0.97449997E+02  0.23151E+04
 0.97499992E+02 -0.20775E+05
 0.97549995E+02 -0.39787E+05
 0.97599991E+02 -0.56044E+05
 0.97649994E+02 -0.70746E+05
 0.97699997E+02 -0.84330E+05
 0.97749992E+02 -0.97909E+05
 0.97799995E+02 -0.11195E+06
 0.97849991E+02 -0.12677E+06
 0.97899994E+02 -0.14318E+06
 0.97949997E+02 -0.16091E+06
 0.97999992E+02 -0.17858E+06
