-0.20000000E+01 -0.89137E+02
-0.19500000E+01 -0.74902E+02
-0.19000000E+01 -0.71188E+02
-0.18500000E+01 -0.54989E+02
-0.18000000E+01 -0.37441E+02
-0.17500000E+01 -0.33775E+02
-0.17000000E+01 -0.52833E+01
-0.16500001E+01  0.56184E+01
-0.16000000E+01  0.36471E+02
-0.15500000E+01  0.53926E+02
-0.15000000E+01  0.72444E+02
-0.14500000E+01  0.95160E+02
-0.14000001E+01  0.82685E+02
-0.13500000E+01  0.99011E+02
-0.13000001E+01  0.82278E+02
-0.12500000E+01  0.81854E+02
-0.12000000E+01  0.74985E+02
-0.11500001E+01  0.44099E+02
-0.11000000E+01  0.49738E+02
-0.10500001E+01  0.30357E+02
-0.10000000E+01  0.32230E+02
-0.95000005E+00  0.21363E+02
-0.90000010E+00  0.16773E+02
-0.85000002E+00  0.16284E+02
-0.80000007E+00 -0.33633E+01
-0.75000012E+00  0.34918E+01
-0.70000005E+00 -0.81709E+01
-0.65000010E+00 -0.13189E+02
-0.60000014E+00 -0.12496E+02
-0.55000007E+00 -0.14209E+02
-0.50000012E+00 -0.88384E+01
-0.45000005E+00 -0.98062E+01
-0.40000010E+00 -0.12983E+02
-0.35000014E+00 -0.17097E+02
-0.30000007E+00 -0.31999E+02
-0.25000012E+00 -0.52496E+02
-0.20000005E+00 -0.65689E+02
-0.15000010E+00 -0.77269E+02
-0.10000014E+00 -0.72542E+02
-0.50000072E-01 -0.67360E+02
-0.11920929E-06 -0.68292E+02
 0.49999952E-01 -0.66726E+02
 0.99999905E-01 -0.67617E+02
 0.14999986E+00 -0.52304E+02
 0.19999981E+00 -0.28089E+02
 0.24999976E+00  0.85459E+00
 0.29999995E+00  0.24796E+02
 0.34999990E+00  0.43472E+02
 0.39999986E+00  0.46861E+02
 0.44999981E+00  0.56003E+02
 0.49999976E+00  0.62354E+02
 0.54999995E+00  0.71658E+02
 0.59999990E+00  0.80540E+02
 0.64999986E+00  0.81920E+02
 0.69999981E+00  0.92021E+02
 0.74999976E+00  0.84932E+02
 0.79999971E+00  0.86323E+02
 0.84999990E+00  0.67679E+02
 0.89999986E+00  0.57613E+02
 0.94999981E+00  0.40512E+02
 0.99999976E+00  0.30531E+02
 0.10499997E+01  0.26664E+02
 0.10999999E+01  0.13013E+02
 0.11499999E+01  0.10744E+02
 0.11999998E+01 -0.10537E+02
 0.12499998E+01 -0.12781E+02
 0.12999997E+01 -0.21011E+02
 0.13499999E+01 -0.16647E+02
 0.13999999E+01 -0.29333E+02
 0.14499998E+01 -0.44271E+02
 0.14999998E+01 -0.49424E+02
 0.15499997E+01 -0.64585E+02
 0.15999999E+01 -0.56889E+02
 0.16499999E+01 -0.55865E+02
 0.16999998E+01 -0.45808E+02
 0.17499998E+01 -0.43430E+02
 0.17999997E+01 -0.28405E+02
 0.18499997E+01 -0.23243E+02
 0.18999999E+01 -0.16078E+02
 0.19499998E+01 -0.10614E+02
 0.19999998E+01 -0.14419E+02
 0.20499997E+01 -0.87353E+01
 0.20999999E+01 -0.11709E+02
 0.21499996E+01 -0.95101E+01
 0.21999998E+01 -0.18149E+02
 0.22499995E+01 -0.10835E+02
 0.22999997E+01 -0.29256E+01
 0.23499999E+01 -0.83426E+00
 0.23999996E+01  0.60521E+01
 0.24499998E+01 -0.12089E+01
 0.24999995E+01 -0.58725E+01
 0.25499997E+01 -0.10569E+02
 0.25999999E+01 -0.11873E+02
 0.26499996E+01 -0.49184E+01
 0.26999998E+01 -0.40417E+01
 0.27499995E+01  0.66531E+01
 0.27999997E+01  0.11180E+02
 0.28499999E+01  0.20718E+02
 0.28999996E+01  0.27572E+02
 0.29499998E+01  0.32578E+02
 0.29999995E+01  0.29961E+02
 0.30499997E+01  0.28495E+02
 0.30999999E+01  0.28440E+02
 0.31499996E+01  0.27023E+02
 0.31999998E+01  0.26612E+02
 0.32499995E+01  0.20735E+02
 0.32999997E+01  0.16576E+02
 0.33499999E+01 -0.41896E+01
 0.33999996E+01 -0.49024E+01
 0.34499998E+01 -0.21882E+02
 0.34999995E+01 -0.25707E+02
 0.35499997E+01 -0.33245E+02
 0.35999994E+01 -0.41562E+02
 0.36499996E+01 -0.39295E+02
 0.36999998E+01 -0.38671E+02
 0.37499995E+01 -0.24062E+02
 0.37999997E+01 -0.21206E+02
 0.38499994E+01 -0.13265E+02
 0.38999996E+01 -0.37346E+01
 0.39499998E+01  0.13565E+02
 0.39999995E+01  0.30568E+02
 0.40499997E+01  0.46948E+02
 0.40999994E+01  0.63313E+02
 0.41499996E+01  0.73515E+02
 0.41999998E+01  0.71205E+02
 0.42499995E+01  0.79638E+02
 0.42999997E+01  0.81187E+02
 0.43499994E+01  0.80381E+02
 0.43999996E+01  0.77805E+02
 0.44499998E+01  0.63101E+02
 0.44999995E+01  0.56212E+02
 0.45499997E+01  0.38128E+02
 0.45999994E+01  0.33001E+02
 0.46499996E+01  0.21255E+02
 0.46999998E+01 -0.51754E+01
 0.47499995E+01 -0.18824E+02
 0.47999997E+01 -0.50475E+02
 0.48499994E+01 -0.66811E+02
 0.48999996E+01 -0.71804E+02
 0.49499998E+01 -0.80733E+02
 0.49999995E+01 -0.73516E+02
 0.50499997E+01 -0.77539E+02
 0.50999994E+01 -0.82752E+02
 0.51499996E+01 -0.77665E+02
 0.51999998E+01 -0.75803E+02
 0.52499995E+01 -0.62115E+02
 0.52999997E+01 -0.45286E+02
 0.53499994E+01 -0.30688E+02
 0.53999996E+01 -0.32249E+01
 0.54499993E+01  0.77797E+01
 0.54999995E+01  0.19317E+02
 0.55499997E+01  0.35171E+02
 0.55999994E+01  0.31163E+02
 0.56499996E+01  0.25395E+02
 0.56999993E+01  0.20509E+02
 0.57499995E+01  0.12361E+01
 0.57999997E+01  0.69693E+01
 0.58499994E+01 -0.75148E+01
 0.58999996E+01 -0.12811E+01
 0.59499993E+01  0.19469E+01
 0.59999995E+01 -0.24027E+01
 0.60499992E+01  0.30212E+01
 0.60999994E+01 -0.22529E+02
 0.61499996E+01 -0.21522E+02
 0.61999998E+01 -0.41918E+02
 0.62499990E+01 -0.38015E+02
 0.62999992E+01 -0.42899E+02
 0.63499994E+01 -0.61592E+02
 0.63999996E+01 -0.58410E+02
 0.64499998E+01 -0.65794E+02
 0.64999990E+01 -0.43721E+02
 0.65499992E+01 -0.20372E+02
 0.65999994E+01 -0.14083E+02
 0.66499996E+01  0.74625E-01
 0.66999998E+01 -0.85268E+01
 0.67499990E+01 -0.31958E+00
 0.67999992E+01  0.41385E+01
 0.68499994E+01  0.80182E+01
 0.68999996E+01  0.25535E+02
 0.69499998E+01  0.32039E+02
 0.69999990E+01  0.42261E+02
 0.70499992E+01  0.55297E+02
 0.70999994E+01  0.57337E+02
 0.71499996E+01  0.70816E+02
 0.71999998E+01  0.77624E+02
 0.72499990E+01  0.75452E+02
 0.72999992E+01  0.83436E+02
 0.73499994E+01  0.78070E+02
 0.73999996E+01  0.89160E+02
 0.74499998E+01  0.75163E+02
 0.74999990E+01  0.75407E+02
 0.75499992E+01  0.71610E+02
 0.75999994E+01  0.63861E+02
 0.76499996E+01  0.62481E+02
 0.76999998E+01  0.50490E+02
 0.77499990E+01  0.31170E+02
 0.77999992E+01  0.78636E+01
 0.78499994E+01 -0.10484E+02
 0.78999996E+01 -0.28591E+02
 0.79499998E+01 -0.41282E+02
 0.79999990E+01 -0.58308E+02
 0.80499992E+01 -0.54726E+02
 0.80999994E+01 -0.61764E+02
 0.81499996E+01 -0.51614E+02
 0.81999998E+01 -0.55725E+02
 0.82499990E+01 -0.53812E+02
 0.82999992E+01 -0.47503E+02
 0.83499994E+01 -0.51202E+02
 0.83999996E+01 -0.35219E+02
 0.84499998E+01 -0.23282E+02
 0.84999990E+01 -0.25777E+00
 0.85499992E+01  0.14031E+02
 0.85999994E+01  0.26728E+02
 0.86499996E+01  0.33946E+02
 0.86999998E+01  0.34302E+02
 0.87499990E+01  0.31947E+02
 0.87999992E+01  0.24519E+02
 0.88499994E+01  0.14556E+02
 0.88999996E+01  0.10675E+02
 0.89499998E+01  0.10058E+02
 0.89999990E+01  0.41984E+01
 0.90499992E+01  0.75142E+01
 0.90999994E+01 -0.91888E+01
 0.91499996E+01 -0.16480E+02
 0.91999989E+01 -0.27325E+02
 0.92499990E+01 -0.37561E+02
 0.92999992E+01 -0.35540E+02
 0.93499994E+01 -0.47791E+02
 0.93999996E+01 -0.36360E+02
 0.94499989E+01 -0.44946E+02
 0.94999990E+01 -0.44245E+02
 0.95499992E+01 -0.36488E+02
 0.95999994E+01 -0.43406E+02
 0.96499996E+01 -0.22688E+02
 0.96999989E+01 -0.21978E+02
 0.97499990E+01 -0.17583E+02
 0.97999992E+01 -0.13848E+02
 0.98499994E+01 -0.29941E+02
 0.98999996E+01 -0.24698E+02
 0.99499989E+01 -0.38794E+02
 0.99999990E+01 -0.36147E+02
 0.10049999E+02 -0.37257E+02
 0.10099999E+02 -0.49249E+02
 0.10150000E+02 -0.46055E+02
 0.10199999E+02 -0.65032E+02
 0.10249999E+02 -0.50809E+02
 0.10299999E+02 -0.37827E+02
 0.10349999E+02 -0.18552E+02
 0.10400000E+02  0.57859E+01
 0.10449999E+02  0.13488E+02
 0.10499999E+02  0.28172E+02
 0.10549999E+02  0.32979E+02
 0.10599999E+02  0.41977E+02
 0.10650000E+02  0.47403E+02
 0.10699999E+02  0.49121E+02
 0.10749999E+02  0.44456E+02
 0.10799999E+02  0.37448E+02
 0.10849999E+02  0.41021E+02
 0.10900000E+02  0.30687E+02
 0.10949999E+02  0.25665E+02
 0.10999999E+02  0.22631E+02
 0.11049999E+02  0.18749E+02
 0.11099999E+02  0.33310E+02
 0.11150000E+02  0.31949E+02
 0.11199999E+02  0.50321E+02
 0.11249999E+02  0.56960E+02
 0.11299999E+02  0.68626E+02
 0.11349999E+02  0.80352E+02
 0.11400000E+02  0.84991E+02
 0.11449999E+02  0.10419E+03
 0.11499999E+02  0.94048E+02
 0.11549999E+02  0.96535E+02
 0.11599999E+02  0.85473E+02
 0.11650000E+02  0.81081E+02
 0.11699999E+02  0.70798E+02
 0.11749999E+02  0.63042E+02
 0.11799999E+02  0.57594E+02
 0.11849999E+02  0.41045E+02
 0.11900000E+02  0.30615E+02
 0.11949999E+02  0.13397E+02
 0.11999999E+02  0.16096E+01
 0.12049999E+02 -0.16990E+02
 0.12099999E+02 -0.37108E+02
 0.12150000E+02 -0.51821E+02
 0.12199999E+02 -0.63043E+02
 0.12249999E+02 -0.70113E+02
 0.12299999E+02 -0.71961E+02
 0.12349999E+02 -0.79577E+02
 0.12400000E+02 -0.86237E+02
 0.12449999E+02 -0.91634E+02
 0.12499999E+02 -0.88485E+02
 0.12549999E+02 -0.78555E+02
 0.12599999E+02 -0.78715E+02
 0.12649999E+02 -0.70466E+02
 0.12699999E+02 -0.72080E+02
 0.12749999E+02 -0.67358E+02
 0.12799999E+02 -0.57280E+02
 0.12849999E+02 -0.54137E+02
 0.12899999E+02 -0.47575E+02
 0.12949999E+02 -0.40865E+02
 0.12999999E+02 -0.40513E+02
 0.13049999E+02 -0.38599E+02
 0.13099999E+02 -0.41009E+02
 0.13149999E+02 -0.40392E+02
 0.13199999E+02 -0.39152E+02
 0.13249999E+02 -0.36686E+02
 0.13299999E+02 -0.33690E+02
 0.13349999E+02 -0.31368E+02
 0.13399999E+02 -0.17322E+02
 0.13449999E+02 -0.70113E+01
 0.13499999E+02  0.11705E+02
 0.13549999E+02  0.24421E+02
 0.13599999E+02  0.45818E+02
 0.13649999E+02  0.61195E+02
 0.13699999E+02  0.63250E+02
 0.13749999E+02  0.83617E+02
 0.13799999E+02  0.76912E+02
 0.13849999E+02  0.99076E+02
 0.13899999E+02  0.11221E+03
 0.13949999E+02  0.12456E+03
 0.13999999E+02  0.14252E+03
 0.14049999E+02  0.12883E+03
 0.14099998E+02  0.13953E+03
 0.14150000E+02  0.11787E+03
 0.14199999E+02  0.11031E+03
 0.14249998E+02  0.96560E+02
 0.14299999E+02  0.73051E+02
 0.14349998E+02  0.62511E+02
 0.14400000E+02  0.20865E+02
 0.14449999E+02 -0.42384E+01
 0.14499998E+02 -0.43732E+02
 0.14549999E+02 -0.77171E+02
 0.14599998E+02 -0.95887E+02
 0.14650000E+02 -0.12640E+03
 0.14699999E+02 -0.13735E+03
 0.14749998E+02 -0.15243E+03
 0.14799999E+02 -0.16930E+03
 0.14849998E+02 -0.16684E+03
 0.14900000E+02 -0.17501E+03
 0.14949999E+02 -0.15832E+03
 0.14999998E+02 -0.13932E+03
 0.15049999E+02 -0.12077E+03
 0.15099998E+02 -0.98572E+02
 0.15150000E+02 -0.79168E+02
 0.15199999E+02 -0.51156E+02
 0.15249998E+02 -0.22610E+02
 0.15299999E+02 -0.53233E+00
 0.15349998E+02  0.25045E+02
 0.15400000E+02  0.52634E+02
 0.15449999E+02  0.77286E+02
 0.15499998E+02  0.10862E+03
 0.15549999E+02  0.11615E+03
 0.15599998E+02  0.14505E+03
 0.15650000E+02  0.14220E+03
 0.15699999E+02  0.15542E+03
 0.15749998E+02  0.15821E+03
 0.15799999E+02  0.14960E+03
 0.15849998E+02  0.15890E+03
 0.15900000E+02  0.12477E+03
 0.15949999E+02  0.12403E+03
 0.15999998E+02  0.93088E+02
 0.16049999E+02  0.85636E+02
 0.16099998E+02  0.74450E+02
 0.16150000E+02  0.46319E+02
 0.16199999E+02  0.46831E+02
 0.16249998E+02  0.14476E+02
 0.16299999E+02  0.15779E+02
 0.16349998E+02 -0.43265E+01
 0.16400000E+02 -0.16064E+02
 0.16449999E+02 -0.22556E+02
 0.16499998E+02 -0.47188E+02
 0.16549999E+02 -0.47055E+02
 0.16599998E+02 -0.78008E+02
 0.16650000E+02 -0.84734E+02
 0.16699999E+02 -0.10639E+03
 0.16749998E+02 -0.12685E+03
 0.16799999E+02 -0.13557E+03
 0.16849998E+02 -0.15856E+03
 0.16900000E+02 -0.16869E+03
 0.16949999E+02 -0.17220E+03
 0.16999998E+02 -0.17819E+03
 0.17049999E+02 -0.16770E+03
 0.17099998E+02 -0.16139E+03
 0.17150000E+02 -0.14569E+03
 0.17199999E+02 -0.13753E+03
 0.17249998E+02 -0.12535E+03
 0.17299999E+02 -0.96245E+02
 0.17349998E+02 -0.77667E+02
 0.17400000E+02 -0.38884E+02
 0.17449999E+02 -0.26288E+02
 0.17499998E+02 -0.28119E+01
 0.17549999E+02  0.15667E+02
 0.17599998E+02  0.27994E+02
 0.17650000E+02  0.52884E+02
 0.17699999E+02  0.69408E+02
 0.17749998E+02  0.92294E+02
 0.17799999E+02  0.11058E+03
 0.17849998E+02  0.11424E+03
 0.17900000E+02  0.13642E+03
 0.17949999E+02  0.13134E+03
 0.17999998E+02  0.15259E+03
 0.18049999E+02  0.15197E+03
 0.18099998E+02  0.14802E+03
 0.18150000E+02  0.14811E+03
 0.18199999E+02  0.12614E+03
 0.18249998E+02  0.12172E+03
 0.18299999E+02  0.97548E+02
 0.18349998E+02  0.93832E+02
 0.18400000E+02  0.78331E+02
 0.18449999E+02  0.71053E+02
 0.18499998E+02  0.54969E+02
 0.18549999E+02  0.50578E+02
 0.18599998E+02  0.36197E+02
 0.18650000E+02  0.27577E+02
 0.18699999E+02  0.24516E+02
 0.18749998E+02  0.51306E+01
 0.18799999E+02 -0.17344E+01
 0.18849998E+02 -0.20234E+02
 0.18900000E+02 -0.20272E+02
 0.18949999E+02 -0.23892E+02
 0.18999998E+02 -0.24850E+02
 0.19049999E+02 -0.15952E+02
 0.19099998E+02 -0.33796E+02
 0.19150000E+02 -0.27118E+02
 0.19199999E+02 -0.40440E+02
 0.19249998E+02 -0.41704E+02
 0.19299999E+02 -0.39686E+02
 0.19349998E+02 -0.52809E+02
 0.19400000E+02 -0.42483E+02
 0.19449999E+02 -0.55364E+02
 0.19499998E+02 -0.46607E+02
 0.19549999E+02 -0.43556E+02
 0.19599998E+02 -0.47573E+02
 0.19650000E+02 -0.36674E+02
 0.19699999E+02 -0.39440E+02
 0.19749998E+02 -0.34567E+02
 0.19799999E+02 -0.35001E+02
 0.19849998E+02 -0.47104E+02
 0.19900000E+02 -0.40936E+02
 0.19949999E+02 -0.53604E+02
 0.19999998E+02 -0.38426E+02
 0.20049999E+02 -0.43564E+02
 0.20099998E+02 -0.47242E+02
 0.20150000E+02 -0.42853E+02
 0.20199999E+02 -0.57319E+02
 0.20249998E+02 -0.42307E+02
 0.20299999E+02 -0.43482E+02
 0.20349998E+02 -0.24076E+02
 0.20399998E+02 -0.15106E+02
 0.20449999E+02 -0.15649E+02
 0.20499998E+02 -0.27600E+01
 0.20549999E+02 -0.87793E+01
 0.20599998E+02 -0.45971E+00
 0.20649998E+02 -0.15472E+01
 0.20699999E+02 -0.78538E+01
 0.20749998E+02 -0.54029E+01
 0.20799999E+02 -0.16383E+02
 0.20849998E+02 -0.92776E+01
 0.20899998E+02 -0.84389E+01
 0.20949999E+02  0.51861E+00
 0.20999998E+02  0.56121E+01
 0.21049999E+02  0.12373E+02
 0.21099998E+02  0.21770E+02
 0.21149998E+02  0.28486E+02
 0.21199999E+02  0.35569E+02
 0.21249998E+02  0.43508E+02
 0.21299999E+02  0.47314E+02
 0.21349998E+02  0.53502E+02
 0.21399998E+02  0.62834E+02
 0.21449999E+02  0.74272E+02
 0.21499998E+02  0.89283E+02
 0.21549999E+02  0.86257E+02
 0.21599998E+02  0.97672E+02
 0.21649998E+02  0.87605E+02
 0.21699999E+02  0.89676E+02
 0.21749998E+02  0.83544E+02
 0.21799999E+02  0.74540E+02
 0.21849998E+02  0.68009E+02
 0.21899998E+02  0.46890E+02
 0.21949999E+02  0.36363E+02
 0.21999998E+02  0.23498E+02
 0.22049999E+02  0.15449E+02
 0.22099998E+02  0.53719E+01
 0.22149998E+02  0.15641E+01
 0.22199999E+02  0.15425E+00
 0.22249998E+02  0.12057E+01
 0.22299999E+02  0.41911E+01
 0.22349998E+02  0.86367E+01
 0.22399998E+02  0.14510E+02
 0.22449999E+02  0.10343E+02
 0.22499998E+02  0.76915E+01
 0.22549999E+02 -0.28048E+01
 0.22599998E+02 -0.39976E+01
 0.22649998E+02 -0.33503E+01
 0.22699999E+02 -0.11634E+02
 0.22749998E+02 -0.30734E+01
 0.22799999E+02 -0.12735E+02
 0.22849998E+02 -0.78777E+01
 0.22899998E+02 -0.13782E+02
 0.22949999E+02 -0.18664E+02
 0.22999998E+02 -0.16810E+02
 0.23049999E+02 -0.30044E+02
 0.23099998E+02 -0.32405E+02
 0.23149998E+02 -0.45611E+02
 0.23199999E+02 -0.44892E+02
 0.23249998E+02 -0.54881E+02
 0.23299999E+02 -0.61803E+02
 0.23349998E+02 -0.57908E+02
 0.23399998E+02 -0.60059E+02
 0.23449999E+02 -0.46704E+02
 0.23499998E+02 -0.49330E+02
 0.23549999E+02 -0.43722E+02
 0.23599998E+02 -0.45009E+02
 0.23649998E+02 -0.55788E+02
 0.23699999E+02 -0.54486E+02
 0.23749998E+02 -0.72217E+02
 0.23799999E+02 -0.70602E+02
 0.23849998E+02 -0.80022E+02
 0.23899998E+02 -0.82973E+02
 0.23949999E+02 -0.78902E+02
 0.23999998E+02 -0.95293E+02
 0.24049999E+02 -0.82158E+02
 0.24099998E+02 -0.92783E+02
 0.24149998E+02 -0.82976E+02
 0.24199999E+02 -0.78718E+02
 0.24249998E+02 -0.81497E+02
 0.24299999E+02 -0.63372E+02
 0.24349998E+02 -0.60491E+02
 0.24399998E+02 -0.31085E+02
 0.24449999E+02 -0.23820E+02
 0.24499998E+02 -0.86615E+01
 0.24549999E+02  0.79541E+00
 0.24599998E+02 -0.46416E+01
 0.24649998E+02  0.10846E+02
 0.24699999E+02  0.10194E+02
 0.24749998E+02  0.16287E+02
 0.24799999E+02  0.18555E+02
 0.24849998E+02  0.14394E+02
 0.24899998E+02  0.25685E+02
 0.24949999E+02  0.30481E+02
 0.24999998E+02  0.48495E+02
 0.25049999E+02  0.66675E+02
 0.25099998E+02  0.78561E+02
 0.25149998E+02  0.10878E+03
 0.25199999E+02  0.10536E+03
 0.25249998E+02  0.12500E+03
 0.25299999E+02  0.13304E+03
 0.25349998E+02  0.13058E+03
 0.25399998E+02  0.14896E+03
 0.25449999E+02  0.13331E+03
 0.25499998E+02  0.14875E+03
 0.25549999E+02  0.13370E+03
 0.25599998E+02  0.13334E+03
 0.25649998E+02  0.13063E+03
 0.25699999E+02  0.10908E+03
 0.25749998E+02  0.11096E+03
 0.25799999E+02  0.86002E+02
 0.25849998E+02  0.90744E+02
 0.25899998E+02  0.77016E+02
 0.25949999E+02  0.66198E+02
 0.25999998E+02  0.61920E+02
 0.26049999E+02  0.49398E+02
 0.26099998E+02  0.50104E+02
 0.26149998E+02  0.41926E+02
 0.26199999E+02  0.46316E+02
 0.26249998E+02  0.40453E+02
 0.26299999E+02  0.36936E+02
 0.26349998E+02  0.30444E+02
 0.26399998E+02  0.11850E+02
 0.26449999E+02  0.37391E+01
 0.26499998E+02 -0.19755E+02
 0.26549999E+02 -0.34179E+02
 0.26599998E+02 -0.48773E+02
 0.26649998E+02 -0.65320E+02
 0.26699999E+02 -0.71274E+02
 0.26749998E+02 -0.91029E+02
 0.26799999E+02 -0.96404E+02
 0.26849998E+02 -0.10182E+03
 0.26899998E+02 -0.10671E+03
 0.26949999E+02 -0.10295E+03
 0.26999998E+02 -0.10490E+03
 0.27049997E+02 -0.10423E+03
 0.27099998E+02 -0.10619E+03
 0.27149998E+02 -0.99292E+02
 0.27199999E+02 -0.99310E+02
 0.27249998E+02 -0.97937E+02
 0.27299997E+02 -0.93413E+02
 0.27349998E+02 -0.93129E+02
 0.27399998E+02 -0.84697E+02
 0.27449999E+02 -0.82294E+02
 0.27499998E+02 -0.76448E+02
 0.27549997E+02 -0.76473E+02
 0.27599998E+02 -0.76575E+02
 0.27649998E+02 -0.74998E+02
 0.27699999E+02 -0.78802E+02
 0.27749998E+02 -0.74521E+02
 0.27799997E+02 -0.75156E+02
 0.27849998E+02 -0.67277E+02
 0.27899998E+02 -0.68721E+02
 0.27949999E+02 -0.66250E+02
 0.27999998E+02 -0.60439E+02
 0.28049997E+02 -0.49993E+02
 0.28099998E+02 -0.29400E+02
 0.28149998E+02 -0.16445E+02
 0.28199999E+02  0.73008E+01
 0.28249998E+02  0.13747E+02
 0.28299997E+02  0.29619E+02
 0.28349998E+02  0.39667E+02
 0.28399998E+02  0.46138E+02
 0.28449999E+02  0.49956E+02
 0.28499998E+02  0.46060E+02
 0.28549997E+02  0.43886E+02
 0.28599998E+02  0.38616E+02
 0.28649998E+02  0.32225E+02
 0.28699999E+02  0.29139E+02
 0.28749998E+02  0.30217E+02
 0.28799997E+02  0.28349E+02
 0.28849998E+02  0.37372E+02
 0.28899998E+02  0.38115E+02
 0.28949999E+02  0.51762E+02
 0.28999998E+02  0.54194E+02
 0.29049997E+02  0.66250E+02
 0.29099998E+02  0.74014E+02
 0.29149998E+02  0.81353E+02
 0.29199999E+02  0.96618E+02
 0.29249998E+02  0.98085E+02
 0.29299997E+02  0.11115E+03
 0.29349998E+02  0.11080E+03
 0.29399998E+02  0.11614E+03
 0.29449999E+02  0.12178E+03
 0.29499998E+02  0.11647E+03
 0.29549997E+02  0.11613E+03
 0.29599998E+02  0.10773E+03
 0.29649998E+02  0.10432E+03
 0.29699999E+02  0.93760E+02
 0.29749998E+02  0.75173E+02
 0.29799997E+02  0.67752E+02
 0.29849998E+02  0.42315E+02
 0.29899998E+02  0.38735E+02
 0.29949999E+02  0.18794E+02
 0.29999998E+02  0.13650E+02
 0.30049999E+02  0.34029E+01
 0.30099998E+02 -0.13095E+02
 0.30149998E+02 -0.95134E+01
 0.30199997E+02 -0.26182E+02
 0.30249996E+02 -0.20066E+02
 0.30299999E+02 -0.30614E+02
 0.30349998E+02 -0.32760E+02
 0.30399998E+02 -0.30869E+02
 0.30449997E+02 -0.39574E+02
 0.30499996E+02 -0.41570E+02
 0.30549999E+02 -0.51762E+02
 0.30599998E+02 -0.65040E+02
 0.30649998E+02 -0.62991E+02
 0.30699997E+02 -0.71231E+02
 0.30749996E+02 -0.65165E+02
 0.30799999E+02 -0.69768E+02
 0.30849998E+02 -0.78663E+02
 0.30899998E+02 -0.69300E+02
 0.30949997E+02 -0.82233E+02
 0.30999996E+02 -0.72202E+02
 0.31049999E+02 -0.82800E+02
 0.31099998E+02 -0.85636E+02
 0.31149998E+02 -0.94991E+02
 0.31199997E+02 -0.10934E+03
 0.31249996E+02 -0.10986E+03
 0.31299999E+02 -0.12292E+03
 0.31349998E+02 -0.11140E+03
 0.31399998E+02 -0.11656E+03
 0.31449997E+02 -0.11095E+03
 0.31499996E+02 -0.11114E+03
 0.31549999E+02 -0.10985E+03
 0.31599998E+02 -0.93231E+02
 0.31649998E+02 -0.90659E+02
 0.31699997E+02 -0.76646E+02
 0.31749996E+02 -0.69276E+02
 0.31799999E+02 -0.57038E+02
 0.31849998E+02 -0.52929E+02
 0.31899998E+02 -0.39720E+02
 0.31949997E+02 -0.11035E+02
 0.31999996E+02  0.13783E+02
 0.32049999E+02  0.15646E+02
 0.32099998E+02  0.16198E+02
 0.32149998E+02  0.40566E+02
 0.32199997E+02  0.70263E+02
 0.32249996E+02  0.10204E+03
 0.32299999E+02  0.12169E+03
 0.32349998E+02  0.11880E+03
 0.32399998E+02  0.10241E+03
 0.32449997E+02  0.12767E+03
 0.32499996E+02  0.17033E+03
 0.32549999E+02  0.21455E+03
 0.32599998E+02  0.23153E+03
 0.32649998E+02  0.18433E+03
 0.32699997E+02  0.13551E+03
 0.32749996E+02  0.17023E+03
 0.32799999E+02  0.13250E+03
 0.32849998E+02  0.25306E+03
 0.32899998E+02  0.18870E+03
 0.32949997E+02  0.11645E+03
 0.32999996E+02  0.12985E+03
 0.33049999E+02 -0.72246E+02
 0.33099998E+02  0.34691E+03
 0.33149998E+02 -0.18322E+02
 0.33199997E+02  0.63164E+02
 0.33249996E+02  0.31639E+03
 0.33299999E+02 -0.38608E+03
 0.33349998E+02  0.23441E+03
 0.33399998E+02 -0.34794E+03
 0.33449997E+02 -0.12828E+03
 0.33499996E+02  0.10435E+03
 0.33549999E+02 -0.44444E+03
 0.33599998E+02  0.20612E+03
 0.33649998E+02 -0.37672E+03
 0.33699997E+02  0.22553E+03
 0.33749996E+02 -0.20516E+03
 0.33799999E+02 -0.75664E+01
 0.33849998E+02  0.91748E+00
 0.33899998E+02 -0.37427E+03
 0.33949997E+02  0.86821E+02
 0.33999996E+02 -0.67435E+03
 0.34049999E+02 -0.22061E+03
 0.34099998E+02 -0.39542E+03
 0.34149998E+02 -0.82322E+02
 0.34199997E+02 -0.15797E+03
 0.34249996E+02  0.41221E+02
 0.34299999E+02  0.86849E+02
 0.34349998E+02 -0.12230E+03
 0.34399998E+02  0.64413E+03
 0.34449997E+02 -0.23515E+03
 0.34499996E+02  0.15127E+03
 0.34549999E+02  0.37511E+03
 0.34599998E+02 -0.11388E+03
 0.34649998E+02 -0.33676E+02
 0.34699997E+02 -0.18175E+03
 0.34749996E+02  0.20547E+03
 0.34799999E+02 -0.48558E+02
 0.34849998E+02  0.26594E+03
 0.34899998E+02 -0.64053E+02
 0.34949997E+02 -0.42449E+01
 0.34999996E+02  0.37131E+03
 0.35049999E+02 -0.80309E+02
 0.35099998E+02  0.81254E+02
 0.35149998E+02  0.17953E+02
 0.35199997E+02 -0.17056E+03
 0.35249996E+02 -0.19607E+03
 0.35299999E+02  0.38457E+02
 0.35349998E+02 -0.35883E+02
 0.35399998E+02 -0.80309E+01
 0.35449997E+02  0.49664E+03
 0.35499996E+02 -0.40283E+03
 0.35549999E+02  0.11832E+03
 0.35599998E+02  0.37628E+03
 0.35649998E+02 -0.73420E+03
 0.35699997E+02  0.98917E+03
 0.35749996E+02 -0.73514E+03
 0.35799999E+02 -0.67034E+03
 0.35849998E+02  0.78688E+03
 0.35899998E+02 -0.10294E+04
 0.35949997E+02  0.44473E+03
 0.35999996E+02 -0.29017E+03
 0.36049999E+02 -0.17358E+03
 0.36099998E+02  0.68422E+03
 0.36149998E+02 -0.47500E+03
 0.36199997E+02  0.30352E+03
 0.36249996E+02 -0.42028E+01
 0.36299999E+02  0.25748E+03
 0.36349998E+02  0.82383E+02
 0.36399998E+02  0.14292E+03
 0.36449997E+02  0.18857E+03
 0.36499996E+02 -0.23300E+03
 0.36549999E+02  0.34598E+03
 0.36599998E+02  0.14775E+03
 0.36649998E+02  0.93486E+01
 0.36699997E+02  0.12415E+03
 0.36749996E+02  0.91556E+01
 0.36799999E+02 -0.13091E+03
 0.36849998E+02 -0.14753E+03
 0.36899998E+02 -0.68584E+02
 0.36949997E+02  0.23880E+03
 0.36999996E+02  0.45446E+02
 0.37049999E+02 -0.30671E+02
 0.37099998E+02  0.12952E+03
 0.37149998E+02 -0.41946E+02
 0.37199997E+02  0.26515E+03
 0.37249996E+02 -0.24092E+02
 0.37299999E+02 -0.20511E+02
 0.37349998E+02  0.24175E+03
 0.37399998E+02 -0.56011E+03
 0.37449997E+02  0.27130E+02
 0.37499996E+02 -0.91025E+02
 0.37549999E+02 -0.54277E+03
 0.37599998E+02  0.63688E+03
 0.37649998E+02 -0.27337E+03
 0.37699997E+02  0.15845E+03
 0.37749996E+02  0.15563E+03
 0.37799999E+02 -0.73287E+03
 0.37849998E+02  0.59799E+03
 0.37899998E+02 -0.42334E+03
 0.37949997E+02 -0.21380E+03
 0.37999996E+02 -0.10955E+03
 0.38049999E+02 -0.63762E+03
 0.38099998E+02  0.48684E+03
 0.38149998E+02 -0.10831E+04
 0.38199997E+02 -0.85657E+02
 0.38249996E+02  0.57824E+03
 0.38299999E+02 -0.58704E+03
 0.38349998E+02  0.33032E+03
 0.38399998E+02 -0.28496E+03
 0.38449997E+02  0.67812E+02
 0.38499996E+02 -0.56786E+02
 0.38549999E+02 -0.87683E+02
 0.38599998E+02  0.17852E+03
 0.38649998E+02 -0.28293E+02
 0.38699997E+02  0.63541E+03
 0.38749996E+02  0.73283E+03
 0.38799999E+02  0.23447E+01
 0.38849998E+02  0.31420E+03
 0.38899998E+02  0.53649E+03
 0.38949997E+02 -0.58962E+03
 0.38999996E+02  0.60780E+03
 0.39049999E+02  0.22515E+02
 0.39099998E+02 -0.76719E+03
 0.39149998E+02  0.30530E+02
 0.39199997E+02 -0.59785E+03
 0.39249996E+02  0.41035E+03
 0.39299999E+02 -0.67687E+02
 0.39349998E+02  0.15019E+03
 0.39399998E+02  0.75845E+03
 0.39449997E+02 -0.95722E+02
 0.39499996E+02  0.58006E+03
 0.39549999E+02 -0.23108E+03
 0.39599998E+02 -0.36885E+02
 0.39649998E+02  0.58459E+03
 0.39699997E+02 -0.40775E+03
 0.39749996E+02  0.21552E+03
 0.39799999E+02  0.51961E+02
 0.39849998E+02 -0.30032E+03
 0.39899998E+02  0.17853E+03
 0.39949997E+02  0.36194E+03
 0.39999996E+02  0.33189E+03
 0.40049999E+02 -0.75051E+03
 0.40099998E+02 -0.78163E+03
 0.40149998E+02  0.52828E+02
 0.40199997E+02 -0.28363E+03
 0.40249996E+02 -0.30971E+03
 0.40299999E+02 -0.45076E+02
 0.40349998E+02  0.17346E+03
 0.40399998E+02  0.54814E+03
 0.40449997E+02 -0.29895E+03
 0.40499996E+02 -0.13177E+03
 0.40549999E+02  0.45289E+03
 0.40599998E+02 -0.54054E+03
 0.40649998E+02 -0.84172E+03
 0.40699997E+02 -0.35728E+03
 0.40749996E+02 -0.49438E+03
 0.40799999E+02  0.15055E+03
 0.40849998E+02  0.51720E+03
 0.40899998E+02  0.16943E+03
 0.40949997E+02  0.94857E+02
 0.40999996E+02 -0.41418E+03
 0.41049999E+02  0.48631E+03
 0.41099998E+02  0.92348E+02
 0.41149998E+02 -0.50504E+03
 0.41199997E+02  0.18089E+03
 0.41249996E+02 -0.22810E+03
 0.41299999E+02  0.35925E+03
 0.41349998E+02  0.47289E+03
 0.41399998E+02 -0.50112E+03
 0.41449997E+02  0.67309E+03
 0.41499996E+02  0.28408E+03
 0.41549999E+02 -0.38986E+03
 0.41599998E+02  0.70699E+03
 0.41649998E+02 -0.85939E+03
 0.41699997E+02  0.46330E+03
 0.41749996E+02  0.22584E+03
 0.41799999E+02 -0.65623E+03
 0.41849998E+02  0.78664E+03
 0.41899998E+02 -0.17900E+03
 0.41949997E+02  0.10011E+04
 0.41999996E+02 -0.15200E+02
 0.42049999E+02 -0.16078E+02
 0.42099998E+02  0.19258E+03
 0.42149998E+02 -0.50286E+03
 0.42199997E+02  0.78611E+03
 0.42249996E+02 -0.98500E+03
 0.42299999E+02 -0.40672E+03
 0.42349998E+02 -0.24727E+03
 0.42399998E+02 -0.81731E+03
 0.42449997E+02  0.21983E+03
 0.42499996E+02 -0.40187E+03
 0.42549999E+02 -0.26432E+02
 0.42599998E+02  0.29389E+03
 0.42649998E+02  0.28130E+03
 0.42699997E+02 -0.79181E+02
 0.42749996E+02 -0.27185E+03
 0.42799995E+02  0.33538E+03
 0.42849998E+02 -0.54435E+03
 0.42899998E+02 -0.35002E+03
 0.42949997E+02  0.66286E+02
 0.42999996E+02 -0.24301E+03
 0.43049995E+02  0.10812E+03
 0.43099998E+02 -0.16546E+03
 0.43149998E+02  0.55253E+03
 0.43199997E+02  0.52114E+03
 0.43249996E+02  0.31430E+03
 0.43299995E+02  0.60264E+03
 0.43349998E+02 -0.44399E+03
 0.43399998E+02  0.41294E+03
 0.43449997E+02  0.16841E+02
 0.43499996E+02 -0.36977E+03
 0.43549995E+02  0.60325E+03
 0.43599998E+02 -0.19282E+03
 0.43649998E+02  0.58763E+03
 0.43699997E+02  0.45621E+03
 0.43749996E+02  0.11955E+03
 0.43799995E+02  0.32158E+02
 0.43849998E+02 -0.44982E+03
 0.43899998E+02  0.13717E+03
 0.43949997E+02  0.75349E+02
 0.43999996E+02  0.73746E+03
 0.44049995E+02  0.15651E+03
 0.44099998E+02 -0.47719E+03
 0.44149998E+02 -0.27139E+03
 0.44199997E+02 -0.55145E+03
 0.44249996E+02 -0.18047E+03
 0.44299995E+02 -0.10133E+03
 0.44349998E+02 -0.78333E+01
 0.44399998E+02 -0.73045E+03
 0.44449997E+02 -0.45117E+03
 0.44499996E+02 -0.60682E+03
 0.44549995E+02 -0.62210E+03
 0.44599998E+02  0.11276E+04
 0.44649998E+02  0.10705E+03
 0.44699997E+02  0.23057E+03
 0.44749996E+02  0.25811E+03
 0.44799995E+02 -0.24057E+03
 0.44849998E+02  0.19029E+03
 0.44899998E+02 -0.10833E+04
 0.44949997E+02 -0.38839E+03
 0.44999996E+02 -0.24566E+03
 0.45049995E+02 -0.39655E+02
 0.45099998E+02  0.13421E+02
 0.45149998E+02 -0.82246E+03
 0.45199997E+02  0.45285E+03
 0.45249996E+02  0.14185E+03
 0.45299995E+02  0.22856E+03
 0.45349998E+02  0.32866E+03
 0.45399998E+02 -0.29996E+02
 0.45449997E+02  0.66340E+03
 0.45499996E+02 -0.69161E+02
 0.45549995E+02 -0.23768E+03
 0.45599998E+02  0.30489E+03
 0.45649998E+02 -0.36016E+03
 0.45699997E+02 -0.17690E+03
 0.45749996E+02  0.28538E+03
 0.45799995E+02 -0.14761E+03
 0.45849998E+02  0.85683E+03
 0.45899998E+02  0.49157E+03
 0.45949997E+02  0.45510E+03
 0.45999996E+02  0.70378E+03
 0.46049995E+02 -0.84775E+02
 0.46099998E+02  0.30462E+03
 0.46149998E+02 -0.39237E+02
 0.46199997E+02 -0.20883E+03
 0.46249996E+02 -0.38598E+03
 0.46299995E+02  0.37191E+03
 0.46349998E+02 -0.13419E+02
 0.46399998E+02 -0.25881E+03
 0.46449997E+02 -0.18011E+03
 0.46499996E+02 -0.62136E+03
 0.46549995E+02 -0.74453E+02
 0.46599998E+02 -0.45290E+03
 0.46649998E+02  0.94849E+02
 0.46699997E+02  0.10505E+03
 0.46749996E+02  0.27897E+03
 0.46799995E+02 -0.22057E+03
 0.46849998E+02 -0.31993E+03
 0.46899998E+02  0.10055E+04
 0.46949997E+02 -0.32084E+03
 0.46999996E+02  0.27635E+03
 0.47049995E+02  0.39042E+03
 0.47099998E+02 -0.12065E+04
 0.47149998E+02 -0.60377E+03
 0.47199997E+02 -0.70295E+03
 0.47249996E+02 -0.54306E+03
 0.47299995E+02 -0.17610E+03
 0.47349998E+02  0.12748E+02
 0.47399998E+02  0.64431E+03
 0.47449997E+02  0.80485E+03
 0.47499996E+02 -0.29555E+02
 0.47549995E+02  0.41851E+02
 0.47599998E+02  0.48863E+03
 0.47649998E+02  0.16632E+03
 0.47699997E+02  0.48725E+02
 0.47749996E+02 -0.21492E+03
 0.47799995E+02  0.18905E+01
 0.47849998E+02  0.11533E+02
 0.47899998E+02 -0.25831E+03
 0.47949997E+02  0.29321E+03
 0.47999996E+02  0.68935E+03
 0.48049995E+02  0.46770E+03
 0.48099998E+02  0.17765E+03
 0.48149998E+02  0.81186E+02
 0.48199997E+02 -0.50069E+03
 0.48249996E+02 -0.27856E+03
 0.48299995E+02 -0.10808E+03
 0.48349998E+02 -0.84863E+03
 0.48399998E+02 -0.80190E+02
 0.48449997E+02  0.82529E+02
 0.48499996E+02  0.16760E+03
 0.48549995E+02  0.71234E+03
 0.48599998E+02 -0.12530E+03
 0.48649998E+02  0.53101E+02
 0.48699997E+02  0.29679E+03
 0.48749996E+02 -0.70347E+03
 0.48799995E+02 -0.20155E+03
 0.48849998E+02  0.33821E+03
 0.48899998E+02 -0.25873E+03
 0.48949997E+02 -0.36716E+03
 0.48999996E+02  0.12226E+02
 0.49049995E+02 -0.28460E+03
 0.49099998E+02 -0.36600E+03
 0.49149998E+02 -0.38800E+03
 0.49199997E+02 -0.48041E+03
 0.49249996E+02  0.46581E+03
 0.49299995E+02  0.27263E+03
 0.49349998E+02 -0.45103E+02
 0.49399998E+02  0.58373E+03
 0.49449997E+02  0.29259E+03
 0.49499996E+02  0.90174E+02
 0.49549995E+02  0.53759E+03
 0.49599998E+02  0.15283E+03
 0.49649998E+02  0.13578E+03
 0.49699997E+02 -0.96475E+02
 0.49749996E+02 -0.33366E+03
 0.49799995E+02  0.59413E+02
 0.49849998E+02 -0.35247E+03
 0.49899998E+02  0.22276E+03
 0.49949997E+02  0.22444E+03
 0.49999996E+02  0.23693E+03
 0.50049995E+02  0.41244E+03
 0.50099998E+02 -0.41705E+03
 0.50149998E+02 -0.10664E+03
 0.50199997E+02 -0.41292E+03
 0.50249996E+02 -0.67866E+03
 0.50299995E+02 -0.84901E+02
 0.50349998E+02 -0.30400E+03
 0.50399998E+02  0.13780E+03
 0.50449997E+02  0.99603E+03
 0.50499996E+02  0.86009E+02
 0.50549995E+02  0.49287E+02
 0.50599998E+02  0.13127E+03
 0.50649998E+02 -0.52488E+03
 0.50699997E+02  0.61284E+03
 0.50749996E+02  0.44061E+02
 0.50799995E+02  0.61377E+02
 0.50849998E+02  0.11508E+04
 0.50899998E+02  0.13911E+03
 0.50949997E+02 -0.77462E+01
 0.50999996E+02  0.21004E+03
 0.51049995E+02 -0.85463E+03
 0.51099998E+02 -0.70739E+03
 0.51149998E+02 -0.11418E+03
 0.51199997E+02 -0.61534E+03
 0.51249996E+02 -0.21616E+03
 0.51299995E+02 -0.42475E+03
 0.51349998E+02 -0.45785E+03
 0.51399998E+02 -0.45753E+03
 0.51449997E+02  0.33864E+02
 0.51499996E+02  0.95926E+03
 0.51549995E+02  0.47210E+03
 0.51599998E+02  0.11960E+04
 0.51649998E+02  0.13603E+03
 0.51699997E+02 -0.27014E+03
 0.51749996E+02  0.23180E+03
 0.51799995E+02 -0.10453E+04
 0.51849998E+02 -0.31097E+03
 0.51899998E+02 -0.63056E+02
 0.51949997E+02  0.15269E+03
 0.51999996E+02  0.51246E+03
 0.52049995E+02 -0.11129E+03
 0.52099998E+02 -0.11618E+02
 0.52149998E+02 -0.15182E+03
 0.52199997E+02  0.23947E+03
 0.52249996E+02  0.45464E+02
 0.52299995E+02  0.36537E+03
 0.52349998E+02  0.10694E+03
 0.52399998E+02 -0.83789E+03
 0.52449997E+02 -0.18705E+03
 0.52499996E+02 -0.79776E+03
 0.52549995E+02  0.46475E+03
 0.52599998E+02  0.24249E+03
 0.52649998E+02 -0.53334E+03
 0.52699997E+02  0.31911E+03
 0.52749996E+02 -0.60230E+03
 0.52799995E+02  0.63932E+03
 0.52849998E+02 -0.20277E+03
 0.52899998E+02 -0.77228E+02
 0.52949997E+02  0.60779E+03
 0.52999996E+02  0.17203E+03
 0.53049995E+02  0.10985E+04
 0.53099998E+02 -0.19144E+03
 0.53149998E+02  0.10281E+04
 0.53199997E+02 -0.49008E+03
 0.53249996E+02 -0.37690E+03
 0.53299995E+02  0.46263E+03
 0.53349998E+02 -0.16414E+04
 0.53399998E+02  0.24648E+03
 0.53449997E+02 -0.45173E+03
 0.53499996E+02 -0.23924E+03
 0.53549995E+02  0.34736E+03
 0.53599998E+02 -0.23013E+03
 0.53649998E+02  0.72005E+03
 0.53699997E+02 -0.52526E+03
 0.53749996E+02 -0.35174E+03
 0.53799995E+02 -0.36033E+03
 0.53849998E+02 -0.36446E+03
 0.53899998E+02  0.44139E+03
 0.53949997E+02  0.21128E+03
 0.53999996E+02  0.57896E+03
 0.54049995E+02  0.76462E+03
 0.54099998E+02  0.71851E+03
 0.54149998E+02 -0.10561E+04
 0.54199997E+02  0.33584E+03
 0.54249996E+02  0.12601E+04
 0.54299995E+02 -0.37549E+03
 0.54349998E+02  0.36551E+02
 0.54399998E+02 -0.10563E+04
 0.54449997E+02 -0.13615E+04
 0.54499996E+02 -0.10706E+04
 0.54549995E+02 -0.16599E+03
 0.54599998E+02  0.13550E+03
 0.54649998E+02 -0.28684E+03
 0.54699997E+02  0.73046E+03
 0.54749996E+02 -0.55915E+03
 0.54799995E+02 -0.42003E+03
 0.54849998E+02 -0.76232E+02
 0.54899998E+02 -0.11081E+04
 0.54949997E+02 -0.67616E+03
 0.54999996E+02 -0.95495E+03
 0.55049995E+02 -0.10222E+04
 0.55099998E+02 -0.95093E+03
 0.55149998E+02 -0.28302E+03
 0.55199997E+02  0.61635E+03
 0.55249996E+02  0.20055E+04
 0.55299995E+02  0.32622E+04
 0.55349998E+02  0.32316E+04
 0.55399998E+02  0.14097E+04
 0.55449997E+02 -0.74137E+03
 0.55499996E+02 -0.15306E+04
 0.55549995E+02 -0.16191E+04
 0.55599998E+02  0.90196E+03
 0.55649998E+02  0.11436E+04
 0.55699997E+02  0.13588E+03
 0.55749996E+02  0.10899E+03
 0.55799995E+02 -0.13039E+04
 0.55849995E+02 -0.14946E+04
 0.55899998E+02 -0.15274E+04
 0.55949997E+02  0.15817E+04
 0.55999996E+02  0.40527E+04
 0.56049995E+02  0.19328E+04
 0.56099995E+02 -0.74673E+02
 0.56149998E+02 -0.49013E+04
 0.56199997E+02 -0.45289E+04
 0.56249996E+02 -0.23752E+03
 0.56299995E+02  0.12603E+04
 0.56349995E+02  0.23510E+04
 0.56399998E+02  0.10523E+04
 0.56449997E+02 -0.89930E+03
 0.56499996E+02 -0.49531E+04
 0.56549995E+02 -0.64596E+04
 0.56599995E+02 -0.55955E+04
 0.56649998E+02 -0.15087E+04
 0.56699997E+02  0.58807E+04
 0.56749996E+02  0.77060E+04
 0.56799995E+02  0.89130E+04
 0.56849995E+02  0.53965E+04
 0.56899998E+02 -0.20955E+04
 0.56949997E+02 -0.43838E+04
 0.56999996E+02 -0.10955E+04
 0.57049995E+02  0.89382E+04
 0.57099995E+02  0.78205E+04
 0.57149998E+02  0.25715E+04
 0.57199997E+02  0.39616E+04
 0.57249996E+02 -0.58893E+01
 0.57299995E+02  0.23646E+04
 0.57349995E+02 -0.59432E+02
 0.57399998E+02 -0.47826E+04
 0.57449997E+02  0.16224E+04
 0.57499996E+02 -0.59194E+04
 0.57549995E+02 -0.13538E+05
 0.57599995E+02 -0.11537E+05
 0.57649998E+02 -0.10443E+05
 0.57699997E+02 -0.24010E+04
 0.57749996E+02  0.38180E+04
 0.57799995E+02  0.76971E+04
 0.57849995E+02  0.12038E+05
 0.57899998E+02  0.72891E+04
 0.57949997E+02 -0.34248E+04
 0.57999996E+02 -0.58064E+04
 0.58049995E+02 -0.68436E+04
 0.58099995E+02 -0.60660E+04
 0.58149998E+02  0.31440E+04
 0.58199997E+02  0.12296E+04
 0.58249996E+02 -0.76133E+03
 0.58299995E+02  0.14663E+04
 0.58349995E+02 -0.36936E+03
 0.58399998E+02 -0.85306E+03
 0.58449997E+02 -0.30514E+04
 0.58499996E+02 -0.17847E+04
 0.58549995E+02  0.12913E+03
 0.58599995E+02  0.11345E+04
 0.58649998E+02 -0.20046E+04
 0.58699997E+02 -0.39115E+04
 0.58749996E+02  0.51123E+04
 0.58799995E+02  0.82103E+04
 0.58849995E+02  0.98179E+04
 0.58899998E+02  0.86231E+04
 0.58949997E+02  0.40883E+04
 0.58999996E+02  0.32373E+04
 0.59049995E+02 -0.40499E+04
 0.59099995E+02 -0.59511E+03
 0.59149998E+02 -0.64257E+03
 0.59199997E+02 -0.70637E+04
 0.59249996E+02  0.24606E+03
 0.59299995E+02 -0.29488E+04
 0.59349995E+02 -0.21270E+04
 0.59399998E+02  0.30929E+04
 0.59449997E+02  0.22729E+04
 0.59499996E+02  0.56592E+04
 0.59549995E+02 -0.25187E+04
 0.59599995E+02 -0.14755E+04
 0.59649998E+02  0.40699E+02
 0.59699997E+02 -0.23173E+04
 0.59749996E+02  0.24828E+04
 0.59799995E+02 -0.49727E+04
 0.59849995E+02 -0.46259E+04
 0.59899998E+02 -0.56852E+04
 0.59949997E+02 -0.13415E+05
 0.59999996E+02 -0.13681E+04
 0.60049995E+02  0.48758E+03
 0.60099995E+02  0.16213E+03
 0.60149998E+02  0.42378E+04
 0.60199997E+02 -0.18973E+04
 0.60249996E+02 -0.19935E+04
 0.60299995E+02 -0.49945E+04
 0.60349995E+02 -0.25009E+04
 0.60399998E+02  0.11612E+04
 0.60449997E+02  0.32106E+04
 0.60499996E+02  0.33919E+04
 0.60549995E+02  0.71833E+03
 0.60599995E+02  0.23139E+04
 0.60649998E+02  0.13760E+04
 0.60699997E+02  0.23742E+04
 0.60749996E+02  0.24823E+04
 0.60799995E+02  0.43966E+04
 0.60849995E+02  0.26136E+04
 0.60899998E+02  0.25361E+04
 0.60949997E+02  0.29221E+04
 0.60999996E+02 -0.41232E+04
 0.61049995E+02  0.38776E+03
 0.61099995E+02 -0.16488E+04
 0.61149998E+02  0.84863E+03
 0.61199997E+02  0.77969E+04
 0.61249996E+02  0.17201E+04
 0.61299995E+02 -0.66974E+02
 0.61349995E+02 -0.67864E+04
 0.61399998E+02 -0.45038E+04
 0.61449997E+02  0.49699E+03
 0.61499996E+02  0.10544E+04
 0.61549995E+02  0.34288E+04
 0.61599995E+02  0.10304E+04
 0.61649998E+02  0.38617E+04
 0.61699997E+02  0.15952E+04
 0.61749996E+02  0.10036E+04
 0.61799995E+02  0.12250E+04
 0.61849995E+02 -0.47558E+04
 0.61899998E+02 -0.49142E+04
 0.61949997E+02 -0.53448E+04
 0.61999996E+02 -0.25774E+04
 0.62049995E+02  0.53599E+03
 0.62099998E+02  0.20864E+04
 0.62149994E+02  0.46830E+04
 0.62199997E+02  0.21554E+04
 0.62249992E+02  0.33522E+03
 0.62299995E+02 -0.39463E+03
 0.62349998E+02 -0.29081E+04
 0.62399994E+02 -0.48994E+04
 0.62449997E+02 -0.47751E+04
 0.62499992E+02 -0.51914E+04
 0.62549995E+02 -0.11164E+04
 0.62599998E+02  0.58461E+04
 0.62649994E+02  0.70446E+04
 0.62699997E+02  0.62153E+04
 0.62749992E+02  0.61261E+04
 0.62799995E+02  0.44517E+04
 0.62849998E+02  0.24607E+04
 0.62899994E+02  0.23837E+04
 0.62949997E+02 -0.40101E+03
 0.62999992E+02 -0.32722E+04
 0.63049995E+02 -0.10920E+04
 0.63099998E+02 -0.48521E+01
 0.63149994E+02  0.27766E+04
 0.63199997E+02  0.56951E+04
 0.63249992E+02  0.44930E+04
 0.63299995E+02  0.14800E+04
 0.63349998E+02 -0.12115E+04
 0.63399994E+02 -0.56247E+04
 0.63449997E+02 -0.82716E+04
 0.63499992E+02 -0.56892E+04
 0.63549995E+02 -0.72976E+04
 0.63599998E+02 -0.58183E+04
 0.63649994E+02 -0.39824E+04
 0.63699997E+02 -0.33039E+04
 0.63749992E+02  0.28895E+03
 0.63799995E+02 -0.62531E+03
 0.63849998E+02 -0.10301E+04
 0.63899994E+02 -0.18913E+04
 0.63949997E+02 -0.29437E+04
 0.63999992E+02 -0.27157E+04
 0.64049995E+02 -0.38168E+04
 0.64099998E+02  0.84835E+03
 0.64149994E+02  0.29552E+04
 0.64199997E+02  0.44507E+04
 0.64249992E+02  0.51116E+04
 0.64299995E+02  0.49069E+02
 0.64349998E+02 -0.63497E+02
 0.64399994E+02 -0.13490E+04
 0.64449997E+02 -0.51876E+03
 0.64499992E+02  0.15480E+04
 0.64549995E+02  0.21022E+04
 0.64599998E+02  0.46929E+04
 0.64649994E+02  0.34493E+04
 0.64699997E+02  0.46746E+04
 0.64749992E+02  0.54790E+04
 0.64799995E+02  0.48737E+04
 0.64849998E+02  0.51775E+04
 0.64899994E+02  0.29885E+04
 0.64949997E+02  0.35013E+04
 0.64999992E+02  0.17992E+04
 0.65049995E+02 -0.14633E+04
 0.65099998E+02 -0.45845E+04
 0.65149994E+02 -0.63440E+04
 0.65199997E+02 -0.62852E+04
 0.65249992E+02 -0.62898E+04
 0.65299995E+02 -0.30398E+04
 0.65349998E+02 -0.11059E+04
 0.65399994E+02 -0.40224E+03
 0.65449997E+02 -0.35868E+03
 0.65499992E+02  0.68883E+01
 0.65549995E+02  0.15558E+04
 0.65599998E+02  0.23053E+04
 0.65649994E+02  0.41798E+04
 0.65699997E+02  0.32949E+04
 0.65749992E+02  0.20813E+04
 0.65799995E+02 -0.11950E+03
 0.65849998E+02 -0.52871E+04
 0.65899994E+02 -0.43671E+04
 0.65949997E+02 -0.37115E+04
 0.65999992E+02 -0.31746E+04
 0.66049995E+02  0.44774E+03
 0.66099998E+02  0.12481E+04
 0.66149994E+02  0.99548E+03
 0.66199997E+02 -0.26147E+04
 0.66249992E+02 -0.37243E+04
 0.66299995E+02 -0.16627E+04
 0.66349998E+02 -0.14409E+04
 0.66399994E+02  0.18362E+04
 0.66449997E+02  0.16557E+04
 0.66499992E+02  0.18782E+04
 0.66549995E+02  0.49932E+04
 0.66599998E+02  0.30838E+04
 0.66649994E+02  0.24166E+04
 0.66699997E+02  0.24210E+02
 0.66749992E+02 -0.12005E+04
 0.66799995E+02 -0.48133E+03
 0.66849998E+02  0.99676E+02
 0.66899994E+02  0.31155E+04
 0.66949997E+02  0.26720E+04
 0.66999992E+02  0.35533E+04
 0.67049995E+02  0.24352E+04
 0.67099998E+02 -0.52332E+02
 0.67149994E+02 -0.67227E+03
 0.67199997E+02 -0.33928E+04
 0.67249992E+02 -0.23611E+04
 0.67299995E+02 -0.15235E+04
 0.67349998E+02 -0.11473E+04
 0.67399994E+02  0.15218E+04
 0.67449997E+02 -0.26381E+03
 0.67499992E+02 -0.18921E+04
 0.67549995E+02 -0.25267E+04
 0.67599998E+02 -0.28370E+04
 0.67649994E+02  0.21358E+03
 0.67699997E+02  0.17746E+04
 0.67749992E+02  0.21308E+04
 0.67799995E+02  0.93340E+03
 0.67849998E+02 -0.17454E+04
 0.67899994E+02 -0.22484E+04
 0.67949997E+02 -0.37963E+04
 0.67999992E+02 -0.39599E+04
 0.68049995E+02 -0.35457E+04
 0.68099998E+02 -0.36512E+04
 0.68149994E+02 -0.18522E+04
 0.68199997E+02 -0.18128E+04
 0.68249992E+02  0.33564E+03
 0.68299995E+02  0.31138E+04
 0.68349998E+02  0.42682E+04
 0.68399994E+02  0.52267E+04
 0.68449997E+02  0.39105E+04
 0.68499992E+02  0.25902E+04
 0.68549995E+02  0.13340E+04
 0.68599998E+02  0.19897E+03
 0.68649994E+02  0.44020E+03
 0.68699997E+02  0.61615E+03
 0.68749992E+02  0.29338E+03
 0.68799995E+02 -0.93111E+03
 0.68849998E+02 -0.15571E+04
 0.68899994E+02 -0.63469E+03
 0.68949997E+02  0.12647E+04
 0.68999992E+02  0.34270E+04
 0.69049995E+02  0.40959E+04
 0.69099998E+02  0.41463E+04
 0.69149994E+02  0.23426E+04
 0.69199997E+02  0.61094E+03
 0.69249992E+02 -0.76295E+02
 0.69299995E+02 -0.12358E+04
 0.69349998E+02 -0.48537E+03
 0.69399994E+02 -0.25973E+03
 0.69449997E+02 -0.18127E+03
 0.69499992E+02 -0.10603E+04
 0.69549995E+02 -0.16018E+04
 0.69599998E+02 -0.89677E+03
 0.69649994E+02 -0.14777E+04
 0.69699997E+02 -0.13960E+04
 0.69749992E+02 -0.29753E+04
 0.69799995E+02 -0.50377E+04
 0.69849998E+02 -0.42798E+04
 0.69899994E+02 -0.48322E+04
 0.69949997E+02 -0.49066E+04
 0.69999992E+02 -0.28730E+04
 0.70049995E+02 -0.29434E+04
 0.70099998E+02 -0.12503E+04
 0.70149994E+02  0.61913E+03
 0.70199997E+02  0.14074E+04
 0.70249992E+02  0.49465E+04
 0.70299995E+02  0.48978E+04
 0.70349998E+02  0.29368E+04
 0.70399994E+02  0.10256E+04
 0.70449997E+02 -0.13293E+04
 0.70499992E+02  0.36280E+02
 0.70549995E+02  0.11058E+02
 0.70599998E+02  0.28447E+03
 0.70649994E+02  0.21847E+04
 0.70699997E+02  0.18430E+04
 0.70749992E+02  0.20168E+04
 0.70799995E+02  0.32970E+04
 0.70849998E+02  0.44641E+04
 0.70899994E+02  0.47182E+04
 0.70949997E+02  0.43288E+04
 0.70999992E+02  0.17324E+04
 0.71049995E+02  0.96465E+02
 0.71099998E+02  0.43790E+03
 0.71149994E+02 -0.12306E+04
 0.71199997E+02 -0.47196E+03
 0.71249992E+02 -0.57770E+03
 0.71299995E+02 -0.13688E+04
 0.71349998E+02 -0.20701E+04
 0.71399994E+02 -0.43664E+04
 0.71449997E+02 -0.25110E+04
 0.71499992E+02 -0.17588E+03
 0.71549995E+02  0.13334E+04
 0.71599998E+02  0.12376E+04
 0.71649994E+02 -0.86699E+03
 0.71699997E+02 -0.19208E+04
 0.71749992E+02 -0.37579E+04
 0.71799995E+02 -0.42288E+04
 0.71849998E+02 -0.36913E+04
 0.71899994E+02 -0.24724E+04
 0.71949997E+02 -0.44605E+03
 0.71999992E+02 -0.88120E+03
 0.72049995E+02 -0.84699E+03
 0.72099998E+02  0.25471E+03
 0.72149994E+02  0.16978E+04
 0.72199997E+02  0.16345E+04
 0.72249992E+02  0.12880E+04
 0.72299995E+02  0.12705E+04
 0.72349998E+02 -0.47656E+03
 0.72399994E+02 -0.59546E+03
 0.72449997E+02 -0.86131E+03
 0.72499992E+02 -0.31247E+03
 0.72549995E+02  0.10182E+04
 0.72599998E+02  0.80742E+03
 0.72649994E+02  0.10392E+04
 0.72699997E+02  0.15034E+04
 0.72749992E+02  0.18505E+04
 0.72799995E+02  0.17756E+04
 0.72849998E+02  0.18935E+04
 0.72899994E+02  0.16745E+03
 0.72949997E+02 -0.14078E+04
 0.72999992E+02 -0.53986E+03
 0.73049995E+02 -0.13706E+04
 0.73099998E+02 -0.52120E+03
 0.73149994E+02  0.10534E+04
 0.73199997E+02 -0.44038E+03
 0.73249992E+02 -0.10863E+04
 0.73299995E+02 -0.23015E+04
 0.73349998E+02 -0.44689E+04
 0.73399994E+02 -0.46958E+04
 0.73449997E+02 -0.41732E+04
 0.73499992E+02 -0.30759E+04
 0.73549995E+02 -0.14058E+04
 0.73599998E+02  0.77832E+03
 0.73649994E+02  0.25677E+04
 0.73699997E+02  0.28430E+04
 0.73749992E+02  0.25087E+04
 0.73799995E+02  0.11858E+04
 0.73849998E+02  0.13482E+04
 0.73899994E+02  0.25716E+04
 0.73949997E+02  0.25916E+04
 0.73999992E+02  0.27613E+04
 0.74049995E+02  0.14856E+04
 0.74099998E+02  0.92234E+03
 0.74149994E+02  0.10026E+03
 0.74199997E+02 -0.90629E+03
 0.74249992E+02 -0.10141E+04
 0.74299995E+02 -0.10226E+04
 0.74349998E+02 -0.40179E+03
 0.74399994E+02 -0.14352E+04
 0.74449997E+02 -0.20169E+03
 0.74499992E+02  0.59824E+03
 0.74549995E+02  0.11839E+04
 0.74599998E+02  0.26014E+04
 0.74649994E+02  0.21944E+04
 0.74699997E+02  0.42368E+04
 0.74749992E+02  0.42070E+04
 0.74799995E+02  0.22859E+04
 0.74849998E+02  0.89208E+03
 0.74899994E+02 -0.10486E+04
 0.74949997E+02 -0.11899E+04
 0.74999992E+02 -0.15770E+04
 0.75049995E+02 -0.87510E+03
 0.75099998E+02 -0.86047E+03
 0.75149994E+02 -0.22388E+04
 0.75199997E+02 -0.17503E+04
 0.75249992E+02 -0.24437E+04
 0.75299995E+02 -0.18165E+04
 0.75349998E+02 -0.96177E+03
 0.75399994E+02 -0.12150E+04
 0.75449997E+02 -0.50928E+03
 0.75499992E+02 -0.14894E+04
 0.75549995E+02 -0.68464E+03
 0.75599998E+02  0.13065E+03
 0.75649994E+02  0.59930E+03
 0.75699997E+02  0.23588E+04
 0.75749992E+02  0.17977E+04
 0.75799995E+02  0.68129E+03
 0.75849998E+02 -0.98735E+03
 0.75899994E+02 -0.20961E+04
 0.75949997E+02 -0.29629E+04
 0.75999992E+02 -0.35416E+04
 0.76049995E+02 -0.20926E+04
 0.76099998E+02 -0.63791E+03
 0.76149994E+02  0.66902E+03
 0.76199997E+02  0.13819E+04
 0.76249992E+02  0.16855E+04
 0.76299995E+02  0.16756E+04
 0.76349998E+02  0.12940E+04
 0.76399994E+02  0.17046E+04
 0.76449997E+02  0.24880E+04
 0.76499992E+02  0.33179E+04
 0.76549995E+02  0.28376E+04
 0.76599998E+02  0.12854E+04
 0.76649994E+02  0.31136E+03
 0.76699997E+02 -0.21342E+04
 0.76749992E+02 -0.30206E+04
 0.76799995E+02 -0.17668E+04
 0.76849998E+02 -0.13839E+04
 0.76899994E+02  0.24002E+02
 0.76949997E+02  0.35784E+03
 0.76999992E+02  0.11405E+04
 0.77049995E+02  0.19247E+04
 0.77099998E+02  0.16676E+04
 0.77149994E+02  0.14420E+04
 0.77199997E+02 -0.38914E+03
 0.77249992E+02 -0.33152E+03
 0.77299995E+02 -0.10005E+03
 0.77349998E+02 -0.93941E+02
 0.77399994E+02  0.11924E+04
 0.77449997E+02  0.70249E+03
 0.77499992E+02  0.73728E+03
 0.77549995E+02  0.85978E+03
 0.77599998E+02 -0.63715E+03
 0.77649994E+02 -0.21273E+04
 0.77699997E+02 -0.31190E+04
 0.77749992E+02 -0.23871E+04
 0.77799995E+02 -0.20537E+04
 0.77849998E+02 -0.11899E+04
 0.77899994E+02 -0.20606E+03
 0.77949997E+02 -0.69057E+03
 0.77999992E+02 -0.94228E+02
 0.78049995E+02 -0.21578E+03
 0.78099998E+02 -0.30980E+03
 0.78149994E+02 -0.66377E+03
 0.78199997E+02 -0.12272E+04
 0.78249992E+02 -0.81793E+03
 0.78299995E+02 -0.77397E+03
 0.78349998E+02 -0.81576E+03
 0.78399994E+02 -0.13357E+04
 0.78449997E+02 -0.32015E+03
 0.78499992E+02  0.76502E+03
 0.78549995E+02  0.14881E+04
 0.78599998E+02  0.23256E+04
 0.78649994E+02  0.23475E+04
 0.78699997E+02  0.29973E+04
 0.78749992E+02  0.23338E+04
 0.78799995E+02  0.20486E+04
 0.78849998E+02  0.13683E+04
 0.78899994E+02 -0.81555E+02
 0.78949997E+02 -0.24534E+03
 0.78999992E+02 -0.74479E+03
 0.79049995E+02 -0.34116E+03
 0.79099998E+02 -0.41343E+03
 0.79149994E+02 -0.51928E+03
 0.79199997E+02  0.43421E+02
 0.79249992E+02 -0.28597E+03
 0.79299995E+02  0.32093E+03
 0.79349998E+02  0.11538E+04
 0.79399994E+02  0.18914E+04
 0.79449997E+02  0.16563E+04
 0.79499992E+02  0.12793E+04
 0.79549995E+02  0.13472E+04
 0.79599998E+02  0.12381E+03
 0.79649994E+02 -0.55061E+01
 0.79699997E+02 -0.63111E+03
 0.79749992E+02 -0.14457E+04
 0.79799995E+02 -0.13445E+04
 0.79849998E+02 -0.16716E+04
 0.79899994E+02 -0.10244E+04
 0.79949997E+02 -0.11129E+04
 0.79999992E+02 -0.95770E+03
 0.80049995E+02 -0.98154E+03
 0.80099998E+02 -0.13122E+04
 0.80149994E+02 -0.23911E+03
 0.80199997E+02 -0.12479E+03
 0.80249992E+02 -0.16586E+01
 0.80299995E+02 -0.19741E+03
 0.80349998E+02 -0.59759E+03
 0.80399994E+02 -0.62435E+03
 0.80449997E+02 -0.10867E+04
 0.80499992E+02 -0.39301E+03
 0.80549995E+02  0.47400E+03
 0.80599998E+02  0.98055E+03
 0.80649994E+02  0.10643E+04
 0.80699997E+02  0.89928E+03
 0.80749992E+02  0.11706E+04
 0.80799995E+02  0.18944E+03
 0.80849998E+02 -0.59058E+02
 0.80899994E+02 -0.29384E+02
 0.80949997E+02 -0.46997E+03
 0.80999992E+02  0.18615E+02
 0.81049995E+02 -0.14630E+03
 0.81099998E+02 -0.81598E+01
 0.81149994E+02 -0.17595E+03
 0.81199997E+02 -0.24834E+03
 0.81249992E+02 -0.58229E+03
 0.81299995E+02 -0.83186E+03
 0.81349998E+02 -0.32655E+02
 0.81399994E+02  0.10048E+03
 0.81449997E+02  0.84242E+03
 0.81499992E+02  0.92210E+03
 0.81549995E+02  0.53522E+03
 0.81599998E+02  0.56794E+03
 0.81649994E+02 -0.26432E+01
 0.81699997E+02 -0.57648E+03
 0.81749992E+02 -0.91307E+03
 0.81799995E+02 -0.28931E+03
 0.81849998E+02  0.25171E+03
 0.81899994E+02  0.48531E+03
 0.81949997E+02  0.56357E+03
 0.81999992E+02  0.28783E+03
 0.82049995E+02  0.25965E+03
 0.82099998E+02 -0.80179E+02
 0.82149994E+02  0.12984E+03
 0.82199997E+02  0.17728E+03
 0.82249992E+02 -0.13400E+03
 0.82299995E+02 -0.58340E+02
 0.82349998E+02 -0.16168E+03
 0.82399994E+02  0.85684E+02
 0.82449997E+02  0.71458E+03
 0.82499992E+02  0.87497E+03
 0.82549995E+02  0.58669E+03
 0.82599998E+02  0.22021E+03
 0.82649994E+02 -0.94762E+03
 0.82699997E+02 -0.17895E+04
 0.82749992E+02 -0.21665E+04
 0.82799995E+02 -0.29107E+04
 0.82849998E+02 -0.25199E+04
 0.82899994E+02 -0.16087E+04
 0.82949997E+02 -0.84152E+03
 0.82999992E+02 -0.14126E+03
 0.83049995E+02  0.21156E+03
 0.83099998E+02  0.65335E+03
 0.83149994E+02  0.68694E+03
 0.83199997E+02  0.79668E+03
 0.83249992E+02  0.75760E+03
 0.83299995E+02  0.69348E+03
 0.83349998E+02  0.11599E+04
 0.83399994E+02  0.94568E+03
 0.83449997E+02  0.10216E+04
 0.83499992E+02  0.72012E+03
 0.83549995E+02  0.39156E+02
 0.83599998E+02  0.15005E+03
 0.83649994E+02 -0.32273E+03
 0.83699997E+02 -0.24413E+03
 0.83749992E+02 -0.32582E+03
 0.83799995E+02 -0.51092E+03
 0.83849998E+02 -0.22111E+03
 0.83899994E+02 -0.52489E+03
 0.83949997E+02  0.16773E+03
 0.83999992E+02  0.55858E+03
 0.84049995E+02  0.78600E+03
 0.84099998E+02  0.11669E+04
 0.84149994E+02  0.56826E+03
 0.84199997E+02  0.10429E+04
 0.84249992E+02  0.90231E+03
 0.84299995E+02  0.26922E+03
 0.84349998E+02  0.52894E+03
 0.84399994E+02 -0.68175E+02
 0.84449997E+02 -0.67887E+03
 0.84499992E+02 -0.12195E+04
 0.84549995E+02 -0.13834E+04
 0.84599998E+02 -0.16267E+04
 0.84649994E+02 -0.13484E+04
 0.84699997E+02 -0.34701E+03
 0.84749992E+02 -0.24997E+03
 0.84799995E+02  0.28105E+02
 0.84849998E+02 -0.42141E+03
 0.84899994E+02 -0.99400E+03
 0.84949997E+02 -0.10475E+04
 0.84999992E+02 -0.11581E+04
 0.85049995E+02 -0.42594E+03
 0.85099998E+02 -0.15610E+03
 0.85149994E+02  0.55721E+02
 0.85199997E+02  0.40794E+03
 0.85249992E+02  0.73789E+03
 0.85299995E+02  0.14019E+04
 0.85349998E+02  0.15670E+04
 0.85399994E+02  0.15093E+04
 0.85449997E+02  0.86918E+03
 0.85499992E+02  0.13186E+03
 0.85549995E+02 -0.29945E+03
 0.85599998E+02 -0.13981E+03
 0.85649994E+02  0.46848E+03
 0.85699997E+02  0.83199E+03
 0.85749992E+02  0.13651E+04
 0.85799995E+02  0.13680E+04
 0.85849998E+02  0.10408E+04
 0.85899994E+02  0.46144E+03
 0.85949997E+02 -0.22182E+03
 0.85999992E+02 -0.32038E+03
 0.86049995E+02 -0.16271E+03
 0.86099998E+02  0.19415E+02
 0.86149994E+02 -0.10146E+03
 0.86199997E+02  0.12565E+03
 0.86249992E+02  0.80352E+02
 0.86299995E+02  0.11818E+03
 0.86349998E+02  0.74733E+03
 0.86399994E+02  0.45255E+03
 0.86449997E+02  0.14775E+03
 0.86499992E+02 -0.21825E+03
 0.86549995E+02 -0.71192E+03
 0.86599998E+02 -0.93197E+03
 0.86649994E+02 -0.13697E+04
 0.86699997E+02 -0.14692E+04
 0.86749992E+02 -0.12968E+04
 0.86799995E+02 -0.92506E+03
 0.86849998E+02 -0.80533E+03
 0.86899994E+02 -0.68455E+03
 0.86949997E+02 -0.30323E+03
 0.86999992E+02 -0.60969E+03
 0.87049995E+02 -0.84224E+03
 0.87099998E+02 -0.59857E+03
 0.87149994E+02 -0.18863E+03
 0.87199997E+02  0.24730E+03
 0.87249992E+02  0.33918E+03
 0.87299995E+02  0.42821E+03
 0.87349998E+02  0.26454E+03
 0.87399994E+02  0.32162E+01
 0.87449997E+02  0.15724E+02
 0.87499992E+02  0.21065E+03
 0.87549995E+02  0.67619E+03
 0.87599991E+02  0.68265E+03
 0.87649994E+02  0.32783E+03
 0.87699997E+02  0.27666E+03
 0.87749992E+02  0.32446E+03
 0.87799995E+02  0.64127E+03
 0.87849991E+02  0.10523E+04
 0.87899994E+02  0.11687E+04
 0.87949997E+02  0.12228E+04
 0.87999992E+02  0.10808E+04
 0.88049995E+02  0.72362E+03
 0.88099991E+02  0.31142E+03
 0.88149994E+02 -0.19094E+03
 0.88199997E+02 -0.41051E+03
 0.88249992E+02 -0.50614E+03
 0.88299995E+02 -0.58211E+03
 0.88349991E+02 -0.81219E+03
 0.88399994E+02 -0.92040E+03
 0.88449997E+02 -0.63226E+03
 0.88499992E+02 -0.65013E+03
 0.88549995E+02 -0.28435E+03
 0.88599991E+02 -0.30915E+03
 0.88649994E+02 -0.32271E+03
 0.88699997E+02 -0.15716E+03
 0.88749992E+02 -0.75663E+03
 0.88799995E+02 -0.67390E+03
 0.88849991E+02 -0.74964E+03
 0.88899994E+02 -0.56870E+03
 0.88949997E+02 -0.21882E+03
 0.88999992E+02 -0.38876E+02
 0.89049995E+02  0.47236E+03
 0.89099991E+02  0.47074E+03
 0.89149994E+02  0.74629E+03
 0.89199997E+02  0.38986E+03
 0.89249992E+02  0.70389E+02
 0.89299995E+02  0.21385E+03
 0.89349991E+02  0.59353E+02
 0.89399994E+02  0.64708E+03
 0.89449997E+02  0.10011E+04
 0.89499992E+02  0.14101E+04
 0.89549995E+02  0.17184E+04
 0.89599991E+02  0.14173E+04
 0.89649994E+02  0.14938E+04
 0.89699997E+02  0.12840E+04
 0.89749992E+02  0.97941E+03
 0.89799995E+02  0.45382E+03
 0.89849991E+02 -0.18543E+03
 0.89899994E+02 -0.25029E+03
 0.89949997E+02 -0.30241E+03
 0.89999992E+02 -0.28938E+03
 0.90049995E+02 -0.60316E+03
 0.90099991E+02 -0.95173E+03
 0.90149994E+02 -0.10476E+04
 0.90199997E+02 -0.11819E+04
 0.90249992E+02 -0.11920E+04
 0.90299995E+02 -0.16422E+04
 0.90349991E+02 -0.19376E+04
 0.90399994E+02 -0.17728E+04
 0.90449997E+02 -0.15381E+04
 0.90499992E+02 -0.11142E+04
 0.90549995E+02 -0.76471E+03
 0.90599991E+02 -0.52484E+03
 0.90649994E+02 -0.57342E+03
 0.90699997E+02 -0.66701E+03
 0.90749992E+02 -0.50574E+03
 0.90799995E+02 -0.34053E+03
 0.90849991E+02 -0.23560E+03
 0.90899994E+02  0.20203E+03
 0.90949997E+02  0.59224E+03
 0.90999992E+02  0.67799E+03
 0.91049995E+02  0.90702E+03
 0.91099991E+02  0.89230E+03
 0.91149994E+02  0.97330E+03
 0.91199997E+02  0.10651E+04
 0.91249992E+02  0.95186E+03
 0.91299995E+02  0.94965E+03
 0.91349991E+02  0.90662E+03
 0.91399994E+02  0.12186E+04
 0.91449997E+02  0.12434E+04
 0.91499992E+02  0.97701E+03
 0.91549995E+02  0.10756E+04
 0.91599991E+02  0.96592E+03
 0.91649994E+02  0.83261E+03
 0.91699997E+02  0.64698E+03
 0.91749992E+02  0.32128E+03
 0.91799995E+02  0.25239E+03
 0.91849991E+02  0.23622E+03
 0.91899994E+02 -0.12383E+03
 0.91949997E+02 -0.40698E+03
 0.91999992E+02 -0.42248E+03
 0.92049995E+02 -0.64350E+03
 0.92099991E+02 -0.70653E+03
 0.92149994E+02 -0.77348E+03
 0.92199997E+02 -0.84393E+03
 0.92249992E+02 -0.85468E+03
 0.92299995E+02 -0.11309E+04
 0.92349991E+02 -0.14135E+04
 0.92399994E+02 -0.17712E+04
 0.92449997E+02 -0.13765E+04
 0.92499992E+02 -0.76634E+03
 0.92549995E+02 -0.53398E+03
 0.92599991E+02 -0.24334E+03
 0.92649994E+02 -0.68512E+03
 0.92699997E+02 -0.77021E+03
 0.92749992E+02 -0.64231E+03
 0.92799995E+02 -0.72917E+03
 0.92849991E+02 -0.34441E+03
 0.92899994E+02 -0.19863E+03
 0.92949997E+02 -0.27227E+03
 0.92999992E+02 -0.50094E+03
 0.93049995E+02 -0.48636E+03
 0.93099991E+02 -0.40936E+03
 0.93149994E+02 -0.35844E+03
 0.93199997E+02  0.19515E+03
 0.93249992E+02  0.68349E+03
 0.93299995E+02  0.12611E+04
 0.93349991E+02  0.18247E+04
 0.93399994E+02  0.20156E+04
 0.93449997E+02  0.20853E+04
 0.93499992E+02  0.19035E+04
 0.93549995E+02  0.16334E+04
 0.93599991E+02  0.15659E+04
 0.93649994E+02  0.15896E+04
 0.93699997E+02  0.14555E+04
 0.93749992E+02  0.14641E+04
 0.93799995E+02  0.13035E+04
 0.93849991E+02  0.78243E+03
 0.93899994E+02  0.22995E+03
 0.93949997E+02 -0.49150E+03
 0.93999992E+02 -0.76742E+03
 0.94049995E+02 -0.99889E+03
 0.94099991E+02 -0.12727E+04
 0.94149994E+02 -0.10493E+04
 0.94199997E+02 -0.10001E+04
 0.94249992E+02 -0.10497E+04
 0.94299995E+02 -0.11929E+04
 0.94349991E+02 -0.13009E+04
 0.94399994E+02 -0.13491E+04
 0.94449997E+02 -0.13785E+04
 0.94499992E+02 -0.13687E+04
 0.94549995E+02 -0.16720E+04
 0.94599991E+02 -0.17126E+04
 0.94649994E+02 -0.14548E+04
 0.94699997E+02 -0.11488E+04
 0.94749992E+02 -0.96565E+03
 0.94799995E+02 -0.65745E+03
 0.94849991E+02 -0.22099E+03
 0.94899994E+02 -0.99612E+02
 0.94949997E+02  0.12099E+03
 0.94999992E+02  0.27535E+03
 0.95049995E+02  0.33025E+03
 0.95099991E+02  0.85291E+03
 0.95149994E+02  0.12031E+04
 0.95199997E+02  0.13019E+04
 0.95249992E+02  0.16691E+04
 0.95299995E+02  0.17964E+04
 0.95349991E+02  0.18881E+04
 0.95399994E+02  0.17834E+04
 0.95449997E+02  0.13180E+04
 0.95499992E+02  0.11160E+04
 0.95549995E+02  0.93441E+03
 0.95599991E+02  0.51833E+03
 0.95649994E+02  0.10615E+02
 0.95699997E+02 -0.28994E+03
 0.95749992E+02 -0.36302E+03
 0.95799995E+02 -0.37930E+03
 0.95849991E+02 -0.28864E+03
 0.95899994E+02 -0.22134E+03
 0.95949997E+02  0.78576E+02
 0.95999992E+02  0.38135E+03
 0.96049995E+02  0.41499E+03
 0.96099991E+02  0.27986E+03
 0.96149994E+02 -0.22066E+03
 0.96199997E+02 -0.59362E+03
 0.96249992E+02 -0.81199E+03
 0.96299995E+02 -0.10054E+04
 0.96349991E+02 -0.99542E+03
 0.96399994E+02 -0.11258E+04
 0.96449997E+02 -0.11555E+04
 0.96499992E+02 -0.97221E+03
 0.96549995E+02 -0.72058E+03
 0.96599991E+02 -0.27495E+03
 0.96649994E+02 -0.24161E+03
 0.96699997E+02 -0.28818E+03
 0.96749992E+02 -0.39668E+03
 0.96799995E+02 -0.83282E+03
 0.96849991E+02 -0.70748E+03
 0.96899994E+02 -0.69716E+03
 0.96949997E+02 -0.47378E+03
 0.96999992E+02 -0.60332E+02
 0.97049995E+02  0.25773E+03
 0.97099991E+02  0.92862E+03
 0.97149994E+02  0.12270E+04
 0.97199997E+02  0.15978E+04
 0.97249992E+02  0.17484E+04
 0.97299995E+02  0.16707E+04
 0.97349991E+02  0.14624E+04
 0.97399994E+02  0.10050E+04
 0.97449997E+02  0.86958E+03
 0.97499992E+02  0.75042E+03
 0.97549995E+02  0.78336E+03
 0.97599991E+02  0.76373E+03
 0.97649994E+02  0.72221E+03
 0.97699997E+02  0.71169E+03
 0.97749992E+02  0.57302E+03
 0.97799995E+02  0.49216E+03
 0.97849991E+02  0.12190E+03
 0.97899994E+02 -0.24996E+03
 0.97949997E+02 -0.61045E+03
 0.97999992E+02 -0.91047E+03
