-0.20000000E+01  0.11460E+05
-0.19500000E+01  0.11392E+05
-0.19000000E+01  0.11428E+05
-0.18500000E+01  0.11427E+05
-0.18000000E+01  0.11431E+05
-0.17500000E+01  0.11433E+05
-0.17000000E+01  0.11432E+05
-0.16500001E+01  0.11441E+05
-0.16000000E+01  0.11436E+05
-0.15500000E+01  0.11430E+05
-0.15000000E+01  0.11438E+05
-0.14500000E+01  0.11442E+05
-0.14000001E+01  0.11444E+05
-0.13500000E+01  0.11442E+05
-0.13000001E+01  0.11452E+05
-0.12500000E+01  0.11458E+05
-0.12000000E+01  0.11455E+05
-0.11500001E+01  0.11453E+05
-0.11000000E+01  0.11447E+05
-0.10500001E+01  0.11452E+05
-0.10000000E+01  0.11450E+05
-0.95000005E+00  0.11445E+05
-0.90000010E+00  0.11444E+05
-0.85000002E+00  0.11437E+05
-0.80000007E+00  0.11440E+05
-0.75000012E+00  0.11438E+05
-0.70000005E+00  0.11432E+05
-0.65000010E+00  0.11436E+05
-0.60000014E+00  0.11433E+05
-0.55000007E+00  0.11434E+05
-0.50000012E+00  0.11431E+05
-0.45000005E+00  0.11426E+05
-0.40000010E+00  0.11422E+05
-0.35000014E+00  0.11413E+05
-0.30000007E+00  0.11422E+05
-0.25000012E+00  0.11425E+05
-0.20000005E+00  0.11413E+05
-0.15000010E+00  0.11418E+05
-0.10000014E+00  0.11426E+05
-0.50000072E-01  0.11423E+05
-0.11920929E-06  0.11432E+05
 0.49999952E-01  0.11431E+05
 0.99999905E-01  0.11436E+05
 0.14999986E+00  0.11440E+05
 0.19999981E+00  0.11439E+05
 0.24999976E+00  0.11447E+05
 0.29999995E+00  0.11441E+05
 0.34999990E+00  0.11452E+05
 0.39999986E+00  0.11448E+05
 0.44999981E+00  0.11444E+05
 0.49999976E+00  0.11448E+05
 0.54999995E+00  0.11449E+05
 0.59999990E+00  0.11462E+05
 0.64999986E+00  0.11449E+05
 0.69999981E+00  0.11459E+05
 0.74999976E+00  0.11467E+05
 0.79999971E+00  0.11457E+05
 0.84999990E+00  0.11460E+05
 0.89999986E+00  0.11458E+05
 0.94999981E+00  0.11460E+05
 0.99999976E+00  0.11451E+05
 0.10499997E+01  0.11440E+05
 0.10999999E+01  0.11440E+05
 0.11499999E+01  0.11437E+05
 0.11999998E+01  0.11431E+05
 0.12499998E+01  0.11428E+05
 0.12999997E+01  0.11432E+05
 0.13499999E+01  0.11431E+05
 0.13999999E+01  0.11432E+05
 0.14499998E+01  0.11429E+05
 0.14999998E+01  0.11436E+05
 0.15499997E+01  0.11433E+05
 0.15999999E+01  0.11422E+05
 0.16499999E+01  0.11427E+05
 0.16999998E+01  0.11423E+05
 0.17499998E+01  0.11432E+05
 0.17999997E+01  0.11429E+05
 0.18499997E+01  0.11436E+05
 0.18999999E+01  0.11435E+05
 0.19499998E+01  0.11426E+05
 0.19999998E+01  0.11438E+05
 0.20499997E+01  0.11433E+05
 0.20999999E+01  0.11437E+05
 0.21499996E+01  0.11436E+05
 0.21999998E+01  0.11435E+05
 0.22499995E+01  0.11433E+05
 0.22999997E+01  0.11436E+05
 0.23499999E+01  0.11436E+05
 0.23999996E+01  0.11429E+05
 0.24499998E+01  0.11440E+05
 0.24999995E+01  0.11428E+05
 0.25499997E+01  0.11430E+05
 0.25999999E+01  0.11434E+05
 0.26499996E+01  0.11434E+05
 0.26999998E+01  0.11439E+05
 0.27499995E+01  0.11427E+05
 0.27999997E+01  0.11437E+05
 0.28499999E+01  0.11438E+05
 0.28999996E+01  0.11435E+05
 0.29499998E+01  0.11434E+05
 0.29999995E+01  0.11442E+05
 0.30499997E+01  0.11427E+05
 0.30999999E+01  0.11440E+05
 0.31499996E+01  0.11437E+05
 0.31999998E+01  0.11438E+05
 0.32499995E+01  0.11436E+05
 0.32999997E+01  0.11449E+05
 0.33499999E+01  0.11436E+05
 0.33999996E+01  0.11458E+05
 0.34499998E+01  0.11432E+05
 0.34999995E+01  0.11445E+05
 0.35499997E+01  0.11464E+05
 0.35999994E+01  0.11404E+05
 0.36499996E+01  0.11459E+05
 0.36999998E+01  0.11414E+05
 0.37499995E+01  0.11461E+05
 0.37999997E+01  0.11422E+05
 0.38499994E+01  0.11449E+05
 0.38999996E+01  0.11455E+05
 0.39499998E+01  0.11442E+05
 0.39999995E+01  0.11453E+05
 0.40499997E+01  0.11437E+05
 0.40999994E+01  0.11456E+05
 0.41499996E+01  0.11426E+05
 0.41999998E+01  0.11461E+05
 0.42499995E+01  0.11457E+05
 0.42999997E+01  0.11444E+05
 0.43499994E+01  0.11453E+05
 0.43999996E+01  0.11456E+05
 0.44499998E+01  0.11434E+05
 0.44999995E+01  0.11467E+05
 0.45499997E+01  0.11456E+05
 0.45999994E+01  0.11450E+05
 0.46499996E+01  0.11456E+05
 0.46999998E+01  0.11460E+05
 0.47499995E+01  0.11472E+05
 0.47999997E+01  0.11447E+05
 0.48499994E+01  0.11450E+05
 0.48999996E+01  0.11467E+05
 0.49499998E+01  0.11438E+05
 0.49999995E+01  0.11450E+05
 0.50499997E+01  0.11447E+05
 0.50999994E+01  0.11433E+05
 0.51499996E+01  0.11441E+05
 0.51999998E+01  0.11438E+05
 0.52499995E+01  0.11446E+05
 0.52999997E+01  0.11442E+05
 0.53499994E+01  0.11444E+05
 0.53999996E+01  0.11438E+05
 0.54499993E+01  0.11430E+05
 0.54999995E+01  0.11433E+05
 0.55499997E+01  0.11422E+05
 0.55999994E+01  0.11418E+05
 0.56499996E+01  0.11432E+05
 0.56999993E+01  0.11437E+05
 0.57499995E+01  0.11443E+05
 0.57999997E+01  0.11439E+05
 0.58499994E+01  0.11426E+05
 0.58999996E+01  0.11433E+05
 0.59499993E+01  0.11428E+05
 0.59999995E+01  0.11427E+05
 0.60499992E+01  0.11443E+05
 0.60999994E+01  0.11438E+05
 0.61499996E+01  0.11449E+05
 0.61999998E+01  0.11445E+05
 0.62499990E+01  0.11435E+05
 0.62999992E+01  0.11441E+05
 0.63499994E+01  0.11436E+05
 0.63999996E+01  0.11435E+05
 0.64499998E+01  0.11430E+05
 0.64999990E+01  0.11423E+05
 0.65499992E+01  0.11421E+05
 0.65999994E+01  0.11428E+05
 0.66499996E+01  0.11421E+05
 0.66999998E+01  0.11436E+05
 0.67499990E+01  0.11436E+05
 0.67999992E+01  0.11424E+05
 0.68499994E+01  0.11447E+05
 0.68999996E+01  0.11386E+05
 0.69499998E+01  0.11443E+05
 0.69999990E+01  0.11410E+05
 0.70499992E+01  0.11439E+05
 0.70999994E+01  0.11424E+05
 0.71499996E+01  0.11481E+05
 0.71999998E+01  0.11391E+05
 0.72499990E+01  0.11479E+05
 0.72999992E+01  0.11050E+05
 0.73499994E+01  0.10030E+05
 0.73999996E+01  0.10842E+05
 0.74499998E+01  0.12445E+05
 0.74999990E+01  0.12310E+05
 0.75499992E+01  0.12302E+05
 0.75999994E+01  0.11878E+05
 0.76499996E+01  0.10501E+05
 0.76999998E+01  0.10084E+05
 0.77499990E+01  0.92544E+04
 0.77999992E+01  0.11132E+05
 0.78499994E+01  0.13877E+05
 0.78999996E+01  0.12758E+05
 0.79499998E+01  0.13580E+05
 0.79999990E+01  0.89312E+04
 0.80499992E+01  0.10993E+05
 0.80999994E+01  0.11525E+05
 0.81499996E+01  0.62985E+04
 0.81999998E+01  0.10541E+05
 0.82499990E+01  0.15823E+05
 0.82999992E+01  0.96360E+04
 0.83499994E+01  0.10653E+05
 0.83999996E+01  0.18674E+05
 0.84499998E+01  0.10844E+05
 0.84999990E+01  0.15128E+05
 0.85499992E+01  0.52594E+04
 0.85999994E+01  0.42911E+04
 0.86499996E+01  0.25755E+05
 0.86999998E+01  0.46109E+04
 0.87499990E+01  0.56662E+04
 0.87999992E+01  0.27991E+05
 0.88499994E+01  0.49987E+04
 0.88999996E+01  0.10521E+05
 0.89499998E+01  0.22199E+05
 0.89999990E+01 -0.65055E+03
 0.90499992E+01 -0.20414E+02
 0.90999994E+01  0.15081E+05
 0.91499996E+01  0.12445E+05
 0.91999989E+01  0.16845E+05
 0.92499990E+01  0.63929E+04
 0.92999992E+01  0.17885E+05
 0.93499994E+01  0.15059E+05
 0.93999996E+01 -0.79238E+04
 0.94499989E+01  0.15788E+05
 0.94999990E+01  0.35914E+05
 0.95499992E+01 -0.18412E+04
 0.95999994E+01 -0.19805E+05
 0.96499996E+01  0.41991E+05
 0.96999989E+01  0.35471E+05
 0.97499990E+01 -0.30299E+04
 0.97999992E+01 -0.11389E+03
 0.98499994E+01  0.25729E+05
 0.98999996E+01 -0.14671E+04
 0.99499989E+01 -0.21906E+04
 0.99999990E+01  0.32453E+05
 0.10049999E+02  0.35313E+04
 0.10099999E+02  0.10620E+05
 0.10150000E+02  0.13757E+04
 0.10199999E+02  0.23182E+05
 0.10249999E+02  0.22412E+05
 0.10299999E+02 -0.21751E+05
 0.10349999E+02  0.28983E+05
 0.10400000E+02  0.15883E+05
 0.10449999E+02  0.15999E+04
 0.10499999E+02  0.24715E+05
 0.10549999E+02  0.14070E+05
 0.10599999E+02  0.10804E+05
 0.10650000E+02 -0.66330E+04
 0.10699999E+02  0.34940E+05
 0.10749999E+02  0.16559E+05
 0.10799999E+02 -0.20949E+04
 0.10849999E+02  0.32581E+05
 0.10900000E+02 -0.24378E+05
 0.10949999E+02  0.18454E+05
 0.10999999E+02  0.35844E+05
 0.11049999E+02 -0.29750E+03
 0.11099999E+02  0.22893E+04
 0.11150000E+02  0.11203E+05
 0.11199999E+02  0.32803E+05
 0.11249999E+02 -0.10858E+05
 0.11299999E+02 -0.93984E+04
 0.11349999E+02  0.31511E+05
 0.11400000E+02  0.36307E+05
 0.11449999E+02 -0.36832E+04
 0.11499999E+02 -0.18035E+05
 0.11549999E+02 -0.45578E+03
 0.11599999E+02 -0.11213E+04
 0.11650000E+02  0.15279E+05
 0.11699999E+02  0.39110E+05
 0.11749999E+02  0.50967E+05
 0.11799999E+02  0.59386E+05
 0.11849999E+02 -0.27375E+05
 0.11900000E+02 -0.45913E+05
 0.11949999E+02  0.86295E+04
 0.11999999E+02  0.32493E+05
 0.12049999E+02 -0.33416E+05
 0.12099999E+02  0.25367E+05
 0.12150000E+02  0.52215E+05
 0.12199999E+02 -0.69307E+05
 0.12249999E+02  0.38877E+05
 0.12299999E+02 -0.52067E+05
 0.12349999E+02  0.45156E+05
 0.12400000E+02  0.69447E+05
 0.12449999E+02 -0.32453E+05
 0.12499999E+02  0.27077E+05
 0.12549999E+02  0.20643E+06
 0.12599999E+02  0.12830E+04
 0.12649999E+02 -0.22011E+06
 0.12699999E+02  0.14685E+06
 0.12749999E+02 -0.14667E+06
 0.12799999E+02 -0.97785E+05
 0.12849999E+02  0.27211E+06
 0.12899999E+02  0.30875E+05
 0.12949999E+02 -0.16427E+06
 0.12999999E+02  0.19191E+06
 0.13049999E+02  0.22617E+06
 0.13099999E+02 -0.18738E+06
 0.13149999E+02  0.13046E+05
 0.13199999E+02  0.11319E+06
 0.13249999E+02 -0.13489E+06
 0.13299999E+02 -0.18781E+05
 0.13349999E+02  0.74160E+04
 0.13399999E+02 -0.74908E+05
 0.13449999E+02  0.10565E+06
 0.13499999E+02  0.11355E+06
 0.13549999E+02 -0.55594E+05
 0.13599999E+02 -0.10703E+06
 0.13649999E+02  0.56005E+05
 0.13699999E+02  0.87422E+05
 0.13749999E+02 -0.11449E+06
 0.13799999E+02 -0.46961E+05
 0.13849999E+02  0.11008E+06
 0.13899999E+02  0.48974E+05
 0.13949999E+02  0.16629E+05
 0.13999999E+02  0.21089E+05
 0.14049999E+02 -0.12162E+05
 0.14099998E+02 -0.35047E+05
 0.14150000E+02  0.67582E+05
 0.14199999E+02 -0.11748E+05
 0.14249998E+02  0.12809E+04
 0.14299999E+02  0.14861E+06
 0.14349998E+02  0.29823E+05
 0.14400000E+02 -0.88060E+05
 0.14449999E+02 -0.39042E+05
 0.14499998E+02  0.39460E+05
 0.14549999E+02  0.38050E+05
 0.14599998E+02  0.11180E+05
 0.14650000E+02 -0.13865E+05
 0.14699999E+02  0.27981E+05
 0.14749998E+02  0.51828E+05
 0.14799999E+02 -0.43914E+05
 0.14849998E+02 -0.98828E+04
 0.14900000E+02  0.96272E+05
 0.14949999E+02  0.13620E+05
 0.14999998E+02 -0.33630E+05
 0.15049999E+02  0.54000E+05
 0.15099998E+02  0.31923E+05
 0.15150000E+02 -0.68526E+05
 0.15199999E+02  0.48234E+05
 0.15249998E+02 -0.28461E+05
 0.15299999E+02 -0.54592E+05
 0.15349998E+02  0.46775E+05
 0.15400000E+02  0.27879E+05
 0.15449999E+02 -0.16415E+05
 0.15499998E+02  0.41570E+05
 0.15549999E+02  0.60736E+05
 0.15599998E+02 -0.39111E+05
 0.15650000E+02  0.32405E+05
 0.15699999E+02  0.25170E+05
 0.15749998E+02  0.26086E+05
 0.15799999E+02 -0.32517E+04
 0.15849998E+02  0.20786E+05
 0.15900000E+02 -0.10415E+05
 0.15949999E+02 -0.20211E+03
 0.15999998E+02  0.48325E+05
 0.16049999E+02 -0.99182E+04
 0.16099998E+02  0.20124E+05
 0.16150000E+02  0.28207E+05
 0.16199999E+02  0.17031E+05
 0.16249998E+02  0.54889E+03
 0.16299999E+02 -0.22256E+05
 0.16349998E+02 -0.14224E+05
 0.16400000E+02  0.21405E+05
 0.16449999E+02  0.33491E+05
 0.16499998E+02 -0.29922E+04
 0.16549999E+02  0.14003E+05
 0.16599998E+02  0.43417E+05
 0.16650000E+02  0.37581E+04
 0.16699999E+02 -0.17661E+05
 0.16749998E+02  0.21324E+05
 0.16799999E+02  0.21156E+05
 0.16849998E+02 -0.31736E+05
 0.16900000E+02 -0.73366E+03
 0.16949999E+02  0.20702E+05
 0.16999998E+02  0.63125E+04
 0.17049999E+02 -0.14161E+05
 0.17099998E+02  0.59239E+05
 0.17150000E+02  0.28372E+05
 0.17199999E+02 -0.24901E+05
 0.17249998E+02  0.37317E+05
 0.17299999E+02  0.14962E+04
 0.17349998E+02  0.19122E+05
 0.17400000E+02  0.11204E+05
 0.17449999E+02  0.34544E+04
 0.17499998E+02  0.21012E+05
 0.17549999E+02  0.25000E+05
 0.17599998E+02  0.18997E+05
 0.17650000E+02  0.48762E+04
 0.17699999E+02  0.26427E+05
 0.17749998E+02  0.17824E+05
 0.17799999E+02  0.71575E+04
 0.17849998E+02  0.17206E+05
 0.17900000E+02  0.37067E+05
 0.17949999E+02  0.17553E+05
 0.17999998E+02  0.89884E+04
 0.18049999E+02  0.18453E+05
 0.18099998E+02  0.66029E+04
 0.18150000E+02 -0.88592E+04
 0.18199999E+02  0.35629E+04
 0.18249998E+02  0.10561E+05
 0.18299999E+02  0.14283E+05
 0.18349998E+02  0.72041E+04
 0.18400000E+02 -0.12849E+05
 0.18449999E+02  0.27915E+04
 0.18499998E+02  0.16605E+05
 0.18549999E+02 -0.94444E+04
 0.18599998E+02 -0.73394E+04
 0.18650000E+02  0.28732E+05
 0.18699999E+02 -0.19448E+04
 0.18749998E+02 -0.10082E+05
 0.18799999E+02  0.33091E+05
 0.18849998E+02  0.34883E+05
 0.18900000E+02 -0.66898E+04
 0.18949999E+02  0.16661E+05
 0.18999998E+02  0.37898E+05
 0.19049999E+02  0.10755E+05
 0.19099998E+02  0.15641E+05
 0.19150000E+02  0.66200E+04
 0.19199999E+02  0.33390E+05
 0.19249998E+02  0.31544E+05
 0.19299999E+02 -0.24033E+05
 0.19349998E+02  0.12651E+05
 0.19400000E+02  0.30783E+05
 0.19449999E+02  0.11010E+05
 0.19499998E+02 -0.80080E+04
 0.19549999E+02  0.65784E+04
 0.19599998E+02  0.21755E+05
 0.19650000E+02  0.60389E+04
 0.19699999E+02  0.15742E+05
 0.19749998E+02  0.58279E+04
 0.19799999E+02  0.12645E+05
 0.19849998E+02  0.25453E+05
 0.19900000E+02  0.33028E+04
 0.19949999E+02  0.41118E+04
 0.19999998E+02  0.22176E+05
 0.20049999E+02  0.15922E+05
 0.20099998E+02  0.83787E+04
 0.20150000E+02  0.43092E+04
 0.20199999E+02  0.65271E+04
 0.20249998E+02  0.62962E+04
 0.20299999E+02  0.40253E+04
 0.20349998E+02  0.59012E+03
 0.20399998E+02  0.18257E+05
 0.20449999E+02  0.24641E+05
 0.20499998E+02  0.16288E+05
 0.20549999E+02  0.18102E+05
 0.20599998E+02  0.15235E+05
 0.20649998E+02  0.88819E+04
 0.20699999E+02 -0.80465E+04
 0.20749998E+02 -0.22677E+03
 0.20799999E+02  0.12373E+05
 0.20849998E+02  0.10145E+05
 0.20899998E+02 -0.90925E+03
 0.20949999E+02  0.90276E+04
 0.20999998E+02  0.29666E+05
 0.21049999E+02  0.26386E+05
 0.21099998E+02  0.14352E+05
 0.21149998E+02  0.10156E+05
 0.21199999E+02  0.13333E+05
 0.21249998E+02  0.20338E+05
 0.21299999E+02  0.19891E+05
 0.21349998E+02  0.68531E+04
 0.21399998E+02  0.14276E+05
 0.21449999E+02  0.12433E+05
 0.21499998E+02  0.14788E+05
 0.21549999E+02  0.16254E+05
 0.21599998E+02  0.28146E+05
 0.21649998E+02  0.10942E+05
 0.21699999E+02 -0.87039E+04
 0.21749998E+02  0.23294E+05
 0.21799999E+02  0.10635E+05
 0.21849998E+02 -0.12611E+05
 0.21899998E+02  0.10231E+05
 0.21949999E+02  0.11250E+05
 0.21999998E+02 -0.34137E+04
 0.22049999E+02  0.12660E+05
 0.22099998E+02  0.13395E+05
 0.22149998E+02  0.85848E+04
 0.22199999E+02  0.19201E+05
 0.22249998E+02  0.23381E+05
 0.22299999E+02  0.13429E+04
 0.22349998E+02  0.94074E+03
 0.22399998E+02  0.13715E+05
 0.22449999E+02  0.12233E+05
 0.22499998E+02  0.12584E+05
 0.22549999E+02  0.74290E+04
 0.22599998E+02  0.16246E+05
 0.22649998E+02  0.10910E+05
 0.22699999E+02 -0.16150E+04
 0.22749998E+02  0.12099E+05
 0.22799999E+02  0.61107E+04
 0.22849998E+02  0.13740E+05
 0.22899998E+02  0.27749E+05
 0.22949999E+02  0.15845E+05
 0.22999998E+02  0.11979E+05
 0.23049999E+02  0.30986E+04
 0.23099998E+02  0.13174E+05
 0.23149998E+02  0.73758E+04
 0.23199999E+02 -0.32836E+02
 0.23249998E+02  0.17995E+05
 0.23299999E+02  0.94874E+04
 0.23349998E+02  0.59251E+04
 0.23399998E+02  0.57501E+04
 0.23449999E+02  0.22419E+05
 0.23499998E+02  0.24591E+05
 0.23549999E+02  0.45968E+04
 0.23599998E+02  0.17923E+05
 0.23649998E+02  0.15985E+05
 0.23699999E+02  0.20365E+05
 0.23749998E+02  0.58987E+04
 0.23799999E+02  0.99048E+04
 0.23849998E+02  0.24140E+05
 0.23899998E+02  0.13875E+05
 0.23949999E+02  0.23511E+05
 0.23999998E+02  0.34011E+04
 0.24049999E+02  0.78305E+04
 0.24099998E+02  0.18032E+05
 0.24149998E+02  0.51723E+04
 0.24199999E+02  0.15375E+04
 0.24249998E+02  0.10503E+05
 0.24299999E+02  0.21086E+05
 0.24349998E+02  0.47639E+04
 0.24399998E+02  0.19641E+04
 0.24449999E+02  0.42727E+04
 0.24499998E+02  0.52937E+04
 0.24549999E+02  0.12272E+05
 0.24599998E+02  0.32645E+04
 0.24649998E+02  0.11072E+05
 0.24699999E+02  0.19770E+05
 0.24749998E+02  0.11280E+05
 0.24799999E+02  0.70993E+04
 0.24849998E+02  0.16672E+05
 0.24899998E+02  0.18611E+05
 0.24949999E+02  0.70510E+04
 0.24999998E+02  0.93914E+04
 0.25049999E+02  0.20497E+05
 0.25099998E+02  0.20923E+05
 0.25149998E+02  0.11415E+05
 0.25199999E+02  0.12767E+05
 0.25249998E+02  0.91937E+04
 0.25299999E+02  0.92434E+04
 0.25349998E+02  0.97657E+04
 0.25399998E+02  0.91834E+04
 0.25449999E+02  0.18370E+05
 0.25499998E+02  0.11775E+05
 0.25549999E+02  0.13759E+05
 0.25599998E+02  0.67948E+04
 0.25649998E+02  0.30403E+04
 0.25699999E+02  0.11640E+05
 0.25749998E+02  0.43398E+04
 0.25799999E+02  0.11487E+05
 0.25849998E+02  0.10597E+05
 0.25899998E+02  0.98605E+04
 0.25949999E+02  0.84754E+04
 0.25999998E+02  0.94936E+04
 0.26049999E+02  0.19347E+05
 0.26099998E+02  0.14403E+05
 0.26149998E+02  0.16812E+05
 0.26199999E+02  0.20556E+05
 0.26249998E+02  0.17584E+05
 0.26299999E+02  0.98528E+04
 0.26349998E+02  0.87433E+04
 0.26399998E+02  0.10257E+05
 0.26449999E+02  0.13927E+05
 0.26499998E+02  0.12512E+05
 0.26549999E+02  0.11085E+05
 0.26599998E+02  0.15654E+05
 0.26649998E+02  0.74518E+04
 0.26699999E+02  0.40707E+04
 0.26749998E+02  0.54634E+04
 0.26799999E+02  0.64851E+04
 0.26849998E+02  0.67532E+04
 0.26899998E+02  0.11668E+05
 0.26949999E+02  0.77408E+04
 0.26999998E+02  0.47416E+04
 0.27049997E+02  0.14621E+05
 0.27099998E+02  0.11855E+05
 0.27149998E+02  0.73541E+04
 0.27199999E+02  0.16747E+05
 0.27249998E+02  0.15007E+05
 0.27299997E+02  0.65408E+04
 0.27349998E+02  0.14236E+05
 0.27399998E+02  0.20903E+05
 0.27449999E+02  0.15015E+05
 0.27499998E+02  0.59862E+04
 0.27549997E+02  0.12865E+05
 0.27599998E+02  0.15255E+05
 0.27649998E+02  0.13526E+05
 0.27699999E+02  0.93743E+04
 0.27749998E+02  0.76964E+04
 0.27799997E+02  0.11237E+05
 0.27849998E+02  0.11598E+05
 0.27899998E+02  0.15279E+05
 0.27949999E+02  0.13819E+05
 0.27999998E+02  0.84022E+04
 0.28049997E+02  0.47510E+04
 0.28099998E+02  0.10441E+05
 0.28149998E+02  0.19327E+05
 0.28199999E+02  0.93753E+04
 0.28249998E+02  0.10998E+05
 0.28299997E+02  0.18606E+05
 0.28349998E+02  0.11205E+05
 0.28399998E+02  0.90041E+04
 0.28449999E+02  0.91856E+04
 0.28499998E+02  0.11566E+05
 0.28549997E+02  0.11833E+05
 0.28599998E+02  0.13820E+05
 0.28649998E+02  0.10303E+05
 0.28699999E+02  0.99184E+04
 0.28749998E+02  0.89330E+04
 0.28799997E+02  0.87615E+04
 0.28849998E+02  0.13001E+05
 0.28899998E+02  0.11357E+05
 0.28949999E+02  0.17128E+05
 0.28999998E+02  0.70494E+04
 0.29049997E+02  0.49687E+03
 0.29099998E+02  0.20360E+05
 0.29149998E+02  0.16334E+05
 0.29199999E+02  0.31811E+04
 0.29249998E+02  0.77130E+04
 0.29299997E+02  0.98337E+04
 0.29349998E+02  0.14514E+05
 0.29399998E+02  0.12662E+05
 0.29449999E+02  0.19086E+05
 0.29499998E+02  0.18036E+05
 0.29549997E+02  0.81975E+04
 0.29599998E+02  0.12446E+05
 0.29649998E+02  0.17223E+05
 0.29699999E+02  0.20130E+05
 0.29749998E+02  0.67390E+04
 0.29799997E+02  0.77522E+04
 0.29849998E+02  0.87888E+04
 0.29899998E+02  0.54894E+04
 0.29949999E+02  0.10004E+05
 0.29999998E+02  0.12653E+05
 0.30049999E+02  0.11550E+05
 0.30099998E+02  0.73731E+04
 0.30149998E+02  0.11935E+05
 0.30199997E+02  0.12916E+05
 0.30249996E+02  0.12481E+05
 0.30299999E+02  0.99270E+04
 0.30349998E+02  0.54038E+04
 0.30399998E+02  0.69162E+04
 0.30449997E+02  0.12945E+05
 0.30499996E+02  0.10914E+05
 0.30549999E+02  0.86024E+04
 0.30599998E+02  0.10507E+05
 0.30649998E+02  0.11975E+05
 0.30699997E+02  0.12777E+05
 0.30749996E+02  0.10952E+05
 0.30799999E+02  0.15691E+05
 0.30849998E+02  0.16530E+05
 0.30899998E+02  0.15858E+05
 0.30949997E+02  0.14911E+05
 0.30999996E+02  0.13828E+05
 0.31049999E+02  0.15199E+05
 0.31099998E+02  0.11929E+05
 0.31149998E+02  0.13148E+05
 0.31199997E+02  0.14108E+05
 0.31249996E+02  0.11113E+05
 0.31299999E+02  0.83286E+04
 0.31349998E+02  0.56964E+04
 0.31399998E+02  0.98346E+04
 0.31449997E+02  0.10727E+05
 0.31499996E+02  0.52640E+04
 0.31549999E+02  0.87344E+04
 0.31599998E+02  0.87810E+04
 0.31649998E+02  0.10656E+05
 0.31699997E+02  0.95569E+04
 0.31749996E+02  0.10641E+05
 0.31799999E+02  0.11911E+05
 0.31849998E+02  0.53158E+04
 0.31899998E+02  0.10277E+05
 0.31949997E+02  0.12457E+05
 0.31999996E+02  0.16521E+05
 0.32049999E+02  0.14185E+05
 0.32099998E+02  0.91733E+04
 0.32149998E+02  0.14191E+05
 0.32199997E+02  0.12321E+05
 0.32249996E+02  0.12852E+05
 0.32299999E+02  0.15133E+05
 0.32349998E+02  0.13848E+05
 0.32399998E+02  0.10993E+05
 0.32449997E+02  0.10367E+05
 0.32499996E+02  0.15456E+05
 0.32549999E+02  0.13324E+05
 0.32599998E+02  0.10978E+05
 0.32649998E+02  0.12280E+05
 0.32699997E+02  0.13936E+05
 0.32749996E+02  0.14488E+05
 0.32799999E+02  0.12468E+05
 0.32849998E+02  0.11480E+05
 0.32899998E+02  0.11485E+05
 0.32949997E+02  0.95728E+04
 0.32999996E+02  0.80529E+04
 0.33049999E+02  0.11996E+05
 0.33099998E+02  0.91682E+04
 0.33149998E+02  0.79380E+04
 0.33199997E+02  0.10922E+05
 0.33249996E+02  0.94151E+04
 0.33299999E+02  0.90096E+04
 0.33349998E+02  0.10270E+05
 0.33399998E+02  0.10736E+05
 0.33449997E+02  0.72244E+04
 0.33499996E+02  0.11816E+05
 0.33549999E+02  0.15814E+05
 0.33599998E+02  0.12552E+05
 0.33649998E+02  0.11553E+05
 0.33699997E+02  0.97622E+04
 0.33749996E+02  0.11878E+05
 0.33799999E+02  0.11418E+05
 0.33849998E+02  0.12360E+05
 0.33899998E+02  0.10759E+05
 0.33949997E+02  0.13256E+05
 0.33999996E+02  0.16699E+05
 0.34049999E+02  0.71942E+04
 0.34099998E+02  0.88032E+04
 0.34149998E+02  0.11913E+05
 0.34199997E+02  0.10086E+05
 0.34249996E+02  0.13298E+05
 0.34299999E+02  0.16265E+05
 0.34349998E+02  0.88672E+04
 0.34399998E+02  0.99418E+04
 0.34449997E+02  0.14604E+05
 0.34499996E+02  0.88870E+04
 0.34549999E+02  0.11974E+05
 0.34599998E+02  0.13884E+05
 0.34649998E+02  0.12204E+05
 0.34699997E+02  0.13757E+05
 0.34749996E+02  0.10906E+05
 0.34799999E+02  0.86009E+04
 0.34849998E+02  0.12395E+05
 0.34899998E+02  0.86418E+04
 0.34949997E+02  0.94813E+04
 0.34999996E+02  0.16831E+05
 0.35049999E+02  0.89869E+04
 0.35099998E+02  0.74255E+04
 0.35149998E+02  0.15722E+05
 0.35199997E+02  0.16212E+05
 0.35249996E+02  0.13246E+05
 0.35299999E+02  0.79967E+04
 0.35349998E+02  0.10978E+05
 0.35399998E+02  0.14984E+05
 0.35449997E+02  0.12658E+05
 0.35499996E+02  0.69758E+04
 0.35549999E+02  0.60945E+04
 0.35599998E+02  0.12222E+05
 0.35649998E+02  0.53381E+04
 0.35699997E+02  0.88661E+04
 0.35749996E+02  0.16052E+05
 0.35799999E+02  0.98249E+04
 0.35849998E+02  0.97416E+04
 0.35899998E+02  0.91965E+04
 0.35949997E+02  0.10462E+05
 0.35999996E+02  0.12585E+05
 0.36049999E+02  0.11367E+05
 0.36099998E+02  0.86609E+04
 0.36149998E+02  0.12811E+05
 0.36199997E+02  0.13945E+05
 0.36249996E+02  0.96626E+04
 0.36299999E+02  0.13818E+05
 0.36349998E+02  0.12658E+05
 0.36399998E+02  0.87057E+04
 0.36449997E+02  0.93779E+04
 0.36499996E+02  0.12118E+05
 0.36549999E+02  0.10142E+05
 0.36599998E+02  0.97711E+04
 0.36649998E+02  0.12766E+05
 0.36699997E+02  0.15338E+05
 0.36749996E+02  0.16703E+05
 0.36799999E+02  0.12224E+05
 0.36849998E+02  0.10304E+05
 0.36899998E+02  0.85698E+04
 0.36949997E+02  0.10165E+05
 0.36999996E+02  0.13876E+05
 0.37049999E+02  0.14633E+05
 0.37099998E+02  0.10123E+05
 0.37149998E+02  0.81591E+04
 0.37199997E+02  0.13523E+05
 0.37249996E+02  0.15153E+05
 0.37299999E+02  0.13625E+05
 0.37349998E+02  0.11083E+05
 0.37399998E+02  0.11203E+05
 0.37449997E+02  0.11558E+05
 0.37499996E+02  0.12176E+05
 0.37549999E+02  0.11467E+05
 0.37599998E+02  0.94653E+04
 0.37649998E+02  0.11391E+05
 0.37699997E+02  0.11684E+05
 0.37749996E+02  0.92834E+04
 0.37799999E+02  0.11733E+05
 0.37849998E+02  0.12240E+05
 0.37899998E+02  0.70232E+04
 0.37949997E+02  0.83024E+04
 0.37999996E+02  0.15252E+05
 0.38049999E+02  0.10180E+05
 0.38099998E+02  0.98158E+04
 0.38149998E+02  0.12181E+05
 0.38199997E+02  0.87079E+04
 0.38249996E+02  0.13076E+05
 0.38299999E+02  0.13946E+05
 0.38349998E+02  0.11831E+05
 0.38399998E+02  0.10498E+05
 0.38449997E+02  0.13968E+05
 0.38499996E+02  0.11753E+05
 0.38549999E+02  0.12798E+05
 0.38599998E+02  0.16500E+05
 0.38649998E+02  0.11145E+05
 0.38699997E+02  0.11041E+05
 0.38749996E+02  0.11697E+05
 0.38799999E+02  0.12750E+05
 0.38849998E+02  0.11725E+05
 0.38899998E+02  0.11238E+05
 0.38949997E+02  0.11488E+05
 0.38999996E+02  0.11535E+05
 0.39049999E+02  0.11924E+05
 0.39099998E+02  0.84935E+04
 0.39149998E+02  0.10551E+05
 0.39199997E+02  0.12098E+05
 0.39249996E+02  0.86868E+04
 0.39299999E+02  0.12685E+05
 0.39349998E+02  0.12100E+05
 0.39399998E+02  0.81834E+04
 0.39449997E+02  0.13191E+05
 0.39499996E+02  0.11648E+05
 0.39549999E+02  0.79698E+04
 0.39599998E+02  0.10350E+05
 0.39649998E+02  0.11828E+05
 0.39699997E+02  0.12243E+05
 0.39749996E+02  0.92845E+04
 0.39799999E+02  0.10387E+05
 0.39849998E+02  0.15694E+05
 0.39899998E+02  0.13039E+05
 0.39949997E+02  0.11000E+05
 0.39999996E+02  0.11579E+05
 0.40049999E+02  0.10910E+05
 0.40099998E+02  0.91124E+04
 0.40149998E+02  0.95324E+04
 0.40199997E+02  0.11397E+05
 0.40249996E+02  0.11382E+05
 0.40299999E+02  0.10106E+05
 0.40349998E+02  0.10066E+05
 0.40399998E+02  0.13111E+05
 0.40449997E+02  0.11336E+05
 0.40499996E+02  0.96199E+04
 0.40549999E+02  0.11212E+05
 0.40599998E+02  0.12474E+05
 0.40649998E+02  0.11381E+05
 0.40699997E+02  0.11615E+05
 0.40749996E+02  0.13678E+05
 0.40799999E+02  0.14282E+05
 0.40849998E+02  0.13729E+05
 0.40899998E+02  0.13439E+05
 0.40949997E+02  0.11527E+05
 0.40999996E+02  0.10698E+05
 0.41049999E+02  0.13810E+05
 0.41099998E+02  0.12060E+05
 0.41149998E+02  0.11508E+05
 0.41199997E+02  0.10785E+05
 0.41249996E+02  0.97614E+04
 0.41299999E+02  0.11033E+05
 0.41349998E+02  0.12122E+05
 0.41399998E+02  0.12450E+05
 0.41449997E+02  0.11094E+05
 0.41499996E+02  0.11638E+05
 0.41549999E+02  0.10851E+05
 0.41599998E+02  0.10167E+05
 0.41649998E+02  0.11013E+05
 0.41699997E+02  0.94337E+04
 0.41749996E+02  0.10596E+05
 0.41799999E+02  0.13842E+05
 0.41849998E+02  0.12217E+05
 0.41899998E+02  0.11570E+05
 0.41949997E+02  0.11350E+05
 0.41999996E+02  0.10911E+05
 0.42049999E+02  0.11560E+05
 0.42099998E+02  0.99548E+04
 0.42149998E+02  0.11127E+05
 0.42199997E+02  0.12959E+05
 0.42249996E+02  0.10350E+05
 0.42299999E+02  0.90194E+04
 0.42349998E+02  0.10259E+05
 0.42399998E+02  0.10877E+05
 0.42449997E+02  0.10429E+05
 0.42499996E+02  0.10782E+05
 0.42549999E+02  0.10247E+05
 0.42599998E+02  0.89037E+04
 0.42649998E+02  0.93498E+04
 0.42699997E+02  0.12427E+05
 0.42749996E+02  0.14407E+05
 0.42799995E+02  0.11382E+05
 0.42849998E+02  0.12676E+05
 0.42899998E+02  0.13000E+05
 0.42949997E+02  0.11470E+05
 0.42999996E+02  0.13013E+05
 0.43049995E+02  0.12848E+05
 0.43099998E+02  0.11578E+05
 0.43149998E+02  0.11274E+05
 0.43199997E+02  0.13567E+05
 0.43249996E+02  0.13510E+05
 0.43299995E+02  0.10808E+05
 0.43349998E+02  0.92521E+04
 0.43399998E+02  0.12244E+05
 0.43449997E+02  0.13018E+05
 0.43499996E+02  0.11237E+05
 0.43549995E+02  0.11167E+05
 0.43599998E+02  0.10683E+05
 0.43649998E+02  0.10783E+05
 0.43699997E+02  0.12176E+05
 0.43749996E+02  0.11487E+05
 0.43799995E+02  0.10249E+05
 0.43849998E+02  0.11224E+05
 0.43899998E+02  0.11184E+05
 0.43949997E+02  0.13275E+05
 0.43999996E+02  0.11882E+05
 0.44049995E+02  0.84488E+04
 0.44099998E+02  0.98395E+04
 0.44149998E+02  0.10260E+05
 0.44199997E+02  0.94326E+04
 0.44249996E+02  0.10077E+05
 0.44299995E+02  0.10875E+05
 0.44349998E+02  0.11115E+05
 0.44399998E+02  0.10529E+05
 0.44449997E+02  0.12324E+05
 0.44499996E+02  0.13961E+05
 0.44549995E+02  0.11453E+05
 0.44599998E+02  0.10076E+05
 0.44649998E+02  0.11444E+05
 0.44699997E+02  0.12435E+05
 0.44749996E+02  0.11439E+05
 0.44799995E+02  0.11541E+05
 0.44849998E+02  0.11898E+05
 0.44899998E+02  0.11772E+05
 0.44949997E+02  0.11146E+05
 0.44999996E+02  0.10322E+05
 0.45049995E+02  0.13377E+05
 0.45099998E+02  0.14070E+05
 0.45149998E+02  0.10237E+05
 0.45199997E+02  0.10067E+05
 0.45249996E+02  0.12589E+05
 0.45299995E+02  0.11374E+05
 0.45349998E+02  0.99484E+04
 0.45399998E+02  0.12634E+05
 0.45449997E+02  0.11423E+05
 0.45499996E+02  0.10310E+05
 0.45549995E+02  0.99489E+04
 0.45599998E+02  0.10029E+05
 0.45649998E+02  0.11136E+05
 0.45699997E+02  0.96693E+04
 0.45749996E+02  0.12032E+05
 0.45799995E+02  0.12099E+05
 0.45849998E+02  0.13559E+05
 0.45899998E+02  0.13102E+05
 0.45949997E+02  0.10674E+05
 0.45999996E+02  0.13095E+05
 0.46049995E+02  0.12002E+05
 0.46099998E+02  0.10983E+05
 0.46149998E+02  0.11217E+05
 0.46199997E+02  0.10413E+05
 0.46249996E+02  0.10436E+05
 0.46299995E+02  0.11811E+05
 0.46349998E+02  0.11556E+05
 0.46399998E+02  0.11479E+05
 0.46449997E+02  0.12576E+05
 0.46499996E+02  0.10390E+05
 0.46549995E+02  0.11431E+05
 0.46599998E+02  0.12557E+05
 0.46649998E+02  0.10608E+05
 0.46699997E+02  0.11751E+05
 0.46749996E+02  0.11291E+05
 0.46799995E+02  0.10734E+05
 0.46849998E+02  0.10976E+05
 0.46899998E+02  0.11864E+05
 0.46949997E+02  0.12392E+05
 0.46999996E+02  0.10775E+05
 0.47049995E+02  0.12164E+05
 0.47099998E+02  0.11790E+05
 0.47149998E+02  0.10239E+05
 0.47199997E+02  0.10766E+05
 0.47249996E+02  0.10854E+05
 0.47299995E+02  0.12636E+05
 0.47349998E+02  0.12642E+05
 0.47399998E+02  0.12669E+05
 0.47449997E+02  0.12468E+05
 0.47499996E+02  0.11856E+05
 0.47549995E+02  0.12179E+05
 0.47599998E+02  0.11538E+05
 0.47649998E+02  0.12361E+05
 0.47699997E+02  0.11031E+05
 0.47749996E+02  0.10621E+05
 0.47799995E+02  0.11793E+05
 0.47849998E+02  0.11856E+05
 0.47899998E+02  0.10901E+05
 0.47949997E+02  0.10046E+05
 0.47999996E+02  0.10612E+05
 0.48049995E+02  0.10456E+05
 0.48099998E+02  0.12008E+05
 0.48149998E+02  0.12481E+05
 0.48199997E+02  0.10637E+05
 0.48249996E+02  0.12027E+05
 0.48299995E+02  0.12011E+05
 0.48349998E+02  0.97931E+04
 0.48399998E+02  0.11507E+05
 0.48449997E+02  0.11827E+05
 0.48499996E+02  0.11293E+05
 0.48549995E+02  0.12393E+05
 0.48599998E+02  0.12466E+05
 0.48649998E+02  0.12283E+05
 0.48699997E+02  0.10471E+05
 0.48749996E+02  0.10766E+05
 0.48799995E+02  0.12443E+05
 0.48849998E+02  0.10980E+05
 0.48899998E+02  0.10478E+05
 0.48949997E+02  0.10550E+05
 0.48999996E+02  0.10836E+05
 0.49049995E+02  0.10997E+05
 0.49099998E+02  0.11925E+05
 0.49149998E+02  0.12628E+05
 0.49199997E+02  0.10200E+05
 0.49249996E+02  0.95189E+04
 0.49299995E+02  0.11886E+05
 0.49349998E+02  0.12594E+05
 0.49399998E+02  0.10528E+05
 0.49449997E+02  0.98055E+04
 0.49499996E+02  0.12107E+05
 0.49549995E+02  0.12252E+05
 0.49599998E+02  0.11109E+05
 0.49649998E+02  0.12261E+05
 0.49699997E+02  0.12067E+05
 0.49749996E+02  0.98863E+04
 0.49799995E+02  0.11297E+05
 0.49849998E+02  0.14016E+05
 0.49899998E+02  0.12759E+05
 0.49949997E+02  0.10917E+05
 0.49999996E+02  0.10542E+05
 0.50049995E+02  0.12738E+05
 0.50099998E+02  0.12854E+05
 0.50149998E+02  0.12086E+05
 0.50199997E+02  0.12549E+05
 0.50249996E+02  0.11874E+05
 0.50299995E+02  0.11510E+05
 0.50349998E+02  0.10227E+05
 0.50399998E+02  0.10075E+05
 0.50449997E+02  0.11901E+05
 0.50499996E+02  0.11775E+05
 0.50549995E+02  0.11250E+05
 0.50599998E+02  0.11241E+05
 0.50649998E+02  0.11037E+05
 0.50699997E+02  0.10650E+05
 0.50749996E+02  0.10872E+05
 0.50799995E+02  0.10769E+05
 0.50849998E+02  0.97114E+04
 0.50899998E+02  0.97631E+04
 0.50949997E+02  0.10277E+05
 0.50999996E+02  0.10818E+05
 0.51049995E+02  0.11234E+05
 0.51099998E+02  0.11660E+05
 0.51149998E+02  0.11252E+05
 0.51199997E+02  0.11873E+05
 0.51249996E+02  0.11273E+05
 0.51299995E+02  0.11110E+05
 0.51349998E+02  0.12108E+05
 0.51399998E+02  0.11920E+05
 0.51449997E+02  0.12508E+05
 0.51499996E+02  0.12634E+05
 0.51549995E+02  0.10592E+05
 0.51599998E+02  0.10070E+05
 0.51649998E+02  0.11862E+05
 0.51699997E+02  0.11689E+05
 0.51749996E+02  0.11789E+05
 0.51799995E+02  0.11341E+05
 0.51849998E+02  0.11670E+05
 0.51899998E+02  0.11687E+05
 0.51949997E+02  0.11084E+05
 0.51999996E+02  0.11964E+05
 0.52049995E+02  0.11644E+05
 0.52099998E+02  0.11434E+05
 0.52149998E+02  0.11741E+05
 0.52199997E+02  0.10907E+05
 0.52249996E+02  0.10589E+05
 0.52299995E+02  0.11200E+05
 0.52349998E+02  0.11574E+05
 0.52399998E+02  0.11309E+05
 0.52449997E+02  0.11610E+05
 0.52499996E+02  0.11664E+05
 0.52549995E+02  0.98119E+04
 0.52599998E+02  0.10821E+05
 0.52649998E+02  0.11656E+05
 0.52699997E+02  0.10903E+05
 0.52749996E+02  0.10950E+05
 0.52799995E+02  0.11976E+05
 0.52849998E+02  0.13059E+05
 0.52899998E+02  0.12292E+05
 0.52949997E+02  0.12104E+05
 0.52999996E+02  0.12079E+05
 0.53049995E+02  0.10835E+05
 0.53099998E+02  0.11380E+05
 0.53149998E+02  0.13074E+05
 0.53199997E+02  0.12166E+05
 0.53249996E+02  0.11575E+05
 0.53299995E+02  0.11705E+05
 0.53349998E+02  0.11121E+05
 0.53399998E+02  0.99710E+04
 0.53449997E+02  0.11072E+05
 0.53499996E+02  0.12146E+05
 0.53549995E+02  0.11809E+05
 0.53599998E+02  0.12032E+05
 0.53649998E+02  0.11271E+05
 0.53699997E+02  0.11541E+05
 0.53749996E+02  0.10742E+05
 0.53799995E+02  0.11018E+05
 0.53849998E+02  0.12270E+05
 0.53899998E+02  0.11303E+05
 0.53949997E+02  0.11561E+05
 0.53999996E+02  0.11441E+05
 0.54049995E+02  0.11086E+05
 0.54099998E+02  0.11264E+05
 0.54149998E+02  0.99009E+04
 0.54199997E+02  0.10112E+05
 0.54249996E+02  0.11368E+05
 0.54299995E+02  0.12784E+05
 0.54349998E+02  0.11097E+05
 0.54399998E+02  0.11158E+05
 0.54449997E+02  0.12701E+05
 0.54499996E+02  0.10952E+05
 0.54549995E+02  0.12239E+05
 0.54599998E+02  0.12236E+05
 0.54649998E+02  0.10936E+05
 0.54699997E+02  0.10405E+05
 0.54749996E+02  0.11144E+05
 0.54799995E+02  0.12580E+05
 0.54849998E+02  0.11805E+05
 0.54899998E+02  0.10448E+05
 0.54949997E+02  0.10961E+05
 0.54999996E+02  0.10471E+05
 0.55049995E+02  0.10194E+05
 0.55099998E+02  0.11187E+05
 0.55149998E+02  0.10326E+05
 0.55199997E+02  0.11328E+05
 0.55249996E+02  0.12116E+05
 0.55299995E+02  0.11390E+05
 0.55349998E+02  0.11675E+05
 0.55399998E+02  0.11212E+05
 0.55449997E+02  0.10661E+05
 0.55499996E+02  0.11116E+05
 0.55549995E+02  0.11828E+05
 0.55599998E+02  0.12480E+05
 0.55649998E+02  0.12012E+05
 0.55699997E+02  0.11243E+05
 0.55749996E+02  0.12295E+05
 0.55799995E+02  0.12688E+05
 0.55849995E+02  0.11575E+05
 0.55899998E+02  0.11710E+05
 0.55949997E+02  0.11786E+05
 0.55999996E+02  0.11039E+05
 0.56049995E+02  0.10981E+05
 0.56099995E+02  0.11341E+05
 0.56149998E+02  0.11302E+05
 0.56199997E+02  0.11103E+05
 0.56249996E+02  0.11446E+05
 0.56299995E+02  0.11711E+05
 0.56349995E+02  0.11419E+05
 0.56399998E+02  0.11021E+05
 0.56449997E+02  0.10920E+05
 0.56499996E+02  0.11191E+05
 0.56549995E+02  0.10921E+05
 0.56599995E+02  0.11137E+05
 0.56649998E+02  0.11430E+05
 0.56699997E+02  0.11334E+05
 0.56749996E+02  0.11591E+05
 0.56799995E+02  0.11109E+05
 0.56849995E+02  0.10239E+05
 0.56899998E+02  0.10885E+05
 0.56949997E+02  0.10999E+05
 0.56999996E+02  0.11179E+05
 0.57049995E+02  0.11638E+05
 0.57099995E+02  0.11469E+05
 0.57149998E+02  0.11619E+05
 0.57199997E+02  0.11806E+05
 0.57249996E+02  0.12615E+05
 0.57299995E+02  0.12439E+05
 0.57349995E+02  0.11923E+05
 0.57399998E+02  0.11705E+05
 0.57449997E+02  0.11491E+05
 0.57499996E+02  0.11616E+05
 0.57549995E+02  0.11924E+05
 0.57599995E+02  0.11621E+05
 0.57649998E+02  0.11602E+05
 0.57699997E+02  0.11651E+05
 0.57749996E+02  0.11685E+05
 0.57799995E+02  0.11877E+05
 0.57849995E+02  0.11832E+05
 0.57899998E+02  0.11491E+05
 0.57949997E+02  0.11218E+05
 0.57999996E+02  0.11806E+05
 0.58049995E+02  0.11822E+05
 0.58099995E+02  0.10903E+05
 0.58149998E+02  0.10434E+05
 0.58199997E+02  0.11069E+05
 0.58249996E+02  0.10818E+05
 0.58299995E+02  0.11151E+05
 0.58349995E+02  0.11610E+05
 0.58399998E+02  0.10916E+05
 0.58449997E+02  0.10851E+05
 0.58499996E+02  0.11237E+05
 0.58549995E+02  0.11560E+05
 0.58599995E+02  0.11121E+05
 0.58649998E+02  0.11411E+05
 0.58699997E+02  0.11388E+05
 0.58749996E+02  0.11027E+05
 0.58799995E+02  0.11227E+05
 0.58849995E+02  0.11179E+05
 0.58899998E+02  0.10870E+05
 0.58949997E+02  0.11291E+05
 0.58999996E+02  0.11529E+05
 0.59049995E+02  0.11457E+05
 0.59099995E+02  0.12028E+05
 0.59149998E+02  0.11830E+05
 0.59199997E+02  0.12159E+05
 0.59249996E+02  0.12571E+05
 0.59299995E+02  0.12571E+05
 0.59349995E+02  0.12166E+05
 0.59399998E+02  0.11749E+05
 0.59449997E+02  0.12017E+05
 0.59499996E+02  0.12019E+05
 0.59549995E+02  0.11119E+05
 0.59599995E+02  0.10966E+05
 0.59649998E+02  0.11323E+05
 0.59699997E+02  0.11502E+05
 0.59749996E+02  0.11408E+05
 0.59799995E+02  0.11048E+05
 0.59849995E+02  0.11559E+05
 0.59899998E+02  0.11672E+05
 0.59949997E+02  0.11538E+05
 0.59999996E+02  0.11411E+05
 0.60049995E+02  0.11766E+05
 0.60099995E+02  0.11580E+05
 0.60149998E+02  0.11172E+05
 0.60199997E+02  0.11814E+05
 0.60249996E+02  0.11304E+05
 0.60299995E+02  0.10458E+05
 0.60349995E+02  0.99643E+04
 0.60399998E+02  0.10414E+05
 0.60449997E+02  0.10864E+05
 0.60499996E+02  0.99351E+04
 0.60549995E+02  0.10304E+05
 0.60599995E+02  0.11021E+05
 0.60649998E+02  0.10716E+05
 0.60699997E+02  0.11031E+05
 0.60749996E+02  0.11927E+05
 0.60799995E+02  0.11724E+05
 0.60849995E+02  0.10893E+05
 0.60899998E+02  0.11478E+05
 0.60949997E+02  0.11740E+05
 0.60999996E+02  0.11227E+05
 0.61049995E+02  0.11313E+05
 0.61099995E+02  0.12273E+05
 0.61149998E+02  0.12339E+05
 0.61199997E+02  0.11549E+05
 0.61249996E+02  0.12367E+05
 0.61299995E+02  0.12102E+05
 0.61349995E+02  0.11723E+05
 0.61399998E+02  0.12070E+05
 0.61449997E+02  0.11399E+05
 0.61499996E+02  0.11242E+05
 0.61549995E+02  0.11467E+05
 0.61599995E+02  0.11493E+05
 0.61649998E+02  0.11289E+05
 0.61699997E+02  0.10860E+05
 0.61749996E+02  0.10505E+05
 0.61799995E+02  0.10679E+05
 0.61849995E+02  0.11437E+05
 0.61899998E+02  0.11827E+05
 0.61949997E+02  0.11602E+05
 0.61999996E+02  0.11695E+05
 0.62049995E+02  0.11700E+05
 0.62099998E+02  0.11385E+05
 0.62149994E+02  0.11703E+05
 0.62199997E+02  0.11711E+05
 0.62249992E+02  0.11511E+05
 0.62299995E+02  0.11703E+05
 0.62349998E+02  0.12081E+05
 0.62399994E+02  0.11965E+05
 0.62449997E+02  0.11286E+05
 0.62499992E+02  0.11372E+05
 0.62549995E+02  0.11404E+05
 0.62599998E+02  0.11011E+05
 0.62649994E+02  0.11173E+05
 0.62699997E+02  0.11725E+05
 0.62749992E+02  0.12047E+05
 0.62799995E+02  0.12326E+05
 0.62849998E+02  0.11676E+05
 0.62899994E+02  0.11898E+05
 0.62949997E+02  0.11609E+05
 0.62999992E+02  0.11297E+05
 0.63049995E+02  0.11768E+05
 0.63099998E+02  0.11016E+05
 0.63149994E+02  0.11116E+05
 0.63199997E+02  0.10667E+05
 0.63249992E+02  0.10841E+05
 0.63299995E+02  0.11340E+05
 0.63349998E+02  0.11295E+05
 0.63399994E+02  0.11128E+05
 0.63449997E+02  0.11015E+05
 0.63499992E+02  0.11583E+05
 0.63549995E+02  0.11161E+05
 0.63599998E+02  0.10842E+05
 0.63649994E+02  0.10956E+05
 0.63699997E+02  0.10614E+05
 0.63749992E+02  0.11333E+05
 0.63799995E+02  0.12218E+05
 0.63849998E+02  0.12054E+05
 0.63899994E+02  0.11839E+05
 0.63949997E+02  0.11304E+05
 0.63999992E+02  0.10987E+05
 0.64049995E+02  0.11246E+05
 0.64099998E+02  0.11238E+05
 0.64149994E+02  0.11048E+05
 0.64199997E+02  0.11020E+05
 0.64249992E+02  0.11801E+05
 0.64299995E+02  0.12155E+05
 0.64349998E+02  0.11906E+05
 0.64399994E+02  0.11671E+05
 0.64449997E+02  0.11201E+05
 0.64499992E+02  0.11524E+05
 0.64549995E+02  0.11877E+05
 0.64599998E+02  0.11881E+05
 0.64649994E+02  0.11949E+05
 0.64699997E+02  0.12030E+05
 0.64749992E+02  0.12007E+05
 0.64799995E+02  0.12215E+05
 0.64849998E+02  0.12002E+05
 0.64899994E+02  0.11450E+05
 0.64949997E+02  0.11274E+05
 0.64999992E+02  0.10995E+05
 0.65049995E+02  0.11435E+05
 0.65099998E+02  0.11244E+05
 0.65149994E+02  0.10683E+05
 0.65199997E+02  0.10815E+05
 0.65249992E+02  0.10912E+05
 0.65299995E+02  0.11817E+05
 0.65349998E+02  0.11732E+05
 0.65399994E+02  0.10886E+05
 0.65449997E+02  0.11025E+05
 0.65499992E+02  0.10893E+05
 0.65549995E+02  0.11227E+05
 0.65599998E+02  0.11968E+05
 0.65649994E+02  0.11355E+05
 0.65699997E+02  0.10697E+05
 0.65749992E+02  0.10892E+05
 0.65799995E+02  0.11530E+05
 0.65849998E+02  0.11647E+05
 0.65899994E+02  0.11209E+05
 0.65949997E+02  0.11238E+05
 0.65999992E+02  0.11490E+05
 0.66049995E+02  0.11755E+05
 0.66099998E+02  0.11227E+05
 0.66149994E+02  0.10891E+05
 0.66199997E+02  0.10912E+05
 0.66249992E+02  0.11147E+05
 0.66299995E+02  0.11547E+05
 0.66349998E+02  0.11416E+05
 0.66399994E+02  0.11150E+05
 0.66449997E+02  0.10876E+05
 0.66499992E+02  0.11003E+05
 0.66549995E+02  0.11591E+05
 0.66599998E+02  0.11552E+05
 0.66649994E+02  0.10929E+05
 0.66699997E+02  0.11424E+05
 0.66749992E+02  0.11960E+05
 0.66799995E+02  0.11696E+05
 0.66849998E+02  0.11279E+05
 0.66899994E+02  0.11774E+05
 0.66949997E+02  0.11883E+05
 0.66999992E+02  0.10739E+05
 0.67049995E+02  0.11160E+05
 0.67099998E+02  0.11324E+05
 0.67149994E+02  0.10606E+05
 0.67199997E+02  0.11049E+05
 0.67249992E+02  0.11468E+05
 0.67299995E+02  0.11989E+05
 0.67349998E+02  0.12001E+05
 0.67399994E+02  0.11407E+05
 0.67449997E+02  0.11602E+05
 0.67499992E+02  0.11679E+05
 0.67549995E+02  0.11378E+05
 0.67599998E+02  0.11455E+05
 0.67649994E+02  0.11726E+05
 0.67699997E+02  0.11594E+05
 0.67749992E+02  0.11523E+05
 0.67799995E+02  0.11315E+05
 0.67849998E+02  0.11325E+05
 0.67899994E+02  0.11715E+05
 0.67949997E+02  0.11669E+05
 0.67999992E+02  0.11484E+05
 0.68049995E+02  0.11344E+05
 0.68099998E+02  0.11499E+05
 0.68149994E+02  0.11478E+05
 0.68199997E+02  0.11638E+05
 0.68249992E+02  0.11472E+05
 0.68299995E+02  0.11397E+05
 0.68349998E+02  0.11615E+05
 0.68399994E+02  0.11147E+05
 0.68449997E+02  0.11081E+05
 0.68499992E+02  0.11108E+05
 0.68549995E+02  0.11353E+05
 0.68599998E+02  0.11631E+05
 0.68649994E+02  0.12024E+05
 0.68699997E+02  0.12341E+05
 0.68749992E+02  0.12178E+05
 0.68799995E+02  0.11682E+05
 0.68849998E+02  0.11454E+05
 0.68899994E+02  0.11601E+05
 0.68949997E+02  0.11108E+05
 0.68999992E+02  0.10697E+05
 0.69049995E+02  0.11245E+05
 0.69099998E+02  0.11872E+05
 0.69149994E+02  0.11882E+05
 0.69199997E+02  0.11362E+05
 0.69249992E+02  0.11174E+05
 0.69299995E+02  0.11277E+05
 0.69349998E+02  0.10810E+05
 0.69399994E+02  0.11095E+05
 0.69449997E+02  0.11420E+05
 0.69499992E+02  0.11132E+05
 0.69549995E+02  0.11138E+05
 0.69599998E+02  0.12144E+05
 0.69649994E+02  0.12465E+05
 0.69699997E+02  0.12045E+05
 0.69749992E+02  0.12067E+05
 0.69799995E+02  0.11525E+05
 0.69849998E+02  0.11592E+05
 0.69899994E+02  0.11491E+05
 0.69949997E+02  0.11327E+05
 0.69999992E+02  0.11332E+05
 0.70049995E+02  0.11204E+05
 0.70099998E+02  0.11330E+05
 0.70149994E+02  0.11040E+05
 0.70199997E+02  0.10853E+05
 0.70249992E+02  0.10903E+05
 0.70299995E+02  0.10914E+05
 0.70349998E+02  0.10649E+05
 0.70399994E+02  0.11083E+05
 0.70449997E+02  0.11134E+05
 0.70499992E+02  0.10877E+05
 0.70549995E+02  0.11382E+05
 0.70599998E+02  0.11510E+05
 0.70649994E+02  0.11231E+05
 0.70699997E+02  0.11265E+05
 0.70749992E+02  0.11911E+05
 0.70799995E+02  0.11628E+05
 0.70849998E+02  0.11392E+05
 0.70899994E+02  0.11772E+05
 0.70949997E+02  0.11532E+05
 0.70999992E+02  0.11770E+05
 0.71049995E+02  0.11977E+05
 0.71099998E+02  0.11587E+05
 0.71149994E+02  0.11398E+05
 0.71199997E+02  0.11305E+05
 0.71249992E+02  0.11402E+05
 0.71299995E+02  0.11292E+05
 0.71349998E+02  0.11259E+05
 0.71399994E+02  0.11094E+05
 0.71449997E+02  0.11282E+05
 0.71499992E+02  0.11389E+05
 0.71549995E+02  0.11027E+05
 0.71599998E+02  0.11583E+05
 0.71649994E+02  0.11521E+05
 0.71699997E+02  0.11468E+05
 0.71749992E+02  0.11785E+05
 0.71799995E+02  0.11707E+05
 0.71849998E+02  0.11713E+05
 0.71899994E+02  0.11681E+05
 0.71949997E+02  0.11345E+05
 0.71999992E+02  0.11291E+05
 0.72049995E+02  0.11454E+05
 0.72099998E+02  0.11231E+05
 0.72149994E+02  0.11394E+05
 0.72199997E+02  0.11236E+05
 0.72249992E+02  0.11145E+05
 0.72299995E+02  0.11094E+05
 0.72349998E+02  0.10985E+05
 0.72399994E+02  0.11313E+05
 0.72449997E+02  0.11412E+05
 0.72499992E+02  0.11596E+05
 0.72549995E+02  0.11507E+05
 0.72599998E+02  0.11431E+05
 0.72649994E+02  0.11366E+05
 0.72699997E+02  0.11325E+05
 0.72749992E+02  0.11363E+05
 0.72799995E+02  0.11458E+05
 0.72849998E+02  0.11399E+05
 0.72899994E+02  0.11455E+05
 0.72949997E+02  0.11540E+05
 0.72999992E+02  0.11280E+05
 0.73049995E+02  0.11905E+05
 0.73099998E+02  0.11739E+05
 0.73149994E+02  0.11342E+05
 0.73199997E+02  0.11450E+05
 0.73249992E+02  0.11522E+05
 0.73299995E+02  0.11583E+05
 0.73349998E+02  0.11412E+05
 0.73399994E+02  0.11384E+05
 0.73449997E+02  0.11249E+05
 0.73499992E+02  0.10876E+05
 0.73549995E+02  0.11056E+05
 0.73599998E+02  0.11749E+05
 0.73649994E+02  0.11444E+05
 0.73699997E+02  0.11137E+05
 0.73749992E+02  0.11073E+05
 0.73799995E+02  0.11323E+05
 0.73849998E+02  0.11430E+05
 0.73899994E+02  0.11406E+05
 0.73949997E+02  0.11616E+05
 0.73999992E+02  0.11359E+05
 0.74049995E+02  0.10996E+05
 0.74099998E+02  0.10964E+05
 0.74149994E+02  0.11290E+05
 0.74199997E+02  0.11282E+05
 0.74249992E+02  0.11554E+05
 0.74299995E+02  0.11730E+05
 0.74349998E+02  0.11822E+05
 0.74399994E+02  0.11968E+05
 0.74449997E+02  0.11718E+05
 0.74499992E+02  0.11899E+05
 0.74549995E+02  0.12136E+05
 0.74599998E+02  0.11910E+05
 0.74649994E+02  0.11659E+05
 0.74699997E+02  0.11742E+05
 0.74749992E+02  0.11598E+05
 0.74799995E+02  0.11575E+05
 0.74849998E+02  0.11402E+05
 0.74899994E+02  0.11381E+05
 0.74949997E+02  0.11577E+05
 0.74999992E+02  0.11349E+05
 0.75049995E+02  0.11372E+05
 0.75099998E+02  0.11535E+05
 0.75149994E+02  0.11456E+05
 0.75199997E+02  0.11378E+05
 0.75249992E+02  0.11350E+05
 0.75299995E+02  0.10999E+05
 0.75349998E+02  0.11202E+05
 0.75399994E+02  0.11383E+05
 0.75449997E+02  0.11271E+05
 0.75499992E+02  0.11465E+05
 0.75549995E+02  0.11655E+05
 0.75599998E+02  0.11430E+05
 0.75649994E+02  0.11216E+05
 0.75699997E+02  0.11385E+05
 0.75749992E+02  0.11581E+05
 0.75799995E+02  0.11545E+05
 0.75849998E+02  0.11189E+05
 0.75899994E+02  0.11352E+05
 0.75949997E+02  0.11607E+05
 0.75999992E+02  0.11589E+05
 0.76049995E+02  0.11699E+05
 0.76099998E+02  0.11708E+05
 0.76149994E+02  0.11818E+05
 0.76199997E+02  0.11788E+05
 0.76249992E+02  0.11441E+05
 0.76299995E+02  0.11440E+05
 0.76349998E+02  0.11431E+05
 0.76399994E+02  0.11238E+05
 0.76449997E+02  0.10945E+05
 0.76499992E+02  0.10827E+05
 0.76549995E+02  0.10833E+05
 0.76599998E+02  0.10843E+05
 0.76649994E+02  0.11013E+05
 0.76699997E+02  0.11069E+05
 0.76749992E+02  0.11145E+05
 0.76799995E+02  0.10884E+05
 0.76849998E+02  0.10961E+05
 0.76899994E+02  0.11090E+05
 0.76949997E+02  0.11101E+05
 0.76999992E+02  0.11362E+05
 0.77049995E+02  0.11379E+05
 0.77099998E+02  0.11490E+05
 0.77149994E+02  0.11529E+05
 0.77199997E+02  0.11707E+05
 0.77249992E+02  0.11846E+05
 0.77299995E+02  0.11624E+05
 0.77349998E+02  0.11653E+05
 0.77399994E+02  0.11485E+05
 0.77449997E+02  0.11490E+05
 0.77499992E+02  0.11734E+05
 0.77549995E+02  0.11440E+05
 0.77599998E+02  0.11549E+05
 0.77649994E+02  0.11620E+05
 0.77699997E+02  0.11499E+05
 0.77749992E+02  0.11443E+05
 0.77799995E+02  0.11192E+05
 0.77849998E+02  0.11138E+05
 0.77899994E+02  0.11244E+05
 0.77949997E+02  0.11443E+05
 0.77999992E+02  0.11216E+05
 0.78049995E+02  0.11155E+05
 0.78099998E+02  0.11277E+05
 0.78149994E+02  0.11091E+05
 0.78199997E+02  0.11201E+05
 0.78249992E+02  0.11284E+05
 0.78299995E+02  0.11262E+05
 0.78349998E+02  0.11306E+05
 0.78399994E+02  0.11305E+05
 0.78449997E+02  0.11311E+05
 0.78499992E+02  0.11233E+05
 0.78549995E+02  0.11297E+05
 0.78599998E+02  0.11489E+05
 0.78649994E+02  0.11553E+05
 0.78699997E+02  0.11832E+05
 0.78749992E+02  0.11779E+05
 0.78799995E+02  0.11619E+05
 0.78849998E+02  0.11948E+05
 0.78899994E+02  0.11978E+05
 0.78949997E+02  0.11625E+05
 0.78999992E+02  0.11572E+05
 0.79049995E+02  0.11889E+05
 0.79099998E+02  0.11957E+05
 0.79149994E+02  0.11874E+05
 0.79199997E+02  0.11838E+05
 0.79249992E+02  0.11501E+05
 0.79299995E+02  0.11319E+05
 0.79349998E+02  0.11493E+05
 0.79399994E+02  0.11185E+05
 0.79449997E+02  0.10971E+05
 0.79499992E+02  0.11063E+05
 0.79549995E+02  0.11286E+05
 0.79599998E+02  0.11483E+05
 0.79649994E+02  0.11519E+05
 0.79699997E+02  0.11469E+05
 0.79749992E+02  0.11301E+05
 0.79799995E+02  0.11386E+05
 0.79849998E+02  0.11238E+05
 0.79899994E+02  0.11220E+05
 0.79949997E+02  0.11172E+05
 0.79999992E+02  0.11304E+05
 0.80049995E+02  0.11556E+05
 0.80099998E+02  0.11497E+05
 0.80149994E+02  0.11468E+05
 0.80199997E+02  0.11619E+05
 0.80249992E+02  0.11813E+05
 0.80299995E+02  0.11614E+05
 0.80349998E+02  0.11514E+05
 0.80399994E+02  0.11469E+05
 0.80449997E+02  0.11353E+05
 0.80499992E+02  0.11339E+05
 0.80549995E+02  0.11663E+05
 0.80599998E+02  0.11641E+05
 0.80649994E+02  0.11418E+05
 0.80699997E+02  0.11658E+05
 0.80749992E+02  0.11577E+05
 0.80799995E+02  0.11335E+05
 0.80849998E+02  0.11303E+05
 0.80899994E+02  0.11222E+05
 0.80949997E+02  0.11107E+05
 0.80999992E+02  0.11155E+05
 0.81049995E+02  0.11481E+05
 0.81099998E+02  0.11447E+05
 0.81149994E+02  0.11458E+05
 0.81199997E+02  0.11850E+05
 0.81249992E+02  0.11617E+05
 0.81299995E+02  0.11246E+05
 0.81349998E+02  0.11143E+05
 0.81399994E+02  0.11240E+05
 0.81449997E+02  0.11386E+05
 0.81499992E+02  0.11440E+05
 0.81549995E+02  0.11695E+05
 0.81599998E+02  0.11439E+05
 0.81649994E+02  0.11095E+05
 0.81699997E+02  0.11270E+05
 0.81749992E+02  0.11307E+05
 0.81799995E+02  0.11246E+05
 0.81849998E+02  0.11268E+05
 0.81899994E+02  0.11376E+05
 0.81949997E+02  0.11160E+05
 0.81999992E+02  0.11367E+05
 0.82049995E+02  0.11748E+05
 0.82099998E+02  0.11470E+05
 0.82149994E+02  0.11434E+05
 0.82199997E+02  0.11577E+05
 0.82249992E+02  0.11543E+05
 0.82299995E+02  0.11356E+05
 0.82349998E+02  0.11274E+05
 0.82399994E+02  0.11195E+05
 0.82449997E+02  0.11076E+05
 0.82499992E+02  0.11020E+05
 0.82549995E+02  0.11083E+05
 0.82599998E+02  0.11208E+05
 0.82649994E+02  0.11149E+05
 0.82699997E+02  0.11345E+05
 0.82749992E+02  0.11447E+05
 0.82799995E+02  0.11490E+05
 0.82849998E+02  0.11467E+05
 0.82899994E+02  0.11367E+05
 0.82949997E+02  0.11360E+05
 0.82999992E+02  0.11432E+05
 0.83049995E+02  0.11738E+05
 0.83099998E+02  0.11716E+05
 0.83149994E+02  0.11754E+05
 0.83199997E+02  0.11744E+05
 0.83249992E+02  0.11601E+05
 0.83299995E+02  0.11605E+05
 0.83349998E+02  0.11532E+05
 0.83399994E+02  0.11450E+05
 0.83449997E+02  0.11211E+05
 0.83499992E+02  0.11085E+05
 0.83549995E+02  0.11259E+05
 0.83599998E+02  0.11215E+05
 0.83649994E+02  0.11109E+05
 0.83699997E+02  0.11233E+05
 0.83749992E+02  0.11295E+05
 0.83799995E+02  0.11218E+05
 0.83849998E+02  0.11162E+05
 0.83899994E+02  0.11195E+05
 0.83949997E+02  0.11083E+05
 0.83999992E+02  0.10924E+05
 0.84049995E+02  0.11140E+05
 0.84099998E+02  0.11532E+05
 0.84149994E+02  0.11721E+05
 0.84199997E+02  0.11755E+05
 0.84249992E+02  0.11703E+05
 0.84299995E+02  0.11514E+05
 0.84349998E+02  0.11588E+05
 0.84399994E+02  0.11629E+05
 0.84449997E+02  0.11356E+05
 0.84499992E+02  0.11274E+05
 0.84549995E+02  0.11221E+05
 0.84599998E+02  0.11373E+05
 0.84649994E+02  0.11392E+05
 0.84699997E+02  0.11413E+05
 0.84749992E+02  0.11684E+05
 0.84799995E+02  0.11522E+05
 0.84849998E+02  0.11316E+05
 0.84899994E+02  0.11620E+05
 0.84949997E+02  0.11728E+05
 0.84999992E+02  0.11508E+05
 0.85049995E+02  0.11621E+05
 0.85099998E+02  0.11623E+05
 0.85149994E+02  0.11349E+05
 0.85199997E+02  0.11221E+05
 0.85249992E+02  0.11202E+05
 0.85299995E+02  0.11212E+05
 0.85349998E+02  0.11399E+05
 0.85399994E+02  0.11557E+05
 0.85449997E+02  0.11664E+05
 0.85499992E+02  0.11754E+05
 0.85549995E+02  0.11785E+05
 0.85599998E+02  0.11935E+05
 0.85649994E+02  0.11774E+05
 0.85699997E+02  0.11464E+05
 0.85749992E+02  0.11431E+05
 0.85799995E+02  0.11469E+05
 0.85849998E+02  0.11381E+05
 0.85899994E+02  0.11251E+05
 0.85949997E+02  0.11301E+05
 0.85999992E+02  0.11346E+05
 0.86049995E+02  0.11364E+05
 0.86099998E+02  0.11423E+05
 0.86149994E+02  0.11537E+05
 0.86199997E+02  0.11680E+05
 0.86249992E+02  0.11582E+05
 0.86299995E+02  0.11411E+05
 0.86349998E+02  0.11291E+05
 0.86399994E+02  0.11216E+05
 0.86449997E+02  0.11206E+05
 0.86499992E+02  0.11427E+05
 0.86549995E+02  0.11589E+05
 0.86599998E+02  0.11480E+05
 0.86649994E+02  0.11460E+05
 0.86699997E+02  0.11310E+05
 0.86749992E+02  0.11432E+05
 0.86799995E+02  0.11354E+05
 0.86849998E+02  0.11135E+05
 0.86899994E+02  0.11206E+05
 0.86949997E+02  0.11241E+05
 0.86999992E+02  0.11375E+05
 0.87049995E+02  0.11443E+05
 0.87099998E+02  0.11572E+05
 0.87149994E+02  0.11431E+05
 0.87199997E+02  0.11297E+05
 0.87249992E+02  0.11429E+05
 0.87299995E+02  0.11489E+05
 0.87349998E+02  0.11394E+05
 0.87399994E+02  0.11275E+05
 0.87449997E+02  0.11384E+05
 0.87499992E+02  0.11569E+05
 0.87549995E+02  0.11512E+05
 0.87599991E+02  0.11302E+05
 0.87649994E+02  0.11173E+05
 0.87699997E+02  0.11136E+05
 0.87749992E+02  0.11246E+05
 0.87799995E+02  0.11286E+05
 0.87849991E+02  0.11343E+05
 0.87899994E+02  0.11306E+05
 0.87949997E+02  0.11129E+05
 0.87999992E+02  0.11183E+05
 0.88049995E+02  0.11169E+05
 0.88099991E+02  0.11384E+05
 0.88149994E+02  0.11437E+05
 0.88199997E+02  0.11361E+05
 0.88249992E+02  0.11603E+05
 0.88299995E+02  0.11623E+05
 0.88349991E+02  0.11495E+05
 0.88399994E+02  0.11222E+05
 0.88449997E+02  0.11359E+05
 0.88499992E+02  0.11663E+05
 0.88549995E+02  0.11662E+05
 0.88599991E+02  0.11591E+05
 0.88649994E+02  0.11572E+05
 0.88699997E+02  0.11596E+05
 0.88749992E+02  0.11635E+05
 0.88799995E+02  0.11629E+05
 0.88849991E+02  0.11584E+05
 0.88899994E+02  0.11507E+05
 0.88949997E+02  0.11537E+05
 0.88999992E+02  0.11748E+05
 0.89049995E+02  0.11690E+05
 0.89099991E+02  0.11563E+05
 0.89149994E+02  0.11528E+05
 0.89199997E+02  0.11520E+05
 0.89249992E+02  0.11523E+05
 0.89299995E+02  0.11507E+05
 0.89349991E+02  0.11434E+05
 0.89399994E+02  0.11318E+05
 0.89449997E+02  0.11239E+05
 0.89499992E+02  0.11369E+05
 0.89549995E+02  0.11443E+05
 0.89599991E+02  0.11211E+05
 0.89649994E+02  0.11138E+05
 0.89699997E+02  0.11437E+05
 0.89749992E+02  0.11486E+05
 0.89799995E+02  0.11266E+05
 0.89849991E+02  0.11297E+05
 0.89899994E+02  0.11236E+05
 0.89949997E+02  0.11155E+05
 0.89999992E+02  0.11239E+05
 0.90049995E+02  0.11278E+05
 0.90099991E+02  0.11216E+05
 0.90149994E+02  0.11303E+05
 0.90199997E+02  0.11583E+05
 0.90249992E+02  0.11489E+05
 0.90299995E+02  0.11414E+05
 0.90349991E+02  0.11519E+05
 0.90399994E+02  0.11436E+05
 0.90449997E+02  0.11361E+05
 0.90499992E+02  0.11412E+05
 0.90549995E+02  0.11499E+05
 0.90599991E+02  0.11500E+05
 0.90649994E+02  0.11408E+05
 0.90699997E+02  0.11494E+05
 0.90749992E+02  0.11610E+05
 0.90799995E+02  0.11369E+05
 0.90849991E+02  0.11454E+05
 0.90899994E+02  0.11607E+05
 0.90949997E+02  0.11521E+05
 0.90999992E+02  0.11454E+05
 0.91049995E+02  0.11429E+05
 0.91099991E+02  0.11439E+05
 0.91149994E+02  0.11518E+05
 0.91199997E+02  0.11373E+05
 0.91249992E+02  0.11132E+05
 0.91299995E+02  0.11145E+05
 0.91349991E+02  0.11091E+05
 0.91399994E+02  0.11240E+05
 0.91449997E+02  0.11420E+05
 0.91499992E+02  0.11464E+05
 0.91549995E+02  0.11445E+05
 0.91599991E+02  0.11390E+05
 0.91649994E+02  0.11445E+05
 0.91699997E+02  0.11575E+05
 0.91749992E+02  0.11533E+05
 0.91799995E+02  0.11394E+05
 0.91849991E+02  0.11400E+05
 0.91899994E+02  0.11572E+05
 0.91949997E+02  0.11643E+05
 0.91999992E+02  0.11589E+05
 0.92049995E+02  0.11515E+05
 0.92099991E+02  0.11369E+05
 0.92149994E+02  0.11340E+05
 0.92199997E+02  0.11385E+05
 0.92249992E+02  0.11349E+05
 0.92299995E+02  0.11200E+05
 0.92349991E+02  0.11149E+05
 0.92399994E+02  0.11195E+05
 0.92449997E+02  0.11228E+05
 0.92499992E+02  0.11201E+05
 0.92549995E+02  0.11285E+05
 0.92599991E+02  0.11337E+05
 0.92649994E+02  0.11299E+05
 0.92699997E+02  0.11493E+05
 0.92749992E+02  0.11756E+05
 0.92799995E+02  0.11716E+05
 0.92849991E+02  0.11510E+05
 0.92899994E+02  0.11406E+05
 0.92949997E+02  0.11407E+05
 0.92999992E+02  0.11319E+05
 0.93049995E+02  0.11378E+05
 0.93099991E+02  0.11630E+05
 0.93149994E+02  0.11571E+05
 0.93199997E+02  0.11489E+05
 0.93249992E+02  0.11540E+05
 0.93299995E+02  0.11583E+05
 0.93349991E+02  0.11480E+05
 0.93399994E+02  0.11413E+05
 0.93449997E+02  0.11484E+05
 0.93499992E+02  0.11556E+05
 0.93549995E+02  0.11695E+05
 0.93599991E+02  0.11627E+05
 0.93649994E+02  0.11571E+05
 0.93699997E+02  0.11519E+05
 0.93749992E+02  0.11211E+05
 0.93799995E+02  0.11175E+05
 0.93849991E+02  0.11323E+05
 0.93899994E+02  0.11295E+05
 0.93949997E+02  0.11234E+05
 0.93999992E+02  0.11176E+05
 0.94049995E+02  0.11171E+05
 0.94099991E+02  0.11301E+05
 0.94149994E+02  0.11464E+05
 0.94199997E+02  0.11432E+05
 0.94249992E+02  0.11402E+05
 0.94299995E+02  0.11352E+05
 0.94349991E+02  0.11265E+05
 0.94399994E+02  0.11277E+05
 0.94449997E+02  0.11340E+05
 0.94499992E+02  0.11370E+05
 0.94549995E+02  0.11252E+05
 0.94599991E+02  0.11346E+05
 0.94649994E+02  0.11361E+05
 0.94699997E+02  0.11232E+05
 0.94749992E+02  0.11334E+05
 0.94799995E+02  0.11397E+05
 0.94849991E+02  0.11343E+05
 0.94899994E+02  0.11387E+05
 0.94949997E+02  0.11399E+05
 0.94999992E+02  0.11352E+05
 0.95049995E+02  0.11382E+05
 0.95099991E+02  0.11395E+05
 0.95149994E+02  0.11309E+05
 0.95199997E+02  0.11199E+05
 0.95249992E+02  0.11404E+05
 0.95299995E+02  0.11587E+05
 0.95349991E+02  0.11550E+05
 0.95399994E+02  0.11518E+05
 0.95449997E+02  0.11430E+05
 0.95499992E+02  0.11269E+05
 0.95549995E+02  0.11303E+05
 0.95599991E+02  0.11611E+05
 0.95649994E+02  0.11736E+05
 0.95699997E+02  0.11586E+05
 0.95749992E+02  0.11453E+05
 0.95799995E+02  0.11428E+05
 0.95849991E+02  0.11315E+05
 0.95899994E+02  0.11206E+05
 0.95949997E+02  0.11249E+05
 0.95999992E+02  0.11245E+05
 0.96049995E+02  0.11167E+05
 0.96099991E+02  0.11375E+05
 0.96149994E+02  0.11635E+05
 0.96199997E+02  0.11660E+05
 0.96249992E+02  0.11602E+05
 0.96299995E+02  0.11611E+05
 0.96349991E+02  0.11612E+05
 0.96399994E+02  0.11464E+05
 0.96449997E+02  0.11467E+05
 0.96499992E+02  0.11501E+05
 0.96549995E+02  0.11424E+05
 0.96599991E+02  0.11562E+05
 0.96649994E+02  0.11709E+05
 0.96699997E+02  0.11598E+05
 0.96749992E+02  0.11541E+05
 0.96799995E+02  0.11387E+05
 0.96849991E+02  0.11326E+05
 0.96899994E+02  0.11314E+05
 0.96949997E+02  0.11186E+05
 0.96999992E+02  0.11362E+05
 0.97049995E+02  0.11415E+05
 0.97099991E+02  0.11410E+05
 0.97149994E+02  0.11515E+05
 0.97199997E+02  0.11529E+05
 0.97249992E+02  0.11536E+05
 0.97299995E+02  0.11516E+05
 0.97349991E+02  0.11401E+05
 0.97399994E+02  0.11314E+05
 0.97449997E+02  0.11375E+05
 0.97499992E+02  0.11413E+05
 0.97549995E+02  0.11390E+05
 0.97599991E+02  0.11503E+05
 0.97649994E+02  0.11531E+05
 0.97699997E+02  0.11388E+05
 0.97749992E+02  0.11383E+05
 0.97799995E+02  0.11363E+05
 0.97849991E+02  0.11323E+05
 0.97899994E+02  0.11295E+05
 0.97949997E+02  0.11307E+05
 0.97999992E+02  0.11428E+05
