-0.20000000E+01 -0.14972E+05
-0.19500000E+01 -0.14836E+05
-0.19000000E+01 -0.14905E+05
-0.18500000E+01 -0.14896E+05
-0.18000000E+01 -0.14912E+05
-0.17500000E+01 -0.14952E+05
-0.17000000E+01 -0.14955E+05
-0.16500001E+01 -0.14951E+05
-0.16000000E+01 -0.14962E+05
-0.15500000E+01 -0.14977E+05
-0.15000000E+01 -0.14993E+05
-0.14500000E+01 -0.14956E+05
-0.14000001E+01 -0.14971E+05
-0.13500000E+01 -0.15057E+05
-0.13000001E+01 -0.15103E+05
-0.12500000E+01 -0.15109E+05
-0.12000000E+01 -0.15119E+05
-0.11500001E+01 -0.15106E+05
-0.11000000E+01 -0.15097E+05
-0.10500001E+01 -0.15092E+05
-0.10000000E+01 -0.15081E+05
-0.95000005E+00 -0.15096E+05
-0.90000010E+00 -0.15074E+05
-0.85000002E+00 -0.15017E+05
-0.80000007E+00 -0.14971E+05
-0.75000012E+00 -0.15007E+05
-0.70000005E+00 -0.15015E+05
-0.65000010E+00 -0.15004E+05
-0.60000014E+00 -0.15044E+05
-0.55000007E+00 -0.15062E+05
-0.50000012E+00 -0.15054E+05
-0.45000005E+00 -0.15049E+05
-0.40000010E+00 -0.15015E+05
-0.35000014E+00 -0.15016E+05
-0.30000007E+00 -0.14988E+05
-0.25000012E+00 -0.14953E+05
-0.20000005E+00 -0.14963E+05
-0.15000010E+00 -0.14978E+05
-0.10000014E+00 -0.14962E+05
-0.50000072E-01 -0.14975E+05
-0.11920929E-06 -0.15004E+05
 0.49999952E-01 -0.15010E+05
 0.99999905E-01 -0.15028E+05
 0.14999986E+00 -0.15049E+05
 0.19999981E+00 -0.15042E+05
 0.24999976E+00 -0.14992E+05
 0.29999995E+00 -0.14986E+05
 0.34999990E+00 -0.14970E+05
 0.39999986E+00 -0.14972E+05
 0.44999981E+00 -0.14959E+05
 0.49999976E+00 -0.14940E+05
 0.54999995E+00 -0.14933E+05
 0.59999990E+00 -0.14947E+05
 0.64999986E+00 -0.14945E+05
 0.69999981E+00 -0.14946E+05
 0.74999976E+00 -0.14971E+05
 0.79999971E+00 -0.14981E+05
 0.84999990E+00 -0.14967E+05
 0.89999986E+00 -0.14956E+05
 0.94999981E+00 -0.14983E+05
 0.99999976E+00 -0.14979E+05
 0.10499997E+01 -0.14999E+05
 0.10999999E+01 -0.15017E+05
 0.11499999E+01 -0.15044E+05
 0.11999998E+01 -0.15101E+05
 0.12499998E+01 -0.15157E+05
 0.12999997E+01 -0.15197E+05
 0.13499999E+01 -0.15194E+05
 0.13999999E+01 -0.15194E+05
 0.14499998E+01 -0.15212E+05
 0.14999998E+01 -0.15239E+05
 0.15499997E+01 -0.15247E+05
 0.15999999E+01 -0.15222E+05
 0.16499999E+01 -0.15190E+05
 0.16999998E+01 -0.15173E+05
 0.17499998E+01 -0.15149E+05
 0.17999997E+01 -0.15142E+05
 0.18499997E+01 -0.15152E+05
 0.18999999E+01 -0.15135E+05
 0.19499998E+01 -0.15093E+05
 0.19999998E+01 -0.15012E+05
 0.20499997E+01 -0.14962E+05
 0.20999999E+01 -0.14912E+05
 0.21499996E+01 -0.14853E+05
 0.21999998E+01 -0.14833E+05
 0.22499995E+01 -0.14823E+05
 0.22999997E+01 -0.14814E+05
 0.23499999E+01 -0.14789E+05
 0.23999996E+01 -0.14835E+05
 0.24499998E+01 -0.14870E+05
 0.24999995E+01 -0.14891E+05
 0.25499997E+01 -0.14898E+05
 0.25999999E+01 -0.14897E+05
 0.26499996E+01 -0.14935E+05
 0.26999998E+01 -0.14943E+05
 0.27499995E+01 -0.14960E+05
 0.27999997E+01 -0.15003E+05
 0.28499999E+01 -0.15011E+05
 0.28999996E+01 -0.15017E+05
 0.29499998E+01 -0.15023E+05
 0.29999995E+01 -0.15019E+05
 0.30499997E+01 -0.15042E+05
 0.30999999E+01 -0.15021E+05
 0.31499996E+01 -0.15007E+05
 0.31999998E+01 -0.15007E+05
 0.32499995E+01 -0.14975E+05
 0.32999997E+01 -0.14987E+05
 0.33499999E+01 -0.15002E+05
 0.33999996E+01 -0.15001E+05
 0.34499998E+01 -0.14994E+05
 0.34999995E+01 -0.14993E+05
 0.35499997E+01 -0.15032E+05
 0.35999994E+01 -0.15029E+05
 0.36499996E+01 -0.15027E+05
 0.36999998E+01 -0.15060E+05
 0.37499995E+01 -0.15076E+05
 0.37999997E+01 -0.15091E+05
 0.38499994E+01 -0.15096E+05
 0.38999996E+01 -0.15116E+05
 0.39499998E+01 -0.15117E+05
 0.39999995E+01 -0.15114E+05
 0.40499997E+01 -0.15146E+05
 0.40999994E+01 -0.15174E+05
 0.41499996E+01 -0.15150E+05
 0.41999998E+01 -0.15153E+05
 0.42499995E+01 -0.15186E+05
 0.42999997E+01 -0.15171E+05
 0.43499994E+01 -0.15116E+05
 0.43999996E+01 -0.15084E+05
 0.44499998E+01 -0.15066E+05
 0.44999995E+01 -0.15049E+05
 0.45499997E+01 -0.15070E+05
 0.45999994E+01 -0.15088E+05
 0.46499996E+01 -0.15079E+05
 0.46999998E+01 -0.15046E+05
 0.47499995E+01 -0.15020E+05
 0.47999997E+01 -0.14981E+05
 0.48499994E+01 -0.14999E+05
 0.48999996E+01 -0.15030E+05
 0.49499998E+01 -0.14999E+05
 0.49999995E+01 -0.14993E+05
 0.50499997E+01 -0.14977E+05
 0.50999994E+01 -0.14931E+05
 0.51499996E+01 -0.14927E+05
 0.51999998E+01 -0.14903E+05
 0.52499995E+01 -0.14855E+05
 0.52999997E+01 -0.14848E+05
 0.53499994E+01 -0.14853E+05
 0.53999996E+01 -0.14879E+05
 0.54499993E+01 -0.14890E+05
 0.54999995E+01 -0.14880E+05
 0.55499997E+01 -0.14924E+05
 0.55999994E+01 -0.14966E+05
 0.56499996E+01 -0.14976E+05
 0.56999993E+01 -0.15006E+05
 0.57499995E+01 -0.15048E+05
 0.57999997E+01 -0.15076E+05
 0.58499994E+01 -0.15055E+05
 0.58999996E+01 -0.15028E+05
 0.59499993E+01 -0.15051E+05
 0.59999995E+01 -0.15072E+05
 0.60499992E+01 -0.15073E+05
 0.60999994E+01 -0.15060E+05
 0.61499996E+01 -0.15084E+05
 0.61999998E+01 -0.15086E+05
 0.62499990E+01 -0.15078E+05
 0.62999992E+01 -0.15092E+05
 0.63499994E+01 -0.15086E+05
 0.63999996E+01 -0.15081E+05
 0.64499998E+01 -0.15065E+05
 0.64999990E+01 -0.15055E+05
 0.65499992E+01 -0.15061E+05
 0.65999994E+01 -0.15033E+05
 0.66499996E+01 -0.14985E+05
 0.66999998E+01 -0.14982E+05
 0.67499990E+01 -0.14974E+05
 0.67999992E+01 -0.14968E+05
 0.68499994E+01 -0.14976E+05
 0.68999996E+01 -0.15008E+05
 0.69499998E+01 -0.15013E+05
 0.69999990E+01 -0.15003E+05
 0.70499992E+01 -0.15002E+05
 0.70999994E+01 -0.15017E+05
 0.71499996E+01 -0.15031E+05
 0.71999998E+01 -0.15030E+05
 0.72499990E+01 -0.15009E+05
 0.72999992E+01 -0.14984E+05
 0.73499994E+01 -0.14982E+05
 0.73999996E+01 -0.14943E+05
 0.74499998E+01 -0.14925E+05
 0.74999990E+01 -0.14935E+05
 0.75499992E+01 -0.14975E+05
 0.75999994E+01 -0.14974E+05
 0.76499996E+01 -0.14944E+05
 0.76999998E+01 -0.14935E+05
 0.77499990E+01 -0.14945E+05
 0.77999992E+01 -0.14973E+05
 0.78499994E+01 -0.14989E+05
 0.78999996E+01 -0.15030E+05
 0.79499998E+01 -0.15069E+05
 0.79999990E+01 -0.15071E+05
 0.80499992E+01 -0.15054E+05
 0.80999994E+01 -0.15051E+05
 0.81499996E+01 -0.15077E+05
 0.81999998E+01 -0.15088E+05
 0.82499990E+01 -0.15112E+05
 0.82999992E+01 -0.15140E+05
 0.83499994E+01 -0.15163E+05
 0.83999996E+01 -0.15179E+05
 0.84499998E+01 -0.15181E+05
 0.84999990E+01 -0.15197E+05
 0.85499992E+01 -0.15175E+05
 0.85999994E+01 -0.15145E+05
 0.86499996E+01 -0.15106E+05
 0.86999998E+01 -0.15089E+05
 0.87499990E+01 -0.15072E+05
 0.87999992E+01 -0.15063E+05
 0.88499994E+01 -0.15068E+05
 0.88999996E+01 -0.15012E+05
 0.89499998E+01 -0.14976E+05
 0.89999990E+01 -0.14934E+05
 0.90499992E+01 -0.14907E+05
 0.90999994E+01 -0.14886E+05
 0.91499996E+01 -0.14849E+05
 0.91999989E+01 -0.14836E+05
 0.92499990E+01 -0.14835E+05
 0.92999992E+01 -0.14856E+05
 0.93499994E+01 -0.14880E+05
 0.93999996E+01 -0.14889E+05
 0.94499989E+01 -0.14906E+05
 0.94999990E+01 -0.14926E+05
 0.95499992E+01 -0.14895E+05
 0.95999994E+01 -0.14908E+05
 0.96499996E+01 -0.14936E+05
 0.96999989E+01 -0.14971E+05
 0.97499990E+01 -0.15000E+05
 0.97999992E+01 -0.15014E+05
 0.98499994E+01 -0.15064E+05
 0.98999996E+01 -0.15097E+05
 0.99499989E+01 -0.15109E+05
 0.99999990E+01 -0.15123E+05
 0.10049999E+02 -0.15163E+05
 0.10099999E+02 -0.15178E+05
 0.10150000E+02 -0.15212E+05
 0.10199999E+02 -0.15256E+05
 0.10249999E+02 -0.15273E+05
 0.10299999E+02 -0.15268E+05
 0.10349999E+02 -0.15230E+05
 0.10400000E+02 -0.15201E+05
 0.10449999E+02 -0.15199E+05
 0.10499999E+02 -0.15183E+05
 0.10549999E+02 -0.15167E+05
 0.10599999E+02 -0.15160E+05
 0.10650000E+02 -0.15124E+05
 0.10699999E+02 -0.15091E+05
 0.10749999E+02 -0.15056E+05
 0.10799999E+02 -0.15028E+05
 0.10849999E+02 -0.14986E+05
 0.10900000E+02 -0.14946E+05
 0.10949999E+02 -0.14951E+05
 0.10999999E+02 -0.14981E+05
 0.11049999E+02 -0.14974E+05
 0.11099999E+02 -0.14951E+05
 0.11150000E+02 -0.14935E+05
 0.11199999E+02 -0.14943E+05
 0.11249999E+02 -0.14944E+05
 0.11299999E+02 -0.14898E+05
 0.11349999E+02 -0.14883E+05
 0.11400000E+02 -0.14850E+05
 0.11449999E+02 -0.14842E+05
 0.11499999E+02 -0.14857E+05
 0.11549999E+02 -0.14868E+05
 0.11599999E+02 -0.14900E+05
 0.11650000E+02 -0.14915E+05
 0.11699999E+02 -0.14932E+05
 0.11749999E+02 -0.14937E+05
 0.11799999E+02 -0.14907E+05
 0.11849999E+02 -0.14894E+05
 0.11900000E+02 -0.14917E+05
 0.11949999E+02 -0.14923E+05
 0.11999999E+02 -0.14937E+05
 0.12049999E+02 -0.14948E+05
 0.12099999E+02 -0.14957E+05
 0.12150000E+02 -0.14966E+05
 0.12199999E+02 -0.15020E+05
 0.12249999E+02 -0.15070E+05
 0.12299999E+02 -0.15071E+05
 0.12349999E+02 -0.15097E+05
 0.12400000E+02 -0.15124E+05
 0.12449999E+02 -0.15159E+05
 0.12499999E+02 -0.15171E+05
 0.12549999E+02 -0.15167E+05
 0.12599999E+02 -0.15176E+05
 0.12649999E+02 -0.15142E+05
 0.12699999E+02 -0.15109E+05
 0.12749999E+02 -0.15112E+05
 0.12799999E+02 -0.15125E+05
 0.12849999E+02 -0.15132E+05
 0.12899999E+02 -0.15128E+05
 0.12949999E+02 -0.15127E+05
 0.12999999E+02 -0.15144E+05
 0.13049999E+02 -0.15170E+05
 0.13099999E+02 -0.15157E+05
 0.13149999E+02 -0.15158E+05
 0.13199999E+02 -0.15151E+05
 0.13249999E+02 -0.15125E+05
 0.13299999E+02 -0.15097E+05
 0.13349999E+02 -0.15100E+05
 0.13399999E+02 -0.15088E+05
 0.13449999E+02 -0.15039E+05
 0.13499999E+02 -0.15015E+05
 0.13549999E+02 -0.15012E+05
 0.13599999E+02 -0.14976E+05
 0.13649999E+02 -0.14916E+05
 0.13699999E+02 -0.14872E+05
 0.13749999E+02 -0.14843E+05
 0.13799999E+02 -0.14804E+05
 0.13849999E+02 -0.14795E+05
 0.13899999E+02 -0.14807E+05
 0.13949999E+02 -0.14831E+05
 0.13999999E+02 -0.14855E+05
 0.14049999E+02 -0.14850E+05
 0.14099998E+02 -0.14870E+05
 0.14150000E+02 -0.14869E+05
 0.14199999E+02 -0.14911E+05
 0.14249998E+02 -0.14940E+05
 0.14299999E+02 -0.14966E+05
 0.14349998E+02 -0.14981E+05
 0.14400000E+02 -0.14996E+05
 0.14449999E+02 -0.15011E+05
 0.14499998E+02 -0.15034E+05
 0.14549999E+02 -0.15049E+05
 0.14599998E+02 -0.15037E+05
 0.14650000E+02 -0.15068E+05
 0.14699999E+02 -0.15075E+05
 0.14749998E+02 -0.15078E+05
 0.14799999E+02 -0.15085E+05
 0.14849998E+02 -0.15100E+05
 0.14900000E+02 -0.15086E+05
 0.14949999E+02 -0.15093E+05
 0.14999998E+02 -0.15120E+05
 0.15049999E+02 -0.15132E+05
 0.15099998E+02 -0.15114E+05
 0.15150000E+02 -0.15081E+05
 0.15199999E+02 -0.15085E+05
 0.15249998E+02 -0.15099E+05
 0.15299999E+02 -0.15109E+05
 0.15349998E+02 -0.15091E+05
 0.15400000E+02 -0.15085E+05
 0.15449999E+02 -0.15070E+05
 0.15499998E+02 -0.15047E+05
 0.15549999E+02 -0.15007E+05
 0.15599998E+02 -0.14951E+05
 0.15650000E+02 -0.14934E+05
 0.15699999E+02 -0.14920E+05
 0.15749998E+02 -0.14917E+05
 0.15799999E+02 -0.14917E+05
 0.15849998E+02 -0.14921E+05
 0.15900000E+02 -0.14941E+05
 0.15949999E+02 -0.14960E+05
 0.15999998E+02 -0.14971E+05
 0.16049999E+02 -0.15005E+05
 0.16099998E+02 -0.15026E+05
 0.16150000E+02 -0.15031E+05
 0.16199999E+02 -0.15044E+05
 0.16249998E+02 -0.15025E+05
 0.16299999E+02 -0.15034E+05
 0.16349998E+02 -0.15067E+05
 0.16400000E+02 -0.15081E+05
 0.16449999E+02 -0.15097E+05
 0.16499998E+02 -0.15123E+05
 0.16549999E+02 -0.15133E+05
 0.16599998E+02 -0.15127E+05
 0.16650000E+02 -0.15121E+05
 0.16699999E+02 -0.15129E+05
 0.16749998E+02 -0.15121E+05
 0.16799999E+02 -0.15125E+05
 0.16849998E+02 -0.15122E+05
 0.16900000E+02 -0.15113E+05
 0.16949999E+02 -0.15124E+05
 0.16999998E+02 -0.15104E+05
 0.17049999E+02 -0.15095E+05
 0.17099998E+02 -0.15079E+05
 0.17150000E+02 -0.15071E+05
 0.17199999E+02 -0.15040E+05
 0.17249998E+02 -0.15020E+05
 0.17299999E+02 -0.15002E+05
 0.17349998E+02 -0.14972E+05
 0.17400000E+02 -0.14954E+05
 0.17449999E+02 -0.14951E+05
 0.17499998E+02 -0.14948E+05
 0.17549999E+02 -0.14944E+05
 0.17599998E+02 -0.14942E+05
 0.17650000E+02 -0.14920E+05
 0.17699999E+02 -0.14912E+05
 0.17749998E+02 -0.14898E+05
 0.17799999E+02 -0.14890E+05
 0.17849998E+02 -0.14904E+05
 0.17900000E+02 -0.14917E+05
 0.17949999E+02 -0.14904E+05
 0.17999998E+02 -0.14905E+05
 0.18049999E+02 -0.14939E+05
 0.18099998E+02 -0.14941E+05
 0.18150000E+02 -0.14945E+05
 0.18199999E+02 -0.14970E+05
 0.18249998E+02 -0.14990E+05
 0.18299999E+02 -0.14985E+05
 0.18349998E+02 -0.14985E+05
 0.18400000E+02 -0.15027E+05
 0.18449999E+02 -0.15040E+05
 0.18499998E+02 -0.15035E+05
 0.18549999E+02 -0.15036E+05
 0.18599998E+02 -0.15062E+05
 0.18650000E+02 -0.15092E+05
 0.18699999E+02 -0.15076E+05
 0.18749998E+02 -0.15070E+05
 0.18799999E+02 -0.15091E+05
 0.18849998E+02 -0.15088E+05
 0.18900000E+02 -0.15078E+05
 0.18949999E+02 -0.15090E+05
 0.18999998E+02 -0.15079E+05
 0.19049999E+02 -0.15073E+05
 0.19099998E+02 -0.15065E+05
 0.19150000E+02 -0.15041E+05
 0.19199999E+02 -0.15055E+05
 0.19249998E+02 -0.15035E+05
 0.19299999E+02 -0.15019E+05
 0.19349998E+02 -0.15035E+05
 0.19400000E+02 -0.15039E+05
 0.19449999E+02 -0.15050E+05
 0.19499998E+02 -0.15060E+05
 0.19549999E+02 -0.15075E+05
 0.19599998E+02 -0.15057E+05
 0.19650000E+02 -0.15021E+05
 0.19699999E+02 -0.15011E+05
 0.19749998E+02 -0.15023E+05
 0.19799999E+02 -0.15033E+05
 0.19849998E+02 -0.15027E+05
 0.19900000E+02 -0.15019E+05
 0.19949999E+02 -0.15011E+05
 0.19999998E+02 -0.15012E+05
 0.20049999E+02 -0.14990E+05
 0.20099998E+02 -0.14977E+05
 0.20150000E+02 -0.14986E+05
 0.20199999E+02 -0.14996E+05
 0.20249998E+02 -0.15025E+05
 0.20299999E+02 -0.15025E+05
 0.20349998E+02 -0.15028E+05
 0.20399998E+02 -0.15041E+05
 0.20449999E+02 -0.15055E+05
 0.20499998E+02 -0.15070E+05
 0.20549999E+02 -0.15057E+05
 0.20599998E+02 -0.15046E+05
 0.20649998E+02 -0.15055E+05
 0.20699999E+02 -0.15056E+05
 0.20749998E+02 -0.15026E+05
 0.20799999E+02 -0.15044E+05
 0.20849998E+02 -0.15080E+05
 0.20899998E+02 -0.15078E+05
 0.20949999E+02 -0.15090E+05
 0.20999998E+02 -0.15029E+05
 0.21049999E+02 -0.15127E+05
 0.21099998E+02 -0.15066E+05
 0.21149998E+02 -0.15000E+05
 0.21199999E+02 -0.15045E+05
 0.21249998E+02 -0.14970E+05
 0.21299999E+02 -0.14988E+05
 0.21349998E+02 -0.14987E+05
 0.21399998E+02 -0.14960E+05
 0.21449999E+02 -0.15018E+05
 0.21499998E+02 -0.14942E+05
 0.21549999E+02 -0.14934E+05
 0.21599998E+02 -0.15042E+05
 0.21649998E+02 -0.14909E+05
 0.21699999E+02 -0.14883E+05
 0.21749998E+02 -0.14877E+05
 0.21799999E+02 -0.14925E+05
 0.21849998E+02 -0.14929E+05
 0.21899998E+02 -0.14887E+05
 0.21949999E+02 -0.14950E+05
 0.21999998E+02 -0.14974E+05
 0.22049999E+02 -0.14928E+05
 0.22099998E+02 -0.15074E+05
 0.22149998E+02 -0.15061E+05
 0.22199999E+02 -0.14997E+05
 0.22249998E+02 -0.15113E+05
 0.22299999E+02 -0.15059E+05
 0.22349998E+02 -0.15216E+05
 0.22399998E+02 -0.15067E+05
 0.22449999E+02 -0.14913E+05
 0.22499998E+02 -0.15145E+05
 0.22549999E+02 -0.15042E+05
 0.22599998E+02 -0.15065E+05
 0.22649998E+02 -0.15017E+05
 0.22699999E+02 -0.14940E+05
 0.22749998E+02 -0.15115E+05
 0.22799999E+02 -0.14923E+05
 0.22849998E+02 -0.14981E+05
 0.22899998E+02 -0.15103E+05
 0.22949999E+02 -0.14876E+05
 0.22999998E+02 -0.14889E+05
 0.23049999E+02 -0.14946E+05
 0.23099998E+02 -0.14919E+05
 0.23149998E+02 -0.14908E+05
 0.23199999E+02 -0.14918E+05
 0.23249998E+02 -0.14919E+05
 0.23299999E+02 -0.15100E+05
 0.23349998E+02 -0.14971E+05
 0.23399998E+02 -0.14828E+05
 0.23449999E+02 -0.14976E+05
 0.23499998E+02 -0.14979E+05
 0.23549999E+02 -0.14980E+05
 0.23599998E+02 -0.14912E+05
 0.23649998E+02 -0.15065E+05
 0.23699999E+02 -0.15017E+05
 0.23749998E+02 -0.15037E+05
 0.23799999E+02 -0.15113E+05
 0.23849998E+02 -0.14986E+05
 0.23899998E+02 -0.15086E+05
 0.23949999E+02 -0.15012E+05
 0.23999998E+02 -0.15147E+05
 0.24049999E+02 -0.15202E+05
 0.24099998E+02 -0.14975E+05
 0.24149998E+02 -0.15057E+05
 0.24199999E+02 -0.15106E+05
 0.24249998E+02 -0.14912E+05
 0.24299999E+02 -0.15049E+05
 0.24349998E+02 -0.14991E+05
 0.24399998E+02 -0.15336E+05
 0.24449999E+02 -0.15036E+05
 0.24499998E+02 -0.14768E+05
 0.24549999E+02 -0.15238E+05
 0.24599998E+02 -0.14826E+05
 0.24649998E+02 -0.15237E+05
 0.24699999E+02 -0.15205E+05
 0.24749998E+02 -0.15093E+05
 0.24799999E+02 -0.15072E+05
 0.24849998E+02 -0.14965E+05
 0.24899998E+02 -0.15335E+05
 0.24949999E+02 -0.15177E+05
 0.24999998E+02 -0.14930E+05
 0.25049999E+02 -0.15003E+05
 0.25099998E+02 -0.15030E+05
 0.25149998E+02 -0.14891E+05
 0.25199999E+02 -0.15347E+05
 0.25249998E+02 -0.15006E+05
 0.25299999E+02 -0.15058E+05
 0.25349998E+02 -0.15349E+05
 0.25399998E+02 -0.14965E+05
 0.25449999E+02 -0.15539E+05
 0.25499998E+02 -0.15042E+05
 0.25549999E+02 -0.14799E+05
 0.25599998E+02 -0.15276E+05
 0.25649998E+02 -0.15051E+05
 0.25699999E+02 -0.15054E+05
 0.25749998E+02 -0.14893E+05
 0.25799999E+02 -0.14626E+05
 0.25849998E+02 -0.15299E+05
 0.25899998E+02 -0.15533E+05
 0.25949999E+02 -0.15116E+05
 0.25999998E+02 -0.14747E+05
 0.26049999E+02 -0.14845E+05
 0.26099998E+02 -0.15547E+05
 0.26149998E+02 -0.15083E+05
 0.26199999E+02 -0.14903E+05
 0.26249998E+02 -0.14740E+05
 0.26299999E+02 -0.14873E+05
 0.26349998E+02 -0.14933E+05
 0.26399998E+02 -0.14693E+05
 0.26449999E+02 -0.14981E+05
 0.26499998E+02 -0.14721E+05
 0.26549999E+02 -0.14926E+05
 0.26599998E+02 -0.14858E+05
 0.26649998E+02 -0.14969E+05
 0.26699999E+02 -0.15318E+05
 0.26749998E+02 -0.15082E+05
 0.26799999E+02 -0.14830E+05
 0.26849998E+02 -0.15158E+05
 0.26899998E+02 -0.15120E+05
 0.26949999E+02 -0.14888E+05
 0.26999998E+02 -0.15065E+05
 0.27049997E+02 -0.14773E+05
 0.27099998E+02 -0.14763E+05
 0.27149998E+02 -0.14912E+05
 0.27199999E+02 -0.14801E+05
 0.27249998E+02 -0.15041E+05
 0.27299997E+02 -0.14968E+05
 0.27349998E+02 -0.15117E+05
 0.27399998E+02 -0.15155E+05
 0.27449999E+02 -0.14952E+05
 0.27499998E+02 -0.15109E+05
 0.27549997E+02 -0.15180E+05
 0.27599998E+02 -0.15301E+05
 0.27649998E+02 -0.15121E+05
 0.27699999E+02 -0.14611E+05
 0.27749998E+02 -0.14712E+05
 0.27799997E+02 -0.15228E+05
 0.27849998E+02 -0.15145E+05
 0.27899998E+02 -0.15364E+05
 0.27949999E+02 -0.15023E+05
 0.27999998E+02 -0.15133E+05
 0.28049997E+02 -0.15331E+05
 0.28099998E+02 -0.14948E+05
 0.28149998E+02 -0.14753E+05
 0.28199999E+02 -0.15042E+05
 0.28249998E+02 -0.15489E+05
 0.28299997E+02 -0.15077E+05
 0.28349998E+02 -0.14633E+05
 0.28399998E+02 -0.15146E+05
 0.28449999E+02 -0.15324E+05
 0.28499998E+02 -0.14935E+05
 0.28549997E+02 -0.14885E+05
 0.28599998E+02 -0.14731E+05
 0.28649998E+02 -0.15142E+05
 0.28699999E+02 -0.15465E+05
 0.28749998E+02 -0.14847E+05
 0.28799997E+02 -0.14665E+05
 0.28849998E+02 -0.15400E+05
 0.28899998E+02 -0.15191E+05
 0.28949999E+02 -0.14966E+05
 0.28999998E+02 -0.14965E+05
 0.29049997E+02 -0.14687E+05
 0.29099998E+02 -0.15026E+05
 0.29149998E+02 -0.14999E+05
 0.29199999E+02 -0.14922E+05
 0.29249998E+02 -0.14626E+05
 0.29299997E+02 -0.14834E+05
 0.29349998E+02 -0.15655E+05
 0.29399998E+02 -0.15136E+05
 0.29449999E+02 -0.15131E+05
 0.29499998E+02 -0.15263E+05
 0.29549997E+02 -0.14770E+05
 0.29599998E+02 -0.14845E+05
 0.29649998E+02 -0.15112E+05
 0.29699999E+02 -0.15269E+05
 0.29749998E+02 -0.15072E+05
 0.29799997E+02 -0.14820E+05
 0.29849998E+02 -0.15435E+05
 0.29899998E+02 -0.14935E+05
 0.29949999E+02 -0.14455E+05
 0.29999998E+02 -0.14926E+05
 0.30049999E+02 -0.14724E+05
 0.30099998E+02 -0.15299E+05
 0.30149998E+02 -0.15554E+05
 0.30199997E+02 -0.14874E+05
 0.30249996E+02 -0.15598E+05
 0.30299999E+02 -0.15283E+05
 0.30349998E+02 -0.14505E+05
 0.30399998E+02 -0.15127E+05
 0.30449997E+02 -0.14809E+05
 0.30499996E+02 -0.14942E+05
 0.30549999E+02 -0.14796E+05
 0.30599998E+02 -0.15098E+05
 0.30649998E+02 -0.15527E+05
 0.30699997E+02 -0.15157E+05
 0.30749996E+02 -0.15105E+05
 0.30799999E+02 -0.14970E+05
 0.30849998E+02 -0.15244E+05
 0.30899998E+02 -0.15449E+05
 0.30949997E+02 -0.15380E+05
 0.30999996E+02 -0.14933E+05
 0.31049999E+02 -0.15049E+05
 0.31099998E+02 -0.15398E+05
 0.31149998E+02 -0.15045E+05
 0.31199997E+02 -0.14724E+05
 0.31249996E+02 -0.14197E+05
 0.31299999E+02 -0.14261E+05
 0.31349998E+02 -0.14625E+05
 0.31399998E+02 -0.14285E+05
 0.31449997E+02 -0.14936E+05
 0.31499996E+02 -0.15411E+05
 0.31549999E+02 -0.15301E+05
 0.31599998E+02 -0.14951E+05
 0.31649998E+02 -0.14844E+05
 0.31699997E+02 -0.15690E+05
 0.31749996E+02 -0.15190E+05
 0.31799999E+02 -0.15518E+05
 0.31849998E+02 -0.15590E+05
 0.31899998E+02 -0.14623E+05
 0.31949997E+02 -0.15120E+05
 0.31999996E+02 -0.14892E+05
 0.32049999E+02 -0.13664E+05
 0.32099998E+02 -0.14725E+05
 0.32149998E+02 -0.16420E+05
 0.32199997E+02 -0.15933E+05
 0.32249996E+02 -0.14952E+05
 0.32299999E+02 -0.15280E+05
 0.32349998E+02 -0.15167E+05
 0.32399998E+02 -0.14459E+05
 0.32449997E+02 -0.14516E+05
 0.32499996E+02 -0.14191E+05
 0.32549999E+02 -0.14188E+05
 0.32599998E+02 -0.14989E+05
 0.32649998E+02 -0.15017E+05
 0.32699997E+02 -0.14622E+05
 0.32749996E+02 -0.15058E+05
 0.32799999E+02 -0.15568E+05
 0.32849998E+02 -0.16163E+05
 0.32899998E+02 -0.16561E+05
 0.32949997E+02 -0.16531E+05
 0.32999996E+02 -0.15017E+05
 0.33049999E+02 -0.13884E+05
 0.33099998E+02 -0.14208E+05
 0.33149998E+02 -0.14961E+05
 0.33199997E+02 -0.14848E+05
 0.33249996E+02 -0.14648E+05
 0.33299999E+02 -0.14724E+05
 0.33349998E+02 -0.14535E+05
 0.33399998E+02 -0.15235E+05
 0.33449997E+02 -0.15155E+05
 0.33499996E+02 -0.14784E+05
 0.33549999E+02 -0.15379E+05
 0.33599998E+02 -0.15502E+05
 0.33649998E+02 -0.15247E+05
 0.33699997E+02 -0.15227E+05
 0.33749996E+02 -0.14765E+05
 0.33799999E+02 -0.14405E+05
 0.33849998E+02 -0.14786E+05
 0.33899998E+02 -0.14694E+05
 0.33949997E+02 -0.14443E+05
 0.33999996E+02 -0.14710E+05
 0.34049999E+02 -0.14840E+05
 0.34099998E+02 -0.15067E+05
 0.34149998E+02 -0.15008E+05
 0.34199997E+02 -0.15494E+05
 0.34249996E+02 -0.15438E+05
 0.34299999E+02 -0.14715E+05
 0.34349998E+02 -0.15340E+05
 0.34399998E+02 -0.15621E+05
 0.34449997E+02 -0.15043E+05
 0.34499996E+02 -0.15229E+05
 0.34549999E+02 -0.14987E+05
 0.34599998E+02 -0.14360E+05
 0.34649998E+02 -0.14034E+05
 0.34699997E+02 -0.15217E+05
 0.34749996E+02 -0.15135E+05
 0.34799999E+02 -0.13931E+05
 0.34849998E+02 -0.15257E+05
 0.34899998E+02 -0.15218E+05
 0.34949997E+02 -0.14734E+05
 0.34999996E+02 -0.15601E+05
 0.35049999E+02 -0.15661E+05
 0.35099998E+02 -0.15221E+05
 0.35149998E+02 -0.14606E+05
 0.35199997E+02 -0.14995E+05
 0.35249996E+02 -0.15084E+05
 0.35299999E+02 -0.15223E+05
 0.35349998E+02 -0.15114E+05
 0.35399998E+02 -0.14318E+05
 0.35449997E+02 -0.14440E+05
 0.35499996E+02 -0.14646E+05
 0.35549999E+02 -0.14404E+05
 0.35599998E+02 -0.13947E+05
 0.35649998E+02 -0.14835E+05
 0.35699997E+02 -0.16050E+05
 0.35749996E+02 -0.15718E+05
 0.35799999E+02 -0.15364E+05
 0.35849998E+02 -0.15774E+05
 0.35899998E+02 -0.15291E+05
 0.35949997E+02 -0.14529E+05
 0.35999996E+02 -0.14768E+05
 0.36049999E+02 -0.15343E+05
 0.36099998E+02 -0.15341E+05
 0.36149998E+02 -0.14822E+05
 0.36199997E+02 -0.14288E+05
 0.36249996E+02 -0.14694E+05
 0.36299999E+02 -0.14427E+05
 0.36349998E+02 -0.14921E+05
 0.36399998E+02 -0.16254E+05
 0.36449997E+02 -0.16575E+05
 0.36499996E+02 -0.15983E+05
 0.36549999E+02 -0.15196E+05
 0.36599998E+02 -0.14944E+05
 0.36649998E+02 -0.15074E+05
 0.36699997E+02 -0.15309E+05
 0.36749996E+02 -0.15499E+05
 0.36799999E+02 -0.14910E+05
 0.36849998E+02 -0.14732E+05
 0.36899998E+02 -0.14235E+05
 0.36949997E+02 -0.13558E+05
 0.36999996E+02 -0.14842E+05
 0.37049999E+02 -0.15205E+05
 0.37099998E+02 -0.14984E+05
 0.37149998E+02 -0.15534E+05
 0.37199997E+02 -0.15951E+05
 0.37249996E+02 -0.15564E+05
 0.37299999E+02 -0.16218E+05
 0.37349998E+02 -0.15773E+05
 0.37399998E+02 -0.14532E+05
 0.37449997E+02 -0.13720E+05
 0.37499996E+02 -0.13369E+05
 0.37549999E+02 -0.13317E+05
 0.37599998E+02 -0.14345E+05
 0.37649998E+02 -0.14814E+05
 0.37699997E+02 -0.15673E+05
 0.37749996E+02 -0.15964E+05
 0.37799999E+02 -0.15800E+05
 0.37849998E+02 -0.16542E+05
 0.37899998E+02 -0.14952E+05
 0.37949997E+02 -0.15562E+05
 0.37999996E+02 -0.15038E+05
 0.38049999E+02 -0.15196E+05
 0.38099998E+02 -0.14512E+05
 0.38149998E+02 -0.14806E+05
 0.38199997E+02 -0.16541E+05
 0.38249996E+02 -0.15273E+05
 0.38299999E+02 -0.15597E+05
 0.38349998E+02 -0.15750E+05
 0.38399998E+02 -0.15244E+05
 0.38449997E+02 -0.14777E+05
 0.38499996E+02 -0.16024E+05
 0.38549999E+02 -0.15333E+05
 0.38599998E+02 -0.13716E+05
 0.38649998E+02 -0.14533E+05
 0.38699997E+02 -0.15610E+05
 0.38749996E+02 -0.14079E+05
 0.38799999E+02 -0.14017E+05
 0.38849998E+02 -0.13688E+05
 0.38899998E+02 -0.13098E+05
 0.38949997E+02 -0.14117E+05
 0.38999996E+02 -0.14471E+05
 0.39049999E+02 -0.14980E+05
 0.39099998E+02 -0.13625E+05
 0.39149998E+02 -0.15764E+05
 0.39199997E+02 -0.15358E+05
 0.39249996E+02 -0.15634E+05
 0.39299999E+02 -0.15372E+05
 0.39349998E+02 -0.14997E+05
 0.39399998E+02 -0.15587E+05
 0.39449997E+02 -0.15249E+05
 0.39499996E+02 -0.15091E+05
 0.39549999E+02 -0.13012E+05
 0.39599998E+02 -0.13560E+05
 0.39649998E+02 -0.14898E+05
 0.39699997E+02 -0.15043E+05
 0.39749996E+02 -0.15961E+05
 0.39799999E+02 -0.16719E+05
 0.39849998E+02 -0.16474E+05
 0.39899998E+02 -0.16421E+05
 0.39949997E+02 -0.14343E+05
 0.39999996E+02 -0.13710E+05
 0.40049999E+02 -0.12269E+05
 0.40099998E+02 -0.12167E+05
 0.40149998E+02 -0.13038E+05
 0.40199997E+02 -0.15425E+05
 0.40249996E+02 -0.16557E+05
 0.40299999E+02 -0.15085E+05
 0.40349998E+02 -0.15486E+05
 0.40399998E+02 -0.14987E+05
 0.40449997E+02 -0.15675E+05
 0.40499996E+02 -0.15473E+05
 0.40549999E+02 -0.15853E+05
 0.40599998E+02 -0.15550E+05
 0.40649998E+02 -0.14608E+05
 0.40699997E+02 -0.15181E+05
 0.40749996E+02 -0.14004E+05
 0.40799999E+02 -0.14145E+05
 0.40849998E+02 -0.14996E+05
 0.40899998E+02 -0.16243E+05
 0.40949997E+02 -0.17178E+05
 0.40999996E+02 -0.18420E+05
 0.41049999E+02 -0.15276E+05
 0.41099998E+02 -0.14610E+05
 0.41149998E+02 -0.16575E+05
 0.41199997E+02 -0.16017E+05
 0.41249996E+02 -0.15979E+05
 0.41299999E+02 -0.15126E+05
 0.41349998E+02 -0.15050E+05
 0.41399998E+02 -0.14482E+05
 0.41449997E+02 -0.13850E+05
 0.41499996E+02 -0.12816E+05
 0.41549999E+02 -0.12900E+05
 0.41599998E+02 -0.15031E+05
 0.41649998E+02 -0.15323E+05
 0.41699997E+02 -0.14352E+05
 0.41749996E+02 -0.14689E+05
 0.41799999E+02 -0.14958E+05
 0.41849998E+02 -0.16352E+05
 0.41899998E+02 -0.15734E+05
 0.41949997E+02 -0.16626E+05
 0.41999996E+02 -0.16872E+05
 0.42049999E+02 -0.16226E+05
 0.42099998E+02 -0.14192E+05
 0.42149998E+02 -0.14478E+05
 0.42199997E+02 -0.14932E+05
 0.42249996E+02 -0.13826E+05
 0.42299999E+02 -0.13773E+05
 0.42349998E+02 -0.14725E+05
 0.42399998E+02 -0.16403E+05
 0.42449997E+02 -0.15152E+05
 0.42499996E+02 -0.13881E+05
 0.42549999E+02 -0.13774E+05
 0.42599998E+02 -0.15313E+05
 0.42649998E+02 -0.14046E+05
 0.42699997E+02 -0.13569E+05
 0.42749996E+02 -0.13695E+05
 0.42799995E+02 -0.13051E+05
 0.42849998E+02 -0.13873E+05
 0.42899998E+02 -0.15111E+05
 0.42949997E+02 -0.15891E+05
 0.42999996E+02 -0.16294E+05
 0.43049995E+02 -0.16603E+05
 0.43099998E+02 -0.18624E+05
 0.43149998E+02 -0.18790E+05
 0.43199997E+02 -0.15235E+05
 0.43249996E+02 -0.14826E+05
 0.43299995E+02 -0.16024E+05
 0.43349998E+02 -0.14118E+05
 0.43399998E+02 -0.13137E+05
 0.43449997E+02 -0.13439E+05
 0.43499996E+02 -0.13984E+05
 0.43549995E+02 -0.16308E+05
 0.43599998E+02 -0.15622E+05
 0.43649998E+02 -0.14894E+05
 0.43699997E+02 -0.15001E+05
 0.43749996E+02 -0.14080E+05
 0.43799995E+02 -0.15355E+05
 0.43849998E+02 -0.16584E+05
 0.43899998E+02 -0.15973E+05
 0.43949997E+02 -0.15580E+05
 0.43999996E+02 -0.15098E+05
 0.44049995E+02 -0.13268E+05
 0.44099998E+02 -0.12467E+05
 0.44149998E+02 -0.13823E+05
 0.44199997E+02 -0.16038E+05
 0.44249996E+02 -0.16305E+05
 0.44299995E+02 -0.15966E+05
 0.44349998E+02 -0.16364E+05
 0.44399998E+02 -0.14836E+05
 0.44449997E+02 -0.14402E+05
 0.44499996E+02 -0.15598E+05
 0.44549995E+02 -0.16077E+05
 0.44599998E+02 -0.17017E+05
 0.44649998E+02 -0.15819E+05
 0.44699997E+02 -0.14965E+05
 0.44749996E+02 -0.14327E+05
 0.44799995E+02 -0.12893E+05
 0.44849998E+02 -0.12895E+05
 0.44899998E+02 -0.14130E+05
 0.44949997E+02 -0.14723E+05
 0.44999996E+02 -0.15774E+05
 0.45049995E+02 -0.16557E+05
 0.45099998E+02 -0.15251E+05
 0.45149998E+02 -0.14906E+05
 0.45199997E+02 -0.15325E+05
 0.45249996E+02 -0.15253E+05
 0.45299995E+02 -0.14318E+05
 0.45349998E+02 -0.14398E+05
 0.45399998E+02 -0.15335E+05
 0.45449997E+02 -0.15145E+05
 0.45499996E+02 -0.13288E+05
 0.45549995E+02 -0.14001E+05
 0.45599998E+02 -0.16180E+05
 0.45649998E+02 -0.15903E+05
 0.45699997E+02 -0.14546E+05
 0.45749996E+02 -0.16304E+05
 0.45799995E+02 -0.18395E+05
 0.45849998E+02 -0.16940E+05
 0.45899998E+02 -0.15267E+05
 0.45949997E+02 -0.13384E+05
 0.45999996E+02 -0.13418E+05
 0.46049995E+02 -0.13439E+05
 0.46099998E+02 -0.14025E+05
 0.46149998E+02 -0.16281E+05
 0.46199997E+02 -0.16287E+05
 0.46249996E+02 -0.15638E+05
 0.46299995E+02 -0.13859E+05
 0.46349998E+02 -0.12021E+05
 0.46399998E+02 -0.13107E+05
 0.46449997E+02 -0.15035E+05
 0.46499996E+02 -0.16526E+05
 0.46549995E+02 -0.15570E+05
 0.46599998E+02 -0.13293E+05
 0.46649998E+02 -0.13745E+05
 0.46699997E+02 -0.13441E+05
 0.46749996E+02 -0.13550E+05
 0.46799995E+02 -0.13723E+05
 0.46849998E+02 -0.14185E+05
 0.46899998E+02 -0.14725E+05
 0.46949997E+02 -0.16909E+05
 0.46999996E+02 -0.20050E+05
 0.47049995E+02 -0.18435E+05
 0.47099998E+02 -0.16765E+05
 0.47149998E+02 -0.17668E+05
 0.47199997E+02 -0.18358E+05
 0.47249996E+02 -0.15110E+05
 0.47299995E+02 -0.11108E+05
 0.47349998E+02 -0.87308E+04
 0.47399998E+02 -0.10353E+05
 0.47449997E+02 -0.13609E+05
 0.47499996E+02 -0.15385E+05
 0.47549995E+02 -0.16438E+05
 0.47599998E+02 -0.14729E+05
 0.47649998E+02 -0.14997E+05
 0.47699997E+02 -0.16755E+05
 0.47749996E+02 -0.14858E+05
 0.47799995E+02 -0.13318E+05
 0.47849998E+02 -0.14566E+05
 0.47899998E+02 -0.13050E+05
 0.47949997E+02 -0.11580E+05
 0.47999996E+02 -0.14189E+05
 0.48049995E+02 -0.15057E+05
 0.48099998E+02 -0.15256E+05
 0.48149998E+02 -0.15524E+05
 0.48199997E+02 -0.14130E+05
 0.48249996E+02 -0.14892E+05
 0.48299995E+02 -0.15025E+05
 0.48349998E+02 -0.13944E+05
 0.48399998E+02 -0.15791E+05
 0.48449997E+02 -0.16566E+05
 0.48499996E+02 -0.14304E+05
 0.48549995E+02 -0.15384E+05
 0.48599998E+02 -0.16204E+05
 0.48649998E+02 -0.14334E+05
 0.48699997E+02 -0.16940E+05
 0.48749996E+02 -0.18331E+05
 0.48799995E+02 -0.17163E+05
 0.48849998E+02 -0.15988E+05
 0.48899998E+02 -0.16390E+05
 0.48949997E+02 -0.16015E+05
 0.48999996E+02 -0.14851E+05
 0.49049995E+02 -0.15036E+05
 0.49099998E+02 -0.14153E+05
 0.49149998E+02 -0.12944E+05
 0.49199997E+02 -0.11827E+05
 0.49249996E+02 -0.13613E+05
 0.49299995E+02 -0.14788E+05
 0.49349998E+02 -0.15053E+05
 0.49399998E+02 -0.15901E+05
 0.49449997E+02 -0.17765E+05
 0.49499996E+02 -0.17124E+05
 0.49549995E+02 -0.15583E+05
 0.49599998E+02 -0.14174E+05
 0.49649998E+02 -0.13095E+05
 0.49699997E+02 -0.14640E+05
 0.49749996E+02 -0.15054E+05
 0.49799995E+02 -0.15875E+05
 0.49849998E+02 -0.17156E+05
 0.49899998E+02 -0.17669E+05
 0.49949997E+02 -0.18692E+05
 0.49999996E+02 -0.19302E+05
 0.50049995E+02 -0.16600E+05
 0.50099998E+02 -0.14131E+05
 0.50149998E+02 -0.14717E+05
 0.50199997E+02 -0.15893E+05
 0.50249996E+02 -0.15923E+05
 0.50299995E+02 -0.14126E+05
 0.50349998E+02 -0.12875E+05
 0.50399998E+02 -0.13409E+05
 0.50449997E+02 -0.14253E+05
 0.50499996E+02 -0.16443E+05
 0.50549995E+02 -0.16740E+05
 0.50599998E+02 -0.14952E+05
 0.50649998E+02 -0.15275E+05
 0.50699997E+02 -0.15413E+05
 0.50749996E+02 -0.14462E+05
 0.50799995E+02 -0.12666E+05
 0.50849998E+02 -0.11323E+05
 0.50899998E+02 -0.11786E+05
 0.50949997E+02 -0.12603E+05
 0.50999996E+02 -0.13159E+05
 0.51049995E+02 -0.11749E+05
 0.51099998E+02 -0.96219E+04
 0.51149998E+02 -0.11342E+05
 0.51199997E+02 -0.14602E+05
 0.51249996E+02 -0.15863E+05
 0.51299995E+02 -0.17343E+05
 0.51349998E+02 -0.17775E+05
 0.51399998E+02 -0.17820E+05
 0.51449997E+02 -0.17693E+05
 0.51499996E+02 -0.15639E+05
 0.51549995E+02 -0.13845E+05
 0.51599998E+02 -0.14555E+05
 0.51649998E+02 -0.14208E+05
 0.51699997E+02 -0.12910E+05
 0.51749996E+02 -0.13480E+05
 0.51799995E+02 -0.14389E+05
 0.51849998E+02 -0.15494E+05
 0.51899998E+02 -0.16260E+05
 0.51949997E+02 -0.17118E+05
 0.51999996E+02 -0.17850E+05
 0.52049995E+02 -0.18331E+05
 0.52099998E+02 -0.17334E+05
 0.52149998E+02 -0.15097E+05
 0.52199997E+02 -0.14263E+05
 0.52249996E+02 -0.15601E+05
 0.52299995E+02 -0.15350E+05
 0.52349998E+02 -0.13010E+05
 0.52399998E+02 -0.13091E+05
 0.52449997E+02 -0.13779E+05
 0.52499996E+02 -0.14825E+05
 0.52549995E+02 -0.17175E+05
 0.52599998E+02 -0.18675E+05
 0.52649998E+02 -0.16767E+05
 0.52699997E+02 -0.14413E+05
 0.52749996E+02 -0.13959E+05
 0.52799995E+02 -0.14427E+05
 0.52849998E+02 -0.16192E+05
 0.52899998E+02 -0.16101E+05
 0.52949997E+02 -0.15386E+05
 0.52999996E+02 -0.16162E+05
 0.53049995E+02 -0.16946E+05
 0.53099998E+02 -0.15686E+05
 0.53149998E+02 -0.16377E+05
 0.53199997E+02 -0.16546E+05
 0.53249996E+02 -0.15579E+05
 0.53299995E+02 -0.14710E+05
 0.53349998E+02 -0.14788E+05
 0.53399998E+02 -0.15447E+05
 0.53449997E+02 -0.14093E+05
 0.53499996E+02 -0.12935E+05
 0.53549995E+02 -0.11975E+05
 0.53599998E+02 -0.13365E+05
 0.53649998E+02 -0.13959E+05
 0.53699997E+02 -0.13160E+05
 0.53749996E+02 -0.13489E+05
 0.53799995E+02 -0.15309E+05
 0.53849998E+02 -0.18262E+05
 0.53899998E+02 -0.17611E+05
 0.53949997E+02 -0.16611E+05
 0.53999996E+02 -0.16779E+05
 0.54049995E+02 -0.14991E+05
 0.54099998E+02 -0.13354E+05
 0.54149998E+02 -0.11705E+05
 0.54199997E+02 -0.11274E+05
 0.54249996E+02 -0.12652E+05
 0.54299995E+02 -0.14414E+05
 0.54349998E+02 -0.15996E+05
 0.54399998E+02 -0.16923E+05
 0.54449997E+02 -0.17169E+05
 0.54499996E+02 -0.17237E+05
 0.54549995E+02 -0.16327E+05
 0.54599998E+02 -0.15551E+05
 0.54649998E+02 -0.14434E+05
 0.54699997E+02 -0.13391E+05
 0.54749996E+02 -0.12077E+05
 0.54799995E+02 -0.11746E+05
 0.54849998E+02 -0.12460E+05
 0.54899998E+02 -0.12834E+05
 0.54949997E+02 -0.14196E+05
 0.54999996E+02 -0.13936E+05
 0.55049995E+02 -0.13782E+05
 0.55099998E+02 -0.15885E+05
 0.55149998E+02 -0.17653E+05
 0.55199997E+02 -0.17145E+05
 0.55249996E+02 -0.17636E+05
 0.55299995E+02 -0.17988E+05
 0.55349998E+02 -0.17188E+05
 0.55399998E+02 -0.16618E+05
 0.55449997E+02 -0.15718E+05
 0.55499996E+02 -0.14867E+05
 0.55549995E+02 -0.14973E+05
 0.55599998E+02 -0.15855E+05
 0.55649998E+02 -0.15649E+05
 0.55699997E+02 -0.15404E+05
 0.55749996E+02 -0.15545E+05
 0.55799995E+02 -0.15614E+05
 0.55849995E+02 -0.16032E+05
 0.55899998E+02 -0.15613E+05
 0.55949997E+02 -0.14801E+05
 0.55999996E+02 -0.14595E+05
 0.56049995E+02 -0.14707E+05
 0.56099995E+02 -0.13747E+05
 0.56149998E+02 -0.14140E+05
 0.56199997E+02 -0.15533E+05
 0.56249996E+02 -0.16014E+05
 0.56299995E+02 -0.16444E+05
 0.56349995E+02 -0.16153E+05
 0.56399998E+02 -0.15961E+05
 0.56449997E+02 -0.14351E+05
 0.56499996E+02 -0.13489E+05
 0.56549995E+02 -0.13396E+05
 0.56599995E+02 -0.12773E+05
 0.56649998E+02 -0.11894E+05
 0.56699997E+02 -0.12391E+05
 0.56749996E+02 -0.13421E+05
 0.56799995E+02 -0.13622E+05
 0.56849995E+02 -0.14259E+05
 0.56899998E+02 -0.14439E+05
 0.56949997E+02 -0.15167E+05
 0.56999996E+02 -0.16565E+05
 0.57049995E+02 -0.18405E+05
 0.57099995E+02 -0.20226E+05
 0.57149998E+02 -0.20060E+05
 0.57199997E+02 -0.17084E+05
 0.57249996E+02 -0.15110E+05
 0.57299995E+02 -0.14681E+05
 0.57349995E+02 -0.12544E+05
 0.57399998E+02 -0.10464E+05
 0.57449997E+02 -0.91411E+04
 0.57499996E+02 -0.89293E+04
 0.57549995E+02 -0.98203E+04
 0.57599995E+02 -0.11984E+05
 0.57649998E+02 -0.14915E+05
 0.57699997E+02 -0.17218E+05
 0.57749996E+02 -0.19000E+05
 0.57799995E+02 -0.19164E+05
 0.57849995E+02 -0.18606E+05
 0.57899998E+02 -0.16905E+05
 0.57949997E+02 -0.15981E+05
 0.57999996E+02 -0.15367E+05
 0.58049995E+02 -0.14446E+05
 0.58099995E+02 -0.14535E+05
 0.58149998E+02 -0.14310E+05
 0.58199997E+02 -0.14193E+05
 0.58249996E+02 -0.14415E+05
 0.58299995E+02 -0.14440E+05
 0.58349995E+02 -0.14462E+05
 0.58399998E+02 -0.13836E+05
 0.58449997E+02 -0.13122E+05
 0.58499996E+02 -0.13252E+05
 0.58549995E+02 -0.13334E+05
 0.58599995E+02 -0.13279E+05
 0.58649998E+02 -0.14361E+05
 0.58699997E+02 -0.15789E+05
 0.58749996E+02 -0.15238E+05
 0.58799995E+02 -0.14743E+05
 0.58849995E+02 -0.14145E+05
 0.58899998E+02 -0.14531E+05
 0.58949997E+02 -0.14882E+05
 0.58999996E+02 -0.14611E+05
 0.59049995E+02 -0.14783E+05
 0.59099995E+02 -0.15002E+05
 0.59149998E+02 -0.14790E+05
 0.59199997E+02 -0.13501E+05
 0.59249996E+02 -0.13888E+05
 0.59299995E+02 -0.15426E+05
 0.59349995E+02 -0.16765E+05
 0.59399998E+02 -0.17915E+05
 0.59449997E+02 -0.18624E+05
 0.59499996E+02 -0.18087E+05
 0.59549995E+02 -0.16980E+05
 0.59599995E+02 -0.15734E+05
 0.59649998E+02 -0.14931E+05
 0.59699997E+02 -0.15064E+05
 0.59749996E+02 -0.15158E+05
 0.59799995E+02 -0.15187E+05
 0.59849995E+02 -0.13903E+05
 0.59899998E+02 -0.11529E+05
 0.59949997E+02 -0.10213E+05
 0.59999996E+02 -0.10242E+05
 0.60049995E+02 -0.10425E+05
 0.60099995E+02 -0.11878E+05
 0.60149998E+02 -0.14308E+05
 0.60199997E+02 -0.16948E+05
 0.60249996E+02 -0.18426E+05
 0.60299995E+02 -0.18658E+05
 0.60349995E+02 -0.18319E+05
 0.60399998E+02 -0.18141E+05
 0.60449997E+02 -0.18192E+05
 0.60499996E+02 -0.16820E+05
 0.60549995E+02 -0.16162E+05
 0.60599995E+02 -0.16490E+05
 0.60649998E+02 -0.16709E+05
 0.60699997E+02 -0.16524E+05
 0.60749996E+02 -0.16651E+05
 0.60799995E+02 -0.16230E+05
 0.60849995E+02 -0.15325E+05
 0.60899998E+02 -0.15156E+05
 0.60949997E+02 -0.14761E+05
 0.60999996E+02 -0.14830E+05
 0.61049995E+02 -0.15401E+05
 0.61099995E+02 -0.15042E+05
 0.61149998E+02 -0.15170E+05
 0.61199997E+02 -0.15150E+05
 0.61249996E+02 -0.13696E+05
 0.61299995E+02 -0.13340E+05
 0.61349995E+02 -0.13267E+05
 0.61399998E+02 -0.12390E+05
 0.61449997E+02 -0.12556E+05
 0.61499996E+02 -0.13383E+05
 0.61549995E+02 -0.13861E+05
 0.61599995E+02 -0.13351E+05
 0.61649998E+02 -0.13128E+05
 0.61699997E+02 -0.13845E+05
 0.61749996E+02 -0.14833E+05
 0.61799995E+02 -0.16503E+05
 0.61849995E+02 -0.17926E+05
 0.61899998E+02 -0.18002E+05
 0.61949997E+02 -0.17683E+05
 0.61999996E+02 -0.17554E+05
 0.62049995E+02 -0.17533E+05
 0.62099998E+02 -0.17976E+05
 0.62149994E+02 -0.17876E+05
 0.62199997E+02 -0.17174E+05
 0.62249992E+02 -0.16155E+05
 0.62299995E+02 -0.14920E+05
 0.62349998E+02 -0.13824E+05
 0.62399994E+02 -0.12580E+05
 0.62449997E+02 -0.11939E+05
 0.62499992E+02 -0.12051E+05
 0.62549995E+02 -0.12983E+05
 0.62599998E+02 -0.14466E+05
 0.62649994E+02 -0.15625E+05
 0.62699997E+02 -0.16172E+05
 0.62749992E+02 -0.16355E+05
 0.62799995E+02 -0.16506E+05
 0.62849998E+02 -0.16586E+05
 0.62899994E+02 -0.16365E+05
 0.62949997E+02 -0.15427E+05
 0.62999992E+02 -0.14910E+05
 0.63049995E+02 -0.14892E+05
 0.63099998E+02 -0.14261E+05
 0.63149994E+02 -0.13545E+05
 0.63199997E+02 -0.12748E+05
 0.63249992E+02 -0.12761E+05
 0.63299995E+02 -0.13789E+05
 0.63349998E+02 -0.14828E+05
 0.63399994E+02 -0.15832E+05
 0.63449997E+02 -0.16165E+05
 0.63499992E+02 -0.16554E+05
 0.63549995E+02 -0.16501E+05
 0.63599998E+02 -0.16058E+05
 0.63649994E+02 -0.16137E+05
 0.63699997E+02 -0.15610E+05
 0.63749992E+02 -0.14938E+05
 0.63799995E+02 -0.14600E+05
 0.63849998E+02 -0.14384E+05
 0.63899994E+02 -0.14129E+05
 0.63949997E+02 -0.12654E+05
 0.63999992E+02 -0.11249E+05
 0.64049995E+02 -0.11493E+05
 0.64099998E+02 -0.12615E+05
 0.64149994E+02 -0.13978E+05
 0.64199997E+02 -0.15940E+05
 0.64249992E+02 -0.18088E+05
 0.64299995E+02 -0.19229E+05
 0.64349998E+02 -0.19367E+05
 0.64399994E+02 -0.18538E+05
 0.64449997E+02 -0.17406E+05
 0.64499992E+02 -0.16389E+05
 0.64549995E+02 -0.15071E+05
 0.64599998E+02 -0.13917E+05
 0.64649994E+02 -0.13386E+05
 0.64699997E+02 -0.13606E+05
 0.64749992E+02 -0.13985E+05
 0.64799995E+02 -0.14612E+05
 0.64849998E+02 -0.15191E+05
 0.64899994E+02 -0.15540E+05
 0.64949997E+02 -0.16143E+05
 0.64999992E+02 -0.16926E+05
 0.65049995E+02 -0.17168E+05
 0.65099998E+02 -0.16849E+05
 0.65149994E+02 -0.15881E+05
 0.65199997E+02 -0.14558E+05
 0.65249992E+02 -0.13732E+05
 0.65299995E+02 -0.12712E+05
 0.65349998E+02 -0.12541E+05
 0.65399994E+02 -0.13081E+05
 0.65449997E+02 -0.13674E+05
 0.65499992E+02 -0.14244E+05
 0.65549995E+02 -0.14466E+05
 0.65599998E+02 -0.13955E+05
 0.65649994E+02 -0.13946E+05
 0.65699997E+02 -0.14033E+05
 0.65749992E+02 -0.13540E+05
 0.65799995E+02 -0.13409E+05
 0.65849998E+02 -0.14012E+05
 0.65899994E+02 -0.14828E+05
 0.65949997E+02 -0.15174E+05
 0.65999992E+02 -0.15429E+05
 0.66049995E+02 -0.15381E+05
 0.66099998E+02 -0.15221E+05
 0.66149994E+02 -0.15217E+05
 0.66199997E+02 -0.15096E+05
 0.66249992E+02 -0.14718E+05
 0.66299995E+02 -0.14497E+05
 0.66349998E+02 -0.14069E+05
 0.66399994E+02 -0.14237E+05
 0.66449997E+02 -0.14656E+05
 0.66499992E+02 -0.15164E+05
 0.66549995E+02 -0.15398E+05
 0.66599998E+02 -0.15071E+05
 0.66649994E+02 -0.14879E+05
 0.66699997E+02 -0.14725E+05
 0.66749992E+02 -0.14245E+05
 0.66799995E+02 -0.13852E+05
 0.66849998E+02 -0.13882E+05
 0.66899994E+02 -0.14023E+05
 0.66949997E+02 -0.14330E+05
 0.66999992E+02 -0.14451E+05
 0.67049995E+02 -0.14164E+05
 0.67099998E+02 -0.13536E+05
 0.67149994E+02 -0.13141E+05
 0.67199997E+02 -0.13318E+05
 0.67249992E+02 -0.14227E+05
 0.67299995E+02 -0.14623E+05
 0.67349998E+02 -0.14642E+05
 0.67399994E+02 -0.14926E+05
 0.67449997E+02 -0.15019E+05
 0.67499992E+02 -0.15286E+05
 0.67549995E+02 -0.15425E+05
 0.67599998E+02 -0.15250E+05
 0.67649994E+02 -0.14968E+05
 0.67699997E+02 -0.14672E+05
 0.67749992E+02 -0.14913E+05
 0.67799995E+02 -0.14987E+05
 0.67849998E+02 -0.14838E+05
 0.67899994E+02 -0.15339E+05
 0.67949997E+02 -0.15845E+05
 0.67999992E+02 -0.16015E+05
 0.68049995E+02 -0.16071E+05
 0.68099998E+02 -0.15731E+05
 0.68149994E+02 -0.15272E+05
 0.68199997E+02 -0.15367E+05
 0.68249992E+02 -0.15329E+05
 0.68299995E+02 -0.15226E+05
 0.68349998E+02 -0.15252E+05
 0.68399994E+02 -0.15399E+05
 0.68449997E+02 -0.15432E+05
 0.68499992E+02 -0.15179E+05
 0.68549995E+02 -0.15080E+05
 0.68599998E+02 -0.15116E+05
 0.68649994E+02 -0.15260E+05
 0.68699997E+02 -0.14958E+05
 0.68749992E+02 -0.14702E+05
 0.68799995E+02 -0.15073E+05
 0.68849998E+02 -0.15573E+05
 0.68899994E+02 -0.16006E+05
 0.68949997E+02 -0.16779E+05
 0.68999992E+02 -0.17434E+05
 0.69049995E+02 -0.17865E+05
 0.69099998E+02 -0.18061E+05
 0.69149994E+02 -0.18038E+05
 0.69199997E+02 -0.17594E+05
 0.69249992E+02 -0.17101E+05
 0.69299995E+02 -0.16798E+05
 0.69349998E+02 -0.16507E+05
 0.69399994E+02 -0.16305E+05
 0.69449997E+02 -0.16223E+05
 0.69499992E+02 -0.16139E+05
 0.69549995E+02 -0.15840E+05
 0.69599998E+02 -0.15559E+05
 0.69649994E+02 -0.14762E+05
 0.69699997E+02 -0.13773E+05
 0.69749992E+02 -0.13068E+05
 0.69799995E+02 -0.12376E+05
 0.69849998E+02 -0.11791E+05
 0.69899994E+02 -0.11467E+05
 0.69949997E+02 -0.11933E+05
 0.69999992E+02 -0.12772E+05
 0.70049995E+02 -0.13265E+05
 0.70099998E+02 -0.14091E+05
 0.70149994E+02 -0.15081E+05
 0.70199997E+02 -0.15641E+05
 0.70249992E+02 -0.15753E+05
 0.70299995E+02 -0.15939E+05
 0.70349998E+02 -0.15998E+05
 0.70399994E+02 -0.16088E+05
 0.70449997E+02 -0.15987E+05
 0.70499992E+02 -0.15788E+05
 0.70549995E+02 -0.16032E+05
 0.70599998E+02 -0.16321E+05
 0.70649994E+02 -0.16558E+05
 0.70699997E+02 -0.16877E+05
 0.70749992E+02 -0.16484E+05
 0.70799995E+02 -0.15503E+05
 0.70849998E+02 -0.14894E+05
 0.70899994E+02 -0.14014E+05
 0.70949997E+02 -0.13777E+05
 0.70999992E+02 -0.13966E+05
 0.71049995E+02 -0.14034E+05
 0.71099998E+02 -0.14149E+05
 0.71149994E+02 -0.14248E+05
 0.71199997E+02 -0.14070E+05
 0.71249992E+02 -0.13855E+05
 0.71299995E+02 -0.13773E+05
 0.71349998E+02 -0.13277E+05
 0.71399994E+02 -0.13508E+05
 0.71449997E+02 -0.13638E+05
 0.71499992E+02 -0.13550E+05
 0.71549995E+02 -0.14041E+05
 0.71599998E+02 -0.14802E+05
 0.71649994E+02 -0.15485E+05
 0.71699997E+02 -0.15936E+05
 0.71749992E+02 -0.16076E+05
 0.71799995E+02 -0.16154E+05
 0.71849998E+02 -0.15965E+05
 0.71899994E+02 -0.15418E+05
 0.71949997E+02 -0.15114E+05
 0.71999992E+02 -0.15105E+05
 0.72049995E+02 -0.15046E+05
 0.72099998E+02 -0.14693E+05
 0.72149994E+02 -0.14149E+05
 0.72199997E+02 -0.13908E+05
 0.72249992E+02 -0.14127E+05
 0.72299995E+02 -0.14621E+05
 0.72349998E+02 -0.14974E+05
 0.72399994E+02 -0.14963E+05
 0.72449997E+02 -0.15123E+05
 0.72499992E+02 -0.14940E+05
 0.72549995E+02 -0.14907E+05
 0.72599998E+02 -0.15043E+05
 0.72649994E+02 -0.15212E+05
 0.72699997E+02 -0.15522E+05
 0.72749992E+02 -0.15780E+05
 0.72799995E+02 -0.16076E+05
 0.72849998E+02 -0.16162E+05
 0.72899994E+02 -0.15590E+05
 0.72949997E+02 -0.15053E+05
 0.72999992E+02 -0.14753E+05
 0.73049995E+02 -0.14210E+05
 0.73099998E+02 -0.13738E+05
 0.73149994E+02 -0.13866E+05
 0.73199997E+02 -0.14381E+05
 0.73249992E+02 -0.14854E+05
 0.73299995E+02 -0.15572E+05
 0.73349998E+02 -0.16016E+05
 0.73399994E+02 -0.16288E+05
 0.73449997E+02 -0.16981E+05
 0.73499992E+02 -0.17364E+05
 0.73549995E+02 -0.16783E+05
 0.73599998E+02 -0.16099E+05
 0.73649994E+02 -0.15114E+05
 0.73699997E+02 -0.13741E+05
 0.73749992E+02 -0.13083E+05
 0.73799995E+02 -0.12947E+05
 0.73849998E+02 -0.13243E+05
 0.73899994E+02 -0.14189E+05
 0.73949997E+02 -0.14776E+05
 0.73999992E+02 -0.15112E+05
 0.74049995E+02 -0.15567E+05
 0.74099998E+02 -0.15898E+05
 0.74149994E+02 -0.16429E+05
 0.74199997E+02 -0.16531E+05
 0.74249992E+02 -0.16306E+05
 0.74299995E+02 -0.16271E+05
 0.74349998E+02 -0.15612E+05
 0.74399994E+02 -0.14905E+05
 0.74449997E+02 -0.14749E+05
 0.74499992E+02 -0.14623E+05
 0.74549995E+02 -0.14725E+05
 0.74599998E+02 -0.14946E+05
 0.74649994E+02 -0.15208E+05
 0.74699997E+02 -0.15486E+05
 0.74749992E+02 -0.15189E+05
 0.74799995E+02 -0.14385E+05
 0.74849998E+02 -0.13892E+05
 0.74899994E+02 -0.13786E+05
 0.74949997E+02 -0.14081E+05
 0.74999992E+02 -0.14410E+05
 0.75049995E+02 -0.14527E+05
 0.75099998E+02 -0.14888E+05
 0.75149994E+02 -0.14659E+05
 0.75199997E+02 -0.14394E+05
 0.75249992E+02 -0.14290E+05
 0.75299995E+02 -0.14108E+05
 0.75349998E+02 -0.13855E+05
 0.75399994E+02 -0.13600E+05
 0.75449997E+02 -0.13635E+05
 0.75499992E+02 -0.14152E+05
 0.75549995E+02 -0.14499E+05
 0.75599998E+02 -0.14969E+05
 0.75649994E+02 -0.15839E+05
 0.75699997E+02 -0.16144E+05
 0.75749992E+02 -0.16167E+05
 0.75799995E+02 -0.15917E+05
 0.75849998E+02 -0.15699E+05
 0.75899994E+02 -0.15610E+05
 0.75949997E+02 -0.15782E+05
 0.75999992E+02 -0.15639E+05
 0.76049995E+02 -0.15550E+05
 0.76099998E+02 -0.15411E+05
 0.76149994E+02 -0.15422E+05
 0.76199997E+02 -0.15608E+05
 0.76249992E+02 -0.15564E+05
 0.76299995E+02 -0.15197E+05
 0.76349998E+02 -0.15017E+05
 0.76399994E+02 -0.15233E+05
 0.76449997E+02 -0.15312E+05
 0.76499992E+02 -0.15515E+05
 0.76549995E+02 -0.15698E+05
 0.76599998E+02 -0.15907E+05
 0.76649994E+02 -0.15768E+05
 0.76699997E+02 -0.15340E+05
 0.76749992E+02 -0.14896E+05
 0.76799995E+02 -0.14468E+05
 0.76849998E+02 -0.14144E+05
 0.76899994E+02 -0.13947E+05
 0.76949997E+02 -0.13904E+05
 0.76999992E+02 -0.13815E+05
 0.77049995E+02 -0.13990E+05
 0.77099998E+02 -0.14159E+05
 0.77149994E+02 -0.14156E+05
 0.77199997E+02 -0.14208E+05
 0.77249992E+02 -0.14263E+05
 0.77299995E+02 -0.14368E+05
 0.77349998E+02 -0.14400E+05
 0.77399994E+02 -0.14661E+05
 0.77449997E+02 -0.14554E+05
 0.77499992E+02 -0.14253E+05
 0.77549995E+02 -0.14239E+05
 0.77599998E+02 -0.14109E+05
 0.77649994E+02 -0.13627E+05
 0.77699997E+02 -0.14028E+05
 0.77749992E+02 -0.14360E+05
 0.77799995E+02 -0.14391E+05
 0.77849998E+02 -0.15121E+05
 0.77899994E+02 -0.15806E+05
 0.77949997E+02 -0.16415E+05
 0.77999992E+02 -0.17047E+05
 0.78049995E+02 -0.17270E+05
 0.78099998E+02 -0.17054E+05
 0.78149994E+02 -0.17008E+05
 0.78199997E+02 -0.16623E+05
 0.78249992E+02 -0.16057E+05
 0.78299995E+02 -0.15834E+05
 0.78349998E+02 -0.15854E+05
 0.78399994E+02 -0.15601E+05
 0.78449997E+02 -0.15108E+05
 0.78499992E+02 -0.14647E+05
 0.78549995E+02 -0.14342E+05
 0.78599998E+02 -0.14347E+05
 0.78649994E+02 -0.14069E+05
 0.78699997E+02 -0.13994E+05
 0.78749992E+02 -0.14349E+05
 0.78799995E+02 -0.14586E+05
 0.78849998E+02 -0.14560E+05
 0.78899994E+02 -0.14254E+05
 0.78949997E+02 -0.14074E+05
 0.78999992E+02 -0.14685E+05
 0.79049995E+02 -0.15006E+05
 0.79099998E+02 -0.14993E+05
 0.79149994E+02 -0.15289E+05
 0.79199997E+02 -0.15360E+05
 0.79249992E+02 -0.15699E+05
 0.79299995E+02 -0.15853E+05
 0.79349998E+02 -0.16030E+05
 0.79399994E+02 -0.15950E+05
 0.79449997E+02 -0.15381E+05
 0.79499992E+02 -0.14822E+05
 0.79549995E+02 -0.14413E+05
 0.79599998E+02 -0.14408E+05
 0.79649994E+02 -0.14320E+05
 0.79699997E+02 -0.14508E+05
 0.79749992E+02 -0.14753E+05
 0.79799995E+02 -0.14804E+05
 0.79849998E+02 -0.15119E+05
 0.79899994E+02 -0.15478E+05
 0.79949997E+02 -0.15783E+05
 0.79999992E+02 -0.16283E+05
 0.80049995E+02 -0.16511E+05
 0.80099998E+02 -0.16390E+05
 0.80149994E+02 -0.16512E+05
 0.80199997E+02 -0.16331E+05
 0.80249992E+02 -0.15716E+05
 0.80299995E+02 -0.15204E+05
 0.80349998E+02 -0.14828E+05
 0.80399994E+02 -0.14290E+05
 0.80449997E+02 -0.14114E+05
 0.80499992E+02 -0.14059E+05
 0.80549995E+02 -0.14400E+05
 0.80599998E+02 -0.14797E+05
 0.80649994E+02 -0.14709E+05
 0.80699997E+02 -0.14810E+05
 0.80749992E+02 -0.14939E+05
 0.80799995E+02 -0.15067E+05
 0.80849998E+02 -0.15047E+05
 0.80899994E+02 -0.15222E+05
 0.80949997E+02 -0.15337E+05
 0.80999992E+02 -0.15158E+05
 0.81049995E+02 -0.15171E+05
 0.81099998E+02 -0.15243E+05
 0.81149994E+02 -0.14591E+05
 0.81199997E+02 -0.14298E+05
 0.81249992E+02 -0.14545E+05
 0.81299995E+02 -0.14474E+05
 0.81349998E+02 -0.14594E+05
 0.81399994E+02 -0.14743E+05
 0.81449997E+02 -0.14692E+05
 0.81499992E+02 -0.14574E+05
 0.81549995E+02 -0.14731E+05
 0.81599998E+02 -0.15070E+05
 0.81649994E+02 -0.15358E+05
 0.81699997E+02 -0.15363E+05
 0.81749992E+02 -0.15218E+05
 0.81799995E+02 -0.14807E+05
 0.81849998E+02 -0.14244E+05
 0.81899994E+02 -0.13939E+05
 0.81949997E+02 -0.13667E+05
 0.81999992E+02 -0.13718E+05
 0.82049995E+02 -0.14117E+05
 0.82099998E+02 -0.14360E+05
 0.82149994E+02 -0.14483E+05
 0.82199997E+02 -0.14865E+05
 0.82249992E+02 -0.15113E+05
 0.82299995E+02 -0.15241E+05
 0.82349998E+02 -0.15848E+05
 0.82399994E+02 -0.16130E+05
 0.82449997E+02 -0.15928E+05
 0.82499992E+02 -0.15947E+05
 0.82549995E+02 -0.16086E+05
 0.82599998E+02 -0.15874E+05
 0.82649994E+02 -0.15626E+05
 0.82699997E+02 -0.15562E+05
 0.82749992E+02 -0.15593E+05
 0.82799995E+02 -0.15331E+05
 0.82849998E+02 -0.14779E+05
 0.82899994E+02 -0.14842E+05
 0.82949997E+02 -0.14687E+05
 0.82999992E+02 -0.14346E+05
 0.83049995E+02 -0.14376E+05
 0.83099998E+02 -0.14179E+05
 0.83149994E+02 -0.14334E+05
 0.83199997E+02 -0.14646E+05
 0.83249992E+02 -0.14448E+05
 0.83299995E+02 -0.14211E+05
 0.83349998E+02 -0.14141E+05
 0.83399994E+02 -0.14193E+05
 0.83449997E+02 -0.14552E+05
 0.83499992E+02 -0.14834E+05
 0.83549995E+02 -0.15034E+05
 0.83599998E+02 -0.15694E+05
 0.83649994E+02 -0.16040E+05
 0.83699997E+02 -0.16171E+05
 0.83749992E+02 -0.16342E+05
 0.83799995E+02 -0.16470E+05
 0.83849998E+02 -0.16303E+05
 0.83899994E+02 -0.15537E+05
 0.83949997E+02 -0.15308E+05
 0.83999992E+02 -0.15228E+05
 0.84049995E+02 -0.14769E+05
 0.84099998E+02 -0.14514E+05
 0.84149994E+02 -0.14366E+05
 0.84199997E+02 -0.14539E+05
 0.84249992E+02 -0.14497E+05
 0.84299995E+02 -0.14624E+05
 0.84349998E+02 -0.15276E+05
 0.84399994E+02 -0.15784E+05
 0.84449997E+02 -0.15843E+05
 0.84499992E+02 -0.15795E+05
 0.84549995E+02 -0.15661E+05
 0.84599998E+02 -0.15011E+05
 0.84649994E+02 -0.14396E+05
 0.84699997E+02 -0.14257E+05
 0.84749992E+02 -0.14085E+05
 0.84799995E+02 -0.13591E+05
 0.84849998E+02 -0.13333E+05
 0.84899994E+02 -0.13387E+05
 0.84949997E+02 -0.13504E+05
 0.84999992E+02 -0.13953E+05
 0.85049995E+02 -0.14315E+05
 0.85099998E+02 -0.14419E+05
 0.85149994E+02 -0.14721E+05
 0.85199997E+02 -0.14866E+05
 0.85249992E+02 -0.14711E+05
 0.85299995E+02 -0.14792E+05
 0.85349998E+02 -0.14883E+05
 0.85399994E+02 -0.14837E+05
 0.85449997E+02 -0.15074E+05
 0.85499992E+02 -0.15135E+05
 0.85549995E+02 -0.15196E+05
 0.85599998E+02 -0.15330E+05
 0.85649994E+02 -0.15271E+05
 0.85699997E+02 -0.15138E+05
 0.85749992E+02 -0.15049E+05
 0.85799995E+02 -0.14777E+05
 0.85849998E+02 -0.14665E+05
 0.85899994E+02 -0.14874E+05
 0.85949997E+02 -0.15282E+05
 0.85999992E+02 -0.15512E+05
 0.86049995E+02 -0.15685E+05
 0.86099998E+02 -0.15956E+05
 0.86149994E+02 -0.16243E+05
 0.86199997E+02 -0.16674E+05
 0.86249992E+02 -0.16567E+05
 0.86299995E+02 -0.16276E+05
 0.86349998E+02 -0.16174E+05
 0.86399994E+02 -0.15978E+05
 0.86449997E+02 -0.15589E+05
 0.86499992E+02 -0.15567E+05
 0.86549995E+02 -0.15793E+05
 0.86599998E+02 -0.15994E+05
 0.86649994E+02 -0.16255E+05
 0.86699997E+02 -0.15871E+05
 0.86749992E+02 -0.15633E+05
 0.86799995E+02 -0.15574E+05
 0.86849998E+02 -0.15276E+05
 0.86899994E+02 -0.14967E+05
 0.86949997E+02 -0.14768E+05
 0.86999992E+02 -0.14753E+05
 0.87049995E+02 -0.14797E+05
 0.87099998E+02 -0.14841E+05
 0.87149994E+02 -0.14675E+05
 0.87199997E+02 -0.14441E+05
 0.87249992E+02 -0.14407E+05
 0.87299995E+02 -0.14616E+05
 0.87349998E+02 -0.14475E+05
 0.87399994E+02 -0.14597E+05
 0.87449997E+02 -0.14679E+05
 0.87499992E+02 -0.14396E+05
 0.87549995E+02 -0.14595E+05
 0.87599991E+02 -0.14759E+05
 0.87649994E+02 -0.14623E+05
 0.87699997E+02 -0.14565E+05
 0.87749992E+02 -0.14741E+05
 0.87799995E+02 -0.14876E+05
 0.87849991E+02 -0.14827E+05
 0.87899994E+02 -0.14842E+05
 0.87949997E+02 -0.15042E+05
 0.87999992E+02 -0.14909E+05
 0.88049995E+02 -0.14618E+05
 0.88099991E+02 -0.14390E+05
 0.88149994E+02 -0.14506E+05
 0.88199997E+02 -0.14855E+05
 0.88249992E+02 -0.15061E+05
 0.88299995E+02 -0.15036E+05
 0.88349991E+02 -0.14880E+05
 0.88399994E+02 -0.15183E+05
 0.88449997E+02 -0.15294E+05
 0.88499992E+02 -0.15291E+05
 0.88549995E+02 -0.14995E+05
 0.88599991E+02 -0.14721E+05
 0.88649994E+02 -0.14812E+05
 0.88699997E+02 -0.14767E+05
 0.88749992E+02 -0.14395E+05
 0.88799995E+02 -0.14085E+05
 0.88849991E+02 -0.13880E+05
 0.88899994E+02 -0.13705E+05
 0.88949997E+02 -0.13908E+05
 0.88999992E+02 -0.14466E+05
 0.89049995E+02 -0.14942E+05
 0.89099991E+02 -0.15289E+05
 0.89149994E+02 -0.15618E+05
 0.89199997E+02 -0.15604E+05
 0.89249992E+02 -0.15316E+05
 0.89299995E+02 -0.15326E+05
 0.89349991E+02 -0.15381E+05
 0.89399994E+02 -0.15388E+05
 0.89449997E+02 -0.15598E+05
 0.89499992E+02 -0.15555E+05
 0.89549995E+02 -0.15952E+05
 0.89599991E+02 -0.16475E+05
 0.89649994E+02 -0.16579E+05
 0.89699997E+02 -0.16468E+05
 0.89749992E+02 -0.16191E+05
 0.89799995E+02 -0.15732E+05
 0.89849991E+02 -0.15459E+05
 0.89899994E+02 -0.15142E+05
 0.89949997E+02 -0.14763E+05
 0.89999992E+02 -0.14489E+05
 0.90049995E+02 -0.13779E+05
 0.90099991E+02 -0.13231E+05
 0.90149994E+02 -0.13073E+05
 0.90199997E+02 -0.13279E+05
 0.90249992E+02 -0.13705E+05
 0.90299995E+02 -0.13969E+05
 0.90349991E+02 -0.14333E+05
 0.90399994E+02 -0.14695E+05
 0.90449997E+02 -0.14787E+05
 0.90499992E+02 -0.15070E+05
 0.90549995E+02 -0.15300E+05
 0.90599991E+02 -0.15233E+05
 0.90649994E+02 -0.15147E+05
 0.90699997E+02 -0.14778E+05
 0.90749992E+02 -0.14533E+05
 0.90799995E+02 -0.14660E+05
 0.90849991E+02 -0.14762E+05
 0.90899994E+02 -0.14772E+05
 0.90949997E+02 -0.14879E+05
 0.90999992E+02 -0.15000E+05
 0.91049995E+02 -0.15145E+05
 0.91099991E+02 -0.15310E+05
 0.91149994E+02 -0.15397E+05
 0.91199997E+02 -0.15050E+05
 0.91249992E+02 -0.14795E+05
 0.91299995E+02 -0.14823E+05
 0.91349991E+02 -0.14634E+05
 0.91399994E+02 -0.14761E+05
 0.91449997E+02 -0.14788E+05
 0.91499992E+02 -0.14953E+05
 0.91549995E+02 -0.15338E+05
 0.91599991E+02 -0.15436E+05
 0.91649994E+02 -0.15556E+05
 0.91699997E+02 -0.15845E+05
 0.91749992E+02 -0.16047E+05
 0.91799995E+02 -0.15913E+05
 0.91849991E+02 -0.15786E+05
 0.91899994E+02 -0.15777E+05
 0.91949997E+02 -0.15914E+05
 0.91999992E+02 -0.16127E+05
 0.92049995E+02 -0.16249E+05
 0.92099991E+02 -0.16229E+05
 0.92149994E+02 -0.16134E+05
 0.92199997E+02 -0.15713E+05
 0.92249992E+02 -0.15329E+05
 0.92299995E+02 -0.15235E+05
 0.92349991E+02 -0.15184E+05
 0.92399994E+02 -0.15172E+05
 0.92449997E+02 -0.15103E+05
 0.92499992E+02 -0.15293E+05
 0.92549995E+02 -0.15568E+05
 0.92599991E+02 -0.15646E+05
 0.92649994E+02 -0.15672E+05
 0.92699997E+02 -0.15391E+05
 0.92749992E+02 -0.15244E+05
 0.92799995E+02 -0.15195E+05
 0.92849991E+02 -0.15025E+05
 0.92899994E+02 -0.14785E+05
 0.92949997E+02 -0.14430E+05
 0.92999992E+02 -0.14436E+05
 0.93049995E+02 -0.14334E+05
 0.93099991E+02 -0.14149E+05
 0.93149994E+02 -0.14134E+05
 0.93199997E+02 -0.14204E+05
 0.93249992E+02 -0.14378E+05
 0.93299995E+02 -0.14495E+05
 0.93349991E+02 -0.14621E+05
 0.93399994E+02 -0.14723E+05
 0.93449997E+02 -0.14758E+05
 0.93499992E+02 -0.14696E+05
 0.93549995E+02 -0.14646E+05
 0.93599991E+02 -0.14630E+05
 0.93649994E+02 -0.14692E+05
 0.93699997E+02 -0.14639E+05
 0.93749992E+02 -0.14382E+05
 0.93799995E+02 -0.14309E+05
 0.93849991E+02 -0.14266E+05
 0.93899994E+02 -0.14209E+05
 0.93949997E+02 -0.14418E+05
 0.93999992E+02 -0.14663E+05
 0.94049995E+02 -0.14761E+05
 0.94099991E+02 -0.14854E+05
 0.94149994E+02 -0.15083E+05
 0.94199997E+02 -0.15181E+05
 0.94249992E+02 -0.15184E+05
 0.94299995E+02 -0.15186E+05
 0.94349991E+02 -0.14900E+05
 0.94399994E+02 -0.14718E+05
 0.94449997E+02 -0.14543E+05
 0.94499992E+02 -0.14427E+05
 0.94549995E+02 -0.14421E+05
 0.94599991E+02 -0.14302E+05
 0.94649994E+02 -0.14360E+05
 0.94699997E+02 -0.14641E+05
 0.94749992E+02 -0.14830E+05
 0.94799995E+02 -0.14939E+05
 0.94849991E+02 -0.15197E+05
 0.94899994E+02 -0.15469E+05
 0.94949997E+02 -0.15537E+05
 0.94999992E+02 -0.15476E+05
 0.95049995E+02 -0.15256E+05
 0.95099991E+02 -0.14905E+05
 0.95149994E+02 -0.14599E+05
 0.95199997E+02 -0.14482E+05
 0.95249992E+02 -0.14381E+05
 0.95299995E+02 -0.14408E+05
 0.95349991E+02 -0.14567E+05
 0.95399994E+02 -0.14669E+05
 0.95449997E+02 -0.14792E+05
 0.95499992E+02 -0.14925E+05
 0.95549995E+02 -0.15084E+05
 0.95599991E+02 -0.15075E+05
 0.95649994E+02 -0.15091E+05
 0.95699997E+02 -0.15207E+05
 0.95749992E+02 -0.15299E+05
 0.95799995E+02 -0.15298E+05
 0.95849991E+02 -0.15335E+05
 0.95899994E+02 -0.15368E+05
 0.95949997E+02 -0.15477E+05
 0.95999992E+02 -0.15661E+05
 0.96049995E+02 -0.15855E+05
 0.96099991E+02 -0.16129E+05
 0.96149994E+02 -0.16387E+05
 0.96199997E+02 -0.16453E+05
 0.96249992E+02 -0.16475E+05
 0.96299995E+02 -0.16566E+05
 0.96349991E+02 -0.16405E+05
 0.96399994E+02 -0.15969E+05
 0.96449997E+02 -0.15640E+05
 0.96499992E+02 -0.15342E+05
 0.96549995E+02 -0.15057E+05
 0.96599991E+02 -0.14806E+05
 0.96649994E+02 -0.14506E+05
 0.96699997E+02 -0.14488E+05
 0.96749992E+02 -0.14468E+05
 0.96799995E+02 -0.14261E+05
 0.96849991E+02 -0.14208E+05
 0.96899994E+02 -0.14218E+05
 0.96949997E+02 -0.14107E+05
 0.96999992E+02 -0.14136E+05
 0.97049995E+02 -0.14282E+05
 0.97099991E+02 -0.14559E+05
 0.97149994E+02 -0.14840E+05
 0.97199997E+02 -0.14813E+05
 0.97249992E+02 -0.14775E+05
 0.97299995E+02 -0.14869E+05
 0.97349991E+02 -0.15163E+05
 0.97399994E+02 -0.15454E+05
 0.97449997E+02 -0.15505E+05
 0.97499992E+02 -0.15650E+05
 0.97549995E+02 -0.15678E+05
 0.97599991E+02 -0.15583E+05
 0.97649994E+02 -0.15546E+05
 0.97699997E+02 -0.15302E+05
 0.97749992E+02 -0.15159E+05
 0.97799995E+02 -0.15147E+05
 0.97849991E+02 -0.15084E+05
 0.97899994E+02 -0.15284E+05
 0.97949997E+02 -0.15568E+05
 0.97999992E+02 -0.15631E+05
