-0.20000000E+01 -0.10174E+05
-0.19500000E+01 -0.80602E+04
-0.19000000E+01 -0.67463E+04
-0.18500000E+01 -0.58349E+04
-0.18000000E+01 -0.53943E+04
-0.17500000E+01 -0.45818E+04
-0.17000000E+01 -0.26269E+04
-0.16500001E+01 -0.22031E+03
-0.16000000E+01  0.24739E+04
-0.15500000E+01  0.52920E+04
-0.15000000E+01  0.77946E+04
-0.14500000E+01  0.10302E+05
-0.14000001E+01  0.12432E+05
-0.13500000E+01  0.14206E+05
-0.13000001E+01  0.15911E+05
-0.12500000E+01  0.17036E+05
-0.12000000E+01  0.17210E+05
-0.11500001E+01  0.16758E+05
-0.11000000E+01  0.15573E+05
-0.10500001E+01  0.13979E+05
-0.10000000E+01  0.12467E+05
-0.95000005E+00  0.10477E+05
-0.90000010E+00  0.86660E+04
-0.85000002E+00  0.75491E+04
-0.80000007E+00  0.71910E+04
-0.75000012E+00  0.74278E+04
-0.70000005E+00  0.79526E+04
-0.65000010E+00  0.88277E+04
-0.60000014E+00  0.10212E+05
-0.55000007E+00  0.10892E+05
-0.50000012E+00  0.10965E+05
-0.45000005E+00  0.10852E+05
-0.40000010E+00  0.10406E+05
-0.35000014E+00  0.99259E+04
-0.30000007E+00  0.88846E+04
-0.25000012E+00  0.78224E+04
-0.20000005E+00  0.74525E+04
-0.15000010E+00  0.74671E+04
-0.10000014E+00  0.77493E+04
-0.50000072E-01  0.83386E+04
-0.11920929E-06  0.91947E+04
 0.49999952E-01  0.99953E+04
 0.99999905E-01  0.10502E+05
 0.14999986E+00  0.11098E+05
 0.19999981E+00  0.11622E+05
 0.24999976E+00  0.12107E+05
 0.29999995E+00  0.12797E+05
 0.34999990E+00  0.13515E+05
 0.39999986E+00  0.13735E+05
 0.44999981E+00  0.13827E+05
 0.49999976E+00  0.14508E+05
 0.54999995E+00  0.15205E+05
 0.59999990E+00  0.15358E+05
 0.64999986E+00  0.14758E+05
 0.69999981E+00  0.13758E+05
 0.74999976E+00  0.12146E+05
 0.79999971E+00  0.97434E+04
 0.84999990E+00  0.72890E+04
 0.89999986E+00  0.46285E+04
 0.94999981E+00  0.22058E+04
 0.99999976E+00  0.99379E+02
 0.10499997E+01 -0.20009E+04
 0.10999999E+01 -0.41967E+04
 0.11499999E+01 -0.56618E+04
 0.11999998E+01 -0.58736E+04
 0.12499998E+01 -0.53665E+04
 0.12999997E+01 -0.46914E+04
 0.13499999E+01 -0.39559E+04
 0.13999999E+01 -0.32517E+04
 0.14499998E+01 -0.28153E+04
 0.14999998E+01 -0.24836E+04
 0.15499997E+01 -0.26578E+04
 0.15999999E+01 -0.36241E+04
 0.16499999E+01 -0.56178E+04
 0.16999998E+01 -0.80134E+04
 0.17499998E+01 -0.10803E+05
 0.17999997E+01 -0.13869E+05
 0.18499997E+01 -0.16416E+05
 0.18999999E+01 -0.18162E+05
 0.19499998E+01 -0.18907E+05
 0.19999998E+01 -0.19351E+05
 0.20499997E+01 -0.20418E+05
 0.20999999E+01 -0.21574E+05
 0.21499996E+01 -0.22581E+05
 0.21999998E+01 -0.23619E+05
 0.22499995E+01 -0.24794E+05
 0.22999997E+01 -0.25980E+05
 0.23499999E+01 -0.26745E+05
 0.23999996E+01 -0.27023E+05
 0.24499998E+01 -0.26582E+05
 0.24999995E+01 -0.25465E+05
 0.25499997E+01 -0.23977E+05
 0.25999999E+01 -0.22588E+05
 0.26499996E+01 -0.21422E+05
 0.26999998E+01 -0.20457E+05
 0.27499995E+01 -0.19586E+05
 0.27999997E+01 -0.18588E+05
 0.28499999E+01 -0.17163E+05
 0.28999996E+01 -0.16069E+05
 0.29499998E+01 -0.15318E+05
 0.29999995E+01 -0.14167E+05
 0.30499997E+01 -0.12601E+05
 0.30999999E+01 -0.10590E+05
 0.31499996E+01 -0.83825E+04
 0.31999998E+01 -0.59612E+04
 0.32499995E+01 -0.38348E+04
 0.32999997E+01 -0.16626E+04
 0.33499999E+01  0.11667E+04
 0.33999996E+01  0.43745E+04
 0.34499998E+01  0.75618E+04
 0.34999995E+01  0.10600E+05
 0.35499997E+01  0.13280E+05
 0.35999994E+01  0.15221E+05
 0.36499996E+01  0.16570E+05
 0.36999998E+01  0.17803E+05
 0.37499995E+01  0.19017E+05
 0.37999997E+01  0.19923E+05
 0.38499994E+01  0.20998E+05
 0.38999996E+01  0.22204E+05
 0.39499998E+01  0.23155E+05
 0.39999995E+01  0.23597E+05
 0.40499997E+01  0.23890E+05
 0.40999994E+01  0.24014E+05
 0.41499996E+01  0.23701E+05
 0.41999998E+01  0.22844E+05
 0.42499995E+01  0.21578E+05
 0.42999997E+01  0.20264E+05
 0.43499994E+01  0.18676E+05
 0.43999996E+01  0.16797E+05
 0.44499998E+01  0.15015E+05
 0.44999995E+01  0.13283E+05
 0.45499997E+01  0.11272E+05
 0.45999994E+01  0.95959E+04
 0.46499996E+01  0.80897E+04
 0.46999998E+01  0.62289E+04
 0.47499995E+01  0.37269E+04
 0.47999997E+01  0.83591E+03
 0.48499994E+01 -0.24218E+04
 0.48999996E+01 -0.62786E+04
 0.49499998E+01 -0.10404E+05
 0.49999995E+01 -0.14294E+05
 0.50499997E+01 -0.17490E+05
 0.50999994E+01 -0.20388E+05
 0.51499996E+01 -0.23099E+05
 0.51999998E+01 -0.26183E+05
 0.52499995E+01 -0.28887E+05
 0.52999997E+01 -0.30611E+05
 0.53499994E+01 -0.32158E+05
 0.53999996E+01 -0.33209E+05
 0.54499993E+01 -0.33308E+05
 0.54999995E+01 -0.32229E+05
 0.55499997E+01 -0.30359E+05
 0.55999994E+01 -0.28056E+05
 0.56499996E+01 -0.25036E+05
 0.56999993E+01 -0.20808E+05
 0.57499995E+01 -0.16257E+05
 0.57999997E+01 -0.11863E+05
 0.58499994E+01 -0.75495E+04
 0.58999996E+01 -0.36182E+04
 0.59499993E+01  0.11785E+03
 0.59999995E+01  0.32739E+04
 0.60499992E+01  0.60070E+04
 0.60999994E+01  0.88720E+04
 0.61499996E+01  0.11874E+05
 0.61999998E+01  0.14563E+05
 0.62499990E+01  0.16787E+05
 0.62999992E+01  0.18205E+05
 0.63499994E+01  0.18885E+05
 0.63999996E+01  0.19380E+05
 0.64499998E+01  0.19567E+05
 0.64999990E+01  0.19839E+05
 0.65499992E+01  0.19922E+05
 0.65999994E+01  0.19998E+05
 0.66499996E+01  0.19871E+05
 0.66999998E+01  0.18839E+05
 0.67499990E+01  0.17511E+05
 0.67999992E+01  0.16400E+05
 0.68499994E+01  0.14948E+05
 0.68999996E+01  0.13227E+05
 0.69499998E+01  0.11685E+05
 0.69999990E+01  0.99352E+04
 0.70499992E+01  0.82075E+04
 0.70999994E+01  0.66743E+04
 0.71499996E+01  0.60693E+04
 0.71999998E+01  0.57666E+04
 0.72499990E+01  0.52202E+04
 0.72999992E+01  0.52745E+04
 0.73499994E+01  0.59883E+04
 0.73999996E+01  0.73010E+04
 0.74499998E+01  0.87317E+04
 0.74999990E+01  0.99822E+04
 0.75499992E+01  0.11456E+05
 0.75999994E+01  0.13199E+05
 0.76499996E+01  0.14990E+05
 0.76999998E+01  0.16799E+05
 0.77499990E+01  0.18553E+05
 0.77999992E+01  0.20176E+05
 0.78499994E+01  0.22119E+05
 0.78999996E+01  0.23752E+05
 0.79499998E+01  0.24178E+05
 0.79999990E+01  0.23648E+05
 0.80499992E+01  0.22280E+05
 0.80999994E+01  0.20066E+05
 0.81499996E+01  0.16952E+05
 0.81999998E+01  0.13734E+05
 0.82499990E+01  0.10718E+05
 0.82999992E+01  0.75099E+04
 0.83499994E+01  0.44389E+04
 0.83999996E+01  0.21029E+04
 0.84499998E+01 -0.69075E+02
 0.84999990E+01 -0.21771E+04
 0.85499992E+01 -0.36280E+04
 0.85999994E+01 -0.46996E+04
 0.86499996E+01 -0.54800E+04
 0.86999998E+01 -0.57911E+04
 0.87499990E+01 -0.52057E+04
 0.87999992E+01 -0.43881E+04
 0.88499994E+01 -0.34616E+04
 0.88999996E+01 -0.25876E+04
 0.89499998E+01 -0.22389E+04
 0.89999990E+01 -0.23276E+04
 0.90499992E+01 -0.28593E+04
 0.90999994E+01 -0.39288E+04
 0.91499996E+01 -0.50168E+04
 0.91999989E+01 -0.56521E+04
 0.92499990E+01 -0.63262E+04
 0.92999992E+01 -0.70134E+04
 0.93499994E+01 -0.79170E+04
 0.93999996E+01 -0.82491E+04
 0.94499989E+01 -0.83202E+04
 0.94999990E+01 -0.80419E+04
 0.95499992E+01 -0.73077E+04
 0.95999994E+01 -0.64694E+04
 0.96499996E+01 -0.58724E+04
 0.96999989E+01 -0.56506E+04
 0.97499990E+01 -0.54805E+04
 0.97999992E+01 -0.57109E+04
 0.98499994E+01 -0.56967E+04
 0.98999996E+01 -0.62076E+04
 0.99499989E+01 -0.75782E+04
 0.99999990E+01 -0.88211E+04
 0.10049999E+02 -0.91679E+04
 0.10099999E+02 -0.91979E+04
 0.10150000E+02 -0.89057E+04
 0.10199999E+02 -0.81470E+04
 0.10249999E+02 -0.73520E+04
 0.10299999E+02 -0.64161E+04
 0.10349999E+02 -0.57620E+04
 0.10400000E+02 -0.52359E+04
 0.10449999E+02 -0.45910E+04
 0.10499999E+02 -0.42723E+04
 0.10549999E+02 -0.42566E+04
 0.10599999E+02 -0.49747E+04
 0.10650000E+02 -0.52929E+04
 0.10699999E+02 -0.61380E+04
 0.10749999E+02 -0.66557E+04
 0.10799999E+02 -0.84559E+04
 0.10849999E+02 -0.91792E+04
 0.10900000E+02 -0.96803E+04
 0.10949999E+02 -0.92084E+04
 0.10999999E+02 -0.11635E+05
 0.11049999E+02 -0.15984E+05
 0.11099999E+02 -0.19062E+05
 0.11150000E+02 -0.20462E+05
 0.11199999E+02 -0.17109E+05
 0.11249999E+02 -0.25487E+05
 0.11299999E+02 -0.32228E+05
 0.11349999E+02 -0.41396E+05
 0.11400000E+02 -0.34820E+05
 0.11449999E+02 -0.29064E+05
 0.11499999E+02 -0.16042E+05
 0.11549999E+02 -0.15220E+05
 0.11599999E+02 -0.10899E+05
 0.11650000E+02  0.13201E+05
 0.11699999E+02  0.17682E+05
 0.11749999E+02  0.11332E+05
 0.11799999E+02 -0.32605E+05
 0.11849999E+02 -0.60791E+05
 0.11900000E+02 -0.10378E+06
 0.11949999E+02 -0.96579E+05
 0.11999999E+02 -0.57219E+05
 0.12049999E+02 -0.13402E+05
 0.12099999E+02  0.31624E+05
 0.12150000E+02 -0.89145E+04
 0.12199999E+02 -0.38309E+05
 0.12249999E+02 -0.38240E+04
 0.12299999E+02  0.29944E+03
 0.12349999E+02 -0.14345E+06
 0.12400000E+02 -0.17222E+06
 0.12449999E+02 -0.14355E+05
 0.12499999E+02  0.37371E+05
 0.12549999E+02  0.12885E+06
 0.12599999E+02  0.15303E+06
 0.12649999E+02 -0.36020E+05
 0.12699999E+02 -0.12465E+06
 0.12749999E+02 -0.40590E+05
 0.12799999E+02 -0.33785E+05
 0.12849999E+02 -0.11944E+06
 0.12899999E+02 -0.12496E+06
 0.12949999E+02 -0.13839E+06
 0.12999999E+02 -0.14791E+06
 0.13049999E+02 -0.85680E+05
 0.13099999E+02  0.39358E+05
 0.13149999E+02  0.28333E+05
 0.13199999E+02 -0.81312E+05
 0.13249999E+02 -0.52779E+05
 0.13299999E+02  0.11734E+06
 0.13349999E+02  0.12046E+06
 0.13399999E+02 -0.37211E+05
 0.13449999E+02  0.89530E+05
 0.13499999E+02  0.21077E+06
 0.13549999E+02  0.13130E+06
 0.13599999E+02  0.19702E+06
 0.13649999E+02  0.22341E+06
 0.13699999E+02  0.79161E+05
 0.13749999E+02 -0.61320E+05
 0.13799999E+02 -0.50466E+05
 0.13849999E+02  0.60085E+05
 0.13899999E+02 -0.40277E+05
 0.13949999E+02 -0.55826E+05
 0.13999999E+02 -0.59501E+04
 0.14049999E+02 -0.39173E+05
 0.14099998E+02 -0.18546E+06
 0.14150000E+02 -0.40538E+06
 0.14199999E+02 -0.23129E+06
 0.14249998E+02 -0.62322E+05
 0.14299999E+02 -0.14263E+06
 0.14349998E+02 -0.18838E+06
 0.14400000E+02 -0.74255E+05
 0.14449999E+02  0.12087E+06
 0.14499998E+02  0.27822E+06
 0.14549999E+02  0.24253E+06
 0.14599998E+02 -0.37618E+05
 0.14650000E+02 -0.28136E+06
 0.14699999E+02 -0.44961E+06
 0.14749998E+02 -0.46665E+06
 0.14799999E+02 -0.31145E+06
 0.14849998E+02 -0.22209E+06
 0.14900000E+02 -0.10023E+06
 0.14949999E+02 -0.52350E+05
 0.14999998E+02 -0.86796E+05
 0.15049999E+02  0.68693E+05
 0.15099998E+02  0.10631E+06
 0.15150000E+02  0.22821E+06
 0.15199999E+02  0.33196E+06
 0.15249998E+02  0.60810E+05
 0.15299999E+02 -0.11455E+06
 0.15349998E+02 -0.55485E+05
 0.15400000E+02 -0.11952E+05
 0.15449999E+02 -0.19375E+06
 0.15499998E+02 -0.26555E+06
 0.15549999E+02  0.75549E+05
 0.15599998E+02  0.21121E+06
 0.15650000E+02  0.17069E+06
 0.15699999E+02  0.21093E+06
 0.15749998E+02  0.12834E+06
 0.15799999E+02 -0.17731E+05
 0.15849998E+02  0.45413E+05
 0.15900000E+02  0.69824E+05
 0.15949999E+02 -0.12394E+06
 0.15999998E+02 -0.21375E+06
 0.16049999E+02 -0.30890E+06
 0.16099998E+02 -0.22370E+06
 0.16150000E+02 -0.23181E+06
 0.16199999E+02 -0.20315E+06
 0.16249998E+02 -0.15611E+05
 0.16299999E+02 -0.61217E+04
 0.16349998E+02 -0.75559E+05
 0.16400000E+02  0.68462E+05
 0.16449999E+02  0.18345E+06
 0.16499998E+02 -0.19564E+06
 0.16549999E+02 -0.29515E+06
 0.16599998E+02 -0.10467E+06
 0.16650000E+02  0.12986E+06
 0.16699999E+02  0.70917E+05
 0.16749998E+02 -0.58033E+05
 0.16799999E+02  0.24786E+05
 0.16849998E+02  0.10747E+05
 0.16900000E+02 -0.71921E+05
 0.16949999E+02 -0.15026E+06
 0.16999998E+02  0.35544E+04
 0.17049999E+02 -0.72821E+05
 0.17099998E+02 -0.14746E+06
 0.17150000E+02 -0.27567E+06
 0.17199999E+02 -0.30195E+06
 0.17249998E+02 -0.10102E+06
 0.17299999E+02 -0.16175E+06
 0.17349998E+02 -0.16789E+06
 0.17400000E+02  0.60294E+05
 0.17449999E+02  0.12382E+06
 0.17499998E+02 -0.39067E+04
 0.17549999E+02  0.79436E+05
 0.17599998E+02  0.25456E+06
 0.17650000E+02  0.23846E+06
 0.17699999E+02 -0.15239E+06
 0.17749998E+02 -0.37682E+06
 0.17799999E+02 -0.28151E+06
 0.17849998E+02 -0.15966E+06
 0.17900000E+02 -0.16127E+06
 0.17949999E+02 -0.67123E+05
 0.17999998E+02  0.93480E+05
 0.18049999E+02  0.13439E+06
 0.18099998E+02 -0.25195E+05
 0.18150000E+02 -0.28355E+06
 0.18199999E+02 -0.22024E+06
 0.18249998E+02 -0.23601E+06
 0.18299999E+02 -0.32103E+06
 0.18349998E+02 -0.38871E+06
 0.18400000E+02 -0.24700E+06
 0.18449999E+02  0.45945E+05
 0.18499998E+02  0.20720E+06
 0.18549999E+02  0.36191E+06
 0.18599998E+02  0.43708E+06
 0.18650000E+02  0.41386E+06
 0.18699999E+02  0.40832E+06
 0.18749998E+02  0.42368E+06
 0.18799999E+02  0.56805E+06
 0.18849998E+02  0.80551E+06
 0.18900000E+02  0.72193E+06
 0.18949999E+02  0.57342E+06
 0.18999998E+02  0.35638E+06
 0.19049999E+02 -0.41225E+05
 0.19099998E+02 -0.21009E+06
 0.19150000E+02  0.52449E+05
 0.19199999E+02  0.54726E+06
 0.19249998E+02  0.12762E+07
 0.19299999E+02  0.17639E+07
 0.19349998E+02  0.17803E+07
 0.19400000E+02  0.18035E+07
 0.19449999E+02  0.17205E+07
 0.19499998E+02  0.18762E+07
 0.19549999E+02  0.22652E+07
 0.19599998E+02  0.16252E+07
 0.19650000E+02  0.10872E+07
 0.19699999E+02  0.12311E+07
 0.19749998E+02  0.35350E+06
 0.19799999E+02 -0.75386E+06
 0.19849998E+02 -0.13867E+07
 0.19900000E+02 -0.11078E+07
 0.19949999E+02 -0.51381E+05
 0.19999998E+02  0.49040E+06
 0.20049999E+02  0.30311E+06
 0.20099998E+02  0.75625E+05
 0.20150000E+02  0.16300E+05
 0.20199999E+02 -0.59137E+06
 0.20249998E+02 -0.12552E+07
 0.20299999E+02 -0.88903E+06
 0.20349998E+02 -0.20126E+06
 0.20399998E+02  0.74996E+06
 0.20449999E+02  0.19965E+07
 0.20499998E+02  0.16256E+07
 0.20549999E+02  0.12585E+06
 0.20599998E+02 -0.10516E+07
 0.20649998E+02 -0.17693E+07
 0.20699999E+02 -0.17228E+07
 0.20749998E+02 -0.27134E+06
 0.20799999E+02  0.12345E+07
 0.20849998E+02  0.11555E+07
 0.20899998E+02  0.63091E+06
 0.20949999E+02  0.29497E+06
 0.20999998E+02  0.13326E+06
 0.21049999E+02  0.56306E+06
 0.21099998E+02  0.17654E+07
 0.21149998E+02  0.25255E+07
 0.21199999E+02  0.16376E+07
 0.21249998E+02  0.78289E+06
 0.21299999E+02  0.59765E+06
 0.21349998E+02 -0.79935E+05
 0.21399998E+02 -0.23731E+06
 0.21449999E+02  0.42031E+06
 0.21499998E+02  0.72460E+06
 0.21549999E+02  0.51846E+06
 0.21599998E+02  0.38643E+06
 0.21649998E+02  0.11850E+06
 0.21699999E+02 -0.44697E+06
 0.21749998E+02 -0.49196E+06
 0.21799999E+02 -0.38577E+06
 0.21849998E+02 -0.27587E+06
 0.21899998E+02  0.37984E+06
 0.21949999E+02  0.85538E+06
 0.21999998E+02  0.12052E+07
 0.22049999E+02  0.10513E+07
 0.22099998E+02 -0.18318E+06
 0.22149998E+02 -0.94307E+06
 0.22199999E+02 -0.12587E+07
 0.22249998E+02 -0.15658E+07
 0.22299999E+02 -0.14798E+07
 0.22349998E+02 -0.97136E+06
 0.22399998E+02 -0.48949E+06
 0.22449999E+02 -0.26342E+06
 0.22499998E+02  0.33381E+06
 0.22549999E+02  0.59124E+06
 0.22599998E+02  0.68332E+06
 0.22649998E+02  0.93631E+06
 0.22699999E+02  0.94214E+06
 0.22749998E+02  0.72232E+06
 0.22799999E+02  0.14179E+06
 0.22849998E+02 -0.38276E+06
 0.22899998E+02 -0.89209E+06
 0.22949999E+02 -0.11181E+07
 0.22999998E+02 -0.11851E+07
 0.23049999E+02 -0.13203E+07
 0.23099998E+02 -0.92781E+06
 0.23149998E+02 -0.82015E+06
 0.23199999E+02 -0.89255E+06
 0.23249998E+02 -0.64047E+06
 0.23299999E+02 -0.48180E+06
 0.23349998E+02 -0.61801E+06
 0.23399998E+02 -0.10983E+07
 0.23449999E+02 -0.11096E+07
 0.23499998E+02 -0.89789E+06
 0.23549999E+02 -0.78356E+06
 0.23599998E+02 -0.57410E+06
 0.23649998E+02 -0.15357E+06
 0.23699999E+02  0.22075E+06
 0.23749998E+02  0.44163E+06
 0.23799999E+02  0.61727E+06
 0.23849998E+02  0.39230E+06
 0.23899998E+02  0.32093E+06
 0.23949999E+02  0.17474E+06
 0.23999998E+02 -0.20820E+05
 0.24049999E+02  0.18112E+06
 0.24099998E+02 -0.18635E+05
 0.24149998E+02 -0.31843E+06
 0.24199999E+02 -0.29829E+06
 0.24249998E+02 -0.56564E+06
 0.24299999E+02 -0.65967E+06
 0.24349998E+02 -0.61945E+06
 0.24399998E+02 -0.10479E+07
 0.24449999E+02 -0.12364E+07
 0.24499998E+02 -0.10003E+07
 0.24549999E+02 -0.98330E+06
 0.24599998E+02 -0.10927E+07
 0.24649998E+02 -0.11368E+07
 0.24699999E+02 -0.10075E+07
 0.24749998E+02 -0.66732E+06
 0.24799999E+02 -0.66682E+06
 0.24849998E+02 -0.76764E+06
 0.24899998E+02 -0.82438E+06
 0.24949999E+02 -0.10313E+07
 0.24999998E+02 -0.98636E+06
 0.25049999E+02 -0.93247E+06
 0.25099998E+02 -0.11981E+07
 0.25149998E+02 -0.12222E+07
 0.25199999E+02 -0.83144E+06
 0.25249998E+02 -0.52366E+06
 0.25299999E+02 -0.40018E+06
 0.25349998E+02 -0.32028E+06
 0.25399998E+02 -0.17694E+06
 0.25449999E+02  0.32326E+04
 0.25499998E+02  0.41642E+06
 0.25549999E+02  0.89212E+06
 0.25599998E+02  0.11504E+07
 0.25649998E+02  0.11695E+07
 0.25699999E+02  0.66959E+06
 0.25749998E+02  0.20117E+06
 0.25799999E+02 -0.12753E+06
 0.25849998E+02 -0.45311E+06
 0.25899998E+02 -0.20035E+06
 0.25949999E+02  0.31986E+06
 0.25999998E+02  0.55314E+06
 0.26049999E+02  0.51038E+06
 0.26099998E+02  0.50160E+06
 0.26149998E+02  0.95490E+06
 0.26199999E+02  0.13019E+07
 0.26249998E+02  0.13266E+07
 0.26299999E+02  0.13311E+07
 0.26349998E+02  0.10795E+07
 0.26399998E+02  0.68750E+06
 0.26449999E+02  0.27846E+06
 0.26499998E+02 -0.54399E+05
 0.26549999E+02 -0.22867E+06
 0.26599998E+02 -0.19026E+06
 0.26649998E+02 -0.27338E+06
 0.26699999E+02 -0.50233E+06
 0.26749998E+02 -0.44007E+06
 0.26799999E+02 -0.10571E+06
 0.26849998E+02 -0.27151E+05
 0.26899998E+02 -0.25563E+06
 0.26949999E+02 -0.34550E+06
 0.26999998E+02 -0.24746E+06
 0.27049997E+02 -0.15167E+06
 0.27099998E+02  0.15180E+06
 0.27149998E+02  0.64318E+06
 0.27199999E+02  0.91900E+06
 0.27249998E+02  0.90568E+06
 0.27299997E+02  0.82904E+06
 0.27349998E+02  0.70305E+06
 0.27399998E+02  0.34856E+06
 0.27449999E+02  0.38402E+05
 0.27499998E+02 -0.22987E+06
 0.27549997E+02 -0.23693E+06
 0.27599998E+02 -0.53670E+05
 0.27649998E+02 -0.68198E+05
 0.27699999E+02 -0.22698E+06
 0.27749998E+02 -0.55432E+06
 0.27799997E+02 -0.77101E+06
 0.27849998E+02 -0.44648E+06
 0.27899998E+02  0.39930E+05
 0.27949999E+02  0.14180E+06
 0.27999998E+02 -0.20062E+06
 0.28049997E+02 -0.65964E+06
 0.28099998E+02 -0.73730E+06
 0.28149998E+02 -0.62457E+06
 0.28199999E+02 -0.39468E+06
 0.28249998E+02 -0.24959E+06
 0.28299997E+02 -0.33313E+06
 0.28349998E+02 -0.55782E+06
 0.28399998E+02 -0.84811E+06
 0.28449999E+02 -0.82794E+06
 0.28499998E+02 -0.71265E+06
 0.28549997E+02 -0.53394E+06
 0.28599998E+02 -0.20286E+06
 0.28649998E+02  0.13945E+06
 0.28699999E+02  0.35374E+06
 0.28749998E+02  0.51266E+06
 0.28799997E+02  0.61838E+06
 0.28849998E+02  0.48214E+06
 0.28899998E+02  0.34983E+06
 0.28949999E+02  0.35003E+06
 0.28999998E+02  0.38192E+06
 0.29049997E+02  0.23170E+06
 0.29099998E+02  0.22224E+06
 0.29149998E+02  0.25247E+06
 0.29199999E+02  0.83373E+05
 0.29249998E+02 -0.22007E+06
 0.29299997E+02 -0.42846E+06
 0.29349998E+02 -0.14826E+06
 0.29399998E+02  0.23421E+06
 0.29449999E+02  0.51567E+06
 0.29499998E+02  0.46630E+06
 0.29549997E+02  0.11774E+06
 0.29599998E+02 -0.20429E+06
 0.29649998E+02 -0.41820E+06
 0.29699999E+02 -0.45785E+06
 0.29749998E+02 -0.52060E+06
 0.29799997E+02 -0.76240E+06
 0.29849998E+02 -0.89871E+06
 0.29899998E+02 -0.82378E+06
 0.29949999E+02 -0.61703E+06
 0.29999998E+02 -0.39271E+06
 0.30049999E+02 -0.27054E+06
 0.30099998E+02 -0.22423E+06
 0.30149998E+02 -0.19664E+06
 0.30199997E+02 -0.13908E+06
 0.30249996E+02 -0.14020E+06
 0.30299999E+02 -0.29601E+06
 0.30349998E+02 -0.49178E+06
 0.30399998E+02 -0.39931E+06
 0.30449997E+02 -0.36211E+05
 0.30499996E+02  0.28872E+06
 0.30549999E+02  0.42630E+06
 0.30599998E+02  0.46733E+06
 0.30649998E+02  0.41447E+06
 0.30699997E+02  0.18295E+06
 0.30749996E+02 -0.13116E+05
 0.30799999E+02 -0.97019E+05
 0.30849998E+02 -0.27976E+06
 0.30899998E+02 -0.47230E+06
 0.30949997E+02 -0.43553E+06
 0.30999996E+02 -0.26745E+06
 0.31049999E+02 -0.99231E+05
 0.31099998E+02 -0.10753E+06
 0.31149998E+02 -0.16116E+06
 0.31199997E+02 -0.14010E+06
 0.31249996E+02 -0.17086E+06
 0.31299999E+02  0.26013E+05
 0.31349998E+02  0.28088E+06
 0.31399998E+02  0.47191E+06
 0.31449997E+02  0.62527E+06
 0.31499996E+02  0.59174E+06
 0.31549999E+02  0.56496E+06
 0.31599998E+02  0.55996E+06
 0.31649998E+02  0.54879E+06
 0.31699997E+02  0.59557E+06
 0.31749996E+02  0.59907E+06
 0.31799999E+02  0.45372E+06
 0.31849998E+02  0.31650E+06
 0.31899998E+02  0.26622E+06
 0.31949997E+02  0.25003E+06
 0.31999996E+02  0.15612E+06
 0.32049999E+02 -0.28897E+05
 0.32099998E+02 -0.13324E+06
 0.32149998E+02 -0.20393E+06
 0.32199997E+02 -0.93885E+05
 0.32249996E+02  0.99115E+05
 0.32299999E+02  0.65872E+05
 0.32349998E+02 -0.31814E+05
 0.32399998E+02 -0.21990E+04
 0.32449997E+02  0.11665E+06
 0.32499996E+02  0.31620E+06
 0.32549999E+02  0.56860E+06
 0.32599998E+02  0.60873E+06
 0.32649998E+02  0.44434E+06
 0.32699997E+02  0.27064E+06
 0.32749996E+02  0.15764E+06
 0.32799999E+02  0.17162E+05
 0.32849998E+02 -0.30437E+05
 0.32899998E+02  0.56770E+05
 0.32949997E+02  0.99753E+04
 0.32999996E+02 -0.24431E+06
 0.33049999E+02 -0.60262E+06
 0.33099998E+02 -0.89371E+06
 0.33149998E+02 -0.90730E+06
 0.33199997E+02 -0.64664E+06
 0.33249996E+02 -0.52825E+06
 0.33299999E+02 -0.51933E+06
 0.33349998E+02 -0.42035E+06
 0.33399998E+02 -0.30552E+06
 0.33449997E+02 -0.30189E+06
 0.33499996E+02 -0.34200E+06
 0.33549999E+02 -0.25332E+06
 0.33599998E+02 -0.16351E+06
 0.33649998E+02 -0.11199E+06
 0.33699997E+02 -0.12632E+06
 0.33749996E+02 -0.70701E+05
 0.33799999E+02  0.35047E+05
 0.33849998E+02  0.11608E+06
 0.33899998E+02  0.31181E+06
 0.33949997E+02  0.45203E+06
 0.33999996E+02  0.38034E+06
 0.34049999E+02  0.16338E+06
 0.34099998E+02 -0.69594E+05
 0.34149998E+02 -0.27422E+06
 0.34199997E+02 -0.43309E+06
 0.34249996E+02 -0.40047E+06
 0.34299999E+02 -0.19045E+06
 0.34349998E+02  0.80055E+05
 0.34399998E+02  0.30764E+06
 0.34449997E+02  0.37088E+06
 0.34499996E+02  0.39880E+06
 0.34549999E+02  0.42662E+06
 0.34599998E+02  0.40349E+06
 0.34649998E+02  0.41851E+06
 0.34699997E+02  0.34287E+06
 0.34749996E+02  0.13083E+06
 0.34799999E+02 -0.24459E+05
 0.34849998E+02 -0.34030E+04
 0.34899998E+02 -0.29194E+04
 0.34949997E+02 -0.16702E+06
 0.34999996E+02 -0.28684E+06
 0.35049999E+02 -0.29143E+06
 0.35099998E+02 -0.20641E+06
 0.35149998E+02 -0.99936E+05
 0.35199997E+02 -0.67685E+05
 0.35249996E+02 -0.16187E+06
 0.35299999E+02 -0.32112E+06
 0.35349998E+02 -0.49300E+06
 0.35399998E+02 -0.58625E+06
 0.35449997E+02 -0.41486E+06
 0.35499996E+02 -0.18876E+06
 0.35549999E+02 -0.72846E+05
 0.35599998E+02 -0.26725E+04
 0.35649998E+02  0.35236E+04
 0.35699997E+02 -0.20801E+05
 0.35749996E+02 -0.15888E+06
 0.35799999E+02 -0.36192E+06
 0.35849998E+02 -0.41919E+06
 0.35899998E+02 -0.31286E+06
 0.35949997E+02 -0.14945E+06
 0.35999996E+02  0.79120E+05
 0.36049999E+02  0.34607E+06
 0.36099998E+02  0.49967E+06
 0.36149998E+02  0.57862E+06
 0.36199997E+02  0.75353E+06
 0.36249996E+02  0.99602E+06
 0.36299999E+02  0.11726E+07
 0.36349998E+02  0.11243E+07
 0.36399998E+02  0.82206E+06
 0.36449997E+02  0.56843E+06
 0.36499996E+02  0.50580E+06
 0.36549999E+02  0.43604E+06
 0.36599998E+02  0.24577E+06
 0.36649998E+02  0.32042E+05
 0.36699997E+02 -0.65109E+05
 0.36749996E+02 -0.42776E+05
 0.36799999E+02 -0.46024E+05
 0.36849998E+02 -0.31188E+05
 0.36899998E+02 -0.86951E+03
 0.36949997E+02  0.31596E+05
 0.36999996E+02  0.21224E+06
 0.37049999E+02  0.38901E+06
 0.37099998E+02  0.46493E+06
 0.37149998E+02  0.50877E+06
 0.37199997E+02  0.51783E+06
 0.37249996E+02  0.50878E+06
 0.37299999E+02  0.49299E+06
 0.37349998E+02  0.45596E+06
 0.37399998E+02  0.30729E+06
 0.37449997E+02  0.77861E+05
 0.37499996E+02 -0.21267E+06
 0.37549999E+02 -0.54855E+06
 0.37599998E+02 -0.78289E+06
 0.37649998E+02 -0.93374E+06
 0.37699997E+02 -0.10240E+07
 0.37749996E+02 -0.10028E+07
 0.37799999E+02 -0.93482E+06
 0.37849998E+02 -0.84624E+06
 0.37899998E+02 -0.60283E+06
 0.37949997E+02 -0.31506E+06
 0.37999996E+02 -0.20898E+06
 0.38049999E+02 -0.23912E+06
 0.38099998E+02 -0.27082E+06
 0.38149998E+02 -0.25633E+06
 0.38199997E+02 -0.21031E+06
 0.38249996E+02 -0.16832E+06
 0.38299999E+02 -0.14390E+06
 0.38349998E+02 -0.10823E+06
 0.38399998E+02 -0.28613E+05
 0.38449997E+02  0.83254E+05
 0.38499996E+02  0.20981E+06
 0.38549999E+02  0.31820E+06
 0.38599998E+02  0.35677E+06
 0.38649998E+02  0.29548E+06
 0.38699997E+02  0.15540E+06
 0.38749996E+02  0.93203E+05
 0.38799999E+02  0.16846E+06
 0.38849998E+02  0.34458E+06
 0.38899998E+02  0.54585E+06
 0.38949997E+02  0.56196E+06
 0.38999996E+02  0.34882E+06
 0.39049999E+02  0.94238E+05
 0.39099998E+02 -0.12764E+06
 0.39149998E+02 -0.25339E+06
 0.39199997E+02 -0.33114E+06
 0.39249996E+02 -0.42272E+06
 0.39299999E+02 -0.44807E+06
 0.39349998E+02 -0.50296E+06
 0.39399998E+02 -0.64000E+06
 0.39449997E+02 -0.76616E+06
 0.39499996E+02 -0.78912E+06
 0.39549999E+02 -0.73762E+06
 0.39599998E+02 -0.65276E+06
 0.39649998E+02 -0.46741E+06
 0.39699997E+02 -0.25613E+06
 0.39749996E+02 -0.11199E+06
 0.39799999E+02  0.36779E+04
 0.39849998E+02  0.11099E+06
 0.39899998E+02  0.15850E+06
 0.39949997E+02  0.18808E+06
 0.39999996E+02  0.29483E+06
 0.40049999E+02  0.41616E+06
 0.40099998E+02  0.52227E+06
 0.40149998E+02  0.62836E+06
 0.40199997E+02  0.63472E+06
 0.40249996E+02  0.58528E+06
 0.40299999E+02  0.48378E+06
 0.40349998E+02  0.29661E+06
 0.40399998E+02  0.11596E+06
 0.40449997E+02 -0.51076E+05
 0.40499996E+02 -0.12295E+06
 0.40549999E+02 -0.61120E+05
 0.40599998E+02  0.14698E+05
 0.40649998E+02 -0.19875E+05
 0.40699997E+02 -0.11910E+06
 0.40749996E+02 -0.16800E+06
 0.40799999E+02 -0.21872E+06
 0.40849998E+02 -0.31192E+06
 0.40899998E+02 -0.38102E+06
 0.40949997E+02 -0.35611E+06
 0.40999996E+02 -0.23719E+06
 0.41049999E+02 -0.12454E+06
 0.41099998E+02 -0.96978E+05
 0.41149998E+02 -0.12800E+06
 0.41199997E+02 -0.18220E+06
 0.41249996E+02 -0.19976E+06
 0.41299999E+02 -0.14544E+06
 0.41349998E+02 -0.73603E+05
 0.41399998E+02 -0.41223E+05
 0.41449997E+02 -0.54636E+05
 0.41499996E+02 -0.24315E+05
 0.41549999E+02  0.88212E+05
 0.41599998E+02  0.19329E+06
 0.41649998E+02  0.25385E+06
 0.41699997E+02  0.28999E+06
 0.41749996E+02  0.27481E+06
 0.41799999E+02  0.20673E+06
 0.41849998E+02  0.19267E+06
 0.41899998E+02  0.24532E+06
 0.41949997E+02  0.28978E+06
 0.41999996E+02  0.37616E+06
 0.42049999E+02  0.44695E+06
 0.42099998E+02  0.46814E+06
 0.42149998E+02  0.44156E+06
 0.42199997E+02  0.34573E+06
 0.42249996E+02  0.25515E+06
 0.42299999E+02  0.18856E+06
 0.42349998E+02  0.10827E+06
 0.42399998E+02 -0.26956E+05
 0.42449997E+02 -0.15701E+06
 0.42499996E+02 -0.20023E+06
 0.42549999E+02 -0.14930E+06
 0.42599998E+02 -0.32801E+05
 0.42649998E+02  0.92288E+05
 0.42699997E+02  0.17653E+06
 0.42749996E+02  0.21107E+06
 0.42799995E+02  0.23740E+06
 0.42849998E+02  0.28553E+06
 0.42899998E+02  0.30042E+06
 0.42949997E+02  0.26110E+06
 0.42999996E+02  0.16229E+06
 0.43049995E+02  0.26931E+05
 0.43099998E+02 -0.43722E+05
 0.43149998E+02 -0.49656E+05
 0.43199997E+02 -0.40578E+05
 0.43249996E+02 -0.51421E+05
 0.43299995E+02 -0.90351E+05
 0.43349998E+02 -0.14204E+06
 0.43399998E+02 -0.20501E+06
 0.43449997E+02 -0.23849E+06
 0.43499996E+02 -0.27695E+06
 0.43549995E+02 -0.33899E+06
 0.43599998E+02 -0.40223E+06
 0.43649998E+02 -0.43571E+06
 0.43699997E+02 -0.40778E+06
 0.43749996E+02 -0.37135E+06
 0.43799995E+02 -0.33827E+06
 0.43849998E+02 -0.33666E+06
 0.43899998E+02 -0.33731E+06
 0.43949997E+02 -0.28478E+06
 0.43999996E+02 -0.26306E+06
 0.44049995E+02 -0.25288E+06
 0.44099998E+02 -0.18832E+06
 0.44149998E+02 -0.78832E+05
 0.44199997E+02  0.22043E+05
 0.44249996E+02  0.13983E+06
 0.44299995E+02  0.29217E+06
 0.44349998E+02  0.43283E+06
 0.44399998E+02  0.56440E+06
 0.44449997E+02  0.66599E+06
 0.44499996E+02  0.74190E+06
 0.44549995E+02  0.74547E+06
 0.44599998E+02  0.67936E+06
 0.44649998E+02  0.60476E+06
 0.44699997E+02  0.57734E+06
 0.44749996E+02  0.57815E+06
 0.44799995E+02  0.52228E+06
 0.44849998E+02  0.41897E+06
 0.44899998E+02  0.32580E+06
 0.44949997E+02  0.23179E+06
 0.44999996E+02  0.11416E+06
 0.45049995E+02  0.33253E+04
 0.45099998E+02 -0.98206E+05
 0.45149998E+02 -0.16017E+06
 0.45199997E+02 -0.20087E+06
 0.45249996E+02 -0.21478E+06
 0.45299995E+02 -0.18131E+06
 0.45349998E+02 -0.15676E+06
 0.45399998E+02 -0.15905E+06
 0.45449997E+02 -0.17567E+06
 0.45499996E+02 -0.15974E+06
 0.45549995E+02 -0.94968E+05
 0.45599998E+02  0.72714E+04
 0.45649998E+02  0.77557E+05
 0.45699997E+02  0.56888E+05
 0.45749996E+02 -0.27135E+04
 0.45799995E+02 -0.48596E+05
 0.45849998E+02 -0.64709E+05
 0.45899998E+02 -0.52559E+05
 0.45949997E+02 -0.64941E+04
 0.45999996E+02  0.24958E+05
 0.46049995E+02  0.17052E+05
 0.46099998E+02  0.21009E+05
 0.46149998E+02  0.25249E+05
 0.46199997E+02  0.49991E+05
 0.46249996E+02  0.10233E+06
 0.46299995E+02  0.12292E+06
 0.46349998E+02  0.93803E+05
 0.46399998E+02  0.60354E+05
 0.46449997E+02  0.10269E+05
 0.46499996E+02 -0.99090E+05
 0.46549995E+02 -0.20185E+06
 0.46599998E+02 -0.27988E+06
 0.46649998E+02 -0.34845E+06
 0.46699997E+02 -0.40202E+06
 0.46749996E+02 -0.46177E+06
 0.46799995E+02 -0.52958E+06
 0.46849998E+02 -0.57554E+06
 0.46899998E+02 -0.54601E+06
 0.46949997E+02 -0.44968E+06
 0.46999996E+02 -0.37407E+06
 0.47049995E+02 -0.32911E+06
 0.47099998E+02 -0.26202E+06
 0.47149998E+02 -0.18234E+06
 0.47199997E+02 -0.11207E+06
 0.47249996E+02 -0.58341E+05
 0.47299995E+02 -0.38591E+05
 0.47349998E+02 -0.78229E+05
 0.47399998E+02 -0.16173E+06
 0.47449997E+02 -0.24110E+06
 0.47499996E+02 -0.28994E+06
 0.47549995E+02 -0.29867E+06
 0.47599998E+02 -0.27566E+06
 0.47649998E+02 -0.21755E+06
 0.47699997E+02 -0.13814E+06
 0.47749996E+02 -0.55430E+05
 0.47799995E+02 -0.51564E+04
 0.47849998E+02  0.61945E+05
 0.47899998E+02  0.17561E+06
 0.47949997E+02  0.27012E+06
 0.47999996E+02  0.34162E+06
 0.48049995E+02  0.35466E+06
 0.48099998E+02  0.34680E+06
 0.48149998E+02  0.32397E+06
 0.48199997E+02  0.21565E+06
 0.48249996E+02  0.35766E+05
 0.48299995E+02 -0.17314E+06
 0.48349998E+02 -0.36467E+06
 0.48399998E+02 -0.47967E+06
 0.48449997E+02 -0.48031E+06
 0.48499996E+02 -0.43920E+06
 0.48549995E+02 -0.43368E+06
 0.48599998E+02 -0.44352E+06
 0.48649998E+02 -0.43868E+06
 0.48699997E+02 -0.40416E+06
 0.48749996E+02 -0.29955E+06
 0.48799995E+02 -0.12850E+06
 0.48849998E+02  0.38184E+05
 0.48899998E+02  0.18120E+06
 0.48949997E+02  0.29512E+06
 0.48999996E+02  0.40140E+06
 0.49049995E+02  0.53470E+06
 0.49099998E+02  0.63099E+06
 0.49149998E+02  0.64867E+06
 0.49199997E+02  0.60099E+06
 0.49249996E+02  0.52182E+06
 0.49299995E+02  0.44028E+06
 0.49349998E+02  0.37918E+06
 0.49399998E+02  0.34253E+06
 0.49449997E+02  0.32563E+06
 0.49499996E+02  0.36154E+06
 0.49549995E+02  0.44782E+06
 0.49599998E+02  0.53955E+06
 0.49649998E+02  0.61986E+06
 0.49699997E+02  0.66858E+06
 0.49749996E+02  0.64249E+06
 0.49799995E+02  0.56360E+06
 0.49849998E+02  0.46203E+06
 0.49899998E+02  0.35177E+06
 0.49949997E+02  0.24086E+06
 0.49999996E+02  0.12560E+06
 0.50049995E+02  0.23497E+04
 0.50099998E+02 -0.14117E+06
 0.50149998E+02 -0.28416E+06
 0.50199997E+02 -0.40444E+06
 0.50249996E+02 -0.50403E+06
 0.50299995E+02 -0.55794E+06
 0.50349998E+02 -0.53464E+06
 0.50399998E+02 -0.46764E+06
 0.50449997E+02 -0.37766E+06
 0.50499996E+02 -0.27488E+06
 0.50549995E+02 -0.19162E+06
 0.50599998E+02 -0.13885E+06
 0.50649998E+02 -0.96541E+05
 0.50699997E+02 -0.65877E+05
 0.50749996E+02 -0.58986E+05
 0.50799995E+02 -0.63056E+05
 0.50849998E+02 -0.81181E+05
 0.50899998E+02 -0.90994E+05
 0.50949997E+02 -0.99327E+05
 0.50999996E+02 -0.11295E+06
 0.51049995E+02 -0.11738E+06
 0.51099998E+02 -0.13596E+06
 0.51149998E+02 -0.15693E+06
 0.51199997E+02 -0.16871E+06
 0.51249996E+02 -0.17309E+06
 0.51299995E+02 -0.14494E+06
 0.51349998E+02 -0.11114E+06
 0.51399998E+02 -0.75820E+05
 0.51449997E+02 -0.22106E+05
 0.51499996E+02  0.25928E+05
 0.51549995E+02  0.62985E+05
 0.51599998E+02  0.97313E+05
 0.51649998E+02  0.13426E+06
 0.51699997E+02  0.18135E+06
 0.51749996E+02  0.26593E+06
 0.51799995E+02  0.37064E+06
 0.51849998E+02  0.46275E+06
 0.51899998E+02  0.53539E+06
 0.51949997E+02  0.60537E+06
 0.51999996E+02  0.64473E+06
 0.52049995E+02  0.61198E+06
 0.52099998E+02  0.53264E+06
 0.52149998E+02  0.42136E+06
 0.52199997E+02  0.32458E+06
 0.52249996E+02  0.26467E+06
 0.52299995E+02  0.22314E+06
 0.52349998E+02  0.21184E+06
 0.52399998E+02  0.20070E+06
 0.52449997E+02  0.15896E+06
 0.52499996E+02  0.12113E+06
 0.52549995E+02  0.84988E+05
 0.52599998E+02  0.35720E+05
 0.52649998E+02 -0.13208E+05
 0.52699997E+02 -0.69432E+05
 0.52749996E+02 -0.13869E+06
 0.52799995E+02 -0.19453E+06
 0.52849998E+02 -0.21817E+06
 0.52899998E+02 -0.22455E+06
 0.52949997E+02 -0.19415E+06
 0.52999996E+02 -0.12813E+06
 0.53049995E+02 -0.64538E+05
 0.53099998E+02 -0.14951E+04
 0.53149998E+02  0.43939E+05
 0.53199997E+02  0.52766E+05
 0.53249996E+02  0.57267E+05
 0.53299995E+02  0.75895E+05
 0.53349998E+02  0.74829E+05
 0.53399998E+02  0.69833E+05
 0.53449997E+02  0.96832E+05
 0.53499996E+02  0.13438E+06
 0.53549995E+02  0.15278E+06
 0.53599998E+02  0.12448E+06
 0.53649998E+02  0.78768E+05
 0.53699997E+02  0.41209E+05
 0.53749996E+02  0.10281E+03
 0.53799995E+02 -0.57156E+05
 0.53849998E+02 -0.13778E+06
 0.53899998E+02 -0.23346E+06
 0.53949997E+02 -0.31046E+06
 0.53999996E+02 -0.35714E+06
 0.54049995E+02 -0.39652E+06
 0.54099998E+02 -0.42584E+06
 0.54149998E+02 -0.43726E+06
 0.54199997E+02 -0.42950E+06
 0.54249996E+02 -0.41686E+06
 0.54299995E+02 -0.40060E+06
 0.54349998E+02 -0.38619E+06
 0.54399998E+02 -0.34727E+06
 0.54449997E+02 -0.26613E+06
 0.54499996E+02 -0.17896E+06
 0.54549995E+02 -0.81755E+05
 0.54599998E+02  0.13034E+05
 0.54649998E+02  0.91303E+05
 0.54699997E+02  0.15418E+06
 0.54749996E+02  0.18403E+06
 0.54799995E+02  0.19471E+06
 0.54849998E+02  0.22256E+06
 0.54899998E+02  0.25950E+06
 0.54949997E+02  0.29428E+06
 0.54999996E+02  0.32749E+06
 0.55049995E+02  0.32359E+06
 0.55099998E+02  0.26559E+06
 0.55149998E+02  0.18607E+06
 0.55199997E+02  0.12661E+06
 0.55249996E+02  0.10107E+06
 0.55299995E+02  0.10715E+06
 0.55349998E+02  0.14591E+06
 0.55399998E+02  0.21851E+06
 0.55449997E+02  0.29837E+06
 0.55499996E+02  0.37096E+06
 0.55549995E+02  0.42370E+06
 0.55599998E+02  0.44200E+06
 0.55649998E+02  0.42235E+06
 0.55699997E+02  0.36454E+06
 0.55749996E+02  0.29587E+06
 0.55799995E+02  0.23481E+06
 0.55849995E+02  0.16786E+06
 0.55899998E+02  0.73919E+05
 0.55949997E+02 -0.32164E+05
 0.55999996E+02 -0.14585E+06
 0.56049995E+02 -0.26506E+06
 0.56099995E+02 -0.37837E+06
 0.56149998E+02 -0.47828E+06
 0.56199997E+02 -0.55078E+06
 0.56249996E+02 -0.59477E+06
 0.56299995E+02 -0.62006E+06
 0.56349995E+02 -0.62346E+06
 0.56399998E+02 -0.58897E+06
 0.56449997E+02 -0.51789E+06
 0.56499996E+02 -0.41706E+06
 0.56549995E+02 -0.29609E+06
 0.56599995E+02 -0.18547E+06
 0.56649998E+02 -0.11253E+06
 0.56699997E+02 -0.49070E+05
 0.56749996E+02  0.49096E+05
 0.56799995E+02  0.18524E+06
 0.56849995E+02  0.34111E+06
 0.56899998E+02  0.49385E+06
 0.56949997E+02  0.60372E+06
 0.56999996E+02  0.65097E+06
 0.57049995E+02  0.64353E+06
 0.57099995E+02  0.61073E+06
 0.57149998E+02  0.58217E+06
 0.57199997E+02  0.55528E+06
 0.57249996E+02  0.52844E+06
 0.57299995E+02  0.47290E+06
 0.57349995E+02  0.39007E+06
 0.57399998E+02  0.30973E+06
 0.57449997E+02  0.22766E+06
 0.57499996E+02  0.16659E+06
 0.57549995E+02  0.13392E+06
 0.57599995E+02  0.10719E+06
 0.57649998E+02  0.72334E+05
 0.57699997E+02  0.25371E+05
 0.57749996E+02 -0.14182E+05
 0.57799995E+02 -0.20414E+05
 0.57849995E+02  0.11454E+05
 0.57899998E+02  0.45783E+05
 0.57949997E+02  0.58312E+05
 0.57999996E+02  0.51359E+05
 0.58049995E+02  0.28789E+05
 0.58099995E+02  0.14181E+05
 0.58149998E+02  0.15659E+05
 0.58199997E+02  0.20870E+05
 0.58249996E+02  0.15012E+05
 0.58299995E+02  0.44373E+04
 0.58349995E+02 -0.19325E+05
 0.58399998E+02 -0.69055E+05
 0.58449997E+02 -0.11559E+06
 0.58499996E+02 -0.13764E+06
 0.58549995E+02 -0.14896E+06
 0.58599995E+02 -0.16253E+06
 0.58649998E+02 -0.17978E+06
 0.58699997E+02 -0.22351E+06
 0.58749996E+02 -0.28193E+06
 0.58799995E+02 -0.33804E+06
 0.58849995E+02 -0.38145E+06
 0.58899998E+02 -0.39380E+06
 0.58949997E+02 -0.37876E+06
 0.58999996E+02 -0.33849E+06
 0.59049995E+02 -0.29188E+06
 0.59099995E+02 -0.25496E+06
 0.59149998E+02 -0.21522E+06
 0.59199997E+02 -0.17526E+06
 0.59249996E+02 -0.14463E+06
 0.59299995E+02 -0.10002E+06
 0.59349995E+02 -0.41086E+05
 0.59399998E+02 -0.31393E+04
 0.59449997E+02  0.20547E+05
 0.59499996E+02  0.45905E+05
 0.59549995E+02  0.58860E+05
 0.59599995E+02  0.59648E+05
 0.59649998E+02  0.53405E+05
 0.59699997E+02  0.40931E+05
 0.59749996E+02  0.27067E+05
 0.59799995E+02  0.20814E+05
 0.59849995E+02  0.25451E+05
 0.59899998E+02  0.39281E+05
 0.59949997E+02  0.51686E+05
 0.59999996E+02  0.46641E+05
 0.60049995E+02  0.33375E+05
 0.60099995E+02  0.79620E+04
 0.60149998E+02 -0.34419E+05
 0.60199997E+02 -0.70540E+05
 0.60249996E+02 -0.76943E+05
 0.60299995E+02 -0.56691E+05
 0.60349995E+02 -0.31201E+05
 0.60399998E+02  0.44630E+04
 0.60449997E+02  0.44569E+05
 0.60499996E+02  0.84343E+05
 0.60549995E+02  0.14580E+06
 0.60599995E+02  0.22720E+06
 0.60649998E+02  0.29480E+06
 0.60699997E+02  0.32347E+06
 0.60749996E+02  0.31671E+06
 0.60799995E+02  0.27879E+06
 0.60849995E+02  0.22968E+06
 0.60899998E+02  0.19311E+06
 0.60949997E+02  0.18088E+06
 0.60999996E+02  0.19102E+06
 0.61049995E+02  0.21299E+06
 0.61099995E+02  0.23977E+06
 0.61149998E+02  0.26500E+06
 0.61199997E+02  0.28356E+06
 0.61249996E+02  0.29194E+06
 0.61299995E+02  0.29104E+06
 0.61349995E+02  0.27090E+06
 0.61399998E+02  0.23857E+06
 0.61449997E+02  0.20690E+06
 0.61499996E+02  0.16373E+06
 0.61549995E+02  0.10076E+06
 0.61599995E+02  0.18541E+05
 0.61649998E+02 -0.86621E+05
 0.61699997E+02 -0.18696E+06
 0.61749996E+02 -0.25725E+06
 0.61799995E+02 -0.29853E+06
 0.61849995E+02 -0.30849E+06
 0.61899998E+02 -0.29299E+06
 0.61949997E+02 -0.27475E+06
 0.61999996E+02 -0.26646E+06
 0.62049995E+02 -0.26127E+06
 0.62099998E+02 -0.24800E+06
 0.62149994E+02 -0.22422E+06
 0.62199997E+02 -0.20463E+06
 0.62249992E+02 -0.18984E+06
 0.62299995E+02 -0.18771E+06
 0.62349998E+02 -0.19760E+06
 0.62399994E+02 -0.20048E+06
 0.62449997E+02 -0.18498E+06
 0.62499992E+02 -0.14929E+06
 0.62549995E+02 -0.10496E+06
 0.62599998E+02 -0.73529E+05
 0.62649994E+02 -0.59543E+05
 0.62699997E+02 -0.31347E+05
 0.62749992E+02  0.73443E+04
 0.62799995E+02  0.38766E+05
 0.62849998E+02  0.77655E+05
 0.62899994E+02  0.12095E+06
 0.62949997E+02  0.15479E+06
 0.62999992E+02  0.19397E+06
 0.63049995E+02  0.24474E+06
 0.63099998E+02  0.28420E+06
 0.63149994E+02  0.30785E+06
 0.63199997E+02  0.32065E+06
 0.63249992E+02  0.31948E+06
 0.63299995E+02  0.30812E+06
 0.63349998E+02  0.29249E+06
 0.63399994E+02  0.27188E+06
 0.63449997E+02  0.24372E+06
 0.63499992E+02  0.21488E+06
 0.63549995E+02  0.18583E+06
 0.63599998E+02  0.15229E+06
 0.63649994E+02  0.11815E+06
 0.63699997E+02  0.83291E+05
 0.63749992E+02  0.49037E+05
 0.63799995E+02  0.27208E+05
 0.63849998E+02  0.15674E+05
 0.63899994E+02 -0.10785E+05
 0.63949997E+02 -0.59677E+05
 0.63999992E+02 -0.11604E+06
 0.64049995E+02 -0.16510E+06
 0.64099998E+02 -0.19818E+06
 0.64149994E+02 -0.21295E+06
 0.64199997E+02 -0.22430E+06
 0.64249992E+02 -0.25142E+06
 0.64299995E+02 -0.30618E+06
 0.64349998E+02 -0.38652E+06
 0.64399994E+02 -0.46917E+06
 0.64449997E+02 -0.53176E+06
 0.64499992E+02 -0.56334E+06
 0.64549995E+02 -0.55826E+06
 0.64599998E+02 -0.54009E+06
 0.64649994E+02 -0.53623E+06
 0.64699997E+02 -0.53588E+06
 0.64749992E+02 -0.53428E+06
 0.64799995E+02 -0.53601E+06
 0.64849998E+02 -0.52412E+06
 0.64899994E+02 -0.48455E+06
 0.64949997E+02 -0.43319E+06
 0.64999992E+02 -0.36155E+06
 0.65049995E+02 -0.26671E+06
 0.65099998E+02 -0.18051E+06
 0.65149994E+02 -0.12158E+06
 0.65199997E+02 -0.71590E+05
 0.65249992E+02 -0.38626E+04
 0.65299995E+02  0.71292E+05
 0.65349998E+02  0.14275E+06
 0.65399994E+02  0.20956E+06
 0.65449997E+02  0.26412E+06
 0.65499992E+02  0.29688E+06
 0.65549995E+02  0.30907E+06
 0.65599998E+02  0.30940E+06
 0.65649994E+02  0.31268E+06
 0.65699997E+02  0.32535E+06
 0.65749992E+02  0.33625E+06
 0.65799995E+02  0.33922E+06
 0.65849998E+02  0.33280E+06
 0.65899994E+02  0.31981E+06
 0.65949997E+02  0.30593E+06
 0.65999992E+02  0.29342E+06
 0.66049995E+02  0.28312E+06
 0.66099998E+02  0.27861E+06
 0.66149994E+02  0.28099E+06
 0.66199997E+02  0.28629E+06
 0.66249992E+02  0.28837E+06
 0.66299995E+02  0.28584E+06
 0.66349998E+02  0.29521E+06
 0.66399994E+02  0.31945E+06
 0.66449997E+02  0.33870E+06
 0.66499992E+02  0.33812E+06
 0.66549995E+02  0.31040E+06
 0.66599998E+02  0.25392E+06
 0.66649994E+02  0.19058E+06
 0.66699997E+02  0.13960E+06
 0.66749992E+02  0.96964E+05
 0.66799995E+02  0.57845E+05
 0.66849998E+02  0.14127E+05
 0.66899994E+02 -0.40547E+05
 0.66949997E+02 -0.99146E+05
 0.66999992E+02 -0.15107E+06
 0.67049995E+02 -0.18683E+06
 0.67099998E+02 -0.19650E+06
 0.67149994E+02 -0.18440E+06
 0.67199997E+02 -0.15668E+06
 0.67249992E+02 -0.12469E+06
 0.67299995E+02 -0.97648E+05
 0.67349998E+02 -0.79671E+05
 0.67399994E+02 -0.76583E+05
 0.67449997E+02 -0.87151E+05
 0.67499992E+02 -0.10349E+06
 0.67549995E+02 -0.10483E+06
 0.67599998E+02 -0.77289E+05
 0.67649994E+02 -0.23856E+05
 0.67699997E+02  0.47621E+05
 0.67749992E+02  0.13448E+06
 0.67799995E+02  0.22181E+06
 0.67849998E+02  0.28952E+06
 0.67899994E+02  0.33627E+06
 0.67949997E+02  0.37256E+06
 0.67999992E+02  0.39788E+06
 0.68049995E+02  0.41262E+06
 0.68099998E+02  0.41011E+06
 0.68149994E+02  0.38808E+06
 0.68199997E+02  0.36537E+06
 0.68249992E+02  0.33924E+06
 0.68299995E+02  0.30322E+06
 0.68349998E+02  0.25818E+06
 0.68399994E+02  0.19548E+06
 0.68449997E+02  0.10869E+06
 0.68499992E+02  0.14229E+05
 0.68549995E+02 -0.84159E+05
 0.68599998E+02 -0.17794E+06
 0.68649994E+02 -0.24114E+06
 0.68699997E+02 -0.27409E+06
 0.68749992E+02 -0.29187E+06
 0.68799995E+02 -0.30486E+06
 0.68849998E+02 -0.31068E+06
 0.68899994E+02 -0.30335E+06
 0.68949997E+02 -0.28450E+06
 0.68999992E+02 -0.26240E+06
 0.69049995E+02 -0.24479E+06
 0.69099998E+02 -0.23769E+06
 0.69149994E+02 -0.23811E+06
 0.69199997E+02 -0.23830E+06
 0.69249992E+02 -0.23563E+06
 0.69299995E+02 -0.22880E+06
 0.69349998E+02 -0.21975E+06
 0.69399994E+02 -0.21844E+06
 0.69449997E+02 -0.22689E+06
 0.69499992E+02 -0.22898E+06
 0.69549995E+02 -0.21913E+06
 0.69599998E+02 -0.20129E+06
 0.69649994E+02 -0.17962E+06
 0.69699997E+02 -0.17166E+06
 0.69749992E+02 -0.17982E+06
 0.69799995E+02 -0.18856E+06
 0.69849998E+02 -0.19932E+06
 0.69899994E+02 -0.21119E+06
 0.69949997E+02 -0.20798E+06
 0.69999992E+02 -0.18305E+06
 0.70049995E+02 -0.14535E+06
 0.70099998E+02 -0.10548E+06
 0.70149994E+02 -0.66845E+05
 0.70199997E+02 -0.29713E+05
 0.70249992E+02  0.74150E+04
 0.70299995E+02  0.41690E+05
 0.70349998E+02  0.67857E+05
 0.70399994E+02  0.89977E+05
 0.70449997E+02  0.10451E+06
 0.70499992E+02  0.10757E+06
 0.70549995E+02  0.10035E+06
 0.70599998E+02  0.78002E+05
 0.70649994E+02  0.45879E+05
 0.70699997E+02  0.12687E+05
 0.70749992E+02 -0.17233E+05
 0.70799995E+02 -0.35709E+05
 0.70849998E+02 -0.30514E+05
 0.70899994E+02 -0.44453E+04
 0.70949997E+02  0.34215E+05
 0.70999992E+02  0.80186E+05
 0.71049995E+02  0.12673E+06
 0.71099998E+02  0.17147E+06
 0.71149994E+02  0.21171E+06
 0.71199997E+02  0.23990E+06
 0.71249992E+02  0.24861E+06
 0.71299995E+02  0.24403E+06
 0.71349998E+02  0.23045E+06
 0.71399994E+02  0.19428E+06
 0.71449997E+02  0.13199E+06
 0.71499992E+02  0.51737E+05
 0.71549995E+02 -0.36535E+05
 0.71599998E+02 -0.11946E+06
 0.71649994E+02 -0.19480E+06
 0.71699997E+02 -0.24905E+06
 0.71749992E+02 -0.26394E+06
 0.71799995E+02 -0.23610E+06
 0.71849998E+02 -0.18068E+06
 0.71899994E+02 -0.11230E+06
 0.71949997E+02 -0.43668E+05
 0.71999992E+02  0.10526E+05
 0.72049995E+02  0.50730E+05
 0.72099998E+02  0.71336E+05
 0.72149994E+02  0.76868E+05
 0.72199997E+02  0.80687E+05
 0.72249992E+02  0.84506E+05
 0.72299995E+02  0.82858E+05
 0.72349998E+02  0.76145E+05
 0.72399994E+02  0.64228E+05
 0.72449997E+02  0.41362E+05
 0.72499992E+02  0.11537E+05
 0.72549995E+02 -0.20458E+05
 0.72599998E+02 -0.42205E+05
 0.72649994E+02 -0.48591E+05
 0.72699997E+02 -0.37915E+05
 0.72749992E+02 -0.75969E+04
 0.72799995E+02  0.29534E+05
 0.72849998E+02  0.56333E+05
 0.72899994E+02  0.63419E+05
 0.72949997E+02  0.60870E+05
 0.72999992E+02  0.55390E+05
 0.73049995E+02  0.47366E+05
 0.73099998E+02  0.37600E+05
 0.73149994E+02  0.29182E+05
 0.73199997E+02  0.26391E+05
 0.73249992E+02  0.28300E+05
 0.73299995E+02  0.33890E+05
 0.73349998E+02  0.37093E+05
 0.73399994E+02  0.32840E+05
 0.73449997E+02  0.29392E+05
 0.73499992E+02  0.38751E+05
 0.73549995E+02  0.58372E+05
 0.73599998E+02  0.80679E+05
 0.73649994E+02  0.97735E+05
 0.73699997E+02  0.10173E+06
 0.73749992E+02  0.94310E+05
 0.73799995E+02  0.81899E+05
 0.73849998E+02  0.68366E+05
 0.73899994E+02  0.59253E+05
 0.73949997E+02  0.54672E+05
 0.73999992E+02  0.50113E+05
 0.74049995E+02  0.41497E+05
 0.74099998E+02  0.25158E+05
 0.74149994E+02  0.37117E+04
 0.74199997E+02 -0.19972E+05
 0.74249992E+02 -0.47393E+05
 0.74299995E+02 -0.80076E+05
 0.74349998E+02 -0.10655E+06
 0.74399994E+02 -0.11788E+06
 0.74449997E+02 -0.11625E+06
 0.74499992E+02 -0.96008E+05
 0.74549995E+02 -0.48847E+05
 0.74599998E+02  0.17676E+05
 0.74649994E+02  0.82714E+05
 0.74699997E+02  0.13235E+06
 0.74749992E+02  0.16936E+06
 0.74799995E+02  0.19745E+06
 0.74849998E+02  0.21737E+06
 0.74899994E+02  0.23052E+06
 0.74949997E+02  0.23224E+06
 0.74999992E+02  0.22006E+06
 0.75049995E+02  0.20111E+06
 0.75099998E+02  0.17693E+06
 0.75149994E+02  0.14585E+06
 0.75199997E+02  0.11343E+06
 0.75249992E+02  0.87578E+05
 0.75299995E+02  0.74882E+05
 0.75349998E+02  0.72625E+05
 0.75399994E+02  0.76128E+05
 0.75449997E+02  0.83383E+05
 0.75499992E+02  0.10036E+06
 0.75549995E+02  0.13038E+06
 0.75599998E+02  0.16506E+06
 0.75649994E+02  0.18959E+06
 0.75699997E+02  0.19136E+06
 0.75749992E+02  0.17575E+06
 0.75799995E+02  0.15818E+06
 0.75849998E+02  0.14639E+06
 0.75899994E+02  0.13964E+06
 0.75949997E+02  0.13930E+06
 0.75999992E+02  0.14857E+06
 0.76049995E+02  0.15996E+06
 0.76099998E+02  0.16388E+06
 0.76149994E+02  0.16240E+06
 0.76199997E+02  0.15738E+06
 0.76249992E+02  0.15276E+06
 0.76299995E+02  0.15157E+06
 0.76349998E+02  0.15494E+06
 0.76399994E+02  0.15788E+06
 0.76449997E+02  0.15481E+06
 0.76499992E+02  0.14907E+06
 0.76549995E+02  0.13974E+06
 0.76599998E+02  0.12555E+06
 0.76649994E+02  0.10481E+06
 0.76699997E+02  0.77727E+05
 0.76749992E+02  0.43563E+05
 0.76799995E+02  0.51348E+04
 0.76849998E+02 -0.32153E+05
 0.76899994E+02 -0.61221E+05
 0.76949997E+02 -0.74581E+05
 0.76999992E+02 -0.72275E+05
 0.77049995E+02 -0.54083E+05
 0.77099998E+02 -0.30370E+05
 0.77149994E+02 -0.10158E+05
 0.77199997E+02  0.36617E+04
 0.77249992E+02  0.34567E+03
 0.77299995E+02 -0.25365E+05
 0.77349998E+02 -0.63366E+05
 0.77399994E+02 -0.10190E+06
 0.77449997E+02 -0.12743E+06
 0.77499992E+02 -0.13219E+06
 0.77549995E+02 -0.12609E+06
 0.77599998E+02 -0.12391E+06
 0.77649994E+02 -0.12939E+06
 0.77699997E+02 -0.13872E+06
 0.77749992E+02 -0.14973E+06
 0.77799995E+02 -0.15442E+06
 0.77849998E+02 -0.14945E+06
 0.77899994E+02 -0.13709E+06
 0.77949997E+02 -0.11865E+06
 0.77999992E+02 -0.97916E+05
 0.78049995E+02 -0.81408E+05
 0.78099998E+02 -0.67014E+05
 0.78149994E+02 -0.57085E+05
 0.78199997E+02 -0.59430E+05
 0.78249992E+02 -0.70638E+05
 0.78299995E+02 -0.86966E+05
 0.78349998E+02 -0.10396E+06
 0.78399994E+02 -0.11663E+06
 0.78449997E+02 -0.12821E+06
 0.78499992E+02 -0.13601E+06
 0.78549995E+02 -0.12996E+06
 0.78599998E+02 -0.11956E+06
 0.78649994E+02 -0.11282E+06
 0.78699997E+02 -0.10819E+06
 0.78749992E+02 -0.10622E+06
 0.78799995E+02 -0.10382E+06
 0.78849998E+02 -0.90952E+05
 0.78899994E+02 -0.61899E+05
 0.78949997E+02 -0.25187E+05
 0.78999992E+02  0.11466E+05
 0.79049995E+02  0.37067E+05
 0.79099998E+02  0.46333E+05
 0.79149994E+02  0.49364E+05
 0.79199997E+02  0.51106E+05
 0.79249992E+02  0.43251E+05
 0.79299995E+02  0.23346E+05
 0.79349998E+02  0.49760E+04
 0.79399994E+02 -0.33014E+04
 0.79449997E+02 -0.47593E+04
 0.79499992E+02 -0.21921E+04
 0.79549995E+02  0.54203E+04
 0.79599998E+02  0.17895E+05
 0.79649994E+02  0.34918E+05
 0.79699997E+02  0.57108E+05
 0.79749992E+02  0.82462E+05
 0.79799995E+02  0.11208E+06
 0.79849998E+02  0.14709E+06
 0.79899994E+02  0.18880E+06
 0.79949997E+02  0.23657E+06
 0.79999992E+02  0.28157E+06
 0.80049995E+02  0.30974E+06
 0.80099998E+02  0.31212E+06
 0.80149994E+02  0.29248E+06
 0.80199997E+02  0.25394E+06
 0.80249992E+02  0.20364E+06
 0.80299995E+02  0.15606E+06
 0.80349998E+02  0.11016E+06
 0.80399994E+02  0.55983E+05
 0.80449997E+02 -0.17371E+04
 0.80499992E+02 -0.55734E+05
 0.80549995E+02 -0.10376E+06
 0.80599998E+02 -0.14436E+06
 0.80649994E+02 -0.18020E+06
 0.80699997E+02 -0.21051E+06
 0.80749992E+02 -0.23306E+06
 0.80799995E+02 -0.24869E+06
 0.80849998E+02 -0.25548E+06
 0.80899994E+02 -0.25397E+06
 0.80949997E+02 -0.25348E+06
 0.80999992E+02 -0.26234E+06
 0.81049995E+02 -0.28130E+06
 0.81099998E+02 -0.30139E+06
 0.81149994E+02 -0.31390E+06
 0.81199997E+02 -0.31896E+06
 0.81249992E+02 -0.31866E+06
 0.81299995E+02 -0.31553E+06
 0.81349998E+02 -0.31032E+06
 0.81399994E+02 -0.30013E+06
 0.81449997E+02 -0.27584E+06
 0.81499992E+02 -0.23363E+06
 0.81549995E+02 -0.18178E+06
 0.81599998E+02 -0.12115E+06
 0.81649994E+02 -0.54240E+05
 0.81699997E+02  0.80388E+04
 0.81749992E+02  0.59659E+05
 0.81799995E+02  0.99551E+05
 0.81849998E+02  0.12427E+06
 0.81899994E+02  0.13000E+06
 0.81949997E+02  0.11779E+06
 0.81999992E+02  0.91299E+05
 0.82049995E+02  0.64503E+05
 0.82099998E+02  0.43130E+05
 0.82149994E+02  0.24716E+05
 0.82199997E+02  0.17064E+05
 0.82249992E+02  0.22455E+05
 0.82299995E+02  0.31811E+05
 0.82349998E+02  0.38109E+05
 0.82399994E+02  0.41476E+05
 0.82449997E+02  0.44670E+05
 0.82499992E+02  0.47759E+05
 0.82549995E+02  0.51782E+05
 0.82599998E+02  0.57234E+05
 0.82649994E+02  0.58192E+05
 0.82699997E+02  0.55212E+05
 0.82749992E+02  0.52393E+05
 0.82799995E+02  0.44529E+05
 0.82849998E+02  0.24357E+05
 0.82899994E+02 -0.22706E+04
 0.82949997E+02 -0.26812E+05
 0.82999992E+02 -0.47100E+05
 0.83049995E+02 -0.56720E+05
 0.83099998E+02 -0.52228E+05
 0.83149994E+02 -0.41191E+05
 0.83199997E+02 -0.30876E+05
 0.83249992E+02 -0.22345E+05
 0.83299995E+02 -0.15633E+05
 0.83349998E+02 -0.70130E+04
 0.83399994E+02  0.11005E+05
 0.83449997E+02  0.40107E+05
 0.83499992E+02  0.73291E+05
 0.83549995E+02  0.10671E+06
 0.83599998E+02  0.13678E+06
 0.83649994E+02  0.16066E+06
 0.83699997E+02  0.18140E+06
 0.83749992E+02  0.20212E+06
 0.83799995E+02  0.22579E+06
 0.83849998E+02  0.25535E+06
 0.83899994E+02  0.29495E+06
 0.83949997E+02  0.33837E+06
 0.83999992E+02  0.37186E+06
 0.84049995E+02  0.38894E+06
 0.84099998E+02  0.38677E+06
 0.84149994E+02  0.36585E+06
 0.84199997E+02  0.33508E+06
 0.84249992E+02  0.30700E+06
 0.84299995E+02  0.28891E+06
 0.84349998E+02  0.28235E+06
 0.84399994E+02  0.27936E+06
 0.84449997E+02  0.26813E+06
 0.84499992E+02  0.24162E+06
 0.84549995E+02  0.19949E+06
 0.84599998E+02  0.14859E+06
 0.84649994E+02  0.96681E+05
 0.84699997E+02  0.51997E+05
 0.84749992E+02  0.18780E+05
 0.84799995E+02 -0.18781E+04
 0.84849998E+02 -0.16229E+05
 0.84899994E+02 -0.29787E+05
 0.84949997E+02 -0.43332E+05
 0.84999992E+02 -0.58468E+05
 0.85049995E+02 -0.74396E+05
 0.85099998E+02 -0.93121E+05
 0.85149994E+02 -0.11845E+06
 0.85199997E+02 -0.15040E+06
 0.85249992E+02 -0.18458E+06
 0.85299995E+02 -0.21964E+06
 0.85349998E+02 -0.25315E+06
 0.85399994E+02 -0.27944E+06
 0.85449997E+02 -0.29170E+06
 0.85499992E+02 -0.28520E+06
 0.85549995E+02 -0.26595E+06
 0.85599998E+02 -0.24097E+06
 0.85649994E+02 -0.21415E+06
 0.85699997E+02 -0.19000E+06
 0.85749992E+02 -0.16542E+06
 0.85799995E+02 -0.13961E+06
 0.85849998E+02 -0.11448E+06
 0.85899994E+02 -0.89514E+05
 0.85949997E+02 -0.67468E+05
 0.85999992E+02 -0.48637E+05
 0.86049995E+02 -0.32455E+05
 0.86099998E+02 -0.23557E+05
 0.86149994E+02 -0.28058E+05
 0.86199997E+02 -0.46456E+05
 0.86249992E+02 -0.77679E+05
 0.86299995E+02 -0.11751E+06
 0.86349998E+02 -0.15586E+06
 0.86399994E+02 -0.18359E+06
 0.86449997E+02 -0.19314E+06
 0.86499992E+02 -0.18293E+06
 0.86549995E+02 -0.15959E+06
 0.86599998E+02 -0.13066E+06
 0.86649994E+02 -0.10531E+06
 0.86699997E+02 -0.88036E+05
 0.86749992E+02 -0.74469E+05
 0.86799995E+02 -0.60733E+05
 0.86849998E+02 -0.47643E+05
 0.86899994E+02 -0.35323E+05
 0.86949997E+02 -0.21361E+05
 0.86999992E+02 -0.67268E+04
 0.87049995E+02  0.87236E+04
 0.87099998E+02  0.24976E+05
 0.87149994E+02  0.37909E+05
 0.87199997E+02  0.47713E+05
 0.87249992E+02  0.55145E+05
 0.87299995E+02  0.57422E+05
 0.87349998E+02  0.58789E+05
 0.87399994E+02  0.64640E+05
 0.87449997E+02  0.77625E+05
 0.87499992E+02  0.96649E+05
 0.87549995E+02  0.12015E+06
 0.87599991E+02  0.14910E+06
 0.87649994E+02  0.17687E+06
 0.87699997E+02  0.19606E+06
 0.87749992E+02  0.20412E+06
 0.87799995E+02  0.20348E+06
 0.87849991E+02  0.19622E+06
 0.87899994E+02  0.17869E+06
 0.87949997E+02  0.15277E+06
 0.87999992E+02  0.12587E+06
 0.88049995E+02  0.98668E+05
 0.88099991E+02  0.67260E+05
 0.88149994E+02  0.31220E+05
 0.88199997E+02 -0.11913E+05
 0.88249992E+02 -0.61217E+05
 0.88299995E+02 -0.10700E+06
 0.88349991E+02 -0.14322E+06
 0.88399994E+02 -0.17153E+06
 0.88449997E+02 -0.19587E+06
 0.88499992E+02 -0.21495E+06
 0.88549995E+02 -0.22806E+06
 0.88599991E+02 -0.23597E+06
 0.88649994E+02 -0.23279E+06
 0.88699997E+02 -0.21129E+06
 0.88749992E+02 -0.17599E+06
 0.88799995E+02 -0.13856E+06
 0.88849991E+02 -0.10447E+06
 0.88899994E+02 -0.73752E+05
 0.88949997E+02 -0.45942E+05
 0.88999992E+02 -0.21335E+05
 0.89049995E+02  0.27142E+03
 0.89099991E+02  0.18979E+05
 0.89149994E+02  0.36943E+05
 0.89199997E+02  0.57257E+05
 0.89249992E+02  0.82441E+05
 0.89299995E+02  0.11174E+06
 0.89349991E+02  0.14075E+06
 0.89399994E+02  0.16219E+06
 0.89449997E+02  0.16920E+06
 0.89499992E+02  0.15743E+06
 0.89549995E+02  0.12773E+06
 0.89599991E+02  0.90631E+05
 0.89649994E+02  0.56760E+05
 0.89699997E+02  0.33026E+05
 0.89749992E+02  0.15429E+05
 0.89799995E+02 -0.67292E+04
 0.89849991E+02 -0.34441E+05
 0.89899994E+02 -0.59194E+05
 0.89949997E+02 -0.78053E+05
 0.89999992E+02 -0.94053E+05
 0.90049995E+02 -0.10528E+06
 0.90099991E+02 -0.10940E+06
 0.90149994E+02 -0.10893E+06
 0.90199997E+02 -0.10517E+06
 0.90249992E+02 -0.98189E+05
 0.90299995E+02 -0.89232E+05
 0.90349991E+02 -0.78978E+05
 0.90399994E+02 -0.69856E+05
 0.90449997E+02 -0.60349E+05
 0.90499992E+02 -0.43863E+05
 0.90549995E+02 -0.17017E+05
 0.90599991E+02  0.16190E+05
 0.90649994E+02  0.51944E+05
 0.90699997E+02  0.87293E+05
 0.90749992E+02  0.11855E+06
 0.90799995E+02  0.14061E+06
 0.90849991E+02  0.15089E+06
 0.90899994E+02  0.15233E+06
 0.90949997E+02  0.14828E+06
 0.90999992E+02  0.14469E+06
 0.91049995E+02  0.14606E+06
 0.91099991E+02  0.15509E+06
 0.91149994E+02  0.17200E+06
 0.91199997E+02  0.19122E+06
 0.91249992E+02  0.20568E+06
 0.91299995E+02  0.21410E+06
 0.91349991E+02  0.22051E+06
 0.91399994E+02  0.22617E+06
 0.91449997E+02  0.22891E+06
 0.91499992E+02  0.22444E+06
 0.91549995E+02  0.21045E+06
 0.91599991E+02  0.18816E+06
 0.91649994E+02  0.15665E+06
 0.91699997E+02  0.11781E+06
 0.91749992E+02  0.78256E+05
 0.91799995E+02  0.42940E+05
 0.91849991E+02  0.13482E+05
 0.91899994E+02 -0.12233E+05
 0.91949997E+02 -0.32910E+05
 0.91999992E+02 -0.44338E+05
 0.92049995E+02 -0.50293E+05
 0.92099991E+02 -0.54494E+05
 0.92149994E+02 -0.57089E+05
 0.92199997E+02 -0.62291E+05
 0.92249992E+02 -0.71557E+05
 0.92299995E+02 -0.79622E+05
 0.92349991E+02 -0.80055E+05
 0.92399994E+02 -0.73087E+05
 0.92449997E+02 -0.64257E+05
 0.92499992E+02 -0.56987E+05
 0.92549995E+02 -0.54427E+05
 0.92599991E+02 -0.56035E+05
 0.92649994E+02 -0.55767E+05
 0.92699997E+02 -0.50288E+05
 0.92749992E+02 -0.39545E+05
 0.92799995E+02 -0.24159E+05
 0.92849991E+02 -0.66180E+04
 0.92899994E+02  0.10945E+05
 0.92949997E+02  0.27424E+05
 0.92999992E+02  0.41020E+05
 0.93049995E+02  0.47812E+05
 0.93099991E+02  0.47102E+05
 0.93149994E+02  0.47549E+05
 0.93199997E+02  0.56762E+05
 0.93249992E+02  0.74118E+05
 0.93299995E+02  0.93149E+05
 0.93349991E+02  0.11036E+06
 0.93399994E+02  0.12599E+06
 0.93449997E+02  0.14053E+06
 0.93499992E+02  0.15570E+06
 0.93549995E+02  0.17321E+06
 0.93599991E+02  0.19156E+06
 0.93649994E+02  0.20835E+06
 0.93699997E+02  0.21867E+06
 0.93749992E+02  0.21670E+06
 0.93799995E+02  0.20294E+06
 0.93849991E+02  0.17988E+06
 0.93899994E+02  0.15122E+06
 0.93949997E+02  0.12348E+06
 0.93999992E+02  0.10281E+06
 0.94049995E+02  0.92089E+05
 0.94099991E+02  0.91857E+05
 0.94149994E+02  0.10291E+06
 0.94199997E+02  0.12399E+06
 0.94249992E+02  0.14744E+06
 0.94299995E+02  0.16278E+06
 0.94349991E+02  0.16533E+06
 0.94399994E+02  0.15678E+06
 0.94449997E+02  0.13707E+06
 0.94499992E+02  0.10981E+06
 0.94549995E+02  0.81701E+05
 0.94599991E+02  0.53209E+05
 0.94649994E+02  0.24575E+05
 0.94699997E+02 -0.14006E+04
 0.94749992E+02 -0.25201E+05
 0.94799995E+02 -0.46973E+05
 0.94849991E+02 -0.63133E+05
 0.94899994E+02 -0.72388E+05
 0.94949997E+02 -0.74415E+05
 0.94999992E+02 -0.66894E+05
 0.95049995E+02 -0.51099E+05
 0.95099991E+02 -0.32659E+05
 0.95149994E+02 -0.19800E+05
 0.95199997E+02 -0.16991E+05
 0.95249992E+02 -0.23802E+05
 0.95299995E+02 -0.36893E+05
 0.95349991E+02 -0.49684E+05
 0.95399994E+02 -0.59492E+05
 0.95449997E+02 -0.67134E+05
 0.95499992E+02 -0.70582E+05
 0.95549995E+02 -0.68303E+05
 0.95599991E+02 -0.61920E+05
 0.95649994E+02 -0.54142E+05
 0.95699997E+02 -0.48171E+05
 0.95749992E+02 -0.44364E+05
 0.95799995E+02 -0.41013E+05
 0.95849991E+02 -0.39258E+05
 0.95899994E+02 -0.44853E+05
 0.95949997E+02 -0.60249E+05
 0.95999992E+02 -0.80207E+05
 0.96049995E+02 -0.98857E+05
 0.96099991E+02 -0.11462E+06
 0.96149994E+02 -0.12827E+06
 0.96199997E+02 -0.14369E+06
 0.96249992E+02 -0.16520E+06
 0.96299995E+02 -0.19094E+06
 0.96349991E+02 -0.21730E+06
 0.96399994E+02 -0.24331E+06
 0.96449997E+02 -0.27074E+06
 0.96499992E+02 -0.29955E+06
 0.96549995E+02 -0.32631E+06
 0.96599991E+02 -0.34886E+06
 0.96649994E+02 -0.36575E+06
 0.96699997E+02 -0.37565E+06
 0.96749992E+02 -0.37744E+06
 0.96799995E+02 -0.37292E+06
 0.96849991E+02 -0.36580E+06
 0.96899994E+02 -0.35518E+06
 0.96949997E+02 -0.33723E+06
 0.96999992E+02 -0.31293E+06
 0.97049995E+02 -0.28429E+06
 0.97099991E+02 -0.25208E+06
 0.97149994E+02 -0.21843E+06
 0.97199997E+02 -0.18274E+06
 0.97249992E+02 -0.14422E+06
 0.97299995E+02 -0.10581E+06
 0.97349991E+02 -0.72020E+05
 0.97399994E+02 -0.44470E+05
 0.97449997E+02 -0.22556E+05
 0.97499992E+02 -0.55977E+04
 0.97549995E+02  0.58337E+04
 0.97599991E+02  0.11654E+05
 0.97649994E+02  0.12908E+05
 0.97699997E+02  0.13734E+05
 0.97749992E+02  0.18789E+05
 0.97799995E+02  0.29246E+05
 0.97849991E+02  0.44843E+05
 0.97899994E+02  0.64636E+05
 0.97949997E+02  0.86884E+05
 0.97999992E+02  0.10457E+06
