-0.20000000E+01 -0.22949E+04
-0.19500000E+01 -0.26223E+04
-0.19000000E+01 -0.32556E+04
-0.18500000E+01 -0.40468E+04
-0.18000000E+01 -0.49686E+04
-0.17500000E+01 -0.59137E+04
-0.17000000E+01 -0.67628E+04
-0.16500001E+01 -0.74927E+04
-0.16000000E+01 -0.81299E+04
-0.15500000E+01 -0.86294E+04
-0.15000000E+01 -0.88933E+04
-0.14500000E+01 -0.88897E+04
-0.14000001E+01 -0.86431E+04
-0.13500000E+01 -0.80853E+04
-0.13000001E+01 -0.72124E+04
-0.12500000E+01 -0.60857E+04
-0.12000000E+01 -0.47752E+04
-0.11500001E+01 -0.33907E+04
-0.11000000E+01 -0.20116E+04
-0.10500001E+01 -0.59143E+03
-0.10000000E+01  0.93100E+03
-0.95000005E+00  0.25461E+04
-0.90000010E+00  0.42194E+04
-0.85000002E+00  0.58479E+04
-0.80000007E+00  0.73270E+04
-0.75000012E+00  0.85559E+04
-0.70000005E+00  0.95237E+04
-0.65000010E+00  0.10278E+05
-0.60000014E+00  0.10903E+05
-0.55000007E+00  0.11469E+05
-0.50000012E+00  0.11982E+05
-0.45000005E+00  0.12415E+05
-0.40000010E+00  0.12734E+05
-0.35000014E+00  0.12989E+05
-0.30000007E+00  0.13295E+05
-0.25000012E+00  0.13656E+05
-0.20000005E+00  0.13980E+05
-0.15000010E+00  0.14182E+05
-0.10000014E+00  0.14147E+05
-0.50000072E-01  0.13808E+05
-0.11920929E-06  0.13138E+05
 0.49999952E-01  0.12099E+05
 0.99999905E-01  0.10691E+05
 0.14999986E+00  0.90486E+04
 0.19999981E+00  0.72735E+04
 0.24999976E+00  0.53643E+04
 0.29999995E+00  0.33731E+04
 0.34999990E+00  0.13455E+04
 0.39999986E+00 -0.66312E+03
 0.44999981E+00 -0.26515E+04
 0.49999976E+00 -0.46223E+04
 0.54999995E+00 -0.65703E+04
 0.59999990E+00 -0.84844E+04
 0.64999986E+00 -0.10294E+05
 0.69999981E+00 -0.11910E+05
 0.74999976E+00 -0.13183E+05
 0.79999971E+00 -0.14077E+05
 0.84999990E+00 -0.14630E+05
 0.89999986E+00 -0.14819E+05
 0.94999981E+00 -0.14686E+05
 0.99999976E+00 -0.14300E+05
 0.10499997E+01 -0.13697E+05
 0.10999999E+01 -0.12888E+05
 0.11499999E+01 -0.11911E+05
 0.11999998E+01 -0.10810E+05
 0.12499998E+01 -0.97038E+04
 0.12999997E+01 -0.86871E+04
 0.13499999E+01 -0.77665E+04
 0.13999999E+01 -0.69776E+04
 0.14499998E+01 -0.62800E+04
 0.14999998E+01 -0.56458E+04
 0.15499997E+01 -0.50354E+04
 0.15999999E+01 -0.44531E+04
 0.16499999E+01 -0.39080E+04
 0.16999998E+01 -0.33998E+04
 0.17499998E+01 -0.29166E+04
 0.17999997E+01 -0.24465E+04
 0.18499997E+01 -0.19931E+04
 0.18999999E+01 -0.15605E+04
 0.19499998E+01 -0.11590E+04
 0.19999998E+01 -0.75629E+03
 0.20499997E+01 -0.35884E+03
 0.20999999E+01  0.43528E+02
 0.21499996E+01  0.48735E+03
 0.21999998E+01  0.10142E+04
 0.22499995E+01  0.16375E+04
 0.22999997E+01  0.23824E+04
 0.23499999E+01  0.32388E+04
 0.23999996E+01  0.41991E+04
 0.24499998E+01  0.52918E+04
 0.24999995E+01  0.64840E+04
 0.25499997E+01  0.76348E+04
 0.25999999E+01  0.86478E+04
 0.26499996E+01  0.95082E+04
 0.26999998E+01  0.10200E+05
 0.27499995E+01  0.10718E+05
 0.27999997E+01  0.11063E+05
 0.28499999E+01  0.11239E+05
 0.28999996E+01  0.11236E+05
 0.29499998E+01  0.11098E+05
 0.29999995E+01  0.10839E+05
 0.30499997E+01  0.10393E+05
 0.30999999E+01  0.97641E+04
 0.31499996E+01  0.89403E+04
 0.31999998E+01  0.79435E+04
 0.32499995E+01  0.68330E+04
 0.32999997E+01  0.56416E+04
 0.33499999E+01  0.43963E+04
 0.33999996E+01  0.30637E+04
 0.34499998E+01  0.16748E+04
 0.34999995E+01  0.27613E+03
 0.35499997E+01 -0.10899E+04
 0.35999994E+01 -0.24058E+04
 0.36499996E+01 -0.36216E+04
 0.36999998E+01 -0.46499E+04
 0.37499995E+01 -0.54260E+04
 0.37999997E+01 -0.58822E+04
 0.38499994E+01 -0.59872E+04
 0.38999996E+01 -0.58079E+04
 0.39499998E+01 -0.54812E+04
 0.39999995E+01 -0.51133E+04
 0.40499997E+01 -0.47669E+04
 0.40999994E+01 -0.44915E+04
 0.41499996E+01 -0.43225E+04
 0.41999998E+01 -0.43144E+04
 0.42499995E+01 -0.44430E+04
 0.42999997E+01 -0.46265E+04
 0.43499994E+01 -0.48296E+04
 0.43999996E+01 -0.50269E+04
 0.44499998E+01 -0.52265E+04
 0.44999995E+01 -0.54272E+04
 0.45499997E+01 -0.56293E+04
 0.45999994E+01 -0.58181E+04
 0.46499996E+01 -0.59488E+04
 0.46999998E+01 -0.60374E+04
 0.47499995E+01 -0.61218E+04
 0.47999997E+01 -0.61175E+04
 0.48499994E+01 -0.58868E+04
 0.48999996E+01 -0.53917E+04
 0.49499998E+01 -0.46389E+04
 0.49999995E+01 -0.36908E+04
 0.50499997E+01 -0.26493E+04
 0.50999994E+01 -0.15876E+04
 0.51499996E+01 -0.53315E+03
 0.51999998E+01  0.47938E+03
 0.52499995E+01  0.13918E+04
 0.52999997E+01  0.21837E+04
 0.53499994E+01  0.28474E+04
 0.53999996E+01  0.33792E+04
 0.54499993E+01  0.37745E+04
 0.54999995E+01  0.40014E+04
 0.55499997E+01  0.39963E+04
 0.55999994E+01  0.37598E+04
 0.56499996E+01  0.33567E+04
 0.56999993E+01  0.28536E+04
 0.57499995E+01  0.23028E+04
 0.57999997E+01  0.17554E+04
 0.58499994E+01  0.12142E+04
 0.58999996E+01  0.59611E+03
 0.59499993E+01 -0.16328E+03
 0.59999995E+01 -0.10832E+04
 0.60499992E+01 -0.21338E+04
 0.60999994E+01 -0.32247E+04
 0.61499996E+01 -0.42542E+04
 0.61999998E+01 -0.50969E+04
 0.62499990E+01 -0.56684E+04
 0.62999992E+01 -0.59675E+04
 0.63499994E+01 -0.60808E+04
 0.63999996E+01 -0.61365E+04
 0.64499998E+01 -0.61194E+04
 0.64999990E+01 -0.59862E+04
 0.65499992E+01 -0.57211E+04
 0.65999994E+01 -0.53149E+04
 0.66499996E+01 -0.48020E+04
 0.66999998E+01 -0.42287E+04
 0.67499990E+01 -0.36660E+04
 0.67999992E+01 -0.31765E+04
 0.68499994E+01 -0.27633E+04
 0.68999996E+01 -0.24247E+04
 0.69499998E+01 -0.21755E+04
 0.69999990E+01 -0.19773E+04
 0.70499992E+01 -0.17974E+04
 0.70999994E+01 -0.16035E+04
 0.71499996E+01 -0.14225E+04
 0.71999998E+01 -0.12845E+04
 0.72499990E+01 -0.11630E+04
 0.72999992E+01 -0.10718E+04
 0.73499994E+01 -0.10254E+04
 0.73999996E+01 -0.10181E+04
 0.74499998E+01 -0.10576E+04
 0.74999990E+01 -0.10917E+04
 0.75499992E+01 -0.10469E+04
 0.75999994E+01 -0.90637E+03
 0.76499996E+01 -0.63793E+03
 0.76999998E+01 -0.27440E+03
 0.77499990E+01  0.95058E+02
 0.77999992E+01  0.44288E+03
 0.78499994E+01  0.77407E+03
 0.78999996E+01  0.10926E+04
 0.79499998E+01  0.14022E+04
 0.79999990E+01  0.17050E+04
 0.80499992E+01  0.19728E+04
 0.80999994E+01  0.21591E+04
 0.81499996E+01  0.22319E+04
 0.81999998E+01  0.21467E+04
 0.82499990E+01  0.19027E+04
 0.82999992E+01  0.15217E+04
 0.83499994E+01  0.10524E+04
 0.83999996E+01  0.53124E+03
 0.84499998E+01 -0.54025E+02
 0.84999990E+01 -0.68294E+03
 0.85499992E+01 -0.13348E+04
 0.85999994E+01 -0.20130E+04
 0.86499996E+01 -0.27294E+04
 0.86999998E+01 -0.34652E+04
 0.87499990E+01 -0.41800E+04
 0.87999992E+01 -0.48137E+04
 0.88499994E+01 -0.53101E+04
 0.88999996E+01 -0.56068E+04
 0.89499998E+01 -0.57043E+04
 0.89999990E+01 -0.56201E+04
 0.90499992E+01 -0.53345E+04
 0.90999994E+01 -0.48475E+04
 0.91499996E+01 -0.41431E+04
 0.91999989E+01 -0.32458E+04
 0.92499990E+01 -0.22300E+04
 0.92999992E+01 -0.11980E+04
 0.93499994E+01 -0.21075E+03
 0.93999996E+01  0.74276E+03
 0.94499989E+01  0.16943E+04
 0.94999990E+01  0.27404E+04
 0.95499992E+01  0.39341E+04
 0.95999994E+01  0.52760E+04
 0.96499996E+01  0.68253E+04
 0.96999989E+01  0.85706E+04
 0.97499990E+01  0.10486E+05
 0.97999992E+01  0.12531E+05
 0.98499994E+01  0.14580E+05
 0.98999996E+01  0.16555E+05
 0.99499989E+01  0.18414E+05
 0.99999990E+01  0.20104E+05
 0.10049999E+02  0.21546E+05
 0.10099999E+02  0.22706E+05
 0.10150000E+02  0.23604E+05
 0.10199999E+02  0.24255E+05
 0.10249999E+02  0.24701E+05
 0.10299999E+02  0.24946E+05
 0.10349999E+02  0.25048E+05
 0.10400000E+02  0.25001E+05
 0.10449999E+02  0.24756E+05
 0.10499999E+02  0.24337E+05
 0.10549999E+02  0.23733E+05
 0.10599999E+02  0.22949E+05
 0.10650000E+02  0.21983E+05
 0.10699999E+02  0.20818E+05
 0.10749999E+02  0.19448E+05
 0.10799999E+02  0.17821E+05
 0.10849999E+02  0.15941E+05
 0.10900000E+02  0.13849E+05
 0.10949999E+02  0.11612E+05
 0.10999999E+02  0.93516E+04
 0.11049999E+02  0.71178E+04
 0.11099999E+02  0.49628E+04
 0.11150000E+02  0.29321E+04
 0.11199999E+02  0.10621E+04
 0.11249999E+02 -0.64266E+03
 0.11299999E+02 -0.21796E+04
 0.11349999E+02 -0.35098E+04
 0.11400000E+02 -0.46364E+04
 0.11449999E+02 -0.56276E+04
 0.11499999E+02 -0.65290E+04
 0.11549999E+02 -0.73192E+04
 0.11599999E+02 -0.79754E+04
 0.11650000E+02 -0.85267E+04
 0.11699999E+02 -0.90679E+04
 0.11749999E+02 -0.96435E+04
 0.11799999E+02 -0.10255E+05
 0.11849999E+02 -0.10887E+05
 0.11900000E+02 -0.11516E+05
 0.11949999E+02 -0.12091E+05
 0.11999999E+02 -0.12566E+05
 0.12049999E+02 -0.12967E+05
 0.12099999E+02 -0.13303E+05
 0.12150000E+02 -0.13587E+05
 0.12199999E+02 -0.13800E+05
 0.12249999E+02 -0.13942E+05
 0.12299999E+02 -0.13981E+05
 0.12349999E+02 -0.13831E+05
 0.12400000E+02 -0.13473E+05
 0.12449999E+02 -0.12937E+05
 0.12499999E+02 -0.12256E+05
 0.12549999E+02 -0.11428E+05
 0.12599999E+02 -0.10494E+05
 0.12649999E+02 -0.94869E+04
 0.12699999E+02 -0.84358E+04
 0.12749999E+02 -0.73771E+04
 0.12799999E+02 -0.64016E+04
 0.12849999E+02 -0.56115E+04
 0.12899999E+02 -0.50552E+04
 0.12949999E+02 -0.47086E+04
 0.12999999E+02 -0.45414E+04
 0.13049999E+02 -0.45393E+04
 0.13099999E+02 -0.46286E+04
 0.13149999E+02 -0.47597E+04
 0.13199999E+02 -0.49124E+04
 0.13249999E+02 -0.50800E+04
 0.13299999E+02 -0.52355E+04
 0.13349999E+02 -0.53252E+04
 0.13399999E+02 -0.53296E+04
 0.13449999E+02 -0.52530E+04
 0.13499999E+02 -0.51393E+04
 0.13549999E+02 -0.50096E+04
 0.13599999E+02 -0.48852E+04
 0.13649999E+02 -0.48260E+04
 0.13699999E+02 -0.47807E+04
 0.13749999E+02 -0.46956E+04
 0.13799999E+02 -0.46092E+04
 0.13849999E+02 -0.45779E+04
 0.13899999E+02 -0.46121E+04
 0.13949999E+02 -0.47027E+04
 0.13999999E+02 -0.48216E+04
 0.14049999E+02 -0.49131E+04
 0.14099998E+02 -0.49288E+04
 0.14150000E+02 -0.47820E+04
 0.14199999E+02 -0.43809E+04
 0.14249998E+02 -0.36910E+04
 0.14299999E+02 -0.27319E+04
 0.14349998E+02 -0.15767E+04
 0.14400000E+02 -0.27436E+03
 0.14449999E+02  0.11491E+04
 0.14499998E+02  0.26560E+04
 0.14549999E+02  0.41217E+04
 0.14599998E+02  0.54867E+04
 0.14650000E+02  0.67199E+04
 0.14699999E+02  0.77000E+04
 0.14749998E+02  0.84435E+04
 0.14799999E+02  0.89892E+04
 0.14849998E+02  0.93510E+04
 0.14900000E+02  0.95529E+04
 0.14949999E+02  0.96451E+04
 0.14999998E+02  0.96332E+04
 0.15049999E+02  0.94791E+04
 0.15099998E+02  0.91402E+04
 0.15150000E+02  0.85451E+04
 0.15199999E+02  0.76888E+04
 0.15249998E+02  0.66185E+04
 0.15299999E+02  0.53742E+04
 0.15349998E+02  0.39276E+04
 0.15400000E+02  0.23016E+04
 0.15449999E+02  0.55480E+03
 0.15499998E+02 -0.12557E+04
 0.15549999E+02 -0.31033E+04
 0.15599998E+02 -0.49338E+04
 0.15650000E+02 -0.66350E+04
 0.15699999E+02 -0.81817E+04
 0.15749998E+02 -0.95547E+04
 0.15799999E+02 -0.10722E+05
 0.15849998E+02 -0.11592E+05
 0.15900000E+02 -0.12148E+05
 0.15949999E+02 -0.12469E+05
 0.15999998E+02 -0.12656E+05
 0.16049999E+02 -0.12749E+05
 0.16099998E+02 -0.12676E+05
 0.16150000E+02 -0.12399E+05
 0.16199999E+02 -0.11871E+05
 0.16249998E+02 -0.11071E+05
 0.16299999E+02 -0.10045E+05
 0.16349998E+02 -0.88282E+04
 0.16400000E+02 -0.74563E+04
 0.16449999E+02 -0.59890E+04
 0.16499998E+02 -0.44787E+04
 0.16549999E+02 -0.29945E+04
 0.16599998E+02 -0.16683E+04
 0.16650000E+02 -0.59299E+03
 0.16699999E+02  0.17678E+03
 0.16749998E+02  0.62581E+03
 0.16799999E+02  0.80653E+03
 0.16849998E+02  0.75599E+03
 0.16900000E+02  0.55663E+03
 0.16949999E+02  0.28108E+03
 0.16999998E+02 -0.53742E+02
 0.17049999E+02 -0.49343E+03
 0.17099998E+02 -0.10403E+04
 0.17150000E+02 -0.16712E+04
 0.17199999E+02 -0.23477E+04
 0.17249998E+02 -0.29707E+04
 0.17299999E+02 -0.35063E+04
 0.17349998E+02 -0.39117E+04
 0.17400000E+02 -0.42089E+04
 0.17449999E+02 -0.43759E+04
 0.17499998E+02 -0.43548E+04
 0.17549999E+02 -0.41272E+04
 0.17599998E+02 -0.36231E+04
 0.17650000E+02 -0.28553E+04
 0.17699999E+02 -0.18695E+04
 0.17749998E+02 -0.74680E+03
 0.17799999E+02  0.53626E+03
 0.17849998E+02  0.20093E+04
 0.17900000E+02  0.36360E+04
 0.17949999E+02  0.53625E+04
 0.17999998E+02  0.70768E+04
 0.18049999E+02  0.87001E+04
 0.18099998E+02  0.10147E+05
 0.18150000E+02  0.11365E+05
 0.18199999E+02  0.12317E+05
 0.18249998E+02  0.13013E+05
 0.18299999E+02  0.13500E+05
 0.18349998E+02  0.13785E+05
 0.18400000E+02  0.13802E+05
 0.18449999E+02  0.13511E+05
 0.18499998E+02  0.12874E+05
 0.18549999E+02  0.11905E+05
 0.18599998E+02  0.10677E+05
 0.18650000E+02  0.92978E+04
 0.18699999E+02  0.78489E+04
 0.18749998E+02  0.63820E+04
 0.18799999E+02  0.49722E+04
 0.18849998E+02  0.36669E+04
 0.18900000E+02  0.25178E+04
 0.18949999E+02  0.15714E+04
 0.18999998E+02  0.85913E+03
 0.19049999E+02  0.36561E+03
 0.19099998E+02  0.86696E+02
 0.19150000E+02 -0.89591E+01
 0.19199999E+02  0.71245E+02
 0.19249998E+02  0.32196E+03
 0.19299999E+02  0.68618E+03
 0.19349998E+02  0.11217E+04
 0.19400000E+02  0.15899E+04
 0.19449999E+02  0.21109E+04
 0.19499998E+02  0.26474E+04
 0.19549999E+02  0.30850E+04
 0.19599998E+02  0.33488E+04
 0.19650000E+02  0.34222E+04
 0.19699999E+02  0.33354E+04
 0.19749998E+02  0.31843E+04
 0.19799999E+02  0.30811E+04
 0.19849998E+02  0.31382E+04
 0.19900000E+02  0.34043E+04
 0.19949999E+02  0.38675E+04
 0.19999998E+02  0.44839E+04
 0.20049999E+02  0.52021E+04
 0.20099998E+02  0.59633E+04
 0.20150000E+02  0.67293E+04
 0.20199999E+02  0.74763E+04
 0.20249998E+02  0.81771E+04
 0.20299999E+02  0.88534E+04
 0.20349998E+02  0.94677E+04
 0.20399998E+02  0.10025E+05
 0.20449999E+02  0.10489E+05
 0.20499998E+02  0.10841E+05
 0.20549999E+02  0.11084E+05
 0.20599998E+02  0.11231E+05
 0.20649998E+02  0.11369E+05
 0.20699999E+02  0.11563E+05
 0.20749998E+02  0.11832E+05
 0.20799999E+02  0.12107E+05
 0.20849998E+02  0.12301E+05
 0.20899998E+02  0.12372E+05
 0.20949999E+02  0.12283E+05
 0.20999998E+02  0.12068E+05
 0.21049999E+02  0.11812E+05
 0.21099998E+02  0.11533E+05
 0.21149998E+02  0.11248E+05
 0.21199999E+02  0.10950E+05
 0.21249998E+02  0.10622E+05
 0.21299999E+02  0.10258E+05
 0.21349998E+02  0.98526E+04
 0.21399998E+02  0.94157E+04
 0.21449999E+02  0.89016E+04
 0.21499998E+02  0.82869E+04
 0.21549999E+02  0.75561E+04
 0.21599998E+02  0.66443E+04
 0.21649998E+02  0.54958E+04
 0.21699999E+02  0.41372E+04
 0.21749998E+02  0.26170E+04
 0.21799999E+02  0.97732E+03
 0.21849998E+02 -0.72291E+03
 0.21899998E+02 -0.24141E+04
 0.21949999E+02 -0.40264E+04
 0.21999998E+02 -0.55603E+04
 0.22049999E+02 -0.69862E+04
 0.22099998E+02 -0.82488E+04
 0.22149998E+02 -0.93471E+04
 0.22199999E+02 -0.10324E+05
 0.22249998E+02 -0.11210E+05
 0.22299999E+02 -0.11982E+05
 0.22349998E+02 -0.12652E+05
 0.22399998E+02 -0.13218E+05
 0.22449999E+02 -0.13669E+05
 0.22499998E+02 -0.14000E+05
 0.22549999E+02 -0.14235E+05
 0.22599998E+02 -0.14392E+05
 0.22649998E+02 -0.14465E+05
 0.22699999E+02 -0.14436E+05
 0.22749998E+02 -0.14286E+05
 0.22799999E+02 -0.14074E+05
 0.22849998E+02 -0.13867E+05
 0.22899998E+02 -0.13736E+05
 0.22949999E+02 -0.13706E+05
 0.22999998E+02 -0.13756E+05
 0.23049999E+02 -0.13818E+05
 0.23099998E+02 -0.13845E+05
 0.23149998E+02 -0.13822E+05
 0.23199999E+02 -0.13722E+05
 0.23249998E+02 -0.13576E+05
 0.23299999E+02 -0.13411E+05
 0.23349998E+02 -0.13209E+05
 0.23399998E+02 -0.12944E+05
 0.23449999E+02 -0.12654E+05
 0.23499998E+02 -0.12363E+05
 0.23549999E+02 -0.12070E+05
 0.23599998E+02 -0.11783E+05
 0.23649998E+02 -0.11522E+05
 0.23699999E+02 -0.11295E+05
 0.23749998E+02 -0.11088E+05
 0.23799999E+02 -0.10899E+05
 0.23849998E+02 -0.10708E+05
 0.23899998E+02 -0.10464E+05
 0.23949999E+02 -0.10109E+05
 0.23999998E+02 -0.95959E+04
 0.24049999E+02 -0.88914E+04
 0.24099998E+02 -0.79787E+04
 0.24149998E+02 -0.68340E+04
 0.24199999E+02 -0.54126E+04
 0.24249998E+02 -0.37653E+04
 0.24299999E+02 -0.19781E+04
 0.24349998E+02 -0.15101E+03
 0.24399998E+02  0.16286E+04
 0.24449999E+02  0.33466E+04
 0.24499998E+02  0.49562E+04
 0.24549999E+02  0.63923E+04
 0.24599998E+02  0.76559E+04
 0.24649998E+02  0.87601E+04
 0.24699999E+02  0.96957E+04
 0.24749998E+02  0.10458E+05
 0.24799999E+02  0.10999E+05
 0.24849998E+02  0.11283E+05
 0.24899998E+02  0.11293E+05
 0.24949999E+02  0.11039E+05
 0.24999998E+02  0.10496E+05
 0.25049999E+02  0.96773E+04
 0.25099998E+02  0.85804E+04
 0.25149998E+02  0.72190E+04
 0.25199999E+02  0.55347E+04
 0.25249998E+02  0.35591E+04
 0.25299999E+02  0.12980E+04
 0.25349998E+02 -0.11392E+04
 0.25399998E+02 -0.36724E+04
 0.25449999E+02 -0.63395E+04
 0.25499998E+02 -0.89193E+04
 0.25549999E+02 -0.11471E+05
 0.25599998E+02 -0.13882E+05
 0.25649998E+02 -0.16123E+05
 0.25699999E+02 -0.18255E+05
 0.25749998E+02 -0.20164E+05
 0.25799999E+02 -0.21757E+05
 0.25849998E+02 -0.23019E+05
 0.25899998E+02 -0.23928E+05
 0.25949999E+02 -0.24481E+05
 0.25999998E+02 -0.24576E+05
 0.26049999E+02 -0.24540E+05
 0.26099998E+02 -0.24328E+05
 0.26149998E+02 -0.24055E+05
 0.26199999E+02 -0.23917E+05
 0.26249998E+02 -0.23488E+05
 0.26299999E+02 -0.22918E+05
 0.26349998E+02 -0.21964E+05
 0.26399998E+02 -0.20891E+05
 0.26449999E+02 -0.20357E+05
 0.26499998E+02 -0.20307E+05
 0.26549999E+02 -0.20433E+05
 0.26599998E+02 -0.20452E+05
 0.26649998E+02 -0.19195E+05
 0.26699999E+02 -0.16624E+05
 0.26749998E+02 -0.13499E+05
 0.26799999E+02 -0.12506E+05
 0.26849998E+02 -0.14261E+05
 0.26899998E+02 -0.16554E+05
 0.26949999E+02 -0.18053E+05
 0.26999998E+02 -0.18237E+05
 0.27049997E+02 -0.15943E+05
 0.27099998E+02 -0.11614E+05
 0.27149998E+02 -0.70231E+04
 0.27199999E+02 -0.15718E+04
 0.27249998E+02  0.44832E+04
 0.27299997E+02  0.11924E+05
 0.27349998E+02  0.20352E+05
 0.27399998E+02  0.29726E+05
 0.27449999E+02  0.36367E+05
 0.27499998E+02  0.34889E+05
 0.27549997E+02  0.25042E+05
 0.27599998E+02  0.11558E+05
 0.27649998E+02  0.47016E+04
 0.27699999E+02  0.75797E+04
 0.27749998E+02  0.12421E+05
 0.27799997E+02  0.15161E+05
 0.27849998E+02  0.15621E+05
 0.27899998E+02  0.19687E+05
 0.27949999E+02  0.30298E+05
 0.27999998E+02  0.42492E+05
 0.28049997E+02  0.51444E+05
 0.28099998E+02  0.58334E+05
 0.28149998E+02  0.59806E+05
 0.28199999E+02  0.52322E+05
 0.28249998E+02  0.38862E+05
 0.28299997E+02  0.26408E+05
 0.28349998E+02  0.20329E+05
 0.28399998E+02  0.24673E+05
 0.28449999E+02  0.36637E+05
 0.28499998E+02  0.42230E+05
 0.28549997E+02  0.44871E+05
 0.28599998E+02  0.56408E+05
 0.28649998E+02  0.76562E+05
 0.28699999E+02  0.90853E+05
 0.28749998E+02  0.89954E+05
 0.28799997E+02  0.64746E+05
 0.28849998E+02  0.30112E+05
 0.28899998E+02  0.14477E+05
 0.28949999E+02  0.21655E+05
 0.28999998E+02  0.28473E+05
 0.29049997E+02  0.30416E+05
 0.29099998E+02  0.33698E+05
 0.29149998E+02  0.28778E+05
 0.29199999E+02  0.26854E+05
 0.29249998E+02  0.32885E+05
 0.29299997E+02  0.38978E+05
 0.29349998E+02  0.46677E+05
 0.29399998E+02  0.58072E+05
 0.29449999E+02  0.48016E+05
 0.29499998E+02  0.22771E+05
 0.29549997E+02  0.10727E+05
 0.29599998E+02  0.16491E+05
 0.29649998E+02  0.36725E+05
 0.29699999E+02  0.57335E+05
 0.29749998E+02  0.70772E+05
 0.29799997E+02  0.84732E+05
 0.29849998E+02  0.90716E+05
 0.29899998E+02  0.81118E+05
 0.29949999E+02  0.77867E+05
 0.29999998E+02  0.76277E+05
 0.30049999E+02  0.61979E+05
 0.30099998E+02  0.45529E+05
 0.30149998E+02  0.30876E+05
 0.30199997E+02  0.23508E+05
 0.30249996E+02  0.30258E+05
 0.30299999E+02  0.38236E+05
 0.30349998E+02  0.50706E+05
 0.30399998E+02  0.60500E+05
 0.30449997E+02  0.56875E+05
 0.30499996E+02  0.58235E+05
 0.30549999E+02  0.54337E+05
 0.30599998E+02  0.27033E+05
 0.30649998E+02  0.11702E+04
 0.30699997E+02 -0.94454E+04
 0.30749996E+02 -0.20688E+05
 0.30799999E+02 -0.34939E+05
 0.30849998E+02 -0.41351E+05
 0.30899998E+02 -0.32314E+05
 0.30949997E+02 -0.17088E+05
 0.30999996E+02  0.47004E+04
 0.31049999E+02  0.30834E+05
 0.31099998E+02  0.36628E+05
 0.31149998E+02  0.35926E+05
 0.31199997E+02  0.34408E+05
 0.31249996E+02  0.28531E+05
 0.31299999E+02  0.12479E+05
 0.31349998E+02 -0.47931E+04
 0.31399998E+02 -0.12532E+05
 0.31449997E+02 -0.37054E+05
 0.31499996E+02 -0.60374E+05
 0.31549999E+02 -0.86838E+05
 0.31599998E+02 -0.10808E+06
 0.31649998E+02 -0.10426E+06
 0.31699997E+02 -0.93501E+05
 0.31749996E+02 -0.61492E+05
 0.31799999E+02 -0.17828E+05
 0.31849998E+02  0.17198E+05
 0.31899998E+02  0.23770E+05
 0.31949997E+02 -0.69167E+04
 0.31999996E+02 -0.44168E+05
 0.32049999E+02 -0.60106E+05
 0.32099998E+02 -0.65647E+05
 0.32149998E+02 -0.96357E+05
 0.32199997E+02 -0.13117E+06
 0.32249996E+02 -0.13138E+06
 0.32299999E+02 -0.11798E+06
 0.32349998E+02 -0.10870E+06
 0.32399998E+02 -0.94107E+05
 0.32449997E+02 -0.80046E+05
 0.32499996E+02 -0.67078E+05
 0.32549999E+02 -0.58014E+05
 0.32599998E+02 -0.56152E+05
 0.32649998E+02 -0.68716E+05
 0.32699997E+02 -0.67183E+05
 0.32749996E+02 -0.48657E+05
 0.32799999E+02 -0.41026E+05
 0.32849998E+02 -0.51723E+05
 0.32899998E+02 -0.69777E+05
 0.32949997E+02 -0.82744E+05
 0.32999996E+02 -0.10177E+06
 0.33049999E+02 -0.10957E+06
 0.33099998E+02 -0.10704E+06
 0.33149998E+02 -0.12224E+06
 0.33199997E+02 -0.12466E+06
 0.33249996E+02 -0.10702E+06
 0.33299999E+02 -0.10344E+06
 0.33349998E+02 -0.89417E+05
 0.33399998E+02 -0.62854E+05
 0.33449997E+02 -0.43415E+05
 0.33499996E+02 -0.31667E+05
 0.33549999E+02 -0.36797E+05
 0.33599998E+02 -0.56540E+05
 0.33649998E+02 -0.69911E+05
 0.33699997E+02 -0.73424E+05
 0.33749996E+02 -0.71646E+05
 0.33799999E+02 -0.63831E+05
 0.33849998E+02 -0.38225E+05
 0.33899998E+02 -0.14299E+05
 0.33949997E+02 -0.18098E+05
 0.33999996E+02 -0.93474E+04
 0.34049999E+02  0.24774E+05
 0.34099998E+02  0.93322E+05
 0.34149998E+02  0.17717E+06
 0.34199997E+02  0.23334E+06
 0.34249996E+02  0.24766E+06
 0.34299999E+02  0.21084E+06
 0.34349998E+02  0.15155E+06
 0.34399998E+02  0.11057E+06
 0.34449997E+02  0.83725E+05
 0.34499996E+02  0.69392E+05
 0.34549999E+02  0.96197E+05
 0.34599998E+02  0.12387E+06
 0.34649998E+02  0.12764E+06
 0.34699997E+02  0.96906E+05
 0.34749996E+02  0.57258E+05
 0.34799999E+02  0.32400E+05
 0.34849998E+02  0.16767E+04
 0.34899998E+02 -0.13081E+05
 0.34949997E+02  0.44506E+04
 0.34999996E+02  0.25567E+05
 0.35049999E+02  0.38892E+05
 0.35099998E+02  0.48196E+05
 0.35149998E+02  0.48822E+05
 0.35199997E+02  0.50777E+05
 0.35249996E+02  0.56101E+05
 0.35299999E+02  0.61617E+05
 0.35349998E+02  0.45138E+05
 0.35399998E+02  0.92652E+04
 0.35449997E+02 -0.19151E+05
 0.35499996E+02 -0.70801E+04
 0.35549999E+02  0.19079E+05
 0.35599998E+02  0.28551E+05
 0.35649998E+02  0.46813E+05
 0.35699997E+02  0.63015E+05
 0.35749996E+02  0.49879E+05
 0.35799999E+02  0.20259E+05
 0.35849998E+02  0.34278E+04
 0.35899998E+02 -0.12389E+05
 0.35949997E+02 -0.28647E+05
 0.35999996E+02 -0.19947E+05
 0.36049999E+02  0.40782E+04
 0.36099998E+02  0.39566E+05
 0.36149998E+02  0.72116E+05
 0.36199997E+02  0.73426E+05
 0.36249996E+02  0.52092E+05
 0.36299999E+02  0.13655E+05
 0.36349998E+02 -0.32535E+05
 0.36399998E+02 -0.56203E+05
 0.36449997E+02 -0.58767E+05
 0.36499996E+02 -0.54766E+05
 0.36549999E+02 -0.35117E+05
 0.36599998E+02 -0.62524E+04
 0.36649998E+02  0.16003E+05
 0.36699997E+02  0.37967E+05
 0.36749996E+02  0.51967E+05
 0.36799999E+02  0.36798E+05
 0.36849998E+02  0.52086E+04
 0.36899998E+02 -0.15767E+05
 0.36949997E+02 -0.29498E+05
 0.36999996E+02 -0.44600E+05
 0.37049999E+02 -0.62828E+05
 0.37099998E+02 -0.84912E+05
 0.37149998E+02 -0.88860E+05
 0.37199997E+02 -0.65901E+05
 0.37249996E+02 -0.20786E+05
 0.37299999E+02  0.31834E+05
 0.37349998E+02  0.55477E+05
 0.37399998E+02  0.50779E+05
 0.37449997E+02  0.29235E+05
 0.37499996E+02  0.17864E+04
 0.37549999E+02 -0.19124E+05
 0.37599998E+02 -0.39062E+05
 0.37649998E+02 -0.49071E+05
 0.37699997E+02 -0.60686E+05
 0.37749996E+02 -0.74622E+05
 0.37799999E+02 -0.93679E+05
 0.37849998E+02 -0.92759E+05
 0.37899998E+02 -0.67791E+05
 0.37949997E+02 -0.49736E+05
 0.37999996E+02 -0.28445E+05
 0.38049999E+02 -0.82197E+04
 0.38099998E+02  0.11617E+05
 0.38149998E+02  0.21631E+05
 0.38199997E+02  0.24251E+05
 0.38249996E+02  0.37318E+05
 0.38299999E+02  0.43844E+05
 0.38349998E+02  0.26406E+05
 0.38399998E+02  0.20381E+05
 0.38449997E+02  0.16904E+05
 0.38499996E+02  0.20786E+04
 0.38549999E+02  0.16406E+05
 0.38599998E+02  0.40123E+05
 0.38649998E+02  0.45182E+05
 0.38699997E+02  0.43389E+05
 0.38749996E+02  0.35925E+05
 0.38799999E+02  0.20307E+05
 0.38849998E+02  0.62499E+04
 0.38899998E+02  0.63575E+04
 0.38949997E+02  0.80618E+04
 0.38999996E+02  0.79918E+04
 0.39049999E+02  0.11347E+05
 0.39099998E+02 -0.31844E+03
 0.39149998E+02 -0.12177E+05
 0.39199997E+02 -0.28026E+05
 0.39249996E+02 -0.34775E+05
 0.39299999E+02 -0.17446E+05
 0.39349998E+02  0.74643E+04
 0.39399998E+02  0.26275E+05
 0.39449997E+02  0.30478E+05
 0.39499996E+02  0.38625E+05
 0.39549999E+02  0.44156E+05
 0.39599998E+02  0.48391E+05
 0.39649998E+02  0.46805E+05
 0.39699997E+02  0.45430E+05
 0.39749996E+02  0.38905E+05
 0.39799999E+02  0.17789E+05
 0.39849998E+02  0.12426E+04
 0.39899998E+02 -0.47110E+03
 0.39949997E+02  0.14795E+05
 0.39999996E+02  0.25785E+05
 0.40049999E+02  0.27150E+05
 0.40099998E+02  0.10132E+05
 0.40149998E+02 -0.11078E+05
 0.40199997E+02 -0.20900E+05
 0.40249996E+02 -0.11908E+05
 0.40299999E+02  0.18343E+05
 0.40349998E+02  0.56857E+05
 0.40399998E+02  0.87024E+05
 0.40449997E+02  0.95728E+05
 0.40499996E+02  0.92236E+05
 0.40549999E+02  0.90533E+05
 0.40599998E+02  0.80811E+05
 0.40649998E+02  0.61453E+05
 0.40699997E+02  0.46845E+05
 0.40749996E+02  0.23484E+05
 0.40799999E+02  0.38394E+02
 0.40849998E+02 -0.14599E+05
 0.40899998E+02 -0.23080E+05
 0.40949997E+02 -0.20243E+05
 0.40999996E+02 -0.87203E+04
 0.41049999E+02 -0.88511E+04
 0.41099998E+02 -0.11645E+05
 0.41149998E+02 -0.48189E+04
 0.41199997E+02 -0.40767E+04
 0.41249996E+02  0.74950E+04
 0.41299999E+02  0.33647E+05
 0.41349998E+02  0.63083E+05
 0.41399998E+02  0.95311E+05
 0.41449997E+02  0.11535E+06
 0.41499996E+02  0.12035E+06
 0.41549999E+02  0.10695E+06
 0.41599998E+02  0.90172E+05
 0.41649998E+02  0.74351E+05
 0.41699997E+02  0.46297E+05
 0.41749996E+02  0.16546E+05
 0.41799999E+02 -0.48186E+04
 0.41849998E+02 -0.23144E+05
 0.41899998E+02 -0.34200E+05
 0.41949997E+02 -0.29788E+05
 0.41999996E+02 -0.23067E+05
 0.42049999E+02 -0.20916E+05
 0.42099998E+02 -0.18586E+05
 0.42149998E+02 -0.12334E+05
 0.42199997E+02 -0.17435E+05
 0.42249996E+02 -0.26918E+05
 0.42299999E+02 -0.25036E+05
 0.42349998E+02 -0.24737E+05
 0.42399998E+02 -0.21004E+05
 0.42449997E+02 -0.12243E+05
 0.42499996E+02 -0.80184E+04
 0.42549999E+02  0.11403E+05
 0.42599998E+02  0.40729E+05
 0.42649998E+02  0.58141E+05
 0.42699997E+02  0.54862E+05
 0.42749996E+02  0.45655E+05
 0.42799995E+02  0.26849E+05
 0.42849998E+02 -0.11438E+05
 0.42899998E+02 -0.41853E+05
 0.42949997E+02 -0.53544E+05
 0.42999996E+02 -0.54815E+05
 0.43049995E+02 -0.51998E+05
 0.43099998E+02 -0.47645E+05
 0.43149998E+02 -0.42909E+05
 0.43199997E+02 -0.38156E+05
 0.43249996E+02 -0.46376E+05
 0.43299995E+02 -0.48062E+05
 0.43349998E+02 -0.33286E+05
 0.43399998E+02 -0.24344E+05
 0.43449997E+02 -0.26217E+05
 0.43499996E+02 -0.30097E+05
 0.43549995E+02 -0.27694E+05
 0.43599998E+02 -0.27569E+05
 0.43649998E+02 -0.32126E+05
 0.43699997E+02 -0.43213E+05
 0.43749996E+02 -0.52693E+05
 0.43799995E+02 -0.53787E+05
 0.43849998E+02 -0.60127E+05
 0.43899998E+02 -0.63348E+05
 0.43949997E+02 -0.59351E+05
 0.43999996E+02 -0.55687E+05
 0.44049995E+02 -0.56750E+05
 0.44099998E+02 -0.73409E+05
 0.44149998E+02 -0.89653E+05
 0.44199997E+02 -0.96296E+05
 0.44249996E+02 -0.94967E+05
 0.44299995E+02 -0.79854E+05
 0.44349998E+02 -0.62776E+05
 0.44399998E+02 -0.50360E+05
 0.44449997E+02 -0.32539E+05
 0.44499996E+02 -0.70908E+04
 0.44549995E+02  0.50428E+04
 0.44599998E+02 -0.25815E+03
 0.44649998E+02 -0.12458E+05
 0.44699997E+02 -0.19619E+05
 0.44749996E+02 -0.20431E+05
 0.44799995E+02 -0.26459E+05
 0.44849998E+02 -0.32249E+05
 0.44899998E+02 -0.23300E+05
 0.44949997E+02 -0.16274E+05
 0.44999996E+02 -0.29391E+05
 0.45049995E+02 -0.41575E+05
 0.45099998E+02 -0.34339E+05
 0.45149998E+02 -0.20859E+04
 0.45199997E+02  0.34365E+05
 0.45249996E+02  0.54851E+05
 0.45299995E+02  0.56141E+05
 0.45349998E+02  0.47972E+05
 0.45399998E+02  0.32076E+05
 0.45449997E+02  0.11487E+05
 0.45499996E+02  0.63713E+04
 0.45549995E+02  0.15298E+05
 0.45599998E+02  0.30630E+05
 0.45649998E+02  0.33918E+05
 0.45699997E+02  0.22955E+05
 0.45749996E+02  0.18790E+05
 0.45799995E+02  0.11503E+05
 0.45849998E+02 -0.92189E+04
 0.45899998E+02 -0.43565E+05
 0.45949997E+02 -0.60146E+05
 0.45999996E+02 -0.40720E+05
 0.46049995E+02 -0.30551E+05
 0.46099998E+02 -0.47285E+05
 0.46149998E+02 -0.76304E+05
 0.46199997E+02 -0.79924E+05
 0.46249996E+02 -0.48627E+05
 0.46299995E+02 -0.17966E+05
 0.46349998E+02  0.51109E+04
 0.46399998E+02  0.14989E+05
 0.46449997E+02  0.14718E+05
 0.46499996E+02  0.30443E+05
 0.46549995E+02  0.71362E+05
 0.46599998E+02  0.12447E+06
 0.46649998E+02  0.17574E+06
 0.46699997E+02  0.22657E+06
 0.46749996E+02  0.24803E+06
 0.46799995E+02  0.21702E+06
 0.46849998E+02  0.17858E+06
 0.46899998E+02  0.16439E+06
 0.46949997E+02  0.17308E+06
 0.46999996E+02  0.21064E+06
 0.47049995E+02  0.26252E+06
 0.47099998E+02  0.28666E+06
 0.47149998E+02  0.27726E+06
 0.47199997E+02  0.26423E+06
 0.47249996E+02  0.25923E+06
 0.47299995E+02  0.24395E+06
 0.47349998E+02  0.20090E+06
 0.47399998E+02  0.13278E+06
 0.47449997E+02  0.73491E+05
 0.47499996E+02  0.38043E+05
 0.47549995E+02 -0.10103E+04
 0.47599998E+02 -0.58361E+05
 0.47649998E+02 -0.13689E+06
 0.47699997E+02 -0.21062E+06
 0.47749996E+02 -0.25371E+06
 0.47799995E+02 -0.27364E+06
 0.47849998E+02 -0.31754E+06
 0.47899998E+02 -0.37425E+06
 0.47949997E+02 -0.38778E+06
 0.47999996E+02 -0.35294E+06
 0.48049995E+02 -0.29315E+06
 0.48099998E+02 -0.23579E+06
 0.48149998E+02 -0.18639E+06
 0.48199997E+02 -0.14560E+06
 0.48249996E+02 -0.11606E+06
 0.48299995E+02 -0.95774E+05
 0.48349998E+02 -0.88576E+05
 0.48399998E+02 -0.90897E+05
 0.48449997E+02 -0.76145E+05
 0.48499996E+02 -0.37422E+05
 0.48549995E+02 -0.46873E+04
 0.48599998E+02  0.20085E+05
 0.48649998E+02  0.39212E+05
 0.48699997E+02  0.57034E+05
 0.48749996E+02  0.75940E+05
 0.48799995E+02  0.58911E+05
 0.48849998E+02  0.29089E+05
 0.48899998E+02  0.21846E+05
 0.48949997E+02  0.13253E+05
 0.48999996E+02 -0.43888E+05
 0.49049995E+02 -0.12881E+06
 0.49099998E+02 -0.17834E+06
 0.49149998E+02 -0.18632E+06
 0.49199997E+02 -0.17109E+06
 0.49249996E+02 -0.11755E+06
 0.49299995E+02 -0.34642E+05
 0.49349998E+02  0.32658E+05
 0.49399998E+02  0.69793E+05
 0.49449997E+02  0.76914E+05
 0.49499996E+02  0.51297E+05
 0.49549995E+02  0.50699E+04
 0.49599998E+02 -0.79963E+04
 0.49649998E+02  0.91081E+04
 0.49699997E+02  0.15162E+04
 0.49749996E+02 -0.70044E+04
 0.49799995E+02  0.13545E+05
 0.49849998E+02  0.33071E+05
 0.49899998E+02  0.27048E+05
 0.49949997E+02  0.24195E+05
 0.49999996E+02  0.47339E+05
 0.50049995E+02  0.58784E+05
 0.50099998E+02  0.49448E+05
 0.50149998E+02  0.40325E+05
 0.50199997E+02  0.68889E+05
 0.50249996E+02  0.12940E+06
 0.50299995E+02  0.17628E+06
 0.50349998E+02  0.23667E+06
 0.50399998E+02  0.32187E+06
 0.50449997E+02  0.36992E+06
 0.50499996E+02  0.35675E+06
 0.50549995E+02  0.29306E+06
 0.50599998E+02  0.19261E+06
 0.50649998E+02  0.81393E+05
 0.50699997E+02  0.13949E+05
 0.50749996E+02  0.60252E+04
 0.50799995E+02  0.19364E+05
 0.50849998E+02  0.59801E+05
 0.50899998E+02  0.12849E+06
 0.50949997E+02  0.17135E+06
 0.50999996E+02  0.15826E+06
 0.51049995E+02  0.15650E+06
 0.51099998E+02  0.22877E+06
 0.51149998E+02  0.33933E+06
 0.51199997E+02  0.40372E+06
 0.51249996E+02  0.38831E+06
 0.51299995E+02  0.31722E+06
 0.51349998E+02  0.24451E+06
 0.51399998E+02  0.19594E+06
 0.51449997E+02  0.15918E+06
 0.51499996E+02  0.12397E+06
 0.51549995E+02  0.72156E+05
 0.51599998E+02 -0.13040E+05
 0.51649998E+02 -0.14272E+06
 0.51699997E+02 -0.27101E+06
 0.51749996E+02 -0.31322E+06
 0.51799995E+02 -0.26116E+06
 0.51849998E+02 -0.15592E+06
 0.51899998E+02 -0.69127E+05
 0.51949997E+02 -0.55049E+05
 0.51999996E+02 -0.81320E+05
 0.52049995E+02 -0.11753E+06
 0.52099998E+02 -0.13693E+06
 0.52149998E+02 -0.13086E+06
 0.52199997E+02 -0.11580E+06
 0.52249996E+02 -0.83652E+05
 0.52299995E+02 -0.37065E+05
 0.52349998E+02 -0.23310E+04
 0.52399998E+02 -0.15894E+05
 0.52449997E+02 -0.74303E+05
 0.52499996E+02 -0.13816E+06
 0.52549995E+02 -0.21807E+06
 0.52599998E+02 -0.32506E+06
 0.52649998E+02 -0.43772E+06
 0.52699997E+02 -0.50880E+06
 0.52749996E+02 -0.48083E+06
 0.52799995E+02 -0.36725E+06
 0.52849998E+02 -0.22631E+06
 0.52899998E+02 -0.80931E+05
 0.52949997E+02  0.54354E+05
 0.52999996E+02  0.13123E+06
 0.53049995E+02  0.12792E+06
 0.53099998E+02  0.78015E+05
 0.53149998E+02  0.22994E+05
 0.53199997E+02 -0.39251E+05
 0.53249996E+02 -0.10830E+06
 0.53299995E+02 -0.15766E+06
 0.53349998E+02 -0.17349E+06
 0.53399998E+02 -0.14812E+06
 0.53449997E+02 -0.10327E+06
 0.53499996E+02 -0.64273E+05
 0.53549995E+02 -0.38231E+05
 0.53599998E+02 -0.51811E+05
 0.53649998E+02 -0.75248E+05
 0.53699997E+02 -0.52399E+05
 0.53749996E+02 -0.16747E+05
 0.53799995E+02 -0.25169E+05
 0.53849998E+02 -0.77411E+05
 0.53899998E+02 -0.12567E+06
 0.53949997E+02 -0.12269E+06
 0.53999996E+02 -0.63497E+05
 0.54049995E+02 -0.89668E+04
 0.54099998E+02 -0.81774E+04
 0.54149998E+02 -0.48298E+05
 0.54199997E+02 -0.13646E+06
 0.54249996E+02 -0.25649E+06
 0.54299995E+02 -0.36228E+06
 0.54349998E+02 -0.42586E+06
 0.54399998E+02 -0.43109E+06
 0.54449997E+02 -0.39496E+06
 0.54499996E+02 -0.36592E+06
 0.54549995E+02 -0.36735E+06
 0.54599998E+02 -0.38987E+06
 0.54649998E+02 -0.42274E+06
 0.54699997E+02 -0.44115E+06
 0.54749996E+02 -0.44359E+06
 0.54799995E+02 -0.42227E+06
 0.54849998E+02 -0.39275E+06
 0.54899998E+02 -0.39089E+06
 0.54949997E+02 -0.39932E+06
 0.54999996E+02 -0.41180E+06
 0.55049995E+02 -0.41521E+06
 0.55099998E+02 -0.39922E+06
 0.55149998E+02 -0.39054E+06
 0.55199997E+02 -0.37938E+06
 0.55249996E+02 -0.37286E+06
 0.55299995E+02 -0.37266E+06
 0.55349998E+02 -0.34451E+06
 0.55399998E+02 -0.29340E+06
 0.55449997E+02 -0.23352E+06
 0.55499996E+02 -0.16760E+06
 0.55549995E+02 -0.10557E+06
 0.55599998E+02 -0.72725E+05
 0.55649998E+02 -0.84955E+05
 0.55699997E+02 -0.11103E+06
 0.55749996E+02 -0.12731E+06
 0.55799995E+02 -0.12659E+06
 0.55849995E+02 -0.10504E+06
 0.55899998E+02 -0.74837E+05
 0.55949997E+02 -0.56371E+05
 0.55999996E+02 -0.59244E+05
 0.56049995E+02 -0.69605E+05
 0.56099995E+02 -0.10499E+06
 0.56149998E+02 -0.17039E+06
 0.56199997E+02 -0.24108E+06
 0.56249996E+02 -0.30499E+06
 0.56299995E+02 -0.36288E+06
 0.56349995E+02 -0.40069E+06
 0.56399998E+02 -0.40834E+06
 0.56449997E+02 -0.37540E+06
 0.56499996E+02 -0.30973E+06
 0.56549995E+02 -0.24547E+06
 0.56599995E+02 -0.17290E+06
 0.56649998E+02 -0.82154E+05
 0.56699997E+02  0.55517E+04
 0.56749996E+02  0.69889E+05
 0.56799995E+02  0.99422E+05
 0.56849995E+02  0.83888E+05
 0.56899998E+02  0.30526E+05
 0.56949997E+02 -0.34870E+05
 0.56999996E+02 -0.97571E+05
 0.57049995E+02 -0.14425E+06
 0.57099995E+02 -0.16395E+06
 0.57149998E+02 -0.17038E+06
 0.57199997E+02 -0.17810E+06
 0.57249996E+02 -0.18464E+06
 0.57299995E+02 -0.17584E+06
 0.57349995E+02 -0.13400E+06
 0.57399998E+02 -0.76621E+05
 0.57449997E+02 -0.79714E+04
 0.57499996E+02  0.85530E+05
 0.57549995E+02  0.17946E+06
 0.57599995E+02  0.25419E+06
 0.57649998E+02  0.32318E+06
 0.57699997E+02  0.40151E+06
 0.57749996E+02  0.48229E+06
 0.57799995E+02  0.55504E+06
 0.57849995E+02  0.60429E+06
 0.57899998E+02  0.62492E+06
 0.57949997E+02  0.61982E+06
 0.57999996E+02  0.58870E+06
 0.58049995E+02  0.53110E+06
 0.58099995E+02  0.46281E+06
 0.58149998E+02  0.40583E+06
 0.58199997E+02  0.36613E+06
 0.58249996E+02  0.33531E+06
 0.58299995E+02  0.31941E+06
 0.58349995E+02  0.32229E+06
 0.58399998E+02  0.33054E+06
 0.58449997E+02  0.36321E+06
 0.58499996E+02  0.42273E+06
 0.58549995E+02  0.48243E+06
 0.58599995E+02  0.51099E+06
 0.58649998E+02  0.48498E+06
 0.58699997E+02  0.42087E+06
 0.58749996E+02  0.33958E+06
 0.58799995E+02  0.25451E+06
 0.58849995E+02  0.18348E+06
 0.58899998E+02  0.12163E+06
 0.58949997E+02  0.72729E+05
 0.58999996E+02  0.51106E+05
 0.59049995E+02  0.48610E+05
 0.59099995E+02  0.47881E+05
 0.59149998E+02  0.49292E+05
 0.59199997E+02  0.59458E+05
 0.59249996E+02  0.60469E+05
 0.59299995E+02  0.51989E+05
 0.59349995E+02  0.50469E+05
 0.59399998E+02  0.54305E+05
 0.59449997E+02  0.67156E+05
 0.59499996E+02  0.90805E+05
 0.59549995E+02  0.11188E+06
 0.59599995E+02  0.12856E+06
 0.59649998E+02  0.14008E+06
 0.59699997E+02  0.13934E+06
 0.59749996E+02  0.12526E+06
 0.59799995E+02  0.10822E+06
 0.59849995E+02  0.98784E+05
 0.59899998E+02  0.85988E+05
 0.59949997E+02  0.56729E+05
 0.59999996E+02  0.11072E+05
 0.60049995E+02 -0.30352E+05
 0.60099995E+02 -0.41773E+05
 0.60149998E+02 -0.19332E+05
 0.60199997E+02  0.31805E+05
 0.60249996E+02  0.11835E+06
 0.60299995E+02  0.21907E+06
 0.60349995E+02  0.29284E+06
 0.60399998E+02  0.33210E+06
 0.60449997E+02  0.33999E+06
 0.60499996E+02  0.32633E+06
 0.60549995E+02  0.31241E+06
 0.60599995E+02  0.29869E+06
 0.60649998E+02  0.26290E+06
 0.60699997E+02  0.20016E+06
 0.60749996E+02  0.11212E+06
 0.60799995E+02  0.21343E+05
 0.60849995E+02 -0.40162E+05
 0.60899998E+02 -0.63841E+05
 0.60949997E+02 -0.48119E+05
 0.60999996E+02 -0.80904E+04
 0.61049995E+02  0.35393E+05
 0.61099995E+02  0.73062E+05
 0.61149998E+02  0.11515E+06
 0.61199997E+02  0.16960E+06
 0.61249996E+02  0.21921E+06
 0.61299995E+02  0.24422E+06
 0.61349995E+02  0.24928E+06
 0.61399998E+02  0.24676E+06
 0.61449997E+02  0.24486E+06
 0.61499996E+02  0.24316E+06
 0.61549995E+02  0.23209E+06
 0.61599995E+02  0.20466E+06
 0.61649998E+02  0.15881E+06
 0.61699997E+02  0.10272E+06
 0.61749996E+02  0.50465E+05
 0.61799995E+02  0.14287E+05
 0.61849995E+02 -0.31486E+04
 0.61899998E+02 -0.65656E+04
 0.61949997E+02  0.63177E+04
 0.61999996E+02  0.43764E+05
 0.62049995E+02  0.93745E+05
 0.62099998E+02  0.12911E+06
 0.62149994E+02  0.14069E+06
 0.62199997E+02  0.13573E+06
 0.62249992E+02  0.12446E+06
 0.62299995E+02  0.11458E+06
 0.62349998E+02  0.10751E+06
 0.62399994E+02  0.99528E+05
 0.62449997E+02  0.92146E+05
 0.62499992E+02  0.96167E+05
 0.62549995E+02  0.10328E+06
 0.62599998E+02  0.10202E+06
 0.62649994E+02  0.10146E+06
 0.62699997E+02  0.10290E+06
 0.62749992E+02  0.92706E+05
 0.62799995E+02  0.71661E+05
 0.62849998E+02  0.58931E+05
 0.62899994E+02  0.52813E+05
 0.62949997E+02  0.43784E+05
 0.62999992E+02  0.30552E+05
 0.63049995E+02  0.10009E+05
 0.63099998E+02 -0.15210E+05
 0.63149994E+02 -0.47709E+05
 0.63199997E+02 -0.89537E+05
 0.63249992E+02 -0.13570E+06
 0.63299995E+02 -0.17468E+06
 0.63349998E+02 -0.19805E+06
 0.63399994E+02 -0.21114E+06
 0.63449997E+02 -0.22042E+06
 0.63499992E+02 -0.21802E+06
 0.63549995E+02 -0.19408E+06
 0.63599998E+02 -0.14711E+06
 0.63649994E+02 -0.85433E+05
 0.63699997E+02 -0.37175E+05
 0.63749992E+02 -0.14685E+05
 0.63799995E+02 -0.19796E+05
 0.63849998E+02 -0.53482E+05
 0.63899994E+02 -0.10327E+06
 0.63949997E+02 -0.14696E+06
 0.63999992E+02 -0.16608E+06
 0.64049995E+02 -0.15816E+06
 0.64099998E+02 -0.13118E+06
 0.64149994E+02 -0.98096E+05
 0.64199997E+02 -0.69146E+05
 0.64249992E+02 -0.52402E+05
 0.64299995E+02 -0.50040E+05
 0.64349998E+02 -0.57330E+05
 0.64399994E+02 -0.61918E+05
 0.64449997E+02 -0.62233E+05
 0.64499992E+02 -0.59933E+05
 0.64549995E+02 -0.51798E+05
 0.64599998E+02 -0.49480E+05
 0.64649994E+02 -0.58704E+05
 0.64699997E+02 -0.68980E+05
 0.64749992E+02 -0.70021E+05
 0.64799995E+02 -0.56355E+05
 0.64849998E+02 -0.30931E+05
 0.64899994E+02  0.23248E+04
 0.64949997E+02  0.30889E+05
 0.64999992E+02  0.40608E+05
 0.65049995E+02  0.44983E+05
 0.65099998E+02  0.56148E+05
 0.65149994E+02  0.63469E+05
 0.65199997E+02  0.61452E+05
 0.65249992E+02  0.61876E+05
 0.65299995E+02  0.70209E+05
 0.65349998E+02  0.81838E+05
 0.65399994E+02  0.94489E+05
 0.65449997E+02  0.10496E+06
 0.65499992E+02  0.10795E+06
 0.65549995E+02  0.99965E+05
 0.65599998E+02  0.94238E+05
 0.65649994E+02  0.97867E+05
 0.65699997E+02  0.10374E+06
 0.65749992E+02  0.10844E+06
 0.65799995E+02  0.99980E+05
 0.65849998E+02  0.75022E+05
 0.65899994E+02  0.41040E+05
 0.65949997E+02  0.91568E+04
 0.65999992E+02 -0.87501E+04
 0.66049995E+02 -0.82515E+04
 0.66099998E+02  0.46515E+04
 0.66149994E+02  0.23580E+05
 0.66199997E+02  0.52453E+05
 0.66249992E+02  0.87659E+05
 0.66299995E+02  0.12304E+06
 0.66349998E+02  0.14219E+06
 0.66399994E+02  0.13556E+06
 0.66449997E+02  0.11845E+06
 0.66499992E+02  0.10633E+06
 0.66549995E+02  0.10952E+06
 0.66599998E+02  0.13439E+06
 0.66649994E+02  0.17649E+06
 0.66699997E+02  0.21711E+06
 0.66749992E+02  0.23948E+06
 0.66799995E+02  0.24006E+06
 0.66849998E+02  0.22265E+06
 0.66899994E+02  0.19565E+06
 0.66949997E+02  0.16492E+06
 0.66999992E+02  0.12974E+06
 0.67049995E+02  0.94681E+05
 0.67099998E+02  0.73223E+05
 0.67149994E+02  0.68250E+05
 0.67199997E+02  0.65374E+05
 0.67249992E+02  0.58366E+05
 0.67299995E+02  0.50270E+05
 0.67349998E+02  0.42443E+05
 0.67399994E+02  0.27082E+05
 0.67449997E+02  0.86348E+02
 0.67499992E+02 -0.29129E+05
 0.67549995E+02 -0.52721E+05
 0.67599998E+02 -0.70111E+05
 0.67649994E+02 -0.86639E+05
 0.67699997E+02 -0.10606E+06
 0.67749992E+02 -0.12949E+06
 0.67799995E+02 -0.15828E+06
 0.67849998E+02 -0.18923E+06
 0.67899994E+02 -0.21549E+06
 0.67949997E+02 -0.23431E+06
 0.67999992E+02 -0.23769E+06
 0.68049995E+02 -0.21841E+06
 0.68099998E+02 -0.19018E+06
 0.68149994E+02 -0.17331E+06
 0.68199997E+02 -0.18044E+06
 0.68249992E+02 -0.20939E+06
 0.68299995E+02 -0.24611E+06
 0.68349998E+02 -0.27259E+06
 0.68399994E+02 -0.27593E+06
 0.68449997E+02 -0.25626E+06
 0.68499992E+02 -0.22635E+06
 0.68549995E+02 -0.20157E+06
 0.68599998E+02 -0.18773E+06
 0.68649994E+02 -0.18697E+06
 0.68699997E+02 -0.19492E+06
 0.68749992E+02 -0.20512E+06
 0.68799995E+02 -0.21299E+06
 0.68849998E+02 -0.21953E+06
 0.68899994E+02 -0.22242E+06
 0.68949997E+02 -0.21291E+06
 0.68999992E+02 -0.19358E+06
 0.69049995E+02 -0.17033E+06
 0.69099998E+02 -0.14607E+06
 0.69149994E+02 -0.12629E+06
 0.69199997E+02 -0.11287E+06
 0.69249992E+02 -0.10398E+06
 0.69299995E+02 -0.97958E+05
 0.69349998E+02 -0.94496E+05
 0.69399994E+02 -0.94194E+05
 0.69449997E+02 -0.95330E+05
 0.69499992E+02 -0.10131E+06
 0.69549995E+02 -0.11416E+06
 0.69599998E+02 -0.13373E+06
 0.69649994E+02 -0.15710E+06
 0.69699997E+02 -0.17269E+06
 0.69749992E+02 -0.17114E+06
 0.69799995E+02 -0.15320E+06
 0.69849998E+02 -0.12403E+06
 0.69899994E+02 -0.92417E+05
 0.69949997E+02 -0.68630E+05
 0.69999992E+02 -0.49543E+05
 0.70049995E+02 -0.28080E+05
 0.70099998E+02 -0.84545E+03
 0.70149994E+02  0.29209E+05
 0.70199997E+02  0.55461E+05
 0.70249992E+02  0.74223E+05
 0.70299995E+02  0.80070E+05
 0.70349998E+02  0.71083E+05
 0.70399994E+02  0.54216E+05
 0.70449997E+02  0.37207E+05
 0.70499992E+02  0.23234E+05
 0.70549995E+02  0.14095E+05
 0.70599998E+02  0.20414E+04
 0.70649994E+02 -0.18588E+05
 0.70699997E+02 -0.44823E+05
 0.70749992E+02 -0.75002E+05
 0.70799995E+02 -0.10417E+06
 0.70849998E+02 -0.12212E+06
 0.70899994E+02 -0.11836E+06
 0.70949997E+02 -0.92439E+05
 0.70999992E+02 -0.54448E+05
 0.71049995E+02 -0.11207E+05
 0.71099998E+02  0.28823E+05
 0.71149994E+02  0.59131E+05
 0.71199997E+02  0.82808E+05
 0.71249992E+02  0.10598E+06
 0.71299995E+02  0.12961E+06
 0.71349998E+02  0.14871E+06
 0.71399994E+02  0.16124E+06
 0.71449997E+02  0.16994E+06
 0.71499992E+02  0.18025E+06
 0.71549995E+02  0.19142E+06
 0.71599998E+02  0.20240E+06
 0.71649994E+02  0.20782E+06
 0.71699997E+02  0.20357E+06
 0.71749992E+02  0.19207E+06
 0.71799995E+02  0.17403E+06
 0.71849998E+02  0.15050E+06
 0.71899994E+02  0.12275E+06
 0.71949997E+02  0.96392E+05
 0.71999992E+02  0.77526E+05
 0.72049995E+02  0.65302E+05
 0.72099998E+02  0.55001E+05
 0.72149994E+02  0.44274E+05
 0.72199997E+02  0.33809E+05
 0.72249992E+02  0.22662E+05
 0.72299995E+02  0.74577E+04
 0.72349998E+02 -0.11662E+05
 0.72399994E+02 -0.33882E+05
 0.72449997E+02 -0.55789E+05
 0.72499992E+02 -0.73100E+05
 0.72549995E+02 -0.85324E+05
 0.72599998E+02 -0.93479E+05
 0.72649994E+02 -0.99080E+05
 0.72699997E+02 -0.10315E+06
 0.72749992E+02 -0.10416E+06
 0.72799995E+02 -0.10448E+06
 0.72849998E+02 -0.11247E+06
 0.72899994E+02 -0.13228E+06
 0.72949997E+02 -0.16115E+06
 0.72999992E+02 -0.19198E+06
 0.73049995E+02 -0.22139E+06
 0.73099998E+02 -0.24541E+06
 0.73149994E+02 -0.25882E+06
 0.73199997E+02 -0.26327E+06
 0.73249992E+02 -0.26344E+06
 0.73299995E+02 -0.25488E+06
 0.73349998E+02 -0.23142E+06
 0.73399994E+02 -0.19424E+06
 0.73449997E+02 -0.14668E+06
 0.73499992E+02 -0.92851E+05
 0.73549995E+02 -0.37239E+05
 0.73599998E+02  0.16367E+05
 0.73649994E+02  0.65796E+05
 0.73699997E+02  0.10729E+06
 0.73749992E+02  0.13941E+06
 0.73799995E+02  0.16378E+06
 0.73849998E+02  0.18103E+06
 0.73899994E+02  0.19472E+06
 0.73949997E+02  0.21068E+06
 0.73999992E+02  0.23040E+06
 0.74049995E+02  0.24993E+06
 0.74099998E+02  0.26362E+06
 0.74149994E+02  0.26957E+06
 0.74199997E+02  0.26893E+06
 0.74249992E+02  0.26647E+06
 0.74299995E+02  0.26017E+06
 0.74349998E+02  0.24556E+06
 0.74399994E+02  0.22445E+06
 0.74449997E+02  0.19278E+06
 0.74499992E+02  0.15060E+06
 0.74549995E+02  0.10941E+06
 0.74599998E+02  0.78068E+05
 0.74649994E+02  0.56222E+05
 0.74699997E+02  0.42486E+05
 0.74749992E+02  0.35235E+05
 0.74799995E+02  0.31457E+05
 0.74849998E+02  0.29817E+05
 0.74899994E+02  0.26731E+05
 0.74949997E+02  0.19697E+05
 0.74999992E+02  0.10286E+05
 0.75049995E+02  0.34031E+04
 0.75099998E+02  0.59481E+04
 0.75149994E+02  0.17756E+05
 0.75199997E+02  0.30003E+05
 0.75249992E+02  0.35535E+05
 0.75299995E+02  0.33855E+05
 0.75349998E+02  0.27989E+05
 0.75399994E+02  0.18506E+05
 0.75449997E+02  0.10782E+04
 0.75499992E+02 -0.27276E+05
 0.75549995E+02 -0.64294E+05
 0.75599998E+02 -0.10345E+06
 0.75649994E+02 -0.13543E+06
 0.75699997E+02 -0.15213E+06
 0.75749992E+02 -0.15329E+06
 0.75799995E+02 -0.14160E+06
 0.75849998E+02 -0.11799E+06
 0.75899994E+02 -0.86647E+05
 0.75949997E+02 -0.53327E+05
 0.75999992E+02 -0.23792E+05
 0.76049995E+02 -0.59638E+04
 0.76099998E+02 -0.21396E+04
 0.76149994E+02 -0.63952E+04
 0.76199997E+02 -0.13946E+05
 0.76249992E+02 -0.19497E+05
 0.76299995E+02 -0.20865E+05
 0.76349998E+02 -0.22177E+05
 0.76399994E+02 -0.21789E+05
 0.76449997E+02 -0.14464E+05
 0.76499992E+02 -0.15566E+04
 0.76549995E+02  0.13890E+05
 0.76599998E+02  0.29181E+05
 0.76649994E+02  0.39860E+05
 0.76699997E+02  0.45740E+05
 0.76749992E+02  0.48256E+05
 0.76799995E+02  0.46850E+05
 0.76849998E+02  0.39019E+05
 0.76899994E+02  0.23559E+05
 0.76949997E+02  0.36166E+04
 0.76999992E+02 -0.18293E+05
 0.77049995E+02 -0.42536E+05
 0.77099998E+02 -0.69932E+05
 0.77149994E+02 -0.99041E+05
 0.77199997E+02 -0.12660E+06
 0.77249992E+02 -0.14977E+06
 0.77299995E+02 -0.16488E+06
 0.77349998E+02 -0.16938E+06
 0.77399994E+02 -0.16535E+06
 0.77449997E+02 -0.15137E+06
 0.77499992E+02 -0.12633E+06
 0.77549995E+02 -0.93878E+05
 0.77599998E+02 -0.59578E+05
 0.77649994E+02 -0.31600E+05
 0.77699997E+02 -0.12908E+05
 0.77749992E+02 -0.29988E+04
 0.77799995E+02 -0.28531E+04
 0.77849998E+02 -0.92501E+04
 0.77899994E+02 -0.18094E+05
 0.77949997E+02 -0.27600E+05
 0.77999992E+02 -0.36827E+05
 0.78049995E+02 -0.46034E+05
 0.78099998E+02 -0.52111E+05
 0.78149994E+02 -0.52223E+05
 0.78199997E+02 -0.46376E+05
 0.78249992E+02 -0.36143E+05
 0.78299995E+02 -0.25784E+05
 0.78349998E+02 -0.18239E+05
 0.78399994E+02 -0.12719E+05
 0.78449997E+02 -0.78377E+04
 0.78499992E+02 -0.53754E+04
 0.78549995E+02 -0.65857E+04
 0.78599998E+02 -0.10187E+05
 0.78649994E+02 -0.14058E+05
 0.78699997E+02 -0.14800E+05
 0.78749992E+02 -0.97885E+04
 0.78799995E+02 -0.83107E+03
 0.78849998E+02  0.89704E+04
 0.78899994E+02  0.19937E+05
 0.78949997E+02  0.30347E+05
 0.78999992E+02  0.40641E+05
 0.79049995E+02  0.53316E+05
 0.79099998E+02  0.65090E+05
 0.79149994E+02  0.73162E+05
 0.79199997E+02  0.76224E+05
 0.79249992E+02  0.74388E+05
 0.79299995E+02  0.71101E+05
 0.79349998E+02  0.66880E+05
 0.79399994E+02  0.63270E+05
 0.79449997E+02  0.62943E+05
 0.79499992E+02  0.65450E+05
 0.79549995E+02  0.70489E+05
 0.79599998E+02  0.74201E+05
 0.79649994E+02  0.72444E+05
 0.79699997E+02  0.65961E+05
 0.79749992E+02  0.56865E+05
 0.79799995E+02  0.43903E+05
 0.79849998E+02  0.29526E+05
 0.79899994E+02  0.22639E+05
 0.79949997E+02  0.28997E+05
 0.79999992E+02  0.44610E+05
 0.80049995E+02  0.60876E+05
 0.80099998E+02  0.73535E+05
 0.80149994E+02  0.80859E+05
 0.80199997E+02  0.83278E+05
 0.80249992E+02  0.82622E+05
 0.80299995E+02  0.79273E+05
 0.80349998E+02  0.74084E+05
 0.80399994E+02  0.70420E+05
 0.80449997E+02  0.67017E+05
 0.80499992E+02  0.58530E+05
 0.80549995E+02  0.44089E+05
 0.80599998E+02  0.25604E+05
 0.80649994E+02  0.47904E+04
 0.80699997E+02 -0.13771E+05
 0.80749992E+02 -0.24350E+05
 0.80799995E+02 -0.25193E+05
 0.80849998E+02 -0.18011E+05
 0.80899994E+02 -0.65737E+04
 0.80949997E+02  0.52537E+04
 0.80999992E+02  0.14015E+05
 0.81049995E+02  0.17849E+05
 0.81099998E+02  0.17655E+05
 0.81149994E+02  0.13735E+05
 0.81199997E+02  0.46849E+04
 0.81249992E+02 -0.71448E+04
 0.81299995E+02 -0.17680E+05
 0.81349998E+02 -0.24761E+05
 0.81399994E+02 -0.25019E+05
 0.81449997E+02 -0.16068E+05
 0.81499992E+02  0.19668E+04
 0.81549995E+02  0.24911E+05
 0.81599998E+02  0.44869E+05
 0.81649994E+02  0.57038E+05
 0.81699997E+02  0.61472E+05
 0.81749992E+02  0.61838E+05
 0.81799995E+02  0.61817E+05
 0.81849998E+02  0.61368E+05
 0.81899994E+02  0.59501E+05
 0.81949997E+02  0.53216E+05
 0.81999992E+02  0.36192E+05
 0.82049995E+02  0.86498E+04
 0.82099998E+02 -0.22117E+05
 0.82149994E+02 -0.47242E+05
 0.82199997E+02 -0.60581E+05
 0.82249992E+02 -0.61299E+05
 0.82299995E+02 -0.50202E+05
 0.82349998E+02 -0.32848E+05
 0.82399994E+02 -0.17584E+05
 0.82449997E+02 -0.11532E+05
 0.82499992E+02 -0.16856E+05
 0.82549995E+02 -0.30689E+05
 0.82599998E+02 -0.49521E+05
 0.82649994E+02 -0.69653E+05
 0.82699997E+02 -0.89269E+05
 0.82749992E+02 -0.10908E+06
 0.82799995E+02 -0.13124E+06
 0.82849998E+02 -0.15585E+06
 0.82899994E+02 -0.17815E+06
 0.82949997E+02 -0.19148E+06
 0.82999992E+02 -0.19376E+06
 0.83049995E+02 -0.18660E+06
 0.83099998E+02 -0.17405E+06
 0.83149994E+02 -0.15980E+06
 0.83199997E+02 -0.14465E+06
 0.83249992E+02 -0.12952E+06
 0.83299995E+02 -0.11352E+06
 0.83349998E+02 -0.94492E+05
 0.83399994E+02 -0.71164E+05
 0.83449997E+02 -0.44572E+05
 0.83499992E+02 -0.16834E+05
 0.83549995E+02  0.10312E+05
 0.83599998E+02  0.38712E+05
 0.83649994E+02  0.69189E+05
 0.83699997E+02  0.98057E+05
 0.83749992E+02  0.12201E+06
 0.83799995E+02  0.13596E+06
 0.83849998E+02  0.13611E+06
 0.83899994E+02  0.12469E+06
 0.83949997E+02  0.10740E+06
 0.83999992E+02  0.87772E+05
 0.84049995E+02  0.69996E+05
 0.84099998E+02  0.57593E+05
 0.84149994E+02  0.49081E+05
 0.84199997E+02  0.38653E+05
 0.84249992E+02  0.21797E+05
 0.84299995E+02  0.92814E+03
 0.84349998E+02 -0.18611E+05
 0.84399994E+02 -0.33013E+05
 0.84449997E+02 -0.41528E+05
 0.84499992E+02 -0.43910E+05
 0.84549995E+02 -0.40920E+05
 0.84599998E+02 -0.34951E+05
 0.84649994E+02 -0.28847E+05
 0.84699997E+02 -0.23229E+05
 0.84749992E+02 -0.15473E+05
 0.84799995E+02 -0.53314E+04
 0.84849998E+02  0.61238E+04
 0.84899994E+02  0.19524E+05
 0.84949997E+02  0.33863E+05
 0.84999992E+02  0.46736E+05
 0.85049995E+02  0.57182E+05
 0.85099998E+02  0.66765E+05
 0.85149994E+02  0.78062E+05
 0.85199997E+02  0.91221E+05
 0.85249992E+02  0.10340E+06
 0.85299995E+02  0.11212E+06
 0.85349998E+02  0.11692E+06
 0.85399994E+02  0.11813E+06
 0.85449997E+02  0.11629E+06
 0.85499992E+02  0.11134E+06
 0.85549995E+02  0.10286E+06
 0.85599998E+02  0.91852E+05
 0.85649994E+02  0.81538E+05
 0.85699997E+02  0.73743E+05
 0.85749992E+02  0.67324E+05
 0.85799995E+02  0.60059E+05
 0.85849998E+02  0.50552E+05
 0.85899994E+02  0.41192E+05
 0.85949997E+02  0.33060E+05
 0.85999992E+02  0.23578E+05
 0.86049995E+02  0.11617E+05
 0.86099998E+02 -0.78826E+03
 0.86149994E+02 -0.11069E+05
 0.86199997E+02 -0.18144E+05
 0.86249992E+02 -0.20760E+05
 0.86299995E+02 -0.19005E+05
 0.86349998E+02 -0.15477E+05
 0.86399994E+02 -0.11819E+05
 0.86449997E+02 -0.82248E+04
 0.86499992E+02 -0.39889E+04
 0.86549995E+02  0.62620E+03
 0.86599998E+02  0.33242E+04
 0.86649994E+02  0.22927E+04
 0.86699997E+02 -0.47984E+04
 0.86749992E+02 -0.17761E+05
 0.86799995E+02 -0.34226E+05
 0.86849998E+02 -0.52163E+05
 0.86899994E+02 -0.68548E+05
 0.86949997E+02 -0.82708E+05
 0.86999992E+02 -0.95729E+05
 0.87049995E+02 -0.10673E+06
 0.87099998E+02 -0.11205E+06
 0.87149994E+02 -0.10955E+06
 0.87199997E+02 -0.10106E+06
 0.87249992E+02 -0.89676E+05
 0.87299995E+02 -0.80105E+05
 0.87349998E+02 -0.76420E+05
 0.87399994E+02 -0.79947E+05
 0.87449997E+02 -0.88432E+05
 0.87499992E+02 -0.98821E+05
 0.87549995E+02 -0.10936E+06
 0.87599991E+02 -0.11745E+06
 0.87649994E+02 -0.12075E+06
 0.87699997E+02 -0.11871E+06
 0.87749992E+02 -0.11391E+06
 0.87799995E+02 -0.10900E+06
 0.87849991E+02 -0.10307E+06
 0.87899994E+02 -0.95129E+05
 0.87949997E+02 -0.83566E+05
 0.87999992E+02 -0.66667E+05
 0.88049995E+02 -0.45556E+05
 0.88099991E+02 -0.21591E+05
 0.88149994E+02  0.75959E+03
 0.88199997E+02  0.16504E+05
 0.88249992E+02  0.23743E+05
 0.88299995E+02  0.22282E+05
 0.88349991E+02  0.14638E+05
 0.88399994E+02  0.30489E+04
 0.88449997E+02 -0.89122E+04
 0.88499992E+02 -0.16346E+05
 0.88549995E+02 -0.16475E+05
 0.88599991E+02 -0.83772E+04
 0.88649994E+02  0.45437E+04
 0.88699997E+02  0.17077E+05
 0.88749992E+02  0.26903E+05
 0.88799995E+02  0.33723E+05
 0.88849991E+02  0.37833E+05
 0.88899994E+02  0.38903E+05
 0.88949997E+02  0.35543E+05
 0.88999992E+02  0.27428E+05
 0.89049995E+02  0.16463E+05
 0.89099991E+02  0.72028E+04
 0.89149994E+02  0.38694E+04
 0.89199997E+02  0.74941E+04
 0.89249992E+02  0.17059E+05
 0.89299995E+02  0.30004E+05
 0.89349991E+02  0.44210E+05
 0.89399994E+02  0.58586E+05
 0.89449997E+02  0.73520E+05
 0.89499992E+02  0.87919E+05
 0.89549995E+02  0.99056E+05
 0.89599991E+02  0.10606E+06
 0.89649994E+02  0.10943E+06
 0.89699997E+02  0.11135E+06
 0.89749992E+02  0.11318E+06
 0.89799995E+02  0.11479E+06
 0.89849991E+02  0.11676E+06
 0.89899994E+02  0.11918E+06
 0.89949997E+02  0.12085E+06
 0.89999992E+02  0.11958E+06
 0.90049995E+02  0.11176E+06
 0.90099991E+02  0.95938E+05
 0.90149994E+02  0.75270E+05
 0.90199997E+02  0.53547E+05
 0.90249992E+02  0.32426E+05
 0.90299995E+02  0.12910E+05
 0.90349991E+02 -0.43902E+04
 0.90399994E+02 -0.19590E+05
 0.90449997E+02 -0.31596E+05
 0.90499992E+02 -0.39383E+05
 0.90549995E+02 -0.43305E+05
 0.90599991E+02 -0.43305E+05
 0.90649994E+02 -0.39176E+05
 0.90699997E+02 -0.30471E+05
 0.90749992E+02 -0.16788E+05
 0.90799995E+02 -0.47245E+03
 0.90849991E+02  0.13911E+05
 0.90899994E+02  0.22815E+05
 0.90949997E+02  0.23759E+05
 0.90999992E+02  0.15641E+05
 0.91049995E+02  0.57977E+03
 0.91099991E+02 -0.17808E+05
 0.91149994E+02 -0.34858E+05
 0.91199997E+02 -0.46768E+05
 0.91249992E+02 -0.52371E+05
 0.91299995E+02 -0.51246E+05
 0.91349991E+02 -0.43578E+05
 0.91399994E+02 -0.30362E+05
 0.91449997E+02 -0.14430E+05
 0.91499992E+02  0.83987E+03
 0.91549995E+02  0.13011E+05
 0.91599991E+02  0.20781E+05
 0.91649994E+02  0.23827E+05
 0.91699997E+02  0.23463E+05
 0.91749992E+02  0.21858E+05
 0.91799995E+02  0.19710E+05
 0.91849991E+02  0.15763E+05
 0.91899994E+02  0.66913E+04
 0.91949997E+02 -0.77378E+04
 0.91999992E+02 -0.23081E+05
 0.92049995E+02 -0.35191E+05
 0.92099991E+02 -0.41562E+05
 0.92149994E+02 -0.39886E+05
 0.92199997E+02 -0.29216E+05
 0.92249992E+02 -0.11808E+05
 0.92299995E+02  0.76789E+04
 0.92349991E+02  0.24463E+05
 0.92399994E+02  0.35260E+05
 0.92449997E+02  0.39612E+05
 0.92499992E+02  0.39220E+05
 0.92549995E+02  0.35245E+05
 0.92599991E+02  0.28778E+05
 0.92649994E+02  0.20516E+05
 0.92699997E+02  0.11968E+05
 0.92749992E+02  0.46556E+04
 0.92799995E+02 -0.10251E+04
 0.92849991E+02 -0.48521E+04
 0.92899994E+02 -0.86939E+04
 0.92949997E+02 -0.14020E+05
 0.92999992E+02 -0.19156E+05
 0.93049995E+02 -0.21769E+05
 0.93099991E+02 -0.20481E+05
 0.93149994E+02 -0.15126E+05
 0.93199997E+02 -0.79126E+04
 0.93249992E+02 -0.10158E+04
 0.93299995E+02  0.34886E+04
 0.93349991E+02  0.36119E+04
 0.93399994E+02 -0.11872E+04
 0.93449997E+02 -0.10102E+05
 0.93499992E+02 -0.21921E+05
 0.93549995E+02 -0.35771E+05
 0.93599991E+02 -0.50020E+05
 0.93649994E+02 -0.63311E+05
 0.93699997E+02 -0.73701E+05
 0.93749992E+02 -0.79193E+05
 0.93799995E+02 -0.79433E+05
 0.93849991E+02 -0.76057E+05
 0.93899994E+02 -0.70612E+05
 0.93949997E+02 -0.63281E+05
 0.93999992E+02 -0.54525E+05
 0.94049995E+02 -0.45428E+05
 0.94099991E+02 -0.37888E+05
 0.94149994E+02 -0.32471E+05
 0.94199997E+02 -0.28418E+05
 0.94249992E+02 -0.25447E+05
 0.94299995E+02 -0.24311E+05
 0.94349991E+02 -0.25504E+05
 0.94399994E+02 -0.28587E+05
 0.94449997E+02 -0.33166E+05
 0.94499992E+02 -0.38121E+05
 0.94549995E+02 -0.41334E+05
 0.94599991E+02 -0.41694E+05
 0.94649994E+02 -0.39481E+05
 0.94699997E+02 -0.34416E+05
 0.94749992E+02 -0.26481E+05
 0.94799995E+02 -0.16123E+05
 0.94849991E+02 -0.37788E+04
 0.94899994E+02  0.87792E+04
 0.94949997E+02  0.20001E+05
 0.94999992E+02  0.29594E+05
 0.95049995E+02  0.36915E+05
 0.95099991E+02  0.42603E+05
 0.95149994E+02  0.48878E+05
 0.95199997E+02  0.57603E+05
 0.95249992E+02  0.68346E+05
 0.95299995E+02  0.77762E+05
 0.95349991E+02  0.83356E+05
 0.95399994E+02  0.85319E+05
 0.95449997E+02  0.83958E+05
 0.95499992E+02  0.79218E+05
 0.95549995E+02  0.73123E+05
 0.95599991E+02  0.67682E+05
 0.95649994E+02  0.63390E+05
 0.95699997E+02  0.61066E+05
 0.95749992E+02  0.60407E+05
 0.95799995E+02  0.59990E+05
 0.95849991E+02  0.58710E+05
 0.95899994E+02  0.55660E+05
 0.95949997E+02  0.49518E+05
 0.95999992E+02  0.40275E+05
 0.96049995E+02  0.29263E+05
 0.96099991E+02  0.17130E+05
 0.96149994E+02  0.48505E+04
 0.96199997E+02 -0.51927E+04
 0.96249992E+02 -0.10656E+05
 0.96299995E+02 -0.12185E+05
 0.96349991E+02 -0.12109E+05
 0.96399994E+02 -0.11649E+05
 0.96449997E+02 -0.11660E+05
 0.96499992E+02 -0.13683E+05
 0.96549995E+02 -0.18615E+05
 0.96599991E+02 -0.25116E+05
 0.96649994E+02 -0.31490E+05
 0.96699997E+02 -0.37991E+05
 0.96749992E+02 -0.45333E+05
 0.96799995E+02 -0.53524E+05
 0.96849991E+02 -0.61931E+05
 0.96899994E+02 -0.68546E+05
 0.96949997E+02 -0.71684E+05
 0.96999992E+02 -0.71053E+05
 0.97049995E+02 -0.66385E+05
 0.97099991E+02 -0.58395E+05
 0.97149994E+02 -0.49107E+05
 0.97199997E+02 -0.41357E+05
 0.97249992E+02 -0.37283E+05
 0.97299995E+02 -0.36873E+05
 0.97349991E+02 -0.38761E+05
 0.97399994E+02 -0.40172E+05
 0.97449997E+02 -0.38024E+05
 0.97499992E+02 -0.30874E+05
 0.97549995E+02 -0.19267E+05
 0.97599991E+02 -0.53673E+04
 0.97649994E+02  0.77350E+04
 0.97699997E+02  0.17698E+05
 0.97749992E+02  0.24043E+05
 0.97799995E+02  0.26277E+05
 0.97849991E+02  0.23512E+05
 0.97899994E+02  0.16106E+05
 0.97949997E+02  0.52383E+04
 0.97999992E+02 -0.70808E+04
