-0.20000000E+01 -0.32480E+04
-0.19500000E+01 -0.32286E+04
-0.19000000E+01 -0.32341E+04
-0.18500000E+01 -0.32220E+04
-0.18000000E+01 -0.32154E+04
-0.17500000E+01 -0.32169E+04
-0.17000000E+01 -0.32169E+04
-0.16500001E+01 -0.32108E+04
-0.16000000E+01 -0.32093E+04
-0.15500000E+01 -0.32130E+04
-0.15000000E+01 -0.32164E+04
-0.14500000E+01 -0.32236E+04
-0.14000001E+01 -0.32211E+04
-0.13500000E+01 -0.32199E+04
-0.13000001E+01 -0.32328E+04
-0.12500000E+01 -0.32484E+04
-0.12000000E+01 -0.32574E+04
-0.11500001E+01 -0.32535E+04
-0.11000000E+01 -0.32502E+04
-0.10500001E+01 -0.32487E+04
-0.10000000E+01 -0.32478E+04
-0.95000005E+00 -0.32467E+04
-0.90000010E+00 -0.32461E+04
-0.85000002E+00 -0.32451E+04
-0.80000007E+00 -0.32347E+04
-0.75000012E+00 -0.32287E+04
-0.70000005E+00 -0.32205E+04
-0.65000010E+00 -0.32102E+04
-0.60000014E+00 -0.32057E+04
-0.55000007E+00 -0.32038E+04
-0.50000012E+00 -0.32080E+04
-0.45000005E+00 -0.32114E+04
-0.40000010E+00 -0.32184E+04
-0.35000014E+00 -0.32276E+04
-0.30000007E+00 -0.32360E+04
-0.25000012E+00 -0.32421E+04
-0.20000005E+00 -0.32433E+04
-0.15000010E+00 -0.32448E+04
-0.10000014E+00 -0.32478E+04
-0.50000072E-01 -0.32408E+04
-0.11920929E-06 -0.32354E+04
 0.49999952E-01 -0.32288E+04
 0.99999905E-01 -0.32241E+04
 0.14999986E+00 -0.32314E+04
 0.19999981E+00 -0.32316E+04
 0.24999976E+00 -0.32341E+04
 0.29999995E+00 -0.32302E+04
 0.34999990E+00 -0.32266E+04
 0.39999986E+00 -0.32270E+04
 0.44999981E+00 -0.32279E+04
 0.49999976E+00 -0.32323E+04
 0.54999995E+00 -0.32322E+04
 0.59999990E+00 -0.32331E+04
 0.64999986E+00 -0.32345E+04
 0.69999981E+00 -0.32433E+04
 0.74999976E+00 -0.32514E+04
 0.79999971E+00 -0.32580E+04
 0.84999990E+00 -0.32565E+04
 0.89999986E+00 -0.32484E+04
 0.94999981E+00 -0.32480E+04
 0.99999976E+00 -0.32423E+04
 0.10499997E+01 -0.32397E+04
 0.10999999E+01 -0.32368E+04
 0.11499999E+01 -0.32340E+04
 0.11999998E+01 -0.32357E+04
 0.12499998E+01 -0.32347E+04
 0.12999997E+01 -0.32328E+04
 0.13499999E+01 -0.32312E+04
 0.13999999E+01 -0.32321E+04
 0.14499998E+01 -0.32309E+04
 0.14999998E+01 -0.32255E+04
 0.15499997E+01 -0.32250E+04
 0.15999999E+01 -0.32229E+04
 0.16499999E+01 -0.32138E+04
 0.16999998E+01 -0.32123E+04
 0.17499998E+01 -0.32148E+04
 0.17999997E+01 -0.32198E+04
 0.18499997E+01 -0.32257E+04
 0.18999999E+01 -0.32277E+04
 0.19499998E+01 -0.32290E+04
 0.19999998E+01 -0.32285E+04
 0.20499997E+01 -0.32315E+04
 0.20999999E+01 -0.32301E+04
 0.21499996E+01 -0.32224E+04
 0.21999998E+01 -0.32179E+04
 0.22499995E+01 -0.32195E+04
 0.22999997E+01 -0.32229E+04
 0.23499999E+01 -0.32243E+04
 0.23999996E+01 -0.32242E+04
 0.24499998E+01 -0.32259E+04
 0.24999995E+01 -0.32289E+04
 0.25499997E+01 -0.32232E+04
 0.25999999E+01 -0.32220E+04
 0.26499996E+01 -0.32226E+04
 0.26999998E+01 -0.32189E+04
 0.27499995E+01 -0.32208E+04
 0.27999997E+01 -0.32231E+04
 0.28499999E+01 -0.32219E+04
 0.28999996E+01 -0.32238E+04
 0.29499998E+01 -0.32246E+04
 0.29999995E+01 -0.32285E+04
 0.30499997E+01 -0.32317E+04
 0.30999999E+01 -0.32330E+04
 0.31499996E+01 -0.32347E+04
 0.31999998E+01 -0.32344E+04
 0.32499995E+01 -0.32344E+04
 0.32999997E+01 -0.32317E+04
 0.33499999E+01 -0.32364E+04
 0.33999996E+01 -0.32406E+04
 0.34499998E+01 -0.32426E+04
 0.34999995E+01 -0.32494E+04
 0.35499997E+01 -0.32535E+04
 0.35999994E+01 -0.32565E+04
 0.36499996E+01 -0.32594E+04
 0.36999998E+01 -0.32567E+04
 0.37499995E+01 -0.32574E+04
 0.37999997E+01 -0.32576E+04
 0.38499994E+01 -0.32557E+04
 0.38999996E+01 -0.32528E+04
 0.39499998E+01 -0.32465E+04
 0.39999995E+01 -0.32478E+04
 0.40499997E+01 -0.32469E+04
 0.40999994E+01 -0.32402E+04
 0.41499996E+01 -0.32363E+04
 0.41999998E+01 -0.32347E+04
 0.42499995E+01 -0.32281E+04
 0.42999997E+01 -0.32217E+04
 0.43499994E+01 -0.32242E+04
 0.43999996E+01 -0.32315E+04
 0.44499998E+01 -0.32317E+04
 0.44999995E+01 -0.32272E+04
 0.45499997E+01 -0.32309E+04
 0.45999994E+01 -0.32288E+04
 0.46499996E+01 -0.32233E+04
 0.46999998E+01 -0.32174E+04
 0.47499995E+01 -0.32104E+04
 0.47999997E+01 -0.32066E+04
 0.48499994E+01 -0.32091E+04
 0.48999996E+01 -0.32143E+04
 0.49499998E+01 -0.32184E+04
 0.49999995E+01 -0.32212E+04
 0.50499997E+01 -0.32173E+04
 0.50999994E+01 -0.32162E+04
 0.51499996E+01 -0.32132E+04
 0.51999998E+01 -0.32133E+04
 0.52499995E+01 -0.32170E+04
 0.52999997E+01 -0.32208E+04
 0.53499994E+01 -0.32273E+04
 0.53999996E+01 -0.32269E+04
 0.54499993E+01 -0.32293E+04
 0.54999995E+01 -0.32358E+04
 0.55499997E+01 -0.32362E+04
 0.55999994E+01 -0.32313E+04
 0.56499996E+01 -0.32313E+04
 0.56999993E+01 -0.32341E+04
 0.57499995E+01 -0.32401E+04
 0.57999997E+01 -0.32411E+04
 0.58499994E+01 -0.32365E+04
 0.58999996E+01 -0.32378E+04
 0.59499993E+01 -0.32388E+04
 0.59999995E+01 -0.32402E+04
 0.60499992E+01 -0.32383E+04
 0.60999994E+01 -0.32419E+04
 0.61499996E+01 -0.32437E+04
 0.61999998E+01 -0.32399E+04
 0.62499990E+01 -0.32376E+04
 0.62999992E+01 -0.32321E+04
 0.63499994E+01 -0.32278E+04
 0.63999996E+01 -0.32237E+04
 0.64499998E+01 -0.32209E+04
 0.64999990E+01 -0.32228E+04
 0.65499992E+01 -0.32305E+04
 0.65999994E+01 -0.32363E+04
 0.66499996E+01 -0.32377E+04
 0.66999998E+01 -0.32404E+04
 0.67499990E+01 -0.32490E+04
 0.67999992E+01 -0.32579E+04
 0.68499994E+01 -0.32589E+04
 0.68999996E+01 -0.32532E+04
 0.69499998E+01 -0.32491E+04
 0.69999990E+01 -0.32439E+04
 0.70499992E+01 -0.32417E+04
 0.70999994E+01 -0.32451E+04
 0.71499996E+01 -0.32494E+04
 0.71999998E+01 -0.32535E+04
 0.72499990E+01 -0.32517E+04
 0.72999992E+01 -0.32471E+04
 0.73499994E+01 -0.32399E+04
 0.73999996E+01 -0.32343E+04
 0.74499998E+01 -0.32296E+04
 0.74999990E+01 -0.32283E+04
 0.75499992E+01 -0.32267E+04
 0.75999994E+01 -0.32208E+04
 0.76499996E+01 -0.32180E+04
 0.76999998E+01 -0.32204E+04
 0.77499990E+01 -0.32192E+04
 0.77999992E+01 -0.32181E+04
 0.78499994E+01 -0.32118E+04
 0.78999996E+01 -0.32051E+04
 0.79499998E+01 -0.32023E+04
 0.79999990E+01 -0.32034E+04
 0.80499992E+01 -0.32107E+04
 0.80999994E+01 -0.32138E+04
 0.81499996E+01 -0.32252E+04
 0.81999998E+01 -0.32361E+04
 0.82499990E+01 -0.32451E+04
 0.82999992E+01 -0.32521E+04
 0.83499994E+01 -0.32500E+04
 0.83999996E+01 -0.32391E+04
 0.84499998E+01 -0.32322E+04
 0.84999990E+01 -0.32258E+04
 0.85499992E+01 -0.32249E+04
 0.85999994E+01 -0.32314E+04
 0.86499996E+01 -0.32343E+04
 0.86999998E+01 -0.32360E+04
 0.87499990E+01 -0.32344E+04
 0.87999992E+01 -0.32339E+04
 0.88499994E+01 -0.32294E+04
 0.88999996E+01 -0.32290E+04
 0.89499998E+01 -0.32290E+04
 0.89999990E+01 -0.32301E+04
 0.90499992E+01 -0.32292E+04
 0.90999994E+01 -0.32238E+04
 0.91499996E+01 -0.32175E+04
 0.91999989E+01 -0.32148E+04
 0.92499990E+01 -0.32184E+04
 0.92999992E+01 -0.32206E+04
 0.93499994E+01 -0.32222E+04
 0.93999996E+01 -0.32224E+04
 0.94499989E+01 -0.32215E+04
 0.94999990E+01 -0.32204E+04
 0.95499992E+01 -0.32212E+04
 0.95999994E+01 -0.32256E+04
 0.96499996E+01 -0.32346E+04
 0.96999989E+01 -0.32365E+04
 0.97499990E+01 -0.32378E+04
 0.97999992E+01 -0.32420E+04
 0.98499994E+01 -0.32482E+04
 0.98999996E+01 -0.32559E+04
 0.99499989E+01 -0.32608E+04
 0.99999990E+01 -0.32615E+04
 0.10049999E+02 -0.32571E+04
 0.10099999E+02 -0.32531E+04
 0.10150000E+02 -0.32436E+04
 0.10199999E+02 -0.32397E+04
 0.10249999E+02 -0.32364E+04
 0.10299999E+02 -0.32303E+04
 0.10349999E+02 -0.32277E+04
 0.10400000E+02 -0.32319E+04
 0.10449999E+02 -0.32373E+04
 0.10499999E+02 -0.32424E+04
 0.10549999E+02 -0.32426E+04
 0.10599999E+02 -0.32374E+04
 0.10650000E+02 -0.32361E+04
 0.10699999E+02 -0.32356E+04
 0.10749999E+02 -0.32397E+04
 0.10799999E+02 -0.32410E+04
 0.10849999E+02 -0.32422E+04
 0.10900000E+02 -0.32376E+04
 0.10949999E+02 -0.32278E+04
 0.10999999E+02 -0.32256E+04
 0.11049999E+02 -0.32260E+04
 0.11099999E+02 -0.32300E+04
 0.11150000E+02 -0.32353E+04
 0.11199999E+02 -0.32386E+04
 0.11249999E+02 -0.32438E+04
 0.11299999E+02 -0.32426E+04
 0.11349999E+02 -0.32425E+04
 0.11400000E+02 -0.32479E+04
 0.11449999E+02 -0.32501E+04
 0.11499999E+02 -0.32467E+04
 0.11549999E+02 -0.32477E+04
 0.11599999E+02 -0.32501E+04
 0.11650000E+02 -0.32485E+04
 0.11699999E+02 -0.32409E+04
 0.11749999E+02 -0.32338E+04
 0.11799999E+02 -0.32337E+04
 0.11849999E+02 -0.32323E+04
 0.11900000E+02 -0.32331E+04
 0.11949999E+02 -0.32319E+04
 0.11999999E+02 -0.32271E+04
 0.12049999E+02 -0.32201E+04
 0.12099999E+02 -0.32166E+04
 0.12150000E+02 -0.32156E+04
 0.12199999E+02 -0.32141E+04
 0.12249999E+02 -0.32105E+04
 0.12299999E+02 -0.32136E+04
 0.12349999E+02 -0.32194E+04
 0.12400000E+02 -0.32201E+04
 0.12449999E+02 -0.32178E+04
 0.12499999E+02 -0.32105E+04
 0.12549999E+02 -0.32062E+04
 0.12599999E+02 -0.32042E+04
 0.12649999E+02 -0.32006E+04
 0.12699999E+02 -0.32058E+04
 0.12749999E+02 -0.32144E+04
 0.12799999E+02 -0.32148E+04
 0.12849999E+02 -0.32112E+04
 0.12899999E+02 -0.32094E+04
 0.12949999E+02 -0.32076E+04
 0.12999999E+02 -0.32035E+04
 0.13049999E+02 -0.32015E+04
 0.13099999E+02 -0.32061E+04
 0.13149999E+02 -0.32206E+04
 0.13199999E+02 -0.32316E+04
 0.13249999E+02 -0.32401E+04
 0.13299999E+02 -0.32478E+04
 0.13349999E+02 -0.32569E+04
 0.13399999E+02 -0.32630E+04
 0.13449999E+02 -0.32626E+04
 0.13499999E+02 -0.32623E+04
 0.13549999E+02 -0.32596E+04
 0.13599999E+02 -0.32591E+04
 0.13649999E+02 -0.32581E+04
 0.13699999E+02 -0.32630E+04
 0.13749999E+02 -0.32637E+04
 0.13799999E+02 -0.32591E+04
 0.13849999E+02 -0.32580E+04
 0.13899999E+02 -0.32582E+04
 0.13949999E+02 -0.32531E+04
 0.13999999E+02 -0.32421E+04
 0.14049999E+02 -0.32353E+04
 0.14099998E+02 -0.32326E+04
 0.14150000E+02 -0.32346E+04
 0.14199999E+02 -0.32308E+04
 0.14249998E+02 -0.32275E+04
 0.14299999E+02 -0.32253E+04
 0.14349998E+02 -0.32220E+04
 0.14400000E+02 -0.32269E+04
 0.14449999E+02 -0.32311E+04
 0.14499998E+02 -0.32277E+04
 0.14549999E+02 -0.32244E+04
 0.14599998E+02 -0.32210E+04
 0.14650000E+02 -0.32221E+04
 0.14699999E+02 -0.32288E+04
 0.14749998E+02 -0.32311E+04
 0.14799999E+02 -0.32331E+04
 0.14849998E+02 -0.32349E+04
 0.14900000E+02 -0.32380E+04
 0.14949999E+02 -0.32376E+04
 0.14999998E+02 -0.32381E+04
 0.15049999E+02 -0.32395E+04
 0.15099998E+02 -0.32446E+04
 0.15150000E+02 -0.32463E+04
 0.15199999E+02 -0.32391E+04
 0.15249998E+02 -0.32359E+04
 0.15299999E+02 -0.32295E+04
 0.15349998E+02 -0.32265E+04
 0.15400000E+02 -0.32233E+04
 0.15449999E+02 -0.32200E+04
 0.15499998E+02 -0.32181E+04
 0.15549999E+02 -0.32183E+04
 0.15599998E+02 -0.32246E+04
 0.15650000E+02 -0.32247E+04
 0.15699999E+02 -0.32188E+04
 0.15749998E+02 -0.32139E+04
 0.15799999E+02 -0.32093E+04
 0.15849998E+02 -0.32087E+04
 0.15900000E+02 -0.32096E+04
 0.15949999E+02 -0.32131E+04
 0.15999998E+02 -0.32171E+04
 0.16049999E+02 -0.32155E+04
 0.16099998E+02 -0.32216E+04
 0.16150000E+02 -0.32213E+04
 0.16199999E+02 -0.32201E+04
 0.16249998E+02 -0.32219E+04
 0.16299999E+02 -0.32235E+04
 0.16349998E+02 -0.32277E+04
 0.16400000E+02 -0.32259E+04
 0.16449999E+02 -0.32237E+04
 0.16499998E+02 -0.32201E+04
 0.16549999E+02 -0.32159E+04
 0.16599998E+02 -0.32141E+04
 0.16650000E+02 -0.32133E+04
 0.16699999E+02 -0.32119E+04
 0.16749998E+02 -0.32093E+04
 0.16799999E+02 -0.32139E+04
 0.16849998E+02 -0.32235E+04
 0.16900000E+02 -0.32256E+04
 0.16949999E+02 -0.32411E+04
 0.16999998E+02 -0.32542E+04
 0.17049999E+02 -0.32574E+04
 0.17099998E+02 -0.32528E+04
 0.17150000E+02 -0.32496E+04
 0.17199999E+02 -0.32612E+04
 0.17249998E+02 -0.32599E+04
 0.17299999E+02 -0.33193E+04
 0.17349998E+02 -0.34602E+04
 0.17400000E+02 -0.36504E+04
 0.17449999E+02 -0.37572E+04
 0.17499998E+02 -0.36095E+04
 0.17549999E+02 -0.31436E+04
 0.17599998E+02 -0.26482E+04
 0.17650000E+02 -0.24035E+04
 0.17699999E+02 -0.28413E+04
 0.17749998E+02 -0.34525E+04
 0.17799999E+02 -0.38955E+04
 0.17849998E+02 -0.40670E+04
 0.17900000E+02 -0.36086E+04
 0.17949999E+02 -0.33997E+04
 0.17999998E+02 -0.35748E+04
 0.18049999E+02 -0.43350E+04
 0.18099998E+02 -0.49986E+04
 0.18150000E+02 -0.47457E+04
 0.18199999E+02 -0.34546E+04
 0.18249998E+02 -0.19983E+04
 0.18299999E+02 -0.17944E+04
 0.18349998E+02 -0.12360E+04
 0.18400000E+02 -0.29892E+04
 0.18449999E+02 -0.46366E+04
 0.18499998E+02 -0.35023E+04
 0.18549999E+02 -0.25784E+04
 0.18599998E+02 -0.11218E+04
 0.18650000E+02 -0.30879E+04
 0.18699999E+02 -0.39755E+04
 0.18749998E+02 -0.33171E+04
 0.18799999E+02 -0.42553E+04
 0.18849998E+02 -0.28013E+04
 0.18900000E+02 -0.13250E+04
 0.18949999E+02 -0.16160E+04
 0.18999998E+02 -0.35829E+04
 0.19049999E+02 -0.36137E+04
 0.19099998E+02 -0.15451E+04
 0.19150000E+02 -0.24652E+04
 0.19199999E+02 -0.30572E+04
 0.19249998E+02 -0.49281E+04
 0.19299999E+02 -0.42470E+04
 0.19349998E+02 -0.19819E+04
 0.19400000E+02 -0.34679E+04
 0.19449999E+02 -0.31948E+04
 0.19499998E+02 -0.54357E+04
 0.19549999E+02 -0.49067E+04
 0.19599998E+02 -0.47052E+04
 0.19650000E+02 -0.34345E+04
 0.19699999E+02 -0.17818E+04
 0.19749998E+02 -0.22070E+04
 0.19799999E+02 -0.26798E+04
 0.19849998E+02 -0.51573E+04
 0.19900000E+02 -0.34329E+04
 0.19949999E+02 -0.28964E+04
 0.19999998E+02 -0.28548E+04
 0.20049999E+02 -0.40333E+04
 0.20099998E+02 -0.41867E+04
 0.20150000E+02 -0.68803E+04
 0.20199999E+02 -0.64645E+04
 0.20249998E+02 -0.17205E+04
 0.20299999E+02 -0.98260E+02
 0.20349998E+02 -0.17981E+04
 0.20399998E+02 -0.49685E+04
 0.20449999E+02 -0.12478E+03
 0.20499998E+02  0.70699E+03
 0.20549999E+02 -0.11019E+04
 0.20599998E+02  0.11230E+04
 0.20649998E+02 -0.27547E+04
 0.20699999E+02 -0.61012E+04
 0.20749998E+02 -0.38143E+04
 0.20799999E+02 -0.68268E+04
 0.20849998E+02 -0.84682E+04
 0.20899998E+02 -0.10497E+05
 0.20949999E+02 -0.55782E+03
 0.20999998E+02  0.11361E+05
 0.21049999E+02 -0.89669E+04
 0.21099998E+02 -0.85044E+04
 0.21149998E+02  0.11382E+05
 0.21199999E+02  0.46301E+04
 0.21249998E+02 -0.83078E+04
 0.21299999E+02 -0.16396E+05
 0.21349998E+02 -0.45001E+04
 0.21399998E+02  0.25305E+04
 0.21449999E+02 -0.13620E+05
 0.21499998E+02 -0.34995E+04
 0.21549999E+02  0.71666E+04
 0.21599998E+02 -0.89158E+04
 0.21649998E+02 -0.37918E+04
 0.21699999E+02  0.44314E+04
 0.21749998E+02 -0.61823E+04
 0.21799999E+02 -0.96122E+04
 0.21849998E+02 -0.84437E+04
 0.21899998E+02  0.12329E+04
 0.21949999E+02  0.97893E+03
 0.21999998E+02 -0.74004E+04
 0.22049999E+02  0.19713E+04
 0.22099998E+02 -0.14808E+04
 0.22149998E+02 -0.56143E+04
 0.22199999E+02  0.16145E+04
 0.22249998E+02 -0.24305E+04
 0.22299999E+02 -0.71216E+04
 0.22349998E+02 -0.77888E+04
 0.22399998E+02 -0.50734E+04
 0.22449999E+02 -0.44397E+04
 0.22499998E+02 -0.45441E+04
 0.22549999E+02  0.35258E+04
 0.22599998E+02  0.38646E+04
 0.22649998E+02 -0.26658E+04
 0.22699999E+02 -0.79063E+04
 0.22749998E+02 -0.51134E+04
 0.22799999E+02 -0.20380E+04
 0.22849998E+02 -0.60914E+04
 0.22899998E+02 -0.77858E+04
 0.22949999E+02 -0.49378E+04
 0.22999998E+02  0.41405E+04
 0.23049999E+02  0.19414E+04
 0.23099998E+02 -0.29809E+04
 0.23149998E+02 -0.73837E+04
 0.23199999E+02 -0.67398E+04
 0.23249998E+02 -0.54427E+04
 0.23299999E+02 -0.39170E+04
 0.23349998E+02  0.29453E+04
 0.23399998E+02 -0.58432E+04
 0.23449999E+02 -0.58206E+04
 0.23499998E+02 -0.22386E+04
 0.23549999E+02 -0.71341E+03
 0.23599998E+02  0.42176E+03
 0.23649998E+02 -0.69498E+04
 0.23699999E+02 -0.71162E+04
 0.23749998E+02 -0.66921E+04
 0.23799999E+02 -0.25906E+04
 0.23849998E+02 -0.56107E+03
 0.23899998E+02 -0.11168E+04
 0.23949999E+02 -0.33519E+04
 0.23999998E+02 -0.11242E+04
 0.24049999E+02 -0.44724E+04
 0.24099998E+02 -0.72608E+04
 0.24149998E+02  0.13516E+04
 0.24199999E+02  0.24484E+03
 0.24249998E+02 -0.14056E+04
 0.24299999E+02 -0.61771E+04
 0.24349998E+02 -0.76610E+04
 0.24399998E+02 -0.57488E+04
 0.24449999E+02  0.81366E+03
 0.24499998E+02 -0.47187E+03
 0.24549999E+02 -0.26231E+04
 0.24599998E+02 -0.12047E+04
 0.24649998E+02 -0.21960E+04
 0.24699999E+02 -0.72470E+03
 0.24749998E+02 -0.44270E+04
 0.24799999E+02 -0.46263E+04
 0.24849998E+02 -0.27020E+04
 0.24899998E+02 -0.12022E+04
 0.24949999E+02 -0.49318E+04
 0.24999998E+02 -0.38660E+04
 0.25049999E+02 -0.35016E+04
 0.25099998E+02 -0.35297E+04
 0.25149998E+02 -0.44987E+04
 0.25199999E+02 -0.57253E+04
 0.25249998E+02 -0.24083E+04
 0.25299999E+02 -0.93287E+03
 0.25349998E+02 -0.20136E+04
 0.25399998E+02 -0.36519E+04
 0.25449999E+02 -0.54745E+04
 0.25499998E+02 -0.10018E+05
 0.25549999E+02 -0.78766E+04
 0.25599998E+02 -0.39567E+04
 0.25649998E+02  0.15020E+04
 0.25699999E+02  0.18295E+04
 0.25749998E+02  0.21135E+04
 0.25799999E+02 -0.15531E+04
 0.25849998E+02 -0.95317E+04
 0.25899998E+02 -0.43971E+04
 0.25949999E+02  0.20935E+04
 0.25999998E+02 -0.68493E+03
 0.26049999E+02 -0.66045E+04
 0.26099998E+02 -0.26065E+04
 0.26149998E+02 -0.10518E+04
 0.26199999E+02 -0.46745E+04
 0.26249998E+02 -0.59305E+04
 0.26299999E+02 -0.74449E+02
 0.26349998E+02  0.17049E+04
 0.26399998E+02 -0.38032E+04
 0.26449999E+02 -0.99407E+03
 0.26499998E+02 -0.33676E+03
 0.26549999E+02 -0.33754E+04
 0.26599998E+02 -0.85144E+04
 0.26649998E+02 -0.86544E+04
 0.26699999E+02 -0.55160E+04
 0.26749998E+02 -0.50664E+04
 0.26799999E+02 -0.83056E+03
 0.26849998E+02  0.33811E+04
 0.26899998E+02 -0.13305E+03
 0.26949999E+02 -0.57202E+04
 0.26999998E+02 -0.71287E+04
 0.27049997E+02 -0.60367E+04
 0.27099998E+02 -0.26379E+04
 0.27149998E+02 -0.29729E+04
 0.27199999E+02 -0.40474E+04
 0.27249998E+02 -0.36485E+04
 0.27299997E+02 -0.49213E+04
 0.27349998E+02 -0.49954E+04
 0.27399998E+02 -0.37659E+03
 0.27449999E+02  0.74388E+02
 0.27499998E+02 -0.39266E+04
 0.27549997E+02 -0.49558E+04
 0.27599998E+02 -0.38279E+04
 0.27649998E+02 -0.28481E+04
 0.27699999E+02 -0.52809E+04
 0.27749998E+02 -0.31693E+04
 0.27799997E+02  0.18918E+04
 0.27849998E+02 -0.25311E+04
 0.27899998E+02 -0.53102E+04
 0.27949999E+02 -0.28908E+04
 0.27999998E+02 -0.15747E+04
 0.28049997E+02 -0.14402E+04
 0.28099998E+02 -0.21273E+04
 0.28149998E+02 -0.54374E+04
 0.28199999E+02 -0.11446E+05
 0.28249998E+02 -0.10068E+05
 0.28299997E+02 -0.42835E+03
 0.28349998E+02  0.38628E+04
 0.28399998E+02 -0.14225E+04
 0.28449999E+02 -0.10779E+03
 0.28499998E+02 -0.74609E+03
 0.28549997E+02 -0.81915E+04
 0.28599998E+02 -0.11319E+05
 0.28649998E+02 -0.31995E+04
 0.28699999E+02 -0.41358E+02
 0.28749998E+02 -0.50221E+04
 0.28799997E+02 -0.38017E+04
 0.28849998E+02 -0.20034E+04
 0.28899998E+02 -0.12986E+04
 0.28949999E+02 -0.33430E+04
 0.28999998E+02 -0.24143E+04
 0.29049997E+02 -0.61964E+04
 0.29099998E+02 -0.80225E+04
 0.29149998E+02 -0.16892E+04
 0.29199999E+02 -0.19630E+04
 0.29249998E+02 -0.62333E+04
 0.29299997E+02 -0.32011E+04
 0.29349998E+02  0.24946E+04
 0.29399998E+02  0.30267E+04
 0.29449999E+02 -0.32706E+04
 0.29499998E+02 -0.87569E+04
 0.29549997E+02 -0.85127E+04
 0.29599998E+02 -0.29311E+04
 0.29649998E+02 -0.62932E+03
 0.29699999E+02 -0.62962E+04
 0.29749998E+02 -0.40956E+04
 0.29799997E+02 -0.12429E+04
 0.29849998E+02 -0.35716E+04
 0.29899998E+02 -0.40471E+04
 0.29949999E+02 -0.76942E+03
 0.29999998E+02  0.14857E+04
 0.30049999E+02 -0.42358E+04
 0.30099998E+02 -0.70196E+04
 0.30149998E+02 -0.18070E+04
 0.30199997E+02 -0.16307E+04
 0.30249996E+02 -0.24613E+03
 0.30299999E+02 -0.36297E+04
 0.30349998E+02 -0.58836E+04
 0.30399998E+02  0.26182E+03
 0.30449997E+02  0.93792E+03
 0.30499996E+02 -0.10619E+04
 0.30549999E+02 -0.64658E+04
 0.30599998E+02 -0.37542E+04
 0.30649998E+02 -0.77667E+03
 0.30699997E+02 -0.38671E+04
 0.30749996E+02 -0.57421E+04
 0.30799999E+02 -0.54602E+04
 0.30849998E+02 -0.55246E+04
 0.30899998E+02 -0.54381E+04
 0.30949997E+02  0.35070E+04
 0.30999996E+02  0.59196E+04
 0.31049999E+02 -0.30959E+04
 0.31099998E+02 -0.68197E+04
 0.31149998E+02 -0.11597E+04
 0.31199997E+02 -0.23158E+04
 0.31249996E+02 -0.79982E+04
 0.31299999E+02 -0.98963E+04
 0.31349998E+02 -0.72077E+04
 0.31399998E+02 -0.40538E+03
 0.31449997E+02  0.10699E+04
 0.31499996E+02  0.30158E+03
 0.31549999E+02 -0.50427E+04
 0.31599998E+02 -0.23775E+04
 0.31649998E+02  0.26426E+04
 0.31699997E+02 -0.50106E+04
 0.31749996E+02 -0.13197E+05
 0.31799999E+02 -0.90018E+04
 0.31849998E+02  0.38168E+03
 0.31899998E+02 -0.11842E+04
 0.31949997E+02 -0.19912E+04
 0.31999996E+02 -0.44644E+04
 0.32049999E+02 -0.62298E+04
 0.32099998E+02 -0.58486E+04
 0.32149998E+02 -0.41705E+04
 0.32199997E+02  0.32537E+04
 0.32249996E+02  0.38437E+04
 0.32299999E+02  0.24676E+03
 0.32349998E+02 -0.59870E+04
 0.32399998E+02 -0.88076E+04
 0.32449997E+02 -0.39698E+04
 0.32499996E+02 -0.85516E+04
 0.32549999E+02 -0.10219E+05
 0.32599998E+02 -0.70445E+04
 0.32649998E+02 -0.81808E+04
 0.32699997E+02 -0.45481E+04
 0.32749996E+02  0.88271E+03
 0.32799999E+02  0.58328E+04
 0.32849998E+02  0.63744E+04
 0.32899998E+02  0.55042E+04
 0.32949997E+02  0.62351E+04
 0.32999996E+02  0.98300E+02
 0.33049999E+02 -0.76342E+04
 0.33099998E+02 -0.50751E+04
 0.33149998E+02 -0.19286E+04
 0.33199997E+02 -0.59398E+04
 0.33249996E+02 -0.49030E+04
 0.33299999E+02  0.30047E+04
 0.33349998E+02  0.14784E+04
 0.33399998E+02 -0.59462E+04
 0.33449997E+02 -0.12999E+05
 0.33499996E+02 -0.16186E+05
 0.33549999E+02 -0.13329E+05
 0.33599998E+02 -0.97372E+04
 0.33649998E+02 -0.33926E+04
 0.33699997E+02  0.12072E+04
 0.33749996E+02  0.82266E+04
 0.33799999E+02  0.14111E+05
 0.33849998E+02  0.50324E+04
 0.33899998E+02 -0.85918E+04
 0.33949997E+02 -0.10081E+05
 0.33999996E+02 -0.55666E+04
 0.34049999E+02 -0.63698E+04
 0.34099998E+02 -0.12588E+05
 0.34149998E+02 -0.72585E+04
 0.34199997E+02 -0.35861E+04
 0.34249996E+02 -0.12419E+05
 0.34299999E+02 -0.87797E+04
 0.34349998E+02  0.22166E+04
 0.34399998E+02  0.52501E+04
 0.34449997E+02  0.14448E+04
 0.34499996E+02  0.26210E+04
 0.34549999E+02  0.44626E+04
 0.34599998E+02 -0.31773E+04
 0.34649998E+02 -0.92136E+04
 0.34699997E+02 -0.74441E+04
 0.34749996E+02 -0.46182E+04
 0.34799999E+02 -0.51319E+04
 0.34849998E+02 -0.24923E+04
 0.34899998E+02  0.45240E+04
 0.34949997E+02  0.33533E+04
 0.34999996E+02 -0.24297E+04
 0.35049999E+02 -0.30298E+04
 0.35099998E+02 -0.31922E+04
 0.35149998E+02 -0.88030E+04
 0.35199997E+02 -0.92834E+04
 0.35249996E+02 -0.55741E+04
 0.35299999E+02 -0.66334E+04
 0.35349998E+02 -0.60381E+04
 0.35399998E+02 -0.15629E+04
 0.35449997E+02 -0.33309E+04
 0.35499996E+02 -0.10726E+05
 0.35549999E+02 -0.83239E+04
 0.35599998E+02  0.25135E+04
 0.35649998E+02  0.49481E+04
 0.35699997E+02 -0.11929E+04
 0.35749996E+02 -0.48180E+03
 0.35799999E+02 -0.17548E+03
 0.35849998E+02 -0.55594E+04
 0.35899998E+02 -0.88617E+04
 0.35949997E+02 -0.95850E+04
 0.35999996E+02 -0.65258E+04
 0.36049999E+02 -0.35550E+04
 0.36099998E+02 -0.21064E+03
 0.36149998E+02 -0.22030E+04
 0.36199997E+02 -0.80080E+04
 0.36249996E+02 -0.53693E+04
 0.36299999E+02 -0.27998E+04
 0.36349998E+02 -0.16055E+04
 0.36399998E+02  0.21977E+04
 0.36449997E+02  0.53411E+04
 0.36499996E+02  0.12679E+04
 0.36549999E+02 -0.36598E+04
 0.36599998E+02 -0.26868E+02
 0.36649998E+02  0.16740E+04
 0.36699997E+02 -0.31685E+04
 0.36749996E+02 -0.65484E+04
 0.36799999E+02 -0.65850E+04
 0.36849998E+02 -0.76076E+04
 0.36899998E+02 -0.90780E+04
 0.36949997E+02 -0.84994E+04
 0.36999996E+02 -0.29038E+04
 0.37049999E+02  0.14404E+03
 0.37099998E+02 -0.14161E+04
 0.37149998E+02 -0.19250E+03
 0.37199997E+02 -0.11702E+04
 0.37249996E+02 -0.26750E+04
 0.37299999E+02 -0.29655E+04
 0.37349998E+02 -0.99074E+03
 0.37399998E+02 -0.88613E+03
 0.37449997E+02 -0.38335E+04
 0.37499996E+02 -0.37225E+04
 0.37549999E+02 -0.44507E+04
 0.37599998E+02 -0.76556E+04
 0.37649998E+02 -0.84902E+04
 0.37699997E+02 -0.60558E+04
 0.37749996E+02 -0.36475E+04
 0.37799999E+02 -0.35245E+04
 0.37849998E+02 -0.39725E+04
 0.37899998E+02 -0.27602E+04
 0.37949997E+02 -0.30500E+04
 0.37999996E+02  0.64722E+03
 0.38049999E+02  0.71667E+03
 0.38099998E+02 -0.13604E+04
 0.38149998E+02 -0.21136E+04
 0.38199997E+02 -0.43825E+04
 0.38249996E+02 -0.60173E+04
 0.38299999E+02 -0.69191E+04
 0.38349998E+02 -0.32810E+04
 0.38399998E+02 -0.71457E+02
 0.38449997E+02 -0.92830E+03
 0.38499996E+02 -0.26080E+04
 0.38549999E+02 -0.36240E+04
 0.38599998E+02 -0.22600E+04
 0.38649998E+02  0.83022E+03
 0.38699997E+02 -0.47585E+03
 0.38749996E+02 -0.48198E+04
 0.38799999E+02 -0.68014E+04
 0.38849998E+02 -0.51493E+04
 0.38899998E+02 -0.58371E+04
 0.38949997E+02 -0.75931E+04
 0.38999996E+02 -0.39532E+04
 0.39049999E+02  0.11502E+03
 0.39099998E+02 -0.17705E+04
 0.39149998E+02 -0.17950E+04
 0.39199997E+02 -0.15561E+04
 0.39249996E+02 -0.50814E+04
 0.39299999E+02 -0.75459E+04
 0.39349998E+02 -0.40822E+04
 0.39399998E+02  0.30259E+03
 0.39449997E+02 -0.16690E+04
 0.39499996E+02 -0.21974E+04
 0.39549999E+02 -0.29491E+04
 0.39599998E+02 -0.42189E+04
 0.39649998E+02 -0.32362E+04
 0.39699997E+02 -0.27986E+04
 0.39749996E+02 -0.31273E+04
 0.39799999E+02 -0.38261E+04
 0.39849998E+02 -0.23979E+04
 0.39899998E+02 -0.11979E+04
 0.39949997E+02 -0.43189E+04
 0.39999996E+02 -0.81266E+04
 0.40049999E+02 -0.65800E+04
 0.40099998E+02 -0.14265E+04
 0.40149998E+02 -0.48536E+03
 0.40199997E+02 -0.42401E+04
 0.40249996E+02 -0.56991E+04
 0.40299999E+02 -0.36790E+04
 0.40349998E+02 -0.34755E+04
 0.40399998E+02 -0.25849E+04
 0.40449997E+02  0.19943E+04
 0.40499996E+02  0.27193E+04
 0.40549999E+02 -0.84494E+03
 0.40599998E+02 -0.32022E+04
 0.40649998E+02 -0.41047E+04
 0.40699997E+02 -0.56060E+04
 0.40749996E+02 -0.67313E+04
 0.40799999E+02 -0.47003E+04
 0.40849998E+02 -0.57127E+04
 0.40899998E+02 -0.69994E+04
 0.40949997E+02 -0.38849E+04
 0.40999996E+02 -0.16618E+04
 0.41049999E+02 -0.11949E+03
 0.41099998E+02  0.66999E+03
 0.41149998E+02  0.11993E+04
 0.41199997E+02 -0.38064E+03
 0.41249996E+02 -0.30745E+04
 0.41299999E+02 -0.45171E+04
 0.41349998E+02 -0.47677E+04
 0.41399998E+02 -0.46706E+04
 0.41449997E+02 -0.46906E+04
 0.41499996E+02 -0.34066E+04
 0.41549999E+02 -0.26425E+04
 0.41599998E+02 -0.26139E+04
 0.41649998E+02 -0.39148E+04
 0.41699997E+02 -0.27620E+04
 0.41749996E+02 -0.13676E+04
 0.41799999E+02 -0.32703E+04
 0.41849998E+02 -0.38237E+04
 0.41899998E+02 -0.25079E+04
 0.41949997E+02 -0.30997E+04
 0.41999996E+02 -0.66313E+04
 0.42049999E+02 -0.54574E+04
 0.42099998E+02 -0.10749E+04
 0.42149998E+02 -0.11655E+04
 0.42199997E+02 -0.39963E+04
 0.42249996E+02 -0.44043E+04
 0.42299999E+02 -0.25385E+04
 0.42349998E+02 -0.17015E+04
 0.42399998E+02 -0.54201E+03
 0.42449997E+02 -0.39217E+03
 0.42499996E+02 -0.20093E+04
 0.42549999E+02 -0.34530E+04
 0.42599998E+02 -0.45468E+04
 0.42649998E+02 -0.54312E+04
 0.42699997E+02 -0.63067E+04
 0.42749996E+02 -0.48792E+04
 0.42799995E+02 -0.33087E+04
 0.42849998E+02 -0.31705E+04
 0.42899998E+02 -0.41184E+04
 0.42949997E+02 -0.69543E+04
 0.42999996E+02 -0.85993E+04
 0.43049995E+02 -0.65382E+04
 0.43099998E+02 -0.22638E+04
 0.43149998E+02 -0.87488E+03
 0.43199997E+02 -0.25625E+04
 0.43249996E+02 -0.34634E+04
 0.43299995E+02 -0.18351E+04
 0.43349998E+02 -0.37558E+03
 0.43399998E+02 -0.86619E+03
 0.43449997E+02 -0.61808E+03
 0.43499996E+02 -0.10099E+04
 0.43549995E+02 -0.15418E+04
 0.43599998E+02 -0.17083E+04
 0.43649998E+02 -0.25852E+04
 0.43699997E+02 -0.26021E+04
 0.43749996E+02 -0.42295E+04
 0.43799995E+02 -0.54558E+04
 0.43849998E+02 -0.68660E+04
 0.43899998E+02 -0.71728E+04
 0.43949997E+02 -0.41447E+04
 0.43999996E+02 -0.21307E+04
 0.44049995E+02 -0.34171E+03
 0.44099998E+02  0.94211E+03
 0.44149998E+02 -0.10178E+04
 0.44199997E+02 -0.42921E+04
 0.44249996E+02 -0.47021E+04
 0.44299995E+02 -0.37270E+04
 0.44349998E+02 -0.36083E+04
 0.44399998E+02 -0.48936E+04
 0.44449997E+02 -0.41156E+04
 0.44499996E+02 -0.33825E+04
 0.44549995E+02 -0.30798E+04
 0.44599998E+02 -0.16030E+04
 0.44649998E+02 -0.11498E+04
 0.44699997E+02 -0.16091E+04
 0.44749996E+02 -0.30191E+04
 0.44799995E+02 -0.20382E+04
 0.44849998E+02 -0.24857E+04
 0.44899998E+02 -0.38613E+04
 0.44949997E+02 -0.35907E+04
 0.44999996E+02 -0.49664E+04
 0.45049995E+02 -0.55133E+04
 0.45099998E+02 -0.37196E+04
 0.45149998E+02 -0.16816E+04
 0.45199997E+02 -0.27951E+04
 0.45249996E+02 -0.47950E+04
 0.45299995E+02 -0.35403E+04
 0.45349998E+02 -0.16539E+04
 0.45399998E+02 -0.27540E+04
 0.45449997E+02 -0.30477E+04
 0.45499996E+02 -0.20401E+04
 0.45549995E+02 -0.35793E+04
 0.45599998E+02 -0.41724E+04
 0.45649998E+02 -0.32134E+04
 0.45699997E+02 -0.49390E+04
 0.45749996E+02 -0.60404E+04
 0.45799995E+02 -0.47315E+04
 0.45849998E+02 -0.47071E+04
 0.45899998E+02 -0.43794E+04
 0.45949997E+02 -0.38841E+04
 0.45999996E+02 -0.20889E+04
 0.46049995E+02 -0.17529E+04
 0.46099998E+02 -0.27175E+04
 0.46149998E+02 -0.18152E+04
 0.46199997E+02 -0.29642E+04
 0.46249996E+02 -0.29865E+04
 0.46299995E+02 -0.22865E+04
 0.46349998E+02 -0.33382E+04
 0.46399998E+02 -0.43051E+04
 0.46449997E+02 -0.41558E+04
 0.46499996E+02 -0.29668E+04
 0.46549995E+02 -0.20816E+04
 0.46599998E+02 -0.12661E+04
 0.46649998E+02 -0.17138E+04
 0.46699997E+02 -0.39992E+04
 0.46749996E+02 -0.39730E+04
 0.46799995E+02 -0.19826E+04
 0.46849998E+02 -0.18124E+04
 0.46899998E+02 -0.31291E+04
 0.46949997E+02 -0.40908E+04
 0.46999996E+02 -0.41499E+04
 0.47049995E+02 -0.30821E+04
 0.47099998E+02 -0.13672E+04
 0.47149998E+02 -0.28042E+04
 0.47199997E+02 -0.39081E+04
 0.47249996E+02 -0.49832E+04
 0.47299995E+02 -0.59669E+04
 0.47349998E+02 -0.43136E+04
 0.47399998E+02 -0.28448E+04
 0.47449997E+02 -0.95376E+03
 0.47499996E+02 -0.19878E+04
 0.47549995E+02 -0.34651E+04
 0.47599998E+02 -0.30394E+04
 0.47649998E+02 -0.37042E+04
 0.47699997E+02 -0.35635E+04
 0.47749996E+02 -0.34415E+04
 0.47799995E+02 -0.45174E+04
 0.47849998E+02 -0.47847E+04
 0.47899998E+02 -0.37824E+04
 0.47949997E+02 -0.44676E+04
 0.47999996E+02 -0.58673E+04
 0.48049995E+02 -0.56011E+04
 0.48099998E+02 -0.35871E+04
 0.48149998E+02 -0.19765E+04
 0.48199997E+02 -0.23581E+04
 0.48249996E+02 -0.25188E+04
 0.48299995E+02 -0.32357E+04
 0.48349998E+02 -0.39731E+04
 0.48399998E+02 -0.27529E+04
 0.48449997E+02 -0.11291E+04
 0.48499996E+02 -0.11789E+04
 0.48549995E+02 -0.30051E+04
 0.48599998E+02 -0.47812E+04
 0.48649998E+02 -0.43334E+04
 0.48699997E+02 -0.23003E+04
 0.48749996E+02 -0.18779E+04
 0.48799995E+02 -0.45334E+04
 0.48849998E+02 -0.49142E+04
 0.48899998E+02 -0.30301E+04
 0.48949997E+02 -0.33022E+04
 0.48999996E+02 -0.38808E+04
 0.49049995E+02 -0.33378E+04
 0.49099998E+02 -0.28361E+04
 0.49149998E+02 -0.36030E+04
 0.49199997E+02 -0.37737E+04
 0.49249996E+02 -0.27118E+04
 0.49299995E+02 -0.28662E+04
 0.49349998E+02 -0.31353E+04
 0.49399998E+02 -0.24324E+04
 0.49449997E+02 -0.25390E+04
 0.49499996E+02 -0.24489E+04
 0.49549995E+02 -0.16389E+04
 0.49599998E+02 -0.17586E+04
 0.49649998E+02 -0.24753E+04
 0.49699997E+02 -0.29242E+04
 0.49749996E+02 -0.28813E+04
 0.49799995E+02 -0.32432E+04
 0.49849998E+02 -0.40098E+04
 0.49899998E+02 -0.32464E+04
 0.49949997E+02 -0.20451E+04
 0.49999996E+02 -0.17268E+04
 0.50049995E+02 -0.26312E+04
 0.50099998E+02 -0.37802E+04
 0.50149998E+02 -0.31859E+04
 0.50199997E+02 -0.31591E+04
 0.50249996E+02 -0.30592E+04
 0.50299995E+02 -0.23586E+04
 0.50349998E+02 -0.30608E+04
 0.50399998E+02 -0.43137E+04
 0.50449997E+02 -0.51268E+04
 0.50499996E+02 -0.49297E+04
 0.50549995E+02 -0.49900E+04
 0.50599998E+02 -0.47629E+04
 0.50649998E+02 -0.42081E+04
 0.50699997E+02 -0.44590E+04
 0.50749996E+02 -0.41697E+04
 0.50799995E+02 -0.34152E+04
 0.50849998E+02 -0.36519E+04
 0.50899998E+02 -0.33559E+04
 0.50949997E+02 -0.28199E+04
 0.50999996E+02 -0.32775E+04
 0.51049995E+02 -0.37981E+04
 0.51099998E+02 -0.31860E+04
 0.51149998E+02 -0.18522E+04
 0.51199997E+02 -0.17684E+04
 0.51249996E+02 -0.22519E+04
 0.51299995E+02 -0.25614E+04
 0.51349998E+02 -0.27423E+04
 0.51399998E+02 -0.29592E+04
 0.51449997E+02 -0.34158E+04
 0.51499996E+02 -0.43502E+04
 0.51549995E+02 -0.35941E+04
 0.51599998E+02 -0.24750E+04
 0.51649998E+02 -0.29300E+04
 0.51699997E+02 -0.27912E+04
 0.51749996E+02 -0.25332E+04
 0.51799995E+02 -0.29618E+04
 0.51849998E+02 -0.32871E+04
 0.51899998E+02 -0.34696E+04
 0.51949997E+02 -0.32052E+04
 0.51999996E+02 -0.31855E+04
 0.52049995E+02 -0.29721E+04
 0.52099998E+02 -0.18295E+04
 0.52149998E+02 -0.25240E+04
 0.52199997E+02 -0.34424E+04
 0.52249996E+02 -0.31977E+04
 0.52299995E+02 -0.27360E+04
 0.52349998E+02 -0.27929E+04
 0.52399998E+02 -0.32631E+04
 0.52449997E+02 -0.32493E+04
 0.52499996E+02 -0.34581E+04
 0.52549995E+02 -0.37589E+04
 0.52599998E+02 -0.35371E+04
 0.52649998E+02 -0.26141E+04
 0.52699997E+02 -0.27117E+04
 0.52749996E+02 -0.33017E+04
 0.52799995E+02 -0.33581E+04
 0.52849998E+02 -0.35288E+04
 0.52899998E+02 -0.36484E+04
 0.52949997E+02 -0.36566E+04
 0.52999996E+02 -0.34251E+04
 0.53049995E+02 -0.39513E+04
 0.53099998E+02 -0.32721E+04
 0.53149998E+02 -0.23537E+04
 0.53199997E+02 -0.32508E+04
 0.53249996E+02 -0.35561E+04
 0.53299995E+02 -0.26191E+04
 0.53349998E+02 -0.22386E+04
 0.53399998E+02 -0.33225E+04
 0.53449997E+02 -0.40805E+04
 0.53499996E+02 -0.47513E+04
 0.53549995E+02 -0.47553E+04
 0.53599998E+02 -0.47792E+04
 0.53649998E+02 -0.51507E+04
 0.53699997E+02 -0.47416E+04
 0.53749996E+02 -0.40460E+04
 0.53799995E+02 -0.30145E+04
 0.53849998E+02 -0.28218E+04
 0.53899998E+02 -0.29565E+04
 0.53949997E+02 -0.29788E+04
 0.53999996E+02 -0.35335E+04
 0.54049995E+02 -0.32067E+04
 0.54099998E+02 -0.22905E+04
 0.54149998E+02 -0.20193E+04
 0.54199997E+02 -0.19212E+04
 0.54249996E+02 -0.18081E+04
 0.54299995E+02 -0.18378E+04
 0.54349998E+02 -0.22969E+04
 0.54399998E+02 -0.34591E+04
 0.54449997E+02 -0.45362E+04
 0.54499996E+02 -0.46098E+04
 0.54549995E+02 -0.43852E+04
 0.54599998E+02 -0.33505E+04
 0.54649998E+02 -0.19850E+04
 0.54699997E+02 -0.21340E+04
 0.54749996E+02 -0.29728E+04
 0.54799995E+02 -0.23686E+04
 0.54849998E+02 -0.16906E+04
 0.54899998E+02 -0.20473E+04
 0.54949997E+02 -0.20501E+04
 0.54999996E+02 -0.29657E+04
 0.55049995E+02 -0.46522E+04
 0.55099998E+02 -0.51972E+04
 0.55149998E+02 -0.49052E+04
 0.55199997E+02 -0.43287E+04
 0.55249996E+02 -0.37941E+04
 0.55299995E+02 -0.35972E+04
 0.55349998E+02 -0.36406E+04
 0.55399998E+02 -0.39963E+04
 0.55449997E+02 -0.33837E+04
 0.55499996E+02 -0.22466E+04
 0.55549995E+02 -0.16702E+04
 0.55599998E+02 -0.11175E+04
 0.55649998E+02 -0.70254E+03
 0.55699997E+02 -0.90551E+03
 0.55749996E+02 -0.12148E+04
 0.55799995E+02 -0.18602E+04
 0.55849995E+02 -0.30647E+04
 0.55899998E+02 -0.26183E+04
 0.55949997E+02 -0.26331E+04
 0.55999996E+02 -0.44268E+04
 0.56049995E+02 -0.50613E+04
 0.56099995E+02 -0.49183E+04
 0.56149998E+02 -0.53231E+04
 0.56199997E+02 -0.60505E+04
 0.56249996E+02 -0.56903E+04
 0.56299995E+02 -0.46298E+04
 0.56349995E+02 -0.39749E+04
 0.56399998E+02 -0.27601E+04
 0.56449997E+02 -0.17809E+04
 0.56499996E+02 -0.26875E+04
 0.56549995E+02 -0.37481E+04
 0.56599995E+02 -0.39627E+04
 0.56649998E+02 -0.41409E+04
 0.56699997E+02 -0.37440E+04
 0.56749996E+02 -0.31913E+04
 0.56799995E+02 -0.32004E+04
 0.56849995E+02 -0.30495E+04
 0.56899998E+02 -0.27996E+04
 0.56949997E+02 -0.33090E+04
 0.56999996E+02 -0.31241E+04
 0.57049995E+02 -0.19446E+04
 0.57099995E+02 -0.13013E+04
 0.57149998E+02 -0.16543E+04
 0.57199997E+02 -0.24862E+04
 0.57249996E+02 -0.27526E+04
 0.57299995E+02 -0.29474E+04
 0.57349995E+02 -0.31104E+04
 0.57399998E+02 -0.29350E+04
 0.57449997E+02 -0.33026E+04
 0.57499996E+02 -0.37109E+04
 0.57549995E+02 -0.34965E+04
 0.57599995E+02 -0.34899E+04
 0.57649998E+02 -0.38150E+04
 0.57699997E+02 -0.30154E+04
 0.57749996E+02 -0.21724E+04
 0.57799995E+02 -0.24103E+04
 0.57849995E+02 -0.29210E+04
 0.57899998E+02 -0.32729E+04
 0.57949997E+02 -0.36764E+04
 0.57999996E+02 -0.39223E+04
 0.58049995E+02 -0.40800E+04
 0.58099995E+02 -0.41469E+04
 0.58149998E+02 -0.42562E+04
 0.58199997E+02 -0.48613E+04
 0.58249996E+02 -0.55428E+04
 0.58299995E+02 -0.55846E+04
 0.58349995E+02 -0.44138E+04
 0.58399998E+02 -0.35118E+04
 0.58449997E+02 -0.27798E+04
 0.58499996E+02 -0.23901E+04
 0.58549995E+02 -0.25365E+04
 0.58599995E+02 -0.23858E+04
 0.58649998E+02 -0.17623E+04
 0.58699997E+02 -0.12451E+04
 0.58749996E+02 -0.13164E+04
 0.58799995E+02 -0.18570E+04
 0.58849995E+02 -0.20674E+04
 0.58899998E+02 -0.21584E+04
 0.58949997E+02 -0.28515E+04
 0.58999996E+02 -0.36933E+04
 0.59049995E+02 -0.42959E+04
 0.59099995E+02 -0.40402E+04
 0.59149998E+02 -0.37968E+04
 0.59199997E+02 -0.38525E+04
 0.59249996E+02 -0.35318E+04
 0.59299995E+02 -0.30225E+04
 0.59349995E+02 -0.31950E+04
 0.59399998E+02 -0.34395E+04
 0.59449997E+02 -0.30470E+04
 0.59499996E+02 -0.27652E+04
 0.59549995E+02 -0.31816E+04
 0.59599995E+02 -0.40793E+04
 0.59649998E+02 -0.44414E+04
 0.59699997E+02 -0.46429E+04
 0.59749996E+02 -0.42800E+04
 0.59799995E+02 -0.33596E+04
 0.59849995E+02 -0.33947E+04
 0.59899998E+02 -0.33264E+04
 0.59949997E+02 -0.30946E+04
 0.59999996E+02 -0.33045E+04
 0.60049995E+02 -0.31357E+04
 0.60099995E+02 -0.31280E+04
 0.60149998E+02 -0.32169E+04
 0.60199997E+02 -0.32085E+04
 0.60249996E+02 -0.31235E+04
 0.60299995E+02 -0.27811E+04
 0.60349995E+02 -0.31687E+04
 0.60399998E+02 -0.31513E+04
 0.60449997E+02 -0.21581E+04
 0.60499996E+02 -0.15378E+04
 0.60549995E+02 -0.20551E+04
 0.60599995E+02 -0.31512E+04
 0.60649998E+02 -0.33138E+04
 0.60699997E+02 -0.29378E+04
 0.60749996E+02 -0.29805E+04
 0.60799995E+02 -0.35128E+04
 0.60849995E+02 -0.37868E+04
 0.60899998E+02 -0.42518E+04
 0.60949997E+02 -0.45009E+04
 0.60999996E+02 -0.41350E+04
 0.61049995E+02 -0.34303E+04
 0.61099995E+02 -0.26023E+04
 0.61149998E+02 -0.27175E+04
 0.61199997E+02 -0.26672E+04
 0.61249996E+02 -0.21482E+04
 0.61299995E+02 -0.20208E+04
 0.61349995E+02 -0.22272E+04
 0.61399998E+02 -0.27180E+04
 0.61449997E+02 -0.32853E+04
 0.61499996E+02 -0.36314E+04
 0.61549995E+02 -0.40637E+04
 0.61599995E+02 -0.47364E+04
 0.61649998E+02 -0.50948E+04
 0.61699997E+02 -0.44288E+04
 0.61749996E+02 -0.34604E+04
 0.61799995E+02 -0.30730E+04
 0.61849995E+02 -0.27118E+04
 0.61899998E+02 -0.22409E+04
 0.61949997E+02 -0.21155E+04
 0.61999996E+02 -0.23561E+04
 0.62049995E+02 -0.26108E+04
 0.62099998E+02 -0.27298E+04
 0.62149994E+02 -0.30229E+04
 0.62199997E+02 -0.33597E+04
 0.62249992E+02 -0.34379E+04
 0.62299995E+02 -0.32766E+04
 0.62349998E+02 -0.28672E+04
 0.62399994E+02 -0.26012E+04
 0.62449997E+02 -0.30524E+04
 0.62499992E+02 -0.31239E+04
 0.62549995E+02 -0.27689E+04
 0.62599998E+02 -0.25525E+04
 0.62649994E+02 -0.23505E+04
 0.62699997E+02 -0.31022E+04
 0.62749992E+02 -0.40212E+04
 0.62799995E+02 -0.49657E+04
 0.62849998E+02 -0.50952E+04
 0.62899994E+02 -0.43589E+04
 0.62949997E+02 -0.36672E+04
 0.62999992E+02 -0.35241E+04
 0.63049995E+02 -0.36139E+04
 0.63099998E+02 -0.31787E+04
 0.63149994E+02 -0.26749E+04
 0.63199997E+02 -0.26739E+04
 0.63249992E+02 -0.31540E+04
 0.63299995E+02 -0.32169E+04
 0.63349998E+02 -0.32926E+04
 0.63399994E+02 -0.33313E+04
 0.63449997E+02 -0.33266E+04
 0.63499992E+02 -0.31734E+04
 0.63549995E+02 -0.28200E+04
 0.63599998E+02 -0.27108E+04
 0.63649994E+02 -0.28242E+04
 0.63699997E+02 -0.28922E+04
 0.63749992E+02 -0.32108E+04
 0.63799995E+02 -0.36535E+04
 0.63849998E+02 -0.39977E+04
 0.63899994E+02 -0.38308E+04
 0.63949997E+02 -0.32233E+04
 0.63999992E+02 -0.30574E+04
 0.64049995E+02 -0.30958E+04
 0.64099998E+02 -0.31042E+04
 0.64149994E+02 -0.30383E+04
 0.64199997E+02 -0.32954E+04
 0.64249992E+02 -0.33823E+04
 0.64299995E+02 -0.30487E+04
 0.64349998E+02 -0.31580E+04
 0.64399994E+02 -0.37710E+04
 0.64449997E+02 -0.40509E+04
 0.64499992E+02 -0.37383E+04
 0.64549995E+02 -0.33398E+04
 0.64599998E+02 -0.30097E+04
 0.64649994E+02 -0.28351E+04
 0.64699997E+02 -0.30534E+04
 0.64749992E+02 -0.32908E+04
 0.64799995E+02 -0.31101E+04
 0.64849998E+02 -0.26703E+04
 0.64899994E+02 -0.25998E+04
 0.64949997E+02 -0.31085E+04
 0.64999992E+02 -0.34972E+04
 0.65049995E+02 -0.37621E+04
 0.65099998E+02 -0.39836E+04
 0.65149994E+02 -0.41842E+04
 0.65199997E+02 -0.39784E+04
 0.65249992E+02 -0.37093E+04
 0.65299995E+02 -0.35600E+04
 0.65349998E+02 -0.31274E+04
 0.65399994E+02 -0.27294E+04
 0.65449997E+02 -0.23466E+04
 0.65499992E+02 -0.24067E+04
 0.65549995E+02 -0.27510E+04
 0.65599998E+02 -0.27680E+04
 0.65649994E+02 -0.24102E+04
 0.65699997E+02 -0.25604E+04
 0.65749992E+02 -0.32710E+04
 0.65799995E+02 -0.36492E+04
 0.65849998E+02 -0.35338E+04
 0.65899994E+02 -0.31300E+04
 0.65949997E+02 -0.32017E+04
 0.65999992E+02 -0.36361E+04
 0.66049995E+02 -0.36969E+04
 0.66099998E+02 -0.31314E+04
 0.66149994E+02 -0.28862E+04
 0.66199997E+02 -0.32432E+04
 0.66249992E+02 -0.31833E+04
 0.66299995E+02 -0.33487E+04
 0.66349998E+02 -0.35470E+04
 0.66399994E+02 -0.33739E+04
 0.66449997E+02 -0.31093E+04
 0.66499992E+02 -0.31995E+04
 0.66549995E+02 -0.37309E+04
 0.66599998E+02 -0.36595E+04
 0.66649994E+02 -0.33959E+04
 0.66699997E+02 -0.32639E+04
 0.66749992E+02 -0.32728E+04
 0.66799995E+02 -0.33531E+04
 0.66849998E+02 -0.29861E+04
 0.66899994E+02 -0.23120E+04
 0.66949997E+02 -0.19407E+04
 0.66999992E+02 -0.23656E+04
 0.67049995E+02 -0.30615E+04
 0.67099998E+02 -0.35027E+04
 0.67149994E+02 -0.34924E+04
 0.67199997E+02 -0.34255E+04
 0.67249992E+02 -0.36872E+04
 0.67299995E+02 -0.39994E+04
 0.67349998E+02 -0.38026E+04
 0.67399994E+02 -0.31090E+04
 0.67449997E+02 -0.28942E+04
 0.67499992E+02 -0.30978E+04
 0.67549995E+02 -0.30961E+04
 0.67599998E+02 -0.30781E+04
 0.67649994E+02 -0.32488E+04
 0.67699997E+02 -0.33186E+04
 0.67749992E+02 -0.34244E+04
 0.67799995E+02 -0.37081E+04
 0.67849998E+02 -0.39511E+04
 0.67899994E+02 -0.38897E+04
 0.67949997E+02 -0.38709E+04
 0.67999992E+02 -0.36948E+04
 0.68049995E+02 -0.34998E+04
 0.68099998E+02 -0.35097E+04
 0.68149994E+02 -0.32545E+04
 0.68199997E+02 -0.29630E+04
 0.68249992E+02 -0.27573E+04
 0.68299995E+02 -0.30320E+04
 0.68349998E+02 -0.35631E+04
 0.68399994E+02 -0.38001E+04
 0.68449997E+02 -0.34246E+04
 0.68499992E+02 -0.30593E+04
 0.68549995E+02 -0.33096E+04
 0.68599998E+02 -0.34113E+04
 0.68649994E+02 -0.31000E+04
 0.68699997E+02 -0.26576E+04
 0.68749992E+02 -0.24705E+04
 0.68799995E+02 -0.26500E+04
 0.68849998E+02 -0.27685E+04
 0.68899994E+02 -0.30608E+04
 0.68949997E+02 -0.35373E+04
 0.68999992E+02 -0.34844E+04
 0.69049995E+02 -0.31452E+04
 0.69099998E+02 -0.29256E+04
 0.69149994E+02 -0.30263E+04
 0.69199997E+02 -0.31538E+04
 0.69249992E+02 -0.30633E+04
 0.69299995E+02 -0.32050E+04
 0.69349998E+02 -0.33786E+04
 0.69399994E+02 -0.32859E+04
 0.69449997E+02 -0.29760E+04
 0.69499992E+02 -0.28383E+04
 0.69549995E+02 -0.29628E+04
 0.69599998E+02 -0.31060E+04
 0.69649994E+02 -0.33574E+04
 0.69699997E+02 -0.33016E+04
 0.69749992E+02 -0.30899E+04
 0.69799995E+02 -0.33402E+04
 0.69849998E+02 -0.34921E+04
 0.69899994E+02 -0.31060E+04
 0.69949997E+02 -0.28320E+04
 0.69999992E+02 -0.26393E+04
 0.70049995E+02 -0.23198E+04
 0.70099998E+02 -0.24341E+04
 0.70149994E+02 -0.29490E+04
 0.70199997E+02 -0.32561E+04
 0.70249992E+02 -0.31835E+04
 0.70299995E+02 -0.34769E+04
 0.70349998E+02 -0.36216E+04
 0.70399994E+02 -0.34132E+04
 0.70449997E+02 -0.32115E+04
 0.70499992E+02 -0.28100E+04
 0.70549995E+02 -0.27402E+04
 0.70599998E+02 -0.33454E+04
 0.70649994E+02 -0.39553E+04
 0.70699997E+02 -0.38018E+04
 0.70749992E+02 -0.33959E+04
 0.70799995E+02 -0.32478E+04
 0.70849998E+02 -0.30598E+04
 0.70899994E+02 -0.29632E+04
 0.70949997E+02 -0.32172E+04
 0.70999992E+02 -0.34035E+04
 0.71049995E+02 -0.35038E+04
 0.71099998E+02 -0.37743E+04
 0.71149994E+02 -0.41840E+04
 0.71199997E+02 -0.41317E+04
 0.71249992E+02 -0.38706E+04
 0.71299995E+02 -0.38090E+04
 0.71349998E+02 -0.37764E+04
 0.71399994E+02 -0.35925E+04
 0.71449997E+02 -0.30055E+04
 0.71499992E+02 -0.26357E+04
 0.71549995E+02 -0.25564E+04
 0.71599998E+02 -0.24580E+04
 0.71649994E+02 -0.23998E+04
 0.71699997E+02 -0.25687E+04
 0.71749992E+02 -0.28619E+04
 0.71799995E+02 -0.27238E+04
 0.71849998E+02 -0.24619E+04
 0.71899994E+02 -0.26413E+04
 0.71949997E+02 -0.29446E+04
 0.71999992E+02 -0.27616E+04
 0.72049995E+02 -0.25365E+04
 0.72099998E+02 -0.27174E+04
 0.72149994E+02 -0.30658E+04
 0.72199997E+02 -0.34774E+04
 0.72249992E+02 -0.35469E+04
 0.72299995E+02 -0.36285E+04
 0.72349998E+02 -0.40504E+04
 0.72399994E+02 -0.42045E+04
 0.72449997E+02 -0.37651E+04
 0.72499992E+02 -0.32479E+04
 0.72549995E+02 -0.30710E+04
 0.72599998E+02 -0.34013E+04
 0.72649994E+02 -0.40361E+04
 0.72699997E+02 -0.42887E+04
 0.72749992E+02 -0.40031E+04
 0.72799995E+02 -0.32946E+04
 0.72849998E+02 -0.30303E+04
 0.72899994E+02 -0.31285E+04
 0.72949997E+02 -0.30097E+04
 0.72999992E+02 -0.30417E+04
 0.73049995E+02 -0.29878E+04
 0.73099998E+02 -0.29941E+04
 0.73149994E+02 -0.30889E+04
 0.73199997E+02 -0.34822E+04
 0.73249992E+02 -0.38128E+04
 0.73299995E+02 -0.36455E+04
 0.73349998E+02 -0.34711E+04
 0.73399994E+02 -0.33828E+04
 0.73449997E+02 -0.35189E+04
 0.73499992E+02 -0.35049E+04
 0.73549995E+02 -0.33871E+04
 0.73599998E+02 -0.30398E+04
 0.73649994E+02 -0.25549E+04
 0.73699997E+02 -0.25710E+04
 0.73749992E+02 -0.28714E+04
 0.73799995E+02 -0.30249E+04
 0.73849998E+02 -0.31721E+04
 0.73899994E+02 -0.36171E+04
 0.73949997E+02 -0.37477E+04
 0.73999992E+02 -0.34328E+04
 0.74049995E+02 -0.33307E+04
 0.74099998E+02 -0.35021E+04
 0.74149994E+02 -0.34765E+04
 0.74199997E+02 -0.33533E+04
 0.74249992E+02 -0.34151E+04
 0.74299995E+02 -0.32536E+04
 0.74349998E+02 -0.28918E+04
 0.74399994E+02 -0.27377E+04
 0.74449997E+02 -0.27735E+04
 0.74499992E+02 -0.29340E+04
 0.74549995E+02 -0.30968E+04
 0.74599998E+02 -0.34325E+04
 0.74649994E+02 -0.36619E+04
 0.74699997E+02 -0.35483E+04
 0.74749992E+02 -0.36016E+04
 0.74799995E+02 -0.33299E+04
 0.74849998E+02 -0.27851E+04
 0.74899994E+02 -0.25179E+04
 0.74949997E+02 -0.25090E+04
 0.74999992E+02 -0.26291E+04
 0.75049995E+02 -0.27518E+04
 0.75099998E+02 -0.31494E+04
 0.75149994E+02 -0.33682E+04
 0.75199997E+02 -0.31517E+04
 0.75249992E+02 -0.30527E+04
 0.75299995E+02 -0.32593E+04
 0.75349998E+02 -0.35275E+04
 0.75399994E+02 -0.37165E+04
 0.75449997E+02 -0.38549E+04
 0.75499992E+02 -0.36699E+04
 0.75549995E+02 -0.33919E+04
 0.75599998E+02 -0.34425E+04
 0.75649994E+02 -0.36082E+04
 0.75699997E+02 -0.34779E+04
 0.75749992E+02 -0.32107E+04
 0.75799995E+02 -0.30654E+04
 0.75849998E+02 -0.28961E+04
 0.75899994E+02 -0.29043E+04
 0.75949997E+02 -0.31315E+04
 0.75999992E+02 -0.32928E+04
 0.76049995E+02 -0.31782E+04
 0.76099998E+02 -0.31523E+04
 0.76149994E+02 -0.34012E+04
 0.76199997E+02 -0.33311E+04
 0.76249992E+02 -0.29986E+04
 0.76299995E+02 -0.30026E+04
 0.76349998E+02 -0.32475E+04
 0.76399994E+02 -0.32065E+04
 0.76449997E+02 -0.28782E+04
 0.76499992E+02 -0.28234E+04
 0.76549995E+02 -0.32337E+04
 0.76599998E+02 -0.33893E+04
 0.76649994E+02 -0.31801E+04
 0.76699997E+02 -0.32081E+04
 0.76749992E+02 -0.36487E+04
 0.76799995E+02 -0.39171E+04
 0.76849998E+02 -0.38763E+04
 0.76899994E+02 -0.38908E+04
 0.76949997E+02 -0.38811E+04
 0.76999992E+02 -0.38262E+04
 0.77049995E+02 -0.36252E+04
 0.77099998E+02 -0.32264E+04
 0.77149994E+02 -0.28228E+04
 0.77199997E+02 -0.27700E+04
 0.77249992E+02 -0.29056E+04
 0.77299995E+02 -0.27757E+04
 0.77349998E+02 -0.26389E+04
 0.77399994E+02 -0.27689E+04
 0.77449997E+02 -0.28916E+04
 0.77499992E+02 -0.30715E+04
 0.77549995E+02 -0.34436E+04
 0.77599998E+02 -0.36070E+04
 0.77649994E+02 -0.33328E+04
 0.77699997E+02 -0.30704E+04
 0.77749992E+02 -0.30234E+04
 0.77799995E+02 -0.29796E+04
 0.77849998E+02 -0.29256E+04
 0.77899994E+02 -0.30344E+04
 0.77949997E+02 -0.32488E+04
 0.77999992E+02 -0.31075E+04
 0.78049995E+02 -0.29548E+04
 0.78099998E+02 -0.29886E+04
 0.78149994E+02 -0.29597E+04
 0.78199997E+02 -0.28385E+04
 0.78249992E+02 -0.27869E+04
 0.78299995E+02 -0.29080E+04
 0.78349998E+02 -0.30394E+04
 0.78399994E+02 -0.33512E+04
 0.78449997E+02 -0.36284E+04
 0.78499992E+02 -0.34017E+04
 0.78549995E+02 -0.29784E+04
 0.78599998E+02 -0.29858E+04
 0.78649994E+02 -0.34425E+04
 0.78699997E+02 -0.37685E+04
 0.78749992E+02 -0.37784E+04
 0.78799995E+02 -0.37688E+04
 0.78849998E+02 -0.35252E+04
 0.78899994E+02 -0.32204E+04
 0.78949997E+02 -0.32140E+04
 0.78999992E+02 -0.32482E+04
 0.79049995E+02 -0.32891E+04
 0.79099998E+02 -0.34860E+04
 0.79149994E+02 -0.35852E+04
 0.79199997E+02 -0.35924E+04
 0.79249992E+02 -0.35980E+04
 0.79299995E+02 -0.35196E+04
 0.79349998E+02 -0.34553E+04
 0.79399994E+02 -0.32133E+04
 0.79449997E+02 -0.29222E+04
 0.79499992E+02 -0.27270E+04
 0.79549995E+02 -0.25888E+04
 0.79599998E+02 -0.27584E+04
 0.79649994E+02 -0.30549E+04
 0.79699997E+02 -0.30986E+04
 0.79749992E+02 -0.30946E+04
 0.79799995E+02 -0.32064E+04
 0.79849998E+02 -0.32885E+04
 0.79899994E+02 -0.33022E+04
 0.79949997E+02 -0.34460E+04
 0.79999992E+02 -0.36477E+04
 0.80049995E+02 -0.35747E+04
 0.80099998E+02 -0.32757E+04
 0.80149994E+02 -0.31358E+04
 0.80199997E+02 -0.31232E+04
 0.80249992E+02 -0.29893E+04
 0.80299995E+02 -0.28940E+04
 0.80349998E+02 -0.30175E+04
 0.80399994E+02 -0.30912E+04
 0.80449997E+02 -0.28070E+04
 0.80499992E+02 -0.27498E+04
 0.80549995E+02 -0.31228E+04
 0.80599998E+02 -0.35752E+04
 0.80649994E+02 -0.38983E+04
 0.80699997E+02 -0.40111E+04
 0.80749992E+02 -0.41135E+04
 0.80799995E+02 -0.39411E+04
 0.80849998E+02 -0.36540E+04
 0.80899994E+02 -0.34029E+04
 0.80949997E+02 -0.29954E+04
 0.80999992E+02 -0.27745E+04
 0.81049995E+02 -0.27255E+04
 0.81099998E+02 -0.26526E+04
 0.81149994E+02 -0.26194E+04
 0.81199997E+02 -0.27574E+04
 0.81249992E+02 -0.31559E+04
 0.81299995E+02 -0.34569E+04
 0.81349998E+02 -0.35327E+04
 0.81399994E+02 -0.36545E+04
 0.81449997E+02 -0.37333E+04
 0.81499992E+02 -0.38127E+04
 0.81549995E+02 -0.38011E+04
 0.81599998E+02 -0.35055E+04
 0.81649994E+02 -0.31967E+04
 0.81699997E+02 -0.30642E+04
 0.81749992E+02 -0.28937E+04
 0.81799995E+02 -0.26808E+04
 0.81849998E+02 -0.26799E+04
 0.81899994E+02 -0.27823E+04
 0.81949997E+02 -0.28145E+04
 0.81999992E+02 -0.29021E+04
 0.82049995E+02 -0.31203E+04
 0.82099998E+02 -0.32418E+04
 0.82149994E+02 -0.32259E+04
 0.82199997E+02 -0.33825E+04
 0.82249992E+02 -0.35272E+04
 0.82299995E+02 -0.36033E+04
 0.82349998E+02 -0.37070E+04
 0.82399994E+02 -0.36463E+04
 0.82449997E+02 -0.33941E+04
 0.82499992E+02 -0.30676E+04
 0.82549995E+02 -0.30292E+04
 0.82599998E+02 -0.32489E+04
 0.82649994E+02 -0.32768E+04
 0.82699997E+02 -0.31708E+04
 0.82749992E+02 -0.31052E+04
 0.82799995E+02 -0.29619E+04
 0.82849998E+02 -0.29637E+04
 0.82899994E+02 -0.30458E+04
 0.82949997E+02 -0.31655E+04
 0.82999992E+02 -0.32985E+04
 0.83049995E+02 -0.33238E+04
 0.83099998E+02 -0.33874E+04
 0.83149994E+02 -0.32667E+04
 0.83199997E+02 -0.30590E+04
 0.83249992E+02 -0.30767E+04
 0.83299995E+02 -0.31862E+04
 0.83349998E+02 -0.31955E+04
 0.83399994E+02 -0.30928E+04
 0.83449997E+02 -0.30137E+04
 0.83499992E+02 -0.29082E+04
 0.83549995E+02 -0.28149E+04
 0.83599998E+02 -0.30219E+04
 0.83649994E+02 -0.33883E+04
 0.83699997E+02 -0.36550E+04
 0.83749992E+02 -0.37863E+04
 0.83799995E+02 -0.38568E+04
 0.83849998E+02 -0.37713E+04
 0.83899994E+02 -0.33715E+04
 0.83949997E+02 -0.29524E+04
 0.83999992E+02 -0.27335E+04
 0.84049995E+02 -0.27582E+04
 0.84099998E+02 -0.29618E+04
 0.84149994E+02 -0.30944E+04
 0.84199997E+02 -0.30627E+04
 0.84249992E+02 -0.30605E+04
 0.84299995E+02 -0.32918E+04
 0.84349998E+02 -0.35303E+04
 0.84399994E+02 -0.36045E+04
 0.84449997E+02 -0.35785E+04
 0.84499992E+02 -0.34769E+04
 0.84549995E+02 -0.33324E+04
 0.84599998E+02 -0.32553E+04
 0.84649994E+02 -0.32399E+04
 0.84699997E+02 -0.31581E+04
 0.84749992E+02 -0.31203E+04
 0.84799995E+02 -0.30927E+04
 0.84849998E+02 -0.30292E+04
 0.84899994E+02 -0.30988E+04
 0.84949997E+02 -0.32028E+04
 0.84999992E+02 -0.31746E+04
 0.85049995E+02 -0.31464E+04
 0.85099998E+02 -0.32957E+04
 0.85149994E+02 -0.33834E+04
 0.85199997E+02 -0.33511E+04
 0.85249992E+02 -0.34364E+04
 0.85299995E+02 -0.33845E+04
 0.85349998E+02 -0.31756E+04
 0.85399994E+02 -0.30383E+04
 0.85449997E+02 -0.30589E+04
 0.85499992E+02 -0.31743E+04
 0.85549995E+02 -0.31575E+04
 0.85599998E+02 -0.31092E+04
 0.85649994E+02 -0.30751E+04
 0.85699997E+02 -0.30689E+04
 0.85749992E+02 -0.31875E+04
 0.85799995E+02 -0.34211E+04
 0.85849998E+02 -0.35871E+04
 0.85899994E+02 -0.35067E+04
 0.85949997E+02 -0.32741E+04
 0.85999992E+02 -0.31001E+04
 0.86049995E+02 -0.29878E+04
 0.86099998E+02 -0.28801E+04
 0.86149994E+02 -0.28883E+04
 0.86199997E+02 -0.30271E+04
 0.86249992E+02 -0.31180E+04
 0.86299995E+02 -0.31020E+04
 0.86349998E+02 -0.32845E+04
 0.86399994E+02 -0.35527E+04
 0.86449997E+02 -0.36011E+04
 0.86499992E+02 -0.35219E+04
 0.86549995E+02 -0.36072E+04
 0.86599998E+02 -0.37404E+04
 0.86649994E+02 -0.36814E+04
 0.86699997E+02 -0.35918E+04
 0.86749992E+02 -0.35869E+04
 0.86799995E+02 -0.35500E+04
 0.86849998E+02 -0.32847E+04
 0.86899994E+02 -0.29656E+04
 0.86949997E+02 -0.28317E+04
 0.86999992E+02 -0.28261E+04
 0.87049995E+02 -0.28741E+04
 0.87099998E+02 -0.30158E+04
 0.87149994E+02 -0.31969E+04
 0.87199997E+02 -0.34455E+04
 0.87249992E+02 -0.36315E+04
 0.87299995E+02 -0.37772E+04
 0.87349998E+02 -0.37780E+04
 0.87399994E+02 -0.34422E+04
 0.87449997E+02 -0.31471E+04
 0.87499992E+02 -0.30091E+04
 0.87549995E+02 -0.29319E+04
 0.87599991E+02 -0.28089E+04
 0.87649994E+02 -0.27504E+04
 0.87699997E+02 -0.27137E+04
 0.87749992E+02 -0.26823E+04
 0.87799995E+02 -0.27382E+04
 0.87849991E+02 -0.27223E+04
 0.87899994E+02 -0.27439E+04
 0.87949997E+02 -0.30102E+04
 0.87999992E+02 -0.34430E+04
 0.88049995E+02 -0.37362E+04
 0.88099991E+02 -0.38161E+04
 0.88149994E+02 -0.37351E+04
 0.88199997E+02 -0.36104E+04
 0.88249992E+02 -0.34188E+04
 0.88299995E+02 -0.33371E+04
 0.88349991E+02 -0.34968E+04
 0.88399994E+02 -0.35673E+04
 0.88449997E+02 -0.35658E+04
 0.88499992E+02 -0.35121E+04
 0.88549995E+02 -0.34338E+04
 0.88599991E+02 -0.32962E+04
 0.88649994E+02 -0.31215E+04
 0.88699997E+02 -0.31308E+04
 0.88749992E+02 -0.31507E+04
 0.88799995E+02 -0.30765E+04
 0.88849991E+02 -0.29902E+04
 0.88899994E+02 -0.28363E+04
 0.88949997E+02 -0.26771E+04
 0.88999992E+02 -0.27142E+04
 0.89049995E+02 -0.27517E+04
 0.89099991E+02 -0.26550E+04
 0.89149994E+02 -0.25893E+04
 0.89199997E+02 -0.26917E+04
 0.89249992E+02 -0.29381E+04
 0.89299995E+02 -0.31920E+04
 0.89349991E+02 -0.34524E+04
 0.89399994E+02 -0.36488E+04
 0.89449997E+02 -0.37577E+04
 0.89499992E+02 -0.38489E+04
 0.89549995E+02 -0.39117E+04
 0.89599991E+02 -0.38358E+04
 0.89649994E+02 -0.36268E+04
 0.89699997E+02 -0.33378E+04
 0.89749992E+02 -0.31306E+04
 0.89799995E+02 -0.31265E+04
 0.89849991E+02 -0.32296E+04
 0.89899994E+02 -0.34189E+04
 0.89949997E+02 -0.36352E+04
 0.89999992E+02 -0.36811E+04
 0.90049995E+02 -0.35712E+04
 0.90099991E+02 -0.35841E+04
 0.90149994E+02 -0.36500E+04
 0.90199997E+02 -0.35149E+04
 0.90249992E+02 -0.33076E+04
 0.90299995E+02 -0.32309E+04
 0.90349991E+02 -0.30957E+04
 0.90399994E+02 -0.29593E+04
 0.90449997E+02 -0.29083E+04
 0.90499992E+02 -0.28064E+04
 0.90549995E+02 -0.27312E+04
 0.90599991E+02 -0.28315E+04
 0.90649994E+02 -0.30716E+04
 0.90699997E+02 -0.31154E+04
 0.90749992E+02 -0.30924E+04
 0.90799995E+02 -0.32733E+04
 0.90849991E+02 -0.33584E+04
 0.90899994E+02 -0.32964E+04
 0.90949997E+02 -0.33414E+04
 0.90999992E+02 -0.33235E+04
 0.91049995E+02 -0.31755E+04
 0.91099991E+02 -0.30681E+04
 0.91149994E+02 -0.30254E+04
 0.91199997E+02 -0.30173E+04
 0.91249992E+02 -0.30052E+04
 0.91299995E+02 -0.29983E+04
 0.91349991E+02 -0.30792E+04
 0.91399994E+02 -0.32647E+04
 0.91449997E+02 -0.34160E+04
 0.91499992E+02 -0.34212E+04
 0.91549995E+02 -0.33163E+04
 0.91599991E+02 -0.32284E+04
 0.91649994E+02 -0.32115E+04
 0.91699997E+02 -0.32118E+04
 0.91749992E+02 -0.32637E+04
 0.91799995E+02 -0.32847E+04
 0.91849991E+02 -0.31933E+04
 0.91899994E+02 -0.31645E+04
 0.91949997E+02 -0.32026E+04
 0.91999992E+02 -0.32964E+04
 0.92049995E+02 -0.33674E+04
 0.92099991E+02 -0.32958E+04
 0.92149994E+02 -0.31398E+04
 0.92199997E+02 -0.30192E+04
 0.92249992E+02 -0.29884E+04
 0.92299995E+02 -0.29649E+04
 0.92349991E+02 -0.29860E+04
 0.92399994E+02 -0.31620E+04
 0.92449997E+02 -0.33576E+04
 0.92499992E+02 -0.33481E+04
 0.92549995E+02 -0.32870E+04
 0.92599991E+02 -0.33348E+04
 0.92649994E+02 -0.34408E+04
 0.92699997E+02 -0.35052E+04
 0.92749992E+02 -0.34661E+04
 0.92799995E+02 -0.33481E+04
 0.92849991E+02 -0.32405E+04
 0.92899994E+02 -0.31874E+04
 0.92949997E+02 -0.31347E+04
 0.92999992E+02 -0.30987E+04
 0.93049995E+02 -0.29842E+04
 0.93099991E+02 -0.28102E+04
 0.93149994E+02 -0.27081E+04
 0.93199997E+02 -0.27897E+04
 0.93249992E+02 -0.29258E+04
 0.93299995E+02 -0.29890E+04
 0.93349991E+02 -0.30123E+04
 0.93399994E+02 -0.30781E+04
 0.93449997E+02 -0.32753E+04
 0.93499992E+02 -0.34266E+04
 0.93549995E+02 -0.34831E+04
 0.93599991E+02 -0.33397E+04
 0.93649994E+02 -0.31254E+04
 0.93699997E+02 -0.31107E+04
 0.93749992E+02 -0.31880E+04
 0.93799995E+02 -0.32150E+04
 0.93849991E+02 -0.32331E+04
 0.93899994E+02 -0.33552E+04
 0.93949997E+02 -0.35166E+04
 0.93999992E+02 -0.36293E+04
 0.94049995E+02 -0.35754E+04
 0.94099991E+02 -0.34117E+04
 0.94149994E+02 -0.32805E+04
 0.94199997E+02 -0.32316E+04
 0.94249992E+02 -0.32998E+04
 0.94299995E+02 -0.34675E+04
 0.94349991E+02 -0.35966E+04
 0.94399994E+02 -0.35282E+04
 0.94449997E+02 -0.34053E+04
 0.94499992E+02 -0.33088E+04
 0.94549995E+02 -0.31822E+04
 0.94599991E+02 -0.30731E+04
 0.94649994E+02 -0.30160E+04
 0.94699997E+02 -0.30711E+04
 0.94749992E+02 -0.31581E+04
 0.94799995E+02 -0.32224E+04
 0.94849991E+02 -0.32690E+04
 0.94899994E+02 -0.32406E+04
 0.94949997E+02 -0.32202E+04
 0.94999992E+02 -0.32155E+04
 0.95049995E+02 -0.32825E+04
 0.95099991E+02 -0.33223E+04
 0.95149994E+02 -0.33112E+04
 0.95199997E+02 -0.32920E+04
 0.95249992E+02 -0.32498E+04
 0.95299995E+02 -0.32004E+04
 0.95349991E+02 -0.31212E+04
 0.95399994E+02 -0.31549E+04
 0.95449997E+02 -0.32844E+04
 0.95499992E+02 -0.33810E+04
 0.95549995E+02 -0.32997E+04
 0.95599991E+02 -0.30793E+04
 0.95649994E+02 -0.29648E+04
 0.95699997E+02 -0.30087E+04
 0.95749992E+02 -0.30352E+04
 0.95799995E+02 -0.30140E+04
 0.95849991E+02 -0.30711E+04
 0.95899994E+02 -0.32428E+04
 0.95949997E+02 -0.35001E+04
 0.95999992E+02 -0.36650E+04
 0.96049995E+02 -0.36470E+04
 0.96099991E+02 -0.35518E+04
 0.96149994E+02 -0.35846E+04
 0.96199997E+02 -0.36190E+04
 0.96249992E+02 -0.35559E+04
 0.96299995E+02 -0.34897E+04
 0.96349991E+02 -0.32933E+04
 0.96399994E+02 -0.30418E+04
 0.96449997E+02 -0.28622E+04
 0.96499992E+02 -0.28285E+04
 0.96549995E+02 -0.29074E+04
 0.96599991E+02 -0.30637E+04
 0.96649994E+02 -0.32243E+04
 0.96699997E+02 -0.32790E+04
 0.96749992E+02 -0.31883E+04
 0.96799995E+02 -0.30974E+04
 0.96849991E+02 -0.31866E+04
 0.96899994E+02 -0.32830E+04
 0.96949997E+02 -0.32568E+04
 0.96999992E+02 -0.31692E+04
 0.97049995E+02 -0.31557E+04
 0.97099991E+02 -0.32188E+04
 0.97149994E+02 -0.32898E+04
 0.97199997E+02 -0.33650E+04
 0.97249992E+02 -0.33153E+04
 0.97299995E+02 -0.32037E+04
 0.97349991E+02 -0.31214E+04
 0.97399994E+02 -0.30436E+04
 0.97449997E+02 -0.29267E+04
 0.97499992E+02 -0.27700E+04
 0.97549995E+02 -0.27848E+04
 0.97599991E+02 -0.29917E+04
 0.97649994E+02 -0.32215E+04
 0.97699997E+02 -0.33831E+04
 0.97749992E+02 -0.35182E+04
 0.97799995E+02 -0.36761E+04
 0.97849991E+02 -0.37027E+04
 0.97899994E+02 -0.35310E+04
 0.97949997E+02 -0.33714E+04
 0.97999992E+02 -0.32846E+04
