-0.20000000E+01  0.59821E+04
-0.19500000E+01  0.59481E+04
-0.19000000E+01  0.59603E+04
-0.18500000E+01  0.59577E+04
-0.18000000E+01  0.59585E+04
-0.17500000E+01  0.59547E+04
-0.17000000E+01  0.59581E+04
-0.16500001E+01  0.59490E+04
-0.16000000E+01  0.59470E+04
-0.15500000E+01  0.59386E+04
-0.15000000E+01  0.59276E+04
-0.14500000E+01  0.59277E+04
-0.14000001E+01  0.59129E+04
-0.13500000E+01  0.58941E+04
-0.13000001E+01  0.58873E+04
-0.12500000E+01  0.58795E+04
-0.12000000E+01  0.58728E+04
-0.11500001E+01  0.58638E+04
-0.11000000E+01  0.58547E+04
-0.10500001E+01  0.58539E+04
-0.10000000E+01  0.58477E+04
-0.95000005E+00  0.58501E+04
-0.90000010E+00  0.58613E+04
-0.85000002E+00  0.58698E+04
-0.80000007E+00  0.58754E+04
-0.75000012E+00  0.58815E+04
-0.70000005E+00  0.58853E+04
-0.65000010E+00  0.58879E+04
-0.60000014E+00  0.58976E+04
-0.55000007E+00  0.59060E+04
-0.50000012E+00  0.59147E+04
-0.45000005E+00  0.59157E+04
-0.40000010E+00  0.59180E+04
-0.35000014E+00  0.59213E+04
-0.30000007E+00  0.59174E+04
-0.25000012E+00  0.59153E+04
-0.20000005E+00  0.59175E+04
-0.15000010E+00  0.59194E+04
-0.10000014E+00  0.59168E+04
-0.50000072E-01  0.59188E+04
-0.11920929E-06  0.59167E+04
 0.49999952E-01  0.59205E+04
 0.99999905E-01  0.59253E+04
 0.14999986E+00  0.59271E+04
 0.19999981E+00  0.59260E+04
 0.24999976E+00  0.59215E+04
 0.29999995E+00  0.59193E+04
 0.34999990E+00  0.59207E+04
 0.39999986E+00  0.59271E+04
 0.44999981E+00  0.59291E+04
 0.49999976E+00  0.59376E+04
 0.54999995E+00  0.59449E+04
 0.59999990E+00  0.59465E+04
 0.64999986E+00  0.59522E+04
 0.69999981E+00  0.59494E+04
 0.74999976E+00  0.59446E+04
 0.79999971E+00  0.59470E+04
 0.84999990E+00  0.59424E+04
 0.89999986E+00  0.59434E+04
 0.94999981E+00  0.59412E+04
 0.99999976E+00  0.59326E+04
 0.10499997E+01  0.59319E+04
 0.10999999E+01  0.59307E+04
 0.11499999E+01  0.59221E+04
 0.11999998E+01  0.59101E+04
 0.12499998E+01  0.59079E+04
 0.12999997E+01  0.59040E+04
 0.13499999E+01  0.58960E+04
 0.13999999E+01  0.58940E+04
 0.14499998E+01  0.58947E+04
 0.14999998E+01  0.58976E+04
 0.15499997E+01  0.59077E+04
 0.15999999E+01  0.59094E+04
 0.16499999E+01  0.59118E+04
 0.16999998E+01  0.59107E+04
 0.17499998E+01  0.59131E+04
 0.17999997E+01  0.59136E+04
 0.18499997E+01  0.59203E+04
 0.18999999E+01  0.59315E+04
 0.19499998E+01  0.59258E+04
 0.19999998E+01  0.59286E+04
 0.20499997E+01  0.59199E+04
 0.20999999E+01  0.59245E+04
 0.21499996E+01  0.59243E+04
 0.21999998E+01  0.59142E+04
 0.22499995E+01  0.59108E+04
 0.22999997E+01  0.59031E+04
 0.23499999E+01  0.58962E+04
 0.23999996E+01  0.58948E+04
 0.24499998E+01  0.58953E+04
 0.24999995E+01  0.58944E+04
 0.25499997E+01  0.59031E+04
 0.25999999E+01  0.58971E+04
 0.26499996E+01  0.58972E+04
 0.26999998E+01  0.59021E+04
 0.27499995E+01  0.59044E+04
 0.27999997E+01  0.59105E+04
 0.28499999E+01  0.59184E+04
 0.28999996E+01  0.59234E+04
 0.29499998E+01  0.59210E+04
 0.29999995E+01  0.59203E+04
 0.30499997E+01  0.59155E+04
 0.30999999E+01  0.59121E+04
 0.31499996E+01  0.59088E+04
 0.31999998E+01  0.59046E+04
 0.32499995E+01  0.58997E+04
 0.32999997E+01  0.59005E+04
 0.33499999E+01  0.58997E+04
 0.33999996E+01  0.59013E+04
 0.34499998E+01  0.59149E+04
 0.34999995E+01  0.59139E+04
 0.35499997E+01  0.59172E+04
 0.35999994E+01  0.59192E+04
 0.36499996E+01  0.59156E+04
 0.36999998E+01  0.59155E+04
 0.37499995E+01  0.59229E+04
 0.37999997E+01  0.59294E+04
 0.38499994E+01  0.59243E+04
 0.38999996E+01  0.59232E+04
 0.39499998E+01  0.59183E+04
 0.39999995E+01  0.59231E+04
 0.40499997E+01  0.59237E+04
 0.40999994E+01  0.59254E+04
 0.41499996E+01  0.59328E+04
 0.41999998E+01  0.59406E+04
 0.42499995E+01  0.59473E+04
 0.42999997E+01  0.59382E+04
 0.43499994E+01  0.59364E+04
 0.43999996E+01  0.59364E+04
 0.44499998E+01  0.59349E+04
 0.44999995E+01  0.59369E+04
 0.45499997E+01  0.59298E+04
 0.45999994E+01  0.59292E+04
 0.46499996E+01  0.59349E+04
 0.46999998E+01  0.59322E+04
 0.47499995E+01  0.59295E+04
 0.47999997E+01  0.59313E+04
 0.48499994E+01  0.59262E+04
 0.48999996E+01  0.59201E+04
 0.49499998E+01  0.59163E+04
 0.49999995E+01  0.59118E+04
 0.50499997E+01  0.59128E+04
 0.50999994E+01  0.59129E+04
 0.51499996E+01  0.59215E+04
 0.51999998E+01  0.59193E+04
 0.52499995E+01  0.59121E+04
 0.52999997E+01  0.59132E+04
 0.53499994E+01  0.59088E+04
 0.53999996E+01  0.59158E+04
 0.54499993E+01  0.59203E+04
 0.54999995E+01  0.59175E+04
 0.55499997E+01  0.59174E+04
 0.55999994E+01  0.59236E+04
 0.56499996E+01  0.59321E+04
 0.56999993E+01  0.59361E+04
 0.57499995E+01  0.59404E+04
 0.57999997E+01  0.59501E+04
 0.58499994E+01  0.59485E+04
 0.58999996E+01  0.59411E+04
 0.59499993E+01  0.59442E+04
 0.59999995E+01  0.59512E+04
 0.60499992E+01  0.59492E+04
 0.60999994E+01  0.59374E+04
 0.61499996E+01  0.59331E+04
 0.61999998E+01  0.59182E+04
 0.62499990E+01  0.59082E+04
 0.62999992E+01  0.59005E+04
 0.63499994E+01  0.58897E+04
 0.63999996E+01  0.58867E+04
 0.64499998E+01  0.58749E+04
 0.64999990E+01  0.58665E+04
 0.65499992E+01  0.58602E+04
 0.65999994E+01  0.58614E+04
 0.66499996E+01  0.58678E+04
 0.66999998E+01  0.58718E+04
 0.67499990E+01  0.58797E+04
 0.67999992E+01  0.58866E+04
 0.68499994E+01  0.58884E+04
 0.68999996E+01  0.58976E+04
 0.69499998E+01  0.59016E+04
 0.69999990E+01  0.59018E+04
 0.70499992E+01  0.59175E+04
 0.70999994E+01  0.59202E+04
 0.71499996E+01  0.59302E+04
 0.71999998E+01  0.59414E+04
 0.72499990E+01  0.59484E+04
 0.72999992E+01  0.59506E+04
 0.73499994E+01  0.59417E+04
 0.73999996E+01  0.59459E+04
 0.74499998E+01  0.59430E+04
 0.74999990E+01  0.59454E+04
 0.75499992E+01  0.59406E+04
 0.75999994E+01  0.59360E+04
 0.76499996E+01  0.59364E+04
 0.76999998E+01  0.59265E+04
 0.77499990E+01  0.59262E+04
 0.77999992E+01  0.59227E+04
 0.78499994E+01  0.59209E+04
 0.78999996E+01  0.59244E+04
 0.79499998E+01  0.59193E+04
 0.79999990E+01  0.59162E+04
 0.80499992E+01  0.59169E+04
 0.80999994E+01  0.59139E+04
 0.81499996E+01  0.59164E+04
 0.81999998E+01  0.59193E+04
 0.82499990E+01  0.59230E+04
 0.82999992E+01  0.59192E+04
 0.83499994E+01  0.59121E+04
 0.83999996E+01  0.59130E+04
 0.84499998E+01  0.59057E+04
 0.84999990E+01  0.59035E+04
 0.85499992E+01  0.59021E+04
 0.85999994E+01  0.59060E+04
 0.86499996E+01  0.59085E+04
 0.86999998E+01  0.59005E+04
 0.87499990E+01  0.59026E+04
 0.87999992E+01  0.59004E+04
 0.88499994E+01  0.58956E+04
 0.88999996E+01  0.58949E+04
 0.89499998E+01  0.58960E+04
 0.89999990E+01  0.58965E+04
 0.90499992E+01  0.59032E+04
 0.90999994E+01  0.59135E+04
 0.91499996E+01  0.59140E+04
 0.91999989E+01  0.59169E+04
 0.92499990E+01  0.59207E+04
 0.92999992E+01  0.59209E+04
 0.93499994E+01  0.59201E+04
 0.93999996E+01  0.59203E+04
 0.94499989E+01  0.59253E+04
 0.94999990E+01  0.59280E+04
 0.95499992E+01  0.59332E+04
 0.95999994E+01  0.59382E+04
 0.96499996E+01  0.59371E+04
 0.96999989E+01  0.59325E+04
 0.97499990E+01  0.59338E+04
 0.97999992E+01  0.59419E+04
 0.98499994E+01  0.59400E+04
 0.98999996E+01  0.59388E+04
 0.99499989E+01  0.59379E+04
 0.99999990E+01  0.59308E+04
 0.10049999E+02  0.59233E+04
 0.10099999E+02  0.59198E+04
 0.10150000E+02  0.59130E+04
 0.10199999E+02  0.59095E+04
 0.10249999E+02  0.59040E+04
 0.10299999E+02  0.58922E+04
 0.10349999E+02  0.58876E+04
 0.10400000E+02  0.58837E+04
 0.10449999E+02  0.58866E+04
 0.10499999E+02  0.58892E+04
 0.10549999E+02  0.58923E+04
 0.10599999E+02  0.58979E+04
 0.10650000E+02  0.58979E+04
 0.10699999E+02  0.59011E+04
 0.10749999E+02  0.59051E+04
 0.10799999E+02  0.59035E+04
 0.10849999E+02  0.59034E+04
 0.10900000E+02  0.59035E+04
 0.10949999E+02  0.59089E+04
 0.10999999E+02  0.59135E+04
 0.11049999E+02  0.59152E+04
 0.11099999E+02  0.59123E+04
 0.11150000E+02  0.59172E+04
 0.11199999E+02  0.59267E+04
 0.11249999E+02  0.59267E+04
 0.11299999E+02  0.59301E+04
 0.11349999E+02  0.59230E+04
 0.11400000E+02  0.59209E+04
 0.11449999E+02  0.59218E+04
 0.11499999E+02  0.59151E+04
 0.11549999E+02  0.59163E+04
 0.11599999E+02  0.59129E+04
 0.11650000E+02  0.59124E+04
 0.11699999E+02  0.59141E+04
 0.11749999E+02  0.59158E+04
 0.11799999E+02  0.59136E+04
 0.11849999E+02  0.59114E+04
 0.11900000E+02  0.59139E+04
 0.11949999E+02  0.59185E+04
 0.11999999E+02  0.59295E+04
 0.12049999E+02  0.59345E+04
 0.12099999E+02  0.59481E+04
 0.12150000E+02  0.59476E+04
 0.12199999E+02  0.59519E+04
 0.12249999E+02  0.59588E+04
 0.12299999E+02  0.59579E+04
 0.12349999E+02  0.59625E+04
 0.12400000E+02  0.59498E+04
 0.12449999E+02  0.59473E+04
 0.12499999E+02  0.59419E+04
 0.12549999E+02  0.59368E+04
 0.12599999E+02  0.59325E+04
 0.12649999E+02  0.59190E+04
 0.12699999E+02  0.59145E+04
 0.12749999E+02  0.59087E+04
 0.12799999E+02  0.59064E+04
 0.12849999E+02  0.59042E+04
 0.12899999E+02  0.59009E+04
 0.12949999E+02  0.59088E+04
 0.12999999E+02  0.59119E+04
 0.13049999E+02  0.59108E+04
 0.13099999E+02  0.59128E+04
 0.13149999E+02  0.59129E+04
 0.13199999E+02  0.59102E+04
 0.13249999E+02  0.59051E+04
 0.13299999E+02  0.58994E+04
 0.13349999E+02  0.58909E+04
 0.13399999E+02  0.58843E+04
 0.13449999E+02  0.58795E+04
 0.13499999E+02  0.58736E+04
 0.13549999E+02  0.58665E+04
 0.13599999E+02  0.58642E+04
 0.13649999E+02  0.58614E+04
 0.13699999E+02  0.58665E+04
 0.13749999E+02  0.58705E+04
 0.13799999E+02  0.58768E+04
 0.13849999E+02  0.58911E+04
 0.13899999E+02  0.58980E+04
 0.13949999E+02  0.59102E+04
 0.13999999E+02  0.59161E+04
 0.14049999E+02  0.59244E+04
 0.14099998E+02  0.59328E+04
 0.14150000E+02  0.59370E+04
 0.14199999E+02  0.59389E+04
 0.14249998E+02  0.59431E+04
 0.14299999E+02  0.59491E+04
 0.14349998E+02  0.59465E+04
 0.14400000E+02  0.59513E+04
 0.14449999E+02  0.59537E+04
 0.14499998E+02  0.59525E+04
 0.14549999E+02  0.59541E+04
 0.14599998E+02  0.59456E+04
 0.14650000E+02  0.59394E+04
 0.14699999E+02  0.59372E+04
 0.14749998E+02  0.59361E+04
 0.14799999E+02  0.59355E+04
 0.14849998E+02  0.59321E+04
 0.14900000E+02  0.59249E+04
 0.14949999E+02  0.59171E+04
 0.14999998E+02  0.59102E+04
 0.15049999E+02  0.59041E+04
 0.15099998E+02  0.59022E+04
 0.15150000E+02  0.58983E+04
 0.15199999E+02  0.58928E+04
 0.15249998E+02  0.58974E+04
 0.15299999E+02  0.58982E+04
 0.15349998E+02  0.58942E+04
 0.15400000E+02  0.58931E+04
 0.15449999E+02  0.58886E+04
 0.15499998E+02  0.58919E+04
 0.15549999E+02  0.58917E+04
 0.15599998E+02  0.58977E+04
 0.15650000E+02  0.59060E+04
 0.15699999E+02  0.59073E+04
 0.15749998E+02  0.59134E+04
 0.15799999E+02  0.59212E+04
 0.15849998E+02  0.59239E+04
 0.15900000E+02  0.59281E+04
 0.15949999E+02  0.59310E+04
 0.15999998E+02  0.59325E+04
 0.16049999E+02  0.59334E+04
 0.16099998E+02  0.59348E+04
 0.16150000E+02  0.59319E+04
 0.16199999E+02  0.59332E+04
 0.16249998E+02  0.59344E+04
 0.16299999E+02  0.59318E+04
 0.16349998E+02  0.59335E+04
 0.16400000E+02  0.59288E+04
 0.16449999E+02  0.59301E+04
 0.16499998E+02  0.59280E+04
 0.16549999E+02  0.59250E+04
 0.16599998E+02  0.59200E+04
 0.16650000E+02  0.59143E+04
 0.16699999E+02  0.59144E+04
 0.16749998E+02  0.59115E+04
 0.16799999E+02  0.59081E+04
 0.16849998E+02  0.59044E+04
 0.16900000E+02  0.58992E+04
 0.16949999E+02  0.58950E+04
 0.16999998E+02  0.58888E+04
 0.17049999E+02  0.58866E+04
 0.17099998E+02  0.58866E+04
 0.17150000E+02  0.58859E+04
 0.17199999E+02  0.58851E+04
 0.17249998E+02  0.58844E+04
 0.17299999E+02  0.58868E+04
 0.17349998E+02  0.58873E+04
 0.17400000E+02  0.58923E+04
 0.17449999E+02  0.58948E+04
 0.17499998E+02  0.58979E+04
 0.17549999E+02  0.59010E+04
 0.17599998E+02  0.59050E+04
 0.17650000E+02  0.59066E+04
 0.17699999E+02  0.59132E+04
 0.17749998E+02  0.59146E+04
 0.17799999E+02  0.59131E+04
 0.17849998E+02  0.59185E+04
 0.17900000E+02  0.59154E+04
 0.17949999E+02  0.59202E+04
 0.17999998E+02  0.59155E+04
 0.18049999E+02  0.59229E+04
 0.18099998E+02  0.59274E+04
 0.18150000E+02  0.59244E+04
 0.18199999E+02  0.59292E+04
 0.18249998E+02  0.59317E+04
 0.18299999E+02  0.59394E+04
 0.18349998E+02  0.59415E+04
 0.18400000E+02  0.59410E+04
 0.18449999E+02  0.59328E+04
 0.18499998E+02  0.59352E+04
 0.18549999E+02  0.59362E+04
 0.18599998E+02  0.59372E+04
 0.18650000E+02  0.59401E+04
 0.18699999E+02  0.59383E+04
 0.18749998E+02  0.59329E+04
 0.18799999E+02  0.59281E+04
 0.18849998E+02  0.59308E+04
 0.18900000E+02  0.59275E+04
 0.18949999E+02  0.59284E+04
 0.18999998E+02  0.59242E+04
 0.19049999E+02  0.59215E+04
 0.19099998E+02  0.59182E+04
 0.19150000E+02  0.59113E+04
 0.19199999E+02  0.59021E+04
 0.19249998E+02  0.58943E+04
 0.19299999E+02  0.58866E+04
 0.19349998E+02  0.58778E+04
 0.19400000E+02  0.58806E+04
 0.19449999E+02  0.58772E+04
 0.19499998E+02  0.58810E+04
 0.19549999E+02  0.58807E+04
 0.19599998E+02  0.58855E+04
 0.19650000E+02  0.58965E+04
 0.19699999E+02  0.58989E+04
 0.19749998E+02  0.59047E+04
 0.19799999E+02  0.59096E+04
 0.19849998E+02  0.59078E+04
 0.19900000E+02  0.59054E+04
 0.19949999E+02  0.59079E+04
 0.19999998E+02  0.59091E+04
 0.20049999E+02  0.59115E+04
 0.20099998E+02  0.59139E+04
 0.20150000E+02  0.59170E+04
 0.20199999E+02  0.59173E+04
 0.20249998E+02  0.59172E+04
 0.20299999E+02  0.59178E+04
 0.20349998E+02  0.59202E+04
 0.20399998E+02  0.59133E+04
 0.20449999E+02  0.59152E+04
 0.20499998E+02  0.59107E+04
 0.20549999E+02  0.59089E+04
 0.20599998E+02  0.59101E+04
 0.20649998E+02  0.59112E+04
 0.20699999E+02  0.59219E+04
 0.20749998E+02  0.59220E+04
 0.20799999E+02  0.59340E+04
 0.20849998E+02  0.59331E+04
 0.20899998E+02  0.59340E+04
 0.20949999E+02  0.59349E+04
 0.20999998E+02  0.59341E+04
 0.21049999E+02  0.59336E+04
 0.21099998E+02  0.59309E+04
 0.21149998E+02  0.59333E+04
 0.21199999E+02  0.59270E+04
 0.21249998E+02  0.59262E+04
 0.21299999E+02  0.59148E+04
 0.21349998E+02  0.59094E+04
 0.21399998E+02  0.59091E+04
 0.21449999E+02  0.59085E+04
 0.21499998E+02  0.59128E+04
 0.21549999E+02  0.59066E+04
 0.21599998E+02  0.59091E+04
 0.21649998E+02  0.59059E+04
 0.21699999E+02  0.59019E+04
 0.21749998E+02  0.59002E+04
 0.21799999E+02  0.58953E+04
 0.21849998E+02  0.58940E+04
 0.21899998E+02  0.58916E+04
 0.21949999E+02  0.58905E+04
 0.21999998E+02  0.58890E+04
 0.22049999E+02  0.58910E+04
 0.22099998E+02  0.58945E+04
 0.22149998E+02  0.59001E+04
 0.22199999E+02  0.59021E+04
 0.22249998E+02  0.59052E+04
 0.22299999E+02  0.59160E+04
 0.22349998E+02  0.59209E+04
 0.22399998E+02  0.59262E+04
 0.22449999E+02  0.59380E+04
 0.22499998E+02  0.59475E+04
 0.22549999E+02  0.59311E+04
 0.22599998E+02  0.59331E+04
 0.22649998E+02  0.59470E+04
 0.22699999E+02  0.59560E+04
 0.22749998E+02  0.59607E+04
 0.22799999E+02  0.59372E+04
 0.22849998E+02  0.59496E+04
 0.22899998E+02  0.59469E+04
 0.22949999E+02  0.59750E+04
 0.22999998E+02  0.59538E+04
 0.23049999E+02  0.59409E+04
 0.23099998E+02  0.59509E+04
 0.23149998E+02  0.59333E+04
 0.23199999E+02  0.59722E+04
 0.23249998E+02  0.59418E+04
 0.23299999E+02  0.58996E+04
 0.23349998E+02  0.58936E+04
 0.23399998E+02  0.59033E+04
 0.23449999E+02  0.59228E+04
 0.23499998E+02  0.59212E+04
 0.23549999E+02  0.58073E+04
 0.23599998E+02  0.57633E+04
 0.23649998E+02  0.57294E+04
 0.23699999E+02  0.56384E+04
 0.23749998E+02  0.56472E+04
 0.23799999E+02  0.57466E+04
 0.23849998E+02  0.58831E+04
 0.23899998E+02  0.59637E+04
 0.23949999E+02  0.59362E+04
 0.23999998E+02  0.59483E+04
 0.24049999E+02  0.60964E+04
 0.24099998E+02  0.60304E+04
 0.24149998E+02  0.58134E+04
 0.24199999E+02  0.56893E+04
 0.24249998E+02  0.55583E+04
 0.24299999E+02  0.54359E+04
 0.24349998E+02  0.55084E+04
 0.24399998E+02  0.57387E+04
 0.24449999E+02  0.60848E+04
 0.24499998E+02  0.66770E+04
 0.24549999E+02  0.70053E+04
 0.24599998E+02  0.69512E+04
 0.24649998E+02  0.67160E+04
 0.24699999E+02  0.62919E+04
 0.24749998E+02  0.60035E+04
 0.24799999E+02  0.56146E+04
 0.24849998E+02  0.54539E+04
 0.24899998E+02  0.54936E+04
 0.24949999E+02  0.55322E+04
 0.24999998E+02  0.50655E+04
 0.25049999E+02  0.51249E+04
 0.25099998E+02  0.57881E+04
 0.25149998E+02  0.57959E+04
 0.25199999E+02  0.59978E+04
 0.25249998E+02  0.64204E+04
 0.25299999E+02  0.60279E+04
 0.25349998E+02  0.53037E+04
 0.25399998E+02  0.55981E+04
 0.25449999E+02  0.60582E+04
 0.25499998E+02  0.57186E+04
 0.25549999E+02  0.54648E+04
 0.25599998E+02  0.60756E+04
 0.25649998E+02  0.63936E+04
 0.25699999E+02  0.58104E+04
 0.25749998E+02  0.59819E+04
 0.25799999E+02  0.61149E+04
 0.25849998E+02  0.55837E+04
 0.25899998E+02  0.61470E+04
 0.25949999E+02  0.65122E+04
 0.25999998E+02  0.63350E+04
 0.26049999E+02  0.61741E+04
 0.26099998E+02  0.56003E+04
 0.26149998E+02  0.64350E+04
 0.26199999E+02  0.74472E+04
 0.26249998E+02  0.66153E+04
 0.26299999E+02  0.67589E+04
 0.26349998E+02  0.60935E+04
 0.26399998E+02  0.53356E+04
 0.26449999E+02  0.47428E+04
 0.26499998E+02  0.43548E+04
 0.26549999E+02  0.45330E+04
 0.26599998E+02  0.39337E+04
 0.26649998E+02  0.50555E+04
 0.26699999E+02  0.57930E+04
 0.26749998E+02  0.66287E+04
 0.26799999E+02  0.73939E+04
 0.26849998E+02  0.62667E+04
 0.26899998E+02  0.49935E+04
 0.26949999E+02  0.63492E+04
 0.26999998E+02  0.76567E+04
 0.27049997E+02  0.67511E+04
 0.27099998E+02  0.65560E+04
 0.27149998E+02  0.50911E+04
 0.27199999E+02  0.49242E+04
 0.27249998E+02  0.55925E+04
 0.27299997E+02  0.66246E+04
 0.27349998E+02  0.75105E+04
 0.27399998E+02  0.57194E+04
 0.27449999E+02  0.54164E+04
 0.27499998E+02  0.56130E+04
 0.27549997E+02  0.56732E+04
 0.27599998E+02  0.64362E+04
 0.27649998E+02  0.65651E+04
 0.27699999E+02  0.55477E+04
 0.27749998E+02  0.54742E+04
 0.27799997E+02  0.64044E+04
 0.27849998E+02  0.58769E+04
 0.27899998E+02  0.54491E+04
 0.27949999E+02  0.55431E+04
 0.27999998E+02  0.63220E+04
 0.28049997E+02  0.64610E+04
 0.28099998E+02  0.63418E+04
 0.28149998E+02  0.53052E+04
 0.28199999E+02  0.34689E+04
 0.28249998E+02  0.54426E+04
 0.28299997E+02  0.65803E+04
 0.28349998E+02  0.61916E+04
 0.28399998E+02  0.65027E+04
 0.28449999E+02  0.70498E+04
 0.28499998E+02  0.65683E+04
 0.28549997E+02  0.66530E+04
 0.28599998E+02  0.66765E+04
 0.28649998E+02  0.50196E+04
 0.28699999E+02  0.55734E+04
 0.28749998E+02  0.58942E+04
 0.28799997E+02  0.58269E+04
 0.28849998E+02  0.43316E+04
 0.28899998E+02  0.43010E+04
 0.28949999E+02  0.63062E+04
 0.28999998E+02  0.58918E+04
 0.29049997E+02  0.76246E+04
 0.29099998E+02  0.79280E+04
 0.29149998E+02  0.50719E+04
 0.29199999E+02  0.37958E+04
 0.29249998E+02  0.60574E+04
 0.29299997E+02  0.78761E+04
 0.29349998E+02  0.66400E+04
 0.29399998E+02  0.54447E+04
 0.29449999E+02  0.55156E+04
 0.29499998E+02  0.61064E+04
 0.29549997E+02  0.57344E+04
 0.29599998E+02  0.63002E+04
 0.29649998E+02  0.54557E+04
 0.29699999E+02  0.46859E+04
 0.29749998E+02  0.36147E+04
 0.29799997E+02  0.39899E+04
 0.29849998E+02  0.68240E+04
 0.29899998E+02  0.67145E+04
 0.29949999E+02  0.63109E+04
 0.29999998E+02  0.75802E+04
 0.30049999E+02  0.71212E+04
 0.30099998E+02  0.59988E+04
 0.30149998E+02  0.81385E+04
 0.30199997E+02  0.58921E+04
 0.30249996E+02  0.47900E+04
 0.30299999E+02  0.64368E+04
 0.30349998E+02  0.60782E+04
 0.30399998E+02  0.37862E+04
 0.30449997E+02  0.30654E+04
 0.30499996E+02  0.45201E+04
 0.30549999E+02  0.48270E+04
 0.30599998E+02  0.63687E+04
 0.30649998E+02  0.65809E+04
 0.30699997E+02  0.66927E+04
 0.30749996E+02  0.62631E+04
 0.30799999E+02  0.70450E+04
 0.30849998E+02  0.75698E+04
 0.30899998E+02  0.90122E+04
 0.30949997E+02  0.65545E+04
 0.30999996E+02  0.45502E+04
 0.31049999E+02  0.50264E+04
 0.31099998E+02  0.37555E+04
 0.31149998E+02  0.47571E+04
 0.31199997E+02  0.66268E+04
 0.31249996E+02  0.82342E+04
 0.31299999E+02  0.68357E+04
 0.31349998E+02  0.43643E+04
 0.31399998E+02  0.40606E+04
 0.31449997E+02  0.55353E+04
 0.31499996E+02  0.57501E+04
 0.31549999E+02  0.70170E+04
 0.31599998E+02  0.69513E+04
 0.31649998E+02  0.61800E+04
 0.31699997E+02  0.59467E+04
 0.31749996E+02  0.47848E+04
 0.31799999E+02  0.59845E+04
 0.31849998E+02  0.52417E+04
 0.31899998E+02  0.43197E+04
 0.31949997E+02  0.68487E+04
 0.31999996E+02  0.71054E+04
 0.32049999E+02  0.63762E+04
 0.32099998E+02  0.56204E+04
 0.32149998E+02  0.34997E+04
 0.32199997E+02  0.34015E+04
 0.32249996E+02  0.70388E+04
 0.32299999E+02  0.93489E+04
 0.32349998E+02  0.68690E+04
 0.32399998E+02  0.60354E+04
 0.32449997E+02  0.80135E+04
 0.32499996E+02  0.66445E+04
 0.32549999E+02  0.50450E+04
 0.32599998E+02  0.57106E+04
 0.32649998E+02  0.53272E+04
 0.32699997E+02  0.58419E+04
 0.32749996E+02  0.61454E+04
 0.32799999E+02  0.45441E+04
 0.32849998E+02  0.48175E+04
 0.32899998E+02  0.60834E+04
 0.32949997E+02  0.62104E+04
 0.32999996E+02  0.50453E+04
 0.33049999E+02  0.54128E+04
 0.33099998E+02  0.70502E+04
 0.33149998E+02  0.52571E+04
 0.33199997E+02  0.59417E+04
 0.33249996E+02  0.75214E+04
 0.33299999E+02  0.69449E+04
 0.33349998E+02  0.57218E+04
 0.33399998E+02  0.37341E+04
 0.33449997E+02  0.44909E+04
 0.33499996E+02  0.64316E+04
 0.33549999E+02  0.74010E+04
 0.33599998E+02  0.64853E+04
 0.33649998E+02  0.45229E+04
 0.33699997E+02  0.53733E+04
 0.33749996E+02  0.72095E+04
 0.33799999E+02  0.67842E+04
 0.33849998E+02  0.61540E+04
 0.33899998E+02  0.57888E+04
 0.33949997E+02  0.50050E+04
 0.33999996E+02  0.49783E+04
 0.34049999E+02  0.61417E+04
 0.34099998E+02  0.65412E+04
 0.34149998E+02  0.71070E+04
 0.34199997E+02  0.60865E+04
 0.34249996E+02  0.51867E+04
 0.34299999E+02  0.50595E+04
 0.34349998E+02  0.50867E+04
 0.34399998E+02  0.65403E+04
 0.34449997E+02  0.68861E+04
 0.34499996E+02  0.66948E+04
 0.34549999E+02  0.60378E+04
 0.34599998E+02  0.48969E+04
 0.34649998E+02  0.54536E+04
 0.34699997E+02  0.59122E+04
 0.34749996E+02  0.50003E+04
 0.34799999E+02  0.55927E+04
 0.34849998E+02  0.63740E+04
 0.34899998E+02  0.60768E+04
 0.34949997E+02  0.53545E+04
 0.34999996E+02  0.62224E+04
 0.35049999E+02  0.73462E+04
 0.35099998E+02  0.58299E+04
 0.35149998E+02  0.42201E+04
 0.35199997E+02  0.52654E+04
 0.35249996E+02  0.61067E+04
 0.35299999E+02  0.71566E+04
 0.35349998E+02  0.79968E+04
 0.35399998E+02  0.66498E+04
 0.35449997E+02  0.40775E+04
 0.35499996E+02  0.37200E+04
 0.35549999E+02  0.61253E+04
 0.35599998E+02  0.51782E+04
 0.35649998E+02  0.47384E+04
 0.35699997E+02  0.59768E+04
 0.35749996E+02  0.69269E+04
 0.35799999E+02  0.76902E+04
 0.35849998E+02  0.77635E+04
 0.35899998E+02  0.75808E+04
 0.35949997E+02  0.54630E+04
 0.35999996E+02  0.51673E+04
 0.36049999E+02  0.54456E+04
 0.36099998E+02  0.38946E+04
 0.36149998E+02  0.44798E+04
 0.36199997E+02  0.66383E+04
 0.36249996E+02  0.61413E+04
 0.36299999E+02  0.58397E+04
 0.36349998E+02  0.71779E+04
 0.36399998E+02  0.77005E+04
 0.36449997E+02  0.71190E+04
 0.36499996E+02  0.51845E+04
 0.36549999E+02  0.43410E+04
 0.36599998E+02  0.58369E+04
 0.36649998E+02  0.67953E+04
 0.36699997E+02  0.57864E+04
 0.36749996E+02  0.56400E+04
 0.36799999E+02  0.56161E+04
 0.36849998E+02  0.56138E+04
 0.36899998E+02  0.56709E+04
 0.36949997E+02  0.56121E+04
 0.36999996E+02  0.63479E+04
 0.37049999E+02  0.59941E+04
 0.37099998E+02  0.56755E+04
 0.37149998E+02  0.51978E+04
 0.37199997E+02  0.50575E+04
 0.37249996E+02  0.59558E+04
 0.37299999E+02  0.63370E+04
 0.37349998E+02  0.66991E+04
 0.37399998E+02  0.64748E+04
 0.37449997E+02  0.58255E+04
 0.37499996E+02  0.62007E+04
 0.37549999E+02  0.62299E+04
 0.37599998E+02  0.58830E+04
 0.37649998E+02  0.75397E+04
 0.37699997E+02  0.67756E+04
 0.37749996E+02  0.45315E+04
 0.37799999E+02  0.37251E+04
 0.37849998E+02  0.39057E+04
 0.37899998E+02  0.53209E+04
 0.37949997E+02  0.54153E+04
 0.37999996E+02  0.57346E+04
 0.38049999E+02  0.59890E+04
 0.38099998E+02  0.67017E+04
 0.38149998E+02  0.61666E+04
 0.38199997E+02  0.62556E+04
 0.38249996E+02  0.85639E+04
 0.38299999E+02  0.81513E+04
 0.38349998E+02  0.73759E+04
 0.38399998E+02  0.69657E+04
 0.38449997E+02  0.62182E+04
 0.38499996E+02  0.50425E+04
 0.38549999E+02  0.52714E+04
 0.38599998E+02  0.55452E+04
 0.38649998E+02  0.47737E+04
 0.38699997E+02  0.51133E+04
 0.38749996E+02  0.56212E+04
 0.38799999E+02  0.55952E+04
 0.38849998E+02  0.48113E+04
 0.38899998E+02  0.52889E+04
 0.38949997E+02  0.61693E+04
 0.38999996E+02  0.61156E+04
 0.39049999E+02  0.60163E+04
 0.39099998E+02  0.66615E+04
 0.39149998E+02  0.66837E+04
 0.39199997E+02  0.70849E+04
 0.39249996E+02  0.57846E+04
 0.39299999E+02  0.43289E+04
 0.39349998E+02  0.43687E+04
 0.39399998E+02  0.43383E+04
 0.39449997E+02  0.59127E+04
 0.39499996E+02  0.69475E+04
 0.39549999E+02  0.74544E+04
 0.39599998E+02  0.53741E+04
 0.39649998E+02  0.42329E+04
 0.39699997E+02  0.44246E+04
 0.39749996E+02  0.57435E+04
 0.39799999E+02  0.75346E+04
 0.39849998E+02  0.77414E+04
 0.39899998E+02  0.73325E+04
 0.39949997E+02  0.44497E+04
 0.39999996E+02  0.39648E+04
 0.40049999E+02  0.51834E+04
 0.40099998E+02  0.59258E+04
 0.40149998E+02  0.68242E+04
 0.40199997E+02  0.72731E+04
 0.40249996E+02  0.76198E+04
 0.40299999E+02  0.87297E+04
 0.40349998E+02  0.85669E+04
 0.40399998E+02  0.45338E+04
 0.40449997E+02  0.18486E+04
 0.40499996E+02  0.29219E+04
 0.40549999E+02  0.42804E+04
 0.40599998E+02  0.50423E+04
 0.40649998E+02  0.70782E+04
 0.40699997E+02  0.85707E+04
 0.40749996E+02  0.75348E+04
 0.40799999E+02  0.59545E+04
 0.40849998E+02  0.53154E+04
 0.40899998E+02  0.52083E+04
 0.40949997E+02  0.39485E+04
 0.40999996E+02  0.19886E+04
 0.41049999E+02  0.15224E+04
 0.41099998E+02  0.36063E+04
 0.41149998E+02  0.64454E+04
 0.41199997E+02  0.87508E+04
 0.41249996E+02  0.10901E+05
 0.41299999E+02  0.99567E+04
 0.41349998E+02  0.76864E+04
 0.41399998E+02  0.48364E+04
 0.41449997E+02  0.14805E+04
 0.41499996E+02  0.17831E+04
 0.41549999E+02  0.20432E+04
 0.41599998E+02  0.27402E+04
 0.41649998E+02  0.65374E+04
 0.41699997E+02  0.10735E+05
 0.41749996E+02  0.13693E+05
 0.41799999E+02  0.12704E+05
 0.41849998E+02  0.76982E+04
 0.41899998E+02  0.43634E+04
 0.41949997E+02  0.42186E+04
 0.41999996E+02  0.31552E+04
 0.42049999E+02  0.31641E+04
 0.42099998E+02  0.44846E+04
 0.42149998E+02  0.63735E+04
 0.42199997E+02  0.94571E+04
 0.42249996E+02  0.94538E+04
 0.42299999E+02  0.71021E+04
 0.42349998E+02  0.36521E+04
 0.42399998E+02  0.17071E+04
 0.42449997E+02  0.31136E+04
 0.42499996E+02  0.48130E+04
 0.42549999E+02  0.80540E+04
 0.42599998E+02  0.10713E+05
 0.42649998E+02  0.98707E+04
 0.42699997E+02  0.11287E+05
 0.42749996E+02  0.12701E+05
 0.42799995E+02  0.99491E+04
 0.42849998E+02  0.71305E+04
 0.42899998E+02  0.40072E+04
 0.42949997E+02  0.99508E+03
 0.42999996E+02 -0.59786E+03
 0.43049995E+02 -0.13765E+04
 0.43099998E+02  0.28231E+03
 0.43149998E+02  0.57512E+04
 0.43199997E+02  0.11916E+05
 0.43249996E+02  0.11679E+05
 0.43299995E+02  0.19737E+04
 0.43349998E+02 -0.52389E+04
 0.43399998E+02 -0.19137E+04
 0.43449997E+02  0.46721E+04
 0.43499996E+02  0.83462E+04
 0.43549995E+02  0.97159E+04
 0.43599998E+02  0.88666E+04
 0.43649998E+02  0.58846E+04
 0.43699997E+02  0.51306E+04
 0.43749996E+02  0.49523E+04
 0.43799995E+02  0.73205E+04
 0.43849998E+02  0.12807E+05
 0.43899998E+02  0.10394E+05
 0.43949997E+02  0.30263E+04
 0.43999996E+02  0.10149E+04
 0.44049995E+02  0.25316E+04
 0.44099998E+02  0.52973E+04
 0.44149998E+02  0.83800E+04
 0.44199997E+02  0.11026E+05
 0.44249996E+02  0.10966E+05
 0.44299995E+02  0.95108E+04
 0.44349998E+02  0.56091E+04
 0.44399998E+02  0.18949E+04
 0.44449997E+02  0.44413E+04
 0.44499996E+02  0.78788E+04
 0.44549995E+02  0.64842E+04
 0.44599998E+02  0.28022E+04
 0.44649998E+02  0.43346E+04
 0.44699997E+02  0.39564E+04
 0.44749996E+02 -0.18390E+04
 0.44799995E+02  0.95150E+03
 0.44849998E+02  0.82609E+04
 0.44899998E+02  0.85569E+04
 0.44949997E+02  0.85710E+04
 0.44999996E+02  0.67859E+04
 0.45049995E+02  0.53431E+04
 0.45099998E+02  0.49761E+04
 0.45149998E+02  0.47180E+04
 0.45199997E+02  0.64548E+04
 0.45249996E+02  0.48733E+04
 0.45299995E+02  0.61541E+04
 0.45349998E+02  0.11287E+05
 0.45399998E+02  0.11903E+05
 0.45449997E+02  0.82704E+04
 0.45499996E+02  0.60447E+04
 0.45549995E+02  0.27628E+04
 0.45599998E+02  0.25846E+04
 0.45649998E+02  0.40728E+04
 0.45699997E+02  0.55471E+04
 0.45749996E+02  0.68029E+04
 0.45799995E+02  0.66071E+04
 0.45849998E+02  0.88480E+04
 0.45899998E+02  0.88878E+04
 0.45949997E+02  0.86352E+04
 0.45999996E+02  0.78210E+04
 0.46049995E+02  0.47502E+04
 0.46099998E+02  0.38685E+04
 0.46149998E+02  0.50155E+04
 0.46199997E+02  0.43473E+04
 0.46249996E+02  0.42751E+04
 0.46299995E+02  0.58951E+04
 0.46349998E+02  0.75048E+04
 0.46399998E+02  0.58615E+04
 0.46449997E+02  0.35845E+04
 0.46499996E+02  0.44820E+04
 0.46549995E+02  0.54730E+04
 0.46599998E+02  0.85164E+04
 0.46649998E+02  0.98556E+04
 0.46699997E+02  0.74817E+04
 0.46749996E+02  0.71232E+04
 0.46799995E+02  0.88309E+04
 0.46849998E+02  0.39368E+04
 0.46899998E+02 -0.61950E+03
 0.46949997E+02  0.26609E+04
 0.46999996E+02  0.77882E+04
 0.47049995E+02  0.11143E+05
 0.47099998E+02  0.63187E+04
 0.47149998E+02  0.29013E+04
 0.47199997E+02  0.32881E+04
 0.47249996E+02  0.45724E+04
 0.47299995E+02  0.81995E+04
 0.47349998E+02  0.78659E+04
 0.47399998E+02  0.38893E+04
 0.47449997E+02  0.33560E+04
 0.47499996E+02  0.55334E+04
 0.47549995E+02  0.62329E+04
 0.47599998E+02  0.85221E+04
 0.47649998E+02  0.10050E+05
 0.47699997E+02  0.97593E+04
 0.47749996E+02  0.76800E+04
 0.47799995E+02  0.44962E+04
 0.47849998E+02  0.32236E+04
 0.47899998E+02  0.40113E+04
 0.47949997E+02  0.39605E+04
 0.47999996E+02  0.57314E+04
 0.48049995E+02  0.94305E+04
 0.48099998E+02  0.71405E+04
 0.48149998E+02  0.20694E+04
 0.48199997E+02  0.12635E+04
 0.48249996E+02  0.50377E+04
 0.48299995E+02  0.10128E+05
 0.48349998E+02  0.10680E+05
 0.48399998E+02  0.66395E+04
 0.48449997E+02  0.20224E+04
 0.48499996E+02  0.20370E+04
 0.48549995E+02  0.61408E+04
 0.48599998E+02  0.76870E+04
 0.48649998E+02  0.65341E+04
 0.48699997E+02  0.74311E+04
 0.48749996E+02  0.87844E+04
 0.48799995E+02  0.66301E+04
 0.48849998E+02  0.51449E+04
 0.48899998E+02  0.56797E+04
 0.48949997E+02  0.66628E+04
 0.48999996E+02  0.64099E+04
 0.49049995E+02  0.52229E+04
 0.49099998E+02  0.56859E+04
 0.49149998E+02  0.57631E+04
 0.49199997E+02  0.39649E+04
 0.49249996E+02  0.26678E+04
 0.49299995E+02  0.34196E+04
 0.49349998E+02  0.68302E+04
 0.49399998E+02  0.81304E+04
 0.49449997E+02  0.57980E+04
 0.49499996E+02  0.37918E+04
 0.49549995E+02  0.40019E+04
 0.49599998E+02  0.74378E+04
 0.49649998E+02  0.95935E+04
 0.49699997E+02  0.75382E+04
 0.49749996E+02  0.52288E+04
 0.49799995E+02  0.51757E+04
 0.49849998E+02  0.51811E+04
 0.49899998E+02  0.44809E+04
 0.49949997E+02  0.39579E+04
 0.49999996E+02  0.33619E+04
 0.50049995E+02  0.24125E+04
 0.50099998E+02  0.41424E+04
 0.50149998E+02  0.86517E+04
 0.50199997E+02  0.98997E+04
 0.50249996E+02  0.76653E+04
 0.50299995E+02  0.58300E+04
 0.50349998E+02  0.51966E+04
 0.50399998E+02  0.51143E+04
 0.50449997E+02  0.58061E+04
 0.50499996E+02  0.65324E+04
 0.50549995E+02  0.58936E+04
 0.50599998E+02  0.54928E+04
 0.50649998E+02  0.41376E+04
 0.50699997E+02  0.51004E+04
 0.50749996E+02  0.63893E+04
 0.50799995E+02  0.45816E+04
 0.50849998E+02  0.56222E+04
 0.50899998E+02  0.67919E+04
 0.50949997E+02  0.61437E+04
 0.50999996E+02  0.63837E+04
 0.51049995E+02  0.58826E+04
 0.51099998E+02  0.51244E+04
 0.51149998E+02  0.58243E+04
 0.51199997E+02  0.61466E+04
 0.51249996E+02  0.60544E+04
 0.51299995E+02  0.62122E+04
 0.51349998E+02  0.83460E+04
 0.51399998E+02  0.10704E+05
 0.51449997E+02  0.11151E+05
 0.51499996E+02  0.79314E+04
 0.51549995E+02  0.27132E+04
 0.51599998E+02  0.16116E+04
 0.51649998E+02  0.18452E+04
 0.51699997E+02  0.16614E+04
 0.51749996E+02  0.25992E+04
 0.51799995E+02  0.31922E+04
 0.51849998E+02  0.30769E+04
 0.51899998E+02  0.47219E+04
 0.51949997E+02  0.70524E+04
 0.51999996E+02  0.84519E+04
 0.52049995E+02  0.88744E+04
 0.52099998E+02  0.77114E+04
 0.52149998E+02  0.75441E+04
 0.52199997E+02  0.78114E+04
 0.52249996E+02  0.84411E+04
 0.52299995E+02  0.88424E+04
 0.52349998E+02  0.66797E+04
 0.52399998E+02  0.46619E+04
 0.52449997E+02  0.38762E+04
 0.52499996E+02  0.47704E+04
 0.52549995E+02  0.63365E+04
 0.52599998E+02  0.58498E+04
 0.52649998E+02  0.38564E+04
 0.52699997E+02  0.42210E+04
 0.52749996E+02  0.64850E+04
 0.52799995E+02  0.60488E+04
 0.52849998E+02  0.45262E+04
 0.52899998E+02  0.41721E+04
 0.52949997E+02  0.39348E+04
 0.52999996E+02  0.56246E+04
 0.53049995E+02  0.73433E+04
 0.53099998E+02  0.69203E+04
 0.53149998E+02  0.60278E+04
 0.53199997E+02  0.53692E+04
 0.53249996E+02  0.58793E+04
 0.53299995E+02  0.67075E+04
 0.53349998E+02  0.69956E+04
 0.53399998E+02  0.62581E+04
 0.53449997E+02  0.54522E+04
 0.53499996E+02  0.52550E+04
 0.53549995E+02  0.59449E+04
 0.53599998E+02  0.52146E+04
 0.53649998E+02  0.47811E+04
 0.53699997E+02  0.63885E+04
 0.53749996E+02  0.74483E+04
 0.53799995E+02  0.86317E+04
 0.53849998E+02  0.98645E+04
 0.53899998E+02  0.95626E+04
 0.53949997E+02  0.78213E+04
 0.53999996E+02  0.59756E+04
 0.54049995E+02  0.49306E+04
 0.54099998E+02  0.44163E+04
 0.54149998E+02  0.39545E+04
 0.54199997E+02  0.56465E+04
 0.54249996E+02  0.73161E+04
 0.54299995E+02  0.74550E+04
 0.54349998E+02  0.61321E+04
 0.54399998E+02  0.57301E+04
 0.54449997E+02  0.62588E+04
 0.54499996E+02  0.52222E+04
 0.54549995E+02  0.54738E+04
 0.54599998E+02  0.54311E+04
 0.54649998E+02  0.39541E+04
 0.54699997E+02  0.31903E+04
 0.54749996E+02  0.36931E+04
 0.54799995E+02  0.33237E+04
 0.54849998E+02  0.42315E+04
 0.54899998E+02  0.71063E+04
 0.54949997E+02  0.83208E+04
 0.54999996E+02  0.78694E+04
 0.55049995E+02  0.53625E+04
 0.55099998E+02  0.34780E+04
 0.55149998E+02  0.40678E+04
 0.55199997E+02  0.54585E+04
 0.55249996E+02  0.67193E+04
 0.55299995E+02  0.74110E+04
 0.55349998E+02  0.75793E+04
 0.55399998E+02  0.60899E+04
 0.55449997E+02  0.50624E+04
 0.55499996E+02  0.62407E+04
 0.55549995E+02  0.62209E+04
 0.55599998E+02  0.57785E+04
 0.55649998E+02  0.66630E+04
 0.55699997E+02  0.75540E+04
 0.55749996E+02  0.74641E+04
 0.55799995E+02  0.71474E+04
 0.55849995E+02  0.70024E+04
 0.55899998E+02  0.64878E+04
 0.55949997E+02  0.62516E+04
 0.55999996E+02  0.61794E+04
 0.56049995E+02  0.52300E+04
 0.56099995E+02  0.53325E+04
 0.56149998E+02  0.72902E+04
 0.56199997E+02  0.75741E+04
 0.56249996E+02  0.67843E+04
 0.56299995E+02  0.65619E+04
 0.56349995E+02  0.59197E+04
 0.56399998E+02  0.52285E+04
 0.56449997E+02  0.40617E+04
 0.56499996E+02  0.36256E+04
 0.56549995E+02  0.47177E+04
 0.56599995E+02  0.54556E+04
 0.56649998E+02  0.58979E+04
 0.56699997E+02  0.68665E+04
 0.56749996E+02  0.83730E+04
 0.56799995E+02  0.81561E+04
 0.56849995E+02  0.63444E+04
 0.56899998E+02  0.52306E+04
 0.56949997E+02  0.46694E+04
 0.56999996E+02  0.32180E+04
 0.57049995E+02  0.22338E+04
 0.57099995E+02  0.35351E+04
 0.57149998E+02  0.54742E+04
 0.57199997E+02  0.60318E+04
 0.57249996E+02  0.53450E+04
 0.57299995E+02  0.48786E+04
 0.57349995E+02  0.56630E+04
 0.57399998E+02  0.77669E+04
 0.57449997E+02  0.90301E+04
 0.57499996E+02  0.79989E+04
 0.57549995E+02  0.65792E+04
 0.57599995E+02  0.52997E+04
 0.57649998E+02  0.49858E+04
 0.57699997E+02  0.61973E+04
 0.57749996E+02  0.74182E+04
 0.57799995E+02  0.77548E+04
 0.57849995E+02  0.67587E+04
 0.57899998E+02  0.59364E+04
 0.57949997E+02  0.62126E+04
 0.57999996E+02  0.62805E+04
 0.58049995E+02  0.49331E+04
 0.58099995E+02  0.40583E+04
 0.58149998E+02  0.43501E+04
 0.58199997E+02  0.55788E+04
 0.58249996E+02  0.67132E+04
 0.58299995E+02  0.68846E+04
 0.58349995E+02  0.65139E+04
 0.58399998E+02  0.66493E+04
 0.58449997E+02  0.66627E+04
 0.58499996E+02  0.55592E+04
 0.58549995E+02  0.54363E+04
 0.58599995E+02  0.56237E+04
 0.58649998E+02  0.57335E+04
 0.58699997E+02  0.55004E+04
 0.58749996E+02  0.48753E+04
 0.58799995E+02  0.42391E+04
 0.58849995E+02  0.34303E+04
 0.58899998E+02  0.30678E+04
 0.58949997E+02  0.40516E+04
 0.58999996E+02  0.59136E+04
 0.59049995E+02  0.72189E+04
 0.59099995E+02  0.78353E+04
 0.59149998E+02  0.72056E+04
 0.59199997E+02  0.65451E+04
 0.59249996E+02  0.64704E+04
 0.59299995E+02  0.57370E+04
 0.59349995E+02  0.60910E+04
 0.59399998E+02  0.70576E+04
 0.59449997E+02  0.69319E+04
 0.59499996E+02  0.67908E+04
 0.59549995E+02  0.67898E+04
 0.59599995E+02  0.64242E+04
 0.59649998E+02  0.55837E+04
 0.59699997E+02  0.47093E+04
 0.59749996E+02  0.50579E+04
 0.59799995E+02  0.59793E+04
 0.59849995E+02  0.55661E+04
 0.59899998E+02  0.48340E+04
 0.59949997E+02  0.47643E+04
 0.59999996E+02  0.57537E+04
 0.60049995E+02  0.68830E+04
 0.60099995E+02  0.70104E+04
 0.60149998E+02  0.69489E+04
 0.60199997E+02  0.63954E+04
 0.60249996E+02  0.55433E+04
 0.60299995E+02  0.46954E+04
 0.60349995E+02  0.45618E+04
 0.60399998E+02  0.50080E+04
 0.60449997E+02  0.57539E+04
 0.60499996E+02  0.73876E+04
 0.60549995E+02  0.81738E+04
 0.60599995E+02  0.75361E+04
 0.60649998E+02  0.67569E+04
 0.60699997E+02  0.61956E+04
 0.60749996E+02  0.53829E+04
 0.60799995E+02  0.47643E+04
 0.60849995E+02  0.46890E+04
 0.60899998E+02  0.52660E+04
 0.60949997E+02  0.56195E+04
 0.60999996E+02  0.51760E+04
 0.61049995E+02  0.52885E+04
 0.61099995E+02  0.59796E+04
 0.61149998E+02  0.64937E+04
 0.61199997E+02  0.62567E+04
 0.61249996E+02  0.52303E+04
 0.61299995E+02  0.44963E+04
 0.61349995E+02  0.48854E+04
 0.61399998E+02  0.56540E+04
 0.61449997E+02  0.59305E+04
 0.61499996E+02  0.63204E+04
 0.61549995E+02  0.65014E+04
 0.61599995E+02  0.61390E+04
 0.61649998E+02  0.56114E+04
 0.61699997E+02  0.57081E+04
 0.61749996E+02  0.63135E+04
 0.61799995E+02  0.66520E+04
 0.61849995E+02  0.70848E+04
 0.61899998E+02  0.72935E+04
 0.61949997E+02  0.66522E+04
 0.61999996E+02  0.59018E+04
 0.62049995E+02  0.56904E+04
 0.62099998E+02  0.51395E+04
 0.62149994E+02  0.47707E+04
 0.62199997E+02  0.51644E+04
 0.62249992E+02  0.53090E+04
 0.62299995E+02  0.45261E+04
 0.62349998E+02  0.41163E+04
 0.62399994E+02  0.45409E+04
 0.62449997E+02  0.55878E+04
 0.62499992E+02  0.69450E+04
 0.62549995E+02  0.78950E+04
 0.62599998E+02  0.85606E+04
 0.62649994E+02  0.83421E+04
 0.62699997E+02  0.76887E+04
 0.62749992E+02  0.72497E+04
 0.62799995E+02  0.68271E+04
 0.62849998E+02  0.65135E+04
 0.62899994E+02  0.57806E+04
 0.62949997E+02  0.46750E+04
 0.62999992E+02  0.40474E+04
 0.63049995E+02  0.44090E+04
 0.63099998E+02  0.56533E+04
 0.63149994E+02  0.66364E+04
 0.63199997E+02  0.70151E+04
 0.63249992E+02  0.70825E+04
 0.63299995E+02  0.66750E+04
 0.63349998E+02  0.59078E+04
 0.63399994E+02  0.57863E+04
 0.63449997E+02  0.62140E+04
 0.63499992E+02  0.59007E+04
 0.63549995E+02  0.57710E+04
 0.63599998E+02  0.62637E+04
 0.63649994E+02  0.60282E+04
 0.63699997E+02  0.52861E+04
 0.63749992E+02  0.51459E+04
 0.63799995E+02  0.55606E+04
 0.63849998E+02  0.55838E+04
 0.63899994E+02  0.50387E+04
 0.63949997E+02  0.48438E+04
 0.63999992E+02  0.48648E+04
 0.64049995E+02  0.51840E+04
 0.64099998E+02  0.54139E+04
 0.64149994E+02  0.52993E+04
 0.64199997E+02  0.56066E+04
 0.64249992E+02  0.58640E+04
 0.64299995E+02  0.55969E+04
 0.64349998E+02  0.49725E+04
 0.64399994E+02  0.46601E+04
 0.64449997E+02  0.45647E+04
 0.64499992E+02  0.49136E+04
 0.64549995E+02  0.54475E+04
 0.64599998E+02  0.58000E+04
 0.64649994E+02  0.59375E+04
 0.64699997E+02  0.57751E+04
 0.64749992E+02  0.58523E+04
 0.64799995E+02  0.61053E+04
 0.64849998E+02  0.60969E+04
 0.64899994E+02  0.59674E+04
 0.64949997E+02  0.60056E+04
 0.64999992E+02  0.61467E+04
 0.65049995E+02  0.62228E+04
 0.65099998E+02  0.66578E+04
 0.65149994E+02  0.74622E+04
 0.65199997E+02  0.80917E+04
 0.65249992E+02  0.81856E+04
 0.65299995E+02  0.75425E+04
 0.65349998E+02  0.71113E+04
 0.65399994E+02  0.67352E+04
 0.65449997E+02  0.63184E+04
 0.65499992E+02  0.60871E+04
 0.65549995E+02  0.60567E+04
 0.65599998E+02  0.56576E+04
 0.65649994E+02  0.53911E+04
 0.65699997E+02  0.57907E+04
 0.65749992E+02  0.57700E+04
 0.65799995E+02  0.58081E+04
 0.65849998E+02  0.59884E+04
 0.65899994E+02  0.63195E+04
 0.65949997E+02  0.68661E+04
 0.65999992E+02  0.74006E+04
 0.66049995E+02  0.73227E+04
 0.66099998E+02  0.63243E+04
 0.66149994E+02  0.53025E+04
 0.66199997E+02  0.52557E+04
 0.66249992E+02  0.56415E+04
 0.66299995E+02  0.61479E+04
 0.66349998E+02  0.66326E+04
 0.66399994E+02  0.62411E+04
 0.66449997E+02  0.56087E+04
 0.66499992E+02  0.54373E+04
 0.66549995E+02  0.59622E+04
 0.66599998E+02  0.60067E+04
 0.66649994E+02  0.54220E+04
 0.66699997E+02  0.50255E+04
 0.66749992E+02  0.52227E+04
 0.66799995E+02  0.53755E+04
 0.66849998E+02  0.53549E+04
 0.66899994E+02  0.57221E+04
 0.66949997E+02  0.57864E+04
 0.66999992E+02  0.58161E+04
 0.67049995E+02  0.56345E+04
 0.67099998E+02  0.54122E+04
 0.67149994E+02  0.52504E+04
 0.67199997E+02  0.48505E+04
 0.67249992E+02  0.48714E+04
 0.67299995E+02  0.52180E+04
 0.67349998E+02  0.50772E+04
 0.67399994E+02  0.48473E+04
 0.67449997E+02  0.46056E+04
 0.67499992E+02  0.45238E+04
 0.67549995E+02  0.49203E+04
 0.67599998E+02  0.54188E+04
 0.67649994E+02  0.58811E+04
 0.67699997E+02  0.59104E+04
 0.67749992E+02  0.59462E+04
 0.67799995E+02  0.61874E+04
 0.67849998E+02  0.64097E+04
 0.67899994E+02  0.64472E+04
 0.67949997E+02  0.65467E+04
 0.67999992E+02  0.65716E+04
 0.68049995E+02  0.66115E+04
 0.68099998E+02  0.66688E+04
 0.68149994E+02  0.62759E+04
 0.68199997E+02  0.60087E+04
 0.68249992E+02  0.63115E+04
 0.68299995E+02  0.64535E+04
 0.68349998E+02  0.61563E+04
 0.68399994E+02  0.63986E+04
 0.68449997E+02  0.63506E+04
 0.68499992E+02  0.56536E+04
 0.68549995E+02  0.50920E+04
 0.68599998E+02  0.50657E+04
 0.68649994E+02  0.53085E+04
 0.68699997E+02  0.54688E+04
 0.68749992E+02  0.55968E+04
 0.68799995E+02  0.59325E+04
 0.68849998E+02  0.65506E+04
 0.68899994E+02  0.66733E+04
 0.68949997E+02  0.68331E+04
 0.68999992E+02  0.71818E+04
 0.69049995E+02  0.72643E+04
 0.69099998E+02  0.72436E+04
 0.69149994E+02  0.70339E+04
 0.69199997E+02  0.68676E+04
 0.69249992E+02  0.67547E+04
 0.69299995E+02  0.66155E+04
 0.69349998E+02  0.66920E+04
 0.69399994E+02  0.65823E+04
 0.69449997E+02  0.62603E+04
 0.69499992E+02  0.60674E+04
 0.69549995E+02  0.56754E+04
 0.69599998E+02  0.53462E+04
 0.69649994E+02  0.53054E+04
 0.69699997E+02  0.52477E+04
 0.69749992E+02  0.51856E+04
 0.69799995E+02  0.50484E+04
 0.69849998E+02  0.48764E+04
 0.69899994E+02  0.50345E+04
 0.69949997E+02  0.52488E+04
 0.69999992E+02  0.52322E+04
 0.70049995E+02  0.52473E+04
 0.70099998E+02  0.53014E+04
 0.70149994E+02  0.53543E+04
 0.70199997E+02  0.54118E+04
 0.70249992E+02  0.54261E+04
 0.70299995E+02  0.57222E+04
 0.70349998E+02  0.62171E+04
 0.70399994E+02  0.64593E+04
 0.70449997E+02  0.66944E+04
 0.70499992E+02  0.67682E+04
 0.70549995E+02  0.64435E+04
 0.70599998E+02  0.63879E+04
 0.70649994E+02  0.66163E+04
 0.70699997E+02  0.64876E+04
 0.70749992E+02  0.62331E+04
 0.70799995E+02  0.62279E+04
 0.70849998E+02  0.62555E+04
 0.70899994E+02  0.59320E+04
 0.70949997E+02  0.54145E+04
 0.70999992E+02  0.52043E+04
 0.71049995E+02  0.53496E+04
 0.71099998E+02  0.54301E+04
 0.71149994E+02  0.54129E+04
 0.71199997E+02  0.52682E+04
 0.71249992E+02  0.49145E+04
 0.71299995E+02  0.47292E+04
 0.71349998E+02  0.48885E+04
 0.71399994E+02  0.55681E+04
 0.71449997E+02  0.62778E+04
 0.71499992E+02  0.65435E+04
 0.71549995E+02  0.64483E+04
 0.71599998E+02  0.63007E+04
 0.71649994E+02  0.63622E+04
 0.71699997E+02  0.60668E+04
 0.71749992E+02  0.54285E+04
 0.71799995E+02  0.49950E+04
 0.71849998E+02  0.49029E+04
 0.71899994E+02  0.48949E+04
 0.71949997E+02  0.49559E+04
 0.71999992E+02  0.53122E+04
 0.72049995E+02  0.55498E+04
 0.72099998E+02  0.58890E+04
 0.72149994E+02  0.64823E+04
 0.72199997E+02  0.67852E+04
 0.72249992E+02  0.66728E+04
 0.72299995E+02  0.66764E+04
 0.72349998E+02  0.68086E+04
 0.72399994E+02  0.65182E+04
 0.72449997E+02  0.60173E+04
 0.72499992E+02  0.53958E+04
 0.72549995E+02  0.49512E+04
 0.72599998E+02  0.49600E+04
 0.72649994E+02  0.53001E+04
 0.72699997E+02  0.59057E+04
 0.72749992E+02  0.65202E+04
 0.72799995E+02  0.68324E+04
 0.72849998E+02  0.67544E+04
 0.72899994E+02  0.67773E+04
 0.72949997E+02  0.67941E+04
 0.72999992E+02  0.65507E+04
 0.73049995E+02  0.62322E+04
 0.73099998E+02  0.60962E+04
 0.73149994E+02  0.60701E+04
 0.73199997E+02  0.58255E+04
 0.73249992E+02  0.57151E+04
 0.73299995E+02  0.56886E+04
 0.73349998E+02  0.56272E+04
 0.73399994E+02  0.59013E+04
 0.73449997E+02  0.62289E+04
 0.73499992E+02  0.61479E+04
 0.73549995E+02  0.61207E+04
 0.73599998E+02  0.64743E+04
 0.73649994E+02  0.67573E+04
 0.73699997E+02  0.64904E+04
 0.73749992E+02  0.58329E+04
 0.73799995E+02  0.55273E+04
 0.73849998E+02  0.57614E+04
 0.73899994E+02  0.59578E+04
 0.73949997E+02  0.59156E+04
 0.73999992E+02  0.62410E+04
 0.74049995E+02  0.67286E+04
 0.74099998E+02  0.66830E+04
 0.74149994E+02  0.62999E+04
 0.74199997E+02  0.58651E+04
 0.74249992E+02  0.56820E+04
 0.74299995E+02  0.57355E+04
 0.74349998E+02  0.59212E+04
 0.74399994E+02  0.58731E+04
 0.74449997E+02  0.56485E+04
 0.74499992E+02  0.56264E+04
 0.74549995E+02  0.55124E+04
 0.74599998E+02  0.54170E+04
 0.74649994E+02  0.53758E+04
 0.74699997E+02  0.54146E+04
 0.74749992E+02  0.55539E+04
 0.74799995E+02  0.56408E+04
 0.74849998E+02  0.54555E+04
 0.74899994E+02  0.53295E+04
 0.74949997E+02  0.55846E+04
 0.74999992E+02  0.59539E+04
 0.75049995E+02  0.63757E+04
 0.75099998E+02  0.63219E+04
 0.75149994E+02  0.59257E+04
 0.75199997E+02  0.57454E+04
 0.75249992E+02  0.55571E+04
 0.75299995E+02  0.52716E+04
 0.75349998E+02  0.50961E+04
 0.75399994E+02  0.52634E+04
 0.75449997E+02  0.55841E+04
 0.75499992E+02  0.57517E+04
 0.75549995E+02  0.57041E+04
 0.75599998E+02  0.57737E+04
 0.75649994E+02  0.60173E+04
 0.75699997E+02  0.63007E+04
 0.75749992E+02  0.64029E+04
 0.75799995E+02  0.61690E+04
 0.75849998E+02  0.60274E+04
 0.75899994E+02  0.58470E+04
 0.75949997E+02  0.56350E+04
 0.75999992E+02  0.55450E+04
 0.76049995E+02  0.54864E+04
 0.76099998E+02  0.56331E+04
 0.76149994E+02  0.59601E+04
 0.76199997E+02  0.62922E+04
 0.76249992E+02  0.64859E+04
 0.76299995E+02  0.64385E+04
 0.76349998E+02  0.61816E+04
 0.76399994E+02  0.60573E+04
 0.76449997E+02  0.59935E+04
 0.76499992E+02  0.58763E+04
 0.76549995E+02  0.56813E+04
 0.76599998E+02  0.54919E+04
 0.76649994E+02  0.54901E+04
 0.76699997E+02  0.54825E+04
 0.76749992E+02  0.54112E+04
 0.76799995E+02  0.53434E+04
 0.76849998E+02  0.55672E+04
 0.76899994E+02  0.58528E+04
 0.76949997E+02  0.60695E+04
 0.76999992E+02  0.61586E+04
 0.77049995E+02  0.62239E+04
 0.77099998E+02  0.65836E+04
 0.77149994E+02  0.68498E+04
 0.77199997E+02  0.68864E+04
 0.77249992E+02  0.67030E+04
 0.77299995E+02  0.64767E+04
 0.77349998E+02  0.62507E+04
 0.77399994E+02  0.61199E+04
 0.77449997E+02  0.62416E+04
 0.77499992E+02  0.63797E+04
 0.77549995E+02  0.61713E+04
 0.77599998E+02  0.56684E+04
 0.77649994E+02  0.51372E+04
 0.77699997E+02  0.49703E+04
 0.77749992E+02  0.53019E+04
 0.77799995E+02  0.55530E+04
 0.77849998E+02  0.57806E+04
 0.77899994E+02  0.58729E+04
 0.77949997E+02  0.57659E+04
 0.77999992E+02  0.57768E+04
 0.78049995E+02  0.60561E+04
 0.78099998E+02  0.64216E+04
 0.78149994E+02  0.63207E+04
 0.78199997E+02  0.60183E+04
 0.78249992E+02  0.57924E+04
 0.78299995E+02  0.58638E+04
 0.78349998E+02  0.62666E+04
 0.78399994E+02  0.65566E+04
 0.78449997E+02  0.66272E+04
 0.78499992E+02  0.63930E+04
 0.78549995E+02  0.61188E+04
 0.78599998E+02  0.60234E+04
 0.78649994E+02  0.59965E+04
 0.78699997E+02  0.60303E+04
 0.78749992E+02  0.60820E+04
 0.78799995E+02  0.61653E+04
 0.78849998E+02  0.62588E+04
 0.78899994E+02  0.60846E+04
 0.78949997E+02  0.58172E+04
 0.78999992E+02  0.56266E+04
 0.79049995E+02  0.55583E+04
 0.79099998E+02  0.54932E+04
 0.79149994E+02  0.53361E+04
 0.79199997E+02  0.53470E+04
 0.79249992E+02  0.53030E+04
 0.79299995E+02  0.53057E+04
 0.79349998E+02  0.53810E+04
 0.79399994E+02  0.52122E+04
 0.79449997E+02  0.48559E+04
 0.79499992E+02  0.47998E+04
 0.79549995E+02  0.52984E+04
 0.79599998E+02  0.58587E+04
 0.79649994E+02  0.61250E+04
 0.79699997E+02  0.63166E+04
 0.79749992E+02  0.64801E+04
 0.79799995E+02  0.62763E+04
 0.79849998E+02  0.57019E+04
 0.79899994E+02  0.54430E+04
 0.79949997E+02  0.56125E+04
 0.79999992E+02  0.57676E+04
 0.80049995E+02  0.59122E+04
 0.80099998E+02  0.59516E+04
 0.80149994E+02  0.59591E+04
 0.80199997E+02  0.60409E+04
 0.80249992E+02  0.62809E+04
 0.80299995E+02  0.64940E+04
 0.80349998E+02  0.66590E+04
 0.80399994E+02  0.65835E+04
 0.80449997E+02  0.64253E+04
 0.80499992E+02  0.65441E+04
 0.80549995E+02  0.64132E+04
 0.80599998E+02  0.61151E+04
 0.80649994E+02  0.60453E+04
 0.80699997E+02  0.61213E+04
 0.80749992E+02  0.61151E+04
 0.80799995E+02  0.61520E+04
 0.80849998E+02  0.60055E+04
 0.80899994E+02  0.56520E+04
 0.80949997E+02  0.54945E+04
 0.80999992E+02  0.55782E+04
 0.81049995E+02  0.56109E+04
 0.81099998E+02  0.56498E+04
 0.81149994E+02  0.57411E+04
 0.81199997E+02  0.57260E+04
 0.81249992E+02  0.58354E+04
 0.81299995E+02  0.60802E+04
 0.81349998E+02  0.63236E+04
 0.81399994E+02  0.63555E+04
 0.81449997E+02  0.61280E+04
 0.81499992E+02  0.59915E+04
 0.81549995E+02  0.60511E+04
 0.81599998E+02  0.60836E+04
 0.81649994E+02  0.59951E+04
 0.81699997E+02  0.58539E+04
 0.81749992E+02  0.57355E+04
 0.81799995E+02  0.55706E+04
 0.81849998E+02  0.55984E+04
 0.81899994E+02  0.58390E+04
 0.81949997E+02  0.60082E+04
 0.81999992E+02  0.60597E+04
 0.82049995E+02  0.58316E+04
 0.82099998E+02  0.54928E+04
 0.82149994E+02  0.54256E+04
 0.82199997E+02  0.56211E+04
 0.82249992E+02  0.58274E+04
 0.82299995E+02  0.58295E+04
 0.82349998E+02  0.57075E+04
 0.82399994E+02  0.55478E+04
 0.82449997E+02  0.54413E+04
 0.82499992E+02  0.55359E+04
 0.82549995E+02  0.57078E+04
 0.82599998E+02  0.59187E+04
 0.82649994E+02  0.61306E+04
 0.82699997E+02  0.62139E+04
 0.82749992E+02  0.62686E+04
 0.82799995E+02  0.64430E+04
 0.82849998E+02  0.66621E+04
 0.82899994E+02  0.66517E+04
 0.82949997E+02  0.64156E+04
 0.82999992E+02  0.62681E+04
 0.83049995E+02  0.60916E+04
 0.83099998E+02  0.58231E+04
 0.83149994E+02  0.56784E+04
 0.83199997E+02  0.57019E+04
 0.83249992E+02  0.58678E+04
 0.83299995E+02  0.59142E+04
 0.83349998E+02  0.58490E+04
 0.83399994E+02  0.58021E+04
 0.83449997E+02  0.57319E+04
 0.83499992E+02  0.57760E+04
 0.83549995E+02  0.58982E+04
 0.83599998E+02  0.57755E+04
 0.83649994E+02  0.55887E+04
 0.83699997E+02  0.56551E+04
 0.83749992E+02  0.57654E+04
 0.83799995E+02  0.59693E+04
 0.83849998E+02  0.62017E+04
 0.83899994E+02  0.63020E+04
 0.83949997E+02  0.62016E+04
 0.83999992E+02  0.59506E+04
 0.84049995E+02  0.57513E+04
 0.84099998E+02  0.55691E+04
 0.84149994E+02  0.54584E+04
 0.84199997E+02  0.53693E+04
 0.84249992E+02  0.53030E+04
 0.84299995E+02  0.54395E+04
 0.84349998E+02  0.58096E+04
 0.84399994E+02  0.59700E+04
 0.84449997E+02  0.59051E+04
 0.84499992E+02  0.60763E+04
 0.84549995E+02  0.62699E+04
 0.84599998E+02  0.62622E+04
 0.84649994E+02  0.62376E+04
 0.84699997E+02  0.62189E+04
 0.84749992E+02  0.62586E+04
 0.84799995E+02  0.63336E+04
 0.84849998E+02  0.61866E+04
 0.84899994E+02  0.60425E+04
 0.84949997E+02  0.60965E+04
 0.84999992E+02  0.61525E+04
 0.85049995E+02  0.63084E+04
 0.85099998E+02  0.65684E+04
 0.85149994E+02  0.66202E+04
 0.85199997E+02  0.64417E+04
 0.85249992E+02  0.61423E+04
 0.85299995E+02  0.58003E+04
 0.85349998E+02  0.55787E+04
 0.85399994E+02  0.56116E+04
 0.85449997E+02  0.56686E+04
 0.85499992E+02  0.56344E+04
 0.85549995E+02  0.55558E+04
 0.85599998E+02  0.53952E+04
 0.85649994E+02  0.53602E+04
 0.85699997E+02  0.54169E+04
 0.85749992E+02  0.54002E+04
 0.85799995E+02  0.53240E+04
 0.85849998E+02  0.52470E+04
 0.85899994E+02  0.52583E+04
 0.85949997E+02  0.53060E+04
 0.85999992E+02  0.53928E+04
 0.86049995E+02  0.56801E+04
 0.86099998E+02  0.60544E+04
 0.86149994E+02  0.63722E+04
 0.86199997E+02  0.65500E+04
 0.86249992E+02  0.64933E+04
 0.86299995E+02  0.63389E+04
 0.86349998E+02  0.62198E+04
 0.86399994E+02  0.60906E+04
 0.86449997E+02  0.59012E+04
 0.86499992E+02  0.57346E+04
 0.86549995E+02  0.56001E+04
 0.86599998E+02  0.55554E+04
 0.86649994E+02  0.57577E+04
 0.86699997E+02  0.59926E+04
 0.86749992E+02  0.59727E+04
 0.86799995E+02  0.58278E+04
 0.86849998E+02  0.58394E+04
 0.86899994E+02  0.58253E+04
 0.86949997E+02  0.58041E+04
 0.86999992E+02  0.60438E+04
 0.87049995E+02  0.63344E+04
 0.87099998E+02  0.65534E+04
 0.87149994E+02  0.65938E+04
 0.87199997E+02  0.63730E+04
 0.87249992E+02  0.61387E+04
 0.87299995E+02  0.60348E+04
 0.87349998E+02  0.58838E+04
 0.87399994E+02  0.55942E+04
 0.87449997E+02  0.53933E+04
 0.87499992E+02  0.54365E+04
 0.87549995E+02  0.55841E+04
 0.87599991E+02  0.57474E+04
 0.87649994E+02  0.59934E+04
 0.87699997E+02  0.61930E+04
 0.87749992E+02  0.62271E+04
 0.87799995E+02  0.61786E+04
 0.87849991E+02  0.60221E+04
 0.87899994E+02  0.58820E+04
 0.87949997E+02  0.60051E+04
 0.87999992E+02  0.62427E+04
 0.88049995E+02  0.63378E+04
 0.88099991E+02  0.63320E+04
 0.88149994E+02  0.62506E+04
 0.88199997E+02  0.61165E+04
 0.88249992E+02  0.60433E+04
 0.88299995E+02  0.59188E+04
 0.88349991E+02  0.57138E+04
 0.88399994E+02  0.55812E+04
 0.88449997E+02  0.56621E+04
 0.88499992E+02  0.58278E+04
 0.88549995E+02  0.58595E+04
 0.88599991E+02  0.57993E+04
 0.88649994E+02  0.56368E+04
 0.88699997E+02  0.55583E+04
 0.88749992E+02  0.53973E+04
 0.88799995E+02  0.51649E+04
 0.88849991E+02  0.52055E+04
 0.88899994E+02  0.54270E+04
 0.88949997E+02  0.56877E+04
 0.88999992E+02  0.58639E+04
 0.89049995E+02  0.59129E+04
 0.89099991E+02  0.58872E+04
 0.89149994E+02  0.58524E+04
 0.89199997E+02  0.57391E+04
 0.89249992E+02  0.56728E+04
 0.89299995E+02  0.57619E+04
 0.89349991E+02  0.57978E+04
 0.89399994E+02  0.57929E+04
 0.89449997E+02  0.58075E+04
 0.89499992E+02  0.58042E+04
 0.89549995E+02  0.59384E+04
 0.89599991E+02  0.59644E+04
 0.89649994E+02  0.58084E+04
 0.89699997E+02  0.58383E+04
 0.89749992E+02  0.59683E+04
 0.89799995E+02  0.60020E+04
 0.89849991E+02  0.60179E+04
 0.89899994E+02  0.61305E+04
 0.89949997E+02  0.62912E+04
 0.89999992E+02  0.63513E+04
 0.90049995E+02  0.63627E+04
 0.90099991E+02  0.63864E+04
 0.90149994E+02  0.64083E+04
 0.90199997E+02  0.64051E+04
 0.90249992E+02  0.63330E+04
 0.90299995E+02  0.62448E+04
 0.90349991E+02  0.61442E+04
 0.90399994E+02  0.61186E+04
 0.90449997E+02  0.61597E+04
 0.90499992E+02  0.61421E+04
 0.90549995E+02  0.59458E+04
 0.90599991E+02  0.56518E+04
 0.90649994E+02  0.55581E+04
 0.90699997E+02  0.56767E+04
 0.90749992E+02  0.58543E+04
 0.90799995E+02  0.60089E+04
 0.90849991E+02  0.61436E+04
 0.90899994E+02  0.61968E+04
 0.90949997E+02  0.61566E+04
 0.90999992E+02  0.61139E+04
 0.91049995E+02  0.60848E+04
 0.91099991E+02  0.60180E+04
 0.91149994E+02  0.58419E+04
 0.91199997E+02  0.57532E+04
 0.91249992E+02  0.58475E+04
 0.91299995E+02  0.58821E+04
 0.91349991E+02  0.56736E+04
 0.91399994E+02  0.53111E+04
 0.91449997E+02  0.51458E+04
 0.91499992E+02  0.52012E+04
 0.91549995E+02  0.52120E+04
 0.91599991E+02  0.52525E+04
 0.91649994E+02  0.54438E+04
 0.91699997E+02  0.57335E+04
 0.91749992E+02  0.59347E+04
 0.91799995E+02  0.59513E+04
 0.91849991E+02  0.58651E+04
 0.91899994E+02  0.57651E+04
 0.91949997E+02  0.57665E+04
 0.91999992E+02  0.58558E+04
 0.92049995E+02  0.58793E+04
 0.92099991E+02  0.57995E+04
 0.92149994E+02  0.57707E+04
 0.92199997E+02  0.57785E+04
 0.92249992E+02  0.57943E+04
 0.92299995E+02  0.58484E+04
 0.92349991E+02  0.59450E+04
 0.92399994E+02  0.61209E+04
 0.92449997E+02  0.62878E+04
 0.92499992E+02  0.63822E+04
 0.92549995E+02  0.63727E+04
 0.92599991E+02  0.63726E+04
 0.92649994E+02  0.64641E+04
 0.92699997E+02  0.64976E+04
 0.92749992E+02  0.64435E+04
 0.92799995E+02  0.63437E+04
 0.92849991E+02  0.62382E+04
 0.92899994E+02  0.61790E+04
 0.92949997E+02  0.61189E+04
 0.92999992E+02  0.59670E+04
 0.93049995E+02  0.57815E+04
 0.93099991E+02  0.57582E+04
 0.93149994E+02  0.58744E+04
 0.93199997E+02  0.59824E+04
 0.93249992E+02  0.60092E+04
 0.93299995E+02  0.59951E+04
 0.93349991E+02  0.60574E+04
 0.93399994E+02  0.60958E+04
 0.93449997E+02  0.60396E+04
 0.93499992E+02  0.59668E+04
 0.93549995E+02  0.59502E+04
 0.93599991E+02  0.60288E+04
 0.93649994E+02  0.61026E+04
 0.93699997E+02  0.61199E+04
 0.93749992E+02  0.61097E+04
 0.93799995E+02  0.60741E+04
 0.93849991E+02  0.60635E+04
 0.93899994E+02  0.60994E+04
 0.93949997E+02  0.60867E+04
 0.93999992E+02  0.60527E+04
 0.94049995E+02  0.61107E+04
 0.94099991E+02  0.60227E+04
 0.94149994E+02  0.57495E+04
 0.94199997E+02  0.55721E+04
 0.94249992E+02  0.54911E+04
 0.94299995E+02  0.53529E+04
 0.94349991E+02  0.52041E+04
 0.94399994E+02  0.52245E+04
 0.94449997E+02  0.53942E+04
 0.94499992E+02  0.55546E+04
 0.94549995E+02  0.55958E+04
 0.94599991E+02  0.55658E+04
 0.94649994E+02  0.55170E+04
 0.94699997E+02  0.54710E+04
 0.94749992E+02  0.54708E+04
 0.94799995E+02  0.55674E+04
 0.94849991E+02  0.56606E+04
 0.94899994E+02  0.57353E+04
 0.94949997E+02  0.58817E+04
 0.94999992E+02  0.60115E+04
 0.95049995E+02  0.59577E+04
 0.95099991E+02  0.57032E+04
 0.95149994E+02  0.55153E+04
 0.95199997E+02  0.55488E+04
 0.95249992E+02  0.57268E+04
 0.95299995E+02  0.58616E+04
 0.95349991E+02  0.59365E+04
 0.95399994E+02  0.60391E+04
 0.95449997E+02  0.61285E+04
 0.95499992E+02  0.61610E+04
 0.95549995E+02  0.61211E+04
 0.95599991E+02  0.60288E+04
 0.95649994E+02  0.59962E+04
 0.95699997E+02  0.60325E+04
 0.95749992E+02  0.60886E+04
 0.95799995E+02  0.61173E+04
 0.95849991E+02  0.60669E+04
 0.95899994E+02  0.60667E+04
 0.95949997E+02  0.61107E+04
 0.95999992E+02  0.61063E+04
 0.96049995E+02  0.60464E+04
 0.96099991E+02  0.60114E+04
 0.96149994E+02  0.60045E+04
 0.96199997E+02  0.59623E+04
 0.96249992E+02  0.59093E+04
 0.96299995E+02  0.58344E+04
 0.96349991E+02  0.58310E+04
 0.96399994E+02  0.59319E+04
 0.96449997E+02  0.60213E+04
 0.96499992E+02  0.60552E+04
 0.96549995E+02  0.60729E+04
 0.96599991E+02  0.60613E+04
 0.96649994E+02  0.59932E+04
 0.96699997E+02  0.59611E+04
 0.96749992E+02  0.59847E+04
 0.96799995E+02  0.59734E+04
 0.96849991E+02  0.59383E+04
 0.96899994E+02  0.59198E+04
 0.96949997E+02  0.59365E+04
 0.96999992E+02  0.60301E+04
 0.97049995E+02  0.61146E+04
 0.97099991E+02  0.60596E+04
 0.97149994E+02  0.59596E+04
 0.97199997E+02  0.59668E+04
 0.97249992E+02  0.59790E+04
 0.97299995E+02  0.59227E+04
 0.97349991E+02  0.58550E+04
 0.97399994E+02  0.57539E+04
 0.97449997E+02  0.56757E+04
 0.97499992E+02  0.56712E+04
 0.97549995E+02  0.57331E+04
 0.97599991E+02  0.58950E+04
 0.97649994E+02  0.60437E+04
 0.97699997E+02  0.60798E+04
 0.97749992E+02  0.60298E+04
 0.97799995E+02  0.58968E+04
 0.97849991E+02  0.57471E+04
 0.97899994E+02  0.56565E+04
 0.97949997E+02  0.56608E+04
 0.97999992E+02  0.56858E+04
