-0.19969940E+01 -0.19616E+05
-0.19469941E+01 -0.19498E+05
-0.18969940E+01 -0.19571E+05
-0.18469940E+01 -0.19572E+05
-0.17969940E+01 -0.19578E+05
-0.17469940E+01 -0.19571E+05
-0.16969941E+01 -0.19564E+05
-0.16469941E+01 -0.19566E+05
-0.15969940E+01 -0.19570E+05
-0.15469940E+01 -0.19573E+05
-0.14969940E+01 -0.19577E+05
-0.14469941E+01 -0.19588E+05
-0.13969941E+01 -0.19595E+05
-0.13469940E+01 -0.19607E+05
-0.12969941E+01 -0.19615E+05
-0.12469940E+01 -0.19628E+05
-0.11969941E+01 -0.19638E+05
-0.11469941E+01 -0.19648E+05
-0.10969940E+01 -0.19675E+05
-0.10469941E+01 -0.19690E+05
-0.99699408E+00 -0.19710E+05
-0.94699407E+00 -0.19722E+05
-0.89699411E+00 -0.19722E+05
-0.84699404E+00 -0.19723E+05
-0.79699409E+00 -0.19722E+05
-0.74699414E+00 -0.19719E+05
-0.69699407E+00 -0.19715E+05
-0.64699411E+00 -0.19716E+05
-0.59699416E+00 -0.19707E+05
-0.54699409E+00 -0.19697E+05
-0.49699414E+00 -0.19683E+05
-0.44699407E+00 -0.19678E+05
-0.39699411E+00 -0.19675E+05
-0.34699416E+00 -0.19662E+05
-0.29699409E+00 -0.19652E+05
-0.24699414E+00 -0.19637E+05
-0.19699407E+00 -0.19631E+05
-0.14699411E+00 -0.19619E+05
-0.96994162E-01 -0.19613E+05
-0.46994090E-01 -0.19605E+05
 0.30058622E-02 -0.19591E+05
 0.53005934E-01 -0.19590E+05
 0.10300589E+00 -0.19596E+05
 0.15300584E+00 -0.19607E+05
 0.20300579E+00 -0.19610E+05
 0.25300574E+00 -0.19611E+05
 0.30300593E+00 -0.19606E+05
 0.35300589E+00 -0.19599E+05
 0.40300584E+00 -0.19595E+05
 0.45300579E+00 -0.19595E+05
 0.50300574E+00 -0.19595E+05
 0.55300593E+00 -0.19607E+05
 0.60300589E+00 -0.19610E+05
 0.65300584E+00 -0.19623E+05
 0.70300579E+00 -0.19640E+05
 0.75300574E+00 -0.19641E+05
 0.80300570E+00 -0.19644E+05
 0.85300589E+00 -0.19642E+05
 0.90300584E+00 -0.19637E+05
 0.95300579E+00 -0.19629E+05
 0.10030057E+01 -0.19624E+05
 0.10530057E+01 -0.19627E+05
 0.11030059E+01 -0.19631E+05
 0.11530058E+01 -0.19630E+05
 0.12030058E+01 -0.19637E+05
 0.12530057E+01 -0.19641E+05
 0.13030057E+01 -0.19647E+05
 0.13530059E+01 -0.19655E+05
 0.14030058E+01 -0.19663E+05
 0.14530058E+01 -0.19675E+05
 0.15030057E+01 -0.19687E+05
 0.15530057E+01 -0.19694E+05
 0.16030059E+01 -0.19687E+05
 0.16530058E+01 -0.19685E+05
 0.17030058E+01 -0.19682E+05
 0.17530057E+01 -0.19677E+05
 0.18030057E+01 -0.19678E+05
 0.18530056E+01 -0.19679E+05
 0.19030058E+01 -0.19671E+05
 0.19530058E+01 -0.19667E+05
 0.20030057E+01 -0.19666E+05
 0.20530057E+01 -0.19671E+05
 0.21030059E+01 -0.19674E+05
 0.21530056E+01 -0.19677E+05
 0.22030058E+01 -0.19669E+05
 0.22530055E+01 -0.19656E+05
 0.23030057E+01 -0.19650E+05
 0.23530059E+01 -0.19638E+05
 0.24030056E+01 -0.19629E+05
 0.24530058E+01 -0.19628E+05
 0.25030055E+01 -0.19634E+05
 0.25530057E+01 -0.19636E+05
 0.26030059E+01 -0.19633E+05
 0.26530056E+01 -0.19616E+05
 0.27030058E+01 -0.19604E+05
 0.27530055E+01 -0.19598E+05
 0.28030057E+01 -0.19581E+05
 0.28530059E+01 -0.19573E+05
 0.29030056E+01 -0.19569E+05
 0.29530058E+01 -0.19573E+05
 0.30030055E+01 -0.19583E+05
 0.30530057E+01 -0.19594E+05
 0.31030059E+01 -0.19611E+05
 0.31530056E+01 -0.19629E+05
 0.32030058E+01 -0.19641E+05
 0.32530055E+01 -0.19649E+05
 0.33030057E+01 -0.19651E+05
 0.33530059E+01 -0.19649E+05
 0.34030056E+01 -0.19646E+05
 0.34530058E+01 -0.19644E+05
 0.35030055E+01 -0.19644E+05
 0.35530057E+01 -0.19643E+05
 0.36030054E+01 -0.19643E+05
 0.36530056E+01 -0.19636E+05
 0.37030058E+01 -0.19629E+05
 0.37530055E+01 -0.19621E+05
 0.38030057E+01 -0.19624E+05
 0.38530054E+01 -0.19626E+05
 0.39030056E+01 -0.19625E+05
 0.39530058E+01 -0.19629E+05
 0.40030055E+01 -0.19638E+05
 0.40530057E+01 -0.19658E+05
 0.41030054E+01 -0.19675E+05
 0.41530056E+01 -0.19690E+05
 0.42030058E+01 -0.19693E+05
 0.42530055E+01 -0.19697E+05
 0.43030057E+01 -0.19700E+05
 0.43530054E+01 -0.19703E+05
 0.44030056E+01 -0.19710E+05
 0.44530058E+01 -0.19705E+05
 0.45030055E+01 -0.19707E+05
 0.45530057E+01 -0.19707E+05
 0.46030054E+01 -0.19704E+05
 0.46530056E+01 -0.19697E+05
 0.47030058E+01 -0.19690E+05
 0.47530055E+01 -0.19686E+05
 0.48030057E+01 -0.19676E+05
 0.48530054E+01 -0.19664E+05
 0.49030056E+01 -0.19656E+05
 0.49530058E+01 -0.19652E+05
 0.50030055E+01 -0.19645E+05
 0.50530057E+01 -0.19639E+05
 0.51030054E+01 -0.19642E+05
 0.51530056E+01 -0.19641E+05
 0.52030058E+01 -0.19626E+05
 0.52530055E+01 -0.19613E+05
 0.53030057E+01 -0.19599E+05
 0.53530054E+01 -0.19587E+05
 0.54030056E+01 -0.19590E+05
 0.54530053E+01 -0.19581E+05
 0.55030055E+01 -0.19579E+05
 0.55530057E+01 -0.19585E+05
 0.56030054E+01 -0.19585E+05
 0.56530056E+01 -0.19587E+05
 0.57030053E+01 -0.19586E+05
 0.57530055E+01 -0.19594E+05
 0.58030057E+01 -0.19601E+05
 0.58530054E+01 -0.19609E+05
 0.59030056E+01 -0.19623E+05
 0.59530053E+01 -0.19638E+05
 0.60030055E+01 -0.19651E+05
 0.60530052E+01 -0.19658E+05
 0.61030054E+01 -0.19664E+05
 0.61530056E+01 -0.19666E+05
 0.62030058E+01 -0.19663E+05
 0.62530050E+01 -0.19656E+05
 0.63030052E+01 -0.19657E+05
 0.63530054E+01 -0.19664E+05
 0.64030056E+01 -0.19661E+05
 0.64530058E+01 -0.19665E+05
 0.65030050E+01 -0.19667E+05
 0.65530052E+01 -0.19673E+05
 0.66030054E+01 -0.19681E+05
 0.66530056E+01 -0.19669E+05
 0.67030058E+01 -0.19659E+05
 0.67530050E+01 -0.19653E+05
 0.68030052E+01 -0.19645E+05
 0.68530054E+01 -0.19638E+05
 0.69030056E+01 -0.19635E+05
 0.69530058E+01 -0.19628E+05
 0.70030050E+01 -0.19623E+05
 0.70530052E+01 -0.19622E+05
 0.71030054E+01 -0.19620E+05
 0.71530056E+01 -0.19606E+05
 0.72030058E+01 -0.19588E+05
 0.72530050E+01 -0.19582E+05
 0.73030052E+01 -0.19574E+05
 0.73530054E+01 -0.19571E+05
 0.74030056E+01 -0.19582E+05
 0.74530058E+01 -0.19591E+05
 0.75030050E+01 -0.19601E+05
 0.75530052E+01 -0.19620E+05
 0.76030054E+01 -0.19636E+05
 0.76530056E+01 -0.19648E+05
 0.77030058E+01 -0.19660E+05
 0.77530050E+01 -0.19678E+05
 0.78030052E+01 -0.19683E+05
 0.78530054E+01 -0.19694E+05
 0.79030056E+01 -0.19701E+05
 0.79530058E+01 -0.19705E+05
 0.80030050E+01 -0.19724E+05
 0.80530052E+01 -0.19734E+05
 0.81030054E+01 -0.19748E+05
 0.81530056E+01 -0.19753E+05
 0.82030058E+01 -0.19746E+05
 0.82530050E+01 -0.19741E+05
 0.83030052E+01 -0.19733E+05
 0.83530054E+01 -0.19729E+05
 0.84030056E+01 -0.19728E+05
 0.84530058E+01 -0.19723E+05
 0.85030050E+01 -0.19702E+05
 0.85530052E+01 -0.19675E+05
 0.86030054E+01 -0.19663E+05
 0.86530056E+01 -0.19646E+05
 0.87030058E+01 -0.19622E+05
 0.87530050E+01 -0.19599E+05
 0.88030052E+01 -0.19587E+05
 0.88530054E+01 -0.19581E+05
 0.89030056E+01 -0.19563E+05
 0.89530058E+01 -0.19553E+05
 0.90030050E+01 -0.19552E+05
 0.90530052E+01 -0.19546E+05
 0.91030054E+01 -0.19543E+05
 0.91530056E+01 -0.19561E+05
 0.92030048E+01 -0.19578E+05
 0.92530050E+01 -0.19586E+05
 0.93030052E+01 -0.19596E+05
 0.93530054E+01 -0.19621E+05
 0.94030056E+01 -0.19617E+05
 0.94530048E+01 -0.19621E+05
 0.95030050E+01 -0.19637E+05
 0.95530052E+01 -0.19640E+05
 0.96030054E+01 -0.19646E+05
 0.96530056E+01 -0.19672E+05
 0.97030048E+01 -0.19689E+05
 0.97530050E+01 -0.19674E+05
 0.98030052E+01 -0.19712E+05
 0.98530054E+01 -0.19646E+05
 0.99030056E+01 -0.19643E+05
 0.99530048E+01 -0.19701E+05
 0.10003005E+02 -0.19660E+05
 0.10053005E+02 -0.19657E+05
 0.10103005E+02 -0.19712E+05
 0.10153006E+02 -0.19669E+05
 0.10203005E+02 -0.19383E+05
 0.10253005E+02 -0.18787E+05
 0.10303005E+02 -0.18577E+05
 0.10353005E+02 -0.19315E+05
 0.10403006E+02 -0.20430E+05
 0.10453005E+02 -0.20952E+05
 0.10503005E+02 -0.19520E+05
 0.10553005E+02 -0.20140E+05
 0.10603005E+02 -0.20047E+05
 0.10653006E+02 -0.18371E+05
 0.10703005E+02 -0.16239E+05
 0.10753005E+02 -0.17678E+05
 0.10803005E+02 -0.20581E+05
 0.10853005E+02 -0.21366E+05
 0.10903006E+02 -0.26726E+05
 0.10953005E+02 -0.18086E+05
 0.11003005E+02 -0.14054E+05
 0.11053005E+02 -0.21350E+05
 0.11103005E+02 -0.15281E+05
 0.11153006E+02 -0.10582E+05
 0.11203005E+02 -0.16350E+05
 0.11253005E+02 -0.26651E+05
 0.11303005E+02 -0.36010E+05
 0.11353005E+02 -0.19015E+05
 0.11403006E+02 -0.57124E+04
 0.11453005E+02 -0.10119E+05
 0.11503005E+02 -0.24603E+05
 0.11553005E+02 -0.50578E+05
 0.11603005E+02 -0.40585E+04
 0.11653006E+02 -0.85691E+04
 0.11703005E+02 -0.53965E+05
 0.11753005E+02 -0.95517E+04
 0.11803005E+02 -0.35932E+04
 0.11853005E+02 -0.19304E+05
 0.11903006E+02 -0.34299E+05
 0.11953005E+02 -0.31792E+05
 0.12003005E+02  0.15069E+05
 0.12053005E+02 -0.21675E+05
 0.12103005E+02 -0.51599E+05
 0.12153006E+02  0.55614E+04
 0.12203005E+02 -0.23178E+04
 0.12253005E+02 -0.43356E+05
 0.12303005E+02 -0.22068E+05
 0.12353005E+02 -0.43607E+04
 0.12403006E+02 -0.25236E+05
 0.12453005E+02 -0.23461E+05
 0.12503005E+02 -0.10923E+05
 0.12553005E+02 -0.30647E+05
 0.12603005E+02 -0.30809E+05
 0.12653005E+02 -0.50550E+04
 0.12703005E+02 -0.23054E+05
 0.12753005E+02 -0.90525E+04
 0.12803005E+02 -0.79047E+04
 0.12853005E+02 -0.33991E+05
 0.12903005E+02 -0.68920E+04
 0.12953005E+02 -0.34972E+05
 0.13003005E+02 -0.14215E+05
 0.13053005E+02 -0.10733E+05
 0.13103005E+02 -0.49561E+05
 0.13153005E+02 -0.10266E+04
 0.13203005E+02 -0.17907E+05
 0.13253005E+02 -0.29359E+05
 0.13303005E+02 -0.14380E+05
 0.13353005E+02 -0.24142E+05
 0.13403005E+02 -0.22064E+05
 0.13453005E+02 -0.23977E+05
 0.13503005E+02 -0.31212E+04
 0.13553005E+02 -0.11459E+05
 0.13603005E+02 -0.29223E+05
 0.13653005E+02 -0.25694E+05
 0.13703005E+02 -0.16311E+05
 0.13753005E+02 -0.13097E+05
 0.13803005E+02 -0.20917E+05
 0.13853005E+02 -0.15400E+05
 0.13903005E+02 -0.21378E+05
 0.13953005E+02 -0.32803E+05
 0.14003005E+02 -0.18734E+05
 0.14053005E+02 -0.12182E+05
 0.14103004E+02 -0.41964E+05
 0.14153006E+02 -0.36628E+05
 0.14203005E+02 -0.65534E+04
 0.14253004E+02 -0.17851E+05
 0.14303005E+02 -0.10525E+05
 0.14353004E+02 -0.17824E+05
 0.14403006E+02 -0.19724E+05
 0.14453005E+02 -0.36515E+04
 0.14503004E+02 -0.16575E+05
 0.14553005E+02 -0.14235E+05
 0.14603004E+02 -0.24955E+05
 0.14653006E+02 -0.37483E+05
 0.14703005E+02 -0.24190E+05
 0.14753004E+02 -0.23893E+04
 0.14803005E+02 -0.20678E+05
 0.14853004E+02 -0.39632E+05
 0.14903006E+02  0.23957E+04
 0.14953005E+02 -0.85624E+04
 0.15003004E+02 -0.43269E+05
 0.15053005E+02 -0.12021E+05
 0.15103004E+02 -0.13296E+04
 0.15153006E+02 -0.19894E+05
 0.15203005E+02 -0.30246E+05
 0.15253004E+02 -0.16832E+05
 0.15303005E+02 -0.19045E+05
 0.15353004E+02 -0.40573E+05
 0.15403006E+02 -0.25358E+05
 0.15453005E+02  0.29678E+04
 0.15503004E+02 -0.87656E+04
 0.15553005E+02 -0.36864E+05
 0.15603004E+02 -0.23779E+05
 0.15653006E+02 -0.26368E+04
 0.15703005E+02 -0.33009E+05
 0.15753004E+02 -0.44084E+05
 0.15803005E+02  0.46550E+04
 0.15853004E+02 -0.11660E+05
 0.15903006E+02 -0.35470E+05
 0.15953005E+02 -0.11282E+04
 0.16003004E+02 -0.25357E+05
 0.16053005E+02 -0.35080E+05
 0.16103004E+02 -0.87597E+03
 0.16153006E+02 -0.18151E+05
 0.16203005E+02 -0.12111E+05
 0.16253004E+02 -0.10016E+05
 0.16303005E+02 -0.47993E+05
 0.16353004E+02 -0.22514E+05
 0.16403006E+02 -0.13152E+04
 0.16453005E+02 -0.37383E+05
 0.16503004E+02 -0.22775E+05
 0.16553005E+02 -0.64763E+04
 0.16603004E+02 -0.33260E+05
 0.16653006E+02 -0.19826E+05
 0.16703005E+02 -0.19634E+05
 0.16753004E+02 -0.33111E+05
 0.16803005E+02 -0.28393E+05
 0.16853004E+02 -0.12652E+05
 0.16903006E+02  0.36880E+05
 0.16953005E+02 -0.21735E+04
 0.17003004E+02 -0.60780E+05
 0.17053005E+02 -0.41206E+05
 0.17103004E+02 -0.10134E+05
 0.17153006E+02  0.12306E+05
 0.17203005E+02 -0.54506E+05
 0.17253004E+02 -0.68880E+05
 0.17303005E+02  0.48105E+05
 0.17353004E+02  0.49774E+05
 0.17403006E+02 -0.74699E+05
 0.17453005E+02 -0.69025E+05
 0.17503004E+02 -0.36196E+05
 0.17553005E+02 -0.37876E+05
 0.17603004E+02  0.15985E+05
 0.17653006E+02  0.22202E+05
 0.17703005E+02 -0.22216E+05
 0.17753004E+02  0.31695E+04
 0.17803005E+02 -0.24066E+05
 0.17853004E+02 -0.10819E+06
 0.17903006E+02 -0.70564E+04
 0.17953005E+02  0.37045E+04
 0.18003004E+02 -0.18527E+05
 0.18053005E+02  0.25861E+04
 0.18103004E+02 -0.80413E+05
 0.18153006E+02 -0.42224E+05
 0.18203005E+02 -0.57909E+04
 0.18253004E+02 -0.47606E+05
 0.18303005E+02 -0.78472E+03
 0.18353004E+02  0.19563E+05
 0.18403006E+02  0.45547E+04
 0.18453005E+02  0.20454E+05
 0.18503004E+02 -0.38985E+04
 0.18553005E+02 -0.42948E+05
 0.18603004E+02 -0.22883E+05
 0.18653006E+02 -0.23996E+05
 0.18703005E+02 -0.70110E+05
 0.18753004E+02 -0.47224E+04
 0.18803005E+02  0.83780E+03
 0.18853004E+02 -0.55792E+05
 0.18903006E+02 -0.87101E+04
 0.18953005E+02 -0.86519E+04
 0.19003004E+02 -0.25797E+05
 0.19053005E+02  0.34272E+05
 0.19103004E+02 -0.32505E+05
 0.19153006E+02 -0.50378E+05
 0.19203005E+02  0.58328E+05
 0.19253004E+02 -0.78245E+03
 0.19303005E+02 -0.25264E+05
 0.19353004E+02  0.99532E+03
 0.19403006E+02 -0.38785E+05
 0.19453005E+02 -0.33965E+05
 0.19503004E+02  0.77563E+04
 0.19553005E+02 -0.37347E+05
 0.19603004E+02 -0.74271E+05
 0.19653006E+02 -0.58786E+05
 0.19703005E+02 -0.62102E+05
 0.19753004E+02 -0.15247E+05
 0.19803005E+02  0.64144E+04
 0.19853004E+02 -0.16039E+05
 0.19903006E+02 -0.30968E+05
 0.19953005E+02 -0.47350E+05
 0.20003004E+02 -0.30338E+05
 0.20053005E+02 -0.10805E+04
 0.20103004E+02 -0.24657E+04
 0.20153006E+02 -0.17034E+05
 0.20203005E+02 -0.21155E+05
 0.20253004E+02 -0.30454E+05
 0.20303005E+02 -0.42924E+05
 0.20353004E+02 -0.11952E+05
 0.20403004E+02 -0.19642E+05
 0.20453005E+02 -0.41411E+05
 0.20503004E+02 -0.98595E+04
 0.20553005E+02 -0.74042E+04
 0.20603004E+02 -0.20460E+05
 0.20653004E+02 -0.22557E+04
 0.20703005E+02 -0.54394E+04
 0.20753004E+02 -0.30182E+05
 0.20803005E+02 -0.16189E+05
 0.20853004E+02 -0.11155E+05
 0.20903004E+02 -0.53749E+04
 0.20953005E+02  0.29712E+05
 0.21003004E+02  0.17517E+05
 0.21053005E+02  0.36714E+03
 0.21103004E+02 -0.95481E+04
 0.21153004E+02 -0.25160E+05
 0.21203005E+02 -0.31184E+05
 0.21253004E+02 -0.27644E+05
 0.21303005E+02 -0.44248E+05
 0.21353004E+02 -0.59611E+05
 0.21403004E+02 -0.28476E+05
 0.21453005E+02 -0.29914E+05
 0.21503004E+02 -0.27436E+05
 0.21553005E+02 -0.22336E+05
 0.21603004E+02 -0.27864E+05
 0.21653004E+02 -0.19430E+05
 0.21703005E+02 -0.10200E+05
 0.21753004E+02 -0.29037E+05
 0.21803005E+02 -0.30747E+05
 0.21853004E+02 -0.90183E+04
 0.21903004E+02 -0.48972E+05
 0.21953005E+02 -0.42329E+05
 0.22003004E+02  0.12655E+05
 0.22053005E+02 -0.98474E+04
 0.22103004E+02 -0.16209E+05
 0.22153004E+02  0.51898E+02
 0.22203005E+02 -0.11312E+05
 0.22253004E+02 -0.21648E+05
 0.22303005E+02 -0.26314E+05
 0.22353004E+02 -0.12434E+05
 0.22403004E+02 -0.31405E+05
 0.22453005E+02 -0.24570E+05
 0.22503004E+02 -0.88205E+04
 0.22553005E+02 -0.92899E+04
 0.22603004E+02 -0.18673E+05
 0.22653004E+02 -0.30033E+05
 0.22703005E+02 -0.19989E+05
 0.22753004E+02 -0.33579E+05
 0.22803005E+02 -0.94009E+04
 0.22853004E+02  0.36688E+04
 0.22903004E+02 -0.11496E+05
 0.22953005E+02 -0.12438E+05
 0.23003004E+02 -0.21095E+05
 0.23053005E+02 -0.17391E+05
 0.23103004E+02 -0.10175E+05
 0.23153004E+02 -0.14203E+05
 0.23203005E+02 -0.25482E+05
 0.23253004E+02 -0.35858E+05
 0.23303005E+02 -0.58201E+05
 0.23353004E+02 -0.37503E+05
 0.23403004E+02  0.49341E+03
 0.23453005E+02  0.39337E+04
 0.23503004E+02  0.72789E+04
 0.23553005E+02 -0.17996E+04
 0.23603004E+02 -0.22503E+05
 0.23653004E+02 -0.26984E+05
 0.23703005E+02 -0.31009E+05
 0.23753004E+02 -0.48700E+05
 0.23803005E+02 -0.29747E+05
 0.23853004E+02 -0.88801E+04
 0.23903004E+02 -0.21793E+05
 0.23953005E+02 -0.29646E+05
 0.24003004E+02 -0.16795E+05
 0.24053005E+02 -0.23509E+05
 0.24103004E+02 -0.32811E+05
 0.24153004E+02 -0.28366E+05
 0.24203005E+02 -0.31994E+05
 0.24253004E+02 -0.12017E+05
 0.24303005E+02 -0.10831E+05
 0.24353004E+02 -0.23485E+05
 0.24403004E+02 -0.14872E+05
 0.24453005E+02 -0.25208E+05
 0.24503004E+02 -0.29637E+05
 0.24553005E+02 -0.11642E+05
 0.24603004E+02 -0.11936E+05
 0.24653004E+02 -0.12788E+05
 0.24703005E+02  0.88503E+04
 0.24753004E+02  0.63943E+03
 0.24803005E+02 -0.10065E+05
 0.24853004E+02  0.35420E+04
 0.24903004E+02 -0.62358E+04
 0.24953005E+02 -0.13523E+05
 0.25003004E+02 -0.28669E+05
 0.25053005E+02 -0.48139E+05
 0.25103004E+02 -0.25494E+05
 0.25153004E+02 -0.22427E+05
 0.25203005E+02 -0.48193E+05
 0.25253004E+02 -0.28704E+05
 0.25303005E+02 -0.70953E+04
 0.25353004E+02 -0.11393E+05
 0.25403004E+02 -0.15312E+05
 0.25453005E+02 -0.21490E+05
 0.25503004E+02 -0.26977E+05
 0.25553005E+02 -0.25386E+05
 0.25603004E+02 -0.33419E+05
 0.25653004E+02 -0.34837E+05
 0.25703005E+02 -0.15405E+05
 0.25753004E+02 -0.23668E+05
 0.25803005E+02 -0.19054E+05
 0.25853004E+02 -0.25143E+03
 0.25903004E+02 -0.25299E+05
 0.25953005E+02 -0.28352E+05
 0.26003004E+02 -0.89510E+04
 0.26053005E+02 -0.34187E+05
 0.26103004E+02 -0.32946E+05
 0.26153004E+02 -0.96815E+04
 0.26203005E+02 -0.29914E+05
 0.26253004E+02 -0.27336E+05
 0.26303005E+02 -0.16868E+05
 0.26353004E+02 -0.12940E+05
 0.26403004E+02 -0.10796E+05
 0.26453005E+02 -0.14164E+05
 0.26503004E+02 -0.72906E+04
 0.26553005E+02 -0.21268E+05
 0.26603004E+02 -0.20878E+05
 0.26653004E+02 -0.14940E+04
 0.26703005E+02 -0.72492E+04
 0.26753004E+02 -0.15011E+05
 0.26803005E+02 -0.48879E+04
 0.26853004E+02 -0.34713E+04
 0.26903004E+02 -0.21035E+05
 0.26953005E+02 -0.32199E+05
 0.27003004E+02 -0.27134E+05
 0.27053003E+02 -0.31019E+05
 0.27103004E+02 -0.33674E+05
 0.27153004E+02 -0.37033E+05
 0.27203005E+02 -0.30700E+05
 0.27253004E+02 -0.17077E+05
 0.27303003E+02 -0.29732E+05
 0.27353004E+02 -0.33734E+05
 0.27403004E+02 -0.29920E+05
 0.27453005E+02 -0.30653E+05
 0.27503004E+02 -0.22917E+05
 0.27553003E+02 -0.11556E+05
 0.27603004E+02  0.26413E+04
 0.27653004E+02  0.77588E+04
 0.27703005E+02  0.26005E+03
 0.27753004E+02 -0.83805E+03
 0.27803003E+02 -0.21926E+04
 0.27853004E+02 -0.18770E+05
 0.27903004E+02 -0.20896E+05
 0.27953005E+02 -0.21177E+05
 0.28003004E+02 -0.31928E+05
 0.28053003E+02 -0.24520E+05
 0.28103004E+02 -0.19116E+05
 0.28153004E+02 -0.19109E+05
 0.28203005E+02 -0.15716E+05
 0.28253004E+02 -0.19890E+05
 0.28303003E+02 -0.19908E+05
 0.28353004E+02 -0.21322E+05
 0.28403004E+02 -0.28829E+05
 0.28453005E+02 -0.23982E+05
 0.28503004E+02 -0.28615E+05
 0.28553003E+02 -0.38009E+05
 0.28603004E+02 -0.37581E+05
 0.28653004E+02 -0.31942E+05
 0.28703005E+02 -0.22823E+05
 0.28753004E+02 -0.28726E+05
 0.28803003E+02 -0.23370E+05
 0.28853004E+02 -0.12866E+05
 0.28903004E+02 -0.13377E+05
 0.28953005E+02 -0.21086E+05
 0.29003004E+02 -0.31293E+05
 0.29053003E+02 -0.25685E+05
 0.29103004E+02 -0.10984E+05
 0.29153004E+02 -0.11246E+03
 0.29203005E+02 -0.18615E+04
 0.29253004E+02 -0.16213E+04
 0.29303003E+02 -0.80149E+04
 0.29353004E+02 -0.20350E+05
 0.29403004E+02 -0.24827E+05
 0.29453005E+02 -0.21563E+05
 0.29503004E+02 -0.19080E+05
 0.29553003E+02 -0.25279E+05
 0.29603004E+02 -0.26136E+05
 0.29653004E+02 -0.27156E+05
 0.29703005E+02 -0.28956E+05
 0.29753004E+02 -0.24618E+05
 0.29803003E+02 -0.21056E+05
 0.29853004E+02 -0.16024E+05
 0.29903004E+02 -0.12884E+05
 0.29953005E+02 -0.17835E+05
 0.30003004E+02 -0.12476E+05
 0.30053005E+02 -0.13599E+05
 0.30103004E+02 -0.30088E+05
 0.30153004E+02 -0.22909E+05
 0.30203003E+02 -0.13924E+05
 0.30253002E+02 -0.24427E+05
 0.30303005E+02 -0.12984E+05
 0.30353004E+02 -0.70115E+04
 0.30403004E+02 -0.15364E+05
 0.30453003E+02 -0.11495E+05
 0.30503002E+02 -0.13073E+05
 0.30553005E+02 -0.14326E+05
 0.30603004E+02 -0.19408E+05
 0.30653004E+02 -0.21323E+05
 0.30703003E+02 -0.14908E+05
 0.30753002E+02 -0.12238E+05
 0.30803005E+02 -0.17621E+05
 0.30853004E+02 -0.18297E+05
 0.30903004E+02 -0.18564E+05
 0.30953003E+02 -0.21611E+05
 0.31003002E+02 -0.19984E+05
 0.31053005E+02 -0.25694E+05
 0.31103004E+02 -0.26709E+05
 0.31153004E+02 -0.24056E+05
 0.31203003E+02 -0.25562E+05
 0.31253002E+02 -0.30661E+05
 0.31303005E+02 -0.31053E+05
 0.31353004E+02 -0.23844E+05
 0.31403004E+02 -0.20006E+05
 0.31453003E+02 -0.20303E+05
 0.31503002E+02 -0.26006E+05
 0.31553005E+02 -0.25935E+05
 0.31603004E+02 -0.26525E+05
 0.31653004E+02 -0.36111E+05
 0.31703003E+02 -0.30222E+05
 0.31753002E+02 -0.24648E+05
 0.31803005E+02 -0.23849E+05
 0.31853004E+02 -0.14391E+05
 0.31903004E+02 -0.93308E+04
 0.31953003E+02 -0.89957E+04
 0.32003002E+02 -0.49957E+04
 0.32053005E+02 -0.75384E+04
 0.32103004E+02 -0.15266E+05
 0.32153004E+02 -0.10386E+05
 0.32203003E+02 -0.16347E+05
 0.32253002E+02 -0.21977E+05
 0.32303005E+02 -0.14226E+05
 0.32353004E+02 -0.19298E+05
 0.32403004E+02 -0.25576E+05
 0.32453003E+02 -0.19398E+05
 0.32503002E+02 -0.14445E+05
 0.32553005E+02 -0.14875E+05
 0.32603004E+02 -0.17776E+05
 0.32653004E+02 -0.23445E+05
 0.32703003E+02 -0.22133E+05
 0.32753002E+02 -0.19343E+05
 0.32803005E+02 -0.18415E+05
 0.32853004E+02 -0.18060E+05
 0.32903004E+02 -0.22959E+05
 0.32953003E+02 -0.26216E+05
 0.33003002E+02 -0.19099E+05
 0.33053005E+02 -0.14738E+05
 0.33103004E+02 -0.23086E+05
 0.33153004E+02 -0.27243E+05
 0.33203003E+02 -0.20330E+05
 0.33253002E+02 -0.13911E+05
 0.33303005E+02 -0.13872E+05
 0.33353004E+02 -0.15618E+05
 0.33403004E+02 -0.15900E+05
 0.33453003E+02 -0.17945E+05
 0.33503002E+02 -0.23749E+05
 0.33553005E+02 -0.24917E+05
 0.33603004E+02 -0.22618E+05
 0.33653004E+02 -0.21260E+05
 0.33703003E+02 -0.23994E+05
 0.33753002E+02 -0.26339E+05
 0.33803005E+02 -0.20561E+05
 0.33853004E+02 -0.22864E+05
 0.33903004E+02 -0.25401E+05
 0.33953003E+02 -0.20297E+05
 0.34003002E+02 -0.18650E+05
 0.34053005E+02 -0.12507E+05
 0.34103004E+02 -0.91749E+04
 0.34153004E+02 -0.10211E+05
 0.34203003E+02 -0.16402E+05
 0.34253002E+02 -0.21583E+05
 0.34303005E+02 -0.19016E+05
 0.34353004E+02 -0.18227E+05
 0.34403004E+02 -0.18388E+05
 0.34453003E+02 -0.21253E+05
 0.34503002E+02 -0.20311E+05
 0.34553005E+02 -0.20055E+05
 0.34603004E+02 -0.24806E+05
 0.34653004E+02 -0.25775E+05
 0.34703003E+02 -0.22870E+05
 0.34753002E+02 -0.19241E+05
 0.34803005E+02 -0.21206E+05
 0.34853004E+02 -0.22942E+05
 0.34903004E+02 -0.18336E+05
 0.34953003E+02 -0.19328E+05
 0.35003002E+02 -0.17688E+05
 0.35053005E+02 -0.21133E+05
 0.35103004E+02 -0.26357E+05
 0.35153004E+02 -0.20225E+05
 0.35203003E+02 -0.21631E+05
 0.35253002E+02 -0.19745E+05
 0.35303005E+02 -0.22165E+05
 0.35353004E+02 -0.24895E+05
 0.35403004E+02 -0.22383E+05
 0.35453003E+02 -0.23039E+05
 0.35503002E+02 -0.18648E+05
 0.35553005E+02 -0.15083E+05
 0.35603004E+02 -0.99814E+04
 0.35653004E+02 -0.94080E+04
 0.35703003E+02 -0.11929E+05
 0.35753002E+02 -0.16866E+05
 0.35803005E+02 -0.24671E+05
 0.35853004E+02 -0.25308E+05
 0.35903004E+02 -0.22377E+05
 0.35953003E+02 -0.17116E+05
 0.36003002E+02 -0.10507E+05
 0.36053005E+02 -0.11553E+05
 0.36103004E+02 -0.13075E+05
 0.36153004E+02 -0.13144E+05
 0.36203003E+02 -0.13903E+05
 0.36253002E+02 -0.16003E+05
 0.36303005E+02 -0.21066E+05
 0.36353004E+02 -0.20536E+05
 0.36403004E+02 -0.19128E+05
 0.36453003E+02 -0.21820E+05
 0.36503002E+02 -0.22373E+05
 0.36553005E+02 -0.21971E+05
 0.36603004E+02 -0.25437E+05
 0.36653004E+02 -0.23954E+05
 0.36703003E+02 -0.22708E+05
 0.36753002E+02 -0.24696E+05
 0.36803005E+02 -0.25790E+05
 0.36853004E+02 -0.26302E+05
 0.36903004E+02 -0.23350E+05
 0.36953003E+02 -0.18704E+05
 0.37003002E+02 -0.16269E+05
 0.37053005E+02 -0.21836E+05
 0.37103004E+02 -0.22564E+05
 0.37153004E+02 -0.19079E+05
 0.37203003E+02 -0.25451E+05
 0.37253002E+02 -0.24658E+05
 0.37303005E+02 -0.17692E+05
 0.37353004E+02 -0.17306E+05
 0.37403004E+02 -0.20476E+05
 0.37453003E+02 -0.20257E+05
 0.37503002E+02 -0.16924E+05
 0.37553005E+02 -0.17328E+05
 0.37603004E+02 -0.20071E+05
 0.37653004E+02 -0.25362E+05
 0.37703003E+02 -0.25835E+05
 0.37753002E+02 -0.21739E+05
 0.37803005E+02 -0.18539E+05
 0.37853004E+02 -0.16395E+05
 0.37903004E+02 -0.15636E+05
 0.37953003E+02 -0.12191E+05
 0.38003002E+02 -0.12509E+05
 0.38053005E+02 -0.17101E+05
 0.38103004E+02 -0.14453E+05
 0.38153004E+02 -0.15087E+05
 0.38203003E+02 -0.19796E+05
 0.38253002E+02 -0.19054E+05
 0.38303005E+02 -0.17955E+05
 0.38353004E+02 -0.17477E+05
 0.38403004E+02 -0.19267E+05
 0.38453003E+02 -0.24556E+05
 0.38503002E+02 -0.25802E+05
 0.38553005E+02 -0.25476E+05
 0.38603004E+02 -0.24568E+05
 0.38653004E+02 -0.18846E+05
 0.38703003E+02 -0.17863E+05
 0.38753002E+02 -0.17244E+05
 0.38803005E+02 -0.15268E+05
 0.38853004E+02 -0.16819E+05
 0.38903004E+02 -0.16062E+05
 0.38953003E+02 -0.17439E+05
 0.39003002E+02 -0.20539E+05
 0.39053005E+02 -0.19244E+05
 0.39103004E+02 -0.20640E+05
 0.39153004E+02 -0.24540E+05
 0.39203003E+02 -0.24032E+05
 0.39253002E+02 -0.19086E+05
 0.39303005E+02 -0.17427E+05
 0.39353004E+02 -0.17277E+05
 0.39403004E+02 -0.16878E+05
 0.39453003E+02 -0.20964E+05
 0.39503002E+02 -0.21983E+05
 0.39553005E+02 -0.22076E+05
 0.39603004E+02 -0.20465E+05
 0.39653004E+02 -0.20338E+05
 0.39703003E+02 -0.22329E+05
 0.39753002E+02 -0.18863E+05
 0.39803005E+02 -0.22823E+05
 0.39853004E+02 -0.24734E+05
 0.39903004E+02 -0.16437E+05
 0.39953003E+02 -0.17640E+05
 0.40003002E+02 -0.21382E+05
 0.40053005E+02 -0.17079E+05
 0.40103004E+02 -0.14638E+05
 0.40153004E+02 -0.16446E+05
 0.40203003E+02 -0.17369E+05
 0.40253002E+02 -0.19021E+05
 0.40303005E+02 -0.21044E+05
 0.40353004E+02 -0.19816E+05
 0.40403004E+02 -0.20046E+05
 0.40453003E+02 -0.20734E+05
 0.40503002E+02 -0.20747E+05
 0.40553005E+02 -0.22532E+05
 0.40603004E+02 -0.22105E+05
 0.40653004E+02 -0.20224E+05
 0.40703003E+02 -0.19090E+05
 0.40753002E+02 -0.15895E+05
 0.40803005E+02 -0.14780E+05
 0.40853004E+02 -0.15607E+05
 0.40903004E+02 -0.18077E+05
 0.40953003E+02 -0.20698E+05
 0.41003002E+02 -0.18930E+05
 0.41053005E+02 -0.18982E+05
 0.41103004E+02 -0.22612E+05
 0.41153004E+02 -0.24151E+05
 0.41203003E+02 -0.22586E+05
 0.41253002E+02 -0.22436E+05
 0.41303005E+02 -0.20129E+05
 0.41353004E+02 -0.16898E+05
 0.41403004E+02 -0.20353E+05
 0.41453003E+02 -0.23797E+05
 0.41503002E+02 -0.22184E+05
 0.41553005E+02 -0.24125E+05
 0.41603004E+02 -0.23446E+05
 0.41653004E+02 -0.19591E+05
 0.41703003E+02 -0.21581E+05
 0.41753002E+02 -0.21710E+05
 0.41803005E+02 -0.19235E+05
 0.41853004E+02 -0.16101E+05
 0.41903004E+02 -0.17509E+05
 0.41953003E+02 -0.20781E+05
 0.42003002E+02 -0.19007E+05
 0.42053005E+02 -0.17629E+05
 0.42103004E+02 -0.17909E+05
 0.42153004E+02 -0.19252E+05
 0.42203003E+02 -0.18591E+05
 0.42253002E+02 -0.17664E+05
 0.42303005E+02 -0.16599E+05
 0.42353004E+02 -0.14449E+05
 0.42403004E+02 -0.12855E+05
 0.42453003E+02 -0.13577E+05
 0.42503002E+02 -0.17538E+05
 0.42553005E+02 -0.18846E+05
 0.42603004E+02 -0.17744E+05
 0.42653004E+02 -0.17369E+05
 0.42703003E+02 -0.21366E+05
 0.42753002E+02 -0.21964E+05
 0.42803001E+02 -0.20045E+05
 0.42853004E+02 -0.22461E+05
 0.42903004E+02 -0.21012E+05
 0.42953003E+02 -0.21066E+05
 0.43003002E+02 -0.23192E+05
 0.43053001E+02 -0.22535E+05
 0.43103004E+02 -0.22190E+05
 0.43153004E+02 -0.22139E+05
 0.43203003E+02 -0.21120E+05
 0.43253002E+02 -0.19869E+05
 0.43303001E+02 -0.20621E+05
 0.43353004E+02 -0.22088E+05
 0.43403004E+02 -0.22739E+05
 0.43453003E+02 -0.23435E+05
 0.43503002E+02 -0.23254E+05
 0.43553001E+02 -0.23711E+05
 0.43603004E+02 -0.22034E+05
 0.43653004E+02 -0.18482E+05
 0.43703003E+02 -0.19865E+05
 0.43753002E+02 -0.20100E+05
 0.43803001E+02 -0.17943E+05
 0.43853004E+02 -0.17051E+05
 0.43903004E+02 -0.17130E+05
 0.43953003E+02 -0.20511E+05
 0.44003002E+02 -0.22289E+05
 0.44053001E+02 -0.21045E+05
 0.44103004E+02 -0.21310E+05
 0.44153004E+02 -0.18064E+05
 0.44203003E+02 -0.13069E+05
 0.44253002E+02 -0.12598E+05
 0.44303001E+02 -0.11820E+05
 0.44353004E+02 -0.95548E+04
 0.44403004E+02 -0.13624E+05
 0.44453003E+02 -0.16441E+05
 0.44503002E+02 -0.15446E+05
 0.44553001E+02 -0.17664E+05
 0.44603004E+02 -0.19260E+05
 0.44653004E+02 -0.20086E+05
 0.44703003E+02 -0.19660E+05
 0.44753002E+02 -0.19297E+05
 0.44803001E+02 -0.20895E+05
 0.44853004E+02 -0.21184E+05
 0.44903004E+02 -0.20606E+05
 0.44953003E+02 -0.23805E+05
 0.45003002E+02 -0.25373E+05
 0.45053001E+02 -0.23126E+05
 0.45103004E+02 -0.23234E+05
 0.45153004E+02 -0.23739E+05
 0.45203003E+02 -0.22915E+05
 0.45253002E+02 -0.22225E+05
 0.45303001E+02 -0.20361E+05
 0.45353004E+02 -0.19361E+05
 0.45403004E+02 -0.20595E+05
 0.45453003E+02 -0.22785E+05
 0.45503002E+02 -0.24363E+05
 0.45553001E+02 -0.24545E+05
 0.45603004E+02 -0.23494E+05
 0.45653004E+02 -0.22000E+05
 0.45703003E+02 -0.19829E+05
 0.45753002E+02 -0.17363E+05
 0.45803001E+02 -0.18275E+05
 0.45853004E+02 -0.17659E+05
 0.45903004E+02 -0.14938E+05
 0.45953003E+02 -0.16997E+05
 0.46003002E+02 -0.19996E+05
 0.46053001E+02 -0.17984E+05
 0.46103004E+02 -0.15119E+05
 0.46153004E+02 -0.15445E+05
 0.46203003E+02 -0.17276E+05
 0.46253002E+02 -0.19418E+05
 0.46303001E+02 -0.19387E+05
 0.46353004E+02 -0.18226E+05
 0.46403004E+02 -0.18935E+05
 0.46453003E+02 -0.17583E+05
 0.46503002E+02 -0.17016E+05
 0.46553001E+02 -0.19992E+05
 0.46603004E+02 -0.20580E+05
 0.46653004E+02 -0.18725E+05
 0.46703003E+02 -0.19767E+05
 0.46753002E+02 -0.20598E+05
 0.46803001E+02 -0.16474E+05
 0.46853004E+02 -0.16284E+05
 0.46903004E+02 -0.20917E+05
 0.46953003E+02 -0.22050E+05
 0.47003002E+02 -0.21144E+05
 0.47053001E+02 -0.21478E+05
 0.47103004E+02 -0.21712E+05
 0.47153004E+02 -0.21169E+05
 0.47203003E+02 -0.20498E+05
 0.47253002E+02 -0.19995E+05
 0.47303001E+02 -0.19606E+05
 0.47353004E+02 -0.19820E+05
 0.47403004E+02 -0.20556E+05
 0.47453003E+02 -0.20633E+05
 0.47503002E+02 -0.19282E+05
 0.47553001E+02 -0.18637E+05
 0.47603004E+02 -0.20748E+05
 0.47653004E+02 -0.20848E+05
 0.47703003E+02 -0.19121E+05
 0.47753002E+02 -0.18595E+05
 0.47803001E+02 -0.18921E+05
 0.47853004E+02 -0.20377E+05
 0.47903004E+02 -0.21850E+05
 0.47953003E+02 -0.21407E+05
 0.48003002E+02 -0.19561E+05
 0.48053001E+02 -0.18002E+05
 0.48103004E+02 -0.16704E+05
 0.48153004E+02 -0.18248E+05
 0.48203003E+02 -0.19727E+05
 0.48253002E+02 -0.20546E+05
 0.48303001E+02 -0.22126E+05
 0.48353004E+02 -0.23025E+05
 0.48403004E+02 -0.22443E+05
 0.48453003E+02 -0.21031E+05
 0.48503002E+02 -0.21508E+05
 0.48553001E+02 -0.19902E+05
 0.48603004E+02 -0.18326E+05
 0.48653004E+02 -0.18606E+05
 0.48703003E+02 -0.17944E+05
 0.48753002E+02 -0.17769E+05
 0.48803001E+02 -0.19089E+05
 0.48853004E+02 -0.20172E+05
 0.48903004E+02 -0.19645E+05
 0.48953003E+02 -0.19541E+05
 0.49003002E+02 -0.19457E+05
 0.49053001E+02 -0.18764E+05
 0.49103004E+02 -0.18565E+05
 0.49153004E+02 -0.18468E+05
 0.49203003E+02 -0.17937E+05
 0.49253002E+02 -0.18033E+05
 0.49303001E+02 -0.19284E+05
 0.49353004E+02 -0.19944E+05
 0.49403004E+02 -0.19241E+05
 0.49453003E+02 -0.18047E+05
 0.49503002E+02 -0.18609E+05
 0.49553001E+02 -0.20479E+05
 0.49603004E+02 -0.21026E+05
 0.49653004E+02 -0.22129E+05
 0.49703003E+02 -0.22278E+05
 0.49753002E+02 -0.21176E+05
 0.49803001E+02 -0.20536E+05
 0.49853004E+02 -0.19202E+05
 0.49903004E+02 -0.20121E+05
 0.49953003E+02 -0.20479E+05
 0.50003002E+02 -0.19432E+05
 0.50053001E+02 -0.21917E+05
 0.50103004E+02 -0.23114E+05
 0.50153004E+02 -0.21888E+05
 0.50203003E+02 -0.20619E+05
 0.50253002E+02 -0.17903E+05
 0.50303001E+02 -0.16823E+05
 0.50353004E+02 -0.17143E+05
 0.50403004E+02 -0.16060E+05
 0.50453003E+02 -0.16667E+05
 0.50503002E+02 -0.17193E+05
 0.50553001E+02 -0.16019E+05
 0.50603004E+02 -0.15575E+05
 0.50653004E+02 -0.16393E+05
 0.50703003E+02 -0.18287E+05
 0.50753002E+02 -0.18807E+05
 0.50803001E+02 -0.20535E+05
 0.50853004E+02 -0.22581E+05
 0.50903004E+02 -0.22490E+05
 0.50953003E+02 -0.21238E+05
 0.51003002E+02 -0.19476E+05
 0.51053001E+02 -0.19167E+05
 0.51103004E+02 -0.19628E+05
 0.51153004E+02 -0.21198E+05
 0.51203003E+02 -0.23266E+05
 0.51253002E+02 -0.23624E+05
 0.51303001E+02 -0.22328E+05
 0.51353004E+02 -0.21218E+05
 0.51403004E+02 -0.20948E+05
 0.51453003E+02 -0.20543E+05
 0.51503002E+02 -0.19901E+05
 0.51553001E+02 -0.19229E+05
 0.51603004E+02 -0.19327E+05
 0.51653004E+02 -0.20095E+05
 0.51703003E+02 -0.20770E+05
 0.51753002E+02 -0.20448E+05
 0.51803001E+02 -0.18568E+05
 0.51853004E+02 -0.17608E+05
 0.51903004E+02 -0.17458E+05
 0.51953003E+02 -0.16407E+05
 0.52003002E+02 -0.16314E+05
 0.52053001E+02 -0.18688E+05
 0.52103004E+02 -0.18176E+05
 0.52153004E+02 -0.16476E+05
 0.52203003E+02 -0.18717E+05
 0.52253002E+02 -0.19214E+05
 0.52303001E+02 -0.18681E+05
 0.52353004E+02 -0.19060E+05
 0.52403004E+02 -0.19380E+05
 0.52453003E+02 -0.20747E+05
 0.52503002E+02 -0.21450E+05
 0.52553001E+02 -0.21138E+05
 0.52603004E+02 -0.21610E+05
 0.52653004E+02 -0.22253E+05
 0.52703003E+02 -0.21732E+05
 0.52753002E+02 -0.21339E+05
 0.52803001E+02 -0.21253E+05
 0.52853004E+02 -0.20168E+05
 0.52903004E+02 -0.19005E+05
 0.52953003E+02 -0.18865E+05
 0.53003002E+02 -0.18757E+05
 0.53053001E+02 -0.18444E+05
 0.53103004E+02 -0.18472E+05
 0.53153004E+02 -0.19196E+05
 0.53203003E+02 -0.19613E+05
 0.53253002E+02 -0.19645E+05
 0.53303001E+02 -0.20587E+05
 0.53353004E+02 -0.20520E+05
 0.53403004E+02 -0.18704E+05
 0.53453003E+02 -0.19422E+05
 0.53503002E+02 -0.21572E+05
 0.53553001E+02 -0.21140E+05
 0.53603004E+02 -0.20240E+05
 0.53653004E+02 -0.19703E+05
 0.53703003E+02 -0.18916E+05
 0.53753002E+02 -0.18866E+05
 0.53803001E+02 -0.19451E+05
 0.53853004E+02 -0.18985E+05
 0.53903004E+02 -0.18752E+05
 0.53953003E+02 -0.19340E+05
 0.54003002E+02 -0.19415E+05
 0.54053001E+02 -0.19795E+05
 0.54103004E+02 -0.20186E+05
 0.54153004E+02 -0.20758E+05
 0.54203003E+02 -0.20909E+05
 0.54253002E+02 -0.19822E+05
 0.54303001E+02 -0.18837E+05
 0.54353004E+02 -0.18026E+05
 0.54403004E+02 -0.18000E+05
 0.54453003E+02 -0.18957E+05
 0.54503002E+02 -0.19613E+05
 0.54553001E+02 -0.20962E+05
 0.54603004E+02 -0.21499E+05
 0.54653004E+02 -0.19720E+05
 0.54703003E+02 -0.18845E+05
 0.54753002E+02 -0.19990E+05
 0.54803001E+02 -0.21410E+05
 0.54853004E+02 -0.21001E+05
 0.54903004E+02 -0.20016E+05
 0.54953003E+02 -0.19943E+05
 0.55003002E+02 -0.19003E+05
 0.55053001E+02 -0.18139E+05
 0.55103004E+02 -0.17664E+05
 0.55153004E+02 -0.17850E+05
 0.55203003E+02 -0.19374E+05
 0.55253002E+02 -0.20622E+05
 0.55303001E+02 -0.20964E+05
 0.55353004E+02 -0.19890E+05
 0.55403004E+02 -0.18428E+05
 0.55453003E+02 -0.18697E+05
 0.55503002E+02 -0.19883E+05
 0.55553001E+02 -0.20321E+05
 0.55603004E+02 -0.20368E+05
 0.55653004E+02 -0.19522E+05
 0.55703003E+02 -0.17929E+05
 0.55753002E+02 -0.17683E+05
 0.55803001E+02 -0.18858E+05
 0.55853001E+02 -0.19272E+05
 0.55903004E+02 -0.18788E+05
 0.55953003E+02 -0.19110E+05
 0.56003002E+02 -0.19636E+05
 0.56053001E+02 -0.19572E+05
 0.56103001E+02 -0.20042E+05
 0.56153004E+02 -0.20937E+05
 0.56203003E+02 -0.20983E+05
 0.56253002E+02 -0.20730E+05
 0.56303001E+02 -0.20497E+05
 0.56353001E+02 -0.20227E+05
 0.56403004E+02 -0.20486E+05
 0.56453003E+02 -0.20471E+05
 0.56503002E+02 -0.18917E+05
 0.56553001E+02 -0.19041E+05
 0.56603001E+02 -0.20263E+05
 0.56653004E+02 -0.19098E+05
 0.56703003E+02 -0.18731E+05
 0.56753002E+02 -0.18801E+05
 0.56803001E+02 -0.17874E+05
 0.56853001E+02 -0.17781E+05
 0.56903004E+02 -0.18452E+05
 0.56953003E+02 -0.18814E+05
 0.57003002E+02 -0.19535E+05
 0.57053001E+02 -0.21281E+05
 0.57103001E+02 -0.21524E+05
 0.57153004E+02 -0.20407E+05
 0.57203003E+02 -0.20021E+05
 0.57253002E+02 -0.19907E+05
 0.57303001E+02 -0.20224E+05
 0.57353001E+02 -0.20155E+05
 0.57403004E+02 -0.19462E+05
 0.57453003E+02 -0.19811E+05
 0.57503002E+02 -0.20830E+05
 0.57553001E+02 -0.20994E+05
 0.57603001E+02 -0.20621E+05
 0.57653004E+02 -0.21353E+05
 0.57703003E+02 -0.22046E+05
 0.57753002E+02 -0.21522E+05
 0.57803001E+02 -0.20220E+05
 0.57853001E+02 -0.19189E+05
 0.57903004E+02 -0.18856E+05
 0.57953003E+02 -0.18085E+05
 0.58003002E+02 -0.17924E+05
 0.58053001E+02 -0.18516E+05
 0.58103001E+02 -0.18991E+05
 0.58153004E+02 -0.19778E+05
 0.58203003E+02 -0.20368E+05
 0.58253002E+02 -0.20413E+05
 0.58303001E+02 -0.20196E+05
 0.58353001E+02 -0.19594E+05
 0.58403004E+02 -0.19050E+05
 0.58453003E+02 -0.19179E+05
 0.58503002E+02 -0.19391E+05
 0.58553001E+02 -0.19002E+05
 0.58603001E+02 -0.18483E+05
 0.58653004E+02 -0.17758E+05
 0.58703003E+02 -0.16776E+05
 0.58753002E+02 -0.16820E+05
 0.58803001E+02 -0.16611E+05
 0.58853001E+02 -0.17289E+05
 0.58903004E+02 -0.19768E+05
 0.58953003E+02 -0.20385E+05
 0.59003002E+02 -0.19845E+05
 0.59053001E+02 -0.20019E+05
 0.59103001E+02 -0.20337E+05
 0.59153004E+02 -0.20409E+05
 0.59203003E+02 -0.19926E+05
 0.59253002E+02 -0.19611E+05
 0.59303001E+02 -0.19443E+05
 0.59353001E+02 -0.19199E+05
 0.59403004E+02 -0.19552E+05
 0.59453003E+02 -0.19974E+05
 0.59503002E+02 -0.20273E+05
 0.59553001E+02 -0.20581E+05
 0.59603001E+02 -0.21506E+05
 0.59653004E+02 -0.22185E+05
 0.59703003E+02 -0.21340E+05
 0.59753002E+02 -0.21350E+05
 0.59803001E+02 -0.21559E+05
 0.59853001E+02 -0.20489E+05
 0.59903004E+02 -0.20424E+05
 0.59953003E+02 -0.20613E+05
 0.60003002E+02 -0.20325E+05
 0.60053001E+02 -0.20083E+05
 0.60103001E+02 -0.19304E+05
 0.60153004E+02 -0.18632E+05
 0.60203003E+02 -0.18071E+05
 0.60253002E+02 -0.17762E+05
 0.60303001E+02 -0.18544E+05
 0.60353001E+02 -0.18652E+05
 0.60403004E+02 -0.18232E+05
 0.60453003E+02 -0.19377E+05
 0.60503002E+02 -0.20291E+05
 0.60553001E+02 -0.19993E+05
 0.60603001E+02 -0.19807E+05
 0.60653004E+02 -0.19740E+05
 0.60703003E+02 -0.18966E+05
 0.60753002E+02 -0.18484E+05
 0.60803001E+02 -0.18884E+05
 0.60853001E+02 -0.19499E+05
 0.60903004E+02 -0.20192E+05
 0.60953003E+02 -0.20231E+05
 0.61003002E+02 -0.20450E+05
 0.61053001E+02 -0.20358E+05
 0.61103001E+02 -0.19512E+05
 0.61153004E+02 -0.19594E+05
 0.61203003E+02 -0.20080E+05
 0.61253002E+02 -0.20315E+05
 0.61303001E+02 -0.20963E+05
 0.61353001E+02 -0.21623E+05
 0.61403004E+02 -0.20637E+05
 0.61453003E+02 -0.19334E+05
 0.61503002E+02 -0.18607E+05
 0.61553001E+02 -0.18042E+05
 0.61603001E+02 -0.18381E+05
 0.61653004E+02 -0.18890E+05
 0.61703003E+02 -0.19732E+05
 0.61753002E+02 -0.20095E+05
 0.61803001E+02 -0.19399E+05
 0.61853001E+02 -0.19682E+05
 0.61903004E+02 -0.20012E+05
 0.61953003E+02 -0.19241E+05
 0.62003002E+02 -0.18745E+05
 0.62053001E+02 -0.19427E+05
 0.62103004E+02 -0.20321E+05
 0.62153000E+02 -0.20065E+05
 0.62203003E+02 -0.20450E+05
 0.62252998E+02 -0.21343E+05
 0.62303001E+02 -0.20786E+05
 0.62353004E+02 -0.20295E+05
 0.62403000E+02 -0.20519E+05
 0.62453003E+02 -0.20923E+05
 0.62502998E+02 -0.20880E+05
 0.62553001E+02 -0.20173E+05
 0.62603004E+02 -0.19457E+05
 0.62653000E+02 -0.18637E+05
 0.62703003E+02 -0.17993E+05
 0.62752998E+02 -0.18209E+05
 0.62803001E+02 -0.18128E+05
 0.62853004E+02 -0.17557E+05
 0.62903000E+02 -0.17671E+05
 0.62953003E+02 -0.18372E+05
 0.63002998E+02 -0.19181E+05
 0.63053001E+02 -0.19663E+05
 0.63103004E+02 -0.20470E+05
 0.63153000E+02 -0.21156E+05
 0.63203003E+02 -0.21023E+05
 0.63252998E+02 -0.19770E+05
 0.63303001E+02 -0.19151E+05
 0.63353004E+02 -0.19634E+05
 0.63403000E+02 -0.19431E+05
 0.63453003E+02 -0.19329E+05
 0.63502998E+02 -0.19059E+05
 0.63553001E+02 -0.18999E+05
 0.63603004E+02 -0.19331E+05
 0.63653000E+02 -0.19187E+05
 0.63703003E+02 -0.18931E+05
 0.63752998E+02 -0.19142E+05
 0.63803001E+02 -0.19748E+05
 0.63853004E+02 -0.20032E+05
 0.63903000E+02 -0.20499E+05
 0.63953003E+02 -0.20474E+05
 0.64002998E+02 -0.20305E+05
 0.64053001E+02 -0.20189E+05
 0.64103004E+02 -0.19147E+05
 0.64153000E+02 -0.19178E+05
 0.64203003E+02 -0.19732E+05
 0.64252998E+02 -0.19615E+05
 0.64303001E+02 -0.19962E+05
 0.64353004E+02 -0.20167E+05
 0.64403000E+02 -0.19897E+05
 0.64453003E+02 -0.19595E+05
 0.64502998E+02 -0.19286E+05
 0.64553001E+02 -0.19092E+05
 0.64603004E+02 -0.19113E+05
 0.64653000E+02 -0.18732E+05
 0.64703003E+02 -0.18817E+05
 0.64752998E+02 -0.19822E+05
 0.64803001E+02 -0.19957E+05
 0.64853004E+02 -0.20451E+05
 0.64903000E+02 -0.21605E+05
 0.64953003E+02 -0.21704E+05
 0.65002998E+02 -0.21125E+05
 0.65053001E+02 -0.20768E+05
 0.65103004E+02 -0.20804E+05
 0.65153000E+02 -0.20484E+05
 0.65203003E+02 -0.19570E+05
 0.65252998E+02 -0.18610E+05
 0.65303001E+02 -0.17926E+05
 0.65353004E+02 -0.17822E+05
 0.65403000E+02 -0.18211E+05
 0.65453003E+02 -0.18630E+05
 0.65502998E+02 -0.19279E+05
 0.65553001E+02 -0.19517E+05
 0.65603004E+02 -0.19202E+05
 0.65653000E+02 -0.19606E+05
 0.65703003E+02 -0.19810E+05
 0.65752998E+02 -0.19418E+05
 0.65803001E+02 -0.19551E+05
 0.65853004E+02 -0.19900E+05
 0.65903000E+02 -0.19909E+05
 0.65953003E+02 -0.19885E+05
 0.66002998E+02 -0.19948E+05
 0.66053001E+02 -0.19624E+05
 0.66103004E+02 -0.19119E+05
 0.66153000E+02 -0.19097E+05
 0.66203003E+02 -0.19490E+05
 0.66252998E+02 -0.19653E+05
 0.66303001E+02 -0.19927E+05
 0.66353004E+02 -0.20354E+05
 0.66403000E+02 -0.20344E+05
 0.66453003E+02 -0.20138E+05
 0.66502998E+02 -0.20105E+05
 0.66553001E+02 -0.20178E+05
 0.66603004E+02 -0.19696E+05
 0.66653000E+02 -0.18861E+05
 0.66703003E+02 -0.18380E+05
 0.66752998E+02 -0.18843E+05
 0.66803001E+02 -0.19626E+05
 0.66853004E+02 -0.20163E+05
 0.66903000E+02 -0.20836E+05
 0.66953003E+02 -0.21284E+05
 0.67002998E+02 -0.21033E+05
 0.67053001E+02 -0.20635E+05
 0.67103004E+02 -0.20290E+05
 0.67153000E+02 -0.19141E+05
 0.67203003E+02 -0.18239E+05
 0.67252998E+02 -0.18146E+05
 0.67303001E+02 -0.17877E+05
 0.67353004E+02 -0.17325E+05
 0.67403000E+02 -0.17616E+05
 0.67453003E+02 -0.18586E+05
 0.67502998E+02 -0.19277E+05
 0.67553001E+02 -0.19656E+05
 0.67603004E+02 -0.19636E+05
 0.67653000E+02 -0.19796E+05
 0.67703003E+02 -0.19801E+05
 0.67752998E+02 -0.19414E+05
 0.67803001E+02 -0.19016E+05
 0.67853004E+02 -0.19447E+05
 0.67903000E+02 -0.20140E+05
 0.67953003E+02 -0.19773E+05
 0.68002998E+02 -0.19583E+05
 0.68053001E+02 -0.19811E+05
 0.68103004E+02 -0.19860E+05
 0.68153000E+02 -0.19825E+05
 0.68203003E+02 -0.19812E+05
 0.68252998E+02 -0.20077E+05
 0.68303001E+02 -0.20126E+05
 0.68353004E+02 -0.19851E+05
 0.68403000E+02 -0.19927E+05
 0.68453003E+02 -0.20238E+05
 0.68502998E+02 -0.20998E+05
 0.68553001E+02 -0.21711E+05
 0.68603004E+02 -0.21720E+05
 0.68653000E+02 -0.21750E+05
 0.68703003E+02 -0.21211E+05
 0.68752998E+02 -0.19922E+05
 0.68803001E+02 -0.18959E+05
 0.68853004E+02 -0.18542E+05
 0.68903000E+02 -0.18610E+05
 0.68953003E+02 -0.18982E+05
 0.69002998E+02 -0.19808E+05
 0.69053001E+02 -0.20131E+05
 0.69103004E+02 -0.19499E+05
 0.69153000E+02 -0.18881E+05
 0.69203003E+02 -0.18228E+05
 0.69252998E+02 -0.18108E+05
 0.69303001E+02 -0.18289E+05
 0.69353004E+02 -0.18323E+05
 0.69403000E+02 -0.18424E+05
 0.69453003E+02 -0.18485E+05
 0.69502998E+02 -0.18681E+05
 0.69553001E+02 -0.19131E+05
 0.69603004E+02 -0.19266E+05
 0.69653000E+02 -0.19004E+05
 0.69703003E+02 -0.19488E+05
 0.69752998E+02 -0.20587E+05
 0.69803001E+02 -0.21237E+05
 0.69853004E+02 -0.21446E+05
 0.69903000E+02 -0.21541E+05
 0.69953003E+02 -0.21448E+05
 0.70002998E+02 -0.21169E+05
 0.70053001E+02 -0.20828E+05
 0.70103004E+02 -0.20720E+05
 0.70153000E+02 -0.20587E+05
 0.70203003E+02 -0.20409E+05
 0.70252998E+02 -0.20223E+05
 0.70303001E+02 -0.19883E+05
 0.70353004E+02 -0.19681E+05
 0.70403000E+02 -0.19350E+05
 0.70453003E+02 -0.18925E+05
 0.70502998E+02 -0.18844E+05
 0.70553001E+02 -0.18795E+05
 0.70603004E+02 -0.18685E+05
 0.70653000E+02 -0.19063E+05
 0.70703003E+02 -0.19845E+05
 0.70752998E+02 -0.20520E+05
 0.70803001E+02 -0.20720E+05
 0.70853004E+02 -0.20503E+05
 0.70903000E+02 -0.20277E+05
 0.70953003E+02 -0.19727E+05
 0.71002998E+02 -0.18952E+05
 0.71053001E+02 -0.18842E+05
 0.71103004E+02 -0.18917E+05
 0.71153000E+02 -0.19234E+05
 0.71203003E+02 -0.19587E+05
 0.71252998E+02 -0.19347E+05
 0.71303001E+02 -0.18947E+05
 0.71353004E+02 -0.18514E+05
 0.71403000E+02 -0.18407E+05
 0.71453003E+02 -0.18261E+05
 0.71502998E+02 -0.18325E+05
 0.71553001E+02 -0.18971E+05
 0.71603004E+02 -0.20089E+05
 0.71653000E+02 -0.20787E+05
 0.71703003E+02 -0.20507E+05
 0.71752998E+02 -0.20412E+05
 0.71803001E+02 -0.20478E+05
 0.71853004E+02 -0.20037E+05
 0.71903000E+02 -0.19511E+05
 0.71953003E+02 -0.19678E+05
 0.72002998E+02 -0.20153E+05
 0.72053001E+02 -0.20126E+05
 0.72103004E+02 -0.19822E+05
 0.72153000E+02 -0.19498E+05
 0.72203003E+02 -0.18989E+05
 0.72252998E+02 -0.18708E+05
 0.72303001E+02 -0.18558E+05
 0.72353004E+02 -0.18517E+05
 0.72403000E+02 -0.18680E+05
 0.72453003E+02 -0.19054E+05
 0.72502998E+02 -0.19635E+05
 0.72553001E+02 -0.19992E+05
 0.72603004E+02 -0.20069E+05
 0.72653000E+02 -0.19945E+05
 0.72703003E+02 -0.20047E+05
 0.72752998E+02 -0.20165E+05
 0.72803001E+02 -0.20076E+05
 0.72853004E+02 -0.20420E+05
 0.72903000E+02 -0.20469E+05
 0.72953003E+02 -0.19933E+05
 0.73002998E+02 -0.19716E+05
 0.73053001E+02 -0.19665E+05
 0.73103004E+02 -0.19333E+05
 0.73153000E+02 -0.19180E+05
 0.73203003E+02 -0.19613E+05
 0.73252998E+02 -0.19608E+05
 0.73303001E+02 -0.18940E+05
 0.73353004E+02 -0.18497E+05
 0.73403000E+02 -0.18915E+05
 0.73453003E+02 -0.19602E+05
 0.73502998E+02 -0.19821E+05
 0.73553001E+02 -0.20040E+05
 0.73603004E+02 -0.20058E+05
 0.73653000E+02 -0.19650E+05
 0.73703003E+02 -0.19361E+05
 0.73752998E+02 -0.19392E+05
 0.73803001E+02 -0.19361E+05
 0.73853004E+02 -0.19441E+05
 0.73903000E+02 -0.19633E+05
 0.73953003E+02 -0.19511E+05
 0.74002998E+02 -0.19237E+05
 0.74053001E+02 -0.19214E+05
 0.74103004E+02 -0.19347E+05
 0.74153000E+02 -0.19374E+05
 0.74203003E+02 -0.19424E+05
 0.74252998E+02 -0.19665E+05
 0.74303001E+02 -0.19976E+05
 0.74353004E+02 -0.19987E+05
 0.74403000E+02 -0.20185E+05
 0.74453003E+02 -0.20412E+05
 0.74502998E+02 -0.20400E+05
 0.74553001E+02 -0.20508E+05
 0.74603004E+02 -0.20401E+05
 0.74653000E+02 -0.20419E+05
 0.74703003E+02 -0.20435E+05
 0.74752998E+02 -0.20251E+05
 0.74803001E+02 -0.20341E+05
 0.74853004E+02 -0.20399E+05
 0.74903000E+02 -0.20453E+05
 0.74953003E+02 -0.20591E+05
 0.75002998E+02 -0.20184E+05
 0.75053001E+02 -0.19615E+05
 0.75103004E+02 -0.19552E+05
 0.75153000E+02 -0.19462E+05
 0.75203003E+02 -0.19198E+05
 0.75252998E+02 -0.19136E+05
 0.75303001E+02 -0.19131E+05
 0.75353004E+02 -0.19103E+05
 0.75403000E+02 -0.19119E+05
 0.75453003E+02 -0.19181E+05
 0.75502998E+02 -0.19318E+05
 0.75553001E+02 -0.19453E+05
 0.75603004E+02 -0.19437E+05
 0.75653000E+02 -0.19346E+05
 0.75703003E+02 -0.19307E+05
 0.75752998E+02 -0.19015E+05
 0.75803001E+02 -0.18584E+05
 0.75853004E+02 -0.18407E+05
 0.75903000E+02 -0.18339E+05
 0.75953003E+02 -0.18234E+05
 0.76002998E+02 -0.18124E+05
 0.76053001E+02 -0.18320E+05
 0.76103004E+02 -0.18900E+05
 0.76153000E+02 -0.19416E+05
 0.76203003E+02 -0.19650E+05
 0.76252998E+02 -0.19611E+05
 0.76303001E+02 -0.19668E+05
 0.76353004E+02 -0.19764E+05
 0.76403000E+02 -0.19535E+05
 0.76453003E+02 -0.19372E+05
 0.76502998E+02 -0.19533E+05
 0.76553001E+02 -0.19731E+05
 0.76603004E+02 -0.20192E+05
 0.76653000E+02 -0.20914E+05
 0.76703003E+02 -0.21293E+05
 0.76752998E+02 -0.21192E+05
 0.76803001E+02 -0.21000E+05
 0.76853004E+02 -0.20868E+05
 0.76903000E+02 -0.20723E+05
 0.76953003E+02 -0.20771E+05
 0.77002998E+02 -0.20688E+05
 0.77053001E+02 -0.20580E+05
 0.77103004E+02 -0.20893E+05
 0.77153000E+02 -0.21036E+05
 0.77203003E+02 -0.20697E+05
 0.77252998E+02 -0.20630E+05
 0.77303001E+02 -0.20958E+05
 0.77353004E+02 -0.20978E+05
 0.77403000E+02 -0.20608E+05
 0.77453003E+02 -0.20073E+05
 0.77502998E+02 -0.19816E+05
 0.77553001E+02 -0.19628E+05
 0.77603004E+02 -0.19151E+05
 0.77653000E+02 -0.18830E+05
 0.77703003E+02 -0.18430E+05
 0.77752998E+02 -0.17943E+05
 0.77803001E+02 -0.17580E+05
 0.77853004E+02 -0.17532E+05
 0.77903000E+02 -0.17833E+05
 0.77953003E+02 -0.18056E+05
 0.78002998E+02 -0.18188E+05
 0.78053001E+02 -0.18357E+05
 0.78103004E+02 -0.18720E+05
 0.78153000E+02 -0.18911E+05
 0.78203003E+02 -0.19144E+05
 0.78252998E+02 -0.19720E+05
 0.78303001E+02 -0.19993E+05
 0.78353004E+02 -0.19897E+05
 0.78403000E+02 -0.19672E+05
 0.78453003E+02 -0.19278E+05
 0.78502998E+02 -0.18764E+05
 0.78553001E+02 -0.18709E+05
 0.78603004E+02 -0.19261E+05
 0.78653000E+02 -0.19936E+05
 0.78703003E+02 -0.20319E+05
 0.78752998E+02 -0.20388E+05
 0.78803001E+02 -0.20449E+05
 0.78853004E+02 -0.20290E+05
 0.78903000E+02 -0.20211E+05
 0.78953003E+02 -0.20426E+05
 0.79002998E+02 -0.20458E+05
 0.79053001E+02 -0.20441E+05
 0.79103004E+02 -0.20294E+05
 0.79153000E+02 -0.19895E+05
 0.79203003E+02 -0.19721E+05
 0.79252998E+02 -0.19429E+05
 0.79303001E+02 -0.19103E+05
 0.79353004E+02 -0.19087E+05
 0.79403000E+02 -0.19024E+05
 0.79453003E+02 -0.19083E+05
 0.79502998E+02 -0.19344E+05
 0.79553001E+02 -0.19714E+05
 0.79603004E+02 -0.19946E+05
 0.79653000E+02 -0.19962E+05
 0.79703003E+02 -0.19711E+05
 0.79752998E+02 -0.19468E+05
 0.79803001E+02 -0.19493E+05
 0.79853004E+02 -0.19672E+05
 0.79903000E+02 -0.19936E+05
 0.79953003E+02 -0.20005E+05
 0.80002998E+02 -0.20006E+05
 0.80053001E+02 -0.20065E+05
 0.80103004E+02 -0.20074E+05
 0.80153000E+02 -0.20044E+05
 0.80203003E+02 -0.20188E+05
 0.80252998E+02 -0.20124E+05
 0.80303001E+02 -0.19691E+05
 0.80353004E+02 -0.19547E+05
 0.80403000E+02 -0.19690E+05
 0.80453003E+02 -0.19828E+05
 0.80502998E+02 -0.19842E+05
 0.80553001E+02 -0.19833E+05
 0.80603004E+02 -0.19813E+05
 0.80653000E+02 -0.19716E+05
 0.80703003E+02 -0.19569E+05
 0.80752998E+02 -0.19411E+05
 0.80803001E+02 -0.19273E+05
 0.80853004E+02 -0.19250E+05
 0.80903000E+02 -0.19416E+05
 0.80953003E+02 -0.19384E+05
 0.81002998E+02 -0.19109E+05
 0.81053001E+02 -0.18736E+05
 0.81103004E+02 -0.18514E+05
 0.81153000E+02 -0.18702E+05
 0.81203003E+02 -0.18902E+05
 0.81252998E+02 -0.19062E+05
 0.81303001E+02 -0.19350E+05
 0.81353004E+02 -0.19382E+05
 0.81403000E+02 -0.19226E+05
 0.81453003E+02 -0.19317E+05
 0.81502998E+02 -0.19457E+05
 0.81553001E+02 -0.19413E+05
 0.81603004E+02 -0.19517E+05
 0.81653000E+02 -0.19687E+05
 0.81703003E+02 -0.19916E+05
 0.81752998E+02 -0.20190E+05
 0.81803001E+02 -0.20158E+05
 0.81853004E+02 -0.20245E+05
 0.81903000E+02 -0.20363E+05
 0.81953003E+02 -0.20286E+05
 0.82002998E+02 -0.20432E+05
 0.82053001E+02 -0.20415E+05
 0.82103004E+02 -0.20305E+05
 0.82153000E+02 -0.20629E+05
 0.82203003E+02 -0.20806E+05
 0.82252998E+02 -0.20588E+05
 0.82303001E+02 -0.20305E+05
 0.82353004E+02 -0.20056E+05
 0.82403000E+02 -0.19768E+05
 0.82453003E+02 -0.19414E+05
 0.82502998E+02 -0.19241E+05
 0.82553001E+02 -0.19313E+05
 0.82603004E+02 -0.19475E+05
 0.82653000E+02 -0.19614E+05
 0.82703003E+02 -0.19750E+05
 0.82752998E+02 -0.19770E+05
 0.82803001E+02 -0.19510E+05
 0.82853004E+02 -0.19184E+05
 0.82903000E+02 -0.19206E+05
 0.82953003E+02 -0.19568E+05
 0.83002998E+02 -0.19574E+05
 0.83053001E+02 -0.19241E+05
 0.83103004E+02 -0.19070E+05
 0.83153000E+02 -0.19031E+05
 0.83203003E+02 -0.18875E+05
 0.83252998E+02 -0.18783E+05
 0.83303001E+02 -0.19134E+05
 0.83353004E+02 -0.19429E+05
 0.83403000E+02 -0.19472E+05
 0.83453003E+02 -0.19738E+05
 0.83502998E+02 -0.20057E+05
 0.83553001E+02 -0.20090E+05
 0.83603004E+02 -0.20001E+05
 0.83653000E+02 -0.19956E+05
 0.83703003E+02 -0.19941E+05
 0.83752998E+02 -0.19770E+05
 0.83803001E+02 -0.19464E+05
 0.83853004E+02 -0.19188E+05
 0.83903000E+02 -0.18947E+05
 0.83953003E+02 -0.19051E+05
 0.84002998E+02 -0.19380E+05
 0.84053001E+02 -0.19500E+05
 0.84103004E+02 -0.19426E+05
 0.84153000E+02 -0.19418E+05
 0.84203003E+02 -0.19323E+05
 0.84252998E+02 -0.19196E+05
 0.84303001E+02 -0.19319E+05
 0.84353004E+02 -0.19329E+05
 0.84403000E+02 -0.19303E+05
 0.84453003E+02 -0.19328E+05
 0.84502998E+02 -0.19275E+05
 0.84553001E+02 -0.19579E+05
 0.84603004E+02 -0.20034E+05
 0.84653000E+02 -0.20149E+05
 0.84703003E+02 -0.20140E+05
 0.84752998E+02 -0.20076E+05
 0.84803001E+02 -0.19833E+05
 0.84853004E+02 -0.19586E+05
 0.84903000E+02 -0.19632E+05
 0.84953003E+02 -0.19744E+05
 0.85002998E+02 -0.19724E+05
 0.85053001E+02 -0.19655E+05
 0.85103004E+02 -0.19603E+05
 0.85153000E+02 -0.19663E+05
 0.85203003E+02 -0.19809E+05
 0.85252998E+02 -0.19997E+05
 0.85303001E+02 -0.20154E+05
 0.85353004E+02 -0.20130E+05
 0.85403000E+02 -0.20153E+05
 0.85453003E+02 -0.20357E+05
 0.85502998E+02 -0.20501E+05
 0.85553001E+02 -0.20383E+05
 0.85603004E+02 -0.20053E+05
 0.85653000E+02 -0.19892E+05
 0.85703003E+02 -0.19985E+05
 0.85752998E+02 -0.20049E+05
 0.85803001E+02 -0.19866E+05
 0.85853004E+02 -0.19737E+05
 0.85903000E+02 -0.19729E+05
 0.85953003E+02 -0.19827E+05
 0.86002998E+02 -0.19992E+05
 0.86053001E+02 -0.19807E+05
 0.86103004E+02 -0.19511E+05
 0.86153000E+02 -0.19387E+05
 0.86203003E+02 -0.19124E+05
 0.86252998E+02 -0.18919E+05
 0.86303001E+02 -0.19025E+05
 0.86353004E+02 -0.19063E+05
 0.86403000E+02 -0.19077E+05
 0.86453003E+02 -0.19098E+05
 0.86502998E+02 -0.19145E+05
 0.86553001E+02 -0.19444E+05
 0.86603004E+02 -0.19688E+05
 0.86653000E+02 -0.19549E+05
 0.86703003E+02 -0.19315E+05
 0.86752998E+02 -0.19241E+05
 0.86803001E+02 -0.19222E+05
 0.86853004E+02 -0.19285E+05
 0.86903000E+02 -0.19338E+05
 0.86953003E+02 -0.19372E+05
 0.87002998E+02 -0.19346E+05
 0.87053001E+02 -0.19291E+05
 0.87103004E+02 -0.19555E+05
 0.87153000E+02 -0.19851E+05
 0.87203003E+02 -0.20121E+05
 0.87252998E+02 -0.20378E+05
 0.87303001E+02 -0.20355E+05
 0.87353004E+02 -0.20251E+05
 0.87403000E+02 -0.20179E+05
 0.87453003E+02 -0.20032E+05
 0.87502998E+02 -0.19866E+05
 0.87553001E+02 -0.19878E+05
 0.87602997E+02 -0.19947E+05
 0.87653000E+02 -0.19896E+05
 0.87703003E+02 -0.19676E+05
 0.87752998E+02 -0.19393E+05
 0.87803001E+02 -0.19264E+05
 0.87852997E+02 -0.19250E+05
 0.87903000E+02 -0.19238E+05
 0.87953003E+02 -0.19358E+05
 0.88002998E+02 -0.19594E+05
 0.88053001E+02 -0.19573E+05
 0.88102997E+02 -0.19477E+05
 0.88153000E+02 -0.19511E+05
 0.88203003E+02 -0.19527E+05
 0.88252998E+02 -0.19717E+05
 0.88303001E+02 -0.19947E+05
 0.88352997E+02 -0.20120E+05
 0.88403000E+02 -0.20269E+05
 0.88453003E+02 -0.20259E+05
 0.88502998E+02 -0.20225E+05
 0.88553001E+02 -0.20241E+05
 0.88602997E+02 -0.20057E+05
 0.88653000E+02 -0.19618E+05
 0.88703003E+02 -0.19433E+05
 0.88752998E+02 -0.19421E+05
 0.88803001E+02 -0.19248E+05
 0.88852997E+02 -0.19130E+05
 0.88903000E+02 -0.19156E+05
 0.88953003E+02 -0.19426E+05
 0.89002998E+02 -0.19698E+05
 0.89053001E+02 -0.19786E+05
 0.89102997E+02 -0.19823E+05
 0.89153000E+02 -0.19805E+05
 0.89203003E+02 -0.19814E+05
 0.89252998E+02 -0.19858E+05
 0.89303001E+02 -0.19702E+05
 0.89352997E+02 -0.19308E+05
 0.89403000E+02 -0.19099E+05
 0.89453003E+02 -0.19132E+05
 0.89502998E+02 -0.19056E+05
 0.89553001E+02 -0.18898E+05
 0.89602997E+02 -0.18935E+05
 0.89653000E+02 -0.19179E+05
 0.89703003E+02 -0.19373E+05
 0.89752998E+02 -0.19488E+05
 0.89803001E+02 -0.19502E+05
 0.89852997E+02 -0.19436E+05
 0.89903000E+02 -0.19567E+05
 0.89953003E+02 -0.19823E+05
 0.90002998E+02 -0.20062E+05
 0.90053001E+02 -0.20157E+05
 0.90102997E+02 -0.20075E+05
 0.90153000E+02 -0.19975E+05
 0.90203003E+02 -0.19948E+05
 0.90252998E+02 -0.19791E+05
 0.90303001E+02 -0.19569E+05
 0.90352997E+02 -0.19608E+05
 0.90403000E+02 -0.19719E+05
 0.90453003E+02 -0.19697E+05
 0.90502998E+02 -0.19750E+05
 0.90553001E+02 -0.19996E+05
 0.90602997E+02 -0.19959E+05
 0.90653000E+02 -0.19742E+05
 0.90703003E+02 -0.19793E+05
 0.90752998E+02 -0.19981E+05
 0.90803001E+02 -0.20013E+05
 0.90852997E+02 -0.19822E+05
 0.90903000E+02 -0.19548E+05
 0.90953003E+02 -0.19302E+05
 0.91002998E+02 -0.19264E+05
 0.91053001E+02 -0.19316E+05
 0.91102997E+02 -0.19368E+05
 0.91153000E+02 -0.19432E+05
 0.91203003E+02 -0.19361E+05
 0.91252998E+02 -0.19385E+05
 0.91303001E+02 -0.19646E+05
 0.91352997E+02 -0.19767E+05
 0.91403000E+02 -0.19811E+05
 0.91453003E+02 -0.19926E+05
 0.91502998E+02 -0.19773E+05
 0.91553001E+02 -0.19449E+05
 0.91602997E+02 -0.19270E+05
 0.91653000E+02 -0.19166E+05
 0.91703003E+02 -0.19093E+05
 0.91752998E+02 -0.19045E+05
 0.91803001E+02 -0.19057E+05
 0.91852997E+02 -0.19105E+05
 0.91903000E+02 -0.19193E+05
 0.91953003E+02 -0.19371E+05
 0.92002998E+02 -0.19624E+05
 0.92053001E+02 -0.19895E+05
 0.92102997E+02 -0.19968E+05
 0.92153000E+02 -0.20062E+05
 0.92203003E+02 -0.20018E+05
 0.92252998E+02 -0.19712E+05
 0.92303001E+02 -0.19594E+05
 0.92352997E+02 -0.19648E+05
 0.92403000E+02 -0.19822E+05
 0.92453003E+02 -0.19948E+05
 0.92502998E+02 -0.20114E+05
 0.92553001E+02 -0.20445E+05
 0.92602997E+02 -0.20515E+05
 0.92653000E+02 -0.20507E+05
 0.92703003E+02 -0.20532E+05
 0.92752998E+02 -0.20431E+05
 0.92803001E+02 -0.20388E+05
 0.92852997E+02 -0.20395E+05
 0.92903000E+02 -0.20404E+05
 0.92953003E+02 -0.20309E+05
 0.93002998E+02 -0.20125E+05
 0.93053001E+02 -0.19909E+05
 0.93102997E+02 -0.19606E+05
 0.93153000E+02 -0.19207E+05
 0.93203003E+02 -0.18930E+05
 0.93252998E+02 -0.18871E+05
 0.93303001E+02 -0.18854E+05
 0.93352997E+02 -0.18912E+05
 0.93403000E+02 -0.19081E+05
 0.93453003E+02 -0.19241E+05
 0.93502998E+02 -0.19475E+05
 0.93553001E+02 -0.19539E+05
 0.93602997E+02 -0.19323E+05
 0.93653000E+02 -0.19137E+05
 0.93703003E+02 -0.18976E+05
 0.93752998E+02 -0.18946E+05
 0.93803001E+02 -0.19011E+05
 0.93852997E+02 -0.19143E+05
 0.93903000E+02 -0.19248E+05
 0.93953003E+02 -0.19313E+05
 0.94002998E+02 -0.19440E+05
 0.94053001E+02 -0.19566E+05
 0.94102997E+02 -0.19745E+05
 0.94153000E+02 -0.19893E+05
 0.94203003E+02 -0.19886E+05
 0.94252998E+02 -0.19752E+05
 0.94303001E+02 -0.19545E+05
 0.94352997E+02 -0.19356E+05
 0.94403000E+02 -0.19330E+05
 0.94453003E+02 -0.19447E+05
 0.94502998E+02 -0.19593E+05
 0.94553001E+02 -0.19722E+05
 0.94602997E+02 -0.19738E+05
 0.94653000E+02 -0.19672E+05
 0.94703003E+02 -0.19688E+05
 0.94752998E+02 -0.19718E+05
 0.94803001E+02 -0.19739E+05
 0.94852997E+02 -0.19790E+05
 0.94903000E+02 -0.19992E+05
 0.94953003E+02 -0.20148E+05
 0.95002998E+02 -0.20095E+05
 0.95053001E+02 -0.20100E+05
 0.95102997E+02 -0.20166E+05
 0.95153000E+02 -0.20289E+05
 0.95203003E+02 -0.20373E+05
 0.95252998E+02 -0.20290E+05
 0.95303001E+02 -0.20038E+05
 0.95352997E+02 -0.19788E+05
 0.95403000E+02 -0.19497E+05
 0.95453003E+02 -0.19190E+05
 0.95502998E+02 -0.19164E+05
 0.95553001E+02 -0.19335E+05
 0.95602997E+02 -0.19514E+05
 0.95653000E+02 -0.19543E+05
 0.95703003E+02 -0.19554E+05
 0.95752998E+02 -0.19680E+05
 0.95803001E+02 -0.19768E+05
 0.95852997E+02 -0.19736E+05
 0.95903000E+02 -0.19732E+05
 0.95953003E+02 -0.19696E+05
 0.96002998E+02 -0.19567E+05
 0.96053001E+02 -0.19452E+05
 0.96102997E+02 -0.19252E+05
 0.96153000E+02 -0.19162E+05
 0.96203003E+02 -0.19371E+05
 0.96252998E+02 -0.19646E+05
 0.96303001E+02 -0.19771E+05
 0.96352997E+02 -0.19773E+05
 0.96403000E+02 -0.19521E+05
 0.96453003E+02 -0.19194E+05
 0.96502998E+02 -0.19092E+05
 0.96553001E+02 -0.19133E+05
 0.96602997E+02 -0.19294E+05
 0.96653000E+02 -0.19467E+05
 0.96703003E+02 -0.19646E+05
 0.96752998E+02 -0.19788E+05
 0.96803001E+02 -0.19823E+05
 0.96852997E+02 -0.19869E+05
 0.96903000E+02 -0.19809E+05
 0.96953003E+02 -0.19568E+05
 0.97002998E+02 -0.19482E+05
 0.97053001E+02 -0.19501E+05
 0.97102997E+02 -0.19398E+05
 0.97153000E+02 -0.19405E+05
 0.97203003E+02 -0.19513E+05
 0.97252998E+02 -0.19447E+05
 0.97303001E+02 -0.19337E+05
 0.97352997E+02 -0.19421E+05
 0.97403000E+02 -0.19522E+05
 0.97453003E+02 -0.19553E+05
 0.97502998E+02 -0.19656E+05
 0.97553001E+02 -0.19803E+05
 0.97602997E+02 -0.19889E+05
 0.97653000E+02 -0.19925E+05
 0.97703003E+02 -0.19862E+05
 0.97752998E+02 -0.19794E+05
 0.97803001E+02 -0.19774E+05
 0.97852997E+02 -0.19699E+05
 0.97903000E+02 -0.19724E+05
 0.97953003E+02 -0.20013E+05
 0.98002998E+02 -0.20358E+05
