-0.20000000E+01 -0.26874E+05
-0.19500000E+01 -0.24000E+05
-0.19000000E+01 -0.21103E+05
-0.18500000E+01 -0.17602E+05
-0.18000000E+01 -0.13173E+05
-0.17500000E+01 -0.70249E+04
-0.17000000E+01  0.12287E+04
-0.16500001E+01  0.11316E+05
-0.16000000E+01  0.22564E+05
-0.15500000E+01  0.33863E+05
-0.15000000E+01  0.44395E+05
-0.14500000E+01  0.53719E+05
-0.14000001E+01  0.61922E+05
-0.13500000E+01  0.68830E+05
-0.13000001E+01  0.73563E+05
-0.12500000E+01  0.75401E+05
-0.12000000E+01  0.73567E+05
-0.11500001E+01  0.68063E+05
-0.11000000E+01  0.59167E+05
-0.10500001E+01  0.47642E+05
-0.10000000E+01  0.35117E+05
-0.95000005E+00  0.22499E+05
-0.90000010E+00  0.98223E+04
-0.85000002E+00 -0.26960E+04
-0.80000007E+00 -0.14201E+05
-0.75000012E+00 -0.24372E+05
-0.70000005E+00 -0.33027E+05
-0.65000010E+00 -0.39686E+05
-0.60000014E+00 -0.44294E+05
-0.55000007E+00 -0.46799E+05
-0.50000012E+00 -0.47247E+05
-0.45000005E+00 -0.45604E+05
-0.40000010E+00 -0.42270E+05
-0.35000014E+00 -0.37707E+05
-0.30000007E+00 -0.31670E+05
-0.25000012E+00 -0.24134E+05
-0.20000005E+00 -0.15269E+05
-0.15000010E+00 -0.53210E+04
-0.10000014E+00  0.54367E+04
-0.50000072E-01  0.16800E+05
-0.11920929E-06  0.28420E+05
 0.49999952E-01  0.39800E+05
 0.99999905E-01  0.50146E+05
 0.14999986E+00  0.58498E+05
 0.19999981E+00  0.64060E+05
 0.24999976E+00  0.66638E+05
 0.29999995E+00  0.66674E+05
 0.34999990E+00  0.64517E+05
 0.39999986E+00  0.60783E+05
 0.44999981E+00  0.56400E+05
 0.49999976E+00  0.51613E+05
 0.54999995E+00  0.46296E+05
 0.59999990E+00  0.40505E+05
 0.64999986E+00  0.34658E+05
 0.69999981E+00  0.29654E+05
 0.74999976E+00  0.26156E+05
 0.79999971E+00  0.24649E+05
 0.84999990E+00  0.25463E+05
 0.89999986E+00  0.27716E+05
 0.94999981E+00  0.30233E+05
 0.99999976E+00  0.32357E+05
 0.10499997E+01  0.33590E+05
 0.10999999E+01  0.33414E+05
 0.11499999E+01  0.31697E+05
 0.11999998E+01  0.28512E+05
 0.12499998E+01  0.23873E+05
 0.12999997E+01  0.18147E+05
 0.13499999E+01  0.11477E+05
 0.13999999E+01  0.37166E+04
 0.14499998E+01 -0.54107E+04
 0.14999998E+01 -0.15529E+05
 0.15499997E+01 -0.26152E+05
 0.15999999E+01 -0.37190E+05
 0.16499999E+01 -0.48526E+05
 0.16999998E+01 -0.60005E+05
 0.17499998E+01 -0.71086E+05
 0.17999997E+01 -0.81106E+05
 0.18499997E+01 -0.89667E+05
 0.18999999E+01 -0.96857E+05
 0.19499998E+01 -0.10300E+06
 0.19999998E+01 -0.10814E+06
 0.20499997E+01 -0.11176E+06
 0.20999999E+01 -0.11334E+06
 0.21499996E+01 -0.11270E+06
 0.21999998E+01 -0.10964E+06
 0.22499995E+01 -0.10425E+06
 0.22999997E+01 -0.97674E+05
 0.23499999E+01 -0.91348E+05
 0.23999996E+01 -0.85747E+05
 0.24499998E+01 -0.80405E+05
 0.24999995E+01 -0.75048E+05
 0.25499997E+01 -0.69841E+05
 0.25999999E+01 -0.64668E+05
 0.26499996E+01 -0.59204E+05
 0.26999998E+01 -0.53194E+05
 0.27499995E+01 -0.46345E+05
 0.27999997E+01 -0.38405E+05
 0.28499999E+01 -0.29542E+05
 0.28999996E+01 -0.20301E+05
 0.29499998E+01 -0.11219E+05
 0.29999995E+01 -0.26306E+04
 0.30499997E+01  0.54791E+04
 0.30999999E+01  0.13373E+05
 0.31499996E+01  0.21027E+05
 0.31999998E+01  0.28069E+05
 0.32499995E+01  0.33847E+05
 0.32999997E+01  0.38008E+05
 0.33499999E+01  0.40432E+05
 0.33999996E+01  0.41116E+05
 0.34499998E+01  0.40031E+05
 0.34999995E+01  0.36973E+05
 0.35499997E+01  0.32159E+05
 0.35999994E+01  0.25789E+05
 0.36499996E+01  0.18298E+05
 0.36999998E+01  0.10263E+05
 0.37499995E+01  0.20276E+04
 0.37999997E+01 -0.62585E+04
 0.38499994E+01 -0.14279E+05
 0.38999996E+01 -0.21645E+05
 0.39499998E+01 -0.28234E+05
 0.39999995E+01 -0.33948E+05
 0.40499997E+01 -0.38859E+05
 0.40999994E+01 -0.42613E+05
 0.41499996E+01 -0.45176E+05
 0.41999998E+01 -0.47095E+05
 0.42499995E+01 -0.48806E+05
 0.42999997E+01 -0.50546E+05
 0.43499994E+01 -0.52195E+05
 0.43999996E+01 -0.53229E+05
 0.44499998E+01 -0.53138E+05
 0.44999995E+01 -0.51781E+05
 0.45499997E+01 -0.49185E+05
 0.45999994E+01 -0.45337E+05
 0.46499996E+01 -0.40195E+05
 0.46999998E+01 -0.34088E+05
 0.47499995E+01 -0.27577E+05
 0.47999997E+01 -0.20815E+05
 0.48499994E+01 -0.13526E+05
 0.48999996E+01 -0.55497E+04
 0.49499998E+01  0.23811E+04
 0.49999995E+01  0.93844E+04
 0.50499997E+01  0.15385E+05
 0.50999994E+01  0.20577E+05
 0.51499996E+01  0.25164E+05
 0.51999998E+01  0.29285E+05
 0.52499995E+01  0.33064E+05
 0.52999997E+01  0.36461E+05
 0.53499994E+01  0.39262E+05
 0.53999996E+01  0.41285E+05
 0.54499993E+01  0.42734E+05
 0.54999995E+01  0.43780E+05
 0.55499997E+01  0.44576E+05
 0.55999994E+01  0.45500E+05
 0.56499996E+01  0.46866E+05
 0.56999993E+01  0.49068E+05
 0.57499995E+01  0.52191E+05
 0.57999997E+01  0.55826E+05
 0.58499994E+01  0.59713E+05
 0.58999996E+01  0.63772E+05
 0.59499993E+01  0.67149E+05
 0.59999995E+01  0.68782E+05
 0.60499992E+01  0.68454E+05
 0.60999994E+01  0.66019E+05
 0.61499996E+01  0.61327E+05
 0.61999998E+01  0.54615E+05
 0.62499990E+01  0.46019E+05
 0.62999992E+01  0.35105E+05
 0.63499994E+01  0.21613E+05
 0.63999996E+01  0.58807E+04
 0.64499998E+01 -0.11615E+05
 0.64999990E+01 -0.29744E+05
 0.65499992E+01 -0.47427E+05
 0.65999994E+01 -0.64016E+05
 0.66499996E+01 -0.79337E+05
 0.66999998E+01 -0.93369E+05
 0.67499990E+01 -0.10575E+06
 0.67999992E+01 -0.11610E+06
 0.68499994E+01 -0.12405E+06
 0.68999996E+01 -0.12951E+06
 0.69499998E+01 -0.13249E+06
 0.69999990E+01 -0.13307E+06
 0.70499992E+01 -0.13131E+06
 0.70999994E+01 -0.12739E+06
 0.71499996E+01 -0.12145E+06
 0.71999998E+01 -0.11335E+06
 0.72499990E+01 -0.10301E+06
 0.72999992E+01 -0.90673E+05
 0.73499994E+01 -0.76962E+05
 0.73999996E+01 -0.62597E+05
 0.74499998E+01 -0.48236E+05
 0.74999990E+01 -0.34632E+05
 0.75499992E+01 -0.22144E+05
 0.75999994E+01 -0.11027E+05
 0.76499996E+01 -0.13459E+04
 0.76999998E+01  0.66609E+04
 0.77499990E+01  0.12557E+05
 0.77999992E+01  0.16104E+05
 0.78499994E+01  0.17434E+05
 0.78999996E+01  0.16727E+05
 0.79499998E+01  0.14004E+05
 0.79999990E+01  0.95648E+04
 0.80499992E+01  0.36345E+04
 0.80999994E+01 -0.30620E+04
 0.81499996E+01 -0.96792E+04
 0.81999998E+01 -0.15619E+05
 0.82499990E+01 -0.20168E+05
 0.82999992E+01 -0.23018E+05
 0.83499994E+01 -0.24424E+05
 0.83999996E+01 -0.24864E+05
 0.84499998E+01 -0.24280E+05
 0.84999990E+01 -0.22217E+05
 0.85499992E+01 -0.18455E+05
 0.85999994E+01 -0.12680E+05
 0.86499996E+01 -0.46865E+04
 0.86999998E+01  0.53535E+04
 0.87499990E+01  0.16920E+05
 0.87999992E+01  0.29381E+05
 0.88499994E+01  0.42117E+05
 0.88999996E+01  0.54679E+05
 0.89499998E+01  0.66991E+05
 0.89999990E+01  0.78820E+05
 0.90499992E+01  0.89552E+05
 0.90999994E+01  0.98187E+05
 0.91499996E+01  0.10336E+06
 0.91999989E+01  0.10397E+06
 0.92499990E+01  0.99803E+05
 0.92999992E+01  0.91220E+05
 0.93499994E+01  0.79051E+05
 0.93999996E+01  0.64292E+05
 0.94499989E+01  0.47872E+05
 0.94999990E+01  0.30551E+05
 0.95499992E+01  0.12726E+05
 0.95999994E+01 -0.49126E+04
 0.96499996E+01 -0.21520E+05
 0.96999989E+01 -0.36481E+05
 0.97499990E+01 -0.49409E+05
 0.97999992E+01 -0.60566E+05
 0.98499994E+01 -0.70129E+05
 0.98999996E+01 -0.77781E+05
 0.99499989E+01 -0.83547E+05
 0.99999990E+01 -0.87482E+05
 0.10049999E+02 -0.89584E+05
 0.10099999E+02 -0.90092E+05
 0.10150000E+02 -0.89307E+05
 0.10199999E+02 -0.87535E+05
 0.10249999E+02 -0.85015E+05
 0.10299999E+02 -0.81650E+05
 0.10349999E+02 -0.77439E+05
 0.10400000E+02 -0.72591E+05
 0.10449999E+02 -0.67437E+05
 0.10499999E+02 -0.62229E+05
 0.10549999E+02 -0.57420E+05
 0.10599999E+02 -0.53693E+05
 0.10650000E+02 -0.51308E+05
 0.10699999E+02 -0.50072E+05
 0.10749999E+02 -0.49470E+05
 0.10799999E+02 -0.49186E+05
 0.10849999E+02 -0.48853E+05
 0.10900000E+02 -0.48524E+05
 0.10949999E+02 -0.48636E+05
 0.10999999E+02 -0.49196E+05
 0.11049999E+02 -0.49841E+05
 0.11099999E+02 -0.50345E+05
 0.11150000E+02 -0.50488E+05
 0.11199999E+02 -0.50039E+05
 0.11249999E+02 -0.48633E+05
 0.11299999E+02 -0.45881E+05
 0.11349999E+02 -0.41405E+05
 0.11400000E+02 -0.34722E+05
 0.11449999E+02 -0.25809E+05
 0.11499999E+02 -0.14738E+05
 0.11549999E+02 -0.18543E+04
 0.11599999E+02  0.11784E+05
 0.11650000E+02  0.25170E+05
 0.11699999E+02  0.37902E+05
 0.11749999E+02  0.49487E+05
 0.11799999E+02  0.60062E+05
 0.11849999E+02  0.69770E+05
 0.11900000E+02  0.78829E+05
 0.11949999E+02  0.87752E+05
 0.11999999E+02  0.96380E+05
 0.12049999E+02  0.10406E+06
 0.12099999E+02  0.11031E+06
 0.12150000E+02  0.11535E+06
 0.12199999E+02  0.11899E+06
 0.12249999E+02  0.12088E+06
 0.12299999E+02  0.12093E+06
 0.12349999E+02  0.11931E+06
 0.12400000E+02  0.11632E+06
 0.12449999E+02  0.11207E+06
 0.12499999E+02  0.10675E+06
 0.12549999E+02  0.10093E+06
 0.12599999E+02  0.94901E+05
 0.12649999E+02  0.88451E+05
 0.12699999E+02  0.81549E+05
 0.12749999E+02  0.74328E+05
 0.12799999E+02  0.66838E+05
 0.12849999E+02  0.59073E+05
 0.12899999E+02  0.51373E+05
 0.12949999E+02  0.44114E+05
 0.12999999E+02  0.37587E+05
 0.13049999E+02  0.32034E+05
 0.13099999E+02  0.27543E+05
 0.13149999E+02  0.23956E+05
 0.13199999E+02  0.21307E+05
 0.13249999E+02  0.19592E+05
 0.13299999E+02  0.18509E+05
 0.13349999E+02  0.17773E+05
 0.13399999E+02  0.16618E+05
 0.13449999E+02  0.14566E+05
 0.13499999E+02  0.11472E+05
 0.13549999E+02  0.72532E+04
 0.13599999E+02  0.22965E+04
 0.13649999E+02 -0.27963E+04
 0.13699999E+02 -0.77077E+04
 0.13749999E+02 -0.12110E+05
 0.13799999E+02 -0.16275E+05
 0.13849999E+02 -0.21191E+05
 0.13899999E+02 -0.27500E+05
 0.13949999E+02 -0.35229E+05
 0.13999999E+02 -0.44134E+05
 0.14049999E+02 -0.53969E+05
 0.14099998E+02 -0.64256E+05
 0.14150000E+02 -0.74335E+05
 0.14199999E+02 -0.83894E+05
 0.14249998E+02 -0.92727E+05
 0.14299999E+02 -0.10024E+06
 0.14349998E+02 -0.10574E+06
 0.14400000E+02 -0.10871E+06
 0.14449999E+02 -0.10955E+06
 0.14499998E+02 -0.10873E+06
 0.14549999E+02 -0.10633E+06
 0.14599998E+02 -0.10230E+06
 0.14650000E+02 -0.96495E+05
 0.14699999E+02 -0.89067E+05
 0.14749998E+02 -0.80482E+05
 0.14799999E+02 -0.71393E+05
 0.14849998E+02 -0.62388E+05
 0.14900000E+02 -0.54147E+05
 0.14949999E+02 -0.47264E+05
 0.14999998E+02 -0.42115E+05
 0.15049999E+02 -0.38825E+05
 0.15099998E+02 -0.37007E+05
 0.15150000E+02 -0.36143E+05
 0.15199999E+02 -0.35626E+05
 0.15249998E+02 -0.34868E+05
 0.15299999E+02 -0.33787E+05
 0.15349998E+02 -0.32459E+05
 0.15400000E+02 -0.30902E+05
 0.15449999E+02 -0.29204E+05
 0.15499998E+02 -0.27628E+05
 0.15549999E+02 -0.26365E+05
 0.15599998E+02 -0.25618E+05
 0.15650000E+02 -0.25692E+05
 0.15699999E+02 -0.26735E+05
 0.15749998E+02 -0.28446E+05
 0.15799999E+02 -0.30464E+05
 0.15849998E+02 -0.32428E+05
 0.15900000E+02 -0.33566E+05
 0.15949999E+02 -0.34009E+05
 0.15999998E+02 -0.34299E+05
 0.16049999E+02 -0.34851E+05
 0.16099998E+02 -0.35654E+05
 0.16150000E+02 -0.36101E+05
 0.16199999E+02 -0.36190E+05
 0.16249998E+02 -0.36001E+05
 0.16299999E+02 -0.35423E+05
 0.16349998E+02 -0.34039E+05
 0.16400000E+02 -0.31476E+05
 0.16449999E+02 -0.27900E+05
 0.16499998E+02 -0.23941E+05
 0.16549999E+02 -0.20480E+05
 0.16599998E+02 -0.18237E+05
 0.16650000E+02 -0.17579E+05
 0.16699999E+02 -0.18433E+05
 0.16749998E+02 -0.20253E+05
 0.16799999E+02 -0.22266E+05
 0.16849998E+02 -0.23957E+05
 0.16900000E+02 -0.25071E+05
 0.16949999E+02 -0.25196E+05
 0.16999998E+02 -0.24171E+05
 0.17049999E+02 -0.22266E+05
 0.17099998E+02 -0.19778E+05
 0.17150000E+02 -0.17077E+05
 0.17199999E+02 -0.14439E+05
 0.17249998E+02 -0.11872E+05
 0.17299999E+02 -0.94853E+04
 0.17349998E+02 -0.74572E+04
 0.17400000E+02 -0.57896E+04
 0.17449999E+02 -0.44059E+04
 0.17499998E+02 -0.30355E+04
 0.17549999E+02 -0.12940E+04
 0.17599998E+02  0.11457E+04
 0.17650000E+02  0.43732E+04
 0.17699999E+02  0.81916E+04
 0.17749998E+02  0.12294E+05
 0.17799999E+02  0.16214E+05
 0.17849998E+02  0.19797E+05
 0.17900000E+02  0.23253E+05
 0.17949999E+02  0.26601E+05
 0.17999998E+02  0.29868E+05
 0.18049999E+02  0.33226E+05
 0.18099998E+02  0.36942E+05
 0.18150000E+02  0.41231E+05
 0.18199999E+02  0.45868E+05
 0.18249998E+02  0.50421E+05
 0.18299999E+02  0.54305E+05
 0.18349998E+02  0.57101E+05
 0.18400000E+02  0.58821E+05
 0.18449999E+02  0.59848E+05
 0.18499998E+02  0.60541E+05
 0.18549999E+02  0.60888E+05
 0.18599998E+02  0.60969E+05
 0.18650000E+02  0.60765E+05
 0.18699999E+02  0.60299E+05
 0.18749998E+02  0.59593E+05
 0.18799999E+02  0.58695E+05
 0.18849998E+02  0.57629E+05
 0.18900000E+02  0.56225E+05
 0.18949999E+02  0.54147E+05
 0.18999998E+02  0.51287E+05
 0.19049999E+02  0.47504E+05
 0.19099998E+02  0.42737E+05
 0.19150000E+02  0.37372E+05
 0.19199999E+02  0.31646E+05
 0.19249998E+02  0.25695E+05
 0.19299999E+02  0.19855E+05
 0.19349998E+02  0.14583E+05
 0.19400000E+02  0.98780E+04
 0.19449999E+02  0.54596E+04
 0.19499998E+02  0.12344E+04
 0.19549999E+02 -0.26801E+04
 0.19599998E+02 -0.63348E+04
 0.19650000E+02 -0.96801E+04
 0.19699999E+02 -0.12393E+05
 0.19749998E+02 -0.14224E+05
 0.19799999E+02 -0.15333E+05
 0.19849998E+02 -0.15654E+05
 0.19900000E+02 -0.14963E+05
 0.19949999E+02 -0.13459E+05
 0.19999998E+02 -0.11543E+05
 0.20049999E+02 -0.96829E+04
 0.20099998E+02 -0.80880E+04
 0.20150000E+02 -0.66118E+04
 0.20199999E+02 -0.50479E+04
 0.20249998E+02 -0.31434E+04
 0.20299999E+02 -0.97052E+03
 0.20349998E+02  0.98321E+03
 0.20399998E+02  0.22478E+04
 0.20449999E+02  0.26485E+04
 0.20499998E+02  0.21244E+04
 0.20549999E+02  0.55313E+03
 0.20599998E+02 -0.20912E+04
 0.20649998E+02 -0.60055E+04
 0.20699999E+02 -0.11102E+05
 0.20749998E+02 -0.17101E+05
 0.20799999E+02 -0.23555E+05
 0.20849998E+02 -0.30136E+05
 0.20899998E+02 -0.36801E+05
 0.20949999E+02 -0.43164E+05
 0.20999998E+02 -0.48830E+05
 0.21049999E+02 -0.53729E+05
 0.21099998E+02 -0.57804E+05
 0.21149998E+02 -0.61259E+05
 0.21199999E+02 -0.64463E+05
 0.21249998E+02 -0.67319E+05
 0.21299999E+02 -0.69606E+05
 0.21349998E+02 -0.71417E+05
 0.21399998E+02 -0.72628E+05
 0.21449999E+02 -0.73377E+05
 0.21499998E+02 -0.73831E+05
 0.21549999E+02 -0.73976E+05
 0.21599998E+02 -0.74235E+05
 0.21649998E+02 -0.74562E+05
 0.21699999E+02 -0.74657E+05
 0.21749998E+02 -0.74439E+05
 0.21799999E+02 -0.74223E+05
 0.21849998E+02 -0.74060E+05
 0.21899998E+02 -0.73513E+05
 0.21949999E+02 -0.72148E+05
 0.21999998E+02 -0.69676E+05
 0.22049999E+02 -0.65774E+05
 0.22099998E+02 -0.60271E+05
 0.22149998E+02 -0.53202E+05
 0.22199999E+02 -0.44968E+05
 0.22249998E+02 -0.35915E+05
 0.22299999E+02 -0.25971E+05
 0.22349998E+02 -0.15596E+05
 0.22399998E+02 -0.53103E+04
 0.22449999E+02  0.49414E+04
 0.22499998E+02  0.15553E+05
 0.22549999E+02  0.26470E+05
 0.22599998E+02  0.37182E+05
 0.22649998E+02  0.47225E+05
 0.22699999E+02  0.56135E+05
 0.22749998E+02  0.63593E+05
 0.22799999E+02  0.69571E+05
 0.22849998E+02  0.74031E+05
 0.22899998E+02  0.77204E+05
 0.22949999E+02  0.79032E+05
 0.22999998E+02  0.79410E+05
 0.23049999E+02  0.78578E+05
 0.23099998E+02  0.76934E+05
 0.23149998E+02  0.74736E+05
 0.23199999E+02  0.71986E+05
 0.23249998E+02  0.68833E+05
 0.23299999E+02  0.65644E+05
 0.23349998E+02  0.62716E+05
 0.23399998E+02  0.59789E+05
 0.23449999E+02  0.56595E+05
 0.23499998E+02  0.52908E+05
 0.23549999E+02  0.49025E+05
 0.23599998E+02  0.45399E+05
 0.23649998E+02  0.42304E+05
 0.23699999E+02  0.39394E+05
 0.23749998E+02  0.36340E+05
 0.23799999E+02  0.32935E+05
 0.23849998E+02  0.28533E+05
 0.23899998E+02  0.22916E+05
 0.23949999E+02  0.16213E+05
 0.23999998E+02  0.99618E+04
 0.24049999E+02  0.46697E+04
 0.24099998E+02 -0.50574E+03
 0.24149998E+02 -0.80918E+04
 0.24199999E+02 -0.17044E+05
 0.24249998E+02 -0.26481E+05
 0.24299999E+02 -0.37905E+05
 0.24349998E+02 -0.47178E+05
 0.24399998E+02 -0.54218E+05
 0.24449999E+02 -0.61147E+05
 0.24499998E+02 -0.72347E+05
 0.24549999E+02 -0.86493E+05
 0.24599998E+02 -0.98307E+05
 0.24649998E+02 -0.98850E+05
 0.24699999E+02 -0.96198E+05
 0.24749998E+02 -0.92979E+05
 0.24799999E+02 -0.90187E+05
 0.24849998E+02 -0.93673E+05
 0.24899998E+02 -0.93295E+05
 0.24949999E+02 -0.91782E+05
 0.24999998E+02 -0.87406E+05
 0.25049999E+02 -0.79770E+05
 0.25099998E+02 -0.61531E+05
 0.25149998E+02 -0.54820E+05
 0.25199999E+02 -0.48373E+05
 0.25249998E+02 -0.45176E+05
 0.25299999E+02 -0.39379E+05
 0.25349998E+02 -0.27274E+05
 0.25399998E+02 -0.25384E+05
 0.25449999E+02 -0.67454E+04
 0.25499998E+02  0.14423E+05
 0.25549999E+02  0.38304E+05
 0.25599998E+02  0.36423E+05
 0.25649998E+02  0.41285E+05
 0.25699999E+02  0.59392E+05
 0.25749998E+02  0.71357E+05
 0.25799999E+02  0.75857E+05
 0.25849998E+02  0.82189E+05
 0.25899998E+02  0.55247E+05
 0.25949999E+02  0.31679E+05
 0.25999998E+02  0.46309E+05
 0.26049999E+02  0.33842E+05
 0.26099998E+02  0.46574E+05
 0.26149998E+02  0.30665E+05
 0.26199999E+02  0.49138E+05
 0.26249998E+02  0.48160E+05
 0.26299999E+02  0.37880E+05
 0.26349998E+02  0.68334E+05
 0.26399998E+02  0.57997E+05
 0.26449999E+02  0.54533E+05
 0.26499998E+02  0.33988E+05
 0.26549999E+02  0.61627E+05
 0.26599998E+02  0.39815E+05
 0.26649998E+02  0.32313E+05
 0.26699999E+02  0.31194E+05
 0.26749998E+02 -0.65901E+04
 0.26799999E+02  0.12149E+04
 0.26849998E+02 -0.19285E+05
 0.26899998E+02  0.12243E+04
 0.26949999E+02 -0.57027E+04
 0.26999998E+02 -0.32269E+05
 0.27049997E+02 -0.33860E+05
 0.27099998E+02 -0.68477E+04
 0.27149998E+02  0.83763E+04
 0.27199999E+02 -0.11111E+05
 0.27249998E+02  0.30873E+04
 0.27299997E+02 -0.35566E+04
 0.27349998E+02  0.85681E+04
 0.27399998E+02  0.13732E+05
 0.27449999E+02  0.46635E+05
 0.27499998E+02  0.68635E+05
 0.27549997E+02  0.28956E+05
 0.27599998E+02  0.36221E+05
 0.27649998E+02  0.61204E+05
 0.27699999E+02  0.35512E+05
 0.27749998E+02  0.19024E+05
 0.27799997E+02  0.47075E+05
 0.27849998E+02 -0.89602E+04
 0.27899998E+02 -0.31193E+05
 0.27949999E+02 -0.12657E+05
 0.27999998E+02 -0.30370E+05
 0.28049997E+02 -0.46503E+05
 0.28099998E+02 -0.11233E+05
 0.28149998E+02  0.33371E+05
 0.28199999E+02  0.75459E+05
 0.28249998E+02  0.66673E+05
 0.28299997E+02  0.37567E+05
 0.28349998E+02  0.60909E+05
 0.28399998E+02  0.41428E+05
 0.28449999E+02  0.40078E+05
 0.28499998E+02  0.35017E+05
 0.28549997E+02  0.65115E+04
 0.28599998E+02 -0.64194E+04
 0.28649998E+02 -0.30785E+05
 0.28699999E+02 -0.45218E+05
 0.28749998E+02 -0.34977E+05
 0.28799997E+02 -0.49809E+05
 0.28849998E+02 -0.75090E+05
 0.28899998E+02 -0.85546E+05
 0.28949999E+02 -0.33120E+05
 0.28999998E+02  0.50442E+04
 0.29049997E+02  0.19523E+05
 0.29099998E+02  0.22734E+05
 0.29149998E+02 -0.90715E+04
 0.29199999E+02 -0.25658E+05
 0.29249998E+02  0.41167E+04
 0.29299997E+02  0.12263E+05
 0.29349998E+02  0.22811E+05
 0.29399998E+02  0.18572E+05
 0.29449999E+02 -0.20174E+05
 0.29499998E+02 -0.24993E+05
 0.29549997E+02 -0.35782E+05
 0.29599998E+02  0.53506E+05
 0.29649998E+02  0.70657E+05
 0.29699999E+02 -0.30536E+05
 0.29749998E+02 -0.12038E+06
 0.29799997E+02 -0.10618E+06
 0.29849998E+02 -0.67906E+05
 0.29899998E+02 -0.81137E+05
 0.29949999E+02 -0.48392E+05
 0.29999998E+02  0.21139E+05
 0.30049999E+02  0.77153E+05
 0.30099998E+02  0.86260E+05
 0.30149998E+02  0.23893E+05
 0.30199997E+02 -0.32131E+05
 0.30249996E+02 -0.15395E+05
 0.30299999E+02 -0.13725E+05
 0.30349998E+02 -0.86465E+03
 0.30399998E+02 -0.49970E+05
 0.30449997E+02 -0.38268E+05
 0.30499996E+02  0.57599E+04
 0.30549999E+02  0.65914E+05
 0.30599998E+02  0.47517E+05
 0.30649998E+02  0.10643E+05
 0.30699997E+02  0.20650E+05
 0.30749996E+02  0.14208E+05
 0.30799999E+02  0.19261E+05
 0.30849998E+02  0.79631E+05
 0.30899998E+02  0.96228E+05
 0.30949997E+02 -0.34115E+05
 0.30999996E+02 -0.87195E+05
 0.31049999E+02 -0.70212E+05
 0.31099998E+02 -0.22411E+04
 0.31149998E+02  0.19857E+05
 0.31199997E+02  0.50267E+05
 0.31249996E+02  0.38513E+05
 0.31299999E+02  0.74263E+05
 0.31349998E+02  0.39482E+05
 0.31399998E+02  0.18235E+05
 0.31449997E+02  0.10929E+05
 0.31499996E+02 -0.78879E+05
 0.31549999E+02 -0.15858E+05
 0.31599998E+02  0.53965E+05
 0.31649998E+02  0.71882E+05
 0.31699997E+02  0.36431E+05
 0.31749996E+02  0.91207E+05
 0.31799999E+02  0.14215E+06
 0.31849998E+02  0.14755E+06
 0.31899998E+02  0.85088E+05
 0.31949997E+02  0.17775E+05
 0.31999996E+02  0.50104E+05
 0.32049999E+02  0.36341E+05
 0.32099998E+02  0.17386E+05
 0.32149998E+02  0.53043E+04
 0.32199997E+02 -0.28601E+05
 0.32249996E+02 -0.12138E+05
 0.32299999E+02  0.72986E+04
 0.32349998E+02  0.10626E+05
 0.32399998E+02 -0.11978E+05
 0.32449997E+02  0.47288E+05
 0.32499996E+02  0.77638E+05
 0.32549999E+02  0.64192E+05
 0.32599998E+02  0.69119E+05
 0.32649998E+02  0.77690E+05
 0.32699997E+02  0.15036E+06
 0.32749996E+02  0.95769E+05
 0.32799999E+02  0.18957E+05
 0.32849998E+02 -0.21686E+05
 0.32899998E+02 -0.33199E+05
 0.32949997E+02 -0.34117E+05
 0.32999996E+02  0.45137E+05
 0.33049999E+02  0.66904E+05
 0.33099998E+02  0.23225E+05
 0.33149998E+02  0.33764E+05
 0.33199997E+02  0.55328E+03
 0.33249996E+02  0.88458E+04
 0.33299999E+02  0.22906E+05
 0.33349998E+02 -0.38414E+05
 0.33399998E+02 -0.80069E+05
 0.33449997E+02 -0.11441E+06
 0.33499996E+02 -0.15574E+06
 0.33549999E+02 -0.12009E+06
 0.33599998E+02 -0.63102E+05
 0.33649998E+02 -0.61051E+05
 0.33699997E+02 -0.98108E+05
 0.33749996E+02 -0.87063E+05
 0.33799999E+02 -0.29113E+05
 0.33849998E+02  0.34249E+05
 0.33899998E+02 -0.13429E+05
 0.33949997E+02 -0.33431E+05
 0.33999996E+02 -0.22580E+05
 0.34049999E+02 -0.22068E+05
 0.34099998E+02  0.82274E+05
 0.34149998E+02  0.13373E+06
 0.34199997E+02  0.86999E+05
 0.34249996E+02  0.32515E+05
 0.34299999E+02 -0.14500E+05
 0.34349998E+02 -0.53320E+05
 0.34399998E+02 -0.10174E+06
 0.34449997E+02 -0.13662E+06
 0.34499996E+02 -0.12978E+06
 0.34549999E+02 -0.11049E+06
 0.34599998E+02 -0.13699E+06
 0.34649998E+02 -0.15285E+06
 0.34699997E+02 -0.58090E+05
 0.34749996E+02  0.57796E+05
 0.34799999E+02  0.18848E+06
 0.34849998E+02  0.28835E+06
 0.34899998E+02  0.35746E+06
 0.34949997E+02  0.33679E+06
 0.34999996E+02  0.20450E+06
 0.35049999E+02  0.11684E+06
 0.35099998E+02  0.12042E+05
 0.35149998E+02 -0.10842E+06
 0.35199997E+02 -0.15518E+06
 0.35249996E+02 -0.20709E+06
 0.35299999E+02 -0.17102E+06
 0.35349998E+02 -0.40624E+04
 0.35399998E+02  0.70280E+05
 0.35449997E+02  0.45016E+05
 0.35499996E+02 -0.31500E+05
 0.35549999E+02 -0.10611E+06
 0.35599998E+02 -0.68273E+05
 0.35649998E+02  0.17678E+05
 0.35699997E+02  0.11183E+06
 0.35749996E+02  0.13923E+06
 0.35799999E+02  0.50475E+05
 0.35849998E+02  0.24213E+05
 0.35899998E+02  0.22567E+05
 0.35949997E+02  0.49271E+04
 0.35999996E+02  0.40380E+05
 0.36049999E+02  0.39580E+05
 0.36099998E+02  0.16977E+05
 0.36149998E+02  0.45149E+05
 0.36199997E+02  0.27219E+05
 0.36249996E+02  0.14367E+05
 0.36299999E+02  0.68467E+05
 0.36349998E+02  0.37346E+05
 0.36399998E+02 -0.58202E+05
 0.36449997E+02 -0.11153E+06
 0.36499996E+02 -0.60826E+05
 0.36549999E+02 -0.64087E+05
 0.36599998E+02 -0.16370E+06
 0.36649998E+02 -0.11088E+06
 0.36699997E+02 -0.45014E+05
 0.36749996E+02 -0.89122E+05
 0.36799999E+02 -0.16637E+06
 0.36849998E+02 -0.21502E+06
 0.36899998E+02 -0.23450E+06
 0.36949997E+02 -0.22052E+06
 0.36999996E+02 -0.19813E+06
 0.37049999E+02 -0.20374E+06
 0.37099998E+02 -0.12193E+06
 0.37149998E+02 -0.55261E+05
 0.37199997E+02  0.36918E+03
 0.37249996E+02  0.83687E+05
 0.37299999E+02  0.86772E+05
 0.37349998E+02  0.28513E+05
 0.37399998E+02  0.32130E+05
 0.37449997E+02  0.55918E+05
 0.37499996E+02  0.26351E+05
 0.37549999E+02  0.29993E+05
 0.37599998E+02 -0.90762E+03
 0.37649998E+02 -0.99302E+05
 0.37699997E+02 -0.22450E+06
 0.37749996E+02 -0.28528E+06
 0.37799999E+02 -0.20195E+06
 0.37849998E+02 -0.16027E+06
 0.37899998E+02 -0.12844E+06
 0.37949997E+02 -0.60922E+05
 0.37999996E+02 -0.84839E+04
 0.38049999E+02  0.55610E+05
 0.38099998E+02  0.25700E+05
 0.38149998E+02 -0.78036E+05
 0.38199997E+02 -0.15555E+06
 0.38249996E+02 -0.17979E+06
 0.38299999E+02 -0.10622E+06
 0.38349998E+02 -0.41447E+05
 0.38399998E+02 -0.64060E+05
 0.38449997E+02 -0.12391E+05
 0.38499996E+02 -0.21308E+05
 0.38549999E+02 -0.69117E+05
 0.38599998E+02 -0.73624E+05
 0.38649998E+02 -0.10455E+06
 0.38699997E+02 -0.65167E+05
 0.38749996E+02  0.45010E+05
 0.38799999E+02  0.80933E+05
 0.38849998E+02  0.10256E+06
 0.38899998E+02  0.16879E+06
 0.38949997E+02  0.19786E+06
 0.38999996E+02  0.24836E+06
 0.39049999E+02  0.28548E+06
 0.39099998E+02  0.23854E+06
 0.39149998E+02  0.16277E+06
 0.39199997E+02  0.13152E+06
 0.39249996E+02  0.50096E+05
 0.39299999E+02 -0.31176E+05
 0.39349998E+02 -0.23746E+05
 0.39399998E+02 -0.54847E+05
 0.39449997E+02 -0.14430E+06
 0.39499996E+02 -0.13547E+06
 0.39549999E+02 -0.46680E+05
 0.39599998E+02 -0.34335E+05
 0.39649998E+02 -0.76198E+05
 0.39699997E+02 -0.48603E+05
 0.39749996E+02 -0.18926E+05
 0.39799999E+02 -0.73208E+05
 0.39849998E+02 -0.15246E+06
 0.39899998E+02 -0.22043E+06
 0.39949997E+02 -0.17147E+06
 0.39999996E+02  0.42892E+03
 0.40049999E+02  0.72785E+05
 0.40099998E+02  0.16971E+06
 0.40149998E+02  0.28362E+06
 0.40199997E+02  0.23514E+06
 0.40249996E+02  0.88830E+05
 0.40299999E+02 -0.10237E+06
 0.40349998E+02 -0.21243E+06
 0.40399998E+02 -0.34257E+06
 0.40449997E+02 -0.42644E+06
 0.40499996E+02 -0.49378E+06
 0.40549999E+02 -0.61542E+06
 0.40599998E+02 -0.76555E+06
 0.40649998E+02 -0.84809E+06
 0.40699997E+02 -0.89912E+06
 0.40749996E+02 -0.89799E+06
 0.40799999E+02 -0.73019E+06
 0.40849998E+02 -0.55120E+06
 0.40899998E+02 -0.36384E+06
 0.40949997E+02 -0.24169E+06
 0.40999996E+02 -0.22603E+06
 0.41049999E+02 -0.44747E+06
 0.41099998E+02 -0.58783E+06
 0.41149998E+02 -0.47074E+06
 0.41199997E+02 -0.36539E+06
 0.41249996E+02 -0.39392E+06
 0.41299999E+02 -0.49614E+06
 0.41349998E+02 -0.43192E+06
 0.41399998E+02 -0.25964E+06
 0.41449997E+02 -0.12857E+05
 0.41499996E+02  0.18067E+06
 0.41549999E+02  0.16457E+06
 0.41599998E+02  0.17052E+06
 0.41649998E+02  0.26432E+06
 0.41699997E+02  0.12659E+06
 0.41749996E+02 -0.22871E+06
 0.41799999E+02 -0.46424E+05
 0.41849998E+02  0.75043E+06
 0.41899998E+02  0.15164E+07
 0.41949997E+02  0.17858E+07
 0.41999996E+02  0.14297E+07
 0.42049999E+02  0.67809E+06
 0.42099998E+02 -0.46848E+06
 0.42149998E+02 -0.18324E+07
 0.42199997E+02 -0.27660E+07
 0.42249996E+02 -0.26854E+07
 0.42299999E+02 -0.16130E+07
 0.42349998E+02 -0.29322E+06
 0.42399998E+02  0.32365E+06
 0.42449997E+02  0.79569E+05
 0.42499996E+02 -0.62139E+06
 0.42549999E+02 -0.11380E+07
 0.42599998E+02 -0.92644E+06
 0.42649998E+02 -0.27903E+06
 0.42699997E+02  0.21155E+06
 0.42749996E+02  0.48001E+06
 0.42799995E+02  0.41975E+06
 0.42849998E+02  0.35460E+04
 0.42899998E+02 -0.15826E+06
 0.42949997E+02  0.22619E+06
 0.42999996E+02  0.66558E+06
 0.43049995E+02  0.59595E+06
 0.43099998E+02  0.47685E+06
 0.43149998E+02  0.64524E+06
 0.43199997E+02  0.88359E+06
 0.43249996E+02  0.12378E+07
 0.43299995E+02  0.14327E+07
 0.43349998E+02  0.10451E+07
 0.43399998E+02  0.71121E+06
 0.43449997E+02  0.66990E+06
 0.43499996E+02  0.51779E+06
 0.43549995E+02  0.34488E+06
 0.43599998E+02  0.67049E+06
 0.43649998E+02  0.14435E+07
 0.43699997E+02  0.17692E+07
 0.43749996E+02  0.13292E+07
 0.43799995E+02  0.54002E+06
 0.43849998E+02 -0.14062E+06
 0.43899998E+02 -0.98354E+06
 0.43949997E+02 -0.18926E+07
 0.43999996E+02 -0.23360E+07
 0.44049995E+02 -0.21224E+07
 0.44099998E+02 -0.10137E+07
 0.44149998E+02  0.39106E+06
 0.44199997E+02  0.96545E+06
 0.44249996E+02  0.80737E+06
 0.44299995E+02  0.81847E+05
 0.44349998E+02 -0.42403E+06
 0.44399998E+02 -0.14492E+06
 0.44449997E+02  0.12601E+06
 0.44499996E+02  0.30319E+06
 0.44549995E+02  0.55594E+06
 0.44599998E+02  0.74134E+06
 0.44649998E+02  0.70931E+06
 0.44699997E+02  0.21644E+06
 0.44749996E+02 -0.17793E+06
 0.44799995E+02 -0.20061E+06
 0.44849998E+02 -0.17975E+06
 0.44899998E+02 -0.25975E+06
 0.44949997E+02 -0.18834E+06
 0.44999996E+02 -0.28960E+05
 0.45049995E+02 -0.13511E+06
 0.45099998E+02 -0.28515E+06
 0.45149998E+02 -0.86648E+06
 0.45199997E+02 -0.11570E+07
 0.45249996E+02 -0.84217E+06
 0.45299995E+02 -0.33448E+06
 0.45349998E+02  0.79222E+05
 0.45399998E+02  0.26070E+06
 0.45449997E+02  0.46738E+06
 0.45499996E+02  0.16497E+06
 0.45549995E+02 -0.57825E+06
 0.45599998E+02 -0.12706E+07
 0.45649998E+02 -0.14004E+07
 0.45699997E+02 -0.12479E+07
 0.45749996E+02 -0.10572E+07
 0.45799995E+02 -0.85537E+06
 0.45849998E+02 -0.95313E+06
 0.45899998E+02 -0.89309E+06
 0.45949997E+02 -0.88482E+06
 0.45999996E+02 -0.10233E+07
 0.46049995E+02 -0.11140E+07
 0.46099998E+02 -0.10244E+07
 0.46149998E+02 -0.78825E+06
 0.46199997E+02 -0.72171E+06
 0.46249996E+02 -0.64801E+06
 0.46299995E+02 -0.48421E+06
 0.46349998E+02 -0.24154E+06
 0.46399998E+02 -0.76980E+05
 0.46449997E+02  0.12012E+06
 0.46499996E+02 -0.31791E+05
 0.46549995E+02 -0.62705E+06
 0.46599998E+02 -0.10633E+07
 0.46649998E+02 -0.10120E+07
 0.46699997E+02 -0.67181E+06
 0.46749996E+02 -0.25629E+06
 0.46799995E+02  0.46497E+05
 0.46849998E+02 -0.10108E+06
 0.46899998E+02 -0.22332E+06
 0.46949997E+02 -0.35328E+06
 0.46999996E+02 -0.46039E+06
 0.47049995E+02 -0.16825E+06
 0.47099998E+02  0.18118E+06
 0.47149998E+02  0.41891E+06
 0.47199997E+02  0.64771E+06
 0.47249996E+02  0.63105E+06
 0.47299995E+02  0.36981E+06
 0.47349998E+02 -0.26223E+06
 0.47399998E+02 -0.11284E+07
 0.47449997E+02 -0.13187E+07
 0.47499996E+02 -0.83518E+06
 0.47549995E+02 -0.16132E+06
 0.47599998E+02  0.30468E+06
 0.47649998E+02  0.42852E+06
 0.47699997E+02  0.40323E+06
 0.47749996E+02  0.11471E+06
 0.47799995E+02 -0.32472E+06
 0.47849998E+02 -0.42545E+06
 0.47899998E+02 -0.19134E+06
 0.47949997E+02 -0.51219E+04
 0.47999996E+02  0.29404E+06
 0.48049995E+02  0.69015E+06
 0.48099998E+02  0.11912E+07
 0.48149998E+02  0.16484E+07
 0.48199997E+02  0.16701E+07
 0.48249996E+02  0.16222E+07
 0.48299995E+02  0.16327E+07
 0.48349998E+02  0.17418E+07
 0.48399998E+02  0.17612E+07
 0.48449997E+02  0.16528E+07
 0.48499996E+02  0.15866E+07
 0.48549995E+02  0.14135E+07
 0.48599998E+02  0.93624E+06
 0.48649998E+02  0.38163E+06
 0.48699997E+02  0.34709E+06
 0.48749996E+02  0.86394E+06
 0.48799995E+02  0.14411E+07
 0.48849998E+02  0.16089E+07
 0.48899998E+02  0.14183E+07
 0.48949997E+02  0.10560E+07
 0.48999996E+02  0.79945E+06
 0.49049995E+02  0.55690E+06
 0.49099998E+02  0.52951E+05
 0.49149998E+02 -0.41544E+06
 0.49199997E+02 -0.55118E+06
 0.49249996E+02 -0.34184E+06
 0.49299995E+02 -0.27958E+05
 0.49349998E+02  0.45703E+05
 0.49399998E+02  0.76744E+05
 0.49449997E+02  0.21745E+06
 0.49499996E+02  0.12658E+06
 0.49549995E+02 -0.19142E+06
 0.49599998E+02 -0.42079E+06
 0.49649998E+02 -0.38196E+06
 0.49699997E+02 -0.21040E+06
 0.49749996E+02 -0.77381E+05
 0.49799995E+02  0.17953E+06
 0.49849998E+02  0.76243E+06
 0.49899998E+02  0.13229E+07
 0.49949997E+02  0.13809E+07
 0.49999996E+02  0.11301E+07
 0.50049995E+02  0.87174E+06
 0.50099998E+02  0.75301E+06
 0.50149998E+02  0.64187E+06
 0.50199997E+02  0.39422E+06
 0.50249996E+02  0.98162E+05
 0.50299995E+02 -0.41747E+05
 0.50349998E+02 -0.19276E+06
 0.50399998E+02 -0.39421E+06
 0.50449997E+02 -0.47246E+06
 0.50499996E+02 -0.54720E+06
 0.50549995E+02 -0.40829E+06
 0.50599998E+02 -0.16492E+06
 0.50649998E+02  0.19389E+06
 0.50699997E+02  0.48098E+06
 0.50749996E+02  0.28807E+06
 0.50799995E+02 -0.25001E+06
 0.50849998E+02 -0.82978E+06
 0.50899998E+02 -0.12121E+07
 0.50949997E+02 -0.14428E+07
 0.50999996E+02 -0.14690E+07
 0.51049995E+02 -0.13032E+07
 0.51099998E+02 -0.10393E+07
 0.51149998E+02 -0.69775E+06
 0.51199997E+02 -0.36971E+06
 0.51249996E+02 -0.12068E+06
 0.51299995E+02 -0.13379E+06
 0.51349998E+02 -0.28070E+06
 0.51399998E+02 -0.21530E+06
 0.51449997E+02 -0.25607E+05
 0.51499996E+02  0.15389E+06
 0.51549995E+02  0.29538E+06
 0.51599998E+02  0.46726E+06
 0.51649998E+02  0.66180E+06
 0.51699997E+02  0.78370E+06
 0.51749996E+02  0.69863E+06
 0.51799995E+02  0.46979E+06
 0.51849998E+02  0.34854E+06
 0.51899998E+02  0.20534E+06
 0.51949997E+02  0.68104E+05
 0.51999996E+02  0.17622E+05
 0.52049995E+02 -0.58094E+05
 0.52099998E+02 -0.38588E+05
 0.52149998E+02 -0.45065E+05
 0.52199997E+02 -0.28814E+05
 0.52249996E+02  0.13913E+06
 0.52299995E+02  0.18417E+06
 0.52349998E+02  0.22395E+06
 0.52399998E+02  0.45680E+06
 0.52449997E+02  0.75786E+06
 0.52499996E+02  0.85969E+06
 0.52549995E+02  0.69118E+06
 0.52599998E+02  0.34251E+06
 0.52649998E+02 -0.38040E+05
 0.52699997E+02 -0.36472E+06
 0.52749996E+02 -0.40212E+06
 0.52799995E+02 -0.10074E+06
 0.52849998E+02  0.18325E+06
 0.52899998E+02  0.36862E+06
 0.52949997E+02  0.30244E+06
 0.52999996E+02  0.12792E+06
 0.53049995E+02  0.11463E+06
 0.53099998E+02  0.20653E+06
 0.53149998E+02  0.34020E+06
 0.53199997E+02  0.38564E+06
 0.53249996E+02  0.48576E+06
 0.53299995E+02  0.56346E+06
 0.53349998E+02  0.41005E+06
 0.53399998E+02  0.17824E+06
 0.53449997E+02  0.16224E+05
 0.53499996E+02  0.64243E+05
 0.53549995E+02  0.14156E+06
 0.53599998E+02  0.13762E+04
 0.53649998E+02 -0.18286E+06
 0.53699997E+02 -0.31276E+06
 0.53749996E+02 -0.44185E+06
 0.53799995E+02 -0.62454E+06
 0.53849998E+02 -0.86155E+06
 0.53899998E+02 -0.10555E+07
 0.53949997E+02 -0.11490E+07
 0.53999996E+02 -0.10752E+07
 0.54049995E+02 -0.85717E+06
 0.54099998E+02 -0.75788E+06
 0.54149998E+02 -0.81362E+06
 0.54199997E+02 -0.85506E+06
 0.54249996E+02 -0.94302E+06
 0.54299995E+02 -0.11338E+07
 0.54349998E+02 -0.14396E+07
 0.54399998E+02 -0.17579E+07
 0.54449997E+02 -0.20185E+07
 0.54499996E+02 -0.21294E+07
 0.54549995E+02 -0.20814E+07
 0.54599998E+02 -0.21059E+07
 0.54649998E+02 -0.21858E+07
 0.54699997E+02 -0.20975E+07
 0.54749996E+02 -0.18867E+07
 0.54799995E+02 -0.16669E+07
 0.54849998E+02 -0.13639E+07
 0.54899998E+02 -0.10554E+07
 0.54949997E+02 -0.77309E+06
 0.54999996E+02 -0.54093E+06
 0.55049995E+02 -0.40782E+06
 0.55099998E+02 -0.34493E+06
 0.55149998E+02 -0.43687E+06
 0.55199997E+02 -0.46575E+06
 0.55249996E+02 -0.31165E+06
 0.55299995E+02 -0.17497E+06
 0.55349998E+02 -0.21248E+06
 0.55399998E+02 -0.38588E+06
 0.55449997E+02 -0.49814E+06
 0.55499996E+02 -0.59979E+06
 0.55549995E+02 -0.75798E+06
 0.55599998E+02 -0.94215E+06
 0.55649998E+02 -0.10576E+07
 0.55699997E+02 -0.11387E+07
 0.55749996E+02 -0.11488E+07
 0.55799995E+02 -0.10402E+07
 0.55849995E+02 -0.90863E+06
 0.55899998E+02 -0.81745E+06
 0.55949997E+02 -0.83830E+06
 0.55999996E+02 -0.90554E+06
 0.56049995E+02 -0.10543E+07
 0.56099995E+02 -0.11127E+07
 0.56149998E+02 -0.10915E+07
 0.56199997E+02 -0.11215E+07
 0.56249996E+02 -0.11382E+07
 0.56299995E+02 -0.10524E+07
 0.56349995E+02 -0.74785E+06
 0.56399998E+02 -0.30960E+06
 0.56449997E+02  0.11887E+06
 0.56499996E+02  0.46370E+06
 0.56549995E+02  0.78989E+06
 0.56599995E+02  0.10944E+07
 0.56649998E+02  0.13762E+07
 0.56699997E+02  0.16558E+07
 0.56749996E+02  0.19254E+07
 0.56799995E+02  0.20940E+07
 0.56849995E+02  0.21556E+07
 0.56899998E+02  0.21437E+07
 0.56949997E+02  0.21141E+07
 0.56999996E+02  0.20899E+07
 0.57049995E+02  0.19767E+07
 0.57099995E+02  0.18196E+07
 0.57149998E+02  0.16029E+07
 0.57199997E+02  0.13643E+07
 0.57249996E+02  0.12332E+07
 0.57299995E+02  0.11018E+07
 0.57349995E+02  0.90947E+06
 0.57399998E+02  0.69576E+06
 0.57449997E+02  0.40780E+06
 0.57499996E+02  0.16067E+06
 0.57549995E+02  0.12816E+06
 0.57599995E+02  0.26483E+06
 0.57649998E+02  0.44894E+06
 0.57699997E+02  0.58350E+06
 0.57749996E+02  0.59229E+06
 0.57799995E+02  0.53925E+06
 0.57849995E+02  0.51398E+06
 0.57899998E+02  0.60744E+06
 0.57949997E+02  0.72758E+06
 0.57999996E+02  0.75950E+06
 0.58049995E+02  0.66453E+06
 0.58099995E+02  0.50726E+06
 0.58149998E+02  0.39516E+06
 0.58199997E+02  0.33706E+06
 0.58249996E+02  0.34036E+06
 0.58299995E+02  0.26025E+06
 0.58349995E+02  0.71856E+05
 0.58399998E+02 -0.18384E+06
 0.58449997E+02 -0.41035E+06
 0.58499996E+02 -0.47310E+06
 0.58549995E+02 -0.36605E+06
 0.58599995E+02 -0.20706E+06
 0.58649998E+02 -0.41537E+05
 0.58699997E+02  0.71341E+05
 0.58749996E+02  0.26670E+05
 0.58799995E+02 -0.74752E+05
 0.58849995E+02 -0.19546E+06
 0.58899998E+02 -0.33896E+06
 0.58949997E+02 -0.52893E+06
 0.58999996E+02 -0.74070E+06
 0.59049995E+02 -0.79959E+06
 0.59099995E+02 -0.70253E+06
 0.59149998E+02 -0.63235E+06
 0.59199997E+02 -0.55162E+06
 0.59249996E+02 -0.33470E+06
 0.59299995E+02 -0.64307E+05
 0.59349995E+02  0.17930E+06
 0.59399998E+02  0.33048E+06
 0.59449997E+02  0.39080E+06
 0.59499996E+02  0.50364E+06
 0.59549995E+02  0.58187E+06
 0.59599995E+02  0.44676E+06
 0.59649998E+02  0.23158E+06
 0.59699997E+02  0.14215E+06
 0.59749996E+02  0.18254E+06
 0.59799995E+02  0.23188E+06
 0.59849995E+02  0.24907E+06
 0.59899998E+02  0.21017E+06
 0.59949997E+02  0.10232E+06
 0.59999996E+02  0.13364E+04
 0.60049995E+02 -0.14966E+05
 0.60099995E+02  0.62275E+05
 0.60149998E+02  0.10665E+06
 0.60199997E+02  0.96824E+05
 0.60249996E+02  0.82637E+05
 0.60299995E+02  0.64801E+04
 0.60349995E+02 -0.75497E+05
 0.60399998E+02 -0.12737E+06
 0.60449997E+02 -0.12315E+06
 0.60499996E+02  0.29462E+04
 0.60549995E+02  0.19225E+06
 0.60599995E+02  0.38428E+06
 0.60649998E+02  0.50910E+06
 0.60699997E+02  0.52008E+06
 0.60749996E+02  0.48117E+06
 0.60799995E+02  0.51426E+06
 0.60849995E+02  0.54439E+06
 0.60899998E+02  0.44705E+06
 0.60949997E+02  0.40229E+06
 0.60999996E+02  0.59656E+06
 0.61049995E+02  0.93424E+06
 0.61099995E+02  0.11921E+07
 0.61149998E+02  0.12907E+07
 0.61199997E+02  0.12666E+07
 0.61249996E+02  0.11997E+07
 0.61299995E+02  0.11586E+07
 0.61349995E+02  0.10934E+07
 0.61399998E+02  0.99558E+06
 0.61449997E+02  0.93425E+06
 0.61499996E+02  0.95041E+06
 0.61549995E+02  0.10866E+07
 0.61599995E+02  0.13252E+07
 0.61649998E+02  0.15229E+07
 0.61699997E+02  0.16342E+07
 0.61749996E+02  0.16737E+07
 0.61799995E+02  0.16258E+07
 0.61849995E+02  0.14835E+07
 0.61899998E+02  0.12917E+07
 0.61949997E+02  0.10738E+07
 0.61999996E+02  0.78155E+06
 0.62049995E+02  0.40174E+06
 0.62099998E+02 -0.23735E+05
 0.62149994E+02 -0.38739E+06
 0.62199997E+02 -0.64519E+06
 0.62249992E+02 -0.76842E+06
 0.62299995E+02 -0.73767E+06
 0.62349998E+02 -0.57154E+06
 0.62399994E+02 -0.35063E+06
 0.62449997E+02 -0.16264E+06
 0.62499992E+02 -0.12282E+06
 0.62549995E+02 -0.19939E+06
 0.62599998E+02 -0.30467E+06
 0.62649994E+02 -0.43873E+06
 0.62699997E+02 -0.56685E+06
 0.62749992E+02 -0.65105E+06
 0.62799995E+02 -0.65149E+06
 0.62849998E+02 -0.62347E+06
 0.62899994E+02 -0.66202E+06
 0.62949997E+02 -0.82159E+06
 0.62999992E+02 -0.10034E+07
 0.63049995E+02 -0.10166E+07
 0.63099998E+02 -0.83124E+06
 0.63149994E+02 -0.54379E+06
 0.63199997E+02 -0.31272E+06
 0.63249992E+02 -0.24847E+06
 0.63299995E+02 -0.24851E+06
 0.63349998E+02 -0.20354E+06
 0.63399994E+02 -0.33207E+05
 0.63449997E+02  0.14291E+06
 0.63499992E+02  0.23607E+06
 0.63549995E+02  0.27382E+06
 0.63599998E+02  0.18203E+06
 0.63649994E+02  0.20151E+05
 0.63699997E+02 -0.11898E+06
 0.63749992E+02 -0.26563E+06
 0.63799995E+02 -0.44553E+06
 0.63849998E+02 -0.57075E+06
 0.63899994E+02 -0.57815E+06
 0.63949997E+02 -0.48097E+06
 0.63999992E+02 -0.40069E+06
 0.64049995E+02 -0.44735E+06
 0.64099998E+02 -0.58120E+06
 0.64149994E+02 -0.71875E+06
 0.64199997E+02 -0.76740E+06
 0.64249992E+02 -0.76201E+06
 0.64299995E+02 -0.78873E+06
 0.64349998E+02 -0.82415E+06
 0.64399994E+02 -0.86006E+06
 0.64449997E+02 -0.82397E+06
 0.64499992E+02 -0.72260E+06
 0.64549995E+02 -0.62747E+06
 0.64599998E+02 -0.53397E+06
 0.64649994E+02 -0.46366E+06
 0.64699997E+02 -0.50528E+06
 0.64749992E+02 -0.63609E+06
 0.64799995E+02 -0.64502E+06
 0.64849998E+02 -0.45589E+06
 0.64899994E+02 -0.14673E+06
 0.64949997E+02  0.16101E+06
 0.64999992E+02  0.39787E+06
 0.65049995E+02  0.59010E+06
 0.65099998E+02  0.78627E+06
 0.65149994E+02  0.96720E+06
 0.65199997E+02  0.11049E+07
 0.65249992E+02  0.12118E+07
 0.65299995E+02  0.13063E+07
 0.65349998E+02  0.14211E+07
 0.65399994E+02  0.14545E+07
 0.65449997E+02  0.13360E+07
 0.65499992E+02  0.11478E+07
 0.65549995E+02  0.93516E+06
 0.65599998E+02  0.66985E+06
 0.65649994E+02  0.34933E+06
 0.65699997E+02  0.40827E+03
 0.65749992E+02 -0.30462E+06
 0.65799995E+02 -0.46074E+06
 0.65849998E+02 -0.50553E+06
 0.65899994E+02 -0.49196E+06
 0.65949997E+02 -0.41072E+06
 0.65999992E+02 -0.31830E+06
 0.66049995E+02 -0.23858E+06
 0.66099998E+02 -0.18373E+06
 0.66149994E+02 -0.19276E+06
 0.66199997E+02 -0.22735E+06
 0.66249992E+02 -0.19691E+06
 0.66299995E+02 -0.48038E+05
 0.66349998E+02  0.14660E+06
 0.66399994E+02  0.29758E+06
 0.66449997E+02  0.33301E+06
 0.66499992E+02  0.23834E+06
 0.66549995E+02  0.11065E+06
 0.66599998E+02  0.99826E+04
 0.66649994E+02 -0.87409E+05
 0.66699997E+02 -0.16968E+06
 0.66749992E+02 -0.17965E+06
 0.66799995E+02 -0.10443E+06
 0.66849998E+02  0.95295E+04
 0.66899994E+02  0.78120E+05
 0.66949997E+02  0.59354E+05
 0.66999992E+02 -0.56000E+05
 0.67049995E+02 -0.21236E+06
 0.67099998E+02 -0.41034E+06
 0.67149994E+02 -0.72862E+06
 0.67199997E+02 -0.11069E+07
 0.67249992E+02 -0.14273E+07
 0.67299995E+02 -0.16337E+07
 0.67349998E+02 -0.17531E+07
 0.67399994E+02 -0.18530E+07
 0.67449997E+02 -0.19437E+07
 0.67499992E+02 -0.19518E+07
 0.67549995E+02 -0.18207E+07
 0.67599998E+02 -0.15491E+07
 0.67649994E+02 -0.11504E+07
 0.67699997E+02 -0.73901E+06
 0.67749992E+02 -0.40215E+06
 0.67799995E+02 -0.14628E+06
 0.67849998E+02  0.52018E+05
 0.67899994E+02  0.23980E+06
 0.67949997E+02  0.38093E+06
 0.67999992E+02  0.41584E+06
 0.68049995E+02  0.37176E+06
 0.68099998E+02  0.37350E+06
 0.68149994E+02  0.42529E+06
 0.68199997E+02  0.47093E+06
 0.68249992E+02  0.50877E+06
 0.68299995E+02  0.56937E+06
 0.68349998E+02  0.65985E+06
 0.68399994E+02  0.75045E+06
 0.68449997E+02  0.81784E+06
 0.68499992E+02  0.84870E+06
 0.68549995E+02  0.89003E+06
 0.68599998E+02  0.92139E+06
 0.68649994E+02  0.91412E+06
 0.68699997E+02  0.86295E+06
 0.68749992E+02  0.73901E+06
 0.68799995E+02  0.56245E+06
 0.68849998E+02  0.40246E+06
 0.68899994E+02  0.30346E+06
 0.68949997E+02  0.23987E+06
 0.68999992E+02  0.21558E+06
 0.69049995E+02  0.27214E+06
 0.69099998E+02  0.38527E+06
 0.69149994E+02  0.43696E+06
 0.69199997E+02  0.32736E+06
 0.69249992E+02  0.10279E+06
 0.69299995E+02 -0.11930E+06
 0.69349998E+02 -0.25529E+06
 0.69399994E+02 -0.26806E+06
 0.69449997E+02 -0.16323E+06
 0.69499992E+02  0.23646E+04
 0.69549995E+02  0.18422E+06
 0.69599998E+02  0.34735E+06
 0.69649994E+02  0.45586E+06
 0.69699997E+02  0.51280E+06
 0.69749992E+02  0.59370E+06
 0.69799995E+02  0.77861E+06
 0.69849998E+02  0.10594E+07
 0.69899994E+02  0.13895E+07
 0.69949997E+02  0.16693E+07
 0.69999992E+02  0.18283E+07
 0.70049995E+02  0.19327E+07
 0.70099998E+02  0.20459E+07
 0.70149994E+02  0.21441E+07
 0.70199997E+02  0.21932E+07
 0.70249992E+02  0.21805E+07
 0.70299995E+02  0.21426E+07
 0.70349998E+02  0.20808E+07
 0.70399994E+02  0.19563E+07
 0.70449997E+02  0.17171E+07
 0.70499992E+02  0.13894E+07
 0.70549995E+02  0.10430E+07
 0.70599998E+02  0.70854E+06
 0.70649994E+02  0.45716E+06
 0.70699997E+02  0.28767E+06
 0.70749992E+02  0.14902E+06
 0.70799995E+02  0.70837E+05
 0.70849998E+02  0.10622E+06
 0.70899994E+02  0.21269E+06
 0.70949997E+02  0.28157E+06
 0.70999992E+02  0.21373E+06
 0.71049995E+02  0.32984E+05
 0.71099998E+02 -0.18022E+06
 0.71149994E+02 -0.37405E+06
 0.71199997E+02 -0.51271E+06
 0.71249992E+02 -0.60161E+06
 0.71299995E+02 -0.59025E+06
 0.71349998E+02 -0.44324E+06
 0.71399994E+02 -0.19840E+06
 0.71449997E+02  0.76599E+05
 0.71499992E+02  0.32152E+06
 0.71549995E+02  0.53395E+06
 0.71599998E+02  0.73110E+06
 0.71649994E+02  0.91500E+06
 0.71699997E+02  0.10823E+07
 0.71749992E+02  0.12497E+07
 0.71799995E+02  0.14253E+07
 0.71849998E+02  0.16061E+07
 0.71899994E+02  0.17572E+07
 0.71949997E+02  0.18388E+07
 0.71999992E+02  0.18363E+07
 0.72049995E+02  0.17591E+07
 0.72099998E+02  0.16086E+07
 0.72149994E+02  0.13779E+07
 0.72199997E+02  0.10526E+07
 0.72249992E+02  0.60182E+06
 0.72299995E+02  0.98254E+05
 0.72349998E+02 -0.32677E+06
 0.72399994E+02 -0.56356E+06
 0.72449997E+02 -0.58640E+06
 0.72499992E+02 -0.45933E+06
 0.72549995E+02 -0.27852E+06
 0.72599998E+02 -0.11206E+06
 0.72649994E+02  0.12644E+05
 0.72699997E+02  0.42927E+05
 0.72749992E+02 -0.62802E+05
 0.72799995E+02 -0.28574E+06
 0.72849998E+02 -0.56536E+06
 0.72899994E+02 -0.83436E+06
 0.72949997E+02 -0.10242E+07
 0.72999992E+02 -0.11055E+07
 0.73049995E+02 -0.11115E+07
 0.73099998E+02 -0.10528E+07
 0.73149994E+02 -0.97260E+06
 0.73199997E+02 -0.91613E+06
 0.73249992E+02 -0.87820E+06
 0.73299995E+02 -0.85071E+06
 0.73349998E+02 -0.80120E+06
 0.73399994E+02 -0.74669E+06
 0.73449997E+02 -0.69361E+06
 0.73499992E+02 -0.62350E+06
 0.73549995E+02 -0.52688E+06
 0.73599998E+02 -0.43256E+06
 0.73649994E+02 -0.36130E+06
 0.73699997E+02 -0.28493E+06
 0.73749992E+02 -0.27209E+06
 0.73799995E+02 -0.34127E+06
 0.73849998E+02 -0.42680E+06
 0.73899994E+02 -0.50355E+06
 0.73949997E+02 -0.56257E+06
 0.73999992E+02 -0.64371E+06
 0.74049995E+02 -0.76715E+06
 0.74099998E+02 -0.85720E+06
 0.74149994E+02 -0.83754E+06
 0.74199997E+02 -0.71017E+06
 0.74249992E+02 -0.53298E+06
 0.74299995E+02 -0.40140E+06
 0.74349998E+02 -0.34597E+06
 0.74399994E+02 -0.32028E+06
 0.74449997E+02 -0.32807E+06
 0.74499992E+02 -0.38933E+06
 0.74549995E+02 -0.49927E+06
 0.74599998E+02 -0.62331E+06
 0.74649994E+02 -0.72692E+06
 0.74699997E+02 -0.82956E+06
 0.74749992E+02 -0.93452E+06
 0.74799995E+02 -0.10125E+07
 0.74849998E+02 -0.10679E+07
 0.74899994E+02 -0.11331E+07
 0.74949997E+02 -0.11842E+07
 0.74999992E+02 -0.11756E+07
 0.75049995E+02 -0.11117E+07
 0.75099998E+02 -0.98393E+06
 0.75149994E+02 -0.78940E+06
 0.75199997E+02 -0.57117E+06
 0.75249992E+02 -0.37032E+06
 0.75299995E+02 -0.17896E+06
 0.75349998E+02 -0.69386E+04
 0.75399994E+02  0.68388E+05
 0.75449997E+02  0.10976E+05
 0.75499992E+02 -0.12784E+06
 0.75549995E+02 -0.31513E+06
 0.75599998E+02 -0.51063E+06
 0.75649994E+02 -0.61359E+06
 0.75699997E+02 -0.61739E+06
 0.75749992E+02 -0.57251E+06
 0.75799995E+02 -0.48451E+06
 0.75849998E+02 -0.39783E+06
 0.75899994E+02 -0.33503E+06
 0.75949997E+02 -0.27747E+06
 0.75999992E+02 -0.22426E+06
 0.76049995E+02 -0.15331E+06
 0.76099998E+02 -0.64050E+05
 0.76149994E+02  0.56559E+05
 0.76199997E+02  0.21376E+06
 0.76249992E+02  0.33069E+06
 0.76299995E+02  0.37919E+06
 0.76349998E+02  0.41337E+06
 0.76399994E+02  0.47187E+06
 0.76449997E+02  0.55289E+06
 0.76499992E+02  0.65834E+06
 0.76549995E+02  0.79881E+06
 0.76599998E+02  0.94698E+06
 0.76649994E+02  0.10639E+07
 0.76699997E+02  0.11627E+07
 0.76749992E+02  0.12692E+07
 0.76799995E+02  0.13966E+07
 0.76849998E+02  0.15399E+07
 0.76899994E+02  0.16761E+07
 0.76949997E+02  0.17786E+07
 0.76999992E+02  0.18345E+07
 0.77049995E+02  0.18293E+07
 0.77099998E+02  0.17296E+07
 0.77149994E+02  0.15315E+07
 0.77199997E+02  0.12792E+07
 0.77249992E+02  0.10116E+07
 0.77299995E+02  0.74916E+06
 0.77349998E+02  0.50515E+06
 0.77399994E+02  0.28656E+06
 0.77449997E+02  0.13497E+06
 0.77499992E+02  0.87430E+05
 0.77549995E+02  0.13370E+06
 0.77599998E+02  0.24976E+06
 0.77649994E+02  0.44742E+06
 0.77699997E+02  0.69199E+06
 0.77749992E+02  0.93796E+06
 0.77799995E+02  0.11710E+07
 0.77849998E+02  0.13425E+07
 0.77899994E+02  0.14204E+07
 0.77949997E+02  0.14303E+07
 0.77999992E+02  0.13890E+07
 0.78049995E+02  0.12921E+07
 0.78099998E+02  0.11853E+07
 0.78149994E+02  0.11295E+07
 0.78199997E+02  0.11137E+07
 0.78249992E+02  0.10615E+07
 0.78299995E+02  0.92917E+06
 0.78349998E+02  0.74681E+06
 0.78399994E+02  0.54107E+06
 0.78449997E+02  0.31670E+06
 0.78499992E+02  0.13165E+06
 0.78549995E+02  0.27446E+05
 0.78599998E+02 -0.50783E+04
 0.78649994E+02 -0.10413E+04
 0.78699997E+02 -0.55916E+04
 0.78749992E+02 -0.57115E+05
 0.78799995E+02 -0.13920E+06
 0.78849998E+02 -0.23139E+06
 0.78899994E+02 -0.34968E+06
 0.78949997E+02 -0.49975E+06
 0.78999992E+02 -0.68273E+06
 0.79049995E+02 -0.88301E+06
 0.79099998E+02 -0.10922E+07
 0.79149994E+02 -0.13140E+07
 0.79199997E+02 -0.15328E+07
 0.79249992E+02 -0.16821E+07
 0.79299995E+02 -0.17040E+07
 0.79349998E+02 -0.15706E+07
 0.79399994E+02 -0.13267E+07
 0.79449997E+02 -0.10750E+07
 0.79499992E+02 -0.88039E+06
 0.79549995E+02 -0.75383E+06
 0.79599998E+02 -0.66256E+06
 0.79649994E+02 -0.59224E+06
 0.79699997E+02 -0.54182E+06
 0.79749992E+02 -0.49110E+06
 0.79799995E+02 -0.44685E+06
 0.79849998E+02 -0.41663E+06
 0.79899994E+02 -0.38295E+06
 0.79949997E+02 -0.33674E+06
 0.79999992E+02 -0.28324E+06
 0.80049995E+02 -0.23752E+06
 0.80099998E+02 -0.20958E+06
 0.80149994E+02 -0.17130E+06
 0.80199997E+02 -0.11519E+06
 0.80249992E+02 -0.51325E+05
 0.80299995E+02  0.47132E+05
 0.80349998E+02  0.16950E+06
 0.80399994E+02  0.29438E+06
 0.80449997E+02  0.40745E+06
 0.80499992E+02  0.48197E+06
 0.80549995E+02  0.50373E+06
 0.80599998E+02  0.49299E+06
 0.80649994E+02  0.45394E+06
 0.80699997E+02  0.39308E+06
 0.80749992E+02  0.36606E+06
 0.80799995E+02  0.39530E+06
 0.80849998E+02  0.45179E+06
 0.80899994E+02  0.51384E+06
 0.80949997E+02  0.59850E+06
 0.80999992E+02  0.71494E+06
 0.81049995E+02  0.85771E+06
 0.81099998E+02  0.10159E+07
 0.81149994E+02  0.11779E+07
 0.81199997E+02  0.13208E+07
 0.81249992E+02  0.14293E+07
 0.81299995E+02  0.14920E+07
 0.81349998E+02  0.14934E+07
 0.81399994E+02  0.14340E+07
 0.81449997E+02  0.13281E+07
 0.81499992E+02  0.12053E+07
 0.81549995E+02  0.10907E+07
 0.81599998E+02  0.10240E+07
 0.81649994E+02  0.10219E+07
 0.81699997E+02  0.10790E+07
 0.81749992E+02  0.11763E+07
 0.81799995E+02  0.12963E+07
 0.81849998E+02  0.14244E+07
 0.81899994E+02  0.15539E+07
 0.81949997E+02  0.16743E+07
 0.81999992E+02  0.17360E+07
 0.82049995E+02  0.16890E+07
 0.82099998E+02  0.15169E+07
 0.82149994E+02  0.12667E+07
 0.82199997E+02  0.10136E+07
 0.82249992E+02  0.81106E+06
 0.82299995E+02  0.65213E+06
 0.82349998E+02  0.51673E+06
 0.82399994E+02  0.41177E+06
 0.82449997E+02  0.34082E+06
 0.82499992E+02  0.27965E+06
 0.82549995E+02  0.22025E+06
 0.82599998E+02  0.16871E+06
 0.82649994E+02  0.10888E+06
 0.82699997E+02  0.45338E+05
 0.82749992E+02 -0.81629E+04
 0.82799995E+02 -0.54981E+05
 0.82849998E+02 -0.11925E+06
 0.82899994E+02 -0.21847E+06
 0.82949997E+02 -0.35445E+06
 0.82999992E+02 -0.50251E+06
 0.83049995E+02 -0.64272E+06
 0.83099998E+02 -0.78212E+06
 0.83149994E+02 -0.91249E+06
 0.83199997E+02 -0.10022E+07
 0.83249992E+02 -0.10106E+07
 0.83299995E+02 -0.90958E+06
 0.83349998E+02 -0.70562E+06
 0.83399994E+02 -0.43219E+06
 0.83449997E+02 -0.12025E+06
 0.83499992E+02  0.18392E+06
 0.83549995E+02  0.45442E+06
 0.83599998E+02  0.65517E+06
 0.83649994E+02  0.74477E+06
 0.83699997E+02  0.72560E+06
 0.83749992E+02  0.61793E+06
 0.83799995E+02  0.45573E+06
 0.83849998E+02  0.27054E+06
 0.83899994E+02  0.86948E+05
 0.83949997E+02 -0.85691E+05
 0.83999992E+02 -0.24990E+06
 0.84049995E+02 -0.39736E+06
 0.84099998E+02 -0.52336E+06
 0.84149994E+02 -0.65165E+06
 0.84199997E+02 -0.78286E+06
 0.84249992E+02 -0.88764E+06
 0.84299995E+02 -0.96175E+06
 0.84349998E+02 -0.10182E+07
 0.84399994E+02 -0.10645E+07
 0.84449997E+02 -0.11214E+07
 0.84499992E+02 -0.11854E+07
 0.84549995E+02 -0.12368E+07
 0.84599998E+02 -0.12577E+07
 0.84649994E+02 -0.12422E+07
 0.84699997E+02 -0.12007E+07
 0.84749992E+02 -0.11446E+07
 0.84799995E+02 -0.10726E+07
 0.84849998E+02 -0.97661E+06
 0.84899994E+02 -0.86855E+06
 0.84949997E+02 -0.73997E+06
 0.84999992E+02 -0.57375E+06
 0.85049995E+02 -0.35411E+06
 0.85099998E+02 -0.90655E+05
 0.85149994E+02  0.17569E+06
 0.85199997E+02  0.39162E+06
 0.85249992E+02  0.51697E+06
 0.85299995E+02  0.56348E+06
 0.85349998E+02  0.56379E+06
 0.85399994E+02  0.51923E+06
 0.85449997E+02  0.44486E+06
 0.85499992E+02  0.37411E+06
 0.85549995E+02  0.32517E+06
 0.85599998E+02  0.32455E+06
 0.85649994E+02  0.39009E+06
 0.85699997E+02  0.50600E+06
 0.85749992E+02  0.62073E+06
 0.85799995E+02  0.67803E+06
 0.85849998E+02  0.66057E+06
 0.85899994E+02  0.57750E+06
 0.85949997E+02  0.42604E+06
 0.85999992E+02  0.21552E+06
 0.86049995E+02 -0.19800E+05
 0.86099998E+02 -0.23514E+06
 0.86149994E+02 -0.39080E+06
 0.86199997E+02 -0.47742E+06
 0.86249992E+02 -0.52638E+06
 0.86299995E+02 -0.54060E+06
 0.86349998E+02 -0.50515E+06
 0.86399994E+02 -0.43241E+06
 0.86449997E+02 -0.33114E+06
 0.86499992E+02 -0.22767E+06
 0.86549995E+02 -0.12003E+06
 0.86599998E+02  0.65218E+04
 0.86649994E+02  0.12559E+06
 0.86699997E+02  0.22778E+06
 0.86749992E+02  0.29688E+06
 0.86799995E+02  0.32416E+06
 0.86849998E+02  0.34738E+06
 0.86899994E+02  0.39259E+06
 0.86949997E+02  0.45267E+06
 0.86999992E+02  0.50094E+06
 0.87049995E+02  0.52864E+06
 0.87099998E+02  0.55224E+06
 0.87149994E+02  0.59096E+06
 0.87199997E+02  0.63030E+06
 0.87249992E+02  0.67022E+06
 0.87299995E+02  0.71651E+06
 0.87349998E+02  0.76346E+06
 0.87399994E+02  0.80684E+06
 0.87449997E+02  0.82570E+06
 0.87499992E+02  0.82681E+06
 0.87549995E+02  0.81729E+06
 0.87599991E+02  0.80092E+06
 0.87649994E+02  0.77281E+06
 0.87699997E+02  0.73025E+06
 0.87749992E+02  0.67485E+06
 0.87799995E+02  0.59291E+06
 0.87849991E+02  0.48789E+06
 0.87899994E+02  0.37464E+06
 0.87949997E+02  0.27032E+06
 0.87999992E+02  0.19763E+06
 0.88049995E+02  0.14247E+06
 0.88099991E+02  0.11002E+06
 0.88149994E+02  0.94121E+05
 0.88199997E+02  0.83398E+05
 0.88249992E+02  0.89177E+05
 0.88299995E+02  0.96781E+05
 0.88349991E+02  0.12172E+06
 0.88399994E+02  0.17678E+06
 0.88449997E+02  0.24837E+06
 0.88499992E+02  0.31334E+06
 0.88549995E+02  0.36294E+06
 0.88599991E+02  0.40563E+06
 0.88649994E+02  0.45148E+06
 0.88699997E+02  0.52005E+06
 0.88749992E+02  0.61655E+06
 0.88799995E+02  0.70802E+06
 0.88849991E+02  0.77022E+06
 0.88899994E+02  0.81560E+06
 0.88949997E+02  0.85478E+06
 0.88999992E+02  0.89413E+06
 0.89049995E+02  0.93006E+06
 0.89099991E+02  0.93524E+06
 0.89149994E+02  0.89115E+06
 0.89199997E+02  0.80593E+06
 0.89249992E+02  0.69672E+06
 0.89299995E+02  0.56320E+06
 0.89349991E+02  0.41906E+06
 0.89399994E+02  0.27669E+06
 0.89449997E+02  0.13612E+06
 0.89499992E+02  0.43738E+04
 0.89549995E+02 -0.12084E+06
 0.89599991E+02 -0.24104E+06
 0.89649994E+02 -0.34025E+06
 0.89699997E+02 -0.37503E+06
 0.89749992E+02 -0.32992E+06
 0.89799995E+02 -0.23476E+06
 0.89849991E+02 -0.13160E+06
 0.89899994E+02 -0.36728E+05
 0.89949997E+02  0.56456E+05
 0.89999992E+02  0.13947E+06
 0.90049995E+02  0.18564E+06
 0.90099991E+02  0.18887E+06
 0.90149994E+02  0.16770E+06
 0.90199997E+02  0.13611E+06
 0.90249992E+02  0.99520E+05
 0.90299995E+02  0.52891E+05
 0.90349991E+02  0.15196E+05
 0.90399994E+02  0.60728E+04
 0.90449997E+02  0.60660E+04
 0.90499992E+02  0.24564E+04
 0.90549995E+02 -0.11353E+04
 0.90599991E+02 -0.12011E+05
 0.90649994E+02 -0.19552E+05
 0.90699997E+02 -0.53025E+04
 0.90749992E+02  0.35997E+05
 0.90799995E+02  0.92449E+05
 0.90849991E+02  0.13905E+06
 0.90899994E+02  0.15985E+06
 0.90949997E+02  0.14732E+06
 0.90999992E+02  0.11020E+06
 0.91049995E+02  0.44309E+05
 0.91099991E+02 -0.48304E+05
 0.91149994E+02 -0.14560E+06
 0.91199997E+02 -0.23879E+06
 0.91249992E+02 -0.29657E+06
 0.91299995E+02 -0.30534E+06
 0.91349991E+02 -0.27424E+06
 0.91399994E+02 -0.18812E+06
 0.91449997E+02 -0.44671E+05
 0.91499992E+02  0.12947E+06
 0.91549995E+02  0.29801E+06
 0.91599991E+02  0.44357E+06
 0.91649994E+02  0.56404E+06
 0.91699997E+02  0.65524E+06
 0.91749992E+02  0.71518E+06
 0.91799995E+02  0.73578E+06
 0.91849991E+02  0.71356E+06
 0.91899994E+02  0.66417E+06
 0.91949997E+02  0.60323E+06
 0.91999992E+02  0.53564E+06
 0.92049995E+02  0.47469E+06
 0.92099991E+02  0.44244E+06
 0.92149994E+02  0.45642E+06
 0.92199997E+02  0.51280E+06
 0.92249992E+02  0.58040E+06
 0.92299995E+02  0.63894E+06
 0.92349991E+02  0.67948E+06
 0.92399994E+02  0.68921E+06
 0.92449997E+02  0.66445E+06
 0.92499992E+02  0.60313E+06
 0.92549995E+02  0.52154E+06
 0.92599991E+02  0.44053E+06
 0.92649994E+02  0.35296E+06
 0.92699997E+02  0.27484E+06
 0.92749992E+02  0.22486E+06
 0.92799995E+02  0.20146E+06
 0.92849991E+02  0.19805E+06
 0.92899994E+02  0.21426E+06
 0.92949997E+02  0.25357E+06
 0.92999992E+02  0.30474E+06
 0.93049995E+02  0.36556E+06
 0.93099991E+02  0.42498E+06
 0.93149994E+02  0.46589E+06
 0.93199997E+02  0.48174E+06
 0.93249992E+02  0.46906E+06
 0.93299995E+02  0.43559E+06
 0.93349991E+02  0.37813E+06
 0.93399994E+02  0.29401E+06
 0.93449997E+02  0.19942E+06
 0.93499992E+02  0.11180E+06
 0.93549995E+02  0.49613E+05
 0.93599991E+02  0.23508E+05
 0.93649994E+02  0.22741E+05
 0.93699997E+02  0.31903E+05
 0.93749992E+02  0.52009E+05
 0.93799995E+02  0.80420E+05
 0.93849991E+02  0.11437E+06
 0.93899994E+02  0.15873E+06
 0.93949997E+02  0.20051E+06
 0.93999992E+02  0.21714E+06
 0.94049995E+02  0.20801E+06
 0.94099991E+02  0.18460E+06
 0.94149994E+02  0.14539E+06
 0.94199997E+02  0.96511E+05
 0.94249992E+02  0.70979E+05
 0.94299995E+02  0.75969E+05
 0.94349991E+02  0.98107E+05
 0.94399994E+02  0.12920E+06
 0.94449997E+02  0.14147E+06
 0.94499992E+02  0.12732E+06
 0.94549995E+02  0.94300E+05
 0.94599991E+02  0.29004E+05
 0.94649994E+02 -0.65041E+05
 0.94699997E+02 -0.17692E+06
 0.94749992E+02 -0.28970E+06
 0.94799995E+02 -0.38082E+06
 0.94849991E+02 -0.44510E+06
 0.94899994E+02 -0.47080E+06
 0.94949997E+02 -0.44876E+06
 0.94999992E+02 -0.40068E+06
 0.95049995E+02 -0.35090E+06
 0.95099991E+02 -0.30836E+06
 0.95149994E+02 -0.29352E+06
 0.95199997E+02 -0.28694E+06
 0.95249992E+02 -0.25701E+06
 0.95299995E+02 -0.21480E+06
 0.95349991E+02 -0.17685E+06
 0.95399994E+02 -0.15909E+06
 0.95449997E+02 -0.17813E+06
 0.95499992E+02 -0.21774E+06
 0.95549995E+02 -0.26213E+06
 0.95599991E+02 -0.32770E+06
 0.95649994E+02 -0.40699E+06
 0.95699997E+02 -0.46358E+06
 0.95749992E+02 -0.47599E+06
 0.95799995E+02 -0.44817E+06
 0.95849991E+02 -0.39661E+06
 0.95899994E+02 -0.33241E+06
 0.95949997E+02 -0.25915E+06
 0.95999992E+02 -0.19425E+06
 0.96049995E+02 -0.14630E+06
 0.96099991E+02 -0.11132E+06
 0.96149994E+02 -0.84182E+05
 0.96199997E+02 -0.53715E+05
 0.96249992E+02 -0.29315E+05
 0.96299995E+02 -0.30770E+05
 0.96349991E+02 -0.43140E+05
 0.96399994E+02 -0.44749E+05
 0.96449997E+02 -0.28993E+05
 0.96499992E+02 -0.26261E+04
 0.96549995E+02  0.28033E+05
 0.96599991E+02  0.76597E+05
 0.96649994E+02  0.15385E+06
 0.96699997E+02  0.23143E+06
 0.96749992E+02  0.27786E+06
 0.96799995E+02  0.29394E+06
 0.96849991E+02  0.27476E+06
 0.96899994E+02  0.22534E+06
 0.96949997E+02  0.17187E+06
 0.96999992E+02  0.15477E+06
 0.97049995E+02  0.19697E+06
 0.97099991E+02  0.28413E+06
 0.97149994E+02  0.38522E+06
 0.97199997E+02  0.48991E+06
 0.97249992E+02  0.59791E+06
 0.97299995E+02  0.69286E+06
 0.97349991E+02  0.76458E+06
 0.97399994E+02  0.81684E+06
 0.97449997E+02  0.86161E+06
 0.97499992E+02  0.90574E+06
 0.97549995E+02  0.94298E+06
 0.97599991E+02  0.96752E+06
 0.97649994E+02  0.97270E+06
 0.97699997E+02  0.95525E+06
 0.97749992E+02  0.94209E+06
 0.97799995E+02  0.94027E+06
 0.97849991E+02  0.93705E+06
 0.97899994E+02  0.93540E+06
 0.97949997E+02  0.95044E+06
 0.97999992E+02  0.99264E+06
