-0.20000000E+01 -0.32792E+04
-0.19500000E+01 -0.32629E+04
-0.19000000E+01 -0.32789E+04
-0.18500000E+01 -0.32787E+04
-0.18000000E+01 -0.32837E+04
-0.17500000E+01 -0.32623E+04
-0.17000000E+01 -0.32381E+04
-0.16500001E+01 -0.32105E+04
-0.16000000E+01 -0.31961E+04
-0.15500000E+01 -0.31937E+04
-0.15000000E+01 -0.31957E+04
-0.14500000E+01 -0.32042E+04
-0.14000001E+01 -0.32399E+04
-0.13500000E+01 -0.32693E+04
-0.13000001E+01 -0.32891E+04
-0.12500000E+01 -0.32840E+04
-0.12000000E+01 -0.32708E+04
-0.11500001E+01 -0.32545E+04
-0.11000000E+01 -0.32433E+04
-0.10500001E+01 -0.32380E+04
-0.10000000E+01 -0.32303E+04
-0.95000005E+00 -0.32257E+04
-0.90000010E+00 -0.31876E+04
-0.85000002E+00 -0.31427E+04
-0.80000007E+00 -0.30971E+04
-0.75000012E+00 -0.30584E+04
-0.70000005E+00 -0.30503E+04
-0.65000010E+00 -0.30811E+04
-0.60000014E+00 -0.31366E+04
-0.55000007E+00 -0.32164E+04
-0.50000012E+00 -0.32730E+04
-0.45000005E+00 -0.32792E+04
-0.40000010E+00 -0.32384E+04
-0.35000014E+00 -0.31844E+04
-0.30000007E+00 -0.31277E+04
-0.25000012E+00 -0.31146E+04
-0.20000005E+00 -0.31482E+04
-0.15000010E+00 -0.31885E+04
-0.10000014E+00 -0.32243E+04
-0.50000072E-01 -0.32495E+04
-0.11920929E-06 -0.32637E+04
 0.49999952E-01 -0.32522E+04
 0.99999905E-01 -0.32517E+04
 0.14999986E+00 -0.32408E+04
 0.19999981E+00 -0.32389E+04
 0.24999976E+00 -0.32420E+04
 0.29999995E+00 -0.32627E+04
 0.34999990E+00 -0.32723E+04
 0.39999986E+00 -0.32647E+04
 0.44999981E+00 -0.32749E+04
 0.49999976E+00 -0.32771E+04
 0.54999995E+00 -0.32887E+04
 0.59999990E+00 -0.32900E+04
 0.64999986E+00 -0.32740E+04
 0.69999981E+00 -0.32569E+04
 0.74999976E+00 -0.32467E+04
 0.79999971E+00 -0.32308E+04
 0.84999990E+00 -0.32164E+04
 0.89999986E+00 -0.32112E+04
 0.94999981E+00 -0.32414E+04
 0.99999976E+00 -0.32917E+04
 0.10499997E+01 -0.33170E+04
 0.10999999E+01 -0.33138E+04
 0.11499999E+01 -0.32653E+04
 0.11999998E+01 -0.32048E+04
 0.12499998E+01 -0.31684E+04
 0.12999997E+01 -0.31666E+04
 0.13499999E+01 -0.32256E+04
 0.13999999E+01 -0.32906E+04
 0.14499998E+01 -0.33410E+04
 0.14999998E+01 -0.33588E+04
 0.15499997E+01 -0.33343E+04
 0.15999999E+01 -0.32845E+04
 0.16499999E+01 -0.32318E+04
 0.16999998E+01 -0.31951E+04
 0.17499998E+01 -0.31523E+04
 0.17999997E+01 -0.31501E+04
 0.18499997E+01 -0.31492E+04
 0.18999999E+01 -0.31438E+04
 0.19499998E+01 -0.31338E+04
 0.19999998E+01 -0.31404E+04
 0.20499997E+01 -0.31336E+04
 0.20999999E+01 -0.31135E+04
 0.21499996E+01 -0.31113E+04
 0.21999998E+01 -0.31296E+04
 0.22499995E+01 -0.31750E+04
 0.22999997E+01 -0.32118E+04
 0.23499999E+01 -0.32526E+04
 0.23999996E+01 -0.32526E+04
 0.24499998E+01 -0.32542E+04
 0.24999995E+01 -0.32206E+04
 0.25499997E+01 -0.31746E+04
 0.25999999E+01 -0.31474E+04
 0.26499996E+01 -0.31187E+04
 0.26999998E+01 -0.31079E+04
 0.27499995E+01 -0.31096E+04
 0.27999997E+01 -0.31270E+04
 0.28499999E+01 -0.31489E+04
 0.28999996E+01 -0.31732E+04
 0.29499998E+01 -0.31924E+04
 0.29999995E+01 -0.31977E+04
 0.30499997E+01 -0.32030E+04
 0.30999999E+01 -0.32235E+04
 0.31499996E+01 -0.32312E+04
 0.31999998E+01 -0.32447E+04
 0.32499995E+01 -0.32543E+04
 0.32999997E+01 -0.32750E+04
 0.33499999E+01 -0.33000E+04
 0.33999996E+01 -0.33273E+04
 0.34499998E+01 -0.33561E+04
 0.34999995E+01 -0.33394E+04
 0.35499997E+01 -0.33054E+04
 0.35999994E+01 -0.32554E+04
 0.36499996E+01 -0.32262E+04
 0.36999998E+01 -0.32317E+04
 0.37499995E+01 -0.32539E+04
 0.37999997E+01 -0.32722E+04
 0.38499994E+01 -0.32863E+04
 0.38999996E+01 -0.32846E+04
 0.39499998E+01 -0.32653E+04
 0.39999995E+01 -0.32072E+04
 0.40499997E+01 -0.31688E+04
 0.40999994E+01 -0.31721E+04
 0.41499996E+01 -0.31987E+04
 0.41999998E+01 -0.32355E+04
 0.42499995E+01 -0.32460E+04
 0.42999997E+01 -0.32635E+04
 0.43499994E+01 -0.32636E+04
 0.43999996E+01 -0.32606E+04
 0.44499998E+01 -0.32581E+04
 0.44999995E+01 -0.32516E+04
 0.45499997E+01 -0.32388E+04
 0.45999994E+01 -0.32088E+04
 0.46499996E+01 -0.31752E+04
 0.46999998E+01 -0.31502E+04
 0.47499995E+01 -0.31333E+04
 0.47999997E+01 -0.31618E+04
 0.48499994E+01 -0.31891E+04
 0.48999996E+01 -0.32203E+04
 0.49499998E+01 -0.32072E+04
 0.49999995E+01 -0.31466E+04
 0.50499997E+01 -0.31250E+04
 0.50999994E+01 -0.31334E+04
 0.51499996E+01 -0.31878E+04
 0.51999998E+01 -0.32320E+04
 0.52499995E+01 -0.32355E+04
 0.52999997E+01 -0.32252E+04
 0.53499994E+01 -0.31962E+04
 0.53999996E+01 -0.31697E+04
 0.54499993E+01 -0.31714E+04
 0.54999995E+01 -0.31740E+04
 0.55499997E+01 -0.31925E+04
 0.55999994E+01 -0.32243E+04
 0.56499996E+01 -0.32324E+04
 0.56999993E+01 -0.32153E+04
 0.57499995E+01 -0.31766E+04
 0.57999997E+01 -0.31539E+04
 0.58499994E+01 -0.31560E+04
 0.58999996E+01 -0.31898E+04
 0.59499993E+01 -0.32500E+04
 0.59999995E+01 -0.32853E+04
 0.60499992E+01 -0.33110E+04
 0.60999994E+01 -0.33047E+04
 0.61499996E+01 -0.33171E+04
 0.61999998E+01 -0.33605E+04
 0.62499990E+01 -0.34086E+04
 0.62999992E+01 -0.34288E+04
 0.63499994E+01 -0.34075E+04
 0.63999996E+01 -0.33647E+04
 0.64499998E+01 -0.33032E+04
 0.64999990E+01 -0.32609E+04
 0.65499992E+01 -0.32233E+04
 0.65999994E+01 -0.32224E+04
 0.66499996E+01 -0.32123E+04
 0.66999998E+01 -0.32160E+04
 0.67499990E+01 -0.32007E+04
 0.67999992E+01 -0.31711E+04
 0.68499994E+01 -0.31463E+04
 0.68999996E+01 -0.31120E+04
 0.69499998E+01 -0.31026E+04
 0.69999990E+01 -0.30936E+04
 0.70499992E+01 -0.30922E+04
 0.70999994E+01 -0.30824E+04
 0.71499996E+01 -0.30817E+04
 0.71999998E+01 -0.30889E+04
 0.72499990E+01 -0.31232E+04
 0.72999992E+01 -0.31529E+04
 0.73499994E+01 -0.31975E+04
 0.73999996E+01 -0.32344E+04
 0.74499998E+01 -0.32555E+04
 0.74999990E+01 -0.32693E+04
 0.75499992E+01 -0.32433E+04
 0.75999994E+01 -0.32345E+04
 0.76499996E+01 -0.32081E+04
 0.76999998E+01 -0.31994E+04
 0.77499990E+01 -0.32029E+04
 0.77999992E+01 -0.32078E+04
 0.78499994E+01 -0.32363E+04
 0.78999996E+01 -0.32661E+04
 0.79499998E+01 -0.32970E+04
 0.79999990E+01 -0.32938E+04
 0.80499992E+01 -0.32702E+04
 0.80999994E+01 -0.32489E+04
 0.81499996E+01 -0.32614E+04
 0.81999998E+01 -0.32851E+04
 0.82499990E+01 -0.33130E+04
 0.82999992E+01 -0.33328E+04
 0.83499994E+01 -0.33336E+04
 0.83999996E+01 -0.33353E+04
 0.84499998E+01 -0.33054E+04
 0.84999990E+01 -0.32794E+04
 0.85499992E+01 -0.32601E+04
 0.85999994E+01 -0.32365E+04
 0.86499996E+01 -0.32262E+04
 0.86999998E+01 -0.32146E+04
 0.87499990E+01 -0.31944E+04
 0.87999992E+01 -0.31705E+04
 0.88499994E+01 -0.31440E+04
 0.88999996E+01 -0.31425E+04
 0.89499998E+01 -0.31570E+04
 0.89999990E+01 -0.31561E+04
 0.90499992E+01 -0.31527E+04
 0.90999994E+01 -0.31558E+04
 0.91499996E+01 -0.31760E+04
 0.91999989E+01 -0.32005E+04
 0.92499990E+01 -0.32247E+04
 0.92999992E+01 -0.32309E+04
 0.93499994E+01 -0.32256E+04
 0.93999996E+01 -0.31867E+04
 0.94499989E+01 -0.31718E+04
 0.94999990E+01 -0.31765E+04
 0.95499992E+01 -0.31851E+04
 0.95999994E+01 -0.31894E+04
 0.96499996E+01 -0.31630E+04
 0.96999989E+01 -0.31434E+04
 0.97499990E+01 -0.31335E+04
 0.97999992E+01 -0.31218E+04
 0.98499994E+01 -0.31287E+04
 0.98999996E+01 -0.31511E+04
 0.99499989E+01 -0.31701E+04
 0.99999990E+01 -0.31938E+04
 0.10049999E+02 -0.31866E+04
 0.10099999E+02 -0.32138E+04
 0.10150000E+02 -0.32314E+04
 0.10199999E+02 -0.32306E+04
 0.10249999E+02 -0.32223E+04
 0.10299999E+02 -0.31859E+04
 0.10349999E+02 -0.31695E+04
 0.10400000E+02 -0.31602E+04
 0.10449999E+02 -0.31651E+04
 0.10499999E+02 -0.31747E+04
 0.10549999E+02 -0.31845E+04
 0.10599999E+02 -0.32050E+04
 0.10650000E+02 -0.32073E+04
 0.10699999E+02 -0.32214E+04
 0.10749999E+02 -0.32448E+04
 0.10799999E+02 -0.32381E+04
 0.10849999E+02 -0.32382E+04
 0.10900000E+02 -0.32373E+04
 0.10949999E+02 -0.32347E+04
 0.10999999E+02 -0.32519E+04
 0.11049999E+02 -0.32728E+04
 0.11099999E+02 -0.33100E+04
 0.11150000E+02 -0.33523E+04
 0.11199999E+02 -0.33663E+04
 0.11249999E+02 -0.33572E+04
 0.11299999E+02 -0.33286E+04
 0.11349999E+02 -0.32913E+04
 0.11400000E+02 -0.32689E+04
 0.11449999E+02 -0.32645E+04
 0.11499999E+02 -0.32635E+04
 0.11549999E+02 -0.32757E+04
 0.11599999E+02 -0.32875E+04
 0.11650000E+02 -0.32980E+04
 0.11699999E+02 -0.33015E+04
 0.11749999E+02 -0.32974E+04
 0.11799999E+02 -0.32986E+04
 0.11849999E+02 -0.32706E+04
 0.11900000E+02 -0.32450E+04
 0.11949999E+02 -0.32110E+04
 0.11999999E+02 -0.32029E+04
 0.12049999E+02 -0.32209E+04
 0.12099999E+02 -0.32362E+04
 0.12150000E+02 -0.32572E+04
 0.12199999E+02 -0.32456E+04
 0.12249999E+02 -0.32308E+04
 0.12299999E+02 -0.32084E+04
 0.12349999E+02 -0.32040E+04
 0.12400000E+02 -0.32068E+04
 0.12449999E+02 -0.32161E+04
 0.12499999E+02 -0.32174E+04
 0.12549999E+02 -0.32042E+04
 0.12599999E+02 -0.31992E+04
 0.12649999E+02 -0.31791E+04
 0.12699999E+02 -0.31653E+04
 0.12749999E+02 -0.31546E+04
 0.12799999E+02 -0.31452E+04
 0.12849999E+02 -0.31643E+04
 0.12899999E+02 -0.31938E+04
 0.12949999E+02 -0.32227E+04
 0.12999999E+02 -0.32406E+04
 0.13049999E+02 -0.32149E+04
 0.13099999E+02 -0.31695E+04
 0.13149999E+02 -0.31222E+04
 0.13199999E+02 -0.31133E+04
 0.13249999E+02 -0.31376E+04
 0.13299999E+02 -0.31708E+04
 0.13349999E+02 -0.32132E+04
 0.13399999E+02 -0.32494E+04
 0.13449999E+02 -0.32636E+04
 0.13499999E+02 -0.32691E+04
 0.13549999E+02 -0.32466E+04
 0.13599999E+02 -0.32035E+04
 0.13649999E+02 -0.31880E+04
 0.13699999E+02 -0.31706E+04
 0.13749999E+02 -0.31750E+04
 0.13799999E+02 -0.31792E+04
 0.13849999E+02 -0.31777E+04
 0.13899999E+02 -0.31835E+04
 0.13949999E+02 -0.31799E+04
 0.13999999E+02 -0.31809E+04
 0.14049999E+02 -0.31645E+04
 0.14099998E+02 -0.31345E+04
 0.14150000E+02 -0.31189E+04
 0.14199999E+02 -0.31148E+04
 0.14249998E+02 -0.31443E+04
 0.14299999E+02 -0.31907E+04
 0.14349998E+02 -0.32146E+04
 0.14400000E+02 -0.32238E+04
 0.14449999E+02 -0.32132E+04
 0.14499998E+02 -0.31968E+04
 0.14549999E+02 -0.32036E+04
 0.14599998E+02 -0.32223E+04
 0.14650000E+02 -0.32302E+04
 0.14699999E+02 -0.32550E+04
 0.14749998E+02 -0.32710E+04
 0.14799999E+02 -0.32734E+04
 0.14849998E+02 -0.32843E+04
 0.14900000E+02 -0.32888E+04
 0.14949999E+02 -0.33103E+04
 0.14999998E+02 -0.33167E+04
 0.15049999E+02 -0.33181E+04
 0.15099998E+02 -0.33172E+04
 0.15150000E+02 -0.33166E+04
 0.15199999E+02 -0.33366E+04
 0.15249998E+02 -0.33485E+04
 0.15299999E+02 -0.33509E+04
 0.15349998E+02 -0.33340E+04
 0.15400000E+02 -0.33019E+04
 0.15449999E+02 -0.32795E+04
 0.15499998E+02 -0.32645E+04
 0.15549999E+02 -0.32472E+04
 0.15599998E+02 -0.32398E+04
 0.15650000E+02 -0.32375E+04
 0.15699999E+02 -0.32462E+04
 0.15749998E+02 -0.32501E+04
 0.15799999E+02 -0.32412E+04
 0.15849998E+02 -0.32122E+04
 0.15900000E+02 -0.31592E+04
 0.15949999E+02 -0.31077E+04
 0.15999998E+02 -0.30632E+04
 0.16049999E+02 -0.30533E+04
 0.16099998E+02 -0.30585E+04
 0.16150000E+02 -0.30828E+04
 0.16199999E+02 -0.31090E+04
 0.16249998E+02 -0.31096E+04
 0.16299999E+02 -0.31184E+04
 0.16349998E+02 -0.31269E+04
 0.16400000E+02 -0.31593E+04
 0.16449999E+02 -0.32023E+04
 0.16499998E+02 -0.32272E+04
 0.16549999E+02 -0.32438E+04
 0.16599998E+02 -0.32362E+04
 0.16650000E+02 -0.32183E+04
 0.16699999E+02 -0.32187E+04
 0.16749998E+02 -0.32456E+04
 0.16799999E+02 -0.32874E+04
 0.16849998E+02 -0.33156E+04
 0.16900000E+02 -0.33281E+04
 0.16949999E+02 -0.33217E+04
 0.16999998E+02 -0.32936E+04
 0.17049999E+02 -0.32621E+04
 0.17099998E+02 -0.32248E+04
 0.17150000E+02 -0.32009E+04
 0.17199999E+02 -0.31953E+04
 0.17249998E+02 -0.32105E+04
 0.17299999E+02 -0.32278E+04
 0.17349998E+02 -0.32502E+04
 0.17400000E+02 -0.32516E+04
 0.17449999E+02 -0.32293E+04
 0.17499998E+02 -0.32060E+04
 0.17549999E+02 -0.31624E+04
 0.17599998E+02 -0.31295E+04
 0.17650000E+02 -0.31248E+04
 0.17699999E+02 -0.31512E+04
 0.17749998E+02 -0.31875E+04
 0.17799999E+02 -0.32193E+04
 0.17849998E+02 -0.32470E+04
 0.17900000E+02 -0.32614E+04
 0.17949999E+02 -0.32780E+04
 0.17999998E+02 -0.32995E+04
 0.18049999E+02 -0.33194E+04
 0.18099998E+02 -0.33219E+04
 0.18150000E+02 -0.33022E+04
 0.18199999E+02 -0.32871E+04
 0.18249998E+02 -0.32694E+04
 0.18299999E+02 -0.32620E+04
 0.18349998E+02 -0.32500E+04
 0.18400000E+02 -0.32409E+04
 0.18449999E+02 -0.32357E+04
 0.18499998E+02 -0.32308E+04
 0.18549999E+02 -0.32206E+04
 0.18599998E+02 -0.32070E+04
 0.18650000E+02 -0.31904E+04
 0.18699999E+02 -0.31691E+04
 0.18749998E+02 -0.31319E+04
 0.18799999E+02 -0.30906E+04
 0.18849998E+02 -0.30911E+04
 0.18900000E+02 -0.31100E+04
 0.18949999E+02 -0.31611E+04
 0.18999998E+02 -0.32067E+04
 0.19049999E+02 -0.32323E+04
 0.19099998E+02 -0.32394E+04
 0.19150000E+02 -0.32371E+04
 0.19199999E+02 -0.32331E+04
 0.19249998E+02 -0.32337E+04
 0.19299999E+02 -0.32415E+04
 0.19349998E+02 -0.32270E+04
 0.19400000E+02 -0.32200E+04
 0.19449999E+02 -0.32207E+04
 0.19499998E+02 -0.32232E+04
 0.19549999E+02 -0.32455E+04
 0.19599998E+02 -0.32663E+04
 0.19650000E+02 -0.32755E+04
 0.19699999E+02 -0.32835E+04
 0.19749998E+02 -0.32720E+04
 0.19799999E+02 -0.32664E+04
 0.19849998E+02 -0.32534E+04
 0.19900000E+02 -0.32450E+04
 0.19949999E+02 -0.32497E+04
 0.19999998E+02 -0.32388E+04
 0.20049999E+02 -0.32171E+04
 0.20099998E+02 -0.31516E+04
 0.20150000E+02 -0.30548E+04
 0.20199999E+02 -0.29254E+04
 0.20249998E+02 -0.27555E+04
 0.20299999E+02 -0.27118E+04
 0.20349998E+02 -0.29567E+04
 0.20399998E+02 -0.33349E+04
 0.20449999E+02 -0.37565E+04
 0.20499998E+02 -0.39584E+04
 0.20549999E+02 -0.32404E+04
 0.20599998E+02 -0.25478E+04
 0.20649998E+02 -0.24571E+04
 0.20699999E+02 -0.22990E+04
 0.20749998E+02 -0.31413E+04
 0.20799999E+02 -0.35580E+04
 0.20849998E+02 -0.28051E+04
 0.20899998E+02 -0.23562E+04
 0.20949999E+02 -0.11115E+04
 0.20999998E+02 -0.88968E+03
 0.21049999E+02 -0.35032E+04
 0.21099998E+02 -0.49776E+04
 0.21149998E+02 -0.59355E+04
 0.21199999E+02 -0.34844E+04
 0.21249998E+02 -0.11690E+04
 0.21299999E+02 -0.34912E+04
 0.21349998E+02 -0.14885E+04
 0.21399998E+02 -0.31153E+04
 0.21449999E+02 -0.93710E+04
 0.21499998E+02 -0.70315E+04
 0.21549999E+02 -0.21065E+04
 0.21599998E+02 -0.15991E+03
 0.21649998E+02 -0.19475E+04
 0.21699999E+02 -0.60281E+04
 0.21749998E+02 -0.43385E+04
 0.21799999E+02 -0.55924E+04
 0.21849998E+02 -0.53765E+04
 0.21899998E+02 -0.79032E+03
 0.21949999E+02 -0.41784E+03
 0.21999998E+02 -0.86951E+03
 0.22049999E+02 -0.61936E+04
 0.22099998E+02 -0.68637E+04
 0.22149998E+02  0.22070E+04
 0.22199999E+02  0.51982E+03
 0.22249998E+02 -0.24085E+04
 0.22299999E+02 -0.60960E+04
 0.22349998E+02 -0.82106E+04
 0.22399998E+02 -0.36137E+04
 0.22449999E+02 -0.24764E+04
 0.22499998E+02  0.19054E+03
 0.22549999E+02 -0.24768E+03
 0.22599998E+02 -0.31991E+04
 0.22649998E+02 -0.61642E+04
 0.22699999E+02 -0.86426E+04
 0.22749998E+02 -0.44766E+04
 0.22799999E+02  0.73758E+04
 0.22849998E+02  0.39021E+04
 0.22899998E+02 -0.50040E+04
 0.22949999E+02 -0.88685E+04
 0.22999998E+02 -0.54122E+04
 0.23049999E+02 -0.41154E+04
 0.23099998E+02 -0.77615E+04
 0.23149998E+02  0.68875E+03
 0.23199999E+02  0.19736E+04
 0.23249998E+02  0.43060E+04
 0.23299999E+02 -0.26938E+04
 0.23349998E+02 -0.88291E+04
 0.23399998E+02 -0.87938E+04
 0.23449999E+02 -0.11410E+05
 0.23499998E+02 -0.13165E+04
 0.23549999E+02 -0.57712E+04
 0.23599998E+02 -0.32855E+04
 0.23649998E+02  0.37407E+04
 0.23699999E+02 -0.29298E+04
 0.23749998E+02 -0.57316E+04
 0.23799999E+02 -0.74408E+04
 0.23849998E+02 -0.24696E+04
 0.23899998E+02 -0.40963E+04
 0.23949999E+02 -0.33234E+04
 0.23999998E+02  0.12748E+04
 0.24049999E+02  0.24586E+03
 0.24099998E+02 -0.63935E+04
 0.24149998E+02 -0.58225E+04
 0.24199999E+02  0.94642E+03
 0.24249998E+02 -0.17477E+04
 0.24299999E+02 -0.39842E+04
 0.24349998E+02 -0.85932E+04
 0.24399998E+02  0.27983E+04
 0.24449999E+02 -0.38541E+04
 0.24499998E+02 -0.85493E+04
 0.24549999E+02  0.13344E+04
 0.24599998E+02  0.50577E+03
 0.24649998E+02 -0.76246E+04
 0.24699999E+02 -0.11561E+05
 0.24749998E+02 -0.36789E+04
 0.24799999E+02 -0.28100E+04
 0.24849998E+02  0.26862E+04
 0.24899998E+02 -0.50346E+04
 0.24949999E+02 -0.56340E+04
 0.24999998E+02  0.11298E+04
 0.25049999E+02  0.10991E+04
 0.25099998E+02 -0.26141E+03
 0.25149998E+02 -0.30122E+04
 0.25199999E+02 -0.15008E+04
 0.25249998E+02  0.44971E+04
 0.25299999E+02 -0.39763E+04
 0.25349998E+02 -0.56926E+04
 0.25399998E+02  0.18105E+03
 0.25449999E+02 -0.95472E+04
 0.25499998E+02 -0.85590E+04
 0.25549999E+02 -0.64112E+04
 0.25599998E+02 -0.76717E+04
 0.25649998E+02  0.84933E+04
 0.25699999E+02  0.44019E+04
 0.25749998E+02 -0.88109E+04
 0.25799999E+02 -0.51543E+04
 0.25849998E+02 -0.51602E+04
 0.25899998E+02 -0.43654E+03
 0.25949999E+02 -0.86965E+04
 0.25999998E+02 -0.60221E+04
 0.26049999E+02 -0.41197E+04
 0.26099998E+02 -0.28894E+04
 0.26149998E+02  0.28887E+04
 0.26199999E+02 -0.49264E+04
 0.26249998E+02 -0.98891E+04
 0.26299999E+02 -0.87746E+04
 0.26349998E+02  0.89921E+03
 0.26399998E+02  0.59453E+04
 0.26449999E+02  0.25178E+04
 0.26499998E+02  0.34358E+04
 0.26549999E+02 -0.52843E+04
 0.26599998E+02 -0.16564E+05
 0.26649998E+02 -0.18356E+05
 0.26699999E+02 -0.11440E+05
 0.26749998E+02  0.65409E+04
 0.26799999E+02  0.38564E+04
 0.26849998E+02 -0.21383E+04
 0.26899998E+02  0.27673E+04
 0.26949999E+02  0.38013E+04
 0.26999998E+02 -0.34002E+04
 0.27049997E+02 -0.10554E+05
 0.27099998E+02 -0.91458E+04
 0.27149998E+02 -0.38353E+04
 0.27199999E+02  0.19695E+04
 0.27249998E+02  0.57890E+04
 0.27299997E+02  0.17675E+04
 0.27349998E+02 -0.36618E+04
 0.27399998E+02 -0.62828E+04
 0.27449999E+02 -0.88176E+04
 0.27499998E+02 -0.83649E+04
 0.27549997E+02 -0.11297E+05
 0.27599998E+02 -0.74431E+03
 0.27649998E+02 -0.16948E+03
 0.27699999E+02 -0.49393E+04
 0.27749998E+02 -0.73922E+03
 0.27799997E+02  0.44386E+04
 0.27849998E+02  0.55904E+04
 0.27899998E+02 -0.70830E+04
 0.27949999E+02 -0.75700E+04
 0.27999998E+02 -0.30209E+04
 0.28049997E+02 -0.24858E+04
 0.28099998E+02 -0.90767E+04
 0.28149998E+02 -0.76004E+04
 0.28199999E+02  0.36218E+04
 0.28249998E+02  0.58268E+04
 0.28299997E+02 -0.31897E+04
 0.28349998E+02 -0.12297E+05
 0.28399998E+02 -0.18637E+05
 0.28449999E+02 -0.15610E+05
 0.28499998E+02 -0.11490E+05
 0.28549997E+02 -0.69299E+04
 0.28599998E+02  0.52163E+04
 0.28649998E+02  0.11415E+05
 0.28699999E+02  0.12640E+05
 0.28749998E+02  0.20650E+04
 0.28799997E+02 -0.89562E+04
 0.28849998E+02 -0.14004E+05
 0.28899998E+02 -0.16019E+05
 0.28949999E+02 -0.10148E+05
 0.28999998E+02  0.61704E+04
 0.29049997E+02  0.15170E+05
 0.29099998E+02  0.14270E+05
 0.29149998E+02 -0.37461E+04
 0.29199999E+02 -0.15687E+05
 0.29249998E+02 -0.13029E+05
 0.29299997E+02 -0.74957E+04
 0.29349998E+02  0.58461E+02
 0.29399998E+02 -0.25451E+04
 0.29449999E+02 -0.11625E+04
 0.29499998E+02  0.61118E+03
 0.29549997E+02  0.16854E+04
 0.29599998E+02 -0.44141E+04
 0.29649998E+02 -0.86406E+04
 0.29699999E+02 -0.10885E+05
 0.29749998E+02 -0.10753E+05
 0.29799997E+02 -0.19972E+04
 0.29849998E+02  0.71235E+04
 0.29899998E+02  0.71587E+04
 0.29949999E+02 -0.20292E+04
 0.29999998E+02 -0.59474E+04
 0.30049999E+02 -0.53052E+04
 0.30099998E+02 -0.75594E+04
 0.30149998E+02 -0.49207E+04
 0.30199997E+02  0.12891E+04
 0.30249996E+02 -0.15129E+04
 0.30299999E+02 -0.12360E+05
 0.30349998E+02 -0.14305E+05
 0.30399998E+02 -0.66648E+04
 0.30449997E+02  0.43004E+03
 0.30499996E+02  0.73185E+04
 0.30549999E+02  0.22975E+04
 0.30599998E+02 -0.76113E+03
 0.30649998E+02  0.93958E+03
 0.30699997E+02 -0.12339E+04
 0.30749996E+02 -0.58280E+04
 0.30799999E+02 -0.70320E+04
 0.30849998E+02 -0.35184E+04
 0.30899998E+02 -0.26316E+04
 0.30949997E+02 -0.28052E+03
 0.30999996E+02 -0.21496E+04
 0.31049999E+02 -0.65693E+04
 0.31099998E+02 -0.70162E+04
 0.31149998E+02 -0.17218E+04
 0.31199997E+02  0.42769E+04
 0.31249996E+02  0.73042E+03
 0.31299999E+02 -0.33734E+04
 0.31349998E+02 -0.74151E+04
 0.31399998E+02 -0.31108E+04
 0.31449997E+02  0.30100E+04
 0.31499996E+02 -0.28764E+04
 0.31549999E+02 -0.10602E+05
 0.31599998E+02 -0.67529E+04
 0.31649998E+02  0.31496E+04
 0.31699997E+02  0.14009E+04
 0.31749996E+02 -0.40199E+04
 0.31799999E+02 -0.40053E+04
 0.31849998E+02 -0.36875E+04
 0.31899998E+02 -0.57534E+04
 0.31949997E+02 -0.10265E+05
 0.31999996E+02 -0.79469E+04
 0.32049999E+02 -0.11920E+04
 0.32099998E+02  0.33966E+04
 0.32149998E+02  0.26560E+04
 0.32199997E+02 -0.32676E+04
 0.32249996E+02 -0.42256E+04
 0.32299999E+02 -0.94901E+03
 0.32349998E+02 -0.36803E+04
 0.32399998E+02 -0.90820E+04
 0.32449997E+02 -0.32302E+04
 0.32499996E+02  0.11434E+04
 0.32549999E+02 -0.22707E+04
 0.32599998E+02 -0.23419E+04
 0.32649998E+02  0.21784E+04
 0.32699997E+02 -0.53530E+04
 0.32749996E+02 -0.71835E+04
 0.32799999E+02 -0.28059E+04
 0.32849998E+02 -0.14087E+04
 0.32899998E+02 -0.26937E+04
 0.32949997E+02 -0.29065E+03
 0.32999996E+02  0.29306E+04
 0.33049999E+02 -0.30943E+04
 0.33099998E+02 -0.74564E+04
 0.33149998E+02 -0.98442E+04
 0.33199997E+02 -0.68282E+04
 0.33249996E+02 -0.97564E+04
 0.33299999E+02 -0.15548E+05
 0.33349998E+02 -0.13266E+05
 0.33399998E+02 -0.36200E+04
 0.33449997E+02  0.17103E+04
 0.33499996E+02  0.34592E+04
 0.33549999E+02  0.84097E+04
 0.33599998E+02  0.15090E+05
 0.33649998E+02  0.15426E+05
 0.33699997E+02  0.48933E+04
 0.33749996E+02 -0.14157E+05
 0.33799999E+02 -0.25899E+05
 0.33849998E+02 -0.23875E+05
 0.33899998E+02 -0.14851E+05
 0.33949997E+02 -0.28044E+04
 0.33999996E+02 -0.98112E+03
 0.34049999E+02  0.26121E+04
 0.34099998E+02  0.57563E+03
 0.34149998E+02 -0.19771E+04
 0.34199997E+02  0.29261E+04
 0.34249996E+02  0.67835E+04
 0.34299999E+02 -0.15890E+04
 0.34349998E+02 -0.12074E+05
 0.34399998E+02 -0.98362E+04
 0.34449997E+02 -0.11134E+05
 0.34499996E+02 -0.61878E+04
 0.34549999E+02 -0.19096E+04
 0.34599998E+02 -0.84321E+04
 0.34649998E+02 -0.17777E+05
 0.34699997E+02 -0.93694E+04
 0.34749996E+02 -0.60421E+04
 0.34799999E+02 -0.12017E+05
 0.34849998E+02 -0.12627E+05
 0.34899998E+02 -0.41555E+03
 0.34949997E+02  0.16024E+05
 0.34999996E+02  0.16783E+05
 0.35049999E+02  0.15077E+05
 0.35099998E+02 -0.96172E+03
 0.35149998E+02 -0.17384E+05
 0.35199997E+02 -0.14476E+05
 0.35249996E+02  0.38274E+04
 0.35299999E+02  0.14053E+05
 0.35349998E+02  0.14246E+05
 0.35399998E+02  0.80413E+04
 0.35449997E+02 -0.87124E+04
 0.35499996E+02 -0.30347E+05
 0.35549999E+02 -0.31340E+05
 0.35599998E+02 -0.56619E+04
 0.35649998E+02  0.25749E+05
 0.35699997E+02  0.42904E+05
 0.35749996E+02  0.35151E+05
 0.35799999E+02  0.16574E+05
 0.35849998E+02 -0.13203E+05
 0.35899998E+02 -0.45654E+05
 0.35949997E+02 -0.64909E+05
 0.35999996E+02 -0.48825E+05
 0.36049999E+02 -0.13773E+05
 0.36099998E+02  0.17970E+05
 0.36149998E+02  0.37507E+05
 0.36199997E+02  0.37730E+05
 0.36249996E+02  0.21278E+05
 0.36299999E+02 -0.19375E+05
 0.36349998E+02 -0.57098E+05
 0.36399998E+02 -0.54002E+05
 0.36449997E+02 -0.22960E+05
 0.36499996E+02  0.55782E+04
 0.36549999E+02  0.26337E+05
 0.36599998E+02  0.30747E+05
 0.36649998E+02  0.17496E+05
 0.36699997E+02 -0.35145E+04
 0.36749996E+02 -0.14029E+05
 0.36799999E+02 -0.23748E+05
 0.36849998E+02 -0.18647E+05
 0.36899998E+02  0.32164E+04
 0.36949997E+02  0.15878E+05
 0.36999996E+02  0.14337E+05
 0.37049999E+02  0.73132E+04
 0.37099998E+02  0.66438E+04
 0.37149998E+02  0.10607E+04
 0.37199997E+02 -0.16441E+05
 0.37249996E+02 -0.34876E+05
 0.37299999E+02 -0.35119E+05
 0.37349998E+02 -0.21849E+05
 0.37399998E+02  0.18843E+05
 0.37449997E+02  0.45596E+05
 0.37499996E+02  0.39578E+05
 0.37549999E+02  0.24644E+05
 0.37599998E+02 -0.62714E+04
 0.37649998E+02 -0.48818E+05
 0.37699997E+02 -0.69180E+05
 0.37749996E+02 -0.53214E+05
 0.37799999E+02 -0.21220E+05
 0.37849998E+02  0.21297E+05
 0.37899998E+02  0.49053E+05
 0.37949997E+02  0.54749E+05
 0.37999996E+02  0.45716E+05
 0.38049999E+02  0.19817E+05
 0.38099998E+02 -0.27403E+05
 0.38149998E+02 -0.60478E+05
 0.38199997E+02 -0.55320E+05
 0.38249996E+02 -0.26063E+05
 0.38299999E+02  0.16282E+05
 0.38349998E+02  0.39264E+05
 0.38399998E+02  0.31673E+05
 0.38449997E+02  0.75824E+04
 0.38499996E+02 -0.25811E+05
 0.38549999E+02 -0.54715E+05
 0.38599998E+02 -0.55643E+05
 0.38649998E+02 -0.25950E+05
 0.38699997E+02  0.13308E+05
 0.38749996E+02  0.35846E+05
 0.38799999E+02  0.34555E+05
 0.38849998E+02  0.27127E+05
 0.38899998E+02  0.12490E+05
 0.38949997E+02 -0.91781E+04
 0.38999996E+02 -0.26280E+05
 0.39049999E+02 -0.35503E+05
 0.39099998E+02 -0.28446E+05
 0.39149998E+02 -0.66328E+04
 0.39199997E+02  0.14859E+05
 0.39249996E+02  0.21265E+05
 0.39299999E+02  0.16641E+05
 0.39349998E+02  0.77797E+04
 0.39399998E+02 -0.20869E+04
 0.39449997E+02 -0.49416E+04
 0.39499996E+02 -0.82588E+04
 0.39549999E+02 -0.15945E+05
 0.39599998E+02 -0.15371E+05
 0.39649998E+02 -0.77093E+04
 0.39699997E+02 -0.33296E+04
 0.39749996E+02  0.86410E+03
 0.39799999E+02  0.13469E+04
 0.39849998E+02  0.38480E+04
 0.39899998E+02  0.10230E+04
 0.39949997E+02 -0.15097E+04
 0.39999996E+02 -0.31230E+04
 0.40049999E+02 -0.60587E+04
 0.40099998E+02 -0.38770E+04
 0.40149998E+02  0.21477E+04
 0.40199997E+02  0.64395E+04
 0.40249996E+02 -0.53115E+04
 0.40299999E+02 -0.19823E+05
 0.40349998E+02 -0.28367E+05
 0.40399998E+02 -0.13280E+05
 0.40449997E+02  0.81835E+04
 0.40499996E+02  0.24765E+05
 0.40549999E+02  0.26173E+05
 0.40599998E+02  0.74270E+04
 0.40649998E+02 -0.10512E+05
 0.40699997E+02 -0.24227E+05
 0.40749996E+02 -0.24392E+05
 0.40799999E+02 -0.15370E+05
 0.40849998E+02 -0.69464E+04
 0.40899998E+02 -0.61842E+04
 0.40949997E+02 -0.64500E+01
 0.40999996E+02  0.53148E+03
 0.41049999E+02 -0.72789E+04
 0.41099998E+02 -0.13079E+05
 0.41149998E+02 -0.16151E+05
 0.41199997E+02 -0.16483E+05
 0.41249996E+02 -0.50829E+04
 0.41299999E+02  0.93664E+04
 0.41349998E+02  0.15120E+05
 0.41399998E+02  0.15839E+05
 0.41449997E+02  0.18256E+05
 0.41499996E+02  0.18954E+05
 0.41549999E+02 -0.19255E+04
 0.41599998E+02 -0.25131E+05
 0.41649998E+02 -0.37952E+05
 0.41699997E+02 -0.30655E+05
 0.41749996E+02 -0.81760E+04
 0.41799999E+02  0.15128E+05
 0.41849998E+02  0.33769E+05
 0.41899998E+02  0.35563E+05
 0.41949997E+02  0.14286E+05
 0.41999996E+02 -0.12169E+05
 0.42049999E+02 -0.23209E+05
 0.42099998E+02 -0.20452E+05
 0.42149998E+02 -0.15514E+05
 0.42199997E+02 -0.92002E+04
 0.42249996E+02  0.73832E+03
 0.42299999E+02  0.60722E+04
 0.42349998E+02  0.50694E+04
 0.42399998E+02  0.70105E+03
 0.42449997E+02 -0.41501E+03
 0.42499996E+02  0.57685E+04
 0.42549999E+02  0.69123E+04
 0.42599998E+02 -0.38817E+04
 0.42649998E+02 -0.17265E+05
 0.42699997E+02 -0.25644E+05
 0.42749996E+02 -0.16659E+05
 0.42799995E+02 -0.36511E+04
 0.42849998E+02  0.45254E+03
 0.42899998E+02 -0.10516E+03
 0.42949997E+02  0.26008E+04
 0.42999996E+02  0.29562E+04
 0.43049995E+02  0.96577E+03
 0.43099998E+02 -0.76307E+03
 0.43149998E+02 -0.69246E+04
 0.43199997E+02 -0.71528E+04
 0.43249996E+02 -0.19270E+04
 0.43299995E+02  0.53508E+04
 0.43349998E+02 -0.38703E+04
 0.43399998E+02 -0.15472E+05
 0.43449997E+02 -0.15739E+05
 0.43499996E+02 -0.17384E+05
 0.43549995E+02 -0.10728E+05
 0.43599998E+02  0.15526E+04
 0.43649998E+02  0.48880E+04
 0.43699997E+02  0.13497E+04
 0.43749996E+02 -0.33050E+03
 0.43799995E+02  0.94779E+03
 0.43849998E+02 -0.48158E+04
 0.43899998E+02 -0.16602E+05
 0.43949997E+02 -0.24090E+05
 0.43999996E+02 -0.18950E+05
 0.44049995E+02 -0.44307E+04
 0.44099998E+02  0.57436E+04
 0.44149998E+02  0.12103E+05
 0.44199997E+02  0.14336E+05
 0.44249996E+02  0.10175E+05
 0.44299995E+02  0.56725E+04
 0.44349998E+02  0.69191E+04
 0.44399998E+02  0.23770E+04
 0.44449997E+02 -0.59307E+04
 0.44499996E+02 -0.10240E+05
 0.44549995E+02 -0.12872E+05
 0.44599998E+02 -0.73970E+04
 0.44649998E+02  0.50220E+04
 0.44699997E+02  0.95934E+04
 0.44749996E+02 -0.62054E+03
 0.44799995E+02 -0.14590E+05
 0.44849998E+02 -0.20660E+05
 0.44899998E+02 -0.15409E+05
 0.44949997E+02 -0.10240E+04
 0.44999996E+02  0.54637E+04
 0.45049995E+02 -0.10499E+04
 0.45099998E+02 -0.76690E+04
 0.45149998E+02 -0.12695E+05
 0.45199997E+02 -0.14381E+05
 0.45249996E+02 -0.14541E+05
 0.45299995E+02 -0.81534E+04
 0.45349998E+02  0.43124E+04
 0.45399998E+02  0.13503E+05
 0.45449997E+02  0.15425E+05
 0.45499996E+02  0.16037E+05
 0.45549995E+02  0.97485E+04
 0.45599998E+02 -0.63922E+04
 0.45649998E+02 -0.18388E+05
 0.45699997E+02 -0.20449E+05
 0.45749996E+02 -0.17362E+05
 0.45799995E+02 -0.13475E+05
 0.45849998E+02 -0.46346E+04
 0.45899998E+02  0.31366E+04
 0.45949997E+02  0.64905E+04
 0.45999996E+02  0.29525E+04
 0.46049995E+02 -0.26520E+04
 0.46099998E+02 -0.99364E+04
 0.46149998E+02 -0.14442E+05
 0.46199997E+02 -0.10149E+05
 0.46249996E+02 -0.15553E+04
 0.46299995E+02  0.54709E+04
 0.46349998E+02  0.71325E+04
 0.46399998E+02  0.24379E+04
 0.46449997E+02 -0.67662E+04
 0.46499996E+02 -0.12296E+05
 0.46549995E+02 -0.13572E+05
 0.46599998E+02 -0.90419E+04
 0.46649998E+02 -0.30158E+03
 0.46699997E+02  0.97320E+04
 0.46749996E+02  0.17274E+05
 0.46799995E+02  0.14843E+05
 0.46849998E+02  0.72364E+04
 0.46899998E+02  0.10755E+04
 0.46949997E+02 -0.61078E+04
 0.46999996E+02 -0.13482E+05
 0.47049995E+02 -0.19408E+05
 0.47099998E+02 -0.20508E+05
 0.47149998E+02 -0.16195E+05
 0.47199997E+02 -0.69762E+04
 0.47249996E+02  0.12231E+04
 0.47299995E+02  0.38387E+04
 0.47349998E+02  0.24779E+04
 0.47399998E+02 -0.22153E+04
 0.47449997E+02 -0.10681E+05
 0.47499996E+02 -0.18101E+05
 0.47549995E+02 -0.17739E+05
 0.47599998E+02 -0.92028E+04
 0.47649998E+02  0.36227E+04
 0.47699997E+02  0.13947E+05
 0.47749996E+02  0.17149E+05
 0.47799995E+02  0.13159E+05
 0.47849998E+02  0.74166E+04
 0.47899998E+02 -0.16484E+04
 0.47949997E+02 -0.88841E+04
 0.47999996E+02 -0.13912E+05
 0.48049995E+02 -0.13924E+05
 0.48099998E+02 -0.72888E+04
 0.48149998E+02 -0.56816E+03
 0.48199997E+02  0.94702E+04
 0.48249996E+02  0.13376E+05
 0.48299995E+02  0.72899E+04
 0.48349998E+02  0.12301E+04
 0.48399998E+02 -0.18189E+04
 0.48449997E+02 -0.76579E+04
 0.48499996E+02 -0.14023E+05
 0.48549995E+02 -0.16689E+05
 0.48599998E+02 -0.16486E+05
 0.48649998E+02 -0.11777E+05
 0.48699997E+02 -0.34804E+04
 0.48749996E+02  0.19558E+04
 0.48799995E+02 -0.34074E+04
 0.48849998E+02 -0.94522E+04
 0.48899998E+02 -0.94210E+04
 0.48949997E+02 -0.70248E+04
 0.48999996E+02 -0.29450E+04
 0.49049995E+02 -0.14784E+04
 0.49099998E+02  0.20849E+04
 0.49149998E+02  0.74211E+04
 0.49199997E+02  0.84242E+04
 0.49249996E+02  0.87467E+04
 0.49299995E+02  0.57892E+04
 0.49349998E+02 -0.15283E+04
 0.49399998E+02 -0.10172E+05
 0.49449997E+02 -0.17561E+05
 0.49499996E+02 -0.16462E+05
 0.49549995E+02 -0.84394E+04
 0.49599998E+02 -0.37686E+03
 0.49649998E+02  0.22295E+04
 0.49699997E+02 -0.37523E+03
 0.49749996E+02 -0.28092E+04
 0.49799995E+02 -0.23270E+04
 0.49849998E+02  0.17097E+04
 0.49899998E+02  0.44697E+04
 0.49949997E+02  0.67154E+03
 0.49999996E+02 -0.69322E+04
 0.50049995E+02 -0.14916E+05
 0.50099998E+02 -0.14857E+05
 0.50149998E+02 -0.80724E+04
 0.50199997E+02 -0.23058E+04
 0.50249996E+02  0.14081E+04
 0.50299995E+02  0.11310E+04
 0.50349998E+02 -0.31083E+03
 0.50399998E+02  0.16660E+04
 0.50449997E+02  0.67428E+04
 0.50499996E+02  0.79105E+04
 0.50549995E+02  0.36950E+04
 0.50599998E+02 -0.24574E+04
 0.50649998E+02 -0.10219E+05
 0.50699997E+02 -0.16749E+05
 0.50749996E+02 -0.19634E+05
 0.50799995E+02 -0.20498E+05
 0.50849998E+02 -0.16644E+05
 0.50899998E+02 -0.71639E+04
 0.50949997E+02  0.32090E+04
 0.50999996E+02  0.80780E+04
 0.51049995E+02  0.54314E+04
 0.51099998E+02 -0.35046E+04
 0.51149998E+02 -0.11180E+05
 0.51199997E+02 -0.11823E+05
 0.51249996E+02 -0.85310E+04
 0.51299995E+02  0.17681E+03
 0.51349998E+02  0.11787E+05
 0.51399998E+02  0.14581E+05
 0.51449997E+02  0.69806E+04
 0.51499996E+02 -0.23297E+04
 0.51549995E+02 -0.11732E+05
 0.51599998E+02 -0.17867E+05
 0.51649998E+02 -0.17065E+05
 0.51699997E+02 -0.91810E+04
 0.51749996E+02 -0.84898E+02
 0.51799995E+02  0.68218E+04
 0.51849998E+02  0.10492E+05
 0.51899998E+02  0.61915E+04
 0.51949997E+02 -0.22995E+04
 0.51999996E+02 -0.80535E+04
 0.52049995E+02 -0.83467E+04
 0.52099998E+02 -0.56842E+04
 0.52149998E+02 -0.19030E+04
 0.52199997E+02 -0.33468E+03
 0.52249996E+02 -0.14499E+04
 0.52299995E+02 -0.40097E+04
 0.52349998E+02 -0.72676E+04
 0.52399998E+02 -0.67698E+04
 0.52449997E+02 -0.11956E+04
 0.52499996E+02  0.33255E+04
 0.52549995E+02  0.43900E+04
 0.52599998E+02  0.28182E+04
 0.52649998E+02 -0.27207E+04
 0.52699997E+02 -0.11252E+05
 0.52749996E+02 -0.17091E+05
 0.52799995E+02 -0.13710E+05
 0.52849998E+02 -0.45817E+04
 0.52899998E+02  0.40844E+04
 0.52949997E+02  0.75781E+04
 0.52999996E+02  0.66701E+04
 0.53049995E+02  0.24565E+04
 0.53099998E+02 -0.29333E+04
 0.53149998E+02 -0.65030E+04
 0.53199997E+02 -0.73305E+04
 0.53249996E+02 -0.64941E+04
 0.53299995E+02 -0.39522E+04
 0.53349998E+02 -0.77885E+03
 0.53399998E+02 -0.24755E+04
 0.53449997E+02 -0.86745E+04
 0.53499996E+02 -0.13675E+05
 0.53549995E+02 -0.12677E+05
 0.53599998E+02 -0.91118E+04
 0.53649998E+02 -0.47046E+04
 0.53699997E+02 -0.14319E+04
 0.53749996E+02 -0.25831E+04
 0.53799995E+02 -0.53827E+04
 0.53849998E+02 -0.61324E+04
 0.53899998E+02 -0.35064E+04
 0.53949997E+02  0.29959E+04
 0.53999996E+02  0.83746E+04
 0.54049995E+02  0.10268E+05
 0.54099998E+02  0.81457E+04
 0.54149998E+02  0.10717E+04
 0.54199997E+02 -0.48950E+04
 0.54249996E+02 -0.66326E+04
 0.54299995E+02 -0.34901E+04
 0.54349998E+02 -0.88361E+03
 0.54399998E+02 -0.13432E+04
 0.54449997E+02 -0.46648E+04
 0.54499996E+02 -0.78753E+04
 0.54549995E+02 -0.63103E+04
 0.54599998E+02 -0.27763E+04
 0.54649998E+02 -0.11064E+04
 0.54699997E+02 -0.63768E+03
 0.54749996E+02 -0.82019E+03
 0.54799995E+02 -0.29395E+04
 0.54849998E+02 -0.43709E+04
 0.54899998E+02 -0.36540E+04
 0.54949997E+02 -0.21601E+04
 0.54999996E+02 -0.35466E+04
 0.55049995E+02 -0.79499E+04
 0.55099998E+02 -0.11959E+05
 0.55149998E+02 -0.11410E+05
 0.55199997E+02 -0.86654E+04
 0.55249996E+02 -0.63385E+04
 0.55299995E+02 -0.43575E+04
 0.55349998E+02 -0.15293E+04
 0.55399998E+02  0.20452E+04
 0.55449997E+02  0.40443E+04
 0.55499996E+02  0.61941E+04
 0.55549995E+02  0.78353E+04
 0.55599998E+02  0.44092E+04
 0.55649998E+02 -0.61523E+04
 0.55699997E+02 -0.16016E+05
 0.55749996E+02 -0.18185E+05
 0.55799995E+02 -0.13323E+05
 0.55849995E+02 -0.60071E+04
 0.55899998E+02 -0.31344E+04
 0.55949997E+02 -0.30296E+04
 0.55999996E+02 -0.33784E+04
 0.56049995E+02 -0.19156E+04
 0.56099995E+02  0.14289E+04
 0.56149998E+02  0.18672E+04
 0.56199997E+02 -0.28775E+03
 0.56249996E+02 -0.25520E+04
 0.56299995E+02 -0.54080E+04
 0.56349995E+02 -0.10662E+05
 0.56399998E+02 -0.13620E+05
 0.56449997E+02 -0.11671E+05
 0.56499996E+02 -0.49365E+04
 0.56549995E+02  0.21612E+04
 0.56599995E+02  0.54892E+04
 0.56649998E+02  0.21699E+04
 0.56699997E+02 -0.23349E+04
 0.56749996E+02 -0.19503E+04
 0.56799995E+02 -0.17578E+03
 0.56849995E+02  0.24939E+04
 0.56899998E+02  0.49769E+04
 0.56949997E+02  0.55991E+04
 0.56999996E+02  0.24712E+04
 0.57049995E+02 -0.30073E+04
 0.57099995E+02 -0.79010E+04
 0.57149998E+02 -0.11752E+05
 0.57199997E+02 -0.14203E+05
 0.57249996E+02 -0.15606E+05
 0.57299995E+02 -0.15773E+05
 0.57349995E+02 -0.12217E+05
 0.57399998E+02 -0.40343E+04
 0.57449997E+02  0.27263E+04
 0.57499996E+02  0.62902E+04
 0.57549995E+02  0.79777E+04
 0.57599995E+02  0.65826E+04
 0.57649998E+02  0.53025E+04
 0.57699997E+02  0.34510E+04
 0.57749996E+02  0.22108E+03
 0.57799995E+02 -0.50872E+04
 0.57849995E+02 -0.77312E+04
 0.57899998E+02 -0.66631E+04
 0.57949997E+02 -0.60202E+04
 0.57999996E+02 -0.58982E+04
 0.58049995E+02 -0.52184E+04
 0.58099995E+02 -0.24289E+04
 0.58149998E+02 -0.17798E+04
 0.58199997E+02 -0.38588E+04
 0.58249996E+02 -0.57991E+04
 0.58299995E+02 -0.57346E+04
 0.58349995E+02 -0.57251E+04
 0.58399998E+02 -0.63755E+04
 0.58449997E+02 -0.42079E+04
 0.58499996E+02 -0.78900E+03
 0.58549995E+02  0.24061E+04
 0.58599995E+02  0.35447E+04
 0.58649998E+02  0.25572E+04
 0.58699997E+02 -0.10360E+04
 0.58749996E+02 -0.78269E+04
 0.58799995E+02 -0.12705E+05
 0.58849995E+02 -0.12224E+05
 0.58899998E+02 -0.89671E+04
 0.58949997E+02 -0.62436E+04
 0.58999996E+02 -0.26164E+04
 0.59049995E+02 -0.81666E+03
 0.59099995E+02 -0.35541E+03
 0.59149998E+02  0.14357E+04
 0.59199997E+02  0.24672E+04
 0.59249996E+02  0.22148E+04
 0.59299995E+02  0.30089E+04
 0.59349995E+02  0.47853E+04
 0.59399998E+02  0.52389E+04
 0.59449997E+02  0.31427E+04
 0.59499996E+02 -0.10266E+04
 0.59549995E+02 -0.55456E+04
 0.59599995E+02 -0.10962E+05
 0.59649998E+02 -0.15402E+05
 0.59699997E+02 -0.15354E+05
 0.59749996E+02 -0.92742E+04
 0.59799995E+02 -0.25746E+04
 0.59849995E+02  0.48627E+03
 0.59899998E+02  0.23340E+03
 0.59949997E+02 -0.29234E+04
 0.59999996E+02 -0.56840E+04
 0.60049995E+02 -0.70562E+04
 0.60099995E+02 -0.49423E+04
 0.60149998E+02 -0.12223E+04
 0.60199997E+02  0.10673E+04
 0.60249996E+02  0.11698E+04
 0.60299995E+02 -0.27486E+04
 0.60349995E+02 -0.92801E+04
 0.60399998E+02 -0.14482E+05
 0.60449997E+02 -0.15149E+05
 0.60499996E+02 -0.11423E+05
 0.60549995E+02 -0.39282E+04
 0.60599995E+02  0.27946E+04
 0.60649998E+02  0.60304E+04
 0.60699997E+02  0.60661E+04
 0.60749996E+02  0.35999E+04
 0.60799995E+02 -0.10390E+04
 0.60849995E+02 -0.63881E+04
 0.60899998E+02 -0.89801E+04
 0.60949997E+02 -0.78693E+04
 0.60999996E+02 -0.46828E+04
 0.61049995E+02 -0.25457E+04
 0.61099995E+02 -0.16374E+04
 0.61149998E+02 -0.86025E+03
 0.61199997E+02  0.51335E+03
 0.61249996E+02  0.12407E+04
 0.61299995E+02 -0.65178E+03
 0.61349995E+02 -0.42640E+04
 0.61399998E+02 -0.57898E+04
 0.61449997E+02 -0.53371E+04
 0.61499996E+02 -0.56847E+04
 0.61549995E+02 -0.48429E+04
 0.61599995E+02 -0.32652E+04
 0.61649998E+02 -0.33394E+04
 0.61699997E+02 -0.41797E+04
 0.61749996E+02 -0.58060E+04
 0.61799995E+02 -0.58691E+04
 0.61849995E+02 -0.46044E+04
 0.61899998E+02 -0.40712E+04
 0.61949997E+02 -0.30700E+04
 0.61999996E+02 -0.49974E+03
 0.62049995E+02  0.22674E+04
 0.62099998E+02  0.30158E+04
 0.62149994E+02  0.26201E+04
 0.62199997E+02 -0.59710E+03
 0.62249992E+02 -0.38479E+04
 0.62299995E+02 -0.51808E+04
 0.62349998E+02 -0.51580E+04
 0.62399994E+02 -0.42074E+04
 0.62449997E+02 -0.37663E+04
 0.62499992E+02 -0.22234E+04
 0.62549995E+02 -0.85165E+03
 0.62599998E+02 -0.17003E+04
 0.62649994E+02 -0.29210E+04
 0.62699997E+02 -0.20799E+04
 0.62749992E+02 -0.34745E+02
 0.62799995E+02  0.16529E+04
 0.62849998E+02  0.29117E+04
 0.62899994E+02  0.31141E+04
 0.62949997E+02  0.12246E+04
 0.62999992E+02 -0.23576E+04
 0.63049995E+02 -0.63436E+04
 0.63099998E+02 -0.96104E+04
 0.63149994E+02 -0.11055E+05
 0.63199997E+02 -0.98658E+04
 0.63249992E+02 -0.78258E+04
 0.63299995E+02 -0.54000E+04
 0.63349998E+02 -0.37641E+04
 0.63399994E+02 -0.34990E+04
 0.63449997E+02 -0.23983E+04
 0.63499992E+02 -0.52199E+03
 0.63549995E+02 -0.65314E+02
 0.63599998E+02 -0.24184E+04
 0.63649994E+02 -0.47446E+04
 0.63699997E+02 -0.59365E+04
 0.63749992E+02 -0.61130E+04
 0.63799995E+02 -0.57810E+04
 0.63849998E+02 -0.68612E+04
 0.63899994E+02 -0.87428E+04
 0.63949997E+02 -0.11267E+05
 0.63999992E+02 -0.12624E+05
 0.64049995E+02 -0.97915E+04
 0.64099998E+02 -0.49290E+04
 0.64149994E+02 -0.45391E+03
 0.64199997E+02  0.21176E+04
 0.64249992E+02  0.26194E+04
 0.64299995E+02  0.39528E+04
 0.64349998E+02  0.46241E+04
 0.64399994E+02  0.16121E+04
 0.64449997E+02 -0.37240E+04
 0.64499992E+02 -0.75785E+04
 0.64549995E+02 -0.86815E+04
 0.64599998E+02 -0.60368E+04
 0.64649994E+02 -0.71928E+03
 0.64699997E+02  0.34327E+04
 0.64749992E+02  0.49390E+04
 0.64799995E+02  0.32178E+04
 0.64849998E+02  0.26856E+03
 0.64899994E+02 -0.25348E+04
 0.64949997E+02 -0.40400E+04
 0.64999992E+02 -0.39451E+04
 0.65049995E+02 -0.47710E+04
 0.65099998E+02 -0.54944E+04
 0.65149994E+02 -0.52860E+04
 0.65199997E+02 -0.46680E+04
 0.65249992E+02 -0.31069E+04
 0.65299995E+02 -0.85415E+03
 0.65349998E+02 -0.19117E+03
 0.65399994E+02 -0.14165E+04
 0.65449997E+02 -0.28868E+04
 0.65499992E+02 -0.39447E+04
 0.65549995E+02 -0.38669E+04
 0.65599998E+02 -0.43182E+04
 0.65649994E+02 -0.51815E+04
 0.65699997E+02 -0.56086E+04
 0.65749992E+02 -0.62356E+04
 0.65799995E+02 -0.59534E+04
 0.65849998E+02 -0.41804E+04
 0.65899994E+02 -0.63757E+03
 0.65949997E+02  0.18148E+04
 0.65999992E+02  0.53245E+03
 0.66049995E+02 -0.23233E+04
 0.66099998E+02 -0.63760E+04
 0.66149994E+02 -0.10115E+05
 0.66199997E+02 -0.11170E+05
 0.66249992E+02 -0.97775E+04
 0.66299995E+02 -0.70595E+04
 0.66349998E+02 -0.41357E+04
 0.66399994E+02 -0.17256E+04
 0.66449997E+02 -0.62062E+03
 0.66499992E+02 -0.61880E+03
 0.66549995E+02 -0.10694E+04
 0.66599998E+02 -0.25803E+04
 0.66649994E+02 -0.39670E+04
 0.66699997E+02 -0.48127E+04
 0.66749992E+02 -0.50578E+04
 0.66799995E+02 -0.29542E+04
 0.66849998E+02 -0.46517E+03
 0.66899994E+02  0.36825E+03
 0.66949997E+02  0.22112E+03
 0.66999992E+02 -0.65519E+03
 0.67049995E+02 -0.31195E+04
 0.67099998E+02 -0.47620E+04
 0.67149994E+02 -0.46102E+04
 0.67199997E+02 -0.27067E+04
 0.67249992E+02 -0.63654E+03
 0.67299995E+02 -0.75603E+03
 0.67349998E+02 -0.20782E+04
 0.67399994E+02 -0.40195E+04
 0.67449997E+02 -0.51626E+04
 0.67499992E+02 -0.50966E+04
 0.67549995E+02 -0.38625E+04
 0.67599998E+02 -0.28424E+04
 0.67649994E+02 -0.26078E+04
 0.67699997E+02 -0.30566E+04
 0.67749992E+02 -0.35459E+04
 0.67799995E+02 -0.36866E+04
 0.67849998E+02 -0.30391E+04
 0.67899994E+02 -0.15063E+04
 0.67949997E+02 -0.68620E+03
 0.67999992E+02 -0.13911E+04
 0.68049995E+02 -0.27853E+04
 0.68099998E+02 -0.38738E+04
 0.68149994E+02 -0.53893E+04
 0.68199997E+02 -0.61477E+04
 0.68249992E+02 -0.52124E+04
 0.68299995E+02 -0.31958E+04
 0.68349998E+02 -0.14847E+04
 0.68399994E+02 -0.93279E+03
 0.68449997E+02 -0.15317E+04
 0.68499992E+02 -0.30798E+04
 0.68549995E+02 -0.39351E+04
 0.68599998E+02 -0.47381E+04
 0.68649994E+02 -0.52818E+04
 0.68699997E+02 -0.43567E+04
 0.68749992E+02 -0.35768E+04
 0.68799995E+02 -0.37507E+04
 0.68849998E+02 -0.42100E+04
 0.68899994E+02 -0.47076E+04
 0.68949997E+02 -0.55193E+04
 0.68999992E+02 -0.43819E+04
 0.69049995E+02 -0.26264E+04
 0.69099998E+02 -0.19955E+04
 0.69149994E+02 -0.25490E+04
 0.69199997E+02 -0.30994E+04
 0.69249992E+02 -0.27743E+04
 0.69299995E+02 -0.29427E+04
 0.69349998E+02 -0.33143E+04
 0.69399994E+02 -0.33641E+04
 0.69449997E+02 -0.25564E+04
 0.69499992E+02 -0.12765E+04
 0.69549995E+02 -0.40377E+03
 0.69599998E+02 -0.76578E+03
 0.69649994E+02 -0.15019E+04
 0.69699997E+02 -0.28633E+04
 0.69749992E+02 -0.50261E+04
 0.69799995E+02 -0.59972E+04
 0.69849998E+02 -0.44712E+04
 0.69899994E+02 -0.18956E+04
 0.69949997E+02  0.36476E+03
 0.69999992E+02  0.32532E+03
 0.70049995E+02 -0.20645E+04
 0.70099998E+02 -0.41716E+04
 0.70149994E+02 -0.49382E+04
 0.70199997E+02 -0.49975E+04
 0.70249992E+02 -0.47149E+04
 0.70299995E+02 -0.48627E+04
 0.70349998E+02 -0.55459E+04
 0.70399994E+02 -0.59797E+04
 0.70449997E+02 -0.59428E+04
 0.70499992E+02 -0.53064E+04
 0.70549995E+02 -0.41762E+04
 0.70599998E+02 -0.26194E+04
 0.70649994E+02 -0.12536E+04
 0.70699997E+02 -0.50524E+03
 0.70749992E+02 -0.62917E+03
 0.70799995E+02 -0.98690E+03
 0.70849998E+02 -0.18642E+04
 0.70899994E+02 -0.21853E+04
 0.70949997E+02 -0.21019E+04
 0.70999992E+02 -0.26864E+04
 0.71049995E+02 -0.32423E+04
 0.71099998E+02 -0.26795E+04
 0.71149994E+02 -0.23607E+04
 0.71199997E+02 -0.32102E+04
 0.71249992E+02 -0.38033E+04
 0.71299995E+02 -0.39742E+04
 0.71349998E+02 -0.31481E+04
 0.71399994E+02 -0.18943E+04
 0.71449997E+02 -0.25721E+04
 0.71499992E+02 -0.54446E+04
 0.71549995E+02 -0.89739E+04
 0.71599998E+02 -0.10872E+05
 0.71649994E+02 -0.89690E+04
 0.71699997E+02 -0.49912E+04
 0.71749992E+02 -0.56647E+02
 0.71799995E+02  0.41556E+04
 0.71849998E+02  0.56055E+04
 0.71899994E+02  0.40469E+04
 0.71949997E+02  0.82404E+03
 0.71999992E+02 -0.25535E+04
 0.72049995E+02 -0.54270E+04
 0.72099998E+02 -0.73085E+04
 0.72149994E+02 -0.76422E+04
 0.72199997E+02 -0.54557E+04
 0.72249992E+02 -0.24017E+04
 0.72299995E+02  0.46011E+03
 0.72349998E+02  0.90608E+03
 0.72399994E+02 -0.15740E+04
 0.72449997E+02 -0.54286E+04
 0.72499992E+02 -0.86880E+04
 0.72549995E+02 -0.98152E+04
 0.72599998E+02 -0.90265E+04
 0.72649994E+02 -0.66794E+04
 0.72699997E+02 -0.38310E+04
 0.72749992E+02 -0.12205E+04
 0.72799995E+02 -0.70151E+03
 0.72849998E+02 -0.17282E+04
 0.72899994E+02 -0.21569E+04
 0.72949997E+02 -0.17503E+04
 0.72999992E+02 -0.11465E+04
 0.73049995E+02 -0.78433E+03
 0.73099998E+02 -0.14637E+04
 0.73149994E+02 -0.32884E+04
 0.73199997E+02 -0.51638E+04
 0.73249992E+02 -0.56076E+04
 0.73299995E+02 -0.49658E+04
 0.73349998E+02 -0.44967E+04
 0.73399994E+02 -0.38911E+04
 0.73449997E+02 -0.32867E+04
 0.73499992E+02 -0.32690E+04
 0.73549995E+02 -0.33898E+04
 0.73599998E+02 -0.27465E+04
 0.73649994E+02 -0.23810E+04
 0.73699997E+02 -0.28786E+04
 0.73749992E+02 -0.31008E+04
 0.73799995E+02 -0.24602E+04
 0.73849998E+02 -0.19492E+04
 0.73899994E+02 -0.22263E+04
 0.73949997E+02 -0.23920E+04
 0.73999992E+02 -0.22820E+04
 0.74049995E+02 -0.20042E+04
 0.74099998E+02 -0.13655E+04
 0.74149994E+02 -0.83212E+03
 0.74199997E+02 -0.83278E+03
 0.74249992E+02 -0.15223E+04
 0.74299995E+02 -0.34196E+04
 0.74349998E+02 -0.61747E+04
 0.74399994E+02 -0.90052E+04
 0.74449997E+02 -0.97828E+04
 0.74499992E+02 -0.75518E+04
 0.74549995E+02 -0.38339E+04
 0.74599998E+02 -0.63844E+03
 0.74649994E+02  0.86487E+03
 0.74699997E+02  0.76846E+03
 0.74749992E+02 -0.45201E+03
 0.74799995E+02 -0.24272E+04
 0.74849998E+02 -0.40503E+04
 0.74899994E+02 -0.44237E+04
 0.74949997E+02 -0.47467E+04
 0.74999992E+02 -0.52039E+04
 0.75049995E+02 -0.56740E+04
 0.75099998E+02 -0.57983E+04
 0.75149994E+02 -0.49379E+04
 0.75199997E+02 -0.29022E+04
 0.75249992E+02 -0.63563E+03
 0.75299995E+02  0.27168E+03
 0.75349998E+02 -0.12919E+03
 0.75399994E+02 -0.11320E+04
 0.75449997E+02 -0.24042E+04
 0.75499992E+02 -0.33013E+04
 0.75549995E+02 -0.36235E+04
 0.75599998E+02 -0.33955E+04
 0.75649994E+02 -0.31933E+04
 0.75699997E+02 -0.35670E+04
 0.75749992E+02 -0.35229E+04
 0.75799995E+02 -0.34006E+04
 0.75849998E+02 -0.38939E+04
 0.75899994E+02 -0.40245E+04
 0.75949997E+02 -0.37243E+04
 0.75999992E+02 -0.36122E+04
 0.76049995E+02 -0.44461E+04
 0.76099998E+02 -0.52476E+04
 0.76149994E+02 -0.53956E+04
 0.76199997E+02 -0.58059E+04
 0.76249992E+02 -0.53557E+04
 0.76299995E+02 -0.40624E+04
 0.76349998E+02 -0.23040E+04
 0.76399994E+02 -0.68389E+03
 0.76449997E+02 -0.36897E+03
 0.76499992E+02 -0.18919E+04
 0.76549995E+02 -0.39867E+04
 0.76599998E+02 -0.47621E+04
 0.76649994E+02 -0.45083E+04
 0.76699997E+02 -0.29051E+04
 0.76749992E+02 -0.13990E+04
 0.76799995E+02 -0.16686E+04
 0.76849998E+02 -0.30882E+04
 0.76899994E+02 -0.43295E+04
 0.76949997E+02 -0.48072E+04
 0.76999992E+02 -0.53696E+04
 0.77049995E+02 -0.53826E+04
 0.77099998E+02 -0.40746E+04
 0.77149994E+02 -0.17456E+04
 0.77199997E+02  0.58224E+03
 0.77249992E+02  0.19355E+04
 0.77299995E+02  0.21578E+04
 0.77349998E+02  0.90881E+03
 0.77399994E+02 -0.11118E+04
 0.77449997E+02 -0.26079E+04
 0.77499992E+02 -0.38302E+04
 0.77549995E+02 -0.56086E+04
 0.77599998E+02 -0.69125E+04
 0.77649994E+02 -0.65594E+04
 0.77699997E+02 -0.51058E+04
 0.77749992E+02 -0.34712E+04
 0.77799995E+02 -0.29765E+04
 0.77849998E+02 -0.34798E+04
 0.77899994E+02 -0.44148E+04
 0.77949997E+02 -0.47938E+04
 0.77999992E+02 -0.43135E+04
 0.78049995E+02 -0.37031E+04
 0.78099998E+02 -0.34299E+04
 0.78149994E+02 -0.42819E+04
 0.78199997E+02 -0.54510E+04
 0.78249992E+02 -0.60881E+04
 0.78299995E+02 -0.60334E+04
 0.78349998E+02 -0.54610E+04
 0.78399994E+02 -0.49539E+04
 0.78449997E+02 -0.41954E+04
 0.78499992E+02 -0.24864E+04
 0.78549995E+02 -0.57396E+03
 0.78599998E+02  0.49186E+03
 0.78649994E+02  0.58491E+03
 0.78699997E+02  0.41937E+03
 0.78749992E+02 -0.68519E+02
 0.78799995E+02 -0.12111E+04
 0.78849998E+02 -0.25619E+04
 0.78899994E+02 -0.36846E+04
 0.78949997E+02 -0.42402E+04
 0.78999992E+02 -0.48733E+04
 0.79049995E+02 -0.52408E+04
 0.79099998E+02 -0.51310E+04
 0.79149994E+02 -0.45868E+04
 0.79199997E+02 -0.34972E+04
 0.79249992E+02 -0.23791E+04
 0.79299995E+02 -0.12450E+04
 0.79349998E+02 -0.31588E+03
 0.79399994E+02  0.16771E+03
 0.79449997E+02 -0.88357E+03
 0.79499992E+02 -0.37388E+04
 0.79549995E+02 -0.62513E+04
 0.79599998E+02 -0.64934E+04
 0.79649994E+02 -0.52433E+04
 0.79699997E+02 -0.35915E+04
 0.79749992E+02 -0.15536E+04
 0.79799995E+02 -0.19165E+03
 0.79849998E+02  0.24727E+03
 0.79899994E+02  0.27990E+03
 0.79949997E+02 -0.11418E+01
 0.79999992E+02 -0.30948E+03
 0.80049995E+02 -0.66554E+03
 0.80099998E+02 -0.95492E+03
 0.80149994E+02 -0.22611E+04
 0.80199997E+02 -0.47975E+04
 0.80249992E+02 -0.73145E+04
 0.80299995E+02 -0.86437E+04
 0.80349998E+02 -0.88894E+04
 0.80399994E+02 -0.80061E+04
 0.80449997E+02 -0.60288E+04
 0.80499992E+02 -0.43309E+04
 0.80549995E+02 -0.28405E+04
 0.80599998E+02 -0.20603E+04
 0.80649994E+02 -0.17170E+04
 0.80699997E+02 -0.12978E+04
 0.80749992E+02 -0.13326E+04
 0.80799995E+02 -0.22016E+04
 0.80849998E+02 -0.37637E+04
 0.80899994E+02 -0.49967E+04
 0.80949997E+02 -0.54175E+04
 0.80999992E+02 -0.51053E+04
 0.81049995E+02 -0.39912E+04
 0.81099998E+02 -0.26082E+04
 0.81149994E+02 -0.19519E+04
 0.81199997E+02 -0.22740E+04
 0.81249992E+02 -0.30092E+04
 0.81299995E+02 -0.36888E+04
 0.81349998E+02 -0.39034E+04
 0.81399994E+02 -0.36193E+04
 0.81449997E+02 -0.30908E+04
 0.81499992E+02 -0.20698E+04
 0.81549995E+02 -0.12271E+04
 0.81599998E+02 -0.13767E+04
 0.81649994E+02 -0.28092E+04
 0.81699997E+02 -0.46484E+04
 0.81749992E+02 -0.60701E+04
 0.81799995E+02 -0.67738E+04
 0.81849998E+02 -0.66267E+04
 0.81899994E+02 -0.58252E+04
 0.81949997E+02 -0.41101E+04
 0.81999992E+02 -0.16456E+04
 0.82049995E+02  0.41258E+03
 0.82099998E+02  0.12199E+04
 0.82149994E+02  0.13754E+04
 0.82199997E+02  0.66368E+03
 0.82249992E+02 -0.76717E+03
 0.82299995E+02 -0.27412E+04
 0.82349998E+02 -0.50007E+04
 0.82399994E+02 -0.65709E+04
 0.82449997E+02 -0.64046E+04
 0.82499992E+02 -0.48124E+04
 0.82549995E+02 -0.33633E+04
 0.82599998E+02 -0.28392E+04
 0.82649994E+02 -0.32681E+04
 0.82699997E+02 -0.40426E+04
 0.82749992E+02 -0.47271E+04
 0.82799995E+02 -0.46961E+04
 0.82849998E+02 -0.35476E+04
 0.82899994E+02 -0.21945E+04
 0.82949997E+02 -0.18303E+04
 0.82999992E+02 -0.17102E+04
 0.83049995E+02 -0.17127E+04
 0.83099998E+02 -0.21770E+04
 0.83149994E+02 -0.28547E+04
 0.83199997E+02 -0.34172E+04
 0.83249992E+02 -0.32097E+04
 0.83299995E+02 -0.27793E+04
 0.83349998E+02 -0.24964E+04
 0.83399994E+02 -0.27611E+04
 0.83449997E+02 -0.35332E+04
 0.83499992E+02 -0.40375E+04
 0.83549995E+02 -0.39952E+04
 0.83599998E+02 -0.35061E+04
 0.83649994E+02 -0.32274E+04
 0.83699997E+02 -0.35981E+04
 0.83749992E+02 -0.48903E+04
 0.83799995E+02 -0.59564E+04
 0.83849998E+02 -0.62782E+04
 0.83899994E+02 -0.55918E+04
 0.83949997E+02 -0.39678E+04
 0.83999992E+02 -0.20945E+04
 0.84049995E+02 -0.13168E+04
 0.84099998E+02 -0.16568E+04
 0.84149994E+02 -0.15082E+04
 0.84199997E+02 -0.16899E+04
 0.84249992E+02 -0.24703E+04
 0.84299995E+02 -0.37394E+04
 0.84349998E+02 -0.46572E+04
 0.84399994E+02 -0.46046E+04
 0.84449997E+02 -0.36790E+04
 0.84499992E+02 -0.23375E+04
 0.84549995E+02 -0.12809E+04
 0.84599998E+02 -0.10326E+04
 0.84649994E+02 -0.15549E+04
 0.84699997E+02 -0.25325E+04
 0.84749992E+02 -0.37102E+04
 0.84799995E+02 -0.42567E+04
 0.84849998E+02 -0.44064E+04
 0.84899994E+02 -0.45975E+04
 0.84949997E+02 -0.46712E+04
 0.84999992E+02 -0.40564E+04
 0.85049995E+02 -0.25820E+04
 0.85099998E+02 -0.87419E+03
 0.85149994E+02  0.22812E+03
 0.85199997E+02  0.17663E+03
 0.85249992E+02 -0.80461E+03
 0.85299995E+02 -0.24665E+04
 0.85349998E+02 -0.39324E+04
 0.85399994E+02 -0.47341E+04
 0.85449997E+02 -0.51829E+04
 0.85499992E+02 -0.59166E+04
 0.85549995E+02 -0.68608E+04
 0.85599998E+02 -0.68361E+04
 0.85649994E+02 -0.58663E+04
 0.85699997E+02 -0.42295E+04
 0.85749992E+02 -0.26621E+04
 0.85799995E+02 -0.11725E+04
 0.85849998E+02  0.15127E+01
 0.85899994E+02  0.43267E+03
 0.85949997E+02 -0.13503E+03
 0.85999992E+02 -0.18145E+04
 0.86049995E+02 -0.37103E+04
 0.86099998E+02 -0.50406E+04
 0.86149994E+02 -0.53383E+04
 0.86199997E+02 -0.47542E+04
 0.86249992E+02 -0.35651E+04
 0.86299995E+02 -0.25600E+04
 0.86349998E+02 -0.18507E+04
 0.86399994E+02 -0.21029E+04
 0.86449997E+02 -0.28924E+04
 0.86499992E+02 -0.32887E+04
 0.86549995E+02 -0.31896E+04
 0.86599998E+02 -0.30848E+04
 0.86649994E+02 -0.34254E+04
 0.86699997E+02 -0.33664E+04
 0.86749992E+02 -0.32034E+04
 0.86799995E+02 -0.28711E+04
 0.86849998E+02 -0.29588E+04
 0.86899994E+02 -0.38346E+04
 0.86949997E+02 -0.47366E+04
 0.86999992E+02 -0.49668E+04
 0.87049995E+02 -0.42469E+04
 0.87099998E+02 -0.30901E+04
 0.87149994E+02 -0.21052E+04
 0.87199997E+02 -0.15690E+04
 0.87249992E+02 -0.16879E+04
 0.87299995E+02 -0.23724E+04
 0.87349998E+02 -0.31555E+04
 0.87399994E+02 -0.35000E+04
 0.87449997E+02 -0.32196E+04
 0.87499992E+02 -0.28402E+04
 0.87549995E+02 -0.28462E+04
 0.87599991E+02 -0.33351E+04
 0.87649994E+02 -0.39906E+04
 0.87699997E+02 -0.46774E+04
 0.87749992E+02 -0.52835E+04
 0.87799995E+02 -0.57671E+04
 0.87849991E+02 -0.59438E+04
 0.87899994E+02 -0.59045E+04
 0.87949997E+02 -0.58739E+04
 0.87999992E+02 -0.50787E+04
 0.88049995E+02 -0.34720E+04
 0.88099991E+02 -0.24361E+04
 0.88149994E+02 -0.21168E+04
 0.88199997E+02 -0.18631E+04
 0.88249992E+02 -0.15630E+04
 0.88299995E+02 -0.16753E+04
 0.88349991E+02 -0.22361E+04
 0.88399994E+02 -0.25654E+04
 0.88449997E+02 -0.21735E+04
 0.88499992E+02 -0.14181E+04
 0.88549995E+02 -0.13469E+04
 0.88599991E+02 -0.18961E+04
 0.88649994E+02 -0.28232E+04
 0.88699997E+02 -0.38359E+04
 0.88749992E+02 -0.41477E+04
 0.88799995E+02 -0.35898E+04
 0.88849991E+02 -0.22772E+04
 0.88899994E+02 -0.10075E+04
 0.88949997E+02 -0.11478E+04
 0.88999992E+02 -0.27648E+04
 0.89049995E+02 -0.49158E+04
 0.89099991E+02 -0.65873E+04
 0.89149994E+02 -0.66581E+04
 0.89199997E+02 -0.54170E+04
 0.89249992E+02 -0.36763E+04
 0.89299995E+02 -0.20834E+04
 0.89349991E+02 -0.13042E+04
 0.89399994E+02 -0.13274E+04
 0.89449997E+02 -0.19819E+04
 0.89499992E+02 -0.29136E+04
 0.89549995E+02 -0.41217E+04
 0.89599991E+02 -0.54302E+04
 0.89649994E+02 -0.58988E+04
 0.89699997E+02 -0.54086E+04
 0.89749992E+02 -0.45210E+04
 0.89799995E+02 -0.36589E+04
 0.89849991E+02 -0.32801E+04
 0.89899994E+02 -0.32815E+04
 0.89949997E+02 -0.33686E+04
 0.89999992E+02 -0.33159E+04
 0.90049995E+02 -0.26375E+04
 0.90099991E+02 -0.13898E+04
 0.90149994E+02 -0.89394E+03
 0.90199997E+02 -0.12394E+04
 0.90249992E+02 -0.17409E+04
 0.90299995E+02 -0.22753E+04
 0.90349991E+02 -0.23501E+04
 0.90399994E+02 -0.19387E+04
 0.90449997E+02 -0.17185E+04
 0.90499992E+02 -0.19001E+04
 0.90549995E+02 -0.19661E+04
 0.90599991E+02 -0.19362E+04
 0.90649994E+02 -0.23652E+04
 0.90699997E+02 -0.32874E+04
 0.90749992E+02 -0.43568E+04
 0.90799995E+02 -0.52846E+04
 0.90849991E+02 -0.51723E+04
 0.90899994E+02 -0.40909E+04
 0.90949997E+02 -0.28245E+04
 0.90999992E+02 -0.20424E+04
 0.91049995E+02 -0.24511E+04
 0.91099991E+02 -0.38146E+04
 0.91149994E+02 -0.48799E+04
 0.91199997E+02 -0.53133E+04
 0.91249992E+02 -0.50883E+04
 0.91299995E+02 -0.41662E+04
 0.91349991E+02 -0.31798E+04
 0.91399994E+02 -0.29414E+04
 0.91449997E+02 -0.35770E+04
 0.91499992E+02 -0.41099E+04
 0.91549995E+02 -0.41866E+04
 0.91599991E+02 -0.39107E+04
 0.91649994E+02 -0.38352E+04
 0.91699997E+02 -0.39730E+04
 0.91749992E+02 -0.42213E+04
 0.91799995E+02 -0.46252E+04
 0.91849991E+02 -0.50600E+04
 0.91899994E+02 -0.51606E+04
 0.91949997E+02 -0.41708E+04
 0.91999992E+02 -0.22731E+04
 0.92049995E+02 -0.41354E+03
 0.92099991E+02  0.20708E+03
 0.92149994E+02 -0.70807E+03
 0.92199997E+02 -0.24186E+04
 0.92249992E+02 -0.40254E+04
 0.92299995E+02 -0.46350E+04
 0.92349991E+02 -0.41496E+04
 0.92399994E+02 -0.28783E+04
 0.92449997E+02 -0.13161E+04
 0.92499992E+02 -0.17599E+03
 0.92549995E+02  0.24682E+03
 0.92599991E+02 -0.44252E+03
 0.92649994E+02 -0.21232E+04
 0.92699997E+02 -0.38755E+04
 0.92749992E+02 -0.48092E+04
 0.92799995E+02 -0.47326E+04
 0.92849991E+02 -0.40256E+04
 0.92899994E+02 -0.32614E+04
 0.92949997E+02 -0.27659E+04
 0.92999992E+02 -0.26945E+04
 0.93049995E+02 -0.33530E+04
 0.93099991E+02 -0.42517E+04
 0.93149994E+02 -0.49829E+04
 0.93199997E+02 -0.52039E+04
 0.93249992E+02 -0.43948E+04
 0.93299995E+02 -0.28874E+04
 0.93349991E+02 -0.18312E+04
 0.93399994E+02 -0.21929E+04
 0.93449997E+02 -0.34165E+04
 0.93499992E+02 -0.41101E+04
 0.93549995E+02 -0.37724E+04
 0.93599991E+02 -0.33168E+04
 0.93649994E+02 -0.34033E+04
 0.93699997E+02 -0.35583E+04
 0.93749992E+02 -0.37671E+04
 0.93799995E+02 -0.38329E+04
 0.93849991E+02 -0.34990E+04
 0.93899994E+02 -0.30153E+04
 0.93949997E+02 -0.25983E+04
 0.93999992E+02 -0.26594E+04
 0.94049995E+02 -0.27992E+04
 0.94099991E+02 -0.24824E+04
 0.94149994E+02 -0.20655E+04
 0.94199997E+02 -0.21758E+04
 0.94249992E+02 -0.26477E+04
 0.94299995E+02 -0.35684E+04
 0.94349991E+02 -0.44585E+04
 0.94399994E+02 -0.44836E+04
 0.94449997E+02 -0.40160E+04
 0.94499992E+02 -0.32727E+04
 0.94549995E+02 -0.26536E+04
 0.94599991E+02 -0.21593E+04
 0.94649994E+02 -0.17258E+04
 0.94699997E+02 -0.12529E+04
 0.94749992E+02 -0.63327E+03
 0.94799995E+02 -0.51305E+03
 0.94849991E+02 -0.11075E+04
 0.94899994E+02 -0.21955E+04
 0.94949997E+02 -0.35715E+04
 0.94999992E+02 -0.49798E+04
 0.95049995E+02 -0.59082E+04
 0.95099991E+02 -0.61886E+04
 0.95149994E+02 -0.56875E+04
 0.95199997E+02 -0.46342E+04
 0.95249992E+02 -0.36559E+04
 0.95299995E+02 -0.31253E+04
 0.95349991E+02 -0.32770E+04
 0.95399994E+02 -0.37096E+04
 0.95449997E+02 -0.41784E+04
 0.95499992E+02 -0.44492E+04
 0.95549995E+02 -0.43639E+04
 0.95599991E+02 -0.35886E+04
 0.95649994E+02 -0.22340E+04
 0.95699997E+02 -0.15991E+04
 0.95749992E+02 -0.20999E+04
 0.95799995E+02 -0.34966E+04
 0.95849991E+02 -0.50105E+04
 0.95899994E+02 -0.56733E+04
 0.95949997E+02 -0.56458E+04
 0.95999992E+02 -0.51213E+04
 0.96049995E+02 -0.40811E+04
 0.96099991E+02 -0.29768E+04
 0.96149994E+02 -0.22653E+04
 0.96199997E+02 -0.17403E+04
 0.96249992E+02 -0.10527E+04
 0.96299995E+02 -0.37437E+03
 0.96349991E+02 -0.23898E+03
 0.96399994E+02 -0.93006E+03
 0.96449997E+02 -0.22178E+04
 0.96499992E+02 -0.33972E+04
 0.96549995E+02 -0.40054E+04
 0.96599991E+02 -0.42618E+04
 0.96649994E+02 -0.44466E+04
 0.96699997E+02 -0.43324E+04
 0.96749992E+02 -0.37521E+04
 0.96799995E+02 -0.33064E+04
 0.96849991E+02 -0.32117E+04
 0.96899994E+02 -0.33338E+04
 0.96949997E+02 -0.35004E+04
 0.96999992E+02 -0.33888E+04
 0.97049995E+02 -0.28864E+04
 0.97099991E+02 -0.23340E+04
 0.97149994E+02 -0.20703E+04
 0.97199997E+02 -0.22749E+04
 0.97249992E+02 -0.29891E+04
 0.97299995E+02 -0.37635E+04
 0.97349991E+02 -0.41755E+04
 0.97399994E+02 -0.41099E+04
 0.97449997E+02 -0.37905E+04
 0.97499992E+02 -0.33442E+04
 0.97549995E+02 -0.27792E+04
 0.97599991E+02 -0.23056E+04
 0.97649994E+02 -0.23958E+04
 0.97699997E+02 -0.28451E+04
 0.97749992E+02 -0.32544E+04
 0.97799995E+02 -0.36369E+04
 0.97849991E+02 -0.37521E+04
 0.97899994E+02 -0.35126E+04
 0.97949997E+02 -0.30747E+04
 0.97999992E+02 -0.28636E+04
