-0.20000000E+01  0.54359E+06
-0.19500000E+01  0.53805E+06
-0.19000000E+01  0.53174E+06
-0.18500000E+01  0.52049E+06
-0.18000000E+01  0.50621E+06
-0.17500000E+01  0.48948E+06
-0.17000000E+01  0.47084E+06
-0.16500001E+01  0.45081E+06
-0.16000000E+01  0.43049E+06
-0.15500000E+01  0.41102E+06
-0.15000000E+01  0.39294E+06
-0.14500000E+01  0.37663E+06
-0.14000001E+01  0.36277E+06
-0.13500000E+01  0.35217E+06
-0.13000001E+01  0.34531E+06
-0.12500000E+01  0.34223E+06
-0.12000000E+01  0.34281E+06
-0.11500001E+01  0.34707E+06
-0.11000000E+01  0.35484E+06
-0.10500001E+01  0.36576E+06
-0.10000000E+01  0.37926E+06
-0.95000005E+00  0.39466E+06
-0.90000010E+00  0.41157E+06
-0.85000002E+00  0.42942E+06
-0.80000007E+00  0.44740E+06
-0.75000012E+00  0.46474E+06
-0.70000005E+00  0.48055E+06
-0.65000010E+00  0.49430E+06
-0.60000014E+00  0.50578E+06
-0.55000007E+00  0.51469E+06
-0.50000012E+00  0.52084E+06
-0.45000005E+00  0.52417E+06
-0.40000010E+00  0.52474E+06
-0.35000014E+00  0.52281E+06
-0.30000007E+00  0.51861E+06
-0.25000012E+00  0.51231E+06
-0.20000005E+00  0.50447E+06
-0.15000010E+00  0.49586E+06
-0.10000014E+00  0.48681E+06
-0.50000072E-01  0.47743E+06
-0.11920929E-06  0.46824E+06
 0.49999952E-01  0.46016E+06
 0.99999905E-01  0.45387E+06
 0.14999986E+00  0.44952E+06
 0.19999981E+00  0.44701E+06
 0.24999976E+00  0.44629E+06
 0.29999995E+00  0.44741E+06
 0.34999990E+00  0.45026E+06
 0.39999986E+00  0.45442E+06
 0.44999981E+00  0.45947E+06
 0.49999976E+00  0.46521E+06
 0.54999995E+00  0.47139E+06
 0.59999990E+00  0.47762E+06
 0.64999986E+00  0.48327E+06
 0.69999981E+00  0.48760E+06
 0.74999976E+00  0.49008E+06
 0.79999971E+00  0.49032E+06
 0.84999990E+00  0.48810E+06
 0.89999986E+00  0.48331E+06
 0.94999981E+00  0.47595E+06
 0.99999976E+00  0.46614E+06
 0.10499997E+01  0.45411E+06
 0.10999999E+01  0.44016E+06
 0.11499999E+01  0.42463E+06
 0.11999998E+01  0.40822E+06
 0.12499998E+01  0.39186E+06
 0.12999997E+01  0.37617E+06
 0.13499999E+01  0.36137E+06
 0.13999999E+01  0.34787E+06
 0.14499998E+01  0.33644E+06
 0.14999998E+01  0.32787E+06
 0.15499997E+01  0.32262E+06
 0.15999999E+01  0.32105E+06
 0.16499999E+01  0.32364E+06
 0.16999998E+01  0.33070E+06
 0.17499998E+01  0.34242E+06
 0.17999997E+01  0.35811E+06
 0.18499997E+01  0.37680E+06
 0.18999999E+01  0.39832E+06
 0.19499998E+01  0.42281E+06
 0.19999998E+01  0.44975E+06
 0.20499997E+01  0.47780E+06
 0.20999999E+01  0.50580E+06
 0.21499996E+01  0.53330E+06
 0.21999998E+01  0.55968E+06
 0.22499995E+01  0.58378E+06
 0.22999997E+01  0.60450E+06
 0.23499999E+01  0.62121E+06
 0.23999996E+01  0.63351E+06
 0.24499998E+01  0.64093E+06
 0.24999995E+01  0.64318E+06
 0.25499997E+01  0.64058E+06
 0.25999999E+01  0.63385E+06
 0.26499996E+01  0.62296E+06
 0.26999998E+01  0.60777E+06
 0.27499995E+01  0.58894E+06
 0.27999997E+01  0.56708E+06
 0.28499999E+01  0.54276E+06
 0.28999996E+01  0.51656E+06
 0.29499998E+01  0.48926E+06
 0.29999995E+01  0.46178E+06
 0.30499997E+01  0.43486E+06
 0.30999999E+01  0.40932E+06
 0.31499996E+01  0.38613E+06
 0.31999998E+01  0.36636E+06
 0.32499995E+01  0.35089E+06
 0.32999997E+01  0.34006E+06
 0.33499999E+01  0.33375E+06
 0.33999996E+01  0.33196E+06
 0.34499998E+01  0.33467E+06
 0.34999995E+01  0.34174E+06
 0.35499997E+01  0.35278E+06
 0.35999994E+01  0.36720E+06
 0.36499996E+01  0.38448E+06
 0.36999998E+01  0.40413E+06
 0.37499995E+01  0.42552E+06
 0.37999997E+01  0.44770E+06
 0.38499994E+01  0.46972E+06
 0.38999996E+01  0.49074E+06
 0.39499998E+01  0.50995E+06
 0.39999995E+01  0.52641E+06
 0.40499997E+01  0.53919E+06
 0.40999994E+01  0.54781E+06
 0.41499996E+01  0.55197E+06
 0.41999998E+01  0.55181E+06
 0.42499995E+01  0.54799E+06
 0.42999997E+01  0.54080E+06
 0.43499994E+01  0.52997E+06
 0.43999996E+01  0.51595E+06
 0.44499998E+01  0.49978E+06
 0.44999995E+01  0.48214E+06
 0.45499997E+01  0.46335E+06
 0.45999994E+01  0.44391E+06
 0.46499996E+01  0.42480E+06
 0.46999998E+01  0.40704E+06
 0.47499995E+01  0.39135E+06
 0.47999997E+01  0.37843E+06
 0.48499994E+01  0.36895E+06
 0.48999996E+01  0.36334E+06
 0.49499998E+01  0.36155E+06
 0.49999995E+01  0.36333E+06
 0.50499997E+01  0.36849E+06
 0.50999994E+01  0.37683E+06
 0.51499996E+01  0.38819E+06
 0.51999998E+01  0.40245E+06
 0.52499995E+01  0.41916E+06
 0.52999997E+01  0.43758E+06
 0.53499994E+01  0.45692E+06
 0.53999996E+01  0.47643E+06
 0.54499993E+01  0.49550E+06
 0.54999995E+01  0.51356E+06
 0.55499997E+01  0.52985E+06
 0.55999994E+01  0.54356E+06
 0.56499996E+01  0.55421E+06
 0.56999993E+01  0.56157E+06
 0.57499995E+01  0.56551E+06
 0.57999997E+01  0.56604E+06
 0.58499994E+01  0.56334E+06
 0.58999996E+01  0.55759E+06
 0.59499993E+01  0.54891E+06
 0.59999995E+01  0.53766E+06
 0.60499992E+01  0.52425E+06
 0.60999994E+01  0.50910E+06
 0.61499996E+01  0.49271E+06
 0.61999998E+01  0.47578E+06
 0.62499990E+01  0.45913E+06
 0.62999992E+01  0.44350E+06
 0.63499994E+01  0.42950E+06
 0.63999996E+01  0.41768E+06
 0.64499998E+01  0.40842E+06
 0.64999990E+01  0.40192E+06
 0.65499992E+01  0.39848E+06
 0.65999994E+01  0.39829E+06
 0.66499996E+01  0.40135E+06
 0.66999998E+01  0.40740E+06
 0.67499990E+01  0.41618E+06
 0.67999992E+01  0.42745E+06
 0.68499994E+01  0.44066E+06
 0.68999996E+01  0.45520E+06
 0.69499998E+01  0.47052E+06
 0.69999990E+01  0.48593E+06
 0.70499992E+01  0.50075E+06
 0.70999994E+01  0.51427E+06
 0.71499996E+01  0.52575E+06
 0.71999998E+01  0.53463E+06
 0.72499990E+01  0.54053E+06
 0.72999992E+01  0.54314E+06
 0.73499994E+01  0.54233E+06
 0.73999996E+01  0.53814E+06
 0.74499998E+01  0.53072E+06
 0.74999990E+01  0.52036E+06
 0.75499992E+01  0.50743E+06
 0.75999994E+01  0.49235E+06
 0.76499996E+01  0.47562E+06
 0.76999998E+01  0.45791E+06
 0.77499990E+01  0.44010E+06
 0.77999992E+01  0.42298E+06
 0.78499994E+01  0.40733E+06
 0.78999996E+01  0.39382E+06
 0.79499998E+01  0.38309E+06
 0.79999990E+01  0.37572E+06
 0.80499992E+01  0.37211E+06
 0.80999994E+01  0.37237E+06
 0.81499996E+01  0.37639E+06
 0.81999998E+01  0.38421E+06
 0.82499990E+01  0.39573E+06
 0.82999992E+01  0.41067E+06
 0.83499994E+01  0.42855E+06
 0.83999996E+01  0.44864E+06
 0.84499998E+01  0.47024E+06
 0.84999990E+01  0.49259E+06
 0.85499992E+01  0.51480E+06
 0.85999994E+01  0.53605E+06
 0.86499996E+01  0.55540E+06
 0.86999998E+01  0.57184E+06
 0.87499990E+01  0.58466E+06
 0.87999992E+01  0.59354E+06
 0.88499994E+01  0.59815E+06
 0.88999996E+01  0.59821E+06
 0.89499998E+01  0.59351E+06
 0.89999990E+01  0.58426E+06
 0.90499992E+01  0.57097E+06
 0.90999994E+01  0.55413E+06
 0.91499996E+01  0.53431E+06
 0.91999989E+01  0.51211E+06
 0.92499990E+01  0.48810E+06
 0.92999992E+01  0.46318E+06
 0.93499994E+01  0.43834E+06
 0.93999996E+01  0.41435E+06
 0.94499989E+01  0.39192E+06
 0.94999990E+01  0.37183E+06
 0.95499992E+01  0.35482E+06
 0.95999994E+01  0.34138E+06
 0.96499996E+01  0.33176E+06
 0.96999989E+01  0.32615E+06
 0.97499990E+01  0.32464E+06
 0.97999992E+01  0.32723E+06
 0.98499994E+01  0.33355E+06
 0.98999996E+01  0.34317E+06
 0.99499989E+01  0.35560E+06
 0.99999990E+01  0.37041E+06
 0.10049999E+02  0.38711E+06
 0.10099999E+02  0.40490E+06
 0.10150000E+02  0.42285E+06
 0.10199999E+02  0.44024E+06
 0.10249999E+02  0.45656E+06
 0.10299999E+02  0.47122E+06
 0.10349999E+02  0.48361E+06
 0.10400000E+02  0.49335E+06
 0.10449999E+02  0.50022E+06
 0.10499999E+02  0.50411E+06
 0.10549999E+02  0.50505E+06
 0.10599999E+02  0.50308E+06
 0.10650000E+02  0.49836E+06
 0.10699999E+02  0.49125E+06
 0.10749999E+02  0.48224E+06
 0.10799999E+02  0.47189E+06
 0.10849999E+02  0.46085E+06
 0.10900000E+02  0.44982E+06
 0.10949999E+02  0.43945E+06
 0.10999999E+02  0.43042E+06
 0.11049999E+02  0.42322E+06
 0.11099999E+02  0.41820E+06
 0.11150000E+02  0.41561E+06
 0.11199999E+02  0.41556E+06
 0.11249999E+02  0.41812E+06
 0.11299999E+02  0.42316E+06
 0.11349999E+02  0.43049E+06
 0.11400000E+02  0.43982E+06
 0.11449999E+02  0.45064E+06
 0.11499999E+02  0.46234E+06
 0.11549999E+02  0.47429E+06
 0.11599999E+02  0.48589E+06
 0.11650000E+02  0.49645E+06
 0.11699999E+02  0.50519E+06
 0.11749999E+02  0.51159E+06
 0.11799999E+02  0.51530E+06
 0.11849999E+02  0.51611E+06
 0.11900000E+02  0.51394E+06
 0.11949999E+02  0.50885E+06
 0.11999999E+02  0.50107E+06
 0.12049999E+02  0.49075E+06
 0.12099999E+02  0.47820E+06
 0.12150000E+02  0.46397E+06
 0.12199999E+02  0.44849E+06
 0.12249999E+02  0.43208E+06
 0.12299999E+02  0.41530E+06
 0.12349999E+02  0.39877E+06
 0.12400000E+02  0.38326E+06
 0.12449999E+02  0.36952E+06
 0.12499999E+02  0.35812E+06
 0.12549999E+02  0.34940E+06
 0.12599999E+02  0.34368E+06
 0.12649999E+02  0.34116E+06
 0.12699999E+02  0.34190E+06
 0.12749999E+02  0.34590E+06
 0.12799999E+02  0.35297E+06
 0.12849999E+02  0.36278E+06
 0.12899999E+02  0.37496E+06
 0.12949999E+02  0.38918E+06
 0.12999999E+02  0.40493E+06
 0.13049999E+02  0.42160E+06
 0.13099999E+02  0.43847E+06
 0.13149999E+02  0.45478E+06
 0.13199999E+02  0.46975E+06
 0.13249999E+02  0.48256E+06
 0.13299999E+02  0.49258E+06
 0.13349999E+02  0.49936E+06
 0.13399999E+02  0.50260E+06
 0.13449999E+02  0.50218E+06
 0.13499999E+02  0.49807E+06
 0.13549999E+02  0.49045E+06
 0.13599999E+02  0.47983E+06
 0.13649999E+02  0.46667E+06
 0.13699999E+02  0.45144E+06
 0.13749999E+02  0.43457E+06
 0.13799999E+02  0.41665E+06
 0.13849999E+02  0.39845E+06
 0.13899999E+02  0.38079E+06
 0.13949999E+02  0.36456E+06
 0.13999999E+02  0.35057E+06
 0.14049999E+02  0.33966E+06
 0.14099998E+02  0.33185E+06
 0.14150000E+02  0.32758E+06
 0.14199999E+02  0.32711E+06
 0.14249998E+02  0.33056E+06
 0.14299999E+02  0.33776E+06
 0.14349998E+02  0.34851E+06
 0.14400000E+02  0.36259E+06
 0.14449999E+02  0.37930E+06
 0.14499998E+02  0.39850E+06
 0.14549999E+02  0.41910E+06
 0.14599998E+02  0.44026E+06
 0.14650000E+02  0.46118E+06
 0.14699999E+02  0.48109E+06
 0.14749998E+02  0.49912E+06
 0.14799999E+02  0.51380E+06
 0.14849998E+02  0.52494E+06
 0.14900000E+02  0.53196E+06
 0.14949999E+02  0.53451E+06
 0.14999998E+02  0.53231E+06
 0.15049999E+02  0.52574E+06
 0.15099998E+02  0.51533E+06
 0.15150000E+02  0.50121E+06
 0.15199999E+02  0.48365E+06
 0.15249998E+02  0.46298E+06
 0.15299999E+02  0.44030E+06
 0.15349998E+02  0.41640E+06
 0.15400000E+02  0.39210E+06
 0.15449999E+02  0.36805E+06
 0.15499998E+02  0.34532E+06
 0.15549999E+02  0.32521E+06
 0.15599998E+02  0.30871E+06
 0.15650000E+02  0.29633E+06
 0.15699999E+02  0.28829E+06
 0.15749998E+02  0.28482E+06
 0.15799999E+02  0.28588E+06
 0.15849998E+02  0.29117E+06
 0.15900000E+02  0.30112E+06
 0.15949999E+02  0.31599E+06
 0.15999998E+02  0.33494E+06
 0.16049999E+02  0.35681E+06
 0.16099998E+02  0.38062E+06
 0.16150000E+02  0.40597E+06
 0.16199999E+02  0.43229E+06
 0.16249998E+02  0.45815E+06
 0.16299999E+02  0.48196E+06
 0.16349998E+02  0.50280E+06
 0.16400000E+02  0.51996E+06
 0.16449999E+02  0.53264E+06
 0.16499998E+02  0.54019E+06
 0.16549999E+02  0.54271E+06
 0.16599998E+02  0.54076E+06
 0.16650000E+02  0.53418E+06
 0.16699999E+02  0.52252E+06
 0.16749998E+02  0.50631E+06
 0.16799999E+02  0.48659E+06
 0.16849998E+02  0.46402E+06
 0.16900000E+02  0.43915E+06
 0.16949999E+02  0.41283E+06
 0.16999998E+02  0.38625E+06
 0.17049999E+02  0.36061E+06
 0.17099998E+02  0.33681E+06
 0.17150000E+02  0.31573E+06
 0.17199999E+02  0.29833E+06
 0.17249998E+02  0.28529E+06
 0.17299999E+02  0.27680E+06
 0.17349998E+02  0.27281E+06
 0.17400000E+02  0.27345E+06
 0.17449999E+02  0.27859E+06
 0.17499998E+02  0.28797E+06
 0.17549999E+02  0.30138E+06
 0.17599998E+02  0.31842E+06
 0.17650000E+02  0.33836E+06
 0.17699999E+02  0.36043E+06
 0.17749998E+02  0.38383E+06
 0.17799999E+02  0.40769E+06
 0.17849998E+02  0.43103E+06
 0.17900000E+02  0.45285E+06
 0.17949999E+02  0.47212E+06
 0.17999998E+02  0.48803E+06
 0.18049999E+02  0.50008E+06
 0.18099998E+02  0.50792E+06
 0.18150000E+02  0.51137E+06
 0.18199999E+02  0.51031E+06
 0.18249998E+02  0.50482E+06
 0.18299999E+02  0.49527E+06
 0.18349998E+02  0.48207E+06
 0.18400000E+02  0.46559E+06
 0.18449999E+02  0.44636E+06
 0.18499998E+02  0.42504E+06
 0.18549999E+02  0.40242E+06
 0.18599998E+02  0.37942E+06
 0.18650000E+02  0.35679E+06
 0.18699999E+02  0.33533E+06
 0.18749998E+02  0.31599E+06
 0.18799999E+02  0.29961E+06
 0.18849998E+02  0.28679E+06
 0.18900000E+02  0.27782E+06
 0.18949999E+02  0.27289E+06
 0.18999998E+02  0.27203E+06
 0.19049999E+02  0.27528E+06
 0.19099998E+02  0.28233E+06
 0.19150000E+02  0.29268E+06
 0.19199999E+02  0.30599E+06
 0.19249998E+02  0.32172E+06
 0.19299999E+02  0.33925E+06
 0.19349998E+02  0.35770E+06
 0.19400000E+02  0.37620E+06
 0.19449999E+02  0.39400E+06
 0.19499998E+02  0.41027E+06
 0.19549999E+02  0.42422E+06
 0.19599998E+02  0.43518E+06
 0.19650000E+02  0.44279E+06
 0.19699999E+02  0.44678E+06
 0.19749998E+02  0.44708E+06
 0.19799999E+02  0.44360E+06
 0.19849998E+02  0.43649E+06
 0.19900000E+02  0.42616E+06
 0.19949999E+02  0.41319E+06
 0.19999998E+02  0.39819E+06
 0.20049999E+02  0.38160E+06
 0.20099998E+02  0.36394E+06
 0.20150000E+02  0.34594E+06
 0.20199999E+02  0.32837E+06
 0.20249998E+02  0.31193E+06
 0.20299999E+02  0.29721E+06
 0.20349998E+02  0.28468E+06
 0.20399998E+02  0.27486E+06
 0.20449999E+02  0.26811E+06
 0.20499998E+02  0.26460E+06
 0.20549999E+02  0.26429E+06
 0.20599998E+02  0.26700E+06
 0.20649998E+02  0.27249E+06
 0.20699999E+02  0.28055E+06
 0.20749998E+02  0.29089E+06
 0.20799999E+02  0.30316E+06
 0.20849998E+02  0.31692E+06
 0.20899998E+02  0.33149E+06
 0.20949999E+02  0.34619E+06
 0.20999998E+02  0.36045E+06
 0.21049999E+02  0.37390E+06
 0.21099998E+02  0.38615E+06
 0.21149998E+02  0.39683E+06
 0.21199999E+02  0.40558E+06
 0.21249998E+02  0.41213E+06
 0.21299999E+02  0.41633E+06
 0.21349998E+02  0.41808E+06
 0.21399998E+02  0.41732E+06
 0.21449999E+02  0.41405E+06
 0.21499998E+02  0.40854E+06
 0.21549999E+02  0.40132E+06
 0.21599998E+02  0.39280E+06
 0.21649998E+02  0.38320E+06
 0.21699999E+02  0.37280E+06
 0.21749998E+02  0.36215E+06
 0.21799999E+02  0.35176E+06
 0.21849998E+02  0.34201E+06
 0.21899998E+02  0.33324E+06
 0.21949999E+02  0.32589E+06
 0.21999998E+02  0.32026E+06
 0.22049999E+02  0.31658E+06
 0.22099998E+02  0.31494E+06
 0.22149998E+02  0.31533E+06
 0.22199999E+02  0.31776E+06
 0.22249998E+02  0.32211E+06
 0.22299999E+02  0.32819E+06
 0.22349998E+02  0.33555E+06
 0.22399998E+02  0.34365E+06
 0.22449999E+02  0.35201E+06
 0.22499998E+02  0.36021E+06
 0.22549999E+02  0.36786E+06
 0.22599998E+02  0.37447E+06
 0.22649998E+02  0.37967E+06
 0.22699999E+02  0.38325E+06
 0.22749998E+02  0.38513E+06
 0.22799999E+02  0.38519E+06
 0.22849998E+02  0.38339E+06
 0.22899998E+02  0.37995E+06
 0.22949999E+02  0.37522E+06
 0.22999998E+02  0.36951E+06
 0.23049999E+02  0.36305E+06
 0.23099998E+02  0.35623E+06
 0.23149998E+02  0.34948E+06
 0.23199999E+02  0.34337E+06
 0.23249998E+02  0.33840E+06
 0.23299999E+02  0.33498E+06
 0.23349998E+02  0.33343E+06
 0.23399998E+02  0.33397E+06
 0.23449999E+02  0.33665E+06
 0.23499998E+02  0.34131E+06
 0.23549999E+02  0.34769E+06
 0.23599998E+02  0.35538E+06
 0.23649998E+02  0.36415E+06
 0.23699999E+02  0.37381E+06
 0.23749998E+02  0.38388E+06
 0.23799999E+02  0.39366E+06
 0.23849998E+02  0.40248E+06
 0.23899998E+02  0.40974E+06
 0.23949999E+02  0.41494E+06
 0.23999998E+02  0.41743E+06
 0.24049999E+02  0.41674E+06
 0.24099998E+02  0.41308E+06
 0.24149998E+02  0.40651E+06
 0.24199999E+02  0.39680E+06
 0.24249998E+02  0.38372E+06
 0.24299999E+02  0.36755E+06
 0.24349998E+02  0.34902E+06
 0.24399998E+02  0.32867E+06
 0.24449999E+02  0.30683E+06
 0.24499998E+02  0.28389E+06
 0.24549999E+02  0.26045E+06
 0.24599998E+02  0.23739E+06
 0.24649998E+02  0.21573E+06
 0.24699999E+02  0.19634E+06
 0.24749998E+02  0.17994E+06
 0.24799999E+02  0.16715E+06
 0.24849998E+02  0.15842E+06
 0.24899998E+02  0.15406E+06
 0.24949999E+02  0.15418E+06
 0.24999998E+02  0.15854E+06
 0.25049999E+02  0.16716E+06
 0.25099998E+02  0.18070E+06
 0.25149998E+02  0.19909E+06
 0.25199999E+02  0.22112E+06
 0.25249998E+02  0.24579E+06
 0.25299999E+02  0.27290E+06
 0.25349998E+02  0.30198E+06
 0.25399998E+02  0.33188E+06
 0.25449999E+02  0.36134E+06
 0.25499998E+02  0.38929E+06
 0.25549999E+02  0.41473E+06
 0.25599998E+02  0.43656E+06
 0.25649998E+02  0.45387E+06
 0.25699999E+02  0.46606E+06
 0.25749998E+02  0.47302E+06
 0.25799999E+02  0.47503E+06
 0.25849998E+02  0.47230E+06
 0.25899998E+02  0.46484E+06
 0.25949999E+02  0.45254E+06
 0.25999998E+02  0.43578E+06
 0.26049999E+02  0.41519E+06
 0.26099998E+02  0.39156E+06
 0.26149998E+02  0.36556E+06
 0.26199999E+02  0.33764E+06
 0.26249998E+02  0.30864E+06
 0.26299999E+02  0.27972E+06
 0.26349998E+02  0.25178E+06
 0.26399998E+02  0.22556E+06
 0.26449999E+02  0.20224E+06
 0.26499998E+02  0.18278E+06
 0.26549999E+02  0.16770E+06
 0.26599998E+02  0.15721E+06
 0.26649998E+02  0.15128E+06
 0.26699999E+02  0.15009E+06
 0.26749998E+02  0.15375E+06
 0.26799999E+02  0.16183E+06
 0.26849998E+02  0.17395E+06
 0.26899998E+02  0.19042E+06
 0.26949999E+02  0.21096E+06
 0.26999998E+02  0.23406E+06
 0.27049997E+02  0.25845E+06
 0.27099998E+02  0.28357E+06
 0.27149998E+02  0.30891E+06
 0.27199999E+02  0.33366E+06
 0.27249998E+02  0.35649E+06
 0.27299997E+02  0.37623E+06
 0.27349998E+02  0.39237E+06
 0.27399998E+02  0.40433E+06
 0.27449999E+02  0.41163E+06
 0.27499998E+02  0.41423E+06
 0.27549997E+02  0.41261E+06
 0.27599998E+02  0.40710E+06
 0.27649998E+02  0.39771E+06
 0.27699999E+02  0.38479E+06
 0.27749998E+02  0.36892E+06
 0.27799997E+02  0.35079E+06
 0.27849998E+02  0.33087E+06
 0.27899998E+02  0.31021E+06
 0.27949999E+02  0.28974E+06
 0.27999998E+02  0.26971E+06
 0.28049997E+02  0.25068E+06
 0.28099998E+02  0.23341E+06
 0.28149998E+02  0.21863E+06
 0.28199999E+02  0.20697E+06
 0.28249998E+02  0.19948E+06
 0.28299997E+02  0.19702E+06
 0.28349998E+02  0.19843E+06
 0.28399998E+02  0.20217E+06
 0.28449999E+02  0.20797E+06
 0.28499998E+02  0.21654E+06
 0.28549997E+02  0.22884E+06
 0.28599998E+02  0.24385E+06
 0.28649998E+02  0.26015E+06
 0.28699999E+02  0.27641E+06
 0.28749998E+02  0.29274E+06
 0.28799997E+02  0.30980E+06
 0.28849998E+02  0.32586E+06
 0.28899998E+02  0.33964E+06
 0.28949999E+02  0.35092E+06
 0.28999998E+02  0.35914E+06
 0.29049997E+02  0.36355E+06
 0.29099998E+02  0.36267E+06
 0.29149998E+02  0.35698E+06
 0.29199999E+02  0.34697E+06
 0.29249998E+02  0.33294E+06
 0.29299997E+02  0.31847E+06
 0.29349998E+02  0.30490E+06
 0.29399998E+02  0.29087E+06
 0.29449999E+02  0.27533E+06
 0.29499998E+02  0.26009E+06
 0.29549997E+02  0.24693E+06
 0.29599998E+02  0.23429E+06
 0.29649998E+02  0.22214E+06
 0.29699999E+02  0.21181E+06
 0.29749998E+02  0.20313E+06
 0.29799997E+02  0.19678E+06
 0.29849998E+02  0.19142E+06
 0.29899998E+02  0.19171E+06
 0.29949999E+02  0.19856E+06
 0.29999998E+02  0.20661E+06
 0.30049999E+02  0.21646E+06
 0.30099998E+02  0.22890E+06
 0.30149998E+02  0.24593E+06
 0.30199997E+02  0.26374E+06
 0.30249996E+02  0.28113E+06
 0.30299999E+02  0.29986E+06
 0.30349998E+02  0.31774E+06
 0.30399998E+02  0.33025E+06
 0.30449997E+02  0.33955E+06
 0.30499996E+02  0.35136E+06
 0.30549999E+02  0.36096E+06
 0.30599998E+02  0.36560E+06
 0.30649998E+02  0.36925E+06
 0.30699997E+02  0.37261E+06
 0.30749996E+02  0.36821E+06
 0.30799999E+02  0.35421E+06
 0.30849998E+02  0.33889E+06
 0.30899998E+02  0.33093E+06
 0.30949997E+02  0.32319E+06
 0.30999996E+02  0.30341E+06
 0.31049999E+02  0.27867E+06
 0.31099998E+02  0.26258E+06
 0.31149998E+02  0.25180E+06
 0.31199997E+02  0.23503E+06
 0.31249996E+02  0.22091E+06
 0.31299999E+02  0.20917E+06
 0.31349998E+02  0.18862E+06
 0.31399998E+02  0.16836E+06
 0.31449997E+02  0.15496E+06
 0.31499996E+02  0.14259E+06
 0.31549999E+02  0.13040E+06
 0.31599998E+02  0.11816E+06
 0.31649998E+02  0.11358E+06
 0.31699997E+02  0.11754E+06
 0.31749996E+02  0.11937E+06
 0.31799999E+02  0.11701E+06
 0.31849998E+02  0.11700E+06
 0.31899998E+02  0.11784E+06
 0.31949997E+02  0.12137E+06
 0.31999996E+02  0.13302E+06
 0.32049999E+02  0.14045E+06
 0.32099998E+02  0.14760E+06
 0.32149998E+02  0.15789E+06
 0.32199997E+02  0.16784E+06
 0.32249996E+02  0.17912E+06
 0.32299999E+02  0.19648E+06
 0.32349998E+02  0.20919E+06
 0.32399998E+02  0.21124E+06
 0.32449997E+02  0.21736E+06
 0.32499996E+02  0.22729E+06
 0.32549999E+02  0.23724E+06
 0.32599998E+02  0.23539E+06
 0.32649998E+02  0.23021E+06
 0.32699997E+02  0.23694E+06
 0.32749996E+02  0.24595E+06
 0.32799999E+02  0.26108E+06
 0.32849998E+02  0.28399E+06
 0.32899998E+02  0.29862E+06
 0.32949997E+02  0.29815E+06
 0.32999996E+02  0.29980E+06
 0.33049999E+02  0.30237E+06
 0.33099998E+02  0.29691E+06
 0.33149998E+02  0.30060E+06
 0.33199997E+02  0.31271E+06
 0.33249996E+02  0.32336E+06
 0.33299999E+02  0.33010E+06
 0.33349998E+02  0.33105E+06
 0.33399998E+02  0.33044E+06
 0.33449997E+02  0.33202E+06
 0.33499996E+02  0.33185E+06
 0.33549999E+02  0.32485E+06
 0.33599998E+02  0.31098E+06
 0.33649998E+02  0.29365E+06
 0.33699997E+02  0.27697E+06
 0.33749996E+02  0.26388E+06
 0.33799999E+02  0.26150E+06
 0.33849998E+02  0.26509E+06
 0.33899998E+02  0.26026E+06
 0.33949997E+02  0.24195E+06
 0.33999996E+02  0.23161E+06
 0.34049999E+02  0.23086E+06
 0.34099998E+02  0.21545E+06
 0.34149998E+02  0.20306E+06
 0.34199997E+02  0.20172E+06
 0.34249996E+02  0.20369E+06
 0.34299999E+02  0.21207E+06
 0.34349998E+02  0.21465E+06
 0.34399998E+02  0.21158E+06
 0.34449997E+02  0.21278E+06
 0.34499996E+02  0.21915E+06
 0.34549999E+02  0.22822E+06
 0.34599998E+02  0.23714E+06
 0.34649998E+02  0.23424E+06
 0.34699997E+02  0.22083E+06
 0.34749996E+02  0.23132E+06
 0.34799999E+02  0.25668E+06
 0.34849998E+02  0.26308E+06
 0.34899998E+02  0.25283E+06
 0.34949997E+02  0.25035E+06
 0.34999996E+02  0.26876E+06
 0.35049999E+02  0.27365E+06
 0.35099998E+02  0.24122E+06
 0.35149998E+02  0.20136E+06
 0.35199997E+02  0.17644E+06
 0.35249996E+02  0.15234E+06
 0.35299999E+02  0.12208E+06
 0.35349998E+02  0.10221E+06
 0.35399998E+02  0.94955E+05
 0.35449997E+02  0.80856E+05
 0.35499996E+02  0.55810E+05
 0.35549999E+02  0.24321E+05
 0.35599998E+02  0.48707E+02
 0.35649998E+02 -0.96740E+04
 0.35699997E+02 -0.13386E+05
 0.35749996E+02 -0.12489E+05
 0.35799999E+02 -0.50056E+04
 0.35849998E+02  0.19574E+05
 0.35899998E+02  0.52796E+05
 0.35949997E+02  0.74008E+05
 0.35999996E+02  0.94633E+05
 0.36049999E+02  0.13444E+06
 0.36099998E+02  0.18461E+06
 0.36149998E+02  0.22457E+06
 0.36199997E+02  0.26143E+06
 0.36249996E+02  0.31191E+06
 0.36299999E+02  0.37613E+06
 0.36349998E+02  0.44078E+06
 0.36399998E+02  0.48757E+06
 0.36449997E+02  0.52279E+06
 0.36499996E+02  0.55187E+06
 0.36549999E+02  0.57678E+06
 0.36599998E+02  0.58963E+06
 0.36649998E+02  0.58722E+06
 0.36699997E+02  0.58050E+06
 0.36749996E+02  0.57513E+06
 0.36799999E+02  0.57845E+06
 0.36849998E+02  0.57212E+06
 0.36899998E+02  0.55337E+06
 0.36949997E+02  0.53514E+06
 0.36999996E+02  0.51310E+06
 0.37049999E+02  0.47958E+06
 0.37099998E+02  0.43552E+06
 0.37149998E+02  0.39201E+06
 0.37199997E+02  0.33896E+06
 0.37249996E+02  0.27051E+06
 0.37299999E+02  0.21162E+06
 0.37349998E+02  0.16525E+06
 0.37399998E+02  0.11570E+06
 0.37449997E+02  0.60100E+05
 0.37499996E+02  0.21030E+05
 0.37549999E+02 -0.70351E+04
 0.37599998E+02 -0.49622E+05
 0.37649998E+02 -0.91949E+05
 0.37699997E+02 -0.11382E+06
 0.37749996E+02 -0.12334E+06
 0.37799999E+02 -0.14050E+06
 0.37849998E+02 -0.14411E+06
 0.37899998E+02 -0.12540E+06
 0.37949997E+02 -0.93373E+05
 0.37999996E+02 -0.55565E+05
 0.38049999E+02 -0.25168E+05
 0.38099998E+02  0.26074E+04
 0.38149998E+02  0.21471E+05
 0.38199997E+02  0.31605E+05
 0.38249996E+02  0.40927E+05
 0.38299999E+02  0.59234E+05
 0.38349998E+02  0.87261E+05
 0.38399998E+02  0.11657E+06
 0.38449997E+02  0.14318E+06
 0.38499996E+02  0.16830E+06
 0.38549999E+02  0.19510E+06
 0.38599998E+02  0.20954E+06
 0.38649998E+02  0.22307E+06
 0.38699997E+02  0.24469E+06
 0.38749996E+02  0.25518E+06
 0.38799999E+02  0.25888E+06
 0.38849998E+02  0.26642E+06
 0.38899998E+02  0.27886E+06
 0.38949997E+02  0.28273E+06
 0.38999996E+02  0.27184E+06
 0.39049999E+02  0.26261E+06
 0.39099998E+02  0.25506E+06
 0.39149998E+02  0.24583E+06
 0.39199997E+02  0.23504E+06
 0.39249996E+02  0.22039E+06
 0.39299999E+02  0.20424E+06
 0.39349998E+02  0.19198E+06
 0.39399998E+02  0.19351E+06
 0.39449997E+02  0.19849E+06
 0.39499996E+02  0.19422E+06
 0.39549999E+02  0.18583E+06
 0.39599998E+02  0.18488E+06
 0.39649998E+02  0.19476E+06
 0.39699997E+02  0.19650E+06
 0.39749996E+02  0.18613E+06
 0.39799999E+02  0.17503E+06
 0.39849998E+02  0.17502E+06
 0.39899998E+02  0.18254E+06
 0.39949997E+02  0.17869E+06
 0.39999996E+02  0.17167E+06
 0.40049999E+02  0.17411E+06
 0.40099998E+02  0.18499E+06
 0.40149998E+02  0.19513E+06
 0.40199997E+02  0.19578E+06
 0.40249996E+02  0.17633E+06
 0.40299999E+02  0.14844E+06
 0.40349998E+02  0.14576E+06
 0.40399998E+02  0.14713E+06
 0.40449997E+02  0.12453E+06
 0.40499996E+02  0.11141E+06
 0.40549999E+02  0.12198E+06
 0.40599998E+02  0.13532E+06
 0.40649998E+02  0.14970E+06
 0.40699997E+02  0.15288E+06
 0.40749996E+02  0.14159E+06
 0.40799999E+02  0.13383E+06
 0.40849998E+02  0.13315E+06
 0.40899998E+02  0.13895E+06
 0.40949997E+02  0.14590E+06
 0.40999996E+02  0.14781E+06
 0.41049999E+02  0.14138E+06
 0.41099998E+02  0.14358E+06
 0.41149998E+02  0.16951E+06
 0.41199997E+02  0.18254E+06
 0.41249996E+02  0.16743E+06
 0.41299999E+02  0.16143E+06
 0.41349998E+02  0.18506E+06
 0.41399998E+02  0.20759E+06
 0.41449997E+02  0.19782E+06
 0.41499996E+02  0.16928E+06
 0.41549999E+02  0.15628E+06
 0.41599998E+02  0.17008E+06
 0.41649998E+02  0.17836E+06
 0.41699997E+02  0.15215E+06
 0.41749996E+02  0.11142E+06
 0.41799999E+02  0.84774E+05
 0.41849998E+02  0.78228E+05
 0.41899998E+02  0.84335E+05
 0.41949997E+02  0.96491E+05
 0.41999996E+02  0.11486E+06
 0.42049999E+02  0.12825E+06
 0.42099998E+02  0.13411E+06
 0.42149998E+02  0.13775E+06
 0.42199997E+02  0.13929E+06
 0.42249996E+02  0.13798E+06
 0.42299999E+02  0.14170E+06
 0.42349998E+02  0.14850E+06
 0.42399998E+02  0.14905E+06
 0.42449997E+02  0.14655E+06
 0.42499996E+02  0.14778E+06
 0.42549999E+02  0.15053E+06
 0.42599998E+02  0.15347E+06
 0.42649998E+02  0.16108E+06
 0.42699997E+02  0.16655E+06
 0.42749996E+02  0.16983E+06
 0.42799995E+02  0.18026E+06
 0.42849998E+02  0.20192E+06
 0.42899998E+02  0.21471E+06
 0.42949997E+02  0.20660E+06
 0.42999996E+02  0.19000E+06
 0.43049995E+02  0.17765E+06
 0.43099998E+02  0.17173E+06
 0.43149998E+02  0.15630E+06
 0.43199997E+02  0.13108E+06
 0.43249996E+02  0.11447E+06
 0.43299995E+02  0.10728E+06
 0.43349998E+02  0.97263E+05
 0.43399998E+02  0.83651E+05
 0.43449997E+02  0.70241E+05
 0.43499996E+02  0.66790E+05
 0.43549995E+02  0.71265E+05
 0.43599998E+02  0.62588E+05
 0.43649998E+02  0.52049E+05
 0.43699997E+02  0.54850E+05
 0.43749996E+02  0.65758E+05
 0.43799995E+02  0.69717E+05
 0.43849998E+02  0.78924E+05
 0.43899998E+02  0.79092E+05
 0.43949997E+02  0.96241E+05
 0.43999996E+02  0.11717E+06
 0.44049995E+02  0.14717E+06
 0.44099998E+02  0.15346E+06
 0.44149998E+02  0.15197E+06
 0.44199997E+02  0.10285E+06
 0.44249996E+02 -0.77618E+05
 0.44299995E+02 -0.28986E+06
 0.44349998E+02 -0.33065E+06
 0.44399998E+02 -0.14140E+06
 0.44449997E+02 -0.45388E+05
 0.44499996E+02 -0.80492E+04
 0.44549995E+02  0.57172E+04
 0.44599998E+02 -0.29538E+05
 0.44649998E+02 -0.79270E+05
 0.44699997E+02 -0.13463E+06
 0.44749996E+02 -0.12625E+06
 0.44799995E+02 -0.71134E+05
 0.44849998E+02  0.11310E+05
 0.44899998E+02  0.70140E+05
 0.44949997E+02  0.90485E+05
 0.44999996E+02  0.96240E+05
 0.45049995E+02  0.13671E+06
 0.45099998E+02  0.19557E+06
 0.45149998E+02  0.22287E+06
 0.45199997E+02  0.21469E+06
 0.45249996E+02  0.22052E+06
 0.45299995E+02  0.24149E+06
 0.45349998E+02  0.24093E+06
 0.45399998E+02  0.20245E+06
 0.45449997E+02  0.13214E+06
 0.45499996E+02  0.50607E+05
 0.45549995E+02 -0.10544E+05
 0.45599998E+02 -0.14819E+06
 0.45649998E+02 -0.31493E+06
 0.45699997E+02 -0.36044E+06
 0.45749996E+02 -0.37678E+06
 0.45799995E+02 -0.35674E+06
 0.45849998E+02 -0.38357E+06
 0.45899998E+02 -0.48235E+06
 0.45949997E+02 -0.59393E+06
 0.45999996E+02 -0.71176E+06
 0.46049995E+02 -0.74310E+06
 0.46099998E+02 -0.73080E+06
 0.46149998E+02 -0.71674E+06
 0.46199997E+02 -0.75502E+06
 0.46249996E+02 -0.81105E+06
 0.46299995E+02 -0.83095E+06
 0.46349998E+02 -0.81714E+06
 0.46399998E+02 -0.78748E+06
 0.46449997E+02 -0.76710E+06
 0.46499996E+02 -0.75656E+06
 0.46549995E+02 -0.73864E+06
 0.46599998E+02 -0.69377E+06
 0.46649998E+02 -0.63261E+06
 0.46699997E+02 -0.56940E+06
 0.46749996E+02 -0.52563E+06
 0.46799995E+02 -0.49843E+06
 0.46849998E+02 -0.47203E+06
 0.46899998E+02 -0.44269E+06
 0.46949997E+02 -0.41639E+06
 0.46999996E+02 -0.39275E+06
 0.47049995E+02 -0.36518E+06
 0.47099998E+02 -0.33080E+06
 0.47149998E+02 -0.29327E+06
 0.47199997E+02 -0.28228E+06
 0.47249996E+02 -0.29972E+06
 0.47299995E+02 -0.33122E+06
 0.47349998E+02 -0.37614E+06
 0.47399998E+02 -0.39458E+06
 0.47449997E+02 -0.39225E+06
 0.47499996E+02 -0.39006E+06
 0.47549995E+02 -0.40795E+06
 0.47599998E+02 -0.46194E+06
 0.47649998E+02 -0.52833E+06
 0.47699997E+02 -0.58230E+06
 0.47749996E+02 -0.61573E+06
 0.47799995E+02 -0.63894E+06
 0.47849998E+02 -0.66864E+06
 0.47899998E+02 -0.71570E+06
 0.47949997E+02 -0.76148E+06
 0.47999996E+02 -0.78624E+06
 0.48049995E+02 -0.80363E+06
 0.48099998E+02 -0.81793E+06
 0.48149998E+02 -0.82267E+06
 0.48199997E+02 -0.80950E+06
 0.48249996E+02 -0.79506E+06
 0.48299995E+02 -0.78688E+06
 0.48349998E+02 -0.78866E+06
 0.48399998E+02 -0.77553E+06
 0.48449997E+02 -0.75670E+06
 0.48499996E+02 -0.73221E+06
 0.48549995E+02 -0.73507E+06
 0.48599998E+02 -0.76814E+06
 0.48649998E+02 -0.71584E+06
 0.48699997E+02 -0.66669E+06
 0.48749996E+02 -0.63591E+06
 0.48799995E+02 -0.61445E+06
 0.48849998E+02 -0.61558E+06
 0.48899998E+02 -0.62169E+06
 0.48949997E+02 -0.64712E+06
 0.48999996E+02 -0.66018E+06
 0.49049995E+02 -0.66071E+06
 0.49099998E+02 -0.66851E+06
 0.49149998E+02 -0.68779E+06
 0.49199997E+02 -0.68727E+06
 0.49249996E+02 -0.67093E+06
 0.49299995E+02 -0.65174E+06
 0.49349998E+02 -0.63134E+06
 0.49399998E+02 -0.62621E+06
 0.49449997E+02 -0.63600E+06
 0.49499996E+02 -0.61588E+06
 0.49549995E+02 -0.59005E+06
 0.49599998E+02 -0.59163E+06
 0.49649998E+02 -0.59555E+06
 0.49699997E+02 -0.59767E+06
 0.49749996E+02 -0.63135E+06
 0.49799995E+02 -0.68627E+06
 0.49849998E+02 -0.73899E+06
 0.49899998E+02 -0.79146E+06
 0.49949997E+02 -0.83713E+06
 0.49999996E+02 -0.89048E+06
 0.50049995E+02 -0.95293E+06
 0.50099998E+02 -0.10598E+07
 0.50149998E+02 -0.11273E+07
 0.50199997E+02 -0.10873E+07
 0.50249996E+02 -0.10241E+07
 0.50299995E+02 -0.97434E+06
 0.50349998E+02 -0.95103E+06
 0.50399998E+02 -0.95271E+06
 0.50449997E+02 -0.96887E+06
 0.50499996E+02 -0.97920E+06
 0.50549995E+02 -0.95050E+06
 0.50599998E+02 -0.87715E+06
 0.50649998E+02 -0.76309E+06
 0.50699997E+02 -0.63758E+06
 0.50749996E+02 -0.55752E+06
 0.50799995E+02 -0.51074E+06
 0.50849998E+02 -0.47000E+06
 0.50899998E+02 -0.41721E+06
 0.50949997E+02 -0.33621E+06
 0.50999996E+02 -0.22581E+06
 0.51049995E+02 -0.15521E+06
 0.51099998E+02 -0.11685E+06
 0.51149998E+02 -0.12336E+06
 0.51199997E+02 -0.11351E+06
 0.51249996E+02 -0.85049E+05
 0.51299995E+02 -0.12181E+06
 0.51349998E+02 -0.24941E+06
 0.51399998E+02 -0.49132E+06
 0.51449997E+02 -0.69879E+06
 0.51499996E+02 -0.79502E+06
 0.51549995E+02 -0.75947E+06
 0.51599998E+02 -0.76032E+06
 0.51649998E+02 -0.83496E+06
 0.51699997E+02 -0.10166E+07
 0.51749996E+02 -0.12848E+07
 0.51799995E+02 -0.15380E+07
 0.51849998E+02 -0.17932E+07
 0.51899998E+02 -0.19912E+07
 0.51949997E+02 -0.22444E+07
 0.51999996E+02 -0.24748E+07
 0.52049995E+02 -0.27096E+07
 0.52099998E+02 -0.29017E+07
 0.52149998E+02 -0.29564E+07
 0.52199997E+02 -0.28997E+07
 0.52249996E+02 -0.27826E+07
 0.52299995E+02 -0.26701E+07
 0.52349998E+02 -0.24765E+07
 0.52399998E+02 -0.23544E+07
 0.52449997E+02 -0.21464E+07
 0.52499996E+02 -0.19569E+07
 0.52549995E+02 -0.17154E+07
 0.52599998E+02 -0.12090E+07
 0.52649998E+02 -0.84613E+06
 0.52699997E+02 -0.74280E+06
 0.52749996E+02 -0.69969E+06
 0.52799995E+02 -0.60685E+06
 0.52849998E+02 -0.50029E+06
 0.52899998E+02 -0.42537E+06
 0.52949997E+02 -0.30003E+06
 0.52999996E+02 -0.29558E+06
 0.53049995E+02 -0.52295E+06
 0.53099998E+02 -0.70614E+06
 0.53149998E+02 -0.85439E+06
 0.53199997E+02 -0.10169E+07
 0.53249996E+02 -0.10706E+07
 0.53299995E+02 -0.10816E+07
 0.53349998E+02 -0.11844E+07
 0.53399998E+02 -0.12476E+07
 0.53449997E+02 -0.13055E+07
 0.53499996E+02 -0.12851E+07
 0.53549995E+02 -0.12917E+07
 0.53599998E+02 -0.14102E+07
 0.53649998E+02 -0.14892E+07
 0.53699997E+02 -0.15157E+07
 0.53749996E+02 -0.15405E+07
 0.53799995E+02 -0.15688E+07
 0.53849998E+02 -0.15117E+07
 0.53899998E+02 -0.14200E+07
 0.53949997E+02 -0.13179E+07
 0.53999996E+02 -0.12454E+07
 0.54049995E+02 -0.11978E+07
 0.54099998E+02 -0.11434E+07
 0.54149998E+02 -0.10682E+07
 0.54199997E+02 -0.10339E+07
 0.54249996E+02 -0.10199E+07
 0.54299995E+02 -0.10034E+07
 0.54349998E+02 -0.10100E+07
 0.54399998E+02 -0.10551E+07
 0.54449997E+02 -0.10995E+07
 0.54499996E+02 -0.10927E+07
 0.54549995E+02 -0.97393E+06
 0.54599998E+02 -0.80014E+06
 0.54649998E+02 -0.77393E+06
 0.54699997E+02 -0.88025E+06
 0.54749996E+02 -0.99042E+06
 0.54799995E+02 -0.11331E+07
 0.54849998E+02 -0.13810E+07
 0.54899998E+02 -0.15801E+07
 0.54949997E+02 -0.17730E+07
 0.54999996E+02 -0.18960E+07
 0.55049995E+02 -0.18918E+07
 0.55099998E+02 -0.19545E+07
 0.55149998E+02 -0.20195E+07
 0.55199997E+02 -0.20962E+07
 0.55249996E+02 -0.21782E+07
 0.55299995E+02 -0.23082E+07
 0.55349998E+02 -0.25010E+07
 0.55399998E+02 -0.26367E+07
 0.55449997E+02 -0.26729E+07
 0.55499996E+02 -0.24975E+07
 0.55549995E+02 -0.23214E+07
 0.55599998E+02 -0.22611E+07
 0.55649998E+02 -0.22373E+07
 0.55699997E+02 -0.22697E+07
 0.55749996E+02 -0.23767E+07
 0.55799995E+02 -0.21568E+07
 0.55849995E+02 -0.18302E+07
 0.55899998E+02 -0.17487E+07
 0.55949997E+02 -0.16292E+07
 0.55999996E+02 -0.16940E+07
 0.56049995E+02 -0.17405E+07
 0.56099995E+02 -0.15401E+07
 0.56149998E+02 -0.13889E+07
 0.56199997E+02 -0.13583E+07
 0.56249996E+02 -0.15069E+07
 0.56299995E+02 -0.18650E+07
 0.56349995E+02 -0.22046E+07
 0.56399998E+02 -0.24369E+07
 0.56449997E+02 -0.25450E+07
 0.56499996E+02 -0.25959E+07
 0.56549995E+02 -0.26167E+07
 0.56599995E+02 -0.27194E+07
 0.56649998E+02 -0.29005E+07
 0.56699997E+02 -0.31310E+07
 0.56749996E+02 -0.32571E+07
 0.56799995E+02 -0.31868E+07
 0.56849995E+02 -0.30740E+07
 0.56899998E+02 -0.27971E+07
 0.56949997E+02 -0.25910E+07
 0.56999996E+02 -0.25992E+07
 0.57049995E+02 -0.26928E+07
 0.57099995E+02 -0.27379E+07
 0.57149998E+02 -0.26450E+07
 0.57199997E+02 -0.25266E+07
 0.57249996E+02 -0.24777E+07
 0.57299995E+02 -0.25244E+07
 0.57349995E+02 -0.26446E+07
 0.57399998E+02 -0.26233E+07
 0.57449997E+02 -0.24571E+07
 0.57499996E+02 -0.23834E+07
 0.57549995E+02 -0.24278E+07
 0.57599995E+02 -0.25521E+07
 0.57649998E+02 -0.27066E+07
 0.57699997E+02 -0.28410E+07
 0.57749996E+02 -0.29159E+07
 0.57799995E+02 -0.29872E+07
 0.57849995E+02 -0.31271E+07
 0.57899998E+02 -0.33691E+07
 0.57949997E+02 -0.36718E+07
 0.57999996E+02 -0.39453E+07
 0.58049995E+02 -0.41171E+07
 0.58099995E+02 -0.41939E+07
 0.58149998E+02 -0.43212E+07
 0.58199997E+02 -0.44527E+07
 0.58249996E+02 -0.44943E+07
 0.58299995E+02 -0.46097E+07
 0.58349995E+02 -0.44635E+07
 0.58399998E+02 -0.40868E+07
 0.58449997E+02 -0.39076E+07
 0.58499996E+02 -0.37939E+07
 0.58549995E+02 -0.37842E+07
 0.58599995E+02 -0.37867E+07
 0.58649998E+02 -0.37772E+07
 0.58699997E+02 -0.38085E+07
 0.58749996E+02 -0.36952E+07
 0.58799995E+02 -0.35463E+07
 0.58849995E+02 -0.34685E+07
 0.58899998E+02 -0.34759E+07
 0.58949997E+02 -0.35710E+07
 0.58999996E+02 -0.36926E+07
 0.59049995E+02 -0.38358E+07
 0.59099995E+02 -0.39339E+07
 0.59149998E+02 -0.40295E+07
 0.59199997E+02 -0.41654E+07
 0.59249996E+02 -0.43577E+07
 0.59299995E+02 -0.46319E+07
 0.59349995E+02 -0.48553E+07
 0.59399998E+02 -0.51598E+07
 0.59449997E+02 -0.54720E+07
 0.59499996E+02 -0.57288E+07
 0.59549995E+02 -0.60581E+07
 0.59599995E+02 -0.63392E+07
 0.59649998E+02 -0.65455E+07
 0.59699997E+02 -0.66882E+07
 0.59749996E+02 -0.67162E+07
 0.59799995E+02 -0.66809E+07
 0.59849995E+02 -0.66982E+07
 0.59899998E+02 -0.66427E+07
 0.59949997E+02 -0.61903E+07
 0.59999996E+02 -0.54907E+07
 0.60049995E+02 -0.49342E+07
 0.60099995E+02 -0.46301E+07
 0.60149998E+02 -0.46485E+07
 0.60199997E+02 -0.46954E+07
 0.60249996E+02 -0.46118E+07
 0.60299995E+02 -0.45355E+07
 0.60349995E+02 -0.44461E+07
 0.60399998E+02 -0.42429E+07
 0.60449997E+02 -0.41698E+07
 0.60499996E+02 -0.42413E+07
 0.60549995E+02 -0.44151E+07
 0.60599995E+02 -0.48037E+07
 0.60649998E+02 -0.51651E+07
 0.60699997E+02 -0.55637E+07
 0.60749996E+02 -0.59371E+07
 0.60799995E+02 -0.63257E+07
 0.60849995E+02 -0.66820E+07
 0.60899998E+02 -0.67296E+07
 0.60949997E+02 -0.67176E+07
 0.60999996E+02 -0.67319E+07
 0.61049995E+02 -0.67233E+07
 0.61099995E+02 -0.67313E+07
 0.61149998E+02 -0.67198E+07
 0.61199997E+02 -0.67277E+07
 0.61249996E+02 -0.67186E+07
 0.61299995E+02 -0.67270E+07
 0.61349995E+02 -0.67184E+07
 0.61399998E+02 -0.67244E+07
 0.61449997E+02 -0.67181E+07
 0.61499996E+02 -0.67190E+07
 0.61549995E+02 -0.67151E+07
 0.61599995E+02 -0.67124E+07
 0.61649998E+02 -0.66827E+07
 0.61699997E+02 -0.59258E+07
 0.61749996E+02 -0.56040E+07
 0.61799995E+02 -0.60441E+07
 0.61849995E+02 -0.61215E+07
 0.61899998E+02 -0.61464E+07
 0.61949997E+02 -0.61596E+07
 0.61999996E+02 -0.61605E+07
 0.62049995E+02 -0.62829E+07
 0.62099998E+02 -0.65633E+07
 0.62149994E+02 -0.67206E+07
 0.62199997E+02 -0.67064E+07
 0.62249992E+02 -0.67126E+07
 0.62299995E+02 -0.67077E+07
 0.62349998E+02 -0.67112E+07
 0.62399994E+02 -0.67087E+07
 0.62449997E+02 -0.67112E+07
 0.62499992E+02 -0.67102E+07
 0.62549995E+02 -0.67112E+07
 0.62599998E+02 -0.67112E+07
 0.62649994E+02 -0.67120E+07
 0.62699997E+02 -0.67140E+07
 0.62749992E+02 -0.67156E+07
 0.62799995E+02 -0.67132E+07
 0.62849998E+02 -0.67096E+07
 0.62899994E+02 -0.67115E+07
 0.62949997E+02 -0.67104E+07
 0.62999992E+02 -0.67101E+07
 0.63049995E+02 -0.67090E+07
 0.63099998E+02 -0.67081E+07
 0.63149994E+02 -0.67073E+07
 0.63199997E+02 -0.67081E+07
 0.63249992E+02 -0.67087E+07
 0.63299995E+02 -0.67088E+07
 0.63349998E+02 -0.67088E+07
 0.63399994E+02 -0.67088E+07
 0.63449997E+02 -0.67087E+07
 0.63499992E+02 -0.67086E+07
 0.63549995E+02 -0.67086E+07
 0.63599998E+02 -0.67087E+07
 0.63649994E+02 -0.67088E+07
 0.63699997E+02 -0.67090E+07
 0.63749992E+02 -0.67091E+07
 0.63799995E+02 -0.67091E+07
 0.63849998E+02 -0.67094E+07
 0.63899994E+02 -0.67092E+07
 0.63949997E+02 -0.67092E+07
 0.63999992E+02 -0.67089E+07
 0.64049995E+02 -0.67086E+07
 0.64099998E+02 -0.67084E+07
 0.64149994E+02 -0.67089E+07
 0.64199997E+02 -0.67092E+07
 0.64249992E+02 -0.67088E+07
 0.64299995E+02 -0.67088E+07
 0.64349998E+02 -0.67089E+07
 0.64399994E+02 -0.67088E+07
 0.64449997E+02 -0.67088E+07
 0.64499992E+02 -0.67089E+07
 0.64549995E+02 -0.67089E+07
 0.64599998E+02 -0.67088E+07
 0.64649994E+02 -0.67087E+07
 0.64699997E+02 -0.67086E+07
 0.64749992E+02 -0.67088E+07
 0.64799995E+02 -0.67088E+07
 0.64849998E+02 -0.67088E+07
 0.64899994E+02 -0.67089E+07
 0.64949997E+02 -0.67090E+07
 0.64999992E+02 -0.67088E+07
 0.65049995E+02 -0.67089E+07
 0.65099998E+02 -0.67091E+07
 0.65149994E+02 -0.67092E+07
 0.65199997E+02 -0.67094E+07
 0.65249992E+02 -0.67096E+07
 0.65299995E+02 -0.67096E+07
 0.65349998E+02 -0.67096E+07
 0.65399994E+02 -0.67094E+07
 0.65449997E+02 -0.67091E+07
 0.65499992E+02 -0.67091E+07
 0.65549995E+02 -0.67096E+07
 0.65599998E+02 -0.67092E+07
 0.65649994E+02 -0.67089E+07
 0.65699997E+02 -0.67091E+07
 0.65749992E+02 -0.67091E+07
 0.65799995E+02 -0.67090E+07
 0.65849998E+02 -0.67090E+07
 0.65899994E+02 -0.67091E+07
 0.65949997E+02 -0.67091E+07
 0.65999992E+02 -0.67092E+07
 0.66049995E+02 -0.67091E+07
 0.66099998E+02 -0.67090E+07
 0.66149994E+02 -0.67091E+07
 0.66199997E+02 -0.67091E+07
 0.66249992E+02 -0.67091E+07
 0.66299995E+02 -0.67092E+07
 0.66349998E+02 -0.67093E+07
 0.66399994E+02 -0.67092E+07
 0.66449997E+02 -0.67092E+07
 0.66499992E+02 -0.67093E+07
 0.66549995E+02 -0.67092E+07
 0.66599998E+02 -0.67093E+07
 0.66649994E+02 -0.67095E+07
 0.66699997E+02 -0.67094E+07
 0.66749992E+02 -0.67093E+07
 0.66799995E+02 -0.67091E+07
 0.66849998E+02 -0.67090E+07
 0.66899994E+02 -0.67092E+07
 0.66949997E+02 -0.67093E+07
 0.66999992E+02 -0.67091E+07
 0.67049995E+02 -0.67091E+07
 0.67099998E+02 -0.67091E+07
 0.67149994E+02 -0.67089E+07
 0.67199997E+02 -0.67089E+07
 0.67249992E+02 -0.67089E+07
 0.67299995E+02 -0.67089E+07
 0.67349998E+02 -0.67090E+07
 0.67399994E+02 -0.67090E+07
 0.67449997E+02 -0.67090E+07
 0.67499992E+02 -0.67090E+07
 0.67549995E+02 -0.67090E+07
 0.67599998E+02 -0.67090E+07
 0.67649994E+02 -0.67093E+07
 0.67699997E+02 -0.67096E+07
 0.67749992E+02 -0.67093E+07
 0.67799995E+02 -0.67096E+07
 0.67849998E+02 -0.67098E+07
 0.67899994E+02 -0.67098E+07
 0.67949997E+02 -0.67098E+07
 0.67999992E+02 -0.67099E+07
 0.68049995E+02 -0.67096E+07
 0.68099998E+02 -0.67094E+07
 0.68149994E+02 -0.67096E+07
 0.68199997E+02 -0.67092E+07
 0.68249992E+02 -0.67094E+07
 0.68299995E+02 -0.67093E+07
 0.68349998E+02 -0.67093E+07
 0.68399994E+02 -0.67094E+07
 0.68449997E+02 -0.67094E+07
 0.68499992E+02 -0.67094E+07
 0.68549995E+02 -0.67094E+07
 0.68599998E+02 -0.67094E+07
 0.68649994E+02 -0.67094E+07
 0.68699997E+02 -0.67095E+07
 0.68749992E+02 -0.67095E+07
 0.68799995E+02 -0.67096E+07
 0.68849998E+02 -0.67096E+07
 0.68899994E+02 -0.67096E+07
 0.68949997E+02 -0.67096E+07
 0.68999992E+02 -0.67096E+07
 0.69049995E+02 -0.67095E+07
 0.69099998E+02 -0.67095E+07
 0.69149994E+02 -0.67095E+07
 0.69199997E+02 -0.67095E+07
 0.69249992E+02 -0.67095E+07
 0.69299995E+02 -0.67095E+07
 0.69349998E+02 -0.67096E+07
 0.69399994E+02 -0.67095E+07
 0.69449997E+02 -0.67095E+07
 0.69499992E+02 -0.67096E+07
 0.69549995E+02 -0.67096E+07
 0.69599998E+02 -0.67095E+07
 0.69649994E+02 -0.67095E+07
 0.69699997E+02 -0.67095E+07
 0.69749992E+02 -0.67094E+07
 0.69799995E+02 -0.67094E+07
 0.69849998E+02 -0.67095E+07
 0.69899994E+02 -0.67095E+07
 0.69949997E+02 -0.67095E+07
 0.69999992E+02 -0.67094E+07
 0.70049995E+02 -0.67093E+07
 0.70099998E+02 -0.67093E+07
 0.70149994E+02 -0.67093E+07
 0.70199997E+02 -0.67093E+07
 0.70249992E+02 -0.67095E+07
 0.70299995E+02 -0.67096E+07
 0.70349998E+02 -0.67095E+07
 0.70399994E+02 -0.67095E+07
 0.70449997E+02 -0.67095E+07
 0.70499992E+02 -0.67095E+07
 0.70549995E+02 -0.67097E+07
 0.70599998E+02 -0.67098E+07
 0.70649994E+02 -0.67098E+07
 0.70699997E+02 -0.67099E+07
 0.70749992E+02 -0.67098E+07
 0.70799995E+02 -0.67098E+07
 0.70849998E+02 -0.67097E+07
 0.70899994E+02 -0.67097E+07
 0.70949997E+02 -0.67097E+07
 0.70999992E+02 -0.67096E+07
 0.71049995E+02 -0.67096E+07
 0.71099998E+02 -0.67096E+07
 0.71149994E+02 -0.67096E+07
 0.71199997E+02 -0.67096E+07
 0.71249992E+02 -0.67096E+07
 0.71299995E+02 -0.67096E+07
 0.71349998E+02 -0.67095E+07
 0.71399994E+02 -0.67095E+07
 0.71449997E+02 -0.67095E+07
 0.71499992E+02 -0.67096E+07
 0.71549995E+02 -0.67095E+07
 0.71599998E+02 -0.67095E+07
 0.71649994E+02 -0.67095E+07
 0.71699997E+02 -0.67096E+07
 0.71749992E+02 -0.67096E+07
 0.71799995E+02 -0.67097E+07
 0.71849998E+02 -0.67097E+07
 0.71899994E+02 -0.67097E+07
 0.71949997E+02 -0.67096E+07
 0.71999992E+02 -0.67095E+07
 0.72049995E+02 -0.67095E+07
 0.72099998E+02 -0.67095E+07
 0.72149994E+02 -0.67095E+07
 0.72199997E+02 -0.67095E+07
 0.72249992E+02 -0.67094E+07
 0.72299995E+02 -0.67093E+07
 0.72349998E+02 -0.67093E+07
 0.72399994E+02 -0.67093E+07
 0.72449997E+02 -0.67094E+07
 0.72499992E+02 -0.67093E+07
 0.72549995E+02 -0.67094E+07
 0.72599998E+02 -0.67094E+07
 0.72649994E+02 -0.67095E+07
 0.72699997E+02 -0.67096E+07
 0.72749992E+02 -0.67096E+07
 0.72799995E+02 -0.67096E+07
 0.72849998E+02 -0.67096E+07
 0.72899994E+02 -0.67096E+07
 0.72949997E+02 -0.67096E+07
 0.72999992E+02 -0.67095E+07
 0.73049995E+02 -0.67095E+07
 0.73099998E+02 -0.67095E+07
 0.73149994E+02 -0.67095E+07
 0.73199997E+02 -0.67096E+07
 0.73249992E+02 -0.67097E+07
 0.73299995E+02 -0.67096E+07
 0.73349998E+02 -0.67097E+07
 0.73399994E+02 -0.67097E+07
 0.73449997E+02 -0.67097E+07
 0.73499992E+02 -0.67098E+07
 0.73549995E+02 -0.67097E+07
 0.73599998E+02 -0.67097E+07
 0.73649994E+02 -0.67095E+07
 0.73699997E+02 -0.67095E+07
 0.73749992E+02 -0.67095E+07
 0.73799995E+02 -0.67095E+07
 0.73849998E+02 -0.67094E+07
 0.73899994E+02 -0.67094E+07
 0.73949997E+02 -0.67095E+07
 0.73999992E+02 -0.67095E+07
 0.74049995E+02 -0.67096E+07
 0.74099998E+02 -0.67097E+07
 0.74149994E+02 -0.67097E+07
 0.74199997E+02 -0.67098E+07
 0.74249992E+02 -0.67099E+07
 0.74299995E+02 -0.67099E+07
 0.74349998E+02 -0.67098E+07
 0.74399994E+02 -0.67098E+07
 0.74449997E+02 -0.67097E+07
 0.74499992E+02 -0.67097E+07
 0.74549995E+02 -0.67096E+07
 0.74599998E+02 -0.67097E+07
 0.74649994E+02 -0.67097E+07
 0.74699997E+02 -0.67096E+07
 0.74749992E+02 -0.67095E+07
 0.74799995E+02 -0.67095E+07
 0.74849998E+02 -0.67094E+07
 0.74899994E+02 -0.67093E+07
 0.74949997E+02 -0.67093E+07
 0.74999992E+02 -0.67093E+07
 0.75049995E+02 -0.67093E+07
 0.75099998E+02 -0.67093E+07
 0.75149994E+02 -0.67093E+07
 0.75199997E+02 -0.67093E+07
 0.75249992E+02 -0.67093E+07
 0.75299995E+02 -0.67093E+07
 0.75349998E+02 -0.67093E+07
 0.75399994E+02 -0.67094E+07
 0.75449997E+02 -0.67093E+07
 0.75499992E+02 -0.67094E+07
 0.75549995E+02 -0.67095E+07
 0.75599998E+02 -0.67096E+07
 0.75649994E+02 -0.67097E+07
 0.75699997E+02 -0.67099E+07
 0.75749992E+02 -0.67100E+07
 0.75799995E+02 -0.67097E+07
 0.75849998E+02 -0.67098E+07
 0.75899994E+02 -0.67098E+07
 0.75949997E+02 -0.67098E+07
 0.75999992E+02 -0.67098E+07
 0.76049995E+02 -0.67096E+07
 0.76099998E+02 -0.67096E+07
 0.76149994E+02 -0.67096E+07
 0.76199997E+02 -0.67095E+07
 0.76249992E+02 -0.67094E+07
 0.76299995E+02 -0.67094E+07
 0.76349998E+02 -0.67094E+07
 0.76399994E+02 -0.67094E+07
 0.76449997E+02 -0.67094E+07
 0.76499992E+02 -0.67094E+07
 0.76549995E+02 -0.67094E+07
 0.76599998E+02 -0.67095E+07
 0.76649994E+02 -0.67096E+07
 0.76699997E+02 -0.67097E+07
 0.76749992E+02 -0.67097E+07
 0.76799995E+02 -0.67097E+07
 0.76849998E+02 -0.67097E+07
 0.76899994E+02 -0.67097E+07
 0.76949997E+02 -0.67098E+07
 0.76999992E+02 -0.67098E+07
 0.77049995E+02 -0.67097E+07
 0.77099998E+02 -0.67096E+07
 0.77149994E+02 -0.67095E+07
 0.77199997E+02 -0.67095E+07
 0.77249992E+02 -0.67095E+07
 0.77299995E+02 -0.67095E+07
 0.77349998E+02 -0.67094E+07
 0.77399994E+02 -0.67094E+07
 0.77449997E+02 -0.67094E+07
 0.77499992E+02 -0.67093E+07
 0.77549995E+02 -0.67092E+07
 0.77599998E+02 -0.67093E+07
 0.77649994E+02 -0.67093E+07
 0.77699997E+02 -0.67093E+07
 0.77749992E+02 -0.67094E+07
 0.77799995E+02 -0.67094E+07
 0.77849998E+02 -0.67095E+07
 0.77899994E+02 -0.67095E+07
 0.77949997E+02 -0.67097E+07
 0.77999992E+02 -0.67098E+07
 0.78049995E+02 -0.67099E+07
 0.78099998E+02 -0.67100E+07
 0.78149994E+02 -0.67100E+07
 0.78199997E+02 -0.67100E+07
 0.78249992E+02 -0.67099E+07
 0.78299995E+02 -0.67099E+07
 0.78349998E+02 -0.67097E+07
 0.78399994E+02 -0.67096E+07
 0.78449997E+02 -0.67095E+07
 0.78499992E+02 -0.67095E+07
 0.78549995E+02 -0.67095E+07
 0.78599998E+02 -0.67095E+07
 0.78649994E+02 -0.67095E+07
 0.78699997E+02 -0.67094E+07
 0.78749992E+02 -0.67094E+07
 0.78799995E+02 -0.67094E+07
 0.78849998E+02 -0.67094E+07
 0.78899994E+02 -0.67094E+07
 0.78949997E+02 -0.67094E+07
 0.78999992E+02 -0.67094E+07
 0.79049995E+02 -0.67094E+07
 0.79099998E+02 -0.67094E+07
 0.79149994E+02 -0.67095E+07
 0.79199997E+02 -0.67095E+07
 0.79249992E+02 -0.67095E+07
 0.79299995E+02 -0.67095E+07
 0.79349998E+02 -0.67095E+07
 0.79399994E+02 -0.67097E+07
 0.79449997E+02 -0.67096E+07
 0.79499992E+02 -0.67095E+07
 0.79549995E+02 -0.67097E+07
 0.79599998E+02 -0.67095E+07
 0.79649994E+02 -0.67097E+07
 0.79699997E+02 -0.67097E+07
 0.79749992E+02 -0.67096E+07
 0.79799995E+02 -0.67096E+07
 0.79849998E+02 -0.67095E+07
 0.79899994E+02 -0.67094E+07
 0.79949997E+02 -0.67094E+07
 0.79999992E+02 -0.67094E+07
 0.80049995E+02 -0.67093E+07
 0.80099998E+02 -0.67093E+07
 0.80149994E+02 -0.67092E+07
 0.80199997E+02 -0.67092E+07
 0.80249992E+02 -0.67092E+07
 0.80299995E+02 -0.67092E+07
 0.80349998E+02 -0.67093E+07
 0.80399994E+02 -0.67093E+07
 0.80449997E+02 -0.67094E+07
 0.80499992E+02 -0.67094E+07
 0.80549995E+02 -0.67096E+07
 0.80599998E+02 -0.67097E+07
 0.80649994E+02 -0.67098E+07
 0.80699997E+02 -0.67100E+07
 0.80749992E+02 -0.67100E+07
 0.80799995E+02 -0.67103E+07
 0.80849998E+02 -0.67103E+07
 0.80899994E+02 -0.67104E+07
 0.80949997E+02 -0.67100E+07
 0.80999992E+02 -0.67097E+07
 0.81049995E+02 -0.67097E+07
 0.81099998E+02 -0.67098E+07
 0.81149994E+02 -0.67097E+07
 0.81199997E+02 -0.67095E+07
 0.81249992E+02 -0.67096E+07
 0.81299995E+02 -0.67095E+07
 0.81349998E+02 -0.67094E+07
 0.81399994E+02 -0.67094E+07
 0.81449997E+02 -0.67093E+07
 0.81499992E+02 -0.67092E+07
 0.81549995E+02 -0.67093E+07
 0.81599998E+02 -0.67092E+07
 0.81649994E+02 -0.67091E+07
 0.81699997E+02 -0.67091E+07
 0.81749992E+02 -0.67091E+07
 0.81799995E+02 -0.67091E+07
 0.81849998E+02 -0.67091E+07
 0.81899994E+02 -0.67093E+07
 0.81949997E+02 -0.67095E+07
 0.81999992E+02 -0.67097E+07
 0.82049995E+02 -0.67098E+07
 0.82099998E+02 -0.67101E+07
 0.82149994E+02 -0.67100E+07
 0.82199997E+02 -0.67099E+07
 0.82249992E+02 -0.67101E+07
 0.82299995E+02 -0.67100E+07
 0.82349998E+02 -0.67099E+07
 0.82399994E+02 -0.67097E+07
 0.82449997E+02 -0.67098E+07
 0.82499992E+02 -0.67098E+07
 0.82549995E+02 -0.67096E+07
 0.82599998E+02 -0.67095E+07
 0.82649994E+02 -0.67095E+07
 0.82699997E+02 -0.67095E+07
 0.82749992E+02 -0.67095E+07
 0.82799995E+02 -0.67094E+07
 0.82849998E+02 -0.67094E+07
 0.82899994E+02 -0.67094E+07
 0.82949997E+02 -0.67094E+07
 0.82999992E+02 -0.67093E+07
 0.83049995E+02 -0.67093E+07
 0.83099998E+02 -0.67093E+07
 0.83149994E+02 -0.67093E+07
 0.83199997E+02 -0.67094E+07
 0.83249992E+02 -0.67094E+07
 0.83299995E+02 -0.67094E+07
 0.83349998E+02 -0.67095E+07
 0.83399994E+02 -0.67095E+07
 0.83449997E+02 -0.67095E+07
 0.83499992E+02 -0.67096E+07
 0.83549995E+02 -0.67095E+07
 0.83599998E+02 -0.67095E+07
 0.83649994E+02 -0.67096E+07
 0.83699997E+02 -0.67096E+07
 0.83749992E+02 -0.67095E+07
 0.83799995E+02 -0.67096E+07
 0.83849998E+02 -0.67096E+07
 0.83899994E+02 -0.67095E+07
 0.83949997E+02 -0.67096E+07
 0.83999992E+02 -0.67095E+07
 0.84049995E+02 -0.67094E+07
 0.84099998E+02 -0.67094E+07
 0.84149994E+02 -0.67094E+07
 0.84199997E+02 -0.67094E+07
 0.84249992E+02 -0.67094E+07
 0.84299995E+02 -0.67095E+07
 0.84349998E+02 -0.67095E+07
 0.84399994E+02 -0.67095E+07
 0.84449997E+02 -0.67096E+07
 0.84499992E+02 -0.67096E+07
 0.84549995E+02 -0.67096E+07
 0.84599998E+02 -0.67096E+07
 0.84649994E+02 -0.67096E+07
 0.84699997E+02 -0.67096E+07
 0.84749992E+02 -0.67096E+07
 0.84799995E+02 -0.67095E+07
 0.84849998E+02 -0.67095E+07
 0.84899994E+02 -0.67095E+07
 0.84949997E+02 -0.67094E+07
 0.84999992E+02 -0.67094E+07
 0.85049995E+02 -0.67094E+07
 0.85099998E+02 -0.67094E+07
 0.85149994E+02 -0.67093E+07
 0.85199997E+02 -0.67092E+07
 0.85249992E+02 -0.67092E+07
 0.85299995E+02 -0.67092E+07
 0.85349998E+02 -0.67092E+07
 0.85399994E+02 -0.67092E+07
 0.85449997E+02 -0.67091E+07
 0.85499992E+02 -0.67091E+07
 0.85549995E+02 -0.67091E+07
 0.85599998E+02 -0.67092E+07
 0.85649994E+02 -0.67093E+07
 0.85699997E+02 -0.67093E+07
 0.85749992E+02 -0.67095E+07
 0.85799995E+02 -0.67095E+07
 0.85849998E+02 -0.67096E+07
 0.85899994E+02 -0.67097E+07
 0.85949997E+02 -0.67098E+07
 0.85999992E+02 -0.67099E+07
 0.86049995E+02 -0.67099E+07
 0.86099998E+02 -0.67099E+07
 0.86149994E+02 -0.67098E+07
 0.86199997E+02 -0.67097E+07
 0.86249992E+02 -0.67096E+07
 0.86299995E+02 -0.67096E+07
 0.86349998E+02 -0.67096E+07
 0.86399994E+02 -0.67096E+07
 0.86449997E+02 -0.67095E+07
 0.86499992E+02 -0.67095E+07
 0.86549995E+02 -0.67094E+07
 0.86599998E+02 -0.67093E+07
 0.86649994E+02 -0.67093E+07
 0.86699997E+02 -0.67093E+07
 0.86749992E+02 -0.67092E+07
 0.86799995E+02 -0.67092E+07
 0.86849998E+02 -0.67092E+07
 0.86899994E+02 -0.67092E+07
 0.86949997E+02 -0.67092E+07
 0.86999992E+02 -0.67092E+07
 0.87049995E+02 -0.67092E+07
 0.87099998E+02 -0.67093E+07
 0.87149994E+02 -0.67093E+07
 0.87199997E+02 -0.67093E+07
 0.87249992E+02 -0.67093E+07
 0.87299995E+02 -0.67094E+07
 0.87349998E+02 -0.67094E+07
 0.87399994E+02 -0.67094E+07
 0.87449997E+02 -0.67095E+07
 0.87499992E+02 -0.67095E+07
 0.87549995E+02 -0.67095E+07
 0.87599991E+02 -0.67097E+07
 0.87649994E+02 -0.67097E+07
 0.87699997E+02 -0.67097E+07
 0.87749992E+02 -0.67098E+07
 0.87799995E+02 -0.67097E+07
 0.87849991E+02 -0.67096E+07
 0.87899994E+02 -0.67096E+07
 0.87949997E+02 -0.67095E+07
 0.87999992E+02 -0.67094E+07
 0.88049995E+02 -0.67093E+07
 0.88099991E+02 -0.67093E+07
 0.88149994E+02 -0.67092E+07
 0.88199997E+02 -0.67092E+07
 0.88249992E+02 -0.67092E+07
 0.88299995E+02 -0.67093E+07
 0.88349991E+02 -0.67093E+07
 0.88399994E+02 -0.67093E+07
 0.88449997E+02 -0.67094E+07
 0.88499992E+02 -0.67093E+07
 0.88549995E+02 -0.67094E+07
 0.88599991E+02 -0.67095E+07
 0.88649994E+02 -0.67096E+07
 0.88699997E+02 -0.67096E+07
 0.88749992E+02 -0.67096E+07
 0.88799995E+02 -0.67097E+07
 0.88849991E+02 -0.67097E+07
 0.88899994E+02 -0.67097E+07
 0.88949997E+02 -0.67097E+07
 0.88999992E+02 -0.67097E+07
 0.89049995E+02 -0.67096E+07
 0.89099991E+02 -0.67095E+07
 0.89149994E+02 -0.67094E+07
 0.89199997E+02 -0.67094E+07
 0.89249992E+02 -0.67093E+07
 0.89299995E+02 -0.67092E+07
 0.89349991E+02 -0.67092E+07
 0.89399994E+02 -0.67091E+07
 0.89449997E+02 -0.67091E+07
 0.89499992E+02 -0.67091E+07
 0.89549995E+02 -0.67092E+07
 0.89599991E+02 -0.67091E+07
 0.89649994E+02 -0.67091E+07
 0.89699997E+02 -0.67092E+07
 0.89749992E+02 -0.67092E+07
 0.89799995E+02 -0.67092E+07
 0.89849991E+02 -0.67092E+07
 0.89899994E+02 -0.67092E+07
 0.89949997E+02 -0.67092E+07
 0.89999992E+02 -0.67093E+07
 0.90049995E+02 -0.67093E+07
 0.90099991E+02 -0.67093E+07
 0.90149994E+02 -0.67094E+07
 0.90199997E+02 -0.67095E+07
 0.90249992E+02 -0.67096E+07
 0.90299995E+02 -0.67096E+07
 0.90349991E+02 -0.67095E+07
 0.90399994E+02 -0.67095E+07
 0.90449997E+02 -0.67094E+07
 0.90499992E+02 -0.67093E+07
 0.90549995E+02 -0.67093E+07
 0.90599991E+02 -0.67093E+07
 0.90649994E+02 -0.67093E+07
 0.90699997E+02 -0.67093E+07
 0.90749992E+02 -0.67092E+07
 0.90799995E+02 -0.67091E+07
 0.90849991E+02 -0.67091E+07
 0.90899994E+02 -0.67091E+07
 0.90949997E+02 -0.67092E+07
 0.90999992E+02 -0.67092E+07
 0.91049995E+02 -0.67092E+07
 0.91099991E+02 -0.67092E+07
 0.91149994E+02 -0.67092E+07
 0.91199997E+02 -0.67092E+07
 0.91249992E+02 -0.67092E+07
 0.91299995E+02 -0.67093E+07
 0.91349991E+02 -0.67093E+07
 0.91399994E+02 -0.67093E+07
 0.91449997E+02 -0.67093E+07
 0.91499992E+02 -0.67093E+07
 0.91549995E+02 -0.67093E+07
 0.91599991E+02 -0.67094E+07
 0.91649994E+02 -0.67094E+07
 0.91699997E+02 -0.67094E+07
 0.91749992E+02 -0.67094E+07
 0.91799995E+02 -0.67094E+07
 0.91849991E+02 -0.67093E+07
 0.91899994E+02 -0.67093E+07
 0.91949997E+02 -0.67092E+07
 0.91999992E+02 -0.67092E+07
 0.92049995E+02 -0.67091E+07
 0.92099991E+02 -0.67091E+07
 0.92149994E+02 -0.67091E+07
 0.92199997E+02 -0.67091E+07
 0.92249992E+02 -0.67091E+07
 0.92299995E+02 -0.67091E+07
 0.92349991E+02 -0.67091E+07
 0.92399994E+02 -0.67091E+07
 0.92449997E+02 -0.67091E+07
 0.92499992E+02 -0.67091E+07
 0.92549995E+02 -0.67091E+07
 0.92599991E+02 -0.67091E+07
 0.92649994E+02 -0.67091E+07
 0.92699997E+02 -0.67092E+07
 0.92749992E+02 -0.67092E+07
 0.92799995E+02 -0.67093E+07
 0.92849991E+02 -0.67093E+07
 0.92899994E+02 -0.67093E+07
 0.92949997E+02 -0.67093E+07
 0.92999992E+02 -0.67093E+07
 0.93049995E+02 -0.67093E+07
 0.93099991E+02 -0.67092E+07
 0.93149994E+02 -0.67092E+07
 0.93199997E+02 -0.67092E+07
 0.93249992E+02 -0.67092E+07
 0.93299995E+02 -0.67092E+07
 0.93349991E+02 -0.67092E+07
 0.93399994E+02 -0.67092E+07
 0.93449997E+02 -0.67092E+07
 0.93499992E+02 -0.67092E+07
 0.93549995E+02 -0.67092E+07
 0.93599991E+02 -0.67091E+07
 0.93649994E+02 -0.67091E+07
 0.93699997E+02 -0.67091E+07
 0.93749992E+02 -0.67090E+07
 0.93799995E+02 -0.67090E+07
 0.93849991E+02 -0.67090E+07
 0.93899994E+02 -0.67090E+07
 0.93949997E+02 -0.67091E+07
 0.93999992E+02 -0.67091E+07
 0.94049995E+02 -0.67090E+07
 0.94099991E+02 -0.67090E+07
 0.94149994E+02 -0.67090E+07
 0.94199997E+02 -0.67090E+07
 0.94249992E+02 -0.67091E+07
 0.94299995E+02 -0.67091E+07
 0.94349991E+02 -0.67092E+07
 0.94399994E+02 -0.67091E+07
 0.94449997E+02 -0.67091E+07
 0.94499992E+02 -0.67092E+07
 0.94549995E+02 -0.67092E+07
 0.94599991E+02 -0.67093E+07
 0.94649994E+02 -0.67092E+07
 0.94699997E+02 -0.67092E+07
 0.94749992E+02 -0.67092E+07
 0.94799995E+02 -0.67091E+07
 0.94849991E+02 -0.67091E+07
 0.94899994E+02 -0.67090E+07
 0.94949997E+02 -0.67091E+07
 0.94999992E+02 -0.67091E+07
 0.95049995E+02 -0.67091E+07
 0.95099991E+02 -0.67091E+07
 0.95149994E+02 -0.67090E+07
 0.95199997E+02 -0.67090E+07
 0.95249992E+02 -0.67090E+07
 0.95299995E+02 -0.67090E+07
 0.95349991E+02 -0.67090E+07
 0.95399994E+02 -0.67090E+07
 0.95449997E+02 -0.67090E+07
 0.95499992E+02 -0.67090E+07
 0.95549995E+02 -0.67090E+07
 0.95599991E+02 -0.67089E+07
 0.95649994E+02 -0.67089E+07
 0.95699997E+02 -0.67090E+07
 0.95749992E+02 -0.67090E+07
 0.95799995E+02 -0.67090E+07
 0.95849991E+02 -0.67090E+07
 0.95899994E+02 -0.67090E+07
 0.95949997E+02 -0.67091E+07
 0.95999992E+02 -0.67090E+07
 0.96049995E+02 -0.67091E+07
 0.96099991E+02 -0.67091E+07
 0.96149994E+02 -0.67090E+07
 0.96199997E+02 -0.67090E+07
 0.96249992E+02 -0.67090E+07
 0.96299995E+02 -0.67090E+07
 0.96349991E+02 -0.67089E+07
 0.96399994E+02 -0.67089E+07
 0.96449997E+02 -0.67091E+07
 0.96499992E+02 -0.67091E+07
 0.96549995E+02 -0.67091E+07
 0.96599991E+02 -0.67092E+07
 0.96649994E+02 -0.67091E+07
 0.96699997E+02 -0.67092E+07
 0.96749992E+02 -0.67092E+07
 0.96799995E+02 -0.67092E+07
 0.96849991E+02 -0.67092E+07
 0.96899994E+02 -0.67091E+07
 0.96949997E+02 -0.67091E+07
 0.96999992E+02 -0.67090E+07
 0.97049995E+02 -0.67090E+07
 0.97099991E+02 -0.67090E+07
 0.97149994E+02 -0.67089E+07
 0.97199997E+02 -0.67090E+07
 0.97249992E+02 -0.67090E+07
 0.97299995E+02 -0.67089E+07
 0.97349991E+02 -0.67089E+07
 0.97399994E+02 -0.67089E+07
 0.97449997E+02 -0.67089E+07
 0.97499992E+02 -0.67089E+07
 0.97549995E+02 -0.67089E+07
 0.97599991E+02 -0.67089E+07
 0.97649994E+02 -0.67089E+07
 0.97699997E+02 -0.67088E+07
 0.97749992E+02 -0.67088E+07
 0.97799995E+02 -0.67088E+07
 0.97849991E+02 -0.67089E+07
 0.97899994E+02 -0.67089E+07
 0.97949997E+02 -0.67089E+07
 0.97999992E+02 -0.67089E+07
