-0.20000000E+01  0.36543E+06
-0.19500000E+01  0.36164E+06
-0.19000000E+01  0.35914E+06
-0.18500000E+01  0.35375E+06
-0.18000000E+01  0.34733E+06
-0.17500000E+01  0.34041E+06
-0.17000000E+01  0.33357E+06
-0.16500001E+01  0.32718E+06
-0.16000000E+01  0.32136E+06
-0.15500000E+01  0.31619E+06
-0.15000000E+01  0.31143E+06
-0.14500000E+01  0.30672E+06
-0.14000001E+01  0.30173E+06
-0.13500000E+01  0.29654E+06
-0.13000001E+01  0.29142E+06
-0.12500000E+01  0.28651E+06
-0.12000000E+01  0.28180E+06
-0.11500001E+01  0.27717E+06
-0.11000000E+01  0.27261E+06
-0.10500001E+01  0.26829E+06
-0.10000000E+01  0.26443E+06
-0.95000005E+00  0.26108E+06
-0.90000010E+00  0.25833E+06
-0.85000002E+00  0.25636E+06
-0.80000007E+00  0.25536E+06
-0.75000012E+00  0.25534E+06
-0.70000005E+00  0.25613E+06
-0.65000010E+00  0.25764E+06
-0.60000014E+00  0.25981E+06
-0.55000007E+00  0.26271E+06
-0.50000012E+00  0.26643E+06
-0.45000005E+00  0.27105E+06
-0.40000010E+00  0.27648E+06
-0.35000014E+00  0.28257E+06
-0.30000007E+00  0.28932E+06
-0.25000012E+00  0.29657E+06
-0.20000005E+00  0.30417E+06
-0.15000010E+00  0.31203E+06
-0.10000014E+00  0.31990E+06
-0.50000072E-01  0.32750E+06
-0.11920929E-06  0.33461E+06
 0.49999952E-01  0.34097E+06
 0.99999905E-01  0.34640E+06
 0.14999986E+00  0.35089E+06
 0.19999981E+00  0.35446E+06
 0.24999976E+00  0.35707E+06
 0.29999995E+00  0.35864E+06
 0.34999990E+00  0.35935E+06
 0.39999986E+00  0.35929E+06
 0.44999981E+00  0.35839E+06
 0.49999976E+00  0.35653E+06
 0.54999995E+00  0.35370E+06
 0.59999990E+00  0.35004E+06
 0.64999986E+00  0.34575E+06
 0.69999981E+00  0.34118E+06
 0.74999976E+00  0.33673E+06
 0.79999971E+00  0.33271E+06
 0.84999990E+00  0.32930E+06
 0.89999986E+00  0.32679E+06
 0.94999981E+00  0.32533E+06
 0.99999976E+00  0.32492E+06
 0.10499997E+01  0.32540E+06
 0.10999999E+01  0.32642E+06
 0.11499999E+01  0.32749E+06
 0.11999998E+01  0.32808E+06
 0.12499998E+01  0.32816E+06
 0.12999997E+01  0.32785E+06
 0.13499999E+01  0.32713E+06
 0.13999999E+01  0.32605E+06
 0.14499998E+01  0.32462E+06
 0.14999998E+01  0.32288E+06
 0.15499997E+01  0.32105E+06
 0.15999999E+01  0.31935E+06
 0.16499999E+01  0.31791E+06
 0.16999998E+01  0.31691E+06
 0.17499998E+01  0.31662E+06
 0.17999997E+01  0.31700E+06
 0.18499997E+01  0.31781E+06
 0.18999999E+01  0.31888E+06
 0.19499998E+01  0.31999E+06
 0.19999998E+01  0.32096E+06
 0.20499997E+01  0.32147E+06
 0.20999999E+01  0.32119E+06
 0.21499996E+01  0.31988E+06
 0.21999998E+01  0.31759E+06
 0.22499995E+01  0.31460E+06
 0.22999997E+01  0.31114E+06
 0.23499999E+01  0.30737E+06
 0.23999996E+01  0.30332E+06
 0.24499998E+01  0.29907E+06
 0.24999995E+01  0.29456E+06
 0.25499997E+01  0.28977E+06
 0.25999999E+01  0.28490E+06
 0.26499996E+01  0.28041E+06
 0.26999998E+01  0.27670E+06
 0.27499995E+01  0.27402E+06
 0.27999997E+01  0.27243E+06
 0.28499999E+01  0.27157E+06
 0.28999996E+01  0.27107E+06
 0.29499998E+01  0.27057E+06
 0.29999995E+01  0.27002E+06
 0.30499997E+01  0.26958E+06
 0.30999999E+01  0.26938E+06
 0.31499996E+01  0.26942E+06
 0.31999998E+01  0.26975E+06
 0.32499995E+01  0.27036E+06
 0.32999997E+01  0.27118E+06
 0.33499999E+01  0.27208E+06
 0.33999996E+01  0.27294E+06
 0.34499998E+01  0.27395E+06
 0.34999995E+01  0.27520E+06
 0.35499997E+01  0.27667E+06
 0.35999994E+01  0.27823E+06
 0.36499996E+01  0.27974E+06
 0.36999998E+01  0.28104E+06
 0.37499995E+01  0.28205E+06
 0.37999997E+01  0.28283E+06
 0.38499994E+01  0.28343E+06
 0.38999996E+01  0.28396E+06
 0.39499998E+01  0.28424E+06
 0.39999995E+01  0.28394E+06
 0.40499997E+01  0.28286E+06
 0.40999994E+01  0.28098E+06
 0.41499996E+01  0.27827E+06
 0.41999998E+01  0.27477E+06
 0.42499995E+01  0.27067E+06
 0.42999997E+01  0.26634E+06
 0.43499994E+01  0.26232E+06
 0.43999996E+01  0.25903E+06
 0.44499998E+01  0.25662E+06
 0.44999995E+01  0.25524E+06
 0.45499997E+01  0.25516E+06
 0.45999994E+01  0.25647E+06
 0.46499996E+01  0.25904E+06
 0.46999998E+01  0.26256E+06
 0.47499995E+01  0.26652E+06
 0.47999997E+01  0.27030E+06
 0.48499994E+01  0.27336E+06
 0.48999996E+01  0.27545E+06
 0.49499998E+01  0.27667E+06
 0.49999995E+01  0.27726E+06
 0.50499997E+01  0.27757E+06
 0.50999994E+01  0.27777E+06
 0.51499996E+01  0.27788E+06
 0.51999998E+01  0.27782E+06
 0.52499995E+01  0.27741E+06
 0.52999997E+01  0.27668E+06
 0.53499994E+01  0.27573E+06
 0.53999996E+01  0.27460E+06
 0.54499993E+01  0.27317E+06
 0.54999995E+01  0.27141E+06
 0.55499997E+01  0.26963E+06
 0.55999994E+01  0.26810E+06
 0.56499996E+01  0.26706E+06
 0.56999993E+01  0.26679E+06
 0.57499995E+01  0.26732E+06
 0.57999997E+01  0.26834E+06
 0.58499994E+01  0.26952E+06
 0.58999996E+01  0.27072E+06
 0.59499993E+01  0.27187E+06
 0.59999995E+01  0.27284E+06
 0.60499992E+01  0.27356E+06
 0.60999994E+01  0.27421E+06
 0.61499996E+01  0.27498E+06
 0.61999998E+01  0.27600E+06
 0.62499990E+01  0.27720E+06
 0.62999992E+01  0.27850E+06
 0.63499994E+01  0.27981E+06
 0.63999996E+01  0.28105E+06
 0.64499998E+01  0.28242E+06
 0.64999990E+01  0.28412E+06
 0.65499992E+01  0.28629E+06
 0.65999994E+01  0.28885E+06
 0.66499996E+01  0.29157E+06
 0.66999998E+01  0.29450E+06
 0.67499990E+01  0.29789E+06
 0.67999992E+01  0.30182E+06
 0.68499994E+01  0.30614E+06
 0.68999996E+01  0.31058E+06
 0.69499998E+01  0.31472E+06
 0.69999990E+01  0.31800E+06
 0.70499992E+01  0.32001E+06
 0.70999994E+01  0.32066E+06
 0.71499996E+01  0.32014E+06
 0.71999998E+01  0.31858E+06
 0.72499990E+01  0.31603E+06
 0.72999992E+01  0.31246E+06
 0.73499994E+01  0.30777E+06
 0.73999996E+01  0.30191E+06
 0.74499998E+01  0.29501E+06
 0.74999990E+01  0.28758E+06
 0.75499992E+01  0.28004E+06
 0.75999994E+01  0.27255E+06
 0.76499996E+01  0.26500E+06
 0.76999998E+01  0.25753E+06
 0.77499990E+01  0.25048E+06
 0.77999992E+01  0.24414E+06
 0.78499994E+01  0.23880E+06
 0.78999996E+01  0.23445E+06
 0.79499998E+01  0.23096E+06
 0.79999990E+01  0.22822E+06
 0.80499992E+01  0.22610E+06
 0.80999994E+01  0.22457E+06
 0.81499996E+01  0.22366E+06
 0.81999998E+01  0.22345E+06
 0.82499990E+01  0.22411E+06
 0.82999992E+01  0.22563E+06
 0.83499994E+01  0.22787E+06
 0.83999996E+01  0.23067E+06
 0.84499998E+01  0.23396E+06
 0.84999990E+01  0.23762E+06
 0.85499992E+01  0.24142E+06
 0.85999994E+01  0.24520E+06
 0.86499996E+01  0.24880E+06
 0.86999998E+01  0.25225E+06
 0.87499990E+01  0.25549E+06
 0.87999992E+01  0.25836E+06
 0.88499994E+01  0.26086E+06
 0.88999996E+01  0.26319E+06
 0.89499998E+01  0.26548E+06
 0.89999990E+01  0.26767E+06
 0.90499992E+01  0.26959E+06
 0.90999994E+01  0.27116E+06
 0.91499996E+01  0.27242E+06
 0.91999989E+01  0.27339E+06
 0.92499990E+01  0.27405E+06
 0.92999992E+01  0.27434E+06
 0.93499994E+01  0.27424E+06
 0.93999996E+01  0.27377E+06
 0.94499989E+01  0.27296E+06
 0.94999990E+01  0.27196E+06
 0.95499992E+01  0.27094E+06
 0.95999994E+01  0.26995E+06
 0.96499996E+01  0.26893E+06
 0.96999989E+01  0.26771E+06
 0.97499990E+01  0.26616E+06
 0.97999992E+01  0.26406E+06
 0.98499994E+01  0.26126E+06
 0.98999996E+01  0.25797E+06
 0.99499989E+01  0.25450E+06
 0.99999990E+01  0.25123E+06
 0.10049999E+02  0.24852E+06
 0.10099999E+02  0.24652E+06
 0.10150000E+02  0.24521E+06
 0.10199999E+02  0.24448E+06
 0.10249999E+02  0.24439E+06
 0.10299999E+02  0.24485E+06
 0.10349999E+02  0.24557E+06
 0.10400000E+02  0.24634E+06
 0.10449999E+02  0.24706E+06
 0.10499999E+02  0.24762E+06
 0.10549999E+02  0.24796E+06
 0.10599999E+02  0.24826E+06
 0.10650000E+02  0.24880E+06
 0.10699999E+02  0.24958E+06
 0.10749999E+02  0.25051E+06
 0.10799999E+02  0.25150E+06
 0.10849999E+02  0.25253E+06
 0.10900000E+02  0.25333E+06
 0.10949999E+02  0.25356E+06
 0.10999999E+02  0.25322E+06
 0.11049999E+02  0.25241E+06
 0.11099999E+02  0.25116E+06
 0.11150000E+02  0.24965E+06
 0.11199999E+02  0.24819E+06
 0.11249999E+02  0.24691E+06
 0.11299999E+02  0.24587E+06
 0.11349999E+02  0.24519E+06
 0.11400000E+02  0.24494E+06
 0.11449999E+02  0.24512E+06
 0.11499999E+02  0.24567E+06
 0.11549999E+02  0.24643E+06
 0.11599999E+02  0.24734E+06
 0.11650000E+02  0.24841E+06
 0.11699999E+02  0.24950E+06
 0.11749999E+02  0.25054E+06
 0.11799999E+02  0.25169E+06
 0.11849999E+02  0.25302E+06
 0.11900000E+02  0.25428E+06
 0.11949999E+02  0.25510E+06
 0.11999999E+02  0.25530E+06
 0.12049999E+02  0.25489E+06
 0.12099999E+02  0.25408E+06
 0.12150000E+02  0.25301E+06
 0.12199999E+02  0.25186E+06
 0.12249999E+02  0.25086E+06
 0.12299999E+02  0.25003E+06
 0.12349999E+02  0.24924E+06
 0.12400000E+02  0.24843E+06
 0.12449999E+02  0.24756E+06
 0.12499999E+02  0.24653E+06
 0.12549999E+02  0.24525E+06
 0.12599999E+02  0.24378E+06
 0.12649999E+02  0.24216E+06
 0.12699999E+02  0.24033E+06
 0.12749999E+02  0.23827E+06
 0.12799999E+02  0.23584E+06
 0.12849999E+02  0.23304E+06
 0.12899999E+02  0.22987E+06
 0.12949999E+02  0.22637E+06
 0.12999999E+02  0.22273E+06
 0.13049999E+02  0.21914E+06
 0.13099999E+02  0.21572E+06
 0.13149999E+02  0.21263E+06
 0.13199999E+02  0.21005E+06
 0.13249999E+02  0.20829E+06
 0.13299999E+02  0.20764E+06
 0.13349999E+02  0.20799E+06
 0.13399999E+02  0.20904E+06
 0.13449999E+02  0.21049E+06
 0.13499999E+02  0.21224E+06
 0.13549999E+02  0.21425E+06
 0.13599999E+02  0.21649E+06
 0.13649999E+02  0.21887E+06
 0.13699999E+02  0.22131E+06
 0.13749999E+02  0.22368E+06
 0.13799999E+02  0.22577E+06
 0.13849999E+02  0.22740E+06
 0.13899999E+02  0.22833E+06
 0.13949999E+02  0.22837E+06
 0.13999999E+02  0.22742E+06
 0.14049999E+02  0.22554E+06
 0.14099998E+02  0.22274E+06
 0.14150000E+02  0.21917E+06
 0.14199999E+02  0.21512E+06
 0.14249998E+02  0.21090E+06
 0.14299999E+02  0.20674E+06
 0.14349998E+02  0.20290E+06
 0.14400000E+02  0.19976E+06
 0.14449999E+02  0.19743E+06
 0.14499998E+02  0.19581E+06
 0.14549999E+02  0.19483E+06
 0.14599998E+02  0.19465E+06
 0.14650000E+02  0.19531E+06
 0.14699999E+02  0.19672E+06
 0.14749998E+02  0.19867E+06
 0.14799999E+02  0.20112E+06
 0.14849998E+02  0.20396E+06
 0.14900000E+02  0.20708E+06
 0.14949999E+02  0.21048E+06
 0.14999998E+02  0.21393E+06
 0.15049999E+02  0.21704E+06
 0.15099998E+02  0.21947E+06
 0.15150000E+02  0.22246E+06
 0.15199999E+02  0.22588E+06
 0.15249998E+02  0.22799E+06
 0.15299999E+02  0.22716E+06
 0.15349998E+02  0.22635E+06
 0.15400000E+02  0.22555E+06
 0.15449999E+02  0.22597E+06
 0.15499998E+02  0.22928E+06
 0.15549999E+02  0.23867E+06
 0.15599998E+02  0.25315E+06
 0.15650000E+02  0.27696E+06
 0.15699999E+02  0.31673E+06
 0.15749998E+02  0.36931E+06
 0.15799999E+02  0.42147E+06
 0.15849998E+02  0.44304E+06
 0.15900000E+02  0.41767E+06
 0.15949999E+02  0.32834E+06
 0.15999998E+02  0.20955E+06
 0.16049999E+02  0.13410E+06
 0.16099998E+02  0.20894E+06
 0.16150000E+02  0.45338E+06
 0.16199999E+02  0.76172E+06
 0.16249998E+02  0.98511E+06
 0.16299999E+02  0.10274E+07
 0.16349998E+02  0.88671E+06
 0.16400000E+02  0.67100E+06
 0.16449999E+02  0.54873E+06
 0.16499998E+02  0.48380E+06
 0.16549999E+02  0.39647E+06
 0.16599998E+02  0.20866E+06
 0.16650000E+02 -0.32567E+05
 0.16699999E+02 -0.16490E+06
 0.16749998E+02 -0.66824E+05
 0.16799999E+02  0.17381E+06
 0.16849998E+02  0.40643E+06
 0.16900000E+02  0.69745E+06
 0.16949999E+02  0.82768E+06
 0.16999998E+02  0.70235E+06
 0.17049999E+02  0.39039E+06
 0.17099998E+02 -0.14269E+06
 0.17150000E+02 -0.60489E+06
 0.17199999E+02 -0.78544E+06
 0.17249998E+02 -0.65607E+06
 0.17299999E+02 -0.22944E+06
 0.17349998E+02  0.11653E+06
 0.17400000E+02  0.22086E+06
 0.17449999E+02  0.23702E+06
 0.17499998E+02  0.37699E+06
 0.17549999E+02  0.46650E+06
 0.17599998E+02  0.31622E+06
 0.17650000E+02  0.26733E+06
 0.17699999E+02  0.17907E+06
 0.17749998E+02  0.31466E+06
 0.17799999E+02  0.57690E+06
 0.17849998E+02  0.58063E+06
 0.17900000E+02  0.40571E+06
 0.17949999E+02  0.37135E+06
 0.17999998E+02  0.29919E+06
 0.18049999E+02  0.27742E+06
 0.18099998E+02  0.59523E+06
 0.18150000E+02  0.81743E+06
 0.18199999E+02  0.89400E+06
 0.18249998E+02  0.78895E+06
 0.18299999E+02  0.59598E+06
 0.18349998E+02  0.39599E+06
 0.18400000E+02  0.52928E+06
 0.18449999E+02  0.49222E+06
 0.18499998E+02  0.41096E+06
 0.18549999E+02  0.34773E+06
 0.18599998E+02  0.42018E+05
 0.18650000E+02 -0.14152E+06
 0.18699999E+02 -0.15011E+06
 0.18749998E+02  0.32162E+05
 0.18799999E+02  0.31241E+06
 0.18849998E+02  0.34888E+06
 0.18900000E+02  0.33595E+05
 0.18949999E+02 -0.24638E+06
 0.18999998E+02 -0.48399E+06
 0.19049999E+02 -0.62115E+06
 0.19099998E+02 -0.54283E+06
 0.19150000E+02 -0.25254E+06
 0.19199999E+02  0.11593E+06
 0.19249998E+02  0.40969E+06
 0.19299999E+02  0.32650E+06
 0.19349998E+02 -0.80046E+05
 0.19400000E+02 -0.62712E+06
 0.19449999E+02 -0.86809E+06
 0.19499998E+02 -0.71203E+06
 0.19549999E+02 -0.27806E+06
 0.19599998E+02  0.14862E+06
 0.19650000E+02  0.50789E+06
 0.19699999E+02  0.64192E+06
 0.19749998E+02  0.52250E+06
 0.19799999E+02  0.38152E+06
 0.19849998E+02 -0.61555E+04
 0.19900000E+02 -0.22798E+06
 0.19949999E+02 -0.24198E+06
 0.19999998E+02 -0.34087E+06
 0.20049999E+02 -0.34635E+06
 0.20099998E+02  0.11388E+06
 0.20150000E+02  0.64238E+06
 0.20199999E+02  0.80028E+06
 0.20249998E+02  0.49207E+06
 0.20299999E+02  0.10441E+06
 0.20349998E+02 -0.16990E+06
 0.20399998E+02 -0.33961E+06
 0.20449999E+02 -0.19071E+06
 0.20499998E+02 -0.43663E+04
 0.20549999E+02  0.27027E+06
 0.20599998E+02  0.60690E+06
 0.20649998E+02  0.73052E+06
 0.20699999E+02  0.78034E+06
 0.20749998E+02  0.64650E+06
 0.20799999E+02  0.43655E+06
 0.20849998E+02  0.39866E+06
 0.20899998E+02  0.32515E+06
 0.20949999E+02  0.44613E+06
 0.20999998E+02  0.72148E+06
 0.21049999E+02  0.88477E+06
 0.21099998E+02  0.10171E+07
 0.21149998E+02  0.10338E+07
 0.21199999E+02  0.76057E+06
 0.21249998E+02  0.37495E+06
 0.21299999E+02  0.13598E+06
 0.21349998E+02  0.14348E+06
 0.21399998E+02  0.18256E+06
 0.21449999E+02  0.18689E+06
 0.21499998E+02  0.17042E+06
 0.21549999E+02  0.20023E+06
 0.21599998E+02  0.21597E+06
 0.21649998E+02  0.15591E+06
 0.21699999E+02  0.20997E+06
 0.21749998E+02  0.19680E+06
 0.21799999E+02  0.15135E+06
 0.21849998E+02  0.13464E+06
 0.21899998E+02  0.23060E+06
 0.21949999E+02  0.31078E+06
 0.21999998E+02  0.15415E+06
 0.22049999E+02 -0.28115E+05
 0.22099998E+02  0.46694E+04
 0.22149998E+02  0.23221E+06
 0.22199999E+02  0.57539E+06
 0.22249998E+02  0.87751E+06
 0.22299999E+02  0.11064E+07
 0.22349998E+02  0.11906E+07
 0.22399998E+02  0.90529E+06
 0.22449999E+02  0.61265E+06
 0.22499998E+02  0.53862E+06
 0.22549999E+02  0.47761E+06
 0.22599998E+02  0.39989E+06
 0.22649998E+02  0.31925E+06
 0.22699999E+02  0.23235E+06
 0.22749998E+02  0.31892E+06
 0.22799999E+02  0.51828E+06
 0.22849998E+02  0.66981E+06
 0.22899998E+02  0.71737E+06
 0.22949999E+02  0.64732E+06
 0.22999998E+02  0.46409E+06
 0.23049999E+02  0.18055E+06
 0.23099998E+02  0.24728E+05
 0.23149998E+02  0.43283E+05
 0.23199999E+02  0.17336E+06
 0.23249998E+02  0.33274E+06
 0.23299999E+02  0.34830E+06
 0.23349998E+02  0.30188E+06
 0.23399998E+02  0.27027E+06
 0.23449999E+02  0.11613E+04
 0.23499998E+02 -0.24344E+06
 0.23549999E+02 -0.29643E+06
 0.23599998E+02 -0.34657E+06
 0.23649998E+02 -0.40092E+06
 0.23699999E+02 -0.44911E+06
 0.23749998E+02 -0.34602E+06
 0.23799999E+02 -0.47104E+05
 0.23849998E+02  0.12305E+06
 0.23899998E+02 -0.54772E+05
 0.23949999E+02 -0.35340E+06
 0.23999998E+02 -0.56494E+06
 0.24049999E+02 -0.62051E+06
 0.24099998E+02 -0.61391E+06
 0.24149998E+02 -0.50072E+06
 0.24199999E+02 -0.29930E+06
 0.24249998E+02 -0.16214E+06
 0.24299999E+02 -0.13887E+06
 0.24349998E+02 -0.24007E+06
 0.24399998E+02 -0.35134E+06
 0.24449999E+02 -0.45660E+06
 0.24499998E+02 -0.46121E+06
 0.24549999E+02 -0.24901E+06
 0.24599998E+02 -0.44781E+05
 0.24649998E+02  0.95514E+05
 0.24699999E+02  0.99913E+05
 0.24749998E+02 -0.85678E+05
 0.24799999E+02 -0.25521E+06
 0.24849998E+02 -0.29394E+06
 0.24899998E+02 -0.21144E+06
 0.24949999E+02 -0.17707E+06
 0.24999998E+02 -0.25068E+06
 0.25049999E+02 -0.42828E+06
 0.25099998E+02 -0.48486E+06
 0.25149998E+02 -0.35953E+06
 0.25199999E+02 -0.29020E+06
 0.25249998E+02 -0.28867E+06
 0.25299999E+02 -0.29687E+06
 0.25349998E+02 -0.31149E+06
 0.25399998E+02 -0.36906E+06
 0.25449999E+02 -0.51243E+06
 0.25499998E+02 -0.65197E+06
 0.25549999E+02 -0.67969E+06
 0.25599998E+02 -0.64858E+06
 0.25649998E+02 -0.59798E+06
 0.25699999E+02 -0.61416E+06
 0.25749998E+02 -0.57784E+06
 0.25799999E+02 -0.43637E+06
 0.25849998E+02 -0.32461E+06
 0.25899998E+02 -0.22420E+06
 0.25949999E+02 -0.14028E+06
 0.25999998E+02 -0.12253E+06
 0.26049999E+02 -0.16555E+06
 0.26099998E+02 -0.31620E+06
 0.26149998E+02 -0.41372E+06
 0.26199999E+02 -0.44641E+06
 0.26249998E+02 -0.50033E+06
 0.26299999E+02 -0.43412E+06
 0.26349998E+02 -0.31804E+06
 0.26399998E+02 -0.21543E+06
 0.26449999E+02 -0.15246E+06
 0.26499998E+02 -0.45484E+05
 0.26549999E+02 -0.28671E+05
 0.26599998E+02 -0.15017E+06
 0.26649998E+02 -0.33230E+06
 0.26699999E+02 -0.47299E+06
 0.26749998E+02 -0.44943E+06
 0.26799999E+02 -0.29516E+06
 0.26849998E+02  0.31459E+05
 0.26899998E+02  0.46694E+06
 0.26949999E+02  0.73848E+06
 0.26999998E+02  0.55079E+06
 0.27049997E+02 -0.59536E+05
 0.27099998E+02 -0.59144E+06
 0.27149998E+02 -0.56951E+06
 0.27199999E+02  0.69575E+05
 0.27249998E+02  0.94087E+06
 0.27299997E+02  0.15603E+07
 0.27349998E+02  0.16577E+07
 0.27399998E+02  0.10134E+07
 0.27449999E+02  0.20879E+06
 0.27499998E+02  0.10155E+06
 0.27549997E+02  0.96063E+06
 0.27599998E+02  0.18649E+07
 0.27649998E+02  0.18855E+07
 0.27699999E+02  0.95565E+06
 0.27749998E+02 -0.11587E+06
 0.27799997E+02 -0.49858E+06
 0.27849998E+02 -0.47328E+06
 0.27899998E+02 -0.49610E+06
 0.27949999E+02 -0.14271E+07
 0.27999998E+02 -0.29729E+07
 0.28049997E+02 -0.46751E+07
 0.28099998E+02 -0.53395E+07
 0.28149998E+02 -0.43590E+07
 0.28199999E+02 -0.25776E+07
 0.28249998E+02 -0.15251E+07
 0.28299997E+02 -0.97186E+06
 0.28349998E+02 -0.57925E+06
 0.28399998E+02 -0.10951E+07
 0.28449999E+02 -0.11729E+07
 0.28499998E+02 -0.90676E+06
 0.28549997E+02 -0.11219E+07
 0.28599998E+02 -0.19919E+07
 0.28649998E+02 -0.27687E+07
 0.28699999E+02 -0.30971E+07
 0.28749998E+02 -0.32012E+07
 0.28799997E+02 -0.30182E+07
 0.28849998E+02 -0.24112E+07
 0.28899998E+02 -0.15423E+07
 0.28949999E+02 -0.98239E+06
 0.28999998E+02 -0.10755E+07
 0.29049997E+02 -0.13292E+07
 0.29099998E+02 -0.12782E+07
 0.29149998E+02 -0.12144E+07
 0.29199999E+02 -0.14325E+07
 0.29249998E+02 -0.15010E+07
 0.29299997E+02 -0.10831E+07
 0.29349998E+02 -0.90592E+06
 0.29399998E+02 -0.14015E+07
 0.29449999E+02 -0.19974E+07
 0.29499998E+02 -0.20726E+07
 0.29549997E+02 -0.22123E+07
 0.29599998E+02 -0.31220E+07
 0.29649998E+02 -0.41965E+07
 0.29699999E+02 -0.44917E+07
 0.29749998E+02 -0.45039E+07
 0.29799997E+02 -0.48021E+07
 0.29849998E+02 -0.49389E+07
 0.29899998E+02 -0.45635E+07
 0.29949999E+02 -0.36521E+07
 0.29999998E+02 -0.28961E+07
 0.30049999E+02 -0.23748E+07
 0.30099998E+02 -0.16035E+07
 0.30149998E+02 -0.73038E+06
 0.30199997E+02 -0.17964E+06
 0.30249996E+02 -0.14716E+06
 0.30299999E+02 -0.32755E+06
 0.30349998E+02 -0.43413E+06
 0.30399998E+02 -0.81427E+06
 0.30449997E+02 -0.18120E+07
 0.30499996E+02 -0.27613E+07
 0.30549999E+02 -0.28565E+07
 0.30599998E+02 -0.24089E+07
 0.30649998E+02 -0.20071E+07
 0.30699997E+02 -0.14068E+07
 0.30749996E+02 -0.60524E+06
 0.30799999E+02 -0.20855E+06
 0.30849998E+02 -0.59499E+06
 0.30899998E+02 -0.15431E+07
 0.30949997E+02 -0.25483E+07
 0.30999996E+02 -0.29781E+07
 0.31049999E+02 -0.28927E+07
 0.31099998E+02 -0.27278E+07
 0.31149998E+02 -0.23865E+07
 0.31199997E+02 -0.18500E+07
 0.31249996E+02 -0.11039E+07
 0.31299999E+02 -0.44638E+06
 0.31349998E+02 -0.35600E+06
 0.31399998E+02 -0.71131E+06
 0.31449997E+02 -0.94956E+06
 0.31499996E+02 -0.94471E+06
 0.31549999E+02 -0.10479E+07
 0.31599998E+02 -0.14249E+07
 0.31649998E+02 -0.19744E+07
 0.31699997E+02 -0.25730E+07
 0.31749996E+02 -0.31695E+07
 0.31799999E+02 -0.36472E+07
 0.31849998E+02 -0.39018E+07
 0.31899998E+02 -0.38328E+07
 0.31949997E+02 -0.34746E+07
 0.31999996E+02 -0.29054E+07
 0.32049999E+02 -0.21126E+07
 0.32099998E+02 -0.13333E+07
 0.32149998E+02 -0.88329E+06
 0.32199997E+02 -0.85960E+06
 0.32249996E+02 -0.92187E+06
 0.32299999E+02 -0.63772E+06
 0.32349998E+02  0.19393E+06
 0.32399998E+02  0.11390E+07
 0.32449997E+02  0.16902E+07
 0.32499996E+02  0.21355E+07
 0.32549999E+02  0.26786E+07
 0.32599998E+02  0.30509E+07
 0.32649998E+02  0.32077E+07
 0.32699997E+02  0.32304E+07
 0.32749996E+02  0.28491E+07
 0.32799999E+02  0.19430E+07
 0.32849998E+02  0.88890E+06
 0.32899998E+02  0.17640E+06
 0.32949997E+02 -0.34292E+05
 0.32999996E+02  0.25451E+06
 0.33049999E+02  0.77257E+06
 0.33099998E+02  0.11619E+07
 0.33149998E+02  0.14108E+07
 0.33199997E+02  0.13575E+07
 0.33249996E+02  0.10083E+07
 0.33299999E+02  0.77775E+06
 0.33349998E+02  0.76099E+06
 0.33399998E+02  0.76986E+06
 0.33449997E+02  0.36217E+06
 0.33499996E+02 -0.60376E+06
 0.33549999E+02 -0.16319E+07
 0.33599998E+02 -0.24530E+07
 0.33649998E+02 -0.29524E+07
 0.33699997E+02 -0.30690E+07
 0.33749996E+02 -0.28825E+07
 0.33799999E+02 -0.24988E+07
 0.33849998E+02 -0.21302E+07
 0.33899998E+02 -0.20052E+07
 0.33949997E+02 -0.20965E+07
 0.33999996E+02 -0.21401E+07
 0.34049999E+02 -0.19654E+07
 0.34099998E+02 -0.14020E+07
 0.34149998E+02 -0.68387E+06
 0.34199997E+02 -0.23410E+06
 0.34249996E+02  0.15236E+05
 0.34299999E+02 -0.30867E+05
 0.34349998E+02 -0.32703E+06
 0.34399998E+02 -0.58551E+06
 0.34449997E+02 -0.83744E+06
 0.34499996E+02 -0.11989E+07
 0.34549999E+02 -0.16469E+07
 0.34599998E+02 -0.19582E+07
 0.34649998E+02 -0.21172E+07
 0.34699997E+02 -0.19700E+07
 0.34749996E+02 -0.14796E+07
 0.34799999E+02 -0.88168E+06
 0.34849998E+02 -0.41185E+06
 0.34899998E+02 -0.24368E+06
 0.34949997E+02 -0.19678E+06
 0.34999996E+02 -0.35796E+06
 0.35049999E+02 -0.79323E+06
 0.35099998E+02 -0.13123E+07
 0.35149998E+02 -0.18733E+07
 0.35199997E+02 -0.23894E+07
 0.35249996E+02 -0.28570E+07
 0.35299999E+02 -0.35193E+07
 0.35349998E+02 -0.42820E+07
 0.35399998E+02 -0.46528E+07
 0.35449997E+02 -0.43792E+07
 0.35499996E+02 -0.37404E+07
 0.35549999E+02 -0.30528E+07
 0.35599998E+02 -0.25309E+07
 0.35649998E+02 -0.22467E+07
 0.35699997E+02 -0.20123E+07
 0.35749996E+02 -0.19291E+07
 0.35799999E+02 -0.19989E+07
 0.35849998E+02 -0.21687E+07
 0.35899998E+02 -0.23542E+07
 0.35949997E+02 -0.24779E+07
 0.35999996E+02 -0.26523E+07
 0.36049999E+02 -0.27538E+07
 0.36099998E+02 -0.25575E+07
 0.36149998E+02 -0.20946E+07
 0.36199997E+02 -0.16309E+07
 0.36249996E+02 -0.13650E+07
 0.36299999E+02 -0.13538E+07
 0.36349998E+02 -0.14494E+07
 0.36399998E+02 -0.15162E+07
 0.36449997E+02 -0.12733E+07
 0.36499996E+02 -0.81691E+06
 0.36549999E+02 -0.41208E+06
 0.36599998E+02  0.52015E+05
 0.36649998E+02  0.45781E+06
 0.36699997E+02  0.56742E+06
 0.36749996E+02  0.47685E+06
 0.36799999E+02  0.30511E+06
 0.36849998E+02  0.74546E+05
 0.36899998E+02  0.22967E+05
 0.36949997E+02  0.81294E+05
 0.36999996E+02  0.25744E+06
 0.37049999E+02  0.64724E+06
 0.37099998E+02  0.11407E+07
 0.37149998E+02  0.15459E+07
 0.37199997E+02  0.17675E+07
 0.37249996E+02  0.17729E+07
 0.37299999E+02  0.14846E+07
 0.37349998E+02  0.93159E+06
 0.37399998E+02  0.21925E+06
 0.37449997E+02 -0.47901E+06
 0.37499996E+02 -0.99581E+06
 0.37549999E+02 -0.12729E+07
 0.37599998E+02 -0.14986E+07
 0.37649998E+02 -0.16805E+07
 0.37699997E+02 -0.17436E+07
 0.37749996E+02 -0.16743E+07
 0.37799999E+02 -0.16081E+07
 0.37849998E+02 -0.16521E+07
 0.37899998E+02 -0.16789E+07
 0.37949997E+02 -0.15670E+07
 0.37999996E+02 -0.12921E+07
 0.38049999E+02 -0.10606E+07
 0.38099998E+02 -0.98009E+06
 0.38149998E+02 -0.10808E+07
 0.38199997E+02 -0.14140E+07
 0.38249996E+02 -0.18571E+07
 0.38299999E+02 -0.21645E+07
 0.38349998E+02 -0.23148E+07
 0.38399998E+02 -0.23009E+07
 0.38449997E+02 -0.21437E+07
 0.38499996E+02 -0.19074E+07
 0.38549999E+02 -0.13706E+07
 0.38599998E+02 -0.71819E+06
 0.38649998E+02 -0.87782E+05
 0.38699997E+02  0.53348E+06
 0.38749996E+02  0.10782E+07
 0.38799999E+02  0.14974E+07
 0.38849998E+02  0.17540E+07
 0.38899998E+02  0.17637E+07
 0.38949997E+02  0.13137E+07
 0.38999996E+02  0.60417E+06
 0.39049999E+02 -0.63680E+05
 0.39099998E+02 -0.58240E+06
 0.39149998E+02 -0.86125E+06
 0.39199997E+02 -0.84180E+06
 0.39249996E+02 -0.76003E+06
 0.39299999E+02 -0.86422E+06
 0.39349998E+02 -0.11376E+07
 0.39399998E+02 -0.13488E+07
 0.39449997E+02 -0.13931E+07
 0.39499996E+02 -0.14917E+07
 0.39549999E+02 -0.16757E+07
 0.39599998E+02 -0.17033E+07
 0.39649998E+02 -0.15836E+07
 0.39699997E+02 -0.13705E+07
 0.39749996E+02 -0.10828E+07
 0.39799999E+02 -0.64991E+06
 0.39849998E+02 -0.15285E+06
 0.39899998E+02  0.13651E+06
 0.39949997E+02  0.35258E+06
 0.39999996E+02  0.64954E+06
 0.40049999E+02  0.80452E+06
 0.40099998E+02  0.73212E+06
 0.40149998E+02  0.68236E+06
 0.40199997E+02  0.68729E+06
 0.40249996E+02  0.82076E+06
 0.40299999E+02  0.97629E+06
 0.40349998E+02  0.97841E+06
 0.40399998E+02  0.10622E+07
 0.40449997E+02  0.13178E+07
 0.40499996E+02  0.16158E+07
 0.40549999E+02  0.19211E+07
 0.40599998E+02  0.20441E+07
 0.40649998E+02  0.18996E+07
 0.40699997E+02  0.14656E+07
 0.40749996E+02  0.68796E+06
 0.40799999E+02 -0.13775E+06
 0.40849998E+02 -0.76819E+06
 0.40899998E+02 -0.11289E+07
 0.40949997E+02 -0.12144E+07
 0.40999996E+02 -0.10654E+07
 0.41049999E+02 -0.94535E+06
 0.41099998E+02 -0.94060E+06
 0.41149998E+02 -0.90120E+06
 0.41199997E+02 -0.83570E+06
 0.41249996E+02 -0.81394E+06
 0.41299999E+02 -0.86898E+06
 0.41349998E+02 -0.82920E+06
 0.41399998E+02 -0.67984E+06
 0.41449997E+02 -0.47282E+06
 0.41499996E+02 -0.14085E+06
 0.41549999E+02  0.16641E+06
 0.41599998E+02  0.33729E+06
 0.41649998E+02  0.46377E+06
 0.41699997E+02  0.54804E+06
 0.41749996E+02  0.53704E+06
 0.41799999E+02  0.33230E+06
 0.41849998E+02  0.85292E+04
 0.41899998E+02 -0.23219E+06
 0.41949997E+02 -0.38685E+06
 0.41999996E+02 -0.43433E+06
 0.42049999E+02 -0.40081E+06
 0.42099998E+02 -0.33437E+06
 0.42149998E+02 -0.23257E+06
 0.42199997E+02 -0.15610E+06
 0.42249996E+02 -0.11022E+06
 0.42299999E+02 -0.59116E+04
 0.42349998E+02  0.26999E+06
 0.42399998E+02  0.56061E+06
 0.42449997E+02  0.70656E+06
 0.42499996E+02  0.74574E+06
 0.42549999E+02  0.75796E+06
 0.42599998E+02  0.75056E+06
 0.42649998E+02  0.68314E+06
 0.42699997E+02  0.59007E+06
 0.42749996E+02  0.55170E+06
 0.42799995E+02  0.58673E+06
 0.42849998E+02  0.60438E+06
 0.42899998E+02  0.60242E+06
 0.42949997E+02  0.54857E+06
 0.42999996E+02  0.41908E+06
 0.43049995E+02  0.26865E+06
 0.43099998E+02  0.16526E+06
 0.43149998E+02  0.56468E+04
 0.43199997E+02 -0.19785E+06
 0.43249996E+02 -0.31060E+06
 0.43299995E+02 -0.39938E+06
 0.43349998E+02 -0.47455E+06
 0.43399998E+02 -0.52980E+06
 0.43449997E+02 -0.54678E+06
 0.43499996E+02 -0.45790E+06
 0.43549995E+02 -0.22678E+06
 0.43599998E+02  0.12600E+06
 0.43649998E+02  0.43544E+06
 0.43699997E+02  0.62633E+06
 0.43749996E+02  0.76256E+06
 0.43799995E+02  0.84512E+06
 0.43849998E+02  0.94464E+06
 0.43899998E+02  0.10670E+07
 0.43949997E+02  0.10902E+07
 0.43999996E+02  0.10347E+07
 0.44049995E+02  0.10026E+07
 0.44099998E+02  0.99359E+06
 0.44149998E+02  0.10678E+07
 0.44199997E+02  0.12215E+07
 0.44249996E+02  0.14105E+07
 0.44299995E+02  0.16415E+07
 0.44349998E+02  0.18909E+07
 0.44399998E+02  0.21744E+07
 0.44449997E+02  0.24489E+07
 0.44499996E+02  0.27164E+07
 0.44549995E+02  0.29517E+07
 0.44599998E+02  0.30748E+07
 0.44649998E+02  0.29726E+07
 0.44699997E+02  0.26264E+07
 0.44749996E+02  0.21642E+07
 0.44799995E+02  0.16661E+07
 0.44849998E+02  0.12432E+07
 0.44899998E+02  0.84876E+06
 0.44949997E+02  0.43480E+06
 0.44999996E+02  0.10319E+06
 0.45049995E+02 -0.18510E+06
 0.45099998E+02 -0.41808E+06
 0.45149998E+02 -0.54673E+06
 0.45199997E+02 -0.60704E+06
 0.45249996E+02 -0.64893E+06
 0.45299995E+02 -0.65671E+06
 0.45349998E+02 -0.52599E+06
 0.45399998E+02 -0.32202E+06
 0.45449997E+02 -0.81357E+05
 0.45499996E+02  0.31789E+06
 0.45549995E+02  0.82708E+06
 0.45599998E+02  0.12796E+07
 0.45649998E+02  0.15676E+07
 0.45699997E+02  0.16723E+07
 0.45749996E+02  0.15558E+07
 0.45799995E+02  0.13453E+07
 0.45849998E+02  0.11090E+07
 0.45899998E+02  0.84040E+06
 0.45949997E+02  0.66062E+06
 0.45999996E+02  0.60143E+06
 0.46049995E+02  0.68304E+06
 0.46099998E+02  0.87642E+06
 0.46149998E+02  0.10706E+07
 0.46199997E+02  0.12122E+07
 0.46249996E+02  0.12464E+07
 0.46299995E+02  0.11196E+07
 0.46349998E+02  0.89611E+06
 0.46399998E+02  0.70478E+06
 0.46449997E+02  0.66328E+06
 0.46499996E+02  0.68366E+06
 0.46549995E+02  0.64666E+06
 0.46599998E+02  0.53419E+06
 0.46649998E+02  0.37506E+06
 0.46699997E+02  0.22404E+06
 0.46749996E+02  0.78854E+05
 0.46799995E+02 -0.89138E+05
 0.46849998E+02 -0.16855E+06
 0.46899998E+02 -0.18406E+06
 0.46949997E+02 -0.24272E+06
 0.46999996E+02 -0.31979E+06
 0.47049995E+02 -0.33388E+06
 0.47099998E+02 -0.24481E+06
 0.47149998E+02 -0.16185E+06
 0.47199997E+02 -0.76112E+05
 0.47249996E+02  0.80550E+05
 0.47299995E+02  0.33314E+06
 0.47349998E+02  0.63374E+06
 0.47399998E+02  0.94366E+06
 0.47449997E+02  0.12073E+07
 0.47499996E+02  0.13716E+07
 0.47549995E+02  0.14391E+07
 0.47599998E+02  0.14435E+07
 0.47649998E+02  0.14206E+07
 0.47699997E+02  0.13193E+07
 0.47749996E+02  0.11646E+07
 0.47799995E+02  0.10753E+07
 0.47849998E+02  0.10733E+07
 0.47899998E+02  0.11184E+07
 0.47949997E+02  0.12014E+07
 0.47999996E+02  0.13495E+07
 0.48049995E+02  0.14616E+07
 0.48099998E+02  0.14782E+07
 0.48149998E+02  0.15271E+07
 0.48199997E+02  0.15491E+07
 0.48249996E+02  0.14896E+07
 0.48299995E+02  0.14194E+07
 0.48349998E+02  0.12892E+07
 0.48399998E+02  0.11384E+07
 0.48449997E+02  0.11101E+07
 0.48499996E+02  0.11643E+07
 0.48549995E+02  0.12055E+07
 0.48599998E+02  0.11935E+07
 0.48649998E+02  0.11292E+07
 0.48699997E+02  0.10395E+07
 0.48749996E+02  0.95098E+06
 0.48799995E+02  0.87692E+06
 0.48849998E+02  0.86716E+06
 0.48899998E+02  0.95841E+06
 0.48949997E+02  0.10612E+07
 0.48999996E+02  0.10829E+07
 0.49049995E+02  0.10605E+07
 0.49099998E+02  0.10767E+07
 0.49149998E+02  0.10753E+07
 0.49199997E+02  0.95071E+06
 0.49249996E+02  0.75584E+06
 0.49299995E+02  0.62417E+06
 0.49349998E+02  0.59684E+06
 0.49399998E+02  0.61315E+06
 0.49449997E+02  0.56968E+06
 0.49499996E+02  0.48704E+06
 0.49549995E+02  0.38221E+06
 0.49599998E+02  0.23914E+06
 0.49649998E+02  0.10534E+06
 0.49699997E+02  0.37322E+05
 0.49749996E+02  0.55203E+05
 0.49799995E+02  0.10730E+06
 0.49849998E+02  0.16470E+06
 0.49899998E+02  0.18609E+06
 0.49949997E+02  0.15006E+06
 0.49999996E+02  0.10114E+06
 0.50049995E+02  0.80371E+05
 0.50099998E+02  0.12182E+06
 0.50149998E+02  0.26699E+06
 0.50199997E+02  0.49010E+06
 0.50249996E+02  0.72673E+06
 0.50299995E+02  0.94119E+06
 0.50349998E+02  0.11254E+07
 0.50399998E+02  0.13000E+07
 0.50449997E+02  0.14822E+07
 0.50499996E+02  0.16318E+07
 0.50549995E+02  0.17145E+07
 0.50599998E+02  0.17087E+07
 0.50649998E+02  0.17053E+07
 0.50699997E+02  0.18008E+07
 0.50749996E+02  0.19546E+07
 0.50799995E+02  0.21469E+07
 0.50849998E+02  0.23526E+07
 0.50899998E+02  0.25465E+07
 0.50949997E+02  0.26751E+07
 0.50999996E+02  0.27134E+07
 0.51049995E+02  0.27718E+07
 0.51099998E+02  0.28987E+07
 0.51149998E+02  0.29649E+07
 0.51199997E+02  0.29648E+07
 0.51249996E+02  0.29200E+07
 0.51299995E+02  0.28258E+07
 0.51349998E+02  0.27160E+07
 0.51399998E+02  0.25489E+07
 0.51449997E+02  0.23159E+07
 0.51499996E+02  0.20343E+07
 0.51549995E+02  0.17045E+07
 0.51599998E+02  0.13396E+07
 0.51649998E+02  0.96900E+06
 0.51699997E+02  0.61237E+06
 0.51749996E+02  0.25449E+06
 0.51799995E+02 -0.12121E+06
 0.51849998E+02 -0.46988E+06
 0.51899998E+02 -0.69783E+06
 0.51949997E+02 -0.74937E+06
 0.51999996E+02 -0.65837E+06
 0.52049995E+02 -0.46614E+06
 0.52099998E+02 -0.21140E+06
 0.52149998E+02  0.61732E+05
 0.52199997E+02  0.31116E+06
 0.52249996E+02  0.52070E+06
 0.52299995E+02  0.71171E+06
 0.52349998E+02  0.89234E+06
 0.52399998E+02  0.10559E+07
 0.52449997E+02  0.12232E+07
 0.52499996E+02  0.13736E+07
 0.52549995E+02  0.15091E+07
 0.52599998E+02  0.16762E+07
 0.52649998E+02  0.18128E+07
 0.52699997E+02  0.18925E+07
 0.52749996E+02  0.19225E+07
 0.52799995E+02  0.18985E+07
 0.52849998E+02  0.18681E+07
 0.52899998E+02  0.18535E+07
 0.52949997E+02  0.18733E+07
 0.52999996E+02  0.18953E+07
 0.53049995E+02  0.18233E+07
 0.53099998E+02  0.16930E+07
 0.53149998E+02  0.15715E+07
 0.53199997E+02  0.14724E+07
 0.53249996E+02  0.14166E+07
 0.53299995E+02  0.14196E+07
 0.53349998E+02  0.14728E+07
 0.53399998E+02  0.15071E+07
 0.53449997E+02  0.14841E+07
 0.53499996E+02  0.13842E+07
 0.53549995E+02  0.12311E+07
 0.53599998E+02  0.10892E+07
 0.53649998E+02  0.93875E+06
 0.53699997E+02  0.78981E+06
 0.53749996E+02  0.74267E+06
 0.53799995E+02  0.85872E+06
 0.53849998E+02  0.10714E+07
 0.53899998E+02  0.13023E+07
 0.53949997E+02  0.15367E+07
 0.53999996E+02  0.17372E+07
 0.54049995E+02  0.18817E+07
 0.54099998E+02  0.19892E+07
 0.54149998E+02  0.20889E+07
 0.54199997E+02  0.22149E+07
 0.54249996E+02  0.23623E+07
 0.54299995E+02  0.24637E+07
 0.54349998E+02  0.24659E+07
 0.54399998E+02  0.23837E+07
 0.54449997E+02  0.22715E+07
 0.54499996E+02  0.21380E+07
 0.54549995E+02  0.19842E+07
 0.54599998E+02  0.18155E+07
 0.54649998E+02  0.16427E+07
 0.54699997E+02  0.14906E+07
 0.54749996E+02  0.13395E+07
 0.54799995E+02  0.11562E+07
 0.54849998E+02  0.95886E+06
 0.54899998E+02  0.78291E+06
 0.54949997E+02  0.61649E+06
 0.54999996E+02  0.49642E+06
 0.55049995E+02  0.44561E+06
 0.55099998E+02  0.44366E+06
 0.55149998E+02  0.48899E+06
 0.55199997E+02  0.52925E+06
 0.55249996E+02  0.54067E+06
 0.55299995E+02  0.52461E+06
 0.55349998E+02  0.50727E+06
 0.55399998E+02  0.50748E+06
 0.55449997E+02  0.49523E+06
 0.55499996E+02  0.46031E+06
 0.55549995E+02  0.39124E+06
 0.55599998E+02  0.30782E+06
 0.55649998E+02  0.26551E+06
 0.55699997E+02  0.30112E+06
 0.55749996E+02  0.38692E+06
 0.55799995E+02  0.51834E+06
 0.55849995E+02  0.67855E+06
 0.55899998E+02  0.84505E+06
 0.55949997E+02  0.97404E+06
 0.55999996E+02  0.10595E+07
 0.56049995E+02  0.11845E+07
 0.56099995E+02  0.13398E+07
 0.56149998E+02  0.15016E+07
 0.56199997E+02  0.16484E+07
 0.56249996E+02  0.17855E+07
 0.56299995E+02  0.19306E+07
 0.56349995E+02  0.20924E+07
 0.56399998E+02  0.22536E+07
 0.56449997E+02  0.23991E+07
 0.56499996E+02  0.24955E+07
 0.56549995E+02  0.25105E+07
 0.56599995E+02  0.24583E+07
 0.56649998E+02  0.23289E+07
 0.56699997E+02  0.21787E+07
 0.56749996E+02  0.20375E+07
 0.56799995E+02  0.18987E+07
 0.56849995E+02  0.17820E+07
 0.56899998E+02  0.16983E+07
 0.56949997E+02  0.16497E+07
 0.56999996E+02  0.16232E+07
 0.57049995E+02  0.15843E+07
 0.57099995E+02  0.15073E+07
 0.57149998E+02  0.13918E+07
 0.57199997E+02  0.12562E+07
 0.57249996E+02  0.11072E+07
 0.57299995E+02  0.95962E+06
 0.57349995E+02  0.86886E+06
 0.57399998E+02  0.84451E+06
 0.57449997E+02  0.85208E+06
 0.57499996E+02  0.85286E+06
 0.57549995E+02  0.83062E+06
 0.57599995E+02  0.83724E+06
 0.57649998E+02  0.86322E+06
 0.57699997E+02  0.88556E+06
 0.57749996E+02  0.96312E+06
 0.57799995E+02  0.10858E+07
 0.57849995E+02  0.11767E+07
 0.57899998E+02  0.12033E+07
 0.57949997E+02  0.11868E+07
 0.57999996E+02  0.12123E+07
 0.58049995E+02  0.13217E+07
 0.58099995E+02  0.14700E+07
 0.58149998E+02  0.16185E+07
 0.58199997E+02  0.17312E+07
 0.58249996E+02  0.18080E+07
 0.58299995E+02  0.18490E+07
 0.58349995E+02  0.18691E+07
 0.58399998E+02  0.18701E+07
 0.58449997E+02  0.18141E+07
 0.58499996E+02  0.16955E+07
 0.58549995E+02  0.15576E+07
 0.58599995E+02  0.14344E+07
 0.58649998E+02  0.13635E+07
 0.58699997E+02  0.13573E+07
 0.58749996E+02  0.13932E+07
 0.58799995E+02  0.14652E+07
 0.58849995E+02  0.15057E+07
 0.58899998E+02  0.14930E+07
 0.58949997E+02  0.14641E+07
 0.58999996E+02  0.14350E+07
 0.59049995E+02  0.14248E+07
 0.59099995E+02  0.14285E+07
 0.59149998E+02  0.14233E+07
 0.59199997E+02  0.14264E+07
 0.59249996E+02  0.14288E+07
 0.59299995E+02  0.14094E+07
 0.59349995E+02  0.13917E+07
 0.59399998E+02  0.13873E+07
 0.59449997E+02  0.14006E+07
 0.59499996E+02  0.14343E+07
 0.59549995E+02  0.14914E+07
 0.59599995E+02  0.15771E+07
 0.59649998E+02  0.16585E+07
 0.59699997E+02  0.17044E+07
 0.59749996E+02  0.17327E+07
 0.59799995E+02  0.17509E+07
 0.59849995E+02  0.17579E+07
 0.59899998E+02  0.17501E+07
 0.59949997E+02  0.17308E+07
 0.59999996E+02  0.16959E+07
 0.60049995E+02  0.16172E+07
 0.60099995E+02  0.14931E+07
 0.60149998E+02  0.13513E+07
 0.60199997E+02  0.12197E+07
 0.60249996E+02  0.10853E+07
 0.60299995E+02  0.94085E+06
 0.60349995E+02  0.82864E+06
 0.60399998E+02  0.77466E+06
 0.60449997E+02  0.74504E+06
 0.60499996E+02  0.70002E+06
 0.60549995E+02  0.66606E+06
 0.60599995E+02  0.68935E+06
 0.60649998E+02  0.78216E+06
 0.60699997E+02  0.91870E+06
 0.60749996E+02  0.10639E+07
 0.60799995E+02  0.12060E+07
 0.60849995E+02  0.13427E+07
 0.60899998E+02  0.15141E+07
 0.60949997E+02  0.17491E+07
 0.60999996E+02  0.20240E+07
 0.61049995E+02  0.23076E+07
 0.61099995E+02  0.25328E+07
 0.61149998E+02  0.26362E+07
 0.61199997E+02  0.26310E+07
 0.61249996E+02  0.25770E+07
 0.61299995E+02  0.25069E+07
 0.61349995E+02  0.24118E+07
 0.61399998E+02  0.22695E+07
 0.61449997E+02  0.20896E+07
 0.61499996E+02  0.19363E+07
 0.61549995E+02  0.18455E+07
 0.61599995E+02  0.18169E+07
 0.61649998E+02  0.18313E+07
 0.61699997E+02  0.18567E+07
 0.61749996E+02  0.18708E+07
 0.61799995E+02  0.18729E+07
 0.61849995E+02  0.18712E+07
 0.61899998E+02  0.18574E+07
 0.61949997E+02  0.18316E+07
 0.61999996E+02  0.17867E+07
 0.62049995E+02  0.17101E+07
 0.62099998E+02  0.16124E+07
 0.62149994E+02  0.15331E+07
 0.62199997E+02  0.14812E+07
 0.62249992E+02  0.14430E+07
 0.62299995E+02  0.14353E+07
 0.62349998E+02  0.14530E+07
 0.62399994E+02  0.14960E+07
 0.62449997E+02  0.15718E+07
 0.62499992E+02  0.16539E+07
 0.62549995E+02  0.17224E+07
 0.62599998E+02  0.17573E+07
 0.62649994E+02  0.17513E+07
 0.62699997E+02  0.17072E+07
 0.62749992E+02  0.16219E+07
 0.62799995E+02  0.15120E+07
 0.62849998E+02  0.13958E+07
 0.62899994E+02  0.12896E+07
 0.62949997E+02  0.11964E+07
 0.62999992E+02  0.11023E+07
 0.63049995E+02  0.10099E+07
 0.63099998E+02  0.93068E+06
 0.63149994E+02  0.88896E+06
 0.63199997E+02  0.90017E+06
 0.63249992E+02  0.93914E+06
 0.63299995E+02  0.99638E+06
 0.63349998E+02  0.10649E+07
 0.63399994E+02  0.11196E+07
 0.63449997E+02  0.11429E+07
 0.63499992E+02  0.11606E+07
 0.63549995E+02  0.11951E+07
 0.63599998E+02  0.12442E+07
 0.63649994E+02  0.13318E+07
 0.63699997E+02  0.14521E+07
 0.63749992E+02  0.15882E+07
 0.63799995E+02  0.17288E+07
 0.63849998E+02  0.18517E+07
 0.63899994E+02  0.19356E+07
 0.63949997E+02  0.19590E+07
 0.63999992E+02  0.19067E+07
 0.64049995E+02  0.18096E+07
 0.64099998E+02  0.17152E+07
 0.64149994E+02  0.16490E+07
 0.64199997E+02  0.16022E+07
 0.64249992E+02  0.15634E+07
 0.64299995E+02  0.15475E+07
 0.64349998E+02  0.15575E+07
 0.64399994E+02  0.15795E+07
 0.64449997E+02  0.15984E+07
 0.64499992E+02  0.16087E+07
 0.64549995E+02  0.15985E+07
 0.64599998E+02  0.15663E+07
 0.64649994E+02  0.15215E+07
 0.64699997E+02  0.14787E+07
 0.64749992E+02  0.14420E+07
 0.64799995E+02  0.14071E+07
 0.64849998E+02  0.13830E+07
 0.64899994E+02  0.13844E+07
 0.64949997E+02  0.14157E+07
 0.64999992E+02  0.14546E+07
 0.65049995E+02  0.14815E+07
 0.65099998E+02  0.14895E+07
 0.65149994E+02  0.14712E+07
 0.65199997E+02  0.14413E+07
 0.65249992E+02  0.14017E+07
 0.65299995E+02  0.13507E+07
 0.65349998E+02  0.12952E+07
 0.65399994E+02  0.12368E+07
 0.65449997E+02  0.11754E+07
 0.65499992E+02  0.11225E+07
 0.65549995E+02  0.10940E+07
 0.65599998E+02  0.10983E+07
 0.65649994E+02  0.11390E+07
 0.65699997E+02  0.11919E+07
 0.65749992E+02  0.12384E+07
 0.65799995E+02  0.12636E+07
 0.65849998E+02  0.12565E+07
 0.65899994E+02  0.12247E+07
 0.65949997E+02  0.11836E+07
 0.65999992E+02  0.11405E+07
 0.66049995E+02  0.10868E+07
 0.66099998E+02  0.10334E+07
 0.66149994E+02  0.99298E+06
 0.66199997E+02  0.96008E+06
 0.66249992E+02  0.93671E+06
 0.66299995E+02  0.92186E+06
 0.66349998E+02  0.91938E+06
 0.66399994E+02  0.93035E+06
 0.66449997E+02  0.95820E+06
 0.66499992E+02  0.10202E+07
 0.66549995E+02  0.11090E+07
 0.66599998E+02  0.12148E+07
 0.66649994E+02  0.13282E+07
 0.66699997E+02  0.14475E+07
 0.66749992E+02  0.15542E+07
 0.66799995E+02  0.16143E+07
 0.66849998E+02  0.16255E+07
 0.66899994E+02  0.16021E+07
 0.66949997E+02  0.15547E+07
 0.66999992E+02  0.14848E+07
 0.67049995E+02  0.14047E+07
 0.67099998E+02  0.13418E+07
 0.67149994E+02  0.13198E+07
 0.67199997E+02  0.13323E+07
 0.67249992E+02  0.13607E+07
 0.67299995E+02  0.14007E+07
 0.67349998E+02  0.14471E+07
 0.67399994E+02  0.14920E+07
 0.67449997E+02  0.15450E+07
 0.67499992E+02  0.16133E+07
 0.67549995E+02  0.16889E+07
 0.67599998E+02  0.17704E+07
 0.67649994E+02  0.18551E+07
 0.67699997E+02  0.19402E+07
 0.67749992E+02  0.20272E+07
 0.67799995E+02  0.20977E+07
 0.67849998E+02  0.21331E+07
 0.67899994E+02  0.21241E+07
 0.67949997E+02  0.20761E+07
 0.67999992E+02  0.19942E+07
 0.68049995E+02  0.18846E+07
 0.68099998E+02  0.17661E+07
 0.68149994E+02  0.16552E+07
 0.68199997E+02  0.15706E+07
 0.68249992E+02  0.15083E+07
 0.68299995E+02  0.14614E+07
 0.68349998E+02  0.14292E+07
 0.68399994E+02  0.14013E+07
 0.68449997E+02  0.13793E+07
 0.68499992E+02  0.13587E+07
 0.68549995E+02  0.13306E+07
 0.68599998E+02  0.12804E+07
 0.68649994E+02  0.12129E+07
 0.68699997E+02  0.11479E+07
 0.68749992E+02  0.10964E+07
 0.68799995E+02  0.10593E+07
 0.68849998E+02  0.10343E+07
 0.68899994E+02  0.10335E+07
 0.68949997E+02  0.10531E+07
 0.68999992E+02  0.10780E+07
 0.69049995E+02  0.10896E+07
 0.69099998E+02  0.10983E+07
 0.69149994E+02  0.11373E+07
 0.69199997E+02  0.12211E+07
 0.69249992E+02  0.13481E+07
 0.69299995E+02  0.15019E+07
 0.69349998E+02  0.16633E+07
 0.69399994E+02  0.18259E+07
 0.69449997E+02  0.19714E+07
 0.69499992E+02  0.20837E+07
 0.69549995E+02  0.21589E+07
 0.69599998E+02  0.21872E+07
 0.69649994E+02  0.21554E+07
 0.69699997E+02  0.20732E+07
 0.69749992E+02  0.19650E+07
 0.69799995E+02  0.18573E+07
 0.69849998E+02  0.17650E+07
 0.69899994E+02  0.16861E+07
 0.69949997E+02  0.16279E+07
 0.69999992E+02  0.15876E+07
 0.70049995E+02  0.15542E+07
 0.70099998E+02  0.15156E+07
 0.70149994E+02  0.14612E+07
 0.70199997E+02  0.13837E+07
 0.70249992E+02  0.12884E+07
 0.70299995E+02  0.11911E+07
 0.70349998E+02  0.11168E+07
 0.70399994E+02  0.10725E+07
 0.70449997E+02  0.10567E+07
 0.70499992E+02  0.10685E+07
 0.70549995E+02  0.10926E+07
 0.70599998E+02  0.11252E+07
 0.70649994E+02  0.11759E+07
 0.70699997E+02  0.12417E+07
 0.70749992E+02  0.13156E+07
 0.70799995E+02  0.14019E+07
 0.70849998E+02  0.14959E+07
 0.70899994E+02  0.15845E+07
 0.70949997E+02  0.16487E+07
 0.70999992E+02  0.16764E+07
 0.71049995E+02  0.16749E+07
 0.71099998E+02  0.16647E+07
 0.71149994E+02  0.16542E+07
 0.71199997E+02  0.16385E+07
 0.71249992E+02  0.16139E+07
 0.71299995E+02  0.15811E+07
 0.71349998E+02  0.15540E+07
 0.71399994E+02  0.15388E+07
 0.71449997E+02  0.15435E+07
 0.71499992E+02  0.15699E+07
 0.71549995E+02  0.15869E+07
 0.71599998E+02  0.15704E+07
 0.71649994E+02  0.15142E+07
 0.71699997E+02  0.14292E+07
 0.71749992E+02  0.13449E+07
 0.71799995E+02  0.12741E+07
 0.71849998E+02  0.12173E+07
 0.71899994E+02  0.11837E+07
 0.71949997E+02  0.11749E+07
 0.71999992E+02  0.11787E+07
 0.72049995E+02  0.11946E+07
 0.72099998E+02  0.12239E+07
 0.72149994E+02  0.12534E+07
 0.72199997E+02  0.12651E+07
 0.72249992E+02  0.12474E+07
 0.72299995E+02  0.12133E+07
 0.72349998E+02  0.11793E+07
 0.72399994E+02  0.11431E+07
 0.72449997E+02  0.11017E+07
 0.72499992E+02  0.10686E+07
 0.72549995E+02  0.10482E+07
 0.72599998E+02  0.10269E+07
 0.72649994E+02  0.99775E+06
 0.72699997E+02  0.96730E+06
 0.72749992E+02  0.93355E+06
 0.72799995E+02  0.88537E+06
 0.72849998E+02  0.82456E+06
 0.72899994E+02  0.76475E+06
 0.72949997E+02  0.72480E+06
 0.72999992E+02  0.70397E+06
 0.73049995E+02  0.70877E+06
 0.73099998E+02  0.75890E+06
 0.73149994E+02  0.85844E+06
 0.73199997E+02  0.99426E+06
 0.73249992E+02  0.11380E+07
 0.73299995E+02  0.12818E+07
 0.73349998E+02  0.14240E+07
 0.73399994E+02  0.15550E+07
 0.73449997E+02  0.16758E+07
 0.73499992E+02  0.17855E+07
 0.73549995E+02  0.18646E+07
 0.73599998E+02  0.18905E+07
 0.73649994E+02  0.18795E+07
 0.73699997E+02  0.18617E+07
 0.73749992E+02  0.18361E+07
 0.73799995E+02  0.17980E+07
 0.73849998E+02  0.17527E+07
 0.73899994E+02  0.17038E+07
 0.73949997E+02  0.16612E+07
 0.73999992E+02  0.16246E+07
 0.74049995E+02  0.15746E+07
 0.74099998E+02  0.15081E+07
 0.74149994E+02  0.14398E+07
 0.74199997E+02  0.13727E+07
 0.74249992E+02  0.13078E+07
 0.74299995E+02  0.12453E+07
 0.74349998E+02  0.12006E+07
 0.74399994E+02  0.11870E+07
 0.74449997E+02  0.11970E+07
 0.74499992E+02  0.12172E+07
 0.74549995E+02  0.12385E+07
 0.74599998E+02  0.12715E+07
 0.74649994E+02  0.13141E+07
 0.74699997E+02  0.13502E+07
 0.74749992E+02  0.13633E+07
 0.74799995E+02  0.13458E+07
 0.74849998E+02  0.13043E+07
 0.74899994E+02  0.12532E+07
 0.74949997E+02  0.12045E+07
 0.74999992E+02  0.11606E+07
 0.75049995E+02  0.11309E+07
 0.75099998E+02  0.11249E+07
 0.75149994E+02  0.11359E+07
 0.75199997E+02  0.11532E+07
 0.75249992E+02  0.11740E+07
 0.75299995E+02  0.11931E+07
 0.75349998E+02  0.11972E+07
 0.75399994E+02  0.11823E+07
 0.75449997E+02  0.11533E+07
 0.75499992E+02  0.11111E+07
 0.75549995E+02  0.10574E+07
 0.75599998E+02  0.98737E+06
 0.75649994E+02  0.91247E+06
 0.75699997E+02  0.85456E+06
 0.75749992E+02  0.82544E+06
 0.75799995E+02  0.83441E+06
 0.75849998E+02  0.87290E+06
 0.75899994E+02  0.92568E+06
 0.75949997E+02  0.98808E+06
 0.75999992E+02  0.10484E+07
 0.76049995E+02  0.10975E+07
 0.76099998E+02  0.11468E+07
 0.76149994E+02  0.11987E+07
 0.76199997E+02  0.12426E+07
 0.76249992E+02  0.12826E+07
 0.76299995E+02  0.13259E+07
 0.76349998E+02  0.13599E+07
 0.76399994E+02  0.13712E+07
 0.76449997E+02  0.13568E+07
 0.76499992E+02  0.13141E+07
 0.76549995E+02  0.12486E+07
 0.76599998E+02  0.11840E+07
 0.76649994E+02  0.11379E+07
 0.76699997E+02  0.11126E+07
 0.76749992E+02  0.11099E+07
 0.76799995E+02  0.11232E+07
 0.76849998E+02  0.11418E+07
 0.76899994E+02  0.11545E+07
 0.76949997E+02  0.11465E+07
 0.76999992E+02  0.11041E+07
 0.77049995E+02  0.10354E+07
 0.77099998E+02  0.96125E+06
 0.77149994E+02  0.89817E+06
 0.77199997E+02  0.86027E+06
 0.77249992E+02  0.85830E+06
 0.77299995E+02  0.89756E+06
 0.77349998E+02  0.96473E+06
 0.77399994E+02  0.10381E+07
 0.77449997E+02  0.11029E+07
 0.77499992E+02  0.11566E+07
 0.77549995E+02  0.12005E+07
 0.77599998E+02  0.12371E+07
 0.77649994E+02  0.12709E+07
 0.77699997E+02  0.13120E+07
 0.77749992E+02  0.13666E+07
 0.77799995E+02  0.14257E+07
 0.77849998E+02  0.14886E+07
 0.77899994E+02  0.15582E+07
 0.77949997E+02  0.16321E+07
 0.77999992E+02  0.17038E+07
 0.78049995E+02  0.17548E+07
 0.78099998E+02  0.17691E+07
 0.78149994E+02  0.17487E+07
 0.78199997E+02  0.16995E+07
 0.78249992E+02  0.16221E+07
 0.78299995E+02  0.15226E+07
 0.78349998E+02  0.14037E+07
 0.78399994E+02  0.12646E+07
 0.78449997E+02  0.11142E+07
 0.78499992E+02  0.96150E+06
 0.78549995E+02  0.81510E+06
 0.78599998E+02  0.68228E+06
 0.78649994E+02  0.57686E+06
 0.78699997E+02  0.51527E+06
 0.78749992E+02  0.48086E+06
 0.78799995E+02  0.45773E+06
 0.78849998E+02  0.44839E+06
 0.78899994E+02  0.45267E+06
 0.78949997E+02  0.47205E+06
 0.78999992E+02  0.50513E+06
 0.79049995E+02  0.54957E+06
 0.79099998E+02  0.60086E+06
 0.79149994E+02  0.65077E+06
 0.79199997E+02  0.69597E+06
 0.79249992E+02  0.73692E+06
 0.79299995E+02  0.77034E+06
 0.79349998E+02  0.79273E+06
 0.79399994E+02  0.79536E+06
 0.79449997E+02  0.77829E+06
 0.79499992E+02  0.76001E+06
 0.79549995E+02  0.76206E+06
 0.79599998E+02  0.79596E+06
 0.79649994E+02  0.85128E+06
 0.79699997E+02  0.91680E+06
 0.79749992E+02  0.98853E+06
 0.79799995E+02  0.10584E+07
 0.79849998E+02  0.11230E+07
 0.79899994E+02  0.11752E+07
 0.79949997E+02  0.12017E+07
 0.79999992E+02  0.12044E+07
 0.80049995E+02  0.12042E+07
 0.80099998E+02  0.12237E+07
 0.80149994E+02  0.12667E+07
 0.80199997E+02  0.13298E+07
 0.80249992E+02  0.14070E+07
 0.80299995E+02  0.14877E+07
 0.80349998E+02  0.15674E+07
 0.80399994E+02  0.16300E+07
 0.80449997E+02  0.16619E+07
 0.80499992E+02  0.16784E+07
 0.80549995E+02  0.16917E+07
 0.80599998E+02  0.16992E+07
 0.80649994E+02  0.16957E+07
 0.80699997E+02  0.16789E+07
 0.80749992E+02  0.16593E+07
 0.80799995E+02  0.16463E+07
 0.80849998E+02  0.16397E+07
 0.80899994E+02  0.16340E+07
 0.80949997E+02  0.16228E+07
 0.80999992E+02  0.15978E+07
 0.81049995E+02  0.15531E+07
 0.81099998E+02  0.14886E+07
 0.81149994E+02  0.14039E+07
 0.81199997E+02  0.13110E+07
 0.81249992E+02  0.12278E+07
 0.81299995E+02  0.11618E+07
 0.81349998E+02  0.11087E+07
 0.81399994E+02  0.10613E+07
 0.81449997E+02  0.10328E+07
 0.81499992E+02  0.10290E+07
 0.81549995E+02  0.10326E+07
 0.81599998E+02  0.10451E+07
 0.81649994E+02  0.10829E+07
 0.81699997E+02  0.11431E+07
 0.81749992E+02  0.12108E+07
 0.81799995E+02  0.12728E+07
 0.81849998E+02  0.13245E+07
 0.81899994E+02  0.13658E+07
 0.81949997E+02  0.13945E+07
 0.81999992E+02  0.14090E+07
 0.82049995E+02  0.14074E+07
 0.82099998E+02  0.14003E+07
 0.82149994E+02  0.13988E+07
 0.82199997E+02  0.13950E+07
 0.82249992E+02  0.13763E+07
 0.82299995E+02  0.13428E+07
 0.82349998E+02  0.13087E+07
 0.82399994E+02  0.12782E+07
 0.82449997E+02  0.12392E+07
 0.82499992E+02  0.11965E+07
 0.82549995E+02  0.11575E+07
 0.82599998E+02  0.11237E+07
 0.82649994E+02  0.10954E+07
 0.82699997E+02  0.10673E+07
 0.82749992E+02  0.10343E+07
 0.82799995E+02  0.99540E+06
 0.82849998E+02  0.95543E+06
 0.82899994E+02  0.91405E+06
 0.82949997E+02  0.87221E+06
 0.82999992E+02  0.83573E+06
 0.83049995E+02  0.80117E+06
 0.83099998E+02  0.76439E+06
 0.83149994E+02  0.72982E+06
 0.83199997E+02  0.70257E+06
 0.83249992E+02  0.68770E+06
 0.83299995E+02  0.68063E+06
 0.83349998E+02  0.67157E+06
 0.83399994E+02  0.65418E+06
 0.83449997E+02  0.62669E+06
 0.83499992E+02  0.59335E+06
 0.83549995E+02  0.56840E+06
 0.83599998E+02  0.56160E+06
 0.83649994E+02  0.56800E+06
 0.83699997E+02  0.58336E+06
 0.83749992E+02  0.59809E+06
 0.83799995E+02  0.60880E+06
 0.83849998E+02  0.62168E+06
 0.83899994E+02  0.64013E+06
 0.83949997E+02  0.66107E+06
 0.83999992E+02  0.68106E+06
 0.84049995E+02  0.70050E+06
 0.84099998E+02  0.71469E+06
 0.84149994E+02  0.72105E+06
 0.84199997E+02  0.72522E+06
 0.84249992E+02  0.73986E+06
 0.84299995E+02  0.76971E+06
 0.84349998E+02  0.80350E+06
 0.84399994E+02  0.82833E+06
 0.84449997E+02  0.84330E+06
 0.84499992E+02  0.85375E+06
 0.84549995E+02  0.86010E+06
 0.84599998E+02  0.86402E+06
 0.84649994E+02  0.86858E+06
 0.84699997E+02  0.87440E+06
 0.84749992E+02  0.88586E+06
 0.84799995E+02  0.90319E+06
 0.84849998E+02  0.91972E+06
 0.84899994E+02  0.92799E+06
 0.84949997E+02  0.92562E+06
 0.84999992E+02  0.91417E+06
 0.85049995E+02  0.88665E+06
 0.85099998E+02  0.84975E+06
 0.85149994E+02  0.81816E+06
 0.85199997E+02  0.79597E+06
 0.85249992E+02  0.78750E+06
 0.85299995E+02  0.79279E+06
 0.85349998E+02  0.79685E+06
 0.85399994E+02  0.78677E+06
 0.85449997E+02  0.77391E+06
 0.85499992E+02  0.77406E+06
 0.85549995E+02  0.79131E+06
 0.85599998E+02  0.81970E+06
 0.85649994E+02  0.85350E+06
 0.85699997E+02  0.88689E+06
 0.85749992E+02  0.90497E+06
 0.85799995E+02  0.90381E+06
 0.85849998E+02  0.88231E+06
 0.85899994E+02  0.83711E+06
 0.85949997E+02  0.77730E+06
 0.85999992E+02  0.71908E+06
 0.86049995E+02  0.67654E+06
 0.86099998E+02  0.65751E+06
 0.86149994E+02  0.66122E+06
 0.86199997E+02  0.68007E+06
 0.86249992E+02  0.70663E+06
 0.86299995E+02  0.73166E+06
 0.86349998E+02  0.75560E+06
 0.86399994E+02  0.78125E+06
 0.86449997E+02  0.80748E+06
 0.86499992E+02  0.82867E+06
 0.86549995E+02  0.84231E+06
 0.86599998E+02  0.85368E+06
 0.86649994E+02  0.86475E+06
 0.86699997E+02  0.88344E+06
 0.86749992E+02  0.91110E+06
 0.86799995E+02  0.93415E+06
 0.86849998E+02  0.94315E+06
 0.86899994E+02  0.93787E+06
 0.86949997E+02  0.91578E+06
 0.86999992E+02  0.87845E+06
 0.87049995E+02  0.82651E+06
 0.87099998E+02  0.76925E+06
 0.87149994E+02  0.72816E+06
 0.87199997E+02  0.71563E+06
 0.87249992E+02  0.73379E+06
 0.87299995E+02  0.76991E+06
 0.87349998E+02  0.81219E+06
 0.87399994E+02  0.85170E+06
 0.87449997E+02  0.87649E+06
 0.87499992E+02  0.88252E+06
 0.87549995E+02  0.87015E+06
 0.87599991E+02  0.84842E+06
 0.87649994E+02  0.83206E+06
 0.87699997E+02  0.83317E+06
 0.87749992E+02  0.85604E+06
 0.87799995E+02  0.89239E+06
 0.87849991E+02  0.93067E+06
 0.87899994E+02  0.96226E+06
 0.87949997E+02  0.98689E+06
 0.87999992E+02  0.10097E+07
 0.88049995E+02  0.10284E+07
 0.88099991E+02  0.10344E+07
 0.88149994E+02  0.10240E+07
 0.88199997E+02  0.10008E+07
 0.88249992E+02  0.97590E+06
 0.88299995E+02  0.96127E+06
 0.88349991E+02  0.95407E+06
 0.88399994E+02  0.94510E+06
 0.88449997E+02  0.92929E+06
 0.88499992E+02  0.90734E+06
 0.88549995E+02  0.88326E+06
 0.88599991E+02  0.86216E+06
 0.88649994E+02  0.85030E+06
 0.88699997E+02  0.84791E+06
 0.88749992E+02  0.85617E+06
 0.88799995E+02  0.87861E+06
 0.88849991E+02  0.90686E+06
 0.88899994E+02  0.93228E+06
 0.88949997E+02  0.95833E+06
 0.88999992E+02  0.97937E+06
 0.89049995E+02  0.98757E+06
 0.89099991E+02  0.99178E+06
 0.89149994E+02  0.99830E+06
 0.89199997E+02  0.10018E+07
 0.89249992E+02  0.99708E+06
 0.89299995E+02  0.98917E+06
 0.89349991E+02  0.97945E+06
 0.89399994E+02  0.96173E+06
 0.89449997E+02  0.93367E+06
 0.89499992E+02  0.89834E+06
 0.89549995E+02  0.86001E+06
 0.89599991E+02  0.82073E+06
 0.89649994E+02  0.78004E+06
 0.89699997E+02  0.73907E+06
 0.89749992E+02  0.69828E+06
 0.89799995E+02  0.65448E+06
 0.89849991E+02  0.60931E+06
 0.89899994E+02  0.57065E+06
 0.89949997E+02  0.54317E+06
 0.89999992E+02  0.52553E+06
 0.90049995E+02  0.51963E+06
 0.90099991E+02  0.52538E+06
 0.90149994E+02  0.53643E+06
 0.90199997E+02  0.54682E+06
 0.90249992E+02  0.55244E+06
 0.90299995E+02  0.55341E+06
 0.90349991E+02  0.55686E+06
 0.90399994E+02  0.56850E+06
 0.90449997E+02  0.58553E+06
 0.90499992E+02  0.60519E+06
 0.90549995E+02  0.62528E+06
 0.90599991E+02  0.63716E+06
 0.90649994E+02  0.63596E+06
 0.90699997E+02  0.62566E+06
 0.90749992E+02  0.61498E+06
 0.90799995E+02  0.60737E+06
 0.90849991E+02  0.60573E+06
 0.90899994E+02  0.61517E+06
 0.90949997E+02  0.63377E+06
 0.90999992E+02  0.65019E+06
 0.91049995E+02  0.65479E+06
 0.91099991E+02  0.64695E+06
 0.91149994E+02  0.62826E+06
 0.91199997E+02  0.61311E+06
 0.91249992E+02  0.61692E+06
 0.91299995E+02  0.64594E+06
 0.91349991E+02  0.69572E+06
 0.91399994E+02  0.75479E+06
 0.91449997E+02  0.81014E+06
 0.91499992E+02  0.85302E+06
 0.91549995E+02  0.88630E+06
 0.91599991E+02  0.91743E+06
 0.91649994E+02  0.94564E+06
 0.91699997E+02  0.95861E+06
 0.91749992E+02  0.95432E+06
 0.91799995E+02  0.93620E+06
 0.91849991E+02  0.90775E+06
 0.91899994E+02  0.87496E+06
 0.91949997E+02  0.84879E+06
 0.91999992E+02  0.83714E+06
 0.92049995E+02  0.83661E+06
 0.92099991E+02  0.83794E+06
 0.92149994E+02  0.83189E+06
 0.92199997E+02  0.81799E+06
 0.92249992E+02  0.79885E+06
 0.92299995E+02  0.78176E+06
 0.92349991E+02  0.77103E+06
 0.92399994E+02  0.76638E+06
 0.92449997E+02  0.76389E+06
 0.92499992E+02  0.75718E+06
 0.92549995E+02  0.74001E+06
 0.92599991E+02  0.70795E+06
 0.92649994E+02  0.67299E+06
 0.92699997E+02  0.64576E+06
 0.92749992E+02  0.62295E+06
 0.92799995E+02  0.60681E+06
 0.92849991E+02  0.60813E+06
 0.92899994E+02  0.62838E+06
 0.92949997E+02  0.65772E+06
 0.92999992E+02  0.68196E+06
 0.93049995E+02  0.68857E+06
 0.93099991E+02  0.67233E+06
 0.93149994E+02  0.63914E+06
 0.93199997E+02  0.60020E+06
 0.93249992E+02  0.55997E+06
 0.93299995E+02  0.52488E+06
 0.93349991E+02  0.50251E+06
 0.93399994E+02  0.49470E+06
 0.93449997E+02  0.49859E+06
 0.93499992E+02  0.50665E+06
 0.93549995E+02  0.51345E+06
 0.93599991E+02  0.51343E+06
 0.93649994E+02  0.50631E+06
 0.93699997E+02  0.49632E+06
 0.93749992E+02  0.48914E+06
 0.93799995E+02  0.48949E+06
 0.93849991E+02  0.49411E+06
 0.93899994E+02  0.50162E+06
 0.93949997E+02  0.51493E+06
 0.93999992E+02  0.53613E+06
 0.94049995E+02  0.56454E+06
 0.94099991E+02  0.59578E+06
 0.94149994E+02  0.61984E+06
 0.94199997E+02  0.63137E+06
 0.94249992E+02  0.62805E+06
 0.94299995E+02  0.60612E+06
 0.94349991E+02  0.56774E+06
 0.94399994E+02  0.52137E+06
 0.94449997E+02  0.47445E+06
 0.94499992E+02  0.42472E+06
 0.94549995E+02  0.37454E+06
 0.94599991E+02  0.33110E+06
 0.94649994E+02  0.29527E+06
 0.94699997E+02  0.26685E+06
 0.94749992E+02  0.24848E+06
 0.94799995E+02  0.24337E+06
 0.94849991E+02  0.24651E+06
 0.94899994E+02  0.24932E+06
 0.94949997E+02  0.24578E+06
 0.94999992E+02  0.23890E+06
 0.95049995E+02  0.23515E+06
 0.95099991E+02  0.24529E+06
 0.95149994E+02  0.28227E+06
 0.95199997E+02  0.34581E+06
 0.95249992E+02  0.43032E+06
 0.95299995E+02  0.52395E+06
 0.95349991E+02  0.61448E+06
 0.95399994E+02  0.69721E+06
 0.95449997E+02  0.77239E+06
 0.95499992E+02  0.84188E+06
 0.95549995E+02  0.90338E+06
 0.95599991E+02  0.95510E+06
 0.95649994E+02  0.99470E+06
 0.95699997E+02  0.10173E+07
 0.95749992E+02  0.10193E+07
 0.95799995E+02  0.10024E+07
 0.95849991E+02  0.97097E+06
 0.95899994E+02  0.92898E+06
 0.95949997E+02  0.88358E+06
 0.95999992E+02  0.84351E+06
 0.96049995E+02  0.81017E+06
 0.96099991E+02  0.77761E+06
 0.96149994E+02  0.74252E+06
 0.96199997E+02  0.70414E+06
 0.96249992E+02  0.66315E+06
 0.96299995E+02  0.62103E+06
 0.96349991E+02  0.57867E+06
 0.96399994E+02  0.53361E+06
 0.96449997E+02  0.48286E+06
 0.96499992E+02  0.42768E+06
 0.96549995E+02  0.37402E+06
 0.96599991E+02  0.32675E+06
 0.96649994E+02  0.28493E+06
 0.96699997E+02  0.24968E+06
 0.96749992E+02  0.22164E+06
 0.96799995E+02  0.20012E+06
 0.96849991E+02  0.18683E+06
 0.96899994E+02  0.18305E+06
 0.96949997E+02  0.18925E+06
 0.96999992E+02  0.20250E+06
 0.97049995E+02  0.21897E+06
 0.97099991E+02  0.23411E+06
 0.97149994E+02  0.24384E+06
 0.97199997E+02  0.25478E+06
 0.97249992E+02  0.27532E+06
 0.97299995E+02  0.30864E+06
 0.97349991E+02  0.35774E+06
 0.97399994E+02  0.41899E+06
 0.97449997E+02  0.48509E+06
 0.97499992E+02  0.54984E+06
 0.97549995E+02  0.60581E+06
 0.97599991E+02  0.65120E+06
 0.97649994E+02  0.68791E+06
 0.97699997E+02  0.71969E+06
 0.97749992E+02  0.74808E+06
 0.97799995E+02  0.77192E+06
 0.97849991E+02  0.79318E+06
 0.97899994E+02  0.81025E+06
 0.97949997E+02  0.82036E+06
 0.97999992E+02  0.82479E+06
