-0.20000000E+01  0.35451E+05
-0.19500000E+01  0.40847E+05
-0.19000000E+01  0.45213E+05
-0.18500000E+01  0.47525E+05
-0.18000000E+01  0.48673E+05
-0.17500000E+01  0.48130E+05
-0.17000000E+01  0.46574E+05
-0.16500001E+01  0.43647E+05
-0.16000000E+01  0.39342E+05
-0.15500000E+01  0.34002E+05
-0.15000000E+01  0.28420E+05
-0.14500000E+01  0.23391E+05
-0.14000001E+01  0.19382E+05
-0.13500000E+01  0.16405E+05
-0.13000001E+01  0.14377E+05
-0.12500000E+01  0.13584E+05
-0.12000000E+01  0.13343E+05
-0.11500001E+01  0.13896E+05
-0.11000000E+01  0.14710E+05
-0.10500001E+01  0.15680E+05
-0.10000000E+01  0.16894E+05
-0.95000005E+00  0.18350E+05
-0.90000010E+00  0.20444E+05
-0.85000002E+00  0.23173E+05
-0.80000007E+00  0.26146E+05
-0.75000012E+00  0.29431E+05
-0.70000005E+00  0.32333E+05
-0.65000010E+00  0.34630E+05
-0.60000014E+00  0.36290E+05
-0.55000007E+00  0.36659E+05
-0.50000012E+00  0.36047E+05
-0.45000005E+00  0.34475E+05
-0.40000010E+00  0.33119E+05
-0.35000014E+00  0.32116E+05
-0.30000007E+00  0.32220E+05
-0.25000012E+00  0.33387E+05
-0.20000005E+00  0.34859E+05
-0.15000010E+00  0.36155E+05
-0.10000014E+00  0.37154E+05
-0.50000072E-01  0.37913E+05
-0.11920929E-06  0.38285E+05
 0.49999952E-01  0.38508E+05
 0.99999905E-01  0.38812E+05
 0.14999986E+00  0.39282E+05
 0.19999981E+00  0.38807E+05
 0.24999976E+00  0.37603E+05
 0.29999995E+00  0.34939E+05
 0.34999990E+00  0.30876E+05
 0.39999986E+00  0.25758E+05
 0.44999981E+00  0.19811E+05
 0.49999976E+00  0.13291E+05
 0.54999995E+00  0.64797E+04
 0.59999990E+00 -0.60384E+03
 0.64999986E+00 -0.75212E+04
 0.69999981E+00 -0.13876E+05
 0.74999976E+00 -0.19534E+05
 0.79999971E+00 -0.23806E+05
 0.84999990E+00 -0.27001E+05
 0.89999986E+00 -0.29060E+05
 0.94999981E+00 -0.29959E+05
 0.99999976E+00 -0.29806E+05
 0.10499997E+01 -0.28791E+05
 0.10999999E+01 -0.27200E+05
 0.11499999E+01 -0.24976E+05
 0.11999998E+01 -0.22793E+05
 0.12499998E+01 -0.20741E+05
 0.12999997E+01 -0.18862E+05
 0.13499999E+01 -0.17343E+05
 0.13999999E+01 -0.15869E+05
 0.14499998E+01 -0.14413E+05
 0.14999998E+01 -0.13285E+05
 0.15499997E+01 -0.12406E+05
 0.15999999E+01 -0.11956E+05
 0.16499999E+01 -0.12315E+05
 0.16999998E+01 -0.13135E+05
 0.17499998E+01 -0.14672E+05
 0.17999997E+01 -0.17384E+05
 0.18499997E+01 -0.20909E+05
 0.18999999E+01 -0.25480E+05
 0.19499998E+01 -0.30224E+05
 0.19999998E+01 -0.35175E+05
 0.20499997E+01 -0.40051E+05
 0.20999999E+01 -0.44345E+05
 0.21499996E+01 -0.48108E+05
 0.21999998E+01 -0.50423E+05
 0.22499995E+01 -0.51598E+05
 0.22999997E+01 -0.51975E+05
 0.23499999E+01 -0.51938E+05
 0.23999996E+01 -0.51595E+05
 0.24499998E+01 -0.50729E+05
 0.24999995E+01 -0.49573E+05
 0.25499997E+01 -0.48454E+05
 0.25999999E+01 -0.46766E+05
 0.26499996E+01 -0.45136E+05
 0.26999998E+01 -0.43189E+05
 0.27499995E+01 -0.41326E+05
 0.27999997E+01 -0.39332E+05
 0.28499999E+01 -0.37399E+05
 0.28999996E+01 -0.35730E+05
 0.29499998E+01 -0.33559E+05
 0.29999995E+01 -0.31269E+05
 0.30499997E+01 -0.29017E+05
 0.30999999E+01 -0.26971E+05
 0.31499996E+01 -0.25177E+05
 0.31999998E+01 -0.23322E+05
 0.32499995E+01 -0.21565E+05
 0.32999997E+01 -0.20285E+05
 0.33499999E+01 -0.19325E+05
 0.33999996E+01 -0.19123E+05
 0.34499998E+01 -0.18852E+05
 0.34999995E+01 -0.18841E+05
 0.35499997E+01 -0.18573E+05
 0.35999994E+01 -0.17804E+05
 0.36499996E+01 -0.16497E+05
 0.36999998E+01 -0.14442E+05
 0.37499995E+01 -0.11626E+05
 0.37999997E+01 -0.80855E+04
 0.38499994E+01 -0.45959E+04
 0.38999996E+01 -0.19243E+04
 0.39499998E+01 -0.59301E+03
 0.39999995E+01 -0.37750E+03
 0.40499997E+01 -0.11422E+04
 0.40999994E+01 -0.22800E+04
 0.41499996E+01 -0.42912E+04
 0.41999998E+01 -0.63749E+04
 0.42499995E+01 -0.91659E+04
 0.42999997E+01 -0.12213E+05
 0.43499994E+01 -0.15353E+05
 0.43999996E+01 -0.18695E+05
 0.44499998E+01 -0.21606E+05
 0.44999995E+01 -0.24386E+05
 0.45499997E+01 -0.26061E+05
 0.45999994E+01 -0.26888E+05
 0.46499996E+01 -0.26164E+05
 0.46999998E+01 -0.24151E+05
 0.47499995E+01 -0.20817E+05
 0.47999997E+01 -0.16598E+05
 0.48499994E+01 -0.10586E+05
 0.48999996E+01 -0.35896E+04
 0.49499998E+01  0.45925E+04
 0.49999995E+01  0.13188E+05
 0.50499997E+01  0.21950E+05
 0.50999994E+01  0.30832E+05
 0.51499996E+01  0.39038E+05
 0.51999998E+01  0.46677E+05
 0.52499995E+01  0.52907E+05
 0.52999997E+01  0.57820E+05
 0.53499994E+01  0.61184E+05
 0.53999996E+01  0.63397E+05
 0.54499993E+01  0.63429E+05
 0.54999995E+01  0.62140E+05
 0.55499997E+01  0.59221E+05
 0.55999994E+01  0.55551E+05
 0.56499996E+01  0.50766E+05
 0.56999993E+01  0.45386E+05
 0.57499995E+01  0.40081E+05
 0.57999997E+01  0.34735E+05
 0.58499994E+01  0.29957E+05
 0.58999996E+01  0.25270E+05
 0.59499993E+01  0.21178E+05
 0.59999995E+01  0.17314E+05
 0.60499992E+01  0.14093E+05
 0.60999994E+01  0.11470E+05
 0.61499996E+01  0.95371E+04
 0.61999998E+01  0.76702E+04
 0.62499990E+01  0.63516E+04
 0.62999992E+01  0.47020E+04
 0.63499994E+01  0.33464E+04
 0.63999996E+01  0.24215E+04
 0.64499998E+01  0.16043E+04
 0.64999990E+01  0.10110E+04
 0.65499992E+01 -0.76742E+03
 0.65999994E+01 -0.31028E+04
 0.66499996E+01 -0.63882E+04
 0.66999998E+01 -0.10258E+05
 0.67499990E+01 -0.14100E+05
 0.67999992E+01 -0.17197E+05
 0.68499994E+01 -0.19556E+05
 0.68999996E+01 -0.21048E+05
 0.69499998E+01 -0.22391E+05
 0.69999990E+01 -0.23372E+05
 0.70499992E+01 -0.23952E+05
 0.70999994E+01 -0.23779E+05
 0.71499996E+01 -0.22572E+05
 0.71999998E+01 -0.20558E+05
 0.72499990E+01 -0.17824E+05
 0.72999992E+01 -0.14873E+05
 0.73499994E+01 -0.11614E+05
 0.73999996E+01 -0.82275E+04
 0.74499998E+01 -0.49236E+04
 0.74999990E+01 -0.16655E+04
 0.75499992E+01  0.19349E+04
 0.75999994E+01  0.54369E+04
 0.76499996E+01  0.88931E+04
 0.76999998E+01  0.11381E+05
 0.77499990E+01  0.13535E+05
 0.77999992E+01  0.15458E+05
 0.78499994E+01  0.17174E+05
 0.78999996E+01  0.19058E+05
 0.79499998E+01  0.20639E+05
 0.79999990E+01  0.21604E+05
 0.80499992E+01  0.21821E+05
 0.80999994E+01  0.21058E+05
 0.81499996E+01  0.19942E+05
 0.81999998E+01  0.19287E+05
 0.82499990E+01  0.18991E+05
 0.82999992E+01  0.19785E+05
 0.83499994E+01  0.21145E+05
 0.83999996E+01  0.22975E+05
 0.84499998E+01  0.24725E+05
 0.84999990E+01  0.25912E+05
 0.85499992E+01  0.27236E+05
 0.85999994E+01  0.28633E+05
 0.86499996E+01  0.29949E+05
 0.86999998E+01  0.30645E+05
 0.87499990E+01  0.30906E+05
 0.87999992E+01  0.30907E+05
 0.88499994E+01  0.30817E+05
 0.88999996E+01  0.30959E+05
 0.89499998E+01  0.31388E+05
 0.89999990E+01  0.31554E+05
 0.90499992E+01  0.31207E+05
 0.90999994E+01  0.30086E+05
 0.91499996E+01  0.28452E+05
 0.91999989E+01  0.26469E+05
 0.92499990E+01  0.24343E+05
 0.92999992E+01  0.22693E+05
 0.93499994E+01  0.21856E+05
 0.93999996E+01  0.21837E+05
 0.94499989E+01  0.22141E+05
 0.94999990E+01  0.22625E+05
 0.95499992E+01  0.23109E+05
 0.95999994E+01  0.23593E+05
 0.96499996E+01  0.23645E+05
 0.96999989E+01  0.23433E+05
 0.97499990E+01  0.22097E+05
 0.97999992E+01  0.19554E+05
 0.98499994E+01  0.15379E+05
 0.98999996E+01  0.10154E+05
 0.99499989E+01  0.46288E+04
 0.99999990E+01 -0.81949E+03
 0.10049999E+02 -0.64747E+04
 0.10099999E+02 -0.12166E+05
 0.10150000E+02 -0.17895E+05
 0.10199999E+02 -0.23245E+05
 0.10249999E+02 -0.27283E+05
 0.10299999E+02 -0.29819E+05
 0.10349999E+02 -0.30353E+05
 0.10400000E+02 -0.29387E+05
 0.10449999E+02 -0.27095E+05
 0.10499999E+02 -0.24376E+05
 0.10549999E+02 -0.21299E+05
 0.10599999E+02 -0.18592E+05
 0.10650000E+02 -0.16410E+05
 0.10699999E+02 -0.14602E+05
 0.10749999E+02 -0.12923E+05
 0.10799999E+02 -0.11028E+05
 0.10849999E+02 -0.95136E+04
 0.10900000E+02 -0.84460E+04
 0.10949999E+02 -0.76696E+04
 0.10999999E+02 -0.70544E+04
 0.11049999E+02 -0.65410E+04
 0.11099999E+02 -0.63899E+04
 0.11150000E+02 -0.74228E+04
 0.11199999E+02 -0.92041E+04
 0.11249999E+02 -0.11786E+05
 0.11299999E+02 -0.14284E+05
 0.11349999E+02 -0.16910E+05
 0.11400000E+02 -0.19288E+05
 0.11449999E+02 -0.20823E+05
 0.11499999E+02 -0.21958E+05
 0.11549999E+02 -0.22113E+05
 0.11599999E+02 -0.21955E+05
 0.11650000E+02 -0.21627E+05
 0.11699999E+02 -0.21332E+05
 0.11749999E+02 -0.20678E+05
 0.11799999E+02 -0.20214E+05
 0.11849999E+02 -0.19886E+05
 0.11900000E+02 -0.20150E+05
 0.11949999E+02 -0.20756E+05
 0.11999999E+02 -0.21721E+05
 0.12049999E+02 -0.22819E+05
 0.12099999E+02 -0.23840E+05
 0.12150000E+02 -0.24497E+05
 0.12199999E+02 -0.24595E+05
 0.12249999E+02 -0.24345E+05
 0.12299999E+02 -0.24420E+05
 0.12349999E+02 -0.24974E+05
 0.12400000E+02 -0.25450E+05
 0.12449999E+02 -0.26275E+05
 0.12499999E+02 -0.26722E+05
 0.12549999E+02 -0.27100E+05
 0.12599999E+02 -0.27059E+05
 0.12649999E+02 -0.27546E+05
 0.12699999E+02 -0.27987E+05
 0.12749999E+02 -0.28678E+05
 0.12799999E+02 -0.29570E+05
 0.12849999E+02 -0.30609E+05
 0.12899999E+02 -0.31532E+05
 0.12949999E+02 -0.31518E+05
 0.12999999E+02 -0.30822E+05
 0.13049999E+02 -0.29098E+05
 0.13099999E+02 -0.26705E+05
 0.13149999E+02 -0.23538E+05
 0.13199999E+02 -0.20341E+05
 0.13249999E+02 -0.16707E+05
 0.13299999E+02 -0.13201E+05
 0.13349999E+02 -0.98491E+04
 0.13399999E+02 -0.71809E+04
 0.13449999E+02 -0.47339E+04
 0.13499999E+02 -0.19982E+04
 0.13549999E+02  0.78208E+03
 0.13599999E+02  0.39065E+04
 0.13649999E+02  0.70114E+04
 0.13699999E+02  0.98137E+04
 0.13749999E+02  0.11523E+05
 0.13799999E+02  0.12555E+05
 0.13849999E+02  0.12760E+05
 0.13899999E+02  0.12727E+05
 0.13949999E+02  0.12495E+05
 0.13999999E+02  0.12544E+05
 0.14049999E+02  0.12275E+05
 0.14099998E+02  0.11518E+05
 0.14150000E+02  0.94425E+04
 0.14199999E+02  0.61062E+04
 0.14249998E+02  0.17213E+04
 0.14299999E+02 -0.31518E+04
 0.14349998E+02 -0.80663E+04
 0.14400000E+02 -0.13179E+05
 0.14449999E+02 -0.17878E+05
 0.14499998E+02 -0.22595E+05
 0.14549999E+02 -0.26696E+05
 0.14599998E+02 -0.30163E+05
 0.14650000E+02 -0.32798E+05
 0.14699999E+02 -0.35105E+05
 0.14749998E+02 -0.36508E+05
 0.14799999E+02 -0.36998E+05
 0.14849998E+02 -0.35961E+05
 0.14900000E+02 -0.33145E+05
 0.14949999E+02 -0.28836E+05
 0.14999998E+02 -0.23340E+05
 0.15049999E+02 -0.17328E+05
 0.15099998E+02 -0.10891E+05
 0.15150000E+02 -0.49433E+04
 0.15199999E+02  0.44973E+03
 0.15249998E+02  0.53353E+04
 0.15299999E+02  0.93755E+04
 0.15349998E+02  0.12692E+05
 0.15400000E+02  0.15593E+05
 0.15449999E+02  0.17850E+05
 0.15499998E+02  0.19340E+05
 0.15549999E+02  0.20012E+05
 0.15599998E+02  0.19919E+05
 0.15650000E+02  0.19706E+05
 0.15699999E+02  0.19219E+05
 0.15749998E+02  0.18902E+05
 0.15799999E+02  0.18758E+05
 0.15849998E+02  0.18754E+05
 0.15900000E+02  0.18854E+05
 0.15949999E+02  0.19271E+05
 0.15999998E+02  0.20233E+05
 0.16049999E+02  0.21674E+05
 0.16099998E+02  0.23506E+05
 0.16150000E+02  0.26192E+05
 0.16199999E+02  0.29067E+05
 0.16249998E+02  0.31806E+05
 0.16299999E+02  0.34386E+05
 0.16349998E+02  0.36200E+05
 0.16400000E+02  0.37470E+05
 0.16449999E+02  0.37998E+05
 0.16499998E+02  0.38274E+05
 0.16549999E+02  0.37983E+05
 0.16599998E+02  0.37442E+05
 0.16650000E+02  0.36970E+05
 0.16699999E+02  0.36674E+05
 0.16749998E+02  0.36895E+05
 0.16799999E+02  0.37823E+05
 0.16849998E+02  0.39144E+05
 0.16900000E+02  0.40734E+05
 0.16949999E+02  0.42554E+05
 0.16999998E+02  0.44960E+05
 0.17049999E+02  0.47827E+05
 0.17099998E+02  0.51034E+05
 0.17150000E+02  0.53904E+05
 0.17199999E+02  0.55850E+05
 0.17249998E+02  0.56971E+05
 0.17299999E+02  0.57408E+05
 0.17349998E+02  0.56964E+05
 0.17400000E+02  0.55482E+05
 0.17449999E+02  0.52794E+05
 0.17499998E+02  0.48932E+05
 0.17549999E+02  0.44501E+05
 0.17599998E+02  0.39204E+05
 0.17650000E+02  0.33456E+05
 0.17699999E+02  0.27328E+05
 0.17749998E+02  0.20919E+05
 0.17799999E+02  0.14182E+05
 0.17849998E+02  0.71779E+04
 0.17900000E+02  0.12128E+03
 0.17949999E+02 -0.65098E+04
 0.17999998E+02 -0.12431E+05
 0.18049999E+02 -0.17590E+05
 0.18099998E+02 -0.22000E+05
 0.18150000E+02 -0.25559E+05
 0.18199999E+02 -0.28194E+05
 0.18249998E+02 -0.30014E+05
 0.18299999E+02 -0.30704E+05
 0.18349998E+02 -0.31086E+05
 0.18400000E+02 -0.30776E+05
 0.18449999E+02 -0.30276E+05
 0.18499998E+02 -0.30288E+05
 0.18549999E+02 -0.30861E+05
 0.18599998E+02 -0.32267E+05
 0.18650000E+02 -0.33948E+05
 0.18699999E+02 -0.36006E+05
 0.18749998E+02 -0.38499E+05
 0.18799999E+02 -0.41307E+05
 0.18849998E+02 -0.44394E+05
 0.18900000E+02 -0.47506E+05
 0.18949999E+02 -0.49964E+05
 0.18999998E+02 -0.52477E+05
 0.19049999E+02 -0.54733E+05
 0.19099998E+02 -0.56952E+05
 0.19150000E+02 -0.58320E+05
 0.19199999E+02 -0.59173E+05
 0.19249998E+02 -0.59215E+05
 0.19299999E+02 -0.58727E+05
 0.19349998E+02 -0.57504E+05
 0.19400000E+02 -0.55470E+05
 0.19449999E+02 -0.53129E+05
 0.19499998E+02 -0.49933E+05
 0.19549999E+02 -0.46612E+05
 0.19599998E+02 -0.42459E+05
 0.19650000E+02 -0.38063E+05
 0.19699999E+02 -0.32898E+05
 0.19749998E+02 -0.27807E+05
 0.19799999E+02 -0.22455E+05
 0.19849998E+02 -0.17253E+05
 0.19900000E+02 -0.12613E+05
 0.19949999E+02 -0.84030E+04
 0.19999998E+02 -0.51329E+04
 0.20049999E+02 -0.27572E+04
 0.20099998E+02 -0.12616E+04
 0.20150000E+02 -0.19433E+03
 0.20199999E+02  0.48744E+03
 0.20249998E+02  0.98981E+03
 0.20299999E+02  0.97321E+03
 0.20349998E+02  0.62672E+03
 0.20399998E+02 -0.52691E+03
 0.20449999E+02 -0.16386E+04
 0.20499998E+02 -0.28292E+04
 0.20549999E+02 -0.37594E+04
 0.20599998E+02 -0.42392E+04
 0.20649998E+02 -0.44414E+04
 0.20699999E+02 -0.42554E+04
 0.20749998E+02 -0.43468E+04
 0.20799999E+02 -0.44636E+04
 0.20849998E+02 -0.47357E+04
 0.20899998E+02 -0.47005E+04
 0.20949999E+02 -0.42330E+04
 0.20999998E+02 -0.35180E+04
 0.21049999E+02 -0.25350E+04
 0.21099998E+02 -0.13911E+04
 0.21149998E+02  0.20097E+04
 0.21199999E+02  0.10667E+05
 0.21249998E+02  0.20521E+05
 0.21299999E+02  0.22080E+05
 0.21349998E+02  0.12503E+05
 0.21399998E+02  0.44952E+04
 0.21449999E+02  0.86578E+04
 0.21499998E+02  0.21334E+05
 0.21549999E+02  0.29907E+05
 0.21599998E+02  0.28512E+05
 0.21649998E+02  0.11258E+05
 0.21699999E+02  0.38081E+04
 0.21749998E+02  0.14438E+05
 0.21799999E+02  0.31306E+05
 0.21849998E+02  0.47748E+05
 0.21899998E+02  0.49131E+05
 0.21949999E+02  0.44621E+05
 0.21999998E+02  0.37782E+05
 0.22049999E+02  0.39086E+05
 0.22099998E+02  0.28491E+05
 0.22149998E+02  0.39151E+05
 0.22199999E+02  0.42383E+05
 0.22249998E+02  0.33848E+05
 0.22299999E+02  0.49294E+05
 0.22349998E+02  0.59948E+05
 0.22399998E+02  0.58226E+05
 0.22449999E+02  0.58813E+05
 0.22499998E+02  0.94056E+05
 0.22549999E+02  0.11649E+06
 0.22599998E+02  0.11400E+06
 0.22649998E+02  0.83070E+05
 0.22699999E+02  0.47289E+05
 0.22749998E+02  0.20112E+05
 0.22799999E+02  0.17231E+05
 0.22849998E+02  0.21845E+05
 0.22899998E+02  0.19105E+05
 0.22949999E+02 -0.10171E+04
 0.22999998E+02 -0.19017E+05
 0.23049999E+02  0.56772E+04
 0.23099998E+02  0.39750E+05
 0.23149998E+02  0.54192E+05
 0.23199999E+02  0.34673E+05
 0.23249998E+02  0.79593E+05
 0.23299999E+02  0.95598E+05
 0.23349998E+02  0.54375E+05
 0.23399998E+02  0.53595E+05
 0.23449999E+02  0.51526E+05
 0.23499998E+02  0.93744E+04
 0.23549999E+02 -0.11409E+05
 0.23599998E+02  0.34012E+03
 0.23649998E+02 -0.48732E+05
 0.23699999E+02 -0.37234E+05
 0.23749998E+02 -0.83823E+04
 0.23799999E+02  0.36061E+05
 0.23849998E+02  0.49433E+05
 0.23899998E+02  0.80970E+04
 0.23949999E+02  0.32641E+05
 0.23999998E+02  0.70595E+05
 0.24049999E+02  0.90564E+05
 0.24099998E+02  0.73266E+04
 0.24149998E+02 -0.56257E+05
 0.24199999E+02 -0.71348E+05
 0.24249998E+02 -0.76056E+05
 0.24299999E+02 -0.10571E+06
 0.24349998E+02 -0.72511E+05
 0.24399998E+02  0.15521E+04
 0.24449999E+02  0.42003E+05
 0.24499998E+02  0.58184E+05
 0.24549999E+02  0.97920E+05
 0.24599998E+02  0.95644E+05
 0.24649998E+02  0.27590E+05
 0.24699999E+02  0.16115E+05
 0.24749998E+02 -0.37822E+05
 0.24799999E+02 -0.90482E+05
 0.24849998E+02 -0.18067E+06
 0.24899998E+02 -0.17390E+06
 0.24949999E+02 -0.93824E+05
 0.24999998E+02 -0.32188E+05
 0.25049999E+02 -0.33279E+05
 0.25099998E+02 -0.15741E+05
 0.25149998E+02 -0.24275E+05
 0.25199999E+02 -0.11012E+06
 0.25249998E+02 -0.15179E+06
 0.25299999E+02 -0.67731E+05
 0.25349998E+02  0.54177E+05
 0.25399998E+02  0.29590E+05
 0.25449999E+02 -0.35317E+04
 0.25499998E+02 -0.62892E+05
 0.25549999E+02 -0.73487E+05
 0.25599998E+02 -0.18850E+05
 0.25649998E+02  0.51413E+05
 0.25699999E+02 -0.10520E+06
 0.25749998E+02 -0.28619E+06
 0.25799999E+02 -0.26645E+06
 0.25849998E+02 -0.22665E+06
 0.25899998E+02 -0.81196E+05
 0.25949999E+02  0.11152E+05
 0.25999998E+02  0.32534E+05
 0.26049999E+02  0.99830E+05
 0.26099998E+02  0.21733E+06
 0.26149998E+02  0.17545E+06
 0.26199999E+02  0.96971E+05
 0.26249998E+02  0.50452E+05
 0.26299999E+02 -0.38431E+05
 0.26349998E+02 -0.10480E+06
 0.26399998E+02 -0.29457E+06
 0.26449999E+02 -0.42541E+06
 0.26499998E+02 -0.52990E+06
 0.26549999E+02 -0.45807E+06
 0.26599998E+02 -0.33691E+06
 0.26649998E+02 -0.33560E+06
 0.26699999E+02 -0.21777E+06
 0.26749998E+02 -0.16703E+05
 0.26799999E+02  0.90052E+05
 0.26849998E+02  0.15356E+06
 0.26899998E+02  0.16304E+06
 0.26949999E+02  0.16214E+06
 0.26999998E+02  0.33145E+06
 0.27049997E+02  0.19431E+06
 0.27099998E+02 -0.51942E+05
 0.27149998E+02 -0.14826E+06
 0.27199999E+02 -0.17834E+06
 0.27249998E+02 -0.12591E+06
 0.27299997E+02 -0.11116E+06
 0.27349998E+02 -0.18644E+06
 0.27399998E+02 -0.16143E+06
 0.27449999E+02 -0.74130E+05
 0.27499998E+02 -0.41813E+05
 0.27549997E+02  0.30152E+05
 0.27599998E+02 -0.40068E+05
 0.27649998E+02 -0.18298E+06
 0.27699999E+02 -0.17717E+06
 0.27749998E+02 -0.19436E+06
 0.27799997E+02 -0.26070E+06
 0.27849998E+02 -0.22326E+06
 0.27899998E+02 -0.10042E+06
 0.27949999E+02  0.10529E+06
 0.27999998E+02  0.27626E+06
 0.28049997E+02  0.34220E+06
 0.28099998E+02  0.28323E+06
 0.28149998E+02  0.31955E+06
 0.28199999E+02  0.35514E+06
 0.28249998E+02  0.33873E+06
 0.28299997E+02  0.27741E+06
 0.28349998E+02  0.34251E+05
 0.28399998E+02 -0.19583E+06
 0.28449999E+02 -0.34396E+06
 0.28499998E+02 -0.36083E+06
 0.28549997E+02 -0.26023E+06
 0.28599998E+02 -0.27531E+06
 0.28649998E+02 -0.17301E+06
 0.28699999E+02  0.16098E+06
 0.28749998E+02  0.21824E+06
 0.28799997E+02  0.22860E+06
 0.28849998E+02  0.30160E+06
 0.28899998E+02  0.14031E+06
 0.28949999E+02  0.20461E+05
 0.28999998E+02 -0.57017E+05
 0.29049997E+02 -0.19494E+06
 0.29099998E+02 -0.24389E+06
 0.29149998E+02 -0.19976E+06
 0.29199999E+02 -0.11343E+06
 0.29249998E+02 -0.70552E+05
 0.29299997E+02  0.45859E+05
 0.29349998E+02  0.24849E+05
 0.29399998E+02  0.10367E+06
 0.29449999E+02  0.29390E+06
 0.29499998E+02  0.21594E+06
 0.29549997E+02  0.80821E+05
 0.29599998E+02 -0.57610E+04
 0.29649998E+02 -0.37466E+05
 0.29699999E+02 -0.16157E+06
 0.29749998E+02 -0.16407E+06
 0.29799997E+02 -0.70441E+05
 0.29849998E+02 -0.39348E+05
 0.29899998E+02  0.56507E+05
 0.29949999E+02  0.12307E+06
 0.29999998E+02  0.77689E+05
 0.30049999E+02  0.10018E+06
 0.30099998E+02  0.25440E+06
 0.30149998E+02  0.29723E+06
 0.30199997E+02  0.99250E+05
 0.30249996E+02 -0.12388E+06
 0.30299999E+02 -0.16478E+06
 0.30349998E+02  0.11764E+06
 0.30399998E+02  0.24411E+06
 0.30449997E+02  0.24117E+05
 0.30499996E+02 -0.80854E+05
 0.30549999E+02 -0.20843E+06
 0.30599998E+02 -0.10669E+06
 0.30649998E+02  0.16808E+06
 0.30699997E+02  0.30703E+06
 0.30749996E+02  0.32205E+06
 0.30799999E+02  0.33732E+06
 0.30849998E+02  0.35552E+06
 0.30899998E+02  0.23871E+06
 0.30949997E+02  0.25177E+06
 0.30999996E+02  0.26346E+06
 0.31049999E+02  0.19387E+06
 0.31099998E+02  0.57394E+05
 0.31149998E+02 -0.53458E+05
 0.31199997E+02 -0.21882E+05
 0.31249996E+02 -0.15238E+05
 0.31299999E+02  0.53777E+05
 0.31349998E+02  0.18493E+06
 0.31399998E+02  0.22658E+06
 0.31449997E+02  0.14277E+06
 0.31499996E+02 -0.55406E+05
 0.31549999E+02 -0.16597E+06
 0.31599998E+02 -0.14822E+06
 0.31649998E+02 -0.55377E+05
 0.31699997E+02  0.84458E+05
 0.31749996E+02  0.10116E+06
 0.31799999E+02 -0.32263E+05
 0.31849998E+02 -0.21256E+06
 0.31899998E+02 -0.21847E+06
 0.31949997E+02 -0.69674E+05
 0.31999996E+02  0.13923E+06
 0.32049999E+02  0.23395E+06
 0.32099998E+02  0.45079E+04
 0.32149998E+02 -0.16836E+06
 0.32199997E+02 -0.46310E+05
 0.32249996E+02  0.18561E+06
 0.32299999E+02  0.25039E+06
 0.32349998E+02  0.30004E+05
 0.32399998E+02 -0.17933E+06
 0.32449997E+02 -0.29211E+06
 0.32499996E+02 -0.33544E+06
 0.32549999E+02 -0.44874E+06
 0.32599998E+02 -0.63233E+06
 0.32649998E+02 -0.59936E+06
 0.32699997E+02 -0.41952E+06
 0.32749996E+02 -0.21443E+06
 0.32799999E+02 -0.12759E+06
 0.32849998E+02 -0.20323E+06
 0.32899998E+02 -0.27083E+06
 0.32949997E+02 -0.18412E+06
 0.32999996E+02 -0.97097E+05
 0.33049999E+02 -0.37107E+05
 0.33099998E+02 -0.11136E+06
 0.33149998E+02 -0.21970E+06
 0.33199997E+02 -0.14092E+06
 0.33249996E+02 -0.41386E+05
 0.33299999E+02  0.43456E+04
 0.33349998E+02 -0.35587E+05
 0.33399998E+02 -0.57301E+05
 0.33449997E+02 -0.95176E+05
 0.33499996E+02 -0.43355E+05
 0.33549999E+02 -0.32815E+05
 0.33599998E+02 -0.11487E+06
 0.33649998E+02 -0.22550E+06
 0.33699997E+02 -0.31168E+06
 0.33749996E+02 -0.25638E+06
 0.33799999E+02 -0.27993E+06
 0.33849998E+02 -0.32671E+06
 0.33899998E+02 -0.31378E+06
 0.33949997E+02 -0.23295E+06
 0.33999996E+02 -0.16874E+06
 0.34049999E+02 -0.10703E+06
 0.34099998E+02 -0.35175E+05
 0.34149998E+02 -0.57196E+05
 0.34199997E+02  0.21044E+05
 0.34249996E+02  0.18023E+05
 0.34299999E+02 -0.63004E+05
 0.34349998E+02  0.44825E+05
 0.34399998E+02  0.15441E+06
 0.34449997E+02  0.18081E+06
 0.34499996E+02  0.13580E+06
 0.34549999E+02  0.39442E+05
 0.34599998E+02 -0.12342E+05
 0.34649998E+02  0.11171E+04
 0.34699997E+02  0.39123E+05
 0.34749996E+02  0.97386E+05
 0.34799999E+02 -0.47532E+03
 0.34849998E+02 -0.12964E+06
 0.34899998E+02 -0.24950E+06
 0.34949997E+02 -0.31041E+06
 0.34999996E+02 -0.24040E+06
 0.35049999E+02 -0.15870E+06
 0.35099998E+02  0.18629E+05
 0.35149998E+02  0.13083E+06
 0.35199997E+02  0.17826E+06
 0.35249996E+02  0.26185E+06
 0.35299999E+02  0.30312E+06
 0.35349998E+02  0.22799E+06
 0.35399998E+02  0.47764E+05
 0.35449997E+02 -0.15915E+06
 0.35499996E+02 -0.11523E+06
 0.35549999E+02  0.14367E+06
 0.35599998E+02  0.29903E+06
 0.35649998E+02  0.29924E+06
 0.35699997E+02  0.26635E+06
 0.35749996E+02  0.26284E+06
 0.35799999E+02  0.35051E+06
 0.35849998E+02  0.47210E+06
 0.35899998E+02  0.38398E+06
 0.35949997E+02  0.10321E+06
 0.35999996E+02  0.36575E+05
 0.36049999E+02  0.37366E+06
 0.36099998E+02  0.90870E+06
 0.36149998E+02  0.97285E+06
 0.36199997E+02  0.31203E+06
 0.36249996E+02 -0.35672E+06
 0.36299999E+02 -0.35584E+06
 0.36349998E+02  0.31803E+06
 0.36399998E+02  0.10207E+07
 0.36449997E+02  0.11092E+07
 0.36499996E+02  0.53976E+06
 0.36549999E+02  0.76582E+04
 0.36599998E+02 -0.20101E+06
 0.36649998E+02 -0.10052E+06
 0.36699997E+02  0.35183E+06
 0.36749996E+02  0.87222E+06
 0.36799999E+02  0.90931E+06
 0.36849998E+02  0.34773E+06
 0.36899998E+02 -0.78362E+05
 0.36949997E+02 -0.10025E+06
 0.36999996E+02  0.63539E+05
 0.37049999E+02  0.24229E+06
 0.37099998E+02  0.33565E+06
 0.37149998E+02  0.33021E+06
 0.37199997E+02  0.32095E+06
 0.37249996E+02  0.49216E+06
 0.37299999E+02  0.53170E+06
 0.37349998E+02  0.16974E+06
 0.37399998E+02 -0.17490E+05
 0.37449997E+02  0.28878E+06
 0.37499996E+02  0.48578E+06
 0.37549999E+02 -0.70094E+05
 0.37599998E+02 -0.10456E+07
 0.37649998E+02 -0.12225E+07
 0.37699997E+02 -0.45174E+06
 0.37749996E+02  0.34883E+06
 0.37799999E+02  0.41833E+06
 0.37849998E+02 -0.42634E+06
 0.37899998E+02 -0.14884E+07
 0.37949997E+02 -0.18528E+07
 0.37999996E+02 -0.16570E+07
 0.38049999E+02 -0.12576E+07
 0.38099998E+02 -0.78082E+06
 0.38149998E+02 -0.31439E+06
 0.38199997E+02 -0.21490E+06
 0.38249996E+02 -0.38045E+06
 0.38299999E+02 -0.17019E+06
 0.38349998E+02  0.40399E+06
 0.38399998E+02  0.11017E+07
 0.38449997E+02  0.12054E+07
 0.38499996E+02  0.76043E+06
 0.38549999E+02  0.93323E+05
 0.38599998E+02 -0.35586E+06
 0.38649998E+02 -0.62431E+06
 0.38699997E+02 -0.66980E+06
 0.38749996E+02 -0.12383E+06
 0.38799999E+02  0.32287E+06
 0.38849998E+02 -0.14408E+06
 0.38899998E+02 -0.15444E+07
 0.38949997E+02 -0.28699E+07
 0.38999996E+02 -0.36612E+07
 0.39049999E+02 -0.37947E+07
 0.39099998E+02 -0.31440E+07
 0.39149998E+02 -0.20354E+07
 0.39199997E+02 -0.10677E+07
 0.39249996E+02 -0.33813E+06
 0.39299999E+02  0.22552E+06
 0.39349998E+02  0.56336E+06
 0.39399998E+02  0.54122E+06
 0.39449997E+02  0.18284E+06
 0.39499996E+02 -0.76372E+05
 0.39549999E+02 -0.17373E+06
 0.39599998E+02 -0.27917E+06
 0.39649998E+02 -0.58232E+06
 0.39699997E+02 -0.78905E+06
 0.39749996E+02 -0.53726E+06
 0.39799999E+02 -0.48095E+05
 0.39849998E+02  0.29703E+06
 0.39899998E+02 -0.14348E+05
 0.39949997E+02 -0.80826E+06
 0.39999996E+02 -0.96596E+06
 0.40049999E+02 -0.58268E+06
 0.40099998E+02 -0.16712E+06
 0.40149998E+02  0.47563E+06
 0.40199997E+02  0.72821E+06
 0.40249996E+02  0.25261E+06
 0.40299999E+02 -0.31844E+06
 0.40349998E+02 -0.78536E+06
 0.40399998E+02 -0.92260E+06
 0.40449997E+02 -0.73739E+06
 0.40499996E+02 -0.33245E+06
 0.40549999E+02  0.32246E+06
 0.40599998E+02  0.74144E+06
 0.40649998E+02  0.11618E+07
 0.40699997E+02  0.17810E+07
 0.40749996E+02  0.18654E+07
 0.40799999E+02  0.11271E+07
 0.40849998E+02  0.34512E+06
 0.40899998E+02 -0.31679E+05
 0.40949997E+02  0.92078E+05
 0.40999996E+02  0.36365E+06
 0.41049999E+02  0.25439E+06
 0.41099998E+02  0.22728E+06
 0.41149998E+02  0.44713E+06
 0.41199997E+02  0.54622E+06
 0.41249996E+02  0.62631E+06
 0.41299999E+02  0.69154E+06
 0.41349998E+02  0.69876E+06
 0.41399998E+02  0.91699E+06
 0.41449997E+02  0.12729E+07
 0.41499996E+02  0.17777E+07
 0.41549999E+02  0.23071E+07
 0.41599998E+02  0.25141E+07
 0.41649998E+02  0.24360E+07
 0.41699997E+02  0.20941E+07
 0.41749996E+02  0.18774E+07
 0.41799999E+02  0.19516E+07
 0.41849998E+02  0.19699E+07
 0.41899998E+02  0.16542E+07
 0.41949997E+02  0.10361E+07
 0.41999996E+02  0.59155E+06
 0.42049999E+02  0.48086E+06
 0.42099998E+02  0.74089E+06
 0.42149998E+02  0.68266E+06
 0.42199997E+02 -0.19829E+05
 0.42249996E+02 -0.84358E+06
 0.42299999E+02 -0.12857E+07
 0.42349998E+02 -0.11846E+07
 0.42399998E+02 -0.10720E+07
 0.42449997E+02 -0.79536E+06
 0.42499996E+02 -0.37158E+06
 0.42549999E+02 -0.10345E+06
 0.42599998E+02 -0.14327E+06
 0.42649998E+02 -0.66646E+06
 0.42699997E+02 -0.14564E+07
 0.42749996E+02 -0.20596E+07
 0.42799995E+02 -0.20506E+07
 0.42849998E+02 -0.16761E+07
 0.42899998E+02 -0.11896E+07
 0.42949997E+02 -0.67274E+06
 0.42999996E+02 -0.34629E+06
 0.43049995E+02 -0.22297E+06
 0.43099998E+02 -0.31235E+06
 0.43149998E+02 -0.67493E+06
 0.43199997E+02 -0.74426E+06
 0.43249996E+02 -0.57218E+06
 0.43299995E+02 -0.73785E+06
 0.43349998E+02 -0.75264E+06
 0.43399998E+02 -0.34801E+06
 0.43449997E+02  0.30433E+06
 0.43499996E+02  0.89923E+06
 0.43549995E+02  0.10449E+07
 0.43599998E+02  0.63025E+06
 0.43649998E+02 -0.34731E+06
 0.43699997E+02 -0.12297E+07
 0.43749996E+02 -0.13991E+07
 0.43799995E+02 -0.92493E+06
 0.43849998E+02 -0.99901E+05
 0.43899998E+02  0.76930E+06
 0.43949997E+02  0.14294E+07
 0.43999996E+02  0.13745E+07
 0.44049995E+02  0.59981E+06
 0.44099998E+02 -0.56509E+06
 0.44149998E+02 -0.14907E+07
 0.44199997E+02 -0.15803E+07
 0.44249996E+02 -0.87958E+06
 0.44299995E+02  0.21875E+06
 0.44349998E+02  0.99961E+06
 0.44399998E+02  0.12485E+07
 0.44449997E+02  0.11899E+07
 0.44499996E+02  0.79801E+06
 0.44549995E+02  0.63182E+06
 0.44599998E+02  0.10996E+07
 0.44649998E+02  0.15827E+07
 0.44699997E+02  0.20580E+07
 0.44749996E+02  0.27917E+07
 0.44799995E+02  0.33766E+07
 0.44849998E+02  0.32091E+07
 0.44899998E+02  0.25100E+07
 0.44949997E+02  0.19800E+07
 0.44999996E+02  0.16541E+07
 0.45049995E+02  0.14830E+07
 0.45099998E+02  0.15677E+07
 0.45149998E+02  0.18720E+07
 0.45199997E+02  0.20615E+07
 0.45249996E+02  0.19424E+07
 0.45299995E+02  0.15223E+07
 0.45349998E+02  0.11286E+07
 0.45399998E+02  0.11359E+07
 0.45449997E+02  0.12466E+07
 0.45499996E+02  0.11123E+07
 0.45549995E+02  0.86918E+06
 0.45599998E+02  0.90251E+06
 0.45649998E+02  0.10365E+07
 0.45699997E+02  0.12391E+07
 0.45749996E+02  0.13165E+07
 0.45799995E+02  0.10358E+07
 0.45849998E+02  0.33261E+06
 0.45899998E+02 -0.32669E+06
 0.45949997E+02 -0.69984E+06
 0.45999996E+02 -0.10423E+07
 0.46049995E+02 -0.12961E+07
 0.46099998E+02 -0.14910E+07
 0.46149998E+02 -0.13920E+07
 0.46199997E+02 -0.11145E+07
 0.46249996E+02 -0.94848E+06
 0.46299995E+02 -0.10213E+07
 0.46349998E+02 -0.11723E+07
 0.46399998E+02 -0.12605E+07
 0.46449997E+02 -0.12369E+07
 0.46499996E+02 -0.12662E+07
 0.46549995E+02 -0.14136E+07
 0.46599998E+02 -0.14358E+07
 0.46649998E+02 -0.10989E+07
 0.46699997E+02 -0.61320E+06
 0.46749996E+02 -0.42668E+06
 0.46799995E+02 -0.47809E+06
 0.46849998E+02 -0.30950E+06
 0.46899998E+02  0.83488E+05
 0.46949997E+02  0.57375E+06
 0.46999996E+02  0.10483E+07
 0.47049995E+02  0.11860E+07
 0.47099998E+02  0.13380E+07
 0.47149998E+02  0.15262E+07
 0.47199997E+02  0.15069E+07
 0.47249996E+02  0.12425E+07
 0.47299995E+02  0.78610E+06
 0.47349998E+02  0.26048E+06
 0.47399998E+02 -0.10187E+06
 0.47449997E+02 -0.35556E+06
 0.47499996E+02 -0.64739E+06
 0.47549995E+02 -0.88146E+06
 0.47599998E+02 -0.11779E+07
 0.47649998E+02 -0.13709E+07
 0.47699997E+02 -0.14849E+07
 0.47749996E+02 -0.15562E+07
 0.47799995E+02 -0.14005E+07
 0.47849998E+02 -0.11614E+07
 0.47899998E+02 -0.11119E+07
 0.47949997E+02 -0.10865E+07
 0.47999996E+02 -0.96412E+06
 0.48049995E+02 -0.77061E+06
 0.48099998E+02 -0.45391E+06
 0.48149998E+02 -0.28518E+06
 0.48199997E+02 -0.28841E+06
 0.48249996E+02 -0.24588E+06
 0.48299995E+02 -0.65313E+05
 0.48349998E+02  0.16485E+05
 0.48399998E+02  0.64846E+05
 0.48449997E+02  0.17479E+06
 0.48499996E+02  0.16965E+06
 0.48549995E+02  0.62313E+05
 0.48599998E+02 -0.15482E+06
 0.48649998E+02 -0.25492E+06
 0.48699997E+02 -0.15506E+06
 0.48749996E+02 -0.14313E+06
 0.48799995E+02 -0.38656E+06
 0.48849998E+02 -0.59148E+06
 0.48899998E+02 -0.59464E+06
 0.48949997E+02 -0.60400E+06
 0.48999996E+02 -0.75575E+06
 0.49049995E+02 -0.88608E+06
 0.49099998E+02 -0.70572E+06
 0.49149998E+02 -0.42049E+06
 0.49199997E+02 -0.40754E+06
 0.49249996E+02 -0.54565E+06
 0.49299995E+02 -0.75435E+06
 0.49349998E+02 -0.10515E+07
 0.49399998E+02 -0.12256E+07
 0.49449997E+02 -0.11000E+07
 0.49499996E+02 -0.70553E+06
 0.49549995E+02 -0.28248E+06
 0.49599998E+02  0.36383E+05
 0.49649998E+02 -0.41655E+05
 0.49699997E+02 -0.39255E+06
 0.49749996E+02 -0.67318E+06
 0.49799995E+02 -0.90105E+06
 0.49849998E+02 -0.10723E+07
 0.49899998E+02 -0.13602E+07
 0.49949997E+02 -0.16231E+07
 0.49999996E+02 -0.15299E+07
 0.50049995E+02 -0.11671E+07
 0.50099998E+02 -0.71101E+06
 0.50149998E+02 -0.26560E+06
 0.50199997E+02  0.30530E+06
 0.50249996E+02  0.83102E+06
 0.50299995E+02  0.94621E+06
 0.50349998E+02  0.90030E+06
 0.50399998E+02  0.93672E+06
 0.50449997E+02  0.98394E+06
 0.50499996E+02  0.74676E+06
 0.50549995E+02  0.37888E+06
 0.50599998E+02  0.12227E+06
 0.50649998E+02  0.64023E+05
 0.50699997E+02  0.15012E+06
 0.50749996E+02  0.12982E+06
 0.50799995E+02 -0.54012E+05
 0.50849998E+02 -0.35886E+06
 0.50899998E+02 -0.54071E+06
 0.50949997E+02 -0.53847E+06
 0.50999996E+02 -0.71569E+06
 0.51049995E+02 -0.10974E+07
 0.51099998E+02 -0.13562E+07
 0.51149998E+02 -0.15648E+07
 0.51199997E+02 -0.17471E+07
 0.51249996E+02 -0.18092E+07
 0.51299995E+02 -0.16832E+07
 0.51349998E+02 -0.13283E+07
 0.51399998E+02 -0.82750E+06
 0.51449997E+02 -0.42048E+06
 0.51499996E+02 -0.12893E+06
 0.51549995E+02  0.13767E+06
 0.51599998E+02  0.22101E+06
 0.51649998E+02  0.14755E+06
 0.51699997E+02  0.12246E+06
 0.51749996E+02  0.21788E+06
 0.51799995E+02  0.21879E+06
 0.51849998E+02 -0.63361E+04
 0.51899998E+02 -0.26122E+06
 0.51949997E+02 -0.41026E+06
 0.51999996E+02 -0.44106E+06
 0.52049995E+02 -0.38540E+06
 0.52099998E+02 -0.26133E+06
 0.52149998E+02 -0.21253E+05
 0.52199997E+02  0.10490E+06
 0.52249996E+02  0.75240E+05
 0.52299995E+02  0.17844E+06
 0.52349998E+02  0.35390E+06
 0.52399998E+02  0.40893E+06
 0.52449997E+02  0.35044E+06
 0.52499996E+02  0.11225E+06
 0.52549995E+02 -0.28950E+06
 0.52599998E+02 -0.55758E+06
 0.52649998E+02 -0.73304E+06
 0.52699997E+02 -0.93119E+06
 0.52749996E+02 -0.10747E+07
 0.52799995E+02 -0.10741E+07
 0.52849998E+02 -0.85717E+06
 0.52899998E+02 -0.59952E+06
 0.52949997E+02 -0.41764E+06
 0.52999996E+02 -0.28678E+06
 0.53049995E+02 -0.25652E+06
 0.53099998E+02 -0.31969E+06
 0.53149998E+02 -0.43356E+06
 0.53199997E+02 -0.45188E+06
 0.53249996E+02 -0.33159E+06
 0.53299995E+02 -0.19294E+06
 0.53349998E+02 -0.59033E+05
 0.53399998E+02  0.62744E+05
 0.53449997E+02  0.18316E+06
 0.53499996E+02  0.29502E+06
 0.53549995E+02  0.40047E+06
 0.53599998E+02  0.49892E+06
 0.53649998E+02  0.61332E+06
 0.53699997E+02  0.73587E+06
 0.53749996E+02  0.85644E+06
 0.53799995E+02  0.97701E+06
 0.53849998E+02  0.11998E+07
 0.53899998E+02  0.13659E+07
 0.53949997E+02  0.12947E+07
 0.53999996E+02  0.12644E+07
 0.54049995E+02  0.13527E+07
 0.54099998E+02  0.14278E+07
 0.54149998E+02  0.14916E+07
 0.54199997E+02  0.16645E+07
 0.54249996E+02  0.18386E+07
 0.54299995E+02  0.17713E+07
 0.54349998E+02  0.15064E+07
 0.54399998E+02  0.12086E+07
 0.54449997E+02  0.10096E+07
 0.54499996E+02  0.90439E+06
 0.54549995E+02  0.70716E+06
 0.54599998E+02  0.44300E+06
 0.54649998E+02  0.23980E+06
 0.54699997E+02 -0.65276E+04
 0.54749996E+02 -0.26030E+06
 0.54799995E+02 -0.37653E+06
 0.54849998E+02 -0.36253E+06
 0.54899998E+02 -0.37599E+06
 0.54949997E+02 -0.57990E+06
 0.54999996E+02 -0.87497E+06
 0.55049995E+02 -0.10094E+07
 0.55099998E+02 -0.91449E+06
 0.55149998E+02 -0.72422E+06
 0.55199997E+02 -0.57674E+06
 0.55249996E+02 -0.48481E+06
 0.55299995E+02 -0.32077E+06
 0.55349998E+02 -0.98345E+05
 0.55399998E+02  0.90612E+05
 0.55449997E+02  0.27101E+06
 0.55499996E+02  0.38547E+06
 0.55549995E+02  0.38624E+06
 0.55599998E+02  0.32613E+06
 0.55649998E+02  0.29099E+06
 0.55699997E+02  0.28871E+06
 0.55749996E+02  0.29676E+06
 0.55799995E+02  0.27456E+06
 0.55849995E+02  0.22293E+06
 0.55899998E+02  0.20002E+06
 0.55949997E+02  0.26920E+06
 0.55999996E+02  0.42651E+06
 0.56049995E+02  0.56897E+06
 0.56099995E+02  0.62533E+06
 0.56149998E+02  0.59240E+06
 0.56199997E+02  0.49699E+06
 0.56249996E+02  0.32436E+06
 0.56299995E+02  0.14311E+06
 0.56349995E+02 -0.11483E+05
 0.56399998E+02 -0.13375E+06
 0.56449997E+02 -0.23388E+06
 0.56499996E+02 -0.25906E+06
 0.56549995E+02 -0.20931E+06
 0.56599995E+02 -0.13669E+06
 0.56649998E+02 -0.12299E+06
 0.56699997E+02 -0.17970E+06
 0.56749996E+02 -0.20588E+06
 0.56799995E+02 -0.18859E+06
 0.56849995E+02 -0.15795E+06
 0.56899998E+02 -0.15157E+06
 0.56949997E+02 -0.18210E+06
 0.56999996E+02 -0.29672E+06
 0.57049995E+02 -0.38988E+06
 0.57099995E+02 -0.35154E+06
 0.57149998E+02 -0.16533E+06
 0.57199997E+02  0.74049E+05
 0.57249996E+02  0.30516E+06
 0.57299995E+02  0.48016E+06
 0.57349995E+02  0.59147E+06
 0.57399998E+02  0.64255E+06
 0.57449997E+02  0.54942E+06
 0.57499996E+02  0.31412E+06
 0.57549995E+02  0.47558E+04
 0.57599995E+02 -0.24909E+06
 0.57649998E+02 -0.40866E+06
 0.57699997E+02 -0.43938E+06
 0.57749996E+02 -0.30744E+06
 0.57799995E+02 -0.65733E+05
 0.57849995E+02  0.20911E+06
 0.57899998E+02  0.49724E+06
 0.57949997E+02  0.75324E+06
 0.57999996E+02  0.87379E+06
 0.58049995E+02  0.86567E+06
 0.58099995E+02  0.75189E+06
 0.58149998E+02  0.52619E+06
 0.58199997E+02  0.29582E+06
 0.58249996E+02  0.12242E+06
 0.58299995E+02 -0.25119E+05
 0.58349995E+02 -0.20727E+06
 0.58399998E+02 -0.41900E+06
 0.58449997E+02 -0.54426E+06
 0.58499996E+02 -0.57118E+06
 0.58549995E+02 -0.57042E+06
 0.58599995E+02 -0.50197E+06
 0.58649998E+02 -0.34341E+06
 0.58699997E+02 -0.17515E+06
 0.58749996E+02 -0.45169E+05
 0.58799995E+02  0.69797E+05
 0.58849995E+02  0.13514E+06
 0.58899998E+02  0.14091E+06
 0.58949997E+02  0.17653E+06
 0.58999996E+02  0.21446E+06
 0.59049995E+02  0.19636E+06
 0.59099995E+02  0.14741E+06
 0.59149998E+02  0.15841E+06
 0.59199997E+02  0.22994E+06
 0.59249996E+02  0.26226E+06
 0.59299995E+02  0.26116E+06
 0.59349995E+02  0.32481E+06
 0.59399998E+02  0.31154E+06
 0.59449997E+02  0.69873E+05
 0.59499996E+02 -0.28097E+06
 0.59549995E+02 -0.55705E+06
 0.59599995E+02 -0.68329E+06
 0.59649998E+02 -0.67259E+06
 0.59699997E+02 -0.59132E+06
 0.59749996E+02 -0.55072E+06
 0.59799995E+02 -0.53204E+06
 0.59849995E+02 -0.48461E+06
 0.59899998E+02 -0.38839E+06
 0.59949997E+02 -0.30630E+06
 0.59999996E+02 -0.28543E+06
 0.60049995E+02 -0.38042E+06
 0.60099995E+02 -0.52461E+06
 0.60149998E+02 -0.57806E+06
 0.60199997E+02 -0.51012E+06
 0.60249996E+02 -0.35102E+06
 0.60299995E+02 -0.24025E+06
 0.60349995E+02 -0.23001E+06
 0.60399998E+02 -0.31006E+06
 0.60449997E+02 -0.41795E+06
 0.60499996E+02 -0.50988E+06
 0.60549995E+02 -0.60944E+06
 0.60599995E+02 -0.65327E+06
 0.60649998E+02 -0.62964E+06
 0.60699997E+02 -0.58302E+06
 0.60749996E+02 -0.47174E+06
 0.60799995E+02 -0.34367E+06
 0.60849995E+02 -0.28566E+06
 0.60899998E+02 -0.29046E+06
 0.60949997E+02 -0.31413E+06
 0.60999996E+02 -0.31152E+06
 0.61049995E+02 -0.23965E+06
 0.61099995E+02 -0.10356E+06
 0.61149998E+02  0.13581E+06
 0.61199997E+02  0.49195E+06
 0.61249996E+02  0.87889E+06
 0.61299995E+02  0.11775E+07
 0.61349995E+02  0.13367E+07
 0.61399998E+02  0.14293E+07
 0.61449997E+02  0.14007E+07
 0.61499996E+02  0.13047E+07
 0.61549995E+02  0.12109E+07
 0.61599995E+02  0.11104E+07
 0.61649998E+02  0.10040E+07
 0.61699997E+02  0.86965E+06
 0.61749996E+02  0.75633E+06
 0.61799995E+02  0.66847E+06
 0.61849995E+02  0.59658E+06
 0.61899998E+02  0.50500E+06
 0.61949997E+02  0.34985E+06
 0.61999996E+02  0.18900E+06
 0.62049995E+02  0.11518E+06
 0.62099998E+02  0.14674E+06
 0.62149994E+02  0.26386E+06
 0.62199997E+02  0.41761E+06
 0.62249992E+02  0.62377E+06
 0.62299995E+02  0.89012E+06
 0.62349998E+02  0.11321E+07
 0.62399994E+02  0.12357E+07
 0.62449997E+02  0.12552E+07
 0.62499992E+02  0.13057E+07
 0.62549995E+02  0.13220E+07
 0.62599998E+02  0.12349E+07
 0.62649994E+02  0.10866E+07
 0.62699997E+02  0.92730E+06
 0.62749992E+02  0.72760E+06
 0.62799995E+02  0.46618E+06
 0.62849998E+02  0.10958E+06
 0.62899994E+02 -0.22491E+06
 0.62949997E+02 -0.45325E+06
 0.62999992E+02 -0.65578E+06
 0.63049995E+02 -0.82263E+06
 0.63099998E+02 -0.88497E+06
 0.63149994E+02 -0.86663E+06
 0.63199997E+02 -0.85296E+06
 0.63249992E+02 -0.85807E+06
 0.63299995E+02 -0.94508E+06
 0.63349998E+02 -0.10696E+07
 0.63399994E+02 -0.11686E+07
 0.63449997E+02 -0.12671E+07
 0.63499992E+02 -0.13467E+07
 0.63549995E+02 -0.13807E+07
 0.63599998E+02 -0.13253E+07
 0.63649994E+02 -0.12397E+07
 0.63699997E+02 -0.11419E+07
 0.63749992E+02 -0.10390E+07
 0.63799995E+02 -0.95158E+06
 0.63849998E+02 -0.83220E+06
 0.63899994E+02 -0.66303E+06
 0.63949997E+02 -0.52127E+06
 0.63999992E+02 -0.49423E+06
 0.64049995E+02 -0.53232E+06
 0.64099998E+02 -0.53474E+06
 0.64149994E+02 -0.43443E+06
 0.64199997E+02 -0.27901E+06
 0.64249992E+02 -0.19719E+06
 0.64299995E+02 -0.23695E+06
 0.64349998E+02 -0.35508E+06
 0.64399994E+02 -0.49800E+06
 0.64449997E+02 -0.60038E+06
 0.64499992E+02 -0.66064E+06
 0.64549995E+02 -0.68923E+06
 0.64599998E+02 -0.70335E+06
 0.64649994E+02 -0.69841E+06
 0.64699997E+02 -0.67489E+06
 0.64749992E+02 -0.64954E+06
 0.64799995E+02 -0.57236E+06
 0.64849998E+02 -0.47988E+06
 0.64899994E+02 -0.43429E+06
 0.64949997E+02 -0.42816E+06
 0.64999992E+02 -0.42558E+06
 0.65049995E+02 -0.38574E+06
 0.65099998E+02 -0.29605E+06
 0.65149994E+02 -0.16222E+06
 0.65199997E+02 -0.61532E+04
 0.65249992E+02  0.14402E+06
 0.65299995E+02  0.28434E+06
 0.65349998E+02  0.44135E+06
 0.65399994E+02  0.59572E+06
 0.65449997E+02  0.69789E+06
 0.65499992E+02  0.79177E+06
 0.65549995E+02  0.90881E+06
 0.65599998E+02  0.10269E+07
 0.65649994E+02  0.11031E+07
 0.65699997E+02  0.10926E+07
 0.65749992E+02  0.98518E+06
 0.65799995E+02  0.84816E+06
 0.65849998E+02  0.74598E+06
 0.65899994E+02  0.66903E+06
 0.65949997E+02  0.61996E+06
 0.65999992E+02  0.60716E+06
 0.66049995E+02  0.63755E+06
 0.66099998E+02  0.70906E+06
 0.66149994E+02  0.81105E+06
 0.66199997E+02  0.91642E+06
 0.66249992E+02  0.99484E+06
 0.66299995E+02  0.10121E+07
 0.66349998E+02  0.94765E+06
 0.66399994E+02  0.84512E+06
 0.66449997E+02  0.70497E+06
 0.66499992E+02  0.52699E+06
 0.66549995E+02  0.37407E+06
 0.66599998E+02  0.26983E+06
 0.66649994E+02  0.22807E+06
 0.66699997E+02  0.20830E+06
 0.66749992E+02  0.11414E+06
 0.66799995E+02 -0.43498E+05
 0.66849998E+02 -0.19673E+06
 0.66899994E+02 -0.26946E+06
 0.66949997E+02 -0.24178E+06
 0.66999992E+02 -0.16144E+06
 0.67049995E+02 -0.37214E+05
 0.67099998E+02  0.82541E+05
 0.67149994E+02  0.18429E+06
 0.67199997E+02  0.27486E+06
 0.67249992E+02  0.32155E+06
 0.67299995E+02  0.30767E+06
 0.67349998E+02  0.25050E+06
 0.67399994E+02  0.17451E+06
 0.67449997E+02  0.58921E+05
 0.67499992E+02 -0.98037E+05
 0.67549995E+02 -0.25524E+06
 0.67599998E+02 -0.33325E+06
 0.67649994E+02 -0.31494E+06
 0.67699997E+02 -0.23800E+06
 0.67749992E+02 -0.94819E+05
 0.67799995E+02  0.52832E+05
 0.67849998E+02  0.17068E+06
 0.67899994E+02  0.25991E+06
 0.67949997E+02  0.28287E+06
 0.67999992E+02  0.23907E+06
 0.68049995E+02  0.15642E+06
 0.68099998E+02  0.53489E+05
 0.68149994E+02 -0.74501E+05
 0.68199997E+02 -0.19702E+06
 0.68249992E+02 -0.32287E+06
 0.68299995E+02 -0.44293E+06
 0.68349998E+02 -0.53722E+06
 0.68399994E+02 -0.58310E+06
 0.68449997E+02 -0.54678E+06
 0.68499992E+02 -0.49340E+06
 0.68549995E+02 -0.47036E+06
 0.68599998E+02 -0.49904E+06
 0.68649994E+02 -0.60642E+06
 0.68699997E+02 -0.72463E+06
 0.68749992E+02 -0.82778E+06
 0.68799995E+02 -0.91251E+06
 0.68849998E+02 -0.91586E+06
 0.68899994E+02 -0.84359E+06
 0.68949997E+02 -0.73883E+06
 0.68999992E+02 -0.65945E+06
 0.69049995E+02 -0.65004E+06
 0.69099998E+02 -0.71045E+06
 0.69149994E+02 -0.78253E+06
 0.69199997E+02 -0.79721E+06
 0.69249992E+02 -0.76749E+06
 0.69299995E+02 -0.73906E+06
 0.69349998E+02 -0.71682E+06
 0.69399994E+02 -0.67361E+06
 0.69449997E+02 -0.61176E+06
 0.69499992E+02 -0.55866E+06
 0.69549995E+02 -0.52146E+06
 0.69599998E+02 -0.50941E+06
 0.69649994E+02 -0.52480E+06
 0.69699997E+02 -0.56105E+06
 0.69749992E+02 -0.62950E+06
 0.69799995E+02 -0.69500E+06
 0.69849998E+02 -0.67285E+06
 0.69899994E+02 -0.57418E+06
 0.69949997E+02 -0.45692E+06
 0.69999992E+02 -0.35241E+06
 0.70049995E+02 -0.27239E+06
 0.70099998E+02 -0.18427E+06
 0.70149994E+02 -0.53328E+05
 0.70199997E+02  0.10128E+06
 0.70249992E+02  0.25645E+06
 0.70299995E+02  0.41893E+06
 0.70349998E+02  0.60825E+06
 0.70399994E+02  0.84656E+06
 0.70449997E+02  0.10628E+07
 0.70499992E+02  0.12000E+07
 0.70549995E+02  0.12548E+07
 0.70599998E+02  0.12532E+07
 0.70649994E+02  0.12077E+07
 0.70699997E+02  0.11187E+07
 0.70749992E+02  0.10181E+07
 0.70799995E+02  0.92990E+06
 0.70849998E+02  0.88584E+06
 0.70899994E+02  0.85485E+06
 0.70949997E+02  0.78513E+06
 0.70999992E+02  0.66893E+06
 0.71049995E+02  0.54546E+06
 0.71099998E+02  0.44327E+06
 0.71149994E+02  0.38558E+06
 0.71199997E+02  0.40760E+06
 0.71249992E+02  0.50241E+06
 0.71299995E+02  0.62860E+06
 0.71349998E+02  0.76935E+06
 0.71399994E+02  0.87967E+06
 0.71449997E+02  0.90422E+06
 0.71499992E+02  0.84322E+06
 0.71549995E+02  0.69980E+06
 0.71599998E+02  0.54961E+06
 0.71649994E+02  0.45313E+06
 0.71699997E+02  0.40598E+06
 0.71749992E+02  0.37900E+06
 0.71799995E+02  0.34160E+06
 0.71849998E+02  0.29827E+06
 0.71899994E+02  0.24763E+06
 0.71949997E+02  0.16775E+06
 0.71999992E+02  0.54811E+05
 0.72049995E+02 -0.43676E+05
 0.72099998E+02 -0.12600E+06
 0.72149994E+02 -0.20704E+06
 0.72199997E+02 -0.27942E+06
 0.72249992E+02 -0.32360E+06
 0.72299995E+02 -0.33388E+06
 0.72349998E+02 -0.32124E+06
 0.72399994E+02 -0.25865E+06
 0.72449997E+02 -0.14462E+06
 0.72499992E+02 -0.40831E+05
 0.72549995E+02  0.11787E+05
 0.72599998E+02  0.39345E+05
 0.72649994E+02  0.61979E+05
 0.72699997E+02  0.65547E+05
 0.72749992E+02  0.20996E+05
 0.72799995E+02 -0.78434E+05
 0.72849998E+02 -0.21614E+06
 0.72899994E+02 -0.36263E+06
 0.72949997E+02 -0.48824E+06
 0.72999992E+02 -0.57536E+06
 0.73049995E+02 -0.60837E+06
 0.73099998E+02 -0.57065E+06
 0.73149994E+02 -0.45945E+06
 0.73199997E+02 -0.33899E+06
 0.73249992E+02 -0.25276E+06
 0.73299995E+02 -0.20063E+06
 0.73349998E+02 -0.19293E+06
 0.73399994E+02 -0.19480E+06
 0.73449997E+02 -0.17981E+06
 0.73499992E+02 -0.16515E+06
 0.73549995E+02 -0.16845E+06
 0.73599998E+02 -0.20723E+06
 0.73649994E+02 -0.23913E+06
 0.73699997E+02 -0.19660E+06
 0.73749992E+02 -0.10309E+06
 0.73799995E+02  0.21618E+05
 0.73849998E+02  0.15590E+06
 0.73899994E+02  0.27161E+06
 0.73949997E+02  0.37945E+06
 0.73999992E+02  0.45955E+06
 0.74049995E+02  0.46930E+06
 0.74099998E+02  0.42437E+06
 0.74149994E+02  0.37228E+06
 0.74199997E+02  0.31947E+06
 0.74249992E+02  0.26932E+06
 0.74299995E+02  0.23415E+06
 0.74349998E+02  0.22541E+06
 0.74399994E+02  0.23730E+06
 0.74449997E+02  0.24525E+06
 0.74499992E+02  0.25644E+06
 0.74549995E+02  0.29897E+06
 0.74599998E+02  0.33280E+06
 0.74649994E+02  0.31128E+06
 0.74699997E+02  0.25686E+06
 0.74749992E+02  0.21521E+06
 0.74799995E+02  0.18556E+06
 0.74849998E+02  0.13999E+06
 0.74899994E+02  0.60659E+05
 0.74949997E+02 -0.53357E+05
 0.74999992E+02 -0.18606E+06
 0.75049995E+02 -0.29885E+06
 0.75099998E+02 -0.36538E+06
 0.75149994E+02 -0.40905E+06
 0.75199997E+02 -0.42369E+06
 0.75249992E+02 -0.41433E+06
 0.75299995E+02 -0.40465E+06
 0.75349998E+02 -0.41866E+06
 0.75399994E+02 -0.46210E+06
 0.75449997E+02 -0.53645E+06
 0.75499992E+02 -0.62482E+06
 0.75549995E+02 -0.68591E+06
 0.75599998E+02 -0.73397E+06
 0.75649994E+02 -0.77069E+06
 0.75699997E+02 -0.77600E+06
 0.75749992E+02 -0.73334E+06
 0.75799995E+02 -0.66011E+06
 0.75849998E+02 -0.58719E+06
 0.75899994E+02 -0.54474E+06
 0.75949997E+02 -0.49379E+06
 0.75999992E+02 -0.40110E+06
 0.76049995E+02 -0.31654E+06
 0.76099998E+02 -0.24670E+06
 0.76149994E+02 -0.19842E+06
 0.76199997E+02 -0.17670E+06
 0.76249992E+02 -0.17840E+06
 0.76299995E+02 -0.18033E+06
 0.76349998E+02 -0.17360E+06
 0.76399994E+02 -0.17880E+06
 0.76449997E+02 -0.18548E+06
 0.76499992E+02 -0.17552E+06
 0.76549995E+02 -0.13858E+06
 0.76599998E+02 -0.66006E+05
 0.76649994E+02  0.31888E+05
 0.76699997E+02  0.12748E+06
 0.76749992E+02  0.19417E+06
 0.76799995E+02  0.22094E+06
 0.76849998E+02  0.20287E+06
 0.76899994E+02  0.12998E+06
 0.76949997E+02  0.40235E+05
 0.76999992E+02 -0.33411E+05
 0.77049995E+02 -0.75138E+05
 0.77099998E+02 -0.97963E+05
 0.77149994E+02 -0.13077E+06
 0.77199997E+02 -0.18258E+06
 0.77249992E+02 -0.24353E+06
 0.77299995E+02 -0.30874E+06
 0.77349998E+02 -0.36839E+06
 0.77399994E+02 -0.39344E+06
 0.77449997E+02 -0.38109E+06
 0.77499992E+02 -0.30621E+06
 0.77549995E+02 -0.20010E+06
 0.77599998E+02 -0.10473E+06
 0.77649994E+02 -0.24857E+05
 0.77699997E+02  0.29464E+05
 0.77749992E+02  0.68027E+05
 0.77799995E+02  0.90966E+05
 0.77849998E+02  0.10171E+06
 0.77899994E+02  0.10576E+06
 0.77949997E+02  0.11565E+06
 0.77999992E+02  0.14623E+06
 0.78049995E+02  0.19583E+06
 0.78099998E+02  0.26217E+06
 0.78149994E+02  0.33948E+06
 0.78199997E+02  0.41681E+06
 0.78249992E+02  0.49375E+06
 0.78299995E+02  0.54362E+06
 0.78349998E+02  0.54732E+06
 0.78399994E+02  0.51480E+06
 0.78449997E+02  0.48595E+06
 0.78499992E+02  0.49469E+06
 0.78549995E+02  0.52373E+06
 0.78599998E+02  0.57138E+06
 0.78649994E+02  0.61528E+06
 0.78699997E+02  0.63380E+06
 0.78749992E+02  0.62651E+06
 0.78799995E+02  0.59709E+06
 0.78849998E+02  0.54645E+06
 0.78899994E+02  0.50893E+06
 0.78949997E+02  0.50994E+06
 0.78999992E+02  0.53450E+06
 0.79049995E+02  0.56769E+06
 0.79099998E+02  0.57429E+06
 0.79149994E+02  0.56873E+06
 0.79199997E+02  0.56031E+06
 0.79249992E+02  0.52717E+06
 0.79299995E+02  0.46971E+06
 0.79349998E+02  0.41507E+06
 0.79399994E+02  0.37428E+06
 0.79449997E+02  0.32465E+06
 0.79499992E+02  0.28124E+06
 0.79549995E+02  0.26456E+06
 0.79599998E+02  0.25392E+06
 0.79649994E+02  0.23836E+06
 0.79699997E+02  0.20443E+06
 0.79749992E+02  0.15091E+06
 0.79799995E+02  0.10263E+06
 0.79849998E+02  0.73124E+05
 0.79899994E+02  0.62383E+05
 0.79949997E+02  0.70693E+05
 0.79999992E+02  0.10468E+06
 0.80049995E+02  0.13681E+06
 0.80099998E+02  0.14977E+06
 0.80149994E+02  0.14496E+06
 0.80199997E+02  0.12631E+06
 0.80249992E+02  0.10384E+06
 0.80299995E+02  0.81185E+05
 0.80349998E+02  0.57079E+05
 0.80399994E+02  0.21851E+05
 0.80449997E+02  0.17897E+04
 0.80499992E+02  0.45250E+04
 0.80549995E+02  0.13955E+05
 0.80599998E+02  0.13978E+05
 0.80649994E+02 -0.10638E+05
 0.80699997E+02 -0.63754E+05
 0.80749992E+02 -0.13776E+06
 0.80799995E+02 -0.21588E+06
 0.80849998E+02 -0.29531E+06
 0.80899994E+02 -0.37118E+06
 0.80949997E+02 -0.43032E+06
 0.80999992E+02 -0.46509E+06
 0.81049995E+02 -0.49303E+06
 0.81099998E+02 -0.50843E+06
 0.81149994E+02 -0.51120E+06
 0.81199997E+02 -0.50565E+06
 0.81249992E+02 -0.48492E+06
 0.81299995E+02 -0.45467E+06
 0.81349998E+02 -0.40901E+06
 0.81399994E+02 -0.35992E+06
 0.81449997E+02 -0.32979E+06
 0.81499992E+02 -0.31759E+06
 0.81549995E+02 -0.29697E+06
 0.81599998E+02 -0.23541E+06
 0.81649994E+02 -0.12073E+06
 0.81699997E+02  0.36670E+03
 0.81749992E+02  0.80891E+05
 0.81799995E+02  0.11475E+06
 0.81849998E+02  0.10184E+06
 0.81899994E+02  0.67507E+05
 0.81949997E+02  0.31428E+05
 0.81999992E+02  0.31223E+03
 0.82049995E+02 -0.22556E+05
 0.82099998E+02 -0.60767E+05
 0.82149994E+02 -0.10149E+06
 0.82199997E+02 -0.15758E+06
 0.82249992E+02 -0.24353E+06
 0.82299995E+02 -0.31321E+06
 0.82349998E+02 -0.37939E+06
 0.82399994E+02 -0.45137E+06
 0.82449997E+02 -0.52023E+06
 0.82499992E+02 -0.57437E+06
 0.82549995E+02 -0.59970E+06
 0.82599998E+02 -0.60479E+06
 0.82649994E+02 -0.59264E+06
 0.82699997E+02 -0.54624E+06
 0.82749992E+02 -0.45654E+06
 0.82799995E+02 -0.35701E+06
 0.82849998E+02 -0.26887E+06
 0.82899994E+02 -0.19526E+06
 0.82949997E+02 -0.14072E+06
 0.82999992E+02 -0.88539E+05
 0.83049995E+02 -0.27622E+05
 0.83099998E+02  0.17067E+05
 0.83149994E+02  0.37058E+05
 0.83199997E+02  0.45970E+05
 0.83249992E+02  0.49673E+05
 0.83299995E+02  0.65866E+05
 0.83349998E+02  0.10511E+06
 0.83399994E+02  0.15562E+06
 0.83449997E+02  0.21745E+06
 0.83499992E+02  0.28937E+06
 0.83549995E+02  0.37571E+06
 0.83599998E+02  0.45797E+06
 0.83649994E+02  0.49916E+06
 0.83699997E+02  0.50471E+06
 0.83749992E+02  0.47871E+06
 0.83799995E+02  0.45220E+06
 0.83849998E+02  0.45742E+06
 0.83899994E+02  0.48353E+06
 0.83949997E+02  0.50503E+06
 0.83999992E+02  0.49302E+06
 0.84049995E+02  0.46872E+06
 0.84099998E+02  0.45613E+06
 0.84149994E+02  0.44709E+06
 0.84199997E+02  0.42102E+06
 0.84249992E+02  0.36876E+06
 0.84299995E+02  0.29787E+06
 0.84349998E+02  0.21149E+06
 0.84399994E+02  0.12305E+06
 0.84449997E+02  0.42926E+05
 0.84499992E+02 -0.29133E+05
 0.84549995E+02 -0.97236E+05
 0.84599998E+02 -0.15908E+06
 0.84649994E+02 -0.20224E+06
 0.84699997E+02 -0.23482E+06
 0.84749992E+02 -0.28047E+06
 0.84799995E+02 -0.32597E+06
 0.84849998E+02 -0.33901E+06
 0.84899994E+02 -0.31185E+06
 0.84949997E+02 -0.26370E+06
 0.84999992E+02 -0.22778E+06
 0.85049995E+02 -0.21170E+06
 0.85099998E+02 -0.20092E+06
 0.85149994E+02 -0.18647E+06
 0.85199997E+02 -0.16520E+06
 0.85249992E+02 -0.14251E+06
 0.85299995E+02 -0.12413E+06
 0.85349998E+02 -0.11995E+06
 0.85399994E+02 -0.12357E+06
 0.85449997E+02 -0.12996E+06
 0.85499992E+02 -0.14385E+06
 0.85549995E+02 -0.16684E+06
 0.85599998E+02 -0.19802E+06
 0.85649994E+02 -0.22078E+06
 0.85699997E+02 -0.23245E+06
 0.85749992E+02 -0.22372E+06
 0.85799995E+02 -0.18117E+06
 0.85849998E+02 -0.11854E+06
 0.85899994E+02 -0.55950E+05
 0.85949997E+02 -0.43659E+04
 0.85999992E+02  0.32112E+05
 0.86049995E+02  0.51961E+05
 0.86099998E+02  0.54511E+05
 0.86149994E+02  0.41610E+05
 0.86199997E+02  0.28978E+05
 0.86249992E+02  0.27623E+05
 0.86299995E+02  0.23238E+05
 0.86349998E+02  0.21575E+04
 0.86399994E+02 -0.34605E+05
 0.86449997E+02 -0.72427E+05
 0.86499992E+02 -0.10730E+06
 0.86549995E+02 -0.13679E+06
 0.86599998E+02 -0.13996E+06
 0.86649994E+02 -0.13459E+06
 0.86699997E+02 -0.13114E+06
 0.86749992E+02 -0.12508E+06
 0.86799995E+02 -0.14033E+06
 0.86849998E+02 -0.16290E+06
 0.86899994E+02 -0.17493E+06
 0.86949997E+02 -0.19090E+06
 0.86999992E+02 -0.21260E+06
 0.87049995E+02 -0.22169E+06
 0.87099998E+02 -0.20527E+06
 0.87149994E+02 -0.16689E+06
 0.87199997E+02 -0.10514E+06
 0.87249992E+02 -0.18116E+05
 0.87299995E+02  0.81606E+05
 0.87349998E+02  0.17985E+06
 0.87399994E+02  0.26070E+06
 0.87449997E+02  0.31887E+06
 0.87499992E+02  0.35905E+06
 0.87549995E+02  0.39029E+06
 0.87599991E+02  0.43054E+06
 0.87649994E+02  0.49055E+06
 0.87699997E+02  0.55903E+06
 0.87749992E+02  0.61351E+06
 0.87799995E+02  0.64851E+06
 0.87849991E+02  0.66165E+06
 0.87899994E+02  0.66968E+06
 0.87949997E+02  0.68587E+06
 0.87999992E+02  0.69606E+06
 0.88049995E+02  0.68633E+06
 0.88099991E+02  0.64914E+06
 0.88149994E+02  0.59161E+06
 0.88199997E+02  0.51772E+06
 0.88249992E+02  0.42248E+06
 0.88299995E+02  0.30473E+06
 0.88349991E+02  0.17305E+06
 0.88399994E+02  0.49940E+05
 0.88449997E+02 -0.44396E+05
 0.88499992E+02 -0.11024E+06
 0.88549995E+02 -0.14579E+06
 0.88599991E+02 -0.15021E+06
 0.88649994E+02 -0.12703E+06
 0.88699997E+02 -0.82013E+05
 0.88749992E+02 -0.36670E+05
 0.88799995E+02 -0.79651E+04
 0.88849991E+02  0.80522E+03
 0.88899994E+02 -0.56432E+04
 0.88949997E+02 -0.27548E+05
 0.88999992E+02 -0.63963E+05
 0.89049995E+02 -0.11455E+06
 0.89099991E+02 -0.17271E+06
 0.89149994E+02 -0.22951E+06
 0.89199997E+02 -0.27967E+06
 0.89249992E+02 -0.30711E+06
 0.89299995E+02 -0.33554E+06
 0.89349991E+02 -0.37638E+06
 0.89399994E+02 -0.41531E+06
 0.89449997E+02 -0.44630E+06
 0.89499992E+02 -0.46071E+06
 0.89549995E+02 -0.46684E+06
 0.89599991E+02 -0.46383E+06
 0.89649994E+02 -0.45954E+06
 0.89699997E+02 -0.46361E+06
 0.89749992E+02 -0.47560E+06
 0.89799995E+02 -0.49183E+06
 0.89849991E+02 -0.49715E+06
 0.89899994E+02 -0.49070E+06
 0.89949997E+02 -0.47135E+06
 0.89999992E+02 -0.43857E+06
 0.90049995E+02 -0.39445E+06
 0.90099991E+02 -0.33246E+06
 0.90149994E+02 -0.25332E+06
 0.90199997E+02 -0.16619E+06
 0.90249992E+02 -0.81651E+05
 0.90299995E+02  0.70975E+03
 0.90349991E+02  0.84679E+05
 0.90399994E+02  0.17521E+06
 0.90449997E+02  0.26290E+06
 0.90499992E+02  0.33969E+06
 0.90549995E+02  0.40240E+06
 0.90599991E+02  0.45055E+06
 0.90649994E+02  0.49919E+06
 0.90699997E+02  0.55154E+06
 0.90749992E+02  0.59177E+06
 0.90799995E+02  0.61268E+06
 0.90849991E+02  0.61540E+06
 0.90899994E+02  0.60208E+06
 0.90949997E+02  0.58479E+06
 0.90999992E+02  0.56181E+06
 0.91049995E+02  0.52007E+06
 0.91099991E+02  0.44742E+06
 0.91149994E+02  0.35584E+06
 0.91199997E+02  0.26858E+06
 0.91249992E+02  0.19073E+06
 0.91299995E+02  0.11613E+06
 0.91349991E+02  0.51998E+05
 0.91399994E+02  0.12504E+05
 0.91449997E+02 -0.35069E+04
 0.91499992E+02 -0.52248E+04
 0.91549995E+02 -0.33589E+04
 0.91599991E+02  0.14882E+04
 0.91649994E+02  0.50734E+04
 0.91699997E+02  0.37662E+04
 0.91749992E+02 -0.13806E+05
 0.91799995E+02 -0.51529E+05
 0.91849991E+02 -0.89211E+05
 0.91899994E+02 -0.11364E+06
 0.91949997E+02 -0.12513E+06
 0.91999992E+02 -0.14030E+06
 0.92049995E+02 -0.16040E+06
 0.92099991E+02 -0.18063E+06
 0.92149994E+02 -0.20206E+06
 0.92199997E+02 -0.21736E+06
 0.92249992E+02 -0.22650E+06
 0.92299995E+02 -0.23926E+06
 0.92349991E+02 -0.26180E+06
 0.92399994E+02 -0.29360E+06
 0.92449997E+02 -0.33569E+06
 0.92499992E+02 -0.37193E+06
 0.92549995E+02 -0.38210E+06
 0.92599991E+02 -0.36267E+06
 0.92649994E+02 -0.33145E+06
 0.92699997E+02 -0.30092E+06
 0.92749992E+02 -0.26416E+06
 0.92799995E+02 -0.23489E+06
 0.92849991E+02 -0.22545E+06
 0.92899994E+02 -0.22771E+06
 0.92949997E+02 -0.23756E+06
 0.92999992E+02 -0.24070E+06
 0.93049995E+02 -0.21772E+06
 0.93099991E+02 -0.17016E+06
 0.93149994E+02 -0.11902E+06
 0.93199997E+02 -0.74010E+05
 0.93249992E+02 -0.28945E+05
 0.93299995E+02  0.13325E+05
 0.93349991E+02  0.41451E+05
 0.93399994E+02  0.51072E+05
 0.93449997E+02  0.70987E+05
 0.93499992E+02  0.11587E+06
 0.93549995E+02  0.17192E+06
 0.93599991E+02  0.23299E+06
 0.93649994E+02  0.29305E+06
 0.93699997E+02  0.33849E+06
 0.93749992E+02  0.35333E+06
 0.93799995E+02  0.34995E+06
 0.93849991E+02  0.34301E+06
 0.93899994E+02  0.33942E+06
 0.93949997E+02  0.35188E+06
 0.93999992E+02  0.37855E+06
 0.94049995E+02  0.40219E+06
 0.94099991E+02  0.41425E+06
 0.94149994E+02  0.42148E+06
 0.94199997E+02  0.41524E+06
 0.94249992E+02  0.38935E+06
 0.94299995E+02  0.34272E+06
 0.94349991E+02  0.27342E+06
 0.94399994E+02  0.19871E+06
 0.94449997E+02  0.12336E+06
 0.94499992E+02  0.54628E+05
 0.94549995E+02 -0.51843E+04
 0.94599991E+02 -0.61254E+05
 0.94649994E+02 -0.98334E+05
 0.94699997E+02 -0.11281E+06
 0.94749992E+02 -0.11765E+06
 0.94799995E+02 -0.13193E+06
 0.94849991E+02 -0.16487E+06
 0.94899994E+02 -0.21603E+06
 0.94949997E+02 -0.27877E+06
 0.94999992E+02 -0.33115E+06
 0.95049995E+02 -0.35955E+06
 0.95099991E+02 -0.37336E+06
 0.95149994E+02 -0.37251E+06
 0.95199997E+02 -0.36144E+06
 0.95249992E+02 -0.34678E+06
 0.95299995E+02 -0.31593E+06
 0.95349991E+02 -0.26624E+06
 0.95399994E+02 -0.20612E+06
 0.95449997E+02 -0.15061E+06
 0.95499992E+02 -0.10022E+06
 0.95549995E+02 -0.58013E+05
 0.95599991E+02 -0.45841E+05
 0.95649994E+02 -0.62965E+05
 0.95699997E+02 -0.94788E+05
 0.95749992E+02 -0.12389E+06
 0.95799995E+02 -0.13082E+06
 0.95849991E+02 -0.11609E+06
 0.95899994E+02 -0.93759E+05
 0.95949997E+02 -0.66140E+05
 0.95999992E+02 -0.29815E+05
 0.96049995E+02  0.11738E+05
 0.96099991E+02  0.47874E+05
 0.96149994E+02  0.66224E+05
 0.96199997E+02  0.65342E+05
 0.96249992E+02  0.50931E+05
 0.96299995E+02  0.30047E+05
 0.96349991E+02  0.62022E+04
 0.96399994E+02 -0.22501E+05
 0.96449997E+02 -0.44331E+05
 0.96499992E+02 -0.50276E+05
 0.96549995E+02 -0.35555E+05
 0.96599991E+02  0.33043E+04
 0.96649994E+02  0.60821E+05
 0.96699997E+02  0.13400E+06
 0.96749992E+02  0.21035E+06
 0.96799995E+02  0.28106E+06
 0.96849991E+02  0.33969E+06
 0.96899994E+02  0.37477E+06
 0.96949997E+02  0.38551E+06
 0.96999992E+02  0.36326E+06
 0.97049995E+02  0.31709E+06
 0.97099991E+02  0.27118E+06
 0.97149994E+02  0.22387E+06
 0.97199997E+02  0.17996E+06
 0.97249992E+02  0.14298E+06
 0.97299995E+02  0.11439E+06
 0.97349991E+02  0.93192E+05
 0.97399994E+02  0.68540E+05
 0.97449997E+02  0.29407E+05
 0.97499992E+02 -0.13982E+05
 0.97549995E+02 -0.38644E+05
 0.97599991E+02 -0.48156E+05
 0.97649994E+02 -0.52047E+05
 0.97699997E+02 -0.44481E+05
 0.97749992E+02 -0.21923E+05
 0.97799995E+02  0.18316E+04
 0.97849991E+02  0.11210E+05
 0.97899994E+02  0.11886E+04
 0.97949997E+02 -0.15548E+05
 0.97999992E+02 -0.26130E+05
