-0.20000000E+01  0.15277E+03
-0.19500000E+01  0.15226E+03
-0.19000000E+01  0.15409E+03
-0.18500000E+01  0.15403E+03
-0.18000000E+01  0.15232E+03
-0.17500000E+01  0.15304E+03
-0.17000000E+01  0.15198E+03
-0.16500001E+01  0.15251E+03
-0.16000000E+01  0.15254E+03
-0.15500000E+01  0.15016E+03
-0.15000000E+01  0.15239E+03
-0.14500000E+01  0.15182E+03
-0.14000001E+01  0.15098E+03
-0.13500000E+01  0.15259E+03
-0.13000001E+01  0.15240E+03
-0.12500000E+01  0.15170E+03
-0.12000000E+01  0.15270E+03
-0.11500001E+01  0.15094E+03
-0.11000000E+01  0.15278E+03
-0.10500001E+01  0.15263E+03
-0.10000000E+01  0.15177E+03
-0.95000005E+00  0.15276E+03
-0.90000010E+00  0.15133E+03
-0.85000002E+00  0.15393E+03
-0.80000007E+00  0.15327E+03
-0.75000012E+00  0.15219E+03
-0.70000005E+00  0.15180E+03
-0.65000010E+00  0.15269E+03
-0.60000014E+00  0.15247E+03
-0.55000007E+00  0.15121E+03
-0.50000012E+00  0.15274E+03
-0.45000005E+00  0.15310E+03
-0.40000010E+00  0.15314E+03
-0.35000014E+00  0.15323E+03
-0.30000007E+00  0.15370E+03
-0.25000012E+00  0.15277E+03
-0.20000005E+00  0.15184E+03
-0.15000010E+00  0.15378E+03
-0.10000014E+00  0.15444E+03
-0.50000072E-01  0.15306E+03
-0.11920929E-06  0.15342E+03
 0.49999952E-01  0.15267E+03
 0.99999905E-01  0.15256E+03
 0.14999986E+00  0.15255E+03
 0.19999981E+00  0.15404E+03
 0.24999976E+00  0.15523E+03
 0.29999995E+00  0.15310E+03
 0.34999990E+00  0.15328E+03
 0.39999986E+00  0.15423E+03
 0.44999981E+00  0.15361E+03
 0.49999976E+00  0.15326E+03
 0.54999995E+00  0.15487E+03
 0.59999990E+00  0.15346E+03
 0.64999986E+00  0.15314E+03
 0.69999981E+00  0.15328E+03
 0.74999976E+00  0.15440E+03
 0.79999971E+00  0.15409E+03
 0.84999990E+00  0.15243E+03
 0.89999986E+00  0.15291E+03
 0.94999981E+00  0.15260E+03
 0.99999976E+00  0.15140E+03
 0.10499997E+01  0.15174E+03
 0.10999999E+01  0.15347E+03
 0.11499999E+01  0.15269E+03
 0.11999998E+01  0.15353E+03
 0.12499998E+01  0.15240E+03
 0.12999997E+01  0.15162E+03
 0.13499999E+01  0.15184E+03
 0.13999999E+01  0.15126E+03
 0.14499998E+01  0.15324E+03
 0.14999998E+01  0.15217E+03
 0.15499997E+01  0.15226E+03
 0.15999999E+01  0.15261E+03
 0.16499999E+01  0.15168E+03
 0.16999998E+01  0.15255E+03
 0.17499998E+01  0.15084E+03
 0.17999997E+01  0.15117E+03
 0.18499997E+01  0.15277E+03
 0.18999999E+01  0.15320E+03
 0.19499998E+01  0.15227E+03
 0.19999998E+01  0.15327E+03
 0.20499997E+01  0.15404E+03
 0.20999999E+01  0.15525E+03
 0.21499996E+01  0.15453E+03
 0.21999998E+01  0.15535E+03
 0.22499995E+01  0.15519E+03
 0.22999997E+01  0.15336E+03
 0.23499999E+01  0.15562E+03
 0.23999996E+01  0.15434E+03
 0.24499998E+01  0.15530E+03
 0.24999995E+01  0.15568E+03
 0.25499997E+01  0.15465E+03
 0.25999999E+01  0.15535E+03
 0.26499996E+01  0.15552E+03
 0.26999998E+01  0.15519E+03
 0.27499995E+01  0.15614E+03
 0.27999997E+01  0.15485E+03
 0.28499999E+01  0.15602E+03
 0.28999996E+01  0.15599E+03
 0.29499998E+01  0.15418E+03
 0.29999995E+01  0.15448E+03
 0.30499997E+01  0.15330E+03
 0.30999999E+01  0.15456E+03
 0.31499996E+01  0.15534E+03
 0.31999998E+01  0.15546E+03
 0.32499995E+01  0.15416E+03
 0.32999997E+01  0.15380E+03
 0.33499999E+01  0.15430E+03
 0.33999996E+01  0.15527E+03
 0.34499998E+01  0.15571E+03
 0.34999995E+01  0.15633E+03
 0.35499997E+01  0.15636E+03
 0.35999994E+01  0.15479E+03
 0.36499996E+01  0.15610E+03
 0.36999998E+01  0.15573E+03
 0.37499995E+01  0.15463E+03
 0.37999997E+01  0.15610E+03
 0.38499994E+01  0.15590E+03
 0.38999996E+01  0.15431E+03
 0.39499998E+01  0.15451E+03
 0.39999995E+01  0.15389E+03
 0.40499997E+01  0.15367E+03
 0.40999994E+01  0.15251E+03
 0.41499996E+01  0.15211E+03
 0.41999998E+01  0.15396E+03
 0.42499995E+01  0.15251E+03
 0.42999997E+01  0.15127E+03
 0.43499994E+01  0.15254E+03
 0.43999996E+01  0.15224E+03
 0.44499998E+01  0.15150E+03
 0.44999995E+01  0.15192E+03
 0.45499997E+01  0.15074E+03
 0.45999994E+01  0.15137E+03
 0.46499996E+01  0.15266E+03
 0.46999998E+01  0.15079E+03
 0.47499995E+01  0.15106E+03
 0.47999997E+01  0.15213E+03
 0.48499994E+01  0.15059E+03
 0.48999996E+01  0.15085E+03
 0.49499998E+01  0.15145E+03
 0.49999995E+01  0.15175E+03
 0.50499997E+01  0.15345E+03
 0.50999994E+01  0.15290E+03
 0.51499996E+01  0.15213E+03
 0.51999998E+01  0.15367E+03
 0.52499995E+01  0.15377E+03
 0.52999997E+01  0.15243E+03
 0.53499994E+01  0.15323E+03
 0.53999996E+01  0.15392E+03
 0.54499993E+01  0.15334E+03
 0.54999995E+01  0.15439E+03
 0.55499997E+01  0.15411E+03
 0.55999994E+01  0.15346E+03
 0.56499996E+01  0.15353E+03
 0.56999993E+01  0.15387E+03
 0.57499995E+01  0.15400E+03
 0.57999997E+01  0.15294E+03
 0.58499994E+01  0.15269E+03
 0.58999996E+01  0.15353E+03
 0.59499993E+01  0.15406E+03
 0.59999995E+01  0.15369E+03
 0.60499992E+01  0.15376E+03
 0.60999994E+01  0.15308E+03
 0.61499996E+01  0.15264E+03
 0.61999998E+01  0.15183E+03
 0.62499990E+01  0.15201E+03
 0.62999992E+01  0.15175E+03
 0.63499994E+01  0.15210E+03
 0.63999996E+01  0.15343E+03
 0.64499998E+01  0.15192E+03
 0.64999990E+01  0.15205E+03
 0.65499992E+01  0.15206E+03
 0.65999994E+01  0.15193E+03
 0.66499996E+01  0.15279E+03
 0.66999998E+01  0.15385E+03
 0.67499990E+01  0.15294E+03
 0.67999992E+01  0.15073E+03
 0.68499994E+01  0.15106E+03
 0.68999996E+01  0.15130E+03
 0.69499998E+01  0.15144E+03
 0.69999990E+01  0.15171E+03
 0.70499992E+01  0.15135E+03
 0.70999994E+01  0.15114E+03
 0.71499996E+01  0.15139E+03
 0.71999998E+01  0.15184E+03
 0.72499990E+01  0.15212E+03
 0.72999992E+01  0.15249E+03
 0.73499994E+01  0.15297E+03
 0.73999996E+01  0.15239E+03
 0.74499998E+01  0.15185E+03
 0.74999990E+01  0.15199E+03
 0.75499992E+01  0.15113E+03
 0.75999994E+01  0.15104E+03
 0.76499996E+01  0.15037E+03
 0.76999998E+01  0.15120E+03
 0.77499990E+01  0.15151E+03
 0.77999992E+01  0.15128E+03
 0.78499994E+01  0.15096E+03
 0.78999996E+01  0.15118E+03
 0.79499998E+01  0.15265E+03
 0.79999990E+01  0.15292E+03
 0.80499992E+01  0.15355E+03
 0.80999994E+01  0.15286E+03
 0.81499996E+01  0.15217E+03
 0.81999998E+01  0.15076E+03
 0.82499990E+01  0.15237E+03
 0.82999992E+01  0.15314E+03
 0.83499994E+01  0.15127E+03
 0.83999996E+01  0.15038E+03
 0.84499998E+01  0.15039E+03
 0.84999990E+01  0.15148E+03
 0.85499992E+01  0.15092E+03
 0.85999994E+01  0.15033E+03
 0.86499996E+01  0.15093E+03
 0.86999998E+01  0.15066E+03
 0.87499990E+01  0.14909E+03
 0.87999992E+01  0.14997E+03
 0.88499994E+01  0.14959E+03
 0.88999996E+01  0.14963E+03
 0.89499998E+01  0.15027E+03
 0.89999990E+01  0.14918E+03
 0.90499992E+01  0.14890E+03
 0.90999994E+01  0.15083E+03
 0.91499996E+01  0.15056E+03
 0.91999989E+01  0.14896E+03
 0.92499990E+01  0.14931E+03
 0.92999992E+01  0.14963E+03
 0.93499994E+01  0.15187E+03
 0.93999996E+01  0.15028E+03
 0.94499989E+01  0.15018E+03
 0.94999990E+01  0.15064E+03
 0.95499992E+01  0.15118E+03
 0.95999994E+01  0.15157E+03
 0.96499996E+01  0.15152E+03
 0.96999989E+01  0.15164E+03
 0.97499990E+01  0.15180E+03
 0.97999992E+01  0.15237E+03
 0.98499994E+01  0.15195E+03
 0.98999996E+01  0.15199E+03
 0.99499989E+01  0.15196E+03
 0.99999990E+01  0.15179E+03
 0.10049999E+02  0.15081E+03
 0.10099999E+02  0.15167E+03
 0.10150000E+02  0.15176E+03
 0.10199999E+02  0.15152E+03
 0.10249999E+02  0.15233E+03
 0.10299999E+02  0.15207E+03
 0.10349999E+02  0.15088E+03
 0.10400000E+02  0.15213E+03
 0.10449999E+02  0.15110E+03
 0.10499999E+02  0.15115E+03
 0.10549999E+02  0.15346E+03
 0.10599999E+02  0.15369E+03
 0.10650000E+02  0.15425E+03
 0.10699999E+02  0.15392E+03
 0.10749999E+02  0.15471E+03
 0.10799999E+02  0.15397E+03
 0.10849999E+02  0.15380E+03
 0.10900000E+02  0.15335E+03
 0.10949999E+02  0.15234E+03
 0.10999999E+02  0.15355E+03
 0.11049999E+02  0.15361E+03
 0.11099999E+02  0.15454E+03
 0.11150000E+02  0.15469E+03
 0.11199999E+02  0.15343E+03
 0.11249999E+02  0.15295E+03
 0.11299999E+02  0.15291E+03
 0.11349999E+02  0.15275E+03
 0.11400000E+02  0.15209E+03
 0.11449999E+02  0.15321E+03
 0.11499999E+02  0.15225E+03
 0.11549999E+02  0.15230E+03
 0.11599999E+02  0.15345E+03
 0.11650000E+02  0.15294E+03
 0.11699999E+02  0.15361E+03
 0.11749999E+02  0.15252E+03
 0.11799999E+02  0.15420E+03
 0.11849999E+02  0.15170E+03
 0.11900000E+02  0.15230E+03
 0.11949999E+02  0.15363E+03
 0.11999999E+02  0.15181E+03
 0.12049999E+02  0.15397E+03
 0.12099999E+02  0.15272E+03
 0.12150000E+02  0.15198E+03
 0.12199999E+02  0.15261E+03
 0.12249999E+02  0.15183E+03
 0.12299999E+02  0.15221E+03
 0.12349999E+02  0.15140E+03
 0.12400000E+02  0.15005E+03
 0.12449999E+02  0.15182E+03
 0.12499999E+02  0.15127E+03
 0.12549999E+02  0.15159E+03
 0.12599999E+02  0.15179E+03
 0.12649999E+02  0.15216E+03
 0.12699999E+02  0.15213E+03
 0.12749999E+02  0.15142E+03
 0.12799999E+02  0.15264E+03
 0.12849999E+02  0.15097E+03
 0.12899999E+02  0.15060E+03
 0.12949999E+02  0.15056E+03
 0.12999999E+02  0.15035E+03
 0.13049999E+02  0.15122E+03
 0.13099999E+02  0.15165E+03
 0.13149999E+02  0.15223E+03
 0.13199999E+02  0.15227E+03
 0.13249999E+02  0.15172E+03
 0.13299999E+02  0.15007E+03
 0.13349999E+02  0.15040E+03
 0.13399999E+02  0.15295E+03
 0.13449999E+02  0.15240E+03
 0.13499999E+02  0.15172E+03
 0.13549999E+02  0.15145E+03
 0.13599999E+02  0.15126E+03
 0.13649999E+02  0.15111E+03
 0.13699999E+02  0.15114E+03
 0.13749999E+02  0.15252E+03
 0.13799999E+02  0.15254E+03
 0.13849999E+02  0.15194E+03
 0.13899999E+02  0.15215E+03
 0.13949999E+02  0.15084E+03
 0.13999999E+02  0.15174E+03
 0.14049999E+02  0.15233E+03
 0.14099998E+02  0.15275E+03
 0.14150000E+02  0.15412E+03
 0.14199999E+02  0.15355E+03
 0.14249998E+02  0.15393E+03
 0.14299999E+02  0.15214E+03
 0.14349998E+02  0.15186E+03
 0.14400000E+02  0.15141E+03
 0.14449999E+02  0.15274E+03
 0.14499998E+02  0.15257E+03
 0.14549999E+02  0.15228E+03
 0.14599998E+02  0.15281E+03
 0.14650000E+02  0.15138E+03
 0.14699999E+02  0.15259E+03
 0.14749998E+02  0.15105E+03
 0.14799999E+02  0.15268E+03
 0.14849998E+02  0.15231E+03
 0.14900000E+02  0.15162E+03
 0.14949999E+02  0.15377E+03
 0.14999998E+02  0.15279E+03
 0.15049999E+02  0.15309E+03
 0.15099998E+02  0.15350E+03
 0.15150000E+02  0.15372E+03
 0.15199999E+02  0.15278E+03
 0.15249998E+02  0.15337E+03
 0.15299999E+02  0.15443E+03
 0.15349998E+02  0.15427E+03
 0.15400000E+02  0.15362E+03
 0.15449999E+02  0.15281E+03
 0.15499998E+02  0.15366E+03
 0.15549999E+02  0.15258E+03
 0.15599998E+02  0.15218E+03
 0.15650000E+02  0.15334E+03
 0.15699999E+02  0.15228E+03
 0.15749998E+02  0.15042E+03
 0.15799999E+02  0.15291E+03
 0.15849998E+02  0.15288E+03
 0.15900000E+02  0.15238E+03
 0.15949999E+02  0.15360E+03
 0.15999998E+02  0.15107E+03
 0.16049999E+02  0.15304E+03
 0.16099998E+02  0.15321E+03
 0.16150000E+02  0.15121E+03
 0.16199999E+02  0.15093E+03
 0.16249998E+02  0.15136E+03
 0.16299999E+02  0.15084E+03
 0.16349998E+02  0.15140E+03
 0.16400000E+02  0.14997E+03
 0.16449999E+02  0.14854E+03
 0.16499998E+02  0.15009E+03
 0.16549999E+02  0.14845E+03
 0.16599998E+02  0.14897E+03
 0.16650000E+02  0.14978E+03
 0.16699999E+02  0.14874E+03
 0.16749998E+02  0.14963E+03
 0.16799999E+02  0.15035E+03
 0.16849998E+02  0.15104E+03
 0.16900000E+02  0.15132E+03
 0.16949999E+02  0.15056E+03
 0.16999998E+02  0.15060E+03
 0.17049999E+02  0.15068E+03
 0.17099998E+02  0.15061E+03
 0.17150000E+02  0.15130E+03
 0.17199999E+02  0.15261E+03
 0.17249998E+02  0.15340E+03
 0.17299999E+02  0.15316E+03
 0.17349998E+02  0.15140E+03
 0.17400000E+02  0.15335E+03
 0.17449999E+02  0.15374E+03
 0.17499998E+02  0.15312E+03
 0.17549999E+02  0.15360E+03
 0.17599998E+02  0.15415E+03
 0.17650000E+02  0.15389E+03
 0.17699999E+02  0.15339E+03
 0.17749998E+02  0.15471E+03
 0.17799999E+02  0.15418E+03
 0.17849998E+02  0.15499E+03
 0.17900000E+02  0.15394E+03
 0.17949999E+02  0.15306E+03
 0.17999998E+02  0.15386E+03
 0.18049999E+02  0.15483E+03
 0.18099998E+02  0.15501E+03
 0.18150000E+02  0.15306E+03
 0.18199999E+02  0.15321E+03
 0.18249998E+02  0.15358E+03
 0.18299999E+02  0.15353E+03
 0.18349998E+02  0.15418E+03
 0.18400000E+02  0.15375E+03
 0.18449999E+02  0.15253E+03
 0.18499998E+02  0.15249E+03
 0.18549999E+02  0.15284E+03
 0.18599998E+02  0.15143E+03
 0.18650000E+02  0.15288E+03
 0.18699999E+02  0.15360E+03
 0.18749998E+02  0.15337E+03
 0.18799999E+02  0.15299E+03
 0.18849998E+02  0.15249E+03
 0.18900000E+02  0.15211E+03
 0.18949999E+02  0.15199E+03
 0.18999998E+02  0.15210E+03
 0.19049999E+02  0.15259E+03
 0.19099998E+02  0.15295E+03
 0.19150000E+02  0.15145E+03
 0.19199999E+02  0.15258E+03
 0.19249998E+02  0.15173E+03
 0.19299999E+02  0.15259E+03
 0.19349998E+02  0.15133E+03
 0.19400000E+02  0.15015E+03
 0.19449999E+02  0.15213E+03
 0.19499998E+02  0.15228E+03
 0.19549999E+02  0.15240E+03
 0.19599998E+02  0.15212E+03
 0.19650000E+02  0.15129E+03
 0.19699999E+02  0.15159E+03
 0.19749998E+02  0.15271E+03
 0.19799999E+02  0.15318E+03
 0.19849998E+02  0.15308E+03
 0.19900000E+02  0.15269E+03
 0.19949999E+02  0.15375E+03
 0.19999998E+02  0.15396E+03
 0.20049999E+02  0.15470E+03
 0.20099998E+02  0.15404E+03
 0.20150000E+02  0.15330E+03
 0.20199999E+02  0.15589E+03
 0.20249998E+02  0.15677E+03
 0.20299999E+02  0.15439E+03
 0.20349998E+02  0.15372E+03
 0.20399998E+02  0.15428E+03
 0.20449999E+02  0.15387E+03
 0.20499998E+02  0.15552E+03
 0.20549999E+02  0.15609E+03
 0.20599998E+02  0.15403E+03
 0.20649998E+02  0.15372E+03
 0.20699999E+02  0.15420E+03
 0.20749998E+02  0.15442E+03
 0.20799999E+02  0.15413E+03
 0.20849998E+02  0.15250E+03
 0.20899998E+02  0.15252E+03
 0.20949999E+02  0.15212E+03
 0.20999998E+02  0.15118E+03
 0.21049999E+02  0.15263E+03
 0.21099998E+02  0.15319E+03
 0.21149998E+02  0.15111E+03
 0.21199999E+02  0.15220E+03
 0.21249998E+02  0.15215E+03
 0.21299999E+02  0.15023E+03
 0.21349998E+02  0.15233E+03
 0.21399998E+02  0.15185E+03
 0.21449999E+02  0.15150E+03
 0.21499998E+02  0.15109E+03
 0.21549999E+02  0.15176E+03
 0.21599998E+02  0.15157E+03
 0.21649998E+02  0.15176E+03
 0.21699999E+02  0.15206E+03
 0.21749998E+02  0.15160E+03
 0.21799999E+02  0.15273E+03
 0.21849998E+02  0.15247E+03
 0.21899998E+02  0.15427E+03
 0.21949999E+02  0.15334E+03
 0.21999998E+02  0.15270E+03
 0.22049999E+02  0.15248E+03
 0.22099998E+02  0.15268E+03
 0.22149998E+02  0.15402E+03
 0.22199999E+02  0.15390E+03
 0.22249998E+02  0.15444E+03
 0.22299999E+02  0.15443E+03
 0.22349998E+02  0.15390E+03
 0.22399998E+02  0.15226E+03
 0.22449999E+02  0.15136E+03
 0.22499998E+02  0.15340E+03
 0.22549999E+02  0.15512E+03
 0.22599998E+02  0.15319E+03
 0.22649998E+02  0.15323E+03
 0.22699999E+02  0.15462E+03
 0.22749998E+02  0.15359E+03
 0.22799999E+02  0.15248E+03
 0.22849998E+02  0.15239E+03
 0.22899998E+02  0.15258E+03
 0.22949999E+02  0.15305E+03
 0.22999998E+02  0.15368E+03
 0.23049999E+02  0.15303E+03
 0.23099998E+02  0.15380E+03
 0.23149998E+02  0.15423E+03
 0.23199999E+02  0.15269E+03
 0.23249998E+02  0.15270E+03
 0.23299999E+02  0.15363E+03
 0.23349998E+02  0.15376E+03
 0.23399998E+02  0.15470E+03
 0.23449999E+02  0.15547E+03
 0.23499998E+02  0.15470E+03
 0.23549999E+02  0.15562E+03
 0.23599998E+02  0.15567E+03
 0.23649998E+02  0.15457E+03
 0.23699999E+02  0.15487E+03
 0.23749998E+02  0.15370E+03
 0.23799999E+02  0.15351E+03
 0.23849998E+02  0.15359E+03
 0.23899998E+02  0.15350E+03
 0.23949999E+02  0.15436E+03
 0.23999998E+02  0.15469E+03
 0.24049999E+02  0.15378E+03
 0.24099998E+02  0.15295E+03
 0.24149998E+02  0.15312E+03
 0.24199999E+02  0.15312E+03
 0.24249998E+02  0.15392E+03
 0.24299999E+02  0.15329E+03
 0.24349998E+02  0.15221E+03
 0.24399998E+02  0.15213E+03
 0.24449999E+02  0.15294E+03
 0.24499998E+02  0.15244E+03
 0.24549999E+02  0.15238E+03
 0.24599998E+02  0.15219E+03
 0.24649998E+02  0.15182E+03
 0.24699999E+02  0.15056E+03
 0.24749998E+02  0.14975E+03
 0.24799999E+02  0.15092E+03
 0.24849998E+02  0.15037E+03
 0.24899998E+02  0.15025E+03
 0.24949999E+02  0.15039E+03
 0.24999998E+02  0.14956E+03
 0.25049999E+02  0.14884E+03
 0.25099998E+02  0.15013E+03
 0.25149998E+02  0.15062E+03
 0.25199999E+02  0.14908E+03
 0.25249998E+02  0.14857E+03
 0.25299999E+02  0.15019E+03
 0.25349998E+02  0.14814E+03
 0.25399998E+02  0.14834E+03
 0.25449999E+02  0.15021E+03
 0.25499998E+02  0.14923E+03
 0.25549999E+02  0.14942E+03
 0.25599998E+02  0.14979E+03
 0.25649998E+02  0.15039E+03
 0.25699999E+02  0.15055E+03
 0.25749998E+02  0.15205E+03
 0.25799999E+02  0.15111E+03
 0.25849998E+02  0.15132E+03
 0.25899998E+02  0.15200E+03
 0.25949999E+02  0.15068E+03
 0.25999998E+02  0.15169E+03
 0.26049999E+02  0.15203E+03
 0.26099998E+02  0.15176E+03
 0.26149998E+02  0.15229E+03
 0.26199999E+02  0.15212E+03
 0.26249998E+02  0.15255E+03
 0.26299999E+02  0.15415E+03
 0.26349998E+02  0.15277E+03
 0.26399998E+02  0.15247E+03
 0.26449999E+02  0.15209E+03
 0.26499998E+02  0.15303E+03
 0.26549999E+02  0.15356E+03
 0.26599998E+02  0.15244E+03
 0.26649998E+02  0.15162E+03
 0.26699999E+02  0.15197E+03
 0.26749998E+02  0.15335E+03
 0.26799999E+02  0.15220E+03
 0.26849998E+02  0.15216E+03
 0.26899998E+02  0.15218E+03
 0.26949999E+02  0.15233E+03
 0.26999998E+02  0.15177E+03
 0.27049997E+02  0.15271E+03
 0.27099998E+02  0.15190E+03
 0.27149998E+02  0.15137E+03
 0.27199999E+02  0.15158E+03
 0.27249998E+02  0.15112E+03
 0.27299997E+02  0.15201E+03
 0.27349998E+02  0.15098E+03
 0.27399998E+02  0.15075E+03
 0.27449999E+02  0.15168E+03
 0.27499998E+02  0.15135E+03
 0.27549997E+02  0.15125E+03
 0.27599998E+02  0.15127E+03
 0.27649998E+02  0.15206E+03
 0.27699999E+02  0.15145E+03
 0.27749998E+02  0.15138E+03
 0.27799997E+02  0.15135E+03
 0.27849998E+02  0.15068E+03
 0.27899998E+02  0.15289E+03
 0.27949999E+02  0.15162E+03
 0.27999998E+02  0.15170E+03
 0.28049997E+02  0.15271E+03
 0.28099998E+02  0.15043E+03
 0.28149998E+02  0.15109E+03
 0.28199999E+02  0.15063E+03
 0.28249998E+02  0.14953E+03
 0.28299997E+02  0.15016E+03
 0.28349998E+02  0.14888E+03
 0.28399998E+02  0.15032E+03
 0.28449999E+02  0.14972E+03
 0.28499998E+02  0.15019E+03
 0.28549997E+02  0.15041E+03
 0.28599998E+02  0.14987E+03
 0.28649998E+02  0.15023E+03
 0.28699999E+02  0.15028E+03
 0.28749998E+02  0.15175E+03
 0.28799997E+02  0.15137E+03
 0.28849998E+02  0.15059E+03
 0.28899998E+02  0.15101E+03
 0.28949999E+02  0.15190E+03
 0.28999998E+02  0.15178E+03
 0.29049997E+02  0.15245E+03
 0.29099998E+02  0.15101E+03
 0.29149998E+02  0.15119E+03
 0.29199999E+02  0.15140E+03
 0.29249998E+02  0.15140E+03
 0.29299997E+02  0.15218E+03
 0.29349998E+02  0.15132E+03
 0.29399998E+02  0.15224E+03
 0.29449999E+02  0.15341E+03
 0.29499998E+02  0.15345E+03
 0.29549997E+02  0.15058E+03
 0.29599998E+02  0.15083E+03
 0.29649998E+02  0.15270E+03
 0.29699999E+02  0.15176E+03
 0.29749998E+02  0.15275E+03
 0.29799997E+02  0.15361E+03
 0.29849998E+02  0.15160E+03
 0.29899998E+02  0.15188E+03
 0.29949999E+02  0.15149E+03
 0.29999998E+02  0.14964E+03
 0.30049999E+02  0.15160E+03
 0.30099998E+02  0.15187E+03
 0.30149998E+02  0.15092E+03
 0.30199997E+02  0.15093E+03
 0.30249996E+02  0.15118E+03
 0.30299999E+02  0.15023E+03
 0.30349998E+02  0.15078E+03
 0.30399998E+02  0.15078E+03
 0.30449997E+02  0.15024E+03
 0.30499996E+02  0.15028E+03
 0.30549999E+02  0.14951E+03
 0.30599998E+02  0.14944E+03
 0.30649998E+02  0.14802E+03
 0.30699997E+02  0.14774E+03
 0.30749996E+02  0.14782E+03
 0.30799999E+02  0.14904E+03
 0.30849998E+02  0.14995E+03
 0.30899998E+02  0.14980E+03
 0.30949997E+02  0.15072E+03
 0.30999996E+02  0.15001E+03
 0.31049999E+02  0.15120E+03
 0.31099998E+02  0.15142E+03
 0.31149998E+02  0.15049E+03
 0.31199997E+02  0.15102E+03
 0.31249996E+02  0.15036E+03
 0.31299999E+02  0.15202E+03
 0.31349998E+02  0.15291E+03
 0.31399998E+02  0.15217E+03
 0.31449997E+02  0.15267E+03
 0.31499996E+02  0.15305E+03
 0.31549999E+02  0.15245E+03
 0.31599998E+02  0.15275E+03
 0.31649998E+02  0.15253E+03
 0.31699997E+02  0.15191E+03
 0.31749996E+02  0.15220E+03
 0.31799999E+02  0.15218E+03
 0.31849998E+02  0.15112E+03
 0.31899998E+02  0.15166E+03
 0.31949997E+02  0.15235E+03
 0.31999996E+02  0.15124E+03
 0.32049999E+02  0.15045E+03
 0.32099998E+02  0.15166E+03
 0.32149998E+02  0.15295E+03
 0.32199997E+02  0.15337E+03
 0.32249996E+02  0.15172E+03
 0.32299999E+02  0.15040E+03
 0.32349998E+02  0.15180E+03
 0.32399998E+02  0.15175E+03
 0.32449997E+02  0.15032E+03
 0.32499996E+02  0.15016E+03
 0.32549999E+02  0.15241E+03
 0.32599998E+02  0.15141E+03
 0.32649998E+02  0.15076E+03
 0.32699997E+02  0.15082E+03
 0.32749996E+02  0.15100E+03
 0.32799999E+02  0.15068E+03
 0.32849998E+02  0.15136E+03
 0.32899998E+02  0.15116E+03
 0.32949997E+02  0.15030E+03
 0.32999996E+02  0.15102E+03
 0.33049999E+02  0.15176E+03
 0.33099998E+02  0.15254E+03
 0.33149998E+02  0.15173E+03
 0.33199997E+02  0.15277E+03
 0.33249996E+02  0.15226E+03
 0.33299999E+02  0.15170E+03
 0.33349998E+02  0.15124E+03
 0.33399998E+02  0.15075E+03
 0.33449997E+02  0.15133E+03
 0.33499996E+02  0.15166E+03
 0.33549999E+02  0.15028E+03
 0.33599998E+02  0.15074E+03
 0.33649998E+02  0.15193E+03
 0.33699997E+02  0.15127E+03
 0.33749996E+02  0.15253E+03
 0.33799999E+02  0.15025E+03
 0.33849998E+02  0.15104E+03
 0.33899998E+02  0.15116E+03
 0.33949997E+02  0.15162E+03
 0.33999996E+02  0.15359E+03
 0.34049999E+02  0.15187E+03
 0.34099998E+02  0.15139E+03
 0.34149998E+02  0.15211E+03
 0.34199997E+02  0.15395E+03
 0.34249996E+02  0.15282E+03
 0.34299999E+02  0.15436E+03
 0.34349998E+02  0.15274E+03
 0.34399998E+02  0.15234E+03
 0.34449997E+02  0.15425E+03
 0.34499996E+02  0.15322E+03
 0.34549999E+02  0.15431E+03
 0.34599998E+02  0.15359E+03
 0.34649998E+02  0.15391E+03
 0.34699997E+02  0.15340E+03
 0.34749996E+02  0.15300E+03
 0.34799999E+02  0.15413E+03
 0.34849998E+02  0.15357E+03
 0.34899998E+02  0.15385E+03
 0.34949997E+02  0.15444E+03
 0.34999996E+02  0.15440E+03
 0.35049999E+02  0.15442E+03
 0.35099998E+02  0.15293E+03
 0.35149998E+02  0.15288E+03
 0.35199997E+02  0.15196E+03
 0.35249996E+02  0.15130E+03
 0.35299999E+02  0.15340E+03
 0.35349998E+02  0.15132E+03
 0.35399998E+02  0.15194E+03
 0.35449997E+02  0.15205E+03
 0.35499996E+02  0.15289E+03
 0.35549999E+02  0.15457E+03
 0.35599998E+02  0.15293E+03
 0.35649998E+02  0.15252E+03
 0.35699997E+02  0.15144E+03
 0.35749996E+02  0.15218E+03
 0.35799999E+02  0.15066E+03
 0.35849998E+02  0.15115E+03
 0.35899998E+02  0.15164E+03
 0.35949997E+02  0.15214E+03
 0.35999996E+02  0.15148E+03
 0.36049999E+02  0.15192E+03
 0.36099998E+02  0.15366E+03
 0.36149998E+02  0.15229E+03
 0.36199997E+02  0.15148E+03
 0.36249996E+02  0.15192E+03
 0.36299999E+02  0.15174E+03
 0.36349998E+02  0.14904E+03
 0.36399998E+02  0.15035E+03
 0.36449997E+02  0.15116E+03
 0.36499996E+02  0.14982E+03
 0.36549999E+02  0.15054E+03
 0.36599998E+02  0.15190E+03
 0.36649998E+02  0.15083E+03
 0.36699997E+02  0.15026E+03
 0.36749996E+02  0.15255E+03
 0.36799999E+02  0.15029E+03
 0.36849998E+02  0.15044E+03
 0.36899998E+02  0.15153E+03
 0.36949997E+02  0.14997E+03
 0.36999996E+02  0.15213E+03
 0.37049999E+02  0.15246E+03
 0.37099998E+02  0.15095E+03
 0.37149998E+02  0.15118E+03
 0.37199997E+02  0.15244E+03
 0.37249996E+02  0.15020E+03
 0.37299999E+02  0.15086E+03
 0.37349998E+02  0.15270E+03
 0.37399998E+02  0.15181E+03
 0.37449997E+02  0.15126E+03
 0.37499996E+02  0.15315E+03
 0.37549999E+02  0.15532E+03
 0.37599998E+02  0.15326E+03
 0.37649998E+02  0.15418E+03
 0.37699997E+02  0.15309E+03
 0.37749996E+02  0.15357E+03
 0.37799999E+02  0.15269E+03
 0.37849998E+02  0.14955E+03
 0.37899998E+02  0.15223E+03
 0.37949997E+02  0.15262E+03
 0.37999996E+02  0.15246E+03
 0.38049999E+02  0.15271E+03
 0.38099998E+02  0.15264E+03
 0.38149998E+02  0.15155E+03
 0.38199997E+02  0.15140E+03
 0.38249996E+02  0.15114E+03
 0.38299999E+02  0.15021E+03
 0.38349998E+02  0.14996E+03
 0.38399998E+02  0.14849E+03
 0.38449997E+02  0.14840E+03
 0.38499996E+02  0.15092E+03
 0.38549999E+02  0.15268E+03
 0.38599998E+02  0.15232E+03
 0.38649998E+02  0.15026E+03
 0.38699997E+02  0.14983E+03
 0.38749996E+02  0.15084E+03
 0.38799999E+02  0.15194E+03
 0.38849998E+02  0.15054E+03
 0.38899998E+02  0.15075E+03
 0.38949997E+02  0.15212E+03
 0.38999996E+02  0.15366E+03
 0.39049999E+02  0.15324E+03
 0.39099998E+02  0.15418E+03
 0.39149998E+02  0.15442E+03
 0.39199997E+02  0.15141E+03
 0.39249996E+02  0.15302E+03
 0.39299999E+02  0.15203E+03
 0.39349998E+02  0.15417E+03
 0.39399998E+02  0.15292E+03
 0.39449997E+02  0.15123E+03
 0.39499996E+02  0.15243E+03
 0.39549999E+02  0.15248E+03
 0.39599998E+02  0.15327E+03
 0.39649998E+02  0.15149E+03
 0.39699997E+02  0.15333E+03
 0.39749996E+02  0.15367E+03
 0.39799999E+02  0.14852E+03
 0.39849998E+02  0.15131E+03
 0.39899998E+02  0.15513E+03
 0.39949997E+02  0.15241E+03
 0.39999996E+02  0.14802E+03
 0.40049999E+02  0.15078E+03
 0.40099998E+02  0.15409E+03
 0.40149998E+02  0.15156E+03
 0.40199997E+02  0.14875E+03
 0.40249996E+02  0.15008E+03
 0.40299999E+02  0.15180E+03
 0.40349998E+02  0.14930E+03
 0.40399998E+02  0.15154E+03
 0.40449997E+02  0.15547E+03
 0.40499996E+02  0.15448E+03
 0.40549999E+02  0.14966E+03
 0.40599998E+02  0.15315E+03
 0.40649998E+02  0.14930E+03
 0.40699997E+02  0.14937E+03
 0.40749996E+02  0.15038E+03
 0.40799999E+02  0.15256E+03
 0.40849998E+02  0.15468E+03
 0.40899998E+02  0.14764E+03
 0.40949997E+02  0.15158E+03
 0.40999996E+02  0.15195E+03
 0.41049999E+02  0.14946E+03
 0.41099998E+02  0.14753E+03
 0.41149998E+02  0.14811E+03
 0.41199997E+02  0.15140E+03
 0.41249996E+02  0.15473E+03
 0.41299999E+02  0.15250E+03
 0.41349998E+02  0.14750E+03
 0.41399998E+02  0.14845E+03
 0.41449997E+02  0.15138E+03
 0.41499996E+02  0.15307E+03
 0.41549999E+02  0.15351E+03
 0.41599998E+02  0.14781E+03
 0.41649998E+02  0.14977E+03
 0.41699997E+02  0.15156E+03
 0.41749996E+02  0.14320E+03
 0.41799999E+02  0.14606E+03
 0.41849998E+02  0.15095E+03
 0.41899998E+02  0.15260E+03
 0.41949997E+02  0.15511E+03
 0.41999996E+02  0.14883E+03
 0.42049999E+02  0.14680E+03
 0.42099998E+02  0.14992E+03
 0.42149998E+02  0.15208E+03
 0.42199997E+02  0.15475E+03
 0.42249996E+02  0.15311E+03
 0.42299999E+02  0.15549E+03
 0.42349998E+02  0.15467E+03
 0.42399998E+02  0.15118E+03
 0.42449997E+02  0.15198E+03
 0.42499996E+02  0.14846E+03
 0.42549999E+02  0.14566E+03
 0.42599998E+02  0.15190E+03
 0.42649998E+02  0.15118E+03
 0.42699997E+02  0.14761E+03
 0.42749996E+02  0.15012E+03
 0.42799995E+02  0.14895E+03
 0.42849998E+02  0.14901E+03
 0.42899998E+02  0.15138E+03
 0.42949997E+02  0.15095E+03
 0.42999996E+02  0.15388E+03
 0.43049995E+02  0.14944E+03
 0.43099998E+02  0.14543E+03
 0.43149998E+02  0.14762E+03
 0.43199997E+02  0.14674E+03
 0.43249996E+02  0.14834E+03
 0.43299995E+02  0.15604E+03
 0.43349998E+02  0.15880E+03
 0.43399998E+02  0.15062E+03
 0.43449997E+02  0.14702E+03
 0.43499996E+02  0.15529E+03
 0.43549995E+02  0.15997E+03
 0.43599998E+02  0.15164E+03
 0.43649998E+02  0.14589E+03
 0.43699997E+02  0.14447E+03
 0.43749996E+02  0.14860E+03
 0.43799995E+02  0.15558E+03
 0.43849998E+02  0.16056E+03
 0.43899998E+02  0.16003E+03
 0.43949997E+02  0.15541E+03
 0.43999996E+02  0.14760E+03
 0.44049995E+02  0.14745E+03
 0.44099998E+02  0.14417E+03
 0.44149998E+02  0.14174E+03
 0.44199997E+02  0.14839E+03
 0.44249996E+02  0.15068E+03
 0.44299995E+02  0.15293E+03
 0.44349998E+02  0.15089E+03
 0.44399998E+02  0.14515E+03
 0.44449997E+02  0.14461E+03
 0.44499996E+02  0.15300E+03
 0.44549995E+02  0.15583E+03
 0.44599998E+02  0.15404E+03
 0.44649998E+02  0.15253E+03
 0.44699997E+02  0.15709E+03
 0.44749996E+02  0.16073E+03
 0.44799995E+02  0.15784E+03
 0.44849998E+02  0.15624E+03
 0.44899998E+02  0.15090E+03
 0.44949997E+02  0.15034E+03
 0.44999996E+02  0.14708E+03
 0.45049995E+02  0.14291E+03
 0.45099998E+02  0.14165E+03
 0.45149998E+02  0.14223E+03
 0.45199997E+02  0.14470E+03
 0.45249996E+02  0.14505E+03
 0.45299995E+02  0.14563E+03
 0.45349998E+02  0.14053E+03
 0.45399998E+02  0.14312E+03
 0.45449997E+02  0.14358E+03
 0.45499996E+02  0.14329E+03
 0.45549995E+02  0.14219E+03
 0.45599998E+02  0.14554E+03
 0.45649998E+02  0.15287E+03
 0.45699997E+02  0.14371E+03
 0.45749996E+02  0.14579E+03
 0.45799995E+02  0.15382E+03
 0.45849998E+02  0.15336E+03
 0.45899998E+02  0.15403E+03
 0.45949997E+02  0.14994E+03
 0.45999996E+02  0.15082E+03
 0.46049995E+02  0.15274E+03
 0.46099998E+02  0.15285E+03
 0.46149998E+02  0.15439E+03
 0.46199997E+02  0.14967E+03
 0.46249996E+02  0.14682E+03
 0.46299995E+02  0.15238E+03
 0.46349998E+02  0.15327E+03
 0.46399998E+02  0.14704E+03
 0.46449997E+02  0.15060E+03
 0.46499996E+02  0.14913E+03
 0.46549995E+02  0.14298E+03
 0.46599998E+02  0.14412E+03
 0.46649998E+02  0.15456E+03
 0.46699997E+02  0.16234E+03
 0.46749996E+02  0.15936E+03
 0.46799995E+02  0.15671E+03
 0.46849998E+02  0.14943E+03
 0.46899998E+02  0.14320E+03
 0.46949997E+02  0.14649E+03
 0.46999996E+02  0.15405E+03
 0.47049995E+02  0.15810E+03
 0.47099998E+02  0.15079E+03
 0.47149998E+02  0.14748E+03
 0.47199997E+02  0.14796E+03
 0.47249996E+02  0.14327E+03
 0.47299995E+02  0.14234E+03
 0.47349998E+02  0.15246E+03
 0.47399998E+02  0.15689E+03
 0.47449997E+02  0.14979E+03
 0.47499996E+02  0.14817E+03
 0.47549995E+02  0.15177E+03
 0.47599998E+02  0.15783E+03
 0.47649998E+02  0.15230E+03
 0.47699997E+02  0.14785E+03
 0.47749996E+02  0.14729E+03
 0.47799995E+02  0.14867E+03
 0.47849998E+02  0.15186E+03
 0.47899998E+02  0.15295E+03
 0.47949997E+02  0.15566E+03
 0.47999996E+02  0.15498E+03
 0.48049995E+02  0.15185E+03
 0.48099998E+02  0.14908E+03
 0.48149998E+02  0.14867E+03
 0.48199997E+02  0.15243E+03
 0.48249996E+02  0.15940E+03
 0.48299995E+02  0.15909E+03
 0.48349998E+02  0.15324E+03
 0.48399998E+02  0.14917E+03
 0.48449997E+02  0.14524E+03
 0.48499996E+02  0.14163E+03
 0.48549995E+02  0.14977E+03
 0.48599998E+02  0.15773E+03
 0.48649998E+02  0.16210E+03
 0.48699997E+02  0.16257E+03
 0.48749996E+02  0.15810E+03
 0.48799995E+02  0.15970E+03
 0.48849998E+02  0.15607E+03
 0.48899998E+02  0.15623E+03
 0.48949997E+02  0.15417E+03
 0.48999996E+02  0.15322E+03
 0.49049995E+02  0.16170E+03
 0.49099998E+02  0.15926E+03
 0.49149998E+02  0.15722E+03
 0.49199997E+02  0.15627E+03
 0.49249996E+02  0.15233E+03
 0.49299995E+02  0.14917E+03
 0.49349998E+02  0.14425E+03
 0.49399998E+02  0.14530E+03
 0.49449997E+02  0.15047E+03
 0.49499996E+02  0.15075E+03
 0.49549995E+02  0.14924E+03
 0.49599998E+02  0.14997E+03
 0.49649998E+02  0.15391E+03
 0.49699997E+02  0.15621E+03
 0.49749996E+02  0.15237E+03
 0.49799995E+02  0.15054E+03
 0.49849998E+02  0.15057E+03
 0.49899998E+02  0.15478E+03
 0.49949997E+02  0.15626E+03
 0.49999996E+02  0.15431E+03
 0.50049995E+02  0.15603E+03
 0.50099998E+02  0.15633E+03
 0.50149998E+02  0.15474E+03
 0.50199997E+02  0.15217E+03
 0.50249996E+02  0.15091E+03
 0.50299995E+02  0.14660E+03
 0.50349998E+02  0.14426E+03
 0.50399998E+02  0.14432E+03
 0.50449997E+02  0.14493E+03
 0.50499996E+02  0.15217E+03
 0.50549995E+02  0.15732E+03
 0.50599998E+02  0.15332E+03
 0.50649998E+02  0.15164E+03
 0.50699997E+02  0.15467E+03
 0.50749996E+02  0.15625E+03
 0.50799995E+02  0.15287E+03
 0.50849998E+02  0.15228E+03
 0.50899998E+02  0.15868E+03
 0.50949997E+02  0.16280E+03
 0.50999996E+02  0.16432E+03
 0.51049995E+02  0.15380E+03
 0.51099998E+02  0.14188E+03
 0.51149998E+02  0.13876E+03
 0.51199997E+02  0.14009E+03
 0.51249996E+02  0.14787E+03
 0.51299995E+02  0.15103E+03
 0.51349998E+02  0.14722E+03
 0.51399998E+02  0.14965E+03
 0.51449997E+02  0.15760E+03
 0.51499996E+02  0.16152E+03
 0.51549995E+02  0.16055E+03
 0.51599998E+02  0.15606E+03
 0.51649998E+02  0.15211E+03
 0.51699997E+02  0.15144E+03
 0.51749996E+02  0.15205E+03
 0.51799995E+02  0.15327E+03
 0.51849998E+02  0.15565E+03
 0.51899998E+02  0.15513E+03
 0.51949997E+02  0.15290E+03
 0.51999996E+02  0.15117E+03
 0.52049995E+02  0.15152E+03
 0.52099998E+02  0.15421E+03
 0.52149998E+02  0.15093E+03
 0.52199997E+02  0.14733E+03
 0.52249996E+02  0.14679E+03
 0.52299995E+02  0.14423E+03
 0.52349998E+02  0.15058E+03
 0.52399998E+02  0.15761E+03
 0.52449997E+02  0.15771E+03
 0.52499996E+02  0.15351E+03
 0.52549995E+02  0.14528E+03
 0.52599998E+02  0.14144E+03
 0.52649998E+02  0.14265E+03
 0.52699997E+02  0.15185E+03
 0.52749996E+02  0.15391E+03
 0.52799995E+02  0.15208E+03
 0.52849998E+02  0.15719E+03
 0.52899998E+02  0.15811E+03
 0.52949997E+02  0.15347E+03
 0.52999996E+02  0.14820E+03
 0.53049995E+02  0.14897E+03
 0.53099998E+02  0.15211E+03
 0.53149998E+02  0.16066E+03
 0.53199997E+02  0.16588E+03
 0.53249996E+02  0.16267E+03
 0.53299995E+02  0.15583E+03
 0.53349998E+02  0.15140E+03
 0.53399998E+02  0.15425E+03
 0.53449997E+02  0.15541E+03
 0.53499996E+02  0.15259E+03
 0.53549995E+02  0.14975E+03
 0.53599998E+02  0.14677E+03
 0.53649998E+02  0.14433E+03
 0.53699997E+02  0.14800E+03
 0.53749996E+02  0.14962E+03
 0.53799995E+02  0.14868E+03
 0.53849998E+02  0.14668E+03
 0.53899998E+02  0.14880E+03
 0.53949997E+02  0.15139E+03
 0.53999996E+02  0.15411E+03
 0.54049995E+02  0.15818E+03
 0.54099998E+02  0.15396E+03
 0.54149998E+02  0.14624E+03
 0.54199997E+02  0.14177E+03
 0.54249996E+02  0.14628E+03
 0.54299995E+02  0.15385E+03
 0.54349998E+02  0.15572E+03
 0.54399998E+02  0.15250E+03
 0.54449997E+02  0.15325E+03
 0.54499996E+02  0.15524E+03
 0.54549995E+02  0.15815E+03
 0.54599998E+02  0.15796E+03
 0.54649998E+02  0.15179E+03
 0.54699997E+02  0.15222E+03
 0.54749996E+02  0.15654E+03
 0.54799995E+02  0.15817E+03
 0.54849998E+02  0.15450E+03
 0.54899998E+02  0.15280E+03
 0.54949997E+02  0.15578E+03
 0.54999996E+02  0.15418E+03
 0.55049995E+02  0.14776E+03
 0.55099998E+02  0.14242E+03
 0.55149998E+02  0.14348E+03
 0.55199997E+02  0.14659E+03
 0.55249996E+02  0.14836E+03
 0.55299995E+02  0.15342E+03
 0.55349998E+02  0.15603E+03
 0.55399998E+02  0.15472E+03
 0.55449997E+02  0.15376E+03
 0.55499996E+02  0.14516E+03
 0.55549995E+02  0.13636E+03
 0.55599998E+02  0.13736E+03
 0.55649998E+02  0.14384E+03
 0.55699997E+02  0.14829E+03
 0.55749996E+02  0.15155E+03
 0.55799995E+02  0.15544E+03
 0.55849995E+02  0.15418E+03
 0.55899998E+02  0.15390E+03
 0.55949997E+02  0.15483E+03
 0.55999996E+02  0.15523E+03
 0.56049995E+02  0.15716E+03
 0.56099995E+02  0.15609E+03
 0.56149998E+02  0.15738E+03
 0.56199997E+02  0.15492E+03
 0.56249996E+02  0.15268E+03
 0.56299995E+02  0.15331E+03
 0.56349995E+02  0.15125E+03
 0.56399998E+02  0.15243E+03
 0.56449997E+02  0.14933E+03
 0.56499996E+02  0.14691E+03
 0.56549995E+02  0.14595E+03
 0.56599995E+02  0.14641E+03
 0.56649998E+02  0.14961E+03
 0.56699997E+02  0.15016E+03
 0.56749996E+02  0.14875E+03
 0.56799995E+02  0.14730E+03
 0.56849995E+02  0.14768E+03
 0.56899998E+02  0.14858E+03
 0.56949997E+02  0.14612E+03
 0.56999996E+02  0.14395E+03
 0.57049995E+02  0.14153E+03
 0.57099995E+02  0.14370E+03
 0.57149998E+02  0.14978E+03
 0.57199997E+02  0.15725E+03
 0.57249996E+02  0.16119E+03
 0.57299995E+02  0.15576E+03
 0.57349995E+02  0.15440E+03
 0.57399998E+02  0.15310E+03
 0.57449997E+02  0.15464E+03
 0.57499996E+02  0.15685E+03
 0.57549995E+02  0.15486E+03
 0.57599995E+02  0.15441E+03
 0.57649998E+02  0.14952E+03
 0.57699997E+02  0.14453E+03
 0.57749996E+02  0.14727E+03
 0.57799995E+02  0.14943E+03
 0.57849995E+02  0.15358E+03
 0.57899998E+02  0.15146E+03
 0.57949997E+02  0.14419E+03
 0.57999996E+02  0.14716E+03
 0.58049995E+02  0.15004E+03
 0.58099995E+02  0.14954E+03
 0.58149998E+02  0.14950E+03
 0.58199997E+02  0.14768E+03
 0.58249996E+02  0.14374E+03
 0.58299995E+02  0.14777E+03
 0.58349995E+02  0.15381E+03
 0.58399998E+02  0.15807E+03
 0.58449997E+02  0.15973E+03
 0.58499996E+02  0.15657E+03
 0.58549995E+02  0.15737E+03
 0.58599995E+02  0.15357E+03
 0.58649998E+02  0.15346E+03
 0.58699997E+02  0.15736E+03
 0.58749996E+02  0.15342E+03
 0.58799995E+02  0.15771E+03
 0.58849995E+02  0.16460E+03
 0.58899998E+02  0.16532E+03
 0.58949997E+02  0.15937E+03
 0.58999996E+02  0.15388E+03
 0.59049995E+02  0.14950E+03
 0.59099995E+02  0.14222E+03
 0.59149998E+02  0.14049E+03
 0.59199997E+02  0.14544E+03
 0.59249996E+02  0.14861E+03
 0.59299995E+02  0.14651E+03
 0.59349995E+02  0.15392E+03
 0.59399998E+02  0.15497E+03
 0.59449997E+02  0.15555E+03
 0.59499996E+02  0.15444E+03
 0.59549995E+02  0.15195E+03
 0.59599995E+02  0.15238E+03
 0.59649998E+02  0.14529E+03
 0.59699997E+02  0.15112E+03
 0.59749996E+02  0.15348E+03
 0.59799995E+02  0.15372E+03
 0.59849995E+02  0.15574E+03
 0.59899998E+02  0.15677E+03
 0.59949997E+02  0.15375E+03
 0.59999996E+02  0.14552E+03
 0.60049995E+02  0.14284E+03
 0.60099995E+02  0.14439E+03
 0.60149998E+02  0.14790E+03
 0.60199997E+02  0.14498E+03
 0.60249996E+02  0.14228E+03
 0.60299995E+02  0.14625E+03
 0.60349995E+02  0.14512E+03
 0.60399998E+02  0.14250E+03
 0.60449997E+02  0.14745E+03
 0.60499996E+02  0.15353E+03
 0.60549995E+02  0.15791E+03
 0.60599995E+02  0.15698E+03
 0.60649998E+02  0.15388E+03
 0.60699997E+02  0.15375E+03
 0.60749996E+02  0.15030E+03
 0.60799995E+02  0.14479E+03
 0.60849995E+02  0.15057E+03
 0.60899998E+02  0.15403E+03
 0.60949997E+02  0.15764E+03
 0.60999996E+02  0.16377E+03
 0.61049995E+02  0.16202E+03
 0.61099995E+02  0.15801E+03
 0.61149998E+02  0.14984E+03
 0.61199997E+02  0.14390E+03
 0.61249996E+02  0.14595E+03
 0.61299995E+02  0.15422E+03
 0.61349995E+02  0.15225E+03
 0.61399998E+02  0.15275E+03
 0.61449997E+02  0.14918E+03
 0.61499996E+02  0.14609E+03
 0.61549995E+02  0.15782E+03
 0.61599995E+02  0.15415E+03
 0.61649998E+02  0.14527E+03
 0.61699997E+02  0.14579E+03
 0.61749996E+02  0.15310E+03
 0.61799995E+02  0.14797E+03
 0.61849995E+02  0.14271E+03
 0.61899998E+02  0.15230E+03
 0.61949997E+02  0.15760E+03
 0.61999996E+02  0.15795E+03
 0.62049995E+02  0.15456E+03
 0.62099998E+02  0.14854E+03
 0.62149994E+02  0.14934E+03
 0.62199997E+02  0.15400E+03
 0.62249992E+02  0.15378E+03
 0.62299995E+02  0.15306E+03
 0.62349998E+02  0.14813E+03
 0.62399994E+02  0.15092E+03
 0.62449997E+02  0.15757E+03
 0.62499992E+02  0.15611E+03
 0.62549995E+02  0.15003E+03
 0.62599998E+02  0.13768E+03
 0.62649994E+02  0.14088E+03
 0.62699997E+02  0.14670E+03
 0.62749992E+02  0.14385E+03
 0.62799995E+02  0.14915E+03
 0.62849998E+02  0.14796E+03
 0.62899994E+02  0.14659E+03
 0.62949997E+02  0.14750E+03
 0.62999992E+02  0.14264E+03
 0.63049995E+02  0.14072E+03
 0.63099998E+02  0.14366E+03
 0.63149994E+02  0.14580E+03
 0.63199997E+02  0.14418E+03
 0.63249992E+02  0.14808E+03
 0.63299995E+02  0.15450E+03
 0.63349998E+02  0.15647E+03
 0.63399994E+02  0.15700E+03
 0.63449997E+02  0.15268E+03
 0.63499992E+02  0.15171E+03
 0.63549995E+02  0.15272E+03
 0.63599998E+02  0.15068E+03
 0.63649994E+02  0.15707E+03
 0.63699997E+02  0.15712E+03
 0.63749992E+02  0.15494E+03
 0.63799995E+02  0.15651E+03
 0.63849998E+02  0.15769E+03
 0.63899994E+02  0.15974E+03
 0.63949997E+02  0.15978E+03
 0.63999992E+02  0.15446E+03
 0.64049995E+02  0.15235E+03
 0.64099998E+02  0.15823E+03
 0.64149994E+02  0.15812E+03
 0.64199997E+02  0.15455E+03
 0.64249992E+02  0.15060E+03
 0.64299995E+02  0.14644E+03
 0.64349998E+02  0.14930E+03
 0.64399994E+02  0.15302E+03
 0.64449997E+02  0.14946E+03
 0.64499992E+02  0.15473E+03
 0.64549995E+02  0.15547E+03
 0.64599998E+02  0.14729E+03
 0.64649994E+02  0.14064E+03
 0.64699997E+02  0.13670E+03
 0.64749992E+02  0.14333E+03
 0.64799995E+02  0.15134E+03
 0.64849998E+02  0.15504E+03
 0.64899994E+02  0.14748E+03
 0.64949997E+02  0.13520E+03
 0.64999992E+02  0.13174E+03
 0.65049995E+02  0.13617E+03
 0.65099998E+02  0.14339E+03
 0.65149994E+02  0.15655E+03
 0.65199997E+02  0.15645E+03
 0.65249992E+02  0.14332E+03
 0.65299995E+02  0.13570E+03
 0.65349998E+02  0.14169E+03
 0.65399994E+02  0.15015E+03
 0.65449997E+02  0.14351E+03
 0.65499992E+02  0.14031E+03
 0.65549995E+02  0.14341E+03
 0.65599998E+02  0.15353E+03
 0.65649994E+02  0.16093E+03
 0.65699997E+02  0.15774E+03
 0.65749992E+02  0.15460E+03
 0.65799995E+02  0.15518E+03
 0.65849998E+02  0.15390E+03
 0.65899994E+02  0.15066E+03
 0.65949997E+02  0.14735E+03
 0.65999992E+02  0.14608E+03
 0.66049995E+02  0.14806E+03
 0.66099998E+02  0.15040E+03
 0.66149994E+02  0.15063E+03
 0.66199997E+02  0.15378E+03
 0.66249992E+02  0.15654E+03
 0.66299995E+02  0.15724E+03
 0.66349998E+02  0.14928E+03
 0.66399994E+02  0.14248E+03
 0.66449997E+02  0.14961E+03
 0.66499992E+02  0.15124E+03
 0.66549995E+02  0.15469E+03
 0.66599998E+02  0.14750E+03
 0.66649994E+02  0.14508E+03
 0.66699997E+02  0.15592E+03
 0.66749992E+02  0.14897E+03
 0.66799995E+02  0.14357E+03
 0.66849998E+02  0.14057E+03
 0.66899994E+02  0.14102E+03
 0.66949997E+02  0.13792E+03
 0.66999992E+02  0.13555E+03
 0.67049995E+02  0.14374E+03
 0.67099998E+02  0.15074E+03
 0.67149994E+02  0.15805E+03
 0.67199997E+02  0.15880E+03
 0.67249992E+02  0.16003E+03
 0.67299995E+02  0.15706E+03
 0.67349998E+02  0.14654E+03
 0.67399994E+02  0.14468E+03
 0.67449997E+02  0.14557E+03
 0.67499992E+02  0.14174E+03
 0.67549995E+02  0.14780E+03
 0.67599998E+02  0.14921E+03
 0.67649994E+02  0.14690E+03
 0.67699997E+02  0.14523E+03
 0.67749992E+02  0.14388E+03
 0.67799995E+02  0.14666E+03
 0.67849998E+02  0.14236E+03
 0.67899994E+02  0.14300E+03
 0.67949997E+02  0.14740E+03
 0.67999992E+02  0.14203E+03
 0.68049995E+02  0.14063E+03
 0.68099998E+02  0.14938E+03
 0.68149994E+02  0.14807E+03
 0.68199997E+02  0.14988E+03
 0.68249992E+02  0.15538E+03
 0.68299995E+02  0.15664E+03
 0.68349998E+02  0.15630E+03
 0.68399994E+02  0.15577E+03
 0.68449997E+02  0.15350E+03
 0.68499992E+02  0.14495E+03
 0.68549995E+02  0.14067E+03
 0.68599998E+02  0.14655E+03
 0.68649994E+02  0.15009E+03
 0.68699997E+02  0.14654E+03
 0.68749992E+02  0.14564E+03
 0.68799995E+02  0.14221E+03
 0.68849998E+02  0.14617E+03
 0.68899994E+02  0.15247E+03
 0.68949997E+02  0.15198E+03
 0.68999992E+02  0.15032E+03
 0.69049995E+02  0.15238E+03
 0.69099998E+02  0.15846E+03
 0.69149994E+02  0.16063E+03
 0.69199997E+02  0.15758E+03
 0.69249992E+02  0.15351E+03
 0.69299995E+02  0.15112E+03
 0.69349998E+02  0.15311E+03
 0.69399994E+02  0.15674E+03
 0.69449997E+02  0.15984E+03
 0.69499992E+02  0.16367E+03
 0.69549995E+02  0.16197E+03
 0.69599998E+02  0.15830E+03
 0.69649994E+02  0.14739E+03
 0.69699997E+02  0.13976E+03
 0.69749992E+02  0.14250E+03
 0.69799995E+02  0.15074E+03
 0.69849998E+02  0.16059E+03
 0.69899994E+02  0.15562E+03
 0.69949997E+02  0.14624E+03
 0.69999992E+02  0.14649E+03
 0.70049995E+02  0.15501E+03
 0.70099998E+02  0.15946E+03
 0.70149994E+02  0.15812E+03
 0.70199997E+02  0.14868E+03
 0.70249992E+02  0.13811E+03
 0.70299995E+02  0.13241E+03
 0.70349998E+02  0.13110E+03
 0.70399994E+02  0.14177E+03
 0.70449997E+02  0.14661E+03
 0.70499992E+02  0.15585E+03
 0.70549995E+02  0.16261E+03
 0.70599998E+02  0.15537E+03
 0.70649994E+02  0.15343E+03
 0.70699997E+02  0.15685E+03
 0.70749992E+02  0.16272E+03
 0.70799995E+02  0.15527E+03
 0.70849998E+02  0.14518E+03
 0.70899994E+02  0.13871E+03
 0.70949997E+02  0.13005E+03
 0.70999992E+02  0.12378E+03
 0.71049995E+02  0.12289E+03
 0.71099998E+02  0.12877E+03
 0.71149994E+02  0.13724E+03
 0.71199997E+02  0.14724E+03
 0.71249992E+02  0.15036E+03
 0.71299995E+02  0.14419E+03
 0.71349998E+02  0.13296E+03
 0.71399994E+02  0.12102E+03
 0.71449997E+02  0.10271E+03
 0.71499992E+02  0.95304E+02
 0.71549995E+02  0.10713E+03
 0.71599998E+02  0.12361E+03
 0.71649994E+02  0.13627E+03
 0.71699997E+02  0.14586E+03
 0.71749992E+02  0.15927E+03
 0.71799995E+02  0.16288E+03
 0.71849998E+02  0.16625E+03
 0.71899994E+02  0.15684E+03
 0.71949997E+02  0.14145E+03
 0.71999992E+02  0.14607E+03
 0.72049995E+02  0.15075E+03
 0.72099998E+02  0.14783E+03
 0.72149994E+02  0.14855E+03
 0.72199997E+02  0.15571E+03
 0.72249992E+02  0.15451E+03
 0.72299995E+02  0.15289E+03
 0.72349998E+02  0.14963E+03
 0.72399994E+02  0.14734E+03
 0.72449997E+02  0.14500E+03
 0.72499992E+02  0.14120E+03
 0.72549995E+02  0.13616E+03
 0.72599998E+02  0.12896E+03
 0.72649994E+02  0.13017E+03
 0.72699997E+02  0.13345E+03
 0.72749992E+02  0.13417E+03
 0.72799995E+02  0.13999E+03
 0.72849998E+02  0.15622E+03
 0.72899994E+02  0.16772E+03
 0.72949997E+02  0.16858E+03
 0.72999992E+02  0.16835E+03
 0.73049995E+02  0.16565E+03
 0.73099998E+02  0.16259E+03
 0.73149994E+02  0.16273E+03
 0.73199997E+02  0.16074E+03
 0.73249992E+02  0.16044E+03
 0.73299995E+02  0.16281E+03
 0.73349998E+02  0.16666E+03
 0.73399994E+02  0.16666E+03
 0.73449997E+02  0.16799E+03
 0.73499992E+02  0.16845E+03
 0.73549995E+02  0.16759E+03
 0.73599998E+02  0.16504E+03
 0.73649994E+02  0.15532E+03
 0.73699997E+02  0.15293E+03
 0.73749992E+02  0.15567E+03
 0.73799995E+02  0.15579E+03
 0.73849998E+02  0.14992E+03
 0.73899994E+02  0.14124E+03
 0.73949997E+02  0.13805E+03
 0.73999992E+02  0.13632E+03
 0.74049995E+02  0.13247E+03
 0.74099998E+02  0.12608E+03
 0.74149994E+02  0.12431E+03
 0.74199997E+02  0.13017E+03
 0.74249992E+02  0.13129E+03
 0.74299995E+02  0.13030E+03
 0.74349998E+02  0.13378E+03
 0.74399994E+02  0.13610E+03
 0.74449997E+02  0.13901E+03
 0.74499992E+02  0.14694E+03
 0.74549995E+02  0.15051E+03
 0.74599998E+02  0.14917E+03
 0.74649994E+02  0.14718E+03
 0.74699997E+02  0.14767E+03
 0.74749992E+02  0.14997E+03
 0.74799995E+02  0.15074E+03
 0.74849998E+02  0.14922E+03
 0.74899994E+02  0.15434E+03
 0.74949997E+02  0.16118E+03
 0.74999992E+02  0.15716E+03
 0.75049995E+02  0.14741E+03
 0.75099998E+02  0.13461E+03
 0.75149994E+02  0.12265E+03
 0.75199997E+02  0.11446E+03
 0.75249992E+02  0.12000E+03
 0.75299995E+02  0.12851E+03
 0.75349998E+02  0.13767E+03
 0.75399994E+02  0.14929E+03
 0.75449997E+02  0.14908E+03
 0.75499992E+02  0.14667E+03
 0.75549995E+02  0.14264E+03
 0.75599998E+02  0.13089E+03
 0.75649994E+02  0.12055E+03
 0.75699997E+02  0.11960E+03
 0.75749992E+02  0.12402E+03
 0.75799995E+02  0.13465E+03
 0.75849998E+02  0.14330E+03
 0.75899994E+02  0.14630E+03
 0.75949997E+02  0.14724E+03
 0.75999992E+02  0.14831E+03
 0.76049995E+02  0.14897E+03
 0.76099998E+02  0.14159E+03
 0.76149994E+02  0.13319E+03
 0.76199997E+02  0.12571E+03
 0.76249992E+02  0.11832E+03
 0.76299995E+02  0.11400E+03
 0.76349998E+02  0.12039E+03
 0.76399994E+02  0.13536E+03
 0.76449997E+02  0.15298E+03
 0.76499992E+02  0.16465E+03
 0.76549995E+02  0.16547E+03
 0.76599998E+02  0.16035E+03
 0.76649994E+02  0.15093E+03
 0.76699997E+02  0.14222E+03
 0.76749992E+02  0.13397E+03
 0.76799995E+02  0.12842E+03
 0.76849998E+02  0.12756E+03
 0.76899994E+02  0.13229E+03
 0.76949997E+02  0.13987E+03
 0.76999992E+02  0.15212E+03
 0.77049995E+02  0.16381E+03
 0.77099998E+02  0.16767E+03
 0.77149994E+02  0.16631E+03
 0.77199997E+02  0.15758E+03
 0.77249992E+02  0.15090E+03
 0.77299995E+02  0.14658E+03
 0.77349998E+02  0.14401E+03
 0.77399994E+02  0.14374E+03
 0.77449997E+02  0.14805E+03
 0.77499992E+02  0.15780E+03
 0.77549995E+02  0.16406E+03
 0.77599998E+02  0.16751E+03
 0.77649994E+02  0.16792E+03
 0.77699997E+02  0.16385E+03
 0.77749992E+02  0.15317E+03
 0.77799995E+02  0.14419E+03
 0.77849998E+02  0.14388E+03
 0.77899994E+02  0.14817E+03
 0.77949997E+02  0.15254E+03
 0.77999992E+02  0.15431E+03
 0.78049995E+02  0.15293E+03
 0.78099998E+02  0.15226E+03
 0.78149994E+02  0.14872E+03
 0.78199997E+02  0.14238E+03
 0.78249992E+02  0.13396E+03
 0.78299995E+02  0.12726E+03
 0.78349998E+02  0.12846E+03
 0.78399994E+02  0.13012E+03
 0.78449997E+02  0.12832E+03
 0.78499992E+02  0.12677E+03
 0.78549995E+02  0.12353E+03
 0.78599998E+02  0.11662E+03
 0.78649994E+02  0.11328E+03
 0.78699997E+02  0.11951E+03
 0.78749992E+02  0.13505E+03
 0.78799995E+02  0.15158E+03
 0.78849998E+02  0.16573E+03
 0.78899994E+02  0.17125E+03
 0.78949997E+02  0.17143E+03
 0.78999992E+02  0.17154E+03
 0.79049995E+02  0.17155E+03
 0.79099998E+02  0.17097E+03
 0.79149994E+02  0.16700E+03
 0.79199997E+02  0.16310E+03
 0.79249992E+02  0.15982E+03
 0.79299995E+02  0.15598E+03
 0.79349998E+02  0.15942E+03
 0.79399994E+02  0.16291E+03
 0.79449997E+02  0.16347E+03
 0.79499992E+02  0.16506E+03
 0.79549995E+02  0.16248E+03
 0.79599998E+02  0.16001E+03
 0.79649994E+02  0.15454E+03
 0.79699997E+02  0.15084E+03
 0.79749992E+02  0.14685E+03
 0.79799995E+02  0.14200E+03
 0.79849998E+02  0.13962E+03
 0.79899994E+02  0.13198E+03
 0.79949997E+02  0.13062E+03
 0.79999992E+02  0.13453E+03
 0.80049995E+02  0.14191E+03
 0.80099998E+02  0.14808E+03
 0.80149994E+02  0.14854E+03
 0.80199997E+02  0.14926E+03
 0.80249992E+02  0.14606E+03
 0.80299995E+02  0.14243E+03
 0.80349998E+02  0.13849E+03
 0.80399994E+02  0.13976E+03
 0.80449997E+02  0.14166E+03
 0.80499992E+02  0.14197E+03
 0.80549995E+02  0.14344E+03
 0.80599998E+02  0.14481E+03
 0.80649994E+02  0.14746E+03
 0.80699997E+02  0.14861E+03
 0.80749992E+02  0.14963E+03
 0.80799995E+02  0.14713E+03
 0.80849998E+02  0.14628E+03
 0.80899994E+02  0.14741E+03
 0.80949997E+02  0.15398E+03
 0.80999992E+02  0.16027E+03
 0.81049995E+02  0.15748E+03
 0.81099998E+02  0.15753E+03
 0.81149994E+02  0.15385E+03
 0.81199997E+02  0.14893E+03
 0.81249992E+02  0.14504E+03
 0.81299995E+02  0.14086E+03
 0.81349998E+02  0.13783E+03
 0.81399994E+02  0.13683E+03
 0.81449997E+02  0.13596E+03
 0.81499992E+02  0.13413E+03
 0.81549995E+02  0.13419E+03
 0.81599998E+02  0.13674E+03
 0.81649994E+02  0.14287E+03
 0.81699997E+02  0.14018E+03
 0.81749992E+02  0.13675E+03
 0.81799995E+02  0.13403E+03
 0.81849998E+02  0.13583E+03
 0.81899994E+02  0.13887E+03
 0.81949997E+02  0.13858E+03
 0.81999992E+02  0.13729E+03
 0.82049995E+02  0.13667E+03
 0.82099998E+02  0.14311E+03
 0.82149994E+02  0.14465E+03
 0.82199997E+02  0.14479E+03
 0.82249992E+02  0.14525E+03
 0.82299995E+02  0.14649E+03
 0.82349998E+02  0.14670E+03
 0.82399994E+02  0.14646E+03
 0.82449997E+02  0.14441E+03
 0.82499992E+02  0.14110E+03
 0.82549995E+02  0.13995E+03
 0.82599998E+02  0.13856E+03
 0.82649994E+02  0.14097E+03
 0.82699997E+02  0.14553E+03
 0.82749992E+02  0.14984E+03
 0.82799995E+02  0.14801E+03
 0.82849998E+02  0.14567E+03
 0.82899994E+02  0.14238E+03
 0.82949997E+02  0.13921E+03
 0.82999992E+02  0.13772E+03
 0.83049995E+02  0.13943E+03
 0.83099998E+02  0.14069E+03
 0.83149994E+02  0.14264E+03
 0.83199997E+02  0.15146E+03
 0.83249992E+02  0.15982E+03
 0.83299995E+02  0.16472E+03
 0.83349998E+02  0.16747E+03
 0.83399994E+02  0.16862E+03
 0.83449997E+02  0.16712E+03
 0.83499992E+02  0.16633E+03
 0.83549995E+02  0.16168E+03
 0.83599998E+02  0.15863E+03
 0.83649994E+02  0.15766E+03
 0.83699997E+02  0.15865E+03
 0.83749992E+02  0.15887E+03
 0.83799995E+02  0.15848E+03
 0.83849998E+02  0.16037E+03
 0.83899994E+02  0.16152E+03
 0.83949997E+02  0.16112E+03
 0.83999992E+02  0.16171E+03
 0.84049995E+02  0.16011E+03
 0.84099998E+02  0.15554E+03
 0.84149994E+02  0.15479E+03
 0.84199997E+02  0.15377E+03
 0.84249992E+02  0.15359E+03
 0.84299995E+02  0.15276E+03
 0.84349998E+02  0.15304E+03
 0.84399994E+02  0.15143E+03
 0.84449997E+02  0.14748E+03
 0.84499992E+02  0.14600E+03
 0.84549995E+02  0.14243E+03
 0.84599998E+02  0.14114E+03
 0.84649994E+02  0.13828E+03
 0.84699997E+02  0.13454E+03
 0.84749992E+02  0.13407E+03
 0.84799995E+02  0.13348E+03
 0.84849998E+02  0.13952E+03
 0.84899994E+02  0.14737E+03
 0.84949997E+02  0.14960E+03
 0.84999992E+02  0.14803E+03
 0.85049995E+02  0.14824E+03
 0.85099998E+02  0.14671E+03
 0.85149994E+02  0.14713E+03
 0.85199997E+02  0.14777E+03
 0.85249992E+02  0.14690E+03
 0.85299995E+02  0.14785E+03
 0.85349998E+02  0.14859E+03
 0.85399994E+02  0.14813E+03
 0.85449997E+02  0.14815E+03
 0.85499992E+02  0.14875E+03
 0.85549995E+02  0.14726E+03
 0.85599998E+02  0.14671E+03
 0.85649994E+02  0.14179E+03
 0.85699997E+02  0.13933E+03
 0.85749992E+02  0.13775E+03
 0.85799995E+02  0.13646E+03
 0.85849998E+02  0.13539E+03
 0.85899994E+02  0.13551E+03
 0.85949997E+02  0.13748E+03
 0.85999992E+02  0.13893E+03
 0.86049995E+02  0.14012E+03
 0.86099998E+02  0.13867E+03
 0.86149994E+02  0.13827E+03
 0.86199997E+02  0.13720E+03
 0.86249992E+02  0.13874E+03
 0.86299995E+02  0.14024E+03
 0.86349998E+02  0.14360E+03
 0.86399994E+02  0.14830E+03
 0.86449997E+02  0.15002E+03
 0.86499992E+02  0.15468E+03
 0.86549995E+02  0.15900E+03
 0.86599998E+02  0.16064E+03
 0.86649994E+02  0.15946E+03
 0.86699997E+02  0.15934E+03
 0.86749992E+02  0.15638E+03
 0.86799995E+02  0.15263E+03
 0.86849998E+02  0.15388E+03
 0.86899994E+02  0.15296E+03
 0.86949997E+02  0.15532E+03
 0.86999992E+02  0.15744E+03
 0.87049995E+02  0.16134E+03
 0.87099998E+02  0.16467E+03
 0.87149994E+02  0.16453E+03
 0.87199997E+02  0.16565E+03
 0.87249992E+02  0.16467E+03
 0.87299995E+02  0.16166E+03
 0.87349998E+02  0.15868E+03
 0.87399994E+02  0.15635E+03
 0.87449997E+02  0.15244E+03
 0.87499992E+02  0.15034E+03
 0.87549995E+02  0.14754E+03
 0.87599991E+02  0.14534E+03
 0.87649994E+02  0.14617E+03
 0.87699997E+02  0.14694E+03
 0.87749992E+02  0.14645E+03
 0.87799995E+02  0.14703E+03
 0.87849991E+02  0.14654E+03
 0.87899994E+02  0.14503E+03
 0.87949997E+02  0.14600E+03
 0.87999992E+02  0.14737E+03
 0.88049995E+02  0.14922E+03
 0.88099991E+02  0.14904E+03
 0.88149994E+02  0.14984E+03
 0.88199997E+02  0.15298E+03
 0.88249992E+02  0.15497E+03
 0.88299995E+02  0.15580E+03
 0.88349991E+02  0.15615E+03
 0.88399994E+02  0.15912E+03
 0.88449997E+02  0.15971E+03
 0.88499992E+02  0.15728E+03
 0.88549995E+02  0.15670E+03
 0.88599991E+02  0.15697E+03
 0.88649994E+02  0.15925E+03
 0.88699997E+02  0.16134E+03
 0.88749992E+02  0.16124E+03
 0.88799995E+02  0.15897E+03
 0.88849991E+02  0.15735E+03
 0.88899994E+02  0.15603E+03
 0.88949997E+02  0.15468E+03
 0.88999992E+02  0.15434E+03
 0.89049995E+02  0.15274E+03
 0.89099991E+02  0.15197E+03
 0.89149994E+02  0.15476E+03
 0.89199997E+02  0.15463E+03
 0.89249992E+02  0.15396E+03
 0.89299995E+02  0.15496E+03
 0.89349991E+02  0.15801E+03
 0.89399994E+02  0.15997E+03
 0.89449997E+02  0.16192E+03
 0.89499992E+02  0.16586E+03
 0.89549995E+02  0.16400E+03
 0.89599991E+02  0.16277E+03
 0.89649994E+02  0.15882E+03
 0.89699997E+02  0.15583E+03
 0.89749992E+02  0.15275E+03
 0.89799995E+02  0.15037E+03
 0.89849991E+02  0.15249E+03
 0.89899994E+02  0.15213E+03
 0.89949997E+02  0.15353E+03
 0.89999992E+02  0.15395E+03
 0.90049995E+02  0.15117E+03
 0.90099991E+02  0.14662E+03
 0.90149994E+02  0.14360E+03
 0.90199997E+02  0.14298E+03
 0.90249992E+02  0.14221E+03
 0.90299995E+02  0.13963E+03
 0.90349991E+02  0.14125E+03
 0.90399994E+02  0.14359E+03
 0.90449997E+02  0.14594E+03
 0.90499992E+02  0.14906E+03
 0.90549995E+02  0.14923E+03
 0.90599991E+02  0.14863E+03
 0.90649994E+02  0.14515E+03
 0.90699997E+02  0.14568E+03
 0.90749992E+02  0.14685E+03
 0.90799995E+02  0.14954E+03
 0.90849991E+02  0.15218E+03
 0.90899994E+02  0.15651E+03
 0.90949997E+02  0.15836E+03
 0.90999992E+02  0.15728E+03
 0.91049995E+02  0.15605E+03
 0.91099991E+02  0.15518E+03
 0.91149994E+02  0.15537E+03
 0.91199997E+02  0.15227E+03
 0.91249992E+02  0.15422E+03
 0.91299995E+02  0.15386E+03
 0.91349991E+02  0.15423E+03
 0.91399994E+02  0.15445E+03
 0.91449997E+02  0.15285E+03
 0.91499992E+02  0.15355E+03
 0.91549995E+02  0.15311E+03
 0.91599991E+02  0.15248E+03
 0.91649994E+02  0.15208E+03
 0.91699997E+02  0.14995E+03
 0.91749992E+02  0.14897E+03
 0.91799995E+02  0.15009E+03
 0.91849991E+02  0.14988E+03
 0.91899994E+02  0.15015E+03
 0.91949997E+02  0.15014E+03
 0.91999992E+02  0.15007E+03
 0.92049995E+02  0.14927E+03
 0.92099991E+02  0.15105E+03
 0.92149994E+02  0.15287E+03
 0.92199997E+02  0.15344E+03
 0.92249992E+02  0.15844E+03
 0.92299995E+02  0.16047E+03
 0.92349991E+02  0.15722E+03
 0.92399994E+02  0.15663E+03
 0.92449997E+02  0.15280E+03
 0.92499992E+02  0.15044E+03
 0.92549995E+02  0.15154E+03
 0.92599991E+02  0.15257E+03
 0.92649994E+02  0.15655E+03
 0.92699997E+02  0.15816E+03
 0.92749992E+02  0.16104E+03
 0.92799995E+02  0.16005E+03
 0.92849991E+02  0.15788E+03
 0.92899994E+02  0.15830E+03
 0.92949997E+02  0.15379E+03
 0.92999992E+02  0.15131E+03
 0.93049995E+02  0.15004E+03
 0.93099991E+02  0.14972E+03
 0.93149994E+02  0.15024E+03
 0.93199997E+02  0.15118E+03
 0.93249992E+02  0.15363E+03
 0.93299995E+02  0.15841E+03
 0.93349991E+02  0.16195E+03
 0.93399994E+02  0.16241E+03
 0.93449997E+02  0.16084E+03
 0.93499992E+02  0.15649E+03
 0.93549995E+02  0.15349E+03
 0.93599991E+02  0.15146E+03
 0.93649994E+02  0.14965E+03
 0.93699997E+02  0.15005E+03
 0.93749992E+02  0.15225E+03
 0.93799995E+02  0.15573E+03
 0.93849991E+02  0.15939E+03
 0.93899994E+02  0.16286E+03
 0.93949997E+02  0.16345E+03
 0.93999992E+02  0.16274E+03
 0.94049995E+02  0.16394E+03
 0.94099991E+02  0.15977E+03
 0.94149994E+02  0.15579E+03
 0.94199997E+02  0.14954E+03
 0.94249992E+02  0.14985E+03
 0.94299995E+02  0.15336E+03
 0.94349991E+02  0.15272E+03
 0.94399994E+02  0.15781E+03
 0.94449997E+02  0.16199E+03
 0.94499992E+02  0.16137E+03
 0.94549995E+02  0.16155E+03
 0.94599991E+02  0.16007E+03
 0.94649994E+02  0.15632E+03
 0.94699997E+02  0.15335E+03
 0.94749992E+02  0.15298E+03
 0.94799995E+02  0.15400E+03
 0.94849991E+02  0.15355E+03
 0.94899994E+02  0.15557E+03
 0.94949997E+02  0.15460E+03
 0.94999992E+02  0.15388E+03
 0.95049995E+02  0.15380E+03
 0.95099991E+02  0.15542E+03
 0.95149994E+02  0.15582E+03
 0.95199997E+02  0.15430E+03
 0.95249992E+02  0.15373E+03
 0.95299995E+02  0.15062E+03
 0.95349991E+02  0.14758E+03
 0.95399994E+02  0.14432E+03
 0.95449997E+02  0.14278E+03
 0.95499992E+02  0.13913E+03
 0.95549995E+02  0.13491E+03
 0.95599991E+02  0.13511E+03
 0.95649994E+02  0.13602E+03
 0.95699997E+02  0.13799E+03
 0.95749992E+02  0.14017E+03
 0.95799995E+02  0.13990E+03
 0.95849991E+02  0.13993E+03
 0.95899994E+02  0.14051E+03
 0.95949997E+02  0.13986E+03
 0.95999992E+02  0.14077E+03
 0.96049995E+02  0.14280E+03
 0.96099991E+02  0.14393E+03
 0.96149994E+02  0.14690E+03
 0.96199997E+02  0.15077E+03
 0.96249992E+02  0.15349E+03
 0.96299995E+02  0.15807E+03
 0.96349991E+02  0.16173E+03
 0.96399994E+02  0.16306E+03
 0.96449997E+02  0.16609E+03
 0.96499992E+02  0.16801E+03
 0.96549995E+02  0.16702E+03
 0.96599991E+02  0.16601E+03
 0.96649994E+02  0.16442E+03
 0.96699997E+02  0.16409E+03
 0.96749992E+02  0.16353E+03
 0.96799995E+02  0.16360E+03
 0.96849991E+02  0.16618E+03
 0.96899994E+02  0.16511E+03
 0.96949997E+02  0.16373E+03
 0.96999992E+02  0.16453E+03
 0.97049995E+02  0.16324E+03
 0.97099991E+02  0.16358E+03
 0.97149994E+02  0.16239E+03
 0.97199997E+02  0.16108E+03
 0.97249992E+02  0.15965E+03
 0.97299995E+02  0.15531E+03
 0.97349991E+02  0.15323E+03
 0.97399994E+02  0.14923E+03
 0.97449997E+02  0.14775E+03
 0.97499992E+02  0.14387E+03
 0.97549995E+02  0.14181E+03
 0.97599991E+02  0.14208E+03
 0.97649994E+02  0.13961E+03
 0.97699997E+02  0.13948E+03
 0.97749992E+02  0.14016E+03
 0.97799995E+02  0.14364E+03
 0.97849991E+02  0.14787E+03
 0.97899994E+02  0.15242E+03
 0.97949997E+02  0.15446E+03
 0.97999992E+02  0.15616E+03
