-0.20000000E+01 -0.20213E+04
-0.19500000E+01 -0.20136E+04
-0.19000000E+01 -0.20275E+04
-0.18500000E+01 -0.20301E+04
-0.18000000E+01 -0.20252E+04
-0.17500000E+01 -0.20232E+04
-0.17000000E+01 -0.20186E+04
-0.16500001E+01 -0.20148E+04
-0.16000000E+01 -0.20113E+04
-0.15500000E+01 -0.20114E+04
-0.15000000E+01 -0.20127E+04
-0.14500000E+01 -0.20187E+04
-0.14000001E+01 -0.20215E+04
-0.13500000E+01 -0.20178E+04
-0.13000001E+01 -0.20152E+04
-0.12500000E+01 -0.20076E+04
-0.12000000E+01 -0.20048E+04
-0.11500001E+01 -0.20072E+04
-0.11000000E+01 -0.20116E+04
-0.10500001E+01 -0.20125E+04
-0.10000000E+01 -0.20120E+04
-0.95000005E+00 -0.20099E+04
-0.90000010E+00 -0.20008E+04
-0.85000002E+00 -0.19966E+04
-0.80000007E+00 -0.19950E+04
-0.75000012E+00 -0.19992E+04
-0.70000005E+00 -0.20078E+04
-0.65000010E+00 -0.20094E+04
-0.60000014E+00 -0.20185E+04
-0.55000007E+00 -0.20176E+04
-0.50000012E+00 -0.20153E+04
-0.45000005E+00 -0.20139E+04
-0.40000010E+00 -0.20131E+04
-0.35000014E+00 -0.20144E+04
-0.30000007E+00 -0.20231E+04
-0.25000012E+00 -0.20360E+04
-0.20000005E+00 -0.20402E+04
-0.15000010E+00 -0.20474E+04
-0.10000014E+00 -0.20430E+04
-0.50000072E-01 -0.20368E+04
-0.11920929E-06 -0.20397E+04
 0.49999952E-01 -0.20435E+04
 0.99999905E-01 -0.20451E+04
 0.14999986E+00 -0.20436E+04
 0.19999981E+00 -0.20456E+04
 0.24999976E+00 -0.20439E+04
 0.29999995E+00 -0.20355E+04
 0.34999990E+00 -0.20354E+04
 0.39999986E+00 -0.20402E+04
 0.44999981E+00 -0.20394E+04
 0.49999976E+00 -0.20368E+04
 0.54999995E+00 -0.20339E+04
 0.59999990E+00 -0.20311E+04
 0.64999986E+00 -0.20295E+04
 0.69999981E+00 -0.20237E+04
 0.74999976E+00 -0.20239E+04
 0.79999971E+00 -0.20209E+04
 0.84999990E+00 -0.20213E+04
 0.89999986E+00 -0.20139E+04
 0.94999981E+00 -0.20089E+04
 0.99999976E+00 -0.20137E+04
 0.10499997E+01 -0.20087E+04
 0.10999999E+01 -0.20101E+04
 0.11499999E+01 -0.20085E+04
 0.11999998E+01 -0.20045E+04
 0.12499998E+01 -0.20044E+04
 0.12999997E+01 -0.20028E+04
 0.13499999E+01 -0.20024E+04
 0.13999999E+01 -0.19966E+04
 0.14499998E+01 -0.19907E+04
 0.14999998E+01 -0.19884E+04
 0.15499997E+01 -0.19896E+04
 0.15999999E+01 -0.19915E+04
 0.16499999E+01 -0.19934E+04
 0.16999998E+01 -0.20043E+04
 0.17499998E+01 -0.20032E+04
 0.17999997E+01 -0.20036E+04
 0.18499997E+01 -0.20061E+04
 0.18999999E+01 -0.20126E+04
 0.19499998E+01 -0.20187E+04
 0.19999998E+01 -0.20136E+04
 0.20499997E+01 -0.20097E+04
 0.20999999E+01 -0.20055E+04
 0.21499996E+01 -0.20060E+04
 0.21999998E+01 -0.20034E+04
 0.22499995E+01 -0.20027E+04
 0.22999997E+01 -0.20001E+04
 0.23499999E+01 -0.20043E+04
 0.23999996E+01 -0.20089E+04
 0.24499998E+01 -0.20094E+04
 0.24999995E+01 -0.20140E+04
 0.25499997E+01 -0.20082E+04
 0.25999999E+01 -0.20157E+04
 0.26499996E+01 -0.20195E+04
 0.26999998E+01 -0.20141E+04
 0.27499995E+01 -0.20167E+04
 0.27999997E+01 -0.20203E+04
 0.28499999E+01 -0.20251E+04
 0.28999996E+01 -0.20314E+04
 0.29499998E+01 -0.20402E+04
 0.29999995E+01 -0.20404E+04
 0.30499997E+01 -0.20389E+04
 0.30999999E+01 -0.20394E+04
 0.31499996E+01 -0.20350E+04
 0.31999998E+01 -0.20324E+04
 0.32499995E+01 -0.20316E+04
 0.32999997E+01 -0.20372E+04
 0.33499999E+01 -0.20368E+04
 0.33999996E+01 -0.20282E+04
 0.34499998E+01 -0.20263E+04
 0.34999995E+01 -0.20183E+04
 0.35499997E+01 -0.20104E+04
 0.35999994E+01 -0.20109E+04
 0.36499996E+01 -0.20114E+04
 0.36999998E+01 -0.20163E+04
 0.37499995E+01 -0.20180E+04
 0.37999997E+01 -0.20157E+04
 0.38499994E+01 -0.20156E+04
 0.38999996E+01 -0.20061E+04
 0.39499998E+01 -0.20009E+04
 0.39999995E+01 -0.19985E+04
 0.40499997E+01 -0.19930E+04
 0.40999994E+01 -0.20002E+04
 0.41499996E+01 -0.20054E+04
 0.41999998E+01 -0.20062E+04
 0.42499995E+01 -0.20058E+04
 0.42999997E+01 -0.20056E+04
 0.43499994E+01 -0.20136E+04
 0.43999996E+01 -0.20106E+04
 0.44499998E+01 -0.20120E+04
 0.44999995E+01 -0.20189E+04
 0.45499997E+01 -0.20236E+04
 0.45999994E+01 -0.20286E+04
 0.46499996E+01 -0.20279E+04
 0.46999998E+01 -0.20309E+04
 0.47499995E+01 -0.20301E+04
 0.47999997E+01 -0.20281E+04
 0.48499994E+01 -0.20266E+04
 0.48999996E+01 -0.20232E+04
 0.49499998E+01 -0.20271E+04
 0.49999995E+01 -0.20318E+04
 0.50499997E+01 -0.20405E+04
 0.50999994E+01 -0.20393E+04
 0.51499996E+01 -0.20315E+04
 0.51999998E+01 -0.20343E+04
 0.52499995E+01 -0.20290E+04
 0.52999997E+01 -0.20249E+04
 0.53499994E+01 -0.20248E+04
 0.53999996E+01 -0.20247E+04
 0.54499993E+01 -0.20253E+04
 0.54999995E+01 -0.20261E+04
 0.55499997E+01 -0.20216E+04
 0.55999994E+01 -0.20204E+04
 0.56499996E+01 -0.20169E+04
 0.56999993E+01 -0.20118E+04
 0.57499995E+01 -0.20115E+04
 0.57999997E+01 -0.20179E+04
 0.58499994E+01 -0.20157E+04
 0.58999996E+01 -0.20136E+04
 0.59499993E+01 -0.20178E+04
 0.59999995E+01 -0.20159E+04
 0.60499992E+01 -0.20206E+04
 0.60999994E+01 -0.20232E+04
 0.61499996E+01 -0.20201E+04
 0.61999998E+01 -0.20156E+04
 0.62499990E+01 -0.20168E+04
 0.62999992E+01 -0.20099E+04
 0.63499994E+01 -0.20035E+04
 0.63999996E+01 -0.20024E+04
 0.64499998E+01 -0.20070E+04
 0.64999990E+01 -0.20121E+04
 0.65499992E+01 -0.20161E+04
 0.65999994E+01 -0.20182E+04
 0.66499996E+01 -0.20169E+04
 0.66999998E+01 -0.20156E+04
 0.67499990E+01 -0.20132E+04
 0.67999992E+01 -0.20112E+04
 0.68499994E+01 -0.20091E+04
 0.68999996E+01 -0.20118E+04
 0.69499998E+01 -0.20177E+04
 0.69999990E+01 -0.20221E+04
 0.70499992E+01 -0.20170E+04
 0.70999994E+01 -0.20152E+04
 0.71499996E+01 -0.20144E+04
 0.71999998E+01 -0.20101E+04
 0.72499990E+01 -0.20068E+04
 0.72999992E+01 -0.20046E+04
 0.73499994E+01 -0.20031E+04
 0.73999996E+01 -0.20001E+04
 0.74499998E+01 -0.20056E+04
 0.74999990E+01 -0.20136E+04
 0.75499992E+01 -0.20154E+04
 0.75999994E+01 -0.20154E+04
 0.76499996E+01 -0.20114E+04
 0.76999998E+01 -0.20161E+04
 0.77499990E+01 -0.20248E+04
 0.77999992E+01 -0.20278E+04
 0.78499994E+01 -0.20269E+04
 0.78999996E+01 -0.20272E+04
 0.79499998E+01 -0.20278E+04
 0.79999990E+01 -0.20287E+04
 0.80499992E+01 -0.20273E+04
 0.80999994E+01 -0.20205E+04
 0.81499996E+01 -0.20146E+04
 0.81999998E+01 -0.20123E+04
 0.82499990E+01 -0.20170E+04
 0.82999992E+01 -0.20165E+04
 0.83499994E+01 -0.20163E+04
 0.83999996E+01 -0.20115E+04
 0.84499998E+01 -0.20147E+04
 0.84999990E+01 -0.20208E+04
 0.85499992E+01 -0.20229E+04
 0.85999994E+01 -0.20305E+04
 0.86499996E+01 -0.20308E+04
 0.86999998E+01 -0.20297E+04
 0.87499990E+01 -0.20267E+04
 0.87999992E+01 -0.20286E+04
 0.88499994E+01 -0.20289E+04
 0.88999996E+01 -0.20325E+04
 0.89499998E+01 -0.20387E+04
 0.89999990E+01 -0.20356E+04
 0.90499992E+01 -0.20301E+04
 0.90999994E+01 -0.20297E+04
 0.91499996E+01 -0.20247E+04
 0.91999989E+01 -0.20170E+04
 0.92499990E+01 -0.20145E+04
 0.92999992E+01 -0.20071E+04
 0.93499994E+01 -0.20055E+04
 0.93999996E+01 -0.20045E+04
 0.94499989E+01 -0.20098E+04
 0.94999990E+01 -0.20196E+04
 0.95499992E+01 -0.20182E+04
 0.95999994E+01 -0.20134E+04
 0.96499996E+01 -0.20091E+04
 0.96999989E+01 -0.20099E+04
 0.97499990E+01 -0.20118E+04
 0.97999992E+01 -0.20122E+04
 0.98499994E+01 -0.20103E+04
 0.98999996E+01 -0.20127E+04
 0.99499989E+01 -0.20177E+04
 0.99999990E+01 -0.20128E+04
 0.10049999E+02 -0.20148E+04
 0.10099999E+02 -0.20151E+04
 0.10150000E+02 -0.20149E+04
 0.10199999E+02 -0.20158E+04
 0.10249999E+02 -0.20094E+04
 0.10299999E+02 -0.20096E+04
 0.10349999E+02 -0.20094E+04
 0.10400000E+02 -0.20167E+04
 0.10449999E+02 -0.20235E+04
 0.10499999E+02 -0.20244E+04
 0.10549999E+02 -0.20252E+04
 0.10599999E+02 -0.20272E+04
 0.10650000E+02 -0.20248E+04
 0.10699999E+02 -0.20170E+04
 0.10749999E+02 -0.20164E+04
 0.10799999E+02 -0.20160E+04
 0.10849999E+02 -0.20174E+04
 0.10900000E+02 -0.20145E+04
 0.10949999E+02 -0.20099E+04
 0.10999999E+02 -0.20051E+04
 0.11049999E+02 -0.20052E+04
 0.11099999E+02 -0.20103E+04
 0.11150000E+02 -0.20119E+04
 0.11199999E+02 -0.20166E+04
 0.11249999E+02 -0.20192E+04
 0.11299999E+02 -0.20187E+04
 0.11349999E+02 -0.20175E+04
 0.11400000E+02 -0.20150E+04
 0.11449999E+02 -0.20152E+04
 0.11499999E+02 -0.20187E+04
 0.11549999E+02 -0.20283E+04
 0.11599999E+02 -0.20344E+04
 0.11650000E+02 -0.20323E+04
 0.11699999E+02 -0.20354E+04
 0.11749999E+02 -0.20339E+04
 0.11799999E+02 -0.20306E+04
 0.11849999E+02 -0.20299E+04
 0.11900000E+02 -0.20342E+04
 0.11949999E+02 -0.20394E+04
 0.11999999E+02 -0.20369E+04
 0.12049999E+02 -0.20316E+04
 0.12099999E+02 -0.20263E+04
 0.12150000E+02 -0.20210E+04
 0.12199999E+02 -0.20161E+04
 0.12249999E+02 -0.20169E+04
 0.12299999E+02 -0.20194E+04
 0.12349999E+02 -0.20189E+04
 0.12400000E+02 -0.20162E+04
 0.12449999E+02 -0.20177E+04
 0.12499999E+02 -0.20107E+04
 0.12549999E+02 -0.20072E+04
 0.12599999E+02 -0.20103E+04
 0.12649999E+02 -0.20082E+04
 0.12699999E+02 -0.20094E+04
 0.12749999E+02 -0.20057E+04
 0.12799999E+02 -0.20039E+04
 0.12849999E+02 -0.20018E+04
 0.12899999E+02 -0.20051E+04
 0.12949999E+02 -0.20083E+04
 0.12999999E+02 -0.20108E+04
 0.13049999E+02 -0.20161E+04
 0.13099999E+02 -0.20226E+04
 0.13149999E+02 -0.20230E+04
 0.13199999E+02 -0.20170E+04
 0.13249999E+02 -0.20172E+04
 0.13299999E+02 -0.20149E+04
 0.13349999E+02 -0.20102E+04
 0.13399999E+02 -0.20149E+04
 0.13449999E+02 -0.20160E+04
 0.13499999E+02 -0.20160E+04
 0.13549999E+02 -0.20136E+04
 0.13599999E+02 -0.20119E+04
 0.13649999E+02 -0.20134E+04
 0.13699999E+02 -0.20150E+04
 0.13749999E+02 -0.20193E+04
 0.13799999E+02 -0.20187E+04
 0.13849999E+02 -0.20227E+04
 0.13899999E+02 -0.20244E+04
 0.13949999E+02 -0.20277E+04
 0.13999999E+02 -0.20251E+04
 0.14049999E+02 -0.20327E+04
 0.14099998E+02 -0.20368E+04
 0.14150000E+02 -0.20358E+04
 0.14199999E+02 -0.20341E+04
 0.14249998E+02 -0.20344E+04
 0.14299999E+02 -0.20394E+04
 0.14349998E+02 -0.20388E+04
 0.14400000E+02 -0.20363E+04
 0.14449999E+02 -0.20263E+04
 0.14499998E+02 -0.20292E+04
 0.14549999E+02 -0.20279E+04
 0.14599998E+02 -0.20305E+04
 0.14650000E+02 -0.20305E+04
 0.14699999E+02 -0.20274E+04
 0.14749998E+02 -0.20277E+04
 0.14799999E+02 -0.20273E+04
 0.14849998E+02 -0.20319E+04
 0.14900000E+02 -0.20310E+04
 0.14949999E+02 -0.20270E+04
 0.14999998E+02 -0.20248E+04
 0.15049999E+02 -0.20350E+04
 0.15099998E+02 -0.20351E+04
 0.15150000E+02 -0.20326E+04
 0.15199999E+02 -0.20334E+04
 0.15249998E+02 -0.20356E+04
 0.15299999E+02 -0.20335E+04
 0.15349998E+02 -0.20332E+04
 0.15400000E+02 -0.20266E+04
 0.15449999E+02 -0.20220E+04
 0.15499998E+02 -0.20258E+04
 0.15549999E+02 -0.20227E+04
 0.15599998E+02 -0.20217E+04
 0.15650000E+02 -0.20168E+04
 0.15699999E+02 -0.20095E+04
 0.15749998E+02 -0.19989E+04
 0.15799999E+02 -0.19991E+04
 0.15849998E+02 -0.19987E+04
 0.15900000E+02 -0.19985E+04
 0.15949999E+02 -0.20009E+04
 0.15999998E+02 -0.20045E+04
 0.16049999E+02 -0.20029E+04
 0.16099998E+02 -0.20002E+04
 0.16150000E+02 -0.20023E+04
 0.16199999E+02 -0.19986E+04
 0.16249998E+02 -0.19976E+04
 0.16299999E+02 -0.19970E+04
 0.16349998E+02 -0.19939E+04
 0.16400000E+02 -0.19935E+04
 0.16449999E+02 -0.19955E+04
 0.16499998E+02 -0.20006E+04
 0.16549999E+02 -0.20010E+04
 0.16599998E+02 -0.20020E+04
 0.16650000E+02 -0.20020E+04
 0.16699999E+02 -0.20063E+04
 0.16749998E+02 -0.20177E+04
 0.16799999E+02 -0.20182E+04
 0.16849998E+02 -0.20235E+04
 0.16900000E+02 -0.20225E+04
 0.16949999E+02 -0.20205E+04
 0.16999998E+02 -0.20263E+04
 0.17049999E+02 -0.20329E+04
 0.17099998E+02 -0.20318E+04
 0.17150000E+02 -0.20312E+04
 0.17199999E+02 -0.20327E+04
 0.17249998E+02 -0.20337E+04
 0.17299999E+02 -0.20397E+04
 0.17349998E+02 -0.20440E+04
 0.17400000E+02 -0.20486E+04
 0.17449999E+02 -0.20408E+04
 0.17499998E+02 -0.20370E+04
 0.17549999E+02 -0.20395E+04
 0.17599998E+02 -0.20346E+04
 0.17650000E+02 -0.20363E+04
 0.17699999E+02 -0.20324E+04
 0.17749998E+02 -0.20296E+04
 0.17799999E+02 -0.20337E+04
 0.17849998E+02 -0.20259E+04
 0.17900000E+02 -0.20198E+04
 0.17949999E+02 -0.19879E+04
 0.17999998E+02 -0.19443E+04
 0.18049999E+02 -0.19176E+04
 0.18099998E+02 -0.19216E+04
 0.18150000E+02 -0.19745E+04
 0.18199999E+02 -0.20572E+04
 0.18249998E+02 -0.21113E+04
 0.18299999E+02 -0.20773E+04
 0.18349998E+02 -0.19703E+04
 0.18400000E+02 -0.19217E+04
 0.18449999E+02 -0.19667E+04
 0.18499998E+02 -0.20763E+04
 0.18549999E+02 -0.22213E+04
 0.18599998E+02 -0.22104E+04
 0.18650000E+02 -0.20525E+04
 0.18699999E+02 -0.18427E+04
 0.18749998E+02 -0.15766E+04
 0.18799999E+02 -0.13239E+04
 0.18849998E+02 -0.16026E+04
 0.18900000E+02 -0.21044E+04
 0.18949999E+02 -0.23780E+04
 0.18999998E+02 -0.25013E+04
 0.19049999E+02 -0.24019E+04
 0.19099998E+02 -0.17474E+04
 0.19150000E+02 -0.13451E+04
 0.19199999E+02 -0.18268E+04
 0.19249998E+02 -0.25596E+04
 0.19299999E+02 -0.34064E+04
 0.19349998E+02 -0.34149E+04
 0.19400000E+02 -0.28136E+04
 0.19449999E+02 -0.24701E+04
 0.19499998E+02 -0.16436E+04
 0.19549999E+02 -0.14542E+04
 0.19599998E+02 -0.24049E+04
 0.19650000E+02 -0.24227E+04
 0.19699999E+02 -0.22105E+04
 0.19749998E+02 -0.21401E+04
 0.19799999E+02 -0.91938E+03
 0.19849998E+02 -0.11359E+03
 0.19900000E+02 -0.13450E+04
 0.19949999E+02 -0.20867E+04
 0.19999998E+02 -0.17973E+04
 0.20049999E+02 -0.19420E+04
 0.20099998E+02 -0.26449E+04
 0.20150000E+02 -0.23631E+04
 0.20199999E+02 -0.66564E+03
 0.20249998E+02 -0.97736E+03
 0.20299999E+02 -0.20602E+04
 0.20349998E+02 -0.21045E+04
 0.20399998E+02 -0.34459E+04
 0.20449999E+02 -0.23616E+04
 0.20499998E+02 -0.65433E+03
 0.20549999E+02 -0.24938E+04
 0.20599998E+02 -0.18972E+04
 0.20649998E+02 -0.12275E+04
 0.20699999E+02 -0.27470E+04
 0.20749998E+02 -0.18822E+04
 0.20799999E+02 -0.26067E+04
 0.20849998E+02 -0.38075E+04
 0.20899998E+02 -0.30086E+04
 0.20949999E+02 -0.15834E+04
 0.20999998E+02 -0.21728E+04
 0.21049999E+02 -0.32768E+04
 0.21099998E+02 -0.30374E+04
 0.21149998E+02 -0.17065E+04
 0.21199999E+02 -0.19649E+04
 0.21249998E+02 -0.22485E+04
 0.21299999E+02 -0.61605E+03
 0.21349998E+02  0.97802E+01
 0.21399998E+02  0.20063E+03
 0.21449999E+02 -0.30961E+04
 0.21499998E+02 -0.41933E+04
 0.21549999E+02 -0.22147E+04
 0.21599998E+02 -0.19122E+04
 0.21649998E+02 -0.12734E+04
 0.21699999E+02 -0.18381E+04
 0.21749998E+02 -0.30831E+04
 0.21799999E+02 -0.68678E+03
 0.21849998E+02 -0.67820E+03
 0.21899998E+02 -0.34994E+04
 0.21949999E+02 -0.18785E+04
 0.21999998E+02  0.49676E+03
 0.22049999E+02 -0.25396E+04
 0.22099998E+02 -0.34631E+04
 0.22149998E+02 -0.24797E+04
 0.22199999E+02 -0.37390E+04
 0.22249998E+02 -0.32770E+04
 0.22299999E+02  0.98787E+03
 0.22349998E+02 -0.14176E+04
 0.22399998E+02 -0.36394E+04
 0.22449999E+02 -0.13073E+04
 0.22499998E+02 -0.37547E+04
 0.22549999E+02 -0.39859E+04
 0.22599998E+02  0.80935E+02
 0.22649998E+02 -0.13320E+03
 0.22699999E+02 -0.31607E+04
 0.22749998E+02 -0.36189E+04
 0.22799999E+02 -0.23494E+04
 0.22849998E+02 -0.29919E+04
 0.22899998E+02 -0.40046E+03
 0.22949999E+02  0.19352E+04
 0.22999998E+02 -0.28819E+04
 0.23049999E+02 -0.20858E+04
 0.23099998E+02 -0.10480E+04
 0.23149998E+02 -0.17777E+04
 0.23199999E+02 -0.41965E+04
 0.23249998E+02 -0.46975E+04
 0.23299999E+02 -0.14555E+04
 0.23349998E+02 -0.82947E+03
 0.23399998E+02 -0.12854E+04
 0.23449999E+02 -0.20921E+04
 0.23499998E+02 -0.22838E+04
 0.23549999E+02 -0.89078E+02
 0.23599998E+02 -0.18718E+04
 0.23649998E+02 -0.66235E+04
 0.23699999E+02 -0.36671E+04
 0.23749998E+02 -0.29494E+04
 0.23799999E+02 -0.45010E+03
 0.23849998E+02  0.31698E+04
 0.23899998E+02 -0.16101E+03
 0.23949999E+02 -0.35654E+04
 0.23999998E+02 -0.48682E+04
 0.24049999E+02 -0.17263E+04
 0.24099998E+02 -0.17671E+04
 0.24149998E+02 -0.26456E+04
 0.24199999E+02 -0.17047E+04
 0.24249998E+02 -0.23229E+04
 0.24299999E+02 -0.17250E+04
 0.24349998E+02 -0.85503E+03
 0.24399998E+02 -0.10151E+04
 0.24449999E+02 -0.13634E+03
 0.24499998E+02 -0.10611E+04
 0.24549999E+02 -0.15056E+04
 0.24599998E+02 -0.18489E+04
 0.24649998E+02 -0.69841E+04
 0.24699999E+02 -0.53613E+04
 0.24749998E+02  0.73411E+03
 0.24799999E+02 -0.10517E+03
 0.24849998E+02 -0.34999E+04
 0.24899998E+02 -0.14998E+04
 0.24949999E+02 -0.88980E+03
 0.24999998E+02 -0.46192E+04
 0.25049999E+02 -0.10861E+04
 0.25099998E+02 -0.11905E+04
 0.25149998E+02 -0.32769E+04
 0.25199999E+02 -0.41349E+04
 0.25249998E+02  0.10321E+04
 0.25299999E+02  0.26436E+03
 0.25349998E+02 -0.79630E+04
 0.25399998E+02 -0.33032E+03
 0.25449999E+02 -0.14775E+04
 0.25499998E+02 -0.69048E+04
 0.25549999E+02 -0.14293E+04
 0.25599998E+02  0.26835E+04
 0.25649998E+02  0.19736E+04
 0.25699999E+02 -0.48125E+04
 0.25749998E+02 -0.24947E+04
 0.25799999E+02  0.17324E+04
 0.25849998E+02 -0.54206E+04
 0.25899998E+02 -0.13005E+04
 0.25949999E+02  0.10490E+04
 0.25999998E+02 -0.71575E+04
 0.26049999E+02 -0.24416E+04
 0.26099998E+02  0.27538E+04
 0.26149998E+02 -0.35562E+04
 0.26199999E+02 -0.16230E+04
 0.26249998E+02  0.10607E+04
 0.26299999E+02 -0.28309E+04
 0.26349998E+02  0.91954E+03
 0.26399998E+02 -0.88065E+03
 0.26449999E+02 -0.43108E+04
 0.26499998E+02 -0.45390E+04
 0.26549999E+02 -0.31624E+04
 0.26599998E+02 -0.20125E+04
 0.26649998E+02 -0.62084E+04
 0.26699999E+02 -0.11572E+04
 0.26749998E+02  0.25260E+04
 0.26799999E+02 -0.15278E+04
 0.26849998E+02 -0.14338E+04
 0.26899998E+02 -0.56699E+04
 0.26949999E+02 -0.32433E+04
 0.26999998E+02 -0.10848E+03
 0.27049997E+02 -0.51879E+04
 0.27099998E+02 -0.56901E+03
 0.27149998E+02  0.81961E+03
 0.27199999E+02 -0.14121E+04
 0.27249998E+02 -0.23353E+04
 0.27299997E+02  0.11078E+04
 0.27349998E+02 -0.28911E+03
 0.27399998E+02 -0.27201E+04
 0.27449999E+02 -0.29915E+03
 0.27499998E+02 -0.67459E+04
 0.27549997E+02 -0.57404E+04
 0.27599998E+02 -0.18651E+04
 0.27649998E+02 -0.16664E+04
 0.27699999E+02  0.23032E+03
 0.27749998E+02 -0.20079E+03
 0.27799997E+02  0.12020E+04
 0.27849998E+02 -0.91734E+03
 0.27899998E+02 -0.43025E+04
 0.27949999E+02 -0.24008E+04
 0.27999998E+02 -0.20889E+04
 0.28049997E+02 -0.56130E+04
 0.28099998E+02 -0.52041E+04
 0.28149998E+02 -0.30847E+04
 0.28199999E+02 -0.21630E+04
 0.28249998E+02 -0.59082E+04
 0.28299997E+02 -0.47415E+04
 0.28349998E+02  0.26551E+04
 0.28399998E+02  0.19690E+04
 0.28449999E+02  0.74349E+03
 0.28499998E+02  0.34524E+03
 0.28549997E+02 -0.15877E+04
 0.28599998E+02 -0.46400E+04
 0.28649998E+02 -0.12782E+04
 0.28699999E+02 -0.13927E+04
 0.28749998E+02 -0.46447E+04
 0.28799997E+02 -0.11995E+04
 0.28849998E+02  0.88640E+03
 0.28899998E+02 -0.10546E+04
 0.28949999E+02 -0.24878E+04
 0.28999998E+02 -0.74984E+03
 0.29049997E+02 -0.12339E+04
 0.29099998E+02 -0.52174E+04
 0.29149998E+02 -0.63754E+04
 0.29199999E+02 -0.23799E+04
 0.29249998E+02 -0.21331E+04
 0.29299997E+02 -0.19838E+04
 0.29349998E+02 -0.24735E+04
 0.29399998E+02 -0.30582E+04
 0.29449999E+02 -0.38866E+03
 0.29499998E+02  0.17809E+03
 0.29549997E+02 -0.36402E+04
 0.29599998E+02 -0.30116E+04
 0.29649998E+02 -0.34234E+04
 0.29699999E+02 -0.47965E+04
 0.29749998E+02 -0.20390E+04
 0.29799997E+02 -0.40485E+04
 0.29849998E+02 -0.45357E+03
 0.29899998E+02  0.25303E+04
 0.29949999E+02 -0.16007E+04
 0.29999998E+02 -0.13985E+04
 0.30049999E+02  0.15833E+04
 0.30099998E+02 -0.51570E+04
 0.30149998E+02 -0.48126E+04
 0.30199997E+02 -0.12481E+04
 0.30249996E+02 -0.62380E+04
 0.30299999E+02 -0.61706E+04
 0.30349998E+02 -0.63474E+03
 0.30399998E+02 -0.46513E+04
 0.30449997E+02 -0.62350E+04
 0.30499996E+02  0.18947E+04
 0.30549999E+02 -0.93617E+03
 0.30599998E+02 -0.71472E+03
 0.30649998E+02  0.51273E+04
 0.30699997E+02  0.27701E+04
 0.30749996E+02 -0.19404E+03
 0.30799999E+02  0.27172E+04
 0.30849998E+02 -0.12914E+04
 0.30899998E+02 -0.56919E+04
 0.30949997E+02 -0.34837E+04
 0.30999996E+02  0.83503E+03
 0.31049999E+02 -0.56297E+04
 0.31099998E+02 -0.10640E+05
 0.31149998E+02 -0.72355E+04
 0.31199997E+02 -0.15145E+04
 0.31249996E+02  0.92279E+03
 0.31299999E+02 -0.58379E+04
 0.31349998E+02  0.19415E+04
 0.31399998E+02  0.17875E+04
 0.31449997E+02 -0.67079E+04
 0.31499996E+02  0.30835E+04
 0.31549999E+02  0.80333E+04
 0.31599998E+02 -0.33477E+04
 0.31649998E+02 -0.35980E+04
 0.31699997E+02  0.36474E+04
 0.31749996E+02 -0.54019E+04
 0.31799999E+02 -0.73205E+04
 0.31849998E+02 -0.95673E+03
 0.31899998E+02 -0.64938E+04
 0.31949997E+02 -0.88230E+04
 0.31999996E+02 -0.48904E+04
 0.32049999E+02  0.16180E+04
 0.32099998E+02 -0.15071E+04
 0.32149998E+02 -0.47262E+04
 0.32199997E+02  0.39292E+04
 0.32249996E+02 -0.61375E+04
 0.32299999E+02 -0.82477E+04
 0.32349998E+02  0.85656E+04
 0.32399998E+02 -0.55671E+04
 0.32449997E+02 -0.25526E+04
 0.32499996E+02  0.10155E+05
 0.32549999E+02  0.25241E+04
 0.32599998E+02 -0.32081E+04
 0.32649998E+02 -0.11991E+05
 0.32699997E+02 -0.39172E+04
 0.32749996E+02 -0.76513E+04
 0.32799999E+02 -0.84874E+04
 0.32849998E+02  0.53696E+04
 0.32899998E+02 -0.13550E+04
 0.32949997E+02 -0.56797E+04
 0.32999996E+02  0.34445E+04
 0.33049999E+02  0.66873E+03
 0.33099998E+02 -0.94650E+03
 0.33149998E+02 -0.98811E+03
 0.33199997E+02 -0.43993E+04
 0.33249996E+02 -0.74232E+02
 0.33299999E+02 -0.11787E+04
 0.33349998E+02 -0.31830E+04
 0.33399998E+02 -0.63250E+03
 0.33449997E+02 -0.32480E+04
 0.33499996E+02 -0.93934E+04
 0.33549999E+02 -0.10048E+05
 0.33599998E+02  0.29354E+04
 0.33649998E+02  0.17457E+05
 0.33699997E+02  0.24250E+03
 0.33749996E+02 -0.10393E+05
 0.33799999E+02 -0.79292E+02
 0.33849998E+02 -0.18367E+04
 0.33899998E+02 -0.72096E+04
 0.33949997E+02 -0.25905E+04
 0.33999996E+02  0.16225E+05
 0.34049999E+02 -0.50718E+04
 0.34099998E+02 -0.12382E+05
 0.34149998E+02  0.13869E+05
 0.34199997E+02 -0.62542E+03
 0.34249996E+02 -0.18547E+05
 0.34299999E+02 -0.55341E+04
 0.34349998E+02  0.90687E+04
 0.34399998E+02 -0.56389E+04
 0.34449997E+02 -0.55806E+04
 0.34499996E+02  0.38001E+04
 0.34549999E+02 -0.91087E+04
 0.34599998E+02 -0.87957E+04
 0.34649998E+02  0.52095E+04
 0.34699997E+02  0.38868E+03
 0.34749996E+02 -0.13828E+05
 0.34799999E+02 -0.61635E+04
 0.34849998E+02  0.49854E+04
 0.34899998E+02  0.13641E+04
 0.34949997E+02 -0.59526E+04
 0.34999996E+02 -0.98234E+03
 0.35049999E+02  0.15835E+04
 0.35099998E+02 -0.73136E+04
 0.35149998E+02 -0.36219E+04
 0.35199997E+02 -0.95645E+03
 0.35249996E+02 -0.85777E+04
 0.35299999E+02 -0.48335E+04
 0.35349998E+02  0.53937E+04
 0.35399998E+02  0.41397E+04
 0.35449997E+02 -0.19997E+04
 0.35499996E+02 -0.50911E+04
 0.35549999E+02  0.71303E+04
 0.35599998E+02  0.36871E+03
 0.35649998E+02 -0.15261E+05
 0.35699997E+02 -0.81699E+04
 0.35749996E+02 -0.96055E+03
 0.35799999E+02  0.43110E+04
 0.35849998E+02  0.25568E+04
 0.35899998E+02  0.34241E+04
 0.35949997E+02 -0.33404E+04
 0.35999996E+02 -0.11337E+05
 0.36049999E+02 -0.60664E+04
 0.36099998E+02  0.98914E+03
 0.36149998E+02  0.66878E+04
 0.36199997E+02  0.82224E+04
 0.36249996E+02  0.12381E+04
 0.36299999E+02 -0.48402E+04
 0.36349998E+02 -0.25121E+04
 0.36399998E+02 -0.38399E+04
 0.36449997E+02 -0.40996E+04
 0.36499996E+02 -0.24666E+04
 0.36549999E+02 -0.15515E+03
 0.36599998E+02  0.72869E+03
 0.36649998E+02 -0.36542E+03
 0.36699997E+02 -0.70848E+04
 0.36749996E+02 -0.98854E+04
 0.36799999E+02 -0.10186E+04
 0.36849998E+02  0.14191E+04
 0.36899998E+02  0.11246E+04
 0.36949997E+02 -0.39270E+04
 0.36999996E+02 -0.61748E+04
 0.37049999E+02  0.20920E+04
 0.37099998E+02  0.40426E+04
 0.37149998E+02 -0.41964E+04
 0.37199997E+02 -0.24238E+04
 0.37249996E+02 -0.20002E+04
 0.37299999E+02 -0.98304E+04
 0.37349998E+02 -0.46905E+04
 0.37399998E+02 -0.14498E+04
 0.37449997E+02 -0.53965E+04
 0.37499996E+02 -0.80610E+04
 0.37549999E+02  0.99931E+03
 0.37599998E+02  0.66184E+04
 0.37649998E+02  0.32068E+03
 0.37699997E+02 -0.43678E+02
 0.37749996E+02 -0.15390E+03
 0.37799999E+02 -0.10184E+05
 0.37849998E+02 -0.55616E+04
 0.37899998E+02  0.56115E+04
 0.37949997E+02  0.13810E+03
 0.37999996E+02 -0.58988E+04
 0.38049999E+02 -0.65387E+04
 0.38099998E+02 -0.97092E+04
 0.38149998E+02 -0.10248E+05
 0.38199997E+02 -0.99243E+02
 0.38249996E+02  0.20848E+04
 0.38299999E+02  0.46567E+04
 0.38349998E+02  0.30743E+04
 0.38399998E+02 -0.15641E+04
 0.38449997E+02  0.65631E+03
 0.38499996E+02 -0.31105E+03
 0.38549999E+02 -0.45931E+04
 0.38599998E+02 -0.68941E+04
 0.38649998E+02 -0.44974E+04
 0.38699997E+02 -0.14243E+04
 0.38749996E+02 -0.30260E+04
 0.38799999E+02 -0.23750E+04
 0.38849998E+02  0.54754E+03
 0.38899998E+02 -0.41080E+04
 0.38949997E+02 -0.89273E+03
 0.38999996E+02 -0.10687E+04
 0.39049999E+02 -0.68591E+04
 0.39099998E+02 -0.61782E+04
 0.39149998E+02 -0.21491E+03
 0.39199997E+02  0.52882E+04
 0.39249996E+02  0.57095E+04
 0.39299999E+02  0.22375E+04
 0.39349998E+02 -0.16564E+04
 0.39399998E+02 -0.38664E+04
 0.39449997E+02 -0.49279E+04
 0.39499996E+02 -0.11170E+03
 0.39549999E+02  0.36922E+04
 0.39599998E+02  0.44817E+03
 0.39649998E+02 -0.78892E+04
 0.39699997E+02 -0.74964E+04
 0.39749996E+02 -0.59277E+04
 0.39799999E+02 -0.69041E+04
 0.39849998E+02 -0.47671E+03
 0.39899998E+02  0.85080E+03
 0.39949997E+02 -0.19352E+04
 0.39999996E+02 -0.44010E+04
 0.40049999E+02 -0.57364E+04
 0.40099998E+02  0.16677E+04
 0.40149998E+02  0.38865E+04
 0.40199997E+02 -0.14872E+04
 0.40249996E+02  0.12248E+04
 0.40299999E+02 -0.20361E+04
 0.40349998E+02 -0.51666E+04
 0.40399998E+02 -0.18727E+04
 0.40449997E+02 -0.43701E+04
 0.40499996E+02 -0.43288E+04
 0.40549999E+02 -0.51698E+04
 0.40599998E+02 -0.47585E+04
 0.40649998E+02  0.91249E+03
 0.40699997E+02 -0.23749E+04
 0.40749996E+02 -0.70099E+04
 0.40799999E+02 -0.17978E+04
 0.40849998E+02 -0.21647E+04
 0.40899998E+02 -0.47432E+04
 0.40949997E+02 -0.84835E+03
 0.40999996E+02  0.97898E+03
 0.41049999E+02  0.18365E+04
 0.41099998E+02  0.23728E+04
 0.41149998E+02  0.98377E+03
 0.41199997E+02 -0.54058E+04
 0.41249996E+02 -0.97013E+04
 0.41299999E+02 -0.43674E+04
 0.41349998E+02 -0.29245E+03
 0.41399998E+02 -0.29142E+03
 0.41449997E+02  0.30745E+04
 0.41499996E+02  0.36054E+04
 0.41549999E+02 -0.80360E+03
 0.41599998E+02 -0.49879E+04
 0.41649998E+02 -0.41368E+04
 0.41699997E+02 -0.80693E+03
 0.41749996E+02 -0.17847E+04
 0.41799999E+02 -0.24150E+04
 0.41849998E+02 -0.37047E+04
 0.41899998E+02 -0.42271E+04
 0.41949997E+02 -0.30501E+04
 0.41999996E+02 -0.55894E+04
 0.42049999E+02 -0.51929E+04
 0.42099998E+02 -0.24126E+04
 0.42149998E+02 -0.39986E+03
 0.42199997E+02  0.16325E+04
 0.42249996E+02 -0.72585E+03
 0.42299999E+02 -0.23569E+04
 0.42349998E+02 -0.37095E+04
 0.42399998E+02 -0.25265E+04
 0.42449997E+02  0.67592E+03
 0.42499996E+02 -0.78145E+03
 0.42549999E+02 -0.19077E+04
 0.42599998E+02 -0.17799E+04
 0.42649998E+02 -0.31373E+04
 0.42699997E+02 -0.35000E+04
 0.42749996E+02 -0.15774E+04
 0.42799995E+02 -0.53844E+03
 0.42849998E+02 -0.14313E+04
 0.42899998E+02 -0.26675E+04
 0.42949997E+02 -0.33627E+03
 0.42999996E+02 -0.10905E+04
 0.43049995E+02 -0.18767E+04
 0.43099998E+02 -0.21963E+04
 0.43149998E+02 -0.20073E+04
 0.43199997E+02 -0.26851E+04
 0.43249996E+02 -0.35190E+04
 0.43299995E+02 -0.38958E+03
 0.43349998E+02 -0.14399E+04
 0.43399998E+02 -0.18824E+04
 0.43449997E+02 -0.37022E+04
 0.43499996E+02 -0.49666E+04
 0.43549995E+02 -0.30565E+04
 0.43599998E+02  0.10048E+03
 0.43649998E+02  0.15151E+04
 0.43699997E+02 -0.19792E+04
 0.43749996E+02 -0.32129E+04
 0.43799995E+02  0.10345E+04
 0.43849998E+02 -0.67101E+03
 0.43899998E+02 -0.10449E+04
 0.43949997E+02 -0.17111E+03
 0.43999996E+02 -0.28356E+04
 0.44049995E+02 -0.39123E+04
 0.44099998E+02 -0.35405E+04
 0.44149998E+02  0.82261E+03
 0.44199997E+02  0.16963E+04
 0.44249996E+02 -0.28487E+04
 0.44299995E+02 -0.40456E+04
 0.44349998E+02 -0.36784E+04
 0.44399998E+02 -0.29524E+04
 0.44449997E+02 -0.30412E+04
 0.44499996E+02 -0.35522E+04
 0.44549995E+02 -0.14481E+04
 0.44599998E+02 -0.27477E+04
 0.44649998E+02 -0.28280E+04
 0.44699997E+02 -0.22926E+04
 0.44749996E+02  0.17918E+02
 0.44799995E+02 -0.63994E+02
 0.44849998E+02 -0.12450E+04
 0.44899998E+02 -0.10642E+04
 0.44949997E+02 -0.32840E+04
 0.44999996E+02 -0.27283E+04
 0.45049995E+02 -0.15394E+04
 0.45099998E+02 -0.39835E+04
 0.45149998E+02 -0.46388E+04
 0.45199997E+02 -0.23942E+04
 0.45249996E+02 -0.29950E+04
 0.45299995E+02 -0.75275E+03
 0.45349998E+02 -0.12117E+03
 0.45399998E+02 -0.15832E+04
 0.45449997E+02  0.66906E+03
 0.45499996E+02 -0.23897E+04
 0.45549995E+02 -0.38109E+04
 0.45599998E+02 -0.21365E+04
 0.45649998E+02 -0.82361E+03
 0.45699997E+02  0.86160E+03
 0.45749996E+02 -0.10403E+04
 0.45799995E+02 -0.38935E+04
 0.45849998E+02 -0.49926E+04
 0.45899998E+02 -0.43328E+04
 0.45949997E+02 -0.52262E+04
 0.45999996E+02 -0.37000E+04
 0.46049995E+02 -0.17081E+04
 0.46099998E+02 -0.15848E+04
 0.46149998E+02 -0.24503E+04
 0.46199997E+02 -0.56178E+03
 0.46249996E+02  0.50122E+03
 0.46299995E+02 -0.15397E+04
 0.46349998E+02 -0.20186E+04
 0.46399998E+02 -0.20368E+04
 0.46449997E+02 -0.19311E+04
 0.46499996E+02 -0.34024E+04
 0.46549995E+02 -0.21851E+04
 0.46599998E+02 -0.65628E+03
 0.46649998E+02 -0.17836E+04
 0.46699997E+02 -0.23918E+04
 0.46749996E+02 -0.11104E+04
 0.46799995E+02  0.77587E+03
 0.46849998E+02  0.13925E+03
 0.46899998E+02 -0.45826E+03
 0.46949997E+02 -0.45926E+03
 0.46999996E+02 -0.82301E+03
 0.47049995E+02 -0.23846E+04
 0.47099998E+02 -0.37967E+04
 0.47149998E+02 -0.39384E+04
 0.47199997E+02 -0.51422E+04
 0.47249996E+02 -0.42882E+04
 0.47299995E+02 -0.31824E+04
 0.47349998E+02 -0.22987E+04
 0.47399998E+02 -0.13606E+04
 0.47449997E+02 -0.20232E+04
 0.47499996E+02 -0.18531E+04
 0.47549995E+02 -0.69734E+03
 0.47599998E+02 -0.11773E+04
 0.47649998E+02 -0.63637E+03
 0.47699997E+02 -0.11370E+04
 0.47749996E+02 -0.24079E+04
 0.47799995E+02 -0.13573E+04
 0.47849998E+02 -0.12279E+04
 0.47899998E+02 -0.22768E+04
 0.47949997E+02 -0.38169E+04
 0.47999996E+02 -0.36338E+04
 0.48049995E+02 -0.30734E+04
 0.48099998E+02 -0.32211E+04
 0.48149998E+02 -0.35291E+04
 0.48199997E+02 -0.31583E+04
 0.48249996E+02 -0.24103E+04
 0.48299995E+02 -0.81565E+03
 0.48349998E+02  0.48507E+03
 0.48399998E+02 -0.28406E+04
 0.48449997E+02 -0.35162E+04
 0.48499996E+02 -0.18512E+04
 0.48549995E+02 -0.29369E+04
 0.48599998E+02 -0.17660E+04
 0.48649998E+02 -0.14422E+04
 0.48699997E+02 -0.54534E+03
 0.48749996E+02  0.68157E+03
 0.48799995E+02  0.29359E+03
 0.48849998E+02 -0.85602E+03
 0.48899998E+02 -0.20615E+04
 0.48949997E+02 -0.31187E+04
 0.48999996E+02 -0.42351E+04
 0.49049995E+02 -0.26298E+04
 0.49099998E+02 -0.15288E+04
 0.49149998E+02 -0.16227E+04
 0.49199997E+02 -0.14726E+04
 0.49249996E+02 -0.18375E+04
 0.49299995E+02 -0.22687E+04
 0.49349998E+02 -0.19560E+04
 0.49399998E+02 -0.38184E+04
 0.49449997E+02 -0.31871E+04
 0.49499996E+02 -0.19213E+04
 0.49549995E+02 -0.24008E+04
 0.49599998E+02 -0.20349E+04
 0.49649998E+02 -0.24991E+04
 0.49699997E+02 -0.21831E+04
 0.49749996E+02 -0.24148E+04
 0.49799995E+02 -0.28143E+04
 0.49849998E+02 -0.14327E+04
 0.49899998E+02 -0.14151E+03
 0.49949997E+02 -0.20196E+04
 0.49999996E+02 -0.20048E+04
 0.50049995E+02 -0.30183E+03
 0.50099998E+02 -0.13009E+04
 0.50149998E+02 -0.23082E+04
 0.50199997E+02 -0.21504E+04
 0.50249996E+02 -0.18917E+04
 0.50299995E+02 -0.33437E+04
 0.50349998E+02 -0.25194E+04
 0.50399998E+02 -0.80728E+03
 0.50449997E+02 -0.17669E+04
 0.50499996E+02 -0.15125E+04
 0.50549995E+02 -0.98301E+03
 0.50599998E+02 -0.12760E+04
 0.50649998E+02 -0.21282E+03
 0.50699997E+02  0.38911E+03
 0.50749996E+02 -0.15988E+04
 0.50799995E+02 -0.24878E+04
 0.50849998E+02 -0.32161E+04
 0.50899998E+02 -0.26446E+04
 0.50949997E+02 -0.30345E+04
 0.50999996E+02 -0.39946E+04
 0.51049995E+02 -0.32362E+04
 0.51099998E+02 -0.35402E+04
 0.51149998E+02 -0.44610E+04
 0.51199997E+02 -0.39980E+04
 0.51249996E+02 -0.32329E+04
 0.51299995E+02 -0.38064E+04
 0.51349998E+02 -0.15990E+04
 0.51399998E+02 -0.12088E+04
 0.51449997E+02 -0.20496E+04
 0.51499996E+02 -0.17467E+04
 0.51549995E+02 -0.17599E+04
 0.51599998E+02 -0.12686E+04
 0.51649998E+02 -0.20905E+04
 0.51699997E+02 -0.23490E+04
 0.51749996E+02 -0.96530E+03
 0.51799995E+02 -0.59259E+03
 0.51849998E+02 -0.11490E+04
 0.51899998E+02 -0.64561E+03
 0.51949997E+02 -0.12228E+04
 0.51999996E+02 -0.37003E+04
 0.52049995E+02 -0.36589E+04
 0.52099998E+02 -0.19283E+04
 0.52149998E+02 -0.16776E+04
 0.52199997E+02 -0.15838E+04
 0.52249996E+02 -0.15386E+04
 0.52299995E+02 -0.15962E+04
 0.52349998E+02 -0.21978E+04
 0.52399998E+02 -0.19323E+04
 0.52449997E+02 -0.15985E+04
 0.52499996E+02 -0.18837E+04
 0.52549995E+02 -0.17139E+04
 0.52599998E+02 -0.12162E+04
 0.52649998E+02 -0.97313E+03
 0.52699997E+02 -0.18405E+04
 0.52749996E+02 -0.23629E+04
 0.52799995E+02 -0.21923E+04
 0.52849998E+02 -0.11953E+04
 0.52899998E+02 -0.10261E+04
 0.52949997E+02 -0.69202E+03
 0.52999996E+02 -0.45611E+03
 0.53049995E+02 -0.12435E+04
 0.53099998E+02 -0.19865E+04
 0.53149998E+02 -0.30093E+04
 0.53199997E+02 -0.20757E+04
 0.53249996E+02 -0.20883E+04
 0.53299995E+02 -0.22557E+04
 0.53349998E+02 -0.17851E+04
 0.53399998E+02 -0.22667E+04
 0.53449997E+02 -0.26251E+04
 0.53499996E+02 -0.30530E+04
 0.53549995E+02 -0.26106E+04
 0.53599998E+02 -0.26191E+04
 0.53649998E+02 -0.38946E+04
 0.53699997E+02 -0.24909E+04
 0.53749996E+02 -0.12437E+04
 0.53799995E+02 -0.20976E+04
 0.53849998E+02 -0.16430E+04
 0.53899998E+02 -0.22268E+04
 0.53949997E+02 -0.31058E+04
 0.53999996E+02 -0.38057E+04
 0.54049995E+02 -0.31294E+04
 0.54099998E+02 -0.32058E+04
 0.54149998E+02 -0.30962E+04
 0.54199997E+02 -0.10193E+04
 0.54249996E+02 -0.97929E+03
 0.54299995E+02 -0.88457E+03
 0.54349998E+02 -0.13019E+04
 0.54399998E+02 -0.26920E+04
 0.54449997E+02 -0.31007E+04
 0.54499996E+02 -0.29170E+04
 0.54549995E+02 -0.19858E+04
 0.54599998E+02 -0.15080E+04
 0.54649998E+02 -0.16523E+04
 0.54699997E+02 -0.84359E+03
 0.54749996E+02 -0.67353E+03
 0.54799995E+02 -0.62047E+03
 0.54849998E+02 -0.57147E+03
 0.54899998E+02 -0.25410E+04
 0.54949997E+02 -0.35590E+04
 0.54999996E+02 -0.35818E+04
 0.55049995E+02 -0.20830E+04
 0.55099998E+02 -0.14316E+03
 0.55149998E+02 -0.72974E+03
 0.55199997E+02 -0.12847E+04
 0.55249996E+02 -0.15615E+04
 0.55299995E+02 -0.17077E+04
 0.55349998E+02 -0.13110E+04
 0.55399998E+02 -0.18304E+04
 0.55449997E+02 -0.23670E+04
 0.55499996E+02 -0.30170E+04
 0.55549995E+02 -0.31888E+04
 0.55599998E+02 -0.28257E+04
 0.55649998E+02 -0.28880E+04
 0.55699997E+02 -0.19458E+04
 0.55749996E+02 -0.12699E+04
 0.55799995E+02 -0.59787E+03
 0.55849995E+02 -0.38052E+03
 0.55899998E+02 -0.19917E+04
 0.55949997E+02 -0.32959E+04
 0.55999996E+02 -0.29099E+04
 0.56049995E+02 -0.22776E+04
 0.56099995E+02 -0.10313E+04
 0.56149998E+02 -0.10257E+04
 0.56199997E+02 -0.18842E+04
 0.56249996E+02 -0.19606E+04
 0.56299995E+02 -0.31481E+04
 0.56349995E+02 -0.36173E+04
 0.56399998E+02 -0.24956E+04
 0.56449997E+02 -0.12020E+04
 0.56499996E+02 -0.18287E+04
 0.56549995E+02 -0.28992E+04
 0.56599995E+02 -0.12995E+04
 0.56649998E+02 -0.96421E+03
 0.56699997E+02 -0.24760E+04
 0.56749996E+02 -0.22078E+04
 0.56799995E+02 -0.22097E+04
 0.56849995E+02 -0.33509E+04
 0.56899998E+02 -0.29268E+04
 0.56949997E+02 -0.23463E+04
 0.56999996E+02 -0.21748E+04
 0.57049995E+02 -0.17471E+04
 0.57099995E+02 -0.15526E+04
 0.57149998E+02 -0.14797E+04
 0.57199997E+02 -0.23318E+04
 0.57249996E+02 -0.31368E+04
 0.57299995E+02 -0.24025E+04
 0.57349995E+02 -0.19219E+04
 0.57399998E+02 -0.18495E+04
 0.57449997E+02 -0.13984E+04
 0.57499996E+02 -0.22198E+04
 0.57549995E+02 -0.22898E+04
 0.57599995E+02 -0.17018E+04
 0.57649998E+02 -0.13007E+04
 0.57699997E+02 -0.13835E+04
 0.57749996E+02 -0.15847E+04
 0.57799995E+02 -0.13820E+04
 0.57849995E+02 -0.15183E+04
 0.57899998E+02 -0.18892E+04
 0.57949997E+02 -0.18365E+04
 0.57999996E+02 -0.14116E+04
 0.58049995E+02 -0.11380E+04
 0.58099995E+02 -0.10644E+04
 0.58149998E+02 -0.13028E+04
 0.58199997E+02 -0.17238E+04
 0.58249996E+02 -0.24370E+04
 0.58299995E+02 -0.26934E+04
 0.58349995E+02 -0.24390E+04
 0.58399998E+02 -0.16520E+04
 0.58449997E+02 -0.21699E+04
 0.58499996E+02 -0.27572E+04
 0.58549995E+02 -0.22771E+04
 0.58599995E+02 -0.18853E+04
 0.58649998E+02 -0.23614E+04
 0.58699997E+02 -0.25910E+04
 0.58749996E+02 -0.22488E+04
 0.58799995E+02 -0.23446E+04
 0.58849995E+02 -0.25106E+04
 0.58899998E+02 -0.27160E+04
 0.58949997E+02 -0.18036E+04
 0.58999996E+02 -0.16449E+04
 0.59049995E+02 -0.24434E+04
 0.59099995E+02 -0.23536E+04
 0.59149998E+02 -0.15402E+04
 0.59199997E+02 -0.14112E+04
 0.59249996E+02 -0.23167E+04
 0.59299995E+02 -0.28257E+04
 0.59349995E+02 -0.25358E+04
 0.59399998E+02 -0.25125E+04
 0.59449997E+02 -0.21926E+04
 0.59499996E+02 -0.14830E+04
 0.59549995E+02 -0.15826E+04
 0.59599995E+02 -0.21836E+04
 0.59649998E+02 -0.24808E+04
 0.59699997E+02 -0.24718E+04
 0.59749996E+02 -0.28695E+04
 0.59799995E+02 -0.28837E+04
 0.59849995E+02 -0.20679E+04
 0.59899998E+02 -0.15469E+04
 0.59949997E+02 -0.16291E+04
 0.59999996E+02 -0.16830E+04
 0.60049995E+02 -0.16805E+04
 0.60099995E+02 -0.25780E+04
 0.60149998E+02 -0.27170E+04
 0.60199997E+02 -0.16658E+04
 0.60249996E+02 -0.12497E+04
 0.60299995E+02 -0.88480E+03
 0.60349995E+02 -0.70628E+03
 0.60399998E+02 -0.15790E+04
 0.60449997E+02 -0.19662E+04
 0.60499996E+02 -0.22233E+04
 0.60549995E+02 -0.23624E+04
 0.60599995E+02 -0.18969E+04
 0.60649998E+02 -0.14145E+04
 0.60699997E+02 -0.11670E+04
 0.60749996E+02 -0.19426E+04
 0.60799995E+02 -0.20613E+04
 0.60849995E+02 -0.19107E+04
 0.60899998E+02 -0.19932E+04
 0.60949997E+02 -0.19329E+04
 0.60999996E+02 -0.19496E+04
 0.61049995E+02 -0.17344E+04
 0.61099995E+02 -0.22083E+04
 0.61149998E+02 -0.25019E+04
 0.61199997E+02 -0.21811E+04
 0.61249996E+02 -0.25264E+04
 0.61299995E+02 -0.27097E+04
 0.61349995E+02 -0.22400E+04
 0.61399998E+02 -0.16725E+04
 0.61449997E+02 -0.18268E+04
 0.61499996E+02 -0.19048E+04
 0.61549995E+02 -0.16355E+04
 0.61599995E+02 -0.23351E+04
 0.61649998E+02 -0.22690E+04
 0.61699997E+02 -0.19647E+04
 0.61749996E+02 -0.20658E+04
 0.61799995E+02 -0.19600E+04
 0.61849995E+02 -0.23266E+04
 0.61899998E+02 -0.22456E+04
 0.61949997E+02 -0.21794E+04
 0.61999996E+02 -0.23213E+04
 0.62049995E+02 -0.21492E+04
 0.62099998E+02 -0.23263E+04
 0.62149994E+02 -0.22881E+04
 0.62199997E+02 -0.21981E+04
 0.62249992E+02 -0.24202E+04
 0.62299995E+02 -0.27109E+04
 0.62349998E+02 -0.28249E+04
 0.62399994E+02 -0.27429E+04
 0.62449997E+02 -0.24017E+04
 0.62499992E+02 -0.16915E+04
 0.62549995E+02 -0.14677E+04
 0.62599998E+02 -0.14574E+04
 0.62649994E+02 -0.15576E+04
 0.62699997E+02 -0.16831E+04
 0.62749992E+02 -0.16732E+04
 0.62799995E+02 -0.20664E+04
 0.62849998E+02 -0.21301E+04
 0.62899994E+02 -0.18264E+04
 0.62949997E+02 -0.17942E+04
 0.62999992E+02 -0.20859E+04
 0.63049995E+02 -0.21533E+04
 0.63099998E+02 -0.18890E+04
 0.63149994E+02 -0.21240E+04
 0.63199997E+02 -0.22742E+04
 0.63249992E+02 -0.16970E+04
 0.63299995E+02 -0.15020E+04
 0.63349998E+02 -0.17703E+04
 0.63399994E+02 -0.11927E+04
 0.63449997E+02 -0.10779E+04
 0.63499992E+02 -0.17395E+04
 0.63549995E+02 -0.17402E+04
 0.63599998E+02 -0.22315E+04
 0.63649994E+02 -0.29192E+04
 0.63699997E+02 -0.24124E+04
 0.63749992E+02 -0.18078E+04
 0.63799995E+02 -0.18721E+04
 0.63849998E+02 -0.19765E+04
 0.63899994E+02 -0.17580E+04
 0.63949997E+02 -0.17980E+04
 0.63999992E+02 -0.19996E+04
 0.64049995E+02 -0.20082E+04
 0.64099998E+02 -0.18447E+04
 0.64149994E+02 -0.23263E+04
 0.64199997E+02 -0.25848E+04
 0.64249992E+02 -0.18157E+04
 0.64299995E+02 -0.18656E+04
 0.64349998E+02 -0.18848E+04
 0.64399994E+02 -0.15018E+04
 0.64449997E+02 -0.21842E+04
 0.64499992E+02 -0.30005E+04
 0.64549995E+02 -0.24739E+04
 0.64599998E+02 -0.20861E+04
 0.64649994E+02 -0.20818E+04
 0.64699997E+02 -0.21361E+04
 0.64749992E+02 -0.20650E+04
 0.64799995E+02 -0.17872E+04
 0.64849998E+02 -0.21725E+04
 0.64899994E+02 -0.16922E+04
 0.64949997E+02 -0.14529E+04
 0.64999992E+02 -0.18372E+04
 0.65049995E+02 -0.16630E+04
 0.65099998E+02 -0.16307E+04
 0.65149994E+02 -0.21627E+04
 0.65199997E+02 -0.24519E+04
 0.65249992E+02 -0.21715E+04
 0.65299995E+02 -0.20497E+04
 0.65349998E+02 -0.22807E+04
 0.65399994E+02 -0.23194E+04
 0.65449997E+02 -0.18170E+04
 0.65499992E+02 -0.18011E+04
 0.65549995E+02 -0.19943E+04
 0.65599998E+02 -0.17391E+04
 0.65649994E+02 -0.17657E+04
 0.65699997E+02 -0.23127E+04
 0.65749992E+02 -0.22815E+04
 0.65799995E+02 -0.24759E+04
 0.65849998E+02 -0.26987E+04
 0.65899994E+02 -0.23435E+04
 0.65949997E+02 -0.21929E+04
 0.65999992E+02 -0.20992E+04
 0.66049995E+02 -0.23027E+04
 0.66099998E+02 -0.23669E+04
 0.66149994E+02 -0.23957E+04
 0.66199997E+02 -0.20286E+04
 0.66249992E+02 -0.14941E+04
 0.66299995E+02 -0.13341E+04
 0.66349998E+02 -0.15187E+04
 0.66399994E+02 -0.17154E+04
 0.66449997E+02 -0.16986E+04
 0.66499992E+02 -0.16528E+04
 0.66549995E+02 -0.15109E+04
 0.66599998E+02 -0.14857E+04
 0.66649994E+02 -0.15593E+04
 0.66699997E+02 -0.20399E+04
 0.66749992E+02 -0.20763E+04
 0.66799995E+02 -0.24285E+04
 0.66849998E+02 -0.27882E+04
 0.66899994E+02 -0.22333E+04
 0.66949997E+02 -0.19421E+04
 0.66999992E+02 -0.20399E+04
 0.67049995E+02 -0.21533E+04
 0.67099998E+02 -0.20100E+04
 0.67149994E+02 -0.19382E+04
 0.67199997E+02 -0.18499E+04
 0.67249992E+02 -0.15751E+04
 0.67299995E+02 -0.11919E+04
 0.67349998E+02 -0.12514E+04
 0.67399994E+02 -0.15748E+04
 0.67449997E+02 -0.16729E+04
 0.67499992E+02 -0.19229E+04
 0.67549995E+02 -0.21362E+04
 0.67599998E+02 -0.21060E+04
 0.67649994E+02 -0.22581E+04
 0.67699997E+02 -0.27265E+04
 0.67749992E+02 -0.28140E+04
 0.67799995E+02 -0.28307E+04
 0.67849998E+02 -0.28906E+04
 0.67899994E+02 -0.25343E+04
 0.67949997E+02 -0.21658E+04
 0.67999992E+02 -0.20379E+04
 0.68049995E+02 -0.19885E+04
 0.68099998E+02 -0.21114E+04
 0.68149994E+02 -0.20403E+04
 0.68199997E+02 -0.18022E+04
 0.68249992E+02 -0.18013E+04
 0.68299995E+02 -0.19240E+04
 0.68349998E+02 -0.19304E+04
 0.68399994E+02 -0.21906E+04
 0.68449997E+02 -0.22634E+04
 0.68499992E+02 -0.17685E+04
 0.68549995E+02 -0.14817E+04
 0.68599998E+02 -0.14203E+04
 0.68649994E+02 -0.14716E+04
 0.68699997E+02 -0.16834E+04
 0.68749992E+02 -0.21843E+04
 0.68799995E+02 -0.24796E+04
 0.68849998E+02 -0.25790E+04
 0.68899994E+02 -0.26006E+04
 0.68949997E+02 -0.26901E+04
 0.68999992E+02 -0.25230E+04
 0.69049995E+02 -0.25250E+04
 0.69099998E+02 -0.29291E+04
 0.69149994E+02 -0.29052E+04
 0.69199997E+02 -0.18464E+04
 0.69249992E+02 -0.10870E+04
 0.69299995E+02 -0.16389E+04
 0.69349998E+02 -0.16827E+04
 0.69399994E+02 -0.13838E+04
 0.69449997E+02 -0.17461E+04
 0.69499992E+02 -0.21999E+04
 0.69549995E+02 -0.21756E+04
 0.69599998E+02 -0.20834E+04
 0.69649994E+02 -0.20351E+04
 0.69699997E+02 -0.17029E+04
 0.69749992E+02 -0.12557E+04
 0.69799995E+02 -0.14199E+04
 0.69849998E+02 -0.17042E+04
 0.69899994E+02 -0.14474E+04
 0.69949997E+02 -0.14968E+04
 0.69999992E+02 -0.16573E+04
 0.70049995E+02 -0.19254E+04
 0.70099998E+02 -0.21083E+04
 0.70149994E+02 -0.20118E+04
 0.70199997E+02 -0.21796E+04
 0.70249992E+02 -0.22926E+04
 0.70299995E+02 -0.21180E+04
 0.70349998E+02 -0.23583E+04
 0.70399994E+02 -0.28618E+04
 0.70449997E+02 -0.27171E+04
 0.70499992E+02 -0.21985E+04
 0.70549995E+02 -0.21359E+04
 0.70599998E+02 -0.22207E+04
 0.70649994E+02 -0.18977E+04
 0.70699997E+02 -0.18841E+04
 0.70749992E+02 -0.19433E+04
 0.70799995E+02 -0.18194E+04
 0.70849998E+02 -0.15367E+04
 0.70899994E+02 -0.16002E+04
 0.70949997E+02 -0.19550E+04
 0.70999992E+02 -0.20999E+04
 0.71049995E+02 -0.22244E+04
 0.71099998E+02 -0.21463E+04
 0.71149994E+02 -0.19016E+04
 0.71199997E+02 -0.16506E+04
 0.71249992E+02 -0.15690E+04
 0.71299995E+02 -0.18312E+04
 0.71349998E+02 -0.24616E+04
 0.71399994E+02 -0.21546E+04
 0.71449997E+02 -0.15756E+04
 0.71499992E+02 -0.16327E+04
 0.71549995E+02 -0.18260E+04
 0.71599998E+02 -0.22831E+04
 0.71649994E+02 -0.25639E+04
 0.71699997E+02 -0.28397E+04
 0.71749992E+02 -0.27410E+04
 0.71799995E+02 -0.22429E+04
 0.71849998E+02 -0.19502E+04
 0.71899994E+02 -0.18268E+04
 0.71949997E+02 -0.17344E+04
 0.71999992E+02 -0.18806E+04
 0.72049995E+02 -0.21034E+04
 0.72099998E+02 -0.19052E+04
 0.72149994E+02 -0.15299E+04
 0.72199997E+02 -0.17436E+04
 0.72249992E+02 -0.21551E+04
 0.72299995E+02 -0.22687E+04
 0.72349998E+02 -0.24522E+04
 0.72399994E+02 -0.24694E+04
 0.72449997E+02 -0.24292E+04
 0.72499992E+02 -0.23297E+04
 0.72549995E+02 -0.22515E+04
 0.72599998E+02 -0.22655E+04
 0.72649994E+02 -0.21374E+04
 0.72699997E+02 -0.17349E+04
 0.72749992E+02 -0.16868E+04
 0.72799995E+02 -0.18423E+04
 0.72849998E+02 -0.19705E+04
 0.72899994E+02 -0.19873E+04
 0.72949997E+02 -0.20111E+04
 0.72999992E+02 -0.20702E+04
 0.73049995E+02 -0.18691E+04
 0.73099998E+02 -0.19131E+04
 0.73149994E+02 -0.15077E+04
 0.73199997E+02 -0.12856E+04
 0.73249992E+02 -0.15137E+04
 0.73299995E+02 -0.16688E+04
 0.73349998E+02 -0.18954E+04
 0.73399994E+02 -0.19727E+04
 0.73449997E+02 -0.20782E+04
 0.73499992E+02 -0.21862E+04
 0.73549995E+02 -0.19801E+04
 0.73599998E+02 -0.18979E+04
 0.73649994E+02 -0.19211E+04
 0.73699997E+02 -0.19049E+04
 0.73749992E+02 -0.21149E+04
 0.73799995E+02 -0.21357E+04
 0.73849998E+02 -0.21299E+04
 0.73899994E+02 -0.22182E+04
 0.73949997E+02 -0.20197E+04
 0.73999992E+02 -0.17249E+04
 0.74049995E+02 -0.13658E+04
 0.74099998E+02 -0.13774E+04
 0.74149994E+02 -0.18316E+04
 0.74199997E+02 -0.20925E+04
 0.74249992E+02 -0.21944E+04
 0.74299995E+02 -0.22559E+04
 0.74349998E+02 -0.23953E+04
 0.74399994E+02 -0.24719E+04
 0.74449997E+02 -0.24132E+04
 0.74499992E+02 -0.22602E+04
 0.74549995E+02 -0.22647E+04
 0.74599998E+02 -0.22140E+04
 0.74649994E+02 -0.21716E+04
 0.74699997E+02 -0.22870E+04
 0.74749992E+02 -0.22838E+04
 0.74799995E+02 -0.21382E+04
 0.74849998E+02 -0.18110E+04
 0.74899994E+02 -0.18548E+04
 0.74949997E+02 -0.21857E+04
 0.74999992E+02 -0.23887E+04
 0.75049995E+02 -0.24498E+04
 0.75099998E+02 -0.22036E+04
 0.75149994E+02 -0.21322E+04
 0.75199997E+02 -0.21832E+04
 0.75249992E+02 -0.18964E+04
 0.75299995E+02 -0.19846E+04
 0.75349998E+02 -0.23250E+04
 0.75399994E+02 -0.19916E+04
 0.75449997E+02 -0.17799E+04
 0.75499992E+02 -0.17603E+04
 0.75549995E+02 -0.15547E+04
 0.75599998E+02 -0.16750E+04
 0.75649994E+02 -0.16073E+04
 0.75699997E+02 -0.14774E+04
 0.75749992E+02 -0.15920E+04
 0.75799995E+02 -0.18232E+04
 0.75849998E+02 -0.20836E+04
 0.75899994E+02 -0.22935E+04
 0.75949997E+02 -0.24759E+04
 0.75999992E+02 -0.23818E+04
 0.76049995E+02 -0.22070E+04
 0.76099998E+02 -0.21833E+04
 0.76149994E+02 -0.20958E+04
 0.76199997E+02 -0.18890E+04
 0.76249992E+02 -0.19262E+04
 0.76299995E+02 -0.21610E+04
 0.76349998E+02 -0.22192E+04
 0.76399994E+02 -0.21784E+04
 0.76449997E+02 -0.19044E+04
 0.76499992E+02 -0.17324E+04
 0.76549995E+02 -0.16056E+04
 0.76599998E+02 -0.15666E+04
 0.76649994E+02 -0.18499E+04
 0.76699997E+02 -0.18725E+04
 0.76749992E+02 -0.18974E+04
 0.76799995E+02 -0.21711E+04
 0.76849998E+02 -0.22276E+04
 0.76899994E+02 -0.20356E+04
 0.76949997E+02 -0.18632E+04
 0.76999992E+02 -0.15996E+04
 0.77049995E+02 -0.13709E+04
 0.77099998E+02 -0.14593E+04
 0.77149994E+02 -0.16221E+04
 0.77199997E+02 -0.18831E+04
 0.77249992E+02 -0.22436E+04
 0.77299995E+02 -0.22729E+04
 0.77349998E+02 -0.22298E+04
 0.77399994E+02 -0.23523E+04
 0.77449997E+02 -0.24597E+04
 0.77499992E+02 -0.25683E+04
 0.77549995E+02 -0.25593E+04
 0.77599998E+02 -0.23335E+04
 0.77649994E+02 -0.22296E+04
 0.77699997E+02 -0.20555E+04
 0.77749992E+02 -0.21289E+04
 0.77799995E+02 -0.23758E+04
 0.77849998E+02 -0.21883E+04
 0.77899994E+02 -0.20689E+04
 0.77949997E+02 -0.20013E+04
 0.77999992E+02 -0.19328E+04
 0.78049995E+02 -0.18312E+04
 0.78099998E+02 -0.18531E+04
 0.78149994E+02 -0.19828E+04
 0.78199997E+02 -0.20591E+04
 0.78249992E+02 -0.23042E+04
 0.78299995E+02 -0.23687E+04
 0.78349998E+02 -0.21519E+04
 0.78399994E+02 -0.20428E+04
 0.78449997E+02 -0.21494E+04
 0.78499992E+02 -0.19387E+04
 0.78549995E+02 -0.17797E+04
 0.78599998E+02 -0.19057E+04
 0.78649994E+02 -0.19134E+04
 0.78699997E+02 -0.17907E+04
 0.78749992E+02 -0.17343E+04
 0.78799995E+02 -0.18293E+04
 0.78849998E+02 -0.17683E+04
 0.78899994E+02 -0.18157E+04
 0.78949997E+02 -0.19529E+04
 0.78999992E+02 -0.19992E+04
 0.79049995E+02 -0.19389E+04
 0.79099998E+02 -0.18605E+04
 0.79149994E+02 -0.19009E+04
 0.79199997E+02 -0.19601E+04
 0.79249992E+02 -0.18787E+04
 0.79299995E+02 -0.20138E+04
 0.79349998E+02 -0.22406E+04
 0.79399994E+02 -0.20963E+04
 0.79449997E+02 -0.19935E+04
 0.79499992E+02 -0.19848E+04
 0.79549995E+02 -0.20024E+04
 0.79599998E+02 -0.21018E+04
 0.79649994E+02 -0.21571E+04
 0.79699997E+02 -0.21441E+04
 0.79749992E+02 -0.21002E+04
 0.79799995E+02 -0.20241E+04
 0.79849998E+02 -0.21035E+04
 0.79899994E+02 -0.22464E+04
 0.79949997E+02 -0.21895E+04
 0.79999992E+02 -0.19547E+04
 0.80049995E+02 -0.17912E+04
 0.80099998E+02 -0.18322E+04
 0.80149994E+02 -0.18111E+04
 0.80199997E+02 -0.18101E+04
 0.80249992E+02 -0.19885E+04
 0.80299995E+02 -0.20867E+04
 0.80349998E+02 -0.21151E+04
 0.80399994E+02 -0.21636E+04
 0.80449997E+02 -0.21649E+04
 0.80499992E+02 -0.22536E+04
 0.80549995E+02 -0.21541E+04
 0.80599998E+02 -0.20624E+04
 0.80649994E+02 -0.19996E+04
 0.80699997E+02 -0.18829E+04
 0.80749992E+02 -0.18734E+04
 0.80799995E+02 -0.18662E+04
 0.80849998E+02 -0.18429E+04
 0.80899994E+02 -0.18846E+04
 0.80949997E+02 -0.19511E+04
 0.80999992E+02 -0.20354E+04
 0.81049995E+02 -0.22273E+04
 0.81099998E+02 -0.21498E+04
 0.81149994E+02 -0.20021E+04
 0.81199997E+02 -0.20046E+04
 0.81249992E+02 -0.21584E+04
 0.81299995E+02 -0.22529E+04
 0.81349998E+02 -0.22888E+04
 0.81399994E+02 -0.21899E+04
 0.81449997E+02 -0.19803E+04
 0.81499992E+02 -0.16716E+04
 0.81549995E+02 -0.15734E+04
 0.81599998E+02 -0.18349E+04
 0.81649994E+02 -0.19794E+04
 0.81699997E+02 -0.20607E+04
 0.81749992E+02 -0.20215E+04
 0.81799995E+02 -0.20574E+04
 0.81849998E+02 -0.21325E+04
 0.81899994E+02 -0.21815E+04
 0.81949997E+02 -0.22168E+04
 0.81999992E+02 -0.23234E+04
 0.82049995E+02 -0.23220E+04
 0.82099998E+02 -0.21213E+04
 0.82149994E+02 -0.20400E+04
 0.82199997E+02 -0.20192E+04
 0.82249992E+02 -0.19628E+04
 0.82299995E+02 -0.17919E+04
 0.82349998E+02 -0.15663E+04
 0.82399994E+02 -0.17560E+04
 0.82449997E+02 -0.20256E+04
 0.82499992E+02 -0.19992E+04
 0.82549995E+02 -0.19912E+04
 0.82599998E+02 -0.18319E+04
 0.82649994E+02 -0.17689E+04
 0.82699997E+02 -0.17988E+04
 0.82749992E+02 -0.19164E+04
 0.82799995E+02 -0.20218E+04
 0.82849998E+02 -0.17331E+04
 0.82899994E+02 -0.15503E+04
 0.82949997E+02 -0.16595E+04
 0.82999992E+02 -0.17610E+04
 0.83049995E+02 -0.18986E+04
 0.83099998E+02 -0.21980E+04
 0.83149994E+02 -0.23571E+04
 0.83199997E+02 -0.22799E+04
 0.83249992E+02 -0.22037E+04
 0.83299995E+02 -0.23879E+04
 0.83349998E+02 -0.25058E+04
 0.83399994E+02 -0.24302E+04
 0.83449997E+02 -0.24961E+04
 0.83499992E+02 -0.24840E+04
 0.83549995E+02 -0.23267E+04
 0.83599998E+02 -0.21100E+04
 0.83649994E+02 -0.19773E+04
 0.83699997E+02 -0.19680E+04
 0.83749992E+02 -0.20865E+04
 0.83799995E+02 -0.21909E+04
 0.83849998E+02 -0.20977E+04
 0.83899994E+02 -0.19240E+04
 0.83949997E+02 -0.18916E+04
 0.83999992E+02 -0.19725E+04
 0.84049995E+02 -0.19000E+04
 0.84099998E+02 -0.19967E+04
 0.84149994E+02 -0.21019E+04
 0.84199997E+02 -0.19855E+04
 0.84249992E+02 -0.18420E+04
 0.84299995E+02 -0.16607E+04
 0.84349998E+02 -0.16881E+04
 0.84399994E+02 -0.17200E+04
 0.84449997E+02 -0.17875E+04
 0.84499992E+02 -0.19409E+04
 0.84549995E+02 -0.18839E+04
 0.84599998E+02 -0.16920E+04
 0.84649994E+02 -0.16406E+04
 0.84699997E+02 -0.17294E+04
 0.84749992E+02 -0.17562E+04
 0.84799995E+02 -0.18066E+04
 0.84849998E+02 -0.18352E+04
 0.84899994E+02 -0.19378E+04
 0.84949997E+02 -0.21105E+04
 0.84999992E+02 -0.21938E+04
 0.85049995E+02 -0.20820E+04
 0.85099998E+02 -0.20093E+04
 0.85149994E+02 -0.21783E+04
 0.85199997E+02 -0.22460E+04
 0.85249992E+02 -0.21224E+04
 0.85299995E+02 -0.19818E+04
 0.85349998E+02 -0.19794E+04
 0.85399994E+02 -0.20389E+04
 0.85449997E+02 -0.20873E+04
 0.85499992E+02 -0.19675E+04
 0.85549995E+02 -0.18786E+04
 0.85599998E+02 -0.19430E+04
 0.85649994E+02 -0.21066E+04
 0.85699997E+02 -0.22323E+04
 0.85749992E+02 -0.22891E+04
 0.85799995E+02 -0.22491E+04
 0.85849998E+02 -0.20154E+04
 0.85899994E+02 -0.19794E+04
 0.85949997E+02 -0.20565E+04
 0.85999992E+02 -0.20643E+04
 0.86049995E+02 -0.20001E+04
 0.86099998E+02 -0.19824E+04
 0.86149994E+02 -0.19604E+04
 0.86199997E+02 -0.20661E+04
 0.86249992E+02 -0.21538E+04
 0.86299995E+02 -0.20519E+04
 0.86349998E+02 -0.20824E+04
 0.86399994E+02 -0.21853E+04
 0.86449997E+02 -0.22668E+04
 0.86499992E+02 -0.22011E+04
 0.86549995E+02 -0.20860E+04
 0.86599998E+02 -0.21539E+04
 0.86649994E+02 -0.22607E+04
 0.86699997E+02 -0.21532E+04
 0.86749992E+02 -0.20943E+04
 0.86799995E+02 -0.20968E+04
 0.86849998E+02 -0.18598E+04
 0.86899994E+02 -0.17313E+04
 0.86949997E+02 -0.17763E+04
 0.86999992E+02 -0.18456E+04
 0.87049995E+02 -0.19274E+04
 0.87099998E+02 -0.19097E+04
 0.87149994E+02 -0.20031E+04
 0.87199997E+02 -0.20304E+04
 0.87249992E+02 -0.20193E+04
 0.87299995E+02 -0.20625E+04
 0.87349998E+02 -0.20879E+04
 0.87399994E+02 -0.21344E+04
 0.87449997E+02 -0.20382E+04
 0.87499992E+02 -0.19922E+04
 0.87549995E+02 -0.20215E+04
 0.87599991E+02 -0.19952E+04
 0.87649994E+02 -0.19605E+04
 0.87699997E+02 -0.19819E+04
 0.87749992E+02 -0.19565E+04
 0.87799995E+02 -0.18966E+04
 0.87849991E+02 -0.18567E+04
 0.87899994E+02 -0.17437E+04
 0.87949997E+02 -0.16538E+04
 0.87999992E+02 -0.16786E+04
 0.88049995E+02 -0.18566E+04
 0.88099991E+02 -0.21006E+04
 0.88149994E+02 -0.22016E+04
 0.88199997E+02 -0.22860E+04
 0.88249992E+02 -0.23896E+04
 0.88299995E+02 -0.23534E+04
 0.88349991E+02 -0.22424E+04
 0.88399994E+02 -0.21808E+04
 0.88449997E+02 -0.21451E+04
 0.88499992E+02 -0.21517E+04
 0.88549995E+02 -0.20638E+04
 0.88599991E+02 -0.19316E+04
 0.88649994E+02 -0.19560E+04
 0.88699997E+02 -0.20101E+04
 0.88749992E+02 -0.20151E+04
 0.88799995E+02 -0.20125E+04
 0.88849991E+02 -0.19857E+04
 0.88899994E+02 -0.19504E+04
 0.88949997E+02 -0.19524E+04
 0.88999992E+02 -0.18709E+04
 0.89049995E+02 -0.17372E+04
 0.89099991E+02 -0.17218E+04
 0.89149994E+02 -0.17936E+04
 0.89199997E+02 -0.19065E+04
 0.89249992E+02 -0.21199E+04
 0.89299995E+02 -0.22979E+04
 0.89349991E+02 -0.22489E+04
 0.89399994E+02 -0.21938E+04
 0.89449997E+02 -0.23057E+04
 0.89499992E+02 -0.23115E+04
 0.89549995E+02 -0.22530E+04
 0.89599991E+02 -0.22611E+04
 0.89649994E+02 -0.21154E+04
 0.89699997E+02 -0.19417E+04
 0.89749992E+02 -0.19354E+04
 0.89799995E+02 -0.19229E+04
 0.89849991E+02 -0.18643E+04
 0.89899994E+02 -0.17656E+04
 0.89949997E+02 -0.17019E+04
 0.89999992E+02 -0.17496E+04
 0.90049995E+02 -0.18007E+04
 0.90099991E+02 -0.18212E+04
 0.90149994E+02 -0.18123E+04
 0.90199997E+02 -0.17804E+04
 0.90249992E+02 -0.17787E+04
 0.90299995E+02 -0.19382E+04
 0.90349991E+02 -0.20824E+04
 0.90399994E+02 -0.20972E+04
 0.90449997E+02 -0.22751E+04
 0.90499992E+02 -0.22800E+04
 0.90549995E+02 -0.20578E+04
 0.90599991E+02 -0.20261E+04
 0.90649994E+02 -0.20647E+04
 0.90699997E+02 -0.20784E+04
 0.90749992E+02 -0.20672E+04
 0.90799995E+02 -0.20942E+04
 0.90849991E+02 -0.22422E+04
 0.90899994E+02 -0.22849E+04
 0.90949997E+02 -0.21631E+04
 0.90999992E+02 -0.21532E+04
 0.91049995E+02 -0.21582E+04
 0.91099991E+02 -0.21087E+04
 0.91149994E+02 -0.20470E+04
 0.91199997E+02 -0.19357E+04
 0.91249992E+02 -0.18575E+04
 0.91299995E+02 -0.18165E+04
 0.91349991E+02 -0.19343E+04
 0.91399994E+02 -0.21754E+04
 0.91449997E+02 -0.22956E+04
 0.91499992E+02 -0.22165E+04
 0.91549995E+02 -0.20349E+04
 0.91599991E+02 -0.19296E+04
 0.91649994E+02 -0.18431E+04
 0.91699997E+02 -0.17797E+04
 0.91749992E+02 -0.18049E+04
 0.91799995E+02 -0.18934E+04
 0.91849991E+02 -0.19877E+04
 0.91899994E+02 -0.20090E+04
 0.91949997E+02 -0.20492E+04
 0.91999992E+02 -0.19810E+04
 0.92049995E+02 -0.18120E+04
 0.92099991E+02 -0.17913E+04
 0.92149994E+02 -0.18470E+04
 0.92199997E+02 -0.19118E+04
 0.92249992E+02 -0.20320E+04
 0.92299995E+02 -0.21167E+04
 0.92349991E+02 -0.22036E+04
 0.92399994E+02 -0.22840E+04
 0.92449997E+02 -0.22431E+04
 0.92499992E+02 -0.21532E+04
 0.92549995E+02 -0.20377E+04
 0.92599991E+02 -0.19659E+04
 0.92649994E+02 -0.18548E+04
 0.92699997E+02 -0.16777E+04
 0.92749992E+02 -0.16681E+04
 0.92799995E+02 -0.18438E+04
 0.92849991E+02 -0.20320E+04
 0.92899994E+02 -0.21251E+04
 0.92949997E+02 -0.20921E+04
 0.92999992E+02 -0.20063E+04
 0.93049995E+02 -0.19969E+04
 0.93099991E+02 -0.20618E+04
 0.93149994E+02 -0.21147E+04
 0.93199997E+02 -0.21823E+04
 0.93249992E+02 -0.22194E+04
 0.93299995E+02 -0.22001E+04
 0.93349991E+02 -0.22376E+04
 0.93399994E+02 -0.20943E+04
 0.93449997E+02 -0.18961E+04
 0.93499992E+02 -0.19393E+04
 0.93549995E+02 -0.19713E+04
 0.93599991E+02 -0.19491E+04
 0.93649994E+02 -0.19566E+04
 0.93699997E+02 -0.18652E+04
 0.93749992E+02 -0.18068E+04
 0.93799995E+02 -0.19087E+04
 0.93849991E+02 -0.20481E+04
 0.93899994E+02 -0.21558E+04
 0.93949997E+02 -0.22367E+04
 0.93999992E+02 -0.21676E+04
 0.94049995E+02 -0.19267E+04
 0.94099991E+02 -0.17909E+04
 0.94149994E+02 -0.18451E+04
 0.94199997E+02 -0.20073E+04
 0.94249992E+02 -0.21018E+04
 0.94299995E+02 -0.21388E+04
 0.94349991E+02 -0.21688E+04
 0.94399994E+02 -0.20362E+04
 0.94449997E+02 -0.18531E+04
 0.94499992E+02 -0.17174E+04
 0.94549995E+02 -0.16478E+04
 0.94599991E+02 -0.16838E+04
 0.94649994E+02 -0.18021E+04
 0.94699997E+02 -0.19560E+04
 0.94749992E+02 -0.20057E+04
 0.94799995E+02 -0.19515E+04
 0.94849991E+02 -0.19739E+04
 0.94899994E+02 -0.20765E+04
 0.94949997E+02 -0.21694E+04
 0.94999992E+02 -0.22847E+04
 0.95049995E+02 -0.22819E+04
 0.95099991E+02 -0.22038E+04
 0.95149994E+02 -0.22112E+04
 0.95199997E+02 -0.22874E+04
 0.95249992E+02 -0.22336E+04
 0.95299995E+02 -0.21403E+04
 0.95349991E+02 -0.21344E+04
 0.95399994E+02 -0.20049E+04
 0.95449997E+02 -0.18774E+04
 0.95499992E+02 -0.18232E+04
 0.95549995E+02 -0.18505E+04
 0.95599991E+02 -0.18748E+04
 0.95649994E+02 -0.19479E+04
 0.95699997E+02 -0.20107E+04
 0.95749992E+02 -0.19548E+04
 0.95799995E+02 -0.20121E+04
 0.95849991E+02 -0.20428E+04
 0.95899994E+02 -0.20362E+04
 0.95949997E+02 -0.20698E+04
 0.95999992E+02 -0.20285E+04
 0.96049995E+02 -0.19733E+04
 0.96099991E+02 -0.19241E+04
 0.96149994E+02 -0.18866E+04
 0.96199997E+02 -0.19650E+04
 0.96249992E+02 -0.20636E+04
 0.96299995E+02 -0.21420E+04
 0.96349991E+02 -0.21397E+04
 0.96399994E+02 -0.20509E+04
 0.96449997E+02 -0.20045E+04
 0.96499992E+02 -0.19259E+04
 0.96549995E+02 -0.19631E+04
 0.96599991E+02 -0.19952E+04
 0.96649994E+02 -0.19864E+04
 0.96699997E+02 -0.21010E+04
 0.96749992E+02 -0.21210E+04
 0.96799995E+02 -0.20847E+04
 0.96849991E+02 -0.20875E+04
 0.96899994E+02 -0.21245E+04
 0.96949997E+02 -0.21942E+04
 0.96999992E+02 -0.21514E+04
 0.97049995E+02 -0.21466E+04
 0.97099991E+02 -0.21662E+04
 0.97149994E+02 -0.20212E+04
 0.97199997E+02 -0.18848E+04
 0.97249992E+02 -0.18650E+04
 0.97299995E+02 -0.19034E+04
 0.97349991E+02 -0.19769E+04
 0.97399994E+02 -0.20192E+04
 0.97449997E+02 -0.19608E+04
 0.97499992E+02 -0.19229E+04
 0.97549995E+02 -0.19992E+04
 0.97599991E+02 -0.21240E+04
 0.97649994E+02 -0.21340E+04
 0.97699997E+02 -0.20089E+04
 0.97749992E+02 -0.19051E+04
 0.97799995E+02 -0.19425E+04
 0.97849991E+02 -0.20767E+04
 0.97899994E+02 -0.22117E+04
 0.97949997E+02 -0.21766E+04
 0.97999992E+02 -0.20324E+04
