-0.19969940E+01 -0.11788E+05
-0.19469941E+01 -0.11904E+05
-0.18969940E+01 -0.11981E+05
-0.18469940E+01 -0.11951E+05
-0.17969940E+01 -0.11842E+05
-0.17469940E+01 -0.11811E+05
-0.16969941E+01 -0.11969E+05
-0.16469941E+01 -0.12046E+05
-0.15969940E+01 -0.12004E+05
-0.15469940E+01 -0.11932E+05
-0.14969940E+01 -0.11820E+05
-0.14469941E+01 -0.11830E+05
-0.13969941E+01 -0.12029E+05
-0.13469940E+01 -0.12068E+05
-0.12969941E+01 -0.12010E+05
-0.12469940E+01 -0.11944E+05
-0.11969941E+01 -0.11816E+05
-0.11469941E+01 -0.11925E+05
-0.10969940E+01 -0.12060E+05
-0.10469941E+01 -0.12053E+05
-0.99699408E+00 -0.11957E+05
-0.94699407E+00 -0.11831E+05
-0.89699411E+00 -0.11779E+05
-0.84699404E+00 -0.11873E+05
-0.79699409E+00 -0.11915E+05
-0.74699414E+00 -0.11867E+05
-0.69699407E+00 -0.11811E+05
-0.64699411E+00 -0.11679E+05
-0.59699416E+00 -0.11730E+05
-0.54699409E+00 -0.11849E+05
-0.49699414E+00 -0.11871E+05
-0.44699407E+00 -0.11779E+05
-0.39699411E+00 -0.11706E+05
-0.34699416E+00 -0.11627E+05
-0.29699409E+00 -0.11723E+05
-0.24699414E+00 -0.11861E+05
-0.19699407E+00 -0.11826E+05
-0.14699411E+00 -0.11827E+05
-0.96994162E-01 -0.11690E+05
-0.46994090E-01 -0.11690E+05
 0.30058622E-02 -0.11839E+05
 0.53005934E-01 -0.11893E+05
 0.10300589E+00 -0.11865E+05
 0.15300584E+00 -0.11836E+05
 0.20300579E+00 -0.11785E+05
 0.25300574E+00 -0.11844E+05
 0.30300593E+00 -0.12090E+05
 0.35300589E+00 -0.12003E+05
 0.40300584E+00 -0.11869E+05
 0.45300579E+00 -0.11908E+05
 0.50300574E+00 -0.11682E+05
 0.55300593E+00 -0.11992E+05
 0.60300589E+00 -0.12110E+05
 0.65300584E+00 -0.11969E+05
 0.70300579E+00 -0.12032E+05
 0.75300574E+00 -0.11784E+05
 0.80300570E+00 -0.11970E+05
 0.85300589E+00 -0.12072E+05
 0.90300584E+00 -0.12015E+05
 0.95300579E+00 -0.11967E+05
 0.10030057E+01 -0.11902E+05
 0.10530057E+01 -0.11852E+05
 0.11030059E+01 -0.11979E+05
 0.11530058E+01 -0.12097E+05
 0.12030058E+01 -0.11941E+05
 0.12530057E+01 -0.11940E+05
 0.13030057E+01 -0.11847E+05
 0.13530059E+01 -0.11875E+05
 0.14030058E+01 -0.12066E+05
 0.14530058E+01 -0.12048E+05
 0.15030057E+01 -0.11933E+05
 0.15530057E+01 -0.11867E+05
 0.16030059E+01 -0.11822E+05
 0.16530058E+01 -0.11868E+05
 0.17030058E+01 -0.12025E+05
 0.17530057E+01 -0.11971E+05
 0.18030057E+01 -0.11900E+05
 0.18530056E+01 -0.11794E+05
 0.19030058E+01 -0.11786E+05
 0.19530058E+01 -0.11915E+05
 0.20030057E+01 -0.11873E+05
 0.20530057E+01 -0.11804E+05
 0.21030059E+01 -0.11665E+05
 0.21530056E+01 -0.11576E+05
 0.22030058E+01 -0.11710E+05
 0.22530055E+01 -0.11787E+05
 0.23030057E+01 -0.11753E+05
 0.23530059E+01 -0.11717E+05
 0.24030056E+01 -0.11564E+05
 0.24530058E+01 -0.11629E+05
 0.25030055E+01 -0.11810E+05
 0.25530057E+01 -0.11844E+05
 0.26030059E+01 -0.11767E+05
 0.26530056E+01 -0.11704E+05
 0.27030058E+01 -0.11704E+05
 0.27530055E+01 -0.11805E+05
 0.28030057E+01 -0.11929E+05
 0.28530059E+01 -0.11948E+05
 0.29030056E+01 -0.11866E+05
 0.29530058E+01 -0.11763E+05
 0.30030055E+01 -0.11835E+05
 0.30530057E+01 -0.11996E+05
 0.31030059E+01 -0.12046E+05
 0.31530056E+01 -0.12001E+05
 0.32030058E+01 -0.11936E+05
 0.32530055E+01 -0.11877E+05
 0.33030057E+01 -0.12004E+05
 0.33530059E+01 -0.12112E+05
 0.34030056E+01 -0.12129E+05
 0.34530058E+01 -0.12053E+05
 0.35030055E+01 -0.11934E+05
 0.35530057E+01 -0.11945E+05
 0.36030054E+01 -0.12045E+05
 0.36530056E+01 -0.12075E+05
 0.37030058E+01 -0.12002E+05
 0.37530055E+01 -0.11927E+05
 0.38030057E+01 -0.11836E+05
 0.38530054E+01 -0.11949E+05
 0.39030056E+01 -0.12056E+05
 0.39530058E+01 -0.12018E+05
 0.40030055E+01 -0.11956E+05
 0.40530057E+01 -0.11795E+05
 0.41030054E+01 -0.11775E+05
 0.41530056E+01 -0.11841E+05
 0.42030058E+01 -0.11939E+05
 0.42530055E+01 -0.11860E+05
 0.43030057E+01 -0.11734E+05
 0.43530054E+01 -0.11812E+05
 0.44030056E+01 -0.11806E+05
 0.44530058E+01 -0.11939E+05
 0.45030055E+01 -0.12009E+05
 0.45530057E+01 -0.11781E+05
 0.46030054E+01 -0.11721E+05
 0.46530056E+01 -0.11804E+05
 0.47030058E+01 -0.11719E+05
 0.47530055E+01 -0.12110E+05
 0.48030057E+01 -0.11672E+05
 0.48530054E+01 -0.12004E+05
 0.49030056E+01 -0.11617E+05
 0.49530058E+01 -0.12027E+05
 0.50030055E+01 -0.11564E+05
 0.50530057E+01 -0.12335E+05
 0.51030054E+01 -0.10584E+05
 0.51530056E+01 -0.98824E+04
 0.52030058E+01 -0.12647E+05
 0.52530055E+01 -0.70365E+04
 0.53030057E+01 -0.13863E+05
 0.53530054E+01 -0.15398E+05
 0.54030056E+01 -0.39014E+04
 0.54530053E+01 -0.21260E+05
 0.55030055E+01 -0.10170E+05
 0.55530057E+01 -0.52085E+04
 0.56030054E+01 -0.26993E+05
 0.56530056E+01 -0.21026E+04
 0.57030053E+01 -0.15751E+05
 0.57530055E+01 -0.20046E+05
 0.58030057E+01  0.86014E+03
 0.58530054E+01 -0.23358E+05
 0.59030056E+01 -0.18251E+04
 0.59530053E+01 -0.10651E+05
 0.60030055E+01 -0.21844E+05
 0.60530052E+01  0.11474E+05
 0.61030054E+01 -0.33638E+05
 0.61530056E+01 -0.19012E+05
 0.62030058E+01  0.70312E+04
 0.62530050E+01 -0.33461E+05
 0.63030052E+01  0.76103E+04
 0.63530054E+01  0.61000E+04
 0.64030056E+01 -0.29692E+05
 0.64530058E+01  0.15817E+05
 0.65030050E+01 -0.28948E+05
 0.65530052E+01 -0.17012E+05
 0.66030054E+01  0.17304E+05
 0.66530056E+01 -0.40686E+05
 0.67030058E+01 -0.11090E+05
 0.67530050E+01 -0.51544E+04
 0.68030052E+01 -0.19180E+05
 0.68530054E+01  0.12941E+05
 0.69030056E+01 -0.17461E+05
 0.69530058E+01 -0.24760E+05
 0.70030050E+01  0.12437E+04
 0.70530052E+01 -0.49249E+05
 0.71030054E+01  0.83725E+04
 0.71530056E+01  0.26576E+05
 0.72030058E+01 -0.46458E+05
 0.72530050E+01  0.35914E+05
 0.73030052E+01 -0.17991E+05
 0.73530054E+01 -0.40757E+05
 0.74030056E+01  0.67710E+05
 0.74530058E+01 -0.33907E+05
 0.75030050E+01 -0.33771E+05
 0.75530052E+01 -0.50212E+05
 0.76030054E+01 -0.48550E+05
 0.76530056E+01  0.16116E+04
 0.77030058E+01 -0.10389E+05
 0.77530050E+01  0.23475E+05
 0.78030052E+01 -0.40138E+05
 0.78530054E+01 -0.47080E+05
 0.79030056E+01  0.28893E+05
 0.79530058E+01  0.46515E+05
 0.80030050E+01 -0.26816E+05
 0.80530052E+01 -0.70038E+05
 0.81030054E+01 -0.12597E+06
 0.81530056E+01 -0.65295E+05
 0.82030058E+01  0.95740E+05
 0.82530050E+01  0.18813E+06
 0.83030052E+01  0.10087E+06
 0.83530054E+01 -0.11271E+06
 0.84030056E+01 -0.42753E+06
 0.84530058E+01  0.99418E+04
 0.85030050E+01  0.25035E+06
 0.85530052E+01  0.10739E+06
 0.86030054E+01  0.24277E+06
 0.86530056E+01 -0.60952E+05
 0.87030058E+01 -0.12900E+06
 0.87530050E+01 -0.17065E+06
 0.88030052E+01 -0.94176E+05
 0.88530054E+01 -0.23896E+05
 0.89030056E+01  0.33911E+05
 0.89530058E+01  0.40659E+05
 0.90030050E+01  0.22379E+05
 0.90530052E+01 -0.61179E+05
 0.91030054E+01 -0.57198E+05
 0.91530056E+01  0.16572E+06
 0.92030048E+01  0.27384E+05
 0.92530050E+01 -0.12328E+06
 0.93030052E+01 -0.21994E+06
 0.93530054E+01 -0.23113E+06
 0.94030056E+01 -0.12210E+06
 0.94530048E+01 -0.58001E+05
 0.95030050E+01  0.10101E+06
 0.95530052E+01  0.18309E+06
 0.96030054E+01  0.32786E+05
 0.96530056E+01 -0.19295E+06
 0.97030048E+01  0.31349E+05
 0.97530050E+01  0.19643E+06
 0.98030052E+01 -0.15468E+05
 0.98530054E+01 -0.53509E+05
 0.99030056E+01 -0.27184E+05
 0.99530048E+01  0.42838E+05
 0.10003005E+02  0.90241E+05
 0.10053005E+02  0.17012E+06
 0.10103005E+02 -0.11742E+06
 0.10153006E+02 -0.29712E+06
 0.10203005E+02 -0.27714E+06
 0.10253005E+02 -0.45589E+06
 0.10303005E+02 -0.33409E+06
 0.10353005E+02 -0.18553E+06
 0.10403006E+02 -0.15205E+06
 0.10453005E+02  0.19776E+06
 0.10503005E+02  0.91091E+06
 0.10553005E+02  0.11205E+07
 0.10603005E+02  0.69896E+06
 0.10653006E+02  0.43813E+06
 0.10703005E+02 -0.11383E+06
 0.10753005E+02 -0.60578E+06
 0.10803005E+02 -0.68467E+06
 0.10853005E+02 -0.58532E+06
 0.10903006E+02 -0.32354E+06
 0.10953005E+02 -0.10139E+06
 0.11003005E+02  0.17481E+06
 0.11053005E+02 -0.10827E+06
 0.11103005E+02 -0.31809E+06
 0.11153006E+02 -0.49840E+05
 0.11203005E+02 -0.56148E+05
 0.11253005E+02  0.22805E+06
 0.11303005E+02  0.67893E+06
 0.11353005E+02  0.54813E+06
 0.11403006E+02  0.33403E+06
 0.11453005E+02  0.27861E+06
 0.11503005E+02 -0.90588E+05
 0.11553005E+02 -0.67978E+06
 0.11603005E+02 -0.63028E+06
 0.11653006E+02 -0.57330E+06
 0.11703005E+02 -0.63196E+06
 0.11753005E+02 -0.16039E+06
 0.11803005E+02  0.35796E+06
 0.11853005E+02  0.56132E+06
 0.11903006E+02  0.40558E+06
 0.11953005E+02  0.29722E+06
 0.12003005E+02  0.17955E+06
 0.12053005E+02 -0.34270E+06
 0.12103005E+02 -0.46051E+06
 0.12153006E+02 -0.22871E+06
 0.12203005E+02 -0.17866E+06
 0.12253005E+02  0.92426E+05
 0.12303005E+02  0.32037E+06
 0.12353005E+02  0.28086E+06
 0.12403006E+02  0.16688E+06
 0.12453005E+02  0.27801E+05
 0.12503005E+02 -0.12644E+06
 0.12553005E+02 -0.16706E+06
 0.12603005E+02 -0.28453E+06
 0.12653005E+02 -0.25746E+06
 0.12703005E+02 -0.38333E+05
 0.12753005E+02  0.22131E+06
 0.12803005E+02  0.23943E+06
 0.12853005E+02  0.26672E+06
 0.12903005E+02  0.14899E+06
 0.12953005E+02 -0.45364E+05
 0.13003005E+02 -0.12626E+06
 0.13053005E+02 -0.18749E+06
 0.13103005E+02 -0.89501E+05
 0.13153005E+02 -0.14119E+06
 0.13203005E+02 -0.38171E+04
 0.13253005E+02  0.38049E+05
 0.13303005E+02 -0.70601E+05
 0.13353005E+02  0.51694E+05
 0.13403005E+02  0.10817E+06
 0.13453005E+02  0.32964E+05
 0.13503005E+02 -0.51910E+05
 0.13553005E+02 -0.11066E+06
 0.13603005E+02 -0.14753E+06
 0.13653005E+02 -0.12237E+06
 0.13703005E+02 -0.30287E+05
 0.13753005E+02  0.20069E+05
 0.13803005E+02  0.20199E+05
 0.13853005E+02 -0.59056E+05
 0.13903005E+02  0.11868E+05
 0.13953005E+02  0.88704E+05
 0.14003005E+02  0.76192E+05
 0.14053005E+02  0.39837E+05
 0.14103004E+02  0.18016E+05
 0.14153006E+02  0.64251E+05
 0.14203005E+02  0.76676E+04
 0.14253004E+02 -0.42380E+05
 0.14303005E+02  0.11586E+05
 0.14353004E+02 -0.42451E+05
 0.14403006E+02 -0.13398E+06
 0.14453005E+02 -0.12302E+06
 0.14503004E+02 -0.99556E+05
 0.14553005E+02  0.10430E+05
 0.14603004E+02  0.21355E+05
 0.14653006E+02  0.39068E+05
 0.14703005E+02  0.13493E+06
 0.14753004E+02  0.93250E+04
 0.14803005E+02 -0.16767E+05
 0.14853004E+02 -0.23640E+05
 0.14903006E+02 -0.11324E+06
 0.14953005E+02 -0.33450E+05
 0.15003004E+02  0.33272E+05
 0.15053005E+02  0.64754E+05
 0.15103004E+02 -0.43888E+04
 0.15153006E+02 -0.30458E+05
 0.15203005E+02  0.78697E+04
 0.15253004E+02 -0.55715E+04
 0.15303005E+02 -0.29285E+05
 0.15353004E+02 -0.10583E+06
 0.15403006E+02 -0.16146E+06
 0.15453005E+02 -0.97962E+05
 0.15503004E+02 -0.14683E+05
 0.15553005E+02  0.20985E+05
 0.15603004E+02  0.80854E+05
 0.15653006E+02  0.78355E+05
 0.15703005E+02  0.24842E+05
 0.15753004E+02  0.59526E+05
 0.15803005E+02  0.44457E+05
 0.15853004E+02 -0.10176E+05
 0.15903006E+02 -0.50375E+05
 0.15953005E+02 -0.93143E+05
 0.16003004E+02 -0.69070E+05
 0.16053005E+02 -0.82740E+05
 0.16103004E+02 -0.19721E+05
 0.16153006E+02  0.10114E+05
 0.16203005E+02  0.13523E+05
 0.16253004E+02  0.65204E+05
 0.16303005E+02  0.96266E+05
 0.16353004E+02  0.48437E+05
 0.16403006E+02 -0.51997E+05
 0.16453005E+02 -0.81365E+05
 0.16503004E+02 -0.84971E+05
 0.16553005E+02 -0.60880E+05
 0.16603004E+02 -0.26221E+05
 0.16653006E+02 -0.44474E+02
 0.16703005E+02  0.17414E+05
 0.16753004E+02 -0.41863E+04
 0.16803005E+02 -0.27055E+05
 0.16853004E+02 -0.25288E+04
 0.16903006E+02  0.10066E+04
 0.16953005E+02  0.66259E+04
 0.17003004E+02  0.28962E+05
 0.17053005E+02  0.53640E+05
 0.17103004E+02  0.49019E+04
 0.17153006E+02 -0.44753E+05
 0.17203005E+02 -0.56056E+05
 0.17253004E+02 -0.52211E+05
 0.17303005E+02 -0.29159E+04
 0.17353004E+02 -0.20068E+05
 0.17403006E+02 -0.26980E+05
 0.17453005E+02 -0.16583E+05
 0.17503004E+02 -0.10995E+05
 0.17553005E+02  0.80249E+04
 0.17603004E+02  0.24851E+05
 0.17653006E+02  0.33293E+05
 0.17703005E+02 -0.17152E+05
 0.17753004E+02 -0.37981E+05
 0.17803005E+02 -0.50047E+05
 0.17853004E+02 -0.49880E+05
 0.17903006E+02 -0.27278E+05
 0.17953005E+02 -0.15990E+05
 0.18003004E+02 -0.74013E+04
 0.18053005E+02  0.33998E+04
 0.18103004E+02  0.22283E+04
 0.18153006E+02 -0.24086E+05
 0.18203005E+02 -0.14194E+05
 0.18253004E+02 -0.26571E+05
 0.18303005E+02 -0.23069E+05
 0.18353004E+02 -0.41830E+04
 0.18403006E+02 -0.25340E+04
 0.18453005E+02 -0.42039E+05
 0.18503004E+02 -0.44018E+05
 0.18553005E+02 -0.12035E+05
 0.18603004E+02  0.96998E+04
 0.18653006E+02  0.19003E+05
 0.18703005E+02 -0.23181E+05
 0.18753004E+02 -0.11193E+05
 0.18803005E+02  0.13776E+04
 0.18853004E+02 -0.54919E+04
 0.18903006E+02 -0.19078E+04
 0.18953005E+02 -0.20135E+05
 0.19003004E+02 -0.16869E+05
 0.19053005E+02  0.10652E+05
 0.19103004E+02  0.23600E+05
 0.19153006E+02  0.25596E+05
 0.19203005E+02  0.17283E+05
 0.19253004E+02  0.10483E+05
 0.19303005E+02 -0.22275E+05
 0.19353004E+02 -0.41630E+05
 0.19403006E+02 -0.50225E+05
 0.19453005E+02 -0.55248E+05
 0.19503004E+02 -0.33498E+05
 0.19553005E+02 -0.36549E+05
 0.19603004E+02 -0.28728E+05
 0.19653006E+02 -0.80892E+04
 0.19703005E+02  0.96047E+03
 0.19753004E+02  0.13164E+05
 0.19803005E+02  0.17748E+05
 0.19853004E+02  0.12761E+05
 0.19903006E+02  0.24165E+05
 0.19953005E+02 -0.82700E+04
 0.20003004E+02 -0.57947E+05
 0.20053005E+02 -0.80202E+05
 0.20103004E+02 -0.64068E+05
 0.20153006E+02  0.43499E+04
 0.20203005E+02  0.34136E+05
 0.20253004E+02  0.35104E+05
 0.20303005E+02 -0.61858E+04
 0.20353004E+02 -0.23563E+05
 0.20403004E+02 -0.13443E+05
 0.20453005E+02 -0.15474E+05
 0.20503004E+02 -0.92201E+04
 0.20553005E+02 -0.35697E+05
 0.20603004E+02 -0.33044E+05
 0.20653004E+02 -0.14523E+05
 0.20703005E+02 -0.14978E+05
 0.20753004E+02 -0.13947E+05
 0.20803005E+02  0.62042E+04
 0.20853004E+02  0.14810E+05
 0.20903004E+02  0.88790E+01
 0.20953005E+02 -0.13266E+05
 0.21003004E+02 -0.28221E+05
 0.21053005E+02 -0.10920E+05
 0.21103004E+02  0.26872E+05
 0.21153004E+02  0.26196E+05
 0.21203005E+02 -0.23609E+05
 0.21253004E+02 -0.55637E+05
 0.21303005E+02 -0.67246E+05
 0.21353004E+02 -0.59802E+05
 0.21403004E+02 -0.34465E+05
 0.21453005E+02  0.12247E+05
 0.21503004E+02  0.39006E+05
 0.21553005E+02  0.12708E+05
 0.21603004E+02  0.90827E+03
 0.21653004E+02 -0.29424E+05
 0.21703005E+02 -0.24127E+05
 0.21753004E+02 -0.96040E+04
 0.21803005E+02  0.15456E+04
 0.21853004E+02 -0.35066E+04
 0.21903004E+02 -0.12592E+05
 0.21953005E+02  0.10589E+04
 0.22003004E+02 -0.10975E+05
 0.22053005E+02 -0.25036E+05
 0.22103004E+02 -0.40812E+05
 0.22153004E+02 -0.37448E+05
 0.22203005E+02 -0.76333E+04
 0.22253004E+02  0.15711E+05
 0.22303005E+02  0.79838E+04
 0.22353004E+02  0.98553E+04
 0.22403004E+02 -0.18725E+05
 0.22453005E+02 -0.31399E+05
 0.22503004E+02 -0.88221E+04
 0.22553005E+02 -0.14261E+05
 0.22603004E+02 -0.22621E+05
 0.22653004E+02 -0.97573E+04
 0.22703005E+02  0.23863E+04
 0.22753004E+02 -0.95421E+04
 0.22803005E+02 -0.12170E+05
 0.22853004E+02 -0.23623E+05
 0.22903004E+02 -0.28697E+05
 0.22953005E+02 -0.22125E+05
 0.23003004E+02 -0.14884E+05
 0.23053005E+02  0.47724E+03
 0.23103004E+02 -0.24354E+04
 0.23153004E+02 -0.52324E+04
 0.23203005E+02  0.36712E+04
 0.23253004E+02  0.24081E+04
 0.23303005E+02 -0.69044E+04
 0.23353004E+02  0.16815E+04
 0.23403004E+02 -0.26368E+05
 0.23453005E+02 -0.51828E+05
 0.23503004E+02 -0.49701E+05
 0.23553005E+02 -0.45681E+05
 0.23603004E+02 -0.11733E+05
 0.23653004E+02 -0.10310E+05
 0.23703005E+02 -0.19266E+05
 0.23753004E+02 -0.67509E+04
 0.23803005E+02  0.11719E+05
 0.23853004E+02  0.22992E+05
 0.23903004E+02  0.34781E+05
 0.23953005E+02  0.89522E+04
 0.24003004E+02 -0.15718E+05
 0.24053005E+02 -0.86861E+04
 0.24103004E+02 -0.16496E+05
 0.24153004E+02 -0.19274E+05
 0.24203005E+02 -0.20267E+05
 0.24253004E+02 -0.18096E+04
 0.24303005E+02  0.46209E+04
 0.24353004E+02 -0.96723E+04
 0.24403004E+02 -0.18518E+05
 0.24453005E+02 -0.24269E+05
 0.24503004E+02 -0.33792E+05
 0.24553005E+02 -0.22377E+05
 0.24603004E+02 -0.20614E+04
 0.24653004E+02 -0.14789E+05
 0.24703005E+02 -0.21213E+05
 0.24753004E+02 -0.23280E+05
 0.24803005E+02 -0.18580E+05
 0.24853004E+02 -0.42326E+04
 0.24903004E+02 -0.11976E+05
 0.24953005E+02 -0.80971E+04
 0.25003004E+02 -0.13253E+05
 0.25053005E+02 -0.19485E+05
 0.25103004E+02 -0.23627E+05
 0.25153004E+02 -0.37233E+05
 0.25203005E+02 -0.29229E+05
 0.25253004E+02 -0.19934E+05
 0.25303005E+02  0.45582E+04
 0.25353004E+02  0.24037E+05
 0.25403004E+02  0.21831E+05
 0.25453005E+02 -0.38932E+04
 0.25503004E+02 -0.96423E+04
 0.25553005E+02 -0.13350E+05
 0.25603004E+02 -0.22542E+05
 0.25653004E+02 -0.27409E+05
 0.25703005E+02 -0.40068E+05
 0.25753004E+02 -0.28718E+05
 0.25803005E+02 -0.20021E+05
 0.25853004E+02 -0.16672E+04
 0.25903004E+02  0.14573E+05
 0.25953005E+02  0.24972E+05
 0.26003004E+02  0.28309E+05
 0.26053005E+02  0.61459E+04
 0.26103004E+02 -0.24414E+05
 0.26153004E+02 -0.41809E+05
 0.26203005E+02 -0.45781E+05
 0.26253004E+02 -0.34443E+05
 0.26303005E+02 -0.67059E+04
 0.26353004E+02  0.15862E+05
 0.26403004E+02  0.23784E+05
 0.26453005E+02  0.11084E+05
 0.26503004E+02 -0.15312E+05
 0.26553005E+02 -0.34743E+05
 0.26603004E+02 -0.33605E+05
 0.26653004E+02 -0.34302E+05
 0.26703005E+02 -0.33212E+05
 0.26753004E+02 -0.11351E+05
 0.26803005E+02 -0.50243E+03
 0.26853004E+02  0.58791E+04
 0.26903004E+02  0.32416E+04
 0.26953005E+02 -0.12337E+05
 0.27003004E+02 -0.28146E+05
 0.27053003E+02 -0.29387E+05
 0.27103004E+02 -0.12299E+05
 0.27153004E+02 -0.16251E+04
 0.27203005E+02 -0.13964E+04
 0.27253004E+02 -0.19186E+05
 0.27303003E+02 -0.35196E+05
 0.27353004E+02 -0.39375E+05
 0.27403004E+02 -0.35951E+05
 0.27453005E+02 -0.15984E+05
 0.27503004E+02 -0.55103E+04
 0.27553003E+02  0.45245E+04
 0.27603004E+02  0.60023E+04
 0.27653004E+02 -0.10946E+05
 0.27703005E+02 -0.11085E+05
 0.27753004E+02  0.50778E+04
 0.27803003E+02  0.15670E+05
 0.27853004E+02  0.94317E+04
 0.27903004E+02 -0.23426E+04
 0.27953005E+02 -0.81414E+04
 0.28003004E+02 -0.99325E+04
 0.28053003E+02 -0.14942E+05
 0.28103004E+02 -0.21803E+05
 0.28153004E+02 -0.27619E+05
 0.28203005E+02 -0.28638E+05
 0.28253004E+02 -0.18569E+05
 0.28303003E+02 -0.65229E+04
 0.28353004E+02 -0.19590E+04
 0.28403004E+02 -0.19201E+04
 0.28453005E+02 -0.14917E+05
 0.28503004E+02 -0.21529E+05
 0.28553003E+02 -0.21604E+05
 0.28603004E+02 -0.27232E+05
 0.28653004E+02 -0.23730E+05
 0.28703005E+02 -0.19597E+05
 0.28753004E+02 -0.22887E+05
 0.28803003E+02 -0.17460E+05
 0.28853004E+02 -0.13114E+05
 0.28903004E+02 -0.11141E+05
 0.28953005E+02 -0.54964E+03
 0.29003004E+02 -0.52360E+03
 0.29053003E+02 -0.30000E+04
 0.29103004E+02 -0.10407E+05
 0.29153004E+02 -0.24158E+05
 0.29203005E+02 -0.20612E+05
 0.29253004E+02 -0.10852E+05
 0.29303003E+02 -0.29755E+04
 0.29353004E+02  0.12031E+04
 0.29403004E+02 -0.28845E+04
 0.29453005E+02 -0.76700E+04
 0.29503004E+02 -0.91700E+04
 0.29553003E+02  0.15071E+04
 0.29603004E+02  0.95192E+04
 0.29653004E+02  0.74927E+04
 0.29703005E+02 -0.12858E+04
 0.29753004E+02 -0.11082E+05
 0.29803003E+02 -0.17387E+05
 0.29853004E+02 -0.19354E+05
 0.29903004E+02 -0.18037E+05
 0.29953005E+02 -0.19400E+05
 0.30003004E+02 -0.20480E+05
 0.30053005E+02 -0.25872E+05
 0.30103004E+02 -0.29072E+05
 0.30153004E+02 -0.25746E+05
 0.30203003E+02 -0.26176E+05
 0.30253002E+02 -0.21798E+05
 0.30303005E+02 -0.10615E+05
 0.30353004E+02 -0.39650E+04
 0.30403004E+02 -0.83521E+03
 0.30453003E+02 -0.53166E+04
 0.30503002E+02 -0.20008E+05
 0.30553005E+02 -0.25159E+05
 0.30603004E+02 -0.22097E+05
 0.30653004E+02 -0.16507E+05
 0.30703003E+02 -0.27795E+04
 0.30753002E+02 -0.15022E+04
 0.30803005E+02 -0.49570E+04
 0.30853004E+02 -0.14316E+05
 0.30903004E+02 -0.19496E+05
 0.30953003E+02 -0.10827E+05
 0.31003002E+02 -0.66965E+04
 0.31053005E+02 -0.75323E+04
 0.31103004E+02 -0.34245E+04
 0.31153004E+02  0.34916E+03
 0.31203003E+02 -0.42643E+02
 0.31253002E+02  0.33478E+04
 0.31303005E+02 -0.28398E+04
 0.31353004E+02 -0.16478E+05
 0.31403004E+02 -0.27263E+05
 0.31453003E+02 -0.29301E+05
 0.31503002E+02 -0.28105E+05
 0.31553005E+02 -0.27990E+05
 0.31603004E+02 -0.25322E+05
 0.31653004E+02 -0.18374E+05
 0.31703003E+02 -0.40785E+04
 0.31753002E+02  0.97052E+04
 0.31803005E+02  0.11835E+05
 0.31853004E+02  0.47035E+04
 0.31903004E+02 -0.44737E+04
 0.31953003E+02 -0.14272E+05
 0.32003002E+02 -0.18190E+05
 0.32053005E+02 -0.21850E+05
 0.32103004E+02 -0.25768E+05
 0.32153004E+02 -0.29199E+05
 0.32203003E+02 -0.25924E+05
 0.32253002E+02 -0.16737E+05
 0.32303005E+02 -0.10379E+04
 0.32353004E+02  0.16216E+05
 0.32403004E+02  0.18099E+05
 0.32453003E+02  0.14362E+05
 0.32503002E+02 -0.30024E+04
 0.32553005E+02 -0.18802E+05
 0.32603004E+02 -0.26448E+05
 0.32653004E+02 -0.31522E+05
 0.32703003E+02 -0.28584E+05
 0.32753002E+02 -0.21227E+05
 0.32803005E+02 -0.18275E+05
 0.32853004E+02 -0.15210E+05
 0.32903004E+02 -0.13149E+05
 0.32953003E+02 -0.12981E+05
 0.33003002E+02 -0.13109E+05
 0.33053005E+02 -0.12831E+05
 0.33103004E+02 -0.92176E+04
 0.33153004E+02 -0.14238E+05
 0.33203003E+02 -0.17785E+05
 0.33253002E+02 -0.14554E+05
 0.33303005E+02 -0.17507E+05
 0.33353004E+02 -0.18973E+05
 0.33403004E+02 -0.11389E+05
 0.33453003E+02 -0.81931E+04
 0.33503002E+02 -0.77495E+04
 0.33553005E+02 -0.94440E+04
 0.33603004E+02 -0.67937E+04
 0.33653004E+02 -0.43202E+04
 0.33703003E+02 -0.17762E+04
 0.33753002E+02 -0.18734E+04
 0.33803005E+02 -0.11755E+05
 0.33853004E+02 -0.14586E+05
 0.33903004E+02 -0.15406E+05
 0.33953003E+02 -0.21921E+05
 0.34003002E+02 -0.23260E+05
 0.34053005E+02 -0.16647E+05
 0.34103004E+02 -0.99214E+04
 0.34153004E+02 -0.37438E+04
 0.34203003E+02 -0.34062E+04
 0.34253002E+02 -0.93937E+04
 0.34303005E+02 -0.18086E+05
 0.34353004E+02 -0.25563E+05
 0.34403004E+02 -0.23928E+05
 0.34453003E+02 -0.12753E+05
 0.34503002E+02 -0.18486E+04
 0.34553005E+02  0.25615E+04
 0.34603004E+02  0.25032E+04
 0.34653004E+02 -0.43895E+04
 0.34703003E+02 -0.63776E+04
 0.34753002E+02 -0.38622E+04
 0.34803005E+02 -0.31053E+04
 0.34853004E+02 -0.49862E+04
 0.34903004E+02 -0.12803E+05
 0.34953003E+02 -0.17989E+05
 0.35003002E+02 -0.21746E+05
 0.35053005E+02 -0.27529E+05
 0.35103004E+02 -0.28528E+05
 0.35153004E+02 -0.23120E+05
 0.35203003E+02 -0.15641E+05
 0.35253002E+02 -0.15603E+05
 0.35303005E+02 -0.16220E+05
 0.35353004E+02 -0.11646E+05
 0.35403004E+02 -0.11190E+05
 0.35453003E+02 -0.11000E+05
 0.35503002E+02 -0.81649E+04
 0.35553005E+02 -0.54943E+04
 0.35603004E+02 -0.93113E+04
 0.35653004E+02 -0.16084E+05
 0.35703003E+02 -0.18021E+05
 0.35753002E+02 -0.12173E+05
 0.35803005E+02 -0.44500E+04
 0.35853004E+02 -0.21302E+04
 0.35903004E+02 -0.40017E+04
 0.35953003E+02 -0.92873E+04
 0.36003002E+02 -0.11880E+05
 0.36053005E+02 -0.14709E+05
 0.36103004E+02 -0.17766E+05
 0.36153004E+02 -0.16561E+05
 0.36203003E+02 -0.17617E+05
 0.36253002E+02 -0.19821E+05
 0.36303005E+02 -0.17099E+05
 0.36353004E+02 -0.11938E+05
 0.36403004E+02 -0.69126E+04
 0.36453003E+02 -0.61322E+04
 0.36503002E+02 -0.43550E+04
 0.36553005E+02 -0.22769E+04
 0.36603004E+02 -0.16089E+04
 0.36653004E+02 -0.29454E+04
 0.36703003E+02 -0.96559E+04
 0.36753002E+02 -0.13915E+05
 0.36803005E+02 -0.22011E+05
 0.36853004E+02 -0.23176E+05
 0.36903004E+02 -0.15059E+05
 0.36953003E+02 -0.15624E+05
 0.37003002E+02 -0.18590E+05
 0.37053005E+02 -0.19427E+05
 0.37103004E+02 -0.18785E+05
 0.37153004E+02 -0.10348E+05
 0.37203003E+02 -0.36271E+04
 0.37253002E+02 -0.62880E+04
 0.37303005E+02 -0.76704E+04
 0.37353004E+02 -0.36818E+04
 0.37403004E+02 -0.32701E+04
 0.37453003E+02 -0.90543E+04
 0.37503002E+02 -0.14078E+05
 0.37553005E+02 -0.19931E+05
 0.37603004E+02 -0.15855E+05
 0.37653004E+02 -0.14032E+05
 0.37703003E+02 -0.11090E+05
 0.37753002E+02 -0.96511E+04
 0.37803005E+02 -0.16678E+05
 0.37853004E+02 -0.17952E+05
 0.37903004E+02 -0.17005E+05
 0.37953003E+02 -0.13355E+05
 0.38003002E+02 -0.93315E+04
 0.38053005E+02 -0.34563E+04
 0.38103004E+02 -0.42920E+04
 0.38153004E+02 -0.89915E+04
 0.38203003E+02 -0.15393E+05
 0.38253002E+02 -0.16970E+05
 0.38303005E+02 -0.19498E+05
 0.38353004E+02 -0.24017E+05
 0.38403004E+02 -0.22214E+05
 0.38453003E+02 -0.19266E+05
 0.38503002E+02 -0.15644E+05
 0.38553005E+02 -0.14455E+05
 0.38603004E+02 -0.16904E+05
 0.38653004E+02 -0.16231E+05
 0.38703003E+02 -0.11568E+05
 0.38753002E+02 -0.71613E+04
 0.38803005E+02 -0.62044E+04
 0.38853004E+02 -0.65346E+04
 0.38903004E+02 -0.43143E+04
 0.38953003E+02 -0.58655E+04
 0.39003002E+02 -0.78647E+04
 0.39053005E+02 -0.11088E+05
 0.39103004E+02 -0.12374E+05
 0.39153004E+02 -0.11086E+05
 0.39203003E+02 -0.14716E+05
 0.39253002E+02 -0.18296E+05
 0.39303005E+02 -0.15304E+05
 0.39353004E+02 -0.12022E+05
 0.39403004E+02 -0.91686E+04
 0.39453003E+02 -0.61654E+04
 0.39503002E+02 -0.52613E+04
 0.39553005E+02 -0.89237E+03
 0.39603004E+02  0.94917E+03
 0.39653004E+02 -0.13347E+04
 0.39703003E+02 -0.41325E+04
 0.39753002E+02 -0.86165E+04
 0.39803005E+02 -0.99308E+04
 0.39853004E+02 -0.11460E+05
 0.39903004E+02 -0.14843E+05
 0.39953003E+02 -0.17029E+05
 0.40003002E+02 -0.17136E+05
 0.40053005E+02 -0.15780E+05
 0.40103004E+02 -0.13800E+05
 0.40153004E+02 -0.10989E+05
 0.40203003E+02 -0.10889E+05
 0.40253002E+02 -0.12220E+05
 0.40303005E+02 -0.13953E+05
 0.40353004E+02 -0.16260E+05
 0.40403004E+02 -0.18096E+05
 0.40453003E+02 -0.17291E+05
 0.40503002E+02 -0.16341E+05
 0.40553005E+02 -0.15883E+05
 0.40603004E+02 -0.14600E+05
 0.40653004E+02 -0.13751E+05
 0.40703003E+02 -0.10079E+05
 0.40753002E+02 -0.79847E+04
 0.40803005E+02 -0.76984E+04
 0.40853004E+02 -0.83712E+04
 0.40903004E+02 -0.12522E+05
 0.40953003E+02 -0.12380E+05
 0.41003002E+02 -0.13285E+05
 0.41053005E+02 -0.17582E+05
 0.41103004E+02 -0.17804E+05
 0.41153004E+02 -0.17123E+05
 0.41203003E+02 -0.14250E+05
 0.41253002E+02 -0.11083E+05
 0.41303005E+02 -0.10702E+05
 0.41353004E+02 -0.12654E+05
 0.41403004E+02 -0.14949E+05
 0.41453003E+02 -0.15490E+05
 0.41503002E+02 -0.16607E+05
 0.41553005E+02 -0.11773E+05
 0.41603004E+02 -0.90046E+04
 0.41653004E+02 -0.81796E+04
 0.41703003E+02 -0.64239E+04
 0.41753002E+02 -0.66063E+04
 0.41803005E+02 -0.44149E+04
 0.41853004E+02 -0.48480E+04
 0.41903004E+02 -0.76051E+04
 0.41953003E+02 -0.10670E+05
 0.42003002E+02 -0.15273E+05
 0.42053005E+02 -0.20613E+05
 0.42103004E+02 -0.21153E+05
 0.42153004E+02 -0.17942E+05
 0.42203003E+02 -0.11643E+05
 0.42253002E+02 -0.60985E+04
 0.42303005E+02 -0.41170E+04
 0.42353004E+02 -0.42958E+04
 0.42403004E+02 -0.60821E+04
 0.42453003E+02 -0.11582E+05
 0.42503002E+02 -0.16163E+05
 0.42553005E+02 -0.17232E+05
 0.42603004E+02 -0.16195E+05
 0.42653004E+02 -0.12925E+05
 0.42703003E+02 -0.11877E+05
 0.42753002E+02 -0.14167E+05
 0.42803001E+02 -0.14743E+05
 0.42853004E+02 -0.12561E+05
 0.42903004E+02 -0.11994E+05
 0.42953003E+02 -0.12906E+05
 0.43003002E+02 -0.16956E+05
 0.43053001E+02 -0.18552E+05
 0.43103004E+02 -0.15637E+05
 0.43153004E+02 -0.14274E+05
 0.43203003E+02 -0.12993E+05
 0.43253002E+02 -0.82477E+04
 0.43303001E+02 -0.71930E+04
 0.43353004E+02 -0.87516E+04
 0.43403004E+02 -0.10892E+05
 0.43453003E+02 -0.14650E+05
 0.43503002E+02 -0.13627E+05
 0.43553001E+02 -0.11772E+05
 0.43603004E+02 -0.99019E+04
 0.43653004E+02 -0.10513E+05
 0.43703003E+02 -0.12422E+05
 0.43753002E+02 -0.12343E+05
 0.43803001E+02 -0.14228E+05
 0.43853004E+02 -0.13931E+05
 0.43903004E+02 -0.11385E+05
 0.43953003E+02 -0.91827E+04
 0.44003002E+02 -0.76792E+04
 0.44053001E+02 -0.79885E+04
 0.44103004E+02 -0.11445E+05
 0.44153004E+02 -0.13747E+05
 0.44203003E+02 -0.12699E+05
 0.44253002E+02 -0.11261E+05
 0.44303001E+02 -0.11071E+05
 0.44353004E+02 -0.12659E+05
 0.44403004E+02 -0.11957E+05
 0.44453003E+02 -0.82720E+04
 0.44503002E+02 -0.63495E+04
 0.44553001E+02 -0.90962E+04
 0.44603004E+02 -0.13241E+05
 0.44653004E+02 -0.15378E+05
 0.44703003E+02 -0.13817E+05
 0.44753002E+02 -0.10818E+05
 0.44803001E+02 -0.10060E+05
 0.44853004E+02 -0.12189E+05
 0.44903004E+02 -0.13939E+05
 0.44953003E+02 -0.14032E+05
 0.45003002E+02 -0.13413E+05
 0.45053001E+02 -0.11749E+05
 0.45103004E+02 -0.81200E+04
 0.45153004E+02 -0.58177E+04
 0.45203003E+02 -0.71172E+04
 0.45253002E+02 -0.78628E+04
 0.45303001E+02 -0.11543E+05
 0.45353004E+02 -0.14858E+05
 0.45403004E+02 -0.16828E+05
 0.45453003E+02 -0.17665E+05
 0.45503002E+02 -0.17340E+05
 0.45553001E+02 -0.15937E+05
 0.45603004E+02 -0.14469E+05
 0.45653004E+02 -0.14450E+05
 0.45703003E+02 -0.13604E+05
 0.45753002E+02 -0.13569E+05
 0.45803001E+02 -0.11655E+05
 0.45853004E+02 -0.91370E+04
 0.45903004E+02 -0.63647E+04
 0.45953003E+02 -0.59126E+04
 0.46003002E+02 -0.77852E+04
 0.46053001E+02 -0.94640E+04
 0.46103004E+02 -0.13125E+05
 0.46153004E+02 -0.15778E+05
 0.46203003E+02 -0.16619E+05
 0.46253002E+02 -0.15652E+05
 0.46303001E+02 -0.14565E+05
 0.46353004E+02 -0.14628E+05
 0.46403004E+02 -0.13946E+05
 0.46453003E+02 -0.14184E+05
 0.46503002E+02 -0.13089E+05
 0.46553001E+02 -0.12127E+05
 0.46603004E+02 -0.11233E+05
 0.46653004E+02 -0.11331E+05
 0.46703003E+02 -0.11952E+05
 0.46753002E+02 -0.91051E+04
 0.46803001E+02 -0.93620E+04
 0.46853004E+02 -0.10763E+05
 0.46903004E+02 -0.12275E+05
 0.46953003E+02 -0.14177E+05
 0.47003002E+02 -0.12961E+05
 0.47053001E+02 -0.11013E+05
 0.47103004E+02 -0.11030E+05
 0.47153004E+02 -0.12146E+05
 0.47203003E+02 -0.13493E+05
 0.47253002E+02 -0.15004E+05
 0.47303001E+02 -0.14597E+05
 0.47353004E+02 -0.12857E+05
 0.47403004E+02 -0.10794E+05
 0.47453003E+02 -0.98400E+04
 0.47503002E+02 -0.96691E+04
 0.47553001E+02 -0.11893E+05
 0.47603004E+02 -0.14137E+05
 0.47653004E+02 -0.13817E+05
 0.47703003E+02 -0.13368E+05
 0.47753002E+02 -0.11275E+05
 0.47803001E+02 -0.10724E+05
 0.47853004E+02 -0.13261E+05
 0.47903004E+02 -0.14417E+05
 0.47953003E+02 -0.13746E+05
 0.48003002E+02 -0.12804E+05
 0.48053001E+02 -0.12187E+05
 0.48103004E+02 -0.11793E+05
 0.48153004E+02 -0.12511E+05
 0.48203003E+02 -0.14226E+05
 0.48253002E+02 -0.15633E+05
 0.48303001E+02 -0.14412E+05
 0.48353004E+02 -0.11206E+05
 0.48403004E+02 -0.65575E+04
 0.48453003E+02 -0.24175E+04
 0.48503002E+02 -0.49236E+04
 0.48553001E+02 -0.10232E+05
 0.48603004E+02 -0.13898E+05
 0.48653004E+02 -0.15527E+05
 0.48703003E+02 -0.13971E+05
 0.48753002E+02 -0.96432E+04
 0.48803001E+02 -0.64099E+04
 0.48853004E+02 -0.54330E+04
 0.48903004E+02 -0.62136E+04
 0.48953003E+02 -0.87444E+04
 0.49003002E+02 -0.10790E+05
 0.49053001E+02 -0.11515E+05
 0.49103004E+02 -0.11274E+05
 0.49153004E+02 -0.12403E+05
 0.49203003E+02 -0.13469E+05
 0.49253002E+02 -0.14172E+05
 0.49303001E+02 -0.14367E+05
 0.49353004E+02 -0.12794E+05
 0.49403004E+02 -0.12652E+05
 0.49453003E+02 -0.13023E+05
 0.49503002E+02 -0.13422E+05
 0.49553001E+02 -0.12848E+05
 0.49603004E+02 -0.12374E+05
 0.49653004E+02 -0.13658E+05
 0.49703003E+02 -0.15314E+05
 0.49753002E+02 -0.16430E+05
 0.49803001E+02 -0.16562E+05
 0.49853004E+02 -0.17409E+05
 0.49903004E+02 -0.17689E+05
 0.49953003E+02 -0.16116E+05
 0.50003002E+02 -0.12840E+05
 0.50053001E+02 -0.92728E+04
 0.50103004E+02 -0.84456E+04
 0.50153004E+02 -0.92661E+04
 0.50203003E+02 -0.11021E+05
 0.50253002E+02 -0.12409E+05
 0.50303001E+02 -0.11526E+05
 0.50353004E+02 -0.10393E+05
 0.50403004E+02 -0.10633E+05
 0.50453003E+02 -0.11249E+05
 0.50503002E+02 -0.10618E+05
 0.50553001E+02 -0.83310E+04
 0.50603004E+02 -0.66886E+04
 0.50653004E+02 -0.77794E+04
 0.50703003E+02 -0.92301E+04
 0.50753002E+02 -0.10939E+05
 0.50803001E+02 -0.11126E+05
 0.50853004E+02 -0.11261E+05
 0.50903004E+02 -0.13138E+05
 0.50953003E+02 -0.14861E+05
 0.51003002E+02 -0.15756E+05
 0.51053001E+02 -0.15355E+05
 0.51103004E+02 -0.15110E+05
 0.51153004E+02 -0.16508E+05
 0.51203003E+02 -0.16226E+05
 0.51253002E+02 -0.13378E+05
 0.51303001E+02 -0.10375E+05
 0.51353004E+02 -0.68802E+04
 0.51403004E+02 -0.53706E+04
 0.51453003E+02 -0.74309E+04
 0.51503002E+02 -0.94843E+04
 0.51553001E+02 -0.11263E+05
 0.51603004E+02 -0.14237E+05
 0.51653004E+02 -0.15846E+05
 0.51703003E+02 -0.17689E+05
 0.51753002E+02 -0.16768E+05
 0.51803001E+02 -0.13567E+05
 0.51853004E+02 -0.12223E+05
 0.51903004E+02 -0.10016E+05
 0.51953003E+02 -0.94185E+04
 0.52003002E+02 -0.10006E+05
 0.52053001E+02 -0.98797E+04
 0.52103004E+02 -0.11236E+05
 0.52153004E+02 -0.13263E+05
 0.52203003E+02 -0.14469E+05
 0.52253002E+02 -0.14746E+05
 0.52303001E+02 -0.14134E+05
 0.52353004E+02 -0.13801E+05
 0.52403004E+02 -0.14457E+05
 0.52453003E+02 -0.13804E+05
 0.52503002E+02 -0.12824E+05
 0.52553001E+02 -0.95964E+04
 0.52603004E+02 -0.56275E+04
 0.52653004E+02 -0.59180E+04
 0.52703003E+02 -0.71253E+04
 0.52753002E+02 -0.80320E+04
 0.52803001E+02 -0.10226E+05
 0.52853004E+02 -0.11905E+05
 0.52903004E+02 -0.12263E+05
 0.52953003E+02 -0.13244E+05
 0.53003002E+02 -0.12395E+05
 0.53053001E+02 -0.11603E+05
 0.53103004E+02 -0.11924E+05
 0.53153004E+02 -0.11407E+05
 0.53203003E+02 -0.10192E+05
 0.53253002E+02 -0.92616E+04
 0.53303001E+02 -0.97996E+04
 0.53353004E+02 -0.10047E+05
 0.53403004E+02 -0.10026E+05
 0.53453003E+02 -0.99313E+04
 0.53503002E+02 -0.10491E+05
 0.53553001E+02 -0.12179E+05
 0.53603004E+02 -0.14792E+05
 0.53653004E+02 -0.16823E+05
 0.53703003E+02 -0.17435E+05
 0.53753002E+02 -0.17755E+05
 0.53803001E+02 -0.17261E+05
 0.53853004E+02 -0.16467E+05
 0.53903004E+02 -0.16155E+05
 0.53953003E+02 -0.16227E+05
 0.54003002E+02 -0.16204E+05
 0.54053001E+02 -0.15851E+05
 0.54103004E+02 -0.15593E+05
 0.54153004E+02 -0.14013E+05
 0.54203003E+02 -0.12322E+05
 0.54253002E+02 -0.10737E+05
 0.54303001E+02 -0.97694E+04
 0.54353004E+02 -0.89827E+04
 0.54403004E+02 -0.87268E+04
 0.54453003E+02 -0.98274E+04
 0.54503002E+02 -0.10785E+05
 0.54553001E+02 -0.13120E+05
 0.54603004E+02 -0.13757E+05
 0.54653004E+02 -0.12417E+05
 0.54703003E+02 -0.11642E+05
 0.54753002E+02 -0.11005E+05
 0.54803001E+02 -0.97977E+04
 0.54853004E+02 -0.99674E+04
 0.54903004E+02 -0.11491E+05
 0.54953003E+02 -0.11271E+05
 0.55003002E+02 -0.10800E+05
 0.55053001E+02 -0.10182E+05
 0.55103004E+02 -0.89607E+04
 0.55153004E+02 -0.86129E+04
 0.55203003E+02 -0.85970E+04
 0.55253002E+02 -0.85309E+04
 0.55303001E+02 -0.95301E+04
 0.55353004E+02 -0.10184E+05
 0.55403004E+02 -0.99614E+04
 0.55453003E+02 -0.94223E+04
 0.55503002E+02 -0.86702E+04
 0.55553001E+02 -0.95388E+04
 0.55603004E+02 -0.11413E+05
 0.55653004E+02 -0.13710E+05
 0.55703003E+02 -0.15107E+05
 0.55753002E+02 -0.14313E+05
 0.55803001E+02 -0.13393E+05
 0.55853001E+02 -0.15124E+05
 0.55903004E+02 -0.17390E+05
 0.55953003E+02 -0.19225E+05
 0.56003002E+02 -0.20503E+05
 0.56053001E+02 -0.18214E+05
 0.56103001E+02 -0.15514E+05
 0.56153004E+02 -0.13544E+05
 0.56203003E+02 -0.12723E+05
 0.56253002E+02 -0.13855E+05
 0.56303001E+02 -0.15689E+05
 0.56353001E+02 -0.16013E+05
 0.56403004E+02 -0.13844E+05
 0.56453003E+02 -0.11463E+05
 0.56503002E+02 -0.10110E+05
 0.56553001E+02 -0.99251E+04
 0.56603001E+02 -0.10556E+05
 0.56653004E+02 -0.10823E+05
 0.56703003E+02 -0.96170E+04
 0.56753002E+02 -0.75208E+04
 0.56803001E+02 -0.52848E+04
 0.56853001E+02 -0.57971E+04
 0.56903004E+02 -0.83465E+04
 0.56953003E+02 -0.10961E+05
 0.57003002E+02 -0.12702E+05
 0.57053001E+02 -0.12092E+05
 0.57103001E+02 -0.10526E+05
 0.57153004E+02 -0.89972E+04
 0.57203003E+02 -0.84746E+04
 0.57253002E+02 -0.87050E+04
 0.57303001E+02 -0.97717E+04
 0.57353001E+02 -0.11797E+05
 0.57403004E+02 -0.12754E+05
 0.57453003E+02 -0.12594E+05
 0.57503002E+02 -0.12448E+05
 0.57553001E+02 -0.13129E+05
 0.57603001E+02 -0.13734E+05
 0.57653004E+02 -0.14392E+05
 0.57703003E+02 -0.14805E+05
 0.57753002E+02 -0.14508E+05
 0.57803001E+02 -0.14693E+05
 0.57853001E+02 -0.15069E+05
 0.57903004E+02 -0.15954E+05
 0.57953003E+02 -0.15824E+05
 0.58003002E+02 -0.14898E+05
 0.58053001E+02 -0.14185E+05
 0.58103001E+02 -0.12167E+05
 0.58153004E+02 -0.10346E+05
 0.58203003E+02 -0.10783E+05
 0.58253002E+02 -0.11038E+05
 0.58303001E+02 -0.11040E+05
 0.58353001E+02 -0.10645E+05
 0.58403004E+02 -0.10188E+05
 0.58453003E+02 -0.10987E+05
 0.58503002E+02 -0.11707E+05
 0.58553001E+02 -0.11703E+05
 0.58603001E+02 -0.10681E+05
 0.58653004E+02 -0.92455E+04
 0.58703003E+02 -0.81997E+04
 0.58753002E+02 -0.76036E+04
 0.58803001E+02 -0.78167E+04
 0.58853001E+02 -0.96251E+04
 0.58903004E+02 -0.11394E+05
 0.58953003E+02 -0.12576E+05
 0.59003002E+02 -0.13002E+05
 0.59053001E+02 -0.12374E+05
 0.59103001E+02 -0.12054E+05
 0.59153004E+02 -0.12528E+05
 0.59203003E+02 -0.13082E+05
 0.59253002E+02 -0.13713E+05
 0.59303001E+02 -0.14347E+05
 0.59353001E+02 -0.14549E+05
 0.59403004E+02 -0.13568E+05
 0.59453003E+02 -0.11939E+05
 0.59503002E+02 -0.10853E+05
 0.59553001E+02 -0.10488E+05
 0.59603001E+02 -0.11327E+05
 0.59653004E+02 -0.12738E+05
 0.59703003E+02 -0.13545E+05
 0.59753002E+02 -0.12981E+05
 0.59803001E+02 -0.12404E+05
 0.59853001E+02 -0.12317E+05
 0.59903004E+02 -0.12113E+05
 0.59953003E+02 -0.12734E+05
 0.60003002E+02 -0.13647E+05
 0.60053001E+02 -0.13266E+05
 0.60103001E+02 -0.12367E+05
 0.60153004E+02 -0.11606E+05
 0.60203003E+02 -0.11424E+05
 0.60253002E+02 -0.12211E+05
 0.60303001E+02 -0.12353E+05
 0.60353001E+02 -0.12432E+05
 0.60403004E+02 -0.12025E+05
 0.60453003E+02 -0.10607E+05
 0.60503002E+02 -0.10114E+05
 0.60553001E+02 -0.10224E+05
 0.60603001E+02 -0.10996E+05
 0.60653004E+02 -0.12004E+05
 0.60703003E+02 -0.12100E+05
 0.60753002E+02 -0.12243E+05
 0.60803001E+02 -0.12007E+05
 0.60853001E+02 -0.11683E+05
 0.60903004E+02 -0.11593E+05
 0.60953003E+02 -0.11297E+05
 0.61003002E+02 -0.11941E+05
 0.61053001E+02 -0.12874E+05
 0.61103001E+02 -0.13356E+05
 0.61153004E+02 -0.13138E+05
 0.61203003E+02 -0.12308E+05
 0.61253002E+02 -0.11551E+05
 0.61303001E+02 -0.11423E+05
 0.61353001E+02 -0.11621E+05
 0.61403004E+02 -0.12033E+05
 0.61453003E+02 -0.12547E+05
 0.61503002E+02 -0.12560E+05
 0.61553001E+02 -0.12235E+05
 0.61603001E+02 -0.11839E+05
 0.61653004E+02 -0.11539E+05
 0.61703003E+02 -0.11309E+05
 0.61753002E+02 -0.11049E+05
 0.61803001E+02 -0.10687E+05
 0.61853001E+02 -0.10300E+05
 0.61903004E+02 -0.10661E+05
 0.61953003E+02 -0.11914E+05
 0.62003002E+02 -0.12100E+05
 0.62053001E+02 -0.10854E+05
 0.62103004E+02 -0.10192E+05
 0.62153000E+02 -0.10730E+05
 0.62203003E+02 -0.11820E+05
 0.62252998E+02 -0.13172E+05
 0.62303001E+02 -0.14415E+05
 0.62353004E+02 -0.15151E+05
 0.62403000E+02 -0.15281E+05
 0.62453003E+02 -0.14956E+05
 0.62502998E+02 -0.14823E+05
 0.62553001E+02 -0.14991E+05
 0.62603004E+02 -0.14426E+05
 0.62653000E+02 -0.13891E+05
 0.62703003E+02 -0.13457E+05
 0.62752998E+02 -0.12360E+05
 0.62803001E+02 -0.12015E+05
 0.62853004E+02 -0.11989E+05
 0.62903000E+02 -0.11163E+05
 0.62953003E+02 -0.10164E+05
 0.63002998E+02 -0.91929E+04
 0.63053001E+02 -0.93372E+04
 0.63103004E+02 -0.10064E+05
 0.63153000E+02 -0.11147E+05
 0.63203003E+02 -0.12569E+05
 0.63252998E+02 -0.12877E+05
 0.63303001E+02 -0.12474E+05
 0.63353004E+02 -0.11787E+05
 0.63403000E+02 -0.11445E+05
 0.63453003E+02 -0.11356E+05
 0.63502998E+02 -0.11584E+05
 0.63553001E+02 -0.11725E+05
 0.63603004E+02 -0.11076E+05
 0.63653000E+02 -0.10320E+05
 0.63703003E+02 -0.10067E+05
 0.63752998E+02 -0.10438E+05
 0.63803001E+02 -0.11381E+05
 0.63853004E+02 -0.12195E+05
 0.63903000E+02 -0.12530E+05
 0.63953003E+02 -0.13017E+05
 0.64002998E+02 -0.13159E+05
 0.64053001E+02 -0.12475E+05
 0.64103004E+02 -0.11808E+05
 0.64153000E+02 -0.11277E+05
 0.64203003E+02 -0.11543E+05
 0.64252998E+02 -0.12914E+05
 0.64303001E+02 -0.13445E+05
 0.64353004E+02 -0.13806E+05
 0.64403000E+02 -0.14027E+05
 0.64453003E+02 -0.13938E+05
 0.64502998E+02 -0.13808E+05
 0.64553001E+02 -0.13488E+05
 0.64603004E+02 -0.12880E+05
 0.64653000E+02 -0.11929E+05
 0.64703003E+02 -0.11669E+05
 0.64752998E+02 -0.11493E+05
 0.64803001E+02 -0.11736E+05
 0.64853004E+02 -0.12685E+05
 0.64903000E+02 -0.13464E+05
 0.64953003E+02 -0.13206E+05
 0.65002998E+02 -0.11980E+05
 0.65053001E+02 -0.10613E+05
 0.65103004E+02 -0.10260E+05
 0.65153000E+02 -0.10718E+05
 0.65203003E+02 -0.11602E+05
 0.65252998E+02 -0.12946E+05
 0.65303001E+02 -0.13211E+05
 0.65353004E+02 -0.12397E+05
 0.65403000E+02 -0.11333E+05
 0.65453003E+02 -0.99783E+04
 0.65502998E+02 -0.92292E+04
 0.65553001E+02 -0.95986E+04
 0.65603004E+02 -0.10279E+05
 0.65653000E+02 -0.11146E+05
 0.65703003E+02 -0.11887E+05
 0.65752998E+02 -0.12360E+05
 0.65803001E+02 -0.12226E+05
 0.65853004E+02 -0.11309E+05
 0.65903000E+02 -0.10628E+05
 0.65953003E+02 -0.10612E+05
 0.66002998E+02 -0.10939E+05
 0.66053001E+02 -0.11744E+05
 0.66103004E+02 -0.12565E+05
 0.66153000E+02 -0.12651E+05
 0.66203003E+02 -0.12628E+05
 0.66252998E+02 -0.12611E+05
 0.66303001E+02 -0.12499E+05
 0.66353004E+02 -0.12716E+05
 0.66403000E+02 -0.12785E+05
 0.66453003E+02 -0.12378E+05
 0.66502998E+02 -0.11967E+05
 0.66553001E+02 -0.12219E+05
 0.66603004E+02 -0.12560E+05
 0.66653000E+02 -0.12252E+05
 0.66703003E+02 -0.12294E+05
 0.66752998E+02 -0.12648E+05
 0.66803001E+02 -0.12867E+05
 0.66853004E+02 -0.12640E+05
 0.66903000E+02 -0.12119E+05
 0.66953003E+02 -0.11557E+05
 0.67002998E+02 -0.10868E+05
 0.67053001E+02 -0.10995E+05
 0.67103004E+02 -0.12191E+05
 0.67153000E+02 -0.13381E+05
 0.67203003E+02 -0.13838E+05
 0.67252998E+02 -0.13698E+05
 0.67303001E+02 -0.12739E+05
 0.67353004E+02 -0.11947E+05
 0.67403000E+02 -0.11361E+05
 0.67453003E+02 -0.10890E+05
 0.67502998E+02 -0.11100E+05
 0.67553001E+02 -0.11576E+05
 0.67603004E+02 -0.12489E+05
 0.67653000E+02 -0.12780E+05
 0.67703003E+02 -0.12294E+05
 0.67752998E+02 -0.12127E+05
 0.67803001E+02 -0.12284E+05
 0.67853004E+02 -0.12819E+05
 0.67903000E+02 -0.13160E+05
 0.67953003E+02 -0.13050E+05
 0.68002998E+02 -0.13329E+05
 0.68053001E+02 -0.13842E+05
 0.68103004E+02 -0.14392E+05
 0.68153000E+02 -0.14472E+05
 0.68203003E+02 -0.13670E+05
 0.68252998E+02 -0.12325E+05
 0.68303001E+02 -0.11242E+05
 0.68353004E+02 -0.10617E+05
 0.68403000E+02 -0.10262E+05
 0.68453003E+02 -0.10595E+05
 0.68502998E+02 -0.11026E+05
 0.68553001E+02 -0.11303E+05
 0.68603004E+02 -0.11328E+05
 0.68653000E+02 -0.10616E+05
 0.68703003E+02 -0.98059E+04
 0.68752998E+02 -0.91093E+04
 0.68803001E+02 -0.90288E+04
 0.68853004E+02 -0.10201E+05
 0.68903000E+02 -0.11775E+05
 0.68953003E+02 -0.12701E+05
 0.69002998E+02 -0.12697E+05
 0.69053001E+02 -0.11816E+05
 0.69103004E+02 -0.10404E+05
 0.69153000E+02 -0.10064E+05
 0.69203003E+02 -0.10913E+05
 0.69252998E+02 -0.11913E+05
 0.69303001E+02 -0.13058E+05
 0.69353004E+02 -0.13717E+05
 0.69403000E+02 -0.13649E+05
 0.69453003E+02 -0.13280E+05
 0.69502998E+02 -0.12554E+05
 0.69553001E+02 -0.11980E+05
 0.69603004E+02 -0.11849E+05
 0.69653000E+02 -0.12103E+05
 0.69703003E+02 -0.12314E+05
 0.69752998E+02 -0.12377E+05
 0.69803001E+02 -0.12143E+05
 0.69853004E+02 -0.11512E+05
 0.69903000E+02 -0.10778E+05
 0.69953003E+02 -0.10668E+05
 0.70002998E+02 -0.11304E+05
 0.70053001E+02 -0.11695E+05
 0.70103004E+02 -0.11577E+05
 0.70153000E+02 -0.11118E+05
 0.70203003E+02 -0.10804E+05
 0.70252998E+02 -0.10884E+05
 0.70303001E+02 -0.11415E+05
 0.70353004E+02 -0.12486E+05
 0.70403000E+02 -0.13413E+05
 0.70453003E+02 -0.13456E+05
 0.70502998E+02 -0.13359E+05
 0.70553001E+02 -0.13418E+05
 0.70603004E+02 -0.13614E+05
 0.70653000E+02 -0.14160E+05
 0.70703003E+02 -0.14413E+05
 0.70752998E+02 -0.13886E+05
 0.70803001E+02 -0.13062E+05
 0.70853004E+02 -0.12329E+05
 0.70903000E+02 -0.12041E+05
 0.70953003E+02 -0.12060E+05
 0.71002998E+02 -0.12260E+05
 0.71053001E+02 -0.12443E+05
 0.71103004E+02 -0.12164E+05
 0.71153000E+02 -0.11171E+05
 0.71203003E+02 -0.10407E+05
 0.71252998E+02 -0.10358E+05
 0.71303001E+02 -0.10172E+05
 0.71353004E+02 -0.10143E+05
 0.71403000E+02 -0.10070E+05
 0.71453003E+02 -0.96100E+04
 0.71502998E+02 -0.91748E+04
 0.71553001E+02 -0.91076E+04
 0.71603004E+02 -0.98579E+04
 0.71653000E+02 -0.11140E+05
 0.71703003E+02 -0.11849E+05
 0.71752998E+02 -0.12212E+05
 0.71803001E+02 -0.12461E+05
 0.71853004E+02 -0.12691E+05
 0.71903000E+02 -0.12726E+05
 0.71953003E+02 -0.12672E+05
 0.72002998E+02 -0.12601E+05
 0.72053001E+02 -0.12491E+05
 0.72103004E+02 -0.13120E+05
 0.72153000E+02 -0.14116E+05
 0.72203003E+02 -0.14432E+05
 0.72252998E+02 -0.14204E+05
 0.72303001E+02 -0.14016E+05
 0.72353004E+02 -0.14079E+05
 0.72403000E+02 -0.14346E+05
 0.72453003E+02 -0.14721E+05
 0.72502998E+02 -0.14769E+05
 0.72553001E+02 -0.14614E+05
 0.72603004E+02 -0.14379E+05
 0.72653000E+02 -0.13841E+05
 0.72703003E+02 -0.13454E+05
 0.72752998E+02 -0.13165E+05
 0.72803001E+02 -0.12719E+05
 0.72853004E+02 -0.12109E+05
 0.72903000E+02 -0.11683E+05
 0.72953003E+02 -0.11268E+05
 0.73002998E+02 -0.10790E+05
 0.73053001E+02 -0.10505E+05
 0.73103004E+02 -0.10569E+05
 0.73153000E+02 -0.10626E+05
 0.73203003E+02 -0.10245E+05
 0.73252998E+02 -0.94155E+04
 0.73303001E+02 -0.88600E+04
 0.73353004E+02 -0.91013E+04
 0.73403000E+02 -0.97284E+04
 0.73453003E+02 -0.10845E+05
 0.73502998E+02 -0.11641E+05
 0.73553001E+02 -0.11830E+05
 0.73603004E+02 -0.11846E+05
 0.73653000E+02 -0.11941E+05
 0.73703003E+02 -0.12037E+05
 0.73752998E+02 -0.11818E+05
 0.73803001E+02 -0.11995E+05
 0.73853004E+02 -0.12195E+05
 0.73903000E+02 -0.13177E+05
 0.73953003E+02 -0.13696E+05
 0.74002998E+02 -0.13654E+05
 0.74053001E+02 -0.13464E+05
 0.74103004E+02 -0.12261E+05
 0.74153000E+02 -0.11335E+05
 0.74203003E+02 -0.11061E+05
 0.74252998E+02 -0.11537E+05
 0.74303001E+02 -0.12239E+05
 0.74353004E+02 -0.12800E+05
 0.74403000E+02 -0.12710E+05
 0.74453003E+02 -0.12436E+05
 0.74502998E+02 -0.12117E+05
 0.74553001E+02 -0.11739E+05
 0.74603004E+02 -0.11208E+05
 0.74653000E+02 -0.10603E+05
 0.74703003E+02 -0.10858E+05
 0.74752998E+02 -0.11621E+05
 0.74803001E+02 -0.12344E+05
 0.74853004E+02 -0.12793E+05
 0.74903000E+02 -0.12950E+05
 0.74953003E+02 -0.12794E+05
 0.75002998E+02 -0.12408E+05
 0.75053001E+02 -0.11706E+05
 0.75103004E+02 -0.10829E+05
 0.75153000E+02 -0.10484E+05
 0.75203003E+02 -0.10628E+05
 0.75252998E+02 -0.10783E+05
 0.75303001E+02 -0.10681E+05
 0.75353004E+02 -0.10575E+05
 0.75403000E+02 -0.10363E+05
 0.75453003E+02 -0.10393E+05
 0.75502998E+02 -0.10581E+05
 0.75553001E+02 -0.10750E+05
 0.75603004E+02 -0.11124E+05
 0.75653000E+02 -0.11475E+05
 0.75703003E+02 -0.12129E+05
 0.75752998E+02 -0.12993E+05
 0.75803001E+02 -0.13804E+05
 0.75853004E+02 -0.14165E+05
 0.75903000E+02 -0.14341E+05
 0.75953003E+02 -0.14555E+05
 0.76002998E+02 -0.14577E+05
 0.76053001E+02 -0.14341E+05
 0.76103004E+02 -0.13732E+05
 0.76153000E+02 -0.12776E+05
 0.76203003E+02 -0.11802E+05
 0.76252998E+02 -0.11486E+05
 0.76303001E+02 -0.11903E+05
 0.76353004E+02 -0.12413E+05
 0.76403000E+02 -0.12701E+05
 0.76453003E+02 -0.12564E+05
 0.76502998E+02 -0.12316E+05
 0.76553001E+02 -0.12144E+05
 0.76603004E+02 -0.11835E+05
 0.76653000E+02 -0.11712E+05
 0.76703003E+02 -0.12009E+05
 0.76752998E+02 -0.12428E+05
 0.76803001E+02 -0.12070E+05
 0.76853004E+02 -0.10977E+05
 0.76903000E+02 -0.10101E+05
 0.76953003E+02 -0.96905E+04
 0.77002998E+02 -0.96718E+04
 0.77053001E+02 -0.10041E+05
 0.77103004E+02 -0.10649E+05
 0.77153000E+02 -0.11390E+05
 0.77203003E+02 -0.11931E+05
 0.77252998E+02 -0.12479E+05
 0.77303001E+02 -0.13361E+05
 0.77353004E+02 -0.13941E+05
 0.77403000E+02 -0.14109E+05
 0.77453003E+02 -0.13796E+05
 0.77502998E+02 -0.12847E+05
 0.77553001E+02 -0.11932E+05
 0.77603004E+02 -0.11499E+05
 0.77653000E+02 -0.11418E+05
 0.77703003E+02 -0.11655E+05
 0.77752998E+02 -0.12340E+05
 0.77803001E+02 -0.13096E+05
 0.77853004E+02 -0.13632E+05
 0.77903000E+02 -0.13779E+05
 0.77953003E+02 -0.13091E+05
 0.78002998E+02 -0.11985E+05
 0.78053001E+02 -0.11300E+05
 0.78103004E+02 -0.10906E+05
 0.78153000E+02 -0.10787E+05
 0.78203003E+02 -0.11172E+05
 0.78252998E+02 -0.11693E+05
 0.78303001E+02 -0.11935E+05
 0.78353004E+02 -0.11890E+05
 0.78403000E+02 -0.11588E+05
 0.78453003E+02 -0.11387E+05
 0.78502998E+02 -0.11627E+05
 0.78553001E+02 -0.12172E+05
 0.78603004E+02 -0.12678E+05
 0.78653000E+02 -0.12608E+05
 0.78703003E+02 -0.12264E+05
 0.78752998E+02 -0.11852E+05
 0.78803001E+02 -0.11572E+05
 0.78853004E+02 -0.11848E+05
 0.78903000E+02 -0.12209E+05
 0.78953003E+02 -0.12254E+05
 0.79002998E+02 -0.11902E+05
 0.79053001E+02 -0.11533E+05
 0.79103004E+02 -0.11528E+05
 0.79153000E+02 -0.11645E+05
 0.79203003E+02 -0.11756E+05
 0.79252998E+02 -0.11697E+05
 0.79303001E+02 -0.11748E+05
 0.79353004E+02 -0.11867E+05
 0.79403000E+02 -0.12001E+05
 0.79453003E+02 -0.12034E+05
 0.79502998E+02 -0.11851E+05
 0.79553001E+02 -0.11781E+05
 0.79603004E+02 -0.11867E+05
 0.79653000E+02 -0.12288E+05
 0.79703003E+02 -0.12655E+05
 0.79752998E+02 -0.12880E+05
 0.79803001E+02 -0.13118E+05
 0.79853004E+02 -0.13263E+05
 0.79903000E+02 -0.13469E+05
 0.79953003E+02 -0.13457E+05
 0.80002998E+02 -0.13097E+05
 0.80053001E+02 -0.12618E+05
 0.80103004E+02 -0.12229E+05
 0.80153000E+02 -0.12117E+05
 0.80203003E+02 -0.12101E+05
 0.80252998E+02 -0.11969E+05
 0.80303001E+02 -0.11763E+05
 0.80353004E+02 -0.11535E+05
 0.80403000E+02 -0.11013E+05
 0.80453003E+02 -0.10586E+05
 0.80502998E+02 -0.10361E+05
 0.80553001E+02 -0.10381E+05
 0.80603004E+02 -0.10826E+05
 0.80653000E+02 -0.11236E+05
 0.80703003E+02 -0.11177E+05
 0.80752998E+02 -0.10901E+05
 0.80803001E+02 -0.10835E+05
 0.80853004E+02 -0.11019E+05
 0.80903000E+02 -0.11306E+05
 0.80953003E+02 -0.11724E+05
 0.81002998E+02 -0.11999E+05
 0.81053001E+02 -0.11862E+05
 0.81103004E+02 -0.11736E+05
 0.81153000E+02 -0.11524E+05
 0.81203003E+02 -0.11531E+05
 0.81252998E+02 -0.11563E+05
 0.81303001E+02 -0.11662E+05
 0.81353004E+02 -0.12171E+05
 0.81403000E+02 -0.12692E+05
 0.81453003E+02 -0.13030E+05
 0.81502998E+02 -0.13300E+05
 0.81553001E+02 -0.13571E+05
 0.81603004E+02 -0.13399E+05
 0.81653000E+02 -0.12983E+05
 0.81703003E+02 -0.12605E+05
 0.81752998E+02 -0.12328E+05
 0.81803001E+02 -0.12517E+05
 0.81853004E+02 -0.12871E+05
 0.81903000E+02 -0.12865E+05
 0.81953003E+02 -0.12773E+05
 0.82002998E+02 -0.12571E+05
 0.82053001E+02 -0.12331E+05
 0.82103004E+02 -0.12549E+05
 0.82153000E+02 -0.13128E+05
 0.82203003E+02 -0.13451E+05
 0.82252998E+02 -0.13573E+05
 0.82303001E+02 -0.13497E+05
 0.82353004E+02 -0.13197E+05
 0.82403000E+02 -0.13033E+05
 0.82453003E+02 -0.12926E+05
 0.82502998E+02 -0.12719E+05
 0.82553001E+02 -0.12505E+05
 0.82603004E+02 -0.12436E+05
 0.82653000E+02 -0.12330E+05
 0.82703003E+02 -0.12295E+05
 0.82752998E+02 -0.12161E+05
 0.82803001E+02 -0.11805E+05
 0.82853004E+02 -0.11245E+05
 0.82903000E+02 -0.10465E+05
 0.82953003E+02 -0.10071E+05
 0.83002998E+02 -0.10077E+05
 0.83053001E+02 -0.10402E+05
 0.83103004E+02 -0.10898E+05
 0.83153000E+02 -0.11287E+05
 0.83203003E+02 -0.11546E+05
 0.83252998E+02 -0.11436E+05
 0.83303001E+02 -0.11125E+05
 0.83353004E+02 -0.10848E+05
 0.83403000E+02 -0.10691E+05
 0.83453003E+02 -0.10603E+05
 0.83502998E+02 -0.10693E+05
 0.83553001E+02 -0.10693E+05
 0.83603004E+02 -0.10718E+05
 0.83653000E+02 -0.10860E+05
 0.83703003E+02 -0.11021E+05
 0.83752998E+02 -0.11330E+05
 0.83803001E+02 -0.11670E+05
 0.83853004E+02 -0.11791E+05
 0.83903000E+02 -0.11935E+05
 0.83953003E+02 -0.12147E+05
 0.84002998E+02 -0.12100E+05
 0.84053001E+02 -0.12001E+05
 0.84103004E+02 -0.11713E+05
 0.84153000E+02 -0.11478E+05
 0.84203003E+02 -0.11552E+05
 0.84252998E+02 -0.11823E+05
 0.84303001E+02 -0.12000E+05
 0.84353004E+02 -0.12284E+05
 0.84403000E+02 -0.12635E+05
 0.84453003E+02 -0.12751E+05
 0.84502998E+02 -0.12739E+05
 0.84553001E+02 -0.12763E+05
 0.84603004E+02 -0.12774E+05
 0.84653000E+02 -0.12602E+05
 0.84703003E+02 -0.12378E+05
 0.84752998E+02 -0.12236E+05
 0.84803001E+02 -0.12284E+05
 0.84853004E+02 -0.12264E+05
 0.84903000E+02 -0.12105E+05
 0.84953003E+02 -0.12085E+05
 0.85002998E+02 -0.12225E+05
 0.85053001E+02 -0.12452E+05
 0.85103004E+02 -0.12614E+05
 0.85153000E+02 -0.12801E+05
 0.85203003E+02 -0.12978E+05
 0.85252998E+02 -0.13005E+05
 0.85303001E+02 -0.12755E+05
 0.85353004E+02 -0.12420E+05
 0.85403000E+02 -0.12252E+05
 0.85453003E+02 -0.12401E+05
 0.85502998E+02 -0.12760E+05
 0.85553001E+02 -0.12896E+05
 0.85603004E+02 -0.12549E+05
 0.85653000E+02 -0.12156E+05
 0.85703003E+02 -0.12329E+05
 0.85752998E+02 -0.12521E+05
 0.85803001E+02 -0.12477E+05
 0.85853004E+02 -0.12192E+05
 0.85903000E+02 -0.11907E+05
 0.85953003E+02 -0.11811E+05
 0.86002998E+02 -0.11828E+05
 0.86053001E+02 -0.11835E+05
 0.86103004E+02 -0.11887E+05
 0.86153000E+02 -0.11955E+05
 0.86203003E+02 -0.11907E+05
 0.86252998E+02 -0.11950E+05
 0.86303001E+02 -0.12063E+05
 0.86353004E+02 -0.12438E+05
 0.86403000E+02 -0.12742E+05
 0.86453003E+02 -0.12631E+05
 0.86502998E+02 -0.12046E+05
 0.86553001E+02 -0.11289E+05
 0.86603004E+02 -0.10903E+05
 0.86653000E+02 -0.10872E+05
 0.86703003E+02 -0.11048E+05
 0.86752998E+02 -0.11381E+05
 0.86803001E+02 -0.11724E+05
 0.86853004E+02 -0.12135E+05
 0.86903000E+02 -0.12614E+05
 0.86953003E+02 -0.12802E+05
 0.87002998E+02 -0.12825E+05
 0.87053001E+02 -0.12782E+05
 0.87103004E+02 -0.12603E+05
 0.87153000E+02 -0.12449E+05
 0.87203003E+02 -0.12528E+05
 0.87252998E+02 -0.12603E+05
 0.87303001E+02 -0.12536E+05
 0.87353004E+02 -0.12543E+05
 0.87403000E+02 -0.12708E+05
 0.87453003E+02 -0.13038E+05
 0.87502998E+02 -0.13084E+05
 0.87553001E+02 -0.12793E+05
 0.87602997E+02 -0.12462E+05
 0.87653000E+02 -0.12198E+05
 0.87703003E+02 -0.12120E+05
 0.87752998E+02 -0.12203E+05
 0.87803001E+02 -0.12080E+05
 0.87852997E+02 -0.11764E+05
 0.87903000E+02 -0.11518E+05
 0.87953003E+02 -0.11297E+05
 0.88002998E+02 -0.11274E+05
 0.88053001E+02 -0.11346E+05
 0.88102997E+02 -0.11390E+05
 0.88153000E+02 -0.11175E+05
 0.88203003E+02 -0.10711E+05
 0.88252998E+02 -0.10291E+05
 0.88303001E+02 -0.10050E+05
 0.88352997E+02 -0.10143E+05
 0.88403000E+02 -0.10310E+05
 0.88453003E+02 -0.10537E+05
 0.88502998E+02 -0.10937E+05
 0.88553001E+02 -0.11272E+05
 0.88602997E+02 -0.11505E+05
 0.88653000E+02 -0.11559E+05
 0.88703003E+02 -0.11530E+05
 0.88752998E+02 -0.11587E+05
 0.88803001E+02 -0.11671E+05
 0.88852997E+02 -0.11561E+05
 0.88903000E+02 -0.11397E+05
 0.88953003E+02 -0.11551E+05
 0.89002998E+02 -0.11714E+05
 0.89053001E+02 -0.11939E+05
 0.89102997E+02 -0.12202E+05
 0.89153000E+02 -0.12303E+05
 0.89203003E+02 -0.12275E+05
 0.89252998E+02 -0.12431E+05
 0.89303001E+02 -0.12660E+05
 0.89352997E+02 -0.12962E+05
 0.89403000E+02 -0.13161E+05
 0.89453003E+02 -0.12824E+05
 0.89502998E+02 -0.12492E+05
 0.89553001E+02 -0.12227E+05
 0.89602997E+02 -0.12030E+05
 0.89653000E+02 -0.11828E+05
 0.89703003E+02 -0.11789E+05
 0.89752998E+02 -0.12060E+05
 0.89803001E+02 -0.12386E+05
 0.89852997E+02 -0.12698E+05
 0.89903000E+02 -0.12708E+05
 0.89953003E+02 -0.12582E+05
 0.90002998E+02 -0.12445E+05
 0.90053001E+02 -0.12113E+05
 0.90102997E+02 -0.11907E+05
 0.90153000E+02 -0.12011E+05
 0.90203003E+02 -0.12199E+05
 0.90252998E+02 -0.12306E+05
 0.90303001E+02 -0.12173E+05
 0.90352997E+02 -0.11840E+05
 0.90403000E+02 -0.11675E+05
 0.90453003E+02 -0.11752E+05
 0.90502998E+02 -0.11969E+05
 0.90553001E+02 -0.12218E+05
 0.90602997E+02 -0.12349E+05
 0.90653000E+02 -0.12449E+05
 0.90703003E+02 -0.12322E+05
 0.90752998E+02 -0.12079E+05
 0.90803001E+02 -0.11921E+05
 0.90852997E+02 -0.12028E+05
 0.90903000E+02 -0.12503E+05
 0.90953003E+02 -0.12968E+05
 0.91002998E+02 -0.13158E+05
 0.91053001E+02 -0.13077E+05
 0.91102997E+02 -0.12865E+05
 0.91153000E+02 -0.12621E+05
 0.91203003E+02 -0.12598E+05
 0.91252998E+02 -0.12615E+05
 0.91303001E+02 -0.12402E+05
 0.91352997E+02 -0.12017E+05
 0.91403000E+02 -0.11804E+05
 0.91453003E+02 -0.11727E+05
 0.91502998E+02 -0.11817E+05
 0.91553001E+02 -0.11987E+05
 0.91602997E+02 -0.12174E+05
 0.91653000E+02 -0.12515E+05
 0.91703003E+02 -0.12596E+05
 0.91752998E+02 -0.12569E+05
 0.91803001E+02 -0.12479E+05
 0.91852997E+02 -0.12479E+05
 0.91903000E+02 -0.12501E+05
 0.91953003E+02 -0.12275E+05
 0.92002998E+02 -0.11814E+05
 0.92053001E+02 -0.11153E+05
 0.92102997E+02 -0.10686E+05
 0.92153000E+02 -0.10693E+05
 0.92203003E+02 -0.10884E+05
 0.92252998E+02 -0.10962E+05
 0.92303001E+02 -0.11059E+05
 0.92352997E+02 -0.11195E+05
 0.92403000E+02 -0.11429E+05
 0.92453003E+02 -0.11676E+05
 0.92502998E+02 -0.11829E+05
 0.92553001E+02 -0.11819E+05
 0.92602997E+02 -0.11648E+05
 0.92653000E+02 -0.11454E+05
 0.92703003E+02 -0.11408E+05
 0.92752998E+02 -0.11652E+05
 0.92803001E+02 -0.11932E+05
 0.92852997E+02 -0.12171E+05
 0.92903000E+02 -0.12237E+05
 0.92953003E+02 -0.12188E+05
 0.93002998E+02 -0.12042E+05
 0.93053001E+02 -0.11833E+05
 0.93102997E+02 -0.11798E+05
 0.93153000E+02 -0.11784E+05
 0.93203003E+02 -0.11788E+05
 0.93252998E+02 -0.11640E+05
 0.93303001E+02 -0.11470E+05
 0.93352997E+02 -0.11556E+05
 0.93403000E+02 -0.11880E+05
 0.93453003E+02 -0.12300E+05
 0.93502998E+02 -0.12546E+05
 0.93553001E+02 -0.12664E+05
 0.93602997E+02 -0.12786E+05
 0.93653000E+02 -0.12935E+05
 0.93703003E+02 -0.13005E+05
 0.93752998E+02 -0.12828E+05
 0.93803001E+02 -0.12655E+05
 0.93852997E+02 -0.12596E+05
 0.93903000E+02 -0.12528E+05
 0.93953003E+02 -0.12366E+05
 0.94002998E+02 -0.12138E+05
 0.94053001E+02 -0.11975E+05
 0.94102997E+02 -0.11806E+05
 0.94153000E+02 -0.11677E+05
 0.94203003E+02 -0.11794E+05
 0.94252998E+02 -0.12282E+05
 0.94303001E+02 -0.12790E+05
 0.94352997E+02 -0.13048E+05
 0.94403000E+02 -0.13013E+05
 0.94453003E+02 -0.12594E+05
 0.94502998E+02 -0.12172E+05
 0.94553001E+02 -0.11833E+05
 0.94602997E+02 -0.11501E+05
 0.94653000E+02 -0.11415E+05
 0.94703003E+02 -0.11399E+05
 0.94752998E+02 -0.11530E+05
 0.94803001E+02 -0.11721E+05
 0.94852997E+02 -0.11804E+05
 0.94903000E+02 -0.11602E+05
 0.94953003E+02 -0.11296E+05
 0.95002998E+02 -0.11236E+05
 0.95053001E+02 -0.11373E+05
 0.95102997E+02 -0.11695E+05
 0.95153000E+02 -0.11787E+05
 0.95203003E+02 -0.11775E+05
 0.95252998E+02 -0.11762E+05
 0.95303001E+02 -0.11698E+05
 0.95352997E+02 -0.11748E+05
 0.95403000E+02 -0.12149E+05
 0.95453003E+02 -0.12692E+05
 0.95502998E+02 -0.13163E+05
 0.95553001E+02 -0.13135E+05
 0.95602997E+02 -0.12811E+05
 0.95653000E+02 -0.12514E+05
 0.95703003E+02 -0.12328E+05
 0.95752998E+02 -0.12487E+05
 0.95803001E+02 -0.12580E+05
 0.95852997E+02 -0.12587E+05
 0.95903000E+02 -0.12705E+05
 0.95953003E+02 -0.12827E+05
 0.96002998E+02 -0.12819E+05
 0.96053001E+02 -0.12807E+05
 0.96102997E+02 -0.12386E+05
 0.96153000E+02 -0.11787E+05
 0.96203003E+02 -0.11271E+05
 0.96252998E+02 -0.10768E+05
 0.96303001E+02 -0.10824E+05
 0.96352997E+02 -0.11178E+05
 0.96403000E+02 -0.11368E+05
 0.96453003E+02 -0.11327E+05
 0.96502998E+02 -0.10991E+05
 0.96553001E+02 -0.10661E+05
 0.96602997E+02 -0.10643E+05
 0.96653000E+02 -0.10868E+05
 0.96703003E+02 -0.11085E+05
 0.96752998E+02 -0.11174E+05
 0.96803001E+02 -0.11297E+05
 0.96852997E+02 -0.11495E+05
 0.96903000E+02 -0.11595E+05
 0.96953003E+02 -0.11627E+05
 0.97002998E+02 -0.11492E+05
 0.97053001E+02 -0.11403E+05
 0.97102997E+02 -0.11411E+05
 0.97153000E+02 -0.11684E+05
 0.97203003E+02 -0.12131E+05
 0.97252998E+02 -0.12588E+05
 0.97303001E+02 -0.12790E+05
 0.97352997E+02 -0.12494E+05
 0.97403000E+02 -0.11960E+05
 0.97453003E+02 -0.11528E+05
 0.97502998E+02 -0.11445E+05
 0.97553001E+02 -0.11636E+05
 0.97602997E+02 -0.12142E+05
 0.97653000E+02 -0.12768E+05
 0.97703003E+02 -0.13409E+05
 0.97752998E+02 -0.13533E+05
 0.97803001E+02 -0.13359E+05
 0.97852997E+02 -0.12861E+05
 0.97903000E+02 -0.12394E+05
 0.97953003E+02 -0.12183E+05
 0.98002998E+02 -0.12119E+05
