-0.20000000E+01  0.62756E+05
-0.19500000E+01  0.50535E+05
-0.19000000E+01  0.38743E+05
-0.18500000E+01  0.26835E+05
-0.18000000E+01  0.15824E+05
-0.17500000E+01  0.68376E+04
-0.17000000E+01  0.35813E+03
-0.16500001E+01 -0.35887E+04
-0.16000000E+01 -0.46772E+04
-0.15500000E+01 -0.29434E+04
-0.15000000E+01  0.97138E+03
-0.14500000E+01  0.59888E+04
-0.14000001E+01  0.11377E+05
-0.13500000E+01  0.16441E+05
-0.13000001E+01  0.20627E+05
-0.12500000E+01  0.23549E+05
-0.12000000E+01  0.24938E+05
-0.11500001E+01  0.25337E+05
-0.11000000E+01  0.25416E+05
-0.10500001E+01  0.26100E+05
-0.10000000E+01  0.27860E+05
-0.95000005E+00  0.30356E+05
-0.90000010E+00  0.33583E+05
-0.85000002E+00  0.37617E+05
-0.80000007E+00  0.42333E+05
-0.75000012E+00  0.47068E+05
-0.70000005E+00  0.50601E+05
-0.65000010E+00  0.52453E+05
-0.60000014E+00  0.52868E+05
-0.55000007E+00  0.52748E+05
-0.50000012E+00  0.52814E+05
-0.45000005E+00  0.52840E+05
-0.40000010E+00  0.52705E+05
-0.35000014E+00  0.52456E+05
-0.30000007E+00  0.52299E+05
-0.25000012E+00  0.53047E+05
-0.20000005E+00  0.55516E+05
-0.15000010E+00  0.60007E+05
-0.10000014E+00  0.66450E+05
-0.50000072E-01  0.74435E+05
-0.11920929E-06  0.83272E+05
 0.49999952E-01  0.92653E+05
 0.99999905E-01  0.10229E+06
 0.14999986E+00  0.11137E+06
 0.19999981E+00  0.11926E+06
 0.24999976E+00  0.12574E+06
 0.29999995E+00  0.13078E+06
 0.34999990E+00  0.13418E+06
 0.39999986E+00  0.13567E+06
 0.44999981E+00  0.13576E+06
 0.49999976E+00  0.13492E+06
 0.54999995E+00  0.13313E+06
 0.59999990E+00  0.13045E+06
 0.64999986E+00  0.12689E+06
 0.69999981E+00  0.12273E+06
 0.74999976E+00  0.11832E+06
 0.79999971E+00  0.11419E+06
 0.84999990E+00  0.11053E+06
 0.89999986E+00  0.10699E+06
 0.94999981E+00  0.10330E+06
 0.99999976E+00  0.99412E+05
 0.10499997E+01  0.95424E+05
 0.10999999E+01  0.92092E+05
 0.11499999E+01  0.89969E+05
 0.11999998E+01  0.89090E+05
 0.12499998E+01  0.89198E+05
 0.12999997E+01  0.89703E+05
 0.13499999E+01  0.89668E+05
 0.13999999E+01  0.88280E+05
 0.14499998E+01  0.86270E+05
 0.14999998E+01  0.84320E+05
 0.15499997E+01  0.82936E+05
 0.15999999E+01  0.82397E+05
 0.16499999E+01  0.82007E+05
 0.16999998E+01  0.80923E+05
 0.17499998E+01  0.78396E+05
 0.17999997E+01  0.74563E+05
 0.18499997E+01  0.69984E+05
 0.18999999E+01  0.64707E+05
 0.19499998E+01  0.58323E+05
 0.19999998E+01  0.51054E+05
 0.20499997E+01  0.43226E+05
 0.20999999E+01  0.34867E+05
 0.21499996E+01  0.25832E+05
 0.21999998E+01  0.16093E+05
 0.22499995E+01  0.63659E+04
 0.22999997E+01 -0.28088E+04
 0.23499999E+01 -0.11143E+05
 0.23999996E+01 -0.18475E+05
 0.24499998E+01 -0.24627E+05
 0.24999995E+01 -0.29599E+05
 0.25499997E+01 -0.33522E+05
 0.25999999E+01 -0.36007E+05
 0.26499996E+01 -0.36831E+05
 0.26999998E+01 -0.36013E+05
 0.27499995E+01 -0.33592E+05
 0.27999997E+01 -0.29725E+05
 0.28499999E+01 -0.24316E+05
 0.28999996E+01 -0.17231E+05
 0.29499998E+01 -0.89420E+04
 0.29999995E+01 -0.55780E+03
 0.30499997E+01  0.71787E+04
 0.30999999E+01  0.14021E+05
 0.31499996E+01  0.19950E+05
 0.31999998E+01  0.24558E+05
 0.32499995E+01  0.27992E+05
 0.32999997E+01  0.30810E+05
 0.33499999E+01  0.33484E+05
 0.33999996E+01  0.36789E+05
 0.34499998E+01  0.40784E+05
 0.34999995E+01  0.45278E+05
 0.35499997E+01  0.49855E+05
 0.35999994E+01  0.54842E+05
 0.36499996E+01  0.61160E+05
 0.36999998E+01  0.69007E+05
 0.37499995E+01  0.78343E+05
 0.37999997E+01  0.88776E+05
 0.38499994E+01  0.99807E+05
 0.38999996E+01  0.11083E+06
 0.39499998E+01  0.12129E+06
 0.39999995E+01  0.13122E+06
 0.40499997E+01  0.14055E+06
 0.40999994E+01  0.14867E+06
 0.41499996E+01  0.15436E+06
 0.41999998E+01  0.15670E+06
 0.42499995E+01  0.15552E+06
 0.42999997E+01  0.15095E+06
 0.43499994E+01  0.14325E+06
 0.43999996E+01  0.13281E+06
 0.44499998E+01  0.12053E+06
 0.44999995E+01  0.10727E+06
 0.45499997E+01  0.93808E+05
 0.45999994E+01  0.80676E+05
 0.46499996E+01  0.67798E+05
 0.46999998E+01  0.55109E+05
 0.47499995E+01  0.42583E+05
 0.47999997E+01  0.30346E+05
 0.48499994E+01  0.18822E+05
 0.48999996E+01  0.80375E+04
 0.49499998E+01 -0.16437E+04
 0.49999995E+01 -0.98569E+04
 0.50499997E+01 -0.16458E+05
 0.50999994E+01 -0.21267E+05
 0.51499996E+01 -0.24414E+05
 0.51999998E+01 -0.25792E+05
 0.52499995E+01 -0.25229E+05
 0.52999997E+01 -0.22878E+05
 0.53499994E+01 -0.19092E+05
 0.53999996E+01 -0.13936E+05
 0.54499993E+01 -0.74501E+04
 0.54999995E+01  0.34871E+02
 0.55499997E+01  0.78908E+04
 0.55999994E+01  0.15783E+05
 0.56499996E+01  0.23835E+05
 0.56999993E+01  0.32426E+05
 0.57499995E+01  0.41689E+05
 0.57999997E+01  0.51596E+05
 0.58499994E+01  0.61936E+05
 0.58999996E+01  0.72296E+05
 0.59499993E+01  0.81929E+05
 0.59999995E+01  0.90378E+05
 0.60499992E+01  0.97814E+05
 0.60999994E+01  0.10389E+06
 0.61499996E+01  0.10821E+06
 0.61999998E+01  0.11044E+06
 0.62499990E+01  0.11077E+06
 0.62999992E+01  0.10923E+06
 0.63499994E+01  0.10609E+06
 0.63999996E+01  0.10170E+06
 0.64499998E+01  0.96104E+05
 0.64999990E+01  0.89452E+05
 0.65499992E+01  0.81740E+05
 0.65999994E+01  0.73435E+05
 0.66499996E+01  0.64847E+05
 0.66999998E+01  0.56228E+05
 0.67499990E+01  0.48149E+05
 0.67999992E+01  0.40797E+05
 0.68499994E+01  0.33917E+05
 0.68999996E+01  0.27594E+05
 0.69499998E+01  0.21857E+05
 0.69999990E+01  0.16961E+05
 0.70499992E+01  0.12813E+05
 0.70999994E+01  0.91616E+04
 0.71499996E+01  0.62970E+04
 0.71999998E+01  0.41653E+04
 0.72499990E+01  0.29175E+04
 0.72999992E+01  0.24799E+04
 0.73499994E+01  0.31671E+04
 0.73999996E+01  0.54909E+04
 0.74499998E+01  0.93359E+04
 0.74999990E+01  0.14663E+05
 0.75499992E+01  0.21364E+05
 0.75999994E+01  0.29042E+05
 0.76499996E+01  0.36981E+05
 0.76999998E+01  0.44559E+05
 0.77499990E+01  0.51430E+05
 0.77999992E+01  0.57102E+05
 0.78499994E+01  0.61081E+05
 0.78999996E+01  0.63240E+05
 0.79499998E+01  0.63790E+05
 0.79999990E+01  0.62793E+05
 0.80499992E+01  0.60120E+05
 0.80999994E+01  0.55638E+05
 0.81499996E+01  0.49264E+05
 0.81999998E+01  0.41550E+05
 0.82499990E+01  0.33457E+05
 0.82999992E+01  0.26083E+05
 0.83499994E+01  0.20110E+05
 0.83999996E+01  0.15445E+05
 0.84499998E+01  0.12008E+05
 0.84999990E+01  0.97645E+04
 0.85499992E+01  0.90668E+04
 0.85999994E+01  0.10132E+05
 0.86499996E+01  0.12587E+05
 0.86999998E+01  0.16185E+05
 0.87499990E+01  0.20642E+05
 0.87999992E+01  0.25587E+05
 0.88499994E+01  0.30453E+05
 0.88999996E+01  0.34708E+05
 0.89499998E+01  0.38123E+05
 0.89999990E+01  0.40574E+05
 0.90499992E+01  0.41976E+05
 0.90999994E+01  0.42250E+05
 0.91499996E+01  0.41752E+05
 0.91999989E+01  0.40931E+05
 0.92499990E+01  0.40126E+05
 0.92999992E+01  0.39735E+05
 0.93499994E+01  0.39725E+05
 0.93999996E+01  0.40328E+05
 0.94499989E+01  0.42032E+05
 0.94999990E+01  0.45217E+05
 0.95499992E+01  0.50168E+05
 0.95999994E+01  0.56790E+05
 0.96499996E+01  0.64540E+05
 0.96999989E+01  0.72969E+05
 0.97499990E+01  0.81693E+05
 0.97999992E+01  0.90180E+05
 0.98499994E+01  0.97964E+05
 0.98999996E+01  0.10437E+06
 0.99499989E+01  0.10915E+06
 0.99999990E+01  0.11227E+06
 0.10049999E+02  0.11406E+06
 0.10099999E+02  0.11441E+06
 0.10150000E+02  0.11293E+06
 0.10199999E+02  0.10976E+06
 0.10249999E+02  0.10500E+06
 0.10299999E+02  0.99238E+05
 0.10349999E+02  0.93114E+05
 0.10400000E+02  0.86876E+05
 0.10449999E+02  0.80608E+05
 0.10499999E+02  0.74158E+05
 0.10549999E+02  0.67568E+05
 0.10599999E+02  0.61122E+05
 0.10650000E+02  0.55211E+05
 0.10699999E+02  0.49800E+05
 0.10749999E+02  0.44434E+05
 0.10799999E+02  0.38926E+05
 0.10849999E+02  0.33066E+05
 0.10900000E+02  0.27230E+05
 0.10949999E+02  0.21958E+05
 0.10999999E+02  0.17604E+05
 0.11049999E+02  0.14481E+05
 0.11099999E+02  0.12450E+05
 0.11150000E+02  0.11605E+05
 0.11199999E+02  0.12234E+05
 0.11249999E+02  0.14310E+05
 0.11299999E+02  0.17419E+05
 0.11349999E+02  0.21135E+05
 0.11400000E+02  0.25349E+05
 0.11449999E+02  0.29656E+05
 0.11499999E+02  0.33244E+05
 0.11549999E+02  0.35958E+05
 0.11599999E+02  0.37684E+05
 0.11650000E+02  0.38230E+05
 0.11699999E+02  0.37631E+05
 0.11749999E+02  0.35783E+05
 0.11799999E+02  0.33094E+05
 0.11849999E+02  0.29801E+05
 0.11900000E+02  0.25791E+05
 0.11949999E+02  0.20966E+05
 0.11999999E+02  0.15628E+05
 0.12049999E+02  0.10287E+05
 0.12099999E+02  0.50760E+04
 0.12150000E+02  0.13220E+03
 0.12199999E+02 -0.44313E+04
 0.12249999E+02 -0.85695E+04
 0.12299999E+02 -0.11789E+05
 0.12349999E+02 -0.13727E+05
 0.12400000E+02 -0.14117E+05
 0.12449999E+02 -0.12645E+05
 0.12499999E+02 -0.93552E+04
 0.12549999E+02 -0.43708E+04
 0.12599999E+02  0.19463E+04
 0.12649999E+02  0.96006E+04
 0.12699999E+02  0.18786E+05
 0.12749999E+02  0.29110E+05
 0.12799999E+02  0.40025E+05
 0.12849999E+02  0.50783E+05
 0.12899999E+02  0.60569E+05
 0.12949999E+02  0.69348E+05
 0.12999999E+02  0.77019E+05
 0.13049999E+02  0.83276E+05
 0.13099999E+02  0.87797E+05
 0.13149999E+02  0.90425E+05
 0.13199999E+02  0.91331E+05
 0.13249999E+02  0.90600E+05
 0.13299999E+02  0.88176E+05
 0.13349999E+02  0.83918E+05
 0.13399999E+02  0.78317E+05
 0.13449999E+02  0.72135E+05
 0.13499999E+02  0.65901E+05
 0.13549999E+02  0.59983E+05
 0.13599999E+02  0.54462E+05
 0.13649999E+02  0.49205E+05
 0.13699999E+02  0.44201E+05
 0.13749999E+02  0.39666E+05
 0.13799999E+02  0.35989E+05
 0.13849999E+02  0.33174E+05
 0.13899999E+02  0.30737E+05
 0.13949999E+02  0.28897E+05
 0.13999999E+02  0.28106E+05
 0.14049999E+02  0.28457E+05
 0.14099998E+02  0.30090E+05
 0.14150000E+02  0.32669E+05
 0.14199999E+02  0.35807E+05
 0.14249998E+02  0.39205E+05
 0.14299999E+02  0.42363E+05
 0.14349998E+02  0.45089E+05
 0.14400000E+02  0.47361E+05
 0.14449999E+02  0.49355E+05
 0.14499998E+02  0.51246E+05
 0.14549999E+02  0.52981E+05
 0.14599998E+02  0.54483E+05
 0.14650000E+02  0.55316E+05
 0.14699999E+02  0.55055E+05
 0.14749998E+02  0.53687E+05
 0.14799999E+02  0.51278E+05
 0.14849998E+02  0.48125E+05
 0.14900000E+02  0.44416E+05
 0.14949999E+02  0.40293E+05
 0.14999998E+02  0.35810E+05
 0.15049999E+02  0.30865E+05
 0.15099998E+02  0.25486E+05
 0.15150000E+02  0.19992E+05
 0.15199999E+02  0.15267E+05
 0.15249998E+02  0.12052E+05
 0.15299999E+02  0.10444E+05
 0.15349998E+02  0.10403E+05
 0.15400000E+02  0.12164E+05
 0.15449999E+02  0.15804E+05
 0.15499998E+02  0.21693E+05
 0.15549999E+02  0.30307E+05
 0.15599998E+02  0.41578E+05
 0.15650000E+02  0.54809E+05
 0.15699999E+02  0.68729E+05
 0.15749998E+02  0.82142E+05
 0.15799999E+02  0.94423E+05
 0.15849998E+02  0.10591E+06
 0.15900000E+02  0.11683E+06
 0.15949999E+02  0.12665E+06
 0.15999998E+02  0.13434E+06
 0.16049999E+02  0.13893E+06
 0.16099998E+02  0.14008E+06
 0.16150000E+02  0.13770E+06
 0.16199999E+02  0.13222E+06
 0.16249998E+02  0.12409E+06
 0.16299999E+02  0.11339E+06
 0.16349998E+02  0.10046E+06
 0.16400000E+02  0.86101E+05
 0.16449999E+02  0.71158E+05
 0.16499998E+02  0.55966E+05
 0.16549999E+02  0.40649E+05
 0.16599998E+02  0.25667E+05
 0.16650000E+02  0.11933E+05
 0.16699999E+02  0.14673E+03
 0.16749998E+02 -0.94555E+04
 0.16799999E+02 -0.16438E+05
 0.16849998E+02 -0.20292E+05
 0.16900000E+02 -0.21499E+05
 0.16949999E+02 -0.20781E+05
 0.16999998E+02 -0.18092E+05
 0.17049999E+02 -0.13133E+05
 0.17099998E+02 -0.61755E+04
 0.17150000E+02  0.20653E+04
 0.17199999E+02  0.11172E+05
 0.17249998E+02  0.20782E+05
 0.17299999E+02  0.30586E+05
 0.17349998E+02  0.40401E+05
 0.17400000E+02  0.49642E+05
 0.17449999E+02  0.57952E+05
 0.17499998E+02  0.65223E+05
 0.17549999E+02  0.70990E+05
 0.17599998E+02  0.74984E+05
 0.17650000E+02  0.76854E+05
 0.17699999E+02  0.76786E+05
 0.17749998E+02  0.75205E+05
 0.17799999E+02  0.72254E+05
 0.17849998E+02  0.68105E+05
 0.17900000E+02  0.62752E+05
 0.17949999E+02  0.56554E+05
 0.17999998E+02  0.50117E+05
 0.18049999E+02  0.43850E+05
 0.18099998E+02  0.37890E+05
 0.18150000E+02  0.32029E+05
 0.18199999E+02  0.26375E+05
 0.18249998E+02  0.21344E+05
 0.18299999E+02  0.16895E+05
 0.18349998E+02  0.13129E+05
 0.18400000E+02  0.10217E+05
 0.18449999E+02  0.82362E+04
 0.18499998E+02  0.71706E+04
 0.18549999E+02  0.68617E+04
 0.18599998E+02  0.72212E+04
 0.18650000E+02  0.78042E+04
 0.18699999E+02  0.79779E+04
 0.18749998E+02  0.74456E+04
 0.18799999E+02  0.62368E+04
 0.18849998E+02  0.47459E+04
 0.18900000E+02  0.33854E+04
 0.18949999E+02  0.25172E+04
 0.18999998E+02  0.23651E+04
 0.19049999E+02  0.29178E+04
 0.19099998E+02  0.42861E+04
 0.19150000E+02  0.65223E+04
 0.19199999E+02  0.95763E+04
 0.19249998E+02  0.13447E+05
 0.19299999E+02  0.17984E+05
 0.19349998E+02  0.22835E+05
 0.19400000E+02  0.27754E+05
 0.19449999E+02  0.32288E+05
 0.19499998E+02  0.36232E+05
 0.19549999E+02  0.39693E+05
 0.19599998E+02  0.42654E+05
 0.19650000E+02  0.44760E+05
 0.19699999E+02  0.45859E+05
 0.19749998E+02  0.46134E+05
 0.19799999E+02  0.45832E+05
 0.19849998E+02  0.45260E+05
 0.19900000E+02  0.44259E+05
 0.19949999E+02  0.42753E+05
 0.19999998E+02  0.40782E+05
 0.20049999E+02  0.38824E+05
 0.20099998E+02  0.37536E+05
 0.20150000E+02  0.37197E+05
 0.20199999E+02  0.37996E+05
 0.20249998E+02  0.39913E+05
 0.20299999E+02  0.42588E+05
 0.20349998E+02  0.45687E+05
 0.20399998E+02  0.48847E+05
 0.20449999E+02  0.51228E+05
 0.20499998E+02  0.52137E+05
 0.20549999E+02  0.51376E+05
 0.20599998E+02  0.49403E+05
 0.20649998E+02  0.46550E+05
 0.20699999E+02  0.42673E+05
 0.20749998E+02  0.37545E+05
 0.20799999E+02  0.30950E+05
 0.20849998E+02  0.22961E+05
 0.20899998E+02  0.13988E+05
 0.20949999E+02  0.44078E+04
 0.20999998E+02 -0.54126E+04
 0.21049999E+02 -0.15104E+05
 0.21099998E+02 -0.24160E+05
 0.21149998E+02 -0.31870E+05
 0.21199999E+02 -0.37728E+05
 0.21249998E+02 -0.41321E+05
 0.21299999E+02 -0.42529E+05
 0.21349998E+02 -0.41180E+05
 0.21399998E+02 -0.37736E+05
 0.21449999E+02 -0.32730E+05
 0.21499998E+02 -0.26411E+05
 0.21549999E+02 -0.19171E+05
 0.21599998E+02 -0.11203E+05
 0.21649998E+02 -0.35540E+04
 0.21699999E+02  0.29939E+04
 0.21749998E+02  0.83120E+04
 0.21799999E+02  0.12319E+05
 0.21849998E+02  0.15522E+05
 0.21899998E+02  0.18386E+05
 0.21949999E+02  0.20804E+05
 0.21999998E+02  0.22317E+05
 0.22049999E+02  0.23022E+05
 0.22099998E+02  0.23361E+05
 0.22149998E+02  0.23738E+05
 0.22199999E+02  0.24403E+05
 0.22249998E+02  0.25241E+05
 0.22299999E+02  0.26358E+05
 0.22349998E+02  0.28285E+05
 0.22399998E+02  0.31506E+05
 0.22449999E+02  0.35740E+05
 0.22499998E+02  0.40658E+05
 0.22549999E+02  0.46046E+05
 0.22599998E+02  0.51507E+05
 0.22649998E+02  0.56793E+05
 0.22699999E+02  0.61500E+05
 0.22749998E+02  0.65295E+05
 0.22799999E+02  0.68055E+05
 0.22849998E+02  0.69551E+05
 0.22899998E+02  0.69613E+05
 0.22949999E+02  0.68380E+05
 0.22999998E+02  0.66219E+05
 0.23049999E+02  0.63168E+05
 0.23099998E+02  0.58875E+05
 0.23149998E+02  0.52846E+05
 0.23199999E+02  0.44701E+05
 0.23249998E+02  0.34426E+05
 0.23299999E+02  0.22809E+05
 0.23349998E+02  0.10897E+05
 0.23399998E+02 -0.62490E+03
 0.23449999E+02 -0.11228E+05
 0.23499998E+02 -0.20053E+05
 0.23549999E+02 -0.26839E+05
 0.23599998E+02 -0.31106E+05
 0.23649998E+02 -0.32787E+05
 0.23699999E+02 -0.32004E+05
 0.23749998E+02 -0.29133E+05
 0.23799999E+02 -0.24502E+05
 0.23849998E+02 -0.17943E+05
 0.23899998E+02 -0.90996E+04
 0.23949999E+02  0.10435E+04
 0.23999998E+02  0.93788E+04
 0.24049999E+02  0.15661E+05
 0.24099998E+02  0.22279E+05
 0.24149998E+02  0.32565E+05
 0.24199999E+02  0.41836E+05
 0.24249998E+02  0.49699E+05
 0.24299999E+02  0.57104E+05
 0.24349998E+02  0.62041E+05
 0.24399998E+02  0.65441E+05
 0.24449999E+02  0.73695E+05
 0.24499998E+02  0.87154E+05
 0.24549999E+02  0.99618E+05
 0.24599998E+02  0.10461E+06
 0.24649998E+02  0.91178E+05
 0.24699999E+02  0.73496E+05
 0.24749998E+02  0.59151E+05
 0.24799999E+02  0.48967E+05
 0.24849998E+02  0.53704E+05
 0.24899998E+02  0.59777E+05
 0.24949999E+02  0.47268E+05
 0.24999998E+02  0.48066E+05
 0.25049999E+02  0.62323E+05
 0.25099998E+02  0.78647E+05
 0.25149998E+02  0.97299E+05
 0.25199999E+02  0.12403E+06
 0.25249998E+02  0.14817E+06
 0.25299999E+02  0.14424E+06
 0.25349998E+02  0.15768E+06
 0.25399998E+02  0.16342E+06
 0.25449999E+02  0.17348E+06
 0.25499998E+02  0.17793E+06
 0.25549999E+02  0.17501E+06
 0.25599998E+02  0.15444E+06
 0.25649998E+02  0.97854E+05
 0.25699999E+02  0.84336E+05
 0.25749998E+02  0.76003E+05
 0.25799999E+02  0.83309E+05
 0.25849998E+02  0.12616E+06
 0.25899998E+02  0.15499E+06
 0.25949999E+02  0.16744E+06
 0.25999998E+02  0.14082E+06
 0.26049999E+02  0.10447E+06
 0.26099998E+02  0.10757E+06
 0.26149998E+02  0.13232E+06
 0.26199999E+02  0.14933E+06
 0.26249998E+02  0.12654E+06
 0.26299999E+02  0.10939E+06
 0.26349998E+02  0.70992E+05
 0.26399998E+02  0.49146E+05
 0.26449999E+02  0.82207E+05
 0.26499998E+02  0.78175E+05
 0.26549999E+02  0.76553E+05
 0.26599998E+02  0.44946E+05
 0.26649998E+02  0.44719E+05
 0.26699999E+02  0.19152E+05
 0.26749998E+02  0.17673E+05
 0.26799999E+02  0.97656E+05
 0.26849998E+02  0.10851E+06
 0.26899998E+02  0.11209E+06
 0.26949999E+02  0.86008E+05
 0.26999998E+02  0.11036E+06
 0.27049997E+02  0.10647E+06
 0.27099998E+02  0.14140E+06
 0.27149998E+02  0.17726E+06
 0.27199999E+02  0.12641E+06
 0.27249998E+02  0.14094E+06
 0.27299997E+02  0.51754E+05
 0.27349998E+02 -0.20024E+05
 0.27399998E+02 -0.96607E+05
 0.27449999E+02 -0.15743E+06
 0.27499998E+02 -0.13997E+06
 0.27549997E+02 -0.13104E+06
 0.27599998E+02 -0.16029E+06
 0.27649998E+02 -0.18133E+06
 0.27699999E+02 -0.11178E+06
 0.27749998E+02 -0.93254E+05
 0.27799997E+02 -0.40103E+05
 0.27849998E+02 -0.26689E+05
 0.27899998E+02  0.49307E+04
 0.27949999E+02  0.20317E+05
 0.27999998E+02  0.71504E+05
 0.28049997E+02  0.10451E+06
 0.28099998E+02  0.59214E+05
 0.28149998E+02  0.19771E+05
 0.28199999E+02 -0.61278E+05
 0.28249998E+02 -0.11009E+06
 0.28299997E+02 -0.16560E+06
 0.28349998E+02 -0.16916E+06
 0.28399998E+02 -0.19300E+06
 0.28449999E+02 -0.13337E+06
 0.28499998E+02 -0.70588E+05
 0.28549997E+02 -0.87266E+05
 0.28599998E+02 -0.21306E+05
 0.28649998E+02  0.65463E+05
 0.28699999E+02  0.13444E+05
 0.28749998E+02 -0.31744E+03
 0.28799997E+02 -0.19940E+04
 0.28849998E+02 -0.14892E+04
 0.28899998E+02  0.84755E+05
 0.28949999E+02  0.14358E+06
 0.28999998E+02  0.10352E+06
 0.29049997E+02  0.26472E+05
 0.29099998E+02 -0.68320E+05
 0.29149998E+02 -0.11489E+06
 0.29199999E+02 -0.13863E+06
 0.29249998E+02 -0.17065E+06
 0.29299997E+02 -0.12788E+06
 0.29349998E+02 -0.13995E+06
 0.29399998E+02 -0.87591E+05
 0.29449999E+02 -0.10247E+06
 0.29499998E+02 -0.95473E+05
 0.29549997E+02 -0.29586E+05
 0.29599998E+02  0.10978E+06
 0.29649998E+02  0.17419E+06
 0.29699999E+02  0.11981E+06
 0.29749998E+02  0.13919E+06
 0.29799997E+02  0.15753E+06
 0.29849998E+02  0.14403E+06
 0.29899998E+02  0.60811E+05
 0.29949999E+02  0.35561E+05
 0.29999998E+02 -0.28514E+05
 0.30049999E+02 -0.11744E+06
 0.30099998E+02 -0.21061E+06
 0.30149998E+02 -0.32080E+06
 0.30199997E+02 -0.32585E+06
 0.30249996E+02 -0.23246E+06
 0.30299999E+02 -0.16364E+06
 0.30349998E+02 -0.15841E+06
 0.30399998E+02 -0.89329E+05
 0.30449997E+02 -0.45990E+05
 0.30499996E+02 -0.82616E+05
 0.30549999E+02 -0.21582E+05
 0.30599998E+02  0.25634E+05
 0.30649998E+02  0.60975E+05
 0.30699997E+02  0.77692E+04
 0.30749996E+02  0.50255E+04
 0.30799999E+02  0.10787E+06
 0.30849998E+02  0.60972E+05
 0.30899998E+02  0.38994E+05
 0.30949997E+02  0.69795E+05
 0.30999996E+02  0.76521E+05
 0.31049999E+02  0.13582E+06
 0.31099998E+02  0.16037E+06
 0.31149998E+02  0.16024E+06
 0.31199997E+02  0.17251E+06
 0.31249996E+02  0.74690E+05
 0.31299999E+02  0.97990E+05
 0.31349998E+02  0.12298E+06
 0.31399998E+02  0.14425E+06
 0.31449997E+02  0.19662E+06
 0.31499996E+02  0.16886E+06
 0.31549999E+02  0.16390E+06
 0.31599998E+02  0.15717E+06
 0.31649998E+02  0.16240E+06
 0.31699997E+02  0.64663E+05
 0.31749996E+02  0.18118E+05
 0.31799999E+02 -0.54360E+05
 0.31849998E+02 -0.12184E+06
 0.31899998E+02 -0.15659E+06
 0.31949997E+02 -0.12585E+06
 0.31999996E+02 -0.10175E+06
 0.32049999E+02 -0.91405E+05
 0.32099998E+02 -0.49371E+05
 0.32149998E+02 -0.13362E+06
 0.32199997E+02 -0.53741E+05
 0.32249996E+02 -0.69504E+04
 0.32299999E+02  0.29582E+05
 0.32349998E+02  0.31930E+05
 0.32399998E+02  0.54357E+05
 0.32449997E+02  0.11936E+06
 0.32499996E+02  0.95574E+05
 0.32549999E+02  0.71003E+05
 0.32599998E+02 -0.79781E+04
 0.32649998E+02 -0.12439E+06
 0.32699997E+02 -0.20380E+06
 0.32749996E+02 -0.17587E+06
 0.32799999E+02 -0.98100E+05
 0.32849998E+02  0.36442E+05
 0.32899998E+02  0.17720E+06
 0.32949997E+02  0.23152E+06
 0.32999996E+02  0.18829E+06
 0.33049999E+02  0.13561E+06
 0.33099998E+02  0.12632E+06
 0.33149998E+02  0.14998E+06
 0.33199997E+02  0.97020E+05
 0.33249996E+02  0.36705E+04
 0.33299999E+02 -0.59399E+05
 0.33349998E+02 -0.14227E+05
 0.33399998E+02  0.72413E+05
 0.33449997E+02  0.98530E+05
 0.33499996E+02  0.14175E+06
 0.33549999E+02  0.94730E+05
 0.33599998E+02 -0.44092E+05
 0.33649998E+02 -0.14277E+06
 0.33699997E+02 -0.97234E+05
 0.33749996E+02 -0.68452E+05
 0.33799999E+02 -0.83363E+05
 0.33849998E+02 -0.78509E+05
 0.33899998E+02 -0.18298E+06
 0.33949997E+02 -0.31113E+06
 0.33999996E+02 -0.27625E+06
 0.34049999E+02 -0.20836E+06
 0.34099998E+02 -0.81528E+05
 0.34149998E+02  0.66977E+05
 0.34199997E+02  0.98332E+05
 0.34249996E+02  0.13671E+06
 0.34299999E+02  0.11826E+06
 0.34349998E+02  0.99061E+05
 0.34399998E+02  0.11501E+06
 0.34449997E+02  0.15345E+06
 0.34499996E+02  0.26369E+06
 0.34549999E+02  0.35975E+06
 0.34599998E+02  0.39963E+06
 0.34649998E+02  0.38882E+06
 0.34699997E+02  0.25410E+06
 0.34749996E+02  0.93810E+05
 0.34799999E+02 -0.78911E+04
 0.34849998E+02 -0.12385E+06
 0.34899998E+02 -0.19863E+06
 0.34949997E+02 -0.21080E+06
 0.34999996E+02 -0.16217E+06
 0.35049999E+02 -0.65181E+05
 0.35099998E+02  0.85016E+05
 0.35149998E+02  0.20329E+06
 0.35199997E+02  0.19022E+06
 0.35249996E+02  0.11979E+06
 0.35299999E+02  0.12143E+06
 0.35349998E+02  0.91746E+05
 0.35399998E+02  0.31055E+05
 0.35449997E+02 -0.14936E+05
 0.35499996E+02 -0.59778E+05
 0.35549999E+02 -0.61065E+05
 0.35599998E+02 -0.64574E+05
 0.35649998E+02  0.55919E+04
 0.35699997E+02 -0.47570E+05
 0.35749996E+02 -0.10859E+06
 0.35799999E+02 -0.76701E+05
 0.35849998E+02 -0.11759E+05
 0.35899998E+02  0.34495E+05
 0.35949997E+02 -0.40499E+05
 0.35999996E+02 -0.11834E+06
 0.36049999E+02 -0.15386E+06
 0.36099998E+02 -0.14358E+06
 0.36149998E+02 -0.10318E+06
 0.36199997E+02 -0.53718E+05
 0.36249996E+02 -0.21078E+04
 0.36299999E+02  0.76659E+05
 0.36349998E+02  0.23396E+06
 0.36399998E+02  0.33538E+06
 0.36449997E+02  0.28164E+06
 0.36499996E+02  0.18907E+06
 0.36549999E+02  0.10780E+06
 0.36599998E+02  0.86144E+05
 0.36649998E+02  0.10558E+06
 0.36699997E+02  0.13766E+05
 0.36749996E+02 -0.86966E+05
 0.36799999E+02 -0.12197E+05
 0.36849998E+02  0.35376E+05
 0.36899998E+02  0.15685E+06
 0.36949997E+02  0.27949E+06
 0.36999996E+02  0.19125E+06
 0.37049999E+02  0.65622E+05
 0.37099998E+02  0.26988E+05
 0.37149998E+02  0.82390E+05
 0.37199997E+02 -0.53570E+05
 0.37249996E+02 -0.29550E+06
 0.37299999E+02 -0.36051E+06
 0.37349998E+02 -0.33681E+06
 0.37399998E+02 -0.32400E+06
 0.37449997E+02 -0.27252E+06
 0.37499996E+02 -0.17531E+06
 0.37549999E+02 -0.10389E+06
 0.37599998E+02 -0.15495E+05
 0.37649998E+02  0.18210E+06
 0.37699997E+02  0.32257E+06
 0.37749996E+02  0.28398E+06
 0.37799999E+02  0.27366E+06
 0.37849998E+02  0.25526E+06
 0.37899998E+02  0.16370E+06
 0.37949997E+02  0.94910E+05
 0.37999996E+02  0.55118E+05
 0.38049999E+02  0.84870E+05
 0.38099998E+02  0.10699E+06
 0.38149998E+02  0.27940E+05
 0.38199997E+02 -0.72919E+05
 0.38249996E+02 -0.10793E+06
 0.38299999E+02 -0.14075E+06
 0.38349998E+02 -0.13320E+06
 0.38399998E+02 -0.27083E+05
 0.38449997E+02  0.13154E+05
 0.38499996E+02  0.84618E+04
 0.38549999E+02  0.59687E+05
 0.38599998E+02  0.16369E+06
 0.38649998E+02  0.15471E+06
 0.38699997E+02  0.10785E+06
 0.38749996E+02 -0.46313E+04
 0.38799999E+02 -0.14630E+06
 0.38849998E+02 -0.13686E+06
 0.38899998E+02 -0.10088E+06
 0.38949997E+02 -0.26220E+05
 0.38999996E+02 -0.10580E+06
 0.39049999E+02 -0.25674E+06
 0.39099998E+02 -0.30574E+06
 0.39149998E+02 -0.26221E+06
 0.39199997E+02 -0.25015E+06
 0.39249996E+02 -0.18028E+06
 0.39299999E+02 -0.10141E+06
 0.39349998E+02 -0.53963E+05
 0.39399998E+02  0.29067E+05
 0.39449997E+02  0.71268E+05
 0.39499996E+02  0.21662E+06
 0.39549999E+02  0.22015E+06
 0.39599998E+02  0.48467E+05
 0.39649998E+02 -0.16883E+06
 0.39699997E+02 -0.24516E+06
 0.39749996E+02 -0.16798E+06
 0.39799999E+02 -0.59273E+05
 0.39849998E+02  0.82944E+05
 0.39899998E+02  0.20199E+06
 0.39949997E+02  0.20654E+06
 0.39999996E+02  0.46132E+05
 0.40049999E+02 -0.21010E+06
 0.40099998E+02 -0.40791E+06
 0.40149998E+02 -0.45805E+06
 0.40199997E+02 -0.40380E+06
 0.40249996E+02 -0.25444E+06
 0.40299999E+02 -0.12439E+06
 0.40349998E+02 -0.81542E+05
 0.40399998E+02 -0.25386E+05
 0.40449997E+02  0.21494E+05
 0.40499996E+02  0.15070E+05
 0.40549999E+02  0.62055E+05
 0.40599998E+02  0.85286E+05
 0.40649998E+02 -0.37291E+05
 0.40699997E+02 -0.16133E+06
 0.40749996E+02 -0.82036E+05
 0.40799999E+02  0.13495E+06
 0.40849998E+02  0.22659E+06
 0.40899998E+02 -0.34827E+05
 0.40949997E+02 -0.37067E+06
 0.40999996E+02 -0.46534E+06
 0.41049999E+02 -0.37055E+06
 0.41099998E+02 -0.23332E+06
 0.41149998E+02 -0.11661E+06
 0.41199997E+02 -0.22014E+03
 0.41249996E+02 -0.41620E+04
 0.41299999E+02 -0.16431E+06
 0.41349998E+02 -0.30800E+06
 0.41399998E+02 -0.34448E+06
 0.41449997E+02 -0.21592E+06
 0.41499996E+02  0.59306E+05
 0.41549999E+02  0.47952E+05
 0.41599998E+02 -0.26844E+06
 0.41649998E+02 -0.44084E+06
 0.41699997E+02 -0.33909E+06
 0.41749996E+02 -0.42966E+06
 0.41799999E+02 -0.73115E+06
 0.41849998E+02 -0.81931E+06
 0.41899998E+02 -0.37588E+06
 0.41949997E+02  0.61688E+06
 0.41999996E+02  0.16475E+07
 0.42049999E+02  0.23512E+07
 0.42099998E+02  0.22409E+07
 0.42149998E+02  0.11056E+07
 0.42199997E+02 -0.63474E+06
 0.42249996E+02 -0.18013E+07
 0.42299999E+02 -0.16458E+07
 0.42349998E+02 -0.45560E+06
 0.42399998E+02  0.66200E+06
 0.42449997E+02  0.87184E+06
 0.42499996E+02  0.48542E+06
 0.42549999E+02  0.38607E+05
 0.42599998E+02  0.32668E+06
 0.42649998E+02  0.10523E+07
 0.42699997E+02  0.12268E+07
 0.42749996E+02  0.36668E+06
 0.42799995E+02 -0.33299E+06
 0.42849998E+02 -0.62724E+05
 0.42899998E+02  0.39945E+06
 0.42949997E+02  0.63610E+06
 0.42999996E+02  0.50461E+06
 0.43049995E+02  0.24904E+06
 0.43099998E+02 -0.26494E+06
 0.43149998E+02 -0.60865E+06
 0.43199997E+02 -0.63817E+06
 0.43249996E+02 -0.52620E+06
 0.43299995E+02 -0.97421E+04
 0.43349998E+02  0.26802E+06
 0.43399998E+02 -0.67185E+05
 0.43449997E+02 -0.63239E+06
 0.43499996E+02 -0.81261E+06
 0.43549995E+02 -0.82826E+06
 0.43599998E+02 -0.88231E+06
 0.43649998E+02 -0.61840E+06
 0.43699997E+02 -0.33461E+05
 0.43749996E+02  0.93873E+06
 0.43799995E+02  0.16449E+07
 0.43849998E+02  0.17333E+07
 0.43899998E+02  0.14998E+07
 0.43949997E+02  0.58236E+06
 0.43999996E+02 -0.74754E+06
 0.44049995E+02 -0.18185E+07
 0.44099998E+02 -0.20926E+07
 0.44149998E+02 -0.10513E+07
 0.44199997E+02  0.34553E+06
 0.44249996E+02  0.97356E+06
 0.44299995E+02  0.60994E+06
 0.44349998E+02 -0.26922E+06
 0.44399998E+02 -0.27050E+06
 0.44449997E+02  0.26495E+06
 0.44499996E+02  0.32314E+06
 0.44549995E+02 -0.36458E+05
 0.44599998E+02 -0.61050E+06
 0.44649998E+02 -0.79736E+06
 0.44699997E+02 -0.89492E+06
 0.44749996E+02 -0.14865E+07
 0.44799995E+02 -0.20499E+07
 0.44849998E+02 -0.19805E+07
 0.44899998E+02 -0.16078E+07
 0.44949997E+02 -0.11323E+07
 0.44999996E+02 -0.78374E+06
 0.45049995E+02 -0.60118E+06
 0.45099998E+02 -0.33071E+06
 0.45149998E+02 -0.23848E+06
 0.45199997E+02 -0.51119E+06
 0.45249996E+02 -0.88518E+06
 0.45299995E+02 -0.10901E+07
 0.45349998E+02 -0.82854E+06
 0.45399998E+02 -0.52765E+06
 0.45449997E+02 -0.60636E+06
 0.45499996E+02 -0.76079E+06
 0.45549995E+02 -0.80526E+06
 0.45599998E+02 -0.65980E+06
 0.45649998E+02 -0.69747E+06
 0.45699997E+02 -0.52785E+06
 0.45749996E+02 -0.19867E+06
 0.45799995E+02  0.91664E+05
 0.45849998E+02  0.47528E+06
 0.45899998E+02  0.46615E+06
 0.45949997E+02  0.34642E+06
 0.45999996E+02  0.40270E+06
 0.46049995E+02  0.28784E+06
 0.46099998E+02  0.24051E+06
 0.46149998E+02  0.27767E+06
 0.46199997E+02  0.48307E+06
 0.46249996E+02  0.85771E+06
 0.46299995E+02  0.79726E+06
 0.46349998E+02  0.23792E+06
 0.46399998E+02 -0.26092E+06
 0.46449997E+02 -0.42672E+06
 0.46499996E+02 -0.54048E+06
 0.46549995E+02 -0.48022E+06
 0.46599998E+02 -0.34464E+06
 0.46649998E+02 -0.20030E+06
 0.46699997E+02 -0.24899E+06
 0.46749996E+02 -0.13424E+06
 0.46799995E+02  0.37944E+06
 0.46849998E+02  0.85475E+06
 0.46899998E+02  0.10795E+07
 0.46949997E+02  0.75937E+06
 0.46999996E+02  0.33054E+06
 0.47049995E+02  0.43924E+05
 0.47099998E+02 -0.37394E+05
 0.47149998E+02  0.27011E+06
 0.47199997E+02  0.47764E+06
 0.47249996E+02  0.72727E+05
 0.47299995E+02 -0.54955E+06
 0.47349998E+02 -0.82347E+06
 0.47399998E+02 -0.70082E+06
 0.47449997E+02 -0.29941E+06
 0.47499996E+02  0.20482E+06
 0.47549995E+02  0.53306E+06
 0.47599998E+02  0.47039E+06
 0.47649998E+02  0.36027E+06
 0.47699997E+02  0.41896E+06
 0.47749996E+02  0.60455E+06
 0.47799995E+02  0.71477E+06
 0.47849998E+02  0.61296E+06
 0.47899998E+02  0.58017E+06
 0.47949997E+02  0.63181E+06
 0.47999996E+02  0.56743E+06
 0.48049995E+02  0.60632E+06
 0.48099998E+02  0.66077E+06
 0.48149998E+02  0.50475E+06
 0.48199997E+02  0.23430E+06
 0.48249996E+02 -0.79209E+05
 0.48299995E+02 -0.28828E+06
 0.48349998E+02 -0.23756E+06
 0.48399998E+02 -0.93476E+05
 0.48449997E+02 -0.11566E+06
 0.48499996E+02 -0.13234E+06
 0.48549995E+02 -0.28347E+05
 0.48599998E+02  0.14528E+06
 0.48649998E+02  0.17483E+06
 0.48699997E+02 -0.19034E+05
 0.48749996E+02 -0.27592E+06
 0.48799995E+02 -0.47708E+06
 0.48849998E+02 -0.45354E+06
 0.48899998E+02 -0.16524E+06
 0.48949997E+02 -0.97636E+05
 0.48999996E+02 -0.22751E+06
 0.49049995E+02 -0.35902E+06
 0.49099998E+02 -0.44457E+06
 0.49149998E+02 -0.35687E+06
 0.49199997E+02 -0.16181E+06
 0.49249996E+02  0.19889E+06
 0.49299995E+02  0.54685E+06
 0.49349998E+02  0.70391E+06
 0.49399998E+02  0.71730E+06
 0.49449997E+02  0.61487E+06
 0.49499996E+02  0.54896E+06
 0.49549995E+02  0.69693E+06
 0.49599998E+02  0.94029E+06
 0.49649998E+02  0.12874E+07
 0.49699997E+02  0.13764E+07
 0.49749996E+02  0.97232E+06
 0.49799995E+02  0.33885E+06
 0.49849998E+02 -0.14571E+06
 0.49899998E+02 -0.29694E+06
 0.49949997E+02 -0.22465E+06
 0.49999996E+02 -0.15197E+06
 0.50049995E+02 -0.22744E+06
 0.50099998E+02 -0.33349E+06
 0.50149998E+02 -0.21179E+06
 0.50199997E+02  0.36899E+06
 0.50249996E+02  0.92635E+06
 0.50299995E+02  0.10880E+07
 0.50349998E+02  0.83548E+06
 0.50399998E+02  0.35024E+06
 0.50449997E+02 -0.26571E+06
 0.50499996E+02 -0.73130E+06
 0.50549995E+02 -0.86854E+06
 0.50599998E+02 -0.63889E+06
 0.50649998E+02 -0.23102E+06
 0.50699997E+02 -0.27284E+05
 0.50749996E+02 -0.10474E+06
 0.50799995E+02 -0.18812E+06
 0.50849998E+02 -0.17666E+06
 0.50899998E+02 -0.13177E+06
 0.50949997E+02  0.10956E+06
 0.50999996E+02  0.60644E+06
 0.51049995E+02  0.13226E+07
 0.51099998E+02  0.16673E+07
 0.51149998E+02  0.15007E+07
 0.51199997E+02  0.10236E+07
 0.51249996E+02  0.62002E+06
 0.51299995E+02  0.50500E+06
 0.51349998E+02  0.54371E+06
 0.51399998E+02  0.74384E+06
 0.51449997E+02  0.81232E+06
 0.51499996E+02  0.56956E+06
 0.51549995E+02  0.21461E+06
 0.51599998E+02 -0.47253E+05
 0.51649998E+02 -0.23057E+06
 0.51699997E+02 -0.18285E+06
 0.51749996E+02  0.10626E+05
 0.51799995E+02  0.65497E+05
 0.51849998E+02 -0.59083E+05
 0.51899998E+02 -0.16322E+06
 0.51949997E+02  0.16464E+06
 0.51999996E+02  0.61049E+06
 0.52049995E+02  0.79109E+06
 0.52099998E+02  0.48799E+06
 0.52149998E+02 -0.69451E+05
 0.52199997E+02 -0.60746E+06
 0.52249996E+02 -0.12035E+07
 0.52299995E+02 -0.14427E+07
 0.52349998E+02 -0.13051E+07
 0.52399998E+02 -0.91482E+06
 0.52449997E+02 -0.49954E+06
 0.52499996E+02 -0.18656E+06
 0.52549995E+02  0.21377E+06
 0.52599998E+02  0.73962E+06
 0.52649998E+02  0.11081E+07
 0.52699997E+02  0.14466E+07
 0.52749996E+02  0.18003E+07
 0.52799995E+02  0.19461E+07
 0.52849998E+02  0.18716E+07
 0.52899998E+02  0.15006E+07
 0.52949997E+02  0.10988E+07
 0.52999996E+02  0.74709E+06
 0.53049995E+02  0.58346E+06
 0.53099998E+02  0.60768E+06
 0.53149998E+02  0.83552E+06
 0.53199997E+02  0.12042E+07
 0.53249996E+02  0.15038E+07
 0.53299995E+02  0.14328E+07
 0.53349998E+02  0.10891E+07
 0.53399998E+02  0.88883E+06
 0.53449997E+02  0.82120E+06
 0.53499996E+02  0.85073E+06
 0.53549995E+02  0.88378E+06
 0.53599998E+02  0.97052E+06
 0.53649998E+02  0.12127E+07
 0.53699997E+02  0.16713E+07
 0.53749996E+02  0.19940E+07
 0.53799995E+02  0.19574E+07
 0.53849998E+02  0.16581E+07
 0.53899998E+02  0.11816E+07
 0.53949997E+02  0.65299E+06
 0.53999996E+02  0.27579E+06
 0.54049995E+02  0.22555E+06
 0.54099998E+02  0.31093E+06
 0.54149998E+02  0.44900E+06
 0.54199997E+02  0.54561E+06
 0.54249996E+02  0.62156E+06
 0.54299995E+02  0.86144E+06
 0.54349998E+02  0.11545E+07
 0.54399998E+02  0.14111E+07
 0.54449997E+02  0.14645E+07
 0.54499996E+02  0.13812E+07
 0.54549995E+02  0.12443E+07
 0.54599998E+02  0.78591E+06
 0.54649998E+02  0.29490E+06
 0.54699997E+02 -0.56965E+05
 0.54749996E+02 -0.24175E+06
 0.54799995E+02 -0.43602E+06
 0.54849998E+02 -0.78169E+06
 0.54899998E+02 -0.99514E+06
 0.54949997E+02 -0.10169E+07
 0.54999996E+02 -0.91034E+06
 0.55049995E+02 -0.98458E+06
 0.55099998E+02 -0.11620E+07
 0.55149998E+02 -0.12481E+07
 0.55199997E+02 -0.10510E+07
 0.55249996E+02 -0.78277E+06
 0.55299995E+02 -0.63269E+06
 0.55349998E+02 -0.39336E+06
 0.55399998E+02 -0.68647E+05
 0.55449997E+02  0.37401E+06
 0.55499996E+02  0.73158E+06
 0.55549995E+02  0.90864E+06
 0.55599998E+02  0.81899E+06
 0.55649998E+02  0.46912E+06
 0.55699997E+02 -0.12245E+06
 0.55749996E+02 -0.86031E+06
 0.55799995E+02 -0.13594E+07
 0.55849995E+02 -0.12324E+07
 0.55899998E+02 -0.69888E+06
 0.55949997E+02 -0.43873E+06
 0.55999996E+02 -0.57135E+06
 0.56049995E+02 -0.76754E+06
 0.56099995E+02 -0.80193E+06
 0.56149998E+02 -0.83994E+06
 0.56199997E+02 -0.10498E+07
 0.56249996E+02 -0.13948E+07
 0.56299995E+02 -0.18166E+07
 0.56349995E+02 -0.22380E+07
 0.56399998E+02 -0.25574E+07
 0.56449997E+02 -0.26514E+07
 0.56499996E+02 -0.25160E+07
 0.56549995E+02 -0.22856E+07
 0.56599995E+02 -0.22040E+07
 0.56649998E+02 -0.23343E+07
 0.56699997E+02 -0.24320E+07
 0.56749996E+02 -0.24902E+07
 0.56799995E+02 -0.23790E+07
 0.56849995E+02 -0.20648E+07
 0.56899998E+02 -0.17012E+07
 0.56949997E+02 -0.12314E+07
 0.56999996E+02 -0.67201E+06
 0.57049995E+02 -0.62483E+05
 0.57099995E+02  0.49666E+06
 0.57149998E+02  0.97017E+06
 0.57199997E+02  0.14519E+07
 0.57249996E+02  0.18881E+07
 0.57299995E+02  0.20162E+07
 0.57349995E+02  0.18722E+07
 0.57399998E+02  0.15603E+07
 0.57449997E+02  0.11331E+07
 0.57499996E+02  0.70046E+06
 0.57549995E+02  0.33956E+06
 0.57599995E+02  0.85479E+05
 0.57649998E+02 -0.26860E+05
 0.57699997E+02 -0.58621E+05
 0.57749996E+02 -0.15922E+06
 0.57799995E+02 -0.27373E+06
 0.57849995E+02 -0.43355E+06
 0.57899998E+02 -0.64393E+06
 0.57949997E+02 -0.90564E+06
 0.57999996E+02 -0.11437E+07
 0.58049995E+02 -0.13159E+07
 0.58099995E+02 -0.14894E+07
 0.58149998E+02 -0.15583E+07
 0.58199997E+02 -0.14371E+07
 0.58249996E+02 -0.12172E+07
 0.58299995E+02 -0.94880E+06
 0.58349995E+02 -0.65832E+06
 0.58399998E+02 -0.40979E+06
 0.58449997E+02 -0.35074E+05
 0.58499996E+02  0.42403E+06
 0.58549995E+02  0.78929E+06
 0.58599995E+02  0.87613E+06
 0.58649998E+02  0.79165E+06
 0.58699997E+02  0.70104E+06
 0.58749996E+02  0.58268E+06
 0.58799995E+02  0.62573E+06
 0.58849995E+02  0.72943E+06
 0.58899998E+02  0.81458E+06
 0.58949997E+02  0.91467E+06
 0.58999996E+02  0.10276E+07
 0.59049995E+02  0.11436E+07
 0.59099995E+02  0.11285E+07
 0.59149998E+02  0.91512E+06
 0.59199997E+02  0.57522E+06
 0.59249996E+02  0.13473E+06
 0.59299995E+02 -0.32068E+06
 0.59349995E+02 -0.67959E+06
 0.59399998E+02 -0.88013E+06
 0.59449997E+02 -0.87187E+06
 0.59499996E+02 -0.79230E+06
 0.59549995E+02 -0.75543E+06
 0.59599995E+02 -0.73623E+06
 0.59649998E+02 -0.71358E+06
 0.59699997E+02 -0.67607E+06
 0.59749996E+02 -0.48619E+06
 0.59799995E+02 -0.22206E+06
 0.59849995E+02  0.26591E+05
 0.59899998E+02  0.43817E+06
 0.59949997E+02  0.93746E+06
 0.59999996E+02  0.13254E+07
 0.60049995E+02  0.15809E+07
 0.60099995E+02  0.17403E+07
 0.60149998E+02  0.18535E+07
 0.60199997E+02  0.19752E+07
 0.60249996E+02  0.21495E+07
 0.60299995E+02  0.23061E+07
 0.60349995E+02  0.23346E+07
 0.60399998E+02  0.21647E+07
 0.60449997E+02  0.18242E+07
 0.60499996E+02  0.12540E+07
 0.60549995E+02  0.58500E+06
 0.60599995E+02  0.19938E+06
 0.60649998E+02  0.16273E+06
 0.60699997E+02  0.37664E+06
 0.60749996E+02  0.62234E+06
 0.60799995E+02  0.85254E+06
 0.60849995E+02  0.99572E+06
 0.60899998E+02  0.10300E+07
 0.60949997E+02  0.10612E+07
 0.60999996E+02  0.11807E+07
 0.61049995E+02  0.14235E+07
 0.61099995E+02  0.16710E+07
 0.61149998E+02  0.18561E+07
 0.61199997E+02  0.19377E+07
 0.61249996E+02  0.19086E+07
 0.61299995E+02  0.17279E+07
 0.61349995E+02  0.16107E+07
 0.61399998E+02  0.17200E+07
 0.61449997E+02  0.19029E+07
 0.61499996E+02  0.21304E+07
 0.61549995E+02  0.24352E+07
 0.61599995E+02  0.27314E+07
 0.61649998E+02  0.30370E+07
 0.61699997E+02  0.33350E+07
 0.61749996E+02  0.35153E+07
 0.61799995E+02  0.34858E+07
 0.61849995E+02  0.33323E+07
 0.61899998E+02  0.31410E+07
 0.61949997E+02  0.29110E+07
 0.61999996E+02  0.26549E+07
 0.62049995E+02  0.22835E+07
 0.62099998E+02  0.18980E+07
 0.62149994E+02  0.16494E+07
 0.62199997E+02  0.15244E+07
 0.62249992E+02  0.13574E+07
 0.62299995E+02  0.10199E+07
 0.62349998E+02  0.62341E+06
 0.62399994E+02  0.34541E+06
 0.62449997E+02  0.27232E+06
 0.62499992E+02  0.30132E+06
 0.62549995E+02  0.51347E+06
 0.62599998E+02  0.86948E+06
 0.62649994E+02  0.10936E+07
 0.62699997E+02  0.12028E+07
 0.62749992E+02  0.12837E+07
 0.62799995E+02  0.14343E+07
 0.62849998E+02  0.16456E+07
 0.62899994E+02  0.17653E+07
 0.62949997E+02  0.17743E+07
 0.62999992E+02  0.17325E+07
 0.63049995E+02  0.16552E+07
 0.63099998E+02  0.16327E+07
 0.63149994E+02  0.17776E+07
 0.63199997E+02  0.20486E+07
 0.63249992E+02  0.22920E+07
 0.63299995E+02  0.25132E+07
 0.63349998E+02  0.27250E+07
 0.63399994E+02  0.28960E+07
 0.63449997E+02  0.30697E+07
 0.63499992E+02  0.32069E+07
 0.63549995E+02  0.32322E+07
 0.63599998E+02  0.29913E+07
 0.63649994E+02  0.23846E+07
 0.63699997E+02  0.15413E+07
 0.63749992E+02  0.63635E+06
 0.63799995E+02 -0.14431E+06
 0.63849998E+02 -0.66046E+06
 0.63899994E+02 -0.91100E+06
 0.63949997E+02 -0.95555E+06
 0.63999992E+02 -0.88514E+06
 0.64049995E+02 -0.87466E+06
 0.64099998E+02 -0.10351E+07
 0.64149994E+02 -0.12593E+07
 0.64199997E+02 -0.14441E+07
 0.64249992E+02 -0.15005E+07
 0.64299995E+02 -0.13947E+07
 0.64349998E+02 -0.10994E+07
 0.64399994E+02 -0.67745E+06
 0.64449997E+02 -0.38731E+06
 0.64499992E+02 -0.26491E+06
 0.64549995E+02 -0.16167E+06
 0.64599998E+02 -0.77385E+04
 0.64649994E+02  0.19865E+06
 0.64699997E+02  0.38226E+06
 0.64749992E+02  0.47401E+06
 0.64799995E+02  0.46610E+06
 0.64849998E+02  0.41068E+06
 0.64899994E+02  0.41440E+06
 0.64949997E+02  0.47596E+06
 0.64999992E+02  0.52411E+06
 0.65049995E+02  0.48712E+06
 0.65099998E+02  0.35452E+06
 0.65149994E+02  0.17755E+06
 0.65199997E+02  0.68469E+04
 0.65249992E+02 -0.10772E+06
 0.65299995E+02 -0.18130E+06
 0.65349998E+02 -0.23483E+06
 0.65399994E+02 -0.32049E+06
 0.65449997E+02 -0.62527E+06
 0.65499992E+02 -0.10955E+07
 0.65549995E+02 -0.15167E+07
 0.65599998E+02 -0.17854E+07
 0.65649994E+02 -0.18912E+07
 0.65699997E+02 -0.19251E+07
 0.65749992E+02 -0.18652E+07
 0.65799995E+02 -0.17452E+07
 0.65849998E+02 -0.17221E+07
 0.65899994E+02 -0.18827E+07
 0.65949997E+02 -0.21124E+07
 0.65999992E+02 -0.22748E+07
 0.66049995E+02 -0.23240E+07
 0.66099998E+02 -0.22489E+07
 0.66149994E+02 -0.20264E+07
 0.66199997E+02 -0.16072E+07
 0.66249992E+02 -0.11221E+07
 0.66299995E+02 -0.67853E+06
 0.66349998E+02 -0.25915E+06
 0.66399994E+02  0.84149E+05
 0.66449997E+02  0.24671E+06
 0.66499992E+02  0.26217E+06
 0.66549995E+02  0.21075E+06
 0.66599998E+02  0.12468E+06
 0.66649994E+02  0.10178E+06
 0.66699997E+02  0.16768E+06
 0.66749992E+02  0.32518E+06
 0.66799995E+02  0.56473E+06
 0.66849998E+02  0.75487E+06
 0.66899994E+02  0.85564E+06
 0.66949997E+02  0.86487E+06
 0.66999992E+02  0.78791E+06
 0.67049995E+02  0.71605E+06
 0.67099998E+02  0.67582E+06
 0.67149994E+02  0.58693E+06
 0.67199997E+02  0.46916E+06
 0.67249992E+02  0.35405E+06
 0.67299995E+02  0.22883E+06
 0.67349998E+02  0.17973E+06
 0.67399994E+02  0.17777E+06
 0.67449997E+02  0.20325E+06
 0.67499992E+02  0.24464E+06
 0.67549995E+02  0.28759E+06
 0.67599998E+02  0.33528E+06
 0.67649994E+02  0.30143E+06
 0.67699997E+02  0.17614E+06
 0.67749992E+02  0.24388E+05
 0.67799995E+02 -0.42332E+05
 0.67849998E+02  0.63659E+05
 0.67899994E+02  0.33698E+06
 0.67949997E+02  0.73952E+06
 0.67999992E+02  0.12351E+07
 0.68049995E+02  0.17695E+07
 0.68099998E+02  0.22456E+07
 0.68149994E+02  0.25547E+07
 0.68199997E+02  0.26373E+07
 0.68249992E+02  0.25164E+07
 0.68299995E+02  0.22876E+07
 0.68349998E+02  0.20476E+07
 0.68399994E+02  0.18817E+07
 0.68449997E+02  0.17758E+07
 0.68499992E+02  0.16755E+07
 0.68549995E+02  0.15679E+07
 0.68599998E+02  0.14295E+07
 0.68649994E+02  0.12951E+07
 0.68699997E+02  0.11714E+07
 0.68749992E+02  0.10072E+07
 0.68799995E+02  0.83141E+06
 0.68849998E+02  0.71942E+06
 0.68899994E+02  0.65740E+06
 0.68949997E+02  0.56248E+06
 0.68999992E+02  0.46229E+06
 0.69049995E+02  0.47278E+06
 0.69099998E+02  0.54905E+06
 0.69149994E+02  0.61562E+06
 0.69199997E+02  0.66798E+06
 0.69249992E+02  0.73855E+06
 0.69299995E+02  0.83534E+06
 0.69349998E+02  0.95352E+06
 0.69399994E+02  0.10522E+07
 0.69449997E+02  0.10781E+07
 0.69499992E+02  0.10933E+07
 0.69549995E+02  0.11913E+07
 0.69599998E+02  0.13576E+07
 0.69649994E+02  0.15466E+07
 0.69699997E+02  0.18152E+07
 0.69749992E+02  0.21062E+07
 0.69799995E+02  0.23630E+07
 0.69849998E+02  0.25648E+07
 0.69899994E+02  0.26295E+07
 0.69949997E+02  0.25367E+07
 0.69999992E+02  0.23453E+07
 0.70049995E+02  0.21497E+07
 0.70099998E+02  0.20192E+07
 0.70149994E+02  0.19965E+07
 0.70199997E+02  0.20205E+07
 0.70249992E+02  0.19808E+07
 0.70299995E+02  0.19059E+07
 0.70349998E+02  0.17960E+07
 0.70399994E+02  0.16060E+07
 0.70449997E+02  0.13676E+07
 0.70499992E+02  0.12077E+07
 0.70549995E+02  0.12003E+07
 0.70599998E+02  0.13049E+07
 0.70649994E+02  0.14581E+07
 0.70699997E+02  0.15963E+07
 0.70749992E+02  0.17106E+07
 0.70799995E+02  0.17654E+07
 0.70849998E+02  0.17458E+07
 0.70899994E+02  0.16317E+07
 0.70949997E+02  0.14985E+07
 0.70999992E+02  0.13910E+07
 0.71049995E+02  0.12938E+07
 0.71099998E+02  0.11768E+07
 0.71149994E+02  0.99598E+06
 0.71199997E+02  0.77669E+06
 0.71249992E+02  0.55140E+06
 0.71299995E+02  0.36988E+06
 0.71349998E+02  0.23799E+06
 0.71399994E+02  0.17914E+06
 0.71449997E+02  0.17830E+06
 0.71499992E+02  0.23461E+06
 0.71549995E+02  0.35536E+06
 0.71599998E+02  0.50588E+06
 0.71649994E+02  0.67955E+06
 0.71699997E+02  0.84238E+06
 0.71749992E+02  0.95134E+06
 0.71799995E+02  0.98320E+06
 0.71849998E+02  0.99126E+06
 0.71899994E+02  0.10077E+07
 0.71949997E+02  0.10095E+07
 0.71999992E+02  0.96323E+06
 0.72049995E+02  0.85160E+06
 0.72099998E+02  0.71293E+06
 0.72149994E+02  0.54511E+06
 0.72199997E+02  0.39530E+06
 0.72249992E+02  0.25676E+06
 0.72299995E+02  0.67326E+05
 0.72349998E+02 -0.12761E+06
 0.72399994E+02 -0.22793E+06
 0.72449997E+02 -0.21197E+06
 0.72499992E+02 -0.16275E+06
 0.72549995E+02 -0.13182E+06
 0.72599998E+02 -0.12087E+06
 0.72649994E+02 -0.10714E+06
 0.72699997E+02 -0.77826E+05
 0.72749992E+02  0.80303E+04
 0.72799995E+02  0.90877E+05
 0.72849998E+02  0.88432E+05
 0.72899994E+02 -0.27431E+05
 0.72949997E+02 -0.29382E+06
 0.72999992E+02 -0.64558E+06
 0.73049995E+02 -0.10148E+07
 0.73099998E+02 -0.13589E+07
 0.73149994E+02 -0.16668E+07
 0.73199997E+02 -0.18971E+07
 0.73249992E+02 -0.20231E+07
 0.73299995E+02 -0.20337E+07
 0.73349998E+02 -0.18870E+07
 0.73399994E+02 -0.16313E+07
 0.73449997E+02 -0.13581E+07
 0.73499992E+02 -0.10748E+07
 0.73549995E+02 -0.77608E+06
 0.73599998E+02 -0.46645E+06
 0.73649994E+02 -0.17844E+06
 0.73699997E+02  0.99453E+04
 0.73749992E+02  0.11845E+06
 0.73799995E+02  0.23320E+06
 0.73849998E+02  0.42485E+06
 0.73899994E+02  0.68609E+06
 0.73949997E+02  0.97140E+06
 0.73999992E+02  0.11923E+07
 0.74049995E+02  0.13140E+07
 0.74099998E+02  0.13294E+07
 0.74149994E+02  0.12162E+07
 0.74199997E+02  0.10271E+07
 0.74249992E+02  0.79214E+06
 0.74299995E+02  0.59110E+06
 0.74349998E+02  0.46724E+06
 0.74399994E+02  0.37657E+06
 0.74449997E+02  0.30055E+06
 0.74499992E+02  0.24741E+06
 0.74549995E+02  0.22287E+06
 0.74599998E+02  0.20588E+06
 0.74649994E+02  0.21601E+06
 0.74699997E+02  0.23419E+06
 0.74749992E+02  0.19998E+06
 0.74799995E+02  0.10552E+06
 0.74849998E+02 -0.12434E+05
 0.74899994E+02 -0.63660E+05
 0.74949997E+02 -0.31071E+05
 0.74999992E+02  0.72062E+05
 0.75049995E+02  0.26774E+06
 0.75099998E+02  0.58811E+06
 0.75149994E+02  0.10146E+07
 0.75199997E+02  0.14559E+07
 0.75249992E+02  0.18243E+07
 0.75299995E+02  0.20304E+07
 0.75349998E+02  0.20385E+07
 0.75399994E+02  0.19376E+07
 0.75449997E+02  0.18524E+07
 0.75499992E+02  0.18215E+07
 0.75549995E+02  0.18981E+07
 0.75599998E+02  0.20321E+07
 0.75649994E+02  0.21427E+07
 0.75699997E+02  0.22194E+07
 0.75749992E+02  0.22440E+07
 0.75799995E+02  0.22218E+07
 0.75849998E+02  0.21410E+07
 0.75899994E+02  0.20070E+07
 0.75949997E+02  0.18401E+07
 0.75999992E+02  0.16632E+07
 0.76049995E+02  0.14720E+07
 0.76099998E+02  0.12690E+07
 0.76149994E+02  0.10821E+07
 0.76199997E+02  0.93894E+06
 0.76249992E+02  0.87145E+06
 0.76299995E+02  0.89364E+06
 0.76349998E+02  0.98628E+06
 0.76399994E+02  0.11284E+07
 0.76449997E+02  0.12976E+07
 0.76499992E+02  0.14782E+07
 0.76549995E+02  0.16174E+07
 0.76599998E+02  0.17004E+07
 0.76649994E+02  0.17476E+07
 0.76699997E+02  0.17235E+07
 0.76749992E+02  0.16248E+07
 0.76799995E+02  0.14444E+07
 0.76849998E+02  0.12177E+07
 0.76899994E+02  0.99018E+06
 0.76949997E+02  0.76963E+06
 0.76999992E+02  0.57467E+06
 0.77049995E+02  0.40666E+06
 0.77099998E+02  0.24490E+06
 0.77149994E+02  0.79705E+05
 0.77199997E+02 -0.39146E+05
 0.77249992E+02 -0.92978E+05
 0.77299995E+02 -0.10952E+06
 0.77349998E+02 -0.76556E+05
 0.77399994E+02 -0.16735E+05
 0.77449997E+02  0.34510E+05
 0.77499992E+02  0.11647E+06
 0.77549995E+02  0.22769E+06
 0.77599998E+02  0.35326E+06
 0.77649994E+02  0.52179E+06
 0.77699997E+02  0.70487E+06
 0.77749992E+02  0.86024E+06
 0.77799995E+02  0.98793E+06
 0.77849998E+02  0.10981E+07
 0.77899994E+02  0.11942E+07
 0.77949997E+02  0.13029E+07
 0.77999992E+02  0.14407E+07
 0.78049995E+02  0.15896E+07
 0.78099998E+02  0.16828E+07
 0.78149994E+02  0.16732E+07
 0.78199997E+02  0.15759E+07
 0.78249992E+02  0.14188E+07
 0.78299995E+02  0.12308E+07
 0.78349998E+02  0.10077E+07
 0.78399994E+02  0.78155E+06
 0.78449997E+02  0.59358E+06
 0.78499992E+02  0.42320E+06
 0.78549995E+02  0.26207E+06
 0.78599998E+02  0.10036E+06
 0.78649994E+02 -0.41984E+05
 0.78699997E+02 -0.12974E+06
 0.78749992E+02 -0.17749E+06
 0.78799995E+02 -0.16374E+06
 0.78849998E+02 -0.59770E+05
 0.78899994E+02  0.12710E+06
 0.78949997E+02  0.35532E+06
 0.78999992E+02  0.59145E+06
 0.79049995E+02  0.80813E+06
 0.79099998E+02  0.10119E+07
 0.79149994E+02  0.12215E+07
 0.79199997E+02  0.14264E+07
 0.79249992E+02  0.15901E+07
 0.79299995E+02  0.17010E+07
 0.79349998E+02  0.18062E+07
 0.79399994E+02  0.19051E+07
 0.79449997E+02  0.20041E+07
 0.79499992E+02  0.20850E+07
 0.79549995E+02  0.21115E+07
 0.79599998E+02  0.20995E+07
 0.79649994E+02  0.20633E+07
 0.79699997E+02  0.19844E+07
 0.79749992E+02  0.18578E+07
 0.79799995E+02  0.16955E+07
 0.79849998E+02  0.14863E+07
 0.79899994E+02  0.11938E+07
 0.79949997E+02  0.81717E+06
 0.79999992E+02  0.44088E+06
 0.80049995E+02  0.12361E+06
 0.80099998E+02 -0.14189E+06
 0.80149994E+02 -0.36860E+06
 0.80199997E+02 -0.55443E+06
 0.80249992E+02 -0.65949E+06
 0.80299995E+02 -0.69471E+06
 0.80349998E+02 -0.72018E+06
 0.80399994E+02 -0.73551E+06
 0.80449997E+02 -0.68384E+06
 0.80499992E+02 -0.53108E+06
 0.80549995E+02 -0.30560E+06
 0.80599998E+02 -0.44746E+05
 0.80649994E+02  0.18458E+06
 0.80699997E+02  0.33571E+06
 0.80749992E+02  0.43385E+06
 0.80799995E+02  0.53973E+06
 0.80849998E+02  0.66418E+06
 0.80899994E+02  0.75870E+06
 0.80949997E+02  0.81942E+06
 0.80999992E+02  0.84500E+06
 0.81049995E+02  0.83154E+06
 0.81099998E+02  0.76732E+06
 0.81149994E+02  0.66409E+06
 0.81199997E+02  0.54965E+06
 0.81249992E+02  0.46122E+06
 0.81299995E+02  0.43377E+06
 0.81349998E+02  0.43603E+06
 0.81399994E+02  0.42921E+06
 0.81449997E+02  0.38002E+06
 0.81499992E+02  0.30139E+06
 0.81549995E+02  0.22015E+06
 0.81599998E+02  0.16218E+06
 0.81649994E+02  0.13765E+06
 0.81699997E+02  0.14271E+06
 0.81749992E+02  0.16575E+06
 0.81799995E+02  0.20382E+06
 0.81849998E+02  0.27270E+06
 0.81899994E+02  0.36524E+06
 0.81949997E+02  0.47404E+06
 0.81999992E+02  0.55798E+06
 0.82049995E+02  0.59288E+06
 0.82099998E+02  0.58507E+06
 0.82149994E+02  0.55659E+06
 0.82199997E+02  0.54429E+06
 0.82249992E+02  0.57351E+06
 0.82299995E+02  0.63621E+06
 0.82349998E+02  0.73513E+06
 0.82399994E+02  0.89698E+06
 0.82449997E+02  0.10701E+07
 0.82499992E+02  0.12217E+07
 0.82549995E+02  0.13521E+07
 0.82599998E+02  0.14611E+07
 0.82649994E+02  0.15173E+07
 0.82699997E+02  0.14852E+07
 0.82749992E+02  0.13862E+07
 0.82799995E+02  0.12380E+07
 0.82849998E+02  0.10872E+07
 0.82899994E+02  0.94952E+06
 0.82949997E+02  0.81441E+06
 0.82999992E+02  0.67817E+06
 0.83049995E+02  0.55686E+06
 0.83099998E+02  0.48175E+06
 0.83149994E+02  0.44748E+06
 0.83199997E+02  0.44071E+06
 0.83249992E+02  0.44775E+06
 0.83299995E+02  0.49886E+06
 0.83349998E+02  0.63890E+06
 0.83399994E+02  0.84742E+06
 0.83449997E+02  0.10659E+07
 0.83499992E+02  0.12400E+07
 0.83549995E+02  0.13537E+07
 0.83599998E+02  0.14150E+07
 0.83649994E+02  0.14171E+07
 0.83699997E+02  0.13414E+07
 0.83749992E+02  0.12015E+07
 0.83799995E+02  0.10356E+07
 0.83849998E+02  0.87753E+06
 0.83899994E+02  0.75841E+06
 0.83949997E+02  0.67195E+06
 0.83999992E+02  0.62415E+06
 0.84049995E+02  0.63964E+06
 0.84099998E+02  0.71524E+06
 0.84149994E+02  0.83782E+06
 0.84199997E+02  0.98592E+06
 0.84249992E+02  0.11245E+07
 0.84299995E+02  0.12185E+07
 0.84349998E+02  0.12523E+07
 0.84399994E+02  0.12097E+07
 0.84449997E+02  0.10922E+07
 0.84499992E+02  0.92398E+06
 0.84549995E+02  0.71850E+06
 0.84599998E+02  0.49606E+06
 0.84649994E+02  0.30911E+06
 0.84699997E+02  0.20425E+06
 0.84749992E+02  0.16377E+06
 0.84799995E+02  0.15348E+06
 0.84849998E+02  0.16968E+06
 0.84899994E+02  0.22242E+06
 0.84949997E+02  0.32622E+06
 0.84999992E+02  0.47079E+06
 0.85049995E+02  0.62180E+06
 0.85099998E+02  0.74401E+06
 0.85149994E+02  0.82025E+06
 0.85199997E+02  0.84435E+06
 0.85249992E+02  0.79847E+06
 0.85299995E+02  0.70033E+06
 0.85349998E+02  0.59839E+06
 0.85399994E+02  0.54819E+06
 0.85449997E+02  0.56062E+06
 0.85499992E+02  0.60229E+06
 0.85549995E+02  0.64934E+06
 0.85599998E+02  0.67246E+06
 0.85649994E+02  0.66891E+06
 0.85699997E+02  0.66018E+06
 0.85749992E+02  0.64837E+06
 0.85799995E+02  0.62414E+06
 0.85849998E+02  0.58421E+06
 0.85899994E+02  0.49524E+06
 0.85949997E+02  0.33503E+06
 0.85999992E+02  0.14872E+06
 0.86049995E+02  0.13123E+05
 0.86099998E+02 -0.40708E+05
 0.86149994E+02 -0.23307E+05
 0.86199997E+02  0.44663E+05
 0.86249992E+02  0.14528E+06
 0.86299995E+02  0.28885E+06
 0.86349998E+02  0.45679E+06
 0.86399994E+02  0.65001E+06
 0.86449997E+02  0.87158E+06
 0.86499992E+02  0.11010E+07
 0.86549995E+02  0.12836E+07
 0.86599998E+02  0.13772E+07
 0.86649994E+02  0.13932E+07
 0.86699997E+02  0.13477E+07
 0.86749992E+02  0.12604E+07
 0.86799995E+02  0.11241E+07
 0.86849998E+02  0.97583E+06
 0.86899994E+02  0.87697E+06
 0.86949997E+02  0.85105E+06
 0.86999992E+02  0.88775E+06
 0.87049995E+02  0.95208E+06
 0.87099998E+02  0.10300E+07
 0.87149994E+02  0.11370E+07
 0.87199997E+02  0.12482E+07
 0.87249992E+02  0.13117E+07
 0.87299995E+02  0.13031E+07
 0.87349998E+02  0.12361E+07
 0.87399994E+02  0.11430E+07
 0.87449997E+02  0.10492E+07
 0.87499992E+02  0.97953E+06
 0.87549995E+02  0.94513E+06
 0.87599991E+02  0.93443E+06
 0.87649994E+02  0.94540E+06
 0.87699997E+02  0.96090E+06
 0.87749992E+02  0.98465E+06
 0.87799995E+02  0.10506E+07
 0.87849991E+02  0.11853E+07
 0.87899994E+02  0.13734E+07
 0.87949997E+02  0.15498E+07
 0.87999992E+02  0.16761E+07
 0.88049995E+02  0.17117E+07
 0.88099991E+02  0.16751E+07
 0.88149994E+02  0.16150E+07
 0.88199997E+02  0.15497E+07
 0.88249992E+02  0.14972E+07
 0.88299995E+02  0.14789E+07
 0.88349991E+02  0.15046E+07
 0.88399994E+02  0.15413E+07
 0.88449997E+02  0.15429E+07
 0.88499992E+02  0.15075E+07
 0.88549995E+02  0.14674E+07
 0.88599991E+02  0.14260E+07
 0.88649994E+02  0.13564E+07
 0.88699997E+02  0.12445E+07
 0.88749992E+02  0.11032E+07
 0.88799995E+02  0.94948E+06
 0.88849991E+02  0.81694E+06
 0.88899994E+02  0.72552E+06
 0.88949997E+02  0.66377E+06
 0.88999992E+02  0.63396E+06
 0.89049995E+02  0.64235E+06
 0.89099991E+02  0.67801E+06
 0.89149994E+02  0.72435E+06
 0.89199997E+02  0.76437E+06
 0.89249992E+02  0.78208E+06
 0.89299995E+02  0.76825E+06
 0.89349991E+02  0.73198E+06
 0.89399994E+02  0.68466E+06
 0.89449997E+02  0.63217E+06
 0.89499992E+02  0.57290E+06
 0.89549995E+02  0.49349E+06
 0.89599991E+02  0.39915E+06
 0.89649994E+02  0.31023E+06
 0.89699997E+02  0.24897E+06
 0.89749992E+02  0.22839E+06
 0.89799995E+02  0.25545E+06
 0.89849991E+02  0.33575E+06
 0.89899994E+02  0.44539E+06
 0.89949997E+02  0.56230E+06
 0.89999992E+02  0.64227E+06
 0.90049995E+02  0.67211E+06
 0.90099991E+02  0.68212E+06
 0.90149994E+02  0.68172E+06
 0.90199997E+02  0.66348E+06
 0.90249992E+02  0.60501E+06
 0.90299995E+02  0.53184E+06
 0.90349991E+02  0.45347E+06
 0.90399994E+02  0.34078E+06
 0.90449997E+02  0.17411E+06
 0.90499992E+02 -0.34871E+05
 0.90549995E+02 -0.25221E+06
 0.90599991E+02 -0.45303E+06
 0.90649994E+02 -0.60222E+06
 0.90699997E+02 -0.65380E+06
 0.90749992E+02 -0.59162E+06
 0.90799995E+02 -0.44818E+06
 0.90849991E+02 -0.26479E+06
 0.90899994E+02 -0.66185E+05
 0.90949997E+02  0.11341E+06
 0.90999992E+02  0.23605E+06
 0.91049995E+02  0.28814E+06
 0.91099991E+02  0.29811E+06
 0.91149994E+02  0.30867E+06
 0.91199997E+02  0.32651E+06
 0.91249992E+02  0.34570E+06
 0.91299995E+02  0.36741E+06
 0.91349991E+02  0.39056E+06
 0.91399994E+02  0.41616E+06
 0.91449997E+02  0.45462E+06
 0.91499992E+02  0.52456E+06
 0.91549995E+02  0.62762E+06
 0.91599991E+02  0.74763E+06
 0.91649994E+02  0.87658E+06
 0.91699997E+02  0.97515E+06
 0.91749992E+02  0.10049E+07
 0.91799995E+02  0.96165E+06
 0.91849991E+02  0.88629E+06
 0.91899994E+02  0.82013E+06
 0.91949997E+02  0.76466E+06
 0.91999992E+02  0.73093E+06
 0.92049995E+02  0.71682E+06
 0.92099991E+02  0.71079E+06
 0.92149994E+02  0.73096E+06
 0.92199997E+02  0.78888E+06
 0.92249992E+02  0.86755E+06
 0.92299995E+02  0.96106E+06
 0.92349991E+02  0.10667E+07
 0.92399994E+02  0.11828E+07
 0.92449997E+02  0.13042E+07
 0.92499992E+02  0.14191E+07
 0.92549995E+02  0.15312E+07
 0.92599991E+02  0.16489E+07
 0.92649994E+02  0.17713E+07
 0.92699997E+02  0.18864E+07
 0.92749992E+02  0.19656E+07
 0.92799995E+02  0.20044E+07
 0.92849991E+02  0.20060E+07
 0.92899994E+02  0.19782E+07
 0.92949997E+02  0.19439E+07
 0.92999992E+02  0.18931E+07
 0.93049995E+02  0.18215E+07
 0.93099991E+02  0.17592E+07
 0.93149994E+02  0.17159E+07
 0.93199997E+02  0.16870E+07
 0.93249992E+02  0.16620E+07
 0.93299995E+02  0.16302E+07
 0.93349991E+02  0.15862E+07
 0.93399994E+02  0.15037E+07
 0.93449997E+02  0.13843E+07
 0.93499992E+02  0.12548E+07
 0.93549995E+02  0.11400E+07
 0.93599991E+02  0.10637E+07
 0.93649994E+02  0.10411E+07
 0.93699997E+02  0.10847E+07
 0.93749992E+02  0.11804E+07
 0.93799995E+02  0.12955E+07
 0.93849991E+02  0.14062E+07
 0.93899994E+02  0.15000E+07
 0.93949997E+02  0.15694E+07
 0.93999992E+02  0.15931E+07
 0.94049995E+02  0.15841E+07
 0.94099991E+02  0.15629E+07
 0.94149994E+02  0.15224E+07
 0.94199997E+02  0.14658E+07
 0.94249992E+02  0.14002E+07
 0.94299995E+02  0.13126E+07
 0.94349991E+02  0.12037E+07
 0.94399994E+02  0.11031E+07
 0.94449997E+02  0.99909E+06
 0.94499992E+02  0.87438E+06
 0.94549995E+02  0.73612E+06
 0.94599991E+02  0.58769E+06
 0.94649994E+02  0.41877E+06
 0.94699997E+02  0.22581E+06
 0.94749992E+02  0.47331E+05
 0.94799995E+02 -0.86612E+05
 0.94849991E+02 -0.17616E+06
 0.94899994E+02 -0.21910E+06
 0.94949997E+02 -0.21081E+06
 0.94999992E+02 -0.16046E+06
 0.95049995E+02 -0.87981E+05
 0.95099991E+02 -0.10923E+05
 0.95149994E+02  0.64515E+05
 0.95199997E+02  0.15019E+06
 0.95249992E+02  0.24709E+06
 0.95299995E+02  0.34724E+06
 0.95349991E+02  0.45069E+06
 0.95399994E+02  0.55826E+06
 0.95449997E+02  0.64941E+06
 0.95499992E+02  0.70869E+06
 0.95549995E+02  0.73642E+06
 0.95599991E+02  0.72695E+06
 0.95649994E+02  0.68867E+06
 0.95699997E+02  0.64583E+06
 0.95749992E+02  0.63366E+06
 0.95799995E+02  0.65980E+06
 0.95849991E+02  0.72091E+06
 0.95899994E+02  0.81397E+06
 0.95949997E+02  0.90953E+06
 0.95999992E+02  0.98219E+06
 0.96049995E+02  0.10296E+07
 0.96099991E+02  0.10576E+07
 0.96149994E+02  0.10792E+07
 0.96199997E+02  0.11043E+07
 0.96249992E+02  0.11324E+07
 0.96299995E+02  0.11500E+07
 0.96349991E+02  0.11475E+07
 0.96399994E+02  0.11333E+07
 0.96449997E+02  0.11088E+07
 0.96499992E+02  0.10777E+07
 0.96549995E+02  0.10619E+07
 0.96599991E+02  0.10859E+07
 0.96649994E+02  0.11405E+07
 0.96699997E+02  0.11939E+07
 0.96749992E+02  0.12385E+07
 0.96799995E+02  0.12861E+07
 0.96849991E+02  0.13311E+07
 0.96899994E+02  0.13665E+07
 0.96949997E+02  0.13847E+07
 0.96999992E+02  0.13759E+07
 0.97049995E+02  0.13353E+07
 0.97099991E+02  0.12617E+07
 0.97149994E+02  0.11639E+07
 0.97199997E+02  0.10688E+07
 0.97249992E+02  0.10044E+07
 0.97299995E+02  0.96617E+06
 0.97349991E+02  0.95959E+06
 0.97399994E+02  0.99916E+06
 0.97449997E+02  0.10687E+07
 0.97499992E+02  0.11322E+07
 0.97549995E+02  0.11737E+07
 0.97599991E+02  0.11893E+07
 0.97649994E+02  0.11703E+07
 0.97699997E+02  0.11258E+07
 0.97749992E+02  0.10626E+07
 0.97799995E+02  0.98515E+06
 0.97849991E+02  0.91763E+06
 0.97899994E+02  0.88225E+06
 0.97949997E+02  0.88062E+06
 0.97999992E+02  0.91165E+06
