-0.20000000E+01 -0.80442E+04
-0.19500000E+01 -0.79974E+04
-0.19000000E+01 -0.80220E+04
-0.18500000E+01 -0.80028E+04
-0.18000000E+01 -0.80064E+04
-0.17500000E+01 -0.80011E+04
-0.17000000E+01 -0.80126E+04
-0.16500001E+01 -0.80060E+04
-0.16000000E+01 -0.80167E+04
-0.15500000E+01 -0.80371E+04
-0.15000000E+01 -0.80396E+04
-0.14500000E+01 -0.80625E+04
-0.14000001E+01 -0.80849E+04
-0.13500000E+01 -0.81291E+04
-0.13000001E+01 -0.81267E+04
-0.12500000E+01 -0.81399E+04
-0.12000000E+01 -0.81529E+04
-0.11500001E+01 -0.81566E+04
-0.11000000E+01 -0.81736E+04
-0.10500001E+01 -0.81895E+04
-0.10000000E+01 -0.82317E+04
-0.95000005E+00 -0.82328E+04
-0.90000010E+00 -0.82111E+04
-0.85000002E+00 -0.81921E+04
-0.80000007E+00 -0.81561E+04
-0.75000012E+00 -0.81201E+04
-0.70000005E+00 -0.80889E+04
-0.65000010E+00 -0.80731E+04
-0.60000014E+00 -0.80733E+04
-0.55000007E+00 -0.80852E+04
-0.50000012E+00 -0.81196E+04
-0.45000005E+00 -0.81521E+04
-0.40000010E+00 -0.81895E+04
-0.35000014E+00 -0.82039E+04
-0.30000007E+00 -0.82189E+04
-0.25000012E+00 -0.82176E+04
-0.20000005E+00 -0.81947E+04
-0.15000010E+00 -0.81635E+04
-0.10000014E+00 -0.81388E+04
-0.50000072E-01 -0.81145E+04
-0.11920929E-06 -0.81024E+04
 0.49999952E-01 -0.81114E+04
 0.99999905E-01 -0.81273E+04
 0.14999986E+00 -0.81265E+04
 0.19999981E+00 -0.81273E+04
 0.24999976E+00 -0.81313E+04
 0.29999995E+00 -0.81175E+04
 0.34999990E+00 -0.81224E+04
 0.39999986E+00 -0.80999E+04
 0.44999981E+00 -0.80965E+04
 0.49999976E+00 -0.80818E+04
 0.54999995E+00 -0.80966E+04
 0.59999990E+00 -0.80979E+04
 0.64999986E+00 -0.80909E+04
 0.69999981E+00 -0.81152E+04
 0.74999976E+00 -0.80992E+04
 0.79999971E+00 -0.81206E+04
 0.84999990E+00 -0.81460E+04
 0.89999986E+00 -0.81479E+04
 0.94999981E+00 -0.81551E+04
 0.99999976E+00 -0.81371E+04
 0.10499997E+01 -0.81276E+04
 0.10999999E+01 -0.81159E+04
 0.11499999E+01 -0.81016E+04
 0.11999998E+01 -0.81008E+04
 0.12499998E+01 -0.80988E+04
 0.12999997E+01 -0.81102E+04
 0.13499999E+01 -0.81095E+04
 0.13999999E+01 -0.81280E+04
 0.14499998E+01 -0.81076E+04
 0.14999998E+01 -0.81090E+04
 0.15499997E+01 -0.80970E+04
 0.15999999E+01 -0.80806E+04
 0.16499999E+01 -0.80958E+04
 0.16999998E+01 -0.80856E+04
 0.17499998E+01 -0.81119E+04
 0.17999997E+01 -0.81007E+04
 0.18499997E+01 -0.81116E+04
 0.18999999E+01 -0.81124E+04
 0.19499998E+01 -0.81143E+04
 0.19999998E+01 -0.80953E+04
 0.20499997E+01 -0.80829E+04
 0.20999999E+01 -0.80819E+04
 0.21499996E+01 -0.81037E+04
 0.21999998E+01 -0.81276E+04
 0.22499995E+01 -0.81282E+04
 0.22999997E+01 -0.81700E+04
 0.23499999E+01 -0.81522E+04
 0.23999996E+01 -0.81824E+04
 0.24499998E+01 -0.81673E+04
 0.24999995E+01 -0.81832E+04
 0.25499997E+01 -0.81797E+04
 0.25999999E+01 -0.81781E+04
 0.26499996E+01 -0.82006E+04
 0.26999998E+01 -0.82119E+04
 0.27499995E+01 -0.82489E+04
 0.27999997E+01 -0.82316E+04
 0.28499999E+01 -0.82259E+04
 0.28999996E+01 -0.82136E+04
 0.29499998E+01 -0.82127E+04
 0.29999995E+01 -0.81985E+04
 0.30499997E+01 -0.81789E+04
 0.30999999E+01 -0.81669E+04
 0.31499996E+01 -0.81652E+04
 0.31999998E+01 -0.81333E+04
 0.32499995E+01 -0.81048E+04
 0.32999997E+01 -0.80909E+04
 0.33499999E+01 -0.80648E+04
 0.33999996E+01 -0.80617E+04
 0.34499998E+01 -0.80511E+04
 0.34999995E+01 -0.80664E+04
 0.35499997E+01 -0.80823E+04
 0.35999994E+01 -0.80817E+04
 0.36499996E+01 -0.80875E+04
 0.36999998E+01 -0.80718E+04
 0.37499995E+01 -0.80735E+04
 0.37999997E+01 -0.80536E+04
 0.38499994E+01 -0.80543E+04
 0.38999996E+01 -0.80442E+04
 0.39499998E+01 -0.80477E+04
 0.39999995E+01 -0.80375E+04
 0.40499997E+01 -0.80096E+04
 0.40999994E+01 -0.80072E+04
 0.41499996E+01 -0.79782E+04
 0.41999998E+01 -0.79889E+04
 0.42499995E+01 -0.79855E+04
 0.42999997E+01 -0.80104E+04
 0.43499994E+01 -0.80200E+04
 0.43999996E+01 -0.80543E+04
 0.44499998E+01 -0.80855E+04
 0.44999995E+01 -0.81501E+04
 0.45499997E+01 -0.82202E+04
 0.45999994E+01 -0.82724E+04
 0.46499996E+01 -0.83084E+04
 0.46999998E+01 -0.82791E+04
 0.47499995E+01 -0.82843E+04
 0.47999997E+01 -0.82645E+04
 0.48499994E+01 -0.82604E+04
 0.48999996E+01 -0.82261E+04
 0.49499998E+01 -0.82123E+04
 0.49999995E+01 -0.81943E+04
 0.50499997E+01 -0.81802E+04
 0.50999994E+01 -0.81764E+04
 0.51499996E+01 -0.81566E+04
 0.51999998E+01 -0.81359E+04
 0.52499995E+01 -0.80944E+04
 0.52999997E+01 -0.80672E+04
 0.53499994E+01 -0.80521E+04
 0.53999996E+01 -0.80389E+04
 0.54499993E+01 -0.80567E+04
 0.54999995E+01 -0.80641E+04
 0.55499997E+01 -0.80700E+04
 0.55999994E+01 -0.81032E+04
 0.56499996E+01 -0.81325E+04
 0.56999993E+01 -0.81708E+04
 0.57499995E+01 -0.81802E+04
 0.57999997E+01 -0.81814E+04
 0.58499994E+01 -0.81915E+04
 0.58999996E+01 -0.81871E+04
 0.59499993E+01 -0.81980E+04
 0.59999995E+01 -0.82128E+04
 0.60499992E+01 -0.82275E+04
 0.60999994E+01 -0.82356E+04
 0.61499996E+01 -0.82303E+04
 0.61999998E+01 -0.82356E+04
 0.62499990E+01 -0.82060E+04
 0.62999992E+01 -0.81888E+04
 0.63499994E+01 -0.81441E+04
 0.63999996E+01 -0.81198E+04
 0.64499998E+01 -0.80972E+04
 0.64999990E+01 -0.80617E+04
 0.65499992E+01 -0.80440E+04
 0.65999994E+01 -0.80012E+04
 0.66499996E+01 -0.79976E+04
 0.66999998E+01 -0.79793E+04
 0.67499990E+01 -0.79750E+04
 0.67999992E+01 -0.79585E+04
 0.68499994E+01 -0.79604E+04
 0.68999996E+01 -0.79670E+04
 0.69499998E+01 -0.79607E+04
 0.69999990E+01 -0.80003E+04
 0.70499992E+01 -0.80365E+04
 0.70999994E+01 -0.80719E+04
 0.71499996E+01 -0.80926E+04
 0.71999998E+01 -0.81022E+04
 0.72499990E+01 -0.81146E+04
 0.72999992E+01 -0.81164E+04
 0.73499994E+01 -0.81269E+04
 0.73999996E+01 -0.81540E+04
 0.74499998E+01 -0.81618E+04
 0.74999990E+01 -0.81698E+04
 0.75499992E+01 -0.81763E+04
 0.75999994E+01 -0.81648E+04
 0.76499996E+01 -0.81824E+04
 0.76999998E+01 -0.81857E+04
 0.77499990E+01 -0.81931E+04
 0.77999992E+01 -0.81942E+04
 0.78499994E+01 -0.81905E+04
 0.78999996E+01 -0.81967E+04
 0.79499998E+01 -0.81763E+04
 0.79999990E+01 -0.81741E+04
 0.80499992E+01 -0.81492E+04
 0.80999994E+01 -0.81349E+04
 0.81499996E+01 -0.81368E+04
 0.81999998E+01 -0.81363E+04
 0.82499990E+01 -0.81571E+04
 0.82999992E+01 -0.81660E+04
 0.83499994E+01 -0.81770E+04
 0.83999996E+01 -0.81653E+04
 0.84499998E+01 -0.81681E+04
 0.84999990E+01 -0.81424E+04
 0.85499992E+01 -0.81228E+04
 0.85999994E+01 -0.81127E+04
 0.86499996E+01 -0.80995E+04
 0.86999998E+01 -0.81013E+04
 0.87499990E+01 -0.80898E+04
 0.87999992E+01 -0.80988E+04
 0.88499994E+01 -0.81024E+04
 0.88999996E+01 -0.81194E+04
 0.89499998E+01 -0.81229E+04
 0.89999990E+01 -0.81364E+04
 0.90499992E+01 -0.81263E+04
 0.90999994E+01 -0.81334E+04
 0.91499996E+01 -0.81335E+04
 0.91999989E+01 -0.81365E+04
 0.92499990E+01 -0.81499E+04
 0.92999992E+01 -0.81332E+04
 0.93499994E+01 -0.81402E+04
 0.93999996E+01 -0.81333E+04
 0.94499989E+01 -0.81381E+04
 0.94999990E+01 -0.81432E+04
 0.95499992E+01 -0.81435E+04
 0.95999994E+01 -0.81418E+04
 0.96499996E+01 -0.81511E+04
 0.96999989E+01 -0.81652E+04
 0.97499990E+01 -0.81699E+04
 0.97999992E+01 -0.81711E+04
 0.98499994E+01 -0.81575E+04
 0.98999996E+01 -0.81556E+04
 0.99499989E+01 -0.81498E+04
 0.99999990E+01 -0.81558E+04
 0.10049999E+02 -0.81489E+04
 0.10099999E+02 -0.81398E+04
 0.10150000E+02 -0.81265E+04
 0.10199999E+02 -0.80974E+04
 0.10249999E+02 -0.80549E+04
 0.10299999E+02 -0.80370E+04
 0.10349999E+02 -0.80021E+04
 0.10400000E+02 -0.79752E+04
 0.10449999E+02 -0.79717E+04
 0.10499999E+02 -0.79671E+04
 0.10549999E+02 -0.79912E+04
 0.10599999E+02 -0.80181E+04
 0.10650000E+02 -0.80582E+04
 0.10699999E+02 -0.80783E+04
 0.10749999E+02 -0.81109E+04
 0.10799999E+02 -0.81299E+04
 0.10849999E+02 -0.81728E+04
 0.10900000E+02 -0.81938E+04
 0.10949999E+02 -0.82195E+04
 0.10999999E+02 -0.82159E+04
 0.11049999E+02 -0.82069E+04
 0.11099999E+02 -0.81958E+04
 0.11150000E+02 -0.81647E+04
 0.11199999E+02 -0.81451E+04
 0.11249999E+02 -0.81016E+04
 0.11299999E+02 -0.80701E+04
 0.11349999E+02 -0.80211E+04
 0.11400000E+02 -0.80072E+04
 0.11449999E+02 -0.80013E+04
 0.11499999E+02 -0.80255E+04
 0.11549999E+02 -0.80340E+04
 0.11599999E+02 -0.80634E+04
 0.11650000E+02 -0.80833E+04
 0.11699999E+02 -0.81142E+04
 0.11749999E+02 -0.81533E+04
 0.11799999E+02 -0.81683E+04
 0.11849999E+02 -0.81908E+04
 0.11900000E+02 -0.81830E+04
 0.11949999E+02 -0.81985E+04
 0.11999999E+02 -0.81862E+04
 0.12049999E+02 -0.82011E+04
 0.12099999E+02 -0.81979E+04
 0.12150000E+02 -0.81986E+04
 0.12199999E+02 -0.81977E+04
 0.12249999E+02 -0.81909E+04
 0.12299999E+02 -0.81745E+04
 0.12349999E+02 -0.81521E+04
 0.12400000E+02 -0.81307E+04
 0.12449999E+02 -0.80998E+04
 0.12499999E+02 -0.80768E+04
 0.12549999E+02 -0.80698E+04
 0.12599999E+02 -0.80795E+04
 0.12649999E+02 -0.80956E+04
 0.12699999E+02 -0.81143E+04
 0.12749999E+02 -0.81349E+04
 0.12799999E+02 -0.81625E+04
 0.12849999E+02 -0.81594E+04
 0.12899999E+02 -0.81799E+04
 0.12949999E+02 -0.81594E+04
 0.12999999E+02 -0.81429E+04
 0.13049999E+02 -0.81168E+04
 0.13099999E+02 -0.80928E+04
 0.13149999E+02 -0.80839E+04
 0.13199999E+02 -0.80741E+04
 0.13249999E+02 -0.80812E+04
 0.13299999E+02 -0.81036E+04
 0.13349999E+02 -0.81232E+04
 0.13399999E+02 -0.81346E+04
 0.13449999E+02 -0.81412E+04
 0.13499999E+02 -0.81277E+04
 0.13549999E+02 -0.81334E+04
 0.13599999E+02 -0.81472E+04
 0.13649999E+02 -0.81648E+04
 0.13699999E+02 -0.81879E+04
 0.13749999E+02 -0.82069E+04
 0.13799999E+02 -0.81959E+04
 0.13849999E+02 -0.81849E+04
 0.13899999E+02 -0.81579E+04
 0.13949999E+02 -0.81396E+04
 0.13999999E+02 -0.81088E+04
 0.14049999E+02 -0.80857E+04
 0.14099998E+02 -0.80615E+04
 0.14150000E+02 -0.80526E+04
 0.14199999E+02 -0.80509E+04
 0.14249998E+02 -0.80460E+04
 0.14299999E+02 -0.80615E+04
 0.14349998E+02 -0.80713E+04
 0.14400000E+02 -0.80765E+04
 0.14449999E+02 -0.80782E+04
 0.14499998E+02 -0.80835E+04
 0.14549999E+02 -0.80651E+04
 0.14599998E+02 -0.80632E+04
 0.14650000E+02 -0.80469E+04
 0.14699999E+02 -0.80629E+04
 0.14749998E+02 -0.80670E+04
 0.14799999E+02 -0.80947E+04
 0.14849998E+02 -0.81158E+04
 0.14900000E+02 -0.81158E+04
 0.14949999E+02 -0.81546E+04
 0.14999998E+02 -0.81552E+04
 0.15049999E+02 -0.81602E+04
 0.15099998E+02 -0.81653E+04
 0.15150000E+02 -0.81725E+04
 0.15199999E+02 -0.81843E+04
 0.15249998E+02 -0.82060E+04
 0.15299999E+02 -0.82039E+04
 0.15349998E+02 -0.82032E+04
 0.15400000E+02 -0.81851E+04
 0.15449999E+02 -0.81853E+04
 0.15499998E+02 -0.81745E+04
 0.15549999E+02 -0.81757E+04
 0.15599998E+02 -0.81782E+04
 0.15650000E+02 -0.81631E+04
 0.15699999E+02 -0.81759E+04
 0.15749998E+02 -0.81542E+04
 0.15799999E+02 -0.81474E+04
 0.15849998E+02 -0.81398E+04
 0.15900000E+02 -0.81303E+04
 0.15949999E+02 -0.81190E+04
 0.15999998E+02 -0.81100E+04
 0.16049999E+02 -0.81057E+04
 0.16099998E+02 -0.80913E+04
 0.16150000E+02 -0.80853E+04
 0.16199999E+02 -0.80769E+04
 0.16249998E+02 -0.80434E+04
 0.16299999E+02 -0.80344E+04
 0.16349998E+02 -0.80225E+04
 0.16400000E+02 -0.80112E+04
 0.16449999E+02 -0.80193E+04
 0.16499998E+02 -0.80252E+04
 0.16549999E+02 -0.80199E+04
 0.16599998E+02 -0.80337E+04
 0.16650000E+02 -0.80348E+04
 0.16699999E+02 -0.80357E+04
 0.16749998E+02 -0.80519E+04
 0.16799999E+02 -0.80443E+04
 0.16849998E+02 -0.80371E+04
 0.16900000E+02 -0.80599E+04
 0.16949999E+02 -0.80482E+04
 0.16999998E+02 -0.80782E+04
 0.17049999E+02 -0.81067E+04
 0.17099998E+02 -0.81183E+04
 0.17150000E+02 -0.81706E+04
 0.17199999E+02 -0.81809E+04
 0.17249998E+02 -0.82269E+04
 0.17299999E+02 -0.82250E+04
 0.17349998E+02 -0.82332E+04
 0.17400000E+02 -0.82490E+04
 0.17449999E+02 -0.82717E+04
 0.17499998E+02 -0.82796E+04
 0.17549999E+02 -0.82759E+04
 0.17599998E+02 -0.82877E+04
 0.17650000E+02 -0.82654E+04
 0.17699999E+02 -0.82620E+04
 0.17749998E+02 -0.82673E+04
 0.17799999E+02 -0.82588E+04
 0.17849998E+02 -0.82415E+04
 0.17900000E+02 -0.82228E+04
 0.17949999E+02 -0.81879E+04
 0.17999998E+02 -0.81642E+04
 0.18049999E+02 -0.81433E+04
 0.18099998E+02 -0.81112E+04
 0.18150000E+02 -0.80980E+04
 0.18199999E+02 -0.80729E+04
 0.18249998E+02 -0.80638E+04
 0.18299999E+02 -0.80711E+04
 0.18349998E+02 -0.80695E+04
 0.18400000E+02 -0.80685E+04
 0.18449999E+02 -0.80717E+04
 0.18499998E+02 -0.80746E+04
 0.18549999E+02 -0.80722E+04
 0.18599998E+02 -0.80731E+04
 0.18650000E+02 -0.80606E+04
 0.18699999E+02 -0.80661E+04
 0.18749998E+02 -0.80417E+04
 0.18799999E+02 -0.80235E+04
 0.18849998E+02 -0.80150E+04
 0.18900000E+02 -0.80080E+04
 0.18949999E+02 -0.80113E+04
 0.18999998E+02 -0.80137E+04
 0.19049999E+02 -0.80210E+04
 0.19099998E+02 -0.80115E+04
 0.19150000E+02 -0.80348E+04
 0.19199999E+02 -0.80350E+04
 0.19249998E+02 -0.80491E+04
 0.19299999E+02 -0.80466E+04
 0.19349998E+02 -0.80609E+04
 0.19400000E+02 -0.80798E+04
 0.19449999E+02 -0.80776E+04
 0.19499998E+02 -0.81050E+04
 0.19549999E+02 -0.80922E+04
 0.19599998E+02 -0.81278E+04
 0.19650000E+02 -0.81431E+04
 0.19699999E+02 -0.81676E+04
 0.19749998E+02 -0.81796E+04
 0.19799999E+02 -0.81791E+04
 0.19849998E+02 -0.81941E+04
 0.19900000E+02 -0.81944E+04
 0.19949999E+02 -0.82136E+04
 0.19999998E+02 -0.82102E+04
 0.20049999E+02 -0.82321E+04
 0.20099998E+02 -0.82296E+04
 0.20150000E+02 -0.82174E+04
 0.20199999E+02 -0.82019E+04
 0.20249998E+02 -0.81847E+04
 0.20299999E+02 -0.81672E+04
 0.20349998E+02 -0.81480E+04
 0.20399998E+02 -0.81331E+04
 0.20449999E+02 -0.81192E+04
 0.20499998E+02 -0.81276E+04
 0.20549999E+02 -0.81339E+04
 0.20599998E+02 -0.81305E+04
 0.20649998E+02 -0.81278E+04
 0.20699999E+02 -0.81226E+04
 0.20749998E+02 -0.81057E+04
 0.20799999E+02 -0.81145E+04
 0.20849998E+02 -0.81211E+04
 0.20899998E+02 -0.81331E+04
 0.20949999E+02 -0.81478E+04
 0.20999998E+02 -0.81534E+04
 0.21049999E+02 -0.81556E+04
 0.21099998E+02 -0.81512E+04
 0.21149998E+02 -0.81464E+04
 0.21199999E+02 -0.81403E+04
 0.21249998E+02 -0.81077E+04
 0.21299999E+02 -0.80937E+04
 0.21349998E+02 -0.80693E+04
 0.21399998E+02 -0.80481E+04
 0.21449999E+02 -0.80374E+04
 0.21499998E+02 -0.80247E+04
 0.21549999E+02 -0.80356E+04
 0.21599998E+02 -0.80584E+04
 0.21649998E+02 -0.80794E+04
 0.21699999E+02 -0.81040E+04
 0.21749998E+02 -0.81295E+04
 0.21799999E+02 -0.81395E+04
 0.21849998E+02 -0.81611E+04
 0.21899998E+02 -0.81818E+04
 0.21949999E+02 -0.81805E+04
 0.21999998E+02 -0.81622E+04
 0.22049999E+02 -0.81642E+04
 0.22099998E+02 -0.81600E+04
 0.22149998E+02 -0.81524E+04
 0.22199999E+02 -0.81425E+04
 0.22249998E+02 -0.81214E+04
 0.22299999E+02 -0.81141E+04
 0.22349998E+02 -0.80923E+04
 0.22399998E+02 -0.80839E+04
 0.22449999E+02 -0.80991E+04
 0.22499998E+02 -0.81106E+04
 0.22549999E+02 -0.81281E+04
 0.22599998E+02 -0.81423E+04
 0.22649998E+02 -0.81357E+04
 0.22699999E+02 -0.81510E+04
 0.22749998E+02 -0.81680E+04
 0.22799999E+02 -0.81563E+04
 0.22849998E+02 -0.81743E+04
 0.22899998E+02 -0.81655E+04
 0.22949999E+02 -0.81593E+04
 0.22999998E+02 -0.81527E+04
 0.23049999E+02 -0.81294E+04
 0.23099998E+02 -0.81253E+04
 0.23149998E+02 -0.81263E+04
 0.23199999E+02 -0.81326E+04
 0.23249998E+02 -0.81474E+04
 0.23299999E+02 -0.81494E+04
 0.23349998E+02 -0.81487E+04
 0.23399998E+02 -0.81508E+04
 0.23449999E+02 -0.81224E+04
 0.23499998E+02 -0.81294E+04
 0.23549999E+02 -0.81181E+04
 0.23599998E+02 -0.81077E+04
 0.23649998E+02 -0.81093E+04
 0.23699999E+02 -0.80869E+04
 0.23749998E+02 -0.81029E+04
 0.23799999E+02 -0.80945E+04
 0.23849998E+02 -0.80968E+04
 0.23899998E+02 -0.81092E+04
 0.23949999E+02 -0.80876E+04
 0.23999998E+02 -0.80866E+04
 0.24049999E+02 -0.80750E+04
 0.24099998E+02 -0.80625E+04
 0.24149998E+02 -0.80862E+04
 0.24199999E+02 -0.80501E+04
 0.24249998E+02 -0.80745E+04
 0.24299999E+02 -0.80749E+04
 0.24349998E+02 -0.80818E+04
 0.24399998E+02 -0.80899E+04
 0.24449999E+02 -0.80849E+04
 0.24499998E+02 -0.81142E+04
 0.24549999E+02 -0.81184E+04
 0.24599998E+02 -0.81448E+04
 0.24649998E+02 -0.81475E+04
 0.24699999E+02 -0.81598E+04
 0.24749998E+02 -0.81544E+04
 0.24799999E+02 -0.81381E+04
 0.24849998E+02 -0.81424E+04
 0.24899998E+02 -0.81343E+04
 0.24949999E+02 -0.81019E+04
 0.24999998E+02 -0.81004E+04
 0.25049999E+02 -0.80556E+04
 0.25099998E+02 -0.80223E+04
 0.25149998E+02 -0.80696E+04
 0.25199999E+02 -0.80711E+04
 0.25249998E+02 -0.80363E+04
 0.25299999E+02 -0.80779E+04
 0.25349998E+02 -0.81342E+04
 0.25399998E+02 -0.80597E+04
 0.25449999E+02 -0.80634E+04
 0.25499998E+02 -0.81414E+04
 0.25549999E+02 -0.80855E+04
 0.25599998E+02 -0.80092E+04
 0.25649998E+02 -0.81709E+04
 0.25699999E+02 -0.81757E+04
 0.25749998E+02 -0.79251E+04
 0.25799999E+02 -0.80697E+04
 0.25849998E+02 -0.81936E+04
 0.25899998E+02 -0.80166E+04
 0.25949999E+02 -0.81056E+04
 0.25999998E+02 -0.82436E+04
 0.26049999E+02 -0.81700E+04
 0.26099998E+02 -0.81694E+04
 0.26149998E+02 -0.83173E+04
 0.26199999E+02 -0.81928E+04
 0.26249998E+02 -0.80838E+04
 0.26299999E+02 -0.82569E+04
 0.26349998E+02 -0.82657E+04
 0.26399998E+02 -0.81677E+04
 0.26449999E+02 -0.80987E+04
 0.26499998E+02 -0.82781E+04
 0.26549999E+02 -0.80540E+04
 0.26599998E+02 -0.81098E+04
 0.26649998E+02 -0.83482E+04
 0.26699999E+02 -0.83367E+04
 0.26749998E+02 -0.83658E+04
 0.26799999E+02 -0.83270E+04
 0.26849998E+02 -0.82489E+04
 0.26899998E+02 -0.83304E+04
 0.26949999E+02 -0.86648E+04
 0.26999998E+02 -0.79091E+04
 0.27049997E+02 -0.77521E+04
 0.27099998E+02 -0.84644E+04
 0.27149998E+02 -0.85536E+04
 0.27199999E+02 -0.80825E+04
 0.27249998E+02 -0.78090E+04
 0.27299997E+02 -0.80698E+04
 0.27349998E+02 -0.80244E+04
 0.27399998E+02 -0.78422E+04
 0.27449999E+02 -0.85396E+04
 0.27499998E+02 -0.80288E+04
 0.27549997E+02 -0.74622E+04
 0.27599998E+02 -0.82949E+04
 0.27649998E+02 -0.79547E+04
 0.27699999E+02 -0.81348E+04
 0.27749998E+02 -0.81322E+04
 0.27799997E+02 -0.83257E+04
 0.27849998E+02 -0.84345E+04
 0.27899998E+02 -0.85155E+04
 0.27949999E+02 -0.87110E+04
 0.27999998E+02 -0.76131E+04
 0.28049997E+02 -0.80668E+04
 0.28099998E+02 -0.80263E+04
 0.28149998E+02 -0.75387E+04
 0.28199999E+02 -0.81457E+04
 0.28249998E+02 -0.78385E+04
 0.28299997E+02 -0.81594E+04
 0.28349998E+02 -0.73627E+04
 0.28399998E+02 -0.74296E+04
 0.28449999E+02 -0.85708E+04
 0.28499998E+02 -0.83145E+04
 0.28549997E+02 -0.75784E+04
 0.28599998E+02 -0.67461E+04
 0.28649998E+02 -0.79530E+04
 0.28699999E+02 -0.95987E+04
 0.28749998E+02 -0.72983E+04
 0.28799997E+02 -0.69012E+04
 0.28849998E+02 -0.85048E+04
 0.28899998E+02 -0.92051E+04
 0.28949999E+02 -0.88235E+04
 0.28999998E+02 -0.85848E+04
 0.29049997E+02 -0.96333E+04
 0.29099998E+02 -0.72360E+04
 0.29149998E+02 -0.85946E+04
 0.29199999E+02 -0.81340E+04
 0.29249998E+02 -0.83357E+04
 0.29299997E+02 -0.79233E+04
 0.29349998E+02 -0.78486E+04
 0.29399998E+02 -0.81618E+04
 0.29449999E+02 -0.64727E+04
 0.29499998E+02 -0.89284E+04
 0.29549997E+02 -0.81420E+04
 0.29599998E+02 -0.84744E+04
 0.29649998E+02 -0.83141E+04
 0.29699999E+02 -0.82964E+04
 0.29749998E+02 -0.87418E+04
 0.29799997E+02 -0.81714E+04
 0.29849998E+02 -0.89557E+04
 0.29899998E+02 -0.79531E+04
 0.29949999E+02 -0.74056E+04
 0.29999998E+02 -0.87992E+04
 0.30049999E+02 -0.86299E+04
 0.30099998E+02 -0.97155E+04
 0.30149998E+02 -0.62695E+04
 0.30199997E+02 -0.71772E+04
 0.30249996E+02 -0.99255E+04
 0.30299999E+02 -0.76975E+04
 0.30349998E+02 -0.59354E+04
 0.30399998E+02 -0.62220E+04
 0.30449997E+02 -0.98922E+04
 0.30499996E+02 -0.90827E+04
 0.30549999E+02 -0.78791E+04
 0.30599998E+02 -0.63474E+04
 0.30649998E+02 -0.94039E+04
 0.30699997E+02 -0.10647E+05
 0.30749996E+02 -0.73661E+04
 0.30799999E+02 -0.71394E+04
 0.30849998E+02 -0.11014E+05
 0.30899998E+02 -0.97754E+04
 0.30949997E+02 -0.55516E+04
 0.30999996E+02 -0.83388E+04
 0.31049999E+02 -0.90786E+04
 0.31099998E+02 -0.81724E+04
 0.31149998E+02 -0.71322E+04
 0.31199997E+02 -0.84955E+04
 0.31249996E+02 -0.78113E+04
 0.31299999E+02 -0.71501E+04
 0.31349998E+02 -0.73814E+04
 0.31399998E+02 -0.63510E+04
 0.31449997E+02 -0.79363E+04
 0.31499996E+02 -0.59751E+04
 0.31549999E+02 -0.86352E+04
 0.31599998E+02 -0.87402E+04
 0.31649998E+02 -0.84223E+04
 0.31699997E+02 -0.74111E+04
 0.31749996E+02 -0.57542E+04
 0.31799999E+02 -0.11386E+05
 0.31849998E+02 -0.96882E+04
 0.31899998E+02 -0.72409E+04
 0.31949997E+02 -0.86415E+04
 0.31999996E+02 -0.10220E+05
 0.32049999E+02 -0.84585E+04
 0.32099998E+02 -0.84341E+04
 0.32149998E+02 -0.70285E+04
 0.32199997E+02 -0.73686E+04
 0.32249996E+02 -0.82884E+04
 0.32299999E+02 -0.70631E+04
 0.32349998E+02 -0.85952E+04
 0.32399998E+02 -0.67078E+04
 0.32449997E+02 -0.77196E+04
 0.32499996E+02 -0.69201E+04
 0.32549999E+02 -0.98863E+04
 0.32599998E+02 -0.92644E+04
 0.32649998E+02 -0.53753E+04
 0.32699997E+02 -0.83639E+04
 0.32749996E+02 -0.10471E+05
 0.32799999E+02 -0.10470E+05
 0.32849998E+02 -0.62917E+04
 0.32899998E+02 -0.70943E+04
 0.32949997E+02 -0.97392E+04
 0.32999996E+02 -0.84435E+04
 0.33049999E+02 -0.89820E+04
 0.33099998E+02 -0.75783E+04
 0.33149998E+02 -0.95153E+04
 0.33199997E+02 -0.93997E+04
 0.33249996E+02 -0.81768E+04
 0.33299999E+02 -0.63100E+04
 0.33349998E+02 -0.57913E+04
 0.33399998E+02 -0.81240E+04
 0.33449997E+02 -0.78970E+04
 0.33499996E+02 -0.10014E+05
 0.33549999E+02 -0.71129E+04
 0.33599998E+02 -0.84231E+04
 0.33649998E+02 -0.77362E+04
 0.33699997E+02 -0.66203E+04
 0.33749996E+02 -0.65591E+04
 0.33799999E+02 -0.64474E+04
 0.33849998E+02 -0.10085E+05
 0.33899998E+02 -0.10503E+05
 0.33949997E+02 -0.89837E+04
 0.33999996E+02 -0.41701E+04
 0.34049999E+02 -0.63220E+04
 0.34099998E+02 -0.10594E+05
 0.34149998E+02 -0.91015E+04
 0.34199997E+02 -0.87472E+04
 0.34249996E+02 -0.67468E+04
 0.34299999E+02 -0.79287E+04
 0.34349998E+02 -0.83421E+04
 0.34399998E+02 -0.79926E+04
 0.34449997E+02 -0.81251E+04
 0.34499996E+02 -0.82425E+04
 0.34549999E+02 -0.85682E+04
 0.34599998E+02 -0.89870E+04
 0.34649998E+02 -0.94497E+04
 0.34699997E+02 -0.91743E+04
 0.34749996E+02 -0.96576E+04
 0.34799999E+02 -0.56689E+04
 0.34849998E+02 -0.65054E+04
 0.34899998E+02 -0.67576E+04
 0.34949997E+02 -0.72232E+04
 0.34999996E+02 -0.70704E+04
 0.35049999E+02 -0.55050E+04
 0.35099998E+02 -0.80216E+04
 0.35149998E+02 -0.92858E+04
 0.35199997E+02 -0.91068E+04
 0.35249996E+02 -0.76306E+04
 0.35299999E+02 -0.63277E+04
 0.35349998E+02 -0.70525E+04
 0.35399998E+02 -0.72577E+04
 0.35449997E+02 -0.97955E+04
 0.35499996E+02 -0.69074E+04
 0.35549999E+02 -0.66836E+04
 0.35599998E+02 -0.10269E+05
 0.35649998E+02 -0.93517E+04
 0.35699997E+02 -0.98844E+04
 0.35749996E+02 -0.75433E+04
 0.35799999E+02 -0.94857E+04
 0.35849998E+02 -0.84796E+04
 0.35899998E+02 -0.95886E+04
 0.35949997E+02 -0.11700E+05
 0.35999996E+02 -0.81419E+04
 0.36049999E+02 -0.86910E+04
 0.36099998E+02 -0.69295E+04
 0.36149998E+02 -0.91190E+04
 0.36199997E+02 -0.94640E+04
 0.36249996E+02 -0.68139E+04
 0.36299999E+02 -0.87112E+04
 0.36349998E+02 -0.64832E+04
 0.36399998E+02 -0.67034E+04
 0.36449997E+02 -0.85586E+04
 0.36499996E+02 -0.46379E+04
 0.36549999E+02 -0.50795E+04
 0.36599998E+02 -0.81803E+04
 0.36649998E+02 -0.89462E+04
 0.36699997E+02 -0.10722E+05
 0.36749996E+02 -0.77921E+04
 0.36799999E+02 -0.86446E+04
 0.36849998E+02 -0.10652E+05
 0.36899998E+02 -0.80970E+04
 0.36949997E+02 -0.11098E+05
 0.36999996E+02 -0.12158E+05
 0.37049999E+02 -0.75158E+04
 0.37099998E+02 -0.68509E+04
 0.37149998E+02 -0.82506E+04
 0.37199997E+02 -0.76945E+04
 0.37249996E+02 -0.68503E+04
 0.37299999E+02 -0.64601E+04
 0.37349998E+02 -0.78231E+04
 0.37399998E+02 -0.93181E+04
 0.37449997E+02 -0.68706E+04
 0.37499996E+02 -0.45190E+04
 0.37549999E+02 -0.51100E+04
 0.37599998E+02 -0.59906E+04
 0.37649998E+02 -0.72170E+04
 0.37699997E+02 -0.68925E+04
 0.37749996E+02 -0.60959E+04
 0.37799999E+02 -0.68170E+04
 0.37849998E+02 -0.96387E+04
 0.37899998E+02 -0.10188E+05
 0.37949997E+02 -0.10635E+05
 0.37999996E+02 -0.92228E+04
 0.38049999E+02 -0.90015E+04
 0.38099998E+02 -0.96658E+04
 0.38149998E+02 -0.85076E+04
 0.38199997E+02 -0.84956E+04
 0.38249996E+02 -0.93853E+04
 0.38299999E+02 -0.11306E+05
 0.38349998E+02 -0.80749E+04
 0.38399998E+02 -0.72142E+04
 0.38449997E+02 -0.93121E+04
 0.38499996E+02 -0.95691E+04
 0.38549999E+02 -0.74734E+04
 0.38599998E+02 -0.69851E+04
 0.38649998E+02 -0.10117E+05
 0.38699997E+02 -0.10522E+05
 0.38749996E+02 -0.74183E+04
 0.38799999E+02 -0.62198E+04
 0.38849998E+02 -0.50847E+04
 0.38899998E+02 -0.69721E+04
 0.38949997E+02 -0.80903E+04
 0.38999996E+02 -0.76063E+04
 0.39049999E+02 -0.74019E+04
 0.39099998E+02 -0.73481E+04
 0.39149998E+02 -0.92051E+04
 0.39199997E+02 -0.90543E+04
 0.39249996E+02 -0.83171E+04
 0.39299999E+02 -0.74112E+04
 0.39349998E+02 -0.89259E+04
 0.39399998E+02 -0.92775E+04
 0.39449997E+02 -0.10341E+05
 0.39499996E+02 -0.11581E+05
 0.39549999E+02 -0.94877E+04
 0.39599998E+02 -0.66798E+04
 0.39649998E+02 -0.66249E+04
 0.39699997E+02 -0.67779E+04
 0.39749996E+02 -0.72263E+04
 0.39799999E+02 -0.88777E+04
 0.39849998E+02 -0.60862E+04
 0.39899998E+02 -0.61268E+04
 0.39949997E+02 -0.85508E+04
 0.39999996E+02 -0.90679E+04
 0.40049999E+02 -0.63177E+04
 0.40099998E+02 -0.58932E+04
 0.40149998E+02 -0.85453E+04
 0.40199997E+02 -0.10033E+05
 0.40249996E+02 -0.93227E+04
 0.40299999E+02 -0.75514E+04
 0.40349998E+02 -0.58951E+04
 0.40399998E+02 -0.60309E+04
 0.40449997E+02 -0.10012E+05
 0.40499996E+02 -0.89352E+04
 0.40549999E+02 -0.89104E+04
 0.40599998E+02 -0.99359E+04
 0.40649998E+02 -0.92682E+04
 0.40699997E+02 -0.99458E+04
 0.40749996E+02 -0.85186E+04
 0.40799999E+02 -0.61129E+04
 0.40849998E+02 -0.86938E+04
 0.40899998E+02 -0.10770E+05
 0.40949997E+02 -0.71288E+04
 0.40999996E+02 -0.58978E+04
 0.41049999E+02 -0.93535E+04
 0.41099998E+02 -0.12049E+05
 0.41149998E+02 -0.97871E+04
 0.41199997E+02 -0.70269E+04
 0.41249996E+02 -0.54026E+04
 0.41299999E+02 -0.78969E+04
 0.41349998E+02 -0.94545E+04
 0.41399998E+02 -0.62784E+04
 0.41449997E+02 -0.61579E+04
 0.41499996E+02 -0.75876E+04
 0.41549999E+02 -0.81383E+04
 0.41599998E+02 -0.71501E+04
 0.41649998E+02 -0.73647E+04
 0.41699997E+02 -0.78682E+04
 0.41749996E+02 -0.68032E+04
 0.41799999E+02 -0.78928E+04
 0.41849998E+02 -0.87046E+04
 0.41899998E+02 -0.96356E+04
 0.41949997E+02 -0.91002E+04
 0.41999996E+02 -0.85071E+04
 0.42049999E+02 -0.83551E+04
 0.42099998E+02 -0.79081E+04
 0.42149998E+02 -0.89956E+04
 0.42199997E+02 -0.88087E+04
 0.42249996E+02 -0.97729E+04
 0.42299999E+02 -0.93064E+04
 0.42349998E+02 -0.86905E+04
 0.42399998E+02 -0.82677E+04
 0.42449997E+02 -0.84350E+04
 0.42499996E+02 -0.94432E+04
 0.42549999E+02 -0.78378E+04
 0.42599998E+02 -0.57225E+04
 0.42649998E+02 -0.62201E+04
 0.42699997E+02 -0.65212E+04
 0.42749996E+02 -0.62717E+04
 0.42799995E+02 -0.70827E+04
 0.42849998E+02 -0.75201E+04
 0.42899998E+02 -0.86140E+04
 0.42949997E+02 -0.75900E+04
 0.42999996E+02 -0.86655E+04
 0.43049995E+02 -0.10043E+05
 0.43099998E+02 -0.10298E+05
 0.43149998E+02 -0.97610E+04
 0.43199997E+02 -0.64850E+04
 0.43249996E+02 -0.50612E+04
 0.43299995E+02 -0.76192E+04
 0.43349998E+02 -0.93331E+04
 0.43399998E+02 -0.80036E+04
 0.43449997E+02 -0.73230E+04
 0.43499996E+02 -0.68632E+04
 0.43549995E+02 -0.79671E+04
 0.43599998E+02 -0.84590E+04
 0.43649998E+02 -0.62087E+04
 0.43699997E+02 -0.52455E+04
 0.43749996E+02 -0.69572E+04
 0.43799995E+02 -0.65744E+04
 0.43849998E+02 -0.70050E+04
 0.43899998E+02 -0.75440E+04
 0.43949997E+02 -0.75042E+04
 0.43999996E+02 -0.97222E+04
 0.44049995E+02 -0.10285E+05
 0.44099998E+02 -0.10195E+05
 0.44149998E+02 -0.10449E+05
 0.44199997E+02 -0.97590E+04
 0.44249996E+02 -0.76293E+04
 0.44299995E+02 -0.79406E+04
 0.44349998E+02 -0.91289E+04
 0.44399998E+02 -0.94718E+04
 0.44449997E+02 -0.91385E+04
 0.44499996E+02 -0.94931E+04
 0.44549995E+02 -0.10088E+05
 0.44599998E+02 -0.86460E+04
 0.44649998E+02 -0.75671E+04
 0.44699997E+02 -0.82992E+04
 0.44749996E+02 -0.92927E+04
 0.44799995E+02 -0.76293E+04
 0.44849998E+02 -0.67198E+04
 0.44899998E+02 -0.69374E+04
 0.44949997E+02 -0.67689E+04
 0.44999996E+02 -0.54142E+04
 0.45049995E+02 -0.44684E+04
 0.45099998E+02 -0.45791E+04
 0.45149998E+02 -0.41468E+04
 0.45199997E+02 -0.52008E+04
 0.45249996E+02 -0.80462E+04
 0.45299995E+02 -0.10763E+05
 0.45349998E+02 -0.11772E+05
 0.45399998E+02 -0.14325E+05
 0.45449997E+02 -0.11876E+05
 0.45499996E+02 -0.96063E+04
 0.45549995E+02 -0.15583E+05
 0.45599998E+02 -0.14629E+05
 0.45649998E+02 -0.16990E+05
 0.45699997E+02 -0.13790E+05
 0.45749996E+02  0.23439E+04
 0.45799995E+02  0.14504E+05
 0.45849998E+02  0.10417E+05
 0.45899998E+02 -0.34854E+04
 0.45949997E+02 -0.16104E+05
 0.45999996E+02 -0.20358E+05
 0.46049995E+02 -0.14475E+05
 0.46099998E+02 -0.86579E+04
 0.46149998E+02  0.44765E+04
 0.46199997E+02 -0.12401E+04
 0.46249996E+02 -0.21434E+04
 0.46299995E+02 -0.38476E+04
 0.46349998E+02 -0.82206E+04
 0.46399998E+02 -0.15231E+05
 0.46449997E+02 -0.20895E+05
 0.46499996E+02 -0.11582E+05
 0.46549995E+02 -0.19807E+05
 0.46599998E+02 -0.67123E+04
 0.46649998E+02 -0.36115E+04
 0.46699997E+02 -0.70474E+04
 0.46749996E+02 -0.16119E+04
 0.46799995E+02  0.73631E+03
 0.46849998E+02 -0.88012E+04
 0.46899998E+02 -0.24040E+05
 0.46949997E+02 -0.93934E+04
 0.46999996E+02 -0.18790E+04
 0.47049995E+02 -0.18404E+03
 0.47099998E+02 -0.22559E+04
 0.47149998E+02 -0.97352E+04
 0.47199997E+02 -0.18443E+05
 0.47249996E+02 -0.30482E+05
 0.47299995E+02 -0.17323E+05
 0.47349998E+02 -0.88061E+04
 0.47399998E+02 -0.42120E+04
 0.47449997E+02 -0.26049E+04
 0.47499996E+02 -0.10213E+05
 0.47549995E+02 -0.54940E+04
 0.47599998E+02 -0.69044E+04
 0.47649998E+02 -0.59064E+04
 0.47699997E+02 -0.57501E+04
 0.47749996E+02 -0.28452E+04
 0.47799995E+02 -0.37192E+04
 0.47849998E+02 -0.74189E+04
 0.47899998E+02 -0.20907E+04
 0.47949997E+02 -0.13603E+05
 0.47999996E+02 -0.24982E+05
 0.48049995E+02 -0.15181E+05
 0.48099998E+02 -0.78217E+04
 0.48149998E+02  0.33342E+03
 0.48199997E+02 -0.85880E+04
 0.48249996E+02 -0.14237E+05
 0.48299995E+02 -0.55179E+04
 0.48349998E+02 -0.17286E+04
 0.48399998E+02  0.84587E+04
 0.48449997E+02  0.43390E+04
 0.48499996E+02  0.52428E+03
 0.48549995E+02 -0.48087E+04
 0.48599998E+02 -0.38957E+04
 0.48649998E+02 -0.10575E+05
 0.48699997E+02 -0.20628E+05
 0.48749996E+02 -0.20493E+05
 0.48799995E+02 -0.14882E+05
 0.48849998E+02 -0.20500E+04
 0.48899998E+02 -0.53027E+04
 0.48949997E+02 -0.85060E+04
 0.48999996E+02 -0.66945E+04
 0.49049995E+02  0.24165E+02
 0.49099998E+02  0.16678E+04
 0.49149998E+02  0.43609E+04
 0.49199997E+02  0.74879E+03
 0.49249996E+02 -0.11903E+05
 0.49299995E+02 -0.22707E+05
 0.49349998E+02 -0.28405E+05
 0.49399998E+02 -0.21127E+05
 0.49449997E+02 -0.11216E+05
 0.49499996E+02 -0.42497E+04
 0.49549995E+02 -0.10459E+05
 0.49599998E+02 -0.10064E+05
 0.49649998E+02 -0.10632E+05
 0.49699997E+02 -0.11877E+05
 0.49749996E+02 -0.68307E+04
 0.49799995E+02 -0.70926E+04
 0.49849998E+02 -0.49613E+04
 0.49899998E+02 -0.10027E+05
 0.49949997E+02 -0.10156E+05
 0.49999996E+02 -0.96865E+04
 0.50049995E+02 -0.10321E+05
 0.50099998E+02 -0.50279E+04
 0.50149998E+02 -0.86785E+04
 0.50199997E+02 -0.41347E+04
 0.50249996E+02 -0.58147E+04
 0.50299995E+02 -0.16821E+05
 0.50349998E+02 -0.13049E+05
 0.50399998E+02 -0.88845E+04
 0.50449997E+02 -0.71465E+04
 0.50499996E+02  0.23669E+02
 0.50549995E+02  0.36365E+04
 0.50599998E+02  0.24200E+04
 0.50649998E+02 -0.48978E+04
 0.50699997E+02 -0.13125E+05
 0.50749996E+02 -0.93331E+04
 0.50799995E+02 -0.94932E+04
 0.50849998E+02 -0.13526E+05
 0.50899998E+02 -0.15634E+05
 0.50949997E+02 -0.11512E+05
 0.50999996E+02 -0.45342E+04
 0.51049995E+02 -0.10065E+05
 0.51099998E+02 -0.16696E+05
 0.51149998E+02 -0.14637E+05
 0.51199997E+02 -0.56792E+04
 0.51249996E+02  0.55167E+04
 0.51299995E+02  0.11016E+05
 0.51349998E+02  0.76138E+04
 0.51399998E+02 -0.53937E+03
 0.51449997E+02 -0.99602E+04
 0.51499996E+02 -0.16887E+05
 0.51549995E+02 -0.10726E+05
 0.51599998E+02  0.45171E+03
 0.51649998E+02  0.46783E+04
 0.51699997E+02 -0.82496E+03
 0.51749996E+02 -0.87402E+04
 0.51799995E+02 -0.14139E+05
 0.51849998E+02 -0.18966E+05
 0.51899998E+02 -0.23124E+05
 0.51949997E+02 -0.21996E+05
 0.51999996E+02 -0.16358E+05
 0.52049995E+02 -0.13748E+05
 0.52099998E+02 -0.88108E+04
 0.52149998E+02 -0.11679E+05
 0.52199997E+02 -0.12332E+05
 0.52249996E+02 -0.99125E+04
 0.52299995E+02 -0.95587E+04
 0.52349998E+02 -0.59525E+04
 0.52399998E+02 -0.73525E+04
 0.52449997E+02 -0.10340E+05
 0.52499996E+02 -0.67019E+04
 0.52549995E+02 -0.54665E+04
 0.52599998E+02 -0.65589E+04
 0.52649998E+02 -0.91277E+04
 0.52699997E+02 -0.70727E+04
 0.52749996E+02 -0.13404E+04
 0.52799995E+02 -0.33455E+04
 0.52849998E+02 -0.16684E+04
 0.52899998E+02 -0.42161E+03
 0.52949997E+02  0.12491E+04
 0.52999996E+02 -0.88982E+03
 0.53049995E+02 -0.34825E+04
 0.53099998E+02 -0.39617E+04
 0.53149998E+02 -0.37895E+04
 0.53199997E+02 -0.82039E+04
 0.53249996E+02 -0.10730E+05
 0.53299995E+02 -0.88842E+04
 0.53349998E+02 -0.51199E+04
 0.53399998E+02 -0.87429E+04
 0.53449997E+02 -0.15362E+05
 0.53499996E+02 -0.15449E+05
 0.53549995E+02 -0.18171E+05
 0.53599998E+02 -0.17965E+05
 0.53649998E+02 -0.12416E+05
 0.53699997E+02 -0.85755E+04
 0.53749996E+02 -0.10878E+05
 0.53799995E+02 -0.10951E+05
 0.53849998E+02 -0.94267E+04
 0.53899998E+02 -0.76796E+04
 0.53949997E+02 -0.10855E+05
 0.53999996E+02 -0.10723E+05
 0.54049995E+02 -0.10155E+05
 0.54099998E+02 -0.11168E+05
 0.54149998E+02 -0.10026E+05
 0.54199997E+02 -0.75704E+04
 0.54249996E+02 -0.62789E+04
 0.54299995E+02 -0.93496E+04
 0.54349998E+02 -0.84438E+04
 0.54399998E+02 -0.81441E+04
 0.54449997E+02 -0.97308E+04
 0.54499996E+02 -0.87516E+04
 0.54549995E+02 -0.62324E+04
 0.54599998E+02 -0.93510E+04
 0.54649998E+02 -0.11017E+05
 0.54699997E+02 -0.52836E+04
 0.54749996E+02 -0.29216E+04
 0.54799995E+02 -0.37671E+04
 0.54849998E+02 -0.41747E+04
 0.54899998E+02 -0.67794E+04
 0.54949997E+02 -0.88272E+04
 0.54999996E+02 -0.56337E+04
 0.55049995E+02 -0.36634E+04
 0.55099998E+02 -0.54017E+04
 0.55149998E+02 -0.63873E+04
 0.55199997E+02 -0.76176E+04
 0.55249996E+02 -0.71629E+04
 0.55299995E+02 -0.90216E+04
 0.55349998E+02 -0.87831E+04
 0.55399998E+02 -0.42883E+04
 0.55449997E+02 -0.37135E+04
 0.55499996E+02 -0.38624E+04
 0.55549995E+02 -0.62630E+04
 0.55599998E+02 -0.11606E+05
 0.55649998E+02 -0.17242E+05
 0.55699997E+02 -0.18422E+05
 0.55749996E+02 -0.13572E+05
 0.55799995E+02 -0.62931E+04
 0.55849995E+02 -0.32718E+04
 0.55899998E+02 -0.20091E+04
 0.55949997E+02 -0.27337E+04
 0.55999996E+02 -0.53951E+04
 0.56049995E+02 -0.73549E+04
 0.56099995E+02 -0.11268E+05
 0.56149998E+02 -0.12143E+05
 0.56199997E+02 -0.12133E+05
 0.56249996E+02 -0.11328E+05
 0.56299995E+02 -0.13747E+05
 0.56349995E+02 -0.12394E+05
 0.56399998E+02 -0.82856E+04
 0.56449997E+02 -0.51097E+04
 0.56499996E+02 -0.25774E+04
 0.56549995E+02 -0.29259E+04
 0.56599995E+02 -0.37873E+04
 0.56649998E+02 -0.60962E+04
 0.56699997E+02 -0.87408E+04
 0.56749996E+02 -0.14022E+05
 0.56799995E+02 -0.15929E+05
 0.56849995E+02 -0.16435E+05
 0.56899998E+02 -0.15662E+05
 0.56949997E+02 -0.13814E+05
 0.56999996E+02 -0.87100E+04
 0.57049995E+02 -0.43419E+04
 0.57099995E+02 -0.51045E+04
 0.57149998E+02 -0.92727E+04
 0.57199997E+02 -0.11245E+05
 0.57249996E+02 -0.99223E+04
 0.57299995E+02 -0.61838E+04
 0.57349995E+02 -0.26477E+04
 0.57399998E+02 -0.42411E+04
 0.57449997E+02 -0.73871E+04
 0.57499996E+02 -0.12426E+05
 0.57549995E+02 -0.85182E+04
 0.57599995E+02 -0.46798E+04
 0.57649998E+02 -0.49623E+04
 0.57699997E+02 -0.54124E+04
 0.57749996E+02 -0.56384E+04
 0.57799995E+02 -0.41635E+04
 0.57849995E+02 -0.38182E+04
 0.57899998E+02 -0.49867E+04
 0.57949997E+02 -0.62882E+04
 0.57999996E+02 -0.51928E+04
 0.58049995E+02 -0.32165E+04
 0.58099995E+02 -0.20461E+04
 0.58149998E+02 -0.41380E+04
 0.58199997E+02 -0.56282E+04
 0.58249996E+02 -0.77657E+04
 0.58299995E+02 -0.67377E+04
 0.58349995E+02 -0.51246E+04
 0.58399998E+02 -0.79032E+04
 0.58449997E+02 -0.11016E+05
 0.58499996E+02 -0.13780E+05
 0.58549995E+02 -0.14734E+05
 0.58599995E+02 -0.15527E+05
 0.58649998E+02 -0.16581E+05
 0.58699997E+02 -0.14085E+05
 0.58749996E+02 -0.13606E+05
 0.58799995E+02 -0.10178E+05
 0.58849995E+02 -0.66550E+04
 0.58899998E+02 -0.97762E+04
 0.58949997E+02 -0.12198E+05
 0.58999996E+02 -0.13971E+05
 0.59049995E+02 -0.11728E+05
 0.59099995E+02 -0.11051E+05
 0.59149998E+02 -0.10040E+05
 0.59199997E+02 -0.57126E+04
 0.59249996E+02 -0.47886E+04
 0.59299995E+02 -0.49775E+04
 0.59349995E+02 -0.64282E+04
 0.59399998E+02 -0.10457E+05
 0.59449997E+02 -0.10330E+05
 0.59499996E+02 -0.64883E+04
 0.59549995E+02 -0.14560E+04
 0.59599995E+02  0.66715E+02
 0.59649998E+02 -0.20507E+04
 0.59699997E+02 -0.48918E+04
 0.59749996E+02 -0.76601E+04
 0.59799995E+02 -0.63768E+04
 0.59849995E+02 -0.45064E+04
 0.59899998E+02 -0.20022E+04
 0.59949997E+02 -0.48546E+03
 0.59999996E+02 -0.29978E+04
 0.60049995E+02 -0.87794E+04
 0.60099995E+02 -0.13887E+05
 0.60149998E+02 -0.15586E+05
 0.60199997E+02 -0.10740E+05
 0.60249996E+02 -0.55253E+04
 0.60299995E+02 -0.56592E+04
 0.60349995E+02 -0.65740E+04
 0.60399998E+02 -0.65896E+04
 0.60449997E+02 -0.61834E+04
 0.60499996E+02 -0.54910E+04
 0.60549995E+02 -0.37808E+04
 0.60599995E+02 -0.37522E+04
 0.60649998E+02 -0.63394E+04
 0.60699997E+02 -0.99787E+04
 0.60749996E+02 -0.14779E+05
 0.60799995E+02 -0.16155E+05
 0.60849995E+02 -0.14136E+05
 0.60899998E+02 -0.13574E+05
 0.60949997E+02 -0.14279E+05
 0.60999996E+02 -0.14483E+05
 0.61049995E+02 -0.12576E+05
 0.61099995E+02 -0.10406E+05
 0.61149998E+02 -0.10006E+05
 0.61199997E+02 -0.90459E+04
 0.61249996E+02 -0.89448E+04
 0.61299995E+02 -0.10461E+05
 0.61349995E+02 -0.89349E+04
 0.61399998E+02 -0.62463E+04
 0.61449997E+02 -0.56599E+04
 0.61499996E+02 -0.51922E+04
 0.61549995E+02 -0.60482E+04
 0.61599995E+02 -0.63568E+04
 0.61649998E+02 -0.42108E+04
 0.61699997E+02 -0.20435E+04
 0.61749996E+02 -0.27864E+03
 0.61799995E+02 -0.21553E+04
 0.61849995E+02 -0.40191E+04
 0.61899998E+02 -0.35947E+04
 0.61949997E+02 -0.34628E+04
 0.61999996E+02 -0.30632E+04
 0.62049995E+02 -0.39177E+04
 0.62099998E+02 -0.53198E+04
 0.62149994E+02 -0.52979E+04
 0.62199997E+02 -0.74504E+04
 0.62249992E+02 -0.82329E+04
 0.62299995E+02 -0.90726E+04
 0.62349998E+02 -0.10832E+05
 0.62399994E+02 -0.12399E+05
 0.62449997E+02 -0.14907E+05
 0.62499992E+02 -0.16048E+05
 0.62549995E+02 -0.16988E+05
 0.62599998E+02 -0.15381E+05
 0.62649994E+02 -0.12487E+05
 0.62699997E+02 -0.11364E+05
 0.62749992E+02 -0.11509E+05
 0.62799995E+02 -0.10355E+05
 0.62849998E+02 -0.11208E+05
 0.62899994E+02 -0.10654E+05
 0.62949997E+02 -0.84663E+04
 0.62999992E+02 -0.75348E+04
 0.63049995E+02 -0.74560E+04
 0.63099998E+02 -0.76357E+04
 0.63149994E+02 -0.79504E+04
 0.63199997E+02 -0.82409E+04
 0.63249992E+02 -0.63267E+04
 0.63299995E+02 -0.54951E+04
 0.63349998E+02 -0.45341E+04
 0.63399994E+02 -0.40461E+04
 0.63449997E+02 -0.52934E+04
 0.63499992E+02 -0.60950E+04
 0.63549995E+02 -0.65235E+04
 0.63599998E+02 -0.58346E+04
 0.63649994E+02 -0.41869E+04
 0.63699997E+02 -0.50846E+04
 0.63749992E+02 -0.49298E+04
 0.63799995E+02 -0.65924E+04
 0.63849998E+02 -0.85870E+04
 0.63899994E+02 -0.10310E+05
 0.63949997E+02 -0.13628E+05
 0.63999992E+02 -0.13471E+05
 0.64049995E+02 -0.12437E+05
 0.64099998E+02 -0.11014E+05
 0.64149994E+02 -0.97635E+04
 0.64199997E+02 -0.74891E+04
 0.64249992E+02 -0.60453E+04
 0.64299995E+02 -0.66201E+04
 0.64349998E+02 -0.73836E+04
 0.64399994E+02 -0.80441E+04
 0.64449997E+02 -0.62482E+04
 0.64499992E+02 -0.41059E+04
 0.64549995E+02 -0.43307E+04
 0.64599998E+02 -0.64908E+04
 0.64649994E+02 -0.91035E+04
 0.64699997E+02 -0.96949E+04
 0.64749992E+02 -0.10474E+05
 0.64799995E+02 -0.10692E+05
 0.64849998E+02 -0.85587E+04
 0.64899994E+02 -0.80306E+04
 0.64949997E+02 -0.89403E+04
 0.64999992E+02 -0.98736E+04
 0.65049995E+02 -0.96658E+04
 0.65099998E+02 -0.89617E+04
 0.65149994E+02 -0.84565E+04
 0.65199997E+02 -0.79471E+04
 0.65249992E+02 -0.92784E+04
 0.65299995E+02 -0.10164E+05
 0.65349998E+02 -0.10517E+05
 0.65399994E+02 -0.11027E+05
 0.65449997E+02 -0.11679E+05
 0.65499992E+02 -0.11781E+05
 0.65549995E+02 -0.10860E+05
 0.65599998E+02 -0.97814E+04
 0.65649994E+02 -0.94278E+04
 0.65699997E+02 -0.86441E+04
 0.65749992E+02 -0.81226E+04
 0.65799995E+02 -0.84522E+04
 0.65849998E+02 -0.80454E+04
 0.65899994E+02 -0.75534E+04
 0.65949997E+02 -0.50447E+04
 0.65999992E+02 -0.22251E+04
 0.66049995E+02 -0.94427E+03
 0.66099998E+02 -0.22957E+04
 0.66149994E+02 -0.54025E+04
 0.66199997E+02 -0.70666E+04
 0.66249992E+02 -0.82134E+04
 0.66299995E+02 -0.83237E+04
 0.66349998E+02 -0.78852E+04
 0.66399994E+02 -0.73385E+04
 0.66449997E+02 -0.74042E+04
 0.66499992E+02 -0.79998E+04
 0.66549995E+02 -0.66585E+04
 0.66599998E+02 -0.56253E+04
 0.66649994E+02 -0.56359E+04
 0.66699997E+02 -0.62918E+04
 0.66749992E+02 -0.63833E+04
 0.66799995E+02 -0.61313E+04
 0.66849998E+02 -0.64237E+04
 0.66899994E+02 -0.66516E+04
 0.66949997E+02 -0.74701E+04
 0.66999992E+02 -0.89427E+04
 0.67049995E+02 -0.97312E+04
 0.67099998E+02 -0.10561E+05
 0.67149994E+02 -0.10745E+05
 0.67199997E+02 -0.10379E+05
 0.67249992E+02 -0.10636E+05
 0.67299995E+02 -0.11253E+05
 0.67349998E+02 -0.12028E+05
 0.67399994E+02 -0.11607E+05
 0.67449997E+02 -0.10778E+05
 0.67499992E+02 -0.99123E+04
 0.67549995E+02 -0.96257E+04
 0.67599998E+02 -0.85638E+04
 0.67649994E+02 -0.68269E+04
 0.67699997E+02 -0.45418E+04
 0.67749992E+02 -0.25560E+04
 0.67799995E+02 -0.28428E+04
 0.67849998E+02 -0.53314E+04
 0.67899994E+02 -0.79327E+04
 0.67949997E+02 -0.95663E+04
 0.67999992E+02 -0.10906E+05
 0.68049995E+02 -0.11878E+05
 0.68099998E+02 -0.11933E+05
 0.68149994E+02 -0.10777E+05
 0.68199997E+02 -0.99568E+04
 0.68249992E+02 -0.88105E+04
 0.68299995E+02 -0.80157E+04
 0.68349998E+02 -0.91265E+04
 0.68399994E+02 -0.10812E+05
 0.68449997E+02 -0.11375E+05
 0.68499992E+02 -0.11313E+05
 0.68549995E+02 -0.97069E+04
 0.68599998E+02 -0.74483E+04
 0.68649994E+02 -0.50541E+04
 0.68699997E+02 -0.29770E+04
 0.68749992E+02 -0.27873E+04
 0.68799995E+02 -0.34462E+04
 0.68849998E+02 -0.54935E+04
 0.68899994E+02 -0.66524E+04
 0.68949997E+02 -0.63713E+04
 0.68999992E+02 -0.65817E+04
 0.69049995E+02 -0.70200E+04
 0.69099998E+02 -0.80799E+04
 0.69149994E+02 -0.96281E+04
 0.69199997E+02 -0.10030E+05
 0.69249992E+02 -0.98562E+04
 0.69299995E+02 -0.94384E+04
 0.69349998E+02 -0.86483E+04
 0.69399994E+02 -0.83042E+04
 0.69449997E+02 -0.77419E+04
 0.69499992E+02 -0.68894E+04
 0.69549995E+02 -0.70236E+04
 0.69599998E+02 -0.81327E+04
 0.69649994E+02 -0.85189E+04
 0.69699997E+02 -0.80472E+04
 0.69749992E+02 -0.72641E+04
 0.69799995E+02 -0.70334E+04
 0.69849998E+02 -0.72463E+04
 0.69899994E+02 -0.77126E+04
 0.69949997E+02 -0.80428E+04
 0.69999992E+02 -0.80849E+04
 0.70049995E+02 -0.80527E+04
 0.70099998E+02 -0.86464E+04
 0.70149994E+02 -0.96930E+04
 0.70199997E+02 -0.10721E+05
 0.70249992E+02 -0.12066E+05
 0.70299995E+02 -0.12232E+05
 0.70349998E+02 -0.10733E+05
 0.70399994E+02 -0.90163E+04
 0.70449997E+02 -0.84882E+04
 0.70499992E+02 -0.81705E+04
 0.70549995E+02 -0.72773E+04
 0.70599998E+02 -0.64652E+04
 0.70649994E+02 -0.54770E+04
 0.70699997E+02 -0.50688E+04
 0.70749992E+02 -0.56475E+04
 0.70799995E+02 -0.58272E+04
 0.70849998E+02 -0.64104E+04
 0.70899994E+02 -0.82512E+04
 0.70949997E+02 -0.10107E+05
 0.70999992E+02 -0.11098E+05
 0.71049995E+02 -0.11981E+05
 0.71099998E+02 -0.12297E+05
 0.71149994E+02 -0.12251E+05
 0.71199997E+02 -0.11780E+05
 0.71249992E+02 -0.10156E+05
 0.71299995E+02 -0.81023E+04
 0.71349998E+02 -0.61913E+04
 0.71399994E+02 -0.41894E+04
 0.71449997E+02 -0.26382E+04
 0.71499992E+02 -0.26194E+04
 0.71549995E+02 -0.35474E+04
 0.71599998E+02 -0.46810E+04
 0.71649994E+02 -0.60019E+04
 0.71699997E+02 -0.67577E+04
 0.71749992E+02 -0.68347E+04
 0.71799995E+02 -0.70764E+04
 0.71849998E+02 -0.72709E+04
 0.71899994E+02 -0.79412E+04
 0.71949997E+02 -0.80991E+04
 0.71999992E+02 -0.79673E+04
 0.72049995E+02 -0.74267E+04
 0.72099998E+02 -0.66601E+04
 0.72149994E+02 -0.65968E+04
 0.72199997E+02 -0.74181E+04
 0.72249992E+02 -0.87487E+04
 0.72299995E+02 -0.96826E+04
 0.72349998E+02 -0.10119E+05
 0.72399994E+02 -0.10016E+05
 0.72449997E+02 -0.10153E+05
 0.72499992E+02 -0.97012E+04
 0.72549995E+02 -0.92003E+04
 0.72599998E+02 -0.89320E+04
 0.72649994E+02 -0.83342E+04
 0.72699997E+02 -0.83488E+04
 0.72749992E+02 -0.95501E+04
 0.72799995E+02 -0.10761E+05
 0.72849998E+02 -0.11970E+05
 0.72899994E+02 -0.12388E+05
 0.72949997E+02 -0.12067E+05
 0.72999992E+02 -0.11610E+05
 0.73049995E+02 -0.10925E+05
 0.73099998E+02 -0.10428E+05
 0.73149994E+02 -0.98263E+04
 0.73199997E+02 -0.89165E+04
 0.73249992E+02 -0.77934E+04
 0.73299995E+02 -0.70289E+04
 0.73349998E+02 -0.57997E+04
 0.73399994E+02 -0.52895E+04
 0.73449997E+02 -0.52078E+04
 0.73499992E+02 -0.56605E+04
 0.73549995E+02 -0.63534E+04
 0.73599998E+02 -0.67059E+04
 0.73649994E+02 -0.66630E+04
 0.73699997E+02 -0.63000E+04
 0.73749992E+02 -0.64937E+04
 0.73799995E+02 -0.61884E+04
 0.73849998E+02 -0.61050E+04
 0.73899994E+02 -0.62851E+04
 0.73949997E+02 -0.68072E+04
 0.73999992E+02 -0.71167E+04
 0.74049995E+02 -0.71536E+04
 0.74099998E+02 -0.72916E+04
 0.74149994E+02 -0.76633E+04
 0.74199997E+02 -0.82035E+04
 0.74249992E+02 -0.83333E+04
 0.74299995E+02 -0.84144E+04
 0.74349998E+02 -0.90417E+04
 0.74399994E+02 -0.99390E+04
 0.74449997E+02 -0.10033E+05
 0.74499992E+02 -0.99225E+04
 0.74549995E+02 -0.99297E+04
 0.74599998E+02 -0.10439E+05
 0.74649994E+02 -0.11371E+05
 0.74699997E+02 -0.11752E+05
 0.74749992E+02 -0.11226E+05
 0.74799995E+02 -0.93876E+04
 0.74849998E+02 -0.70839E+04
 0.74899994E+02 -0.55432E+04
 0.74949997E+02 -0.52763E+04
 0.74999992E+02 -0.61241E+04
 0.75049995E+02 -0.69276E+04
 0.75099998E+02 -0.75441E+04
 0.75149994E+02 -0.83447E+04
 0.75199997E+02 -0.86176E+04
 0.75249992E+02 -0.87316E+04
 0.75299995E+02 -0.91462E+04
 0.75349998E+02 -0.92017E+04
 0.75399994E+02 -0.90774E+04
 0.75449997E+02 -0.83086E+04
 0.75499992E+02 -0.82472E+04
 0.75549995E+02 -0.86937E+04
 0.75599998E+02 -0.82164E+04
 0.75649994E+02 -0.73666E+04
 0.75699997E+02 -0.63179E+04
 0.75749992E+02 -0.58324E+04
 0.75799995E+02 -0.52017E+04
 0.75849998E+02 -0.46008E+04
 0.75899994E+02 -0.45951E+04
 0.75949997E+02 -0.47667E+04
 0.75999992E+02 -0.48373E+04
 0.76049995E+02 -0.52583E+04
 0.76099998E+02 -0.59003E+04
 0.76149994E+02 -0.62591E+04
 0.76199997E+02 -0.69294E+04
 0.76249992E+02 -0.81604E+04
 0.76299995E+02 -0.94811E+04
 0.76349998E+02 -0.10361E+05
 0.76399994E+02 -0.11124E+05
 0.76449997E+02 -0.11187E+05
 0.76499992E+02 -0.11409E+05
 0.76549995E+02 -0.11238E+05
 0.76599998E+02 -0.11015E+05
 0.76649994E+02 -0.11074E+05
 0.76699997E+02 -0.10579E+05
 0.76749992E+02 -0.99552E+04
 0.76799995E+02 -0.90597E+04
 0.76849998E+02 -0.86035E+04
 0.76899994E+02 -0.80789E+04
 0.76949997E+02 -0.78601E+04
 0.76999992E+02 -0.78546E+04
 0.77049995E+02 -0.80084E+04
 0.77099998E+02 -0.79463E+04
 0.77149994E+02 -0.78976E+04
 0.77199997E+02 -0.78664E+04
 0.77249992E+02 -0.69522E+04
 0.77299995E+02 -0.63405E+04
 0.77349998E+02 -0.61229E+04
 0.77399994E+02 -0.66088E+04
 0.77449997E+02 -0.76925E+04
 0.77499992E+02 -0.84145E+04
 0.77549995E+02 -0.86216E+04
 0.77599998E+02 -0.89420E+04
 0.77649994E+02 -0.87972E+04
 0.77699997E+02 -0.86679E+04
 0.77749992E+02 -0.89443E+04
 0.77799995E+02 -0.93208E+04
 0.77849998E+02 -0.87272E+04
 0.77899994E+02 -0.76591E+04
 0.77949997E+02 -0.78759E+04
 0.77999992E+02 -0.85324E+04
 0.78049995E+02 -0.91273E+04
 0.78099998E+02 -0.91884E+04
 0.78149994E+02 -0.91018E+04
 0.78199997E+02 -0.85564E+04
 0.78249992E+02 -0.80905E+04
 0.78299995E+02 -0.74787E+04
 0.78349998E+02 -0.68722E+04
 0.78399994E+02 -0.63545E+04
 0.78449997E+02 -0.64231E+04
 0.78499992E+02 -0.77512E+04
 0.78549995E+02 -0.84673E+04
 0.78599998E+02 -0.85214E+04
 0.78649994E+02 -0.81558E+04
 0.78699997E+02 -0.82289E+04
 0.78749992E+02 -0.85561E+04
 0.78799995E+02 -0.88992E+04
 0.78849998E+02 -0.94620E+04
 0.78899994E+02 -0.98287E+04
 0.78949997E+02 -0.10096E+05
 0.78999992E+02 -0.95287E+04
 0.79049995E+02 -0.84202E+04
 0.79099998E+02 -0.74502E+04
 0.79149994E+02 -0.68140E+04
 0.79199997E+02 -0.67431E+04
 0.79249992E+02 -0.66033E+04
 0.79299995E+02 -0.61905E+04
 0.79349998E+02 -0.65004E+04
 0.79399994E+02 -0.71016E+04
 0.79449997E+02 -0.75658E+04
 0.79499992E+02 -0.80156E+04
 0.79549995E+02 -0.82496E+04
 0.79599998E+02 -0.83041E+04
 0.79649994E+02 -0.81217E+04
 0.79699997E+02 -0.79804E+04
 0.79749992E+02 -0.78811E+04
 0.79799995E+02 -0.73390E+04
 0.79849998E+02 -0.65468E+04
 0.79899994E+02 -0.62249E+04
 0.79949997E+02 -0.64461E+04
 0.79999992E+02 -0.70247E+04
 0.80049995E+02 -0.72593E+04
 0.80099998E+02 -0.71955E+04
 0.80149994E+02 -0.72609E+04
 0.80199997E+02 -0.76844E+04
 0.80249992E+02 -0.84870E+04
 0.80299995E+02 -0.90923E+04
 0.80349998E+02 -0.94195E+04
 0.80399994E+02 -0.95855E+04
 0.80449997E+02 -0.94014E+04
 0.80499992E+02 -0.92860E+04
 0.80549995E+02 -0.96874E+04
 0.80599998E+02 -0.97799E+04
 0.80649994E+02 -0.93205E+04
 0.80699997E+02 -0.84916E+04
 0.80749992E+02 -0.85291E+04
 0.80799995E+02 -0.87731E+04
 0.80849998E+02 -0.84737E+04
 0.80899994E+02 -0.83436E+04
 0.80949997E+02 -0.84114E+04
 0.80999992E+02 -0.86606E+04
 0.81049995E+02 -0.88296E+04
 0.81099998E+02 -0.91616E+04
 0.81149994E+02 -0.92867E+04
 0.81199997E+02 -0.92816E+04
 0.81249992E+02 -0.90197E+04
 0.81299995E+02 -0.85035E+04
 0.81349998E+02 -0.75000E+04
 0.81399994E+02 -0.64811E+04
 0.81449997E+02 -0.60397E+04
 0.81499992E+02 -0.63260E+04
 0.81549995E+02 -0.69510E+04
 0.81599998E+02 -0.74676E+04
 0.81649994E+02 -0.80277E+04
 0.81699997E+02 -0.81652E+04
 0.81749992E+02 -0.77813E+04
 0.81799995E+02 -0.74269E+04
 0.81849998E+02 -0.73825E+04
 0.81899994E+02 -0.73628E+04
 0.81949997E+02 -0.71845E+04
 0.81999992E+02 -0.67263E+04
 0.82049995E+02 -0.63458E+04
 0.82099998E+02 -0.64295E+04
 0.82149994E+02 -0.71782E+04
 0.82199997E+02 -0.81019E+04
 0.82249992E+02 -0.87404E+04
 0.82299995E+02 -0.89768E+04
 0.82349998E+02 -0.96381E+04
 0.82399994E+02 -0.10236E+05
 0.82449997E+02 -0.10301E+05
 0.82499992E+02 -0.98960E+04
 0.82549995E+02 -0.91784E+04
 0.82599998E+02 -0.85504E+04
 0.82649994E+02 -0.82130E+04
 0.82699997E+02 -0.84870E+04
 0.82749992E+02 -0.86148E+04
 0.82799995E+02 -0.87737E+04
 0.82849998E+02 -0.86781E+04
 0.82899994E+02 -0.81830E+04
 0.82949997E+02 -0.78864E+04
 0.82999992E+02 -0.78206E+04
 0.83049995E+02 -0.78254E+04
 0.83099998E+02 -0.80524E+04
 0.83149994E+02 -0.81967E+04
 0.83199997E+02 -0.80882E+04
 0.83249992E+02 -0.78370E+04
 0.83299995E+02 -0.76441E+04
 0.83349998E+02 -0.78874E+04
 0.83399994E+02 -0.80628E+04
 0.83449997E+02 -0.75973E+04
 0.83499992E+02 -0.68066E+04
 0.83549995E+02 -0.62560E+04
 0.83599998E+02 -0.61887E+04
 0.83649994E+02 -0.65476E+04
 0.83699997E+02 -0.69759E+04
 0.83749992E+02 -0.72151E+04
 0.83799995E+02 -0.70985E+04
 0.83849998E+02 -0.73631E+04
 0.83899994E+02 -0.79422E+04
 0.83949997E+02 -0.87645E+04
 0.83999992E+02 -0.96161E+04
 0.84049995E+02 -0.99964E+04
 0.84099998E+02 -0.99087E+04
 0.84149994E+02 -0.96832E+04
 0.84199997E+02 -0.97014E+04
 0.84249992E+02 -0.96348E+04
 0.84299995E+02 -0.94829E+04
 0.84349998E+02 -0.90071E+04
 0.84399994E+02 -0.84260E+04
 0.84449997E+02 -0.76829E+04
 0.84499992E+02 -0.68508E+04
 0.84549995E+02 -0.62243E+04
 0.84599998E+02 -0.59006E+04
 0.84649994E+02 -0.61009E+04
 0.84699997E+02 -0.66023E+04
 0.84749992E+02 -0.72913E+04
 0.84799995E+02 -0.80369E+04
 0.84849998E+02 -0.89340E+04
 0.84899994E+02 -0.97229E+04
 0.84949997E+02 -0.10138E+05
 0.84999992E+02 -0.10225E+05
 0.85049995E+02 -0.10423E+05
 0.85099998E+02 -0.10591E+05
 0.85149994E+02 -0.10327E+05
 0.85199997E+02 -0.96394E+04
 0.85249992E+02 -0.85589E+04
 0.85299995E+02 -0.75741E+04
 0.85349998E+02 -0.70727E+04
 0.85399994E+02 -0.75465E+04
 0.85449997E+02 -0.82160E+04
 0.85499992E+02 -0.87335E+04
 0.85549995E+02 -0.87714E+04
 0.85599998E+02 -0.81228E+04
 0.85649994E+02 -0.75717E+04
 0.85699997E+02 -0.77117E+04
 0.85749992E+02 -0.80317E+04
 0.85799995E+02 -0.79466E+04
 0.85849998E+02 -0.76880E+04
 0.85899994E+02 -0.75635E+04
 0.85949997E+02 -0.79856E+04
 0.85999992E+02 -0.84037E+04
 0.86049995E+02 -0.86342E+04
 0.86099998E+02 -0.85762E+04
 0.86149994E+02 -0.83458E+04
 0.86199997E+02 -0.83596E+04
 0.86249992E+02 -0.84908E+04
 0.86299995E+02 -0.87492E+04
 0.86349998E+02 -0.90630E+04
 0.86399994E+02 -0.90112E+04
 0.86449997E+02 -0.84018E+04
 0.86499992E+02 -0.74482E+04
 0.86549995E+02 -0.66202E+04
 0.86599998E+02 -0.62640E+04
 0.86649994E+02 -0.61011E+04
 0.86699997E+02 -0.61336E+04
 0.86749992E+02 -0.64940E+04
 0.86799995E+02 -0.68866E+04
 0.86849998E+02 -0.71487E+04
 0.86899994E+02 -0.71241E+04
 0.86949997E+02 -0.69126E+04
 0.86999992E+02 -0.67281E+04
 0.87049995E+02 -0.69733E+04
 0.87099998E+02 -0.71965E+04
 0.87149994E+02 -0.74683E+04
 0.87199997E+02 -0.79483E+04
 0.87249992E+02 -0.82361E+04
 0.87299995E+02 -0.86750E+04
 0.87349998E+02 -0.88984E+04
 0.87399994E+02 -0.88919E+04
 0.87449997E+02 -0.88905E+04
 0.87499992E+02 -0.87329E+04
 0.87549995E+02 -0.82519E+04
 0.87599991E+02 -0.77296E+04
 0.87649994E+02 -0.76143E+04
 0.87699997E+02 -0.77501E+04
 0.87749992E+02 -0.81120E+04
 0.87799995E+02 -0.86225E+04
 0.87849991E+02 -0.89718E+04
 0.87899994E+02 -0.90728E+04
 0.87949997E+02 -0.88593E+04
 0.87999992E+02 -0.86721E+04
 0.88049995E+02 -0.86177E+04
 0.88099991E+02 -0.84844E+04
 0.88149994E+02 -0.88057E+04
 0.88199997E+02 -0.90578E+04
 0.88249992E+02 -0.90581E+04
 0.88299995E+02 -0.89890E+04
 0.88349991E+02 -0.86863E+04
 0.88399994E+02 -0.80986E+04
 0.88449997E+02 -0.74483E+04
 0.88499992E+02 -0.72878E+04
 0.88549995E+02 -0.73043E+04
 0.88599991E+02 -0.75630E+04
 0.88649994E+02 -0.78907E+04
 0.88699997E+02 -0.81371E+04
 0.88749992E+02 -0.82885E+04
 0.88799995E+02 -0.84666E+04
 0.88849991E+02 -0.87136E+04
 0.88899994E+02 -0.90820E+04
 0.88949997E+02 -0.91031E+04
 0.88999992E+02 -0.89172E+04
 0.89049995E+02 -0.87088E+04
 0.89099991E+02 -0.84717E+04
 0.89149994E+02 -0.84234E+04
 0.89199997E+02 -0.82588E+04
 0.89249992E+02 -0.80116E+04
 0.89299995E+02 -0.77507E+04
 0.89349991E+02 -0.75816E+04
 0.89399994E+02 -0.73149E+04
 0.89449997E+02 -0.73141E+04
 0.89499992E+02 -0.77130E+04
 0.89549995E+02 -0.80868E+04
 0.89599991E+02 -0.82508E+04
 0.89649994E+02 -0.85704E+04
 0.89699997E+02 -0.89544E+04
 0.89749992E+02 -0.91368E+04
 0.89799995E+02 -0.90761E+04
 0.89849991E+02 -0.88982E+04
 0.89899994E+02 -0.86072E+04
 0.89949997E+02 -0.81915E+04
 0.89999992E+02 -0.76317E+04
 0.90049995E+02 -0.70762E+04
 0.90099991E+02 -0.65998E+04
 0.90149994E+02 -0.63024E+04
 0.90199997E+02 -0.62341E+04
 0.90249992E+02 -0.67246E+04
 0.90299995E+02 -0.74003E+04
 0.90349991E+02 -0.77526E+04
 0.90399994E+02 -0.80553E+04
 0.90449997E+02 -0.84606E+04
 0.90499992E+02 -0.90742E+04
 0.90549995E+02 -0.93094E+04
 0.90599991E+02 -0.92706E+04
 0.90649994E+02 -0.89844E+04
 0.90699997E+02 -0.89267E+04
 0.90749992E+02 -0.89479E+04
 0.90799995E+02 -0.88155E+04
 0.90849991E+02 -0.82263E+04
 0.90899994E+02 -0.73556E+04
 0.90949997E+02 -0.69053E+04
 0.90999992E+02 -0.65447E+04
 0.91049995E+02 -0.61559E+04
 0.91099991E+02 -0.59546E+04
 0.91149994E+02 -0.60469E+04
 0.91199997E+02 -0.60763E+04
 0.91249992E+02 -0.62220E+04
 0.91299995E+02 -0.66982E+04
 0.91349991E+02 -0.73779E+04
 0.91399994E+02 -0.80154E+04
 0.91449997E+02 -0.85778E+04
 0.91499992E+02 -0.89974E+04
 0.91549995E+02 -0.92080E+04
 0.91599991E+02 -0.92901E+04
 0.91649994E+02 -0.93452E+04
 0.91699997E+02 -0.94157E+04
 0.91749992E+02 -0.92911E+04
 0.91799995E+02 -0.91559E+04
 0.91849991E+02 -0.90483E+04
 0.91899994E+02 -0.90328E+04
 0.91949997E+02 -0.92279E+04
 0.91999992E+02 -0.94834E+04
 0.92049995E+02 -0.10029E+05
 0.92099991E+02 -0.10427E+05
 0.92149994E+02 -0.10472E+05
 0.92199997E+02 -0.10287E+05
 0.92249992E+02 -0.99552E+04
 0.92299995E+02 -0.97479E+04
 0.92349991E+02 -0.96520E+04
 0.92399994E+02 -0.94828E+04
 0.92449997E+02 -0.89448E+04
 0.92499992E+02 -0.81306E+04
 0.92549995E+02 -0.72647E+04
 0.92599991E+02 -0.64682E+04
 0.92649994E+02 -0.58834E+04
 0.92699997E+02 -0.57288E+04
 0.92749992E+02 -0.57145E+04
 0.92799995E+02 -0.58356E+04
 0.92849991E+02 -0.61178E+04
 0.92899994E+02 -0.65255E+04
 0.92949997E+02 -0.68036E+04
 0.92999992E+02 -0.70022E+04
 0.93049995E+02 -0.73155E+04
 0.93099991E+02 -0.75755E+04
 0.93149994E+02 -0.79996E+04
 0.93199997E+02 -0.82113E+04
 0.93249992E+02 -0.81413E+04
 0.93299995E+02 -0.79222E+04
 0.93349991E+02 -0.76821E+04
 0.93399994E+02 -0.74314E+04
 0.93449997E+02 -0.73164E+04
 0.93499992E+02 -0.75248E+04
 0.93549995E+02 -0.75990E+04
 0.93599991E+02 -0.76895E+04
 0.93649994E+02 -0.80556E+04
 0.93699997E+02 -0.83518E+04
 0.93749992E+02 -0.83474E+04
 0.93799995E+02 -0.85188E+04
 0.93849991E+02 -0.88826E+04
 0.93899994E+02 -0.91342E+04
 0.93949997E+02 -0.93269E+04
 0.93999992E+02 -0.93768E+04
 0.94049995E+02 -0.91358E+04
 0.94099991E+02 -0.87756E+04
 0.94149994E+02 -0.83429E+04
 0.94199997E+02 -0.79437E+04
 0.94249992E+02 -0.74849E+04
 0.94299995E+02 -0.71643E+04
 0.94349991E+02 -0.73365E+04
 0.94399994E+02 -0.78064E+04
 0.94449997E+02 -0.82669E+04
 0.94499992E+02 -0.85544E+04
 0.94549995E+02 -0.88579E+04
 0.94599991E+02 -0.91827E+04
 0.94649994E+02 -0.92845E+04
 0.94699997E+02 -0.90224E+04
 0.94749992E+02 -0.88247E+04
 0.94799995E+02 -0.85906E+04
 0.94849991E+02 -0.83488E+04
 0.94899994E+02 -0.81369E+04
 0.94949997E+02 -0.81266E+04
 0.94999992E+02 -0.82227E+04
 0.95049995E+02 -0.84270E+04
 0.95099991E+02 -0.87543E+04
 0.95149994E+02 -0.89146E+04
 0.95199997E+02 -0.88019E+04
 0.95249992E+02 -0.84713E+04
 0.95299995E+02 -0.82847E+04
 0.95349991E+02 -0.79565E+04
 0.95399994E+02 -0.75916E+04
 0.95449997E+02 -0.73589E+04
 0.95499992E+02 -0.73031E+04
 0.95549995E+02 -0.72223E+04
 0.95599991E+02 -0.70191E+04
 0.95649994E+02 -0.69605E+04
 0.95699997E+02 -0.69355E+04
 0.95749992E+02 -0.68686E+04
 0.95799995E+02 -0.68593E+04
 0.95849991E+02 -0.70263E+04
 0.95899994E+02 -0.74843E+04
 0.95949997E+02 -0.83179E+04
 0.95999992E+02 -0.90103E+04
 0.96049995E+02 -0.93339E+04
 0.96099991E+02 -0.92757E+04
 0.96149994E+02 -0.89067E+04
 0.96199997E+02 -0.86932E+04
 0.96249992E+02 -0.87305E+04
 0.96299995E+02 -0.89856E+04
 0.96349991E+02 -0.92359E+04
 0.96399994E+02 -0.93611E+04
 0.96449997E+02 -0.93218E+04
 0.96499992E+02 -0.92163E+04
 0.96549995E+02 -0.92366E+04
 0.96599991E+02 -0.90944E+04
 0.96649994E+02 -0.87238E+04
 0.96699997E+02 -0.82847E+04
 0.96749992E+02 -0.78636E+04
 0.96799995E+02 -0.75813E+04
 0.96849991E+02 -0.73194E+04
 0.96899994E+02 -0.69730E+04
 0.96949997E+02 -0.66268E+04
 0.96999992E+02 -0.64101E+04
 0.97049995E+02 -0.65281E+04
 0.97099991E+02 -0.66436E+04
 0.97149994E+02 -0.67037E+04
 0.97199997E+02 -0.68855E+04
 0.97249992E+02 -0.70201E+04
 0.97299995E+02 -0.70592E+04
 0.97349991E+02 -0.69724E+04
 0.97399994E+02 -0.69711E+04
 0.97449997E+02 -0.68239E+04
 0.97499992E+02 -0.66893E+04
 0.97549995E+02 -0.68486E+04
 0.97599991E+02 -0.74920E+04
 0.97649994E+02 -0.83029E+04
 0.97699997E+02 -0.91439E+04
 0.97749992E+02 -0.97827E+04
 0.97799995E+02 -0.10114E+05
 0.97849991E+02 -0.10111E+05
 0.97899994E+02 -0.99402E+04
 0.97949997E+02 -0.95965E+04
 0.97999992E+02 -0.91301E+04
