-0.19969940E+01 -0.56000E+04
-0.19469941E+01 -0.55902E+04
-0.18969940E+01 -0.56196E+04
-0.18469940E+01 -0.56274E+04
-0.17969940E+01 -0.56416E+04
-0.17469940E+01 -0.56488E+04
-0.16969941E+01 -0.56534E+04
-0.16469941E+01 -0.56618E+04
-0.15969940E+01 -0.56739E+04
-0.15469940E+01 -0.56696E+04
-0.14969940E+01 -0.56885E+04
-0.14469941E+01 -0.57005E+04
-0.13969941E+01 -0.57013E+04
-0.13469940E+01 -0.57111E+04
-0.12969941E+01 -0.57103E+04
-0.12469940E+01 -0.57135E+04
-0.11969941E+01 -0.57162E+04
-0.11469941E+01 -0.57123E+04
-0.10969940E+01 -0.57071E+04
-0.10469941E+01 -0.56969E+04
-0.99699408E+00 -0.56872E+04
-0.94699407E+00 -0.56737E+04
-0.89699411E+00 -0.56531E+04
-0.84699404E+00 -0.56425E+04
-0.79699409E+00 -0.56234E+04
-0.74699414E+00 -0.56083E+04
-0.69699407E+00 -0.55925E+04
-0.64699411E+00 -0.55839E+04
-0.59699416E+00 -0.55840E+04
-0.54699409E+00 -0.55898E+04
-0.49699414E+00 -0.56056E+04
-0.44699407E+00 -0.56066E+04
-0.39699411E+00 -0.56232E+04
-0.34699416E+00 -0.56368E+04
-0.29699409E+00 -0.56489E+04
-0.24699414E+00 -0.56565E+04
-0.19699407E+00 -0.56651E+04
-0.14699411E+00 -0.56882E+04
-0.96994162E-01 -0.56937E+04
-0.46994090E-01 -0.56821E+04
 0.30058622E-02 -0.56735E+04
 0.53005934E-01 -0.56653E+04
 0.10300589E+00 -0.56447E+04
 0.15300584E+00 -0.56305E+04
 0.20300579E+00 -0.56174E+04
 0.25300574E+00 -0.56022E+04
 0.30300593E+00 -0.55862E+04
 0.35300589E+00 -0.55781E+04
 0.40300584E+00 -0.55797E+04
 0.45300579E+00 -0.55841E+04
 0.50300574E+00 -0.55911E+04
 0.55300593E+00 -0.56064E+04
 0.60300589E+00 -0.56340E+04
 0.65300584E+00 -0.56565E+04
 0.70300579E+00 -0.56830E+04
 0.75300574E+00 -0.57088E+04
 0.80300570E+00 -0.57377E+04
 0.85300589E+00 -0.57543E+04
 0.90300584E+00 -0.57605E+04
 0.95300579E+00 -0.57756E+04
 0.10030057E+01 -0.57740E+04
 0.10530057E+01 -0.57674E+04
 0.11030059E+01 -0.57594E+04
 0.11530058E+01 -0.57487E+04
 0.12030058E+01 -0.57266E+04
 0.12530057E+01 -0.57012E+04
 0.13030057E+01 -0.56796E+04
 0.13530059E+01 -0.56568E+04
 0.14030058E+01 -0.56374E+04
 0.14530058E+01 -0.56158E+04
 0.15030057E+01 -0.56007E+04
 0.15530057E+01 -0.55950E+04
 0.16030059E+01 -0.55864E+04
 0.16530058E+01 -0.55814E+04
 0.17030058E+01 -0.55892E+04
 0.17530057E+01 -0.55940E+04
 0.18030057E+01 -0.56012E+04
 0.18530056E+01 -0.56073E+04
 0.19030058E+01 -0.56133E+04
 0.19530058E+01 -0.56170E+04
 0.20030057E+01 -0.56148E+04
 0.20530057E+01 -0.56226E+04
 0.21030059E+01 -0.56299E+04
 0.21530056E+01 -0.56441E+04
 0.22030058E+01 -0.56546E+04
 0.22530055E+01 -0.56672E+04
 0.23030057E+01 -0.56770E+04
 0.23530059E+01 -0.56737E+04
 0.24030056E+01 -0.56770E+04
 0.24530058E+01 -0.56829E+04
 0.25030055E+01 -0.56882E+04
 0.25530057E+01 -0.56928E+04
 0.26030059E+01 -0.57045E+04
 0.26530056E+01 -0.57065E+04
 0.27030058E+01 -0.57103E+04
 0.27530055E+01 -0.57162E+04
 0.28030057E+01 -0.57223E+04
 0.28530059E+01 -0.57219E+04
 0.29030056E+01 -0.57144E+04
 0.29530058E+01 -0.57110E+04
 0.30030055E+01 -0.57052E+04
 0.30530057E+01 -0.56989E+04
 0.31030059E+01 -0.56897E+04
 0.31530056E+01 -0.56862E+04
 0.32030058E+01 -0.56758E+04
 0.32530055E+01 -0.56625E+04
 0.33030057E+01 -0.56513E+04
 0.33530059E+01 -0.56399E+04
 0.34030056E+01 -0.56284E+04
 0.34530058E+01 -0.56143E+04
 0.35030055E+01 -0.56007E+04
 0.35530057E+01 -0.55900E+04
 0.36030054E+01 -0.55763E+04
 0.36530056E+01 -0.55676E+04
 0.37030058E+01 -0.55558E+04
 0.37530055E+01 -0.55474E+04
 0.38030057E+01 -0.55461E+04
 0.38530054E+01 -0.55483E+04
 0.39030056E+01 -0.55625E+04
 0.39530058E+01 -0.55740E+04
 0.40030055E+01 -0.55967E+04
 0.40530057E+01 -0.56147E+04
 0.41030054E+01 -0.56412E+04
 0.41530056E+01 -0.56622E+04
 0.42030058E+01 -0.56772E+04
 0.42530055E+01 -0.56906E+04
 0.43030057E+01 -0.56979E+04
 0.43530054E+01 -0.57054E+04
 0.44030056E+01 -0.57034E+04
 0.44530058E+01 -0.56971E+04
 0.45030055E+01 -0.56853E+04
 0.45530057E+01 -0.56804E+04
 0.46030054E+01 -0.56659E+04
 0.46530056E+01 -0.56600E+04
 0.47030058E+01 -0.56530E+04
 0.47530055E+01 -0.56446E+04
 0.48030057E+01 -0.56386E+04
 0.48530054E+01 -0.56333E+04
 0.49030056E+01 -0.56325E+04
 0.49530058E+01 -0.56314E+04
 0.50030055E+01 -0.56396E+04
 0.50530057E+01 -0.56380E+04
 0.51030054E+01 -0.56417E+04
 0.51530056E+01 -0.56366E+04
 0.52030058E+01 -0.56395E+04
 0.52530055E+01 -0.56440E+04
 0.53030057E+01 -0.56524E+04
 0.53530054E+01 -0.56672E+04
 0.54030056E+01 -0.56738E+04
 0.54530053E+01 -0.56953E+04
 0.55030055E+01 -0.57093E+04
 0.55530057E+01 -0.57235E+04
 0.56030054E+01 -0.57251E+04
 0.56530056E+01 -0.57254E+04
 0.57030053E+01 -0.57299E+04
 0.57530055E+01 -0.57211E+04
 0.58030057E+01 -0.57175E+04
 0.58530054E+01 -0.57064E+04
 0.59030056E+01 -0.56919E+04
 0.59530053E+01 -0.56782E+04
 0.60030055E+01 -0.56635E+04
 0.60530052E+01 -0.56533E+04
 0.61030054E+01 -0.56383E+04
 0.61530056E+01 -0.56409E+04
 0.62030058E+01 -0.56361E+04
 0.62530050E+01 -0.56337E+04
 0.63030052E+01 -0.56343E+04
 0.63530054E+01 -0.56421E+04
 0.64030056E+01 -0.56418E+04
 0.64530058E+01 -0.56336E+04
 0.65030050E+01 -0.56373E+04
 0.65530052E+01 -0.56281E+04
 0.66030054E+01 -0.56282E+04
 0.66530056E+01 -0.56206E+04
 0.67030058E+01 -0.56219E+04
 0.67530050E+01 -0.56194E+04
 0.68030052E+01 -0.56072E+04
 0.68530054E+01 -0.56044E+04
 0.69030056E+01 -0.55967E+04
 0.69530058E+01 -0.55948E+04
 0.70030050E+01 -0.55952E+04
 0.70530052E+01 -0.55951E+04
 0.71030054E+01 -0.56060E+04
 0.71530056E+01 -0.56197E+04
 0.72030058E+01 -0.56390E+04
 0.72530050E+01 -0.56635E+04
 0.73030052E+01 -0.56884E+04
 0.73530054E+01 -0.57100E+04
 0.74030056E+01 -0.57161E+04
 0.74530058E+01 -0.57290E+04
 0.75030050E+01 -0.57383E+04
 0.75530052E+01 -0.57284E+04
 0.76030054E+01 -0.57241E+04
 0.76530056E+01 -0.57130E+04
 0.77030058E+01 -0.56993E+04
 0.77530050E+01 -0.56751E+04
 0.78030052E+01 -0.56420E+04
 0.78530054E+01 -0.56281E+04
 0.79030056E+01 -0.56013E+04
 0.79530058E+01 -0.55721E+04
 0.80030050E+01 -0.55583E+04
 0.80530052E+01 -0.55487E+04
 0.81030054E+01 -0.55364E+04
 0.81530056E+01 -0.55279E+04
 0.82030058E+01 -0.55299E+04
 0.82530050E+01 -0.55436E+04
 0.83030052E+01 -0.55543E+04
 0.83530054E+01 -0.55712E+04
 0.84030056E+01 -0.56023E+04
 0.84530058E+01 -0.56208E+04
 0.85030050E+01 -0.56423E+04
 0.85530052E+01 -0.56699E+04
 0.86030054E+01 -0.57002E+04
 0.86530056E+01 -0.57215E+04
 0.87030058E+01 -0.57478E+04
 0.87530050E+01 -0.57724E+04
 0.88030052E+01 -0.57798E+04
 0.88530054E+01 -0.57867E+04
 0.89030056E+01 -0.57980E+04
 0.89530058E+01 -0.57956E+04
 0.90030050E+01 -0.57891E+04
 0.90530052E+01 -0.57870E+04
 0.91030054E+01 -0.57862E+04
 0.91530056E+01 -0.57841E+04
 0.92030048E+01 -0.57709E+04
 0.92530050E+01 -0.57615E+04
 0.93030052E+01 -0.57502E+04
 0.93530054E+01 -0.57361E+04
 0.94030056E+01 -0.57130E+04
 0.94530048E+01 -0.56978E+04
 0.95030050E+01 -0.56751E+04
 0.95530052E+01 -0.56499E+04
 0.96030054E+01 -0.56246E+04
 0.96530056E+01 -0.55999E+04
 0.97030048E+01 -0.55798E+04
 0.97530050E+01 -0.55516E+04
 0.98030052E+01 -0.55298E+04
 0.98530054E+01 -0.55180E+04
 0.99030056E+01 -0.55085E+04
 0.99530048E+01 -0.54982E+04
 0.10003005E+02 -0.54931E+04
 0.10053005E+02 -0.54974E+04
 0.10103005E+02 -0.54948E+04
 0.10153006E+02 -0.54991E+04
 0.10203005E+02 -0.55213E+04
 0.10253005E+02 -0.55380E+04
 0.10303005E+02 -0.55564E+04
 0.10353005E+02 -0.55788E+04
 0.10403006E+02 -0.56127E+04
 0.10453005E+02 -0.56387E+04
 0.10503005E+02 -0.56681E+04
 0.10553005E+02 -0.56944E+04
 0.10603005E+02 -0.57226E+04
 0.10653006E+02 -0.57493E+04
 0.10703005E+02 -0.57717E+04
 0.10753005E+02 -0.58045E+04
 0.10803005E+02 -0.58236E+04
 0.10853005E+02 -0.58403E+04
 0.10903006E+02 -0.58527E+04
 0.10953005E+02 -0.58525E+04
 0.11003005E+02 -0.58545E+04
 0.11053005E+02 -0.58508E+04
 0.11103005E+02 -0.58336E+04
 0.11153006E+02 -0.58243E+04
 0.11203005E+02 -0.58090E+04
 0.11253005E+02 -0.57920E+04
 0.11303005E+02 -0.57698E+04
 0.11353005E+02 -0.57415E+04
 0.11403006E+02 -0.57229E+04
 0.11453005E+02 -0.56796E+04
 0.11503005E+02 -0.56447E+04
 0.11553005E+02 -0.56231E+04
 0.11603005E+02 -0.55878E+04
 0.11653006E+02 -0.55649E+04
 0.11703005E+02 -0.55395E+04
 0.11753005E+02 -0.55192E+04
 0.11803005E+02 -0.55081E+04
 0.11853005E+02 -0.54966E+04
 0.11903006E+02 -0.54869E+04
 0.11953005E+02 -0.54814E+04
 0.12003005E+02 -0.54790E+04
 0.12053005E+02 -0.54801E+04
 0.12103005E+02 -0.54862E+04
 0.12153006E+02 -0.54951E+04
 0.12203005E+02 -0.55055E+04
 0.12253005E+02 -0.55119E+04
 0.12303005E+02 -0.55222E+04
 0.12353005E+02 -0.55217E+04
 0.12403006E+02 -0.55311E+04
 0.12453005E+02 -0.55341E+04
 0.12503005E+02 -0.55273E+04
 0.12553005E+02 -0.55316E+04
 0.12603005E+02 -0.55322E+04
 0.12653005E+02 -0.55389E+04
 0.12703005E+02 -0.55385E+04
 0.12753005E+02 -0.55494E+04
 0.12803005E+02 -0.55651E+04
 0.12853005E+02 -0.55845E+04
 0.12903005E+02 -0.56076E+04
 0.12953005E+02 -0.56270E+04
 0.13003005E+02 -0.56565E+04
 0.13053005E+02 -0.56715E+04
 0.13103005E+02 -0.56958E+04
 0.13153005E+02 -0.57258E+04
 0.13203005E+02 -0.57498E+04
 0.13253005E+02 -0.57786E+04
 0.13303005E+02 -0.57969E+04
 0.13353005E+02 -0.58141E+04
 0.13403005E+02 -0.58207E+04
 0.13453005E+02 -0.58188E+04
 0.13503005E+02 -0.58129E+04
 0.13553005E+02 -0.57982E+04
 0.13603005E+02 -0.57853E+04
 0.13653005E+02 -0.57646E+04
 0.13703005E+02 -0.57414E+04
 0.13753005E+02 -0.57200E+04
 0.13803005E+02 -0.56919E+04
 0.13853005E+02 -0.56626E+04
 0.13903005E+02 -0.56386E+04
 0.13953005E+02 -0.56148E+04
 0.14003005E+02 -0.55895E+04
 0.14053005E+02 -0.55728E+04
 0.14103004E+02 -0.55594E+04
 0.14153006E+02 -0.55562E+04
 0.14203005E+02 -0.55591E+04
 0.14253004E+02 -0.55674E+04
 0.14303005E+02 -0.55764E+04
 0.14353004E+02 -0.55843E+04
 0.14403006E+02 -0.55987E+04
 0.14453005E+02 -0.56072E+04
 0.14503004E+02 -0.56210E+04
 0.14553005E+02 -0.56331E+04
 0.14603004E+02 -0.56502E+04
 0.14653006E+02 -0.56726E+04
 0.14703005E+02 -0.56855E+04
 0.14753004E+02 -0.57079E+04
 0.14803005E+02 -0.57276E+04
 0.14853004E+02 -0.57433E+04
 0.14903006E+02 -0.57670E+04
 0.14953005E+02 -0.57860E+04
 0.15003004E+02 -0.58038E+04
 0.15053005E+02 -0.58107E+04
 0.15103004E+02 -0.58104E+04
 0.15153006E+02 -0.58157E+04
 0.15203005E+02 -0.58083E+04
 0.15253004E+02 -0.57932E+04
 0.15303005E+02 -0.57775E+04
 0.15353004E+02 -0.57576E+04
 0.15403006E+02 -0.57290E+04
 0.15453005E+02 -0.56959E+04
 0.15503004E+02 -0.56618E+04
 0.15553005E+02 -0.56339E+04
 0.15603004E+02 -0.56026E+04
 0.15653006E+02 -0.55760E+04
 0.15703005E+02 -0.55573E+04
 0.15753004E+02 -0.55396E+04
 0.15803005E+02 -0.55310E+04
 0.15853004E+02 -0.55244E+04
 0.15903006E+02 -0.55270E+04
 0.15953005E+02 -0.55264E+04
 0.16003004E+02 -0.55361E+04
 0.16053005E+02 -0.55418E+04
 0.16103004E+02 -0.55507E+04
 0.16153006E+02 -0.55646E+04
 0.16203005E+02 -0.55785E+04
 0.16253004E+02 -0.55973E+04
 0.16303005E+02 -0.56048E+04
 0.16353004E+02 -0.56139E+04
 0.16403006E+02 -0.56278E+04
 0.16453005E+02 -0.56399E+04
 0.16503004E+02 -0.56480E+04
 0.16553005E+02 -0.56586E+04
 0.16603004E+02 -0.56676E+04
 0.16653006E+02 -0.56733E+04
 0.16703005E+02 -0.56841E+04
 0.16753004E+02 -0.56947E+04
 0.16803005E+02 -0.57006E+04
 0.16853004E+02 -0.57071E+04
 0.16903006E+02 -0.57049E+04
 0.16953005E+02 -0.57110E+04
 0.17003004E+02 -0.57175E+04
 0.17053005E+02 -0.57160E+04
 0.17103004E+02 -0.57192E+04
 0.17153006E+02 -0.57246E+04
 0.17203005E+02 -0.57277E+04
 0.17253004E+02 -0.57301E+04
 0.17303005E+02 -0.57310E+04
 0.17353004E+02 -0.57359E+04
 0.17403006E+02 -0.57366E+04
 0.17453005E+02 -0.57346E+04
 0.17503004E+02 -0.57383E+04
 0.17553005E+02 -0.57270E+04
 0.17603004E+02 -0.57266E+04
 0.17653006E+02 -0.57167E+04
 0.17703005E+02 -0.57017E+04
 0.17753004E+02 -0.56917E+04
 0.17803005E+02 -0.56654E+04
 0.17853004E+02 -0.56468E+04
 0.17903006E+02 -0.56284E+04
 0.17953005E+02 -0.56053E+04
 0.18003004E+02 -0.55911E+04
 0.18053005E+02 -0.55663E+04
 0.18103004E+02 -0.55560E+04
 0.18153006E+02 -0.55542E+04
 0.18203005E+02 -0.55475E+04
 0.18253004E+02 -0.55439E+04
 0.18303005E+02 -0.55560E+04
 0.18353004E+02 -0.55726E+04
 0.18403006E+02 -0.55774E+04
 0.18453005E+02 -0.55903E+04
 0.18503004E+02 -0.56012E+04
 0.18553005E+02 -0.56167E+04
 0.18603004E+02 -0.56240E+04
 0.18653006E+02 -0.56401E+04
 0.18703005E+02 -0.56498E+04
 0.18753004E+02 -0.56577E+04
 0.18803005E+02 -0.56719E+04
 0.18853004E+02 -0.56792E+04
 0.18903006E+02 -0.56819E+04
 0.18953005E+02 -0.56877E+04
 0.19003004E+02 -0.56931E+04
 0.19053005E+02 -0.56966E+04
 0.19103004E+02 -0.56918E+04
 0.19153006E+02 -0.56982E+04
 0.19203005E+02 -0.56983E+04
 0.19253004E+02 -0.56858E+04
 0.19303005E+02 -0.56946E+04
 0.19353004E+02 -0.56850E+04
 0.19403006E+02 -0.56859E+04
 0.19453005E+02 -0.56819E+04
 0.19503004E+02 -0.56814E+04
 0.19553005E+02 -0.56821E+04
 0.19603004E+02 -0.56837E+04
 0.19653006E+02 -0.56853E+04
 0.19703005E+02 -0.56845E+04
 0.19753004E+02 -0.56868E+04
 0.19803005E+02 -0.56792E+04
 0.19853004E+02 -0.56755E+04
 0.19903006E+02 -0.56562E+04
 0.19953005E+02 -0.56532E+04
 0.20003004E+02 -0.56428E+04
 0.20053005E+02 -0.56218E+04
 0.20103004E+02 -0.56167E+04
 0.20153006E+02 -0.56085E+04
 0.20203005E+02 -0.56016E+04
 0.20253004E+02 -0.55932E+04
 0.20303005E+02 -0.55899E+04
 0.20353004E+02 -0.55965E+04
 0.20403004E+02 -0.56047E+04
 0.20453005E+02 -0.56122E+04
 0.20503004E+02 -0.56196E+04
 0.20553005E+02 -0.56379E+04
 0.20603004E+02 -0.56458E+04
 0.20653004E+02 -0.56560E+04
 0.20703005E+02 -0.56682E+04
 0.20753004E+02 -0.56774E+04
 0.20803005E+02 -0.56872E+04
 0.20853004E+02 -0.56904E+04
 0.20903004E+02 -0.56927E+04
 0.20953005E+02 -0.56898E+04
 0.21003004E+02 -0.56823E+04
 0.21053005E+02 -0.56633E+04
 0.21103004E+02 -0.56520E+04
 0.21153004E+02 -0.56361E+04
 0.21203005E+02 -0.56240E+04
 0.21253004E+02 -0.56056E+04
 0.21303005E+02 -0.55889E+04
 0.21353004E+02 -0.55802E+04
 0.21403004E+02 -0.55726E+04
 0.21453005E+02 -0.55722E+04
 0.21503004E+02 -0.55733E+04
 0.21553005E+02 -0.55860E+04
 0.21603004E+02 -0.55933E+04
 0.21653004E+02 -0.56094E+04
 0.21703005E+02 -0.56319E+04
 0.21753004E+02 -0.56534E+04
 0.21803005E+02 -0.56737E+04
 0.21853004E+02 -0.56944E+04
 0.21903004E+02 -0.57094E+04
 0.21953005E+02 -0.57256E+04
 0.22003004E+02 -0.57466E+04
 0.22053005E+02 -0.57570E+04
 0.22103004E+02 -0.57776E+04
 0.22153004E+02 -0.57853E+04
 0.22203005E+02 -0.57871E+04
 0.22253004E+02 -0.57915E+04
 0.22303005E+02 -0.57867E+04
 0.22353004E+02 -0.57861E+04
 0.22403004E+02 -0.57645E+04
 0.22453005E+02 -0.57489E+04
 0.22503004E+02 -0.57331E+04
 0.22553005E+02 -0.57140E+04
 0.22603004E+02 -0.56928E+04
 0.22653004E+02 -0.56685E+04
 0.22703005E+02 -0.56512E+04
 0.22753004E+02 -0.56278E+04
 0.22803005E+02 -0.56020E+04
 0.22853004E+02 -0.55863E+04
 0.22903004E+02 -0.55784E+04
 0.22953005E+02 -0.55685E+04
 0.23003004E+02 -0.55639E+04
 0.23053005E+02 -0.55569E+04
 0.23103004E+02 -0.55568E+04
 0.23153004E+02 -0.55511E+04
 0.23203005E+02 -0.55517E+04
 0.23253004E+02 -0.55485E+04
 0.23303005E+02 -0.55462E+04
 0.23353004E+02 -0.55494E+04
 0.23403004E+02 -0.55468E+04
 0.23453005E+02 -0.55552E+04
 0.23503004E+02 -0.55531E+04
 0.23553005E+02 -0.55603E+04
 0.23603004E+02 -0.55732E+04
 0.23653004E+02 -0.55884E+04
 0.23703005E+02 -0.56110E+04
 0.23753004E+02 -0.56244E+04
 0.23803005E+02 -0.56447E+04
 0.23853004E+02 -0.56680E+04
 0.23903004E+02 -0.56898E+04
 0.23953005E+02 -0.57010E+04
 0.24003004E+02 -0.57138E+04
 0.24053005E+02 -0.57222E+04
 0.24103004E+02 -0.57175E+04
 0.24153004E+02 -0.57184E+04
 0.24203005E+02 -0.57119E+04
 0.24253004E+02 -0.57013E+04
 0.24303005E+02 -0.56836E+04
 0.24353004E+02 -0.56674E+04
 0.24403004E+02 -0.56428E+04
 0.24453005E+02 -0.56233E+04
 0.24503004E+02 -0.56105E+04
 0.24553005E+02 -0.55934E+04
 0.24603004E+02 -0.55866E+04
 0.24653004E+02 -0.55803E+04
 0.24703005E+02 -0.55775E+04
 0.24753004E+02 -0.55792E+04
 0.24803005E+02 -0.55897E+04
 0.24853004E+02 -0.55974E+04
 0.24903004E+02 -0.56095E+04
 0.24953005E+02 -0.56246E+04
 0.25003004E+02 -0.56375E+04
 0.25053005E+02 -0.56449E+04
 0.25103004E+02 -0.56564E+04
 0.25153004E+02 -0.56719E+04
 0.25203005E+02 -0.56791E+04
 0.25253004E+02 -0.56914E+04
 0.25303005E+02 -0.57028E+04
 0.25353004E+02 -0.57140E+04
 0.25403004E+02 -0.57227E+04
 0.25453005E+02 -0.57277E+04
 0.25503004E+02 -0.57347E+04
 0.25553005E+02 -0.57426E+04
 0.25603004E+02 -0.57457E+04
 0.25653004E+02 -0.57491E+04
 0.25703005E+02 -0.57541E+04
 0.25753004E+02 -0.57615E+04
 0.25803005E+02 -0.57594E+04
 0.25853004E+02 -0.57537E+04
 0.25903004E+02 -0.57490E+04
 0.25953005E+02 -0.57407E+04
 0.26003004E+02 -0.57405E+04
 0.26053005E+02 -0.57163E+04
 0.26103004E+02 -0.57026E+04
 0.26153004E+02 -0.56974E+04
 0.26203005E+02 -0.56813E+04
 0.26253004E+02 -0.56677E+04
 0.26303005E+02 -0.56557E+04
 0.26353004E+02 -0.56465E+04
 0.26403004E+02 -0.56364E+04
 0.26453005E+02 -0.56339E+04
 0.26503004E+02 -0.56269E+04
 0.26553005E+02 -0.56206E+04
 0.26603004E+02 -0.56106E+04
 0.26653004E+02 -0.56038E+04
 0.26703005E+02 -0.56011E+04
 0.26753004E+02 -0.55929E+04
 0.26803005E+02 -0.55909E+04
 0.26853004E+02 -0.55834E+04
 0.26903004E+02 -0.55774E+04
 0.26953005E+02 -0.55766E+04
 0.27003004E+02 -0.55816E+04
 0.27053003E+02 -0.55853E+04
 0.27103004E+02 -0.55851E+04
 0.27153004E+02 -0.56016E+04
 0.27203005E+02 -0.56115E+04
 0.27253004E+02 -0.56204E+04
 0.27303003E+02 -0.56373E+04
 0.27353004E+02 -0.56563E+04
 0.27403004E+02 -0.56785E+04
 0.27453005E+02 -0.56896E+04
 0.27503004E+02 -0.57055E+04
 0.27553003E+02 -0.57242E+04
 0.27603004E+02 -0.57280E+04
 0.27653004E+02 -0.57362E+04
 0.27703005E+02 -0.57314E+04
 0.27753004E+02 -0.57318E+04
 0.27803003E+02 -0.57254E+04
 0.27853004E+02 -0.57083E+04
 0.27903004E+02 -0.57085E+04
 0.27953005E+02 -0.56882E+04
 0.28003004E+02 -0.56740E+04
 0.28053003E+02 -0.56659E+04
 0.28103004E+02 -0.56503E+04
 0.28153004E+02 -0.56501E+04
 0.28203005E+02 -0.56463E+04
 0.28253004E+02 -0.56387E+04
 0.28303003E+02 -0.56447E+04
 0.28353004E+02 -0.56404E+04
 0.28403004E+02 -0.56294E+04
 0.28453005E+02 -0.56281E+04
 0.28503004E+02 -0.56290E+04
 0.28553003E+02 -0.56245E+04
 0.28603004E+02 -0.56116E+04
 0.28653004E+02 -0.56088E+04
 0.28703005E+02 -0.56085E+04
 0.28753004E+02 -0.55997E+04
 0.28803003E+02 -0.55957E+04
 0.28853004E+02 -0.55953E+04
 0.28903004E+02 -0.55959E+04
 0.28953005E+02 -0.55822E+04
 0.29003004E+02 -0.55864E+04
 0.29053003E+02 -0.55902E+04
 0.29103004E+02 -0.55831E+04
 0.29153004E+02 -0.55953E+04
 0.29203005E+02 -0.55974E+04
 0.29253004E+02 -0.56093E+04
 0.29303003E+02 -0.56168E+04
 0.29353004E+02 -0.56197E+04
 0.29403004E+02 -0.56333E+04
 0.29453005E+02 -0.56391E+04
 0.29503004E+02 -0.56425E+04
 0.29553003E+02 -0.56479E+04
 0.29603004E+02 -0.56575E+04
 0.29653004E+02 -0.56639E+04
 0.29703005E+02 -0.56718E+04
 0.29753004E+02 -0.56799E+04
 0.29803003E+02 -0.56830E+04
 0.29853004E+02 -0.56955E+04
 0.29903004E+02 -0.56968E+04
 0.29953005E+02 -0.56999E+04
 0.30003004E+02 -0.57021E+04
 0.30053005E+02 -0.56982E+04
 0.30103004E+02 -0.56879E+04
 0.30153004E+02 -0.56908E+04
 0.30203003E+02 -0.56861E+04
 0.30253002E+02 -0.56724E+04
 0.30303005E+02 -0.56725E+04
 0.30353004E+02 -0.56618E+04
 0.30403004E+02 -0.56564E+04
 0.30453003E+02 -0.56406E+04
 0.30503002E+02 -0.56375E+04
 0.30553005E+02 -0.56311E+04
 0.30603004E+02 -0.56196E+04
 0.30653004E+02 -0.56203E+04
 0.30703003E+02 -0.56222E+04
 0.30753002E+02 -0.56214E+04
 0.30803005E+02 -0.56111E+04
 0.30853004E+02 -0.56121E+04
 0.30903004E+02 -0.56219E+04
 0.30953003E+02 -0.56238E+04
 0.31003002E+02 -0.56286E+04
 0.31053005E+02 -0.56367E+04
 0.31103004E+02 -0.56446E+04
 0.31153004E+02 -0.56608E+04
 0.31203003E+02 -0.56642E+04
 0.31253002E+02 -0.56832E+04
 0.31303005E+02 -0.56993E+04
 0.31353004E+02 -0.57110E+04
 0.31403004E+02 -0.57185E+04
 0.31453003E+02 -0.57242E+04
 0.31503002E+02 -0.57411E+04
 0.31553005E+02 -0.57348E+04
 0.31603004E+02 -0.57415E+04
 0.31653004E+02 -0.57450E+04
 0.31703003E+02 -0.57451E+04
 0.31753002E+02 -0.57283E+04
 0.31803005E+02 -0.57175E+04
 0.31853004E+02 -0.57161E+04
 0.31903004E+02 -0.57028E+04
 0.31953003E+02 -0.56859E+04
 0.32003002E+02 -0.56643E+04
 0.32053005E+02 -0.56549E+04
 0.32103004E+02 -0.56428E+04
 0.32153004E+02 -0.56291E+04
 0.32203003E+02 -0.56212E+04
 0.32253002E+02 -0.56111E+04
 0.32303005E+02 -0.56073E+04
 0.32353004E+02 -0.56018E+04
 0.32403004E+02 -0.55946E+04
 0.32453003E+02 -0.56015E+04
 0.32503002E+02 -0.55979E+04
 0.32553005E+02 -0.55960E+04
 0.32603004E+02 -0.56018E+04
 0.32653004E+02 -0.56097E+04
 0.32703003E+02 -0.56163E+04
 0.32753002E+02 -0.56246E+04
 0.32803005E+02 -0.56314E+04
 0.32853004E+02 -0.56373E+04
 0.32903004E+02 -0.56411E+04
 0.32953003E+02 -0.56440E+04
 0.33003002E+02 -0.56507E+04
 0.33053005E+02 -0.56539E+04
 0.33103004E+02 -0.56525E+04
 0.33153004E+02 -0.56538E+04
 0.33203003E+02 -0.56514E+04
 0.33253002E+02 -0.56430E+04
 0.33303005E+02 -0.56372E+04
 0.33353004E+02 -0.56261E+04
 0.33403004E+02 -0.56139E+04
 0.33453003E+02 -0.56108E+04
 0.33503002E+02 -0.56094E+04
 0.33553005E+02 -0.56077E+04
 0.33603004E+02 -0.56098E+04
 0.33653004E+02 -0.56130E+04
 0.33703003E+02 -0.56126E+04
 0.33753002E+02 -0.56188E+04
 0.33803005E+02 -0.56258E+04
 0.33853004E+02 -0.56333E+04
 0.33903004E+02 -0.56415E+04
 0.33953003E+02 -0.56528E+04
 0.34003002E+02 -0.56665E+04
 0.34053005E+02 -0.56719E+04
 0.34103004E+02 -0.56862E+04
 0.34153004E+02 -0.57022E+04
 0.34203003E+02 -0.57168E+04
 0.34253002E+02 -0.57269E+04
 0.34303005E+02 -0.57321E+04
 0.34353004E+02 -0.57419E+04
 0.34403004E+02 -0.57506E+04
 0.34453003E+02 -0.57578E+04
 0.34503002E+02 -0.57536E+04
 0.34553005E+02 -0.57441E+04
 0.34603004E+02 -0.57331E+04
 0.34653004E+02 -0.57192E+04
 0.34703003E+02 -0.57132E+04
 0.34753002E+02 -0.57006E+04
 0.34803005E+02 -0.56907E+04
 0.34853004E+02 -0.56786E+04
 0.34903004E+02 -0.56667E+04
 0.34953003E+02 -0.56623E+04
 0.35003002E+02 -0.56445E+04
 0.35053005E+02 -0.56196E+04
 0.35103004E+02 -0.55991E+04
 0.35153004E+02 -0.55722E+04
 0.35203003E+02 -0.55400E+04
 0.35253002E+02 -0.55211E+04
 0.35303005E+02 -0.55102E+04
 0.35353004E+02 -0.55079E+04
 0.35403004E+02 -0.55029E+04
 0.35453003E+02 -0.55041E+04
 0.35503002E+02 -0.55187E+04
 0.35553005E+02 -0.55184E+04
 0.35603004E+02 -0.55374E+04
 0.35653004E+02 -0.55690E+04
 0.35703003E+02 -0.56126E+04
 0.35753002E+02 -0.56546E+04
 0.35803005E+02 -0.56709E+04
 0.35853004E+02 -0.56868E+04
 0.35903004E+02 -0.57132E+04
 0.35953003E+02 -0.57599E+04
 0.36003002E+02 -0.58023E+04
 0.36053005E+02 -0.58322E+04
 0.36103004E+02 -0.58396E+04
 0.36153004E+02 -0.58041E+04
 0.36203003E+02 -0.57624E+04
 0.36253002E+02 -0.57685E+04
 0.36303005E+02 -0.57841E+04
 0.36353004E+02 -0.57915E+04
 0.36403004E+02 -0.57870E+04
 0.36453003E+02 -0.57941E+04
 0.36503002E+02 -0.58088E+04
 0.36553005E+02 -0.57783E+04
 0.36603004E+02 -0.57500E+04
 0.36653004E+02 -0.57106E+04
 0.36703003E+02 -0.56718E+04
 0.36753002E+02 -0.56556E+04
 0.36803005E+02 -0.56376E+04
 0.36853004E+02 -0.56180E+04
 0.36903004E+02 -0.55807E+04
 0.36953003E+02 -0.55223E+04
 0.37003002E+02 -0.55341E+04
 0.37053005E+02 -0.55993E+04
 0.37103004E+02 -0.56071E+04
 0.37153004E+02 -0.55774E+04
 0.37203003E+02 -0.55111E+04
 0.37253002E+02 -0.54993E+04
 0.37303005E+02 -0.55793E+04
 0.37353004E+02 -0.56328E+04
 0.37403004E+02 -0.55992E+04
 0.37453003E+02 -0.55631E+04
 0.37503002E+02 -0.55638E+04
 0.37553005E+02 -0.55848E+04
 0.37603004E+02 -0.56284E+04
 0.37653004E+02 -0.56181E+04
 0.37703003E+02 -0.55499E+04
 0.37753002E+02 -0.55191E+04
 0.37803005E+02 -0.55651E+04
 0.37853004E+02 -0.56067E+04
 0.37903004E+02 -0.56145E+04
 0.37953003E+02 -0.56162E+04
 0.38003002E+02 -0.56147E+04
 0.38053005E+02 -0.56346E+04
 0.38103004E+02 -0.56549E+04
 0.38153004E+02 -0.56218E+04
 0.38203003E+02 -0.55861E+04
 0.38253002E+02 -0.56385E+04
 0.38303005E+02 -0.57333E+04
 0.38353004E+02 -0.56858E+04
 0.38403004E+02 -0.56154E+04
 0.38453003E+02 -0.56360E+04
 0.38503002E+02 -0.57064E+04
 0.38553005E+02 -0.57588E+04
 0.38603004E+02 -0.56712E+04
 0.38653004E+02 -0.56073E+04
 0.38703003E+02 -0.56263E+04
 0.38753002E+02 -0.57231E+04
 0.38803005E+02 -0.57662E+04
 0.38853004E+02 -0.57211E+04
 0.38903004E+02 -0.56503E+04
 0.38953003E+02 -0.55334E+04
 0.39003002E+02 -0.55821E+04
 0.39053005E+02 -0.56981E+04
 0.39103004E+02 -0.57457E+04
 0.39153004E+02 -0.57155E+04
 0.39203003E+02 -0.55515E+04
 0.39253002E+02 -0.55121E+04
 0.39303005E+02 -0.55197E+04
 0.39353004E+02 -0.55480E+04
 0.39403004E+02 -0.55445E+04
 0.39453003E+02 -0.55740E+04
 0.39503002E+02 -0.57308E+04
 0.39553005E+02 -0.57356E+04
 0.39603004E+02 -0.57926E+04
 0.39653004E+02 -0.57761E+04
 0.39703003E+02 -0.56986E+04
 0.39753002E+02 -0.57011E+04
 0.39803005E+02 -0.56796E+04
 0.39853004E+02 -0.57088E+04
 0.39903004E+02 -0.56926E+04
 0.39953003E+02 -0.56740E+04
 0.40003002E+02 -0.57004E+04
 0.40053005E+02 -0.56332E+04
 0.40103004E+02 -0.56124E+04
 0.40153004E+02 -0.56199E+04
 0.40203003E+02 -0.56179E+04
 0.40253002E+02 -0.55824E+04
 0.40303005E+02 -0.57286E+04
 0.40353004E+02 -0.59772E+04
 0.40403004E+02 -0.60604E+04
 0.40453003E+02 -0.60343E+04
 0.40503002E+02 -0.57524E+04
 0.40553005E+02 -0.55560E+04
 0.40603004E+02 -0.54094E+04
 0.40653004E+02 -0.54394E+04
 0.40703003E+02 -0.56118E+04
 0.40753002E+02 -0.56907E+04
 0.40803005E+02 -0.57334E+04
 0.40853004E+02 -0.55565E+04
 0.40903004E+02 -0.54365E+04
 0.40953003E+02 -0.56533E+04
 0.41003002E+02 -0.59500E+04
 0.41053005E+02 -0.59435E+04
 0.41103004E+02 -0.56985E+04
 0.41153004E+02 -0.56756E+04
 0.41203003E+02 -0.55671E+04
 0.41253002E+02 -0.51185E+04
 0.41303005E+02 -0.49511E+04
 0.41353004E+02 -0.50992E+04
 0.41403004E+02 -0.54680E+04
 0.41453003E+02 -0.56530E+04
 0.41503002E+02 -0.57544E+04
 0.41553005E+02 -0.58188E+04
 0.41603004E+02 -0.54890E+04
 0.41653004E+02 -0.52016E+04
 0.41703003E+02 -0.51951E+04
 0.41753002E+02 -0.56121E+04
 0.41803005E+02 -0.59817E+04
 0.41853004E+02 -0.60604E+04
 0.41903004E+02 -0.59143E+04
 0.41953003E+02 -0.57421E+04
 0.42003002E+02 -0.58614E+04
 0.42053005E+02 -0.60382E+04
 0.42103004E+02 -0.62501E+04
 0.42153004E+02 -0.61912E+04
 0.42203003E+02 -0.59221E+04
 0.42253002E+02 -0.55737E+04
 0.42303005E+02 -0.53864E+04
 0.42353004E+02 -0.55585E+04
 0.42403004E+02 -0.56981E+04
 0.42453003E+02 -0.57383E+04
 0.42503002E+02 -0.57431E+04
 0.42553005E+02 -0.59342E+04
 0.42603004E+02 -0.61665E+04
 0.42653004E+02 -0.61334E+04
 0.42703003E+02 -0.56069E+04
 0.42753002E+02 -0.50854E+04
 0.42803001E+02 -0.52460E+04
 0.42853004E+02 -0.54104E+04
 0.42903004E+02 -0.55136E+04
 0.42953003E+02 -0.56559E+04
 0.43003002E+02 -0.55419E+04
 0.43053001E+02 -0.51941E+04
 0.43103004E+02 -0.48486E+04
 0.43153004E+02 -0.50509E+04
 0.43203003E+02 -0.55734E+04
 0.43253002E+02 -0.60267E+04
 0.43303001E+02 -0.61744E+04
 0.43353004E+02 -0.58884E+04
 0.43403004E+02 -0.54342E+04
 0.43453003E+02 -0.52169E+04
 0.43503002E+02 -0.55218E+04
 0.43553001E+02 -0.59132E+04
 0.43603004E+02 -0.59012E+04
 0.43653004E+02 -0.58908E+04
 0.43703003E+02 -0.60696E+04
 0.43753002E+02 -0.59951E+04
 0.43803001E+02 -0.55757E+04
 0.43853004E+02 -0.53689E+04
 0.43903004E+02 -0.55072E+04
 0.43953003E+02 -0.55406E+04
 0.44003002E+02 -0.54275E+04
 0.44053001E+02 -0.55605E+04
 0.44103004E+02 -0.60693E+04
 0.44153004E+02 -0.63766E+04
 0.44203003E+02 -0.62418E+04
 0.44253002E+02 -0.60389E+04
 0.44303001E+02 -0.58493E+04
 0.44353004E+02 -0.56102E+04
 0.44403004E+02 -0.55067E+04
 0.44453003E+02 -0.54932E+04
 0.44503002E+02 -0.57499E+04
 0.44553001E+02 -0.57162E+04
 0.44603004E+02 -0.55040E+04
 0.44653004E+02 -0.54404E+04
 0.44703003E+02 -0.53000E+04
 0.44753002E+02 -0.54044E+04
 0.44803001E+02 -0.54415E+04
 0.44853004E+02 -0.57812E+04
 0.44903004E+02 -0.57534E+04
 0.44953003E+02 -0.52873E+04
 0.45003002E+02 -0.50182E+04
 0.45053001E+02 -0.48917E+04
 0.45103004E+02 -0.51507E+04
 0.45153004E+02 -0.53879E+04
 0.45203003E+02 -0.56719E+04
 0.45253002E+02 -0.61079E+04
 0.45303001E+02 -0.63304E+04
 0.45353004E+02 -0.61183E+04
 0.45403004E+02 -0.57469E+04
 0.45453003E+02 -0.54776E+04
 0.45503002E+02 -0.53744E+04
 0.45553001E+02 -0.54636E+04
 0.45603004E+02 -0.55940E+04
 0.45653004E+02 -0.58192E+04
 0.45703003E+02 -0.62044E+04
 0.45753002E+02 -0.62478E+04
 0.45803001E+02 -0.58916E+04
 0.45853004E+02 -0.56827E+04
 0.45903004E+02 -0.55795E+04
 0.45953003E+02 -0.56140E+04
 0.46003002E+02 -0.56238E+04
 0.46053001E+02 -0.55055E+04
 0.46103004E+02 -0.56674E+04
 0.46153004E+02 -0.57864E+04
 0.46203003E+02 -0.59575E+04
 0.46253002E+02 -0.63491E+04
 0.46303001E+02 -0.62901E+04
 0.46353004E+02 -0.59639E+04
 0.46403004E+02 -0.54923E+04
 0.46453003E+02 -0.52708E+04
 0.46503002E+02 -0.54552E+04
 0.46553001E+02 -0.51129E+04
 0.46603004E+02 -0.48817E+04
 0.46653004E+02 -0.50043E+04
 0.46703003E+02 -0.51913E+04
 0.46753002E+02 -0.53212E+04
 0.46803001E+02 -0.51194E+04
 0.46853004E+02 -0.52408E+04
 0.46903004E+02 -0.54983E+04
 0.46953003E+02 -0.58719E+04
 0.47003002E+02 -0.64754E+04
 0.47053001E+02 -0.67176E+04
 0.47103004E+02 -0.65969E+04
 0.47153004E+02 -0.61757E+04
 0.47203003E+02 -0.57607E+04
 0.47253002E+02 -0.56670E+04
 0.47303001E+02 -0.54369E+04
 0.47353004E+02 -0.52766E+04
 0.47403004E+02 -0.55676E+04
 0.47453003E+02 -0.58483E+04
 0.47503002E+02 -0.56380E+04
 0.47553001E+02 -0.53166E+04
 0.47603004E+02 -0.54000E+04
 0.47653004E+02 -0.54681E+04
 0.47703003E+02 -0.52442E+04
 0.47753002E+02 -0.50799E+04
 0.47803001E+02 -0.52382E+04
 0.47853004E+02 -0.55966E+04
 0.47903004E+02 -0.59015E+04
 0.47953003E+02 -0.61087E+04
 0.48003002E+02 -0.63491E+04
 0.48053001E+02 -0.61679E+04
 0.48103004E+02 -0.56779E+04
 0.48153004E+02 -0.52631E+04
 0.48203003E+02 -0.50580E+04
 0.48253002E+02 -0.51452E+04
 0.48303001E+02 -0.52387E+04
 0.48353004E+02 -0.55775E+04
 0.48403004E+02 -0.59003E+04
 0.48453003E+02 -0.58228E+04
 0.48503002E+02 -0.57479E+04
 0.48553001E+02 -0.57786E+04
 0.48603004E+02 -0.56380E+04
 0.48653004E+02 -0.53296E+04
 0.48703003E+02 -0.51774E+04
 0.48753002E+02 -0.55039E+04
 0.48803001E+02 -0.58075E+04
 0.48853004E+02 -0.58919E+04
 0.48903004E+02 -0.58582E+04
 0.48953003E+02 -0.55602E+04
 0.49003002E+02 -0.53003E+04
 0.49053001E+02 -0.53607E+04
 0.49103004E+02 -0.59625E+04
 0.49153004E+02 -0.63651E+04
 0.49203003E+02 -0.62062E+04
 0.49253002E+02 -0.59917E+04
 0.49303001E+02 -0.56065E+04
 0.49353004E+02 -0.53160E+04
 0.49403004E+02 -0.52802E+04
 0.49453003E+02 -0.54102E+04
 0.49503002E+02 -0.59364E+04
 0.49553001E+02 -0.65564E+04
 0.49603004E+02 -0.67559E+04
 0.49653004E+02 -0.63130E+04
 0.49703003E+02 -0.55436E+04
 0.49753002E+02 -0.50134E+04
 0.49803001E+02 -0.49966E+04
 0.49853004E+02 -0.53432E+04
 0.49903004E+02 -0.56534E+04
 0.49953003E+02 -0.56565E+04
 0.50003002E+02 -0.56752E+04
 0.50053001E+02 -0.56644E+04
 0.50103004E+02 -0.56079E+04
 0.50153004E+02 -0.57259E+04
 0.50203003E+02 -0.56140E+04
 0.50253002E+02 -0.55796E+04
 0.50303001E+02 -0.57829E+04
 0.50353004E+02 -0.58411E+04
 0.50403004E+02 -0.55607E+04
 0.50453003E+02 -0.52052E+04
 0.50503002E+02 -0.50495E+04
 0.50553001E+02 -0.50894E+04
 0.50603004E+02 -0.53357E+04
 0.50653004E+02 -0.54755E+04
 0.50703003E+02 -0.57090E+04
 0.50753002E+02 -0.59553E+04
 0.50803001E+02 -0.57930E+04
 0.50853004E+02 -0.53979E+04
 0.50903004E+02 -0.51996E+04
 0.50953003E+02 -0.57636E+04
 0.51003002E+02 -0.64918E+04
 0.51053001E+02 -0.64954E+04
 0.51103004E+02 -0.62496E+04
 0.51153004E+02 -0.61689E+04
 0.51203003E+02 -0.58669E+04
 0.51253002E+02 -0.53446E+04
 0.51303001E+02 -0.49865E+04
 0.51353004E+02 -0.50515E+04
 0.51403004E+02 -0.55590E+04
 0.51453003E+02 -0.60992E+04
 0.51503002E+02 -0.62734E+04
 0.51553001E+02 -0.60426E+04
 0.51603004E+02 -0.56497E+04
 0.51653004E+02 -0.51664E+04
 0.51703003E+02 -0.49066E+04
 0.51753002E+02 -0.49265E+04
 0.51803001E+02 -0.49295E+04
 0.51853004E+02 -0.50733E+04
 0.51903004E+02 -0.54659E+04
 0.51953003E+02 -0.57196E+04
 0.52003002E+02 -0.56536E+04
 0.52053001E+02 -0.56310E+04
 0.52103004E+02 -0.56832E+04
 0.52153004E+02 -0.58281E+04
 0.52203003E+02 -0.61644E+04
 0.52253002E+02 -0.66120E+04
 0.52303001E+02 -0.68301E+04
 0.52353004E+02 -0.64964E+04
 0.52403004E+02 -0.60831E+04
 0.52453003E+02 -0.60040E+04
 0.52503002E+02 -0.59768E+04
 0.52553001E+02 -0.59728E+04
 0.52603004E+02 -0.60064E+04
 0.52653004E+02 -0.57825E+04
 0.52703003E+02 -0.56498E+04
 0.52753002E+02 -0.56639E+04
 0.52803001E+02 -0.54304E+04
 0.52853004E+02 -0.52364E+04
 0.52903004E+02 -0.52076E+04
 0.52953003E+02 -0.51681E+04
 0.53003002E+02 -0.51453E+04
 0.53053001E+02 -0.53462E+04
 0.53103004E+02 -0.56068E+04
 0.53153004E+02 -0.55889E+04
 0.53203003E+02 -0.55160E+04
 0.53253002E+02 -0.56730E+04
 0.53303001E+02 -0.55767E+04
 0.53353004E+02 -0.53192E+04
 0.53403004E+02 -0.53056E+04
 0.53453003E+02 -0.56110E+04
 0.53503002E+02 -0.59891E+04
 0.53553001E+02 -0.59741E+04
 0.53603004E+02 -0.56334E+04
 0.53653004E+02 -0.51925E+04
 0.53703003E+02 -0.51793E+04
 0.53753002E+02 -0.54272E+04
 0.53803001E+02 -0.54930E+04
 0.53853004E+02 -0.54614E+04
 0.53903004E+02 -0.55641E+04
 0.53953003E+02 -0.58213E+04
 0.54003002E+02 -0.59085E+04
 0.54053001E+02 -0.56688E+04
 0.54103004E+02 -0.54844E+04
 0.54153004E+02 -0.56579E+04
 0.54203003E+02 -0.59211E+04
 0.54253002E+02 -0.61269E+04
 0.54303001E+02 -0.62564E+04
 0.54353004E+02 -0.60633E+04
 0.54403004E+02 -0.57793E+04
 0.54453003E+02 -0.56797E+04
 0.54503002E+02 -0.54295E+04
 0.54553001E+02 -0.50157E+04
 0.54603004E+02 -0.47267E+04
 0.54653004E+02 -0.47519E+04
 0.54703003E+02 -0.50050E+04
 0.54753002E+02 -0.51641E+04
 0.54803001E+02 -0.52017E+04
 0.54853004E+02 -0.51855E+04
 0.54903004E+02 -0.53152E+04
 0.54953003E+02 -0.56527E+04
 0.55003002E+02 -0.57983E+04
 0.55053001E+02 -0.59332E+04
 0.55103004E+02 -0.62095E+04
 0.55153004E+02 -0.63854E+04
 0.55203003E+02 -0.63180E+04
 0.55253002E+02 -0.60972E+04
 0.55303001E+02 -0.59398E+04
 0.55353004E+02 -0.58062E+04
 0.55403004E+02 -0.57995E+04
 0.55453003E+02 -0.58374E+04
 0.55503002E+02 -0.57596E+04
 0.55553001E+02 -0.55465E+04
 0.55603004E+02 -0.55144E+04
 0.55653004E+02 -0.57802E+04
 0.55703003E+02 -0.58528E+04
 0.55753002E+02 -0.58424E+04
 0.55803001E+02 -0.58704E+04
 0.55853001E+02 -0.58183E+04
 0.55903004E+02 -0.58082E+04
 0.55953003E+02 -0.59526E+04
 0.56003002E+02 -0.62768E+04
 0.56053001E+02 -0.64240E+04
 0.56103001E+02 -0.61949E+04
 0.56153004E+02 -0.58263E+04
 0.56203003E+02 -0.56646E+04
 0.56253002E+02 -0.58430E+04
 0.56303001E+02 -0.59205E+04
 0.56353001E+02 -0.56269E+04
 0.56403004E+02 -0.52395E+04
 0.56453003E+02 -0.51714E+04
 0.56503002E+02 -0.53597E+04
 0.56553001E+02 -0.54002E+04
 0.56603001E+02 -0.54445E+04
 0.56653004E+02 -0.55655E+04
 0.56703003E+02 -0.54720E+04
 0.56753002E+02 -0.54005E+04
 0.56803001E+02 -0.54294E+04
 0.56853001E+02 -0.54048E+04
 0.56903004E+02 -0.53978E+04
 0.56953003E+02 -0.55638E+04
 0.57003002E+02 -0.59607E+04
 0.57053001E+02 -0.61996E+04
 0.57103001E+02 -0.62067E+04
 0.57153004E+02 -0.59806E+04
 0.57203003E+02 -0.55842E+04
 0.57253002E+02 -0.53480E+04
 0.57303001E+02 -0.51068E+04
 0.57353001E+02 -0.49114E+04
 0.57403004E+02 -0.50529E+04
 0.57453003E+02 -0.53863E+04
 0.57503002E+02 -0.55420E+04
 0.57553001E+02 -0.54868E+04
 0.57603001E+02 -0.54472E+04
 0.57653004E+02 -0.54192E+04
 0.57703003E+02 -0.53981E+04
 0.57753002E+02 -0.53707E+04
 0.57803001E+02 -0.53423E+04
 0.57853001E+02 -0.56109E+04
 0.57903004E+02 -0.61252E+04
 0.57953003E+02 -0.63876E+04
 0.58003002E+02 -0.63392E+04
 0.58053001E+02 -0.63146E+04
 0.58103001E+02 -0.62704E+04
 0.58153004E+02 -0.60825E+04
 0.58203003E+02 -0.58497E+04
 0.58253002E+02 -0.56688E+04
 0.58303001E+02 -0.57715E+04
 0.58353001E+02 -0.58742E+04
 0.58403004E+02 -0.60230E+04
 0.58453003E+02 -0.61072E+04
 0.58503002E+02 -0.57518E+04
 0.58553001E+02 -0.53848E+04
 0.58603001E+02 -0.51116E+04
 0.58653004E+02 -0.50884E+04
 0.58703003E+02 -0.51001E+04
 0.58753002E+02 -0.49182E+04
 0.58803001E+02 -0.49521E+04
 0.58853001E+02 -0.51926E+04
 0.58903004E+02 -0.54780E+04
 0.58953003E+02 -0.55813E+04
 0.59003002E+02 -0.54661E+04
 0.59053001E+02 -0.53484E+04
 0.59103001E+02 -0.53152E+04
 0.59153004E+02 -0.53952E+04
 0.59203003E+02 -0.57002E+04
 0.59253002E+02 -0.59246E+04
 0.59303001E+02 -0.58494E+04
 0.59353001E+02 -0.57545E+04
 0.59403004E+02 -0.59329E+04
 0.59453003E+02 -0.62717E+04
 0.59503002E+02 -0.64548E+04
 0.59553001E+02 -0.63457E+04
 0.59603001E+02 -0.57465E+04
 0.59653004E+02 -0.51274E+04
 0.59703003E+02 -0.47233E+04
 0.59753002E+02 -0.47459E+04
 0.59803001E+02 -0.51621E+04
 0.59853001E+02 -0.52540E+04
 0.59903004E+02 -0.50792E+04
 0.59953003E+02 -0.50710E+04
 0.60003002E+02 -0.54201E+04
 0.60053001E+02 -0.59230E+04
 0.60103001E+02 -0.63154E+04
 0.60153004E+02 -0.64933E+04
 0.60203003E+02 -0.65572E+04
 0.60253002E+02 -0.64284E+04
 0.60303001E+02 -0.60974E+04
 0.60353001E+02 -0.57633E+04
 0.60403004E+02 -0.55211E+04
 0.60453003E+02 -0.55826E+04
 0.60503002E+02 -0.57631E+04
 0.60553001E+02 -0.59260E+04
 0.60603001E+02 -0.59164E+04
 0.60653004E+02 -0.56932E+04
 0.60703003E+02 -0.55600E+04
 0.60753002E+02 -0.55068E+04
 0.60803001E+02 -0.55283E+04
 0.60853001E+02 -0.55286E+04
 0.60903004E+02 -0.54492E+04
 0.60953003E+02 -0.54778E+04
 0.61003002E+02 -0.55229E+04
 0.61053001E+02 -0.57275E+04
 0.61103001E+02 -0.62563E+04
 0.61153004E+02 -0.66384E+04
 0.61203003E+02 -0.64806E+04
 0.61253002E+02 -0.61871E+04
 0.61303001E+02 -0.59125E+04
 0.61353001E+02 -0.54901E+04
 0.61403004E+02 -0.50881E+04
 0.61453003E+02 -0.46600E+04
 0.61503002E+02 -0.45543E+04
 0.61553001E+02 -0.48479E+04
 0.61603001E+02 -0.51404E+04
 0.61653004E+02 -0.53869E+04
 0.61703003E+02 -0.56437E+04
 0.61753002E+02 -0.55936E+04
 0.61803001E+02 -0.54682E+04
 0.61853001E+02 -0.54520E+04
 0.61903004E+02 -0.56413E+04
 0.61953003E+02 -0.58423E+04
 0.62003002E+02 -0.56658E+04
 0.62053001E+02 -0.56015E+04
 0.62103004E+02 -0.55913E+04
 0.62153000E+02 -0.57431E+04
 0.62203003E+02 -0.59954E+04
 0.62252998E+02 -0.61119E+04
 0.62303001E+02 -0.63045E+04
 0.62353004E+02 -0.65868E+04
 0.62403000E+02 -0.66504E+04
 0.62453003E+02 -0.62923E+04
 0.62502998E+02 -0.58758E+04
 0.62553001E+02 -0.57369E+04
 0.62603004E+02 -0.57492E+04
 0.62653000E+02 -0.55657E+04
 0.62703003E+02 -0.54655E+04
 0.62752998E+02 -0.57285E+04
 0.62803001E+02 -0.57823E+04
 0.62853004E+02 -0.57004E+04
 0.62903000E+02 -0.54369E+04
 0.62953003E+02 -0.52797E+04
 0.63002998E+02 -0.57466E+04
 0.63053001E+02 -0.61498E+04
 0.63103004E+02 -0.63051E+04
 0.63153000E+02 -0.63078E+04
 0.63203003E+02 -0.63180E+04
 0.63252998E+02 -0.61493E+04
 0.63303001E+02 -0.55928E+04
 0.63353004E+02 -0.51505E+04
 0.63403000E+02 -0.50935E+04
 0.63453003E+02 -0.53269E+04
 0.63502998E+02 -0.54302E+04
 0.63553001E+02 -0.52527E+04
 0.63603004E+02 -0.51045E+04
 0.63653000E+02 -0.49324E+04
 0.63703003E+02 -0.48857E+04
 0.63752998E+02 -0.50167E+04
 0.63803001E+02 -0.49789E+04
 0.63853004E+02 -0.49741E+04
 0.63903000E+02 -0.52108E+04
 0.63953003E+02 -0.54522E+04
 0.64002998E+02 -0.55510E+04
 0.64053001E+02 -0.55667E+04
 0.64103004E+02 -0.55947E+04
 0.64153000E+02 -0.56500E+04
 0.64203003E+02 -0.56335E+04
 0.64252998E+02 -0.56847E+04
 0.64303001E+02 -0.56726E+04
 0.64353004E+02 -0.56654E+04
 0.64403000E+02 -0.59039E+04
 0.64453003E+02 -0.59274E+04
 0.64502998E+02 -0.58581E+04
 0.64553001E+02 -0.61149E+04
 0.64603004E+02 -0.63856E+04
 0.64653000E+02 -0.61829E+04
 0.64703003E+02 -0.57534E+04
 0.64752998E+02 -0.55238E+04
 0.64803001E+02 -0.57628E+04
 0.64853004E+02 -0.62331E+04
 0.64903000E+02 -0.64777E+04
 0.64953003E+02 -0.66350E+04
 0.65002998E+02 -0.65172E+04
 0.65053001E+02 -0.62820E+04
 0.65103004E+02 -0.56578E+04
 0.65153000E+02 -0.49717E+04
 0.65203003E+02 -0.49899E+04
 0.65252998E+02 -0.51725E+04
 0.65303001E+02 -0.53555E+04
 0.65353004E+02 -0.54310E+04
 0.65403000E+02 -0.54233E+04
 0.65453003E+02 -0.56425E+04
 0.65502998E+02 -0.58976E+04
 0.65553001E+02 -0.56342E+04
 0.65603004E+02 -0.51712E+04
 0.65653000E+02 -0.49561E+04
 0.65703003E+02 -0.50946E+04
 0.65752998E+02 -0.53104E+04
 0.65803001E+02 -0.51899E+04
 0.65853004E+02 -0.49657E+04
 0.65903000E+02 -0.49385E+04
 0.65953003E+02 -0.52033E+04
 0.66002998E+02 -0.56073E+04
 0.66053001E+02 -0.59049E+04
 0.66103004E+02 -0.59715E+04
 0.66153000E+02 -0.59684E+04
 0.66203003E+02 -0.59155E+04
 0.66252998E+02 -0.57240E+04
 0.66303001E+02 -0.55776E+04
 0.66353004E+02 -0.55086E+04
 0.66403000E+02 -0.54953E+04
 0.66453003E+02 -0.56600E+04
 0.66502998E+02 -0.56921E+04
 0.66553001E+02 -0.56586E+04
 0.66603004E+02 -0.54969E+04
 0.66653000E+02 -0.53651E+04
 0.66703003E+02 -0.55388E+04
 0.66752998E+02 -0.57598E+04
 0.66803001E+02 -0.55742E+04
 0.66853004E+02 -0.50692E+04
 0.66903000E+02 -0.50249E+04
 0.66953003E+02 -0.50947E+04
 0.67002998E+02 -0.50055E+04
 0.67053001E+02 -0.51567E+04
 0.67103004E+02 -0.56322E+04
 0.67153000E+02 -0.61015E+04
 0.67203003E+02 -0.61995E+04
 0.67252998E+02 -0.60952E+04
 0.67303001E+02 -0.59994E+04
 0.67353004E+02 -0.59464E+04
 0.67403000E+02 -0.58700E+04
 0.67453003E+02 -0.58085E+04
 0.67502998E+02 -0.57030E+04
 0.67553001E+02 -0.53329E+04
 0.67603004E+02 -0.52747E+04
 0.67653000E+02 -0.54691E+04
 0.67703003E+02 -0.52407E+04
 0.67752998E+02 -0.51319E+04
 0.67803001E+02 -0.55044E+04
 0.67853004E+02 -0.59789E+04
 0.67903000E+02 -0.59980E+04
 0.67953003E+02 -0.54697E+04
 0.68002998E+02 -0.52350E+04
 0.68053001E+02 -0.54218E+04
 0.68103004E+02 -0.56364E+04
 0.68153000E+02 -0.57077E+04
 0.68203003E+02 -0.58678E+04
 0.68252998E+02 -0.61969E+04
 0.68303001E+02 -0.60964E+04
 0.68353004E+02 -0.55018E+04
 0.68403000E+02 -0.50981E+04
 0.68453003E+02 -0.52011E+04
 0.68502998E+02 -0.55108E+04
 0.68553001E+02 -0.54679E+04
 0.68603004E+02 -0.53303E+04
 0.68653000E+02 -0.54214E+04
 0.68703003E+02 -0.56671E+04
 0.68752998E+02 -0.64168E+04
 0.68803001E+02 -0.67798E+04
 0.68853004E+02 -0.64560E+04
 0.68903000E+02 -0.61344E+04
 0.68953003E+02 -0.60338E+04
 0.69002998E+02 -0.62276E+04
 0.69053001E+02 -0.63249E+04
 0.69103004E+02 -0.61253E+04
 0.69153000E+02 -0.60069E+04
 0.69203003E+02 -0.57180E+04
 0.69252998E+02 -0.51335E+04
 0.69303001E+02 -0.47615E+04
 0.69353004E+02 -0.48157E+04
 0.69403000E+02 -0.51922E+04
 0.69453003E+02 -0.56718E+04
 0.69502998E+02 -0.65702E+04
 0.69553001E+02 -0.73956E+04
 0.69603004E+02 -0.70047E+04
 0.69653000E+02 -0.63347E+04
 0.69703003E+02 -0.65165E+04
 0.69752998E+02 -0.66857E+04
 0.69803001E+02 -0.63857E+04
 0.69853004E+02 -0.59565E+04
 0.69903000E+02 -0.55287E+04
 0.69953003E+02 -0.53691E+04
 0.70002998E+02 -0.52944E+04
 0.70053001E+02 -0.51467E+04
 0.70103004E+02 -0.51736E+04
 0.70153000E+02 -0.48898E+04
 0.70203003E+02 -0.44868E+04
 0.70252998E+02 -0.48123E+04
 0.70303001E+02 -0.52432E+04
 0.70353004E+02 -0.54936E+04
 0.70403000E+02 -0.60165E+04
 0.70453003E+02 -0.67571E+04
 0.70502998E+02 -0.75686E+04
 0.70553001E+02 -0.75258E+04
 0.70603004E+02 -0.64056E+04
 0.70653000E+02 -0.50631E+04
 0.70703003E+02 -0.39082E+04
 0.70752998E+02 -0.31315E+04
 0.70803001E+02 -0.30240E+04
 0.70853004E+02 -0.37820E+04
 0.70903000E+02 -0.51951E+04
 0.70953003E+02 -0.61859E+04
 0.71002998E+02 -0.64076E+04
 0.71053001E+02 -0.64683E+04
 0.71103004E+02 -0.66032E+04
 0.71153000E+02 -0.67374E+04
 0.71203003E+02 -0.66473E+04
 0.71252998E+02 -0.66994E+04
 0.71303001E+02 -0.69170E+04
 0.71353004E+02 -0.66528E+04
 0.71403000E+02 -0.61233E+04
 0.71453003E+02 -0.59057E+04
 0.71502998E+02 -0.56272E+04
 0.71553001E+02 -0.52339E+04
 0.71603004E+02 -0.47318E+04
 0.71653000E+02 -0.43200E+04
 0.71703003E+02 -0.43312E+04
 0.71752998E+02 -0.43091E+04
 0.71803001E+02 -0.47038E+04
 0.71853004E+02 -0.57716E+04
 0.71903000E+02 -0.65870E+04
 0.71953003E+02 -0.66787E+04
 0.72002998E+02 -0.59604E+04
 0.72053001E+02 -0.49268E+04
 0.72103004E+02 -0.40150E+04
 0.72153000E+02 -0.38312E+04
 0.72203003E+02 -0.49972E+04
 0.72252998E+02 -0.65716E+04
 0.72303001E+02 -0.76935E+04
 0.72353004E+02 -0.82005E+04
 0.72403000E+02 -0.80276E+04
 0.72453003E+02 -0.70839E+04
 0.72502998E+02 -0.57707E+04
 0.72553001E+02 -0.46445E+04
 0.72603004E+02 -0.39688E+04
 0.72653000E+02 -0.39359E+04
 0.72703003E+02 -0.42264E+04
 0.72752998E+02 -0.45859E+04
 0.72803001E+02 -0.49664E+04
 0.72853004E+02 -0.52842E+04
 0.72903000E+02 -0.55085E+04
 0.72953003E+02 -0.58891E+04
 0.73002998E+02 -0.63483E+04
 0.73053001E+02 -0.64179E+04
 0.73103004E+02 -0.62347E+04
 0.73153000E+02 -0.62552E+04
 0.73203003E+02 -0.66756E+04
 0.73252998E+02 -0.69470E+04
 0.73303001E+02 -0.70017E+04
 0.73353004E+02 -0.72831E+04
 0.73403000E+02 -0.72993E+04
 0.73453003E+02 -0.66052E+04
 0.73502998E+02 -0.53619E+04
 0.73553001E+02 -0.44417E+04
 0.73603004E+02 -0.43108E+04
 0.73653000E+02 -0.44815E+04
 0.73703003E+02 -0.49529E+04
 0.73752998E+02 -0.56749E+04
 0.73803001E+02 -0.61508E+04
 0.73853004E+02 -0.61330E+04
 0.73903000E+02 -0.57985E+04
 0.73953003E+02 -0.55314E+04
 0.74002998E+02 -0.50134E+04
 0.74053001E+02 -0.43308E+04
 0.74103004E+02 -0.43700E+04
 0.74153000E+02 -0.51406E+04
 0.74203003E+02 -0.59247E+04
 0.74252998E+02 -0.63197E+04
 0.74303001E+02 -0.64579E+04
 0.74353004E+02 -0.62696E+04
 0.74403000E+02 -0.59839E+04
 0.74453003E+02 -0.57979E+04
 0.74502998E+02 -0.54997E+04
 0.74553001E+02 -0.53958E+04
 0.74603004E+02 -0.54805E+04
 0.74653000E+02 -0.54850E+04
 0.74703003E+02 -0.55720E+04
 0.74752998E+02 -0.58195E+04
 0.74803001E+02 -0.57960E+04
 0.74853004E+02 -0.54732E+04
 0.74903000E+02 -0.54743E+04
 0.74953003E+02 -0.55204E+04
 0.75002998E+02 -0.51342E+04
 0.75053001E+02 -0.47920E+04
 0.75103004E+02 -0.49232E+04
 0.75153000E+02 -0.50473E+04
 0.75203003E+02 -0.47929E+04
 0.75252998E+02 -0.44800E+04
 0.75303001E+02 -0.41852E+04
 0.75353004E+02 -0.39327E+04
 0.75403000E+02 -0.39009E+04
 0.75453003E+02 -0.39814E+04
 0.75502998E+02 -0.39567E+04
 0.75553001E+02 -0.40013E+04
 0.75603004E+02 -0.44477E+04
 0.75653000E+02 -0.54553E+04
 0.75703003E+02 -0.65211E+04
 0.75752998E+02 -0.70907E+04
 0.75803001E+02 -0.73403E+04
 0.75853004E+02 -0.74850E+04
 0.75903000E+02 -0.75147E+04
 0.75953003E+02 -0.72585E+04
 0.76002998E+02 -0.67860E+04
 0.76053001E+02 -0.63817E+04
 0.76103004E+02 -0.61195E+04
 0.76153000E+02 -0.63406E+04
 0.76203003E+02 -0.69445E+04
 0.76252998E+02 -0.76337E+04
 0.76303001E+02 -0.78377E+04
 0.76353004E+02 -0.71514E+04
 0.76403000E+02 -0.63099E+04
 0.76453003E+02 -0.56588E+04
 0.76502998E+02 -0.56653E+04
 0.76553001E+02 -0.60436E+04
 0.76603004E+02 -0.60181E+04
 0.76653000E+02 -0.55325E+04
 0.76703003E+02 -0.50266E+04
 0.76752998E+02 -0.50447E+04
 0.76803001E+02 -0.52320E+04
 0.76853004E+02 -0.50982E+04
 0.76903000E+02 -0.49871E+04
 0.76953003E+02 -0.50999E+04
 0.77002998E+02 -0.52094E+04
 0.77053001E+02 -0.49759E+04
 0.77103004E+02 -0.45265E+04
 0.77153000E+02 -0.43936E+04
 0.77203003E+02 -0.45131E+04
 0.77252998E+02 -0.47996E+04
 0.77303001E+02 -0.51824E+04
 0.77353004E+02 -0.56785E+04
 0.77403000E+02 -0.60646E+04
 0.77453003E+02 -0.62404E+04
 0.77502998E+02 -0.62201E+04
 0.77553001E+02 -0.59904E+04
 0.77603004E+02 -0.55657E+04
 0.77653000E+02 -0.52477E+04
 0.77703003E+02 -0.54264E+04
 0.77752998E+02 -0.57721E+04
 0.77803001E+02 -0.59774E+04
 0.77853004E+02 -0.60033E+04
 0.77903000E+02 -0.60269E+04
 0.77953003E+02 -0.60740E+04
 0.78002998E+02 -0.61532E+04
 0.78053001E+02 -0.64637E+04
 0.78103004E+02 -0.68573E+04
 0.78153000E+02 -0.71180E+04
 0.78203003E+02 -0.71497E+04
 0.78252998E+02 -0.68858E+04
 0.78303001E+02 -0.65413E+04
 0.78353004E+02 -0.60586E+04
 0.78403000E+02 -0.52540E+04
 0.78453003E+02 -0.45920E+04
 0.78502998E+02 -0.44736E+04
 0.78553001E+02 -0.45363E+04
 0.78603004E+02 -0.43619E+04
 0.78653000E+02 -0.40450E+04
 0.78703003E+02 -0.40540E+04
 0.78752998E+02 -0.45829E+04
 0.78803001E+02 -0.53767E+04
 0.78853004E+02 -0.60313E+04
 0.78903000E+02 -0.63873E+04
 0.78953003E+02 -0.66439E+04
 0.79002998E+02 -0.66412E+04
 0.79053001E+02 -0.63018E+04
 0.79103004E+02 -0.61307E+04
 0.79153000E+02 -0.61674E+04
 0.79203003E+02 -0.62911E+04
 0.79252998E+02 -0.63721E+04
 0.79303001E+02 -0.62083E+04
 0.79353004E+02 -0.59148E+04
 0.79403000E+02 -0.54910E+04
 0.79453003E+02 -0.50145E+04
 0.79502998E+02 -0.45786E+04
 0.79553001E+02 -0.44267E+04
 0.79603004E+02 -0.45320E+04
 0.79653000E+02 -0.47850E+04
 0.79703003E+02 -0.51779E+04
 0.79752998E+02 -0.54088E+04
 0.79803001E+02 -0.54823E+04
 0.79853004E+02 -0.55632E+04
 0.79903000E+02 -0.56162E+04
 0.79953003E+02 -0.57565E+04
 0.80002998E+02 -0.60237E+04
 0.80053001E+02 -0.62042E+04
 0.80103004E+02 -0.62752E+04
 0.80153000E+02 -0.60166E+04
 0.80203003E+02 -0.54747E+04
 0.80252998E+02 -0.51294E+04
 0.80303001E+02 -0.52089E+04
 0.80353004E+02 -0.54804E+04
 0.80403000E+02 -0.56889E+04
 0.80453003E+02 -0.58721E+04
 0.80502998E+02 -0.61104E+04
 0.80553001E+02 -0.63441E+04
 0.80603004E+02 -0.63475E+04
 0.80653000E+02 -0.62331E+04
 0.80703003E+02 -0.59615E+04
 0.80752998E+02 -0.55196E+04
 0.80803001E+02 -0.53106E+04
 0.80853004E+02 -0.54978E+04
 0.80903000E+02 -0.58524E+04
 0.80953003E+02 -0.60503E+04
 0.81002998E+02 -0.61738E+04
 0.81053001E+02 -0.63540E+04
 0.81103004E+02 -0.62659E+04
 0.81153000E+02 -0.58426E+04
 0.81203003E+02 -0.56052E+04
 0.81252998E+02 -0.56718E+04
 0.81303001E+02 -0.56509E+04
 0.81353004E+02 -0.53685E+04
 0.81403000E+02 -0.49509E+04
 0.81453003E+02 -0.44339E+04
 0.81502998E+02 -0.39035E+04
 0.81553001E+02 -0.37799E+04
 0.81603004E+02 -0.41588E+04
 0.81653000E+02 -0.47373E+04
 0.81703003E+02 -0.51096E+04
 0.81752998E+02 -0.52377E+04
 0.81803001E+02 -0.54667E+04
 0.81853004E+02 -0.55794E+04
 0.81903000E+02 -0.53343E+04
 0.81953003E+02 -0.50633E+04
 0.82002998E+02 -0.49084E+04
 0.82053001E+02 -0.48018E+04
 0.82103004E+02 -0.46438E+04
 0.82153000E+02 -0.45331E+04
 0.82203003E+02 -0.48236E+04
 0.82252998E+02 -0.54078E+04
 0.82303001E+02 -0.59496E+04
 0.82353004E+02 -0.64321E+04
 0.82403000E+02 -0.68848E+04
 0.82453003E+02 -0.70121E+04
 0.82502998E+02 -0.67865E+04
 0.82553001E+02 -0.65848E+04
 0.82603004E+02 -0.65226E+04
 0.82653000E+02 -0.64169E+04
 0.82703003E+02 -0.61893E+04
 0.82752998E+02 -0.58681E+04
 0.82803001E+02 -0.55379E+04
 0.82853004E+02 -0.53428E+04
 0.82903000E+02 -0.53680E+04
 0.82953003E+02 -0.57783E+04
 0.83002998E+02 -0.64052E+04
 0.83053001E+02 -0.69387E+04
 0.83103004E+02 -0.71209E+04
 0.83153000E+02 -0.69114E+04
 0.83203003E+02 -0.65869E+04
 0.83252998E+02 -0.62867E+04
 0.83303001E+02 -0.62064E+04
 0.83353004E+02 -0.63376E+04
 0.83403000E+02 -0.63983E+04
 0.83453003E+02 -0.62527E+04
 0.83502998E+02 -0.60155E+04
 0.83553001E+02 -0.57791E+04
 0.83603004E+02 -0.53899E+04
 0.83653000E+02 -0.48329E+04
 0.83703003E+02 -0.44340E+04
 0.83752998E+02 -0.43026E+04
 0.83803001E+02 -0.44132E+04
 0.83853004E+02 -0.47745E+04
 0.83903000E+02 -0.51803E+04
 0.83953003E+02 -0.54950E+04
 0.84002998E+02 -0.56051E+04
 0.84053001E+02 -0.53565E+04
 0.84103004E+02 -0.49079E+04
 0.84153000E+02 -0.45676E+04
 0.84203003E+02 -0.44713E+04
 0.84252998E+02 -0.45436E+04
 0.84303001E+02 -0.46734E+04
 0.84353004E+02 -0.47709E+04
 0.84403000E+02 -0.47042E+04
 0.84453003E+02 -0.45908E+04
 0.84502998E+02 -0.45714E+04
 0.84553001E+02 -0.46350E+04
 0.84603004E+02 -0.47298E+04
 0.84653000E+02 -0.47870E+04
 0.84703003E+02 -0.50480E+04
 0.84752998E+02 -0.56148E+04
 0.84803001E+02 -0.61683E+04
 0.84853004E+02 -0.64908E+04
 0.84903000E+02 -0.64631E+04
 0.84953003E+02 -0.62375E+04
 0.85002998E+02 -0.61453E+04
 0.85053001E+02 -0.61812E+04
 0.85103004E+02 -0.60909E+04
 0.85153000E+02 -0.57957E+04
 0.85203003E+02 -0.55441E+04
 0.85252998E+02 -0.55855E+04
 0.85303001E+02 -0.57827E+04
 0.85353004E+02 -0.58379E+04
 0.85403000E+02 -0.57568E+04
 0.85453003E+02 -0.57002E+04
 0.85502998E+02 -0.57773E+04
 0.85553001E+02 -0.58980E+04
 0.85603004E+02 -0.60178E+04
 0.85653000E+02 -0.60871E+04
 0.85703003E+02 -0.59418E+04
 0.85752998E+02 -0.57578E+04
 0.85803001E+02 -0.57242E+04
 0.85853004E+02 -0.59071E+04
 0.85903000E+02 -0.62868E+04
 0.85953003E+02 -0.65577E+04
 0.86002998E+02 -0.65269E+04
 0.86053001E+02 -0.62768E+04
 0.86103004E+02 -0.59503E+04
 0.86153000E+02 -0.57316E+04
 0.86203003E+02 -0.57310E+04
 0.86252998E+02 -0.58331E+04
 0.86303001E+02 -0.58767E+04
 0.86353004E+02 -0.59737E+04
 0.86403000E+02 -0.62386E+04
 0.86453003E+02 -0.65410E+04
 0.86502998E+02 -0.68262E+04
 0.86553001E+02 -0.69858E+04
 0.86603004E+02 -0.69644E+04
 0.86653000E+02 -0.68398E+04
 0.86703003E+02 -0.65955E+04
 0.86752998E+02 -0.62493E+04
 0.86803001E+02 -0.58416E+04
 0.86853004E+02 -0.55019E+04
 0.86903000E+02 -0.53683E+04
 0.86953003E+02 -0.54825E+04
 0.87002998E+02 -0.56851E+04
 0.87053001E+02 -0.57600E+04
 0.87103004E+02 -0.56857E+04
 0.87153000E+02 -0.54912E+04
 0.87203003E+02 -0.52393E+04
 0.87252998E+02 -0.50861E+04
 0.87303001E+02 -0.50943E+04
 0.87353004E+02 -0.51082E+04
 0.87403000E+02 -0.50084E+04
 0.87453003E+02 -0.49154E+04
 0.87502998E+02 -0.48094E+04
 0.87553001E+02 -0.47335E+04
 0.87602997E+02 -0.48127E+04
 0.87653000E+02 -0.49955E+04
 0.87703003E+02 -0.52564E+04
 0.87752998E+02 -0.55420E+04
 0.87803001E+02 -0.58077E+04
 0.87852997E+02 -0.60642E+04
 0.87903000E+02 -0.63149E+04
 0.87953003E+02 -0.65846E+04
 0.88002998E+02 -0.67621E+04
 0.88053001E+02 -0.66322E+04
 0.88102997E+02 -0.63728E+04
 0.88153000E+02 -0.61336E+04
 0.88203003E+02 -0.59441E+04
 0.88252998E+02 -0.59028E+04
 0.88303001E+02 -0.60497E+04
 0.88352997E+02 -0.64230E+04
 0.88403000E+02 -0.69047E+04
 0.88453003E+02 -0.71775E+04
 0.88502998E+02 -0.70110E+04
 0.88553001E+02 -0.65509E+04
 0.88602997E+02 -0.60079E+04
 0.88653000E+02 -0.53902E+04
 0.88703003E+02 -0.48412E+04
 0.88752998E+02 -0.45197E+04
 0.88803001E+02 -0.43724E+04
 0.88852997E+02 -0.43807E+04
 0.88903000E+02 -0.44727E+04
 0.88953003E+02 -0.45591E+04
 0.89002998E+02 -0.46160E+04
 0.89053001E+02 -0.46528E+04
 0.89102997E+02 -0.47597E+04
 0.89153000E+02 -0.48904E+04
 0.89203003E+02 -0.50415E+04
 0.89252998E+02 -0.53056E+04
 0.89303001E+02 -0.56744E+04
 0.89352997E+02 -0.60752E+04
 0.89403000E+02 -0.63835E+04
 0.89453003E+02 -0.64972E+04
 0.89502998E+02 -0.62835E+04
 0.89553001E+02 -0.58341E+04
 0.89602997E+02 -0.55053E+04
 0.89653000E+02 -0.56201E+04
 0.89703003E+02 -0.60521E+04
 0.89752998E+02 -0.63242E+04
 0.89803001E+02 -0.62949E+04
 0.89852997E+02 -0.61299E+04
 0.89903000E+02 -0.59285E+04
 0.89953003E+02 -0.57780E+04
 0.90002998E+02 -0.58037E+04
 0.90053001E+02 -0.60224E+04
 0.90102997E+02 -0.62165E+04
 0.90153000E+02 -0.61709E+04
 0.90203003E+02 -0.60254E+04
 0.90252998E+02 -0.59641E+04
 0.90303001E+02 -0.59858E+04
 0.90352997E+02 -0.59428E+04
 0.90403000E+02 -0.57668E+04
 0.90453003E+02 -0.54526E+04
 0.90502998E+02 -0.49321E+04
 0.90553001E+02 -0.43161E+04
 0.90602997E+02 -0.37792E+04
 0.90653000E+02 -0.34187E+04
 0.90703003E+02 -0.32562E+04
 0.90752998E+02 -0.32859E+04
 0.90803001E+02 -0.34749E+04
 0.90852997E+02 -0.36724E+04
 0.90903000E+02 -0.38715E+04
 0.90953003E+02 -0.40730E+04
 0.91002998E+02 -0.41777E+04
 0.91053001E+02 -0.42838E+04
 0.91102997E+02 -0.44364E+04
 0.91153000E+02 -0.45976E+04
 0.91203003E+02 -0.48242E+04
 0.91252998E+02 -0.51318E+04
 0.91303001E+02 -0.54365E+04
 0.91352997E+02 -0.56262E+04
 0.91403000E+02 -0.56794E+04
 0.91453003E+02 -0.56851E+04
 0.91502998E+02 -0.57221E+04
 0.91553001E+02 -0.57980E+04
 0.91602997E+02 -0.59092E+04
 0.91653000E+02 -0.60333E+04
 0.91703003E+02 -0.61057E+04
 0.91752998E+02 -0.61429E+04
 0.91803001E+02 -0.62443E+04
 0.91852997E+02 -0.64929E+04
 0.91903000E+02 -0.68943E+04
 0.91953003E+02 -0.72705E+04
 0.92002998E+02 -0.75394E+04
 0.92053001E+02 -0.77742E+04
 0.92102997E+02 -0.79033E+04
 0.92153000E+02 -0.78112E+04
 0.92203003E+02 -0.75275E+04
 0.92252998E+02 -0.72533E+04
 0.92303001E+02 -0.70745E+04
 0.92352997E+02 -0.69523E+04
 0.92403000E+02 -0.68957E+04
 0.92453003E+02 -0.69389E+04
 0.92502998E+02 -0.70417E+04
 0.92553001E+02 -0.70641E+04
 0.92602997E+02 -0.69611E+04
 0.92653000E+02 -0.68100E+04
 0.92703003E+02 -0.66654E+04
 0.92752998E+02 -0.65231E+04
 0.92803001E+02 -0.63492E+04
 0.92852997E+02 -0.61608E+04
 0.92903000E+02 -0.60299E+04
 0.92953003E+02 -0.59601E+04
 0.93002998E+02 -0.59267E+04
 0.93053001E+02 -0.58820E+04
 0.93102997E+02 -0.58094E+04
 0.93153000E+02 -0.58083E+04
 0.93203003E+02 -0.57705E+04
 0.93252998E+02 -0.55598E+04
 0.93303001E+02 -0.53117E+04
 0.93352997E+02 -0.51661E+04
 0.93403000E+02 -0.51482E+04
 0.93453003E+02 -0.51120E+04
 0.93502998E+02 -0.50484E+04
 0.93553001E+02 -0.50605E+04
 0.93602997E+02 -0.51518E+04
 0.93653000E+02 -0.52948E+04
 0.93703003E+02 -0.55239E+04
 0.93752998E+02 -0.57661E+04
 0.93803001E+02 -0.59388E+04
 0.93852997E+02 -0.59880E+04
 0.93903000E+02 -0.58404E+04
 0.93953003E+02 -0.56028E+04
 0.94002998E+02 -0.53560E+04
 0.94053001E+02 -0.51177E+04
 0.94102997E+02 -0.49208E+04
 0.94153000E+02 -0.48242E+04
 0.94203003E+02 -0.48956E+04
 0.94252998E+02 -0.51119E+04
 0.94303001E+02 -0.54236E+04
 0.94352997E+02 -0.57542E+04
 0.94403000E+02 -0.59471E+04
 0.94453003E+02 -0.60205E+04
 0.94502998E+02 -0.59443E+04
 0.94553001E+02 -0.57751E+04
 0.94602997E+02 -0.55298E+04
 0.94653000E+02 -0.52340E+04
 0.94703003E+02 -0.49182E+04
 0.94752998E+02 -0.45574E+04
 0.94803001E+02 -0.42170E+04
 0.94852997E+02 -0.39314E+04
 0.94903000E+02 -0.38229E+04
 0.94953003E+02 -0.38625E+04
 0.95002998E+02 -0.41005E+04
 0.95053001E+02 -0.44879E+04
 0.95102997E+02 -0.47961E+04
 0.95153000E+02 -0.49649E+04
 0.95203003E+02 -0.50232E+04
 0.95252998E+02 -0.50708E+04
 0.95303001E+02 -0.51935E+04
 0.95352997E+02 -0.53737E+04
 0.95403000E+02 -0.55211E+04
 0.95453003E+02 -0.55300E+04
 0.95502998E+02 -0.54385E+04
 0.95553001E+02 -0.53399E+04
 0.95602997E+02 -0.52986E+04
 0.95653000E+02 -0.53113E+04
 0.95703003E+02 -0.52633E+04
 0.95752998E+02 -0.52475E+04
 0.95803001E+02 -0.53494E+04
 0.95852997E+02 -0.54870E+04
 0.95903000E+02 -0.56194E+04
 0.95953003E+02 -0.56234E+04
 0.96002998E+02 -0.55904E+04
 0.96053001E+02 -0.55638E+04
 0.96102997E+02 -0.55068E+04
 0.96153000E+02 -0.54741E+04
 0.96203003E+02 -0.54488E+04
 0.96252998E+02 -0.55067E+04
 0.96303001E+02 -0.55808E+04
 0.96352997E+02 -0.56355E+04
 0.96403000E+02 -0.56818E+04
 0.96453003E+02 -0.56928E+04
 0.96502998E+02 -0.57205E+04
 0.96553001E+02 -0.58202E+04
 0.96602997E+02 -0.60313E+04
 0.96653000E+02 -0.63630E+04
 0.96703003E+02 -0.67325E+04
 0.96752998E+02 -0.70221E+04
 0.96803001E+02 -0.72287E+04
 0.96852997E+02 -0.73578E+04
 0.96903000E+02 -0.73492E+04
 0.96953003E+02 -0.71420E+04
 0.97002998E+02 -0.67712E+04
 0.97053001E+02 -0.63890E+04
 0.97102997E+02 -0.61530E+04
 0.97153000E+02 -0.61075E+04
 0.97203003E+02 -0.61728E+04
 0.97252998E+02 -0.62273E+04
 0.97303001E+02 -0.62882E+04
 0.97352997E+02 -0.63951E+04
 0.97403000E+02 -0.64661E+04
 0.97453003E+02 -0.62986E+04
 0.97502998E+02 -0.58923E+04
 0.97553001E+02 -0.54449E+04
 0.97602997E+02 -0.50480E+04
 0.97653000E+02 -0.47522E+04
 0.97703003E+02 -0.45269E+04
 0.97752998E+02 -0.43990E+04
 0.97803001E+02 -0.44723E+04
 0.97852997E+02 -0.46703E+04
 0.97903000E+02 -0.48250E+04
 0.97953003E+02 -0.49882E+04
 0.98002998E+02 -0.52293E+04
