-0.20000000E+01 -0.86840E+02
-0.19500000E+01 -0.97129E+02
-0.19000000E+01 -0.11728E+03
-0.18500000E+01 -0.12159E+03
-0.18000000E+01 -0.13013E+03
-0.17500000E+01 -0.13296E+03
-0.17000000E+01 -0.13643E+03
-0.16500001E+01 -0.12529E+03
-0.16000000E+01 -0.11885E+03
-0.15500000E+01 -0.92395E+02
-0.15000000E+01 -0.83022E+02
-0.14500000E+01 -0.57070E+02
-0.14000001E+01 -0.37448E+02
-0.13500000E+01 -0.15723E+02
-0.13000001E+01  0.19238E+02
-0.12500000E+01  0.21919E+02
-0.12000000E+01  0.43003E+02
-0.11500001E+01  0.26515E+02
-0.11000000E+01  0.25481E+02
-0.10500001E+01  0.15937E+02
-0.10000000E+01  0.68180E+01
-0.95000005E+00  0.73717E+01
-0.90000010E+00  0.20519E+01
-0.85000002E+00 -0.58358E+01
-0.80000007E+00 -0.15761E+02
-0.75000012E+00 -0.29508E+02
-0.70000005E+00 -0.26979E+02
-0.65000010E+00 -0.35038E+02
-0.60000014E+00 -0.31470E+02
-0.55000007E+00 -0.31776E+02
-0.50000012E+00 -0.32235E+02
-0.45000005E+00 -0.26013E+02
-0.40000010E+00 -0.24239E+02
-0.35000014E+00 -0.13023E+02
-0.30000007E+00  0.19885E+00
-0.25000012E+00  0.20626E+02
-0.20000005E+00  0.29805E+02
-0.15000010E+00  0.27123E+02
-0.10000014E+00  0.18500E+02
-0.50000072E-01  0.37342E+01
-0.11920929E-06 -0.72047E+01
 0.49999952E-01 -0.39746E+01
 0.99999905E-01 -0.11807E+02
 0.14999986E+00 -0.19804E+01
 0.19999981E+00 -0.58341E+01
 0.24999976E+00 -0.13910E+01
 0.29999995E+00  0.60352E+00
 0.34999990E+00  0.10330E+02
 0.39999986E+00  0.36486E+02
 0.44999981E+00  0.44959E+02
 0.49999976E+00  0.63916E+02
 0.54999995E+00  0.64417E+02
 0.59999990E+00  0.60603E+02
 0.64999986E+00  0.54140E+02
 0.69999981E+00  0.42686E+02
 0.74999976E+00  0.32351E+02
 0.79999971E+00  0.18582E+02
 0.84999990E+00  0.83649E+01
 0.89999986E+00  0.41016E+01
 0.94999981E+00 -0.68948E+01
 0.99999976E+00 -0.17611E+02
 0.10499997E+01 -0.14175E+02
 0.10999999E+01 -0.25567E+02
 0.11499999E+01 -0.15885E+02
 0.11999998E+01 -0.22652E+02
 0.12499998E+01 -0.21451E+02
 0.12999997E+01 -0.17524E+02
 0.13499999E+01 -0.20266E+02
 0.13999999E+01 -0.62614E+01
 0.14499998E+01 -0.18646E+02
 0.14999998E+01 -0.37005E+01
 0.15499997E+01 -0.21275E+02
 0.15999999E+01 -0.22247E+02
 0.16499999E+01 -0.45557E+02
 0.16999998E+01 -0.52564E+02
 0.17499998E+01 -0.61854E+02
 0.17999997E+01 -0.69760E+02
 0.18499997E+01 -0.63346E+02
 0.18999999E+01 -0.65319E+02
 0.19499998E+01 -0.47514E+02
 0.19999998E+01 -0.43910E+02
 0.20499997E+01 -0.20619E+02
 0.20999999E+01 -0.13166E+02
 0.21499996E+01  0.56096E+01
 0.21999998E+01  0.15885E+02
 0.22499995E+01  0.34882E+02
 0.22999997E+01  0.50000E+02
 0.23499999E+01  0.63906E+02
 0.23999996E+01  0.70209E+02
 0.24499998E+01  0.75758E+02
 0.24999995E+01  0.84582E+02
 0.25499997E+01  0.80868E+02
 0.25999999E+01  0.80862E+02
 0.26499996E+01  0.82715E+02
 0.26999998E+01  0.70373E+02
 0.27499995E+01  0.71008E+02
 0.27999997E+01  0.44816E+02
 0.28499999E+01  0.42105E+02
 0.28999996E+01  0.23971E+02
 0.29499998E+01  0.22837E+02
 0.29999995E+01  0.18582E+02
 0.30499997E+01  0.11252E+02
 0.30999999E+01  0.17084E+02
 0.31499996E+01  0.49320E+01
 0.31999998E+01  0.13436E+02
 0.32499995E+01 -0.30844E+01
 0.32999997E+01  0.53010E+01
 0.33499999E+01 -0.14157E+02
 0.33999996E+01 -0.32828E-01
 0.34499998E+01 -0.20751E+02
 0.34999995E+01 -0.15837E+02
 0.35499997E+01 -0.32831E+02
 0.35999994E+01 -0.31266E+02
 0.36499996E+01 -0.39512E+02
 0.36999998E+01 -0.49848E+02
 0.37499995E+01 -0.48720E+02
 0.37999997E+01 -0.66069E+02
 0.38499994E+01 -0.60373E+02
 0.38999996E+01 -0.81680E+02
 0.39499998E+01 -0.67712E+02
 0.39999995E+01 -0.82044E+02
 0.40499997E+01 -0.65450E+02
 0.40999994E+01 -0.72735E+02
 0.41499996E+01 -0.65452E+02
 0.41999998E+01 -0.71392E+02
 0.42499995E+01 -0.72788E+02
 0.42999997E+01 -0.65792E+02
 0.43499994E+01 -0.69824E+02
 0.43999996E+01 -0.58246E+02
 0.44499998E+01 -0.51991E+02
 0.44999995E+01 -0.41131E+02
 0.45499997E+01 -0.29190E+02
 0.45999994E+01 -0.24575E+02
 0.46499996E+01 -0.51750E+01
 0.46999998E+01  0.12329E+02
 0.47499995E+01  0.28274E+02
 0.47999997E+01  0.39015E+02
 0.48499994E+01  0.52246E+02
 0.48999996E+01  0.61739E+02
 0.49499998E+01  0.70411E+02
 0.49999995E+01  0.73357E+02
 0.50499997E+01  0.83485E+02
 0.50999994E+01  0.89024E+02
 0.51499996E+01  0.86644E+02
 0.51999998E+01  0.90994E+02
 0.52499995E+01  0.80651E+02
 0.52999997E+01  0.88279E+02
 0.53499994E+01  0.77835E+02
 0.53999996E+01  0.93540E+02
 0.54499993E+01  0.83944E+02
 0.54999995E+01  0.10152E+03
 0.55499997E+01  0.98003E+02
 0.55999994E+01  0.10316E+03
 0.56499996E+01  0.95258E+02
 0.56999993E+01  0.81095E+02
 0.57499995E+01  0.66243E+02
 0.57999997E+01  0.62909E+02
 0.58499994E+01  0.45882E+02
 0.58999996E+01  0.44628E+02
 0.59499993E+01  0.34689E+02
 0.59999995E+01  0.11095E+02
 0.60499992E+01  0.36199E+01
 0.60999994E+01 -0.35186E+02
 0.61499996E+01 -0.44622E+02
 0.61999998E+01 -0.79470E+02
 0.62499990E+01 -0.90259E+02
 0.62999992E+01 -0.10364E+03
 0.63499994E+01 -0.11664E+03
 0.63999996E+01 -0.12162E+03
 0.64499998E+01 -0.13665E+03
 0.64999990E+01 -0.15618E+03
 0.65499992E+01 -0.14872E+03
 0.65999994E+01 -0.17094E+03
 0.66499996E+01 -0.13593E+03
 0.66999998E+01 -0.14621E+03
 0.67499990E+01 -0.10920E+03
 0.67999992E+01 -0.97025E+02
 0.68499994E+01 -0.77274E+02
 0.68999996E+01 -0.39908E+02
 0.69499998E+01 -0.29154E+02
 0.69999990E+01  0.12658E+02
 0.70499992E+01  0.15460E+02
 0.70999994E+01  0.44600E+02
 0.71499996E+01  0.42154E+02
 0.71999998E+01  0.65488E+02
 0.72499990E+01  0.65293E+02
 0.72999992E+01  0.77597E+02
 0.73499994E+01  0.76454E+02
 0.73999996E+01  0.87164E+02
 0.74499998E+01  0.89068E+02
 0.74999990E+01  0.94454E+02
 0.75499992E+01  0.89628E+02
 0.75999994E+01  0.88628E+02
 0.76499996E+01  0.86550E+02
 0.76999998E+01  0.92240E+02
 0.77499990E+01  0.85120E+02
 0.77999992E+01  0.88998E+02
 0.78499994E+01  0.70156E+02
 0.78999996E+01  0.62561E+02
 0.79499998E+01  0.40716E+02
 0.79999990E+01  0.83354E+01
 0.80499992E+01  0.34486E+01
 0.80999994E+01 -0.41212E+02
 0.81499996E+01 -0.34487E+02
 0.81999998E+01 -0.75634E+02
 0.82499990E+01 -0.63534E+02
 0.82999992E+01 -0.76797E+02
 0.83499994E+01 -0.73659E+02
 0.83999996E+01 -0.61190E+02
 0.84499998E+01 -0.74139E+02
 0.84999990E+01 -0.52966E+02
 0.85499992E+01 -0.64427E+02
 0.85999994E+01 -0.40776E+02
 0.86499996E+01 -0.39940E+02
 0.86999998E+01 -0.28351E+02
 0.87499990E+01 -0.17380E+02
 0.87999992E+01 -0.13941E+02
 0.88499994E+01  0.47048E+01
 0.88999996E+01  0.60345E+01
 0.89499998E+01  0.25679E+02
 0.89999990E+01  0.22209E+02
 0.90499992E+01  0.39992E+02
 0.90999994E+01  0.39422E+02
 0.91499996E+01  0.47563E+02
 0.91999989E+01  0.45571E+02
 0.92499990E+01  0.35119E+02
 0.92999992E+01  0.38254E+02
 0.93499994E+01  0.19562E+02
 0.93999996E+01  0.28597E+02
 0.94499989E+01  0.12717E+02
 0.94999990E+01  0.18634E+02
 0.95499992E+01  0.63363E+01
 0.95999994E+01  0.40041E+01
 0.96499996E+01 -0.47299E+01
 0.96999989E+01 -0.11985E+02
 0.97499990E+01 -0.14719E+02
 0.97999992E+01 -0.13675E+02
 0.98499994E+01 -0.14370E+02
 0.98999996E+01 -0.13149E+02
 0.99499989E+01 -0.14932E+02
 0.99999990E+01 -0.20712E+02
 0.10049999E+02 -0.14213E+02
 0.10099999E+02 -0.20112E+02
 0.10150000E+02 -0.70602E+01
 0.10199999E+02 -0.73309E+01
 0.10249999E+02  0.95945E+01
 0.10299999E+02  0.46898E+01
 0.10349999E+02  0.16348E+02
 0.10400000E+02  0.17060E+02
 0.10449999E+02  0.26059E+02
 0.10499999E+02  0.27057E+02
 0.10549999E+02  0.34784E+02
 0.10599999E+02  0.39925E+02
 0.10650000E+02  0.56175E+02
 0.10699999E+02  0.66093E+02
 0.10749999E+02  0.65899E+02
 0.10799999E+02  0.69771E+02
 0.10849999E+02  0.44168E+02
 0.10900000E+02  0.49167E+02
 0.10949999E+02  0.16250E+02
 0.10999999E+02  0.21853E+02
 0.11049999E+02 -0.57259E+01
 0.11099999E+02 -0.13208E+02
 0.11150000E+02 -0.28879E+02
 0.11199999E+02 -0.44894E+02
 0.11249999E+02 -0.52558E+02
 0.11299999E+02 -0.77375E+02
 0.11349999E+02 -0.72378E+02
 0.11400000E+02 -0.86829E+02
 0.11449999E+02 -0.78476E+02
 0.11499999E+02 -0.84975E+02
 0.11549999E+02 -0.77745E+02
 0.11599999E+02 -0.70005E+02
 0.11650000E+02 -0.54048E+02
 0.11699999E+02 -0.39471E+02
 0.11749999E+02 -0.24550E+02
 0.11799999E+02 -0.10433E+02
 0.11849999E+02 -0.67851E+01
 0.11900000E+02  0.41881E+01
 0.11949999E+02  0.16392E+02
 0.11999999E+02  0.34345E+02
 0.12049999E+02  0.42300E+02
 0.12099999E+02  0.50228E+02
 0.12150000E+02  0.52802E+02
 0.12199999E+02  0.51805E+02
 0.12249999E+02  0.43026E+02
 0.12299999E+02  0.41769E+02
 0.12349999E+02  0.26069E+02
 0.12400000E+02  0.24991E+02
 0.12449999E+02  0.14962E+02
 0.12499999E+02  0.11753E+02
 0.12549999E+02  0.16592E+01
 0.12599999E+02 -0.12412E+02
 0.12649999E+02 -0.15548E+02
 0.12699999E+02 -0.35403E+02
 0.12749999E+02 -0.24292E+02
 0.12799999E+02 -0.42325E+02
 0.12849999E+02 -0.26927E+02
 0.12899999E+02 -0.35770E+02
 0.12949999E+02 -0.29681E+02
 0.12999999E+02 -0.31508E+02
 0.13049999E+02 -0.33623E+02
 0.13099999E+02 -0.18503E+02
 0.13149999E+02 -0.19034E+02
 0.13199999E+02 -0.74843E+01
 0.13249999E+02 -0.52406E+01
 0.13299999E+02 -0.68088E+01
 0.13349999E+02 -0.44910E+01
 0.13399999E+02 -0.59717E+01
 0.13449999E+02  0.22443E+01
 0.13499999E+02  0.13737E+02
 0.13549999E+02  0.15163E+02
 0.13599999E+02  0.37375E+02
 0.13649999E+02  0.38231E+02
 0.13699999E+02  0.62052E+02
 0.13749999E+02  0.71143E+02
 0.13799999E+02  0.91256E+02
 0.13849999E+02  0.99967E+02
 0.13899999E+02  0.10561E+03
 0.13949999E+02  0.10581E+03
 0.13999999E+02  0.10675E+03
 0.14049999E+02  0.10998E+03
 0.14099998E+02  0.10601E+03
 0.14150000E+02  0.89694E+02
 0.14199999E+02  0.70249E+02
 0.14249998E+02  0.42281E+02
 0.14299999E+02  0.17825E+02
 0.14349998E+02 -0.47477E+01
 0.14400000E+02 -0.24793E+02
 0.14449999E+02 -0.43083E+02
 0.14499998E+02 -0.69921E+02
 0.14549999E+02 -0.79599E+02
 0.14599998E+02 -0.10643E+03
 0.14650000E+02 -0.99329E+02
 0.14699999E+02 -0.11650E+03
 0.14749998E+02 -0.10342E+03
 0.14799999E+02 -0.11643E+03
 0.14849998E+02 -0.99796E+02
 0.14900000E+02 -0.10319E+03
 0.14949999E+02 -0.80428E+02
 0.14999998E+02 -0.64231E+02
 0.15049999E+02 -0.55492E+02
 0.15099998E+02 -0.34151E+02
 0.15150000E+02 -0.38671E+02
 0.15199999E+02 -0.47717E+01
 0.15249998E+02 -0.22688E+02
 0.15299999E+02  0.62361E+01
 0.15349998E+02 -0.82138E+01
 0.15400000E+02  0.83081E+00
 0.15449999E+02 -0.45848E+01
 0.15499998E+02 -0.94691E+01
 0.15549999E+02  0.22888E+01
 0.15599998E+02 -0.15720E+02
 0.15650000E+02 -0.14528E+01
 0.15699999E+02 -0.11023E+02
 0.15749998E+02 -0.36427E+01
 0.15799999E+02 -0.19475E+01
 0.15849998E+02 -0.11797E+02
 0.15900000E+02 -0.72259E+00
 0.15949999E+02 -0.15381E+02
 0.15999998E+02  0.17564E+01
 0.16049999E+02 -0.23333E+01
 0.16099998E+02  0.17138E+02
 0.16150000E+02  0.18761E+02
 0.16199999E+02  0.20005E+02
 0.16249998E+02  0.24604E+02
 0.16299999E+02  0.13827E+02
 0.16349998E+02  0.22160E+02
 0.16400000E+02  0.69758E+01
 0.16449999E+02  0.17061E+02
 0.16499998E+02  0.83238E+01
 0.16549999E+02  0.19941E+02
 0.16599998E+02  0.21979E+02
 0.16650000E+02  0.38201E+02
 0.16699999E+02  0.48678E+02
 0.16749998E+02  0.66461E+02
 0.16799999E+02  0.73431E+02
 0.16849998E+02  0.85760E+02
 0.16900000E+02  0.74561E+02
 0.16949999E+02  0.88051E+02
 0.16999998E+02  0.71248E+02
 0.17049999E+02  0.80640E+02
 0.17099998E+02  0.68733E+02
 0.17150000E+02  0.68062E+02
 0.17199999E+02  0.68219E+02
 0.17249998E+02  0.56805E+02
 0.17299999E+02  0.61538E+02
 0.17349998E+02  0.33403E+02
 0.17400000E+02  0.41624E+02
 0.17449999E+02  0.14117E+02
 0.17499998E+02  0.21501E+02
 0.17549999E+02  0.54469E+01
 0.17599998E+02  0.10270E+02
 0.17650000E+02 -0.75608E+01
 0.17699999E+02 -0.67959E+01
 0.17749998E+02 -0.26147E+02
 0.17799999E+02 -0.23892E+02
 0.17849998E+02 -0.40590E+02
 0.17900000E+02 -0.43979E+02
 0.17949999E+02 -0.55535E+02
 0.17999998E+02 -0.68687E+02
 0.18049999E+02 -0.70429E+02
 0.18099998E+02 -0.78553E+02
 0.18150000E+02 -0.75711E+02
 0.18199999E+02 -0.76581E+02
 0.18249998E+02 -0.74277E+02
 0.18299999E+02 -0.78713E+02
 0.18349998E+02 -0.77209E+02
 0.18400000E+02 -0.78602E+02
 0.18449999E+02 -0.65811E+02
 0.18499998E+02 -0.66193E+02
 0.18549999E+02 -0.49202E+02
 0.18599998E+02 -0.60355E+02
 0.18650000E+02 -0.41559E+02
 0.18699999E+02 -0.52306E+02
 0.18749998E+02 -0.38852E+02
 0.18799999E+02 -0.55120E+02
 0.18849998E+02 -0.45444E+02
 0.18900000E+02 -0.50196E+02
 0.18949999E+02 -0.43843E+02
 0.18999998E+02 -0.37915E+02
 0.19049999E+02 -0.38866E+02
 0.19099998E+02 -0.25491E+02
 0.19150000E+02 -0.20208E+02
 0.19199999E+02 -0.21752E+01
 0.19249998E+02  0.68313E+01
 0.19299999E+02  0.21052E+02
 0.19349998E+02  0.31187E+02
 0.19400000E+02  0.46122E+02
 0.19449999E+02  0.56474E+02
 0.19499998E+02  0.75916E+02
 0.19549999E+02  0.81572E+02
 0.19599998E+02  0.99053E+02
 0.19650000E+02  0.95325E+02
 0.19699999E+02  0.11385E+03
 0.19749998E+02  0.10899E+03
 0.19799999E+02  0.13107E+03
 0.19849998E+02  0.12232E+03
 0.19900000E+02  0.13654E+03
 0.19949999E+02  0.12799E+03
 0.19999998E+02  0.12439E+03
 0.20049999E+02  0.11926E+03
 0.20099998E+02  0.10301E+03
 0.20150000E+02  0.95567E+02
 0.20199999E+02  0.67428E+02
 0.20249998E+02  0.50124E+02
 0.20299999E+02  0.20472E+02
 0.20349998E+02 -0.67035E+00
 0.20399998E+02 -0.20107E+02
 0.20449999E+02 -0.31742E+02
 0.20499998E+02 -0.49189E+02
 0.20549999E+02 -0.57715E+02
 0.20599998E+02 -0.88126E+02
 0.20649998E+02 -0.91670E+02
 0.20699999E+02 -0.12034E+03
 0.20749998E+02 -0.11443E+03
 0.20799999E+02 -0.12585E+03
 0.20849998E+02 -0.11512E+03
 0.20899998E+02 -0.11691E+03
 0.20949999E+02 -0.11477E+03
 0.20999998E+02 -0.11311E+03
 0.21049999E+02 -0.11645E+03
 0.21099998E+02 -0.10576E+03
 0.21149998E+02 -0.10266E+03
 0.21199999E+02 -0.84056E+02
 0.21249998E+02 -0.81524E+02
 0.21299999E+02 -0.59432E+02
 0.21349998E+02 -0.54185E+02
 0.21399998E+02 -0.32307E+02
 0.21449999E+02 -0.18720E+02
 0.21499998E+02  0.38089E+00
 0.21549999E+02  0.24101E+02
 0.21599998E+02  0.40414E+02
 0.21649998E+02  0.59047E+02
 0.21699999E+02  0.72153E+02
 0.21749998E+02  0.81553E+02
 0.21799999E+02  0.96292E+02
 0.21849998E+02  0.96595E+02
 0.21899998E+02  0.11052E+03
 0.21949999E+02  0.10576E+03
 0.21999998E+02  0.11270E+03
 0.22049999E+02  0.10777E+03
 0.22099998E+02  0.10089E+03
 0.22149998E+02  0.89444E+02
 0.22199999E+02  0.72348E+02
 0.22249998E+02  0.57795E+02
 0.22299999E+02  0.36369E+02
 0.22349998E+02  0.28321E+02
 0.22399998E+02  0.48058E+01
 0.22449999E+02 -0.10806E+02
 0.22499998E+02 -0.31323E+02
 0.22549999E+02 -0.46800E+02
 0.22599998E+02 -0.71558E+02
 0.22649998E+02 -0.78787E+02
 0.22699999E+02 -0.87181E+02
 0.22749998E+02 -0.88834E+02
 0.22799999E+02 -0.85957E+02
 0.22849998E+02 -0.84613E+02
 0.22899998E+02 -0.75516E+02
 0.22949999E+02 -0.70305E+02
 0.22999998E+02 -0.60707E+02
 0.23049999E+02 -0.51859E+02
 0.23099998E+02 -0.47386E+02
 0.23149998E+02 -0.38146E+02
 0.23199999E+02 -0.33197E+02
 0.23249998E+02 -0.24743E+02
 0.23299999E+02 -0.13970E+02
 0.23349998E+02 -0.31003E+01
 0.23399998E+02  0.16755E+02
 0.23449999E+02  0.28311E+02
 0.23499998E+02  0.49427E+02
 0.23549999E+02  0.55821E+02
 0.23599998E+02  0.69142E+02
 0.23649998E+02  0.78497E+02
 0.23699999E+02  0.74995E+02
 0.23749998E+02  0.81750E+02
 0.23799999E+02  0.68933E+02
 0.23849998E+02  0.77279E+02
 0.23899998E+02  0.65654E+02
 0.23949999E+02  0.61325E+02
 0.23999998E+02  0.51747E+02
 0.24049999E+02  0.41897E+02
 0.24099998E+02  0.43755E+02
 0.24149998E+02  0.21522E+02
 0.24199999E+02  0.24120E+02
 0.24249998E+02  0.39055E+00
 0.24299999E+02 -0.28896E+01
 0.24349998E+02 -0.18680E+02
 0.24399998E+02 -0.22775E+02
 0.24449999E+02 -0.25433E+02
 0.24499998E+02 -0.35485E+02
 0.24549999E+02 -0.35546E+02
 0.24599998E+02 -0.47903E+02
 0.24649998E+02 -0.44291E+02
 0.24699999E+02 -0.52019E+02
 0.24749998E+02 -0.42916E+02
 0.24799999E+02 -0.45631E+02
 0.24849998E+02 -0.35959E+02
 0.24899998E+02 -0.30020E+02
 0.24949999E+02 -0.20292E+02
 0.24999998E+02 -0.99632E+01
 0.25049999E+02 -0.11898E+01
 0.25099998E+02  0.10223E+02
 0.25149998E+02  0.15801E+02
 0.25199999E+02  0.20575E+02
 0.25249998E+02  0.16695E+02
 0.25299999E+02  0.18427E+02
 0.25349998E+02  0.18552E+02
 0.25399998E+02  0.16346E+02
 0.25449999E+02  0.14420E+02
 0.25499998E+02  0.11397E+02
 0.25549999E+02  0.73169E+01
 0.25599998E+02  0.53960E+01
 0.25649998E+02 -0.16484E+00
 0.25699999E+02  0.47397E+01
 0.25749998E+02  0.23063E+00
 0.25799999E+02  0.13273E+02
 0.25849998E+02  0.14162E+02
 0.25899998E+02  0.17535E+02
 0.25949999E+02  0.17468E+02
 0.25999998E+02  0.42389E+01
 0.26049999E+02 -0.39363E+00
 0.26099998E+02 -0.14471E+02
 0.26149998E+02 -0.16655E+02
 0.26199999E+02 -0.18912E+02
 0.26249998E+02 -0.23165E+02
 0.26299999E+02 -0.23490E+02
 0.26349998E+02 -0.23790E+02
 0.26399998E+02 -0.23745E+02
 0.26449999E+02 -0.27789E+02
 0.26499998E+02 -0.23611E+02
 0.26549999E+02 -0.21751E+02
 0.26599998E+02 -0.20434E+02
 0.26649998E+02 -0.16515E+02
 0.26699999E+02 -0.18656E+02
 0.26749998E+02 -0.15360E+02
 0.26799999E+02 -0.21674E+02
 0.26849998E+02 -0.17441E+02
 0.26899998E+02 -0.23292E+02
 0.26949999E+02 -0.16397E+02
 0.26999998E+02 -0.19271E+02
 0.27049997E+02 -0.15681E+02
 0.27099998E+02 -0.12129E+02
 0.27149998E+02 -0.10903E+02
 0.27199999E+02 -0.16565E+01
 0.27249998E+02 -0.77835E+01
 0.27299997E+02  0.38544E+01
 0.27349998E+02 -0.36012E+01
 0.27399998E+02  0.60927E+01
 0.27449999E+02  0.13301E+02
 0.27499998E+02  0.25038E+02
 0.27549997E+02  0.45879E+02
 0.27599998E+02  0.47877E+02
 0.27649998E+02  0.59979E+02
 0.27699999E+02  0.53415E+02
 0.27749998E+02  0.52733E+02
 0.27799997E+02  0.48518E+02
 0.27849998E+02  0.41964E+02
 0.27899998E+02  0.42205E+02
 0.27949999E+02  0.24257E+02
 0.27999998E+02  0.22750E+02
 0.28049997E+02  0.68104E+01
 0.28099998E+02 -0.44207E+00
 0.28149998E+02 -0.11287E+02
 0.28199999E+02 -0.19174E+02
 0.28249998E+02 -0.17355E+02
 0.28299997E+02 -0.26222E+02
 0.28349998E+02 -0.29184E+02
 0.28399998E+02 -0.30279E+02
 0.28449999E+02 -0.36940E+02
 0.28499998E+02 -0.37196E+02
 0.28549997E+02 -0.37372E+02
 0.28599998E+02 -0.34300E+02
 0.28649998E+02 -0.23272E+02
 0.28699999E+02 -0.27988E+02
 0.28749998E+02 -0.13356E+02
 0.28799997E+02 -0.15715E+02
 0.28849998E+02  0.13782E+01
 0.28899998E+02 -0.65769E+00
 0.28949999E+02  0.10573E+02
 0.28999998E+02  0.74922E+01
 0.29049997E+02  0.53883E+01
 0.29099998E+02  0.71173E+01
 0.29149998E+02  0.57755E+01
 0.29199999E+02  0.11034E+02
 0.29249998E+02  0.64377E+01
 0.29299997E+02  0.17368E+02
 0.29349998E+02  0.11764E+02
 0.29399998E+02  0.18845E+02
 0.29449999E+02  0.47241E+01
 0.29499998E+02  0.88834E+01
 0.29549997E+02 -0.28923E+01
 0.29599998E+02  0.11057E+01
 0.29649998E+02 -0.98154E+01
 0.29699999E+02 -0.67687E+01
 0.29749998E+02 -0.12780E+02
 0.29799997E+02 -0.10298E+02
 0.29849998E+02 -0.78185E+01
 0.29899998E+02 -0.10611E+02
 0.29949999E+02 -0.93934E+00
 0.29999998E+02 -0.13820E+02
 0.30049999E+02 -0.13413E+02
 0.30099998E+02 -0.22043E+02
 0.30149998E+02 -0.27067E+02
 0.30199997E+02 -0.29161E+02
 0.30249996E+02 -0.26818E+02
 0.30299999E+02 -0.26293E+02
 0.30349998E+02 -0.10649E+02
 0.30399998E+02 -0.16036E+02
 0.30449997E+02  0.98584E+01
 0.30499996E+02  0.34157E+01
 0.30549999E+02  0.25920E+02
 0.30599998E+02  0.27121E+02
 0.30649998E+02  0.34263E+02
 0.30699997E+02  0.45771E+02
 0.30749996E+02  0.39048E+02
 0.30799999E+02  0.51434E+02
 0.30849998E+02  0.35382E+02
 0.30899998E+02  0.46115E+02
 0.30949997E+02  0.26563E+02
 0.30999996E+02  0.31721E+02
 0.31049999E+02  0.16153E+02
 0.31099998E+02  0.16045E+02
 0.31149998E+02  0.58748E+01
 0.31199997E+02  0.59638E+01
 0.31249996E+02  0.84727E+01
 0.31299999E+02  0.37703E+01
 0.31349998E+02  0.13257E+02
 0.31399998E+02 -0.18266E+01
 0.31449997E+02  0.66067E+01
 0.31499996E+02 -0.76771E+01
 0.31549999E+02 -0.82302E+01
 0.31599998E+02 -0.15785E+02
 0.31649998E+02 -0.24509E+02
 0.31699997E+02 -0.32495E+02
 0.31749996E+02 -0.32027E+02
 0.31799999E+02  0.12805E+01
 0.31849998E+02 -0.16678E+02
 0.31899998E+02 -0.53420E+02
 0.31949997E+02 -0.91912E+02
 0.31999996E+02 -0.41813E+02
 0.32049999E+02 -0.16787E+02
 0.32099998E+02 -0.13391E+02
 0.32149998E+02  0.22091E+02
 0.32199997E+02  0.61928E+02
 0.32249996E+02  0.12657E+02
 0.32299999E+02 -0.65826E+02
 0.32349998E+02  0.56681E+02
 0.32399998E+02  0.87425E+02
 0.32449997E+02  0.91691E+02
 0.32499996E+02  0.42266E+02
 0.32549999E+02 -0.47632E+02
 0.32599998E+02 -0.57496E+02
 0.32649998E+02  0.35240E+02
 0.32699997E+02  0.22517E+02
 0.32749996E+02  0.16299E+03
 0.32799999E+02  0.13981E+03
 0.32849998E+02  0.12382E+03
 0.32899998E+02 -0.13079E+02
 0.32949997E+02  0.39653E+02
 0.32999996E+02  0.72824E+02
 0.33049999E+02 -0.24611E+03
 0.33099998E+02  0.38912E+03
 0.33149998E+02 -0.28778E+03
 0.33199997E+02 -0.51716E+02
 0.33249996E+02  0.12344E+03
 0.33299999E+02 -0.22554E+03
 0.33349998E+02  0.38068E+03
 0.33399998E+02 -0.52806E+03
 0.33449997E+02  0.49636E+03
 0.33499996E+02 -0.15415E+03
 0.33549999E+02  0.16151E+03
 0.33599998E+02 -0.72006E+02
 0.33649998E+02 -0.61171E+03
 0.33699997E+02  0.58966E+03
 0.33749996E+02 -0.11158E+04
 0.33799999E+02  0.48144E+03
 0.33849998E+02 -0.92128E+03
 0.33899998E+02  0.71649E+01
 0.33949997E+02  0.22272E+03
 0.33999996E+02 -0.95479E+03
 0.34049999E+02  0.95060E+03
 0.34099998E+02 -0.62465E+03
 0.34149998E+02  0.91231E+03
 0.34199997E+02 -0.39967E+03
 0.34249996E+02 -0.40455E+02
 0.34299999E+02  0.22182E+03
 0.34349998E+02 -0.15186E+03
 0.34399998E+02  0.31744E+03
 0.34449997E+02 -0.39089E+03
 0.34499996E+02  0.23524E+03
 0.34549999E+02 -0.43943E+03
 0.34599998E+02  0.14667E+04
 0.34649998E+02 -0.77721E+03
 0.34699997E+02  0.10200E+04
 0.34749996E+02  0.92380E+02
 0.34799999E+02 -0.78650E+03
 0.34849998E+02  0.19525E+04
 0.34899998E+02 -0.19141E+04
 0.34949997E+02  0.14130E+04
 0.34999996E+02  0.88120E+02
 0.35049999E+02 -0.10184E+03
 0.35099998E+02  0.64281E+03
 0.35149998E+02 -0.16017E+04
 0.35199997E+02  0.91380E+03
 0.35249996E+02 -0.46972E+03
 0.35299999E+02 -0.93282E+02
 0.35349998E+02 -0.15976E+03
 0.35399998E+02 -0.17589E+02
 0.35449997E+02  0.74025E+02
 0.35499996E+02 -0.24989E+02
 0.35549999E+02  0.30322E+03
 0.35599998E+02 -0.21068E+03
 0.35649998E+02 -0.25754E+03
 0.35699997E+02 -0.55903E+03
 0.35749996E+02 -0.51763E+02
 0.35799999E+02 -0.11534E+04
 0.35849998E+02  0.64948E+03
 0.35899998E+02 -0.20700E+02
 0.35949997E+02 -0.45063E+03
 0.35999996E+02  0.43426E+03
 0.36049999E+02 -0.46986E+03
 0.36099998E+02  0.10406E+04
 0.36149998E+02 -0.51853E+03
 0.36199997E+02 -0.93360E+01
 0.36249996E+02  0.24944E+03
 0.36299999E+02 -0.41192E+03
 0.36349998E+02  0.85964E+03
 0.36399998E+02 -0.45893E+03
 0.36449997E+02  0.35555E+03
 0.36499996E+02  0.52211E+03
 0.36549999E+02 -0.27202E+03
 0.36599998E+02  0.32823E+03
 0.36649998E+02 -0.34532E+03
 0.36699997E+02  0.33454E+02
 0.36749996E+02  0.17619E+03
 0.36799999E+02 -0.81616E+02
 0.36849998E+02  0.13395E+03
 0.36899998E+02 -0.40831E+03
 0.36949997E+02  0.20405E+03
 0.36999996E+02  0.16714E+03
 0.37049999E+02 -0.11052E+04
 0.37099998E+02 -0.49892E+03
 0.37149998E+02 -0.81773E+02
 0.37199997E+02 -0.15519E+03
 0.37249996E+02 -0.40905E+03
 0.37299999E+02 -0.47225E+03
 0.37349998E+02  0.10981E+04
 0.37399998E+02  0.72940E+03
 0.37449997E+02  0.19289E+03
 0.37499996E+02  0.16452E+03
 0.37549999E+02 -0.88217E+02
 0.37599998E+02  0.13242E+04
 0.37649998E+02 -0.38185E+03
 0.37699997E+02 -0.73815E+03
 0.37749996E+02  0.76252E+03
 0.37799999E+02 -0.58067E+03
 0.37849998E+02  0.34668E+03
 0.37899998E+02  0.78534E+02
 0.37949997E+02  0.23462E+03
 0.37999996E+02  0.14361E+04
 0.38049999E+02 -0.12520E+04
 0.38099998E+02 -0.56408E+03
 0.38149998E+02  0.20019E+03
 0.38199997E+02 -0.10550E+04
 0.38249996E+02  0.15177E+03
 0.38299999E+02  0.19007E+03
 0.38349998E+02 -0.14391E+03
 0.38399998E+02  0.39724E+03
 0.38449997E+02 -0.53517E+03
 0.38499996E+02 -0.19546E+03
 0.38549999E+02  0.51132E+03
 0.38599998E+02 -0.24331E+03
 0.38649998E+02  0.11517E+03
 0.38699997E+02 -0.66693E+03
 0.38749996E+02  0.20831E+03
 0.38799999E+02  0.59053E+03
 0.38849998E+02 -0.33014E+03
 0.38899998E+02  0.54717E+03
 0.38949997E+02 -0.49266E+03
 0.38999996E+02  0.10592E+04
 0.39049999E+02  0.13220E+04
 0.39099998E+02 -0.43531E+03
 0.39149998E+02  0.63705E+03
 0.39199997E+02 -0.64515E+01
 0.39249996E+02 -0.33821E+03
 0.39299999E+02 -0.48323E+02
 0.39349998E+02 -0.64858E+03
 0.39399998E+02 -0.17083E+03
 0.39449997E+02  0.48682E+03
 0.39499996E+02 -0.65885E+03
 0.39549999E+02 -0.71651E+02
 0.39599998E+02 -0.43349E+03
 0.39649998E+02 -0.88079E+03
 0.39699997E+02  0.43304E+03
 0.39749996E+02 -0.97003E+03
 0.39799999E+02  0.25401E+03
 0.39849998E+02  0.30665E+03
 0.39899998E+02 -0.26564E+03
 0.39949997E+02  0.83469E+01
 0.39999996E+02 -0.44413E+03
 0.40049999E+02  0.62141E+03
 0.40099998E+02 -0.17643E+03
 0.40149998E+02 -0.28789E+03
 0.40199997E+02  0.10286E+03
 0.40249996E+02 -0.27480E+03
 0.40299999E+02 -0.11609E+04
 0.40349998E+02 -0.45980E+03
 0.40399998E+02 -0.60546E+03
 0.40449997E+02 -0.31382E+03
 0.40499996E+02  0.72439E+03
 0.40549999E+02 -0.74394E+03
 0.40599998E+02  0.12702E+04
 0.40649998E+02  0.41849E+03
 0.40699997E+02  0.10977E+03
 0.40749996E+02  0.11887E+03
 0.40799999E+02 -0.11304E+04
 0.40849998E+02  0.54140E+03
 0.40899998E+02 -0.55578E+03
 0.40949997E+02  0.40444E+03
 0.40999996E+02  0.10555E+04
 0.41049999E+02  0.12494E+04
 0.41099998E+02  0.50204E+03
 0.41149998E+02  0.29594E+03
 0.41199997E+02  0.75026E+03
 0.41249996E+02  0.38384E+03
 0.41299999E+02  0.12753E+04
 0.41349998E+02 -0.46427E+03
 0.41399998E+02 -0.18906E+03
 0.41449997E+02 -0.20219E+03
 0.41499996E+02  0.88434E+03
 0.41549999E+02  0.83375E+03
 0.41599998E+02 -0.10085E+04
 0.41649998E+02 -0.14461E+03
 0.41699997E+02 -0.66068E+03
 0.41749996E+02 -0.25186E+03
 0.41799999E+02 -0.36172E+03
 0.41849998E+02 -0.20179E+03
 0.41899998E+02  0.74207E+02
 0.41949997E+02  0.36916E+02
 0.41999996E+02 -0.43101E+03
 0.42049999E+02 -0.22194E+03
 0.42099998E+02 -0.21489E+03
 0.42149998E+02 -0.11930E+04
 0.42199997E+02  0.73746E+03
 0.42249996E+02 -0.83508E+03
 0.42299999E+02 -0.10577E+04
 0.42349998E+02  0.20813E+02
 0.42399998E+02 -0.11402E+04
 0.42449997E+02  0.91308E+03
 0.42499996E+02 -0.14668E+03
 0.42549999E+02  0.16968E+03
 0.42599998E+02  0.10308E+04
 0.42649998E+02 -0.57231E+03
 0.42699997E+02 -0.35086E+03
 0.42749996E+02 -0.15332E+04
 0.42799995E+02 -0.78862E+03
 0.42849998E+02 -0.52061E+02
 0.42899998E+02  0.96179E+03
 0.42949997E+02  0.94373E+03
 0.42999996E+02  0.40524E+03
 0.43049995E+02  0.17288E+04
 0.43099998E+02  0.47934E+03
 0.43149998E+02  0.10298E+04
 0.43199997E+02  0.41103E+02
 0.43249996E+02  0.19425E+03
 0.43299995E+02  0.63833E+03
 0.43349998E+02 -0.84061E+03
 0.43399998E+02 -0.25108E+02
 0.43449997E+02 -0.60428E+03
 0.43499996E+02  0.24404E+03
 0.43549995E+02  0.52872E+03
 0.43599998E+02  0.98930E+02
 0.43649998E+02 -0.65272E+02
 0.43699997E+02  0.44412E+03
 0.43749996E+02  0.62061E+02
 0.43799995E+02 -0.11559E+04
 0.43849998E+02 -0.28854E+03
 0.43899998E+02 -0.93037E+03
 0.43949997E+02  0.13788E+03
 0.43999996E+02  0.31046E+03
 0.44049995E+02 -0.43460E+03
 0.44099998E+02 -0.31282E+02
 0.44149998E+02  0.83499E+01
 0.44199997E+02 -0.13334E+03
 0.44249996E+02 -0.73483E+03
 0.44299995E+02 -0.26034E+03
 0.44349998E+02 -0.96456E+03
 0.44399998E+02  0.21513E+03
 0.44449997E+02  0.39754E+03
 0.44499996E+02 -0.29908E+03
 0.44549995E+02  0.33691E+03
 0.44599998E+02  0.54471E+03
 0.44649998E+02  0.24256E+03
 0.44699997E+02 -0.18755E+03
 0.44749996E+02  0.89051E+03
 0.44799995E+02  0.32398E+02
 0.44849998E+02  0.89004E+03
 0.44899998E+02  0.24721E+03
 0.44949997E+02 -0.12061E+03
 0.44999996E+02  0.11175E+04
 0.45049995E+02 -0.36563E+03
 0.45099998E+02 -0.18725E+03
 0.45149998E+02 -0.23783E+02
 0.45199997E+02  0.79626E+03
 0.45249996E+02 -0.67155E+02
 0.45299995E+02 -0.20219E+03
 0.45349998E+02 -0.47117E+03
 0.45399998E+02 -0.88183E+03
 0.45449997E+02  0.53433E+03
 0.45499996E+02 -0.10458E+03
 0.45549995E+02  0.60154E+03
 0.45599998E+02  0.37335E+03
 0.45649998E+02 -0.15980E+03
 0.45699997E+02 -0.22726E+03
 0.45749996E+02 -0.64946E+03
 0.45799995E+02 -0.97434E+03
 0.45849998E+02 -0.36661E+03
 0.45899998E+02  0.15585E+02
 0.45949997E+02 -0.34310E+03
 0.45999996E+02  0.21621E+03
 0.46049995E+02 -0.41069E+03
 0.46099998E+02  0.12866E+03
 0.46149998E+02  0.11622E+03
 0.46199997E+02 -0.83325E+03
 0.46249996E+02 -0.29704E+03
 0.46299995E+02 -0.34833E+03
 0.46349998E+02 -0.11990E+04
 0.46399998E+02 -0.19919E+03
 0.46449997E+02  0.11664E+03
 0.46499996E+02 -0.52452E+02
 0.46549995E+02  0.81779E+03
 0.46599998E+02 -0.20009E+03
 0.46649998E+02 -0.13703E+03
 0.46699997E+02  0.18578E+03
 0.46749996E+02  0.62644E+03
 0.46799995E+02  0.41290E+03
 0.46849998E+02  0.41260E+03
 0.46899998E+02  0.95332E+03
 0.46949997E+02  0.17384E+03
 0.46999996E+02  0.75622E+03
 0.47049995E+02  0.29764E+03
 0.47099998E+02  0.56005E+03
 0.47149998E+02  0.36170E+03
 0.47199997E+02  0.74292E+02
 0.47249996E+02  0.71546E+03
 0.47299995E+02 -0.16936E+03
 0.47349998E+02 -0.42778E+03
 0.47399998E+02 -0.17562E+03
 0.47449997E+02  0.18914E+03
 0.47499996E+02  0.13627E+03
 0.47549995E+02 -0.21037E+03
 0.47599998E+02 -0.74710E+03
 0.47649998E+02  0.42585E+03
 0.47699997E+02  0.46987E+03
 0.47749996E+02 -0.31895E+03
 0.47799995E+02  0.85866E+03
 0.47849998E+02 -0.20718E+03
 0.47899998E+02  0.70592E+02
 0.47949997E+02  0.27973E+02
 0.47999996E+02 -0.90723E+03
 0.48049995E+02 -0.48639E+03
 0.48099998E+02 -0.11223E+04
 0.48149998E+02 -0.10187E+04
 0.48199997E+02 -0.47109E+03
 0.48249996E+02  0.28895E+03
 0.48299995E+02  0.30325E+03
 0.48349998E+02  0.10168E+02
 0.48399998E+02 -0.35345E+03
 0.48449997E+02  0.86023E+02
 0.48499996E+02  0.54420E+02
 0.48549995E+02 -0.23993E+03
 0.48599998E+02  0.19331E+03
 0.48649998E+02 -0.79194E+03
 0.48699997E+02  0.38511E+03
 0.48749996E+02 -0.10463E+03
 0.48799995E+02 -0.10140E+04
 0.48849998E+02  0.15659E+03
 0.48899998E+02 -0.46202E+03
 0.48949997E+02  0.35265E+03
 0.48999996E+02 -0.17757E+03
 0.49049995E+02 -0.24495E+03
 0.49099998E+02  0.73307E+03
 0.49149998E+02 -0.15371E+03
 0.49199997E+02  0.98724E+03
 0.49249996E+02  0.75467E+03
 0.49299995E+02 -0.11457E+03
 0.49349998E+02  0.83246E+03
 0.49399998E+02  0.49570E+03
 0.49449997E+02  0.69154E+03
 0.49499996E+02  0.47760E+03
 0.49549995E+02  0.25722E+01
 0.49599998E+02  0.32753E+03
 0.49649998E+02 -0.14186E+02
 0.49699997E+02 -0.50493E+03
 0.49749996E+02  0.57413E+02
 0.49799995E+02  0.62503E+03
 0.49849998E+02  0.25439E+03
 0.49899998E+02  0.13969E+03
 0.49949997E+02 -0.68832E+03
 0.49999996E+02  0.61568E+03
 0.50049995E+02 -0.56470E+02
 0.50099998E+02 -0.45465E+03
 0.50149998E+02  0.66463E+03
 0.50199997E+02 -0.87264E+03
 0.50249996E+02  0.98427E+02
 0.50299995E+02 -0.57131E+03
 0.50349998E+02 -0.89029E+03
 0.50399998E+02 -0.13906E+03
 0.50449997E+02 -0.25176E+03
 0.50499996E+02  0.24266E+03
 0.50549995E+02  0.13121E+03
 0.50599998E+02 -0.13856E+03
 0.50649998E+02 -0.15769E+02
 0.50699997E+02 -0.62984E+03
 0.50749996E+02 -0.14256E+04
 0.50799995E+02  0.19552E+03
 0.50849998E+02 -0.73440E+03
 0.50899998E+02 -0.34872E+03
 0.50949997E+02  0.28626E+03
 0.50999996E+02 -0.61507E+03
 0.51049995E+02  0.64744E+03
 0.51099998E+02  0.71979E+03
 0.51149998E+02  0.11603E+04
 0.51199997E+02  0.19308E+03
 0.51249996E+02  0.11352E+03
 0.51299995E+02 -0.62006E+03
 0.51349998E+02 -0.82738E+03
 0.51399998E+02 -0.21703E+03
 0.51449997E+02 -0.48116E+03
 0.51499996E+02  0.14342E+04
 0.51549995E+02  0.97201E+03
 0.51599998E+02  0.92910E+03
 0.51649998E+02  0.44671E+02
 0.51699997E+02  0.11680E+03
 0.51749996E+02  0.40432E+03
 0.51799995E+02 -0.23390E+03
 0.51849998E+02  0.90919E+03
 0.51899998E+02  0.33996E+03
 0.51949997E+02  0.81014E+03
 0.51999996E+02 -0.29594E+03
 0.52049995E+02 -0.51164E+03
 0.52099998E+02 -0.51902E+03
 0.52149998E+02 -0.99306E+03
 0.52199997E+02 -0.22979E+03
 0.52249996E+02 -0.94687E+03
 0.52299995E+02  0.27775E+02
 0.52349998E+02 -0.68016E+03
 0.52399998E+02 -0.66374E+03
 0.52449997E+02  0.33045E+03
 0.52499996E+02  0.44555E+03
 0.52549995E+02  0.57295E+03
 0.52599998E+02 -0.48269E+03
 0.52649998E+02  0.22799E+03
 0.52699997E+02 -0.20553E+03
 0.52749996E+02 -0.72927E+03
 0.52799995E+02 -0.77315E+02
 0.52849998E+02 -0.25819E+03
 0.52899998E+02  0.56739E+03
 0.52949997E+02 -0.31190E+03
 0.52999996E+02 -0.63000E+03
 0.53049995E+02 -0.47139E+01
 0.53099998E+02 -0.72388E+02
 0.53149998E+02  0.13900E+04
 0.53199997E+02  0.12370E+04
 0.53249996E+02  0.49009E+03
 0.53299995E+02  0.10083E+03
 0.53349998E+02 -0.52125E+03
 0.53399998E+02 -0.16191E+03
 0.53449997E+02  0.10506E+03
 0.53499996E+02 -0.70373E+02
 0.53549995E+02  0.31446E+03
 0.53599998E+02  0.56471E+03
 0.53649998E+02 -0.31928E+02
 0.53699997E+02 -0.16421E+03
 0.53749996E+02 -0.67628E+02
 0.53799995E+02 -0.70914E+03
 0.53849998E+02 -0.83657E+03
 0.53899998E+02 -0.22023E+03
 0.53949997E+02 -0.63380E+02
 0.53999996E+02 -0.25221E+03
 0.54049995E+02 -0.15672E+03
 0.54099998E+02  0.22477E+03
 0.54149998E+02 -0.16154E+02
 0.54199997E+02  0.71595E+03
 0.54249996E+02  0.49397E+03
 0.54299995E+02  0.25525E+03
 0.54349998E+02  0.14504E+04
 0.54399998E+02 -0.84823E+03
 0.54449997E+02 -0.11706E+04
 0.54499996E+02 -0.36429E+03
 0.54549995E+02 -0.65476E+03
 0.54599998E+02  0.53313E+01
 0.54649998E+02 -0.48181E+03
 0.54699997E+02  0.64250E+03
 0.54749996E+02  0.68030E+03
 0.54799995E+02 -0.48083E+03
 0.54849998E+02 -0.76258E+02
 0.54899998E+02 -0.50334E+03
 0.54949997E+02 -0.88059E+02
 0.54999996E+02  0.73484E+02
 0.55049995E+02 -0.11703E+04
 0.55099998E+02  0.23651E+02
 0.55149998E+02  0.60389E+03
 0.55199997E+02  0.15572E+04
 0.55249996E+02  0.30709E+04
 0.55299995E+02  0.23882E+04
 0.55349998E+02  0.16863E+04
 0.55399998E+02 -0.19139E+03
 0.55449997E+02 -0.24234E+04
 0.55499996E+02 -0.35345E+04
 0.55549995E+02 -0.18622E+04
 0.55599998E+02  0.35130E+03
 0.55649998E+02  0.20347E+04
 0.55699997E+02  0.11831E+04
 0.55749996E+02 -0.15121E+04
 0.55799995E+02 -0.29644E+04
 0.55849995E+02 -0.52133E+04
 0.55899998E+02 -0.35295E+04
 0.55949997E+02 -0.81296E+03
 0.55999996E+02  0.62852E+03
 0.56049995E+02  0.19770E+04
 0.56099995E+02  0.22439E+04
 0.56149998E+02  0.39130E+03
 0.56199997E+02  0.21358E+03
 0.56249996E+02  0.28756E+04
 0.56299995E+02  0.32760E+04
 0.56349995E+02  0.51945E+04
 0.56399998E+02  0.50698E+04
 0.56449997E+02  0.42031E+04
 0.56499996E+02  0.21642E+04
 0.56549995E+02 -0.26465E+04
 0.56599995E+02 -0.87277E+04
 0.56649998E+02 -0.10415E+05
 0.56699997E+02 -0.23998E+04
 0.56749996E+02  0.36858E+04
 0.56799995E+02  0.88718E+04
 0.56849995E+02  0.66192E+04
 0.56899998E+02 -0.15534E+04
 0.56949997E+02 -0.36040E+04
 0.56999996E+02 -0.16619E+04
 0.57049995E+02  0.25392E+04
 0.57099995E+02  0.91079E+03
 0.57149998E+02 -0.26443E+04
 0.57199997E+02 -0.63002E+04
 0.57249996E+02 -0.41570E+04
 0.57299995E+02 -0.47431E+03
 0.57349995E+02 -0.48792E+04
 0.57399998E+02  0.47206E+02
 0.57449997E+02  0.23218E+04
 0.57499996E+02  0.16927E+04
 0.57549995E+02  0.49547E+04
 0.57599995E+02 -0.30495E+04
 0.57649998E+02 -0.48001E+04
 0.57699997E+02 -0.20023E+04
 0.57749996E+02 -0.24572E+04
 0.57799995E+02  0.47198E+04
 0.57849995E+02  0.56259E+04
 0.57899998E+02 -0.11826E+04
 0.57949997E+02 -0.73404E+03
 0.57999996E+02  0.36985E+04
 0.58049995E+02  0.67685E+03
 0.58099995E+02 -0.10860E+04
 0.58149998E+02 -0.21868E+04
 0.58199997E+02 -0.68957E+04
 0.58249996E+02 -0.23630E+04
 0.58299995E+02  0.40378E+04
 0.58349995E+02  0.64022E+04
 0.58399998E+02  0.54429E+04
 0.58449997E+02  0.23085E+03
 0.58499996E+02 -0.11101E+04
 0.58549995E+02 -0.61939E+03
 0.58599995E+02  0.14548E+04
 0.58649998E+02  0.12508E+04
 0.58699997E+02 -0.18468E+03
 0.58749996E+02  0.43082E+04
 0.58799995E+02  0.11068E+04
 0.58849995E+02  0.51169E+03
 0.58899998E+02  0.21492E+04
 0.58949997E+02 -0.22966E+04
 0.58999996E+02 -0.20858E+04
 0.59049995E+02 -0.37708E+04
 0.59099995E+02 -0.12274E+03
 0.59149998E+02 -0.37314E+04
 0.59199997E+02 -0.30512E+04
 0.59249996E+02  0.34646E+04
 0.59299995E+02 -0.27608E+03
 0.59349995E+02  0.18404E+04
 0.59399998E+02 -0.62561E+04
 0.59449997E+02 -0.75490E+04
 0.59499996E+02 -0.40473E+03
 0.59549995E+02  0.15169E+04
 0.59599995E+02  0.29479E+04
 0.59649998E+02  0.32764E+04
 0.59699997E+02 -0.15444E+03
 0.59749996E+02 -0.40843E+03
 0.59799995E+02  0.64762E+04
 0.59849995E+02 -0.53688E+03
 0.59899998E+02 -0.91704E+03
 0.59949997E+02  0.22066E+04
 0.59999996E+02  0.36063E+04
 0.60049995E+02  0.35190E+04
 0.60099995E+02 -0.71399E+04
 0.60149998E+02 -0.42221E+04
 0.60199997E+02 -0.54168E+04
 0.60249996E+02 -0.51630E+04
 0.60299995E+02  0.50090E+03
 0.60349995E+02  0.64836E+03
 0.60399998E+02  0.27743E+04
 0.60449997E+02  0.25941E+03
 0.60499996E+02  0.10558E+04
 0.60549995E+02  0.24376E+04
 0.60599995E+02  0.52233E+04
 0.60649998E+02  0.96266E+03
 0.60699997E+02  0.16135E+04
 0.60749996E+02  0.28990E+04
 0.60799995E+02 -0.21263E+04
 0.60849995E+02  0.24926E+04
 0.60899998E+02 -0.13366E+04
 0.60949997E+02 -0.31789E+04
 0.60999996E+02 -0.48308E+04
 0.61049995E+02 -0.32840E+04
 0.61099995E+02  0.79514E+02
 0.61149998E+02  0.46477E+03
 0.61199997E+02  0.62949E+04
 0.61249996E+02  0.65492E+04
 0.61299995E+02  0.47034E+04
 0.61349995E+02 -0.20661E+04
 0.61399998E+02 -0.34365E+04
 0.61449997E+02 -0.22254E+04
 0.61499996E+02 -0.82909E+03
 0.61549995E+02  0.32493E+04
 0.61599995E+02 -0.39727E+03
 0.61649998E+02  0.33978E+04
 0.61699997E+02  0.12038E+04
 0.61749996E+02 -0.17131E+04
 0.61799995E+02  0.22821E+04
 0.61849995E+02 -0.18397E+02
 0.61899998E+02  0.53647E+03
 0.61949997E+02 -0.34731E+04
 0.61999996E+02 -0.22035E+04
 0.62049995E+02 -0.40101E+03
 0.62099998E+02 -0.80736E+03
 0.62149994E+02  0.30566E+04
 0.62199997E+02 -0.14005E+04
 0.62249992E+02 -0.22451E+03
 0.62299995E+02 -0.41752E+02
 0.62349998E+02 -0.35560E+04
 0.62399994E+02 -0.97583E+03
 0.62449997E+02 -0.16429E+03
 0.62499992E+02  0.13633E+04
 0.62549995E+02 -0.42332E+03
 0.62599998E+02 -0.25400E+04
 0.62649994E+02 -0.29069E+04
 0.62699997E+02 -0.44075E+04
 0.62749992E+02 -0.49571E+04
 0.62799995E+02 -0.26859E+04
 0.62849998E+02  0.47611E+03
 0.62899994E+02  0.28065E+04
 0.62949997E+02  0.34944E+04
 0.62999992E+02  0.87055E+03
 0.63049995E+02 -0.15065E+04
 0.63099998E+02 -0.35733E+04
 0.63149994E+02 -0.29170E+04
 0.63199997E+02 -0.14895E+04
 0.63249992E+02  0.16093E+04
 0.63299995E+02  0.38305E+04
 0.63349998E+02  0.33791E+04
 0.63399994E+02  0.42462E+04
 0.63449997E+02  0.27530E+04
 0.63499992E+02 -0.21826E+03
 0.63549995E+02 -0.61530E+03
 0.63599998E+02  0.76352E+03
 0.63649994E+02  0.14850E+04
 0.63699997E+02  0.20698E+04
 0.63749992E+02  0.72494E+03
 0.63799995E+02 -0.27430E+04
 0.63849998E+02 -0.30214E+04
 0.63899994E+02 -0.28119E+04
 0.63949997E+02 -0.31227E+04
 0.63999992E+02 -0.19109E+04
 0.64049995E+02 -0.11979E+04
 0.64099998E+02  0.56108E+03
 0.64149994E+02 -0.48074E+03
 0.64199997E+02  0.21658E+03
 0.64249992E+02  0.25661E+04
 0.64299995E+02  0.33286E+02
 0.64349998E+02  0.23387E+04
 0.64399994E+02  0.41711E+04
 0.64449997E+02  0.46324E+04
 0.64499992E+02  0.40981E+04
 0.64549995E+02 -0.24190E+03
 0.64599998E+02  0.47041E+03
 0.64649994E+02  0.21611E+04
 0.64699997E+02  0.28359E+04
 0.64749992E+02  0.14416E+04
 0.64799995E+02  0.19750E+04
 0.64849998E+02  0.24089E+04
 0.64899994E+02 -0.13699E+04
 0.64949997E+02 -0.23865E+04
 0.64999992E+02 -0.34005E+04
 0.65049995E+02 -0.47141E+04
 0.65099998E+02 -0.57545E+04
 0.65149994E+02 -0.56960E+04
 0.65199997E+02 -0.34731E+04
 0.65249992E+02  0.23974E+03
 0.65299995E+02  0.40591E+04
 0.65349998E+02  0.43411E+04
 0.65399994E+02  0.35708E+04
 0.65449997E+02  0.31482E+04
 0.65499992E+02  0.15234E+04
 0.65549995E+02 -0.16637E+04
 0.65599998E+02 -0.35176E+04
 0.65649994E+02 -0.30926E+04
 0.65699997E+02 -0.34473E+04
 0.65749992E+02 -0.12488E+04
 0.65799995E+02 -0.14163E+03
 0.65849998E+02  0.29619E+03
 0.65899994E+02  0.43911E+04
 0.65949997E+02  0.42744E+04
 0.65999992E+02  0.21531E+04
 0.66049995E+02 -0.50305E+02
 0.66099998E+02 -0.27428E+04
 0.66149994E+02 -0.42437E+04
 0.66199997E+02 -0.50299E+04
 0.66249992E+02 -0.28206E+04
 0.66299995E+02 -0.12945E+04
 0.66349998E+02 -0.55159E+03
 0.66399994E+02  0.87626E+03
 0.66449997E+02 -0.64535E+03
 0.66499992E+02  0.62037E+03
 0.66549995E+02  0.25942E+04
 0.66599998E+02  0.28143E+04
 0.66649994E+02  0.34732E+04
 0.66699997E+02 -0.58140E+03
 0.66749992E+02 -0.21406E+04
 0.66799995E+02 -0.24292E+04
 0.66849998E+02 -0.22628E+04
 0.66899994E+02  0.77822E+03
 0.66949997E+02  0.40059E+03
 0.66999992E+02  0.64892E+03
 0.67049995E+02  0.17160E+04
 0.67099998E+02  0.20458E+04
 0.67149994E+02  0.26196E+04
 0.67199997E+02  0.34324E+04
 0.67249992E+02  0.31898E+04
 0.67299995E+02  0.29409E+04
 0.67349998E+02  0.29352E+04
 0.67399994E+02  0.21054E+04
 0.67449997E+02  0.13900E+04
 0.67499992E+02 -0.96173E+03
 0.67549995E+02 -0.48720E+03
 0.67599998E+02 -0.12679E+04
 0.67649994E+02 -0.37875E+04
 0.67699997E+02 -0.44812E+04
 0.67749992E+02 -0.33342E+04
 0.67799995E+02 -0.43441E+03
 0.67849998E+02  0.10677E+04
 0.67899994E+02  0.19512E+04
 0.67949997E+02  0.17547E+03
 0.67999992E+02  0.75878E+03
 0.68049995E+02  0.14919E+04
 0.68099998E+02  0.59070E+03
 0.68149994E+02  0.73582E+03
 0.68199997E+02 -0.55081E+03
 0.68249992E+02 -0.81521E+03
 0.68299995E+02 -0.17382E+04
 0.68349998E+02 -0.28842E+04
 0.68399994E+02 -0.45384E+04
 0.68449997E+02 -0.46824E+04
 0.68499992E+02 -0.14875E+04
 0.68549995E+02 -0.57915E+03
 0.68599998E+02 -0.90176E+03
 0.68649994E+02 -0.84372E+03
 0.68699997E+02 -0.10224E+04
 0.68749992E+02  0.27029E+02
 0.68799995E+02  0.17103E+04
 0.68849998E+02  0.19313E+04
 0.68899994E+02  0.12660E+04
 0.68949997E+02  0.51716E+03
 0.68999992E+02 -0.65949E+03
 0.69049995E+02 -0.94016E+03
 0.69099998E+02  0.61752E+03
 0.69149994E+02  0.17259E+04
 0.69199997E+02  0.25314E+04
 0.69249992E+02  0.16053E+04
 0.69299995E+02 -0.10251E+04
 0.69349998E+02 -0.10079E+04
 0.69399994E+02 -0.16371E+04
 0.69449997E+02 -0.21895E+04
 0.69499992E+02 -0.34786E+03
 0.69549995E+02  0.66900E+03
 0.69599998E+02  0.12689E+04
 0.69649994E+02  0.24327E+04
 0.69699997E+02  0.29994E+04
 0.69749992E+02  0.26445E+04
 0.69799995E+02  0.22290E+04
 0.69849998E+02  0.12522E+04
 0.69899994E+02  0.11723E+04
 0.69949997E+02  0.13029E+04
 0.69999992E+02  0.31561E+03
 0.70049995E+02 -0.31935E+03
 0.70099998E+02 -0.10971E+04
 0.70149994E+02 -0.98157E+03
 0.70199997E+02 -0.94930E+03
 0.70249992E+02 -0.17475E+04
 0.70299995E+02 -0.22618E+04
 0.70349998E+02 -0.12281E+04
 0.70399994E+02 -0.39160E+02
 0.70449997E+02  0.93178E+03
 0.70499992E+02  0.27002E+04
 0.70549995E+02  0.25859E+04
 0.70599998E+02  0.28974E+04
 0.70649994E+02  0.14404E+04
 0.70699997E+02 -0.43412E+03
 0.70749992E+02 -0.10067E+04
 0.70799995E+02 -0.29955E+04
 0.70849998E+02 -0.25806E+04
 0.70899994E+02 -0.17924E+04
 0.70949997E+02 -0.15534E+04
 0.70999992E+02 -0.23807E+04
 0.71049995E+02 -0.22512E+04
 0.71099998E+02 -0.14110E+04
 0.71149994E+02 -0.66187E+03
 0.71199997E+02  0.69919E+03
 0.71249992E+02  0.22474E+03
 0.71299995E+02  0.64941E+03
 0.71349998E+02  0.57919E+03
 0.71399994E+02  0.80184E+03
 0.71449997E+02  0.30445E+03
 0.71499992E+02 -0.59039E+03
 0.71549995E+02  0.60579E+03
 0.71599998E+02  0.79372E+03
 0.71649994E+02  0.17737E+04
 0.71699997E+02  0.83793E+03
 0.71749992E+02 -0.19881E+04
 0.71799995E+02 -0.22600E+04
 0.71849998E+02 -0.85256E+03
 0.71899994E+02  0.22658E+03
 0.71949997E+02  0.87932E+03
 0.71999992E+02  0.10144E+04
 0.72049995E+02 -0.52079E+02
 0.72099998E+02  0.41244E+03
 0.72149994E+02  0.14570E+03
 0.72199997E+02  0.20816E+03
 0.72249992E+02  0.23839E+04
 0.72299995E+02  0.25018E+04
 0.72349998E+02  0.15229E+04
 0.72399994E+02  0.76280E+03
 0.72449997E+02 -0.60222E+03
 0.72499992E+02 -0.18844E+04
 0.72549995E+02 -0.14004E+04
 0.72599998E+02 -0.20165E+03
 0.72649994E+02  0.17408E+03
 0.72699997E+02  0.10696E+03
 0.72749992E+02  0.63452E+03
 0.72799995E+02  0.95113E+03
 0.72849998E+02 -0.25039E+03
 0.72899994E+02 -0.82077E+03
 0.72949997E+02 -0.16522E+04
 0.72999992E+02 -0.14158E+04
 0.73049995E+02 -0.68176E+03
 0.73099998E+02 -0.14580E+04
 0.73149994E+02 -0.73817E+03
 0.73199997E+02 -0.42017E+03
 0.73249992E+02  0.18657E+03
 0.73299995E+02  0.12866E+04
 0.73349998E+02  0.12125E+04
 0.73399994E+02  0.17737E+04
 0.73449997E+02  0.16331E+04
 0.73499992E+02  0.76905E+03
 0.73549995E+02  0.40573E+03
 0.73599998E+02 -0.43141E+03
 0.73649994E+02 -0.10312E+04
 0.73699997E+02 -0.12854E+04
 0.73749992E+02 -0.76124E+03
 0.73799995E+02  0.33706E+03
 0.73849998E+02  0.42363E+03
 0.73899994E+02  0.70939E+03
 0.73949997E+02  0.17334E+04
 0.73999992E+02  0.73700E+03
 0.74049995E+02 -0.97259E+03
 0.74099998E+02 -0.83539E+03
 0.74149994E+02 -0.11079E+04
 0.74199997E+02 -0.78056E+03
 0.74249992E+02 -0.13596E+04
 0.74299995E+02 -0.12057E+04
 0.74349998E+02  0.56450E+03
 0.74399994E+02  0.56206E+03
 0.74449997E+02  0.20631E+04
 0.74499992E+02  0.20570E+04
 0.74549995E+02  0.16071E+04
 0.74599998E+02  0.11806E+04
 0.74649994E+02 -0.77544E+03
 0.74699997E+02 -0.15504E+04
 0.74749992E+02 -0.25518E+04
 0.74799995E+02 -0.24700E+04
 0.74849998E+02 -0.18263E+04
 0.74899994E+02 -0.13868E+04
 0.74949997E+02 -0.87702E+03
 0.74999992E+02 -0.57867E+03
 0.75049995E+02 -0.94832E+03
 0.75099998E+02 -0.12972E+04
 0.75149994E+02 -0.19316E+04
 0.75199997E+02 -0.12688E+04
 0.75249992E+02  0.37160E+03
 0.75299995E+02  0.66787E+03
 0.75349998E+02  0.17158E+04
 0.75399994E+02  0.21822E+04
 0.75449997E+02  0.21850E+04
 0.75499992E+02  0.13398E+04
 0.75549995E+02  0.10096E+04
 0.75599998E+02  0.11392E+04
 0.75649994E+02  0.11082E+04
 0.75699997E+02  0.93311E+03
 0.75749992E+02  0.27420E+03
 0.75799995E+02 -0.12663E+03
 0.75849998E+02 -0.14321E+04
 0.75899994E+02 -0.53955E+03
 0.75949997E+02 -0.91017E+03
 0.75999992E+02 -0.11649E+04
 0.76049995E+02 -0.46758E+03
 0.76099998E+02 -0.66948E+03
 0.76149994E+02  0.11524E+04
 0.76199997E+02  0.14370E+04
 0.76249992E+02  0.14648E+04
 0.76299995E+02  0.20954E+04
 0.76349998E+02  0.15335E+04
 0.76399994E+02  0.71921E+03
 0.76449997E+02  0.19684E+03
 0.76499992E+02  0.28426E+03
 0.76549995E+02 -0.50301E+03
 0.76599998E+02 -0.14883E+04
 0.76649994E+02 -0.10737E+04
 0.76699997E+02 -0.12545E+04
 0.76749992E+02 -0.11003E+03
 0.76799995E+02  0.67818E+03
 0.76849998E+02 -0.68033E+02
 0.76899994E+02 -0.20315E+02
 0.76949997E+02 -0.89435E+03
 0.76999992E+02 -0.10821E+04
 0.77049995E+02 -0.15005E+04
 0.77099998E+02 -0.11545E+04
 0.77149994E+02 -0.30063E+02
 0.77199997E+02  0.52411E+03
 0.77249992E+02  0.12355E+04
 0.77299995E+02  0.12801E+04
 0.77349998E+02  0.10590E+04
 0.77399994E+02  0.20713E+03
 0.77449997E+02 -0.98519E+02
 0.77499992E+02 -0.86155E+03
 0.77549995E+02 -0.14529E+04
 0.77599998E+02 -0.11395E+04
 0.77649994E+02 -0.12855E+04
 0.77699997E+02 -0.14633E+04
 0.77749992E+02 -0.15012E+04
 0.77799995E+02 -0.76966E+03
 0.77849998E+02  0.98870E+02
 0.77899994E+02  0.96115E+03
 0.77949997E+02  0.50276E+03
 0.77999992E+02 -0.85143E+03
 0.78049995E+02 -0.22284E+04
 0.78099998E+02 -0.26525E+04
 0.78149994E+02 -0.93426E+03
 0.78199997E+02  0.10344E+04
 0.78249992E+02  0.23439E+04
 0.78299995E+02  0.25643E+04
 0.78349998E+02  0.29946E+04
 0.78399994E+02  0.27222E+04
 0.78449997E+02  0.20792E+04
 0.78499992E+02  0.13969E+04
 0.78549995E+02 -0.46512E+03
 0.78599998E+02 -0.12365E+04
 0.78649994E+02 -0.99085E+03
 0.78699997E+02  0.17769E+03
 0.78749992E+02  0.17154E+04
 0.78799995E+02  0.31505E+04
 0.78849998E+02  0.37982E+04
 0.78899994E+02  0.24171E+04
 0.78949997E+02  0.10657E+04
 0.78999992E+02  0.41561E+02
 0.79049995E+02 -0.40973E+03
 0.79099998E+02 -0.14070E+03
 0.79149994E+02  0.36572E+02
 0.79199997E+02 -0.12179E+03
 0.79249992E+02 -0.81356E+03
 0.79299995E+02 -0.12412E+04
 0.79349998E+02 -0.23067E+04
 0.79399994E+02 -0.29872E+04
 0.79449997E+02 -0.31654E+04
 0.79499992E+02 -0.33566E+04
 0.79549995E+02 -0.28561E+04
 0.79599998E+02 -0.30082E+04
 0.79649994E+02 -0.24351E+04
 0.79699997E+02 -0.14594E+04
 0.79749992E+02 -0.39198E+02
 0.79799995E+02  0.14470E+04
 0.79849998E+02  0.22705E+04
 0.79899994E+02  0.27408E+04
 0.79949997E+02  0.17130E+04
 0.79999992E+02  0.10698E+04
 0.80049995E+02 -0.65467E+02
 0.80099998E+02 -0.88113E+03
 0.80149994E+02 -0.91990E+03
 0.80199997E+02 -0.96064E+03
 0.80249992E+02 -0.27173E+03
 0.80299995E+02 -0.21649E+03
 0.80349998E+02  0.32926E+03
 0.80399994E+02  0.96726E+03
 0.80449997E+02  0.73912E+03
 0.80499992E+02  0.76515E+03
 0.80549995E+02  0.10538E+04
 0.80599998E+02  0.88745E+03
 0.80649994E+02  0.11141E+04
 0.80699997E+02  0.82809E+03
 0.80749992E+02 -0.27956E+02
 0.80799995E+02  0.14821E+03
 0.80849998E+02  0.43866E+02
 0.80899994E+02 -0.11869E+03
 0.80949997E+02  0.19445E+03
 0.80999992E+02  0.57039E+03
 0.81049995E+02  0.10842E+04
 0.81099998E+02  0.15432E+04
 0.81149994E+02  0.15743E+04
 0.81199997E+02  0.12617E+04
 0.81249992E+02  0.59104E+03
 0.81299995E+02  0.27811E+03
 0.81349998E+02 -0.11751E+03
 0.81399994E+02 -0.80012E+03
 0.81449997E+02 -0.59838E+03
 0.81499992E+02 -0.70837E+03
 0.81549995E+02 -0.30839E+03
 0.81599998E+02 -0.80961E+02
 0.81649994E+02 -0.72261E+03
 0.81699997E+02 -0.10994E+04
 0.81749992E+02 -0.15279E+04
 0.81799995E+02 -0.78342E+03
 0.81849998E+02 -0.34425E+02
 0.81899994E+02  0.16101E+03
 0.81949997E+02  0.22277E+03
 0.81999992E+02 -0.10594E+03
 0.82049995E+02 -0.37016E+03
 0.82099998E+02 -0.62997E+03
 0.82149994E+02 -0.89666E+03
 0.82199997E+02 -0.78227E+03
 0.82249992E+02 -0.10141E+03
 0.82299995E+02  0.13450E+03
 0.82349998E+02  0.15423E+03
 0.82399994E+02 -0.31351E+03
 0.82449997E+02 -0.10871E+04
 0.82499992E+02 -0.13627E+04
 0.82549995E+02 -0.12594E+04
 0.82599998E+02 -0.66886E+03
 0.82649994E+02 -0.36544E+03
 0.82699997E+02 -0.16226E+03
 0.82749992E+02 -0.91675E+02
 0.82799995E+02  0.45908E+02
 0.82849998E+02  0.52005E+03
 0.82899994E+02  0.12570E+04
 0.82949997E+02  0.19479E+04
 0.82999992E+02  0.15703E+04
 0.83049995E+02  0.10664E+04
 0.83099998E+02  0.76924E+03
 0.83149994E+02  0.60819E+03
 0.83199997E+02  0.52364E+03
 0.83249992E+02  0.21988E+03
 0.83299995E+02  0.28850E+03
 0.83349998E+02  0.44408E+03
 0.83399994E+02  0.32944E+03
 0.83449997E+02  0.52291E+03
 0.83499992E+02  0.73684E+03
 0.83549995E+02  0.92430E+03
 0.83599998E+02  0.10052E+04
 0.83649994E+02  0.64692E+03
 0.83699997E+02  0.32727E+03
 0.83749992E+02 -0.54419E+02
 0.83799995E+02  0.19714E+02
 0.83849998E+02 -0.18723E+02
 0.83899994E+02 -0.12283E+02
 0.83949997E+02  0.29643E+03
 0.83999992E+02 -0.23642E+03
 0.84049995E+02 -0.12089E+03
 0.84099998E+02 -0.32550E+03
 0.84149994E+02 -0.12202E+04
 0.84199997E+02 -0.12230E+04
 0.84249992E+02 -0.18428E+04
 0.84299995E+02 -0.21364E+04
 0.84349998E+02 -0.21980E+04
 0.84399994E+02 -0.23422E+04
 0.84449997E+02 -0.17137E+04
 0.84499992E+02 -0.12726E+04
 0.84549995E+02 -0.38307E+03
 0.84599998E+02  0.13404E+03
 0.84649994E+02  0.84405E+03
 0.84699997E+02  0.15384E+04
 0.84749992E+02  0.92422E+03
 0.84799995E+02  0.65188E+03
 0.84849998E+02  0.23227E+03
 0.84899994E+02 -0.34242E+02
 0.84949997E+02 -0.34024E+03
 0.84999992E+02 -0.30505E+03
 0.85049995E+02  0.39123E+03
 0.85099998E+02  0.64923E+03
 0.85149994E+02  0.81312E+03
 0.85199997E+02  0.84496E+03
 0.85249992E+02  0.77241E+03
 0.85299995E+02  0.54812E+03
 0.85349998E+02  0.97735E+03
 0.85399994E+02  0.88598E+03
 0.85449997E+02  0.35226E+03
 0.85499992E+02  0.25139E+03
 0.85549995E+02 -0.34279E+03
 0.85599998E+02 -0.26241E+03
 0.85649994E+02 -0.21054E+03
 0.85699997E+02 -0.14792E+03
 0.85749992E+02  0.26213E+03
 0.85799995E+02  0.17721E+03
 0.85849998E+02  0.42386E+03
 0.85899994E+02  0.10004E+03
 0.85949997E+02 -0.64986E+03
 0.85999992E+02 -0.13415E+04
 0.86049995E+02 -0.20294E+04
 0.86099998E+02 -0.22277E+04
 0.86149994E+02 -0.19333E+04
 0.86199997E+02 -0.11586E+04
 0.86249992E+02 -0.36969E+03
 0.86299995E+02  0.43269E+03
 0.86349998E+02  0.54262E+03
 0.86399994E+02  0.51133E+03
 0.86449997E+02  0.55764E+03
 0.86499992E+02  0.12840E+03
 0.86549995E+02  0.10134E+02
 0.86599998E+02 -0.24854E+03
 0.86649994E+02 -0.18011E+03
 0.86699997E+02  0.15032E+03
 0.86749992E+02  0.67033E+03
 0.86799995E+02  0.97165E+03
 0.86849998E+02  0.89319E+03
 0.86899994E+02  0.10672E+04
 0.86949997E+02  0.83676E+03
 0.86999992E+02  0.72664E+03
 0.87049995E+02  0.29155E+03
 0.87099998E+02 -0.72607E+02
 0.87149994E+02 -0.38703E+03
 0.87199997E+02 -0.65172E+03
 0.87249992E+02 -0.49005E+03
 0.87299995E+02 -0.36550E+03
 0.87349998E+02  0.32356E+03
 0.87399994E+02  0.85950E+03
 0.87449997E+02  0.12178E+04
 0.87499992E+02  0.90000E+03
 0.87549995E+02  0.50973E+03
 0.87599991E+02  0.22759E+03
 0.87649994E+02 -0.58034E+03
 0.87699997E+02 -0.86881E+03
 0.87749992E+02 -0.13246E+04
 0.87799995E+02 -0.14891E+04
 0.87849991E+02 -0.13430E+04
 0.87899994E+02 -0.92473E+03
 0.87949997E+02 -0.16990E+03
 0.87999992E+02  0.19334E+03
 0.88049995E+02  0.39768E+03
 0.88099991E+02 -0.12696E+03
 0.88149994E+02 -0.64860E+03
 0.88199997E+02 -0.53022E+03
 0.88249992E+02 -0.29271E+03
 0.88299995E+02  0.16094E+03
 0.88349991E+02  0.50648E+03
 0.88399994E+02  0.62808E+03
 0.88449997E+02  0.76400E+03
 0.88499992E+02  0.78180E+03
 0.88549995E+02  0.85800E+03
 0.88599991E+02  0.56605E+03
 0.88649994E+02  0.30776E+03
 0.88699997E+02  0.75141E+01
 0.88749992E+02 -0.46615E+03
 0.88799995E+02 -0.34004E+03
 0.88849991E+02 -0.50971E+03
 0.88899994E+02 -0.44345E+03
 0.88949997E+02 -0.66257E+03
 0.88999992E+02 -0.69567E+03
 0.89049995E+02 -0.30611E+03
 0.89099991E+02 -0.25987E+03
 0.89149994E+02  0.26296E+03
 0.89199997E+02  0.45741E+03
 0.89249992E+02  0.94032E+03
 0.89299995E+02  0.12163E+04
 0.89349991E+02  0.77972E+03
 0.89399994E+02  0.36462E+03
 0.89449997E+02  0.17802E+01
 0.89499992E+02  0.11967E+01
 0.89549995E+02  0.10167E+03
 0.89599991E+02  0.79152E+02
 0.89649994E+02 -0.14703E+03
 0.89699997E+02 -0.25172E+03
 0.89749992E+02 -0.46514E+03
 0.89799995E+02 -0.63225E+03
 0.89849991E+02 -0.47567E+03
 0.89899994E+02 -0.39302E+03
 0.89949997E+02 -0.34521E+03
 0.89999992E+02 -0.41160E+03
 0.90049995E+02 -0.38712E+03
 0.90099991E+02 -0.21625E+03
 0.90149994E+02  0.19218E+02
 0.90199997E+02  0.23866E+03
 0.90249992E+02  0.55230E+03
 0.90299995E+02  0.63317E+03
 0.90349991E+02  0.68505E+03
 0.90399994E+02  0.10631E+04
 0.90449997E+02  0.12210E+04
 0.90499992E+02  0.10918E+04
 0.90549995E+02  0.60395E+03
 0.90599991E+02  0.15419E+03
 0.90649994E+02 -0.32734E+03
 0.90699997E+02 -0.66508E+03
 0.90749992E+02 -0.94786E+03
 0.90799995E+02 -0.11168E+04
 0.90849991E+02 -0.89611E+03
 0.90899994E+02 -0.67118E+03
 0.90949997E+02 -0.32028E+03
 0.90999992E+02 -0.13594E+03
 0.91049995E+02  0.44935E+02
 0.91099991E+02  0.44465E+03
 0.91149994E+02  0.92245E+03
 0.91199997E+02  0.12051E+04
 0.91249992E+02  0.98829E+03
 0.91299995E+02  0.52274E+03
 0.91349991E+02  0.14901E+03
 0.91399994E+02 -0.23189E+03
 0.91449997E+02 -0.70292E+03
 0.91499992E+02 -0.60505E+03
 0.91549995E+02 -0.57934E+03
 0.91599991E+02 -0.62947E+03
 0.91649994E+02 -0.38343E+03
 0.91699997E+02 -0.42584E+03
 0.91749992E+02 -0.22736E+03
 0.91799995E+02 -0.36566E+03
 0.91849991E+02 -0.57081E+03
 0.91899994E+02 -0.47606E+03
 0.91949997E+02 -0.22909E+03
 0.91999992E+02  0.19621E+03
 0.92049995E+02  0.52175E+03
 0.92099991E+02  0.10160E+04
 0.92149994E+02  0.94497E+03
 0.92199997E+02  0.89340E+03
 0.92249992E+02  0.85151E+03
 0.92299995E+02  0.46377E+03
 0.92349991E+02  0.17865E+03
 0.92399994E+02 -0.61980E+03
 0.92449997E+02 -0.10015E+04
 0.92499992E+02 -0.11599E+04
 0.92549995E+02 -0.11675E+04
 0.92599991E+02 -0.72010E+03
 0.92649994E+02 -0.19809E+03
 0.92699997E+02  0.31456E+03
 0.92749992E+02  0.30928E+03
 0.92799995E+02  0.38970E+03
 0.92849991E+02  0.25168E+03
 0.92899994E+02  0.43151E+03
 0.92949997E+02  0.81360E+03
 0.92999992E+02  0.92083E+03
 0.93049995E+02  0.10736E+04
 0.93099991E+02  0.94028E+03
 0.93149994E+02  0.88294E+03
 0.93199997E+02  0.69548E+03
 0.93249992E+02  0.61084E+03
 0.93299995E+02  0.35176E+03
 0.93349991E+02 -0.10432E+03
 0.93399994E+02 -0.44793E+03
 0.93449997E+02 -0.86425E+03
 0.93499992E+02 -0.10915E+04
 0.93549995E+02 -0.10670E+04
 0.93599991E+02 -0.74353E+03
 0.93649994E+02 -0.66218E+03
 0.93699997E+02 -0.54487E+03
 0.93749992E+02 -0.46015E+03
 0.93799995E+02 -0.61439E+03
 0.93849991E+02 -0.67611E+03
 0.93899994E+02 -0.84509E+03
 0.93949997E+02 -0.79948E+03
 0.93999992E+02 -0.72138E+03
 0.94049995E+02 -0.49837E+03
 0.94099991E+02 -0.27315E+03
 0.94149994E+02 -0.16307E+03
 0.94199997E+02  0.87716E+02
 0.94249992E+02  0.30655E+03
 0.94299995E+02  0.44358E+03
 0.94349991E+02  0.51647E+03
 0.94399994E+02  0.46074E+03
 0.94449997E+02  0.39544E+03
 0.94499992E+02  0.24410E+03
 0.94549995E+02 -0.17865E+03
 0.94599991E+02 -0.44347E+03
 0.94649994E+02 -0.66075E+03
 0.94699997E+02 -0.61520E+03
 0.94749992E+02 -0.39869E+03
 0.94799995E+02 -0.12173E+03
 0.94849991E+02  0.19149E+03
 0.94899994E+02  0.20578E+03
 0.94949997E+02  0.21464E+03
 0.94999992E+02  0.28967E+03
 0.95049995E+02  0.26003E+03
 0.95099991E+02  0.16002E+03
 0.95149994E+02  0.15617E+03
 0.95199997E+02  0.19915E+02
 0.95249992E+02  0.15032E+03
 0.95299995E+02  0.26717E+03
 0.95349991E+02  0.32855E+03
 0.95399994E+02  0.56548E+03
 0.95449997E+02  0.54531E+03
 0.95499992E+02  0.58494E+03
 0.95549995E+02  0.34520E+03
 0.95599991E+02  0.23101E+03
 0.95649994E+02  0.44741E+02
 0.95699997E+02 -0.14711E+03
 0.95749992E+02  0.51813E+02
 0.95799995E+02  0.51663E+02
 0.95849991E+02  0.46579E+03
 0.95899994E+02  0.48495E+03
 0.95949997E+02  0.17846E+03
 0.95999992E+02 -0.17869E+03
 0.96049995E+02 -0.66023E+03
 0.96099991E+02 -0.66482E+03
 0.96149994E+02 -0.89049E+03
 0.96199997E+02 -0.77324E+03
 0.96249992E+02 -0.54479E+03
 0.96299995E+02 -0.42370E+03
 0.96349991E+02 -0.45780E+01
 0.96399994E+02  0.21524E+03
 0.96449997E+02  0.29039E+03
 0.96499992E+02  0.30231E+03
 0.96549995E+02  0.26175E+03
 0.96599991E+02  0.16718E+03
 0.96649994E+02  0.89362E+02
 0.96699997E+02  0.39438E+02
 0.96749992E+02  0.97328E+02
 0.96799995E+02  0.40952E+02
 0.96849991E+02  0.26866E+03
 0.96899994E+02  0.58883E+03
 0.96949997E+02  0.58311E+03
 0.96999992E+02  0.47529E+03
 0.97049995E+02  0.42645E+02
 0.97099991E+02 -0.18884E+03
 0.97149994E+02 -0.32115E+03
 0.97199997E+02 -0.42802E+03
 0.97249992E+02 -0.37726E+03
 0.97299995E+02 -0.23378E+03
 0.97349991E+02 -0.17086E+03
 0.97399994E+02 -0.18413E+03
 0.97449997E+02  0.72169E+02
 0.97499992E+02  0.24127E+03
 0.97549995E+02  0.33093E+03
 0.97599991E+02  0.20690E+03
 0.97649994E+02  0.19640E+03
 0.97699997E+02  0.49500E+03
 0.97749992E+02  0.72446E+03
 0.97799995E+02  0.93244E+03
 0.97849991E+02  0.10845E+04
 0.97899994E+02  0.10843E+04
 0.97949997E+02  0.64501E+03
 0.97999992E+02  0.20413E+03
