-0.19969940E+01  0.58766E+04
-0.19469941E+01  0.58495E+04
-0.18969940E+01  0.58792E+04
-0.18469940E+01  0.58861E+04
-0.17969940E+01  0.58909E+04
-0.17469940E+01  0.58950E+04
-0.16969941E+01  0.58953E+04
-0.16469941E+01  0.59073E+04
-0.15969940E+01  0.59063E+04
-0.15469940E+01  0.59004E+04
-0.14969940E+01  0.58982E+04
-0.14469941E+01  0.58912E+04
-0.13969941E+01  0.58862E+04
-0.13469940E+01  0.58785E+04
-0.12969941E+01  0.58774E+04
-0.12469940E+01  0.58752E+04
-0.11969941E+01  0.58692E+04
-0.11469941E+01  0.58666E+04
-0.10969940E+01  0.58654E+04
-0.10469941E+01  0.58617E+04
-0.99699408E+00  0.58601E+04
-0.94699407E+00  0.58614E+04
-0.89699411E+00  0.58674E+04
-0.84699404E+00  0.58666E+04
-0.79699409E+00  0.58706E+04
-0.74699414E+00  0.58753E+04
-0.69699407E+00  0.58801E+04
-0.64699411E+00  0.58851E+04
-0.59699416E+00  0.58828E+04
-0.54699409E+00  0.58909E+04
-0.49699414E+00  0.58964E+04
-0.44699407E+00  0.58982E+04
-0.39699411E+00  0.58984E+04
-0.34699416E+00  0.58953E+04
-0.29699409E+00  0.58919E+04
-0.24699414E+00  0.58901E+04
-0.19699407E+00  0.58857E+04
-0.14699411E+00  0.58838E+04
-0.96994162E-01  0.58798E+04
-0.46994090E-01  0.58774E+04
 0.30058622E-02  0.58734E+04
 0.53005934E-01  0.58664E+04
 0.10300589E+00  0.58627E+04
 0.15300584E+00  0.58611E+04
 0.20300579E+00  0.58614E+04
 0.25300574E+00  0.58579E+04
 0.30300593E+00  0.58617E+04
 0.35300589E+00  0.58616E+04
 0.40300584E+00  0.58594E+04
 0.45300579E+00  0.58621E+04
 0.50300574E+00  0.58642E+04
 0.55300593E+00  0.58668E+04
 0.60300589E+00  0.58661E+04
 0.65300584E+00  0.58645E+04
 0.70300579E+00  0.58602E+04
 0.75300574E+00  0.58601E+04
 0.80300570E+00  0.58570E+04
 0.85300589E+00  0.58562E+04
 0.90300584E+00  0.58636E+04
 0.95300579E+00  0.58585E+04
 0.10030057E+01  0.58586E+04
 0.10530057E+01  0.58604E+04
 0.11030059E+01  0.58577E+04
 0.11530058E+01  0.58567E+04
 0.12030058E+01  0.58557E+04
 0.12530057E+01  0.58542E+04
 0.13030057E+01  0.58577E+04
 0.13530059E+01  0.58554E+04
 0.14030058E+01  0.58579E+04
 0.14530058E+01  0.58628E+04
 0.15030057E+01  0.58594E+04
 0.15530057E+01  0.58660E+04
 0.16030059E+01  0.58715E+04
 0.16530058E+01  0.58781E+04
 0.17030058E+01  0.58849E+04
 0.17530057E+01  0.58887E+04
 0.18030057E+01  0.58943E+04
 0.18530056E+01  0.58981E+04
 0.19030058E+01  0.59036E+04
 0.19530058E+01  0.59056E+04
 0.20030057E+01  0.59033E+04
 0.20530057E+01  0.59091E+04
 0.21030059E+01  0.59063E+04
 0.21530056E+01  0.59053E+04
 0.22030058E+01  0.59074E+04
 0.22530055E+01  0.59018E+04
 0.23030057E+01  0.58954E+04
 0.23530059E+01  0.58885E+04
 0.24030056E+01  0.58822E+04
 0.24530058E+01  0.58805E+04
 0.25030055E+01  0.58820E+04
 0.25530057E+01  0.58871E+04
 0.26030059E+01  0.58856E+04
 0.26530056E+01  0.58838E+04
 0.27030058E+01  0.58834E+04
 0.27530055E+01  0.58791E+04
 0.28030057E+01  0.58771E+04
 0.28530059E+01  0.58789E+04
 0.29030056E+01  0.58797E+04
 0.29530058E+01  0.58722E+04
 0.30030055E+01  0.58733E+04
 0.30530057E+01  0.58716E+04
 0.31030059E+01  0.58689E+04
 0.31530056E+01  0.58647E+04
 0.32030058E+01  0.58656E+04
 0.32530055E+01  0.58663E+04
 0.33030057E+01  0.58664E+04
 0.33530059E+01  0.58715E+04
 0.34030056E+01  0.58704E+04
 0.34530058E+01  0.58706E+04
 0.35030055E+01  0.58722E+04
 0.35530057E+01  0.58731E+04
 0.36030054E+01  0.58749E+04
 0.36530056E+01  0.58771E+04
 0.37030058E+01  0.58775E+04
 0.37530055E+01  0.58815E+04
 0.38030057E+01  0.58796E+04
 0.38530054E+01  0.58783E+04
 0.39030056E+01  0.58783E+04
 0.39530058E+01  0.58663E+04
 0.40030055E+01  0.58659E+04
 0.40530057E+01  0.58645E+04
 0.41030054E+01  0.58625E+04
 0.41530056E+01  0.58631E+04
 0.42030058E+01  0.58570E+04
 0.42530055E+01  0.58574E+04
 0.43030057E+01  0.58585E+04
 0.43530054E+01  0.58596E+04
 0.44030056E+01  0.58562E+04
 0.44530058E+01  0.58578E+04
 0.45030055E+01  0.58576E+04
 0.45530057E+01  0.58642E+04
 0.46030054E+01  0.58662E+04
 0.46530056E+01  0.58701E+04
 0.47030058E+01  0.58776E+04
 0.47530055E+01  0.58857E+04
 0.48030057E+01  0.58845E+04
 0.48530054E+01  0.58859E+04
 0.49030056E+01  0.58985E+04
 0.49530058E+01  0.58963E+04
 0.50030055E+01  0.58991E+04
 0.50530057E+01  0.58942E+04
 0.51030054E+01  0.58892E+04
 0.51530056E+01  0.58935E+04
 0.52030058E+01  0.58919E+04
 0.52530055E+01  0.58937E+04
 0.53030057E+01  0.58993E+04
 0.53530054E+01  0.58990E+04
 0.54030056E+01  0.59035E+04
 0.54530053E+01  0.59048E+04
 0.55030055E+01  0.59040E+04
 0.55530057E+01  0.59006E+04
 0.56030054E+01  0.59006E+04
 0.56530056E+01  0.59043E+04
 0.57030053E+01  0.59070E+04
 0.57530055E+01  0.59098E+04
 0.58030057E+01  0.59085E+04
 0.58530054E+01  0.59064E+04
 0.59030056E+01  0.59021E+04
 0.59530053E+01  0.58970E+04
 0.60030055E+01  0.58935E+04
 0.60530052E+01  0.58831E+04
 0.61030054E+01  0.58783E+04
 0.61530056E+01  0.58792E+04
 0.62030058E+01  0.58795E+04
 0.62530050E+01  0.58816E+04
 0.63030052E+01  0.58807E+04
 0.63530054E+01  0.58775E+04
 0.64030056E+01  0.58715E+04
 0.64530058E+01  0.58728E+04
 0.65030050E+01  0.58762E+04
 0.65530052E+01  0.58793E+04
 0.66030054E+01  0.58762E+04
 0.66530056E+01  0.58762E+04
 0.67030058E+01  0.58768E+04
 0.67530050E+01  0.58744E+04
 0.68030052E+01  0.58722E+04
 0.68530054E+01  0.58755E+04
 0.69030056E+01  0.58776E+04
 0.69530058E+01  0.58809E+04
 0.70030050E+01  0.58906E+04
 0.70530052E+01  0.58934E+04
 0.71030054E+01  0.58950E+04
 0.71530056E+01  0.58946E+04
 0.72030058E+01  0.58905E+04
 0.72530050E+01  0.58893E+04
 0.73030052E+01  0.58894E+04
 0.73530054E+01  0.58825E+04
 0.74030056E+01  0.58783E+04
 0.74530058E+01  0.58776E+04
 0.75030050E+01  0.58765E+04
 0.75530052E+01  0.58721E+04
 0.76030054E+01  0.58687E+04
 0.76530056E+01  0.58632E+04
 0.77030058E+01  0.58619E+04
 0.77530050E+01  0.58561E+04
 0.78030052E+01  0.58479E+04
 0.78530054E+01  0.58482E+04
 0.79030056E+01  0.58451E+04
 0.79530058E+01  0.58465E+04
 0.80030050E+01  0.58446E+04
 0.80530052E+01  0.58486E+04
 0.81030054E+01  0.58550E+04
 0.81530056E+01  0.58583E+04
 0.82030058E+01  0.58625E+04
 0.82530050E+01  0.58610E+04
 0.83030052E+01  0.58673E+04
 0.83530054E+01  0.58716E+04
 0.84030056E+01  0.58774E+04
 0.84530058E+01  0.58836E+04
 0.85030050E+01  0.58853E+04
 0.85530052E+01  0.58896E+04
 0.86030054E+01  0.58910E+04
 0.86530056E+01  0.58874E+04
 0.87030058E+01  0.58868E+04
 0.87530050E+01  0.58922E+04
 0.88030052E+01  0.58910E+04
 0.88530054E+01  0.58909E+04
 0.89030056E+01  0.58944E+04
 0.89530058E+01  0.58954E+04
 0.90030050E+01  0.58924E+04
 0.90530052E+01  0.58904E+04
 0.91030054E+01  0.58874E+04
 0.91530056E+01  0.58838E+04
 0.92030048E+01  0.58803E+04
 0.92530050E+01  0.58780E+04
 0.93030052E+01  0.58792E+04
 0.93530054E+01  0.58745E+04
 0.94030056E+01  0.58757E+04
 0.94530048E+01  0.58711E+04
 0.95030050E+01  0.58667E+04
 0.95530052E+01  0.58695E+04
 0.96030054E+01  0.58652E+04
 0.96530056E+01  0.58655E+04
 0.97030048E+01  0.58660E+04
 0.97530050E+01  0.58686E+04
 0.98030052E+01  0.58766E+04
 0.98530054E+01  0.58732E+04
 0.99030056E+01  0.58673E+04
 0.99530048E+01  0.58669E+04
 0.10003005E+02  0.58673E+04
 0.10053005E+02  0.58712E+04
 0.10103005E+02  0.58644E+04
 0.10153006E+02  0.58658E+04
 0.10203005E+02  0.58663E+04
 0.10253005E+02  0.58681E+04
 0.10303005E+02  0.58676E+04
 0.10353005E+02  0.58650E+04
 0.10403006E+02  0.58675E+04
 0.10453005E+02  0.58690E+04
 0.10503005E+02  0.58735E+04
 0.10553005E+02  0.58713E+04
 0.10603005E+02  0.58723E+04
 0.10653006E+02  0.58730E+04
 0.10703005E+02  0.58736E+04
 0.10753005E+02  0.58776E+04
 0.10803005E+02  0.58794E+04
 0.10853005E+02  0.58752E+04
 0.10903006E+02  0.58753E+04
 0.10953005E+02  0.58753E+04
 0.11003005E+02  0.58794E+04
 0.11053005E+02  0.58792E+04
 0.11103005E+02  0.58740E+04
 0.11153006E+02  0.58685E+04
 0.11203005E+02  0.58643E+04
 0.11253005E+02  0.58630E+04
 0.11303005E+02  0.58621E+04
 0.11353005E+02  0.58601E+04
 0.11403006E+02  0.58642E+04
 0.11453005E+02  0.58659E+04
 0.11503005E+02  0.58618E+04
 0.11553005E+02  0.58649E+04
 0.11603005E+02  0.58731E+04
 0.11653006E+02  0.58816E+04
 0.11703005E+02  0.58819E+04
 0.11753005E+02  0.58816E+04
 0.11803005E+02  0.58850E+04
 0.11853005E+02  0.58865E+04
 0.11903006E+02  0.58895E+04
 0.11953005E+02  0.58950E+04
 0.12003005E+02  0.58949E+04
 0.12053005E+02  0.59006E+04
 0.12103005E+02  0.59023E+04
 0.12153006E+02  0.58969E+04
 0.12203005E+02  0.58918E+04
 0.12253005E+02  0.58891E+04
 0.12303005E+02  0.58850E+04
 0.12353005E+02  0.58782E+04
 0.12403006E+02  0.58773E+04
 0.12453005E+02  0.58767E+04
 0.12503005E+02  0.58733E+04
 0.12553005E+02  0.58740E+04
 0.12603005E+02  0.58709E+04
 0.12653005E+02  0.58705E+04
 0.12703005E+02  0.58683E+04
 0.12753005E+02  0.58631E+04
 0.12803005E+02  0.58640E+04
 0.12853005E+02  0.58605E+04
 0.12903005E+02  0.58617E+04
 0.12953005E+02  0.58582E+04
 0.13003005E+02  0.58575E+04
 0.13053005E+02  0.58565E+04
 0.13103005E+02  0.58643E+04
 0.13153005E+02  0.58683E+04
 0.13203005E+02  0.58626E+04
 0.13253005E+02  0.58587E+04
 0.13303005E+02  0.58597E+04
 0.13353005E+02  0.58618E+04
 0.13403005E+02  0.58643E+04
 0.13453005E+02  0.58698E+04
 0.13503005E+02  0.58674E+04
 0.13553005E+02  0.58740E+04
 0.13603005E+02  0.58760E+04
 0.13653005E+02  0.58773E+04
 0.13703005E+02  0.58798E+04
 0.13753005E+02  0.58800E+04
 0.13803005E+02  0.58813E+04
 0.13853005E+02  0.58837E+04
 0.13903005E+02  0.58856E+04
 0.13953005E+02  0.58873E+04
 0.14003005E+02  0.58954E+04
 0.14053005E+02  0.58919E+04
 0.14103004E+02  0.58871E+04
 0.14153006E+02  0.58913E+04
 0.14203005E+02  0.58895E+04
 0.14253004E+02  0.58957E+04
 0.14303005E+02  0.58987E+04
 0.14353004E+02  0.58990E+04
 0.14403006E+02  0.59010E+04
 0.14453005E+02  0.59031E+04
 0.14503004E+02  0.59043E+04
 0.14553005E+02  0.59011E+04
 0.14603004E+02  0.59010E+04
 0.14653006E+02  0.58991E+04
 0.14703005E+02  0.58974E+04
 0.14753004E+02  0.58954E+04
 0.14803005E+02  0.58936E+04
 0.14853004E+02  0.58899E+04
 0.14903006E+02  0.58894E+04
 0.14953005E+02  0.58871E+04
 0.15003004E+02  0.58817E+04
 0.15053005E+02  0.58802E+04
 0.15103004E+02  0.58796E+04
 0.15153006E+02  0.58783E+04
 0.15203005E+02  0.58786E+04
 0.15253004E+02  0.58740E+04
 0.15303005E+02  0.58712E+04
 0.15353004E+02  0.58733E+04
 0.15403006E+02  0.58676E+04
 0.15453005E+02  0.58770E+04
 0.15503004E+02  0.58849E+04
 0.15553005E+02  0.58811E+04
 0.15603004E+02  0.58833E+04
 0.15653006E+02  0.58852E+04
 0.15703005E+02  0.58842E+04
 0.15753004E+02  0.58847E+04
 0.15803005E+02  0.58857E+04
 0.15853004E+02  0.58805E+04
 0.15903006E+02  0.58855E+04
 0.15953005E+02  0.58890E+04
 0.16003004E+02  0.58881E+04
 0.16053005E+02  0.58862E+04
 0.16103004E+02  0.58884E+04
 0.16153006E+02  0.58857E+04
 0.16203005E+02  0.58821E+04
 0.16253004E+02  0.58779E+04
 0.16303005E+02  0.58755E+04
 0.16353004E+02  0.58791E+04
 0.16403006E+02  0.58733E+04
 0.16453005E+02  0.58696E+04
 0.16503004E+02  0.58663E+04
 0.16553005E+02  0.58653E+04
 0.16603004E+02  0.58644E+04
 0.16653006E+02  0.58616E+04
 0.16703005E+02  0.58648E+04
 0.16753004E+02  0.58671E+04
 0.16803005E+02  0.58649E+04
 0.16853004E+02  0.58682E+04
 0.16903006E+02  0.58669E+04
 0.16953005E+02  0.58675E+04
 0.17003004E+02  0.58744E+04
 0.17053005E+02  0.58785E+04
 0.17103004E+02  0.58816E+04
 0.17153006E+02  0.58810E+04
 0.17203005E+02  0.58824E+04
 0.17253004E+02  0.58813E+04
 0.17303005E+02  0.58803E+04
 0.17353004E+02  0.58860E+04
 0.17403006E+02  0.58858E+04
 0.17453005E+02  0.58869E+04
 0.17503004E+02  0.58904E+04
 0.17553005E+02  0.58901E+04
 0.17603004E+02  0.58898E+04
 0.17653006E+02  0.58867E+04
 0.17703005E+02  0.58896E+04
 0.17753004E+02  0.58898E+04
 0.17803005E+02  0.58884E+04
 0.17853004E+02  0.58873E+04
 0.17903006E+02  0.58872E+04
 0.17953005E+02  0.58833E+04
 0.18003004E+02  0.58807E+04
 0.18053005E+02  0.58779E+04
 0.18103004E+02  0.58768E+04
 0.18153006E+02  0.58790E+04
 0.18203005E+02  0.58732E+04
 0.18253004E+02  0.58741E+04
 0.18303005E+02  0.58727E+04
 0.18353004E+02  0.58751E+04
 0.18403006E+02  0.58767E+04
 0.18453005E+02  0.58767E+04
 0.18503004E+02  0.58749E+04
 0.18553005E+02  0.58737E+04
 0.18603004E+02  0.58758E+04
 0.18653006E+02  0.58737E+04
 0.18703005E+02  0.58684E+04
 0.18753004E+02  0.58750E+04
 0.18803005E+02  0.58777E+04
 0.18853004E+02  0.58773E+04
 0.18903006E+02  0.58842E+04
 0.18953005E+02  0.58841E+04
 0.19003004E+02  0.58824E+04
 0.19053005E+02  0.58825E+04
 0.19103004E+02  0.58832E+04
 0.19153006E+02  0.58820E+04
 0.19203005E+02  0.58839E+04
 0.19253004E+02  0.58829E+04
 0.19303005E+02  0.58852E+04
 0.19353004E+02  0.58843E+04
 0.19403006E+02  0.58815E+04
 0.19453005E+02  0.58811E+04
 0.19503004E+02  0.58803E+04
 0.19553005E+02  0.58834E+04
 0.19603004E+02  0.58802E+04
 0.19653006E+02  0.58765E+04
 0.19703005E+02  0.58776E+04
 0.19753004E+02  0.58759E+04
 0.19803005E+02  0.58784E+04
 0.19853004E+02  0.58826E+04
 0.19903006E+02  0.58804E+04
 0.19953005E+02  0.58796E+04
 0.20003004E+02  0.58799E+04
 0.20053005E+02  0.58807E+04
 0.20103004E+02  0.58803E+04
 0.20153006E+02  0.58828E+04
 0.20203005E+02  0.58799E+04
 0.20253004E+02  0.58736E+04
 0.20303005E+02  0.58757E+04
 0.20353004E+02  0.58759E+04
 0.20403004E+02  0.58778E+04
 0.20453005E+02  0.58785E+04
 0.20503004E+02  0.58795E+04
 0.20553005E+02  0.58821E+04
 0.20603004E+02  0.58840E+04
 0.20653004E+02  0.58850E+04
 0.20703005E+02  0.58883E+04
 0.20753004E+02  0.58919E+04
 0.20803005E+02  0.58968E+04
 0.20853004E+02  0.58992E+04
 0.20903004E+02  0.58944E+04
 0.20953005E+02  0.58977E+04
 0.21003004E+02  0.58956E+04
 0.21053005E+02  0.58899E+04
 0.21103004E+02  0.58923E+04
 0.21153004E+02  0.58934E+04
 0.21203005E+02  0.58933E+04
 0.21253004E+02  0.58879E+04
 0.21303005E+02  0.58864E+04
 0.21353004E+02  0.58871E+04
 0.21403004E+02  0.58873E+04
 0.21453005E+02  0.58890E+04
 0.21503004E+02  0.58846E+04
 0.21553005E+02  0.58820E+04
 0.21603004E+02  0.58798E+04
 0.21653004E+02  0.58830E+04
 0.21703005E+02  0.58815E+04
 0.21753004E+02  0.58775E+04
 0.21803005E+02  0.58806E+04
 0.21853004E+02  0.58792E+04
 0.21903004E+02  0.58823E+04
 0.21953005E+02  0.58885E+04
 0.22003004E+02  0.58874E+04
 0.22053005E+02  0.58904E+04
 0.22103004E+02  0.58887E+04
 0.22153004E+02  0.58871E+04
 0.22203005E+02  0.58890E+04
 0.22253004E+02  0.58845E+04
 0.22303005E+02  0.58851E+04
 0.22353004E+02  0.58891E+04
 0.22403004E+02  0.58835E+04
 0.22453005E+02  0.58817E+04
 0.22503004E+02  0.58766E+04
 0.22553005E+02  0.58732E+04
 0.22603004E+02  0.58699E+04
 0.22653004E+02  0.58654E+04
 0.22703005E+02  0.58693E+04
 0.22753004E+02  0.58684E+04
 0.22803005E+02  0.58669E+04
 0.22853004E+02  0.58643E+04
 0.22903004E+02  0.58659E+04
 0.22953005E+02  0.58666E+04
 0.23003004E+02  0.58699E+04
 0.23053005E+02  0.58725E+04
 0.23103004E+02  0.58727E+04
 0.23153004E+02  0.58735E+04
 0.23203005E+02  0.58766E+04
 0.23253004E+02  0.58806E+04
 0.23303005E+02  0.58840E+04
 0.23353004E+02  0.58878E+04
 0.23403004E+02  0.58934E+04
 0.23453005E+02  0.58962E+04
 0.23503004E+02  0.59004E+04
 0.23553005E+02  0.59011E+04
 0.23603004E+02  0.58998E+04
 0.23653004E+02  0.58957E+04
 0.23703005E+02  0.58919E+04
 0.23753004E+02  0.58899E+04
 0.23803005E+02  0.58862E+04
 0.23853004E+02  0.58801E+04
 0.23903004E+02  0.58773E+04
 0.23953005E+02  0.58722E+04
 0.24003004E+02  0.58686E+04
 0.24053005E+02  0.58643E+04
 0.24103004E+02  0.58611E+04
 0.24153004E+02  0.58627E+04
 0.24203005E+02  0.58604E+04
 0.24253004E+02  0.58618E+04
 0.24303005E+02  0.58637E+04
 0.24353004E+02  0.58667E+04
 0.24403004E+02  0.58642E+04
 0.24453005E+02  0.58591E+04
 0.24503004E+02  0.58577E+04
 0.24553005E+02  0.58579E+04
 0.24603004E+02  0.58599E+04
 0.24653004E+02  0.58631E+04
 0.24703005E+02  0.58612E+04
 0.24753004E+02  0.58680E+04
 0.24803005E+02  0.58724E+04
 0.24853004E+02  0.58739E+04
 0.24903004E+02  0.58788E+04
 0.24953005E+02  0.58852E+04
 0.25003004E+02  0.58871E+04
 0.25053005E+02  0.58906E+04
 0.25103004E+02  0.58933E+04
 0.25153004E+02  0.58939E+04
 0.25203005E+02  0.58957E+04
 0.25253004E+02  0.58960E+04
 0.25303005E+02  0.58948E+04
 0.25353004E+02  0.58943E+04
 0.25403004E+02  0.58965E+04
 0.25453005E+02  0.58972E+04
 0.25503004E+02  0.58933E+04
 0.25553005E+02  0.58954E+04
 0.25603004E+02  0.58952E+04
 0.25653004E+02  0.58966E+04
 0.25703005E+02  0.58986E+04
 0.25753004E+02  0.58941E+04
 0.25803005E+02  0.58924E+04
 0.25853004E+02  0.58949E+04
 0.25903004E+02  0.58929E+04
 0.25953005E+02  0.58868E+04
 0.26003004E+02  0.58851E+04
 0.26053005E+02  0.58718E+04
 0.26103004E+02  0.58717E+04
 0.26153004E+02  0.58752E+04
 0.26203005E+02  0.58740E+04
 0.26253004E+02  0.58742E+04
 0.26303005E+02  0.58736E+04
 0.26353004E+02  0.58752E+04
 0.26403004E+02  0.58782E+04
 0.26453005E+02  0.58817E+04
 0.26503004E+02  0.58807E+04
 0.26553005E+02  0.58802E+04
 0.26603004E+02  0.58799E+04
 0.26653004E+02  0.58811E+04
 0.26703005E+02  0.58833E+04
 0.26753004E+02  0.58838E+04
 0.26803005E+02  0.58824E+04
 0.26853004E+02  0.58828E+04
 0.26903004E+02  0.58869E+04
 0.26953005E+02  0.58902E+04
 0.27003004E+02  0.58851E+04
 0.27053003E+02  0.58817E+04
 0.27103004E+02  0.58803E+04
 0.27153004E+02  0.58819E+04
 0.27203005E+02  0.58825E+04
 0.27253004E+02  0.58806E+04
 0.27303003E+02  0.58801E+04
 0.27353004E+02  0.58727E+04
 0.27403004E+02  0.58712E+04
 0.27453005E+02  0.58697E+04
 0.27503004E+02  0.58717E+04
 0.27553003E+02  0.58719E+04
 0.27603004E+02  0.58660E+04
 0.27653004E+02  0.58647E+04
 0.27703005E+02  0.58598E+04
 0.27753004E+02  0.58568E+04
 0.27803003E+02  0.58567E+04
 0.27853004E+02  0.58579E+04
 0.27903004E+02  0.58600E+04
 0.27953005E+02  0.58606E+04
 0.28003004E+02  0.58645E+04
 0.28053003E+02  0.58678E+04
 0.28103004E+02  0.58713E+04
 0.28153004E+02  0.58786E+04
 0.28203005E+02  0.58783E+04
 0.28253004E+02  0.58798E+04
 0.28303003E+02  0.58814E+04
 0.28353004E+02  0.58834E+04
 0.28403004E+02  0.58837E+04
 0.28453005E+02  0.58829E+04
 0.28503004E+02  0.58827E+04
 0.28553003E+02  0.58789E+04
 0.28603004E+02  0.58783E+04
 0.28653004E+02  0.58747E+04
 0.28703005E+02  0.58739E+04
 0.28753004E+02  0.58757E+04
 0.28803003E+02  0.58780E+04
 0.28853004E+02  0.58749E+04
 0.28903004E+02  0.58793E+04
 0.28953005E+02  0.58818E+04
 0.29003004E+02  0.58871E+04
 0.29053003E+02  0.58880E+04
 0.29103004E+02  0.58851E+04
 0.29153004E+02  0.58902E+04
 0.29203005E+02  0.58838E+04
 0.29253004E+02  0.58810E+04
 0.29303003E+02  0.58762E+04
 0.29353004E+02  0.58773E+04
 0.29403004E+02  0.58795E+04
 0.29453005E+02  0.58835E+04
 0.29503004E+02  0.58854E+04
 0.29553003E+02  0.58815E+04
 0.29603004E+02  0.58787E+04
 0.29653004E+02  0.58731E+04
 0.29703005E+02  0.58710E+04
 0.29753004E+02  0.58728E+04
 0.29803003E+02  0.58719E+04
 0.29853004E+02  0.58752E+04
 0.29903004E+02  0.58793E+04
 0.29953005E+02  0.58795E+04
 0.30003004E+02  0.58846E+04
 0.30053005E+02  0.58779E+04
 0.30103004E+02  0.58770E+04
 0.30153004E+02  0.58743E+04
 0.30203003E+02  0.58788E+04
 0.30253002E+02  0.58767E+04
 0.30303005E+02  0.58709E+04
 0.30353004E+02  0.58784E+04
 0.30403004E+02  0.58733E+04
 0.30453003E+02  0.58699E+04
 0.30503002E+02  0.58692E+04
 0.30553005E+02  0.58693E+04
 0.30603004E+02  0.58814E+04
 0.30653004E+02  0.58805E+04
 0.30703003E+02  0.58750E+04
 0.30753002E+02  0.58830E+04
 0.30803005E+02  0.58763E+04
 0.30853004E+02  0.58846E+04
 0.30903004E+02  0.58874E+04
 0.30953003E+02  0.58875E+04
 0.31003002E+02  0.58872E+04
 0.31053005E+02  0.58841E+04
 0.31103004E+02  0.58900E+04
 0.31153004E+02  0.58808E+04
 0.31203003E+02  0.58817E+04
 0.31253002E+02  0.58871E+04
 0.31303005E+02  0.58789E+04
 0.31353004E+02  0.58793E+04
 0.31403004E+02  0.58882E+04
 0.31453003E+02  0.58755E+04
 0.31503002E+02  0.58728E+04
 0.31553005E+02  0.58769E+04
 0.31603004E+02  0.58708E+04
 0.31653004E+02  0.58744E+04
 0.31703003E+02  0.58793E+04
 0.31753002E+02  0.58712E+04
 0.31803005E+02  0.58730E+04
 0.31853004E+02  0.58728E+04
 0.31903004E+02  0.58657E+04
 0.31953003E+02  0.58652E+04
 0.32003002E+02  0.58730E+04
 0.32053005E+02  0.58708E+04
 0.32103004E+02  0.58671E+04
 0.32153004E+02  0.58722E+04
 0.32203003E+02  0.58589E+04
 0.32253002E+02  0.58611E+04
 0.32303005E+02  0.58728E+04
 0.32353004E+02  0.58831E+04
 0.32403004E+02  0.58747E+04
 0.32453003E+02  0.58702E+04
 0.32503002E+02  0.58746E+04
 0.32553005E+02  0.58785E+04
 0.32603004E+02  0.58692E+04
 0.32653004E+02  0.58852E+04
 0.32703003E+02  0.58923E+04
 0.32753002E+02  0.58724E+04
 0.32803005E+02  0.59056E+04
 0.32853004E+02  0.58785E+04
 0.32903004E+02  0.58722E+04
 0.32953003E+02  0.58964E+04
 0.33003002E+02  0.58700E+04
 0.33053005E+02  0.58817E+04
 0.33103004E+02  0.58878E+04
 0.33153004E+02  0.58610E+04
 0.33203003E+02  0.58665E+04
 0.33253002E+02  0.58805E+04
 0.33303005E+02  0.58850E+04
 0.33353004E+02  0.58531E+04
 0.33403004E+02  0.58877E+04
 0.33453003E+02  0.58915E+04
 0.33503002E+02  0.58385E+04
 0.33553005E+02  0.58783E+04
 0.33603004E+02  0.58817E+04
 0.33653004E+02  0.58476E+04
 0.33703003E+02  0.58514E+04
 0.33753002E+02  0.58946E+04
 0.33803005E+02  0.58578E+04
 0.33853004E+02  0.58557E+04
 0.33903004E+02  0.58682E+04
 0.33953003E+02  0.58871E+04
 0.34003002E+02  0.58674E+04
 0.34053005E+02  0.58416E+04
 0.34103004E+02  0.58708E+04
 0.34153004E+02  0.58530E+04
 0.34203003E+02  0.58867E+04
 0.34253002E+02  0.58949E+04
 0.34303005E+02  0.58612E+04
 0.34353004E+02  0.58921E+04
 0.34403004E+02  0.58989E+04
 0.34453003E+02  0.58502E+04
 0.34503002E+02  0.58899E+04
 0.34553005E+02  0.58972E+04
 0.34603004E+02  0.58834E+04
 0.34653004E+02  0.58695E+04
 0.34703003E+02  0.59397E+04
 0.34753002E+02  0.58600E+04
 0.34803005E+02  0.58672E+04
 0.34853004E+02  0.59287E+04
 0.34903004E+02  0.58078E+04
 0.34953003E+02  0.59160E+04
 0.35003002E+02  0.58376E+04
 0.35053005E+02  0.59199E+04
 0.35103004E+02  0.59110E+04
 0.35153004E+02  0.58145E+04
 0.35203003E+02  0.59284E+04
 0.35253002E+02  0.58310E+04
 0.35303005E+02  0.59663E+04
 0.35353004E+02  0.58417E+04
 0.35403004E+02  0.58236E+04
 0.35453003E+02  0.59816E+04
 0.35503002E+02  0.57467E+04
 0.35553005E+02  0.58926E+04
 0.35603004E+02  0.58660E+04
 0.35653004E+02  0.59024E+04
 0.35703003E+02  0.59427E+04
 0.35753002E+02  0.57964E+04
 0.35803005E+02  0.59923E+04
 0.35853004E+02  0.59489E+04
 0.35903004E+02  0.59397E+04
 0.35953003E+02  0.58026E+04
 0.36003002E+02  0.57952E+04
 0.36053005E+02  0.59442E+04
 0.36103004E+02  0.58496E+04
 0.36153004E+02  0.58308E+04
 0.36203003E+02  0.58565E+04
 0.36253002E+02  0.59239E+04
 0.36303005E+02  0.58858E+04
 0.36353004E+02  0.57568E+04
 0.36403004E+02  0.60271E+04
 0.36453003E+02  0.57848E+04
 0.36503002E+02  0.58993E+04
 0.36553005E+02  0.60190E+04
 0.36603004E+02  0.57746E+04
 0.36653004E+02  0.58727E+04
 0.36703003E+02  0.57422E+04
 0.36753002E+02  0.61196E+04
 0.36803005E+02  0.59448E+04
 0.36853004E+02  0.57809E+04
 0.36903004E+02  0.58323E+04
 0.36953003E+02  0.60155E+04
 0.37003002E+02  0.60073E+04
 0.37053005E+02  0.58220E+04
 0.37103004E+02  0.56669E+04
 0.37153004E+02  0.60076E+04
 0.37203003E+02  0.60067E+04
 0.37253002E+02  0.58830E+04
 0.37303005E+02  0.60706E+04
 0.37353004E+02  0.55106E+04
 0.37403004E+02  0.60158E+04
 0.37453003E+02  0.57852E+04
 0.37503002E+02  0.55863E+04
 0.37553005E+02  0.62032E+04
 0.37603004E+02  0.59537E+04
 0.37653004E+02  0.59362E+04
 0.37703003E+02  0.58077E+04
 0.37753002E+02  0.55669E+04
 0.37803005E+02  0.58438E+04
 0.37853004E+02  0.58976E+04
 0.37903004E+02  0.60358E+04
 0.37953003E+02  0.59326E+04
 0.38003002E+02  0.59632E+04
 0.38053005E+02  0.59325E+04
 0.38103004E+02  0.57294E+04
 0.38153004E+02  0.59647E+04
 0.38203003E+02  0.58654E+04
 0.38253002E+02  0.59128E+04
 0.38303005E+02  0.60503E+04
 0.38353004E+02  0.58352E+04
 0.38403004E+02  0.57788E+04
 0.38453003E+02  0.59159E+04
 0.38503002E+02  0.58507E+04
 0.38553005E+02  0.58092E+04
 0.38603004E+02  0.60227E+04
 0.38653004E+02  0.56680E+04
 0.38703003E+02  0.58665E+04
 0.38753002E+02  0.61932E+04
 0.38803005E+02  0.56531E+04
 0.38853004E+02  0.62616E+04
 0.38903004E+02  0.57451E+04
 0.38953003E+02  0.55758E+04
 0.39003002E+02  0.64459E+04
 0.39053005E+02  0.56806E+04
 0.39103004E+02  0.49849E+04
 0.39153004E+02  0.59193E+04
 0.39203003E+02  0.60213E+04
 0.39253002E+02  0.55843E+04
 0.39303005E+02  0.61408E+04
 0.39353004E+02  0.59829E+04
 0.39403004E+02  0.55938E+04
 0.39453003E+02  0.62912E+04
 0.39503002E+02  0.62371E+04
 0.39553005E+02  0.59264E+04
 0.39603004E+02  0.60665E+04
 0.39653004E+02  0.55981E+04
 0.39703003E+02  0.57256E+04
 0.39753002E+02  0.54609E+04
 0.39803005E+02  0.60326E+04
 0.39853004E+02  0.60733E+04
 0.39903004E+02  0.57863E+04
 0.39953003E+02  0.62325E+04
 0.40003002E+02  0.60606E+04
 0.40053005E+02  0.59075E+04
 0.40103004E+02  0.56229E+04
 0.40153004E+02  0.61133E+04
 0.40203003E+02  0.59942E+04
 0.40253002E+02  0.55857E+04
 0.40303005E+02  0.59790E+04
 0.40353004E+02  0.57076E+04
 0.40403004E+02  0.54000E+04
 0.40453003E+02  0.60518E+04
 0.40503002E+02  0.62272E+04
 0.40553005E+02  0.59288E+04
 0.40603004E+02  0.55672E+04
 0.40653004E+02  0.53891E+04
 0.40703003E+02  0.64006E+04
 0.40753002E+02  0.57712E+04
 0.40803005E+02  0.56363E+04
 0.40853004E+02  0.59709E+04
 0.40903004E+02  0.61063E+04
 0.40953003E+02  0.61107E+04
 0.41003002E+02  0.57919E+04
 0.41053005E+02  0.59652E+04
 0.41103004E+02  0.57798E+04
 0.41153004E+02  0.58767E+04
 0.41203003E+02  0.62759E+04
 0.41253002E+02  0.63214E+04
 0.41303005E+02  0.58566E+04
 0.41353004E+02  0.64961E+04
 0.41403004E+02  0.56101E+04
 0.41453003E+02  0.52368E+04
 0.41503002E+02  0.56987E+04
 0.41553005E+02  0.54918E+04
 0.41603004E+02  0.55808E+04
 0.41653004E+02  0.54743E+04
 0.41703003E+02  0.57260E+04
 0.41753002E+02  0.55542E+04
 0.41803005E+02  0.56655E+04
 0.41853004E+02  0.62116E+04
 0.41903004E+02  0.66133E+04
 0.41953003E+02  0.59452E+04
 0.42003002E+02  0.58662E+04
 0.42053005E+02  0.60924E+04
 0.42103004E+02  0.57020E+04
 0.42153004E+02  0.60543E+04
 0.42203003E+02  0.61173E+04
 0.42253002E+02  0.62743E+04
 0.42303005E+02  0.58332E+04
 0.42353004E+02  0.57773E+04
 0.42403004E+02  0.57645E+04
 0.42453003E+02  0.54851E+04
 0.42503002E+02  0.54037E+04
 0.42553005E+02  0.57020E+04
 0.42603004E+02  0.60452E+04
 0.42653004E+02  0.59291E+04
 0.42703003E+02  0.61109E+04
 0.42753002E+02  0.58736E+04
 0.42803001E+02  0.58100E+04
 0.42853004E+02  0.58665E+04
 0.42903004E+02  0.59093E+04
 0.42953003E+02  0.67273E+04
 0.43003002E+02  0.65180E+04
 0.43053001E+02  0.56029E+04
 0.43103004E+02  0.57647E+04
 0.43153004E+02  0.53759E+04
 0.43203003E+02  0.52205E+04
 0.43253002E+02  0.57015E+04
 0.43303001E+02  0.65935E+04
 0.43353004E+02  0.60493E+04
 0.43403004E+02  0.56541E+04
 0.43453003E+02  0.64084E+04
 0.43503002E+02  0.60018E+04
 0.43553001E+02  0.56067E+04
 0.43603004E+02  0.55055E+04
 0.43653004E+02  0.58820E+04
 0.43703003E+02  0.56994E+04
 0.43753002E+02  0.53845E+04
 0.43803001E+02  0.59622E+04
 0.43853004E+02  0.64934E+04
 0.43903004E+02  0.64972E+04
 0.43953003E+02  0.60017E+04
 0.44003002E+02  0.55809E+04
 0.44053001E+02  0.61682E+04
 0.44103004E+02  0.60619E+04
 0.44153004E+02  0.58947E+04
 0.44203003E+02  0.60820E+04
 0.44253002E+02  0.52854E+04
 0.44303001E+02  0.59624E+04
 0.44353004E+02  0.64280E+04
 0.44403004E+02  0.58845E+04
 0.44453003E+02  0.58561E+04
 0.44503002E+02  0.54884E+04
 0.44553001E+02  0.57771E+04
 0.44603004E+02  0.54771E+04
 0.44653004E+02  0.52927E+04
 0.44703003E+02  0.59956E+04
 0.44753002E+02  0.54954E+04
 0.44803001E+02  0.53677E+04
 0.44853004E+02  0.59842E+04
 0.44903004E+02  0.64578E+04
 0.44953003E+02  0.59782E+04
 0.45003002E+02  0.54073E+04
 0.45053001E+02  0.59713E+04
 0.45103004E+02  0.59468E+04
 0.45153004E+02  0.55637E+04
 0.45203003E+02  0.63345E+04
 0.45253002E+02  0.68055E+04
 0.45303001E+02  0.58251E+04
 0.45353004E+02  0.57745E+04
 0.45403004E+02  0.67751E+04
 0.45453003E+02  0.63686E+04
 0.45503002E+02  0.52040E+04
 0.45553001E+02  0.54102E+04
 0.45603004E+02  0.62402E+04
 0.45653004E+02  0.56412E+04
 0.45703003E+02  0.57684E+04
 0.45753002E+02  0.60172E+04
 0.45803001E+02  0.59039E+04
 0.45853004E+02  0.60359E+04
 0.45903004E+02  0.56529E+04
 0.45953003E+02  0.54231E+04
 0.46003002E+02  0.54247E+04
 0.46053001E+02  0.57174E+04
 0.46103004E+02  0.58648E+04
 0.46153004E+02  0.57625E+04
 0.46203003E+02  0.56108E+04
 0.46253002E+02  0.60740E+04
 0.46303001E+02  0.60391E+04
 0.46353004E+02  0.59655E+04
 0.46403004E+02  0.62226E+04
 0.46453003E+02  0.60259E+04
 0.46503002E+02  0.58930E+04
 0.46553001E+02  0.60196E+04
 0.46603004E+02  0.58303E+04
 0.46653004E+02  0.59567E+04
 0.46703003E+02  0.61091E+04
 0.46753002E+02  0.58159E+04
 0.46803001E+02  0.56467E+04
 0.46853004E+02  0.56186E+04
 0.46903004E+02  0.56371E+04
 0.46953003E+02  0.56589E+04
 0.47003002E+02  0.61623E+04
 0.47053001E+02  0.63837E+04
 0.47103004E+02  0.60650E+04
 0.47153004E+02  0.61747E+04
 0.47203003E+02  0.62540E+04
 0.47253002E+02  0.60459E+04
 0.47303001E+02  0.55545E+04
 0.47353004E+02  0.53633E+04
 0.47403004E+02  0.57839E+04
 0.47453003E+02  0.55721E+04
 0.47503002E+02  0.57468E+04
 0.47553001E+02  0.57123E+04
 0.47603004E+02  0.61486E+04
 0.47653004E+02  0.63023E+04
 0.47703003E+02  0.55432E+04
 0.47753002E+02  0.56910E+04
 0.47803001E+02  0.56749E+04
 0.47853004E+02  0.57995E+04
 0.47903004E+02  0.57621E+04
 0.47953003E+02  0.59058E+04
 0.48003002E+02  0.62508E+04
 0.48053001E+02  0.56904E+04
 0.48103004E+02  0.58235E+04
 0.48153004E+02  0.59387E+04
 0.48203003E+02  0.61163E+04
 0.48253002E+02  0.63456E+04
 0.48303001E+02  0.57938E+04
 0.48353004E+02  0.59193E+04
 0.48403004E+02  0.59594E+04
 0.48453003E+02  0.58612E+04
 0.48503002E+02  0.56871E+04
 0.48553001E+02  0.56522E+04
 0.48603004E+02  0.61137E+04
 0.48653004E+02  0.58733E+04
 0.48703003E+02  0.58067E+04
 0.48753002E+02  0.59249E+04
 0.48803001E+02  0.57372E+04
 0.48853004E+02  0.57287E+04
 0.48903004E+02  0.59492E+04
 0.48953003E+02  0.61689E+04
 0.49003002E+02  0.58090E+04
 0.49053001E+02  0.57476E+04
 0.49103004E+02  0.62613E+04
 0.49153004E+02  0.62353E+04
 0.49203003E+02  0.56856E+04
 0.49253002E+02  0.56431E+04
 0.49303001E+02  0.57329E+04
 0.49353004E+02  0.53958E+04
 0.49403004E+02  0.58575E+04
 0.49453003E+02  0.62323E+04
 0.49503002E+02  0.58209E+04
 0.49553001E+02  0.60591E+04
 0.49603004E+02  0.57941E+04
 0.49653004E+02  0.56657E+04
 0.49703003E+02  0.59740E+04
 0.49753002E+02  0.61069E+04
 0.49803001E+02  0.60336E+04
 0.49853004E+02  0.54886E+04
 0.49903004E+02  0.58038E+04
 0.49953003E+02  0.60338E+04
 0.50003002E+02  0.58451E+04
 0.50053001E+02  0.59689E+04
 0.50103004E+02  0.60098E+04
 0.50153004E+02  0.58661E+04
 0.50203003E+02  0.56134E+04
 0.50253002E+02  0.56904E+04
 0.50303001E+02  0.58279E+04
 0.50353004E+02  0.60842E+04
 0.50403004E+02  0.62197E+04
 0.50453003E+02  0.60113E+04
 0.50503002E+02  0.59829E+04
 0.50553001E+02  0.58585E+04
 0.50603004E+02  0.59091E+04
 0.50653004E+02  0.60097E+04
 0.50703003E+02  0.61201E+04
 0.50753002E+02  0.59250E+04
 0.50803001E+02  0.57214E+04
 0.50853004E+02  0.60288E+04
 0.50903004E+02  0.59209E+04
 0.50953003E+02  0.56713E+04
 0.51003002E+02  0.57139E+04
 0.51053001E+02  0.57332E+04
 0.51103004E+02  0.55274E+04
 0.51153004E+02  0.56987E+04
 0.51203003E+02  0.58637E+04
 0.51253002E+02  0.55936E+04
 0.51303001E+02  0.60358E+04
 0.51353004E+02  0.60202E+04
 0.51403004E+02  0.60056E+04
 0.51453003E+02  0.65491E+04
 0.51503002E+02  0.63204E+04
 0.51553001E+02  0.62072E+04
 0.51603004E+02  0.60180E+04
 0.51653004E+02  0.53396E+04
 0.51703003E+02  0.53964E+04
 0.51753002E+02  0.58857E+04
 0.51803001E+02  0.58416E+04
 0.51853004E+02  0.60550E+04
 0.51903004E+02  0.59057E+04
 0.51953003E+02  0.57356E+04
 0.52003002E+02  0.58180E+04
 0.52053001E+02  0.59574E+04
 0.52103004E+02  0.59709E+04
 0.52153004E+02  0.57740E+04
 0.52203003E+02  0.58640E+04
 0.52253002E+02  0.55286E+04
 0.52303001E+02  0.58885E+04
 0.52353004E+02  0.58126E+04
 0.52403004E+02  0.55590E+04
 0.52453003E+02  0.61864E+04
 0.52503002E+02  0.61943E+04
 0.52553001E+02  0.59017E+04
 0.52603004E+02  0.61776E+04
 0.52653004E+02  0.61847E+04
 0.52703003E+02  0.56334E+04
 0.52753002E+02  0.57427E+04
 0.52803001E+02  0.62332E+04
 0.52853004E+02  0.61669E+04
 0.52903004E+02  0.55982E+04
 0.52953003E+02  0.55977E+04
 0.53003002E+02  0.58264E+04
 0.53053001E+02  0.56719E+04
 0.53103004E+02  0.57515E+04
 0.53153004E+02  0.60482E+04
 0.53203003E+02  0.59755E+04
 0.53253002E+02  0.58602E+04
 0.53303001E+02  0.61352E+04
 0.53353004E+02  0.61579E+04
 0.53403004E+02  0.57273E+04
 0.53453003E+02  0.53284E+04
 0.53503002E+02  0.60544E+04
 0.53553001E+02  0.60865E+04
 0.53603004E+02  0.52843E+04
 0.53653004E+02  0.57810E+04
 0.53703003E+02  0.61231E+04
 0.53753002E+02  0.56807E+04
 0.53803001E+02  0.54175E+04
 0.53853004E+02  0.58221E+04
 0.53903004E+02  0.58034E+04
 0.53953003E+02  0.59060E+04
 0.54003002E+02  0.62266E+04
 0.54053001E+02  0.59664E+04
 0.54103004E+02  0.59501E+04
 0.54153004E+02  0.61214E+04
 0.54203003E+02  0.63433E+04
 0.54253002E+02  0.61102E+04
 0.54303001E+02  0.59725E+04
 0.54353004E+02  0.59131E+04
 0.54403004E+02  0.57008E+04
 0.54453003E+02  0.57767E+04
 0.54503002E+02  0.58016E+04
 0.54553001E+02  0.57796E+04
 0.54603004E+02  0.53809E+04
 0.54653004E+02  0.54014E+04
 0.54703003E+02  0.57078E+04
 0.54753002E+02  0.60723E+04
 0.54803001E+02  0.59653E+04
 0.54853004E+02  0.57881E+04
 0.54903004E+02  0.63946E+04
 0.54953003E+02  0.61684E+04
 0.55003002E+02  0.58353E+04
 0.55053001E+02  0.60714E+04
 0.55103004E+02  0.60088E+04
 0.55153004E+02  0.56722E+04
 0.55203003E+02  0.57737E+04
 0.55253002E+02  0.57746E+04
 0.55303001E+02  0.57672E+04
 0.55353004E+02  0.59952E+04
 0.55403004E+02  0.58238E+04
 0.55453003E+02  0.57004E+04
 0.55503002E+02  0.57488E+04
 0.55553001E+02  0.58832E+04
 0.55603004E+02  0.59585E+04
 0.55653004E+02  0.57102E+04
 0.55703003E+02  0.60571E+04
 0.55753002E+02  0.63631E+04
 0.55803001E+02  0.63225E+04
 0.55853001E+02  0.61131E+04
 0.55903004E+02  0.55511E+04
 0.55953003E+02  0.58182E+04
 0.56003002E+02  0.61181E+04
 0.56053001E+02  0.60937E+04
 0.56103001E+02  0.55447E+04
 0.56153004E+02  0.56380E+04
 0.56203003E+02  0.59824E+04
 0.56253002E+02  0.58269E+04
 0.56303001E+02  0.58729E+04
 0.56353001E+02  0.55204E+04
 0.56403004E+02  0.57052E+04
 0.56453003E+02  0.58518E+04
 0.56503002E+02  0.58468E+04
 0.56553001E+02  0.55314E+04
 0.56603001E+02  0.56199E+04
 0.56653004E+02  0.60980E+04
 0.56703003E+02  0.57241E+04
 0.56753002E+02  0.57870E+04
 0.56803001E+02  0.59546E+04
 0.56853001E+02  0.59476E+04
 0.56903004E+02  0.58180E+04
 0.56953003E+02  0.57191E+04
 0.57003002E+02  0.60136E+04
 0.57053001E+02  0.58865E+04
 0.57103001E+02  0.60026E+04
 0.57153004E+02  0.61519E+04
 0.57203003E+02  0.57875E+04
 0.57253002E+02  0.58066E+04
 0.57303001E+02  0.60028E+04
 0.57353001E+02  0.58348E+04
 0.57403004E+02  0.56388E+04
 0.57453003E+02  0.61717E+04
 0.57503002E+02  0.60716E+04
 0.57553001E+02  0.57305E+04
 0.57603001E+02  0.58698E+04
 0.57653004E+02  0.58913E+04
 0.57703003E+02  0.59037E+04
 0.57753002E+02  0.57534E+04
 0.57803001E+02  0.57585E+04
 0.57853001E+02  0.57981E+04
 0.57903004E+02  0.58637E+04
 0.57953003E+02  0.57968E+04
 0.58003002E+02  0.58730E+04
 0.58053001E+02  0.59992E+04
 0.58103001E+02  0.57207E+04
 0.58153004E+02  0.56576E+04
 0.58203003E+02  0.59043E+04
 0.58253002E+02  0.58918E+04
 0.58303001E+02  0.59680E+04
 0.58353001E+02  0.58641E+04
 0.58403004E+02  0.55629E+04
 0.58453003E+02  0.56194E+04
 0.58503002E+02  0.57262E+04
 0.58553001E+02  0.58012E+04
 0.58603001E+02  0.63092E+04
 0.58653004E+02  0.62874E+04
 0.58703003E+02  0.58932E+04
 0.58753002E+02  0.62540E+04
 0.58803001E+02  0.62291E+04
 0.58853001E+02  0.57775E+04
 0.58903004E+02  0.56889E+04
 0.58953003E+02  0.61280E+04
 0.59003002E+02  0.59480E+04
 0.59053001E+02  0.55158E+04
 0.59103001E+02  0.53338E+04
 0.59153004E+02  0.57209E+04
 0.59203003E+02  0.61750E+04
 0.59253002E+02  0.61799E+04
 0.59303001E+02  0.60206E+04
 0.59353001E+02  0.58179E+04
 0.59403004E+02  0.61780E+04
 0.59453003E+02  0.61100E+04
 0.59503002E+02  0.58221E+04
 0.59553001E+02  0.56600E+04
 0.59603001E+02  0.55848E+04
 0.59653004E+02  0.60807E+04
 0.59703003E+02  0.62200E+04
 0.59753002E+02  0.58112E+04
 0.59803001E+02  0.60054E+04
 0.59853001E+02  0.59670E+04
 0.59903004E+02  0.56422E+04
 0.59953003E+02  0.59737E+04
 0.60003002E+02  0.61719E+04
 0.60053001E+02  0.59093E+04
 0.60103001E+02  0.62746E+04
 0.60153004E+02  0.67970E+04
 0.60203003E+02  0.63635E+04
 0.60253002E+02  0.60207E+04
 0.60303001E+02  0.65593E+04
 0.60353001E+02  0.65708E+04
 0.60403004E+02  0.62609E+04
 0.60453003E+02  0.60935E+04
 0.60503002E+02  0.58871E+04
 0.60553001E+02  0.56727E+04
 0.60603001E+02  0.53660E+04
 0.60653004E+02  0.55799E+04
 0.60703003E+02  0.54691E+04
 0.60753002E+02  0.52794E+04
 0.60803001E+02  0.55778E+04
 0.60853001E+02  0.60762E+04
 0.60903004E+02  0.62401E+04
 0.60953003E+02  0.55675E+04
 0.61003002E+02  0.52625E+04
 0.61053001E+02  0.58987E+04
 0.61103001E+02  0.66541E+04
 0.61153004E+02  0.64165E+04
 0.61203003E+02  0.57369E+04
 0.61253002E+02  0.54135E+04
 0.61303001E+02  0.53338E+04
 0.61353001E+02  0.58157E+04
 0.61403004E+02  0.55513E+04
 0.61453003E+02  0.56363E+04
 0.61503002E+02  0.61872E+04
 0.61553001E+02  0.65669E+04
 0.61603001E+02  0.66497E+04
 0.61653004E+02  0.60945E+04
 0.61703003E+02  0.58307E+04
 0.61753002E+02  0.56580E+04
 0.61803001E+02  0.58338E+04
 0.61853001E+02  0.54572E+04
 0.61903004E+02  0.52143E+04
 0.61953003E+02  0.56473E+04
 0.62003002E+02  0.61153E+04
 0.62053001E+02  0.61165E+04
 0.62103004E+02  0.60732E+04
 0.62153000E+02  0.60214E+04
 0.62203003E+02  0.58108E+04
 0.62252998E+02  0.54620E+04
 0.62303001E+02  0.55488E+04
 0.62353004E+02  0.58533E+04
 0.62403000E+02  0.57019E+04
 0.62453003E+02  0.55800E+04
 0.62502998E+02  0.56326E+04
 0.62553001E+02  0.61722E+04
 0.62603004E+02  0.58059E+04
 0.62653000E+02  0.50940E+04
 0.62703003E+02  0.52254E+04
 0.62752998E+02  0.56450E+04
 0.62803001E+02  0.55987E+04
 0.62853004E+02  0.55104E+04
 0.62903000E+02  0.61281E+04
 0.62953003E+02  0.64055E+04
 0.63002998E+02  0.61008E+04
 0.63053001E+02  0.55183E+04
 0.63103004E+02  0.55751E+04
 0.63153000E+02  0.60142E+04
 0.63203003E+02  0.59773E+04
 0.63252998E+02  0.64585E+04
 0.63303001E+02  0.67006E+04
 0.63353004E+02  0.65151E+04
 0.63403000E+02  0.59860E+04
 0.63453003E+02  0.56758E+04
 0.63502998E+02  0.55934E+04
 0.63553001E+02  0.55899E+04
 0.63603004E+02  0.57316E+04
 0.63653000E+02  0.55911E+04
 0.63703003E+02  0.60724E+04
 0.63752998E+02  0.63087E+04
 0.63803001E+02  0.56518E+04
 0.63853004E+02  0.58582E+04
 0.63903000E+02  0.65326E+04
 0.63953003E+02  0.59976E+04
 0.64002998E+02  0.53297E+04
 0.64053001E+02  0.53141E+04
 0.64103004E+02  0.52257E+04
 0.64153000E+02  0.55934E+04
 0.64203003E+02  0.61637E+04
 0.64252998E+02  0.62563E+04
 0.64303001E+02  0.62519E+04
 0.64353004E+02  0.61617E+04
 0.64403000E+02  0.60972E+04
 0.64453003E+02  0.60148E+04
 0.64502998E+02  0.64085E+04
 0.64553001E+02  0.67878E+04
 0.64603004E+02  0.67412E+04
 0.64653000E+02  0.63248E+04
 0.64703003E+02  0.58229E+04
 0.64752998E+02  0.51549E+04
 0.64803001E+02  0.51272E+04
 0.64853004E+02  0.57881E+04
 0.64903000E+02  0.61653E+04
 0.64953003E+02  0.65042E+04
 0.65002998E+02  0.63963E+04
 0.65053001E+02  0.60987E+04
 0.65103004E+02  0.54053E+04
 0.65153000E+02  0.52735E+04
 0.65203003E+02  0.55017E+04
 0.65252998E+02  0.55445E+04
 0.65303001E+02  0.63372E+04
 0.65353004E+02  0.64960E+04
 0.65403000E+02  0.56233E+04
 0.65453003E+02  0.48305E+04
 0.65502998E+02  0.46538E+04
 0.65553001E+02  0.56401E+04
 0.65603004E+02  0.68232E+04
 0.65653000E+02  0.69689E+04
 0.65703003E+02  0.65064E+04
 0.65752998E+02  0.61350E+04
 0.65803001E+02  0.57532E+04
 0.65853004E+02  0.55835E+04
 0.65903000E+02  0.56142E+04
 0.65953003E+02  0.55491E+04
 0.66002998E+02  0.58771E+04
 0.66053001E+02  0.60021E+04
 0.66103004E+02  0.56648E+04
 0.66153000E+02  0.56623E+04
 0.66203003E+02  0.60792E+04
 0.66252998E+02  0.59972E+04
 0.66303001E+02  0.52032E+04
 0.66353004E+02  0.45086E+04
 0.66403000E+02  0.45134E+04
 0.66453003E+02  0.48904E+04
 0.66502998E+02  0.53348E+04
 0.66553001E+02  0.55801E+04
 0.66603004E+02  0.56733E+04
 0.66653000E+02  0.58625E+04
 0.66703003E+02  0.62950E+04
 0.66752998E+02  0.62444E+04
 0.66803001E+02  0.54869E+04
 0.66853004E+02  0.55102E+04
 0.66903000E+02  0.59372E+04
 0.66953003E+02  0.61761E+04
 0.67002998E+02  0.63521E+04
 0.67053001E+02  0.64189E+04
 0.67103004E+02  0.58710E+04
 0.67153000E+02  0.52096E+04
 0.67203003E+02  0.55082E+04
 0.67252998E+02  0.61384E+04
 0.67303001E+02  0.61626E+04
 0.67353004E+02  0.58821E+04
 0.67403000E+02  0.60822E+04
 0.67453003E+02  0.60699E+04
 0.67502998E+02  0.56236E+04
 0.67553001E+02  0.52094E+04
 0.67603004E+02  0.54832E+04
 0.67653000E+02  0.61083E+04
 0.67703003E+02  0.65284E+04
 0.67752998E+02  0.70060E+04
 0.67803001E+02  0.72990E+04
 0.67853004E+02  0.74939E+04
 0.67903000E+02  0.73995E+04
 0.67953003E+02  0.68418E+04
 0.68002998E+02  0.60268E+04
 0.68053001E+02  0.56319E+04
 0.68103004E+02  0.58545E+04
 0.68153000E+02  0.58759E+04
 0.68203003E+02  0.57530E+04
 0.68252998E+02  0.56019E+04
 0.68303001E+02  0.52626E+04
 0.68353004E+02  0.53122E+04
 0.68403000E+02  0.58315E+04
 0.68453003E+02  0.62363E+04
 0.68502998E+02  0.60584E+04
 0.68553001E+02  0.57369E+04
 0.68603004E+02  0.51878E+04
 0.68653000E+02  0.52126E+04
 0.68703003E+02  0.61237E+04
 0.68752998E+02  0.67019E+04
 0.68803001E+02  0.64431E+04
 0.68853004E+02  0.60921E+04
 0.68903000E+02  0.61246E+04
 0.68953003E+02  0.59133E+04
 0.69002998E+02  0.57720E+04
 0.69053001E+02  0.56073E+04
 0.69103004E+02  0.57089E+04
 0.69153000E+02  0.57156E+04
 0.69203003E+02  0.55423E+04
 0.69252998E+02  0.56152E+04
 0.69303001E+02  0.57954E+04
 0.69353004E+02  0.62351E+04
 0.69403000E+02  0.67578E+04
 0.69453003E+02  0.69886E+04
 0.69502998E+02  0.67907E+04
 0.69553001E+02  0.64565E+04
 0.69603004E+02  0.61768E+04
 0.69653000E+02  0.57135E+04
 0.69703003E+02  0.51920E+04
 0.69752998E+02  0.55707E+04
 0.69803001E+02  0.65110E+04
 0.69853004E+02  0.68764E+04
 0.69903000E+02  0.62119E+04
 0.69953003E+02  0.55603E+04
 0.70002998E+02  0.56078E+04
 0.70053001E+02  0.58682E+04
 0.70103004E+02  0.58690E+04
 0.70153000E+02  0.56731E+04
 0.70203003E+02  0.55714E+04
 0.70252998E+02  0.52793E+04
 0.70303001E+02  0.50396E+04
 0.70353004E+02  0.52236E+04
 0.70403000E+02  0.53991E+04
 0.70453003E+02  0.52588E+04
 0.70502998E+02  0.52701E+04
 0.70553001E+02  0.53724E+04
 0.70603004E+02  0.51227E+04
 0.70653000E+02  0.51783E+04
 0.70703003E+02  0.57644E+04
 0.70752998E+02  0.61203E+04
 0.70803001E+02  0.63375E+04
 0.70853004E+02  0.64570E+04
 0.70903000E+02  0.63532E+04
 0.70953003E+02  0.62756E+04
 0.71002998E+02  0.63660E+04
 0.71053001E+02  0.61295E+04
 0.71103004E+02  0.55066E+04
 0.71153000E+02  0.53001E+04
 0.71203003E+02  0.54399E+04
 0.71252998E+02  0.53151E+04
 0.71303001E+02  0.51743E+04
 0.71353004E+02  0.53870E+04
 0.71403000E+02  0.56096E+04
 0.71453003E+02  0.56761E+04
 0.71502998E+02  0.57167E+04
 0.71553001E+02  0.56437E+04
 0.71603004E+02  0.55895E+04
 0.71653000E+02  0.56840E+04
 0.71703003E+02  0.57609E+04
 0.71752998E+02  0.62876E+04
 0.71803001E+02  0.67385E+04
 0.71853004E+02  0.65382E+04
 0.71903000E+02  0.65385E+04
 0.71953003E+02  0.66287E+04
 0.72002998E+02  0.62451E+04
 0.72053001E+02  0.61517E+04
 0.72103004E+02  0.67349E+04
 0.72153000E+02  0.69626E+04
 0.72203003E+02  0.66518E+04
 0.72252998E+02  0.64591E+04
 0.72303001E+02  0.62518E+04
 0.72353004E+02  0.58751E+04
 0.72403000E+02  0.58258E+04
 0.72453003E+02  0.57742E+04
 0.72502998E+02  0.53204E+04
 0.72553001E+02  0.51681E+04
 0.72603004E+02  0.49964E+04
 0.72653000E+02  0.47788E+04
 0.72703003E+02  0.48919E+04
 0.72752998E+02  0.51689E+04
 0.72803001E+02  0.53467E+04
 0.72853004E+02  0.51657E+04
 0.72903000E+02  0.52521E+04
 0.72953003E+02  0.55526E+04
 0.73002998E+02  0.55144E+04
 0.73053001E+02  0.51668E+04
 0.73103004E+02  0.53126E+04
 0.73153000E+02  0.56152E+04
 0.73203003E+02  0.57057E+04
 0.73252998E+02  0.60365E+04
 0.73303001E+02  0.64576E+04
 0.73353004E+02  0.66220E+04
 0.73403000E+02  0.66041E+04
 0.73453003E+02  0.67208E+04
 0.73502998E+02  0.65890E+04
 0.73553001E+02  0.63880E+04
 0.73603004E+02  0.62560E+04
 0.73653000E+02  0.61498E+04
 0.73703003E+02  0.58153E+04
 0.73752998E+02  0.55847E+04
 0.73803001E+02  0.56902E+04
 0.73853004E+02  0.57067E+04
 0.73903000E+02  0.57037E+04
 0.73953003E+02  0.54870E+04
 0.74002998E+02  0.52953E+04
 0.74053001E+02  0.51612E+04
 0.74103004E+02  0.52601E+04
 0.74153000E+02  0.55004E+04
 0.74203003E+02  0.56420E+04
 0.74252998E+02  0.58326E+04
 0.74303001E+02  0.58262E+04
 0.74353004E+02  0.58349E+04
 0.74403000E+02  0.58432E+04
 0.74453003E+02  0.58201E+04
 0.74502998E+02  0.61893E+04
 0.74553001E+02  0.65491E+04
 0.74603004E+02  0.63282E+04
 0.74653000E+02  0.60245E+04
 0.74703003E+02  0.60308E+04
 0.74752998E+02  0.62369E+04
 0.74803001E+02  0.63048E+04
 0.74853004E+02  0.61261E+04
 0.74903000E+02  0.59651E+04
 0.74953003E+02  0.60934E+04
 0.75002998E+02  0.63564E+04
 0.75053001E+02  0.61806E+04
 0.75103004E+02  0.57564E+04
 0.75153000E+02  0.54650E+04
 0.75203003E+02  0.54500E+04
 0.75252998E+02  0.55647E+04
 0.75303001E+02  0.57675E+04
 0.75353004E+02  0.58634E+04
 0.75403000E+02  0.57000E+04
 0.75453003E+02  0.56045E+04
 0.75502998E+02  0.54929E+04
 0.75553001E+02  0.55457E+04
 0.75603004E+02  0.58578E+04
 0.75653000E+02  0.59661E+04
 0.75703003E+02  0.59279E+04
 0.75752998E+02  0.59772E+04
 0.75803001E+02  0.60647E+04
 0.75853004E+02  0.59596E+04
 0.75903000E+02  0.58836E+04
 0.75953003E+02  0.60372E+04
 0.76002998E+02  0.62507E+04
 0.76053001E+02  0.63033E+04
 0.76103004E+02  0.61400E+04
 0.76153000E+02  0.60836E+04
 0.76203003E+02  0.61174E+04
 0.76252998E+02  0.59902E+04
 0.76303001E+02  0.56529E+04
 0.76353004E+02  0.56027E+04
 0.76403000E+02  0.57604E+04
 0.76453003E+02  0.57573E+04
 0.76502998E+02  0.56876E+04
 0.76553001E+02  0.57635E+04
 0.76603004E+02  0.59731E+04
 0.76653000E+02  0.61434E+04
 0.76703003E+02  0.61509E+04
 0.76752998E+02  0.62747E+04
 0.76803001E+02  0.64478E+04
 0.76853004E+02  0.64983E+04
 0.76903000E+02  0.64686E+04
 0.76953003E+02  0.63302E+04
 0.77002998E+02  0.61658E+04
 0.77053001E+02  0.58762E+04
 0.77103004E+02  0.56812E+04
 0.77153000E+02  0.54710E+04
 0.77203003E+02  0.54185E+04
 0.77252998E+02  0.54293E+04
 0.77303001E+02  0.53536E+04
 0.77353004E+02  0.53241E+04
 0.77403000E+02  0.52846E+04
 0.77453003E+02  0.52825E+04
 0.77502998E+02  0.53299E+04
 0.77553001E+02  0.55439E+04
 0.77603004E+02  0.58646E+04
 0.77653000E+02  0.61913E+04
 0.77703003E+02  0.65085E+04
 0.77752998E+02  0.67219E+04
 0.77803001E+02  0.65207E+04
 0.77853004E+02  0.62124E+04
 0.77903000E+02  0.59591E+04
 0.77953003E+02  0.56542E+04
 0.78002998E+02  0.54481E+04
 0.78053001E+02  0.53934E+04
 0.78103004E+02  0.54025E+04
 0.78153000E+02  0.54952E+04
 0.78203003E+02  0.57912E+04
 0.78252998E+02  0.58838E+04
 0.78303001E+02  0.58469E+04
 0.78353004E+02  0.59012E+04
 0.78403000E+02  0.59762E+04
 0.78453003E+02  0.57741E+04
 0.78502998E+02  0.55847E+04
 0.78553001E+02  0.56775E+04
 0.78603004E+02  0.58261E+04
 0.78653000E+02  0.60682E+04
 0.78703003E+02  0.63368E+04
 0.78752998E+02  0.67104E+04
 0.78803001E+02  0.67993E+04
 0.78853004E+02  0.66551E+04
 0.78903000E+02  0.64498E+04
 0.78953003E+02  0.59871E+04
 0.79002998E+02  0.55061E+04
 0.79053001E+02  0.52080E+04
 0.79103004E+02  0.52474E+04
 0.79153000E+02  0.54288E+04
 0.79203003E+02  0.56562E+04
 0.79252998E+02  0.57635E+04
 0.79303001E+02  0.55626E+04
 0.79353004E+02  0.55369E+04
 0.79403000E+02  0.57275E+04
 0.79453003E+02  0.59147E+04
 0.79502998E+02  0.60373E+04
 0.79553001E+02  0.60843E+04
 0.79603004E+02  0.61099E+04
 0.79653000E+02  0.60295E+04
 0.79703003E+02  0.59577E+04
 0.79752998E+02  0.59929E+04
 0.79803001E+02  0.58938E+04
 0.79853004E+02  0.58156E+04
 0.79903000E+02  0.58011E+04
 0.79953003E+02  0.59518E+04
 0.80002998E+02  0.61344E+04
 0.80053001E+02  0.62731E+04
 0.80103004E+02  0.63454E+04
 0.80153000E+02  0.62760E+04
 0.80203003E+02  0.63775E+04
 0.80252998E+02  0.64530E+04
 0.80303001E+02  0.65043E+04
 0.80353004E+02  0.62900E+04
 0.80403000E+02  0.59387E+04
 0.80453003E+02  0.57746E+04
 0.80502998E+02  0.58297E+04
 0.80553001E+02  0.58759E+04
 0.80603004E+02  0.58115E+04
 0.80653000E+02  0.59443E+04
 0.80703003E+02  0.60124E+04
 0.80752998E+02  0.59408E+04
 0.80803001E+02  0.57833E+04
 0.80853004E+02  0.56005E+04
 0.80903000E+02  0.54510E+04
 0.80953003E+02  0.53220E+04
 0.81002998E+02  0.52414E+04
 0.81053001E+02  0.51275E+04
 0.81103004E+02  0.52257E+04
 0.81153000E+02  0.55353E+04
 0.81203003E+02  0.58262E+04
 0.81252998E+02  0.60229E+04
 0.81303001E+02  0.60334E+04
 0.81353004E+02  0.59542E+04
 0.81403000E+02  0.58728E+04
 0.81453003E+02  0.58860E+04
 0.81502998E+02  0.59440E+04
 0.81553001E+02  0.60064E+04
 0.81603004E+02  0.61509E+04
 0.81653000E+02  0.61194E+04
 0.81703003E+02  0.59707E+04
 0.81752998E+02  0.59842E+04
 0.81803001E+02  0.60970E+04
 0.81853004E+02  0.62020E+04
 0.81903000E+02  0.62610E+04
 0.81953003E+02  0.62620E+04
 0.82002998E+02  0.60891E+04
 0.82053001E+02  0.58919E+04
 0.82103004E+02  0.58595E+04
 0.82153000E+02  0.58136E+04
 0.82203003E+02  0.57573E+04
 0.82252998E+02  0.57526E+04
 0.82303001E+02  0.57657E+04
 0.82353004E+02  0.58547E+04
 0.82403000E+02  0.59164E+04
 0.82453003E+02  0.58106E+04
 0.82502998E+02  0.57109E+04
 0.82553001E+02  0.57157E+04
 0.82603004E+02  0.56183E+04
 0.82653000E+02  0.56312E+04
 0.82703003E+02  0.57920E+04
 0.82752998E+02  0.58258E+04
 0.82803001E+02  0.57685E+04
 0.82853004E+02  0.56003E+04
 0.82903000E+02  0.55625E+04
 0.82953003E+02  0.56807E+04
 0.83002998E+02  0.56138E+04
 0.83053001E+02  0.55336E+04
 0.83103004E+02  0.55246E+04
 0.83153000E+02  0.55308E+04
 0.83203003E+02  0.56134E+04
 0.83252998E+02  0.57441E+04
 0.83303001E+02  0.59727E+04
 0.83353004E+02  0.61604E+04
 0.83403000E+02  0.62930E+04
 0.83453003E+02  0.63890E+04
 0.83502998E+02  0.64385E+04
 0.83553001E+02  0.65627E+04
 0.83603004E+02  0.66762E+04
 0.83653000E+02  0.66414E+04
 0.83703003E+02  0.64295E+04
 0.83752998E+02  0.61227E+04
 0.83803001E+02  0.58311E+04
 0.83853004E+02  0.56060E+04
 0.83903000E+02  0.53978E+04
 0.83953003E+02  0.52551E+04
 0.84002998E+02  0.51383E+04
 0.84053001E+02  0.50580E+04
 0.84103004E+02  0.51750E+04
 0.84153000E+02  0.55241E+04
 0.84203003E+02  0.59450E+04
 0.84252998E+02  0.62048E+04
 0.84303001E+02  0.62804E+04
 0.84353004E+02  0.63080E+04
 0.84403000E+02  0.63796E+04
 0.84453003E+02  0.64513E+04
 0.84502998E+02  0.64449E+04
 0.84553001E+02  0.62659E+04
 0.84603004E+02  0.60466E+04
 0.84653000E+02  0.59748E+04
 0.84703003E+02  0.58813E+04
 0.84752998E+02  0.57091E+04
 0.84803001E+02  0.56248E+04
 0.84853004E+02  0.55069E+04
 0.84903000E+02  0.54413E+04
 0.84953003E+02  0.54971E+04
 0.85002998E+02  0.55741E+04
 0.85053001E+02  0.56867E+04
 0.85103004E+02  0.58401E+04
 0.85153000E+02  0.60007E+04
 0.85203003E+02  0.60141E+04
 0.85252998E+02  0.60193E+04
 0.85303001E+02  0.59760E+04
 0.85353004E+02  0.58197E+04
 0.85403000E+02  0.56240E+04
 0.85453003E+02  0.54865E+04
 0.85502998E+02  0.54882E+04
 0.85553001E+02  0.54829E+04
 0.85603004E+02  0.54324E+04
 0.85653000E+02  0.54128E+04
 0.85703003E+02  0.55030E+04
 0.85752998E+02  0.57409E+04
 0.85803001E+02  0.60428E+04
 0.85853004E+02  0.62059E+04
 0.85903000E+02  0.63139E+04
 0.85953003E+02  0.63919E+04
 0.86002998E+02  0.65011E+04
 0.86053001E+02  0.66170E+04
 0.86103004E+02  0.66190E+04
 0.86153000E+02  0.65432E+04
 0.86203003E+02  0.63170E+04
 0.86252998E+02  0.60901E+04
 0.86303001E+02  0.59446E+04
 0.86353004E+02  0.58215E+04
 0.86403000E+02  0.56247E+04
 0.86453003E+02  0.54776E+04
 0.86502998E+02  0.53599E+04
 0.86553001E+02  0.52760E+04
 0.86603004E+02  0.53882E+04
 0.86653000E+02  0.55080E+04
 0.86703003E+02  0.55675E+04
 0.86752998E+02  0.56241E+04
 0.86803001E+02  0.56817E+04
 0.86853004E+02  0.57348E+04
 0.86903000E+02  0.58635E+04
 0.86953003E+02  0.60365E+04
 0.87002998E+02  0.61611E+04
 0.87053001E+02  0.62513E+04
 0.87103004E+02  0.63010E+04
 0.87153000E+02  0.62578E+04
 0.87203003E+02  0.62235E+04
 0.87252998E+02  0.61580E+04
 0.87303001E+02  0.59861E+04
 0.87353004E+02  0.58429E+04
 0.87403000E+02  0.58197E+04
 0.87453003E+02  0.58046E+04
 0.87502998E+02  0.56904E+04
 0.87553001E+02  0.56719E+04
 0.87602997E+02  0.57656E+04
 0.87653000E+02  0.57706E+04
 0.87703003E+02  0.58436E+04
 0.87752998E+02  0.60433E+04
 0.87803001E+02  0.61053E+04
 0.87852997E+02  0.60878E+04
 0.87903000E+02  0.61058E+04
 0.87953003E+02  0.60999E+04
 0.88002998E+02  0.60205E+04
 0.88053001E+02  0.58676E+04
 0.88102997E+02  0.57705E+04
 0.88153000E+02  0.57363E+04
 0.88203003E+02  0.55594E+04
 0.88252998E+02  0.53863E+04
 0.88303001E+02  0.54666E+04
 0.88352997E+02  0.56188E+04
 0.88403000E+02  0.56841E+04
 0.88453003E+02  0.58072E+04
 0.88502998E+02  0.59870E+04
 0.88553001E+02  0.61235E+04
 0.88602997E+02  0.62924E+04
 0.88653000E+02  0.64701E+04
 0.88703003E+02  0.65075E+04
 0.88752998E+02  0.64679E+04
 0.88803001E+02  0.64764E+04
 0.88852997E+02  0.64380E+04
 0.88903000E+02  0.62868E+04
 0.88953003E+02  0.61168E+04
 0.89002998E+02  0.59655E+04
 0.89053001E+02  0.58105E+04
 0.89102997E+02  0.56687E+04
 0.89153000E+02  0.55837E+04
 0.89203003E+02  0.54900E+04
 0.89252998E+02  0.54231E+04
 0.89303001E+02  0.54179E+04
 0.89352997E+02  0.54336E+04
 0.89403000E+02  0.54906E+04
 0.89453003E+02  0.55107E+04
 0.89502998E+02  0.54746E+04
 0.89553001E+02  0.54646E+04
 0.89602997E+02  0.54964E+04
 0.89653000E+02  0.55441E+04
 0.89703003E+02  0.56714E+04
 0.89752998E+02  0.57370E+04
 0.89803001E+02  0.57575E+04
 0.89852997E+02  0.58763E+04
 0.89903000E+02  0.59371E+04
 0.89953003E+02  0.58810E+04
 0.90002998E+02  0.58352E+04
 0.90053001E+02  0.58354E+04
 0.90102997E+02  0.57981E+04
 0.90153000E+02  0.57574E+04
 0.90203003E+02  0.58171E+04
 0.90252998E+02  0.58375E+04
 0.90303001E+02  0.58245E+04
 0.90352997E+02  0.58800E+04
 0.90403000E+02  0.59568E+04
 0.90453003E+02  0.60329E+04
 0.90502998E+02  0.60680E+04
 0.90553001E+02  0.60816E+04
 0.90602997E+02  0.60856E+04
 0.90653000E+02  0.60694E+04
 0.90703003E+02  0.60672E+04
 0.90752998E+02  0.60378E+04
 0.90803001E+02  0.60014E+04
 0.90852997E+02  0.59953E+04
 0.90903000E+02  0.59601E+04
 0.90953003E+02  0.59609E+04
 0.91002998E+02  0.59474E+04
 0.91053001E+02  0.59606E+04
 0.91102997E+02  0.59689E+04
 0.91153000E+02  0.58740E+04
 0.91203003E+02  0.57808E+04
 0.91252998E+02  0.57120E+04
 0.91303001E+02  0.56457E+04
 0.91352997E+02  0.56075E+04
 0.91403000E+02  0.56047E+04
 0.91453003E+02  0.56072E+04
 0.91502998E+02  0.57278E+04
 0.91553001E+02  0.58432E+04
 0.91602997E+02  0.58606E+04
 0.91653000E+02  0.58828E+04
 0.91703003E+02  0.59199E+04
 0.91752998E+02  0.59747E+04
 0.91803001E+02  0.59962E+04
 0.91852997E+02  0.60134E+04
 0.91903000E+02  0.59873E+04
 0.91953003E+02  0.59496E+04
 0.92002998E+02  0.58728E+04
 0.92053001E+02  0.58094E+04
 0.92102997E+02  0.58593E+04
 0.92153000E+02  0.58860E+04
 0.92203003E+02  0.59203E+04
 0.92252998E+02  0.59939E+04
 0.92303001E+02  0.60209E+04
 0.92352997E+02  0.59719E+04
 0.92403000E+02  0.58647E+04
 0.92453003E+02  0.56998E+04
 0.92502998E+02  0.55870E+04
 0.92553001E+02  0.55207E+04
 0.92602997E+02  0.54987E+04
 0.92653000E+02  0.55588E+04
 0.92703003E+02  0.56132E+04
 0.92752998E+02  0.57354E+04
 0.92803001E+02  0.58524E+04
 0.92852997E+02  0.59187E+04
 0.92903000E+02  0.59814E+04
 0.92953003E+02  0.60669E+04
 0.93002998E+02  0.61233E+04
 0.93053001E+02  0.61025E+04
 0.93102997E+02  0.61551E+04
 0.93153000E+02  0.62163E+04
 0.93203003E+02  0.62256E+04
 0.93252998E+02  0.61755E+04
 0.93303001E+02  0.61257E+04
 0.93352997E+02  0.61390E+04
 0.93403000E+02  0.61255E+04
 0.93453003E+02  0.60848E+04
 0.93502998E+02  0.60407E+04
 0.93553001E+02  0.59743E+04
 0.93602997E+02  0.59136E+04
 0.93653000E+02  0.59224E+04
 0.93703003E+02  0.59163E+04
 0.93752998E+02  0.59295E+04
 0.93803001E+02  0.60360E+04
 0.93852997E+02  0.60794E+04
 0.93903000E+02  0.60255E+04
 0.93953003E+02  0.59690E+04
 0.94002998E+02  0.58863E+04
 0.94053001E+02  0.57826E+04
 0.94102997E+02  0.57001E+04
 0.94153000E+02  0.56943E+04
 0.94203003E+02  0.56905E+04
 0.94252998E+02  0.56527E+04
 0.94303001E+02  0.56641E+04
 0.94352997E+02  0.56955E+04
 0.94403000E+02  0.57624E+04
 0.94453003E+02  0.58854E+04
 0.94502998E+02  0.60390E+04
 0.94553001E+02  0.61136E+04
 0.94602997E+02  0.61349E+04
 0.94653000E+02  0.61697E+04
 0.94703003E+02  0.61708E+04
 0.94752998E+02  0.61226E+04
 0.94803001E+02  0.60710E+04
 0.94852997E+02  0.60625E+04
 0.94903000E+02  0.60748E+04
 0.94953003E+02  0.60511E+04
 0.95002998E+02  0.59668E+04
 0.95053001E+02  0.58380E+04
 0.95102997E+02  0.57187E+04
 0.95153000E+02  0.56593E+04
 0.95203003E+02  0.56243E+04
 0.95252998E+02  0.56561E+04
 0.95303001E+02  0.57332E+04
 0.95352997E+02  0.58196E+04
 0.95403000E+02  0.59432E+04
 0.95453003E+02  0.60633E+04
 0.95502998E+02  0.61894E+04
 0.95553001E+02  0.62721E+04
 0.95602997E+02  0.62638E+04
 0.95653000E+02  0.61521E+04
 0.95703003E+02  0.60338E+04
 0.95752998E+02  0.59519E+04
 0.95803001E+02  0.58119E+04
 0.95852997E+02  0.57139E+04
 0.95903000E+02  0.57055E+04
 0.95953003E+02  0.57159E+04
 0.96002998E+02  0.57146E+04
 0.96053001E+02  0.57570E+04
 0.96102997E+02  0.57562E+04
 0.96153000E+02  0.57375E+04
 0.96203003E+02  0.57758E+04
 0.96252998E+02  0.57658E+04
 0.96303001E+02  0.57397E+04
 0.96352997E+02  0.57809E+04
 0.96403000E+02  0.58740E+04
 0.96453003E+02  0.58472E+04
 0.96502998E+02  0.57738E+04
 0.96553001E+02  0.57199E+04
 0.96602997E+02  0.56647E+04
 0.96653000E+02  0.56884E+04
 0.96703003E+02  0.57165E+04
 0.96752998E+02  0.57324E+04
 0.96803001E+02  0.57506E+04
 0.96852997E+02  0.58130E+04
 0.96903000E+02  0.58677E+04
 0.96953003E+02  0.58698E+04
 0.97002998E+02  0.58706E+04
 0.97053001E+02  0.58717E+04
 0.97102997E+02  0.58697E+04
 0.97153000E+02  0.57800E+04
 0.97203003E+02  0.56748E+04
 0.97252998E+02  0.56630E+04
 0.97303001E+02  0.57033E+04
 0.97352997E+02  0.56852E+04
 0.97403000E+02  0.57095E+04
 0.97453003E+02  0.58276E+04
 0.97502998E+02  0.58770E+04
 0.97553001E+02  0.59035E+04
 0.97602997E+02  0.59291E+04
 0.97653000E+02  0.59430E+04
 0.97703003E+02  0.59663E+04
 0.97752998E+02  0.60403E+04
 0.97803001E+02  0.61258E+04
 0.97852997E+02  0.61220E+04
 0.97903000E+02  0.60590E+04
 0.97953003E+02  0.59938E+04
 0.98002998E+02  0.59907E+04
