-0.20000000E+01 -0.31961E+05
-0.19500000E+01 -0.25906E+05
-0.19000000E+01 -0.17466E+05
-0.18500000E+01 -0.76296E+04
-0.18000000E+01  0.16515E+03
-0.17500000E+01  0.58562E+04
-0.17000000E+01  0.13284E+05
-0.16500001E+01  0.20434E+05
-0.16000000E+01  0.24060E+05
-0.15500000E+01  0.25469E+05
-0.15000000E+01  0.26833E+05
-0.14500000E+01  0.29125E+05
-0.14000001E+01  0.29466E+05
-0.13500000E+01  0.27620E+05
-0.13000001E+01  0.25950E+05
-0.12500000E+01  0.23963E+05
-0.12000000E+01  0.20516E+05
-0.11500001E+01  0.15065E+05
-0.11000000E+01  0.98234E+04
-0.10500001E+01  0.55496E+04
-0.10000000E+01  0.11734E+04
-0.95000005E+00 -0.37762E+04
-0.90000010E+00 -0.86491E+04
-0.85000002E+00 -0.12498E+05
-0.80000007E+00 -0.15594E+05
-0.75000012E+00 -0.18751E+05
-0.70000005E+00 -0.21773E+05
-0.65000010E+00 -0.23119E+05
-0.60000014E+00 -0.22964E+05
-0.55000007E+00 -0.22121E+05
-0.50000012E+00 -0.20748E+05
-0.45000005E+00 -0.19158E+05
-0.40000010E+00 -0.18314E+05
-0.35000014E+00 -0.18843E+05
-0.30000007E+00 -0.20503E+05
-0.25000012E+00 -0.22014E+05
-0.20000005E+00 -0.22846E+05
-0.15000010E+00 -0.24512E+05
-0.10000014E+00 -0.25872E+05
-0.50000072E-01 -0.24517E+05
-0.11920929E-06 -0.20810E+05
 0.49999952E-01 -0.17378E+05
 0.99999905E-01 -0.13475E+05
 0.14999986E+00 -0.78172E+04
 0.19999981E+00 -0.75767E+03
 0.24999976E+00  0.66403E+04
 0.29999995E+00  0.13107E+05
 0.34999990E+00  0.20173E+05
 0.39999986E+00  0.26119E+05
 0.44999981E+00  0.31240E+05
 0.49999976E+00  0.35799E+05
 0.54999995E+00  0.39562E+05
 0.59999990E+00  0.43760E+05
 0.64999986E+00  0.47571E+05
 0.69999981E+00  0.51120E+05
 0.74999976E+00  0.54409E+05
 0.79999971E+00  0.57481E+05
 0.84999990E+00  0.59427E+05
 0.89999986E+00  0.60145E+05
 0.94999981E+00  0.57939E+05
 0.99999976E+00  0.53153E+05
 0.10499997E+01  0.47048E+05
 0.10999999E+01  0.40763E+05
 0.11499999E+01  0.34610E+05
 0.11999998E+01  0.25991E+05
 0.12499998E+01  0.15719E+05
 0.12999997E+01  0.41308E+04
 0.13499999E+01 -0.76552E+04
 0.13999999E+01 -0.18138E+05
 0.14499998E+01 -0.28939E+05
 0.14999998E+01 -0.39917E+05
 0.15499997E+01 -0.50644E+05
 0.15999999E+01 -0.60801E+05
 0.16499999E+01 -0.69440E+05
 0.16999998E+01 -0.76973E+05
 0.17499998E+01 -0.82912E+05
 0.17999997E+01 -0.88263E+05
 0.18499997E+01 -0.93037E+05
 0.18999999E+01 -0.92947E+05
 0.19499998E+01 -0.88762E+05
 0.19999998E+01 -0.84792E+05
 0.20499997E+01 -0.80088E+05
 0.20999999E+01 -0.73382E+05
 0.21499996E+01 -0.64720E+05
 0.21999998E+01 -0.54486E+05
 0.22499995E+01 -0.43695E+05
 0.22999997E+01 -0.32675E+05
 0.23499999E+01 -0.21118E+05
 0.23999996E+01 -0.71228E+04
 0.24499998E+01  0.82343E+04
 0.24999995E+01  0.21275E+05
 0.25499997E+01  0.33131E+05
 0.25999999E+01  0.44968E+05
 0.26499996E+01  0.55866E+05
 0.26999998E+01  0.66191E+05
 0.27499995E+01  0.74993E+05
 0.27999997E+01  0.81417E+05
 0.28499999E+01  0.86641E+05
 0.28999996E+01  0.90506E+05
 0.29499998E+01  0.93402E+05
 0.29999995E+01  0.94837E+05
 0.30499997E+01  0.92958E+05
 0.30999999E+01  0.90743E+05
 0.31499996E+01  0.89313E+05
 0.31999998E+01  0.86351E+05
 0.32499995E+01  0.81233E+05
 0.32999997E+01  0.75468E+05
 0.33499999E+01  0.68645E+05
 0.33999996E+01  0.59933E+05
 0.34499998E+01  0.51846E+05
 0.34999995E+01  0.43904E+05
 0.35499997E+01  0.34990E+05
 0.35999994E+01  0.27175E+05
 0.36499996E+01  0.19795E+05
 0.36999998E+01  0.11706E+05
 0.37499995E+01  0.32888E+04
 0.37999997E+01 -0.57233E+04
 0.38499994E+01 -0.15214E+05
 0.38999996E+01 -0.24386E+05
 0.39499998E+01 -0.32938E+05
 0.39999995E+01 -0.40761E+05
 0.40499997E+01 -0.47347E+05
 0.40999994E+01 -0.54489E+05
 0.41499996E+01 -0.61801E+05
 0.41999998E+01 -0.66639E+05
 0.42499995E+01 -0.69706E+05
 0.42999997E+01 -0.73151E+05
 0.43499994E+01 -0.76644E+05
 0.43999996E+01 -0.79676E+05
 0.44499998E+01 -0.81541E+05
 0.44999995E+01 -0.81910E+05
 0.45499997E+01 -0.81799E+05
 0.45999994E+01 -0.80546E+05
 0.46499996E+01 -0.77485E+05
 0.46999998E+01 -0.72640E+05
 0.47499995E+01 -0.68012E+05
 0.47999997E+01 -0.63114E+05
 0.48499994E+01 -0.57165E+05
 0.48999996E+01 -0.50649E+05
 0.49499998E+01 -0.43127E+05
 0.49999995E+01 -0.35394E+05
 0.50499997E+01 -0.26177E+05
 0.50999994E+01 -0.16266E+05
 0.51499996E+01 -0.84777E+04
 0.51999998E+01 -0.19380E+04
 0.52499995E+01  0.46940E+04
 0.52999997E+01  0.10131E+05
 0.53499994E+01  0.15676E+05
 0.53999996E+01  0.22548E+05
 0.54499993E+01  0.28896E+05
 0.54999995E+01  0.34372E+05
 0.55499997E+01  0.39566E+05
 0.55999994E+01  0.44124E+05
 0.56499996E+01  0.47967E+05
 0.56999993E+01  0.51676E+05
 0.57499995E+01  0.53990E+05
 0.57999997E+01  0.55853E+05
 0.58499994E+01  0.58071E+05
 0.58999996E+01  0.58966E+05
 0.59499993E+01  0.57558E+05
 0.59999995E+01  0.54082E+05
 0.60499992E+01  0.48984E+05
 0.60999994E+01  0.43156E+05
 0.61499996E+01  0.38797E+05
 0.61999998E+01  0.36269E+05
 0.62499990E+01  0.33117E+05
 0.62999992E+01  0.27681E+05
 0.63499994E+01  0.22189E+05
 0.63999996E+01  0.18749E+05
 0.64499998E+01  0.16234E+05
 0.64999990E+01  0.12120E+05
 0.65499992E+01  0.63271E+04
 0.65999994E+01  0.12783E+04
 0.66499996E+01 -0.17976E+04
 0.66999998E+01 -0.47496E+04
 0.67499990E+01 -0.77269E+04
 0.67999992E+01 -0.97493E+04
 0.68499994E+01 -0.12915E+05
 0.68999996E+01 -0.17471E+05
 0.69499998E+01 -0.20084E+05
 0.69999990E+01 -0.19613E+05
 0.70499992E+01 -0.18941E+05
 0.70999994E+01 -0.19147E+05
 0.71499996E+01 -0.17262E+05
 0.71999998E+01 -0.13323E+05
 0.72499990E+01 -0.10108E+05
 0.72999992E+01 -0.61341E+04
 0.73499994E+01  0.28626E+03
 0.73999996E+01  0.69905E+04
 0.74499998E+01  0.12503E+05
 0.74999990E+01  0.18160E+05
 0.75499992E+01  0.24120E+05
 0.75999994E+01  0.29882E+05
 0.76499996E+01  0.34815E+05
 0.76999998E+01  0.38668E+05
 0.77499990E+01  0.41456E+05
 0.77999992E+01  0.44665E+05
 0.78499994E+01  0.49600E+05
 0.78999996E+01  0.52657E+05
 0.79499998E+01  0.52420E+05
 0.79999990E+01  0.49461E+05
 0.80499992E+01  0.45501E+05
 0.80999994E+01  0.40678E+05
 0.81499996E+01  0.31889E+05
 0.81999998E+01  0.21131E+05
 0.82499990E+01  0.96421E+04
 0.82999992E+01 -0.39380E+04
 0.83499994E+01 -0.17686E+05
 0.83999996E+01 -0.29929E+05
 0.84499998E+01 -0.41206E+05
 0.84999990E+01 -0.52382E+05
 0.85499992E+01 -0.63799E+05
 0.85999994E+01 -0.75011E+05
 0.86499996E+01 -0.84311E+05
 0.86999998E+01 -0.90717E+05
 0.87499990E+01 -0.93940E+05
 0.87999992E+01 -0.94612E+05
 0.88499994E+01 -0.93576E+05
 0.88999996E+01 -0.90441E+05
 0.89499998E+01 -0.85196E+05
 0.89999990E+01 -0.76992E+05
 0.90499992E+01 -0.68599E+05
 0.90999994E+01 -0.59912E+05
 0.91499996E+01 -0.48044E+05
 0.91999989E+01 -0.34282E+05
 0.92499990E+01 -0.19344E+05
 0.92999992E+01 -0.38835E+04
 0.93499994E+01  0.11020E+05
 0.93999996E+01  0.25441E+05
 0.94499989E+01  0.40403E+05
 0.94999990E+01  0.55191E+05
 0.95499992E+01  0.69742E+05
 0.95999994E+01  0.82930E+05
 0.96499996E+01  0.93377E+05
 0.96999989E+01  0.10177E+06
 0.97499990E+01  0.10731E+06
 0.97999992E+01  0.10923E+06
 0.98499994E+01  0.10812E+06
 0.98999996E+01  0.10499E+06
 0.99499989E+01  0.99997E+05
 0.99999990E+01  0.92968E+05
 0.10049999E+02  0.84532E+05
 0.10099999E+02  0.74622E+05
 0.10150000E+02  0.63535E+05
 0.10199999E+02  0.51428E+05
 0.10249999E+02  0.37742E+05
 0.10299999E+02  0.24322E+05
 0.10349999E+02  0.11748E+05
 0.10400000E+02 -0.25045E+04
 0.10449999E+02 -0.17007E+05
 0.10499999E+02 -0.29821E+05
 0.10549999E+02 -0.42858E+05
 0.10599999E+02 -0.56003E+05
 0.10650000E+02 -0.68562E+05
 0.10699999E+02 -0.79563E+05
 0.10749999E+02 -0.88635E+05
 0.10799999E+02 -0.96604E+05
 0.10849999E+02 -0.10256E+06
 0.10900000E+02 -0.10596E+06
 0.10949999E+02 -0.10824E+06
 0.10999999E+02 -0.11030E+06
 0.11049999E+02 -0.10996E+06
 0.11099999E+02 -0.10625E+06
 0.11150000E+02 -0.10090E+06
 0.11199999E+02 -0.95287E+05
 0.11249999E+02 -0.87791E+05
 0.11299999E+02 -0.78516E+05
 0.11349999E+02 -0.69317E+05
 0.11400000E+02 -0.60599E+05
 0.11449999E+02 -0.52522E+05
 0.11499999E+02 -0.44109E+05
 0.11549999E+02 -0.35053E+05
 0.11599999E+02 -0.24364E+05
 0.11650000E+02 -0.11886E+05
 0.11699999E+02  0.64008E+02
 0.11749999E+02  0.10633E+05
 0.11799999E+02  0.21127E+05
 0.11849999E+02  0.31150E+05
 0.11900000E+02  0.39502E+05
 0.11949999E+02  0.47650E+05
 0.11999999E+02  0.54457E+05
 0.12049999E+02  0.59498E+05
 0.12099999E+02  0.64275E+05
 0.12150000E+02  0.68391E+05
 0.12199999E+02  0.71223E+05
 0.12249999E+02  0.72119E+05
 0.12299999E+02  0.71953E+05
 0.12349999E+02  0.71128E+05
 0.12400000E+02  0.71355E+05
 0.12449999E+02  0.71645E+05
 0.12499999E+02  0.69982E+05
 0.12549999E+02  0.66939E+05
 0.12599999E+02  0.62510E+05
 0.12649999E+02  0.57191E+05
 0.12699999E+02  0.49893E+05
 0.12749999E+02  0.40947E+05
 0.12799999E+02  0.31090E+05
 0.12849999E+02  0.20720E+05
 0.12899999E+02  0.10875E+05
 0.12949999E+02  0.11381E+04
 0.12999999E+02 -0.81558E+04
 0.13049999E+02 -0.17149E+05
 0.13099999E+02 -0.26886E+05
 0.13149999E+02 -0.37021E+05
 0.13199999E+02 -0.45720E+05
 0.13249999E+02 -0.53549E+05
 0.13299999E+02 -0.61987E+05
 0.13349999E+02 -0.68848E+05
 0.13399999E+02 -0.73562E+05
 0.13449999E+02 -0.77137E+05
 0.13499999E+02 -0.79389E+05
 0.13549999E+02 -0.80368E+05
 0.13599999E+02 -0.79715E+05
 0.13649999E+02 -0.77246E+05
 0.13699999E+02 -0.73122E+05
 0.13749999E+02 -0.67887E+05
 0.13799999E+02 -0.61104E+05
 0.13849999E+02 -0.53240E+05
 0.13899999E+02 -0.45156E+05
 0.13949999E+02 -0.36819E+05
 0.13999999E+02 -0.27047E+05
 0.14049999E+02 -0.15426E+05
 0.14099998E+02 -0.40187E+04
 0.14150000E+02  0.63266E+04
 0.14199999E+02  0.15853E+05
 0.14249998E+02  0.25205E+05
 0.14299999E+02  0.34603E+05
 0.14349998E+02  0.43311E+05
 0.14400000E+02  0.49986E+05
 0.14449999E+02  0.55125E+05
 0.14499998E+02  0.59809E+05
 0.14549999E+02  0.63897E+05
 0.14599998E+02  0.66185E+05
 0.14650000E+02  0.66847E+05
 0.14699999E+02  0.67331E+05
 0.14749998E+02  0.66181E+05
 0.14799999E+02  0.63044E+05
 0.14849998E+02  0.59918E+05
 0.14900000E+02  0.57904E+05
 0.14949999E+02  0.56072E+05
 0.14999998E+02  0.52567E+05
 0.15049999E+02  0.48251E+05
 0.15099998E+02  0.43576E+05
 0.15150000E+02  0.37935E+05
 0.15199999E+02  0.31188E+05
 0.15249998E+02  0.24211E+05
 0.15299999E+02  0.18440E+05
 0.15349998E+02  0.13117E+05
 0.15400000E+02  0.91231E+04
 0.15449999E+02  0.63397E+04
 0.15499998E+02  0.41315E+04
 0.15549999E+02  0.32924E+04
 0.15599998E+02  0.35968E+04
 0.15650000E+02  0.51460E+04
 0.15699999E+02  0.73136E+04
 0.15749998E+02  0.96060E+04
 0.15799999E+02  0.12084E+05
 0.15849998E+02  0.14598E+05
 0.15900000E+02  0.16747E+05
 0.15949999E+02  0.19278E+05
 0.15999998E+02  0.21404E+05
 0.16049999E+02  0.21544E+05
 0.16099998E+02  0.21520E+05
 0.16150000E+02  0.21653E+05
 0.16199999E+02  0.20575E+05
 0.16249998E+02  0.18578E+05
 0.16299999E+02  0.16215E+05
 0.16349998E+02  0.14248E+05
 0.16400000E+02  0.12007E+05
 0.16449999E+02  0.86588E+04
 0.16499998E+02  0.45246E+04
 0.16549999E+02 -0.12843E+04
 0.16599998E+02 -0.75109E+04
 0.16650000E+02 -0.13939E+05
 0.16699999E+02 -0.20698E+05
 0.16749998E+02 -0.26141E+05
 0.16799999E+02 -0.31719E+05
 0.16849998E+02 -0.37194E+05
 0.16900000E+02 -0.41529E+05
 0.16949999E+02 -0.44843E+05
 0.16999998E+02 -0.47743E+05
 0.17049999E+02 -0.50136E+05
 0.17099998E+02 -0.50142E+05
 0.17150000E+02 -0.48120E+05
 0.17199999E+02 -0.45846E+05
 0.17249998E+02 -0.44448E+05
 0.17299999E+02 -0.42784E+05
 0.17349998E+02 -0.39376E+05
 0.17400000E+02 -0.36247E+05
 0.17449999E+02 -0.34363E+05
 0.17499998E+02 -0.31947E+05
 0.17549999E+02 -0.28885E+05
 0.17599998E+02 -0.25844E+05
 0.17650000E+02 -0.21549E+05
 0.17699999E+02 -0.14767E+05
 0.17749998E+02 -0.80164E+04
 0.17799999E+02 -0.26285E+04
 0.17849998E+02  0.19025E+04
 0.17900000E+02  0.48039E+04
 0.17949999E+02  0.63375E+04
 0.17999998E+02  0.76080E+04
 0.18049999E+02  0.97072E+04
 0.18099998E+02  0.12100E+05
 0.18150000E+02  0.13368E+05
 0.18199999E+02  0.13758E+05
 0.18249998E+02  0.13637E+05
 0.18299999E+02  0.13510E+05
 0.18349998E+02  0.13043E+05
 0.18400000E+02  0.11810E+05
 0.18449999E+02  0.10782E+05
 0.18499998E+02  0.10207E+05
 0.18549999E+02  0.10033E+05
 0.18599998E+02  0.97059E+04
 0.18650000E+02  0.90844E+04
 0.18699999E+02  0.85452E+04
 0.18749998E+02  0.86855E+04
 0.18799999E+02  0.92476E+04
 0.18849998E+02  0.10126E+05
 0.18900000E+02  0.12079E+05
 0.18949999E+02  0.13747E+05
 0.18999998E+02  0.14649E+05
 0.19049999E+02  0.16384E+05
 0.19099998E+02  0.18135E+05
 0.19150000E+02  0.19442E+05
 0.19199999E+02  0.20416E+05
 0.19249998E+02  0.21565E+05
 0.19299999E+02  0.23241E+05
 0.19349998E+02  0.24588E+05
 0.19400000E+02  0.25105E+05
 0.19449999E+02  0.24216E+05
 0.19499998E+02  0.23114E+05
 0.19549999E+02  0.21907E+05
 0.19599998E+02  0.20616E+05
 0.19650000E+02  0.19542E+05
 0.19699999E+02  0.17524E+05
 0.19749998E+02  0.14096E+05
 0.19799999E+02  0.10224E+05
 0.19849998E+02  0.64361E+04
 0.19900000E+02  0.29581E+04
 0.19949999E+02 -0.55038E+03
 0.19999998E+02 -0.40217E+04
 0.20049999E+02 -0.73034E+04
 0.20099998E+02 -0.10391E+05
 0.20150000E+02 -0.12414E+05
 0.20199999E+02 -0.14248E+05
 0.20249998E+02 -0.15726E+05
 0.20299999E+02 -0.16476E+05
 0.20349998E+02 -0.18040E+05
 0.20399998E+02 -0.20511E+05
 0.20449999E+02 -0.22004E+05
 0.20499998E+02 -0.22062E+05
 0.20549999E+02 -0.21873E+05
 0.20599998E+02 -0.23292E+05
 0.20649998E+02 -0.25428E+05
 0.20699999E+02 -0.25820E+05
 0.20749998E+02 -0.25445E+05
 0.20799999E+02 -0.25232E+05
 0.20849998E+02 -0.25766E+05
 0.20899998E+02 -0.23083E+05
 0.20949999E+02 -0.19322E+05
 0.20999998E+02 -0.16453E+05
 0.21049999E+02 -0.12239E+05
 0.21099998E+02 -0.12604E+05
 0.21149998E+02 -0.99530E+04
 0.21199999E+02 -0.76620E+04
 0.21249998E+02 -0.84313E+04
 0.21299999E+02 -0.69853E+04
 0.21349998E+02 -0.59634E+04
 0.21399998E+02 -0.38440E+04
 0.21449999E+02 -0.10607E+04
 0.21499998E+02  0.27624E+04
 0.21549999E+02  0.43442E+04
 0.21599998E+02  0.55926E+04
 0.21649998E+02  0.63570E+04
 0.21699999E+02  0.97664E+04
 0.21749998E+02  0.14834E+05
 0.21799999E+02  0.13204E+05
 0.21849998E+02  0.86329E+04
 0.21899998E+02  0.92591E+04
 0.21949999E+02  0.11162E+05
 0.21999998E+02  0.93750E+04
 0.22049999E+02  0.93019E+04
 0.22099998E+02  0.96259E+04
 0.22149998E+02  0.89553E+04
 0.22199999E+02  0.11086E+05
 0.22249998E+02  0.12728E+05
 0.22299999E+02  0.14107E+05
 0.22349998E+02  0.21307E+05
 0.22399998E+02  0.21639E+05
 0.22449999E+02  0.24111E+05
 0.22499998E+02  0.26966E+05
 0.22549999E+02  0.23564E+05
 0.22599998E+02  0.24384E+05
 0.22649998E+02  0.22866E+05
 0.22699999E+02  0.27463E+05
 0.22749998E+02  0.34164E+05
 0.22799999E+02  0.36206E+05
 0.22849998E+02  0.38664E+05
 0.22899998E+02  0.43620E+05
 0.22949999E+02  0.48754E+05
 0.22999998E+02  0.48122E+05
 0.23049999E+02  0.50376E+05
 0.23099998E+02  0.57026E+05
 0.23149998E+02  0.61457E+05
 0.23199999E+02  0.74017E+05
 0.23249998E+02  0.75398E+05
 0.23299999E+02  0.76889E+05
 0.23349998E+02  0.81739E+05
 0.23399998E+02  0.80164E+05
 0.23449999E+02  0.86288E+05
 0.23499998E+02  0.87200E+05
 0.23549999E+02  0.81842E+05
 0.23599998E+02  0.78542E+05
 0.23649998E+02  0.81909E+05
 0.23699999E+02  0.73245E+05
 0.23749998E+02  0.71679E+05
 0.23799999E+02  0.71657E+05
 0.23849998E+02  0.61718E+05
 0.23899998E+02  0.58636E+05
 0.23949999E+02  0.57369E+05
 0.23999998E+02  0.61903E+05
 0.24049999E+02  0.60297E+05
 0.24099998E+02  0.56615E+05
 0.24149998E+02  0.53697E+05
 0.24199999E+02  0.52367E+05
 0.24249998E+02  0.49520E+05
 0.24299999E+02  0.49218E+05
 0.24349998E+02  0.50108E+05
 0.24399998E+02  0.46234E+05
 0.24449999E+02  0.40804E+05
 0.24499998E+02  0.36733E+05
 0.24549999E+02  0.31470E+05
 0.24599998E+02  0.19933E+05
 0.24649998E+02  0.23096E+05
 0.24699999E+02  0.22043E+05
 0.24749998E+02  0.23816E+05
 0.24799999E+02  0.26402E+05
 0.24849998E+02  0.28604E+05
 0.24899998E+02  0.30881E+05
 0.24949999E+02  0.17555E+05
 0.24999998E+02  0.25321E+05
 0.25049999E+02  0.23382E+05
 0.25099998E+02  0.10107E+05
 0.25149998E+02 -0.89891E+04
 0.25199999E+02 -0.33380E+05
 0.25249998E+02 -0.34859E+05
 0.25299999E+02 -0.27692E+05
 0.25349998E+02 -0.30268E+05
 0.25399998E+02 -0.43143E+05
 0.25449999E+02 -0.37982E+05
 0.25499998E+02 -0.29862E+05
 0.25549999E+02 -0.26167E+05
 0.25599998E+02 -0.45728E+05
 0.25649998E+02 -0.62922E+05
 0.25699999E+02 -0.57848E+05
 0.25749998E+02 -0.56244E+05
 0.25799999E+02 -0.50175E+05
 0.25849998E+02 -0.54728E+05
 0.25899998E+02 -0.59729E+05
 0.25949999E+02 -0.65960E+05
 0.25999998E+02 -0.68525E+05
 0.26049999E+02 -0.60185E+05
 0.26099998E+02 -0.53793E+05
 0.26149998E+02 -0.48561E+05
 0.26199999E+02 -0.37674E+05
 0.26249998E+02 -0.34418E+05
 0.26299999E+02 -0.28838E+05
 0.26349998E+02 -0.22852E+05
 0.26399998E+02 -0.26806E+05
 0.26449999E+02 -0.39172E+05
 0.26499998E+02 -0.54662E+05
 0.26549999E+02 -0.42339E+05
 0.26599998E+02 -0.29924E+05
 0.26649998E+02 -0.34570E+05
 0.26699999E+02 -0.26679E+05
 0.26749998E+02 -0.10604E+05
 0.26799999E+02 -0.85797E+04
 0.26849998E+02 -0.49338E+04
 0.26899998E+02 -0.25603E+03
 0.26949999E+02 -0.83145E+04
 0.26999998E+02  0.11165E+04
 0.27049997E+02  0.11717E+05
 0.27099998E+02  0.67752E+04
 0.27149998E+02  0.62208E+04
 0.27199999E+02  0.11811E+05
 0.27249998E+02  0.23218E+05
 0.27299997E+02  0.20540E+05
 0.27349998E+02  0.15899E+05
 0.27399998E+02  0.18548E+05
 0.27449999E+02  0.36114E+05
 0.27499998E+02  0.55483E+05
 0.27549997E+02  0.67301E+05
 0.27599998E+02  0.68453E+05
 0.27649998E+02  0.63387E+05
 0.27699999E+02  0.74258E+05
 0.27749998E+02  0.64441E+05
 0.27799997E+02  0.40275E+05
 0.27849998E+02  0.30260E+05
 0.27899998E+02  0.20522E+05
 0.27949999E+02  0.17724E+05
 0.27999998E+02  0.35612E+05
 0.28049997E+02  0.36695E+05
 0.28099998E+02  0.27788E+05
 0.28149998E+02  0.22108E+05
 0.28199999E+02  0.22223E+05
 0.28249998E+02  0.10994E+05
 0.28299997E+02 -0.24806E+04
 0.28349998E+02 -0.11371E+05
 0.28399998E+02 -0.19282E+05
 0.28449999E+02 -0.20537E+05
 0.28499998E+02 -0.29929E+05
 0.28549997E+02 -0.12814E+05
 0.28599998E+02 -0.16022E+05
 0.28649998E+02 -0.39361E+05
 0.28699999E+02 -0.52355E+05
 0.28749998E+02 -0.63162E+05
 0.28799997E+02 -0.52512E+05
 0.28849998E+02 -0.35282E+05
 0.28899998E+02 -0.21761E+05
 0.28949999E+02 -0.12340E+05
 0.28999998E+02 -0.10058E+05
 0.29049997E+02 -0.20621E+05
 0.29099998E+02 -0.40104E+05
 0.29149998E+02 -0.43180E+05
 0.29199999E+02 -0.42478E+05
 0.29249998E+02 -0.53178E+05
 0.29299997E+02 -0.43931E+05
 0.29349998E+02 -0.38257E+05
 0.29399998E+02 -0.38425E+05
 0.29449999E+02 -0.28511E+05
 0.29499998E+02 -0.36923E+05
 0.29549997E+02 -0.39274E+05
 0.29599998E+02 -0.34551E+05
 0.29649998E+02 -0.31816E+05
 0.29699999E+02 -0.17056E+05
 0.29749998E+02 -0.10450E+04
 0.29799997E+02  0.66974E+04
 0.29849998E+02 -0.21937E+04
 0.29899998E+02 -0.22725E+05
 0.29949999E+02 -0.25874E+05
 0.29999998E+02 -0.19128E+05
 0.30049999E+02 -0.34959E+05
 0.30099998E+02 -0.39632E+05
 0.30149998E+02 -0.30133E+05
 0.30199997E+02 -0.34150E+05
 0.30249996E+02 -0.34407E+05
 0.30299999E+02 -0.28250E+05
 0.30349998E+02 -0.30741E+05
 0.30399998E+02 -0.49468E+05
 0.30449997E+02 -0.57189E+05
 0.30499996E+02 -0.63998E+05
 0.30549999E+02 -0.67522E+05
 0.30599998E+02 -0.45794E+05
 0.30649998E+02 -0.38587E+05
 0.30699997E+02 -0.40418E+05
 0.30749996E+02 -0.29473E+05
 0.30799999E+02 -0.26662E+05
 0.30849998E+02 -0.42939E+05
 0.30899998E+02 -0.48329E+05
 0.30949997E+02 -0.45415E+05
 0.30999996E+02 -0.44106E+05
 0.31049999E+02 -0.45794E+05
 0.31099998E+02 -0.44800E+05
 0.31149998E+02 -0.39352E+05
 0.31199997E+02 -0.43288E+05
 0.31249996E+02 -0.44459E+05
 0.31299999E+02 -0.57333E+05
 0.31349998E+02 -0.78709E+05
 0.31399998E+02 -0.10345E+06
 0.31449997E+02 -0.11350E+06
 0.31499996E+02 -0.86241E+05
 0.31549999E+02 -0.51198E+05
 0.31599998E+02 -0.38806E+05
 0.31649998E+02 -0.26085E+05
 0.31699997E+02 -0.14768E+05
 0.31749996E+02 -0.27893E+05
 0.31799999E+02 -0.23207E+05
 0.31849998E+02 -0.30523E+05
 0.31899998E+02 -0.71795E+05
 0.31949997E+02 -0.87940E+05
 0.31999996E+02 -0.78491E+05
 0.32049999E+02 -0.55711E+05
 0.32099998E+02 -0.43233E+05
 0.32149998E+02 -0.48378E+05
 0.32199997E+02 -0.39514E+05
 0.32249996E+02 -0.38455E+05
 0.32299999E+02 -0.21887E+05
 0.32349998E+02 -0.13110E+05
 0.32399998E+02 -0.13015E+05
 0.32449997E+02 -0.10087E+05
 0.32499996E+02 -0.59091E+05
 0.32549999E+02 -0.11206E+06
 0.32599998E+02 -0.16642E+06
 0.32649998E+02 -0.19767E+06
 0.32699997E+02 -0.18031E+06
 0.32749996E+02 -0.14798E+06
 0.32799999E+02 -0.10265E+06
 0.32849998E+02 -0.53824E+05
 0.32899998E+02 -0.28260E+05
 0.32949997E+02 -0.33209E+05
 0.32999996E+02 -0.24701E+05
 0.33049999E+02 -0.12629E+05
 0.33099998E+02 -0.22475E+05
 0.33149998E+02 -0.26696E+05
 0.33199997E+02 -0.31881E+05
 0.33249996E+02 -0.27266E+05
 0.33299999E+02 -0.59060E+05
 0.33349998E+02 -0.12760E+06
 0.33399998E+02 -0.13921E+06
 0.33449997E+02 -0.14471E+06
 0.33499996E+02 -0.16347E+06
 0.33549999E+02 -0.16278E+06
 0.33599998E+02 -0.14855E+06
 0.33649998E+02 -0.12960E+06
 0.33699997E+02 -0.12317E+06
 0.33749996E+02 -0.10708E+06
 0.33799999E+02 -0.73903E+05
 0.33849998E+02 -0.31574E+05
 0.33899998E+02  0.20359E+05
 0.33949997E+02  0.41714E+05
 0.33999996E+02  0.38206E+05
 0.34049999E+02  0.39058E+05
 0.34099998E+02  0.47316E+05
 0.34149998E+02  0.36178E+05
 0.34199997E+02  0.20115E+04
 0.34249996E+02 -0.20010E+05
 0.34299999E+02 -0.22983E+05
 0.34349998E+02 -0.22649E+05
 0.34399998E+02 -0.38494E+05
 0.34449997E+02 -0.34629E+05
 0.34499996E+02 -0.49197E+04
 0.34549999E+02  0.34678E+05
 0.34599998E+02  0.67695E+05
 0.34649998E+02  0.78249E+05
 0.34699997E+02  0.45940E+05
 0.34749996E+02  0.19622E+04
 0.34799999E+02 -0.20177E+05
 0.34849998E+02 -0.14093E+05
 0.34899998E+02  0.31147E+05
 0.34949997E+02  0.76920E+05
 0.34999996E+02  0.11753E+06
 0.35049999E+02  0.15981E+06
 0.35099998E+02  0.18471E+06
 0.35149998E+02  0.19062E+06
 0.35199997E+02  0.17694E+06
 0.35249996E+02  0.13575E+06
 0.35299999E+02  0.11719E+06
 0.35349998E+02  0.12887E+06
 0.35399998E+02  0.15244E+06
 0.35449997E+02  0.17508E+06
 0.35499996E+02  0.18613E+06
 0.35549999E+02  0.17756E+06
 0.35599998E+02  0.14537E+06
 0.35649998E+02  0.12255E+06
 0.35699997E+02  0.97883E+05
 0.35749996E+02  0.10750E+06
 0.35799999E+02  0.13927E+06
 0.35849998E+02  0.15369E+06
 0.35899998E+02  0.19732E+06
 0.35949997E+02  0.22654E+06
 0.35999996E+02  0.21084E+06
 0.36049999E+02  0.20880E+06
 0.36099998E+02  0.19522E+06
 0.36149998E+02  0.18057E+06
 0.36199997E+02  0.17138E+06
 0.36249996E+02  0.12892E+06
 0.36299999E+02  0.98477E+05
 0.36349998E+02  0.76842E+05
 0.36399998E+02  0.50468E+05
 0.36449997E+02  0.27004E+05
 0.36499996E+02  0.50918E+04
 0.36549999E+02  0.42148E+04
 0.36599998E+02  0.12702E+05
 0.36649998E+02  0.28698E+05
 0.36699997E+02  0.48063E+05
 0.36749996E+02  0.21104E+05
 0.36799999E+02 -0.39299E+05
 0.36849998E+02 -0.94819E+05
 0.36899998E+02 -0.15070E+06
 0.36949997E+02 -0.20558E+06
 0.36999996E+02 -0.25932E+06
 0.37049999E+02 -0.29194E+06
 0.37099998E+02 -0.25162E+06
 0.37149998E+02 -0.17650E+06
 0.37199997E+02 -0.13547E+06
 0.37249996E+02 -0.97818E+05
 0.37299999E+02 -0.61307E+05
 0.37349998E+02 -0.81121E+05
 0.37399998E+02 -0.11271E+06
 0.37449997E+02 -0.13818E+06
 0.37499996E+02 -0.16424E+06
 0.37549999E+02 -0.17907E+06
 0.37599998E+02 -0.18571E+06
 0.37649998E+02 -0.18957E+06
 0.37699997E+02 -0.19357E+06
 0.37749996E+02 -0.19025E+06
 0.37799999E+02 -0.18121E+06
 0.37849998E+02 -0.18978E+06
 0.37899998E+02 -0.22360E+06
 0.37949997E+02 -0.24731E+06
 0.37999996E+02 -0.26663E+06
 0.38049999E+02 -0.24032E+06
 0.38099998E+02 -0.23248E+06
 0.38149998E+02 -0.27174E+06
 0.38199997E+02 -0.26058E+06
 0.38249996E+02 -0.24527E+06
 0.38299999E+02 -0.21509E+06
 0.38349998E+02 -0.18814E+06
 0.38399998E+02 -0.17401E+06
 0.38449997E+02 -0.15489E+06
 0.38499996E+02 -0.20117E+06
 0.38549999E+02 -0.24956E+06
 0.38599998E+02 -0.26687E+06
 0.38649998E+02 -0.24935E+06
 0.38699997E+02 -0.22169E+06
 0.38749996E+02 -0.19133E+06
 0.38799999E+02 -0.14029E+06
 0.38849998E+02 -0.12345E+06
 0.38899998E+02 -0.13205E+06
 0.38949997E+02 -0.13572E+06
 0.38999996E+02 -0.12583E+06
 0.39049999E+02 -0.10042E+06
 0.39099998E+02 -0.76796E+05
 0.39149998E+02 -0.39624E+05
 0.39199997E+02  0.12626E+04
 0.39249996E+02  0.56100E+05
 0.39299999E+02  0.12296E+06
 0.39349998E+02  0.18585E+06
 0.39399998E+02  0.18355E+06
 0.39449997E+02  0.15013E+06
 0.39499996E+02  0.12637E+06
 0.39549999E+02  0.86385E+05
 0.39599998E+02  0.71633E+05
 0.39649998E+02  0.55261E+05
 0.39699997E+02  0.89187E+05
 0.39749996E+02  0.16337E+06
 0.39799999E+02  0.21291E+06
 0.39849998E+02  0.23901E+06
 0.39899998E+02  0.33680E+06
 0.39949997E+02  0.40915E+06
 0.39999996E+02  0.39740E+06
 0.40049999E+02  0.40266E+06
 0.40099998E+02  0.43667E+06
 0.40149998E+02  0.44581E+06
 0.40199997E+02  0.38234E+06
 0.40249996E+02  0.33352E+06
 0.40299999E+02  0.34080E+06
 0.40349998E+02  0.36555E+06
 0.40399998E+02  0.37367E+06
 0.40449997E+02  0.41390E+06
 0.40499996E+02  0.45443E+06
 0.40549999E+02  0.49492E+06
 0.40599998E+02  0.48105E+06
 0.40649998E+02  0.42136E+06
 0.40699997E+02  0.38023E+06
 0.40749996E+02  0.32062E+06
 0.40799999E+02  0.26277E+06
 0.40849998E+02  0.22806E+06
 0.40899998E+02  0.21956E+06
 0.40949997E+02  0.15136E+06
 0.40999996E+02  0.12458E+06
 0.41049999E+02  0.11367E+06
 0.41099998E+02  0.10653E+06
 0.41149998E+02  0.77334E+05
 0.41199997E+02  0.25569E+04
 0.41249996E+02 -0.34274E+05
 0.41299999E+02 -0.39468E+05
 0.41349998E+02 -0.20187E+05
 0.41399998E+02 -0.48246E+05
 0.41449997E+02 -0.55618E+05
 0.41499996E+02 -0.71741E+05
 0.41549999E+02 -0.11354E+06
 0.41599998E+02 -0.16445E+06
 0.41649998E+02 -0.22478E+06
 0.41699997E+02 -0.29489E+06
 0.41749996E+02 -0.31813E+06
 0.41799999E+02 -0.31586E+06
 0.41849998E+02 -0.29932E+06
 0.41899998E+02 -0.26628E+06
 0.41949997E+02 -0.22960E+06
 0.41999996E+02 -0.22397E+06
 0.42049999E+02 -0.27167E+06
 0.42099998E+02 -0.24865E+06
 0.42149998E+02 -0.25488E+06
 0.42199997E+02 -0.24859E+06
 0.42249996E+02 -0.19676E+06
 0.42299999E+02 -0.17230E+06
 0.42349998E+02 -0.14669E+06
 0.42399998E+02 -0.10153E+06
 0.42449997E+02 -0.49219E+05
 0.42499996E+02 -0.28821E+05
 0.42549999E+02 -0.22525E+04
 0.42599998E+02  0.65777E+05
 0.42649998E+02  0.11830E+06
 0.42699997E+02  0.12333E+06
 0.42749996E+02  0.82846E+05
 0.42799995E+02  0.10945E+05
 0.42849998E+02 -0.51259E+05
 0.42899998E+02 -0.15092E+06
 0.42949997E+02 -0.23366E+06
 0.42999996E+02 -0.19662E+06
 0.43049995E+02 -0.68866E+05
 0.43099998E+02  0.63516E+05
 0.43149998E+02  0.18845E+06
 0.43199997E+02  0.27203E+06
 0.43249996E+02  0.29403E+06
 0.43299995E+02  0.26137E+06
 0.43349998E+02  0.15241E+06
 0.43399998E+02  0.10481E+05
 0.43449997E+02 -0.12814E+06
 0.43499996E+02 -0.21211E+06
 0.43549995E+02 -0.24871E+06
 0.43599998E+02 -0.20584E+06
 0.43649998E+02 -0.12454E+06
 0.43699997E+02 -0.57698E+05
 0.43749996E+02  0.34211E+05
 0.43799995E+02  0.89514E+05
 0.43849998E+02  0.71374E+05
 0.43899998E+02  0.24810E+04
 0.43949997E+02 -0.97111E+05
 0.43999996E+02 -0.19212E+06
 0.44049995E+02 -0.23944E+06
 0.44099998E+02 -0.21721E+06
 0.44149998E+02 -0.15598E+06
 0.44199997E+02 -0.12278E+06
 0.44249996E+02 -0.14487E+06
 0.44299995E+02 -0.14868E+06
 0.44349998E+02 -0.18812E+06
 0.44399998E+02 -0.26900E+06
 0.44449997E+02 -0.24199E+06
 0.44499996E+02 -0.16800E+06
 0.44549995E+02 -0.12355E+06
 0.44599998E+02 -0.12492E+06
 0.44649998E+02 -0.19414E+06
 0.44699997E+02 -0.23634E+06
 0.44749996E+02 -0.26339E+06
 0.44799995E+02 -0.34478E+06
 0.44849998E+02 -0.39222E+06
 0.44899998E+02 -0.43887E+06
 0.44949997E+02 -0.46335E+06
 0.44999996E+02 -0.42244E+06
 0.45049995E+02 -0.33555E+06
 0.45099998E+02 -0.23481E+06
 0.45149998E+02 -0.15154E+06
 0.45199997E+02 -0.10013E+06
 0.45249996E+02 -0.67212E+05
 0.45299995E+02 -0.29693E+05
 0.45349998E+02 -0.32882E+05
 0.45399998E+02 -0.10705E+06
 0.45449997E+02 -0.20332E+06
 0.45499996E+02 -0.29062E+06
 0.45549995E+02 -0.40120E+06
 0.45599998E+02 -0.48128E+06
 0.45649998E+02 -0.48727E+06
 0.45699997E+02 -0.41091E+06
 0.45749996E+02 -0.33247E+06
 0.45799995E+02 -0.22690E+06
 0.45849998E+02 -0.51072E+05
 0.45899998E+02  0.77492E+05
 0.45949997E+02  0.96439E+05
 0.45999996E+02 -0.26717E+05
 0.46049995E+02 -0.12573E+06
 0.46099998E+02 -0.10823E+06
 0.46149998E+02 -0.13767E+06
 0.46199997E+02 -0.14160E+06
 0.46249996E+02 -0.58926E+05
 0.46299995E+02  0.83212E+05
 0.46349998E+02  0.17883E+06
 0.46399998E+02  0.12442E+06
 0.46449997E+02  0.57895E+05
 0.46499996E+02  0.55895E+05
 0.46549995E+02  0.13500E+06
 0.46599998E+02  0.27830E+06
 0.46649998E+02  0.41464E+06
 0.46699997E+02  0.46546E+06
 0.46749996E+02  0.39913E+06
 0.46799995E+02  0.28872E+06
 0.46849998E+02  0.17929E+06
 0.46899998E+02  0.14848E+06
 0.46949997E+02  0.15873E+06
 0.46999996E+02  0.20695E+06
 0.47049995E+02  0.33847E+06
 0.47099998E+02  0.48944E+06
 0.47149998E+02  0.58432E+06
 0.47199997E+02  0.51671E+06
 0.47249996E+02  0.37352E+06
 0.47299995E+02  0.29904E+06
 0.47349998E+02  0.29120E+06
 0.47399998E+02  0.27898E+06
 0.47449997E+02  0.23512E+06
 0.47499996E+02  0.21712E+06
 0.47549995E+02  0.25475E+06
 0.47599998E+02  0.30825E+06
 0.47649998E+02  0.35268E+06
 0.47699997E+02  0.38769E+06
 0.47749996E+02  0.40043E+06
 0.47799995E+02  0.36934E+06
 0.47849998E+02  0.42144E+06
 0.47899998E+02  0.55307E+06
 0.47949997E+02  0.66335E+06
 0.47999996E+02  0.77083E+06
 0.48049995E+02  0.85365E+06
 0.48099998E+02  0.91663E+06
 0.48149998E+02  0.88582E+06
 0.48199997E+02  0.76622E+06
 0.48249996E+02  0.68449E+06
 0.48299995E+02  0.63502E+06
 0.48349998E+02  0.61383E+06
 0.48399998E+02  0.55728E+06
 0.48449997E+02  0.42028E+06
 0.48499996E+02  0.31110E+06
 0.48549995E+02  0.21032E+06
 0.48599998E+02  0.13143E+06
 0.48649998E+02  0.14688E+06
 0.48699997E+02  0.22612E+06
 0.48749996E+02  0.33501E+06
 0.48799995E+02  0.45415E+06
 0.48849998E+02  0.52084E+06
 0.48899998E+02  0.49246E+06
 0.48949997E+02  0.40277E+06
 0.48999996E+02  0.30664E+06
 0.49049995E+02  0.22845E+06
 0.49099998E+02  0.17161E+06
 0.49149998E+02  0.14963E+06
 0.49199997E+02  0.12085E+06
 0.49249996E+02  0.11311E+06
 0.49299995E+02  0.16067E+06
 0.49349998E+02  0.24032E+06
 0.49399998E+02  0.31820E+06
 0.49449997E+02  0.32449E+06
 0.49499996E+02  0.26742E+06
 0.49549995E+02  0.17169E+06
 0.49599998E+02  0.62242E+05
 0.49649998E+02 -0.17584E+05
 0.49699997E+02 -0.37844E+05
 0.49749996E+02  0.23605E+05
 0.49799995E+02  0.12859E+06
 0.49849998E+02  0.20299E+06
 0.49899998E+02  0.19056E+06
 0.49949997E+02  0.11766E+06
 0.49999996E+02  0.52243E+05
 0.50049995E+02  0.57939E+04
 0.50099998E+02 -0.77189E+05
 0.50149998E+02 -0.20230E+06
 0.50199997E+02 -0.29374E+06
 0.50249996E+02 -0.33749E+06
 0.50299995E+02 -0.37054E+06
 0.50349998E+02 -0.36912E+06
 0.50399998E+02 -0.34962E+06
 0.50449997E+02 -0.40495E+06
 0.50499996E+02 -0.50087E+06
 0.50549995E+02 -0.51552E+06
 0.50599998E+02 -0.41219E+06
 0.50649998E+02 -0.27473E+06
 0.50699997E+02 -0.14208E+06
 0.50749996E+02  0.20240E+05
 0.50799995E+02  0.17967E+06
 0.50849998E+02  0.25712E+06
 0.50899998E+02  0.23069E+06
 0.50949997E+02  0.17783E+06
 0.50999996E+02  0.14661E+06
 0.51049995E+02  0.13932E+06
 0.51099998E+02  0.16748E+06
 0.51149998E+02  0.17875E+06
 0.51199997E+02  0.17369E+06
 0.51249996E+02  0.22359E+06
 0.51299995E+02  0.31907E+06
 0.51349998E+02  0.40328E+06
 0.51399998E+02  0.45392E+06
 0.51449997E+02  0.52626E+06
 0.51499996E+02  0.56280E+06
 0.51549995E+02  0.50022E+06
 0.51599998E+02  0.37621E+06
 0.51649998E+02  0.25517E+06
 0.51699997E+02  0.17588E+06
 0.51749996E+02  0.78096E+05
 0.51799995E+02 -0.30105E+05
 0.51849998E+02 -0.11001E+06
 0.51899998E+02 -0.14423E+06
 0.51949997E+02 -0.14439E+06
 0.51999996E+02 -0.10777E+06
 0.52049995E+02 -0.57697E+05
 0.52099998E+02 -0.47848E+04
 0.52149998E+02  0.45158E+05
 0.52199997E+02  0.49503E+05
 0.52249996E+02  0.42137E+05
 0.52299995E+02  0.28010E+05
 0.52349998E+02 -0.12458E+05
 0.52399998E+02 -0.65381E+05
 0.52449997E+02 -0.68129E+05
 0.52499996E+02 -0.45074E+05
 0.52549995E+02 -0.71863E+05
 0.52599998E+02 -0.87529E+05
 0.52649998E+02 -0.75535E+05
 0.52699997E+02 -0.67622E+05
 0.52749996E+02 -0.95595E+05
 0.52799995E+02 -0.13205E+06
 0.52849998E+02 -0.15246E+06
 0.52899998E+02 -0.18353E+06
 0.52949997E+02 -0.18766E+06
 0.52999996E+02 -0.17220E+06
 0.53049995E+02 -0.14938E+06
 0.53099998E+02 -0.14001E+06
 0.53149998E+02 -0.12966E+06
 0.53199997E+02 -0.13815E+06
 0.53249996E+02 -0.19812E+06
 0.53299995E+02 -0.25638E+06
 0.53349998E+02 -0.31945E+06
 0.53399998E+02 -0.37578E+06
 0.53449997E+02 -0.37490E+06
 0.53499996E+02 -0.34890E+06
 0.53549995E+02 -0.31505E+06
 0.53599998E+02 -0.25990E+06
 0.53649998E+02 -0.22814E+06
 0.53699997E+02 -0.26124E+06
 0.53749996E+02 -0.35824E+06
 0.53799995E+02 -0.47191E+06
 0.53849998E+02 -0.56974E+06
 0.53899998E+02 -0.62487E+06
 0.53949997E+02 -0.60104E+06
 0.53999996E+02 -0.55502E+06
 0.54049995E+02 -0.55457E+06
 0.54099998E+02 -0.58146E+06
 0.54149998E+02 -0.57759E+06
 0.54199997E+02 -0.53404E+06
 0.54249996E+02 -0.47727E+06
 0.54299995E+02 -0.39071E+06
 0.54349998E+02 -0.29549E+06
 0.54399998E+02 -0.18771E+06
 0.54449997E+02 -0.71793E+05
 0.54499996E+02  0.46630E+05
 0.54549995E+02  0.18298E+06
 0.54599998E+02  0.25117E+06
 0.54649998E+02  0.20259E+06
 0.54699997E+02  0.76660E+05
 0.54749996E+02 -0.60805E+05
 0.54799995E+02 -0.16408E+06
 0.54849998E+02 -0.24281E+06
 0.54899998E+02 -0.31087E+06
 0.54949997E+02 -0.37935E+06
 0.54999996E+02 -0.43406E+06
 0.55049995E+02 -0.46191E+06
 0.55099998E+02 -0.48561E+06
 0.55149998E+02 -0.51288E+06
 0.55199997E+02 -0.53476E+06
 0.55249996E+02 -0.52873E+06
 0.55299995E+02 -0.51164E+06
 0.55349998E+02 -0.49036E+06
 0.55399998E+02 -0.47864E+06
 0.55449997E+02 -0.49778E+06
 0.55499996E+02 -0.56116E+06
 0.55549995E+02 -0.68556E+06
 0.55599998E+02 -0.84661E+06
 0.55649998E+02 -0.99877E+06
 0.55699997E+02 -0.10997E+07
 0.55749996E+02 -0.11696E+07
 0.55799995E+02 -0.11802E+07
 0.55849995E+02 -0.10841E+07
 0.55899998E+02 -0.95051E+06
 0.55949997E+02 -0.84626E+06
 0.55999996E+02 -0.80079E+06
 0.56049995E+02 -0.83061E+06
 0.56099995E+02 -0.90742E+06
 0.56149998E+02 -0.99469E+06
 0.56199997E+02 -0.10571E+07
 0.56249996E+02 -0.10694E+07
 0.56299995E+02 -0.10055E+07
 0.56349995E+02 -0.88385E+06
 0.56399998E+02 -0.72193E+06
 0.56449997E+02 -0.56478E+06
 0.56499996E+02 -0.48108E+06
 0.56549995E+02 -0.44947E+06
 0.56599995E+02 -0.44318E+06
 0.56649998E+02 -0.45195E+06
 0.56699997E+02 -0.44038E+06
 0.56749996E+02 -0.39458E+06
 0.56799995E+02 -0.36926E+06
 0.56849995E+02 -0.40427E+06
 0.56899998E+02 -0.43108E+06
 0.56949997E+02 -0.36880E+06
 0.56999996E+02 -0.23754E+06
 0.57049995E+02 -0.74223E+05
 0.57099995E+02  0.75255E+05
 0.57149998E+02  0.20470E+06
 0.57199997E+02  0.30260E+06
 0.57249996E+02  0.34936E+06
 0.57299995E+02  0.33428E+06
 0.57349995E+02  0.26204E+06
 0.57399998E+02  0.18129E+06
 0.57449997E+02  0.66286E+05
 0.57499996E+02 -0.69080E+05
 0.57549995E+02 -0.16765E+06
 0.57599995E+02 -0.16884E+06
 0.57649998E+02 -0.72064E+05
 0.57699997E+02  0.53218E+05
 0.57749996E+02  0.18552E+06
 0.57799995E+02  0.30257E+06
 0.57849995E+02  0.36511E+06
 0.57899998E+02  0.39569E+06
 0.57949997E+02  0.40530E+06
 0.57999996E+02  0.39674E+06
 0.58049995E+02  0.43468E+06
 0.58099995E+02  0.49186E+06
 0.58149998E+02  0.52110E+06
 0.58199997E+02  0.52846E+06
 0.58249996E+02  0.52946E+06
 0.58299995E+02  0.51075E+06
 0.58349995E+02  0.47832E+06
 0.58399998E+02  0.46869E+06
 0.58449997E+02  0.47311E+06
 0.58499996E+02  0.50760E+06
 0.58549995E+02  0.60416E+06
 0.58599995E+02  0.75570E+06
 0.58649998E+02  0.91561E+06
 0.58699997E+02  0.10418E+07
 0.58749996E+02  0.11087E+07
 0.58799995E+02  0.11227E+07
 0.58849995E+02  0.11062E+07
 0.58899998E+02  0.10951E+07
 0.58949997E+02  0.11046E+07
 0.58999996E+02  0.10853E+07
 0.59049995E+02  0.10165E+07
 0.59099995E+02  0.91358E+06
 0.59149998E+02  0.83510E+06
 0.59199997E+02  0.80601E+06
 0.59249996E+02  0.80593E+06
 0.59299995E+02  0.83457E+06
 0.59349995E+02  0.84027E+06
 0.59399998E+02  0.80986E+06
 0.59449997E+02  0.77998E+06
 0.59499996E+02  0.77656E+06
 0.59549995E+02  0.79814E+06
 0.59599995E+02  0.82130E+06
 0.59649998E+02  0.85335E+06
 0.59699997E+02  0.88842E+06
 0.59749996E+02  0.89047E+06
 0.59799995E+02  0.86178E+06
 0.59849995E+02  0.82630E+06
 0.59899998E+02  0.78519E+06
 0.59949997E+02  0.71999E+06
 0.59999996E+02  0.61706E+06
 0.60049995E+02  0.49847E+06
 0.60099995E+02  0.41081E+06
 0.60149998E+02  0.37959E+06
 0.60199997E+02  0.38070E+06
 0.60249996E+02  0.42058E+06
 0.60299995E+02  0.53104E+06
 0.60349995E+02  0.65618E+06
 0.60399998E+02  0.72981E+06
 0.60449997E+02  0.73164E+06
 0.60499996E+02  0.68411E+06
 0.60549995E+02  0.60209E+06
 0.60599995E+02  0.48440E+06
 0.60649998E+02  0.36908E+06
 0.60699997E+02  0.26467E+06
 0.60749996E+02  0.17910E+06
 0.60799995E+02  0.10491E+06
 0.60849995E+02  0.27931E+05
 0.60899998E+02 -0.54020E+05
 0.60949997E+02 -0.14221E+06
 0.60999996E+02 -0.21497E+06
 0.61049995E+02 -0.28062E+06
 0.61099995E+02 -0.31576E+06
 0.61149998E+02 -0.27994E+06
 0.61199997E+02 -0.18331E+06
 0.61249996E+02 -0.28570E+05
 0.61299995E+02  0.16668E+06
 0.61349995E+02  0.37864E+06
 0.61399998E+02  0.57184E+06
 0.61449997E+02  0.68184E+06
 0.61499996E+02  0.70123E+06
 0.61549995E+02  0.65067E+06
 0.61599995E+02  0.54954E+06
 0.61649998E+02  0.43876E+06
 0.61699997E+02  0.36594E+06
 0.61749996E+02  0.34963E+06
 0.61799995E+02  0.36703E+06
 0.61849995E+02  0.37859E+06
 0.61899998E+02  0.36549E+06
 0.61949997E+02  0.33894E+06
 0.61999996E+02  0.31133E+06
 0.62049995E+02  0.28800E+06
 0.62099998E+02  0.26496E+06
 0.62149994E+02  0.27424E+06
 0.62199997E+02  0.30887E+06
 0.62249992E+02  0.31239E+06
 0.62299995E+02  0.26091E+06
 0.62349998E+02  0.14639E+06
 0.62399994E+02 -0.95374E+04
 0.62449997E+02 -0.17797E+06
 0.62499992E+02 -0.32897E+06
 0.62549995E+02 -0.44228E+06
 0.62599998E+02 -0.50769E+06
 0.62649994E+02 -0.52107E+06
 0.62699997E+02 -0.49999E+06
 0.62749992E+02 -0.45740E+06
 0.62799995E+02 -0.41511E+06
 0.62849998E+02 -0.38354E+06
 0.62899994E+02 -0.34937E+06
 0.62949997E+02 -0.34303E+06
 0.62999992E+02 -0.37948E+06
 0.63049995E+02 -0.43989E+06
 0.63099998E+02 -0.50270E+06
 0.63149994E+02 -0.53464E+06
 0.63199997E+02 -0.56717E+06
 0.63249992E+02 -0.61540E+06
 0.63299995E+02 -0.64383E+06
 0.63349998E+02 -0.65536E+06
 0.63399994E+02 -0.64978E+06
 0.63449997E+02 -0.62264E+06
 0.63499992E+02 -0.59451E+06
 0.63549995E+02 -0.55195E+06
 0.63599998E+02 -0.49715E+06
 0.63649994E+02 -0.46874E+06
 0.63699997E+02 -0.46298E+06
 0.63749992E+02 -0.46171E+06
 0.63799995E+02 -0.47185E+06
 0.63849998E+02 -0.53104E+06
 0.63899994E+02 -0.62292E+06
 0.63949997E+02 -0.70923E+06
 0.63999992E+02 -0.78897E+06
 0.64049995E+02 -0.85800E+06
 0.64099998E+02 -0.90822E+06
 0.64149994E+02 -0.91577E+06
 0.64199997E+02 -0.86252E+06
 0.64249992E+02 -0.76944E+06
 0.64299995E+02 -0.66222E+06
 0.64349998E+02 -0.55069E+06
 0.64399994E+02 -0.46132E+06
 0.64449997E+02 -0.40014E+06
 0.64499992E+02 -0.38409E+06
 0.64549995E+02 -0.42120E+06
 0.64599998E+02 -0.49533E+06
 0.64649994E+02 -0.60623E+06
 0.64699997E+02 -0.73491E+06
 0.64749992E+02 -0.86576E+06
 0.64799995E+02 -0.98675E+06
 0.64849998E+02 -0.10879E+07
 0.64899994E+02 -0.11567E+07
 0.64949997E+02 -0.11807E+07
 0.64999992E+02 -0.11877E+07
 0.65049995E+02 -0.11845E+07
 0.65099998E+02 -0.11563E+07
 0.65149994E+02 -0.11244E+07
 0.65199997E+02 -0.11078E+07
 0.65249992E+02 -0.11150E+07
 0.65299995E+02 -0.11385E+07
 0.65349998E+02 -0.11663E+07
 0.65399994E+02 -0.11846E+07
 0.65449997E+02 -0.11870E+07
 0.65499992E+02 -0.11603E+07
 0.65549995E+02 -0.11010E+07
 0.65599998E+02 -0.10317E+07
 0.65649994E+02 -0.94111E+06
 0.65699997E+02 -0.82904E+06
 0.65749992E+02 -0.70616E+06
 0.65799995E+02 -0.57520E+06
 0.65849998E+02 -0.43513E+06
 0.65899994E+02 -0.31862E+06
 0.65949997E+02 -0.23044E+06
 0.65999992E+02 -0.13918E+06
 0.66049995E+02 -0.56601E+05
 0.66099998E+02  0.10216E+05
 0.66149994E+02  0.64369E+05
 0.66199997E+02  0.83318E+05
 0.66249992E+02  0.59179E+05
 0.66299995E+02  0.25299E+05
 0.66349998E+02  0.85433E+03
 0.66399994E+02  0.36848E+04
 0.66449997E+02  0.40730E+05
 0.66499992E+02  0.93872E+05
 0.66549995E+02  0.16345E+06
 0.66599998E+02  0.26272E+06
 0.66649994E+02  0.37229E+06
 0.66699997E+02  0.46373E+06
 0.66749992E+02  0.52960E+06
 0.66799995E+02  0.59001E+06
 0.66849998E+02  0.65951E+06
 0.66899994E+02  0.73584E+06
 0.66949997E+02  0.80018E+06
 0.66999992E+02  0.83791E+06
 0.67049995E+02  0.86439E+06
 0.67099998E+02  0.88800E+06
 0.67149994E+02  0.89421E+06
 0.67199997E+02  0.88618E+06
 0.67249992E+02  0.88816E+06
 0.67299995E+02  0.91220E+06
 0.67349998E+02  0.96183E+06
 0.67399994E+02  0.10259E+07
 0.67449997E+02  0.10971E+07
 0.67499992E+02  0.11591E+07
 0.67549995E+02  0.12135E+07
 0.67599998E+02  0.12682E+07
 0.67649994E+02  0.12958E+07
 0.67699997E+02  0.12924E+07
 0.67749992E+02  0.12767E+07
 0.67799995E+02  0.12564E+07
 0.67849998E+02  0.12286E+07
 0.67899994E+02  0.12102E+07
 0.67949997E+02  0.12233E+07
 0.67999992E+02  0.12566E+07
 0.68049995E+02  0.13027E+07
 0.68099998E+02  0.13562E+07
 0.68149994E+02  0.13993E+07
 0.68199997E+02  0.14128E+07
 0.68249992E+02  0.13981E+07
 0.68299995E+02  0.13681E+07
 0.68349998E+02  0.12990E+07
 0.68399994E+02  0.12020E+07
 0.68449997E+02  0.11077E+07
 0.68499992E+02  0.10088E+07
 0.68549995E+02  0.89482E+06
 0.68599998E+02  0.76945E+06
 0.68649994E+02  0.64339E+06
 0.68699997E+02  0.51720E+06
 0.68749992E+02  0.38591E+06
 0.68799995E+02  0.25880E+06
 0.68849998E+02  0.16401E+06
 0.68899994E+02  0.88038E+05
 0.68949997E+02  0.15858E+05
 0.68999992E+02 -0.69868E+05
 0.69049995E+02 -0.19175E+06
 0.69099998E+02 -0.35884E+06
 0.69149994E+02 -0.56915E+06
 0.69199997E+02 -0.78754E+06
 0.69249992E+02 -0.98899E+06
 0.69299995E+02 -0.11533E+07
 0.69349998E+02 -0.12810E+07
 0.69399994E+02 -0.13730E+07
 0.69449997E+02 -0.14158E+07
 0.69499992E+02 -0.14090E+07
 0.69549995E+02 -0.13580E+07
 0.69599998E+02 -0.12737E+07
 0.69649994E+02 -0.11701E+07
 0.69699997E+02 -0.10601E+07
 0.69749992E+02 -0.96129E+06
 0.69799995E+02 -0.86656E+06
 0.69849998E+02 -0.75305E+06
 0.69899994E+02 -0.63196E+06
 0.69949997E+02 -0.52547E+06
 0.69999992E+02 -0.43100E+06
 0.70049995E+02 -0.33307E+06
 0.70099998E+02 -0.23402E+06
 0.70149994E+02 -0.13071E+06
 0.70199997E+02 -0.24271E+05
 0.70249992E+02  0.65495E+05
 0.70299995E+02  0.12268E+06
 0.70349998E+02  0.15267E+06
 0.70399994E+02  0.15077E+06
 0.70449997E+02  0.11280E+06
 0.70499992E+02  0.83020E+05
 0.70549995E+02  0.66397E+05
 0.70599998E+02  0.42426E+05
 0.70649994E+02  0.17257E+05
 0.70699997E+02 -0.12492E+05
 0.70749992E+02 -0.54814E+05
 0.70799995E+02 -0.98373E+05
 0.70849998E+02 -0.13928E+06
 0.70899994E+02 -0.18486E+06
 0.70949997E+02 -0.23096E+06
 0.70999992E+02 -0.25361E+06
 0.71049995E+02 -0.24388E+06
 0.71099998E+02 -0.22129E+06
 0.71149994E+02 -0.17928E+06
 0.71199997E+02 -0.12956E+06
 0.71249992E+02 -0.83369E+05
 0.71299995E+02 -0.31538E+05
 0.71349998E+02  0.43992E+05
 0.71399994E+02  0.13530E+06
 0.71449997E+02  0.21638E+06
 0.71499992E+02  0.31100E+06
 0.71549995E+02  0.41229E+06
 0.71599998E+02  0.48905E+06
 0.71649994E+02  0.54117E+06
 0.71699997E+02  0.56881E+06
 0.71749992E+02  0.55328E+06
 0.71799995E+02  0.49218E+06
 0.71849998E+02  0.41725E+06
 0.71899994E+02  0.34564E+06
 0.71949997E+02  0.28233E+06
 0.71999992E+02  0.22461E+06
 0.72049995E+02  0.18450E+06
 0.72099998E+02  0.16771E+06
 0.72149994E+02  0.16630E+06
 0.72199997E+02  0.17602E+06
 0.72249992E+02  0.18809E+06
 0.72299995E+02  0.20692E+06
 0.72349998E+02  0.23179E+06
 0.72399994E+02  0.25411E+06
 0.72449997E+02  0.25661E+06
 0.72499992E+02  0.24182E+06
 0.72549995E+02  0.19587E+06
 0.72599998E+02  0.10857E+06
 0.72649994E+02  0.84612E+04
 0.72699997E+02 -0.87873E+05
 0.72749992E+02 -0.17603E+06
 0.72799995E+02 -0.25795E+06
 0.72849998E+02 -0.32002E+06
 0.72899994E+02 -0.35626E+06
 0.72949997E+02 -0.36965E+06
 0.72999992E+02 -0.35550E+06
 0.73049995E+02 -0.33180E+06
 0.73099998E+02 -0.30953E+06
 0.73149994E+02 -0.28479E+06
 0.73199997E+02 -0.25473E+06
 0.73249992E+02 -0.21871E+06
 0.73299995E+02 -0.18942E+06
 0.73349998E+02 -0.16617E+06
 0.73399994E+02 -0.14494E+06
 0.73449997E+02 -0.13522E+06
 0.73499992E+02 -0.13268E+06
 0.73549995E+02 -0.13254E+06
 0.73599998E+02 -0.15717E+06
 0.73649994E+02 -0.21097E+06
 0.73699997E+02 -0.26476E+06
 0.73749992E+02 -0.30855E+06
 0.73799995E+02 -0.33139E+06
 0.73849998E+02 -0.30765E+06
 0.73899994E+02 -0.25602E+06
 0.73949997E+02 -0.18919E+06
 0.73999992E+02 -0.11970E+06
 0.74049995E+02 -0.72192E+05
 0.74099998E+02 -0.25289E+05
 0.74149994E+02  0.16668E+05
 0.74199997E+02  0.37570E+05
 0.74249992E+02  0.26143E+05
 0.74299995E+02 -0.33608E+04
 0.74349998E+02 -0.38149E+05
 0.74399994E+02 -0.88664E+05
 0.74449997E+02 -0.14642E+06
 0.74499992E+02 -0.19750E+06
 0.74549995E+02 -0.23118E+06
 0.74599998E+02 -0.26545E+06
 0.74649994E+02 -0.29376E+06
 0.74699997E+02 -0.30654E+06
 0.74749992E+02 -0.30073E+06
 0.74799995E+02 -0.28372E+06
 0.74849998E+02 -0.27747E+06
 0.74899994E+02 -0.27346E+06
 0.74949997E+02 -0.26711E+06
 0.74999992E+02 -0.24387E+06
 0.75049995E+02 -0.21322E+06
 0.75099998E+02 -0.19692E+06
 0.75149994E+02 -0.16226E+06
 0.75199997E+02 -0.97083E+05
 0.75249992E+02 -0.23455E+05
 0.75299995E+02  0.33478E+05
 0.75349998E+02  0.68286E+05
 0.75399994E+02  0.99753E+05
 0.75449997E+02  0.12070E+06
 0.75499992E+02  0.12851E+06
 0.75549995E+02  0.13122E+06
 0.75599998E+02  0.11818E+06
 0.75649994E+02  0.86401E+05
 0.75699997E+02  0.49258E+05
 0.75749992E+02  0.22487E+05
 0.75799995E+02  0.18376E+05
 0.75849998E+02  0.46389E+05
 0.75899994E+02  0.10710E+06
 0.75949997E+02  0.17308E+06
 0.75999992E+02  0.23065E+06
 0.76049995E+02  0.28795E+06
 0.76099998E+02  0.32244E+06
 0.76149994E+02  0.32124E+06
 0.76199997E+02  0.30550E+06
 0.76249992E+02  0.28335E+06
 0.76299995E+02  0.23785E+06
 0.76349998E+02  0.17287E+06
 0.76399994E+02  0.11566E+06
 0.76449997E+02  0.70633E+05
 0.76499992E+02  0.24519E+05
 0.76549995E+02 -0.15530E+05
 0.76599998E+02 -0.30508E+05
 0.76649994E+02 -0.33420E+05
 0.76699997E+02 -0.29493E+05
 0.76749992E+02 -0.54989E+04
 0.76799995E+02  0.23160E+05
 0.76849998E+02  0.38845E+05
 0.76899994E+02  0.65209E+05
 0.76949997E+02  0.11705E+06
 0.76999992E+02  0.16813E+06
 0.77049995E+02  0.21551E+06
 0.77099998E+02  0.25813E+06
 0.77149994E+02  0.27678E+06
 0.77199997E+02  0.29089E+06
 0.77249992E+02  0.31759E+06
 0.77299995E+02  0.33166E+06
 0.77349998E+02  0.34670E+06
 0.77399994E+02  0.37864E+06
 0.77449997E+02  0.41648E+06
 0.77499992E+02  0.45512E+06
 0.77549995E+02  0.49027E+06
 0.77599998E+02  0.52111E+06
 0.77649994E+02  0.54050E+06
 0.77699997E+02  0.53983E+06
 0.77749992E+02  0.51158E+06
 0.77799995E+02  0.48124E+06
 0.77849998E+02  0.46208E+06
 0.77899994E+02  0.44348E+06
 0.77949997E+02  0.40910E+06
 0.77999992E+02  0.36265E+06
 0.78049995E+02  0.33321E+06
 0.78099998E+02  0.30367E+06
 0.78149994E+02  0.25939E+06
 0.78199997E+02  0.20946E+06
 0.78249992E+02  0.15447E+06
 0.78299995E+02  0.93801E+05
 0.78349998E+02  0.17636E+05
 0.78399994E+02 -0.74065E+05
 0.78449997E+02 -0.17598E+06
 0.78499992E+02 -0.26759E+06
 0.78549995E+02 -0.34334E+06
 0.78599998E+02 -0.41792E+06
 0.78649994E+02 -0.47105E+06
 0.78699997E+02 -0.50358E+06
 0.78749992E+02 -0.52295E+06
 0.78799995E+02 -0.52493E+06
 0.78849998E+02 -0.50477E+06
 0.78899994E+02 -0.46104E+06
 0.78949997E+02 -0.40679E+06
 0.78999992E+02 -0.36012E+06
 0.79049995E+02 -0.32306E+06
 0.79099998E+02 -0.28983E+06
 0.79149994E+02 -0.27381E+06
 0.79199997E+02 -0.25901E+06
 0.79249992E+02 -0.22884E+06
 0.79299995E+02 -0.21994E+06
 0.79349998E+02 -0.22622E+06
 0.79399994E+02 -0.21907E+06
 0.79449997E+02 -0.21483E+06
 0.79499992E+02 -0.20606E+06
 0.79549995E+02 -0.17555E+06
 0.79599998E+02 -0.14613E+06
 0.79649994E+02 -0.11583E+06
 0.79699997E+02 -0.60271E+05
 0.79749992E+02  0.63435E+04
 0.79799995E+02  0.73829E+05
 0.79849998E+02  0.13645E+06
 0.79899994E+02  0.20344E+06
 0.79949997E+02  0.24620E+06
 0.79999992E+02  0.23861E+06
 0.80049995E+02  0.23700E+06
 0.80099998E+02  0.24490E+06
 0.80149994E+02  0.21581E+06
 0.80199997E+02  0.16422E+06
 0.80249992E+02  0.12291E+06
 0.80299995E+02  0.69046E+05
 0.80349998E+02  0.33961E+04
 0.80399994E+02 -0.28662E+05
 0.80449997E+02 -0.45036E+05
 0.80499992E+02 -0.64682E+05
 0.80549995E+02 -0.78172E+05
 0.80599998E+02 -0.74466E+05
 0.80649994E+02 -0.64809E+05
 0.80699997E+02 -0.76631E+05
 0.80749992E+02 -0.87079E+05
 0.80799995E+02 -0.98727E+05
 0.80849998E+02 -0.10837E+06
 0.80899994E+02 -0.96521E+05
 0.80949997E+02 -0.90247E+05
 0.80999992E+02 -0.11890E+06
 0.81049995E+02 -0.17787E+06
 0.81099998E+02 -0.24457E+06
 0.81149994E+02 -0.32521E+06
 0.81199997E+02 -0.40853E+06
 0.81249992E+02 -0.45410E+06
 0.81299995E+02 -0.47153E+06
 0.81349998E+02 -0.49046E+06
 0.81399994E+02 -0.50141E+06
 0.81449997E+02 -0.49051E+06
 0.81499992E+02 -0.47300E+06
 0.81549995E+02 -0.44420E+06
 0.81599998E+02 -0.38918E+06
 0.81649994E+02 -0.33708E+06
 0.81699997E+02 -0.30730E+06
 0.81749992E+02 -0.27208E+06
 0.81799995E+02 -0.22473E+06
 0.81849998E+02 -0.19410E+06
 0.81899994E+02 -0.17080E+06
 0.81949997E+02 -0.13697E+06
 0.81999992E+02 -0.10110E+06
 0.82049995E+02 -0.65319E+05
 0.82099998E+02 -0.36727E+05
 0.82149994E+02 -0.12433E+05
 0.82199997E+02  0.10671E+05
 0.82249992E+02  0.44596E+05
 0.82299995E+02  0.88789E+05
 0.82349998E+02  0.12129E+06
 0.82399994E+02  0.13557E+06
 0.82449997E+02  0.12862E+06
 0.82499992E+02  0.11831E+06
 0.82549995E+02  0.10591E+06
 0.82599998E+02  0.93109E+05
 0.82649994E+02  0.79031E+05
 0.82699997E+02  0.42835E+05
 0.82749992E+02 -0.46800E+04
 0.82799995E+02 -0.30449E+05
 0.82849998E+02 -0.33294E+05
 0.82899994E+02 -0.67209E+05
 0.82949997E+02 -0.12135E+06
 0.82999992E+02 -0.15198E+06
 0.83049995E+02 -0.17024E+06
 0.83099998E+02 -0.15800E+06
 0.83149994E+02 -0.12675E+06
 0.83199997E+02 -0.10916E+06
 0.83249992E+02 -0.92386E+05
 0.83299995E+02 -0.65039E+05
 0.83349998E+02 -0.38569E+05
 0.83399994E+02 -0.11106E+05
 0.83449997E+02  0.24736E+05
 0.83499992E+02  0.53550E+05
 0.83549995E+02  0.67793E+05
 0.83599998E+02  0.68097E+05
 0.83649994E+02  0.76984E+05
 0.83699997E+02  0.99921E+05
 0.83749992E+02  0.11536E+06
 0.83799995E+02  0.11938E+06
 0.83849998E+02  0.14133E+06
 0.83899994E+02  0.15788E+06
 0.83949997E+02  0.12540E+06
 0.83999992E+02  0.92263E+05
 0.84049995E+02  0.91264E+05
 0.84099998E+02  0.85991E+05
 0.84149994E+02  0.71735E+05
 0.84199997E+02  0.85477E+05
 0.84249992E+02  0.11024E+06
 0.84299995E+02  0.13014E+06
 0.84349998E+02  0.17020E+06
 0.84399994E+02  0.21288E+06
 0.84449997E+02  0.22835E+06
 0.84499992E+02  0.24864E+06
 0.84549995E+02  0.29386E+06
 0.84599998E+02  0.34768E+06
 0.84649994E+02  0.40087E+06
 0.84699997E+02  0.44547E+06
 0.84749992E+02  0.47945E+06
 0.84799995E+02  0.49812E+06
 0.84849998E+02  0.51651E+06
 0.84899994E+02  0.54481E+06
 0.84949997E+02  0.58270E+06
 0.84999992E+02  0.62346E+06
 0.85049995E+02  0.66357E+06
 0.85099998E+02  0.70115E+06
 0.85149994E+02  0.71630E+06
 0.85199997E+02  0.71385E+06
 0.85249992E+02  0.71007E+06
 0.85299995E+02  0.68179E+06
 0.85349998E+02  0.61746E+06
 0.85399994E+02  0.55714E+06
 0.85449997E+02  0.51398E+06
 0.85499992E+02  0.48317E+06
 0.85549995E+02  0.45494E+06
 0.85599998E+02  0.41631E+06
 0.85649994E+02  0.37708E+06
 0.85699997E+02  0.33704E+06
 0.85749992E+02  0.29414E+06
 0.85799995E+02  0.26578E+06
 0.85849998E+02  0.24205E+06
 0.85899994E+02  0.20533E+06
 0.85949997E+02  0.16980E+06
 0.85999992E+02  0.14618E+06
 0.86049995E+02  0.12524E+06
 0.86099998E+02  0.10836E+06
 0.86149994E+02  0.10357E+06
 0.86199997E+02  0.81774E+05
 0.86249992E+02  0.32864E+05
 0.86299995E+02 -0.20488E+05
 0.86349998E+02 -0.85609E+05
 0.86399994E+02 -0.17791E+06
 0.86449997E+02 -0.27941E+06
 0.86499992E+02 -0.36530E+06
 0.86549995E+02 -0.43972E+06
 0.86599998E+02 -0.51075E+06
 0.86649994E+02 -0.57672E+06
 0.86699997E+02 -0.63045E+06
 0.86749992E+02 -0.67667E+06
 0.86799995E+02 -0.71350E+06
 0.86849998E+02 -0.72217E+06
 0.86899994E+02 -0.72012E+06
 0.86949997E+02 -0.72921E+06
 0.86999992E+02 -0.73871E+06
 0.87049995E+02 -0.74190E+06
 0.87099998E+02 -0.72768E+06
 0.87149994E+02 -0.70114E+06
 0.87199997E+02 -0.67368E+06
 0.87249992E+02 -0.63756E+06
 0.87299995E+02 -0.60128E+06
 0.87349998E+02 -0.56757E+06
 0.87399994E+02 -0.53936E+06
 0.87449997E+02 -0.50543E+06
 0.87499992E+02 -0.44702E+06
 0.87549995E+02 -0.39342E+06
 0.87599991E+02 -0.35762E+06
 0.87649994E+02 -0.31217E+06
 0.87699997E+02 -0.25029E+06
 0.87749992E+02 -0.19713E+06
 0.87799995E+02 -0.15988E+06
 0.87849991E+02 -0.11202E+06
 0.87899994E+02 -0.58223E+05
 0.87949997E+02 -0.23820E+05
 0.87999992E+02 -0.23237E+04
 0.88049995E+02  0.27758E+05
 0.88099991E+02  0.51227E+05
 0.88149994E+02  0.47879E+05
 0.88199997E+02  0.38956E+05
 0.88249992E+02  0.36542E+05
 0.88299995E+02  0.39337E+05
 0.88349991E+02  0.53394E+05
 0.88399994E+02  0.71520E+05
 0.88449997E+02  0.94164E+05
 0.88499992E+02  0.12678E+06
 0.88549995E+02  0.16482E+06
 0.88599991E+02  0.20157E+06
 0.88649994E+02  0.23448E+06
 0.88699997E+02  0.26436E+06
 0.88749992E+02  0.27723E+06
 0.88799995E+02  0.28418E+06
 0.88849991E+02  0.30502E+06
 0.88899994E+02  0.32426E+06
 0.88949997E+02  0.33844E+06
 0.88999992E+02  0.35142E+06
 0.89049995E+02  0.36356E+06
 0.89099991E+02  0.37361E+06
 0.89149994E+02  0.37739E+06
 0.89199997E+02  0.37917E+06
 0.89249992E+02  0.38014E+06
 0.89299995E+02  0.36337E+06
 0.89349991E+02  0.31938E+06
 0.89399994E+02  0.25943E+06
 0.89449997E+02  0.19357E+06
 0.89499992E+02  0.13535E+06
 0.89549995E+02  0.74017E+05
 0.89599991E+02  0.15974E+04
 0.89649994E+02 -0.70321E+05
 0.89699997E+02 -0.14778E+06
 0.89749992E+02 -0.24316E+06
 0.89799995E+02 -0.34314E+06
 0.89849991E+02 -0.41217E+06
 0.89899994E+02 -0.45393E+06
 0.89949997E+02 -0.49078E+06
 0.89999992E+02 -0.51472E+06
 0.90049995E+02 -0.50866E+06
 0.90099991E+02 -0.47745E+06
 0.90149994E+02 -0.43655E+06
 0.90199997E+02 -0.38991E+06
 0.90249992E+02 -0.33530E+06
 0.90299995E+02 -0.26416E+06
 0.90349991E+02 -0.18284E+06
 0.90399994E+02 -0.94489E+05
 0.90449997E+02 -0.49234E+04
 0.90499992E+02  0.68329E+05
 0.90549995E+02  0.12158E+06
 0.90599991E+02  0.16015E+06
 0.90649994E+02  0.19544E+06
 0.90699997E+02  0.23149E+06
 0.90749992E+02  0.25802E+06
 0.90799995E+02  0.26536E+06
 0.90849991E+02  0.25678E+06
 0.90899994E+02  0.24953E+06
 0.90949997E+02  0.25689E+06
 0.90999992E+02  0.26893E+06
 0.91049995E+02  0.27632E+06
 0.91099991E+02  0.27689E+06
 0.91149994E+02  0.27540E+06
 0.91199997E+02  0.27389E+06
 0.91249992E+02  0.26437E+06
 0.91299995E+02  0.25209E+06
 0.91349991E+02  0.24709E+06
 0.91399994E+02  0.24258E+06
 0.91449997E+02  0.23027E+06
 0.91499992E+02  0.21173E+06
 0.91549995E+02  0.19087E+06
 0.91599991E+02  0.17160E+06
 0.91649994E+02  0.16339E+06
 0.91699997E+02  0.15998E+06
 0.91749992E+02  0.14050E+06
 0.91799995E+02  0.11801E+06
 0.91849991E+02  0.10118E+06
 0.91899994E+02  0.80076E+05
 0.91949997E+02  0.55530E+05
 0.91999992E+02  0.29947E+05
 0.92049995E+02  0.18194E+04
 0.92099991E+02 -0.35168E+05
 0.92149994E+02 -0.76998E+05
 0.92199997E+02 -0.12245E+06
 0.92249992E+02 -0.16874E+06
 0.92299995E+02 -0.21471E+06
 0.92349991E+02 -0.26142E+06
 0.92399994E+02 -0.30476E+06
 0.92449997E+02 -0.34306E+06
 0.92499992E+02 -0.37404E+06
 0.92549995E+02 -0.39052E+06
 0.92599991E+02 -0.39373E+06
 0.92649994E+02 -0.39142E+06
 0.92699997E+02 -0.37921E+06
 0.92749992E+02 -0.36867E+06
 0.92799995E+02 -0.36431E+06
 0.92849991E+02 -0.36113E+06
 0.92899994E+02 -0.35642E+06
 0.92949997E+02 -0.34796E+06
 0.92999992E+02 -0.33319E+06
 0.93049995E+02 -0.31236E+06
 0.93099991E+02 -0.29876E+06
 0.93149994E+02 -0.28630E+06
 0.93199997E+02 -0.27215E+06
 0.93249992E+02 -0.25864E+06
 0.93299995E+02 -0.23406E+06
 0.93349991E+02 -0.20308E+06
 0.93399994E+02 -0.17067E+06
 0.93449997E+02 -0.12950E+06
 0.93499992E+02 -0.78637E+05
 0.93549995E+02 -0.34030E+05
 0.93599991E+02 -0.11550E+05
 0.93649994E+02  0.37990E+04
 0.93699997E+02  0.19715E+05
 0.93749992E+02  0.21972E+05
 0.93799995E+02  0.86231E+04
 0.93849991E+02 -0.61174E+04
 0.93899994E+02 -0.17106E+05
 0.93949997E+02 -0.39357E+05
 0.93999992E+02 -0.61213E+05
 0.94049995E+02 -0.66290E+05
 0.94099991E+02 -0.57243E+05
 0.94149994E+02 -0.35035E+05
 0.94199997E+02  0.59208E+04
 0.94249992E+02  0.55491E+05
 0.94299995E+02  0.97168E+05
 0.94349991E+02  0.14588E+06
 0.94399994E+02  0.19988E+06
 0.94449997E+02  0.24316E+06
 0.94499992E+02  0.27170E+06
 0.94549995E+02  0.29620E+06
 0.94599991E+02  0.31835E+06
 0.94649994E+02  0.33350E+06
 0.94699997E+02  0.35141E+06
 0.94749992E+02  0.36841E+06
 0.94799995E+02  0.38291E+06
 0.94849991E+02  0.39697E+06
 0.94899994E+02  0.40714E+06
 0.94949997E+02  0.41906E+06
 0.94999992E+02  0.43804E+06
 0.95049995E+02  0.45876E+06
 0.95099991E+02  0.47819E+06
 0.95149994E+02  0.49751E+06
 0.95199997E+02  0.50951E+06
 0.95249992E+02  0.50498E+06
 0.95299995E+02  0.49331E+06
 0.95349991E+02  0.48749E+06
 0.95399994E+02  0.48338E+06
 0.95449997E+02  0.47795E+06
 0.95499992E+02  0.47372E+06
 0.95549995E+02  0.46745E+06
 0.95599991E+02  0.45280E+06
 0.95649994E+02  0.43034E+06
 0.95699997E+02  0.39881E+06
 0.95749992E+02  0.35942E+06
 0.95799995E+02  0.31799E+06
 0.95849991E+02  0.27603E+06
 0.95899994E+02  0.23138E+06
 0.95949997E+02  0.19041E+06
 0.95999992E+02  0.15704E+06
 0.96049995E+02  0.11498E+06
 0.96099991E+02  0.62966E+05
 0.96149994E+02  0.82214E+04
 0.96199997E+02 -0.47941E+05
 0.96249992E+02 -0.10050E+06
 0.96299995E+02 -0.15243E+06
 0.96349991E+02 -0.20341E+06
 0.96399994E+02 -0.24796E+06
 0.96449997E+02 -0.29229E+06
 0.96499992E+02 -0.33010E+06
 0.96549995E+02 -0.35188E+06
 0.96599991E+02 -0.35773E+06
 0.96649994E+02 -0.35298E+06
 0.96699997E+02 -0.35072E+06
 0.96749992E+02 -0.34921E+06
 0.96799995E+02 -0.33859E+06
 0.96849991E+02 -0.32611E+06
 0.96899994E+02 -0.31805E+06
 0.96949997E+02 -0.31176E+06
 0.96999992E+02 -0.30583E+06
 0.97049995E+02 -0.29948E+06
 0.97099991E+02 -0.29268E+06
 0.97149994E+02 -0.28702E+06
 0.97199997E+02 -0.28240E+06
 0.97249992E+02 -0.27199E+06
 0.97299995E+02 -0.25800E+06
 0.97349991E+02 -0.24501E+06
 0.97399994E+02 -0.22977E+06
 0.97449997E+02 -0.21281E+06
 0.97499992E+02 -0.20700E+06
 0.97549995E+02 -0.21358E+06
 0.97599991E+02 -0.22088E+06
 0.97649994E+02 -0.23972E+06
 0.97699997E+02 -0.27650E+06
 0.97749992E+02 -0.31494E+06
 0.97799995E+02 -0.34824E+06
 0.97849991E+02 -0.37684E+06
 0.97899994E+02 -0.40673E+06
 0.97949997E+02 -0.43665E+06
 0.97999992E+02 -0.45662E+06
