-0.19969940E+01 -0.25316E+05
-0.19469941E+01 -0.25180E+05
-0.18969940E+01 -0.25283E+05
-0.18469940E+01 -0.25279E+05
-0.17969940E+01 -0.25278E+05
-0.17469940E+01 -0.25275E+05
-0.16969941E+01 -0.25276E+05
-0.16469941E+01 -0.25274E+05
-0.15969940E+01 -0.25278E+05
-0.15469940E+01 -0.25277E+05
-0.14969940E+01 -0.25278E+05
-0.14469941E+01 -0.25279E+05
-0.13969941E+01 -0.25275E+05
-0.13469940E+01 -0.25282E+05
-0.12969941E+01 -0.25283E+05
-0.12469940E+01 -0.25284E+05
-0.11969941E+01 -0.25282E+05
-0.11469941E+01 -0.25281E+05
-0.10969940E+01 -0.25278E+05
-0.10469941E+01 -0.25277E+05
-0.99699408E+00 -0.25271E+05
-0.94699407E+00 -0.25271E+05
-0.89699411E+00 -0.25273E+05
-0.84699404E+00 -0.25278E+05
-0.79699409E+00 -0.25280E+05
-0.74699414E+00 -0.25283E+05
-0.69699407E+00 -0.25285E+05
-0.64699411E+00 -0.25286E+05
-0.59699416E+00 -0.25291E+05
-0.54699409E+00 -0.25292E+05
-0.49699414E+00 -0.25294E+05
-0.44699407E+00 -0.25292E+05
-0.39699411E+00 -0.25293E+05
-0.34699416E+00 -0.25290E+05
-0.29699409E+00 -0.25289E+05
-0.24699414E+00 -0.25286E+05
-0.19699407E+00 -0.25283E+05
-0.14699411E+00 -0.25279E+05
-0.96994162E-01 -0.25274E+05
-0.46994090E-01 -0.25272E+05
 0.30058622E-02 -0.25268E+05
 0.53005934E-01 -0.25264E+05
 0.10300589E+00 -0.25257E+05
 0.15300584E+00 -0.25252E+05
 0.20300579E+00 -0.25255E+05
 0.25300574E+00 -0.25254E+05
 0.30300593E+00 -0.25251E+05
 0.35300589E+00 -0.25250E+05
 0.40300584E+00 -0.25253E+05
 0.45300579E+00 -0.25255E+05
 0.50300574E+00 -0.25258E+05
 0.55300593E+00 -0.25267E+05
 0.60300589E+00 -0.25269E+05
 0.65300584E+00 -0.25272E+05
 0.70300579E+00 -0.25278E+05
 0.75300574E+00 -0.25284E+05
 0.80300570E+00 -0.25285E+05
 0.85300589E+00 -0.25287E+05
 0.90300584E+00 -0.25295E+05
 0.95300579E+00 -0.25299E+05
 0.10030057E+01 -0.25300E+05
 0.10530057E+01 -0.25298E+05
 0.11030059E+01 -0.25296E+05
 0.11530058E+01 -0.25292E+05
 0.12030058E+01 -0.25287E+05
 0.12530057E+01 -0.25282E+05
 0.13030057E+01 -0.25273E+05
 0.13530059E+01 -0.25269E+05
 0.14030058E+01 -0.25262E+05
 0.14530058E+01 -0.25255E+05
 0.15030057E+01 -0.25257E+05
 0.15530057E+01 -0.25254E+05
 0.16030059E+01 -0.25253E+05
 0.16530058E+01 -0.25260E+05
 0.17030058E+01 -0.25270E+05
 0.17530057E+01 -0.25271E+05
 0.18030057E+01 -0.25271E+05
 0.18530056E+01 -0.25279E+05
 0.19030058E+01 -0.25280E+05
 0.19530058E+01 -0.25278E+05
 0.20030057E+01 -0.25278E+05
 0.20530057E+01 -0.25281E+05
 0.21030059E+01 -0.25283E+05
 0.21530056E+01 -0.25283E+05
 0.22030058E+01 -0.25281E+05
 0.22530055E+01 -0.25280E+05
 0.23030057E+01 -0.25280E+05
 0.23530059E+01 -0.25280E+05
 0.24030056E+01 -0.25278E+05
 0.24530058E+01 -0.25277E+05
 0.25030055E+01 -0.25277E+05
 0.25530057E+01 -0.25277E+05
 0.26030059E+01 -0.25275E+05
 0.26530056E+01 -0.25273E+05
 0.27030058E+01 -0.25275E+05
 0.27530055E+01 -0.25278E+05
 0.28030057E+01 -0.25280E+05
 0.28530059E+01 -0.25282E+05
 0.29030056E+01 -0.25284E+05
 0.29530058E+01 -0.25285E+05
 0.30030055E+01 -0.25283E+05
 0.30530057E+01 -0.25286E+05
 0.31030059E+01 -0.25289E+05
 0.31530056E+01 -0.25289E+05
 0.32030058E+01 -0.25287E+05
 0.32530055E+01 -0.25287E+05
 0.33030057E+01 -0.25285E+05
 0.33530059E+01 -0.25280E+05
 0.34030056E+01 -0.25280E+05
 0.34530058E+01 -0.25277E+05
 0.35030055E+01 -0.25273E+05
 0.35530057E+01 -0.25270E+05
 0.36030054E+01 -0.25267E+05
 0.36530056E+01 -0.25267E+05
 0.37030058E+01 -0.25269E+05
 0.37530055E+01 -0.25268E+05
 0.38030057E+01 -0.25269E+05
 0.38530054E+01 -0.25276E+05
 0.39030056E+01 -0.25274E+05
 0.39530058E+01 -0.25281E+05
 0.40030055E+01 -0.25280E+05
 0.40530057E+01 -0.25285E+05
 0.41030054E+01 -0.25287E+05
 0.41530056E+01 -0.25289E+05
 0.42030058E+01 -0.25290E+05
 0.42530055E+01 -0.25286E+05
 0.43030057E+01 -0.25289E+05
 0.43530054E+01 -0.25284E+05
 0.44030056E+01 -0.25283E+05
 0.44530058E+01 -0.25279E+05
 0.45030055E+01 -0.25281E+05
 0.45530057E+01 -0.25277E+05
 0.46030054E+01 -0.25277E+05
 0.46530056E+01 -0.25272E+05
 0.47030058E+01 -0.25271E+05
 0.47530055E+01 -0.25266E+05
 0.48030057E+01 -0.25261E+05
 0.48530054E+01 -0.25263E+05
 0.49030056E+01 -0.25256E+05
 0.49530058E+01 -0.25259E+05
 0.50030055E+01 -0.25261E+05
 0.50530057E+01 -0.25265E+05
 0.51030054E+01 -0.25261E+05
 0.51530056E+01 -0.25262E+05
 0.52030058E+01 -0.25267E+05
 0.52530055E+01 -0.25266E+05
 0.53030057E+01 -0.25268E+05
 0.53530054E+01 -0.25270E+05
 0.54030056E+01 -0.25272E+05
 0.54530053E+01 -0.25273E+05
 0.55030055E+01 -0.25276E+05
 0.55530057E+01 -0.25280E+05
 0.56030054E+01 -0.25284E+05
 0.56530056E+01 -0.25288E+05
 0.57030053E+01 -0.25290E+05
 0.57530055E+01 -0.25291E+05
 0.58030057E+01 -0.25289E+05
 0.58530054E+01 -0.25291E+05
 0.59030056E+01 -0.25289E+05
 0.59530053E+01 -0.25287E+05
 0.60030055E+01 -0.25285E+05
 0.60530052E+01 -0.25283E+05
 0.61030054E+01 -0.25280E+05
 0.61530056E+01 -0.25280E+05
 0.62030058E+01 -0.25279E+05
 0.62530050E+01 -0.25278E+05
 0.63030052E+01 -0.25275E+05
 0.63530054E+01 -0.25271E+05
 0.64030056E+01 -0.25274E+05
 0.64530058E+01 -0.25274E+05
 0.65030050E+01 -0.25274E+05
 0.65530052E+01 -0.25274E+05
 0.66030054E+01 -0.25275E+05
 0.66530056E+01 -0.25274E+05
 0.67030058E+01 -0.25272E+05
 0.67530050E+01 -0.25273E+05
 0.68030052E+01 -0.25276E+05
 0.68530054E+01 -0.25275E+05
 0.69030056E+01 -0.25272E+05
 0.69530058E+01 -0.25273E+05
 0.70030050E+01 -0.25273E+05
 0.70530052E+01 -0.25272E+05
 0.71030054E+01 -0.25271E+05
 0.71530056E+01 -0.25270E+05
 0.72030058E+01 -0.25269E+05
 0.72530050E+01 -0.25269E+05
 0.73030052E+01 -0.25266E+05
 0.73530054E+01 -0.25265E+05
 0.74030056E+01 -0.25266E+05
 0.74530058E+01 -0.25265E+05
 0.75030050E+01 -0.25265E+05
 0.75530052E+01 -0.25266E+05
 0.76030054E+01 -0.25265E+05
 0.76530056E+01 -0.25262E+05
 0.77030058E+01 -0.25266E+05
 0.77530050E+01 -0.25271E+05
 0.78030052E+01 -0.25277E+05
 0.78530054E+01 -0.25279E+05
 0.79030056E+01 -0.25282E+05
 0.79530058E+01 -0.25290E+05
 0.80030050E+01 -0.25290E+05
 0.80530052E+01 -0.25288E+05
 0.81030054E+01 -0.25289E+05
 0.81530056E+01 -0.25293E+05
 0.82030058E+01 -0.25292E+05
 0.82530050E+01 -0.25288E+05
 0.83030052E+01 -0.25287E+05
 0.83530054E+01 -0.25285E+05
 0.84030056E+01 -0.25287E+05
 0.84530058E+01 -0.25288E+05
 0.85030050E+01 -0.25287E+05
 0.85530052E+01 -0.25285E+05
 0.86030054E+01 -0.25282E+05
 0.86530056E+01 -0.25281E+05
 0.87030058E+01 -0.25281E+05
 0.87530050E+01 -0.25281E+05
 0.88030052E+01 -0.25282E+05
 0.88530054E+01 -0.25282E+05
 0.89030056E+01 -0.25282E+05
 0.89530058E+01 -0.25281E+05
 0.90030050E+01 -0.25279E+05
 0.90530052E+01 -0.25275E+05
 0.91030054E+01 -0.25272E+05
 0.91530056E+01 -0.25269E+05
 0.92030048E+01 -0.25264E+05
 0.92530050E+01 -0.25264E+05
 0.93030052E+01 -0.25263E+05
 0.93530054E+01 -0.25261E+05
 0.94030056E+01 -0.25257E+05
 0.94530048E+01 -0.25257E+05
 0.95030050E+01 -0.25259E+05
 0.95530052E+01 -0.25256E+05
 0.96030054E+01 -0.25259E+05
 0.96530056E+01 -0.25257E+05
 0.97030048E+01 -0.25256E+05
 0.97530050E+01 -0.25260E+05
 0.98030052E+01 -0.25264E+05
 0.98530054E+01 -0.25272E+05
 0.99030056E+01 -0.25272E+05
 0.99530048E+01 -0.25272E+05
 0.10003005E+02 -0.25276E+05
 0.10053005E+02 -0.25279E+05
 0.10103005E+02 -0.25282E+05
 0.10153006E+02 -0.25286E+05
 0.10203005E+02 -0.25290E+05
 0.10253005E+02 -0.25290E+05
 0.10303005E+02 -0.25293E+05
 0.10353005E+02 -0.25292E+05
 0.10403006E+02 -0.25288E+05
 0.10453005E+02 -0.25291E+05
 0.10503005E+02 -0.25290E+05
 0.10553005E+02 -0.25290E+05
 0.10603005E+02 -0.25289E+05
 0.10653006E+02 -0.25287E+05
 0.10703005E+02 -0.25286E+05
 0.10753005E+02 -0.25284E+05
 0.10803005E+02 -0.25281E+05
 0.10853005E+02 -0.25280E+05
 0.10903006E+02 -0.25280E+05
 0.10953005E+02 -0.25277E+05
 0.11003005E+02 -0.25276E+05
 0.11053005E+02 -0.25277E+05
 0.11103005E+02 -0.25276E+05
 0.11153006E+02 -0.25274E+05
 0.11203005E+02 -0.25268E+05
 0.11253005E+02 -0.25269E+05
 0.11303005E+02 -0.25267E+05
 0.11353005E+02 -0.25264E+05
 0.11403006E+02 -0.25266E+05
 0.11453005E+02 -0.25266E+05
 0.11503005E+02 -0.25264E+05
 0.11553005E+02 -0.25263E+05
 0.11603005E+02 -0.25264E+05
 0.11653006E+02 -0.25269E+05
 0.11703005E+02 -0.25275E+05
 0.11753005E+02 -0.25277E+05
 0.11803005E+02 -0.25283E+05
 0.11853005E+02 -0.25292E+05
 0.11903006E+02 -0.25297E+05
 0.11953005E+02 -0.25302E+05
 0.12003005E+02 -0.25306E+05
 0.12053005E+02 -0.25304E+05
 0.12103005E+02 -0.25301E+05
 0.12153006E+02 -0.25298E+05
 0.12203005E+02 -0.25295E+05
 0.12253005E+02 -0.25288E+05
 0.12303005E+02 -0.25287E+05
 0.12353005E+02 -0.25284E+05
 0.12403006E+02 -0.25279E+05
 0.12453005E+02 -0.25277E+05
 0.12503005E+02 -0.25276E+05
 0.12553005E+02 -0.25272E+05
 0.12603005E+02 -0.25271E+05
 0.12653005E+02 -0.25277E+05
 0.12703005E+02 -0.25272E+05
 0.12753005E+02 -0.25274E+05
 0.12803005E+02 -0.25278E+05
 0.12853005E+02 -0.25278E+05
 0.12903005E+02 -0.25277E+05
 0.12953005E+02 -0.25276E+05
 0.13003005E+02 -0.25278E+05
 0.13053005E+02 -0.25279E+05
 0.13103005E+02 -0.25277E+05
 0.13153005E+02 -0.25278E+05
 0.13203005E+02 -0.25279E+05
 0.13253005E+02 -0.25279E+05
 0.13303005E+02 -0.25275E+05
 0.13353005E+02 -0.25274E+05
 0.13403005E+02 -0.25270E+05
 0.13453005E+02 -0.25260E+05
 0.13503005E+02 -0.25263E+05
 0.13553005E+02 -0.25259E+05
 0.13603005E+02 -0.25255E+05
 0.13653005E+02 -0.25253E+05
 0.13703005E+02 -0.25252E+05
 0.13753005E+02 -0.25253E+05
 0.13803005E+02 -0.25252E+05
 0.13853005E+02 -0.25250E+05
 0.13903005E+02 -0.25250E+05
 0.13953005E+02 -0.25249E+05
 0.14003005E+02 -0.25251E+05
 0.14053005E+02 -0.25251E+05
 0.14103004E+02 -0.25252E+05
 0.14153006E+02 -0.25251E+05
 0.14203005E+02 -0.25254E+05
 0.14253004E+02 -0.25260E+05
 0.14303005E+02 -0.25259E+05
 0.14353004E+02 -0.25262E+05
 0.14403006E+02 -0.25268E+05
 0.14453005E+02 -0.25269E+05
 0.14503004E+02 -0.25268E+05
 0.14553005E+02 -0.25274E+05
 0.14603004E+02 -0.25278E+05
 0.14653006E+02 -0.25275E+05
 0.14703005E+02 -0.25271E+05
 0.14753004E+02 -0.25273E+05
 0.14803005E+02 -0.25274E+05
 0.14853004E+02 -0.25276E+05
 0.14903006E+02 -0.25273E+05
 0.14953005E+02 -0.25277E+05
 0.15003004E+02 -0.25278E+05
 0.15053005E+02 -0.25277E+05
 0.15103004E+02 -0.25282E+05
 0.15153006E+02 -0.25283E+05
 0.15203005E+02 -0.25285E+05
 0.15253004E+02 -0.25284E+05
 0.15303005E+02 -0.25284E+05
 0.15353004E+02 -0.25282E+05
 0.15403006E+02 -0.25288E+05
 0.15453005E+02 -0.25287E+05
 0.15503004E+02 -0.25288E+05
 0.15553005E+02 -0.25291E+05
 0.15603004E+02 -0.25289E+05
 0.15653006E+02 -0.25291E+05
 0.15703005E+02 -0.25293E+05
 0.15753004E+02 -0.25295E+05
 0.15803005E+02 -0.25292E+05
 0.15853004E+02 -0.25290E+05
 0.15903006E+02 -0.25291E+05
 0.15953005E+02 -0.25295E+05
 0.16003004E+02 -0.25292E+05
 0.16053005E+02 -0.25289E+05
 0.16103004E+02 -0.25286E+05
 0.16153006E+02 -0.25282E+05
 0.16203005E+02 -0.25280E+05
 0.16253004E+02 -0.25279E+05
 0.16303005E+02 -0.25277E+05
 0.16353004E+02 -0.25278E+05
 0.16403006E+02 -0.25276E+05
 0.16453005E+02 -0.25273E+05
 0.16503004E+02 -0.25275E+05
 0.16553005E+02 -0.25276E+05
 0.16603004E+02 -0.25272E+05
 0.16653006E+02 -0.25273E+05
 0.16703005E+02 -0.25272E+05
 0.16753004E+02 -0.25266E+05
 0.16803005E+02 -0.25265E+05
 0.16853004E+02 -0.25269E+05
 0.16903006E+02 -0.25268E+05
 0.16953005E+02 -0.25266E+05
 0.17003004E+02 -0.25269E+05
 0.17053005E+02 -0.25267E+05
 0.17103004E+02 -0.25262E+05
 0.17153006E+02 -0.25260E+05
 0.17203005E+02 -0.25257E+05
 0.17253004E+02 -0.25253E+05
 0.17303005E+02 -0.25254E+05
 0.17353004E+02 -0.25256E+05
 0.17403006E+02 -0.25259E+05
 0.17453005E+02 -0.25260E+05
 0.17503004E+02 -0.25262E+05
 0.17553005E+02 -0.25263E+05
 0.17603004E+02 -0.25263E+05
 0.17653006E+02 -0.25271E+05
 0.17703005E+02 -0.25273E+05
 0.17753004E+02 -0.25276E+05
 0.17803005E+02 -0.25280E+05
 0.17853004E+02 -0.25282E+05
 0.17903006E+02 -0.25283E+05
 0.17953005E+02 -0.25287E+05
 0.18003004E+02 -0.25291E+05
 0.18053005E+02 -0.25290E+05
 0.18103004E+02 -0.25291E+05
 0.18153006E+02 -0.25294E+05
 0.18203005E+02 -0.25294E+05
 0.18253004E+02 -0.25292E+05
 0.18303005E+02 -0.25293E+05
 0.18353004E+02 -0.25291E+05
 0.18403006E+02 -0.25288E+05
 0.18453005E+02 -0.25283E+05
 0.18503004E+02 -0.25281E+05
 0.18553005E+02 -0.25278E+05
 0.18603004E+02 -0.25276E+05
 0.18653006E+02 -0.25276E+05
 0.18703005E+02 -0.25273E+05
 0.18753004E+02 -0.25272E+05
 0.18803005E+02 -0.25270E+05
 0.18853004E+02 -0.25267E+05
 0.18903006E+02 -0.25265E+05
 0.18953005E+02 -0.25266E+05
 0.19003004E+02 -0.25267E+05
 0.19053005E+02 -0.25264E+05
 0.19103004E+02 -0.25265E+05
 0.19153006E+02 -0.25269E+05
 0.19203005E+02 -0.25271E+05
 0.19253004E+02 -0.25273E+05
 0.19303005E+02 -0.25277E+05
 0.19353004E+02 -0.25279E+05
 0.19403006E+02 -0.25280E+05
 0.19453005E+02 -0.25283E+05
 0.19503004E+02 -0.25288E+05
 0.19553005E+02 -0.25284E+05
 0.19603004E+02 -0.25281E+05
 0.19653006E+02 -0.25283E+05
 0.19703005E+02 -0.25279E+05
 0.19753004E+02 -0.25280E+05
 0.19803005E+02 -0.25277E+05
 0.19853004E+02 -0.25275E+05
 0.19903006E+02 -0.25274E+05
 0.19953005E+02 -0.25271E+05
 0.20003004E+02 -0.25272E+05
 0.20053005E+02 -0.25271E+05
 0.20103004E+02 -0.25272E+05
 0.20153006E+02 -0.25270E+05
 0.20203005E+02 -0.25264E+05
 0.20253004E+02 -0.25261E+05
 0.20303005E+02 -0.25261E+05
 0.20353004E+02 -0.25259E+05
 0.20403004E+02 -0.25254E+05
 0.20453005E+02 -0.25256E+05
 0.20503004E+02 -0.25254E+05
 0.20553005E+02 -0.25253E+05
 0.20603004E+02 -0.25256E+05
 0.20653004E+02 -0.25256E+05
 0.20703005E+02 -0.25257E+05
 0.20753004E+02 -0.25261E+05
 0.20803005E+02 -0.25263E+05
 0.20853004E+02 -0.25266E+05
 0.20903004E+02 -0.25268E+05
 0.20953005E+02 -0.25270E+05
 0.21003004E+02 -0.25271E+05
 0.21053005E+02 -0.25272E+05
 0.21103004E+02 -0.25273E+05
 0.21153004E+02 -0.25271E+05
 0.21203005E+02 -0.25274E+05
 0.21253004E+02 -0.25274E+05
 0.21303005E+02 -0.25273E+05
 0.21353004E+02 -0.25276E+05
 0.21403004E+02 -0.25277E+05
 0.21453005E+02 -0.25282E+05
 0.21503004E+02 -0.25287E+05
 0.21553005E+02 -0.25286E+05
 0.21603004E+02 -0.25289E+05
 0.21653004E+02 -0.25292E+05
 0.21703005E+02 -0.25292E+05
 0.21753004E+02 -0.25291E+05
 0.21803005E+02 -0.25291E+05
 0.21853004E+02 -0.25291E+05
 0.21903004E+02 -0.25285E+05
 0.21953005E+02 -0.25283E+05
 0.22003004E+02 -0.25277E+05
 0.22053005E+02 -0.25272E+05
 0.22103004E+02 -0.25272E+05
 0.22153004E+02 -0.25265E+05
 0.22203005E+02 -0.25260E+05
 0.22253004E+02 -0.25258E+05
 0.22303005E+02 -0.25257E+05
 0.22353004E+02 -0.25255E+05
 0.22403004E+02 -0.25258E+05
 0.22453005E+02 -0.25258E+05
 0.22503004E+02 -0.25263E+05
 0.22553005E+02 -0.25268E+05
 0.22603004E+02 -0.25269E+05
 0.22653004E+02 -0.25272E+05
 0.22703005E+02 -0.25272E+05
 0.22753004E+02 -0.25273E+05
 0.22803005E+02 -0.25273E+05
 0.22853004E+02 -0.25270E+05
 0.22903004E+02 -0.25270E+05
 0.22953005E+02 -0.25275E+05
 0.23003004E+02 -0.25270E+05
 0.23053005E+02 -0.25270E+05
 0.23103004E+02 -0.25273E+05
 0.23153004E+02 -0.25276E+05
 0.23203005E+02 -0.25277E+05
 0.23253004E+02 -0.25282E+05
 0.23303005E+02 -0.25288E+05
 0.23353004E+02 -0.25289E+05
 0.23403004E+02 -0.25289E+05
 0.23453005E+02 -0.25288E+05
 0.23503004E+02 -0.25284E+05
 0.23553005E+02 -0.25282E+05
 0.23603004E+02 -0.25277E+05
 0.23653004E+02 -0.25273E+05
 0.23703005E+02 -0.25274E+05
 0.23753004E+02 -0.25272E+05
 0.23803005E+02 -0.25272E+05
 0.23853004E+02 -0.25267E+05
 0.23903004E+02 -0.25269E+05
 0.23953005E+02 -0.25270E+05
 0.24003004E+02 -0.25273E+05
 0.24053005E+02 -0.25276E+05
 0.24103004E+02 -0.25278E+05
 0.24153004E+02 -0.25279E+05
 0.24203005E+02 -0.25283E+05
 0.24253004E+02 -0.25285E+05
 0.24303005E+02 -0.25281E+05
 0.24353004E+02 -0.25281E+05
 0.24403004E+02 -0.25281E+05
 0.24453005E+02 -0.25281E+05
 0.24503004E+02 -0.25276E+05
 0.24553005E+02 -0.25278E+05
 0.24603004E+02 -0.25275E+05
 0.24653004E+02 -0.25274E+05
 0.24703005E+02 -0.25274E+05
 0.24753004E+02 -0.25270E+05
 0.24803005E+02 -0.25271E+05
 0.24853004E+02 -0.25270E+05
 0.24903004E+02 -0.25271E+05
 0.24953005E+02 -0.25269E+05
 0.25003004E+02 -0.25269E+05
 0.25053005E+02 -0.25270E+05
 0.25103004E+02 -0.25268E+05
 0.25153004E+02 -0.25267E+05
 0.25203005E+02 -0.25268E+05
 0.25253004E+02 -0.25267E+05
 0.25303005E+02 -0.25269E+05
 0.25353004E+02 -0.25268E+05
 0.25403004E+02 -0.25265E+05
 0.25453005E+02 -0.25268E+05
 0.25503004E+02 -0.25271E+05
 0.25553005E+02 -0.25267E+05
 0.25603004E+02 -0.25264E+05
 0.25653004E+02 -0.25263E+05
 0.25703005E+02 -0.25263E+05
 0.25753004E+02 -0.25262E+05
 0.25803005E+02 -0.25265E+05
 0.25853004E+02 -0.25266E+05
 0.25903004E+02 -0.25263E+05
 0.25953005E+02 -0.25265E+05
 0.26003004E+02 -0.25263E+05
 0.26053005E+02 -0.25264E+05
 0.26103004E+02 -0.25263E+05
 0.26153004E+02 -0.25264E+05
 0.26203005E+02 -0.25266E+05
 0.26253004E+02 -0.25268E+05
 0.26303005E+02 -0.25269E+05
 0.26353004E+02 -0.25268E+05
 0.26403004E+02 -0.25270E+05
 0.26453005E+02 -0.25271E+05
 0.26503004E+02 -0.25273E+05
 0.26553005E+02 -0.25277E+05
 0.26603004E+02 -0.25279E+05
 0.26653004E+02 -0.25281E+05
 0.26703005E+02 -0.25284E+05
 0.26753004E+02 -0.25282E+05
 0.26803005E+02 -0.25283E+05
 0.26853004E+02 -0.25284E+05
 0.26903004E+02 -0.25281E+05
 0.26953005E+02 -0.25280E+05
 0.27003004E+02 -0.25284E+05
 0.27053003E+02 -0.25284E+05
 0.27103004E+02 -0.25281E+05
 0.27153004E+02 -0.25282E+05
 0.27203005E+02 -0.25279E+05
 0.27253004E+02 -0.25276E+05
 0.27303003E+02 -0.25271E+05
 0.27353004E+02 -0.25268E+05
 0.27403004E+02 -0.25267E+05
 0.27453005E+02 -0.25267E+05
 0.27503004E+02 -0.25270E+05
 0.27553003E+02 -0.25274E+05
 0.27603004E+02 -0.25276E+05
 0.27653004E+02 -0.25277E+05
 0.27703005E+02 -0.25276E+05
 0.27753004E+02 -0.25277E+05
 0.27803003E+02 -0.25275E+05
 0.27853004E+02 -0.25271E+05
 0.27903004E+02 -0.25269E+05
 0.27953005E+02 -0.25268E+05
 0.28003004E+02 -0.25268E+05
 0.28053003E+02 -0.25271E+05
 0.28103004E+02 -0.25271E+05
 0.28153004E+02 -0.25269E+05
 0.28203005E+02 -0.25271E+05
 0.28253004E+02 -0.25269E+05
 0.28303003E+02 -0.25268E+05
 0.28353004E+02 -0.25263E+05
 0.28403004E+02 -0.25263E+05
 0.28453005E+02 -0.25262E+05
 0.28503004E+02 -0.25261E+05
 0.28553003E+02 -0.25266E+05
 0.28603004E+02 -0.25266E+05
 0.28653004E+02 -0.25267E+05
 0.28703005E+02 -0.25268E+05
 0.28753004E+02 -0.25267E+05
 0.28803003E+02 -0.25268E+05
 0.28853004E+02 -0.25269E+05
 0.28903004E+02 -0.25273E+05
 0.28953005E+02 -0.25271E+05
 0.29003004E+02 -0.25273E+05
 0.29053003E+02 -0.25279E+05
 0.29103004E+02 -0.25278E+05
 0.29153004E+02 -0.25280E+05
 0.29203005E+02 -0.25279E+05
 0.29253004E+02 -0.25283E+05
 0.29303003E+02 -0.25282E+05
 0.29353004E+02 -0.25279E+05
 0.29403004E+02 -0.25284E+05
 0.29453005E+02 -0.25283E+05
 0.29503004E+02 -0.25275E+05
 0.29553003E+02 -0.25278E+05
 0.29603004E+02 -0.25281E+05
 0.29653004E+02 -0.25276E+05
 0.29703005E+02 -0.25281E+05
 0.29753004E+02 -0.25288E+05
 0.29803003E+02 -0.25292E+05
 0.29853004E+02 -0.25294E+05
 0.29903004E+02 -0.25295E+05
 0.29953005E+02 -0.25293E+05
 0.30003004E+02 -0.25296E+05
 0.30053005E+02 -0.25296E+05
 0.30103004E+02 -0.25285E+05
 0.30153004E+02 -0.25283E+05
 0.30203003E+02 -0.25287E+05
 0.30253002E+02 -0.25277E+05
 0.30303005E+02 -0.25272E+05
 0.30353004E+02 -0.25278E+05
 0.30403004E+02 -0.25273E+05
 0.30453003E+02 -0.25270E+05
 0.30503002E+02 -0.25270E+05
 0.30553005E+02 -0.25269E+05
 0.30603004E+02 -0.25269E+05
 0.30653004E+02 -0.25267E+05
 0.30703003E+02 -0.25272E+05
 0.30753002E+02 -0.25269E+05
 0.30803005E+02 -0.25266E+05
 0.30853004E+02 -0.25273E+05
 0.30903004E+02 -0.25263E+05
 0.30953003E+02 -0.25272E+05
 0.31003002E+02 -0.25281E+05
 0.31053005E+02 -0.25261E+05
 0.31103004E+02 -0.25267E+05
 0.31153004E+02 -0.25282E+05
 0.31203003E+02 -0.25259E+05
 0.31253002E+02 -0.25257E+05
 0.31303005E+02 -0.25273E+05
 0.31353004E+02 -0.25258E+05
 0.31403004E+02 -0.25260E+05
 0.31453003E+02 -0.25275E+05
 0.31503002E+02 -0.25271E+05
 0.31553005E+02 -0.25264E+05
 0.31603004E+02 -0.25267E+05
 0.31653004E+02 -0.25273E+05
 0.31703003E+02 -0.25255E+05
 0.31753002E+02 -0.25260E+05
 0.31803005E+02 -0.25267E+05
 0.31853004E+02 -0.25242E+05
 0.31903004E+02 -0.25254E+05
 0.31953003E+02 -0.25286E+05
 0.32003002E+02 -0.25247E+05
 0.32053005E+02 -0.25230E+05
 0.32103004E+02 -0.25289E+05
 0.32153004E+02 -0.25257E+05
 0.32203003E+02 -0.25226E+05
 0.32253002E+02 -0.25292E+05
 0.32303005E+02 -0.25269E+05
 0.32353004E+02 -0.25219E+05
 0.32403004E+02 -0.25290E+05
 0.32453003E+02 -0.25280E+05
 0.32503002E+02 -0.25241E+05
 0.32553005E+02 -0.25279E+05
 0.32603004E+02 -0.25276E+05
 0.32653004E+02 -0.25270E+05
 0.32703003E+02 -0.25262E+05
 0.32753002E+02 -0.25259E+05
 0.32803005E+02 -0.25262E+05
 0.32853004E+02 -0.25255E+05
 0.32903004E+02 -0.25274E+05
 0.32953003E+02 -0.25271E+05
 0.33003002E+02 -0.25271E+05
 0.33053005E+02 -0.25269E+05
 0.33103004E+02 -0.25233E+05
 0.33153004E+02 -0.25294E+05
 0.33203003E+02 -0.25319E+05
 0.33253002E+02 -0.25211E+05
 0.33303005E+02 -0.25290E+05
 0.33353004E+02 -0.25332E+05
 0.33403004E+02 -0.25222E+05
 0.33453003E+02 -0.25283E+05
 0.33503002E+02 -0.25312E+05
 0.33553005E+02 -0.25236E+05
 0.33603004E+02 -0.25310E+05
 0.33653004E+02 -0.25343E+05
 0.33703003E+02 -0.25254E+05
 0.33753002E+02 -0.25252E+05
 0.33803005E+02 -0.25301E+05
 0.33853004E+02 -0.25350E+05
 0.33903004E+02 -0.25247E+05
 0.33953003E+02 -0.25233E+05
 0.34003002E+02 -0.25360E+05
 0.34053005E+02 -0.25257E+05
 0.34103004E+02 -0.25206E+05
 0.34153004E+02 -0.25381E+05
 0.34203003E+02 -0.25329E+05
 0.34253002E+02 -0.25190E+05
 0.34303005E+02 -0.25371E+05
 0.34353004E+02 -0.25387E+05
 0.34403004E+02 -0.25208E+05
 0.34453003E+02 -0.25251E+05
 0.34503002E+02 -0.25278E+05
 0.34553005E+02 -0.25292E+05
 0.34603004E+02 -0.25209E+05
 0.34653004E+02 -0.25195E+05
 0.34703003E+02 -0.25357E+05
 0.34753002E+02 -0.25289E+05
 0.34803005E+02 -0.25170E+05
 0.34853004E+02 -0.25357E+05
 0.34903004E+02 -0.25557E+05
 0.34953003E+02 -0.25249E+05
 0.35003002E+02 -0.25273E+05
 0.35053005E+02 -0.25362E+05
 0.35103004E+02 -0.25168E+05
 0.35153004E+02 -0.25472E+05
 0.35203003E+02 -0.25220E+05
 0.35253002E+02 -0.24979E+05
 0.35303005E+02 -0.25553E+05
 0.35353004E+02 -0.25322E+05
 0.35403004E+02 -0.25008E+05
 0.35453003E+02 -0.25444E+05
 0.35503002E+02 -0.25461E+05
 0.35553005E+02 -0.25198E+05
 0.35603004E+02 -0.25372E+05
 0.35653004E+02 -0.25373E+05
 0.35703003E+02 -0.25112E+05
 0.35753002E+02 -0.25226E+05
 0.35803005E+02 -0.25065E+05
 0.35853004E+02 -0.25279E+05
 0.35903004E+02 -0.25215E+05
 0.35953003E+02 -0.25022E+05
 0.36003002E+02 -0.25564E+05
 0.36053005E+02 -0.25279E+05
 0.36103004E+02 -0.25243E+05
 0.36153004E+02 -0.25570E+05
 0.36203003E+02 -0.25168E+05
 0.36253002E+02 -0.25189E+05
 0.36303005E+02 -0.25748E+05
 0.36353004E+02 -0.25420E+05
 0.36403004E+02 -0.24829E+05
 0.36453003E+02 -0.25193E+05
 0.36503002E+02 -0.25540E+05
 0.36553005E+02 -0.25118E+05
 0.36603004E+02 -0.25239E+05
 0.36653004E+02 -0.25230E+05
 0.36703003E+02 -0.25199E+05
 0.36753002E+02 -0.25499E+05
 0.36803005E+02 -0.25076E+05
 0.36853004E+02 -0.25382E+05
 0.36903004E+02 -0.25519E+05
 0.36953003E+02 -0.24909E+05
 0.37003002E+02 -0.25484E+05
 0.37053005E+02 -0.25565E+05
 0.37103004E+02 -0.24655E+05
 0.37153004E+02 -0.25389E+05
 0.37203003E+02 -0.25649E+05
 0.37253002E+02 -0.24618E+05
 0.37303005E+02 -0.25229E+05
 0.37353004E+02 -0.25752E+05
 0.37403004E+02 -0.25051E+05
 0.37453003E+02 -0.24973E+05
 0.37503002E+02 -0.25946E+05
 0.37553005E+02 -0.25557E+05
 0.37603004E+02 -0.24431E+05
 0.37653004E+02 -0.25708E+05
 0.37703003E+02 -0.25563E+05
 0.37753002E+02 -0.24376E+05
 0.37803005E+02 -0.25134E+05
 0.37853004E+02 -0.25814E+05
 0.37903004E+02 -0.25384E+05
 0.37953003E+02 -0.24899E+05
 0.38003002E+02 -0.25404E+05
 0.38053005E+02 -0.25484E+05
 0.38103004E+02 -0.25188E+05
 0.38153004E+02 -0.25418E+05
 0.38203003E+02 -0.25149E+05
 0.38253002E+02 -0.24932E+05
 0.38303005E+02 -0.25885E+05
 0.38353004E+02 -0.25209E+05
 0.38403004E+02 -0.24250E+05
 0.38453003E+02 -0.25783E+05
 0.38503002E+02 -0.25729E+05
 0.38553005E+02 -0.24544E+05
 0.38603004E+02 -0.25095E+05
 0.38653004E+02 -0.25500E+05
 0.38703003E+02 -0.25338E+05
 0.38753002E+02 -0.24714E+05
 0.38803005E+02 -0.25063E+05
 0.38853004E+02 -0.25917E+05
 0.38903004E+02 -0.25339E+05
 0.38953003E+02 -0.25459E+05
 0.39003002E+02 -0.26011E+05
 0.39053005E+02 -0.25016E+05
 0.39103004E+02 -0.24658E+05
 0.39153004E+02 -0.25791E+05
 0.39203003E+02 -0.25306E+05
 0.39253002E+02 -0.24949E+05
 0.39303005E+02 -0.25345E+05
 0.39353004E+02 -0.25043E+05
 0.39403004E+02 -0.24811E+05
 0.39453003E+02 -0.24913E+05
 0.39503002E+02 -0.25352E+05
 0.39553005E+02 -0.25530E+05
 0.39603004E+02 -0.25163E+05
 0.39653004E+02 -0.25452E+05
 0.39703003E+02 -0.25693E+05
 0.39753002E+02 -0.25013E+05
 0.39803005E+02 -0.25417E+05
 0.39853004E+02 -0.25593E+05
 0.39903004E+02 -0.25167E+05
 0.39953003E+02 -0.24744E+05
 0.40003002E+02 -0.25440E+05
 0.40053005E+02 -0.25834E+05
 0.40103004E+02 -0.23756E+05
 0.40153004E+02 -0.24680E+05
 0.40203003E+02 -0.26418E+05
 0.40253002E+02 -0.24964E+05
 0.40303005E+02 -0.24784E+05
 0.40353004E+02 -0.26126E+05
 0.40403004E+02 -0.25604E+05
 0.40453003E+02 -0.24817E+05
 0.40503002E+02 -0.25578E+05
 0.40553005E+02 -0.25376E+05
 0.40603004E+02 -0.25156E+05
 0.40653004E+02 -0.25558E+05
 0.40703003E+02 -0.25257E+05
 0.40753002E+02 -0.25226E+05
 0.40803005E+02 -0.25636E+05
 0.40853004E+02 -0.25251E+05
 0.40903004E+02 -0.25433E+05
 0.40953003E+02 -0.26240E+05
 0.41003002E+02 -0.24658E+05
 0.41053005E+02 -0.25137E+05
 0.41103004E+02 -0.26512E+05
 0.41153004E+02 -0.24608E+05
 0.41203003E+02 -0.25009E+05
 0.41253002E+02 -0.25036E+05
 0.41303005E+02 -0.24305E+05
 0.41353004E+02 -0.25957E+05
 0.41403004E+02 -0.25159E+05
 0.41453003E+02 -0.24733E+05
 0.41503002E+02 -0.26351E+05
 0.41553005E+02 -0.25480E+05
 0.41603004E+02 -0.25392E+05
 0.41653004E+02 -0.26584E+05
 0.41703003E+02 -0.25001E+05
 0.41753002E+02 -0.25315E+05
 0.41803005E+02 -0.26534E+05
 0.41853004E+02 -0.23836E+05
 0.41903004E+02 -0.24315E+05
 0.41953003E+02 -0.26007E+05
 0.42003002E+02 -0.24095E+05
 0.42053005E+02 -0.24145E+05
 0.42103004E+02 -0.25612E+05
 0.42153004E+02 -0.25170E+05
 0.42203003E+02 -0.24697E+05
 0.42253002E+02 -0.24960E+05
 0.42303005E+02 -0.25729E+05
 0.42353004E+02 -0.26112E+05
 0.42403004E+02 -0.25168E+05
 0.42453003E+02 -0.25246E+05
 0.42503002E+02 -0.25882E+05
 0.42553005E+02 -0.25696E+05
 0.42603004E+02 -0.25026E+05
 0.42653004E+02 -0.24905E+05
 0.42703003E+02 -0.25409E+05
 0.42753002E+02 -0.25542E+05
 0.42803001E+02 -0.25126E+05
 0.42853004E+02 -0.25634E+05
 0.42903004E+02 -0.25863E+05
 0.42953003E+02 -0.24680E+05
 0.43003002E+02 -0.24830E+05
 0.43053001E+02 -0.25327E+05
 0.43103004E+02 -0.25197E+05
 0.43153004E+02 -0.24790E+05
 0.43203003E+02 -0.25087E+05
 0.43253002E+02 -0.25580E+05
 0.43303001E+02 -0.25318E+05
 0.43353004E+02 -0.25470E+05
 0.43403004E+02 -0.26290E+05
 0.43453003E+02 -0.25646E+05
 0.43503002E+02 -0.24935E+05
 0.43553001E+02 -0.25640E+05
 0.43603004E+02 -0.25018E+05
 0.43653004E+02 -0.25038E+05
 0.43703003E+02 -0.25090E+05
 0.43753002E+02 -0.24916E+05
 0.43803001E+02 -0.24885E+05
 0.43853004E+02 -0.24754E+05
 0.43903004E+02 -0.25651E+05
 0.43953003E+02 -0.25246E+05
 0.44003002E+02 -0.24566E+05
 0.44053001E+02 -0.25125E+05
 0.44103004E+02 -0.25604E+05
 0.44153004E+02 -0.25815E+05
 0.44203003E+02 -0.25381E+05
 0.44253002E+02 -0.24904E+05
 0.44303001E+02 -0.25822E+05
 0.44353004E+02 -0.25728E+05
 0.44403004E+02 -0.24949E+05
 0.44453003E+02 -0.25214E+05
 0.44503002E+02 -0.24924E+05
 0.44553001E+02 -0.25503E+05
 0.44603004E+02 -0.25276E+05
 0.44653004E+02 -0.24856E+05
 0.44703003E+02 -0.26392E+05
 0.44753002E+02 -0.26079E+05
 0.44803001E+02 -0.24271E+05
 0.44853004E+02 -0.25296E+05
 0.44903004E+02 -0.26403E+05
 0.44953003E+02 -0.24819E+05
 0.45003002E+02 -0.24466E+05
 0.45053001E+02 -0.25387E+05
 0.45103004E+02 -0.25674E+05
 0.45153004E+02 -0.24853E+05
 0.45203003E+02 -0.24781E+05
 0.45253002E+02 -0.25531E+05
 0.45303001E+02 -0.25038E+05
 0.45353004E+02 -0.24259E+05
 0.45403004E+02 -0.24568E+05
 0.45453003E+02 -0.25062E+05
 0.45503002E+02 -0.24677E+05
 0.45553001E+02 -0.25178E+05
 0.45603004E+02 -0.26229E+05
 0.45653004E+02 -0.25606E+05
 0.45703003E+02 -0.25248E+05
 0.45753002E+02 -0.25568E+05
 0.45803001E+02 -0.25802E+05
 0.45853004E+02 -0.26161E+05
 0.45903004E+02 -0.25240E+05
 0.45953003E+02 -0.24705E+05
 0.46003002E+02 -0.25419E+05
 0.46053001E+02 -0.25439E+05
 0.46103004E+02 -0.25016E+05
 0.46153004E+02 -0.25502E+05
 0.46203003E+02 -0.25840E+05
 0.46253002E+02 -0.24994E+05
 0.46303001E+02 -0.24637E+05
 0.46353004E+02 -0.25378E+05
 0.46403004E+02 -0.25296E+05
 0.46453003E+02 -0.24623E+05
 0.46503002E+02 -0.25364E+05
 0.46553001E+02 -0.25949E+05
 0.46603004E+02 -0.25357E+05
 0.46653004E+02 -0.25382E+05
 0.46703003E+02 -0.25427E+05
 0.46753002E+02 -0.24992E+05
 0.46803001E+02 -0.25160E+05
 0.46853004E+02 -0.25646E+05
 0.46903004E+02 -0.25253E+05
 0.46953003E+02 -0.24987E+05
 0.47003002E+02 -0.25444E+05
 0.47053001E+02 -0.25345E+05
 0.47103004E+02 -0.25303E+05
 0.47153004E+02 -0.25473E+05
 0.47203003E+02 -0.25227E+05
 0.47253002E+02 -0.25149E+05
 0.47303001E+02 -0.25144E+05
 0.47353004E+02 -0.25062E+05
 0.47403004E+02 -0.24602E+05
 0.47453003E+02 -0.24776E+05
 0.47503002E+02 -0.25666E+05
 0.47553001E+02 -0.25244E+05
 0.47603004E+02 -0.25405E+05
 0.47653004E+02 -0.25853E+05
 0.47703003E+02 -0.25024E+05
 0.47753002E+02 -0.24972E+05
 0.47803001E+02 -0.25912E+05
 0.47853004E+02 -0.25897E+05
 0.47903004E+02 -0.25064E+05
 0.47953003E+02 -0.25637E+05
 0.48003002E+02 -0.25689E+05
 0.48053001E+02 -0.24503E+05
 0.48103004E+02 -0.24654E+05
 0.48153004E+02 -0.24999E+05
 0.48203003E+02 -0.24924E+05
 0.48253002E+02 -0.24934E+05
 0.48303001E+02 -0.25241E+05
 0.48353004E+02 -0.25412E+05
 0.48403004E+02 -0.25484E+05
 0.48453003E+02 -0.26127E+05
 0.48503002E+02 -0.25754E+05
 0.48553001E+02 -0.25047E+05
 0.48603004E+02 -0.25213E+05
 0.48653004E+02 -0.25478E+05
 0.48703003E+02 -0.25171E+05
 0.48753002E+02 -0.24737E+05
 0.48803001E+02 -0.25307E+05
 0.48853004E+02 -0.25508E+05
 0.48903004E+02 -0.24919E+05
 0.48953003E+02 -0.24829E+05
 0.49003002E+02 -0.25296E+05
 0.49053001E+02 -0.24935E+05
 0.49103004E+02 -0.24855E+05
 0.49153004E+02 -0.25965E+05
 0.49203003E+02 -0.25818E+05
 0.49253002E+02 -0.25081E+05
 0.49303001E+02 -0.25304E+05
 0.49353004E+02 -0.25770E+05
 0.49403004E+02 -0.25640E+05
 0.49453003E+02 -0.25298E+05
 0.49503002E+02 -0.25564E+05
 0.49553001E+02 -0.25398E+05
 0.49603004E+02 -0.24819E+05
 0.49653004E+02 -0.25324E+05
 0.49703003E+02 -0.25568E+05
 0.49753002E+02 -0.24983E+05
 0.49803001E+02 -0.24889E+05
 0.49853004E+02 -0.25013E+05
 0.49903004E+02 -0.25122E+05
 0.49953003E+02 -0.25109E+05
 0.50003002E+02 -0.25143E+05
 0.50053001E+02 -0.25538E+05
 0.50103004E+02 -0.25391E+05
 0.50153004E+02 -0.25191E+05
 0.50203003E+02 -0.25352E+05
 0.50253002E+02 -0.25342E+05
 0.50303001E+02 -0.25378E+05
 0.50353004E+02 -0.25348E+05
 0.50403004E+02 -0.25231E+05
 0.50453003E+02 -0.25177E+05
 0.50503002E+02 -0.24656E+05
 0.50553001E+02 -0.24817E+05
 0.50603004E+02 -0.25890E+05
 0.50653004E+02 -0.25540E+05
 0.50703003E+02 -0.25090E+05
 0.50753002E+02 -0.25685E+05
 0.50803001E+02 -0.25427E+05
 0.50853004E+02 -0.24812E+05
 0.50903004E+02 -0.25206E+05
 0.50953003E+02 -0.25349E+05
 0.51003002E+02 -0.25027E+05
 0.51053001E+02 -0.25165E+05
 0.51103004E+02 -0.25699E+05
 0.51153004E+02 -0.25777E+05
 0.51203003E+02 -0.25032E+05
 0.51253002E+02 -0.25048E+05
 0.51303001E+02 -0.25640E+05
 0.51353004E+02 -0.24965E+05
 0.51403004E+02 -0.24684E+05
 0.51453003E+02 -0.25376E+05
 0.51503002E+02 -0.25277E+05
 0.51553001E+02 -0.24951E+05
 0.51603004E+02 -0.24940E+05
 0.51653004E+02 -0.25519E+05
 0.51703003E+02 -0.25321E+05
 0.51753002E+02 -0.24712E+05
 0.51803001E+02 -0.25416E+05
 0.51853004E+02 -0.25773E+05
 0.51903004E+02 -0.25386E+05
 0.51953003E+02 -0.25478E+05
 0.52003002E+02 -0.25559E+05
 0.52053001E+02 -0.25178E+05
 0.52103004E+02 -0.25369E+05
 0.52153004E+02 -0.25829E+05
 0.52203003E+02 -0.25402E+05
 0.52253002E+02 -0.25236E+05
 0.52303001E+02 -0.25524E+05
 0.52353004E+02 -0.24986E+05
 0.52403004E+02 -0.24854E+05
 0.52453003E+02 -0.25022E+05
 0.52503002E+02 -0.24683E+05
 0.52553001E+02 -0.25011E+05
 0.52603004E+02 -0.25229E+05
 0.52653004E+02 -0.25053E+05
 0.52703003E+02 -0.25401E+05
 0.52753002E+02 -0.25431E+05
 0.52803001E+02 -0.25470E+05
 0.52853004E+02 -0.25892E+05
 0.52903004E+02 -0.25490E+05
 0.52953003E+02 -0.24865E+05
 0.53003002E+02 -0.24887E+05
 0.53053001E+02 -0.25241E+05
 0.53103004E+02 -0.25287E+05
 0.53153004E+02 -0.24943E+05
 0.53203003E+02 -0.25113E+05
 0.53253002E+02 -0.25552E+05
 0.53303001E+02 -0.25551E+05
 0.53353004E+02 -0.25419E+05
 0.53403004E+02 -0.25362E+05
 0.53453003E+02 -0.24993E+05
 0.53503002E+02 -0.25220E+05
 0.53553001E+02 -0.25822E+05
 0.53603004E+02 -0.25575E+05
 0.53653004E+02 -0.25078E+05
 0.53703003E+02 -0.25592E+05
 0.53753002E+02 -0.25972E+05
 0.53803001E+02 -0.25306E+05
 0.53853004E+02 -0.25434E+05
 0.53903004E+02 -0.25511E+05
 0.53953003E+02 -0.25117E+05
 0.54003002E+02 -0.25177E+05
 0.54053001E+02 -0.25084E+05
 0.54103004E+02 -0.24816E+05
 0.54153004E+02 -0.25090E+05
 0.54203003E+02 -0.25353E+05
 0.54253002E+02 -0.24948E+05
 0.54303001E+02 -0.24845E+05
 0.54353004E+02 -0.25124E+05
 0.54403004E+02 -0.25060E+05
 0.54453003E+02 -0.25084E+05
 0.54503002E+02 -0.25532E+05
 0.54553001E+02 -0.25810E+05
 0.54603004E+02 -0.25616E+05
 0.54653004E+02 -0.25094E+05
 0.54703003E+02 -0.25173E+05
 0.54753002E+02 -0.25799E+05
 0.54803001E+02 -0.25265E+05
 0.54853004E+02 -0.24780E+05
 0.54903004E+02 -0.25242E+05
 0.54953003E+02 -0.25360E+05
 0.55003002E+02 -0.24992E+05
 0.55053001E+02 -0.24963E+05
 0.55103004E+02 -0.25499E+05
 0.55153004E+02 -0.25666E+05
 0.55203003E+02 -0.25475E+05
 0.55253002E+02 -0.25339E+05
 0.55303001E+02 -0.25595E+05
 0.55353004E+02 -0.25610E+05
 0.55403004E+02 -0.25142E+05
 0.55453003E+02 -0.24698E+05
 0.55503002E+02 -0.25217E+05
 0.55553001E+02 -0.25513E+05
 0.55603004E+02 -0.24746E+05
 0.55653004E+02 -0.25170E+05
 0.55703003E+02 -0.25760E+05
 0.55753002E+02 -0.25295E+05
 0.55803001E+02 -0.25134E+05
 0.55853001E+02 -0.25552E+05
 0.55903004E+02 -0.25445E+05
 0.55953003E+02 -0.25149E+05
 0.56003002E+02 -0.25404E+05
 0.56053001E+02 -0.25421E+05
 0.56103001E+02 -0.24870E+05
 0.56153004E+02 -0.24876E+05
 0.56203003E+02 -0.25210E+05
 0.56253002E+02 -0.25007E+05
 0.56303001E+02 -0.24999E+05
 0.56353001E+02 -0.25180E+05
 0.56403004E+02 -0.25068E+05
 0.56453003E+02 -0.25152E+05
 0.56503002E+02 -0.25571E+05
 0.56553001E+02 -0.25331E+05
 0.56603001E+02 -0.25394E+05
 0.56653004E+02 -0.25721E+05
 0.56703003E+02 -0.25351E+05
 0.56753002E+02 -0.25366E+05
 0.56803001E+02 -0.25487E+05
 0.56853001E+02 -0.25577E+05
 0.56903004E+02 -0.25546E+05
 0.56953003E+02 -0.25244E+05
 0.57003002E+02 -0.25626E+05
 0.57053001E+02 -0.25484E+05
 0.57103001E+02 -0.24979E+05
 0.57153004E+02 -0.25223E+05
 0.57203003E+02 -0.25518E+05
 0.57253002E+02 -0.25477E+05
 0.57303001E+02 -0.25162E+05
 0.57353001E+02 -0.25144E+05
 0.57403004E+02 -0.24934E+05
 0.57453003E+02 -0.25131E+05
 0.57503002E+02 -0.25657E+05
 0.57553001E+02 -0.25298E+05
 0.57603001E+02 -0.25017E+05
 0.57653004E+02 -0.25601E+05
 0.57703003E+02 -0.25647E+05
 0.57753002E+02 -0.24940E+05
 0.57803001E+02 -0.25075E+05
 0.57853001E+02 -0.25610E+05
 0.57903004E+02 -0.25293E+05
 0.57953003E+02 -0.24811E+05
 0.58003002E+02 -0.25225E+05
 0.58053001E+02 -0.25529E+05
 0.58103001E+02 -0.25211E+05
 0.58153004E+02 -0.25026E+05
 0.58203003E+02 -0.25342E+05
 0.58253002E+02 -0.25448E+05
 0.58303001E+02 -0.25258E+05
 0.58353001E+02 -0.25227E+05
 0.58403004E+02 -0.25200E+05
 0.58453003E+02 -0.25575E+05
 0.58503002E+02 -0.25588E+05
 0.58553001E+02 -0.25282E+05
 0.58603001E+02 -0.25558E+05
 0.58653004E+02 -0.25347E+05
 0.58703003E+02 -0.24832E+05
 0.58753002E+02 -0.25255E+05
 0.58803001E+02 -0.25711E+05
 0.58853001E+02 -0.25472E+05
 0.58903004E+02 -0.25139E+05
 0.58953003E+02 -0.25294E+05
 0.59003002E+02 -0.25175E+05
 0.59053001E+02 -0.24796E+05
 0.59103001E+02 -0.24817E+05
 0.59153004E+02 -0.25382E+05
 0.59203003E+02 -0.25682E+05
 0.59253002E+02 -0.25084E+05
 0.59303001E+02 -0.25027E+05
 0.59353001E+02 -0.25604E+05
 0.59403004E+02 -0.25663E+05
 0.59453003E+02 -0.25724E+05
 0.59503002E+02 -0.25643E+05
 0.59553001E+02 -0.25134E+05
 0.59603001E+02 -0.25159E+05
 0.59653004E+02 -0.25347E+05
 0.59703003E+02 -0.25179E+05
 0.59753002E+02 -0.25084E+05
 0.59803001E+02 -0.25207E+05
 0.59853001E+02 -0.24961E+05
 0.59903004E+02 -0.25061E+05
 0.59953003E+02 -0.25350E+05
 0.60003002E+02 -0.25154E+05
 0.60053001E+02 -0.24931E+05
 0.60103001E+02 -0.25122E+05
 0.60153004E+02 -0.25612E+05
 0.60203003E+02 -0.25449E+05
 0.60253002E+02 -0.24835E+05
 0.60303001E+02 -0.25231E+05
 0.60353001E+02 -0.25605E+05
 0.60403004E+02 -0.25062E+05
 0.60453003E+02 -0.25187E+05
 0.60503002E+02 -0.25649E+05
 0.60553001E+02 -0.25241E+05
 0.60603001E+02 -0.24790E+05
 0.60653004E+02 -0.25469E+05
 0.60703003E+02 -0.25421E+05
 0.60753002E+02 -0.24788E+05
 0.60803001E+02 -0.25097E+05
 0.60853001E+02 -0.25226E+05
 0.60903004E+02 -0.25254E+05
 0.60953003E+02 -0.25167E+05
 0.61003002E+02 -0.24915E+05
 0.61053001E+02 -0.24859E+05
 0.61103001E+02 -0.25016E+05
 0.61153004E+02 -0.25308E+05
 0.61203003E+02 -0.25170E+05
 0.61253002E+02 -0.24944E+05
 0.61303001E+02 -0.25254E+05
 0.61353001E+02 -0.25433E+05
 0.61403004E+02 -0.25126E+05
 0.61453003E+02 -0.25558E+05
 0.61503002E+02 -0.25723E+05
 0.61553001E+02 -0.25556E+05
 0.61603001E+02 -0.25731E+05
 0.61653004E+02 -0.25758E+05
 0.61703003E+02 -0.25658E+05
 0.61753002E+02 -0.25502E+05
 0.61803001E+02 -0.25830E+05
 0.61853001E+02 -0.25686E+05
 0.61903004E+02 -0.24873E+05
 0.61953003E+02 -0.24733E+05
 0.62003002E+02 -0.25592E+05
 0.62053001E+02 -0.26117E+05
 0.62103004E+02 -0.25704E+05
 0.62153000E+02 -0.25336E+05
 0.62203003E+02 -0.25220E+05
 0.62252998E+02 -0.24808E+05
 0.62303001E+02 -0.24825E+05
 0.62353004E+02 -0.24923E+05
 0.62403000E+02 -0.24800E+05
 0.62453003E+02 -0.24768E+05
 0.62502998E+02 -0.24826E+05
 0.62553001E+02 -0.25477E+05
 0.62603004E+02 -0.25443E+05
 0.62653000E+02 -0.24633E+05
 0.62703003E+02 -0.24583E+05
 0.62752998E+02 -0.25272E+05
 0.62803001E+02 -0.25753E+05
 0.62853004E+02 -0.25553E+05
 0.62903000E+02 -0.25330E+05
 0.62953003E+02 -0.25507E+05
 0.63002998E+02 -0.25584E+05
 0.63053001E+02 -0.24906E+05
 0.63103004E+02 -0.24546E+05
 0.63153000E+02 -0.25106E+05
 0.63203003E+02 -0.25696E+05
 0.63252998E+02 -0.26142E+05
 0.63303001E+02 -0.25942E+05
 0.63353004E+02 -0.25452E+05
 0.63403000E+02 -0.25039E+05
 0.63453003E+02 -0.25101E+05
 0.63502998E+02 -0.25127E+05
 0.63553001E+02 -0.25138E+05
 0.63603004E+02 -0.25685E+05
 0.63653000E+02 -0.25867E+05
 0.63703003E+02 -0.25869E+05
 0.63752998E+02 -0.25334E+05
 0.63803001E+02 -0.24920E+05
 0.63853004E+02 -0.25314E+05
 0.63903000E+02 -0.25225E+05
 0.63953003E+02 -0.25147E+05
 0.64002998E+02 -0.25439E+05
 0.64053001E+02 -0.24942E+05
 0.64103004E+02 -0.24231E+05
 0.64153000E+02 -0.24558E+05
 0.64203003E+02 -0.24405E+05
 0.64252998E+02 -0.24234E+05
 0.64303001E+02 -0.25051E+05
 0.64353004E+02 -0.25080E+05
 0.64403000E+02 -0.24693E+05
 0.64453003E+02 -0.24976E+05
 0.64502998E+02 -0.25483E+05
 0.64553001E+02 -0.25754E+05
 0.64603004E+02 -0.26238E+05
 0.64653000E+02 -0.26553E+05
 0.64703003E+02 -0.26229E+05
 0.64752998E+02 -0.25654E+05
 0.64803001E+02 -0.25790E+05
 0.64853004E+02 -0.25862E+05
 0.64903000E+02 -0.25198E+05
 0.64953003E+02 -0.24983E+05
 0.65002998E+02 -0.25518E+05
 0.65053001E+02 -0.25266E+05
 0.65103004E+02 -0.24208E+05
 0.65153000E+02 -0.24893E+05
 0.65203003E+02 -0.25837E+05
 0.65252998E+02 -0.25745E+05
 0.65303001E+02 -0.26246E+05
 0.65353004E+02 -0.26433E+05
 0.65403000E+02 -0.25589E+05
 0.65453003E+02 -0.24982E+05
 0.65502998E+02 -0.24907E+05
 0.65553001E+02 -0.25285E+05
 0.65603004E+02 -0.25287E+05
 0.65653000E+02 -0.25168E+05
 0.65703003E+02 -0.25440E+05
 0.65752998E+02 -0.24779E+05
 0.65803001E+02 -0.23967E+05
 0.65853004E+02 -0.24265E+05
 0.65903000E+02 -0.24491E+05
 0.65953003E+02 -0.24114E+05
 0.66002998E+02 -0.24211E+05
 0.66053001E+02 -0.25008E+05
 0.66103004E+02 -0.25622E+05
 0.66153000E+02 -0.25805E+05
 0.66203003E+02 -0.26292E+05
 0.66252998E+02 -0.25922E+05
 0.66303001E+02 -0.24440E+05
 0.66353004E+02 -0.24223E+05
 0.66403000E+02 -0.25140E+05
 0.66453003E+02 -0.25314E+05
 0.66502998E+02 -0.25243E+05
 0.66553001E+02 -0.25690E+05
 0.66603004E+02 -0.25661E+05
 0.66653000E+02 -0.25293E+05
 0.66703003E+02 -0.25645E+05
 0.66752998E+02 -0.25667E+05
 0.66803001E+02 -0.25262E+05
 0.66853004E+02 -0.25464E+05
 0.66903000E+02 -0.25917E+05
 0.66953003E+02 -0.25936E+05
 0.67002998E+02 -0.25571E+05
 0.67053001E+02 -0.25696E+05
 0.67103004E+02 -0.25606E+05
 0.67153000E+02 -0.25081E+05
 0.67203003E+02 -0.25000E+05
 0.67252998E+02 -0.25245E+05
 0.67303001E+02 -0.25123E+05
 0.67353004E+02 -0.24650E+05
 0.67403000E+02 -0.24984E+05
 0.67453003E+02 -0.25484E+05
 0.67502998E+02 -0.25366E+05
 0.67553001E+02 -0.25139E+05
 0.67603004E+02 -0.25428E+05
 0.67653000E+02 -0.25869E+05
 0.67703003E+02 -0.25282E+05
 0.67752998E+02 -0.24557E+05
 0.67803001E+02 -0.24717E+05
 0.67853004E+02 -0.24890E+05
 0.67903000E+02 -0.24615E+05
 0.67953003E+02 -0.24537E+05
 0.68002998E+02 -0.24815E+05
 0.68053001E+02 -0.24893E+05
 0.68103004E+02 -0.24894E+05
 0.68153000E+02 -0.25457E+05
 0.68203003E+02 -0.25833E+05
 0.68252998E+02 -0.25268E+05
 0.68303001E+02 -0.24966E+05
 0.68353004E+02 -0.25515E+05
 0.68403000E+02 -0.25974E+05
 0.68453003E+02 -0.26123E+05
 0.68502998E+02 -0.26036E+05
 0.68553001E+02 -0.25996E+05
 0.68603004E+02 -0.25825E+05
 0.68653000E+02 -0.25387E+05
 0.68703003E+02 -0.25456E+05
 0.68752998E+02 -0.25490E+05
 0.68803001E+02 -0.25098E+05
 0.68853004E+02 -0.25002E+05
 0.68903000E+02 -0.25001E+05
 0.68953003E+02 -0.24745E+05
 0.69002998E+02 -0.24543E+05
 0.69053001E+02 -0.24525E+05
 0.69103004E+02 -0.24912E+05
 0.69153000E+02 -0.25413E+05
 0.69203003E+02 -0.25190E+05
 0.69252998E+02 -0.25052E+05
 0.69303001E+02 -0.25368E+05
 0.69353004E+02 -0.25480E+05
 0.69403000E+02 -0.25477E+05
 0.69453003E+02 -0.25017E+05
 0.69502998E+02 -0.24629E+05
 0.69553001E+02 -0.25214E+05
 0.69603004E+02 -0.25769E+05
 0.69653000E+02 -0.25583E+05
 0.69703003E+02 -0.25157E+05
 0.69752998E+02 -0.25140E+05
 0.69803001E+02 -0.25788E+05
 0.69853004E+02 -0.26222E+05
 0.69903000E+02 -0.25923E+05
 0.69953003E+02 -0.25491E+05
 0.70002998E+02 -0.25591E+05
 0.70053001E+02 -0.25632E+05
 0.70103004E+02 -0.25081E+05
 0.70153000E+02 -0.25196E+05
 0.70203003E+02 -0.25669E+05
 0.70252998E+02 -0.25327E+05
 0.70303001E+02 -0.25166E+05
 0.70353004E+02 -0.25561E+05
 0.70403000E+02 -0.25484E+05
 0.70453003E+02 -0.25020E+05
 0.70502998E+02 -0.25020E+05
 0.70553001E+02 -0.25025E+05
 0.70603004E+02 -0.24765E+05
 0.70653000E+02 -0.25001E+05
 0.70703003E+02 -0.25132E+05
 0.70752998E+02 -0.24936E+05
 0.70803001E+02 -0.25174E+05
 0.70853004E+02 -0.25127E+05
 0.70903000E+02 -0.24961E+05
 0.70953003E+02 -0.25528E+05
 0.71002998E+02 -0.25782E+05
 0.71053001E+02 -0.25354E+05
 0.71103004E+02 -0.25162E+05
 0.71153000E+02 -0.25344E+05
 0.71203003E+02 -0.25205E+05
 0.71252998E+02 -0.24821E+05
 0.71303001E+02 -0.24861E+05
 0.71353004E+02 -0.25034E+05
 0.71403000E+02 -0.25143E+05
 0.71453003E+02 -0.25443E+05
 0.71502998E+02 -0.25607E+05
 0.71553001E+02 -0.25653E+05
 0.71603004E+02 -0.26005E+05
 0.71653000E+02 -0.26055E+05
 0.71703003E+02 -0.25785E+05
 0.71752998E+02 -0.25515E+05
 0.71803001E+02 -0.25164E+05
 0.71853004E+02 -0.25154E+05
 0.71903000E+02 -0.25434E+05
 0.71953003E+02 -0.25698E+05
 0.72002998E+02 -0.25641E+05
 0.72053001E+02 -0.25586E+05
 0.72103004E+02 -0.25728E+05
 0.72153000E+02 -0.25441E+05
 0.72203003E+02 -0.24921E+05
 0.72252998E+02 -0.24902E+05
 0.72303001E+02 -0.25128E+05
 0.72353004E+02 -0.24977E+05
 0.72403000E+02 -0.24916E+05
 0.72453003E+02 -0.25093E+05
 0.72502998E+02 -0.24914E+05
 0.72553001E+02 -0.24860E+05
 0.72603004E+02 -0.25044E+05
 0.72653000E+02 -0.24915E+05
 0.72703003E+02 -0.24844E+05
 0.72752998E+02 -0.25261E+05
 0.72803001E+02 -0.25562E+05
 0.72853004E+02 -0.25500E+05
 0.72903000E+02 -0.25631E+05
 0.72953003E+02 -0.25616E+05
 0.73002998E+02 -0.25495E+05
 0.73053001E+02 -0.25358E+05
 0.73103004E+02 -0.25159E+05
 0.73153000E+02 -0.25219E+05
 0.73203003E+02 -0.25280E+05
 0.73252998E+02 -0.25207E+05
 0.73303001E+02 -0.25248E+05
 0.73353004E+02 -0.25301E+05
 0.73403000E+02 -0.25209E+05
 0.73453003E+02 -0.25173E+05
 0.73502998E+02 -0.25217E+05
 0.73553001E+02 -0.25722E+05
 0.73603004E+02 -0.25954E+05
 0.73653000E+02 -0.25353E+05
 0.73703003E+02 -0.24938E+05
 0.73752998E+02 -0.24963E+05
 0.73803001E+02 -0.24936E+05
 0.73853004E+02 -0.24713E+05
 0.73903000E+02 -0.24675E+05
 0.73953003E+02 -0.24802E+05
 0.74002998E+02 -0.24980E+05
 0.74053001E+02 -0.25115E+05
 0.74103004E+02 -0.25234E+05
 0.74153000E+02 -0.25217E+05
 0.74203003E+02 -0.25125E+05
 0.74252998E+02 -0.25345E+05
 0.74303001E+02 -0.25445E+05
 0.74353004E+02 -0.25307E+05
 0.74403000E+02 -0.25246E+05
 0.74453003E+02 -0.25238E+05
 0.74502998E+02 -0.25217E+05
 0.74553001E+02 -0.25032E+05
 0.74603004E+02 -0.24820E+05
 0.74653000E+02 -0.24792E+05
 0.74703003E+02 -0.24855E+05
 0.74752998E+02 -0.25123E+05
 0.74803001E+02 -0.25411E+05
 0.74853004E+02 -0.25366E+05
 0.74903000E+02 -0.25107E+05
 0.74953003E+02 -0.25045E+05
 0.75002998E+02 -0.25271E+05
 0.75053001E+02 -0.25379E+05
 0.75103004E+02 -0.25333E+05
 0.75153000E+02 -0.25277E+05
 0.75203003E+02 -0.25330E+05
 0.75252998E+02 -0.25527E+05
 0.75303001E+02 -0.25637E+05
 0.75353004E+02 -0.25556E+05
 0.75403000E+02 -0.25370E+05
 0.75453003E+02 -0.25098E+05
 0.75502998E+02 -0.25026E+05
 0.75553001E+02 -0.25394E+05
 0.75603004E+02 -0.25571E+05
 0.75653000E+02 -0.25541E+05
 0.75703003E+02 -0.25805E+05
 0.75752998E+02 -0.25836E+05
 0.75803001E+02 -0.25581E+05
 0.75853004E+02 -0.25469E+05
 0.75903000E+02 -0.25287E+05
 0.75953003E+02 -0.25051E+05
 0.76002998E+02 -0.25130E+05
 0.76053001E+02 -0.25349E+05
 0.76103004E+02 -0.25303E+05
 0.76153000E+02 -0.25116E+05
 0.76203003E+02 -0.25089E+05
 0.76252998E+02 -0.25095E+05
 0.76303001E+02 -0.24969E+05
 0.76353004E+02 -0.25072E+05
 0.76403000E+02 -0.25365E+05
 0.76453003E+02 -0.25354E+05
 0.76502998E+02 -0.25047E+05
 0.76553001E+02 -0.24980E+05
 0.76603004E+02 -0.25199E+05
 0.76653000E+02 -0.25118E+05
 0.76703003E+02 -0.25008E+05
 0.76752998E+02 -0.25415E+05
 0.76803001E+02 -0.25829E+05
 0.76853004E+02 -0.25992E+05
 0.76903000E+02 -0.26126E+05
 0.76953003E+02 -0.26045E+05
 0.77002998E+02 -0.25787E+05
 0.77053001E+02 -0.25706E+05
 0.77103004E+02 -0.25482E+05
 0.77153000E+02 -0.25090E+05
 0.77203003E+02 -0.25109E+05
 0.77252998E+02 -0.25148E+05
 0.77303001E+02 -0.25171E+05
 0.77353004E+02 -0.25352E+05
 0.77403000E+02 -0.25374E+05
 0.77453003E+02 -0.25316E+05
 0.77502998E+02 -0.25059E+05
 0.77553001E+02 -0.24855E+05
 0.77603004E+02 -0.24966E+05
 0.77653000E+02 -0.25082E+05
 0.77703003E+02 -0.25057E+05
 0.77752998E+02 -0.24998E+05
 0.77803001E+02 -0.25012E+05
 0.77853004E+02 -0.25061E+05
 0.77903000E+02 -0.25101E+05
 0.77953003E+02 -0.25051E+05
 0.78002998E+02 -0.25030E+05
 0.78053001E+02 -0.25159E+05
 0.78103004E+02 -0.25216E+05
 0.78153000E+02 -0.25249E+05
 0.78203003E+02 -0.25352E+05
 0.78252998E+02 -0.25407E+05
 0.78303001E+02 -0.25528E+05
 0.78353004E+02 -0.25564E+05
 0.78403000E+02 -0.25577E+05
 0.78453003E+02 -0.25642E+05
 0.78502998E+02 -0.25696E+05
 0.78553001E+02 -0.25827E+05
 0.78603004E+02 -0.25768E+05
 0.78653000E+02 -0.25488E+05
 0.78703003E+02 -0.25282E+05
 0.78752998E+02 -0.25311E+05
 0.78803001E+02 -0.25357E+05
 0.78853004E+02 -0.25350E+05
 0.78903000E+02 -0.25364E+05
 0.78953003E+02 -0.25243E+05
 0.79002998E+02 -0.24991E+05
 0.79053001E+02 -0.24760E+05
 0.79103004E+02 -0.24824E+05
 0.79153000E+02 -0.24947E+05
 0.79203003E+02 -0.25030E+05
 0.79252998E+02 -0.25263E+05
 0.79303001E+02 -0.25321E+05
 0.79353004E+02 -0.25353E+05
 0.79403000E+02 -0.25442E+05
 0.79453003E+02 -0.25391E+05
 0.79502998E+02 -0.25242E+05
 0.79553001E+02 -0.25090E+05
 0.79603004E+02 -0.25026E+05
 0.79653000E+02 -0.24836E+05
 0.79703003E+02 -0.24618E+05
 0.79752998E+02 -0.24706E+05
 0.79803001E+02 -0.24795E+05
 0.79853004E+02 -0.24728E+05
 0.79903000E+02 -0.24677E+05
 0.79953003E+02 -0.24882E+05
 0.80002998E+02 -0.25230E+05
 0.80053001E+02 -0.25482E+05
 0.80103004E+02 -0.25731E+05
 0.80153000E+02 -0.25861E+05
 0.80203003E+02 -0.25867E+05
 0.80252998E+02 -0.25901E+05
 0.80303001E+02 -0.26063E+05
 0.80353004E+02 -0.25879E+05
 0.80403000E+02 -0.25315E+05
 0.80453003E+02 -0.25014E+05
 0.80502998E+02 -0.24876E+05
 0.80553001E+02 -0.24697E+05
 0.80603004E+02 -0.24709E+05
 0.80653000E+02 -0.24958E+05
 0.80703003E+02 -0.25106E+05
 0.80752998E+02 -0.25164E+05
 0.80803001E+02 -0.25375E+05
 0.80853004E+02 -0.25499E+05
 0.80903000E+02 -0.25500E+05
 0.80953003E+02 -0.25567E+05
 0.81002998E+02 -0.25570E+05
 0.81053001E+02 -0.25501E+05
 0.81103004E+02 -0.25416E+05
 0.81153000E+02 -0.25319E+05
 0.81203003E+02 -0.25234E+05
 0.81252998E+02 -0.25088E+05
 0.81303001E+02 -0.25026E+05
 0.81353004E+02 -0.25226E+05
 0.81403000E+02 -0.25318E+05
 0.81453003E+02 -0.25209E+05
 0.81502998E+02 -0.25177E+05
 0.81553001E+02 -0.25173E+05
 0.81603004E+02 -0.25139E+05
 0.81653000E+02 -0.25009E+05
 0.81703003E+02 -0.24910E+05
 0.81752998E+02 -0.24975E+05
 0.81803001E+02 -0.25076E+05
 0.81853004E+02 -0.25184E+05
 0.81903000E+02 -0.25312E+05
 0.81953003E+02 -0.25514E+05
 0.82002998E+02 -0.25712E+05
 0.82053001E+02 -0.25780E+05
 0.82103004E+02 -0.25787E+05
 0.82153000E+02 -0.25747E+05
 0.82203003E+02 -0.25706E+05
 0.82252998E+02 -0.25647E+05
 0.82303001E+02 -0.25496E+05
 0.82353004E+02 -0.25441E+05
 0.82403000E+02 -0.25378E+05
 0.82453003E+02 -0.25113E+05
 0.82502998E+02 -0.24951E+05
 0.82553001E+02 -0.24927E+05
 0.82603004E+02 -0.24889E+05
 0.82653000E+02 -0.24888E+05
 0.82703003E+02 -0.24964E+05
 0.82752998E+02 -0.25116E+05
 0.82803001E+02 -0.25179E+05
 0.82853004E+02 -0.25195E+05
 0.82903000E+02 -0.25347E+05
 0.82953003E+02 -0.25443E+05
 0.83002998E+02 -0.25404E+05
 0.83053001E+02 -0.25455E+05
 0.83103004E+02 -0.25545E+05
 0.83153000E+02 -0.25470E+05
 0.83203003E+02 -0.25309E+05
 0.83252998E+02 -0.25238E+05
 0.83303001E+02 -0.25210E+05
 0.83353004E+02 -0.25138E+05
 0.83403000E+02 -0.25078E+05
 0.83453003E+02 -0.25117E+05
 0.83502998E+02 -0.25189E+05
 0.83553001E+02 -0.25251E+05
 0.83603004E+02 -0.25358E+05
 0.83653000E+02 -0.25427E+05
 0.83703003E+02 -0.25480E+05
 0.83752998E+02 -0.25581E+05
 0.83803001E+02 -0.25743E+05
 0.83853004E+02 -0.25814E+05
 0.83903000E+02 -0.25740E+05
 0.83953003E+02 -0.25662E+05
 0.84002998E+02 -0.25498E+05
 0.84053001E+02 -0.25352E+05
 0.84103004E+02 -0.25319E+05
 0.84153000E+02 -0.25287E+05
 0.84203003E+02 -0.25255E+05
 0.84252998E+02 -0.25217E+05
 0.84303001E+02 -0.25093E+05
 0.84353004E+02 -0.25004E+05
 0.84403000E+02 -0.24985E+05
 0.84453003E+02 -0.25038E+05
 0.84502998E+02 -0.25191E+05
 0.84553001E+02 -0.25190E+05
 0.84603004E+02 -0.25137E+05
 0.84653000E+02 -0.25217E+05
 0.84703003E+02 -0.25161E+05
 0.84752998E+02 -0.25103E+05
 0.84803001E+02 -0.25198E+05
 0.84853004E+02 -0.25216E+05
 0.84903000E+02 -0.25257E+05
 0.84953003E+02 -0.25336E+05
 0.85002998E+02 -0.25395E+05
 0.85053001E+02 -0.25420E+05
 0.85103004E+02 -0.25422E+05
 0.85153000E+02 -0.25478E+05
 0.85203003E+02 -0.25494E+05
 0.85252998E+02 -0.25387E+05
 0.85303001E+02 -0.25278E+05
 0.85353004E+02 -0.25380E+05
 0.85403000E+02 -0.25402E+05
 0.85453003E+02 -0.25199E+05
 0.85502998E+02 -0.25177E+05
 0.85553001E+02 -0.25226E+05
 0.85603004E+02 -0.25113E+05
 0.85653000E+02 -0.25024E+05
 0.85703003E+02 -0.24989E+05
 0.85752998E+02 -0.24974E+05
 0.85803001E+02 -0.25049E+05
 0.85853004E+02 -0.25080E+05
 0.85903000E+02 -0.25107E+05
 0.85953003E+02 -0.25213E+05
 0.86002998E+02 -0.25324E+05
 0.86053001E+02 -0.25441E+05
 0.86103004E+02 -0.25508E+05
 0.86153000E+02 -0.25411E+05
 0.86203003E+02 -0.25333E+05
 0.86252998E+02 -0.25356E+05
 0.86303001E+02 -0.25217E+05
 0.86353004E+02 -0.25115E+05
 0.86403000E+02 -0.25194E+05
 0.86453003E+02 -0.25166E+05
 0.86502998E+02 -0.24879E+05
 0.86553001E+02 -0.24737E+05
 0.86603004E+02 -0.24849E+05
 0.86653000E+02 -0.24917E+05
 0.86703003E+02 -0.25028E+05
 0.86752998E+02 -0.25240E+05
 0.86803001E+02 -0.25371E+05
 0.86853004E+02 -0.25349E+05
 0.86903000E+02 -0.25408E+05
 0.86953003E+02 -0.25453E+05
 0.87002998E+02 -0.25378E+05
 0.87053001E+02 -0.25390E+05
 0.87103004E+02 -0.25401E+05
 0.87153000E+02 -0.25298E+05
 0.87203003E+02 -0.25221E+05
 0.87252998E+02 -0.25210E+05
 0.87303001E+02 -0.25200E+05
 0.87353004E+02 -0.25195E+05
 0.87403000E+02 -0.25206E+05
 0.87453003E+02 -0.25213E+05
 0.87502998E+02 -0.25297E+05
 0.87553001E+02 -0.25394E+05
 0.87602997E+02 -0.25414E+05
 0.87653000E+02 -0.25494E+05
 0.87703003E+02 -0.25592E+05
 0.87752998E+02 -0.25624E+05
 0.87803001E+02 -0.25678E+05
 0.87852997E+02 -0.25646E+05
 0.87903000E+02 -0.25419E+05
 0.87953003E+02 -0.25325E+05
 0.88002998E+02 -0.25265E+05
 0.88053001E+02 -0.25033E+05
 0.88102997E+02 -0.24928E+05
 0.88153000E+02 -0.24915E+05
 0.88203003E+02 -0.24951E+05
 0.88252998E+02 -0.25016E+05
 0.88303001E+02 -0.25084E+05
 0.88352997E+02 -0.25264E+05
 0.88403000E+02 -0.25379E+05
 0.88453003E+02 -0.25373E+05
 0.88502998E+02 -0.25334E+05
 0.88553001E+02 -0.25380E+05
 0.88602997E+02 -0.25541E+05
 0.88653000E+02 -0.25618E+05
 0.88703003E+02 -0.25641E+05
 0.88752998E+02 -0.25676E+05
 0.88803001E+02 -0.25641E+05
 0.88852997E+02 -0.25548E+05
 0.88903000E+02 -0.25440E+05
 0.88953003E+02 -0.25337E+05
 0.89002998E+02 -0.25241E+05
 0.89053001E+02 -0.25177E+05
 0.89102997E+02 -0.25154E+05
 0.89153000E+02 -0.25170E+05
 0.89203003E+02 -0.25168E+05
 0.89252998E+02 -0.25133E+05
 0.89303001E+02 -0.25107E+05
 0.89352997E+02 -0.25150E+05
 0.89403000E+02 -0.25224E+05
 0.89453003E+02 -0.25202E+05
 0.89502998E+02 -0.25180E+05
 0.89553001E+02 -0.25171E+05
 0.89602997E+02 -0.25129E+05
 0.89653000E+02 -0.25163E+05
 0.89703003E+02 -0.25210E+05
 0.89752998E+02 -0.25195E+05
 0.89803001E+02 -0.25257E+05
 0.89852997E+02 -0.25348E+05
 0.89903000E+02 -0.25314E+05
 0.89953003E+02 -0.25265E+05
 0.90002998E+02 -0.25267E+05
 0.90053001E+02 -0.25259E+05
 0.90102997E+02 -0.25236E+05
 0.90153000E+02 -0.25244E+05
 0.90203003E+02 -0.25246E+05
 0.90252998E+02 -0.25211E+05
 0.90303001E+02 -0.25170E+05
 0.90352997E+02 -0.25134E+05
 0.90403000E+02 -0.25152E+05
 0.90453003E+02 -0.25112E+05
 0.90502998E+02 -0.25039E+05
 0.90553001E+02 -0.25132E+05
 0.90602997E+02 -0.25263E+05
 0.90653000E+02 -0.25310E+05
 0.90703003E+02 -0.25401E+05
 0.90752998E+02 -0.25518E+05
 0.90803001E+02 -0.25614E+05
 0.90852997E+02 -0.25638E+05
 0.90903000E+02 -0.25567E+05
 0.90953003E+02 -0.25505E+05
 0.91002998E+02 -0.25421E+05
 0.91053001E+02 -0.25320E+05
 0.91102997E+02 -0.25265E+05
 0.91153000E+02 -0.25214E+05
 0.91203003E+02 -0.25168E+05
 0.91252998E+02 -0.25201E+05
 0.91303001E+02 -0.25266E+05
 0.91352997E+02 -0.25201E+05
 0.91403000E+02 -0.25115E+05
 0.91453003E+02 -0.25111E+05
 0.91502998E+02 -0.25129E+05
 0.91553001E+02 -0.25197E+05
 0.91602997E+02 -0.25283E+05
 0.91653000E+02 -0.25350E+05
 0.91703003E+02 -0.25363E+05
 0.91752998E+02 -0.25349E+05
 0.91803001E+02 -0.25364E+05
 0.91852997E+02 -0.25344E+05
 0.91903000E+02 -0.25280E+05
 0.91953003E+02 -0.25270E+05
 0.92002998E+02 -0.25257E+05
 0.92053001E+02 -0.25201E+05
 0.92102997E+02 -0.25221E+05
 0.92153000E+02 -0.25245E+05
 0.92203003E+02 -0.25186E+05
 0.92252998E+02 -0.25165E+05
 0.92303001E+02 -0.25184E+05
 0.92352997E+02 -0.25150E+05
 0.92403000E+02 -0.25110E+05
 0.92453003E+02 -0.25091E+05
 0.92502998E+02 -0.25080E+05
 0.92553001E+02 -0.25112E+05
 0.92602997E+02 -0.25213E+05
 0.92653000E+02 -0.25283E+05
 0.92703003E+02 -0.25274E+05
 0.92752998E+02 -0.25230E+05
 0.92803001E+02 -0.25128E+05
 0.92852997E+02 -0.25070E+05
 0.92903000E+02 -0.25068E+05
 0.92953003E+02 -0.25029E+05
 0.93002998E+02 -0.25095E+05
 0.93053001E+02 -0.25227E+05
 0.93102997E+02 -0.25273E+05
 0.93153000E+02 -0.25324E+05
 0.93203003E+02 -0.25437E+05
 0.93252998E+02 -0.25516E+05
 0.93303001E+02 -0.25530E+05
 0.93352997E+02 -0.25512E+05
 0.93403000E+02 -0.25490E+05
 0.93453003E+02 -0.25495E+05
 0.93502998E+02 -0.25434E+05
 0.93553001E+02 -0.25312E+05
 0.93602997E+02 -0.25279E+05
 0.93653000E+02 -0.25301E+05
 0.93703003E+02 -0.25306E+05
 0.93752998E+02 -0.25326E+05
 0.93803001E+02 -0.25327E+05
 0.93852997E+02 -0.25261E+05
 0.93903000E+02 -0.25198E+05
 0.93953003E+02 -0.25152E+05
 0.94002998E+02 -0.25155E+05
 0.94053001E+02 -0.25282E+05
 0.94102997E+02 -0.25417E+05
 0.94153000E+02 -0.25525E+05
 0.94203003E+02 -0.25570E+05
 0.94252998E+02 -0.25566E+05
 0.94303001E+02 -0.25535E+05
 0.94352997E+02 -0.25474E+05
 0.94403000E+02 -0.25433E+05
 0.94453003E+02 -0.25317E+05
 0.94502998E+02 -0.25174E+05
 0.94553001E+02 -0.25094E+05
 0.94602997E+02 -0.25115E+05
 0.94653000E+02 -0.25128E+05
 0.94703003E+02 -0.25076E+05
 0.94752998E+02 -0.25117E+05
 0.94803001E+02 -0.25220E+05
 0.94852997E+02 -0.25230E+05
 0.94903000E+02 -0.25224E+05
 0.94953003E+02 -0.25263E+05
 0.95002998E+02 -0.25285E+05
 0.95053001E+02 -0.25325E+05
 0.95102997E+02 -0.25384E+05
 0.95153000E+02 -0.25436E+05
 0.95203003E+02 -0.25492E+05
 0.95252998E+02 -0.25478E+05
 0.95303001E+02 -0.25406E+05
 0.95352997E+02 -0.25391E+05
 0.95403000E+02 -0.25391E+05
 0.95453003E+02 -0.25367E+05
 0.95502998E+02 -0.25312E+05
 0.95553001E+02 -0.25267E+05
 0.95602997E+02 -0.25253E+05
 0.95653000E+02 -0.25214E+05
 0.95703003E+02 -0.25227E+05
 0.95752998E+02 -0.25279E+05
 0.95803001E+02 -0.25271E+05
 0.95852997E+02 -0.25259E+05
 0.95903000E+02 -0.25212E+05
 0.95953003E+02 -0.25107E+05
 0.96002998E+02 -0.25082E+05
 0.96053001E+02 -0.25127E+05
 0.96102997E+02 -0.25122E+05
 0.96153000E+02 -0.25150E+05
 0.96203003E+02 -0.25253E+05
 0.96252998E+02 -0.25311E+05
 0.96303001E+02 -0.25363E+05
 0.96352997E+02 -0.25418E+05
 0.96403000E+02 -0.25442E+05
 0.96453003E+02 -0.25459E+05
 0.96502998E+02 -0.25475E+05
 0.96553001E+02 -0.25450E+05
 0.96602997E+02 -0.25457E+05
 0.96653000E+02 -0.25506E+05
 0.96703003E+02 -0.25468E+05
 0.96752998E+02 -0.25366E+05
 0.96803001E+02 -0.25259E+05
 0.96852997E+02 -0.25190E+05
 0.96903000E+02 -0.25111E+05
 0.96953003E+02 -0.25095E+05
 0.97002998E+02 -0.25168E+05
 0.97053001E+02 -0.25201E+05
 0.97102997E+02 -0.25220E+05
 0.97153000E+02 -0.25276E+05
 0.97203003E+02 -0.25317E+05
 0.97252998E+02 -0.25348E+05
 0.97303001E+02 -0.25460E+05
 0.97352997E+02 -0.25508E+05
 0.97403000E+02 -0.25507E+05
 0.97453003E+02 -0.25500E+05
 0.97502998E+02 -0.25462E+05
 0.97553001E+02 -0.25438E+05
 0.97602997E+02 -0.25340E+05
 0.97653000E+02 -0.25229E+05
 0.97703003E+02 -0.25142E+05
 0.97752998E+02 -0.25093E+05
 0.97803001E+02 -0.25082E+05
 0.97852997E+02 -0.25048E+05
 0.97903000E+02 -0.25012E+05
 0.97953003E+02 -0.25009E+05
 0.98002998E+02 -0.25057E+05
