-0.20000000E+01 -0.18910E+05
-0.19500000E+01 -0.18807E+05
-0.19000000E+01 -0.18925E+05
-0.18500000E+01 -0.18968E+05
-0.18000000E+01 -0.18986E+05
-0.17500000E+01 -0.18961E+05
-0.17000000E+01 -0.18894E+05
-0.16500001E+01 -0.18839E+05
-0.16000000E+01 -0.18799E+05
-0.15500000E+01 -0.18797E+05
-0.15000000E+01 -0.18814E+05
-0.14500000E+01 -0.18826E+05
-0.14000001E+01 -0.18809E+05
-0.13500000E+01 -0.18780E+05
-0.13000001E+01 -0.18740E+05
-0.12500000E+01 -0.18718E+05
-0.12000000E+01 -0.18726E+05
-0.11500001E+01 -0.18749E+05
-0.11000000E+01 -0.18776E+05
-0.10500001E+01 -0.18775E+05
-0.10000000E+01 -0.18754E+05
-0.95000005E+00 -0.18709E+05
-0.90000010E+00 -0.18689E+05
-0.85000002E+00 -0.18694E+05
-0.80000007E+00 -0.18718E+05
-0.75000012E+00 -0.18752E+05
-0.70000005E+00 -0.18780E+05
-0.65000010E+00 -0.18802E+05
-0.60000014E+00 -0.18816E+05
-0.55000007E+00 -0.18817E+05
-0.50000012E+00 -0.18833E+05
-0.45000005E+00 -0.18849E+05
-0.40000010E+00 -0.18882E+05
-0.35000014E+00 -0.18920E+05
-0.30000007E+00 -0.18936E+05
-0.25000012E+00 -0.18945E+05
-0.20000005E+00 -0.18934E+05
-0.15000010E+00 -0.18926E+05
-0.10000014E+00 -0.18911E+05
-0.50000072E-01 -0.18899E+05
-0.11920929E-06 -0.18882E+05
 0.49999952E-01 -0.18842E+05
 0.99999905E-01 -0.18791E+05
 0.14999986E+00 -0.18742E+05
 0.19999981E+00 -0.18712E+05
 0.24999976E+00 -0.18737E+05
 0.29999995E+00 -0.18778E+05
 0.34999990E+00 -0.18802E+05
 0.39999986E+00 -0.18783E+05
 0.44999981E+00 -0.18746E+05
 0.49999976E+00 -0.18729E+05
 0.54999995E+00 -0.18748E+05
 0.59999990E+00 -0.18799E+05
 0.64999986E+00 -0.18838E+05
 0.69999981E+00 -0.18868E+05
 0.74999976E+00 -0.18881E+05
 0.79999971E+00 -0.18879E+05
 0.84999990E+00 -0.18869E+05
 0.89999986E+00 -0.18859E+05
 0.94999981E+00 -0.18850E+05
 0.99999976E+00 -0.18852E+05
 0.10499997E+01 -0.18877E+05
 0.10999999E+01 -0.18910E+05
 0.11499999E+01 -0.18941E+05
 0.11999998E+01 -0.18951E+05
 0.12499998E+01 -0.18932E+05
 0.12999997E+01 -0.18901E+05
 0.13499999E+01 -0.18857E+05
 0.13999999E+01 -0.18825E+05
 0.14499998E+01 -0.18808E+05
 0.14999998E+01 -0.18817E+05
 0.15499997E+01 -0.18844E+05
 0.15999999E+01 -0.18871E+05
 0.16499999E+01 -0.18880E+05
 0.16999998E+01 -0.18867E+05
 0.17499998E+01 -0.18848E+05
 0.17999997E+01 -0.18836E+05
 0.18499997E+01 -0.18859E+05
 0.18999999E+01 -0.18893E+05
 0.19499998E+01 -0.18915E+05
 0.19999998E+01 -0.18920E+05
 0.20499997E+01 -0.18894E+05
 0.20999999E+01 -0.18851E+05
 0.21499996E+01 -0.18821E+05
 0.21999998E+01 -0.18810E+05
 0.22499995E+01 -0.18827E+05
 0.22999997E+01 -0.18836E+05
 0.23499999E+01 -0.18831E+05
 0.23999996E+01 -0.18823E+05
 0.24499998E+01 -0.18812E+05
 0.24999995E+01 -0.18817E+05
 0.25499997E+01 -0.18823E+05
 0.25999999E+01 -0.18827E+05
 0.26499996E+01 -0.18803E+05
 0.26999998E+01 -0.18775E+05
 0.27499995E+01 -0.18751E+05
 0.27999997E+01 -0.18730E+05
 0.28499999E+01 -0.18706E+05
 0.28999996E+01 -0.18690E+05
 0.29499998E+01 -0.18697E+05
 0.29999995E+01 -0.18716E+05
 0.30499997E+01 -0.18744E+05
 0.30999999E+01 -0.18772E+05
 0.31499996E+01 -0.18810E+05
 0.31999998E+01 -0.18841E+05
 0.32499995E+01 -0.18872E+05
 0.32999997E+01 -0.18901E+05
 0.33499999E+01 -0.18918E+05
 0.33999996E+01 -0.18931E+05
 0.34499998E+01 -0.18921E+05
 0.34999995E+01 -0.18915E+05
 0.35499997E+01 -0.18903E+05
 0.35999994E+01 -0.18885E+05
 0.36499996E+01 -0.18867E+05
 0.36999998E+01 -0.18853E+05
 0.37499995E+01 -0.18848E+05
 0.37999997E+01 -0.18818E+05
 0.38499994E+01 -0.18793E+05
 0.38999996E+01 -0.18777E+05
 0.39499998E+01 -0.18759E+05
 0.39999995E+01 -0.18767E+05
 0.40499997E+01 -0.18763E+05
 0.40999994E+01 -0.18766E+05
 0.41499996E+01 -0.18781E+05
 0.41999998E+01 -0.18797E+05
 0.42499995E+01 -0.18810E+05
 0.42999997E+01 -0.18832E+05
 0.43499994E+01 -0.18865E+05
 0.43999996E+01 -0.18875E+05
 0.44499998E+01 -0.18887E+05
 0.44999995E+01 -0.18893E+05
 0.45499997E+01 -0.18908E+05
 0.45999994E+01 -0.18912E+05
 0.46499996E+01 -0.18905E+05
 0.46999998E+01 -0.18897E+05
 0.47499995E+01 -0.18879E+05
 0.47999997E+01 -0.18839E+05
 0.48499994E+01 -0.18793E+05
 0.48999996E+01 -0.18772E+05
 0.49499998E+01 -0.18789E+05
 0.49999995E+01 -0.18837E+05
 0.50499997E+01 -0.18884E+05
 0.50999994E+01 -0.18925E+05
 0.51499996E+01 -0.18926E+05
 0.51999998E+01 -0.18881E+05
 0.52499995E+01 -0.18833E+05
 0.52999997E+01 -0.18815E+05
 0.53499994E+01 -0.18838E+05
 0.53999996E+01 -0.18876E+05
 0.54499993E+01 -0.18910E+05
 0.54999995E+01 -0.18909E+05
 0.55499997E+01 -0.18875E+05
 0.55999994E+01 -0.18845E+05
 0.56499996E+01 -0.18827E+05
 0.56999993E+01 -0.18816E+05
 0.57499995E+01 -0.18834E+05
 0.57999997E+01 -0.18851E+05
 0.58499994E+01 -0.18849E+05
 0.58999996E+01 -0.18828E+05
 0.59499993E+01 -0.18780E+05
 0.59999995E+01 -0.18765E+05
 0.60499992E+01 -0.18775E+05
 0.60999994E+01 -0.18813E+05
 0.61499996E+01 -0.18831E+05
 0.61999998E+01 -0.18852E+05
 0.62499990E+01 -0.18849E+05
 0.62999992E+01 -0.18826E+05
 0.63499994E+01 -0.18809E+05
 0.63999996E+01 -0.18808E+05
 0.64499998E+01 -0.18810E+05
 0.64999990E+01 -0.18805E+05
 0.65499992E+01 -0.18823E+05
 0.65999994E+01 -0.18826E+05
 0.66499996E+01 -0.18817E+05
 0.66999998E+01 -0.18788E+05
 0.67499990E+01 -0.18783E+05
 0.67999992E+01 -0.18775E+05
 0.68499994E+01 -0.18793E+05
 0.68999996E+01 -0.18816E+05
 0.69499998E+01 -0.18855E+05
 0.69999990E+01 -0.18890E+05
 0.70499992E+01 -0.18880E+05
 0.70999994E+01 -0.18875E+05
 0.71499996E+01 -0.18845E+05
 0.71999998E+01 -0.18842E+05
 0.72499990E+01 -0.18824E+05
 0.72999992E+01 -0.18813E+05
 0.73499994E+01 -0.18809E+05
 0.73999996E+01 -0.18810E+05
 0.74499998E+01 -0.18827E+05
 0.74999990E+01 -0.18837E+05
 0.75499992E+01 -0.18855E+05
 0.75999994E+01 -0.18844E+05
 0.76499996E+01 -0.18825E+05
 0.76999998E+01 -0.18794E+05
 0.77499990E+01 -0.18793E+05
 0.77999992E+01 -0.18810E+05
 0.78499994E+01 -0.18829E+05
 0.78999996E+01 -0.18815E+05
 0.79499998E+01 -0.18775E+05
 0.79999990E+01 -0.18755E+05
 0.80499992E+01 -0.18751E+05
 0.80999994E+01 -0.18787E+05
 0.81499996E+01 -0.18831E+05
 0.81999998E+01 -0.18875E+05
 0.82499990E+01 -0.18892E+05
 0.82999992E+01 -0.18872E+05
 0.83499994E+01 -0.18820E+05
 0.83999996E+01 -0.18764E+05
 0.84499998E+01 -0.18738E+05
 0.84999990E+01 -0.18739E+05
 0.85499992E+01 -0.18774E+05
 0.85999994E+01 -0.18807E+05
 0.86499996E+01 -0.18830E+05
 0.86999998E+01 -0.18842E+05
 0.87499990E+01 -0.18864E+05
 0.87999992E+01 -0.18876E+05
 0.88499994E+01 -0.18890E+05
 0.88999996E+01 -0.18902E+05
 0.89499998E+01 -0.18906E+05
 0.89999990E+01 -0.18919E+05
 0.90499992E+01 -0.18921E+05
 0.90999994E+01 -0.18934E+05
 0.91499996E+01 -0.18955E+05
 0.91999989E+01 -0.18970E+05
 0.92499990E+01 -0.18976E+05
 0.92999992E+01 -0.18959E+05
 0.93499994E+01 -0.18919E+05
 0.93999996E+01 -0.18899E+05
 0.94499989E+01 -0.18893E+05
 0.94999990E+01 -0.18893E+05
 0.95499992E+01 -0.18894E+05
 0.95999994E+01 -0.18893E+05
 0.96499996E+01 -0.18883E+05
 0.96999989E+01 -0.18867E+05
 0.97499990E+01 -0.18845E+05
 0.97999992E+01 -0.18824E+05
 0.98499994E+01 -0.18809E+05
 0.98999996E+01 -0.18783E+05
 0.99499989E+01 -0.18770E+05
 0.99999990E+01 -0.18771E+05
 0.10049999E+02 -0.18779E+05
 0.10099999E+02 -0.18783E+05
 0.10150000E+02 -0.18769E+05
 0.10199999E+02 -0.18746E+05
 0.10249999E+02 -0.18711E+05
 0.10299999E+02 -0.18676E+05
 0.10349999E+02 -0.18656E+05
 0.10400000E+02 -0.18658E+05
 0.10449999E+02 -0.18673E+05
 0.10499999E+02 -0.18707E+05
 0.10549999E+02 -0.18740E+05
 0.10599999E+02 -0.18758E+05
 0.10650000E+02 -0.18769E+05
 0.10699999E+02 -0.18789E+05
 0.10749999E+02 -0.18817E+05
 0.10799999E+02 -0.18836E+05
 0.10849999E+02 -0.18862E+05
 0.10900000E+02 -0.18886E+05
 0.10949999E+02 -0.18911E+05
 0.10999999E+02 -0.18950E+05
 0.11049999E+02 -0.18975E+05
 0.11099999E+02 -0.18967E+05
 0.11150000E+02 -0.18953E+05
 0.11199999E+02 -0.18937E+05
 0.11249999E+02 -0.18922E+05
 0.11299999E+02 -0.18907E+05
 0.11349999E+02 -0.18891E+05
 0.11400000E+02 -0.18881E+05
 0.11449999E+02 -0.18894E+05
 0.11499999E+02 -0.18921E+05
 0.11549999E+02 -0.18933E+05
 0.11599999E+02 -0.18928E+05
 0.11650000E+02 -0.18896E+05
 0.11699999E+02 -0.18881E+05
 0.11749999E+02 -0.18872E+05
 0.11799999E+02 -0.18856E+05
 0.11849999E+02 -0.18835E+05
 0.11900000E+02 -0.18798E+05
 0.11949999E+02 -0.18791E+05
 0.11999999E+02 -0.18805E+05
 0.12049999E+02 -0.18836E+05
 0.12099999E+02 -0.18869E+05
 0.12150000E+02 -0.18884E+05
 0.12199999E+02 -0.18893E+05
 0.12249999E+02 -0.18883E+05
 0.12299999E+02 -0.18878E+05
 0.12349999E+02 -0.18880E+05
 0.12400000E+02 -0.18875E+05
 0.12449999E+02 -0.18867E+05
 0.12499999E+02 -0.18846E+05
 0.12549999E+02 -0.18824E+05
 0.12599999E+02 -0.18806E+05
 0.12649999E+02 -0.18786E+05
 0.12699999E+02 -0.18768E+05
 0.12749999E+02 -0.18758E+05
 0.12799999E+02 -0.18764E+05
 0.12849999E+02 -0.18776E+05
 0.12899999E+02 -0.18775E+05
 0.12949999E+02 -0.18758E+05
 0.12999999E+02 -0.18750E+05
 0.13049999E+02 -0.18751E+05
 0.13099999E+02 -0.18761E+05
 0.13149999E+02 -0.18781E+05
 0.13199999E+02 -0.18783E+05
 0.13249999E+02 -0.18786E+05
 0.13299999E+02 -0.18768E+05
 0.13349999E+02 -0.18767E+05
 0.13399999E+02 -0.18781E+05
 0.13449999E+02 -0.18792E+05
 0.13499999E+02 -0.18810E+05
 0.13549999E+02 -0.18827E+05
 0.13599999E+02 -0.18818E+05
 0.13649999E+02 -0.18780E+05
 0.13699999E+02 -0.18750E+05
 0.13749999E+02 -0.18727E+05
 0.13799999E+02 -0.18740E+05
 0.13849999E+02 -0.18761E+05
 0.13899999E+02 -0.18805E+05
 0.13949999E+02 -0.18834E+05
 0.13999999E+02 -0.18826E+05
 0.14049999E+02 -0.18816E+05
 0.14099998E+02 -0.18820E+05
 0.14150000E+02 -0.18840E+05
 0.14199999E+02 -0.18865E+05
 0.14249998E+02 -0.18903E+05
 0.14299999E+02 -0.18921E+05
 0.14349998E+02 -0.18945E+05
 0.14400000E+02 -0.18950E+05
 0.14449999E+02 -0.18948E+05
 0.14499998E+02 -0.18954E+05
 0.14549999E+02 -0.18947E+05
 0.14599998E+02 -0.18949E+05
 0.14650000E+02 -0.18921E+05
 0.14699999E+02 -0.18872E+05
 0.14749998E+02 -0.18826E+05
 0.14799999E+02 -0.18799E+05
 0.14849998E+02 -0.18782E+05
 0.14900000E+02 -0.18768E+05
 0.14949999E+02 -0.18761E+05
 0.14999998E+02 -0.18745E+05
 0.15049999E+02 -0.18751E+05
 0.15099998E+02 -0.18757E+05
 0.15150000E+02 -0.18771E+05
 0.15199999E+02 -0.18799E+05
 0.15249998E+02 -0.18800E+05
 0.15299999E+02 -0.18800E+05
 0.15349998E+02 -0.18802E+05
 0.15400000E+02 -0.18799E+05
 0.15449999E+02 -0.18803E+05
 0.15499998E+02 -0.18807E+05
 0.15549999E+02 -0.18810E+05
 0.15599998E+02 -0.18843E+05
 0.15650000E+02 -0.18877E+05
 0.15699999E+02 -0.18905E+05
 0.15749998E+02 -0.18930E+05
 0.15799999E+02 -0.18913E+05
 0.15849998E+02 -0.18903E+05
 0.15900000E+02 -0.18902E+05
 0.15949999E+02 -0.18920E+05
 0.15999998E+02 -0.18943E+05
 0.16049999E+02 -0.18967E+05
 0.16099998E+02 -0.18948E+05
 0.16150000E+02 -0.18911E+05
 0.16199999E+02 -0.18871E+05
 0.16249998E+02 -0.18844E+05
 0.16299999E+02 -0.18840E+05
 0.16349998E+02 -0.18839E+05
 0.16400000E+02 -0.18844E+05
 0.16449999E+02 -0.18836E+05
 0.16499998E+02 -0.18834E+05
 0.16549999E+02 -0.18815E+05
 0.16599998E+02 -0.18790E+05
 0.16650000E+02 -0.18769E+05
 0.16699999E+02 -0.18767E+05
 0.16749998E+02 -0.18792E+05
 0.16799999E+02 -0.18828E+05
 0.16849998E+02 -0.18850E+05
 0.16900000E+02 -0.18857E+05
 0.16949999E+02 -0.18860E+05
 0.16999998E+02 -0.18872E+05
 0.17049999E+02 -0.18878E+05
 0.17099998E+02 -0.18873E+05
 0.17150000E+02 -0.18861E+05
 0.17199999E+02 -0.18840E+05
 0.17249998E+02 -0.18816E+05
 0.17299999E+02 -0.18805E+05
 0.17349998E+02 -0.18808E+05
 0.17400000E+02 -0.18806E+05
 0.17449999E+02 -0.18814E+05
 0.17499998E+02 -0.18824E+05
 0.17549999E+02 -0.18816E+05
 0.17599998E+02 -0.18792E+05
 0.17650000E+02 -0.18767E+05
 0.17699999E+02 -0.18768E+05
 0.17749998E+02 -0.18789E+05
 0.17799999E+02 -0.18836E+05
 0.17849998E+02 -0.18874E+05
 0.17900000E+02 -0.18878E+05
 0.17949999E+02 -0.18863E+05
 0.17999998E+02 -0.18853E+05
 0.18049999E+02 -0.18860E+05
 0.18099998E+02 -0.18875E+05
 0.18150000E+02 -0.18897E+05
 0.18199999E+02 -0.18901E+05
 0.18249998E+02 -0.18896E+05
 0.18299999E+02 -0.18874E+05
 0.18349998E+02 -0.18847E+05
 0.18400000E+02 -0.18804E+05
 0.18449999E+02 -0.18777E+05
 0.18499998E+02 -0.18765E+05
 0.18549999E+02 -0.18778E+05
 0.18599998E+02 -0.18795E+05
 0.18650000E+02 -0.18801E+05
 0.18699999E+02 -0.18802E+05
 0.18749998E+02 -0.18788E+05
 0.18799999E+02 -0.18782E+05
 0.18849998E+02 -0.18782E+05
 0.18900000E+02 -0.18785E+05
 0.18949999E+02 -0.18787E+05
 0.18999998E+02 -0.18794E+05
 0.19049999E+02 -0.18801E+05
 0.19099998E+02 -0.18809E+05
 0.19150000E+02 -0.18808E+05
 0.19199999E+02 -0.18792E+05
 0.19249998E+02 -0.18793E+05
 0.19299999E+02 -0.18811E+05
 0.19349998E+02 -0.18834E+05
 0.19400000E+02 -0.18858E+05
 0.19449999E+02 -0.18858E+05
 0.19499998E+02 -0.18854E+05
 0.19549999E+02 -0.18846E+05
 0.19599998E+02 -0.18843E+05
 0.19650000E+02 -0.18856E+05
 0.19699999E+02 -0.18875E+05
 0.19749998E+02 -0.18901E+05
 0.19799999E+02 -0.18911E+05
 0.19849998E+02 -0.18915E+05
 0.19900000E+02 -0.18900E+05
 0.19949999E+02 -0.18863E+05
 0.19999998E+02 -0.18858E+05
 0.20049999E+02 -0.18879E+05
 0.20099998E+02 -0.18935E+05
 0.20150000E+02 -0.18991E+05
 0.20199999E+02 -0.19125E+05
 0.20249998E+02 -0.19318E+05
 0.20299999E+02 -0.19390E+05
 0.20349998E+02 -0.19088E+05
 0.20399998E+02 -0.18358E+05
 0.20449999E+02 -0.17582E+05
 0.20499998E+02 -0.17912E+05
 0.20549999E+02 -0.19164E+05
 0.20599998E+02 -0.20227E+05
 0.20649998E+02 -0.20360E+05
 0.20699999E+02 -0.19335E+05
 0.20749998E+02 -0.18542E+05
 0.20799999E+02 -0.18674E+05
 0.20849998E+02 -0.19172E+05
 0.20899998E+02 -0.20148E+05
 0.20949999E+02 -0.21404E+05
 0.20999998E+02 -0.20874E+05
 0.21049999E+02 -0.18184E+05
 0.21099998E+02 -0.15682E+05
 0.21149998E+02 -0.16389E+05
 0.21199999E+02 -0.19782E+05
 0.21249998E+02 -0.19629E+05
 0.21299999E+02 -0.19504E+05
 0.21349998E+02 -0.20112E+05
 0.21399998E+02 -0.16383E+05
 0.21449999E+02 -0.13298E+05
 0.21499998E+02 -0.15996E+05
 0.21549999E+02 -0.20636E+05
 0.21599998E+02 -0.24058E+05
 0.21649998E+02 -0.15797E+05
 0.21699999E+02 -0.14651E+05
 0.21749998E+02 -0.18759E+05
 0.21799999E+02 -0.18835E+05
 0.21849998E+02 -0.20791E+05
 0.21899998E+02 -0.20636E+05
 0.21949999E+02 -0.23691E+05
 0.21999998E+02 -0.20563E+05
 0.22049999E+02 -0.16299E+05
 0.22099998E+02 -0.16011E+05
 0.22149998E+02 -0.23925E+05
 0.22199999E+02 -0.17481E+05
 0.22249998E+02 -0.18432E+05
 0.22299999E+02 -0.15685E+05
 0.22349998E+02 -0.13008E+05
 0.22399998E+02 -0.18253E+05
 0.22449999E+02 -0.16998E+05
 0.22499998E+02 -0.20564E+05
 0.22549999E+02 -0.22215E+05
 0.22599998E+02 -0.22340E+05
 0.22649998E+02 -0.20162E+05
 0.22699999E+02 -0.17938E+05
 0.22749998E+02 -0.15019E+05
 0.22799999E+02 -0.26248E+05
 0.22849998E+02 -0.22711E+05
 0.22899998E+02 -0.22935E+05
 0.22949999E+02 -0.20530E+05
 0.22999998E+02 -0.20035E+05
 0.23049999E+02 -0.11883E+05
 0.23099998E+02 -0.94449E+04
 0.23149998E+02 -0.15355E+05
 0.23199999E+02 -0.14702E+05
 0.23249998E+02 -0.30693E+05
 0.23299999E+02 -0.23876E+05
 0.23349998E+02 -0.21018E+05
 0.23399998E+02 -0.15197E+05
 0.23449999E+02 -0.12927E+05
 0.23499998E+02 -0.13091E+05
 0.23549999E+02 -0.10891E+05
 0.23599998E+02 -0.14334E+05
 0.23649998E+02 -0.25550E+05
 0.23699999E+02 -0.30547E+05
 0.23749998E+02 -0.18400E+05
 0.23799999E+02 -0.17970E+05
 0.23849998E+02 -0.18141E+05
 0.23899998E+02 -0.19400E+05
 0.23949999E+02 -0.17227E+05
 0.23999998E+02 -0.19521E+05
 0.24049999E+02 -0.21744E+05
 0.24099998E+02 -0.20360E+05
 0.24149998E+02 -0.16161E+05
 0.24199999E+02 -0.23208E+05
 0.24249998E+02 -0.17659E+05
 0.24299999E+02 -0.39437E+04
 0.24349998E+02 -0.19544E+05
 0.24399998E+02 -0.19398E+05
 0.24449999E+02 -0.16307E+05
 0.24499998E+02 -0.18979E+05
 0.24549999E+02 -0.32582E+05
 0.24599998E+02 -0.27698E+05
 0.24649998E+02 -0.14237E+05
 0.24699999E+02 -0.15978E+05
 0.24749998E+02 -0.16880E+05
 0.24799999E+02 -0.22527E+05
 0.24849998E+02 -0.17274E+05
 0.24899998E+02 -0.21351E+05
 0.24949999E+02 -0.13750E+05
 0.24999998E+02 -0.12551E+05
 0.25049999E+02 -0.19029E+05
 0.25099998E+02 -0.20371E+05
 0.25149998E+02 -0.17515E+05
 0.25199999E+02 -0.19859E+05
 0.25249998E+02 -0.21662E+05
 0.25299999E+02 -0.24920E+05
 0.25349998E+02 -0.25961E+05
 0.25399998E+02 -0.79954E+04
 0.25449999E+02 -0.20542E+05
 0.25499998E+02 -0.23622E+05
 0.25549999E+02 -0.19482E+05
 0.25599998E+02 -0.19848E+05
 0.25649998E+02 -0.69753E+04
 0.25699999E+02 -0.13277E+05
 0.25749998E+02 -0.31501E+05
 0.25799999E+02 -0.28552E+05
 0.25849998E+02 -0.22101E+05
 0.25899998E+02 -0.18374E+05
 0.25949999E+02 -0.64908E+04
 0.25999998E+02 -0.12872E+05
 0.26049999E+02 -0.21548E+05
 0.26099998E+02 -0.20199E+05
 0.26149998E+02 -0.16493E+05
 0.26199999E+02 -0.14586E+05
 0.26249998E+02 -0.20502E+05
 0.26299999E+02 -0.28566E+05
 0.26349998E+02 -0.17649E+05
 0.26399998E+02 -0.88239E+04
 0.26449999E+02 -0.10595E+05
 0.26499998E+02 -0.20648E+05
 0.26549999E+02 -0.28329E+05
 0.26599998E+02 -0.22052E+05
 0.26649998E+02 -0.24650E+05
 0.26699999E+02 -0.18181E+05
 0.26749998E+02 -0.12002E+05
 0.26799999E+02 -0.14142E+05
 0.26849998E+02 -0.16364E+05
 0.26899998E+02 -0.22396E+05
 0.26949999E+02 -0.27583E+05
 0.26999998E+02 -0.26337E+05
 0.27049997E+02 -0.21124E+05
 0.27099998E+02 -0.10255E+05
 0.27149998E+02 -0.60933E+04
 0.27199999E+02 -0.11505E+05
 0.27249998E+02 -0.13093E+05
 0.27299997E+02 -0.21549E+05
 0.27349998E+02 -0.35767E+05
 0.27399998E+02 -0.38584E+05
 0.27449999E+02 -0.23295E+05
 0.27499998E+02 -0.95530E+04
 0.27549997E+02 -0.54946E+04
 0.27599998E+02 -0.39615E+04
 0.27649998E+02 -0.10396E+05
 0.27699999E+02 -0.26602E+05
 0.27749998E+02 -0.31603E+05
 0.27799997E+02 -0.29480E+05
 0.27849998E+02 -0.28411E+05
 0.27899998E+02 -0.17136E+05
 0.27949999E+02 -0.80027E+04
 0.27999998E+02 -0.17439E+04
 0.28049997E+02 -0.87089E+04
 0.28099998E+02 -0.30926E+05
 0.28149998E+02 -0.35804E+05
 0.28199999E+02 -0.25895E+05
 0.28249998E+02 -0.26036E+05
 0.28299997E+02 -0.21558E+05
 0.28349998E+02 -0.48185E+04
 0.28399998E+02  0.60098E+04
 0.28449999E+02 -0.59153E+04
 0.28499998E+02 -0.24865E+05
 0.28549997E+02 -0.33057E+05
 0.28599998E+02 -0.29108E+05
 0.28649998E+02 -0.22701E+05
 0.28699999E+02 -0.21420E+05
 0.28749998E+02 -0.12936E+05
 0.28799997E+02 -0.86396E+04
 0.28849998E+02 -0.84395E+04
 0.28899998E+02 -0.10679E+05
 0.28949999E+02 -0.19406E+05
 0.28999998E+02 -0.23202E+05
 0.29049997E+02 -0.22327E+05
 0.29099998E+02 -0.23094E+05
 0.29149998E+02 -0.19454E+05
 0.29199999E+02 -0.15151E+05
 0.29249998E+02 -0.17276E+05
 0.29299997E+02 -0.20324E+05
 0.29349998E+02 -0.21654E+05
 0.29399998E+02 -0.23298E+05
 0.29449999E+02 -0.23651E+05
 0.29499998E+02 -0.23104E+05
 0.29549997E+02 -0.20446E+05
 0.29599998E+02 -0.15271E+05
 0.29649998E+02 -0.21052E+05
 0.29699999E+02 -0.24967E+05
 0.29749998E+02 -0.17456E+05
 0.29799997E+02 -0.85705E+04
 0.29849998E+02 -0.71186E+04
 0.29899998E+02 -0.18166E+05
 0.29949999E+02 -0.20580E+05
 0.29999998E+02 -0.13802E+05
 0.30049999E+02 -0.14243E+05
 0.30099998E+02 -0.25297E+05
 0.30149998E+02 -0.26652E+05
 0.30199997E+02 -0.19012E+05
 0.30249996E+02 -0.18914E+05
 0.30299999E+02 -0.22652E+05
 0.30349998E+02 -0.20220E+05
 0.30399998E+02 -0.19617E+05
 0.30449997E+02 -0.17458E+05
 0.30499996E+02 -0.13084E+05
 0.30549999E+02 -0.18723E+05
 0.30599998E+02 -0.22560E+05
 0.30649998E+02 -0.23345E+05
 0.30699997E+02 -0.23726E+05
 0.30749996E+02 -0.23329E+05
 0.30799999E+02 -0.22747E+05
 0.30849998E+02 -0.26296E+05
 0.30899998E+02 -0.20767E+05
 0.30949997E+02 -0.14564E+05
 0.30999996E+02 -0.66797E+04
 0.31049999E+02 -0.35479E+04
 0.31099998E+02 -0.20330E+05
 0.31149998E+02 -0.29092E+05
 0.31199997E+02 -0.22116E+05
 0.31249996E+02 -0.17984E+05
 0.31299999E+02 -0.18266E+05
 0.31349998E+02 -0.19576E+05
 0.31399998E+02 -0.18043E+05
 0.31449997E+02 -0.11012E+05
 0.31499996E+02 -0.16035E+05
 0.31549999E+02 -0.24101E+05
 0.31599998E+02 -0.27740E+05
 0.31649998E+02 -0.23265E+05
 0.31699997E+02 -0.13988E+05
 0.31749996E+02 -0.12387E+05
 0.31799999E+02 -0.17276E+05
 0.31849998E+02 -0.19866E+05
 0.31899998E+02 -0.19247E+05
 0.31949997E+02 -0.22389E+05
 0.31999996E+02 -0.21699E+05
 0.32049999E+02 -0.15432E+05
 0.32099998E+02 -0.15031E+05
 0.32149998E+02 -0.20422E+05
 0.32199997E+02 -0.22282E+05
 0.32249996E+02 -0.26205E+05
 0.32299999E+02 -0.26025E+05
 0.32349998E+02 -0.18818E+05
 0.32399998E+02 -0.10685E+05
 0.32449997E+02 -0.11182E+05
 0.32499996E+02 -0.19347E+05
 0.32549999E+02 -0.18114E+05
 0.32599998E+02 -0.17704E+05
 0.32649998E+02 -0.19824E+05
 0.32699997E+02 -0.22833E+05
 0.32749996E+02 -0.25363E+05
 0.32799999E+02 -0.18628E+05
 0.32849998E+02 -0.11899E+05
 0.32899998E+02 -0.93740E+04
 0.32949997E+02 -0.15005E+05
 0.32999996E+02 -0.21935E+05
 0.33049999E+02 -0.23115E+05
 0.33099998E+02 -0.20971E+05
 0.33149998E+02 -0.18744E+05
 0.33199997E+02 -0.21164E+05
 0.33249996E+02 -0.23229E+05
 0.33299999E+02 -0.24500E+05
 0.33349998E+02 -0.24589E+05
 0.33399998E+02 -0.16754E+05
 0.33449997E+02 -0.98937E+04
 0.33499996E+02 -0.18138E+05
 0.33549999E+02 -0.15759E+05
 0.33599998E+02 -0.49976E+04
 0.33649998E+02 -0.72827E+04
 0.33699997E+02 -0.12393E+05
 0.33749996E+02 -0.18692E+05
 0.33799999E+02 -0.27811E+05
 0.33849998E+02 -0.31055E+05
 0.33899998E+02 -0.25472E+05
 0.33949997E+02 -0.23195E+05
 0.33999996E+02 -0.14841E+05
 0.34049999E+02 -0.59949E+04
 0.34099998E+02 -0.13837E+05
 0.34149998E+02 -0.19638E+05
 0.34199997E+02 -0.11842E+05
 0.34249996E+02 -0.12566E+05
 0.34299999E+02 -0.27900E+05
 0.34349998E+02 -0.34124E+05
 0.34399998E+02 -0.28744E+05
 0.34449997E+02 -0.11824E+05
 0.34499996E+02  0.95182E+04
 0.34549999E+02  0.17511E+05
 0.34599998E+02  0.84295E+04
 0.34649998E+02 -0.20135E+05
 0.34699997E+02 -0.47330E+05
 0.34749996E+02 -0.61807E+05
 0.34799999E+02 -0.63539E+05
 0.34849998E+02 -0.48039E+05
 0.34899998E+02 -0.31722E+05
 0.34949997E+02 -0.16402E+05
 0.34999996E+02 -0.11093E+04
 0.35049999E+02 -0.71652E+04
 0.35099998E+02 -0.26708E+05
 0.35149998E+02 -0.34448E+05
 0.35199997E+02 -0.21442E+05
 0.35249996E+02  0.32155E+04
 0.35299999E+02  0.28225E+05
 0.35349998E+02  0.44645E+05
 0.35399998E+02  0.18564E+05
 0.35449997E+02 -0.30706E+05
 0.35499996E+02 -0.57187E+05
 0.35549999E+02 -0.72518E+05
 0.35599998E+02 -0.72056E+05
 0.35649998E+02 -0.43716E+05
 0.35699997E+02 -0.14064E+05
 0.35749996E+02 -0.13892E+04
 0.35799999E+02 -0.48395E+04
 0.35849998E+02 -0.96521E+04
 0.35899998E+02 -0.84882E+04
 0.35949997E+02 -0.10506E+05
 0.35999996E+02 -0.55242E+04
 0.36049999E+02  0.11817E+04
 0.36099998E+02 -0.25131E+04
 0.36149998E+02 -0.81342E+04
 0.36199997E+02 -0.23460E+05
 0.36249996E+02 -0.43243E+05
 0.36299999E+02 -0.52266E+05
 0.36349998E+02 -0.44743E+05
 0.36399998E+02 -0.23686E+05
 0.36449997E+02 -0.32928E+04
 0.36499996E+02  0.21567E+04
 0.36549999E+02 -0.86378E+04
 0.36599998E+02 -0.14915E+05
 0.36649998E+02 -0.18391E+05
 0.36699997E+02 -0.22437E+05
 0.36749996E+02 -0.14138E+05
 0.36799999E+02  0.29268E+04
 0.36849998E+02  0.73824E+04
 0.36899998E+02 -0.32645E+04
 0.36949997E+02 -0.19936E+05
 0.36999996E+02 -0.44917E+05
 0.37049999E+02 -0.48127E+05
 0.37099998E+02 -0.34193E+05
 0.37149998E+02 -0.16755E+05
 0.37199997E+02 -0.43398E+04
 0.37249996E+02 -0.13898E+05
 0.37299999E+02 -0.31325E+05
 0.37349998E+02 -0.32195E+05
 0.37399998E+02 -0.16414E+05
 0.37449997E+02 -0.19751E+05
 0.37499996E+02 -0.37348E+05
 0.37549999E+02 -0.44249E+05
 0.37599998E+02 -0.37595E+05
 0.37649998E+02 -0.33169E+05
 0.37699997E+02 -0.15302E+05
 0.37749996E+02  0.81275E+04
 0.37799999E+02  0.13557E+05
 0.37849998E+02  0.91020E+04
 0.37899998E+02  0.11058E+04
 0.37949997E+02 -0.76870E+04
 0.37999996E+02 -0.34888E+05
 0.38049999E+02 -0.59224E+05
 0.38099998E+02 -0.56851E+05
 0.38149998E+02 -0.32913E+05
 0.38199997E+02 -0.47978E+04
 0.38249996E+02  0.46371E+04
 0.38299999E+02  0.96305E+03
 0.38349998E+02 -0.11164E+05
 0.38399998E+02 -0.24537E+05
 0.38449997E+02 -0.35628E+05
 0.38499996E+02 -0.46726E+05
 0.38549999E+02 -0.35200E+05
 0.38599998E+02 -0.54907E+04
 0.38649998E+02  0.12394E+05
 0.38699997E+02  0.72290E+04
 0.38749996E+02 -0.10389E+05
 0.38799999E+02 -0.14814E+05
 0.38849998E+02 -0.12522E+05
 0.38899998E+02 -0.25359E+05
 0.38949997E+02 -0.29567E+05
 0.38999996E+02 -0.23080E+05
 0.39049999E+02 -0.15006E+05
 0.39099998E+02 -0.10660E+04
 0.39149998E+02 -0.78433E+03
 0.39199997E+02 -0.25811E+05
 0.39249996E+02 -0.46639E+05
 0.39299999E+02 -0.37585E+05
 0.39349998E+02 -0.12961E+05
 0.39399998E+02  0.87608E+04
 0.39449997E+02  0.55794E+04
 0.39499996E+02 -0.12000E+05
 0.39549999E+02 -0.29656E+05
 0.39599998E+02 -0.41643E+05
 0.39649998E+02 -0.38949E+05
 0.39699997E+02 -0.35281E+05
 0.39749996E+02 -0.21041E+05
 0.39799999E+02 -0.78480E+04
 0.39849998E+02 -0.10133E+05
 0.39899998E+02 -0.12984E+05
 0.39949997E+02 -0.17802E+05
 0.39999996E+02 -0.20177E+05
 0.40049999E+02 -0.11318E+05
 0.40099998E+02 -0.30370E+04
 0.40149998E+02 -0.12606E+05
 0.40199997E+02 -0.29405E+05
 0.40249996E+02 -0.48450E+05
 0.40299999E+02 -0.48848E+05
 0.40349998E+02 -0.28497E+05
 0.40399998E+02 -0.99320E+04
 0.40449997E+02  0.43838E+04
 0.40499996E+02  0.59462E+04
 0.40549999E+02 -0.30999E+04
 0.40599998E+02 -0.22260E+05
 0.40649998E+02 -0.45545E+05
 0.40699997E+02 -0.45317E+05
 0.40749996E+02 -0.20959E+05
 0.40799999E+02 -0.66853E+04
 0.40849998E+02 -0.66998E+04
 0.40899998E+02 -0.19275E+05
 0.40949997E+02 -0.32996E+05
 0.40999996E+02 -0.33085E+05
 0.41049999E+02 -0.20604E+05
 0.41099998E+02 -0.65936E+04
 0.41149998E+02  0.40020E+04
 0.41199997E+02 -0.38114E+04
 0.41249996E+02 -0.17826E+05
 0.41299999E+02 -0.22875E+05
 0.41349998E+02 -0.27992E+05
 0.41399998E+02 -0.16924E+05
 0.41449997E+02 -0.58886E+04
 0.41499996E+02 -0.70740E+04
 0.41549999E+02 -0.20392E+05
 0.41599998E+02 -0.34937E+05
 0.41649998E+02 -0.43187E+05
 0.41699997E+02 -0.31012E+05
 0.41749996E+02 -0.78752E+04
 0.41799999E+02  0.46269E+04
 0.41849998E+02  0.25633E+04
 0.41899998E+02 -0.22213E+05
 0.41949997E+02 -0.47687E+05
 0.41999996E+02 -0.51274E+05
 0.42049999E+02 -0.34632E+05
 0.42099998E+02 -0.11760E+05
 0.42149998E+02  0.41509E+03
 0.42199997E+02 -0.88811E+04
 0.42249996E+02 -0.16583E+05
 0.42299999E+02 -0.17206E+05
 0.42349998E+02 -0.21315E+05
 0.42399998E+02 -0.20776E+05
 0.42449997E+02 -0.13560E+05
 0.42499996E+02 -0.84437E+04
 0.42549999E+02 -0.17102E+05
 0.42599998E+02 -0.30174E+05
 0.42649998E+02 -0.35596E+05
 0.42699997E+02 -0.26439E+05
 0.42749996E+02 -0.10887E+05
 0.42799995E+02 -0.93499E+04
 0.42849998E+02 -0.19958E+05
 0.42899998E+02 -0.26502E+05
 0.42949997E+02 -0.26181E+05
 0.42999996E+02 -0.20814E+05
 0.43049995E+02 -0.60724E+04
 0.43099998E+02  0.31606E+04
 0.43149998E+02 -0.28668E+04
 0.43199997E+02 -0.13633E+05
 0.43249996E+02 -0.21584E+05
 0.43299995E+02 -0.22616E+05
 0.43349998E+02 -0.19240E+05
 0.43399998E+02 -0.12878E+05
 0.43449997E+02 -0.80673E+04
 0.43499996E+02 -0.10017E+05
 0.43549995E+02 -0.18766E+05
 0.43599998E+02 -0.28480E+05
 0.43649998E+02 -0.24476E+05
 0.43699997E+02 -0.18066E+05
 0.43749996E+02 -0.15828E+05
 0.43799995E+02 -0.22018E+05
 0.43849998E+02 -0.35142E+05
 0.43899998E+02 -0.36522E+05
 0.43949997E+02 -0.33477E+05
 0.43999996E+02 -0.26189E+05
 0.44049995E+02 -0.11172E+05
 0.44099998E+02 -0.57182E+04
 0.44149998E+02 -0.81554E+04
 0.44199997E+02 -0.13616E+05
 0.44249996E+02 -0.16212E+05
 0.44299995E+02 -0.12230E+05
 0.44349998E+02 -0.15853E+05
 0.44399998E+02 -0.23680E+05
 0.44449997E+02 -0.28880E+05
 0.44499996E+02 -0.27998E+05
 0.44549995E+02 -0.24284E+05
 0.44599998E+02 -0.23525E+05
 0.44649998E+02 -0.23092E+05
 0.44699997E+02 -0.25358E+05
 0.44749996E+02 -0.23284E+05
 0.44799995E+02 -0.15787E+05
 0.44849998E+02 -0.13643E+05
 0.44899998E+02 -0.69742E+04
 0.44949997E+02 -0.16986E+04
 0.44999996E+02 -0.61114E+04
 0.45049995E+02 -0.20629E+05
 0.45099998E+02 -0.41831E+05
 0.45149998E+02 -0.48893E+05
 0.45199997E+02 -0.34807E+05
 0.45249996E+02 -0.11770E+05
 0.45299995E+02  0.68461E+04
 0.45349998E+02  0.13318E+05
 0.45399998E+02 -0.97723E+03
 0.45449997E+02 -0.23117E+05
 0.45499996E+02 -0.35115E+05
 0.45549995E+02 -0.41005E+05
 0.45599998E+02 -0.39745E+05
 0.45649998E+02 -0.26338E+05
 0.45699997E+02 -0.57237E+04
 0.45749996E+02  0.86851E+04
 0.45799995E+02  0.83995E+04
 0.45849998E+02  0.14671E+04
 0.45899998E+02 -0.13849E+05
 0.45949997E+02 -0.32577E+05
 0.45999996E+02 -0.40448E+05
 0.46049995E+02 -0.39887E+05
 0.46099998E+02 -0.31821E+05
 0.46149998E+02 -0.19095E+05
 0.46199997E+02 -0.92071E+04
 0.46249996E+02 -0.27622E+04
 0.46299995E+02 -0.14221E+04
 0.46349998E+02 -0.10157E+05
 0.46399998E+02 -0.26813E+05
 0.46449997E+02 -0.41890E+05
 0.46499996E+02 -0.45671E+05
 0.46549995E+02 -0.34800E+05
 0.46599998E+02 -0.11854E+05
 0.46649998E+02  0.48715E+04
 0.46699997E+02  0.21115E+04
 0.46749996E+02 -0.54382E+04
 0.46799995E+02 -0.13991E+05
 0.46849998E+02 -0.24030E+05
 0.46899998E+02 -0.29155E+05
 0.46949997E+02 -0.29905E+05
 0.46999996E+02 -0.23860E+05
 0.47049995E+02 -0.18800E+05
 0.47099998E+02 -0.21271E+05
 0.47149998E+02 -0.25354E+05
 0.47199997E+02 -0.27877E+05
 0.47249996E+02 -0.24833E+05
 0.47299995E+02 -0.16242E+05
 0.47349998E+02 -0.95892E+04
 0.47399998E+02 -0.10008E+05
 0.47449997E+02 -0.15801E+05
 0.47499996E+02 -0.17803E+05
 0.47549995E+02 -0.16062E+05
 0.47599998E+02 -0.16017E+05
 0.47649998E+02 -0.18968E+05
 0.47699997E+02 -0.23517E+05
 0.47749996E+02 -0.24759E+05
 0.47799995E+02 -0.23029E+05
 0.47849998E+02 -0.20861E+05
 0.47899998E+02 -0.22667E+05
 0.47949997E+02 -0.21852E+05
 0.47999996E+02 -0.17218E+05
 0.48049995E+02 -0.16025E+05
 0.48099998E+02 -0.13664E+05
 0.48149998E+02 -0.14140E+05
 0.48199997E+02 -0.17204E+05
 0.48249996E+02 -0.17359E+05
 0.48299995E+02 -0.19792E+05
 0.48349998E+02 -0.23467E+05
 0.48399998E+02 -0.21137E+05
 0.48449997E+02 -0.17179E+05
 0.48499996E+02 -0.14383E+05
 0.48549995E+02 -0.10192E+05
 0.48599998E+02 -0.12194E+05
 0.48649998E+02 -0.18689E+05
 0.48699997E+02 -0.25496E+05
 0.48749996E+02 -0.29327E+05
 0.48799995E+02 -0.27588E+05
 0.48849998E+02 -0.20003E+05
 0.48899998E+02 -0.12484E+05
 0.48949997E+02 -0.12911E+05
 0.48999996E+02 -0.15151E+05
 0.49049995E+02 -0.12830E+05
 0.49099998E+02 -0.94512E+04
 0.49149998E+02 -0.93334E+04
 0.49199997E+02 -0.13579E+05
 0.49249996E+02 -0.20635E+05
 0.49299995E+02 -0.23893E+05
 0.49349998E+02 -0.22591E+05
 0.49399998E+02 -0.19193E+05
 0.49449997E+02 -0.20187E+05
 0.49499996E+02 -0.24448E+05
 0.49549995E+02 -0.21882E+05
 0.49599998E+02 -0.22007E+05
 0.49649998E+02 -0.25206E+05
 0.49699997E+02 -0.20962E+05
 0.49749996E+02 -0.12995E+05
 0.49799995E+02 -0.64675E+04
 0.49849998E+02 -0.89473E+04
 0.49899998E+02 -0.19524E+05
 0.49949997E+02 -0.28174E+05
 0.49999996E+02 -0.33469E+05
 0.50049995E+02 -0.34442E+05
 0.50099998E+02 -0.28864E+05
 0.50149998E+02 -0.24100E+05
 0.50199997E+02 -0.19331E+05
 0.50249996E+02 -0.16553E+05
 0.50299995E+02 -0.16965E+05
 0.50349998E+02 -0.15733E+05
 0.50399998E+02 -0.14048E+05
 0.50449997E+02 -0.94670E+04
 0.50499996E+02 -0.67728E+04
 0.50549995E+02 -0.11752E+05
 0.50599998E+02 -0.16276E+05
 0.50649998E+02 -0.19485E+05
 0.50699997E+02 -0.27836E+05
 0.50749996E+02 -0.34288E+05
 0.50799995E+02 -0.31962E+05
 0.50849998E+02 -0.22818E+05
 0.50899998E+02 -0.14381E+05
 0.50949997E+02 -0.12625E+05
 0.50999996E+02 -0.13619E+05
 0.51049995E+02 -0.13967E+05
 0.51099998E+02 -0.17390E+05
 0.51149998E+02 -0.20198E+05
 0.51199997E+02 -0.21938E+05
 0.51249996E+02 -0.22623E+05
 0.51299995E+02 -0.18273E+05
 0.51349998E+02 -0.13940E+05
 0.51399998E+02 -0.10070E+05
 0.51449997E+02 -0.86712E+04
 0.51499996E+02 -0.90659E+04
 0.51549995E+02 -0.14278E+05
 0.51599998E+02 -0.22828E+05
 0.51649998E+02 -0.27315E+05
 0.51699997E+02 -0.27981E+05
 0.51749996E+02 -0.26175E+05
 0.51799995E+02 -0.23978E+05
 0.51849998E+02 -0.19716E+05
 0.51899998E+02 -0.15929E+05
 0.51949997E+02 -0.12711E+05
 0.51999996E+02 -0.14266E+05
 0.52049995E+02 -0.18460E+05
 0.52099998E+02 -0.22246E+05
 0.52149998E+02 -0.26042E+05
 0.52199997E+02 -0.25629E+05
 0.52249996E+02 -0.21905E+05
 0.52299995E+02 -0.19074E+05
 0.52349998E+02 -0.18093E+05
 0.52399998E+02 -0.15623E+05
 0.52449997E+02 -0.15337E+05
 0.52499996E+02 -0.14925E+05
 0.52549995E+02 -0.16142E+05
 0.52599998E+02 -0.19234E+05
 0.52649998E+02 -0.20800E+05
 0.52699997E+02 -0.20967E+05
 0.52749996E+02 -0.18943E+05
 0.52799995E+02 -0.19203E+05
 0.52849998E+02 -0.22295E+05
 0.52899998E+02 -0.25112E+05
 0.52949997E+02 -0.22414E+05
 0.52999996E+02 -0.14268E+05
 0.53049995E+02 -0.71828E+04
 0.53099998E+02 -0.41399E+04
 0.53149998E+02 -0.47631E+04
 0.53199997E+02 -0.66050E+04
 0.53249996E+02 -0.93086E+04
 0.53299995E+02 -0.16518E+05
 0.53349998E+02 -0.26753E+05
 0.53399998E+02 -0.34834E+05
 0.53449997E+02 -0.37026E+05
 0.53499996E+02 -0.34302E+05
 0.53549995E+02 -0.30976E+05
 0.53599998E+02 -0.27076E+05
 0.53649998E+02 -0.22660E+05
 0.53699997E+02 -0.18460E+05
 0.53749996E+02 -0.13811E+05
 0.53799995E+02 -0.14057E+05
 0.53849998E+02 -0.17829E+05
 0.53899998E+02 -0.18894E+05
 0.53949997E+02 -0.15081E+05
 0.53999996E+02 -0.51560E+04
 0.54049995E+02  0.33615E+04
 0.54099998E+02  0.25845E+04
 0.54149998E+02 -0.91121E+04
 0.54199997E+02 -0.24782E+05
 0.54249996E+02 -0.36151E+05
 0.54299995E+02 -0.40466E+05
 0.54349998E+02 -0.34806E+05
 0.54399998E+02 -0.22120E+05
 0.54449997E+02 -0.11165E+05
 0.54499996E+02 -0.67682E+04
 0.54549995E+02 -0.95560E+04
 0.54599998E+02 -0.17587E+05
 0.54649998E+02 -0.25618E+05
 0.54699997E+02 -0.28064E+05
 0.54749996E+02 -0.24300E+05
 0.54799995E+02 -0.19698E+05
 0.54849998E+02 -0.17413E+05
 0.54899998E+02 -0.18343E+05
 0.54949997E+02 -0.19730E+05
 0.54999996E+02 -0.21282E+05
 0.55049995E+02 -0.22751E+05
 0.55099998E+02 -0.20738E+05
 0.55149998E+02 -0.19301E+05
 0.55199997E+02 -0.19989E+05
 0.55249996E+02 -0.19714E+05
 0.55299995E+02 -0.15927E+05
 0.55349998E+02 -0.10335E+05
 0.55399998E+02 -0.75106E+04
 0.55449997E+02 -0.10146E+05
 0.55499996E+02 -0.16049E+05
 0.55549995E+02 -0.21101E+05
 0.55599998E+02 -0.24137E+05
 0.55649998E+02 -0.25004E+05
 0.55699997E+02 -0.26006E+05
 0.55749996E+02 -0.25420E+05
 0.55799995E+02 -0.23370E+05
 0.55849995E+02 -0.21401E+05
 0.55899998E+02 -0.16593E+05
 0.55949997E+02 -0.14223E+05
 0.55999996E+02 -0.15040E+05
 0.56049995E+02 -0.15459E+05
 0.56099995E+02 -0.16626E+05
 0.56149998E+02 -0.18146E+05
 0.56199997E+02 -0.20772E+05
 0.56249996E+02 -0.21955E+05
 0.56299995E+02 -0.22348E+05
 0.56349995E+02 -0.22837E+05
 0.56399998E+02 -0.20815E+05
 0.56449997E+02 -0.18450E+05
 0.56499996E+02 -0.15655E+05
 0.56549995E+02 -0.13222E+05
 0.56599995E+02 -0.12917E+05
 0.56649998E+02 -0.16423E+05
 0.56699997E+02 -0.22351E+05
 0.56749996E+02 -0.26003E+05
 0.56799995E+02 -0.23865E+05
 0.56849995E+02 -0.18708E+05
 0.56899998E+02 -0.15439E+05
 0.56949997E+02 -0.14341E+05
 0.56999996E+02 -0.14410E+05
 0.57049995E+02 -0.15596E+05
 0.57099995E+02 -0.16541E+05
 0.57149998E+02 -0.16627E+05
 0.57199997E+02 -0.18859E+05
 0.57249996E+02 -0.19311E+05
 0.57299995E+02 -0.17212E+05
 0.57349995E+02 -0.15316E+05
 0.57399998E+02 -0.15639E+05
 0.57449997E+02 -0.18895E+05
 0.57499996E+02 -0.23694E+05
 0.57549995E+02 -0.27516E+05
 0.57599995E+02 -0.26763E+05
 0.57649998E+02 -0.22038E+05
 0.57699997E+02 -0.16967E+05
 0.57749996E+02 -0.14922E+05
 0.57799995E+02 -0.15197E+05
 0.57849995E+02 -0.14390E+05
 0.57899998E+02 -0.15402E+05
 0.57949997E+02 -0.19398E+05
 0.57999996E+02 -0.22827E+05
 0.58049995E+02 -0.23532E+05
 0.58099995E+02 -0.20008E+05
 0.58149998E+02 -0.18154E+05
 0.58199997E+02 -0.19918E+05
 0.58249996E+02 -0.19875E+05
 0.58299995E+02 -0.16578E+05
 0.58349995E+02 -0.13377E+05
 0.58399998E+02 -0.13430E+05
 0.58449997E+02 -0.16889E+05
 0.58499996E+02 -0.19945E+05
 0.58549995E+02 -0.21053E+05
 0.58599995E+02 -0.20457E+05
 0.58649998E+02 -0.19238E+05
 0.58699997E+02 -0.20211E+05
 0.58749996E+02 -0.21323E+05
 0.58799995E+02 -0.20931E+05
 0.58849995E+02 -0.20543E+05
 0.58899998E+02 -0.21201E+05
 0.58949997E+02 -0.23533E+05
 0.58999996E+02 -0.25259E+05
 0.59049995E+02 -0.23863E+05
 0.59099995E+02 -0.20991E+05
 0.59149998E+02 -0.17791E+05
 0.59199997E+02 -0.14201E+05
 0.59249996E+02 -0.15020E+05
 0.59299995E+02 -0.18374E+05
 0.59349995E+02 -0.17746E+05
 0.59399998E+02 -0.15754E+05
 0.59449997E+02 -0.13957E+05
 0.59499996E+02 -0.12181E+05
 0.59549995E+02 -0.11223E+05
 0.59599995E+02 -0.13010E+05
 0.59649998E+02 -0.17054E+05
 0.59699997E+02 -0.22090E+05
 0.59749996E+02 -0.26235E+05
 0.59799995E+02 -0.27260E+05
 0.59849995E+02 -0.25554E+05
 0.59899998E+02 -0.21555E+05
 0.59949997E+02 -0.17928E+05
 0.59999996E+02 -0.16262E+05
 0.60049995E+02 -0.16706E+05
 0.60099995E+02 -0.18324E+05
 0.60149998E+02 -0.19852E+05
 0.60199997E+02 -0.21626E+05
 0.60249996E+02 -0.21358E+05
 0.60299995E+02 -0.17396E+05
 0.60349995E+02 -0.14174E+05
 0.60399998E+02 -0.13820E+05
 0.60449997E+02 -0.15446E+05
 0.60499996E+02 -0.16692E+05
 0.60549995E+02 -0.16236E+05
 0.60599995E+02 -0.16346E+05
 0.60649998E+02 -0.18181E+05
 0.60699997E+02 -0.22166E+05
 0.60749996E+02 -0.25633E+05
 0.60799995E+02 -0.27616E+05
 0.60849995E+02 -0.27143E+05
 0.60899998E+02 -0.22813E+05
 0.60949997E+02 -0.18081E+05
 0.60999996E+02 -0.15045E+05
 0.61049995E+02 -0.14550E+05
 0.61099995E+02 -0.16711E+05
 0.61149998E+02 -0.18343E+05
 0.61199997E+02 -0.18254E+05
 0.61249996E+02 -0.18113E+05
 0.61299995E+02 -0.17423E+05
 0.61349995E+02 -0.17903E+05
 0.61399998E+02 -0.19141E+05
 0.61449997E+02 -0.19470E+05
 0.61499996E+02 -0.19738E+05
 0.61549995E+02 -0.20556E+05
 0.61599995E+02 -0.20363E+05
 0.61649998E+02 -0.18132E+05
 0.61699997E+02 -0.16208E+05
 0.61749996E+02 -0.15338E+05
 0.61799995E+02 -0.14177E+05
 0.61849995E+02 -0.13378E+05
 0.61899998E+02 -0.15502E+05
 0.61949997E+02 -0.19419E+05
 0.61999996E+02 -0.24016E+05
 0.62049995E+02 -0.28232E+05
 0.62099998E+02 -0.27325E+05
 0.62149994E+02 -0.20599E+05
 0.62199997E+02 -0.13024E+05
 0.62249992E+02 -0.90124E+04
 0.62299995E+02 -0.10675E+05
 0.62349998E+02 -0.16369E+05
 0.62399994E+02 -0.22087E+05
 0.62449997E+02 -0.25010E+05
 0.62499992E+02 -0.25112E+05
 0.62549995E+02 -0.21599E+05
 0.62599998E+02 -0.16328E+05
 0.62649994E+02 -0.13305E+05
 0.62699997E+02 -0.13759E+05
 0.62749992E+02 -0.16189E+05
 0.62799995E+02 -0.18377E+05
 0.62849998E+02 -0.17905E+05
 0.62899994E+02 -0.15770E+05
 0.62949997E+02 -0.15106E+05
 0.62999992E+02 -0.16252E+05
 0.63049995E+02 -0.19480E+05
 0.63099998E+02 -0.23665E+05
 0.63149994E+02 -0.27632E+05
 0.63199997E+02 -0.28686E+05
 0.63249992E+02 -0.26986E+05
 0.63299995E+02 -0.24850E+05
 0.63349998E+02 -0.21835E+05
 0.63399994E+02 -0.18626E+05
 0.63449997E+02 -0.16125E+05
 0.63499992E+02 -0.14703E+05
 0.63549995E+02 -0.13535E+05
 0.63599998E+02 -0.13294E+05
 0.63649994E+02 -0.13836E+05
 0.63699997E+02 -0.14285E+05
 0.63749992E+02 -0.16500E+05
 0.63799995E+02 -0.18444E+05
 0.63849998E+02 -0.19064E+05
 0.63899994E+02 -0.18814E+05
 0.63949997E+02 -0.17021E+05
 0.63999992E+02 -0.15233E+05
 0.64049995E+02 -0.16507E+05
 0.64099998E+02 -0.20118E+05
 0.64149994E+02 -0.24003E+05
 0.64199997E+02 -0.27091E+05
 0.64249992E+02 -0.26780E+05
 0.64299995E+02 -0.23071E+05
 0.64349998E+02 -0.17846E+05
 0.64399994E+02 -0.13738E+05
 0.64449997E+02 -0.13310E+05
 0.64499992E+02 -0.16526E+05
 0.64549995E+02 -0.20949E+05
 0.64599998E+02 -0.24305E+05
 0.64649994E+02 -0.25895E+05
 0.64699997E+02 -0.25320E+05
 0.64749992E+02 -0.21927E+05
 0.64799995E+02 -0.17524E+05
 0.64849998E+02 -0.14205E+05
 0.64899994E+02 -0.12682E+05
 0.64949997E+02 -0.14019E+05
 0.64999992E+02 -0.16473E+05
 0.65049995E+02 -0.19726E+05
 0.65099998E+02 -0.22549E+05
 0.65149994E+02 -0.22127E+05
 0.65199997E+02 -0.19544E+05
 0.65249992E+02 -0.16843E+05
 0.65299995E+02 -0.15755E+05
 0.65349998E+02 -0.16727E+05
 0.65399994E+02 -0.18138E+05
 0.65449997E+02 -0.19420E+05
 0.65499992E+02 -0.20423E+05
 0.65549995E+02 -0.19996E+05
 0.65599998E+02 -0.18476E+05
 0.65649994E+02 -0.16268E+05
 0.65699997E+02 -0.14649E+05
 0.65749992E+02 -0.14629E+05
 0.65799995E+02 -0.15887E+05
 0.65849998E+02 -0.18009E+05
 0.65899994E+02 -0.20262E+05
 0.65949997E+02 -0.21273E+05
 0.65999992E+02 -0.20797E+05
 0.66049995E+02 -0.18642E+05
 0.66099998E+02 -0.16312E+05
 0.66149994E+02 -0.15343E+05
 0.66199997E+02 -0.15203E+05
 0.66249992E+02 -0.16408E+05
 0.66299995E+02 -0.18028E+05
 0.66349998E+02 -0.18774E+05
 0.66399994E+02 -0.18498E+05
 0.66449997E+02 -0.19445E+05
 0.66499992E+02 -0.21208E+05
 0.66549995E+02 -0.22553E+05
 0.66599998E+02 -0.23621E+05
 0.66649994E+02 -0.24164E+05
 0.66699997E+02 -0.24366E+05
 0.66749992E+02 -0.23594E+05
 0.66799995E+02 -0.22749E+05
 0.66849998E+02 -0.20762E+05
 0.66899994E+02 -0.18434E+05
 0.66949997E+02 -0.16682E+05
 0.66999992E+02 -0.15492E+05
 0.67049995E+02 -0.15928E+05
 0.67099998E+02 -0.19138E+05
 0.67149994E+02 -0.23791E+05
 0.67199997E+02 -0.24936E+05
 0.67249992E+02 -0.21489E+05
 0.67299995E+02 -0.16302E+05
 0.67349998E+02 -0.12204E+05
 0.67399994E+02 -0.10612E+05
 0.67449997E+02 -0.11080E+05
 0.67499992E+02 -0.13825E+05
 0.67549995E+02 -0.18371E+05
 0.67599998E+02 -0.21707E+05
 0.67649994E+02 -0.22910E+05
 0.67699997E+02 -0.21915E+05
 0.67749992E+02 -0.20335E+05
 0.67799995E+02 -0.20185E+05
 0.67849998E+02 -0.21024E+05
 0.67899994E+02 -0.21425E+05
 0.67949997E+02 -0.21326E+05
 0.67999992E+02 -0.20470E+05
 0.68049995E+02 -0.18560E+05
 0.68099998E+02 -0.16771E+05
 0.68149994E+02 -0.15928E+05
 0.68199997E+02 -0.16286E+05
 0.68249992E+02 -0.16890E+05
 0.68299995E+02 -0.17633E+05
 0.68349998E+02 -0.18359E+05
 0.68399994E+02 -0.19706E+05
 0.68449997E+02 -0.21507E+05
 0.68499992E+02 -0.23568E+05
 0.68549995E+02 -0.25372E+05
 0.68599998E+02 -0.24268E+05
 0.68649994E+02 -0.21016E+05
 0.68699997E+02 -0.17327E+05
 0.68749992E+02 -0.15147E+05
 0.68799995E+02 -0.15704E+05
 0.68849998E+02 -0.17075E+05
 0.68899994E+02 -0.17856E+05
 0.68949997E+02 -0.17545E+05
 0.68999992E+02 -0.15136E+05
 0.69049995E+02 -0.12926E+05
 0.69099998E+02 -0.12948E+05
 0.69149994E+02 -0.14444E+05
 0.69199997E+02 -0.17441E+05
 0.69249992E+02 -0.20310E+05
 0.69299995E+02 -0.20962E+05
 0.69349998E+02 -0.20076E+05
 0.69399994E+02 -0.18418E+05
 0.69449997E+02 -0.16656E+05
 0.69499992E+02 -0.15991E+05
 0.69549995E+02 -0.16381E+05
 0.69599998E+02 -0.18463E+05
 0.69649994E+02 -0.20857E+05
 0.69699997E+02 -0.22380E+05
 0.69749992E+02 -0.22664E+05
 0.69799995E+02 -0.22354E+05
 0.69849998E+02 -0.21429E+05
 0.69899994E+02 -0.19914E+05
 0.69949997E+02 -0.18348E+05
 0.69999992E+02 -0.17355E+05
 0.70049995E+02 -0.17884E+05
 0.70099998E+02 -0.18224E+05
 0.70149994E+02 -0.18440E+05
 0.70199997E+02 -0.19114E+05
 0.70249992E+02 -0.20809E+05
 0.70299995E+02 -0.22543E+05
 0.70349998E+02 -0.22550E+05
 0.70399994E+02 -0.20645E+05
 0.70449997E+02 -0.18565E+05
 0.70499992E+02 -0.17532E+05
 0.70549995E+02 -0.17564E+05
 0.70599998E+02 -0.18457E+05
 0.70649994E+02 -0.19601E+05
 0.70699997E+02 -0.19842E+05
 0.70749992E+02 -0.18681E+05
 0.70799995E+02 -0.17053E+05
 0.70849998E+02 -0.15166E+05
 0.70899994E+02 -0.13878E+05
 0.70949997E+02 -0.14008E+05
 0.70999992E+02 -0.15407E+05
 0.71049995E+02 -0.17782E+05
 0.71099998E+02 -0.20650E+05
 0.71149994E+02 -0.22754E+05
 0.71199997E+02 -0.24001E+05
 0.71249992E+02 -0.23949E+05
 0.71299995E+02 -0.22446E+05
 0.71349998E+02 -0.20787E+05
 0.71399994E+02 -0.19498E+05
 0.71449997E+02 -0.18945E+05
 0.71499992E+02 -0.18370E+05
 0.71549995E+02 -0.16793E+05
 0.71599998E+02 -0.14985E+05
 0.71649994E+02 -0.13344E+05
 0.71699997E+02 -0.13608E+05
 0.71749992E+02 -0.16604E+05
 0.71799995E+02 -0.20206E+05
 0.71849998E+02 -0.22693E+05
 0.71899994E+02 -0.23538E+05
 0.71949997E+02 -0.22880E+05
 0.71999992E+02 -0.21176E+05
 0.72049995E+02 -0.18763E+05
 0.72099998E+02 -0.16936E+05
 0.72149994E+02 -0.17030E+05
 0.72199997E+02 -0.17074E+05
 0.72249992E+02 -0.17566E+05
 0.72299995E+02 -0.18712E+05
 0.72349998E+02 -0.19481E+05
 0.72399994E+02 -0.19714E+05
 0.72449997E+02 -0.19761E+05
 0.72499992E+02 -0.19966E+05
 0.72549995E+02 -0.19503E+05
 0.72599998E+02 -0.18219E+05
 0.72649994E+02 -0.17049E+05
 0.72699997E+02 -0.17464E+05
 0.72749992E+02 -0.18689E+05
 0.72799995E+02 -0.20176E+05
 0.72849998E+02 -0.20860E+05
 0.72899994E+02 -0.20107E+05
 0.72949997E+02 -0.18998E+05
 0.72999992E+02 -0.18336E+05
 0.73049995E+02 -0.18355E+05
 0.73099998E+02 -0.19188E+05
 0.73149994E+02 -0.19883E+05
 0.73199997E+02 -0.19172E+05
 0.73249992E+02 -0.18850E+05
 0.73299995E+02 -0.19556E+05
 0.73349998E+02 -0.19288E+05
 0.73399994E+02 -0.18009E+05
 0.73449997E+02 -0.17252E+05
 0.73499992E+02 -0.17662E+05
 0.73549995E+02 -0.19582E+05
 0.73599998E+02 -0.21784E+05
 0.73649994E+02 -0.22077E+05
 0.73699997E+02 -0.20354E+05
 0.73749992E+02 -0.17617E+05
 0.73799995E+02 -0.15056E+05
 0.73849998E+02 -0.13607E+05
 0.73899994E+02 -0.12971E+05
 0.73949997E+02 -0.12493E+05
 0.73999992E+02 -0.13545E+05
 0.74049995E+02 -0.16823E+05
 0.74099998E+02 -0.20035E+05
 0.74149994E+02 -0.22341E+05
 0.74199997E+02 -0.23281E+05
 0.74249992E+02 -0.22960E+05
 0.74299995E+02 -0.22316E+05
 0.74349998E+02 -0.20557E+05
 0.74399994E+02 -0.18277E+05
 0.74449997E+02 -0.16783E+05
 0.74499992E+02 -0.16062E+05
 0.74549995E+02 -0.16405E+05
 0.74599998E+02 -0.17625E+05
 0.74649994E+02 -0.17813E+05
 0.74699997E+02 -0.18114E+05
 0.74749992E+02 -0.19509E+05
 0.74799995E+02 -0.21309E+05
 0.74849998E+02 -0.22427E+05
 0.74899994E+02 -0.21833E+05
 0.74949997E+02 -0.21028E+05
 0.74999992E+02 -0.20346E+05
 0.75049995E+02 -0.19774E+05
 0.75099998E+02 -0.19028E+05
 0.75149994E+02 -0.17903E+05
 0.75199997E+02 -0.16305E+05
 0.75249992E+02 -0.15770E+05
 0.75299995E+02 -0.16341E+05
 0.75349998E+02 -0.17215E+05
 0.75399994E+02 -0.18453E+05
 0.75449997E+02 -0.19240E+05
 0.75499992E+02 -0.20652E+05
 0.75549995E+02 -0.22433E+05
 0.75599998E+02 -0.23252E+05
 0.75649994E+02 -0.22508E+05
 0.75699997E+02 -0.20624E+05
 0.75749992E+02 -0.18769E+05
 0.75799995E+02 -0.18074E+05
 0.75849998E+02 -0.18653E+05
 0.75899994E+02 -0.20249E+05
 0.75949997E+02 -0.21485E+05
 0.75999992E+02 -0.21215E+05
 0.76049995E+02 -0.20342E+05
 0.76099998E+02 -0.18751E+05
 0.76149994E+02 -0.16994E+05
 0.76199997E+02 -0.15783E+05
 0.76249992E+02 -0.14997E+05
 0.76299995E+02 -0.15199E+05
 0.76349998E+02 -0.16243E+05
 0.76399994E+02 -0.16991E+05
 0.76449997E+02 -0.17188E+05
 0.76499992E+02 -0.17715E+05
 0.76549995E+02 -0.18598E+05
 0.76599998E+02 -0.19737E+05
 0.76649994E+02 -0.20756E+05
 0.76699997E+02 -0.20787E+05
 0.76749992E+02 -0.20123E+05
 0.76799995E+02 -0.19474E+05
 0.76849998E+02 -0.19125E+05
 0.76899994E+02 -0.18310E+05
 0.76949997E+02 -0.17397E+05
 0.76999992E+02 -0.17169E+05
 0.77049995E+02 -0.18270E+05
 0.77099998E+02 -0.20031E+05
 0.77149994E+02 -0.20697E+05
 0.77199997E+02 -0.20392E+05
 0.77249992E+02 -0.20207E+05
 0.77299995E+02 -0.20826E+05
 0.77349998E+02 -0.21528E+05
 0.77399994E+02 -0.21554E+05
 0.77449997E+02 -0.20868E+05
 0.77499992E+02 -0.19408E+05
 0.77549995E+02 -0.17484E+05
 0.77599998E+02 -0.15723E+05
 0.77649994E+02 -0.14609E+05
 0.77699997E+02 -0.15341E+05
 0.77749992E+02 -0.16856E+05
 0.77799995E+02 -0.17205E+05
 0.77849998E+02 -0.16685E+05
 0.77899994E+02 -0.16092E+05
 0.77949997E+02 -0.16289E+05
 0.77999992E+02 -0.17820E+05
 0.78049995E+02 -0.19934E+05
 0.78099998E+02 -0.21684E+05
 0.78149994E+02 -0.22292E+05
 0.78199997E+02 -0.21698E+05
 0.78249992E+02 -0.21068E+05
 0.78299995E+02 -0.20542E+05
 0.78349998E+02 -0.19645E+05
 0.78399994E+02 -0.18892E+05
 0.78449997E+02 -0.18332E+05
 0.78499992E+02 -0.17934E+05
 0.78549995E+02 -0.17686E+05
 0.78599998E+02 -0.17673E+05
 0.78649994E+02 -0.18173E+05
 0.78699997E+02 -0.18315E+05
 0.78749992E+02 -0.18370E+05
 0.78799995E+02 -0.18912E+05
 0.78849998E+02 -0.19673E+05
 0.78899994E+02 -0.19976E+05
 0.78949997E+02 -0.19432E+05
 0.78999992E+02 -0.18622E+05
 0.79049995E+02 -0.18258E+05
 0.79099998E+02 -0.18514E+05
 0.79149994E+02 -0.19400E+05
 0.79199997E+02 -0.20496E+05
 0.79249992E+02 -0.21007E+05
 0.79299995E+02 -0.20176E+05
 0.79349998E+02 -0.18429E+05
 0.79399994E+02 -0.16718E+05
 0.79449997E+02 -0.15805E+05
 0.79499992E+02 -0.16008E+05
 0.79549995E+02 -0.16482E+05
 0.79599998E+02 -0.17088E+05
 0.79649994E+02 -0.18207E+05
 0.79699997E+02 -0.19584E+05
 0.79749992E+02 -0.19975E+05
 0.79799995E+02 -0.19766E+05
 0.79849998E+02 -0.19682E+05
 0.79899994E+02 -0.19348E+05
 0.79949997E+02 -0.18633E+05
 0.79999992E+02 -0.18218E+05
 0.80049995E+02 -0.18538E+05
 0.80099998E+02 -0.19036E+05
 0.80149994E+02 -0.19811E+05
 0.80199997E+02 -0.20560E+05
 0.80249992E+02 -0.20466E+05
 0.80299995E+02 -0.19448E+05
 0.80349998E+02 -0.18798E+05
 0.80399994E+02 -0.18990E+05
 0.80449997E+02 -0.19318E+05
 0.80499992E+02 -0.19583E+05
 0.80549995E+02 -0.19458E+05
 0.80599998E+02 -0.19034E+05
 0.80649994E+02 -0.18657E+05
 0.80699997E+02 -0.18268E+05
 0.80749992E+02 -0.17972E+05
 0.80799995E+02 -0.17812E+05
 0.80849998E+02 -0.17745E+05
 0.80899994E+02 -0.17847E+05
 0.80949997E+02 -0.17625E+05
 0.80999992E+02 -0.16695E+05
 0.81049995E+02 -0.15910E+05
 0.81099998E+02 -0.16407E+05
 0.81149994E+02 -0.18371E+05
 0.81199997E+02 -0.20851E+05
 0.81249992E+02 -0.22861E+05
 0.81299995E+02 -0.23492E+05
 0.81349998E+02 -0.22603E+05
 0.81399994E+02 -0.20865E+05
 0.81449997E+02 -0.18743E+05
 0.81499992E+02 -0.16908E+05
 0.81549995E+02 -0.16470E+05
 0.81599998E+02 -0.17192E+05
 0.81649994E+02 -0.18211E+05
 0.81699997E+02 -0.19074E+05
 0.81749992E+02 -0.19419E+05
 0.81799995E+02 -0.19329E+05
 0.81849998E+02 -0.18804E+05
 0.81899994E+02 -0.18161E+05
 0.81949997E+02 -0.18248E+05
 0.81999992E+02 -0.19477E+05
 0.82049995E+02 -0.20725E+05
 0.82099998E+02 -0.20886E+05
 0.82149994E+02 -0.19968E+05
 0.82199997E+02 -0.18893E+05
 0.82249992E+02 -0.17705E+05
 0.82299995E+02 -0.16841E+05
 0.82349998E+02 -0.16965E+05
 0.82399994E+02 -0.17837E+05
 0.82449997E+02 -0.18542E+05
 0.82499992E+02 -0.18791E+05
 0.82549995E+02 -0.19065E+05
 0.82599998E+02 -0.19392E+05
 0.82649994E+02 -0.19260E+05
 0.82699997E+02 -0.18506E+05
 0.82749992E+02 -0.18118E+05
 0.82799995E+02 -0.18249E+05
 0.82849998E+02 -0.18838E+05
 0.82899994E+02 -0.19976E+05
 0.82949997E+02 -0.20716E+05
 0.82999992E+02 -0.20346E+05
 0.83049995E+02 -0.19590E+05
 0.83099998E+02 -0.19281E+05
 0.83149994E+02 -0.19747E+05
 0.83199997E+02 -0.20496E+05
 0.83249992E+02 -0.20875E+05
 0.83299995E+02 -0.20215E+05
 0.83349998E+02 -0.18308E+05
 0.83399994E+02 -0.16593E+05
 0.83449997E+02 -0.16111E+05
 0.83499992E+02 -0.16858E+05
 0.83549995E+02 -0.18163E+05
 0.83599998E+02 -0.18907E+05
 0.83649994E+02 -0.18885E+05
 0.83699997E+02 -0.18984E+05
 0.83749992E+02 -0.19956E+05
 0.83799995E+02 -0.20200E+05
 0.83849998E+02 -0.19474E+05
 0.83899994E+02 -0.18711E+05
 0.83949997E+02 -0.18213E+05
 0.83999992E+02 -0.18099E+05
 0.84049995E+02 -0.17950E+05
 0.84099998E+02 -0.17693E+05
 0.84149994E+02 -0.17473E+05
 0.84199997E+02 -0.17829E+05
 0.84249992E+02 -0.18485E+05
 0.84299995E+02 -0.18778E+05
 0.84349998E+02 -0.18429E+05
 0.84399994E+02 -0.17518E+05
 0.84449997E+02 -0.16871E+05
 0.84499992E+02 -0.16961E+05
 0.84549995E+02 -0.17577E+05
 0.84599998E+02 -0.18487E+05
 0.84649994E+02 -0.19645E+05
 0.84699997E+02 -0.20822E+05
 0.84749992E+02 -0.21689E+05
 0.84799995E+02 -0.21378E+05
 0.84849998E+02 -0.19677E+05
 0.84899994E+02 -0.18145E+05
 0.84949997E+02 -0.17678E+05
 0.84999992E+02 -0.17778E+05
 0.85049995E+02 -0.18330E+05
 0.85099998E+02 -0.19216E+05
 0.85149994E+02 -0.19408E+05
 0.85199997E+02 -0.19008E+05
 0.85249992E+02 -0.18871E+05
 0.85299995E+02 -0.19342E+05
 0.85349998E+02 -0.20257E+05
 0.85399994E+02 -0.21301E+05
 0.85449997E+02 -0.22002E+05
 0.85499992E+02 -0.22081E+05
 0.85549995E+02 -0.21091E+05
 0.85599998E+02 -0.19308E+05
 0.85649994E+02 -0.17232E+05
 0.85699997E+02 -0.15735E+05
 0.85749992E+02 -0.15903E+05
 0.85799995E+02 -0.17389E+05
 0.85849998E+02 -0.18749E+05
 0.85899994E+02 -0.19501E+05
 0.85949997E+02 -0.19840E+05
 0.85999992E+02 -0.19135E+05
 0.86049995E+02 -0.17630E+05
 0.86099998E+02 -0.16652E+05
 0.86149994E+02 -0.17170E+05
 0.86199997E+02 -0.18708E+05
 0.86249992E+02 -0.20142E+05
 0.86299995E+02 -0.20648E+05
 0.86349998E+02 -0.19764E+05
 0.86399994E+02 -0.18168E+05
 0.86449997E+02 -0.16826E+05
 0.86499992E+02 -0.16147E+05
 0.86549995E+02 -0.16019E+05
 0.86599998E+02 -0.16636E+05
 0.86649994E+02 -0.18026E+05
 0.86699997E+02 -0.19344E+05
 0.86749992E+02 -0.20424E+05
 0.86799995E+02 -0.20690E+05
 0.86849998E+02 -0.19497E+05
 0.86899994E+02 -0.18022E+05
 0.86949997E+02 -0.17655E+05
 0.86999992E+02 -0.17871E+05
 0.87049995E+02 -0.18231E+05
 0.87099998E+02 -0.18523E+05
 0.87149994E+02 -0.18631E+05
 0.87199997E+02 -0.18921E+05
 0.87249992E+02 -0.19431E+05
 0.87299995E+02 -0.20180E+05
 0.87349998E+02 -0.21041E+05
 0.87399994E+02 -0.21777E+05
 0.87449997E+02 -0.21948E+05
 0.87499992E+02 -0.21206E+05
 0.87549995E+02 -0.19910E+05
 0.87599991E+02 -0.18793E+05
 0.87649994E+02 -0.18288E+05
 0.87699997E+02 -0.17963E+05
 0.87749992E+02 -0.17703E+05
 0.87799995E+02 -0.18207E+05
 0.87849991E+02 -0.19066E+05
 0.87899994E+02 -0.19809E+05
 0.87949997E+02 -0.20437E+05
 0.87999992E+02 -0.20603E+05
 0.88049995E+02 -0.19902E+05
 0.88099991E+02 -0.18427E+05
 0.88149994E+02 -0.17051E+05
 0.88199997E+02 -0.16712E+05
 0.88249992E+02 -0.17651E+05
 0.88299995E+02 -0.19175E+05
 0.88349991E+02 -0.20352E+05
 0.88399994E+02 -0.20200E+05
 0.88449997E+02 -0.19086E+05
 0.88499992E+02 -0.17777E+05
 0.88549995E+02 -0.16800E+05
 0.88599991E+02 -0.16708E+05
 0.88649994E+02 -0.17172E+05
 0.88699997E+02 -0.17702E+05
 0.88749992E+02 -0.17918E+05
 0.88799995E+02 -0.17929E+05
 0.88849991E+02 -0.18022E+05
 0.88899994E+02 -0.18489E+05
 0.88949997E+02 -0.19432E+05
 0.88999992E+02 -0.20555E+05
 0.89049995E+02 -0.21421E+05
 0.89099991E+02 -0.21365E+05
 0.89149994E+02 -0.20357E+05
 0.89199997E+02 -0.18982E+05
 0.89249992E+02 -0.18020E+05
 0.89299995E+02 -0.17479E+05
 0.89349991E+02 -0.17324E+05
 0.89399994E+02 -0.17701E+05
 0.89449997E+02 -0.18092E+05
 0.89499992E+02 -0.18415E+05
 0.89549995E+02 -0.18874E+05
 0.89599991E+02 -0.18957E+05
 0.89649994E+02 -0.18612E+05
 0.89699997E+02 -0.18377E+05
 0.89749992E+02 -0.18592E+05
 0.89799995E+02 -0.19293E+05
 0.89849991E+02 -0.19779E+05
 0.89899994E+02 -0.19840E+05
 0.89949997E+02 -0.19636E+05
 0.89999992E+02 -0.19817E+05
 0.90049995E+02 -0.20244E+05
 0.90099991E+02 -0.20297E+05
 0.90149994E+02 -0.19760E+05
 0.90199997E+02 -0.18978E+05
 0.90249992E+02 -0.18449E+05
 0.90299995E+02 -0.18110E+05
 0.90349991E+02 -0.17860E+05
 0.90399994E+02 -0.17604E+05
 0.90449997E+02 -0.17946E+05
 0.90499992E+02 -0.18639E+05
 0.90549995E+02 -0.18749E+05
 0.90599991E+02 -0.18175E+05
 0.90649994E+02 -0.17610E+05
 0.90699997E+02 -0.17278E+05
 0.90749992E+02 -0.17535E+05
 0.90799995E+02 -0.18391E+05
 0.90849991E+02 -0.19019E+05
 0.90899994E+02 -0.19336E+05
 0.90949997E+02 -0.19701E+05
 0.90999992E+02 -0.20081E+05
 0.91049995E+02 -0.20159E+05
 0.91099991E+02 -0.20050E+05
 0.91149994E+02 -0.19532E+05
 0.91199997E+02 -0.18751E+05
 0.91249992E+02 -0.18403E+05
 0.91299995E+02 -0.18405E+05
 0.91349991E+02 -0.18576E+05
 0.91399994E+02 -0.19003E+05
 0.91449997E+02 -0.19397E+05
 0.91499992E+02 -0.19775E+05
 0.91549995E+02 -0.20295E+05
 0.91599991E+02 -0.20605E+05
 0.91649994E+02 -0.20449E+05
 0.91699997E+02 -0.19810E+05
 0.91749992E+02 -0.18818E+05
 0.91799995E+02 -0.17634E+05
 0.91849991E+02 -0.16947E+05
 0.91899994E+02 -0.16860E+05
 0.91949997E+02 -0.16841E+05
 0.91999992E+02 -0.16972E+05
 0.92049995E+02 -0.17717E+05
 0.92099991E+02 -0.19177E+05
 0.92149994E+02 -0.20368E+05
 0.92199997E+02 -0.20327E+05
 0.92249992E+02 -0.19231E+05
 0.92299995E+02 -0.18038E+05
 0.92349991E+02 -0.17646E+05
 0.92399994E+02 -0.17955E+05
 0.92449997E+02 -0.18559E+05
 0.92499992E+02 -0.19047E+05
 0.92549995E+02 -0.19165E+05
 0.92599991E+02 -0.19140E+05
 0.92649994E+02 -0.19182E+05
 0.92699997E+02 -0.19191E+05
 0.92749992E+02 -0.18880E+05
 0.92799995E+02 -0.18401E+05
 0.92849991E+02 -0.18132E+05
 0.92899994E+02 -0.18290E+05
 0.92949997E+02 -0.18825E+05
 0.92999992E+02 -0.19451E+05
 0.93049995E+02 -0.19739E+05
 0.93099991E+02 -0.19829E+05
 0.93149994E+02 -0.19832E+05
 0.93199997E+02 -0.19591E+05
 0.93249992E+02 -0.19310E+05
 0.93299995E+02 -0.19175E+05
 0.93349991E+02 -0.19255E+05
 0.93399994E+02 -0.19204E+05
 0.93449997E+02 -0.18750E+05
 0.93499992E+02 -0.18091E+05
 0.93549995E+02 -0.17573E+05
 0.93599991E+02 -0.17429E+05
 0.93649994E+02 -0.17710E+05
 0.93699997E+02 -0.17997E+05
 0.93749992E+02 -0.17567E+05
 0.93799995E+02 -0.16715E+05
 0.93849991E+02 -0.16496E+05
 0.93899994E+02 -0.17172E+05
 0.93949997E+02 -0.18495E+05
 0.93999992E+02 -0.19841E+05
 0.94049995E+02 -0.20359E+05
 0.94099991E+02 -0.19941E+05
 0.94149994E+02 -0.19139E+05
 0.94199997E+02 -0.18348E+05
 0.94249992E+02 -0.17715E+05
 0.94299995E+02 -0.17881E+05
 0.94349991E+02 -0.18610E+05
 0.94399994E+02 -0.19098E+05
 0.94449997E+02 -0.19640E+05
 0.94499992E+02 -0.20419E+05
 0.94549995E+02 -0.20987E+05
 0.94599991E+02 -0.21184E+05
 0.94649994E+02 -0.20932E+05
 0.94699997E+02 -0.20239E+05
 0.94749992E+02 -0.19541E+05
 0.94799995E+02 -0.19379E+05
 0.94849991E+02 -0.19769E+05
 0.94899994E+02 -0.20261E+05
 0.94949997E+02 -0.20202E+05
 0.94999992E+02 -0.19406E+05
 0.95049995E+02 -0.18263E+05
 0.95099991E+02 -0.17291E+05
 0.95149994E+02 -0.17107E+05
 0.95199997E+02 -0.17899E+05
 0.95249992E+02 -0.19467E+05
 0.95299995E+02 -0.20727E+05
 0.95349991E+02 -0.20890E+05
 0.95399994E+02 -0.19913E+05
 0.95449997E+02 -0.18276E+05
 0.95499992E+02 -0.16867E+05
 0.95549995E+02 -0.15979E+05
 0.95599991E+02 -0.15844E+05
 0.95649994E+02 -0.16444E+05
 0.95699997E+02 -0.17394E+05
 0.95749992E+02 -0.18484E+05
 0.95799995E+02 -0.19541E+05
 0.95849991E+02 -0.20383E+05
 0.95899994E+02 -0.21034E+05
 0.95949997E+02 -0.20983E+05
 0.95999992E+02 -0.20185E+05
 0.96049995E+02 -0.19308E+05
 0.96099991E+02 -0.18760E+05
 0.96149994E+02 -0.18853E+05
 0.96199997E+02 -0.19240E+05
 0.96249992E+02 -0.19568E+05
 0.96299995E+02 -0.19194E+05
 0.96349991E+02 -0.17990E+05
 0.96399994E+02 -0.16659E+05
 0.96449997E+02 -0.16114E+05
 0.96499992E+02 -0.16549E+05
 0.96549995E+02 -0.17540E+05
 0.96599991E+02 -0.18687E+05
 0.96649994E+02 -0.19579E+05
 0.96699997E+02 -0.20531E+05
 0.96749992E+02 -0.21193E+05
 0.96799995E+02 -0.21246E+05
 0.96849991E+02 -0.20677E+05
 0.96899994E+02 -0.19612E+05
 0.96949997E+02 -0.18617E+05
 0.96999992E+02 -0.18308E+05
 0.97049995E+02 -0.18304E+05
 0.97099991E+02 -0.18109E+05
 0.97149994E+02 -0.17783E+05
 0.97199997E+02 -0.17583E+05
 0.97249992E+02 -0.17718E+05
 0.97299995E+02 -0.18064E+05
 0.97349991E+02 -0.18815E+05
 0.97399994E+02 -0.19398E+05
 0.97449997E+02 -0.19375E+05
 0.97499992E+02 -0.19022E+05
 0.97549995E+02 -0.18777E+05
 0.97599991E+02 -0.18591E+05
 0.97649994E+02 -0.18284E+05
 0.97699997E+02 -0.18073E+05
 0.97749992E+02 -0.18232E+05
 0.97799995E+02 -0.18808E+05
 0.97849991E+02 -0.19268E+05
 0.97899994E+02 -0.19448E+05
 0.97949997E+02 -0.19533E+05
 0.97999992E+02 -0.19583E+05
