-0.20000000E+01  0.75101E+04
-0.19500000E+01  0.74632E+04
-0.19000000E+01  0.75144E+04
-0.18500000E+01  0.75399E+04
-0.18000000E+01  0.75503E+04
-0.17500000E+01  0.75372E+04
-0.17000000E+01  0.75242E+04
-0.16500001E+01  0.75223E+04
-0.16000000E+01  0.75120E+04
-0.15500000E+01  0.75056E+04
-0.15000000E+01  0.75044E+04
-0.14500000E+01  0.75036E+04
-0.14000001E+01  0.74930E+04
-0.13500000E+01  0.74837E+04
-0.13000001E+01  0.74856E+04
-0.12500000E+01  0.74849E+04
-0.12000000E+01  0.74919E+04
-0.11500001E+01  0.74996E+04
-0.11000000E+01  0.74901E+04
-0.10500001E+01  0.74851E+04
-0.10000000E+01  0.74846E+04
-0.95000005E+00  0.74785E+04
-0.90000010E+00  0.74719E+04
-0.85000002E+00  0.74605E+04
-0.80000007E+00  0.74515E+04
-0.75000012E+00  0.74383E+04
-0.70000005E+00  0.74422E+04
-0.65000010E+00  0.74522E+04
-0.60000014E+00  0.74560E+04
-0.55000007E+00  0.74626E+04
-0.50000012E+00  0.74751E+04
-0.45000005E+00  0.74924E+04
-0.40000010E+00  0.74955E+04
-0.35000014E+00  0.74977E+04
-0.30000007E+00  0.75003E+04
-0.25000012E+00  0.74997E+04
-0.20000005E+00  0.75061E+04
-0.15000010E+00  0.75265E+04
-0.10000014E+00  0.75334E+04
-0.50000072E-01  0.75395E+04
-0.11920929E-06  0.75489E+04
 0.49999952E-01  0.75539E+04
 0.99999905E-01  0.75544E+04
 0.14999986E+00  0.75487E+04
 0.19999981E+00  0.75461E+04
 0.24999976E+00  0.75412E+04
 0.29999995E+00  0.75304E+04
 0.34999990E+00  0.75153E+04
 0.39999986E+00  0.75071E+04
 0.44999981E+00  0.75040E+04
 0.49999976E+00  0.75009E+04
 0.54999995E+00  0.75029E+04
 0.59999990E+00  0.74970E+04
 0.64999986E+00  0.74977E+04
 0.69999981E+00  0.75125E+04
 0.74999976E+00  0.75065E+04
 0.79999971E+00  0.74960E+04
 0.84999990E+00  0.74884E+04
 0.89999986E+00  0.74746E+04
 0.94999981E+00  0.74558E+04
 0.99999976E+00  0.74508E+04
 0.10499997E+01  0.74456E+04
 0.10999999E+01  0.74445E+04
 0.11499999E+01  0.74571E+04
 0.11999998E+01  0.74595E+04
 0.12499998E+01  0.74481E+04
 0.12999997E+01  0.74489E+04
 0.13499999E+01  0.74606E+04
 0.13999999E+01  0.74642E+04
 0.14499998E+01  0.74705E+04
 0.14999998E+01  0.74698E+04
 0.15499997E+01  0.74614E+04
 0.15999999E+01  0.74614E+04
 0.16499999E+01  0.74719E+04
 0.16999998E+01  0.74775E+04
 0.17499998E+01  0.74762E+04
 0.17999997E+01  0.74866E+04
 0.18499997E+01  0.74958E+04
 0.18999999E+01  0.74952E+04
 0.19499998E+01  0.74988E+04
 0.19999998E+01  0.74886E+04
 0.20499997E+01  0.74870E+04
 0.20999999E+01  0.74852E+04
 0.21499996E+01  0.74878E+04
 0.21999998E+01  0.74903E+04
 0.22499995E+01  0.74786E+04
 0.22999997E+01  0.74866E+04
 0.23499999E+01  0.74940E+04
 0.23999996E+01  0.74974E+04
 0.24499998E+01  0.75013E+04
 0.24999995E+01  0.75048E+04
 0.25499997E+01  0.74945E+04
 0.25999999E+01  0.74914E+04
 0.26499996E+01  0.75036E+04
 0.26999998E+01  0.75015E+04
 0.27499995E+01  0.75006E+04
 0.27999997E+01  0.75068E+04
 0.28499999E+01  0.75127E+04
 0.28999996E+01  0.75053E+04
 0.29499998E+01  0.75107E+04
 0.29999995E+01  0.75075E+04
 0.30499997E+01  0.75033E+04
 0.30999999E+01  0.75112E+04
 0.31499996E+01  0.75092E+04
 0.31999998E+01  0.74950E+04
 0.32499995E+01  0.74811E+04
 0.32999997E+01  0.74818E+04
 0.33499999E+01  0.74771E+04
 0.33999996E+01  0.74768E+04
 0.34499998E+01  0.74828E+04
 0.34999995E+01  0.74718E+04
 0.35499997E+01  0.74599E+04
 0.35999994E+01  0.74693E+04
 0.36499996E+01  0.74781E+04
 0.36999998E+01  0.74823E+04
 0.37499995E+01  0.74662E+04
 0.37999997E+01  0.74577E+04
 0.38499994E+01  0.74584E+04
 0.38999996E+01  0.74628E+04
 0.39499998E+01  0.74796E+04
 0.39999995E+01  0.74897E+04
 0.40499997E+01  0.74967E+04
 0.40999994E+01  0.75027E+04
 0.41499996E+01  0.75029E+04
 0.41999998E+01  0.74891E+04
 0.42499995E+01  0.74846E+04
 0.42999997E+01  0.74777E+04
 0.43499994E+01  0.74668E+04
 0.43999996E+01  0.74818E+04
 0.44499998E+01  0.75029E+04
 0.44999995E+01  0.75077E+04
 0.45499997E+01  0.75036E+04
 0.45999994E+01  0.75139E+04
 0.46499996E+01  0.75228E+04
 0.46999998E+01  0.75237E+04
 0.47499995E+01  0.75318E+04
 0.47999997E+01  0.75285E+04
 0.48499994E+01  0.75292E+04
 0.48999996E+01  0.75292E+04
 0.49499998E+01  0.75115E+04
 0.49999995E+01  0.74956E+04
 0.50499997E+01  0.74951E+04
 0.50999994E+01  0.75065E+04
 0.51499996E+01  0.75208E+04
 0.51999998E+01  0.75364E+04
 0.52499995E+01  0.75464E+04
 0.52999997E+01  0.75359E+04
 0.53499994E+01  0.75228E+04
 0.53999996E+01  0.75086E+04
 0.54499993E+01  0.74983E+04
 0.54999995E+01  0.75006E+04
 0.55499997E+01  0.74996E+04
 0.55999994E+01  0.74967E+04
 0.56499996E+01  0.74895E+04
 0.56999993E+01  0.74759E+04
 0.57499995E+01  0.74600E+04
 0.57999997E+01  0.74516E+04
 0.58499994E+01  0.74580E+04
 0.58999996E+01  0.74750E+04
 0.59499993E+01  0.74794E+04
 0.59999995E+01  0.74762E+04
 0.60499992E+01  0.74793E+04
 0.60999994E+01  0.74775E+04
 0.61499996E+01  0.74719E+04
 0.61999998E+01  0.74728E+04
 0.62499990E+01  0.74705E+04
 0.62999992E+01  0.74604E+04
 0.63499994E+01  0.74534E+04
 0.63999996E+01  0.74485E+04
 0.64499998E+01  0.74386E+04
 0.64999990E+01  0.74425E+04
 0.65499992E+01  0.74535E+04
 0.65999994E+01  0.74561E+04
 0.66499996E+01  0.74648E+04
 0.66999998E+01  0.74672E+04
 0.67499990E+01  0.74633E+04
 0.67999992E+01  0.74635E+04
 0.68499994E+01  0.74716E+04
 0.68999996E+01  0.74736E+04
 0.69499998E+01  0.74732E+04
 0.69999990E+01  0.74860E+04
 0.70499992E+01  0.74943E+04
 0.70999994E+01  0.75101E+04
 0.71499996E+01  0.75196E+04
 0.71999998E+01  0.75220E+04
 0.72499990E+01  0.75218E+04
 0.72999992E+01  0.75197E+04
 0.73499994E+01  0.75303E+04
 0.73999996E+01  0.75296E+04
 0.74499998E+01  0.75373E+04
 0.74999990E+01  0.75405E+04
 0.75499992E+01  0.75357E+04
 0.75999994E+01  0.75277E+04
 0.76499996E+01  0.75153E+04
 0.76999998E+01  0.75110E+04
 0.77499990E+01  0.75033E+04
 0.77999992E+01  0.75082E+04
 0.78499994E+01  0.75116E+04
 0.78999996E+01  0.75129E+04
 0.79499998E+01  0.75156E+04
 0.79999990E+01  0.75148E+04
 0.80499992E+01  0.75068E+04
 0.80999994E+01  0.74981E+04
 0.81499996E+01  0.75025E+04
 0.81999998E+01  0.74953E+04
 0.82499990E+01  0.74858E+04
 0.82999992E+01  0.74789E+04
 0.83499994E+01  0.74642E+04
 0.83999996E+01  0.74524E+04
 0.84499998E+01  0.74513E+04
 0.84999990E+01  0.74542E+04
 0.85499992E+01  0.74537E+04
 0.85999994E+01  0.74659E+04
 0.86499996E+01  0.74798E+04
 0.86999998E+01  0.74964E+04
 0.87499990E+01  0.75209E+04
 0.87999992E+01  0.75251E+04
 0.88499994E+01  0.75234E+04
 0.88999996E+01  0.75195E+04
 0.89499998E+01  0.75203E+04
 0.89999990E+01  0.75196E+04
 0.90499992E+01  0.75100E+04
 0.90999994E+01  0.75047E+04
 0.91499996E+01  0.74870E+04
 0.91999989E+01  0.74655E+04
 0.92499990E+01  0.74632E+04
 0.92999992E+01  0.74661E+04
 0.93499994E+01  0.74681E+04
 0.93999996E+01  0.74735E+04
 0.94499989E+01  0.74760E+04
 0.94999990E+01  0.74665E+04
 0.95499992E+01  0.74599E+04
 0.95999994E+01  0.74659E+04
 0.96499996E+01  0.74611E+04
 0.96999989E+01  0.74705E+04
 0.97499990E+01  0.74773E+04
 0.97999992E+01  0.74729E+04
 0.98499994E+01  0.74721E+04
 0.98999996E+01  0.74737E+04
 0.99499989E+01  0.74687E+04
 0.99999990E+01  0.74671E+04
 0.10049999E+02  0.74838E+04
 0.10099999E+02  0.74967E+04
 0.10150000E+02  0.74986E+04
 0.10199999E+02  0.74955E+04
 0.10249999E+02  0.74891E+04
 0.10299999E+02  0.74850E+04
 0.10349999E+02  0.74967E+04
 0.10400000E+02  0.75053E+04
 0.10449999E+02  0.75059E+04
 0.10499999E+02  0.75117E+04
 0.10549999E+02  0.75166E+04
 0.10599999E+02  0.75110E+04
 0.10650000E+02  0.75051E+04
 0.10699999E+02  0.75038E+04
 0.10749999E+02  0.75044E+04
 0.10799999E+02  0.75002E+04
 0.10849999E+02  0.74973E+04
 0.10900000E+02  0.74940E+04
 0.10949999E+02  0.74950E+04
 0.10999999E+02  0.75032E+04
 0.11049999E+02  0.75086E+04
 0.11099999E+02  0.75116E+04
 0.11150000E+02  0.75065E+04
 0.11199999E+02  0.75053E+04
 0.11249999E+02  0.74950E+04
 0.11299999E+02  0.74820E+04
 0.11349999E+02  0.74762E+04
 0.11400000E+02  0.74758E+04
 0.11449999E+02  0.74801E+04
 0.11499999E+02  0.74823E+04
 0.11549999E+02  0.74807E+04
 0.11599999E+02  0.74829E+04
 0.11650000E+02  0.74930E+04
 0.11699999E+02  0.74938E+04
 0.11749999E+02  0.74937E+04
 0.11799999E+02  0.74956E+04
 0.11849999E+02  0.74998E+04
 0.11900000E+02  0.74940E+04
 0.11949999E+02  0.74908E+04
 0.11999999E+02  0.74970E+04
 0.12049999E+02  0.74920E+04
 0.12099999E+02  0.74916E+04
 0.12150000E+02  0.74951E+04
 0.12199999E+02  0.74894E+04
 0.12249999E+02  0.74865E+04
 0.12299999E+02  0.74978E+04
 0.12349999E+02  0.75017E+04
 0.12400000E+02  0.74924E+04
 0.12449999E+02  0.74992E+04
 0.12499999E+02  0.75016E+04
 0.12549999E+02  0.75011E+04
 0.12599999E+02  0.75080E+04
 0.12649999E+02  0.75027E+04
 0.12699999E+02  0.74947E+04
 0.12749999E+02  0.74903E+04
 0.12799999E+02  0.74817E+04
 0.12849999E+02  0.74823E+04
 0.12899999E+02  0.74908E+04
 0.12949999E+02  0.74890E+04
 0.12999999E+02  0.74866E+04
 0.13049999E+02  0.74899E+04
 0.13099999E+02  0.74940E+04
 0.13149999E+02  0.74894E+04
 0.13199999E+02  0.74832E+04
 0.13249999E+02  0.74798E+04
 0.13299999E+02  0.74868E+04
 0.13349999E+02  0.74913E+04
 0.13399999E+02  0.74889E+04
 0.13449999E+02  0.74885E+04
 0.13499999E+02  0.74914E+04
 0.13549999E+02  0.75024E+04
 0.13599999E+02  0.75052E+04
 0.13649999E+02  0.75068E+04
 0.13699999E+02  0.75132E+04
 0.13749999E+02  0.75142E+04
 0.13799999E+02  0.75099E+04
 0.13849999E+02  0.75218E+04
 0.13899999E+02  0.75289E+04
 0.13949999E+02  0.75154E+04
 0.13999999E+02  0.74984E+04
 0.14049999E+02  0.74841E+04
 0.14099998E+02  0.74729E+04
 0.14150000E+02  0.74696E+04
 0.14199999E+02  0.74777E+04
 0.14249998E+02  0.74791E+04
 0.14299999E+02  0.74848E+04
 0.14349998E+02  0.74907E+04
 0.14400000E+02  0.74846E+04
 0.14449999E+02  0.74785E+04
 0.14499998E+02  0.74876E+04
 0.14549999E+02  0.74991E+04
 0.14599998E+02  0.75007E+04
 0.14650000E+02  0.74948E+04
 0.14699999E+02  0.74877E+04
 0.14749998E+02  0.74812E+04
 0.14799999E+02  0.74762E+04
 0.14849998E+02  0.74739E+04
 0.14900000E+02  0.74669E+04
 0.14949999E+02  0.74657E+04
 0.14999998E+02  0.74744E+04
 0.15049999E+02  0.74755E+04
 0.15099998E+02  0.74807E+04
 0.15150000E+02  0.74975E+04
 0.15199999E+02  0.75073E+04
 0.15249998E+02  0.75059E+04
 0.15299999E+02  0.74948E+04
 0.15349998E+02  0.74863E+04
 0.15400000E+02  0.74687E+04
 0.15449999E+02  0.74621E+04
 0.15499998E+02  0.74626E+04
 0.15549999E+02  0.74650E+04
 0.15599998E+02  0.74859E+04
 0.15650000E+02  0.75059E+04
 0.15699999E+02  0.75149E+04
 0.15749998E+02  0.75035E+04
 0.15799999E+02  0.74981E+04
 0.15849998E+02  0.74915E+04
 0.15900000E+02  0.74897E+04
 0.15949999E+02  0.75023E+04
 0.15999998E+02  0.75269E+04
 0.16049999E+02  0.75416E+04
 0.16099998E+02  0.75718E+04
 0.16150000E+02  0.75752E+04
 0.16199999E+02  0.74781E+04
 0.16249998E+02  0.74244E+04
 0.16299999E+02  0.74516E+04
 0.16349998E+02  0.75727E+04
 0.16400000E+02  0.77414E+04
 0.16449999E+02  0.78302E+04
 0.16499998E+02  0.77758E+04
 0.16549999E+02  0.73775E+04
 0.16599998E+02  0.69506E+04
 0.16650000E+02  0.64908E+04
 0.16699999E+02  0.65146E+04
 0.16749998E+02  0.70734E+04
 0.16799999E+02  0.80655E+04
 0.16849998E+02  0.93379E+04
 0.16900000E+02  0.97616E+04
 0.16949999E+02  0.95170E+04
 0.16999998E+02  0.84576E+04
 0.17049999E+02  0.66729E+04
 0.17099998E+02  0.51498E+04
 0.17150000E+02  0.46265E+04
 0.17199999E+02  0.51803E+04
 0.17249998E+02  0.70549E+04
 0.17299999E+02  0.81470E+04
 0.17349998E+02  0.89707E+04
 0.17400000E+02  0.83549E+04
 0.17449999E+02  0.65892E+04
 0.17499998E+02  0.51514E+04
 0.17549999E+02  0.51065E+04
 0.17599998E+02  0.63112E+04
 0.17650000E+02  0.74083E+04
 0.17699999E+02  0.10881E+05
 0.17749998E+02  0.11759E+05
 0.17799999E+02  0.11676E+05
 0.17849998E+02  0.97477E+04
 0.17900000E+02  0.70915E+04
 0.17949999E+02  0.49201E+04
 0.17999998E+02  0.49230E+04
 0.18049999E+02  0.73679E+04
 0.18099998E+02  0.71743E+04
 0.18150000E+02  0.87460E+04
 0.18199999E+02  0.58285E+04
 0.18249998E+02  0.54827E+04
 0.18299999E+02  0.40410E+04
 0.18349998E+02  0.58039E+04
 0.18400000E+02  0.11356E+05
 0.18449999E+02  0.80601E+04
 0.18499998E+02  0.12885E+05
 0.18549999E+02  0.90232E+04
 0.18599998E+02  0.43172E+04
 0.18650000E+02  0.52670E+04
 0.18699999E+02  0.58867E+04
 0.18749998E+02  0.61365E+04
 0.18799999E+02  0.39195E+04
 0.18849998E+02  0.11048E+05
 0.18900000E+02  0.79377E+04
 0.18949999E+02  0.79080E+04
 0.18999998E+02  0.59171E+04
 0.19049999E+02  0.26045E+04
 0.19099998E+02  0.10534E+05
 0.19150000E+02  0.12346E+05
 0.19199999E+02  0.14483E+05
 0.19249998E+02  0.12214E+05
 0.19299999E+02  0.69402E+04
 0.19349998E+02  0.35779E+04
 0.19400000E+02  0.40731E+04
 0.19449999E+02  0.35183E+04
 0.19499998E+02  0.42533E+04
 0.19549999E+02  0.12407E+05
 0.19599998E+02  0.92766E+04
 0.19650000E+02  0.61371E+04
 0.19699999E+02  0.59582E+04
 0.19749998E+02  0.53994E+04
 0.19799999E+02  0.91377E+04
 0.19849998E+02  0.61705E+04
 0.19900000E+02  0.56023E+04
 0.19949999E+02  0.40347E+04
 0.19999998E+02  0.78864E+04
 0.20049999E+02  0.83448E+04
 0.20099998E+02  0.89851E+04
 0.20150000E+02  0.12297E+05
 0.20199999E+02  0.79236E+04
 0.20249998E+02  0.12048E+05
 0.20299999E+02  0.70510E+04
 0.20349998E+02  0.56136E+04
 0.20399998E+02  0.56146E+04
 0.20449999E+02  0.33972E+04
 0.20499998E+02  0.10241E+05
 0.20549999E+02  0.10964E+05
 0.20599998E+02  0.69223E+04
 0.20649998E+02  0.40709E+04
 0.20699999E+02  0.10006E+05
 0.20749998E+02  0.85499E+04
 0.20799999E+02  0.14031E+04
 0.20849998E+02  0.31292E+04
 0.20899998E+02  0.30919E+04
 0.20949999E+02  0.84619E+04
 0.20999998E+02  0.17447E+05
 0.21049999E+02  0.14229E+05
 0.21099998E+02  0.87180E+04
 0.21149998E+02  0.51561E+04
 0.21199999E+02  0.16972E+04
 0.21249998E+02  0.37544E+04
 0.21299999E+02  0.77523E+04
 0.21349998E+02  0.10096E+05
 0.21399998E+02  0.82683E+04
 0.21449999E+02  0.39577E+04
 0.21499998E+02  0.75656E+04
 0.21549999E+02  0.13716E+05
 0.21599998E+02  0.11931E+05
 0.21649998E+02  0.46001E+04
 0.21699999E+02  0.46147E+04
 0.21749998E+02  0.10291E+05
 0.21799999E+02  0.90112E+04
 0.21849998E+02  0.94579E+04
 0.21899998E+02  0.78739E+04
 0.21949999E+02  0.42448E+04
 0.21999998E+02  0.22692E+04
 0.22049999E+02  0.58466E+04
 0.22099998E+02  0.60551E+04
 0.22149998E+02  0.79021E+04
 0.22199999E+02  0.13655E+05
 0.22249998E+02  0.48557E+04
 0.22299999E+02  0.22920E+04
 0.22349998E+02  0.10553E+05
 0.22399998E+02  0.81577E+04
 0.22449999E+02  0.11347E+05
 0.22499998E+02  0.13216E+05
 0.22549999E+02  0.41436E+04
 0.22599998E+02  0.67212E+04
 0.22649998E+02  0.66468E+04
 0.22699999E+02  0.28015E+04
 0.22749998E+02  0.61842E+04
 0.22799999E+02  0.12105E+05
 0.22849998E+02  0.80816E+04
 0.22899998E+02  0.83412E+04
 0.22949999E+02  0.10071E+05
 0.22999998E+02  0.22768E+04
 0.23049999E+02  0.36381E+04
 0.23099998E+02  0.80572E+04
 0.23149998E+02  0.74043E+04
 0.23199999E+02  0.12510E+05
 0.23249998E+02  0.98363E+04
 0.23299999E+02  0.12344E+05
 0.23349998E+02  0.12523E+05
 0.23399998E+02 -0.25982E+04
 0.23449999E+02 -0.17461E+04
 0.23499998E+02  0.17008E+04
 0.23549999E+02  0.14470E+05
 0.23599998E+02  0.16599E+05
 0.23649998E+02  0.79671E+04
 0.23699999E+02  0.44449E+04
 0.23749998E+02  0.42284E+04
 0.23799999E+02  0.59837E+04
 0.23849998E+02  0.23532E+04
 0.23899998E+02  0.13018E+05
 0.23949999E+02  0.10726E+05
 0.23999998E+02  0.92407E+04
 0.24049999E+02  0.17044E+05
 0.24099998E+02  0.90285E+04
 0.24149998E+02  0.52386E+04
 0.24199999E+02  0.16651E+04
 0.24249998E+02  0.85295E+02
 0.24299999E+02  0.86211E+04
 0.24349998E+02  0.16129E+05
 0.24399998E+02  0.10641E+05
 0.24449999E+02  0.31166E+04
 0.24499998E+02  0.18245E+04
 0.24549999E+02  0.33916E+04
 0.24599998E+02  0.10651E+05
 0.24649998E+02  0.10270E+05
 0.24699999E+02  0.86367E+04
 0.24749998E+02  0.11992E+05
 0.24799999E+02  0.43053E+04
 0.24849998E+02  0.67334E+04
 0.24899998E+02  0.92089E+04
 0.24949999E+02  0.37101E+04
 0.24999998E+02  0.80009E+04
 0.25049999E+02  0.75555E+04
 0.25099998E+02  0.84363E+04
 0.25149998E+02  0.65490E+04
 0.25199999E+02  0.11132E+05
 0.25249998E+02  0.65322E+04
 0.25299999E+02  0.65973E+04
 0.25349998E+02  0.10865E+05
 0.25399998E+02  0.71621E+04
 0.25449999E+02  0.64357E+04
 0.25499998E+02 -0.21624E+04
 0.25549999E+02  0.54238E+04
 0.25599998E+02  0.86725E+04
 0.25649998E+02  0.12557E+05
 0.25699999E+02  0.11052E+05
 0.25749998E+02  0.77414E+04
 0.25799999E+02  0.60598E+04
 0.25849998E+02  0.58454E+04
 0.25899998E+02  0.12013E+05
 0.25949999E+02  0.60914E+04
 0.25999998E+02  0.59554E+04
 0.26049999E+02  0.68384E+04
 0.26099998E+02  0.62657E+04
 0.26149998E+02  0.99966E+04
 0.26199999E+02  0.58104E+04
 0.26249998E+02  0.10538E+04
 0.26299999E+02  0.31655E+04
 0.26349998E+02  0.86572E+04
 0.26399998E+02  0.11322E+05
 0.26449999E+02  0.10062E+05
 0.26499998E+02  0.17842E+05
 0.26549999E+02  0.80885E+04
 0.26599998E+02 -0.13746E+03
 0.26649998E+02  0.57034E+04
 0.26699999E+02  0.80591E+04
 0.26749998E+02  0.90312E+04
 0.26799999E+02  0.30523E+04
 0.26849998E+02  0.58942E+04
 0.26899998E+02  0.64145E+04
 0.26949999E+02  0.76720E+04
 0.26999998E+02  0.10984E+05
 0.27049997E+02  0.27839E+04
 0.27099998E+02  0.30421E+04
 0.27149998E+02  0.38472E+04
 0.27199999E+02  0.62980E+04
 0.27249998E+02  0.10159E+05
 0.27299997E+02  0.92930E+04
 0.27349998E+02  0.51743E+04
 0.27399998E+02  0.14096E+04
 0.27449999E+02  0.14113E+05
 0.27499998E+02  0.11381E+05
 0.27549997E+02 -0.64464E+04
 0.27599998E+02  0.43889E+04
 0.27649998E+02  0.17939E+05
 0.27699999E+02  0.24306E+05
 0.27749998E+02  0.28247E+05
 0.27799997E+02  0.16546E+05
 0.27849998E+02  0.25457E+04
 0.27899998E+02 -0.14846E+05
 0.27949999E+02 -0.12541E+05
 0.27999998E+02  0.38278E+03
 0.28049997E+02  0.15739E+05
 0.28099998E+02  0.25047E+05
 0.28149998E+02  0.17130E+05
 0.28199999E+02  0.67963E+04
 0.28249998E+02 -0.74547E+04
 0.28299997E+02 -0.75777E+04
 0.28349998E+02  0.18429E+05
 0.28399998E+02  0.29624E+05
 0.28449999E+02  0.17116E+05
 0.28499998E+02 -0.94340E+03
 0.28549997E+02 -0.63666E+04
 0.28599998E+02  0.38992E+04
 0.28649998E+02 -0.34129E+03
 0.28699999E+02  0.13801E+05
 0.28749998E+02 -0.35907E+04
 0.28799997E+02  0.21191E+04
 0.28849998E+02  0.30453E+05
 0.28899998E+02  0.21561E+05
 0.28949999E+02  0.54502E+04
 0.28999998E+02 -0.31410E+04
 0.29049997E+02  0.19549E+03
 0.29099998E+02 -0.82284E+04
 0.29149998E+02  0.38033E+03
 0.29199999E+02  0.34559E+04
 0.29249998E+02  0.21404E+05
 0.29299997E+02  0.91694E+04
 0.29349998E+02  0.11161E+05
 0.29399998E+02  0.26230E+05
 0.29449999E+02 -0.56776E+04
 0.29499998E+02  0.88168E+04
 0.29549997E+02  0.27533E+05
 0.29599998E+02  0.27137E+03
 0.29649998E+02 -0.18030E+05
 0.29699999E+02  0.77463E+04
 0.29749998E+02  0.13333E+04
 0.29799997E+02 -0.35808E+04
 0.29849998E+02  0.24733E+05
 0.29899998E+02  0.31003E+05
 0.29949999E+02  0.14911E+05
 0.29999998E+02 -0.45331E+03
 0.30049999E+02  0.34771E+04
 0.30099998E+02  0.44910E+04
 0.30149998E+02  0.75667E+04
 0.30199997E+02  0.54006E+03
 0.30249996E+02  0.15850E+05
 0.30299999E+02  0.90642E+04
 0.30349998E+02  0.43788E+04
 0.30399998E+02  0.24729E+05
 0.30449997E+02 -0.39027E+04
 0.30499996E+02 -0.46830E+04
 0.30549999E+02  0.14144E+05
 0.30599998E+02  0.82009E+04
 0.30649998E+02  0.62663E+03
 0.30699997E+02  0.13005E+04
 0.30749996E+02  0.12134E+05
 0.30799999E+02  0.13038E+05
 0.30849998E+02  0.37297E+04
 0.30899998E+02  0.13115E+05
 0.30949997E+02  0.27186E+05
 0.30999996E+02  0.12799E+05
 0.31049999E+02  0.93759E+04
 0.31099998E+02 -0.11852E+05
 0.31149998E+02 -0.23851E+05
 0.31199997E+02  0.10313E+05
 0.31249996E+02  0.14512E+05
 0.31299999E+02  0.22289E+05
 0.31349998E+02  0.16869E+05
 0.31399998E+02 -0.51888E+04
 0.31449997E+02 -0.34530E+04
 0.31499996E+02  0.12691E+05
 0.31549999E+02  0.31448E+05
 0.31599998E+02  0.18895E+05
 0.31649998E+02 -0.12464E+05
 0.31699997E+02 -0.10311E+05
 0.31749996E+02  0.96692E+04
 0.31799999E+02  0.61094E+04
 0.31849998E+02  0.10252E+05
 0.31899998E+02  0.14558E+05
 0.31949997E+02  0.15573E+05
 0.31999996E+02  0.15655E+05
 0.32049999E+02  0.80360E+04
 0.32099998E+02 -0.38120E+04
 0.32149998E+02 -0.13170E+05
 0.32199997E+02 -0.35289E+03
 0.32249996E+02  0.25134E+05
 0.32299999E+02  0.37070E+05
 0.32349998E+02  0.14643E+05
 0.32399998E+02 -0.70989E+04
 0.32449997E+02 -0.22437E+03
 0.32499996E+02  0.34291E+04
 0.32549999E+02 -0.32399E+04
 0.32599998E+02  0.50240E+04
 0.32649998E+02  0.87622E+04
 0.32699997E+02  0.52620E+04
 0.32749996E+02  0.17479E+05
 0.32799999E+02  0.16863E+05
 0.32849998E+02  0.41251E+04
 0.32899998E+02  0.44775E+04
 0.32949997E+02  0.47155E+04
 0.32999996E+02  0.11933E+05
 0.33049999E+02  0.13329E+05
 0.33099998E+02  0.54867E+04
 0.33149998E+02  0.17450E+05
 0.33199997E+02  0.32061E+04
 0.33249996E+02 -0.90902E+04
 0.33299999E+02  0.50475E+04
 0.33349998E+02  0.97345E+04
 0.33399998E+02  0.12731E+05
 0.33449997E+02  0.12978E+05
 0.33499996E+02  0.65248E+04
 0.33549999E+02  0.51406E+04
 0.33599998E+02  0.15478E+05
 0.33649998E+02  0.55340E+04
 0.33699997E+02  0.58033E+04
 0.33749996E+02  0.10546E+05
 0.33799999E+02  0.21952E+04
 0.33849998E+02 -0.86087E+03
 0.33899998E+02 -0.10544E+05
 0.33949997E+02  0.12639E+04
 0.33999996E+02  0.14770E+05
 0.34049999E+02  0.13297E+05
 0.34099998E+02  0.12460E+05
 0.34149998E+02  0.29586E+04
 0.34199997E+02  0.31171E+04
 0.34249996E+02  0.98500E+04
 0.34299999E+02  0.91561E+04
 0.34349998E+02  0.34769E+04
 0.34399998E+02  0.14622E+05
 0.34449997E+02  0.28517E+05
 0.34499996E+02  0.18543E+05
 0.34549999E+02  0.31058E+04
 0.34599998E+02 -0.16839E+04
 0.34649998E+02 -0.30219E+03
 0.34699997E+02  0.36511E+04
 0.34749996E+02  0.15620E+05
 0.34799999E+02  0.21974E+05
 0.34849998E+02  0.14201E+05
 0.34899998E+02  0.89435E+04
 0.34949997E+02  0.44804E+04
 0.34999996E+02  0.10022E+04
 0.35049999E+02  0.29913E+04
 0.35099998E+02  0.25185E+04
 0.35149998E+02  0.55732E+04
 0.35199997E+02 -0.11235E+04
 0.35249996E+02 -0.44683E+04
 0.35299999E+02  0.36386E+04
 0.35349998E+02  0.96030E+04
 0.35399998E+02  0.42722E+04
 0.35449997E+02  0.10291E+05
 0.35499996E+02  0.21489E+05
 0.35549999E+02  0.18384E+05
 0.35599998E+02  0.20462E+05
 0.35649998E+02  0.70883E+04
 0.35699997E+02 -0.40692E+03
 0.35749996E+02  0.80864E+04
 0.35799999E+02  0.91361E+04
 0.35849998E+02  0.23945E+04
 0.35899998E+02 -0.76552E+03
 0.35949997E+02 -0.14954E+04
 0.35999996E+02 -0.63551E+04
 0.36049999E+02 -0.29302E+04
 0.36099998E+02  0.55022E+03
 0.36149998E+02  0.10563E+05
 0.36199997E+02  0.18597E+05
 0.36249996E+02  0.13157E+05
 0.36299999E+02  0.11674E+05
 0.36349998E+02  0.15878E+05
 0.36399998E+02  0.14850E+05
 0.36449997E+02  0.15950E+05
 0.36499996E+02  0.13679E+05
 0.36549999E+02  0.69264E+04
 0.36599998E+02  0.54174E+04
 0.36649998E+02  0.45530E+03
 0.36699997E+02 -0.45338E+04
 0.36749996E+02  0.73323E+03
 0.36799999E+02  0.82906E+04
 0.36849998E+02  0.10641E+05
 0.36899998E+02  0.15107E+05
 0.36949997E+02  0.10073E+05
 0.36999996E+02  0.17233E+04
 0.37049999E+02 -0.29406E+03
 0.37099998E+02  0.77176E+04
 0.37149998E+02  0.14001E+05
 0.37199997E+02  0.15128E+05
 0.37249996E+02  0.77749E+04
 0.37299999E+02 -0.16594E+04
 0.37349998E+02  0.25384E+03
 0.37399998E+02  0.37428E+04
 0.37449997E+02  0.11834E+05
 0.37499996E+02  0.15190E+05
 0.37549999E+02  0.95119E+04
 0.37599998E+02  0.41744E+04
 0.37649998E+02  0.10604E+05
 0.37699997E+02  0.94706E+04
 0.37749996E+02  0.23558E+04
 0.37799999E+02  0.67419E+04
 0.37849998E+02  0.94315E+04
 0.37899998E+02  0.94399E+04
 0.37949997E+02  0.84295E+04
 0.37999996E+02  0.76962E+04
 0.38049999E+02  0.51485E+04
 0.38099998E+02  0.39689E+04
 0.38149998E+02  0.70497E+04
 0.38199997E+02  0.83803E+04
 0.38249996E+02  0.93062E+04
 0.38299999E+02  0.56368E+04
 0.38349998E+02 -0.41702E+04
 0.38399998E+02 -0.63388E+04
 0.38449997E+02 -0.17766E+04
 0.38499996E+02  0.10138E+05
 0.38549999E+02  0.20357E+05
 0.38599998E+02  0.19698E+05
 0.38649998E+02  0.15045E+05
 0.38699997E+02  0.10539E+05
 0.38749996E+02  0.13433E+05
 0.38799999E+02  0.15138E+05
 0.38849998E+02  0.92328E+04
 0.38899998E+02  0.17435E+04
 0.38949997E+02  0.25269E+04
 0.38999996E+02  0.52302E+04
 0.39049999E+02  0.43424E+04
 0.39099998E+02  0.50764E+04
 0.39149998E+02  0.21011E+04
 0.39199997E+02 -0.17214E+04
 0.39249996E+02  0.23478E+04
 0.39299999E+02  0.10545E+05
 0.39349998E+02  0.16313E+05
 0.39399998E+02  0.16258E+05
 0.39449997E+02  0.16346E+05
 0.39499996E+02  0.15467E+05
 0.39549999E+02  0.14979E+05
 0.39599998E+02  0.10648E+05
 0.39649998E+02  0.13844E+04
 0.39699997E+02 -0.54185E+03
 0.39749996E+02  0.26346E+03
 0.39799999E+02  0.37678E+04
 0.39849998E+02  0.45331E+04
 0.39899998E+02  0.77267E+04
 0.39949997E+02  0.79199E+04
 0.39999996E+02  0.53072E+04
 0.40049999E+02  0.64222E+04
 0.40099998E+02  0.55134E+04
 0.40149998E+02  0.95521E+04
 0.40199997E+02  0.12205E+05
 0.40249996E+02  0.12606E+05
 0.40299999E+02  0.12163E+05
 0.40349998E+02  0.10043E+05
 0.40399998E+02  0.28103E+04
 0.40449997E+02  0.43247E+04
 0.40499996E+02  0.10736E+05
 0.40549999E+02  0.10531E+05
 0.40599998E+02  0.13111E+05
 0.40649998E+02  0.67415E+04
 0.40699997E+02 -0.26000E+04
 0.40749996E+02 -0.15748E+04
 0.40799999E+02  0.77924E+04
 0.40849998E+02  0.12017E+05
 0.40899998E+02  0.11384E+05
 0.40949997E+02  0.12358E+05
 0.40999996E+02  0.97411E+04
 0.41049999E+02  0.62043E+04
 0.41099998E+02  0.67877E+04
 0.41149998E+02  0.53951E+04
 0.41199997E+02  0.61852E+03
 0.41249996E+02  0.30393E+04
 0.41299999E+02  0.53240E+04
 0.41349998E+02  0.69366E+04
 0.41399998E+02  0.86697E+04
 0.41449997E+02  0.88532E+04
 0.41499996E+02  0.70488E+04
 0.41549999E+02  0.71057E+04
 0.41599998E+02  0.10713E+05
 0.41649998E+02  0.10929E+05
 0.41699997E+02  0.12449E+05
 0.41749996E+02  0.98497E+04
 0.41799999E+02  0.48962E+04
 0.41849998E+02  0.45446E+04
 0.41899998E+02  0.45625E+04
 0.41949997E+02  0.19999E+04
 0.41999996E+02  0.39219E+04
 0.42049999E+02  0.86146E+04
 0.42099998E+02  0.11919E+05
 0.42149998E+02  0.14712E+05
 0.42199997E+02  0.16096E+05
 0.42249996E+02  0.14941E+05
 0.42299999E+02  0.78148E+04
 0.42349998E+02  0.42520E+04
 0.42399998E+02  0.31985E+04
 0.42449997E+02  0.31180E+04
 0.42499996E+02  0.39027E+04
 0.42549999E+02  0.24285E+04
 0.42599998E+02  0.11839E+04
 0.42649998E+02  0.51337E+04
 0.42699997E+02  0.99855E+04
 0.42749996E+02  0.11020E+05
 0.42799995E+02  0.13428E+05
 0.42849998E+02  0.12196E+05
 0.42899998E+02  0.10284E+05
 0.42949997E+02  0.62244E+04
 0.42999996E+02  0.40479E+04
 0.43049995E+02  0.66423E+04
 0.43099998E+02  0.92073E+04
 0.43149998E+02  0.99386E+04
 0.43199997E+02  0.80357E+04
 0.43249996E+02  0.67996E+04
 0.43299995E+02  0.41334E+04
 0.43349998E+02  0.54576E+04
 0.43399998E+02  0.91800E+04
 0.43449997E+02  0.64470E+04
 0.43499996E+02  0.34933E+04
 0.43549995E+02  0.46008E+04
 0.43599998E+02  0.46099E+04
 0.43649998E+02  0.46391E+04
 0.43699997E+02  0.67066E+04
 0.43749996E+02  0.61580E+04
 0.43799995E+02  0.72955E+04
 0.43849998E+02  0.11177E+05
 0.43899998E+02  0.99518E+04
 0.43949997E+02  0.70173E+04
 0.43999996E+02  0.83507E+04
 0.44049995E+02  0.93783E+04
 0.44099998E+02  0.79985E+04
 0.44149998E+02  0.10675E+05
 0.44199997E+02  0.11431E+05
 0.44249996E+02  0.10381E+05
 0.44299995E+02  0.79359E+04
 0.44349998E+02  0.45101E+04
 0.44399998E+02  0.57521E+04
 0.44449997E+02  0.89306E+04
 0.44499996E+02  0.10071E+05
 0.44549995E+02  0.92043E+04
 0.44599998E+02  0.55123E+04
 0.44649998E+02  0.12048E+04
 0.44699997E+02  0.19447E+04
 0.44749996E+02  0.39285E+04
 0.44799995E+02  0.64530E+04
 0.44849998E+02  0.11387E+05
 0.44899998E+02  0.12412E+05
 0.44949997E+02  0.95196E+04
 0.44999996E+02  0.82473E+04
 0.45049995E+02  0.71504E+04
 0.45099998E+02  0.53439E+04
 0.45149998E+02  0.35429E+04
 0.45199997E+02  0.46674E+04
 0.45249996E+02  0.78742E+04
 0.45299995E+02  0.67917E+04
 0.45349998E+02  0.60304E+04
 0.45399998E+02  0.76987E+04
 0.45449997E+02  0.64285E+04
 0.45499996E+02  0.85022E+04
 0.45549995E+02  0.13477E+05
 0.45599998E+02  0.15110E+05
 0.45649998E+02  0.13121E+05
 0.45699997E+02  0.10125E+05
 0.45749996E+02  0.64594E+04
 0.45799995E+02  0.57829E+04
 0.45849998E+02  0.54170E+04
 0.45899998E+02  0.39951E+04
 0.45949997E+02  0.27019E+04
 0.45999996E+02  0.49720E+04
 0.46049995E+02  0.76079E+04
 0.46099998E+02  0.62389E+04
 0.46149998E+02  0.78031E+04
 0.46199997E+02  0.65500E+04
 0.46249996E+02  0.61694E+04
 0.46299995E+02  0.84283E+04
 0.46349998E+02  0.87706E+04
 0.46399998E+02  0.65789E+04
 0.46449997E+02  0.68264E+04
 0.46499996E+02  0.10037E+05
 0.46549995E+02  0.11579E+05
 0.46599998E+02  0.12113E+05
 0.46649998E+02  0.88825E+04
 0.46699997E+02  0.64367E+04
 0.46749996E+02  0.57532E+04
 0.46799995E+02  0.56699E+04
 0.46849998E+02  0.59283E+04
 0.46899998E+02  0.46936E+04
 0.46949997E+02  0.52846E+04
 0.46999996E+02  0.59318E+04
 0.47049995E+02  0.72050E+04
 0.47099998E+02  0.90625E+04
 0.47149998E+02  0.11440E+05
 0.47199997E+02  0.95439E+04
 0.47249996E+02  0.63171E+04
 0.47299995E+02  0.64057E+04
 0.47349998E+02  0.63056E+04
 0.47399998E+02  0.64900E+04
 0.47449997E+02  0.68442E+04
 0.47499996E+02  0.58459E+04
 0.47549995E+02  0.47704E+04
 0.47599998E+02  0.78041E+04
 0.47649998E+02  0.90709E+04
 0.47699997E+02  0.92019E+04
 0.47749996E+02  0.86164E+04
 0.47799995E+02  0.79672E+04
 0.47849998E+02  0.86119E+04
 0.47899998E+02  0.62526E+04
 0.47949997E+02  0.52900E+04
 0.47999996E+02  0.57414E+04
 0.48049995E+02  0.54572E+04
 0.48099998E+02  0.80066E+04
 0.48149998E+02  0.10752E+05
 0.48199997E+02  0.10615E+05
 0.48249996E+02  0.11143E+05
 0.48299995E+02  0.99574E+04
 0.48349998E+02  0.77565E+04
 0.48399998E+02  0.71081E+04
 0.48449997E+02  0.69659E+04
 0.48499996E+02  0.76131E+04
 0.48549995E+02  0.67384E+04
 0.48599998E+02  0.60439E+04
 0.48649998E+02  0.40990E+04
 0.48699997E+02  0.45607E+04
 0.48749996E+02  0.76633E+04
 0.48799995E+02  0.83747E+04
 0.48849998E+02  0.90243E+04
 0.48899998E+02  0.95990E+04
 0.48949997E+02  0.97137E+04
 0.48999996E+02  0.83042E+04
 0.49049995E+02  0.77202E+04
 0.49099998E+02  0.77969E+04
 0.49149998E+02  0.78912E+04
 0.49199997E+02  0.70704E+04
 0.49249996E+02  0.65845E+04
 0.49299995E+02  0.73951E+04
 0.49349998E+02  0.68493E+04
 0.49399998E+02  0.70955E+04
 0.49449997E+02  0.71170E+04
 0.49499996E+02  0.65221E+04
 0.49549995E+02  0.42359E+04
 0.49599998E+02  0.42916E+04
 0.49649998E+02  0.66342E+04
 0.49699997E+02  0.82783E+04
 0.49749996E+02  0.81430E+04
 0.49799995E+02  0.81381E+04
 0.49849998E+02  0.84805E+04
 0.49899998E+02  0.87137E+04
 0.49949997E+02  0.10857E+05
 0.49999996E+02  0.10865E+05
 0.50049995E+02  0.81590E+04
 0.50099998E+02  0.49458E+04
 0.50149998E+02  0.54341E+04
 0.50199997E+02  0.63593E+04
 0.50249996E+02  0.60471E+04
 0.50299995E+02  0.63194E+04
 0.50349998E+02  0.59648E+04
 0.50399998E+02  0.50249E+04
 0.50449997E+02  0.76857E+04
 0.50499996E+02  0.92567E+04
 0.50549995E+02  0.78561E+04
 0.50599998E+02  0.80405E+04
 0.50649998E+02  0.58460E+04
 0.50699997E+02  0.44117E+04
 0.50749996E+02  0.68021E+04
 0.50799995E+02  0.10023E+05
 0.50849998E+02  0.11348E+05
 0.50899998E+02  0.10865E+05
 0.50949997E+02  0.98906E+04
 0.50999996E+02  0.73976E+04
 0.51049995E+02  0.63297E+04
 0.51099998E+02  0.64964E+04
 0.51149998E+02  0.67937E+04
 0.51199997E+02  0.80363E+04
 0.51249996E+02  0.76317E+04
 0.51299995E+02  0.54559E+04
 0.51349998E+02  0.52736E+04
 0.51399998E+02  0.75551E+04
 0.51449997E+02  0.77802E+04
 0.51499996E+02  0.80190E+04
 0.51549995E+02  0.87435E+04
 0.51599998E+02  0.76192E+04
 0.51649998E+02  0.74752E+04
 0.51699997E+02  0.83803E+04
 0.51749996E+02  0.74108E+04
 0.51799995E+02  0.81954E+04
 0.51849998E+02  0.91175E+04
 0.51899998E+02  0.75204E+04
 0.51949997E+02  0.69061E+04
 0.51999996E+02  0.64901E+04
 0.52049995E+02  0.56195E+04
 0.52099998E+02  0.52036E+04
 0.52149998E+02  0.52009E+04
 0.52199997E+02  0.59424E+04
 0.52249996E+02  0.71456E+04
 0.52299995E+02  0.89485E+04
 0.52349998E+02  0.10979E+05
 0.52399998E+02  0.97898E+04
 0.52449997E+02  0.76883E+04
 0.52499996E+02  0.72472E+04
 0.52549995E+02  0.69903E+04
 0.52599998E+02  0.64953E+04
 0.52649998E+02  0.61875E+04
 0.52699997E+02  0.66252E+04
 0.52749996E+02  0.85840E+04
 0.52799995E+02  0.10025E+05
 0.52849998E+02  0.86759E+04
 0.52899998E+02  0.78791E+04
 0.52949997E+02  0.82910E+04
 0.52999996E+02  0.77140E+04
 0.53049995E+02  0.76786E+04
 0.53099998E+02  0.82162E+04
 0.53149998E+02  0.85874E+04
 0.53199997E+02  0.93739E+04
 0.53249996E+02  0.94443E+04
 0.53299995E+02  0.90315E+04
 0.53349998E+02  0.71649E+04
 0.53399998E+02  0.53298E+04
 0.53449997E+02  0.46433E+04
 0.53499996E+02  0.44868E+04
 0.53549995E+02  0.57281E+04
 0.53599998E+02  0.59823E+04
 0.53649998E+02  0.50873E+04
 0.53699997E+02  0.40725E+04
 0.53749996E+02  0.42397E+04
 0.53799995E+02  0.72553E+04
 0.53849998E+02  0.90682E+04
 0.53899998E+02  0.91688E+04
 0.53949997E+02  0.88023E+04
 0.53999996E+02  0.71184E+04
 0.54049995E+02  0.69463E+04
 0.54099998E+02  0.81005E+04
 0.54149998E+02  0.89748E+04
 0.54199997E+02  0.93120E+04
 0.54249996E+02  0.93529E+04
 0.54299995E+02  0.93460E+04
 0.54349998E+02  0.10635E+05
 0.54399998E+02  0.90718E+04
 0.54449997E+02  0.61693E+04
 0.54499996E+02  0.65248E+04
 0.54549995E+02  0.68393E+04
 0.54599998E+02  0.72901E+04
 0.54649998E+02  0.73924E+04
 0.54699997E+02  0.60621E+04
 0.54749996E+02  0.59415E+04
 0.54799995E+02  0.66623E+04
 0.54849998E+02  0.70144E+04
 0.54899998E+02  0.81440E+04
 0.54949997E+02  0.92029E+04
 0.54999996E+02  0.95280E+04
 0.55049995E+02  0.86695E+04
 0.55099998E+02  0.78587E+04
 0.55149998E+02  0.72098E+04
 0.55199997E+02  0.66296E+04
 0.55249996E+02  0.66310E+04
 0.55299995E+02  0.63310E+04
 0.55349998E+02  0.65099E+04
 0.55399998E+02  0.65277E+04
 0.55449997E+02  0.62526E+04
 0.55499996E+02  0.59957E+04
 0.55549995E+02  0.59434E+04
 0.55599998E+02  0.80257E+04
 0.55649998E+02  0.98598E+04
 0.55699997E+02  0.97425E+04
 0.55749996E+02  0.82735E+04
 0.55799995E+02  0.74013E+04
 0.55849995E+02  0.69671E+04
 0.55899998E+02  0.66503E+04
 0.55949997E+02  0.65820E+04
 0.55999996E+02  0.60179E+04
 0.56049995E+02  0.62715E+04
 0.56099995E+02  0.69252E+04
 0.56149998E+02  0.72126E+04
 0.56199997E+02  0.67031E+04
 0.56249996E+02  0.77567E+04
 0.56299995E+02  0.97189E+04
 0.56349995E+02  0.10795E+05
 0.56399998E+02  0.10501E+05
 0.56449997E+02  0.96677E+04
 0.56499996E+02  0.87211E+04
 0.56549995E+02  0.70435E+04
 0.56599995E+02  0.60749E+04
 0.56649998E+02  0.58941E+04
 0.56699997E+02  0.65650E+04
 0.56749996E+02  0.58504E+04
 0.56799995E+02  0.49384E+04
 0.56849995E+02  0.47490E+04
 0.56899998E+02  0.47969E+04
 0.56949997E+02  0.67293E+04
 0.56999996E+02  0.87903E+04
 0.57049995E+02  0.99783E+04
 0.57099995E+02  0.93521E+04
 0.57149998E+02  0.87158E+04
 0.57199997E+02  0.87190E+04
 0.57249996E+02  0.86195E+04
 0.57299995E+02  0.72943E+04
 0.57349995E+02  0.54040E+04
 0.57399998E+02  0.44784E+04
 0.57449997E+02  0.48083E+04
 0.57499996E+02  0.59769E+04
 0.57549995E+02  0.77406E+04
 0.57599995E+02  0.92355E+04
 0.57649998E+02  0.85688E+04
 0.57699997E+02  0.85099E+04
 0.57749996E+02  0.77962E+04
 0.57799995E+02  0.71882E+04
 0.57849995E+02  0.75522E+04
 0.57899998E+02  0.81957E+04
 0.57949997E+02  0.87194E+04
 0.57999996E+02  0.74157E+04
 0.58049995E+02  0.60171E+04
 0.58099995E+02  0.60484E+04
 0.58149998E+02  0.72547E+04
 0.58199997E+02  0.82689E+04
 0.58249996E+02  0.96650E+04
 0.58299995E+02  0.10279E+05
 0.58349995E+02  0.96705E+04
 0.58399998E+02  0.84018E+04
 0.58449997E+02  0.69536E+04
 0.58499996E+02  0.69555E+04
 0.58549995E+02  0.65863E+04
 0.58599995E+02  0.59008E+04
 0.58649998E+02  0.59985E+04
 0.58699997E+02  0.66544E+04
 0.58749996E+02  0.80555E+04
 0.58799995E+02  0.86529E+04
 0.58849995E+02  0.78812E+04
 0.58899998E+02  0.72396E+04
 0.58949997E+02  0.68507E+04
 0.58999996E+02  0.63312E+04
 0.59049995E+02  0.49106E+04
 0.59099995E+02  0.47042E+04
 0.59149998E+02  0.59859E+04
 0.59199997E+02  0.70301E+04
 0.59249996E+02  0.88599E+04
 0.59299995E+02  0.99896E+04
 0.59349995E+02  0.10707E+05
 0.59399998E+02  0.10624E+05
 0.59449997E+02  0.96274E+04
 0.59499996E+02  0.86635E+04
 0.59549995E+02  0.71578E+04
 0.59599995E+02  0.65113E+04
 0.59649998E+02  0.61877E+04
 0.59699997E+02  0.54002E+04
 0.59749996E+02  0.53430E+04
 0.59799995E+02  0.54413E+04
 0.59849995E+02  0.55631E+04
 0.59899998E+02  0.64379E+04
 0.59949997E+02  0.70412E+04
 0.59999996E+02  0.72461E+04
 0.60049995E+02  0.85160E+04
 0.60099995E+02  0.95499E+04
 0.60149998E+02  0.94371E+04
 0.60199997E+02  0.91286E+04
 0.60249996E+02  0.86191E+04
 0.60299995E+02  0.74174E+04
 0.60349995E+02  0.63331E+04
 0.60399998E+02  0.68342E+04
 0.60449997E+02  0.67005E+04
 0.60499996E+02  0.63021E+04
 0.60549995E+02  0.65350E+04
 0.60599995E+02  0.70163E+04
 0.60649998E+02  0.86032E+04
 0.60699997E+02  0.94918E+04
 0.60749996E+02  0.96287E+04
 0.60799995E+02  0.90950E+04
 0.60849995E+02  0.80625E+04
 0.60899998E+02  0.78609E+04
 0.60949997E+02  0.76897E+04
 0.60999996E+02  0.68933E+04
 0.61049995E+02  0.57745E+04
 0.61099995E+02  0.49308E+04
 0.61149998E+02  0.50352E+04
 0.61199997E+02  0.54439E+04
 0.61249996E+02  0.61163E+04
 0.61299995E+02  0.68423E+04
 0.61349995E+02  0.79510E+04
 0.61399998E+02  0.97675E+04
 0.61449997E+02  0.10441E+05
 0.61499996E+02  0.10742E+05
 0.61549995E+02  0.10487E+05
 0.61599995E+02  0.92559E+04
 0.61649998E+02  0.73876E+04
 0.61699997E+02  0.56958E+04
 0.61749996E+02  0.55943E+04
 0.61799995E+02  0.60925E+04
 0.61849995E+02  0.60066E+04
 0.61899998E+02  0.57837E+04
 0.61949997E+02  0.61167E+04
 0.61999996E+02  0.71328E+04
 0.62049995E+02  0.83454E+04
 0.62099998E+02  0.89375E+04
 0.62149994E+02  0.94391E+04
 0.62199997E+02  0.91673E+04
 0.62249992E+02  0.83210E+04
 0.62299995E+02  0.68181E+04
 0.62349998E+02  0.60398E+04
 0.62399994E+02  0.64696E+04
 0.62449997E+02  0.61435E+04
 0.62499992E+02  0.62431E+04
 0.62549995E+02  0.63899E+04
 0.62599998E+02  0.59716E+04
 0.62649994E+02  0.61711E+04
 0.62699997E+02  0.73316E+04
 0.62749992E+02  0.86120E+04
 0.62799995E+02  0.89222E+04
 0.62849998E+02  0.84117E+04
 0.62899994E+02  0.81131E+04
 0.62949997E+02  0.79423E+04
 0.62999992E+02  0.72784E+04
 0.63049995E+02  0.63987E+04
 0.63099998E+02  0.61571E+04
 0.63149994E+02  0.63614E+04
 0.63199997E+02  0.69980E+04
 0.63249992E+02  0.78767E+04
 0.63299995E+02  0.77203E+04
 0.63349998E+02  0.68812E+04
 0.63399994E+02  0.64521E+04
 0.63449997E+02  0.70126E+04
 0.63499992E+02  0.76114E+04
 0.63549995E+02  0.86814E+04
 0.63599998E+02  0.94713E+04
 0.63649994E+02  0.90480E+04
 0.63699997E+02  0.88746E+04
 0.63749992E+02  0.84248E+04
 0.63799995E+02  0.78278E+04
 0.63849998E+02  0.77372E+04
 0.63899994E+02  0.78766E+04
 0.63949997E+02  0.79074E+04
 0.63999992E+02  0.80456E+04
 0.64049995E+02  0.83887E+04
 0.64099998E+02  0.83732E+04
 0.64149994E+02  0.77173E+04
 0.64199997E+02  0.76628E+04
 0.64249992E+02  0.82183E+04
 0.64299995E+02  0.84143E+04
 0.64349998E+02  0.81679E+04
 0.64399994E+02  0.73788E+04
 0.64449997E+02  0.61260E+04
 0.64499992E+02  0.53777E+04
 0.64549995E+02  0.51025E+04
 0.64599998E+02  0.48638E+04
 0.64649994E+02  0.58153E+04
 0.64699997E+02  0.73427E+04
 0.64749992E+02  0.81273E+04
 0.64799995E+02  0.81040E+04
 0.64849998E+02  0.77277E+04
 0.64899994E+02  0.75036E+04
 0.64949997E+02  0.78496E+04
 0.64999992E+02  0.81574E+04
 0.65049995E+02  0.72488E+04
 0.65099998E+02  0.57594E+04
 0.65149994E+02  0.52792E+04
 0.65199997E+02  0.58504E+04
 0.65249992E+02  0.65503E+04
 0.65299995E+02  0.67584E+04
 0.65349998E+02  0.69490E+04
 0.65399994E+02  0.76929E+04
 0.65449997E+02  0.91557E+04
 0.65499992E+02  0.99523E+04
 0.65549995E+02  0.91067E+04
 0.65599998E+02  0.78612E+04
 0.65649994E+02  0.68413E+04
 0.65699997E+02  0.68092E+04
 0.65749992E+02  0.72168E+04
 0.65799995E+02  0.75632E+04
 0.65849998E+02  0.78591E+04
 0.65899994E+02  0.76750E+04
 0.65949997E+02  0.71269E+04
 0.65999992E+02  0.66629E+04
 0.66049995E+02  0.70611E+04
 0.66099998E+02  0.77985E+04
 0.66149994E+02  0.84611E+04
 0.66199997E+02  0.85992E+04
 0.66249992E+02  0.80286E+04
 0.66299995E+02  0.80057E+04
 0.66349998E+02  0.84592E+04
 0.66399994E+02  0.82486E+04
 0.66449997E+02  0.72784E+04
 0.66499992E+02  0.66822E+04
 0.66549995E+02  0.63717E+04
 0.66599998E+02  0.63524E+04
 0.66649994E+02  0.66902E+04
 0.66699997E+02  0.66629E+04
 0.66749992E+02  0.70563E+04
 0.66799995E+02  0.81612E+04
 0.66849998E+02  0.91530E+04
 0.66899994E+02  0.90604E+04
 0.66949997E+02  0.85138E+04
 0.66999992E+02  0.83750E+04
 0.67049995E+02  0.80014E+04
 0.67099998E+02  0.74818E+04
 0.67149994E+02  0.72967E+04
 0.67199997E+02  0.74505E+04
 0.67249992E+02  0.74944E+04
 0.67299995E+02  0.72722E+04
 0.67349998E+02  0.69881E+04
 0.67399994E+02  0.65062E+04
 0.67449997E+02  0.65944E+04
 0.67499992E+02  0.68892E+04
 0.67549995E+02  0.67945E+04
 0.67599998E+02  0.68251E+04
 0.67649994E+02  0.71052E+04
 0.67699997E+02  0.74806E+04
 0.67749992E+02  0.78195E+04
 0.67799995E+02  0.76321E+04
 0.67849998E+02  0.68226E+04
 0.67899994E+02  0.62585E+04
 0.67949997E+02  0.63677E+04
 0.67999992E+02  0.70745E+04
 0.68049995E+02  0.73073E+04
 0.68099998E+02  0.72935E+04
 0.68149994E+02  0.71130E+04
 0.68199997E+02  0.76407E+04
 0.68249992E+02  0.84944E+04
 0.68299995E+02  0.82087E+04
 0.68349998E+02  0.76279E+04
 0.68399994E+02  0.73284E+04
 0.68449997E+02  0.74558E+04
 0.68499992E+02  0.73620E+04
 0.68549995E+02  0.72923E+04
 0.68599998E+02  0.78456E+04
 0.68649994E+02  0.82703E+04
 0.68699997E+02  0.82100E+04
 0.68749992E+02  0.82689E+04
 0.68799995E+02  0.80493E+04
 0.68849998E+02  0.81179E+04
 0.68899994E+02  0.83535E+04
 0.68949997E+02  0.79609E+04
 0.68999992E+02  0.79085E+04
 0.69049995E+02  0.81503E+04
 0.69099998E+02  0.79660E+04
 0.69149994E+02  0.78268E+04
 0.69199997E+02  0.77560E+04
 0.69249992E+02  0.70273E+04
 0.69299995E+02  0.64413E+04
 0.69349998E+02  0.64390E+04
 0.69399994E+02  0.67079E+04
 0.69449997E+02  0.71753E+04
 0.69499992E+02  0.76304E+04
 0.69549995E+02  0.81731E+04
 0.69599998E+02  0.85212E+04
 0.69649994E+02  0.81029E+04
 0.69699997E+02  0.71838E+04
 0.69749992E+02  0.63588E+04
 0.69799995E+02  0.58655E+04
 0.69849998E+02  0.62021E+04
 0.69899994E+02  0.64705E+04
 0.69949997E+02  0.61198E+04
 0.69999992E+02  0.62355E+04
 0.70049995E+02  0.70715E+04
 0.70099998E+02  0.81510E+04
 0.70149994E+02  0.85309E+04
 0.70199997E+02  0.83628E+04
 0.70249992E+02  0.78271E+04
 0.70299995E+02  0.74255E+04
 0.70349998E+02  0.75169E+04
 0.70399994E+02  0.76422E+04
 0.70449997E+02  0.75558E+04
 0.70499992E+02  0.73099E+04
 0.70549995E+02  0.73100E+04
 0.70599998E+02  0.71791E+04
 0.70649994E+02  0.69318E+04
 0.70699997E+02  0.68505E+04
 0.70749992E+02  0.69487E+04
 0.70799995E+02  0.73113E+04
 0.70849998E+02  0.77507E+04
 0.70899994E+02  0.81258E+04
 0.70949997E+02  0.85287E+04
 0.70999992E+02  0.87179E+04
 0.71049995E+02  0.87053E+04
 0.71099998E+02  0.81999E+04
 0.71149994E+02  0.75261E+04
 0.71199997E+02  0.71491E+04
 0.71249992E+02  0.67845E+04
 0.71299995E+02  0.62109E+04
 0.71349998E+02  0.59362E+04
 0.71399994E+02  0.65634E+04
 0.71449997E+02  0.70360E+04
 0.71499992E+02  0.73348E+04
 0.71549995E+02  0.79284E+04
 0.71599998E+02  0.82829E+04
 0.71649994E+02  0.81450E+04
 0.71699997E+02  0.82303E+04
 0.71749992E+02  0.81255E+04
 0.71799995E+02  0.77302E+04
 0.71849998E+02  0.78593E+04
 0.71899994E+02  0.79164E+04
 0.71949997E+02  0.79614E+04
 0.71999992E+02  0.77663E+04
 0.72049995E+02  0.75544E+04
 0.72099998E+02  0.77989E+04
 0.72149994E+02  0.79571E+04
 0.72199997E+02  0.79554E+04
 0.72249992E+02  0.78861E+04
 0.72299995E+02  0.78771E+04
 0.72349998E+02  0.75662E+04
 0.72399994E+02  0.70805E+04
 0.72449997E+02  0.70313E+04
 0.72499992E+02  0.66731E+04
 0.72549995E+02  0.61508E+04
 0.72599998E+02  0.61902E+04
 0.72649994E+02  0.65123E+04
 0.72699997E+02  0.70042E+04
 0.72749992E+02  0.76458E+04
 0.72799995E+02  0.81069E+04
 0.72849998E+02  0.81780E+04
 0.72899994E+02  0.80266E+04
 0.72949997E+02  0.79062E+04
 0.72999992E+02  0.81913E+04
 0.73049995E+02  0.85644E+04
 0.73099998E+02  0.82813E+04
 0.73149994E+02  0.76917E+04
 0.73199997E+02  0.76077E+04
 0.73249992E+02  0.75788E+04
 0.73299995E+02  0.69420E+04
 0.73349998E+02  0.65631E+04
 0.73399994E+02  0.67862E+04
 0.73449997E+02  0.69693E+04
 0.73499992E+02  0.71695E+04
 0.73549995E+02  0.75197E+04
 0.73599998E+02  0.74905E+04
 0.73649994E+02  0.73951E+04
 0.73699997E+02  0.76104E+04
 0.73749992E+02  0.73574E+04
 0.73799995E+02  0.69468E+04
 0.73849998E+02  0.73359E+04
 0.73899994E+02  0.82674E+04
 0.73949997E+02  0.85296E+04
 0.73999992E+02  0.81102E+04
 0.74049995E+02  0.75428E+04
 0.74099998E+02  0.69953E+04
 0.74149994E+02  0.67519E+04
 0.74199997E+02  0.65647E+04
 0.74249992E+02  0.68540E+04
 0.74299995E+02  0.73425E+04
 0.74349998E+02  0.74821E+04
 0.74399994E+02  0.73074E+04
 0.74449997E+02  0.69015E+04
 0.74499992E+02  0.73052E+04
 0.74549995E+02  0.77997E+04
 0.74599998E+02  0.76305E+04
 0.74649994E+02  0.72421E+04
 0.74699997E+02  0.70763E+04
 0.74749992E+02  0.71954E+04
 0.74799995E+02  0.73453E+04
 0.74849998E+02  0.73167E+04
 0.74899994E+02  0.72252E+04
 0.74949997E+02  0.74864E+04
 0.74999992E+02  0.79851E+04
 0.75049995E+02  0.83391E+04
 0.75099998E+02  0.81762E+04
 0.75149994E+02  0.77361E+04
 0.75199997E+02  0.74499E+04
 0.75249992E+02  0.76825E+04
 0.75299995E+02  0.78884E+04
 0.75349998E+02  0.78571E+04
 0.75399994E+02  0.76674E+04
 0.75449997E+02  0.75938E+04
 0.75499992E+02  0.77144E+04
 0.75549995E+02  0.75817E+04
 0.75599998E+02  0.74895E+04
 0.75649994E+02  0.77302E+04
 0.75699997E+02  0.76127E+04
 0.75749992E+02  0.70275E+04
 0.75799995E+02  0.67429E+04
 0.75849998E+02  0.65422E+04
 0.75899994E+02  0.66423E+04
 0.75949997E+02  0.70938E+04
 0.75999992E+02  0.75422E+04
 0.76049995E+02  0.78454E+04
 0.76099998E+02  0.78592E+04
 0.76149994E+02  0.74044E+04
 0.76199997E+02  0.69845E+04
 0.76249992E+02  0.69725E+04
 0.76299995E+02  0.69702E+04
 0.76349998E+02  0.71749E+04
 0.76399994E+02  0.72715E+04
 0.76449997E+02  0.71317E+04
 0.76499992E+02  0.72607E+04
 0.76549995E+02  0.76177E+04
 0.76599998E+02  0.76326E+04
 0.76649994E+02  0.76098E+04
 0.76699997E+02  0.78133E+04
 0.76749992E+02  0.78308E+04
 0.76799995E+02  0.78166E+04
 0.76849998E+02  0.76919E+04
 0.76899994E+02  0.75870E+04
 0.76949997E+02  0.76653E+04
 0.76999992E+02  0.79373E+04
 0.77049995E+02  0.82841E+04
 0.77099998E+02  0.84460E+04
 0.77149994E+02  0.82943E+04
 0.77199997E+02  0.79548E+04
 0.77249992E+02  0.76005E+04
 0.77299995E+02  0.73410E+04
 0.77349998E+02  0.70445E+04
 0.77399994E+02  0.66779E+04
 0.77449997E+02  0.63911E+04
 0.77499992E+02  0.65561E+04
 0.77549995E+02  0.70779E+04
 0.77599998E+02  0.71620E+04
 0.77649994E+02  0.71944E+04
 0.77699997E+02  0.74141E+04
 0.77749992E+02  0.75635E+04
 0.77799995E+02  0.76767E+04
 0.77849998E+02  0.76627E+04
 0.77899994E+02  0.74361E+04
 0.77949997E+02  0.74886E+04
 0.77999992E+02  0.78504E+04
 0.78049995E+02  0.81262E+04
 0.78099998E+02  0.83140E+04
 0.78149994E+02  0.80344E+04
 0.78199997E+02  0.77927E+04
 0.78249992E+02  0.77379E+04
 0.78299995E+02  0.73792E+04
 0.78349998E+02  0.68588E+04
 0.78399994E+02  0.66155E+04
 0.78449997E+02  0.69499E+04
 0.78499992E+02  0.72849E+04
 0.78549995E+02  0.75615E+04
 0.78599998E+02  0.78955E+04
 0.78649994E+02  0.81189E+04
 0.78699997E+02  0.81642E+04
 0.78749992E+02  0.81529E+04
 0.78799995E+02  0.82391E+04
 0.78849998E+02  0.81676E+04
 0.78899994E+02  0.77481E+04
 0.78949997E+02  0.74993E+04
 0.78999992E+02  0.77557E+04
 0.79049995E+02  0.77911E+04
 0.79099998E+02  0.75626E+04
 0.79149994E+02  0.74127E+04
 0.79199997E+02  0.73385E+04
 0.79249992E+02  0.73613E+04
 0.79299995E+02  0.71079E+04
 0.79349998E+02  0.66227E+04
 0.79399994E+02  0.65987E+04
 0.79449997E+02  0.69955E+04
 0.79499992E+02  0.70562E+04
 0.79549995E+02  0.68959E+04
 0.79599998E+02  0.68389E+04
 0.79649994E+02  0.68304E+04
 0.79699997E+02  0.68030E+04
 0.79749992E+02  0.66879E+04
 0.79799995E+02  0.67320E+04
 0.79849998E+02  0.70131E+04
 0.79899994E+02  0.74021E+04
 0.79949997E+02  0.76313E+04
 0.79999992E+02  0.77772E+04
 0.80049995E+02  0.83663E+04
 0.80099998E+02  0.88861E+04
 0.80149994E+02  0.87569E+04
 0.80199997E+02  0.83334E+04
 0.80249992E+02  0.78809E+04
 0.80299995E+02  0.75620E+04
 0.80349998E+02  0.72595E+04
 0.80399994E+02  0.69134E+04
 0.80449997E+02  0.67441E+04
 0.80499992E+02  0.70561E+04
 0.80549995E+02  0.75142E+04
 0.80599998E+02  0.77482E+04
 0.80649994E+02  0.77812E+04
 0.80699997E+02  0.78231E+04
 0.80749992E+02  0.79229E+04
 0.80799995E+02  0.77462E+04
 0.80849998E+02  0.73832E+04
 0.80899994E+02  0.69151E+04
 0.80949997E+02  0.66922E+04
 0.80999992E+02  0.67961E+04
 0.81049995E+02  0.71578E+04
 0.81099998E+02  0.74139E+04
 0.81149994E+02  0.73925E+04
 0.81199997E+02  0.74456E+04
 0.81249992E+02  0.75084E+04
 0.81299995E+02  0.74866E+04
 0.81349998E+02  0.72801E+04
 0.81399994E+02  0.69580E+04
 0.81449997E+02  0.67492E+04
 0.81499992E+02  0.68556E+04
 0.81549995E+02  0.70728E+04
 0.81599998E+02  0.75824E+04
 0.81649994E+02  0.80786E+04
 0.81699997E+02  0.80683E+04
 0.81749992E+02  0.78785E+04
 0.81799995E+02  0.76615E+04
 0.81849998E+02  0.74160E+04
 0.81899994E+02  0.74022E+04
 0.81949997E+02  0.76358E+04
 0.81999992E+02  0.78199E+04
 0.82049995E+02  0.80417E+04
 0.82099998E+02  0.81496E+04
 0.82149994E+02  0.80267E+04
 0.82199997E+02  0.77852E+04
 0.82249992E+02  0.74506E+04
 0.82299995E+02  0.70890E+04
 0.82349998E+02  0.70582E+04
 0.82399994E+02  0.73355E+04
 0.82449997E+02  0.75574E+04
 0.82499992E+02  0.76092E+04
 0.82549995E+02  0.76958E+04
 0.82599998E+02  0.77586E+04
 0.82649994E+02  0.77085E+04
 0.82699997E+02  0.77536E+04
 0.82749992E+02  0.78527E+04
 0.82799995E+02  0.79874E+04
 0.82849998E+02  0.79785E+04
 0.82899994E+02  0.78808E+04
 0.82949997E+02  0.78813E+04
 0.82999992E+02  0.76177E+04
 0.83049995E+02  0.71022E+04
 0.83099998E+02  0.67004E+04
 0.83149994E+02  0.63737E+04
 0.83199997E+02  0.62690E+04
 0.83249992E+02  0.63881E+04
 0.83299995E+02  0.67289E+04
 0.83349998E+02  0.72107E+04
 0.83399994E+02  0.75459E+04
 0.83449997E+02  0.77680E+04
 0.83499992E+02  0.80980E+04
 0.83549995E+02  0.84846E+04
 0.83599998E+02  0.84920E+04
 0.83649994E+02  0.81790E+04
 0.83699997E+02  0.76421E+04
 0.83749992E+02  0.72218E+04
 0.83799995E+02  0.71187E+04
 0.83849998E+02  0.70082E+04
 0.83899994E+02  0.69647E+04
 0.83949997E+02  0.69110E+04
 0.83999992E+02  0.69919E+04
 0.84049995E+02  0.72352E+04
 0.84099998E+02  0.73689E+04
 0.84149994E+02  0.74383E+04
 0.84199997E+02  0.76402E+04
 0.84249992E+02  0.80414E+04
 0.84299995E+02  0.82886E+04
 0.84349998E+02  0.83077E+04
 0.84399994E+02  0.79376E+04
 0.84449997E+02  0.74944E+04
 0.84499992E+02  0.74663E+04
 0.84549995E+02  0.73573E+04
 0.84599998E+02  0.71962E+04
 0.84649994E+02  0.69971E+04
 0.84699997E+02  0.67091E+04
 0.84749992E+02  0.65535E+04
 0.84799995E+02  0.66563E+04
 0.84849998E+02  0.69176E+04
 0.84899994E+02  0.71123E+04
 0.84949997E+02  0.74538E+04
 0.84999992E+02  0.79332E+04
 0.85049995E+02  0.85521E+04
 0.85099998E+02  0.89646E+04
 0.85149994E+02  0.88806E+04
 0.85199997E+02  0.84987E+04
 0.85249992E+02  0.81335E+04
 0.85299995E+02  0.78262E+04
 0.85349998E+02  0.76760E+04
 0.85399994E+02  0.76744E+04
 0.85449997E+02  0.75977E+04
 0.85499992E+02  0.74575E+04
 0.85549995E+02  0.73856E+04
 0.85599998E+02  0.73839E+04
 0.85649994E+02  0.72248E+04
 0.85699997E+02  0.72195E+04
 0.85749992E+02  0.72831E+04
 0.85799995E+02  0.71515E+04
 0.85849998E+02  0.70831E+04
 0.85899994E+02  0.71597E+04
 0.85949997E+02  0.69783E+04
 0.85999992E+02  0.66352E+04
 0.86049995E+02  0.64471E+04
 0.86099998E+02  0.65111E+04
 0.86149994E+02  0.68028E+04
 0.86199997E+02  0.70920E+04
 0.86249992E+02  0.73091E+04
 0.86299995E+02  0.75034E+04
 0.86349998E+02  0.75639E+04
 0.86399994E+02  0.74459E+04
 0.86449997E+02  0.72538E+04
 0.86499992E+02  0.72567E+04
 0.86549995E+02  0.73196E+04
 0.86599998E+02  0.72950E+04
 0.86649994E+02  0.74380E+04
 0.86699997E+02  0.76404E+04
 0.86749992E+02  0.79472E+04
 0.86799995E+02  0.82461E+04
 0.86849998E+02  0.83391E+04
 0.86899994E+02  0.82564E+04
 0.86949997E+02  0.81568E+04
 0.86999992E+02  0.79966E+04
 0.87049995E+02  0.78455E+04
 0.87099998E+02  0.76716E+04
 0.87149994E+02  0.74505E+04
 0.87199997E+02  0.74334E+04
 0.87249992E+02  0.74984E+04
 0.87299995E+02  0.74804E+04
 0.87349998E+02  0.73261E+04
 0.87399994E+02  0.72206E+04
 0.87449997E+02  0.74592E+04
 0.87499992E+02  0.78579E+04
 0.87549995E+02  0.79791E+04
 0.87599991E+02  0.79704E+04
 0.87649994E+02  0.77563E+04
 0.87699997E+02  0.73828E+04
 0.87749992E+02  0.72379E+04
 0.87799995E+02  0.73140E+04
 0.87849991E+02  0.74334E+04
 0.87899994E+02  0.74650E+04
 0.87949997E+02  0.74078E+04
 0.87999992E+02  0.73354E+04
 0.88049995E+02  0.74128E+04
 0.88099991E+02  0.74308E+04
 0.88149994E+02  0.73265E+04
 0.88199997E+02  0.71611E+04
 0.88249992E+02  0.70524E+04
 0.88299995E+02  0.71058E+04
 0.88349991E+02  0.70298E+04
 0.88399994E+02  0.69876E+04
 0.88449997E+02  0.70426E+04
 0.88499992E+02  0.71115E+04
 0.88549995E+02  0.71582E+04
 0.88599991E+02  0.72280E+04
 0.88649994E+02  0.74906E+04
 0.88699997E+02  0.74771E+04
 0.88749992E+02  0.73369E+04
 0.88799995E+02  0.73282E+04
 0.88849991E+02  0.73902E+04
 0.88899994E+02  0.74784E+04
 0.88949997E+02  0.75906E+04
 0.88999992E+02  0.77469E+04
 0.89049995E+02  0.77706E+04
 0.89099991E+02  0.78104E+04
 0.89149994E+02  0.77381E+04
 0.89199997E+02  0.75320E+04
 0.89249992E+02  0.74960E+04
 0.89299995E+02  0.75422E+04
 0.89349991E+02  0.74502E+04
 0.89399994E+02  0.74474E+04
 0.89449997E+02  0.76274E+04
 0.89499992E+02  0.77268E+04
 0.89549995E+02  0.76846E+04
 0.89599991E+02  0.74993E+04
 0.89649994E+02  0.71636E+04
 0.89699997E+02  0.68707E+04
 0.89749992E+02  0.69954E+04
 0.89799995E+02  0.73716E+04
 0.89849991E+02  0.75938E+04
 0.89899994E+02  0.76881E+04
 0.89949997E+02  0.77084E+04
 0.89999992E+02  0.77514E+04
 0.90049995E+02  0.77790E+04
 0.90099991E+02  0.78358E+04
 0.90149994E+02  0.77480E+04
 0.90199997E+02  0.74207E+04
 0.90249992E+02  0.72222E+04
 0.90299995E+02  0.71226E+04
 0.90349991E+02  0.72035E+04
 0.90399994E+02  0.74618E+04
 0.90449997E+02  0.76427E+04
 0.90499992E+02  0.76924E+04
 0.90549995E+02  0.76903E+04
 0.90599991E+02  0.76687E+04
 0.90649994E+02  0.76444E+04
 0.90699997E+02  0.76939E+04
 0.90749992E+02  0.76968E+04
 0.90799995E+02  0.76972E+04
 0.90849991E+02  0.78481E+04
 0.90899994E+02  0.79034E+04
 0.90949997E+02  0.77262E+04
 0.90999992E+02  0.74756E+04
 0.91049995E+02  0.73183E+04
 0.91099991E+02  0.73727E+04
 0.91149994E+02  0.74931E+04
 0.91199997E+02  0.75320E+04
 0.91249992E+02  0.74588E+04
 0.91299995E+02  0.74197E+04
 0.91349991E+02  0.74331E+04
 0.91399994E+02  0.74426E+04
 0.91449997E+02  0.74805E+04
 0.91499992E+02  0.74963E+04
 0.91549995E+02  0.74743E+04
 0.91599991E+02  0.73965E+04
 0.91649994E+02  0.72117E+04
 0.91699997E+02  0.70637E+04
 0.91749992E+02  0.69698E+04
 0.91799995E+02  0.69205E+04
 0.91849991E+02  0.70619E+04
 0.91899994E+02  0.71820E+04
 0.91949997E+02  0.72377E+04
 0.91999992E+02  0.73461E+04
 0.92049995E+02  0.75452E+04
 0.92099991E+02  0.76202E+04
 0.92149994E+02  0.76359E+04
 0.92199997E+02  0.76957E+04
 0.92249992E+02  0.78161E+04
 0.92299995E+02  0.79847E+04
 0.92349991E+02  0.79537E+04
 0.92399994E+02  0.78431E+04
 0.92449997E+02  0.77418E+04
 0.92499992E+02  0.76000E+04
 0.92549995E+02  0.74394E+04
 0.92599991E+02  0.74708E+04
 0.92649994E+02  0.75870E+04
 0.92699997E+02  0.75906E+04
 0.92749992E+02  0.74690E+04
 0.92799995E+02  0.72812E+04
 0.92849991E+02  0.70882E+04
 0.92899994E+02  0.70644E+04
 0.92949997E+02  0.72795E+04
 0.92999992E+02  0.74348E+04
 0.93049995E+02  0.74864E+04
 0.93099991E+02  0.75318E+04
 0.93149994E+02  0.75943E+04
 0.93199997E+02  0.76798E+04
 0.93249992E+02  0.76602E+04
 0.93299995E+02  0.76254E+04
 0.93349991E+02  0.77528E+04
 0.93399994E+02  0.77634E+04
 0.93449997E+02  0.76594E+04
 0.93499992E+02  0.75470E+04
 0.93549995E+02  0.75248E+04
 0.93599991E+02  0.75243E+04
 0.93649994E+02  0.73489E+04
 0.93699997E+02  0.72126E+04
 0.93749992E+02  0.71812E+04
 0.93799995E+02  0.72300E+04
 0.93849991E+02  0.74161E+04
 0.93899994E+02  0.76776E+04
 0.93949997E+02  0.77850E+04
 0.93999992E+02  0.76710E+04
 0.94049995E+02  0.75758E+04
 0.94099991E+02  0.75917E+04
 0.94149994E+02  0.75479E+04
 0.94199997E+02  0.74178E+04
 0.94249992E+02  0.73667E+04
 0.94299995E+02  0.73707E+04
 0.94349991E+02  0.72736E+04
 0.94399994E+02  0.70972E+04
 0.94449997E+02  0.68858E+04
 0.94499992E+02  0.67726E+04
 0.94549995E+02  0.68118E+04
 0.94599991E+02  0.69376E+04
 0.94649994E+02  0.72521E+04
 0.94699997E+02  0.77450E+04
 0.94749992E+02  0.81304E+04
 0.94799995E+02  0.83801E+04
 0.94849991E+02  0.84389E+04
 0.94899994E+02  0.82164E+04
 0.94949997E+02  0.77959E+04
 0.94999992E+02  0.73178E+04
 0.95049995E+02  0.70057E+04
 0.95099991E+02  0.68273E+04
 0.95149994E+02  0.68108E+04
 0.95199997E+02  0.70063E+04
 0.95249992E+02  0.71117E+04
 0.95299995E+02  0.72407E+04
 0.95349991E+02  0.75538E+04
 0.95399994E+02  0.77676E+04
 0.95449997E+02  0.78852E+04
 0.95499992E+02  0.79390E+04
 0.95549995E+02  0.79608E+04
 0.95599991E+02  0.78223E+04
 0.95649994E+02  0.76614E+04
 0.95699997E+02  0.75181E+04
 0.95749992E+02  0.72704E+04
 0.95799995E+02  0.69951E+04
 0.95849991E+02  0.68444E+04
 0.95899994E+02  0.68367E+04
 0.95949997E+02  0.69255E+04
 0.95999992E+02  0.71055E+04
 0.96049995E+02  0.73088E+04
 0.96099991E+02  0.76732E+04
 0.96149994E+02  0.79689E+04
 0.96199997E+02  0.81469E+04
 0.96249992E+02  0.82303E+04
 0.96299995E+02  0.81897E+04
 0.96349991E+02  0.80618E+04
 0.96399994E+02  0.78027E+04
 0.96449997E+02  0.75468E+04
 0.96499992E+02  0.73801E+04
 0.96549995E+02  0.72778E+04
 0.96599991E+02  0.71377E+04
 0.96649994E+02  0.70205E+04
 0.96699997E+02  0.69686E+04
 0.96749992E+02  0.69273E+04
 0.96799995E+02  0.70056E+04
 0.96849991E+02  0.71458E+04
 0.96899994E+02  0.72869E+04
 0.96949997E+02  0.74487E+04
 0.96999992E+02  0.75000E+04
 0.97049995E+02  0.75092E+04
 0.97099991E+02  0.74886E+04
 0.97149994E+02  0.74585E+04
 0.97199997E+02  0.75364E+04
 0.97249992E+02  0.76766E+04
 0.97299995E+02  0.78320E+04
 0.97349991E+02  0.79774E+04
 0.97399994E+02  0.81407E+04
 0.97449997E+02  0.81592E+04
 0.97499992E+02  0.81470E+04
 0.97549995E+02  0.80538E+04
 0.97599991E+02  0.76779E+04
 0.97649994E+02  0.72393E+04
 0.97699997E+02  0.70094E+04
 0.97749992E+02  0.71214E+04
 0.97799995E+02  0.72558E+04
 0.97849991E+02  0.72747E+04
 0.97899994E+02  0.70991E+04
 0.97949997E+02  0.69232E+04
 0.97999992E+02  0.69708E+04
