-0.19969940E+01  0.23300E+05
-0.19469941E+01  0.23166E+05
-0.18969940E+01  0.23259E+05
-0.18469940E+01  0.23245E+05
-0.17969940E+01  0.23241E+05
-0.17469940E+01  0.23244E+05
-0.16969941E+01  0.23236E+05
-0.16469941E+01  0.23227E+05
-0.15969940E+01  0.23223E+05
-0.15469940E+01  0.23223E+05
-0.14969940E+01  0.23224E+05
-0.14469941E+01  0.23220E+05
-0.13969941E+01  0.23207E+05
-0.13469940E+01  0.23192E+05
-0.12969941E+01  0.23180E+05
-0.12469940E+01  0.23168E+05
-0.11969941E+01  0.23158E+05
-0.11469941E+01  0.23154E+05
-0.10969940E+01  0.23153E+05
-0.10469941E+01  0.23158E+05
-0.99699408E+00  0.23165E+05
-0.94699407E+00  0.23178E+05
-0.89699411E+00  0.23197E+05
-0.84699404E+00  0.23213E+05
-0.79699409E+00  0.23229E+05
-0.74699414E+00  0.23239E+05
-0.69699407E+00  0.23252E+05
-0.64699411E+00  0.23268E+05
-0.59699416E+00  0.23286E+05
-0.54699409E+00  0.23294E+05
-0.49699414E+00  0.23296E+05
-0.44699407E+00  0.23302E+05
-0.39699411E+00  0.23304E+05
-0.34699416E+00  0.23305E+05
-0.29699409E+00  0.23290E+05
-0.24699414E+00  0.23263E+05
-0.19699407E+00  0.23235E+05
-0.14699411E+00  0.23214E+05
-0.96994162E-01  0.23205E+05
-0.46994090E-01  0.23196E+05
 0.30058622E-02  0.23191E+05
 0.53005934E-01  0.23190E+05
 0.10300589E+00  0.23191E+05
 0.15300584E+00  0.23200E+05
 0.20300579E+00  0.23208E+05
 0.25300574E+00  0.23224E+05
 0.30300593E+00  0.23236E+05
 0.35300589E+00  0.23234E+05
 0.40300584E+00  0.23241E+05
 0.45300579E+00  0.23243E+05
 0.50300574E+00  0.23240E+05
 0.55300593E+00  0.23238E+05
 0.60300589E+00  0.23232E+05
 0.65300584E+00  0.23229E+05
 0.70300579E+00  0.23226E+05
 0.75300574E+00  0.23223E+05
 0.80300570E+00  0.23220E+05
 0.85300589E+00  0.23212E+05
 0.90300584E+00  0.23209E+05
 0.95300579E+00  0.23204E+05
 0.10030057E+01  0.23205E+05
 0.10530057E+01  0.23210E+05
 0.11030059E+01  0.23204E+05
 0.11530058E+01  0.23204E+05
 0.12030058E+01  0.23205E+05
 0.12530057E+01  0.23209E+05
 0.13030057E+01  0.23210E+05
 0.13530059E+01  0.23206E+05
 0.14030058E+01  0.23209E+05
 0.14530058E+01  0.23222E+05
 0.15030057E+01  0.23227E+05
 0.15530057E+01  0.23233E+05
 0.16030059E+01  0.23248E+05
 0.16530058E+01  0.23258E+05
 0.17030058E+01  0.23263E+05
 0.17530057E+01  0.23268E+05
 0.18030057E+01  0.23266E+05
 0.18530056E+01  0.23267E+05
 0.19030058E+01  0.23270E+05
 0.19530058E+01  0.23286E+05
 0.20030057E+01  0.23303E+05
 0.20530057E+01  0.23311E+05
 0.21030059E+01  0.23314E+05
 0.21530056E+01  0.23307E+05
 0.22030058E+01  0.23299E+05
 0.22530055E+01  0.23284E+05
 0.23030057E+01  0.23270E+05
 0.23530059E+01  0.23260E+05
 0.24030056E+01  0.23242E+05
 0.24530058E+01  0.23234E+05
 0.25030055E+01  0.23224E+05
 0.25530057E+01  0.23221E+05
 0.26030059E+01  0.23233E+05
 0.26530056E+01  0.23232E+05
 0.27030058E+01  0.23228E+05
 0.27530055E+01  0.23217E+05
 0.28030057E+01  0.23211E+05
 0.28530059E+01  0.23201E+05
 0.29030056E+01  0.23195E+05
 0.29530058E+01  0.23191E+05
 0.30030055E+01  0.23183E+05
 0.30530057E+01  0.23182E+05
 0.31030059E+01  0.23173E+05
 0.31530056E+01  0.23173E+05
 0.32030058E+01  0.23172E+05
 0.32530055E+01  0.23173E+05
 0.33030057E+01  0.23183E+05
 0.33530059E+01  0.23194E+05
 0.34030056E+01  0.23205E+05
 0.34530058E+01  0.23211E+05
 0.35030055E+01  0.23213E+05
 0.35530057E+01  0.23221E+05
 0.36030054E+01  0.23223E+05
 0.36530056E+01  0.23227E+05
 0.37030058E+01  0.23233E+05
 0.37530055E+01  0.23228E+05
 0.38030057E+01  0.23233E+05
 0.38530054E+01  0.23238E+05
 0.39030056E+01  0.23243E+05
 0.39530058E+01  0.23253E+05
 0.40030055E+01  0.23258E+05
 0.40530057E+01  0.23259E+05
 0.41030054E+01  0.23253E+05
 0.41530056E+01  0.23239E+05
 0.42030058E+01  0.23229E+05
 0.42530055E+01  0.23215E+05
 0.43030057E+01  0.23198E+05
 0.43530054E+01  0.23188E+05
 0.44030056E+01  0.23188E+05
 0.44530058E+01  0.23200E+05
 0.45030055E+01  0.23208E+05
 0.45530057E+01  0.23218E+05
 0.46030054E+01  0.23224E+05
 0.46530056E+01  0.23230E+05
 0.47030058E+01  0.23238E+05
 0.47530055E+01  0.23235E+05
 0.48030057E+01  0.23240E+05
 0.48530054E+01  0.23237E+05
 0.49030056E+01  0.23237E+05
 0.49530058E+01  0.23241E+05
 0.50030055E+01  0.23242E+05
 0.50530057E+01  0.23246E+05
 0.51030054E+01  0.23240E+05
 0.51530056E+01  0.23228E+05
 0.52030058E+01  0.23212E+05
 0.52530055E+01  0.23213E+05
 0.53030057E+01  0.23220E+05
 0.53530054E+01  0.23226E+05
 0.54030056E+01  0.23243E+05
 0.54530053E+01  0.23262E+05
 0.55030055E+01  0.23278E+05
 0.55530057E+01  0.23279E+05
 0.56030054E+01  0.23271E+05
 0.56530056E+01  0.23271E+05
 0.57030053E+01  0.23274E+05
 0.57530055E+01  0.23280E+05
 0.58030057E+01  0.23284E+05
 0.58530054E+01  0.23289E+05
 0.59030056E+01  0.23288E+05
 0.59530053E+01  0.23275E+05
 0.60030055E+01  0.23265E+05
 0.60530052E+01  0.23260E+05
 0.61030054E+01  0.23260E+05
 0.61530056E+01  0.23256E+05
 0.62030058E+01  0.23245E+05
 0.62530050E+01  0.23237E+05
 0.63030052E+01  0.23226E+05
 0.63530054E+01  0.23222E+05
 0.64030056E+01  0.23224E+05
 0.64530058E+01  0.23231E+05
 0.65030050E+01  0.23227E+05
 0.65530052E+01  0.23218E+05
 0.66030054E+01  0.23205E+05
 0.66530056E+01  0.23193E+05
 0.67030058E+01  0.23191E+05
 0.67530050E+01  0.23192E+05
 0.68030052E+01  0.23191E+05
 0.68530054E+01  0.23191E+05
 0.69030056E+01  0.23189E+05
 0.69530058E+01  0.23182E+05
 0.70030050E+01  0.23187E+05
 0.70530052E+01  0.23191E+05
 0.71030054E+01  0.23205E+05
 0.71530056E+01  0.23211E+05
 0.72030058E+01  0.23209E+05
 0.72530050E+01  0.23206E+05
 0.73030052E+01  0.23201E+05
 0.73530054E+01  0.23196E+05
 0.74030056E+01  0.23192E+05
 0.74530058E+01  0.23195E+05
 0.75030050E+01  0.23199E+05
 0.75530052E+01  0.23212E+05
 0.76030054E+01  0.23221E+05
 0.76530056E+01  0.23225E+05
 0.77030058E+01  0.23224E+05
 0.77530050E+01  0.23221E+05
 0.78030052E+01  0.23217E+05
 0.78530054E+01  0.23216E+05
 0.79030056E+01  0.23217E+05
 0.79530058E+01  0.23222E+05
 0.80030050E+01  0.23226E+05
 0.80530052E+01  0.23226E+05
 0.81030054E+01  0.23219E+05
 0.81530056E+01  0.23217E+05
 0.82030058E+01  0.23220E+05
 0.82530050E+01  0.23216E+05
 0.83030052E+01  0.23224E+05
 0.83530054E+01  0.23233E+05
 0.84030056E+01  0.23236E+05
 0.84530058E+01  0.23232E+05
 0.85030050E+01  0.23226E+05
 0.85530052E+01  0.23227E+05
 0.86030054E+01  0.23233E+05
 0.86530056E+01  0.23246E+05
 0.87030058E+01  0.23257E+05
 0.87530050E+01  0.23270E+05
 0.88030052E+01  0.23279E+05
 0.88530054E+01  0.23285E+05
 0.89030056E+01  0.23288E+05
 0.89530058E+01  0.23283E+05
 0.90030050E+01  0.23277E+05
 0.90530052E+01  0.23272E+05
 0.91030054E+01  0.23272E+05
 0.91530056E+01  0.23276E+05
 0.92030048E+01  0.23274E+05
 0.92530050E+01  0.23267E+05
 0.93030052E+01  0.23263E+05
 0.93530054E+01  0.23255E+05
 0.94030056E+01  0.23254E+05
 0.94530048E+01  0.23251E+05
 0.95030050E+01  0.23238E+05
 0.95530052E+01  0.23220E+05
 0.96030054E+01  0.23209E+05
 0.96530056E+01  0.23203E+05
 0.97030048E+01  0.23204E+05
 0.97530050E+01  0.23207E+05
 0.98030052E+01  0.23210E+05
 0.98530054E+01  0.23214E+05
 0.99030056E+01  0.23219E+05
 0.99530048E+01  0.23225E+05
 0.10003005E+02  0.23224E+05
 0.10053005E+02  0.23224E+05
 0.10103005E+02  0.23217E+05
 0.10153006E+02  0.23216E+05
 0.10203005E+02  0.23209E+05
 0.10253005E+02  0.23204E+05
 0.10303005E+02  0.23198E+05
 0.10353005E+02  0.23192E+05
 0.10403006E+02  0.23199E+05
 0.10453005E+02  0.23208E+05
 0.10503005E+02  0.23220E+05
 0.10553005E+02  0.23224E+05
 0.10603005E+02  0.23226E+05
 0.10653006E+02  0.23222E+05
 0.10703005E+02  0.23224E+05
 0.10753005E+02  0.23230E+05
 0.10803005E+02  0.23221E+05
 0.10853005E+02  0.23207E+05
 0.10903006E+02  0.23193E+05
 0.10953005E+02  0.23191E+05
 0.11003005E+02  0.23196E+05
 0.11053005E+02  0.23207E+05
 0.11103005E+02  0.23222E+05
 0.11153006E+02  0.23239E+05
 0.11203005E+02  0.23247E+05
 0.11253005E+02  0.23248E+05
 0.11303005E+02  0.23248E+05
 0.11353005E+02  0.23246E+05
 0.11403006E+02  0.23243E+05
 0.11453005E+02  0.23241E+05
 0.11503005E+02  0.23241E+05
 0.11553005E+02  0.23239E+05
 0.11603005E+02  0.23242E+05
 0.11653006E+02  0.23238E+05
 0.11703005E+02  0.23222E+05
 0.11753005E+02  0.23213E+05
 0.11803005E+02  0.23209E+05
 0.11853005E+02  0.23218E+05
 0.11903006E+02  0.23225E+05
 0.11953005E+02  0.23225E+05
 0.12003005E+02  0.23222E+05
 0.12053005E+02  0.23216E+05
 0.12103005E+02  0.23211E+05
 0.12153006E+02  0.23208E+05
 0.12203005E+02  0.23217E+05
 0.12253005E+02  0.23221E+05
 0.12303005E+02  0.23227E+05
 0.12353005E+02  0.23239E+05
 0.12403006E+02  0.23252E+05
 0.12453005E+02  0.23257E+05
 0.12503005E+02  0.23256E+05
 0.12553005E+02  0.23263E+05
 0.12603005E+02  0.23263E+05
 0.12653005E+02  0.23259E+05
 0.12703005E+02  0.23251E+05
 0.12753005E+02  0.23237E+05
 0.12803005E+02  0.23234E+05
 0.12853005E+02  0.23229E+05
 0.12903005E+02  0.23216E+05
 0.12953005E+02  0.23211E+05
 0.13003005E+02  0.23205E+05
 0.13053005E+02  0.23205E+05
 0.13103005E+02  0.23208E+05
 0.13153005E+02  0.23211E+05
 0.13203005E+02  0.23212E+05
 0.13253005E+02  0.23204E+05
 0.13303005E+02  0.23203E+05
 0.13353005E+02  0.23206E+05
 0.13403005E+02  0.23208E+05
 0.13453005E+02  0.23215E+05
 0.13503005E+02  0.23225E+05
 0.13553005E+02  0.23236E+05
 0.13603005E+02  0.23242E+05
 0.13653005E+02  0.23249E+05
 0.13703005E+02  0.23250E+05
 0.13753005E+02  0.23249E+05
 0.13803005E+02  0.23251E+05
 0.13853005E+02  0.23243E+05
 0.13903005E+02  0.23245E+05
 0.13953005E+02  0.23248E+05
 0.14003005E+02  0.23255E+05
 0.14053005E+02  0.23255E+05
 0.14103004E+02  0.23245E+05
 0.14153006E+02  0.23235E+05
 0.14203005E+02  0.23222E+05
 0.14253004E+02  0.23218E+05
 0.14303005E+02  0.23208E+05
 0.14353004E+02  0.23201E+05
 0.14403006E+02  0.23187E+05
 0.14453005E+02  0.23176E+05
 0.14503004E+02  0.23173E+05
 0.14553005E+02  0.23172E+05
 0.14603004E+02  0.23177E+05
 0.14653006E+02  0.23178E+05
 0.14703005E+02  0.23180E+05
 0.14753004E+02  0.23178E+05
 0.14803005E+02  0.23177E+05
 0.14853004E+02  0.23178E+05
 0.14903006E+02  0.23186E+05
 0.14953005E+02  0.23191E+05
 0.15003004E+02  0.23193E+05
 0.15053005E+02  0.23204E+05
 0.15103004E+02  0.23222E+05
 0.15153006E+02  0.23237E+05
 0.15203005E+02  0.23241E+05
 0.15253004E+02  0.23247E+05
 0.15303005E+02  0.23253E+05
 0.15353004E+02  0.23264E+05
 0.15403006E+02  0.23258E+05
 0.15453005E+02  0.23258E+05
 0.15503004E+02  0.23291E+05
 0.15553005E+02  0.23297E+05
 0.15603004E+02  0.23281E+05
 0.15653006E+02  0.23310E+05
 0.15703005E+02  0.23313E+05
 0.15753004E+02  0.23232E+05
 0.15803005E+02  0.23197E+05
 0.15853004E+02  0.23255E+05
 0.15903006E+02  0.23196E+05
 0.15953005E+02  0.23103E+05
 0.16003004E+02  0.23240E+05
 0.16053005E+02  0.23362E+05
 0.16103004E+02  0.23297E+05
 0.16153006E+02  0.23306E+05
 0.16203005E+02  0.23472E+05
 0.16253004E+02  0.23589E+05
 0.16303005E+02  0.23413E+05
 0.16353004E+02  0.22743E+05
 0.16403006E+02  0.22545E+05
 0.16453005E+02  0.22854E+05
 0.16503004E+02  0.22723E+05
 0.16553005E+02  0.23000E+05
 0.16603004E+02  0.24274E+05
 0.16653006E+02  0.23469E+05
 0.16703005E+02  0.22798E+05
 0.16753004E+02  0.24123E+05
 0.16803005E+02  0.24615E+05
 0.16853004E+02  0.25016E+05
 0.16903006E+02  0.25220E+05
 0.16953005E+02  0.23201E+05
 0.17003004E+02  0.22143E+05
 0.17053005E+02  0.21547E+05
 0.17103004E+02  0.19953E+05
 0.17153006E+02  0.20989E+05
 0.17203005E+02  0.22347E+05
 0.17253004E+02  0.20884E+05
 0.17303005E+02  0.22762E+05
 0.17353004E+02  0.26773E+05
 0.17403006E+02  0.25790E+05
 0.17453005E+02  0.25520E+05
 0.17503004E+02  0.24260E+05
 0.17553005E+02  0.23973E+05
 0.17603004E+02  0.25320E+05
 0.17653006E+02  0.23922E+05
 0.17703005E+02  0.22721E+05
 0.17753004E+02  0.19931E+05
 0.17803005E+02  0.18045E+05
 0.17853004E+02  0.20897E+05
 0.17903006E+02  0.22765E+05
 0.17953005E+02  0.23541E+05
 0.18003004E+02  0.24054E+05
 0.18053005E+02  0.24378E+05
 0.18103004E+02  0.25963E+05
 0.18153006E+02  0.27520E+05
 0.18203005E+02  0.24467E+05
 0.18253004E+02  0.20832E+05
 0.18303005E+02  0.20142E+05
 0.18353004E+02  0.22829E+05
 0.18403006E+02  0.26251E+05
 0.18453005E+02  0.19416E+05
 0.18503004E+02  0.20913E+05
 0.18553005E+02  0.26125E+05
 0.18603004E+02  0.24182E+05
 0.18653006E+02  0.26153E+05
 0.18703005E+02  0.22431E+05
 0.18753004E+02  0.20996E+05
 0.18803005E+02  0.26223E+05
 0.18853004E+02  0.26144E+05
 0.18903006E+02  0.22637E+05
 0.18953005E+02  0.20932E+05
 0.19003004E+02  0.19933E+05
 0.19053005E+02  0.24020E+05
 0.19103004E+02  0.25995E+05
 0.19153006E+02  0.23992E+05
 0.19203005E+02  0.21749E+05
 0.19253004E+02  0.19898E+05
 0.19303005E+02  0.24390E+05
 0.19353004E+02  0.27267E+05
 0.19403006E+02  0.22048E+05
 0.19453005E+02  0.18629E+05
 0.19503004E+02  0.25513E+05
 0.19553005E+02  0.23030E+05
 0.19603004E+02  0.20203E+05
 0.19653006E+02  0.24239E+05
 0.19703005E+02  0.26447E+05
 0.19753004E+02  0.24422E+05
 0.19803005E+02  0.21607E+05
 0.19853004E+02  0.19536E+05
 0.19903006E+02  0.23711E+05
 0.19953005E+02  0.29319E+05
 0.20003004E+02  0.24326E+05
 0.20053005E+02  0.18512E+05
 0.20103004E+02  0.18937E+05
 0.20153006E+02  0.22576E+05
 0.20203005E+02  0.22749E+05
 0.20253004E+02  0.23720E+05
 0.20303005E+02  0.23394E+05
 0.20353004E+02  0.25759E+05
 0.20403004E+02  0.29289E+05
 0.20453005E+02  0.25621E+05
 0.20503004E+02  0.21378E+05
 0.20553005E+02  0.23644E+05
 0.20603004E+02  0.21022E+05
 0.20653004E+02  0.14773E+05
 0.20703005E+02  0.20514E+05
 0.20753004E+02  0.26970E+05
 0.20803005E+02  0.25580E+05
 0.20853004E+02  0.24829E+05
 0.20903004E+02  0.22929E+05
 0.20953005E+02  0.24815E+05
 0.21003004E+02  0.28071E+05
 0.21053005E+02  0.25208E+05
 0.21103004E+02  0.21539E+05
 0.21153004E+02  0.23489E+05
 0.21203005E+02  0.19359E+05
 0.21253004E+02  0.22855E+05
 0.21303005E+02  0.24194E+05
 0.21353004E+02  0.19732E+05
 0.21403004E+02  0.19900E+05
 0.21453005E+02  0.20312E+05
 0.21503004E+02  0.28873E+05
 0.21553005E+02  0.22102E+05
 0.21603004E+02  0.18611E+05
 0.21653004E+02  0.29678E+05
 0.21703005E+02  0.29866E+05
 0.21753004E+02  0.21640E+05
 0.21803005E+02  0.22211E+05
 0.21853004E+02  0.23126E+05
 0.21903004E+02  0.15976E+05
 0.21953005E+02  0.21065E+05
 0.22003004E+02  0.25609E+05
 0.22053005E+02  0.25298E+05
 0.22103004E+02  0.27975E+05
 0.22153004E+02  0.24223E+05
 0.22203005E+02  0.20003E+05
 0.22253004E+02  0.24007E+05
 0.22303005E+02  0.22745E+05
 0.22353004E+02  0.18182E+05
 0.22403004E+02  0.22896E+05
 0.22453005E+02  0.25822E+05
 0.22503004E+02  0.30021E+05
 0.22553005E+02  0.24781E+05
 0.22603004E+02  0.17744E+05
 0.22653004E+02  0.19579E+05
 0.22703005E+02  0.22541E+05
 0.22753004E+02  0.24516E+05
 0.22803005E+02  0.25186E+05
 0.22853004E+02  0.26016E+05
 0.22903004E+02  0.25086E+05
 0.22953005E+02  0.22097E+05
 0.23003004E+02  0.22929E+05
 0.23053005E+02  0.22403E+05
 0.23103004E+02  0.20717E+05
 0.23153004E+02  0.24685E+05
 0.23203005E+02  0.23262E+05
 0.23253004E+02  0.20531E+05
 0.23303005E+02  0.21869E+05
 0.23353004E+02  0.22194E+05
 0.23403004E+02  0.23564E+05
 0.23453005E+02  0.25096E+05
 0.23503004E+02  0.27585E+05
 0.23553005E+02  0.26836E+05
 0.23603004E+02  0.21576E+05
 0.23653004E+02  0.21291E+05
 0.23703005E+02  0.22874E+05
 0.23753004E+02  0.21786E+05
 0.23803005E+02  0.21481E+05
 0.23853004E+02  0.22765E+05
 0.23903004E+02  0.23937E+05
 0.23953005E+02  0.24312E+05
 0.24003004E+02  0.23199E+05
 0.24053005E+02  0.26650E+05
 0.24103004E+02  0.24126E+05
 0.24153004E+02  0.20889E+05
 0.24203005E+02  0.24206E+05
 0.24253004E+02  0.22749E+05
 0.24303005E+02  0.17450E+05
 0.24353004E+02  0.19782E+05
 0.24403004E+02  0.27318E+05
 0.24453005E+02  0.25668E+05
 0.24503004E+02  0.23179E+05
 0.24553005E+02  0.19798E+05
 0.24603004E+02  0.21056E+05
 0.24653004E+02  0.26918E+05
 0.24703005E+02  0.29265E+05
 0.24753004E+02  0.24530E+05
 0.24803005E+02  0.21310E+05
 0.24853004E+02  0.19684E+05
 0.24903004E+02  0.17969E+05
 0.24953005E+02  0.18160E+05
 0.25003004E+02  0.21594E+05
 0.25053005E+02  0.27519E+05
 0.25103004E+02  0.23619E+05
 0.25153004E+02  0.23183E+05
 0.25203005E+02  0.26518E+05
 0.25253004E+02  0.26951E+05
 0.25303005E+02  0.21825E+05
 0.25353004E+02  0.19250E+05
 0.25403004E+02  0.20296E+05
 0.25453005E+02  0.22479E+05
 0.25503004E+02  0.22956E+05
 0.25553005E+02  0.22570E+05
 0.25603004E+02  0.22739E+05
 0.25653004E+02  0.22130E+05
 0.25703005E+02  0.25440E+05
 0.25753004E+02  0.22231E+05
 0.25803005E+02  0.18998E+05
 0.25853004E+02  0.19886E+05
 0.25903004E+02  0.23578E+05
 0.25953005E+02  0.26529E+05
 0.26003004E+02  0.23113E+05
 0.26053005E+02  0.23027E+05
 0.26103004E+02  0.22299E+05
 0.26153004E+02  0.21756E+05
 0.26203005E+02  0.23756E+05
 0.26253004E+02  0.22237E+05
 0.26303005E+02  0.21085E+05
 0.26353004E+02  0.18914E+05
 0.26403004E+02  0.23097E+05
 0.26453005E+02  0.23941E+05
 0.26503004E+02  0.18427E+05
 0.26553005E+02  0.10435E+05
 0.26603004E+02  0.67871E+04
 0.26653004E+02  0.81507E+04
 0.26703005E+02  0.43794E+04
 0.26753004E+02  0.75314E+04
 0.26803005E+02  0.14879E+05
 0.26853004E+02  0.21193E+05
 0.26903004E+02  0.28045E+05
 0.26953005E+02  0.40985E+05
 0.27003004E+02  0.50321E+05
 0.27053003E+02  0.46117E+05
 0.27103004E+02  0.42568E+05
 0.27153004E+02  0.44169E+05
 0.27203005E+02  0.45003E+05
 0.27253004E+02  0.55428E+05
 0.27303003E+02  0.59766E+05
 0.27353004E+02  0.49556E+05
 0.27403004E+02  0.38457E+05
 0.27453005E+02  0.40166E+05
 0.27503004E+02  0.39616E+05
 0.27553003E+02  0.16959E+05
 0.27603004E+02 -0.12461E+05
 0.27653004E+02 -0.34259E+05
 0.27703005E+02 -0.21274E+05
 0.27753004E+02  0.12429E+05
 0.27803003E+02  0.25065E+05
 0.27853004E+02  0.18356E+05
 0.27903004E+02  0.19360E+05
 0.27953005E+02  0.24616E+05
 0.28003004E+02  0.28277E+05
 0.28053003E+02  0.24323E+05
 0.28103004E+02  0.85553E+04
 0.28153004E+02  0.30459E+04
 0.28203005E+02 -0.64398E+03
 0.28253004E+02 -0.80704E+04
 0.28303003E+02  0.39329E+04
 0.28353004E+02  0.40886E+05
 0.28403004E+02  0.68526E+05
 0.28453005E+02  0.54876E+05
 0.28503004E+02  0.27245E+05
 0.28553003E+02  0.66107E+04
 0.28603004E+02 -0.43082E+04
 0.28653004E+02  0.21246E+04
 0.28703005E+02  0.22735E+05
 0.28753004E+02  0.35581E+05
 0.28803003E+02  0.26284E+05
 0.28853004E+02  0.27528E+05
 0.28903004E+02  0.36790E+05
 0.28953005E+02  0.34202E+05
 0.29003004E+02  0.29980E+05
 0.29053003E+02  0.36905E+05
 0.29103004E+02  0.51943E+05
 0.29153004E+02  0.59404E+05
 0.29203005E+02  0.48267E+05
 0.29253004E+02  0.33854E+05
 0.29303003E+02  0.31928E+05
 0.29353004E+02  0.32363E+05
 0.29403004E+02  0.36612E+05
 0.29453005E+02  0.16558E+05
 0.29503004E+02 -0.12881E+05
 0.29553003E+02 -0.16659E+04
 0.29603004E+02  0.18360E+05
 0.29653004E+02  0.20104E+05
 0.29703005E+02  0.21729E+05
 0.29753004E+02  0.22826E+05
 0.29803003E+02  0.22993E+05
 0.29853004E+02  0.23152E+05
 0.29903004E+02  0.18219E+05
 0.29953005E+02  0.38845E+04
 0.30003004E+02 -0.20442E+05
 0.30053005E+02 -0.30182E+05
 0.30103004E+02 -0.10193E+05
 0.30153004E+02  0.27200E+05
 0.30203003E+02  0.55159E+05
 0.30253002E+02  0.65889E+05
 0.30303005E+02  0.57319E+05
 0.30353004E+02  0.48848E+05
 0.30403004E+02  0.51435E+05
 0.30453003E+02  0.35076E+05
 0.30503002E+02  0.11193E+04
 0.30553005E+02 -0.23017E+05
 0.30603004E+02 -0.15841E+05
 0.30653004E+02  0.11207E+05
 0.30703003E+02  0.21845E+05
 0.30753002E+02  0.47916E+04
 0.30803005E+02 -0.10854E+05
 0.30853004E+02  0.49627E+03
 0.30903004E+02  0.25552E+05
 0.30953003E+02  0.45341E+05
 0.31003002E+02  0.66167E+05
 0.31053005E+02  0.84217E+05
 0.31103004E+02  0.80268E+05
 0.31153004E+02  0.53843E+05
 0.31203003E+02  0.21444E+05
 0.31253002E+02 -0.57129E+04
 0.31303005E+02 -0.13226E+05
 0.31353004E+02  0.42813E+04
 0.31403004E+02  0.27983E+05
 0.31453003E+02  0.34854E+05
 0.31503002E+02  0.23610E+05
 0.31553005E+02  0.18648E+05
 0.31603004E+02  0.25591E+05
 0.31653004E+02  0.26220E+05
 0.31703003E+02  0.66330E+04
 0.31753002E+02 -0.92648E+04
 0.31803005E+02  0.64826E+04
 0.31853004E+02  0.29964E+05
 0.31903004E+02  0.44531E+05
 0.31953003E+02  0.58649E+05
 0.32003002E+02  0.58386E+05
 0.32053005E+02  0.38071E+05
 0.32103004E+02  0.18254E+05
 0.32153004E+02  0.77197E+04
 0.32203003E+02  0.56522E+04
 0.32253002E+02  0.11462E+05
 0.32303005E+02  0.28994E+05
 0.32353004E+02  0.34616E+05
 0.32403004E+02  0.22457E+05
 0.32453003E+02  0.11621E+05
 0.32503002E+02 -0.77294E+03
 0.32553005E+02 -0.93909E+04
 0.32603004E+02 -0.54260E+04
 0.32653004E+02  0.13690E+05
 0.32703003E+02  0.33764E+05
 0.32753002E+02  0.36438E+05
 0.32803005E+02  0.28716E+05
 0.32853004E+02  0.33321E+05
 0.32903004E+02  0.43005E+05
 0.32953003E+02  0.46518E+05
 0.33003002E+02  0.39324E+05
 0.33053005E+02  0.28960E+05
 0.33103004E+02  0.25836E+05
 0.33153004E+02  0.32138E+05
 0.33203003E+02  0.36836E+05
 0.33253002E+02  0.24749E+05
 0.33303005E+02  0.88660E+04
 0.33353004E+02  0.27024E+04
 0.33403004E+02  0.82358E+04
 0.33453003E+02  0.17005E+05
 0.33503002E+02  0.24194E+05
 0.33553005E+02  0.22352E+05
 0.33603004E+02  0.13866E+05
 0.33653004E+02  0.11165E+05
 0.33703003E+02  0.13200E+05
 0.33753002E+02  0.14449E+05
 0.33803005E+02  0.21588E+05
 0.33853004E+02  0.38089E+05
 0.33903004E+02  0.45984E+05
 0.33953003E+02  0.41389E+05
 0.34003002E+02  0.32521E+05
 0.34053005E+02  0.26342E+05
 0.34103004E+02  0.21542E+05
 0.34153004E+02  0.11515E+05
 0.34203003E+02  0.34278E+04
 0.34253002E+02  0.75688E+04
 0.34303005E+02  0.16768E+05
 0.34353004E+02  0.19867E+05
 0.34403004E+02  0.10131E+05
 0.34453003E+02 -0.13216E+04
 0.34503002E+02  0.81026E+04
 0.34553005E+02  0.25863E+05
 0.34603004E+02  0.35253E+05
 0.34653004E+02  0.39876E+05
 0.34703003E+02  0.38238E+05
 0.34753002E+02  0.26963E+05
 0.34803005E+02  0.22491E+05
 0.34853004E+02  0.24907E+05
 0.34903004E+02  0.28652E+05
 0.34953003E+02  0.32103E+05
 0.35003002E+02  0.29333E+05
 0.35053005E+02  0.27047E+05
 0.35103004E+02  0.29657E+05
 0.35153004E+02  0.30947E+05
 0.35203003E+02  0.22927E+05
 0.35253002E+02  0.10733E+05
 0.35303005E+02  0.12539E+05
 0.35353004E+02  0.21942E+05
 0.35403004E+02  0.21090E+05
 0.35453003E+02  0.16996E+05
 0.35503002E+02  0.15365E+05
 0.35553005E+02  0.20760E+05
 0.35603004E+02  0.25210E+05
 0.35653004E+02  0.28937E+05
 0.35703003E+02  0.34666E+05
 0.35753002E+02  0.36860E+05
 0.35803005E+02  0.28353E+05
 0.35853004E+02  0.13580E+05
 0.35903004E+02  0.11575E+05
 0.35953003E+02  0.17114E+05
 0.36003002E+02  0.19141E+05
 0.36053005E+02  0.27286E+05
 0.36103004E+02  0.33773E+05
 0.36153004E+02  0.28467E+05
 0.36203003E+02  0.25704E+05
 0.36253002E+02  0.26221E+05
 0.36303005E+02  0.26057E+05
 0.36353004E+02  0.22045E+05
 0.36403004E+02  0.16401E+05
 0.36453003E+02  0.18944E+05
 0.36503002E+02  0.20366E+05
 0.36553005E+02  0.21517E+05
 0.36603004E+02  0.26696E+05
 0.36653004E+02  0.28680E+05
 0.36703003E+02  0.29021E+05
 0.36753002E+02  0.30983E+05
 0.36803005E+02  0.30085E+05
 0.36853004E+02  0.29866E+05
 0.36903004E+02  0.39111E+05
 0.36953003E+02  0.36015E+05
 0.37003002E+02  0.20003E+05
 0.37053005E+02  0.14467E+05
 0.37103004E+02  0.20181E+05
 0.37153004E+02  0.24109E+05
 0.37203003E+02  0.20050E+05
 0.37253002E+02  0.20747E+05
 0.37303005E+02  0.27064E+05
 0.37353004E+02  0.23158E+05
 0.37403004E+02  0.13130E+05
 0.37453003E+02  0.12470E+05
 0.37503002E+02  0.20011E+05
 0.37553005E+02  0.19682E+05
 0.37603004E+02  0.15882E+05
 0.37653004E+02  0.20349E+05
 0.37703003E+02  0.24054E+05
 0.37753002E+02  0.27989E+05
 0.37803005E+02  0.29905E+05
 0.37853004E+02  0.30012E+05
 0.37903004E+02  0.30329E+05
 0.37953003E+02  0.27325E+05
 0.38003002E+02  0.24660E+05
 0.38053005E+02  0.18907E+05
 0.38103004E+02  0.15609E+05
 0.38153004E+02  0.17916E+05
 0.38203003E+02  0.17194E+05
 0.38253002E+02  0.17203E+05
 0.38303005E+02  0.17692E+05
 0.38353004E+02  0.14756E+05
 0.38403004E+02  0.22961E+05
 0.38453003E+02  0.32608E+05
 0.38503002E+02  0.34015E+05
 0.38553005E+02  0.33119E+05
 0.38603004E+02  0.30174E+05
 0.38653004E+02  0.24325E+05
 0.38703003E+02  0.14311E+05
 0.38753002E+02  0.71711E+04
 0.38803005E+02  0.67834E+04
 0.38853004E+02  0.18869E+05
 0.38903004E+02  0.31489E+05
 0.38953003E+02  0.33175E+05
 0.39003002E+02  0.28352E+05
 0.39053005E+02  0.24765E+05
 0.39103004E+02  0.23083E+05
 0.39153004E+02  0.17700E+05
 0.39203003E+02  0.14997E+05
 0.39253002E+02  0.16686E+05
 0.39303005E+02  0.16653E+05
 0.39353004E+02  0.20366E+05
 0.39403004E+02  0.25815E+05
 0.39453003E+02  0.26925E+05
 0.39503002E+02  0.28066E+05
 0.39553005E+02  0.22402E+05
 0.39603004E+02  0.21700E+05
 0.39653004E+02  0.21126E+05
 0.39703003E+02  0.16536E+05
 0.39753002E+02  0.19715E+05
 0.39803005E+02  0.22991E+05
 0.39853004E+02  0.29554E+05
 0.39903004E+02  0.36168E+05
 0.39953003E+02  0.36225E+05
 0.40003002E+02  0.28674E+05
 0.40053005E+02  0.20896E+05
 0.40103004E+02  0.14765E+05
 0.40153004E+02  0.15201E+05
 0.40203003E+02  0.19985E+05
 0.40253002E+02  0.25972E+05
 0.40303005E+02  0.29382E+05
 0.40353004E+02  0.29353E+05
 0.40403004E+02  0.33567E+05
 0.40453003E+02  0.36194E+05
 0.40503002E+02  0.36385E+05
 0.40553005E+02  0.31391E+05
 0.40603004E+02  0.28505E+05
 0.40653004E+02  0.22217E+05
 0.40703003E+02  0.15440E+05
 0.40753002E+02  0.18095E+05
 0.40803005E+02  0.20749E+05
 0.40853004E+02  0.15536E+05
 0.40903004E+02  0.11077E+05
 0.40953003E+02  0.82922E+04
 0.41003002E+02  0.85355E+04
 0.41053005E+02  0.15654E+05
 0.41103004E+02  0.18115E+05
 0.41153004E+02  0.17623E+05
 0.41203003E+02  0.20829E+05
 0.41253002E+02  0.29951E+05
 0.41303005E+02  0.35938E+05
 0.41353004E+02  0.38121E+05
 0.41403004E+02  0.37199E+05
 0.41453003E+02  0.28147E+05
 0.41503002E+02  0.17933E+05
 0.41553005E+02  0.13279E+05
 0.41603004E+02  0.14440E+05
 0.41653004E+02  0.16685E+05
 0.41703003E+02  0.18834E+05
 0.41753002E+02  0.19386E+05
 0.41803005E+02  0.17498E+05
 0.41853004E+02  0.21336E+05
 0.41903004E+02  0.27828E+05
 0.41953003E+02  0.30037E+05
 0.42003002E+02  0.30750E+05
 0.42053005E+02  0.30976E+05
 0.42103004E+02  0.27486E+05
 0.42153004E+02  0.26238E+05
 0.42203003E+02  0.27692E+05
 0.42253002E+02  0.28820E+05
 0.42303005E+02  0.26095E+05
 0.42353004E+02  0.22223E+05
 0.42403004E+02  0.24647E+05
 0.42453003E+02  0.25723E+05
 0.42503002E+02  0.22796E+05
 0.42553005E+02  0.20890E+05
 0.42603004E+02  0.22071E+05
 0.42653004E+02  0.22746E+05
 0.42703003E+02  0.20842E+05
 0.42753002E+02  0.15819E+05
 0.42803001E+02  0.14778E+05
 0.42853004E+02  0.19333E+05
 0.42903004E+02  0.23999E+05
 0.42953003E+02  0.25362E+05
 0.43003002E+02  0.27444E+05
 0.43053001E+02  0.27902E+05
 0.43103004E+02  0.23596E+05
 0.43153004E+02  0.22067E+05
 0.43203003E+02  0.21017E+05
 0.43253002E+02  0.18598E+05
 0.43303001E+02  0.17025E+05
 0.43353004E+02  0.19182E+05
 0.43403004E+02  0.23375E+05
 0.43453003E+02  0.25669E+05
 0.43503002E+02  0.24968E+05
 0.43553001E+02  0.24234E+05
 0.43603004E+02  0.25674E+05
 0.43653004E+02  0.29697E+05
 0.43703003E+02  0.31785E+05
 0.43753002E+02  0.29564E+05
 0.43803001E+02  0.26200E+05
 0.43853004E+02  0.24048E+05
 0.43903004E+02  0.22243E+05
 0.43953003E+02  0.17776E+05
 0.44003002E+02  0.14768E+05
 0.44053001E+02  0.14588E+05
 0.44103004E+02  0.14811E+05
 0.44153004E+02  0.19800E+05
 0.44203003E+02  0.25781E+05
 0.44253002E+02  0.25863E+05
 0.44303001E+02  0.26041E+05
 0.44353004E+02  0.27388E+05
 0.44403004E+02  0.28622E+05
 0.44453003E+02  0.33238E+05
 0.44503002E+02  0.33812E+05
 0.44553001E+02  0.27489E+05
 0.44603004E+02  0.22818E+05
 0.44653004E+02  0.18937E+05
 0.44703003E+02  0.17101E+05
 0.44753002E+02  0.18172E+05
 0.44803001E+02  0.16507E+05
 0.44853004E+02  0.12224E+05
 0.44903004E+02  0.14834E+05
 0.44953003E+02  0.20864E+05
 0.45003002E+02  0.20778E+05
 0.45053001E+02  0.19558E+05
 0.45103004E+02  0.20257E+05
 0.45153004E+02  0.21696E+05
 0.45203003E+02  0.24149E+05
 0.45253002E+02  0.26277E+05
 0.45303001E+02  0.27228E+05
 0.45353004E+02  0.29160E+05
 0.45403004E+02  0.31734E+05
 0.45453003E+02  0.32932E+05
 0.45503002E+02  0.32469E+05
 0.45553001E+02  0.30200E+05
 0.45603004E+02  0.25310E+05
 0.45653004E+02  0.20287E+05
 0.45703003E+02  0.17731E+05
 0.45753002E+02  0.18745E+05
 0.45803001E+02  0.17137E+05
 0.45853004E+02  0.16432E+05
 0.45903004E+02  0.17713E+05
 0.45953003E+02  0.16950E+05
 0.46003002E+02  0.17166E+05
 0.46053001E+02  0.20741E+05
 0.46103004E+02  0.25681E+05
 0.46153004E+02  0.24557E+05
 0.46203003E+02  0.26479E+05
 0.46253002E+02  0.29333E+05
 0.46303001E+02  0.29442E+05
 0.46353004E+02  0.30044E+05
 0.46403004E+02  0.28159E+05
 0.46453003E+02  0.23542E+05
 0.46503002E+02  0.21103E+05
 0.46553001E+02  0.20153E+05
 0.46603004E+02  0.19052E+05
 0.46653004E+02  0.22343E+05
 0.46703003E+02  0.25603E+05
 0.46753002E+02  0.28211E+05
 0.46803001E+02  0.26861E+05
 0.46853004E+02  0.25545E+05
 0.46903004E+02  0.25218E+05
 0.46953003E+02  0.24586E+05
 0.47003002E+02  0.25719E+05
 0.47053001E+02  0.26794E+05
 0.47103004E+02  0.26705E+05
 0.47153004E+02  0.22936E+05
 0.47203003E+02  0.19384E+05
 0.47253002E+02  0.16672E+05
 0.47303001E+02  0.17073E+05
 0.47353004E+02  0.18035E+05
 0.47403004E+02  0.20763E+05
 0.47453003E+02  0.22796E+05
 0.47503002E+02  0.21807E+05
 0.47553001E+02  0.22697E+05
 0.47603004E+02  0.21285E+05
 0.47653004E+02  0.19486E+05
 0.47703003E+02  0.18422E+05
 0.47753002E+02  0.18964E+05
 0.47803001E+02  0.20226E+05
 0.47853004E+02  0.22287E+05
 0.47903004E+02  0.25474E+05
 0.47953003E+02  0.24776E+05
 0.48003002E+02  0.25145E+05
 0.48053001E+02  0.27486E+05
 0.48103004E+02  0.27281E+05
 0.48153004E+02  0.25759E+05
 0.48203003E+02  0.25885E+05
 0.48253002E+02  0.28825E+05
 0.48303001E+02  0.31519E+05
 0.48353004E+02  0.31021E+05
 0.48403004E+02  0.27044E+05
 0.48453003E+02  0.21829E+05
 0.48503002E+02  0.19129E+05
 0.48553001E+02  0.19445E+05
 0.48603004E+02  0.19906E+05
 0.48653004E+02  0.20089E+05
 0.48703003E+02  0.20822E+05
 0.48753002E+02  0.21217E+05
 0.48803001E+02  0.21890E+05
 0.48853004E+02  0.23528E+05
 0.48903004E+02  0.22848E+05
 0.48953003E+02  0.20573E+05
 0.49003002E+02  0.19683E+05
 0.49053001E+02  0.21800E+05
 0.49103004E+02  0.23021E+05
 0.49153004E+02  0.25575E+05
 0.49203003E+02  0.27510E+05
 0.49253002E+02  0.25160E+05
 0.49303001E+02  0.23469E+05
 0.49353004E+02  0.22908E+05
 0.49403004E+02  0.22135E+05
 0.49453003E+02  0.21445E+05
 0.49503002E+02  0.23141E+05
 0.49553001E+02  0.21881E+05
 0.49603004E+02  0.20247E+05
 0.49653004E+02  0.19946E+05
 0.49703003E+02  0.20322E+05
 0.49753002E+02  0.22232E+05
 0.49803001E+02  0.24750E+05
 0.49853004E+02  0.26084E+05
 0.49903004E+02  0.25875E+05
 0.49953003E+02  0.26036E+05
 0.50003002E+02  0.26458E+05
 0.50053001E+02  0.26455E+05
 0.50103004E+02  0.23625E+05
 0.50153004E+02  0.21841E+05
 0.50203003E+02  0.21191E+05
 0.50253002E+02  0.20978E+05
 0.50303001E+02  0.20513E+05
 0.50353004E+02  0.20687E+05
 0.50403004E+02  0.23034E+05
 0.50453003E+02  0.24318E+05
 0.50503002E+02  0.25194E+05
 0.50553001E+02  0.25987E+05
 0.50603004E+02  0.26770E+05
 0.50653004E+02  0.25815E+05
 0.50703003E+02  0.24123E+05
 0.50753002E+02  0.24742E+05
 0.50803001E+02  0.24763E+05
 0.50853004E+02  0.22326E+05
 0.50903004E+02  0.20956E+05
 0.50953003E+02  0.21665E+05
 0.51003002E+02  0.22311E+05
 0.51053001E+02  0.23184E+05
 0.51103004E+02  0.22949E+05
 0.51153004E+02  0.20961E+05
 0.51203003E+02  0.18811E+05
 0.51253002E+02  0.18512E+05
 0.51303001E+02  0.20088E+05
 0.51353004E+02  0.21817E+05
 0.51403004E+02  0.22651E+05
 0.51453003E+02  0.23461E+05
 0.51503002E+02  0.24360E+05
 0.51553001E+02  0.27000E+05
 0.51603004E+02  0.29505E+05
 0.51653004E+02  0.28127E+05
 0.51703003E+02  0.24717E+05
 0.51753002E+02  0.23921E+05
 0.51803001E+02  0.24194E+05
 0.51853004E+02  0.24229E+05
 0.51903004E+02  0.23072E+05
 0.51953003E+02  0.19020E+05
 0.52003002E+02  0.19631E+05
 0.52053001E+02  0.22130E+05
 0.52103004E+02  0.24320E+05
 0.52153004E+02  0.26660E+05
 0.52203003E+02  0.27384E+05
 0.52253002E+02  0.27539E+05
 0.52303001E+02  0.24662E+05
 0.52353004E+02  0.23096E+05
 0.52403004E+02  0.23837E+05
 0.52453003E+02  0.22943E+05
 0.52503002E+02  0.23292E+05
 0.52553001E+02  0.25592E+05
 0.52603004E+02  0.25871E+05
 0.52653004E+02  0.24132E+05
 0.52703003E+02  0.20589E+05
 0.52753002E+02  0.17461E+05
 0.52803001E+02  0.16938E+05
 0.52853004E+02  0.17433E+05
 0.52903004E+02  0.19157E+05
 0.52953003E+02  0.19793E+05
 0.53003002E+02  0.21458E+05
 0.53053001E+02  0.23601E+05
 0.53103004E+02  0.25563E+05
 0.53153004E+02  0.27191E+05
 0.53203003E+02  0.25253E+05
 0.53253002E+02  0.23814E+05
 0.53303001E+02  0.23285E+05
 0.53353004E+02  0.23571E+05
 0.53403004E+02  0.23643E+05
 0.53453003E+02  0.23461E+05
 0.53503002E+02  0.23292E+05
 0.53553001E+02  0.22967E+05
 0.53603004E+02  0.24738E+05
 0.53653004E+02  0.24646E+05
 0.53703003E+02  0.23790E+05
 0.53753002E+02  0.24036E+05
 0.53803001E+02  0.23333E+05
 0.53853004E+02  0.23102E+05
 0.53903004E+02  0.22520E+05
 0.53953003E+02  0.21785E+05
 0.54003002E+02  0.22092E+05
 0.54053001E+02  0.21957E+05
 0.54103004E+02  0.21604E+05
 0.54153004E+02  0.21722E+05
 0.54203003E+02  0.22997E+05
 0.54253002E+02  0.24205E+05
 0.54303001E+02  0.23587E+05
 0.54353004E+02  0.23214E+05
 0.54403004E+02  0.23396E+05
 0.54453003E+02  0.23028E+05
 0.54503002E+02  0.22677E+05
 0.54553001E+02  0.22537E+05
 0.54603004E+02  0.21633E+05
 0.54653004E+02  0.20792E+05
 0.54703003E+02  0.20495E+05
 0.54753002E+02  0.19733E+05
 0.54803001E+02  0.20403E+05
 0.54853004E+02  0.22734E+05
 0.54903004E+02  0.24733E+05
 0.54953003E+02  0.25795E+05
 0.55003002E+02  0.27118E+05
 0.55053001E+02  0.28941E+05
 0.55103004E+02  0.29845E+05
 0.55153004E+02  0.29596E+05
 0.55203003E+02  0.28016E+05
 0.55253002E+02  0.26705E+05
 0.55303001E+02  0.25891E+05
 0.55353004E+02  0.23729E+05
 0.55403004E+02  0.21936E+05
 0.55453003E+02  0.22210E+05
 0.55503002E+02  0.22898E+05
 0.55553001E+02  0.22180E+05
 0.55603004E+02  0.20392E+05
 0.55653004E+02  0.19877E+05
 0.55703003E+02  0.21612E+05
 0.55753002E+02  0.22232E+05
 0.55803001E+02  0.21576E+05
 0.55853001E+02  0.22209E+05
 0.55903004E+02  0.23794E+05
 0.55953003E+02  0.24818E+05
 0.56003002E+02  0.24959E+05
 0.56053001E+02  0.22589E+05
 0.56103001E+02  0.20171E+05
 0.56153004E+02  0.19648E+05
 0.56203003E+02  0.19127E+05
 0.56253002E+02  0.19326E+05
 0.56303001E+02  0.18767E+05
 0.56353001E+02  0.19214E+05
 0.56403004E+02  0.21702E+05
 0.56453003E+02  0.23653E+05
 0.56503002E+02  0.24318E+05
 0.56553001E+02  0.24651E+05
 0.56603001E+02  0.24802E+05
 0.56653004E+02  0.24265E+05
 0.56703003E+02  0.23226E+05
 0.56753002E+02  0.23118E+05
 0.56803001E+02  0.24407E+05
 0.56853001E+02  0.25390E+05
 0.56903004E+02  0.25651E+05
 0.56953003E+02  0.24475E+05
 0.57003002E+02  0.23155E+05
 0.57053001E+02  0.22534E+05
 0.57103001E+02  0.22590E+05
 0.57153004E+02  0.23703E+05
 0.57203003E+02  0.24137E+05
 0.57253002E+02  0.23590E+05
 0.57303001E+02  0.23139E+05
 0.57353001E+02  0.24035E+05
 0.57403004E+02  0.24141E+05
 0.57453003E+02  0.24138E+05
 0.57503002E+02  0.24501E+05
 0.57553001E+02  0.24867E+05
 0.57603001E+02  0.26879E+05
 0.57653004E+02  0.28077E+05
 0.57703003E+02  0.27574E+05
 0.57753002E+02  0.25107E+05
 0.57803001E+02  0.22129E+05
 0.57853001E+02  0.19737E+05
 0.57903004E+02  0.17968E+05
 0.57953003E+02  0.18009E+05
 0.58003002E+02  0.18756E+05
 0.58053001E+02  0.19172E+05
 0.58103001E+02  0.19328E+05
 0.58153004E+02  0.20254E+05
 0.58203003E+02  0.21754E+05
 0.58253002E+02  0.23317E+05
 0.58303001E+02  0.25264E+05
 0.58353001E+02  0.27279E+05
 0.58403004E+02  0.27952E+05
 0.58453003E+02  0.26789E+05
 0.58503002E+02  0.24851E+05
 0.58553001E+02  0.22942E+05
 0.58603001E+02  0.22325E+05
 0.58653004E+02  0.22704E+05
 0.58703003E+02  0.21701E+05
 0.58753002E+02  0.20371E+05
 0.58803001E+02  0.20382E+05
 0.58853001E+02  0.21157E+05
 0.58903004E+02  0.23350E+05
 0.58953003E+02  0.25323E+05
 0.59003002E+02  0.25501E+05
 0.59053001E+02  0.25478E+05
 0.59103001E+02  0.25125E+05
 0.59153004E+02  0.24283E+05
 0.59203003E+02  0.24414E+05
 0.59253002E+02  0.24364E+05
 0.59303001E+02  0.22800E+05
 0.59353001E+02  0.22004E+05
 0.59403004E+02  0.21643E+05
 0.59453003E+02  0.20811E+05
 0.59503002E+02  0.20615E+05
 0.59553001E+02  0.20680E+05
 0.59603001E+02  0.22060E+05
 0.59653004E+02  0.23555E+05
 0.59703003E+02  0.22336E+05
 0.59753002E+02  0.21066E+05
 0.59803001E+02  0.22476E+05
 0.59853001E+02  0.24313E+05
 0.59903004E+02  0.25709E+05
 0.59953003E+02  0.26298E+05
 0.60003002E+02  0.26869E+05
 0.60053001E+02  0.27735E+05
 0.60103001E+02  0.28013E+05
 0.60153004E+02  0.28046E+05
 0.60203003E+02  0.26898E+05
 0.60253002E+02  0.24285E+05
 0.60303001E+02  0.22573E+05
 0.60353001E+02  0.22080E+05
 0.60403004E+02  0.21687E+05
 0.60453003E+02  0.21166E+05
 0.60503002E+02  0.20466E+05
 0.60553001E+02  0.20461E+05
 0.60603001E+02  0.21049E+05
 0.60653004E+02  0.22407E+05
 0.60703003E+02  0.23368E+05
 0.60753002E+02  0.24001E+05
 0.60803001E+02  0.24016E+05
 0.60853001E+02  0.23905E+05
 0.60903004E+02  0.24347E+05
 0.60953003E+02  0.25000E+05
 0.61003002E+02  0.24789E+05
 0.61053001E+02  0.22618E+05
 0.61103001E+02  0.20784E+05
 0.61153004E+02  0.19515E+05
 0.61203003E+02  0.19421E+05
 0.61253002E+02  0.20982E+05
 0.61303001E+02  0.23079E+05
 0.61353001E+02  0.24215E+05
 0.61403004E+02  0.24068E+05
 0.61453003E+02  0.23743E+05
 0.61503002E+02  0.24160E+05
 0.61553001E+02  0.24540E+05
 0.61603001E+02  0.23693E+05
 0.61653004E+02  0.23243E+05
 0.61703003E+02  0.23586E+05
 0.61753002E+02  0.24305E+05
 0.61803001E+02  0.24845E+05
 0.61853001E+02  0.24570E+05
 0.61903004E+02  0.24140E+05
 0.61953003E+02  0.24175E+05
 0.62003002E+02  0.23815E+05
 0.62053001E+02  0.22953E+05
 0.62103004E+02  0.23135E+05
 0.62153000E+02  0.22594E+05
 0.62203003E+02  0.21362E+05
 0.62252998E+02  0.20918E+05
 0.62303001E+02  0.21097E+05
 0.62353004E+02  0.21182E+05
 0.62403000E+02  0.21093E+05
 0.62453003E+02  0.22012E+05
 0.62502998E+02  0.22756E+05
 0.62553001E+02  0.23907E+05
 0.62603004E+02  0.24228E+05
 0.62653000E+02  0.23211E+05
 0.62703003E+02  0.22408E+05
 0.62752998E+02  0.21178E+05
 0.62803001E+02  0.20563E+05
 0.62853004E+02  0.21373E+05
 0.62903000E+02  0.22487E+05
 0.62953003E+02  0.23063E+05
 0.63002998E+02  0.23598E+05
 0.63053001E+02  0.23150E+05
 0.63103004E+02  0.23676E+05
 0.63153000E+02  0.25410E+05
 0.63203003E+02  0.26134E+05
 0.63252998E+02  0.26322E+05
 0.63303001E+02  0.25946E+05
 0.63353004E+02  0.25718E+05
 0.63403000E+02  0.25284E+05
 0.63453003E+02  0.24482E+05
 0.63502998E+02  0.23820E+05
 0.63553001E+02  0.23378E+05
 0.63603004E+02  0.22929E+05
 0.63653000E+02  0.22776E+05
 0.63703003E+02  0.23305E+05
 0.63752998E+02  0.23807E+05
 0.63803001E+02  0.24392E+05
 0.63853004E+02  0.24656E+05
 0.63903000E+02  0.24006E+05
 0.63953003E+02  0.23152E+05
 0.64002998E+02  0.22652E+05
 0.64053001E+02  0.22117E+05
 0.64103004E+02  0.21000E+05
 0.64153000E+02  0.20573E+05
 0.64203003E+02  0.20320E+05
 0.64252998E+02  0.20134E+05
 0.64303001E+02  0.21082E+05
 0.64353004E+02  0.22856E+05
 0.64403000E+02  0.24212E+05
 0.64453003E+02  0.24678E+05
 0.64502998E+02  0.24878E+05
 0.64553001E+02  0.24478E+05
 0.64603004E+02  0.23139E+05
 0.64653000E+02  0.21572E+05
 0.64703003E+02  0.20913E+05
 0.64752998E+02  0.21056E+05
 0.64803001E+02  0.21535E+05
 0.64853004E+02  0.22184E+05
 0.64903000E+02  0.23165E+05
 0.64953003E+02  0.24143E+05
 0.65002998E+02  0.25324E+05
 0.65053001E+02  0.26542E+05
 0.65103004E+02  0.26843E+05
 0.65153000E+02  0.26537E+05
 0.65203003E+02  0.25606E+05
 0.65252998E+02  0.23622E+05
 0.65303001E+02  0.22413E+05
 0.65353004E+02  0.22171E+05
 0.65403000E+02  0.21939E+05
 0.65453003E+02  0.22276E+05
 0.65502998E+02  0.22203E+05
 0.65553001E+02  0.21326E+05
 0.65603004E+02  0.20959E+05
 0.65653000E+02  0.21592E+05
 0.65703003E+02  0.22145E+05
 0.65752998E+02  0.22678E+05
 0.65803001E+02  0.23538E+05
 0.65853004E+02  0.23841E+05
 0.65903000E+02  0.24056E+05
 0.65953003E+02  0.24205E+05
 0.66002998E+02  0.24060E+05
 0.66053001E+02  0.24127E+05
 0.66103004E+02  0.23874E+05
 0.66153000E+02  0.23275E+05
 0.66203003E+02  0.22462E+05
 0.66252998E+02  0.21558E+05
 0.66303001E+02  0.21049E+05
 0.66353004E+02  0.20852E+05
 0.66403000E+02  0.20880E+05
 0.66453003E+02  0.20782E+05
 0.66502998E+02  0.21170E+05
 0.66553001E+02  0.22396E+05
 0.66603004E+02  0.23462E+05
 0.66653000E+02  0.24417E+05
 0.66703003E+02  0.24916E+05
 0.66752998E+02  0.25080E+05
 0.66803001E+02  0.25703E+05
 0.66853004E+02  0.26230E+05
 0.66903000E+02  0.26075E+05
 0.66953003E+02  0.25158E+05
 0.67002998E+02  0.24430E+05
 0.67053001E+02  0.23528E+05
 0.67103004E+02  0.22609E+05
 0.67153000E+02  0.22728E+05
 0.67203003E+02  0.22828E+05
 0.67252998E+02  0.23071E+05
 0.67303001E+02  0.23618E+05
 0.67353004E+02  0.23482E+05
 0.67403000E+02  0.23457E+05
 0.67453003E+02  0.24040E+05
 0.67502998E+02  0.24436E+05
 0.67553001E+02  0.23933E+05
 0.67603004E+02  0.22856E+05
 0.67653000E+02  0.22281E+05
 0.67703003E+02  0.22325E+05
 0.67752998E+02  0.22811E+05
 0.67803001E+02  0.23058E+05
 0.67853004E+02  0.23060E+05
 0.67903000E+02  0.22956E+05
 0.67953003E+02  0.22638E+05
 0.68002998E+02  0.22715E+05
 0.68053001E+02  0.22837E+05
 0.68103004E+02  0.22780E+05
 0.68153000E+02  0.22729E+05
 0.68203003E+02  0.22901E+05
 0.68252998E+02  0.23160E+05
 0.68303001E+02  0.23340E+05
 0.68353004E+02  0.23424E+05
 0.68403000E+02  0.23454E+05
 0.68453003E+02  0.23564E+05
 0.68502998E+02  0.23551E+05
 0.68553001E+02  0.23730E+05
 0.68603004E+02  0.23473E+05
 0.68653000E+02  0.22936E+05
 0.68703003E+02  0.22553E+05
 0.68752998E+02  0.22228E+05
 0.68803001E+02  0.22794E+05
 0.68853004E+02  0.23471E+05
 0.68903000E+02  0.23592E+05
 0.68953003E+02  0.23206E+05
 0.69002998E+02  0.22982E+05
 0.69053001E+02  0.23364E+05
 0.69103004E+02  0.24146E+05
 0.69153000E+02  0.25065E+05
 0.69203003E+02  0.25076E+05
 0.69252998E+02  0.23751E+05
 0.69303001E+02  0.21578E+05
 0.69353004E+02  0.20130E+05
 0.69403000E+02  0.19935E+05
 0.69453003E+02  0.20922E+05
 0.69502998E+02  0.22733E+05
 0.69553001E+02  0.23967E+05
 0.69603004E+02  0.24607E+05
 0.69653000E+02  0.25075E+05
 0.69703003E+02  0.25092E+05
 0.69752998E+02  0.25056E+05
 0.69803001E+02  0.24533E+05
 0.69853004E+02  0.23747E+05
 0.69903000E+02  0.23378E+05
 0.69953003E+02  0.23259E+05
 0.70002998E+02  0.23361E+05
 0.70053001E+02  0.23122E+05
 0.70103004E+02  0.23062E+05
 0.70153000E+02  0.23239E+05
 0.70203003E+02  0.23444E+05
 0.70252998E+02  0.23648E+05
 0.70303001E+02  0.24105E+05
 0.70353004E+02  0.24136E+05
 0.70403000E+02  0.23230E+05
 0.70453003E+02  0.22809E+05
 0.70502998E+02  0.22914E+05
 0.70553001E+02  0.22778E+05
 0.70603004E+02  0.22474E+05
 0.70653000E+02  0.22306E+05
 0.70703003E+02  0.22210E+05
 0.70752998E+02  0.22300E+05
 0.70803001E+02  0.22517E+05
 0.70853004E+02  0.22294E+05
 0.70903000E+02  0.21974E+05
 0.70953003E+02  0.22102E+05
 0.71002998E+02  0.22613E+05
 0.71053001E+02  0.23292E+05
 0.71103004E+02  0.23666E+05
 0.71153000E+02  0.23751E+05
 0.71203003E+02  0.24126E+05
 0.71252998E+02  0.24610E+05
 0.71303001E+02  0.24893E+05
 0.71353004E+02  0.25222E+05
 0.71403000E+02  0.25370E+05
 0.71453003E+02  0.25180E+05
 0.71502998E+02  0.24727E+05
 0.71553001E+02  0.23729E+05
 0.71603004E+02  0.22884E+05
 0.71653000E+02  0.22367E+05
 0.71703003E+02  0.21747E+05
 0.71752998E+02  0.21847E+05
 0.71803001E+02  0.21981E+05
 0.71853004E+02  0.22038E+05
 0.71903000E+02  0.22319E+05
 0.71953003E+02  0.22698E+05
 0.72002998E+02  0.23183E+05
 0.72053001E+02  0.23329E+05
 0.72103004E+02  0.23433E+05
 0.72153000E+02  0.23416E+05
 0.72203003E+02  0.23538E+05
 0.72252998E+02  0.23632E+05
 0.72303001E+02  0.23108E+05
 0.72353004E+02  0.22685E+05
 0.72403000E+02  0.22589E+05
 0.72453003E+02  0.22385E+05
 0.72502998E+02  0.22447E+05
 0.72553001E+02  0.22835E+05
 0.72603004E+02  0.22849E+05
 0.72653000E+02  0.22345E+05
 0.72703003E+02  0.21904E+05
 0.72752998E+02  0.21849E+05
 0.72803001E+02  0.22238E+05
 0.72853004E+02  0.22747E+05
 0.72903000E+02  0.22939E+05
 0.72953003E+02  0.22822E+05
 0.73002998E+02  0.22734E+05
 0.73053001E+02  0.22617E+05
 0.73103004E+02  0.22622E+05
 0.73153000E+02  0.23323E+05
 0.73203003E+02  0.24283E+05
 0.73252998E+02  0.24841E+05
 0.73303001E+02  0.24712E+05
 0.73353004E+02  0.24457E+05
 0.73403000E+02  0.24292E+05
 0.73453003E+02  0.24205E+05
 0.73502998E+02  0.23904E+05
 0.73553001E+02  0.23206E+05
 0.73603004E+02  0.22716E+05
 0.73653000E+02  0.22643E+05
 0.73703003E+02  0.22605E+05
 0.73752998E+02  0.22633E+05
 0.73803001E+02  0.23070E+05
 0.73853004E+02  0.23417E+05
 0.73903000E+02  0.23610E+05
 0.73953003E+02  0.23684E+05
 0.74002998E+02  0.23822E+05
 0.74053001E+02  0.23789E+05
 0.74103004E+02  0.23664E+05
 0.74153000E+02  0.23733E+05
 0.74203003E+02  0.23649E+05
 0.74252998E+02  0.23764E+05
 0.74303001E+02  0.24159E+05
 0.74353004E+02  0.24135E+05
 0.74403000E+02  0.23628E+05
 0.74453003E+02  0.23361E+05
 0.74502998E+02  0.23605E+05
 0.74553001E+02  0.23772E+05
 0.74603004E+02  0.23740E+05
 0.74653000E+02  0.23468E+05
 0.74703003E+02  0.22853E+05
 0.74752998E+02  0.22646E+05
 0.74803001E+02  0.22660E+05
 0.74853004E+02  0.23133E+05
 0.74903000E+02  0.23506E+05
 0.74953003E+02  0.23232E+05
 0.75002998E+02  0.22852E+05
 0.75053001E+02  0.22498E+05
 0.75103004E+02  0.22454E+05
 0.75153000E+02  0.22530E+05
 0.75203003E+02  0.22572E+05
 0.75252998E+02  0.22482E+05
 0.75303001E+02  0.22392E+05
 0.75353004E+02  0.22411E+05
 0.75403000E+02  0.22963E+05
 0.75453003E+02  0.23706E+05
 0.75502998E+02  0.23981E+05
 0.75553001E+02  0.23797E+05
 0.75603004E+02  0.23427E+05
 0.75653000E+02  0.23339E+05
 0.75703003E+02  0.23269E+05
 0.75752998E+02  0.22995E+05
 0.75803001E+02  0.22901E+05
 0.75853004E+02  0.23009E+05
 0.75903000E+02  0.23048E+05
 0.75953003E+02  0.22775E+05
 0.76002998E+02  0.22265E+05
 0.76053001E+02  0.22042E+05
 0.76103004E+02  0.22260E+05
 0.76153000E+02  0.22464E+05
 0.76203003E+02  0.22807E+05
 0.76252998E+02  0.23299E+05
 0.76303001E+02  0.23187E+05
 0.76353004E+02  0.22912E+05
 0.76403000E+02  0.22960E+05
 0.76453003E+02  0.23340E+05
 0.76502998E+02  0.23916E+05
 0.76553001E+02  0.24439E+05
 0.76603004E+02  0.24893E+05
 0.76653000E+02  0.24986E+05
 0.76703003E+02  0.24885E+05
 0.76752998E+02  0.24561E+05
 0.76803001E+02  0.23803E+05
 0.76853004E+02  0.23203E+05
 0.76903000E+02  0.22855E+05
 0.76953003E+02  0.22443E+05
 0.77002998E+02  0.22202E+05
 0.77053001E+02  0.22427E+05
 0.77103004E+02  0.22801E+05
 0.77153000E+02  0.22747E+05
 0.77203003E+02  0.22257E+05
 0.77252998E+02  0.21822E+05
 0.77303001E+02  0.21929E+05
 0.77353004E+02  0.22444E+05
 0.77403000E+02  0.22704E+05
 0.77453003E+02  0.22896E+05
 0.77502998E+02  0.23157E+05
 0.77553001E+02  0.23396E+05
 0.77603004E+02  0.23569E+05
 0.77653000E+02  0.23444E+05
 0.77703003E+02  0.23314E+05
 0.77752998E+02  0.23519E+05
 0.77803001E+02  0.23688E+05
 0.77853004E+02  0.23223E+05
 0.77903000E+02  0.22848E+05
 0.77953003E+02  0.22933E+05
 0.78002998E+02  0.23231E+05
 0.78053001E+02  0.23666E+05
 0.78103004E+02  0.24275E+05
 0.78153000E+02  0.24600E+05
 0.78203003E+02  0.24472E+05
 0.78252998E+02  0.24386E+05
 0.78303001E+02  0.24181E+05
 0.78353004E+02  0.23624E+05
 0.78403000E+02  0.23128E+05
 0.78453003E+02  0.23035E+05
 0.78502998E+02  0.22867E+05
 0.78553001E+02  0.22677E+05
 0.78603004E+02  0.22589E+05
 0.78653000E+02  0.22784E+05
 0.78703003E+02  0.23409E+05
 0.78752998E+02  0.24069E+05
 0.78803001E+02  0.24179E+05
 0.78853004E+02  0.23964E+05
 0.78903000E+02  0.23743E+05
 0.78953003E+02  0.23392E+05
 0.79002998E+02  0.22979E+05
 0.79053001E+02  0.22422E+05
 0.79103004E+02  0.21952E+05
 0.79153000E+02  0.21817E+05
 0.79203003E+02  0.22128E+05
 0.79252998E+02  0.22319E+05
 0.79303001E+02  0.22240E+05
 0.79353004E+02  0.22309E+05
 0.79403000E+02  0.22482E+05
 0.79453003E+02  0.22591E+05
 0.79502998E+02  0.22740E+05
 0.79553001E+02  0.23075E+05
 0.79603004E+02  0.23395E+05
 0.79653000E+02  0.23480E+05
 0.79703003E+02  0.23501E+05
 0.79752998E+02  0.23663E+05
 0.79803001E+02  0.24114E+05
 0.79853004E+02  0.24587E+05
 0.79903000E+02  0.24970E+05
 0.79953003E+02  0.25239E+05
 0.80002998E+02  0.25075E+05
 0.80053001E+02  0.24612E+05
 0.80103004E+02  0.23970E+05
 0.80153000E+02  0.23520E+05
 0.80203003E+02  0.22995E+05
 0.80252998E+02  0.22634E+05
 0.80303001E+02  0.22842E+05
 0.80353004E+02  0.23028E+05
 0.80403000E+02  0.23096E+05
 0.80453003E+02  0.23442E+05
 0.80502998E+02  0.23710E+05
 0.80553001E+02  0.23555E+05
 0.80603004E+02  0.23203E+05
 0.80653000E+02  0.22839E+05
 0.80703003E+02  0.22736E+05
 0.80752998E+02  0.22700E+05
 0.80803001E+02  0.22809E+05
 0.80853004E+02  0.23080E+05
 0.80903000E+02  0.23536E+05
 0.80953003E+02  0.23786E+05
 0.81002998E+02  0.23361E+05
 0.81053001E+02  0.22645E+05
 0.81103004E+02  0.22238E+05
 0.81153000E+02  0.22660E+05
 0.81203003E+02  0.23468E+05
 0.81252998E+02  0.23721E+05
 0.81303001E+02  0.23079E+05
 0.81353004E+02  0.22542E+05
 0.81403000E+02  0.22593E+05
 0.81453003E+02  0.22663E+05
 0.81502998E+02  0.22718E+05
 0.81553001E+02  0.22979E+05
 0.81603004E+02  0.23419E+05
 0.81653000E+02  0.23791E+05
 0.81703003E+02  0.23692E+05
 0.81752998E+02  0.23253E+05
 0.81803001E+02  0.23066E+05
 0.81853004E+02  0.23379E+05
 0.81903000E+02  0.23847E+05
 0.81953003E+02  0.23854E+05
 0.82002998E+02  0.23416E+05
 0.82053001E+02  0.23018E+05
 0.82103004E+02  0.22871E+05
 0.82153000E+02  0.22850E+05
 0.82203003E+02  0.23038E+05
 0.82252998E+02  0.23212E+05
 0.82303001E+02  0.23148E+05
 0.82353004E+02  0.22955E+05
 0.82403000E+02  0.22680E+05
 0.82453003E+02  0.22488E+05
 0.82502998E+02  0.22275E+05
 0.82553001E+02  0.22266E+05
 0.82603004E+02  0.22426E+05
 0.82653000E+02  0.22536E+05
 0.82703003E+02  0.22899E+05
 0.82752998E+02  0.23354E+05
 0.82803001E+02  0.23659E+05
 0.82853004E+02  0.23731E+05
 0.82903000E+02  0.23846E+05
 0.82953003E+02  0.24113E+05
 0.83002998E+02  0.24266E+05
 0.83053001E+02  0.24206E+05
 0.83103004E+02  0.23966E+05
 0.83153000E+02  0.23900E+05
 0.83203003E+02  0.23754E+05
 0.83252998E+02  0.23368E+05
 0.83303001E+02  0.22870E+05
 0.83353004E+02  0.22362E+05
 0.83403000E+02  0.22023E+05
 0.83453003E+02  0.22023E+05
 0.83502998E+02  0.22329E+05
 0.83553001E+02  0.22294E+05
 0.83603004E+02  0.22139E+05
 0.83653000E+02  0.22371E+05
 0.83703003E+02  0.22660E+05
 0.83752998E+02  0.22541E+05
 0.83803001E+02  0.22321E+05
 0.83853004E+02  0.22354E+05
 0.83903000E+02  0.22752E+05
 0.83953003E+02  0.23147E+05
 0.84002998E+02  0.23314E+05
 0.84053001E+02  0.23516E+05
 0.84103004E+02  0.23629E+05
 0.84153000E+02  0.23748E+05
 0.84203003E+02  0.23798E+05
 0.84252998E+02  0.23642E+05
 0.84303001E+02  0.23497E+05
 0.84353004E+02  0.23573E+05
 0.84403000E+02  0.23707E+05
 0.84453003E+02  0.23639E+05
 0.84502998E+02  0.23730E+05
 0.84553001E+02  0.23972E+05
 0.84603004E+02  0.24063E+05
 0.84653000E+02  0.23991E+05
 0.84703003E+02  0.23638E+05
 0.84752998E+02  0.23390E+05
 0.84803001E+02  0.23517E+05
 0.84853004E+02  0.23673E+05
 0.84903000E+02  0.23592E+05
 0.84953003E+02  0.23699E+05
 0.85002998E+02  0.23864E+05
 0.85053001E+02  0.23828E+05
 0.85103004E+02  0.23699E+05
 0.85153000E+02  0.23244E+05
 0.85203003E+02  0.22581E+05
 0.85252998E+02  0.22222E+05
 0.85303001E+02  0.22417E+05
 0.85353004E+02  0.22754E+05
 0.85403000E+02  0.23028E+05
 0.85453003E+02  0.23119E+05
 0.85502998E+02  0.22909E+05
 0.85553001E+02  0.22744E+05
 0.85603004E+02  0.22753E+05
 0.85653000E+02  0.22975E+05
 0.85703003E+02  0.23253E+05
 0.85752998E+02  0.23501E+05
 0.85803001E+02  0.23885E+05
 0.85853004E+02  0.23922E+05
 0.85903000E+02  0.23711E+05
 0.85953003E+02  0.23652E+05
 0.86002998E+02  0.23507E+05
 0.86053001E+02  0.23225E+05
 0.86103004E+02  0.22893E+05
 0.86153000E+02  0.22696E+05
 0.86203003E+02  0.22958E+05
 0.86252998E+02  0.23363E+05
 0.86303001E+02  0.23370E+05
 0.86353004E+02  0.23093E+05
 0.86403000E+02  0.23009E+05
 0.86453003E+02  0.22993E+05
 0.86502998E+02  0.23084E+05
 0.86553001E+02  0.23446E+05
 0.86603004E+02  0.23828E+05
 0.86653000E+02  0.24276E+05
 0.86703003E+02  0.24474E+05
 0.86752998E+02  0.24379E+05
 0.86803001E+02  0.24020E+05
 0.86853004E+02  0.23573E+05
 0.86903000E+02  0.23267E+05
 0.86953003E+02  0.22942E+05
 0.87002998E+02  0.22652E+05
 0.87053001E+02  0.22313E+05
 0.87103004E+02  0.22216E+05
 0.87153000E+02  0.22325E+05
 0.87203003E+02  0.22451E+05
 0.87252998E+02  0.22760E+05
 0.87303001E+02  0.23043E+05
 0.87353004E+02  0.23218E+05
 0.87403000E+02  0.23321E+05
 0.87453003E+02  0.23066E+05
 0.87502998E+02  0.22657E+05
 0.87553001E+02  0.22628E+05
 0.87602997E+02  0.22706E+05
 0.87653000E+02  0.22574E+05
 0.87703003E+02  0.22340E+05
 0.87752998E+02  0.22394E+05
 0.87803001E+02  0.22815E+05
 0.87852997E+02  0.23355E+05
 0.87903000E+02  0.23806E+05
 0.87953003E+02  0.24220E+05
 0.88002998E+02  0.24273E+05
 0.88053001E+02  0.23932E+05
 0.88102997E+02  0.23812E+05
 0.88153000E+02  0.23790E+05
 0.88203003E+02  0.23812E+05
 0.88252998E+02  0.23820E+05
 0.88303001E+02  0.23759E+05
 0.88352997E+02  0.23730E+05
 0.88403000E+02  0.23678E+05
 0.88453003E+02  0.23504E+05
 0.88502998E+02  0.23395E+05
 0.88553001E+02  0.23409E+05
 0.88602997E+02  0.23349E+05
 0.88653000E+02  0.23175E+05
 0.88703003E+02  0.22894E+05
 0.88752998E+02  0.22753E+05
 0.88803001E+02  0.22761E+05
 0.88852997E+02  0.22642E+05
 0.88903000E+02  0.22550E+05
 0.88953003E+02  0.22612E+05
 0.89002998E+02  0.22658E+05
 0.89053001E+02  0.22624E+05
 0.89102997E+02  0.22511E+05
 0.89153000E+02  0.22335E+05
 0.89203003E+02  0.22327E+05
 0.89252998E+02  0.22738E+05
 0.89303001E+02  0.23190E+05
 0.89352997E+02  0.23475E+05
 0.89403000E+02  0.23582E+05
 0.89453003E+02  0.23639E+05
 0.89502998E+02  0.23796E+05
 0.89553001E+02  0.23771E+05
 0.89602997E+02  0.23418E+05
 0.89653000E+02  0.22843E+05
 0.89703003E+02  0.22149E+05
 0.89752998E+02  0.21714E+05
 0.89803001E+02  0.22045E+05
 0.89852997E+02  0.22631E+05
 0.89903000E+02  0.22994E+05
 0.89953003E+02  0.23115E+05
 0.90002998E+02  0.22953E+05
 0.90053001E+02  0.22883E+05
 0.90102997E+02  0.23151E+05
 0.90153000E+02  0.23735E+05
 0.90203003E+02  0.24041E+05
 0.90252998E+02  0.23975E+05
 0.90303001E+02  0.24026E+05
 0.90352997E+02  0.24223E+05
 0.90403000E+02  0.24409E+05
 0.90453003E+02  0.24401E+05
 0.90502998E+02  0.24265E+05
 0.90553001E+02  0.24019E+05
 0.90602997E+02  0.23757E+05
 0.90653000E+02  0.23691E+05
 0.90703003E+02  0.23624E+05
 0.90752998E+02  0.23439E+05
 0.90803001E+02  0.23274E+05
 0.90852997E+02  0.23116E+05
 0.90903000E+02  0.22891E+05
 0.90953003E+02  0.22662E+05
 0.91002998E+02  0.22733E+05
 0.91053001E+02  0.22860E+05
 0.91102997E+02  0.22889E+05
 0.91153000E+02  0.22719E+05
 0.91203003E+02  0.22453E+05
 0.91252998E+02  0.22569E+05
 0.91303001E+02  0.22804E+05
 0.91352997E+02  0.22791E+05
 0.91403000E+02  0.22571E+05
 0.91453003E+02  0.22551E+05
 0.91502998E+02  0.22759E+05
 0.91553001E+02  0.23135E+05
 0.91602997E+02  0.23420E+05
 0.91653000E+02  0.23382E+05
 0.91703003E+02  0.23321E+05
 0.91752998E+02  0.23217E+05
 0.91803001E+02  0.23233E+05
 0.91852997E+02  0.23348E+05
 0.91903000E+02  0.23319E+05
 0.91953003E+02  0.23239E+05
 0.92002998E+02  0.23299E+05
 0.92053001E+02  0.23509E+05
 0.92102997E+02  0.23527E+05
 0.92153000E+02  0.23327E+05
 0.92203003E+02  0.23307E+05
 0.92252998E+02  0.23537E+05
 0.92303001E+02  0.23725E+05
 0.92352997E+02  0.23671E+05
 0.92403000E+02  0.23647E+05
 0.92453003E+02  0.23593E+05
 0.92502998E+02  0.23483E+05
 0.92553001E+02  0.23698E+05
 0.92602997E+02  0.23942E+05
 0.92653000E+02  0.23791E+05
 0.92703003E+02  0.23408E+05
 0.92752998E+02  0.22934E+05
 0.92803001E+02  0.22349E+05
 0.92852997E+02  0.21953E+05
 0.92903000E+02  0.21939E+05
 0.92953003E+02  0.22257E+05
 0.93002998E+02  0.22680E+05
 0.93053001E+02  0.23145E+05
 0.93102997E+02  0.23666E+05
 0.93153000E+02  0.23982E+05
 0.93203003E+02  0.23978E+05
 0.93252998E+02  0.23826E+05
 0.93303001E+02  0.23439E+05
 0.93352997E+02  0.22983E+05
 0.93403000E+02  0.22995E+05
 0.93453003E+02  0.23219E+05
 0.93502998E+02  0.23371E+05
 0.93553001E+02  0.23477E+05
 0.93602997E+02  0.23430E+05
 0.93653000E+02  0.23347E+05
 0.93703003E+02  0.23118E+05
 0.93752998E+02  0.22828E+05
 0.93803001E+02  0.22628E+05
 0.93852997E+02  0.22583E+05
 0.93903000E+02  0.22821E+05
 0.93953003E+02  0.23165E+05
 0.94002998E+02  0.23456E+05
 0.94053001E+02  0.23631E+05
 0.94102997E+02  0.23673E+05
 0.94153000E+02  0.23717E+05
 0.94203003E+02  0.23734E+05
 0.94252998E+02  0.23501E+05
 0.94303001E+02  0.23370E+05
 0.94352997E+02  0.23613E+05
 0.94403000E+02  0.23741E+05
 0.94453003E+02  0.23598E+05
 0.94502998E+02  0.23290E+05
 0.94553001E+02  0.22876E+05
 0.94602997E+02  0.22619E+05
 0.94653000E+02  0.22582E+05
 0.94703003E+02  0.22596E+05
 0.94752998E+02  0.22615E+05
 0.94803001E+02  0.22826E+05
 0.94852997E+02  0.23199E+05
 0.94903000E+02  0.23514E+05
 0.94953003E+02  0.23600E+05
 0.95002998E+02  0.23545E+05
 0.95053001E+02  0.23456E+05
 0.95102997E+02  0.23385E+05
 0.95153000E+02  0.23442E+05
 0.95203003E+02  0.23577E+05
 0.95252998E+02  0.23639E+05
 0.95303001E+02  0.23447E+05
 0.95352997E+02  0.23105E+05
 0.95403000E+02  0.22909E+05
 0.95453003E+02  0.22841E+05
 0.95502998E+02  0.22808E+05
 0.95553001E+02  0.22834E+05
 0.95602997E+02  0.22845E+05
 0.95653000E+02  0.22870E+05
 0.95703003E+02  0.22859E+05
 0.95752998E+02  0.22857E+05
 0.95803001E+02  0.23022E+05
 0.95852997E+02  0.23120E+05
 0.95903000E+02  0.23132E+05
 0.95953003E+02  0.23112E+05
 0.96002998E+02  0.23086E+05
 0.96053001E+02  0.23161E+05
 0.96102997E+02  0.23260E+05
 0.96153000E+02  0.23437E+05
 0.96203003E+02  0.23609E+05
 0.96252998E+02  0.23591E+05
 0.96303001E+02  0.23620E+05
 0.96352997E+02  0.23781E+05
 0.96403000E+02  0.24022E+05
 0.96453003E+02  0.24264E+05
 0.96502998E+02  0.24290E+05
 0.96553001E+02  0.24095E+05
 0.96602997E+02  0.23675E+05
 0.96653000E+02  0.23353E+05
 0.96703003E+02  0.23149E+05
 0.96752998E+02  0.22894E+05
 0.96803001E+02  0.22656E+05
 0.96852997E+02  0.22488E+05
 0.96903000E+02  0.22562E+05
 0.96953003E+02  0.22876E+05
 0.97002998E+02  0.23181E+05
 0.97053001E+02  0.23352E+05
 0.97102997E+02  0.23477E+05
 0.97153000E+02  0.23406E+05
 0.97203003E+02  0.23151E+05
 0.97252998E+02  0.22821E+05
 0.97303001E+02  0.22593E+05
 0.97352997E+02  0.22502E+05
 0.97403000E+02  0.22383E+05
 0.97453003E+02  0.22178E+05
 0.97502998E+02  0.22148E+05
 0.97553001E+02  0.22419E+05
 0.97602997E+02  0.22685E+05
 0.97653000E+02  0.22792E+05
 0.97703003E+02  0.22738E+05
 0.97752998E+02  0.22812E+05
 0.97803001E+02  0.23062E+05
 0.97852997E+02  0.23299E+05
 0.97903000E+02  0.23333E+05
 0.97953003E+02  0.23264E+05
 0.98002998E+02  0.23405E+05
