-0.20000000E+01  0.35565E+03
-0.19500000E+01  0.34911E+03
-0.19000000E+01  0.34274E+03
-0.18500000E+01  0.33918E+03
-0.18000000E+01  0.33918E+03
-0.17500000E+01  0.34036E+03
-0.17000000E+01  0.34059E+03
-0.16500001E+01  0.34180E+03
-0.16000000E+01  0.34957E+03
-0.15500000E+01  0.35077E+03
-0.15000000E+01  0.34759E+03
-0.14500000E+01  0.35047E+03
-0.14000001E+01  0.35345E+03
-0.13500000E+01  0.35811E+03
-0.13000001E+01  0.35918E+03
-0.12500000E+01  0.35921E+03
-0.12000000E+01  0.35669E+03
-0.11500001E+01  0.35288E+03
-0.11000000E+01  0.35533E+03
-0.10500001E+01  0.35740E+03
-0.10000000E+01  0.35642E+03
-0.95000005E+00  0.35126E+03
-0.90000010E+00  0.34757E+03
-0.85000002E+00  0.34642E+03
-0.80000007E+00  0.34304E+03
-0.75000012E+00  0.34121E+03
-0.70000005E+00  0.34257E+03
-0.65000010E+00  0.33549E+03
-0.60000014E+00  0.33267E+03
-0.55000007E+00  0.33334E+03
-0.50000012E+00  0.33568E+03
-0.45000005E+00  0.33278E+03
-0.40000010E+00  0.32855E+03
-0.35000014E+00  0.32819E+03
-0.30000007E+00  0.32820E+03
-0.25000012E+00  0.33396E+03
-0.20000005E+00  0.33292E+03
-0.15000010E+00  0.33426E+03
-0.10000014E+00  0.33832E+03
-0.50000072E-01  0.35333E+03
-0.11920929E-06  0.36271E+03
 0.49999952E-01  0.36021E+03
 0.99999905E-01  0.36669E+03
 0.14999986E+00  0.37350E+03
 0.19999981E+00  0.37563E+03
 0.24999976E+00  0.37531E+03
 0.29999995E+00  0.37184E+03
 0.34999990E+00  0.37724E+03
 0.39999986E+00  0.37615E+03
 0.44999981E+00  0.37177E+03
 0.49999976E+00  0.36459E+03
 0.54999995E+00  0.36021E+03
 0.59999990E+00  0.36226E+03
 0.64999986E+00  0.35750E+03
 0.69999981E+00  0.35458E+03
 0.74999976E+00  0.35085E+03
 0.79999971E+00  0.34894E+03
 0.84999990E+00  0.35576E+03
 0.89999986E+00  0.36027E+03
 0.94999981E+00  0.34899E+03
 0.99999976E+00  0.35933E+03
 0.10499997E+01  0.36206E+03
 0.10999999E+01  0.36101E+03
 0.11499999E+01  0.36131E+03
 0.11999998E+01  0.35870E+03
 0.12499998E+01  0.36719E+03
 0.12999997E+01  0.35900E+03
 0.13499999E+01  0.36657E+03
 0.13999999E+01  0.36520E+03
 0.14499998E+01  0.36274E+03
 0.14999998E+01  0.36193E+03
 0.15499997E+01  0.35534E+03
 0.15999999E+01  0.35711E+03
 0.16499999E+01  0.35458E+03
 0.16999998E+01  0.35920E+03
 0.17499998E+01  0.35857E+03
 0.17999997E+01  0.36048E+03
 0.18499997E+01  0.36157E+03
 0.18999999E+01  0.36201E+03
 0.19499998E+01  0.35798E+03
 0.19999998E+01  0.34836E+03
 0.20499997E+01  0.35038E+03
 0.20999999E+01  0.34960E+03
 0.21499996E+01  0.34737E+03
 0.21999998E+01  0.35047E+03
 0.22499995E+01  0.35589E+03
 0.22999997E+01  0.36016E+03
 0.23499999E+01  0.35776E+03
 0.23999996E+01  0.35065E+03
 0.24499998E+01  0.34469E+03
 0.24999995E+01  0.34064E+03
 0.25499997E+01  0.34064E+03
 0.25999999E+01  0.34423E+03
 0.26499996E+01  0.33790E+03
 0.26999998E+01  0.33693E+03
 0.27499995E+01  0.34460E+03
 0.27999997E+01  0.35044E+03
 0.28499999E+01  0.35050E+03
 0.28999996E+01  0.35092E+03
 0.29499998E+01  0.35926E+03
 0.29999995E+01  0.36062E+03
 0.30499997E+01  0.36226E+03
 0.30999999E+01  0.36773E+03
 0.31499996E+01  0.37230E+03
 0.31999998E+01  0.37237E+03
 0.32499995E+01  0.37058E+03
 0.32999997E+01  0.37073E+03
 0.33499999E+01  0.37427E+03
 0.33999996E+01  0.37930E+03
 0.34499998E+01  0.37344E+03
 0.34999995E+01  0.37106E+03
 0.35499997E+01  0.37117E+03
 0.35999994E+01  0.36484E+03
 0.36499996E+01  0.36517E+03
 0.36999998E+01  0.36200E+03
 0.37499995E+01  0.35964E+03
 0.37999997E+01  0.36290E+03
 0.38499994E+01  0.35766E+03
 0.38999996E+01  0.36003E+03
 0.39499998E+01  0.35251E+03
 0.39999995E+01  0.34784E+03
 0.40499997E+01  0.35542E+03
 0.40999994E+01  0.35057E+03
 0.41499996E+01  0.35363E+03
 0.41999998E+01  0.35644E+03
 0.42499995E+01  0.35450E+03
 0.42999997E+01  0.35403E+03
 0.43499994E+01  0.34824E+03
 0.43999996E+01  0.34476E+03
 0.44499998E+01  0.35062E+03
 0.44999995E+01  0.35169E+03
 0.45499997E+01  0.35471E+03
 0.45999994E+01  0.35392E+03
 0.46499996E+01  0.35414E+03
 0.46999998E+01  0.35881E+03
 0.47499995E+01  0.35742E+03
 0.47999997E+01  0.36178E+03
 0.48499994E+01  0.36609E+03
 0.48999996E+01  0.37155E+03
 0.49499998E+01  0.36905E+03
 0.49999995E+01  0.36588E+03
 0.50499997E+01  0.36875E+03
 0.50999994E+01  0.37123E+03
 0.51499996E+01  0.37026E+03
 0.51999998E+01  0.36450E+03
 0.52499995E+01  0.36743E+03
 0.52999997E+01  0.36862E+03
 0.53499994E+01  0.36348E+03
 0.53999996E+01  0.35425E+03
 0.54499993E+01  0.34397E+03
 0.54999995E+01  0.34537E+03
 0.55499997E+01  0.34677E+03
 0.55999994E+01  0.34266E+03
 0.56499996E+01  0.34698E+03
 0.56999993E+01  0.34711E+03
 0.57499995E+01  0.34543E+03
 0.57999997E+01  0.34540E+03
 0.58499994E+01  0.34885E+03
 0.58999996E+01  0.35214E+03
 0.59499993E+01  0.35154E+03
 0.59999995E+01  0.35409E+03
 0.60499992E+01  0.35299E+03
 0.60999994E+01  0.35045E+03
 0.61499996E+01  0.35203E+03
 0.61999998E+01  0.35061E+03
 0.62499990E+01  0.34237E+03
 0.62999992E+01  0.34047E+03
 0.63499994E+01  0.34222E+03
 0.63999996E+01  0.34037E+03
 0.64499998E+01  0.33647E+03
 0.64999990E+01  0.34006E+03
 0.65499992E+01  0.35005E+03
 0.65999994E+01  0.35914E+03
 0.66499996E+01  0.36639E+03
 0.66999998E+01  0.36689E+03
 0.67499990E+01  0.36688E+03
 0.67999992E+01  0.37064E+03
 0.68499994E+01  0.36760E+03
 0.68999996E+01  0.36313E+03
 0.69499998E+01  0.35371E+03
 0.69999990E+01  0.35349E+03
 0.70499992E+01  0.35526E+03
 0.70999994E+01  0.34729E+03
 0.71499996E+01  0.34818E+03
 0.71999998E+01  0.35282E+03
 0.72499990E+01  0.34743E+03
 0.72999992E+01  0.34316E+03
 0.73499994E+01  0.34118E+03
 0.73999996E+01  0.34323E+03
 0.74499998E+01  0.34918E+03
 0.74999990E+01  0.34754E+03
 0.75499992E+01  0.34845E+03
 0.75999994E+01  0.34286E+03
 0.76499996E+01  0.34709E+03
 0.76999998E+01  0.35093E+03
 0.77499990E+01  0.34635E+03
 0.77999992E+01  0.34586E+03
 0.78499994E+01  0.34795E+03
 0.78999996E+01  0.35106E+03
 0.79499998E+01  0.35168E+03
 0.79999990E+01  0.34939E+03
 0.80499992E+01  0.35409E+03
 0.80999994E+01  0.36132E+03
 0.81499996E+01  0.36387E+03
 0.81999998E+01  0.36827E+03
 0.82499990E+01  0.37728E+03
 0.82999992E+01  0.38908E+03
 0.83499994E+01  0.38768E+03
 0.83999996E+01  0.38268E+03
 0.84499998E+01  0.38416E+03
 0.84999990E+01  0.38692E+03
 0.85499992E+01  0.38374E+03
 0.85999994E+01  0.37472E+03
 0.86499996E+01  0.36797E+03
 0.86999998E+01  0.36820E+03
 0.87499990E+01  0.35847E+03
 0.87999992E+01  0.34611E+03
 0.88499994E+01  0.33890E+03
 0.88999996E+01  0.33136E+03
 0.89499998E+01  0.33211E+03
 0.89999990E+01  0.33004E+03
 0.90499992E+01  0.32823E+03
 0.90999994E+01  0.33106E+03
 0.91499996E+01  0.33398E+03
 0.91999989E+01  0.33206E+03
 0.92499990E+01  0.32971E+03
 0.92999992E+01  0.33210E+03
 0.93499994E+01  0.33945E+03
 0.93999996E+01  0.34407E+03
 0.94499989E+01  0.34422E+03
 0.94999990E+01  0.34498E+03
 0.95499992E+01  0.34771E+03
 0.95999994E+01  0.35476E+03
 0.96499996E+01  0.36073E+03
 0.96999989E+01  0.35904E+03
 0.97499990E+01  0.36222E+03
 0.97999992E+01  0.36506E+03
 0.98499994E+01  0.36119E+03
 0.98999996E+01  0.36102E+03
 0.99499989E+01  0.36406E+03
 0.99999990E+01  0.36945E+03
 0.10049999E+02  0.36839E+03
 0.10099999E+02  0.36812E+03
 0.10150000E+02  0.36952E+03
 0.10199999E+02  0.37482E+03
 0.10249999E+02  0.37721E+03
 0.10299999E+02  0.37664E+03
 0.10349999E+02  0.37555E+03
 0.10400000E+02  0.37778E+03
 0.10449999E+02  0.37620E+03
 0.10499999E+02  0.36341E+03
 0.10549999E+02  0.36047E+03
 0.10599999E+02  0.36213E+03
 0.10650000E+02  0.36562E+03
 0.10699999E+02  0.36737E+03
 0.10749999E+02  0.36262E+03
 0.10799999E+02  0.36390E+03
 0.10849999E+02  0.36744E+03
 0.10900000E+02  0.35762E+03
 0.10949999E+02  0.35039E+03
 0.10999999E+02  0.35182E+03
 0.11049999E+02  0.35649E+03
 0.11099999E+02  0.35879E+03
 0.11150000E+02  0.35662E+03
 0.11199999E+02  0.36072E+03
 0.11249999E+02  0.36433E+03
 0.11299999E+02  0.36620E+03
 0.11349999E+02  0.36607E+03
 0.11400000E+02  0.36310E+03
 0.11449999E+02  0.36548E+03
 0.11499999E+02  0.36530E+03
 0.11549999E+02  0.36131E+03
 0.11599999E+02  0.36101E+03
 0.11650000E+02  0.36393E+03
 0.11699999E+02  0.36745E+03
 0.11749999E+02  0.35826E+03
 0.11799999E+02  0.35128E+03
 0.11849999E+02  0.35054E+03
 0.11900000E+02  0.35158E+03
 0.11949999E+02  0.34504E+03
 0.11999999E+02  0.33601E+03
 0.12049999E+02  0.33437E+03
 0.12099999E+02  0.33676E+03
 0.12150000E+02  0.33613E+03
 0.12199999E+02  0.32619E+03
 0.12249999E+02  0.32271E+03
 0.12299999E+02  0.33080E+03
 0.12349999E+02  0.33471E+03
 0.12400000E+02  0.33648E+03
 0.12449999E+02  0.34190E+03
 0.12499999E+02  0.34242E+03
 0.12549999E+02  0.34518E+03
 0.12599999E+02  0.34702E+03
 0.12649999E+02  0.34794E+03
 0.12699999E+02  0.35378E+03
 0.12749999E+02  0.35788E+03
 0.12799999E+02  0.35985E+03
 0.12849999E+02  0.36032E+03
 0.12899999E+02  0.35902E+03
 0.12949999E+02  0.35911E+03
 0.12999999E+02  0.36144E+03
 0.13049999E+02  0.35430E+03
 0.13099999E+02  0.35074E+03
 0.13149999E+02  0.35940E+03
 0.13199999E+02  0.36313E+03
 0.13249999E+02  0.36729E+03
 0.13299999E+02  0.37029E+03
 0.13349999E+02  0.37284E+03
 0.13399999E+02  0.37028E+03
 0.13449999E+02  0.36973E+03
 0.13499999E+02  0.36084E+03
 0.13549999E+02  0.35321E+03
 0.13599999E+02  0.35958E+03
 0.13649999E+02  0.35656E+03
 0.13699999E+02  0.35328E+03
 0.13749999E+02  0.35490E+03
 0.13799999E+02  0.35193E+03
 0.13849999E+02  0.34846E+03
 0.13899999E+02  0.34942E+03
 0.13949999E+02  0.34750E+03
 0.13999999E+02  0.35437E+03
 0.14049999E+02  0.35628E+03
 0.14099998E+02  0.35572E+03
 0.14150000E+02  0.35832E+03
 0.14199999E+02  0.35670E+03
 0.14249998E+02  0.35624E+03
 0.14299999E+02  0.35228E+03
 0.14349998E+02  0.35135E+03
 0.14400000E+02  0.35431E+03
 0.14449999E+02  0.36008E+03
 0.14499998E+02  0.35516E+03
 0.14549999E+02  0.35464E+03
 0.14599998E+02  0.35480E+03
 0.14650000E+02  0.35479E+03
 0.14699999E+02  0.35871E+03
 0.14749998E+02  0.35497E+03
 0.14799999E+02  0.35881E+03
 0.14849998E+02  0.35974E+03
 0.14900000E+02  0.35553E+03
 0.14949999E+02  0.34928E+03
 0.14999998E+02  0.34221E+03
 0.15049999E+02  0.34196E+03
 0.15099998E+02  0.34581E+03
 0.15150000E+02  0.34141E+03
 0.15199999E+02  0.34122E+03
 0.15249998E+02  0.34274E+03
 0.15299999E+02  0.34454E+03
 0.15349998E+02  0.34172E+03
 0.15400000E+02  0.33987E+03
 0.15449999E+02  0.34669E+03
 0.15499998E+02  0.34957E+03
 0.15549999E+02  0.35187E+03
 0.15599998E+02  0.35216E+03
 0.15650000E+02  0.35514E+03
 0.15699999E+02  0.35850E+03
 0.15749998E+02  0.35924E+03
 0.15799999E+02  0.35464E+03
 0.15849998E+02  0.35745E+03
 0.15900000E+02  0.36469E+03
 0.15949999E+02  0.36689E+03
 0.15999998E+02  0.35638E+03
 0.16049999E+02  0.35054E+03
 0.16099998E+02  0.35263E+03
 0.16150000E+02  0.35126E+03
 0.16199999E+02  0.35460E+03
 0.16249998E+02  0.35565E+03
 0.16299999E+02  0.35687E+03
 0.16349998E+02  0.36141E+03
 0.16400000E+02  0.36216E+03
 0.16449999E+02  0.36275E+03
 0.16499998E+02  0.36774E+03
 0.16549999E+02  0.37279E+03
 0.16599998E+02  0.37101E+03
 0.16650000E+02  0.37026E+03
 0.16699999E+02  0.37474E+03
 0.16749998E+02  0.37181E+03
 0.16799999E+02  0.37109E+03
 0.16849998E+02  0.36932E+03
 0.16900000E+02  0.36708E+03
 0.16949999E+02  0.37137E+03
 0.16999998E+02  0.36864E+03
 0.17049999E+02  0.36773E+03
 0.17099998E+02  0.36519E+03
 0.17150000E+02  0.36434E+03
 0.17199999E+02  0.36263E+03
 0.17249998E+02  0.36009E+03
 0.17299999E+02  0.35470E+03
 0.17349998E+02  0.35113E+03
 0.17400000E+02  0.34918E+03
 0.17449999E+02  0.34728E+03
 0.17499998E+02  0.34808E+03
 0.17549999E+02  0.34046E+03
 0.17599998E+02  0.34026E+03
 0.17650000E+02  0.34072E+03
 0.17699999E+02  0.34375E+03
 0.17749998E+02  0.34525E+03
 0.17799999E+02  0.34334E+03
 0.17849998E+02  0.34476E+03
 0.17900000E+02  0.34747E+03
 0.17949999E+02  0.34983E+03
 0.17999998E+02  0.35522E+03
 0.18049999E+02  0.36552E+03
 0.18099998E+02  0.36507E+03
 0.18150000E+02  0.36273E+03
 0.18199999E+02  0.36225E+03
 0.18249998E+02  0.36160E+03
 0.18299999E+02  0.35757E+03
 0.18349998E+02  0.35189E+03
 0.18400000E+02  0.34996E+03
 0.18449999E+02  0.35568E+03
 0.18499998E+02  0.35604E+03
 0.18549999E+02  0.35564E+03
 0.18599998E+02  0.36313E+03
 0.18650000E+02  0.36276E+03
 0.18699999E+02  0.37128E+03
 0.18749998E+02  0.36105E+03
 0.18799999E+02  0.35533E+03
 0.18849998E+02  0.33827E+03
 0.18900000E+02  0.36170E+03
 0.18949999E+02  0.36161E+03
 0.18999998E+02  0.38476E+03
 0.19049999E+02  0.37473E+03
 0.19099998E+02  0.39206E+03
 0.19150000E+02  0.30545E+03
 0.19199999E+02  0.28998E+03
 0.19249998E+02  0.28562E+03
 0.19299999E+02  0.22802E+03
 0.19349998E+02  0.21061E+03
 0.19400000E+02  0.10968E+03
 0.19449999E+02  0.16649E+03
 0.19499998E+02  0.29079E+03
 0.19549999E+02  0.76353E+03
 0.19599998E+02  0.75529E+03
 0.19650000E+02  0.53408E+03
 0.19699999E+02  0.32164E+03
 0.19749998E+02  0.14429E+03
 0.19799999E+02  0.40955E+03
 0.19849998E+02  0.85172E+02
 0.19900000E+02 -0.53275E+03
 0.19949999E+02 -0.74878E+03
 0.19999998E+02 -0.34477E+03
 0.20049999E+02  0.31517E+03
 0.20099998E+02  0.80245E+03
 0.20150000E+02  0.15347E+04
 0.20199999E+02  0.11240E+04
 0.20249998E+02  0.10372E+04
 0.20299999E+02  0.11562E+04
 0.20349998E+02 -0.20889E+03
 0.20399998E+02 -0.40602E+03
 0.20449999E+02 -0.15054E+03
 0.20499998E+02  0.11528E+04
 0.20549999E+02  0.22721E+04
 0.20599998E+02  0.60535E+03
 0.20649998E+02 -0.61084E+03
 0.20699999E+02  0.19180E+01
 0.20749998E+02 -0.11430E+04
 0.20799999E+02 -0.13934E+03
 0.20849998E+02  0.96418E+03
 0.20899998E+02  0.15550E+04
 0.20949999E+02  0.37057E+03
 0.20999998E+02  0.31008E+03
 0.21049999E+02  0.24120E+03
 0.21099998E+02 -0.20385E+03
 0.21149998E+02  0.85103E+02
 0.21199999E+02 -0.84923E+02
 0.21249998E+02  0.13902E+04
 0.21299999E+02 -0.16395E+04
 0.21349998E+02  0.12458E+04
 0.21399998E+02 -0.28207E+04
 0.21449999E+02  0.15012E+04
 0.21499998E+02  0.18167E+04
 0.21549999E+02 -0.32580E+04
 0.21599998E+02  0.28843E+04
 0.21649998E+02  0.28163E+03
 0.21699999E+02  0.23969E+04
 0.21749998E+02  0.16250E+04
 0.21799999E+02  0.22237E+04
 0.21849998E+02  0.18769E+04
 0.21899998E+02 -0.94057E+03
 0.21949999E+02 -0.10873E+04
 0.21999998E+02 -0.18801E+04
 0.22049999E+02  0.95062E+03
 0.22099998E+02  0.39084E+03
 0.22149998E+02 -0.54539E+03
 0.22199999E+02 -0.80439E+03
 0.22249998E+02  0.75920E+03
 0.22299999E+02  0.11810E+04
 0.22349998E+02 -0.14744E+04
 0.22399998E+02  0.20844E+04
 0.22449999E+02  0.21316E+02
 0.22499998E+02 -0.78106E+03
 0.22549999E+02  0.11504E+04
 0.22599998E+02  0.11746E+04
 0.22649998E+02  0.21313E+04
 0.22699999E+02  0.25332E+04
 0.22749998E+02 -0.95425E+03
 0.22799999E+02 -0.16791E+04
 0.22849998E+02 -0.91511E+02
 0.22899998E+02 -0.18701E+04
 0.22949999E+02  0.15247E+04
 0.22999998E+02  0.73594E+02
 0.23049999E+02  0.41499E+04
 0.23099998E+02 -0.17885E+04
 0.23149998E+02  0.15783E+04
 0.23199999E+02  0.17715E+04
 0.23249998E+02 -0.24802E+04
 0.23299999E+02  0.15897E+04
 0.23349998E+02 -0.25013E+04
 0.23399998E+02  0.41397E+04
 0.23449999E+02 -0.23421E+04
 0.23499998E+02  0.21697E+04
 0.23549999E+02 -0.38122E+04
 0.23599998E+02 -0.21650E+04
 0.23649998E+02  0.17722E+04
 0.23699999E+02  0.95637E+03
 0.23749998E+02  0.55235E+04
 0.23799999E+02 -0.12925E+04
 0.23849998E+02  0.37143E+04
 0.23899998E+02 -0.15314E+03
 0.23949999E+02  0.32785E+03
 0.23999998E+02  0.40079E+03
 0.24049999E+02  0.11981E+04
 0.24099998E+02  0.14255E+04
 0.24149998E+02 -0.23457E+04
 0.24199999E+02  0.34254E+03
 0.24249998E+02 -0.25099E+03
 0.24299999E+02  0.16909E+03
 0.24349998E+02  0.31704E+03
 0.24399998E+02  0.11304E+04
 0.24449999E+02  0.28446E+03
 0.24499998E+02 -0.11568E+04
 0.24549999E+02  0.42752E+04
 0.24599998E+02 -0.18161E+04
 0.24649998E+02 -0.29666E+03
 0.24699999E+02  0.26827E+04
 0.24749998E+02 -0.21480E+04
 0.24799999E+02 -0.56786E+03
 0.24849998E+02 -0.69121E+03
 0.24899998E+02  0.17069E+04
 0.24949999E+02  0.11605E+04
 0.24999998E+02  0.14177E+04
 0.25049999E+02  0.11829E+04
 0.25099998E+02 -0.23007E+04
 0.25149998E+02  0.14576E+04
 0.25199999E+02  0.15396E+04
 0.25249998E+02  0.93590E+03
 0.25299999E+02 -0.32292E+04
 0.25349998E+02 -0.39218E+04
 0.25399998E+02  0.23133E+04
 0.25449999E+02  0.16269E+04
 0.25499998E+02  0.19995E+04
 0.25549999E+02  0.41220E+03
 0.25599998E+02  0.87594E+03
 0.25649998E+02 -0.31721E+04
 0.25699999E+02  0.20994E+04
 0.25749998E+02  0.35740E+03
 0.25799999E+02 -0.32194E+04
 0.25849998E+02  0.33951E+04
 0.25899998E+02  0.22981E+04
 0.25949999E+02  0.37857E+04
 0.25999998E+02 -0.46632E+04
 0.26049999E+02  0.13695E+04
 0.26099998E+02  0.22661E+04
 0.26149998E+02 -0.25575E+04
 0.26199999E+02  0.78162E+03
 0.26249998E+02  0.89646E+03
 0.26299999E+02 -0.10596E+03
 0.26349998E+02 -0.13410E+04
 0.26399998E+02  0.33634E+04
 0.26449999E+02 -0.10042E+03
 0.26499998E+02  0.62799E+03
 0.26549999E+02 -0.14669E+04
 0.26599998E+02 -0.19599E+04
 0.26649998E+02  0.28649E+04
 0.26699999E+02  0.36018E+03
 0.26749998E+02  0.19356E+04
 0.26799999E+02  0.15424E+04
 0.26849998E+02  0.24824E+04
 0.26899998E+02 -0.17172E+04
 0.26949999E+02 -0.20816E+04
 0.26999998E+02 -0.15218E+04
 0.27049997E+02  0.11724E+04
 0.27099998E+02  0.20285E+04
 0.27149998E+02  0.39304E+03
 0.27199999E+02  0.33764E+04
 0.27249998E+02 -0.15658E+04
 0.27299997E+02  0.14721E+04
 0.27349998E+02 -0.62338E+03
 0.27399998E+02 -0.10922E+04
 0.27449999E+02 -0.13194E+04
 0.27499998E+02  0.17245E+04
 0.27549997E+02  0.44651E+04
 0.27599998E+02 -0.25670E+04
 0.27649998E+02 -0.21015E+03
 0.27699999E+02  0.17790E+04
 0.27749998E+02 -0.24182E+04
 0.27799997E+02  0.14230E+04
 0.27849998E+02 -0.50646E+03
 0.27899998E+02  0.55799E+03
 0.27949999E+02  0.14267E+04
 0.27999998E+02 -0.14371E+04
 0.28049997E+02  0.21536E+04
 0.28099998E+02  0.24213E+03
 0.28149998E+02  0.15448E+02
 0.28199999E+02  0.14033E+04
 0.28249998E+02 -0.10115E+04
 0.28299997E+02  0.21085E+04
 0.28349998E+02  0.14981E+04
 0.28399998E+02 -0.37810E+04
 0.28449999E+02  0.40788E+04
 0.28499998E+02  0.15829E+04
 0.28549997E+02 -0.21422E+04
 0.28599998E+02 -0.20436E+03
 0.28649998E+02 -0.63563E+02
 0.28699999E+02  0.17629E+04
 0.28749998E+02 -0.75862E+03
 0.28799997E+02  0.72482E+03
 0.28849998E+02  0.26168E+03
 0.28899998E+02  0.45008E+03
 0.28949999E+02  0.83369E+03
 0.28999998E+02 -0.20086E+04
 0.29049997E+02  0.14329E+04
 0.29099998E+02  0.14900E+03
 0.29149998E+02 -0.15778E+03
 0.29199999E+02 -0.55211E+03
 0.29249998E+02  0.53168E+03
 0.29299997E+02  0.31847E+04
 0.29349998E+02  0.86906E+03
 0.29399998E+02  0.28104E+03
 0.29449999E+02  0.83694E+03
 0.29499998E+02  0.11460E+02
 0.29549997E+02 -0.64310E+03
 0.29599998E+02  0.20317E+04
 0.29649998E+02 -0.19897E+04
 0.29699999E+02 -0.20607E+04
 0.29749998E+02  0.93976E+03
 0.29799997E+02  0.42996E+03
 0.29849998E+02  0.97627E+03
 0.29899998E+02 -0.20970E+04
 0.29949999E+02  0.31391E+04
 0.29999998E+02  0.23103E+04
 0.30049999E+02  0.73063E+03
 0.30099998E+02  0.19166E+04
 0.30149998E+02 -0.25498E+04
 0.30199997E+02  0.14347E+04
 0.30249996E+02 -0.10373E+04
 0.30299999E+02  0.14165E+04
 0.30349998E+02  0.64258E+03
 0.30399998E+02 -0.73577E+03
 0.30449997E+02  0.11290E+04
 0.30499996E+02 -0.17380E+03
 0.30549999E+02  0.19211E+04
 0.30599998E+02 -0.41515E+03
 0.30649998E+02  0.61306E+03
 0.30699997E+02 -0.78079E+02
 0.30749996E+02  0.21499E+04
 0.30799999E+02 -0.23737E+04
 0.30849998E+02 -0.96369E+03
 0.30899998E+02  0.17467E+04
 0.30949997E+02 -0.18613E+04
 0.30999996E+02  0.36473E+04
 0.31049999E+02  0.59811E+03
 0.31099998E+02 -0.13732E+04
 0.31149998E+02 -0.15253E+04
 0.31199997E+02 -0.36459E+03
 0.31249996E+02  0.59303E+03
 0.31299999E+02  0.63083E+03
 0.31349998E+02  0.13629E+04
 0.31399998E+02 -0.10486E+04
 0.31449997E+02  0.25929E+03
 0.31499996E+02  0.29858E+03
 0.31549999E+02  0.18728E+04
 0.31599998E+02  0.18984E+04
 0.31649998E+02  0.16894E+04
 0.31699997E+02 -0.20186E+04
 0.31749996E+02  0.96838E+03
 0.31799999E+02  0.83177E+03
 0.31849998E+02 -0.31025E+04
 0.31899998E+02  0.11127E+04
 0.31949997E+02  0.59134E+03
 0.31999996E+02  0.58339E+03
 0.32049999E+02  0.23896E+04
 0.32099998E+02  0.40827E+04
 0.32149998E+02  0.10975E+04
 0.32199997E+02 -0.68997E+03
 0.32249996E+02 -0.45103E+04
 0.32299999E+02 -0.25143E+04
 0.32349998E+02  0.16240E+04
 0.32399998E+02  0.85239E+03
 0.32449997E+02 -0.17280E+04
 0.32499996E+02  0.62433E+04
 0.32549999E+02  0.39381E+04
 0.32599998E+02  0.18976E+04
 0.32649998E+02  0.38122E+04
 0.32699997E+02 -0.57036E+04
 0.32749996E+02 -0.16617E+04
 0.32799999E+02 -0.53785E+04
 0.32849998E+02 -0.40213E+04
 0.32899998E+02  0.58850E+04
 0.32949997E+02  0.50931E+04
 0.32999996E+02  0.22342E+04
 0.33049999E+02  0.29242E+04
 0.33099998E+02 -0.15601E+04
 0.33149998E+02  0.29114E+03
 0.33199997E+02 -0.25765E+04
 0.33249996E+02 -0.12950E+04
 0.33299999E+02  0.27539E+04
 0.33349998E+02 -0.44018E+04
 0.33399998E+02  0.33866E+04
 0.33449997E+02  0.33066E+04
 0.33499996E+02  0.54562E+03
 0.33549999E+02  0.93416E+03
 0.33599998E+02 -0.40518E+04
 0.33649998E+02  0.71434E+04
 0.33699997E+02  0.72945E+04
 0.33749996E+02 -0.93573E+04
 0.33799999E+02 -0.80042E+04
 0.33849998E+02 -0.36456E+04
 0.33899998E+02 -0.25913E+04
 0.33949997E+02  0.46459E+04
 0.33999996E+02 -0.23749E+04
 0.34049999E+02  0.44518E+03
 0.34099998E+02  0.13490E+05
 0.34149998E+02 -0.44457E+04
 0.34199997E+02  0.20507E+04
 0.34249996E+02  0.49609E+04
 0.34299999E+02 -0.44719E+04
 0.34349998E+02 -0.50385E+03
 0.34399998E+02 -0.10231E+05
 0.34449997E+02 -0.19232E+04
 0.34499996E+02  0.58863E+04
 0.34549999E+02  0.95677E+04
 0.34599998E+02  0.73691E+04
 0.34649998E+02  0.20682E+04
 0.34699997E+02 -0.44711E+04
 0.34749996E+02 -0.43914E+04
 0.34799999E+02  0.10594E+04
 0.34849998E+02 -0.55220E+04
 0.34899998E+02 -0.41436E+04
 0.34949997E+02  0.83934E+04
 0.34999996E+02  0.27526E+04
 0.35049999E+02 -0.16375E+04
 0.35099998E+02  0.58676E+04
 0.35149998E+02 -0.41688E+04
 0.35199997E+02 -0.82149E+03
 0.35249996E+02  0.72639E+04
 0.35299999E+02  0.13443E+04
 0.35349998E+02 -0.34632E+04
 0.35399998E+02  0.29540E+04
 0.35449997E+02  0.14526E+04
 0.35499996E+02 -0.12739E+04
 0.35549999E+02  0.37807E+04
 0.35599998E+02  0.53790E+03
 0.35649998E+02  0.28424E+04
 0.35699997E+02  0.59224E+04
 0.35749996E+02 -0.10825E+05
 0.35799999E+02 -0.96966E+04
 0.35849998E+02  0.49811E+02
 0.35899998E+02  0.61816E+04
 0.35949997E+02  0.35889E+04
 0.35999996E+02 -0.52319E+04
 0.36049999E+02 -0.37918E+04
 0.36099998E+02 -0.71924E+04
 0.36149998E+02  0.34329E+04
 0.36199997E+02  0.24439E+04
 0.36249996E+02  0.15032E+04
 0.36299999E+02  0.25551E+04
 0.36349998E+02  0.46834E+04
 0.36399998E+02  0.24069E+04
 0.36449997E+02 -0.14286E+04
 0.36499996E+02  0.22544E+04
 0.36549999E+02 -0.83686E+03
 0.36599998E+02  0.16625E+04
 0.36649998E+02  0.24457E+04
 0.36699997E+02  0.85871E+04
 0.36749996E+02  0.41973E+04
 0.36799999E+02  0.48633E+04
 0.36849998E+02 -0.28586E+04
 0.36899998E+02 -0.14205E+05
 0.36949997E+02 -0.24853E+04
 0.36999996E+02 -0.33726E+04
 0.37049999E+02 -0.19672E+04
 0.37099998E+02 -0.80758E+02
 0.37149998E+02 -0.43959E+04
 0.37199997E+02  0.77777E+04
 0.37249996E+02  0.82417E+04
 0.37299999E+02 -0.17215E+04
 0.37349998E+02  0.32668E+03
 0.37399998E+02  0.14118E+04
 0.37449997E+02 -0.26514E+04
 0.37499996E+02 -0.32198E+04
 0.37549999E+02  0.33899E+04
 0.37599998E+02 -0.14035E+04
 0.37649998E+02  0.23180E+04
 0.37699997E+02  0.51577E+04
 0.37749996E+02 -0.38701E+04
 0.37799999E+02  0.17829E+04
 0.37849998E+02  0.34476E+03
 0.37899998E+02  0.65613E+03
 0.37949997E+02  0.12643E+04
 0.37999996E+02 -0.47313E+04
 0.38049999E+02  0.96862E+03
 0.38099998E+02  0.50203E+04
 0.38149998E+02  0.67772E+04
 0.38199997E+02  0.71750E+04
 0.38249996E+02  0.27689E+03
 0.38299999E+02 -0.72469E+04
 0.38349998E+02  0.15872E+04
 0.38399998E+02 -0.16067E+04
 0.38449997E+02 -0.62547E+04
 0.38499996E+02 -0.31064E+03
 0.38549999E+02 -0.25922E+03
 0.38599998E+02  0.53330E+04
 0.38649998E+02  0.54965E+03
 0.38699997E+02 -0.31153E+04
 0.38749996E+02  0.17247E+04
 0.38799999E+02 -0.37970E+04
 0.38849998E+02 -0.32088E+04
 0.38899998E+02  0.31051E+04
 0.38949997E+02  0.20124E+04
 0.38999996E+02  0.44430E+04
 0.39049999E+02 -0.41051E+02
 0.39099998E+02 -0.20555E+04
 0.39149998E+02  0.14124E+04
 0.39199997E+02 -0.49685E+03
 0.39249996E+02  0.89756E+03
 0.39299999E+02  0.33673E+04
 0.39349998E+02  0.35322E+03
 0.39399998E+02 -0.23780E+04
 0.39449997E+02  0.57462E+04
 0.39499996E+02 -0.23182E+03
 0.39549999E+02 -0.11210E+04
 0.39599998E+02  0.66035E+04
 0.39649998E+02 -0.14756E+04
 0.39699997E+02 -0.16476E+04
 0.39749996E+02 -0.76108E+04
 0.39799999E+02 -0.44981E+04
 0.39849998E+02  0.35525E+04
 0.39899998E+02 -0.21541E+04
 0.39949997E+02 -0.51233E+03
 0.39999996E+02  0.40788E+04
 0.40049999E+02  0.15824E+04
 0.40099998E+02  0.22425E+04
 0.40149998E+02  0.26176E+02
 0.40199997E+02 -0.24028E+04
 0.40249996E+02  0.13749E+04
 0.40299999E+02  0.60397E+03
 0.40349998E+02  0.16775E+04
 0.40399998E+02 -0.35097E+04
 0.40449997E+02 -0.26021E+04
 0.40499996E+02  0.11480E+04
 0.40549999E+02  0.12892E+04
 0.40599998E+02  0.53852E+04
 0.40649998E+02 -0.36369E+03
 0.40699997E+02  0.31869E+02
 0.40749996E+02 -0.41038E+03
 0.40799999E+02 -0.27780E+04
 0.40849998E+02 -0.73746E+02
 0.40899998E+02 -0.21086E+04
 0.40949997E+02  0.20526E+04
 0.40999996E+02  0.42058E+04
 0.41049999E+02  0.37600E+04
 0.41099998E+02  0.10614E+04
 0.41149998E+02  0.20346E+04
 0.41199997E+02 -0.22108E+04
 0.41249996E+02 -0.43414E+04
 0.41299999E+02 -0.47483E+04
 0.41349998E+02 -0.13581E+04
 0.41399998E+02  0.90326E+04
 0.41449997E+02  0.14917E+04
 0.41499996E+02  0.23615E+03
 0.41549999E+02 -0.14277E+04
 0.41599998E+02 -0.16725E+04
 0.41649998E+02  0.15419E+04
 0.41699997E+02 -0.15853E+04
 0.41749996E+02 -0.40846E+04
 0.41799999E+02  0.13481E+04
 0.41849998E+02  0.51812E+04
 0.41899998E+02 -0.25653E+03
 0.41949997E+02 -0.21544E+03
 0.41999996E+02  0.15343E+04
 0.42049999E+02  0.29334E+04
 0.42099998E+02 -0.40385E+03
 0.42149998E+02 -0.64718E+03
 0.42199997E+02 -0.61255E+03
 0.42249996E+02 -0.21574E+04
 0.42299999E+02  0.13754E+04
 0.42349998E+02  0.33657E+04
 0.42399998E+02 -0.19011E+04
 0.42449997E+02 -0.19513E+04
 0.42499996E+02  0.10894E+04
 0.42549999E+02  0.11827E+04
 0.42599998E+02  0.46076E+03
 0.42649998E+02 -0.24218E+04
 0.42699997E+02 -0.25760E+03
 0.42749996E+02  0.22644E+04
 0.42799995E+02  0.15139E+04
 0.42849998E+02 -0.16949E+04
 0.42899998E+02  0.31442E+04
 0.42949997E+02  0.83106E+03
 0.42999996E+02 -0.47469E+02
 0.43049995E+02  0.14989E+03
 0.43099998E+02  0.45493E+03
 0.43149998E+02  0.23627E+04
 0.43199997E+02 -0.29105E+04
 0.43249996E+02  0.24590E+04
 0.43299995E+02  0.41286E+04
 0.43349998E+02  0.14733E+03
 0.43399998E+02  0.19460E+04
 0.43449997E+02  0.16169E+04
 0.43499996E+02  0.14921E+04
 0.43549995E+02  0.15293E+04
 0.43599998E+02 -0.20859E+04
 0.43649998E+02 -0.37493E+04
 0.43699997E+02 -0.78581E+03
 0.43749996E+02  0.98891E+03
 0.43799995E+02  0.26019E+04
 0.43849998E+02  0.22838E+04
 0.43899998E+02  0.20786E+04
 0.43949997E+02  0.35817E+04
 0.43999996E+02  0.21140E+03
 0.44049995E+02  0.21262E+04
 0.44099998E+02 -0.15342E+04
 0.44149998E+02 -0.27762E+04
 0.44199997E+02  0.14330E+04
 0.44249996E+02  0.11925E+04
 0.44299995E+02  0.12909E+04
 0.44349998E+02 -0.67126E+03
 0.44399998E+02 -0.48644E+04
 0.44449997E+02 -0.14861E+04
 0.44499996E+02  0.22925E+04
 0.44549995E+02 -0.31467E+04
 0.44599998E+02 -0.17395E+04
 0.44649998E+02 -0.26094E+03
 0.44699997E+02 -0.22628E+03
 0.44749996E+02  0.16004E+04
 0.44799995E+02  0.43592E+03
 0.44849998E+02 -0.16816E+04
 0.44899998E+02 -0.44074E+02
 0.44949997E+02  0.84352E+03
 0.44999996E+02 -0.12039E+04
 0.45049995E+02  0.28029E+04
 0.45099998E+02  0.31166E+04
 0.45149998E+02  0.25811E+04
 0.45199997E+02  0.50108E+03
 0.45249996E+02 -0.11392E+04
 0.45299995E+02  0.27072E+04
 0.45349998E+02  0.26441E+04
 0.45399998E+02  0.43036E+04
 0.45449997E+02 -0.38031E+03
 0.45499996E+02 -0.56404E+04
 0.45549995E+02 -0.34065E+04
 0.45599998E+02 -0.21069E+04
 0.45649998E+02 -0.18130E+03
 0.45699997E+02  0.32136E+04
 0.45749996E+02  0.31217E+04
 0.45799995E+02 -0.22810E+03
 0.45849998E+02 -0.26896E+03
 0.45899998E+02 -0.12466E+03
 0.45949997E+02  0.17607E+04
 0.45999996E+02  0.27374E+04
 0.46049995E+02 -0.22651E+03
 0.46099998E+02 -0.74869E+03
 0.46149998E+02  0.12973E+04
 0.46199997E+02  0.16910E+04
 0.46249996E+02  0.47862E+03
 0.46299995E+02 -0.94462E+03
 0.46349998E+02 -0.53811E+03
 0.46399998E+02  0.75811E+03
 0.46449997E+02 -0.15322E+04
 0.46499996E+02 -0.18448E+04
 0.46549995E+02 -0.13355E+04
 0.46599998E+02  0.53420E+03
 0.46649998E+02  0.47319E+04
 0.46699997E+02  0.18959E+04
 0.46749996E+02  0.14636E+04
 0.46799995E+02  0.13241E+04
 0.46849998E+02  0.39851E+03
 0.46899998E+02  0.35749E+04
 0.46949997E+02  0.23763E+04
 0.46999996E+02 -0.32641E+02
 0.47049995E+02 -0.22571E+04
 0.47099998E+02 -0.32443E+03
 0.47149998E+02  0.10563E+04
 0.47199997E+02  0.10547E+04
 0.47249996E+02  0.27996E+03
 0.47299995E+02 -0.19743E+04
 0.47349998E+02  0.26591E+03
 0.47399998E+02 -0.25953E+04
 0.47449997E+02 -0.32585E+04
 0.47499996E+02  0.21743E+04
 0.47549995E+02  0.18484E+04
 0.47599998E+02  0.68613E+03
 0.47649998E+02  0.15423E+04
 0.47699997E+02  0.14314E+04
 0.47749996E+02 -0.57866E+03
 0.47799995E+02 -0.11328E+04
 0.47849998E+02 -0.10820E+03
 0.47899998E+02  0.81256E+03
 0.47949997E+02 -0.28475E+02
 0.47999996E+02  0.43371E+03
 0.48049995E+02  0.68244E+03
 0.48099998E+02 -0.75487E+02
 0.48149998E+02  0.78618E+03
 0.48199997E+02 -0.52899E+03
 0.48249996E+02 -0.18706E+03
 0.48299995E+02  0.12545E+04
 0.48349998E+02 -0.80226E+03
 0.48399998E+02  0.96124E+03
 0.48449997E+02  0.17009E+04
 0.48499996E+02 -0.11501E+04
 0.48549995E+02 -0.11945E+03
 0.48599998E+02 -0.44256E+03
 0.48649998E+02 -0.33955E+03
 0.48699997E+02 -0.95914E+03
 0.48749996E+02  0.51691E+03
 0.48799995E+02  0.34893E+03
 0.48849998E+02  0.10003E+04
 0.48899998E+02  0.76468E+03
 0.48949997E+02 -0.24779E+04
 0.48999996E+02  0.63701E+03
 0.49049995E+02 -0.10904E+03
 0.49099998E+02 -0.52463E+03
 0.49149998E+02  0.11952E+04
 0.49199997E+02  0.79664E+03
 0.49249996E+02  0.95159E+03
 0.49299995E+02  0.43574E+03
 0.49349998E+02 -0.97250E+03
 0.49399998E+02  0.29346E+03
 0.49449997E+02  0.21597E+04
 0.49499996E+02  0.20854E+04
 0.49549995E+02  0.30644E+04
 0.49599998E+02  0.21045E+04
 0.49649998E+02  0.11433E+04
 0.49699997E+02  0.47525E+03
 0.49749996E+02  0.14170E+04
 0.49799995E+02  0.17070E+04
 0.49849998E+02  0.33047E+03
 0.49899998E+02  0.72169E+03
 0.49949997E+02 -0.49281E+03
 0.49999996E+02 -0.66306E+03
 0.50049995E+02  0.91986E+03
 0.50099998E+02  0.26407E+04
 0.50149998E+02  0.23283E+04
 0.50199997E+02  0.13286E+04
 0.50249996E+02  0.18346E+04
 0.50299995E+02 -0.89762E+03
 0.50349998E+02 -0.68840E+03
 0.50399998E+02  0.98451E+03
 0.50449997E+02  0.55903E+03
 0.50499996E+02  0.96865E+03
 0.50549995E+02  0.79787E+03
 0.50599998E+02  0.61989E+03
 0.50649998E+02 -0.16339E+04
 0.50699997E+02 -0.31185E+04
 0.50749996E+02 -0.35970E+04
 0.50799995E+02 -0.28126E+04
 0.50849998E+02 -0.21098E+04
 0.50899998E+02 -0.29806E+04
 0.50949997E+02 -0.20669E+04
 0.50999996E+02 -0.75459E+03
 0.51049995E+02 -0.70560E+03
 0.51099998E+02  0.14888E+03
 0.51149998E+02  0.24226E+04
 0.51199997E+02  0.18367E+04
 0.51249996E+02  0.25005E+04
 0.51299995E+02  0.29708E+04
 0.51349998E+02  0.19239E+04
 0.51399998E+02  0.28251E+04
 0.51449997E+02  0.10742E+04
 0.51499996E+02  0.15025E+04
 0.51549995E+02  0.23773E+03
 0.51599998E+02 -0.74792E+03
 0.51649998E+02  0.14027E+04
 0.51699997E+02 -0.16828E+02
 0.51749996E+02  0.35834E+02
 0.51799995E+02  0.64988E+03
 0.51849998E+02  0.20812E+04
 0.51899998E+02  0.14221E+04
 0.51949997E+02  0.38132E+03
 0.51999996E+02  0.62006E+03
 0.52049995E+02  0.71976E+03
 0.52099998E+02  0.92622E+03
 0.52149998E+02  0.22904E+02
 0.52199997E+02 -0.24029E+03
 0.52249996E+02 -0.88593E+03
 0.52299995E+02 -0.77224E+03
 0.52349998E+02 -0.12594E+04
 0.52399998E+02  0.17217E+03
 0.52449997E+02  0.12885E+04
 0.52499996E+02  0.49902E+03
 0.52549995E+02 -0.22865E+03
 0.52599998E+02  0.36548E+03
 0.52649998E+02  0.26592E+03
 0.52699997E+02  0.65674E+03
 0.52749996E+02  0.16314E+04
 0.52799995E+02  0.68364E+03
 0.52849998E+02  0.19165E+03
 0.52899998E+02  0.87228E+03
 0.52949997E+02  0.19325E+04
 0.52999996E+02  0.90139E+03
 0.53049995E+02  0.24976E+03
 0.53099998E+02 -0.10958E+04
 0.53149998E+02 -0.62673E+03
 0.53199997E+02 -0.12685E+03
 0.53249996E+02 -0.76102E+03
 0.53299995E+02 -0.10505E+04
 0.53349998E+02 -0.90212E+03
 0.53399998E+02 -0.48107E+03
 0.53449997E+02  0.21283E+02
 0.53499996E+02  0.15948E+04
 0.53549995E+02  0.19809E+04
 0.53599998E+02  0.15702E+04
 0.53649998E+02  0.11553E+04
 0.53699997E+02  0.19741E+03
 0.53749996E+02 -0.12898E+04
 0.53799995E+02 -0.11459E+04
 0.53849998E+02 -0.54200E+03
 0.53899998E+02  0.19435E+04
 0.53949997E+02  0.20841E+04
 0.53999996E+02  0.96744E+03
 0.54049995E+02 -0.42349E+01
 0.54099998E+02 -0.13128E+04
 0.54149998E+02  0.28358E+03
 0.54199997E+02 -0.61559E+03
 0.54249996E+02 -0.48478E+03
 0.54299995E+02  0.44733E+03
 0.54349998E+02  0.26535E+03
 0.54399998E+02  0.15395E+04
 0.54449997E+02  0.19091E+04
 0.54499996E+02  0.84363E+03
 0.54549995E+02  0.83728E+03
 0.54599998E+02  0.10336E+04
 0.54649998E+02  0.80301E+02
 0.54699997E+02 -0.17073E+03
 0.54749996E+02  0.56559E+03
 0.54799995E+02  0.88769E+03
 0.54849998E+02  0.56327E+03
 0.54899998E+02  0.47649E+03
 0.54949997E+02  0.16630E+03
 0.54999996E+02  0.91778E+03
 0.55049995E+02 -0.40516E+03
 0.55099998E+02 -0.98285E+03
 0.55149998E+02 -0.35468E+03
 0.55199997E+02 -0.12920E+04
 0.55249996E+02  0.50194E+03
 0.55299995E+02  0.17314E+04
 0.55349998E+02  0.12002E+04
 0.55399998E+02  0.63699E+03
 0.55449997E+02  0.75171E+03
 0.55499996E+02  0.13516E+04
 0.55549995E+02  0.13995E+04
 0.55599998E+02  0.12112E+04
 0.55649998E+02  0.14416E+04
 0.55699997E+02  0.11013E+04
 0.55749996E+02 -0.53485E+03
 0.55799995E+02 -0.44929E+03
 0.55849995E+02  0.28496E+03
 0.55899998E+02  0.16401E+03
 0.55949997E+02 -0.20322E+02
 0.55999996E+02 -0.72782E+02
 0.56049995E+02 -0.18543E+03
 0.56099995E+02  0.61436E+03
 0.56149998E+02  0.51031E+03
 0.56199997E+02 -0.23149E+03
 0.56249996E+02  0.20646E+03
 0.56299995E+02  0.23172E+03
 0.56349995E+02  0.95169E+03
 0.56399998E+02 -0.86148E+03
 0.56449997E+02 -0.48992E+03
 0.56499996E+02  0.10932E+04
 0.56549995E+02  0.21787E+03
 0.56599995E+02  0.49987E+03
 0.56649998E+02  0.93697E+02
 0.56699997E+02  0.31120E+02
 0.56749996E+02 -0.21890E+03
 0.56799995E+02 -0.18763E+04
 0.56849995E+02 -0.96284E+03
 0.56899998E+02 -0.50460E+03
 0.56949997E+02 -0.10650E+04
 0.56999996E+02  0.72105E+03
 0.57049995E+02 -0.37768E+02
 0.57099995E+02 -0.34701E+03
 0.57149998E+02  0.45703E+03
 0.57199997E+02  0.28179E+03
 0.57249996E+02 -0.10787E+03
 0.57299995E+02  0.17726E+03
 0.57349995E+02  0.17127E+03
 0.57399998E+02  0.19092E+03
 0.57449997E+02  0.74984E+03
 0.57499996E+02  0.84105E+03
 0.57549995E+02  0.15514E+04
 0.57599995E+02  0.16411E+04
 0.57649998E+02  0.10378E+04
 0.57699997E+02  0.39068E+03
 0.57749996E+02  0.58797E+03
 0.57799995E+02  0.91957E+03
 0.57849995E+02  0.95089E+03
 0.57899998E+02  0.99663E+03
 0.57949997E+02  0.25595E+03
 0.57999996E+02  0.41191E+03
 0.58049995E+02 -0.10677E+03
 0.58099995E+02 -0.92102E+03
 0.58149998E+02  0.60207E+03
 0.58199997E+02  0.12862E+04
 0.58249996E+02  0.16628E+04
 0.58299995E+02  0.51513E+03
 0.58349995E+02 -0.20767E+03
 0.58399998E+02  0.45946E+03
 0.58449997E+02  0.10602E+04
 0.58499996E+02  0.62399E+03
 0.58549995E+02  0.44573E+03
 0.58599995E+02  0.20017E+04
 0.58649998E+02  0.11866E+04
 0.58699997E+02  0.31004E+03
 0.58749996E+02 -0.42472E+03
 0.58799995E+02 -0.72940E+03
 0.58849995E+02  0.79991E+03
 0.58899998E+02  0.10933E+04
 0.58949997E+02  0.46856E+03
 0.58999996E+02  0.91984E+03
 0.59049995E+02  0.12238E+04
 0.59099995E+02  0.86129E+03
 0.59149998E+02  0.56923E+03
 0.59199997E+02  0.19309E+03
 0.59249996E+02 -0.28982E+03
 0.59299995E+02 -0.44586E+03
 0.59349995E+02 -0.10709E+04
 0.59399998E+02 -0.56267E+03
 0.59449997E+02  0.48594E+03
 0.59499996E+02  0.84927E+03
 0.59549995E+02  0.43443E+03
 0.59599995E+02 -0.58924E+03
 0.59649998E+02 -0.76100E+03
 0.59699997E+02  0.11908E+03
 0.59749996E+02  0.26557E+03
 0.59799995E+02  0.37959E+03
 0.59849995E+02  0.54792E+03
 0.59899998E+02  0.58666E+03
 0.59949997E+02  0.12151E+04
 0.59999996E+02  0.10163E+04
 0.60049995E+02  0.11209E+04
 0.60099995E+02  0.60822E+03
 0.60149998E+02  0.21422E+03
 0.60199997E+02 -0.17348E+03
 0.60249996E+02 -0.64820E+03
 0.60299995E+02 -0.56747E+02
 0.60349995E+02  0.58082E+03
 0.60399998E+02  0.77233E+03
 0.60449997E+02  0.28254E+03
 0.60499996E+02  0.22064E+03
 0.60549995E+02 -0.38095E+03
 0.60599995E+02 -0.50968E+03
 0.60649998E+02  0.27816E+03
 0.60699997E+02  0.33800E+03
 0.60749996E+02  0.41911E+03
 0.60799995E+02  0.44056E+03
 0.60849995E+02  0.25186E+03
 0.60899998E+02  0.72334E+03
 0.60949997E+02  0.13625E+04
 0.60999996E+02 -0.60342E+01
 0.61049995E+02 -0.31960E+03
 0.61099995E+02 -0.24095E+03
 0.61149998E+02 -0.73975E+03
 0.61199997E+02 -0.26789E+02
 0.61249996E+02  0.12344E+03
 0.61299995E+02  0.43484E+03
 0.61349995E+02  0.34289E+03
 0.61399998E+02  0.22646E+03
 0.61449997E+02  0.68383E+03
 0.61499996E+02  0.43613E+03
 0.61549995E+02  0.88999E+03
 0.61599995E+02  0.90404E+03
 0.61649998E+02 -0.26053E+02
 0.61699997E+02 -0.20688E+02
 0.61749996E+02  0.91109E+03
 0.61799995E+02  0.16168E+04
 0.61849995E+02  0.13161E+04
 0.61899998E+02  0.92770E+03
 0.61949997E+02  0.89135E+03
 0.61999996E+02  0.13957E+04
 0.62049995E+02  0.12871E+04
 0.62099998E+02  0.74891E+03
 0.62149994E+02  0.48537E+03
 0.62199997E+02  0.70539E+02
 0.62249992E+02 -0.86561E+02
 0.62299995E+02 -0.43117E+03
 0.62349998E+02 -0.15460E+03
 0.62399994E+02  0.88622E+02
 0.62449997E+02 -0.52370E+02
 0.62499992E+02 -0.41253E+03
 0.62549995E+02 -0.64725E+03
 0.62599998E+02 -0.29903E+03
 0.62649994E+02 -0.25921E+03
 0.62699997E+02 -0.18689E+03
 0.62749992E+02 -0.58619E+03
 0.62799995E+02 -0.53466E+03
 0.62849998E+02  0.81011E+02
 0.62899994E+02  0.42948E+02
 0.62949997E+02 -0.22801E+03
 0.62999992E+02  0.37068E+03
 0.63049995E+02  0.63772E+03
 0.63099998E+02  0.54083E+01
 0.63149994E+02  0.18776E+03
 0.63199997E+02  0.63531E+03
 0.63249992E+02  0.13093E+04
 0.63299995E+02  0.13899E+04
 0.63349998E+02  0.12928E+04
 0.63399994E+02  0.16385E+04
 0.63449997E+02  0.11037E+04
 0.63499992E+02  0.94686E+03
 0.63549995E+02  0.41364E+03
 0.63599998E+02 -0.27833E+03
 0.63649994E+02 -0.53573E+03
 0.63699997E+02 -0.88575E+03
 0.63749992E+02 -0.44915E+03
 0.63799995E+02 -0.20814E+02
 0.63849998E+02  0.44357E+03
 0.63899994E+02  0.85689E+03
 0.63949997E+02  0.11796E+04
 0.63999992E+02  0.10263E+04
 0.64049995E+02  0.86896E+03
 0.64099998E+02  0.14690E+04
 0.64149994E+02  0.68172E+03
 0.64199997E+02  0.61044E+03
 0.64249992E+02  0.12209E+04
 0.64299995E+02  0.10266E+04
 0.64349998E+02  0.78464E+03
 0.64399994E+02  0.20185E+03
 0.64449997E+02 -0.58253E+03
 0.64499992E+02 -0.62285E+03
 0.64549995E+02  0.29991E+03
 0.64599998E+02  0.81930E+03
 0.64649994E+02  0.10922E+04
 0.64699997E+02  0.12280E+04
 0.64749992E+02  0.11440E+04
 0.64799995E+02  0.10688E+04
 0.64849998E+02  0.84268E+03
 0.64899994E+02  0.77109E+03
 0.64949997E+02  0.80114E+03
 0.64999992E+02  0.66538E+03
 0.65049995E+02  0.40031E+03
 0.65099998E+02 -0.26298E+03
 0.65149994E+02 -0.62853E+03
 0.65199997E+02 -0.27583E+03
 0.65249992E+02  0.34532E+02
 0.65299995E+02 -0.49306E+03
 0.65349998E+02 -0.45571E+03
 0.65399994E+02 -0.75045E+03
 0.65449997E+02 -0.64121E+03
 0.65499992E+02  0.59305E+03
 0.65549995E+02  0.75131E+03
 0.65599998E+02  0.64544E+03
 0.65649994E+02  0.53563E+03
 0.65699997E+02  0.38462E+02
 0.65749992E+02 -0.15286E+03
 0.65799995E+02 -0.80545E+02
 0.65849998E+02 -0.26102E+03
 0.65899994E+02  0.83728E+02
 0.65949997E+02  0.30596E+03
 0.65999992E+02  0.59990E+03
 0.66049995E+02  0.12889E+04
 0.66099998E+02  0.74255E+03
 0.66149994E+02  0.28412E+03
 0.66199997E+02  0.33100E+03
 0.66249992E+02  0.16969E+03
 0.66299995E+02 -0.46035E+03
 0.66349998E+02 -0.84350E+03
 0.66399994E+02 -0.57837E+03
 0.66449997E+02 -0.19973E+03
 0.66499992E+02 -0.48254E+01
 0.66549995E+02 -0.41121E+02
 0.66599998E+02  0.43612E+03
 0.66649994E+02  0.69259E+03
 0.66699997E+02  0.68676E+03
 0.66749992E+02  0.17843E+03
 0.66799995E+02 -0.19500E+03
 0.66849998E+02  0.35831E+03
 0.66899994E+02  0.84427E+03
 0.66949997E+02  0.87751E+03
 0.66999992E+02  0.35989E+03
 0.67049995E+02 -0.19779E+03
 0.67099998E+02  0.36476E+03
 0.67149994E+02  0.68243E+03
 0.67199997E+02  0.40406E+03
 0.67249992E+02  0.18362E+03
 0.67299995E+02  0.13070E+03
 0.67349998E+02  0.25703E+03
 0.67399994E+02  0.47516E+03
 0.67449997E+02  0.63777E+03
 0.67499992E+02  0.66993E+03
 0.67549995E+02  0.89439E+03
 0.67599998E+02  0.14326E+04
 0.67649994E+02  0.14874E+04
 0.67699997E+02  0.95980E+03
 0.67749992E+02  0.46128E+03
 0.67799995E+02  0.97158E+02
 0.67849998E+02  0.35241E+03
 0.67899994E+02  0.55210E+03
 0.67949997E+02  0.59192E+03
 0.67999992E+02  0.58780E+03
 0.68049995E+02  0.28272E+03
 0.68099998E+02  0.47049E+02
 0.68149994E+02  0.65284E+02
 0.68199997E+02  0.14201E+03
 0.68249992E+02  0.84621E+02
 0.68299995E+02 -0.56653E+03
 0.68349998E+02 -0.57927E+03
 0.68399994E+02  0.10796E+03
 0.68449997E+02  0.43427E+03
 0.68499992E+02  0.73911E+03
 0.68549995E+02  0.81165E+03
 0.68599998E+02  0.86699E+03
 0.68649994E+02  0.84038E+03
 0.68699997E+02  0.52442E+03
 0.68749992E+02  0.50914E+03
 0.68799995E+02  0.88946E+03
 0.68849998E+02  0.84597E+03
 0.68899994E+02  0.85785E+03
 0.68949997E+02  0.74749E+03
 0.68999992E+02  0.22742E+03
 0.69049995E+02  0.13323E+03
 0.69099998E+02 -0.16671E+03
 0.69149994E+02 -0.49947E+03
 0.69199997E+02  0.39641E+02
 0.69249992E+02  0.31262E+03
 0.69299995E+02  0.27803E+03
 0.69349998E+02  0.65851E+03
 0.69399994E+02  0.65601E+03
 0.69449997E+02  0.76688E+03
 0.69499992E+02  0.10439E+04
 0.69549995E+02  0.81621E+03
 0.69599998E+02  0.54958E+03
 0.69649994E+02  0.46307E+03
 0.69699997E+02  0.51351E+03
 0.69749992E+02  0.39636E+03
 0.69799995E+02 -0.21808E+03
 0.69849998E+02 -0.28247E+03
 0.69899994E+02 -0.11336E+03
 0.69949997E+02  0.13861E+03
 0.69999992E+02  0.36056E+03
 0.70049995E+02  0.34865E+03
 0.70099998E+02  0.42491E+03
 0.70149994E+02  0.55059E+03
 0.70199997E+02  0.59234E+03
 0.70249992E+02  0.54354E+03
 0.70299995E+02  0.27997E+03
 0.70349998E+02 -0.11217E+03
 0.70399994E+02  0.27672E+03
 0.70449997E+02  0.22984E+03
 0.70499992E+02 -0.21599E+03
 0.70549995E+02 -0.43656E+03
 0.70599998E+02 -0.46823E+03
 0.70649994E+02 -0.52854E+02
 0.70699997E+02  0.13588E+03
 0.70749992E+02  0.33569E+03
 0.70799995E+02  0.35552E+03
 0.70849998E+02  0.14350E+03
 0.70899994E+02  0.42724E+03
 0.70949997E+02  0.64609E+03
 0.70999992E+02  0.64126E+03
 0.71049995E+02  0.50818E+03
 0.71099998E+02  0.32157E+03
 0.71149994E+02  0.51968E+03
 0.71199997E+02  0.10803E+04
 0.71249992E+02  0.13109E+04
 0.71299995E+02  0.11221E+04
 0.71349998E+02  0.81264E+03
 0.71399994E+02  0.49604E+03
 0.71449997E+02  0.50000E+03
 0.71499992E+02  0.57501E+03
 0.71549995E+02  0.60463E+03
 0.71599998E+02  0.45494E+03
 0.71649994E+02  0.48482E+03
 0.71699997E+02  0.79054E+03
 0.71749992E+02  0.65414E+03
 0.71799995E+02  0.31546E+03
 0.71849998E+02  0.27744E+03
 0.71899994E+02  0.46145E+03
 0.71949997E+02  0.77612E+03
 0.71999992E+02  0.23857E+03
 0.72049995E+02 -0.40395E+02
 0.72099998E+02  0.12651E+03
 0.72149994E+02 -0.11588E+03
 0.72199997E+02  0.20779E+03
 0.72249992E+02  0.17605E+03
 0.72299995E+02 -0.12148E+02
 0.72349998E+02 -0.75279E+02
 0.72399994E+02 -0.11493E+03
 0.72449997E+02  0.21614E+03
 0.72499992E+02  0.20445E+03
 0.72549995E+02  0.10394E+03
 0.72599998E+02  0.41527E+03
 0.72649994E+02  0.44246E+03
 0.72699997E+02  0.49893E+03
 0.72749992E+02  0.78032E+03
 0.72799995E+02  0.66778E+03
 0.72849998E+02  0.28599E+02
 0.72899994E+02  0.18393E+02
 0.72949997E+02  0.63842E+02
 0.72999992E+02  0.29239E+02
 0.73049995E+02  0.30231E+03
 0.73099998E+02  0.31412E+03
 0.73149994E+02  0.46442E+03
 0.73199997E+02  0.50444E+03
 0.73249992E+02  0.84891E+03
 0.73299995E+02  0.54759E+03
 0.73349998E+02  0.10823E+03
 0.73399994E+02  0.31093E+02
 0.73449997E+02  0.66460E+02
 0.73499992E+02 -0.22570E+02
 0.73549995E+02 -0.11544E+03
 0.73599998E+02  0.36975E+02
 0.73649994E+02  0.22867E+02
 0.73699997E+02  0.20989E+02
 0.73749992E+02  0.94696E+02
 0.73799995E+02  0.34372E+03
 0.73849998E+02  0.24626E+03
 0.73899994E+02  0.35774E+03
 0.73949997E+02  0.23758E+03
 0.73999992E+02  0.22065E+03
 0.74049995E+02  0.41066E+03
 0.74099998E+02  0.23451E+03
 0.74149994E+02  0.20488E+03
 0.74199997E+02  0.20737E+03
 0.74249992E+02  0.21735E+03
 0.74299995E+02  0.26365E+03
 0.74349998E+02  0.48902E+03
 0.74399994E+02  0.62588E+03
 0.74449997E+02  0.81596E+03
 0.74499992E+02  0.86919E+03
 0.74549995E+02  0.75182E+03
 0.74599998E+02  0.79901E+03
 0.74649994E+02  0.63204E+03
 0.74699997E+02  0.29564E+03
 0.74749992E+02  0.29888E+03
 0.74799995E+02  0.37721E+03
 0.74849998E+02  0.57159E+03
 0.74899994E+02  0.10119E+04
 0.74949997E+02  0.51758E+03
 0.74999992E+02  0.22310E+03
 0.75049995E+02  0.33169E+03
 0.75099998E+02  0.27923E+03
 0.75149994E+02  0.33071E+03
 0.75199997E+02  0.13496E+03
 0.75249992E+02  0.12072E+03
 0.75299995E+02  0.88809E+02
 0.75349998E+02  0.27602E+03
 0.75399994E+02  0.27596E+03
 0.75449997E+02  0.14096E+03
 0.75499992E+02  0.18400E+03
 0.75549995E+02  0.21747E+03
 0.75599998E+02  0.18279E+03
 0.75649994E+02  0.93335E+02
 0.75699997E+02  0.44639E+03
 0.75749992E+02  0.46243E+03
 0.75799995E+02  0.48359E+03
 0.75849998E+02  0.54372E+03
 0.75899994E+02  0.60559E+03
 0.75949997E+02  0.78926E+03
 0.75999992E+02  0.55235E+03
 0.76049995E+02  0.49304E+03
 0.76099998E+02  0.45271E+03
 0.76149994E+02  0.30278E+03
 0.76199997E+02  0.27871E+03
 0.76249992E+02  0.17582E+03
 0.76299995E+02 -0.11290E+03
 0.76349998E+02  0.12915E+03
 0.76399994E+02  0.96264E+03
 0.76449997E+02  0.99070E+03
 0.76499992E+02  0.61508E+03
 0.76549995E+02  0.53131E+03
 0.76599998E+02  0.31747E+03
 0.76649994E+02  0.33759E+03
 0.76699997E+02  0.45191E+02
 0.76749992E+02  0.43184E+02
 0.76799995E+02  0.14409E+03
 0.76849998E+02  0.23518E+03
 0.76899994E+02  0.47002E+03
 0.76949997E+02  0.34937E+03
 0.76999992E+02  0.18548E+03
 0.77049995E+02  0.10207E+03
 0.77099998E+02  0.85956E+02
 0.77149994E+02  0.61251E+02
 0.77199997E+02  0.21775E+03
 0.77249992E+02  0.23034E+03
 0.77299995E+02  0.37108E+03
 0.77349998E+02  0.44828E+03
 0.77399994E+02  0.45694E+03
 0.77449997E+02  0.80803E+03
 0.77499992E+02  0.82056E+03
 0.77549995E+02  0.61877E+03
 0.77599998E+02  0.42805E+03
 0.77649994E+02  0.34060E+03
 0.77699997E+02  0.31560E+03
 0.77749992E+02  0.27844E+03
 0.77799995E+02  0.49440E+03
 0.77849998E+02  0.43992E+03
 0.77899994E+02  0.53871E+03
 0.77949997E+02  0.47923E+03
 0.77999992E+02  0.58387E+03
 0.78049995E+02  0.51107E+03
 0.78099998E+02  0.12378E+03
 0.78149994E+02 -0.69993E+01
 0.78199997E+02 -0.47501E+02
 0.78249992E+02 -0.51853E+02
 0.78299995E+02 -0.14076E+03
 0.78349998E+02 -0.14608E+03
 0.78399994E+02 -0.28086E+03
 0.78449997E+02 -0.29126E+03
 0.78499992E+02 -0.27767E+03
 0.78549995E+02 -0.16196E+02
 0.78599998E+02  0.12982E+03
 0.78649994E+02  0.47600E+03
 0.78699997E+02  0.61874E+03
 0.78749992E+02  0.39778E+03
 0.78799995E+02  0.61341E+03
 0.78849998E+02  0.56909E+03
 0.78899994E+02  0.42776E+03
 0.78949997E+02  0.39910E+03
 0.78999992E+02  0.32601E+03
 0.79049995E+02  0.45478E+03
 0.79099998E+02  0.81444E+03
 0.79149994E+02  0.82961E+03
 0.79199997E+02  0.59365E+03
 0.79249992E+02  0.25870E+03
 0.79299995E+02  0.38536E+01
 0.79349998E+02  0.45042E+02
 0.79399994E+02  0.34671E+03
 0.79449997E+02  0.57212E+03
 0.79499992E+02  0.71419E+03
 0.79549995E+02  0.82144E+03
 0.79599998E+02  0.88447E+03
 0.79649994E+02  0.97241E+03
 0.79699997E+02  0.79983E+03
 0.79749992E+02  0.78282E+03
 0.79799995E+02  0.58688E+03
 0.79849998E+02  0.47410E+03
 0.79899994E+02  0.57902E+03
 0.79949997E+02  0.50097E+03
 0.79999992E+02  0.32793E+03
 0.80049995E+02  0.11874E+03
 0.80099998E+02  0.51408E+02
 0.80149994E+02  0.58343E+02
 0.80199997E+02  0.25044E+02
 0.80249992E+02  0.54007E+02
 0.80299995E+02  0.19365E+03
 0.80349998E+02  0.47886E+03
 0.80399994E+02  0.52302E+03
 0.80449997E+02  0.51571E+03
 0.80499992E+02  0.68277E+03
 0.80549995E+02  0.56598E+03
 0.80599998E+02  0.39566E+03
 0.80649994E+02  0.14732E+03
 0.80699997E+02  0.12796E+03
 0.80749992E+02  0.35577E+02
 0.80799995E+02 -0.85758E+01
 0.80849998E+02  0.12819E+03
 0.80899994E+02  0.18337E+03
 0.80949997E+02  0.26286E+03
 0.80999992E+02  0.45851E+02
 0.81049995E+02 -0.11072E+03
 0.81099998E+02 -0.10841E+02
 0.81149994E+02  0.43634E+03
 0.81199997E+02  0.68388E+03
 0.81249992E+02  0.50509E+03
 0.81299995E+02  0.45009E+03
 0.81349998E+02  0.47095E+03
 0.81399994E+02  0.60586E+03
 0.81449997E+02  0.66575E+03
 0.81499992E+02  0.64449E+03
 0.81549995E+02  0.53743E+03
 0.81599998E+02  0.38978E+03
 0.81649994E+02  0.51404E+03
 0.81699997E+02  0.45619E+03
 0.81749992E+02  0.17887E+03
 0.81799995E+02  0.95530E+02
 0.81849998E+02 -0.96721E+02
 0.81899994E+02 -0.10522E+03
 0.81949997E+02  0.21447E+03
 0.81999992E+02  0.38983E+03
 0.82049995E+02  0.51603E+03
 0.82099998E+02  0.31044E+03
 0.82149994E+02  0.22920E+03
 0.82199997E+02  0.13187E+03
 0.82249992E+02  0.89117E+02
 0.82299995E+02  0.25798E+03
 0.82349998E+02  0.25033E+03
 0.82399994E+02  0.39441E+03
 0.82449997E+02  0.47560E+03
 0.82499992E+02  0.49001E+03
 0.82549995E+02  0.59183E+03
 0.82599998E+02  0.57267E+03
 0.82649994E+02  0.29032E+03
 0.82699997E+02  0.37041E+03
 0.82749992E+02  0.48385E+03
 0.82799995E+02  0.47638E+03
 0.82849998E+02  0.72481E+03
 0.82899994E+02  0.75078E+03
 0.82949997E+02  0.68854E+03
 0.82999992E+02  0.49283E+03
 0.83049995E+02  0.21884E+03
 0.83099998E+02  0.11091E+03
 0.83149994E+02  0.37024E+02
 0.83199997E+02  0.25995E+03
 0.83249992E+02  0.38093E+03
 0.83299995E+02  0.36373E+03
 0.83349998E+02  0.48575E+03
 0.83399994E+02  0.56050E+03
 0.83449997E+02  0.45850E+03
 0.83499992E+02  0.36963E+03
 0.83549995E+02  0.23832E+03
 0.83599998E+02  0.27492E+03
 0.83649994E+02  0.27100E+03
 0.83699997E+02  0.13031E+03
 0.83749992E+02  0.26004E+03
 0.83799995E+02  0.30988E+03
 0.83849998E+02  0.53140E+03
 0.83899994E+02  0.43721E+03
 0.83949997E+02  0.40236E+03
 0.83999992E+02  0.30333E+03
 0.84049995E+02 -0.14923E+03
 0.84099998E+02 -0.11627E+03
 0.84149994E+02  0.10596E+03
 0.84199997E+02  0.29254E+03
 0.84249992E+02  0.47729E+03
 0.84299995E+02  0.62588E+03
 0.84349998E+02  0.54543E+03
 0.84399994E+02  0.33644E+03
 0.84449997E+02  0.34443E+03
 0.84499992E+02  0.51712E+03
 0.84549995E+02  0.44204E+03
 0.84599998E+02  0.37499E+03
 0.84649994E+02  0.29632E+03
 0.84699997E+02  0.52897E+02
 0.84749992E+02  0.74691E+02
 0.84799995E+02  0.12947E+03
 0.84849998E+02  0.40208E+03
 0.84899994E+02  0.57340E+03
 0.84949997E+02  0.44845E+03
 0.84999992E+02  0.33262E+03
 0.85049995E+02 -0.12168E+03
 0.85099998E+02 -0.10798E+03
 0.85149994E+02  0.25750E+03
 0.85199997E+02  0.29779E+03
 0.85249992E+02  0.31868E+03
 0.85299995E+02  0.31404E+03
 0.85349998E+02  0.23524E+03
 0.85399994E+02  0.32685E+03
 0.85449997E+02  0.52550E+03
 0.85499992E+02  0.70789E+03
 0.85549995E+02  0.58925E+03
 0.85599998E+02  0.29389E+03
 0.85649994E+02  0.94495E+02
 0.85699997E+02  0.21532E+03
 0.85749992E+02  0.57670E+03
 0.85799995E+02  0.83818E+03
 0.85849998E+02  0.95173E+03
 0.85899994E+02  0.64341E+03
 0.85949997E+02  0.52595E+03
 0.85999992E+02  0.30759E+03
 0.86049995E+02  0.17494E+03
 0.86099998E+02  0.19683E+03
 0.86149994E+02  0.24395E+03
 0.86199997E+02  0.47453E+03
 0.86249992E+02  0.64410E+03
 0.86299995E+02  0.70720E+03
 0.86349998E+02  0.63493E+03
 0.86399994E+02  0.49171E+03
 0.86449997E+02  0.29686E+03
 0.86499992E+02  0.26893E+03
 0.86549995E+02  0.11224E+03
 0.86599998E+02  0.12630E+03
 0.86649994E+02  0.14962E+03
 0.86699997E+02  0.45140E+03
 0.86749992E+02  0.79655E+03
 0.86799995E+02  0.86318E+03
 0.86849998E+02  0.65615E+03
 0.86899994E+02  0.44228E+03
 0.86949997E+02  0.46394E+03
 0.86999992E+02  0.19582E+03
 0.87049995E+02  0.11494E+03
 0.87099998E+02  0.96373E+02
 0.87149994E+02  0.12899E+03
 0.87199997E+02  0.24559E+03
 0.87249992E+02  0.28522E+03
 0.87299995E+02  0.13685E+03
 0.87349998E+02  0.92938E+02
 0.87399994E+02  0.21711E+03
 0.87449997E+02  0.30962E+03
 0.87499992E+02  0.31266E+03
 0.87549995E+02  0.28773E+03
 0.87599991E+02  0.36867E+03
 0.87649994E+02  0.38843E+03
 0.87699997E+02  0.48082E+03
 0.87749992E+02  0.47776E+03
 0.87799995E+02  0.47388E+03
 0.87849991E+02  0.39241E+03
 0.87899994E+02  0.24217E+03
 0.87949997E+02  0.16713E+03
 0.87999992E+02  0.10012E+03
 0.88049995E+02  0.75518E+02
 0.88099991E+02  0.50407E+02
 0.88149994E+02  0.38097E+02
 0.88199997E+02  0.95052E+02
 0.88249992E+02  0.18843E+03
 0.88299995E+02  0.13032E+03
 0.88349991E+02  0.87140E+02
 0.88399994E+02 -0.15643E+02
 0.88449997E+02  0.38324E+02
 0.88499992E+02  0.22010E+03
 0.88549995E+02  0.31674E+03
 0.88599991E+02  0.46369E+03
 0.88649994E+02  0.59761E+03
 0.88699997E+02  0.62999E+03
 0.88749992E+02  0.65693E+03
 0.88799995E+02  0.66428E+03
 0.88849991E+02  0.56568E+03
 0.88899994E+02  0.46957E+03
 0.88949997E+02  0.11451E+03
 0.88999992E+02  0.94447E+02
 0.89049995E+02  0.36897E+03
 0.89099991E+02  0.54110E+03
 0.89149994E+02  0.72871E+03
 0.89199997E+02  0.59574E+03
 0.89249992E+02  0.53914E+03
 0.89299995E+02  0.42505E+03
 0.89349991E+02  0.28810E+03
 0.89399994E+02  0.33271E+03
 0.89449997E+02  0.29080E+03
 0.89499992E+02  0.33165E+03
 0.89549995E+02  0.42110E+03
 0.89599991E+02  0.54736E+03
 0.89649994E+02  0.44167E+03
 0.89699997E+02  0.42723E+03
 0.89749992E+02  0.47482E+03
 0.89799995E+02  0.46292E+03
 0.89849991E+02  0.35856E+03
 0.89899994E+02  0.21133E+03
 0.89949997E+02  0.22760E+03
 0.89999992E+02  0.20312E+03
 0.90049995E+02  0.32471E+03
 0.90099991E+02  0.45170E+03
 0.90149994E+02  0.54609E+03
 0.90199997E+02  0.58299E+03
 0.90249992E+02  0.55307E+03
 0.90299995E+02  0.42850E+03
 0.90349991E+02  0.34771E+03
 0.90399994E+02  0.36449E+03
 0.90449997E+02  0.36961E+03
 0.90499992E+02  0.24312E+03
 0.90549995E+02  0.25699E+03
 0.90599991E+02  0.22102E+03
 0.90649994E+02  0.13079E+03
 0.90699997E+02  0.27925E+03
 0.90749992E+02  0.38443E+03
 0.90799995E+02  0.38408E+03
 0.90849991E+02  0.38640E+03
 0.90899994E+02  0.39533E+03
 0.90949997E+02  0.29938E+03
 0.90999992E+02  0.34046E+03
 0.91049995E+02  0.42354E+03
 0.91099991E+02  0.56286E+03
 0.91149994E+02  0.52611E+03
 0.91199997E+02  0.31742E+03
 0.91249992E+02  0.19197E+03
 0.91299995E+02  0.12552E+03
 0.91349991E+02  0.15431E+03
 0.91399994E+02  0.27540E+03
 0.91449997E+02  0.35485E+03
 0.91499992E+02  0.28410E+03
 0.91549995E+02  0.30366E+03
 0.91599991E+02  0.39551E+03
 0.91649994E+02  0.49215E+03
 0.91699997E+02  0.37907E+03
 0.91749992E+02  0.23174E+03
 0.91799995E+02  0.32809E+03
 0.91849991E+02  0.26359E+03
 0.91899994E+02  0.19594E+03
 0.91949997E+02  0.27747E+03
 0.91999992E+02  0.46968E+03
 0.92049995E+02  0.71434E+03
 0.92099991E+02  0.78342E+03
 0.92149994E+02  0.58783E+03
 0.92199997E+02  0.23425E+03
 0.92249992E+02  0.96514E+02
 0.92299995E+02  0.54534E+02
 0.92349991E+02  0.11655E+03
 0.92399994E+02  0.25194E+03
 0.92449997E+02  0.26557E+03
 0.92499992E+02  0.26775E+03
 0.92549995E+02  0.31383E+03
 0.92599991E+02  0.30086E+03
 0.92649994E+02  0.22931E+03
 0.92699997E+02  0.16265E+03
 0.92749992E+02  0.80660E+02
 0.92799995E+02  0.19413E+03
 0.92849991E+02  0.26988E+03
 0.92899994E+02  0.32481E+03
 0.92949997E+02  0.43348E+03
 0.92999992E+02  0.40500E+03
 0.93049995E+02  0.50372E+03
 0.93099991E+02  0.51737E+03
 0.93149994E+02  0.53553E+03
 0.93199997E+02  0.59566E+03
 0.93249992E+02  0.54119E+03
 0.93299995E+02  0.49705E+03
 0.93349991E+02  0.34224E+03
 0.93399994E+02  0.42477E+03
 0.93449997E+02  0.55128E+03
 0.93499992E+02  0.55369E+03
 0.93549995E+02  0.57161E+03
 0.93599991E+02  0.53785E+03
 0.93649994E+02  0.55450E+03
 0.93699997E+02  0.48964E+03
 0.93749992E+02  0.36747E+03
 0.93799995E+02  0.26981E+03
 0.93849991E+02  0.22240E+03
 0.93899994E+02  0.19462E+03
 0.93949997E+02  0.64421E+01
 0.93999992E+02 -0.10898E+03
 0.94049995E+02  0.14738E+03
 0.94099991E+02  0.30327E+03
 0.94149994E+02  0.37967E+03
 0.94199997E+02  0.36711E+03
 0.94249992E+02  0.32378E+03
 0.94299995E+02  0.47057E+03
 0.94349991E+02  0.40513E+03
 0.94399994E+02  0.33083E+03
 0.94449997E+02  0.33760E+03
 0.94499992E+02  0.38548E+03
 0.94549995E+02  0.41305E+03
 0.94599991E+02  0.31339E+03
 0.94649994E+02  0.10284E+03
 0.94699997E+02 -0.13232E+03
 0.94749992E+02 -0.72988E+02
 0.94799995E+02  0.93780E+02
 0.94849991E+02  0.19565E+03
 0.94899994E+02  0.27029E+03
 0.94949997E+02  0.25684E+03
 0.94999992E+02  0.28980E+03
 0.95049995E+02  0.30456E+03
 0.95099991E+02  0.33180E+03
 0.95149994E+02  0.37333E+03
 0.95199997E+02  0.35534E+03
 0.95249992E+02  0.48523E+03
 0.95299995E+02  0.57783E+03
 0.95349991E+02  0.62384E+03
 0.95399994E+02  0.59429E+03
 0.95449997E+02  0.58764E+03
 0.95499992E+02  0.58467E+03
 0.95549995E+02  0.41154E+03
 0.95599991E+02  0.29215E+03
 0.95649994E+02  0.94314E+02
 0.95699997E+02 -0.14718E+02
 0.95749992E+02  0.13584E+03
 0.95799995E+02  0.30579E+03
 0.95849991E+02  0.30638E+03
 0.95899994E+02  0.23052E+03
 0.95949997E+02  0.16492E+03
 0.95999992E+02  0.17449E+03
 0.96049995E+02  0.30167E+03
 0.96099991E+02  0.45441E+03
 0.96149994E+02  0.65901E+03
 0.96199997E+02  0.59001E+03
 0.96249992E+02  0.53909E+03
 0.96299995E+02  0.57813E+03
 0.96349991E+02  0.48288E+03
 0.96399994E+02  0.50654E+03
 0.96449997E+02  0.54384E+03
 0.96499992E+02  0.53196E+03
 0.96549995E+02  0.46538E+03
 0.96599991E+02  0.34112E+03
 0.96649994E+02  0.20961E+03
 0.96699997E+02  0.22025E+03
 0.96749992E+02  0.25746E+03
 0.96799995E+02  0.35958E+03
 0.96849991E+02  0.30509E+03
 0.96899994E+02  0.34848E+03
 0.96949997E+02  0.44148E+03
 0.96999992E+02  0.25667E+03
 0.97049995E+02  0.22548E+03
 0.97099991E+02  0.21260E+03
 0.97149994E+02  0.33544E+03
 0.97199997E+02  0.37468E+03
 0.97249992E+02  0.27328E+03
 0.97299995E+02  0.26466E+03
 0.97349991E+02  0.25407E+03
 0.97399994E+02  0.33282E+03
 0.97449997E+02  0.44080E+03
 0.97499992E+02  0.40590E+03
 0.97549995E+02  0.36736E+03
 0.97599991E+02  0.40825E+03
 0.97649994E+02  0.42999E+03
 0.97699997E+02  0.43380E+03
 0.97749992E+02  0.37865E+03
 0.97799995E+02  0.39337E+03
 0.97849991E+02  0.47617E+03
 0.97899994E+02  0.40732E+03
 0.97949997E+02  0.31594E+03
 0.97999992E+02  0.31048E+03
