-0.20000000E+01 -0.57821E+05
-0.19500000E+01 -0.57489E+05
-0.19000000E+01 -0.57727E+05
-0.18500000E+01 -0.57713E+05
-0.18000000E+01 -0.57715E+05
-0.17500000E+01 -0.57730E+05
-0.17000000E+01 -0.57768E+05
-0.16500001E+01 -0.57808E+05
-0.16000000E+01 -0.57853E+05
-0.15500000E+01 -0.57880E+05
-0.15000000E+01 -0.57914E+05
-0.14500000E+01 -0.57955E+05
-0.14000001E+01 -0.57990E+05
-0.13500000E+01 -0.58047E+05
-0.13000001E+01 -0.58107E+05
-0.12500000E+01 -0.58167E+05
-0.12000000E+01 -0.58180E+05
-0.11500001E+01 -0.58169E+05
-0.11000000E+01 -0.58157E+05
-0.10500001E+01 -0.58150E+05
-0.10000000E+01 -0.58165E+05
-0.95000005E+00 -0.58185E+05
-0.90000010E+00 -0.58212E+05
-0.85000002E+00 -0.58262E+05
-0.80000007E+00 -0.58332E+05
-0.75000012E+00 -0.58405E+05
-0.70000005E+00 -0.58492E+05
-0.65000010E+00 -0.58593E+05
-0.60000014E+00 -0.58662E+05
-0.55000007E+00 -0.58682E+05
-0.50000012E+00 -0.58662E+05
-0.45000005E+00 -0.58613E+05
-0.40000010E+00 -0.58577E+05
-0.35000014E+00 -0.58547E+05
-0.30000007E+00 -0.58550E+05
-0.25000012E+00 -0.58560E+05
-0.20000005E+00 -0.58580E+05
-0.15000010E+00 -0.58627E+05
-0.10000014E+00 -0.58654E+05
-0.50000072E-01 -0.58700E+05
-0.11920929E-06 -0.58736E+05
 0.49999952E-01 -0.58760E+05
 0.99999905E-01 -0.58758E+05
 0.14999986E+00 -0.58751E+05
 0.19999981E+00 -0.58734E+05
 0.24999976E+00 -0.58684E+05
 0.29999995E+00 -0.58648E+05
 0.34999990E+00 -0.58599E+05
 0.39999986E+00 -0.58575E+05
 0.44999981E+00 -0.58551E+05
 0.49999976E+00 -0.58511E+05
 0.54999995E+00 -0.58456E+05
 0.59999990E+00 -0.58368E+05
 0.64999986E+00 -0.58267E+05
 0.69999981E+00 -0.58176E+05
 0.74999976E+00 -0.58116E+05
 0.79999971E+00 -0.58055E+05
 0.84999990E+00 -0.58019E+05
 0.89999986E+00 -0.58000E+05
 0.94999981E+00 -0.57971E+05
 0.99999976E+00 -0.57965E+05
 0.10499997E+01 -0.57959E+05
 0.10999999E+01 -0.57965E+05
 0.11499999E+01 -0.57988E+05
 0.11999998E+01 -0.58011E+05
 0.12499998E+01 -0.58027E+05
 0.12999997E+01 -0.58049E+05
 0.13499999E+01 -0.58098E+05
 0.13999999E+01 -0.58139E+05
 0.14499998E+01 -0.58178E+05
 0.14999998E+01 -0.58241E+05
 0.15499997E+01 -0.58283E+05
 0.15999999E+01 -0.58309E+05
 0.16499999E+01 -0.58323E+05
 0.16999998E+01 -0.58319E+05
 0.17499998E+01 -0.58307E+05
 0.17999997E+01 -0.58310E+05
 0.18499997E+01 -0.58311E+05
 0.18999999E+01 -0.58284E+05
 0.19499998E+01 -0.58270E+05
 0.19999998E+01 -0.58246E+05
 0.20499997E+01 -0.58227E+05
 0.20999999E+01 -0.58217E+05
 0.21499996E+01 -0.58203E+05
 0.21999998E+01 -0.58200E+05
 0.22499995E+01 -0.58205E+05
 0.22999997E+01 -0.58187E+05
 0.23499999E+01 -0.58152E+05
 0.23999996E+01 -0.58132E+05
 0.24499998E+01 -0.58118E+05
 0.24999995E+01 -0.58104E+05
 0.25499997E+01 -0.58080E+05
 0.25999999E+01 -0.58075E+05
 0.26499996E+01 -0.58077E+05
 0.26999998E+01 -0.58059E+05
 0.27499995E+01 -0.58038E+05
 0.27999997E+01 -0.58015E+05
 0.28499999E+01 -0.58012E+05
 0.28999996E+01 -0.58028E+05
 0.29499998E+01 -0.58048E+05
 0.29999995E+01 -0.58086E+05
 0.30499997E+01 -0.58111E+05
 0.30999999E+01 -0.58167E+05
 0.31499996E+01 -0.58245E+05
 0.31999998E+01 -0.58298E+05
 0.32499995E+01 -0.58342E+05
 0.32999997E+01 -0.58365E+05
 0.33499999E+01 -0.58389E+05
 0.33999996E+01 -0.58400E+05
 0.34499998E+01 -0.58435E+05
 0.34999995E+01 -0.58487E+05
 0.35499997E+01 -0.58536E+05
 0.35999994E+01 -0.58615E+05
 0.36499996E+01 -0.58668E+05
 0.36999998E+01 -0.58707E+05
 0.37499995E+01 -0.58714E+05
 0.37999997E+01 -0.58713E+05
 0.38499994E+01 -0.58694E+05
 0.38999996E+01 -0.58650E+05
 0.39499998E+01 -0.58613E+05
 0.39999995E+01 -0.58573E+05
 0.40499997E+01 -0.58527E+05
 0.40999994E+01 -0.58454E+05
 0.41499996E+01 -0.58362E+05
 0.41999998E+01 -0.58267E+05
 0.42499995E+01 -0.58202E+05
 0.42999997E+01 -0.58143E+05
 0.43499994E+01 -0.58140E+05
 0.43999996E+01 -0.58140E+05
 0.44499998E+01 -0.58136E+05
 0.44999995E+01 -0.58143E+05
 0.45499997E+01 -0.58147E+05
 0.45999994E+01 -0.58175E+05
 0.46499996E+01 -0.58202E+05
 0.46999998E+01 -0.58242E+05
 0.47499995E+01 -0.58282E+05
 0.47999997E+01 -0.58336E+05
 0.48499994E+01 -0.58380E+05
 0.48999996E+01 -0.58414E+05
 0.49499998E+01 -0.58435E+05
 0.49999995E+01 -0.58429E+05
 0.50499997E+01 -0.58402E+05
 0.50999994E+01 -0.58374E+05
 0.51499996E+01 -0.58356E+05
 0.51999998E+01 -0.58334E+05
 0.52499995E+01 -0.58314E+05
 0.52999997E+01 -0.58283E+05
 0.53499994E+01 -0.58262E+05
 0.53999996E+01 -0.58230E+05
 0.54499993E+01 -0.58215E+05
 0.54999995E+01 -0.58218E+05
 0.55499997E+01 -0.58215E+05
 0.55999994E+01 -0.58220E+05
 0.56499996E+01 -0.58194E+05
 0.56999993E+01 -0.58164E+05
 0.57499995E+01 -0.58131E+05
 0.57999997E+01 -0.58114E+05
 0.58499994E+01 -0.58107E+05
 0.58999996E+01 -0.58098E+05
 0.59499993E+01 -0.58120E+05
 0.59999995E+01 -0.58129E+05
 0.60499992E+01 -0.58143E+05
 0.60999994E+01 -0.58153E+05
 0.61499996E+01 -0.58178E+05
 0.61999998E+01 -0.58237E+05
 0.62499990E+01 -0.58287E+05
 0.62999992E+01 -0.58312E+05
 0.63499994E+01 -0.58321E+05
 0.63999996E+01 -0.58320E+05
 0.64499998E+01 -0.58325E+05
 0.64999990E+01 -0.58334E+05
 0.65499992E+01 -0.58318E+05
 0.65999994E+01 -0.58275E+05
 0.66499996E+01 -0.58235E+05
 0.66999998E+01 -0.58210E+05
 0.67499990E+01 -0.58170E+05
 0.67999992E+01 -0.58151E+05
 0.68499994E+01 -0.58156E+05
 0.68999996E+01 -0.58182E+05
 0.69499998E+01 -0.58198E+05
 0.69999990E+01 -0.58196E+05
 0.70499992E+01 -0.58206E+05
 0.70999994E+01 -0.58221E+05
 0.71499996E+01 -0.58232E+05
 0.71999998E+01 -0.58227E+05
 0.72499990E+01 -0.58222E+05
 0.72999992E+01 -0.58220E+05
 0.73499994E+01 -0.58211E+05
 0.73999996E+01 -0.58173E+05
 0.74499998E+01 -0.58120E+05
 0.74999990E+01 -0.58101E+05
 0.75499992E+01 -0.58100E+05
 0.75999994E+01 -0.58104E+05
 0.76499996E+01 -0.58096E+05
 0.76999998E+01 -0.58092E+05
 0.77499990E+01 -0.58100E+05
 0.77999992E+01 -0.58110E+05
 0.78499994E+01 -0.58127E+05
 0.78999996E+01 -0.58156E+05
 0.79499998E+01 -0.58189E+05
 0.79999990E+01 -0.58226E+05
 0.80499992E+01 -0.58251E+05
 0.80999994E+01 -0.58248E+05
 0.81499996E+01 -0.58268E+05
 0.81999998E+01 -0.58292E+05
 0.82499990E+01 -0.58344E+05
 0.82999992E+01 -0.58413E+05
 0.83499994E+01 -0.58472E+05
 0.83999996E+01 -0.58533E+05
 0.84499998E+01 -0.58578E+05
 0.84999990E+01 -0.58620E+05
 0.85499992E+01 -0.58650E+05
 0.85999994E+01 -0.58679E+05
 0.86499996E+01 -0.58714E+05
 0.86999998E+01 -0.58754E+05
 0.87499990E+01 -0.58774E+05
 0.87999992E+01 -0.58775E+05
 0.88499994E+01 -0.58756E+05
 0.88999996E+01 -0.58709E+05
 0.89499998E+01 -0.58661E+05
 0.89999990E+01 -0.58590E+05
 0.90499992E+01 -0.58489E+05
 0.90999994E+01 -0.58395E+05
 0.91499996E+01 -0.58332E+05
 0.91999989E+01 -0.58255E+05
 0.92499990E+01 -0.58161E+05
 0.92999992E+01 -0.58103E+05
 0.93499994E+01 -0.58062E+05
 0.93999996E+01 -0.58035E+05
 0.94499989E+01 -0.58011E+05
 0.94999990E+01 -0.58006E+05
 0.95499992E+01 -0.58020E+05
 0.95999994E+01 -0.58040E+05
 0.96499996E+01 -0.58053E+05
 0.96999989E+01 -0.58075E+05
 0.97499990E+01 -0.58153E+05
 0.97999992E+01 -0.58208E+05
 0.98499994E+01 -0.58267E+05
 0.98999996E+01 -0.58300E+05
 0.99499989E+01 -0.58291E+05
 0.99999990E+01 -0.58280E+05
 0.10049999E+02 -0.58236E+05
 0.10099999E+02 -0.58176E+05
 0.10150000E+02 -0.58137E+05
 0.10199999E+02 -0.58119E+05
 0.10249999E+02 -0.58112E+05
 0.10299999E+02 -0.58112E+05
 0.10349999E+02 -0.58094E+05
 0.10400000E+02 -0.58101E+05
 0.10449999E+02 -0.58117E+05
 0.10499999E+02 -0.58149E+05
 0.10549999E+02 -0.58184E+05
 0.10599999E+02 -0.58215E+05
 0.10650000E+02 -0.58255E+05
 0.10699999E+02 -0.58294E+05
 0.10749999E+02 -0.58336E+05
 0.10799999E+02 -0.58380E+05
 0.10849999E+02 -0.58433E+05
 0.10900000E+02 -0.58513E+05
 0.10949999E+02 -0.58596E+05
 0.10999999E+02 -0.58658E+05
 0.11049999E+02 -0.58713E+05
 0.11099999E+02 -0.58759E+05
 0.11150000E+02 -0.58787E+05
 0.11199999E+02 -0.58764E+05
 0.11249999E+02 -0.58731E+05
 0.11299999E+02 -0.58680E+05
 0.11349999E+02 -0.58610E+05
 0.11400000E+02 -0.58538E+05
 0.11449999E+02 -0.58453E+05
 0.11499999E+02 -0.58368E+05
 0.11549999E+02 -0.58277E+05
 0.11599999E+02 -0.58173E+05
 0.11650000E+02 -0.58063E+05
 0.11699999E+02 -0.57972E+05
 0.11749999E+02 -0.57916E+05
 0.11799999E+02 -0.57887E+05
 0.11849999E+02 -0.57865E+05
 0.11900000E+02 -0.57865E+05
 0.11949999E+02 -0.57855E+05
 0.11999999E+02 -0.57853E+05
 0.12049999E+02 -0.57872E+05
 0.12099999E+02 -0.57879E+05
 0.12150000E+02 -0.57891E+05
 0.12199999E+02 -0.57913E+05
 0.12249999E+02 -0.57902E+05
 0.12299999E+02 -0.57887E+05
 0.12349999E+02 -0.57882E+05
 0.12400000E+02 -0.57899E+05
 0.12449999E+02 -0.57945E+05
 0.12499999E+02 -0.57981E+05
 0.12549999E+02 -0.58036E+05
 0.12599999E+02 -0.58074E+05
 0.12649999E+02 -0.58136E+05
 0.12699999E+02 -0.58203E+05
 0.12749999E+02 -0.58268E+05
 0.12799999E+02 -0.58343E+05
 0.12849999E+02 -0.58406E+05
 0.12899999E+02 -0.58476E+05
 0.12949999E+02 -0.58536E+05
 0.12999999E+02 -0.58585E+05
 0.13049999E+02 -0.58611E+05
 0.13099999E+02 -0.58614E+05
 0.13149999E+02 -0.58590E+05
 0.13199999E+02 -0.58549E+05
 0.13249999E+02 -0.58496E+05
 0.13299999E+02 -0.58440E+05
 0.13349999E+02 -0.58402E+05
 0.13399999E+02 -0.58365E+05
 0.13449999E+02 -0.58338E+05
 0.13499999E+02 -0.58349E+05
 0.13549999E+02 -0.58362E+05
 0.13599999E+02 -0.58399E+05
 0.13649999E+02 -0.58439E+05
 0.13699999E+02 -0.58492E+05
 0.13749999E+02 -0.58570E+05
 0.13799999E+02 -0.58641E+05
 0.13849999E+02 -0.58679E+05
 0.13899999E+02 -0.58690E+05
 0.13949999E+02 -0.58694E+05
 0.13999999E+02 -0.58673E+05
 0.14049999E+02 -0.58646E+05
 0.14099998E+02 -0.58592E+05
 0.14150000E+02 -0.58523E+05
 0.14199999E+02 -0.58438E+05
 0.14249998E+02 -0.58345E+05
 0.14299999E+02 -0.58247E+05
 0.14349998E+02 -0.58149E+05
 0.14400000E+02 -0.58065E+05
 0.14449999E+02 -0.57979E+05
 0.14499998E+02 -0.57901E+05
 0.14549999E+02 -0.57845E+05
 0.14599998E+02 -0.57822E+05
 0.14650000E+02 -0.57808E+05
 0.14699999E+02 -0.57822E+05
 0.14749998E+02 -0.57873E+05
 0.14799999E+02 -0.57933E+05
 0.14849998E+02 -0.58001E+05
 0.14900000E+02 -0.58056E+05
 0.14949999E+02 -0.58093E+05
 0.14999998E+02 -0.58148E+05
 0.15049999E+02 -0.58183E+05
 0.15099998E+02 -0.58216E+05
 0.15150000E+02 -0.58262E+05
 0.15199999E+02 -0.58289E+05
 0.15249998E+02 -0.58311E+05
 0.15299999E+02 -0.58306E+05
 0.15349998E+02 -0.58295E+05
 0.15400000E+02 -0.58280E+05
 0.15449999E+02 -0.58289E+05
 0.15499998E+02 -0.58286E+05
 0.15549999E+02 -0.58271E+05
 0.15599998E+02 -0.58264E+05
 0.15650000E+02 -0.58259E+05
 0.15699999E+02 -0.58256E+05
 0.15749998E+02 -0.58256E+05
 0.15799999E+02 -0.58271E+05
 0.15849998E+02 -0.58254E+05
 0.15900000E+02 -0.58251E+05
 0.15949999E+02 -0.58253E+05
 0.15999998E+02 -0.58261E+05
 0.16049999E+02 -0.58281E+05
 0.16099998E+02 -0.58298E+05
 0.16150000E+02 -0.58346E+05
 0.16199999E+02 -0.58377E+05
 0.16249998E+02 -0.58379E+05
 0.16299999E+02 -0.58376E+05
 0.16349998E+02 -0.58396E+05
 0.16400000E+02 -0.58406E+05
 0.16449999E+02 -0.58424E+05
 0.16499998E+02 -0.58436E+05
 0.16549999E+02 -0.58433E+05
 0.16599998E+02 -0.58455E+05
 0.16650000E+02 -0.58472E+05
 0.16699999E+02 -0.58491E+05
 0.16749998E+02 -0.58485E+05
 0.16799999E+02 -0.58478E+05
 0.16849998E+02 -0.58471E+05
 0.16900000E+02 -0.58434E+05
 0.16949999E+02 -0.58373E+05
 0.16999998E+02 -0.58305E+05
 0.17049999E+02 -0.58241E+05
 0.17099998E+02 -0.58201E+05
 0.17150000E+02 -0.58166E+05
 0.17199999E+02 -0.58151E+05
 0.17249998E+02 -0.58147E+05
 0.17299999E+02 -0.58149E+05
 0.17349998E+02 -0.58187E+05
 0.17400000E+02 -0.58191E+05
 0.17449999E+02 -0.58212E+05
 0.17499998E+02 -0.58254E+05
 0.17549999E+02 -0.58291E+05
 0.17599998E+02 -0.58341E+05
 0.17650000E+02 -0.58375E+05
 0.17699999E+02 -0.58406E+05
 0.17749998E+02 -0.58419E+05
 0.17799999E+02 -0.58432E+05
 0.17849998E+02 -0.58448E+05
 0.17900000E+02 -0.58441E+05
 0.17949999E+02 -0.58434E+05
 0.17999998E+02 -0.58417E+05
 0.18049999E+02 -0.58394E+05
 0.18099998E+02 -0.58371E+05
 0.18150000E+02 -0.58327E+05
 0.18199999E+02 -0.58278E+05
 0.18249998E+02 -0.58246E+05
 0.18299999E+02 -0.58202E+05
 0.18349998E+02 -0.58162E+05
 0.18400000E+02 -0.58144E+05
 0.18449999E+02 -0.58119E+05
 0.18499998E+02 -0.58097E+05
 0.18549999E+02 -0.58096E+05
 0.18599998E+02 -0.58100E+05
 0.18650000E+02 -0.58093E+05
 0.18699999E+02 -0.58091E+05
 0.18749998E+02 -0.58099E+05
 0.18799999E+02 -0.58102E+05
 0.18849998E+02 -0.58106E+05
 0.18900000E+02 -0.58111E+05
 0.18949999E+02 -0.58102E+05
 0.18999998E+02 -0.58110E+05
 0.19049999E+02 -0.58133E+05
 0.19099998E+02 -0.58151E+05
 0.19150000E+02 -0.58163E+05
 0.19199999E+02 -0.58155E+05
 0.19249998E+02 -0.58148E+05
 0.19299999E+02 -0.58153E+05
 0.19349998E+02 -0.58160E+05
 0.19400000E+02 -0.58139E+05
 0.19449999E+02 -0.58132E+05
 0.19499998E+02 -0.58124E+05
 0.19549999E+02 -0.58123E+05
 0.19599998E+02 -0.58134E+05
 0.19650000E+02 -0.58146E+05
 0.19699999E+02 -0.58172E+05
 0.19749998E+02 -0.58221E+05
 0.19799999E+02 -0.58282E+05
 0.19849998E+02 -0.58327E+05
 0.19900000E+02 -0.58378E+05
 0.19949999E+02 -0.58424E+05
 0.19999998E+02 -0.58493E+05
 0.20049999E+02 -0.58531E+05
 0.20099998E+02 -0.58577E+05
 0.20150000E+02 -0.58627E+05
 0.20199999E+02 -0.58661E+05
 0.20249998E+02 -0.58689E+05
 0.20299999E+02 -0.58682E+05
 0.20349998E+02 -0.58684E+05
 0.20399998E+02 -0.58684E+05
 0.20449999E+02 -0.58687E+05
 0.20499998E+02 -0.58639E+05
 0.20549999E+02 -0.58601E+05
 0.20599998E+02 -0.58556E+05
 0.20649998E+02 -0.58502E+05
 0.20699999E+02 -0.58444E+05
 0.20749998E+02 -0.58372E+05
 0.20799999E+02 -0.58324E+05
 0.20849998E+02 -0.58255E+05
 0.20899998E+02 -0.58231E+05
 0.20949999E+02 -0.58212E+05
 0.20999998E+02 -0.58217E+05
 0.21049999E+02 -0.58223E+05
 0.21099998E+02 -0.58202E+05
 0.21149998E+02 -0.58173E+05
 0.21199999E+02 -0.58139E+05
 0.21249998E+02 -0.58121E+05
 0.21299999E+02 -0.58115E+05
 0.21349998E+02 -0.58109E+05
 0.21399998E+02 -0.58088E+05
 0.21449999E+02 -0.58081E+05
 0.21499998E+02 -0.58075E+05
 0.21549999E+02 -0.58075E+05
 0.21599998E+02 -0.58078E+05
 0.21649998E+02 -0.58093E+05
 0.21699999E+02 -0.58122E+05
 0.21749998E+02 -0.58154E+05
 0.21799999E+02 -0.58179E+05
 0.21849998E+02 -0.58206E+05
 0.21899998E+02 -0.58222E+05
 0.21949999E+02 -0.58220E+05
 0.21999998E+02 -0.58211E+05
 0.22049999E+02 -0.58201E+05
 0.22099998E+02 -0.58191E+05
 0.22149998E+02 -0.58196E+05
 0.22199999E+02 -0.58210E+05
 0.22249998E+02 -0.58230E+05
 0.22299999E+02 -0.58260E+05
 0.22349998E+02 -0.58285E+05
 0.22399998E+02 -0.58321E+05
 0.22449999E+02 -0.58348E+05
 0.22499998E+02 -0.58377E+05
 0.22549999E+02 -0.58401E+05
 0.22599998E+02 -0.58393E+05
 0.22649998E+02 -0.58383E+05
 0.22699999E+02 -0.58382E+05
 0.22749998E+02 -0.58388E+05
 0.22799999E+02 -0.58399E+05
 0.22849998E+02 -0.58418E+05
 0.22899998E+02 -0.58429E+05
 0.22949999E+02 -0.58438E+05
 0.22999998E+02 -0.58456E+05
 0.23049999E+02 -0.58417E+05
 0.23099998E+02 -0.58379E+05
 0.23149998E+02 -0.58371E+05
 0.23199999E+02 -0.58331E+05
 0.23249998E+02 -0.58280E+05
 0.23299999E+02 -0.58238E+05
 0.23349998E+02 -0.58181E+05
 0.23399998E+02 -0.58121E+05
 0.23449999E+02 -0.58083E+05
 0.23499998E+02 -0.58060E+05
 0.23549999E+02 -0.58047E+05
 0.23599998E+02 -0.58046E+05
 0.23649998E+02 -0.58067E+05
 0.23699999E+02 -0.58088E+05
 0.23749998E+02 -0.58125E+05
 0.23799999E+02 -0.58160E+05
 0.23849998E+02 -0.58183E+05
 0.23899998E+02 -0.58233E+05
 0.23949999E+02 -0.58282E+05
 0.23999998E+02 -0.58320E+05
 0.24049999E+02 -0.58345E+05
 0.24099998E+02 -0.58358E+05
 0.24149998E+02 -0.58358E+05
 0.24199999E+02 -0.58353E+05
 0.24249998E+02 -0.58367E+05
 0.24299999E+02 -0.58365E+05
 0.24349998E+02 -0.58359E+05
 0.24399998E+02 -0.58357E+05
 0.24449999E+02 -0.58392E+05
 0.24499998E+02 -0.58422E+05
 0.24549999E+02 -0.58428E+05
 0.24599998E+02 -0.58415E+05
 0.24649998E+02 -0.58423E+05
 0.24699999E+02 -0.58431E+05
 0.24749998E+02 -0.58512E+05
 0.24799999E+02 -0.58562E+05
 0.24849998E+02 -0.58539E+05
 0.24899998E+02 -0.58394E+05
 0.24949999E+02 -0.58293E+05
 0.24999998E+02 -0.58303E+05
 0.25049999E+02 -0.58349E+05
 0.25099998E+02 -0.58379E+05
 0.25149998E+02 -0.58318E+05
 0.25199999E+02 -0.58162E+05
 0.25249998E+02 -0.58036E+05
 0.25299999E+02 -0.57971E+05
 0.25349998E+02 -0.58020E+05
 0.25399998E+02 -0.58163E+05
 0.25449999E+02 -0.58103E+05
 0.25499998E+02 -0.58103E+05
 0.25549999E+02 -0.57747E+05
 0.25599998E+02 -0.57772E+05
 0.25649998E+02 -0.57839E+05
 0.25699999E+02 -0.57875E+05
 0.25749998E+02 -0.58089E+05
 0.25799999E+02 -0.58279E+05
 0.25849998E+02 -0.58077E+05
 0.25899998E+02 -0.58100E+05
 0.25949999E+02 -0.58007E+05
 0.25999998E+02 -0.58179E+05
 0.26049999E+02 -0.58626E+05
 0.26099998E+02 -0.58337E+05
 0.26149998E+02 -0.58512E+05
 0.26199999E+02 -0.57853E+05
 0.26249998E+02 -0.57783E+05
 0.26299999E+02 -0.58553E+05
 0.26349998E+02 -0.58369E+05
 0.26399998E+02 -0.58531E+05
 0.26449999E+02 -0.58294E+05
 0.26499998E+02 -0.57916E+05
 0.26549999E+02 -0.58288E+05
 0.26599998E+02 -0.58316E+05
 0.26649998E+02 -0.58190E+05
 0.26699999E+02 -0.58445E+05
 0.26749998E+02 -0.58689E+05
 0.26799999E+02 -0.58286E+05
 0.26849998E+02 -0.58400E+05
 0.26899998E+02 -0.58790E+05
 0.26949999E+02 -0.57967E+05
 0.26999998E+02 -0.58545E+05
 0.27049997E+02 -0.58994E+05
 0.27099998E+02 -0.58748E+05
 0.27149998E+02 -0.58728E+05
 0.27199999E+02 -0.58377E+05
 0.27249998E+02 -0.58613E+05
 0.27299997E+02 -0.58599E+05
 0.27349998E+02 -0.58221E+05
 0.27399998E+02 -0.58705E+05
 0.27449999E+02 -0.58147E+05
 0.27499998E+02 -0.57797E+05
 0.27549997E+02 -0.58534E+05
 0.27599998E+02 -0.58717E+05
 0.27649998E+02 -0.59803E+05
 0.27699999E+02 -0.58211E+05
 0.27749998E+02 -0.57448E+05
 0.27799997E+02 -0.58468E+05
 0.27849998E+02 -0.57957E+05
 0.27899998E+02 -0.58073E+05
 0.27949999E+02 -0.58656E+05
 0.27999998E+02 -0.56567E+05
 0.28049997E+02 -0.57408E+05
 0.28099998E+02 -0.59162E+05
 0.28149998E+02 -0.57918E+05
 0.28199999E+02 -0.59328E+05
 0.28249998E+02 -0.58704E+05
 0.28299997E+02 -0.57028E+05
 0.28349998E+02 -0.59208E+05
 0.28399998E+02 -0.58368E+05
 0.28449999E+02 -0.57342E+05
 0.28499998E+02 -0.58714E+05
 0.28549997E+02 -0.58420E+05
 0.28599998E+02 -0.57568E+05
 0.28649998E+02 -0.58599E+05
 0.28699999E+02 -0.57279E+05
 0.28749998E+02 -0.58055E+05
 0.28799997E+02 -0.59283E+05
 0.28849998E+02 -0.56890E+05
 0.28899998E+02 -0.57626E+05
 0.28949999E+02 -0.58835E+05
 0.28999998E+02 -0.58671E+05
 0.29049997E+02 -0.58965E+05
 0.29099998E+02 -0.58488E+05
 0.29149998E+02 -0.57769E+05
 0.29199999E+02 -0.59413E+05
 0.29249998E+02 -0.57107E+05
 0.29299997E+02 -0.57118E+05
 0.29349998E+02 -0.58143E+05
 0.29399998E+02 -0.58300E+05
 0.29449999E+02 -0.58094E+05
 0.29499998E+02 -0.59288E+05
 0.29549997E+02 -0.58913E+05
 0.29599998E+02 -0.56691E+05
 0.29649998E+02 -0.57804E+05
 0.29699999E+02 -0.60398E+05
 0.29749998E+02 -0.60270E+05
 0.29799997E+02 -0.56701E+05
 0.29849998E+02 -0.56735E+05
 0.29899998E+02 -0.58188E+05
 0.29949999E+02 -0.58808E+05
 0.29999998E+02 -0.59748E+05
 0.30049999E+02 -0.57657E+05
 0.30099998E+02 -0.56670E+05
 0.30149998E+02 -0.57715E+05
 0.30199997E+02 -0.58274E+05
 0.30249996E+02 -0.59862E+05
 0.30299999E+02 -0.58643E+05
 0.30349998E+02 -0.56381E+05
 0.30399998E+02 -0.58401E+05
 0.30449997E+02 -0.59797E+05
 0.30499996E+02 -0.56505E+05
 0.30549999E+02 -0.57636E+05
 0.30599998E+02 -0.58785E+05
 0.30649998E+02 -0.58559E+05
 0.30699997E+02 -0.59533E+05
 0.30749996E+02 -0.58688E+05
 0.30799999E+02 -0.58434E+05
 0.30849998E+02 -0.58483E+05
 0.30899998E+02 -0.57393E+05
 0.30949997E+02 -0.58327E+05
 0.30999996E+02 -0.58105E+05
 0.31049999E+02 -0.58180E+05
 0.31099998E+02 -0.58419E+05
 0.31149998E+02 -0.60914E+05
 0.31199997E+02 -0.58815E+05
 0.31249996E+02 -0.56948E+05
 0.31299999E+02 -0.58726E+05
 0.31349998E+02 -0.57372E+05
 0.31399998E+02 -0.60168E+05
 0.31449997E+02 -0.57069E+05
 0.31499996E+02 -0.56983E+05
 0.31549999E+02 -0.59193E+05
 0.31599998E+02 -0.58982E+05
 0.31649998E+02 -0.58669E+05
 0.31699997E+02 -0.55584E+05
 0.31749996E+02 -0.57009E+05
 0.31799999E+02 -0.59390E+05
 0.31849998E+02 -0.60216E+05
 0.31899998E+02 -0.57855E+05
 0.31949997E+02 -0.56062E+05
 0.31999996E+02 -0.57544E+05
 0.32049999E+02 -0.59907E+05
 0.32099998E+02 -0.59799E+05
 0.32149998E+02 -0.56722E+05
 0.32199997E+02 -0.58330E+05
 0.32249996E+02 -0.58964E+05
 0.32299999E+02 -0.56691E+05
 0.32349998E+02 -0.57757E+05
 0.32399998E+02 -0.59308E+05
 0.32449997E+02 -0.59457E+05
 0.32499996E+02 -0.58389E+05
 0.32549999E+02 -0.58014E+05
 0.32599998E+02 -0.59574E+05
 0.32649998E+02 -0.59724E+05
 0.32699997E+02 -0.57915E+05
 0.32749996E+02 -0.54840E+05
 0.32799999E+02 -0.56463E+05
 0.32849998E+02 -0.60568E+05
 0.32899998E+02 -0.59345E+05
 0.32949997E+02 -0.57921E+05
 0.32999996E+02 -0.58399E+05
 0.33049999E+02 -0.57766E+05
 0.33099998E+02 -0.57934E+05
 0.33149998E+02 -0.58139E+05
 0.33199997E+02 -0.58105E+05
 0.33249996E+02 -0.61785E+05
 0.33299999E+02 -0.58373E+05
 0.33349998E+02 -0.57103E+05
 0.33399998E+02 -0.58178E+05
 0.33449997E+02 -0.58163E+05
 0.33499996E+02 -0.58450E+05
 0.33549999E+02 -0.55713E+05
 0.33599998E+02 -0.57252E+05
 0.33649998E+02 -0.58247E+05
 0.33699997E+02 -0.60914E+05
 0.33749996E+02 -0.57427E+05
 0.33799999E+02 -0.57696E+05
 0.33849998E+02 -0.60724E+05
 0.33899998E+02 -0.58867E+05
 0.33949997E+02 -0.58197E+05
 0.33999996E+02 -0.56552E+05
 0.34049999E+02 -0.57607E+05
 0.34099998E+02 -0.60159E+05
 0.34149998E+02 -0.60330E+05
 0.34199997E+02 -0.58134E+05
 0.34249996E+02 -0.56035E+05
 0.34299999E+02 -0.54782E+05
 0.34349998E+02 -0.57964E+05
 0.34399998E+02 -0.60169E+05
 0.34449997E+02 -0.58580E+05
 0.34499996E+02 -0.58812E+05
 0.34549999E+02 -0.60623E+05
 0.34599998E+02 -0.57759E+05
 0.34649998E+02 -0.54860E+05
 0.34699997E+02 -0.57659E+05
 0.34749996E+02 -0.58091E+05
 0.34799999E+02 -0.60112E+05
 0.34849998E+02 -0.59410E+05
 0.34899998E+02 -0.58071E+05
 0.34949997E+02 -0.58046E+05
 0.34999996E+02 -0.51656E+05
 0.35049999E+02 -0.53501E+05
 0.35099998E+02 -0.59799E+05
 0.35149998E+02 -0.62979E+05
 0.35199997E+02 -0.60138E+05
 0.35249996E+02 -0.56553E+05
 0.35299999E+02 -0.58296E+05
 0.35349998E+02 -0.61455E+05
 0.35399998E+02 -0.60070E+05
 0.35449997E+02 -0.57230E+05
 0.35499996E+02 -0.58404E+05
 0.35549999E+02 -0.59602E+05
 0.35599998E+02 -0.60320E+05
 0.35649998E+02 -0.55983E+05
 0.35699997E+02 -0.55009E+05
 0.35749996E+02 -0.58476E+05
 0.35799999E+02 -0.60839E+05
 0.35849998E+02 -0.59279E+05
 0.35899998E+02 -0.57883E+05
 0.35949997E+02 -0.57775E+05
 0.35999996E+02 -0.58827E+05
 0.36049999E+02 -0.60379E+05
 0.36099998E+02 -0.57593E+05
 0.36149998E+02 -0.56805E+05
 0.36199997E+02 -0.58267E+05
 0.36249996E+02 -0.57258E+05
 0.36299999E+02 -0.57865E+05
 0.36349998E+02 -0.59511E+05
 0.36399998E+02 -0.57316E+05
 0.36449997E+02 -0.57432E+05
 0.36499996E+02 -0.59492E+05
 0.36549999E+02 -0.61336E+05
 0.36599998E+02 -0.60251E+05
 0.36649998E+02 -0.58345E+05
 0.36699997E+02 -0.57837E+05
 0.36749996E+02 -0.58244E+05
 0.36799999E+02 -0.57407E+05
 0.36849998E+02 -0.57287E+05
 0.36899998E+02 -0.57530E+05
 0.36949997E+02 -0.57601E+05
 0.36999996E+02 -0.58108E+05
 0.37049999E+02 -0.58832E+05
 0.37099998E+02 -0.58448E+05
 0.37149998E+02 -0.54854E+05
 0.37199997E+02 -0.55927E+05
 0.37249996E+02 -0.60484E+05
 0.37299999E+02 -0.61744E+05
 0.37349998E+02 -0.60229E+05
 0.37399998E+02 -0.59547E+05
 0.37449997E+02 -0.57862E+05
 0.37499996E+02 -0.57917E+05
 0.37549999E+02 -0.59051E+05
 0.37599998E+02 -0.59577E+05
 0.37649998E+02 -0.58000E+05
 0.37699997E+02 -0.55640E+05
 0.37749996E+02 -0.56268E+05
 0.37799999E+02 -0.56194E+05
 0.37849998E+02 -0.56517E+05
 0.37899998E+02 -0.56811E+05
 0.37949997E+02 -0.58410E+05
 0.37999996E+02 -0.58836E+05
 0.38049999E+02 -0.57442E+05
 0.38099998E+02 -0.59663E+05
 0.38149998E+02 -0.59962E+05
 0.38199997E+02 -0.59123E+05
 0.38249996E+02 -0.59276E+05
 0.38299999E+02 -0.57975E+05
 0.38349998E+02 -0.56444E+05
 0.38399998E+02 -0.57440E+05
 0.38449997E+02 -0.60728E+05
 0.38499996E+02 -0.59759E+05
 0.38549999E+02 -0.57526E+05
 0.38599998E+02 -0.57559E+05
 0.38649998E+02 -0.58474E+05
 0.38699997E+02 -0.58022E+05
 0.38749996E+02 -0.58898E+05
 0.38799999E+02 -0.60038E+05
 0.38849998E+02 -0.58431E+05
 0.38899998E+02 -0.58170E+05
 0.38949997E+02 -0.56791E+05
 0.38999996E+02 -0.57950E+05
 0.39049999E+02 -0.57993E+05
 0.39099998E+02 -0.56348E+05
 0.39149998E+02 -0.57061E+05
 0.39199997E+02 -0.57090E+05
 0.39249996E+02 -0.59673E+05
 0.39299999E+02 -0.61526E+05
 0.39349998E+02 -0.59084E+05
 0.39399998E+02 -0.56400E+05
 0.39449997E+02 -0.56884E+05
 0.39499996E+02 -0.58169E+05
 0.39549999E+02 -0.58891E+05
 0.39599998E+02 -0.57599E+05
 0.39649998E+02 -0.58402E+05
 0.39699997E+02 -0.60744E+05
 0.39749996E+02 -0.60956E+05
 0.39799999E+02 -0.58721E+05
 0.39849998E+02 -0.55223E+05
 0.39899998E+02 -0.56539E+05
 0.39949997E+02 -0.58591E+05
 0.39999996E+02 -0.61305E+05
 0.40049999E+02 -0.60279E+05
 0.40099998E+02 -0.59792E+05
 0.40149998E+02 -0.58574E+05
 0.40199997E+02 -0.54746E+05
 0.40249996E+02 -0.56805E+05
 0.40299999E+02 -0.58134E+05
 0.40349998E+02 -0.58682E+05
 0.40399998E+02 -0.56174E+05
 0.40449997E+02 -0.56273E+05
 0.40499996E+02 -0.60201E+05
 0.40549999E+02 -0.60909E+05
 0.40599998E+02 -0.59600E+05
 0.40649998E+02 -0.56815E+05
 0.40699997E+02 -0.55785E+05
 0.40749996E+02 -0.54207E+05
 0.40799999E+02 -0.53679E+05
 0.40849998E+02 -0.56037E+05
 0.40899998E+02 -0.59664E+05
 0.40949997E+02 -0.60215E+05
 0.40999996E+02 -0.60993E+05
 0.41049999E+02 -0.62931E+05
 0.41099998E+02 -0.61671E+05
 0.41149998E+02 -0.59761E+05
 0.41199997E+02 -0.58377E+05
 0.41249996E+02 -0.57312E+05
 0.41299999E+02 -0.56853E+05
 0.41349998E+02 -0.57098E+05
 0.41399998E+02 -0.58446E+05
 0.41449997E+02 -0.59646E+05
 0.41499996E+02 -0.58998E+05
 0.41549999E+02 -0.58412E+05
 0.41599998E+02 -0.57109E+05
 0.41649998E+02 -0.58152E+05
 0.41699997E+02 -0.59073E+05
 0.41749996E+02 -0.60086E+05
 0.41799999E+02 -0.60839E+05
 0.41849998E+02 -0.58604E+05
 0.41899998E+02 -0.56006E+05
 0.41949997E+02 -0.58071E+05
 0.41999996E+02 -0.59880E+05
 0.42049999E+02 -0.60624E+05
 0.42099998E+02 -0.61354E+05
 0.42149998E+02 -0.60489E+05
 0.42199997E+02 -0.60181E+05
 0.42249996E+02 -0.57109E+05
 0.42299999E+02 -0.56712E+05
 0.42349998E+02 -0.55220E+05
 0.42399998E+02 -0.54135E+05
 0.42449997E+02 -0.55178E+05
 0.42499996E+02 -0.55852E+05
 0.42549999E+02 -0.55196E+05
 0.42599998E+02 -0.55701E+05
 0.42649998E+02 -0.57914E+05
 0.42699997E+02 -0.57210E+05
 0.42749996E+02 -0.59938E+05
 0.42799995E+02 -0.60658E+05
 0.42849998E+02 -0.58599E+05
 0.42899998E+02 -0.57619E+05
 0.42949997E+02 -0.60666E+05
 0.42999996E+02 -0.62805E+05
 0.43049995E+02 -0.57993E+05
 0.43099998E+02 -0.56870E+05
 0.43149998E+02 -0.54300E+05
 0.43199997E+02 -0.48979E+05
 0.43249996E+02 -0.47832E+05
 0.43299995E+02 -0.55108E+05
 0.43349998E+02 -0.64834E+05
 0.43399998E+02 -0.64760E+05
 0.43449997E+02 -0.62003E+05
 0.43499996E+02 -0.59624E+05
 0.43549995E+02 -0.56010E+05
 0.43599998E+02 -0.59130E+05
 0.43649998E+02 -0.64542E+05
 0.43699997E+02 -0.56851E+05
 0.43749996E+02 -0.50777E+05
 0.43799995E+02 -0.63573E+05
 0.43849998E+02 -0.76729E+05
 0.43899998E+02 -0.66764E+05
 0.43949997E+02 -0.49552E+05
 0.43999996E+02 -0.49594E+05
 0.44049995E+02 -0.59076E+05
 0.44099998E+02 -0.59511E+05
 0.44149998E+02 -0.59732E+05
 0.44199997E+02 -0.66779E+05
 0.44249996E+02 -0.63783E+05
 0.44299995E+02 -0.56465E+05
 0.44349998E+02 -0.51191E+05
 0.44399998E+02 -0.53347E+05
 0.44449997E+02 -0.57016E+05
 0.44499996E+02 -0.47542E+05
 0.44549995E+02 -0.45075E+05
 0.44599998E+02 -0.56596E+05
 0.44649998E+02 -0.65230E+05
 0.44699997E+02 -0.56774E+05
 0.44749996E+02 -0.42674E+05
 0.44799995E+02 -0.51066E+05
 0.44849998E+02 -0.68890E+05
 0.44899998E+02 -0.68505E+05
 0.44949997E+02 -0.68065E+05
 0.44999996E+02 -0.73916E+05
 0.45049995E+02 -0.75141E+05
 0.45099998E+02 -0.66527E+05
 0.45149998E+02 -0.48438E+05
 0.45199997E+02 -0.52753E+05
 0.45249996E+02 -0.63549E+05
 0.45299995E+02 -0.52345E+05
 0.45349998E+02 -0.45002E+05
 0.45399998E+02 -0.53636E+05
 0.45449997E+02 -0.66242E+05
 0.45499996E+02 -0.67526E+05
 0.45549995E+02 -0.55103E+05
 0.45599998E+02 -0.48430E+05
 0.45649998E+02 -0.51255E+05
 0.45699997E+02 -0.57088E+05
 0.45749996E+02 -0.61501E+05
 0.45799995E+02 -0.58980E+05
 0.45849998E+02 -0.52107E+05
 0.45899998E+02 -0.50178E+05
 0.45949997E+02 -0.58806E+05
 0.45999996E+02 -0.68769E+05
 0.46049995E+02 -0.64639E+05
 0.46099998E+02 -0.57382E+05
 0.46149998E+02 -0.52644E+05
 0.46199997E+02 -0.52644E+05
 0.46249996E+02 -0.66823E+05
 0.46299995E+02 -0.74013E+05
 0.46349998E+02 -0.69022E+05
 0.46399998E+02 -0.60632E+05
 0.46449997E+02 -0.48963E+05
 0.46499996E+02 -0.44834E+05
 0.46549995E+02 -0.44529E+05
 0.46599998E+02 -0.46415E+05
 0.46649998E+02 -0.58214E+05
 0.46699997E+02 -0.70692E+05
 0.46749996E+02 -0.62403E+05
 0.46799995E+02 -0.52568E+05
 0.46849998E+02 -0.57176E+05
 0.46899998E+02 -0.62443E+05
 0.46949997E+02 -0.64424E+05
 0.46999996E+02 -0.60076E+05
 0.47049995E+02 -0.57582E+05
 0.47099998E+02 -0.53140E+05
 0.47149998E+02 -0.60067E+05
 0.47199997E+02 -0.61860E+05
 0.47249996E+02 -0.57717E+05
 0.47299995E+02 -0.61051E+05
 0.47349998E+02 -0.62922E+05
 0.47399998E+02 -0.59793E+05
 0.47449997E+02 -0.55266E+05
 0.47499996E+02 -0.51385E+05
 0.47549995E+02 -0.47957E+05
 0.47599998E+02 -0.60565E+05
 0.47649998E+02 -0.65849E+05
 0.47699997E+02 -0.64706E+05
 0.47749996E+02 -0.58700E+05
 0.47799995E+02 -0.52742E+05
 0.47849998E+02 -0.52352E+05
 0.47899998E+02 -0.51260E+05
 0.47949997E+02 -0.55242E+05
 0.47999996E+02 -0.60531E+05
 0.48049995E+02 -0.64802E+05
 0.48099998E+02 -0.62052E+05
 0.48149998E+02 -0.58664E+05
 0.48199997E+02 -0.58893E+05
 0.48249996E+02 -0.54498E+05
 0.48299995E+02 -0.50768E+05
 0.48349998E+02 -0.49469E+05
 0.48399998E+02 -0.55532E+05
 0.48449997E+02 -0.60796E+05
 0.48499996E+02 -0.54241E+05
 0.48549995E+02 -0.52573E+05
 0.48599998E+02 -0.52902E+05
 0.48649998E+02 -0.62150E+05
 0.48699997E+02 -0.65212E+05
 0.48749996E+02 -0.66403E+05
 0.48799995E+02 -0.68029E+05
 0.48849998E+02 -0.61820E+05
 0.48899998E+02 -0.55968E+05
 0.48949997E+02 -0.52533E+05
 0.48999996E+02 -0.54557E+05
 0.49049995E+02 -0.57375E+05
 0.49099998E+02 -0.62436E+05
 0.49149998E+02 -0.61725E+05
 0.49199997E+02 -0.67496E+05
 0.49249996E+02 -0.67645E+05
 0.49299995E+02 -0.64611E+05
 0.49349998E+02 -0.56274E+05
 0.49399998E+02 -0.50068E+05
 0.49449997E+02 -0.43945E+05
 0.49499996E+02 -0.50141E+05
 0.49549995E+02 -0.68881E+05
 0.49599998E+02 -0.68191E+05
 0.49649998E+02 -0.67307E+05
 0.49699997E+02 -0.56375E+05
 0.49749996E+02 -0.49635E+05
 0.49799995E+02 -0.58161E+05
 0.49849998E+02 -0.62737E+05
 0.49899998E+02 -0.59294E+05
 0.49949997E+02 -0.56904E+05
 0.49999996E+02 -0.52876E+05
 0.50049995E+02 -0.51664E+05
 0.50099998E+02 -0.59564E+05
 0.50149998E+02 -0.63110E+05
 0.50199997E+02 -0.66425E+05
 0.50249996E+02 -0.62800E+05
 0.50299995E+02 -0.55817E+05
 0.50349998E+02 -0.57275E+05
 0.50399998E+02 -0.59196E+05
 0.50449997E+02 -0.56496E+05
 0.50499996E+02 -0.50345E+05
 0.50549995E+02 -0.49308E+05
 0.50599998E+02 -0.50813E+05
 0.50649998E+02 -0.57681E+05
 0.50699997E+02 -0.58350E+05
 0.50749996E+02 -0.61791E+05
 0.50799995E+02 -0.64808E+05
 0.50849998E+02 -0.64884E+05
 0.50899998E+02 -0.61238E+05
 0.50949997E+02 -0.54991E+05
 0.50999996E+02 -0.60374E+05
 0.51049995E+02 -0.57870E+05
 0.51099998E+02 -0.56070E+05
 0.51149998E+02 -0.53351E+05
 0.51199997E+02 -0.52753E+05
 0.51249996E+02 -0.59174E+05
 0.51299995E+02 -0.62192E+05
 0.51349998E+02 -0.62783E+05
 0.51399998E+02 -0.62940E+05
 0.51449997E+02 -0.63904E+05
 0.51499996E+02 -0.63355E+05
 0.51549995E+02 -0.57938E+05
 0.51599998E+02 -0.53578E+05
 0.51649998E+02 -0.57857E+05
 0.51699997E+02 -0.57441E+05
 0.51749996E+02 -0.55588E+05
 0.51799995E+02 -0.57489E+05
 0.51849998E+02 -0.52602E+05
 0.51899998E+02 -0.47683E+05
 0.51949997E+02 -0.47346E+05
 0.51999996E+02 -0.56144E+05
 0.52049995E+02 -0.68070E+05
 0.52099998E+02 -0.71298E+05
 0.52149998E+02 -0.67472E+05
 0.52199997E+02 -0.62037E+05
 0.52249996E+02 -0.59623E+05
 0.52299995E+02 -0.55764E+05
 0.52349998E+02 -0.52591E+05
 0.52399998E+02 -0.49926E+05
 0.52449997E+02 -0.49012E+05
 0.52499996E+02 -0.48783E+05
 0.52549995E+02 -0.52044E+05
 0.52599998E+02 -0.56882E+05
 0.52649998E+02 -0.54807E+05
 0.52699997E+02 -0.59549E+05
 0.52749996E+02 -0.74671E+05
 0.52799995E+02 -0.79991E+05
 0.52849998E+02 -0.67185E+05
 0.52899998E+02 -0.51122E+05
 0.52949997E+02 -0.43405E+05
 0.52999996E+02 -0.48956E+05
 0.53049995E+02 -0.63455E+05
 0.53099998E+02 -0.70126E+05
 0.53149998E+02 -0.64970E+05
 0.53199997E+02 -0.56972E+05
 0.53249996E+02 -0.51865E+05
 0.53299995E+02 -0.47634E+05
 0.53349998E+02 -0.43562E+05
 0.53399998E+02 -0.48215E+05
 0.53449997E+02 -0.53019E+05
 0.53499996E+02 -0.58577E+05
 0.53549995E+02 -0.64730E+05
 0.53599998E+02 -0.63024E+05
 0.53649998E+02 -0.63426E+05
 0.53699997E+02 -0.62267E+05
 0.53749996E+02 -0.59183E+05
 0.53799995E+02 -0.57357E+05
 0.53849998E+02 -0.56295E+05
 0.53899998E+02 -0.55068E+05
 0.53949997E+02 -0.57575E+05
 0.53999996E+02 -0.67156E+05
 0.54049995E+02 -0.73628E+05
 0.54099998E+02 -0.71692E+05
 0.54149998E+02 -0.65734E+05
 0.54199997E+02 -0.57014E+05
 0.54249996E+02 -0.52299E+05
 0.54299995E+02 -0.62565E+05
 0.54349998E+02 -0.66971E+05
 0.54399998E+02 -0.65305E+05
 0.54449997E+02 -0.62930E+05
 0.54499996E+02 -0.60233E+05
 0.54549995E+02 -0.60100E+05
 0.54599998E+02 -0.58932E+05
 0.54649998E+02 -0.56187E+05
 0.54699997E+02 -0.45762E+05
 0.54749996E+02 -0.38678E+05
 0.54799995E+02 -0.46061E+05
 0.54849998E+02 -0.60412E+05
 0.54899998E+02 -0.66302E+05
 0.54949997E+02 -0.62648E+05
 0.54999996E+02 -0.55881E+05
 0.55049995E+02 -0.53035E+05
 0.55099998E+02 -0.57593E+05
 0.55149998E+02 -0.64398E+05
 0.55199997E+02 -0.66097E+05
 0.55249996E+02 -0.61139E+05
 0.55299995E+02 -0.54760E+05
 0.55349998E+02 -0.56009E+05
 0.55399998E+02 -0.61913E+05
 0.55449997E+02 -0.59567E+05
 0.55499996E+02 -0.55048E+05
 0.55549995E+02 -0.58442E+05
 0.55599998E+02 -0.62168E+05
 0.55649998E+02 -0.62966E+05
 0.55699997E+02 -0.62174E+05
 0.55749996E+02 -0.61090E+05
 0.55799995E+02 -0.62202E+05
 0.55849995E+02 -0.62499E+05
 0.55899998E+02 -0.63254E+05
 0.55949997E+02 -0.60133E+05
 0.55999996E+02 -0.54990E+05
 0.56049995E+02 -0.53799E+05
 0.56099995E+02 -0.53423E+05
 0.56149998E+02 -0.51001E+05
 0.56199997E+02 -0.50968E+05
 0.56249996E+02 -0.54057E+05
 0.56299995E+02 -0.53689E+05
 0.56349995E+02 -0.49811E+05
 0.56399998E+02 -0.46621E+05
 0.56449997E+02 -0.47028E+05
 0.56499996E+02 -0.50432E+05
 0.56549995E+02 -0.55283E+05
 0.56599995E+02 -0.58136E+05
 0.56649998E+02 -0.64089E+05
 0.56699997E+02 -0.66783E+05
 0.56749996E+02 -0.65388E+05
 0.56799995E+02 -0.64712E+05
 0.56849995E+02 -0.62925E+05
 0.56899998E+02 -0.62946E+05
 0.56949997E+02 -0.59620E+05
 0.56999996E+02 -0.60175E+05
 0.57049995E+02 -0.63182E+05
 0.57099995E+02 -0.64487E+05
 0.57149998E+02 -0.64453E+05
 0.57199997E+02 -0.62048E+05
 0.57249996E+02 -0.59253E+05
 0.57299995E+02 -0.53223E+05
 0.57349995E+02 -0.50933E+05
 0.57399998E+02 -0.51134E+05
 0.57449997E+02 -0.50431E+05
 0.57499996E+02 -0.57685E+05
 0.57549995E+02 -0.67004E+05
 0.57599995E+02 -0.68480E+05
 0.57649998E+02 -0.61205E+05
 0.57699997E+02 -0.48863E+05
 0.57749996E+02 -0.40030E+05
 0.57799995E+02 -0.44719E+05
 0.57849995E+02 -0.61222E+05
 0.57899998E+02 -0.66199E+05
 0.57949997E+02 -0.60323E+05
 0.57999996E+02 -0.57735E+05
 0.58049995E+02 -0.61542E+05
 0.58099995E+02 -0.65110E+05
 0.58149998E+02 -0.61248E+05
 0.58199997E+02 -0.57351E+05
 0.58249996E+02 -0.57914E+05
 0.58299995E+02 -0.57183E+05
 0.58349995E+02 -0.53460E+05
 0.58399998E+02 -0.53810E+05
 0.58449997E+02 -0.57122E+05
 0.58499996E+02 -0.61929E+05
 0.58549995E+02 -0.64187E+05
 0.58599995E+02 -0.61839E+05
 0.58649998E+02 -0.60087E+05
 0.58699997E+02 -0.58320E+05
 0.58749996E+02 -0.56669E+05
 0.58799995E+02 -0.55426E+05
 0.58849995E+02 -0.57594E+05
 0.58899998E+02 -0.64276E+05
 0.58949997E+02 -0.65162E+05
 0.58999996E+02 -0.60907E+05
 0.59049995E+02 -0.59680E+05
 0.59099995E+02 -0.60124E+05
 0.59149998E+02 -0.61544E+05
 0.59199997E+02 -0.60482E+05
 0.59249996E+02 -0.54972E+05
 0.59299995E+02 -0.51689E+05
 0.59349995E+02 -0.54362E+05
 0.59399998E+02 -0.58078E+05
 0.59449997E+02 -0.59791E+05
 0.59499996E+02 -0.64297E+05
 0.59549995E+02 -0.62052E+05
 0.59599995E+02 -0.55059E+05
 0.59649998E+02 -0.50328E+05
 0.59699997E+02 -0.49114E+05
 0.59749996E+02 -0.50900E+05
 0.59799995E+02 -0.52190E+05
 0.59849995E+02 -0.52201E+05
 0.59899998E+02 -0.49801E+05
 0.59949997E+02 -0.50380E+05
 0.59999996E+02 -0.52555E+05
 0.60049995E+02 -0.53234E+05
 0.60099995E+02 -0.55141E+05
 0.60149998E+02 -0.60226E+05
 0.60199997E+02 -0.64919E+05
 0.60249996E+02 -0.67123E+05
 0.60299995E+02 -0.62849E+05
 0.60349995E+02 -0.58799E+05
 0.60399998E+02 -0.58134E+05
 0.60449997E+02 -0.56802E+05
 0.60499996E+02 -0.55805E+05
 0.60549995E+02 -0.57262E+05
 0.60599995E+02 -0.59591E+05
 0.60649998E+02 -0.59929E+05
 0.60699997E+02 -0.61949E+05
 0.60749996E+02 -0.61541E+05
 0.60799995E+02 -0.58980E+05
 0.60849995E+02 -0.55342E+05
 0.60899998E+02 -0.52902E+05
 0.60949997E+02 -0.56370E+05
 0.60999996E+02 -0.61423E+05
 0.61049995E+02 -0.65597E+05
 0.61099995E+02 -0.66423E+05
 0.61149998E+02 -0.65649E+05
 0.61199997E+02 -0.62819E+05
 0.61249996E+02 -0.62758E+05
 0.61299995E+02 -0.64508E+05
 0.61349995E+02 -0.61115E+05
 0.61399998E+02 -0.56946E+05
 0.61449997E+02 -0.54209E+05
 0.61499996E+02 -0.53087E+05
 0.61549995E+02 -0.54125E+05
 0.61599995E+02 -0.56946E+05
 0.61649998E+02 -0.60015E+05
 0.61699997E+02 -0.60976E+05
 0.61749996E+02 -0.60187E+05
 0.61799995E+02 -0.59043E+05
 0.61849995E+02 -0.57160E+05
 0.61899998E+02 -0.57784E+05
 0.61949997E+02 -0.56077E+05
 0.61999996E+02 -0.52039E+05
 0.62049995E+02 -0.50607E+05
 0.62099998E+02 -0.52439E+05
 0.62149994E+02 -0.56482E+05
 0.62199997E+02 -0.56639E+05
 0.62249992E+02 -0.54621E+05
 0.62299995E+02 -0.55420E+05
 0.62349998E+02 -0.57868E+05
 0.62399994E+02 -0.57674E+05
 0.62449997E+02 -0.57774E+05
 0.62499992E+02 -0.58216E+05
 0.62549995E+02 -0.58678E+05
 0.62599998E+02 -0.63557E+05
 0.62649994E+02 -0.70288E+05
 0.62699997E+02 -0.76251E+05
 0.62749992E+02 -0.74937E+05
 0.62799995E+02 -0.68140E+05
 0.62849998E+02 -0.61263E+05
 0.62899994E+02 -0.57535E+05
 0.62949997E+02 -0.57973E+05
 0.62999992E+02 -0.58631E+05
 0.63049995E+02 -0.56128E+05
 0.63099998E+02 -0.52722E+05
 0.63149994E+02 -0.51918E+05
 0.63199997E+02 -0.52383E+05
 0.63249992E+02 -0.53141E+05
 0.63299995E+02 -0.54037E+05
 0.63349998E+02 -0.58754E+05
 0.63399994E+02 -0.61834E+05
 0.63449997E+02 -0.58076E+05
 0.63499992E+02 -0.53673E+05
 0.63549995E+02 -0.50909E+05
 0.63599998E+02 -0.52656E+05
 0.63649994E+02 -0.55463E+05
 0.63699997E+02 -0.57762E+05
 0.63749992E+02 -0.61053E+05
 0.63799995E+02 -0.62376E+05
 0.63849998E+02 -0.62569E+05
 0.63899994E+02 -0.60584E+05
 0.63949997E+02 -0.58028E+05
 0.63999992E+02 -0.57810E+05
 0.64049995E+02 -0.59093E+05
 0.64099998E+02 -0.60050E+05
 0.64149994E+02 -0.60936E+05
 0.64199997E+02 -0.59912E+05
 0.64249992E+02 -0.59710E+05
 0.64299995E+02 -0.60609E+05
 0.64349998E+02 -0.60806E+05
 0.64399994E+02 -0.59540E+05
 0.64449997E+02 -0.57149E+05
 0.64499992E+02 -0.55032E+05
 0.64549995E+02 -0.54312E+05
 0.64599998E+02 -0.55757E+05
 0.64649994E+02 -0.56670E+05
 0.64699997E+02 -0.55999E+05
 0.64749992E+02 -0.55939E+05
 0.64799995E+02 -0.57037E+05
 0.64849998E+02 -0.57882E+05
 0.64899994E+02 -0.57057E+05
 0.64949997E+02 -0.55332E+05
 0.64999992E+02 -0.53440E+05
 0.65049995E+02 -0.51405E+05
 0.65099998E+02 -0.51723E+05
 0.65149994E+02 -0.53770E+05
 0.65199997E+02 -0.57470E+05
 0.65249992E+02 -0.62897E+05
 0.65299995E+02 -0.68537E+05
 0.65349998E+02 -0.70611E+05
 0.65399994E+02 -0.67576E+05
 0.65449997E+02 -0.62435E+05
 0.65499992E+02 -0.58300E+05
 0.65549995E+02 -0.57141E+05
 0.65599998E+02 -0.56655E+05
 0.65649994E+02 -0.54783E+05
 0.65699997E+02 -0.53281E+05
 0.65749992E+02 -0.54072E+05
 0.65799995E+02 -0.58621E+05
 0.65849998E+02 -0.63761E+05
 0.65899994E+02 -0.66572E+05
 0.65949997E+02 -0.64164E+05
 0.65999992E+02 -0.60178E+05
 0.66049995E+02 -0.59853E+05
 0.66099998E+02 -0.60047E+05
 0.66149994E+02 -0.56623E+05
 0.66199997E+02 -0.53335E+05
 0.66249992E+02 -0.54412E+05
 0.66299995E+02 -0.55645E+05
 0.66349998E+02 -0.55886E+05
 0.66399994E+02 -0.55837E+05
 0.66449997E+02 -0.57010E+05
 0.66499992E+02 -0.58086E+05
 0.66549995E+02 -0.57082E+05
 0.66599998E+02 -0.53128E+05
 0.66649994E+02 -0.48463E+05
 0.66699997E+02 -0.44403E+05
 0.66749992E+02 -0.43714E+05
 0.66799995E+02 -0.46533E+05
 0.66849998E+02 -0.52139E+05
 0.66899994E+02 -0.60570E+05
 0.66949997E+02 -0.66352E+05
 0.66999992E+02 -0.66160E+05
 0.67049995E+02 -0.61327E+05
 0.67099998E+02 -0.57828E+05
 0.67149994E+02 -0.57652E+05
 0.67199997E+02 -0.58621E+05
 0.67249992E+02 -0.57783E+05
 0.67299995E+02 -0.59511E+05
 0.67349998E+02 -0.64629E+05
 0.67399994E+02 -0.66673E+05
 0.67449997E+02 -0.67200E+05
 0.67499992E+02 -0.66046E+05
 0.67549995E+02 -0.64112E+05
 0.67599998E+02 -0.61733E+05
 0.67649994E+02 -0.59996E+05
 0.67699997E+02 -0.60560E+05
 0.67749992E+02 -0.63479E+05
 0.67799995E+02 -0.66962E+05
 0.67849998E+02 -0.66935E+05
 0.67899994E+02 -0.64863E+05
 0.67949997E+02 -0.62250E+05
 0.67999992E+02 -0.61385E+05
 0.68049995E+02 -0.60305E+05
 0.68099998E+02 -0.57601E+05
 0.68149994E+02 -0.55156E+05
 0.68199997E+02 -0.54335E+05
 0.68249992E+02 -0.52960E+05
 0.68299995E+02 -0.50572E+05
 0.68349998E+02 -0.49532E+05
 0.68399994E+02 -0.49187E+05
 0.68449997E+02 -0.49626E+05
 0.68499992E+02 -0.49534E+05
 0.68549995E+02 -0.50431E+05
 0.68599998E+02 -0.53474E+05
 0.68649994E+02 -0.56083E+05
 0.68699997E+02 -0.59404E+05
 0.68749992E+02 -0.61269E+05
 0.68799995E+02 -0.61204E+05
 0.68849998E+02 -0.60409E+05
 0.68899994E+02 -0.60128E+05
 0.68949997E+02 -0.62192E+05
 0.68999992E+02 -0.64702E+05
 0.69049995E+02 -0.65301E+05
 0.69099998E+02 -0.63441E+05
 0.69149994E+02 -0.60324E+05
 0.69199997E+02 -0.58453E+05
 0.69249992E+02 -0.58486E+05
 0.69299995E+02 -0.59187E+05
 0.69349998E+02 -0.60501E+05
 0.69399994E+02 -0.61588E+05
 0.69449997E+02 -0.63284E+05
 0.69499992E+02 -0.64386E+05
 0.69549995E+02 -0.63014E+05
 0.69599998E+02 -0.59800E+05
 0.69649994E+02 -0.57949E+05
 0.69699997E+02 -0.58128E+05
 0.69749992E+02 -0.60664E+05
 0.69799995E+02 -0.61442E+05
 0.69849998E+02 -0.58467E+05
 0.69899994E+02 -0.55952E+05
 0.69949997E+02 -0.55508E+05
 0.69999992E+02 -0.55307E+05
 0.70049995E+02 -0.54367E+05
 0.70099998E+02 -0.53298E+05
 0.70149994E+02 -0.52982E+05
 0.70199997E+02 -0.53525E+05
 0.70249992E+02 -0.52957E+05
 0.70299995E+02 -0.52906E+05
 0.70349998E+02 -0.54379E+05
 0.70399994E+02 -0.58462E+05
 0.70449997E+02 -0.63307E+05
 0.70499992E+02 -0.64134E+05
 0.70549995E+02 -0.61865E+05
 0.70599998E+02 -0.60529E+05
 0.70649994E+02 -0.60621E+05
 0.70699997E+02 -0.60392E+05
 0.70749992E+02 -0.60157E+05
 0.70799995E+02 -0.58179E+05
 0.70849998E+02 -0.53726E+05
 0.70899994E+02 -0.51184E+05
 0.70949997E+02 -0.50754E+05
 0.70999992E+02 -0.51893E+05
 0.71049995E+02 -0.53916E+05
 0.71099998E+02 -0.55773E+05
 0.71149994E+02 -0.56881E+05
 0.71199997E+02 -0.56644E+05
 0.71249992E+02 -0.56720E+05
 0.71299995E+02 -0.57405E+05
 0.71349998E+02 -0.60038E+05
 0.71399994E+02 -0.62227E+05
 0.71449997E+02 -0.62233E+05
 0.71499992E+02 -0.60972E+05
 0.71549995E+02 -0.57892E+05
 0.71599998E+02 -0.54534E+05
 0.71649994E+02 -0.52012E+05
 0.71699997E+02 -0.51481E+05
 0.71749992E+02 -0.51936E+05
 0.71799995E+02 -0.52453E+05
 0.71849998E+02 -0.53336E+05
 0.71899994E+02 -0.55306E+05
 0.71949997E+02 -0.57574E+05
 0.71999992E+02 -0.58550E+05
 0.72049995E+02 -0.60357E+05
 0.72099998E+02 -0.62026E+05
 0.72149994E+02 -0.62713E+05
 0.72199997E+02 -0.63152E+05
 0.72249992E+02 -0.62954E+05
 0.72299995E+02 -0.61450E+05
 0.72349998E+02 -0.59001E+05
 0.72399994E+02 -0.58006E+05
 0.72449997E+02 -0.57843E+05
 0.72499992E+02 -0.56352E+05
 0.72549995E+02 -0.55155E+05
 0.72599998E+02 -0.57010E+05
 0.72649994E+02 -0.59613E+05
 0.72699997E+02 -0.60615E+05
 0.72749992E+02 -0.59772E+05
 0.72799995E+02 -0.59150E+05
 0.72849998E+02 -0.60967E+05
 0.72899994E+02 -0.62783E+05
 0.72949997E+02 -0.62988E+05
 0.72999992E+02 -0.62491E+05
 0.73049995E+02 -0.61400E+05
 0.73099998E+02 -0.59776E+05
 0.73149994E+02 -0.58348E+05
 0.73199997E+02 -0.57511E+05
 0.73249992E+02 -0.57180E+05
 0.73299995E+02 -0.58238E+05
 0.73349998E+02 -0.60389E+05
 0.73399994E+02 -0.60968E+05
 0.73449997E+02 -0.58417E+05
 0.73499992E+02 -0.55808E+05
 0.73549995E+02 -0.56357E+05
 0.73599998E+02 -0.57845E+05
 0.73649994E+02 -0.59920E+05
 0.73699997E+02 -0.61675E+05
 0.73749992E+02 -0.61888E+05
 0.73799995E+02 -0.61736E+05
 0.73849998E+02 -0.62386E+05
 0.73899994E+02 -0.64844E+05
 0.73949997E+02 -0.65828E+05
 0.73999992E+02 -0.63271E+05
 0.74049995E+02 -0.59095E+05
 0.74099998E+02 -0.55365E+05
 0.74149994E+02 -0.53957E+05
 0.74199997E+02 -0.53857E+05
 0.74249992E+02 -0.53770E+05
 0.74299995E+02 -0.54737E+05
 0.74349998E+02 -0.54884E+05
 0.74399994E+02 -0.53561E+05
 0.74449997E+02 -0.53301E+05
 0.74499992E+02 -0.54518E+05
 0.74549995E+02 -0.56565E+05
 0.74599998E+02 -0.59972E+05
 0.74649994E+02 -0.63559E+05
 0.74699997E+02 -0.65629E+05
 0.74749992E+02 -0.66427E+05
 0.74799995E+02 -0.66607E+05
 0.74849998E+02 -0.66530E+05
 0.74899994E+02 -0.65570E+05
 0.74949997E+02 -0.62702E+05
 0.74999992E+02 -0.59723E+05
 0.75049995E+02 -0.57443E+05
 0.75099998E+02 -0.54850E+05
 0.75149994E+02 -0.52976E+05
 0.75199997E+02 -0.52425E+05
 0.75249992E+02 -0.53280E+05
 0.75299995E+02 -0.54244E+05
 0.75349998E+02 -0.55088E+05
 0.75399994E+02 -0.56536E+05
 0.75449997E+02 -0.57515E+05
 0.75499992E+02 -0.57664E+05
 0.75549995E+02 -0.57355E+05
 0.75599998E+02 -0.56390E+05
 0.75649994E+02 -0.54756E+05
 0.75699997E+02 -0.52324E+05
 0.75749992E+02 -0.49644E+05
 0.75799995E+02 -0.48387E+05
 0.75849998E+02 -0.49535E+05
 0.75899994E+02 -0.51473E+05
 0.75949997E+02 -0.53406E+05
 0.75999992E+02 -0.54892E+05
 0.76049995E+02 -0.56378E+05
 0.76099998E+02 -0.57278E+05
 0.76149994E+02 -0.57024E+05
 0.76199997E+02 -0.57691E+05
 0.76249992E+02 -0.59467E+05
 0.76299995E+02 -0.62106E+05
 0.76349998E+02 -0.64351E+05
 0.76399994E+02 -0.66650E+05
 0.76449997E+02 -0.68013E+05
 0.76499992E+02 -0.67159E+05
 0.76549995E+02 -0.65244E+05
 0.76599998E+02 -0.62682E+05
 0.76649994E+02 -0.60629E+05
 0.76699997E+02 -0.58790E+05
 0.76749992E+02 -0.56360E+05
 0.76799995E+02 -0.55405E+05
 0.76849998E+02 -0.55965E+05
 0.76899994E+02 -0.56335E+05
 0.76949997E+02 -0.56556E+05
 0.76999992E+02 -0.55861E+05
 0.77049995E+02 -0.54394E+05
 0.77099998E+02 -0.52979E+05
 0.77149994E+02 -0.53443E+05
 0.77199997E+02 -0.54630E+05
 0.77249992E+02 -0.55346E+05
 0.77299995E+02 -0.56806E+05
 0.77349998E+02 -0.58707E+05
 0.77399994E+02 -0.61676E+05
 0.77449997E+02 -0.64823E+05
 0.77499992E+02 -0.66180E+05
 0.77549995E+02 -0.65967E+05
 0.77599998E+02 -0.65822E+05
 0.77649994E+02 -0.64563E+05
 0.77699997E+02 -0.60714E+05
 0.77749992E+02 -0.55881E+05
 0.77799995E+02 -0.51928E+05
 0.77849998E+02 -0.48644E+05
 0.77899994E+02 -0.46484E+05
 0.77949997E+02 -0.46705E+05
 0.77999992E+02 -0.49727E+05
 0.78049995E+02 -0.53981E+05
 0.78099998E+02 -0.57093E+05
 0.78149994E+02 -0.58257E+05
 0.78199997E+02 -0.57859E+05
 0.78249992E+02 -0.58024E+05
 0.78299995E+02 -0.60306E+05
 0.78349998E+02 -0.64032E+05
 0.78399994E+02 -0.66974E+05
 0.78449997E+02 -0.67681E+05
 0.78499992E+02 -0.65209E+05
 0.78549995E+02 -0.60510E+05
 0.78599998E+02 -0.56640E+05
 0.78649994E+02 -0.54994E+05
 0.78699997E+02 -0.55721E+05
 0.78749992E+02 -0.58207E+05
 0.78799995E+02 -0.60787E+05
 0.78849998E+02 -0.62408E+05
 0.78899994E+02 -0.62581E+05
 0.78949997E+02 -0.61553E+05
 0.78999992E+02 -0.61164E+05
 0.79049995E+02 -0.62123E+05
 0.79099998E+02 -0.62733E+05
 0.79149994E+02 -0.62716E+05
 0.79199997E+02 -0.62332E+05
 0.79249992E+02 -0.61934E+05
 0.79299995E+02 -0.61759E+05
 0.79349998E+02 -0.61802E+05
 0.79399994E+02 -0.62149E+05
 0.79449997E+02 -0.61332E+05
 0.79499992E+02 -0.58980E+05
 0.79549995E+02 -0.54973E+05
 0.79599998E+02 -0.51271E+05
 0.79649994E+02 -0.49958E+05
 0.79699997E+02 -0.50660E+05
 0.79749992E+02 -0.52462E+05
 0.79799995E+02 -0.54149E+05
 0.79849998E+02 -0.56324E+05
 0.79899994E+02 -0.58320E+05
 0.79949997E+02 -0.58707E+05
 0.79999992E+02 -0.57520E+05
 0.80049995E+02 -0.56868E+05
 0.80099998E+02 -0.57778E+05
 0.80149994E+02 -0.58769E+05
 0.80199997E+02 -0.58990E+05
 0.80249992E+02 -0.58269E+05
 0.80299995E+02 -0.57426E+05
 0.80349998E+02 -0.56768E+05
 0.80399994E+02 -0.55618E+05
 0.80449997E+02 -0.54561E+05
 0.80499992E+02 -0.54307E+05
 0.80549995E+02 -0.55176E+05
 0.80599998E+02 -0.56927E+05
 0.80649994E+02 -0.59453E+05
 0.80699997E+02 -0.62092E+05
 0.80749992E+02 -0.62980E+05
 0.80799995E+02 -0.62131E+05
 0.80849998E+02 -0.59930E+05
 0.80899994E+02 -0.57102E+05
 0.80949997E+02 -0.54312E+05
 0.80999992E+02 -0.53067E+05
 0.81049995E+02 -0.54862E+05
 0.81099998E+02 -0.57295E+05
 0.81149994E+02 -0.58053E+05
 0.81199997E+02 -0.58150E+05
 0.81249992E+02 -0.58590E+05
 0.81299995E+02 -0.58860E+05
 0.81349998E+02 -0.58941E+05
 0.81399994E+02 -0.58832E+05
 0.81449997E+02 -0.58001E+05
 0.81499992E+02 -0.56629E+05
 0.81549995E+02 -0.55971E+05
 0.81599998E+02 -0.57169E+05
 0.81649994E+02 -0.58891E+05
 0.81699997E+02 -0.59966E+05
 0.81749992E+02 -0.59953E+05
 0.81799995E+02 -0.59697E+05
 0.81849998E+02 -0.59715E+05
 0.81899994E+02 -0.60344E+05
 0.81949997E+02 -0.62289E+05
 0.81999992E+02 -0.64795E+05
 0.82049995E+02 -0.66534E+05
 0.82099998E+02 -0.66572E+05
 0.82149994E+02 -0.65821E+05
 0.82199997E+02 -0.64013E+05
 0.82249992E+02 -0.61335E+05
 0.82299995E+02 -0.58291E+05
 0.82349998E+02 -0.55373E+05
 0.82399994E+02 -0.54171E+05
 0.82449997E+02 -0.54191E+05
 0.82499992E+02 -0.54074E+05
 0.82549995E+02 -0.53247E+05
 0.82599998E+02 -0.51724E+05
 0.82649994E+02 -0.50344E+05
 0.82699997E+02 -0.50232E+05
 0.82749992E+02 -0.51999E+05
 0.82799995E+02 -0.54537E+05
 0.82849998E+02 -0.57392E+05
 0.82899994E+02 -0.60627E+05
 0.82949997E+02 -0.63684E+05
 0.82999992E+02 -0.66020E+05
 0.83049995E+02 -0.66608E+05
 0.83099998E+02 -0.65935E+05
 0.83149994E+02 -0.65700E+05
 0.83199997E+02 -0.65569E+05
 0.83249992E+02 -0.63783E+05
 0.83299995E+02 -0.60797E+05
 0.83349998E+02 -0.58650E+05
 0.83399994E+02 -0.57721E+05
 0.83449997E+02 -0.57191E+05
 0.83499992E+02 -0.56192E+05
 0.83549995E+02 -0.54762E+05
 0.83599998E+02 -0.53243E+05
 0.83649994E+02 -0.51750E+05
 0.83699997E+02 -0.50401E+05
 0.83749992E+02 -0.48539E+05
 0.83799995E+02 -0.46640E+05
 0.83849998E+02 -0.45924E+05
 0.83899994E+02 -0.47370E+05
 0.83949997E+02 -0.50589E+05
 0.83999992E+02 -0.54178E+05
 0.84049995E+02 -0.57302E+05
 0.84099998E+02 -0.59652E+05
 0.84149994E+02 -0.60627E+05
 0.84199997E+02 -0.60093E+05
 0.84249992E+02 -0.58812E+05
 0.84299995E+02 -0.57578E+05
 0.84349998E+02 -0.57997E+05
 0.84399994E+02 -0.59687E+05
 0.84449997E+02 -0.61359E+05
 0.84499992E+02 -0.62653E+05
 0.84549995E+02 -0.62943E+05
 0.84599998E+02 -0.62806E+05
 0.84649994E+02 -0.62512E+05
 0.84699997E+02 -0.61581E+05
 0.84749992E+02 -0.60431E+05
 0.84799995E+02 -0.60723E+05
 0.84849998E+02 -0.62869E+05
 0.84899994E+02 -0.65003E+05
 0.84949997E+02 -0.65862E+05
 0.84999992E+02 -0.65857E+05
 0.85049995E+02 -0.66130E+05
 0.85099998E+02 -0.66629E+05
 0.85149994E+02 -0.66105E+05
 0.85199997E+02 -0.63535E+05
 0.85249992E+02 -0.60362E+05
 0.85299995E+02 -0.58452E+05
 0.85349998E+02 -0.57092E+05
 0.85399994E+02 -0.56499E+05
 0.85449997E+02 -0.56205E+05
 0.85499992E+02 -0.55512E+05
 0.85549995E+02 -0.55098E+05
 0.85599998E+02 -0.55086E+05
 0.85649994E+02 -0.55921E+05
 0.85699997E+02 -0.56650E+05
 0.85749992E+02 -0.57008E+05
 0.85799995E+02 -0.57051E+05
 0.85849998E+02 -0.56463E+05
 0.85899994E+02 -0.55477E+05
 0.85949997E+02 -0.54820E+05
 0.85999992E+02 -0.55311E+05
 0.86049995E+02 -0.55612E+05
 0.86099998E+02 -0.55571E+05
 0.86149994E+02 -0.55071E+05
 0.86199997E+02 -0.54506E+05
 0.86249992E+02 -0.54461E+05
 0.86299995E+02 -0.54162E+05
 0.86349998E+02 -0.53992E+05
 0.86399994E+02 -0.54725E+05
 0.86449997E+02 -0.56075E+05
 0.86499992E+02 -0.56953E+05
 0.86549995E+02 -0.57428E+05
 0.86599998E+02 -0.57304E+05
 0.86649994E+02 -0.56891E+05
 0.86699997E+02 -0.56906E+05
 0.86749992E+02 -0.57400E+05
 0.86799995E+02 -0.58087E+05
 0.86849998E+02 -0.58252E+05
 0.86899994E+02 -0.58139E+05
 0.86949997E+02 -0.57829E+05
 0.86999992E+02 -0.57025E+05
 0.87049995E+02 -0.55957E+05
 0.87099998E+02 -0.54952E+05
 0.87149994E+02 -0.54165E+05
 0.87199997E+02 -0.54053E+05
 0.87249992E+02 -0.55308E+05
 0.87299995E+02 -0.57946E+05
 0.87349998E+02 -0.61431E+05
 0.87399994E+02 -0.63696E+05
 0.87449997E+02 -0.64675E+05
 0.87499992E+02 -0.65145E+05
 0.87549995E+02 -0.65420E+05
 0.87599991E+02 -0.65175E+05
 0.87649994E+02 -0.63717E+05
 0.87699997E+02 -0.61202E+05
 0.87749992E+02 -0.58203E+05
 0.87799995E+02 -0.56731E+05
 0.87849991E+02 -0.56634E+05
 0.87899994E+02 -0.57801E+05
 0.87949997E+02 -0.59759E+05
 0.87999992E+02 -0.61428E+05
 0.88049995E+02 -0.62323E+05
 0.88099991E+02 -0.62508E+05
 0.88149994E+02 -0.62583E+05
 0.88199997E+02 -0.62895E+05
 0.88249992E+02 -0.62925E+05
 0.88299995E+02 -0.62623E+05
 0.88349991E+02 -0.63031E+05
 0.88399994E+02 -0.62578E+05
 0.88449997E+02 -0.59556E+05
 0.88499992E+02 -0.55199E+05
 0.88549995E+02 -0.51804E+05
 0.88599991E+02 -0.49895E+05
 0.88649994E+02 -0.48805E+05
 0.88699997E+02 -0.48328E+05
 0.88749992E+02 -0.49314E+05
 0.88799995E+02 -0.51937E+05
 0.88849991E+02 -0.54748E+05
 0.88899994E+02 -0.57282E+05
 0.88949997E+02 -0.58433E+05
 0.88999992E+02 -0.58370E+05
 0.89049995E+02 -0.58074E+05
 0.89099991E+02 -0.57703E+05
 0.89149994E+02 -0.57667E+05
 0.89199997E+02 -0.57988E+05
 0.89249992E+02 -0.58371E+05
 0.89299995E+02 -0.58442E+05
 0.89349991E+02 -0.58553E+05
 0.89399994E+02 -0.58615E+05
 0.89449997E+02 -0.58456E+05
 0.89499992E+02 -0.58400E+05
 0.89549995E+02 -0.59690E+05
 0.89599991E+02 -0.61526E+05
 0.89649994E+02 -0.62379E+05
 0.89699997E+02 -0.61904E+05
 0.89749992E+02 -0.60344E+05
 0.89799995E+02 -0.58940E+05
 0.89849991E+02 -0.58135E+05
 0.89899994E+02 -0.57836E+05
 0.89949997E+02 -0.58081E+05
 0.89999992E+02 -0.59009E+05
 0.90049995E+02 -0.60060E+05
 0.90099991E+02 -0.61212E+05
 0.90149994E+02 -0.62121E+05
 0.90199997E+02 -0.62252E+05
 0.90249992E+02 -0.61379E+05
 0.90299995E+02 -0.60150E+05
 0.90349991E+02 -0.59953E+05
 0.90399994E+02 -0.60312E+05
 0.90449997E+02 -0.61210E+05
 0.90499992E+02 -0.61986E+05
 0.90549995E+02 -0.62209E+05
 0.90599991E+02 -0.62393E+05
 0.90649994E+02 -0.62596E+05
 0.90699997E+02 -0.62869E+05
 0.90749992E+02 -0.63045E+05
 0.90799995E+02 -0.62666E+05
 0.90849991E+02 -0.60795E+05
 0.90899994E+02 -0.57579E+05
 0.90949997E+02 -0.54156E+05
 0.90999992E+02 -0.51686E+05
 0.91049995E+02 -0.50821E+05
 0.91099991E+02 -0.51382E+05
 0.91149994E+02 -0.52384E+05
 0.91199997E+02 -0.53535E+05
 0.91249992E+02 -0.54769E+05
 0.91299995E+02 -0.55338E+05
 0.91349991E+02 -0.55235E+05
 0.91399994E+02 -0.54323E+05
 0.91449997E+02 -0.53191E+05
 0.91499992E+02 -0.52528E+05
 0.91549995E+02 -0.52218E+05
 0.91599991E+02 -0.52376E+05
 0.91649994E+02 -0.53284E+05
 0.91699997E+02 -0.54212E+05
 0.91749992E+02 -0.54746E+05
 0.91799995E+02 -0.55244E+05
 0.91849991E+02 -0.55282E+05
 0.91899994E+02 -0.55119E+05
 0.91949997E+02 -0.54949E+05
 0.91999992E+02 -0.55353E+05
 0.92049995E+02 -0.56601E+05
 0.92099991E+02 -0.58570E+05
 0.92149994E+02 -0.60900E+05
 0.92199997E+02 -0.62693E+05
 0.92249992E+02 -0.63518E+05
 0.92299995E+02 -0.63775E+05
 0.92349991E+02 -0.64922E+05
 0.92399994E+02 -0.67082E+05
 0.92449997E+02 -0.68841E+05
 0.92499992E+02 -0.69774E+05
 0.92549995E+02 -0.69837E+05
 0.92599991E+02 -0.68557E+05
 0.92649994E+02 -0.66670E+05
 0.92699997E+02 -0.65052E+05
 0.92749992E+02 -0.63731E+05
 0.92799995E+02 -0.62172E+05
 0.92849991E+02 -0.59848E+05
 0.92899994E+02 -0.56907E+05
 0.92949997E+02 -0.54089E+05
 0.92999992E+02 -0.51871E+05
 0.93049995E+02 -0.50209E+05
 0.93099991E+02 -0.49652E+05
 0.93149994E+02 -0.50023E+05
 0.93199997E+02 -0.50735E+05
 0.93249992E+02 -0.51556E+05
 0.93299995E+02 -0.51879E+05
 0.93349991E+02 -0.51827E+05
 0.93399994E+02 -0.51865E+05
 0.93449997E+02 -0.52329E+05
 0.93499992E+02 -0.53251E+05
 0.93549995E+02 -0.54242E+05
 0.93599991E+02 -0.55192E+05
 0.93649994E+02 -0.55553E+05
 0.93699997E+02 -0.55398E+05
 0.93749992E+02 -0.55392E+05
 0.93799995E+02 -0.55872E+05
 0.93849991E+02 -0.57121E+05
 0.93899994E+02 -0.58747E+05
 0.93949997E+02 -0.60678E+05
 0.93999992E+02 -0.62436E+05
 0.94049995E+02 -0.62966E+05
 0.94099991E+02 -0.62506E+05
 0.94149994E+02 -0.61920E+05
 0.94199997E+02 -0.61665E+05
 0.94249992E+02 -0.61519E+05
 0.94299995E+02 -0.61563E+05
 0.94349991E+02 -0.61711E+05
 0.94399994E+02 -0.61628E+05
 0.94449997E+02 -0.61180E+05
 0.94499992E+02 -0.60178E+05
 0.94549995E+02 -0.59222E+05
 0.94599991E+02 -0.59096E+05
 0.94649994E+02 -0.60155E+05
 0.94699997E+02 -0.61575E+05
 0.94749992E+02 -0.62215E+05
 0.94799995E+02 -0.61880E+05
 0.94849991E+02 -0.60941E+05
 0.94899994E+02 -0.59317E+05
 0.94949997E+02 -0.57402E+05
 0.94999992E+02 -0.55749E+05
 0.95049995E+02 -0.54518E+05
 0.95099991E+02 -0.54504E+05
 0.95149994E+02 -0.55478E+05
 0.95199997E+02 -0.56802E+05
 0.95249992E+02 -0.57811E+05
 0.95299995E+02 -0.58152E+05
 0.95349991E+02 -0.57803E+05
 0.95399994E+02 -0.57316E+05
 0.95449997E+02 -0.57181E+05
 0.95499992E+02 -0.57370E+05
 0.95549995E+02 -0.58439E+05
 0.95599991E+02 -0.59850E+05
 0.95649994E+02 -0.60741E+05
 0.95699997E+02 -0.60756E+05
 0.95749992E+02 -0.60235E+05
 0.95799995E+02 -0.59585E+05
 0.95849991E+02 -0.58687E+05
 0.95899994E+02 -0.57426E+05
 0.95949997E+02 -0.55944E+05
 0.95999992E+02 -0.54953E+05
 0.96049995E+02 -0.54885E+05
 0.96099991E+02 -0.55360E+05
 0.96149994E+02 -0.56530E+05
 0.96199997E+02 -0.58201E+05
 0.96249992E+02 -0.59675E+05
 0.96299995E+02 -0.60616E+05
 0.96349991E+02 -0.60464E+05
 0.96399994E+02 -0.59879E+05
 0.96449997E+02 -0.59635E+05
 0.96499992E+02 -0.59648E+05
 0.96549995E+02 -0.60195E+05
 0.96599991E+02 -0.61252E+05
 0.96649994E+02 -0.62249E+05
 0.96699997E+02 -0.63021E+05
 0.96749992E+02 -0.63521E+05
 0.96799995E+02 -0.63662E+05
 0.96849991E+02 -0.64134E+05
 0.96899994E+02 -0.64645E+05
 0.96949997E+02 -0.64817E+05
 0.96999992E+02 -0.64765E+05
 0.97049995E+02 -0.64223E+05
 0.97099991E+02 -0.63466E+05
 0.97149994E+02 -0.62482E+05
 0.97199997E+02 -0.61290E+05
 0.97249992E+02 -0.60064E+05
 0.97299995E+02 -0.58905E+05
 0.97349991E+02 -0.58261E+05
 0.97399994E+02 -0.57794E+05
 0.97449997E+02 -0.56846E+05
 0.97499992E+02 -0.55152E+05
 0.97549995E+02 -0.52908E+05
 0.97599991E+02 -0.50900E+05
 0.97649994E+02 -0.49186E+05
 0.97699997E+02 -0.48372E+05
 0.97749992E+02 -0.48374E+05
 0.97799995E+02 -0.48540E+05
 0.97849991E+02 -0.48940E+05
 0.97899994E+02 -0.49399E+05
 0.97949997E+02 -0.49396E+05
 0.97999992E+02 -0.48587E+05
