-0.20000000E+01  0.13129E+05
-0.19500000E+01  0.13055E+05
-0.19000000E+01  0.13109E+05
-0.18500000E+01  0.13114E+05
-0.18000000E+01  0.13117E+05
-0.17500000E+01  0.13110E+05
-0.17000000E+01  0.13092E+05
-0.16500001E+01  0.13072E+05
-0.16000000E+01  0.13062E+05
-0.15500000E+01  0.13055E+05
-0.15000000E+01  0.13061E+05
-0.14500000E+01  0.13081E+05
-0.14000001E+01  0.13103E+05
-0.13500000E+01  0.13119E+05
-0.13000001E+01  0.13119E+05
-0.12500000E+01  0.13113E+05
-0.12000000E+01  0.13109E+05
-0.11500001E+01  0.13104E+05
-0.11000000E+01  0.13096E+05
-0.10500001E+01  0.13092E+05
-0.10000000E+01  0.13090E+05
-0.95000005E+00  0.13089E+05
-0.90000010E+00  0.13085E+05
-0.85000002E+00  0.13077E+05
-0.80000007E+00  0.13069E+05
-0.75000012E+00  0.13056E+05
-0.70000005E+00  0.13050E+05
-0.65000010E+00  0.13052E+05
-0.60000014E+00  0.13058E+05
-0.55000007E+00  0.13062E+05
-0.50000012E+00  0.13062E+05
-0.45000005E+00  0.13067E+05
-0.40000010E+00  0.13070E+05
-0.35000014E+00  0.13074E+05
-0.30000007E+00  0.13076E+05
-0.25000012E+00  0.13075E+05
-0.20000005E+00  0.13078E+05
-0.15000010E+00  0.13077E+05
-0.10000014E+00  0.13075E+05
-0.50000072E-01  0.13076E+05
-0.11920929E-06  0.13079E+05
 0.49999952E-01  0.13082E+05
 0.99999905E-01  0.13087E+05
 0.14999986E+00  0.13095E+05
 0.19999981E+00  0.13108E+05
 0.24999976E+00  0.13114E+05
 0.29999995E+00  0.13111E+05
 0.34999990E+00  0.13106E+05
 0.39999986E+00  0.13094E+05
 0.44999981E+00  0.13074E+05
 0.49999976E+00  0.13054E+05
 0.54999995E+00  0.13041E+05
 0.59999990E+00  0.13037E+05
 0.64999986E+00  0.13038E+05
 0.69999981E+00  0.13041E+05
 0.74999976E+00  0.13050E+05
 0.79999971E+00  0.13062E+05
 0.84999990E+00  0.13077E+05
 0.89999986E+00  0.13088E+05
 0.94999981E+00  0.13093E+05
 0.99999976E+00  0.13099E+05
 0.10499997E+01  0.13104E+05
 0.10999999E+01  0.13115E+05
 0.11499999E+01  0.13122E+05
 0.11999998E+01  0.13123E+05
 0.12499998E+01  0.13117E+05
 0.12999997E+01  0.13106E+05
 0.13499999E+01  0.13091E+05
 0.13999999E+01  0.13080E+05
 0.14499998E+01  0.13069E+05
 0.14999998E+01  0.13055E+05
 0.15499997E+01  0.13052E+05
 0.15999999E+01  0.13057E+05
 0.16499999E+01  0.13062E+05
 0.16999998E+01  0.13070E+05
 0.17499998E+01  0.13085E+05
 0.17999997E+01  0.13097E+05
 0.18499997E+01  0.13099E+05
 0.18999999E+01  0.13100E+05
 0.19499998E+01  0.13109E+05
 0.19999998E+01  0.13114E+05
 0.20499997E+01  0.13119E+05
 0.20999999E+01  0.13121E+05
 0.21499996E+01  0.13121E+05
 0.21999998E+01  0.13124E+05
 0.22499995E+01  0.13127E+05
 0.22999997E+01  0.13125E+05
 0.23499999E+01  0.13125E+05
 0.23999996E+01  0.13124E+05
 0.24499998E+01  0.13115E+05
 0.24999995E+01  0.13108E+05
 0.25499997E+01  0.13096E+05
 0.25999999E+01  0.13085E+05
 0.26499996E+01  0.13080E+05
 0.26999998E+01  0.13085E+05
 0.27499995E+01  0.13094E+05
 0.27999997E+01  0.13101E+05
 0.28499999E+01  0.13110E+05
 0.28999996E+01  0.13115E+05
 0.29499998E+01  0.13119E+05
 0.29999995E+01  0.13118E+05
 0.30499997E+01  0.13113E+05
 0.30999999E+01  0.13109E+05
 0.31499996E+01  0.13103E+05
 0.31999998E+01  0.13095E+05
 0.32499995E+01  0.13086E+05
 0.32999997E+01  0.13077E+05
 0.33499999E+01  0.13069E+05
 0.33999996E+01  0.13061E+05
 0.34499998E+01  0.13059E+05
 0.34999995E+01  0.13059E+05
 0.35499997E+01  0.13061E+05
 0.35999994E+01  0.13060E+05
 0.36499996E+01  0.13055E+05
 0.36999998E+01  0.13049E+05
 0.37499995E+01  0.13050E+05
 0.37999997E+01  0.13062E+05
 0.38499994E+01  0.13082E+05
 0.38999996E+01  0.13097E+05
 0.39499998E+01  0.13098E+05
 0.39999995E+01  0.13092E+05
 0.40499997E+01  0.13086E+05
 0.40999994E+01  0.13080E+05
 0.41499996E+01  0.13075E+05
 0.41999998E+01  0.13081E+05
 0.42499995E+01  0.13086E+05
 0.42999997E+01  0.13084E+05
 0.43499994E+01  0.13079E+05
 0.43999996E+01  0.13073E+05
 0.44499998E+01  0.13070E+05
 0.44999995E+01  0.13074E+05
 0.45499997E+01  0.13081E+05
 0.45999994E+01  0.13085E+05
 0.46499996E+01  0.13083E+05
 0.46999998E+01  0.13075E+05
 0.47499995E+01  0.13065E+05
 0.47999997E+01  0.13063E+05
 0.48499994E+01  0.13064E+05
 0.48999996E+01  0.13065E+05
 0.49499998E+01  0.13069E+05
 0.49999995E+01  0.13076E+05
 0.50499997E+01  0.13085E+05
 0.50999994E+01  0.13087E+05
 0.51499996E+01  0.13084E+05
 0.51999998E+01  0.13087E+05
 0.52499995E+01  0.13096E+05
 0.52999997E+01  0.13102E+05
 0.53499994E+01  0.13104E+05
 0.53999996E+01  0.13104E+05
 0.54499993E+01  0.13101E+05
 0.54999995E+01  0.13101E+05
 0.55499997E+01  0.13099E+05
 0.55999994E+01  0.13097E+05
 0.56499996E+01  0.13087E+05
 0.56999993E+01  0.13074E+05
 0.57499995E+01  0.13061E+05
 0.57999997E+01  0.13055E+05
 0.58499994E+01  0.13058E+05
 0.58999996E+01  0.13068E+05
 0.59499993E+01  0.13080E+05
 0.59999995E+01  0.13090E+05
 0.60499992E+01  0.13100E+05
 0.60999994E+01  0.13105E+05
 0.61499996E+01  0.13114E+05
 0.61999998E+01  0.13124E+05
 0.62499990E+01  0.13130E+05
 0.62999992E+01  0.13129E+05
 0.63499994E+01  0.13122E+05
 0.63999996E+01  0.13109E+05
 0.64499998E+01  0.13094E+05
 0.64999990E+01  0.13081E+05
 0.65499992E+01  0.13072E+05
 0.65999994E+01  0.13072E+05
 0.66499996E+01  0.13083E+05
 0.66999998E+01  0.13096E+05
 0.67499990E+01  0.13112E+05
 0.67999992E+01  0.13125E+05
 0.68499994E+01  0.13131E+05
 0.68999996E+01  0.13130E+05
 0.69499998E+01  0.13122E+05
 0.69999990E+01  0.13110E+05
 0.70499992E+01  0.13099E+05
 0.70999994E+01  0.13091E+05
 0.71499996E+01  0.13090E+05
 0.71999998E+01  0.13091E+05
 0.72499990E+01  0.13090E+05
 0.72999992E+01  0.13088E+05
 0.73499994E+01  0.13087E+05
 0.73999996E+01  0.13091E+05
 0.74499998E+01  0.13090E+05
 0.74999990E+01  0.13090E+05
 0.75499992E+01  0.13091E+05
 0.75999994E+01  0.13091E+05
 0.76499996E+01  0.13089E+05
 0.76999998E+01  0.13081E+05
 0.77499990E+01  0.13072E+05
 0.77999992E+01  0.13067E+05
 0.78499994E+01  0.13064E+05
 0.78999996E+01  0.13057E+05
 0.79499998E+01  0.13058E+05
 0.79999990E+01  0.13064E+05
 0.80499992E+01  0.13067E+05
 0.80999994E+01  0.13064E+05
 0.81499996E+01  0.13060E+05
 0.81999998E+01  0.13064E+05
 0.82499990E+01  0.13066E+05
 0.82999992E+01  0.13076E+05
 0.83499994E+01  0.13086E+05
 0.83999996E+01  0.13092E+05
 0.84499998E+01  0.13095E+05
 0.84999990E+01  0.13095E+05
 0.85499992E+01  0.13095E+05
 0.85999994E+01  0.13090E+05
 0.86499996E+01  0.13087E+05
 0.86999998E+01  0.13083E+05
 0.87499990E+01  0.13076E+05
 0.87999992E+01  0.13067E+05
 0.88499994E+01  0.13061E+05
 0.88999996E+01  0.13059E+05
 0.89499998E+01  0.13060E+05
 0.89999990E+01  0.13064E+05
 0.90499992E+01  0.13066E+05
 0.90999994E+01  0.13071E+05
 0.91499996E+01  0.13069E+05
 0.91999989E+01  0.13069E+05
 0.92499990E+01  0.13070E+05
 0.92999992E+01  0.13069E+05
 0.93499994E+01  0.13078E+05
 0.93999996E+01  0.13086E+05
 0.94499989E+01  0.13094E+05
 0.94999990E+01  0.13106E+05
 0.95499992E+01  0.13121E+05
 0.95999994E+01  0.13129E+05
 0.96499996E+01  0.13133E+05
 0.96999989E+01  0.13132E+05
 0.97499990E+01  0.13128E+05
 0.97999992E+01  0.13126E+05
 0.98499994E+01  0.13120E+05
 0.98999996E+01  0.13115E+05
 0.99499989E+01  0.13108E+05
 0.99999990E+01  0.13099E+05
 0.10049999E+02  0.13086E+05
 0.10099999E+02  0.13075E+05
 0.10150000E+02  0.13067E+05
 0.10199999E+02  0.13064E+05
 0.10249999E+02  0.13060E+05
 0.10299999E+02  0.13056E+05
 0.10349999E+02  0.13057E+05
 0.10400000E+02  0.13065E+05
 0.10449999E+02  0.13072E+05
 0.10499999E+02  0.13074E+05
 0.10549999E+02  0.13076E+05
 0.10599999E+02  0.13076E+05
 0.10650000E+02  0.13070E+05
 0.10699999E+02  0.13071E+05
 0.10749999E+02  0.13083E+05
 0.10799999E+02  0.13101E+05
 0.10849999E+02  0.13117E+05
 0.10900000E+02  0.13123E+05
 0.10949999E+02  0.13127E+05
 0.10999999E+02  0.13128E+05
 0.11049999E+02  0.13127E+05
 0.11099999E+02  0.13125E+05
 0.11150000E+02  0.13122E+05
 0.11199999E+02  0.13118E+05
 0.11249999E+02  0.13110E+05
 0.11299999E+02  0.13106E+05
 0.11349999E+02  0.13107E+05
 0.11400000E+02  0.13106E+05
 0.11449999E+02  0.13100E+05
 0.11499999E+02  0.13091E+05
 0.11549999E+02  0.13086E+05
 0.11599999E+02  0.13083E+05
 0.11650000E+02  0.13077E+05
 0.11699999E+02  0.13068E+05
 0.11749999E+02  0.13063E+05
 0.11799999E+02  0.13063E+05
 0.11849999E+02  0.13062E+05
 0.11900000E+02  0.13061E+05
 0.11949999E+02  0.13066E+05
 0.11999999E+02  0.13071E+05
 0.12049999E+02  0.13079E+05
 0.12099999E+02  0.13084E+05
 0.12150000E+02  0.13084E+05
 0.12199999E+02  0.13085E+05
 0.12249999E+02  0.13083E+05
 0.12299999E+02  0.13082E+05
 0.12349999E+02  0.13085E+05
 0.12400000E+02  0.13089E+05
 0.12449999E+02  0.13091E+05
 0.12499999E+02  0.13092E+05
 0.12549999E+02  0.13095E+05
 0.12599999E+02  0.13102E+05
 0.12649999E+02  0.13105E+05
 0.12699999E+02  0.13104E+05
 0.12749999E+02  0.13095E+05
 0.12799999E+02  0.13086E+05
 0.12849999E+02  0.13077E+05
 0.12899999E+02  0.13072E+05
 0.12949999E+02  0.13072E+05
 0.12999999E+02  0.13074E+05
 0.13049999E+02  0.13082E+05
 0.13099999E+02  0.13090E+05
 0.13149999E+02  0.13100E+05
 0.13199999E+02  0.13111E+05
 0.13249999E+02  0.13118E+05
 0.13299999E+02  0.13117E+05
 0.13349999E+02  0.13108E+05
 0.13399999E+02  0.13105E+05
 0.13449999E+02  0.13099E+05
 0.13499999E+02  0.13090E+05
 0.13549999E+02  0.13078E+05
 0.13599999E+02  0.13055E+05
 0.13649999E+02  0.13041E+05
 0.13699999E+02  0.13021E+05
 0.13749999E+02  0.12992E+05
 0.13799999E+02  0.12867E+05
 0.13849999E+02  0.12790E+05
 0.13899999E+02  0.12721E+05
 0.13949999E+02  0.12684E+05
 0.13999999E+02  0.12834E+05
 0.14049999E+02  0.13187E+05
 0.14099998E+02  0.13059E+05
 0.14150000E+02  0.13077E+05
 0.14199999E+02  0.13244E+05
 0.14249998E+02  0.13037E+05
 0.14299999E+02  0.13050E+05
 0.14349998E+02  0.13330E+05
 0.14400000E+02  0.13056E+05
 0.14449999E+02  0.12472E+05
 0.14499998E+02  0.12671E+05
 0.14549999E+02  0.11983E+05
 0.14599998E+02  0.11827E+05
 0.14650000E+02  0.12054E+05
 0.14699999E+02  0.12332E+05
 0.14749998E+02  0.12290E+05
 0.14799999E+02  0.13228E+05
 0.14849998E+02  0.13326E+05
 0.14900000E+02  0.13360E+05
 0.14949999E+02  0.15909E+05
 0.14999998E+02  0.15822E+05
 0.15049999E+02  0.13489E+05
 0.15099998E+02  0.13729E+05
 0.15150000E+02  0.15765E+05
 0.15199999E+02  0.12972E+05
 0.15249998E+02  0.12850E+05
 0.15299999E+02  0.13791E+05
 0.15349998E+02  0.13413E+05
 0.15400000E+02  0.12839E+05
 0.15449999E+02  0.11071E+05
 0.15499998E+02  0.12259E+05
 0.15549999E+02  0.12276E+05
 0.15599998E+02  0.12427E+05
 0.15650000E+02  0.12658E+05
 0.15699999E+02  0.11610E+05
 0.15749998E+02  0.11738E+05
 0.15799999E+02  0.14231E+05
 0.15849998E+02  0.10930E+05
 0.15900000E+02  0.12369E+05
 0.15949999E+02  0.14912E+05
 0.15999998E+02  0.10977E+05
 0.16049999E+02  0.13767E+05
 0.16099998E+02  0.14012E+05
 0.16150000E+02  0.13784E+05
 0.16199999E+02  0.16392E+05
 0.16249998E+02  0.14011E+05
 0.16299999E+02  0.11183E+05
 0.16349998E+02  0.13792E+05
 0.16400000E+02  0.13371E+05
 0.16449999E+02  0.95581E+04
 0.16499998E+02  0.16044E+05
 0.16549999E+02  0.16999E+05
 0.16599998E+02  0.10811E+05
 0.16650000E+02  0.13733E+05
 0.16699999E+02  0.15350E+05
 0.16749998E+02  0.12371E+05
 0.16799999E+02  0.12581E+05
 0.16849998E+02  0.13472E+05
 0.16900000E+02  0.10082E+05
 0.16949999E+02  0.10851E+05
 0.16999998E+02  0.87724E+04
 0.17049999E+02  0.97524E+04
 0.17099998E+02  0.13521E+05
 0.17150000E+02  0.12594E+05
 0.17199999E+02  0.15156E+05
 0.17249998E+02  0.18268E+05
 0.17299999E+02  0.19068E+05
 0.17349998E+02  0.16872E+05
 0.17400000E+02  0.17341E+05
 0.17449999E+02  0.17056E+05
 0.17499998E+02  0.12555E+05
 0.17549999E+02  0.12046E+05
 0.17599998E+02  0.92884E+04
 0.17650000E+02  0.11859E+05
 0.17699999E+02  0.11806E+05
 0.17749998E+02  0.90029E+04
 0.17799999E+02  0.12670E+05
 0.17849998E+02  0.75254E+04
 0.17900000E+02  0.78319E+04
 0.17949999E+02  0.13806E+05
 0.17999998E+02  0.16026E+05
 0.18049999E+02  0.13550E+05
 0.18099998E+02  0.12444E+05
 0.18150000E+02  0.14991E+05
 0.18199999E+02  0.18015E+05
 0.18249998E+02  0.12112E+05
 0.18299999E+02  0.11795E+05
 0.18349998E+02  0.16240E+05
 0.18400000E+02  0.15219E+05
 0.18449999E+02  0.11180E+05
 0.18499998E+02  0.99425E+04
 0.18549999E+02  0.10256E+05
 0.18599998E+02  0.94300E+04
 0.18650000E+02  0.10198E+05
 0.18699999E+02  0.92989E+04
 0.18749998E+02  0.21013E+05
 0.18799999E+02  0.17309E+05
 0.18849998E+02  0.11513E+05
 0.18900000E+02  0.18259E+05
 0.18949999E+02  0.16517E+05
 0.18999998E+02  0.13507E+05
 0.19049999E+02  0.10695E+05
 0.19099998E+02  0.77045E+04
 0.19150000E+02  0.11429E+05
 0.19199999E+02  0.16936E+05
 0.19249998E+02  0.12291E+05
 0.19299999E+02  0.85782E+04
 0.19349998E+02  0.15671E+05
 0.19400000E+02  0.15074E+05
 0.19449999E+02  0.12267E+05
 0.19499998E+02  0.21542E+05
 0.19549999E+02  0.16094E+05
 0.19599998E+02  0.12227E+05
 0.19650000E+02  0.16162E+05
 0.19699999E+02  0.11545E+05
 0.19749998E+02  0.54637E+04
 0.19799999E+02  0.82519E+04
 0.19849998E+02  0.76090E+04
 0.19900000E+02  0.46850E+04
 0.19949999E+02  0.16755E+05
 0.19999998E+02  0.10688E+05
 0.20049999E+02  0.14119E+05
 0.20099998E+02  0.23084E+05
 0.20150000E+02  0.15078E+05
 0.20199999E+02  0.12949E+05
 0.20249998E+02  0.15526E+05
 0.20299999E+02  0.17686E+05
 0.20349998E+02  0.10811E+05
 0.20399998E+02  0.11099E+05
 0.20449999E+02  0.12720E+05
 0.20499998E+02  0.10082E+05
 0.20549999E+02  0.11827E+05
 0.20599998E+02  0.95435E+04
 0.20649998E+02  0.95006E+04
 0.20699999E+02  0.14459E+05
 0.20749998E+02  0.14690E+05
 0.20799999E+02  0.12594E+05
 0.20849998E+02  0.11938E+05
 0.20899998E+02  0.13141E+05
 0.20949999E+02  0.15355E+05
 0.20999998E+02  0.15079E+05
 0.21049999E+02  0.15302E+05
 0.21099998E+02  0.14359E+05
 0.21149998E+02  0.53124E+04
 0.21199999E+02  0.11417E+05
 0.21249998E+02  0.20194E+05
 0.21299999E+02  0.14628E+05
 0.21349998E+02  0.14763E+05
 0.21399998E+02  0.17366E+05
 0.21449999E+02  0.18900E+05
 0.21499998E+02  0.17897E+05
 0.21549999E+02  0.12993E+05
 0.21599998E+02  0.11371E+05
 0.21649998E+02  0.16769E+05
 0.21699999E+02  0.11536E+05
 0.21749998E+02  0.14336E+05
 0.21799999E+02  0.13997E+05
 0.21849998E+02  0.98556E+04
 0.21899998E+02  0.13299E+05
 0.21949999E+02  0.32670E+04
 0.21999998E+02  0.43957E+03
 0.22049999E+02  0.11305E+05
 0.22099998E+02  0.11708E+05
 0.22149998E+02  0.10199E+05
 0.22199999E+02  0.21261E+05
 0.22249998E+02  0.23060E+05
 0.22299999E+02  0.19534E+05
 0.22349998E+02  0.19211E+05
 0.22399998E+02  0.16461E+05
 0.22449999E+02  0.69363E+04
 0.22499998E+02  0.65758E+04
 0.22549999E+02  0.69914E+04
 0.22599998E+02  0.10246E+05
 0.22649998E+02  0.13550E+05
 0.22699999E+02  0.14744E+05
 0.22749998E+02  0.12100E+05
 0.22799999E+02  0.11670E+05
 0.22849998E+02  0.15289E+05
 0.22899998E+02  0.18529E+05
 0.22949999E+02  0.23645E+05
 0.22999998E+02  0.12686E+05
 0.23049999E+02  0.43993E+04
 0.23099998E+02  0.79327E+04
 0.23149998E+02  0.10281E+05
 0.23199999E+02  0.89438E+04
 0.23249998E+02  0.12587E+05
 0.23299999E+02  0.13653E+05
 0.23349998E+02  0.17765E+05
 0.23399998E+02  0.15914E+05
 0.23449999E+02  0.10078E+05
 0.23499998E+02  0.20526E+05
 0.23549999E+02  0.13552E+05
 0.23599998E+02  0.51682E+04
 0.23649998E+02  0.19403E+05
 0.23699999E+02  0.14472E+05
 0.23749998E+02  0.45845E+04
 0.23799999E+02  0.13980E+05
 0.23849998E+02  0.21785E+05
 0.23899998E+02  0.15009E+05
 0.23949999E+02  0.12968E+05
 0.23999998E+02  0.10907E+05
 0.24049999E+02  0.87608E+04
 0.24099998E+02  0.12465E+05
 0.24149998E+02  0.87522E+04
 0.24199999E+02  0.10519E+05
 0.24249998E+02  0.14565E+05
 0.24299999E+02  0.85282E+04
 0.24349998E+02  0.56900E+04
 0.24399998E+02  0.14720E+05
 0.24449999E+02  0.12657E+05
 0.24499998E+02  0.93671E+04
 0.24549999E+02  0.22038E+05
 0.24599998E+02  0.22087E+05
 0.24649998E+02  0.87507E+04
 0.24699999E+02  0.10610E+05
 0.24749998E+02  0.16115E+05
 0.24799999E+02  0.14042E+05
 0.24849998E+02  0.21978E+05
 0.24899998E+02  0.89801E+04
 0.24949999E+02  0.22520E+04
 0.24999998E+02  0.17463E+05
 0.25049999E+02  0.87778E+04
 0.25099998E+02  0.15035E+05
 0.25149998E+02  0.24897E+05
 0.25199999E+02  0.14735E+05
 0.25249998E+02  0.89137E+04
 0.25299999E+02  0.15450E+05
 0.25349998E+02  0.15569E+05
 0.25399998E+02  0.32256E+04
 0.25449999E+02  0.11249E+05
 0.25499998E+02  0.18510E+05
 0.25549999E+02  0.12262E+05
 0.25599998E+02  0.13958E+05
 0.25649998E+02  0.70005E+04
 0.25699999E+02  0.10399E+05
 0.25749998E+02  0.14542E+05
 0.25799999E+02  0.84454E+04
 0.25849998E+02  0.23696E+05
 0.25899998E+02  0.25640E+05
 0.25949999E+02  0.15323E+05
 0.25999998E+02  0.14730E+05
 0.26049999E+02  0.60887E+04
 0.26099998E+02  0.20442E+04
 0.26149998E+02  0.93102E+04
 0.26199999E+02  0.77651E+04
 0.26249998E+02  0.46602E+04
 0.26299999E+02  0.82629E+04
 0.26349998E+02  0.13844E+05
 0.26399998E+02  0.16824E+05
 0.26449999E+02  0.19959E+05
 0.26499998E+02  0.24714E+05
 0.26549999E+02  0.20520E+05
 0.26599998E+02  0.19566E+05
 0.26649998E+02  0.14751E+05
 0.26699999E+02  0.16258E+05
 0.26749998E+02  0.19852E+05
 0.26799999E+02  0.93287E+04
 0.26849998E+02  0.56327E+04
 0.26899998E+02  0.85662E+04
 0.26949999E+02  0.16753E+04
 0.26999998E+02 -0.47394E+04
 0.27049997E+02  0.92102E+04
 0.27099998E+02  0.23355E+05
 0.27149998E+02  0.27700E+05
 0.27199999E+02  0.27040E+05
 0.27249998E+02  0.23910E+05
 0.27299997E+02  0.17711E+05
 0.27349998E+02  0.65445E+04
 0.27399998E+02  0.31778E+03
 0.27449999E+02  0.12435E+05
 0.27499998E+02  0.15979E+05
 0.27549997E+02  0.12425E+05
 0.27599998E+02  0.14103E+05
 0.27649998E+02  0.54553E+04
 0.27699999E+02  0.12928E+03
 0.27749998E+02 -0.31113E+04
 0.27799997E+02  0.94998E+04
 0.27849998E+02  0.17328E+05
 0.27899998E+02  0.19247E+05
 0.27949999E+02  0.29608E+05
 0.27999998E+02  0.30564E+05
 0.28049997E+02  0.25846E+05
 0.28099998E+02  0.11310E+05
 0.28149998E+02  0.39795E+04
 0.28199999E+02  0.12119E+03
 0.28249998E+02  0.17802E+04
 0.28299997E+02  0.74492E+04
 0.28349998E+02  0.98366E+04
 0.28399998E+02  0.18181E+05
 0.28449999E+02  0.22520E+05
 0.28499998E+02  0.17772E+05
 0.28549997E+02  0.95252E+04
 0.28599998E+02  0.15831E+05
 0.28649998E+02  0.11363E+05
 0.28699999E+02  0.28346E+04
 0.28749998E+02  0.15624E+05
 0.28799997E+02  0.19561E+05
 0.28849998E+02  0.16085E+05
 0.28899998E+02  0.19248E+05
 0.28949999E+02  0.14599E+05
 0.28999998E+02  0.44416E+04
 0.29049997E+02  0.50690E+04
 0.29099998E+02  0.78702E+04
 0.29149998E+02  0.76119E+04
 0.29199999E+02  0.35513E+04
 0.29249998E+02  0.70286E+04
 0.29299997E+02  0.16745E+05
 0.29349998E+02  0.22775E+05
 0.29399998E+02  0.22660E+05
 0.29449999E+02  0.20025E+05
 0.29499998E+02  0.22373E+05
 0.29549997E+02  0.14090E+05
 0.29599998E+02  0.42486E+04
 0.29649998E+02  0.13492E+05
 0.29699999E+02  0.16567E+05
 0.29749998E+02  0.14171E+05
 0.29799997E+02  0.16336E+05
 0.29849998E+02  0.15290E+05
 0.29899998E+02  0.16176E+05
 0.29949999E+02  0.10272E+05
 0.29999998E+02  0.57987E+04
 0.30049999E+02  0.54584E+04
 0.30099998E+02  0.11341E+05
 0.30149998E+02  0.19005E+05
 0.30199997E+02  0.21200E+05
 0.30249996E+02  0.18087E+05
 0.30299999E+02  0.10005E+05
 0.30349998E+02  0.61756E+04
 0.30399998E+02  0.11511E+04
 0.30449997E+02 -0.65445E+03
 0.30499996E+02  0.51581E+04
 0.30549999E+02  0.13907E+05
 0.30599998E+02  0.24134E+05
 0.30649998E+02  0.32090E+05
 0.30699997E+02  0.27435E+05
 0.30749996E+02  0.17429E+05
 0.30799999E+02  0.12597E+05
 0.30849998E+02  0.47418E+04
 0.30899998E+02  0.34201E+03
 0.30949997E+02  0.97350E+04
 0.30999996E+02  0.16687E+05
 0.31049999E+02  0.12903E+05
 0.31099998E+02  0.11831E+05
 0.31149998E+02  0.11244E+05
 0.31199997E+02  0.88190E+04
 0.31249996E+02  0.94178E+04
 0.31299999E+02  0.92566E+04
 0.31349998E+02  0.12264E+05
 0.31399998E+02  0.18512E+05
 0.31449997E+02  0.23047E+05
 0.31499996E+02  0.24680E+05
 0.31549999E+02  0.17640E+05
 0.31599998E+02  0.84132E+04
 0.31649998E+02  0.22673E+04
 0.31699997E+02  0.72394E+04
 0.31749996E+02  0.19025E+05
 0.31799999E+02  0.20788E+05
 0.31849998E+02  0.17277E+05
 0.31899998E+02  0.14066E+05
 0.31949997E+02  0.90598E+04
 0.31999996E+02  0.10874E+05
 0.32049999E+02  0.11799E+05
 0.32099998E+02  0.89510E+04
 0.32149998E+02  0.14122E+05
 0.32199997E+02  0.16097E+05
 0.32249996E+02  0.15831E+05
 0.32299999E+02  0.99127E+04
 0.32349998E+02  0.33174E+04
 0.32399998E+02  0.40947E+04
 0.32449997E+02  0.63530E+04
 0.32499996E+02  0.11330E+05
 0.32549999E+02  0.17416E+05
 0.32599998E+02  0.24799E+05
 0.32649998E+02  0.17751E+05
 0.32699997E+02  0.10654E+05
 0.32749996E+02  0.17135E+05
 0.32799999E+02  0.18866E+05
 0.32849998E+02  0.15989E+05
 0.32899998E+02  0.11147E+05
 0.32949997E+02  0.79450E+04
 0.32999996E+02  0.87947E+04
 0.33049999E+02  0.10082E+05
 0.33099998E+02  0.11887E+05
 0.33149998E+02  0.14637E+05
 0.33199997E+02  0.12590E+05
 0.33249996E+02  0.55698E+04
 0.33299999E+02  0.57254E+04
 0.33349998E+02  0.16580E+05
 0.33399998E+02  0.20647E+05
 0.33449997E+02  0.21423E+05
 0.33499996E+02  0.17173E+05
 0.33549999E+02  0.11106E+05
 0.33599998E+02  0.14607E+05
 0.33649998E+02  0.12598E+05
 0.33699997E+02  0.11985E+05
 0.33749996E+02  0.13138E+05
 0.33799999E+02  0.11550E+05
 0.33849998E+02  0.13708E+05
 0.33899998E+02  0.19597E+05
 0.33949997E+02  0.19116E+05
 0.33999996E+02  0.13225E+05
 0.34049999E+02  0.16576E+05
 0.34099998E+02  0.16070E+05
 0.34149998E+02  0.11630E+05
 0.34199997E+02  0.87842E+04
 0.34249996E+02  0.55993E+04
 0.34299999E+02  0.73231E+04
 0.34349998E+02  0.90325E+04
 0.34399998E+02  0.11158E+05
 0.34449997E+02  0.15486E+05
 0.34499996E+02  0.17480E+05
 0.34549999E+02  0.14521E+05
 0.34599998E+02  0.13569E+05
 0.34649998E+02  0.12766E+05
 0.34699997E+02  0.13781E+05
 0.34749996E+02  0.15914E+05
 0.34799999E+02  0.13638E+05
 0.34849998E+02  0.13785E+05
 0.34899998E+02  0.12697E+05
 0.34949997E+02  0.12919E+05
 0.34999996E+02  0.12433E+05
 0.35049999E+02  0.81126E+04
 0.35099998E+02  0.83990E+04
 0.35149998E+02  0.10492E+05
 0.35199997E+02  0.99566E+04
 0.35249996E+02  0.10522E+05
 0.35299999E+02  0.13692E+05
 0.35349998E+02  0.17205E+05
 0.35399998E+02  0.20153E+05
 0.35449997E+02  0.16436E+05
 0.35499996E+02  0.12226E+05
 0.35549999E+02  0.12768E+05
 0.35599998E+02  0.12418E+05
 0.35649998E+02  0.99961E+04
 0.35699997E+02  0.10665E+05
 0.35749996E+02  0.13773E+05
 0.35799999E+02  0.15578E+05
 0.35849998E+02  0.18215E+05
 0.35899998E+02  0.18855E+05
 0.35949997E+02  0.18300E+05
 0.35999996E+02  0.15293E+05
 0.36049999E+02  0.13123E+05
 0.36099998E+02  0.11086E+05
 0.36149998E+02  0.96180E+04
 0.36199997E+02  0.12896E+05
 0.36249996E+02  0.15086E+05
 0.36299999E+02  0.15077E+05
 0.36349998E+02  0.16026E+05
 0.36399998E+02  0.13678E+05
 0.36449997E+02  0.92163E+04
 0.36499996E+02  0.10241E+05
 0.36549999E+02  0.12127E+05
 0.36599998E+02  0.14233E+05
 0.36649998E+02  0.15923E+05
 0.36699997E+02  0.13255E+05
 0.36749996E+02  0.97988E+04
 0.36799999E+02  0.53304E+04
 0.36849998E+02  0.61028E+04
 0.36899998E+02  0.85698E+04
 0.36949997E+02  0.88450E+04
 0.36999996E+02  0.11673E+05
 0.37049999E+02  0.12204E+05
 0.37099998E+02  0.13766E+05
 0.37149998E+02  0.14281E+05
 0.37199997E+02  0.14123E+05
 0.37249996E+02  0.15064E+05
 0.37299999E+02  0.15299E+05
 0.37349998E+02  0.16269E+05
 0.37399998E+02  0.17061E+05
 0.37449997E+02  0.13449E+05
 0.37499996E+02  0.93869E+04
 0.37549999E+02  0.90156E+04
 0.37599998E+02  0.97501E+04
 0.37649998E+02  0.13829E+05
 0.37699997E+02  0.15758E+05
 0.37749996E+02  0.16775E+05
 0.37799999E+02  0.17768E+05
 0.37849998E+02  0.15164E+05
 0.37899998E+02  0.15889E+05
 0.37949997E+02  0.17089E+05
 0.37999996E+02  0.15235E+05
 0.38049999E+02  0.14552E+05
 0.38099998E+02  0.15325E+05
 0.38149998E+02  0.11285E+05
 0.38199997E+02  0.56907E+04
 0.38249996E+02  0.41428E+04
 0.38299999E+02  0.41295E+04
 0.38349998E+02  0.66068E+04
 0.38399998E+02  0.98318E+04
 0.38449997E+02  0.17636E+05
 0.38499996E+02  0.19346E+05
 0.38549999E+02  0.18040E+05
 0.38599998E+02  0.19306E+05
 0.38649998E+02  0.15771E+05
 0.38699997E+02  0.13275E+05
 0.38749996E+02  0.12888E+05
 0.38799999E+02  0.14837E+05
 0.38849998E+02  0.13942E+05
 0.38899998E+02  0.14025E+05
 0.38949997E+02  0.12777E+05
 0.38999996E+02  0.11991E+05
 0.39049999E+02  0.11682E+05
 0.39099998E+02  0.87549E+04
 0.39149998E+02  0.97401E+04
 0.39199997E+02  0.10062E+05
 0.39249996E+02  0.96862E+04
 0.39299999E+02  0.12416E+05
 0.39349998E+02  0.16957E+05
 0.39399998E+02  0.18508E+05
 0.39449997E+02  0.19454E+05
 0.39499996E+02  0.17858E+05
 0.39549999E+02  0.15017E+05
 0.39599998E+02  0.14511E+05
 0.39649998E+02  0.13585E+05
 0.39699997E+02  0.12994E+05
 0.39749996E+02  0.99621E+04
 0.39799999E+02  0.89611E+04
 0.39849998E+02  0.12536E+05
 0.39899998E+02  0.12445E+05
 0.39949997E+02  0.11072E+05
 0.39999996E+02  0.10730E+05
 0.40049999E+02  0.10218E+05
 0.40099998E+02  0.10993E+05
 0.40149998E+02  0.12379E+05
 0.40199997E+02  0.12403E+05
 0.40249996E+02  0.10875E+05
 0.40299999E+02  0.13810E+05
 0.40349998E+02  0.17399E+05
 0.40399998E+02  0.18058E+05
 0.40449997E+02  0.17539E+05
 0.40499996E+02  0.17859E+05
 0.40549999E+02  0.17751E+05
 0.40599998E+02  0.15407E+05
 0.40649998E+02  0.12862E+05
 0.40699997E+02  0.10932E+05
 0.40749996E+02  0.90746E+04
 0.40799999E+02  0.72184E+04
 0.40849998E+02  0.75480E+04
 0.40899998E+02  0.10013E+05
 0.40949997E+02  0.11963E+05
 0.40999996E+02  0.12899E+05
 0.41049999E+02  0.15141E+05
 0.41099998E+02  0.16919E+05
 0.41149998E+02  0.17401E+05
 0.41199997E+02  0.15371E+05
 0.41249996E+02  0.11076E+05
 0.41299999E+02  0.97225E+04
 0.41349998E+02  0.94550E+04
 0.41399998E+02  0.11647E+05
 0.41449997E+02  0.14074E+05
 0.41499996E+02  0.12835E+05
 0.41549999E+02  0.14828E+05
 0.41599998E+02  0.14993E+05
 0.41649998E+02  0.12689E+05
 0.41699997E+02  0.11646E+05
 0.41749996E+02  0.10730E+05
 0.41799999E+02  0.93058E+04
 0.41849998E+02  0.93243E+04
 0.41899998E+02  0.10267E+05
 0.41949997E+02  0.94496E+04
 0.41999996E+02  0.10971E+05
 0.42049999E+02  0.16060E+05
 0.42099998E+02  0.17690E+05
 0.42149998E+02  0.15201E+05
 0.42199997E+02  0.15575E+05
 0.42249996E+02  0.16202E+05
 0.42299999E+02  0.17009E+05
 0.42349998E+02  0.17215E+05
 0.42399998E+02  0.14791E+05
 0.42449997E+02  0.14248E+05
 0.42499996E+02  0.14728E+05
 0.42549999E+02  0.13092E+05
 0.42599998E+02  0.12165E+05
 0.42649998E+02  0.11165E+05
 0.42699997E+02  0.10071E+05
 0.42749996E+02  0.10518E+05
 0.42799995E+02  0.99837E+04
 0.42849998E+02  0.11864E+05
 0.42899998E+02  0.13111E+05
 0.42949997E+02  0.11455E+05
 0.42999996E+02  0.11531E+05
 0.43049995E+02  0.10382E+05
 0.43099998E+02  0.87315E+04
 0.43149998E+02  0.12603E+05
 0.43199997E+02  0.15477E+05
 0.43249996E+02  0.13763E+05
 0.43299995E+02  0.15334E+05
 0.43349998E+02  0.16480E+05
 0.43399998E+02  0.16981E+05
 0.43449997E+02  0.17390E+05
 0.43499996E+02  0.15857E+05
 0.43549995E+02  0.12639E+05
 0.43599998E+02  0.94104E+04
 0.43649998E+02  0.10436E+05
 0.43699997E+02  0.10442E+05
 0.43749996E+02  0.10107E+05
 0.43799995E+02  0.12553E+05
 0.43849998E+02  0.14716E+05
 0.43899998E+02  0.15281E+05
 0.43949997E+02  0.15327E+05
 0.43999996E+02  0.16878E+05
 0.44049995E+02  0.15816E+05
 0.44099998E+02  0.11677E+05
 0.44149998E+02  0.11368E+05
 0.44199997E+02  0.14145E+05
 0.44249996E+02  0.14917E+05
 0.44299995E+02  0.14881E+05
 0.44349998E+02  0.15345E+05
 0.44399998E+02  0.13708E+05
 0.44449997E+02  0.11014E+05
 0.44499996E+02  0.11237E+05
 0.44549995E+02  0.12938E+05
 0.44599998E+02  0.13509E+05
 0.44649998E+02  0.12849E+05
 0.44699997E+02  0.11658E+05
 0.44749996E+02  0.12140E+05
 0.44799995E+02  0.10849E+05
 0.44849998E+02  0.11547E+05
 0.44899998E+02  0.14807E+05
 0.44949997E+02  0.14870E+05
 0.44999996E+02  0.15772E+05
 0.45049995E+02  0.14826E+05
 0.45099998E+02  0.13748E+05
 0.45149998E+02  0.13433E+05
 0.45199997E+02  0.11897E+05
 0.45249996E+02  0.10422E+05
 0.45299995E+02  0.91822E+04
 0.45349998E+02  0.10676E+05
 0.45399998E+02  0.11269E+05
 0.45449997E+02  0.10391E+05
 0.45499996E+02  0.11269E+05
 0.45549995E+02  0.12509E+05
 0.45599998E+02  0.12917E+05
 0.45649998E+02  0.14975E+05
 0.45699997E+02  0.15522E+05
 0.45749996E+02  0.15074E+05
 0.45799995E+02  0.15680E+05
 0.45849998E+02  0.15100E+05
 0.45899998E+02  0.12422E+05
 0.45949997E+02  0.10284E+05
 0.45999996E+02  0.11558E+05
 0.46049995E+02  0.13045E+05
 0.46099998E+02  0.14222E+05
 0.46149998E+02  0.15190E+05
 0.46199997E+02  0.14817E+05
 0.46249996E+02  0.14065E+05
 0.46299995E+02  0.13418E+05
 0.46349998E+02  0.10631E+05
 0.46399998E+02  0.83286E+04
 0.46449997E+02  0.88679E+04
 0.46499996E+02  0.10966E+05
 0.46549995E+02  0.12179E+05
 0.46599998E+02  0.14715E+05
 0.46649998E+02  0.18192E+05
 0.46699997E+02  0.17660E+05
 0.46749996E+02  0.16294E+05
 0.46799995E+02  0.13958E+05
 0.46849998E+02  0.12283E+05
 0.46899998E+02  0.12041E+05
 0.46949997E+02  0.10720E+05
 0.46999996E+02  0.10248E+05
 0.47049995E+02  0.10649E+05
 0.47099998E+02  0.11089E+05
 0.47149998E+02  0.12161E+05
 0.47199997E+02  0.14887E+05
 0.47249996E+02  0.15497E+05
 0.47299995E+02  0.13756E+05
 0.47349998E+02  0.14308E+05
 0.47399998E+02  0.14158E+05
 0.47449997E+02  0.12309E+05
 0.47499996E+02  0.11532E+05
 0.47549995E+02  0.13128E+05
 0.47599998E+02  0.13971E+05
 0.47649998E+02  0.13535E+05
 0.47699997E+02  0.13637E+05
 0.47749996E+02  0.13161E+05
 0.47799995E+02  0.14131E+05
 0.47849998E+02  0.14794E+05
 0.47899998E+02  0.14130E+05
 0.47949997E+02  0.14232E+05
 0.47999996E+02  0.13858E+05
 0.48049995E+02  0.13060E+05
 0.48099998E+02  0.12723E+05
 0.48149998E+02  0.13215E+05
 0.48199997E+02  0.14237E+05
 0.48249996E+02  0.13793E+05
 0.48299995E+02  0.12732E+05
 0.48349998E+02  0.11587E+05
 0.48399998E+02  0.10600E+05
 0.48449997E+02  0.10619E+05
 0.48499996E+02  0.12963E+05
 0.48549995E+02  0.14558E+05
 0.48599998E+02  0.14714E+05
 0.48649998E+02  0.16132E+05
 0.48699997E+02  0.15552E+05
 0.48749996E+02  0.13473E+05
 0.48799995E+02  0.11377E+05
 0.48849998E+02  0.98969E+04
 0.48899998E+02  0.10074E+05
 0.48949997E+02  0.10859E+05
 0.48999996E+02  0.11488E+05
 0.49049995E+02  0.11508E+05
 0.49099998E+02  0.12344E+05
 0.49149998E+02  0.13349E+05
 0.49199997E+02  0.13488E+05
 0.49249996E+02  0.14076E+05
 0.49299995E+02  0.15005E+05
 0.49349998E+02  0.14672E+05
 0.49399998E+02  0.14765E+05
 0.49449997E+02  0.15719E+05
 0.49499996E+02  0.14386E+05
 0.49549995E+02  0.12927E+05
 0.49599998E+02  0.12710E+05
 0.49649998E+02  0.11937E+05
 0.49699997E+02  0.12118E+05
 0.49749996E+02  0.12762E+05
 0.49799995E+02  0.12610E+05
 0.49849998E+02  0.12970E+05
 0.49899998E+02  0.14084E+05
 0.49949997E+02  0.14409E+05
 0.49999996E+02  0.14103E+05
 0.50049995E+02  0.13967E+05
 0.50099998E+02  0.13198E+05
 0.50149998E+02  0.12130E+05
 0.50199997E+02  0.11680E+05
 0.50249996E+02  0.12039E+05
 0.50299995E+02  0.10595E+05
 0.50349998E+02  0.86854E+04
 0.50399998E+02  0.87902E+04
 0.50449997E+02  0.10347E+05
 0.50499996E+02  0.10063E+05
 0.50549995E+02  0.10811E+05
 0.50599998E+02  0.12864E+05
 0.50649998E+02  0.13804E+05
 0.50699997E+02  0.15318E+05
 0.50749996E+02  0.16003E+05
 0.50799995E+02  0.17108E+05
 0.50849998E+02  0.17609E+05
 0.50899998E+02  0.17081E+05
 0.50949997E+02  0.15998E+05
 0.50999996E+02  0.14796E+05
 0.51049995E+02  0.12872E+05
 0.51099998E+02  0.11973E+05
 0.51149998E+02  0.11785E+05
 0.51199997E+02  0.12237E+05
 0.51249996E+02  0.13740E+05
 0.51299995E+02  0.14810E+05
 0.51349998E+02  0.15150E+05
 0.51399998E+02  0.14073E+05
 0.51449997E+02  0.14015E+05
 0.51499996E+02  0.13108E+05
 0.51549995E+02  0.11092E+05
 0.51599998E+02  0.10120E+05
 0.51649998E+02  0.96998E+04
 0.51699997E+02  0.10475E+05
 0.51749996E+02  0.12064E+05
 0.51799995E+02  0.13537E+05
 0.51849998E+02  0.13387E+05
 0.51899998E+02  0.13850E+05
 0.51949997E+02  0.14284E+05
 0.51999996E+02  0.13838E+05
 0.52049995E+02  0.14236E+05
 0.52099998E+02  0.13987E+05
 0.52149998E+02  0.14119E+05
 0.52199997E+02  0.13852E+05
 0.52249996E+02  0.14116E+05
 0.52299995E+02  0.14672E+05
 0.52349998E+02  0.14956E+05
 0.52399998E+02  0.13408E+05
 0.52449997E+02  0.12163E+05
 0.52499996E+02  0.12881E+05
 0.52549995E+02  0.11441E+05
 0.52599998E+02  0.10440E+05
 0.52649998E+02  0.11046E+05
 0.52699997E+02  0.11607E+05
 0.52749996E+02  0.12069E+05
 0.52799995E+02  0.13187E+05
 0.52849998E+02  0.14388E+05
 0.52899998E+02  0.14112E+05
 0.52949997E+02  0.13125E+05
 0.52999996E+02  0.12559E+05
 0.53049995E+02  0.12218E+05
 0.53099998E+02  0.12789E+05
 0.53149998E+02  0.13532E+05
 0.53199997E+02  0.12604E+05
 0.53249996E+02  0.13258E+05
 0.53299995E+02  0.14192E+05
 0.53349998E+02  0.12362E+05
 0.53399998E+02  0.11345E+05
 0.53449997E+02  0.12186E+05
 0.53499996E+02  0.12263E+05
 0.53549995E+02  0.11216E+05
 0.53599998E+02  0.12874E+05
 0.53649998E+02  0.14601E+05
 0.53699997E+02  0.14701E+05
 0.53749996E+02  0.14093E+05
 0.53799995E+02  0.13607E+05
 0.53849998E+02  0.13679E+05
 0.53899998E+02  0.13056E+05
 0.53949997E+02  0.13274E+05
 0.53999996E+02  0.12311E+05
 0.54049995E+02  0.11296E+05
 0.54099998E+02  0.10961E+05
 0.54149998E+02  0.11658E+05
 0.54199997E+02  0.13468E+05
 0.54249996E+02  0.14241E+05
 0.54299995E+02  0.15190E+05
 0.54349998E+02  0.16287E+05
 0.54399998E+02  0.15813E+05
 0.54449997E+02  0.14742E+05
 0.54499996E+02  0.13942E+05
 0.54549995E+02  0.12961E+05
 0.54599998E+02  0.12869E+05
 0.54649998E+02  0.12926E+05
 0.54699997E+02  0.11434E+05
 0.54749996E+02  0.10786E+05
 0.54799995E+02  0.11283E+05
 0.54849998E+02  0.10126E+05
 0.54899998E+02  0.11045E+05
 0.54949997E+02  0.13251E+05
 0.54999996E+02  0.13901E+05
 0.55049995E+02  0.15536E+05
 0.55099998E+02  0.15867E+05
 0.55149998E+02  0.14617E+05
 0.55199997E+02  0.14884E+05
 0.55249996E+02  0.13962E+05
 0.55299995E+02  0.12538E+05
 0.55349998E+02  0.12027E+05
 0.55399998E+02  0.11290E+05
 0.55449997E+02  0.11736E+05
 0.55499996E+02  0.13226E+05
 0.55549995E+02  0.14458E+05
 0.55599998E+02  0.14028E+05
 0.55649998E+02  0.12891E+05
 0.55699997E+02  0.12427E+05
 0.55749996E+02  0.12991E+05
 0.55799995E+02  0.13666E+05
 0.55849995E+02  0.13114E+05
 0.55899998E+02  0.12264E+05
 0.55949997E+02  0.11965E+05
 0.55999996E+02  0.12453E+05
 0.56049995E+02  0.12830E+05
 0.56099995E+02  0.12875E+05
 0.56149998E+02  0.12717E+05
 0.56199997E+02  0.11788E+05
 0.56249996E+02  0.12028E+05
 0.56299995E+02  0.13549E+05
 0.56349995E+02  0.14914E+05
 0.56399998E+02  0.15641E+05
 0.56449997E+02  0.14627E+05
 0.56499996E+02  0.12983E+05
 0.56549995E+02  0.12244E+05
 0.56599995E+02  0.11860E+05
 0.56649998E+02  0.12902E+05
 0.56699997E+02  0.13714E+05
 0.56749996E+02  0.13416E+05
 0.56799995E+02  0.13795E+05
 0.56849995E+02  0.13787E+05
 0.56899998E+02  0.14050E+05
 0.56949997E+02  0.13963E+05
 0.56999996E+02  0.13224E+05
 0.57049995E+02  0.12585E+05
 0.57099995E+02  0.12437E+05
 0.57149998E+02  0.12724E+05
 0.57199997E+02  0.12314E+05
 0.57249996E+02  0.11552E+05
 0.57299995E+02  0.11505E+05
 0.57349995E+02  0.11660E+05
 0.57399998E+02  0.11321E+05
 0.57449997E+02  0.11663E+05
 0.57499996E+02  0.12351E+05
 0.57549995E+02  0.13684E+05
 0.57599995E+02  0.14487E+05
 0.57649998E+02  0.14031E+05
 0.57699997E+02  0.13577E+05
 0.57749996E+02  0.13581E+05
 0.57799995E+02  0.13215E+05
 0.57849995E+02  0.12696E+05
 0.57899998E+02  0.13253E+05
 0.57949997E+02  0.13150E+05
 0.57999996E+02  0.12655E+05
 0.58049995E+02  0.13053E+05
 0.58099995E+02  0.13769E+05
 0.58149998E+02  0.13670E+05
 0.58199997E+02  0.13881E+05
 0.58249996E+02  0.14264E+05
 0.58299995E+02  0.14243E+05
 0.58349995E+02  0.14623E+05
 0.58399998E+02  0.14541E+05
 0.58449997E+02  0.14160E+05
 0.58499996E+02  0.13564E+05
 0.58549995E+02  0.13204E+05
 0.58599995E+02  0.12566E+05
 0.58649998E+02  0.11489E+05
 0.58699997E+02  0.10516E+05
 0.58749996E+02  0.10099E+05
 0.58799995E+02  0.10902E+05
 0.58849995E+02  0.11803E+05
 0.58899998E+02  0.12991E+05
 0.58949997E+02  0.14864E+05
 0.58999996E+02  0.15628E+05
 0.59049995E+02  0.15512E+05
 0.59099995E+02  0.15288E+05
 0.59149998E+02  0.14491E+05
 0.59199997E+02  0.13900E+05
 0.59249996E+02  0.13952E+05
 0.59299995E+02  0.13964E+05
 0.59349995E+02  0.13071E+05
 0.59399998E+02  0.11851E+05
 0.59449997E+02  0.11137E+05
 0.59499996E+02  0.10727E+05
 0.59549995E+02  0.10399E+05
 0.59599995E+02  0.10106E+05
 0.59649998E+02  0.10063E+05
 0.59699997E+02  0.10796E+05
 0.59749996E+02  0.11395E+05
 0.59799995E+02  0.12295E+05
 0.59849995E+02  0.13338E+05
 0.59899998E+02  0.13867E+05
 0.59949997E+02  0.14852E+05
 0.59999996E+02  0.15594E+05
 0.60049995E+02  0.15909E+05
 0.60099995E+02  0.15751E+05
 0.60149998E+02  0.15113E+05
 0.60199997E+02  0.14241E+05
 0.60249996E+02  0.13302E+05
 0.60299995E+02  0.13095E+05
 0.60349995E+02  0.13236E+05
 0.60399998E+02  0.13198E+05
 0.60449997E+02  0.12923E+05
 0.60499996E+02  0.12141E+05
 0.60549995E+02  0.11924E+05
 0.60599995E+02  0.12458E+05
 0.60649998E+02  0.12472E+05
 0.60699997E+02  0.12595E+05
 0.60749996E+02  0.12681E+05
 0.60799995E+02  0.12020E+05
 0.60849995E+02  0.11876E+05
 0.60899998E+02  0.11904E+05
 0.60949997E+02  0.12071E+05
 0.60999996E+02  0.13804E+05
 0.61049995E+02  0.15591E+05
 0.61099995E+02  0.15925E+05
 0.61149998E+02  0.16057E+05
 0.61199997E+02  0.15535E+05
 0.61249996E+02  0.14656E+05
 0.61299995E+02  0.14247E+05
 0.61349995E+02  0.13513E+05
 0.61399998E+02  0.12563E+05
 0.61449997E+02  0.12313E+05
 0.61499996E+02  0.12205E+05
 0.61549995E+02  0.11948E+05
 0.61599995E+02  0.12071E+05
 0.61649998E+02  0.12431E+05
 0.61699997E+02  0.12637E+05
 0.61749996E+02  0.12397E+05
 0.61799995E+02  0.12708E+05
 0.61849995E+02  0.12769E+05
 0.61899998E+02  0.12413E+05
 0.61949997E+02  0.12589E+05
 0.61999996E+02  0.12389E+05
 0.62049995E+02  0.12274E+05
 0.62099998E+02  0.12886E+05
 0.62149994E+02  0.13172E+05
 0.62199997E+02  0.13077E+05
 0.62249992E+02  0.12921E+05
 0.62299995E+02  0.13014E+05
 0.62349998E+02  0.12832E+05
 0.62399994E+02  0.12474E+05
 0.62449997E+02  0.12649E+05
 0.62499992E+02  0.13236E+05
 0.62549995E+02  0.13986E+05
 0.62599998E+02  0.14512E+05
 0.62649994E+02  0.14548E+05
 0.62699997E+02  0.14156E+05
 0.62749992E+02  0.13511E+05
 0.62799995E+02  0.12841E+05
 0.62849998E+02  0.12522E+05
 0.62899994E+02  0.12513E+05
 0.62949997E+02  0.12507E+05
 0.62999992E+02  0.12619E+05
 0.63049995E+02  0.13137E+05
 0.63099998E+02  0.13379E+05
 0.63149994E+02  0.13117E+05
 0.63199997E+02  0.12248E+05
 0.63249992E+02  0.11653E+05
 0.63299995E+02  0.11876E+05
 0.63349998E+02  0.11991E+05
 0.63399994E+02  0.12149E+05
 0.63449997E+02  0.13086E+05
 0.63499992E+02  0.13753E+05
 0.63549995E+02  0.13726E+05
 0.63599998E+02  0.13841E+05
 0.63649994E+02  0.13528E+05
 0.63699997E+02  0.13336E+05
 0.63749992E+02  0.13368E+05
 0.63799995E+02  0.13634E+05
 0.63849998E+02  0.13717E+05
 0.63899994E+02  0.13379E+05
 0.63949997E+02  0.13128E+05
 0.63999992E+02  0.12811E+05
 0.64049995E+02  0.13268E+05
 0.64099998E+02  0.13294E+05
 0.64149994E+02  0.13208E+05
 0.64199997E+02  0.13380E+05
 0.64249992E+02  0.12898E+05
 0.64299995E+02  0.12440E+05
 0.64349998E+02  0.12778E+05
 0.64399994E+02  0.13300E+05
 0.64449997E+02  0.13542E+05
 0.64499992E+02  0.13768E+05
 0.64549995E+02  0.13519E+05
 0.64599998E+02  0.13382E+05
 0.64649994E+02  0.13002E+05
 0.64699997E+02  0.12603E+05
 0.64749992E+02  0.12594E+05
 0.64799995E+02  0.12869E+05
 0.64849998E+02  0.13129E+05
 0.64899994E+02  0.13382E+05
 0.64949997E+02  0.13476E+05
 0.64999992E+02  0.13302E+05
 0.65049995E+02  0.13067E+05
 0.65099998E+02  0.12524E+05
 0.65149994E+02  0.12714E+05
 0.65199997E+02  0.12790E+05
 0.65249992E+02  0.12630E+05
 0.65299995E+02  0.13333E+05
 0.65349998E+02  0.13599E+05
 0.65399994E+02  0.13450E+05
 0.65449997E+02  0.13677E+05
 0.65499992E+02  0.13418E+05
 0.65549995E+02  0.12806E+05
 0.65599998E+02  0.12098E+05
 0.65649994E+02  0.11686E+05
 0.65699997E+02  0.11778E+05
 0.65749992E+02  0.11961E+05
 0.65799995E+02  0.12785E+05
 0.65849998E+02  0.13585E+05
 0.65899994E+02  0.13622E+05
 0.65949997E+02  0.13344E+05
 0.65999992E+02  0.13285E+05
 0.66049995E+02  0.13451E+05
 0.66099998E+02  0.13816E+05
 0.66149994E+02  0.14136E+05
 0.66199997E+02  0.14267E+05
 0.66249992E+02  0.14419E+05
 0.66299995E+02  0.14522E+05
 0.66349998E+02  0.14230E+05
 0.66399994E+02  0.13793E+05
 0.66449997E+02  0.13458E+05
 0.66499992E+02  0.12445E+05
 0.66549995E+02  0.11378E+05
 0.66599998E+02  0.10914E+05
 0.66649994E+02  0.10811E+05
 0.66699997E+02  0.10859E+05
 0.66749992E+02  0.11930E+05
 0.66799995E+02  0.13414E+05
 0.66849998E+02  0.14156E+05
 0.66899994E+02  0.14662E+05
 0.66949997E+02  0.14876E+05
 0.66999992E+02  0.14436E+05
 0.67049995E+02  0.13636E+05
 0.67099998E+02  0.14047E+05
 0.67149994E+02  0.14394E+05
 0.67199997E+02  0.13874E+05
 0.67249992E+02  0.13445E+05
 0.67299995E+02  0.12466E+05
 0.67349998E+02  0.11331E+05
 0.67399994E+02  0.10318E+05
 0.67449997E+02  0.98490E+04
 0.67499992E+02  0.10105E+05
 0.67549995E+02  0.10616E+05
 0.67599998E+02  0.11449E+05
 0.67649994E+02  0.12700E+05
 0.67699997E+02  0.13972E+05
 0.67749992E+02  0.15092E+05
 0.67799995E+02  0.16190E+05
 0.67849998E+02  0.16953E+05
 0.67899994E+02  0.16886E+05
 0.67949997E+02  0.15922E+05
 0.67999992E+02  0.14895E+05
 0.68049995E+02  0.13759E+05
 0.68099998E+02  0.12755E+05
 0.68149994E+02  0.12039E+05
 0.68199997E+02  0.11510E+05
 0.68249992E+02  0.11453E+05
 0.68299995E+02  0.11549E+05
 0.68349998E+02  0.11731E+05
 0.68399994E+02  0.12165E+05
 0.68449997E+02  0.12587E+05
 0.68499992E+02  0.12867E+05
 0.68549995E+02  0.12998E+05
 0.68599998E+02  0.12887E+05
 0.68649994E+02  0.12996E+05
 0.68699997E+02  0.13118E+05
 0.68749992E+02  0.13130E+05
 0.68799995E+02  0.13741E+05
 0.68849998E+02  0.14329E+05
 0.68899994E+02  0.14221E+05
 0.68949997E+02  0.14044E+05
 0.68999992E+02  0.14106E+05
 0.69049995E+02  0.13725E+05
 0.69099998E+02  0.12740E+05
 0.69149994E+02  0.12139E+05
 0.69199997E+02  0.11800E+05
 0.69249992E+02  0.11807E+05
 0.69299995E+02  0.11880E+05
 0.69349998E+02  0.11751E+05
 0.69399994E+02  0.12100E+05
 0.69449997E+02  0.12427E+05
 0.69499992E+02  0.12642E+05
 0.69549995E+02  0.13113E+05
 0.69599998E+02  0.13384E+05
 0.69649994E+02  0.13591E+05
 0.69699997E+02  0.14131E+05
 0.69749992E+02  0.14595E+05
 0.69799995E+02  0.15018E+05
 0.69849998E+02  0.14878E+05
 0.69899994E+02  0.14383E+05
 0.69949997E+02  0.13613E+05
 0.69999992E+02  0.12996E+05
 0.70049995E+02  0.12918E+05
 0.70099998E+02  0.12378E+05
 0.70149994E+02  0.11923E+05
 0.70199997E+02  0.11840E+05
 0.70249992E+02  0.12077E+05
 0.70299995E+02  0.12009E+05
 0.70349998E+02  0.11865E+05
 0.70399994E+02  0.11901E+05
 0.70449997E+02  0.11687E+05
 0.70499992E+02  0.11984E+05
 0.70549995E+02  0.12558E+05
 0.70599998E+02  0.13178E+05
 0.70649994E+02  0.13977E+05
 0.70699997E+02  0.14703E+05
 0.70749992E+02  0.14676E+05
 0.70799995E+02  0.14103E+05
 0.70849998E+02  0.13703E+05
 0.70899994E+02  0.13260E+05
 0.70949997E+02  0.12693E+05
 0.70999992E+02  0.12584E+05
 0.71049995E+02  0.12832E+05
 0.71099998E+02  0.12812E+05
 0.71149994E+02  0.12857E+05
 0.71199997E+02  0.13290E+05
 0.71249992E+02  0.13656E+05
 0.71299995E+02  0.13642E+05
 0.71349998E+02  0.13547E+05
 0.71399994E+02  0.13166E+05
 0.71449997E+02  0.13000E+05
 0.71499992E+02  0.13206E+05
 0.71549995E+02  0.13254E+05
 0.71599998E+02  0.13101E+05
 0.71649994E+02  0.12928E+05
 0.71699997E+02  0.13210E+05
 0.71749992E+02  0.13198E+05
 0.71799995E+02  0.12516E+05
 0.71849998E+02  0.12156E+05
 0.71899994E+02  0.12321E+05
 0.71949997E+02  0.12435E+05
 0.71999992E+02  0.12591E+05
 0.72049995E+02  0.13036E+05
 0.72099998E+02  0.13494E+05
 0.72149994E+02  0.13605E+05
 0.72199997E+02  0.13359E+05
 0.72249992E+02  0.13281E+05
 0.72299995E+02  0.13463E+05
 0.72349998E+02  0.13349E+05
 0.72399994E+02  0.13285E+05
 0.72449997E+02  0.13678E+05
 0.72499992E+02  0.13931E+05
 0.72549995E+02  0.13832E+05
 0.72599998E+02  0.13349E+05
 0.72649994E+02  0.12659E+05
 0.72699997E+02  0.12369E+05
 0.72749992E+02  0.12781E+05
 0.72799995E+02  0.13072E+05
 0.72849998E+02  0.13270E+05
 0.72899994E+02  0.13662E+05
 0.72949997E+02  0.13556E+05
 0.72999992E+02  0.13470E+05
 0.73049995E+02  0.13254E+05
 0.73099998E+02  0.13005E+05
 0.73149994E+02  0.12878E+05
 0.73199997E+02  0.12675E+05
 0.73249992E+02  0.12947E+05
 0.73299995E+02  0.13318E+05
 0.73349998E+02  0.13463E+05
 0.73399994E+02  0.13332E+05
 0.73449997E+02  0.13100E+05
 0.73499992E+02  0.12750E+05
 0.73549995E+02  0.12265E+05
 0.73599998E+02  0.12077E+05
 0.73649994E+02  0.12203E+05
 0.73699997E+02  0.12183E+05
 0.73749992E+02  0.12361E+05
 0.73799995E+02  0.13107E+05
 0.73849998E+02  0.13694E+05
 0.73899994E+02  0.14154E+05
 0.73949997E+02  0.14589E+05
 0.73999992E+02  0.14671E+05
 0.74049995E+02  0.14596E+05
 0.74099998E+02  0.14379E+05
 0.74149994E+02  0.13897E+05
 0.74199997E+02  0.13030E+05
 0.74249992E+02  0.12147E+05
 0.74299995E+02  0.11658E+05
 0.74349998E+02  0.11662E+05
 0.74399994E+02  0.12117E+05
 0.74449997E+02  0.12636E+05
 0.74499992E+02  0.13270E+05
 0.74549995E+02  0.13590E+05
 0.74599998E+02  0.13530E+05
 0.74649994E+02  0.13544E+05
 0.74699997E+02  0.13491E+05
 0.74749992E+02  0.13486E+05
 0.74799995E+02  0.13530E+05
 0.74849998E+02  0.13257E+05
 0.74899994E+02  0.12935E+05
 0.74949997E+02  0.12619E+05
 0.74999992E+02  0.12170E+05
 0.75049995E+02  0.12140E+05
 0.75099998E+02  0.12261E+05
 0.75149994E+02  0.12151E+05
 0.75199997E+02  0.12310E+05
 0.75249992E+02  0.12669E+05
 0.75299995E+02  0.13205E+05
 0.75349998E+02  0.13951E+05
 0.75399994E+02  0.13992E+05
 0.75449997E+02  0.13500E+05
 0.75499992E+02  0.13163E+05
 0.75549995E+02  0.12847E+05
 0.75599998E+02  0.12790E+05
 0.75649994E+02  0.12712E+05
 0.75699997E+02  0.12772E+05
 0.75749992E+02  0.13177E+05
 0.75799995E+02  0.13631E+05
 0.75849998E+02  0.13957E+05
 0.75899994E+02  0.13818E+05
 0.75949997E+02  0.13615E+05
 0.75999992E+02  0.13585E+05
 0.76049995E+02  0.13761E+05
 0.76099998E+02  0.13632E+05
 0.76149994E+02  0.13054E+05
 0.76199997E+02  0.12777E+05
 0.76249992E+02  0.12841E+05
 0.76299995E+02  0.13123E+05
 0.76349998E+02  0.13454E+05
 0.76399994E+02  0.13521E+05
 0.76449997E+02  0.13567E+05
 0.76499992E+02  0.13521E+05
 0.76549995E+02  0.13302E+05
 0.76599998E+02  0.13093E+05
 0.76649994E+02  0.12750E+05
 0.76699997E+02  0.12684E+05
 0.76749992E+02  0.12716E+05
 0.76799995E+02  0.12234E+05
 0.76849998E+02  0.11629E+05
 0.76899994E+02  0.11385E+05
 0.76949997E+02  0.11622E+05
 0.76999992E+02  0.12020E+05
 0.77049995E+02  0.12355E+05
 0.77099998E+02  0.12547E+05
 0.77149994E+02  0.12995E+05
 0.77199997E+02  0.13491E+05
 0.77249992E+02  0.13357E+05
 0.77299995E+02  0.13361E+05
 0.77349998E+02  0.13407E+05
 0.77399994E+02  0.13341E+05
 0.77449997E+02  0.13444E+05
 0.77499992E+02  0.13653E+05
 0.77549995E+02  0.13746E+05
 0.77599998E+02  0.13530E+05
 0.77649994E+02  0.13114E+05
 0.77699997E+02  0.12780E+05
 0.77749992E+02  0.12566E+05
 0.77799995E+02  0.12165E+05
 0.77849998E+02  0.12249E+05
 0.77899994E+02  0.12606E+05
 0.77949997E+02  0.12937E+05
 0.77999992E+02  0.13588E+05
 0.78049995E+02  0.14110E+05
 0.78099998E+02  0.14381E+05
 0.78149994E+02  0.14156E+05
 0.78199997E+02  0.13736E+05
 0.78249992E+02  0.13776E+05
 0.78299995E+02  0.13858E+05
 0.78349998E+02  0.13682E+05
 0.78399994E+02  0.13425E+05
 0.78449997E+02  0.13280E+05
 0.78499992E+02  0.13096E+05
 0.78549995E+02  0.12854E+05
 0.78599998E+02  0.12540E+05
 0.78649994E+02  0.12344E+05
 0.78699997E+02  0.12389E+05
 0.78749992E+02  0.12272E+05
 0.78799995E+02  0.12318E+05
 0.78849998E+02  0.12482E+05
 0.78899994E+02  0.12571E+05
 0.78949997E+02  0.12776E+05
 0.78999992E+02  0.13053E+05
 0.79049995E+02  0.13240E+05
 0.79099998E+02  0.13249E+05
 0.79149994E+02  0.13281E+05
 0.79199997E+02  0.13407E+05
 0.79249992E+02  0.13386E+05
 0.79299995E+02  0.13254E+05
 0.79349998E+02  0.13302E+05
 0.79399994E+02  0.13384E+05
 0.79449997E+02  0.13629E+05
 0.79499992E+02  0.13996E+05
 0.79549995E+02  0.14040E+05
 0.79599998E+02  0.13935E+05
 0.79649994E+02  0.13632E+05
 0.79699997E+02  0.13119E+05
 0.79749992E+02  0.12741E+05
 0.79799995E+02  0.12464E+05
 0.79849998E+02  0.12249E+05
 0.79899994E+02  0.12282E+05
 0.79949997E+02  0.12602E+05
 0.79999992E+02  0.12706E+05
 0.80049995E+02  0.12726E+05
 0.80099998E+02  0.12760E+05
 0.80149994E+02  0.12963E+05
 0.80199997E+02  0.13405E+05
 0.80249992E+02  0.13632E+05
 0.80299995E+02  0.13674E+05
 0.80349998E+02  0.13522E+05
 0.80399994E+02  0.13418E+05
 0.80449997E+02  0.13438E+05
 0.80499992E+02  0.13390E+05
 0.80549995E+02  0.13250E+05
 0.80599998E+02  0.13089E+05
 0.80649994E+02  0.12799E+05
 0.80699997E+02  0.12356E+05
 0.80749992E+02  0.12040E+05
 0.80799995E+02  0.12179E+05
 0.80849998E+02  0.12482E+05
 0.80899994E+02  0.12582E+05
 0.80949997E+02  0.12742E+05
 0.80999992E+02  0.12968E+05
 0.81049995E+02  0.13025E+05
 0.81099998E+02  0.13070E+05
 0.81149994E+02  0.13241E+05
 0.81199997E+02  0.13489E+05
 0.81249992E+02  0.13400E+05
 0.81299995E+02  0.13087E+05
 0.81349998E+02  0.13102E+05
 0.81399994E+02  0.13252E+05
 0.81449997E+02  0.13546E+05
 0.81499992E+02  0.13615E+05
 0.81549995E+02  0.13446E+05
 0.81599998E+02  0.13186E+05
 0.81649994E+02  0.12907E+05
 0.81699997E+02  0.12922E+05
 0.81749992E+02  0.13054E+05
 0.81799995E+02  0.13327E+05
 0.81849998E+02  0.13515E+05
 0.81899994E+02  0.13533E+05
 0.81949997E+02  0.13424E+05
 0.81999992E+02  0.13359E+05
 0.82049995E+02  0.13494E+05
 0.82099998E+02  0.13541E+05
 0.82149994E+02  0.13285E+05
 0.82199997E+02  0.12984E+05
 0.82249992E+02  0.12979E+05
 0.82299995E+02  0.13150E+05
 0.82349998E+02  0.13297E+05
 0.82399994E+02  0.13470E+05
 0.82449997E+02  0.13710E+05
 0.82499992E+02  0.13768E+05
 0.82549995E+02  0.13650E+05
 0.82599998E+02  0.13479E+05
 0.82649994E+02  0.13378E+05
 0.82699997E+02  0.13342E+05
 0.82749992E+02  0.13044E+05
 0.82799995E+02  0.12692E+05
 0.82849998E+02  0.12629E+05
 0.82899994E+02  0.12419E+05
 0.82949997E+02  0.12090E+05
 0.82999992E+02  0.11928E+05
 0.83049995E+02  0.11860E+05
 0.83099998E+02  0.11985E+05
 0.83149994E+02  0.12232E+05
 0.83199997E+02  0.12395E+05
 0.83249992E+02  0.12436E+05
 0.83299995E+02  0.12570E+05
 0.83349998E+02  0.12755E+05
 0.83399994E+02  0.12990E+05
 0.83449997E+02  0.13113E+05
 0.83499992E+02  0.13167E+05
 0.83549995E+02  0.13353E+05
 0.83599998E+02  0.13494E+05
 0.83649994E+02  0.13736E+05
 0.83699997E+02  0.14067E+05
 0.83749992E+02  0.14464E+05
 0.83799995E+02  0.14706E+05
 0.83849998E+02  0.14519E+05
 0.83899994E+02  0.13924E+05
 0.83949997E+02  0.13328E+05
 0.83999992E+02  0.12928E+05
 0.84049995E+02  0.12413E+05
 0.84099998E+02  0.12047E+05
 0.84149994E+02  0.11958E+05
 0.84199997E+02  0.12048E+05
 0.84249992E+02  0.12175E+05
 0.84299995E+02  0.12427E+05
 0.84349998E+02  0.12829E+05
 0.84399994E+02  0.13132E+05
 0.84449997E+02  0.13367E+05
 0.84499992E+02  0.13399E+05
 0.84549995E+02  0.13267E+05
 0.84599998E+02  0.13340E+05
 0.84649994E+02  0.13545E+05
 0.84699997E+02  0.13484E+05
 0.84749992E+02  0.13238E+05
 0.84799995E+02  0.13182E+05
 0.84849998E+02  0.13249E+05
 0.84899994E+02  0.13213E+05
 0.84949997E+02  0.13142E+05
 0.84999992E+02  0.12984E+05
 0.85049995E+02  0.12714E+05
 0.85099998E+02  0.12785E+05
 0.85149994E+02  0.13068E+05
 0.85199997E+02  0.13167E+05
 0.85249992E+02  0.13341E+05
 0.85299995E+02  0.13412E+05
 0.85349998E+02  0.13310E+05
 0.85399994E+02  0.13279E+05
 0.85449997E+02  0.13205E+05
 0.85499992E+02  0.13170E+05
 0.85549995E+02  0.13186E+05
 0.85599998E+02  0.13270E+05
 0.85649994E+02  0.13454E+05
 0.85699997E+02  0.13649E+05
 0.85749992E+02  0.13915E+05
 0.85799995E+02  0.13828E+05
 0.85849998E+02  0.13368E+05
 0.85899994E+02  0.13054E+05
 0.85949997E+02  0.12766E+05
 0.85999992E+02  0.12552E+05
 0.86049995E+02  0.12394E+05
 0.86099998E+02  0.12199E+05
 0.86149994E+02  0.12090E+05
 0.86199997E+02  0.11948E+05
 0.86249992E+02  0.11905E+05
 0.86299995E+02  0.11872E+05
 0.86349998E+02  0.11893E+05
 0.86399994E+02  0.12262E+05
 0.86449997E+02  0.12822E+05
 0.86499992E+02  0.13224E+05
 0.86549995E+02  0.13363E+05
 0.86599998E+02  0.13501E+05
 0.86649994E+02  0.13786E+05
 0.86699997E+02  0.14115E+05
 0.86749992E+02  0.14260E+05
 0.86799995E+02  0.14209E+05
 0.86849998E+02  0.14101E+05
 0.86899994E+02  0.13944E+05
 0.86949997E+02  0.13727E+05
 0.86999992E+02  0.13407E+05
 0.87049995E+02  0.12967E+05
 0.87099998E+02  0.12627E+05
 0.87149994E+02  0.12435E+05
 0.87199997E+02  0.12407E+05
 0.87249992E+02  0.12544E+05
 0.87299995E+02  0.12490E+05
 0.87349998E+02  0.12555E+05
 0.87399994E+02  0.13021E+05
 0.87449997E+02  0.13274E+05
 0.87499992E+02  0.13340E+05
 0.87549995E+02  0.13483E+05
 0.87599991E+02  0.13497E+05
 0.87649994E+02  0.13436E+05
 0.87699997E+02  0.13379E+05
 0.87749992E+02  0.13359E+05
 0.87799995E+02  0.13205E+05
 0.87849991E+02  0.12933E+05
 0.87899994E+02  0.12810E+05
 0.87949997E+02  0.12844E+05
 0.87999992E+02  0.13036E+05
 0.88049995E+02  0.13359E+05
 0.88099991E+02  0.13567E+05
 0.88149994E+02  0.13594E+05
 0.88199997E+02  0.13765E+05
 0.88249992E+02  0.13879E+05
 0.88299995E+02  0.13805E+05
 0.88349991E+02  0.13761E+05
 0.88399994E+02  0.13612E+05
 0.88449997E+02  0.13341E+05
 0.88499992E+02  0.12934E+05
 0.88549995E+02  0.12525E+05
 0.88599991E+02  0.12270E+05
 0.88649994E+02  0.12225E+05
 0.88699997E+02  0.12308E+05
 0.88749992E+02  0.12400E+05
 0.88799995E+02  0.12529E+05
 0.88849991E+02  0.12602E+05
 0.88899994E+02  0.12740E+05
 0.88949997E+02  0.12968E+05
 0.88999992E+02  0.13191E+05
 0.89049995E+02  0.13283E+05
 0.89099991E+02  0.13271E+05
 0.89149994E+02  0.13305E+05
 0.89199997E+02  0.13309E+05
 0.89249992E+02  0.13370E+05
 0.89299995E+02  0.13511E+05
 0.89349991E+02  0.13621E+05
 0.89399994E+02  0.13508E+05
 0.89449997E+02  0.13273E+05
 0.89499992E+02  0.12978E+05
 0.89549995E+02  0.12552E+05
 0.89599991E+02  0.12317E+05
 0.89649994E+02  0.12263E+05
 0.89699997E+02  0.12407E+05
 0.89749992E+02  0.12735E+05
 0.89799995E+02  0.12914E+05
 0.89849991E+02  0.13018E+05
 0.89899994E+02  0.13196E+05
 0.89949997E+02  0.13273E+05
 0.89999992E+02  0.13302E+05
 0.90049995E+02  0.13242E+05
 0.90099991E+02  0.13046E+05
 0.90149994E+02  0.13051E+05
 0.90199997E+02  0.13359E+05
 0.90249992E+02  0.13628E+05
 0.90299995E+02  0.13651E+05
 0.90349991E+02  0.13509E+05
 0.90399994E+02  0.13277E+05
 0.90449997E+02  0.12921E+05
 0.90499992E+02  0.12529E+05
 0.90549995E+02  0.12424E+05
 0.90599991E+02  0.12469E+05
 0.90649994E+02  0.12414E+05
 0.90699997E+02  0.12213E+05
 0.90749992E+02  0.11960E+05
 0.90799995E+02  0.11921E+05
 0.90849991E+02  0.12211E+05
 0.90899994E+02  0.12699E+05
 0.90949997E+02  0.13160E+05
 0.90999992E+02  0.13526E+05
 0.91049995E+02  0.13928E+05
 0.91099991E+02  0.14245E+05
 0.91149994E+02  0.14459E+05
 0.91199997E+02  0.14532E+05
 0.91249992E+02  0.14312E+05
 0.91299995E+02  0.13953E+05
 0.91349991E+02  0.13530E+05
 0.91399994E+02  0.13277E+05
 0.91449997E+02  0.13102E+05
 0.91499992E+02  0.13007E+05
 0.91549995E+02  0.13044E+05
 0.91599991E+02  0.12880E+05
 0.91649994E+02  0.12660E+05
 0.91699997E+02  0.12533E+05
 0.91749992E+02  0.12404E+05
 0.91799995E+02  0.12428E+05
 0.91849991E+02  0.12514E+05
 0.91899994E+02  0.12501E+05
 0.91949997E+02  0.12554E+05
 0.91999992E+02  0.12667E+05
 0.92049995E+02  0.12843E+05
 0.92099991E+02  0.13216E+05
 0.92149994E+02  0.13692E+05
 0.92199997E+02  0.14073E+05
 0.92249992E+02  0.14247E+05
 0.92299995E+02  0.14214E+05
 0.92349991E+02  0.14091E+05
 0.92399994E+02  0.13836E+05
 0.92449997E+02  0.13441E+05
 0.92499992E+02  0.12986E+05
 0.92549995E+02  0.12541E+05
 0.92599991E+02  0.12284E+05
 0.92649994E+02  0.12292E+05
 0.92699997E+02  0.12563E+05
 0.92749992E+02  0.13005E+05
 0.92799995E+02  0.13372E+05
 0.92849991E+02  0.13465E+05
 0.92899994E+02  0.13356E+05
 0.92949997E+02  0.13380E+05
 0.92999992E+02  0.13533E+05
 0.93049995E+02  0.13510E+05
 0.93099991E+02  0.13377E+05
 0.93149994E+02  0.13286E+05
 0.93199997E+02  0.13149E+05
 0.93249992E+02  0.12993E+05
 0.93299995E+02  0.12981E+05
 0.93349991E+02  0.13031E+05
 0.93399994E+02  0.12999E+05
 0.93449997E+02  0.12961E+05
 0.93499992E+02  0.12878E+05
 0.93549995E+02  0.12825E+05
 0.93599991E+02  0.12925E+05
 0.93649994E+02  0.13119E+05
 0.93699997E+02  0.13274E+05
 0.93749992E+02  0.13239E+05
 0.93799995E+02  0.13017E+05
 0.93849991E+02  0.12678E+05
 0.93899994E+02  0.12454E+05
 0.93949997E+02  0.12416E+05
 0.93999992E+02  0.12506E+05
 0.94049995E+02  0.12782E+05
 0.94099991E+02  0.13105E+05
 0.94149994E+02  0.13208E+05
 0.94199997E+02  0.13074E+05
 0.94249992E+02  0.12936E+05
 0.94299995E+02  0.12865E+05
 0.94349991E+02  0.12850E+05
 0.94399994E+02  0.12857E+05
 0.94449997E+02  0.12873E+05
 0.94499992E+02  0.12867E+05
 0.94549995E+02  0.12762E+05
 0.94599991E+02  0.12727E+05
 0.94649994E+02  0.12853E+05
 0.94699997E+02  0.13069E+05
 0.94749992E+02  0.13466E+05
 0.94799995E+02  0.13837E+05
 0.94849991E+02  0.13906E+05
 0.94899994E+02  0.13775E+05
 0.94949997E+02  0.13506E+05
 0.94999992E+02  0.13280E+05
 0.95049995E+02  0.13287E+05
 0.95099991E+02  0.13356E+05
 0.95149994E+02  0.13144E+05
 0.95199997E+02  0.12683E+05
 0.95249992E+02  0.12413E+05
 0.95299995E+02  0.12344E+05
 0.95349991E+02  0.12375E+05
 0.95399994E+02  0.12629E+05
 0.95449997E+02  0.12997E+05
 0.95499992E+02  0.13352E+05
 0.95549995E+02  0.13506E+05
 0.95599991E+02  0.13398E+05
 0.95649994E+02  0.13337E+05
 0.95699997E+02  0.13440E+05
 0.95749992E+02  0.13553E+05
 0.95799995E+02  0.13483E+05
 0.95849991E+02  0.13299E+05
 0.95899994E+02  0.13191E+05
 0.95949997E+02  0.13077E+05
 0.95999992E+02  0.12911E+05
 0.96049995E+02  0.12854E+05
 0.96099991E+02  0.12781E+05
 0.96149994E+02  0.12737E+05
 0.96199997E+02  0.12841E+05
 0.96249992E+02  0.12884E+05
 0.96299995E+02  0.13025E+05
 0.96349991E+02  0.13156E+05
 0.96399994E+02  0.13239E+05
 0.96449997E+02  0.13453E+05
 0.96499992E+02  0.13562E+05
 0.96549995E+02  0.13441E+05
 0.96599991E+02  0.13269E+05
 0.96649994E+02  0.13272E+05
 0.96699997E+02  0.13344E+05
 0.96749992E+02  0.13362E+05
 0.96799995E+02  0.13416E+05
 0.96849991E+02  0.13413E+05
 0.96899994E+02  0.13294E+05
 0.96949997E+02  0.13161E+05
 0.96999992E+02  0.13095E+05
 0.97049995E+02  0.13048E+05
 0.97099991E+02  0.13029E+05
 0.97149994E+02  0.13074E+05
 0.97199997E+02  0.12959E+05
 0.97249992E+02  0.12846E+05
 0.97299995E+02  0.12936E+05
 0.97349991E+02  0.13023E+05
 0.97399994E+02  0.12985E+05
 0.97449997E+02  0.12884E+05
 0.97499992E+02  0.12902E+05
 0.97549995E+02  0.13022E+05
 0.97599991E+02  0.13039E+05
 0.97649994E+02  0.13010E+05
 0.97699997E+02  0.13100E+05
 0.97749992E+02  0.13233E+05
 0.97799995E+02  0.13277E+05
 0.97849991E+02  0.13194E+05
 0.97899994E+02  0.13146E+05
 0.97949997E+02  0.13098E+05
 0.97999992E+02  0.12867E+05
