-0.19969940E+01 -0.22863E+05
-0.19469941E+01 -0.22686E+05
-0.18969940E+01 -0.22664E+05
-0.18469940E+01 -0.22534E+05
-0.17969940E+01 -0.22410E+05
-0.17469940E+01 -0.22261E+05
-0.16969941E+01 -0.22084E+05
-0.16469941E+01 -0.21927E+05
-0.15969940E+01 -0.21807E+05
-0.15469940E+01 -0.21721E+05
-0.14969940E+01 -0.21666E+05
-0.14469941E+01 -0.21663E+05
-0.13969941E+01 -0.21714E+05
-0.13469940E+01 -0.21785E+05
-0.12969941E+01 -0.21884E+05
-0.12469940E+01 -0.22002E+05
-0.11969941E+01 -0.22107E+05
-0.11469941E+01 -0.22190E+05
-0.10969940E+01 -0.22255E+05
-0.10469941E+01 -0.22291E+05
-0.99699408E+00 -0.22295E+05
-0.94699407E+00 -0.22258E+05
-0.89699411E+00 -0.22208E+05
-0.84699404E+00 -0.22137E+05
-0.79699409E+00 -0.22077E+05
-0.74699414E+00 -0.22077E+05
-0.69699407E+00 -0.22103E+05
-0.64699411E+00 -0.22143E+05
-0.59699416E+00 -0.22188E+05
-0.54699409E+00 -0.22247E+05
-0.49699414E+00 -0.22300E+05
-0.44699407E+00 -0.22346E+05
-0.39699411E+00 -0.22399E+05
-0.34699416E+00 -0.22443E+05
-0.29699409E+00 -0.22459E+05
-0.24699414E+00 -0.22450E+05
-0.19699407E+00 -0.22419E+05
-0.14699411E+00 -0.22346E+05
-0.96994162E-01 -0.22231E+05
-0.46994090E-01 -0.22113E+05
 0.30058622E-02 -0.21998E+05
 0.53005934E-01 -0.21898E+05
 0.10300589E+00 -0.21828E+05
 0.15300584E+00 -0.21788E+05
 0.20300579E+00 -0.21770E+05
 0.25300574E+00 -0.21748E+05
 0.30300593E+00 -0.21736E+05
 0.35300589E+00 -0.21741E+05
 0.40300584E+00 -0.21765E+05
 0.45300579E+00 -0.21815E+05
 0.50300574E+00 -0.21887E+05
 0.55300593E+00 -0.21967E+05
 0.60300589E+00 -0.22036E+05
 0.65300584E+00 -0.22103E+05
 0.70300579E+00 -0.22168E+05
 0.75300574E+00 -0.22214E+05
 0.80300570E+00 -0.22249E+05
 0.85300589E+00 -0.22278E+05
 0.90300584E+00 -0.22293E+05
 0.95300579E+00 -0.22305E+05
 0.10030057E+01 -0.22333E+05
 0.10530057E+01 -0.22397E+05
 0.11030059E+01 -0.22478E+05
 0.11530058E+01 -0.22534E+05
 0.12030058E+01 -0.22595E+05
 0.12530057E+01 -0.22664E+05
 0.13030057E+01 -0.22707E+05
 0.13530059E+01 -0.22729E+05
 0.14030058E+01 -0.22738E+05
 0.14530058E+01 -0.22743E+05
 0.15030057E+01 -0.22726E+05
 0.15530057E+01 -0.22685E+05
 0.16030059E+01 -0.22629E+05
 0.16530058E+01 -0.22556E+05
 0.17030058E+01 -0.22469E+05
 0.17530057E+01 -0.22395E+05
 0.18030057E+01 -0.22342E+05
 0.18530056E+01 -0.22288E+05
 0.19030058E+01 -0.22221E+05
 0.19530058E+01 -0.22146E+05
 0.20030057E+01 -0.22060E+05
 0.20530057E+01 -0.21972E+05
 0.21030059E+01 -0.21892E+05
 0.21530056E+01 -0.21819E+05
 0.22030058E+01 -0.21763E+05
 0.22530055E+01 -0.21735E+05
 0.23030057E+01 -0.21739E+05
 0.23530059E+01 -0.21735E+05
 0.24030056E+01 -0.21740E+05
 0.24530058E+01 -0.21768E+05
 0.25030055E+01 -0.21815E+05
 0.25530057E+01 -0.21889E+05
 0.26030059E+01 -0.21963E+05
 0.26530056E+01 -0.22043E+05
 0.27030058E+01 -0.22111E+05
 0.27530055E+01 -0.22169E+05
 0.28030057E+01 -0.22229E+05
 0.28530059E+01 -0.22272E+05
 0.29030056E+01 -0.22289E+05
 0.29530058E+01 -0.22284E+05
 0.30030055E+01 -0.22266E+05
 0.30530057E+01 -0.22218E+05
 0.31030059E+01 -0.22148E+05
 0.31530056E+01 -0.22079E+05
 0.32030058E+01 -0.22050E+05
 0.32530055E+01 -0.22057E+05
 0.33030057E+01 -0.22072E+05
 0.33530059E+01 -0.22106E+05
 0.34030056E+01 -0.22165E+05
 0.34530058E+01 -0.22233E+05
 0.35030055E+01 -0.22299E+05
 0.35530057E+01 -0.22341E+05
 0.36030054E+01 -0.22371E+05
 0.36530056E+01 -0.22379E+05
 0.37030058E+01 -0.22372E+05
 0.37530055E+01 -0.22362E+05
 0.38030057E+01 -0.22359E+05
 0.38530054E+01 -0.22383E+05
 0.39030056E+01 -0.22417E+05
 0.39530058E+01 -0.22434E+05
 0.40030055E+01 -0.22422E+05
 0.40530057E+01 -0.22411E+05
 0.41030054E+01 -0.22387E+05
 0.41530056E+01 -0.22347E+05
 0.42030058E+01 -0.22278E+05
 0.42530055E+01 -0.22187E+05
 0.43030057E+01 -0.22103E+05
 0.43530054E+01 -0.22047E+05
 0.44030056E+01 -0.22006E+05
 0.44530058E+01 -0.21976E+05
 0.45030055E+01 -0.21935E+05
 0.45530057E+01 -0.21892E+05
 0.46030054E+01 -0.21874E+05
 0.46530056E+01 -0.21855E+05
 0.47030058E+01 -0.21863E+05
 0.47530055E+01 -0.21889E+05
 0.48030057E+01 -0.21932E+05
 0.48530054E+01 -0.21980E+05
 0.49030056E+01 -0.22016E+05
 0.49530058E+01 -0.22057E+05
 0.50030055E+01 -0.22114E+05
 0.50530057E+01 -0.22182E+05
 0.51030054E+01 -0.22267E+05
 0.51530056E+01 -0.22335E+05
 0.52030058E+01 -0.22383E+05
 0.52530055E+01 -0.22416E+05
 0.53030057E+01 -0.22398E+05
 0.53530054E+01 -0.22362E+05
 0.54030056E+01 -0.22326E+05
 0.54530053E+01 -0.22302E+05
 0.55030055E+01 -0.22271E+05
 0.55530057E+01 -0.22227E+05
 0.56030054E+01 -0.22190E+05
 0.56530056E+01 -0.22155E+05
 0.57030053E+01 -0.22125E+05
 0.57530055E+01 -0.22111E+05
 0.58030057E+01 -0.22137E+05
 0.58530054E+01 -0.22176E+05
 0.59030056E+01 -0.22233E+05
 0.59530053E+01 -0.22287E+05
 0.60030055E+01 -0.22343E+05
 0.60530052E+01 -0.22372E+05
 0.61030054E+01 -0.22376E+05
 0.61530056E+01 -0.22375E+05
 0.62030058E+01 -0.22357E+05
 0.62530050E+01 -0.22347E+05
 0.63030052E+01 -0.22321E+05
 0.63530054E+01 -0.22294E+05
 0.64030056E+01 -0.22268E+05
 0.64530058E+01 -0.22227E+05
 0.65030050E+01 -0.22176E+05
 0.65530052E+01 -0.22112E+05
 0.66030054E+01 -0.22041E+05
 0.66530056E+01 -0.21980E+05
 0.67030058E+01 -0.21925E+05
 0.67530050E+01 -0.21895E+05
 0.68030052E+01 -0.21888E+05
 0.68530054E+01 -0.21916E+05
 0.69030056E+01 -0.21946E+05
 0.69530058E+01 -0.21975E+05
 0.70030050E+01 -0.22028E+05
 0.70530052E+01 -0.22094E+05
 0.71030054E+01 -0.22162E+05
 0.71530056E+01 -0.22246E+05
 0.72030058E+01 -0.22346E+05
 0.72530050E+01 -0.22445E+05
 0.73030052E+01 -0.22523E+05
 0.73530054E+01 -0.22548E+05
 0.74030056E+01 -0.22545E+05
 0.74530058E+01 -0.22534E+05
 0.75030050E+01 -0.22530E+05
 0.75530052E+01 -0.22506E+05
 0.76030054E+01 -0.22464E+05
 0.76530056E+01 -0.22412E+05
 0.77030058E+01 -0.22348E+05
 0.77530050E+01 -0.22298E+05
 0.78030052E+01 -0.22238E+05
 0.78530054E+01 -0.22185E+05
 0.79030056E+01 -0.22147E+05
 0.79530058E+01 -0.22116E+05
 0.80030050E+01 -0.22078E+05
 0.80530052E+01 -0.22012E+05
 0.81030054E+01 -0.21931E+05
 0.81530056E+01 -0.21845E+05
 0.82030058E+01 -0.21772E+05
 0.82530050E+01 -0.21720E+05
 0.83030052E+01 -0.21707E+05
 0.83530054E+01 -0.21715E+05
 0.84030056E+01 -0.21735E+05
 0.84530058E+01 -0.21779E+05
 0.85030050E+01 -0.21819E+05
 0.85530052E+01 -0.21873E+05
 0.86030054E+01 -0.21937E+05
 0.86530056E+01 -0.22001E+05
 0.87030058E+01 -0.22086E+05
 0.87530050E+01 -0.22184E+05
 0.88030052E+01 -0.22272E+05
 0.88530054E+01 -0.22337E+05
 0.89030056E+01 -0.22388E+05
 0.89530058E+01 -0.22426E+05
 0.90030050E+01 -0.22437E+05
 0.90530052E+01 -0.22428E+05
 0.91030054E+01 -0.22412E+05
 0.91530056E+01 -0.22391E+05
 0.92030048E+01 -0.22358E+05
 0.92530050E+01 -0.22326E+05
 0.93030052E+01 -0.22304E+05
 0.93530054E+01 -0.22288E+05
 0.94030056E+01 -0.22288E+05
 0.94530048E+01 -0.22284E+05
 0.95030050E+01 -0.22284E+05
 0.95530052E+01 -0.22296E+05
 0.96030054E+01 -0.22328E+05
 0.96530056E+01 -0.22365E+05
 0.97030048E+01 -0.22404E+05
 0.97530050E+01 -0.22442E+05
 0.98030052E+01 -0.22464E+05
 0.98530054E+01 -0.22467E+05
 0.99030056E+01 -0.22459E+05
 0.99530048E+01 -0.22441E+05
 0.10003005E+02 -0.22399E+05
 0.10053005E+02 -0.22355E+05
 0.10103005E+02 -0.22298E+05
 0.10153006E+02 -0.22238E+05
 0.10203005E+02 -0.22171E+05
 0.10253005E+02 -0.22110E+05
 0.10303005E+02 -0.22049E+05
 0.10353005E+02 -0.21980E+05
 0.10403006E+02 -0.21917E+05
 0.10453005E+02 -0.21860E+05
 0.10503005E+02 -0.21816E+05
 0.10553005E+02 -0.21788E+05
 0.10603005E+02 -0.21774E+05
 0.10653006E+02 -0.21778E+05
 0.10703005E+02 -0.21802E+05
 0.10753005E+02 -0.21838E+05
 0.10803005E+02 -0.21891E+05
 0.10853005E+02 -0.21958E+05
 0.10903006E+02 -0.22028E+05
 0.10953005E+02 -0.22098E+05
 0.11003005E+02 -0.22178E+05
 0.11053005E+02 -0.22241E+05
 0.11103005E+02 -0.22299E+05
 0.11153006E+02 -0.22354E+05
 0.11203005E+02 -0.22391E+05
 0.11253005E+02 -0.22434E+05
 0.11303005E+02 -0.22476E+05
 0.11353005E+02 -0.22521E+05
 0.11403006E+02 -0.22551E+05
 0.11453005E+02 -0.22551E+05
 0.11503005E+02 -0.22541E+05
 0.11553005E+02 -0.22501E+05
 0.11603005E+02 -0.22441E+05
 0.11653006E+02 -0.22380E+05
 0.11703005E+02 -0.22308E+05
 0.11753005E+02 -0.22236E+05
 0.11803005E+02 -0.22169E+05
 0.11853005E+02 -0.22084E+05
 0.11903006E+02 -0.21993E+05
 0.11953005E+02 -0.21905E+05
 0.12003005E+02 -0.21840E+05
 0.12053005E+02 -0.21794E+05
 0.12103005E+02 -0.21760E+05
 0.12153006E+02 -0.21760E+05
 0.12203005E+02 -0.21776E+05
 0.12253005E+02 -0.21807E+05
 0.12303005E+02 -0.21836E+05
 0.12353005E+02 -0.21882E+05
 0.12403006E+02 -0.21946E+05
 0.12453005E+02 -0.22018E+05
 0.12503005E+02 -0.22101E+05
 0.12553005E+02 -0.22185E+05
 0.12603005E+02 -0.22246E+05
 0.12653005E+02 -0.22293E+05
 0.12703005E+02 -0.22339E+05
 0.12753005E+02 -0.22380E+05
 0.12803005E+02 -0.22407E+05
 0.12853005E+02 -0.22424E+05
 0.12903005E+02 -0.22440E+05
 0.12953005E+02 -0.22461E+05
 0.13003005E+02 -0.22466E+05
 0.13053005E+02 -0.22448E+05
 0.13103005E+02 -0.22432E+05
 0.13153005E+02 -0.22402E+05
 0.13203005E+02 -0.22353E+05
 0.13253005E+02 -0.22292E+05
 0.13303005E+02 -0.22228E+05
 0.13353005E+02 -0.22173E+05
 0.13403005E+02 -0.22129E+05
 0.13453005E+02 -0.22080E+05
 0.13503005E+02 -0.22051E+05
 0.13553005E+02 -0.22035E+05
 0.13603005E+02 -0.22032E+05
 0.13653005E+02 -0.22052E+05
 0.13703005E+02 -0.22078E+05
 0.13753005E+02 -0.22114E+05
 0.13803005E+02 -0.22156E+05
 0.13853005E+02 -0.22206E+05
 0.13903005E+02 -0.22258E+05
 0.13953005E+02 -0.22302E+05
 0.14003005E+02 -0.22341E+05
 0.14053005E+02 -0.22368E+05
 0.14103004E+02 -0.22380E+05
 0.14153006E+02 -0.22401E+05
 0.14203005E+02 -0.22411E+05
 0.14253004E+02 -0.22402E+05
 0.14303005E+02 -0.22375E+05
 0.14353004E+02 -0.22346E+05
 0.14403006E+02 -0.22322E+05
 0.14453005E+02 -0.22306E+05
 0.14503004E+02 -0.22282E+05
 0.14553005E+02 -0.22252E+05
 0.14603004E+02 -0.22218E+05
 0.14653006E+02 -0.22182E+05
 0.14703005E+02 -0.22147E+05
 0.14753004E+02 -0.22130E+05
 0.14803005E+02 -0.22128E+05
 0.14853004E+02 -0.22098E+05
 0.14903006E+02 -0.22056E+05
 0.14953005E+02 -0.21998E+05
 0.15003004E+02 -0.21949E+05
 0.15053005E+02 -0.21915E+05
 0.15103004E+02 -0.21889E+05
 0.15153006E+02 -0.21877E+05
 0.15203005E+02 -0.21874E+05
 0.15253004E+02 -0.21888E+05
 0.15303005E+02 -0.21913E+05
 0.15353004E+02 -0.21948E+05
 0.15403006E+02 -0.21990E+05
 0.15453005E+02 -0.22029E+05
 0.15503004E+02 -0.22079E+05
 0.15553005E+02 -0.22140E+05
 0.15603004E+02 -0.22211E+05
 0.15653006E+02 -0.22289E+05
 0.15703005E+02 -0.22357E+05
 0.15753004E+02 -0.22417E+05
 0.15803005E+02 -0.22472E+05
 0.15853004E+02 -0.22523E+05
 0.15903006E+02 -0.22547E+05
 0.15953005E+02 -0.22547E+05
 0.16003004E+02 -0.22528E+05
 0.16053005E+02 -0.22487E+05
 0.16103004E+02 -0.22418E+05
 0.16153006E+02 -0.22344E+05
 0.16203005E+02 -0.22278E+05
 0.16253004E+02 -0.22203E+05
 0.16303005E+02 -0.22142E+05
 0.16353004E+02 -0.22088E+05
 0.16403006E+02 -0.22037E+05
 0.16453005E+02 -0.21995E+05
 0.16503004E+02 -0.21959E+05
 0.16553005E+02 -0.21949E+05
 0.16603004E+02 -0.21946E+05
 0.16653006E+02 -0.21956E+05
 0.16703005E+02 -0.21973E+05
 0.16753004E+02 -0.21965E+05
 0.16803005E+02 -0.21961E+05
 0.16853004E+02 -0.21974E+05
 0.16903006E+02 -0.22018E+05
 0.16953005E+02 -0.22067E+05
 0.17003004E+02 -0.22110E+05
 0.17053005E+02 -0.22156E+05
 0.17103004E+02 -0.22196E+05
 0.17153006E+02 -0.22234E+05
 0.17203005E+02 -0.22249E+05
 0.17253004E+02 -0.22253E+05
 0.17303005E+02 -0.22249E+05
 0.17353004E+02 -0.22250E+05
 0.17403006E+02 -0.22276E+05
 0.17453005E+02 -0.22306E+05
 0.17503004E+02 -0.22327E+05
 0.17553005E+02 -0.22328E+05
 0.17603004E+02 -0.22319E+05
 0.17653006E+02 -0.22302E+05
 0.17703005E+02 -0.22283E+05
 0.17753004E+02 -0.22273E+05
 0.17803005E+02 -0.22290E+05
 0.17853004E+02 -0.22318E+05
 0.17903006E+02 -0.22320E+05
 0.17953005E+02 -0.22308E+05
 0.18003004E+02 -0.22280E+05
 0.18053005E+02 -0.22246E+05
 0.18103004E+02 -0.22210E+05
 0.18153006E+02 -0.22167E+05
 0.18203005E+02 -0.22123E+05
 0.18253004E+02 -0.22094E+05
 0.18303005E+02 -0.22072E+05
 0.18353004E+02 -0.22049E+05
 0.18403006E+02 -0.22038E+05
 0.18453005E+02 -0.22026E+05
 0.18503004E+02 -0.22034E+05
 0.18553005E+02 -0.22061E+05
 0.18603004E+02 -0.22095E+05
 0.18653006E+02 -0.22125E+05
 0.18703005E+02 -0.22153E+05
 0.18753004E+02 -0.22185E+05
 0.18803005E+02 -0.22194E+05
 0.18853004E+02 -0.22217E+05
 0.18903006E+02 -0.22253E+05
 0.18953005E+02 -0.22270E+05
 0.19003004E+02 -0.22284E+05
 0.19053005E+02 -0.22286E+05
 0.19103004E+02 -0.22272E+05
 0.19153006E+02 -0.22267E+05
 0.19203005E+02 -0.22257E+05
 0.19253004E+02 -0.22225E+05
 0.19303005E+02 -0.22184E+05
 0.19353004E+02 -0.22138E+05
 0.19403006E+02 -0.22097E+05
 0.19453005E+02 -0.22065E+05
 0.19503004E+02 -0.22049E+05
 0.19553005E+02 -0.22049E+05
 0.19603004E+02 -0.22039E+05
 0.19653006E+02 -0.22037E+05
 0.19703005E+02 -0.22043E+05
 0.19753004E+02 -0.22056E+05
 0.19803005E+02 -0.22096E+05
 0.19853004E+02 -0.22138E+05
 0.19903006E+02 -0.22178E+05
 0.19953005E+02 -0.22212E+05
 0.20003004E+02 -0.22235E+05
 0.20053005E+02 -0.22252E+05
 0.20103004E+02 -0.22277E+05
 0.20153006E+02 -0.22296E+05
 0.20203005E+02 -0.22299E+05
 0.20253004E+02 -0.22293E+05
 0.20303005E+02 -0.22294E+05
 0.20353004E+02 -0.22289E+05
 0.20403004E+02 -0.22275E+05
 0.20453005E+02 -0.22268E+05
 0.20503004E+02 -0.22270E+05
 0.20553005E+02 -0.22275E+05
 0.20603004E+02 -0.22277E+05
 0.20653004E+02 -0.22274E+05
 0.20703005E+02 -0.22272E+05
 0.20753004E+02 -0.22271E+05
 0.20803005E+02 -0.22263E+05
 0.20853004E+02 -0.22264E+05
 0.20903004E+02 -0.22269E+05
 0.20953005E+02 -0.22261E+05
 0.21003004E+02 -0.22239E+05
 0.21053005E+02 -0.22227E+05
 0.21103004E+02 -0.22217E+05
 0.21153004E+02 -0.22210E+05
 0.21203005E+02 -0.22207E+05
 0.21253004E+02 -0.22208E+05
 0.21303005E+02 -0.22222E+05
 0.21353004E+02 -0.22233E+05
 0.21403004E+02 -0.22241E+05
 0.21453005E+02 -0.22248E+05
 0.21503004E+02 -0.22246E+05
 0.21553005E+02 -0.22241E+05
 0.21603004E+02 -0.22227E+05
 0.21653004E+02 -0.22231E+05
 0.21703005E+02 -0.22235E+05
 0.21753004E+02 -0.22235E+05
 0.21803005E+02 -0.22235E+05
 0.21853004E+02 -0.22219E+05
 0.21903004E+02 -0.22211E+05
 0.21953005E+02 -0.22204E+05
 0.22003004E+02 -0.22190E+05
 0.22053005E+02 -0.22158E+05
 0.22103004E+02 -0.22119E+05
 0.22153004E+02 -0.22077E+05
 0.22203005E+02 -0.22045E+05
 0.22253004E+02 -0.22028E+05
 0.22303005E+02 -0.22029E+05
 0.22353004E+02 -0.22036E+05
 0.22403004E+02 -0.22035E+05
 0.22453005E+02 -0.22035E+05
 0.22503004E+02 -0.22046E+05
 0.22553005E+02 -0.22053E+05
 0.22603004E+02 -0.22046E+05
 0.22653004E+02 -0.22035E+05
 0.22703005E+02 -0.22013E+05
 0.22753004E+02 -0.21984E+05
 0.22803005E+02 -0.21957E+05
 0.22853004E+02 -0.21943E+05
 0.22903004E+02 -0.21938E+05
 0.22953005E+02 -0.21927E+05
 0.23003004E+02 -0.21928E+05
 0.23053005E+02 -0.21935E+05
 0.23103004E+02 -0.21955E+05
 0.23153004E+02 -0.21968E+05
 0.23203005E+02 -0.21977E+05
 0.23253004E+02 -0.21998E+05
 0.23303005E+02 -0.22026E+05
 0.23353004E+02 -0.22081E+05
 0.23403004E+02 -0.22136E+05
 0.23453005E+02 -0.22196E+05
 0.23503004E+02 -0.22256E+05
 0.23553005E+02 -0.22324E+05
 0.23603004E+02 -0.22397E+05
 0.23653004E+02 -0.22475E+05
 0.23703005E+02 -0.22553E+05
 0.23753004E+02 -0.22633E+05
 0.23803005E+02 -0.22702E+05
 0.23853004E+02 -0.22762E+05
 0.23903004E+02 -0.22799E+05
 0.23953005E+02 -0.22799E+05
 0.24003004E+02 -0.22781E+05
 0.24053005E+02 -0.22722E+05
 0.24103004E+02 -0.22644E+05
 0.24153004E+02 -0.22548E+05
 0.24203005E+02 -0.22453E+05
 0.24253004E+02 -0.22380E+05
 0.24303005E+02 -0.22295E+05
 0.24353004E+02 -0.22226E+05
 0.24403004E+02 -0.22159E+05
 0.24453005E+02 -0.22087E+05
 0.24503004E+02 -0.22044E+05
 0.24553005E+02 -0.22002E+05
 0.24603004E+02 -0.21983E+05
 0.24653004E+02 -0.21919E+05
 0.24703005E+02 -0.21869E+05
 0.24753004E+02 -0.21863E+05
 0.24803005E+02 -0.21853E+05
 0.24853004E+02 -0.21868E+05
 0.24903004E+02 -0.21880E+05
 0.24953005E+02 -0.21870E+05
 0.25003004E+02 -0.21840E+05
 0.25053005E+02 -0.21819E+05
 0.25103004E+02 -0.21793E+05
 0.25153004E+02 -0.21890E+05
 0.25203005E+02 -0.21921E+05
 0.25253004E+02 -0.21889E+05
 0.25303005E+02 -0.21945E+05
 0.25353004E+02 -0.21994E+05
 0.25403004E+02 -0.21905E+05
 0.25453005E+02 -0.22047E+05
 0.25503004E+02 -0.22057E+05
 0.25553005E+02 -0.22009E+05
 0.25603004E+02 -0.22184E+05
 0.25653004E+02 -0.22110E+05
 0.25703005E+02 -0.22234E+05
 0.25753004E+02 -0.22066E+05
 0.25803005E+02 -0.22445E+05
 0.25853004E+02 -0.22745E+05
 0.25903004E+02 -0.22449E+05
 0.25953005E+02 -0.22554E+05
 0.26003004E+02 -0.22084E+05
 0.26053005E+02 -0.22202E+05
 0.26103004E+02 -0.22097E+05
 0.26153004E+02 -0.22216E+05
 0.26203005E+02 -0.22423E+05
 0.26253004E+02 -0.22407E+05
 0.26303005E+02 -0.22471E+05
 0.26353004E+02 -0.21420E+05
 0.26403004E+02 -0.21846E+05
 0.26453005E+02 -0.22343E+05
 0.26503004E+02 -0.23143E+05
 0.26553005E+02 -0.22839E+05
 0.26603004E+02 -0.21870E+05
 0.26653004E+02 -0.21573E+05
 0.26703005E+02 -0.21289E+05
 0.26753004E+02 -0.21826E+05
 0.26803005E+02 -0.23242E+05
 0.26853004E+02 -0.22483E+05
 0.26903004E+02 -0.23123E+05
 0.26953005E+02 -0.22279E+05
 0.27003004E+02 -0.21016E+05
 0.27053003E+02 -0.21746E+05
 0.27103004E+02 -0.20935E+05
 0.27153004E+02 -0.23813E+05
 0.27203005E+02 -0.22430E+05
 0.27253004E+02 -0.23416E+05
 0.27303003E+02 -0.23017E+05
 0.27353004E+02 -0.22791E+05
 0.27403004E+02 -0.22600E+05
 0.27453005E+02 -0.20815E+05
 0.27503004E+02 -0.23694E+05
 0.27553003E+02 -0.22086E+05
 0.27603004E+02 -0.23207E+05
 0.27653004E+02 -0.22244E+05
 0.27703005E+02 -0.20938E+05
 0.27753004E+02 -0.21829E+05
 0.27803003E+02 -0.22393E+05
 0.27853004E+02 -0.24231E+05
 0.27903004E+02 -0.22373E+05
 0.27953005E+02 -0.20171E+05
 0.28003004E+02 -0.19827E+05
 0.28053003E+02 -0.21227E+05
 0.28103004E+02 -0.21621E+05
 0.28153004E+02 -0.22410E+05
 0.28203005E+02 -0.23644E+05
 0.28253004E+02 -0.22490E+05
 0.28303003E+02 -0.21299E+05
 0.28353004E+02 -0.20616E+05
 0.28403004E+02 -0.22713E+05
 0.28453005E+02 -0.22642E+05
 0.28503004E+02 -0.21003E+05
 0.28553003E+02 -0.21757E+05
 0.28603004E+02 -0.23088E+05
 0.28653004E+02 -0.20029E+05
 0.28703005E+02 -0.22171E+05
 0.28753004E+02 -0.24393E+05
 0.28803003E+02 -0.21618E+05
 0.28853004E+02 -0.22872E+05
 0.28903004E+02 -0.22284E+05
 0.28953005E+02 -0.22119E+05
 0.29003004E+02 -0.21700E+05
 0.29053003E+02 -0.22470E+05
 0.29103004E+02 -0.21413E+05
 0.29153004E+02 -0.26199E+05
 0.29203005E+02 -0.24898E+05
 0.29253004E+02 -0.21781E+05
 0.29303003E+02 -0.23115E+05
 0.29353004E+02 -0.19552E+05
 0.29403004E+02 -0.22356E+05
 0.29453005E+02 -0.24301E+05
 0.29503004E+02 -0.22008E+05
 0.29553003E+02 -0.22302E+05
 0.29603004E+02 -0.21229E+05
 0.29653004E+02 -0.20975E+05
 0.29703005E+02 -0.22271E+05
 0.29753004E+02 -0.23255E+05
 0.29803003E+02 -0.21127E+05
 0.29853004E+02 -0.18322E+05
 0.29903004E+02 -0.23706E+05
 0.29953005E+02 -0.22181E+05
 0.30003004E+02 -0.22600E+05
 0.30053005E+02 -0.23171E+05
 0.30103004E+02 -0.21200E+05
 0.30153004E+02 -0.21695E+05
 0.30203003E+02 -0.21857E+05
 0.30253002E+02 -0.21833E+05
 0.30303005E+02 -0.23266E+05
 0.30353004E+02 -0.23649E+05
 0.30403004E+02 -0.21608E+05
 0.30453003E+02 -0.19452E+05
 0.30503002E+02 -0.17730E+05
 0.30553005E+02 -0.23616E+05
 0.30603004E+02 -0.25763E+05
 0.30653004E+02 -0.23875E+05
 0.30703003E+02 -0.21035E+05
 0.30753002E+02 -0.23279E+05
 0.30803005E+02 -0.23513E+05
 0.30853004E+02 -0.20501E+05
 0.30903004E+02 -0.19730E+05
 0.30953003E+02 -0.22045E+05
 0.31003002E+02 -0.25952E+05
 0.31053005E+02 -0.25052E+05
 0.31103004E+02 -0.20883E+05
 0.31153004E+02 -0.19503E+05
 0.31203003E+02 -0.23039E+05
 0.31253002E+02 -0.22083E+05
 0.31303005E+02 -0.20938E+05
 0.31353004E+02 -0.22035E+05
 0.31403004E+02 -0.21338E+05
 0.31453003E+02 -0.21987E+05
 0.31503002E+02 -0.22505E+05
 0.31553005E+02 -0.20486E+05
 0.31603004E+02 -0.21831E+05
 0.31653004E+02 -0.21832E+05
 0.31703003E+02 -0.21584E+05
 0.31753002E+02 -0.23070E+05
 0.31803005E+02 -0.24336E+05
 0.31853004E+02 -0.24136E+05
 0.31903004E+02 -0.21790E+05
 0.31953003E+02 -0.19776E+05
 0.32003002E+02 -0.21053E+05
 0.32053005E+02 -0.21886E+05
 0.32103004E+02 -0.22386E+05
 0.32153004E+02 -0.23630E+05
 0.32203003E+02 -0.23326E+05
 0.32253002E+02 -0.23825E+05
 0.32303005E+02 -0.22523E+05
 0.32353004E+02 -0.23336E+05
 0.32403004E+02 -0.21361E+05
 0.32453003E+02 -0.20262E+05
 0.32503002E+02 -0.21832E+05
 0.32553005E+02 -0.23336E+05
 0.32603004E+02 -0.22041E+05
 0.32653004E+02 -0.22100E+05
 0.32703003E+02 -0.24599E+05
 0.32753002E+02 -0.23648E+05
 0.32803005E+02 -0.21591E+05
 0.32853004E+02 -0.17630E+05
 0.32903004E+02 -0.21903E+05
 0.32953003E+02 -0.24682E+05
 0.33003002E+02 -0.23618E+05
 0.33053005E+02 -0.21250E+05
 0.33103004E+02 -0.21342E+05
 0.33153004E+02 -0.21903E+05
 0.33203003E+02 -0.18073E+05
 0.33253002E+02 -0.23545E+05
 0.33303005E+02 -0.21622E+05
 0.33353004E+02 -0.21107E+05
 0.33403004E+02 -0.25226E+05
 0.33453003E+02 -0.22760E+05
 0.33503002E+02 -0.24429E+05
 0.33553005E+02 -0.19654E+05
 0.33603004E+02 -0.18821E+05
 0.33653004E+02 -0.23692E+05
 0.33703003E+02 -0.25347E+05
 0.33753002E+02 -0.22747E+05
 0.33803005E+02 -0.20351E+05
 0.33853004E+02 -0.21489E+05
 0.33903004E+02 -0.20982E+05
 0.33953003E+02 -0.23719E+05
 0.34003002E+02 -0.20797E+05
 0.34053005E+02 -0.21805E+05
 0.34103004E+02 -0.25815E+05
 0.34153004E+02 -0.21994E+05
 0.34203003E+02 -0.24008E+05
 0.34253002E+02 -0.22090E+05
 0.34303005E+02 -0.20275E+05
 0.34353004E+02 -0.22882E+05
 0.34403004E+02 -0.21388E+05
 0.34453003E+02 -0.22344E+05
 0.34503002E+02 -0.21833E+05
 0.34553005E+02 -0.23379E+05
 0.34603004E+02 -0.24151E+05
 0.34653004E+02 -0.23095E+05
 0.34703003E+02 -0.19851E+05
 0.34753002E+02 -0.19008E+05
 0.34803005E+02 -0.24473E+05
 0.34853004E+02 -0.23790E+05
 0.34903004E+02 -0.21774E+05
 0.34953003E+02 -0.20133E+05
 0.35003002E+02 -0.17262E+05
 0.35053005E+02 -0.19267E+05
 0.35103004E+02 -0.23171E+05
 0.35153004E+02 -0.26121E+05
 0.35203003E+02 -0.24396E+05
 0.35253002E+02 -0.22423E+05
 0.35303005E+02 -0.22686E+05
 0.35353004E+02 -0.20877E+05
 0.35403004E+02 -0.19948E+05
 0.35453003E+02 -0.19283E+05
 0.35503002E+02 -0.22779E+05
 0.35553005E+02 -0.24833E+05
 0.35603004E+02 -0.23684E+05
 0.35653004E+02 -0.22198E+05
 0.35703003E+02 -0.20003E+05
 0.35753002E+02 -0.21398E+05
 0.35803005E+02 -0.24343E+05
 0.35853004E+02 -0.25812E+05
 0.35903004E+02 -0.24207E+05
 0.35953003E+02 -0.20553E+05
 0.36003002E+02 -0.20233E+05
 0.36053005E+02 -0.22988E+05
 0.36103004E+02 -0.24479E+05
 0.36153004E+02 -0.22370E+05
 0.36203003E+02 -0.20032E+05
 0.36253002E+02 -0.20095E+05
 0.36303005E+02 -0.23704E+05
 0.36353004E+02 -0.24507E+05
 0.36403004E+02 -0.23230E+05
 0.36453003E+02 -0.21922E+05
 0.36503002E+02 -0.20209E+05
 0.36553005E+02 -0.19826E+05
 0.36603004E+02 -0.18273E+05
 0.36653004E+02 -0.22935E+05
 0.36703003E+02 -0.22835E+05
 0.36753002E+02 -0.21952E+05
 0.36803005E+02 -0.27187E+05
 0.36853004E+02 -0.26121E+05
 0.36903004E+02 -0.20225E+05
 0.36953003E+02 -0.19802E+05
 0.37003002E+02 -0.20902E+05
 0.37053005E+02 -0.21212E+05
 0.37103004E+02 -0.22579E+05
 0.37153004E+02 -0.20637E+05
 0.37203003E+02 -0.22665E+05
 0.37253002E+02 -0.24470E+05
 0.37303005E+02 -0.23497E+05
 0.37353004E+02 -0.23358E+05
 0.37403004E+02 -0.21017E+05
 0.37453003E+02 -0.21494E+05
 0.37503002E+02 -0.21888E+05
 0.37553005E+02 -0.21751E+05
 0.37603004E+02 -0.25018E+05
 0.37653004E+02 -0.22800E+05
 0.37703003E+02 -0.18928E+05
 0.37753002E+02 -0.21114E+05
 0.37803005E+02 -0.20947E+05
 0.37853004E+02 -0.20036E+05
 0.37903004E+02 -0.24809E+05
 0.37953003E+02 -0.23504E+05
 0.38003002E+02 -0.18854E+05
 0.38053005E+02 -0.23263E+05
 0.38103004E+02 -0.24186E+05
 0.38153004E+02 -0.21820E+05
 0.38203003E+02 -0.24304E+05
 0.38253002E+02 -0.24538E+05
 0.38303005E+02 -0.24511E+05
 0.38353004E+02 -0.21693E+05
 0.38403004E+02 -0.19344E+05
 0.38453003E+02 -0.19630E+05
 0.38503002E+02 -0.20169E+05
 0.38553005E+02 -0.19490E+05
 0.38603004E+02 -0.20846E+05
 0.38653004E+02 -0.21650E+05
 0.38703003E+02 -0.24034E+05
 0.38753002E+02 -0.25989E+05
 0.38803005E+02 -0.22290E+05
 0.38853004E+02 -0.24971E+05
 0.38903004E+02 -0.22213E+05
 0.38953003E+02 -0.20850E+05
 0.39003002E+02 -0.25136E+05
 0.39053005E+02 -0.23023E+05
 0.39103004E+02 -0.21797E+05
 0.39153004E+02 -0.21038E+05
 0.39203003E+02 -0.20128E+05
 0.39253002E+02 -0.21531E+05
 0.39303005E+02 -0.19557E+05
 0.39353004E+02 -0.20649E+05
 0.39403004E+02 -0.23856E+05
 0.39453003E+02 -0.22228E+05
 0.39503002E+02 -0.23490E+05
 0.39553005E+02 -0.23467E+05
 0.39603004E+02 -0.20109E+05
 0.39653004E+02 -0.23389E+05
 0.39703003E+02 -0.24860E+05
 0.39753002E+02 -0.20370E+05
 0.39803005E+02 -0.18680E+05
 0.39853004E+02 -0.19733E+05
 0.39903004E+02 -0.23443E+05
 0.39953003E+02 -0.26875E+05
 0.40003002E+02 -0.22698E+05
 0.40053005E+02 -0.19727E+05
 0.40103004E+02 -0.21287E+05
 0.40153004E+02 -0.22535E+05
 0.40203003E+02 -0.22614E+05
 0.40253002E+02 -0.22260E+05
 0.40303005E+02 -0.25314E+05
 0.40353004E+02 -0.23378E+05
 0.40403004E+02 -0.20061E+05
 0.40453003E+02 -0.21528E+05
 0.40503002E+02 -0.24711E+05
 0.40553005E+02 -0.22631E+05
 0.40603004E+02 -0.19637E+05
 0.40653004E+02 -0.19846E+05
 0.40703003E+02 -0.21902E+05
 0.40753002E+02 -0.23561E+05
 0.40803005E+02 -0.21570E+05
 0.40853004E+02 -0.21173E+05
 0.40903004E+02 -0.25855E+05
 0.40953003E+02 -0.26835E+05
 0.41003002E+02 -0.21766E+05
 0.41053005E+02 -0.22425E+05
 0.41103004E+02 -0.22760E+05
 0.41153004E+02 -0.23329E+05
 0.41203003E+02 -0.22647E+05
 0.41253002E+02 -0.22214E+05
 0.41303005E+02 -0.24335E+05
 0.41353004E+02 -0.24730E+05
 0.41403004E+02 -0.24507E+05
 0.41453003E+02 -0.20858E+05
 0.41503002E+02 -0.24536E+05
 0.41553005E+02 -0.29123E+05
 0.41603004E+02 -0.27206E+05
 0.41653004E+02 -0.17860E+05
 0.41703003E+02 -0.70517E+04
 0.41753002E+02 -0.11154E+05
 0.41803005E+02 -0.24937E+05
 0.41853004E+02 -0.29514E+05
 0.41903004E+02 -0.25732E+05
 0.41953003E+02 -0.23230E+05
 0.42003002E+02 -0.15875E+05
 0.42053005E+02 -0.11780E+05
 0.42103004E+02 -0.18455E+05
 0.42153004E+02 -0.27300E+05
 0.42203003E+02 -0.28689E+05
 0.42253002E+02 -0.25854E+05
 0.42303005E+02 -0.17732E+05
 0.42353004E+02 -0.92035E+04
 0.42403004E+02 -0.16003E+05
 0.42453003E+02 -0.27970E+05
 0.42503002E+02 -0.29497E+05
 0.42553005E+02 -0.18964E+05
 0.42603004E+02 -0.28111E+05
 0.42653004E+02 -0.37990E+05
 0.42703003E+02 -0.86395E+04
 0.42753002E+02  0.16076E+05
 0.42803001E+02  0.11499E+05
 0.42853004E+02 -0.78016E+04
 0.42903004E+02 -0.23485E+05
 0.42953003E+02 -0.38991E+05
 0.43003002E+02 -0.73152E+05
 0.43053001E+02 -0.10012E+06
 0.43103004E+02 -0.79775E+05
 0.43153004E+02 -0.19541E+05
 0.43203003E+02  0.41132E+05
 0.43253002E+02  0.55954E+05
 0.43303001E+02  0.10962E+05
 0.43353004E+02 -0.44814E+05
 0.43403004E+02 -0.59519E+05
 0.43453003E+02 -0.34236E+05
 0.43503002E+02 -0.42557E+04
 0.43553001E+02 -0.55808E+03
 0.43603004E+02 -0.17392E+05
 0.43653004E+02 -0.33070E+05
 0.43703003E+02 -0.37211E+05
 0.43753002E+02 -0.28419E+05
 0.43803001E+02 -0.20852E+05
 0.43853004E+02 -0.19411E+05
 0.43903004E+02 -0.22905E+05
 0.43953003E+02 -0.25969E+05
 0.44003002E+02 -0.23251E+05
 0.44053001E+02 -0.17897E+05
 0.44103004E+02 -0.27821E+05
 0.44153004E+02 -0.27349E+05
 0.44203003E+02 -0.18872E+05
 0.44253002E+02 -0.23647E+05
 0.44303001E+02 -0.20081E+05
 0.44353004E+02 -0.22335E+05
 0.44403004E+02 -0.25761E+05
 0.44453003E+02 -0.21814E+05
 0.44503002E+02 -0.11586E+05
 0.44553001E+02 -0.18422E+05
 0.44603004E+02 -0.34749E+05
 0.44653004E+02 -0.29753E+05
 0.44703003E+02 -0.23091E+05
 0.44753002E+02 -0.16971E+05
 0.44803001E+02 -0.13291E+05
 0.44853004E+02 -0.21001E+05
 0.44903004E+02 -0.24484E+05
 0.44953003E+02 -0.29071E+05
 0.45003002E+02 -0.20475E+05
 0.45053001E+02 -0.86494E+04
 0.45103004E+02 -0.11208E+05
 0.45153004E+02 -0.17192E+05
 0.45203003E+02 -0.35523E+05
 0.45253002E+02 -0.25545E+05
 0.45303001E+02 -0.61061E+04
 0.45353004E+02 -0.22172E+05
 0.45403004E+02 -0.34662E+05
 0.45453003E+02 -0.28253E+05
 0.45503002E+02 -0.16888E+05
 0.45553001E+02 -0.24983E+05
 0.45603004E+02 -0.46309E+05
 0.45653004E+02 -0.52411E+05
 0.45703003E+02 -0.24906E+05
 0.45753002E+02 -0.78678E+03
 0.45803001E+02 -0.12172E+05
 0.45853004E+02 -0.60118E+04
 0.45903004E+02 -0.66163E+04
 0.45953003E+02 -0.16556E+05
 0.46003002E+02 -0.24465E+05
 0.46053001E+02 -0.44998E+05
 0.46103004E+02 -0.37217E+05
 0.46153004E+02 -0.14754E+05
 0.46203003E+02  0.82484E+03
 0.46253002E+02 -0.51668E+04
 0.46303001E+02 -0.25597E+05
 0.46353004E+02 -0.33149E+05
 0.46403004E+02 -0.32829E+05
 0.46453003E+02 -0.36922E+05
 0.46503002E+02 -0.41342E+05
 0.46553001E+02 -0.24092E+05
 0.46603004E+02 -0.80929E+04
 0.46653004E+02 -0.10852E+05
 0.46703003E+02 -0.16220E+05
 0.46753002E+02 -0.17699E+05
 0.46803001E+02 -0.22657E+05
 0.46853004E+02 -0.29760E+05
 0.46903004E+02 -0.26677E+05
 0.46953003E+02 -0.17118E+05
 0.47003002E+02 -0.13649E+05
 0.47053001E+02 -0.13942E+05
 0.47103004E+02 -0.15888E+05
 0.47153004E+02 -0.23298E+05
 0.47203003E+02 -0.24041E+05
 0.47253002E+02 -0.33831E+05
 0.47303001E+02 -0.27048E+05
 0.47353004E+02 -0.60686E+04
 0.47403004E+02 -0.80558E+04
 0.47453003E+02 -0.15791E+05
 0.47503002E+02 -0.29373E+05
 0.47553001E+02 -0.36483E+05
 0.47603004E+02 -0.29756E+05
 0.47653004E+02 -0.15823E+05
 0.47703003E+02 -0.17456E+05
 0.47753002E+02 -0.25099E+05
 0.47803001E+02 -0.19152E+05
 0.47853004E+02 -0.18803E+05
 0.47903004E+02 -0.28524E+05
 0.47953003E+02 -0.34952E+05
 0.48003002E+02 -0.28941E+05
 0.48053001E+02 -0.13109E+05
 0.48103004E+02 -0.14806E+05
 0.48153004E+02 -0.29049E+05
 0.48203003E+02 -0.26405E+05
 0.48253002E+02 -0.28630E+05
 0.48303001E+02 -0.22794E+05
 0.48353004E+02 -0.10736E+05
 0.48403004E+02 -0.91138E+04
 0.48453003E+02 -0.10965E+05
 0.48503002E+02 -0.27237E+05
 0.48553001E+02 -0.37796E+05
 0.48603004E+02 -0.31611E+05
 0.48653004E+02 -0.22847E+05
 0.48703003E+02 -0.17065E+05
 0.48753002E+02 -0.15692E+05
 0.48803001E+02 -0.18466E+05
 0.48853004E+02 -0.22741E+05
 0.48903004E+02 -0.21138E+05
 0.48953003E+02 -0.14017E+05
 0.49003002E+02 -0.10157E+05
 0.49053001E+02 -0.20287E+05
 0.49103004E+02 -0.31795E+05
 0.49153004E+02 -0.28249E+05
 0.49203003E+02 -0.26056E+05
 0.49253002E+02 -0.23540E+05
 0.49303001E+02 -0.18471E+05
 0.49353004E+02 -0.19924E+05
 0.49403004E+02 -0.18943E+05
 0.49453003E+02 -0.27335E+05
 0.49503002E+02 -0.38546E+05
 0.49553001E+02 -0.35036E+05
 0.49603004E+02 -0.25866E+05
 0.49653004E+02 -0.93928E+04
 0.49703003E+02 -0.49519E+04
 0.49753002E+02 -0.17929E+05
 0.49803001E+02 -0.28419E+05
 0.49853004E+02 -0.30030E+05
 0.49903004E+02 -0.27382E+05
 0.49953003E+02 -0.30495E+05
 0.50003002E+02 -0.30255E+05
 0.50053001E+02 -0.22922E+05
 0.50103004E+02 -0.15813E+05
 0.50153004E+02 -0.18222E+05
 0.50203003E+02 -0.30094E+05
 0.50253002E+02 -0.27961E+05
 0.50303001E+02 -0.10364E+05
 0.50353004E+02 -0.28155E+04
 0.50403004E+02 -0.15432E+05
 0.50453003E+02 -0.24251E+05
 0.50503002E+02 -0.21888E+05
 0.50553001E+02 -0.22136E+05
 0.50603004E+02 -0.33778E+05
 0.50653004E+02 -0.41920E+05
 0.50703003E+02 -0.27668E+05
 0.50753002E+02 -0.74313E+04
 0.50803001E+02 -0.25497E+04
 0.50853004E+02 -0.16088E+05
 0.50903004E+02 -0.28426E+05
 0.50953003E+02 -0.34633E+05
 0.51003002E+02 -0.29400E+05
 0.51053001E+02 -0.21230E+05
 0.51103004E+02 -0.21517E+05
 0.51153004E+02 -0.17132E+05
 0.51203003E+02 -0.17814E+05
 0.51253002E+02 -0.21965E+05
 0.51303001E+02 -0.24014E+05
 0.51353004E+02 -0.32435E+05
 0.51403004E+02 -0.31941E+05
 0.51453003E+02 -0.20352E+05
 0.51503002E+02 -0.79632E+04
 0.51553001E+02 -0.90972E+04
 0.51603004E+02 -0.24207E+05
 0.51653004E+02 -0.28583E+05
 0.51703003E+02 -0.30000E+05
 0.51753002E+02 -0.31090E+05
 0.51803001E+02 -0.24882E+05
 0.51853004E+02 -0.12113E+05
 0.51903004E+02 -0.34716E+04
 0.51953003E+02 -0.97394E+04
 0.52003002E+02 -0.16501E+05
 0.52053001E+02 -0.28658E+05
 0.52103004E+02 -0.39930E+05
 0.52153004E+02 -0.32823E+05
 0.52203003E+02 -0.13475E+05
 0.52253002E+02 -0.50973E+04
 0.52303001E+02 -0.16093E+05
 0.52353004E+02 -0.29594E+05
 0.52403004E+02 -0.34660E+05
 0.52453003E+02 -0.26733E+05
 0.52503002E+02 -0.22339E+05
 0.52553001E+02 -0.24881E+05
 0.52603004E+02 -0.21357E+05
 0.52653004E+02 -0.18316E+05
 0.52703003E+02 -0.21098E+05
 0.52753002E+02 -0.23684E+05
 0.52803001E+02 -0.20221E+05
 0.52853004E+02 -0.14945E+05
 0.52903004E+02 -0.16358E+05
 0.52953003E+02 -0.28773E+05
 0.53003002E+02 -0.41912E+05
 0.53053001E+02 -0.37763E+05
 0.53103004E+02 -0.26686E+05
 0.53153004E+02 -0.22236E+05
 0.53203003E+02 -0.14408E+05
 0.53253002E+02 -0.88046E+04
 0.53303001E+02 -0.10565E+05
 0.53353004E+02 -0.13921E+05
 0.53403004E+02 -0.16710E+05
 0.53453003E+02 -0.21077E+05
 0.53503002E+02 -0.23074E+05
 0.53553001E+02 -0.21319E+05
 0.53603004E+02 -0.18296E+05
 0.53653004E+02 -0.18590E+05
 0.53703003E+02 -0.28266E+05
 0.53753002E+02 -0.29776E+05
 0.53803001E+02 -0.27565E+05
 0.53853004E+02 -0.31164E+05
 0.53903004E+02 -0.26728E+05
 0.53953003E+02 -0.22894E+05
 0.54003002E+02 -0.21163E+05
 0.54053001E+02 -0.13552E+05
 0.54103004E+02 -0.64265E+04
 0.54153004E+02 -0.80040E+04
 0.54203003E+02 -0.21341E+05
 0.54253002E+02 -0.30115E+05
 0.54303001E+02 -0.29793E+05
 0.54353004E+02 -0.26862E+05
 0.54403004E+02 -0.24940E+05
 0.54453003E+02 -0.28520E+05
 0.54503002E+02 -0.27173E+05
 0.54553001E+02 -0.23083E+05
 0.54603004E+02 -0.20461E+05
 0.54653004E+02 -0.23017E+05
 0.54703003E+02 -0.28201E+05
 0.54753002E+02 -0.28349E+05
 0.54803001E+02 -0.26212E+05
 0.54853004E+02 -0.22299E+05
 0.54903004E+02 -0.22188E+05
 0.54953003E+02 -0.20412E+05
 0.55003002E+02 -0.22715E+05
 0.55053001E+02 -0.31297E+05
 0.55103004E+02 -0.37195E+05
 0.55153004E+02 -0.25829E+05
 0.55203003E+02 -0.12912E+05
 0.55253002E+02 -0.16527E+05
 0.55303001E+02 -0.21584E+05
 0.55353004E+02 -0.32453E+05
 0.55403004E+02 -0.35517E+05
 0.55453003E+02 -0.28979E+05
 0.55503002E+02 -0.22438E+05
 0.55553001E+02 -0.15776E+05
 0.55603004E+02 -0.13001E+05
 0.55653004E+02 -0.12700E+05
 0.55703003E+02 -0.19113E+05
 0.55753002E+02 -0.21051E+05
 0.55803001E+02 -0.20100E+05
 0.55853001E+02 -0.23726E+05
 0.55903004E+02 -0.22205E+05
 0.55953003E+02 -0.18357E+05
 0.56003002E+02 -0.16024E+05
 0.56053001E+02 -0.13646E+05
 0.56103001E+02 -0.99545E+04
 0.56153004E+02 -0.12958E+05
 0.56203003E+02 -0.17892E+05
 0.56253002E+02 -0.20502E+05
 0.56303001E+02 -0.19370E+05
 0.56353001E+02 -0.17244E+05
 0.56403004E+02 -0.23271E+05
 0.56453003E+02 -0.27716E+05
 0.56503002E+02 -0.29182E+05
 0.56553001E+02 -0.30683E+05
 0.56603001E+02 -0.31873E+05
 0.56653004E+02 -0.28477E+05
 0.56703003E+02 -0.22861E+05
 0.56753002E+02 -0.16889E+05
 0.56803001E+02 -0.13520E+05
 0.56853001E+02 -0.17082E+05
 0.56903004E+02 -0.21784E+05
 0.56953003E+02 -0.23186E+05
 0.57003002E+02 -0.21679E+05
 0.57053001E+02 -0.23659E+05
 0.57103001E+02 -0.29047E+05
 0.57153004E+02 -0.31534E+05
 0.57203003E+02 -0.28043E+05
 0.57253002E+02 -0.20858E+05
 0.57303001E+02 -0.15080E+05
 0.57353001E+02 -0.15909E+05
 0.57403004E+02 -0.17609E+05
 0.57453003E+02 -0.19541E+05
 0.57503002E+02 -0.23258E+05
 0.57553001E+02 -0.24392E+05
 0.57603001E+02 -0.18743E+05
 0.57653004E+02 -0.11004E+05
 0.57703003E+02 -0.12436E+05
 0.57753002E+02 -0.18573E+05
 0.57803001E+02 -0.26081E+05
 0.57853001E+02 -0.27007E+05
 0.57903004E+02 -0.21167E+05
 0.57953003E+02 -0.18885E+05
 0.58003002E+02 -0.20215E+05
 0.58053001E+02 -0.22847E+05
 0.58103001E+02 -0.22163E+05
 0.58153004E+02 -0.21514E+05
 0.58203003E+02 -0.24623E+05
 0.58253002E+02 -0.30136E+05
 0.58303001E+02 -0.35378E+05
 0.58353001E+02 -0.33220E+05
 0.58403004E+02 -0.25811E+05
 0.58453003E+02 -0.23645E+05
 0.58503002E+02 -0.25138E+05
 0.58553001E+02 -0.24630E+05
 0.58603001E+02 -0.25096E+05
 0.58653004E+02 -0.22534E+05
 0.58703003E+02 -0.21931E+05
 0.58753002E+02 -0.23774E+05
 0.58803001E+02 -0.19817E+05
 0.58853001E+02 -0.15030E+05
 0.58903004E+02 -0.17295E+05
 0.58953003E+02 -0.25659E+05
 0.59003002E+02 -0.31446E+05
 0.59053001E+02 -0.31767E+05
 0.59103001E+02 -0.29116E+05
 0.59153004E+02 -0.22838E+05
 0.59203003E+02 -0.14677E+05
 0.59253002E+02 -0.14709E+05
 0.59303001E+02 -0.17757E+05
 0.59353001E+02 -0.19856E+05
 0.59403004E+02 -0.20031E+05
 0.59453003E+02 -0.17656E+05
 0.59503002E+02 -0.19967E+05
 0.59553001E+02 -0.21222E+05
 0.59603001E+02 -0.22886E+05
 0.59653004E+02 -0.25598E+05
 0.59703003E+02 -0.22934E+05
 0.59753002E+02 -0.20334E+05
 0.59803001E+02 -0.22237E+05
 0.59853001E+02 -0.23357E+05
 0.59903004E+02 -0.18724E+05
 0.59953003E+02 -0.15781E+05
 0.60003002E+02 -0.20556E+05
 0.60053001E+02 -0.24966E+05
 0.60103001E+02 -0.22611E+05
 0.60153004E+02 -0.17992E+05
 0.60203003E+02 -0.17135E+05
 0.60253002E+02 -0.16828E+05
 0.60303001E+02 -0.12687E+05
 0.60353001E+02 -0.12639E+05
 0.60403004E+02 -0.20595E+05
 0.60453003E+02 -0.29232E+05
 0.60503002E+02 -0.32017E+05
 0.60553001E+02 -0.29472E+05
 0.60603001E+02 -0.22752E+05
 0.60653004E+02 -0.14338E+05
 0.60703003E+02 -0.10807E+05
 0.60753002E+02 -0.12622E+05
 0.60803001E+02 -0.18008E+05
 0.60853001E+02 -0.24269E+05
 0.60903004E+02 -0.26385E+05
 0.60953003E+02 -0.25809E+05
 0.61003002E+02 -0.22324E+05
 0.61053001E+02 -0.18216E+05
 0.61103001E+02 -0.19290E+05
 0.61153004E+02 -0.24461E+05
 0.61203003E+02 -0.31113E+05
 0.61253002E+02 -0.32794E+05
 0.61303001E+02 -0.30661E+05
 0.61353001E+02 -0.29967E+05
 0.61403004E+02 -0.30521E+05
 0.61453003E+02 -0.26552E+05
 0.61503002E+02 -0.20742E+05
 0.61553001E+02 -0.18489E+05
 0.61603001E+02 -0.18004E+05
 0.61653004E+02 -0.16999E+05
 0.61703003E+02 -0.16891E+05
 0.61753002E+02 -0.22569E+05
 0.61803001E+02 -0.25110E+05
 0.61853001E+02 -0.20591E+05
 0.61903004E+02 -0.15366E+05
 0.61953003E+02 -0.16671E+05
 0.62003002E+02 -0.22665E+05
 0.62053001E+02 -0.26713E+05
 0.62103004E+02 -0.29292E+05
 0.62153000E+02 -0.25859E+05
 0.62203003E+02 -0.19024E+05
 0.62252998E+02 -0.16510E+05
 0.62303001E+02 -0.17101E+05
 0.62353004E+02 -0.18198E+05
 0.62403000E+02 -0.17562E+05
 0.62453003E+02 -0.16936E+05
 0.62502998E+02 -0.16474E+05
 0.62553001E+02 -0.15325E+05
 0.62603004E+02 -0.15050E+05
 0.62653000E+02 -0.17155E+05
 0.62703003E+02 -0.24729E+05
 0.62752998E+02 -0.31873E+05
 0.62803001E+02 -0.36982E+05
 0.62853004E+02 -0.40091E+05
 0.62903000E+02 -0.37235E+05
 0.62953003E+02 -0.33566E+05
 0.63002998E+02 -0.26523E+05
 0.63053001E+02 -0.20085E+05
 0.63103004E+02 -0.19962E+05
 0.63153000E+02 -0.22296E+05
 0.63203003E+02 -0.23135E+05
 0.63252998E+02 -0.23655E+05
 0.63303001E+02 -0.25420E+05
 0.63353004E+02 -0.26225E+05
 0.63403000E+02 -0.25184E+05
 0.63453003E+02 -0.18923E+05
 0.63502998E+02 -0.14638E+05
 0.63553001E+02 -0.16650E+05
 0.63603004E+02 -0.18922E+05
 0.63653000E+02 -0.20620E+05
 0.63703003E+02 -0.22818E+05
 0.63752998E+02 -0.22922E+05
 0.63803001E+02 -0.23345E+05
 0.63853004E+02 -0.21541E+05
 0.63903000E+02 -0.18024E+05
 0.63953003E+02 -0.15592E+05
 0.64002998E+02 -0.15594E+05
 0.64053001E+02 -0.14774E+05
 0.64103004E+02 -0.16697E+05
 0.64153000E+02 -0.23544E+05
 0.64203003E+02 -0.25134E+05
 0.64252998E+02 -0.24363E+05
 0.64303001E+02 -0.22358E+05
 0.64353004E+02 -0.21508E+05
 0.64403000E+02 -0.21399E+05
 0.64453003E+02 -0.22353E+05
 0.64502998E+02 -0.25146E+05
 0.64553001E+02 -0.26141E+05
 0.64603004E+02 -0.26209E+05
 0.64653000E+02 -0.26386E+05
 0.64703003E+02 -0.26058E+05
 0.64752998E+02 -0.22842E+05
 0.64803001E+02 -0.21085E+05
 0.64853004E+02 -0.22514E+05
 0.64903000E+02 -0.25173E+05
 0.64953003E+02 -0.29246E+05
 0.65002998E+02 -0.30568E+05
 0.65053001E+02 -0.29028E+05
 0.65103004E+02 -0.25606E+05
 0.65153000E+02 -0.22052E+05
 0.65203003E+02 -0.20455E+05
 0.65252998E+02 -0.19284E+05
 0.65303001E+02 -0.18661E+05
 0.65353004E+02 -0.18806E+05
 0.65403000E+02 -0.18266E+05
 0.65453003E+02 -0.16866E+05
 0.65502998E+02 -0.16016E+05
 0.65553001E+02 -0.17493E+05
 0.65603004E+02 -0.19631E+05
 0.65653000E+02 -0.19895E+05
 0.65703003E+02 -0.19635E+05
 0.65752998E+02 -0.19901E+05
 0.65803001E+02 -0.21728E+05
 0.65853004E+02 -0.22879E+05
 0.65903000E+02 -0.21419E+05
 0.65953003E+02 -0.19659E+05
 0.66002998E+02 -0.22982E+05
 0.66053001E+02 -0.28165E+05
 0.66103004E+02 -0.27965E+05
 0.66153000E+02 -0.23391E+05
 0.66203003E+02 -0.19560E+05
 0.66252998E+02 -0.19973E+05
 0.66303001E+02 -0.22690E+05
 0.66353004E+02 -0.24666E+05
 0.66403000E+02 -0.25761E+05
 0.66453003E+02 -0.28192E+05
 0.66502998E+02 -0.29545E+05
 0.66553001E+02 -0.30798E+05
 0.66603004E+02 -0.29471E+05
 0.66653000E+02 -0.23490E+05
 0.66703003E+02 -0.19631E+05
 0.66752998E+02 -0.19171E+05
 0.66803001E+02 -0.20594E+05
 0.66853004E+02 -0.19816E+05
 0.66903000E+02 -0.19203E+05
 0.66953003E+02 -0.20957E+05
 0.67002998E+02 -0.20874E+05
 0.67053001E+02 -0.17456E+05
 0.67103004E+02 -0.13821E+05
 0.67153000E+02 -0.11802E+05
 0.67203003E+02 -0.12411E+05
 0.67252998E+02 -0.16890E+05
 0.67303001E+02 -0.23507E+05
 0.67353004E+02 -0.29366E+05
 0.67403000E+02 -0.30919E+05
 0.67453003E+02 -0.30305E+05
 0.67502998E+02 -0.28212E+05
 0.67553001E+02 -0.25168E+05
 0.67603004E+02 -0.20441E+05
 0.67653000E+02 -0.14018E+05
 0.67703003E+02 -0.12357E+05
 0.67752998E+02 -0.17439E+05
 0.67803001E+02 -0.24158E+05
 0.67853004E+02 -0.28957E+05
 0.67903000E+02 -0.30718E+05
 0.67953003E+02 -0.28984E+05
 0.68002998E+02 -0.28011E+05
 0.68053001E+02 -0.26570E+05
 0.68103004E+02 -0.21621E+05
 0.68153000E+02 -0.17477E+05
 0.68203003E+02 -0.15837E+05
 0.68252998E+02 -0.17899E+05
 0.68303001E+02 -0.22007E+05
 0.68353004E+02 -0.22629E+05
 0.68403000E+02 -0.18949E+05
 0.68453003E+02 -0.16696E+05
 0.68502998E+02 -0.17502E+05
 0.68553001E+02 -0.18093E+05
 0.68603004E+02 -0.18490E+05
 0.68653000E+02 -0.18872E+05
 0.68703003E+02 -0.19555E+05
 0.68752998E+02 -0.19548E+05
 0.68803001E+02 -0.19165E+05
 0.68853004E+02 -0.19630E+05
 0.68903000E+02 -0.20307E+05
 0.68953003E+02 -0.19466E+05
 0.69002998E+02 -0.18841E+05
 0.69053001E+02 -0.19788E+05
 0.69103004E+02 -0.20118E+05
 0.69153000E+02 -0.19162E+05
 0.69203003E+02 -0.19253E+05
 0.69252998E+02 -0.22255E+05
 0.69303001E+02 -0.25499E+05
 0.69353004E+02 -0.28650E+05
 0.69403000E+02 -0.30267E+05
 0.69453003E+02 -0.29916E+05
 0.69502998E+02 -0.30043E+05
 0.69553001E+02 -0.28703E+05
 0.69603004E+02 -0.26544E+05
 0.69653000E+02 -0.26829E+05
 0.69703003E+02 -0.25941E+05
 0.69752998E+02 -0.22625E+05
 0.69803001E+02 -0.21229E+05
 0.69853004E+02 -0.22070E+05
 0.69903000E+02 -0.22006E+05
 0.69953003E+02 -0.22586E+05
 0.70002998E+02 -0.23132E+05
 0.70053001E+02 -0.22175E+05
 0.70103004E+02 -0.22872E+05
 0.70153000E+02 -0.22551E+05
 0.70203003E+02 -0.22715E+05
 0.70252998E+02 -0.23088E+05
 0.70303001E+02 -0.23384E+05
 0.70353004E+02 -0.24606E+05
 0.70403000E+02 -0.22341E+05
 0.70453003E+02 -0.18384E+05
 0.70502998E+02 -0.16500E+05
 0.70553001E+02 -0.15781E+05
 0.70603004E+02 -0.14180E+05
 0.70653000E+02 -0.14041E+05
 0.70703003E+02 -0.14946E+05
 0.70752998E+02 -0.15383E+05
 0.70803001E+02 -0.17027E+05
 0.70853004E+02 -0.19800E+05
 0.70903000E+02 -0.21570E+05
 0.70953003E+02 -0.20900E+05
 0.71002998E+02 -0.20782E+05
 0.71053001E+02 -0.21560E+05
 0.71103004E+02 -0.22042E+05
 0.71153000E+02 -0.20346E+05
 0.71203003E+02 -0.19219E+05
 0.71252998E+02 -0.22344E+05
 0.71303001E+02 -0.26138E+05
 0.71353004E+02 -0.29164E+05
 0.71403000E+02 -0.29775E+05
 0.71453003E+02 -0.29347E+05
 0.71502998E+02 -0.29298E+05
 0.71553001E+02 -0.27841E+05
 0.71603004E+02 -0.26218E+05
 0.71653000E+02 -0.24855E+05
 0.71703003E+02 -0.22869E+05
 0.71752998E+02 -0.21683E+05
 0.71803001E+02 -0.22074E+05
 0.71853004E+02 -0.23557E+05
 0.71903000E+02 -0.25441E+05
 0.71953003E+02 -0.27641E+05
 0.72002998E+02 -0.29844E+05
 0.72053001E+02 -0.29012E+05
 0.72103004E+02 -0.26629E+05
 0.72153000E+02 -0.24221E+05
 0.72203003E+02 -0.22585E+05
 0.72252998E+02 -0.22483E+05
 0.72303001E+02 -0.21302E+05
 0.72353004E+02 -0.19799E+05
 0.72403000E+02 -0.18314E+05
 0.72453003E+02 -0.17016E+05
 0.72502998E+02 -0.17073E+05
 0.72553001E+02 -0.18341E+05
 0.72603004E+02 -0.18265E+05
 0.72653000E+02 -0.17027E+05
 0.72703003E+02 -0.17100E+05
 0.72752998E+02 -0.17975E+05
 0.72803001E+02 -0.20701E+05
 0.72853004E+02 -0.24134E+05
 0.72903000E+02 -0.26689E+05
 0.72953003E+02 -0.28697E+05
 0.73002998E+02 -0.28953E+05
 0.73053001E+02 -0.27215E+05
 0.73103004E+02 -0.26126E+05
 0.73153000E+02 -0.26516E+05
 0.73203003E+02 -0.25842E+05
 0.73252998E+02 -0.22907E+05
 0.73303001E+02 -0.19474E+05
 0.73353004E+02 -0.17872E+05
 0.73403000E+02 -0.17308E+05
 0.73453003E+02 -0.16819E+05
 0.73502998E+02 -0.15734E+05
 0.73553001E+02 -0.15835E+05
 0.73603004E+02 -0.18116E+05
 0.73653000E+02 -0.20504E+05
 0.73703003E+02 -0.23100E+05
 0.73752998E+02 -0.26607E+05
 0.73803001E+02 -0.31130E+05
 0.73853004E+02 -0.33956E+05
 0.73903000E+02 -0.32645E+05
 0.73953003E+02 -0.28315E+05
 0.74002998E+02 -0.25210E+05
 0.74053001E+02 -0.25150E+05
 0.74103004E+02 -0.25463E+05
 0.74153000E+02 -0.23611E+05
 0.74203003E+02 -0.19046E+05
 0.74252998E+02 -0.15373E+05
 0.74303001E+02 -0.14238E+05
 0.74353004E+02 -0.13763E+05
 0.74403000E+02 -0.13869E+05
 0.74453003E+02 -0.16059E+05
 0.74502998E+02 -0.19290E+05
 0.74553001E+02 -0.20492E+05
 0.74603004E+02 -0.19877E+05
 0.74653000E+02 -0.18846E+05
 0.74703003E+02 -0.16679E+05
 0.74752998E+02 -0.15082E+05
 0.74803001E+02 -0.16047E+05
 0.74853004E+02 -0.18295E+05
 0.74903000E+02 -0.22910E+05
 0.74953003E+02 -0.26776E+05
 0.75002998E+02 -0.27929E+05
 0.75053001E+02 -0.28124E+05
 0.75103004E+02 -0.27063E+05
 0.75153000E+02 -0.27193E+05
 0.75203003E+02 -0.28373E+05
 0.75252998E+02 -0.28798E+05
 0.75303001E+02 -0.26873E+05
 0.75353004E+02 -0.24236E+05
 0.75403000E+02 -0.22594E+05
 0.75453003E+02 -0.20910E+05
 0.75502998E+02 -0.18971E+05
 0.75553001E+02 -0.17809E+05
 0.75603004E+02 -0.18432E+05
 0.75653000E+02 -0.19659E+05
 0.75703003E+02 -0.21013E+05
 0.75752998E+02 -0.22542E+05
 0.75803001E+02 -0.23079E+05
 0.75853004E+02 -0.21394E+05
 0.75903000E+02 -0.19213E+05
 0.75953003E+02 -0.17679E+05
 0.76002998E+02 -0.16967E+05
 0.76053001E+02 -0.16395E+05
 0.76103004E+02 -0.17017E+05
 0.76153000E+02 -0.20075E+05
 0.76203003E+02 -0.24337E+05
 0.76252998E+02 -0.28553E+05
 0.76303001E+02 -0.30685E+05
 0.76353004E+02 -0.31608E+05
 0.76403000E+02 -0.30684E+05
 0.76453003E+02 -0.28436E+05
 0.76502998E+02 -0.26073E+05
 0.76553001E+02 -0.22186E+05
 0.76603004E+02 -0.19627E+05
 0.76653000E+02 -0.19073E+05
 0.76703003E+02 -0.18310E+05
 0.76752998E+02 -0.17380E+05
 0.76803001E+02 -0.15856E+05
 0.76853004E+02 -0.14543E+05
 0.76903000E+02 -0.14397E+05
 0.76953003E+02 -0.15263E+05
 0.77002998E+02 -0.16991E+05
 0.77053001E+02 -0.19033E+05
 0.77103004E+02 -0.22430E+05
 0.77153000E+02 -0.25688E+05
 0.77203003E+02 -0.26469E+05
 0.77252998E+02 -0.25652E+05
 0.77303001E+02 -0.24655E+05
 0.77353004E+02 -0.23150E+05
 0.77403000E+02 -0.20872E+05
 0.77453003E+02 -0.19973E+05
 0.77502998E+02 -0.20739E+05
 0.77553001E+02 -0.22465E+05
 0.77603004E+02 -0.24226E+05
 0.77653000E+02 -0.24659E+05
 0.77703003E+02 -0.24119E+05
 0.77752998E+02 -0.22967E+05
 0.77803001E+02 -0.22775E+05
 0.77853004E+02 -0.23282E+05
 0.77903000E+02 -0.22897E+05
 0.77953003E+02 -0.23596E+05
 0.78002998E+02 -0.25741E+05
 0.78053001E+02 -0.27385E+05
 0.78103004E+02 -0.27257E+05
 0.78153000E+02 -0.26736E+05
 0.78203003E+02 -0.27193E+05
 0.78252998E+02 -0.27218E+05
 0.78303001E+02 -0.26131E+05
 0.78353004E+02 -0.23720E+05
 0.78403000E+02 -0.20274E+05
 0.78453003E+02 -0.16661E+05
 0.78502998E+02 -0.13254E+05
 0.78553001E+02 -0.11592E+05
 0.78603004E+02 -0.13300E+05
 0.78653000E+02 -0.17356E+05
 0.78703003E+02 -0.20823E+05
 0.78752998E+02 -0.22637E+05
 0.78803001E+02 -0.22040E+05
 0.78853004E+02 -0.20668E+05
 0.78903000E+02 -0.21818E+05
 0.78953003E+02 -0.24742E+05
 0.79002998E+02 -0.27200E+05
 0.79053001E+02 -0.28492E+05
 0.79103004E+02 -0.29499E+05
 0.79153000E+02 -0.29566E+05
 0.79203003E+02 -0.27931E+05
 0.79252998E+02 -0.25339E+05
 0.79303001E+02 -0.23156E+05
 0.79353004E+02 -0.21829E+05
 0.79403000E+02 -0.21026E+05
 0.79453003E+02 -0.20885E+05
 0.79502998E+02 -0.22097E+05
 0.79553001E+02 -0.23035E+05
 0.79603004E+02 -0.22341E+05
 0.79653000E+02 -0.19721E+05
 0.79703003E+02 -0.17465E+05
 0.79752998E+02 -0.18295E+05
 0.79803001E+02 -0.20209E+05
 0.79853004E+02 -0.21766E+05
 0.79903000E+02 -0.22782E+05
 0.79953003E+02 -0.23508E+05
 0.80002998E+02 -0.22913E+05
 0.80053001E+02 -0.22005E+05
 0.80103004E+02 -0.21624E+05
 0.80153000E+02 -0.21185E+05
 0.80203003E+02 -0.20497E+05
 0.80252998E+02 -0.19582E+05
 0.80303001E+02 -0.19197E+05
 0.80353004E+02 -0.19302E+05
 0.80403000E+02 -0.20075E+05
 0.80453003E+02 -0.20878E+05
 0.80502998E+02 -0.21349E+05
 0.80553001E+02 -0.22908E+05
 0.80603004E+02 -0.24906E+05
 0.80653000E+02 -0.25725E+05
 0.80703003E+02 -0.25225E+05
 0.80752998E+02 -0.24073E+05
 0.80803001E+02 -0.23596E+05
 0.80853004E+02 -0.23030E+05
 0.80903000E+02 -0.22226E+05
 0.80953003E+02 -0.22408E+05
 0.81002998E+02 -0.22450E+05
 0.81053001E+02 -0.21868E+05
 0.81103004E+02 -0.21701E+05
 0.81153000E+02 -0.21356E+05
 0.81203003E+02 -0.21541E+05
 0.81252998E+02 -0.22653E+05
 0.81303001E+02 -0.22706E+05
 0.81353004E+02 -0.22276E+05
 0.81403000E+02 -0.22705E+05
 0.81453003E+02 -0.22380E+05
 0.81502998E+02 -0.21246E+05
 0.81553001E+02 -0.20116E+05
 0.81603004E+02 -0.18336E+05
 0.81653000E+02 -0.16425E+05
 0.81703003E+02 -0.15929E+05
 0.81752998E+02 -0.17306E+05
 0.81803001E+02 -0.19033E+05
 0.81853004E+02 -0.20636E+05
 0.81903000E+02 -0.22051E+05
 0.81953003E+02 -0.23357E+05
 0.82002998E+02 -0.25313E+05
 0.82053001E+02 -0.27462E+05
 0.82103004E+02 -0.28269E+05
 0.82153000E+02 -0.27226E+05
 0.82203003E+02 -0.26158E+05
 0.82252998E+02 -0.25303E+05
 0.82303001E+02 -0.24670E+05
 0.82353004E+02 -0.23245E+05
 0.82403000E+02 -0.20026E+05
 0.82453003E+02 -0.17135E+05
 0.82502998E+02 -0.15994E+05
 0.82553001E+02 -0.15340E+05
 0.82603004E+02 -0.14611E+05
 0.82653000E+02 -0.14816E+05
 0.82703003E+02 -0.16539E+05
 0.82752998E+02 -0.19834E+05
 0.82803001E+02 -0.23219E+05
 0.82853004E+02 -0.26488E+05
 0.82903000E+02 -0.29590E+05
 0.82953003E+02 -0.31498E+05
 0.83002998E+02 -0.32017E+05
 0.83053001E+02 -0.30626E+05
 0.83103004E+02 -0.27476E+05
 0.83153000E+02 -0.24251E+05
 0.83203003E+02 -0.22231E+05
 0.83252998E+02 -0.20891E+05
 0.83303001E+02 -0.19945E+05
 0.83353004E+02 -0.20278E+05
 0.83403000E+02 -0.20658E+05
 0.83453003E+02 -0.20026E+05
 0.83502998E+02 -0.20238E+05
 0.83553001E+02 -0.21616E+05
 0.83603004E+02 -0.22793E+05
 0.83653000E+02 -0.24265E+05
 0.83703003E+02 -0.26249E+05
 0.83752998E+02 -0.27435E+05
 0.83803001E+02 -0.27972E+05
 0.83853004E+02 -0.27793E+05
 0.83903000E+02 -0.26769E+05
 0.83953003E+02 -0.25872E+05
 0.84002998E+02 -0.24143E+05
 0.84053001E+02 -0.22125E+05
 0.84103004E+02 -0.20001E+05
 0.84153000E+02 -0.16614E+05
 0.84203003E+02 -0.13401E+05
 0.84252998E+02 -0.12192E+05
 0.84303001E+02 -0.13018E+05
 0.84353004E+02 -0.15093E+05
 0.84403000E+02 -0.18393E+05
 0.84453003E+02 -0.21756E+05
 0.84502998E+02 -0.24538E+05
 0.84553001E+02 -0.26783E+05
 0.84603004E+02 -0.27595E+05
 0.84653000E+02 -0.26574E+05
 0.84703003E+02 -0.24177E+05
 0.84752998E+02 -0.21775E+05
 0.84803001E+02 -0.20534E+05
 0.84853004E+02 -0.20657E+05
 0.84903000E+02 -0.21246E+05
 0.84953003E+02 -0.20924E+05
 0.85002998E+02 -0.20897E+05
 0.85053001E+02 -0.22065E+05
 0.85103004E+02 -0.22661E+05
 0.85153000E+02 -0.22768E+05
 0.85203003E+02 -0.23519E+05
 0.85252998E+02 -0.24101E+05
 0.85303001E+02 -0.24737E+05
 0.85353004E+02 -0.25237E+05
 0.85403000E+02 -0.24327E+05
 0.85453003E+02 -0.22423E+05
 0.85502998E+02 -0.20374E+05
 0.85553001E+02 -0.18845E+05
 0.85603004E+02 -0.18141E+05
 0.85653000E+02 -0.18552E+05
 0.85703003E+02 -0.19490E+05
 0.85752998E+02 -0.20547E+05
 0.85803001E+02 -0.22165E+05
 0.85853004E+02 -0.23860E+05
 0.85903000E+02 -0.25092E+05
 0.85953003E+02 -0.25604E+05
 0.86002998E+02 -0.24756E+05
 0.86053001E+02 -0.23342E+05
 0.86103004E+02 -0.23283E+05
 0.86153000E+02 -0.23371E+05
 0.86203003E+02 -0.21975E+05
 0.86252998E+02 -0.21117E+05
 0.86303001E+02 -0.21172E+05
 0.86353004E+02 -0.20961E+05
 0.86403000E+02 -0.20826E+05
 0.86453003E+02 -0.20941E+05
 0.86502998E+02 -0.20987E+05
 0.86553001E+02 -0.20539E+05
 0.86603004E+02 -0.20279E+05
 0.86653000E+02 -0.21021E+05
 0.86703003E+02 -0.21645E+05
 0.86752998E+02 -0.21982E+05
 0.86803001E+02 -0.23128E+05
 0.86853004E+02 -0.24787E+05
 0.86903000E+02 -0.25630E+05
 0.86953003E+02 -0.25290E+05
 0.87002998E+02 -0.24251E+05
 0.87053001E+02 -0.22717E+05
 0.87103004E+02 -0.21630E+05
 0.87153000E+02 -0.20508E+05
 0.87203003E+02 -0.18831E+05
 0.87252998E+02 -0.18116E+05
 0.87303001E+02 -0.18225E+05
 0.87353004E+02 -0.18610E+05
 0.87403000E+02 -0.19601E+05
 0.87453003E+02 -0.20362E+05
 0.87502998E+02 -0.20968E+05
 0.87553001E+02 -0.21874E+05
 0.87602997E+02 -0.22781E+05
 0.87653000E+02 -0.24054E+05
 0.87703003E+02 -0.24914E+05
 0.87752998E+02 -0.24424E+05
 0.87803001E+02 -0.23036E+05
 0.87852997E+02 -0.22229E+05
 0.87903000E+02 -0.22000E+05
 0.87953003E+02 -0.21645E+05
 0.88002998E+02 -0.20840E+05
 0.88053001E+02 -0.19921E+05
 0.88102997E+02 -0.20543E+05
 0.88153000E+02 -0.21920E+05
 0.88203003E+02 -0.23095E+05
 0.88252998E+02 -0.23583E+05
 0.88303001E+02 -0.24144E+05
 0.88352997E+02 -0.24438E+05
 0.88403000E+02 -0.23137E+05
 0.88453003E+02 -0.21584E+05
 0.88502998E+02 -0.20772E+05
 0.88553001E+02 -0.20831E+05
 0.88602997E+02 -0.21658E+05
 0.88653000E+02 -0.22615E+05
 0.88703003E+02 -0.23465E+05
 0.88752998E+02 -0.23782E+05
 0.88803001E+02 -0.24096E+05
 0.88852997E+02 -0.24931E+05
 0.88903000E+02 -0.25398E+05
 0.88953003E+02 -0.25563E+05
 0.89002998E+02 -0.24373E+05
 0.89053001E+02 -0.22708E+05
 0.89102997E+02 -0.21445E+05
 0.89153000E+02 -0.19848E+05
 0.89203003E+02 -0.18726E+05
 0.89252998E+02 -0.18513E+05
 0.89303001E+02 -0.19295E+05
 0.89352997E+02 -0.20525E+05
 0.89403000E+02 -0.21427E+05
 0.89453003E+02 -0.21752E+05
 0.89502998E+02 -0.22799E+05
 0.89553001E+02 -0.24690E+05
 0.89602997E+02 -0.25665E+05
 0.89653000E+02 -0.26394E+05
 0.89703003E+02 -0.27302E+05
 0.89752998E+02 -0.26811E+05
 0.89803001E+02 -0.24959E+05
 0.89852997E+02 -0.22778E+05
 0.89903000E+02 -0.20808E+05
 0.89953003E+02 -0.19502E+05
 0.90002998E+02 -0.19230E+05
 0.90053001E+02 -0.19775E+05
 0.90102997E+02 -0.20375E+05
 0.90153000E+02 -0.21335E+05
 0.90203003E+02 -0.23043E+05
 0.90252998E+02 -0.24676E+05
 0.90303001E+02 -0.25008E+05
 0.90352997E+02 -0.24147E+05
 0.90403000E+02 -0.23747E+05
 0.90453003E+02 -0.23833E+05
 0.90502998E+02 -0.22717E+05
 0.90553001E+02 -0.20480E+05
 0.90602997E+02 -0.18484E+05
 0.90653000E+02 -0.17459E+05
 0.90703003E+02 -0.17116E+05
 0.90752998E+02 -0.17895E+05
 0.90803001E+02 -0.19622E+05
 0.90852997E+02 -0.21305E+05
 0.90903000E+02 -0.23220E+05
 0.90953003E+02 -0.24598E+05
 0.91002998E+02 -0.24989E+05
 0.91053001E+02 -0.25482E+05
 0.91102997E+02 -0.26054E+05
 0.91153000E+02 -0.25848E+05
 0.91203003E+02 -0.24909E+05
 0.91252998E+02 -0.24015E+05
 0.91303001E+02 -0.23571E+05
 0.91352997E+02 -0.22743E+05
 0.91403000E+02 -0.21554E+05
 0.91453003E+02 -0.20958E+05
 0.91502998E+02 -0.20957E+05
 0.91553001E+02 -0.20724E+05
 0.91602997E+02 -0.20292E+05
 0.91653000E+02 -0.20122E+05
 0.91703003E+02 -0.20564E+05
 0.91752998E+02 -0.20947E+05
 0.91803001E+02 -0.20917E+05
 0.91852997E+02 -0.21235E+05
 0.91903000E+02 -0.21808E+05
 0.91953003E+02 -0.22270E+05
 0.92002998E+02 -0.21767E+05
 0.92053001E+02 -0.20994E+05
 0.92102997E+02 -0.20804E+05
 0.92153000E+02 -0.20568E+05
 0.92203003E+02 -0.20599E+05
 0.92252998E+02 -0.20610E+05
 0.92303001E+02 -0.20319E+05
 0.92352997E+02 -0.20186E+05
 0.92403000E+02 -0.20019E+05
 0.92453003E+02 -0.20694E+05
 0.92502998E+02 -0.21535E+05
 0.92553001E+02 -0.22086E+05
 0.92602997E+02 -0.23110E+05
 0.92653000E+02 -0.23953E+05
 0.92703003E+02 -0.23839E+05
 0.92752998E+02 -0.22800E+05
 0.92803001E+02 -0.22501E+05
 0.92852997E+02 -0.22268E+05
 0.92903000E+02 -0.21390E+05
 0.92953003E+02 -0.20983E+05
 0.93002998E+02 -0.20247E+05
 0.93053001E+02 -0.19249E+05
 0.93102997E+02 -0.19100E+05
 0.93153000E+02 -0.19967E+05
 0.93203003E+02 -0.21164E+05
 0.93252998E+02 -0.22481E+05
 0.93303001E+02 -0.23604E+05
 0.93352997E+02 -0.24410E+05
 0.93403000E+02 -0.25340E+05
 0.93453003E+02 -0.24852E+05
 0.93502998E+02 -0.23894E+05
 0.93553001E+02 -0.23680E+05
 0.93602997E+02 -0.23498E+05
 0.93653000E+02 -0.23808E+05
 0.93703003E+02 -0.24456E+05
 0.93752998E+02 -0.24810E+05
 0.93803001E+02 -0.24394E+05
 0.93852997E+02 -0.23788E+05
 0.93903000E+02 -0.23501E+05
 0.93953003E+02 -0.22863E+05
 0.94002998E+02 -0.22275E+05
 0.94053001E+02 -0.22864E+05
 0.94102997E+02 -0.24245E+05
 0.94153000E+02 -0.25129E+05
 0.94203003E+02 -0.24980E+05
 0.94252998E+02 -0.24672E+05
 0.94303001E+02 -0.24296E+05
 0.94352997E+02 -0.23526E+05
 0.94403000E+02 -0.22630E+05
 0.94453003E+02 -0.21911E+05
 0.94502998E+02 -0.21572E+05
 0.94553001E+02 -0.21375E+05
 0.94602997E+02 -0.20519E+05
 0.94653000E+02 -0.19880E+05
 0.94703003E+02 -0.20078E+05
 0.94752998E+02 -0.20170E+05
 0.94803001E+02 -0.20435E+05
 0.94852997E+02 -0.20782E+05
 0.94903000E+02 -0.20772E+05
 0.94953003E+02 -0.20482E+05
 0.95002998E+02 -0.20597E+05
 0.95053001E+02 -0.21415E+05
 0.95102997E+02 -0.21766E+05
 0.95153000E+02 -0.21702E+05
 0.95203003E+02 -0.22310E+05
 0.95252998E+02 -0.22577E+05
 0.95303001E+02 -0.22072E+05
 0.95352997E+02 -0.22123E+05
 0.95403000E+02 -0.22483E+05
 0.95453003E+02 -0.22737E+05
 0.95502998E+02 -0.23076E+05
 0.95553001E+02 -0.23792E+05
 0.95602997E+02 -0.24644E+05
 0.95653000E+02 -0.23768E+05
 0.95703003E+02 -0.21939E+05
 0.95752998E+02 -0.20744E+05
 0.95803001E+02 -0.19815E+05
 0.95852997E+02 -0.19062E+05
 0.95903000E+02 -0.19482E+05
 0.95953003E+02 -0.20847E+05
 0.96002998E+02 -0.22540E+05
 0.96053001E+02 -0.23547E+05
 0.96102997E+02 -0.23045E+05
 0.96153000E+02 -0.23301E+05
 0.96203003E+02 -0.24076E+05
 0.96252998E+02 -0.23670E+05
 0.96303001E+02 -0.22950E+05
 0.96352997E+02 -0.22251E+05
 0.96403000E+02 -0.21699E+05
 0.96453003E+02 -0.21968E+05
 0.96502998E+02 -0.22575E+05
 0.96553001E+02 -0.22945E+05
 0.96602997E+02 -0.22880E+05
 0.96653000E+02 -0.22750E+05
 0.96703003E+02 -0.22901E+05
 0.96752998E+02 -0.23005E+05
 0.96803001E+02 -0.22432E+05
 0.96852997E+02 -0.21890E+05
 0.96903000E+02 -0.22103E+05
 0.96953003E+02 -0.21836E+05
 0.97002998E+02 -0.20763E+05
 0.97053001E+02 -0.19719E+05
 0.97102997E+02 -0.19312E+05
 0.97153000E+02 -0.19360E+05
 0.97203003E+02 -0.19720E+05
 0.97252998E+02 -0.20299E+05
 0.97303001E+02 -0.20902E+05
 0.97352997E+02 -0.21550E+05
 0.97403000E+02 -0.21988E+05
 0.97453003E+02 -0.22196E+05
 0.97502998E+02 -0.22103E+05
 0.97553001E+02 -0.22321E+05
 0.97602997E+02 -0.23589E+05
 0.97653000E+02 -0.24240E+05
 0.97703003E+02 -0.24002E+05
 0.97752998E+02 -0.23678E+05
 0.97803001E+02 -0.23248E+05
 0.97852997E+02 -0.22869E+05
 0.97903000E+02 -0.22319E+05
 0.97953003E+02 -0.21532E+05
 0.98002998E+02 -0.20854E+05
