-0.20000000E+01 -0.80528E+03
-0.19500000E+01  0.45571E+04
-0.19000000E+01  0.11528E+05
-0.18500000E+01  0.18649E+05
-0.18000000E+01  0.25874E+05
-0.17500000E+01  0.32686E+05
-0.17000000E+01  0.38838E+05
-0.16500001E+01  0.44245E+05
-0.16000000E+01  0.48918E+05
-0.15500000E+01  0.52095E+05
-0.15000000E+01  0.53351E+05
-0.14500000E+01  0.53109E+05
-0.14000001E+01  0.50907E+05
-0.13500000E+01  0.46406E+05
-0.13000001E+01  0.39986E+05
-0.12500000E+01  0.32578E+05
-0.12000000E+01  0.24725E+05
-0.11500001E+01  0.16726E+05
-0.11000000E+01  0.89814E+04
-0.10500001E+01  0.22304E+04
-0.10000000E+01 -0.26716E+04
-0.95000005E+00 -0.57014E+04
-0.90000010E+00 -0.71147E+04
-0.85000002E+00 -0.70187E+04
-0.80000007E+00 -0.57539E+04
-0.75000012E+00 -0.36153E+04
-0.70000005E+00 -0.10811E+04
-0.65000010E+00  0.16398E+04
-0.60000014E+00  0.44560E+04
-0.55000007E+00  0.74835E+04
-0.50000012E+00  0.10880E+05
-0.45000005E+00  0.14698E+05
-0.40000010E+00  0.18528E+05
-0.35000014E+00  0.21659E+05
-0.30000007E+00  0.23658E+05
-0.25000012E+00  0.24102E+05
-0.20000005E+00  0.23014E+05
-0.15000010E+00  0.20623E+05
-0.10000014E+00  0.17352E+05
-0.50000072E-01  0.13386E+05
-0.11920929E-06  0.88509E+04
 0.49999952E-01  0.40068E+04
 0.99999905E-01 -0.86841E+03
 0.14999986E+00 -0.56658E+04
 0.19999981E+00 -0.10071E+05
 0.24999976E+00 -0.13861E+05
 0.29999995E+00 -0.16887E+05
 0.34999990E+00 -0.19184E+05
 0.39999986E+00 -0.20882E+05
 0.44999981E+00 -0.22239E+05
 0.49999976E+00 -0.23440E+05
 0.54999995E+00 -0.24281E+05
 0.59999990E+00 -0.25051E+05
 0.64999986E+00 -0.25991E+05
 0.69999981E+00 -0.27200E+05
 0.74999976E+00 -0.28119E+05
 0.79999971E+00 -0.28350E+05
 0.84999990E+00 -0.27843E+05
 0.89999986E+00 -0.26746E+05
 0.94999981E+00 -0.25577E+05
 0.99999976E+00 -0.24820E+05
 0.10499997E+01 -0.25048E+05
 0.10999999E+01 -0.26083E+05
 0.11499999E+01 -0.27838E+05
 0.11999998E+01 -0.30189E+05
 0.12499998E+01 -0.32677E+05
 0.12999997E+01 -0.35312E+05
 0.13499999E+01 -0.38021E+05
 0.13999999E+01 -0.40731E+05
 0.14499998E+01 -0.43632E+05
 0.14999998E+01 -0.47070E+05
 0.15499997E+01 -0.51050E+05
 0.15999999E+01 -0.55097E+05
 0.16499999E+01 -0.58654E+05
 0.16999998E+01 -0.61249E+05
 0.17499998E+01 -0.62694E+05
 0.17999997E+01 -0.63013E+05
 0.18499997E+01 -0.61990E+05
 0.18999999E+01 -0.59561E+05
 0.19499998E+01 -0.56070E+05
 0.19999998E+01 -0.51677E+05
 0.20499997E+01 -0.46441E+05
 0.20999999E+01 -0.40072E+05
 0.21499996E+01 -0.32735E+05
 0.21999998E+01 -0.25066E+05
 0.22499995E+01 -0.17679E+05
 0.22999997E+01 -0.10816E+05
 0.23499999E+01 -0.43775E+04
 0.23999996E+01  0.15157E+04
 0.24499998E+01  0.70621E+04
 0.24999995E+01  0.11978E+05
 0.25499997E+01  0.15877E+05
 0.25999999E+01  0.18879E+05
 0.26499996E+01  0.21202E+05
 0.26999998E+01  0.22770E+05
 0.27499995E+01  0.23719E+05
 0.27999997E+01  0.23969E+05
 0.28499999E+01  0.23051E+05
 0.28999996E+01  0.20946E+05
 0.29499998E+01  0.17728E+05
 0.29999995E+01  0.13532E+05
 0.30499997E+01  0.83250E+04
 0.30999999E+01  0.25758E+04
 0.31499996E+01 -0.32627E+04
 0.31999998E+01 -0.89241E+04
 0.32499995E+01 -0.13722E+05
 0.32999997E+01 -0.17565E+05
 0.33499999E+01 -0.20479E+05
 0.33999996E+01 -0.22124E+05
 0.34499998E+01 -0.22314E+05
 0.34999995E+01 -0.21012E+05
 0.35499997E+01 -0.18053E+05
 0.35999994E+01 -0.13591E+05
 0.36499996E+01 -0.79093E+04
 0.36999998E+01 -0.11986E+04
 0.37499995E+01  0.63044E+04
 0.37999997E+01  0.14229E+05
 0.38499994E+01  0.22383E+05
 0.38999996E+01  0.30712E+05
 0.39499998E+01  0.38642E+05
 0.39999995E+01  0.45688E+05
 0.40499997E+01  0.51168E+05
 0.40999994E+01  0.54978E+05
 0.41499996E+01  0.57542E+05
 0.41999998E+01  0.58729E+05
 0.42499995E+01  0.58601E+05
 0.42999997E+01  0.57260E+05
 0.43499994E+01  0.54836E+05
 0.43999996E+01  0.51083E+05
 0.44499998E+01  0.46524E+05
 0.44999995E+01  0.41562E+05
 0.45499997E+01  0.36081E+05
 0.45999994E+01  0.30172E+05
 0.46499996E+01  0.23600E+05
 0.46999998E+01  0.16522E+05
 0.47499995E+01  0.91748E+04
 0.47999997E+01  0.16568E+04
 0.48499994E+01 -0.57894E+04
 0.48999996E+01 -0.12861E+05
 0.49499998E+01 -0.19486E+05
 0.49999995E+01 -0.25812E+05
 0.50499997E+01 -0.31387E+05
 0.50999994E+01 -0.35585E+05
 0.51499996E+01 -0.38276E+05
 0.51999998E+01 -0.39019E+05
 0.52499995E+01 -0.37731E+05
 0.52999997E+01 -0.34551E+05
 0.53499994E+01 -0.29676E+05
 0.53999996E+01 -0.23329E+05
 0.54499993E+01 -0.16031E+05
 0.54999995E+01 -0.82521E+04
 0.55499997E+01 -0.36503E+03
 0.55999994E+01  0.72277E+04
 0.56499996E+01  0.14314E+05
 0.56999993E+01  0.20932E+05
 0.57499995E+01  0.26831E+05
 0.57999997E+01  0.31453E+05
 0.58499994E+01  0.34543E+05
 0.58999996E+01  0.35979E+05
 0.59499993E+01  0.35817E+05
 0.59999995E+01  0.34167E+05
 0.60499992E+01  0.31376E+05
 0.60999994E+01  0.27776E+05
 0.61499996E+01  0.23385E+05
 0.61999998E+01  0.18292E+05
 0.62499990E+01  0.12672E+05
 0.62999992E+01  0.68973E+04
 0.63499994E+01  0.13493E+04
 0.63999996E+01 -0.40152E+04
 0.64499998E+01 -0.89974E+04
 0.64999990E+01 -0.13219E+05
 0.65499992E+01 -0.16446E+05
 0.65999994E+01 -0.18970E+05
 0.66499996E+01 -0.20687E+05
 0.66999998E+01 -0.21612E+05
 0.67499990E+01 -0.22072E+05
 0.67999992E+01 -0.22342E+05
 0.68499994E+01 -0.22196E+05
 0.68999996E+01 -0.21301E+05
 0.69499998E+01 -0.19364E+05
 0.69999990E+01 -0.16117E+05
 0.70499992E+01 -0.11798E+05
 0.70999994E+01 -0.65922E+04
 0.71499996E+01 -0.74385E+03
 0.71999998E+01  0.56047E+04
 0.72499990E+01  0.12153E+05
 0.72999992E+01  0.18400E+05
 0.73499994E+01  0.23895E+05
 0.73999996E+01  0.28634E+05
 0.74499998E+01  0.32867E+05
 0.74999990E+01  0.36751E+05
 0.75499992E+01  0.40037E+05
 0.75999994E+01  0.42575E+05
 0.76499996E+01  0.43986E+05
 0.76999998E+01  0.43963E+05
 0.77499990E+01  0.42355E+05
 0.77999992E+01  0.38843E+05
 0.78499994E+01  0.33706E+05
 0.78999996E+01  0.27377E+05
 0.79499998E+01  0.20260E+05
 0.79999990E+01  0.12846E+05
 0.80499992E+01  0.54828E+04
 0.80999994E+01 -0.15602E+04
 0.81499996E+01 -0.82828E+04
 0.81999998E+01 -0.14553E+05
 0.82499990E+01 -0.20359E+05
 0.82999992E+01 -0.25853E+05
 0.83499994E+01 -0.31015E+05
 0.83999996E+01 -0.35959E+05
 0.84499998E+01 -0.40923E+05
 0.84999990E+01 -0.45939E+05
 0.85499992E+01 -0.51036E+05
 0.85999994E+01 -0.56026E+05
 0.86499996E+01 -0.60477E+05
 0.86999998E+01 -0.64001E+05
 0.87499990E+01 -0.66240E+05
 0.87999992E+01 -0.66987E+05
 0.88499994E+01 -0.66280E+05
 0.88999996E+01 -0.64301E+05
 0.89499998E+01 -0.60972E+05
 0.89999990E+01 -0.56243E+05
 0.90499992E+01 -0.50077E+05
 0.90999994E+01 -0.42815E+05
 0.91499996E+01 -0.35408E+05
 0.91999989E+01 -0.28420E+05
 0.92499990E+01 -0.21941E+05
 0.92999992E+01 -0.15987E+05
 0.93499994E+01 -0.10453E+05
 0.93999996E+01 -0.51091E+04
 0.94499989E+01  0.99410E+02
 0.94999990E+01  0.48875E+04
 0.95499992E+01  0.88287E+04
 0.95999994E+01  0.11705E+05
 0.96499996E+01  0.13393E+05
 0.96999989E+01  0.13952E+05
 0.97499990E+01  0.13642E+05
 0.97999992E+01  0.12814E+05
 0.98499994E+01  0.11708E+05
 0.98999996E+01  0.10444E+05
 0.99499989E+01  0.89010E+04
 0.99999990E+01  0.68596E+04
 0.10049999E+02  0.43635E+04
 0.10099999E+02  0.14488E+04
 0.10150000E+02 -0.14400E+04
 0.10199999E+02 -0.39565E+04
 0.10249999E+02 -0.59008E+04
 0.10299999E+02 -0.67885E+04
 0.10349999E+02 -0.61973E+04
 0.10400000E+02 -0.42167E+04
 0.10449999E+02 -0.10518E+04
 0.10499999E+02  0.29049E+04
 0.10549999E+02  0.71563E+04
 0.10599999E+02  0.11433E+05
 0.10650000E+02  0.15682E+05
 0.10699999E+02  0.20132E+05
 0.10749999E+02  0.24978E+05
 0.10799999E+02  0.30280E+05
 0.10849999E+02  0.35905E+05
 0.10900000E+02  0.41622E+05
 0.10949999E+02  0.46834E+05
 0.10999999E+02  0.50829E+05
 0.11049999E+02  0.53251E+05
 0.11099999E+02  0.54055E+05
 0.11150000E+02  0.53258E+05
 0.11199999E+02  0.51046E+05
 0.11249999E+02  0.47900E+05
 0.11299999E+02  0.44495E+05
 0.11349999E+02  0.41192E+05
 0.11400000E+02  0.37920E+05
 0.11449999E+02  0.34568E+05
 0.11499999E+02  0.30949E+05
 0.11549999E+02  0.27218E+05
 0.11599999E+02  0.23537E+05
 0.11650000E+02  0.19977E+05
 0.11699999E+02  0.16481E+05
 0.11749999E+02  0.12797E+05
 0.11799999E+02  0.84825E+04
 0.11849999E+02  0.32805E+04
 0.11900000E+02 -0.27770E+04
 0.11949999E+02 -0.95228E+04
 0.11999999E+02 -0.16548E+05
 0.12049999E+02 -0.23490E+05
 0.12099999E+02 -0.29945E+05
 0.12150000E+02 -0.35482E+05
 0.12199999E+02 -0.39898E+05
 0.12249999E+02 -0.43629E+05
 0.12299999E+02 -0.46901E+05
 0.12349999E+02 -0.49633E+05
 0.12400000E+02 -0.51907E+05
 0.12449999E+02 -0.53339E+05
 0.12499999E+02 -0.53404E+05
 0.12549999E+02 -0.51896E+05
 0.12599999E+02 -0.48934E+05
 0.12649999E+02 -0.44712E+05
 0.12699999E+02 -0.39691E+05
 0.12749999E+02 -0.34271E+05
 0.12799999E+02 -0.28658E+05
 0.12849999E+02 -0.23293E+05
 0.12899999E+02 -0.18152E+05
 0.12949999E+02 -0.13056E+05
 0.12999999E+02 -0.80201E+04
 0.13049999E+02 -0.31118E+04
 0.13099999E+02  0.17204E+04
 0.13149999E+02  0.62103E+04
 0.13199999E+02  0.99570E+04
 0.13249999E+02  0.12564E+05
 0.13299999E+02  0.13949E+05
 0.13349999E+02  0.14467E+05
 0.13399999E+02  0.14529E+05
 0.13449999E+02  0.14395E+05
 0.13499999E+02  0.14165E+05
 0.13549999E+02  0.13978E+05
 0.13599999E+02  0.13677E+05
 0.13649999E+02  0.13476E+05
 0.13699999E+02  0.13605E+05
 0.13749999E+02  0.14109E+05
 0.13799999E+02  0.14794E+05
 0.13849999E+02  0.15643E+05
 0.13899999E+02  0.16517E+05
 0.13949999E+02  0.17255E+05
 0.13999999E+02  0.18270E+05
 0.14049999E+02  0.19701E+05
 0.14099998E+02  0.21634E+05
 0.14150000E+02  0.24350E+05
 0.14199999E+02  0.27738E+05
 0.14249998E+02  0.31488E+05
 0.14299999E+02  0.35329E+05
 0.14349998E+02  0.38773E+05
 0.14400000E+02  0.41434E+05
 0.14449999E+02  0.43358E+05
 0.14499998E+02  0.44595E+05
 0.14549999E+02  0.45274E+05
 0.14599998E+02  0.45500E+05
 0.14650000E+02  0.45110E+05
 0.14699999E+02  0.43890E+05
 0.14749998E+02  0.41679E+05
 0.14799999E+02  0.38777E+05
 0.14849998E+02  0.35109E+05
 0.14900000E+02  0.30723E+05
 0.14949999E+02  0.25833E+05
 0.14999998E+02  0.20212E+05
 0.15049999E+02  0.13941E+05
 0.15099998E+02  0.71580E+04
 0.15150000E+02 -0.13288E+03
 0.15199999E+02 -0.78403E+04
 0.15249998E+02 -0.15573E+05
 0.15299999E+02 -0.22924E+05
 0.15349998E+02 -0.29537E+05
 0.15400000E+02 -0.35040E+05
 0.15449999E+02 -0.39642E+05
 0.15499998E+02 -0.43545E+05
 0.15549999E+02 -0.46439E+05
 0.15599998E+02 -0.48458E+05
 0.15650000E+02 -0.49970E+05
 0.15699999E+02 -0.51031E+05
 0.15749998E+02 -0.51609E+05
 0.15799999E+02 -0.51445E+05
 0.15849998E+02 -0.50275E+05
 0.15900000E+02 -0.48016E+05
 0.15949999E+02 -0.44792E+05
 0.15999998E+02 -0.40515E+05
 0.16049999E+02 -0.35438E+05
 0.16099998E+02 -0.29715E+05
 0.16150000E+02 -0.23545E+05
 0.16199999E+02 -0.17414E+05
 0.16249998E+02 -0.11499E+05
 0.16299999E+02 -0.58712E+04
 0.16349998E+02 -0.70848E+03
 0.16400000E+02  0.38912E+04
 0.16449999E+02  0.80351E+04
 0.16499998E+02  0.11611E+05
 0.16549999E+02  0.14702E+05
 0.16599998E+02  0.17350E+05
 0.16650000E+02  0.19561E+05
 0.16699999E+02  0.21434E+05
 0.16749998E+02  0.23381E+05
 0.16799999E+02  0.25735E+05
 0.16849998E+02  0.28303E+05
 0.16900000E+02  0.30967E+05
 0.16949999E+02  0.33405E+05
 0.16999998E+02  0.35379E+05
 0.17049999E+02  0.36828E+05
 0.17099998E+02  0.37780E+05
 0.17150000E+02  0.38151E+05
 0.17199999E+02  0.37992E+05
 0.17249998E+02  0.37461E+05
 0.17299999E+02  0.36315E+05
 0.17349998E+02  0.34565E+05
 0.17400000E+02  0.32088E+05
 0.17449999E+02  0.28766E+05
 0.17499998E+02  0.24730E+05
 0.17549999E+02  0.19998E+05
 0.17599998E+02  0.14388E+05
 0.17650000E+02  0.80280E+04
 0.17699999E+02  0.13457E+04
 0.17749998E+02 -0.57161E+04
 0.17799999E+02 -0.13243E+05
 0.17849998E+02 -0.21191E+05
 0.17900000E+02 -0.29363E+05
 0.17949999E+02 -0.37273E+05
 0.17999998E+02 -0.44669E+05
 0.18049999E+02 -0.51501E+05
 0.18099998E+02 -0.57465E+05
 0.18150000E+02 -0.62089E+05
 0.18199999E+02 -0.65136E+05
 0.18249998E+02 -0.66451E+05
 0.18299999E+02 -0.66206E+05
 0.18349998E+02 -0.64866E+05
 0.18400000E+02 -0.62822E+05
 0.18449999E+02 -0.60468E+05
 0.18499998E+02 -0.58034E+05
 0.18549999E+02 -0.55663E+05
 0.18599998E+02 -0.53288E+05
 0.18650000E+02 -0.50718E+05
 0.18699999E+02 -0.47649E+05
 0.18749998E+02 -0.44100E+05
 0.18799999E+02 -0.40468E+05
 0.18849998E+02 -0.37002E+05
 0.18900000E+02 -0.33704E+05
 0.18949999E+02 -0.30662E+05
 0.18999998E+02 -0.28096E+05
 0.19049999E+02 -0.25930E+05
 0.19099998E+02 -0.24126E+05
 0.19150000E+02 -0.22413E+05
 0.19199999E+02 -0.20847E+05
 0.19249998E+02 -0.19431E+05
 0.19299999E+02 -0.17737E+05
 0.19349998E+02 -0.15786E+05
 0.19400000E+02 -0.13671E+05
 0.19449999E+02 -0.11299E+05
 0.19499998E+02 -0.86914E+04
 0.19549999E+02 -0.58263E+04
 0.19599998E+02 -0.25874E+04
 0.19650000E+02  0.11370E+04
 0.19699999E+02  0.53862E+04
 0.19749998E+02  0.10318E+05
 0.19799999E+02  0.15803E+05
 0.19849998E+02  0.21752E+05
 0.19900000E+02  0.28221E+05
 0.19949999E+02  0.35074E+05
 0.19999998E+02  0.42508E+05
 0.20049999E+02  0.50362E+05
 0.20099998E+02  0.58231E+05
 0.20150000E+02  0.65537E+05
 0.20199999E+02  0.72087E+05
 0.20249998E+02  0.77812E+05
 0.20299999E+02  0.82470E+05
 0.20349998E+02  0.85733E+05
 0.20399998E+02  0.87439E+05
 0.20449999E+02  0.87792E+05
 0.20499998E+02  0.86667E+05
 0.20549999E+02  0.83983E+05
 0.20599998E+02  0.80063E+05
 0.20649998E+02  0.74589E+05
 0.20699999E+02  0.68416E+05
 0.20749998E+02  0.60917E+05
 0.20799999E+02  0.52890E+05
 0.20849998E+02  0.43944E+05
 0.20899998E+02  0.34091E+05
 0.20949999E+02  0.25237E+05
 0.20999998E+02  0.18146E+05
 0.21049999E+02  0.11218E+05
 0.21099998E+02  0.44313E+04
 0.21149998E+02  0.63876E+03
 0.21199999E+02 -0.29043E+02
 0.21249998E+02 -0.20278E+04
 0.21299999E+02 -0.14454E+04
 0.21349998E+02  0.74443E+03
 0.21399998E+02  0.14896E+03
 0.21449999E+02  0.11794E+04
 0.21499998E+02 -0.11630E+05
 0.21549999E+02 -0.38669E+04
 0.21599998E+02 -0.61163E+04
 0.21649998E+02 -0.25683E+05
 0.21699999E+02 -0.46288E+04
 0.21749998E+02 -0.75736E+04
 0.21799999E+02 -0.15790E+05
 0.21849998E+02 -0.18186E+05
 0.21899998E+02 -0.23723E+05
 0.21949999E+02 -0.19633E+05
 0.21999998E+02 -0.36341E+05
 0.22049999E+02 -0.12966E+05
 0.22099998E+02 -0.24630E+04
 0.22149998E+02 -0.87147E+04
 0.22199999E+02 -0.24791E+04
 0.22249998E+02  0.24549E+04
 0.22299999E+02  0.39369E+05
 0.22349998E+02  0.41789E+05
 0.22399998E+02  0.62470E+05
 0.22449999E+02  0.73488E+05
 0.22499998E+02  0.40526E+05
 0.22549999E+02  0.36486E+05
 0.22599998E+02  0.28636E+05
 0.22649998E+02  0.49723E+05
 0.22699999E+02  0.41057E+05
 0.22749998E+02  0.12513E+05
 0.22799999E+02  0.56978E+05
 0.22849998E+02  0.57669E+05
 0.22899998E+02  0.29734E+05
 0.22949999E+02  0.40138E+05
 0.22999998E+02  0.43075E+05
 0.23049999E+02  0.34417E+05
 0.23099998E+02  0.34022E+05
 0.23149998E+02  0.54744E+05
 0.23199999E+02  0.47897E+05
 0.23249998E+02  0.54226E+04
 0.23299999E+02  0.17157E+05
 0.23349998E+02  0.49220E+05
 0.23399998E+02  0.73659E+05
 0.23449999E+02  0.14405E+05
 0.23499998E+02  0.71293E+04
 0.23549999E+02  0.24931E+05
 0.23599998E+02 -0.26421E+05
 0.23649998E+02 -0.41388E+04
 0.23699999E+02  0.79599E+04
 0.23749998E+02  0.16282E+05
 0.23799999E+02 -0.11621E+05
 0.23849998E+02  0.17485E+05
 0.23899998E+02  0.79414E+05
 0.23949999E+02  0.67300E+05
 0.23999998E+02  0.54900E+05
 0.24049999E+02  0.59799E+05
 0.24099998E+02  0.60554E+05
 0.24149998E+02  0.85141E+05
 0.24199999E+02  0.98871E+05
 0.24249998E+02  0.11435E+06
 0.24299999E+02  0.11637E+06
 0.24349998E+02  0.76664E+05
 0.24399998E+02  0.96014E+05
 0.24449999E+02  0.14961E+06
 0.24499998E+02  0.89227E+05
 0.24549999E+02  0.59218E+04
 0.24599998E+02 -0.81397E+04
 0.24649998E+02 -0.66183E+05
 0.24699999E+02 -0.80490E+05
 0.24749998E+02 -0.62204E+05
 0.24799999E+02 -0.39319E+05
 0.24849998E+02 -0.39705E+05
 0.24899998E+02 -0.71115E+05
 0.24949999E+02 -0.27278E+05
 0.24999998E+02 -0.35714E+05
 0.25049999E+02 -0.38088E+05
 0.25099998E+02  0.52813E+05
 0.25149998E+02  0.30599E+05
 0.25199999E+02 -0.22222E+05
 0.25249998E+02 -0.58347E+05
 0.25299999E+02 -0.13675E+06
 0.25349998E+02 -0.14410E+06
 0.25399998E+02 -0.88823E+05
 0.25449999E+02 -0.95577E+05
 0.25499998E+02 -0.17342E+06
 0.25549999E+02 -0.24288E+06
 0.25599998E+02 -0.27599E+06
 0.25649998E+02 -0.22294E+06
 0.25699999E+02 -0.14231E+06
 0.25749998E+02 -0.57414E+05
 0.25799999E+02 -0.34894E+05
 0.25849998E+02 -0.13749E+06
 0.25899998E+02 -0.15231E+06
 0.25949999E+02 -0.69458E+05
 0.25999998E+02  0.22174E+05
 0.26049999E+02 -0.66437E+04
 0.26099998E+02 -0.70990E+04
 0.26149998E+02  0.61729E+05
 0.26199999E+02  0.15376E+05
 0.26249998E+02  0.29131E+05
 0.26299999E+02  0.75112E+05
 0.26349998E+02  0.11370E+06
 0.26399998E+02  0.57677E+05
 0.26449999E+02  0.10778E+05
 0.26499998E+02  0.86280E+05
 0.26549999E+02  0.80386E+05
 0.26599998E+02  0.41165E+05
 0.26649998E+02  0.26467E+05
 0.26699999E+02  0.66623E+05
 0.26749998E+02  0.67144E+05
 0.26799999E+02 -0.47318E+05
 0.26849998E+02 -0.69558E+05
 0.26899998E+02 -0.33832E+05
 0.26949999E+02 -0.14330E+06
 0.26999998E+02 -0.17294E+06
 0.27049997E+02 -0.82753E+05
 0.27099998E+02 -0.77814E+05
 0.27149998E+02 -0.51473E+05
 0.27199999E+02 -0.36676E+05
 0.27249998E+02 -0.42350E+05
 0.27299997E+02 -0.70336E+05
 0.27349998E+02 -0.12424E+06
 0.27399998E+02 -0.13062E+06
 0.27449999E+02 -0.65666E+05
 0.27499998E+02 -0.11525E+05
 0.27549997E+02 -0.10646E+05
 0.27599998E+02  0.25686E+05
 0.27649998E+02  0.15493E+05
 0.27699999E+02  0.26874E+05
 0.27749998E+02  0.77992E+05
 0.27799997E+02  0.12331E+06
 0.27849998E+02  0.14854E+06
 0.27899998E+02  0.12080E+06
 0.27949999E+02  0.10107E+06
 0.27999998E+02  0.11176E+06
 0.28049997E+02  0.12473E+06
 0.28099998E+02  0.17300E+06
 0.28149998E+02  0.22191E+06
 0.28199999E+02  0.18367E+06
 0.28249998E+02  0.10327E+06
 0.28299997E+02 -0.10535E+05
 0.28349998E+02 -0.88505E+05
 0.28399998E+02 -0.10342E+06
 0.28449999E+02 -0.11543E+06
 0.28499998E+02 -0.11558E+06
 0.28549997E+02 -0.74214E+05
 0.28599998E+02 -0.53642E+05
 0.28649998E+02 -0.68408E+05
 0.28699999E+02 -0.18126E+05
 0.28749998E+02 -0.97006E+04
 0.28799997E+02 -0.94162E+05
 0.28849998E+02 -0.22757E+05
 0.28899998E+02  0.26643E+04
 0.28949999E+02 -0.13897E+06
 0.28999998E+02 -0.24068E+06
 0.29049997E+02 -0.34855E+06
 0.29099998E+02 -0.39931E+06
 0.29149998E+02 -0.31806E+06
 0.29199999E+02 -0.18372E+06
 0.29249998E+02 -0.15096E+06
 0.29299997E+02 -0.13597E+06
 0.29349998E+02 -0.11983E+06
 0.29399998E+02 -0.89709E+05
 0.29449999E+02  0.69073E+04
 0.29499998E+02  0.29498E+05
 0.29549997E+02  0.63761E+05
 0.29599998E+02  0.31479E+05
 0.29649998E+02 -0.90193E+05
 0.29699999E+02 -0.10112E+06
 0.29749998E+02 -0.57591E+05
 0.29799997E+02 -0.64656E+05
 0.29849998E+02 -0.12618E+06
 0.29899998E+02 -0.56449E+05
 0.29949999E+02  0.19807E+05
 0.29999998E+02 -0.19829E+05
 0.30049999E+02 -0.47027E+05
 0.30099998E+02 -0.62098E+05
 0.30149998E+02  0.43295E+05
 0.30199997E+02  0.13715E+06
 0.30249996E+02  0.13918E+06
 0.30299999E+02  0.73888E+05
 0.30349998E+02 -0.11221E+05
 0.30399998E+02 -0.16221E+06
 0.30449997E+02 -0.30206E+06
 0.30499996E+02 -0.22507E+06
 0.30549999E+02 -0.16358E+06
 0.30599998E+02 -0.14248E+06
 0.30649998E+02 -0.77999E+05
 0.30699997E+02  0.13767E+06
 0.30749996E+02  0.42311E+06
 0.30799999E+02  0.56552E+06
 0.30849998E+02  0.57765E+06
 0.30899998E+02  0.53874E+06
 0.30949997E+02  0.44708E+06
 0.30999996E+02  0.19873E+06
 0.31049999E+02 -0.10311E+06
 0.31099998E+02 -0.31483E+06
 0.31149998E+02 -0.41575E+06
 0.31199997E+02 -0.47382E+06
 0.31249996E+02 -0.35113E+06
 0.31299999E+02 -0.19259E+06
 0.31349998E+02 -0.69714E+05
 0.31399998E+02  0.63700E+05
 0.31449997E+02  0.27719E+05
 0.31499996E+02 -0.37125E+05
 0.31549999E+02 -0.90661E+05
 0.31599998E+02 -0.10041E+05
 0.31649998E+02  0.14792E+06
 0.31699997E+02  0.27828E+06
 0.31749996E+02  0.34331E+06
 0.31799999E+02  0.32189E+06
 0.31849998E+02  0.34766E+06
 0.31899998E+02  0.31760E+06
 0.31949997E+02  0.27635E+06
 0.31999996E+02  0.19795E+06
 0.32049999E+02 -0.32546E+05
 0.32099998E+02 -0.27061E+06
 0.32149998E+02 -0.30076E+06
 0.32199997E+02 -0.20255E+06
 0.32249996E+02 -0.14558E+06
 0.32299999E+02  0.22250E+05
 0.32349998E+02  0.23702E+06
 0.32399998E+02  0.35484E+06
 0.32449997E+02  0.36009E+06
 0.32499996E+02  0.96010E+05
 0.32549999E+02 -0.25487E+06
 0.32599998E+02 -0.42311E+06
 0.32649998E+02 -0.47442E+06
 0.32699997E+02 -0.47935E+06
 0.32749996E+02 -0.51252E+06
 0.32799999E+02 -0.49974E+06
 0.32849998E+02 -0.32379E+06
 0.32899998E+02 -0.73205E+05
 0.32949997E+02 -0.20108E+05
 0.32999996E+02 -0.34742E+05
 0.33049999E+02  0.16211E+06
 0.33099998E+02  0.27840E+06
 0.33149998E+02  0.27202E+06
 0.33199997E+02  0.30914E+06
 0.33249996E+02  0.31030E+06
 0.33299999E+02  0.13977E+06
 0.33349998E+02 -0.59343E+05
 0.33399998E+02 -0.14047E+06
 0.33449997E+02 -0.18534E+06
 0.33499996E+02 -0.16634E+05
 0.33549999E+02  0.17034E+06
 0.33599998E+02  0.21746E+06
 0.33649998E+02  0.26877E+06
 0.33699997E+02  0.17885E+06
 0.33749996E+02 -0.10623E+06
 0.33799999E+02 -0.42413E+06
 0.33849998E+02 -0.55935E+06
 0.33899998E+02 -0.57991E+06
 0.33949997E+02 -0.38694E+06
 0.33999996E+02 -0.21477E+05
 0.34049999E+02  0.16138E+06
 0.34099998E+02  0.95129E+05
 0.34149998E+02 -0.82694E+05
 0.34199997E+02 -0.11006E+06
 0.34249996E+02  0.85515E+05
 0.34299999E+02  0.10238E+06
 0.34349998E+02  0.10527E+05
 0.34399998E+02  0.87857E+04
 0.34449997E+02 -0.62611E+05
 0.34499996E+02 -0.78158E+05
 0.34549999E+02 -0.78547E+05
 0.34599998E+02 -0.67521E+05
 0.34649998E+02  0.11945E+06
 0.34699997E+02  0.33422E+06
 0.34749996E+02  0.42174E+06
 0.34799999E+02  0.40475E+06
 0.34849998E+02  0.36207E+06
 0.34899998E+02  0.22336E+06
 0.34949997E+02 -0.27559E+05
 0.34999996E+02 -0.13756E+06
 0.35049999E+02 -0.62334E+05
 0.35099998E+02  0.73083E+05
 0.35149998E+02  0.12846E+06
 0.35199997E+02  0.15030E+06
 0.35249996E+02  0.15153E+06
 0.35299999E+02  0.74876E+05
 0.35349998E+02  0.19409E+04
 0.35399998E+02 -0.13177E+06
 0.35449997E+02 -0.17619E+06
 0.35499996E+02  0.19675E+05
 0.35549999E+02  0.29475E+06
 0.35599998E+02  0.60869E+06
 0.35649998E+02  0.78092E+06
 0.35699997E+02  0.74676E+06
 0.35749996E+02  0.70888E+06
 0.35799999E+02  0.55628E+06
 0.35849998E+02  0.25739E+06
 0.35899998E+02  0.18290E+06
 0.35949997E+02  0.44376E+06
 0.35999996E+02  0.38557E+06
 0.36049999E+02 -0.36068E+06
 0.36099998E+02 -0.83690E+06
 0.36149998E+02 -0.45410E+06
 0.36199997E+02 -0.16881E+06
 0.36249996E+02 -0.63486E+06
 0.36299999E+02 -0.10364E+07
 0.36349998E+02 -0.46571E+06
 0.36399998E+02  0.52201E+06
 0.36449997E+02  0.76204E+06
 0.36499996E+02  0.58401E+06
 0.36549999E+02  0.62770E+06
 0.36599998E+02  0.81714E+06
 0.36649998E+02  0.10871E+07
 0.36699997E+02  0.94326E+06
 0.36749996E+02  0.61695E+06
 0.36799999E+02  0.45443E+06
 0.36849998E+02  0.21572E+06
 0.36899998E+02 -0.23231E+06
 0.36949997E+02 -0.60497E+06
 0.36999996E+02 -0.58243E+06
 0.37049999E+02 -0.32852E+06
 0.37099998E+02 -0.22583E+06
 0.37149998E+02 -0.44639E+06
 0.37199997E+02 -0.51819E+06
 0.37249996E+02 -0.51287E+06
 0.37299999E+02 -0.23788E+06
 0.37349998E+02  0.27845E+06
 0.37399998E+02  0.62699E+06
 0.37449997E+02  0.94696E+06
 0.37499996E+02  0.90337E+06
 0.37549999E+02  0.51799E+06
 0.37599998E+02  0.96410E+05
 0.37649998E+02 -0.57537E+06
 0.37699997E+02 -0.11990E+07
 0.37749996E+02 -0.12084E+07
 0.37799999E+02 -0.76534E+06
 0.37849998E+02 -0.60506E+06
 0.37899998E+02 -0.99117E+06
 0.37949997E+02 -0.84881E+06
 0.37999996E+02  0.95692E+05
 0.38049999E+02  0.45431E+06
 0.38099998E+02 -0.18076E+06
 0.38149998E+02 -0.56084E+06
 0.38199997E+02  0.97708E+05
 0.38249996E+02  0.85279E+06
 0.38299999E+02  0.35653E+06
 0.38349998E+02 -0.52937E+06
 0.38399998E+02 -0.82167E+06
 0.38449997E+02 -0.69124E+06
 0.38499996E+02 -0.31620E+06
 0.38549999E+02 -0.41509E+06
 0.38599998E+02 -0.62306E+06
 0.38649998E+02 -0.62538E+06
 0.38699997E+02 -0.84216E+06
 0.38749996E+02 -0.99185E+06
 0.38799999E+02 -0.90714E+06
 0.38849998E+02 -0.58419E+06
 0.38899998E+02 -0.35362E+06
 0.38949997E+02 -0.78061E+06
 0.38999996E+02 -0.11137E+07
 0.39049999E+02 -0.67575E+06
 0.39099998E+02 -0.21696E+06
 0.39149998E+02  0.78675E+05
 0.39199997E+02  0.20795E+06
 0.39249996E+02  0.21387E+06
 0.39299999E+02  0.26217E+06
 0.39349998E+02  0.11365E+05
 0.39399998E+02 -0.14710E+06
 0.39449997E+02 -0.21809E+06
 0.39499996E+02 -0.35914E+06
 0.39549999E+02 -0.38224E+06
 0.39599998E+02 -0.19643E+06
 0.39649998E+02  0.14027E+06
 0.39699997E+02  0.12268E+06
 0.39749996E+02  0.50436E+05
 0.39799999E+02  0.61611E+05
 0.39849998E+02  0.10580E+06
 0.39899998E+02  0.20434E+06
 0.39949997E+02  0.30083E+06
 0.39999996E+02  0.64330E+06
 0.40049999E+02  0.86514E+06
 0.40099998E+02  0.73609E+06
 0.40149998E+02  0.43046E+06
 0.40199997E+02  0.11474E+06
 0.40249996E+02 -0.14705E+06
 0.40299999E+02 -0.40600E+06
 0.40349998E+02 -0.53415E+06
 0.40399998E+02 -0.52368E+06
 0.40449997E+02 -0.68434E+06
 0.40499996E+02 -0.58103E+06
 0.40549999E+02 -0.10299E+06
 0.40599998E+02 -0.64888E+05
 0.40649998E+02 -0.15556E+06
 0.40699997E+02 -0.22190E+06
 0.40749996E+02 -0.87017E+05
 0.40799999E+02  0.55314E+05
 0.40849998E+02  0.22925E+06
 0.40899998E+02  0.72647E+06
 0.40949997E+02  0.96938E+06
 0.40999996E+02  0.11522E+07
 0.41049999E+02  0.11259E+07
 0.41099998E+02  0.10919E+07
 0.41149998E+02  0.12155E+07
 0.41199997E+02  0.14378E+07
 0.41249996E+02  0.15695E+07
 0.41299999E+02  0.11377E+07
 0.41349998E+02  0.91548E+06
 0.41399998E+02  0.86487E+06
 0.41449997E+02  0.66922E+06
 0.41499996E+02  0.49761E+06
 0.41549999E+02  0.14584E+06
 0.41599998E+02 -0.15116E+06
 0.41649998E+02 -0.69671E+06
 0.41699997E+02 -0.12183E+07
 0.41749996E+02 -0.92632E+06
 0.41799999E+02 -0.20568E+06
 0.41849998E+02  0.70896E+06
 0.41899998E+02  0.13432E+07
 0.41949997E+02  0.14812E+07
 0.41999996E+02  0.13001E+07
 0.42049999E+02  0.61110E+06
 0.42099998E+02 -0.44652E+05
 0.42149998E+02 -0.59833E+06
 0.42199997E+02 -0.11087E+07
 0.42249996E+02 -0.12709E+07
 0.42299999E+02 -0.12555E+07
 0.42349998E+02 -0.80231E+06
 0.42399998E+02 -0.40540E+06
 0.42449997E+02 -0.50645E+06
 0.42499996E+02 -0.70668E+06
 0.42549999E+02 -0.11443E+07
 0.42599998E+02 -0.15236E+07
 0.42649998E+02 -0.18990E+07
 0.42699997E+02 -0.17834E+07
 0.42749996E+02 -0.97815E+06
 0.42799995E+02 -0.11548E+06
 0.42849998E+02  0.75272E+06
 0.42899998E+02  0.11035E+07
 0.42949997E+02  0.97916E+06
 0.42999996E+02  0.83139E+06
 0.43049995E+02  0.58274E+06
 0.43099998E+02  0.20002E+06
 0.43149998E+02 -0.30562E+06
 0.43199997E+02 -0.57972E+06
 0.43249996E+02 -0.59488E+06
 0.43299995E+02 -0.45024E+06
 0.43349998E+02 -0.27983E+06
 0.43399998E+02 -0.22359E+06
 0.43449997E+02 -0.46411E+05
 0.43499996E+02  0.79327E+04
 0.43549995E+02  0.18694E+06
 0.43599998E+02  0.35084E+06
 0.43649998E+02  0.13706E+06
 0.43699997E+02 -0.29572E+06
 0.43749996E+02 -0.68880E+06
 0.43799995E+02 -0.68041E+06
 0.43849998E+02 -0.22081E+06
 0.43899998E+02  0.21773E+06
 0.43949997E+02  0.36320E+06
 0.43999996E+02  0.15355E+06
 0.44049995E+02 -0.24251E+06
 0.44099998E+02 -0.32108E+06
 0.44149998E+02  0.17292E+06
 0.44199997E+02  0.72940E+06
 0.44249996E+02  0.51972E+06
 0.44299995E+02  0.63550E+03
 0.44349998E+02 -0.46152E+06
 0.44399998E+02 -0.96455E+06
 0.44449997E+02 -0.13817E+07
 0.44499996E+02 -0.14819E+07
 0.44549995E+02 -0.86881E+06
 0.44599998E+02  0.41914E+06
 0.44649998E+02  0.15839E+07
 0.44699997E+02  0.21716E+07
 0.44749996E+02  0.22249E+07
 0.44799995E+02  0.18540E+07
 0.44849998E+02  0.15867E+07
 0.44899998E+02  0.15682E+07
 0.44949997E+02  0.14575E+07
 0.44999996E+02  0.10696E+07
 0.45049995E+02  0.66320E+06
 0.45099998E+02  0.58906E+06
 0.45149998E+02  0.95113E+06
 0.45199997E+02  0.12355E+07
 0.45249996E+02  0.11353E+07
 0.45299995E+02  0.87327E+06
 0.45349998E+02  0.64562E+06
 0.45399998E+02  0.59655E+06
 0.45449997E+02  0.52961E+06
 0.45499996E+02  0.45838E+06
 0.45549995E+02  0.24257E+06
 0.45599998E+02  0.13031E+06
 0.45649998E+02  0.40486E+06
 0.45699997E+02  0.75655E+06
 0.45749996E+02  0.10098E+07
 0.45799995E+02  0.10171E+07
 0.45849998E+02  0.80419E+06
 0.45899998E+02  0.60634E+06
 0.45949997E+02  0.54941E+06
 0.45999996E+02  0.53038E+06
 0.46049995E+02  0.35854E+06
 0.46099998E+02 -0.13119E+06
 0.46149998E+02 -0.62083E+06
 0.46199997E+02 -0.87454E+06
 0.46249996E+02 -0.11033E+07
 0.46299995E+02 -0.11700E+07
 0.46349998E+02 -0.96227E+06
 0.46399998E+02 -0.81772E+06
 0.46449997E+02 -0.66191E+06
 0.46499996E+02 -0.32503E+06
 0.46549995E+02  0.16843E+06
 0.46599998E+02  0.61359E+06
 0.46649998E+02  0.70997E+06
 0.46699997E+02  0.73379E+06
 0.46749996E+02  0.89472E+06
 0.46799995E+02  0.97684E+06
 0.46849998E+02  0.78005E+06
 0.46899998E+02  0.47203E+06
 0.46949997E+02  0.33549E+06
 0.46999996E+02  0.17545E+06
 0.47049995E+02 -0.19102E+06
 0.47099998E+02 -0.69588E+06
 0.47149998E+02 -0.11776E+07
 0.47199997E+02 -0.13877E+07
 0.47249996E+02 -0.11272E+07
 0.47299995E+02 -0.47021E+06
 0.47349998E+02  0.10444E+06
 0.47399998E+02  0.30738E+06
 0.47449997E+02  0.24193E+06
 0.47499996E+02  0.45704E+05
 0.47549995E+02 -0.15349E+06
 0.47599998E+02 -0.21744E+06
 0.47649998E+02 -0.30427E+05
 0.47699997E+02  0.77458E+05
 0.47749996E+02 -0.16250E+05
 0.47799995E+02 -0.19227E+06
 0.47849998E+02 -0.61983E+06
 0.47899998E+02 -0.10445E+07
 0.47949997E+02 -0.14116E+07
 0.47999996E+02 -0.15944E+07
 0.48049995E+02 -0.15528E+07
 0.48099998E+02 -0.13643E+07
 0.48149998E+02 -0.82748E+06
 0.48199997E+02 -0.16036E+06
 0.48249996E+02  0.34127E+06
 0.48299995E+02  0.68025E+06
 0.48349998E+02  0.11146E+07
 0.48399998E+02  0.15277E+07
 0.48449997E+02  0.15900E+07
 0.48499996E+02  0.13361E+07
 0.48549995E+02  0.99638E+06
 0.48599998E+02  0.68518E+06
 0.48649998E+02  0.34349E+06
 0.48699997E+02  0.34858E+04
 0.48749996E+02 -0.22009E+05
 0.48799995E+02  0.23753E+06
 0.48849998E+02  0.46723E+06
 0.48899998E+02  0.63088E+06
 0.48949997E+02  0.78287E+06
 0.48999996E+02  0.85387E+06
 0.49049995E+02  0.89070E+06
 0.49099998E+02  0.11840E+07
 0.49149998E+02  0.16654E+07
 0.49199997E+02  0.19372E+07
 0.49249996E+02  0.18622E+07
 0.49299995E+02  0.15289E+07
 0.49349998E+02  0.98763E+06
 0.49399998E+02  0.21889E+06
 0.49449997E+02 -0.41401E+06
 0.49499996E+02 -0.63441E+06
 0.49549995E+02 -0.72309E+06
 0.49599998E+02 -0.90483E+06
 0.49649998E+02 -0.12941E+07
 0.49699997E+02 -0.17603E+07
 0.49749996E+02 -0.21419E+07
 0.49799995E+02 -0.23879E+07
 0.49849998E+02 -0.23645E+07
 0.49899998E+02 -0.19948E+07
 0.49949997E+02 -0.13421E+07
 0.49999996E+02 -0.69174E+06
 0.50049995E+02 -0.25540E+06
 0.50099998E+02 -0.17201E+05
 0.50149998E+02  0.98824E+05
 0.50199997E+02  0.28103E+06
 0.50249996E+02  0.37309E+06
 0.50299995E+02  0.28932E+06
 0.50349998E+02  0.19601E+06
 0.50399998E+02  0.10996E+06
 0.50449997E+02  0.53965E+05
 0.50499996E+02 -0.52956E+05
 0.50549995E+02 -0.11380E+06
 0.50599998E+02 -0.49868E+05
 0.50649998E+02 -0.11676E+05
 0.50699997E+02 -0.11778E+06
 0.50749996E+02 -0.25390E+06
 0.50799995E+02 -0.41774E+06
 0.50849998E+02 -0.77333E+06
 0.50899998E+02 -0.11483E+07
 0.50949997E+02 -0.13994E+07
 0.50999996E+02 -0.16557E+07
 0.51049995E+02 -0.19058E+07
 0.51099998E+02 -0.21477E+07
 0.51149998E+02 -0.24611E+07
 0.51199997E+02 -0.27374E+07
 0.51249996E+02 -0.28510E+07
 0.51299995E+02 -0.27813E+07
 0.51349998E+02 -0.26681E+07
 0.51399998E+02 -0.25556E+07
 0.51449997E+02 -0.23938E+07
 0.51499996E+02 -0.22351E+07
 0.51549995E+02 -0.20720E+07
 0.51599998E+02 -0.18971E+07
 0.51649998E+02 -0.16464E+07
 0.51699997E+02 -0.13204E+07
 0.51749996E+02 -0.98783E+06
 0.51799995E+02 -0.59147E+06
 0.51849998E+02 -0.15714E+06
 0.51899998E+02  0.25096E+06
 0.51949997E+02  0.57983E+06
 0.51999996E+02  0.81072E+06
 0.52049995E+02  0.84543E+06
 0.52099998E+02  0.66244E+06
 0.52149998E+02  0.38181E+06
 0.52199997E+02  0.11404E+06
 0.52249996E+02 -0.60625E+05
 0.52299995E+02 -0.21074E+06
 0.52349998E+02 -0.45455E+06
 0.52399998E+02 -0.77897E+06
 0.52449997E+02 -0.10882E+07
 0.52499996E+02 -0.13026E+07
 0.52549995E+02 -0.12228E+07
 0.52599998E+02 -0.84713E+06
 0.52649998E+02 -0.45175E+06
 0.52699997E+02 -0.24708E+06
 0.52749996E+02 -0.66627E+05
 0.52799995E+02  0.17736E+06
 0.52849998E+02  0.23268E+06
 0.52899998E+02  0.23793E+06
 0.52949997E+02  0.36569E+06
 0.52999996E+02  0.64064E+06
 0.53049995E+02  0.10200E+07
 0.53099998E+02  0.12512E+07
 0.53149998E+02  0.11816E+07
 0.53199997E+02  0.88285E+06
 0.53249996E+02  0.61039E+06
 0.53299995E+02  0.53743E+06
 0.53349998E+02  0.75406E+06
 0.53399998E+02  0.10832E+07
 0.53449997E+02  0.12833E+07
 0.53499996E+02  0.13772E+07
 0.53549995E+02  0.13896E+07
 0.53599998E+02  0.14142E+07
 0.53649998E+02  0.15706E+07
 0.53699997E+02  0.17586E+07
 0.53749996E+02  0.18765E+07
 0.53799995E+02  0.19339E+07
 0.53849998E+02  0.18696E+07
 0.53899998E+02  0.15846E+07
 0.53949997E+02  0.11904E+07
 0.53999996E+02  0.75793E+06
 0.54049995E+02  0.27273E+06
 0.54099998E+02 -0.19176E+06
 0.54149998E+02 -0.52577E+06
 0.54199997E+02 -0.60834E+06
 0.54249996E+02 -0.52422E+06
 0.54299995E+02 -0.37280E+06
 0.54349998E+02 -0.11273E+06
 0.54399998E+02  0.35086E+06
 0.54449997E+02  0.83994E+06
 0.54499996E+02  0.10833E+07
 0.54549995E+02  0.11119E+07
 0.54599998E+02  0.12112E+07
 0.54649998E+02  0.13672E+07
 0.54699997E+02  0.13655E+07
 0.54749996E+02  0.12806E+07
 0.54799995E+02  0.11754E+07
 0.54849998E+02  0.11181E+07
 0.54899998E+02  0.10404E+07
 0.54949997E+02  0.82125E+06
 0.54999996E+02  0.53336E+06
 0.55049995E+02  0.30234E+06
 0.55099998E+02  0.21851E+06
 0.55149998E+02  0.15315E+06
 0.55199997E+02 -0.51076E+05
 0.55249996E+02 -0.34208E+06
 0.55299995E+02 -0.61433E+06
 0.55349998E+02 -0.78311E+06
 0.55399998E+02 -0.82344E+06
 0.55449997E+02 -0.78832E+06
 0.55499996E+02 -0.74425E+06
 0.55549995E+02 -0.76827E+06
 0.55599998E+02 -0.84368E+06
 0.55649998E+02 -0.92438E+06
 0.55699997E+02 -0.98727E+06
 0.55749996E+02 -0.10584E+07
 0.55799995E+02 -0.11794E+07
 0.55849995E+02 -0.13083E+07
 0.55899998E+02 -0.13863E+07
 0.55949997E+02 -0.13975E+07
 0.55999996E+02 -0.13505E+07
 0.56049995E+02 -0.11731E+07
 0.56099995E+02 -0.92831E+06
 0.56149998E+02 -0.63865E+06
 0.56199997E+02 -0.23770E+06
 0.56249996E+02  0.34034E+06
 0.56299995E+02  0.10568E+07
 0.56349995E+02  0.16980E+07
 0.56399998E+02  0.21856E+07
 0.56449997E+02  0.24832E+07
 0.56499996E+02  0.25958E+07
 0.56549995E+02  0.25788E+07
 0.56599995E+02  0.25677E+07
 0.56649998E+02  0.26661E+07
 0.56699997E+02  0.27795E+07
 0.56749996E+02  0.28232E+07
 0.56799995E+02  0.27658E+07
 0.56849995E+02  0.26290E+07
 0.56899998E+02  0.23558E+07
 0.56949997E+02  0.18740E+07
 0.56999996E+02  0.13564E+07
 0.57049995E+02  0.95342E+06
 0.57099995E+02  0.63448E+06
 0.57149998E+02  0.32457E+06
 0.57199997E+02 -0.38563E+05
 0.57249996E+02 -0.29886E+06
 0.57299995E+02 -0.32936E+06
 0.57349995E+02 -0.21622E+06
 0.57399998E+02 -0.34784E+05
 0.57449997E+02  0.13523E+06
 0.57499996E+02  0.26619E+06
 0.57549995E+02  0.34671E+06
 0.57599995E+02  0.34981E+06
 0.57649998E+02  0.22776E+06
 0.57699997E+02  0.53904E+05
 0.57749996E+02 -0.10627E+06
 0.57799995E+02 -0.30037E+06
 0.57849995E+02 -0.39742E+06
 0.57899998E+02 -0.34929E+06
 0.57949997E+02 -0.21763E+06
 0.57999996E+02 -0.56924E+05
 0.58049995E+02  0.53721E+05
 0.58099995E+02  0.14573E+06
 0.58149998E+02  0.21741E+06
 0.58199997E+02  0.26081E+06
 0.58249996E+02  0.28079E+06
 0.58299995E+02  0.18066E+06
 0.58349995E+02 -0.61772E+05
 0.58399998E+02 -0.40251E+06
 0.58449997E+02 -0.79807E+06
 0.58499996E+02 -0.11650E+07
 0.58549995E+02 -0.15427E+07
 0.58599995E+02 -0.19531E+07
 0.58649998E+02 -0.22566E+07
 0.58699997E+02 -0.23905E+07
 0.58749996E+02 -0.23960E+07
 0.58799995E+02 -0.23297E+07
 0.58849995E+02 -0.22365E+07
 0.58899998E+02 -0.21583E+07
 0.58949997E+02 -0.21600E+07
 0.58999996E+02 -0.22199E+07
 0.59049995E+02 -0.22963E+07
 0.59099995E+02 -0.23485E+07
 0.59149998E+02 -0.24312E+07
 0.59199997E+02 -0.26007E+07
 0.59249996E+02 -0.27439E+07
 0.59299995E+02 -0.28175E+07
 0.59349995E+02 -0.27560E+07
 0.59399998E+02 -0.25585E+07
 0.59449997E+02 -0.22884E+07
 0.59499996E+02 -0.19919E+07
 0.59549995E+02 -0.17204E+07
 0.59599995E+02 -0.15176E+07
 0.59649998E+02 -0.13225E+07
 0.59699997E+02 -0.10438E+07
 0.59749996E+02 -0.69716E+06
 0.59799995E+02 -0.28998E+06
 0.59849995E+02  0.12524E+06
 0.59899998E+02  0.44755E+06
 0.59949997E+02  0.65616E+06
 0.59999996E+02  0.77767E+06
 0.60049995E+02  0.78690E+06
 0.60099995E+02  0.72073E+06
 0.60149998E+02  0.57732E+06
 0.60199997E+02  0.44668E+06
 0.60249996E+02  0.41937E+06
 0.60299995E+02  0.48098E+06
 0.60349995E+02  0.58277E+06
 0.60399998E+02  0.66562E+06
 0.60449997E+02  0.76655E+06
 0.60499996E+02  0.88566E+06
 0.60549995E+02  0.99714E+06
 0.60599995E+02  0.10516E+07
 0.60649998E+02  0.97032E+06
 0.60699997E+02  0.75137E+06
 0.60749996E+02  0.46301E+06
 0.60799995E+02  0.16366E+06
 0.60849995E+02 -0.13827E+06
 0.60899998E+02 -0.44711E+06
 0.60949997E+02 -0.70841E+06
 0.60999996E+02 -0.91156E+06
 0.61049995E+02 -0.10476E+07
 0.61099995E+02 -0.10874E+07
 0.61149998E+02 -0.10502E+07
 0.61199997E+02 -0.93807E+06
 0.61249996E+02 -0.68465E+06
 0.61299995E+02 -0.20919E+06
 0.61349995E+02  0.45579E+06
 0.61399998E+02  0.12426E+07
 0.61449997E+02  0.20219E+07
 0.61499996E+02  0.26717E+07
 0.61549995E+02  0.31580E+07
 0.61599995E+02  0.34767E+07
 0.61649998E+02  0.36285E+07
 0.61699997E+02  0.36141E+07
 0.61749996E+02  0.34540E+07
 0.61799995E+02  0.32139E+07
 0.61849995E+02  0.29689E+07
 0.61899998E+02  0.27219E+07
 0.61949997E+02  0.25480E+07
 0.61999996E+02  0.24950E+07
 0.62049995E+02  0.25032E+07
 0.62099998E+02  0.25292E+07
 0.62149994E+02  0.26014E+07
 0.62199997E+02  0.26801E+07
 0.62249992E+02  0.26584E+07
 0.62299995E+02  0.24906E+07
 0.62349998E+02  0.21300E+07
 0.62399994E+02  0.16259E+07
 0.62449997E+02  0.10645E+07
 0.62499992E+02  0.56693E+06
 0.62549995E+02  0.21309E+06
 0.62599998E+02 -0.18321E+05
 0.62649994E+02 -0.11096E+06
 0.62699997E+02 -0.84869E+05
 0.62749992E+02  0.30763E+05
 0.62799995E+02  0.18010E+06
 0.62849998E+02  0.32319E+06
 0.62899994E+02  0.44480E+06
 0.62949997E+02  0.53788E+06
 0.62999992E+02  0.54079E+06
 0.63049995E+02  0.41953E+06
 0.63099998E+02  0.26367E+06
 0.63149994E+02  0.99982E+05
 0.63199997E+02 -0.11359E+06
 0.63249992E+02 -0.37995E+06
 0.63299995E+02 -0.64774E+06
 0.63349998E+02 -0.85137E+06
 0.63399994E+02 -0.96498E+06
 0.63449997E+02 -0.10795E+07
 0.63499992E+02 -0.12143E+07
 0.63549995E+02 -0.13884E+07
 0.63599998E+02 -0.16276E+07
 0.63649994E+02 -0.18960E+07
 0.63699997E+02 -0.21412E+07
 0.63749992E+02 -0.22584E+07
 0.63799995E+02 -0.22139E+07
 0.63849998E+02 -0.20683E+07
 0.63899994E+02 -0.19257E+07
 0.63949997E+02 -0.17861E+07
 0.63999992E+02 -0.16474E+07
 0.64049995E+02 -0.15800E+07
 0.64099998E+02 -0.16092E+07
 0.64149994E+02 -0.17280E+07
 0.64199997E+02 -0.18331E+07
 0.64249992E+02 -0.18469E+07
 0.64299995E+02 -0.17558E+07
 0.64349998E+02 -0.15162E+07
 0.64399994E+02 -0.11699E+07
 0.64449997E+02 -0.80034E+06
 0.64499992E+02 -0.43160E+06
 0.64549995E+02 -0.88313E+05
 0.64599998E+02  0.14708E+06
 0.64649994E+02  0.21982E+06
 0.64699997E+02  0.14826E+06
 0.64749992E+02 -0.63043E+05
 0.64799995E+02 -0.39478E+06
 0.64849998E+02 -0.78414E+06
 0.64899994E+02 -0.11573E+07
 0.64949997E+02 -0.14710E+07
 0.64999992E+02 -0.17428E+07
 0.65049995E+02 -0.19656E+07
 0.65099998E+02 -0.20790E+07
 0.65149994E+02 -0.20621E+07
 0.65199997E+02 -0.18895E+07
 0.65249992E+02 -0.15985E+07
 0.65299995E+02 -0.12966E+07
 0.65349998E+02 -0.10307E+07
 0.65399994E+02 -0.85900E+06
 0.65449997E+02 -0.79966E+06
 0.65499992E+02 -0.81770E+06
 0.65549995E+02 -0.84556E+06
 0.65599998E+02 -0.83036E+06
 0.65649994E+02 -0.77349E+06
 0.65699997E+02 -0.68616E+06
 0.65749992E+02 -0.60912E+06
 0.65799995E+02 -0.57690E+06
 0.65849998E+02 -0.59153E+06
 0.65899994E+02 -0.61792E+06
 0.65949997E+02 -0.59180E+06
 0.65999992E+02 -0.49742E+06
 0.66049995E+02 -0.34086E+06
 0.66099998E+02 -0.13370E+06
 0.66149994E+02  0.99650E+05
 0.66199997E+02  0.35213E+06
 0.66249992E+02  0.56547E+06
 0.66299995E+02  0.69606E+06
 0.66349998E+02  0.75010E+06
 0.66399994E+02  0.75993E+06
 0.66449997E+02  0.76807E+06
 0.66499992E+02  0.77842E+06
 0.66549995E+02  0.81419E+06
 0.66599998E+02  0.93453E+06
 0.66649994E+02  0.11885E+07
 0.66699997E+02  0.15339E+07
 0.66749992E+02  0.18945E+07
 0.66799995E+02  0.22303E+07
 0.66849998E+02  0.25255E+07
 0.66899994E+02  0.27867E+07
 0.66949997E+02  0.29713E+07
 0.66999992E+02  0.30426E+07
 0.67049995E+02  0.29832E+07
 0.67099998E+02  0.27864E+07
 0.67149994E+02  0.25042E+07
 0.67199997E+02  0.21940E+07
 0.67249992E+02  0.19117E+07
 0.67299995E+02  0.16621E+07
 0.67349998E+02  0.13891E+07
 0.67399994E+02  0.10626E+07
 0.67449997E+02  0.68165E+06
 0.67499992E+02  0.26359E+06
 0.67549995E+02 -0.14100E+06
 0.67599998E+02 -0.51648E+06
 0.67649994E+02 -0.87186E+06
 0.67699997E+02 -0.11454E+07
 0.67749992E+02 -0.13095E+07
 0.67799995E+02 -0.14000E+07
 0.67849998E+02 -0.14904E+07
 0.67899994E+02 -0.15878E+07
 0.67949997E+02 -0.15992E+07
 0.67999992E+02 -0.15188E+07
 0.68049995E+02 -0.13823E+07
 0.68099998E+02 -0.12261E+07
 0.68149994E+02 -0.10676E+07
 0.68199997E+02 -0.90919E+06
 0.68249992E+02 -0.74860E+06
 0.68299995E+02 -0.55732E+06
 0.68349998E+02 -0.32919E+06
 0.68399994E+02 -0.72398E+05
 0.68449997E+02  0.19292E+06
 0.68499992E+02  0.46508E+06
 0.68549995E+02  0.74078E+06
 0.68599998E+02  0.10218E+07
 0.68649994E+02  0.12816E+07
 0.68699997E+02  0.14613E+07
 0.68749992E+02  0.15403E+07
 0.68799995E+02  0.15160E+07
 0.68849998E+02  0.14442E+07
 0.68899994E+02  0.13633E+07
 0.68949997E+02  0.12595E+07
 0.68999992E+02  0.11098E+07
 0.69049995E+02  0.91559E+06
 0.69099998E+02  0.71880E+06
 0.69149994E+02  0.52099E+06
 0.69199997E+02  0.32366E+06
 0.69249992E+02  0.13348E+06
 0.69299995E+02 -0.29502E+05
 0.69349998E+02 -0.13474E+06
 0.69399994E+02 -0.18247E+06
 0.69449997E+02 -0.21843E+06
 0.69499992E+02 -0.26909E+06
 0.69549995E+02 -0.30123E+06
 0.69599998E+02 -0.30114E+06
 0.69649994E+02 -0.32150E+06
 0.69699997E+02 -0.38579E+06
 0.69749992E+02 -0.44422E+06
 0.69799995E+02 -0.47458E+06
 0.69849998E+02 -0.48807E+06
 0.69899994E+02 -0.50407E+06
 0.69949997E+02 -0.51802E+06
 0.69999992E+02 -0.50873E+06
 0.70049995E+02 -0.45458E+06
 0.70099998E+02 -0.35656E+06
 0.70149994E+02 -0.23880E+06
 0.70199997E+02 -0.99510E+05
 0.70249992E+02  0.69834E+05
 0.70299995E+02  0.24697E+06
 0.70349998E+02  0.40508E+06
 0.70399994E+02  0.52822E+06
 0.70449997E+02  0.61130E+06
 0.70499992E+02  0.64487E+06
 0.70549995E+02  0.61165E+06
 0.70599998E+02  0.50339E+06
 0.70649994E+02  0.34945E+06
 0.70699997E+02  0.21415E+06
 0.70749992E+02  0.13075E+06
 0.70799995E+02  0.83748E+05
 0.70849998E+02  0.49062E+05
 0.70899994E+02  0.11157E+05
 0.70949997E+02 -0.34292E+05
 0.70999992E+02 -0.65800E+05
 0.71049995E+02 -0.83054E+05
 0.71099998E+02 -0.12853E+06
 0.71149994E+02 -0.24088E+06
 0.71199997E+02 -0.40268E+06
 0.71249992E+02 -0.58577E+06
 0.71299995E+02 -0.73598E+06
 0.71349998E+02 -0.77741E+06
 0.71399994E+02 -0.69007E+06
 0.71449997E+02 -0.48742E+06
 0.71499992E+02 -0.23473E+06
 0.71549995E+02  0.21738E+05
 0.71599998E+02  0.24672E+06
 0.71649994E+02  0.39793E+06
 0.71699997E+02  0.45492E+06
 0.71749992E+02  0.39037E+06
 0.71799995E+02  0.21281E+06
 0.71849998E+02 -0.21704E+05
 0.71899994E+02 -0.22791E+06
 0.71949997E+02 -0.37002E+06
 0.71999992E+02 -0.44654E+06
 0.72049995E+02 -0.48595E+06
 0.72099998E+02 -0.52720E+06
 0.72149994E+02 -0.55596E+06
 0.72199997E+02 -0.56402E+06
 0.72249992E+02 -0.54607E+06
 0.72299995E+02 -0.49088E+06
 0.72349998E+02 -0.41411E+06
 0.72399994E+02 -0.34432E+06
 0.72449997E+02 -0.29321E+06
 0.72499992E+02 -0.28143E+06
 0.72549995E+02 -0.32037E+06
 0.72599998E+02 -0.40606E+06
 0.72649994E+02 -0.53180E+06
 0.72699997E+02 -0.67374E+06
 0.72749992E+02 -0.80642E+06
 0.72799995E+02 -0.91408E+06
 0.72849998E+02 -0.98949E+06
 0.72899994E+02 -0.10215E+07
 0.72949997E+02 -0.10153E+07
 0.72999992E+02 -0.94987E+06
 0.73049995E+02 -0.82606E+06
 0.73099998E+02 -0.68460E+06
 0.73149994E+02 -0.52880E+06
 0.73199997E+02 -0.35503E+06
 0.73249992E+02 -0.19833E+06
 0.73299995E+02 -0.10427E+06
 0.73349998E+02 -0.55356E+05
 0.73399994E+02 -0.20112E+05
 0.73449997E+02 -0.25074E+05
 0.73499992E+02 -0.88058E+05
 0.73549995E+02 -0.19470E+06
 0.73599998E+02 -0.32773E+06
 0.73649994E+02 -0.46291E+06
 0.73699997E+02 -0.55570E+06
 0.73749992E+02 -0.58016E+06
 0.73799995E+02 -0.55137E+06
 0.73849998E+02 -0.48234E+06
 0.73899994E+02 -0.38616E+06
 0.73949997E+02 -0.24701E+06
 0.73999992E+02 -0.79767E+05
 0.74049995E+02  0.91702E+05
 0.74099998E+02  0.28465E+06
 0.74149994E+02  0.52012E+06
 0.74199997E+02  0.76894E+06
 0.74249992E+02  0.97279E+06
 0.74299995E+02  0.11192E+07
 0.74349998E+02  0.12156E+07
 0.74399994E+02  0.12680E+07
 0.74449997E+02  0.12693E+07
 0.74499992E+02  0.12316E+07
 0.74549995E+02  0.11514E+07
 0.74599998E+02  0.10378E+07
 0.74649994E+02  0.90857E+06
 0.74699997E+02  0.76604E+06
 0.74749992E+02  0.62542E+06
 0.74799995E+02  0.49815E+06
 0.74849998E+02  0.38553E+06
 0.74899994E+02  0.28431E+06
 0.74949997E+02  0.22092E+06
 0.74999992E+02  0.22274E+06
 0.75049995E+02  0.28238E+06
 0.75099998E+02  0.36965E+06
 0.75149994E+02  0.47530E+06
 0.75199997E+02  0.60772E+06
 0.75249992E+02  0.74253E+06
 0.75299995E+02  0.84102E+06
 0.75349998E+02  0.86932E+06
 0.75399994E+02  0.80542E+06
 0.75449997E+02  0.69770E+06
 0.75499992E+02  0.59821E+06
 0.75549995E+02  0.51756E+06
 0.75599998E+02  0.44984E+06
 0.75649994E+02  0.40405E+06
 0.75699997E+02  0.38100E+06
 0.75749992E+02  0.37177E+06
 0.75799995E+02  0.38998E+06
 0.75849998E+02  0.40160E+06
 0.75899994E+02  0.39572E+06
 0.75949997E+02  0.40327E+06
 0.75999992E+02  0.43018E+06
 0.76049995E+02  0.45581E+06
 0.76099998E+02  0.45651E+06
 0.76149994E+02  0.43441E+06
 0.76199997E+02  0.38869E+06
 0.76249992E+02  0.32059E+06
 0.76299995E+02  0.25494E+06
 0.76349998E+02  0.20160E+06
 0.76399994E+02  0.15959E+06
 0.76449997E+02  0.12944E+06
 0.76499992E+02  0.11599E+06
 0.76549995E+02  0.12140E+06
 0.76599998E+02  0.12377E+06
 0.76649994E+02  0.10507E+06
 0.76699997E+02  0.61391E+05
 0.76749992E+02 -0.16880E+05
 0.76799995E+02 -0.12940E+06
 0.76849998E+02 -0.24843E+06
 0.76899994E+02 -0.35214E+06
 0.76949997E+02 -0.44160E+06
 0.76999992E+02 -0.52761E+06
 0.77049995E+02 -0.60786E+06
 0.77099998E+02 -0.68040E+06
 0.77149994E+02 -0.75370E+06
 0.77199997E+02 -0.81995E+06
 0.77249992E+02 -0.85021E+06
 0.77299995E+02 -0.83864E+06
 0.77349998E+02 -0.82770E+06
 0.77399994E+02 -0.85586E+06
 0.77449997E+02 -0.90867E+06
 0.77499992E+02 -0.96150E+06
 0.77549995E+02 -0.10049E+07
 0.77599998E+02 -0.10268E+07
 0.77649994E+02 -0.10633E+07
 0.77699997E+02 -0.11378E+07
 0.77749992E+02 -0.12207E+07
 0.77799995E+02 -0.12925E+07
 0.77849998E+02 -0.13492E+07
 0.77899994E+02 -0.13921E+07
 0.77949997E+02 -0.14035E+07
 0.77999992E+02 -0.13505E+07
 0.78049995E+02 -0.12323E+07
 0.78099998E+02 -0.10731E+07
 0.78149994E+02 -0.90884E+06
 0.78199997E+02 -0.74698E+06
 0.78249992E+02 -0.57881E+06
 0.78299995E+02 -0.39825E+06
 0.78349998E+02 -0.18392E+06
 0.78399994E+02  0.50357E+05
 0.78449997E+02  0.26530E+06
 0.78499992E+02  0.43721E+06
 0.78549995E+02  0.57746E+06
 0.78599998E+02  0.67435E+06
 0.78649994E+02  0.71183E+06
 0.78699997E+02  0.73847E+06
 0.78749992E+02  0.81085E+06
 0.78799995E+02  0.92033E+06
 0.78849998E+02  0.10239E+07
 0.78899994E+02  0.10971E+07
 0.78949997E+02  0.11198E+07
 0.78999992E+02  0.10843E+07
 0.79049995E+02  0.10166E+07
 0.79099998E+02  0.94683E+06
 0.79149994E+02  0.88298E+06
 0.79199997E+02  0.82145E+06
 0.79249992E+02  0.74385E+06
 0.79299995E+02  0.63773E+06
 0.79349998E+02  0.49877E+06
 0.79399994E+02  0.34202E+06
 0.79449997E+02  0.20105E+06
 0.79499992E+02  0.90034E+05
 0.79549995E+02  0.25075E+04
 0.79599998E+02 -0.54592E+05
 0.79649994E+02 -0.69336E+05
 0.79699997E+02 -0.45454E+05
 0.79749992E+02  0.53002E+04
 0.79799995E+02  0.71415E+05
 0.79849998E+02  0.13455E+06
 0.79899994E+02  0.17780E+06
 0.79949997E+02  0.20491E+06
 0.79999992E+02  0.22121E+06
 0.80049995E+02  0.25474E+06
 0.80099998E+02  0.31466E+06
 0.80149994E+02  0.39602E+06
 0.80199997E+02  0.49070E+06
 0.80249992E+02  0.56735E+06
 0.80299995E+02  0.61380E+06
 0.80349998E+02  0.63364E+06
 0.80399994E+02  0.63591E+06
 0.80449997E+02  0.60249E+06
 0.80499992E+02  0.50930E+06
 0.80549995E+02  0.35797E+06
 0.80599998E+02  0.17463E+06
 0.80649994E+02 -0.46952E+04
 0.80699997E+02 -0.15943E+06
 0.80749992E+02 -0.29822E+06
 0.80799995E+02 -0.44173E+06
 0.80849998E+02 -0.58694E+06
 0.80899994E+02 -0.73443E+06
 0.80949997E+02 -0.89775E+06
 0.80999992E+02 -0.10595E+07
 0.81049995E+02 -0.11844E+07
 0.81099998E+02 -0.12635E+07
 0.81149994E+02 -0.13051E+07
 0.81199997E+02 -0.13125E+07
 0.81249992E+02 -0.12750E+07
 0.81299995E+02 -0.11813E+07
 0.81349998E+02 -0.10499E+07
 0.81399994E+02 -0.91143E+06
 0.81449997E+02 -0.76209E+06
 0.81499992E+02 -0.60414E+06
 0.81549995E+02 -0.44056E+06
 0.81599998E+02 -0.25665E+06
 0.81649994E+02 -0.48596E+05
 0.81699997E+02  0.16995E+06
 0.81749992E+02  0.35808E+06
 0.81799995E+02  0.49740E+06
 0.81849998E+02  0.60201E+06
 0.81899994E+02  0.68270E+06
 0.81949997E+02  0.74382E+06
 0.81999992E+02  0.79452E+06
 0.82049995E+02  0.83023E+06
 0.82099998E+02  0.84613E+06
 0.82149994E+02  0.86642E+06
 0.82199997E+02  0.89837E+06
 0.82249992E+02  0.92626E+06
 0.82299995E+02  0.92261E+06
 0.82349998E+02  0.87017E+06
 0.82399994E+02  0.76651E+06
 0.82449997E+02  0.62332E+06
 0.82499992E+02  0.45906E+06
 0.82549995E+02  0.28399E+06
 0.82599998E+02  0.12276E+06
 0.82649994E+02 -0.25446E+05
 0.82699997E+02 -0.17272E+06
 0.82749992E+02 -0.31303E+06
 0.82799995E+02 -0.44897E+06
 0.82849998E+02 -0.56528E+06
 0.82899994E+02 -0.63838E+06
 0.82949997E+02 -0.66327E+06
 0.82999992E+02 -0.62427E+06
 0.83049995E+02 -0.51641E+06
 0.83099998E+02 -0.34361E+06
 0.83149994E+02 -0.11873E+06
 0.83199997E+02  0.12100E+06
 0.83249992E+02  0.34908E+06
 0.83299995E+02  0.54058E+06
 0.83349998E+02  0.69131E+06
 0.83399994E+02  0.82213E+06
 0.83449997E+02  0.94732E+06
 0.83499992E+02  0.10494E+07
 0.83549995E+02  0.11033E+07
 0.83599998E+02  0.11089E+07
 0.83649994E+02  0.10755E+07
 0.83699997E+02  0.10348E+07
 0.83749992E+02  0.10012E+07
 0.83799995E+02  0.96762E+06
 0.83849998E+02  0.92894E+06
 0.83899994E+02  0.85634E+06
 0.83949997E+02  0.73879E+06
 0.83999992E+02  0.57751E+06
 0.84049995E+02  0.37332E+06
 0.84099998E+02  0.14136E+06
 0.84149994E+02 -0.94574E+05
 0.84199997E+02 -0.31669E+06
 0.84249992E+02 -0.52173E+06
 0.84299995E+02 -0.69504E+06
 0.84349998E+02 -0.83338E+06
 0.84399994E+02 -0.93794E+06
 0.84449997E+02 -0.10047E+07
 0.84499992E+02 -0.10396E+07
 0.84549995E+02 -0.10550E+07
 0.84599998E+02 -0.10523E+07
 0.84649994E+02 -0.10456E+07
 0.84699997E+02 -0.10409E+07
 0.84749992E+02 -0.10207E+07
 0.84799995E+02 -0.98262E+06
 0.84849998E+02 -0.93449E+06
 0.84899994E+02 -0.89092E+06
 0.84949997E+02 -0.84315E+06
 0.84999992E+02 -0.79824E+06
 0.85049995E+02 -0.77422E+06
 0.85099998E+02 -0.75973E+06
 0.85149994E+02 -0.73986E+06
 0.85199997E+02 -0.70595E+06
 0.85249992E+02 -0.66426E+06
 0.85299995E+02 -0.60937E+06
 0.85349998E+02 -0.53122E+06
 0.85399994E+02 -0.43996E+06
 0.85449997E+02 -0.34342E+06
 0.85499992E+02 -0.24217E+06
 0.85549995E+02 -0.13299E+06
 0.85599998E+02 -0.12182E+05
 0.85649994E+02  0.13746E+06
 0.85699997E+02  0.31329E+06
 0.85749992E+02  0.49763E+06
 0.85799995E+02  0.66798E+06
 0.85849998E+02  0.78993E+06
 0.85899994E+02  0.85261E+06
 0.85949997E+02  0.85192E+06
 0.85999992E+02  0.78596E+06
 0.86049995E+02  0.66770E+06
 0.86099998E+02  0.53537E+06
 0.86149994E+02  0.41367E+06
 0.86199997E+02  0.31075E+06
 0.86249992E+02  0.22708E+06
 0.86299995E+02  0.15838E+06
 0.86349998E+02  0.10344E+06
 0.86399994E+02  0.60098E+05
 0.86449997E+02  0.27603E+05
 0.86499992E+02 -0.41704E+04
 0.86549995E+02 -0.30447E+05
 0.86599998E+02 -0.41470E+05
 0.86649994E+02 -0.31640E+05
 0.86699997E+02  0.31542E+04
 0.86749992E+02  0.63800E+05
 0.86799995E+02  0.13890E+06
 0.86849998E+02  0.21990E+06
 0.86899994E+02  0.31509E+06
 0.86949997E+02  0.42326E+06
 0.86999992E+02  0.53755E+06
 0.87049995E+02  0.66392E+06
 0.87099998E+02  0.80104E+06
 0.87149994E+02  0.92130E+06
 0.87199997E+02  0.10017E+07
 0.87249992E+02  0.10406E+07
 0.87299995E+02  0.10542E+07
 0.87349998E+02  0.10568E+07
 0.87399994E+02  0.10285E+07
 0.87449997E+02  0.95305E+06
 0.87499992E+02  0.82460E+06
 0.87549995E+02  0.63678E+06
 0.87599991E+02  0.41685E+06
 0.87649994E+02  0.19464E+06
 0.87699997E+02 -0.10165E+05
 0.87749992E+02 -0.18762E+06
 0.87799995E+02 -0.34118E+06
 0.87849991E+02 -0.47713E+06
 0.87899994E+02 -0.58606E+06
 0.87949997E+02 -0.65768E+06
 0.87999992E+02 -0.69739E+06
 0.88049995E+02 -0.71342E+06
 0.88099991E+02 -0.72999E+06
 0.88149994E+02 -0.76683E+06
 0.88199997E+02 -0.81718E+06
 0.88249992E+02 -0.86719E+06
 0.88299995E+02 -0.90042E+06
 0.88349991E+02 -0.90958E+06
 0.88399994E+02 -0.90413E+06
 0.88449997E+02 -0.88491E+06
 0.88499992E+02 -0.85552E+06
 0.88549995E+02 -0.80705E+06
 0.88599991E+02 -0.72243E+06
 0.88649994E+02 -0.61026E+06
 0.88699997E+02 -0.49853E+06
 0.88749992E+02 -0.40076E+06
 0.88799995E+02 -0.32181E+06
 0.88849991E+02 -0.26430E+06
 0.88899994E+02 -0.21231E+06
 0.88949997E+02 -0.16640E+06
 0.88999992E+02 -0.14695E+06
 0.89049995E+02 -0.16503E+06
 0.89099991E+02 -0.19850E+06
 0.89149994E+02 -0.22394E+06
 0.89199997E+02 -0.23685E+06
 0.89249992E+02 -0.25234E+06
 0.89299995E+02 -0.27362E+06
 0.89349991E+02 -0.28638E+06
 0.89399994E+02 -0.27704E+06
 0.89449997E+02 -0.24124E+06
 0.89499992E+02 -0.19508E+06
 0.89549995E+02 -0.14445E+06
 0.89599991E+02 -0.92441E+05
 0.89649994E+02 -0.37656E+05
 0.89699997E+02  0.21347E+05
 0.89749992E+02  0.88059E+05
 0.89799995E+02  0.16440E+06
 0.89849991E+02  0.23297E+06
 0.89899994E+02  0.26245E+06
 0.89949997E+02  0.25226E+06
 0.89999992E+02  0.22486E+06
 0.90049995E+02  0.19228E+06
 0.90099991E+02  0.17588E+06
 0.90149994E+02  0.18397E+06
 0.90199997E+02  0.21872E+06
 0.90249992E+02  0.28364E+06
 0.90299995E+02  0.36937E+06
 0.90349991E+02  0.45837E+06
 0.90399994E+02  0.54010E+06
 0.90449997E+02  0.60418E+06
 0.90499992E+02  0.63917E+06
 0.90549995E+02  0.65138E+06
 0.90599991E+02  0.65094E+06
 0.90649994E+02  0.64395E+06
 0.90699997E+02  0.63402E+06
 0.90749992E+02  0.61474E+06
 0.90799995E+02  0.57614E+06
 0.90849991E+02  0.50918E+06
 0.90899994E+02  0.42296E+06
 0.90949997E+02  0.35787E+06
 0.90999992E+02  0.33872E+06
 0.91049995E+02  0.35619E+06
 0.91099991E+02  0.38359E+06
 0.91149994E+02  0.39791E+06
 0.91199997E+02  0.39165E+06
 0.91249992E+02  0.36824E+06
 0.91299995E+02  0.32962E+06
 0.91349991E+02  0.28479E+06
 0.91399994E+02  0.24287E+06
 0.91449997E+02  0.19180E+06
 0.91499992E+02  0.12430E+06
 0.91549995E+02  0.38976E+05
 0.91599991E+02 -0.58689E+05
 0.91649994E+02 -0.14392E+06
 0.91699997E+02 -0.20536E+06
 0.91749992E+02 -0.24498E+06
 0.91799995E+02 -0.26533E+06
 0.91849991E+02 -0.28045E+06
 0.91899994E+02 -0.30137E+06
 0.91949997E+02 -0.33955E+06
 0.91999992E+02 -0.39147E+06
 0.92049995E+02 -0.43514E+06
 0.92099991E+02 -0.45528E+06
 0.92149994E+02 -0.44003E+06
 0.92199997E+02 -0.39031E+06
 0.92249992E+02 -0.31948E+06
 0.92299995E+02 -0.24305E+06
 0.92349991E+02 -0.17200E+06
 0.92399994E+02 -0.10028E+06
 0.92449997E+02 -0.27824E+05
 0.92499992E+02  0.36707E+05
 0.92549995E+02  0.91779E+05
 0.92599991E+02  0.13803E+06
 0.92649994E+02  0.17616E+06
 0.92699997E+02  0.20237E+06
 0.92749992E+02  0.21111E+06
 0.92799995E+02  0.20147E+06
 0.92849991E+02  0.18129E+06
 0.92899994E+02  0.15191E+06
 0.92949997E+02  0.11491E+06
 0.92999992E+02  0.82971E+05
 0.93049995E+02  0.61034E+05
 0.93099991E+02  0.31784E+05
 0.93149994E+02 -0.32755E+05
 0.93199997E+02 -0.13133E+06
 0.93249992E+02 -0.24145E+06
 0.93299995E+02 -0.34226E+06
 0.93349991E+02 -0.41547E+06
 0.93399994E+02 -0.45276E+06
 0.93449997E+02 -0.45056E+06
 0.93499992E+02 -0.41911E+06
 0.93549995E+02 -0.37339E+06
 0.93599991E+02 -0.31817E+06
 0.93649994E+02 -0.25881E+06
 0.93699997E+02 -0.20367E+06
 0.93749992E+02 -0.15461E+06
 0.93799995E+02 -0.94082E+05
 0.93849991E+02 -0.14442E+05
 0.93899994E+02  0.76262E+05
 0.93949997E+02  0.17116E+06
 0.93999992E+02  0.26244E+06
 0.94049995E+02  0.34095E+06
 0.94099991E+02  0.40412E+06
 0.94149994E+02  0.46777E+06
 0.94199997E+02  0.54604E+06
 0.94249992E+02  0.63366E+06
 0.94299995E+02  0.71179E+06
 0.94349991E+02  0.76272E+06
 0.94399994E+02  0.78250E+06
 0.94449997E+02  0.77436E+06
 0.94499992E+02  0.74218E+06
 0.94549995E+02  0.69956E+06
 0.94599991E+02  0.65673E+06
 0.94649994E+02  0.61678E+06
 0.94699997E+02  0.57961E+06
 0.94749992E+02  0.53905E+06
 0.94799995E+02  0.49252E+06
 0.94849991E+02  0.43972E+06
 0.94899994E+02  0.38106E+06
 0.94949997E+02  0.31676E+06
 0.94999992E+02  0.24596E+06
 0.95049995E+02  0.16864E+06
 0.95099991E+02  0.80145E+05
 0.95149994E+02 -0.24278E+05
 0.95199997E+02 -0.13608E+06
 0.95249992E+02 -0.23879E+06
 0.95299995E+02 -0.32750E+06
 0.95349991E+02 -0.40716E+06
 0.95399994E+02 -0.47374E+06
 0.95449997E+02 -0.53440E+06
 0.95499992E+02 -0.60025E+06
 0.95549995E+02 -0.66852E+06
 0.95599991E+02 -0.73203E+06
 0.95649994E+02 -0.77852E+06
 0.95699997E+02 -0.80621E+06
 0.95749992E+02 -0.81155E+06
 0.95799995E+02 -0.79173E+06
 0.95849991E+02 -0.75807E+06
 0.95899994E+02 -0.72379E+06
 0.95949997E+02 -0.69886E+06
 0.95999992E+02 -0.67028E+06
 0.96049995E+02 -0.61977E+06
 0.96099991E+02 -0.54434E+06
 0.96149994E+02 -0.44651E+06
 0.96199997E+02 -0.34106E+06
 0.96249992E+02 -0.22933E+06
 0.96299995E+02 -0.10985E+06
 0.96349991E+02  0.56706E+04
 0.96399994E+02  0.10723E+06
 0.96449997E+02  0.18556E+06
 0.96499992E+02  0.23964E+06
 0.96549995E+02  0.26203E+06
 0.96599991E+02  0.25162E+06
 0.96649994E+02  0.21963E+06
 0.96699997E+02  0.17637E+06
 0.96749992E+02  0.12833E+06
 0.96799995E+02  0.69217E+05
 0.96849991E+02 -0.24074E+04
 0.96899994E+02 -0.77038E+05
 0.96949997E+02 -0.14236E+06
 0.96999992E+02 -0.19541E+06
 0.97049995E+02 -0.23661E+06
 0.97099991E+02 -0.26089E+06
 0.97149994E+02 -0.26644E+06
 0.97199997E+02 -0.25654E+06
 0.97249992E+02 -0.24395E+06
 0.97299995E+02 -0.24058E+06
 0.97349991E+02 -0.24937E+06
 0.97399994E+02 -0.26551E+06
 0.97449997E+02 -0.27945E+06
 0.97499992E+02 -0.28321E+06
 0.97549995E+02 -0.27050E+06
 0.97599991E+02 -0.23524E+06
 0.97649994E+02 -0.17326E+06
 0.97699997E+02 -0.91025E+05
 0.97749992E+02 -0.37070E+04
 0.97799995E+02  0.82922E+05
 0.97849991E+02  0.16591E+06
 0.97899994E+02  0.23692E+06
 0.97949997E+02  0.29358E+06
 0.97999992E+02  0.34004E+06
