-0.20000000E+01 -0.26832E+04
-0.19500000E+01 -0.26560E+04
-0.19000000E+01 -0.26556E+04
-0.18500000E+01 -0.26490E+04
-0.18000000E+01 -0.26487E+04
-0.17500000E+01 -0.26468E+04
-0.17000000E+01 -0.26415E+04
-0.16500001E+01 -0.26381E+04
-0.16000000E+01 -0.26254E+04
-0.15500000E+01 -0.26167E+04
-0.15000000E+01 -0.26301E+04
-0.14500000E+01 -0.26387E+04
-0.14000001E+01 -0.26385E+04
-0.13500000E+01 -0.26436E+04
-0.13000001E+01 -0.26416E+04
-0.12500000E+01 -0.26458E+04
-0.12000000E+01 -0.26505E+04
-0.11500001E+01 -0.26637E+04
-0.11000000E+01 -0.26710E+04
-0.10500001E+01 -0.26672E+04
-0.10000000E+01 -0.26688E+04
-0.95000005E+00 -0.26718E+04
-0.90000010E+00 -0.26700E+04
-0.85000002E+00 -0.26618E+04
-0.80000007E+00 -0.26609E+04
-0.75000012E+00 -0.26662E+04
-0.70000005E+00 -0.26668E+04
-0.65000010E+00 -0.26536E+04
-0.60000014E+00 -0.26533E+04
-0.55000007E+00 -0.26614E+04
-0.50000012E+00 -0.26623E+04
-0.45000005E+00 -0.26634E+04
-0.40000010E+00 -0.26591E+04
-0.35000014E+00 -0.26663E+04
-0.30000007E+00 -0.26720E+04
-0.25000012E+00 -0.26701E+04
-0.20000005E+00 -0.26739E+04
-0.15000010E+00 -0.26652E+04
-0.10000014E+00 -0.26587E+04
-0.50000072E-01 -0.26604E+04
-0.11920929E-06 -0.26584E+04
 0.49999952E-01 -0.26618E+04
 0.99999905E-01 -0.26528E+04
 0.14999986E+00 -0.26541E+04
 0.19999981E+00 -0.26638E+04
 0.24999976E+00 -0.26514E+04
 0.29999995E+00 -0.26476E+04
 0.34999990E+00 -0.26547E+04
 0.39999986E+00 -0.26744E+04
 0.44999981E+00 -0.26888E+04
 0.49999976E+00 -0.26709E+04
 0.54999995E+00 -0.26822E+04
 0.59999990E+00 -0.26842E+04
 0.64999986E+00 -0.26617E+04
 0.69999981E+00 -0.26633E+04
 0.74999976E+00 -0.26631E+04
 0.79999971E+00 -0.26659E+04
 0.84999990E+00 -0.26681E+04
 0.89999986E+00 -0.26635E+04
 0.94999981E+00 -0.26596E+04
 0.99999976E+00 -0.26700E+04
 0.10499997E+01 -0.26706E+04
 0.10999999E+01 -0.26617E+04
 0.11499999E+01 -0.26516E+04
 0.11999998E+01 -0.26515E+04
 0.12499998E+01 -0.26411E+04
 0.12999997E+01 -0.26541E+04
 0.13499999E+01 -0.26690E+04
 0.13999999E+01 -0.26529E+04
 0.14499998E+01 -0.26661E+04
 0.14999998E+01 -0.26657E+04
 0.15499997E+01 -0.26630E+04
 0.15999999E+01 -0.26705E+04
 0.16499999E+01 -0.26722E+04
 0.16999998E+01 -0.26875E+04
 0.17499998E+01 -0.26895E+04
 0.17999997E+01 -0.26799E+04
 0.18499997E+01 -0.26817E+04
 0.18999999E+01 -0.26837E+04
 0.19499998E+01 -0.26808E+04
 0.19999998E+01 -0.26779E+04
 0.20499997E+01 -0.26768E+04
 0.20999999E+01 -0.26752E+04
 0.21499996E+01 -0.26873E+04
 0.21999998E+01 -0.26783E+04
 0.22499995E+01 -0.26546E+04
 0.22999997E+01 -0.26596E+04
 0.23499999E+01 -0.26750E+04
 0.23999996E+01 -0.26801E+04
 0.24499998E+01 -0.26738E+04
 0.24999995E+01 -0.26675E+04
 0.25499997E+01 -0.26551E+04
 0.25999999E+01 -0.26489E+04
 0.26499996E+01 -0.26528E+04
 0.26999998E+01 -0.26461E+04
 0.27499995E+01 -0.26426E+04
 0.27999997E+01 -0.26604E+04
 0.28499999E+01 -0.26616E+04
 0.28999996E+01 -0.26591E+04
 0.29499998E+01 -0.26594E+04
 0.29999995E+01 -0.26568E+04
 0.30499997E+01 -0.26538E+04
 0.30999999E+01 -0.26601E+04
 0.31499996E+01 -0.26641E+04
 0.31999998E+01 -0.26604E+04
 0.32499995E+01 -0.26649E+04
 0.32999997E+01 -0.26669E+04
 0.33499999E+01 -0.26669E+04
 0.33999996E+01 -0.26486E+04
 0.34499998E+01 -0.26576E+04
 0.34999995E+01 -0.26585E+04
 0.35499997E+01 -0.26620E+04
 0.35999994E+01 -0.26678E+04
 0.36499996E+01 -0.26518E+04
 0.36999998E+01 -0.26516E+04
 0.37499995E+01 -0.26542E+04
 0.37999997E+01 -0.26612E+04
 0.38499994E+01 -0.26492E+04
 0.38999996E+01 -0.26442E+04
 0.39499998E+01 -0.26420E+04
 0.39999995E+01 -0.26254E+04
 0.40499997E+01 -0.26391E+04
 0.40999994E+01 -0.26483E+04
 0.41499996E+01 -0.26464E+04
 0.41999998E+01 -0.26515E+04
 0.42499995E+01 -0.26476E+04
 0.42999997E+01 -0.26492E+04
 0.43499994E+01 -0.26635E+04
 0.43999996E+01 -0.26628E+04
 0.44499998E+01 -0.26620E+04
 0.44999995E+01 -0.26749E+04
 0.45499997E+01 -0.26786E+04
 0.45999994E+01 -0.26730E+04
 0.46499996E+01 -0.26701E+04
 0.46999998E+01 -0.26714E+04
 0.47499995E+01 -0.26609E+04
 0.47999997E+01 -0.26667E+04
 0.48499994E+01 -0.26660E+04
 0.48999996E+01 -0.26576E+04
 0.49499998E+01 -0.26585E+04
 0.49999995E+01 -0.26587E+04
 0.50499997E+01 -0.26543E+04
 0.50999994E+01 -0.26626E+04
 0.51499996E+01 -0.26735E+04
 0.51999998E+01 -0.26716E+04
 0.52499995E+01 -0.26658E+04
 0.52999997E+01 -0.26644E+04
 0.53499994E+01 -0.26706E+04
 0.53999996E+01 -0.26747E+04
 0.54499993E+01 -0.26808E+04
 0.54999995E+01 -0.26836E+04
 0.55499997E+01 -0.26869E+04
 0.55999994E+01 -0.26824E+04
 0.56499996E+01 -0.26636E+04
 0.56999993E+01 -0.26536E+04
 0.57499995E+01 -0.26584E+04
 0.57999997E+01 -0.26519E+04
 0.58499994E+01 -0.26516E+04
 0.58999996E+01 -0.26579E+04
 0.59499993E+01 -0.26498E+04
 0.59999995E+01 -0.26442E+04
 0.60499992E+01 -0.26462E+04
 0.60999994E+01 -0.26344E+04
 0.61499996E+01 -0.26376E+04
 0.61999998E+01 -0.26466E+04
 0.62499990E+01 -0.26389E+04
 0.62999992E+01 -0.26459E+04
 0.63499994E+01 -0.26526E+04
 0.63999996E+01 -0.26516E+04
 0.64499998E+01 -0.26558E+04
 0.64999990E+01 -0.26536E+04
 0.65499992E+01 -0.26466E+04
 0.65999994E+01 -0.26524E+04
 0.66499996E+01 -0.26607E+04
 0.66999998E+01 -0.26578E+04
 0.67499990E+01 -0.26530E+04
 0.67999992E+01 -0.26623E+04
 0.68499994E+01 -0.26644E+04
 0.68999996E+01 -0.26670E+04
 0.69499998E+01 -0.26764E+04
 0.69999990E+01 -0.26764E+04
 0.70499992E+01 -0.26773E+04
 0.70999994E+01 -0.26719E+04
 0.71499996E+01 -0.26771E+04
 0.71999998E+01 -0.26953E+04
 0.72499990E+01 -0.26987E+04
 0.72999992E+01 -0.26934E+04
 0.73499994E+01 -0.26826E+04
 0.73999996E+01 -0.26751E+04
 0.74499998E+01 -0.26783E+04
 0.74999990E+01 -0.26823E+04
 0.75499992E+01 -0.26877E+04
 0.75999994E+01 -0.26841E+04
 0.76499996E+01 -0.26829E+04
 0.76999998E+01 -0.26945E+04
 0.77499990E+01 -0.26914E+04
 0.77999992E+01 -0.26836E+04
 0.78499994E+01 -0.26769E+04
 0.78999996E+01 -0.26615E+04
 0.79499998E+01 -0.26752E+04
 0.79999990E+01 -0.26828E+04
 0.80499992E+01 -0.26684E+04
 0.80999994E+01 -0.26633E+04
 0.81499996E+01 -0.26496E+04
 0.81999998E+01 -0.26513E+04
 0.82499990E+01 -0.26587E+04
 0.82999992E+01 -0.26541E+04
 0.83499994E+01 -0.26585E+04
 0.83999996E+01 -0.26402E+04
 0.84499998E+01 -0.26177E+04
 0.84999990E+01 -0.26273E+04
 0.85499992E+01 -0.26328E+04
 0.85999994E+01 -0.26315E+04
 0.86499996E+01 -0.26171E+04
 0.86999998E+01 -0.26179E+04
 0.87499990E+01 -0.26314E+04
 0.87999992E+01 -0.26346E+04
 0.88499994E+01 -0.26275E+04
 0.88999996E+01 -0.26252E+04
 0.89499998E+01 -0.26315E+04
 0.89999990E+01 -0.26441E+04
 0.90499992E+01 -0.26552E+04
 0.90999994E+01 -0.26450E+04
 0.91499996E+01 -0.26528E+04
 0.91999989E+01 -0.26587E+04
 0.92499990E+01 -0.26526E+04
 0.92999992E+01 -0.26634E+04
 0.93499994E+01 -0.26814E+04
 0.93999996E+01 -0.26756E+04
 0.94499989E+01 -0.26847E+04
 0.94999990E+01 -0.26855E+04
 0.95499992E+01 -0.26936E+04
 0.95999994E+01 -0.27006E+04
 0.96499996E+01 -0.26823E+04
 0.96999989E+01 -0.26946E+04
 0.97499990E+01 -0.26900E+04
 0.97999992E+01 -0.26843E+04
 0.98499994E+01 -0.26870E+04
 0.98999996E+01 -0.26860E+04
 0.99499989E+01 -0.26813E+04
 0.99999990E+01 -0.26740E+04
 0.10049999E+02 -0.26770E+04
 0.10099999E+02 -0.26934E+04
 0.10150000E+02 -0.26955E+04
 0.10199999E+02 -0.26867E+04
 0.10249999E+02 -0.26861E+04
 0.10299999E+02 -0.26781E+04
 0.10349999E+02 -0.26769E+04
 0.10400000E+02 -0.26740E+04
 0.10449999E+02 -0.26679E+04
 0.10499999E+02 -0.26708E+04
 0.10549999E+02 -0.26784E+04
 0.10599999E+02 -0.26654E+04
 0.10650000E+02 -0.26666E+04
 0.10699999E+02 -0.26679E+04
 0.10749999E+02 -0.26582E+04
 0.10799999E+02 -0.26518E+04
 0.10849999E+02 -0.26573E+04
 0.10900000E+02 -0.26564E+04
 0.10949999E+02 -0.26359E+04
 0.10999999E+02 -0.26497E+04
 0.11049999E+02 -0.26517E+04
 0.11099999E+02 -0.26446E+04
 0.11150000E+02 -0.26322E+04
 0.11199999E+02 -0.26297E+04
 0.11249999E+02 -0.26526E+04
 0.11299999E+02 -0.26547E+04
 0.11349999E+02 -0.26483E+04
 0.11400000E+02 -0.26556E+04
 0.11449999E+02 -0.26552E+04
 0.11499999E+02 -0.26431E+04
 0.11549999E+02 -0.26437E+04
 0.11599999E+02 -0.26454E+04
 0.11650000E+02 -0.26398E+04
 0.11699999E+02 -0.26304E+04
 0.11749999E+02 -0.26355E+04
 0.11799999E+02 -0.26465E+04
 0.11849999E+02 -0.26424E+04
 0.11900000E+02 -0.26554E+04
 0.11949999E+02 -0.26644E+04
 0.11999999E+02 -0.26581E+04
 0.12049999E+02 -0.26556E+04
 0.12099999E+02 -0.26562E+04
 0.12150000E+02 -0.26572E+04
 0.12199999E+02 -0.26525E+04
 0.12249999E+02 -0.26690E+04
 0.12299999E+02 -0.26686E+04
 0.12349999E+02 -0.26609E+04
 0.12400000E+02 -0.26680E+04
 0.12449999E+02 -0.26672E+04
 0.12499999E+02 -0.26628E+04
 0.12549999E+02 -0.26660E+04
 0.12599999E+02 -0.26730E+04
 0.12649999E+02 -0.26702E+04
 0.12699999E+02 -0.26691E+04
 0.12749999E+02 -0.26701E+04
 0.12799999E+02 -0.26755E+04
 0.12849999E+02 -0.26783E+04
 0.12899999E+02 -0.26709E+04
 0.12949999E+02 -0.26726E+04
 0.12999999E+02 -0.26802E+04
 0.13049999E+02 -0.26777E+04
 0.13099999E+02 -0.26762E+04
 0.13149999E+02 -0.26651E+04
 0.13199999E+02 -0.26623E+04
 0.13249999E+02 -0.26737E+04
 0.13299999E+02 -0.26843E+04
 0.13349999E+02 -0.26808E+04
 0.13399999E+02 -0.26830E+04
 0.13449999E+02 -0.26843E+04
 0.13499999E+02 -0.26779E+04
 0.13549999E+02 -0.26772E+04
 0.13599999E+02 -0.26779E+04
 0.13649999E+02 -0.26806E+04
 0.13699999E+02 -0.26773E+04
 0.13749999E+02 -0.26696E+04
 0.13799999E+02 -0.26518E+04
 0.13849999E+02 -0.26544E+04
 0.13899999E+02 -0.26613E+04
 0.13949999E+02 -0.26576E+04
 0.13999999E+02 -0.26678E+04
 0.14049999E+02 -0.26746E+04
 0.14099998E+02 -0.26703E+04
 0.14150000E+02 -0.26732E+04
 0.14199999E+02 -0.26798E+04
 0.14249998E+02 -0.26843E+04
 0.14299999E+02 -0.26814E+04
 0.14349998E+02 -0.26700E+04
 0.14400000E+02 -0.26633E+04
 0.14449999E+02 -0.26540E+04
 0.14499998E+02 -0.26529E+04
 0.14549999E+02 -0.26626E+04
 0.14599998E+02 -0.26681E+04
 0.14650000E+02 -0.26623E+04
 0.14699999E+02 -0.26487E+04
 0.14749998E+02 -0.26471E+04
 0.14799999E+02 -0.26452E+04
 0.14849998E+02 -0.26393E+04
 0.14900000E+02 -0.26416E+04
 0.14949999E+02 -0.26456E+04
 0.14999998E+02 -0.26476E+04
 0.15049999E+02 -0.26498E+04
 0.15099998E+02 -0.26429E+04
 0.15150000E+02 -0.26393E+04
 0.15199999E+02 -0.26295E+04
 0.15249998E+02 -0.26304E+04
 0.15299999E+02 -0.26255E+04
 0.15349998E+02 -0.26168E+04
 0.15400000E+02 -0.26210E+04
 0.15449999E+02 -0.26384E+04
 0.15499998E+02 -0.26618E+04
 0.15549999E+02 -0.26783E+04
 0.15599998E+02 -0.26409E+04
 0.15650000E+02 -0.26206E+04
 0.15699999E+02 -0.26842E+04
 0.15749998E+02 -0.26698E+04
 0.15799999E+02 -0.25966E+04
 0.15849998E+02 -0.25902E+04
 0.15900000E+02 -0.25344E+04
 0.15949999E+02 -0.25286E+04
 0.15999998E+02 -0.28511E+04
 0.16049999E+02 -0.30353E+04
 0.16099998E+02 -0.27514E+04
 0.16150000E+02 -0.26346E+04
 0.16199999E+02 -0.25308E+04
 0.16249998E+02 -0.23069E+04
 0.16299999E+02 -0.22567E+04
 0.16349998E+02 -0.21689E+04
 0.16400000E+02 -0.24319E+04
 0.16449999E+02 -0.27607E+04
 0.16499998E+02 -0.29087E+04
 0.16549999E+02 -0.34100E+04
 0.16599998E+02 -0.36739E+04
 0.16650000E+02 -0.24160E+04
 0.16699999E+02 -0.14910E+04
 0.16749998E+02 -0.21741E+04
 0.16799999E+02 -0.21534E+04
 0.16849998E+02 -0.35178E+04
 0.16900000E+02 -0.48777E+04
 0.16949999E+02 -0.31527E+04
 0.16999998E+02 -0.27603E+04
 0.17049999E+02 -0.26664E+04
 0.17099998E+02 -0.14950E+04
 0.17150000E+02 -0.18192E+04
 0.17199999E+02 -0.41362E+04
 0.17249998E+02 -0.46177E+04
 0.17299999E+02 -0.21434E+04
 0.17349998E+02 -0.15953E+04
 0.17400000E+02 -0.22427E+04
 0.17449999E+02 -0.12162E+04
 0.17499998E+02 -0.11990E+04
 0.17549999E+02 -0.40240E+04
 0.17599998E+02 -0.34621E+04
 0.17650000E+02 -0.33169E+04
 0.17699999E+02 -0.26929E+04
 0.17749998E+02 -0.10165E+04
 0.17799999E+02 -0.43053E+04
 0.17849998E+02 -0.28107E+04
 0.17900000E+02 -0.20549E+04
 0.17949999E+02 -0.28198E+04
 0.17999998E+02 -0.13413E+04
 0.18049999E+02 -0.33190E+04
 0.18099998E+02 -0.29234E+04
 0.18150000E+02 -0.33229E+04
 0.18199999E+02 -0.28126E+04
 0.18249998E+02 -0.14481E+04
 0.18299999E+02 -0.20484E+04
 0.18349998E+02 -0.37133E+04
 0.18400000E+02 -0.51042E+04
 0.18449999E+02 -0.22469E+04
 0.18499998E+02 -0.39742E+03
 0.18549999E+02 -0.69722E+03
 0.18599998E+02 -0.36186E+04
 0.18650000E+02 -0.44015E+04
 0.18699999E+02 -0.29533E+04
 0.18749998E+02 -0.16810E+04
 0.18799999E+02 -0.35034E+04
 0.18849998E+02 -0.15336E+04
 0.18900000E+02 -0.79664E+03
 0.18949999E+02 -0.43073E+04
 0.18999998E+02 -0.56414E+04
 0.19049999E+02 -0.13693E+04
 0.19099998E+02 -0.27657E+03
 0.19150000E+02 -0.64755E+04
 0.19199999E+02 -0.61186E+03
 0.19249998E+02 -0.20694E+04
 0.19299999E+02 -0.23394E+04
 0.19349998E+02 -0.25079E+04
 0.19400000E+02 -0.43624E+04
 0.19449999E+02 -0.41035E+04
 0.19499998E+02 -0.19550E+04
 0.19549999E+02 -0.29675E+04
 0.19599998E+02 -0.45235E+04
 0.19650000E+02 -0.54851E+03
 0.19699999E+02 -0.27961E+04
 0.19749998E+02 -0.69713E+03
 0.19799999E+02 -0.39322E+04
 0.19849998E+02 -0.17525E+04
 0.19900000E+02 -0.43013E+04
 0.19949999E+02 -0.38246E+04
 0.19999998E+02 -0.20780E+04
 0.20049999E+02 -0.71509E+03
 0.20099998E+02 -0.15741E+04
 0.20150000E+02 -0.52496E+04
 0.20199999E+02  0.19639E+03
 0.20249998E+02 -0.44633E+04
 0.20299999E+02 -0.17040E+04
 0.20349998E+02 -0.40442E+04
 0.20399998E+02 -0.73140E+04
 0.20449999E+02 -0.24021E+04
 0.20499998E+02  0.96335E+03
 0.20549999E+02  0.81426E+03
 0.20599998E+02 -0.31494E+04
 0.20649998E+02 -0.39032E+04
 0.20699999E+02 -0.51098E+04
 0.20749998E+02 -0.32730E+04
 0.20799999E+02 -0.45602E+03
 0.20849998E+02  0.52107E+03
 0.20899998E+02 -0.19311E+04
 0.20949999E+02 -0.40163E+04
 0.20999998E+02 -0.56497E+04
 0.21049999E+02 -0.36460E+03
 0.21099998E+02 -0.56083E+03
 0.21149998E+02 -0.73744E+04
 0.21199999E+02 -0.40207E+04
 0.21249998E+02  0.90360E+03
 0.21299999E+02  0.52767E+03
 0.21349998E+02 -0.58158E+04
 0.21399998E+02 -0.23312E+04
 0.21449999E+02 -0.27291E+04
 0.21499998E+02 -0.40768E+04
 0.21549999E+02 -0.99303E+03
 0.21599998E+02 -0.54660E+04
 0.21649998E+02 -0.14188E+04
 0.21699999E+02 -0.91381E+03
 0.21749998E+02 -0.59947E+04
 0.21799999E+02  0.22003E+04
 0.21849998E+02 -0.36422E+04
 0.21899998E+02 -0.77540E+04
 0.21949999E+02  0.29160E+04
 0.21999998E+02 -0.70446E+04
 0.22049999E+02 -0.40552E+04
 0.22099998E+02  0.29242E+04
 0.22149998E+02 -0.79627E+04
 0.22199999E+02 -0.47743E+04
 0.22249998E+02  0.95949E+03
 0.22299999E+02 -0.48285E+04
 0.22349998E+02 -0.65497E+03
 0.22399998E+02  0.26603E+04
 0.22449999E+02 -0.34413E+04
 0.22499998E+02 -0.57315E+04
 0.22549999E+02 -0.25898E+04
 0.22599998E+02 -0.21227E+04
 0.22649998E+02  0.33565E+03
 0.22699999E+02 -0.63745E+04
 0.22749998E+02 -0.69583E+04
 0.22799999E+02  0.41805E+04
 0.22849998E+02 -0.18449E+04
 0.22899998E+02 -0.54087E+04
 0.22949999E+02 -0.93607E+03
 0.22999998E+02 -0.20628E+04
 0.23049999E+02 -0.59329E+04
 0.23099998E+02 -0.36899E+04
 0.23149998E+02 -0.63143E+04
 0.23199999E+02  0.43745E+04
 0.23249998E+02  0.29707E+04
 0.23299999E+02 -0.10262E+05
 0.23349998E+02 -0.42806E+04
 0.23399998E+02 -0.97005E+02
 0.23449999E+02 -0.30510E+04
 0.23499998E+02  0.15366E+02
 0.23549999E+02  0.21705E+04
 0.23599998E+02 -0.47303E+04
 0.23649998E+02 -0.60250E+04
 0.23699999E+02 -0.35626E+04
 0.23749998E+02 -0.10595E+04
 0.23799999E+02  0.15482E+04
 0.23849998E+02 -0.40464E+04
 0.23899998E+02 -0.55177E+04
 0.23949999E+02 -0.22785E+04
 0.23999998E+02 -0.34665E+04
 0.24049999E+02 -0.52895E+04
 0.24099998E+02 -0.24853E+04
 0.24149998E+02  0.26190E+03
 0.24199999E+02 -0.52083E+04
 0.24249998E+02 -0.24988E+04
 0.24299999E+02 -0.38995E+04
 0.24349998E+02 -0.28992E+04
 0.24399998E+02  0.18310E+04
 0.24449999E+02 -0.21557E+04
 0.24499998E+02 -0.56712E+04
 0.24549999E+02 -0.34698E+04
 0.24599998E+02  0.15237E+03
 0.24649998E+02 -0.61608E+03
 0.24699999E+02 -0.10281E+04
 0.24749998E+02 -0.78344E+04
 0.24799999E+02 -0.43518E+04
 0.24849998E+02 -0.20519E+04
 0.24899998E+02 -0.64795E+04
 0.24949999E+02  0.29005E+04
 0.24999998E+02 -0.40796E+04
 0.25049999E+02 -0.76685E+04
 0.25099998E+02  0.61028E+03
 0.25149998E+02 -0.24963E+04
 0.25199999E+02 -0.31204E+04
 0.25249998E+02  0.76141E+03
 0.25299999E+02 -0.16973E+04
 0.25349998E+02 -0.34071E+04
 0.25399998E+02 -0.47376E+03
 0.25449999E+02 -0.42126E+04
 0.25499998E+02 -0.19990E+04
 0.25549999E+02 -0.14273E+03
 0.25599998E+02 -0.54624E+04
 0.25649998E+02 -0.69309E+04
 0.25699999E+02 -0.21160E+04
 0.25749998E+02  0.17592E+04
 0.25799999E+02 -0.15389E+04
 0.25849998E+02 -0.69739E+04
 0.25899998E+02 -0.55565E+04
 0.25949999E+02  0.13039E+03
 0.25999998E+02 -0.36949E+04
 0.26049999E+02 -0.17759E+04
 0.26099998E+02  0.43705E+04
 0.26149998E+02 -0.17291E+04
 0.26199999E+02 -0.10791E+05
 0.26249998E+02 -0.65343E+04
 0.26299999E+02  0.39487E+04
 0.26349998E+02 -0.23813E+03
 0.26399998E+02 -0.46318E+03
 0.26449999E+02 -0.10601E+04
 0.26499998E+02 -0.51278E+04
 0.26549999E+02 -0.67412E+04
 0.26599998E+02 -0.70884E+04
 0.26649998E+02  0.84592E+03
 0.26699999E+02 -0.48516E+04
 0.26749998E+02 -0.15080E+05
 0.26799999E+02 -0.89265E+04
 0.26849998E+02  0.20513E+05
 0.26899998E+02  0.10541E+05
 0.26949999E+02 -0.85582E+04
 0.26999998E+02  0.26911E+04
 0.27049997E+02 -0.30232E+04
 0.27099998E+02 -0.16981E+05
 0.27149998E+02 -0.53687E+04
 0.27199999E+02  0.55485E+03
 0.27249998E+02 -0.13023E+05
 0.27299997E+02  0.62920E+04
 0.27349998E+02  0.74632E+04
 0.27399998E+02 -0.14790E+05
 0.27449999E+02 -0.17640E+05
 0.27499998E+02  0.11229E+04
 0.27549997E+02  0.13758E+04
 0.27599998E+02 -0.16580E+04
 0.27649998E+02 -0.11814E+05
 0.27699999E+02  0.21564E+04
 0.27749998E+02  0.83609E+04
 0.27799997E+02 -0.40251E+04
 0.27849998E+02  0.99528E+04
 0.27899998E+02  0.61093E+04
 0.27949999E+02 -0.11031E+05
 0.27999998E+02 -0.10364E+05
 0.28049997E+02  0.29522E+04
 0.28099998E+02 -0.24296E+05
 0.28149998E+02 -0.27858E+04
 0.28199999E+02  0.97086E+04
 0.28249998E+02  0.78407E+04
 0.28299997E+02  0.29829E+04
 0.28349998E+02 -0.15258E+05
 0.28399998E+02 -0.47318E+03
 0.28449999E+02 -0.46040E+04
 0.28499998E+02 -0.12131E+05
 0.28549997E+02 -0.15584E+05
 0.28599998E+02  0.10966E+05
 0.28649998E+02 -0.30000E+04
 0.28699999E+02 -0.52093E+04
 0.28749998E+02  0.13247E+05
 0.28799997E+02 -0.62691E+04
 0.28849998E+02 -0.42716E+04
 0.28899998E+02 -0.58978E+04
 0.28949999E+02 -0.57357E+04
 0.28999998E+02 -0.75270E+04
 0.29049997E+02  0.24388E+04
 0.29099998E+02  0.17360E+04
 0.29149998E+02 -0.12839E+05
 0.29199999E+02  0.35548E+03
 0.29249998E+02  0.18340E+05
 0.29299997E+02 -0.69594E+04
 0.29349998E+02 -0.34145E+04
 0.29399998E+02  0.14957E+05
 0.29449999E+02 -0.21008E+05
 0.29499998E+02 -0.27366E+05
 0.29549997E+02 -0.61133E+04
 0.29599998E+02  0.22333E+05
 0.29649998E+02  0.66893E+04
 0.29699999E+02 -0.16513E+05
 0.29749998E+02  0.23413E+03
 0.29799997E+02 -0.11398E+05
 0.29849998E+02 -0.16707E+05
 0.29899998E+02  0.12950E+05
 0.29949999E+02  0.64742E+03
 0.29999998E+02 -0.79167E+04
 0.30049999E+02  0.62587E+04
 0.30099998E+02  0.42753E+04
 0.30149998E+02  0.68630E+04
 0.30199997E+02 -0.11963E+05
 0.30249996E+02 -0.13152E+05
 0.30299999E+02 -0.13013E+05
 0.30349998E+02 -0.15839E+05
 0.30399998E+02 -0.41728E+01
 0.30449997E+02  0.11502E+05
 0.30499996E+02  0.18941E+05
 0.30549999E+02  0.64423E+04
 0.30599998E+02 -0.17906E+05
 0.30649998E+02 -0.37991E+05
 0.30699997E+02 -0.59276E+04
 0.30749996E+02  0.20462E+05
 0.30799999E+02  0.61648E+04
 0.30849998E+02  0.73302E+04
 0.30899998E+02 -0.16550E+04
 0.30949997E+02 -0.16847E+05
 0.30999996E+02 -0.15247E+05
 0.31049999E+02 -0.13357E+04
 0.31099998E+02  0.13616E+05
 0.31149998E+02  0.69443E+04
 0.31199997E+02 -0.86545E+04
 0.31249996E+02 -0.19383E+05
 0.31299999E+02 -0.21695E+05
 0.31349998E+02 -0.19477E+04
 0.31399998E+02  0.11473E+05
 0.31449997E+02  0.16014E+05
 0.31499996E+02 -0.59205E+04
 0.31549999E+02 -0.19089E+05
 0.31599998E+02 -0.73145E+03
 0.31649998E+02  0.11870E+05
 0.31699997E+02  0.64596E+04
 0.31749996E+02 -0.59146E+04
 0.31799999E+02 -0.11577E+05
 0.31849998E+02 -0.14690E+05
 0.31899998E+02  0.22466E+04
 0.31949997E+02  0.49050E+04
 0.31999996E+02 -0.85155E+04
 0.32049999E+02 -0.75086E+04
 0.32099998E+02 -0.34387E+04
 0.32149998E+02 -0.30111E+04
 0.32199997E+02  0.27105E+04
 0.32249996E+02  0.96663E+04
 0.32299999E+02  0.86558E+04
 0.32349998E+02 -0.33196E+04
 0.32399998E+02 -0.18718E+05
 0.32449997E+02 -0.72375E+04
 0.32499996E+02 -0.10739E+05
 0.32549999E+02 -0.66946E+04
 0.32599998E+02  0.16881E+05
 0.32649998E+02  0.27087E+04
 0.32699997E+02 -0.57299E+04
 0.32749996E+02 -0.21768E+04
 0.32799999E+02 -0.87927E+04
 0.32849998E+02 -0.10092E+05
 0.32899998E+02  0.58013E+03
 0.32949997E+02  0.38888E+04
 0.32999996E+02 -0.72204E+04
 0.33049999E+02 -0.51620E+04
 0.33099998E+02  0.83424E+04
 0.33149998E+02 -0.57486E+04
 0.33199997E+02 -0.16618E+05
 0.33249996E+02 -0.22222E+04
 0.33299999E+02  0.69949E+04
 0.33349998E+02  0.86885E+04
 0.33399998E+02 -0.27521E+04
 0.33449997E+02 -0.89429E+04
 0.33499996E+02 -0.63476E+03
 0.33549999E+02 -0.10490E+05
 0.33599998E+02 -0.12865E+05
 0.33649998E+02 -0.63873E+03
 0.33699997E+02  0.73278E+03
 0.33749996E+02  0.10161E+04
 0.33799999E+02  0.15771E+04
 0.33849998E+02 -0.45554E+04
 0.33899998E+02 -0.91452E+04
 0.33949997E+02  0.43604E+02
 0.33999996E+02 -0.20496E+04
 0.34049999E+02 -0.61881E+04
 0.34099998E+02  0.35324E+04
 0.34149998E+02  0.21070E+04
 0.34199997E+02 -0.85279E+04
 0.34249996E+02 -0.53902E+04
 0.34299999E+02  0.46304E+04
 0.34349998E+02 -0.28831E+04
 0.34399998E+02 -0.14381E+05
 0.34449997E+02 -0.21500E+04
 0.34499996E+02  0.17301E+04
 0.34549999E+02  0.35498E+04
 0.34599998E+02  0.13507E+05
 0.34649998E+02 -0.71365E+04
 0.34699997E+02 -0.10940E+05
 0.34749996E+02 -0.29124E+04
 0.34799999E+02 -0.88384E+04
 0.34849998E+02 -0.65723E+04
 0.34899998E+02 -0.35100E+04
 0.34949997E+02  0.33909E+04
 0.34999996E+02  0.35491E+04
 0.35049999E+02 -0.71119E+04
 0.35099998E+02 -0.33740E+04
 0.35149998E+02  0.16528E+04
 0.35199997E+02 -0.10199E+05
 0.35249996E+02 -0.57110E+04
 0.35299999E+02  0.44469E+04
 0.35349998E+02  0.80898E+02
 0.35399998E+02 -0.79722E+04
 0.35449997E+02 -0.93011E+04
 0.35499996E+02 -0.95675E+03
 0.35549999E+02 -0.42423E+04
 0.35599998E+02 -0.47720E+04
 0.35649998E+02  0.44303E+04
 0.35699997E+02  0.10315E+05
 0.35749996E+02  0.43209E+04
 0.35799999E+02 -0.14020E+05
 0.35849998E+02 -0.20023E+05
 0.35899998E+02 -0.51608E+04
 0.35949997E+02  0.76584E+04
 0.35999996E+02  0.38316E+04
 0.36049999E+02 -0.30178E+04
 0.36099998E+02  0.21468E+04
 0.36149998E+02 -0.11978E+04
 0.36199997E+02 -0.72362E+04
 0.36249996E+02 -0.57682E+04
 0.36299999E+02 -0.46348E+04
 0.36349998E+02 -0.51751E+04
 0.36399998E+02 -0.39151E+04
 0.36449997E+02  0.17144E+04
 0.36499996E+02 -0.65854E+04
 0.36549999E+02 -0.10877E+05
 0.36599998E+02 -0.75033E+04
 0.36649998E+02  0.25233E+04
 0.36699997E+02  0.61614E+04
 0.36749996E+02  0.32281E+04
 0.36799999E+02 -0.32116E+03
 0.36849998E+02 -0.35634E+04
 0.36899998E+02 -0.97779E+03
 0.36949997E+02 -0.29230E+04
 0.36999996E+02 -0.13606E+05
 0.37049999E+02 -0.83340E+04
 0.37099998E+02  0.46614E+04
 0.37149998E+02 -0.33161E+04
 0.37199997E+02 -0.59347E+04
 0.37249996E+02 -0.39780E+04
 0.37299999E+02 -0.10383E+04
 0.37349998E+02 -0.75899E+04
 0.37399998E+02 -0.85278E+04
 0.37449997E+02  0.15857E+04
 0.37499996E+02  0.79865E+03
 0.37549999E+02 -0.45072E+04
 0.37599998E+02 -0.43062E+04
 0.37649998E+02 -0.35475E+04
 0.37699997E+02 -0.27493E+04
 0.37749996E+02  0.44392E+04
 0.37799999E+02  0.25513E+04
 0.37849998E+02 -0.38101E+03
 0.37899998E+02 -0.39046E+04
 0.37949997E+02 -0.96258E+04
 0.37999996E+02 -0.32702E+04
 0.38049999E+02 -0.10087E+04
 0.38099998E+02  0.23662E+04
 0.38149998E+02  0.19315E+04
 0.38199997E+02 -0.61387E+04
 0.38249996E+02 -0.17277E+04
 0.38299999E+02 -0.30372E+04
 0.38349998E+02 -0.56526E+04
 0.38399998E+02  0.83830E+02
 0.38449997E+02  0.10333E+03
 0.38499996E+02  0.18946E+03
 0.38549999E+02 -0.19116E+04
 0.38599998E+02 -0.85002E+04
 0.38649998E+02 -0.55891E+04
 0.38699997E+02 -0.42657E+03
 0.38749996E+02  0.70374E+03
 0.38799999E+02  0.18583E+04
 0.38849998E+02 -0.18600E+04
 0.38899998E+02 -0.11410E+05
 0.38949997E+02 -0.12126E+05
 0.38999996E+02 -0.14951E+04
 0.39049999E+02  0.26652E+04
 0.39099998E+02 -0.33855E+04
 0.39149998E+02  0.14105E+04
 0.39199997E+02 -0.12848E+04
 0.39249996E+02 -0.60109E+04
 0.39299999E+02 -0.16207E+04
 0.39349998E+02 -0.29539E+04
 0.39399998E+02 -0.36318E+04
 0.39449997E+02 -0.23146E+04
 0.39499996E+02 -0.18697E+04
 0.39549999E+02 -0.29676E+04
 0.39599998E+02 -0.17670E+03
 0.39649998E+02 -0.84109E+03
 0.39699997E+02 -0.34206E+04
 0.39749996E+02 -0.26099E+04
 0.39799999E+02 -0.20619E+04
 0.39849998E+02 -0.35581E+04
 0.39899998E+02 -0.31598E+04
 0.39949997E+02 -0.39761E+04
 0.39999996E+02 -0.14751E+04
 0.40049999E+02 -0.37033E+04
 0.40099998E+02 -0.66367E+04
 0.40149998E+02 -0.28330E+04
 0.40199997E+02  0.16809E+04
 0.40249996E+02  0.21907E+04
 0.40299999E+02 -0.33976E+04
 0.40349998E+02 -0.47503E+04
 0.40399998E+02 -0.34180E+04
 0.40449997E+02 -0.47907E+04
 0.40499996E+02 -0.33835E+04
 0.40549999E+02  0.38308E+04
 0.40599998E+02 -0.44002E+04
 0.40649998E+02 -0.73828E+04
 0.40699997E+02 -0.44284E+04
 0.40749996E+02 -0.47228E+04
 0.40799999E+02 -0.14701E+04
 0.40849998E+02 -0.39239E+04
 0.40899998E+02 -0.26651E+04
 0.40949997E+02 -0.17878E+04
 0.40999996E+02 -0.85970E+02
 0.41049999E+02 -0.43511E+04
 0.41099998E+02 -0.44985E+04
 0.41149998E+02 -0.19901E+04
 0.41199997E+02 -0.20309E+03
 0.41249996E+02  0.37450E+04
 0.41299999E+02 -0.25777E+04
 0.41349998E+02 -0.60066E+04
 0.41399998E+02 -0.22104E+04
 0.41449997E+02 -0.26875E+04
 0.41499996E+02 -0.44878E+04
 0.41549999E+02 -0.39248E+04
 0.41599998E+02 -0.28972E+04
 0.41649998E+02 -0.11327E+04
 0.41699997E+02 -0.49357E+04
 0.41749996E+02 -0.64860E+04
 0.41799999E+02 -0.54348E+04
 0.41849998E+02 -0.25046E+04
 0.41899998E+02  0.22627E+04
 0.41949997E+02  0.10239E+04
 0.41999996E+02 -0.16162E+03
 0.42049999E+02 -0.29207E+04
 0.42099998E+02 -0.45226E+04
 0.42149998E+02 -0.26072E+04
 0.42199997E+02 -0.27272E+04
 0.42249996E+02 -0.38378E+03
 0.42299999E+02  0.28200E+03
 0.42349998E+02 -0.38459E+04
 0.42399998E+02 -0.26589E+04
 0.42449997E+02 -0.24428E+04
 0.42499996E+02 -0.55550E+04
 0.42549999E+02 -0.27045E+04
 0.42599998E+02  0.10981E+04
 0.42649998E+02 -0.13260E+04
 0.42699997E+02 -0.54561E+04
 0.42749996E+02 -0.46799E+04
 0.42799995E+02 -0.39108E+04
 0.42849998E+02 -0.15544E+04
 0.42899998E+02 -0.41252E+04
 0.42949997E+02 -0.86380E+04
 0.42999996E+02 -0.42653E+04
 0.43049995E+02 -0.15661E+04
 0.43099998E+02 -0.40149E+04
 0.43149998E+02 -0.47105E+04
 0.43199997E+02 -0.14369E+04
 0.43249996E+02 -0.22138E+03
 0.43299995E+02 -0.17782E+04
 0.43349998E+02 -0.51487E+04
 0.43399998E+02 -0.18375E+04
 0.43449997E+02  0.14058E+04
 0.43499996E+02  0.15685E+03
 0.43549995E+02 -0.21532E+04
 0.43599998E+02 -0.53447E+04
 0.43649998E+02 -0.35537E+04
 0.43699997E+02 -0.35474E+04
 0.43749996E+02 -0.29679E+04
 0.43799995E+02 -0.23628E+03
 0.43849998E+02 -0.84743E+03
 0.43899998E+02 -0.39185E+04
 0.43949997E+02 -0.41547E+04
 0.43999996E+02 -0.26809E+04
 0.44049995E+02 -0.22681E+03
 0.44099998E+02 -0.40011E+04
 0.44149998E+02 -0.48660E+04
 0.44199997E+02 -0.98915E+03
 0.44249996E+02 -0.24438E+04
 0.44299995E+02 -0.11794E+04
 0.44349998E+02 -0.22817E+04
 0.44399998E+02 -0.49507E+04
 0.44449997E+02 -0.38279E+04
 0.44499996E+02  0.30029E+03
 0.44549995E+02  0.20116E+04
 0.44599998E+02  0.20565E+04
 0.44649998E+02 -0.18102E+04
 0.44699997E+02 -0.37736E+04
 0.44749996E+02 -0.57430E+04
 0.44799995E+02 -0.73177E+04
 0.44849998E+02 -0.37255E+04
 0.44899998E+02 -0.33671E+04
 0.44949997E+02 -0.30113E+04
 0.44999996E+02 -0.25892E+04
 0.45049995E+02 -0.24639E+04
 0.45099998E+02 -0.30112E+04
 0.45149998E+02 -0.11776E+04
 0.45199997E+02 -0.19897E+04
 0.45249996E+02 -0.45023E+04
 0.45299995E+02 -0.35921E+04
 0.45349998E+02 -0.39409E+04
 0.45399998E+02 -0.30035E+04
 0.45449997E+02 -0.13308E+04
 0.45499996E+02 -0.10625E+04
 0.45549995E+02 -0.77928E+03
 0.45599998E+02 -0.37380E+04
 0.45649998E+02 -0.69642E+04
 0.45699997E+02 -0.23653E+04
 0.45749996E+02  0.19212E+04
 0.45799995E+02 -0.12719E+04
 0.45849998E+02 -0.34204E+04
 0.45899998E+02 -0.48209E+04
 0.45949997E+02 -0.43319E+04
 0.45999996E+02 -0.59119E+04
 0.46049995E+02 -0.42117E+04
 0.46099998E+02 -0.19591E+04
 0.46149998E+02 -0.40710E+04
 0.46199997E+02 -0.33710E+04
 0.46249996E+02 -0.44747E+03
 0.46299995E+02  0.16979E+04
 0.46349998E+02 -0.23797E+04
 0.46399998E+02 -0.40482E+04
 0.46449997E+02 -0.25149E+04
 0.46499996E+02 -0.34014E+04
 0.46549995E+02 -0.36742E+04
 0.46599998E+02 -0.24500E+04
 0.46649998E+02 -0.48500E+04
 0.46699997E+02 -0.25195E+04
 0.46749996E+02 -0.13440E+03
 0.46799995E+02  0.36022E+03
 0.46849998E+02  0.10641E+03
 0.46899998E+02 -0.50522E+04
 0.46949997E+02 -0.38711E+04
 0.46999996E+02 -0.91454E+03
 0.47049995E+02 -0.24303E+04
 0.47099998E+02 -0.20961E+04
 0.47149998E+02 -0.46021E+03
 0.47199997E+02 -0.20473E+04
 0.47249996E+02 -0.55736E+04
 0.47299995E+02 -0.43849E+04
 0.47349998E+02 -0.22911E+04
 0.47399998E+02 -0.22514E+04
 0.47449997E+02 -0.14122E+04
 0.47499996E+02 -0.18717E+04
 0.47549995E+02 -0.41168E+04
 0.47599998E+02 -0.46941E+04
 0.47649998E+02 -0.24086E+04
 0.47699997E+02 -0.76099E+03
 0.47749996E+02 -0.11358E+04
 0.47799995E+02 -0.27556E+04
 0.47849998E+02 -0.10665E+04
 0.47899998E+02 -0.22265E+04
 0.47949997E+02 -0.55814E+04
 0.47999996E+02 -0.35438E+04
 0.48049995E+02 -0.17451E+04
 0.48099998E+02 -0.36748E+04
 0.48149998E+02 -0.25098E+04
 0.48199997E+02 -0.35274E+04
 0.48249996E+02 -0.49804E+04
 0.48299995E+02 -0.26831E+04
 0.48349998E+02 -0.27238E+04
 0.48399998E+02 -0.58738E+03
 0.48449997E+02  0.40892E+03
 0.48499996E+02 -0.25072E+04
 0.48549995E+02 -0.21121E+04
 0.48599998E+02 -0.31579E+04
 0.48649998E+02 -0.43149E+04
 0.48699997E+02 -0.28858E+04
 0.48749996E+02 -0.28649E+04
 0.48799995E+02 -0.21358E+04
 0.48849998E+02 -0.43523E+04
 0.48899998E+02 -0.53091E+04
 0.48949997E+02 -0.28455E+04
 0.48999996E+02 -0.14456E+04
 0.49049995E+02 -0.30026E+04
 0.49099998E+02 -0.42129E+04
 0.49149998E+02 -0.34229E+04
 0.49199997E+02 -0.23086E+04
 0.49249996E+02 -0.36911E+04
 0.49299995E+02 -0.28469E+04
 0.49349998E+02 -0.14943E+04
 0.49399998E+02 -0.24278E+03
 0.49449997E+02  0.16056E+04
 0.49499996E+02 -0.13677E+04
 0.49549995E+02 -0.38241E+04
 0.49599998E+02 -0.49211E+04
 0.49649998E+02 -0.43942E+04
 0.49699997E+02 -0.40311E+04
 0.49749996E+02 -0.33738E+04
 0.49799995E+02 -0.18456E+04
 0.49849998E+02 -0.12818E+04
 0.49899998E+02 -0.25650E+04
 0.49949997E+02 -0.37651E+04
 0.49999996E+02 -0.35092E+04
 0.50049995E+02 -0.21261E+04
 0.50099998E+02 -0.11569E+04
 0.50149998E+02 -0.21596E+04
 0.50199997E+02 -0.26860E+04
 0.50249996E+02 -0.29029E+04
 0.50299995E+02 -0.13968E+04
 0.50349998E+02 -0.23811E+04
 0.50399998E+02 -0.31643E+04
 0.50449997E+02 -0.20241E+04
 0.50499996E+02 -0.42876E+04
 0.50549995E+02 -0.30423E+04
 0.50599998E+02 -0.18312E+04
 0.50649998E+02 -0.21462E+04
 0.50699997E+02 -0.18890E+04
 0.50749996E+02 -0.33257E+04
 0.50799995E+02 -0.40451E+04
 0.50849998E+02 -0.30422E+04
 0.50899998E+02 -0.19456E+04
 0.50949997E+02 -0.14813E+04
 0.50999996E+02 -0.29548E+04
 0.51049995E+02 -0.30109E+04
 0.51099998E+02 -0.32979E+04
 0.51149998E+02 -0.37182E+04
 0.51199997E+02 -0.35164E+03
 0.51249996E+02 -0.98338E+03
 0.51299995E+02 -0.31078E+04
 0.51349998E+02 -0.17253E+04
 0.51399998E+02 -0.18833E+04
 0.51449997E+02 -0.37542E+04
 0.51499996E+02 -0.44398E+04
 0.51549995E+02 -0.40678E+04
 0.51599998E+02 -0.24545E+04
 0.51649998E+02 -0.27737E+04
 0.51699997E+02 -0.44747E+04
 0.51749996E+02 -0.35759E+04
 0.51799995E+02 -0.23430E+04
 0.51849998E+02 -0.34533E+04
 0.51899998E+02 -0.28849E+04
 0.51949997E+02 -0.11848E+04
 0.51999996E+02 -0.16732E+04
 0.52049995E+02 -0.14083E+04
 0.52099998E+02 -0.16402E+04
 0.52149998E+02 -0.40520E+04
 0.52199997E+02 -0.61887E+04
 0.52249996E+02 -0.49198E+04
 0.52299995E+02 -0.14928E+04
 0.52349998E+02 -0.17251E+04
 0.52399998E+02 -0.20841E+04
 0.52449997E+02 -0.18604E+04
 0.52499996E+02 -0.28151E+04
 0.52549995E+02 -0.27726E+04
 0.52599998E+02 -0.18552E+04
 0.52649998E+02 -0.19555E+04
 0.52699997E+02 -0.92668E+03
 0.52749996E+02 -0.15449E+04
 0.52799995E+02 -0.24772E+04
 0.52849998E+02 -0.30443E+04
 0.52899998E+02 -0.35740E+04
 0.52949997E+02 -0.35574E+04
 0.52999996E+02 -0.27827E+04
 0.53049995E+02  0.96770E+02
 0.53099998E+02 -0.19012E+04
 0.53149998E+02 -0.41751E+04
 0.53199997E+02 -0.30409E+04
 0.53249996E+02 -0.83820E+03
 0.53299995E+02 -0.92239E+03
 0.53349998E+02 -0.19948E+04
 0.53399998E+02 -0.33492E+04
 0.53449997E+02 -0.30288E+04
 0.53499996E+02 -0.27022E+04
 0.53549995E+02 -0.31580E+04
 0.53599998E+02 -0.17007E+04
 0.53649998E+02 -0.33719E+04
 0.53699997E+02 -0.51914E+04
 0.53749996E+02 -0.51010E+04
 0.53799995E+02 -0.50496E+04
 0.53849998E+02 -0.33068E+04
 0.53899998E+02 -0.21349E+04
 0.53949997E+02 -0.17827E+04
 0.53999996E+02 -0.50610E+03
 0.54049995E+02 -0.10569E+04
 0.54099998E+02 -0.21008E+04
 0.54149998E+02 -0.34252E+04
 0.54199997E+02 -0.37165E+04
 0.54249996E+02 -0.34612E+04
 0.54299995E+02 -0.38153E+04
 0.54349998E+02 -0.27446E+04
 0.54399998E+02 -0.23022E+04
 0.54449997E+02 -0.29506E+04
 0.54499996E+02 -0.32679E+04
 0.54549995E+02 -0.29033E+04
 0.54599998E+02 -0.24564E+04
 0.54649998E+02 -0.18027E+04
 0.54699997E+02 -0.63156E+03
 0.54749996E+02 -0.16097E+04
 0.54799995E+02 -0.42957E+04
 0.54849998E+02 -0.51405E+04
 0.54899998E+02 -0.41819E+04
 0.54949997E+02 -0.31860E+04
 0.54999996E+02 -0.19778E+04
 0.55049995E+02 -0.39561E+03
 0.55099998E+02 -0.25590E+04
 0.55149998E+02 -0.43331E+04
 0.55199997E+02 -0.40300E+04
 0.55249996E+02 -0.32186E+04
 0.55299995E+02 -0.15750E+04
 0.55349998E+02 -0.95209E+03
 0.55399998E+02 -0.10482E+04
 0.55449997E+02 -0.17421E+04
 0.55499996E+02 -0.17619E+04
 0.55549995E+02 -0.17341E+04
 0.55599998E+02 -0.25164E+04
 0.55649998E+02 -0.26978E+04
 0.55699997E+02 -0.34004E+04
 0.55749996E+02 -0.40130E+04
 0.55799995E+02 -0.14164E+04
 0.55849995E+02 -0.79160E+03
 0.55899998E+02 -0.23383E+04
 0.55949997E+02 -0.34847E+04
 0.55999996E+02 -0.37979E+04
 0.56049995E+02 -0.33085E+04
 0.56099995E+02 -0.31688E+04
 0.56149998E+02 -0.22393E+04
 0.56199997E+02 -0.27699E+04
 0.56249996E+02 -0.35771E+04
 0.56299995E+02 -0.28099E+04
 0.56349995E+02 -0.15451E+04
 0.56399998E+02 -0.20188E+04
 0.56449997E+02 -0.31591E+04
 0.56499996E+02 -0.34679E+04
 0.56549995E+02 -0.34945E+04
 0.56599995E+02 -0.16376E+04
 0.56649998E+02 -0.20325E+04
 0.56699997E+02 -0.29637E+04
 0.56749996E+02 -0.26493E+04
 0.56799995E+02 -0.28943E+04
 0.56849995E+02 -0.26194E+04
 0.56899998E+02 -0.35825E+04
 0.56949997E+02 -0.43079E+04
 0.56999996E+02 -0.27628E+04
 0.57049995E+02 -0.22971E+04
 0.57099995E+02 -0.33106E+04
 0.57149998E+02 -0.27902E+04
 0.57199997E+02 -0.15847E+04
 0.57249996E+02 -0.87647E+03
 0.57299995E+02 -0.23460E+04
 0.57349995E+02 -0.28825E+04
 0.57399998E+02 -0.25233E+04
 0.57449997E+02 -0.35204E+04
 0.57499996E+02 -0.36108E+04
 0.57549995E+02 -0.25398E+04
 0.57599995E+02 -0.13651E+04
 0.57649998E+02 -0.22044E+04
 0.57699997E+02 -0.27692E+04
 0.57749996E+02 -0.22251E+04
 0.57799995E+02 -0.25293E+04
 0.57849995E+02 -0.19008E+04
 0.57899998E+02 -0.22101E+04
 0.57949997E+02 -0.20604E+04
 0.57999996E+02 -0.23137E+04
 0.58049995E+02 -0.38065E+04
 0.58099995E+02 -0.31474E+04
 0.58149998E+02 -0.33904E+04
 0.58199997E+02 -0.24212E+04
 0.58249996E+02 -0.16363E+04
 0.58299995E+02 -0.28066E+04
 0.58349995E+02 -0.39471E+04
 0.58399998E+02 -0.32242E+04
 0.58449997E+02 -0.26690E+04
 0.58499996E+02 -0.26441E+04
 0.58549995E+02 -0.22073E+04
 0.58599995E+02 -0.23398E+04
 0.58649998E+02 -0.21299E+04
 0.58699997E+02 -0.21594E+04
 0.58749996E+02 -0.21460E+04
 0.58799995E+02 -0.23121E+04
 0.58849995E+02 -0.20429E+04
 0.58899998E+02 -0.27288E+04
 0.58949997E+02 -0.32944E+04
 0.58999996E+02 -0.25454E+04
 0.59049995E+02 -0.23277E+04
 0.59099995E+02 -0.37214E+04
 0.59149998E+02 -0.36689E+04
 0.59199997E+02 -0.27091E+04
 0.59249996E+02 -0.22969E+04
 0.59299995E+02 -0.22411E+04
 0.59349995E+02 -0.24137E+04
 0.59399998E+02 -0.29910E+04
 0.59449997E+02 -0.33492E+04
 0.59499996E+02 -0.24346E+04
 0.59549995E+02 -0.26079E+04
 0.59599995E+02 -0.28808E+04
 0.59649998E+02 -0.27687E+04
 0.59699997E+02 -0.31988E+04
 0.59749996E+02 -0.33400E+04
 0.59799995E+02 -0.32053E+04
 0.59849995E+02 -0.33268E+04
 0.59899998E+02 -0.27873E+04
 0.59949997E+02 -0.26029E+04
 0.59999996E+02 -0.28327E+04
 0.60049995E+02 -0.28540E+04
 0.60099995E+02 -0.25232E+04
 0.60149998E+02 -0.19055E+04
 0.60199997E+02 -0.25204E+04
 0.60249996E+02 -0.24160E+04
 0.60299995E+02 -0.25451E+04
 0.60349995E+02 -0.37465E+04
 0.60399998E+02 -0.32802E+04
 0.60449997E+02 -0.24885E+04
 0.60499996E+02 -0.25249E+04
 0.60549995E+02 -0.37911E+04
 0.60599995E+02 -0.27094E+04
 0.60649998E+02 -0.12900E+04
 0.60699997E+02 -0.26872E+04
 0.60749996E+02 -0.31086E+04
 0.60799995E+02 -0.23063E+04
 0.60849995E+02 -0.13926E+04
 0.60899998E+02 -0.11106E+04
 0.60949997E+02 -0.11049E+04
 0.60999996E+02 -0.18909E+04
 0.61049995E+02 -0.23738E+04
 0.61099995E+02 -0.32135E+04
 0.61149998E+02 -0.40469E+04
 0.61199997E+02 -0.31619E+04
 0.61249996E+02 -0.27275E+04
 0.61299995E+02 -0.36272E+04
 0.61349995E+02 -0.32537E+04
 0.61399998E+02 -0.23520E+04
 0.61449997E+02 -0.26513E+04
 0.61499996E+02 -0.26723E+04
 0.61549995E+02 -0.30002E+04
 0.61599995E+02 -0.33154E+04
 0.61649998E+02 -0.40778E+04
 0.61699997E+02 -0.27664E+04
 0.61749996E+02 -0.16017E+04
 0.61799995E+02 -0.29922E+04
 0.61849995E+02 -0.29538E+04
 0.61899998E+02 -0.26982E+04
 0.61949997E+02 -0.25492E+04
 0.61999996E+02 -0.19149E+04
 0.62049995E+02 -0.15664E+04
 0.62099998E+02 -0.19250E+04
 0.62149994E+02 -0.31590E+04
 0.62199997E+02 -0.28810E+04
 0.62249992E+02 -0.29637E+04
 0.62299995E+02 -0.34823E+04
 0.62349998E+02 -0.30808E+04
 0.62399994E+02 -0.24176E+04
 0.62449997E+02 -0.21406E+04
 0.62499992E+02 -0.28804E+04
 0.62549995E+02 -0.20043E+04
 0.62599998E+02 -0.17758E+04
 0.62649994E+02 -0.27455E+04
 0.62699997E+02 -0.27434E+04
 0.62749992E+02 -0.26654E+04
 0.62799995E+02 -0.29990E+04
 0.62849998E+02 -0.31575E+04
 0.62899994E+02 -0.31857E+04
 0.62949997E+02 -0.34586E+04
 0.62999992E+02 -0.37166E+04
 0.63049995E+02 -0.27415E+04
 0.63099998E+02 -0.21995E+04
 0.63149994E+02 -0.17830E+04
 0.63199997E+02 -0.15357E+04
 0.63249992E+02 -0.25834E+04
 0.63299995E+02 -0.25039E+04
 0.63349998E+02 -0.26432E+04
 0.63399994E+02 -0.32565E+04
 0.63449997E+02 -0.34454E+04
 0.63499992E+02 -0.31110E+04
 0.63549995E+02 -0.25867E+04
 0.63599998E+02 -0.29730E+04
 0.63649994E+02 -0.29186E+04
 0.63699997E+02 -0.23446E+04
 0.63749992E+02 -0.25926E+04
 0.63799995E+02 -0.25812E+04
 0.63849998E+02 -0.18891E+04
 0.63899994E+02 -0.19014E+04
 0.63949997E+02 -0.25227E+04
 0.63999992E+02 -0.32863E+04
 0.64049995E+02 -0.32778E+04
 0.64099998E+02 -0.25699E+04
 0.64149994E+02 -0.25171E+04
 0.64199997E+02 -0.19779E+04
 0.64249992E+02 -0.15920E+04
 0.64299995E+02 -0.23049E+04
 0.64349998E+02 -0.23437E+04
 0.64399994E+02 -0.21720E+04
 0.64449997E+02 -0.19315E+04
 0.64499992E+02 -0.26518E+04
 0.64549995E+02 -0.25561E+04
 0.64599998E+02 -0.20606E+04
 0.64649994E+02 -0.29536E+04
 0.64699997E+02 -0.27707E+04
 0.64749992E+02 -0.28576E+04
 0.64799995E+02 -0.28588E+04
 0.64849998E+02 -0.26800E+04
 0.64899994E+02 -0.28141E+04
 0.64949997E+02 -0.28670E+04
 0.64999992E+02 -0.34263E+04
 0.65049995E+02 -0.37912E+04
 0.65099998E+02 -0.37272E+04
 0.65149994E+02 -0.31446E+04
 0.65199997E+02 -0.22385E+04
 0.65249992E+02 -0.29071E+04
 0.65299995E+02 -0.34501E+04
 0.65349998E+02 -0.29833E+04
 0.65399994E+02 -0.29837E+04
 0.65449997E+02 -0.27560E+04
 0.65499992E+02 -0.21321E+04
 0.65549995E+02 -0.17457E+04
 0.65599998E+02 -0.21298E+04
 0.65649994E+02 -0.24418E+04
 0.65699997E+02 -0.26124E+04
 0.65749992E+02 -0.23408E+04
 0.65799995E+02 -0.20631E+04
 0.65849998E+02 -0.28064E+04
 0.65899994E+02 -0.26949E+04
 0.65949997E+02 -0.31301E+04
 0.65999992E+02 -0.30766E+04
 0.66049995E+02 -0.15982E+04
 0.66099998E+02 -0.15917E+04
 0.66149994E+02 -0.19126E+04
 0.66199997E+02 -0.24774E+04
 0.66249992E+02 -0.29457E+04
 0.66299995E+02 -0.35438E+04
 0.66349998E+02 -0.35660E+04
 0.66399994E+02 -0.29249E+04
 0.66449997E+02 -0.23037E+04
 0.66499992E+02 -0.19560E+04
 0.66549995E+02 -0.20410E+04
 0.66599998E+02 -0.21008E+04
 0.66649994E+02 -0.28082E+04
 0.66699997E+02 -0.29627E+04
 0.66749992E+02 -0.30513E+04
 0.66799995E+02 -0.35300E+04
 0.66849998E+02 -0.30714E+04
 0.66899994E+02 -0.24335E+04
 0.66949997E+02 -0.20129E+04
 0.66999992E+02 -0.22944E+04
 0.67049995E+02 -0.27713E+04
 0.67099998E+02 -0.28062E+04
 0.67149994E+02 -0.31118E+04
 0.67199997E+02 -0.30632E+04
 0.67249992E+02 -0.27838E+04
 0.67299995E+02 -0.27229E+04
 0.67349998E+02 -0.30412E+04
 0.67399994E+02 -0.32624E+04
 0.67449997E+02 -0.26766E+04
 0.67499992E+02 -0.19965E+04
 0.67549995E+02 -0.19124E+04
 0.67599998E+02 -0.19002E+04
 0.67649994E+02 -0.24759E+04
 0.67699997E+02 -0.28967E+04
 0.67749992E+02 -0.26787E+04
 0.67799995E+02 -0.26077E+04
 0.67849998E+02 -0.27103E+04
 0.67899994E+02 -0.24782E+04
 0.67949997E+02 -0.23392E+04
 0.67999992E+02 -0.31089E+04
 0.68049995E+02 -0.27854E+04
 0.68099998E+02 -0.26016E+04
 0.68149994E+02 -0.26359E+04
 0.68199997E+02 -0.22408E+04
 0.68249992E+02 -0.26098E+04
 0.68299995E+02 -0.29594E+04
 0.68349998E+02 -0.29540E+04
 0.68399994E+02 -0.28570E+04
 0.68449997E+02 -0.32106E+04
 0.68499992E+02 -0.33957E+04
 0.68549995E+02 -0.35017E+04
 0.68599998E+02 -0.31296E+04
 0.68649994E+02 -0.31227E+04
 0.68699997E+02 -0.33171E+04
 0.68749992E+02 -0.28748E+04
 0.68799995E+02 -0.23529E+04
 0.68849998E+02 -0.20171E+04
 0.68899994E+02 -0.22345E+04
 0.68949997E+02 -0.24012E+04
 0.68999992E+02 -0.27655E+04
 0.69049995E+02 -0.33937E+04
 0.69099998E+02 -0.30026E+04
 0.69149994E+02 -0.21804E+04
 0.69199997E+02 -0.27858E+04
 0.69249992E+02 -0.30774E+04
 0.69299995E+02 -0.22995E+04
 0.69349998E+02 -0.22274E+04
 0.69399994E+02 -0.20735E+04
 0.69449997E+02 -0.19803E+04
 0.69499992E+02 -0.19791E+04
 0.69549995E+02 -0.22255E+04
 0.69599998E+02 -0.24705E+04
 0.69649994E+02 -0.23703E+04
 0.69699997E+02 -0.27833E+04
 0.69749992E+02 -0.28927E+04
 0.69799995E+02 -0.27618E+04
 0.69849998E+02 -0.27275E+04
 0.69899994E+02 -0.29259E+04
 0.69949997E+02 -0.28558E+04
 0.69999992E+02 -0.26317E+04
 0.70049995E+02 -0.21488E+04
 0.70099998E+02 -0.21685E+04
 0.70149994E+02 -0.27072E+04
 0.70199997E+02 -0.26169E+04
 0.70249992E+02 -0.27797E+04
 0.70299995E+02 -0.25482E+04
 0.70349998E+02 -0.23733E+04
 0.70399994E+02 -0.25388E+04
 0.70449997E+02 -0.25028E+04
 0.70499992E+02 -0.26871E+04
 0.70549995E+02 -0.23551E+04
 0.70599998E+02 -0.23508E+04
 0.70649994E+02 -0.30434E+04
 0.70699997E+02 -0.32148E+04
 0.70749992E+02 -0.31520E+04
 0.70799995E+02 -0.32554E+04
 0.70849998E+02 -0.32173E+04
 0.70899994E+02 -0.32292E+04
 0.70949997E+02 -0.30945E+04
 0.70999992E+02 -0.32528E+04
 0.71049995E+02 -0.31990E+04
 0.71099998E+02 -0.29056E+04
 0.71149994E+02 -0.31371E+04
 0.71199997E+02 -0.28159E+04
 0.71249992E+02 -0.25296E+04
 0.71299995E+02 -0.27219E+04
 0.71349998E+02 -0.24318E+04
 0.71399994E+02 -0.23525E+04
 0.71449997E+02 -0.26427E+04
 0.71499992E+02 -0.23650E+04
 0.71549995E+02 -0.22866E+04
 0.71599998E+02 -0.23512E+04
 0.71649994E+02 -0.22005E+04
 0.71699997E+02 -0.18188E+04
 0.71749992E+02 -0.19549E+04
 0.71799995E+02 -0.24868E+04
 0.71849998E+02 -0.23390E+04
 0.71899994E+02 -0.27545E+04
 0.71949997E+02 -0.34085E+04
 0.71999992E+02 -0.31765E+04
 0.72049995E+02 -0.30096E+04
 0.72099998E+02 -0.30251E+04
 0.72149994E+02 -0.29378E+04
 0.72199997E+02 -0.28785E+04
 0.72249992E+02 -0.26509E+04
 0.72299995E+02 -0.24504E+04
 0.72349998E+02 -0.23674E+04
 0.72399994E+02 -0.27803E+04
 0.72449997E+02 -0.31325E+04
 0.72499992E+02 -0.29619E+04
 0.72549995E+02 -0.26897E+04
 0.72599998E+02 -0.23251E+04
 0.72649994E+02 -0.21745E+04
 0.72699997E+02 -0.20457E+04
 0.72749992E+02 -0.26152E+04
 0.72799995E+02 -0.32713E+04
 0.72849998E+02 -0.30664E+04
 0.72899994E+02 -0.25918E+04
 0.72949997E+02 -0.22149E+04
 0.72999992E+02 -0.24945E+04
 0.73049995E+02 -0.27889E+04
 0.73099998E+02 -0.26521E+04
 0.73149994E+02 -0.28603E+04
 0.73199997E+02 -0.29847E+04
 0.73249992E+02 -0.24356E+04
 0.73299995E+02 -0.22388E+04
 0.73349998E+02 -0.22678E+04
 0.73399994E+02 -0.24617E+04
 0.73449997E+02 -0.26442E+04
 0.73499992E+02 -0.28562E+04
 0.73549995E+02 -0.27868E+04
 0.73599998E+02 -0.26423E+04
 0.73649994E+02 -0.31221E+04
 0.73699997E+02 -0.29184E+04
 0.73749992E+02 -0.25315E+04
 0.73799995E+02 -0.24797E+04
 0.73849998E+02 -0.25979E+04
 0.73899994E+02 -0.29337E+04
 0.73949997E+02 -0.33132E+04
 0.73999992E+02 -0.31687E+04
 0.74049995E+02 -0.27841E+04
 0.74099998E+02 -0.24095E+04
 0.74149994E+02 -0.24667E+04
 0.74199997E+02 -0.28378E+04
 0.74249992E+02 -0.25990E+04
 0.74299995E+02 -0.21579E+04
 0.74349998E+02 -0.19203E+04
 0.74399994E+02 -0.22323E+04
 0.74449997E+02 -0.22436E+04
 0.74499992E+02 -0.25102E+04
 0.74549995E+02 -0.27625E+04
 0.74599998E+02 -0.25889E+04
 0.74649994E+02 -0.28339E+04
 0.74699997E+02 -0.25116E+04
 0.74749992E+02 -0.21805E+04
 0.74799995E+02 -0.22562E+04
 0.74849998E+02 -0.22576E+04
 0.74899994E+02 -0.28942E+04
 0.74949997E+02 -0.33517E+04
 0.74999992E+02 -0.32293E+04
 0.75049995E+02 -0.30024E+04
 0.75099998E+02 -0.24643E+04
 0.75149994E+02 -0.23044E+04
 0.75199997E+02 -0.24572E+04
 0.75249992E+02 -0.27963E+04
 0.75299995E+02 -0.29324E+04
 0.75349998E+02 -0.28324E+04
 0.75399994E+02 -0.29397E+04
 0.75449997E+02 -0.28975E+04
 0.75499992E+02 -0.31725E+04
 0.75549995E+02 -0.31406E+04
 0.75599998E+02 -0.28547E+04
 0.75649994E+02 -0.26882E+04
 0.75699997E+02 -0.27354E+04
 0.75749992E+02 -0.26185E+04
 0.75799995E+02 -0.19902E+04
 0.75849998E+02 -0.22272E+04
 0.75899994E+02 -0.25938E+04
 0.75949997E+02 -0.27189E+04
 0.75999992E+02 -0.26923E+04
 0.76049995E+02 -0.22852E+04
 0.76099998E+02 -0.21654E+04
 0.76149994E+02 -0.23705E+04
 0.76199997E+02 -0.25228E+04
 0.76249992E+02 -0.26340E+04
 0.76299995E+02 -0.28897E+04
 0.76349998E+02 -0.30845E+04
 0.76399994E+02 -0.29075E+04
 0.76449997E+02 -0.28631E+04
 0.76499992E+02 -0.31797E+04
 0.76549995E+02 -0.29983E+04
 0.76599998E+02 -0.28537E+04
 0.76649994E+02 -0.28478E+04
 0.76699997E+02 -0.27408E+04
 0.76749992E+02 -0.26234E+04
 0.76799995E+02 -0.24804E+04
 0.76849998E+02 -0.25588E+04
 0.76899994E+02 -0.23156E+04
 0.76949997E+02 -0.21755E+04
 0.76999992E+02 -0.23499E+04
 0.77049995E+02 -0.26865E+04
 0.77099998E+02 -0.26517E+04
 0.77149994E+02 -0.27237E+04
 0.77199997E+02 -0.27145E+04
 0.77249992E+02 -0.22886E+04
 0.77299995E+02 -0.23648E+04
 0.77349998E+02 -0.27388E+04
 0.77399994E+02 -0.30408E+04
 0.77449997E+02 -0.33210E+04
 0.77499992E+02 -0.34402E+04
 0.77549995E+02 -0.30770E+04
 0.77599998E+02 -0.29995E+04
 0.77649994E+02 -0.30215E+04
 0.77699997E+02 -0.30615E+04
 0.77749992E+02 -0.28644E+04
 0.77799995E+02 -0.28436E+04
 0.77849998E+02 -0.28535E+04
 0.77899994E+02 -0.22247E+04
 0.77949997E+02 -0.22074E+04
 0.77999992E+02 -0.23590E+04
 0.78049995E+02 -0.24187E+04
 0.78099998E+02 -0.24423E+04
 0.78149994E+02 -0.22602E+04
 0.78199997E+02 -0.21652E+04
 0.78249992E+02 -0.23653E+04
 0.78299995E+02 -0.28579E+04
 0.78349998E+02 -0.26321E+04
 0.78399994E+02 -0.21096E+04
 0.78449997E+02 -0.21754E+04
 0.78499992E+02 -0.25596E+04
 0.78549995E+02 -0.24318E+04
 0.78599998E+02 -0.24625E+04
 0.78649994E+02 -0.29590E+04
 0.78699997E+02 -0.29756E+04
 0.78749992E+02 -0.29914E+04
 0.78799995E+02 -0.30977E+04
 0.78849998E+02 -0.29630E+04
 0.78899994E+02 -0.26814E+04
 0.78949997E+02 -0.26372E+04
 0.78999992E+02 -0.26173E+04
 0.79049995E+02 -0.25236E+04
 0.79099998E+02 -0.27199E+04
 0.79149994E+02 -0.27532E+04
 0.79199997E+02 -0.26852E+04
 0.79249992E+02 -0.28473E+04
 0.79299995E+02 -0.26538E+04
 0.79349998E+02 -0.22133E+04
 0.79399994E+02 -0.18736E+04
 0.79449997E+02 -0.20941E+04
 0.79499992E+02 -0.27136E+04
 0.79549995E+02 -0.28606E+04
 0.79599998E+02 -0.29222E+04
 0.79649994E+02 -0.30782E+04
 0.79699997E+02 -0.30887E+04
 0.79749992E+02 -0.30227E+04
 0.79799995E+02 -0.29895E+04
 0.79849998E+02 -0.26559E+04
 0.79899994E+02 -0.24768E+04
 0.79949997E+02 -0.26870E+04
 0.79999992E+02 -0.24780E+04
 0.80049995E+02 -0.23543E+04
 0.80099998E+02 -0.24153E+04
 0.80149994E+02 -0.23720E+04
 0.80199997E+02 -0.24542E+04
 0.80249992E+02 -0.25139E+04
 0.80299995E+02 -0.24799E+04
 0.80349998E+02 -0.26359E+04
 0.80399994E+02 -0.25655E+04
 0.80449997E+02 -0.23770E+04
 0.80499992E+02 -0.26792E+04
 0.80549995E+02 -0.28356E+04
 0.80599998E+02 -0.27942E+04
 0.80649994E+02 -0.27301E+04
 0.80699997E+02 -0.26121E+04
 0.80749992E+02 -0.28749E+04
 0.80799995E+02 -0.31313E+04
 0.80849998E+02 -0.28949E+04
 0.80899994E+02 -0.27459E+04
 0.80949997E+02 -0.27009E+04
 0.80999992E+02 -0.27258E+04
 0.81049995E+02 -0.28719E+04
 0.81099998E+02 -0.29408E+04
 0.81149994E+02 -0.29647E+04
 0.81199997E+02 -0.27236E+04
 0.81249992E+02 -0.26328E+04
 0.81299995E+02 -0.26877E+04
 0.81349998E+02 -0.26238E+04
 0.81399994E+02 -0.24609E+04
 0.81449997E+02 -0.22161E+04
 0.81499992E+02 -0.25052E+04
 0.81549995E+02 -0.27880E+04
 0.81599998E+02 -0.28927E+04
 0.81649994E+02 -0.29454E+04
 0.81699997E+02 -0.27535E+04
 0.81749992E+02 -0.25905E+04
 0.81799995E+02 -0.24490E+04
 0.81849998E+02 -0.23456E+04
 0.81899994E+02 -0.25792E+04
 0.81949997E+02 -0.29471E+04
 0.81999992E+02 -0.27753E+04
 0.82049995E+02 -0.25410E+04
 0.82099998E+02 -0.25310E+04
 0.82149994E+02 -0.24359E+04
 0.82199997E+02 -0.24816E+04
 0.82249992E+02 -0.25328E+04
 0.82299995E+02 -0.25282E+04
 0.82349998E+02 -0.26516E+04
 0.82399994E+02 -0.28023E+04
 0.82449997E+02 -0.29136E+04
 0.82499992E+02 -0.28248E+04
 0.82549995E+02 -0.28153E+04
 0.82599998E+02 -0.26553E+04
 0.82649994E+02 -0.22396E+04
 0.82699997E+02 -0.21435E+04
 0.82749992E+02 -0.22804E+04
 0.82799995E+02 -0.24403E+04
 0.82849998E+02 -0.25179E+04
 0.82899994E+02 -0.24335E+04
 0.82949997E+02 -0.24834E+04
 0.82999992E+02 -0.27014E+04
 0.83049995E+02 -0.28889E+04
 0.83099998E+02 -0.30516E+04
 0.83149994E+02 -0.29118E+04
 0.83199997E+02 -0.25683E+04
 0.83249992E+02 -0.26814E+04
 0.83299995E+02 -0.29065E+04
 0.83349998E+02 -0.28435E+04
 0.83399994E+02 -0.28825E+04
 0.83449997E+02 -0.26174E+04
 0.83499992E+02 -0.25265E+04
 0.83549995E+02 -0.27860E+04
 0.83599998E+02 -0.29360E+04
 0.83649994E+02 -0.29224E+04
 0.83699997E+02 -0.27814E+04
 0.83749992E+02 -0.28588E+04
 0.83799995E+02 -0.27684E+04
 0.83849998E+02 -0.27675E+04
 0.83899994E+02 -0.27811E+04
 0.83949997E+02 -0.28389E+04
 0.83999992E+02 -0.28577E+04
 0.84049995E+02 -0.25498E+04
 0.84099998E+02 -0.22521E+04
 0.84149994E+02 -0.21956E+04
 0.84199997E+02 -0.25456E+04
 0.84249992E+02 -0.30021E+04
 0.84299995E+02 -0.31199E+04
 0.84349998E+02 -0.28346E+04
 0.84399994E+02 -0.24639E+04
 0.84449997E+02 -0.24854E+04
 0.84499992E+02 -0.26796E+04
 0.84549995E+02 -0.27165E+04
 0.84599998E+02 -0.28534E+04
 0.84649994E+02 -0.29062E+04
 0.84699997E+02 -0.27095E+04
 0.84749992E+02 -0.24262E+04
 0.84799995E+02 -0.24711E+04
 0.84849998E+02 -0.26649E+04
 0.84899994E+02 -0.29423E+04
 0.84949997E+02 -0.29709E+04
 0.84999992E+02 -0.25713E+04
 0.85049995E+02 -0.23749E+04
 0.85099998E+02 -0.23490E+04
 0.85149994E+02 -0.24798E+04
 0.85199997E+02 -0.25472E+04
 0.85249992E+02 -0.26277E+04
 0.85299995E+02 -0.28283E+04
 0.85349998E+02 -0.29158E+04
 0.85399994E+02 -0.28420E+04
 0.85449997E+02 -0.26728E+04
 0.85499992E+02 -0.26585E+04
 0.85549995E+02 -0.27551E+04
 0.85599998E+02 -0.26924E+04
 0.85649994E+02 -0.27184E+04
 0.85699997E+02 -0.28114E+04
 0.85749992E+02 -0.28260E+04
 0.85799995E+02 -0.29254E+04
 0.85849998E+02 -0.27469E+04
 0.85899994E+02 -0.25770E+04
 0.85949997E+02 -0.26026E+04
 0.85999992E+02 -0.27023E+04
 0.86049995E+02 -0.26819E+04
 0.86099998E+02 -0.23991E+04
 0.86149994E+02 -0.24969E+04
 0.86199997E+02 -0.29075E+04
 0.86249992E+02 -0.30419E+04
 0.86299995E+02 -0.28548E+04
 0.86349998E+02 -0.26425E+04
 0.86399994E+02 -0.25766E+04
 0.86449997E+02 -0.24468E+04
 0.86499992E+02 -0.24527E+04
 0.86549995E+02 -0.26020E+04
 0.86599998E+02 -0.25173E+04
 0.86649994E+02 -0.24355E+04
 0.86699997E+02 -0.23516E+04
 0.86749992E+02 -0.25456E+04
 0.86799995E+02 -0.27951E+04
 0.86849998E+02 -0.27096E+04
 0.86899994E+02 -0.26580E+04
 0.86949997E+02 -0.27092E+04
 0.86999992E+02 -0.27833E+04
 0.87049995E+02 -0.27509E+04
 0.87099998E+02 -0.27661E+04
 0.87149994E+02 -0.25332E+04
 0.87199997E+02 -0.25226E+04
 0.87249992E+02 -0.26796E+04
 0.87299995E+02 -0.27675E+04
 0.87349998E+02 -0.28301E+04
 0.87399994E+02 -0.28338E+04
 0.87449997E+02 -0.27867E+04
 0.87499992E+02 -0.25878E+04
 0.87549995E+02 -0.27181E+04
 0.87599991E+02 -0.27921E+04
 0.87649994E+02 -0.25263E+04
 0.87699997E+02 -0.22687E+04
 0.87749992E+02 -0.23299E+04
 0.87799995E+02 -0.25293E+04
 0.87849991E+02 -0.27421E+04
 0.87899994E+02 -0.27157E+04
 0.87949997E+02 -0.26306E+04
 0.87999992E+02 -0.24816E+04
 0.88049995E+02 -0.23236E+04
 0.88099991E+02 -0.24214E+04
 0.88149994E+02 -0.24974E+04
 0.88199997E+02 -0.26032E+04
 0.88249992E+02 -0.26787E+04
 0.88299995E+02 -0.26458E+04
 0.88349991E+02 -0.27708E+04
 0.88399994E+02 -0.29005E+04
 0.88449997E+02 -0.29551E+04
 0.88499992E+02 -0.30430E+04
 0.88549995E+02 -0.29532E+04
 0.88599991E+02 -0.29376E+04
 0.88649994E+02 -0.27838E+04
 0.88699997E+02 -0.26800E+04
 0.88749992E+02 -0.27761E+04
 0.88799995E+02 -0.27997E+04
 0.88849991E+02 -0.26250E+04
 0.88899994E+02 -0.23516E+04
 0.88949997E+02 -0.22894E+04
 0.88999992E+02 -0.22964E+04
 0.89049995E+02 -0.26973E+04
 0.89099991E+02 -0.28251E+04
 0.89149994E+02 -0.24283E+04
 0.89199997E+02 -0.21057E+04
 0.89249992E+02 -0.22014E+04
 0.89299995E+02 -0.26662E+04
 0.89349991E+02 -0.29439E+04
 0.89399994E+02 -0.29935E+04
 0.89449997E+02 -0.29815E+04
 0.89499992E+02 -0.29594E+04
 0.89549995E+02 -0.29713E+04
 0.89599991E+02 -0.30153E+04
 0.89649994E+02 -0.29159E+04
 0.89699997E+02 -0.29383E+04
 0.89749992E+02 -0.29552E+04
 0.89799995E+02 -0.27375E+04
 0.89849991E+02 -0.26833E+04
 0.89899994E+02 -0.26649E+04
 0.89949997E+02 -0.27274E+04
 0.89999992E+02 -0.29202E+04
 0.90049995E+02 -0.28018E+04
 0.90099991E+02 -0.25726E+04
 0.90149994E+02 -0.23449E+04
 0.90199997E+02 -0.21926E+04
 0.90249992E+02 -0.24356E+04
 0.90299995E+02 -0.24757E+04
 0.90349991E+02 -0.23433E+04
 0.90399994E+02 -0.23276E+04
 0.90449997E+02 -0.25065E+04
 0.90499992E+02 -0.26612E+04
 0.90549995E+02 -0.24211E+04
 0.90599991E+02 -0.23094E+04
 0.90649994E+02 -0.23932E+04
 0.90699997E+02 -0.24210E+04
 0.90749992E+02 -0.24341E+04
 0.90799995E+02 -0.26047E+04
 0.90849991E+02 -0.26578E+04
 0.90899994E+02 -0.28934E+04
 0.90949997E+02 -0.30471E+04
 0.90999992E+02 -0.27346E+04
 0.91049995E+02 -0.27027E+04
 0.91099991E+02 -0.28179E+04
 0.91149994E+02 -0.28297E+04
 0.91199997E+02 -0.28231E+04
 0.91249992E+02 -0.27443E+04
 0.91299995E+02 -0.28186E+04
 0.91349991E+02 -0.28975E+04
 0.91399994E+02 -0.27380E+04
 0.91449997E+02 -0.25926E+04
 0.91499992E+02 -0.24935E+04
 0.91549995E+02 -0.25055E+04
 0.91599991E+02 -0.26936E+04
 0.91649994E+02 -0.27830E+04
 0.91699997E+02 -0.26968E+04
 0.91749992E+02 -0.26994E+04
 0.91799995E+02 -0.27289E+04
 0.91849991E+02 -0.27410E+04
 0.91899994E+02 -0.28219E+04
 0.91949997E+02 -0.28736E+04
 0.91999992E+02 -0.28386E+04
 0.92049995E+02 -0.27946E+04
 0.92099991E+02 -0.27129E+04
 0.92149994E+02 -0.28381E+04
 0.92199997E+02 -0.29032E+04
 0.92249992E+02 -0.27234E+04
 0.92299995E+02 -0.27688E+04
 0.92349991E+02 -0.28315E+04
 0.92399994E+02 -0.27646E+04
 0.92449997E+02 -0.25425E+04
 0.92499992E+02 -0.24717E+04
 0.92549995E+02 -0.24438E+04
 0.92599991E+02 -0.23307E+04
 0.92649994E+02 -0.23373E+04
 0.92699997E+02 -0.24779E+04
 0.92749992E+02 -0.26409E+04
 0.92799995E+02 -0.25482E+04
 0.92849991E+02 -0.22863E+04
 0.92899994E+02 -0.24201E+04
 0.92949997E+02 -0.26706E+04
 0.92999992E+02 -0.26719E+04
 0.93049995E+02 -0.27859E+04
 0.93099991E+02 -0.28664E+04
 0.93149994E+02 -0.26780E+04
 0.93199997E+02 -0.24344E+04
 0.93249992E+02 -0.25402E+04
 0.93299995E+02 -0.27420E+04
 0.93349991E+02 -0.27994E+04
 0.93399994E+02 -0.27539E+04
 0.93449997E+02 -0.26579E+04
 0.93499992E+02 -0.25598E+04
 0.93549995E+02 -0.25551E+04
 0.93599991E+02 -0.26786E+04
 0.93649994E+02 -0.28802E+04
 0.93699997E+02 -0.29065E+04
 0.93749992E+02 -0.27948E+04
 0.93799995E+02 -0.28201E+04
 0.93849991E+02 -0.29142E+04
 0.93899994E+02 -0.29226E+04
 0.93949997E+02 -0.27731E+04
 0.93999992E+02 -0.27146E+04
 0.94049995E+02 -0.26897E+04
 0.94099991E+02 -0.25240E+04
 0.94149994E+02 -0.25334E+04
 0.94199997E+02 -0.25512E+04
 0.94249992E+02 -0.24960E+04
 0.94299995E+02 -0.26302E+04
 0.94349991E+02 -0.28318E+04
 0.94399994E+02 -0.28280E+04
 0.94449997E+02 -0.26232E+04
 0.94499992E+02 -0.23545E+04
 0.94549995E+02 -0.21699E+04
 0.94599991E+02 -0.23411E+04
 0.94649994E+02 -0.24623E+04
 0.94699997E+02 -0.25638E+04
 0.94749992E+02 -0.27396E+04
 0.94799995E+02 -0.27937E+04
 0.94849991E+02 -0.28680E+04
 0.94899994E+02 -0.28912E+04
 0.94949997E+02 -0.28607E+04
 0.94999992E+02 -0.29114E+04
 0.95049995E+02 -0.29005E+04
 0.95099991E+02 -0.27140E+04
 0.95149994E+02 -0.26060E+04
 0.95199997E+02 -0.25207E+04
 0.95249992E+02 -0.25963E+04
 0.95299995E+02 -0.27342E+04
 0.95349991E+02 -0.26178E+04
 0.95399994E+02 -0.24731E+04
 0.95449997E+02 -0.25201E+04
 0.95499992E+02 -0.26785E+04
 0.95549995E+02 -0.27387E+04
 0.95599991E+02 -0.28242E+04
 0.95649994E+02 -0.26876E+04
 0.95699997E+02 -0.26302E+04
 0.95749992E+02 -0.26418E+04
 0.95799995E+02 -0.24132E+04
 0.95849991E+02 -0.23524E+04
 0.95899994E+02 -0.24515E+04
 0.95949997E+02 -0.25369E+04
 0.95999992E+02 -0.25650E+04
 0.96049995E+02 -0.25392E+04
 0.96099991E+02 -0.25606E+04
 0.96149994E+02 -0.27036E+04
 0.96199997E+02 -0.27711E+04
 0.96249992E+02 -0.28443E+04
 0.96299995E+02 -0.27980E+04
 0.96349991E+02 -0.25872E+04
 0.96399994E+02 -0.25377E+04
 0.96449997E+02 -0.25306E+04
 0.96499992E+02 -0.25749E+04
 0.96549995E+02 -0.27460E+04
 0.96599991E+02 -0.28744E+04
 0.96649994E+02 -0.29412E+04
 0.96699997E+02 -0.29194E+04
 0.96749992E+02 -0.28055E+04
 0.96799995E+02 -0.27267E+04
 0.96849991E+02 -0.26571E+04
 0.96899994E+02 -0.26775E+04
 0.96949997E+02 -0.28718E+04
 0.96999992E+02 -0.29444E+04
 0.97049995E+02 -0.28509E+04
 0.97099991E+02 -0.27025E+04
 0.97149994E+02 -0.26591E+04
 0.97199997E+02 -0.26641E+04
 0.97249992E+02 -0.26217E+04
 0.97299995E+02 -0.25971E+04
 0.97349991E+02 -0.23683E+04
 0.97399994E+02 -0.22914E+04
 0.97449997E+02 -0.24288E+04
 0.97499992E+02 -0.24720E+04
 0.97549995E+02 -0.25661E+04
 0.97599991E+02 -0.26537E+04
 0.97649994E+02 -0.27331E+04
 0.97699997E+02 -0.27519E+04
 0.97749992E+02 -0.27614E+04
 0.97799995E+02 -0.27327E+04
 0.97849991E+02 -0.26435E+04
 0.97899994E+02 -0.25718E+04
 0.97949997E+02 -0.24951E+04
 0.97999992E+02 -0.25749E+04
