-0.20000000E+01  0.96288E+04
-0.19500000E+01  0.93306E+04
-0.19000000E+01  0.87577E+04
-0.18500000E+01  0.80457E+04
-0.18000000E+01  0.73322E+04
-0.17500000E+01  0.68932E+04
-0.17000000E+01  0.67856E+04
-0.16500001E+01  0.69094E+04
-0.16000000E+01  0.72658E+04
-0.15500000E+01  0.77628E+04
-0.15000000E+01  0.81403E+04
-0.14500000E+01  0.83111E+04
-0.14000001E+01  0.83615E+04
-0.13500000E+01  0.83811E+04
-0.13000001E+01  0.84907E+04
-0.12500000E+01  0.88212E+04
-0.12000000E+01  0.94125E+04
-0.11500001E+01  0.10223E+05
-0.11000000E+01  0.11141E+05
-0.10500001E+01  0.11979E+05
-0.10000000E+01  0.12717E+05
-0.95000005E+00  0.13506E+05
-0.90000010E+00  0.14379E+05
-0.85000002E+00  0.15348E+05
-0.80000007E+00  0.16418E+05
-0.75000012E+00  0.17433E+05
-0.70000005E+00  0.18067E+05
-0.65000010E+00  0.18112E+05
-0.60000014E+00  0.17741E+05
-0.55000007E+00  0.17179E+05
-0.50000012E+00  0.16557E+05
-0.45000005E+00  0.16038E+05
-0.40000010E+00  0.15661E+05
-0.35000014E+00  0.15260E+05
-0.30000007E+00  0.14520E+05
-0.25000012E+00  0.13271E+05
-0.20000005E+00  0.11572E+05
-0.15000010E+00  0.95494E+04
-0.10000014E+00  0.73862E+04
-0.50000072E-01  0.52750E+04
-0.11920929E-06  0.32408E+04
 0.49999952E-01  0.11474E+04
 0.99999905E-01 -0.96702E+03
 0.14999986E+00 -0.30432E+04
 0.19999981E+00 -0.51106E+04
 0.24999976E+00 -0.70793E+04
 0.29999995E+00 -0.88868E+04
 0.34999990E+00 -0.10636E+05
 0.39999986E+00 -0.12433E+05
 0.44999981E+00 -0.14321E+05
 0.49999976E+00 -0.16249E+05
 0.54999995E+00 -0.18078E+05
 0.59999990E+00 -0.19753E+05
 0.64999986E+00 -0.21247E+05
 0.69999981E+00 -0.22486E+05
 0.74999976E+00 -0.23454E+05
 0.79999971E+00 -0.24153E+05
 0.84999990E+00 -0.24537E+05
 0.89999986E+00 -0.24577E+05
 0.94999981E+00 -0.24304E+05
 0.99999976E+00 -0.23787E+05
 0.10499997E+01 -0.23028E+05
 0.10999999E+01 -0.22063E+05
 0.11499999E+01 -0.20948E+05
 0.11999998E+01 -0.19724E+05
 0.12499998E+01 -0.18358E+05
 0.12999997E+01 -0.16756E+05
 0.13499999E+01 -0.14874E+05
 0.13999999E+01 -0.12604E+05
 0.14499998E+01 -0.99014E+04
 0.14999998E+01 -0.69189E+04
 0.15499997E+01 -0.38128E+04
 0.15999999E+01 -0.75465E+03
 0.16499999E+01  0.21538E+04
 0.16999998E+01  0.48283E+04
 0.17499998E+01  0.72216E+04
 0.17999997E+01  0.93730E+04
 0.18499997E+01  0.11176E+05
 0.18999999E+01  0.12547E+05
 0.19499998E+01  0.13571E+05
 0.19999998E+01  0.14456E+05
 0.20499997E+01  0.15362E+05
 0.20999999E+01  0.16380E+05
 0.21499996E+01  0.17443E+05
 0.21999998E+01  0.18468E+05
 0.22499995E+01  0.19491E+05
 0.22999997E+01  0.20437E+05
 0.23499999E+01  0.21195E+05
 0.23999996E+01  0.21788E+05
 0.24499998E+01  0.22217E+05
 0.24999995E+01  0.22355E+05
 0.25499997E+01  0.22250E+05
 0.25999999E+01  0.22056E+05
 0.26499996E+01  0.21776E+05
 0.26999998E+01  0.21442E+05
 0.27499995E+01  0.21182E+05
 0.27999997E+01  0.20913E+05
 0.28499999E+01  0.20429E+05
 0.28999996E+01  0.19658E+05
 0.29499998E+01  0.18595E+05
 0.29999995E+01  0.17197E+05
 0.30499997E+01  0.15510E+05
 0.30999999E+01  0.13717E+05
 0.31499996E+01  0.11859E+05
 0.31999998E+01  0.99502E+04
 0.32499995E+01  0.79744E+04
 0.32999997E+01  0.59267E+04
 0.33499999E+01  0.39610E+04
 0.33999996E+01  0.20721E+04
 0.34499998E+01  0.37002E+03
 0.34999995E+01 -0.92067E+03
 0.35499997E+01 -0.18026E+04
 0.35999994E+01 -0.23015E+04
 0.36499996E+01 -0.25288E+04
 0.36999998E+01 -0.26501E+04
 0.37499995E+01 -0.27520E+04
 0.37999997E+01 -0.27984E+04
 0.38499994E+01 -0.26567E+04
 0.38999996E+01 -0.22012E+04
 0.39499998E+01 -0.12665E+04
 0.39999995E+01  0.20192E+03
 0.40499997E+01  0.20007E+04
 0.40999994E+01  0.38523E+04
 0.41499996E+01  0.56103E+04
 0.41999998E+01  0.72074E+04
 0.42499995E+01  0.86321E+04
 0.42999997E+01  0.99091E+04
 0.43499994E+01  0.11026E+05
 0.43999996E+01  0.11916E+05
 0.44499998E+01  0.12534E+05
 0.44999995E+01  0.12895E+05
 0.45499997E+01  0.12940E+05
 0.45999994E+01  0.12677E+05
 0.46499996E+01  0.12217E+05
 0.46999998E+01  0.11621E+05
 0.47499995E+01  0.10933E+05
 0.47999997E+01  0.10202E+05
 0.48499994E+01  0.93886E+04
 0.48999996E+01  0.84126E+04
 0.49499998E+01  0.73042E+04
 0.49999995E+01  0.60522E+04
 0.50499997E+01  0.46227E+04
 0.50999994E+01  0.31423E+04
 0.51499996E+01  0.17676E+04
 0.51999998E+01  0.60377E+03
 0.52499995E+01 -0.31886E+03
 0.52999997E+01 -0.10904E+04
 0.53499994E+01 -0.17641E+04
 0.53999996E+01 -0.23724E+04
 0.54499993E+01 -0.29949E+04
 0.54999995E+01 -0.36493E+04
 0.55499997E+01 -0.42210E+04
 0.55999994E+01 -0.45658E+04
 0.56499996E+01 -0.45936E+04
 0.56999993E+01 -0.42729E+04
 0.57499995E+01 -0.37168E+04
 0.57999997E+01 -0.31971E+04
 0.58499994E+01 -0.28936E+04
 0.58999996E+01 -0.27688E+04
 0.59499993E+01 -0.27771E+04
 0.59999995E+01 -0.29559E+04
 0.60499992E+01 -0.33052E+04
 0.60999994E+01 -0.37371E+04
 0.61499996E+01 -0.41972E+04
 0.61999998E+01 -0.45567E+04
 0.62499990E+01 -0.46358E+04
 0.62999992E+01 -0.44043E+04
 0.63499994E+01 -0.39282E+04
 0.63999996E+01 -0.32631E+04
 0.64499998E+01 -0.25081E+04
 0.64999990E+01 -0.18288E+04
 0.65499992E+01 -0.12867E+04
 0.65999994E+01 -0.80406E+03
 0.66499996E+01 -0.24397E+03
 0.66999998E+01  0.44637E+03
 0.67499990E+01  0.12658E+04
 0.67999992E+01  0.22216E+04
 0.68499994E+01  0.31641E+04
 0.68999996E+01  0.38973E+04
 0.69499998E+01  0.43622E+04
 0.69999990E+01  0.45765E+04
 0.70499992E+01  0.46790E+04
 0.70999994E+01  0.48741E+04
 0.71499996E+01  0.53451E+04
 0.71999998E+01  0.62512E+04
 0.72499990E+01  0.75340E+04
 0.72999992E+01  0.90417E+04
 0.73499994E+01  0.10637E+05
 0.73999996E+01  0.12146E+05
 0.74499998E+01  0.13417E+05
 0.74999990E+01  0.14392E+05
 0.75499992E+01  0.15051E+05
 0.75999994E+01  0.15373E+05
 0.76499996E+01  0.15411E+05
 0.76999998E+01  0.15239E+05
 0.77499990E+01  0.14916E+05
 0.77999992E+01  0.14436E+05
 0.78499994E+01  0.13833E+05
 0.78999996E+01  0.13246E+05
 0.79499998E+01  0.12654E+05
 0.79999990E+01  0.11981E+05
 0.80499992E+01  0.11335E+05
 0.80999994E+01  0.10812E+05
 0.81499996E+01  0.10491E+05
 0.81999998E+01  0.10392E+05
 0.82499990E+01  0.10459E+05
 0.82999992E+01  0.10535E+05
 0.83499994E+01  0.10495E+05
 0.83999996E+01  0.10388E+05
 0.84499998E+01  0.10183E+05
 0.84999990E+01  0.97804E+04
 0.85499992E+01  0.90553E+04
 0.85999994E+01  0.80886E+04
 0.86499996E+01  0.69486E+04
 0.86999998E+01  0.56355E+04
 0.87499990E+01  0.42861E+04
 0.87999992E+01  0.29003E+04
 0.88499994E+01  0.13875E+04
 0.88999996E+01 -0.33172E+03
 0.89499998E+01 -0.22108E+04
 0.89999990E+01 -0.40914E+04
 0.90499992E+01 -0.57644E+04
 0.90999994E+01 -0.69687E+04
 0.91499996E+01 -0.76647E+04
 0.91999989E+01 -0.78702E+04
 0.92499990E+01 -0.76103E+04
 0.92999992E+01 -0.69838E+04
 0.93499994E+01 -0.60733E+04
 0.93999996E+01 -0.50143E+04
 0.94499989E+01 -0.39643E+04
 0.94999990E+01 -0.30461E+04
 0.95499992E+01 -0.22578E+04
 0.95999994E+01 -0.14984E+04
 0.96499996E+01 -0.71834E+03
 0.96999989E+01  0.52679E+02
 0.97499990E+01  0.84259E+03
 0.97999992E+01  0.16550E+04
 0.98499994E+01  0.24557E+04
 0.98999996E+01  0.32191E+04
 0.99499989E+01  0.38724E+04
 0.99999990E+01  0.43602E+04
 0.10049999E+02  0.46724E+04
 0.10099999E+02  0.48534E+04
 0.10150000E+02  0.50447E+04
 0.10199999E+02  0.53652E+04
 0.10249999E+02  0.58289E+04
 0.10299999E+02  0.64138E+04
 0.10349999E+02  0.69876E+04
 0.10400000E+02  0.73429E+04
 0.10449999E+02  0.73363E+04
 0.10499999E+02  0.70201E+04
 0.10549999E+02  0.64909E+04
 0.10599999E+02  0.58107E+04
 0.10650000E+02  0.51268E+04
 0.10699999E+02  0.45888E+04
 0.10749999E+02  0.42285E+04
 0.10799999E+02  0.40355E+04
 0.10849999E+02  0.40730E+04
 0.10900000E+02  0.44078E+04
 0.10949999E+02  0.50768E+04
 0.10999999E+02  0.59607E+04
 0.11049999E+02  0.69106E+04
 0.11099999E+02  0.78121E+04
 0.11150000E+02  0.85533E+04
 0.11199999E+02  0.90704E+04
 0.11249999E+02  0.94327E+04
 0.11299999E+02  0.97928E+04
 0.11349999E+02  0.10219E+05
 0.11400000E+02  0.10769E+05
 0.11449999E+02  0.11340E+05
 0.11499999E+02  0.11762E+05
 0.11549999E+02  0.11872E+05
 0.11599999E+02  0.11550E+05
 0.11650000E+02  0.10826E+05
 0.11699999E+02  0.98085E+04
 0.11749999E+02  0.85951E+04
 0.11799999E+02  0.72536E+04
 0.11849999E+02  0.59080E+04
 0.11900000E+02  0.45834E+04
 0.11949999E+02  0.32918E+04
 0.11999999E+02  0.21016E+04
 0.12049999E+02  0.11378E+04
 0.12099999E+02  0.52906E+03
 0.12150000E+02  0.31163E+03
 0.12199999E+02  0.36590E+03
 0.12249999E+02  0.60139E+03
 0.12299999E+02  0.10027E+04
 0.12349999E+02  0.15198E+04
 0.12400000E+02  0.21284E+04
 0.12449999E+02  0.28242E+04
 0.12499999E+02  0.35812E+04
 0.12549999E+02  0.43705E+04
 0.12599999E+02  0.51509E+04
 0.12649999E+02  0.57950E+04
 0.12699999E+02  0.63252E+04
 0.12749999E+02  0.68320E+04
 0.12799999E+02  0.74235E+04
 0.12849999E+02  0.81373E+04
 0.12899999E+02  0.89966E+04
 0.12949999E+02  0.99396E+04
 0.12999999E+02  0.10778E+05
 0.13049999E+02  0.11444E+05
 0.13099999E+02  0.11942E+05
 0.13149999E+02  0.12312E+05
 0.13199999E+02  0.12662E+05
 0.13249999E+02  0.13100E+05
 0.13299999E+02  0.13647E+05
 0.13349999E+02  0.14212E+05
 0.13399999E+02  0.14751E+05
 0.13449999E+02  0.15294E+05
 0.13499999E+02  0.15725E+05
 0.13549999E+02  0.15921E+05
 0.13599999E+02  0.15929E+05
 0.13649999E+02  0.15830E+05
 0.13699999E+02  0.15564E+05
 0.13749999E+02  0.15095E+05
 0.13799999E+02  0.14478E+05
 0.13849999E+02  0.13750E+05
 0.13899999E+02  0.12974E+05
 0.13949999E+02  0.12173E+05
 0.13999999E+02  0.11248E+05
 0.14049999E+02  0.10119E+05
 0.14099998E+02  0.87456E+04
 0.14150000E+02  0.71147E+04
 0.14199999E+02  0.52993E+04
 0.14249998E+02  0.34226E+04
 0.14299999E+02  0.16163E+04
 0.14349998E+02  0.20916E+02
 0.14400000E+02 -0.12916E+04
 0.14449999E+02 -0.23632E+04
 0.14499998E+02 -0.33021E+04
 0.14549999E+02 -0.42661E+04
 0.14599998E+02 -0.53446E+04
 0.14650000E+02 -0.65115E+04
 0.14699999E+02 -0.76433E+04
 0.14749998E+02 -0.86444E+04
 0.14799999E+02 -0.94956E+04
 0.14849998E+02 -0.10212E+05
 0.14900000E+02 -0.10920E+05
 0.14949999E+02 -0.11703E+05
 0.14999998E+02 -0.12614E+05
 0.15049999E+02 -0.13650E+05
 0.15099998E+02 -0.14756E+05
 0.15150000E+02 -0.15861E+05
 0.15199999E+02 -0.16794E+05
 0.15249998E+02 -0.17477E+05
 0.15299999E+02 -0.17923E+05
 0.15349998E+02 -0.18142E+05
 0.15400000E+02 -0.18174E+05
 0.15449999E+02 -0.18013E+05
 0.15499998E+02 -0.17685E+05
 0.15549999E+02 -0.17327E+05
 0.15599998E+02 -0.16965E+05
 0.15650000E+02 -0.16466E+05
 0.15699999E+02 -0.15705E+05
 0.15749998E+02 -0.14598E+05
 0.15799999E+02 -0.13154E+05
 0.15849998E+02 -0.11579E+05
 0.15900000E+02 -0.10056E+05
 0.15949999E+02 -0.86831E+04
 0.15999998E+02 -0.75043E+04
 0.16049999E+02 -0.64510E+04
 0.16099998E+02 -0.53613E+04
 0.16150000E+02 -0.40501E+04
 0.16199999E+02 -0.25060E+04
 0.16249998E+02 -0.77657E+03
 0.16299999E+02  0.11191E+04
 0.16349998E+02  0.31192E+04
 0.16400000E+02  0.51854E+04
 0.16449999E+02  0.72381E+04
 0.16499998E+02  0.92411E+04
 0.16549999E+02  0.11237E+05
 0.16599998E+02  0.13079E+05
 0.16650000E+02  0.14569E+05
 0.16699999E+02  0.15652E+05
 0.16749998E+02  0.16289E+05
 0.16799999E+02  0.16493E+05
 0.16849998E+02  0.16398E+05
 0.16900000E+02  0.16073E+05
 0.16949999E+02  0.15557E+05
 0.16999998E+02  0.14840E+05
 0.17049999E+02  0.13910E+05
 0.17099998E+02  0.12757E+05
 0.17150000E+02  0.11394E+05
 0.17199999E+02  0.98869E+04
 0.17249998E+02  0.82689E+04
 0.17299999E+02  0.66321E+04
 0.17349998E+02  0.49760E+04
 0.17400000E+02  0.33566E+04
 0.17449999E+02  0.18362E+04
 0.17499998E+02  0.47247E+03
 0.17549999E+02 -0.66520E+03
 0.17599998E+02 -0.15912E+04
 0.17650000E+02 -0.24008E+04
 0.17699999E+02 -0.30806E+04
 0.17749998E+02 -0.36998E+04
 0.17799999E+02 -0.42412E+04
 0.17849998E+02 -0.44809E+04
 0.17900000E+02 -0.36617E+04
 0.17949999E+02 -0.10966E+04
 0.17999998E+02  0.38508E+04
 0.18049999E+02  0.10996E+05
 0.18099998E+02  0.18417E+05
 0.18150000E+02  0.23834E+05
 0.18199999E+02  0.25811E+05
 0.18249998E+02  0.24111E+05
 0.18299999E+02  0.21646E+05
 0.18349998E+02  0.22425E+05
 0.18400000E+02  0.25116E+05
 0.18449999E+02  0.27734E+05
 0.18499998E+02  0.26828E+05
 0.18549999E+02  0.19400E+05
 0.18599998E+02  0.69347E+04
 0.18650000E+02  0.95155E+03
 0.18699999E+02  0.82272E+04
 0.18749998E+02  0.31496E+05
 0.18799999E+02  0.67835E+05
 0.18849998E+02  0.10223E+06
 0.18900000E+02  0.11811E+06
 0.18949999E+02  0.10948E+06
 0.18999998E+02  0.83946E+05
 0.19049999E+02  0.60697E+05
 0.19099998E+02  0.60599E+05
 0.19150000E+02  0.71570E+05
 0.19199999E+02  0.82851E+05
 0.19249998E+02  0.69525E+05
 0.19299999E+02  0.29904E+04
 0.19349998E+02 -0.88560E+05
 0.19400000E+02 -0.17786E+06
 0.19449999E+02 -0.24333E+06
 0.19499998E+02 -0.26761E+06
 0.19549999E+02 -0.26647E+06
 0.19599998E+02 -0.26538E+06
 0.19650000E+02 -0.28380E+06
 0.19699999E+02 -0.30391E+06
 0.19749998E+02 -0.29918E+06
 0.19799999E+02 -0.25778E+06
 0.19849998E+02 -0.18441E+06
 0.19900000E+02 -0.94065E+05
 0.19949999E+02 -0.32635E+05
 0.19999998E+02 -0.10717E+05
 0.20049999E+02 -0.52090E+04
 0.20099998E+02 -0.60837E+04
 0.20150000E+02 -0.29359E+04
 0.20199999E+02  0.41918E+05
 0.20249998E+02  0.92671E+05
 0.20299999E+02  0.13672E+06
 0.20349998E+02  0.15987E+06
 0.20399998E+02  0.11573E+06
 0.20449999E+02  0.11425E+06
 0.20499998E+02  0.10473E+06
 0.20549999E+02  0.11173E+06
 0.20599998E+02  0.15719E+06
 0.20649998E+02  0.16576E+06
 0.20699999E+02  0.18580E+06
 0.20749998E+02  0.15281E+06
 0.20799999E+02  0.96228E+05
 0.20849998E+02  0.25475E+05
 0.20899998E+02 -0.45424E+05
 0.20949999E+02 -0.11047E+06
 0.20999998E+02 -0.18662E+06
 0.21049999E+02 -0.23852E+06
 0.21099998E+02 -0.28592E+06
 0.21149998E+02 -0.35716E+06
 0.21199999E+02 -0.41096E+06
 0.21249998E+02 -0.36801E+06
 0.21299999E+02 -0.30649E+06
 0.21349998E+02 -0.20383E+06
 0.21399998E+02 -0.88694E+05
 0.21449999E+02 -0.58158E+05
 0.21499998E+02 -0.65353E+05
 0.21549999E+02 -0.10970E+06
 0.21599998E+02 -0.17498E+06
 0.21649998E+02 -0.17130E+06
 0.21699999E+02 -0.12530E+06
 0.21749998E+02 -0.76704E+05
 0.21799999E+02 -0.39995E+05
 0.21849998E+02  0.54910E+04
 0.21899998E+02  0.25842E+05
 0.21949999E+02  0.57169E+05
 0.21999998E+02  0.11979E+06
 0.22049999E+02  0.12530E+06
 0.22099998E+02  0.67604E+05
 0.22149998E+02  0.12129E+05
 0.22199999E+02 -0.70538E+05
 0.22249998E+02 -0.13198E+06
 0.22299999E+02 -0.15337E+06
 0.22349998E+02 -0.13766E+06
 0.22399998E+02 -0.68139E+05
 0.22449999E+02 -0.86919E+05
 0.22499998E+02 -0.12551E+06
 0.22549999E+02 -0.20593E+06
 0.22599998E+02 -0.21894E+06
 0.22649998E+02 -0.17484E+06
 0.22699999E+02 -0.16176E+06
 0.22749998E+02 -0.20994E+06
 0.22799999E+02 -0.29728E+06
 0.22849998E+02 -0.31704E+06
 0.22899998E+02 -0.24442E+06
 0.22949999E+02 -0.14756E+06
 0.22999998E+02 -0.45660E+05
 0.23049999E+02  0.76727E+05
 0.23099998E+02  0.89912E+05
 0.23149998E+02  0.99680E+05
 0.23199999E+02  0.11006E+04
 0.23249998E+02 -0.87713E+05
 0.23299999E+02 -0.12096E+06
 0.23349998E+02 -0.15409E+06
 0.23399998E+02 -0.99330E+05
 0.23449999E+02 -0.67909E+05
 0.23499998E+02 -0.33593E+05
 0.23549999E+02 -0.43189E+05
 0.23599998E+02 -0.93346E+05
 0.23649998E+02 -0.22850E+06
 0.23699999E+02 -0.37202E+06
 0.23749998E+02 -0.45068E+06
 0.23799999E+02 -0.40147E+06
 0.23849998E+02 -0.25874E+06
 0.23899998E+02 -0.10200E+06
 0.23949999E+02  0.46662E+04
 0.23999998E+02  0.26145E+04
 0.24049999E+02  0.36535E+04
 0.24099998E+02 -0.56217E+05
 0.24149998E+02 -0.11918E+06
 0.24199999E+02 -0.15426E+06
 0.24249998E+02 -0.12464E+06
 0.24299999E+02 -0.96832E+05
 0.24349998E+02 -0.76896E+05
 0.24399998E+02  0.59104E+05
 0.24449999E+02  0.18466E+06
 0.24499998E+02  0.25656E+06
 0.24549999E+02  0.29436E+06
 0.24599998E+02  0.26893E+06
 0.24649998E+02  0.92754E+05
 0.24699999E+02 -0.50927E+05
 0.24749998E+02 -0.82687E+05
 0.24799999E+02 -0.15964E+06
 0.24849998E+02 -0.14285E+06
 0.24899998E+02 -0.45224E+05
 0.24949999E+02 -0.26177E+05
 0.24999998E+02 -0.47996E+05
 0.25049999E+02 -0.11437E+06
 0.25099998E+02 -0.17551E+06
 0.25149998E+02 -0.15798E+06
 0.25199999E+02 -0.12888E+06
 0.25249998E+02 -0.10252E+06
 0.25299999E+02 -0.13357E+06
 0.25349998E+02 -0.14317E+06
 0.25399998E+02 -0.23891E+06
 0.25449999E+02 -0.38927E+06
 0.25499998E+02 -0.43029E+06
 0.25549999E+02 -0.44761E+06
 0.25599998E+02 -0.30462E+06
 0.25649998E+02 -0.12265E+06
 0.25699999E+02 -0.23140E+05
 0.25749998E+02  0.84316E+05
 0.25799999E+02  0.10105E+06
 0.25849998E+02  0.87427E+05
 0.25899998E+02  0.12809E+06
 0.25949999E+02  0.71077E+05
 0.25999998E+02  0.16288E+05
 0.26049999E+02  0.22883E+05
 0.26099998E+02  0.39938E+05
 0.26149998E+02  0.92201E+05
 0.26199999E+02  0.20274E+06
 0.26249998E+02  0.28738E+06
 0.26299999E+02  0.40516E+06
 0.26349998E+02  0.54132E+06
 0.26399998E+02  0.57969E+06
 0.26449999E+02  0.57035E+06
 0.26499998E+02  0.44073E+06
 0.26549999E+02  0.33541E+06
 0.26599998E+02  0.17692E+06
 0.26649998E+02  0.67166E+05
 0.26699999E+02  0.97161E+05
 0.26749998E+02  0.13266E+06
 0.26799999E+02  0.25131E+06
 0.26849998E+02  0.29002E+06
 0.26899998E+02  0.22473E+06
 0.26949999E+02  0.11206E+06
 0.26999998E+02  0.27675E+05
 0.27049997E+02 -0.64989E+05
 0.27099998E+02 -0.93144E+05
 0.27149998E+02  0.24457E+05
 0.27199999E+02  0.13476E+06
 0.27249998E+02  0.28677E+06
 0.27299997E+02  0.43837E+06
 0.27349998E+02  0.54177E+06
 0.27399998E+02  0.59935E+06
 0.27449999E+02  0.57565E+06
 0.27499998E+02  0.45086E+06
 0.27549997E+02  0.28209E+06
 0.27599998E+02  0.14815E+06
 0.27649998E+02  0.99960E+05
 0.27699999E+02  0.19028E+06
 0.27749998E+02  0.34868E+06
 0.27799997E+02  0.52835E+06
 0.27849998E+02  0.67418E+06
 0.27899998E+02  0.73762E+06
 0.27949999E+02  0.74331E+06
 0.27999998E+02  0.63170E+06
 0.28049997E+02  0.40966E+06
 0.28099998E+02  0.18145E+06
 0.28149998E+02 -0.20990E+05
 0.28199999E+02 -0.27179E+06
 0.28249998E+02 -0.44302E+06
 0.28299997E+02 -0.45414E+06
 0.28349998E+02 -0.39494E+06
 0.28399998E+02 -0.23306E+06
 0.28449999E+02  0.21191E+05
 0.28499998E+02  0.28857E+06
 0.28549997E+02  0.39216E+06
 0.28599998E+02  0.40365E+06
 0.28649998E+02  0.41227E+06
 0.28699999E+02  0.33768E+06
 0.28749998E+02  0.26138E+06
 0.28799997E+02  0.29078E+06
 0.28849998E+02  0.31339E+06
 0.28899998E+02  0.36187E+06
 0.28949999E+02  0.51359E+06
 0.28999998E+02  0.57948E+06
 0.29049997E+02  0.57320E+06
 0.29099998E+02  0.47970E+06
 0.29149998E+02  0.38048E+06
 0.29199999E+02  0.26650E+06
 0.29249998E+02  0.12152E+06
 0.29299997E+02  0.63200E+05
 0.29349998E+02  0.15640E+05
 0.29399998E+02 -0.14230E+05
 0.29449999E+02 -0.28838E+05
 0.29499998E+02 -0.48045E+05
 0.29549997E+02 -0.30713E+05
 0.29599998E+02 -0.48390E+04
 0.29649998E+02 -0.87806E+05
 0.29699999E+02 -0.19429E+06
 0.29749998E+02 -0.30829E+06
 0.29799997E+02 -0.36598E+06
 0.29849998E+02 -0.31873E+06
 0.29899998E+02 -0.19384E+06
 0.29949999E+02  0.44302E+05
 0.29999998E+02  0.28727E+06
 0.30049999E+02  0.39929E+06
 0.30099998E+02  0.37674E+06
 0.30149998E+02  0.23498E+06
 0.30199997E+02 -0.10584E+06
 0.30249996E+02 -0.45729E+06
 0.30299999E+02 -0.74591E+06
 0.30349998E+02 -0.96088E+06
 0.30399998E+02 -0.10435E+07
 0.30449997E+02 -0.99420E+06
 0.30499996E+02 -0.90125E+06
 0.30549999E+02 -0.78224E+06
 0.30599998E+02 -0.57996E+06
 0.30649998E+02 -0.29167E+06
 0.30699997E+02  0.13586E+06
 0.30749996E+02  0.61560E+06
 0.30799999E+02  0.10455E+07
 0.30849998E+02  0.12357E+07
 0.30899998E+02  0.12094E+07
 0.30949997E+02  0.10006E+07
 0.30999996E+02  0.59706E+06
 0.31049999E+02  0.15205E+06
 0.31099998E+02 -0.29056E+06
 0.31149998E+02 -0.49780E+06
 0.31199997E+02 -0.50010E+06
 0.31249996E+02 -0.46522E+06
 0.31299999E+02 -0.37388E+06
 0.31349998E+02 -0.22778E+06
 0.31399998E+02 -0.16395E+06
 0.31449997E+02 -0.13659E+06
 0.31499996E+02  0.66262E+05
 0.31549999E+02  0.17330E+06
 0.31599998E+02  0.26793E+06
 0.31649998E+02  0.55374E+06
 0.31699997E+02  0.70894E+06
 0.31749996E+02  0.61880E+06
 0.31799999E+02  0.53589E+06
 0.31849998E+02  0.28637E+06
 0.31899998E+02 -0.19740E+06
 0.31949997E+02 -0.68762E+06
 0.31999996E+02 -0.10521E+07
 0.32049999E+02 -0.12020E+07
 0.32099998E+02 -0.10752E+07
 0.32149998E+02 -0.76438E+06
 0.32199997E+02 -0.70802E+06
 0.32249996E+02 -0.69563E+06
 0.32299999E+02 -0.58144E+06
 0.32349998E+02 -0.61270E+06
 0.32399998E+02 -0.51276E+06
 0.32449997E+02 -0.21018E+06
 0.32499996E+02  0.15039E+06
 0.32549999E+02  0.45132E+06
 0.32599998E+02  0.49989E+06
 0.32649998E+02  0.44992E+06
 0.32699997E+02  0.18966E+06
 0.32749996E+02 -0.20779E+06
 0.32799999E+02 -0.45219E+06
 0.32849998E+02 -0.66601E+06
 0.32899998E+02 -0.73083E+06
 0.32949997E+02 -0.42769E+06
 0.32999996E+02 -0.36645E+05
 0.33049999E+02  0.34590E+06
 0.33099998E+02  0.59267E+06
 0.33149998E+02  0.51560E+06
 0.33199997E+02  0.47299E+06
 0.33249996E+02  0.41882E+06
 0.33299999E+02  0.33105E+06
 0.33349998E+02  0.27007E+06
 0.33399998E+02  0.32232E+06
 0.33449997E+02  0.24250E+06
 0.33499996E+02 -0.21893E+06
 0.33549999E+02 -0.52426E+06
 0.33599998E+02 -0.43694E+06
 0.33649998E+02 -0.23056E+06
 0.33699997E+02 -0.55441E+05
 0.33749996E+02  0.17293E+06
 0.33799999E+02  0.23457E+06
 0.33849998E+02 -0.44490E+05
 0.33899998E+02 -0.20553E+06
 0.33949997E+02  0.91378E+05
 0.33999996E+02  0.45702E+06
 0.34049999E+02  0.80616E+06
 0.34099998E+02  0.10293E+07
 0.34149998E+02  0.88322E+06
 0.34199997E+02  0.67269E+06
 0.34249996E+02  0.55462E+06
 0.34299999E+02  0.44486E+06
 0.34349998E+02  0.33386E+06
 0.34399998E+02  0.38869E+06
 0.34449997E+02  0.56103E+06
 0.34499996E+02  0.57473E+06
 0.34549999E+02  0.37902E+06
 0.34599998E+02  0.21196E+06
 0.34649998E+02  0.78667E+05
 0.34699997E+02 -0.15367E+06
 0.34749996E+02 -0.31728E+06
 0.34799999E+02 -0.30473E+06
 0.34849998E+02 -0.32270E+06
 0.34899998E+02 -0.39191E+06
 0.34949997E+02 -0.26299E+06
 0.34999996E+02 -0.10267E+06
 0.35049999E+02 -0.22765E+06
 0.35099998E+02 -0.39476E+06
 0.35149998E+02 -0.39764E+06
 0.35199997E+02 -0.51831E+06
 0.35249996E+02 -0.63571E+06
 0.35299999E+02 -0.60039E+06
 0.35349998E+02 -0.57571E+06
 0.35399998E+02 -0.38230E+06
 0.35449997E+02 -0.60424E+05
 0.35499996E+02  0.16462E+06
 0.35549999E+02  0.24370E+06
 0.35599998E+02  0.13388E+06
 0.35649998E+02 -0.12030E+06
 0.35699997E+02 -0.27974E+06
 0.35749996E+02 -0.30009E+06
 0.35799999E+02 -0.31485E+06
 0.35849998E+02 -0.94949E+05
 0.35899998E+02  0.10969E+06
 0.35949997E+02 -0.97605E+04
 0.35999996E+02 -0.19116E+06
 0.36049999E+02 -0.31981E+06
 0.36099998E+02 -0.28651E+06
 0.36149998E+02  0.42926E+05
 0.36199997E+02  0.56279E+06
 0.36249996E+02  0.93675E+06
 0.36299999E+02  0.10455E+07
 0.36349998E+02  0.10816E+07
 0.36399998E+02  0.10430E+07
 0.36449997E+02  0.92506E+06
 0.36499996E+02  0.84454E+06
 0.36549999E+02  0.81666E+06
 0.36599998E+02  0.84707E+06
 0.36649998E+02  0.79997E+06
 0.36699997E+02  0.63964E+06
 0.36749996E+02  0.43325E+06
 0.36799999E+02  0.27230E+06
 0.36849998E+02  0.24483E+06
 0.36899998E+02  0.26398E+06
 0.36949997E+02  0.28565E+06
 0.36999996E+02  0.37833E+06
 0.37049999E+02  0.43336E+06
 0.37099998E+02  0.45790E+06
 0.37149998E+02  0.63998E+06
 0.37199997E+02  0.74122E+06
 0.37249996E+02  0.58323E+06
 0.37299999E+02  0.33719E+06
 0.37349998E+02  0.15005E+06
 0.37399998E+02 -0.37641E+05
 0.37449997E+02 -0.26073E+06
 0.37499996E+02 -0.44524E+06
 0.37549999E+02 -0.50906E+06
 0.37599998E+02 -0.39659E+06
 0.37649998E+02 -0.20286E+06
 0.37699997E+02  0.27596E+04
 0.37749996E+02  0.10275E+06
 0.37799999E+02  0.92523E+05
 0.37849998E+02  0.12612E+06
 0.37899998E+02  0.19594E+06
 0.37949997E+02  0.19021E+06
 0.37999996E+02  0.16189E+05
 0.38049999E+02 -0.27801E+06
 0.38099998E+02 -0.58039E+06
 0.38149998E+02 -0.79936E+06
 0.38199997E+02 -0.87058E+06
 0.38249996E+02 -0.74632E+06
 0.38299999E+02 -0.37312E+06
 0.38349998E+02  0.49239E+05
 0.38399998E+02  0.26210E+06
 0.38449997E+02  0.37047E+06
 0.38499996E+02  0.38889E+06
 0.38549999E+02  0.24007E+06
 0.38599998E+02  0.68333E+05
 0.38649998E+02 -0.90514E+05
 0.38699997E+02 -0.35915E+06
 0.38749996E+02 -0.55379E+06
 0.38799999E+02 -0.56408E+06
 0.38849998E+02 -0.57859E+06
 0.38899998E+02 -0.58534E+06
 0.38949997E+02 -0.63369E+06
 0.38999996E+02 -0.72981E+06
 0.39049999E+02 -0.79394E+06
 0.39099998E+02 -0.78558E+06
 0.39149998E+02 -0.62949E+06
 0.39199997E+02 -0.30551E+06
 0.39249996E+02  0.67958E+05
 0.39299999E+02  0.33820E+06
 0.39349998E+02  0.51082E+06
 0.39399998E+02  0.57218E+06
 0.39449997E+02  0.55318E+06
 0.39499996E+02  0.64346E+06
 0.39549999E+02  0.76058E+06
 0.39599998E+02  0.73814E+06
 0.39649998E+02  0.62051E+06
 0.39699997E+02  0.39716E+06
 0.39749996E+02  0.11734E+06
 0.39799999E+02 -0.11109E+06
 0.39849998E+02 -0.26676E+06
 0.39899998E+02 -0.32497E+06
 0.39949997E+02 -0.36859E+06
 0.39999996E+02 -0.37195E+06
 0.40049999E+02 -0.23266E+06
 0.40099998E+02 -0.17065E+06
 0.40149998E+02 -0.85640E+05
 0.40199997E+02  0.16361E+06
 0.40249996E+02  0.28812E+06
 0.40299999E+02  0.24152E+06
 0.40349998E+02  0.20601E+06
 0.40399998E+02  0.15217E+06
 0.40449997E+02 -0.23514E+04
 0.40499996E+02 -0.20759E+06
 0.40549999E+02 -0.37984E+06
 0.40599998E+02 -0.46342E+06
 0.40649998E+02 -0.50254E+06
 0.40699997E+02 -0.51289E+06
 0.40749996E+02 -0.50693E+06
 0.40799999E+02 -0.58526E+06
 0.40849998E+02 -0.70960E+06
 0.40899998E+02 -0.80483E+06
 0.40949997E+02 -0.84969E+06
 0.40999996E+02 -0.72078E+06
 0.41049999E+02 -0.43970E+06
 0.41099998E+02 -0.14704E+06
 0.41149998E+02  0.16453E+05
 0.41199997E+02 -0.31930E+05
 0.41249996E+02 -0.21247E+06
 0.41299999E+02 -0.39662E+06
 0.41349998E+02 -0.49640E+06
 0.41399998E+02 -0.42373E+06
 0.41449997E+02 -0.14012E+06
 0.41499996E+02  0.16529E+06
 0.41549999E+02  0.33440E+06
 0.41599998E+02  0.38123E+06
 0.41649998E+02  0.32061E+06
 0.41699997E+02  0.21712E+06
 0.41749996E+02  0.14527E+06
 0.41799999E+02  0.59619E+05
 0.41849998E+02 -0.79694E+05
 0.41899998E+02 -0.27871E+06
 0.41949997E+02 -0.54385E+06
 0.41999996E+02 -0.79015E+06
 0.42049999E+02 -0.93795E+06
 0.42099998E+02 -0.96144E+06
 0.42149998E+02 -0.87713E+06
 0.42199997E+02 -0.73100E+06
 0.42249996E+02 -0.57996E+06
 0.42299999E+02 -0.50169E+06
 0.42349998E+02 -0.47155E+06
 0.42399998E+02 -0.39394E+06
 0.42449997E+02 -0.31157E+06
 0.42499996E+02 -0.22113E+06
 0.42549999E+02 -0.10485E+06
 0.42599998E+02 -0.58947E+05
 0.42649998E+02 -0.58281E+05
 0.42699997E+02 -0.99548E+05
 0.42749996E+02 -0.19405E+06
 0.42799995E+02 -0.27069E+06
 0.42849998E+02 -0.24011E+06
 0.42899998E+02 -0.15867E+06
 0.42949997E+02 -0.10010E+06
 0.42999996E+02 -0.26398E+05
 0.43049995E+02  0.10073E+05
 0.43099998E+02  0.30353E+05
 0.43149998E+02  0.26595E+05
 0.43199997E+02  0.18490E+05
 0.43249996E+02  0.31745E+05
 0.43299995E+02  0.52559E+05
 0.43349998E+02  0.61719E+05
 0.43399998E+02  0.13033E+05
 0.43449997E+02 -0.71343E+05
 0.43499996E+02 -0.15586E+06
 0.43549995E+02 -0.18641E+06
 0.43599998E+02 -0.15600E+06
 0.43649998E+02 -0.12629E+06
 0.43699997E+02 -0.99691E+05
 0.43749996E+02 -0.30939E+05
 0.43799995E+02  0.64356E+05
 0.43849998E+02  0.17165E+06
 0.43899998E+02  0.26766E+06
 0.43949997E+02  0.34855E+06
 0.43999996E+02  0.34837E+06
 0.44049995E+02  0.26349E+06
 0.44099998E+02  0.26087E+06
 0.44149998E+02  0.31458E+06
 0.44199997E+02  0.31604E+06
 0.44249996E+02  0.32359E+06
 0.44299995E+02  0.30823E+06
 0.44349998E+02  0.24319E+06
 0.44399998E+02  0.13719E+06
 0.44449997E+02  0.37050E+05
 0.44499996E+02 -0.18165E+04
 0.44549995E+02 -0.73766E+03
 0.44599998E+02 -0.50838E+04
 0.44649998E+02 -0.37647E+04
 0.44699997E+02  0.82394E+05
 0.44749996E+02  0.19594E+06
 0.44799995E+02  0.27479E+06
 0.44849998E+02  0.33990E+06
 0.44899998E+02  0.36946E+06
 0.44949997E+02  0.33642E+06
 0.44999996E+02  0.28581E+06
 0.45049995E+02  0.22170E+06
 0.45099998E+02  0.14799E+06
 0.45149998E+02  0.68452E+05
 0.45199997E+02 -0.13104E+05
 0.45249996E+02 -0.96880E+04
 0.45299995E+02  0.24999E+05
 0.45349998E+02  0.85622E+05
 0.45399998E+02  0.18654E+06
 0.45449997E+02  0.21387E+06
 0.45499996E+02  0.23095E+06
 0.45549995E+02  0.29393E+06
 0.45599998E+02  0.38025E+06
 0.45649998E+02  0.46187E+06
 0.45699997E+02  0.54315E+06
 0.45749996E+02  0.59120E+06
 0.45799995E+02  0.55177E+06
 0.45849998E+02  0.41381E+06
 0.45899998E+02  0.17271E+06
 0.45949997E+02 -0.71167E+05
 0.45999996E+02 -0.23768E+06
 0.46049995E+02 -0.34996E+06
 0.46099998E+02 -0.39597E+06
 0.46149998E+02 -0.34982E+06
 0.46199997E+02 -0.26205E+06
 0.46249996E+02 -0.17690E+06
 0.46299995E+02 -0.98856E+05
 0.46349998E+02 -0.32867E+05
 0.46399998E+02 -0.10853E+05
 0.46449997E+02 -0.20265E+05
 0.46499996E+02 -0.39514E+05
 0.46549995E+02 -0.68587E+05
 0.46599998E+02 -0.10591E+06
 0.46649998E+02 -0.10691E+06
 0.46699997E+02 -0.24549E+05
 0.46749996E+02  0.83094E+05
 0.46799995E+02  0.19903E+06
 0.46849998E+02  0.34615E+06
 0.46899998E+02  0.50038E+06
 0.46949997E+02  0.63861E+06
 0.46999996E+02  0.70153E+06
 0.47049995E+02  0.66519E+06
 0.47099998E+02  0.55466E+06
 0.47149998E+02  0.41088E+06
 0.47199997E+02  0.22123E+06
 0.47249996E+02  0.32004E+04
 0.47299995E+02 -0.17765E+06
 0.47349998E+02 -0.30119E+06
 0.47399998E+02 -0.36579E+06
 0.47449997E+02 -0.35657E+06
 0.47499996E+02 -0.27440E+06
 0.47549995E+02 -0.17440E+06
 0.47599998E+02 -0.35546E+05
 0.47649998E+02  0.11263E+06
 0.47699997E+02  0.21688E+06
 0.47749996E+02  0.29333E+06
 0.47799995E+02  0.32379E+06
 0.47849998E+02  0.30513E+06
 0.47899998E+02  0.27266E+06
 0.47949997E+02  0.20077E+06
 0.47999996E+02  0.98519E+05
 0.48049995E+02 -0.10128E+05
 0.48099998E+02 -0.11361E+06
 0.48149998E+02 -0.18891E+06
 0.48199997E+02 -0.24014E+06
 0.48249996E+02 -0.24621E+06
 0.48299995E+02 -0.21157E+06
 0.48349998E+02 -0.17225E+06
 0.48399998E+02 -0.14293E+06
 0.48449997E+02 -0.17236E+06
 0.48499996E+02 -0.25352E+06
 0.48549995E+02 -0.28347E+06
 0.48599998E+02 -0.27663E+06
 0.48649998E+02 -0.24074E+06
 0.48699997E+02 -0.12359E+06
 0.48749996E+02  0.37211E+05
 0.48799995E+02  0.17837E+06
 0.48849998E+02  0.29158E+06
 0.48899998E+02  0.33978E+06
 0.48949997E+02  0.30704E+06
 0.48999996E+02  0.24434E+06
 0.49049995E+02  0.18881E+06
 0.49099998E+02  0.17322E+06
 0.49149998E+02  0.19704E+06
 0.49199997E+02  0.21711E+06
 0.49249996E+02  0.23981E+06
 0.49299995E+02  0.26735E+06
 0.49349998E+02  0.24026E+06
 0.49399998E+02  0.18040E+06
 0.49449997E+02  0.12045E+06
 0.49499996E+02  0.44804E+05
 0.49549995E+02 -0.32321E+05
 0.49599998E+02 -0.88256E+05
 0.49649998E+02 -0.12571E+06
 0.49699997E+02 -0.18140E+06
 0.49749996E+02 -0.24883E+06
 0.49799995E+02 -0.28600E+06
 0.49849998E+02 -0.27307E+06
 0.49899998E+02 -0.26023E+06
 0.49949997E+02 -0.25790E+06
 0.49999996E+02 -0.19398E+06
 0.50049995E+02 -0.10879E+06
 0.50099998E+02 -0.59032E+05
 0.50149998E+02 -0.34768E+05
 0.50199997E+02 -0.31583E+05
 0.50249996E+02 -0.62855E+05
 0.50299995E+02 -0.86430E+05
 0.50349998E+02 -0.80619E+05
 0.50399998E+02 -0.65781E+05
 0.50449997E+02 -0.14282E+05
 0.50499996E+02  0.54314E+05
 0.50549995E+02  0.12670E+06
 0.50599998E+02  0.22515E+06
 0.50649998E+02  0.33765E+06
 0.50699997E+02  0.44551E+06
 0.50749996E+02  0.52461E+06
 0.50799995E+02  0.53747E+06
 0.50849998E+02  0.50756E+06
 0.50899998E+02  0.44178E+06
 0.50949997E+02  0.34112E+06
 0.50999996E+02  0.24337E+06
 0.51049995E+02  0.13265E+06
 0.51099998E+02  0.13559E+04
 0.51149998E+02 -0.10729E+06
 0.51199997E+02 -0.21818E+06
 0.51249996E+02 -0.36250E+06
 0.51299995E+02 -0.46269E+06
 0.51349998E+02 -0.51495E+06
 0.51399998E+02 -0.55471E+06
 0.51449997E+02 -0.57220E+06
 0.51499996E+02 -0.57065E+06
 0.51549995E+02 -0.55139E+06
 0.51599998E+02 -0.52302E+06
 0.51649998E+02 -0.48627E+06
 0.51699997E+02 -0.43496E+06
 0.51749996E+02 -0.38493E+06
 0.51799995E+02 -0.32973E+06
 0.51849998E+02 -0.24910E+06
 0.51899998E+02 -0.16921E+06
 0.51949997E+02 -0.13644E+06
 0.51999996E+02 -0.14369E+06
 0.52049995E+02 -0.16463E+06
 0.52099998E+02 -0.18827E+06
 0.52149998E+02 -0.20622E+06
 0.52199997E+02 -0.20515E+06
 0.52249996E+02 -0.17695E+06
 0.52299995E+02 -0.15510E+06
 0.52349998E+02 -0.15042E+06
 0.52399998E+02 -0.15309E+06
 0.52449997E+02 -0.14241E+06
 0.52499996E+02 -0.12064E+06
 0.52549995E+02 -0.10660E+06
 0.52599998E+02 -0.70100E+05
 0.52649998E+02 -0.33227E+05
 0.52699997E+02 -0.22369E+05
 0.52749996E+02 -0.21013E+05
 0.52799995E+02  0.55294E+03
 0.52849998E+02  0.59040E+05
 0.52899998E+02  0.14732E+06
 0.52949997E+02  0.25646E+06
 0.52999996E+02  0.36497E+06
 0.53049995E+02  0.43819E+06
 0.53099998E+02  0.45924E+06
 0.53149998E+02  0.44880E+06
 0.53199997E+02  0.42212E+06
 0.53249996E+02  0.40021E+06
 0.53299995E+02  0.38177E+06
 0.53349998E+02  0.36421E+06
 0.53399998E+02  0.35312E+06
 0.53449997E+02  0.32722E+06
 0.53499996E+02  0.27559E+06
 0.53549995E+02  0.22078E+06
 0.53599998E+02  0.16104E+06
 0.53649998E+02  0.11536E+06
 0.53699997E+02  0.89746E+05
 0.53749996E+02  0.78029E+05
 0.53799995E+02  0.94802E+05
 0.53849998E+02  0.11316E+06
 0.53899998E+02  0.96772E+05
 0.53949997E+02  0.36410E+05
 0.53999996E+02 -0.42864E+05
 0.54049995E+02 -0.14799E+06
 0.54099998E+02 -0.23807E+06
 0.54149998E+02 -0.27342E+06
 0.54199997E+02 -0.25900E+06
 0.54249996E+02 -0.20306E+06
 0.54299995E+02 -0.14202E+06
 0.54349998E+02 -0.11125E+06
 0.54399998E+02 -0.11571E+06
 0.54449997E+02 -0.15668E+06
 0.54499996E+02 -0.23007E+06
 0.54549995E+02 -0.28481E+06
 0.54599998E+02 -0.29307E+06
 0.54649998E+02 -0.26294E+06
 0.54699997E+02 -0.20438E+06
 0.54749996E+02 -0.11693E+06
 0.54799995E+02 -0.45608E+05
 0.54849998E+02 -0.93073E+04
 0.54899998E+02 -0.15075E+05
 0.54949997E+02 -0.74376E+05
 0.54999996E+02 -0.13644E+06
 0.55049995E+02 -0.16665E+06
 0.55099998E+02 -0.14831E+06
 0.55149998E+02 -0.80669E+05
 0.55199997E+02  0.78702E+04
 0.55249996E+02  0.89546E+05
 0.55299995E+02  0.15361E+06
 0.55349998E+02  0.20485E+06
 0.55399998E+02  0.23675E+06
 0.55449997E+02  0.22404E+06
 0.55499996E+02  0.16566E+06
 0.55549995E+02  0.81396E+05
 0.55599998E+02  0.74337E+04
 0.55649998E+02 -0.25412E+05
 0.55699997E+02 -0.30012E+05
 0.55749996E+02 -0.94467E+04
 0.55799995E+02  0.50481E+05
 0.55849995E+02  0.10896E+06
 0.55899998E+02  0.13371E+06
 0.55949997E+02  0.13174E+06
 0.55999996E+02  0.11375E+06
 0.56049995E+02  0.10547E+06
 0.56099995E+02  0.11524E+06
 0.56149998E+02  0.13858E+06
 0.56199997E+02  0.15207E+06
 0.56249996E+02  0.12444E+06
 0.56299995E+02  0.62405E+05
 0.56349995E+02 -0.31022E+04
 0.56399998E+02 -0.39467E+05
 0.56449997E+02 -0.45796E+05
 0.56499996E+02 -0.33209E+05
 0.56549995E+02  0.63435E+04
 0.56599995E+02  0.43808E+05
 0.56649998E+02  0.57717E+05
 0.56699997E+02  0.73192E+05
 0.56749996E+02  0.64696E+05
 0.56799995E+02  0.14183E+05
 0.56849995E+02 -0.53361E+05
 0.56899998E+02 -0.12903E+06
 0.56949997E+02 -0.18178E+06
 0.56999996E+02 -0.19307E+06
 0.57049995E+02 -0.18054E+06
 0.57099995E+02 -0.13639E+06
 0.57149998E+02 -0.88684E+05
 0.57199997E+02 -0.78772E+05
 0.57249996E+02 -0.87706E+05
 0.57299995E+02 -0.11526E+06
 0.57349995E+02 -0.14189E+06
 0.57399998E+02 -0.15452E+06
 0.57449997E+02 -0.16724E+06
 0.57499996E+02 -0.17989E+06
 0.57549995E+02 -0.18481E+06
 0.57599995E+02 -0.17390E+06
 0.57649998E+02 -0.14962E+06
 0.57699997E+02 -0.98853E+05
 0.57749996E+02 -0.32168E+05
 0.57799995E+02  0.22944E+05
 0.57849995E+02  0.63753E+05
 0.57899998E+02  0.99755E+05
 0.57949997E+02  0.13584E+06
 0.57999996E+02  0.17541E+06
 0.58049995E+02  0.23614E+06
 0.58099995E+02  0.31410E+06
 0.58149998E+02  0.37664E+06
 0.58199997E+02  0.41314E+06
 0.58249996E+02  0.41622E+06
 0.58299995E+02  0.39575E+06
 0.58349995E+02  0.37353E+06
 0.58399998E+02  0.34648E+06
 0.58449997E+02  0.31023E+06
 0.58499996E+02  0.27444E+06
 0.58549995E+02  0.24490E+06
 0.58599995E+02  0.21053E+06
 0.58649998E+02  0.17967E+06
 0.58699997E+02  0.15242E+06
 0.58749996E+02  0.12678E+06
 0.58799995E+02  0.10445E+06
 0.58849995E+02  0.74534E+05
 0.58899998E+02  0.47223E+05
 0.58949997E+02  0.27064E+05
 0.58999996E+02  0.15262E+05
 0.59049995E+02  0.17690E+05
 0.59099995E+02  0.26383E+05
 0.59149998E+02  0.30569E+05
 0.59199997E+02  0.23599E+05
 0.59249996E+02  0.14350E+05
 0.59299995E+02  0.73870E+04
 0.59349995E+02 -0.13433E+05
 0.59399998E+02 -0.36270E+05
 0.59449997E+02 -0.43254E+05
 0.59499996E+02 -0.48736E+05
 0.59549995E+02 -0.63403E+05
 0.59599995E+02 -0.86429E+05
 0.59649998E+02 -0.12212E+06
 0.59699997E+02 -0.16352E+06
 0.59749996E+02 -0.20109E+06
 0.59799995E+02 -0.23945E+06
 0.59849995E+02 -0.26559E+06
 0.59899998E+02 -0.27987E+06
 0.59949997E+02 -0.28548E+06
 0.59999996E+02 -0.28587E+06
 0.60049995E+02 -0.30598E+06
 0.60099995E+02 -0.33761E+06
 0.60149998E+02 -0.35874E+06
 0.60199997E+02 -0.35587E+06
 0.60249996E+02 -0.31043E+06
 0.60299995E+02 -0.23180E+06
 0.60349995E+02 -0.14675E+06
 0.60399998E+02 -0.68502E+05
 0.60449997E+02 -0.12078E+05
 0.60499996E+02  0.26224E+05
 0.60549995E+02  0.49194E+05
 0.60599995E+02  0.71000E+05
 0.60649998E+02  0.10532E+06
 0.60699997E+02  0.14171E+06
 0.60749996E+02  0.17629E+06
 0.60799995E+02  0.19708E+06
 0.60849995E+02  0.20296E+06
 0.60899998E+02  0.20768E+06
 0.60949997E+02  0.21469E+06
 0.60999996E+02  0.22002E+06
 0.61049995E+02  0.22683E+06
 0.61099995E+02  0.23415E+06
 0.61149998E+02  0.22774E+06
 0.61199997E+02  0.19924E+06
 0.61249996E+02  0.16303E+06
 0.61299995E+02  0.12974E+06
 0.61349995E+02  0.10717E+06
 0.61399998E+02  0.95987E+05
 0.61449997E+02  0.99392E+05
 0.61499996E+02  0.11053E+06
 0.61549995E+02  0.11332E+06
 0.61599995E+02  0.11579E+06
 0.61649998E+02  0.11036E+06
 0.61699997E+02  0.99386E+05
 0.61749996E+02  0.87362E+05
 0.61799995E+02  0.67465E+05
 0.61849995E+02  0.49218E+05
 0.61899998E+02  0.30644E+05
 0.61949997E+02 -0.84559E+03
 0.61999996E+02 -0.33900E+05
 0.62049995E+02 -0.48598E+05
 0.62099998E+02 -0.59463E+05
 0.62149994E+02 -0.72741E+05
 0.62199997E+02 -0.88021E+05
 0.62249992E+02 -0.12310E+06
 0.62299995E+02 -0.16954E+06
 0.62349998E+02 -0.21995E+06
 0.62399994E+02 -0.26738E+06
 0.62449997E+02 -0.29194E+06
 0.62499992E+02 -0.29017E+06
 0.62549995E+02 -0.26511E+06
 0.62599998E+02 -0.21919E+06
 0.62649994E+02 -0.17107E+06
 0.62699997E+02 -0.13946E+06
 0.62749992E+02 -0.12561E+06
 0.62799995E+02 -0.12703E+06
 0.62849998E+02 -0.13577E+06
 0.62899994E+02 -0.14825E+06
 0.62949997E+02 -0.17001E+06
 0.62999992E+02 -0.19054E+06
 0.63049995E+02 -0.19265E+06
 0.63099998E+02 -0.18437E+06
 0.63149994E+02 -0.17782E+06
 0.63199997E+02 -0.16983E+06
 0.63249992E+02 -0.15654E+06
 0.63299995E+02 -0.13388E+06
 0.63349998E+02 -0.94463E+05
 0.63399994E+02 -0.47520E+05
 0.63449997E+02 -0.35244E+04
 0.63499992E+02  0.34450E+05
 0.63549995E+02  0.54507E+05
 0.63599998E+02  0.54987E+05
 0.63649994E+02  0.43455E+05
 0.63699997E+02  0.34484E+05
 0.63749992E+02  0.35252E+05
 0.63799995E+02  0.43445E+05
 0.63849998E+02  0.51748E+05
 0.63899994E+02  0.59949E+05
 0.63949997E+02  0.61261E+05
 0.63999992E+02  0.52447E+05
 0.64049995E+02  0.41194E+05
 0.64099998E+02  0.23687E+05
 0.64149994E+02  0.74210E+04
 0.64199997E+02 -0.18151E+04
 0.64249992E+02  0.25760E+04
 0.64299995E+02  0.26964E+05
 0.64349998E+02  0.55351E+05
 0.64399994E+02  0.68232E+05
 0.64449997E+02  0.66748E+05
 0.64499992E+02  0.51665E+05
 0.64549995E+02  0.30738E+05
 0.64599998E+02  0.16504E+05
 0.64649994E+02  0.36214E+04
 0.64699997E+02 -0.64457E+03
 0.64749992E+02  0.51723E+04
 0.64799995E+02  0.10365E+05
 0.64849998E+02  0.17687E+05
 0.64899994E+02  0.31473E+05
 0.64949997E+02  0.51283E+05
 0.64999992E+02  0.82089E+05
 0.65049995E+02  0.12090E+06
 0.65099998E+02  0.14884E+06
 0.65149994E+02  0.16947E+06
 0.65199997E+02  0.18895E+06
 0.65249992E+02  0.19495E+06
 0.65299995E+02  0.18625E+06
 0.65349998E+02  0.17316E+06
 0.65399994E+02  0.16622E+06
 0.65449997E+02  0.16680E+06
 0.65499992E+02  0.17135E+06
 0.65549995E+02  0.17929E+06
 0.65599998E+02  0.17855E+06
 0.65649994E+02  0.16825E+06
 0.65699997E+02  0.14489E+06
 0.65749992E+02  0.98483E+05
 0.65799995E+02  0.37236E+05
 0.65849998E+02 -0.33908E+05
 0.65899994E+02 -0.94893E+05
 0.65949997E+02 -0.13853E+06
 0.65999992E+02 -0.17135E+06
 0.66049995E+02 -0.19485E+06
 0.66099998E+02 -0.21781E+06
 0.66149994E+02 -0.23498E+06
 0.66199997E+02 -0.23475E+06
 0.66249992E+02 -0.21044E+06
 0.66299995E+02 -0.16937E+06
 0.66349998E+02 -0.12180E+06
 0.66399994E+02 -0.71713E+05
 0.66449997E+02 -0.22283E+05
 0.66499992E+02  0.27781E+05
 0.66549995E+02  0.80278E+05
 0.66599998E+02  0.12948E+06
 0.66649994E+02  0.16169E+06
 0.66699997E+02  0.17773E+06
 0.66749992E+02  0.16655E+06
 0.66799995E+02  0.12523E+06
 0.66849998E+02  0.85314E+05
 0.66899994E+02  0.51843E+05
 0.66949997E+02  0.27137E+05
 0.66999992E+02  0.16757E+05
 0.67049995E+02  0.99421E+04
 0.67099998E+02  0.95324E+04
 0.67149994E+02  0.23744E+05
 0.67199997E+02  0.49843E+05
 0.67249992E+02  0.83802E+05
 0.67299995E+02  0.11970E+06
 0.67349998E+02  0.15967E+06
 0.67399994E+02  0.20601E+06
 0.67449997E+02  0.24164E+06
 0.67499992E+02  0.25443E+06
 0.67549995E+02  0.24868E+06
 0.67599998E+02  0.22810E+06
 0.67649994E+02  0.19216E+06
 0.67699997E+02  0.14551E+06
 0.67749992E+02  0.84954E+05
 0.67799995E+02  0.15652E+05
 0.67849998E+02 -0.44950E+05
 0.67899994E+02 -0.87683E+05
 0.67949997E+02 -0.10780E+06
 0.67999992E+02 -0.10946E+06
 0.68049995E+02 -0.10075E+06
 0.68099998E+02 -0.80485E+05
 0.68149994E+02 -0.53220E+05
 0.68199997E+02 -0.30996E+05
 0.68249992E+02 -0.14176E+05
 0.68299995E+02  0.75636E+03
 0.68349998E+02  0.74068E+04
 0.68399994E+02  0.30253E+04
 0.68449997E+02 -0.11371E+04
 0.68499992E+02  0.73277E+04
 0.68549995E+02  0.34196E+05
 0.68599998E+02  0.76315E+05
 0.68649994E+02  0.12186E+06
 0.68699997E+02  0.15317E+06
 0.68749992E+02  0.15519E+06
 0.68799995E+02  0.12959E+06
 0.68849998E+02  0.79002E+05
 0.68899994E+02  0.13122E+05
 0.68949997E+02 -0.50656E+05
 0.68999992E+02 -0.10904E+06
 0.69049995E+02 -0.16781E+06
 0.69099998E+02 -0.22447E+06
 0.69149994E+02 -0.26223E+06
 0.69199997E+02 -0.27903E+06
 0.69249992E+02 -0.27573E+06
 0.69299995E+02 -0.24545E+06
 0.69349998E+02 -0.20327E+06
 0.69399994E+02 -0.16447E+06
 0.69449997E+02 -0.13165E+06
 0.69499992E+02 -0.10805E+06
 0.69549995E+02 -0.90992E+05
 0.69599998E+02 -0.79153E+05
 0.69649994E+02 -0.65436E+05
 0.69699997E+02 -0.41390E+05
 0.69749992E+02 -0.14301E+05
 0.69799995E+02  0.14141E+05
 0.69849998E+02  0.48280E+05
 0.69899994E+02  0.82297E+05
 0.69949997E+02  0.11166E+06
 0.69999992E+02  0.13809E+06
 0.70049995E+02  0.16107E+06
 0.70099998E+02  0.17131E+06
 0.70149994E+02  0.16425E+06
 0.70199997E+02  0.14339E+06
 0.70249992E+02  0.11616E+06
 0.70299995E+02  0.88661E+05
 0.70349998E+02  0.58383E+05
 0.70399994E+02  0.28546E+05
 0.70449997E+02  0.15795E+04
 0.70499992E+02 -0.25154E+05
 0.70549995E+02 -0.43750E+05
 0.70599998E+02 -0.51180E+05
 0.70649994E+02 -0.51122E+05
 0.70699997E+02 -0.44003E+05
 0.70749992E+02 -0.35372E+05
 0.70799995E+02 -0.23575E+05
 0.70849998E+02 -0.72457E+04
 0.70899994E+02  0.31657E+04
 0.70949997E+02  0.76210E+04
 0.70999992E+02  0.56763E+04
 0.71049995E+02 -0.81964E+04
 0.71099998E+02 -0.20264E+05
 0.71149994E+02 -0.17891E+05
 0.71199997E+02 -0.18138E+04
 0.71249992E+02  0.23125E+05
 0.71299995E+02  0.48365E+05
 0.71349998E+02  0.75687E+05
 0.71399994E+02  0.10138E+06
 0.71449997E+02  0.12417E+06
 0.71499992E+02  0.14674E+06
 0.71549995E+02  0.16008E+06
 0.71599998E+02  0.15446E+06
 0.71649994E+02  0.12796E+06
 0.71699997E+02  0.90923E+05
 0.71749992E+02  0.51423E+05
 0.71799995E+02  0.19198E+05
 0.71849998E+02  0.30539E+04
 0.71899994E+02  0.69465E+03
 0.71949997E+02  0.15410E+04
 0.71999992E+02  0.79585E+03
 0.72049995E+02 -0.59504E+03
 0.72099998E+02  0.64201E+03
 0.72149994E+02  0.84018E+04
 0.72199997E+02  0.17746E+05
 0.72249992E+02  0.19695E+05
 0.72299995E+02  0.57464E+04
 0.72349998E+02 -0.20765E+05
 0.72399994E+02 -0.56525E+05
 0.72449997E+02 -0.96657E+05
 0.72499992E+02 -0.13213E+06
 0.72549995E+02 -0.16415E+06
 0.72599998E+02 -0.19202E+06
 0.72649994E+02 -0.21428E+06
 0.72699997E+02 -0.22605E+06
 0.72749992E+02 -0.22344E+06
 0.72799995E+02 -0.21443E+06
 0.72849998E+02 -0.20601E+06
 0.72899994E+02 -0.19738E+06
 0.72949997E+02 -0.18542E+06
 0.72999992E+02 -0.17381E+06
 0.73049995E+02 -0.15688E+06
 0.73099998E+02 -0.12569E+06
 0.73149994E+02 -0.86331E+05
 0.73199997E+02 -0.39549E+05
 0.73249992E+02  0.11581E+05
 0.73299995E+02  0.54887E+05
 0.73349998E+02  0.82807E+05
 0.73399994E+02  0.10033E+06
 0.73449997E+02  0.11355E+06
 0.73499992E+02  0.12253E+06
 0.73549995E+02  0.13024E+06
 0.73599998E+02  0.13991E+06
 0.73649994E+02  0.14852E+06
 0.73699997E+02  0.14926E+06
 0.73749992E+02  0.14120E+06
 0.73799995E+02  0.12858E+06
 0.73849998E+02  0.11558E+06
 0.73899994E+02  0.10580E+06
 0.73949997E+02  0.10870E+06
 0.73999992E+02  0.13050E+06
 0.74049995E+02  0.16277E+06
 0.74099998E+02  0.19550E+06
 0.74149994E+02  0.22626E+06
 0.74199997E+02  0.24505E+06
 0.74249992E+02  0.24286E+06
 0.74299995E+02  0.22580E+06
 0.74349998E+02  0.19851E+06
 0.74399994E+02  0.16531E+06
 0.74449997E+02  0.13245E+06
 0.74499992E+02  0.10330E+06
 0.74549995E+02  0.75253E+05
 0.74599998E+02  0.45690E+05
 0.74649994E+02  0.15400E+05
 0.74699997E+02 -0.14742E+05
 0.74749992E+02 -0.36883E+05
 0.74799995E+02 -0.48638E+05
 0.74849998E+02 -0.56950E+05
 0.74899994E+02 -0.65325E+05
 0.74949997E+02 -0.77361E+05
 0.74999992E+02 -0.95387E+05
 0.75049995E+02 -0.11746E+06
 0.75099998E+02 -0.14153E+06
 0.75149994E+02 -0.16164E+06
 0.75199997E+02 -0.17345E+06
 0.75249992E+02 -0.18409E+06
 0.75299995E+02 -0.19531E+06
 0.75349998E+02 -0.20011E+06
 0.75399994E+02 -0.19890E+06
 0.75449997E+02 -0.18972E+06
 0.75499992E+02 -0.16891E+06
 0.75549995E+02 -0.13731E+06
 0.75599998E+02 -0.97557E+05
 0.75649994E+02 -0.55094E+05
 0.75699997E+02 -0.14133E+05
 0.75749992E+02  0.24021E+05
 0.75799995E+02  0.53991E+05
 0.75849998E+02  0.66299E+05
 0.75899994E+02  0.60020E+05
 0.75949997E+02  0.43577E+05
 0.75999992E+02  0.24314E+05
 0.76049995E+02  0.56269E+04
 0.76099998E+02 -0.58412E+04
 0.76149994E+02 -0.65965E+04
 0.76199997E+02 -0.40106E+04
 0.76249992E+02 -0.42307E+04
 0.76299995E+02 -0.90001E+04
 0.76349998E+02 -0.21499E+05
 0.76399994E+02 -0.33935E+05
 0.76449997E+02 -0.38203E+05
 0.76499992E+02 -0.33600E+05
 0.76549995E+02 -0.18351E+05
 0.76599998E+02  0.10109E+04
 0.76649994E+02  0.20551E+05
 0.76699997E+02  0.35910E+05
 0.76749992E+02  0.40051E+05
 0.76799995E+02  0.34148E+05
 0.76849998E+02  0.21769E+05
 0.76899994E+02  0.11691E+05
 0.76949997E+02  0.13731E+05
 0.76999992E+02  0.29309E+05
 0.77049995E+02  0.55131E+05
 0.77099998E+02  0.87695E+05
 0.77149994E+02  0.11993E+06
 0.77199997E+02  0.14349E+06
 0.77249992E+02  0.15617E+06
 0.77299995E+02  0.15581E+06
 0.77349998E+02  0.14262E+06
 0.77399994E+02  0.12188E+06
 0.77449997E+02  0.93277E+05
 0.77499992E+02  0.58733E+05
 0.77549995E+02  0.23748E+05
 0.77599998E+02 -0.52594E+04
 0.77649994E+02 -0.24941E+05
 0.77699997E+02 -0.42249E+05
 0.77749992E+02 -0.60069E+05
 0.77799995E+02 -0.74773E+05
 0.77849998E+02 -0.86312E+05
 0.77899994E+02 -0.96279E+05
 0.77949997E+02 -0.98665E+05
 0.77999992E+02 -0.88921E+05
 0.78049995E+02 -0.71889E+05
 0.78099998E+02 -0.52737E+05
 0.78149994E+02 -0.39942E+05
 0.78199997E+02 -0.40262E+05
 0.78249992E+02 -0.51986E+05
 0.78299995E+02 -0.68563E+05
 0.78349998E+02 -0.85224E+05
 0.78399994E+02 -0.98698E+05
 0.78449997E+02 -0.10437E+06
 0.78499992E+02 -0.10278E+06
 0.78549995E+02 -0.95751E+05
 0.78599998E+02 -0.84208E+05
 0.78649994E+02 -0.71224E+05
 0.78699997E+02 -0.58172E+05
 0.78749992E+02 -0.41117E+05
 0.78799995E+02 -0.19664E+05
 0.78849998E+02  0.21015E+03
 0.78899994E+02  0.16494E+05
 0.78949997E+02  0.27615E+05
 0.78999992E+02  0.34866E+05
 0.79049995E+02  0.43281E+05
 0.79099998E+02  0.51617E+05
 0.79149994E+02  0.57494E+05
 0.79199997E+02  0.62450E+05
 0.79249992E+02  0.63459E+05
 0.79299995E+02  0.58410E+05
 0.79349998E+02  0.55735E+05
 0.79399994E+02  0.57761E+05
 0.79449997E+02  0.61338E+05
 0.79499992E+02  0.65594E+05
 0.79549995E+02  0.68812E+05
 0.79599998E+02  0.68991E+05
 0.79649994E+02  0.64342E+05
 0.79699997E+02  0.56629E+05
 0.79749992E+02  0.48512E+05
 0.79799995E+02  0.37961E+05
 0.79849998E+02  0.21742E+05
 0.79899994E+02  0.35913E+04
 0.79949997E+02 -0.11324E+05
 0.79999992E+02 -0.20080E+05
 0.80049995E+02 -0.19763E+05
 0.80099998E+02 -0.96147E+04
 0.80149994E+02  0.36412E+04
 0.80199997E+02  0.15081E+05
 0.80249992E+02  0.23226E+05
 0.80299995E+02  0.22495E+05
 0.80349998E+02  0.15136E+05
 0.80399994E+02  0.35487E+04
 0.80449997E+02 -0.11011E+05
 0.80499992E+02 -0.23017E+05
 0.80549995E+02 -0.32836E+05
 0.80599998E+02 -0.36247E+05
 0.80649994E+02 -0.29864E+05
 0.80699997E+02 -0.18254E+05
 0.80749992E+02  0.24110E+03
 0.80799995E+02  0.22276E+05
 0.80849998E+02  0.40153E+05
 0.80899994E+02  0.53157E+05
 0.80949997E+02  0.57882E+05
 0.80999992E+02  0.51212E+05
 0.81049995E+02  0.39114E+05
 0.81099998E+02  0.28797E+05
 0.81149994E+02  0.19089E+05
 0.81199997E+02  0.88564E+04
 0.81249992E+02 -0.91740E+03
 0.81299995E+02 -0.12439E+05
 0.81349998E+02 -0.24455E+05
 0.81399994E+02 -0.27578E+05
 0.81449997E+02 -0.17873E+05
 0.81499992E+02 -0.43455E+03
 0.81549995E+02  0.19766E+05
 0.81599998E+02  0.36527E+05
 0.81649994E+02  0.45295E+05
 0.81699997E+02  0.45815E+05
 0.81749992E+02  0.41728E+05
 0.81799995E+02  0.35086E+05
 0.81849998E+02  0.27422E+05
 0.81899994E+02  0.18790E+05
 0.81949997E+02  0.43673E+04
 0.81999992E+02 -0.14730E+05
 0.82049995E+02 -0.35505E+05
 0.82099998E+02 -0.55886E+05
 0.82149994E+02 -0.69991E+05
 0.82199997E+02 -0.74524E+05
 0.82249992E+02 -0.67181E+05
 0.82299995E+02 -0.48730E+05
 0.82349998E+02 -0.27440E+05
 0.82399994E+02 -0.11388E+05
 0.82449997E+02 -0.16949E+04
 0.82499992E+02  0.10106E+04
 0.82549995E+02 -0.21825E+04
 0.82599998E+02 -0.46941E+04
 0.82649994E+02 -0.58359E+04
 0.82699997E+02 -0.87034E+04
 0.82749992E+02 -0.75369E+04
 0.82799995E+02  0.17341E+04
 0.82849998E+02  0.17210E+05
 0.82899994E+02  0.38546E+05
 0.82949997E+02  0.64924E+05
 0.82999992E+02  0.91361E+05
 0.83049995E+02  0.11125E+06
 0.83099998E+02  0.12280E+06
 0.83149994E+02  0.12737E+06
 0.83199997E+02  0.12731E+06
 0.83249992E+02  0.12143E+06
 0.83299995E+02  0.10920E+06
 0.83349998E+02  0.91364E+05
 0.83399994E+02  0.68016E+05
 0.83449997E+02  0.40491E+05
 0.83499992E+02  0.13161E+05
 0.83549995E+02 -0.10698E+05
 0.83599998E+02 -0.30264E+05
 0.83649994E+02 -0.45320E+05
 0.83699997E+02 -0.60650E+05
 0.83749992E+02 -0.77721E+05
 0.83799995E+02 -0.93855E+05
 0.83849998E+02 -0.10774E+06
 0.83899994E+02 -0.11663E+06
 0.83949997E+02 -0.11807E+06
 0.83999992E+02 -0.11700E+06
 0.84049995E+02 -0.11911E+06
 0.84099998E+02 -0.12224E+06
 0.84149994E+02 -0.12324E+06
 0.84199997E+02 -0.11912E+06
 0.84249992E+02 -0.10705E+06
 0.84299995E+02 -0.88971E+05
 0.84349998E+02 -0.67532E+05
 0.84399994E+02 -0.46760E+05
 0.84449997E+02 -0.31210E+05
 0.84499992E+02 -0.17305E+05
 0.84549995E+02 -0.14434E+04
 0.84599998E+02  0.17231E+05
 0.84649994E+02  0.41298E+05
 0.84699997E+02  0.70099E+05
 0.84749992E+02  0.99196E+05
 0.84799995E+02  0.12530E+06
 0.84849998E+02  0.14472E+06
 0.84899994E+02  0.15183E+06
 0.84949997E+02  0.14808E+06
 0.84999992E+02  0.13855E+06
 0.85049995E+02  0.12364E+06
 0.85099998E+02  0.10804E+06
 0.85149994E+02  0.96859E+05
 0.85199997E+02  0.87134E+05
 0.85249992E+02  0.80774E+05
 0.85299995E+02  0.78307E+05
 0.85349998E+02  0.76619E+05
 0.85399994E+02  0.76916E+05
 0.85449997E+02  0.79014E+05
 0.85499992E+02  0.81226E+05
 0.85549995E+02  0.83710E+05
 0.85599998E+02  0.85967E+05
 0.85649994E+02  0.82929E+05
 0.85699997E+02  0.73331E+05
 0.85749992E+02  0.59715E+05
 0.85799995E+02  0.46097E+05
 0.85849998E+02  0.36833E+05
 0.85899994E+02  0.32004E+05
 0.85949997E+02  0.29766E+05
 0.85999992E+02  0.28831E+05
 0.86049995E+02  0.29611E+05
 0.86099998E+02  0.29669E+05
 0.86149994E+02  0.27133E+05
 0.86199997E+02  0.22401E+05
 0.86249992E+02  0.14412E+05
 0.86299995E+02  0.44178E+04
 0.86349998E+02 -0.54836E+04
 0.86399994E+02 -0.15851E+05
 0.86449997E+02 -0.27540E+05
 0.86499992E+02 -0.37499E+05
 0.86549995E+02 -0.44768E+05
 0.86599998E+02 -0.51355E+05
 0.86649994E+02 -0.57543E+05
 0.86699997E+02 -0.65452E+05
 0.86749992E+02 -0.74244E+05
 0.86799995E+02 -0.78102E+05
 0.86849998E+02 -0.74603E+05
 0.86899994E+02 -0.64396E+05
 0.86949997E+02 -0.49709E+05
 0.86999992E+02 -0.34344E+05
 0.87049995E+02 -0.19584E+05
 0.87099998E+02 -0.77608E+04
 0.87149994E+02 -0.14126E+04
 0.87199997E+02  0.16195E+04
 0.87249992E+02  0.36984E+04
 0.87299995E+02  0.43966E+04
 0.87349998E+02  0.37127E+04
 0.87399994E+02  0.29760E+04
 0.87449997E+02  0.77263E+03
 0.87499992E+02 -0.36264E+04
 0.87549995E+02 -0.75092E+04
 0.87599991E+02 -0.94116E+04
 0.87649994E+02 -0.10135E+05
 0.87699997E+02 -0.79108E+04
 0.87749992E+02 -0.19283E+03
 0.87799995E+02  0.13248E+05
 0.87849991E+02  0.31751E+05
 0.87899994E+02  0.53529E+05
 0.87949997E+02  0.76533E+05
 0.87999992E+02  0.96235E+05
 0.88049995E+02  0.10758E+06
 0.88099991E+02  0.10684E+06
 0.88149994E+02  0.95109E+05
 0.88199997E+02  0.75585E+05
 0.88249992E+02  0.49824E+05
 0.88299995E+02  0.20786E+05
 0.88349991E+02 -0.71550E+04
 0.88399994E+02 -0.30278E+05
 0.88449997E+02 -0.48917E+05
 0.88499992E+02 -0.62142E+05
 0.88549995E+02 -0.70330E+05
 0.88599991E+02 -0.76894E+05
 0.88649994E+02 -0.81740E+05
 0.88699997E+02 -0.84973E+05
 0.88749992E+02 -0.88770E+05
 0.88799995E+02 -0.91964E+05
 0.88849991E+02 -0.92654E+05
 0.88899994E+02 -0.88481E+05
 0.88949997E+02 -0.77435E+05
 0.88999992E+02 -0.59718E+05
 0.89049995E+02 -0.34570E+05
 0.89099991E+02 -0.40750E+04
 0.89149994E+02  0.25125E+05
 0.89199997E+02  0.45546E+05
 0.89249992E+02  0.53689E+05
 0.89299995E+02  0.49036E+05
 0.89349991E+02  0.35091E+05
 0.89399994E+02  0.17471E+05
 0.89449997E+02 -0.13662E+03
 0.89499992E+02 -0.16935E+05
 0.89549995E+02 -0.33547E+05
 0.89599991E+02 -0.47871E+05
 0.89649994E+02 -0.56967E+05
 0.89699997E+02 -0.57802E+05
 0.89749992E+02 -0.50342E+05
 0.89799995E+02 -0.35768E+05
 0.89849991E+02 -0.16654E+05
 0.89899994E+02  0.48072E+04
 0.89949997E+02  0.27426E+05
 0.89999992E+02  0.48301E+05
 0.90049995E+02  0.66823E+05
 0.90099991E+02  0.83234E+05
 0.90149994E+02  0.98331E+05
 0.90199997E+02  0.11166E+06
 0.90249992E+02  0.11911E+06
 0.90299995E+02  0.11921E+06
 0.90349991E+02  0.11292E+06
 0.90399994E+02  0.10069E+06
 0.90449997E+02  0.85398E+05
 0.90499992E+02  0.71454E+05
 0.90549995E+02  0.61214E+05
 0.90599991E+02  0.56306E+05
 0.90649994E+02  0.56641E+05
 0.90699997E+02  0.58429E+05
 0.90749992E+02  0.58535E+05
 0.90799995E+02  0.52882E+05
 0.90849991E+02  0.41082E+05
 0.90899994E+02  0.25568E+05
 0.90949997E+02  0.65849E+04
 0.90999992E+02 -0.12935E+05
 0.91049995E+02 -0.28236E+05
 0.91099991E+02 -0.38005E+05
 0.91149994E+02 -0.43220E+05
 0.91199997E+02 -0.42606E+05
 0.91249992E+02 -0.37202E+05
 0.91299995E+02 -0.33249E+05
 0.91349991E+02 -0.35084E+05
 0.91399994E+02 -0.43323E+05
 0.91449997E+02 -0.56282E+05
 0.91499992E+02 -0.69946E+05
 0.91549995E+02 -0.79296E+05
 0.91599991E+02 -0.79607E+05
 0.91649994E+02 -0.71458E+05
 0.91699997E+02 -0.59720E+05
 0.91749992E+02 -0.47744E+05
 0.91799995E+02 -0.37745E+05
 0.91849991E+02 -0.32020E+05
 0.91899994E+02 -0.30516E+05
 0.91949997E+02 -0.29304E+05
 0.91999992E+02 -0.25660E+05
 0.92049995E+02 -0.17863E+05
 0.92099991E+02 -0.44122E+04
 0.92149994E+02  0.94712E+04
 0.92199997E+02  0.18272E+05
 0.92249992E+02  0.20592E+05
 0.92299995E+02  0.14566E+05
 0.92349991E+02  0.51578E+03
 0.92399994E+02 -0.17308E+05
 0.92449997E+02 -0.34779E+05
 0.92499992E+02 -0.47875E+05
 0.92549995E+02 -0.51962E+05
 0.92599991E+02 -0.45013E+05
 0.92649994E+02 -0.26969E+05
 0.92699997E+02 -0.55932E+03
 0.92749992E+02  0.26191E+05
 0.92799995E+02  0.46808E+05
 0.92849991E+02  0.59059E+05
 0.92899994E+02  0.62198E+05
 0.92949997E+02  0.60068E+05
 0.92999992E+02  0.58636E+05
 0.93049995E+02  0.59413E+05
 0.93099991E+02  0.59318E+05
 0.93149994E+02  0.56096E+05
 0.93199997E+02  0.49949E+05
 0.93249992E+02  0.38809E+05
 0.93299995E+02  0.22762E+05
 0.93349991E+02  0.70102E+04
 0.93399994E+02 -0.54103E+04
 0.93449997E+02 -0.14454E+05
 0.93499992E+02 -0.19216E+05
 0.93549995E+02 -0.19689E+05
 0.93599991E+02 -0.16965E+05
 0.93649994E+02 -0.97711E+04
 0.93699997E+02  0.82995E+03
 0.93749992E+02  0.11146E+05
 0.93799995E+02  0.17881E+05
 0.93849991E+02  0.17647E+05
 0.93899994E+02  0.89998E+04
 0.93949997E+02 -0.39798E+04
 0.93999992E+02 -0.14428E+05
 0.94049995E+02 -0.17627E+05
 0.94099991E+02 -0.13205E+05
 0.94149994E+02 -0.48439E+04
 0.94199997E+02  0.10634E+03
 0.94249992E+02 -0.42171E+04
 0.94299995E+02 -0.15037E+05
 0.94349991E+02 -0.26123E+05
 0.94399994E+02 -0.31885E+05
 0.94449997E+02 -0.26799E+05
 0.94499992E+02 -0.82876E+04
 0.94549995E+02  0.19337E+05
 0.94599991E+02  0.50259E+05
 0.94649994E+02  0.79156E+05
 0.94699997E+02  0.10150E+06
 0.94749992E+02  0.11628E+06
 0.94799995E+02  0.12587E+06
 0.94849991E+02  0.13163E+06
 0.94899994E+02  0.13080E+06
 0.94949997E+02  0.12186E+06
 0.94999992E+02  0.10518E+06
 0.95049995E+02  0.81871E+05
 0.95099991E+02  0.55389E+05
 0.95149994E+02  0.27821E+05
 0.95199997E+02  0.94663E+03
 0.95249992E+02 -0.22222E+05
 0.95299995E+02 -0.39592E+05
 0.95349991E+02 -0.49156E+05
 0.95399994E+02 -0.50512E+05
 0.95449997E+02 -0.43598E+05
 0.95499992E+02 -0.29486E+05
 0.95549995E+02 -0.11215E+05
 0.95599991E+02  0.66320E+04
 0.95649994E+02  0.22997E+05
 0.95699997E+02  0.36828E+05
 0.95749992E+02  0.44800E+05
 0.95799995E+02  0.48508E+05
 0.95849991E+02  0.49692E+05
 0.95899994E+02  0.47973E+05
 0.95949997E+02  0.44187E+05
 0.95999992E+02  0.40994E+05
 0.96049995E+02  0.41470E+05
 0.96099991E+02  0.44624E+05
 0.96149994E+02  0.46658E+05
 0.96199997E+02  0.46064E+05
 0.96249992E+02  0.41506E+05
 0.96299995E+02  0.32680E+05
 0.96349991E+02  0.21752E+05
 0.96399994E+02  0.12217E+05
 0.96449997E+02  0.70870E+04
 0.96499992E+02  0.54940E+04
 0.96549995E+02  0.48763E+04
 0.96599991E+02  0.26766E+04
 0.96649994E+02 -0.32665E+04
 0.96699997E+02 -0.10995E+05
 0.96749992E+02 -0.18794E+05
 0.96799995E+02 -0.26730E+05
 0.96849991E+02 -0.34238E+05
 0.96899994E+02 -0.40916E+05
 0.96949997E+02 -0.46266E+05
 0.96999992E+02 -0.52728E+05
 0.97049995E+02 -0.61582E+05
 0.97099991E+02 -0.68761E+05
 0.97149994E+02 -0.71466E+05
 0.97199997E+02 -0.69299E+05
 0.97249992E+02 -0.61591E+05
 0.97299995E+02 -0.51597E+05
 0.97349991E+02 -0.41869E+05
 0.97399994E+02 -0.31793E+05
 0.97449997E+02 -0.21751E+05
 0.97499992E+02 -0.12296E+05
 0.97549995E+02 -0.39706E+04
 0.97599991E+02  0.12182E+04
 0.97649994E+02  0.25133E+04
 0.97699997E+02  0.16141E+04
 0.97749992E+02 -0.25618E+03
 0.97799995E+02 -0.33274E+04
 0.97849991E+02 -0.78763E+04
 0.97899994E+02 -0.13186E+05
 0.97949997E+02 -0.19277E+05
 0.97999992E+02 -0.25260E+05
