-0.19969940E+01  0.28995E+03
-0.19469941E+01  0.26794E+03
-0.18969940E+01  0.25685E+03
-0.18469940E+01  0.25829E+03
-0.17969940E+01  0.26000E+03
-0.17469940E+01  0.24529E+03
-0.16969941E+01  0.20998E+03
-0.16469941E+01  0.16615E+03
-0.15969940E+01  0.12575E+03
-0.15469940E+01  0.96071E+02
-0.14969940E+01  0.76625E+02
-0.14469941E+01  0.64555E+02
-0.13969941E+01  0.85713E+02
-0.13469940E+01  0.13090E+03
-0.12969941E+01  0.18667E+03
-0.12469940E+01  0.23970E+03
-0.11969941E+01  0.28618E+03
-0.11469941E+01  0.29974E+03
-0.10969940E+01  0.28391E+03
-0.10469941E+01  0.26860E+03
-0.99699408E+00  0.26645E+03
-0.94699407E+00  0.27914E+03
-0.89699411E+00  0.31016E+03
-0.84699404E+00  0.33977E+03
-0.79699409E+00  0.35165E+03
-0.74699414E+00  0.36115E+03
-0.69699407E+00  0.38263E+03
-0.64699411E+00  0.40661E+03
-0.59699416E+00  0.41531E+03
-0.54699409E+00  0.40919E+03
-0.49699414E+00  0.40316E+03
-0.44699407E+00  0.38818E+03
-0.39699411E+00  0.36410E+03
-0.34699416E+00  0.35087E+03
-0.29699409E+00  0.33292E+03
-0.24699414E+00  0.32059E+03
-0.19699407E+00  0.30104E+03
-0.14699411E+00  0.29102E+03
-0.96994162E-01  0.28507E+03
-0.46994090E-01  0.28024E+03
 0.30058622E-02  0.28632E+03
 0.53005934E-01  0.29436E+03
 0.10300589E+00  0.29506E+03
 0.15300584E+00  0.25624E+03
 0.20300579E+00  0.21023E+03
 0.25300574E+00  0.17113E+03
 0.30300593E+00  0.14647E+03
 0.35300589E+00  0.13772E+03
 0.40300584E+00  0.14398E+03
 0.45300579E+00  0.16425E+03
 0.50300574E+00  0.18322E+03
 0.55300593E+00  0.19241E+03
 0.60300589E+00  0.20103E+03
 0.65300584E+00  0.21456E+03
 0.70300579E+00  0.23429E+03
 0.75300574E+00  0.25005E+03
 0.80300570E+00  0.27307E+03
 0.85300589E+00  0.28685E+03
 0.90300584E+00  0.27379E+03
 0.95300579E+00  0.25428E+03
 0.10030057E+01  0.21263E+03
 0.10530057E+01  0.16891E+03
 0.11030059E+01  0.13770E+03
 0.11530058E+01  0.12517E+03
 0.12030058E+01  0.14491E+03
 0.12530057E+01  0.17727E+03
 0.13030057E+01  0.21805E+03
 0.13530059E+01  0.26254E+03
 0.14030058E+01  0.29207E+03
 0.14530058E+01  0.29491E+03
 0.15030057E+01  0.27579E+03
 0.15530057E+01  0.26695E+03
 0.16030059E+01  0.27419E+03
 0.16530058E+01  0.31127E+03
 0.17030058E+01  0.35222E+03
 0.17530057E+01  0.38599E+03
 0.18030057E+01  0.41454E+03
 0.18530056E+01  0.43358E+03
 0.19030058E+01  0.46184E+03
 0.19530058E+01  0.47764E+03
 0.20030057E+01  0.48007E+03
 0.20530057E+01  0.47005E+03
 0.21030059E+01  0.45268E+03
 0.21530056E+01  0.44058E+03
 0.22030058E+01  0.42738E+03
 0.22530055E+01  0.42301E+03
 0.23030057E+01  0.42490E+03
 0.23530059E+01  0.41459E+03
 0.24030056E+01  0.38955E+03
 0.24530058E+01  0.35979E+03
 0.25030055E+01  0.32841E+03
 0.25530057E+01  0.29406E+03
 0.26030059E+01  0.24557E+03
 0.26530056E+01  0.18916E+03
 0.27030058E+01  0.15147E+03
 0.27530055E+01  0.11716E+03
 0.28030057E+01  0.97982E+02
 0.28530059E+01  0.10459E+03
 0.29030056E+01  0.12695E+03
 0.29530058E+01  0.16325E+03
 0.30030055E+01  0.17923E+03
 0.30530057E+01  0.16554E+03
 0.31030059E+01  0.14312E+03
 0.31530056E+01  0.12544E+03
 0.32030058E+01  0.12144E+03
 0.32530055E+01  0.13561E+03
 0.33030057E+01  0.16386E+03
 0.33530059E+01  0.19684E+03
 0.34030056E+01  0.22408E+03
 0.34530058E+01  0.24234E+03
 0.35030055E+01  0.25376E+03
 0.35530057E+01  0.25821E+03
 0.36030054E+01  0.26015E+03
 0.36530056E+01  0.27491E+03
 0.37030058E+01  0.29823E+03
 0.37530055E+01  0.31819E+03
 0.38030057E+01  0.32513E+03
 0.38530054E+01  0.31914E+03
 0.39030056E+01  0.30669E+03
 0.39530058E+01  0.28419E+03
 0.40030055E+01  0.25729E+03
 0.40530057E+01  0.22158E+03
 0.41030054E+01  0.18752E+03
 0.41530056E+01  0.18443E+03
 0.42030058E+01  0.20537E+03
 0.42530055E+01  0.22649E+03
 0.43030057E+01  0.23570E+03
 0.43530054E+01  0.24182E+03
 0.44030056E+01  0.24291E+03
 0.44530058E+01  0.24482E+03
 0.45030055E+01  0.25416E+03
 0.45530057E+01  0.27636E+03
 0.46030054E+01  0.31223E+03
 0.46530056E+01  0.34238E+03
 0.47030058E+01  0.39070E+03
 0.47530055E+01  0.43808E+03
 0.48030057E+01  0.46413E+03
 0.48530054E+01  0.47292E+03
 0.49030056E+01  0.46005E+03
 0.49530058E+01  0.44002E+03
 0.50030055E+01  0.42080E+03
 0.50530057E+01  0.39969E+03
 0.51030054E+01  0.38018E+03
 0.51530056E+01  0.37263E+03
 0.52030058E+01  0.37142E+03
 0.52530055E+01  0.36116E+03
 0.53030057E+01  0.33411E+03
 0.53530054E+01  0.29116E+03
 0.54030056E+01  0.24262E+03
 0.54530053E+01  0.21646E+03
 0.55030055E+01  0.21539E+03
 0.55530057E+01  0.22137E+03
 0.56030054E+01  0.21870E+03
 0.56530056E+01  0.20819E+03
 0.57030053E+01  0.18115E+03
 0.57530055E+01  0.15669E+03
 0.58030057E+01  0.14663E+03
 0.58530054E+01  0.14534E+03
 0.59030056E+01  0.16286E+03
 0.59530053E+01  0.17359E+03
 0.60030055E+01  0.18956E+03
 0.60530052E+01  0.20480E+03
 0.61030054E+01  0.21195E+03
 0.61530056E+01  0.23087E+03
 0.62030058E+01  0.24740E+03
 0.62530050E+01  0.26137E+03
 0.63030052E+01  0.27634E+03
 0.63530054E+01  0.28739E+03
 0.64030056E+01  0.29744E+03
 0.64530058E+01  0.31306E+03
 0.65030050E+01  0.32509E+03
 0.65530052E+01  0.33686E+03
 0.66030054E+01  0.34707E+03
 0.66530056E+01  0.36531E+03
 0.67030058E+01  0.38057E+03
 0.67530050E+01  0.37372E+03
 0.68030052E+01  0.35330E+03
 0.68530054E+01  0.30670E+03
 0.69030056E+01  0.26404E+03
 0.69530058E+01  0.24478E+03
 0.70030050E+01  0.24883E+03
 0.70530052E+01  0.27045E+03
 0.71030054E+01  0.28734E+03
 0.71530056E+01  0.29257E+03
 0.72030058E+01  0.28606E+03
 0.72530050E+01  0.25578E+03
 0.73030052E+01  0.21407E+03
 0.73530054E+01  0.17718E+03
 0.74030056E+01  0.15742E+03
 0.74530058E+01  0.16087E+03
 0.75030050E+01  0.17697E+03
 0.75530052E+01  0.19763E+03
 0.76030054E+01  0.20218E+03
 0.76530056E+01  0.20226E+03
 0.77030058E+01  0.18545E+03
 0.77530050E+01  0.17140E+03
 0.78030052E+01  0.17259E+03
 0.78530054E+01  0.19472E+03
 0.79030056E+01  0.24266E+03
 0.79530058E+01  0.29515E+03
 0.80030050E+01  0.34968E+03
 0.80530052E+01  0.39591E+03
 0.81030054E+01  0.44199E+03
 0.81530056E+01  0.48382E+03
 0.82030058E+01  0.49953E+03
 0.82530050E+01  0.49921E+03
 0.83030052E+01  0.48188E+03
 0.83530054E+01  0.44515E+03
 0.84030056E+01  0.42065E+03
 0.84530058E+01  0.39414E+03
 0.85030050E+01  0.38225E+03
 0.85530052E+01  0.37649E+03
 0.86030054E+01  0.35961E+03
 0.86530056E+01  0.32993E+03
 0.87030058E+01  0.28910E+03
 0.87530050E+01  0.26007E+03
 0.88030052E+01  0.25459E+03
 0.88530054E+01  0.26795E+03
 0.89030056E+01  0.28890E+03
 0.89530058E+01  0.29306E+03
 0.90030050E+01  0.28464E+03
 0.90530052E+01  0.26184E+03
 0.91030054E+01  0.23557E+03
 0.91530056E+01  0.23150E+03
 0.92030048E+01  0.23130E+03
 0.92530050E+01  0.23873E+03
 0.93030052E+01  0.23124E+03
 0.93530054E+01  0.21216E+03
 0.94030056E+01  0.19535E+03
 0.94530048E+01  0.18293E+03
 0.95030050E+01  0.15969E+03
 0.95530052E+01  0.13387E+03
 0.96030054E+01  0.12820E+03
 0.96530056E+01  0.13255E+03
 0.97030048E+01  0.14107E+03
 0.97530050E+01  0.15774E+03
 0.98030052E+01  0.18406E+03
 0.98530054E+01  0.20773E+03
 0.99030056E+01  0.21078E+03
 0.99530048E+01  0.20440E+03
 0.10003005E+02  0.20084E+03
 0.10053005E+02  0.19537E+03
 0.10103005E+02  0.20790E+03
 0.10153006E+02  0.23316E+03
 0.10203005E+02  0.26533E+03
 0.10253005E+02  0.30459E+03
 0.10303005E+02  0.33941E+03
 0.10353005E+02  0.36707E+03
 0.10403006E+02  0.37339E+03
 0.10453005E+02  0.36922E+03
 0.10503005E+02  0.36698E+03
 0.10553005E+02  0.36799E+03
 0.10603005E+02  0.37880E+03
 0.10653006E+02  0.40248E+03
 0.10703005E+02  0.42840E+03
 0.10753005E+02  0.43330E+03
 0.10803005E+02  0.41712E+03
 0.10853005E+02  0.39869E+03
 0.10903006E+02  0.38035E+03
 0.10953005E+02  0.35802E+03
 0.11003005E+02  0.33554E+03
 0.11053005E+02  0.31845E+03
 0.11103005E+02  0.29187E+03
 0.11153006E+02  0.27164E+03
 0.11203005E+02  0.26969E+03
 0.11253005E+02  0.27268E+03
 0.11303005E+02  0.27318E+03
 0.11353005E+02  0.26484E+03
 0.11403006E+02  0.26331E+03
 0.11453005E+02  0.25149E+03
 0.11503005E+02  0.23391E+03
 0.11553005E+02  0.21878E+03
 0.11603005E+02  0.21453E+03
 0.11653006E+02  0.21767E+03
 0.11703005E+02  0.22026E+03
 0.11753005E+02  0.22838E+03
 0.11803005E+02  0.24018E+03
 0.11853005E+02  0.25297E+03
 0.11903006E+02  0.26246E+03
 0.11953005E+02  0.26681E+03
 0.12003005E+02  0.26455E+03
 0.12053005E+02  0.26872E+03
 0.12103005E+02  0.29740E+03
 0.12153006E+02  0.32997E+03
 0.12203005E+02  0.35278E+03
 0.12253005E+02  0.36666E+03
 0.12303005E+02  0.35590E+03
 0.12353005E+02  0.33122E+03
 0.12403006E+02  0.28963E+03
 0.12453005E+02  0.24816E+03
 0.12503005E+02  0.21192E+03
 0.12553005E+02  0.19856E+03
 0.12603005E+02  0.21394E+03
 0.12653005E+02  0.22891E+03
 0.12703005E+02  0.23081E+03
 0.12753005E+02  0.20917E+03
 0.12803005E+02  0.17263E+03
 0.12853005E+02  0.12836E+03
 0.12903005E+02  0.96991E+02
 0.12953005E+02  0.10301E+03
 0.13003005E+02  0.13004E+03
 0.13053005E+02  0.17435E+03
 0.13103005E+02  0.22883E+03
 0.13153005E+02  0.27790E+03
 0.13203005E+02  0.33128E+03
 0.13253005E+02  0.37627E+03
 0.13303005E+02  0.39756E+03
 0.13353005E+02  0.39244E+03
 0.13403005E+02  0.37550E+03
 0.13453005E+02  0.35475E+03
 0.13503005E+02  0.33676E+03
 0.13553005E+02  0.31047E+03
 0.13603005E+02  0.29533E+03
 0.13653005E+02  0.29876E+03
 0.13703005E+02  0.30117E+03
 0.13753005E+02  0.30744E+03
 0.13803005E+02  0.32389E+03
 0.13853005E+02  0.34711E+03
 0.13903005E+02  0.36513E+03
 0.13953005E+02  0.37732E+03
 0.14003005E+02  0.38338E+03
 0.14053005E+02  0.38323E+03
 0.14103004E+02  0.36742E+03
 0.14153006E+02  0.34899E+03
 0.14203005E+02  0.32975E+03
 0.14253004E+02  0.32068E+03
 0.14303005E+02  0.31036E+03
 0.14353004E+02  0.29106E+03
 0.14403006E+02  0.27357E+03
 0.14453005E+02  0.24004E+03
 0.14503004E+02  0.20331E+03
 0.14553005E+02  0.17758E+03
 0.14603004E+02  0.16231E+03
 0.14653006E+02  0.15561E+03
 0.14703005E+02  0.15591E+03
 0.14753004E+02  0.16416E+03
 0.14803005E+02  0.18427E+03
 0.14853004E+02  0.19450E+03
 0.14903006E+02  0.20371E+03
 0.14953005E+02  0.20862E+03
 0.15003004E+02  0.21419E+03
 0.15053005E+02  0.23152E+03
 0.15103004E+02  0.23921E+03
 0.15153006E+02  0.24829E+03
 0.15203005E+02  0.25806E+03
 0.15253004E+02  0.26585E+03
 0.15303005E+02  0.28446E+03
 0.15353004E+02  0.30510E+03
 0.15403006E+02  0.32225E+03
 0.15453005E+02  0.34282E+03
 0.15503004E+02  0.34415E+03
 0.15553005E+02  0.34457E+03
 0.15603004E+02  0.34174E+03
 0.15653006E+02  0.32801E+03
 0.15703005E+02  0.33228E+03
 0.15753004E+02  0.35437E+03
 0.15803005E+02  0.38177E+03
 0.15853004E+02  0.40042E+03
 0.15903006E+02  0.41667E+03
 0.15953005E+02  0.41537E+03
 0.16003004E+02  0.40542E+03
 0.16053005E+02  0.40468E+03
 0.16103004E+02  0.40073E+03
 0.16153006E+02  0.38701E+03
 0.16203005E+02  0.34379E+03
 0.16253004E+02  0.28965E+03
 0.16303005E+02  0.24090E+03
 0.16353004E+02  0.19560E+03
 0.16403006E+02  0.15121E+03
 0.16453005E+02  0.11801E+03
 0.16503004E+02  0.92243E+02
 0.16553005E+02  0.79818E+02
 0.16603004E+02  0.77156E+02
 0.16653006E+02  0.88062E+02
 0.16703005E+02  0.11986E+03
 0.16753004E+02  0.15296E+03
 0.16803005E+02  0.19270E+03
 0.16853004E+02  0.25153E+03
 0.16903006E+02  0.30856E+03
 0.16953005E+02  0.35239E+03
 0.17003004E+02  0.41024E+03
 0.17053005E+02  0.45765E+03
 0.17103004E+02  0.49045E+03
 0.17153006E+02  0.49704E+03
 0.17203005E+02  0.48671E+03
 0.17253004E+02  0.46285E+03
 0.17303005E+02  0.43004E+03
 0.17353004E+02  0.37777E+03
 0.17403006E+02  0.31848E+03
 0.17453005E+02  0.25293E+03
 0.17503004E+02  0.18418E+03
 0.17553005E+02  0.13461E+03
 0.17603004E+02  0.95027E+02
 0.17653006E+02  0.79703E+02
 0.17703005E+02  0.65733E+02
 0.17753004E+02  0.78340E+02
 0.17803005E+02  0.10499E+03
 0.17853004E+02  0.14329E+03
 0.17903006E+02  0.17700E+03
 0.17953005E+02  0.20931E+03
 0.18003004E+02  0.24310E+03
 0.18053005E+02  0.28455E+03
 0.18103004E+02  0.33459E+03
 0.18153006E+02  0.38438E+03
 0.18203005E+02  0.42491E+03
 0.18253004E+02  0.44882E+03
 0.18303005E+02  0.45702E+03
 0.18353004E+02  0.44853E+03
 0.18403006E+02  0.42411E+03
 0.18453005E+02  0.36916E+03
 0.18503004E+02  0.31992E+03
 0.18553005E+02  0.26299E+03
 0.18603004E+02  0.22527E+03
 0.18653006E+02  0.20127E+03
 0.18703005E+02  0.18210E+03
 0.18753004E+02  0.18275E+03
 0.18803005E+02  0.18721E+03
 0.18853004E+02  0.19731E+03
 0.18903006E+02  0.21943E+03
 0.18953005E+02  0.24515E+03
 0.19003004E+02  0.26864E+03
 0.19053005E+02  0.28222E+03
 0.19103004E+02  0.29630E+03
 0.19153006E+02  0.30610E+03
 0.19203005E+02  0.31472E+03
 0.19253004E+02  0.32100E+03
 0.19303005E+02  0.32143E+03
 0.19353004E+02  0.32223E+03
 0.19403006E+02  0.31330E+03
 0.19453005E+02  0.31197E+03
 0.19503004E+02  0.30803E+03
 0.19553005E+02  0.30173E+03
 0.19603004E+02  0.29297E+03
 0.19653006E+02  0.28669E+03
 0.19703005E+02  0.27565E+03
 0.19753004E+02  0.24880E+03
 0.19803005E+02  0.21783E+03
 0.19853004E+02  0.19985E+03
 0.19903006E+02  0.17338E+03
 0.19953005E+02  0.15808E+03
 0.20003004E+02  0.15745E+03
 0.20053005E+02  0.16346E+03
 0.20103004E+02  0.17906E+03
 0.20153006E+02  0.19131E+03
 0.20203005E+02  0.21246E+03
 0.20253004E+02  0.22447E+03
 0.20303005E+02  0.24061E+03
 0.20353004E+02  0.26600E+03
 0.20403004E+02  0.30064E+03
 0.20453005E+02  0.32582E+03
 0.20503004E+02  0.34078E+03
 0.20553005E+02  0.35681E+03
 0.20603004E+02  0.38064E+03
 0.20653004E+02  0.40328E+03
 0.20703005E+02  0.42536E+03
 0.20753004E+02  0.43797E+03
 0.20803005E+02  0.43251E+03
 0.20853004E+02  0.40632E+03
 0.20903004E+02  0.37977E+03
 0.20953005E+02  0.36383E+03
 0.21003004E+02  0.33809E+03
 0.21053005E+02  0.30271E+03
 0.21103004E+02  0.27112E+03
 0.21153004E+02  0.25563E+03
 0.21203005E+02  0.24137E+03
 0.21253004E+02  0.23834E+03
 0.21303005E+02  0.23316E+03
 0.21353004E+02  0.22430E+03
 0.21403004E+02  0.21861E+03
 0.21453005E+02  0.22856E+03
 0.21503004E+02  0.24400E+03
 0.21553005E+02  0.24763E+03
 0.21603004E+02  0.24254E+03
 0.21653004E+02  0.25129E+03
 0.21703005E+02  0.26081E+03
 0.21753004E+02  0.25680E+03
 0.21803005E+02  0.25050E+03
 0.21853004E+02  0.24661E+03
 0.21903004E+02  0.23943E+03
 0.21953005E+02  0.22172E+03
 0.22003004E+02  0.21532E+03
 0.22053005E+02  0.22981E+03
 0.22103004E+02  0.25090E+03
 0.22153004E+02  0.27019E+03
 0.22203005E+02  0.30398E+03
 0.22253004E+02  0.34430E+03
 0.22303005E+02  0.37642E+03
 0.22353004E+02  0.40714E+03
 0.22403004E+02  0.42373E+03
 0.22453005E+02  0.42840E+03
 0.22503004E+02  0.41338E+03
 0.22553005E+02  0.38393E+03
 0.22603004E+02  0.35681E+03
 0.22653004E+02  0.32286E+03
 0.22703005E+02  0.29223E+03
 0.22753004E+02  0.27421E+03
 0.22803005E+02  0.27589E+03
 0.22853004E+02  0.28647E+03
 0.22903004E+02  0.29682E+03
 0.22953005E+02  0.29798E+03
 0.23003004E+02  0.29525E+03
 0.23053005E+02  0.28048E+03
 0.23103004E+02  0.26905E+03
 0.23153004E+02  0.27421E+03
 0.23203005E+02  0.29521E+03
 0.23253004E+02  0.32135E+03
 0.23303005E+02  0.32230E+03
 0.23353004E+02  0.30596E+03
 0.23403004E+02  0.28199E+03
 0.23453005E+02  0.27457E+03
 0.23503004E+02  0.26806E+03
 0.23553005E+02  0.26250E+03
 0.23603004E+02  0.26444E+03
 0.23653004E+02  0.26161E+03
 0.23703005E+02  0.25856E+03
 0.23753004E+02  0.24826E+03
 0.23803005E+02  0.24299E+03
 0.23853004E+02  0.23304E+03
 0.23903004E+02  0.23032E+03
 0.23953005E+02  0.23951E+03
 0.24003004E+02  0.23609E+03
 0.24053005E+02  0.24225E+03
 0.24103004E+02  0.24518E+03
 0.24153004E+02  0.24338E+03
 0.24203005E+02  0.24104E+03
 0.24253004E+02  0.23554E+03
 0.24303005E+02  0.23444E+03
 0.24353004E+02  0.22589E+03
 0.24403004E+02  0.21873E+03
 0.24453005E+02  0.20643E+03
 0.24503004E+02  0.19467E+03
 0.24553005E+02  0.18247E+03
 0.24603004E+02  0.18148E+03
 0.24653004E+02  0.19064E+03
 0.24703005E+02  0.21011E+03
 0.24753004E+02  0.22829E+03
 0.24803005E+02  0.25163E+03
 0.24853004E+02  0.28321E+03
 0.24903004E+02  0.30687E+03
 0.24953005E+02  0.32875E+03
 0.25003004E+02  0.34982E+03
 0.25053005E+02  0.37476E+03
 0.25103004E+02  0.39369E+03
 0.25153004E+02  0.41338E+03
 0.25203005E+02  0.42410E+03
 0.25253004E+02  0.42858E+03
 0.25303005E+02  0.41327E+03
 0.25353004E+02  0.38490E+03
 0.25403004E+02  0.35574E+03
 0.25453005E+02  0.32810E+03
 0.25503004E+02  0.31388E+03
 0.25553005E+02  0.30818E+03
 0.25603004E+02  0.29631E+03
 0.25653004E+02  0.27457E+03
 0.25703005E+02  0.24392E+03
 0.25753004E+02  0.21541E+03
 0.25803005E+02  0.20370E+03
 0.25853004E+02  0.20180E+03
 0.25903004E+02  0.22044E+03
 0.25953005E+02  0.24223E+03
 0.26003004E+02  0.25646E+03
 0.26053005E+02  0.25754E+03
 0.26103004E+02  0.22643E+03
 0.26153004E+02  0.19932E+03
 0.26203005E+02  0.18740E+03
 0.26253004E+02  0.18933E+03
 0.26303005E+02  0.21533E+03
 0.26353004E+02  0.24395E+03
 0.26403004E+02  0.27516E+03
 0.26453005E+02  0.28247E+03
 0.26503004E+02  0.26333E+03
 0.26553005E+02  0.26140E+03
 0.26603004E+02  0.26703E+03
 0.26653004E+02  0.26923E+03
 0.26703005E+02  0.27858E+03
 0.26753004E+02  0.28458E+03
 0.26803005E+02  0.28679E+03
 0.26853004E+02  0.26957E+03
 0.26903004E+02  0.25468E+03
 0.26953005E+02  0.25793E+03
 0.27003004E+02  0.26112E+03
 0.27053003E+02  0.26621E+03
 0.27103004E+02  0.26193E+03
 0.27153004E+02  0.27136E+03
 0.27203005E+02  0.30044E+03
 0.27253004E+02  0.32925E+03
 0.27303003E+02  0.34915E+03
 0.27353004E+02  0.36304E+03
 0.27403004E+02  0.37302E+03
 0.27453005E+02  0.37961E+03
 0.27503004E+02  0.37518E+03
 0.27553003E+02  0.35403E+03
 0.27603004E+02  0.35310E+03
 0.27653004E+02  0.35862E+03
 0.27703005E+02  0.32750E+03
 0.27753004E+02  0.28092E+03
 0.27803003E+02  0.26069E+03
 0.27853004E+02  0.28507E+03
 0.27903004E+02  0.25189E+03
 0.27953005E+02  0.21289E+03
 0.28003004E+02  0.22520E+03
 0.28053003E+02  0.28579E+03
 0.28103004E+02  0.31381E+03
 0.28153004E+02  0.14381E+03
 0.28203005E+02  0.12679E+03
 0.28253004E+02  0.25257E+03
 0.28303003E+02  0.36590E+03
 0.28353004E+02  0.39166E+03
 0.28403004E+02  0.21755E+03
 0.28453005E+02  0.24069E+03
 0.28503004E+02  0.24974E+03
 0.28553003E+02  0.23046E+03
 0.28603004E+02  0.33936E+03
 0.28653004E+02  0.29829E+03
 0.28703005E+02  0.30344E+03
 0.28753004E+02  0.20903E+03
 0.28803003E+02  0.14765E+03
 0.28853004E+02  0.18380E+03
 0.28903004E+02  0.16132E+03
 0.28953005E+02  0.23484E+03
 0.29003004E+02  0.26055E+03
 0.29053003E+02  0.39349E+03
 0.29103004E+02  0.27624E+03
 0.29153004E+02 -0.33964E+01
 0.29203005E+02  0.17790E+03
 0.29253004E+02  0.99088E+02
 0.29303003E+02  0.32450E+02
 0.29353004E+02  0.23847E+03
 0.29403004E+02  0.37571E+03
 0.29453005E+02  0.62652E+03
 0.29503004E+02  0.26266E+03
 0.29553003E+02  0.12866E+03
 0.29603004E+02  0.35952E+03
 0.29653004E+02  0.43298E+03
 0.29703005E+02  0.50991E+03
 0.29753004E+02  0.32159E+03
 0.29803003E+02  0.50420E+03
 0.29853004E+02  0.65873E+03
 0.29903004E+02  0.76866E+02
 0.29953005E+02  0.24993E+03
 0.30003004E+02  0.63907E+03
 0.30053005E+02  0.24352E+03
 0.30103004E+02  0.36308E+03
 0.30153004E+02  0.43157E+03
 0.30203003E+02  0.83750E+03
 0.30253002E+02  0.76986E+03
 0.30303005E+02  0.28513E+03
 0.30353004E+02  0.33560E+03
 0.30403004E+02  0.57636E+02
 0.30453003E+02  0.61496E+03
 0.30503002E+02  0.31858E+03
 0.30553005E+02 -0.69249E+03
 0.30603004E+02  0.21338E+02
 0.30653004E+02  0.12776E+03
 0.30703003E+02  0.28795E+03
 0.30753002E+02 -0.61198E+03
 0.30803005E+02 -0.93913E+03
 0.30853004E+02  0.68585E+03
 0.30903004E+02  0.57377E+03
 0.30953003E+02  0.90898E+03
 0.31003002E+02  0.93526E+03
 0.31053005E+02 -0.78478E+03
 0.31103004E+02 -0.54632E+03
 0.31153004E+02  0.28706E+03
 0.31203003E+02  0.23005E+03
 0.31253002E+02  0.46713E+03
 0.31303005E+02 -0.48142E+03
 0.31353004E+02  0.42764E+03
 0.31403004E+02  0.30769E+03
 0.31453003E+02 -0.63712E+03
 0.31503002E+02  0.10686E+04
 0.31553005E+02  0.15824E+04
 0.31603004E+02  0.79202E+03
 0.31653004E+02 -0.10423E+03
 0.31703003E+02 -0.73969E+03
 0.31753002E+02  0.11409E+04
 0.31803005E+02  0.94649E+03
 0.31853004E+02 -0.12653E+04
 0.31903004E+02  0.25078E+03
 0.31953003E+02  0.10461E+03
 0.32003002E+02  0.57286E+03
 0.32053005E+02  0.10134E+04
 0.32103004E+02 -0.59737E+03
 0.32153004E+02  0.50408E+03
 0.32203003E+02 -0.10089E+03
 0.32253002E+02  0.38060E+03
 0.32303005E+02  0.46199E+03
 0.32353004E+02  0.28965E+01
 0.32403004E+02  0.11328E+04
 0.32453003E+02 -0.11800E+03
 0.32503002E+02  0.20679E+03
 0.32553005E+02 -0.33837E+02
 0.32603004E+02 -0.36160E+03
 0.32653004E+02 -0.20175E+03
 0.32703003E+02  0.97823E+03
 0.32753002E+02  0.12992E+04
 0.32803005E+02  0.89023E+03
 0.32853004E+02  0.11274E+04
 0.32903004E+02 -0.20574E+03
 0.32953003E+02 -0.80255E+03
 0.33003002E+02 -0.23532E+03
 0.33053005E+02 -0.66335E+03
 0.33103004E+02  0.43503E+03
 0.33153004E+02  0.29194E+04
 0.33203003E+02  0.15007E+04
 0.33253002E+02  0.42997E+03
 0.33303005E+02 -0.10363E+02
 0.33353004E+02  0.74212E+03
 0.33403004E+02  0.41787E+03
 0.33453003E+02 -0.94856E+03
 0.33503002E+02  0.47705E+03
 0.33553005E+02  0.50650E+03
 0.33603004E+02  0.18890E+02
 0.33653004E+02  0.57615E+03
 0.33703003E+02  0.46487E+03
 0.33753002E+02  0.61697E+03
 0.33803005E+02  0.43403E+03
 0.33853004E+02  0.83972E+03
 0.33903004E+02  0.14024E+04
 0.33953003E+02 -0.75547E+03
 0.34003002E+02 -0.25333E+04
 0.34053005E+02 -0.84795E+02
 0.34103004E+02  0.18509E+04
 0.34153004E+02  0.23423E+04
 0.34203003E+02  0.24054E+03
 0.34253002E+02 -0.49410E+03
 0.34303005E+02  0.95166E+03
 0.34353004E+02 -0.46225E+03
 0.34403004E+02 -0.50836E+03
 0.34453003E+02 -0.12757E+04
 0.34503002E+02 -0.19983E+04
 0.34553005E+02 -0.47213E+03
 0.34603004E+02  0.15475E+04
 0.34653004E+02  0.15773E+04
 0.34703003E+02  0.15575E+03
 0.34753002E+02 -0.37764E+03
 0.34803005E+02  0.13150E+04
 0.34853004E+02 -0.13681E+03
 0.34903004E+02  0.17609E+03
 0.34953003E+02  0.68411E+03
 0.35003002E+02 -0.72642E+03
 0.35053005E+02  0.46795E+03
 0.35103004E+02 -0.26377E+04
 0.35153004E+02 -0.24820E+04
 0.35203003E+02 -0.16922E+03
 0.35253002E+02 -0.12490E+04
 0.35303005E+02  0.11010E+04
 0.35353004E+02  0.35103E+04
 0.35403004E+02  0.23079E+04
 0.35453003E+02  0.87213E+03
 0.35503002E+02 -0.17124E+04
 0.35553005E+02 -0.11607E+03
 0.35603004E+02  0.33311E+04
 0.35653004E+02  0.15176E+04
 0.35703003E+02  0.14821E+04
 0.35753002E+02  0.95190E+03
 0.35803005E+02  0.46855E+03
 0.35853004E+02 -0.15206E+04
 0.35903004E+02 -0.16945E+04
 0.35953003E+02  0.30442E+04
 0.36003002E+02  0.19637E+04
 0.36053005E+02  0.10859E+04
 0.36103004E+02  0.23791E+04
 0.36153004E+02  0.71677E+03
 0.36203003E+02 -0.19091E+04
 0.36253002E+02 -0.10975E+04
 0.36303005E+02  0.42803E+04
 0.36353004E+02  0.36420E+04
 0.36403004E+02 -0.30947E+04
 0.36453003E+02 -0.24252E+04
 0.36503002E+02  0.12190E+04
 0.36553005E+02  0.66995E+03
 0.36603004E+02  0.95683E+03
 0.36653004E+02  0.13023E+04
 0.36703003E+02  0.28469E+03
 0.36753002E+02 -0.10314E+04
 0.36803005E+02 -0.24474E+04
 0.36853004E+02 -0.34492E+03
 0.36903004E+02 -0.17365E+03
 0.36953003E+02 -0.22276E+04
 0.37003002E+02  0.16047E+04
 0.37053005E+02  0.37869E+04
 0.37103004E+02  0.36576E+03
 0.37153004E+02 -0.23538E+04
 0.37203003E+02 -0.36869E+03
 0.37253002E+02  0.15147E+04
 0.37303005E+02 -0.22421E+03
 0.37353004E+02 -0.10763E+03
 0.37403004E+02  0.15117E+04
 0.37453003E+02 -0.80509E+03
 0.37503002E+02 -0.19982E+04
 0.37553005E+02 -0.14214E+04
 0.37603004E+02  0.72027E+03
 0.37653004E+02  0.25110E+04
 0.37703003E+02  0.57536E+02
 0.37753002E+02  0.10469E+04
 0.37803005E+02 -0.63993E+03
 0.37853004E+02 -0.33661E+04
 0.37903004E+02 -0.20297E+04
 0.37953003E+02  0.13916E+04
 0.38003002E+02  0.23408E+04
 0.38053005E+02 -0.27040E+03
 0.38103004E+02  0.12486E+04
 0.38153004E+02  0.34194E+04
 0.38203003E+02  0.11593E+04
 0.38253002E+02 -0.23820E+04
 0.38303005E+02 -0.20348E+04
 0.38353004E+02  0.11672E+03
 0.38403004E+02 -0.48648E+02
 0.38453003E+02 -0.11134E+04
 0.38503002E+02  0.11751E+04
 0.38553005E+02  0.26647E+04
 0.38603004E+02  0.70955E+03
 0.38653004E+02  0.11008E+04
 0.38703003E+02  0.39313E+03
 0.38753002E+02 -0.11401E+04
 0.38803005E+02  0.93539E+03
 0.38853004E+02  0.41603E+04
 0.38903004E+02  0.73872E+03
 0.38953003E+02 -0.12917E+04
 0.39003002E+02  0.18068E+04
 0.39053005E+02  0.67598E+03
 0.39103004E+02 -0.43672E+03
 0.39153004E+02 -0.19732E+04
 0.39203003E+02  0.39638E+03
 0.39253002E+02  0.15549E+04
 0.39303005E+02  0.87150E+03
 0.39353004E+02  0.15066E+04
 0.39403004E+02 -0.12693E+04
 0.39453003E+02 -0.22339E+04
 0.39503002E+02 -0.20313E+04
 0.39553005E+02  0.54463E+02
 0.39603004E+02  0.30851E+04
 0.39653004E+02  0.20613E+04
 0.39703003E+02 -0.97026E+03
 0.39753002E+02 -0.78935E+03
 0.39803005E+02  0.94281E+03
 0.39853004E+02 -0.12292E+04
 0.39903004E+02 -0.15982E+04
 0.39953003E+02  0.18335E+04
 0.40003002E+02  0.10776E+04
 0.40053005E+02  0.17474E+04
 0.40103004E+02  0.23921E+04
 0.40153004E+02  0.12079E+04
 0.40203003E+02  0.66120E+02
 0.40253002E+02 -0.30705E+04
 0.40303005E+02 -0.29272E+04
 0.40353004E+02  0.16155E+04
 0.40403004E+02  0.34160E+04
 0.40453003E+02  0.58034E+03
 0.40503002E+02  0.98868E+03
 0.40553005E+02  0.14369E+04
 0.40603004E+02 -0.78121E+03
 0.40653004E+02  0.22189E+03
 0.40703003E+02  0.23507E+04
 0.40753002E+02  0.10925E+04
 0.40803005E+02 -0.14772E+04
 0.40853004E+02 -0.17755E+04
 0.40903004E+02  0.16606E+03
 0.40953003E+02  0.78046E+03
 0.41003002E+02  0.57934E+03
 0.41053005E+02 -0.58905E+03
 0.41103004E+02 -0.24571E+04
 0.41153004E+02 -0.11555E+04
 0.41203003E+02  0.91234E+03
 0.41253002E+02 -0.83565E+03
 0.41303005E+02 -0.20629E+04
 0.41353004E+02 -0.36574E+03
 0.41403004E+02  0.19330E+04
 0.41453003E+02  0.13294E+04
 0.41503002E+02 -0.22639E+03
 0.41553005E+02  0.16207E+04
 0.41603004E+02  0.37320E+04
 0.41653004E+02  0.34767E+04
 0.41703003E+02  0.19066E+03
 0.41753002E+02  0.10993E+04
 0.41803005E+02  0.16311E+04
 0.41853004E+02 -0.11595E+04
 0.41903004E+02 -0.55597E+03
 0.41953003E+02  0.27467E+03
 0.42003002E+02 -0.62822E+03
 0.42053005E+02 -0.24671E+04
 0.42103004E+02 -0.20744E+04
 0.42153004E+02  0.25141E+03
 0.42203003E+02  0.34170E+04
 0.42253002E+02  0.45046E+04
 0.42303005E+02  0.17611E+04
 0.42353004E+02 -0.14753E+04
 0.42403004E+02 -0.26031E+04
 0.42453003E+02 -0.25909E+03
 0.42503002E+02  0.52110E+03
 0.42553005E+02 -0.24939E+04
 0.42603004E+02 -0.47988E+04
 0.42653004E+02 -0.92892E+03
 0.42703003E+02  0.27926E+04
 0.42753002E+02  0.48354E+04
 0.42803001E+02  0.49340E+04
 0.42853004E+02  0.44981E+03
 0.42903004E+02 -0.23838E+04
 0.42953003E+02 -0.22185E+04
 0.43003002E+02 -0.26106E+04
 0.43053001E+02 -0.36179E+04
 0.43103004E+02  0.61264E+03
 0.43153004E+02  0.63817E+04
 0.43203003E+02  0.57631E+04
 0.43253002E+02  0.12609E+04
 0.43303001E+02  0.51878E+03
 0.43353004E+02  0.10309E+04
 0.43403004E+02  0.80791E+03
 0.43453003E+02 -0.94105E+03
 0.43503002E+02 -0.25536E+04
 0.43553001E+02 -0.29255E+04
 0.43603004E+02 -0.34729E+04
 0.43653004E+02 -0.11325E+03
 0.43703003E+02  0.16383E+04
 0.43753002E+02  0.24338E+04
 0.43803001E+02  0.28016E+04
 0.43853004E+02 -0.21253E+03
 0.43903004E+02 -0.29262E+04
 0.43953003E+02 -0.35102E+04
 0.44003002E+02 -0.67765E+03
 0.44053001E+02  0.23560E+04
 0.44103004E+02  0.43309E+04
 0.44153004E+02  0.16647E+04
 0.44203003E+02 -0.17711E+04
 0.44253002E+02 -0.13315E+04
 0.44303001E+02 -0.10518E+03
 0.44353004E+02 -0.79973E+03
 0.44403004E+02 -0.48821E+03
 0.44453003E+02  0.47874E+04
 0.44503002E+02  0.69289E+04
 0.44553001E+02  0.42838E+04
 0.44603004E+02  0.13506E+04
 0.44653004E+02 -0.93078E+03
 0.44703003E+02  0.55094E+03
 0.44753002E+02  0.25039E+04
 0.44803001E+02  0.69177E+03
 0.44853004E+02 -0.12206E+04
 0.44903004E+02 -0.27538E+04
 0.44953003E+02 -0.68107E+03
 0.45003002E+02  0.96505E+03
 0.45053001E+02 -0.68275E+03
 0.45103004E+02 -0.39899E+04
 0.45153004E+02 -0.50738E+04
 0.45203003E+02 -0.14455E+04
 0.45253002E+02  0.10845E+04
 0.45303001E+02  0.15951E+04
 0.45353004E+02  0.17855E+04
 0.45403004E+02  0.39678E+04
 0.45453003E+02  0.45597E+04
 0.45503002E+02  0.80241E+03
 0.45553001E+02 -0.37305E+04
 0.45603004E+02 -0.33640E+04
 0.45653004E+02 -0.26868E+04
 0.45703003E+02 -0.20798E+04
 0.45753002E+02  0.13203E+04
 0.45803001E+02  0.12950E+04
 0.45853004E+02 -0.53447E+03
 0.45903004E+02 -0.16476E+04
 0.45953003E+02  0.11035E+04
 0.46003002E+02  0.31406E+04
 0.46053001E+02  0.22368E+04
 0.46103004E+02  0.65614E+03
 0.46153004E+02  0.34768E+03
 0.46203003E+02  0.57244E+03
 0.46253002E+02 -0.14421E+04
 0.46303001E+02 -0.16241E+03
 0.46353004E+02 -0.12861E+03
 0.46403004E+02  0.20328E+03
 0.46453003E+02  0.24357E+04
 0.46503002E+02  0.11967E+04
 0.46553001E+02 -0.64167E+02
 0.46603004E+02  0.40551E+03
 0.46653004E+02  0.23330E+04
 0.46703003E+02  0.23580E+04
 0.46753002E+02 -0.12420E+04
 0.46803001E+02 -0.31917E+04
 0.46853004E+02 -0.32922E+04
 0.46903004E+02 -0.26953E+04
 0.46953003E+02  0.69332E+03
 0.47003002E+02  0.40997E+04
 0.47053001E+02  0.22968E+04
 0.47103004E+02 -0.10996E+04
 0.47153004E+02 -0.84881E+03
 0.47203003E+02  0.16502E+04
 0.47253002E+02  0.38866E+04
 0.47303001E+02  0.38966E+04
 0.47353004E+02  0.98364E+03
 0.47403004E+02 -0.30623E+04
 0.47453003E+02 -0.60190E+04
 0.47503002E+02 -0.62422E+04
 0.47553001E+02 -0.68197E+03
 0.47603004E+02  0.70371E+04
 0.47653004E+02  0.77404E+04
 0.47703003E+02  0.30098E+04
 0.47753002E+02 -0.21237E+04
 0.47803001E+02 -0.33141E+04
 0.47853004E+02 -0.10691E+04
 0.47903004E+02  0.14006E+04
 0.47953003E+02  0.42121E+04
 0.48003002E+02  0.22195E+04
 0.48053001E+02  0.58665E+02
 0.48103004E+02 -0.51404E+03
 0.48153004E+02 -0.18186E+04
 0.48203003E+02 -0.19971E+04
 0.48253002E+02 -0.26174E+04
 0.48303001E+02 -0.18151E+04
 0.48353004E+02  0.29438E+04
 0.48403004E+02  0.48958E+04
 0.48453003E+02  0.35665E+04
 0.48503002E+02  0.35305E+04
 0.48553001E+02  0.22920E+04
 0.48603004E+02 -0.47023E+03
 0.48653004E+02 -0.26288E+04
 0.48703003E+02 -0.28490E+04
 0.48753002E+02 -0.11499E+04
 0.48803001E+02  0.13486E+04
 0.48853004E+02  0.75325E+03
 0.48903004E+02 -0.59417E+03
 0.48953003E+02 -0.82932E+03
 0.49003002E+02 -0.96756E+03
 0.49053001E+02 -0.11145E+03
 0.49103004E+02  0.58003E+03
 0.49153004E+02  0.34368E+03
 0.49203003E+02  0.10161E+04
 0.49253002E+02  0.45309E+03
 0.49303001E+02 -0.48661E+04
 0.49353004E+02 -0.84693E+04
 0.49403004E+02 -0.35878E+04
 0.49453003E+02  0.19217E+04
 0.49503002E+02  0.19049E+04
 0.49553001E+02  0.17331E+04
 0.49603004E+02  0.92873E+03
 0.49653004E+02  0.22944E+04
 0.49703003E+02  0.56114E+04
 0.49753002E+02  0.48815E+04
 0.49803001E+02  0.17813E+04
 0.49853004E+02 -0.40780E+03
 0.49903004E+02 -0.14678E+03
 0.49953003E+02 -0.19295E+04
 0.50003002E+02 -0.44164E+04
 0.50053001E+02 -0.28462E+04
 0.50103004E+02  0.19678E+04
 0.50153004E+02  0.30541E+04
 0.50203003E+02 -0.67193E+03
 0.50253002E+02 -0.58293E+03
 0.50303001E+02  0.25089E+04
 0.50353004E+02  0.30659E+04
 0.50403004E+02  0.15681E+04
 0.50453003E+02  0.17796E+04
 0.50503002E+02  0.42435E+04
 0.50553001E+02  0.54784E+04
 0.50603004E+02  0.16717E+04
 0.50653004E+02 -0.23595E+04
 0.50703003E+02 -0.43322E+02
 0.50753002E+02  0.48030E+04
 0.50803001E+02  0.44644E+04
 0.50853004E+02  0.32622E+02
 0.50903004E+02 -0.26240E+04
 0.50953003E+02 -0.13672E+04
 0.51003002E+02 -0.16180E+04
 0.51053001E+02 -0.51789E+04
 0.51103004E+02 -0.41277E+04
 0.51153004E+02 -0.22037E+03
 0.51203003E+02  0.32870E+04
 0.51253002E+02  0.19485E+04
 0.51303001E+02 -0.19514E+04
 0.51353004E+02  0.24257E+04
 0.51403004E+02  0.67614E+04
 0.51453003E+02  0.40253E+04
 0.51503002E+02 -0.43149E+04
 0.51553001E+02 -0.11869E+05
 0.51603004E+02 -0.12284E+05
 0.51653004E+02 -0.80759E+04
 0.51703003E+02 -0.41375E+04
 0.51753002E+02  0.12768E+04
 0.51803001E+02  0.71822E+04
 0.51853004E+02  0.10622E+05
 0.51903004E+02  0.94267E+04
 0.51953003E+02  0.24568E+04
 0.52003002E+02  0.20147E+04
 0.52053001E+02  0.29167E+04
 0.52103004E+02 -0.23968E+03
 0.52153004E+02 -0.24370E+04
 0.52203003E+02 -0.20664E+04
 0.52253002E+02 -0.92671E+03
 0.52303001E+02 -0.55332E+03
 0.52353004E+02  0.25277E+04
 0.52403004E+02  0.58676E+04
 0.52453003E+02  0.32278E+04
 0.52503002E+02 -0.38168E+04
 0.52553001E+02 -0.67907E+04
 0.52603004E+02 -0.66538E+04
 0.52653004E+02 -0.48907E+04
 0.52703003E+02 -0.32131E+04
 0.52753002E+02  0.12995E+03
 0.52803001E+02  0.55996E+04
 0.52853004E+02  0.73008E+04
 0.52903004E+02  0.85932E+04
 0.52953003E+02  0.79051E+04
 0.53003002E+02  0.19855E+04
 0.53053001E+02 -0.43491E+04
 0.53103004E+02 -0.53396E+04
 0.53153004E+02  0.25027E+03
 0.53203003E+02  0.40617E+04
 0.53253002E+02  0.39750E+04
 0.53303001E+02  0.52363E+04
 0.53353004E+02  0.56400E+04
 0.53403004E+02  0.72864E+03
 0.53453003E+02 -0.43845E+04
 0.53503002E+02 -0.34172E+04
 0.53553001E+02 -0.57079E+04
 0.53603004E+02 -0.12162E+05
 0.53653004E+02 -0.13514E+05
 0.53703003E+02 -0.79083E+04
 0.53753002E+02 -0.86074E+03
 0.53803001E+02  0.42730E+04
 0.53853004E+02  0.99407E+04
 0.53903004E+02  0.11630E+05
 0.53953003E+02  0.67882E+04
 0.54003002E+02  0.27704E+04
 0.54053001E+02  0.29690E+04
 0.54103004E+02  0.16413E+04
 0.54153004E+02 -0.25822E+04
 0.54203003E+02 -0.61592E+04
 0.54253002E+02 -0.41510E+04
 0.54303001E+02  0.45824E+03
 0.54353004E+02  0.31065E+02
 0.54403004E+02  0.34174E+03
 0.54453003E+02  0.28070E+04
 0.54503002E+02  0.44395E+04
 0.54553001E+02  0.33796E+04
 0.54603004E+02 -0.30441E+04
 0.54653004E+02 -0.45844E+04
 0.54703003E+02  0.14326E+04
 0.54753002E+02  0.33601E+04
 0.54803001E+02  0.29955E+03
 0.54853004E+02  0.12139E+04
 0.54903004E+02  0.18251E+04
 0.54953003E+02  0.23455E+04
 0.55003002E+02  0.37183E+03
 0.55053001E+02 -0.79990E+04
 0.55103004E+02 -0.10751E+05
 0.55153004E+02 -0.84743E+04
 0.55203003E+02 -0.62225E+04
 0.55253002E+02 -0.31713E+04
 0.55303001E+02  0.20363E+04
 0.55353004E+02  0.96318E+04
 0.55403004E+02  0.15370E+05
 0.55453003E+02  0.17652E+05
 0.55503002E+02  0.14166E+05
 0.55553001E+02  0.10208E+05
 0.55603004E+02  0.96005E+04
 0.55653004E+02  0.63151E+04
 0.55703003E+02 -0.31374E+04
 0.55753002E+02 -0.16500E+05
 0.55803001E+02 -0.15879E+05
 0.55853001E+02 -0.20727E+04
 0.55903004E+02  0.52397E+04
 0.55953003E+02  0.30679E+04
 0.56003002E+02  0.10882E+04
 0.56053001E+02  0.13109E+04
 0.56103001E+02 -0.28976E+04
 0.56153004E+02 -0.98110E+04
 0.56203003E+02 -0.11712E+05
 0.56253002E+02 -0.60433E+04
 0.56303001E+02  0.27242E+04
 0.56353001E+02  0.83183E+04
 0.56403004E+02  0.82321E+04
 0.56453003E+02  0.28047E+04
 0.56503002E+02 -0.45134E+04
 0.56553001E+02 -0.70296E+04
 0.56603001E+02 -0.47642E+04
 0.56653004E+02 -0.27088E+04
 0.56703003E+02  0.36415E+03
 0.56753002E+02  0.50223E+04
 0.56803001E+02  0.82162E+04
 0.56853001E+02  0.82629E+04
 0.56903004E+02  0.35840E+04
 0.56953003E+02 -0.69555E+04
 0.57003002E+02 -0.15994E+05
 0.57053001E+02 -0.15553E+05
 0.57103001E+02 -0.59099E+04
 0.57153004E+02  0.46785E+04
 0.57203003E+02  0.80874E+04
 0.57253002E+02  0.84989E+04
 0.57303001E+02  0.73914E+04
 0.57353001E+02  0.49153E+04
 0.57403004E+02  0.45194E+04
 0.57453003E+02  0.49828E+04
 0.57503002E+02  0.86960E+03
 0.57553001E+02 -0.23948E+04
 0.57603001E+02 -0.20616E+04
 0.57653004E+02 -0.58296E+04
 0.57703003E+02 -0.10494E+05
 0.57753002E+02 -0.12628E+05
 0.57803001E+02 -0.95172E+04
 0.57853001E+02  0.19336E+04
 0.57903004E+02  0.13316E+05
 0.57953003E+02  0.17162E+05
 0.58003002E+02  0.11977E+05
 0.58053001E+02  0.35402E+04
 0.58103001E+02  0.52410E+03
 0.58153004E+02 -0.10137E+04
 0.58203003E+02 -0.44653E+04
 0.58253002E+02 -0.70942E+04
 0.58303001E+02 -0.91800E+04
 0.58353001E+02 -0.52989E+04
 0.58403004E+02  0.81230E+04
 0.58453003E+02  0.19610E+05
 0.58503002E+02  0.18976E+05
 0.58553001E+02  0.71872E+04
 0.58603001E+02 -0.62844E+04
 0.58653004E+02 -0.11020E+05
 0.58703003E+02 -0.98870E+04
 0.58753002E+02 -0.97482E+04
 0.58803001E+02 -0.42494E+04
 0.58853001E+02  0.76777E+04
 0.58903004E+02  0.10668E+05
 0.58953003E+02  0.15834E+04
 0.59003002E+02 -0.85538E+04
 0.59053001E+02 -0.10124E+05
 0.59103001E+02 -0.44794E+04
 0.59153004E+02  0.31443E+03
 0.59203003E+02  0.48799E+03
 0.59253002E+02  0.43800E+03
 0.59303001E+02  0.26831E+03
 0.59353001E+02 -0.64079E+03
 0.59403004E+02  0.28820E+04
 0.59453003E+02  0.48479E+04
 0.59503002E+02  0.18836E+03
 0.59553001E+02 -0.55041E+04
 0.59603001E+02 -0.75803E+04
 0.59653004E+02 -0.81361E+04
 0.59703003E+02 -0.72160E+04
 0.59753002E+02 -0.33410E+04
 0.59803001E+02  0.38746E+04
 0.59853001E+02  0.10673E+05
 0.59903004E+02  0.10690E+05
 0.59953003E+02  0.62077E+04
 0.60003002E+02  0.40647E+04
 0.60053001E+02  0.40342E+04
 0.60103001E+02  0.36079E+04
 0.60153004E+02  0.37078E+04
 0.60203003E+02  0.67110E+04
 0.60253002E+02  0.97900E+04
 0.60303001E+02  0.46118E+04
 0.60353001E+02 -0.52043E+04
 0.60403004E+02 -0.60328E+04
 0.60453003E+02  0.35660E+03
 0.60503002E+02  0.48913E+04
 0.60553001E+02  0.40842E+04
 0.60603001E+02 -0.18520E+04
 0.60653004E+02 -0.65537E+04
 0.60703003E+02 -0.52861E+04
 0.60753002E+02 -0.17409E+04
 0.60803001E+02 -0.38377E+04
 0.60853001E+02 -0.87182E+04
 0.60903004E+02 -0.11063E+05
 0.60953003E+02 -0.78133E+04
 0.61003002E+02 -0.30722E+04
 0.61053001E+02 -0.14563E+04
 0.61103001E+02  0.61989E+03
 0.61153004E+02  0.20111E+04
 0.61203003E+02  0.17854E+04
 0.61253002E+02  0.20941E+04
 0.61303001E+02  0.30384E+04
 0.61353001E+02  0.11660E+04
 0.61403004E+02 -0.46476E+03
 0.61453003E+02  0.18462E+04
 0.61503002E+02  0.46948E+04
 0.61553001E+02  0.62064E+04
 0.61603001E+02  0.82544E+04
 0.61653004E+02  0.11950E+05
 0.61703003E+02  0.11805E+05
 0.61753002E+02  0.30204E+04
 0.61803001E+02 -0.75609E+04
 0.61853001E+02 -0.12438E+05
 0.61903004E+02 -0.11274E+05
 0.61953003E+02 -0.64344E+04
 0.62003002E+02 -0.76280E+03
 0.62053001E+02  0.54378E+04
 0.62103004E+02  0.12643E+05
 0.62153000E+02  0.12234E+05
 0.62203003E+02  0.34257E+04
 0.62252998E+02 -0.42615E+04
 0.62303001E+02 -0.57700E+04
 0.62353004E+02 -0.36990E+04
 0.62403000E+02 -0.53461E+04
 0.62453003E+02 -0.84962E+04
 0.62502998E+02 -0.57335E+04
 0.62553001E+02  0.27754E+04
 0.62603004E+02  0.72160E+04
 0.62653000E+02  0.68268E+04
 0.62703003E+02  0.61257E+04
 0.62752998E+02  0.52297E+04
 0.62803001E+02  0.16355E+04
 0.62853004E+02 -0.26203E+04
 0.62903000E+02 -0.16996E+04
 0.62953003E+02  0.19321E+04
 0.63002998E+02  0.72138E+03
 0.63053001E+02 -0.59671E+04
 0.63103004E+02 -0.10795E+05
 0.63153000E+02 -0.98771E+04
 0.63203003E+02 -0.54520E+04
 0.63252998E+02 -0.11615E+04
 0.63303001E+02  0.27426E+03
 0.63353004E+02 -0.14947E+04
 0.63403000E+02 -0.80307E+03
 0.63453003E+02  0.53284E+04
 0.63502998E+02  0.10573E+05
 0.63553001E+02  0.73539E+04
 0.63603004E+02 -0.85700E+03
 0.63653000E+02 -0.54576E+04
 0.63703003E+02 -0.47494E+04
 0.63752998E+02 -0.25071E+04
 0.63803001E+02  0.41330E+03
 0.63853004E+02  0.42393E+04
 0.63903000E+02  0.55235E+04
 0.63953003E+02  0.24767E+04
 0.64002998E+02 -0.69020E+03
 0.64053001E+02 -0.10809E+03
 0.64103004E+02  0.38904E+04
 0.64153000E+02  0.81704E+04
 0.64203003E+02  0.86478E+04
 0.64252998E+02  0.50984E+04
 0.64303001E+02  0.72878E+03
 0.64353004E+02 -0.37140E+03
 0.64403000E+02  0.58223E+03
 0.64453003E+02  0.28832E+03
 0.64502998E+02 -0.10862E+04
 0.64553001E+02 -0.19023E+04
 0.64603004E+02 -0.47873E+04
 0.64653000E+02 -0.88499E+04
 0.64703003E+02 -0.11168E+05
 0.64752998E+02 -0.91905E+04
 0.64803001E+02 -0.62329E+03
 0.64853004E+02  0.73856E+04
 0.64903000E+02  0.82064E+04
 0.64953003E+02  0.39838E+04
 0.65002998E+02 -0.22520E+03
 0.65053001E+02 -0.29625E+04
 0.65103004E+02 -0.64721E+04
 0.65153000E+02 -0.84284E+04
 0.65203003E+02 -0.56428E+04
 0.65252998E+02 -0.33334E+03
 0.65303001E+02  0.56441E+04
 0.65353004E+02  0.77491E+04
 0.65403000E+02  0.60016E+04
 0.65453003E+02  0.42516E+04
 0.65502998E+02  0.36680E+04
 0.65553001E+02  0.17592E+04
 0.65603004E+02  0.49759E+03
 0.65653000E+02  0.30579E+04
 0.65703003E+02  0.61275E+04
 0.65752998E+02  0.59722E+04
 0.65803001E+02  0.33839E+04
 0.65853004E+02  0.52487E+03
 0.65903000E+02 -0.31554E+04
 0.65953003E+02 -0.49685E+04
 0.66002998E+02 -0.30751E+04
 0.66053001E+02  0.11871E+04
 0.66103004E+02  0.53115E+04
 0.66153000E+02  0.74033E+04
 0.66203003E+02  0.69257E+04
 0.66252998E+02  0.15990E+04
 0.66303001E+02 -0.83254E+04
 0.66353004E+02 -0.14461E+05
 0.66403000E+02 -0.13423E+05
 0.66453003E+02 -0.69775E+04
 0.66502998E+02  0.11075E+04
 0.66553001E+02  0.54093E+04
 0.66603004E+02  0.44358E+04
 0.66653000E+02  0.78046E+03
 0.66703003E+02 -0.99365E+03
 0.66752998E+02 -0.19563E+04
 0.66803001E+02 -0.24694E+04
 0.66853004E+02  0.32709E+03
 0.66903000E+02  0.50718E+04
 0.66953003E+02  0.95556E+04
 0.67002998E+02  0.11361E+05
 0.67053001E+02  0.94045E+04
 0.67103004E+02  0.65801E+04
 0.67153000E+02  0.53333E+04
 0.67203003E+02  0.60045E+04
 0.67252998E+02  0.63595E+04
 0.67303001E+02  0.44202E+04
 0.67353004E+02  0.67532E+03
 0.67403000E+02 -0.33661E+04
 0.67453003E+02 -0.51677E+04
 0.67502998E+02 -0.41923E+04
 0.67553001E+02 -0.27196E+04
 0.67603004E+02 -0.23250E+04
 0.67653000E+02 -0.25600E+04
 0.67703003E+02 -0.36352E+04
 0.67752998E+02 -0.48384E+04
 0.67803001E+02 -0.30642E+04
 0.67853004E+02  0.11838E+04
 0.67903000E+02  0.50699E+04
 0.67953003E+02  0.56315E+04
 0.68002998E+02  0.39379E+04
 0.68053001E+02  0.19981E+04
 0.68103004E+02 -0.13866E+04
 0.68153000E+02 -0.32533E+04
 0.68203003E+02 -0.20854E+04
 0.68252998E+02 -0.14580E+04
 0.68303001E+02 -0.29763E+04
 0.68353004E+02 -0.47071E+04
 0.68403000E+02 -0.40889E+04
 0.68453003E+02 -0.17638E+03
 0.68502998E+02  0.33661E+04
 0.68553001E+02  0.41032E+04
 0.68603004E+02  0.34100E+04
 0.68653000E+02  0.15115E+04
 0.68703003E+02 -0.21252E+04
 0.68752998E+02 -0.51946E+04
 0.68803001E+02 -0.56396E+04
 0.68853004E+02 -0.44181E+04
 0.68903000E+02 -0.94655E+03
 0.68953003E+02  0.25853E+04
 0.69002998E+02  0.49458E+04
 0.69053001E+02  0.56779E+04
 0.69103004E+02  0.39027E+04
 0.69153000E+02  0.21314E+04
 0.69203003E+02  0.54979E+03
 0.69252998E+02 -0.46056E+03
 0.69303001E+02  0.19304E+03
 0.69353004E+02  0.13042E+04
 0.69403000E+02  0.29991E+03
 0.69453003E+02 -0.27281E+04
 0.69502998E+02 -0.55140E+04
 0.69553001E+02 -0.71217E+04
 0.69603004E+02 -0.79373E+04
 0.69653000E+02 -0.67468E+04
 0.69703003E+02 -0.21388E+04
 0.69752998E+02  0.35068E+04
 0.69803001E+02  0.62480E+04
 0.69853004E+02  0.51988E+04
 0.69903000E+02  0.29615E+04
 0.69953003E+02  0.16509E+04
 0.70002998E+02  0.14609E+04
 0.70053001E+02  0.24021E+04
 0.70103004E+02  0.41271E+04
 0.70153000E+02  0.44440E+04
 0.70203003E+02  0.30423E+04
 0.70252998E+02  0.15565E+04
 0.70303001E+02  0.16577E+04
 0.70353004E+02  0.21027E+04
 0.70403000E+02 -0.49730E+03
 0.70453003E+02 -0.59832E+04
 0.70502998E+02 -0.10347E+05
 0.70553001E+02 -0.10868E+05
 0.70603004E+02 -0.81188E+04
 0.70653000E+02 -0.30072E+04
 0.70703003E+02  0.21979E+04
 0.70752998E+02  0.59200E+04
 0.70803001E+02  0.88871E+04
 0.70853004E+02  0.97999E+04
 0.70903000E+02  0.67479E+04
 0.70953003E+02  0.28250E+04
 0.71002998E+02  0.13373E+04
 0.71053001E+02  0.44541E+03
 0.71103004E+02 -0.16370E+04
 0.71153000E+02 -0.43002E+04
 0.71203003E+02 -0.55282E+04
 0.71252998E+02 -0.39007E+04
 0.71303001E+02 -0.17577E+04
 0.71353004E+02 -0.30908E+04
 0.71403000E+02 -0.69020E+04
 0.71453003E+02 -0.81530E+04
 0.71502998E+02 -0.64630E+04
 0.71553001E+02 -0.42679E+04
 0.71603004E+02 -0.21088E+04
 0.71653000E+02 -0.50575E+03
 0.71703003E+02  0.17689E+04
 0.71752998E+02  0.50112E+04
 0.71803001E+02  0.73033E+04
 0.71853004E+02  0.91498E+04
 0.71903000E+02  0.10738E+05
 0.71953003E+02  0.11079E+05
 0.72002998E+02  0.89473E+04
 0.72053001E+02  0.46244E+04
 0.72103004E+02  0.24401E+03
 0.72153000E+02 -0.25805E+04
 0.72203003E+02 -0.22336E+04
 0.72252998E+02  0.42223E+03
 0.72303001E+02  0.30900E+04
 0.72353004E+02  0.36702E+04
 0.72403000E+02  0.27839E+04
 0.72453003E+02  0.17803E+04
 0.72502998E+02  0.26818E+03
 0.72553001E+02 -0.16096E+04
 0.72603004E+02 -0.42396E+04
 0.72653000E+02 -0.57394E+04
 0.72703003E+02 -0.29696E+04
 0.72752998E+02  0.57969E+03
 0.72803001E+02  0.48490E+03
 0.72853004E+02 -0.15110E+04
 0.72903000E+02 -0.28675E+04
 0.72953003E+02 -0.17142E+04
 0.73002998E+02  0.95114E+03
 0.73053001E+02  0.27338E+04
 0.73103004E+02  0.38008E+04
 0.73153000E+02  0.59504E+04
 0.73203003E+02  0.90705E+04
 0.73252998E+02  0.90084E+04
 0.73303001E+02  0.36730E+04
 0.73353004E+02 -0.29030E+04
 0.73403000E+02 -0.70271E+04
 0.73453003E+02 -0.86215E+04
 0.73502998E+02 -0.80158E+04
 0.73553001E+02 -0.51437E+04
 0.73603004E+02 -0.12093E+04
 0.73653000E+02  0.13135E+04
 0.73703003E+02  0.18241E+04
 0.73752998E+02  0.23679E+04
 0.73803001E+02  0.17369E+04
 0.73853004E+02 -0.94954E+03
 0.73903000E+02 -0.29120E+04
 0.73953003E+02 -0.33499E+04
 0.74002998E+02 -0.25066E+04
 0.74053001E+02 -0.13015E+04
 0.74103004E+02 -0.14972E+04
 0.74153000E+02 -0.28444E+04
 0.74203003E+02 -0.27063E+04
 0.74252998E+02 -0.30019E+03
 0.74303001E+02  0.18413E+04
 0.74353004E+02  0.22364E+04
 0.74403000E+02  0.25333E+03
 0.74453003E+02 -0.24567E+04
 0.74502998E+02 -0.26174E+04
 0.74553001E+02 -0.11787E+04
 0.74603004E+02 -0.20520E+03
 0.74653000E+02  0.59948E+03
 0.74703003E+02  0.28440E+04
 0.74752998E+02  0.59700E+04
 0.74803001E+02  0.82100E+04
 0.74853004E+02  0.81510E+04
 0.74903000E+02  0.56718E+04
 0.74953003E+02  0.21360E+04
 0.75002998E+02 -0.80496E+03
 0.75053001E+02 -0.12971E+04
 0.75103004E+02  0.45291E+02
 0.75153000E+02  0.19035E+04
 0.75203003E+02  0.31415E+04
 0.75252998E+02  0.25321E+04
 0.75303001E+02  0.23631E+03
 0.75353004E+02 -0.28697E+04
 0.75403000E+02 -0.45413E+04
 0.75453003E+02 -0.34666E+04
 0.75502998E+02 -0.68969E+03
 0.75553001E+02  0.12548E+03
 0.75603004E+02 -0.16926E+04
 0.75653000E+02 -0.28137E+04
 0.75703003E+02 -0.13508E+04
 0.75752998E+02  0.26337E+03
 0.75803001E+02 -0.69791E+03
 0.75853004E+02 -0.23734E+04
 0.75903000E+02 -0.28956E+04
 0.75953003E+02 -0.14221E+04
 0.76002998E+02  0.84970E+03
 0.76053001E+02  0.25949E+04
 0.76103004E+02  0.36625E+04
 0.76153000E+02  0.45853E+04
 0.76203003E+02  0.41908E+04
 0.76252998E+02  0.27287E+04
 0.76303001E+02  0.15944E+04
 0.76353004E+02  0.26853E+03
 0.76403000E+02 -0.56281E+03
 0.76453003E+02 -0.10022E+04
 0.76502998E+02 -0.16060E+04
 0.76553001E+02 -0.26592E+04
 0.76603004E+02 -0.43717E+04
 0.76653000E+02 -0.64464E+04
 0.76703003E+02 -0.72948E+04
 0.76752998E+02 -0.52200E+04
 0.76803001E+02 -0.43236E+03
 0.76853004E+02  0.35232E+04
 0.76903000E+02  0.44634E+04
 0.76953003E+02  0.41198E+04
 0.77002998E+02  0.36474E+04
 0.77053001E+02  0.36855E+04
 0.77103004E+02  0.39577E+04
 0.77153000E+02  0.35455E+04
 0.77203003E+02  0.28153E+04
 0.77252998E+02  0.22985E+04
 0.77303001E+02  0.34142E+04
 0.77353004E+02  0.58641E+04
 0.77403000E+02  0.66939E+04
 0.77453003E+02  0.51934E+04
 0.77502998E+02  0.28961E+04
 0.77553001E+02  0.26430E+03
 0.77603004E+02 -0.29673E+04
 0.77653000E+02 -0.52139E+04
 0.77703003E+02 -0.58592E+04
 0.77752998E+02 -0.54017E+04
 0.77803001E+02 -0.56058E+04
 0.77853004E+02 -0.71833E+04
 0.77903000E+02 -0.73759E+04
 0.77953003E+02 -0.50520E+04
 0.78002998E+02 -0.14723E+04
 0.78053001E+02  0.67194E+03
 0.78103004E+02  0.93933E+03
 0.78153000E+02  0.15453E+04
 0.78203003E+02  0.34982E+04
 0.78252998E+02  0.53110E+04
 0.78303001E+02  0.53416E+04
 0.78353004E+02  0.53352E+04
 0.78403000E+02  0.66155E+04
 0.78453003E+02  0.66642E+04
 0.78502998E+02  0.44542E+04
 0.78553001E+02  0.24213E+04
 0.78603004E+02  0.23522E+04
 0.78653000E+02  0.18823E+04
 0.78703003E+02 -0.78433E+03
 0.78752998E+02 -0.34331E+04
 0.78803001E+02 -0.49939E+04
 0.78853004E+02 -0.49732E+04
 0.78903000E+02 -0.33709E+04
 0.78953003E+02 -0.10735E+04
 0.79002998E+02  0.64146E+03
 0.79053001E+02  0.85923E+03
 0.79103004E+02  0.39102E+03
 0.79153000E+02  0.59265E+02
 0.79203003E+02 -0.15253E+03
 0.79252998E+02 -0.12435E+03
 0.79303001E+02 -0.49581E+03
 0.79353004E+02 -0.11277E+04
 0.79403000E+02 -0.98701E+03
 0.79453003E+02 -0.12260E+03
 0.79502998E+02  0.77238E+03
 0.79553001E+02  0.12796E+04
 0.79603004E+02  0.16454E+04
 0.79653000E+02  0.15496E+04
 0.79703003E+02  0.10337E+04
 0.79752998E+02  0.12243E+04
 0.79803001E+02  0.19862E+04
 0.79853004E+02  0.24467E+04
 0.79903000E+02  0.18570E+04
 0.79953003E+02  0.23899E+03
 0.80002998E+02 -0.81703E+03
 0.80053001E+02 -0.21888E+03
 0.80103004E+02  0.20391E+04
 0.80153000E+02  0.46791E+04
 0.80203003E+02  0.61317E+04
 0.80252998E+02  0.57716E+04
 0.80303001E+02  0.43547E+04
 0.80353004E+02  0.26511E+04
 0.80403000E+02  0.10203E+04
 0.80453003E+02  0.29917E+03
 0.80502998E+02 -0.15484E+03
 0.80553001E+02 -0.17320E+04
 0.80603004E+02 -0.41363E+04
 0.80653000E+02 -0.62569E+04
 0.80703003E+02 -0.70991E+04
 0.80752998E+02 -0.68829E+04
 0.80803001E+02 -0.59238E+04
 0.80853004E+02 -0.43136E+04
 0.80903000E+02 -0.21895E+04
 0.80953003E+02  0.78865E+01
 0.81002998E+02  0.94224E+03
 0.81053001E+02  0.14841E+02
 0.81103004E+02 -0.96594E+03
 0.81153000E+02  0.99686E+02
 0.81203003E+02  0.19993E+04
 0.81252998E+02  0.33799E+04
 0.81303001E+02  0.41136E+04
 0.81353004E+02  0.38133E+04
 0.81403000E+02  0.25295E+04
 0.81453003E+02  0.96561E+03
 0.81502998E+02  0.32914E+03
 0.81553001E+02  0.12807E+04
 0.81603004E+02  0.28030E+04
 0.81653000E+02  0.30215E+04
 0.81703003E+02  0.15044E+04
 0.81752998E+02 -0.87781E+03
 0.81803001E+02 -0.27561E+04
 0.81853004E+02 -0.24551E+04
 0.81903000E+02 -0.20370E+03
 0.81953003E+02  0.15147E+04
 0.82002998E+02  0.13730E+04
 0.82053001E+02  0.59564E+03
 0.82103004E+02  0.23039E+02
 0.82153000E+02  0.17923E+03
 0.82203003E+02  0.13243E+03
 0.82252998E+02 -0.50825E+03
 0.82303001E+02  0.11977E+03
 0.82353004E+02  0.93328E+03
 0.82403000E+02  0.48332E+03
 0.82453003E+02 -0.86885E+03
 0.82502998E+02 -0.25022E+04
 0.82553001E+02 -0.32146E+04
 0.82603004E+02 -0.33166E+04
 0.82653000E+02 -0.27128E+04
 0.82703003E+02 -0.44902E+03
 0.82752998E+02  0.20487E+04
 0.82803001E+02  0.31103E+04
 0.82853004E+02  0.26842E+04
 0.82903000E+02  0.16309E+04
 0.82953003E+02  0.69092E+03
 0.83002998E+02  0.21750E+03
 0.83053001E+02  0.95634E+02
 0.83103004E+02  0.13753E+03
 0.83153000E+02  0.44492E+03
 0.83203003E+02  0.14364E+04
 0.83252998E+02  0.27814E+04
 0.83303001E+02  0.30559E+04
 0.83353004E+02  0.19941E+04
 0.83403000E+02  0.69143E+03
 0.83453003E+02 -0.13288E+01
 0.83502998E+02 -0.17729E+03
 0.83553001E+02  0.45188E+02
 0.83603004E+02  0.37117E+03
 0.83653000E+02 -0.13070E+03
 0.83703003E+02 -0.57676E+03
 0.83752998E+02  0.12948E+03
 0.83803001E+02  0.78337E+03
 0.83853004E+02  0.91819E+02
 0.83903000E+02 -0.15247E+04
 0.83953003E+02 -0.23204E+04
 0.84002998E+02 -0.18785E+04
 0.84053001E+02 -0.82535E+03
 0.84103004E+02  0.64084E+03
 0.84153000E+02  0.18473E+04
 0.84203003E+02  0.19367E+04
 0.84252998E+02  0.10310E+04
 0.84303001E+02 -0.26648E+03
 0.84353004E+02 -0.95926E+03
 0.84403000E+02 -0.35808E+03
 0.84453003E+02  0.88826E+03
 0.84502998E+02  0.11035E+04
 0.84553001E+02  0.48211E+02
 0.84603004E+02 -0.84781E+03
 0.84653000E+02 -0.36685E+03
 0.84703003E+02  0.11855E+04
 0.84752998E+02  0.21882E+04
 0.84803001E+02  0.21187E+04
 0.84853004E+02  0.12868E+04
 0.84903000E+02  0.61493E+03
 0.84953003E+02  0.67938E+03
 0.85002998E+02  0.12172E+04
 0.85053001E+02  0.11897E+04
 0.85103004E+02  0.12431E+03
 0.85153000E+02 -0.74929E+03
 0.85203003E+02 -0.78928E+03
 0.85252998E+02 -0.58524E+03
 0.85303001E+02  0.16318E+03
 0.85353004E+02  0.16195E+04
 0.85403000E+02  0.24452E+04
 0.85453003E+02  0.22175E+04
 0.85502998E+02  0.16343E+04
 0.85553001E+02  0.15767E+04
 0.85603004E+02  0.17101E+04
 0.85653000E+02  0.33336E+03
 0.85703003E+02 -0.25182E+04
 0.85752998E+02 -0.50658E+04
 0.85803001E+02 -0.63130E+04
 0.85853004E+02 -0.58813E+04
 0.85903000E+02 -0.40205E+04
 0.85953003E+02 -0.15173E+04
 0.86002998E+02  0.90626E+03
 0.86053001E+02  0.20535E+04
 0.86103004E+02  0.19742E+04
 0.86153000E+02  0.18976E+04
 0.86203003E+02  0.22922E+04
 0.86252998E+02  0.24120E+04
 0.86303001E+02  0.15497E+04
 0.86353004E+02  0.65594E+03
 0.86403000E+02  0.20832E+03
 0.86453003E+02  0.33802E+03
 0.86502998E+02  0.16360E+04
 0.86553001E+02  0.28626E+04
 0.86603004E+02  0.30648E+04
 0.86653000E+02  0.26801E+04
 0.86703003E+02  0.20343E+04
 0.86752998E+02  0.15573E+04
 0.86803001E+02  0.13726E+04
 0.86853004E+02  0.78653E+03
 0.86903000E+02 -0.22016E+03
 0.86953003E+02 -0.98183E+03
 0.87002998E+02 -0.12227E+04
 0.87053001E+02 -0.12501E+04
 0.87103004E+02 -0.16136E+04
 0.87153000E+02 -0.15572E+04
 0.87203003E+02 -0.74723E+03
 0.87252998E+02  0.39094E+03
 0.87303001E+02  0.17881E+04
 0.87353004E+02  0.30600E+04
 0.87403000E+02  0.34803E+04
 0.87453003E+02  0.22649E+04
 0.87502998E+02 -0.28482E+03
 0.87553001E+02 -0.27182E+04
 0.87602997E+02 -0.43772E+04
 0.87653000E+02 -0.53184E+04
 0.87703003E+02 -0.48247E+04
 0.87752998E+02 -0.24861E+04
 0.87803001E+02  0.41220E+03
 0.87852997E+02  0.21780E+04
 0.87903000E+02  0.22041E+04
 0.87953003E+02  0.10753E+04
 0.88002998E+02  0.21894E+03
 0.88053001E+02  0.66790E+03
 0.88102997E+02  0.22921E+04
 0.88153000E+02  0.32483E+04
 0.88203003E+02  0.23784E+04
 0.88252998E+02  0.84530E+03
 0.88303001E+02 -0.24335E+03
 0.88352997E+02 -0.13859E+04
 0.88403000E+02 -0.25831E+04
 0.88453003E+02 -0.21371E+04
 0.88502998E+02  0.14395E+03
 0.88553001E+02  0.25439E+04
 0.88602997E+02  0.40338E+04
 0.88653000E+02  0.42258E+04
 0.88703003E+02  0.30555E+04
 0.88752998E+02  0.14675E+04
 0.88803001E+02  0.37888E+03
 0.88852997E+02 -0.20568E+03
 0.88903000E+02 -0.50867E+03
 0.88953003E+02 -0.71115E+03
 0.89002998E+02 -0.79969E+03
 0.89053001E+02 -0.68945E+03
 0.89102997E+02 -0.69203E+03
 0.89153000E+02 -0.57403E+03
 0.89203003E+02 -0.21512E+03
 0.89252998E+02  0.89728E+02
 0.89303001E+02 -0.20813E+03
 0.89352997E+02 -0.36500E+03
 0.89403000E+02  0.39879E+03
 0.89453003E+02  0.13704E+04
 0.89502998E+02  0.14455E+04
 0.89553001E+02  0.13028E+02
 0.89602997E+02 -0.22260E+04
 0.89653000E+02 -0.35510E+04
 0.89703003E+02 -0.28343E+04
 0.89752998E+02 -0.10301E+04
 0.89803001E+02  0.63392E+03
 0.89852997E+02  0.18062E+04
 0.89903000E+02  0.29648E+04
 0.89953003E+02  0.37981E+04
 0.90002998E+02  0.35413E+04
 0.90053001E+02  0.25524E+04
 0.90102997E+02  0.22352E+04
 0.90153000E+02  0.22208E+04
 0.90203003E+02  0.11453E+04
 0.90252998E+02 -0.36931E+03
 0.90303001E+02 -0.11037E+04
 0.90352997E+02 -0.61925E+03
 0.90403000E+02  0.49562E+03
 0.90453003E+02  0.13744E+04
 0.90502998E+02  0.11695E+04
 0.90553001E+02  0.18791E+02
 0.90602997E+02 -0.14605E+04
 0.90653000E+02 -0.25142E+04
 0.90703003E+02 -0.24916E+04
 0.90752998E+02 -0.16477E+04
 0.90803001E+02 -0.55415E+03
 0.90852997E+02 -0.15145E+03
 0.90903000E+02 -0.56038E+03
 0.90953003E+02 -0.13744E+04
 0.91002998E+02 -0.20699E+04
 0.91053001E+02 -0.18617E+04
 0.91102997E+02 -0.85080E+03
 0.91153000E+02  0.73741E+03
 0.91203003E+02  0.26674E+04
 0.91252998E+02  0.37088E+04
 0.91303001E+02  0.32179E+04
 0.91352997E+02  0.16476E+04
 0.91403000E+02 -0.64420E+02
 0.91453003E+02 -0.12175E+04
 0.91502998E+02 -0.13881E+04
 0.91553001E+02 -0.13596E+03
 0.91602997E+02  0.15159E+04
 0.91653000E+02  0.28469E+04
 0.91703003E+02  0.36884E+04
 0.91752998E+02  0.37070E+04
 0.91803001E+02  0.34385E+04
 0.91852997E+02  0.30358E+04
 0.91903000E+02  0.24059E+04
 0.91953003E+02  0.17175E+04
 0.92002998E+02  0.38922E+03
 0.92053001E+02 -0.14246E+04
 0.92102997E+02 -0.29535E+04
 0.92153000E+02 -0.37741E+04
 0.92203003E+02 -0.35568E+04
 0.92252998E+02 -0.23664E+04
 0.92303001E+02 -0.79787E+03
 0.92352997E+02  0.37135E+03
 0.92403000E+02  0.71172E+03
 0.92453003E+02  0.49901E+03
 0.92502998E+02  0.38848E+03
 0.92553001E+02  0.42702E+03
 0.92602997E+02  0.72636E+03
 0.92653000E+02  0.12036E+04
 0.92703003E+02  0.13923E+04
 0.92752998E+02  0.67925E+03
 0.92803001E+02 -0.60649E+03
 0.92852997E+02 -0.12562E+04
 0.92903000E+02 -0.12071E+04
 0.92953003E+02 -0.10931E+04
 0.93002998E+02 -0.87530E+03
 0.93053001E+02 -0.47076E+03
 0.93102997E+02 -0.31854E+03
 0.93153000E+02 -0.27377E+03
 0.93203003E+02 -0.14142E+03
 0.93252998E+02  0.21052E+02
 0.93303001E+02  0.51203E+03
 0.93352997E+02  0.14205E+04
 0.93403000E+02  0.21817E+04
 0.93453003E+02  0.21957E+04
 0.93502998E+02  0.15585E+04
 0.93553001E+02  0.79112E+03
 0.93602997E+02  0.44068E+03
 0.93653000E+02  0.95978E+03
 0.93703003E+02  0.18052E+04
 0.93752998E+02  0.18925E+04
 0.93803001E+02  0.11738E+04
 0.93852997E+02  0.24851E+03
 0.93903000E+02 -0.94712E+02
 0.93953003E+02  0.44632E+03
 0.94002998E+02  0.13474E+04
 0.94053001E+02  0.18530E+04
 0.94102997E+02  0.12559E+04
 0.94153000E+02  0.58322E+02
 0.94203003E+02 -0.12126E+04
 0.94252998E+02 -0.28163E+04
 0.94303001E+02 -0.39160E+04
 0.94352997E+02 -0.34764E+04
 0.94403000E+02 -0.20947E+04
 0.94453003E+02 -0.11618E+04
 0.94502998E+02 -0.82267E+03
 0.94553001E+02 -0.79977E+03
 0.94602997E+02 -0.84257E+03
 0.94653000E+02 -0.44141E+03
 0.94703003E+02  0.29256E+03
 0.94752998E+02  0.10225E+04
 0.94803001E+02  0.14787E+04
 0.94852997E+02  0.13549E+04
 0.94903000E+02  0.91009E+03
 0.94953003E+02  0.79423E+03
 0.95002998E+02  0.99520E+03
 0.95053001E+02  0.14539E+04
 0.95102997E+02  0.16670E+04
 0.95153000E+02  0.13947E+04
 0.95203003E+02  0.11960E+04
 0.95252998E+02  0.11046E+04
 0.95303001E+02  0.10790E+04
 0.95352997E+02  0.12320E+04
 0.95403000E+02  0.15568E+04
 0.95453003E+02  0.19012E+04
 0.95502998E+02  0.18499E+04
 0.95553001E+02  0.14436E+04
 0.95602997E+02  0.11706E+04
 0.95653000E+02  0.12890E+04
 0.95703003E+02  0.18170E+04
 0.95752998E+02  0.20906E+04
 0.95803001E+02  0.19701E+04
 0.95852997E+02  0.14884E+04
 0.95903000E+02  0.47749E+03
 0.95953003E+02 -0.57466E+03
 0.96002998E+02 -0.11707E+04
 0.96053001E+02 -0.13651E+04
 0.96102997E+02 -0.12731E+04
 0.96153000E+02 -0.95301E+03
 0.96203003E+02 -0.78079E+03
 0.96252998E+02 -0.10933E+04
 0.96303001E+02 -0.17594E+04
 0.96352997E+02 -0.22303E+04
 0.96403000E+02 -0.18719E+04
 0.96453003E+02 -0.56948E+03
 0.96502998E+02  0.50775E+03
 0.96553001E+02  0.39431E+03
 0.96602997E+02 -0.67804E+03
 0.96653000E+02 -0.12497E+04
 0.96703003E+02 -0.61696E+03
 0.96752998E+02  0.21747E+03
 0.96803001E+02  0.54201E+03
 0.96852997E+02  0.47264E+03
 0.96903000E+02  0.15861E+03
 0.96953003E+02 -0.53748E+03
 0.97002998E+02 -0.11149E+04
 0.97053001E+02 -0.88833E+03
 0.97102997E+02 -0.24795E+03
 0.97153000E+02 -0.11180E+03
 0.97203003E+02 -0.36237E+03
 0.97252998E+02 -0.43443E+03
 0.97303001E+02 -0.32157E+03
 0.97352997E+02 -0.62591E+02
 0.97403000E+02  0.65890E+03
 0.97453003E+02  0.16267E+04
 0.97502998E+02  0.24629E+04
 0.97553001E+02  0.28983E+04
 0.97602997E+02  0.26656E+04
 0.97653000E+02  0.20479E+04
 0.97703003E+02  0.14187E+04
 0.97752998E+02  0.13256E+04
 0.97803001E+02  0.16355E+04
 0.97852997E+02  0.15941E+04
 0.97903000E+02  0.11959E+04
 0.97953003E+02  0.10364E+04
 0.98002998E+02  0.12604E+04
