-0.20000000E+01 -0.37238E+04
-0.19500000E+01 -0.37054E+04
-0.19000000E+01 -0.37290E+04
-0.18500000E+01 -0.37332E+04
-0.18000000E+01 -0.37371E+04
-0.17500000E+01 -0.37492E+04
-0.17000000E+01 -0.37529E+04
-0.16500001E+01 -0.37496E+04
-0.16000000E+01 -0.37516E+04
-0.15500000E+01 -0.37547E+04
-0.15000000E+01 -0.37538E+04
-0.14500000E+01 -0.37544E+04
-0.14000001E+01 -0.37600E+04
-0.13500000E+01 -0.37684E+04
-0.13000001E+01 -0.37712E+04
-0.12500000E+01 -0.37670E+04
-0.12000000E+01 -0.37679E+04
-0.11500001E+01 -0.37655E+04
-0.11000000E+01 -0.37673E+04
-0.10500001E+01 -0.37737E+04
-0.10000000E+01 -0.37783E+04
-0.95000005E+00 -0.37764E+04
-0.90000010E+00 -0.37702E+04
-0.85000002E+00 -0.37711E+04
-0.80000007E+00 -0.37704E+04
-0.75000012E+00 -0.37770E+04
-0.70000005E+00 -0.37797E+04
-0.65000010E+00 -0.37715E+04
-0.60000014E+00 -0.37582E+04
-0.55000007E+00 -0.37456E+04
-0.50000012E+00 -0.37452E+04
-0.45000005E+00 -0.37500E+04
-0.40000010E+00 -0.37514E+04
-0.35000014E+00 -0.37479E+04
-0.30000007E+00 -0.37476E+04
-0.25000012E+00 -0.37441E+04
-0.20000005E+00 -0.37402E+04
-0.15000010E+00 -0.37356E+04
-0.10000014E+00 -0.37244E+04
-0.50000072E-01 -0.37102E+04
-0.11920929E-06 -0.37015E+04
 0.49999952E-01 -0.37006E+04
 0.99999905E-01 -0.36938E+04
 0.14999986E+00 -0.36864E+04
 0.19999981E+00 -0.36830E+04
 0.24999976E+00 -0.36808E+04
 0.29999995E+00 -0.36880E+04
 0.34999990E+00 -0.37023E+04
 0.39999986E+00 -0.37029E+04
 0.44999981E+00 -0.37038E+04
 0.49999976E+00 -0.37145E+04
 0.54999995E+00 -0.37179E+04
 0.59999990E+00 -0.37110E+04
 0.64999986E+00 -0.37066E+04
 0.69999981E+00 -0.37092E+04
 0.74999976E+00 -0.37159E+04
 0.79999971E+00 -0.37218E+04
 0.84999990E+00 -0.37224E+04
 0.89999986E+00 -0.37276E+04
 0.94999981E+00 -0.37388E+04
 0.99999976E+00 -0.37505E+04
 0.10499997E+01 -0.37476E+04
 0.10999999E+01 -0.37381E+04
 0.11499999E+01 -0.37393E+04
 0.11999998E+01 -0.37452E+04
 0.12499998E+01 -0.37435E+04
 0.12999997E+01 -0.37366E+04
 0.13499999E+01 -0.37428E+04
 0.13999999E+01 -0.37431E+04
 0.14499998E+01 -0.37318E+04
 0.14999998E+01 -0.37194E+04
 0.15499997E+01 -0.37100E+04
 0.15999999E+01 -0.37086E+04
 0.16499999E+01 -0.37109E+04
 0.16999998E+01 -0.37187E+04
 0.17499998E+01 -0.37263E+04
 0.17999997E+01 -0.37314E+04
 0.18499997E+01 -0.37392E+04
 0.18999999E+01 -0.37483E+04
 0.19499998E+01 -0.37556E+04
 0.19999998E+01 -0.37711E+04
 0.20499997E+01 -0.37783E+04
 0.20999999E+01 -0.37736E+04
 0.21499996E+01 -0.37733E+04
 0.21999998E+01 -0.37768E+04
 0.22499995E+01 -0.37792E+04
 0.22999997E+01 -0.37698E+04
 0.23499999E+01 -0.37519E+04
 0.23999996E+01 -0.37458E+04
 0.24499998E+01 -0.37510E+04
 0.24999995E+01 -0.37598E+04
 0.25499997E+01 -0.37744E+04
 0.25999999E+01 -0.37731E+04
 0.26499996E+01 -0.37610E+04
 0.26999998E+01 -0.37463E+04
 0.27499995E+01 -0.37313E+04
 0.27999997E+01 -0.37237E+04
 0.28499999E+01 -0.37161E+04
 0.28999996E+01 -0.37116E+04
 0.29499998E+01 -0.37143E+04
 0.29999995E+01 -0.37176E+04
 0.30499997E+01 -0.37128E+04
 0.30999999E+01 -0.37092E+04
 0.31499996E+01 -0.37089E+04
 0.31999998E+01 -0.37115E+04
 0.32499995E+01 -0.37096E+04
 0.32999997E+01 -0.37074E+04
 0.33499999E+01 -0.37193E+04
 0.33999996E+01 -0.37197E+04
 0.34499998E+01 -0.37063E+04
 0.34999995E+01 -0.36983E+04
 0.35499997E+01 -0.36901E+04
 0.35999994E+01 -0.36832E+04
 0.36499996E+01 -0.36761E+04
 0.36999998E+01 -0.36674E+04
 0.37499995E+01 -0.36784E+04
 0.37999997E+01 -0.36975E+04
 0.38499994E+01 -0.37089E+04
 0.38999996E+01 -0.37153E+04
 0.39499998E+01 -0.37186E+04
 0.39999995E+01 -0.37218E+04
 0.40499997E+01 -0.37208E+04
 0.40999994E+01 -0.37281E+04
 0.41499996E+01 -0.37387E+04
 0.41999998E+01 -0.37492E+04
 0.42499995E+01 -0.37490E+04
 0.42999997E+01 -0.37438E+04
 0.43499994E+01 -0.37500E+04
 0.43999996E+01 -0.37588E+04
 0.44499998E+01 -0.37651E+04
 0.44999995E+01 -0.37731E+04
 0.45499997E+01 -0.37799E+04
 0.45999994E+01 -0.37822E+04
 0.46499996E+01 -0.37856E+04
 0.46999998E+01 -0.37753E+04
 0.47499995E+01 -0.37658E+04
 0.47999997E+01 -0.37747E+04
 0.48499994E+01 -0.37862E+04
 0.48999996E+01 -0.37812E+04
 0.49499998E+01 -0.37716E+04
 0.49999995E+01 -0.37556E+04
 0.50499997E+01 -0.37408E+04
 0.50999994E+01 -0.37302E+04
 0.51499996E+01 -0.37245E+04
 0.51999998E+01 -0.37287E+04
 0.52499995E+01 -0.37306E+04
 0.52999997E+01 -0.37384E+04
 0.53499994E+01 -0.37385E+04
 0.53999996E+01 -0.37267E+04
 0.54499993E+01 -0.37183E+04
 0.54999995E+01 -0.37103E+04
 0.55499997E+01 -0.37066E+04
 0.55999994E+01 -0.37179E+04
 0.56499996E+01 -0.37313E+04
 0.56999993E+01 -0.37381E+04
 0.57499995E+01 -0.37430E+04
 0.57999997E+01 -0.37458E+04
 0.58499994E+01 -0.37470E+04
 0.58999996E+01 -0.37534E+04
 0.59499993E+01 -0.37485E+04
 0.59999995E+01 -0.37468E+04
 0.60499992E+01 -0.37468E+04
 0.60999994E+01 -0.37400E+04
 0.61499996E+01 -0.37321E+04
 0.61999998E+01 -0.37261E+04
 0.62499990E+01 -0.37237E+04
 0.62999992E+01 -0.37176E+04
 0.63499994E+01 -0.37087E+04
 0.63999996E+01 -0.36945E+04
 0.64499998E+01 -0.36903E+04
 0.64999990E+01 -0.36871E+04
 0.65499992E+01 -0.36833E+04
 0.65999994E+01 -0.36814E+04
 0.66499996E+01 -0.36848E+04
 0.66999998E+01 -0.36892E+04
 0.67499990E+01 -0.36894E+04
 0.67999992E+01 -0.36960E+04
 0.68499994E+01 -0.37047E+04
 0.68999996E+01 -0.37178E+04
 0.69499998E+01 -0.37302E+04
 0.69999990E+01 -0.37359E+04
 0.70499992E+01 -0.37390E+04
 0.70999994E+01 -0.37376E+04
 0.71499996E+01 -0.37275E+04
 0.71999998E+01 -0.37133E+04
 0.72499990E+01 -0.37127E+04
 0.72999992E+01 -0.37206E+04
 0.73499994E+01 -0.37331E+04
 0.73999996E+01 -0.37397E+04
 0.74499998E+01 -0.37337E+04
 0.74999990E+01 -0.37380E+04
 0.75499992E+01 -0.37356E+04
 0.75999994E+01 -0.37335E+04
 0.76499996E+01 -0.37380E+04
 0.76999998E+01 -0.37365E+04
 0.77499990E+01 -0.37386E+04
 0.77999992E+01 -0.37463E+04
 0.78499994E+01 -0.37500E+04
 0.78999996E+01 -0.37548E+04
 0.79499998E+01 -0.37584E+04
 0.79999990E+01 -0.37513E+04
 0.80499992E+01 -0.37507E+04
 0.80999994E+01 -0.37528E+04
 0.81499996E+01 -0.37516E+04
 0.81999998E+01 -0.37550E+04
 0.82499990E+01 -0.37639E+04
 0.82999992E+01 -0.37682E+04
 0.83499994E+01 -0.37696E+04
 0.83999996E+01 -0.37740E+04
 0.84499998E+01 -0.37786E+04
 0.84999990E+01 -0.37791E+04
 0.85499992E+01 -0.37666E+04
 0.85999994E+01 -0.37559E+04
 0.86499996E+01 -0.37565E+04
 0.86999998E+01 -0.37527E+04
 0.87499990E+01 -0.37457E+04
 0.87999992E+01 -0.37404E+04
 0.88499994E+01 -0.37347E+04
 0.88999996E+01 -0.37201E+04
 0.89499998E+01 -0.37089E+04
 0.89999990E+01 -0.37089E+04
 0.90499992E+01 -0.37050E+04
 0.90999994E+01 -0.36964E+04
 0.91499996E+01 -0.36928E+04
 0.91999989E+01 -0.36972E+04
 0.92499990E+01 -0.37026E+04
 0.92999992E+01 -0.37080E+04
 0.93499994E+01 -0.37078E+04
 0.93999996E+01 -0.37060E+04
 0.94499989E+01 -0.37051E+04
 0.94999990E+01 -0.37079E+04
 0.95499992E+01 -0.37136E+04
 0.95999994E+01 -0.37271E+04
 0.96499996E+01 -0.37346E+04
 0.96999989E+01 -0.37359E+04
 0.97499990E+01 -0.37463E+04
 0.97999992E+01 -0.37565E+04
 0.98499994E+01 -0.37683E+04
 0.98999996E+01 -0.37793E+04
 0.99499989E+01 -0.37808E+04
 0.99999990E+01 -0.37751E+04
 0.10049999E+02 -0.37761E+04
 0.10099999E+02 -0.37691E+04
 0.10150000E+02 -0.37630E+04
 0.10199999E+02 -0.37657E+04
 0.10249999E+02 -0.37702E+04
 0.10299999E+02 -0.37706E+04
 0.10349999E+02 -0.37602E+04
 0.10400000E+02 -0.37482E+04
 0.10449999E+02 -0.37375E+04
 0.10499999E+02 -0.37280E+04
 0.10549999E+02 -0.37143E+04
 0.10599999E+02 -0.37036E+04
 0.10650000E+02 -0.37029E+04
 0.10699999E+02 -0.37026E+04
 0.10749999E+02 -0.37045E+04
 0.10799999E+02 -0.37009E+04
 0.10849999E+02 -0.36899E+04
 0.10900000E+02 -0.36902E+04
 0.10949999E+02 -0.36917E+04
 0.10999999E+02 -0.36943E+04
 0.11049999E+02 -0.36983E+04
 0.11099999E+02 -0.37026E+04
 0.11150000E+02 -0.37086E+04
 0.11199999E+02 -0.37067E+04
 0.11249999E+02 -0.37048E+04
 0.11299999E+02 -0.37092E+04
 0.11349999E+02 -0.37200E+04
 0.11400000E+02 -0.37253E+04
 0.11449999E+02 -0.37190E+04
 0.11499999E+02 -0.37200E+04
 0.11549999E+02 -0.37284E+04
 0.11599999E+02 -0.37431E+04
 0.11650000E+02 -0.37566E+04
 0.11699999E+02 -0.37621E+04
 0.11749999E+02 -0.37610E+04
 0.11799999E+02 -0.37614E+04
 0.11849999E+02 -0.37607E+04
 0.11900000E+02 -0.37638E+04
 0.11949999E+02 -0.37699E+04
 0.11999999E+02 -0.37652E+04
 0.12049999E+02 -0.37690E+04
 0.12099999E+02 -0.37732E+04
 0.12150000E+02 -0.37745E+04
 0.12199999E+02 -0.37767E+04
 0.12249999E+02 -0.37798E+04
 0.12299999E+02 -0.37754E+04
 0.12349999E+02 -0.37693E+04
 0.12400000E+02 -0.37622E+04
 0.12449999E+02 -0.37551E+04
 0.12499999E+02 -0.37544E+04
 0.12549999E+02 -0.37476E+04
 0.12599999E+02 -0.37444E+04
 0.12649999E+02 -0.37323E+04
 0.12699999E+02 -0.37235E+04
 0.12749999E+02 -0.37230E+04
 0.12799999E+02 -0.37166E+04
 0.12849999E+02 -0.37067E+04
 0.12899999E+02 -0.37025E+04
 0.12949999E+02 -0.36945E+04
 0.12999999E+02 -0.36946E+04
 0.13049999E+02 -0.37096E+04
 0.13099999E+02 -0.37175E+04
 0.13149999E+02 -0.37226E+04
 0.13199999E+02 -0.37138E+04
 0.13249999E+02 -0.37095E+04
 0.13299999E+02 -0.37105E+04
 0.13349999E+02 -0.37147E+04
 0.13399999E+02 -0.37157E+04
 0.13449999E+02 -0.37187E+04
 0.13499999E+02 -0.37239E+04
 0.13549999E+02 -0.37289E+04
 0.13599999E+02 -0.37302E+04
 0.13649999E+02 -0.37195E+04
 0.13699999E+02 -0.37294E+04
 0.13749999E+02 -0.37386E+04
 0.13799999E+02 -0.37338E+04
 0.13849999E+02 -0.37470E+04
 0.13899999E+02 -0.37503E+04
 0.13949999E+02 -0.37456E+04
 0.13999999E+02 -0.37413E+04
 0.14049999E+02 -0.37409E+04
 0.14099998E+02 -0.37466E+04
 0.14150000E+02 -0.37354E+04
 0.14199999E+02 -0.37640E+04
 0.14249998E+02 -0.37424E+04
 0.14299999E+02 -0.37401E+04
 0.14349998E+02 -0.37792E+04
 0.14400000E+02 -0.37115E+04
 0.14449999E+02 -0.37561E+04
 0.14499998E+02 -0.37307E+04
 0.14549999E+02 -0.36731E+04
 0.14599998E+02 -0.37447E+04
 0.14650000E+02 -0.37340E+04
 0.14699999E+02 -0.37062E+04
 0.14749998E+02 -0.37073E+04
 0.14799999E+02 -0.37364E+04
 0.14849998E+02 -0.36796E+04
 0.14900000E+02 -0.37291E+04
 0.14949999E+02 -0.37591E+04
 0.14999998E+02 -0.36769E+04
 0.15049999E+02 -0.37455E+04
 0.15099998E+02 -0.37296E+04
 0.15150000E+02 -0.36818E+04
 0.15199999E+02 -0.37650E+04
 0.15249998E+02 -0.36911E+04
 0.15299999E+02 -0.37648E+04
 0.15349998E+02 -0.38774E+04
 0.15400000E+02 -0.37399E+04
 0.15449999E+02 -0.35206E+04
 0.15499998E+02 -0.34989E+04
 0.15549999E+02 -0.38356E+04
 0.15599998E+02 -0.37443E+04
 0.15650000E+02 -0.32182E+04
 0.15699999E+02 -0.40784E+04
 0.15749998E+02 -0.43052E+04
 0.15799999E+02 -0.35238E+04
 0.15849998E+02 -0.38751E+04
 0.15900000E+02 -0.35843E+04
 0.15949999E+02 -0.40461E+04
 0.15999998E+02 -0.32987E+04
 0.16049999E+02 -0.42038E+04
 0.16099998E+02 -0.46207E+04
 0.16150000E+02 -0.19215E+04
 0.16199999E+02 -0.37712E+04
 0.16249998E+02 -0.42274E+04
 0.16299999E+02 -0.43606E+04
 0.16349998E+02 -0.33495E+04
 0.16400000E+02 -0.31568E+04
 0.16449999E+02 -0.53967E+04
 0.16499998E+02 -0.35337E+04
 0.16549999E+02 -0.30402E+04
 0.16599998E+02 -0.41053E+04
 0.16650000E+02 -0.37165E+04
 0.16699999E+02 -0.27564E+04
 0.16749998E+02 -0.46515E+04
 0.16799999E+02 -0.32086E+04
 0.16849998E+02 -0.19144E+04
 0.16900000E+02 -0.54428E+04
 0.16949999E+02 -0.59112E+04
 0.16999998E+02 -0.38445E+04
 0.17049999E+02 -0.28547E+04
 0.17099998E+02 -0.29779E+04
 0.17150000E+02 -0.45827E+04
 0.17199999E+02 -0.48203E+04
 0.17249998E+02 -0.17369E+04
 0.17299999E+02 -0.42914E+04
 0.17349998E+02 -0.27458E+04
 0.17400000E+02 -0.31797E+04
 0.17449999E+02 -0.33975E+04
 0.17499998E+02 -0.28561E+04
 0.17549999E+02 -0.77605E+04
 0.17599998E+02 -0.18162E+04
 0.17650000E+02 -0.11922E+04
 0.17699999E+02 -0.90586E+04
 0.17749998E+02 -0.40467E+04
 0.17799999E+02 -0.39264E+04
 0.17849998E+02 -0.87335E+03
 0.17900000E+02  0.22597E+04
 0.17949999E+02 -0.50049E+04
 0.17999998E+02 -0.86578E+04
 0.18049999E+02 -0.56027E+04
 0.18099998E+02 -0.20941E+04
 0.18150000E+02 -0.32312E+04
 0.18199999E+02  0.79564E+03
 0.18249998E+02 -0.51237E+04
 0.18299999E+02 -0.84561E+04
 0.18349998E+02 -0.40403E+04
 0.18400000E+02 -0.70259E+04
 0.18449999E+02 -0.22807E+04
 0.18499998E+02  0.16295E+04
 0.18549999E+02 -0.79053E+04
 0.18599998E+02 -0.28665E+04
 0.18650000E+02  0.13595E+04
 0.18699999E+02 -0.44791E+04
 0.18749998E+02 -0.40342E+04
 0.18799999E+02 -0.36995E+04
 0.18849998E+02 -0.67646E+04
 0.18900000E+02 -0.28022E+04
 0.18949999E+02 -0.28375E+04
 0.18999998E+02 -0.46919E+04
 0.19049999E+02 -0.25956E+04
 0.19099998E+02 -0.55494E+04
 0.19150000E+02 -0.39593E+04
 0.19199999E+02 -0.19214E+04
 0.19249998E+02 -0.24506E+04
 0.19299999E+02 -0.31470E+04
 0.19349998E+02 -0.18833E+04
 0.19400000E+02 -0.65562E+04
 0.19449999E+02 -0.48261E+04
 0.19499998E+02 -0.11088E+04
 0.19549999E+02 -0.33433E+04
 0.19599998E+02 -0.71595E+04
 0.19650000E+02 -0.99411E+04
 0.19699999E+02 -0.20503E+04
 0.19749998E+02  0.78729E+03
 0.19799999E+02 -0.42696E+04
 0.19849998E+02 -0.35620E+04
 0.19900000E+02 -0.21196E+04
 0.19949999E+02 -0.62299E+04
 0.19999998E+02 -0.30404E+04
 0.20049999E+02  0.16360E+04
 0.20099998E+02 -0.61363E+04
 0.20150000E+02 -0.70542E+04
 0.20199999E+02 -0.46294E+04
 0.20249998E+02 -0.39867E+04
 0.20299999E+02 -0.49117E+03
 0.20349998E+02 -0.16149E+04
 0.20399998E+02 -0.24431E+04
 0.20449999E+02 -0.65385E+04
 0.20499998E+02 -0.71500E+04
 0.20549999E+02 -0.29483E+04
 0.20599998E+02  0.85837E+03
 0.20649998E+02 -0.12216E+04
 0.20699999E+02 -0.10901E+05
 0.20749998E+02 -0.55595E+04
 0.20799999E+02  0.12503E+04
 0.20849998E+02 -0.65517E+04
 0.20899998E+02 -0.47347E+04
 0.20949999E+02 -0.97990E+03
 0.20999998E+02 -0.70779E+04
 0.21049999E+02 -0.37086E+04
 0.21099998E+02 -0.23834E+04
 0.21149998E+02 -0.29017E+04
 0.21199999E+02 -0.73984E+03
 0.21249998E+02 -0.88119E+04
 0.21299999E+02 -0.12519E+04
 0.21349998E+02  0.82045E+03
 0.21399998E+02 -0.93945E+04
 0.21449999E+02 -0.63698E+04
 0.21499998E+02 -0.25479E+04
 0.21549999E+02 -0.53888E+03
 0.21599998E+02 -0.16174E+04
 0.21649998E+02 -0.68381E+04
 0.21699999E+02 -0.76480E+04
 0.21749998E+02 -0.50335E+04
 0.21799999E+02  0.15570E+04
 0.21849998E+02  0.98110E+03
 0.21899998E+02 -0.29932E+04
 0.21949999E+02 -0.38942E+04
 0.21999998E+02 -0.75155E+04
 0.22049999E+02 -0.64761E+04
 0.22099998E+02 -0.97667E+04
 0.22149998E+02 -0.13642E+04
 0.22199999E+02  0.14021E+04
 0.22249998E+02 -0.41953E+04
 0.22299999E+02 -0.56395E+04
 0.22349998E+02 -0.45259E+04
 0.22399998E+02  0.27871E+04
 0.22449999E+02 -0.40382E+04
 0.22499998E+02 -0.42553E+04
 0.22549999E+02 -0.53685E+04
 0.22599998E+02 -0.86791E+04
 0.22649998E+02 -0.32137E+04
 0.22699999E+02 -0.44457E+04
 0.22749998E+02 -0.60247E+04
 0.22799999E+02 -0.25734E+04
 0.22849998E+02 -0.24204E+04
 0.22899998E+02 -0.21445E+04
 0.22949999E+02  0.29832E+03
 0.22999998E+02 -0.16435E+04
 0.23049999E+02 -0.62458E+04
 0.23099998E+02 -0.51021E+01
 0.23149998E+02 -0.70937E+04
 0.23199999E+02 -0.10974E+05
 0.23249998E+02  0.99797E+03
 0.23299999E+02 -0.42413E+04
 0.23349998E+02 -0.38915E+04
 0.23399998E+02 -0.44515E+04
 0.23449999E+02 -0.43536E+04
 0.23499998E+02 -0.15184E+04
 0.23549999E+02 -0.50491E+03
 0.23599998E+02 -0.41229E+04
 0.23649998E+02  0.18677E+02
 0.23699999E+02 -0.17411E+04
 0.23749998E+02 -0.80127E+04
 0.23799999E+02 -0.17438E+04
 0.23849998E+02 -0.60489E+04
 0.23899998E+02 -0.77984E+04
 0.23949999E+02 -0.26793E+04
 0.23999998E+02 -0.28587E+04
 0.24049999E+02 -0.15582E+04
 0.24099998E+02 -0.56696E+04
 0.24149998E+02 -0.74103E+04
 0.24199999E+02 -0.62699E+03
 0.24249998E+02 -0.15469E+03
 0.24299999E+02 -0.34796E+04
 0.24349998E+02 -0.60900E+04
 0.24399998E+02 -0.28200E+04
 0.24449999E+02 -0.42413E+04
 0.24499998E+02 -0.45987E+04
 0.24549999E+02 -0.51036E+04
 0.24599998E+02 -0.58096E+04
 0.24649998E+02 -0.31768E+04
 0.24699999E+02 -0.27490E+04
 0.24749998E+02 -0.88659E+03
 0.24799999E+02 -0.47154E+04
 0.24849998E+02 -0.55934E+04
 0.24899998E+02 -0.27032E+04
 0.24949999E+02 -0.13902E+04
 0.24999998E+02 -0.16024E+04
 0.25049999E+02 -0.42761E+04
 0.25099998E+02 -0.49669E+04
 0.25149998E+02 -0.21052E+04
 0.25199999E+02 -0.56949E+04
 0.25249998E+02 -0.72345E+04
 0.25299999E+02 -0.47320E+04
 0.25349998E+02 -0.87833E+04
 0.25399998E+02 -0.55191E+04
 0.25449999E+02 -0.29079E+04
 0.25499998E+02 -0.13377E+03
 0.25549999E+02  0.33266E+04
 0.25599998E+02 -0.42770E+04
 0.25649998E+02 -0.84262E+04
 0.25699999E+02 -0.30915E+04
 0.25749998E+02 -0.87444E+04
 0.25799999E+02 -0.70849E+04
 0.25849998E+02  0.50996E+04
 0.25899998E+02 -0.64179E+04
 0.25949999E+02 -0.40119E+04
 0.25999998E+02  0.57507E+04
 0.26049999E+02 -0.50328E+04
 0.26099998E+02 -0.78828E+04
 0.26149998E+02 -0.73581E+04
 0.26199999E+02 -0.10990E+05
 0.26249998E+02 -0.13761E+05
 0.26299999E+02 -0.14812E+04
 0.26349998E+02  0.71081E+04
 0.26399998E+02  0.84160E+04
 0.26449999E+02 -0.79506E+04
 0.26499998E+02 -0.15591E+05
 0.26549999E+02 -0.15665E+04
 0.26599998E+02 -0.69554E+03
 0.26649998E+02 -0.53343E+04
 0.26699999E+02 -0.17443E+05
 0.26749998E+02 -0.20196E+05
 0.26799999E+02 -0.51006E+04
 0.26849998E+02  0.24966E+05
 0.26899998E+02  0.36171E+05
 0.26949999E+02 -0.57178E+04
 0.26999998E+02 -0.49462E+05
 0.27049997E+02 -0.33452E+05
 0.27099998E+02  0.10170E+05
 0.27149998E+02  0.16403E+05
 0.27199999E+02  0.80228E+03
 0.27249998E+02 -0.58758E+03
 0.27299997E+02 -0.73448E+04
 0.27349998E+02 -0.38896E+04
 0.27399998E+02  0.12623E+05
 0.27449999E+02  0.13105E+03
 0.27499998E+02 -0.35762E+05
 0.27549997E+02 -0.13824E+05
 0.27599998E+02  0.15973E+05
 0.27649998E+02  0.93289E+04
 0.27699999E+02  0.12264E+03
 0.27749998E+02 -0.15282E+05
 0.27799997E+02 -0.20000E+05
 0.27849998E+02 -0.51461E+04
 0.27899998E+02  0.92790E+04
 0.27949999E+02  0.96461E+03
 0.27999998E+02  0.89767E+03
 0.28049997E+02 -0.14070E+05
 0.28099998E+02 -0.99786E+04
 0.28149998E+02  0.88815E+04
 0.28199999E+02  0.24781E+05
 0.28249998E+02 -0.61879E+04
 0.28299997E+02 -0.43816E+05
 0.28349998E+02 -0.25161E+05
 0.28399998E+02 -0.95005E+04
 0.28449999E+02  0.26422E+05
 0.28499998E+02  0.29014E+05
 0.28549997E+02  0.11035E+05
 0.28599998E+02 -0.17133E+05
 0.28649998E+02 -0.27733E+05
 0.28699999E+02 -0.19894E+05
 0.28749998E+02 -0.41267E+04
 0.28799997E+02  0.15240E+05
 0.28849998E+02 -0.28947E+04
 0.28899998E+02  0.19650E+05
 0.28949999E+02  0.17123E+05
 0.28999998E+02 -0.22395E+05
 0.29049997E+02 -0.27636E+05
 0.29099998E+02 -0.27415E+05
 0.29149998E+02 -0.24612E+04
 0.29199999E+02  0.26897E+05
 0.29249998E+02  0.14629E+04
 0.29299997E+02 -0.15928E+05
 0.29349998E+02 -0.65021E+04
 0.29399998E+02 -0.68923E+04
 0.29449999E+02  0.19796E+05
 0.29499998E+02  0.98923E+04
 0.29549997E+02 -0.18254E+05
 0.29599998E+02 -0.17474E+05
 0.29649998E+02 -0.18839E+05
 0.29699999E+02  0.30288E+04
 0.29749998E+02  0.23841E+05
 0.29799997E+02  0.76050E+04
 0.29849998E+02 -0.20958E+05
 0.29899998E+02 -0.24583E+05
 0.29949999E+02 -0.12728E+05
 0.29999998E+02  0.11454E+05
 0.30049999E+02  0.17118E+05
 0.30099998E+02  0.19983E+04
 0.30149998E+02 -0.16044E+05
 0.30199997E+02 -0.10346E+05
 0.30249996E+02 -0.84006E+04
 0.30299999E+02 -0.65491E+04
 0.30349998E+02 -0.20711E+04
 0.30399998E+02 -0.12832E+03
 0.30449997E+02  0.75855E+04
 0.30499996E+02 -0.11381E+05
 0.30549999E+02 -0.10343E+05
 0.30599998E+02 -0.13647E+05
 0.30649998E+02 -0.44124E+04
 0.30699997E+02  0.39587E+04
 0.30749996E+02 -0.56549E+04
 0.30799999E+02  0.51788E+03
 0.30849998E+02 -0.87034E+04
 0.30899998E+02 -0.69320E+04
 0.30949997E+02  0.41138E+03
 0.30999996E+02  0.28830E+04
 0.31049999E+02  0.42482E+04
 0.31099998E+02 -0.61630E+04
 0.31149998E+02 -0.29675E+04
 0.31199997E+02  0.20393E+04
 0.31249996E+02 -0.49240E+04
 0.31299999E+02 -0.13942E+05
 0.31349998E+02 -0.15938E+05
 0.31399998E+02  0.79505E+03
 0.31449997E+02  0.53302E+04
 0.31499996E+02  0.20025E+04
 0.31549999E+02  0.63971E+04
 0.31599998E+02 -0.25461E+04
 0.31649998E+02 -0.37527E+04
 0.31699997E+02 -0.25326E+04
 0.31749996E+02 -0.31082E+04
 0.31799999E+02 -0.17331E+05
 0.31849998E+02 -0.23585E+05
 0.31899998E+02 -0.62287E+04
 0.31949997E+02  0.49614E+04
 0.31999996E+02  0.57802E+04
 0.32049999E+02  0.70034E+03
 0.32099998E+02  0.50800E+03
 0.32149998E+02  0.28267E+03
 0.32199997E+02 -0.59266E+03
 0.32249996E+02 -0.86972E+04
 0.32299999E+02 -0.13094E+05
 0.32349998E+02 -0.13620E+05
 0.32399998E+02 -0.12276E+05
 0.32449997E+02 -0.16777E+04
 0.32499996E+02 -0.45082E+03
 0.32549999E+02 -0.66234E+04
 0.32599998E+02 -0.13602E+05
 0.32649998E+02 -0.25046E+04
 0.32699997E+02  0.64860E+04
 0.32749996E+02  0.23714E+04
 0.32799999E+02  0.18378E+04
 0.32849998E+02 -0.93509E+04
 0.32899998E+02 -0.38969E+04
 0.32949997E+02  0.12367E+04
 0.32999996E+02  0.76515E+03
 0.33049999E+02 -0.14683E+04
 0.33099998E+02 -0.15232E+05
 0.33149998E+02 -0.13103E+05
 0.33199997E+02 -0.34663E+04
 0.33249996E+02 -0.28211E+04
 0.33299999E+02 -0.95661E+04
 0.33349998E+02 -0.58747E+04
 0.33399998E+02 -0.44112E+03
 0.33449997E+02  0.11089E+03
 0.33499996E+02  0.56386E+04
 0.33549999E+02 -0.87126E+03
 0.33599998E+02 -0.62744E+04
 0.33649998E+02 -0.32993E+04
 0.33699997E+02 -0.45056E+04
 0.33749996E+02 -0.73515E+04
 0.33799999E+02 -0.34975E+04
 0.33849998E+02 -0.87847E+04
 0.33899998E+02 -0.94289E+04
 0.33949997E+02 -0.39721E+04
 0.33999996E+02  0.10044E+04
 0.34049999E+02  0.65452E+04
 0.34099998E+02 -0.30788E+04
 0.34149998E+02 -0.49791E+04
 0.34199997E+02 -0.15099E+04
 0.34249996E+02 -0.44737E+04
 0.34299999E+02 -0.52555E+04
 0.34349998E+02 -0.17718E+04
 0.34399998E+02 -0.46971E+04
 0.34449997E+02 -0.97812E+04
 0.34499996E+02 -0.10689E+05
 0.34549999E+02 -0.58601E+04
 0.34599998E+02 -0.56247E+04
 0.34649998E+02 -0.10151E+05
 0.34699997E+02 -0.69987E+04
 0.34749996E+02  0.84161E+04
 0.34799999E+02  0.93229E+04
 0.34849998E+02  0.43364E+03
 0.34899998E+02 -0.55677E+04
 0.34949997E+02 -0.11285E+05
 0.34999996E+02 -0.10287E+05
 0.35049999E+02 -0.70242E+04
 0.35099998E+02 -0.40235E+04
 0.35149998E+02 -0.51385E+04
 0.35199997E+02 -0.48958E+04
 0.35249996E+02 -0.32800E+04
 0.35299999E+02  0.83541E+02
 0.35349998E+02  0.46518E+03
 0.35399998E+02 -0.53606E+03
 0.35449997E+02 -0.16491E+04
 0.35499996E+02 -0.43010E+04
 0.35549999E+02 -0.16901E+04
 0.35599998E+02 -0.23751E+04
 0.35649998E+02 -0.40107E+04
 0.35699997E+02 -0.94186E+03
 0.35749996E+02 -0.63238E+04
 0.35799999E+02 -0.47587E+04
 0.35849998E+02 -0.36540E+04
 0.35899998E+02 -0.53778E+04
 0.35949997E+02 -0.54369E+04
 0.35999996E+02 -0.42404E+04
 0.36049999E+02 -0.36282E+03
 0.36099998E+02  0.62752E+03
 0.36149998E+02  0.20368E+04
 0.36199997E+02  0.24704E+03
 0.36249996E+02 -0.35753E+04
 0.36299999E+02 -0.11662E+05
 0.36349998E+02 -0.89718E+04
 0.36399998E+02 -0.22725E+04
 0.36449997E+02 -0.23854E+04
 0.36499996E+02  0.11722E+04
 0.36549999E+02  0.35266E+04
 0.36599998E+02 -0.92480E+03
 0.36649998E+02 -0.57795E+04
 0.36699997E+02 -0.11381E+05
 0.36749996E+02 -0.94484E+04
 0.36799999E+02 -0.49564E+04
 0.36849998E+02 -0.71081E+04
 0.36899998E+02 -0.81696E+04
 0.36949997E+02 -0.33879E+04
 0.36999996E+02 -0.55763E+03
 0.37049999E+02  0.14143E+03
 0.37099998E+02  0.39178E+04
 0.37149998E+02 -0.31662E+04
 0.37199997E+02 -0.72420E+04
 0.37249996E+02 -0.12286E+05
 0.37299999E+02 -0.12517E+05
 0.37349998E+02 -0.29544E+04
 0.37399998E+02  0.36939E+04
 0.37449997E+02  0.85809E+04
 0.37499996E+02  0.89226E+04
 0.37549999E+02  0.65921E+04
 0.37599998E+02 -0.18705E+04
 0.37649998E+02 -0.68822E+04
 0.37699997E+02 -0.75817E+04
 0.37749996E+02 -0.68198E+04
 0.37799999E+02 -0.41787E+04
 0.37849998E+02 -0.61220E+04
 0.37899998E+02 -0.87997E+04
 0.37949997E+02 -0.15523E+05
 0.37999996E+02 -0.14336E+05
 0.38049999E+02 -0.71688E+04
 0.38099998E+02 -0.32333E+04
 0.38149998E+02 -0.25140E+04
 0.38199997E+02 -0.10350E+05
 0.38249996E+02 -0.93499E+04
 0.38299999E+02  0.60389E+03
 0.38349998E+02  0.10669E+05
 0.38399998E+02  0.90933E+04
 0.38449997E+02  0.94809E+03
 0.38499996E+02 -0.87821E+04
 0.38549999E+02 -0.77021E+04
 0.38599998E+02 -0.12603E+04
 0.38649998E+02 -0.22116E+04
 0.38699997E+02 -0.71891E+03
 0.38749996E+02 -0.50799E+04
 0.38799999E+02 -0.84731E+04
 0.38849998E+02 -0.12424E+05
 0.38899998E+02 -0.10916E+05
 0.38949997E+02 -0.45392E+04
 0.38999996E+02 -0.34344E+04
 0.39049999E+02 -0.25032E+04
 0.39099998E+02 -0.13893E+04
 0.39149998E+02  0.24857E+03
 0.39199997E+02 -0.15017E+04
 0.39249996E+02 -0.19455E+04
 0.39299999E+02 -0.53659E+04
 0.39349998E+02 -0.13030E+05
 0.39399998E+02 -0.14352E+05
 0.39449997E+02 -0.88079E+04
 0.39499996E+02 -0.35477E+04
 0.39549999E+02 -0.19914E+04
 0.39599998E+02 -0.28758E+03
 0.39649998E+02 -0.35546E+03
 0.39699997E+02 -0.38912E+04
 0.39749996E+02 -0.97615E+04
 0.39799999E+02 -0.73252E+04
 0.39849998E+02  0.10802E+04
 0.39899998E+02  0.84481E+04
 0.39949997E+02  0.80098E+04
 0.39999996E+02 -0.20019E+04
 0.40049999E+02 -0.11767E+05
 0.40099998E+02 -0.16390E+05
 0.40149998E+02 -0.13157E+05
 0.40199997E+02 -0.82667E+04
 0.40249996E+02 -0.59577E+04
 0.40299999E+02 -0.37613E+04
 0.40349998E+02 -0.42376E+04
 0.40399998E+02 -0.41551E+04
 0.40449997E+02  0.43015E+03
 0.40499996E+02  0.38864E+04
 0.40549999E+02  0.78368E+04
 0.40599998E+02  0.84693E+04
 0.40649998E+02  0.40828E+04
 0.40699997E+02  0.16149E+04
 0.40749996E+02 -0.25724E+04
 0.40799999E+02 -0.92146E+04
 0.40849998E+02 -0.13032E+05
 0.40899998E+02 -0.11497E+05
 0.40949997E+02 -0.97314E+04
 0.40999996E+02 -0.65575E+04
 0.41049999E+02 -0.62874E+03
 0.41099998E+02 -0.44581E+03
 0.41149998E+02 -0.26093E+04
 0.41199997E+02  0.47008E+03
 0.41249996E+02  0.14240E+04
 0.41299999E+02  0.12535E+04
 0.41349998E+02 -0.36716E+03
 0.41399998E+02 -0.61033E+04
 0.41449997E+02 -0.73605E+04
 0.41499996E+02 -0.95366E+04
 0.41549999E+02 -0.82193E+04
 0.41599998E+02 -0.17364E+04
 0.41649998E+02  0.11073E+04
 0.41699997E+02  0.42040E+03
 0.41749996E+02 -0.28937E+04
 0.41799999E+02 -0.38534E+04
 0.41849998E+02 -0.34843E+04
 0.41899998E+02 -0.42199E+04
 0.41949997E+02 -0.32715E+04
 0.41999996E+02 -0.50005E+04
 0.42049999E+02 -0.68525E+04
 0.42099998E+02 -0.44307E+04
 0.42149998E+02 -0.18668E+04
 0.42199997E+02 -0.27447E+04
 0.42249996E+02 -0.57993E+04
 0.42299999E+02 -0.56386E+04
 0.42349998E+02 -0.64742E+04
 0.42399998E+02 -0.39722E+04
 0.42449997E+02  0.11194E+04
 0.42499996E+02 -0.43184E+04
 0.42549999E+02 -0.89425E+04
 0.42599998E+02 -0.43808E+04
 0.42649998E+02  0.63565E+03
 0.42699997E+02 -0.88853E+03
 0.42749996E+02 -0.46761E+04
 0.42799995E+02 -0.58686E+04
 0.42849998E+02 -0.58807E+04
 0.42899998E+02 -0.39099E+04
 0.42949997E+02 -0.45546E+04
 0.42999996E+02 -0.70324E+04
 0.43049995E+02 -0.84369E+04
 0.43099998E+02 -0.11816E+05
 0.43149998E+02 -0.92128E+04
 0.43199997E+02 -0.13808E+04
 0.43249996E+02  0.13133E+04
 0.43299995E+02 -0.12254E+04
 0.43349998E+02 -0.26485E+04
 0.43399998E+02  0.17693E+04
 0.43449997E+02  0.44065E+04
 0.43499996E+02  0.13936E+04
 0.43549995E+02 -0.42874E+04
 0.43599998E+02 -0.78187E+04
 0.43649998E+02 -0.75332E+04
 0.43699997E+02 -0.34391E+04
 0.43749996E+02  0.97783E+03
 0.43799995E+02  0.28462E+04
 0.43849998E+02  0.19266E+04
 0.43899998E+02 -0.20796E+02
 0.43949997E+02 -0.98329E+02
 0.43999996E+02 -0.10614E+03
 0.44049995E+02 -0.33467E+03
 0.44099998E+02 -0.22997E+04
 0.44149998E+02 -0.38167E+04
 0.44199997E+02 -0.53358E+04
 0.44249996E+02 -0.69861E+04
 0.44299995E+02 -0.94336E+04
 0.44349998E+02 -0.10894E+05
 0.44399998E+02 -0.76881E+04
 0.44449997E+02 -0.52674E+04
 0.44499996E+02 -0.54692E+04
 0.44549995E+02 -0.80083E+04
 0.44599998E+02 -0.80056E+04
 0.44649998E+02 -0.50471E+04
 0.44699997E+02 -0.42615E+04
 0.44749996E+02 -0.43943E+04
 0.44799995E+02 -0.53932E+04
 0.44849998E+02 -0.79205E+04
 0.44899998E+02 -0.10203E+05
 0.44949997E+02 -0.75635E+04
 0.44999996E+02 -0.36709E+04
 0.45049995E+02  0.23380E+03
 0.45099998E+02  0.50594E+03
 0.45149998E+02 -0.20688E+04
 0.45199997E+02 -0.28764E+04
 0.45249996E+02 -0.88275E+03
 0.45299995E+02  0.19982E+04
 0.45349998E+02  0.12607E+04
 0.45399998E+02 -0.53918E+03
 0.45449997E+02 -0.22224E+04
 0.45499996E+02 -0.32976E+04
 0.45549995E+02 -0.45930E+04
 0.45599998E+02 -0.67936E+04
 0.45649998E+02 -0.67158E+04
 0.45699997E+02 -0.41167E+04
 0.45749996E+02 -0.33561E+04
 0.45799995E+02 -0.23298E+04
 0.45849998E+02 -0.24223E+04
 0.45899998E+02 -0.42463E+04
 0.45949997E+02 -0.53547E+04
 0.45999996E+02 -0.65578E+04
 0.46049995E+02 -0.72553E+04
 0.46099998E+02 -0.71809E+04
 0.46149998E+02 -0.71152E+04
 0.46199997E+02 -0.62201E+04
 0.46249996E+02 -0.32485E+04
 0.46299995E+02 -0.26702E+04
 0.46349998E+02 -0.31500E+04
 0.46399998E+02 -0.30081E+04
 0.46449997E+02 -0.48255E+04
 0.46499996E+02 -0.35894E+04
 0.46549995E+02 -0.11438E+04
 0.46599998E+02 -0.14770E+04
 0.46649998E+02 -0.11642E+04
 0.46699997E+02 -0.24879E+03
 0.46749996E+02 -0.16828E+04
 0.46799995E+02 -0.17861E+04
 0.46849998E+02 -0.30878E+04
 0.46899998E+02 -0.51679E+04
 0.46949997E+02 -0.41417E+04
 0.46999996E+02 -0.24227E+04
 0.47049995E+02 -0.88345E+02
 0.47099998E+02 -0.38373E+03
 0.47149998E+02 -0.35471E+04
 0.47199997E+02 -0.30757E+04
 0.47249996E+02 -0.29495E+03
 0.47299995E+02 -0.11843E+04
 0.47349998E+02 -0.21798E+04
 0.47399998E+02 -0.18073E+04
 0.47449997E+02 -0.11665E+04
 0.47499996E+02 -0.26035E+04
 0.47549995E+02 -0.34042E+04
 0.47599998E+02 -0.39348E+04
 0.47649998E+02 -0.63588E+04
 0.47699997E+02 -0.65732E+04
 0.47749996E+02 -0.73150E+04
 0.47799995E+02 -0.80337E+04
 0.47849998E+02 -0.72788E+04
 0.47899998E+02 -0.57887E+04
 0.47949997E+02 -0.46423E+04
 0.47999996E+02 -0.51282E+04
 0.48049995E+02 -0.38962E+04
 0.48099998E+02 -0.28421E+04
 0.48149998E+02 -0.33734E+04
 0.48199997E+02 -0.39719E+04
 0.48249996E+02 -0.46207E+04
 0.48299995E+02 -0.38815E+04
 0.48349998E+02 -0.29640E+04
 0.48399998E+02 -0.36241E+04
 0.48449997E+02 -0.62909E+04
 0.48499996E+02 -0.72714E+04
 0.48549995E+02 -0.74360E+04
 0.48599998E+02 -0.68706E+04
 0.48649998E+02 -0.50866E+04
 0.48699997E+02 -0.32217E+04
 0.48749996E+02 -0.16820E+04
 0.48799995E+02 -0.13663E+04
 0.48849998E+02 -0.15557E+04
 0.48899998E+02 -0.39894E+04
 0.48949997E+02 -0.56368E+04
 0.48999996E+02 -0.63507E+04
 0.49049995E+02 -0.63499E+04
 0.49099998E+02 -0.54556E+04
 0.49149998E+02 -0.45566E+04
 0.49199997E+02 -0.51537E+04
 0.49249996E+02 -0.47717E+04
 0.49299995E+02 -0.18147E+04
 0.49349998E+02 -0.70441E+03
 0.49399998E+02 -0.61585E+03
 0.49449997E+02 -0.10889E+04
 0.49499996E+02 -0.16062E+04
 0.49549995E+02 -0.28728E+04
 0.49599998E+02 -0.48005E+04
 0.49649998E+02 -0.53259E+04
 0.49699997E+02 -0.61230E+04
 0.49749996E+02 -0.64993E+04
 0.49799995E+02 -0.44468E+04
 0.49849998E+02 -0.40443E+04
 0.49899998E+02 -0.40782E+04
 0.49949997E+02 -0.36161E+04
 0.49999996E+02 -0.43402E+04
 0.50049995E+02 -0.43418E+04
 0.50099998E+02 -0.31570E+04
 0.50149998E+02 -0.20949E+04
 0.50199997E+02 -0.24425E+04
 0.50249996E+02 -0.30777E+04
 0.50299995E+02 -0.32299E+04
 0.50349998E+02 -0.30196E+04
 0.50399998E+02 -0.27894E+04
 0.50449997E+02 -0.14482E+04
 0.50499996E+02 -0.12233E+04
 0.50549995E+02 -0.24115E+04
 0.50599998E+02 -0.37084E+04
 0.50649998E+02 -0.42166E+04
 0.50699997E+02 -0.32698E+04
 0.50749996E+02 -0.16842E+04
 0.50799995E+02 -0.13193E+04
 0.50849998E+02 -0.25565E+04
 0.50899998E+02 -0.40105E+04
 0.50949997E+02 -0.51336E+04
 0.50999996E+02 -0.35177E+04
 0.51049995E+02 -0.28309E+04
 0.51099998E+02 -0.35707E+04
 0.51149998E+02 -0.40424E+04
 0.51199997E+02 -0.39687E+04
 0.51249996E+02 -0.30105E+04
 0.51299995E+02 -0.20785E+04
 0.51349998E+02 -0.16845E+04
 0.51399998E+02 -0.27284E+04
 0.51449997E+02 -0.37545E+04
 0.51499996E+02 -0.59154E+04
 0.51549995E+02 -0.70728E+04
 0.51599998E+02 -0.51423E+04
 0.51649998E+02 -0.31145E+04
 0.51699997E+02 -0.14887E+04
 0.51749996E+02 -0.22236E+04
 0.51799995E+02 -0.30795E+04
 0.51849998E+02 -0.26880E+04
 0.51899998E+02 -0.39118E+04
 0.51949997E+02 -0.51015E+04
 0.51999996E+02 -0.64637E+04
 0.52049995E+02 -0.69511E+04
 0.52099998E+02 -0.50605E+04
 0.52149998E+02 -0.42978E+04
 0.52199997E+02 -0.42066E+04
 0.52249996E+02 -0.41952E+04
 0.52299995E+02 -0.38958E+04
 0.52349998E+02 -0.15429E+04
 0.52399998E+02 -0.16504E+04
 0.52449997E+02 -0.26695E+04
 0.52499996E+02 -0.30332E+04
 0.52549995E+02 -0.51991E+04
 0.52599998E+02 -0.53616E+04
 0.52649998E+02 -0.36648E+04
 0.52699997E+02 -0.36287E+04
 0.52749996E+02 -0.38421E+04
 0.52799995E+02 -0.31893E+04
 0.52849998E+02 -0.38186E+04
 0.52899998E+02 -0.51267E+04
 0.52949997E+02 -0.53560E+04
 0.52999996E+02 -0.54175E+04
 0.53049995E+02 -0.50243E+04
 0.53099998E+02 -0.53589E+04
 0.53149998E+02 -0.52679E+04
 0.53199997E+02 -0.44774E+04
 0.53249996E+02 -0.34455E+04
 0.53299995E+02 -0.22406E+04
 0.53349998E+02 -0.19005E+04
 0.53399998E+02 -0.25449E+04
 0.53449997E+02 -0.37939E+04
 0.53499996E+02 -0.55866E+04
 0.53549995E+02 -0.63209E+04
 0.53599998E+02 -0.53042E+04
 0.53649998E+02 -0.49364E+04
 0.53699997E+02 -0.46573E+04
 0.53749996E+02 -0.43841E+04
 0.53799995E+02 -0.32933E+04
 0.53849998E+02 -0.14972E+04
 0.53899998E+02 -0.84754E+03
 0.53949997E+02 -0.20930E+04
 0.53999996E+02 -0.30316E+04
 0.54049995E+02 -0.34193E+04
 0.54099998E+02 -0.30891E+04
 0.54149998E+02 -0.29110E+04
 0.54199997E+02 -0.25101E+04
 0.54249996E+02 -0.19979E+04
 0.54299995E+02 -0.21838E+04
 0.54349998E+02 -0.20769E+04
 0.54399998E+02 -0.11990E+04
 0.54449997E+02 -0.66747E+03
 0.54499996E+02 -0.19873E+04
 0.54549995E+02 -0.35097E+04
 0.54599998E+02 -0.45771E+04
 0.54649998E+02 -0.48510E+04
 0.54699997E+02 -0.42145E+04
 0.54749996E+02 -0.40573E+04
 0.54799995E+02 -0.42052E+04
 0.54849998E+02 -0.33693E+04
 0.54899998E+02 -0.38142E+04
 0.54949997E+02 -0.35221E+04
 0.54999996E+02 -0.32802E+04
 0.55049995E+02 -0.40677E+04
 0.55099998E+02 -0.48015E+04
 0.55149998E+02 -0.56383E+04
 0.55199997E+02 -0.55298E+04
 0.55249996E+02 -0.62660E+04
 0.55299995E+02 -0.67251E+04
 0.55349998E+02 -0.65401E+04
 0.55399998E+02 -0.64514E+04
 0.55449997E+02 -0.59303E+04
 0.55499996E+02 -0.49550E+04
 0.55549995E+02 -0.48680E+04
 0.55599998E+02 -0.43490E+04
 0.55649998E+02 -0.36861E+04
 0.55699997E+02 -0.37915E+04
 0.55749996E+02 -0.28808E+04
 0.55799995E+02 -0.30780E+04
 0.55849995E+02 -0.34189E+04
 0.55899998E+02 -0.31103E+04
 0.55949997E+02 -0.32373E+04
 0.55999996E+02 -0.32003E+04
 0.56049995E+02 -0.25391E+04
 0.56099995E+02 -0.17574E+04
 0.56149998E+02 -0.14476E+04
 0.56199997E+02 -0.38672E+03
 0.56249996E+02 -0.19824E+03
 0.56299995E+02 -0.87688E+03
 0.56349995E+02 -0.12677E+04
 0.56399998E+02 -0.17036E+04
 0.56449997E+02 -0.31059E+04
 0.56499996E+02 -0.48147E+04
 0.56549995E+02 -0.50574E+04
 0.56599995E+02 -0.53904E+04
 0.56649998E+02 -0.62512E+04
 0.56699997E+02 -0.64728E+04
 0.56749996E+02 -0.57328E+04
 0.56799995E+02 -0.51862E+04
 0.56849995E+02 -0.43052E+04
 0.56899998E+02 -0.26384E+04
 0.56949997E+02 -0.17461E+04
 0.56999996E+02 -0.27009E+04
 0.57049995E+02 -0.40732E+04
 0.57099995E+02 -0.54115E+04
 0.57149998E+02 -0.54947E+04
 0.57199997E+02 -0.43801E+04
 0.57249996E+02 -0.34955E+04
 0.57299995E+02 -0.18269E+04
 0.57349995E+02 -0.15392E+04
 0.57399998E+02 -0.23312E+04
 0.57449997E+02 -0.32299E+04
 0.57499996E+02 -0.41215E+04
 0.57549995E+02 -0.43939E+04
 0.57599995E+02 -0.49524E+04
 0.57649998E+02 -0.59532E+04
 0.57699997E+02 -0.57352E+04
 0.57749996E+02 -0.49324E+04
 0.57799995E+02 -0.38003E+04
 0.57849995E+02 -0.27070E+04
 0.57899998E+02 -0.32850E+04
 0.57949997E+02 -0.41438E+04
 0.57999996E+02 -0.39829E+04
 0.58049995E+02 -0.32438E+04
 0.58099995E+02 -0.30126E+04
 0.58149998E+02 -0.28366E+04
 0.58199997E+02 -0.26171E+04
 0.58249996E+02 -0.25816E+04
 0.58299995E+02 -0.40262E+04
 0.58349995E+02 -0.56366E+04
 0.58399998E+02 -0.58386E+04
 0.58449997E+02 -0.52616E+04
 0.58499996E+02 -0.44905E+04
 0.58549995E+02 -0.51193E+04
 0.58599995E+02 -0.48101E+04
 0.58649998E+02 -0.35161E+04
 0.58699997E+02 -0.23775E+04
 0.58749996E+02 -0.21292E+04
 0.58799995E+02 -0.23125E+04
 0.58849995E+02 -0.24990E+04
 0.58899998E+02 -0.26871E+04
 0.58949997E+02 -0.23730E+04
 0.58999996E+02 -0.27764E+04
 0.59049995E+02 -0.23205E+04
 0.59099995E+02 -0.17943E+04
 0.59149998E+02 -0.16848E+04
 0.59199997E+02 -0.23705E+04
 0.59249996E+02 -0.42528E+04
 0.59299995E+02 -0.58723E+04
 0.59349995E+02 -0.63931E+04
 0.59399998E+02 -0.67547E+04
 0.59449997E+02 -0.70740E+04
 0.59499996E+02 -0.64963E+04
 0.59549995E+02 -0.51924E+04
 0.59599995E+02 -0.39437E+04
 0.59649998E+02 -0.35412E+04
 0.59699997E+02 -0.33725E+04
 0.59749996E+02 -0.28400E+04
 0.59799995E+02 -0.20269E+04
 0.59849995E+02 -0.22843E+04
 0.59899998E+02 -0.25350E+04
 0.59949997E+02 -0.30536E+04
 0.59999996E+02 -0.35312E+04
 0.60049995E+02 -0.26017E+04
 0.60099995E+02 -0.16178E+04
 0.60149998E+02 -0.92967E+03
 0.60199997E+02 -0.11645E+04
 0.60249996E+02 -0.24151E+04
 0.60299995E+02 -0.34659E+04
 0.60349995E+02 -0.40904E+04
 0.60399998E+02 -0.52309E+04
 0.60449997E+02 -0.62173E+04
 0.60499996E+02 -0.72156E+04
 0.60549995E+02 -0.80879E+04
 0.60599995E+02 -0.85068E+04
 0.60649998E+02 -0.81756E+04
 0.60699997E+02 -0.71093E+04
 0.60749996E+02 -0.55070E+04
 0.60799995E+02 -0.36694E+04
 0.60849995E+02 -0.24675E+04
 0.60899998E+02 -0.14045E+04
 0.60949997E+02 -0.60230E+03
 0.60999996E+02  0.58033E+02
 0.61049995E+02 -0.18558E+03
 0.61099995E+02 -0.11851E+04
 0.61149998E+02 -0.20159E+04
 0.61199997E+02 -0.24781E+04
 0.61249996E+02 -0.30796E+04
 0.61299995E+02 -0.38198E+04
 0.61349995E+02 -0.39763E+04
 0.61399998E+02 -0.41922E+04
 0.61449997E+02 -0.40122E+04
 0.61499996E+02 -0.37038E+04
 0.61549995E+02 -0.37599E+04
 0.61599995E+02 -0.31111E+04
 0.61649998E+02 -0.25051E+04
 0.61699997E+02 -0.24135E+04
 0.61749996E+02 -0.31398E+04
 0.61799995E+02 -0.42015E+04
 0.61849995E+02 -0.44388E+04
 0.61899998E+02 -0.42673E+04
 0.61949997E+02 -0.40609E+04
 0.61999996E+02 -0.43960E+04
 0.62049995E+02 -0.44629E+04
 0.62099998E+02 -0.37114E+04
 0.62149994E+02 -0.31055E+04
 0.62199997E+02 -0.36627E+04
 0.62249992E+02 -0.43269E+04
 0.62299995E+02 -0.40719E+04
 0.62349998E+02 -0.36745E+04
 0.62399994E+02 -0.31949E+04
 0.62449997E+02 -0.28688E+04
 0.62499992E+02 -0.29396E+04
 0.62549995E+02 -0.37664E+04
 0.62599998E+02 -0.50150E+04
 0.62649994E+02 -0.55252E+04
 0.62699997E+02 -0.51535E+04
 0.62749992E+02 -0.37742E+04
 0.62799995E+02 -0.24202E+04
 0.62849998E+02 -0.26299E+04
 0.62899994E+02 -0.32883E+04
 0.62949997E+02 -0.39586E+04
 0.62999992E+02 -0.45243E+04
 0.63049995E+02 -0.40391E+04
 0.63099998E+02 -0.34851E+04
 0.63149994E+02 -0.35691E+04
 0.63199997E+02 -0.35083E+04
 0.63249992E+02 -0.36324E+04
 0.63299995E+02 -0.38179E+04
 0.63349998E+02 -0.38376E+04
 0.63399994E+02 -0.42560E+04
 0.63449997E+02 -0.50792E+04
 0.63499992E+02 -0.61093E+04
 0.63549995E+02 -0.65223E+04
 0.63599998E+02 -0.65473E+04
 0.63649994E+02 -0.65795E+04
 0.63699997E+02 -0.60616E+04
 0.63749992E+02 -0.50587E+04
 0.63799995E+02 -0.38196E+04
 0.63849998E+02 -0.24609E+04
 0.63899994E+02 -0.97960E+03
 0.63949997E+02 -0.18580E+03
 0.63999992E+02 -0.72598E+03
 0.64049995E+02 -0.15493E+04
 0.64099998E+02 -0.23921E+04
 0.64149994E+02 -0.31110E+04
 0.64199997E+02 -0.34354E+04
 0.64249992E+02 -0.36026E+04
 0.64299995E+02 -0.37114E+04
 0.64349998E+02 -0.32420E+04
 0.64399994E+02 -0.32647E+04
 0.64449997E+02 -0.37665E+04
 0.64499992E+02 -0.38458E+04
 0.64549995E+02 -0.40399E+04
 0.64599998E+02 -0.38172E+04
 0.64649994E+02 -0.31174E+04
 0.64699997E+02 -0.25936E+04
 0.64749992E+02 -0.29061E+04
 0.64799995E+02 -0.33875E+04
 0.64849998E+02 -0.41716E+04
 0.64899994E+02 -0.45572E+04
 0.64949997E+02 -0.43428E+04
 0.64999992E+02 -0.42914E+04
 0.65049995E+02 -0.40139E+04
 0.65099998E+02 -0.34631E+04
 0.65149994E+02 -0.32493E+04
 0.65199997E+02 -0.33021E+04
 0.65249992E+02 -0.35033E+04
 0.65299995E+02 -0.43517E+04
 0.65349998E+02 -0.47538E+04
 0.65399994E+02 -0.49748E+04
 0.65449997E+02 -0.51306E+04
 0.65499992E+02 -0.49938E+04
 0.65549995E+02 -0.51268E+04
 0.65599998E+02 -0.56669E+04
 0.65649994E+02 -0.59481E+04
 0.65699997E+02 -0.57550E+04
 0.65749992E+02 -0.48200E+04
 0.65799995E+02 -0.32852E+04
 0.65849998E+02 -0.22442E+04
 0.65899994E+02 -0.21999E+04
 0.65949997E+02 -0.29654E+04
 0.65999992E+02 -0.31656E+04
 0.66049995E+02 -0.25013E+04
 0.66099998E+02 -0.19168E+04
 0.66149994E+02 -0.20548E+04
 0.66199997E+02 -0.26435E+04
 0.66249992E+02 -0.29734E+04
 0.66299995E+02 -0.28794E+04
 0.66349998E+02 -0.28300E+04
 0.66399994E+02 -0.34875E+04
 0.66449997E+02 -0.45605E+04
 0.66499992E+02 -0.52543E+04
 0.66549995E+02 -0.52220E+04
 0.66599998E+02 -0.43683E+04
 0.66649994E+02 -0.35893E+04
 0.66699997E+02 -0.30423E+04
 0.66749992E+02 -0.27231E+04
 0.66799995E+02 -0.26526E+04
 0.66849998E+02 -0.30348E+04
 0.66899994E+02 -0.35026E+04
 0.66949997E+02 -0.36597E+04
 0.66999992E+02 -0.40498E+04
 0.67049995E+02 -0.43043E+04
 0.67099998E+02 -0.42749E+04
 0.67149994E+02 -0.39952E+04
 0.67199997E+02 -0.39355E+04
 0.67249992E+02 -0.38761E+04
 0.67299995E+02 -0.37758E+04
 0.67349998E+02 -0.41676E+04
 0.67399994E+02 -0.39516E+04
 0.67449997E+02 -0.32862E+04
 0.67499992E+02 -0.31664E+04
 0.67549995E+02 -0.32421E+04
 0.67599998E+02 -0.40431E+04
 0.67649994E+02 -0.45718E+04
 0.67699997E+02 -0.45484E+04
 0.67749992E+02 -0.41247E+04
 0.67799995E+02 -0.32556E+04
 0.67849998E+02 -0.25531E+04
 0.67899994E+02 -0.18425E+04
 0.67949997E+02 -0.16391E+04
 0.67999992E+02 -0.20584E+04
 0.68049995E+02 -0.35696E+04
 0.68099998E+02 -0.48502E+04
 0.68149994E+02 -0.51660E+04
 0.68199997E+02 -0.50226E+04
 0.68249992E+02 -0.44561E+04
 0.68299995E+02 -0.42063E+04
 0.68349998E+02 -0.39530E+04
 0.68399994E+02 -0.38652E+04
 0.68449997E+02 -0.38993E+04
 0.68499992E+02 -0.35605E+04
 0.68549995E+02 -0.35272E+04
 0.68599998E+02 -0.33215E+04
 0.68649994E+02 -0.31026E+04
 0.68699997E+02 -0.32184E+04
 0.68749992E+02 -0.34337E+04
 0.68799995E+02 -0.38375E+04
 0.68849998E+02 -0.38604E+04
 0.68899994E+02 -0.41996E+04
 0.68949997E+02 -0.47622E+04
 0.68999992E+02 -0.50231E+04
 0.69049995E+02 -0.50336E+04
 0.69099998E+02 -0.43650E+04
 0.69149994E+02 -0.37463E+04
 0.69199997E+02 -0.34090E+04
 0.69249992E+02 -0.32633E+04
 0.69299995E+02 -0.33788E+04
 0.69349998E+02 -0.34666E+04
 0.69399994E+02 -0.37883E+04
 0.69449997E+02 -0.43477E+04
 0.69499992E+02 -0.45593E+04
 0.69549995E+02 -0.42807E+04
 0.69599998E+02 -0.39837E+04
 0.69649994E+02 -0.40488E+04
 0.69699997E+02 -0.41795E+04
 0.69749992E+02 -0.42485E+04
 0.69799995E+02 -0.44065E+04
 0.69849998E+02 -0.42431E+04
 0.69899994E+02 -0.39572E+04
 0.69949997E+02 -0.37240E+04
 0.69999992E+02 -0.38248E+04
 0.70049995E+02 -0.43822E+04
 0.70099998E+02 -0.48175E+04
 0.70149994E+02 -0.48393E+04
 0.70199997E+02 -0.41731E+04
 0.70249992E+02 -0.31548E+04
 0.70299995E+02 -0.27048E+04
 0.70349998E+02 -0.23826E+04
 0.70399994E+02 -0.21954E+04
 0.70449997E+02 -0.22596E+04
 0.70499992E+02 -0.24691E+04
 0.70549995E+02 -0.28898E+04
 0.70599998E+02 -0.29603E+04
 0.70649994E+02 -0.27071E+04
 0.70699997E+02 -0.24758E+04
 0.70749992E+02 -0.25171E+04
 0.70799995E+02 -0.27503E+04
 0.70849998E+02 -0.32178E+04
 0.70899994E+02 -0.39585E+04
 0.70949997E+02 -0.44573E+04
 0.70999992E+02 -0.43391E+04
 0.71049995E+02 -0.43991E+04
 0.71099998E+02 -0.41989E+04
 0.71149994E+02 -0.36059E+04
 0.71199997E+02 -0.34456E+04
 0.71249992E+02 -0.32387E+04
 0.71299995E+02 -0.28448E+04
 0.71349998E+02 -0.26959E+04
 0.71399994E+02 -0.28033E+04
 0.71449997E+02 -0.30526E+04
 0.71499992E+02 -0.33211E+04
 0.71549995E+02 -0.37546E+04
 0.71599998E+02 -0.41650E+04
 0.71649994E+02 -0.42421E+04
 0.71699997E+02 -0.40920E+04
 0.71749992E+02 -0.39937E+04
 0.71799995E+02 -0.43365E+04
 0.71849998E+02 -0.50247E+04
 0.71899994E+02 -0.53200E+04
 0.71949997E+02 -0.47875E+04
 0.71999992E+02 -0.42824E+04
 0.72049995E+02 -0.40350E+04
 0.72099998E+02 -0.39953E+04
 0.72149994E+02 -0.38226E+04
 0.72199997E+02 -0.35673E+04
 0.72249992E+02 -0.34945E+04
 0.72299995E+02 -0.34269E+04
 0.72349998E+02 -0.34539E+04
 0.72399994E+02 -0.35899E+04
 0.72449997E+02 -0.39905E+04
 0.72499992E+02 -0.42098E+04
 0.72549995E+02 -0.40370E+04
 0.72599998E+02 -0.34215E+04
 0.72649994E+02 -0.31395E+04
 0.72699997E+02 -0.34326E+04
 0.72749992E+02 -0.34573E+04
 0.72799995E+02 -0.34899E+04
 0.72849998E+02 -0.38133E+04
 0.72899994E+02 -0.40885E+04
 0.72949997E+02 -0.41676E+04
 0.72999992E+02 -0.43304E+04
 0.73049995E+02 -0.42867E+04
 0.73099998E+02 -0.37032E+04
 0.73149994E+02 -0.30485E+04
 0.73199997E+02 -0.28898E+04
 0.73249992E+02 -0.32445E+04
 0.73299995E+02 -0.38897E+04
 0.73349998E+02 -0.44337E+04
 0.73399994E+02 -0.45875E+04
 0.73449997E+02 -0.43392E+04
 0.73499992E+02 -0.37954E+04
 0.73549995E+02 -0.35313E+04
 0.73599998E+02 -0.35955E+04
 0.73649994E+02 -0.34893E+04
 0.73699997E+02 -0.34490E+04
 0.73749992E+02 -0.35846E+04
 0.73799995E+02 -0.37427E+04
 0.73849998E+02 -0.36214E+04
 0.73899994E+02 -0.32654E+04
 0.73949997E+02 -0.31313E+04
 0.73999992E+02 -0.36147E+04
 0.74049995E+02 -0.45394E+04
 0.74099998E+02 -0.50808E+04
 0.74149994E+02 -0.49917E+04
 0.74199997E+02 -0.44946E+04
 0.74249992E+02 -0.39236E+04
 0.74299995E+02 -0.33749E+04
 0.74349998E+02 -0.33074E+04
 0.74399994E+02 -0.34317E+04
 0.74449997E+02 -0.35683E+04
 0.74499992E+02 -0.35168E+04
 0.74549995E+02 -0.30675E+04
 0.74599998E+02 -0.28616E+04
 0.74649994E+02 -0.27950E+04
 0.74699997E+02 -0.29916E+04
 0.74749992E+02 -0.33206E+04
 0.74799995E+02 -0.34960E+04
 0.74849998E+02 -0.37799E+04
 0.74899994E+02 -0.39302E+04
 0.74949997E+02 -0.40035E+04
 0.74999992E+02 -0.42679E+04
 0.75049995E+02 -0.43329E+04
 0.75099998E+02 -0.42839E+04
 0.75149994E+02 -0.41946E+04
 0.75199997E+02 -0.40979E+04
 0.75249992E+02 -0.40285E+04
 0.75299995E+02 -0.42074E+04
 0.75349998E+02 -0.47143E+04
 0.75399994E+02 -0.46458E+04
 0.75449997E+02 -0.40276E+04
 0.75499992E+02 -0.37701E+04
 0.75549995E+02 -0.37508E+04
 0.75599998E+02 -0.36407E+04
 0.75649994E+02 -0.36080E+04
 0.75699997E+02 -0.37996E+04
 0.75749992E+02 -0.40764E+04
 0.75799995E+02 -0.40953E+04
 0.75849998E+02 -0.39773E+04
 0.75899994E+02 -0.36651E+04
 0.75949997E+02 -0.32247E+04
 0.75999992E+02 -0.31884E+04
 0.76049995E+02 -0.35647E+04
 0.76099998E+02 -0.38635E+04
 0.76149994E+02 -0.40662E+04
 0.76199997E+02 -0.41277E+04
 0.76249992E+02 -0.37035E+04
 0.76299995E+02 -0.30485E+04
 0.76349998E+02 -0.24663E+04
 0.76399994E+02 -0.20399E+04
 0.76449997E+02 -0.19649E+04
 0.76499992E+02 -0.20805E+04
 0.76549995E+02 -0.22649E+04
 0.76599998E+02 -0.25414E+04
 0.76649994E+02 -0.29468E+04
 0.76699997E+02 -0.34829E+04
 0.76749992E+02 -0.39052E+04
 0.76799995E+02 -0.42289E+04
 0.76849998E+02 -0.42369E+04
 0.76899994E+02 -0.43988E+04
 0.76949997E+02 -0.49278E+04
 0.76999992E+02 -0.52584E+04
 0.77049995E+02 -0.51640E+04
 0.77099998E+02 -0.47090E+04
 0.77149994E+02 -0.41928E+04
 0.77199997E+02 -0.38050E+04
 0.77249992E+02 -0.38384E+04
 0.77299995E+02 -0.38022E+04
 0.77349998E+02 -0.35844E+04
 0.77399994E+02 -0.34917E+04
 0.77449997E+02 -0.36313E+04
 0.77499992E+02 -0.37295E+04
 0.77549995E+02 -0.35729E+04
 0.77599998E+02 -0.35763E+04
 0.77649994E+02 -0.38230E+04
 0.77699997E+02 -0.41452E+04
 0.77749992E+02 -0.43337E+04
 0.77799995E+02 -0.42088E+04
 0.77849998E+02 -0.40252E+04
 0.77899994E+02 -0.42567E+04
 0.77949997E+02 -0.43265E+04
 0.77999992E+02 -0.39477E+04
 0.78049995E+02 -0.35999E+04
 0.78099998E+02 -0.35732E+04
 0.78149994E+02 -0.35833E+04
 0.78199997E+02 -0.33626E+04
 0.78249992E+02 -0.31248E+04
 0.78299995E+02 -0.32723E+04
 0.78349998E+02 -0.37600E+04
 0.78399994E+02 -0.43413E+04
 0.78449997E+02 -0.48340E+04
 0.78499992E+02 -0.48345E+04
 0.78549995E+02 -0.45064E+04
 0.78599998E+02 -0.41204E+04
 0.78649994E+02 -0.38906E+04
 0.78699997E+02 -0.37298E+04
 0.78749992E+02 -0.32999E+04
 0.78799995E+02 -0.28040E+04
 0.78849998E+02 -0.26302E+04
 0.78899994E+02 -0.26413E+04
 0.78949997E+02 -0.27868E+04
 0.78999992E+02 -0.30029E+04
 0.79049995E+02 -0.31032E+04
 0.79099998E+02 -0.30354E+04
 0.79149994E+02 -0.30519E+04
 0.79199997E+02 -0.33274E+04
 0.79249992E+02 -0.36164E+04
 0.79299995E+02 -0.39154E+04
 0.79349998E+02 -0.41288E+04
 0.79399994E+02 -0.39748E+04
 0.79449997E+02 -0.37247E+04
 0.79499992E+02 -0.36642E+04
 0.79549995E+02 -0.35180E+04
 0.79599998E+02 -0.34932E+04
 0.79649994E+02 -0.38211E+04
 0.79699997E+02 -0.42786E+04
 0.79749992E+02 -0.46806E+04
 0.79799995E+02 -0.48532E+04
 0.79849998E+02 -0.47611E+04
 0.79899994E+02 -0.45044E+04
 0.79949997E+02 -0.42962E+04
 0.79999992E+02 -0.42626E+04
 0.80049995E+02 -0.41945E+04
 0.80099998E+02 -0.40330E+04
 0.80149994E+02 -0.37301E+04
 0.80199997E+02 -0.34683E+04
 0.80249992E+02 -0.34828E+04
 0.80299995E+02 -0.31453E+04
 0.80349998E+02 -0.27084E+04
 0.80399994E+02 -0.25990E+04
 0.80449997E+02 -0.27521E+04
 0.80499992E+02 -0.32817E+04
 0.80549995E+02 -0.36431E+04
 0.80599998E+02 -0.36235E+04
 0.80649994E+02 -0.33772E+04
 0.80699997E+02 -0.31058E+04
 0.80749992E+02 -0.31303E+04
 0.80799995E+02 -0.34669E+04
 0.80849998E+02 -0.37326E+04
 0.80899994E+02 -0.38814E+04
 0.80949997E+02 -0.40957E+04
 0.80999992E+02 -0.42334E+04
 0.81049995E+02 -0.42141E+04
 0.81099998E+02 -0.41129E+04
 0.81149994E+02 -0.38520E+04
 0.81199997E+02 -0.34483E+04
 0.81249992E+02 -0.31294E+04
 0.81299995E+02 -0.31728E+04
 0.81349998E+02 -0.34275E+04
 0.81399994E+02 -0.35834E+04
 0.81449997E+02 -0.35519E+04
 0.81499992E+02 -0.33856E+04
 0.81549995E+02 -0.32911E+04
 0.81599998E+02 -0.31817E+04
 0.81649994E+02 -0.32647E+04
 0.81699997E+02 -0.35844E+04
 0.81749992E+02 -0.39544E+04
 0.81799995E+02 -0.42919E+04
 0.81849998E+02 -0.43630E+04
 0.81899994E+02 -0.42901E+04
 0.81949997E+02 -0.41661E+04
 0.81999992E+02 -0.38030E+04
 0.82049995E+02 -0.35427E+04
 0.82099998E+02 -0.35216E+04
 0.82149994E+02 -0.36358E+04
 0.82199997E+02 -0.38427E+04
 0.82249992E+02 -0.37789E+04
 0.82299995E+02 -0.36038E+04
 0.82349998E+02 -0.35346E+04
 0.82399994E+02 -0.36137E+04
 0.82449997E+02 -0.36271E+04
 0.82499992E+02 -0.38529E+04
 0.82549995E+02 -0.41786E+04
 0.82599998E+02 -0.40955E+04
 0.82649994E+02 -0.39933E+04
 0.82699997E+02 -0.40213E+04
 0.82749992E+02 -0.43373E+04
 0.82799995E+02 -0.48403E+04
 0.82849998E+02 -0.51919E+04
 0.82899994E+02 -0.51513E+04
 0.82949997E+02 -0.47580E+04
 0.82999992E+02 -0.42782E+04
 0.83049995E+02 -0.39021E+04
 0.83099998E+02 -0.38080E+04
 0.83149994E+02 -0.36533E+04
 0.83199997E+02 -0.32278E+04
 0.83249992E+02 -0.29055E+04
 0.83299995E+02 -0.26925E+04
 0.83349998E+02 -0.27705E+04
 0.83399994E+02 -0.32439E+04
 0.83449997E+02 -0.37161E+04
 0.83499992E+02 -0.41521E+04
 0.83549995E+02 -0.42362E+04
 0.83599998E+02 -0.37926E+04
 0.83649994E+02 -0.33046E+04
 0.83699997E+02 -0.29220E+04
 0.83749992E+02 -0.28554E+04
 0.83799995E+02 -0.31323E+04
 0.83849998E+02 -0.34207E+04
 0.83899994E+02 -0.34729E+04
 0.83949997E+02 -0.32625E+04
 0.83999992E+02 -0.31078E+04
 0.84049995E+02 -0.32287E+04
 0.84099998E+02 -0.36011E+04
 0.84149994E+02 -0.40599E+04
 0.84199997E+02 -0.43228E+04
 0.84249992E+02 -0.45871E+04
 0.84299995E+02 -0.47308E+04
 0.84349998E+02 -0.43657E+04
 0.84399994E+02 -0.39612E+04
 0.84449997E+02 -0.37722E+04
 0.84499992E+02 -0.37800E+04
 0.84549995E+02 -0.39424E+04
 0.84599998E+02 -0.39752E+04
 0.84649994E+02 -0.37134E+04
 0.84699997E+02 -0.35412E+04
 0.84749992E+02 -0.36506E+04
 0.84799995E+02 -0.37424E+04
 0.84849998E+02 -0.37393E+04
 0.84899994E+02 -0.36289E+04
 0.84949997E+02 -0.34934E+04
 0.84999992E+02 -0.34820E+04
 0.85049995E+02 -0.35123E+04
 0.85099998E+02 -0.38440E+04
 0.85149994E+02 -0.42083E+04
 0.85199997E+02 -0.43344E+04
 0.85249992E+02 -0.44116E+04
 0.85299995E+02 -0.42784E+04
 0.85349998E+02 -0.39702E+04
 0.85399994E+02 -0.37778E+04
 0.85449997E+02 -0.36305E+04
 0.85499992E+02 -0.35240E+04
 0.85549995E+02 -0.36889E+04
 0.85599998E+02 -0.38421E+04
 0.85649994E+02 -0.39315E+04
 0.85699997E+02 -0.38904E+04
 0.85749992E+02 -0.35276E+04
 0.85799995E+02 -0.30036E+04
 0.85849998E+02 -0.27069E+04
 0.85899994E+02 -0.27051E+04
 0.85949997E+02 -0.27976E+04
 0.85999992E+02 -0.29605E+04
 0.86049995E+02 -0.33097E+04
 0.86099998E+02 -0.36831E+04
 0.86149994E+02 -0.38329E+04
 0.86199997E+02 -0.38845E+04
 0.86249992E+02 -0.38158E+04
 0.86299995E+02 -0.37470E+04
 0.86349998E+02 -0.38224E+04
 0.86399994E+02 -0.39845E+04
 0.86449997E+02 -0.39993E+04
 0.86499992E+02 -0.38869E+04
 0.86549995E+02 -0.39849E+04
 0.86599998E+02 -0.41894E+04
 0.86649994E+02 -0.44135E+04
 0.86699997E+02 -0.44559E+04
 0.86749992E+02 -0.42127E+04
 0.86799995E+02 -0.40081E+04
 0.86849998E+02 -0.39841E+04
 0.86899994E+02 -0.41006E+04
 0.86949997E+02 -0.42102E+04
 0.86999992E+02 -0.41046E+04
 0.87049995E+02 -0.38530E+04
 0.87099998E+02 -0.35847E+04
 0.87149994E+02 -0.33328E+04
 0.87199997E+02 -0.32764E+04
 0.87249992E+02 -0.32385E+04
 0.87299995E+02 -0.32934E+04
 0.87349998E+02 -0.35178E+04
 0.87399994E+02 -0.37656E+04
 0.87449997E+02 -0.39644E+04
 0.87499992E+02 -0.39094E+04
 0.87549995E+02 -0.37080E+04
 0.87599991E+02 -0.35543E+04
 0.87649994E+02 -0.34740E+04
 0.87699997E+02 -0.33123E+04
 0.87749992E+02 -0.31305E+04
 0.87799995E+02 -0.31326E+04
 0.87849991E+02 -0.31430E+04
 0.87899994E+02 -0.31772E+04
 0.87949997E+02 -0.33094E+04
 0.87999992E+02 -0.33936E+04
 0.88049995E+02 -0.36293E+04
 0.88099991E+02 -0.40664E+04
 0.88149994E+02 -0.43653E+04
 0.88199997E+02 -0.44470E+04
 0.88249992E+02 -0.43719E+04
 0.88299995E+02 -0.41683E+04
 0.88349991E+02 -0.40011E+04
 0.88399994E+02 -0.39050E+04
 0.88449997E+02 -0.38401E+04
 0.88499992E+02 -0.36918E+04
 0.88549995E+02 -0.36154E+04
 0.88599991E+02 -0.36398E+04
 0.88649994E+02 -0.35556E+04
 0.88699997E+02 -0.34962E+04
 0.88749992E+02 -0.35699E+04
 0.88799995E+02 -0.35611E+04
 0.88849991E+02 -0.34578E+04
 0.88899994E+02 -0.35339E+04
 0.88949997E+02 -0.37305E+04
 0.88999992E+02 -0.39951E+04
 0.89049995E+02 -0.42440E+04
 0.89099991E+02 -0.45002E+04
 0.89149994E+02 -0.45855E+04
 0.89199997E+02 -0.43483E+04
 0.89249992E+02 -0.39951E+04
 0.89299995E+02 -0.37740E+04
 0.89349991E+02 -0.38260E+04
 0.89399994E+02 -0.38511E+04
 0.89449997E+02 -0.38295E+04
 0.89499992E+02 -0.38244E+04
 0.89549995E+02 -0.37985E+04
 0.89599991E+02 -0.36977E+04
 0.89649994E+02 -0.34910E+04
 0.89699997E+02 -0.34044E+04
 0.89749992E+02 -0.34114E+04
 0.89799995E+02 -0.34120E+04
 0.89849991E+02 -0.34232E+04
 0.89899994E+02 -0.33636E+04
 0.89949997E+02 -0.33955E+04
 0.89999992E+02 -0.35437E+04
 0.90049995E+02 -0.36355E+04
 0.90099991E+02 -0.37052E+04
 0.90149994E+02 -0.37745E+04
 0.90199997E+02 -0.38163E+04
 0.90249992E+02 -0.38692E+04
 0.90299995E+02 -0.38925E+04
 0.90349991E+02 -0.39825E+04
 0.90399994E+02 -0.41284E+04
 0.90449997E+02 -0.41141E+04
 0.90499992E+02 -0.39118E+04
 0.90549995E+02 -0.36651E+04
 0.90599991E+02 -0.35938E+04
 0.90649994E+02 -0.37146E+04
 0.90699997E+02 -0.38428E+04
 0.90749992E+02 -0.38027E+04
 0.90799995E+02 -0.36289E+04
 0.90849991E+02 -0.34765E+04
 0.90899994E+02 -0.34792E+04
 0.90949997E+02 -0.34102E+04
 0.90999992E+02 -0.32474E+04
 0.91049995E+02 -0.31821E+04
 0.91099991E+02 -0.32333E+04
 0.91149994E+02 -0.34101E+04
 0.91199997E+02 -0.36090E+04
 0.91249992E+02 -0.35361E+04
 0.91299995E+02 -0.32763E+04
 0.91349991E+02 -0.31589E+04
 0.91399994E+02 -0.30255E+04
 0.91449997E+02 -0.29450E+04
 0.91499992E+02 -0.30748E+04
 0.91549995E+02 -0.32335E+04
 0.91599991E+02 -0.33045E+04
 0.91649994E+02 -0.34918E+04
 0.91699997E+02 -0.37004E+04
 0.91749992E+02 -0.37973E+04
 0.91799995E+02 -0.38892E+04
 0.91849991E+02 -0.38985E+04
 0.91899994E+02 -0.37315E+04
 0.91949997E+02 -0.37094E+04
 0.91999992E+02 -0.40577E+04
 0.92049995E+02 -0.44579E+04
 0.92099991E+02 -0.45644E+04
 0.92149994E+02 -0.44388E+04
 0.92199997E+02 -0.42204E+04
 0.92249992E+02 -0.39601E+04
 0.92299995E+02 -0.39527E+04
 0.92349991E+02 -0.41348E+04
 0.92399994E+02 -0.43008E+04
 0.92449997E+02 -0.43321E+04
 0.92499992E+02 -0.41872E+04
 0.92549995E+02 -0.41099E+04
 0.92599991E+02 -0.41315E+04
 0.92649994E+02 -0.41092E+04
 0.92699997E+02 -0.41190E+04
 0.92749992E+02 -0.40978E+04
 0.92799995E+02 -0.40714E+04
 0.92849991E+02 -0.40274E+04
 0.92899994E+02 -0.39684E+04
 0.92949997E+02 -0.39289E+04
 0.92999992E+02 -0.38604E+04
 0.93049995E+02 -0.38336E+04
 0.93099991E+02 -0.38330E+04
 0.93149994E+02 -0.38396E+04
 0.93199997E+02 -0.37658E+04
 0.93249992E+02 -0.36363E+04
 0.93299995E+02 -0.35915E+04
 0.93349991E+02 -0.35406E+04
 0.93399994E+02 -0.33828E+04
 0.93449997E+02 -0.33256E+04
 0.93499992E+02 -0.34769E+04
 0.93549995E+02 -0.37163E+04
 0.93599991E+02 -0.39237E+04
 0.93649994E+02 -0.39593E+04
 0.93699997E+02 -0.38207E+04
 0.93749992E+02 -0.37127E+04
 0.93799995E+02 -0.36583E+04
 0.93849991E+02 -0.36368E+04
 0.93899994E+02 -0.36597E+04
 0.93949997E+02 -0.36529E+04
 0.93999992E+02 -0.36171E+04
 0.94049995E+02 -0.34642E+04
 0.94099991E+02 -0.32726E+04
 0.94149994E+02 -0.32567E+04
 0.94199997E+02 -0.33982E+04
 0.94249992E+02 -0.35910E+04
 0.94299995E+02 -0.37509E+04
 0.94349991E+02 -0.37641E+04
 0.94399994E+02 -0.36637E+04
 0.94449997E+02 -0.36121E+04
 0.94499992E+02 -0.36075E+04
 0.94549995E+02 -0.36612E+04
 0.94599991E+02 -0.37244E+04
 0.94649994E+02 -0.37747E+04
 0.94699997E+02 -0.38021E+04
 0.94749992E+02 -0.38350E+04
 0.94799995E+02 -0.39218E+04
 0.94849991E+02 -0.39786E+04
 0.94899994E+02 -0.38428E+04
 0.94949997E+02 -0.35025E+04
 0.94999992E+02 -0.33058E+04
 0.95049995E+02 -0.34173E+04
 0.95099991E+02 -0.36982E+04
 0.95149994E+02 -0.39137E+04
 0.95199997E+02 -0.39976E+04
 0.95249992E+02 -0.40347E+04
 0.95299995E+02 -0.40161E+04
 0.95349991E+02 -0.39557E+04
 0.95399994E+02 -0.37100E+04
 0.95449997E+02 -0.33366E+04
 0.95499992E+02 -0.31039E+04
 0.95549995E+02 -0.31421E+04
 0.95599991E+02 -0.34303E+04
 0.95649994E+02 -0.37423E+04
 0.95699997E+02 -0.39951E+04
 0.95749992E+02 -0.40954E+04
 0.95799995E+02 -0.38715E+04
 0.95849991E+02 -0.34551E+04
 0.95899994E+02 -0.31840E+04
 0.95949997E+02 -0.30549E+04
 0.95999992E+02 -0.30728E+04
 0.96049995E+02 -0.32469E+04
 0.96099991E+02 -0.34862E+04
 0.96149994E+02 -0.37046E+04
 0.96199997E+02 -0.37662E+04
 0.96249992E+02 -0.37923E+04
 0.96299995E+02 -0.38886E+04
 0.96349991E+02 -0.40569E+04
 0.96399994E+02 -0.41489E+04
 0.96449997E+02 -0.41068E+04
 0.96499992E+02 -0.40515E+04
 0.96549995E+02 -0.40945E+04
 0.96599991E+02 -0.41242E+04
 0.96649994E+02 -0.40144E+04
 0.96699997E+02 -0.38073E+04
 0.96749992E+02 -0.36032E+04
 0.96799995E+02 -0.35640E+04
 0.96849991E+02 -0.35836E+04
 0.96899994E+02 -0.36220E+04
 0.96949997E+02 -0.37716E+04
 0.96999992E+02 -0.39238E+04
 0.97049995E+02 -0.40281E+04
 0.97099991E+02 -0.41790E+04
 0.97149994E+02 -0.42109E+04
 0.97199997E+02 -0.41520E+04
 0.97249992E+02 -0.41127E+04
 0.97299995E+02 -0.40839E+04
 0.97349991E+02 -0.40978E+04
 0.97399994E+02 -0.40102E+04
 0.97449997E+02 -0.39004E+04
 0.97499992E+02 -0.38241E+04
 0.97549995E+02 -0.37070E+04
 0.97599991E+02 -0.36552E+04
 0.97649994E+02 -0.36483E+04
 0.97699997E+02 -0.36121E+04
 0.97749992E+02 -0.35914E+04
 0.97799995E+02 -0.35315E+04
 0.97849991E+02 -0.33614E+04
 0.97899994E+02 -0.32514E+04
 0.97949997E+02 -0.32940E+04
 0.97999992E+02 -0.34213E+04
