-0.20000000E+01  0.28029E+05
-0.19500000E+01  0.37668E+05
-0.19000000E+01  0.47694E+05
-0.18500000E+01  0.58176E+05
-0.18000000E+01  0.68294E+05
-0.17500000E+01  0.77447E+05
-0.17000000E+01  0.84626E+05
-0.16500001E+01  0.89471E+05
-0.16000000E+01  0.92417E+05
-0.15500000E+01  0.93934E+05
-0.15000000E+01  0.94009E+05
-0.14500000E+01  0.92628E+05
-0.14000001E+01  0.89302E+05
-0.13500000E+01  0.84422E+05
-0.13000001E+01  0.78317E+05
-0.12500000E+01  0.71277E+05
-0.12000000E+01  0.63653E+05
-0.11500001E+01  0.56395E+05
-0.11000000E+01  0.49931E+05
-0.10500001E+01  0.44467E+05
-0.10000000E+01  0.40174E+05
-0.95000005E+00  0.36164E+05
-0.90000010E+00  0.33219E+05
-0.85000002E+00  0.31393E+05
-0.80000007E+00  0.30639E+05
-0.75000012E+00  0.30732E+05
-0.70000005E+00  0.31258E+05
-0.65000010E+00  0.31770E+05
-0.60000014E+00  0.32001E+05
-0.55000007E+00  0.31746E+05
-0.50000012E+00  0.30345E+05
-0.45000005E+00  0.28127E+05
-0.40000010E+00  0.24574E+05
-0.35000014E+00  0.20154E+05
-0.30000007E+00  0.14370E+05
-0.25000012E+00  0.78476E+04
-0.20000005E+00  0.10262E+04
-0.15000010E+00 -0.48775E+04
-0.10000014E+00 -0.96097E+04
-0.50000072E-01 -0.13145E+05
-0.11920929E-06 -0.15181E+05
 0.49999952E-01 -0.15995E+05
 0.99999905E-01 -0.15602E+05
 0.14999986E+00 -0.14211E+05
 0.19999981E+00 -0.11675E+05
 0.24999976E+00 -0.84898E+04
 0.29999995E+00 -0.45371E+04
 0.34999990E+00 -0.61462E+03
 0.39999986E+00  0.32725E+04
 0.44999981E+00  0.61202E+04
 0.49999976E+00  0.77585E+04
 0.54999995E+00  0.79341E+04
 0.59999990E+00  0.67345E+04
 0.64999986E+00  0.42048E+04
 0.69999981E+00  0.50568E+03
 0.74999976E+00 -0.47950E+04
 0.79999971E+00 -0.11801E+05
 0.84999990E+00 -0.19547E+05
 0.89999986E+00 -0.28246E+05
 0.94999981E+00 -0.37301E+05
 0.99999976E+00 -0.46535E+05
 0.10499997E+01 -0.55463E+05
 0.10999999E+01 -0.63519E+05
 0.11499999E+01 -0.70340E+05
 0.11999998E+01 -0.75669E+05
 0.12499998E+01 -0.79123E+05
 0.12999997E+01 -0.80532E+05
 0.13499999E+01 -0.80191E+05
 0.13999999E+01 -0.78348E+05
 0.14499998E+01 -0.75516E+05
 0.14999998E+01 -0.72491E+05
 0.15499997E+01 -0.69949E+05
 0.15999999E+01 -0.67747E+05
 0.16499999E+01 -0.65877E+05
 0.16999998E+01 -0.63545E+05
 0.17499998E+01 -0.60844E+05
 0.17999997E+01 -0.57700E+05
 0.18499997E+01 -0.54863E+05
 0.18999999E+01 -0.52208E+05
 0.19499998E+01 -0.49460E+05
 0.19999998E+01 -0.46266E+05
 0.20499997E+01 -0.42101E+05
 0.20999999E+01 -0.37388E+05
 0.21499996E+01 -0.32379E+05
 0.21999998E+01 -0.26977E+05
 0.22499995E+01 -0.20940E+05
 0.22999997E+01 -0.14564E+05
 0.23499999E+01 -0.78294E+04
 0.23999996E+01 -0.17050E+04
 0.24499998E+01  0.38310E+04
 0.24999995E+01  0.92826E+04
 0.25499997E+01  0.15415E+05
 0.25999999E+01  0.21295E+05
 0.26499996E+01  0.26644E+05
 0.26999998E+01  0.30881E+05
 0.27499995E+01  0.33629E+05
 0.27999997E+01  0.35581E+05
 0.28499999E+01  0.37053E+05
 0.28999996E+01  0.38039E+05
 0.29499998E+01  0.37849E+05
 0.29999995E+01  0.36503E+05
 0.30499997E+01  0.34393E+05
 0.30999999E+01  0.32178E+05
 0.31499996E+01  0.29717E+05
 0.31999998E+01  0.26832E+05
 0.32499995E+01  0.23412E+05
 0.32999997E+01  0.20242E+05
 0.33499999E+01  0.17382E+05
 0.33999996E+01  0.14840E+05
 0.34499998E+01  0.12548E+05
 0.34999995E+01  0.10337E+05
 0.35499997E+01  0.83963E+04
 0.35999994E+01  0.67408E+04
 0.36499996E+01  0.57670E+04
 0.36999998E+01  0.51779E+04
 0.37499995E+01  0.50417E+04
 0.37999997E+01  0.48301E+04
 0.38499994E+01  0.43179E+04
 0.38999996E+01  0.33146E+04
 0.39499998E+01  0.20332E+04
 0.39999995E+01  0.37546E+03
 0.40499997E+01 -0.13283E+04
 0.40999994E+01 -0.26775E+04
 0.41499996E+01 -0.41358E+04
 0.41999998E+01 -0.59926E+04
 0.42499995E+01 -0.88510E+04
 0.42999997E+01 -0.13095E+05
 0.43499994E+01 -0.18783E+05
 0.43999996E+01 -0.25129E+05
 0.44499998E+01 -0.31713E+05
 0.44999995E+01 -0.37530E+05
 0.45499997E+01 -0.42008E+05
 0.45999994E+01 -0.45015E+05
 0.46499996E+01 -0.46364E+05
 0.46999998E+01 -0.46082E+05
 0.47499995E+01 -0.44605E+05
 0.47999997E+01 -0.41845E+05
 0.48499994E+01 -0.37910E+05
 0.48999996E+01 -0.32827E+05
 0.49499998E+01 -0.27304E+05
 0.49999995E+01 -0.21619E+05
 0.50499997E+01 -0.15773E+05
 0.50999994E+01 -0.96868E+04
 0.51499996E+01 -0.36134E+04
 0.51999998E+01  0.27239E+04
 0.52499995E+01  0.95438E+04
 0.52999997E+01  0.16745E+05
 0.53499994E+01  0.23490E+05
 0.53999996E+01  0.28697E+05
 0.54499993E+01  0.32011E+05
 0.54999995E+01  0.33615E+05
 0.55499997E+01  0.33945E+05
 0.55999994E+01  0.33359E+05
 0.56499996E+01  0.32267E+05
 0.56999993E+01  0.30605E+05
 0.57499995E+01  0.28691E+05
 0.57999997E+01  0.26651E+05
 0.58499994E+01  0.24969E+05
 0.58999996E+01  0.23284E+05
 0.59499993E+01  0.22071E+05
 0.59999995E+01  0.21350E+05
 0.60499992E+01  0.21260E+05
 0.60999994E+01  0.21766E+05
 0.61499996E+01  0.22460E+05
 0.61999998E+01  0.23449E+05
 0.62499990E+01  0.24614E+05
 0.62999992E+01  0.26021E+05
 0.63499994E+01  0.27416E+05
 0.63999996E+01  0.29499E+05
 0.64499998E+01  0.31438E+05
 0.64999990E+01  0.32776E+05
 0.65499992E+01  0.33195E+05
 0.65999994E+01  0.32651E+05
 0.66499996E+01  0.31534E+05
 0.66999998E+01  0.30058E+05
 0.67499990E+01  0.28695E+05
 0.67999992E+01  0.27128E+05
 0.68499994E+01  0.25806E+05
 0.68999996E+01  0.24557E+05
 0.69499998E+01  0.23300E+05
 0.69999990E+01  0.21332E+05
 0.70499992E+01  0.19101E+05
 0.70999994E+01  0.16700E+05
 0.71499996E+01  0.14443E+05
 0.71999998E+01  0.12456E+05
 0.72499990E+01  0.10959E+05
 0.72999992E+01  0.99862E+04
 0.73499994E+01  0.91783E+04
 0.73999996E+01  0.81592E+04
 0.74499998E+01  0.61296E+04
 0.74999990E+01  0.33293E+04
 0.75499992E+01 -0.17398E+03
 0.75999994E+01 -0.33230E+04
 0.76499996E+01 -0.61012E+04
 0.76999998E+01 -0.89040E+04
 0.77499990E+01 -0.11754E+05
 0.77999992E+01 -0.14418E+05
 0.78499994E+01 -0.17148E+05
 0.78999996E+01 -0.19878E+05
 0.79499998E+01 -0.22339E+05
 0.79999990E+01 -0.24308E+05
 0.80499992E+01 -0.25780E+05
 0.80999994E+01 -0.26701E+05
 0.81499996E+01 -0.27154E+05
 0.81999998E+01 -0.27033E+05
 0.82499990E+01 -0.26361E+05
 0.82999992E+01 -0.25068E+05
 0.83499994E+01 -0.23143E+05
 0.83999996E+01 -0.20700E+05
 0.84499998E+01 -0.17544E+05
 0.84999990E+01 -0.14236E+05
 0.85499992E+01 -0.10586E+05
 0.85999994E+01 -0.65257E+04
 0.86499996E+01 -0.20628E+04
 0.86999998E+01  0.31239E+04
 0.87499990E+01  0.84707E+04
 0.87999992E+01  0.13939E+05
 0.88499994E+01  0.19233E+05
 0.88999996E+01  0.24222E+05
 0.89499998E+01  0.28679E+05
 0.89999990E+01  0.32689E+05
 0.90499992E+01  0.36491E+05
 0.90999994E+01  0.40661E+05
 0.91499996E+01  0.45021E+05
 0.91999989E+01  0.49360E+05
 0.92499990E+01  0.53503E+05
 0.92999992E+01  0.57277E+05
 0.93499994E+01  0.60503E+05
 0.93999996E+01  0.62387E+05
 0.94499989E+01  0.63134E+05
 0.94999990E+01  0.63383E+05
 0.95499992E+01  0.63357E+05
 0.95999994E+01  0.62886E+05
 0.96499996E+01  0.62374E+05
 0.96999989E+01  0.61314E+05
 0.97499990E+01  0.60177E+05
 0.97999992E+01  0.58869E+05
 0.98499994E+01  0.57516E+05
 0.98999996E+01  0.55604E+05
 0.99499989E+01  0.52719E+05
 0.99999990E+01  0.48869E+05
 0.10049999E+02  0.44205E+05
 0.10099999E+02  0.38792E+05
 0.10150000E+02  0.32759E+05
 0.10199999E+02  0.26554E+05
 0.10249999E+02  0.20347E+05
 0.10299999E+02  0.14127E+05
 0.10349999E+02  0.76343E+04
 0.10400000E+02  0.11637E+04
 0.10449999E+02 -0.52817E+04
 0.10499999E+02 -0.11532E+05
 0.10549999E+02 -0.17644E+05
 0.10599999E+02 -0.23894E+05
 0.10650000E+02 -0.30179E+05
 0.10699999E+02 -0.36434E+05
 0.10749999E+02 -0.42694E+05
 0.10799999E+02 -0.48947E+05
 0.10849999E+02 -0.54903E+05
 0.10900000E+02 -0.60370E+05
 0.10949999E+02 -0.65043E+05
 0.10999999E+02 -0.69608E+05
 0.11049999E+02 -0.74087E+05
 0.11099999E+02 -0.78538E+05
 0.11150000E+02 -0.83068E+05
 0.11199999E+02 -0.87377E+05
 0.11249999E+02 -0.91291E+05
 0.11299999E+02 -0.94817E+05
 0.11349999E+02 -0.97784E+05
 0.11400000E+02 -0.99273E+05
 0.11449999E+02 -0.98909E+05
 0.11499999E+02 -0.96476E+05
 0.11549999E+02 -0.92083E+05
 0.11599999E+02 -0.86099E+05
 0.11650000E+02 -0.78787E+05
 0.11699999E+02 -0.70296E+05
 0.11749999E+02 -0.61098E+05
 0.11799999E+02 -0.51543E+05
 0.11849999E+02 -0.42500E+05
 0.11900000E+02 -0.34020E+05
 0.11949999E+02 -0.26246E+05
 0.11999999E+02 -0.19263E+05
 0.12049999E+02 -0.13718E+05
 0.12099999E+02 -0.99709E+04
 0.12150000E+02 -0.75967E+04
 0.12199999E+02 -0.63519E+04
 0.12249999E+02 -0.59880E+04
 0.12299999E+02 -0.64585E+04
 0.12349999E+02 -0.74664E+04
 0.12400000E+02 -0.84969E+04
 0.12449999E+02 -0.91856E+04
 0.12499999E+02 -0.92418E+04
 0.12549999E+02 -0.88376E+04
 0.12599999E+02 -0.84952E+04
 0.12649999E+02 -0.85099E+04
 0.12699999E+02 -0.88175E+04
 0.12749999E+02 -0.89258E+04
 0.12799999E+02 -0.94050E+04
 0.12849999E+02 -0.10157E+05
 0.12899999E+02 -0.11150E+05
 0.12949999E+02 -0.11953E+05
 0.12999999E+02 -0.12122E+05
 0.13049999E+02 -0.11540E+05
 0.13099999E+02 -0.10548E+05
 0.13149999E+02 -0.93560E+04
 0.13199999E+02 -0.76978E+04
 0.13249999E+02 -0.55930E+04
 0.13299999E+02 -0.26448E+04
 0.13349999E+02  0.69212E+03
 0.13399999E+02  0.46998E+04
 0.13449999E+02  0.94356E+04
 0.13499999E+02  0.14604E+05
 0.13549999E+02  0.20073E+05
 0.13599999E+02  0.25286E+05
 0.13649999E+02  0.30288E+05
 0.13699999E+02  0.34857E+05
 0.13749999E+02  0.38516E+05
 0.13799999E+02  0.40962E+05
 0.13849999E+02  0.42276E+05
 0.13899999E+02  0.42519E+05
 0.13949999E+02  0.41794E+05
 0.13999999E+02  0.40042E+05
 0.14049999E+02  0.37183E+05
 0.14099998E+02  0.33166E+05
 0.14150000E+02  0.28637E+05
 0.14199999E+02  0.23438E+05
 0.14249998E+02  0.18084E+05
 0.14299999E+02  0.12305E+05
 0.14349998E+02  0.63908E+04
 0.14400000E+02  0.70868E+03
 0.14449999E+02 -0.48517E+04
 0.14499998E+02 -0.10386E+05
 0.14549999E+02 -0.15868E+05
 0.14599998E+02 -0.20246E+05
 0.14650000E+02 -0.23573E+05
 0.14699999E+02 -0.25483E+05
 0.14749998E+02 -0.25749E+05
 0.14799999E+02 -0.24406E+05
 0.14849998E+02 -0.21713E+05
 0.14900000E+02 -0.17748E+05
 0.14949999E+02 -0.12571E+05
 0.14999998E+02 -0.63797E+04
 0.15049999E+02  0.24089E+03
 0.15099998E+02  0.69316E+04
 0.15150000E+02  0.12963E+05
 0.15199999E+02  0.18257E+05
 0.15249998E+02  0.22731E+05
 0.15299999E+02  0.26611E+05
 0.15349998E+02  0.30745E+05
 0.15400000E+02  0.35473E+05
 0.15449999E+02  0.41317E+05
 0.15499998E+02  0.47933E+05
 0.15549999E+02  0.55286E+05
 0.15599998E+02  0.62516E+05
 0.15650000E+02  0.69232E+05
 0.15699999E+02  0.74916E+05
 0.15749998E+02  0.79203E+05
 0.15799999E+02  0.82269E+05
 0.15849998E+02  0.83220E+05
 0.15900000E+02  0.82184E+05
 0.15949999E+02  0.78557E+05
 0.15999998E+02  0.72955E+05
 0.16049999E+02  0.65325E+05
 0.16099998E+02  0.56001E+05
 0.16150000E+02  0.45705E+05
 0.16199999E+02  0.34812E+05
 0.16249998E+02  0.23607E+05
 0.16299999E+02  0.12311E+05
 0.16349998E+02  0.11825E+04
 0.16400000E+02 -0.96148E+04
 0.16449999E+02 -0.19586E+05
 0.16499998E+02 -0.28452E+05
 0.16549999E+02 -0.35771E+05
 0.16599998E+02 -0.41760E+05
 0.16650000E+02 -0.45703E+05
 0.16699999E+02 -0.48208E+05
 0.16749998E+02 -0.49253E+05
 0.16799999E+02 -0.49196E+05
 0.16849998E+02 -0.47992E+05
 0.16900000E+02 -0.45724E+05
 0.16949999E+02 -0.42987E+05
 0.16999998E+02 -0.40118E+05
 0.17049999E+02 -0.37518E+05
 0.17099998E+02 -0.34910E+05
 0.17150000E+02 -0.32337E+05
 0.17199999E+02 -0.29773E+05
 0.17249998E+02 -0.27215E+05
 0.17299999E+02 -0.24663E+05
 0.17349998E+02 -0.22453E+05
 0.17400000E+02 -0.20316E+05
 0.17449999E+02 -0.18246E+05
 0.17499998E+02 -0.16063E+05
 0.17549999E+02 -0.13782E+05
 0.17599998E+02 -0.11330E+05
 0.17650000E+02 -0.86938E+04
 0.17699999E+02 -0.57058E+04
 0.17749998E+02 -0.27651E+04
 0.17799999E+02  0.28856E+02
 0.17849998E+02  0.28875E+04
 0.17900000E+02  0.52645E+04
 0.17949999E+02  0.79248E+04
 0.17999998E+02  0.10469E+05
 0.18049999E+02  0.13251E+05
 0.18099998E+02  0.15975E+05
 0.18150000E+02  0.18596E+05
 0.18199999E+02  0.21294E+05
 0.18249998E+02  0.24092E+05
 0.18299999E+02  0.26869E+05
 0.18349998E+02  0.29277E+05
 0.18400000E+02  0.31462E+05
 0.18449999E+02  0.32806E+05
 0.18499998E+02  0.33458E+05
 0.18549999E+02  0.33505E+05
 0.18599998E+02  0.33208E+05
 0.18650000E+02  0.32222E+05
 0.18699999E+02  0.30539E+05
 0.18749998E+02  0.27512E+05
 0.18799999E+02  0.23216E+05
 0.18849998E+02  0.18179E+05
 0.18900000E+02  0.13008E+05
 0.18949999E+02  0.77076E+04
 0.18999998E+02  0.30704E+04
 0.19049999E+02 -0.90752E+03
 0.19099998E+02 -0.40770E+04
 0.19150000E+02 -0.62008E+04
 0.19199999E+02 -0.75274E+04
 0.19249998E+02 -0.78103E+04
 0.19299999E+02 -0.75425E+04
 0.19349998E+02 -0.68241E+04
 0.19400000E+02 -0.60743E+04
 0.19449999E+02 -0.48970E+04
 0.19499998E+02 -0.35461E+04
 0.19549999E+02 -0.24681E+04
 0.19599998E+02 -0.19078E+04
 0.19650000E+02 -0.21045E+04
 0.19699999E+02 -0.27472E+04
 0.19749998E+02 -0.41078E+04
 0.19799999E+02 -0.62529E+04
 0.19849998E+02 -0.89266E+04
 0.19900000E+02 -0.11801E+05
 0.19949999E+02 -0.14768E+05
 0.19999998E+02 -0.17810E+05
 0.20049999E+02 -0.21151E+05
 0.20099998E+02 -0.24748E+05
 0.20150000E+02 -0.28381E+05
 0.20199999E+02 -0.31486E+05
 0.20249998E+02 -0.33860E+05
 0.20299999E+02 -0.35055E+05
 0.20349998E+02 -0.35007E+05
 0.20399998E+02 -0.33729E+05
 0.20449999E+02 -0.31198E+05
 0.20499998E+02 -0.27941E+05
 0.20549999E+02 -0.24229E+05
 0.20599998E+02 -0.20926E+05
 0.20649998E+02 -0.17911E+05
 0.20699999E+02 -0.15087E+05
 0.20749998E+02 -0.12397E+05
 0.20799999E+02 -0.97394E+04
 0.20849998E+02 -0.67576E+04
 0.20899998E+02 -0.34429E+04
 0.20949999E+02 -0.12182E+03
 0.20999998E+02  0.28906E+04
 0.21049999E+02  0.51055E+04
 0.21099998E+02  0.64877E+04
 0.21149998E+02  0.66039E+04
 0.21199999E+02  0.48101E+04
 0.21249998E+02  0.20153E+04
 0.21299999E+02  0.16840E+03
 0.21349998E+02  0.38042E+03
 0.21399998E+02  0.48581E+03
 0.21449999E+02 -0.90749E+03
 0.21499998E+02 -0.30295E+04
 0.21549999E+02 -0.55027E+04
 0.21599998E+02 -0.84208E+04
 0.21649998E+02 -0.80664E+04
 0.21699999E+02 -0.63716E+04
 0.21749998E+02 -0.57166E+04
 0.21799999E+02 -0.64296E+04
 0.21849998E+02 -0.82829E+04
 0.21899998E+02 -0.81908E+04
 0.21949999E+02 -0.69892E+04
 0.21999998E+02 -0.51771E+04
 0.22049999E+02  0.48971E+03
 0.22099998E+02  0.77377E+04
 0.22149998E+02  0.78514E+04
 0.22199999E+02  0.10604E+05
 0.22249998E+02  0.12414E+05
 0.22299999E+02  0.92690E+04
 0.22349998E+02  0.45753E+04
 0.22399998E+02  0.43904E+04
 0.22449999E+02  0.13513E+05
 0.22499998E+02  0.27360E+05
 0.22549999E+02  0.33504E+05
 0.22599998E+02  0.28433E+05
 0.22649998E+02  0.25532E+05
 0.22699999E+02  0.16364E+05
 0.22749998E+02  0.24629E+05
 0.22799999E+02  0.42776E+05
 0.22849998E+02  0.43255E+05
 0.22899998E+02  0.37427E+05
 0.22949999E+02  0.24301E+05
 0.22999998E+02  0.13518E+05
 0.23049999E+02 -0.46834E+03
 0.23099998E+02  0.35320E+04
 0.23149998E+02  0.24191E+05
 0.23199999E+02  0.44109E+05
 0.23249998E+02  0.49809E+05
 0.23299999E+02  0.33071E+05
 0.23349998E+02  0.28905E+05
 0.23399998E+02  0.18398E+05
 0.23449999E+02  0.16825E+05
 0.23499998E+02  0.35993E+05
 0.23549999E+02  0.34595E+05
 0.23599998E+02  0.16728E+05
 0.23649998E+02 -0.22676E+05
 0.23699999E+02 -0.52875E+05
 0.23749998E+02 -0.47884E+05
 0.23799999E+02 -0.37115E+05
 0.23849998E+02 -0.14740E+05
 0.23899998E+02 -0.89817E+04
 0.23949999E+02 -0.10098E+05
 0.23999998E+02 -0.39070E+04
 0.24049999E+02  0.13048E+05
 0.24099998E+02  0.31331E+05
 0.24149998E+02  0.51899E+05
 0.24199999E+02  0.37858E+05
 0.24249998E+02  0.18069E+05
 0.24299999E+02 -0.16917E+04
 0.24349998E+02 -0.34949E+05
 0.24399998E+02 -0.49688E+05
 0.24449999E+02 -0.62583E+05
 0.24499998E+02 -0.51681E+05
 0.24549999E+02 -0.34622E+05
 0.24599998E+02 -0.99934E+04
 0.24649998E+02 -0.56084E+04
 0.24699999E+02  0.41803E+05
 0.24749998E+02  0.86799E+05
 0.24799999E+02  0.89789E+05
 0.24849998E+02  0.37130E+05
 0.24899998E+02 -0.17739E+05
 0.24949999E+02 -0.80505E+05
 0.24999998E+02 -0.10340E+06
 0.25049999E+02 -0.11128E+05
 0.25099998E+02  0.37094E+05
 0.25149998E+02  0.34234E+05
 0.25199999E+02  0.20305E+05
 0.25249998E+02  0.65322E+05
 0.25299999E+02  0.48821E+05
 0.25349998E+02  0.37224E+05
 0.25399998E+02  0.96417E+05
 0.25449999E+02  0.13116E+06
 0.25499998E+02  0.16424E+06
 0.25549999E+02  0.10945E+06
 0.25599998E+02  0.42261E+05
 0.25649998E+02 -0.18008E+04
 0.25699999E+02  0.40372E+05
 0.25749998E+02  0.62508E+05
 0.25799999E+02  0.29096E+05
 0.25849998E+02  0.66545E+04
 0.25899998E+02 -0.21849E+05
 0.25949999E+02  0.49325E+03
 0.25999998E+02  0.46915E+05
 0.26049999E+02  0.86998E+05
 0.26099998E+02  0.62661E+05
 0.26149998E+02  0.79963E+05
 0.26199999E+02  0.55278E+05
 0.26249998E+02  0.47987E+05
 0.26299999E+02  0.94412E+05
 0.26349998E+02  0.80586E+05
 0.26399998E+02  0.14822E+06
 0.26449999E+02  0.19175E+06
 0.26499998E+02  0.14293E+06
 0.26549999E+02  0.11906E+06
 0.26599998E+02  0.12825E+06
 0.26649998E+02  0.14038E+06
 0.26699999E+02  0.12261E+06
 0.26749998E+02  0.40152E+05
 0.26799999E+02  0.12666E+05
 0.26849998E+02  0.29956E+05
 0.26899998E+02 -0.12106E+05
 0.26949999E+02 -0.51150E+04
 0.26999998E+02  0.32472E+04
 0.27049997E+02  0.11796E+05
 0.27099998E+02  0.21153E+05
 0.27149998E+02 -0.10093E+06
 0.27199999E+02 -0.21566E+06
 0.27249998E+02 -0.23753E+06
 0.27299997E+02 -0.24194E+06
 0.27349998E+02 -0.22237E+06
 0.27399998E+02 -0.13494E+06
 0.27449999E+02 -0.36003E+04
 0.27499998E+02 -0.79177E+04
 0.27549997E+02  0.34617E+05
 0.27599998E+02  0.18829E+06
 0.27649998E+02  0.25170E+06
 0.27699999E+02  0.23211E+06
 0.27749998E+02  0.13010E+06
 0.27799997E+02  0.10875E+06
 0.27849998E+02  0.15416E+06
 0.27899998E+02  0.87482E+05
 0.27949999E+02 -0.56189E+05
 0.27999998E+02 -0.21857E+06
 0.28049997E+02 -0.31008E+06
 0.28099998E+02 -0.25066E+06
 0.28149998E+02 -0.14127E+06
 0.28199999E+02 -0.13341E+06
 0.28249998E+02 -0.18768E+06
 0.28299997E+02 -0.18543E+06
 0.28349998E+02 -0.77261E+05
 0.28399998E+02  0.60750E+05
 0.28449999E+02  0.13482E+06
 0.28499998E+02  0.12820E+06
 0.28549997E+02  0.14165E+05
 0.28599998E+02 -0.48846E+05
 0.28649998E+02  0.57593E+05
 0.28699999E+02  0.41132E+05
 0.28749998E+02 -0.10316E+06
 0.28799997E+02 -0.72898E+05
 0.28849998E+02  0.52161E+05
 0.28899998E+02  0.89434E+05
 0.28949999E+02  0.12494E+06
 0.28999998E+02  0.25846E+06
 0.29049997E+02  0.26260E+06
 0.29099998E+02  0.18354E+06
 0.29149998E+02  0.11695E+06
 0.29199999E+02 -0.14354E+05
 0.29249998E+02 -0.97258E+05
 0.29299997E+02 -0.14150E+06
 0.29349998E+02 -0.13890E+06
 0.29399998E+02 -0.98090E+05
 0.29449999E+02 -0.14797E+06
 0.29499998E+02 -0.13432E+06
 0.29549997E+02 -0.48131E+05
 0.29599998E+02 -0.49017E+05
 0.29649998E+02 -0.35337E+05
 0.29699999E+02  0.16917E+05
 0.29749998E+02  0.11890E+06
 0.29799997E+02  0.62627E+05
 0.29849998E+02 -0.27526E+05
 0.29899998E+02 -0.22393E+05
 0.29949999E+02 -0.42727E+05
 0.29999998E+02  0.71315E+05
 0.30049999E+02  0.18901E+06
 0.30099998E+02  0.20562E+06
 0.30149998E+02  0.16140E+06
 0.30199997E+02  0.13537E+06
 0.30249996E+02  0.53895E+05
 0.30299999E+02 -0.74228E+05
 0.30349998E+02 -0.85096E+05
 0.30399998E+02 -0.47962E+05
 0.30449997E+02 -0.27630E+05
 0.30499996E+02 -0.28611E+05
 0.30549999E+02 -0.70611E+04
 0.30599998E+02 -0.63327E+05
 0.30649998E+02 -0.14611E+06
 0.30699997E+02 -0.17946E+06
 0.30749996E+02 -0.16932E+06
 0.30799999E+02 -0.62006E+05
 0.30849998E+02 -0.37239E+05
 0.30899998E+02 -0.73718E+05
 0.30949997E+02 -0.81692E+05
 0.30999996E+02 -0.11473E+06
 0.31049999E+02 -0.11735E+06
 0.31099998E+02 -0.64099E+05
 0.31149998E+02 -0.72315E+05
 0.31199997E+02 -0.72267E+05
 0.31249996E+02 -0.61889E+05
 0.31299999E+02 -0.77642E+05
 0.31349998E+02 -0.42132E+05
 0.31399998E+02  0.31402E+05
 0.31449997E+02  0.22064E+06
 0.31499996E+02  0.32621E+06
 0.31549999E+02  0.33330E+06
 0.31599998E+02  0.20173E+06
 0.31649998E+02 -0.10259E+06
 0.31699997E+02 -0.26194E+06
 0.31749996E+02 -0.29558E+06
 0.31799999E+02 -0.25278E+06
 0.31849998E+02 -0.14365E+06
 0.31899998E+02 -0.13823E+05
 0.31949997E+02  0.49222E+05
 0.31999996E+02  0.18946E+05
 0.32049999E+02 -0.99484E+05
 0.32099998E+02 -0.16981E+06
 0.32149998E+02 -0.18793E+06
 0.32199997E+02 -0.19675E+06
 0.32249996E+02 -0.19807E+06
 0.32299999E+02 -0.90372E+05
 0.32349998E+02  0.14291E+06
 0.32399998E+02  0.27515E+06
 0.32449997E+02  0.37855E+06
 0.32499996E+02  0.43441E+06
 0.32549999E+02  0.36978E+06
 0.32599998E+02  0.16084E+06
 0.32649998E+02 -0.33068E+04
 0.32699997E+02 -0.57910E+05
 0.32749996E+02 -0.69477E+05
 0.32799999E+02 -0.39218E+05
 0.32849998E+02 -0.28743E+05
 0.32899998E+02  0.42718E+05
 0.32949997E+02  0.64748E+05
 0.32999996E+02 -0.82294E+04
 0.33049999E+02 -0.67074E+05
 0.33099998E+02 -0.95944E+05
 0.33149998E+02 -0.78614E+05
 0.33199997E+02 -0.19382E+05
 0.33249996E+02 -0.15838E+05
 0.33299999E+02 -0.32174E+05
 0.33349998E+02  0.15717E+05
 0.33399998E+02  0.65282E+03
 0.33449997E+02 -0.85499E+04
 0.33499996E+02 -0.23384E+05
 0.33549999E+02 -0.12557E+06
 0.33599998E+02 -0.15438E+06
 0.33649998E+02 -0.40129E+05
 0.33699997E+02  0.11563E+06
 0.33749996E+02  0.31499E+06
 0.33799999E+02  0.48260E+06
 0.33849998E+02  0.51665E+06
 0.33899998E+02  0.37877E+06
 0.33949997E+02  0.10579E+06
 0.33999996E+02 -0.63487E+05
 0.34049999E+02 -0.98173E+05
 0.34099998E+02 -0.64316E+05
 0.34149998E+02 -0.79477E+05
 0.34199997E+02 -0.11064E+06
 0.34249996E+02 -0.11037E+06
 0.34299999E+02 -0.13880E+06
 0.34349998E+02 -0.62097E+05
 0.34399998E+02 -0.16051E+05
 0.34449997E+02  0.48936E+04
 0.34499996E+02 -0.22978E+05
 0.34549999E+02 -0.15024E+06
 0.34599998E+02 -0.18886E+06
 0.34649998E+02 -0.19149E+06
 0.34699997E+02 -0.20717E+06
 0.34749996E+02 -0.22482E+06
 0.34799999E+02 -0.19364E+06
 0.34849998E+02 -0.10415E+06
 0.34899998E+02 -0.55831E+05
 0.34949997E+02 -0.28574E+05
 0.34999996E+02 -0.16495E+05
 0.35049999E+02 -0.25560E+05
 0.35099998E+02  0.60904E+05
 0.35149998E+02  0.13540E+06
 0.35199997E+02  0.14401E+06
 0.35249996E+02  0.84121E+05
 0.35299999E+02 -0.11638E+06
 0.35349998E+02 -0.20889E+06
 0.35399998E+02 -0.19037E+06
 0.35449997E+02 -0.23983E+06
 0.35499996E+02 -0.28005E+06
 0.35549999E+02 -0.15408E+06
 0.35599998E+02 -0.30646E+05
 0.35649998E+02 -0.64966E+05
 0.35699997E+02 -0.65319E+05
 0.35749996E+02 -0.88606E+05
 0.35799999E+02 -0.52412E+05
 0.35849998E+02 -0.16995E+06
 0.35899998E+02 -0.46552E+06
 0.35949997E+02 -0.73810E+06
 0.35999996E+02 -0.99783E+06
 0.36049999E+02 -0.11403E+07
 0.36099998E+02 -0.11659E+07
 0.36149998E+02 -0.99469E+06
 0.36199997E+02 -0.67084E+06
 0.36249996E+02 -0.30516E+06
 0.36299999E+02 -0.34838E+06
 0.36349998E+02 -0.88919E+06
 0.36399998E+02 -0.16133E+07
 0.36449997E+02 -0.18825E+07
 0.36499996E+02 -0.13337E+07
 0.36549999E+02 -0.61600E+06
 0.36599998E+02 -0.17683E+06
 0.36649998E+02 -0.23800E+06
 0.36699997E+02 -0.63719E+06
 0.36749996E+02 -0.89758E+06
 0.36799999E+02 -0.82416E+06
 0.36849998E+02 -0.36629E+06
 0.36899998E+02  0.20810E+06
 0.36949997E+02  0.29836E+06
 0.36999996E+02  0.15630E+06
 0.37049999E+02  0.89697E+05
 0.37099998E+02 -0.32102E+05
 0.37149998E+02 -0.10744E+06
 0.37199997E+02 -0.13595E+06
 0.37249996E+02  0.26842E+05
 0.37299999E+02  0.92359E+05
 0.37349998E+02 -0.25286E+06
 0.37399998E+02 -0.73135E+06
 0.37449997E+02 -0.13763E+07
 0.37499996E+02 -0.19578E+07
 0.37549999E+02 -0.14905E+07
 0.37599998E+02 -0.91555E+05
 0.37649998E+02  0.10572E+07
 0.37699997E+02  0.10279E+07
 0.37749996E+02  0.21682E+06
 0.37799999E+02 -0.46565E+06
 0.37849998E+02 -0.20244E+06
 0.37899998E+02  0.73425E+06
 0.37949997E+02  0.11085E+07
 0.37999996E+02  0.75586E+06
 0.38049999E+02  0.45611E+05
 0.38099998E+02 -0.44315E+06
 0.38149998E+02 -0.64936E+06
 0.38199997E+02 -0.46818E+06
 0.38249996E+02  0.12049E+06
 0.38299999E+02  0.66703E+06
 0.38349998E+02  0.80271E+06
 0.38399998E+02  0.81135E+06
 0.38449997E+02  0.10834E+07
 0.38499996E+02  0.13337E+07
 0.38549999E+02  0.13831E+07
 0.38599998E+02  0.16867E+07
 0.38649998E+02  0.19612E+07
 0.38699997E+02  0.14292E+07
 0.38749996E+02  0.81244E+06
 0.38799999E+02  0.53607E+06
 0.38849998E+02  0.11323E+06
 0.38899998E+02 -0.63436E+06
 0.38949997E+02 -0.10309E+07
 0.38999996E+02 -0.71888E+06
 0.39049999E+02 -0.45928E+06
 0.39099998E+02 -0.34936E+06
 0.39149998E+02  0.16095E+06
 0.39199997E+02  0.10247E+07
 0.39249996E+02  0.12739E+07
 0.39299999E+02  0.64843E+06
 0.39349998E+02  0.78779E+05
 0.39399998E+02 -0.17099E+06
 0.39449997E+02 -0.16814E+06
 0.39499996E+02  0.75889E+05
 0.39549999E+02  0.18575E+06
 0.39599998E+02  0.14269E+06
 0.39649998E+02 -0.13723E+06
 0.39699997E+02 -0.52077E+06
 0.39749996E+02 -0.40575E+06
 0.39799999E+02  0.12264E+06
 0.39849998E+02  0.93033E+06
 0.39899998E+02  0.16332E+07
 0.39949997E+02  0.20321E+07
 0.39999996E+02  0.20123E+07
 0.40049999E+02  0.14332E+07
 0.40099998E+02  0.52081E+06
 0.40149998E+02 -0.32139E+06
 0.40199997E+02 -0.82550E+06
 0.40249996E+02 -0.12150E+07
 0.40299999E+02 -0.12649E+07
 0.40349998E+02 -0.14421E+07
 0.40399998E+02 -0.20835E+07
 0.40449997E+02 -0.25852E+07
 0.40499996E+02 -0.23980E+07
 0.40549999E+02 -0.18700E+07
 0.40599998E+02 -0.18261E+07
 0.40649998E+02 -0.21829E+07
 0.40699997E+02 -0.24773E+07
 0.40749996E+02 -0.21141E+07
 0.40799999E+02 -0.12699E+07
 0.40849998E+02 -0.61742E+06
 0.40899998E+02 -0.28859E+06
 0.40949997E+02 -0.25670E+06
 0.40999996E+02 -0.34973E+06
 0.41049999E+02 -0.28768E+06
 0.41099998E+02 -0.25232E+06
 0.41149998E+02 -0.71553E+06
 0.41199997E+02 -0.15836E+07
 0.41249996E+02 -0.21864E+07
 0.41299999E+02 -0.19983E+07
 0.41349998E+02 -0.14147E+07
 0.41399998E+02 -0.11624E+07
 0.41449997E+02 -0.10485E+07
 0.41499996E+02 -0.66521E+06
 0.41549999E+02 -0.24305E+06
 0.41599998E+02  0.36521E+05
 0.41649998E+02  0.65626E+05
 0.41699997E+02 -0.22456E+06
 0.41749996E+02 -0.53450E+06
 0.41799999E+02 -0.76041E+06
 0.41849998E+02 -0.62856E+06
 0.41899998E+02 -0.62340E+05
 0.41949997E+02  0.71381E+06
 0.41999996E+02  0.15245E+07
 0.42049999E+02  0.20144E+07
 0.42099998E+02  0.17129E+07
 0.42149998E+02  0.90091E+06
 0.42199997E+02  0.45209E+06
 0.42249996E+02  0.48243E+06
 0.42299999E+02  0.10734E+07
 0.42349998E+02  0.18863E+07
 0.42399998E+02  0.25083E+07
 0.42449997E+02  0.25382E+07
 0.42499996E+02  0.21386E+07
 0.42549999E+02  0.14780E+07
 0.42599998E+02  0.63766E+06
 0.42649998E+02  0.32756E+06
 0.42699997E+02  0.54905E+06
 0.42749996E+02  0.11883E+07
 0.42799995E+02  0.18070E+07
 0.42849998E+02  0.22196E+07
 0.42899998E+02  0.27319E+07
 0.42949997E+02  0.29942E+07
 0.42999996E+02  0.30789E+07
 0.43049995E+02  0.33205E+07
 0.43099998E+02  0.31483E+07
 0.43149998E+02  0.24538E+07
 0.43199997E+02  0.19450E+07
 0.43249996E+02  0.19517E+07
 0.43299995E+02  0.22153E+07
 0.43349998E+02  0.23499E+07
 0.43399998E+02  0.23297E+07
 0.43449997E+02  0.22473E+07
 0.43499996E+02  0.22499E+07
 0.43549995E+02  0.24479E+07
 0.43599998E+02  0.26900E+07
 0.43649998E+02  0.26135E+07
 0.43699997E+02  0.21140E+07
 0.43749996E+02  0.17146E+07
 0.43799995E+02  0.15730E+07
 0.43849998E+02  0.16320E+07
 0.43899998E+02  0.18285E+07
 0.43949997E+02  0.18459E+07
 0.43999996E+02  0.17053E+07
 0.44049995E+02  0.14450E+07
 0.44099998E+02  0.12536E+07
 0.44149998E+02  0.11395E+07
 0.44199997E+02  0.10080E+07
 0.44249996E+02  0.92899E+06
 0.44299995E+02  0.82934E+06
 0.44349998E+02  0.31729E+06
 0.44399998E+02 -0.57471E+06
 0.44449997E+02 -0.11203E+07
 0.44499996E+02 -0.13813E+07
 0.44549995E+02 -0.13382E+07
 0.44599998E+02 -0.13635E+07
 0.44649998E+02 -0.15548E+07
 0.44699997E+02 -0.16988E+07
 0.44749996E+02 -0.18701E+07
 0.44799995E+02 -0.18477E+07
 0.44849998E+02 -0.17489E+07
 0.44899998E+02 -0.14676E+07
 0.44949997E+02 -0.10488E+07
 0.44999996E+02 -0.61961E+06
 0.45049995E+02 -0.23724E+06
 0.45099998E+02  0.15610E+05
 0.45149998E+02 -0.42846E+05
 0.45199997E+02 -0.28311E+06
 0.45249996E+02 -0.55302E+06
 0.45299995E+02 -0.75837E+06
 0.45349998E+02 -0.61704E+06
 0.45399998E+02 -0.27912E+06
 0.45449997E+02  0.16089E+06
 0.45499996E+02  0.34397E+06
 0.45549995E+02  0.13331E+06
 0.45599998E+02 -0.26628E+06
 0.45649998E+02 -0.69730E+06
 0.45699997E+02 -0.99968E+06
 0.45749996E+02 -0.12639E+07
 0.45799995E+02 -0.14032E+07
 0.45849998E+02 -0.12435E+07
 0.45899998E+02 -0.87923E+06
 0.45949997E+02 -0.54319E+06
 0.45999996E+02 -0.53981E+06
 0.46049995E+02 -0.84710E+06
 0.46099998E+02 -0.94764E+06
 0.46149998E+02 -0.90970E+06
 0.46199997E+02 -0.65836E+06
 0.46249996E+02 -0.26798E+06
 0.46299995E+02 -0.18776E+06
 0.46349998E+02 -0.18645E+06
 0.46399998E+02 -0.11262E+06
 0.46449997E+02 -0.92788E+05
 0.46499996E+02 -0.22210E+06
 0.46549995E+02 -0.19077E+06
 0.46599998E+02  0.17165E+06
 0.46649998E+02  0.63851E+06
 0.46699997E+02  0.10750E+07
 0.46749996E+02  0.13186E+07
 0.46799995E+02  0.13582E+07
 0.46849998E+02  0.13525E+07
 0.46899998E+02  0.11489E+07
 0.46949997E+02  0.84327E+06
 0.46999996E+02  0.47422E+06
 0.47049995E+02  0.32688E+05
 0.47099998E+02 -0.36104E+06
 0.47149998E+02 -0.76791E+06
 0.47199997E+02 -0.90723E+06
 0.47249996E+02 -0.92895E+06
 0.47299995E+02 -0.98984E+06
 0.47349998E+02 -0.10946E+07
 0.47399998E+02 -0.13138E+07
 0.47449997E+02 -0.17100E+07
 0.47499996E+02 -0.20847E+07
 0.47549995E+02 -0.22733E+07
 0.47599998E+02 -0.23798E+07
 0.47649998E+02 -0.22830E+07
 0.47699997E+02 -0.20775E+07
 0.47749996E+02 -0.19773E+07
 0.47799995E+02 -0.21102E+07
 0.47849998E+02 -0.23086E+07
 0.47899998E+02 -0.23047E+07
 0.47949997E+02 -0.19381E+07
 0.47999996E+02 -0.13798E+07
 0.48049995E+02 -0.81934E+06
 0.48099998E+02 -0.31367E+06
 0.48149998E+02  0.70244E+05
 0.48199997E+02  0.27973E+06
 0.48249996E+02  0.38325E+06
 0.48299995E+02  0.36204E+06
 0.48349998E+02  0.26497E+05
 0.48399998E+02 -0.37012E+06
 0.48449997E+02 -0.86768E+06
 0.48499996E+02 -0.12424E+07
 0.48549995E+02 -0.12986E+07
 0.48599998E+02 -0.13546E+07
 0.48649998E+02 -0.14215E+07
 0.48699997E+02 -0.14894E+07
 0.48749996E+02 -0.16085E+07
 0.48799995E+02 -0.18088E+07
 0.48849998E+02 -0.18501E+07
 0.48899998E+02 -0.17323E+07
 0.48949997E+02 -0.17391E+07
 0.48999996E+02 -0.19628E+07
 0.49049995E+02 -0.22855E+07
 0.49099998E+02 -0.24466E+07
 0.49149998E+02 -0.24995E+07
 0.49199997E+02 -0.25308E+07
 0.49249996E+02 -0.24401E+07
 0.49299995E+02 -0.19380E+07
 0.49349998E+02 -0.10722E+07
 0.49399998E+02 -0.56023E+05
 0.49449997E+02  0.88227E+06
 0.49499996E+02  0.14515E+07
 0.49549995E+02  0.17061E+07
 0.49599998E+02  0.16521E+07
 0.49649998E+02  0.14160E+07
 0.49699997E+02  0.12310E+07
 0.49749996E+02  0.12703E+07
 0.49799995E+02  0.12762E+07
 0.49849998E+02  0.11361E+07
 0.49899998E+02  0.80442E+06
 0.49949997E+02  0.39215E+06
 0.49999996E+02  0.29414E+06
 0.50049995E+02  0.58751E+06
 0.50099998E+02  0.97972E+06
 0.50149998E+02  0.12676E+07
 0.50199997E+02  0.14291E+07
 0.50249996E+02  0.13453E+07
 0.50299995E+02  0.99224E+06
 0.50349998E+02  0.51772E+06
 0.50399998E+02  0.17601E+06
 0.50449997E+02 -0.45520E+05
 0.50499996E+02 -0.26727E+06
 0.50549995E+02 -0.38815E+06
 0.50599998E+02 -0.24795E+06
 0.50649998E+02  0.20627E+05
 0.50699997E+02  0.48113E+06
 0.50749996E+02  0.10567E+07
 0.50799995E+02  0.15369E+07
 0.50849998E+02  0.17825E+07
 0.50899998E+02  0.17588E+07
 0.50949997E+02  0.17284E+07
 0.50999996E+02  0.16161E+07
 0.51049995E+02  0.12814E+07
 0.51099998E+02  0.86954E+06
 0.51149998E+02  0.60515E+06
 0.51199997E+02  0.55450E+06
 0.51249996E+02  0.55952E+06
 0.51299995E+02  0.64468E+06
 0.51349998E+02  0.89296E+06
 0.51399998E+02  0.10949E+07
 0.51449997E+02  0.10774E+07
 0.51499996E+02  0.77369E+06
 0.51549995E+02  0.42166E+06
 0.51599998E+02  0.14156E+06
 0.51649998E+02 -0.38241E+05
 0.51699997E+02 -0.99956E+05
 0.51749996E+02 -0.13543E+06
 0.51799995E+02 -0.22771E+06
 0.51849998E+02 -0.34037E+06
 0.51899998E+02 -0.23618E+06
 0.51949997E+02 -0.13299E+05
 0.51999996E+02  0.15015E+06
 0.52049995E+02  0.25426E+06
 0.52099998E+02  0.36878E+06
 0.52149998E+02  0.50312E+06
 0.52199997E+02  0.64306E+06
 0.52249996E+02  0.65921E+06
 0.52299995E+02  0.46573E+06
 0.52349998E+02  0.14303E+06
 0.52399998E+02 -0.16195E+06
 0.52449997E+02 -0.49914E+06
 0.52499996E+02 -0.83018E+06
 0.52549995E+02 -0.10473E+07
 0.52599998E+02 -0.11552E+07
 0.52649998E+02 -0.10963E+07
 0.52699997E+02 -0.96123E+06
 0.52749996E+02 -0.83005E+06
 0.52799995E+02 -0.81556E+06
 0.52849998E+02 -0.74053E+06
 0.52899998E+02 -0.46177E+06
 0.52949997E+02 -0.12904E+06
 0.52999996E+02  0.56592E+05
 0.53049995E+02  0.64632E+05
 0.53099998E+02  0.22645E+05
 0.53149998E+02 -0.34540E+05
 0.53199997E+02 -0.96809E+05
 0.53249996E+02 -0.23693E+06
 0.53299995E+02 -0.39537E+06
 0.53349998E+02 -0.49214E+06
 0.53399998E+02 -0.62877E+06
 0.53449997E+02 -0.75898E+06
 0.53499996E+02 -0.84896E+06
 0.53549995E+02 -0.85831E+06
 0.53599998E+02 -0.69322E+06
 0.53649998E+02 -0.60830E+06
 0.53699997E+02 -0.73180E+06
 0.53749996E+02 -0.10043E+07
 0.53799995E+02 -0.12703E+07
 0.53849998E+02 -0.13425E+07
 0.53899998E+02 -0.12315E+07
 0.53949997E+02 -0.10709E+07
 0.53999996E+02 -0.10109E+07
 0.54049995E+02 -0.94728E+06
 0.54099998E+02 -0.79720E+06
 0.54149998E+02 -0.60288E+06
 0.54199997E+02 -0.36068E+06
 0.54249996E+02 -0.10936E+06
 0.54299995E+02  0.15310E+05
 0.54349998E+02 -0.57891E+05
 0.54399998E+02 -0.24577E+06
 0.54449997E+02 -0.49338E+06
 0.54499996E+02 -0.65141E+06
 0.54549995E+02 -0.70567E+06
 0.54599998E+02 -0.68670E+06
 0.54649998E+02 -0.52391E+06
 0.54699997E+02 -0.25056E+06
 0.54749996E+02  0.93568E+05
 0.54799995E+02  0.47862E+06
 0.54849998E+02  0.81464E+06
 0.54899998E+02  0.94885E+06
 0.54949997E+02  0.87440E+06
 0.54999996E+02  0.85021E+06
 0.55049995E+02  0.95081E+06
 0.55099998E+02  0.10913E+07
 0.55149998E+02  0.12425E+07
 0.55199997E+02  0.12742E+07
 0.55249996E+02  0.11768E+07
 0.55299995E+02  0.10206E+07
 0.55349998E+02  0.94227E+06
 0.55399998E+02  0.98508E+06
 0.55449997E+02  0.11139E+07
 0.55499996E+02  0.13501E+07
 0.55549995E+02  0.16725E+07
 0.55599998E+02  0.20112E+07
 0.55649998E+02  0.21684E+07
 0.55699997E+02  0.20384E+07
 0.55749996E+02  0.18041E+07
 0.55799995E+02  0.16178E+07
 0.55849995E+02  0.13778E+07
 0.55899998E+02  0.10890E+07
 0.55949997E+02  0.91038E+06
 0.55999996E+02  0.77809E+06
 0.56049995E+02  0.64595E+06
 0.56099995E+02  0.57521E+06
 0.56149998E+02  0.52593E+06
 0.56199997E+02  0.46501E+06
 0.56249996E+02  0.39882E+06
 0.56299995E+02  0.29447E+06
 0.56349995E+02  0.16888E+06
 0.56399998E+02  0.10186E+06
 0.56449997E+02  0.80504E+05
 0.56499996E+02  0.77398E+05
 0.56549995E+02  0.10256E+06
 0.56599995E+02  0.19871E+06
 0.56649998E+02  0.30736E+06
 0.56699997E+02  0.31595E+06
 0.56749996E+02  0.24657E+06
 0.56799995E+02  0.16564E+06
 0.56849995E+02  0.16528E+06
 0.56899998E+02  0.28957E+06
 0.56949997E+02  0.47631E+06
 0.56999996E+02  0.61636E+06
 0.57049995E+02  0.56923E+06
 0.57099995E+02  0.30442E+06
 0.57149998E+02 -0.11582E+06
 0.57199997E+02 -0.54297E+06
 0.57249996E+02 -0.85336E+06
 0.57299995E+02 -0.99762E+06
 0.57349995E+02 -0.98843E+06
 0.57399998E+02 -0.94045E+06
 0.57449997E+02 -0.84550E+06
 0.57499996E+02 -0.64724E+06
 0.57549995E+02 -0.39670E+06
 0.57599995E+02 -0.11173E+06
 0.57649998E+02  0.11283E+06
 0.57699997E+02  0.16813E+06
 0.57749996E+02  0.12836E+06
 0.57799995E+02  0.14371E+04
 0.57849995E+02 -0.16976E+06
 0.57899998E+02 -0.37229E+06
 0.57949997E+02 -0.60314E+06
 0.57999996E+02 -0.73693E+06
 0.58049995E+02 -0.83965E+06
 0.58099995E+02 -0.98364E+06
 0.58149998E+02 -0.11228E+07
 0.58199997E+02 -0.13400E+07
 0.58249996E+02 -0.15890E+07
 0.58299995E+02 -0.17654E+07
 0.58349995E+02 -0.18357E+07
 0.58399998E+02 -0.17813E+07
 0.58449997E+02 -0.17004E+07
 0.58499996E+02 -0.16987E+07
 0.58549995E+02 -0.17118E+07
 0.58599995E+02 -0.16664E+07
 0.58649998E+02 -0.15123E+07
 0.58699997E+02 -0.11246E+07
 0.58749996E+02 -0.62618E+06
 0.58799995E+02 -0.19267E+06
 0.58849995E+02  0.96934E+05
 0.58899998E+02  0.19462E+06
 0.58949997E+02  0.16792E+06
 0.58999996E+02  0.96665E+05
 0.59049995E+02  0.26082E+05
 0.59099995E+02  0.38478E+05
 0.59149998E+02  0.16901E+06
 0.59199997E+02  0.37434E+06
 0.59249996E+02  0.47846E+06
 0.59299995E+02  0.41057E+06
 0.59349995E+02  0.22922E+06
 0.59399998E+02  0.31988E+05
 0.59449997E+02 -0.17642E+06
 0.59499996E+02 -0.43125E+06
 0.59549995E+02 -0.55970E+06
 0.59599995E+02 -0.55515E+06
 0.59649998E+02 -0.44450E+06
 0.59699997E+02 -0.26372E+06
 0.59749996E+02 -0.49455E+05
 0.59799995E+02  0.14413E+06
 0.59849995E+02  0.24402E+06
 0.59899998E+02  0.20788E+06
 0.59949997E+02  0.99530E+05
 0.59999996E+02 -0.11386E+05
 0.60049995E+02 -0.19589E+06
 0.60099995E+02 -0.42318E+06
 0.60149998E+02 -0.55993E+06
 0.60199997E+02 -0.56898E+06
 0.60249996E+02 -0.50652E+06
 0.60299995E+02 -0.32848E+06
 0.60349995E+02 -0.12990E+06
 0.60399998E+02 -0.52913E+04
 0.60449997E+02  0.99822E+05
 0.60499996E+02  0.22408E+06
 0.60549995E+02  0.29304E+06
 0.60599995E+02  0.29706E+06
 0.60649998E+02  0.33286E+06
 0.60699997E+02  0.42781E+06
 0.60749996E+02  0.53782E+06
 0.60799995E+02  0.60129E+06
 0.60849995E+02  0.61756E+06
 0.60899998E+02  0.57309E+06
 0.60949997E+02  0.53695E+06
 0.60999996E+02  0.53784E+06
 0.61049995E+02  0.52585E+06
 0.61099995E+02  0.53474E+06
 0.61149998E+02  0.55449E+06
 0.61199997E+02  0.55272E+06
 0.61249996E+02  0.50592E+06
 0.61299995E+02  0.39476E+06
 0.61349995E+02  0.31126E+06
 0.61399998E+02  0.29755E+06
 0.61449997E+02  0.29956E+06
 0.61499996E+02  0.31738E+06
 0.61549995E+02  0.35718E+06
 0.61599995E+02  0.43249E+06
 0.61649998E+02  0.51334E+06
 0.61699997E+02  0.58509E+06
 0.61749996E+02  0.66050E+06
 0.61799995E+02  0.68864E+06
 0.61849995E+02  0.66600E+06
 0.61899998E+02  0.58405E+06
 0.61949997E+02  0.44288E+06
 0.61999996E+02  0.31552E+06
 0.62049995E+02  0.23826E+06
 0.62099998E+02  0.18813E+06
 0.62149994E+02  0.21587E+06
 0.62199997E+02  0.32466E+06
 0.62249992E+02  0.47592E+06
 0.62299995E+02  0.66867E+06
 0.62349998E+02  0.85460E+06
 0.62399994E+02  0.99461E+06
 0.62449997E+02  0.10690E+07
 0.62499992E+02  0.10392E+07
 0.62549995E+02  0.85840E+06
 0.62599998E+02  0.50651E+06
 0.62649994E+02  0.20291E+05
 0.62699997E+02 -0.50362E+06
 0.62749992E+02 -0.97217E+06
 0.62799995E+02 -0.13168E+07
 0.62849998E+02 -0.15315E+07
 0.62899994E+02 -0.16295E+07
 0.62949997E+02 -0.16375E+07
 0.62999992E+02 -0.15834E+07
 0.63049995E+02 -0.14787E+07
 0.63099998E+02 -0.13519E+07
 0.63149994E+02 -0.11856E+07
 0.63199997E+02 -0.97397E+06
 0.63249992E+02 -0.74633E+06
 0.63299995E+02 -0.51978E+06
 0.63349998E+02 -0.32951E+06
 0.63399994E+02 -0.21234E+06
 0.63449997E+02 -0.17314E+06
 0.63499992E+02 -0.17918E+06
 0.63549995E+02 -0.19832E+06
 0.63599998E+02 -0.22740E+06
 0.63649994E+02 -0.24106E+06
 0.63699997E+02 -0.18649E+06
 0.63749992E+02 -0.98315E+05
 0.63799995E+02  0.10042E+05
 0.63849998E+02  0.15501E+06
 0.63899994E+02  0.24876E+06
 0.63949997E+02  0.31367E+06
 0.63999992E+02  0.41217E+06
 0.64049995E+02  0.43248E+06
 0.64099998E+02  0.35567E+06
 0.64149994E+02  0.21211E+06
 0.64199997E+02 -0.65734E+04
 0.64249992E+02 -0.20172E+06
 0.64299995E+02 -0.33145E+06
 0.64349998E+02 -0.38745E+06
 0.64399994E+02 -0.36993E+06
 0.64449997E+02 -0.32222E+06
 0.64499992E+02 -0.26358E+06
 0.64549995E+02 -0.22758E+06
 0.64599998E+02 -0.18894E+06
 0.64649994E+02 -0.12550E+06
 0.64699997E+02 -0.75905E+05
 0.64749992E+02 -0.61751E+05
 0.64799995E+02 -0.12419E+06
 0.64849998E+02 -0.23304E+06
 0.64899994E+02 -0.29498E+06
 0.64949997E+02 -0.31985E+06
 0.64999992E+02 -0.36104E+06
 0.65049995E+02 -0.36989E+06
 0.65099998E+02 -0.30924E+06
 0.65149994E+02 -0.19467E+06
 0.65199997E+02 -0.51692E+05
 0.65249992E+02  0.10814E+06
 0.65299995E+02  0.28123E+06
 0.65349998E+02  0.46400E+06
 0.65399994E+02  0.64530E+06
 0.65449997E+02  0.80109E+06
 0.65499992E+02  0.91258E+06
 0.65549995E+02  0.96086E+06
 0.65599998E+02  0.93093E+06
 0.65649994E+02  0.85394E+06
 0.65699997E+02  0.79270E+06
 0.65749992E+02  0.72746E+06
 0.65799995E+02  0.62732E+06
 0.65849998E+02  0.48569E+06
 0.65899994E+02  0.33694E+06
 0.65949997E+02  0.19032E+06
 0.65999992E+02  0.19014E+05
 0.66049995E+02 -0.14926E+06
 0.66099998E+02 -0.19966E+06
 0.66149994E+02 -0.10174E+06
 0.66199997E+02  0.10517E+05
 0.66249992E+02  0.34785E+05
 0.66299995E+02 -0.33985E+04
 0.66349998E+02 -0.41338E+05
 0.66399994E+02 -0.96515E+05
 0.66449997E+02 -0.20471E+06
 0.66499992E+02 -0.31352E+06
 0.66549995E+02 -0.33480E+06
 0.66599998E+02 -0.28705E+06
 0.66649994E+02 -0.23034E+06
 0.66699997E+02 -0.18434E+06
 0.66749992E+02 -0.14581E+06
 0.66799995E+02 -0.11631E+06
 0.66849998E+02 -0.10859E+06
 0.66899994E+02 -0.82136E+05
 0.66949997E+02 -0.38392E+05
 0.66999992E+02  0.59102E+04
 0.67049995E+02  0.68756E+05
 0.67099998E+02  0.14295E+06
 0.67149994E+02  0.22745E+06
 0.67199997E+02  0.30631E+06
 0.67249992E+02  0.36710E+06
 0.67299995E+02  0.39432E+06
 0.67349998E+02  0.38691E+06
 0.67399994E+02  0.35263E+06
 0.67449997E+02  0.27166E+06
 0.67499992E+02  0.14470E+06
 0.67549995E+02 -0.16293E+05
 0.67599998E+02 -0.20924E+06
 0.67649994E+02 -0.34639E+06
 0.67699997E+02 -0.40107E+06
 0.67749992E+02 -0.42185E+06
 0.67799995E+02 -0.46790E+06
 0.67849998E+02 -0.57475E+06
 0.67899994E+02 -0.66194E+06
 0.67949997E+02 -0.66664E+06
 0.67999992E+02 -0.58816E+06
 0.68049995E+02 -0.47632E+06
 0.68099998E+02 -0.37321E+06
 0.68149994E+02 -0.34758E+06
 0.68199997E+02 -0.41495E+06
 0.68249992E+02 -0.50436E+06
 0.68299995E+02 -0.57673E+06
 0.68349998E+02 -0.65212E+06
 0.68399994E+02 -0.70462E+06
 0.68449997E+02 -0.64893E+06
 0.68499992E+02 -0.49175E+06
 0.68549995E+02 -0.30923E+06
 0.68599998E+02 -0.18812E+06
 0.68649994E+02 -0.18972E+06
 0.68699997E+02 -0.28540E+06
 0.68749992E+02 -0.37455E+06
 0.68799995E+02 -0.41743E+06
 0.68849998E+02 -0.42462E+06
 0.68899994E+02 -0.41238E+06
 0.68949997E+02 -0.36540E+06
 0.68999992E+02 -0.29794E+06
 0.69049995E+02 -0.24131E+06
 0.69099998E+02 -0.22882E+06
 0.69149994E+02 -0.26238E+06
 0.69199997E+02 -0.30435E+06
 0.69249992E+02 -0.36053E+06
 0.69299995E+02 -0.37962E+06
 0.69349998E+02 -0.36579E+06
 0.69399994E+02 -0.36120E+06
 0.69449997E+02 -0.38258E+06
 0.69499992E+02 -0.41078E+06
 0.69549995E+02 -0.41548E+06
 0.69599998E+02 -0.41979E+06
 0.69649994E+02 -0.42642E+06
 0.69699997E+02 -0.43974E+06
 0.69749992E+02 -0.47029E+06
 0.69799995E+02 -0.50274E+06
 0.69849998E+02 -0.50920E+06
 0.69899994E+02 -0.47365E+06
 0.69949997E+02 -0.40104E+06
 0.69999992E+02 -0.29522E+06
 0.70049995E+02 -0.15716E+06
 0.70099998E+02 -0.81108E+04
 0.70149994E+02  0.15140E+06
 0.70199997E+02  0.28629E+06
 0.70249992E+02  0.36736E+06
 0.70299995E+02  0.40534E+06
 0.70349998E+02  0.42752E+06
 0.70399994E+02  0.45629E+06
 0.70449997E+02  0.48970E+06
 0.70499992E+02  0.51096E+06
 0.70549995E+02  0.51017E+06
 0.70599998E+02  0.50556E+06
 0.70649994E+02  0.51482E+06
 0.70699997E+02  0.57774E+06
 0.70749992E+02  0.64785E+06
 0.70799995E+02  0.66067E+06
 0.70849998E+02  0.61302E+06
 0.70899994E+02  0.52125E+06
 0.70949997E+02  0.42644E+06
 0.70999992E+02  0.35186E+06
 0.71049995E+02  0.29636E+06
 0.71099998E+02  0.23994E+06
 0.71149994E+02  0.21209E+06
 0.71199997E+02  0.24459E+06
 0.71249992E+02  0.30787E+06
 0.71299995E+02  0.38562E+06
 0.71349998E+02  0.47914E+06
 0.71399994E+02  0.57090E+06
 0.71449997E+02  0.65457E+06
 0.71499992E+02  0.69958E+06
 0.71549995E+02  0.66638E+06
 0.71599998E+02  0.55929E+06
 0.71649994E+02  0.41629E+06
 0.71699997E+02  0.30073E+06
 0.71749992E+02  0.23941E+06
 0.71799995E+02  0.22678E+06
 0.71849998E+02  0.26881E+06
 0.71899994E+02  0.34615E+06
 0.71949997E+02  0.38771E+06
 0.71999992E+02  0.35219E+06
 0.72049995E+02  0.26484E+06
 0.72099998E+02  0.14454E+06
 0.72149994E+02 -0.18038E+05
 0.72199997E+02 -0.20514E+06
 0.72249992E+02 -0.38634E+06
 0.72299995E+02 -0.54293E+06
 0.72349998E+02 -0.64188E+06
 0.72399994E+02 -0.65642E+06
 0.72449997E+02 -0.60663E+06
 0.72499992E+02 -0.52484E+06
 0.72549995E+02 -0.43148E+06
 0.72599998E+02 -0.33752E+06
 0.72649994E+02 -0.27624E+06
 0.72699997E+02 -0.27851E+06
 0.72749992E+02 -0.34968E+06
 0.72799995E+02 -0.46991E+06
 0.72849998E+02 -0.59324E+06
 0.72899994E+02 -0.68283E+06
 0.72949997E+02 -0.72195E+06
 0.72999992E+02 -0.73260E+06
 0.73049995E+02 -0.71009E+06
 0.73099998E+02 -0.63259E+06
 0.73149994E+02 -0.50732E+06
 0.73199997E+02 -0.34444E+06
 0.73249992E+02 -0.15375E+06
 0.73299995E+02  0.36761E+05
 0.73349998E+02  0.22793E+06
 0.73399994E+02  0.39689E+06
 0.73449997E+02  0.50764E+06
 0.73499992E+02  0.57721E+06
 0.73549995E+02  0.62148E+06
 0.73599998E+02  0.66741E+06
 0.73649994E+02  0.68465E+06
 0.73699997E+02  0.67320E+06
 0.73749992E+02  0.68337E+06
 0.73799995E+02  0.73230E+06
 0.73849998E+02  0.80115E+06
 0.73899994E+02  0.83030E+06
 0.73949997E+02  0.80018E+06
 0.73999992E+02  0.74871E+06
 0.74049995E+02  0.68983E+06
 0.74099998E+02  0.61240E+06
 0.74149994E+02  0.53187E+06
 0.74199997E+02  0.45282E+06
 0.74249992E+02  0.37947E+06
 0.74299995E+02  0.32281E+06
 0.74349998E+02  0.28353E+06
 0.74399994E+02  0.25332E+06
 0.74449997E+02  0.24491E+06
 0.74499992E+02  0.25181E+06
 0.74549995E+02  0.25372E+06
 0.74599998E+02  0.24073E+06
 0.74649994E+02  0.17473E+06
 0.74699997E+02  0.66820E+05
 0.74749992E+02 -0.19401E+05
 0.74799995E+02 -0.60598E+05
 0.74849998E+02 -0.93388E+05
 0.74899994E+02 -0.14960E+06
 0.74949997E+02 -0.22349E+06
 0.74999992E+02 -0.30623E+06
 0.75049995E+02 -0.38627E+06
 0.75099998E+02 -0.45755E+06
 0.75149994E+02 -0.50228E+06
 0.75199997E+02 -0.51410E+06
 0.75249992E+02 -0.49977E+06
 0.75299995E+02 -0.44592E+06
 0.75349998E+02 -0.39642E+06
 0.75399994E+02 -0.40219E+06
 0.75449997E+02 -0.45413E+06
 0.75499992E+02 -0.53086E+06
 0.75549995E+02 -0.61711E+06
 0.75599998E+02 -0.71193E+06
 0.75649994E+02 -0.81169E+06
 0.75699997E+02 -0.89845E+06
 0.75749992E+02 -0.95392E+06
 0.75799995E+02 -0.97913E+06
 0.75849998E+02 -0.98564E+06
 0.75899994E+02 -0.98105E+06
 0.75949997E+02 -0.97815E+06
 0.75999992E+02 -0.96643E+06
 0.76049995E+02 -0.91955E+06
 0.76099998E+02 -0.85573E+06
 0.76149994E+02 -0.78443E+06
 0.76199997E+02 -0.70117E+06
 0.76249992E+02 -0.64524E+06
 0.76299995E+02 -0.62045E+06
 0.76349998E+02 -0.59749E+06
 0.76399994E+02 -0.57170E+06
 0.76449997E+02 -0.53100E+06
 0.76499992E+02 -0.45533E+06
 0.76549995E+02 -0.35239E+06
 0.76599998E+02 -0.22771E+06
 0.76649994E+02 -0.90535E+05
 0.76699997E+02  0.57061E+05
 0.76749992E+02  0.20734E+06
 0.76799995E+02  0.31139E+06
 0.76849998E+02  0.35189E+06
 0.76899994E+02  0.35939E+06
 0.76949997E+02  0.33749E+06
 0.76999992E+02  0.28319E+06
 0.77049995E+02  0.23767E+06
 0.77099998E+02  0.21255E+06
 0.77149994E+02  0.17377E+06
 0.77199997E+02  0.11008E+06
 0.77249992E+02  0.55853E+05
 0.77299995E+02  0.25588E+05
 0.77349998E+02  0.18651E+05
 0.77399994E+02  0.54451E+05
 0.77449997E+02  0.15675E+06
 0.77499992E+02  0.31682E+06
 0.77549995E+02  0.49319E+06
 0.77599998E+02  0.65966E+06
 0.77649994E+02  0.80211E+06
 0.77699997E+02  0.91379E+06
 0.77749992E+02  0.98195E+06
 0.77799995E+02  0.10059E+07
 0.77849998E+02  0.99317E+06
 0.77899994E+02  0.92932E+06
 0.77949997E+02  0.81257E+06
 0.77999992E+02  0.67924E+06
 0.78049995E+02  0.56888E+06
 0.78099998E+02  0.48268E+06
 0.78149994E+02  0.40071E+06
 0.78199997E+02  0.33652E+06
 0.78249992E+02  0.28895E+06
 0.78299995E+02  0.24101E+06
 0.78349998E+02  0.18108E+06
 0.78399994E+02  0.94986E+05
 0.78449997E+02  0.39892E+04
 0.78499992E+02 -0.52993E+05
 0.78549995E+02 -0.52485E+05
 0.78599998E+02  0.21213E+04
 0.78649994E+02  0.72578E+05
 0.78699997E+02  0.13110E+06
 0.78749992E+02  0.18501E+06
 0.78799995E+02  0.21361E+06
 0.78849998E+02  0.19587E+06
 0.78899994E+02  0.14805E+06
 0.78949997E+02  0.10582E+06
 0.78999992E+02  0.85753E+05
 0.79049995E+02  0.75179E+05
 0.79099998E+02  0.39948E+05
 0.79149994E+02 -0.20798E+05
 0.79199997E+02 -0.83421E+05
 0.79249992E+02 -0.12871E+06
 0.79299995E+02 -0.13338E+06
 0.79349998E+02 -0.10805E+06
 0.79399994E+02 -0.58681E+05
 0.79449997E+02 -0.44596E+04
 0.79499992E+02  0.16042E+05
 0.79549995E+02 -0.11402E+04
 0.79599998E+02 -0.37026E+05
 0.79649994E+02 -0.78979E+05
 0.79699997E+02 -0.11886E+06
 0.79749992E+02 -0.12865E+06
 0.79799995E+02 -0.10229E+06
 0.79849998E+02 -0.61421E+05
 0.79899994E+02 -0.14014E+05
 0.79949997E+02  0.27939E+05
 0.79999992E+02  0.65677E+05
 0.80049995E+02  0.96221E+05
 0.80099998E+02  0.12547E+06
 0.80149994E+02  0.15256E+06
 0.80199997E+02  0.15315E+06
 0.80249992E+02  0.12576E+06
 0.80299995E+02  0.75435E+05
 0.80349998E+02  0.11206E+05
 0.80399994E+02 -0.53974E+05
 0.80449997E+02 -0.95608E+05
 0.80499992E+02 -0.89106E+05
 0.80549995E+02 -0.31938E+05
 0.80599998E+02  0.40097E+05
 0.80649994E+02  0.98464E+05
 0.80699997E+02  0.16031E+06
 0.80749992E+02  0.22029E+06
 0.80799995E+02  0.24119E+06
 0.80849998E+02  0.20728E+06
 0.80899994E+02  0.12966E+06
 0.80949997E+02  0.58646E+05
 0.80999992E+02  0.31938E+05
 0.81049995E+02  0.34093E+05
 0.81099998E+02  0.43619E+05
 0.81149994E+02  0.41352E+05
 0.81199997E+02  0.22657E+05
 0.81249992E+02 -0.66825E+03
 0.81299995E+02 -0.12315E+05
 0.81349998E+02  0.14773E+04
 0.81399994E+02  0.48709E+05
 0.81449997E+02  0.11486E+06
 0.81499992E+02  0.18320E+06
 0.81549995E+02  0.23784E+06
 0.81599998E+02  0.26129E+06
 0.81649994E+02  0.27721E+06
 0.81699997E+02  0.30436E+06
 0.81749992E+02  0.32836E+06
 0.81799995E+02  0.33007E+06
 0.81849998E+02  0.30082E+06
 0.81899994E+02  0.25428E+06
 0.81949997E+02  0.21080E+06
 0.81999992E+02  0.16627E+06
 0.82049995E+02  0.10862E+06
 0.82099998E+02  0.34239E+05
 0.82149994E+02 -0.75596E+05
 0.82199997E+02 -0.23779E+06
 0.82249992E+02 -0.42604E+06
 0.82299995E+02 -0.59292E+06
 0.82349998E+02 -0.72314E+06
 0.82399994E+02 -0.80992E+06
 0.82449997E+02 -0.85129E+06
 0.82499992E+02 -0.84847E+06
 0.82549995E+02 -0.80823E+06
 0.82599998E+02 -0.75770E+06
 0.82649994E+02 -0.70536E+06
 0.82699997E+02 -0.65488E+06
 0.82749992E+02 -0.60641E+06
 0.82799995E+02 -0.55759E+06
 0.82849998E+02 -0.51796E+06
 0.82899994E+02 -0.48303E+06
 0.82949997E+02 -0.45091E+06
 0.82999992E+02 -0.45581E+06
 0.83049995E+02 -0.52374E+06
 0.83099998E+02 -0.63652E+06
 0.83149994E+02 -0.75471E+06
 0.83199997E+02 -0.83494E+06
 0.83249992E+02 -0.87722E+06
 0.83299995E+02 -0.89251E+06
 0.83349998E+02 -0.86640E+06
 0.83399994E+02 -0.80493E+06
 0.83449997E+02 -0.71544E+06
 0.83499992E+02 -0.61476E+06
 0.83549995E+02 -0.52462E+06
 0.83599998E+02 -0.43743E+06
 0.83649994E+02 -0.33861E+06
 0.83699997E+02 -0.22443E+06
 0.83749992E+02 -0.10621E+06
 0.83799995E+02  0.11151E+04
 0.83849998E+02  0.10176E+06
 0.83899994E+02  0.19362E+06
 0.83949997E+02  0.26529E+06
 0.83999992E+02  0.31642E+06
 0.84049995E+02  0.35523E+06
 0.84099998E+02  0.38028E+06
 0.84149994E+02  0.38382E+06
 0.84199997E+02  0.38161E+06
 0.84249992E+02  0.38026E+06
 0.84299995E+02  0.38727E+06
 0.84349998E+02  0.41800E+06
 0.84399994E+02  0.46760E+06
 0.84449997E+02  0.52556E+06
 0.84499992E+02  0.57821E+06
 0.84549995E+02  0.59904E+06
 0.84599998E+02  0.57380E+06
 0.84649994E+02  0.52101E+06
 0.84699997E+02  0.46173E+06
 0.84749992E+02  0.40732E+06
 0.84799995E+02  0.35162E+06
 0.84849998E+02  0.28150E+06
 0.84899994E+02  0.19746E+06
 0.84949997E+02  0.11592E+06
 0.84999992E+02  0.63384E+05
 0.85049995E+02  0.48544E+05
 0.85099998E+02  0.68740E+05
 0.85149994E+02  0.10656E+06
 0.85199997E+02  0.13058E+06
 0.85249992E+02  0.13103E+06
 0.85299995E+02  0.11583E+06
 0.85349998E+02  0.95625E+05
 0.85399994E+02  0.82961E+05
 0.85449997E+02  0.74203E+05
 0.85499992E+02  0.63759E+05
 0.85549995E+02  0.58059E+05
 0.85599998E+02  0.57483E+05
 0.85649994E+02  0.65757E+05
 0.85699997E+02  0.72137E+05
 0.85749992E+02  0.74775E+05
 0.85799995E+02  0.77995E+05
 0.85849998E+02  0.76793E+05
 0.85899994E+02  0.84734E+05
 0.85949997E+02  0.11569E+06
 0.85999992E+02  0.15960E+06
 0.86049995E+02  0.18945E+06
 0.86099998E+02  0.20726E+06
 0.86149994E+02  0.22975E+06
 0.86199997E+02  0.26239E+06
 0.86249992E+02  0.29933E+06
 0.86299995E+02  0.31802E+06
 0.86349998E+02  0.31944E+06
 0.86399994E+02  0.31109E+06
 0.86449997E+02  0.28910E+06
 0.86499992E+02  0.25941E+06
 0.86549995E+02  0.22475E+06
 0.86599998E+02  0.18022E+06
 0.86649994E+02  0.12036E+06
 0.86699997E+02  0.64819E+05
 0.86749992E+02  0.32074E+05
 0.86799995E+02  0.23620E+05
 0.86849998E+02  0.43321E+05
 0.86899994E+02  0.78155E+05
 0.86949997E+02  0.11106E+06
 0.86999992E+02  0.15036E+06
 0.87049995E+02  0.20883E+06
 0.87099998E+02  0.28080E+06
 0.87149994E+02  0.34024E+06
 0.87199997E+02  0.37389E+06
 0.87249992E+02  0.39476E+06
 0.87299995E+02  0.41780E+06
 0.87349998E+02  0.45218E+06
 0.87399994E+02  0.49466E+06
 0.87449997E+02  0.53477E+06
 0.87499992E+02  0.54930E+06
 0.87549995E+02  0.52524E+06
 0.87599991E+02  0.47646E+06
 0.87649994E+02  0.41820E+06
 0.87699997E+02  0.37372E+06
 0.87749992E+02  0.36480E+06
 0.87799995E+02  0.37312E+06
 0.87849991E+02  0.37387E+06
 0.87899994E+02  0.36281E+06
 0.87949997E+02  0.34400E+06
 0.87999992E+02  0.31418E+06
 0.88049995E+02  0.27078E+06
 0.88099991E+02  0.20230E+06
 0.88149994E+02  0.92230E+05
 0.88199997E+02 -0.43667E+05
 0.88249992E+02 -0.18613E+06
 0.88299995E+02 -0.31670E+06
 0.88349991E+02 -0.42386E+06
 0.88399994E+02 -0.49220E+06
 0.88449997E+02 -0.52967E+06
 0.88499992E+02 -0.54691E+06
 0.88549995E+02 -0.53259E+06
 0.88599991E+02 -0.48870E+06
 0.88649994E+02 -0.42892E+06
 0.88699997E+02 -0.37643E+06
 0.88749992E+02 -0.35249E+06
 0.88799995E+02 -0.35639E+06
 0.88849991E+02 -0.34983E+06
 0.88899994E+02 -0.32476E+06
 0.88949997E+02 -0.28495E+06
 0.88999992E+02 -0.23734E+06
 0.89049995E+02 -0.20885E+06
 0.89099991E+02 -0.20250E+06
 0.89149994E+02 -0.20837E+06
 0.89199997E+02 -0.20529E+06
 0.89249992E+02 -0.17929E+06
 0.89299995E+02 -0.14150E+06
 0.89349991E+02 -0.10790E+06
 0.89399994E+02 -0.81382E+05
 0.89449997E+02 -0.70166E+05
 0.89499992E+02 -0.90093E+05
 0.89549995E+02 -0.14082E+06
 0.89599991E+02 -0.20532E+06
 0.89649994E+02 -0.26612E+06
 0.89699997E+02 -0.30413E+06
 0.89749992E+02 -0.31633E+06
 0.89799995E+02 -0.32252E+06
 0.89849991E+02 -0.31892E+06
 0.89899994E+02 -0.29486E+06
 0.89949997E+02 -0.26018E+06
 0.89999992E+02 -0.22750E+06
 0.90049995E+02 -0.20611E+06
 0.90099991E+02 -0.20085E+06
 0.90149994E+02 -0.20584E+06
 0.90199997E+02 -0.20727E+06
 0.90249992E+02 -0.18850E+06
 0.90299995E+02 -0.14410E+06
 0.90349991E+02 -0.89626E+05
 0.90399994E+02 -0.35778E+05
 0.90449997E+02  0.17755E+05
 0.90499992E+02  0.73802E+05
 0.90549995E+02  0.13014E+06
 0.90599991E+02  0.16508E+06
 0.90649994E+02  0.17213E+06
 0.90699997E+02  0.16744E+06
 0.90749992E+02  0.16925E+06
 0.90799995E+02  0.17560E+06
 0.90849991E+02  0.16854E+06
 0.90899994E+02  0.14797E+06
 0.90949997E+02  0.11149E+06
 0.90999992E+02  0.51834E+05
 0.91049995E+02 -0.19949E+05
 0.91099991E+02 -0.97709E+05
 0.91149994E+02 -0.17446E+06
 0.91199997E+02 -0.23949E+06
 0.91249992E+02 -0.28155E+06
 0.91299995E+02 -0.30991E+06
 0.91349991E+02 -0.34970E+06
 0.91399994E+02 -0.40022E+06
 0.91449997E+02 -0.44975E+06
 0.91499992E+02 -0.48478E+06
 0.91549995E+02 -0.50421E+06
 0.91599991E+02 -0.50376E+06
 0.91649994E+02 -0.48560E+06
 0.91699997E+02 -0.45347E+06
 0.91749992E+02 -0.41361E+06
 0.91799995E+02 -0.38479E+06
 0.91849991E+02 -0.37956E+06
 0.91899994E+02 -0.39315E+06
 0.91949997E+02 -0.40950E+06
 0.91999992E+02 -0.42079E+06
 0.92049995E+02 -0.42380E+06
 0.92099991E+02 -0.41914E+06
 0.92149994E+02 -0.42047E+06
 0.92199997E+02 -0.43304E+06
 0.92249992E+02 -0.44474E+06
 0.92299995E+02 -0.44812E+06
 0.92349991E+02 -0.43759E+06
 0.92399994E+02 -0.40557E+06
 0.92449997E+02 -0.34714E+06
 0.92499992E+02 -0.28791E+06
 0.92549995E+02 -0.25359E+06
 0.92599991E+02 -0.23957E+06
 0.92649994E+02 -0.22842E+06
 0.92699997E+02 -0.20432E+06
 0.92749992E+02 -0.17143E+06
 0.92799995E+02 -0.12497E+06
 0.92849991E+02 -0.59956E+05
 0.92899994E+02  0.13391E+05
 0.92949997E+02  0.92763E+05
 0.92999992E+02  0.17717E+06
 0.93049995E+02  0.26774E+06
 0.93099991E+02  0.36634E+06
 0.93149994E+02  0.46952E+06
 0.93199997E+02  0.56238E+06
 0.93249992E+02  0.63815E+06
 0.93299995E+02  0.70079E+06
 0.93349991E+02  0.73832E+06
 0.93399994E+02  0.75801E+06
 0.93449997E+02  0.78150E+06
 0.93499992E+02  0.81606E+06
 0.93549995E+02  0.86025E+06
 0.93599991E+02  0.90334E+06
 0.93649994E+02  0.94250E+06
 0.93699997E+02  0.98090E+06
 0.93749992E+02  0.10238E+07
 0.93799995E+02  0.10752E+07
 0.93849991E+02  0.11362E+07
 0.93899994E+02  0.12033E+07
 0.93949997E+02  0.12654E+07
 0.93999992E+02  0.13066E+07
 0.94049995E+02  0.13158E+07
 0.94099991E+02  0.12804E+07
 0.94149994E+02  0.11914E+07
 0.94199997E+02  0.10673E+07
 0.94249992E+02  0.93164E+06
 0.94299995E+02  0.79679E+06
 0.94349991E+02  0.67222E+06
 0.94399994E+02  0.55700E+06
 0.94449997E+02  0.45041E+06
 0.94499992E+02  0.35811E+06
 0.94549995E+02  0.27725E+06
 0.94599991E+02  0.20828E+06
 0.94649994E+02  0.13977E+06
 0.94699997E+02  0.61516E+05
 0.94749992E+02 -0.24071E+05
 0.94799995E+02 -0.11212E+06
 0.94849991E+02 -0.18930E+06
 0.94899994E+02 -0.24386E+06
 0.94949997E+02 -0.27436E+06
 0.94999992E+02 -0.29523E+06
 0.95049995E+02 -0.31843E+06
 0.95099991E+02 -0.35234E+06
 0.95149994E+02 -0.40638E+06
 0.95199997E+02 -0.47265E+06
 0.95249992E+02 -0.53303E+06
 0.95299995E+02 -0.56663E+06
 0.95349991E+02 -0.56651E+06
 0.95399994E+02 -0.55410E+06
 0.95449997E+02 -0.54265E+06
 0.95499992E+02 -0.53517E+06
 0.95549995E+02 -0.53742E+06
 0.95599991E+02 -0.54587E+06
 0.95649994E+02 -0.55466E+06
 0.95699997E+02 -0.55620E+06
 0.95749992E+02 -0.54059E+06
 0.95799995E+02 -0.50625E+06
 0.95849991E+02 -0.45554E+06
 0.95899994E+02 -0.40123E+06
 0.95949997E+02 -0.35992E+06
 0.95999992E+02 -0.32603E+06
 0.96049995E+02 -0.29758E+06
 0.96099991E+02 -0.27443E+06
 0.96149994E+02 -0.24465E+06
 0.96199997E+02 -0.20154E+06
 0.96249992E+02 -0.15325E+06
 0.96299995E+02 -0.12277E+06
 0.96349991E+02 -0.12574E+06
 0.96399994E+02 -0.15707E+06
 0.96449997E+02 -0.20011E+06
 0.96499992E+02 -0.23452E+06
 0.96549995E+02 -0.24862E+06
 0.96599991E+02 -0.24649E+06
 0.96649994E+02 -0.23742E+06
 0.96699997E+02 -0.22206E+06
 0.96749992E+02 -0.19311E+06
 0.96799995E+02 -0.15621E+06
 0.96849991E+02 -0.11434E+06
 0.96899994E+02 -0.68735E+05
 0.96949997E+02 -0.22467E+05
 0.96999992E+02  0.41342E+05
 0.97049995E+02  0.11700E+06
 0.97099991E+02  0.17745E+06
 0.97149994E+02  0.21402E+06
 0.97199997E+02  0.23309E+06
 0.97249992E+02  0.24645E+06
 0.97299995E+02  0.25718E+06
 0.97349991E+02  0.26591E+06
 0.97399994E+02  0.26697E+06
 0.97449997E+02  0.26097E+06
 0.97499992E+02  0.25693E+06
 0.97549995E+02  0.25832E+06
 0.97599991E+02  0.25501E+06
 0.97649994E+02  0.23914E+06
 0.97699997E+02  0.21634E+06
 0.97749992E+02  0.19466E+06
 0.97799995E+02  0.18567E+06
 0.97849991E+02  0.18372E+06
 0.97899994E+02  0.18444E+06
 0.97949997E+02  0.18923E+06
 0.97999992E+02  0.18689E+06
