-0.20000000E+01 -0.30589E+04
-0.19500000E+01 -0.30447E+04
-0.19000000E+01 -0.30473E+04
-0.18500000E+01 -0.30406E+04
-0.18000000E+01 -0.30487E+04
-0.17500000E+01 -0.30496E+04
-0.17000000E+01 -0.30485E+04
-0.16500001E+01 -0.30510E+04
-0.16000000E+01 -0.30567E+04
-0.15500000E+01 -0.30567E+04
-0.15000000E+01 -0.30562E+04
-0.14500000E+01 -0.30453E+04
-0.14000001E+01 -0.30566E+04
-0.13500000E+01 -0.30516E+04
-0.13000001E+01 -0.30604E+04
-0.12500000E+01 -0.30687E+04
-0.12000000E+01 -0.30638E+04
-0.11500001E+01 -0.30653E+04
-0.11000000E+01 -0.30629E+04
-0.10500001E+01 -0.30705E+04
-0.10000000E+01 -0.30756E+04
-0.95000005E+00 -0.30787E+04
-0.90000010E+00 -0.30734E+04
-0.85000002E+00 -0.30774E+04
-0.80000007E+00 -0.30715E+04
-0.75000012E+00 -0.30658E+04
-0.70000005E+00 -0.30630E+04
-0.65000010E+00 -0.30695E+04
-0.60000014E+00 -0.30630E+04
-0.55000007E+00 -0.30532E+04
-0.50000012E+00 -0.30729E+04
-0.45000005E+00 -0.30735E+04
-0.40000010E+00 -0.30625E+04
-0.35000014E+00 -0.30560E+04
-0.30000007E+00 -0.30598E+04
-0.25000012E+00 -0.30630E+04
-0.20000005E+00 -0.30548E+04
-0.15000010E+00 -0.30546E+04
-0.10000014E+00 -0.30550E+04
-0.50000072E-01 -0.30625E+04
-0.11920929E-06 -0.30617E+04
 0.49999952E-01 -0.30622E+04
 0.99999905E-01 -0.30617E+04
 0.14999986E+00 -0.30499E+04
 0.19999981E+00 -0.30481E+04
 0.24999976E+00 -0.30390E+04
 0.29999995E+00 -0.30462E+04
 0.34999990E+00 -0.30367E+04
 0.39999986E+00 -0.30334E+04
 0.44999981E+00 -0.30473E+04
 0.49999976E+00 -0.30503E+04
 0.54999995E+00 -0.30539E+04
 0.59999990E+00 -0.30577E+04
 0.64999986E+00 -0.30637E+04
 0.69999981E+00 -0.30683E+04
 0.74999976E+00 -0.30704E+04
 0.79999971E+00 -0.30600E+04
 0.84999990E+00 -0.30716E+04
 0.89999986E+00 -0.30655E+04
 0.94999981E+00 -0.30624E+04
 0.99999976E+00 -0.30696E+04
 0.10499997E+01 -0.30787E+04
 0.10999999E+01 -0.30822E+04
 0.11499999E+01 -0.30716E+04
 0.11999998E+01 -0.30648E+04
 0.12499998E+01 -0.30618E+04
 0.12999997E+01 -0.30620E+04
 0.13499999E+01 -0.30571E+04
 0.13999999E+01 -0.30634E+04
 0.14499998E+01 -0.30583E+04
 0.14999998E+01 -0.30657E+04
 0.15499997E+01 -0.30709E+04
 0.15999999E+01 -0.30624E+04
 0.16499999E+01 -0.30597E+04
 0.16999998E+01 -0.30422E+04
 0.17499998E+01 -0.30419E+04
 0.17999997E+01 -0.30668E+04
 0.18499997E+01 -0.30797E+04
 0.18999999E+01 -0.30834E+04
 0.19499998E+01 -0.30787E+04
 0.19999998E+01 -0.30672E+04
 0.20499997E+01 -0.30730E+04
 0.20999999E+01 -0.30664E+04
 0.21499996E+01 -0.30520E+04
 0.21999998E+01 -0.30599E+04
 0.22499995E+01 -0.30703E+04
 0.22999997E+01 -0.30842E+04
 0.23499999E+01 -0.30797E+04
 0.23999996E+01 -0.30640E+04
 0.24499998E+01 -0.30600E+04
 0.24999995E+01 -0.30624E+04
 0.25499997E+01 -0.30630E+04
 0.25999999E+01 -0.30577E+04
 0.26499996E+01 -0.30732E+04
 0.26999998E+01 -0.30816E+04
 0.27499995E+01 -0.30651E+04
 0.27999997E+01 -0.30683E+04
 0.28499999E+01 -0.30658E+04
 0.28999996E+01 -0.30675E+04
 0.29499998E+01 -0.30722E+04
 0.29999995E+01 -0.30595E+04
 0.30499997E+01 -0.30550E+04
 0.30999999E+01 -0.30520E+04
 0.31499996E+01 -0.30554E+04
 0.31999998E+01 -0.30647E+04
 0.32499995E+01 -0.30582E+04
 0.32999997E+01 -0.30467E+04
 0.33499999E+01 -0.30441E+04
 0.33999996E+01 -0.30466E+04
 0.34499998E+01 -0.30541E+04
 0.34999995E+01 -0.30432E+04
 0.35499997E+01 -0.30378E+04
 0.35999994E+01 -0.30337E+04
 0.36499996E+01 -0.30417E+04
 0.36999998E+01 -0.30577E+04
 0.37499995E+01 -0.30569E+04
 0.37999997E+01 -0.30605E+04
 0.38499994E+01 -0.30563E+04
 0.38999996E+01 -0.30584E+04
 0.39499998E+01 -0.30753E+04
 0.39999995E+01 -0.30820E+04
 0.40499997E+01 -0.30782E+04
 0.40999994E+01 -0.30665E+04
 0.41499996E+01 -0.30536E+04
 0.41999998E+01 -0.30559E+04
 0.42499995E+01 -0.30549E+04
 0.42999997E+01 -0.30509E+04
 0.43499994E+01 -0.30530E+04
 0.43999996E+01 -0.30449E+04
 0.44499998E+01 -0.30346E+04
 0.44999995E+01 -0.30365E+04
 0.45499997E+01 -0.30421E+04
 0.45999994E+01 -0.30541E+04
 0.46499996E+01 -0.30508E+04
 0.46999998E+01 -0.30414E+04
 0.47499995E+01 -0.30516E+04
 0.47999997E+01 -0.30542E+04
 0.48499994E+01 -0.30518E+04
 0.48999996E+01 -0.30522E+04
 0.49499998E+01 -0.30539E+04
 0.49999995E+01 -0.30553E+04
 0.50499997E+01 -0.30467E+04
 0.50999994E+01 -0.30522E+04
 0.51499996E+01 -0.30670E+04
 0.51999998E+01 -0.30632E+04
 0.52499995E+01 -0.30701E+04
 0.52999997E+01 -0.30756E+04
 0.53499994E+01 -0.30729E+04
 0.53999996E+01 -0.30736E+04
 0.54499993E+01 -0.30700E+04
 0.54999995E+01 -0.30761E+04
 0.55499997E+01 -0.30831E+04
 0.55999994E+01 -0.30800E+04
 0.56499996E+01 -0.30832E+04
 0.56999993E+01 -0.30846E+04
 0.57499995E+01 -0.30783E+04
 0.57999997E+01 -0.30698E+04
 0.58499994E+01 -0.30604E+04
 0.58999996E+01 -0.30637E+04
 0.59499993E+01 -0.30781E+04
 0.59999995E+01 -0.30675E+04
 0.60499992E+01 -0.30702E+04
 0.60999994E+01 -0.30823E+04
 0.61499996E+01 -0.30733E+04
 0.61999998E+01 -0.30746E+04
 0.62499990E+01 -0.30836E+04
 0.62999992E+01 -0.30809E+04
 0.63499994E+01 -0.30794E+04
 0.63999996E+01 -0.30661E+04
 0.64499998E+01 -0.30563E+04
 0.64999990E+01 -0.30762E+04
 0.65499992E+01 -0.30763E+04
 0.65999994E+01 -0.30747E+04
 0.66499996E+01 -0.30670E+04
 0.66999998E+01 -0.30590E+04
 0.67499990E+01 -0.30533E+04
 0.67999992E+01 -0.30375E+04
 0.68499994E+01 -0.30373E+04
 0.68999996E+01 -0.30402E+04
 0.69499998E+01 -0.30347E+04
 0.69999990E+01 -0.30340E+04
 0.70499992E+01 -0.30364E+04
 0.70999994E+01 -0.30513E+04
 0.71499996E+01 -0.30561E+04
 0.71999998E+01 -0.30500E+04
 0.72499990E+01 -0.30509E+04
 0.72999992E+01 -0.30461E+04
 0.73499994E+01 -0.30491E+04
 0.73999996E+01 -0.30410E+04
 0.74499998E+01 -0.30350E+04
 0.74999990E+01 -0.30427E+04
 0.75499992E+01 -0.30491E+04
 0.75999994E+01 -0.30625E+04
 0.76499996E+01 -0.30651E+04
 0.76999998E+01 -0.30664E+04
 0.77499990E+01 -0.30617E+04
 0.77999992E+01 -0.30453E+04
 0.78499994E+01 -0.30429E+04
 0.78999996E+01 -0.30485E+04
 0.79499998E+01 -0.30533E+04
 0.79999990E+01 -0.30471E+04
 0.80499992E+01 -0.30425E+04
 0.80999994E+01 -0.30444E+04
 0.81499996E+01 -0.30426E+04
 0.81999998E+01 -0.30353E+04
 0.82499990E+01 -0.30218E+04
 0.82999992E+01 -0.30230E+04
 0.83499994E+01 -0.30379E+04
 0.83999996E+01 -0.30367E+04
 0.84499998E+01 -0.30362E+04
 0.84999990E+01 -0.30459E+04
 0.85499992E+01 -0.30567E+04
 0.85999994E+01 -0.30513E+04
 0.86499996E+01 -0.30505E+04
 0.86999998E+01 -0.30592E+04
 0.87499990E+01 -0.30623E+04
 0.87999992E+01 -0.30809E+04
 0.88499994E+01 -0.30883E+04
 0.88999996E+01 -0.30893E+04
 0.89499998E+01 -0.30937E+04
 0.89999990E+01 -0.30804E+04
 0.90499992E+01 -0.30674E+04
 0.90999994E+01 -0.30843E+04
 0.91499996E+01 -0.30890E+04
 0.91999989E+01 -0.30813E+04
 0.92499990E+01 -0.30678E+04
 0.92999992E+01 -0.30607E+04
 0.93499994E+01 -0.30696E+04
 0.93999996E+01 -0.30661E+04
 0.94499989E+01 -0.30626E+04
 0.94999990E+01 -0.30783E+04
 0.95499992E+01 -0.30791E+04
 0.95999994E+01 -0.30657E+04
 0.96499996E+01 -0.30762E+04
 0.96999989E+01 -0.30704E+04
 0.97499990E+01 -0.30679E+04
 0.97999992E+01 -0.30748E+04
 0.98499994E+01 -0.30734E+04
 0.98999996E+01 -0.30763E+04
 0.99499989E+01 -0.30729E+04
 0.99999990E+01 -0.30660E+04
 0.10049999E+02 -0.30668E+04
 0.10099999E+02 -0.30595E+04
 0.10150000E+02 -0.30458E+04
 0.10199999E+02 -0.30581E+04
 0.10249999E+02 -0.30541E+04
 0.10299999E+02 -0.30518E+04
 0.10349999E+02 -0.30496E+04
 0.10400000E+02 -0.30314E+04
 0.10449999E+02 -0.30342E+04
 0.10499999E+02 -0.30414E+04
 0.10549999E+02 -0.30389E+04
 0.10599999E+02 -0.30480E+04
 0.10650000E+02 -0.30562E+04
 0.10699999E+02 -0.30530E+04
 0.10749999E+02 -0.30565E+04
 0.10799999E+02 -0.30568E+04
 0.10849999E+02 -0.30660E+04
 0.10900000E+02 -0.30675E+04
 0.10949999E+02 -0.30636E+04
 0.10999999E+02 -0.30610E+04
 0.11049999E+02 -0.30606E+04
 0.11099999E+02 -0.30576E+04
 0.11150000E+02 -0.30584E+04
 0.11199999E+02 -0.30488E+04
 0.11249999E+02 -0.30390E+04
 0.11299999E+02 -0.30291E+04
 0.11349999E+02 -0.30344E+04
 0.11400000E+02 -0.30386E+04
 0.11449999E+02 -0.30258E+04
 0.11499999E+02 -0.30344E+04
 0.11549999E+02 -0.30374E+04
 0.11599999E+02 -0.30482E+04
 0.11650000E+02 -0.30508E+04
 0.11699999E+02 -0.30504E+04
 0.11749999E+02 -0.30560E+04
 0.11799999E+02 -0.30623E+04
 0.11849999E+02 -0.30710E+04
 0.11900000E+02 -0.30854E+04
 0.11949999E+02 -0.30809E+04
 0.11999999E+02 -0.30838E+04
 0.12049999E+02 -0.30900E+04
 0.12099999E+02 -0.30786E+04
 0.12150000E+02 -0.30837E+04
 0.12199999E+02 -0.30713E+04
 0.12249999E+02 -0.30717E+04
 0.12299999E+02 -0.30809E+04
 0.12349999E+02 -0.30789E+04
 0.12400000E+02 -0.30788E+04
 0.12449999E+02 -0.30738E+04
 0.12499999E+02 -0.30684E+04
 0.12549999E+02 -0.30659E+04
 0.12599999E+02 -0.30680E+04
 0.12649999E+02 -0.30635E+04
 0.12699999E+02 -0.30584E+04
 0.12749999E+02 -0.30644E+04
 0.12799999E+02 -0.30486E+04
 0.12849999E+02 -0.30417E+04
 0.12899999E+02 -0.30489E+04
 0.12949999E+02 -0.30473E+04
 0.12999999E+02 -0.30595E+04
 0.13049999E+02 -0.30546E+04
 0.13099999E+02 -0.30525E+04
 0.13149999E+02 -0.30626E+04
 0.13199999E+02 -0.30608E+04
 0.13249999E+02 -0.30602E+04
 0.13299999E+02 -0.30678E+04
 0.13349999E+02 -0.30630E+04
 0.13399999E+02 -0.30605E+04
 0.13449999E+02 -0.30718E+04
 0.13499999E+02 -0.30636E+04
 0.13549999E+02 -0.30534E+04
 0.13599999E+02 -0.30498E+04
 0.13649999E+02 -0.30514E+04
 0.13699999E+02 -0.30541E+04
 0.13749999E+02 -0.30481E+04
 0.13799999E+02 -0.30573E+04
 0.13849999E+02 -0.30654E+04
 0.13899999E+02 -0.30648E+04
 0.13949999E+02 -0.30672E+04
 0.13999999E+02 -0.30734E+04
 0.14049999E+02 -0.30795E+04
 0.14099998E+02 -0.30817E+04
 0.14150000E+02 -0.30858E+04
 0.14199999E+02 -0.30961E+04
 0.14249998E+02 -0.31027E+04
 0.14299999E+02 -0.30906E+04
 0.14349998E+02 -0.30867E+04
 0.14400000E+02 -0.30818E+04
 0.14449999E+02 -0.30671E+04
 0.14499998E+02 -0.30679E+04
 0.14549999E+02 -0.30657E+04
 0.14599998E+02 -0.30646E+04
 0.14650000E+02 -0.30507E+04
 0.14699999E+02 -0.30378E+04
 0.14749998E+02 -0.30449E+04
 0.14799999E+02 -0.30480E+04
 0.14849998E+02 -0.30443E+04
 0.14900000E+02 -0.30402E+04
 0.14949999E+02 -0.30499E+04
 0.14999998E+02 -0.30484E+04
 0.15049999E+02 -0.30470E+04
 0.15099998E+02 -0.30414E+04
 0.15150000E+02 -0.30507E+04
 0.15199999E+02 -0.30491E+04
 0.15249998E+02 -0.30448E+04
 0.15299999E+02 -0.30368E+04
 0.15349998E+02 -0.30475E+04
 0.15400000E+02 -0.30427E+04
 0.15449999E+02 -0.30377E+04
 0.15499998E+02 -0.30628E+04
 0.15549999E+02 -0.30843E+04
 0.15599998E+02 -0.30320E+04
 0.15650000E+02 -0.30407E+04
 0.15699999E+02 -0.30796E+04
 0.15749998E+02 -0.30378E+04
 0.15799999E+02 -0.29980E+04
 0.15849998E+02 -0.30425E+04
 0.15900000E+02 -0.29842E+04
 0.15949999E+02 -0.29445E+04
 0.15999998E+02 -0.31233E+04
 0.16049999E+02 -0.31209E+04
 0.16099998E+02 -0.30376E+04
 0.16150000E+02 -0.30617E+04
 0.16199999E+02 -0.31484E+04
 0.16249998E+02 -0.30478E+04
 0.16299999E+02 -0.27580E+04
 0.16349998E+02 -0.25249E+04
 0.16400000E+02 -0.29049E+04
 0.16449999E+02 -0.28926E+04
 0.16499998E+02 -0.25017E+04
 0.16549999E+02 -0.32365E+04
 0.16599998E+02 -0.35906E+04
 0.16650000E+02 -0.27013E+04
 0.16699999E+02 -0.28582E+04
 0.16749998E+02 -0.34053E+04
 0.16799999E+02 -0.32084E+04
 0.16849998E+02 -0.33294E+04
 0.16900000E+02 -0.39315E+04
 0.16949999E+02 -0.36452E+04
 0.16999998E+02 -0.35807E+04
 0.17049999E+02 -0.32595E+04
 0.17099998E+02 -0.24606E+04
 0.17150000E+02 -0.28550E+04
 0.17199999E+02 -0.42302E+04
 0.17249998E+02 -0.46333E+04
 0.17299999E+02 -0.30925E+04
 0.17349998E+02 -0.19355E+04
 0.17400000E+02 -0.15209E+04
 0.17449999E+02 -0.19206E+04
 0.17499998E+02 -0.19063E+04
 0.17549999E+02 -0.28101E+04
 0.17599998E+02 -0.47552E+04
 0.17650000E+02 -0.49299E+04
 0.17699999E+02 -0.23400E+04
 0.17749998E+02 -0.13456E+04
 0.17799999E+02 -0.42210E+04
 0.17849998E+02 -0.37460E+04
 0.17900000E+02 -0.29448E+04
 0.17949999E+02 -0.44379E+04
 0.17999998E+02 -0.41828E+04
 0.18049999E+02 -0.34169E+04
 0.18099998E+02 -0.17796E+04
 0.18150000E+02 -0.96814E+02
 0.18199999E+02 -0.21425E+04
 0.18249998E+02 -0.30821E+04
 0.18299999E+02 -0.46007E+04
 0.18349998E+02 -0.47350E+04
 0.18400000E+02 -0.23206E+04
 0.18449999E+02 -0.27875E+04
 0.18499998E+02 -0.23118E+04
 0.18549999E+02 -0.26470E+04
 0.18599998E+02 -0.31128E+04
 0.18650000E+02 -0.37289E+04
 0.18699999E+02 -0.54221E+04
 0.18749998E+02 -0.11711E+04
 0.18799999E+02 -0.44827E+04
 0.18849998E+02 -0.32157E+04
 0.18900000E+02  0.10498E+04
 0.18949999E+02 -0.32504E+03
 0.18999998E+02 -0.33253E+04
 0.19049999E+02 -0.61821E+04
 0.19099998E+02 -0.56004E+04
 0.19150000E+02 -0.51085E+04
 0.19199999E+02  0.15888E+04
 0.19249998E+02 -0.18302E+04
 0.19299999E+02 -0.17593E+04
 0.19349998E+02 -0.62566E+04
 0.19400000E+02 -0.74461E+04
 0.19449999E+02 -0.18784E+04
 0.19499998E+02 -0.16471E+04
 0.19549999E+02 -0.41082E+04
 0.19599998E+02 -0.17170E+04
 0.19650000E+02 -0.24236E+04
 0.19699999E+02 -0.56627E+04
 0.19749998E+02 -0.91677E+03
 0.19799999E+02 -0.35922E+04
 0.19849998E+02  0.75043E+03
 0.19900000E+02 -0.31246E+04
 0.19949999E+02 -0.51153E+04
 0.19999998E+02 -0.42392E+04
 0.20049999E+02 -0.61864E+04
 0.20099998E+02 -0.16502E+04
 0.20150000E+02 -0.55051E+04
 0.20199999E+02 -0.94850E+03
 0.20249998E+02 -0.27314E+04
 0.20299999E+02 -0.83603E+04
 0.20349998E+02 -0.30750E+04
 0.20399998E+02 -0.13354E+01
 0.20449999E+02 -0.21483E+04
 0.20499998E+02 -0.25386E+04
 0.20549999E+02 -0.13504E+03
 0.20599998E+02 -0.40696E+04
 0.20649998E+02 -0.51272E+04
 0.20699999E+02 -0.24731E+03
 0.20749998E+02 -0.25364E+04
 0.20799999E+02 -0.30360E+04
 0.20849998E+02 -0.22700E+04
 0.20899998E+02 -0.17453E+04
 0.20949999E+02 -0.28638E+04
 0.20999998E+02 -0.76193E+04
 0.21049999E+02 -0.26025E+04
 0.21099998E+02 -0.38827E+04
 0.21149998E+02 -0.47194E+04
 0.21199999E+02  0.24821E+04
 0.21249998E+02 -0.24485E+04
 0.21299999E+02 -0.42067E+04
 0.21349998E+02 -0.11207E+04
 0.21399998E+02 -0.71951E+04
 0.21449999E+02  0.10719E+04
 0.21499998E+02  0.86887E+03
 0.21549999E+02 -0.93947E+04
 0.21599998E+02 -0.30859E+04
 0.21649998E+02 -0.31342E+04
 0.21699999E+02 -0.25642E+04
 0.21749998E+02 -0.27427E+04
 0.21799999E+02 -0.73143E+04
 0.21849998E+02 -0.45745E+04
 0.21899998E+02 -0.99229E+03
 0.21949999E+02  0.57674E+03
 0.21999998E+02 -0.29774E+04
 0.22049999E+02 -0.56568E+04
 0.22099998E+02 -0.38804E+04
 0.22149998E+02 -0.63473E+04
 0.22199999E+02  0.22281E+04
 0.22249998E+02 -0.69192E+03
 0.22299999E+02 -0.68871E+04
 0.22349998E+02 -0.29721E+04
 0.22399998E+02 -0.19316E+04
 0.22449999E+02 -0.18056E+04
 0.22499998E+02 -0.64535E+04
 0.22549999E+02  0.18786E+04
 0.22599998E+02 -0.50938E+04
 0.22649998E+02 -0.30057E+04
 0.22699999E+02 -0.38925E+04
 0.22749998E+02 -0.62878E+04
 0.22799999E+02  0.31777E+04
 0.22849998E+02 -0.71471E+04
 0.22899998E+02 -0.59083E+04
 0.22949999E+02  0.19989E+03
 0.22999998E+02 -0.47019E+04
 0.23049999E+02 -0.23940E+04
 0.23099998E+02 -0.17239E+02
 0.23149998E+02 -0.28468E+04
 0.23199999E+02 -0.86824E+02
 0.23249998E+02 -0.27922E+04
 0.23299999E+02 -0.68381E+04
 0.23349998E+02 -0.44482E+04
 0.23399998E+02 -0.20383E+04
 0.23449999E+02 -0.41608E+04
 0.23499998E+02 -0.31275E+04
 0.23549999E+02  0.60250E+02
 0.23599998E+02  0.17245E+04
 0.23649998E+02 -0.18212E+04
 0.23699999E+02 -0.43666E+04
 0.23749998E+02 -0.43395E+04
 0.23799999E+02 -0.84443E+04
 0.23849998E+02 -0.45678E+04
 0.23899998E+02 -0.35761E+04
 0.23949999E+02  0.23772E+04
 0.23999998E+02  0.13092E+03
 0.24049999E+02 -0.70271E+04
 0.24099998E+02 -0.70953E+04
 0.24149998E+02 -0.19795E+04
 0.24199999E+02 -0.13521E+04
 0.24249998E+02  0.23945E+04
 0.24299999E+02  0.24534E+04
 0.24349998E+02 -0.91282E+04
 0.24399998E+02 -0.63556E+04
 0.24449999E+02 -0.35002E+04
 0.24499998E+02 -0.39288E+04
 0.24549999E+02 -0.34452E+04
 0.24599998E+02 -0.29520E+04
 0.24649998E+02 -0.25156E+04
 0.24699999E+02 -0.18540E+04
 0.24749998E+02 -0.64426E+04
 0.24799999E+02 -0.60576E+04
 0.24849998E+02 -0.21519E+04
 0.24899998E+02 -0.98607E+03
 0.24949999E+02 -0.45685E+04
 0.24999998E+02  0.25588E+04
 0.25049999E+02 -0.26485E+04
 0.25099998E+02 -0.85225E+04
 0.25149998E+02 -0.14077E+04
 0.25199999E+02 -0.63315E+04
 0.25249998E+02  0.19602E+03
 0.25299999E+02 -0.90541E+03
 0.25349998E+02 -0.32701E+04
 0.25399998E+02 -0.29497E+04
 0.25449999E+02 -0.33604E+04
 0.25499998E+02 -0.34157E+04
 0.25549999E+02 -0.49601E+04
 0.25599998E+02 -0.31288E+04
 0.25649998E+02  0.81944E+03
 0.25699999E+02 -0.29116E+03
 0.25749998E+02 -0.88772E+04
 0.25799999E+02 -0.47739E+04
 0.25849998E+02 -0.56752E+04
 0.25899998E+02 -0.59073E+04
 0.25949999E+02  0.14378E+04
 0.25999998E+02  0.30012E+03
 0.26049999E+02 -0.70766E+04
 0.26099998E+02 -0.14329E+04
 0.26149998E+02 -0.91460E+03
 0.26199999E+02 -0.37826E+04
 0.26249998E+02 -0.18464E+04
 0.26299999E+02 -0.45293E+04
 0.26349998E+02 -0.36878E+04
 0.26399998E+02 -0.30296E+04
 0.26449999E+02 -0.80095E+04
 0.26499998E+02 -0.82099E+03
 0.26549999E+02  0.67368E+03
 0.26599998E+02 -0.12282E+05
 0.26649998E+02 -0.13572E+05
 0.26699999E+02 -0.93376E+04
 0.26749998E+02  0.46242E+03
 0.26799999E+02  0.21042E+04
 0.26849998E+02  0.33652E+04
 0.26899998E+02  0.10766E+05
 0.26949999E+02  0.17331E+04
 0.26999998E+02 -0.13993E+05
 0.27049997E+02  0.20939E+04
 0.27099998E+02  0.56706E+04
 0.27149998E+02 -0.11426E+05
 0.27199999E+02 -0.68575E+04
 0.27249998E+02  0.74127E+04
 0.27299997E+02 -0.23280E+05
 0.27349998E+02 -0.16827E+05
 0.27399998E+02  0.15277E+05
 0.27449999E+02 -0.50195E+04
 0.27499998E+02  0.12979E+04
 0.27549997E+02 -0.52836E+04
 0.27599998E+02  0.65589E+04
 0.27649998E+02  0.11120E+03
 0.27699999E+02 -0.89000E+04
 0.27749998E+02  0.69520E+04
 0.27799997E+02 -0.14206E+05
 0.27849998E+02 -0.13512E+05
 0.27899998E+02  0.10838E+04
 0.27949999E+02  0.12810E+05
 0.27999998E+02 -0.59575E+04
 0.28049997E+02  0.63193E+04
 0.28099998E+02  0.95458E+04
 0.28149998E+02 -0.37917E+05
 0.28199999E+02 -0.28575E+05
 0.28249998E+02  0.10944E+05
 0.28299997E+02  0.84941E+04
 0.28349998E+02 -0.63044E+04
 0.28399998E+02  0.87434E+04
 0.28449999E+02 -0.61395E+04
 0.28499998E+02 -0.24392E+05
 0.28549997E+02 -0.29288E+03
 0.28599998E+02  0.96859E+04
 0.28649998E+02  0.60709E+04
 0.28699999E+02 -0.15157E+05
 0.28749998E+02 -0.10630E+05
 0.28799997E+02  0.19581E+05
 0.28849998E+02 -0.40220E+04
 0.28899998E+02 -0.14066E+05
 0.28949999E+02  0.96082E+04
 0.28999998E+02 -0.78210E+04
 0.29049997E+02 -0.28063E+05
 0.29099998E+02  0.21241E+05
 0.29149998E+02 -0.36052E+04
 0.29199999E+02 -0.47265E+04
 0.29249998E+02  0.11728E+05
 0.29299997E+02 -0.13970E+05
 0.29349998E+02 -0.11449E+04
 0.29399998E+02 -0.29251E+05
 0.29449999E+02  0.60650E+04
 0.29499998E+02  0.15941E+05
 0.29549997E+02 -0.68419E+04
 0.29599998E+02 -0.15470E+04
 0.29649998E+02 -0.99492E+04
 0.29699999E+02 -0.17518E+05
 0.29749998E+02 -0.75777E+04
 0.29799997E+02  0.27926E+05
 0.29849998E+02  0.19978E+04
 0.29899998E+02 -0.23428E+05
 0.29949999E+02 -0.73814E+04
 0.29999998E+02 -0.65645E+04
 0.30049999E+02  0.37566E+04
 0.30099998E+02  0.83982E+04
 0.30149998E+02  0.81379E+04
 0.30199997E+02 -0.23324E+04
 0.30249996E+02 -0.14834E+05
 0.30299999E+02  0.26646E+04
 0.30349998E+02 -0.28702E+04
 0.30399998E+02 -0.12572E+05
 0.30449997E+02  0.28361E+04
 0.30499996E+02 -0.12599E+05
 0.30549999E+02 -0.13791E+05
 0.30599998E+02 -0.80097E+04
 0.30649998E+02  0.10858E+05
 0.30699997E+02  0.10238E+05
 0.30749996E+02 -0.12167E+05
 0.30799999E+02  0.18861E+04
 0.30849998E+02 -0.89563E+04
 0.30899998E+02 -0.51108E+04
 0.30949997E+02  0.16716E+04
 0.30999996E+02  0.10470E+05
 0.31049999E+02 -0.87084E+03
 0.31099998E+02 -0.19406E+05
 0.31149998E+02  0.55640E+03
 0.31199997E+02 -0.61420E+03
 0.31249996E+02  0.27453E+03
 0.31299999E+02 -0.26574E+03
 0.31349998E+02 -0.16595E+05
 0.31399998E+02 -0.22877E+05
 0.31449997E+02 -0.14999E+05
 0.31499996E+02  0.13002E+05
 0.31549999E+02  0.17787E+05
 0.31599998E+02 -0.91649E+03
 0.31649998E+02 -0.53332E+04
 0.31699997E+02 -0.34898E+04
 0.31749996E+02 -0.50341E+04
 0.31799999E+02  0.38353E+04
 0.31849998E+02 -0.16225E+04
 0.31899998E+02 -0.71109E+04
 0.31949997E+02  0.15555E+04
 0.31999996E+02 -0.92443E+04
 0.32049999E+02 -0.12790E+05
 0.32099998E+02  0.31217E+04
 0.32149998E+02  0.36696E+04
 0.32199997E+02 -0.66454E+04
 0.32249996E+02  0.21041E+04
 0.32299999E+02  0.17662E+05
 0.32349998E+02 -0.12273E+05
 0.32399998E+02 -0.23332E+05
 0.32449997E+02 -0.11058E+04
 0.32499996E+02 -0.11700E+05
 0.32549999E+02 -0.41393E+04
 0.32599998E+02 -0.22920E+04
 0.32649998E+02  0.59265E+04
 0.32699997E+02  0.48300E+04
 0.32749996E+02 -0.15421E+05
 0.32799999E+02 -0.10065E+05
 0.32849998E+02  0.79334E+04
 0.32899998E+02  0.49132E+04
 0.32949997E+02 -0.38277E+04
 0.32999996E+02 -0.24552E+04
 0.33049999E+02 -0.99497E+04
 0.33099998E+02 -0.20325E+05
 0.33149998E+02 -0.16235E+05
 0.33199997E+02  0.50493E+04
 0.33249996E+02 -0.30430E+04
 0.33299999E+02  0.15654E+05
 0.33349998E+02  0.18689E+05
 0.33399998E+02 -0.89001E+04
 0.33449997E+02 -0.13337E+05
 0.33499996E+02 -0.17397E+05
 0.33549999E+02 -0.12998E+04
 0.33599998E+02  0.55697E+04
 0.33649998E+02 -0.60849E+03
 0.33699997E+02 -0.45409E+04
 0.33749996E+02 -0.60399E+04
 0.33799999E+02 -0.44665E+03
 0.33849998E+02  0.34391E+04
 0.33899998E+02 -0.53200E+04
 0.33949997E+02 -0.99684E+04
 0.33999996E+02 -0.61972E+04
 0.34049999E+02  0.46488E+04
 0.34099998E+02  0.38611E+04
 0.34149998E+02 -0.86198E+04
 0.34199997E+02 -0.86955E+04
 0.34249996E+02 -0.14987E+05
 0.34299999E+02 -0.11741E+05
 0.34349998E+02  0.17846E+04
 0.34399998E+02  0.66651E+04
 0.34449997E+02  0.10919E+05
 0.34499996E+02  0.33571E+04
 0.34549999E+02 -0.96600E+04
 0.34599998E+02 -0.11188E+05
 0.34649998E+02 -0.54858E+04
 0.34699997E+02  0.40275E+04
 0.34749996E+02  0.15051E+04
 0.34799999E+02 -0.94176E+04
 0.34849998E+02 -0.42918E+04
 0.34899998E+02  0.12965E+04
 0.34949997E+02  0.14847E+04
 0.34999996E+02 -0.17878E+04
 0.35049999E+02 -0.20142E+04
 0.35099998E+02 -0.71919E+04
 0.35149998E+02 -0.14083E+05
 0.35199997E+02 -0.64242E+04
 0.35249996E+02 -0.54260E+04
 0.35299999E+02 -0.34394E+04
 0.35349998E+02 -0.11619E+04
 0.35399998E+02 -0.28668E+04
 0.35449997E+02 -0.38326E+04
 0.35499996E+02  0.14718E+04
 0.35549999E+02  0.52966E+03
 0.35599998E+02 -0.59644E+04
 0.35649998E+02 -0.24376E+04
 0.35699997E+02 -0.67171E+04
 0.35749996E+02 -0.75237E+04
 0.35799999E+02  0.80791E+03
 0.35849998E+02  0.32325E+04
 0.35899998E+02 -0.14902E+03
 0.35949997E+02 -0.45777E+04
 0.35999996E+02 -0.63214E+04
 0.36049999E+02 -0.47705E+04
 0.36099998E+02 -0.65572E+04
 0.36149998E+02 -0.92331E+04
 0.36199997E+02 -0.17263E+04
 0.36249996E+02  0.18441E+04
 0.36299999E+02  0.12855E+04
 0.36349998E+02  0.33690E+04
 0.36399998E+02 -0.19275E+04
 0.36449997E+02 -0.92223E+04
 0.36499996E+02 -0.92526E+04
 0.36549999E+02 -0.92980E+04
 0.36599998E+02 -0.44968E+04
 0.36649998E+02  0.47718E+04
 0.36699997E+02  0.91397E+04
 0.36749996E+02  0.67570E+04
 0.36799999E+02 -0.19122E+04
 0.36849998E+02 -0.40042E+04
 0.36899998E+02 -0.10321E+05
 0.36949997E+02 -0.16834E+05
 0.36999996E+02 -0.96967E+04
 0.37049999E+02  0.16955E+04
 0.37099998E+02  0.19848E+04
 0.37149998E+02 -0.18801E+04
 0.37199997E+02 -0.21479E+03
 0.37249996E+02 -0.83250E+04
 0.37299999E+02 -0.95998E+04
 0.37349998E+02 -0.44453E+04
 0.37399998E+02 -0.33466E+04
 0.37449997E+02  0.50981E+04
 0.37499996E+02  0.66799E+03
 0.37549999E+02 -0.73177E+04
 0.37599998E+02 -0.49282E+04
 0.37649998E+02 -0.37830E+04
 0.37699997E+02  0.50129E+03
 0.37749996E+02 -0.54907E+03
 0.37799999E+02  0.75815E+03
 0.37849998E+02  0.18697E+03
 0.37899998E+02 -0.10817E+04
 0.37949997E+02 -0.23451E+04
 0.37999996E+02 -0.85410E+04
 0.38049999E+02  0.95158E+03
 0.38099998E+02  0.33862E+04
 0.38149998E+02 -0.90868E+04
 0.38199997E+02 -0.92980E+04
 0.38249996E+02 -0.66878E+04
 0.38299999E+02 -0.83835E+04
 0.38349998E+02 -0.68230E+04
 0.38399998E+02 -0.25921E+03
 0.38449997E+02  0.37020E+04
 0.38499996E+02  0.14073E+04
 0.38549999E+02  0.38623E+04
 0.38599998E+02 -0.84677E+04
 0.38649998E+02 -0.84152E+04
 0.38699997E+02 -0.62036E+04
 0.38749996E+02 -0.11724E+05
 0.38799999E+02 -0.57758E+04
 0.38849998E+02 -0.49273E+04
 0.38899998E+02  0.60491E+03
 0.38949997E+02  0.46092E+04
 0.38999996E+02  0.65677E+04
 0.39049999E+02 -0.60102E+03
 0.39099998E+02 -0.36719E+04
 0.39149998E+02 -0.48466E+04
 0.39199997E+02 -0.55898E+04
 0.39249996E+02  0.26971E+03
 0.39299999E+02 -0.40285E+04
 0.39349998E+02 -0.12462E+05
 0.39399998E+02 -0.43582E+04
 0.39449997E+02  0.43860E+04
 0.39499996E+02 -0.69820E+03
 0.39549999E+02 -0.20422E+04
 0.39599998E+02 -0.83412E+04
 0.39649998E+02 -0.75270E+04
 0.39699997E+02 -0.31153E+03
 0.39749996E+02  0.80767E+03
 0.39799999E+02  0.92546E+03
 0.39849998E+02 -0.47378E+04
 0.39899998E+02 -0.11365E+05
 0.39949997E+02 -0.80194E+04
 0.39999996E+02 -0.23339E+04
 0.40049999E+02 -0.88255E+03
 0.40099998E+02 -0.16020E+04
 0.40149998E+02  0.32386E+03
 0.40199997E+02  0.42990E+03
 0.40249996E+02 -0.89674E+03
 0.40299999E+02 -0.65602E+04
 0.40349998E+02 -0.10712E+05
 0.40399998E+02 -0.87876E+03
 0.40449997E+02 -0.20430E+04
 0.40499996E+02  0.16330E+04
 0.40549999E+02  0.42741E+04
 0.40599998E+02  0.34587E+04
 0.40649998E+02  0.12199E+03
 0.40699997E+02 -0.10701E+05
 0.40749996E+02 -0.93836E+04
 0.40799999E+02 -0.66426E+04
 0.40849998E+02 -0.63168E+04
 0.40899998E+02 -0.35852E+04
 0.40949997E+02 -0.17420E+04
 0.40999996E+02 -0.46383E+04
 0.41049999E+02 -0.38762E+03
 0.41099998E+02  0.53040E+03
 0.41149998E+02 -0.48942E+03
 0.41199997E+02 -0.14646E+04
 0.41249996E+02 -0.30388E+04
 0.41299999E+02 -0.36433E+04
 0.41349998E+02 -0.58527E+04
 0.41399998E+02 -0.44159E+04
 0.41449997E+02 -0.55324E+04
 0.41499996E+02 -0.54176E+04
 0.41549999E+02 -0.55638E+04
 0.41599998E+02 -0.33696E+04
 0.41649998E+02  0.36553E+03
 0.41699997E+02 -0.23185E+04
 0.41749996E+02 -0.49737E+04
 0.41799999E+02 -0.82232E+03
 0.41849998E+02 -0.23124E+04
 0.41899998E+02 -0.68778E+04
 0.41949997E+02 -0.21763E+04
 0.41999996E+02  0.94359E+03
 0.42049999E+02 -0.58566E+04
 0.42099998E+02 -0.72367E+04
 0.42149998E+02 -0.26961E+04
 0.42199997E+02 -0.50591E+04
 0.42249996E+02 -0.84102E+03
 0.42299999E+02  0.28137E+04
 0.42349998E+02  0.31417E+03
 0.42399998E+02  0.82665E+03
 0.42449997E+02 -0.58102E+04
 0.42499996E+02 -0.80411E+04
 0.42549999E+02 -0.46462E+04
 0.42599998E+02 -0.33279E+04
 0.42649998E+02 -0.98360E+03
 0.42699997E+02 -0.38824E+04
 0.42749996E+02 -0.28127E+04
 0.42799995E+02 -0.13104E+03
 0.42849998E+02 -0.28859E+04
 0.42899998E+02 -0.66863E+04
 0.42949997E+02 -0.55217E+04
 0.42999996E+02 -0.72020E+03
 0.43049995E+02 -0.45305E+03
 0.43099998E+02 -0.17279E+04
 0.43149998E+02 -0.23059E+04
 0.43199997E+02 -0.31393E+04
 0.43249996E+02 -0.45406E+04
 0.43299995E+02 -0.34413E+04
 0.43349998E+02 -0.54214E+04
 0.43399998E+02 -0.57810E+04
 0.43449997E+02 -0.24445E+04
 0.43499996E+02 -0.37834E+04
 0.43549995E+02 -0.56586E+04
 0.43599998E+02 -0.39697E+04
 0.43649998E+02 -0.99631E+03
 0.43699997E+02 -0.18267E+04
 0.43749996E+02 -0.16139E+04
 0.43799995E+02 -0.24486E+04
 0.43849998E+02 -0.16476E+04
 0.43899998E+02 -0.21400E+04
 0.43949997E+02 -0.17793E+04
 0.43999996E+02 -0.62021E+03
 0.44049995E+02 -0.32527E+04
 0.44099998E+02 -0.50541E+04
 0.44149998E+02 -0.59726E+04
 0.44199997E+02 -0.56537E+04
 0.44249996E+02 -0.58692E+04
 0.44299995E+02 -0.18983E+04
 0.44349998E+02 -0.87829E+03
 0.44399998E+02  0.22034E+04
 0.44449997E+02  0.75363E+03
 0.44499996E+02 -0.61302E+03
 0.44549995E+02 -0.40040E+03
 0.44599998E+02 -0.66764E+04
 0.44649998E+02 -0.63547E+04
 0.44699997E+02 -0.56765E+04
 0.44749996E+02 -0.53143E+04
 0.44799995E+02 -0.47968E+04
 0.44849998E+02 -0.34395E+04
 0.44899998E+02 -0.44339E+04
 0.44949997E+02 -0.39210E+04
 0.44999996E+02 -0.21839E+04
 0.45049995E+02  0.12620E+04
 0.45099998E+02  0.15606E+04
 0.45149998E+02 -0.30446E+04
 0.45199997E+02 -0.47375E+04
 0.45249996E+02 -0.61894E+04
 0.45299995E+02 -0.49152E+04
 0.45349998E+02 -0.13169E+04
 0.45399998E+02 -0.43452E+03
 0.45449997E+02 -0.21572E+04
 0.45499996E+02 -0.12879E+04
 0.45549995E+02 -0.17449E+04
 0.45599998E+02 -0.32058E+04
 0.45649998E+02 -0.50107E+04
 0.45699997E+02 -0.53413E+04
 0.45749996E+02 -0.26636E+04
 0.45799995E+02 -0.27640E+04
 0.45849998E+02 -0.37390E+04
 0.45899998E+02 -0.22142E+04
 0.45949997E+02 -0.16249E+04
 0.45999996E+02 -0.50477E+04
 0.46049995E+02 -0.49641E+04
 0.46099998E+02 -0.12685E+04
 0.46149998E+02 -0.21005E+04
 0.46199997E+02 -0.29451E+04
 0.46249996E+02 -0.28547E+04
 0.46299995E+02 -0.52027E+04
 0.46349998E+02 -0.46788E+04
 0.46399998E+02 -0.24420E+04
 0.46449997E+02 -0.25501E+04
 0.46499996E+02 -0.62508E+03
 0.46549995E+02 -0.36219E+04
 0.46599998E+02 -0.39612E+04
 0.46649998E+02 -0.25143E+04
 0.46699997E+02 -0.67735E+04
 0.46749996E+02 -0.16178E+03
 0.46799995E+02 -0.11302E+03
 0.46849998E+02 -0.66044E+04
 0.46899998E+02 -0.47915E+04
 0.46949997E+02 -0.28846E+04
 0.46999996E+02 -0.26252E+04
 0.47049995E+02 -0.36627E+04
 0.47099998E+02 -0.45161E+04
 0.47149998E+02 -0.41870E+04
 0.47199997E+02 -0.75762E+03
 0.47249996E+02 -0.13891E+04
 0.47299995E+02 -0.15595E+04
 0.47349998E+02 -0.53185E+03
 0.47399998E+02 -0.15352E+04
 0.47449997E+02 -0.39308E+04
 0.47499996E+02 -0.43209E+04
 0.47549995E+02 -0.15264E+04
 0.47599998E+02 -0.33447E+04
 0.47649998E+02 -0.79228E+04
 0.47699997E+02 -0.86001E+04
 0.47749996E+02 -0.50839E+04
 0.47799995E+02 -0.40067E+04
 0.47849998E+02 -0.36570E+04
 0.47899998E+02  0.14668E+04
 0.47949997E+02 -0.64755E+03
 0.47999996E+02 -0.41487E+04
 0.48049995E+02 -0.40171E+04
 0.48099998E+02 -0.40082E+04
 0.48149998E+02 -0.21879E+04
 0.48199997E+02 -0.41425E+04
 0.48249996E+02 -0.21727E+04
 0.48299995E+02 -0.64626E+03
 0.48349998E+02 -0.25648E+04
 0.48399998E+02 -0.33730E+04
 0.48449997E+02 -0.59257E+03
 0.48499996E+02 -0.17806E+04
 0.48549995E+02 -0.50052E+04
 0.48599998E+02 -0.30187E+04
 0.48649998E+02 -0.27407E+04
 0.48699997E+02 -0.13282E+04
 0.48749996E+02 -0.12493E+04
 0.48799995E+02 -0.27443E+04
 0.48849998E+02 -0.53214E+04
 0.48899998E+02 -0.59280E+04
 0.48949997E+02 -0.47593E+04
 0.48999996E+02 -0.50898E+04
 0.49049995E+02 -0.40578E+04
 0.49099998E+02 -0.45697E+04
 0.49149998E+02 -0.24156E+04
 0.49199997E+02 -0.17770E+03
 0.49249996E+02  0.14326E+04
 0.49299995E+02 -0.88352E+03
 0.49349998E+02 -0.40381E+04
 0.49399998E+02 -0.54609E+04
 0.49449997E+02 -0.57179E+04
 0.49499996E+02 -0.49506E+04
 0.49549995E+02 -0.44455E+04
 0.49599998E+02 -0.36348E+04
 0.49649998E+02 -0.45394E+04
 0.49699997E+02 -0.28052E+04
 0.49749996E+02 -0.72068E+03
 0.49799995E+02  0.10082E+03
 0.49849998E+02 -0.16712E+04
 0.49899998E+02 -0.28750E+04
 0.49949997E+02 -0.15886E+04
 0.49999996E+02 -0.95582E+03
 0.50049995E+02 -0.30539E+04
 0.50099998E+02 -0.41874E+04
 0.50149998E+02 -0.53301E+04
 0.50199997E+02 -0.54221E+04
 0.50249996E+02 -0.34862E+04
 0.50299995E+02 -0.31710E+04
 0.50349998E+02 -0.24557E+04
 0.50399998E+02 -0.10681E+04
 0.50449997E+02  0.51604E+03
 0.50499996E+02 -0.27239E+04
 0.50549995E+02 -0.52197E+04
 0.50599998E+02 -0.28896E+04
 0.50649998E+02 -0.12592E+04
 0.50699997E+02 -0.14632E+04
 0.50749996E+02 -0.21737E+04
 0.50799995E+02 -0.25038E+04
 0.50849998E+02 -0.50212E+04
 0.50899998E+02 -0.55170E+04
 0.50949997E+02 -0.41944E+04
 0.50999996E+02 -0.34381E+04
 0.51049995E+02 -0.42036E+04
 0.51099998E+02 -0.54878E+04
 0.51149998E+02 -0.40570E+04
 0.51199997E+02 -0.26334E+04
 0.51249996E+02 -0.23762E+04
 0.51299995E+02 -0.19055E+04
 0.51349998E+02 -0.34825E+04
 0.51399998E+02 -0.39467E+04
 0.51449997E+02 -0.24321E+04
 0.51499996E+02 -0.25131E+04
 0.51549995E+02 -0.12682E+04
 0.51599998E+02 -0.12120E+04
 0.51649998E+02 -0.94261E+03
 0.51699997E+02 -0.20455E+04
 0.51749996E+02 -0.45428E+04
 0.51799995E+02 -0.30882E+04
 0.51849998E+02 -0.36663E+04
 0.51899998E+02 -0.33985E+04
 0.51949997E+02 -0.24744E+04
 0.51999996E+02 -0.29088E+04
 0.52049995E+02 -0.36955E+04
 0.52099998E+02 -0.47411E+04
 0.52149998E+02 -0.52968E+04
 0.52199997E+02 -0.44683E+04
 0.52249996E+02 -0.41000E+04
 0.52299995E+02 -0.45502E+04
 0.52349998E+02 -0.32995E+04
 0.52399998E+02 -0.40924E+04
 0.52449997E+02 -0.39628E+04
 0.52499996E+02 -0.20887E+04
 0.52549995E+02 -0.10716E+04
 0.52599998E+02 -0.13758E+04
 0.52649998E+02 -0.48101E+03
 0.52699997E+02 -0.10538E+04
 0.52749996E+02 -0.24693E+04
 0.52799995E+02 -0.42970E+04
 0.52849998E+02 -0.46224E+04
 0.52899998E+02 -0.37276E+04
 0.52949997E+02 -0.36669E+04
 0.52999996E+02 -0.35949E+04
 0.53049995E+02 -0.37680E+04
 0.53099998E+02 -0.42326E+04
 0.53149998E+02 -0.36164E+04
 0.53199997E+02 -0.15312E+04
 0.53249996E+02 -0.10183E+04
 0.53299995E+02 -0.19764E+03
 0.53349998E+02 -0.16258E+04
 0.53399998E+02 -0.33676E+04
 0.53449997E+02 -0.26726E+04
 0.53499996E+02 -0.35238E+04
 0.53549995E+02 -0.32735E+04
 0.53599998E+02 -0.25215E+04
 0.53649998E+02 -0.32852E+04
 0.53699997E+02 -0.29706E+04
 0.53749996E+02 -0.28476E+04
 0.53799995E+02 -0.29569E+04
 0.53849998E+02 -0.43663E+04
 0.53899998E+02 -0.38671E+04
 0.53949997E+02 -0.22934E+04
 0.53999996E+02 -0.20465E+04
 0.54049995E+02 -0.32176E+04
 0.54099998E+02 -0.44241E+04
 0.54149998E+02 -0.42433E+04
 0.54199997E+02 -0.33102E+04
 0.54249996E+02 -0.23395E+04
 0.54299995E+02 -0.28863E+04
 0.54349998E+02 -0.31634E+04
 0.54399998E+02 -0.35458E+04
 0.54449997E+02 -0.39181E+04
 0.54499996E+02 -0.37970E+04
 0.54549995E+02 -0.24250E+04
 0.54599998E+02 -0.11989E+04
 0.54649998E+02 -0.20250E+04
 0.54699997E+02 -0.29002E+04
 0.54749996E+02 -0.26062E+04
 0.54799995E+02 -0.32823E+04
 0.54849998E+02 -0.33115E+04
 0.54899998E+02 -0.35379E+04
 0.54949997E+02 -0.40526E+04
 0.54999996E+02 -0.40690E+04
 0.55049995E+02 -0.48509E+04
 0.55099998E+02 -0.36090E+04
 0.55149998E+02 -0.36069E+04
 0.55199997E+02 -0.40209E+04
 0.55249996E+02 -0.39669E+04
 0.55299995E+02 -0.29144E+04
 0.55349998E+02 -0.24262E+04
 0.55399998E+02 -0.27765E+04
 0.55449997E+02 -0.16664E+04
 0.55499996E+02 -0.29788E+04
 0.55549995E+02 -0.27922E+04
 0.55599998E+02 -0.26871E+04
 0.55649998E+02 -0.30654E+04
 0.55699997E+02 -0.63018E+03
 0.55749996E+02 -0.58468E+03
 0.55799995E+02 -0.20922E+04
 0.55849995E+02 -0.39517E+04
 0.55899998E+02 -0.53248E+04
 0.55949997E+02 -0.42829E+04
 0.55999996E+02 -0.37025E+04
 0.56049995E+02 -0.28925E+04
 0.56099995E+02 -0.26704E+04
 0.56149998E+02 -0.32165E+04
 0.56199997E+02 -0.40541E+04
 0.56249996E+02 -0.43234E+04
 0.56299995E+02 -0.34182E+04
 0.56349995E+02 -0.22545E+04
 0.56399998E+02 -0.25257E+04
 0.56449997E+02 -0.37379E+04
 0.56499996E+02 -0.32928E+04
 0.56549995E+02 -0.37061E+04
 0.56599995E+02 -0.42795E+04
 0.56649998E+02 -0.41860E+04
 0.56699997E+02 -0.34311E+04
 0.56749996E+02 -0.27986E+04
 0.56799995E+02 -0.25052E+04
 0.56849995E+02 -0.13141E+04
 0.56899998E+02 -0.13518E+04
 0.56949997E+02 -0.19313E+04
 0.56999996E+02 -0.23991E+04
 0.57049995E+02 -0.18595E+04
 0.57099995E+02 -0.11276E+04
 0.57149998E+02 -0.16663E+04
 0.57199997E+02 -0.32101E+04
 0.57249996E+02 -0.41401E+04
 0.57299995E+02 -0.38394E+04
 0.57349995E+02 -0.31767E+04
 0.57399998E+02 -0.31727E+04
 0.57449997E+02 -0.41400E+04
 0.57499996E+02 -0.34575E+04
 0.57549995E+02 -0.34239E+04
 0.57599995E+02 -0.30648E+04
 0.57649998E+02 -0.29225E+04
 0.57699997E+02 -0.20766E+04
 0.57749996E+02 -0.16481E+04
 0.57799995E+02 -0.42915E+04
 0.57849995E+02 -0.40067E+04
 0.57899998E+02 -0.23545E+04
 0.57949997E+02 -0.32245E+04
 0.57999996E+02 -0.40016E+04
 0.58049995E+02 -0.37115E+04
 0.58099995E+02 -0.48486E+04
 0.58149998E+02 -0.48706E+04
 0.58199997E+02 -0.44593E+04
 0.58249996E+02 -0.31465E+04
 0.58299995E+02 -0.26845E+04
 0.58349995E+02 -0.31601E+04
 0.58399998E+02 -0.21554E+04
 0.58449997E+02 -0.22460E+04
 0.58499996E+02 -0.15681E+04
 0.58549995E+02 -0.10065E+04
 0.58599995E+02 -0.97581E+03
 0.58649998E+02 -0.26964E+04
 0.58699997E+02 -0.46802E+04
 0.58749996E+02 -0.44774E+04
 0.58799995E+02 -0.34871E+04
 0.58849995E+02 -0.37018E+04
 0.58899998E+02 -0.42147E+04
 0.58949997E+02 -0.34529E+04
 0.58999996E+02 -0.33736E+04
 0.59049995E+02 -0.38074E+04
 0.59099995E+02 -0.32221E+04
 0.59149998E+02 -0.33968E+04
 0.59199997E+02 -0.30732E+04
 0.59249996E+02 -0.22376E+04
 0.59299995E+02 -0.30590E+04
 0.59349995E+02 -0.35692E+04
 0.59399998E+02 -0.29202E+04
 0.59449997E+02 -0.25375E+04
 0.59499996E+02 -0.24177E+04
 0.59549995E+02 -0.17105E+04
 0.59599995E+02 -0.11984E+04
 0.59649998E+02 -0.86807E+03
 0.59699997E+02 -0.24725E+04
 0.59749996E+02 -0.36760E+04
 0.59799995E+02 -0.40886E+04
 0.59849995E+02 -0.44492E+04
 0.59899998E+02 -0.37936E+04
 0.59949997E+02 -0.29389E+04
 0.59999996E+02 -0.18296E+04
 0.60049995E+02 -0.22253E+04
 0.60099995E+02 -0.32896E+04
 0.60149998E+02 -0.37342E+04
 0.60199997E+02 -0.35753E+04
 0.60249996E+02 -0.35901E+04
 0.60299995E+02 -0.40993E+04
 0.60349995E+02 -0.39453E+04
 0.60399998E+02 -0.31306E+04
 0.60449997E+02 -0.30277E+04
 0.60499996E+02 -0.30801E+04
 0.60549995E+02 -0.26522E+04
 0.60599995E+02 -0.27309E+04
 0.60649998E+02 -0.27731E+04
 0.60699997E+02 -0.32788E+04
 0.60749996E+02 -0.34823E+04
 0.60799995E+02 -0.24873E+04
 0.60849995E+02 -0.22635E+04
 0.60899998E+02 -0.29672E+04
 0.60949997E+02 -0.30205E+04
 0.60999996E+02 -0.30294E+04
 0.61049995E+02 -0.32735E+04
 0.61099995E+02 -0.25359E+04
 0.61149998E+02 -0.25067E+04
 0.61199997E+02 -0.22872E+04
 0.61249996E+02 -0.25241E+04
 0.61299995E+02 -0.30690E+04
 0.61349995E+02 -0.23039E+04
 0.61399998E+02 -0.23219E+04
 0.61449997E+02 -0.28176E+04
 0.61499996E+02 -0.30735E+04
 0.61549995E+02 -0.40544E+04
 0.61599995E+02 -0.41017E+04
 0.61649998E+02 -0.34129E+04
 0.61699997E+02 -0.41493E+04
 0.61749996E+02 -0.37492E+04
 0.61799995E+02 -0.31349E+04
 0.61849995E+02 -0.34651E+04
 0.61899998E+02 -0.34295E+04
 0.61949997E+02 -0.28452E+04
 0.61999996E+02 -0.30201E+04
 0.62049995E+02 -0.29870E+04
 0.62099998E+02 -0.34023E+04
 0.62149994E+02 -0.46382E+04
 0.62199997E+02 -0.41078E+04
 0.62249992E+02 -0.35359E+04
 0.62299995E+02 -0.22472E+04
 0.62349998E+02 -0.18993E+04
 0.62399994E+02 -0.26012E+04
 0.62449997E+02 -0.25716E+04
 0.62499992E+02 -0.27794E+04
 0.62549995E+02 -0.32619E+04
 0.62599998E+02 -0.35705E+04
 0.62649994E+02 -0.41422E+04
 0.62699997E+02 -0.47041E+04
 0.62749992E+02 -0.38687E+04
 0.62799995E+02 -0.28530E+04
 0.62849998E+02 -0.24929E+04
 0.62899994E+02 -0.23415E+04
 0.62949997E+02 -0.20039E+04
 0.62999992E+02 -0.24535E+04
 0.63049995E+02 -0.21856E+04
 0.63099998E+02 -0.18945E+04
 0.63149994E+02 -0.25803E+04
 0.63199997E+02 -0.27998E+04
 0.63249992E+02 -0.31903E+04
 0.63299995E+02 -0.29678E+04
 0.63349998E+02 -0.24091E+04
 0.63399994E+02 -0.25685E+04
 0.63449997E+02 -0.20942E+04
 0.63499992E+02 -0.21445E+04
 0.63549995E+02 -0.25064E+04
 0.63599998E+02 -0.29120E+04
 0.63649994E+02 -0.39006E+04
 0.63699997E+02 -0.38952E+04
 0.63749992E+02 -0.41498E+04
 0.63799995E+02 -0.39839E+04
 0.63849998E+02 -0.28248E+04
 0.63899994E+02 -0.25294E+04
 0.63949997E+02 -0.30327E+04
 0.63999992E+02 -0.37406E+04
 0.64049995E+02 -0.40274E+04
 0.64099998E+02 -0.40366E+04
 0.64149994E+02 -0.39152E+04
 0.64199997E+02 -0.37539E+04
 0.64249992E+02 -0.34633E+04
 0.64299995E+02 -0.27337E+04
 0.64349998E+02 -0.25790E+04
 0.64399994E+02 -0.25963E+04
 0.64449997E+02 -0.24308E+04
 0.64499992E+02 -0.23393E+04
 0.64549995E+02 -0.23045E+04
 0.64599998E+02 -0.25945E+04
 0.64649994E+02 -0.34326E+04
 0.64699997E+02 -0.34869E+04
 0.64749992E+02 -0.30318E+04
 0.64799995E+02 -0.29232E+04
 0.64849998E+02 -0.33332E+04
 0.64899994E+02 -0.36349E+04
 0.64949997E+02 -0.38246E+04
 0.64999992E+02 -0.40047E+04
 0.65049995E+02 -0.33830E+04
 0.65099998E+02 -0.30152E+04
 0.65149994E+02 -0.28384E+04
 0.65199997E+02 -0.34246E+04
 0.65249992E+02 -0.38743E+04
 0.65299995E+02 -0.31786E+04
 0.65349998E+02 -0.25926E+04
 0.65399994E+02 -0.27571E+04
 0.65449997E+02 -0.26891E+04
 0.65499992E+02 -0.23333E+04
 0.65549995E+02 -0.26803E+04
 0.65599998E+02 -0.28193E+04
 0.65649994E+02 -0.29170E+04
 0.65699997E+02 -0.29374E+04
 0.65749992E+02 -0.29168E+04
 0.65799995E+02 -0.31030E+04
 0.65849998E+02 -0.30148E+04
 0.65899994E+02 -0.31488E+04
 0.65949997E+02 -0.33913E+04
 0.65999992E+02 -0.38329E+04
 0.66049995E+02 -0.31990E+04
 0.66099998E+02 -0.23954E+04
 0.66149994E+02 -0.23185E+04
 0.66199997E+02 -0.19984E+04
 0.66249992E+02 -0.22100E+04
 0.66299995E+02 -0.25291E+04
 0.66349998E+02 -0.28033E+04
 0.66399994E+02 -0.30171E+04
 0.66449997E+02 -0.32415E+04
 0.66499992E+02 -0.29126E+04
 0.66549995E+02 -0.27281E+04
 0.66599998E+02 -0.28534E+04
 0.66649994E+02 -0.29060E+04
 0.66699997E+02 -0.33816E+04
 0.66749992E+02 -0.32076E+04
 0.66799995E+02 -0.32740E+04
 0.66849998E+02 -0.33390E+04
 0.66899994E+02 -0.29483E+04
 0.66949997E+02 -0.33299E+04
 0.66999992E+02 -0.35643E+04
 0.67049995E+02 -0.33675E+04
 0.67099998E+02 -0.37810E+04
 0.67149994E+02 -0.40998E+04
 0.67199997E+02 -0.37630E+04
 0.67249992E+02 -0.36831E+04
 0.67299995E+02 -0.32384E+04
 0.67349998E+02 -0.30383E+04
 0.67399994E+02 -0.31953E+04
 0.67449997E+02 -0.30037E+04
 0.67499992E+02 -0.35967E+04
 0.67549995E+02 -0.40462E+04
 0.67599998E+02 -0.32972E+04
 0.67649994E+02 -0.22938E+04
 0.67699997E+02 -0.16600E+04
 0.67749992E+02 -0.20361E+04
 0.67799995E+02 -0.24964E+04
 0.67849998E+02 -0.23496E+04
 0.67899994E+02 -0.30395E+04
 0.67949997E+02 -0.37655E+04
 0.67999992E+02 -0.37432E+04
 0.68049995E+02 -0.33233E+04
 0.68099998E+02 -0.30291E+04
 0.68149994E+02 -0.28201E+04
 0.68199997E+02 -0.24383E+04
 0.68249992E+02 -0.25955E+04
 0.68299995E+02 -0.29182E+04
 0.68349998E+02 -0.29456E+04
 0.68399994E+02 -0.26296E+04
 0.68449997E+02 -0.27724E+04
 0.68499992E+02 -0.32208E+04
 0.68549995E+02 -0.29661E+04
 0.68599998E+02 -0.30562E+04
 0.68649994E+02 -0.30474E+04
 0.68699997E+02 -0.29153E+04
 0.68749992E+02 -0.29477E+04
 0.68799995E+02 -0.29664E+04
 0.68849998E+02 -0.28099E+04
 0.68899994E+02 -0.29353E+04
 0.68949997E+02 -0.38717E+04
 0.68999992E+02 -0.37514E+04
 0.69049995E+02 -0.34859E+04
 0.69099998E+02 -0.29300E+04
 0.69149994E+02 -0.23921E+04
 0.69199997E+02 -0.27059E+04
 0.69249992E+02 -0.27336E+04
 0.69299995E+02 -0.27309E+04
 0.69349998E+02 -0.30974E+04
 0.69399994E+02 -0.34047E+04
 0.69449997E+02 -0.30212E+04
 0.69499992E+02 -0.34113E+04
 0.69549995E+02 -0.33787E+04
 0.69599998E+02 -0.30371E+04
 0.69649994E+02 -0.34393E+04
 0.69699997E+02 -0.29955E+04
 0.69749992E+02 -0.30486E+04
 0.69799995E+02 -0.33487E+04
 0.69849998E+02 -0.25347E+04
 0.69899994E+02 -0.29164E+04
 0.69949997E+02 -0.38193E+04
 0.69999992E+02 -0.42012E+04
 0.70049995E+02 -0.40007E+04
 0.70099998E+02 -0.32159E+04
 0.70149994E+02 -0.34339E+04
 0.70199997E+02 -0.36410E+04
 0.70249992E+02 -0.34215E+04
 0.70299995E+02 -0.35442E+04
 0.70349998E+02 -0.32077E+04
 0.70399994E+02 -0.25334E+04
 0.70449997E+02 -0.24926E+04
 0.70499992E+02 -0.28557E+04
 0.70549995E+02 -0.27879E+04
 0.70599998E+02 -0.26313E+04
 0.70649994E+02 -0.28614E+04
 0.70699997E+02 -0.32048E+04
 0.70749992E+02 -0.30788E+04
 0.70799995E+02 -0.30804E+04
 0.70849998E+02 -0.31493E+04
 0.70899994E+02 -0.27748E+04
 0.70949997E+02 -0.28770E+04
 0.70999992E+02 -0.26033E+04
 0.71049995E+02 -0.21319E+04
 0.71099998E+02 -0.23756E+04
 0.71149994E+02 -0.31761E+04
 0.71199997E+02 -0.34260E+04
 0.71249992E+02 -0.36275E+04
 0.71299995E+02 -0.34784E+04
 0.71349998E+02 -0.31591E+04
 0.71399994E+02 -0.31453E+04
 0.71449997E+02 -0.28206E+04
 0.71499992E+02 -0.27737E+04
 0.71549995E+02 -0.27346E+04
 0.71599998E+02 -0.27981E+04
 0.71649994E+02 -0.31417E+04
 0.71699997E+02 -0.33845E+04
 0.71749992E+02 -0.31786E+04
 0.71799995E+02 -0.33453E+04
 0.71849998E+02 -0.32673E+04
 0.71899994E+02 -0.32866E+04
 0.71949997E+02 -0.32373E+04
 0.71999992E+02 -0.28676E+04
 0.72049995E+02 -0.27683E+04
 0.72099998E+02 -0.25416E+04
 0.72149994E+02 -0.21805E+04
 0.72199997E+02 -0.21199E+04
 0.72249992E+02 -0.24234E+04
 0.72299995E+02 -0.25664E+04
 0.72349998E+02 -0.31816E+04
 0.72399994E+02 -0.33576E+04
 0.72449997E+02 -0.30636E+04
 0.72499992E+02 -0.28391E+04
 0.72549995E+02 -0.28941E+04
 0.72599998E+02 -0.26986E+04
 0.72649994E+02 -0.28233E+04
 0.72699997E+02 -0.32876E+04
 0.72749992E+02 -0.32753E+04
 0.72799995E+02 -0.38524E+04
 0.72849998E+02 -0.38247E+04
 0.72899994E+02 -0.37457E+04
 0.72949997E+02 -0.37746E+04
 0.72999992E+02 -0.33721E+04
 0.73049995E+02 -0.33048E+04
 0.73099998E+02 -0.34693E+04
 0.73149994E+02 -0.36426E+04
 0.73199997E+02 -0.37183E+04
 0.73249992E+02 -0.35906E+04
 0.73299995E+02 -0.32622E+04
 0.73349998E+02 -0.31440E+04
 0.73399994E+02 -0.28596E+04
 0.73449997E+02 -0.27697E+04
 0.73499992E+02 -0.29729E+04
 0.73549995E+02 -0.28805E+04
 0.73599998E+02 -0.29513E+04
 0.73649994E+02 -0.30893E+04
 0.73699997E+02 -0.30570E+04
 0.73749992E+02 -0.27386E+04
 0.73799995E+02 -0.27336E+04
 0.73849998E+02 -0.30661E+04
 0.73899994E+02 -0.33144E+04
 0.73949997E+02 -0.34639E+04
 0.73999992E+02 -0.30799E+04
 0.74049995E+02 -0.31091E+04
 0.74099998E+02 -0.34220E+04
 0.74149994E+02 -0.32111E+04
 0.74199997E+02 -0.27330E+04
 0.74249992E+02 -0.24443E+04
 0.74299995E+02 -0.24647E+04
 0.74349998E+02 -0.21236E+04
 0.74399994E+02 -0.21922E+04
 0.74449997E+02 -0.22657E+04
 0.74499992E+02 -0.24874E+04
 0.74549995E+02 -0.29911E+04
 0.74599998E+02 -0.30518E+04
 0.74649994E+02 -0.31617E+04
 0.74699997E+02 -0.29830E+04
 0.74749992E+02 -0.29212E+04
 0.74799995E+02 -0.31042E+04
 0.74849998E+02 -0.34022E+04
 0.74899994E+02 -0.37180E+04
 0.74949997E+02 -0.36354E+04
 0.74999992E+02 -0.32984E+04
 0.75049995E+02 -0.35575E+04
 0.75099998E+02 -0.37054E+04
 0.75149994E+02 -0.34436E+04
 0.75199997E+02 -0.34983E+04
 0.75249992E+02 -0.32807E+04
 0.75299995E+02 -0.28279E+04
 0.75349998E+02 -0.28255E+04
 0.75399994E+02 -0.28998E+04
 0.75449997E+02 -0.30378E+04
 0.75499992E+02 -0.32554E+04
 0.75549995E+02 -0.36300E+04
 0.75599998E+02 -0.36138E+04
 0.75649994E+02 -0.33058E+04
 0.75699997E+02 -0.28722E+04
 0.75749992E+02 -0.26379E+04
 0.75799995E+02 -0.25872E+04
 0.75849998E+02 -0.23493E+04
 0.75899994E+02 -0.27929E+04
 0.75949997E+02 -0.29272E+04
 0.75999992E+02 -0.29850E+04
 0.76049995E+02 -0.31039E+04
 0.76099998E+02 -0.32968E+04
 0.76149994E+02 -0.32380E+04
 0.76199997E+02 -0.31653E+04
 0.76249992E+02 -0.34714E+04
 0.76299995E+02 -0.30377E+04
 0.76349998E+02 -0.25409E+04
 0.76399994E+02 -0.25684E+04
 0.76449997E+02 -0.29254E+04
 0.76499992E+02 -0.31711E+04
 0.76549995E+02 -0.31786E+04
 0.76599998E+02 -0.27964E+04
 0.76649994E+02 -0.26028E+04
 0.76699997E+02 -0.29450E+04
 0.76749992E+02 -0.32292E+04
 0.76799995E+02 -0.34302E+04
 0.76849998E+02 -0.34343E+04
 0.76899994E+02 -0.32934E+04
 0.76949997E+02 -0.29778E+04
 0.76999992E+02 -0.29016E+04
 0.77049995E+02 -0.28885E+04
 0.77099998E+02 -0.29391E+04
 0.77149994E+02 -0.30497E+04
 0.77199997E+02 -0.29772E+04
 0.77249992E+02 -0.28248E+04
 0.77299995E+02 -0.29399E+04
 0.77349998E+02 -0.30028E+04
 0.77399994E+02 -0.28131E+04
 0.77449997E+02 -0.29428E+04
 0.77499992E+02 -0.29664E+04
 0.77549995E+02 -0.32261E+04
 0.77599998E+02 -0.33455E+04
 0.77649994E+02 -0.35586E+04
 0.77699997E+02 -0.36835E+04
 0.77749992E+02 -0.33642E+04
 0.77799995E+02 -0.29913E+04
 0.77849998E+02 -0.25333E+04
 0.77899994E+02 -0.26794E+04
 0.77949997E+02 -0.29968E+04
 0.77999992E+02 -0.29466E+04
 0.78049995E+02 -0.30220E+04
 0.78099998E+02 -0.31042E+04
 0.78149994E+02 -0.29725E+04
 0.78199997E+02 -0.31874E+04
 0.78249992E+02 -0.34649E+04
 0.78299995E+02 -0.36599E+04
 0.78349998E+02 -0.35905E+04
 0.78399994E+02 -0.34628E+04
 0.78449997E+02 -0.36027E+04
 0.78499992E+02 -0.35519E+04
 0.78549995E+02 -0.33158E+04
 0.78599998E+02 -0.28842E+04
 0.78649994E+02 -0.25877E+04
 0.78699997E+02 -0.23982E+04
 0.78749992E+02 -0.21394E+04
 0.78799995E+02 -0.22761E+04
 0.78849998E+02 -0.25550E+04
 0.78899994E+02 -0.29201E+04
 0.78949997E+02 -0.29558E+04
 0.78999992E+02 -0.29107E+04
 0.79049995E+02 -0.33174E+04
 0.79099998E+02 -0.35140E+04
 0.79149994E+02 -0.33844E+04
 0.79199997E+02 -0.34330E+04
 0.79249992E+02 -0.34650E+04
 0.79299995E+02 -0.33528E+04
 0.79349998E+02 -0.34531E+04
 0.79399994E+02 -0.33479E+04
 0.79449997E+02 -0.31399E+04
 0.79499992E+02 -0.28876E+04
 0.79549995E+02 -0.26485E+04
 0.79599998E+02 -0.27037E+04
 0.79649994E+02 -0.29154E+04
 0.79699997E+02 -0.28767E+04
 0.79749992E+02 -0.26872E+04
 0.79799995E+02 -0.26698E+04
 0.79849998E+02 -0.28800E+04
 0.79899994E+02 -0.31992E+04
 0.79949997E+02 -0.31524E+04
 0.79999992E+02 -0.30207E+04
 0.80049995E+02 -0.30380E+04
 0.80099998E+02 -0.31138E+04
 0.80149994E+02 -0.33553E+04
 0.80199997E+02 -0.31612E+04
 0.80249992E+02 -0.28356E+04
 0.80299995E+02 -0.27106E+04
 0.80349998E+02 -0.28982E+04
 0.80399994E+02 -0.33248E+04
 0.80449997E+02 -0.33375E+04
 0.80499992E+02 -0.32929E+04
 0.80549995E+02 -0.31243E+04
 0.80599998E+02 -0.27795E+04
 0.80649994E+02 -0.27648E+04
 0.80699997E+02 -0.30907E+04
 0.80749992E+02 -0.32299E+04
 0.80799995E+02 -0.32301E+04
 0.80849998E+02 -0.33562E+04
 0.80899994E+02 -0.32219E+04
 0.80949997E+02 -0.30652E+04
 0.80999992E+02 -0.31773E+04
 0.81049995E+02 -0.30629E+04
 0.81099998E+02 -0.31674E+04
 0.81149994E+02 -0.31269E+04
 0.81199997E+02 -0.27479E+04
 0.81249992E+02 -0.28169E+04
 0.81299995E+02 -0.29455E+04
 0.81349998E+02 -0.29718E+04
 0.81399994E+02 -0.26879E+04
 0.81449997E+02 -0.26034E+04
 0.81499992E+02 -0.29573E+04
 0.81549995E+02 -0.32543E+04
 0.81599998E+02 -0.33650E+04
 0.81649994E+02 -0.31564E+04
 0.81699997E+02 -0.28092E+04
 0.81749992E+02 -0.27360E+04
 0.81799995E+02 -0.30663E+04
 0.81849998E+02 -0.34068E+04
 0.81899994E+02 -0.35633E+04
 0.81949997E+02 -0.34095E+04
 0.81999992E+02 -0.32269E+04
 0.82049995E+02 -0.31343E+04
 0.82099998E+02 -0.29323E+04
 0.82149994E+02 -0.27939E+04
 0.82199997E+02 -0.26749E+04
 0.82249992E+02 -0.28548E+04
 0.82299995E+02 -0.29834E+04
 0.82349998E+02 -0.28771E+04
 0.82399994E+02 -0.29763E+04
 0.82449997E+02 -0.33924E+04
 0.82499992E+02 -0.37330E+04
 0.82549995E+02 -0.35970E+04
 0.82599998E+02 -0.38174E+04
 0.82649994E+02 -0.40778E+04
 0.82699997E+02 -0.36891E+04
 0.82749992E+02 -0.30383E+04
 0.82799995E+02 -0.25940E+04
 0.82849998E+02 -0.24898E+04
 0.82899994E+02 -0.26148E+04
 0.82949997E+02 -0.29348E+04
 0.82999992E+02 -0.33159E+04
 0.83049995E+02 -0.33692E+04
 0.83099998E+02 -0.33641E+04
 0.83149994E+02 -0.33801E+04
 0.83199997E+02 -0.32460E+04
 0.83249992E+02 -0.31893E+04
 0.83299995E+02 -0.31528E+04
 0.83349998E+02 -0.30335E+04
 0.83399994E+02 -0.27474E+04
 0.83449997E+02 -0.25011E+04
 0.83499992E+02 -0.22184E+04
 0.83549995E+02 -0.22545E+04
 0.83599998E+02 -0.24934E+04
 0.83649994E+02 -0.25789E+04
 0.83699997E+02 -0.26938E+04
 0.83749992E+02 -0.28337E+04
 0.83799995E+02 -0.28705E+04
 0.83849998E+02 -0.29095E+04
 0.83899994E+02 -0.29241E+04
 0.83949997E+02 -0.28418E+04
 0.83999992E+02 -0.30621E+04
 0.84049995E+02 -0.31744E+04
 0.84099998E+02 -0.31589E+04
 0.84149994E+02 -0.33516E+04
 0.84199997E+02 -0.34645E+04
 0.84249992E+02 -0.33130E+04
 0.84299995E+02 -0.31512E+04
 0.84349998E+02 -0.31395E+04
 0.84399994E+02 -0.32158E+04
 0.84449997E+02 -0.34772E+04
 0.84499992E+02 -0.34059E+04
 0.84549995E+02 -0.30877E+04
 0.84599998E+02 -0.30935E+04
 0.84649994E+02 -0.29689E+04
 0.84699997E+02 -0.28803E+04
 0.84749992E+02 -0.31662E+04
 0.84799995E+02 -0.32943E+04
 0.84849998E+02 -0.32179E+04
 0.84899994E+02 -0.31324E+04
 0.84949997E+02 -0.31417E+04
 0.84999992E+02 -0.32167E+04
 0.85049995E+02 -0.32268E+04
 0.85099998E+02 -0.32924E+04
 0.85149994E+02 -0.33071E+04
 0.85199997E+02 -0.32981E+04
 0.85249992E+02 -0.31524E+04
 0.85299995E+02 -0.30412E+04
 0.85349998E+02 -0.31923E+04
 0.85399994E+02 -0.31631E+04
 0.85449997E+02 -0.29390E+04
 0.85499992E+02 -0.29266E+04
 0.85549995E+02 -0.31404E+04
 0.85599998E+02 -0.30851E+04
 0.85649994E+02 -0.29211E+04
 0.85699997E+02 -0.28515E+04
 0.85749992E+02 -0.29220E+04
 0.85799995E+02 -0.30734E+04
 0.85849998E+02 -0.32248E+04
 0.85899994E+02 -0.32794E+04
 0.85949997E+02 -0.31481E+04
 0.85999992E+02 -0.30667E+04
 0.86049995E+02 -0.29885E+04
 0.86099998E+02 -0.31230E+04
 0.86149994E+02 -0.31695E+04
 0.86199997E+02 -0.29696E+04
 0.86249992E+02 -0.28751E+04
 0.86299995E+02 -0.30466E+04
 0.86349998E+02 -0.31271E+04
 0.86399994E+02 -0.29905E+04
 0.86449997E+02 -0.28182E+04
 0.86499992E+02 -0.26614E+04
 0.86549995E+02 -0.28619E+04
 0.86599998E+02 -0.29635E+04
 0.86649994E+02 -0.30843E+04
 0.86699997E+02 -0.33186E+04
 0.86749992E+02 -0.33742E+04
 0.86799995E+02 -0.33657E+04
 0.86849998E+02 -0.31674E+04
 0.86899994E+02 -0.29224E+04
 0.86949997E+02 -0.27860E+04
 0.86999992E+02 -0.25608E+04
 0.87049995E+02 -0.22740E+04
 0.87099998E+02 -0.22530E+04
 0.87149994E+02 -0.24838E+04
 0.87199997E+02 -0.27102E+04
 0.87249992E+02 -0.28942E+04
 0.87299995E+02 -0.30083E+04
 0.87349998E+02 -0.29959E+04
 0.87399994E+02 -0.29944E+04
 0.87449997E+02 -0.30188E+04
 0.87499992E+02 -0.30947E+04
 0.87549995E+02 -0.31662E+04
 0.87599991E+02 -0.32565E+04
 0.87649994E+02 -0.32981E+04
 0.87699997E+02 -0.33592E+04
 0.87749992E+02 -0.34968E+04
 0.87799995E+02 -0.37012E+04
 0.87849991E+02 -0.36916E+04
 0.87899994E+02 -0.32323E+04
 0.87949997E+02 -0.30357E+04
 0.87999992E+02 -0.31906E+04
 0.88049995E+02 -0.32717E+04
 0.88099991E+02 -0.31053E+04
 0.88149994E+02 -0.30947E+04
 0.88199997E+02 -0.30457E+04
 0.88249992E+02 -0.28745E+04
 0.88299995E+02 -0.31259E+04
 0.88349991E+02 -0.32463E+04
 0.88399994E+02 -0.32143E+04
 0.88449997E+02 -0.32355E+04
 0.88499992E+02 -0.31200E+04
 0.88549995E+02 -0.31083E+04
 0.88599991E+02 -0.31824E+04
 0.88649994E+02 -0.31869E+04
 0.88699997E+02 -0.30725E+04
 0.88749992E+02 -0.29044E+04
 0.88799995E+02 -0.28328E+04
 0.88849991E+02 -0.30090E+04
 0.88899994E+02 -0.29906E+04
 0.88949997E+02 -0.27528E+04
 0.88999992E+02 -0.28223E+04
 0.89049995E+02 -0.29350E+04
 0.89099991E+02 -0.30065E+04
 0.89149994E+02 -0.29450E+04
 0.89199997E+02 -0.29701E+04
 0.89249992E+02 -0.30712E+04
 0.89299995E+02 -0.30220E+04
 0.89349991E+02 -0.30471E+04
 0.89399994E+02 -0.32212E+04
 0.89449997E+02 -0.33021E+04
 0.89499992E+02 -0.34357E+04
 0.89549995E+02 -0.35626E+04
 0.89599991E+02 -0.33479E+04
 0.89649994E+02 -0.31832E+04
 0.89699997E+02 -0.29494E+04
 0.89749992E+02 -0.28373E+04
 0.89799995E+02 -0.28558E+04
 0.89849991E+02 -0.29702E+04
 0.89899994E+02 -0.29386E+04
 0.89949997E+02 -0.27893E+04
 0.89999992E+02 -0.27851E+04
 0.90049995E+02 -0.28864E+04
 0.90099991E+02 -0.30985E+04
 0.90149994E+02 -0.29594E+04
 0.90199997E+02 -0.28893E+04
 0.90249992E+02 -0.28666E+04
 0.90299995E+02 -0.28199E+04
 0.90349991E+02 -0.27658E+04
 0.90399994E+02 -0.27761E+04
 0.90449997E+02 -0.28987E+04
 0.90499992E+02 -0.30107E+04
 0.90549995E+02 -0.30189E+04
 0.90599991E+02 -0.29176E+04
 0.90649994E+02 -0.28867E+04
 0.90699997E+02 -0.29875E+04
 0.90749992E+02 -0.34079E+04
 0.90799995E+02 -0.37420E+04
 0.90849991E+02 -0.37881E+04
 0.90899994E+02 -0.37110E+04
 0.90949997E+02 -0.34783E+04
 0.90999992E+02 -0.33211E+04
 0.91049995E+02 -0.34028E+04
 0.91099991E+02 -0.32708E+04
 0.91149994E+02 -0.30593E+04
 0.91199997E+02 -0.31610E+04
 0.91249992E+02 -0.31208E+04
 0.91299995E+02 -0.30803E+04
 0.91349991E+02 -0.29651E+04
 0.91399994E+02 -0.25911E+04
 0.91449997E+02 -0.26951E+04
 0.91499992E+02 -0.29077E+04
 0.91549995E+02 -0.29242E+04
 0.91599991E+02 -0.30445E+04
 0.91649994E+02 -0.30128E+04
 0.91699997E+02 -0.28363E+04
 0.91749992E+02 -0.29437E+04
 0.91799995E+02 -0.30695E+04
 0.91849991E+02 -0.30349E+04
 0.91899994E+02 -0.30662E+04
 0.91949997E+02 -0.29049E+04
 0.91999992E+02 -0.27978E+04
 0.92049995E+02 -0.29041E+04
 0.92099991E+02 -0.31072E+04
 0.92149994E+02 -0.31985E+04
 0.92199997E+02 -0.31308E+04
 0.92249992E+02 -0.32712E+04
 0.92299995E+02 -0.32869E+04
 0.92349991E+02 -0.31503E+04
 0.92399994E+02 -0.30474E+04
 0.92449997E+02 -0.29406E+04
 0.92499992E+02 -0.27888E+04
 0.92549995E+02 -0.27552E+04
 0.92599991E+02 -0.27717E+04
 0.92649994E+02 -0.27842E+04
 0.92699997E+02 -0.29866E+04
 0.92749992E+02 -0.31337E+04
 0.92799995E+02 -0.31487E+04
 0.92849991E+02 -0.31515E+04
 0.92899994E+02 -0.32773E+04
 0.92949997E+02 -0.33466E+04
 0.92999992E+02 -0.33194E+04
 0.93049995E+02 -0.31644E+04
 0.93099991E+02 -0.30094E+04
 0.93149994E+02 -0.29835E+04
 0.93199997E+02 -0.30307E+04
 0.93249992E+02 -0.32058E+04
 0.93299995E+02 -0.33194E+04
 0.93349991E+02 -0.33239E+04
 0.93399994E+02 -0.32807E+04
 0.93449997E+02 -0.31925E+04
 0.93499992E+02 -0.31477E+04
 0.93549995E+02 -0.29336E+04
 0.93599991E+02 -0.27720E+04
 0.93649994E+02 -0.29136E+04
 0.93699997E+02 -0.30984E+04
 0.93749992E+02 -0.33105E+04
 0.93799995E+02 -0.33565E+04
 0.93849991E+02 -0.33873E+04
 0.93899994E+02 -0.33829E+04
 0.93949997E+02 -0.31910E+04
 0.93999992E+02 -0.31569E+04
 0.94049995E+02 -0.32017E+04
 0.94099991E+02 -0.30674E+04
 0.94149994E+02 -0.29124E+04
 0.94199997E+02 -0.30086E+04
 0.94249992E+02 -0.29365E+04
 0.94299995E+02 -0.28016E+04
 0.94349991E+02 -0.27600E+04
 0.94399994E+02 -0.27450E+04
 0.94449997E+02 -0.28636E+04
 0.94499992E+02 -0.28247E+04
 0.94549995E+02 -0.27709E+04
 0.94599991E+02 -0.28758E+04
 0.94649994E+02 -0.30100E+04
 0.94699997E+02 -0.31259E+04
 0.94749992E+02 -0.32802E+04
 0.94799995E+02 -0.32672E+04
 0.94849991E+02 -0.31340E+04
 0.94899994E+02 -0.29760E+04
 0.94949997E+02 -0.29415E+04
 0.94999992E+02 -0.30454E+04
 0.95049995E+02 -0.30143E+04
 0.95099991E+02 -0.29912E+04
 0.95149994E+02 -0.29450E+04
 0.95199997E+02 -0.29773E+04
 0.95249992E+02 -0.31074E+04
 0.95299995E+02 -0.30994E+04
 0.95349991E+02 -0.30443E+04
 0.95399994E+02 -0.29138E+04
 0.95449997E+02 -0.28433E+04
 0.95499992E+02 -0.28223E+04
 0.95549995E+02 -0.27833E+04
 0.95599991E+02 -0.26818E+04
 0.95649994E+02 -0.27515E+04
 0.95699997E+02 -0.29518E+04
 0.95749992E+02 -0.29931E+04
 0.95799995E+02 -0.30314E+04
 0.95849991E+02 -0.30526E+04
 0.95899994E+02 -0.29330E+04
 0.95949997E+02 -0.29131E+04
 0.95999992E+02 -0.30603E+04
 0.96049995E+02 -0.30927E+04
 0.96099991E+02 -0.32840E+04
 0.96149994E+02 -0.34866E+04
 0.96199997E+02 -0.35883E+04
 0.96249992E+02 -0.35620E+04
 0.96299995E+02 -0.34633E+04
 0.96349991E+02 -0.34961E+04
 0.96399994E+02 -0.33709E+04
 0.96449997E+02 -0.32582E+04
 0.96499992E+02 -0.33366E+04
 0.96549995E+02 -0.32524E+04
 0.96599991E+02 -0.31363E+04
 0.96649994E+02 -0.31398E+04
 0.96699997E+02 -0.31160E+04
 0.96749992E+02 -0.32176E+04
 0.96799995E+02 -0.33471E+04
 0.96849991E+02 -0.32369E+04
 0.96899994E+02 -0.32187E+04
 0.96949997E+02 -0.31579E+04
 0.96999992E+02 -0.31287E+04
 0.97049995E+02 -0.32121E+04
 0.97099991E+02 -0.31086E+04
 0.97149994E+02 -0.31575E+04
 0.97199997E+02 -0.30461E+04
 0.97249992E+02 -0.29256E+04
 0.97299995E+02 -0.29177E+04
 0.97349991E+02 -0.29491E+04
 0.97399994E+02 -0.30096E+04
 0.97449997E+02 -0.29251E+04
 0.97499992E+02 -0.27463E+04
 0.97549995E+02 -0.26488E+04
 0.97599991E+02 -0.27311E+04
 0.97649994E+02 -0.28840E+04
 0.97699997E+02 -0.30633E+04
 0.97749992E+02 -0.31215E+04
 0.97799995E+02 -0.31634E+04
 0.97849991E+02 -0.31861E+04
 0.97899994E+02 -0.30944E+04
 0.97949997E+02 -0.29891E+04
 0.97999992E+02 -0.28203E+04
