-0.20000000E+01  0.22497E+04
-0.19500000E+01  0.22246E+04
-0.19000000E+01  0.21028E+04
-0.18500000E+01  0.19090E+04
-0.18000000E+01  0.16909E+04
-0.17500000E+01  0.14340E+04
-0.17000000E+01  0.11993E+04
-0.16500001E+01  0.96860E+03
-0.16000000E+01  0.77673E+03
-0.15500000E+01  0.63254E+03
-0.15000000E+01  0.54308E+03
-0.14500000E+01  0.55806E+03
-0.14000001E+01  0.62287E+03
-0.13500000E+01  0.73822E+03
-0.13000001E+01  0.85251E+03
-0.12500000E+01  0.94787E+03
-0.12000000E+01  0.10297E+04
-0.11500001E+01  0.10611E+04
-0.11000000E+01  0.10544E+04
-0.10500001E+01  0.10222E+04
-0.10000000E+01  0.97087E+03
-0.95000005E+00  0.87324E+03
-0.90000010E+00  0.79671E+03
-0.85000002E+00  0.72904E+03
-0.80000007E+00  0.69765E+03
-0.75000012E+00  0.68811E+03
-0.70000005E+00  0.71368E+03
-0.65000010E+00  0.78600E+03
-0.60000014E+00  0.86282E+03
-0.55000007E+00  0.96509E+03
-0.50000012E+00  0.10543E+04
-0.45000005E+00  0.11237E+04
-0.40000010E+00  0.11755E+04
-0.35000014E+00  0.11934E+04
-0.30000007E+00  0.11894E+04
-0.25000012E+00  0.11647E+04
-0.20000005E+00  0.11420E+04
-0.15000010E+00  0.11195E+04
-0.10000014E+00  0.11188E+04
-0.50000072E-01  0.11442E+04
-0.11920929E-06  0.11457E+04
 0.49999952E-01  0.11400E+04
 0.99999905E-01  0.11369E+04
 0.14999986E+00  0.11409E+04
 0.19999981E+00  0.11442E+04
 0.24999976E+00  0.11595E+04
 0.29999995E+00  0.11511E+04
 0.34999990E+00  0.11635E+04
 0.39999986E+00  0.11742E+04
 0.44999981E+00  0.11716E+04
 0.49999976E+00  0.11881E+04
 0.54999995E+00  0.11854E+04
 0.59999990E+00  0.12112E+04
 0.64999986E+00  0.12383E+04
 0.69999981E+00  0.12822E+04
 0.74999976E+00  0.13625E+04
 0.79999971E+00  0.14332E+04
 0.84999990E+00  0.14986E+04
 0.89999986E+00  0.15444E+04
 0.94999981E+00  0.15763E+04
 0.99999976E+00  0.15792E+04
 0.10499997E+01  0.15646E+04
 0.10999999E+01  0.15210E+04
 0.11499999E+01  0.14237E+04
 0.11999998E+01  0.13490E+04
 0.12499998E+01  0.12560E+04
 0.12999997E+01  0.11669E+04
 0.13499999E+01  0.10803E+04
 0.13999999E+01  0.95964E+03
 0.14499998E+01  0.86924E+03
 0.14999998E+01  0.80436E+03
 0.15499997E+01  0.80861E+03
 0.15999999E+01  0.87489E+03
 0.16499999E+01  0.96194E+03
 0.16999998E+01  0.11090E+04
 0.17499998E+01  0.12559E+04
 0.17999997E+01  0.13925E+04
 0.18499997E+01  0.15232E+04
 0.18999999E+01  0.16208E+04
 0.19499998E+01  0.17035E+04
 0.19999998E+01  0.17726E+04
 0.20499997E+01  0.18079E+04
 0.20999999E+01  0.18187E+04
 0.21499996E+01  0.17793E+04
 0.21999998E+01  0.16923E+04
 0.22499995E+01  0.16100E+04
 0.22999997E+01  0.14993E+04
 0.23499999E+01  0.14109E+04
 0.23999996E+01  0.13222E+04
 0.24499998E+01  0.12184E+04
 0.24999995E+01  0.11766E+04
 0.25499997E+01  0.11343E+04
 0.25999999E+01  0.11156E+04
 0.26499996E+01  0.11105E+04
 0.26999998E+01  0.10925E+04
 0.27499995E+01  0.10825E+04
 0.27999997E+01  0.10638E+04
 0.28499999E+01  0.10665E+04
 0.28999996E+01  0.10674E+04
 0.29499998E+01  0.10707E+04
 0.29999995E+01  0.10813E+04
 0.30499997E+01  0.10850E+04
 0.30999999E+01  0.11117E+04
 0.31499996E+01  0.11353E+04
 0.31999998E+01  0.11514E+04
 0.32499995E+01  0.11865E+04
 0.32999997E+01  0.11797E+04
 0.33499999E+01  0.11728E+04
 0.33999996E+01  0.11586E+04
 0.34499998E+01  0.11293E+04
 0.34999995E+01  0.11243E+04
 0.35499997E+01  0.11105E+04
 0.35999994E+01  0.11086E+04
 0.36499996E+01  0.11167E+04
 0.36999998E+01  0.11403E+04
 0.37499995E+01  0.11868E+04
 0.37999997E+01  0.12362E+04
 0.38499994E+01  0.13016E+04
 0.38999996E+01  0.13857E+04
 0.39499998E+01  0.14551E+04
 0.39999995E+01  0.14982E+04
 0.40499997E+01  0.15275E+04
 0.40999994E+01  0.15430E+04
 0.41499996E+01  0.15253E+04
 0.41999998E+01  0.15110E+04
 0.42499995E+01  0.14961E+04
 0.42999997E+01  0.14922E+04
 0.43499994E+01  0.14881E+04
 0.43999996E+01  0.14620E+04
 0.44499998E+01  0.14371E+04
 0.44999995E+01  0.14169E+04
 0.45499997E+01  0.14151E+04
 0.45999994E+01  0.14007E+04
 0.46499996E+01  0.13609E+04
 0.46999998E+01  0.13059E+04
 0.47499995E+01  0.12466E+04
 0.47999997E+01  0.11660E+04
 0.48499994E+01  0.10703E+04
 0.48999996E+01  0.97426E+03
 0.49499998E+01  0.87785E+03
 0.49999995E+01  0.81080E+03
 0.50499997E+01  0.77379E+03
 0.50999994E+01  0.75179E+03
 0.51499996E+01  0.75831E+03
 0.51999998E+01  0.76987E+03
 0.52499995E+01  0.78269E+03
 0.52999997E+01  0.79956E+03
 0.53499994E+01  0.81996E+03
 0.53999996E+01  0.84400E+03
 0.54499993E+01  0.87503E+03
 0.54999995E+01  0.89472E+03
 0.55499997E+01  0.92818E+03
 0.55999994E+01  0.96258E+03
 0.56499996E+01  0.10158E+04
 0.56999993E+01  0.11055E+04
 0.57499995E+01  0.12059E+04
 0.57999997E+01  0.13108E+04
 0.58499994E+01  0.14037E+04
 0.58999996E+01  0.14859E+04
 0.59499993E+01  0.15571E+04
 0.59999995E+01  0.16085E+04
 0.60499992E+01  0.16637E+04
 0.60999994E+01  0.17112E+04
 0.61499996E+01  0.17409E+04
 0.61999998E+01  0.17891E+04
 0.62499990E+01  0.18040E+04
 0.62999992E+01  0.18075E+04
 0.63499994E+01  0.17687E+04
 0.63999996E+01  0.16766E+04
 0.64499998E+01  0.15681E+04
 0.64999990E+01  0.14220E+04
 0.65499992E+01  0.12917E+04
 0.65999994E+01  0.11860E+04
 0.66499996E+01  0.10723E+04
 0.66999998E+01  0.98199E+03
 0.67499990E+01  0.91045E+03
 0.67999992E+01  0.87844E+03
 0.68499994E+01  0.89628E+03
 0.68999996E+01  0.93534E+03
 0.69499998E+01  0.98973E+03
 0.69999990E+01  0.10503E+04
 0.70499992E+01  0.11189E+04
 0.70999994E+01  0.11890E+04
 0.71499996E+01  0.12761E+04
 0.71999998E+01  0.13621E+04
 0.72499990E+01  0.14545E+04
 0.72999992E+01  0.15053E+04
 0.73499994E+01  0.15187E+04
 0.73999996E+01  0.14813E+04
 0.74499998E+01  0.14037E+04
 0.74999990E+01  0.13219E+04
 0.75499992E+01  0.12199E+04
 0.75999994E+01  0.11158E+04
 0.76499996E+01  0.10185E+04
 0.76999998E+01  0.91645E+03
 0.77499990E+01  0.84333E+03
 0.77999992E+01  0.77973E+03
 0.78499994E+01  0.72893E+03
 0.78999996E+01  0.74275E+03
 0.79499998E+01  0.77795E+03
 0.79999990E+01  0.83269E+03
 0.80499992E+01  0.91956E+03
 0.80999994E+01  0.10243E+04
 0.81499996E+01  0.11169E+04
 0.81999998E+01  0.11923E+04
 0.82499990E+01  0.12420E+04
 0.82999992E+01  0.12809E+04
 0.83499994E+01  0.12922E+04
 0.83999996E+01  0.12880E+04
 0.84499998E+01  0.12802E+04
 0.84999990E+01  0.12396E+04
 0.85499992E+01  0.12089E+04
 0.85999994E+01  0.11959E+04
 0.86499996E+01  0.11965E+04
 0.86999998E+01  0.11995E+04
 0.87499990E+01  0.11780E+04
 0.87999992E+01  0.11943E+04
 0.88499994E+01  0.11945E+04
 0.88999996E+01  0.12084E+04
 0.89499998E+01  0.12456E+04
 0.89999990E+01  0.12734E+04
 0.90499992E+01  0.13395E+04
 0.90999994E+01  0.13887E+04
 0.91499996E+01  0.14390E+04
 0.91999989E+01  0.14796E+04
 0.92499990E+01  0.14919E+04
 0.92999992E+01  0.14872E+04
 0.93499994E+01  0.14726E+04
 0.93999996E+01  0.14629E+04
 0.94499989E+01  0.14398E+04
 0.94999990E+01  0.14147E+04
 0.95499992E+01  0.13588E+04
 0.95999994E+01  0.13109E+04
 0.96499996E+01  0.12631E+04
 0.96999989E+01  0.12106E+04
 0.97499990E+01  0.11867E+04
 0.97999992E+01  0.11665E+04
 0.98499994E+01  0.11418E+04
 0.98999996E+01  0.11004E+04
 0.99499989E+01  0.10603E+04
 0.99999990E+01  0.10176E+04
 0.10049999E+02  0.10036E+04
 0.10099999E+02  0.10141E+04
 0.10150000E+02  0.10536E+04
 0.10199999E+02  0.11070E+04
 0.10249999E+02  0.11763E+04
 0.10299999E+02  0.12565E+04
 0.10349999E+02  0.13216E+04
 0.10400000E+02  0.13853E+04
 0.10449999E+02  0.14350E+04
 0.10499999E+02  0.14650E+04
 0.10549999E+02  0.14910E+04
 0.10599999E+02  0.14834E+04
 0.10650000E+02  0.14633E+04
 0.10699999E+02  0.14365E+04
 0.10749999E+02  0.13725E+04
 0.10799999E+02  0.13344E+04
 0.10849999E+02  0.12821E+04
 0.10900000E+02  0.12716E+04
 0.10949999E+02  0.12699E+04
 0.10999999E+02  0.12673E+04
 0.11049999E+02  0.12840E+04
 0.11099999E+02  0.12792E+04
 0.11150000E+02  0.13021E+04
 0.11199999E+02  0.13224E+04
 0.11249999E+02  0.13233E+04
 0.11299999E+02  0.13291E+04
 0.11349999E+02  0.13375E+04
 0.11400000E+02  0.13283E+04
 0.11449999E+02  0.13371E+04
 0.11499999E+02  0.13292E+04
 0.11549999E+02  0.13210E+04
 0.11599999E+02  0.13252E+04
 0.11650000E+02  0.12816E+04
 0.11699999E+02  0.12224E+04
 0.11749999E+02  0.11407E+04
 0.11799999E+02  0.10310E+04
 0.11849999E+02  0.94620E+03
 0.11900000E+02  0.85346E+03
 0.11949999E+02  0.76351E+03
 0.11999999E+02  0.72628E+03
 0.12049999E+02  0.71322E+03
 0.12099999E+02  0.76430E+03
 0.12150000E+02  0.83515E+03
 0.12199999E+02  0.92473E+03
 0.12249999E+02  0.10261E+04
 0.12299999E+02  0.11081E+04
 0.12349999E+02  0.12300E+04
 0.12400000E+02  0.13352E+04
 0.12449999E+02  0.14504E+04
 0.12499999E+02  0.15539E+04
 0.12549999E+02  0.16292E+04
 0.12599999E+02  0.17020E+04
 0.12649999E+02  0.17666E+04
 0.12699999E+02  0.18095E+04
 0.12749999E+02  0.18501E+04
 0.12799999E+02  0.18461E+04
 0.12849999E+02  0.17931E+04
 0.12899999E+02  0.17235E+04
 0.12949999E+02  0.16057E+04
 0.12999999E+02  0.14806E+04
 0.13049999E+02  0.13510E+04
 0.13099999E+02  0.12104E+04
 0.13149999E+02  0.11048E+04
 0.13199999E+02  0.10307E+04
 0.13249999E+02  0.97820E+03
 0.13299999E+02  0.97760E+03
 0.13349999E+02  0.97210E+03
 0.13399999E+02  0.98640E+03
 0.13449999E+02  0.98882E+03
 0.13499999E+02  0.98758E+03
 0.13549999E+02  0.99730E+03
 0.13599999E+02  0.98255E+03
 0.13649999E+02  0.96690E+03
 0.13699999E+02  0.92665E+03
 0.13749999E+02  0.90466E+03
 0.13799999E+02  0.88910E+03
 0.13849999E+02  0.85436E+03
 0.13899999E+02  0.82432E+03
 0.13949999E+02  0.78356E+03
 0.13999999E+02  0.74514E+03
 0.14049999E+02  0.72638E+03
 0.14099998E+02  0.71686E+03
 0.14150000E+02  0.71688E+03
 0.14199999E+02  0.71566E+03
 0.14249998E+02  0.71751E+03
 0.14299999E+02  0.71848E+03
 0.14349998E+02  0.76625E+03
 0.14400000E+02  0.82526E+03
 0.14449999E+02  0.90716E+03
 0.14499998E+02  0.99455E+03
 0.14549999E+02  0.10950E+04
 0.14599998E+02  0.12092E+04
 0.14650000E+02  0.13156E+04
 0.14699999E+02  0.14592E+04
 0.14749998E+02  0.15971E+04
 0.14799999E+02  0.17207E+04
 0.14849998E+02  0.18201E+04
 0.14900000E+02  0.18878E+04
 0.14949999E+02  0.19328E+04
 0.14999998E+02  0.19508E+04
 0.15049999E+02  0.19672E+04
 0.15099998E+02  0.19750E+04
 0.15150000E+02  0.19635E+04
 0.15199999E+02  0.19356E+04
 0.15249998E+02  0.18563E+04
 0.15299999E+02  0.17705E+04
 0.15349998E+02  0.16598E+04
 0.15400000E+02  0.15404E+04
 0.15449999E+02  0.14220E+04
 0.15499998E+02  0.13163E+04
 0.15549999E+02  0.12268E+04
 0.15599998E+02  0.11468E+04
 0.15650000E+02  0.10795E+04
 0.15699999E+02  0.10112E+04
 0.15749998E+02  0.94367E+03
 0.15799999E+02  0.89873E+03
 0.15849998E+02  0.86439E+03
 0.15900000E+02  0.84124E+03
 0.15949999E+02  0.83708E+03
 0.15999998E+02  0.83238E+03
 0.16049999E+02  0.84848E+03
 0.16099998E+02  0.84873E+03
 0.16150000E+02  0.84964E+03
 0.16199999E+02  0.88334E+03
 0.16249998E+02  0.94613E+03
 0.16299999E+02  0.10397E+04
 0.16349998E+02  0.11584E+04
 0.16400000E+02  0.12563E+04
 0.16449999E+02  0.13559E+04
 0.16499998E+02  0.14273E+04
 0.16549999E+02  0.14789E+04
 0.16599998E+02  0.15338E+04
 0.16650000E+02  0.15640E+04
 0.16699999E+02  0.15845E+04
 0.16749998E+02  0.15721E+04
 0.16799999E+02  0.15271E+04
 0.16849998E+02  0.14655E+04
 0.16900000E+02  0.13879E+04
 0.16949999E+02  0.12940E+04
 0.16999998E+02  0.12001E+04
 0.17049999E+02  0.10865E+04
 0.17099998E+02  0.10066E+04
 0.17150000E+02  0.93422E+03
 0.17199999E+02  0.87324E+03
 0.17249998E+02  0.85625E+03
 0.17299999E+02  0.85426E+03
 0.17349998E+02  0.90490E+03
 0.17400000E+02  0.97310E+03
 0.17449999E+02  0.10684E+04
 0.17499998E+02  0.11775E+04
 0.17549999E+02  0.12900E+04
 0.17599998E+02  0.13940E+04
 0.17650000E+02  0.15119E+04
 0.17699999E+02  0.16147E+04
 0.17749998E+02  0.16989E+04
 0.17799999E+02  0.17444E+04
 0.17849998E+02  0.17342E+04
 0.17900000E+02  0.16938E+04
 0.17949999E+02  0.16087E+04
 0.17999998E+02  0.15230E+04
 0.18049999E+02  0.14294E+04
 0.18099998E+02  0.13073E+04
 0.18150000E+02  0.11795E+04
 0.18199999E+02  0.10537E+04
 0.18249998E+02  0.93245E+03
 0.18299999E+02  0.84695E+03
 0.18349998E+02  0.77845E+03
 0.18400000E+02  0.78587E+03
 0.18449999E+02  0.84112E+03
 0.18499998E+02  0.91349E+03
 0.18549999E+02  0.99725E+03
 0.18599998E+02  0.10844E+04
 0.18650000E+02  0.12084E+04
 0.18699999E+02  0.13466E+04
 0.18749998E+02  0.14778E+04
 0.18799999E+02  0.15826E+04
 0.18849998E+02  0.16594E+04
 0.18900000E+02  0.16907E+04
 0.18949999E+02  0.16800E+04
 0.18999998E+02  0.16299E+04
 0.19049999E+02  0.15434E+04
 0.19099998E+02  0.14392E+04
 0.19150000E+02  0.13226E+04
 0.19199999E+02  0.12067E+04
 0.19249998E+02  0.10928E+04
 0.19299999E+02  0.98800E+03
 0.19349998E+02  0.89513E+03
 0.19400000E+02  0.81580E+03
 0.19449999E+02  0.77394E+03
 0.19499998E+02  0.73339E+03
 0.19549999E+02  0.74080E+03
 0.19599998E+02  0.76634E+03
 0.19650000E+02  0.80039E+03
 0.19699999E+02  0.90788E+03
 0.19749998E+02  0.10018E+04
 0.19799999E+02  0.11113E+04
 0.19849998E+02  0.12178E+04
 0.19900000E+02  0.13040E+04
 0.19949999E+02  0.13851E+04
 0.19999998E+02  0.14556E+04
 0.20049999E+02  0.15143E+04
 0.20099998E+02  0.15852E+04
 0.20150000E+02  0.16429E+04
 0.20199999E+02  0.16842E+04
 0.20249998E+02  0.16996E+04
 0.20299999E+02  0.16732E+04
 0.20349998E+02  0.16436E+04
 0.20399998E+02  0.15850E+04
 0.20449999E+02  0.15100E+04
 0.20499998E+02  0.14278E+04
 0.20549999E+02  0.13459E+04
 0.20599998E+02  0.12610E+04
 0.20649998E+02  0.11753E+04
 0.20699999E+02  0.11115E+04
 0.20749998E+02  0.10717E+04
 0.20799999E+02  0.10575E+04
 0.20849998E+02  0.10694E+04
 0.20899998E+02  0.10948E+04
 0.20949999E+02  0.11073E+04
 0.20999998E+02  0.11093E+04
 0.21049999E+02  0.11034E+04
 0.21099998E+02  0.10837E+04
 0.21149998E+02  0.10414E+04
 0.21199999E+02  0.99556E+03
 0.21249998E+02  0.93767E+03
 0.21299999E+02  0.86585E+03
 0.21349998E+02  0.78991E+03
 0.21399998E+02  0.71106E+03
 0.21449999E+02  0.66657E+03
 0.21499998E+02  0.62579E+03
 0.21549999E+02  0.61167E+03
 0.21599998E+02  0.64401E+03
 0.21649998E+02  0.69074E+03
 0.21699999E+02  0.77428E+03
 0.21749998E+02  0.86870E+03
 0.21799999E+02  0.98357E+03
 0.21849998E+02  0.11237E+04
 0.21899998E+02  0.12674E+04
 0.21949999E+02  0.14120E+04
 0.21999998E+02  0.15122E+04
 0.22049999E+02  0.16050E+04
 0.22099998E+02  0.16702E+04
 0.22149998E+02  0.16780E+04
 0.22199999E+02  0.16835E+04
 0.22249998E+02  0.16641E+04
 0.22299999E+02  0.16164E+04
 0.22349998E+02  0.15624E+04
 0.22399998E+02  0.14769E+04
 0.22449999E+02  0.13851E+04
 0.22499998E+02  0.13316E+04
 0.22549999E+02  0.13007E+04
 0.22599998E+02  0.12906E+04
 0.22649998E+02  0.12805E+04
 0.22699999E+02  0.12863E+04
 0.22749998E+02  0.12819E+04
 0.22799999E+02  0.12726E+04
 0.22849998E+02  0.12851E+04
 0.22899998E+02  0.13052E+04
 0.22949999E+02  0.13244E+04
 0.22999998E+02  0.13269E+04
 0.23049999E+02  0.13331E+04
 0.23099998E+02  0.13139E+04
 0.23149998E+02  0.13062E+04
 0.23199999E+02  0.13072E+04
 0.23249998E+02  0.12959E+04
 0.23299999E+02  0.13016E+04
 0.23349998E+02  0.12860E+04
 0.23399998E+02  0.12750E+04
 0.23449999E+02  0.12743E+04
 0.23499998E+02  0.12940E+04
 0.23549999E+02  0.13171E+04
 0.23599998E+02  0.13550E+04
 0.23649998E+02  0.13977E+04
 0.23699999E+02  0.14263E+04
 0.23749998E+02  0.14190E+04
 0.23799999E+02  0.14020E+04
 0.23849998E+02  0.13744E+04
 0.23899998E+02  0.13219E+04
 0.23949999E+02  0.13165E+04
 0.23999998E+02  0.12776E+04
 0.24049999E+02  0.12242E+04
 0.24099998E+02  0.11602E+04
 0.24149998E+02  0.10648E+04
 0.24199999E+02  0.97981E+03
 0.24249998E+02  0.93288E+03
 0.24299999E+02  0.88928E+03
 0.24349998E+02  0.90221E+03
 0.24399998E+02  0.91020E+03
 0.24449999E+02  0.93074E+03
 0.24499998E+02  0.99569E+03
 0.24549999E+02  0.10286E+04
 0.24599998E+02  0.11333E+04
 0.24649998E+02  0.11901E+04
 0.24699999E+02  0.12961E+04
 0.24749998E+02  0.13791E+04
 0.24799999E+02  0.14483E+04
 0.24849998E+02  0.15506E+04
 0.24899998E+02  0.15885E+04
 0.24949999E+02  0.16572E+04
 0.24999998E+02  0.16495E+04
 0.25049999E+02  0.16637E+04
 0.25099998E+02  0.16310E+04
 0.25149998E+02  0.15875E+04
 0.25199999E+02  0.15671E+04
 0.25249998E+02  0.15184E+04
 0.25299999E+02  0.14950E+04
 0.25349998E+02  0.14461E+04
 0.25399998E+02  0.14129E+04
 0.25449999E+02  0.13662E+04
 0.25499998E+02  0.13307E+04
 0.25549999E+02  0.12967E+04
 0.25599998E+02  0.12662E+04
 0.25649998E+02  0.12037E+04
 0.25699999E+02  0.11339E+04
 0.25749998E+02  0.10561E+04
 0.25799999E+02  0.95597E+03
 0.25849998E+02  0.87324E+03
 0.25899998E+02  0.77790E+03
 0.25949999E+02  0.69556E+03
 0.25999998E+02  0.58040E+03
 0.26049999E+02  0.50840E+03
 0.26099998E+02  0.44637E+03
 0.26149998E+02  0.42950E+03
 0.26199999E+02  0.43673E+03
 0.26249998E+02  0.49519E+03
 0.26299999E+02  0.57694E+03
 0.26349998E+02  0.66959E+03
 0.26399998E+02  0.79620E+03
 0.26449999E+02  0.91245E+03
 0.26499998E+02  0.10653E+04
 0.26549999E+02  0.11855E+04
 0.26599998E+02  0.12974E+04
 0.26649998E+02  0.13941E+04
 0.26699999E+02  0.14909E+04
 0.26749998E+02  0.15383E+04
 0.26799999E+02  0.15878E+04
 0.26849998E+02  0.16145E+04
 0.26899998E+02  0.16365E+04
 0.26949999E+02  0.16242E+04
 0.26999998E+02  0.15744E+04
 0.27049997E+02  0.15681E+04
 0.27099998E+02  0.15694E+04
 0.27149998E+02  0.15492E+04
 0.27199999E+02  0.15515E+04
 0.27249998E+02  0.15658E+04
 0.27299997E+02  0.15670E+04
 0.27349998E+02  0.16037E+04
 0.27399998E+02  0.16084E+04
 0.27449999E+02  0.16312E+04
 0.27499998E+02  0.16370E+04
 0.27549997E+02  0.16193E+04
 0.27599998E+02  0.16054E+04
 0.27649998E+02  0.15823E+04
 0.27699999E+02  0.15591E+04
 0.27749998E+02  0.15011E+04
 0.27799997E+02  0.14370E+04
 0.27849998E+02  0.13627E+04
 0.27899998E+02  0.13029E+04
 0.27949999E+02  0.12268E+04
 0.27999998E+02  0.11391E+04
 0.28049997E+02  0.10706E+04
 0.28099998E+02  0.10201E+04
 0.28149998E+02  0.10235E+04
 0.28199999E+02  0.10366E+04
 0.28249998E+02  0.10745E+04
 0.28299997E+02  0.10943E+04
 0.28349998E+02  0.11173E+04
 0.28399998E+02  0.11545E+04
 0.28449999E+02  0.11844E+04
 0.28499998E+02  0.12213E+04
 0.28549997E+02  0.12250E+04
 0.28599998E+02  0.11987E+04
 0.28649998E+02  0.11394E+04
 0.28699999E+02  0.10769E+04
 0.28749998E+02  0.10632E+04
 0.28799997E+02  0.10503E+04
 0.28849998E+02  0.10021E+04
 0.28899998E+02  0.91042E+03
 0.28949999E+02  0.82638E+03
 0.28999998E+02  0.81867E+03
 0.29049997E+02  0.84738E+03
 0.29099998E+02  0.88570E+03
 0.29149998E+02  0.91923E+03
 0.29199999E+02  0.88347E+03
 0.29249998E+02  0.85244E+03
 0.29299997E+02  0.91464E+03
 0.29349998E+02  0.99800E+03
 0.29399998E+02  0.11450E+04
 0.29449999E+02  0.11096E+04
 0.29499998E+02  0.12114E+04
 0.29549997E+02  0.12020E+04
 0.29599998E+02  0.11697E+04
 0.29649998E+02  0.13510E+04
 0.29699999E+02  0.13925E+04
 0.29749998E+02  0.14711E+04
 0.29799997E+02  0.14495E+04
 0.29849998E+02  0.14340E+04
 0.29899998E+02  0.14332E+04
 0.29949999E+02  0.13549E+04
 0.29999998E+02  0.14516E+04
 0.30049999E+02  0.15894E+04
 0.30099998E+02  0.15563E+04
 0.30149998E+02  0.14800E+04
 0.30199997E+02  0.13649E+04
 0.30249996E+02  0.13482E+04
 0.30299999E+02  0.12633E+04
 0.30349998E+02  0.13396E+04
 0.30399998E+02  0.15498E+04
 0.30449997E+02  0.13477E+04
 0.30499996E+02  0.12025E+04
 0.30549999E+02  0.11456E+04
 0.30599998E+02  0.10898E+04
 0.30649998E+02  0.11927E+04
 0.30699997E+02  0.11404E+04
 0.30749996E+02  0.10560E+04
 0.30799999E+02  0.11199E+04
 0.30849998E+02  0.10012E+04
 0.30899998E+02  0.97175E+03
 0.30949997E+02  0.12205E+04
 0.30999996E+02  0.11109E+04
 0.31049999E+02  0.98947E+03
 0.31099998E+02  0.11053E+04
 0.31149998E+02  0.13793E+04
 0.31199997E+02  0.88086E+03
 0.31249996E+02  0.11692E+04
 0.31299999E+02  0.14391E+04
 0.31349998E+02  0.10048E+04
 0.31399998E+02  0.11782E+04
 0.31449997E+02  0.95491E+03
 0.31499996E+02  0.12570E+04
 0.31549999E+02  0.14913E+04
 0.31599998E+02  0.15503E+04
 0.31649998E+02  0.16267E+04
 0.31699997E+02  0.15454E+04
 0.31749996E+02  0.11792E+04
 0.31799999E+02  0.13431E+04
 0.31849998E+02  0.17971E+04
 0.31899998E+02  0.15156E+04
 0.31949997E+02  0.14724E+04
 0.31999996E+02  0.15140E+04
 0.32049999E+02  0.10968E+04
 0.32099998E+02  0.13290E+04
 0.32149998E+02  0.13167E+04
 0.32199997E+02  0.13473E+04
 0.32249996E+02  0.12749E+04
 0.32299999E+02  0.78984E+03
 0.32349998E+02  0.99281E+03
 0.32399998E+02  0.13107E+04
 0.32449997E+02  0.10653E+04
 0.32499996E+02  0.93949E+03
 0.32549999E+02  0.13853E+04
 0.32599998E+02  0.48982E+03
 0.32649998E+02  0.12043E+04
 0.32699997E+02  0.17960E+04
 0.32749996E+02  0.13810E+04
 0.32799999E+02  0.13853E+04
 0.32849998E+02  0.20014E+04
 0.32899998E+02  0.19547E+04
 0.32949997E+02  0.12694E+04
 0.32999996E+02  0.13821E+04
 0.33049999E+02  0.93373E+03
 0.33099998E+02  0.15320E+04
 0.33149998E+02  0.12665E+04
 0.33199997E+02  0.15789E+04
 0.33249996E+02  0.16683E+04
 0.33299999E+02  0.75872E+03
 0.33349998E+02  0.11505E+04
 0.33399998E+02  0.15070E+04
 0.33449997E+02  0.99422E+03
 0.33499996E+02  0.92807E+03
 0.33549999E+02  0.13612E+04
 0.33599998E+02  0.67169E+03
 0.33649998E+02  0.62345E+03
 0.33699997E+02  0.75126E+03
 0.33749996E+02  0.10800E+04
 0.33799999E+02  0.92578E+03
 0.33849998E+02  0.33494E+03
 0.33899998E+02  0.89112E+02
 0.33949997E+02  0.55363E+03
 0.33999996E+02  0.12213E+04
 0.34049999E+02  0.15663E+04
 0.34099998E+02  0.17221E+04
 0.34149998E+02  0.67851E+03
 0.34199997E+02  0.50564E+03
 0.34249996E+02  0.97552E+03
 0.34299999E+02  0.15055E+04
 0.34349998E+02  0.16511E+04
 0.34399998E+02  0.17122E+04
 0.34449997E+02  0.14196E+04
 0.34499996E+02  0.12578E+04
 0.34549999E+02  0.12748E+04
 0.34599998E+02  0.20084E+04
 0.34649998E+02  0.17913E+04
 0.34699997E+02  0.12523E+04
 0.34749996E+02  0.20303E+04
 0.34799999E+02  0.12657E+04
 0.34849998E+02  0.55201E+03
 0.34899998E+02  0.13017E+04
 0.34949997E+02  0.14956E+04
 0.34999996E+02  0.69354E+03
 0.35049999E+02  0.15855E+04
 0.35099998E+02  0.21977E+04
 0.35149998E+02  0.12519E+04
 0.35199997E+02  0.60505E+03
 0.35249996E+02  0.12320E+04
 0.35299999E+02  0.26016E+03
 0.35349998E+02  0.10589E+04
 0.35399998E+02  0.15831E+04
 0.35449997E+02  0.39383E+03
 0.35499996E+02  0.26753E+03
 0.35549999E+02  0.84346E+03
 0.35599998E+02  0.21421E+04
 0.35649998E+02  0.12615E+04
 0.35699997E+02  0.69775E+03
 0.35749996E+02  0.43086E+03
 0.35799999E+02  0.10539E+03
 0.35849998E+02  0.43678E+02
 0.35899998E+02  0.23535E+04
 0.35949997E+02  0.20390E+04
 0.35999996E+02  0.14423E+04
 0.36049999E+02  0.13344E+04
 0.36099998E+02  0.60813E+03
 0.36149998E+02  0.85836E+03
 0.36199997E+02  0.17149E+04
 0.36249996E+02  0.27962E+04
 0.36299999E+02  0.10657E+04
 0.36349998E+02  0.25366E+04
 0.36399998E+02  0.19323E+04
 0.36449997E+02  0.12400E+03
 0.36499996E+02  0.96978E+03
 0.36549999E+02  0.19046E+04
 0.36599998E+02  0.17054E+04
 0.36649998E+02  0.11277E+04
 0.36699997E+02  0.12635E+04
 0.36749996E+02  0.16632E+04
 0.36799999E+02  0.17355E+04
 0.36849998E+02  0.15602E+04
 0.36899998E+02  0.10140E+04
 0.36949997E+02  0.97678E+03
 0.36999996E+02  0.21106E+04
 0.37049999E+02  0.18397E+04
 0.37099998E+02  0.17535E+04
 0.37149998E+02  0.15059E+04
 0.37199997E+02  0.78591E+03
 0.37249996E+02  0.76715E+03
 0.37299999E+02  0.14142E+04
 0.37349998E+02  0.11430E+04
 0.37399998E+02  0.23685E+04
 0.37449997E+02  0.23806E+04
 0.37499996E+02  0.15200E+04
 0.37549999E+02  0.23082E+03
 0.37599998E+02 -0.27417E+03
 0.37649998E+02  0.14637E+04
 0.37699997E+02  0.76626E+03
 0.37749996E+02  0.16987E+04
 0.37799999E+02  0.16079E+04
 0.37849998E+02  0.14439E+04
 0.37899998E+02 -0.21564E+03
 0.37949997E+02 -0.10085E+01
 0.37999996E+02  0.13449E+04
 0.38049999E+02  0.12402E+03
 0.38099998E+02  0.16369E+04
 0.38149998E+02  0.17855E+04
 0.38199997E+02  0.21633E+04
 0.38249996E+02  0.71860E+03
 0.38299999E+02  0.27622E+03
 0.38349998E+02  0.16879E+04
 0.38399998E+02  0.13458E+04
 0.38449997E+02  0.12351E+04
 0.38499996E+02  0.13342E+04
 0.38549999E+02  0.92228E+03
 0.38599998E+02  0.13782E+04
 0.38649998E+02  0.18200E+04
 0.38699997E+02  0.53749E+03
 0.38749996E+02  0.62135E+03
 0.38799999E+02  0.15800E+04
 0.38849998E+02  0.81428E+03
 0.38899998E+02  0.12704E+03
 0.38949997E+02  0.97327E+03
 0.38999996E+02  0.12770E+04
 0.39049999E+02  0.16546E+04
 0.39099998E+02  0.17634E+04
 0.39149998E+02  0.13420E+04
 0.39199997E+02  0.18882E+04
 0.39249996E+02  0.28723E+04
 0.39299999E+02  0.16837E+04
 0.39349998E+02  0.10955E+04
 0.39399998E+02  0.27295E+04
 0.39449997E+02  0.17195E+04
 0.39499996E+02  0.13609E+04
 0.39549999E+02  0.94197E+03
 0.39599998E+02  0.20045E+03
 0.39649998E+02  0.26066E+03
 0.39699997E+02  0.65063E+03
 0.39749996E+02  0.13429E+04
 0.39799999E+02  0.12202E+04
 0.39849998E+02 -0.38801E+03
 0.39899998E+02 -0.48037E+03
 0.39949997E+02  0.19727E+04
 0.39999996E+02  0.22211E+04
 0.40049999E+02  0.13825E+04
 0.40099998E+02  0.11121E+04
 0.40149998E+02  0.11168E+04
 0.40199997E+02  0.23706E+03
 0.40249996E+02  0.15253E+04
 0.40299999E+02  0.15851E+04
 0.40349998E+02  0.16522E+04
 0.40399998E+02  0.28351E+04
 0.40449997E+02  0.89203E+03
 0.40499996E+02  0.52279E+03
 0.40549999E+02  0.68445E+03
 0.40599998E+02  0.17220E+04
 0.40649998E+02  0.26916E+04
 0.40699997E+02  0.27029E+04
 0.40749996E+02  0.16883E+04
 0.40799999E+02  0.87670E+03
 0.40849998E+02  0.13447E+04
 0.40899998E+02  0.81957E+03
 0.40949997E+02  0.89925E+03
 0.40999996E+02  0.52726E+03
 0.41049999E+02  0.15759E+04
 0.41099998E+02  0.14614E+04
 0.41149998E+02  0.29139E+03
 0.41199997E+02  0.54192E+03
 0.41249996E+02  0.10243E+04
 0.41299999E+02  0.12716E+04
 0.41349998E+02  0.13252E+04
 0.41399998E+02  0.10722E+04
 0.41449997E+02 -0.32370E+03
 0.41499996E+02 -0.14133E+03
 0.41549999E+02  0.80424E+03
 0.41599998E+02  0.13645E+04
 0.41649998E+02  0.19180E+04
 0.41699997E+02  0.17059E+04
 0.41749996E+02  0.58730E+03
 0.41799999E+02  0.27303E+03
 0.41849998E+02  0.10587E+04
 0.41899998E+02  0.10512E+04
 0.41949997E+02  0.17545E+03
 0.41999996E+02  0.87166E+03
 0.42049999E+02  0.42012E+03
 0.42099998E+02  0.34086E+02
 0.42149998E+02  0.10762E+04
 0.42199997E+02  0.22552E+04
 0.42249996E+02  0.34597E+04
 0.42299999E+02  0.33661E+04
 0.42349998E+02  0.28312E+04
 0.42399998E+02  0.14771E+04
 0.42449997E+02  0.17309E+04
 0.42499996E+02  0.13689E+04
 0.42549999E+02  0.10443E+04
 0.42599998E+02  0.10895E+04
 0.42649998E+02  0.19870E+04
 0.42699997E+02  0.13896E+04
 0.42749996E+02 -0.11279E+03
 0.42799995E+02  0.16963E+04
 0.42849998E+02  0.20355E+04
 0.42899998E+02  0.11916E+04
 0.42949997E+02  0.10724E+04
 0.42999996E+02  0.10593E+04
 0.43049995E+02  0.18632E+04
 0.43099998E+02  0.27361E+04
 0.43149998E+02  0.17177E+04
 0.43199997E+02  0.18446E+04
 0.43249996E+02  0.14210E+04
 0.43299995E+02  0.18324E+03
 0.43349998E+02  0.46202E+03
 0.43399998E+02  0.61262E+03
 0.43449997E+02  0.70161E+03
 0.43499996E+02  0.18479E+03
 0.43549995E+02  0.14056E+03
 0.43599998E+02  0.64746E+03
 0.43649998E+02  0.90868E+03
 0.43699997E+02  0.95810E+03
 0.43749996E+02  0.39973E+03
 0.43799995E+02  0.17206E+04
 0.43849998E+02  0.15648E+04
 0.43899998E+02  0.69662E+03
 0.43949997E+02  0.23765E+04
 0.43999996E+02  0.26103E+04
 0.44049995E+02  0.32932E+04
 0.44099998E+02  0.39715E+04
 0.44149998E+02  0.36047E+04
 0.44199997E+02  0.21690E+04
 0.44249996E+02 -0.31467E+03
 0.44299995E+02 -0.44277E+03
 0.44349998E+02  0.37745E+03
 0.44399998E+02  0.14129E+04
 0.44449997E+02  0.10303E+04
 0.44499996E+02 -0.14473E+03
 0.44549995E+02  0.77444E+03
 0.44599998E+02  0.37157E+03
 0.44649998E+02  0.67635E+03
 0.44699997E+02  0.21069E+04
 0.44749996E+02  0.25787E+04
 0.44799995E+02  0.13664E+04
 0.44849998E+02  0.10587E+04
 0.44899998E+02  0.15970E+03
 0.44949997E+02 -0.15038E+04
 0.44999996E+02  0.82780E+03
 0.45049995E+02  0.27792E+04
 0.45099998E+02  0.35662E+04
 0.45149998E+02  0.30034E+04
 0.45199997E+02  0.15220E+04
 0.45249996E+02 -0.10463E+03
 0.45299995E+02 -0.74012E+03
 0.45349998E+02  0.10262E+04
 0.45399998E+02  0.30686E+03
 0.45449997E+02  0.57505E+03
 0.45499996E+02  0.18921E+04
 0.45549995E+02  0.31539E+03
 0.45599998E+02  0.38367E+03
 0.45649998E+02  0.46907E+03
 0.45699997E+02 -0.84109E+03
 0.45749996E+02  0.61622E+03
 0.45799995E+02  0.37519E+04
 0.45849998E+02  0.21824E+04
 0.45899998E+02  0.13649E+04
 0.45949997E+02  0.99597E+03
 0.45999996E+02  0.93357E+03
 0.46049995E+02  0.31443E+04
 0.46099998E+02  0.19403E+04
 0.46149998E+02  0.16312E+04
 0.46199997E+02  0.16897E+04
 0.46249996E+02  0.10059E+04
 0.46299995E+02  0.37535E+02
 0.46349998E+02  0.10846E+04
 0.46399998E+02  0.22689E+04
 0.46449997E+02  0.98708E+03
 0.46499996E+02  0.44005E+03
 0.46549995E+02  0.13477E+03
 0.46599998E+02  0.10539E+04
 0.46649998E+02  0.12657E+04
 0.46699997E+02  0.33853E+03
 0.46749996E+02  0.11575E+04
 0.46799995E+02  0.95507E+03
 0.46849998E+02  0.91205E+02
 0.46899998E+02  0.83642E+03
 0.46949997E+02  0.29383E+04
 0.46999996E+02  0.27103E+04
 0.47049995E+02  0.17406E+04
 0.47099998E+02  0.12345E+04
 0.47149998E+02  0.19920E+03
 0.47199997E+02  0.14504E+04
 0.47249996E+02  0.21682E+04
 0.47299995E+02  0.26304E+04
 0.47349998E+02  0.20794E+04
 0.47399998E+02  0.10079E+04
 0.47449997E+02  0.85305E+02
 0.47499996E+02  0.12349E+04
 0.47549995E+02  0.14915E+04
 0.47599998E+02 -0.53799E+03
 0.47649998E+02 -0.53804E+03
 0.47699997E+02 -0.25436E+03
 0.47749996E+02  0.34331E+03
 0.47799995E+02  0.11024E+04
 0.47849998E+02  0.12223E+04
 0.47899998E+02  0.24422E+04
 0.47949997E+02  0.35268E+04
 0.47999996E+02  0.37225E+04
 0.48049995E+02  0.23427E+04
 0.48099998E+02  0.73011E+02
 0.48149998E+02 -0.18963E+03
 0.48199997E+02  0.13004E+04
 0.48249996E+02  0.45741E+04
 0.48299995E+02  0.40648E+04
 0.48349998E+02  0.72369E+03
 0.48399998E+02  0.26879E+03
 0.48449997E+02  0.14212E+04
 0.48499996E+02  0.43938E+03
 0.48549995E+02 -0.14740E+04
 0.48599998E+02 -0.62603E+02
 0.48649998E+02  0.13074E+04
 0.48699997E+02  0.16629E+04
 0.48749996E+02  0.11353E+04
 0.48799995E+02  0.12266E+04
 0.48849998E+02  0.16169E+04
 0.48899998E+02  0.65196E+03
 0.48949997E+02  0.18737E+04
 0.48999996E+02  0.17463E+04
 0.49049995E+02  0.39999E+03
 0.49099998E+02 -0.20022E+03
 0.49149998E+02 -0.68451E+03
 0.49199997E+02 -0.31648E+03
 0.49249996E+02  0.25642E+04
 0.49299995E+02  0.39181E+04
 0.49349998E+02  0.18687E+04
 0.49399998E+02  0.42522E+04
 0.49449997E+02  0.53957E+04
 0.49499996E+02  0.22774E+04
 0.49549995E+02  0.31238E+03
 0.49599998E+02 -0.64028E+03
 0.49649998E+02 -0.13087E+04
 0.49699997E+02 -0.50627E+03
 0.49749996E+02  0.52811E+03
 0.49799995E+02 -0.28458E+03
 0.49849998E+02  0.11166E+04
 0.49899998E+02  0.51395E+04
 0.49949997E+02  0.73344E+04
 0.49999996E+02  0.21767E+04
 0.50049995E+02 -0.44134E+04
 0.50099998E+02 -0.41315E+04
 0.50149998E+02  0.20790E+04
 0.50199997E+02  0.10128E+05
 0.50249996E+02  0.76183E+04
 0.50299995E+02 -0.13010E+04
 0.50349998E+02 -0.10286E+05
 0.50399998E+02 -0.10344E+05
 0.50449997E+02  0.35304E+04
 0.50499996E+02  0.93138E+04
 0.50549995E+02  0.40222E+04
 0.50599998E+02  0.22231E+04
 0.50649998E+02 -0.20833E+03
 0.50699997E+02 -0.54631E+04
 0.50749996E+02 -0.72024E+03
 0.50799995E+02  0.15207E+04
 0.50849998E+02 -0.16933E+04
 0.50899998E+02  0.85024E+03
 0.50949997E+02  0.46340E+04
 0.50999996E+02  0.41568E+04
 0.51049995E+02  0.38838E+04
 0.51099998E+02  0.28164E+04
 0.51149998E+02  0.15239E+04
 0.51199997E+02  0.46197E+04
 0.51249996E+02  0.78993E+04
 0.51299995E+02  0.97305E+04
 0.51349998E+02  0.99809E+03
 0.51399998E+02 -0.68758E+04
 0.51449997E+02 -0.12038E+05
 0.51499996E+02 -0.13486E+05
 0.51549995E+02 -0.11588E+04
 0.51599998E+02  0.13006E+05
 0.51649998E+02  0.16367E+05
 0.51699997E+02  0.68573E+04
 0.51749996E+02 -0.33852E+04
 0.51799995E+02 -0.86649E+04
 0.51849998E+02  0.57454E+03
 0.51899998E+02  0.10905E+05
 0.51949997E+02  0.74248E+04
 0.51999996E+02 -0.61975E+04
 0.52049995E+02 -0.13867E+05
 0.52099998E+02 -0.51483E+04
 0.52149998E+02  0.10754E+04
 0.52199997E+02  0.95070E+04
 0.52249996E+02  0.11460E+05
 0.52299995E+02  0.22526E+04
 0.52349998E+02 -0.15077E+04
 0.52399998E+02 -0.23004E+04
 0.52449997E+02 -0.41078E+04
 0.52499996E+02  0.17476E+04
 0.52549995E+02  0.13976E+04
 0.52599998E+02 -0.64527E+04
 0.52649998E+02 -0.87309E+04
 0.52699997E+02 -0.36083E+04
 0.52749996E+02  0.62294E+04
 0.52799995E+02  0.14788E+05
 0.52849998E+02  0.18188E+05
 0.52899998E+02  0.10789E+05
 0.52949997E+02  0.25114E+04
 0.52999996E+02 -0.34053E+04
 0.53049995E+02 -0.26748E+04
 0.53099998E+02 -0.65401E+04
 0.53149998E+02 -0.11367E+05
 0.53199997E+02 -0.11861E+04
 0.53249996E+02  0.32990E+04
 0.53299995E+02  0.20758E+04
 0.53349998E+02  0.88947E+04
 0.53399998E+02  0.51057E+04
 0.53449997E+02  0.77782E+03
 0.53499996E+02  0.40783E+04
 0.53549995E+02 -0.31630E+04
 0.53599998E+02 -0.10869E+04
 0.53649998E+02  0.57592E+04
 0.53699997E+02 -0.63265E+04
 0.53749996E+02 -0.73888E+04
 0.53799995E+02  0.52788E+04
 0.53849998E+02  0.77876E+04
 0.53899998E+02  0.32593E+04
 0.53949997E+02  0.14156E+04
 0.53999996E+02  0.63743E+04
 0.54049995E+02  0.54785E+04
 0.54099998E+02  0.49662E+04
 0.54149998E+02  0.75686E+04
 0.54199997E+02  0.21671E+04
 0.54249996E+02 -0.61221E+04
 0.54299995E+02 -0.82414E+04
 0.54349998E+02 -0.65005E+04
 0.54399998E+02 -0.15681E+04
 0.54449997E+02  0.88890E+04
 0.54499996E+02  0.84200E+04
 0.54549995E+02  0.42933E+03
 0.54599998E+02  0.30016E+04
 0.54649998E+02  0.10330E+05
 0.54699997E+02  0.81075E+04
 0.54749996E+02  0.19175E+04
 0.54799995E+02 -0.31860E+04
 0.54849998E+02 -0.10078E+05
 0.54899998E+02 -0.31820E+04
 0.54949997E+02  0.11174E+05
 0.54999996E+02  0.88858E+04
 0.55049995E+02 -0.77815E+04
 0.55099998E+02 -0.49198E+04
 0.55149998E+02  0.52954E+04
 0.55199997E+02  0.54885E+04
 0.55249996E+02  0.77783E+04
 0.55299995E+02  0.68551E+04
 0.55349998E+02  0.31423E+04
 0.55399998E+02  0.34329E+04
 0.55449997E+02  0.36623E+04
 0.55499996E+02 -0.42702E+04
 0.55549995E+02 -0.96343E+04
 0.55599998E+02 -0.75847E+04
 0.55649998E+02 -0.27054E+04
 0.55699997E+02 -0.17218E+04
 0.55749996E+02 -0.36367E+03
 0.55799995E+02  0.13357E+04
 0.55849995E+02 -0.45428E+04
 0.55899998E+02 -0.69712E+04
 0.55949997E+02 -0.85696E+03
 0.55999996E+02  0.17711E+04
 0.56049995E+02  0.37223E+04
 0.56099995E+02  0.53881E+04
 0.56149998E+02  0.40039E+04
 0.56199997E+02  0.13225E+04
 0.56249996E+02  0.89479E+03
 0.56299995E+02  0.95971E+03
 0.56349995E+02 -0.15406E+04
 0.56399998E+02  0.31950E+04
 0.56449997E+02  0.43441E+04
 0.56499996E+02  0.25016E+04
 0.56549995E+02  0.27542E+03
 0.56599995E+02 -0.27344E+03
 0.56649998E+02  0.19427E+04
 0.56699997E+02  0.44416E+04
 0.56749996E+02  0.37861E+04
 0.56799995E+02 -0.41415E+04
 0.56849995E+02 -0.43205E+04
 0.56899998E+02 -0.12022E+04
 0.56949997E+02  0.22605E+04
 0.56999996E+02  0.19055E+04
 0.57049995E+02 -0.54782E+03
 0.57099995E+02  0.12666E+04
 0.57149998E+02  0.39401E+04
 0.57199997E+02  0.14290E+04
 0.57249996E+02 -0.10448E+04
 0.57299995E+02  0.54917E+03
 0.57349995E+02  0.10454E+04
 0.57399998E+02  0.29975E+04
 0.57449997E+02  0.58457E+04
 0.57499996E+02  0.39127E+04
 0.57549995E+02  0.15588E+04
 0.57599995E+02  0.33471E+04
 0.57649998E+02 -0.33135E+04
 0.57699997E+02 -0.64018E+04
 0.57749996E+02 -0.94410E+03
 0.57799995E+02  0.49001E+04
 0.57849995E+02  0.90404E+04
 0.57899998E+02  0.80945E+04
 0.57949997E+02  0.43881E+04
 0.57999996E+02 -0.19459E+04
 0.58049995E+02 -0.43028E+04
 0.58099995E+02 -0.66788E+03
 0.58149998E+02  0.32325E+04
 0.58199997E+02  0.45993E+04
 0.58249996E+02  0.28315E+04
 0.58299995E+02  0.40101E+04
 0.58349995E+02  0.39669E+04
 0.58399998E+02  0.22255E+04
 0.58449997E+02  0.41454E+04
 0.58499996E+02  0.45201E+04
 0.58549995E+02  0.35129E+04
 0.58599995E+02  0.65307E+04
 0.58649998E+02  0.50624E+04
 0.58699997E+02 -0.41369E+04
 0.58749996E+02 -0.74766E+04
 0.58799995E+02 -0.32494E+04
 0.58849995E+02  0.31380E+04
 0.58899998E+02  0.36585E+04
 0.58949997E+02  0.23282E+04
 0.58999996E+02 -0.28844E+04
 0.59049995E+02 -0.64169E+04
 0.59099995E+02 -0.32982E+04
 0.59149998E+02 -0.26706E+04
 0.59199997E+02  0.28285E+03
 0.59249996E+02 -0.79816E+03
 0.59299995E+02 -0.21908E+04
 0.59349995E+02  0.87320E+03
 0.59399998E+02  0.10841E+04
 0.59449997E+02  0.19415E+04
 0.59499996E+02 -0.20825E+04
 0.59549995E+02 -0.75835E+04
 0.59599995E+02 -0.15973E+04
 0.59649998E+02  0.37676E+04
 0.59699997E+02  0.25661E+04
 0.59749996E+02  0.39492E+04
 0.59799995E+02  0.81634E+04
 0.59849995E+02  0.77250E+04
 0.59899998E+02  0.54422E+04
 0.59949997E+02  0.39094E+04
 0.59999996E+02  0.30793E+04
 0.60049995E+02  0.61175E+04
 0.60099995E+02  0.85022E+04
 0.60149998E+02  0.81577E+04
 0.60199997E+02  0.57343E+04
 0.60249996E+02  0.22308E+04
 0.60299995E+02 -0.26316E+04
 0.60349995E+02 -0.56027E+04
 0.60399998E+02 -0.35729E+04
 0.60449997E+02 -0.13685E+04
 0.60499996E+02  0.91802E+03
 0.60549995E+02  0.53962E+04
 0.60599995E+02  0.56077E+04
 0.60649998E+02  0.52982E+04
 0.60699997E+02  0.88516E+04
 0.60749996E+02  0.65398E+04
 0.60799995E+02  0.74185E+03
 0.60849995E+02 -0.18720E+04
 0.60899998E+02 -0.22397E+04
 0.60949997E+02  0.26118E+03
 0.60999996E+02  0.41507E+04
 0.61049995E+02  0.22283E+04
 0.61099995E+02 -0.18054E+04
 0.61149998E+02 -0.23815E+04
 0.61199997E+02 -0.62159E+04
 0.61249996E+02 -0.78339E+04
 0.61299995E+02 -0.87499E+03
 0.61349995E+02  0.59021E+04
 0.61399998E+02  0.48342E+04
 0.61449997E+02  0.11889E+04
 0.61499996E+02 -0.21588E+04
 0.61549995E+02 -0.27681E+04
 0.61599995E+02 -0.57645E+03
 0.61649998E+02  0.39736E+04
 0.61699997E+02  0.43084E+04
 0.61749996E+02  0.14184E+04
 0.61799995E+02  0.25336E+04
 0.61849995E+02  0.28632E+03
 0.61899998E+02 -0.31720E+04
 0.61949997E+02 -0.33285E+04
 0.61999996E+02 -0.22761E+04
 0.62049995E+02 -0.40509E+04
 0.62099998E+02 -0.50217E+04
 0.62149994E+02 -0.37225E+04
 0.62199997E+02 -0.19116E+04
 0.62249992E+02 -0.42573E+04
 0.62299995E+02 -0.35520E+04
 0.62349998E+02  0.17006E+04
 0.62399994E+02  0.60479E+04
 0.62449997E+02  0.95669E+04
 0.62499992E+02  0.83503E+04
 0.62549995E+02  0.44730E+04
 0.62599998E+02  0.18814E+04
 0.62649994E+02  0.22699E+04
 0.62699997E+02  0.12539E+04
 0.62749992E+02  0.13559E+04
 0.62799995E+02  0.28186E+04
 0.62849998E+02  0.10632E+04
 0.62899994E+02 -0.12946E+04
 0.62949997E+02  0.23406E+04
 0.62999992E+02  0.71834E+04
 0.63049995E+02  0.51621E+04
 0.63099998E+02  0.53339E+03
 0.63149994E+02  0.18486E+04
 0.63199997E+02  0.53041E+04
 0.63249992E+02  0.71379E+04
 0.63299995E+02  0.51899E+04
 0.63349998E+02 -0.10499E+03
 0.63399994E+02 -0.36294E+04
 0.63449997E+02 -0.33449E+04
 0.63499992E+02 -0.25244E+04
 0.63549995E+02 -0.14925E+04
 0.63599998E+02  0.19799E+04
 0.63649994E+02  0.39824E+04
 0.63699997E+02  0.30215E+04
 0.63749992E+02 -0.18384E+04
 0.63799995E+02 -0.52813E+04
 0.63849998E+02 -0.30073E+04
 0.63899994E+02  0.73296E+03
 0.63949997E+02  0.30590E+04
 0.63999992E+02  0.42891E+04
 0.64049995E+02  0.53273E+04
 0.64099998E+02  0.59121E+04
 0.64149994E+02  0.51540E+04
 0.64199997E+02  0.41510E+04
 0.64249992E+02  0.11177E+04
 0.64299995E+02  0.88839E+03
 0.64349998E+02  0.40756E+04
 0.64399994E+02  0.62548E+04
 0.64449997E+02  0.53073E+04
 0.64499992E+02  0.22360E+04
 0.64549995E+02  0.46274E+03
 0.64599998E+02  0.81265E+03
 0.64649994E+02  0.27009E+04
 0.64699997E+02  0.23542E+04
 0.64749992E+02 -0.77700E+03
 0.64799995E+02 -0.32418E+04
 0.64849998E+02 -0.20525E+04
 0.64899994E+02 -0.15413E+04
 0.64949997E+02 -0.12198E+04
 0.64999992E+02  0.63495E+03
 0.65049995E+02  0.82970E+03
 0.65099998E+02 -0.23648E+04
 0.65149994E+02 -0.50084E+04
 0.65199997E+02 -0.26603E+04
 0.65249992E+02  0.13648E+04
 0.65299995E+02  0.58138E+04
 0.65349998E+02  0.74720E+04
 0.65399994E+02  0.36720E+04
 0.65449997E+02 -0.11725E+04
 0.65499992E+02 -0.35719E+04
 0.65549995E+02 -0.44951E+04
 0.65599998E+02 -0.48801E+03
 0.65649994E+02  0.39298E+04
 0.65699997E+02  0.56969E+04
 0.65749992E+02  0.37732E+04
 0.65799995E+02  0.85259E+03
 0.65849998E+02 -0.60529E+03
 0.65899994E+02 -0.22705E+04
 0.65949997E+02 -0.28122E+03
 0.65999992E+02  0.54532E+03
 0.66049995E+02 -0.57089E+03
 0.66099998E+02 -0.34466E+03
 0.66149994E+02  0.18910E+04
 0.66199997E+02  0.16868E+04
 0.66249992E+02  0.18160E+03
 0.66299995E+02  0.83317E+01
 0.66349998E+02  0.31195E+03
 0.66399994E+02  0.15066E+04
 0.66449997E+02  0.23649E+04
 0.66499992E+02 -0.79732E+02
 0.66549995E+02 -0.35392E+04
 0.66599998E+02 -0.55942E+04
 0.66649994E+02 -0.64651E+04
 0.66699997E+02 -0.47357E+04
 0.66749992E+02 -0.10550E+04
 0.66799995E+02  0.55460E+04
 0.66849998E+02  0.10712E+05
 0.66899994E+02  0.11369E+05
 0.66949997E+02  0.11898E+05
 0.66999992E+02  0.10739E+05
 0.67049995E+02  0.68608E+04
 0.67099998E+02  0.56859E+04
 0.67149994E+02  0.46658E+04
 0.67199997E+02  0.29370E+04
 0.67249992E+02  0.13304E+04
 0.67299995E+02 -0.76419E+03
 0.67349998E+02 -0.83935E+03
 0.67399994E+02  0.16963E+04
 0.67449997E+02  0.20792E+04
 0.67499992E+02 -0.44814E+02
 0.67549995E+02 -0.80920E+03
 0.67599998E+02 -0.40045E+04
 0.67649994E+02 -0.53588E+04
 0.67699997E+02 -0.41794E+04
 0.67749992E+02 -0.23576E+04
 0.67799995E+02  0.62281E+03
 0.67849998E+02  0.14914E+04
 0.67899994E+02  0.13141E+04
 0.67949997E+02  0.21915E+04
 0.67999992E+02  0.54019E+04
 0.68049995E+02  0.75888E+04
 0.68099998E+02  0.79638E+04
 0.68149994E+02  0.51288E+04
 0.68199997E+02  0.25415E+03
 0.68249992E+02 -0.19389E+04
 0.68299995E+02 -0.21421E+04
 0.68349998E+02 -0.26934E+04
 0.68399994E+02 -0.16509E+04
 0.68449997E+02  0.53173E+03
 0.68499992E+02 -0.41881E+03
 0.68549995E+02 -0.83935E+03
 0.68599998E+02 -0.79684E+02
 0.68649994E+02 -0.40620E+03
 0.68699997E+02 -0.40909E+03
 0.68749992E+02  0.60880E+03
 0.68799995E+02  0.26980E+04
 0.68849998E+02  0.58280E+04
 0.68899994E+02  0.69051E+04
 0.68949997E+02  0.32892E+04
 0.68999992E+02 -0.16999E+02
 0.69049995E+02  0.42986E+03
 0.69099998E+02  0.39775E+04
 0.69149994E+02  0.66161E+04
 0.69199997E+02  0.42965E+04
 0.69249992E+02 -0.19918E+03
 0.69299995E+02 -0.42089E+04
 0.69349998E+02 -0.64105E+04
 0.69399994E+02 -0.41353E+04
 0.69449997E+02 -0.27281E+04
 0.69499992E+02 -0.18774E+04
 0.69549995E+02  0.22413E+04
 0.69599998E+02  0.45184E+04
 0.69649994E+02  0.62791E+04
 0.69699997E+02  0.61876E+04
 0.69749992E+02  0.43284E+04
 0.69799995E+02  0.36305E+04
 0.69849998E+02  0.20319E+04
 0.69899994E+02 -0.50989E+03
 0.69949997E+02 -0.20392E+04
 0.69999992E+02 -0.14205E+04
 0.70049995E+02  0.18918E+03
 0.70099998E+02  0.21345E+04
 0.70149994E+02  0.23098E+04
 0.70199997E+02  0.63231E+03
 0.70249992E+02 -0.16430E+04
 0.70299995E+02 -0.27661E+04
 0.70349998E+02 -0.16322E+04
 0.70399994E+02  0.63102E+03
 0.70449997E+02  0.34314E+04
 0.70499992E+02  0.49630E+04
 0.70549995E+02  0.63254E+04
 0.70599998E+02  0.67841E+04
 0.70649994E+02  0.39550E+04
 0.70699997E+02  0.13446E+04
 0.70749992E+02 -0.18432E+04
 0.70799995E+02 -0.37533E+04
 0.70849998E+02 -0.32577E+04
 0.70899994E+02 -0.27855E+04
 0.70949997E+02  0.26944E+03
 0.70999992E+02  0.30203E+04
 0.71049995E+02  0.46749E+04
 0.71099998E+02  0.43674E+04
 0.71149994E+02  0.26793E+04
 0.71199997E+02  0.12737E+03
 0.71249992E+02 -0.28131E+04
 0.71299995E+02 -0.30187E+04
 0.71349998E+02  0.69250E+03
 0.71399994E+02  0.45172E+04
 0.71449997E+02  0.44854E+04
 0.71499992E+02  0.32768E+04
 0.71549995E+02  0.12608E+04
 0.71599998E+02  0.83419E+03
 0.71649994E+02  0.29689E+04
 0.71699997E+02  0.46228E+04
 0.71749992E+02  0.35239E+04
 0.71799995E+02  0.20466E+04
 0.71849998E+02  0.55147E+03
 0.71899994E+02 -0.23379E+04
 0.71949997E+02 -0.32979E+04
 0.71999992E+02 -0.19187E+04
 0.72049995E+02  0.17979E+04
 0.72099998E+02  0.42982E+04
 0.72149994E+02  0.40357E+04
 0.72199997E+02  0.26172E+04
 0.72249992E+02 -0.36205E+03
 0.72299995E+02 -0.15559E+04
 0.72349998E+02 -0.28826E+03
 0.72399994E+02  0.18762E+04
 0.72449997E+02  0.31516E+04
 0.72499992E+02  0.37092E+04
 0.72549995E+02  0.43892E+04
 0.72599998E+02  0.34127E+04
 0.72649994E+02  0.18638E+04
 0.72699997E+02  0.10732E+04
 0.72749992E+02  0.27796E+03
 0.72799995E+02  0.38839E+03
 0.72849998E+02  0.13328E+04
 0.72899994E+02  0.77949E+03
 0.72949997E+02  0.55976E+03
 0.72999992E+02  0.67584E+03
 0.73049995E+02 -0.13375E+04
 0.73099998E+02 -0.13297E+04
 0.73149994E+02  0.28245E+04
 0.73199997E+02  0.48374E+04
 0.73249992E+02  0.31422E+04
 0.73299995E+02  0.10373E+04
 0.73349998E+02 -0.15557E+04
 0.73399994E+02 -0.20214E+04
 0.73449997E+02  0.89733E+03
 0.73499992E+02  0.46151E+04
 0.73549995E+02  0.47549E+04
 0.73599998E+02  0.26583E+04
 0.73649994E+02  0.85365E+03
 0.73699997E+02 -0.24422E+04
 0.73749992E+02 -0.42597E+04
 0.73799995E+02 -0.33998E+04
 0.73849998E+02 -0.64234E+03
 0.73899994E+02  0.33425E+04
 0.73949997E+02  0.47226E+04
 0.73999992E+02  0.28016E+04
 0.74049995E+02  0.21153E+04
 0.74099998E+02  0.31341E+04
 0.74149994E+02  0.35416E+04
 0.74199997E+02  0.38281E+04
 0.74249992E+02  0.53112E+04
 0.74299995E+02  0.55633E+04
 0.74349998E+02  0.27211E+04
 0.74399994E+02  0.16163E+04
 0.74449997E+02  0.24852E+04
 0.74499992E+02  0.97777E+03
 0.74549995E+02 -0.15254E+04
 0.74599998E+02 -0.28099E+04
 0.74649994E+02 -0.33046E+04
 0.74699997E+02 -0.31496E+04
 0.74749992E+02 -0.24693E+04
 0.74799995E+02 -0.18371E+04
 0.74849998E+02 -0.20999E+04
 0.74899994E+02 -0.22605E+04
 0.74949997E+02 -0.42911E+03
 0.74999992E+02  0.23066E+04
 0.75049995E+02  0.30369E+04
 0.75099998E+02  0.14210E+04
 0.75149994E+02  0.12267E+04
 0.75199997E+02  0.29729E+04
 0.75249992E+02  0.39508E+04
 0.75299995E+02  0.31339E+04
 0.75349998E+02  0.17692E+04
 0.75399994E+02  0.27425E+03
 0.75449997E+02 -0.10690E+04
 0.75499992E+02 -0.11740E+04
 0.75549995E+02 -0.36286E+03
 0.75599998E+02  0.50621E+03
 0.75649994E+02 -0.22727E+03
 0.75699997E+02 -0.21783E+02
 0.75749992E+02  0.24535E+04
 0.75799995E+02  0.53445E+04
 0.75849998E+02  0.68830E+04
 0.75899994E+02  0.52921E+04
 0.75949997E+02  0.27754E+04
 0.75999992E+02  0.10904E+04
 0.76049995E+02 -0.97319E+03
 0.76099998E+02 -0.25807E+04
 0.76149994E+02 -0.33110E+04
 0.76199997E+02 -0.38738E+04
 0.76249992E+02 -0.31821E+04
 0.76299995E+02 -0.69916E+03
 0.76349998E+02  0.13176E+04
 0.76399994E+02  0.17964E+04
 0.76449997E+02  0.24303E+04
 0.76499992E+02  0.31290E+04
 0.76549995E+02  0.47399E+04
 0.76599998E+02  0.58444E+04
 0.76649994E+02  0.42840E+04
 0.76699997E+02  0.19389E+04
 0.76749992E+02  0.13988E+04
 0.76799995E+02  0.14466E+04
 0.76849998E+02 -0.33345E+03
 0.76899994E+02 -0.81529E+03
 0.76949997E+02 -0.10090E+03
 0.76999992E+02  0.45203E+03
 0.77049995E+02  0.20116E+04
 0.77099998E+02  0.29899E+04
 0.77149994E+02  0.32422E+04
 0.77199997E+02  0.31990E+04
 0.77249992E+02  0.28591E+04
 0.77299995E+02  0.25816E+04
 0.77349998E+02  0.13042E+04
 0.77399994E+02 -0.66364E+03
 0.77449997E+02 -0.10686E+04
 0.77499992E+02  0.69784E+03
 0.77549995E+02  0.22234E+04
 0.77599998E+02  0.25306E+04
 0.77649994E+02  0.17998E+04
 0.77699997E+02  0.12084E+04
 0.77749992E+02  0.24952E+04
 0.77799995E+02  0.36525E+04
 0.77849998E+02  0.31754E+04
 0.77899994E+02  0.15873E+04
 0.77949997E+02  0.20801E+03
 0.77999992E+02  0.60974E+03
 0.78049995E+02  0.18930E+04
 0.78099998E+02  0.17945E+04
 0.78149994E+02 -0.36515E+03
 0.78199997E+02 -0.21207E+04
 0.78249992E+02 -0.13499E+04
 0.78299995E+02  0.69586E+03
 0.78349998E+02  0.15644E+04
 0.78399994E+02  0.17778E+04
 0.78449997E+02  0.32423E+04
 0.78499992E+02  0.45901E+04
 0.78549995E+02  0.40866E+04
 0.78599998E+02  0.21774E+04
 0.78649994E+02  0.90079E+03
 0.78699997E+02  0.12522E+04
 0.78749992E+02  0.32348E+04
 0.78799995E+02  0.51933E+04
 0.78849998E+02  0.50315E+04
 0.78899994E+02  0.37375E+04
 0.78949997E+02  0.21549E+04
 0.78999992E+02  0.25516E+03
 0.79049995E+02 -0.17769E+04
 0.79099998E+02 -0.36693E+04
 0.79149994E+02 -0.34595E+04
 0.79199997E+02 -0.22649E+04
 0.79249992E+02 -0.13340E+04
 0.79299995E+02 -0.11044E+04
 0.79349998E+02 -0.17057E+04
 0.79399994E+02 -0.14124E+04
 0.79449997E+02 -0.64404E+02
 0.79499992E+02  0.18312E+04
 0.79549995E+02  0.33896E+04
 0.79599998E+02  0.38708E+04
 0.79649994E+02  0.21377E+04
 0.79699997E+02 -0.41879E+02
 0.79749992E+02 -0.18655E+03
 0.79799995E+02  0.25242E+04
 0.79849998E+02  0.51743E+04
 0.79899994E+02  0.55810E+04
 0.79949997E+02  0.61538E+04
 0.79999992E+02  0.56080E+04
 0.80049995E+02  0.28473E+04
 0.80099998E+02  0.68155E+03
 0.80149994E+02  0.32868E+03
 0.80199997E+02  0.22605E+03
 0.80249992E+02 -0.83855E+03
 0.80299995E+02 -0.74479E+03
 0.80349998E+02 -0.91601E+03
 0.80399994E+02 -0.14739E+04
 0.80449997E+02 -0.77404E+03
 0.80499992E+02 -0.54824E+03
 0.80549995E+02 -0.66040E+03
 0.80599998E+02 -0.12499E+04
 0.80649994E+02 -0.14662E+04
 0.80699997E+02 -0.45808E+03
 0.80749992E+02  0.16034E+04
 0.80799995E+02  0.25354E+04
 0.80849998E+02  0.23572E+04
 0.80899994E+02  0.27091E+04
 0.80949997E+02  0.38699E+04
 0.80999992E+02  0.38894E+04
 0.81049995E+02  0.21655E+04
 0.81099998E+02  0.16524E+04
 0.81149994E+02  0.24171E+04
 0.81199997E+02  0.23515E+04
 0.81249992E+02  0.22154E+04
 0.81299995E+02  0.25302E+04
 0.81349998E+02  0.22278E+04
 0.81399994E+02  0.26746E+04
 0.81449997E+02  0.32811E+04
 0.81499992E+02  0.29057E+04
 0.81549995E+02  0.29349E+04
 0.81599998E+02  0.35966E+04
 0.81649994E+02  0.25397E+04
 0.81699997E+02  0.98601E+03
 0.81749992E+02  0.80107E+03
 0.81799995E+02  0.12104E+03
 0.81849998E+02 -0.16090E+04
 0.81899994E+02 -0.28959E+04
 0.81949997E+02 -0.40722E+04
 0.81999992E+02 -0.38575E+04
 0.82049995E+02 -0.12371E+04
 0.82099998E+02  0.13451E+04
 0.82149994E+02  0.32840E+04
 0.82199997E+02  0.46009E+04
 0.82249992E+02  0.46276E+04
 0.82299995E+02  0.31714E+04
 0.82349998E+02  0.11595E+03
 0.82399994E+02 -0.27882E+04
 0.82449997E+02 -0.31655E+04
 0.82499992E+02 -0.25286E+04
 0.82549995E+02 -0.30535E+03
 0.82599998E+02  0.26225E+04
 0.82649994E+02  0.34234E+04
 0.82699997E+02  0.31281E+04
 0.82749992E+02  0.18519E+04
 0.82799995E+02  0.71833E+03
 0.82849998E+02  0.53350E+03
 0.82899994E+02  0.52727E+03
 0.82949997E+02  0.55895E+03
 0.82999992E+02 -0.44353E+03
 0.83049995E+02 -0.17343E+04
 0.83099998E+02 -0.19000E+04
 0.83149994E+02 -0.13674E+04
 0.83199997E+02  0.69282E+02
 0.83249992E+02  0.23245E+04
 0.83299995E+02  0.39389E+04
 0.83349998E+02  0.47260E+04
 0.83399994E+02  0.50078E+04
 0.83449997E+02  0.45378E+04
 0.83499992E+02  0.34762E+04
 0.83549995E+02  0.14937E+04
 0.83599998E+02 -0.18944E+01
 0.83649994E+02 -0.34956E+03
 0.83699997E+02  0.47015E+03
 0.83749992E+02  0.19972E+04
 0.83799995E+02  0.33684E+04
 0.83849998E+02  0.33070E+04
 0.83899994E+02  0.12801E+04
 0.83949997E+02 -0.11775E+04
 0.83999992E+02 -0.31623E+04
 0.84049995E+02 -0.44601E+04
 0.84099998E+02 -0.40997E+04
 0.84149994E+02 -0.28577E+04
 0.84199997E+02 -0.20859E+04
 0.84249992E+02 -0.10715E+03
 0.84299995E+02  0.14874E+04
 0.84349998E+02  0.25610E+04
 0.84399994E+02  0.42623E+04
 0.84449997E+02  0.56319E+04
 0.84499992E+02  0.57346E+04
 0.84549995E+02  0.49055E+04
 0.84599998E+02  0.36101E+04
 0.84649994E+02  0.16564E+04
 0.84699997E+02  0.33300E+02
 0.84749992E+02 -0.11141E+04
 0.84799995E+02 -0.14522E+04
 0.84849998E+02 -0.92993E+03
 0.84899994E+02  0.43784E+03
 0.84949997E+02  0.10708E+04
 0.84999992E+02  0.13952E+04
 0.85049995E+02  0.26595E+04
 0.85099998E+02  0.47809E+04
 0.85149994E+02  0.58979E+04
 0.85199997E+02  0.41860E+04
 0.85249992E+02  0.10780E+04
 0.85299995E+02 -0.14922E+04
 0.85349998E+02 -0.18026E+04
 0.85399994E+02 -0.78034E+03
 0.85449997E+02  0.19545E+03
 0.85499992E+02  0.11521E+03
 0.85549995E+02 -0.25686E+03
 0.85599998E+02  0.45735E+03
 0.85649994E+02  0.24750E+04
 0.85699997E+02  0.52035E+04
 0.85749992E+02  0.64748E+04
 0.85799995E+02  0.54295E+04
 0.85849998E+02  0.30887E+04
 0.85899994E+02  0.14097E+03
 0.85949997E+02 -0.15309E+04
 0.85999992E+02 -0.15733E+04
 0.86049995E+02 -0.13504E+04
 0.86099998E+02 -0.39204E+02
 0.86149994E+02  0.25200E+04
 0.86199997E+02  0.48597E+04
 0.86249992E+02  0.58750E+04
 0.86299995E+02  0.47547E+04
 0.86349998E+02  0.25341E+04
 0.86399994E+02  0.15967E+04
 0.86449997E+02  0.17506E+04
 0.86499992E+02  0.22836E+04
 0.86549995E+02  0.29521E+04
 0.86599998E+02  0.34137E+04
 0.86649994E+02  0.36847E+04
 0.86699997E+02  0.32388E+04
 0.86749992E+02  0.24789E+04
 0.86799995E+02  0.17468E+04
 0.86849998E+02  0.83221E+03
 0.86899994E+02  0.41541E+03
 0.86949997E+02  0.71418E+03
 0.86999992E+02  0.10134E+04
 0.87049995E+02  0.63211E+03
 0.87099998E+02  0.32286E+03
 0.87149994E+02 -0.51644E+02
 0.87199997E+02  0.16611E+03
 0.87249992E+02  0.56073E+03
 0.87299995E+02  0.40313E+03
 0.87349998E+02  0.34823E+03
 0.87399994E+02 -0.41799E+03
 0.87449997E+02 -0.12442E+04
 0.87499992E+02 -0.15690E+04
 0.87549995E+02 -0.84228E+03
 0.87599991E+02  0.61707E+03
 0.87649994E+02  0.20275E+04
 0.87699997E+02  0.25776E+04
 0.87749992E+02  0.12206E+04
 0.87799995E+02 -0.10930E+04
 0.87849991E+02 -0.26055E+04
 0.87899994E+02 -0.23479E+04
 0.87949997E+02 -0.30628E+02
 0.87999992E+02  0.26910E+04
 0.88049995E+02  0.46892E+04
 0.88099991E+02  0.58318E+04
 0.88149994E+02  0.55892E+04
 0.88199997E+02  0.40415E+04
 0.88249992E+02  0.18762E+04
 0.88299995E+02 -0.58929E+03
 0.88349991E+02 -0.24110E+04
 0.88399994E+02 -0.19411E+04
 0.88449997E+02 -0.27687E+03
 0.88499992E+02  0.14104E+04
 0.88549995E+02  0.23386E+04
 0.88599991E+02  0.27153E+04
 0.88649994E+02  0.24433E+04
 0.88699997E+02  0.12073E+04
 0.88749992E+02 -0.31899E+03
 0.88799995E+02 -0.18277E+04
 0.88849991E+02 -0.21861E+04
 0.88899994E+02 -0.97381E+03
 0.88949997E+02  0.79330E+03
 0.88999992E+02  0.21844E+04
 0.89049995E+02  0.28720E+04
 0.89099991E+02  0.18462E+04
 0.89149994E+02 -0.15309E+03
 0.89199997E+02 -0.98111E+03
 0.89249992E+02 -0.51621E+03
 0.89299995E+02  0.10857E+03
 0.89349991E+02  0.56327E+03
 0.89399994E+02  0.11211E+04
 0.89449997E+02  0.18699E+04
 0.89499992E+02  0.27688E+04
 0.89549995E+02  0.27651E+04
 0.89599991E+02  0.23827E+04
 0.89649994E+02  0.26814E+04
 0.89699997E+02  0.21850E+04
 0.89749992E+02  0.11733E+04
 0.89799995E+02  0.11215E+04
 0.89849991E+02  0.15119E+04
 0.89899994E+02  0.19964E+04
 0.89949997E+02  0.16110E+04
 0.89999992E+02  0.61154E+02
 0.90049995E+02 -0.14915E+04
 0.90099991E+02 -0.21993E+04
 0.90149994E+02 -0.96301E+03
 0.90199997E+02  0.11236E+04
 0.90249992E+02  0.21646E+04
 0.90299995E+02  0.19509E+04
 0.90349991E+02  0.71123E+03
 0.90399994E+02 -0.11169E+04
 0.90449997E+02 -0.19508E+04
 0.90499992E+02 -0.13397E+04
 0.90549995E+02  0.91808E+03
 0.90599991E+02  0.43654E+04
 0.90649994E+02  0.66380E+04
 0.90699997E+02  0.70623E+04
 0.90749992E+02  0.60222E+04
 0.90799995E+02  0.39106E+04
 0.90849991E+02  0.14404E+04
 0.90899994E+02 -0.29504E+03
 0.90949997E+02 -0.88836E+03
 0.90999992E+02 -0.40563E+03
 0.91049995E+02  0.15978E+03
 0.91099991E+02  0.33357E+03
 0.91149994E+02  0.12618E+04
 0.91199997E+02  0.24995E+04
 0.91249992E+02  0.22336E+04
 0.91299995E+02  0.34812E+03
 0.91349991E+02 -0.15331E+04
 0.91399994E+02 -0.18122E+04
 0.91449997E+02 -0.50574E+03
 0.91499992E+02  0.17599E+04
 0.91549995E+02  0.36743E+04
 0.91599991E+02  0.44542E+04
 0.91649994E+02  0.42513E+04
 0.91699997E+02  0.24414E+04
 0.91749992E+02 -0.34022E+03
 0.91799995E+02 -0.19855E+04
 0.91849991E+02 -0.12293E+04
 0.91899994E+02  0.10974E+04
 0.91949997E+02  0.37849E+04
 0.91999992E+02  0.55623E+04
 0.92049995E+02  0.57300E+04
 0.92099991E+02  0.47773E+04
 0.92149994E+02  0.35287E+04
 0.92199997E+02  0.23288E+04
 0.92249992E+02  0.85165E+03
 0.92299995E+02  0.94108E+02
 0.92349991E+02  0.90310E+03
 0.92399994E+02  0.18708E+04
 0.92449997E+02  0.26210E+04
 0.92499992E+02  0.29926E+04
 0.92549995E+02  0.29891E+04
 0.92599991E+02  0.31553E+04
 0.92649994E+02  0.32800E+04
 0.92699997E+02  0.32319E+04
 0.92749992E+02  0.32641E+04
 0.92799995E+02  0.30560E+04
 0.92849991E+02  0.16409E+04
 0.92899994E+02  0.22124E+03
 0.92949997E+02 -0.31173E+03
 0.92999992E+02 -0.48623E+03
 0.93049995E+02 -0.89947E+03
 0.93099991E+02 -0.13960E+04
 0.93149994E+02 -0.14673E+04
 0.93199997E+02 -0.12549E+04
 0.93249992E+02 -0.57086E+03
 0.93299995E+02  0.42968E+03
 0.93349991E+02  0.14011E+04
 0.93399994E+02  0.22048E+04
 0.93449997E+02  0.26921E+04
 0.93499992E+02  0.25019E+04
 0.93549995E+02  0.13221E+04
 0.93599991E+02 -0.25561E+03
 0.93649994E+02 -0.20072E+04
 0.93699997E+02 -0.29371E+04
 0.93749992E+02 -0.26694E+04
 0.93799995E+02 -0.21287E+04
 0.93849991E+02 -0.72684E+03
 0.93899994E+02  0.10449E+04
 0.93949997E+02  0.21370E+04
 0.93999992E+02  0.24164E+04
 0.94049995E+02  0.19798E+04
 0.94099991E+02  0.13449E+04
 0.94149994E+02  0.10698E+04
 0.94199997E+02  0.82794E+03
 0.94249992E+02 -0.76337E+02
 0.94299995E+02 -0.12155E+04
 0.94349991E+02 -0.20889E+04
 0.94399994E+02 -0.26265E+04
 0.94449997E+02 -0.20318E+04
 0.94499992E+02  0.12248E+03
 0.94549995E+02  0.27677E+04
 0.94599991E+02  0.46560E+04
 0.94649994E+02  0.50965E+04
 0.94699997E+02  0.40319E+04
 0.94749992E+02  0.25824E+04
 0.94799995E+02  0.16050E+04
 0.94849991E+02  0.74364E+03
 0.94899994E+02 -0.20047E+03
 0.94949997E+02 -0.52661E+03
 0.94999992E+02  0.39080E+03
 0.95049995E+02  0.15203E+04
 0.95099991E+02  0.19010E+04
 0.95149994E+02  0.17590E+04
 0.95199997E+02  0.13258E+04
 0.95249992E+02  0.11638E+04
 0.95299995E+02  0.17480E+04
 0.95349991E+02  0.20179E+04
 0.95399994E+02  0.13455E+04
 0.95449997E+02  0.85790E+03
 0.95499992E+02  0.88303E+03
 0.95549995E+02  0.13960E+04
 0.95599991E+02  0.19777E+04
 0.95649994E+02  0.15199E+04
 0.95699997E+02  0.72887E+03
 0.95749992E+02  0.10575E+04
 0.95799995E+02  0.21484E+04
 0.95849991E+02  0.27680E+04
 0.95899994E+02  0.26395E+04
 0.95949997E+02  0.21747E+04
 0.95999992E+02  0.17097E+04
 0.96049995E+02  0.13252E+04
 0.96099991E+02  0.81253E+03
 0.96149994E+02  0.89485E+03
 0.96199997E+02  0.16537E+04
 0.96249992E+02  0.26237E+04
 0.96299995E+02  0.31291E+04
 0.96349991E+02  0.27296E+04
 0.96399994E+02  0.17763E+04
 0.96449997E+02  0.11554E+04
 0.96499992E+02  0.16935E+04
 0.96549995E+02  0.29042E+04
 0.96599991E+02  0.34009E+04
 0.96649994E+02  0.27835E+04
 0.96699997E+02  0.15574E+04
 0.96749992E+02 -0.25143E+03
 0.96799995E+02 -0.20403E+04
 0.96849991E+02 -0.36824E+04
 0.96899994E+02 -0.42040E+04
 0.96949997E+02 -0.29580E+04
 0.96999992E+02 -0.21693E+03
 0.97049995E+02  0.23569E+04
 0.97099991E+02  0.35731E+04
 0.97149994E+02  0.42290E+04
 0.97199997E+02  0.41095E+04
 0.97249992E+02  0.34336E+04
 0.97299995E+02  0.26272E+04
 0.97349991E+02  0.18684E+04
 0.97399994E+02  0.12811E+04
 0.97449997E+02  0.27664E+03
 0.97499992E+02 -0.11460E+04
 0.97549995E+02 -0.18988E+04
 0.97599991E+02 -0.15891E+04
 0.97649994E+02 -0.73225E+03
 0.97699997E+02  0.57630E+03
 0.97749992E+02  0.16713E+04
 0.97799995E+02  0.22993E+04
 0.97849991E+02  0.29750E+04
 0.97899994E+02  0.34560E+04
 0.97949997E+02  0.34690E+04
 0.97999992E+02  0.34843E+04
