-0.19969940E+01  0.11425E+05
-0.19469941E+01  0.11375E+05
-0.18969940E+01  0.11441E+05
-0.18469940E+01  0.11461E+05
-0.17969940E+01  0.11486E+05
-0.17469940E+01  0.11516E+05
-0.16969941E+01  0.11541E+05
-0.16469941E+01  0.11565E+05
-0.15969940E+01  0.11587E+05
-0.15469940E+01  0.11606E+05
-0.14969940E+01  0.11619E+05
-0.14469941E+01  0.11629E+05
-0.13969941E+01  0.11638E+05
-0.13469940E+01  0.11641E+05
-0.12969941E+01  0.11645E+05
-0.12469940E+01  0.11645E+05
-0.11969941E+01  0.11641E+05
-0.11469941E+01  0.11638E+05
-0.10969940E+01  0.11632E+05
-0.10469941E+01  0.11622E+05
-0.99699408E+00  0.11613E+05
-0.94699407E+00  0.11598E+05
-0.89699411E+00  0.11581E+05
-0.84699404E+00  0.11560E+05
-0.79699409E+00  0.11537E+05
-0.74699414E+00  0.11510E+05
-0.69699407E+00  0.11481E+05
-0.64699411E+00  0.11464E+05
-0.59699416E+00  0.11451E+05
-0.54699409E+00  0.11444E+05
-0.49699414E+00  0.11447E+05
-0.44699407E+00  0.11451E+05
-0.39699411E+00  0.11451E+05
-0.34699416E+00  0.11461E+05
-0.29699409E+00  0.11475E+05
-0.24699414E+00  0.11487E+05
-0.19699407E+00  0.11505E+05
-0.14699411E+00  0.11528E+05
-0.96994162E-01  0.11547E+05
-0.46994090E-01  0.11569E+05
 0.30058622E-02  0.11588E+05
 0.53005934E-01  0.11596E+05
 0.10300589E+00  0.11606E+05
 0.15300584E+00  0.11610E+05
 0.20300579E+00  0.11610E+05
 0.25300574E+00  0.11613E+05
 0.30300593E+00  0.11624E+05
 0.35300589E+00  0.11624E+05
 0.40300584E+00  0.11620E+05
 0.45300579E+00  0.11613E+05
 0.50300574E+00  0.11600E+05
 0.55300593E+00  0.11582E+05
 0.60300589E+00  0.11570E+05
 0.65300584E+00  0.11564E+05
 0.70300579E+00  0.11559E+05
 0.75300574E+00  0.11566E+05
 0.80300570E+00  0.11573E+05
 0.85300589E+00  0.11580E+05
 0.90300584E+00  0.11582E+05
 0.95300579E+00  0.11585E+05
 0.10030057E+01  0.11581E+05
 0.10530057E+01  0.11574E+05
 0.11030059E+01  0.11570E+05
 0.11530058E+01  0.11554E+05
 0.12030058E+01  0.11542E+05
 0.12530057E+01  0.11522E+05
 0.13030057E+01  0.11496E+05
 0.13530059E+01  0.11467E+05
 0.14030058E+01  0.11447E+05
 0.14530058E+01  0.11432E+05
 0.15030057E+01  0.11414E+05
 0.15530057E+01  0.11410E+05
 0.16030059E+01  0.11413E+05
 0.16530058E+01  0.11424E+05
 0.17030058E+01  0.11446E+05
 0.17530057E+01  0.11473E+05
 0.18030057E+01  0.11506E+05
 0.18530056E+01  0.11539E+05
 0.19030058E+01  0.11573E+05
 0.19530058E+01  0.11602E+05
 0.20030057E+01  0.11622E+05
 0.20530057E+01  0.11638E+05
 0.21030059E+01  0.11641E+05
 0.21530056E+01  0.11635E+05
 0.22030058E+01  0.11625E+05
 0.22530055E+01  0.11608E+05
 0.23030057E+01  0.11589E+05
 0.23530059E+01  0.11566E+05
 0.24030056E+01  0.11532E+05
 0.24530058E+01  0.11498E+05
 0.25030055E+01  0.11466E+05
 0.25530057E+01  0.11431E+05
 0.26030059E+01  0.11399E+05
 0.26530056E+01  0.11372E+05
 0.27030058E+01  0.11356E+05
 0.27530055E+01  0.11350E+05
 0.28030057E+01  0.11352E+05
 0.28530059E+01  0.11365E+05
 0.29030056E+01  0.11383E+05
 0.29530058E+01  0.11410E+05
 0.30030055E+01  0.11443E+05
 0.30530057E+01  0.11484E+05
 0.31030059E+01  0.11536E+05
 0.31530056E+01  0.11592E+05
 0.32030058E+01  0.11646E+05
 0.32530055E+01  0.11695E+05
 0.33030057E+01  0.11747E+05
 0.33530059E+01  0.11783E+05
 0.34030056E+01  0.11814E+05
 0.34530058E+01  0.11836E+05
 0.35030055E+01  0.11840E+05
 0.35530057E+01  0.11832E+05
 0.36030054E+01  0.11810E+05
 0.36530056E+01  0.11774E+05
 0.37030058E+01  0.11726E+05
 0.37530055E+01  0.11683E+05
 0.38030057E+01  0.11640E+05
 0.38530054E+01  0.11593E+05
 0.39030056E+01  0.11553E+05
 0.39530058E+01  0.11521E+05
 0.40030055E+01  0.11488E+05
 0.40530057E+01  0.11463E+05
 0.41030054E+01  0.11448E+05
 0.41530056E+01  0.11437E+05
 0.42030058E+01  0.11441E+05
 0.42530055E+01  0.11451E+05
 0.43030057E+01  0.11456E+05
 0.43530054E+01  0.11465E+05
 0.44030056E+01  0.11479E+05
 0.44530058E+01  0.11483E+05
 0.45030055E+01  0.11490E+05
 0.45530057E+01  0.11498E+05
 0.46030054E+01  0.11504E+05
 0.46530056E+01  0.11517E+05
 0.47030058E+01  0.11530E+05
 0.47530055E+01  0.11546E+05
 0.48030057E+01  0.11556E+05
 0.48530054E+01  0.11563E+05
 0.49030056E+01  0.11567E+05
 0.49530058E+01  0.11560E+05
 0.50030055E+01  0.11558E+05
 0.50530057E+01  0.11558E+05
 0.51030054E+01  0.11550E+05
 0.51530056E+01  0.11549E+05
 0.52030058E+01  0.11539E+05
 0.52530055E+01  0.11525E+05
 0.53030057E+01  0.11511E+05
 0.53530054E+01  0.11492E+05
 0.54030056E+01  0.11469E+05
 0.54530053E+01  0.11446E+05
 0.55030055E+01  0.11429E+05
 0.55530057E+01  0.11406E+05
 0.56030054E+01  0.11387E+05
 0.56530056E+01  0.11378E+05
 0.57030053E+01  0.11375E+05
 0.57530055E+01  0.11383E+05
 0.58030057E+01  0.11403E+05
 0.58530054E+01  0.11421E+05
 0.59030056E+01  0.11444E+05
 0.59530053E+01  0.11480E+05
 0.60030055E+01  0.11516E+05
 0.60530052E+01  0.11552E+05
 0.61030054E+01  0.11592E+05
 0.61530056E+01  0.11631E+05
 0.62030058E+01  0.11667E+05
 0.62530050E+01  0.11708E+05
 0.63030052E+01  0.11742E+05
 0.63530054E+01  0.11768E+05
 0.64030056E+01  0.11793E+05
 0.64530058E+01  0.11810E+05
 0.65030050E+01  0.11814E+05
 0.65530052E+01  0.11806E+05
 0.66030054E+01  0.11788E+05
 0.66530056E+01  0.11757E+05
 0.67030058E+01  0.11721E+05
 0.67530050E+01  0.11681E+05
 0.68030052E+01  0.11636E+05
 0.68530054E+01  0.11591E+05
 0.69030056E+01  0.11548E+05
 0.69530058E+01  0.11502E+05
 0.70030050E+01  0.11461E+05
 0.70530052E+01  0.11430E+05
 0.71030054E+01  0.11401E+05
 0.71530056E+01  0.11381E+05
 0.72030058E+01  0.11368E+05
 0.72530050E+01  0.11368E+05
 0.73030052E+01  0.11379E+05
 0.73530054E+01  0.11401E+05
 0.74030056E+01  0.11432E+05
 0.74530058E+01  0.11464E+05
 0.75030050E+01  0.11491E+05
 0.75530052E+01  0.11514E+05
 0.76030054E+01  0.11533E+05
 0.76530056E+01  0.11540E+05
 0.77030058E+01  0.11543E+05
 0.77530050E+01  0.11538E+05
 0.78030052E+01  0.11529E+05
 0.78530054E+01  0.11524E+05
 0.79030056E+01  0.11520E+05
 0.79530058E+01  0.11516E+05
 0.80030050E+01  0.11517E+05
 0.80530052E+01  0.11521E+05
 0.81030054E+01  0.11527E+05
 0.81530056E+01  0.11534E+05
 0.82030058E+01  0.11543E+05
 0.82530050E+01  0.11553E+05
 0.83030052E+01  0.11561E+05
 0.83530054E+01  0.11577E+05
 0.84030056E+01  0.11591E+05
 0.84530058E+01  0.11604E+05
 0.85030050E+01  0.11617E+05
 0.85530052E+01  0.11618E+05
 0.86030054E+01  0.11612E+05
 0.86530056E+01  0.11603E+05
 0.87030058E+01  0.11586E+05
 0.87530050E+01  0.11573E+05
 0.88030052E+01  0.11556E+05
 0.88530054E+01  0.11533E+05
 0.89030056E+01  0.11515E+05
 0.89530058E+01  0.11486E+05
 0.90030050E+01  0.11461E+05
 0.90530052E+01  0.11442E+05
 0.91030054E+01  0.11426E+05
 0.91530056E+01  0.11425E+05
 0.92030048E+01  0.11430E+05
 0.92530050E+01  0.11440E+05
 0.93030052E+01  0.11464E+05
 0.93530054E+01  0.11494E+05
 0.94030056E+01  0.11520E+05
 0.94530048E+01  0.11550E+05
 0.95030050E+01  0.11581E+05
 0.95530052E+01  0.11608E+05
 0.96030054E+01  0.11644E+05
 0.96530056E+01  0.11673E+05
 0.97030048E+01  0.11698E+05
 0.97530050E+01  0.11720E+05
 0.98030052E+01  0.11725E+05
 0.98530054E+01  0.11716E+05
 0.99030056E+01  0.11701E+05
 0.99530048E+01  0.11677E+05
 0.10003005E+02  0.11653E+05
 0.10053005E+02  0.11626E+05
 0.10103005E+02  0.11596E+05
 0.10153006E+02  0.11566E+05
 0.10203005E+02  0.11532E+05
 0.10253005E+02  0.11506E+05
 0.10303005E+02  0.11478E+05
 0.10353005E+02  0.11458E+05
 0.10403006E+02  0.11444E+05
 0.10453005E+02  0.11432E+05
 0.10503005E+02  0.11432E+05
 0.10553005E+02  0.11441E+05
 0.10603005E+02  0.11449E+05
 0.10653006E+02  0.11458E+05
 0.10703005E+02  0.11471E+05
 0.10753005E+02  0.11481E+05
 0.10803005E+02  0.11491E+05
 0.10853005E+02  0.11505E+05
 0.10903006E+02  0.11520E+05
 0.10953005E+02  0.11535E+05
 0.11003005E+02  0.11558E+05
 0.11053005E+02  0.11576E+05
 0.11103005E+02  0.11584E+05
 0.11153006E+02  0.11590E+05
 0.11203005E+02  0.11589E+05
 0.11253005E+02  0.11579E+05
 0.11303005E+02  0.11568E+05
 0.11353005E+02  0.11558E+05
 0.11403006E+02  0.11540E+05
 0.11453005E+02  0.11520E+05
 0.11503005E+02  0.11494E+05
 0.11553005E+02  0.11466E+05
 0.11603005E+02  0.11445E+05
 0.11653006E+02  0.11430E+05
 0.11703005E+02  0.11420E+05
 0.11753005E+02  0.11420E+05
 0.11803005E+02  0.11430E+05
 0.11853005E+02  0.11444E+05
 0.11903006E+02  0.11467E+05
 0.11953005E+02  0.11495E+05
 0.12003005E+02  0.11524E+05
 0.12053005E+02  0.11558E+05
 0.12103005E+02  0.11598E+05
 0.12153006E+02  0.11641E+05
 0.12203005E+02  0.11688E+05
 0.12253005E+02  0.11733E+05
 0.12303005E+02  0.11764E+05
 0.12353005E+02  0.11782E+05
 0.12403006E+02  0.11785E+05
 0.12453005E+02  0.11779E+05
 0.12503005E+02  0.11760E+05
 0.12553005E+02  0.11729E+05
 0.12603005E+02  0.11691E+05
 0.12653005E+02  0.11653E+05
 0.12703005E+02  0.11616E+05
 0.12753005E+02  0.11572E+05
 0.12803005E+02  0.11532E+05
 0.12853005E+02  0.11498E+05
 0.12903005E+02  0.11466E+05
 0.12953005E+02  0.11441E+05
 0.13003005E+02  0.11430E+05
 0.13053005E+02  0.11422E+05
 0.13103005E+02  0.11415E+05
 0.13153005E+02  0.11412E+05
 0.13203005E+02  0.11417E+05
 0.13253005E+02  0.11429E+05
 0.13303005E+02  0.11443E+05
 0.13353005E+02  0.11471E+05
 0.13403005E+02  0.11494E+05
 0.13453005E+02  0.11516E+05
 0.13503005E+02  0.11542E+05
 0.13553005E+02  0.11558E+05
 0.13603005E+02  0.11571E+05
 0.13653005E+02  0.11583E+05
 0.13703005E+02  0.11589E+05
 0.13753005E+02  0.11592E+05
 0.13803005E+02  0.11601E+05
 0.13853005E+02  0.11601E+05
 0.13903005E+02  0.11595E+05
 0.13953005E+02  0.11587E+05
 0.14003005E+02  0.11577E+05
 0.14053005E+02  0.11564E+05
 0.14103004E+02  0.11554E+05
 0.14153006E+02  0.11545E+05
 0.14203005E+02  0.11531E+05
 0.14253004E+02  0.11521E+05
 0.14303005E+02  0.11509E+05
 0.14353004E+02  0.11498E+05
 0.14403006E+02  0.11494E+05
 0.14453005E+02  0.11490E+05
 0.14503004E+02  0.11485E+05
 0.14553005E+02  0.11487E+05
 0.14603004E+02  0.11496E+05
 0.14653006E+02  0.11506E+05
 0.14703005E+02  0.11514E+05
 0.14753004E+02  0.11526E+05
 0.14803005E+02  0.11542E+05
 0.14853004E+02  0.11562E+05
 0.14903006E+02  0.11589E+05
 0.14953005E+02  0.11606E+05
 0.15003004E+02  0.11620E+05
 0.15053005E+02  0.11633E+05
 0.15103004E+02  0.11629E+05
 0.15153006E+02  0.11621E+05
 0.15203005E+02  0.11613E+05
 0.15253004E+02  0.11594E+05
 0.15303005E+02  0.11565E+05
 0.15353004E+02  0.11538E+05
 0.15403006E+02  0.11506E+05
 0.15453005E+02  0.11478E+05
 0.15503004E+02  0.11458E+05
 0.15553005E+02  0.11442E+05
 0.15603004E+02  0.11430E+05
 0.15653006E+02  0.11423E+05
 0.15703005E+02  0.11427E+05
 0.15753004E+02  0.11434E+05
 0.15803005E+02  0.11448E+05
 0.15853004E+02  0.11469E+05
 0.15903006E+02  0.11491E+05
 0.15953005E+02  0.11516E+05
 0.16003004E+02  0.11542E+05
 0.16053005E+02  0.11562E+05
 0.16103004E+02  0.11580E+05
 0.16153006E+02  0.11598E+05
 0.16203005E+02  0.11609E+05
 0.16253004E+02  0.11614E+05
 0.16303005E+02  0.11622E+05
 0.16353004E+02  0.11628E+05
 0.16403006E+02  0.11630E+05
 0.16453005E+02  0.11633E+05
 0.16503004E+02  0.11626E+05
 0.16553005E+02  0.11612E+05
 0.16603004E+02  0.11597E+05
 0.16653006E+02  0.11578E+05
 0.16703005E+02  0.11556E+05
 0.16753004E+02  0.11532E+05
 0.16803005E+02  0.11503E+05
 0.16853004E+02  0.11473E+05
 0.16903006E+02  0.11451E+05
 0.16953005E+02  0.11438E+05
 0.17003004E+02  0.11426E+05
 0.17053005E+02  0.11428E+05
 0.17103004E+02  0.11440E+05
 0.17153006E+02  0.11457E+05
 0.17203005E+02  0.11485E+05
 0.17253004E+02  0.11519E+05
 0.17303005E+02  0.11551E+05
 0.17353004E+02  0.11587E+05
 0.17403006E+02  0.11628E+05
 0.17453005E+02  0.11668E+05
 0.17503004E+02  0.11710E+05
 0.17553005E+02  0.11740E+05
 0.17603004E+02  0.11760E+05
 0.17653006E+02  0.11765E+05
 0.17703005E+02  0.11756E+05
 0.17753004E+02  0.11737E+05
 0.17803005E+02  0.11703E+05
 0.17853004E+02  0.11667E+05
 0.17903006E+02  0.11633E+05
 0.17953005E+02  0.11588E+05
 0.18003004E+02  0.11533E+05
 0.18053005E+02  0.11483E+05
 0.18103004E+02  0.11434E+05
 0.18153006E+02  0.11389E+05
 0.18203005E+02  0.11363E+05
 0.18253004E+02  0.11348E+05
 0.18303005E+02  0.11340E+05
 0.18353004E+02  0.11349E+05
 0.18403006E+02  0.11360E+05
 0.18453005E+02  0.11375E+05
 0.18503004E+02  0.11403E+05
 0.18553005E+02  0.11428E+05
 0.18603004E+02  0.11447E+05
 0.18653006E+02  0.11473E+05
 0.18703005E+02  0.11494E+05
 0.18753004E+02  0.11511E+05
 0.18803005E+02  0.11532E+05
 0.18853004E+02  0.11547E+05
 0.18903006E+02  0.11564E+05
 0.18953005E+02  0.11579E+05
 0.19003004E+02  0.11590E+05
 0.19053005E+02  0.11596E+05
 0.19103004E+02  0.11601E+05
 0.19153006E+02  0.11608E+05
 0.19203005E+02  0.11617E+05
 0.19253004E+02  0.11627E+05
 0.19303005E+02  0.11638E+05
 0.19353004E+02  0.11646E+05
 0.19403006E+02  0.11653E+05
 0.19453005E+02  0.11652E+05
 0.19503004E+02  0.11646E+05
 0.19553005E+02  0.11634E+05
 0.19603004E+02  0.11616E+05
 0.19653006E+02  0.11595E+05
 0.19703005E+02  0.11572E+05
 0.19753004E+02  0.11552E+05
 0.19803005E+02  0.11531E+05
 0.19853004E+02  0.11519E+05
 0.19903006E+02  0.11509E+05
 0.19953005E+02  0.11507E+05
 0.20003004E+02  0.11516E+05
 0.20053005E+02  0.11528E+05
 0.20103004E+02  0.11547E+05
 0.20153006E+02  0.11567E+05
 0.20203005E+02  0.11585E+05
 0.20253004E+02  0.11606E+05
 0.20303005E+02  0.11618E+05
 0.20353004E+02  0.11613E+05
 0.20403004E+02  0.11602E+05
 0.20453005E+02  0.11586E+05
 0.20503004E+02  0.11569E+05
 0.20553005E+02  0.11556E+05
 0.20603004E+02  0.11542E+05
 0.20653004E+02  0.11532E+05
 0.20703005E+02  0.11522E+05
 0.20753004E+02  0.11512E+05
 0.20803005E+02  0.11506E+05
 0.20853004E+02  0.11501E+05
 0.20903004E+02  0.11500E+05
 0.20953005E+02  0.11499E+05
 0.21003004E+02  0.11500E+05
 0.21053005E+02  0.11501E+05
 0.21103004E+02  0.11504E+05
 0.21153004E+02  0.11508E+05
 0.21203005E+02  0.11510E+05
 0.21253004E+02  0.11509E+05
 0.21303005E+02  0.11503E+05
 0.21353004E+02  0.11498E+05
 0.21403004E+02  0.11486E+05
 0.21453005E+02  0.11477E+05
 0.21503004E+02  0.11468E+05
 0.21553005E+02  0.11455E+05
 0.21603004E+02  0.11444E+05
 0.21653004E+02  0.11431E+05
 0.21703005E+02  0.11420E+05
 0.21753004E+02  0.11408E+05
 0.21803005E+02  0.11407E+05
 0.21853004E+02  0.11411E+05
 0.21903004E+02  0.11422E+05
 0.21953005E+02  0.11442E+05
 0.22003004E+02  0.11461E+05
 0.22053005E+02  0.11486E+05
 0.22103004E+02  0.11515E+05
 0.22153004E+02  0.11549E+05
 0.22203005E+02  0.11584E+05
 0.22253004E+02  0.11620E+05
 0.22303005E+02  0.11652E+05
 0.22353004E+02  0.11681E+05
 0.22403004E+02  0.11710E+05
 0.22453005E+02  0.11729E+05
 0.22503004E+02  0.11742E+05
 0.22553005E+02  0.11753E+05
 0.22603004E+02  0.11760E+05
 0.22653004E+02  0.11758E+05
 0.22703005E+02  0.11749E+05
 0.22753004E+02  0.11724E+05
 0.22803005E+02  0.11690E+05
 0.22853004E+02  0.11651E+05
 0.22903004E+02  0.11616E+05
 0.22953005E+02  0.11581E+05
 0.23003004E+02  0.11546E+05
 0.23053005E+02  0.11515E+05
 0.23103004E+02  0.11490E+05
 0.23153004E+02  0.11470E+05
 0.23203005E+02  0.11455E+05
 0.23253004E+02  0.11442E+05
 0.23303005E+02  0.11439E+05
 0.23353004E+02  0.11443E+05
 0.23403004E+02  0.11448E+05
 0.23453005E+02  0.11462E+05
 0.23503004E+02  0.11481E+05
 0.23553005E+02  0.11501E+05
 0.23603004E+02  0.11518E+05
 0.23653004E+02  0.11530E+05
 0.23703005E+02  0.11540E+05
 0.23753004E+02  0.11546E+05
 0.23803005E+02  0.11552E+05
 0.23853004E+02  0.11553E+05
 0.23903004E+02  0.11544E+05
 0.23953005E+02  0.11536E+05
 0.24003004E+02  0.11531E+05
 0.24053005E+02  0.11522E+05
 0.24103004E+02  0.11508E+05
 0.24153004E+02  0.11487E+05
 0.24203005E+02  0.11473E+05
 0.24253004E+02  0.11469E+05
 0.24303005E+02  0.11470E+05
 0.24353004E+02  0.11472E+05
 0.24403004E+02  0.11473E+05
 0.24453005E+02  0.11476E+05
 0.24503004E+02  0.11475E+05
 0.24553005E+02  0.11476E+05
 0.24603004E+02  0.11480E+05
 0.24653004E+02  0.11490E+05
 0.24703005E+02  0.11499E+05
 0.24753004E+02  0.11517E+05
 0.24803005E+02  0.11537E+05
 0.24853004E+02  0.11555E+05
 0.24903004E+02  0.11573E+05
 0.24953005E+02  0.11586E+05
 0.25003004E+02  0.11594E+05
 0.25053005E+02  0.11600E+05
 0.25103004E+02  0.11613E+05
 0.25153004E+02  0.11622E+05
 0.25203005E+02  0.11627E+05
 0.25253004E+02  0.11634E+05
 0.25303005E+02  0.11637E+05
 0.25353004E+02  0.11636E+05
 0.25403004E+02  0.11638E+05
 0.25453005E+02  0.11638E+05
 0.25503004E+02  0.11632E+05
 0.25553005E+02  0.11626E+05
 0.25603004E+02  0.11612E+05
 0.25653004E+02  0.11592E+05
 0.25703005E+02  0.11572E+05
 0.25753004E+02  0.11553E+05
 0.25803005E+02  0.11531E+05
 0.25853004E+02  0.11512E+05
 0.25903004E+02  0.11491E+05
 0.25953005E+02  0.11472E+05
 0.26003004E+02  0.11457E+05
 0.26053005E+02  0.11446E+05
 0.26103004E+02  0.11435E+05
 0.26153004E+02  0.11425E+05
 0.26203005E+02  0.11429E+05
 0.26253004E+02  0.11438E+05
 0.26303005E+02  0.11450E+05
 0.26353004E+02  0.11472E+05
 0.26403004E+02  0.11490E+05
 0.26453005E+02  0.11502E+05
 0.26503004E+02  0.11518E+05
 0.26553005E+02  0.11530E+05
 0.26603004E+02  0.11543E+05
 0.26653004E+02  0.11565E+05
 0.26703005E+02  0.11582E+05
 0.26753004E+02  0.11599E+05
 0.26803005E+02  0.11608E+05
 0.26853004E+02  0.11614E+05
 0.26903004E+02  0.11620E+05
 0.26953005E+02  0.11620E+05
 0.27003004E+02  0.11622E+05
 0.27053003E+02  0.11616E+05
 0.27103004E+02  0.11615E+05
 0.27153004E+02  0.11612E+05
 0.27203005E+02  0.11603E+05
 0.27253004E+02  0.11594E+05
 0.27303003E+02  0.11582E+05
 0.27353004E+02  0.11572E+05
 0.27403004E+02  0.11564E+05
 0.27453005E+02  0.11566E+05
 0.27503004E+02  0.11568E+05
 0.27553003E+02  0.11571E+05
 0.27603004E+02  0.11579E+05
 0.27653004E+02  0.11585E+05
 0.27703005E+02  0.11583E+05
 0.27753004E+02  0.11583E+05
 0.27803003E+02  0.11579E+05
 0.27853004E+02  0.11569E+05
 0.27903004E+02  0.11564E+05
 0.27953005E+02  0.11557E+05
 0.28003004E+02  0.11545E+05
 0.28053003E+02  0.11539E+05
 0.28103004E+02  0.11532E+05
 0.28153004E+02  0.11517E+05
 0.28203005E+02  0.11504E+05
 0.28253004E+02  0.11493E+05
 0.28303003E+02  0.11484E+05
 0.28353004E+02  0.11478E+05
 0.28403004E+02  0.11472E+05
 0.28453005E+02  0.11467E+05
 0.28503004E+02  0.11464E+05
 0.28553003E+02  0.11467E+05
 0.28603004E+02  0.11471E+05
 0.28653004E+02  0.11476E+05
 0.28703005E+02  0.11491E+05
 0.28753004E+02  0.11507E+05
 0.28803003E+02  0.11523E+05
 0.28853004E+02  0.11547E+05
 0.28903004E+02  0.11569E+05
 0.28953005E+02  0.11595E+05
 0.29003004E+02  0.11620E+05
 0.29053003E+02  0.11640E+05
 0.29103004E+02  0.11655E+05
 0.29153004E+02  0.11664E+05
 0.29203005E+02  0.11665E+05
 0.29253004E+02  0.11655E+05
 0.29303003E+02  0.11645E+05
 0.29353004E+02  0.11626E+05
 0.29403004E+02  0.11600E+05
 0.29453005E+02  0.11576E+05
 0.29503004E+02  0.11548E+05
 0.29553003E+02  0.11519E+05
 0.29603004E+02  0.11499E+05
 0.29653004E+02  0.11485E+05
 0.29703005E+02  0.11473E+05
 0.29753004E+02  0.11468E+05
 0.29803003E+02  0.11462E+05
 0.29853004E+02  0.11463E+05
 0.29903004E+02  0.11468E+05
 0.29953005E+02  0.11476E+05
 0.30003004E+02  0.11484E+05
 0.30053005E+02  0.11493E+05
 0.30103004E+02  0.11500E+05
 0.30153004E+02  0.11505E+05
 0.30203003E+02  0.11503E+05
 0.30253002E+02  0.11511E+05
 0.30303005E+02  0.11533E+05
 0.30353004E+02  0.11548E+05
 0.30403004E+02  0.11570E+05
 0.30453003E+02  0.11573E+05
 0.30503002E+02  0.11574E+05
 0.30553005E+02  0.11587E+05
 0.30603004E+02  0.11588E+05
 0.30653004E+02  0.11594E+05
 0.30703003E+02  0.11600E+05
 0.30753002E+02  0.11590E+05
 0.30803005E+02  0.11591E+05
 0.30853004E+02  0.11575E+05
 0.30903004E+02  0.11552E+05
 0.30953003E+02  0.11563E+05
 0.31003002E+02  0.11554E+05
 0.31053005E+02  0.11554E+05
 0.31103004E+02  0.11575E+05
 0.31153004E+02  0.11536E+05
 0.31203003E+02  0.11530E+05
 0.31253002E+02  0.11555E+05
 0.31303005E+02  0.11516E+05
 0.31353004E+02  0.11547E+05
 0.31403004E+02  0.11544E+05
 0.31453003E+02  0.11516E+05
 0.31503002E+02  0.11585E+05
 0.31553005E+02  0.11529E+05
 0.31603004E+02  0.11492E+05
 0.31653004E+02  0.11584E+05
 0.31703003E+02  0.11595E+05
 0.31753002E+02  0.11575E+05
 0.31803005E+02  0.11549E+05
 0.31853004E+02  0.11483E+05
 0.31903004E+02  0.11550E+05
 0.31953003E+02  0.11597E+05
 0.32003002E+02  0.11536E+05
 0.32053005E+02  0.11550E+05
 0.32103004E+02  0.11573E+05
 0.32153004E+02  0.11549E+05
 0.32203003E+02  0.11520E+05
 0.32253002E+02  0.11552E+05
 0.32303005E+02  0.11605E+05
 0.32353004E+02  0.11622E+05
 0.32403004E+02  0.11549E+05
 0.32453003E+02  0.11475E+05
 0.32503002E+02  0.11525E+05
 0.32553005E+02  0.11612E+05
 0.32603004E+02  0.11628E+05
 0.32653004E+02  0.11593E+05
 0.32703003E+02  0.11593E+05
 0.32753002E+02  0.11564E+05
 0.32803005E+02  0.11467E+05
 0.32853004E+02  0.11508E+05
 0.32903004E+02  0.11472E+05
 0.32953003E+02  0.11500E+05
 0.33003002E+02  0.11682E+05
 0.33053005E+02  0.11440E+05
 0.33103004E+02  0.11354E+05
 0.33153004E+02  0.11486E+05
 0.33203003E+02  0.11449E+05
 0.33253002E+02  0.11423E+05
 0.33303005E+02  0.11485E+05
 0.33353004E+02  0.11446E+05
 0.33403004E+02  0.11580E+05
 0.33453003E+02  0.11529E+05
 0.33503002E+02  0.11215E+05
 0.33553005E+02  0.11658E+05
 0.33603004E+02  0.11758E+05
 0.33653004E+02  0.11466E+05
 0.33703003E+02  0.11438E+05
 0.33753002E+02  0.11402E+05
 0.33803005E+02  0.11546E+05
 0.33853004E+02  0.11644E+05
 0.33903004E+02  0.11521E+05
 0.33953003E+02  0.11733E+05
 0.34003002E+02  0.11772E+05
 0.34053005E+02  0.11246E+05
 0.34103004E+02  0.10928E+05
 0.34153004E+02  0.11797E+05
 0.34203003E+02  0.12227E+05
 0.34253002E+02  0.11669E+05
 0.34303005E+02  0.11494E+05
 0.34353004E+02  0.11123E+05
 0.34403004E+02  0.11382E+05
 0.34453003E+02  0.11929E+05
 0.34503002E+02  0.11655E+05
 0.34553005E+02  0.11489E+05
 0.34603004E+02  0.11725E+05
 0.34653004E+02  0.11291E+05
 0.34703003E+02  0.11212E+05
 0.34753002E+02  0.11672E+05
 0.34803005E+02  0.11528E+05
 0.34853004E+02  0.11468E+05
 0.34903004E+02  0.11506E+05
 0.34953003E+02  0.11240E+05
 0.35003002E+02  0.11555E+05
 0.35053005E+02  0.12359E+05
 0.35103004E+02  0.11217E+05
 0.35153004E+02  0.10722E+05
 0.35203003E+02  0.11409E+05
 0.35253002E+02  0.11580E+05
 0.35303005E+02  0.12342E+05
 0.35353004E+02  0.12019E+05
 0.35403004E+02  0.11065E+05
 0.35453003E+02  0.10953E+05
 0.35503002E+02  0.11373E+05
 0.35553005E+02  0.11298E+05
 0.35603004E+02  0.12108E+05
 0.35653004E+02  0.12272E+05
 0.35703003E+02  0.10973E+05
 0.35753002E+02  0.10371E+05
 0.35803005E+02  0.10949E+05
 0.35853004E+02  0.12164E+05
 0.35903004E+02  0.12688E+05
 0.35953003E+02  0.12109E+05
 0.36003002E+02  0.11089E+05
 0.36053005E+02  0.11360E+05
 0.36103004E+02  0.11312E+05
 0.36153004E+02  0.11329E+05
 0.36203003E+02  0.12237E+05
 0.36253002E+02  0.12381E+05
 0.36303005E+02  0.11414E+05
 0.36353004E+02  0.10804E+05
 0.36403004E+02  0.11351E+05
 0.36453003E+02  0.11666E+05
 0.36503002E+02  0.11762E+05
 0.36553005E+02  0.12007E+05
 0.36603004E+02  0.11871E+05
 0.36653004E+02  0.11836E+05
 0.36703003E+02  0.11534E+05
 0.36753002E+02  0.11169E+05
 0.36803005E+02  0.11548E+05
 0.36853004E+02  0.11411E+05
 0.36903004E+02  0.11827E+05
 0.36953003E+02  0.12231E+05
 0.37003002E+02  0.11563E+05
 0.37053005E+02  0.10984E+05
 0.37103004E+02  0.10867E+05
 0.37153004E+02  0.11317E+05
 0.37203003E+02  0.11818E+05
 0.37253002E+02  0.11726E+05
 0.37303005E+02  0.11685E+05
 0.37353004E+02  0.12124E+05
 0.37403004E+02  0.12458E+05
 0.37453003E+02  0.11899E+05
 0.37503002E+02  0.11310E+05
 0.37553005E+02  0.11836E+05
 0.37603004E+02  0.12058E+05
 0.37653004E+02  0.11714E+05
 0.37703003E+02  0.11325E+05
 0.37753002E+02  0.10431E+05
 0.37803005E+02  0.11012E+05
 0.37853004E+02  0.12357E+05
 0.37903004E+02  0.11808E+05
 0.37953003E+02  0.10906E+05
 0.38003002E+02  0.10778E+05
 0.38053005E+02  0.11210E+05
 0.38103004E+02  0.11544E+05
 0.38153004E+02  0.12197E+05
 0.38203003E+02  0.11976E+05
 0.38253002E+02  0.11341E+05
 0.38303005E+02  0.11392E+05
 0.38353004E+02  0.11278E+05
 0.38403004E+02  0.11453E+05
 0.38453003E+02  0.11574E+05
 0.38503002E+02  0.11756E+05
 0.38553005E+02  0.11745E+05
 0.38603004E+02  0.10856E+05
 0.38653004E+02  0.11185E+05
 0.38703003E+02  0.11594E+05
 0.38753002E+02  0.11308E+05
 0.38803005E+02  0.12117E+05
 0.38853004E+02  0.12220E+05
 0.38903004E+02  0.12429E+05
 0.38953003E+02  0.12421E+05
 0.39003002E+02  0.11107E+05
 0.39053005E+02  0.10760E+05
 0.39103004E+02  0.11471E+05
 0.39153004E+02  0.11119E+05
 0.39203003E+02  0.10571E+05
 0.39253002E+02  0.10748E+05
 0.39303005E+02  0.10733E+05
 0.39353004E+02  0.11262E+05
 0.39403004E+02  0.11427E+05
 0.39453003E+02  0.11274E+05
 0.39503002E+02  0.11960E+05
 0.39553005E+02  0.12150E+05
 0.39603004E+02  0.11110E+05
 0.39653004E+02  0.12049E+05
 0.39703003E+02  0.12961E+05
 0.39753002E+02  0.11524E+05
 0.39803005E+02  0.11674E+05
 0.39853004E+02  0.11634E+05
 0.39903004E+02  0.11571E+05
 0.39953003E+02  0.12113E+05
 0.40003002E+02  0.11216E+05
 0.40053005E+02  0.11049E+05
 0.40103004E+02  0.11797E+05
 0.40153004E+02  0.11010E+05
 0.40203003E+02  0.10626E+05
 0.40253002E+02  0.11343E+05
 0.40303005E+02  0.11630E+05
 0.40353004E+02  0.11709E+05
 0.40403004E+02  0.11372E+05
 0.40453003E+02  0.10542E+05
 0.40503002E+02  0.11197E+05
 0.40553005E+02  0.12870E+05
 0.40603004E+02  0.12815E+05
 0.40653004E+02  0.12370E+05
 0.40703003E+02  0.11709E+05
 0.40753002E+02  0.10771E+05
 0.40803005E+02  0.10889E+05
 0.40853004E+02  0.11495E+05
 0.40903004E+02  0.11743E+05
 0.40953003E+02  0.11803E+05
 0.41003002E+02  0.11951E+05
 0.41053005E+02  0.11615E+05
 0.41103004E+02  0.10795E+05
 0.41153004E+02  0.11038E+05
 0.41203003E+02  0.11421E+05
 0.41253002E+02  0.11037E+05
 0.41303005E+02  0.11526E+05
 0.41353004E+02  0.11518E+05
 0.41403004E+02  0.11581E+05
 0.41453003E+02  0.11579E+05
 0.41503002E+02  0.10520E+05
 0.41553005E+02  0.11584E+05
 0.41603004E+02  0.12417E+05
 0.41653004E+02  0.11272E+05
 0.41703003E+02  0.11198E+05
 0.41753002E+02  0.12067E+05
 0.41803005E+02  0.12318E+05
 0.41853004E+02  0.12794E+05
 0.41903004E+02  0.12269E+05
 0.41953003E+02  0.10708E+05
 0.42003002E+02  0.11288E+05
 0.42053005E+02  0.11686E+05
 0.42103004E+02  0.11657E+05
 0.42153004E+02  0.12456E+05
 0.42203003E+02  0.12198E+05
 0.42253002E+02  0.11711E+05
 0.42303005E+02  0.11190E+05
 0.42353004E+02  0.11109E+05
 0.42403004E+02  0.11489E+05
 0.42453003E+02  0.11372E+05
 0.42503002E+02  0.10906E+05
 0.42553005E+02  0.11132E+05
 0.42603004E+02  0.11977E+05
 0.42653004E+02  0.11557E+05
 0.42703003E+02  0.11975E+05
 0.42753002E+02  0.12240E+05
 0.42803001E+02  0.10995E+05
 0.42853004E+02  0.10978E+05
 0.42903004E+02  0.11064E+05
 0.42953003E+02  0.10540E+05
 0.43003002E+02  0.10575E+05
 0.43053001E+02  0.11185E+05
 0.43103004E+02  0.11705E+05
 0.43153004E+02  0.12213E+05
 0.43203003E+02  0.12220E+05
 0.43253002E+02  0.12120E+05
 0.43303001E+02  0.12444E+05
 0.43353004E+02  0.12198E+05
 0.43403004E+02  0.11404E+05
 0.43453003E+02  0.11061E+05
 0.43503002E+02  0.11414E+05
 0.43553001E+02  0.10901E+05
 0.43603004E+02  0.10477E+05
 0.43653004E+02  0.11149E+05
 0.43703003E+02  0.11854E+05
 0.43753002E+02  0.11257E+05
 0.43803001E+02  0.11367E+05
 0.43853004E+02  0.12905E+05
 0.43903004E+02  0.12367E+05
 0.43953003E+02  0.11170E+05
 0.44003002E+02  0.10996E+05
 0.44053001E+02  0.11674E+05
 0.44103004E+02  0.12275E+05
 0.44153004E+02  0.12414E+05
 0.44203003E+02  0.11957E+05
 0.44253002E+02  0.11106E+05
 0.44303001E+02  0.10849E+05
 0.44353004E+02  0.11026E+05
 0.44403004E+02  0.11937E+05
 0.44453003E+02  0.12087E+05
 0.44503002E+02  0.10754E+05
 0.44553001E+02  0.97447E+04
 0.44603004E+02  0.10574E+05
 0.44653004E+02  0.11941E+05
 0.44703003E+02  0.12596E+05
 0.44753002E+02  0.12983E+05
 0.44803001E+02  0.12775E+05
 0.44853004E+02  0.12003E+05
 0.44903004E+02  0.11394E+05
 0.44953003E+02  0.11029E+05
 0.45003002E+02  0.10744E+05
 0.45053001E+02  0.10967E+05
 0.45103004E+02  0.11565E+05
 0.45153004E+02  0.11942E+05
 0.45203003E+02  0.11932E+05
 0.45253002E+02  0.10969E+05
 0.45303001E+02  0.10802E+05
 0.45353004E+02  0.11726E+05
 0.45403004E+02  0.11630E+05
 0.45453003E+02  0.11207E+05
 0.45503002E+02  0.11592E+05
 0.45553001E+02  0.12089E+05
 0.45603004E+02  0.11562E+05
 0.45653004E+02  0.11063E+05
 0.45703003E+02  0.11892E+05
 0.45753002E+02  0.12727E+05
 0.45803001E+02  0.12215E+05
 0.45853004E+02  0.11775E+05
 0.45903004E+02  0.11422E+05
 0.45953003E+02  0.11437E+05
 0.46003002E+02  0.11844E+05
 0.46053001E+02  0.11539E+05
 0.46103004E+02  0.11683E+05
 0.46153004E+02  0.12207E+05
 0.46203003E+02  0.12213E+05
 0.46253002E+02  0.11274E+05
 0.46303001E+02  0.10280E+05
 0.46353004E+02  0.10141E+05
 0.46403004E+02  0.10274E+05
 0.46453003E+02  0.10020E+05
 0.46503002E+02  0.10361E+05
 0.46553001E+02  0.11968E+05
 0.46603004E+02  0.12670E+05
 0.46653004E+02  0.12380E+05
 0.46703003E+02  0.12089E+05
 0.46753002E+02  0.12126E+05
 0.46803001E+02  0.12315E+05
 0.46853004E+02  0.12141E+05
 0.46903004E+02  0.11347E+05
 0.46953003E+02  0.10889E+05
 0.47003002E+02  0.10802E+05
 0.47053001E+02  0.10985E+05
 0.47103004E+02  0.11731E+05
 0.47153004E+02  0.11374E+05
 0.47203003E+02  0.10737E+05
 0.47253002E+02  0.10826E+05
 0.47303001E+02  0.10768E+05
 0.47353004E+02  0.10727E+05
 0.47403004E+02  0.10919E+05
 0.47453003E+02  0.11239E+05
 0.47503002E+02  0.11763E+05
 0.47553001E+02  0.12244E+05
 0.47603004E+02  0.12538E+05
 0.47653004E+02  0.12170E+05
 0.47703003E+02  0.11638E+05
 0.47753002E+02  0.11583E+05
 0.47803001E+02  0.12229E+05
 0.47853004E+02  0.12673E+05
 0.47903004E+02  0.12912E+05
 0.47953003E+02  0.12853E+05
 0.48003002E+02  0.12272E+05
 0.48053001E+02  0.12274E+05
 0.48103004E+02  0.12095E+05
 0.48153004E+02  0.11702E+05
 0.48203003E+02  0.11209E+05
 0.48253002E+02  0.10115E+05
 0.48303001E+02  0.97544E+04
 0.48353004E+02  0.10789E+05
 0.48403004E+02  0.11938E+05
 0.48453003E+02  0.12565E+05
 0.48503002E+02  0.11574E+05
 0.48553001E+02  0.10060E+05
 0.48603004E+02  0.96177E+04
 0.48653004E+02  0.10037E+05
 0.48703003E+02  0.10981E+05
 0.48753002E+02  0.11908E+05
 0.48803001E+02  0.12348E+05
 0.48853004E+02  0.11900E+05
 0.48903004E+02  0.11613E+05
 0.48953003E+02  0.12295E+05
 0.49003002E+02  0.13212E+05
 0.49053001E+02  0.12838E+05
 0.49103004E+02  0.11642E+05
 0.49153004E+02  0.11218E+05
 0.49203003E+02  0.11377E+05
 0.49253002E+02  0.12108E+05
 0.49303001E+02  0.12532E+05
 0.49353004E+02  0.12191E+05
 0.49403004E+02  0.11660E+05
 0.49453003E+02  0.10567E+05
 0.49503002E+02  0.10447E+05
 0.49553001E+02  0.10848E+05
 0.49603004E+02  0.10442E+05
 0.49653004E+02  0.10526E+05
 0.49703003E+02  0.11130E+05
 0.49753002E+02  0.11471E+05
 0.49803001E+02  0.11425E+05
 0.49853004E+02  0.11406E+05
 0.49903004E+02  0.11795E+05
 0.49953003E+02  0.12219E+05
 0.50003002E+02  0.12511E+05
 0.50053001E+02  0.12828E+05
 0.50103004E+02  0.12915E+05
 0.50153004E+02  0.12526E+05
 0.50203003E+02  0.11842E+05
 0.50253002E+02  0.11853E+05
 0.50303001E+02  0.11920E+05
 0.50353004E+02  0.11790E+05
 0.50403004E+02  0.12017E+05
 0.50453003E+02  0.11390E+05
 0.50503002E+02  0.10235E+05
 0.50553001E+02  0.10130E+05
 0.50603004E+02  0.10887E+05
 0.50653004E+02  0.11482E+05
 0.50703003E+02  0.12058E+05
 0.50753002E+02  0.11919E+05
 0.50803001E+02  0.11712E+05
 0.50853004E+02  0.11676E+05
 0.50903004E+02  0.10939E+05
 0.50953003E+02  0.10719E+05
 0.51003002E+02  0.10757E+05
 0.51053001E+02  0.10767E+05
 0.51103004E+02  0.11151E+05
 0.51153004E+02  0.11594E+05
 0.51203003E+02  0.11973E+05
 0.51253002E+02  0.12693E+05
 0.51303001E+02  0.13038E+05
 0.51353004E+02  0.12377E+05
 0.51403004E+02  0.11603E+05
 0.51453003E+02  0.10849E+05
 0.51503002E+02  0.10277E+05
 0.51553001E+02  0.99556E+04
 0.51603004E+02  0.10040E+05
 0.51653004E+02  0.10120E+05
 0.51703003E+02  0.10055E+05
 0.51753002E+02  0.10174E+05
 0.51803001E+02  0.10816E+05
 0.51853004E+02  0.12467E+05
 0.51903004E+02  0.13222E+05
 0.51953003E+02  0.12416E+05
 0.52003002E+02  0.11558E+05
 0.52053001E+02  0.10958E+05
 0.52103004E+02  0.11448E+05
 0.52153004E+02  0.12571E+05
 0.52203003E+02  0.12800E+05
 0.52253002E+02  0.12360E+05
 0.52303001E+02  0.11535E+05
 0.52353004E+02  0.10969E+05
 0.52403004E+02  0.10843E+05
 0.52453003E+02  0.11243E+05
 0.52503002E+02  0.11678E+05
 0.52553001E+02  0.11498E+05
 0.52603004E+02  0.11499E+05
 0.52653004E+02  0.11855E+05
 0.52703003E+02  0.12042E+05
 0.52753002E+02  0.12118E+05
 0.52803001E+02  0.11789E+05
 0.52853004E+02  0.11314E+05
 0.52903004E+02  0.11297E+05
 0.52953003E+02  0.11137E+05
 0.53003002E+02  0.11145E+05
 0.53053001E+02  0.11364E+05
 0.53103004E+02  0.11233E+05
 0.53153004E+02  0.10869E+05
 0.53203003E+02  0.10643E+05
 0.53253002E+02  0.10661E+05
 0.53303001E+02  0.10639E+05
 0.53353004E+02  0.11444E+05
 0.53403004E+02  0.12546E+05
 0.53453003E+02  0.12503E+05
 0.53503002E+02  0.12511E+05
 0.53553001E+02  0.12914E+05
 0.53603004E+02  0.13660E+05
 0.53653004E+02  0.13760E+05
 0.53703003E+02  0.12444E+05
 0.53753002E+02  0.11832E+05
 0.53803001E+02  0.11753E+05
 0.53853004E+02  0.11259E+05
 0.53903004E+02  0.11491E+05
 0.53953003E+02  0.11847E+05
 0.54003002E+02  0.11975E+05
 0.54053001E+02  0.12318E+05
 0.54103004E+02  0.12068E+05
 0.54153004E+02  0.12145E+05
 0.54203003E+02  0.12582E+05
 0.54253002E+02  0.12687E+05
 0.54303001E+02  0.12349E+05
 0.54353004E+02  0.12167E+05
 0.54403004E+02  0.11648E+05
 0.54453003E+02  0.10506E+05
 0.54503002E+02  0.98719E+04
 0.54553001E+02  0.97599E+04
 0.54603004E+02  0.10213E+05
 0.54653004E+02  0.10241E+05
 0.54703003E+02  0.10776E+05
 0.54753002E+02  0.11756E+05
 0.54803001E+02  0.11396E+05
 0.54853004E+02  0.10816E+05
 0.54903004E+02  0.10316E+05
 0.54953003E+02  0.94748E+04
 0.55003002E+02  0.91499E+04
 0.55053001E+02  0.99353E+04
 0.55103004E+02  0.11486E+05
 0.55153004E+02  0.12404E+05
 0.55203003E+02  0.12073E+05
 0.55253002E+02  0.11558E+05
 0.55303001E+02  0.12146E+05
 0.55353004E+02  0.13783E+05
 0.55403004E+02  0.15168E+05
 0.55453003E+02  0.15347E+05
 0.55503002E+02  0.14310E+05
 0.55553001E+02  0.13932E+05
 0.55603004E+02  0.14174E+05
 0.55653004E+02  0.14045E+05
 0.55703003E+02  0.13287E+05
 0.55753002E+02  0.11323E+05
 0.55803001E+02  0.98471E+04
 0.55853001E+02  0.92929E+04
 0.55903004E+02  0.89155E+04
 0.55953003E+02  0.87719E+04
 0.56003002E+02  0.88629E+04
 0.56053001E+02  0.92490E+04
 0.56103001E+02  0.91572E+04
 0.56153004E+02  0.87890E+04
 0.56203003E+02  0.85392E+04
 0.56253002E+02  0.91538E+04
 0.56303001E+02  0.10118E+05
 0.56353001E+02  0.10754E+05
 0.56403004E+02  0.12177E+05
 0.56453003E+02  0.13219E+05
 0.56503002E+02  0.14140E+05
 0.56553001E+02  0.14629E+05
 0.56603001E+02  0.14012E+05
 0.56653004E+02  0.12742E+05
 0.56703003E+02  0.11692E+05
 0.56753002E+02  0.12039E+05
 0.56803001E+02  0.12093E+05
 0.56853001E+02  0.12124E+05
 0.56903004E+02  0.11726E+05
 0.56953003E+02  0.10643E+05
 0.57003002E+02  0.10026E+05
 0.57053001E+02  0.93598E+04
 0.57103001E+02  0.87671E+04
 0.57153004E+02  0.89089E+04
 0.57203003E+02  0.96142E+04
 0.57253002E+02  0.10825E+05
 0.57303001E+02  0.12252E+05
 0.57353001E+02  0.12384E+05
 0.57403004E+02  0.11449E+05
 0.57453003E+02  0.11521E+05
 0.57503002E+02  0.12954E+05
 0.57553001E+02  0.13241E+05
 0.57603001E+02  0.12206E+05
 0.57653004E+02  0.10353E+05
 0.57703003E+02  0.94493E+04
 0.57753002E+02  0.10366E+05
 0.57803001E+02  0.11145E+05
 0.57853001E+02  0.11284E+05
 0.57903004E+02  0.10976E+05
 0.57953003E+02  0.11054E+05
 0.58003002E+02  0.11984E+05
 0.58053001E+02  0.13371E+05
 0.58103001E+02  0.13639E+05
 0.58153004E+02  0.13797E+05
 0.58203003E+02  0.13618E+05
 0.58253002E+02  0.12980E+05
 0.58303001E+02  0.13278E+05
 0.58353001E+02  0.12854E+05
 0.58403004E+02  0.10821E+05
 0.58453003E+02  0.85504E+04
 0.58503002E+02  0.81744E+04
 0.58553001E+02  0.95482E+04
 0.58603001E+02  0.12261E+05
 0.58653004E+02  0.14655E+05
 0.58703003E+02  0.14210E+05
 0.58753002E+02  0.12008E+05
 0.58803001E+02  0.97994E+04
 0.58853001E+02  0.85054E+04
 0.58903004E+02  0.93031E+04
 0.58953003E+02  0.11759E+05
 0.59003002E+02  0.13424E+05
 0.59053001E+02  0.12292E+05
 0.59103001E+02  0.10939E+05
 0.59153004E+02  0.11179E+05
 0.59203003E+02  0.11712E+05
 0.59253002E+02  0.12877E+05
 0.59303001E+02  0.14052E+05
 0.59353001E+02  0.14069E+05
 0.59403004E+02  0.13713E+05
 0.59453003E+02  0.13995E+05
 0.59503002E+02  0.13337E+05
 0.59553001E+02  0.12028E+05
 0.59603001E+02  0.11486E+05
 0.59653004E+02  0.11109E+05
 0.59703003E+02  0.10727E+05
 0.59753002E+02  0.10003E+05
 0.59803001E+02  0.89460E+04
 0.59853001E+02  0.82595E+04
 0.59903004E+02  0.86822E+04
 0.59953003E+02  0.97155E+04
 0.60003002E+02  0.98292E+04
 0.60053001E+02  0.94567E+04
 0.60103001E+02  0.10307E+05
 0.60153004E+02  0.11384E+05
 0.60203003E+02  0.11561E+05
 0.60253002E+02  0.11389E+05
 0.60303001E+02  0.11383E+05
 0.60353001E+02  0.12108E+05
 0.60403004E+02  0.14404E+05
 0.60453003E+02  0.16780E+05
 0.60503002E+02  0.16536E+05
 0.60553001E+02  0.14506E+05
 0.60603001E+02  0.12715E+05
 0.60653004E+02  0.12552E+05
 0.60703003E+02  0.13197E+05
 0.60753002E+02  0.13349E+05
 0.60803001E+02  0.12507E+05
 0.60853001E+02  0.10779E+05
 0.60903004E+02  0.89719E+04
 0.60953003E+02  0.73687E+04
 0.61003002E+02  0.74187E+04
 0.61053001E+02  0.85279E+04
 0.61103001E+02  0.95663E+04
 0.61153004E+02  0.10414E+05
 0.61203003E+02  0.10967E+05
 0.61253002E+02  0.12568E+05
 0.61303001E+02  0.13764E+05
 0.61353001E+02  0.12786E+05
 0.61403004E+02  0.10373E+05
 0.61453003E+02  0.92637E+04
 0.61503002E+02  0.10804E+05
 0.61553001E+02  0.13089E+05
 0.61603001E+02  0.14894E+05
 0.61653004E+02  0.15263E+05
 0.61703003E+02  0.14410E+05
 0.61753002E+02  0.13522E+05
 0.61803001E+02  0.12967E+05
 0.61853001E+02  0.11209E+05
 0.61903004E+02  0.84374E+04
 0.61953003E+02  0.64403E+04
 0.62003002E+02  0.64726E+04
 0.62053001E+02  0.81148E+04
 0.62103004E+02  0.79138E+04
 0.62153000E+02  0.64133E+04
 0.62203003E+02  0.72159E+04
 0.62252998E+02  0.10234E+05
 0.62303001E+02  0.13792E+05
 0.62353004E+02  0.17258E+05
 0.62403000E+02  0.19080E+05
 0.62453003E+02  0.17950E+05
 0.62502998E+02  0.15264E+05
 0.62553001E+02  0.12831E+05
 0.62603004E+02  0.11424E+05
 0.62653000E+02  0.10815E+05
 0.62703003E+02  0.10025E+05
 0.62752998E+02  0.98506E+04
 0.62803001E+02  0.10686E+05
 0.62853004E+02  0.11007E+05
 0.62903000E+02  0.10589E+05
 0.62953003E+02  0.10290E+05
 0.63002998E+02  0.10846E+05
 0.63053001E+02  0.11992E+05
 0.63103004E+02  0.12525E+05
 0.63153000E+02  0.13272E+05
 0.63203003E+02  0.13729E+05
 0.63252998E+02  0.13187E+05
 0.63303001E+02  0.12244E+05
 0.63353004E+02  0.11338E+05
 0.63403000E+02  0.10643E+05
 0.63453003E+02  0.86797E+04
 0.63502998E+02  0.69817E+04
 0.63553001E+02  0.63981E+04
 0.63603004E+02  0.78804E+04
 0.63653000E+02  0.10945E+05
 0.63703003E+02  0.12917E+05
 0.63752998E+02  0.14015E+05
 0.63803001E+02  0.14250E+05
 0.63853004E+02  0.14810E+05
 0.63903000E+02  0.14913E+05
 0.63953003E+02  0.13513E+05
 0.64002998E+02  0.11191E+05
 0.64053001E+02  0.86129E+04
 0.64103004E+02  0.84205E+04
 0.64153000E+02  0.11453E+05
 0.64203003E+02  0.15128E+05
 0.64252998E+02  0.16455E+05
 0.64303001E+02  0.16003E+05
 0.64353004E+02  0.14606E+05
 0.64403000E+02  0.12817E+05
 0.64453003E+02  0.12480E+05
 0.64502998E+02  0.12297E+05
 0.64553001E+02  0.10450E+05
 0.64603004E+02  0.84480E+04
 0.64653000E+02  0.83543E+04
 0.64703003E+02  0.91475E+04
 0.64752998E+02  0.96861E+04
 0.64803001E+02  0.96460E+04
 0.64853004E+02  0.95295E+04
 0.64903000E+02  0.10459E+05
 0.64953003E+02  0.11368E+05
 0.65002998E+02  0.11551E+05
 0.65053001E+02  0.10499E+05
 0.65103004E+02  0.97619E+04
 0.65153000E+02  0.10405E+05
 0.65203003E+02  0.10701E+05
 0.65252998E+02  0.10020E+05
 0.65303001E+02  0.98042E+04
 0.65353004E+02  0.10808E+05
 0.65403000E+02  0.11302E+05
 0.65453003E+02  0.11218E+05
 0.65502998E+02  0.11399E+05
 0.65553001E+02  0.12333E+05
 0.65603004E+02  0.13316E+05
 0.65653000E+02  0.13330E+05
 0.65703003E+02  0.12202E+05
 0.65752998E+02  0.10652E+05
 0.65803001E+02  0.10338E+05
 0.65853004E+02  0.11585E+05
 0.65903000E+02  0.13856E+05
 0.65953003E+02  0.15595E+05
 0.66002998E+02  0.15707E+05
 0.66053001E+02  0.15219E+05
 0.66103004E+02  0.15176E+05
 0.66153000E+02  0.15062E+05
 0.66203003E+02  0.13588E+05
 0.66252998E+02  0.11724E+05
 0.66303001E+02  0.10694E+05
 0.66353004E+02  0.97148E+04
 0.66403000E+02  0.85107E+04
 0.66453003E+02  0.82580E+04
 0.66502998E+02  0.85780E+04
 0.66553001E+02  0.81626E+04
 0.66603004E+02  0.74520E+04
 0.66653000E+02  0.72962E+04
 0.66703003E+02  0.86204E+04
 0.66752998E+02  0.10329E+05
 0.66803001E+02  0.10780E+05
 0.66853004E+02  0.10290E+05
 0.66903000E+02  0.10658E+05
 0.66953003E+02  0.12257E+05
 0.67002998E+02  0.13963E+05
 0.67053001E+02  0.15789E+05
 0.67103004E+02  0.16726E+05
 0.67153000E+02  0.16324E+05
 0.67203003E+02  0.15492E+05
 0.67252998E+02  0.14975E+05
 0.67303001E+02  0.14404E+05
 0.67353004E+02  0.13529E+05
 0.67403000E+02  0.12553E+05
 0.67453003E+02  0.11223E+05
 0.67502998E+02  0.10116E+05
 0.67553001E+02  0.99062E+04
 0.67603004E+02  0.10682E+05
 0.67653000E+02  0.11180E+05
 0.67703003E+02  0.10764E+05
 0.67752998E+02  0.10094E+05
 0.67803001E+02  0.97911E+04
 0.67853004E+02  0.10162E+05
 0.67903000E+02  0.10620E+05
 0.67953003E+02  0.10504E+05
 0.68002998E+02  0.10246E+05
 0.68053001E+02  0.10030E+05
 0.68103004E+02  0.94930E+04
 0.68153000E+02  0.90004E+04
 0.68203003E+02  0.93721E+04
 0.68252998E+02  0.10470E+05
 0.68303001E+02  0.11379E+05
 0.68353004E+02  0.12225E+05
 0.68403000E+02  0.13066E+05
 0.68453003E+02  0.13081E+05
 0.68502998E+02  0.12517E+05
 0.68553001E+02  0.12164E+05
 0.68603004E+02  0.11890E+05
 0.68653000E+02  0.11546E+05
 0.68703003E+02  0.11090E+05
 0.68752998E+02  0.10697E+05
 0.68803001E+02  0.10660E+05
 0.68853004E+02  0.11254E+05
 0.68903000E+02  0.11658E+05
 0.68953003E+02  0.11950E+05
 0.69002998E+02  0.12762E+05
 0.69053001E+02  0.13418E+05
 0.69103004E+02  0.13213E+05
 0.69153000E+02  0.11916E+05
 0.69203003E+02  0.11230E+05
 0.69252998E+02  0.11055E+05
 0.69303001E+02  0.98147E+04
 0.69353004E+02  0.78317E+04
 0.69403000E+02  0.64051E+04
 0.69453003E+02  0.60840E+04
 0.69502998E+02  0.69826E+04
 0.69553001E+02  0.85531E+04
 0.69603004E+02  0.94983E+04
 0.69653000E+02  0.99666E+04
 0.69703003E+02  0.10454E+05
 0.69752998E+02  0.11525E+05
 0.69803001E+02  0.12862E+05
 0.69853004E+02  0.14129E+05
 0.69903000E+02  0.15329E+05
 0.69953003E+02  0.15684E+05
 0.70002998E+02  0.15408E+05
 0.70053001E+02  0.15074E+05
 0.70103004E+02  0.15106E+05
 0.70153000E+02  0.15074E+05
 0.70203003E+02  0.14748E+05
 0.70252998E+02  0.14578E+05
 0.70303001E+02  0.14194E+05
 0.70353004E+02  0.13692E+05
 0.70403000E+02  0.12543E+05
 0.70453003E+02  0.11232E+05
 0.70502998E+02  0.10825E+05
 0.70553001E+02  0.11058E+05
 0.70603004E+02  0.12012E+05
 0.70653000E+02  0.12887E+05
 0.70703003E+02  0.13151E+05
 0.70752998E+02  0.12644E+05
 0.70803001E+02  0.11380E+05
 0.70853004E+02  0.96128E+04
 0.70903000E+02  0.73136E+04
 0.70953003E+02  0.59714E+04
 0.71002998E+02  0.65499E+04
 0.71053001E+02  0.80436E+04
 0.71103004E+02  0.91751E+04
 0.71153000E+02  0.93730E+04
 0.71203003E+02  0.95811E+04
 0.71252998E+02  0.10490E+05
 0.71303001E+02  0.11531E+05
 0.71353004E+02  0.12019E+05
 0.71403000E+02  0.12227E+05
 0.71453003E+02  0.12766E+05
 0.71502998E+02  0.13845E+05
 0.71553001E+02  0.15430E+05
 0.71603004E+02  0.16597E+05
 0.71653000E+02  0.16992E+05
 0.71703003E+02  0.16794E+05
 0.71752998E+02  0.16092E+05
 0.71803001E+02  0.15411E+05
 0.71853004E+02  0.15046E+05
 0.71903000E+02  0.14231E+05
 0.71953003E+02  0.12337E+05
 0.72002998E+02  0.10025E+05
 0.72053001E+02  0.81383E+04
 0.72103004E+02  0.70849E+04
 0.72153000E+02  0.67749E+04
 0.72203003E+02  0.67048E+04
 0.72252998E+02  0.65236E+04
 0.72303001E+02  0.66763E+04
 0.72353004E+02  0.78425E+04
 0.72403000E+02  0.98450E+04
 0.72453003E+02  0.11255E+05
 0.72502998E+02  0.11550E+05
 0.72553001E+02  0.11215E+05
 0.72603004E+02  0.10848E+05
 0.72653000E+02  0.11155E+05
 0.72703003E+02  0.11793E+05
 0.72752998E+02  0.12373E+05
 0.72803001E+02  0.12537E+05
 0.72853004E+02  0.12408E+05
 0.72903000E+02  0.12137E+05
 0.72953003E+02  0.11734E+05
 0.73002998E+02  0.11580E+05
 0.73053001E+02  0.12005E+05
 0.73103004E+02  0.13075E+05
 0.73153000E+02  0.14093E+05
 0.73203003E+02  0.14817E+05
 0.73252998E+02  0.14996E+05
 0.73303001E+02  0.14650E+05
 0.73353004E+02  0.14143E+05
 0.73403000E+02  0.13260E+05
 0.73453003E+02  0.11797E+05
 0.73502998E+02  0.10371E+05
 0.73553001E+02  0.98877E+04
 0.73603004E+02  0.10390E+05
 0.73653000E+02  0.11445E+05
 0.73703003E+02  0.12430E+05
 0.73752998E+02  0.13248E+05
 0.73803001E+02  0.13644E+05
 0.73853004E+02  0.13469E+05
 0.73903000E+02  0.12891E+05
 0.73953003E+02  0.11900E+05
 0.74002998E+02  0.11101E+05
 0.74053001E+02  0.10505E+05
 0.74103004E+02  0.98420E+04
 0.74153000E+02  0.93669E+04
 0.74203003E+02  0.89814E+04
 0.74252998E+02  0.86928E+04
 0.74303001E+02  0.84202E+04
 0.74353004E+02  0.82060E+04
 0.74403000E+02  0.85589E+04
 0.74453003E+02  0.90269E+04
 0.74502998E+02  0.92651E+04
 0.74553001E+02  0.95235E+04
 0.74603004E+02  0.98973E+04
 0.74653000E+02  0.10429E+05
 0.74703003E+02  0.11027E+05
 0.74752998E+02  0.11551E+05
 0.74803001E+02  0.12285E+05
 0.74853004E+02  0.13711E+05
 0.74903000E+02  0.15043E+05
 0.74953003E+02  0.15490E+05
 0.75002998E+02  0.14800E+05
 0.75053001E+02  0.13618E+05
 0.75103004E+02  0.12852E+05
 0.75153000E+02  0.12415E+05
 0.75203003E+02  0.12058E+05
 0.75252998E+02  0.11536E+05
 0.75303001E+02  0.11152E+05
 0.75353004E+02  0.10906E+05
 0.75403000E+02  0.10467E+05
 0.75453003E+02  0.99287E+04
 0.75502998E+02  0.93722E+04
 0.75553001E+02  0.88601E+04
 0.75603004E+02  0.87328E+04
 0.75653000E+02  0.93510E+04
 0.75703003E+02  0.10412E+05
 0.75752998E+02  0.11638E+05
 0.75803001E+02  0.12496E+05
 0.75853004E+02  0.12442E+05
 0.75903000E+02  0.11978E+05
 0.75953003E+02  0.11609E+05
 0.76002998E+02  0.11535E+05
 0.76053001E+02  0.11883E+05
 0.76103004E+02  0.12364E+05
 0.76153000E+02  0.12688E+05
 0.76203003E+02  0.13026E+05
 0.76252998E+02  0.13269E+05
 0.76303001E+02  0.13284E+05
 0.76353004E+02  0.12849E+05
 0.76403000E+02  0.12136E+05
 0.76453003E+02  0.11665E+05
 0.76502998E+02  0.11229E+05
 0.76553001E+02  0.10832E+05
 0.76603004E+02  0.10816E+05
 0.76653000E+02  0.11252E+05
 0.76703003E+02  0.11894E+05
 0.76752998E+02  0.12305E+05
 0.76803001E+02  0.12424E+05
 0.76853004E+02  0.12353E+05
 0.76903000E+02  0.12257E+05
 0.76953003E+02  0.11959E+05
 0.77002998E+02  0.11284E+05
 0.77053001E+02  0.10508E+05
 0.77103004E+02  0.95665E+04
 0.77153000E+02  0.88630E+04
 0.77203003E+02  0.85521E+04
 0.77252998E+02  0.88223E+04
 0.77303001E+02  0.98321E+04
 0.77353004E+02  0.11158E+05
 0.77403000E+02  0.12435E+05
 0.77453003E+02  0.13416E+05
 0.77502998E+02  0.14051E+05
 0.77553001E+02  0.14260E+05
 0.77603004E+02  0.14216E+05
 0.77653000E+02  0.13844E+05
 0.77703003E+02  0.13147E+05
 0.77752998E+02  0.12453E+05
 0.77803001E+02  0.12058E+05
 0.77853004E+02  0.11990E+05
 0.77903000E+02  0.11989E+05
 0.77953003E+02  0.12040E+05
 0.78002998E+02  0.11898E+05
 0.78053001E+02  0.11141E+05
 0.78103004E+02  0.10081E+05
 0.78153000E+02  0.92446E+04
 0.78203003E+02  0.88406E+04
 0.78252998E+02  0.91578E+04
 0.78303001E+02  0.98625E+04
 0.78353004E+02  0.10334E+05
 0.78403000E+02  0.10505E+05
 0.78453003E+02  0.10244E+05
 0.78502998E+02  0.97413E+04
 0.78553001E+02  0.95468E+04
 0.78603004E+02  0.99460E+04
 0.78653000E+02  0.10791E+05
 0.78703003E+02  0.11971E+05
 0.78752998E+02  0.13502E+05
 0.78803001E+02  0.14833E+05
 0.78853004E+02  0.15586E+05
 0.78903000E+02  0.15665E+05
 0.78953003E+02  0.15146E+05
 0.79002998E+02  0.14143E+05
 0.79053001E+02  0.12708E+05
 0.79103004E+02  0.11322E+05
 0.79153000E+02  0.10193E+05
 0.79203003E+02  0.92877E+04
 0.79252998E+02  0.87544E+04
 0.79303001E+02  0.86279E+04
 0.79353004E+02  0.89713E+04
 0.79403000E+02  0.99833E+04
 0.79453003E+02  0.11423E+05
 0.79502998E+02  0.12912E+05
 0.79553001E+02  0.14130E+05
 0.79603004E+02  0.14730E+05
 0.79653000E+02  0.14728E+05
 0.79703003E+02  0.14249E+05
 0.79752998E+02  0.13612E+05
 0.79803001E+02  0.13229E+05
 0.79853004E+02  0.12927E+05
 0.79903000E+02  0.12277E+05
 0.79953003E+02  0.11533E+05
 0.80002998E+02  0.11180E+05
 0.80053001E+02  0.10963E+05
 0.80103004E+02  0.10680E+05
 0.80153000E+02  0.10529E+05
 0.80203003E+02  0.10547E+05
 0.80252998E+02  0.10740E+05
 0.80303001E+02  0.11004E+05
 0.80353004E+02  0.11181E+05
 0.80403000E+02  0.11367E+05
 0.80453003E+02  0.11708E+05
 0.80502998E+02  0.11855E+05
 0.80553001E+02  0.11512E+05
 0.80603004E+02  0.10809E+05
 0.80653000E+02  0.10192E+05
 0.80703003E+02  0.98618E+04
 0.80752998E+02  0.96166E+04
 0.80803001E+02  0.94870E+04
 0.80853004E+02  0.96348E+04
 0.80903000E+02  0.10102E+05
 0.80953003E+02  0.10561E+05
 0.81002998E+02  0.10703E+05
 0.81053001E+02  0.10645E+05
 0.81103004E+02  0.10633E+05
 0.81153000E+02  0.10634E+05
 0.81203003E+02  0.10630E+05
 0.81252998E+02  0.10830E+05
 0.81303001E+02  0.11338E+05
 0.81353004E+02  0.11981E+05
 0.81403000E+02  0.12470E+05
 0.81453003E+02  0.12688E+05
 0.81502998E+02  0.12655E+05
 0.81553001E+02  0.12508E+05
 0.81603004E+02  0.12618E+05
 0.81653000E+02  0.13133E+05
 0.81703003E+02  0.13762E+05
 0.81752998E+02  0.14303E+05
 0.81803001E+02  0.14491E+05
 0.81853004E+02  0.14182E+05
 0.81903000E+02  0.13651E+05
 0.81953003E+02  0.12977E+05
 0.82002998E+02  0.11976E+05
 0.82053001E+02  0.10600E+05
 0.82103004E+02  0.89995E+04
 0.82153000E+02  0.76688E+04
 0.82203003E+02  0.70445E+04
 0.82252998E+02  0.70700E+04
 0.82303001E+02  0.77338E+04
 0.82353004E+02  0.87242E+04
 0.82403000E+02  0.97053E+04
 0.82453003E+02  0.10698E+05
 0.82502998E+02  0.11608E+05
 0.82553001E+02  0.12479E+05
 0.82603004E+02  0.13156E+05
 0.82653000E+02  0.13260E+05
 0.82703003E+02  0.12799E+05
 0.82752998E+02  0.12158E+05
 0.82803001E+02  0.11631E+05
 0.82853004E+02  0.11173E+05
 0.82903000E+02  0.10714E+05
 0.82953003E+02  0.10364E+05
 0.83002998E+02  0.10235E+05
 0.83053001E+02  0.10341E+05
 0.83103004E+02  0.10894E+05
 0.83153000E+02  0.11955E+05
 0.83203003E+02  0.13055E+05
 0.83252998E+02  0.13779E+05
 0.83303001E+02  0.14111E+05
 0.83353004E+02  0.14141E+05
 0.83403000E+02  0.13933E+05
 0.83453003E+02  0.13513E+05
 0.83502998E+02  0.13019E+05
 0.83553001E+02  0.12738E+05
 0.83603004E+02  0.12715E+05
 0.83653000E+02  0.12626E+05
 0.83703003E+02  0.12237E+05
 0.83752998E+02  0.11620E+05
 0.83803001E+02  0.10947E+05
 0.83853004E+02  0.10491E+05
 0.83903000E+02  0.10168E+05
 0.83953003E+02  0.98378E+04
 0.84002998E+02  0.96231E+04
 0.84053001E+02  0.94874E+04
 0.84103004E+02  0.93436E+04
 0.84153000E+02  0.90947E+04
 0.84203003E+02  0.88391E+04
 0.84252998E+02  0.89147E+04
 0.84303001E+02  0.94667E+04
 0.84353004E+02  0.10398E+05
 0.84403000E+02  0.11687E+05
 0.84453003E+02  0.13207E+05
 0.84502998E+02  0.14535E+05
 0.84553001E+02  0.15256E+05
 0.84603004E+02  0.15298E+05
 0.84653000E+02  0.14987E+05
 0.84703003E+02  0.14556E+05
 0.84752998E+02  0.13828E+05
 0.84803001E+02  0.12883E+05
 0.84853004E+02  0.12234E+05
 0.84903000E+02  0.11960E+05
 0.84953003E+02  0.11905E+05
 0.85002998E+02  0.11916E+05
 0.85053001E+02  0.11833E+05
 0.85103004E+02  0.11553E+05
 0.85153000E+02  0.11090E+05
 0.85203003E+02  0.10774E+05
 0.85252998E+02  0.10805E+05
 0.85303001E+02  0.11083E+05
 0.85353004E+02  0.11348E+05
 0.85403000E+02  0.11310E+05
 0.85453003E+02  0.10929E+05
 0.85502998E+02  0.10345E+05
 0.85553001E+02  0.96316E+04
 0.85603004E+02  0.88931E+04
 0.85653000E+02  0.84141E+04
 0.85703003E+02  0.85941E+04
 0.85752998E+02  0.93739E+04
 0.85803001E+02  0.10469E+05
 0.85853004E+02  0.11458E+05
 0.85903000E+02  0.11996E+05
 0.85953003E+02  0.12190E+05
 0.86002998E+02  0.12149E+05
 0.86053001E+02  0.12004E+05
 0.86103004E+02  0.11832E+05
 0.86153000E+02  0.11769E+05
 0.86203003E+02  0.11861E+05
 0.86252998E+02  0.12084E+05
 0.86303001E+02  0.12448E+05
 0.86353004E+02  0.12849E+05
 0.86403000E+02  0.13141E+05
 0.86453003E+02  0.13194E+05
 0.86502998E+02  0.13131E+05
 0.86553001E+02  0.13039E+05
 0.86603004E+02  0.12879E+05
 0.86653000E+02  0.12606E+05
 0.86703003E+02  0.12240E+05
 0.86752998E+02  0.12077E+05
 0.86803001E+02  0.12243E+05
 0.86853004E+02  0.12450E+05
 0.86903000E+02  0.12384E+05
 0.86953003E+02  0.11914E+05
 0.87002998E+02  0.11200E+05
 0.87053001E+02  0.10631E+05
 0.87103004E+02  0.10254E+05
 0.87153000E+02  0.99282E+04
 0.87203003E+02  0.97671E+04
 0.87252998E+02  0.99099E+04
 0.87303001E+02  0.10221E+05
 0.87353004E+02  0.10450E+05
 0.87403000E+02  0.10532E+05
 0.87453003E+02  0.10579E+05
 0.87502998E+02  0.10784E+05
 0.87553001E+02  0.11211E+05
 0.87602997E+02  0.11887E+05
 0.87653000E+02  0.12717E+05
 0.87703003E+02  0.13309E+05
 0.87752998E+02  0.13397E+05
 0.87803001E+02  0.13046E+05
 0.87852997E+02  0.12477E+05
 0.87903000E+02  0.11963E+05
 0.87953003E+02  0.11653E+05
 0.88002998E+02  0.11597E+05
 0.88053001E+02  0.11768E+05
 0.88102997E+02  0.11872E+05
 0.88153000E+02  0.11680E+05
 0.88203003E+02  0.11220E+05
 0.88252998E+02  0.10646E+05
 0.88303001E+02  0.10081E+05
 0.88352997E+02  0.94701E+04
 0.88403000E+02  0.88310E+04
 0.88453003E+02  0.82517E+04
 0.88502998E+02  0.80181E+04
 0.88553001E+02  0.81765E+04
 0.88602997E+02  0.86183E+04
 0.88653000E+02  0.94380E+04
 0.88703003E+02  0.10508E+05
 0.88752998E+02  0.11512E+05
 0.88803001E+02  0.12177E+05
 0.88852997E+02  0.12590E+05
 0.88903000E+02  0.12880E+05
 0.88953003E+02  0.13137E+05
 0.89002998E+02  0.13323E+05
 0.89053001E+02  0.13353E+05
 0.89102997E+02  0.13215E+05
 0.89153000E+02  0.12965E+05
 0.89203003E+02  0.12765E+05
 0.89252998E+02  0.12508E+05
 0.89303001E+02  0.12100E+05
 0.89352997E+02  0.11595E+05
 0.89403000E+02  0.11195E+05
 0.89453003E+02  0.11042E+05
 0.89502998E+02  0.11024E+05
 0.89553001E+02  0.11110E+05
 0.89602997E+02  0.11404E+05
 0.89653000E+02  0.11934E+05
 0.89703003E+02  0.12554E+05
 0.89752998E+02  0.13037E+05
 0.89803001E+02  0.13282E+05
 0.89852997E+02  0.13339E+05
 0.89903000E+02  0.13213E+05
 0.89953003E+02  0.12948E+05
 0.90002998E+02  0.12677E+05
 0.90053001E+02  0.12543E+05
 0.90102997E+02  0.12557E+05
 0.90153000E+02  0.12590E+05
 0.90203003E+02  0.12511E+05
 0.90252998E+02  0.12300E+05
 0.90303001E+02  0.12062E+05
 0.90352997E+02  0.11863E+05
 0.90403000E+02  0.11788E+05
 0.90453003E+02  0.11842E+05
 0.90502998E+02  0.11927E+05
 0.90553001E+02  0.11900E+05
 0.90602997E+02  0.11743E+05
 0.90653000E+02  0.11510E+05
 0.90703003E+02  0.11075E+05
 0.90752998E+02  0.10358E+05
 0.90803001E+02  0.94907E+04
 0.90852997E+02  0.87037E+04
 0.90903000E+02  0.82410E+04
 0.90953003E+02  0.83245E+04
 0.91002998E+02  0.89236E+04
 0.91053001E+02  0.98444E+04
 0.91102997E+02  0.10814E+05
 0.91153000E+02  0.11571E+05
 0.91203003E+02  0.12033E+05
 0.91252998E+02  0.12230E+05
 0.91303001E+02  0.12344E+05
 0.91352997E+02  0.12374E+05
 0.91403000E+02  0.12258E+05
 0.91453003E+02  0.12112E+05
 0.91502998E+02  0.12029E+05
 0.91553001E+02  0.12017E+05
 0.91602997E+02  0.11921E+05
 0.91653000E+02  0.11693E+05
 0.91703003E+02  0.11475E+05
 0.91752998E+02  0.11400E+05
 0.91803001E+02  0.11543E+05
 0.91852997E+02  0.11770E+05
 0.91903000E+02  0.11918E+05
 0.91953003E+02  0.12012E+05
 0.92002998E+02  0.12068E+05
 0.92053001E+02  0.12118E+05
 0.92102997E+02  0.12111E+05
 0.92153000E+02  0.12015E+05
 0.92203003E+02  0.11777E+05
 0.92252998E+02  0.11330E+05
 0.92303001E+02  0.10900E+05
 0.92352997E+02  0.10700E+05
 0.92403000E+02  0.10789E+05
 0.92453003E+02  0.10996E+05
 0.92502998E+02  0.10924E+05
 0.92553001E+02  0.10601E+05
 0.92602997E+02  0.10385E+05
 0.92653000E+02  0.10386E+05
 0.92703003E+02  0.10652E+05
 0.92752998E+02  0.11161E+05
 0.92803001E+02  0.11693E+05
 0.92852997E+02  0.12004E+05
 0.92903000E+02  0.12042E+05
 0.92953003E+02  0.11941E+05
 0.93002998E+02  0.11878E+05
 0.93053001E+02  0.11991E+05
 0.93102997E+02  0.12183E+05
 0.93153000E+02  0.12381E+05
 0.93203003E+02  0.12601E+05
 0.93252998E+02  0.12720E+05
 0.93303001E+02  0.12549E+05
 0.93352997E+02  0.12001E+05
 0.93403000E+02  0.11383E+05
 0.93453003E+02  0.11076E+05
 0.93502998E+02  0.11135E+05
 0.93553001E+02  0.11396E+05
 0.93602997E+02  0.11696E+05
 0.93653000E+02  0.11875E+05
 0.93703003E+02  0.11841E+05
 0.93752998E+02  0.11749E+05
 0.93803001E+02  0.11778E+05
 0.93852997E+02  0.11965E+05
 0.93903000E+02  0.12256E+05
 0.93953003E+02  0.12600E+05
 0.94002998E+02  0.12936E+05
 0.94053001E+02  0.13202E+05
 0.94102997E+02  0.13311E+05
 0.94153000E+02  0.13048E+05
 0.94203003E+02  0.12354E+05
 0.94252998E+02  0.11414E+05
 0.94303001E+02  0.10522E+05
 0.94352997E+02  0.98023E+04
 0.94403000E+02  0.92168E+04
 0.94453003E+02  0.87318E+04
 0.94502998E+02  0.83409E+04
 0.94553001E+02  0.81777E+04
 0.94602997E+02  0.82821E+04
 0.94653000E+02  0.85600E+04
 0.94703003E+02  0.89917E+04
 0.94752998E+02  0.95190E+04
 0.94803001E+02  0.10100E+05
 0.94852997E+02  0.10760E+05
 0.94903000E+02  0.11449E+05
 0.94953003E+02  0.12110E+05
 0.95002998E+02  0.12650E+05
 0.95053001E+02  0.13045E+05
 0.95102997E+02  0.13405E+05
 0.95153000E+02  0.13812E+05
 0.95203003E+02  0.14234E+05
 0.95252998E+02  0.14539E+05
 0.95303001E+02  0.14655E+05
 0.95352997E+02  0.14581E+05
 0.95403000E+02  0.14358E+05
 0.95453003E+02  0.14056E+05
 0.95502998E+02  0.13607E+05
 0.95553001E+02  0.13001E+05
 0.95602997E+02  0.12333E+05
 0.95653000E+02  0.11703E+05
 0.95703003E+02  0.11274E+05
 0.95752998E+02  0.11076E+05
 0.95803001E+02  0.10940E+05
 0.95852997E+02  0.10718E+05
 0.95903000E+02  0.10535E+05
 0.95953003E+02  0.10537E+05
 0.96002998E+02  0.10585E+05
 0.96053001E+02  0.10488E+05
 0.96102997E+02  0.10214E+05
 0.96153000E+02  0.99459E+04
 0.96203003E+02  0.98132E+04
 0.96252998E+02  0.97841E+04
 0.96303001E+02  0.98154E+04
 0.96352997E+02  0.98607E+04
 0.96403000E+02  0.99799E+04
 0.96453003E+02  0.10307E+05
 0.96502998E+02  0.10836E+05
 0.96553001E+02  0.11349E+05
 0.96602997E+02  0.11668E+05
 0.96653000E+02  0.11744E+05
 0.96703003E+02  0.11693E+05
 0.96752998E+02  0.11689E+05
 0.96803001E+02  0.11805E+05
 0.96852997E+02  0.12060E+05
 0.96903000E+02  0.12370E+05
 0.96953003E+02  0.12591E+05
 0.97002998E+02  0.12548E+05
 0.97053001E+02  0.12257E+05
 0.97102997E+02  0.11951E+05
 0.97153000E+02  0.11775E+05
 0.97203003E+02  0.11721E+05
 0.97252998E+02  0.11756E+05
 0.97303001E+02  0.11918E+05
 0.97352997E+02  0.12239E+05
 0.97403000E+02  0.12574E+05
 0.97453003E+02  0.12644E+05
 0.97502998E+02  0.12369E+05
 0.97553001E+02  0.11900E+05
 0.97602997E+02  0.11489E+05
 0.97653000E+02  0.11322E+05
 0.97703003E+02  0.11341E+05
 0.97752998E+02  0.11350E+05
 0.97803001E+02  0.11182E+05
 0.97852997E+02  0.10874E+05
 0.97903000E+02  0.10618E+05
 0.97953003E+02  0.10559E+05
 0.98002998E+02  0.10660E+05
