-0.20000000E+01 -0.26508E+04
-0.19500000E+01 -0.18543E+04
-0.19000000E+01 -0.90313E+03
-0.18500000E+01 -0.41640E+03
-0.18000000E+01 -0.17085E+03
-0.17500000E+01  0.58240E+02
-0.17000000E+01  0.95699E+02
-0.16500001E+01 -0.84205E+02
-0.16000000E+01 -0.54712E+03
-0.15500000E+01 -0.11862E+04
-0.15000000E+01 -0.14559E+04
-0.14500000E+01 -0.16410E+04
-0.14000001E+01 -0.19900E+04
-0.13500000E+01 -0.20129E+04
-0.13000001E+01 -0.16326E+04
-0.12500000E+01 -0.12663E+04
-0.12000000E+01 -0.10969E+04
-0.11500001E+01 -0.90861E+03
-0.11000000E+01 -0.60513E+03
-0.10500001E+01  0.69186E+02
-0.10000000E+01  0.10510E+04
-0.95000005E+00  0.20041E+04
-0.90000010E+00  0.25582E+04
-0.85000002E+00  0.29268E+04
-0.80000007E+00  0.33222E+04
-0.75000012E+00  0.32352E+04
-0.70000005E+00  0.27931E+04
-0.65000010E+00  0.24569E+04
-0.60000014E+00  0.18661E+04
-0.55000007E+00  0.11736E+04
-0.50000012E+00  0.41951E+03
-0.45000005E+00 -0.53821E+03
-0.40000010E+00 -0.13943E+04
-0.35000014E+00 -0.21927E+04
-0.30000007E+00 -0.29761E+04
-0.25000012E+00 -0.35790E+04
-0.20000005E+00 -0.38651E+04
-0.15000010E+00 -0.37154E+04
-0.10000014E+00 -0.32753E+04
-0.50000072E-01 -0.29603E+04
-0.11920929E-06 -0.27950E+04
 0.49999952E-01 -0.26005E+04
 0.99999905E-01 -0.21872E+04
 0.14999986E+00 -0.16370E+04
 0.19999981E+00 -0.99948E+03
 0.24999976E+00 -0.44520E+03
 0.29999995E+00  0.25243E+03
 0.34999990E+00  0.12578E+04
 0.39999986E+00  0.21671E+04
 0.44999981E+00  0.31428E+04
 0.49999976E+00  0.45443E+04
 0.54999995E+00  0.65623E+04
 0.59999990E+00  0.90238E+04
 0.64999986E+00  0.11477E+05
 0.69999981E+00  0.13832E+05
 0.74999976E+00  0.16164E+05
 0.79999971E+00  0.18048E+05
 0.84999990E+00  0.19010E+05
 0.89999986E+00  0.19227E+05
 0.94999981E+00  0.19135E+05
 0.99999976E+00  0.18846E+05
 0.10499997E+01  0.18169E+05
 0.10999999E+01  0.17194E+05
 0.11499999E+01  0.15856E+05
 0.11999998E+01  0.14063E+05
 0.12499998E+01  0.12191E+05
 0.12999997E+01  0.10238E+05
 0.13499999E+01  0.79701E+04
 0.13999999E+01  0.54011E+04
 0.14499998E+01  0.31208E+04
 0.14999998E+01  0.11616E+04
 0.15499997E+01 -0.87805E+03
 0.15999999E+01 -0.27793E+04
 0.16499999E+01 -0.44395E+04
 0.16999998E+01 -0.58382E+04
 0.17499998E+01 -0.72706E+04
 0.17999997E+01 -0.84622E+04
 0.18499997E+01 -0.94503E+04
 0.18999999E+01 -0.10613E+05
 0.19499998E+01 -0.11307E+05
 0.19999998E+01 -0.11401E+05
 0.20499997E+01 -0.11005E+05
 0.20999999E+01 -0.10207E+05
 0.21499996E+01 -0.88242E+04
 0.21999998E+01 -0.70737E+04
 0.22499995E+01 -0.55603E+04
 0.22999997E+01 -0.40499E+04
 0.23499999E+01 -0.26419E+04
 0.23999996E+01 -0.16978E+04
 0.24499998E+01 -0.77244E+03
 0.24999995E+01  0.29554E+03
 0.25499997E+01  0.12592E+04
 0.25999999E+01  0.23100E+04
 0.26499996E+01  0.33377E+04
 0.26999998E+01  0.42679E+04
 0.27499995E+01  0.48529E+04
 0.27999997E+01  0.51237E+04
 0.28499999E+01  0.54787E+04
 0.28999996E+01  0.60953E+04
 0.29499998E+01  0.72112E+04
 0.29999995E+01  0.81702E+04
 0.30499997E+01  0.85610E+04
 0.30999999E+01  0.86749E+04
 0.31499996E+01  0.85479E+04
 0.31999998E+01  0.81432E+04
 0.32499995E+01  0.74602E+04
 0.32999997E+01  0.67625E+04
 0.33499999E+01  0.58220E+04
 0.33999996E+01  0.44303E+04
 0.34499998E+01  0.29326E+04
 0.34999995E+01  0.14003E+04
 0.35499997E+01 -0.19798E+03
 0.35999994E+01 -0.13492E+04
 0.36499996E+01 -0.17907E+04
 0.36999998E+01 -0.18530E+04
 0.37499995E+01 -0.15536E+04
 0.37999997E+01 -0.10454E+04
 0.38499994E+01 -0.39454E+03
 0.38999996E+01  0.49008E+03
 0.39499998E+01  0.17848E+04
 0.39999995E+01  0.31337E+04
 0.40499997E+01  0.38569E+04
 0.40999994E+01  0.45407E+04
 0.41499996E+01  0.53127E+04
 0.41999998E+01  0.58551E+04
 0.42499995E+01  0.61120E+04
 0.42999997E+01  0.60450E+04
 0.43499994E+01  0.58199E+04
 0.43999996E+01  0.53746E+04
 0.44499998E+01  0.46550E+04
 0.44999995E+01  0.39249E+04
 0.45499997E+01  0.34382E+04
 0.45999994E+01  0.32925E+04
 0.46499996E+01  0.32330E+04
 0.46999998E+01  0.32118E+04
 0.47499995E+01  0.35263E+04
 0.47999997E+01  0.38705E+04
 0.48499994E+01  0.41219E+04
 0.48999996E+01  0.43227E+04
 0.49499998E+01  0.44379E+04
 0.49999995E+01  0.43527E+04
 0.50499997E+01  0.41837E+04
 0.50999994E+01  0.38200E+04
 0.51499996E+01  0.32170E+04
 0.51999998E+01  0.26428E+04
 0.52499995E+01  0.21993E+04
 0.52999997E+01  0.17689E+04
 0.53499994E+01  0.12467E+04
 0.53999996E+01  0.96621E+03
 0.54499993E+01  0.58887E+03
 0.54999995E+01 -0.43364E+02
 0.55499997E+01 -0.77911E+03
 0.55999994E+01 -0.16278E+04
 0.56499996E+01 -0.27155E+04
 0.56999993E+01 -0.41764E+04
 0.57499995E+01 -0.57943E+04
 0.57999997E+01 -0.74080E+04
 0.58499994E+01 -0.89125E+04
 0.58999996E+01 -0.10472E+05
 0.59499993E+01 -0.11913E+05
 0.59999995E+01 -0.13366E+05
 0.60499992E+01 -0.15016E+05
 0.60999994E+01 -0.16510E+05
 0.61499996E+01 -0.17750E+05
 0.61999998E+01 -0.18901E+05
 0.62499990E+01 -0.20018E+05
 0.62999992E+01 -0.20921E+05
 0.63499994E+01 -0.21683E+05
 0.63999996E+01 -0.22362E+05
 0.64499998E+01 -0.23208E+05
 0.64999990E+01 -0.24118E+05
 0.65499992E+01 -0.24562E+05
 0.65999994E+01 -0.24521E+05
 0.66499996E+01 -0.24164E+05
 0.66999998E+01 -0.23360E+05
 0.67499990E+01 -0.22209E+05
 0.67999992E+01 -0.20977E+05
 0.68499994E+01 -0.19448E+05
 0.68999996E+01 -0.17691E+05
 0.69499998E+01 -0.15849E+05
 0.69999990E+01 -0.13908E+05
 0.70499992E+01 -0.11581E+05
 0.70999994E+01 -0.89484E+04
 0.71499996E+01 -0.65109E+04
 0.71999998E+01 -0.40831E+04
 0.72499990E+01 -0.16496E+04
 0.72999992E+01  0.68152E+03
 0.73499994E+01  0.31303E+04
 0.73999996E+01  0.57094E+04
 0.74499998E+01  0.80004E+04
 0.74999990E+01  0.10099E+05
 0.75499992E+01  0.12251E+05
 0.75999994E+01  0.14324E+05
 0.76499996E+01  0.16228E+05
 0.76999998E+01  0.17837E+05
 0.77499990E+01  0.19133E+05
 0.77999992E+01  0.20248E+05
 0.78499994E+01  0.21251E+05
 0.78999996E+01  0.21814E+05
 0.79499998E+01  0.21917E+05
 0.79999990E+01  0.21697E+05
 0.80499992E+01  0.21152E+05
 0.80999994E+01  0.20307E+05
 0.81499996E+01  0.19312E+05
 0.81999998E+01  0.18072E+05
 0.82499990E+01  0.16590E+05
 0.82999992E+01  0.15338E+05
 0.83499994E+01  0.14141E+05
 0.83999996E+01  0.12894E+05
 0.84499998E+01  0.11404E+05
 0.84999990E+01  0.96424E+04
 0.85499992E+01  0.81631E+04
 0.85999994E+01  0.68855E+04
 0.86499996E+01  0.55005E+04
 0.86999998E+01  0.41579E+04
 0.87499990E+01  0.29530E+04
 0.87999992E+01  0.17935E+04
 0.88499994E+01  0.63256E+03
 0.88999996E+01 -0.60238E+03
 0.89499998E+01 -0.18235E+04
 0.89999990E+01 -0.29220E+04
 0.90499992E+01 -0.38538E+04
 0.90999994E+01 -0.43523E+04
 0.91499996E+01 -0.44068E+04
 0.91999989E+01 -0.41549E+04
 0.92499990E+01 -0.36099E+04
 0.92999992E+01 -0.30225E+04
 0.93499994E+01 -0.24246E+04
 0.93999996E+01 -0.17723E+04
 0.94499989E+01 -0.73670E+03
 0.94999990E+01  0.74062E+03
 0.95499992E+01  0.24407E+04
 0.95999994E+01  0.42834E+04
 0.96499996E+01  0.61304E+04
 0.96999989E+01  0.78970E+04
 0.97499990E+01  0.92350E+04
 0.97999992E+01  0.10298E+05
 0.98499994E+01  0.11289E+05
 0.98999996E+01  0.12015E+05
 0.99499989E+01  0.12486E+05
 0.99999990E+01  0.12531E+05
 0.10049999E+02  0.12049E+05
 0.10099999E+02  0.11309E+05
 0.10150000E+02  0.10336E+05
 0.10199999E+02  0.88810E+04
 0.10249999E+02  0.69897E+04
 0.10299999E+02  0.51818E+04
 0.10349999E+02  0.34537E+04
 0.10400000E+02  0.15788E+04
 0.10449999E+02 -0.16138E+03
 0.10499999E+02 -0.16961E+04
 0.10549999E+02 -0.30057E+04
 0.10599999E+02 -0.40156E+04
 0.10650000E+02 -0.48257E+04
 0.10699999E+02 -0.54918E+04
 0.10749999E+02 -0.59895E+04
 0.10799999E+02 -0.60218E+04
 0.10849999E+02 -0.54586E+04
 0.10900000E+02 -0.48056E+04
 0.10949999E+02 -0.43693E+04
 0.10999999E+02 -0.37718E+04
 0.11049999E+02 -0.26757E+04
 0.11099999E+02 -0.12810E+04
 0.11150000E+02  0.22478E+03
 0.11199999E+02  0.15445E+04
 0.11249999E+02  0.26191E+04
 0.11299999E+02  0.34080E+04
 0.11349999E+02  0.39597E+04
 0.11400000E+02  0.43568E+04
 0.11449999E+02  0.43477E+04
 0.11499999E+02  0.40255E+04
 0.11549999E+02  0.36024E+04
 0.11599999E+02  0.31827E+04
 0.11650000E+02  0.25350E+04
 0.11699999E+02  0.16491E+04
 0.11749999E+02  0.77251E+03
 0.11799999E+02  0.44923E+02
 0.11849999E+02 -0.69939E+03
 0.11900000E+02 -0.16223E+04
 0.11949999E+02 -0.26483E+04
 0.11999999E+02 -0.37638E+04
 0.12049999E+02 -0.48081E+04
 0.12099999E+02 -0.59238E+04
 0.12150000E+02 -0.68298E+04
 0.12199999E+02 -0.72573E+04
 0.12249999E+02 -0.73348E+04
 0.12299999E+02 -0.73103E+04
 0.12349999E+02 -0.71544E+04
 0.12400000E+02 -0.69250E+04
 0.12449999E+02 -0.66466E+04
 0.12499999E+02 -0.63169E+04
 0.12549999E+02 -0.60867E+04
 0.12599999E+02 -0.58792E+04
 0.12649999E+02 -0.57638E+04
 0.12699999E+02 -0.54918E+04
 0.12749999E+02 -0.52044E+04
 0.12799999E+02 -0.49299E+04
 0.12849999E+02 -0.49915E+04
 0.12899999E+02 -0.48736E+04
 0.12949999E+02 -0.36601E+04
 0.12999999E+02  0.16789E+04
 0.13049999E+02  0.63581E+04
 0.13099999E+02  0.75073E+04
 0.13149999E+02  0.82891E+04
 0.13199999E+02  0.44145E+04
 0.13249999E+02  0.82307E+03
 0.13299999E+02  0.59604E+04
 0.13349999E+02  0.11989E+05
 0.13399999E+02  0.57693E+04
 0.13449999E+02  0.38788E+04
 0.13499999E+02  0.34816E+03
 0.13549999E+02 -0.58276E+04
 0.13599999E+02  0.22312E+04
 0.13649999E+02  0.14837E+05
 0.13699999E+02  0.27001E+05
 0.13749999E+02  0.30606E+05
 0.13799999E+02  0.27161E+05
 0.13849999E+02  0.29783E+05
 0.13899999E+02  0.25629E+05
 0.13949999E+02  0.85312E+04
 0.13999999E+02 -0.30909E+05
 0.14049999E+02 -0.26611E+05
 0.14099998E+02  0.10716E+06
 0.14150000E+02  0.15065E+06
 0.14199999E+02  0.11912E+06
 0.14249998E+02  0.14376E+06
 0.14299999E+02  0.72592E+05
 0.14349998E+02 -0.59379E+05
 0.14400000E+02 -0.12052E+06
 0.14449999E+02 -0.21625E+05
 0.14499998E+02  0.10473E+06
 0.14549999E+02  0.31905E+05
 0.14599998E+02 -0.14981E+06
 0.14650000E+02 -0.14703E+06
 0.14699999E+02 -0.96670E+05
 0.14749998E+02 -0.14615E+06
 0.14799999E+02 -0.10111E+06
 0.14849998E+02 -0.89981E+05
 0.14900000E+02 -0.13283E+06
 0.14949999E+02 -0.15370E+06
 0.14999998E+02 -0.20436E+06
 0.15049999E+02 -0.97901E+05
 0.15099998E+02  0.95427E+05
 0.15150000E+02  0.17971E+06
 0.15199999E+02  0.10665E+06
 0.15249998E+02 -0.33205E+05
 0.15299999E+02 -0.34413E+05
 0.15349998E+02 -0.54767E+05
 0.15400000E+02 -0.61393E+05
 0.15449999E+02 -0.53831E+05
 0.15499998E+02 -0.14920E+06
 0.15549999E+02 -0.13074E+06
 0.15599998E+02 -0.93987E+05
 0.15650000E+02 -0.11779E+06
 0.15699999E+02 -0.15450E+06
 0.15749998E+02 -0.18901E+06
 0.15799999E+02 -0.18667E+06
 0.15849998E+02 -0.17878E+06
 0.15900000E+02 -0.66715E+05
 0.15949999E+02 -0.17564E+05
 0.15999998E+02 -0.22619E+05
 0.16049999E+02  0.54989E+05
 0.16099998E+02  0.12804E+06
 0.16150000E+02  0.92342E+05
 0.16199999E+02 -0.35652E+04
 0.16249998E+02 -0.77104E+04
 0.16299999E+02 -0.32198E+05
 0.16349998E+02 -0.60636E+05
 0.16400000E+02 -0.84138E+05
 0.16449999E+02 -0.21628E+05
 0.16499998E+02  0.43286E+05
 0.16549999E+02 -0.57142E+05
 0.16599998E+02 -0.71144E+05
 0.16650000E+02  0.66655E+05
 0.16699999E+02  0.26198E+05
 0.16749998E+02 -0.10895E+06
 0.16799999E+02 -0.13068E+06
 0.16849998E+02 -0.14919E+06
 0.16900000E+02 -0.15748E+06
 0.16949999E+02 -0.11343E+06
 0.16999998E+02 -0.70762E+04
 0.17049999E+02 -0.93706E+05
 0.17099998E+02 -0.22284E+06
 0.17150000E+02 -0.18743E+06
 0.17199999E+02 -0.20100E+06
 0.17249998E+02 -0.19611E+06
 0.17299999E+02 -0.16664E+06
 0.17349998E+02 -0.21713E+06
 0.17400000E+02 -0.21174E+06
 0.17449999E+02 -0.20674E+06
 0.17499998E+02 -0.13962E+06
 0.17549999E+02 -0.11746E+06
 0.17599998E+02 -0.16622E+06
 0.17650000E+02 -0.15751E+05
 0.17699999E+02  0.16143E+05
 0.17749998E+02 -0.21163E+05
 0.17799999E+02  0.26946E+05
 0.17849998E+02  0.44095E+05
 0.17900000E+02  0.15463E+05
 0.17949999E+02  0.30354E+05
 0.17999998E+02  0.85526E+05
 0.18049999E+02  0.22141E+05
 0.18099998E+02  0.63607E+05
 0.18150000E+02  0.17034E+06
 0.18199999E+02  0.10633E+06
 0.18249998E+02  0.37019E+05
 0.18299999E+02  0.41824E+05
 0.18349998E+02  0.31589E+05
 0.18400000E+02 -0.11426E+05
 0.18449999E+02 -0.83827E+05
 0.18499998E+02 -0.72930E+05
 0.18549999E+02 -0.30621E+05
 0.18599998E+02 -0.19804E+06
 0.18650000E+02 -0.17782E+06
 0.18699999E+02 -0.81326E+05
 0.18749998E+02 -0.99519E+05
 0.18799999E+02 -0.10181E+06
 0.18849998E+02 -0.19125E+06
 0.18900000E+02 -0.15962E+06
 0.18949999E+02 -0.11446E+06
 0.18999998E+02 -0.82374E+05
 0.19049999E+02 -0.39980E+05
 0.19099998E+02  0.17025E+04
 0.19150000E+02 -0.69818E+05
 0.19199999E+02 -0.15017E+06
 0.19249998E+02 -0.34485E+05
 0.19299999E+02 -0.45936E+04
 0.19349998E+02 -0.38168E+05
 0.19400000E+02 -0.48841E+05
 0.19449999E+02 -0.25189E+05
 0.19499998E+02 -0.80351E+05
 0.19549999E+02 -0.89204E+05
 0.19599998E+02 -0.76850E+05
 0.19650000E+02 -0.12235E+06
 0.19699999E+02 -0.13099E+06
 0.19749998E+02 -0.14654E+06
 0.19799999E+02 -0.11044E+06
 0.19849998E+02 -0.10057E+06
 0.19900000E+02 -0.70037E+05
 0.19949999E+02 -0.42199E+05
 0.19999998E+02 -0.30800E+05
 0.20049999E+02 -0.36206E+05
 0.20099998E+02  0.17862E+05
 0.20150000E+02  0.17846E+04
 0.20199999E+02 -0.18662E+04
 0.20249998E+02  0.99008E+04
 0.20299999E+02  0.16626E+05
 0.20349998E+02  0.11081E+06
 0.20399998E+02  0.46359E+05
 0.20449999E+02  0.48219E+05
 0.20499998E+02  0.14670E+06
 0.20549999E+02  0.16079E+06
 0.20599998E+02  0.17773E+06
 0.20649998E+02  0.25391E+06
 0.20699999E+02  0.25598E+06
 0.20749998E+02  0.23325E+06
 0.20799999E+02  0.14284E+06
 0.20849998E+02  0.11722E+06
 0.20899998E+02  0.10967E+06
 0.20949999E+02  0.51839E+05
 0.20999998E+02  0.14935E+06
 0.21049999E+02  0.16839E+06
 0.21099998E+02  0.51797E+05
 0.21149998E+02  0.32005E+05
 0.21199999E+02  0.10573E+06
 0.21249998E+02  0.57666E+05
 0.21299999E+02 -0.65418E+04
 0.21349998E+02 -0.93772E+05
 0.21399998E+02 -0.68439E+05
 0.21449999E+02 -0.16626E+05
 0.21499998E+02 -0.68905E+05
 0.21549999E+02  0.10625E+06
 0.21599998E+02  0.20584E+06
 0.21649998E+02  0.27583E+05
 0.21699999E+02  0.63769E+05
 0.21749998E+02  0.12261E+06
 0.21799999E+02  0.45570E+05
 0.21849998E+02 -0.33966E+05
 0.21899998E+02 -0.60292E+05
 0.21949999E+02  0.10350E+06
 0.21999998E+02  0.26332E+06
 0.22049999E+02  0.40726E+06
 0.22099998E+02  0.48909E+06
 0.22149998E+02  0.60416E+06
 0.22199999E+02  0.63423E+06
 0.22249998E+02  0.67785E+06
 0.22299999E+02  0.76740E+06
 0.22349998E+02  0.79896E+06
 0.22399998E+02  0.10842E+07
 0.22449999E+02  0.11388E+07
 0.22499998E+02  0.10770E+07
 0.22549999E+02  0.11862E+07
 0.22599998E+02  0.13567E+07
 0.22649998E+02  0.13706E+07
 0.22699999E+02  0.91413E+06
 0.22749998E+02  0.47161E+06
 0.22799999E+02  0.26392E+06
 0.22849998E+02 -0.28900E+05
 0.22899998E+02 -0.27601E+06
 0.22949999E+02 -0.22276E+06
 0.22999998E+02 -0.20821E+06
 0.23049999E+02 -0.12758E+06
 0.23099998E+02 -0.67026E+05
 0.23149998E+02  0.18998E+06
 0.23199999E+02  0.56947E+06
 0.23249998E+02  0.53145E+06
 0.23299999E+02  0.30834E+06
 0.23349998E+02  0.71043E+06
 0.23399998E+02  0.99705E+06
 0.23449999E+02  0.63396E+06
 0.23499998E+02  0.51829E+06
 0.23549999E+02  0.10094E+06
 0.23599998E+02 -0.27631E+05
 0.23649998E+02 -0.19262E+06
 0.23699999E+02 -0.38331E+06
 0.23749998E+02 -0.10985E+06
 0.23799999E+02 -0.87182E+06
 0.23849998E+02 -0.13311E+07
 0.23899998E+02 -0.11538E+07
 0.23949999E+02 -0.10839E+07
 0.23999998E+02 -0.43248E+06
 0.24049999E+02 -0.11895E+06
 0.24099998E+02 -0.42170E+05
 0.24149998E+02  0.40305E+06
 0.24199999E+02  0.60653E+06
 0.24249998E+02  0.81356E+06
 0.24299999E+02  0.10608E+07
 0.24349998E+02  0.76573E+06
 0.24399998E+02  0.82829E+06
 0.24449999E+02  0.11122E+07
 0.24499998E+02  0.97419E+06
 0.24549999E+02  0.62117E+06
 0.24599998E+02  0.16465E+06
 0.24649998E+02 -0.16597E+05
 0.24699999E+02  0.16414E+06
 0.24749998E+02  0.51293E+06
 0.24799999E+02  0.65173E+06
 0.24849998E+02  0.50676E+06
 0.24899998E+02  0.25127E+05
 0.24949999E+02 -0.29794E+06
 0.24999998E+02  0.20970E+05
 0.25049999E+02  0.34314E+06
 0.25099998E+02  0.18228E+06
 0.25149998E+02 -0.65400E+05
 0.25199999E+02 -0.34405E+06
 0.25249998E+02 -0.81467E+06
 0.25299999E+02 -0.67417E+06
 0.25349998E+02 -0.53792E+06
 0.25399998E+02 -0.36967E+06
 0.25449999E+02  0.89096E+05
 0.25499998E+02  0.18942E+06
 0.25549999E+02  0.14411E+06
 0.25599998E+02 -0.15995E+06
 0.25649998E+02 -0.60529E+06
 0.25699999E+02 -0.91697E+06
 0.25749998E+02 -0.31772E+06
 0.25799999E+02  0.49690E+06
 0.25849998E+02  0.67215E+06
 0.25899998E+02  0.29740E+06
 0.25949999E+02 -0.69648E+05
 0.25999998E+02  0.10627E+06
 0.26049999E+02 -0.12876E+06
 0.26099998E+02 -0.52292E+06
 0.26149998E+02 -0.34187E+06
 0.26199999E+02 -0.25340E+06
 0.26249998E+02  0.13631E+06
 0.26299999E+02  0.10043E+07
 0.26349998E+02  0.86526E+06
 0.26399998E+02  0.32753E+06
 0.26449999E+02 -0.14933E+06
 0.26499998E+02 -0.50537E+06
 0.26549999E+02 -0.23812E+06
 0.26599998E+02 -0.14606E+06
 0.26649998E+02 -0.22779E+06
 0.26699999E+02 -0.11330E+06
 0.26749998E+02  0.26524E+05
 0.26799999E+02  0.39387E+06
 0.26849998E+02  0.60072E+06
 0.26899998E+02  0.41924E+06
 0.26949999E+02 -0.16167E+06
 0.26999998E+02 -0.51182E+06
 0.27049997E+02 -0.65300E+05
 0.27099998E+02 -0.16457E+06
 0.27149998E+02 -0.68112E+06
 0.27199999E+02 -0.10556E+07
 0.27249998E+02 -0.14837E+07
 0.27299997E+02 -0.15198E+07
 0.27349998E+02 -0.12959E+07
 0.27399998E+02 -0.11059E+07
 0.27449999E+02 -0.83424E+06
 0.27499998E+02 -0.70112E+06
 0.27549997E+02 -0.40087E+06
 0.27599998E+02 -0.21520E+06
 0.27649998E+02 -0.72019E+06
 0.27699999E+02 -0.10495E+07
 0.27749998E+02 -0.97402E+06
 0.27799997E+02 -0.78189E+06
 0.27849998E+02 -0.19030E+06
 0.27899998E+02 -0.75938E+05
 0.27949999E+02 -0.34053E+06
 0.27999998E+02 -0.39191E+06
 0.28049997E+02 -0.56754E+06
 0.28099998E+02 -0.47301E+06
 0.28149998E+02 -0.34402E+06
 0.28199999E+02 -0.25594E+06
 0.28249998E+02 -0.22312E+06
 0.28299997E+02 -0.20760E+06
 0.28349998E+02  0.17437E+05
 0.28399998E+02 -0.19532E+05
 0.28449999E+02 -0.12811E+06
 0.28499998E+02  0.17251E+05
 0.28549997E+02  0.18386E+06
 0.28599998E+02  0.37135E+06
 0.28649998E+02  0.66570E+06
 0.28699999E+02  0.75572E+06
 0.28749998E+02  0.37916E+06
 0.28799997E+02  0.12897E+06
 0.28849998E+02  0.99562E+05
 0.28899998E+02  0.11983E+06
 0.28949999E+02  0.11103E+06
 0.28999998E+02  0.10777E+06
 0.29049997E+02  0.26380E+06
 0.29099998E+02  0.25742E+06
 0.29149998E+02  0.32956E+06
 0.29199999E+02  0.49817E+06
 0.29249998E+02  0.45328E+06
 0.29299997E+02  0.10187E+06
 0.29349998E+02 -0.24085E+06
 0.29399998E+02 -0.29673E+06
 0.29449999E+02 -0.43048E+06
 0.29499998E+02 -0.33648E+06
 0.29549997E+02  0.11184E+05
 0.29599998E+02  0.77875E+05
 0.29649998E+02  0.77651E+05
 0.29699999E+02  0.28616E+06
 0.29749998E+02  0.36024E+06
 0.29799997E+02  0.13927E+06
 0.29849998E+02  0.16730E+06
 0.29899998E+02  0.23173E+06
 0.29949999E+02  0.44631E+05
 0.29999998E+02 -0.26837E+06
 0.30049999E+02 -0.42163E+06
 0.30099998E+02 -0.42408E+06
 0.30149998E+02 -0.56882E+06
 0.30199997E+02 -0.77977E+06
 0.30249996E+02 -0.78999E+06
 0.30299999E+02 -0.86530E+06
 0.30349998E+02 -0.10398E+07
 0.30399998E+02 -0.74438E+06
 0.30449997E+02 -0.41667E+06
 0.30499996E+02 -0.32246E+06
 0.30549999E+02 -0.28688E+06
 0.30599998E+02 -0.28420E+06
 0.30649998E+02 -0.35660E+06
 0.30699997E+02 -0.18200E+06
 0.30749996E+02  0.14399E+06
 0.30799999E+02  0.28424E+06
 0.30849998E+02  0.27680E+06
 0.30899998E+02  0.44007E+06
 0.30949997E+02  0.86809E+06
 0.30999996E+02  0.10962E+07
 0.31049999E+02  0.11550E+07
 0.31099998E+02  0.11273E+07
 0.31149998E+02  0.92687E+06
 0.31199997E+02  0.63711E+06
 0.31249996E+02  0.44173E+06
 0.31299999E+02  0.28024E+06
 0.31349998E+02  0.19395E+06
 0.31399998E+02  0.28626E+06
 0.31449997E+02  0.42018E+06
 0.31499996E+02  0.35919E+06
 0.31549999E+02  0.15350E+06
 0.31599998E+02 -0.93790E+05
 0.31649998E+02 -0.23062E+06
 0.31699997E+02 -0.26665E+06
 0.31749996E+02 -0.17799E+06
 0.31799999E+02  0.74958E+05
 0.31849998E+02  0.13016E+06
 0.31899998E+02 -0.84150E+05
 0.31949997E+02 -0.25901E+06
 0.31999996E+02 -0.33292E+06
 0.32049999E+02 -0.52195E+06
 0.32099998E+02 -0.46277E+06
 0.32149998E+02 -0.33658E+06
 0.32199997E+02 -0.34002E+06
 0.32249996E+02 -0.37860E+06
 0.32299999E+02 -0.60946E+06
 0.32349998E+02 -0.77387E+06
 0.32399998E+02 -0.93074E+06
 0.32449997E+02 -0.95380E+06
 0.32499996E+02 -0.68645E+06
 0.32549999E+02 -0.31432E+06
 0.32599998E+02 -0.18862E+06
 0.32649998E+02 -0.25273E+06
 0.32699997E+02 -0.22579E+06
 0.32749996E+02 -0.32035E+06
 0.32799999E+02 -0.42787E+06
 0.32849998E+02 -0.48322E+06
 0.32899998E+02 -0.52979E+06
 0.32949997E+02 -0.74868E+06
 0.32999996E+02 -0.88128E+06
 0.33049999E+02 -0.82498E+06
 0.33099998E+02 -0.73328E+06
 0.33149998E+02 -0.43231E+06
 0.33199997E+02 -0.17904E+06
 0.33249996E+02  0.23153E+05
 0.33299999E+02  0.10283E+06
 0.33349998E+02 -0.63177E+04
 0.33399998E+02 -0.22896E+05
 0.33449997E+02 -0.10403E+05
 0.33499996E+02 -0.17338E+05
 0.33549999E+02  0.90942E+05
 0.33599998E+02  0.16542E+06
 0.33649998E+02  0.17232E+06
 0.33699997E+02  0.21843E+06
 0.33749996E+02  0.29272E+06
 0.33799999E+02  0.22596E+06
 0.33849998E+02  0.84379E+05
 0.33899998E+02 -0.25077E+05
 0.33949997E+02 -0.89099E+05
 0.33999996E+02 -0.41836E+05
 0.34049999E+02  0.57287E+05
 0.34099998E+02  0.17752E+06
 0.34149998E+02  0.19385E+06
 0.34199997E+02  0.69308E+05
 0.34249996E+02  0.48426E+05
 0.34299999E+02  0.75060E+05
 0.34349998E+02  0.33632E+05
 0.34399998E+02 -0.47004E+05
 0.34449997E+02 -0.18968E+06
 0.34499996E+02 -0.19012E+06
 0.34549999E+02 -0.19286E+06
 0.34599998E+02 -0.11302E+06
 0.34649998E+02  0.75782E+05
 0.34699997E+02  0.14816E+06
 0.34749996E+02  0.12109E+06
 0.34799999E+02  0.16198E+06
 0.34849998E+02  0.25138E+06
 0.34899998E+02  0.24915E+06
 0.34949997E+02  0.31852E+06
 0.34999996E+02  0.45147E+06
 0.35049999E+02  0.52746E+06
 0.35099998E+02  0.53843E+06
 0.35149998E+02  0.49166E+06
 0.35199997E+02  0.48291E+06
 0.35249996E+02  0.41548E+06
 0.35299999E+02  0.85606E+05
 0.35349998E+02 -0.87760E+05
 0.35399998E+02 -0.54449E+05
 0.35449997E+02 -0.11964E+06
 0.35499996E+02  0.25781E+05
 0.35549999E+02  0.29047E+06
 0.35599998E+02  0.31906E+06
 0.35649998E+02  0.41149E+06
 0.35699997E+02  0.57790E+06
 0.35749996E+02  0.55139E+06
 0.35799999E+02  0.41707E+06
 0.35849998E+02  0.21062E+06
 0.35899998E+02  0.36039E+05
 0.35949997E+02 -0.58279E+04
 0.35999996E+02 -0.60879E+05
 0.36049999E+02 -0.65310E+05
 0.36099998E+02  0.16220E+05
 0.36149998E+02  0.89962E+05
 0.36199997E+02 -0.13094E+05
 0.36249996E+02 -0.25559E+06
 0.36299999E+02 -0.34253E+06
 0.36349998E+02 -0.21921E+06
 0.36399998E+02 -0.82827E+05
 0.36449997E+02 -0.11941E+06
 0.36499996E+02 -0.11406E+06
 0.36549999E+02 -0.59979E+05
 0.36599998E+02 -0.12646E+06
 0.36649998E+02 -0.19894E+06
 0.36699997E+02 -0.30936E+06
 0.36749996E+02 -0.37402E+06
 0.36799999E+02 -0.22977E+06
 0.36849998E+02 -0.94663E+05
 0.36899998E+02 -0.29866E+05
 0.36949997E+02 -0.23073E+05
 0.36999996E+02 -0.51539E+05
 0.37049999E+02 -0.16560E+05
 0.37099998E+02 -0.20996E+05
 0.37149998E+02 -0.89250E+05
 0.37199997E+02 -0.13898E+06
 0.37249996E+02 -0.14730E+06
 0.37299999E+02 -0.73603E+05
 0.37349998E+02  0.86470E+05
 0.37399998E+02  0.15902E+06
 0.37449997E+02  0.17718E+06
 0.37499996E+02  0.11027E+06
 0.37549999E+02 -0.28869E+05
 0.37599998E+02 -0.16981E+06
 0.37649998E+02 -0.32386E+06
 0.37699997E+02 -0.29362E+06
 0.37749996E+02 -0.15708E+06
 0.37799999E+02 -0.27859E+05
 0.37849998E+02  0.77080E+05
 0.37899998E+02  0.12605E+06
 0.37949997E+02  0.21104E+06
 0.37999996E+02  0.30137E+06
 0.38049999E+02  0.34068E+06
 0.38099998E+02  0.38385E+06
 0.38149998E+02  0.40611E+06
 0.38199997E+02  0.39860E+06
 0.38249996E+02  0.36181E+06
 0.38299999E+02  0.24919E+06
 0.38349998E+02  0.12342E+06
 0.38399998E+02  0.12739E+06
 0.38449997E+02  0.12254E+06
 0.38499996E+02  0.73815E+05
 0.38549999E+02  0.90862E+05
 0.38599998E+02  0.68644E+05
 0.38649998E+02 -0.48118E+05
 0.38699997E+02 -0.18480E+06
 0.38749996E+02 -0.26499E+06
 0.38799999E+02 -0.22584E+06
 0.38849998E+02 -0.13683E+06
 0.38899998E+02 -0.51888E+05
 0.38949997E+02  0.49944E+05
 0.38999996E+02  0.43725E+05
 0.39049999E+02 -0.60785E+05
 0.39099998E+02 -0.20055E+05
 0.39149998E+02  0.17136E+06
 0.39199997E+02  0.32197E+06
 0.39249996E+02  0.35192E+06
 0.39299999E+02  0.28660E+06
 0.39349998E+02  0.19642E+06
 0.39399998E+02  0.67078E+05
 0.39449997E+02  0.25949E+05
 0.39499996E+02  0.99339E+05
 0.39549999E+02  0.61094E+05
 0.39599998E+02 -0.40170E+05
 0.39649998E+02 -0.10017E+06
 0.39699997E+02 -0.10846E+06
 0.39749996E+02 -0.13934E+06
 0.39799999E+02 -0.22565E+06
 0.39849998E+02 -0.15661E+06
 0.39899998E+02  0.35744E+03
 0.39949997E+02  0.13947E+06
 0.39999996E+02  0.17018E+06
 0.40049999E+02  0.97792E+05
 0.40099998E+02  0.80958E+05
 0.40149998E+02  0.15409E+06
 0.40199997E+02  0.23591E+06
 0.40249996E+02  0.23014E+06
 0.40299999E+02  0.20056E+06
 0.40349998E+02  0.19389E+06
 0.40399998E+02  0.20079E+06
 0.40449997E+02  0.18732E+06
 0.40499996E+02  0.18095E+06
 0.40549999E+02  0.16883E+06
 0.40599998E+02  0.11641E+06
 0.40649998E+02  0.63616E+05
 0.40699997E+02  0.34604E+05
 0.40749996E+02 -0.10117E+05
 0.40799999E+02 -0.54072E+05
 0.40849998E+02 -0.11506E+06
 0.40899998E+02 -0.21957E+06
 0.40949997E+02 -0.29148E+06
 0.40999996E+02 -0.35328E+06
 0.41049999E+02 -0.47925E+06
 0.41099998E+02 -0.54447E+06
 0.41149998E+02 -0.51147E+06
 0.41199997E+02 -0.51245E+06
 0.41249996E+02 -0.51258E+06
 0.41299999E+02 -0.46607E+06
 0.41349998E+02 -0.43407E+06
 0.41399998E+02 -0.42744E+06
 0.41449997E+02 -0.33056E+06
 0.41499996E+02 -0.17735E+06
 0.41549999E+02 -0.10955E+06
 0.41599998E+02 -0.88046E+05
 0.41649998E+02 -0.52060E+05
 0.41699997E+02  0.49240E+04
 0.41749996E+02  0.59848E+05
 0.41799999E+02  0.13376E+06
 0.41849998E+02  0.25380E+06
 0.41899998E+02  0.32096E+06
 0.41949997E+02  0.33097E+06
 0.41999996E+02  0.28385E+06
 0.42049999E+02  0.14381E+06
 0.42099998E+02  0.31811E+05
 0.42149998E+02  0.35816E+04
 0.42199997E+02 -0.50362E+05
 0.42249996E+02 -0.13224E+06
 0.42299999E+02 -0.17175E+06
 0.42349998E+02 -0.19163E+06
 0.42399998E+02 -0.21438E+06
 0.42449997E+02 -0.27696E+06
 0.42499996E+02 -0.37615E+06
 0.42549999E+02 -0.40237E+06
 0.42599998E+02 -0.39162E+06
 0.42649998E+02 -0.32504E+06
 0.42699997E+02 -0.22739E+06
 0.42749996E+02 -0.18869E+06
 0.42799995E+02 -0.15956E+06
 0.42849998E+02 -0.13345E+06
 0.42899998E+02 -0.76264E+05
 0.42949997E+02 -0.15782E+05
 0.42999996E+02  0.94836E+04
 0.43049995E+02  0.19376E+04
 0.43099998E+02 -0.15301E+05
 0.43149998E+02 -0.41710E+05
 0.43199997E+02 -0.70762E+05
 0.43249996E+02 -0.93531E+05
 0.43299995E+02 -0.11564E+06
 0.43349998E+02 -0.15638E+06
 0.43399998E+02 -0.20101E+06
 0.43449997E+02 -0.21050E+06
 0.43499996E+02 -0.20274E+06
 0.43549995E+02 -0.18675E+06
 0.43599998E+02 -0.16777E+06
 0.43649998E+02 -0.31649E+05
 0.43699997E+02  0.22130E+06
 0.43749996E+02  0.47468E+06
 0.43799995E+02  0.63690E+06
 0.43849998E+02  0.70506E+06
 0.43899998E+02  0.69405E+06
 0.43949997E+02  0.60516E+06
 0.43999996E+02  0.52511E+06
 0.44049995E+02  0.48916E+06
 0.44099998E+02  0.47030E+06
 0.44149998E+02  0.40972E+06
 0.44199997E+02  0.33524E+06
 0.44249996E+02  0.23785E+06
 0.44299995E+02  0.14148E+06
 0.44349998E+02  0.10655E+06
 0.44399998E+02  0.11912E+06
 0.44449997E+02  0.11128E+06
 0.44499996E+02  0.88225E+05
 0.44549995E+02  0.11967E+06
 0.44599998E+02  0.22778E+06
 0.44649998E+02  0.31324E+06
 0.44699997E+02  0.33533E+06
 0.44749996E+02  0.36169E+06
 0.44799995E+02  0.37221E+06
 0.44849998E+02  0.37579E+06
 0.44899998E+02  0.33454E+06
 0.44949997E+02  0.24175E+06
 0.44999996E+02  0.14528E+06
 0.45049995E+02  0.72902E+05
 0.45099998E+02 -0.17042E+05
 0.45149998E+02 -0.86633E+05
 0.45199997E+02 -0.98063E+05
 0.45249996E+02 -0.85274E+05
 0.45299995E+02 -0.22087E+05
 0.45349998E+02  0.14636E+05
 0.45399998E+02 -0.63440E+03
 0.45449997E+02 -0.21900E+05
 0.45499996E+02 -0.53824E+05
 0.45549995E+02 -0.93302E+05
 0.45599998E+02 -0.18712E+06
 0.45649998E+02 -0.27551E+06
 0.45699997E+02 -0.27090E+06
 0.45749996E+02 -0.24811E+06
 0.45799995E+02 -0.25921E+06
 0.45849998E+02 -0.23640E+06
 0.45899998E+02 -0.17984E+06
 0.45949997E+02 -0.10123E+06
 0.45999996E+02 -0.25940E+05
 0.46049995E+02 -0.21432E+05
 0.46099998E+02 -0.68957E+05
 0.46149998E+02 -0.13598E+06
 0.46199997E+02 -0.15355E+06
 0.46249996E+02 -0.14498E+06
 0.46299995E+02 -0.15705E+06
 0.46349998E+02 -0.15319E+06
 0.46399998E+02 -0.13594E+06
 0.46449997E+02 -0.97913E+05
 0.46499996E+02 -0.59703E+05
 0.46549995E+02 -0.50665E+05
 0.46599998E+02 -0.34865E+05
 0.46649998E+02 -0.25683E+05
 0.46699997E+02  0.10892E+05
 0.46749996E+02  0.66236E+05
 0.46799995E+02  0.71251E+05
 0.46849998E+02  0.44823E+05
 0.46899998E+02  0.16334E+04
 0.46949997E+02 -0.66820E+05
 0.46999996E+02 -0.11448E+06
 0.47049995E+02 -0.16599E+06
 0.47099998E+02 -0.22226E+06
 0.47149998E+02 -0.23081E+06
 0.47199997E+02 -0.26405E+06
 0.47249996E+02 -0.27559E+06
 0.47299995E+02 -0.21656E+06
 0.47349998E+02 -0.15182E+06
 0.47399998E+02 -0.10491E+06
 0.47449997E+02 -0.72894E+05
 0.47499996E+02 -0.35912E+05
 0.47549995E+02 -0.90393E+03
 0.47599998E+02  0.24349E+05
 0.47649998E+02  0.46433E+05
 0.47699997E+02  0.39357E+05
 0.47749996E+02  0.16315E+05
 0.47799995E+02 -0.11641E+05
 0.47849998E+02 -0.64747E+05
 0.47899998E+02 -0.11822E+06
 0.47949997E+02 -0.14734E+06
 0.47999996E+02 -0.13444E+06
 0.48049995E+02 -0.50217E+05
 0.48099998E+02  0.51799E+05
 0.48149998E+02  0.10830E+06
 0.48199997E+02  0.12126E+06
 0.48249996E+02  0.10372E+06
 0.48299995E+02  0.83110E+05
 0.48349998E+02  0.55447E+05
 0.48399998E+02  0.11035E+05
 0.48449997E+02  0.23940E+04
 0.48499996E+02  0.33495E+05
 0.48549995E+02  0.62185E+05
 0.48599998E+02  0.11929E+06
 0.48649998E+02  0.21266E+06
 0.48699997E+02  0.30722E+06
 0.48749996E+02  0.36316E+06
 0.48799995E+02  0.38064E+06
 0.48849998E+02  0.36600E+06
 0.48899998E+02  0.30701E+06
 0.48949997E+02  0.26756E+06
 0.48999996E+02  0.27203E+06
 0.49049995E+02  0.27623E+06
 0.49099998E+02  0.25022E+06
 0.49149998E+02  0.22145E+06
 0.49199997E+02  0.19577E+06
 0.49249996E+02  0.13799E+06
 0.49299995E+02  0.76037E+05
 0.49349998E+02  0.34495E+05
 0.49399998E+02 -0.21913E+05
 0.49449997E+02 -0.97679E+05
 0.49499996E+02 -0.16687E+06
 0.49549995E+02 -0.21178E+06
 0.49599998E+02 -0.23207E+06
 0.49649998E+02 -0.25808E+06
 0.49699997E+02 -0.28679E+06
 0.49749996E+02 -0.33481E+06
 0.49799995E+02 -0.39005E+06
 0.49849998E+02 -0.41174E+06
 0.49899998E+02 -0.42082E+06
 0.49949997E+02 -0.44434E+06
 0.49999996E+02 -0.43691E+06
 0.50049995E+02 -0.40168E+06
 0.50099998E+02 -0.36335E+06
 0.50149998E+02 -0.32004E+06
 0.50199997E+02 -0.28294E+06
 0.50249996E+02 -0.24170E+06
 0.50299995E+02 -0.21367E+06
 0.50349998E+02 -0.20738E+06
 0.50399998E+02 -0.22521E+06
 0.50449997E+02 -0.24860E+06
 0.50499996E+02 -0.26996E+06
 0.50549995E+02 -0.27865E+06
 0.50599998E+02 -0.27506E+06
 0.50649998E+02 -0.26689E+06
 0.50699997E+02 -0.23000E+06
 0.50749996E+02 -0.17949E+06
 0.50799995E+02 -0.13290E+06
 0.50849998E+02 -0.90561E+05
 0.50899998E+02 -0.26381E+05
 0.50949997E+02  0.79348E+05
 0.50999996E+02  0.19743E+06
 0.51049995E+02  0.29965E+06
 0.51099998E+02  0.38505E+06
 0.51149998E+02  0.43597E+06
 0.51199997E+02  0.41781E+06
 0.51249996E+02  0.35570E+06
 0.51299995E+02  0.25300E+06
 0.51349998E+02  0.16545E+06
 0.51399998E+02  0.14904E+06
 0.51449997E+02  0.15664E+06
 0.51499996E+02  0.15509E+06
 0.51549995E+02  0.14619E+06
 0.51599998E+02  0.16114E+06
 0.51649998E+02  0.18699E+06
 0.51699997E+02  0.18292E+06
 0.51749996E+02  0.13876E+06
 0.51799995E+02  0.71716E+05
 0.51849998E+02  0.24552E+04
 0.51899998E+02 -0.43343E+05
 0.51949997E+02 -0.63567E+05
 0.51999996E+02 -0.77563E+05
 0.52049995E+02 -0.72763E+05
 0.52099998E+02 -0.47703E+05
 0.52149998E+02 -0.58373E+04
 0.52199997E+02  0.32233E+05
 0.52249996E+02  0.47046E+05
 0.52299995E+02  0.66733E+05
 0.52349998E+02  0.94793E+05
 0.52399998E+02  0.12064E+06
 0.52449997E+02  0.10713E+06
 0.52499996E+02  0.67639E+05
 0.52549995E+02  0.18407E+05
 0.52599998E+02 -0.40790E+05
 0.52649998E+02 -0.76058E+05
 0.52699997E+02 -0.94119E+05
 0.52749996E+02 -0.92203E+05
 0.52799995E+02 -0.75150E+05
 0.52849998E+02 -0.34933E+05
 0.52899998E+02  0.33302E+05
 0.52949997E+02  0.10580E+06
 0.52999996E+02  0.17408E+06
 0.53049995E+02  0.23216E+06
 0.53099998E+02  0.25944E+06
 0.53149998E+02  0.23469E+06
 0.53199997E+02  0.19248E+06
 0.53249996E+02  0.19486E+06
 0.53299995E+02  0.21921E+06
 0.53349998E+02  0.24642E+06
 0.53399998E+02  0.27676E+06
 0.53449997E+02  0.26959E+06
 0.53499996E+02  0.22612E+06
 0.53549995E+02  0.14644E+06
 0.53599998E+02  0.49853E+05
 0.53649998E+02 -0.13343E+05
 0.53699997E+02 -0.47481E+05
 0.53749996E+02 -0.52565E+05
 0.53799995E+02 -0.31305E+05
 0.53849998E+02  0.86139E+04
 0.53899998E+02  0.35956E+05
 0.53949997E+02  0.34223E+05
 0.53999996E+02  0.15553E+05
 0.54049995E+02 -0.92387E+04
 0.54099998E+02 -0.13526E+05
 0.54149998E+02 -0.18319E+05
 0.54199997E+02 -0.29263E+05
 0.54249996E+02 -0.39705E+05
 0.54299995E+02 -0.59144E+05
 0.54349998E+02 -0.64552E+05
 0.54399998E+02 -0.50927E+05
 0.54449997E+02 -0.43674E+05
 0.54499996E+02 -0.46870E+05
 0.54549995E+02 -0.37341E+05
 0.54599998E+02 -0.23997E+04
 0.54649998E+02  0.22194E+05
 0.54699997E+02  0.25517E+05
 0.54749996E+02  0.92807E+04
 0.54799995E+02 -0.57003E+04
 0.54849998E+02 -0.16397E+05
 0.54899998E+02 -0.35002E+05
 0.54949997E+02 -0.53815E+05
 0.54999996E+02 -0.69753E+05
 0.55049995E+02 -0.65950E+05
 0.55099998E+02 -0.50760E+05
 0.55149998E+02 -0.36005E+05
 0.55199997E+02 -0.31473E+05
 0.55249996E+02 -0.33970E+05
 0.55299995E+02 -0.24111E+05
 0.55349998E+02 -0.13565E+04
 0.55399998E+02  0.19427E+05
 0.55449997E+02  0.48132E+05
 0.55499996E+02  0.76746E+05
 0.55549995E+02  0.11174E+06
 0.55599998E+02  0.15635E+06
 0.55649998E+02  0.18632E+06
 0.55699997E+02  0.23291E+06
 0.55749996E+02  0.29225E+06
 0.55799995E+02  0.32882E+06
 0.55849995E+02  0.36142E+06
 0.55899998E+02  0.38969E+06
 0.55949997E+02  0.39445E+06
 0.55999996E+02  0.39598E+06
 0.56049995E+02  0.38169E+06
 0.56099995E+02  0.32583E+06
 0.56149998E+02  0.26472E+06
 0.56199997E+02  0.23510E+06
 0.56249996E+02  0.22289E+06
 0.56299995E+02  0.19713E+06
 0.56349995E+02  0.17598E+06
 0.56399998E+02  0.17819E+06
 0.56449997E+02  0.18202E+06
 0.56499996E+02  0.18116E+06
 0.56549995E+02  0.17070E+06
 0.56599995E+02  0.13343E+06
 0.56649998E+02  0.70644E+05
 0.56699997E+02  0.10241E+05
 0.56749996E+02 -0.35136E+05
 0.56799995E+02 -0.72600E+05
 0.56849995E+02 -0.83961E+05
 0.56899998E+02 -0.76358E+05
 0.56949997E+02 -0.83603E+05
 0.56999996E+02 -0.94177E+05
 0.57049995E+02 -0.91612E+05
 0.57099995E+02 -0.88004E+05
 0.57149998E+02 -0.76632E+05
 0.57199997E+02 -0.56069E+05
 0.57249996E+02 -0.30003E+05
 0.57299995E+02 -0.75123E+04
 0.57349995E+02 -0.37547E+04
 0.57399998E+02 -0.19472E+05
 0.57449997E+02 -0.64852E+05
 0.57499996E+02 -0.12035E+06
 0.57549995E+02 -0.17859E+06
 0.57599995E+02 -0.23697E+06
 0.57649998E+02 -0.28751E+06
 0.57699997E+02 -0.32415E+06
 0.57749996E+02 -0.33601E+06
 0.57799995E+02 -0.32689E+06
 0.57849995E+02 -0.30367E+06
 0.57899998E+02 -0.28311E+06
 0.57949997E+02 -0.24150E+06
 0.57999996E+02 -0.18331E+06
 0.58049995E+02 -0.14304E+06
 0.58099995E+02 -0.11571E+06
 0.58149998E+02 -0.10327E+06
 0.58199997E+02 -0.98294E+05
 0.58249996E+02 -0.10494E+06
 0.58299995E+02 -0.11994E+06
 0.58349995E+02 -0.12062E+06
 0.58399998E+02 -0.12606E+06
 0.58449997E+02 -0.12679E+06
 0.58499996E+02 -0.10703E+06
 0.58549995E+02 -0.80210E+05
 0.58599995E+02 -0.52727E+05
 0.58649998E+02 -0.33136E+05
 0.58699997E+02 -0.22054E+05
 0.58749996E+02 -0.29637E+05
 0.58799995E+02 -0.49614E+05
 0.58849995E+02 -0.57635E+05
 0.58899998E+02 -0.56013E+05
 0.58949997E+02 -0.64558E+05
 0.58999996E+02 -0.77099E+05
 0.59049995E+02 -0.84601E+05
 0.59099995E+02 -0.97188E+05
 0.59149998E+02 -0.10075E+06
 0.59199997E+02 -0.10862E+06
 0.59249996E+02 -0.12261E+06
 0.59299995E+02 -0.14590E+06
 0.59349995E+02 -0.16747E+06
 0.59399998E+02 -0.16022E+06
 0.59449997E+02 -0.14635E+06
 0.59499996E+02 -0.13543E+06
 0.59549995E+02 -0.13202E+06
 0.59599995E+02 -0.14551E+06
 0.59649998E+02 -0.16369E+06
 0.59699997E+02 -0.17189E+06
 0.59749996E+02 -0.17292E+06
 0.59799995E+02 -0.15359E+06
 0.59849995E+02 -0.12666E+06
 0.59899998E+02 -0.89523E+05
 0.59949997E+02 -0.47204E+05
 0.59999996E+02 -0.14741E+05
 0.60049995E+02  0.25609E+05
 0.60099995E+02  0.59769E+05
 0.60149998E+02  0.79300E+05
 0.60199997E+02  0.10014E+06
 0.60249996E+02  0.11411E+06
 0.60299995E+02  0.12280E+06
 0.60349995E+02  0.11659E+06
 0.60399998E+02  0.91638E+05
 0.60449997E+02  0.63258E+05
 0.60499996E+02  0.30836E+05
 0.60549995E+02 -0.37784E+04
 0.60599995E+02 -0.24414E+05
 0.60649998E+02 -0.10370E+05
 0.60699997E+02  0.27770E+05
 0.60749996E+02  0.69614E+05
 0.60799995E+02  0.97354E+05
 0.60849995E+02  0.10350E+06
 0.60899998E+02  0.88641E+05
 0.60949997E+02  0.74466E+05
 0.60999996E+02  0.60012E+05
 0.61049995E+02  0.40374E+05
 0.61099995E+02  0.38808E+05
 0.61149998E+02  0.65227E+05
 0.61199997E+02  0.93355E+05
 0.61249996E+02  0.11176E+06
 0.61299995E+02  0.13676E+06
 0.61349995E+02  0.15610E+06
 0.61399998E+02  0.17260E+06
 0.61449997E+02  0.19421E+06
 0.61499996E+02  0.19958E+06
 0.61549995E+02  0.18667E+06
 0.61599995E+02  0.17323E+06
 0.61649998E+02  0.15399E+06
 0.61699997E+02  0.12433E+06
 0.61749996E+02  0.82634E+05
 0.61799995E+02  0.42459E+05
 0.61849995E+02  0.59820E+04
 0.61899998E+02 -0.39854E+05
 0.61949997E+02 -0.86489E+05
 0.61999996E+02 -0.11994E+06
 0.62049995E+02 -0.13041E+06
 0.62099998E+02 -0.13128E+06
 0.62149994E+02 -0.11649E+06
 0.62199997E+02 -0.88404E+05
 0.62249992E+02 -0.57326E+05
 0.62299995E+02 -0.15904E+05
 0.62349998E+02  0.30928E+05
 0.62399994E+02  0.73148E+05
 0.62449997E+02  0.94122E+05
 0.62499992E+02  0.99727E+05
 0.62549995E+02  0.94128E+05
 0.62599998E+02  0.76056E+05
 0.62649994E+02  0.56423E+05
 0.62699997E+02  0.42630E+05
 0.62749992E+02  0.39958E+05
 0.62799995E+02  0.35646E+05
 0.62849998E+02  0.30653E+05
 0.62899994E+02  0.35857E+05
 0.62949997E+02  0.38182E+05
 0.62999992E+02  0.30113E+05
 0.63049995E+02  0.15768E+05
 0.63099998E+02  0.51866E+04
 0.63149994E+02  0.20178E+04
 0.63199997E+02 -0.29129E+04
 0.63249992E+02 -0.10322E+05
 0.63299995E+02 -0.44439E+04
 0.63349998E+02  0.11368E+05
 0.63399994E+02  0.29864E+05
 0.63449997E+02  0.50560E+05
 0.63499992E+02  0.61103E+05
 0.63549995E+02  0.69768E+05
 0.63599998E+02  0.76356E+05
 0.63649994E+02  0.72738E+05
 0.63699997E+02  0.57471E+05
 0.63749992E+02  0.29449E+05
 0.63799995E+02  0.70174E+04
 0.63849998E+02  0.45275E+04
 0.63899994E+02  0.89471E+04
 0.63949997E+02  0.13611E+05
 0.63999992E+02  0.31444E+05
 0.64049995E+02  0.53990E+05
 0.64099998E+02  0.65369E+05
 0.64149994E+02  0.68274E+05
 0.64199997E+02  0.72950E+05
 0.64249992E+02  0.75380E+05
 0.64299995E+02  0.78709E+05
 0.64349998E+02  0.86697E+05
 0.64399994E+02  0.89210E+05
 0.64449997E+02  0.83315E+05
 0.64499992E+02  0.51871E+05
 0.64549995E+02  0.13616E+04
 0.64599998E+02 -0.45266E+05
 0.64649994E+02 -0.79649E+05
 0.64699997E+02 -0.90804E+05
 0.64749992E+02 -0.81334E+05
 0.64799995E+02 -0.63970E+05
 0.64849998E+02 -0.48429E+05
 0.64899994E+02 -0.37175E+05
 0.64949997E+02 -0.35595E+05
 0.64999992E+02 -0.40382E+05
 0.65049995E+02 -0.41195E+05
 0.65099998E+02 -0.38421E+05
 0.65149994E+02 -0.34641E+05
 0.65199997E+02 -0.40713E+05
 0.65249992E+02 -0.55365E+05
 0.65299995E+02 -0.80165E+05
 0.65349998E+02 -0.11124E+06
 0.65399994E+02 -0.12941E+06
 0.65449997E+02 -0.14351E+06
 0.65499992E+02 -0.14253E+06
 0.65549995E+02 -0.11749E+06
 0.65599998E+02 -0.81635E+05
 0.65649994E+02 -0.37941E+05
 0.65699997E+02  0.66737E+04
 0.65749992E+02  0.48229E+05
 0.65799995E+02  0.77797E+05
 0.65849998E+02  0.91592E+05
 0.65899994E+02  0.94695E+05
 0.65949997E+02  0.10164E+06
 0.65999992E+02  0.12936E+06
 0.66049995E+02  0.16222E+06
 0.66099998E+02  0.18401E+06
 0.66149994E+02  0.19798E+06
 0.66199997E+02  0.19839E+06
 0.66249992E+02  0.18610E+06
 0.66299995E+02  0.16875E+06
 0.66349998E+02  0.14749E+06
 0.66399994E+02  0.12121E+06
 0.66449997E+02  0.92959E+05
 0.66499992E+02  0.57109E+05
 0.66549995E+02  0.17767E+05
 0.66599998E+02 -0.17878E+05
 0.66649994E+02 -0.43050E+05
 0.66699997E+02 -0.52863E+05
 0.66749992E+02 -0.62562E+05
 0.66799995E+02 -0.65294E+05
 0.66849998E+02 -0.58704E+05
 0.66899994E+02 -0.50742E+05
 0.66949997E+02 -0.39280E+05
 0.66999992E+02 -0.19287E+05
 0.67049995E+02  0.10848E+05
 0.67099998E+02  0.49976E+05
 0.67149994E+02  0.91291E+05
 0.67199997E+02  0.12315E+06
 0.67249992E+02  0.13801E+06
 0.67299995E+02  0.13496E+06
 0.67349998E+02  0.11664E+06
 0.67399994E+02  0.88856E+05
 0.67449997E+02  0.62434E+05
 0.67499992E+02  0.43630E+05
 0.67549995E+02  0.30396E+05
 0.67599998E+02  0.15093E+05
 0.67649994E+02  0.56859E+03
 0.67699997E+02 -0.21122E+05
 0.67749992E+02 -0.53078E+05
 0.67799995E+02 -0.81935E+05
 0.67849998E+02 -0.10864E+06
 0.67899994E+02 -0.13843E+06
 0.67949997E+02 -0.16841E+06
 0.67999992E+02 -0.19683E+06
 0.68049995E+02 -0.22882E+06
 0.68099998E+02 -0.26442E+06
 0.68149994E+02 -0.29833E+06
 0.68199997E+02 -0.33108E+06
 0.68249992E+02 -0.35648E+06
 0.68299995E+02 -0.36543E+06
 0.68349998E+02 -0.36669E+06
 0.68399994E+02 -0.36223E+06
 0.68449997E+02 -0.34158E+06
 0.68499992E+02 -0.30932E+06
 0.68549995E+02 -0.26962E+06
 0.68599998E+02 -0.22201E+06
 0.68649994E+02 -0.17770E+06
 0.68699997E+02 -0.14967E+06
 0.68749992E+02 -0.13058E+06
 0.68799995E+02 -0.11667E+06
 0.68849998E+02 -0.10930E+06
 0.68899994E+02 -0.99819E+05
 0.68949997E+02 -0.89320E+05
 0.68999992E+02 -0.71613E+05
 0.69049995E+02 -0.39365E+05
 0.69099998E+02  0.60929E+04
 0.69149994E+02  0.49598E+05
 0.69199997E+02  0.78342E+05
 0.69249992E+02  0.97740E+05
 0.69299995E+02  0.11113E+06
 0.69349998E+02  0.11209E+06
 0.69399994E+02  0.99557E+05
 0.69449997E+02  0.80819E+05
 0.69499992E+02  0.62890E+05
 0.69549995E+02  0.57879E+05
 0.69599998E+02  0.64977E+05
 0.69649994E+02  0.73645E+05
 0.69699997E+02  0.83751E+05
 0.69749992E+02  0.95786E+05
 0.69799995E+02  0.10481E+06
 0.69849998E+02  0.11415E+06
 0.69899994E+02  0.12667E+06
 0.69949997E+02  0.13838E+06
 0.69999992E+02  0.14730E+06
 0.70049995E+02  0.15552E+06
 0.70099998E+02  0.16232E+06
 0.70149994E+02  0.16372E+06
 0.70199997E+02  0.16514E+06
 0.70249992E+02  0.16836E+06
 0.70299995E+02  0.17471E+06
 0.70349998E+02  0.17819E+06
 0.70399994E+02  0.18087E+06
 0.70449997E+02  0.18882E+06
 0.70499992E+02  0.19545E+06
 0.70549995E+02  0.20132E+06
 0.70599998E+02  0.21016E+06
 0.70649994E+02  0.22375E+06
 0.70699997E+02  0.23890E+06
 0.70749992E+02  0.24394E+06
 0.70799995E+02  0.22614E+06
 0.70849998E+02  0.20059E+06
 0.70899994E+02  0.16950E+06
 0.70949997E+02  0.13024E+06
 0.70999992E+02  0.96763E+05
 0.71049995E+02  0.68745E+05
 0.71099998E+02  0.38179E+05
 0.71149994E+02  0.42633E+04
 0.71199997E+02 -0.21875E+05
 0.71249992E+02 -0.35468E+05
 0.71299995E+02 -0.34150E+05
 0.71349998E+02 -0.24752E+05
 0.71399994E+02 -0.12279E+05
 0.71449997E+02  0.13711E+04
 0.71499992E+02  0.11034E+05
 0.71549995E+02  0.16646E+05
 0.71599998E+02  0.10948E+05
 0.71649994E+02 -0.63995E+04
 0.71699997E+02 -0.24590E+05
 0.71749992E+02 -0.30827E+05
 0.71799995E+02 -0.32603E+05
 0.71849998E+02 -0.43280E+05
 0.71899994E+02 -0.66782E+05
 0.71949997E+02 -0.98058E+05
 0.71999992E+02 -0.12764E+06
 0.72049995E+02 -0.16016E+06
 0.72099998E+02 -0.19304E+06
 0.72149994E+02 -0.21751E+06
 0.72199997E+02 -0.23425E+06
 0.72249992E+02 -0.23796E+06
 0.72299995E+02 -0.23311E+06
 0.72349998E+02 -0.23813E+06
 0.72399994E+02 -0.24821E+06
 0.72449997E+02 -0.25618E+06
 0.72499992E+02 -0.26667E+06
 0.72549995E+02 -0.27235E+06
 0.72599998E+02 -0.26878E+06
 0.72649994E+02 -0.25843E+06
 0.72699997E+02 -0.23633E+06
 0.72749992E+02 -0.21213E+06
 0.72799995E+02 -0.19028E+06
 0.72849998E+02 -0.16952E+06
 0.72899994E+02 -0.15098E+06
 0.72949997E+02 -0.13200E+06
 0.72999992E+02 -0.12023E+06
 0.73049995E+02 -0.11598E+06
 0.73099998E+02 -0.11686E+06
 0.73149994E+02 -0.11702E+06
 0.73199997E+02 -0.10642E+06
 0.73249992E+02 -0.83430E+05
 0.73299995E+02 -0.52505E+05
 0.73349998E+02 -0.19052E+05
 0.73399994E+02  0.11625E+05
 0.73449997E+02  0.37806E+05
 0.73499992E+02  0.63588E+05
 0.73549995E+02  0.86526E+05
 0.73599998E+02  0.10095E+06
 0.73649994E+02  0.10368E+06
 0.73699997E+02  0.99131E+05
 0.73749992E+02  0.92289E+05
 0.73799995E+02  0.82838E+05
 0.73849998E+02  0.70387E+05
 0.73899994E+02  0.52252E+05
 0.73949997E+02  0.27008E+05
 0.73999992E+02 -0.10693E+04
 0.74049995E+02 -0.20028E+05
 0.74099998E+02 -0.28570E+05
 0.74149994E+02 -0.36009E+05
 0.74199997E+02 -0.46723E+05
 0.74249992E+02 -0.59674E+05
 0.74299995E+02 -0.76580E+05
 0.74349998E+02 -0.91844E+05
 0.74399994E+02 -0.93357E+05
 0.74449997E+02 -0.82210E+05
 0.74499992E+02 -0.63662E+05
 0.74549995E+02 -0.42914E+05
 0.74599998E+02 -0.27456E+05
 0.74649994E+02 -0.23907E+05
 0.74699997E+02 -0.30989E+05
 0.74749992E+02 -0.42522E+05
 0.74799995E+02 -0.49322E+05
 0.74849998E+02 -0.43206E+05
 0.74899994E+02 -0.35401E+05
 0.74949997E+02 -0.28839E+05
 0.74999992E+02 -0.22279E+05
 0.75049995E+02 -0.16066E+05
 0.75099998E+02 -0.24415E+04
 0.75149994E+02  0.15319E+05
 0.75199997E+02  0.32293E+05
 0.75249992E+02  0.48883E+05
 0.75299995E+02  0.65467E+05
 0.75349998E+02  0.73946E+05
 0.75399994E+02  0.73817E+05
 0.75449997E+02  0.69870E+05
 0.75499992E+02  0.67207E+05
 0.75549995E+02  0.66664E+05
 0.75599998E+02  0.67226E+05
 0.75649994E+02  0.66558E+05
 0.75699997E+02  0.67468E+05
 0.75749992E+02  0.77335E+05
 0.75799995E+02  0.83882E+05
 0.75849998E+02  0.79969E+05
 0.75899994E+02  0.67938E+05
 0.75949997E+02  0.56069E+05
 0.75999992E+02  0.46055E+05
 0.76049995E+02  0.30286E+05
 0.76099998E+02  0.91834E+04
 0.76149994E+02 -0.10063E+05
 0.76199997E+02 -0.21362E+05
 0.76249992E+02 -0.21927E+05
 0.76299995E+02 -0.12378E+05
 0.76349998E+02  0.55864E+04
 0.76399994E+02  0.30756E+05
 0.76449997E+02  0.52550E+05
 0.76499992E+02  0.67451E+05
 0.76549995E+02  0.75058E+05
 0.76599998E+02  0.76168E+05
 0.76649994E+02  0.82574E+05
 0.76699997E+02  0.93380E+05
 0.76749992E+02  0.10456E+06
 0.76799995E+02  0.11906E+06
 0.76849998E+02  0.13562E+06
 0.76899994E+02  0.15453E+06
 0.76949997E+02  0.17180E+06
 0.76999992E+02  0.18558E+06
 0.77049995E+02  0.20016E+06
 0.77099998E+02  0.21060E+06
 0.77149994E+02  0.21140E+06
 0.77199997E+02  0.20101E+06
 0.77249992E+02  0.18125E+06
 0.77299995E+02  0.16122E+06
 0.77349998E+02  0.14770E+06
 0.77399994E+02  0.13858E+06
 0.77449997E+02  0.13012E+06
 0.77499992E+02  0.12146E+06
 0.77549995E+02  0.11248E+06
 0.77599998E+02  0.10537E+06
 0.77649994E+02  0.98782E+05
 0.77699997E+02  0.89721E+05
 0.77749992E+02  0.80458E+05
 0.77799995E+02  0.77279E+05
 0.77849998E+02  0.79960E+05
 0.77899994E+02  0.82881E+05
 0.77949997E+02  0.85934E+05
 0.77999992E+02  0.87060E+05
 0.78049995E+02  0.88411E+05
 0.78099998E+02  0.92120E+05
 0.78149994E+02  0.93765E+05
 0.78199997E+02  0.92524E+05
 0.78249992E+02  0.86783E+05
 0.78299995E+02  0.79002E+05
 0.78349998E+02  0.73724E+05
 0.78399994E+02  0.75671E+05
 0.78449997E+02  0.79525E+05
 0.78499992E+02  0.78953E+05
 0.78549995E+02  0.77010E+05
 0.78599998E+02  0.70412E+05
 0.78649994E+02  0.55751E+05
 0.78699997E+02  0.33014E+05
 0.78749992E+02  0.12107E+05
 0.78799995E+02 -0.24843E+04
 0.78849998E+02 -0.12006E+05
 0.78899994E+02 -0.11508E+05
 0.78949997E+02 -0.42319E+04
 0.78999992E+02  0.14220E+04
 0.79049995E+02  0.11882E+04
 0.79099998E+02 -0.59035E+04
 0.79149994E+02 -0.13188E+05
 0.79199997E+02 -0.93426E+04
 0.79249992E+02  0.69914E+04
 0.79299995E+02  0.31622E+05
 0.79349998E+02  0.60236E+05
 0.79399994E+02  0.85640E+05
 0.79449997E+02  0.10401E+06
 0.79499992E+02  0.11110E+06
 0.79549995E+02  0.10922E+06
 0.79599998E+02  0.10733E+06
 0.79649994E+02  0.11268E+06
 0.79699997E+02  0.12398E+06
 0.79749992E+02  0.13013E+06
 0.79799995E+02  0.12246E+06
 0.79849998E+02  0.10333E+06
 0.79899994E+02  0.76152E+05
 0.79949997E+02  0.42791E+05
 0.79999992E+02  0.15428E+05
 0.80049995E+02 -0.46418E+04
 0.80099998E+02 -0.20352E+05
 0.80149994E+02 -0.36850E+05
 0.80199997E+02 -0.59850E+05
 0.80249992E+02 -0.83709E+05
 0.80299995E+02 -0.10449E+06
 0.80349998E+02 -0.12287E+06
 0.80399994E+02 -0.13410E+06
 0.80449997E+02 -0.13865E+06
 0.80499992E+02 -0.14103E+06
 0.80549995E+02 -0.13852E+06
 0.80599998E+02 -0.12629E+06
 0.80649994E+02 -0.10606E+06
 0.80699997E+02 -0.82191E+05
 0.80749992E+02 -0.59732E+05
 0.80799995E+02 -0.43930E+05
 0.80849998E+02 -0.36567E+05
 0.80899994E+02 -0.42649E+05
 0.80949997E+02 -0.56082E+05
 0.80999992E+02 -0.71885E+05
 0.81049995E+02 -0.86866E+05
 0.81099998E+02 -0.96860E+05
 0.81149994E+02 -0.10264E+06
 0.81199997E+02 -0.10464E+06
 0.81249992E+02 -0.10440E+06
 0.81299995E+02 -0.98174E+05
 0.81349998E+02 -0.82864E+05
 0.81399994E+02 -0.64215E+05
 0.81449997E+02 -0.49145E+05
 0.81499992E+02 -0.35802E+05
 0.81549995E+02 -0.25366E+05
 0.81599998E+02 -0.21034E+05
 0.81649994E+02 -0.22784E+05
 0.81699997E+02 -0.28927E+05
 0.81749992E+02 -0.38653E+05
 0.81799995E+02 -0.54518E+05
 0.81849998E+02 -0.74476E+05
 0.81899994E+02 -0.93456E+05
 0.81949997E+02 -0.10638E+06
 0.81999992E+02 -0.11209E+06
 0.82049995E+02 -0.11430E+06
 0.82099998E+02 -0.11328E+06
 0.82149994E+02 -0.10797E+06
 0.82199997E+02 -0.10064E+06
 0.82249992E+02 -0.91581E+05
 0.82299995E+02 -0.84505E+05
 0.82349998E+02 -0.81041E+05
 0.82399994E+02 -0.78576E+05
 0.82449997E+02 -0.75099E+05
 0.82499992E+02 -0.73690E+05
 0.82549995E+02 -0.77113E+05
 0.82599998E+02 -0.84692E+05
 0.82649994E+02 -0.94805E+05
 0.82699997E+02 -0.10070E+06
 0.82749992E+02 -0.98820E+05
 0.82799995E+02 -0.90966E+05
 0.82849998E+02 -0.79909E+05
 0.82899994E+02 -0.71484E+05
 0.82949997E+02 -0.68102E+05
 0.82999992E+02 -0.62909E+05
 0.83049995E+02 -0.55354E+05
 0.83099998E+02 -0.45366E+05
 0.83149994E+02 -0.31225E+05
 0.83199997E+02 -0.14164E+05
 0.83249992E+02  0.57432E+04
 0.83299995E+02  0.26462E+05
 0.83349998E+02  0.44650E+05
 0.83399994E+02  0.53536E+05
 0.83449997E+02  0.49651E+05
 0.83499992E+02  0.41645E+05
 0.83549995E+02  0.36899E+05
 0.83599998E+02  0.35256E+05
 0.83649994E+02  0.31809E+05
 0.83699997E+02  0.25488E+05
 0.83749992E+02  0.19106E+05
 0.83799995E+02  0.12430E+05
 0.83849998E+02  0.93658E+04
 0.83899994E+02  0.85170E+04
 0.83949997E+02  0.11989E+05
 0.83999992E+02  0.22439E+05
 0.84049995E+02  0.36641E+05
 0.84099998E+02  0.53488E+05
 0.84149994E+02  0.75604E+05
 0.84199997E+02  0.10274E+06
 0.84249992E+02  0.12884E+06
 0.84299995E+02  0.14935E+06
 0.84349998E+02  0.15542E+06
 0.84399994E+02  0.14494E+06
 0.84449997E+02  0.12498E+06
 0.84499992E+02  0.10426E+06
 0.84549995E+02  0.80961E+05
 0.84599998E+02  0.53065E+05
 0.84649994E+02  0.26706E+05
 0.84699997E+02  0.24377E+04
 0.84749992E+02 -0.20716E+05
 0.84799995E+02 -0.44319E+05
 0.84849998E+02 -0.64981E+05
 0.84899994E+02 -0.75781E+05
 0.84949997E+02 -0.72114E+05
 0.84999992E+02 -0.56573E+05
 0.85049995E+02 -0.43925E+05
 0.85099998E+02 -0.43119E+05
 0.85149994E+02 -0.54426E+05
 0.85199997E+02 -0.74274E+05
 0.85249992E+02 -0.97834E+05
 0.85299995E+02 -0.12143E+06
 0.85349998E+02 -0.13922E+06
 0.85399994E+02 -0.14694E+06
 0.85449997E+02 -0.14511E+06
 0.85499992E+02 -0.13953E+06
 0.85549995E+02 -0.12937E+06
 0.85599998E+02 -0.10919E+06
 0.85649994E+02 -0.83570E+05
 0.85699997E+02 -0.63045E+05
 0.85749992E+02 -0.49009E+05
 0.85799995E+02 -0.41804E+05
 0.85849998E+02 -0.43583E+05
 0.85899994E+02 -0.49930E+05
 0.85949997E+02 -0.57112E+05
 0.85999992E+02 -0.61544E+05
 0.86049995E+02 -0.58355E+05
 0.86099998E+02 -0.47791E+05
 0.86149994E+02 -0.35008E+05
 0.86199997E+02 -0.24375E+05
 0.86249992E+02 -0.14624E+05
 0.86299995E+02 -0.87236E+03
 0.86349998E+02  0.18544E+05
 0.86399994E+02  0.40803E+05
 0.86449997E+02  0.61035E+05
 0.86499992E+02  0.81128E+05
 0.86549995E+02  0.10109E+06
 0.86599998E+02  0.11512E+06
 0.86649994E+02  0.12384E+06
 0.86699997E+02  0.13000E+06
 0.86749992E+02  0.13560E+06
 0.86799995E+02  0.13989E+06
 0.86849998E+02  0.14199E+06
 0.86899994E+02  0.14825E+06
 0.86949997E+02  0.16293E+06
 0.86999992E+02  0.18417E+06
 0.87049995E+02  0.20661E+06
 0.87099998E+02  0.22242E+06
 0.87149994E+02  0.23171E+06
 0.87199997E+02  0.23681E+06
 0.87249992E+02  0.23662E+06
 0.87299995E+02  0.22923E+06
 0.87349998E+02  0.21403E+06
 0.87399994E+02  0.19640E+06
 0.87449997E+02  0.18011E+06
 0.87499992E+02  0.16440E+06
 0.87549995E+02  0.14717E+06
 0.87599991E+02  0.13045E+06
 0.87649994E+02  0.11723E+06
 0.87699997E+02  0.10737E+06
 0.87749992E+02  0.97297E+05
 0.87799995E+02  0.82518E+05
 0.87849991E+02  0.61776E+05
 0.87899994E+02  0.35253E+05
 0.87949997E+02  0.10026E+05
 0.87999992E+02 -0.14475E+05
 0.88049995E+02 -0.42860E+05
 0.88099991E+02 -0.73918E+05
 0.88149994E+02 -0.10445E+06
 0.88199997E+02 -0.12987E+06
 0.88249992E+02 -0.14861E+06
 0.88299995E+02 -0.16041E+06
 0.88349991E+02 -0.16494E+06
 0.88399994E+02 -0.16083E+06
 0.88449997E+02 -0.15057E+06
 0.88499992E+02 -0.13886E+06
 0.88549995E+02 -0.12774E+06
 0.88599991E+02 -0.11937E+06
 0.88649994E+02 -0.11297E+06
 0.88699997E+02 -0.10417E+06
 0.88749992E+02 -0.92688E+05
 0.88799995E+02 -0.79683E+05
 0.88849991E+02 -0.69272E+05
 0.88899994E+02 -0.62306E+05
 0.88949997E+02 -0.57309E+05
 0.88999992E+02 -0.51898E+05
 0.89049995E+02 -0.42225E+05
 0.89099991E+02 -0.29958E+05
 0.89149994E+02 -0.19722E+05
 0.89199997E+02 -0.13308E+05
 0.89249992E+02 -0.12716E+05
 0.89299995E+02 -0.19191E+05
 0.89349991E+02 -0.30764E+05
 0.89399994E+02 -0.43885E+05
 0.89449997E+02 -0.56303E+05
 0.89499992E+02 -0.68445E+05
 0.89549995E+02 -0.77559E+05
 0.89599991E+02 -0.82643E+05
 0.89649994E+02 -0.85357E+05
 0.89699997E+02 -0.86784E+05
 0.89749992E+02 -0.82488E+05
 0.89799995E+02 -0.74314E+05
 0.89849991E+02 -0.66517E+05
 0.89899994E+02 -0.58536E+05
 0.89949997E+02 -0.50263E+05
 0.89999992E+02 -0.38585E+05
 0.90049995E+02 -0.24158E+05
 0.90099991E+02 -0.13651E+05
 0.90149994E+02 -0.12941E+05
 0.90199997E+02 -0.20804E+05
 0.90249992E+02 -0.33901E+05
 0.90299995E+02 -0.51172E+05
 0.90349991E+02 -0.71293E+05
 0.90399994E+02 -0.88679E+05
 0.90449997E+02 -0.99481E+05
 0.90499992E+02 -0.10280E+06
 0.90549995E+02 -0.96947E+05
 0.90599991E+02 -0.84918E+05
 0.90649994E+02 -0.72758E+05
 0.90699997E+02 -0.63183E+05
 0.90749992E+02 -0.54304E+05
 0.90799995E+02 -0.46129E+05
 0.90849991E+02 -0.40368E+05
 0.90899994E+02 -0.36656E+05
 0.90949997E+02 -0.32042E+05
 0.90999992E+02 -0.22856E+05
 0.91049995E+02 -0.73249E+04
 0.91099991E+02  0.12136E+05
 0.91149994E+02  0.29452E+05
 0.91199997E+02  0.40544E+05
 0.91249992E+02  0.45308E+05
 0.91299995E+02  0.47004E+05
 0.91349991E+02  0.48985E+05
 0.91399994E+02  0.54591E+05
 0.91449997E+02  0.63825E+05
 0.91499992E+02  0.72760E+05
 0.91549995E+02  0.79733E+05
 0.91599991E+02  0.85281E+05
 0.91649994E+02  0.89273E+05
 0.91699997E+02  0.90015E+05
 0.91749992E+02  0.89456E+05
 0.91799995E+02  0.91285E+05
 0.91849991E+02  0.95384E+05
 0.91899994E+02  0.10104E+06
 0.91949997E+02  0.10635E+06
 0.91999992E+02  0.10700E+06
 0.92049995E+02  0.10053E+06
 0.92099991E+02  0.90262E+05
 0.92149994E+02  0.78222E+05
 0.92199997E+02  0.64283E+05
 0.92249992E+02  0.45766E+05
 0.92299995E+02  0.20044E+05
 0.92349991E+02 -0.93367E+04
 0.92399994E+02 -0.38587E+05
 0.92449997E+02 -0.63529E+05
 0.92499992E+02 -0.82628E+05
 0.92549995E+02 -0.99193E+05
 0.92599991E+02 -0.11408E+06
 0.92649994E+02 -0.12470E+06
 0.92699997E+02 -0.12712E+06
 0.92749992E+02 -0.12151E+06
 0.92799995E+02 -0.11097E+06
 0.92849991E+02 -0.95307E+05
 0.92899994E+02 -0.79859E+05
 0.92949997E+02 -0.67284E+05
 0.92999992E+02 -0.54823E+05
 0.93049995E+02 -0.44583E+05
 0.93099991E+02 -0.38226E+05
 0.93149994E+02 -0.31238E+05
 0.93199997E+02 -0.21930E+05
 0.93249992E+02 -0.11809E+05
 0.93299995E+02  0.46380E+03
 0.93349991E+02  0.12853E+05
 0.93399994E+02  0.27297E+05
 0.93449997E+02  0.45775E+05
 0.93499992E+02  0.66456E+05
 0.93549995E+02  0.88592E+05
 0.93599991E+02  0.11080E+06
 0.93649994E+02  0.13195E+06
 0.93699997E+02  0.15314E+06
 0.93749992E+02  0.17282E+06
 0.93799995E+02  0.18657E+06
 0.93849991E+02  0.19395E+06
 0.93899994E+02  0.19448E+06
 0.93949997E+02  0.18871E+06
 0.93999992E+02  0.17585E+06
 0.94049995E+02  0.15716E+06
 0.94099991E+02  0.13593E+06
 0.94149994E+02  0.11329E+06
 0.94199997E+02  0.90932E+05
 0.94249992E+02  0.71594E+05
 0.94299995E+02  0.57937E+05
 0.94349991E+02  0.50177E+05
 0.94399994E+02  0.47453E+05
 0.94449997E+02  0.46168E+05
 0.94499992E+02  0.41401E+05
 0.94549995E+02  0.31273E+05
 0.94599991E+02  0.16263E+05
 0.94649994E+02 -0.40168E+04
 0.94699997E+02 -0.26118E+05
 0.94749992E+02 -0.47138E+05
 0.94799995E+02 -0.64047E+05
 0.94849991E+02 -0.73664E+05
 0.94899994E+02 -0.77906E+05
 0.94949997E+02 -0.79855E+05
 0.94999992E+02 -0.77874E+05
 0.95049995E+02 -0.70308E+05
 0.95099991E+02 -0.59863E+05
 0.95149994E+02 -0.46761E+05
 0.95199997E+02 -0.33553E+05
 0.95249992E+02 -0.20482E+05
 0.95299995E+02 -0.67922E+04
 0.95349991E+02  0.52922E+04
 0.95399994E+02  0.12577E+05
 0.95449997E+02  0.10770E+05
 0.95499992E+02  0.10498E+04
 0.95549995E+02 -0.84026E+04
 0.95599991E+02 -0.14606E+05
 0.95649994E+02 -0.19074E+05
 0.95699997E+02 -0.20557E+05
 0.95749992E+02 -0.16501E+05
 0.95799995E+02 -0.64778E+04
 0.95849991E+02  0.57094E+04
 0.95899994E+02  0.18126E+05
 0.95949997E+02  0.28465E+05
 0.95999992E+02  0.39700E+05
 0.96049995E+02  0.54245E+05
 0.96099991E+02  0.66913E+05
 0.96149994E+02  0.76081E+05
 0.96199997E+02  0.81486E+05
 0.96249992E+02  0.84049E+05
 0.96299995E+02  0.82037E+05
 0.96349991E+02  0.75339E+05
 0.96399994E+02  0.68174E+05
 0.96449997E+02  0.59998E+05
 0.96499992E+02  0.50945E+05
 0.96549995E+02  0.43892E+05
 0.96599991E+02  0.37638E+05
 0.96649994E+02  0.28272E+05
 0.96699997E+02  0.18098E+05
 0.96749992E+02  0.11813E+05
 0.96799995E+02  0.11440E+05
 0.96849991E+02  0.14629E+05
 0.96899994E+02  0.19343E+05
 0.96949997E+02  0.24770E+05
 0.96999992E+02  0.31145E+05
 0.97049995E+02  0.37735E+05
 0.97099991E+02  0.42209E+05
 0.97149994E+02  0.46789E+05
 0.97199997E+02  0.53828E+05
 0.97249992E+02  0.62752E+05
 0.97299995E+02  0.73034E+05
 0.97349991E+02  0.85551E+05
 0.97399994E+02  0.95976E+05
 0.97449997E+02  0.10414E+06
 0.97499992E+02  0.10968E+06
 0.97549995E+02  0.11002E+06
 0.97599991E+02  0.10615E+06
 0.97649994E+02  0.10164E+06
 0.97699997E+02  0.99301E+05
 0.97749992E+02  0.98094E+05
 0.97799995E+02  0.97749E+05
 0.97849991E+02  0.96821E+05
 0.97899994E+02  0.96024E+05
 0.97949997E+02  0.92462E+05
 0.97999992E+02  0.84466E+05
