-0.20000000E+01 -0.11392E+04
-0.19500000E+01 -0.11243E+04
-0.19000000E+01 -0.11241E+04
-0.18500000E+01 -0.11277E+04
-0.18000000E+01 -0.11231E+04
-0.17500000E+01 -0.11192E+04
-0.17000000E+01 -0.11201E+04
-0.16500001E+01 -0.11204E+04
-0.16000000E+01 -0.11176E+04
-0.15500000E+01 -0.11270E+04
-0.15000000E+01 -0.11226E+04
-0.14500000E+01 -0.11094E+04
-0.14000001E+01 -0.11086E+04
-0.13500000E+01 -0.11103E+04
-0.13000001E+01 -0.11057E+04
-0.12500000E+01 -0.10913E+04
-0.12000000E+01 -0.10914E+04
-0.11500001E+01 -0.11051E+04
-0.11000000E+01 -0.11188E+04
-0.10500001E+01 -0.11255E+04
-0.10000000E+01 -0.11157E+04
-0.95000005E+00 -0.11050E+04
-0.90000010E+00 -0.11027E+04
-0.85000002E+00 -0.11018E+04
-0.80000007E+00 -0.11011E+04
-0.75000012E+00 -0.11071E+04
-0.70000005E+00 -0.11114E+04
-0.65000010E+00 -0.11164E+04
-0.60000014E+00 -0.11257E+04
-0.55000007E+00 -0.11278E+04
-0.50000012E+00 -0.11198E+04
-0.45000005E+00 -0.11075E+04
-0.40000010E+00 -0.11103E+04
-0.35000014E+00 -0.11170E+04
-0.30000007E+00 -0.11221E+04
-0.25000012E+00 -0.11256E+04
-0.20000005E+00 -0.11286E+04
-0.15000010E+00 -0.11249E+04
-0.10000014E+00 -0.11089E+04
-0.50000072E-01 -0.11060E+04
-0.11920929E-06 -0.11092E+04
 0.49999952E-01 -0.11258E+04
 0.99999905E-01 -0.11348E+04
 0.14999986E+00 -0.11327E+04
 0.19999981E+00 -0.11329E+04
 0.24999976E+00 -0.11201E+04
 0.29999995E+00 -0.11055E+04
 0.34999990E+00 -0.10930E+04
 0.39999986E+00 -0.10870E+04
 0.44999981E+00 -0.10875E+04
 0.49999976E+00 -0.10922E+04
 0.54999995E+00 -0.10910E+04
 0.59999990E+00 -0.10955E+04
 0.64999986E+00 -0.10933E+04
 0.69999981E+00 -0.10875E+04
 0.74999976E+00 -0.10825E+04
 0.79999971E+00 -0.10745E+04
 0.84999990E+00 -0.10730E+04
 0.89999986E+00 -0.10744E+04
 0.94999981E+00 -0.10902E+04
 0.99999976E+00 -0.11010E+04
 0.10499997E+01 -0.11138E+04
 0.10999999E+01 -0.11298E+04
 0.11499999E+01 -0.11465E+04
 0.11999998E+01 -0.11624E+04
 0.12499998E+01 -0.11606E+04
 0.12999997E+01 -0.11545E+04
 0.13499999E+01 -0.11433E+04
 0.13999999E+01 -0.11342E+04
 0.14499998E+01 -0.11352E+04
 0.14999998E+01 -0.11350E+04
 0.15499997E+01 -0.11242E+04
 0.15999999E+01 -0.11143E+04
 0.16499999E+01 -0.11085E+04
 0.16999998E+01 -0.11082E+04
 0.17499998E+01 -0.11123E+04
 0.17999997E+01 -0.11160E+04
 0.18499997E+01 -0.11290E+04
 0.18999999E+01 -0.11273E+04
 0.19499998E+01 -0.11122E+04
 0.19999998E+01 -0.11082E+04
 0.20499997E+01 -0.11030E+04
 0.20999999E+01 -0.11063E+04
 0.21499996E+01 -0.11170E+04
 0.21999998E+01 -0.11294E+04
 0.22499995E+01 -0.11423E+04
 0.22999997E+01 -0.11503E+04
 0.23499999E+01 -0.11542E+04
 0.23999996E+01 -0.11474E+04
 0.24499998E+01 -0.11328E+04
 0.24999995E+01 -0.11261E+04
 0.25499997E+01 -0.11187E+04
 0.25999999E+01 -0.11106E+04
 0.26499996E+01 -0.11095E+04
 0.26999998E+01 -0.11012E+04
 0.27499995E+01 -0.11113E+04
 0.27999997E+01 -0.11207E+04
 0.28499999E+01 -0.11280E+04
 0.28999996E+01 -0.11371E+04
 0.29499998E+01 -0.11383E+04
 0.29999995E+01 -0.11384E+04
 0.30499997E+01 -0.11423E+04
 0.30999999E+01 -0.11411E+04
 0.31499996E+01 -0.11377E+04
 0.31999998E+01 -0.11351E+04
 0.32499995E+01 -0.11284E+04
 0.32999997E+01 -0.11262E+04
 0.33499999E+01 -0.11318E+04
 0.33999996E+01 -0.11437E+04
 0.34499998E+01 -0.11563E+04
 0.34999995E+01 -0.11564E+04
 0.35499997E+01 -0.11452E+04
 0.35999994E+01 -0.11240E+04
 0.36499996E+01 -0.10991E+04
 0.36999998E+01 -0.10806E+04
 0.37499995E+01 -0.10673E+04
 0.37999997E+01 -0.10729E+04
 0.38499994E+01 -0.10820E+04
 0.38999996E+01 -0.10930E+04
 0.39499998E+01 -0.10876E+04
 0.39999995E+01 -0.10778E+04
 0.40499997E+01 -0.10721E+04
 0.40999994E+01 -0.10802E+04
 0.41499996E+01 -0.10989E+04
 0.41999998E+01 -0.11044E+04
 0.42499995E+01 -0.11042E+04
 0.42999997E+01 -0.11015E+04
 0.43499994E+01 -0.10995E+04
 0.43999996E+01 -0.10941E+04
 0.44499998E+01 -0.11061E+04
 0.44999995E+01 -0.11099E+04
 0.45499997E+01 -0.11065E+04
 0.45999994E+01 -0.11038E+04
 0.46499996E+01 -0.11016E+04
 0.46999998E+01 -0.11082E+04
 0.47499995E+01 -0.11097E+04
 0.47999997E+01 -0.11096E+04
 0.48499994E+01 -0.11101E+04
 0.48999996E+01 -0.11156E+04
 0.49499998E+01 -0.11129E+04
 0.49999995E+01 -0.11156E+04
 0.50499997E+01 -0.11141E+04
 0.50999994E+01 -0.11076E+04
 0.51499996E+01 -0.10973E+04
 0.51999998E+01 -0.10794E+04
 0.52499995E+01 -0.10736E+04
 0.52999997E+01 -0.10764E+04
 0.53499994E+01 -0.10784E+04
 0.53999996E+01 -0.10860E+04
 0.54499993E+01 -0.10962E+04
 0.54999995E+01 -0.10981E+04
 0.55499997E+01 -0.11095E+04
 0.55999994E+01 -0.11132E+04
 0.56499996E+01 -0.11162E+04
 0.56999993E+01 -0.11215E+04
 0.57499995E+01 -0.11138E+04
 0.57999997E+01 -0.11074E+04
 0.58499994E+01 -0.11121E+04
 0.58999996E+01 -0.11166E+04
 0.59499993E+01 -0.11207E+04
 0.59999995E+01 -0.11335E+04
 0.60499992E+01 -0.11341E+04
 0.60999994E+01 -0.11338E+04
 0.61499996E+01 -0.11406E+04
 0.61999998E+01 -0.11523E+04
 0.62499990E+01 -0.11584E+04
 0.62999992E+01 -0.11735E+04
 0.63499994E+01 -0.11764E+04
 0.63999996E+01 -0.11550E+04
 0.64499998E+01 -0.11479E+04
 0.64999990E+01 -0.11370E+04
 0.65499992E+01 -0.11359E+04
 0.65999994E+01 -0.11326E+04
 0.66499996E+01 -0.11169E+04
 0.66999998E+01 -0.11172E+04
 0.67499990E+01 -0.11009E+04
 0.67999992E+01 -0.10984E+04
 0.68499994E+01 -0.10904E+04
 0.68999996E+01 -0.10720E+04
 0.69499998E+01 -0.10731E+04
 0.69999990E+01 -0.10730E+04
 0.70499992E+01 -0.10725E+04
 0.70999994E+01 -0.10771E+04
 0.71499996E+01 -0.10958E+04
 0.71999998E+01 -0.10985E+04
 0.72499990E+01 -0.11046E+04
 0.72999992E+01 -0.11009E+04
 0.73499994E+01 -0.11132E+04
 0.73999996E+01 -0.11272E+04
 0.74499998E+01 -0.11219E+04
 0.74999990E+01 -0.11308E+04
 0.75499992E+01 -0.11364E+04
 0.75999994E+01 -0.11365E+04
 0.76499996E+01 -0.11081E+04
 0.76999998E+01 -0.10895E+04
 0.77499990E+01 -0.11062E+04
 0.77999992E+01 -0.11171E+04
 0.78499994E+01 -0.11526E+04
 0.78999996E+01 -0.10667E+04
 0.79499998E+01 -0.12006E+04
 0.79999990E+01 -0.11289E+04
 0.80499992E+01 -0.11868E+04
 0.80999994E+01 -0.11139E+04
 0.81499996E+01 -0.11346E+04
 0.81999998E+01 -0.11189E+04
 0.82499990E+01 -0.94893E+03
 0.82999992E+01 -0.10406E+04
 0.83499994E+01 -0.71166E+03
 0.83999996E+01 -0.92577E+03
 0.84499998E+01 -0.78718E+03
 0.84999990E+01 -0.10005E+04
 0.85499992E+01 -0.42777E+03
 0.85999994E+01 -0.10269E+04
 0.86499996E+01 -0.43912E+04
 0.86999998E+01 -0.69186E+04
 0.87499990E+01 -0.81376E+03
 0.87999992E+01  0.12982E+04
 0.88499994E+01  0.59429E+03
 0.88999996E+01 -0.15469E+04
 0.89499998E+01 -0.13020E+04
 0.89999990E+01  0.89033E+04
 0.90499992E+01 -0.51878E+04
 0.90999994E+01 -0.27977E+04
 0.91499996E+01 -0.29346E+04
 0.91999989E+01 -0.27448E+04
 0.92499990E+01 -0.30849E+04
 0.92999992E+01 -0.40598E+04
 0.93499994E+01  0.10013E+05
 0.93999996E+01 -0.17985E+05
 0.94499989E+01 -0.33411E+04
 0.94999990E+01 -0.10573E+04
 0.95499992E+01 -0.58223E+04
 0.95999994E+01  0.11223E+05
 0.96499996E+01  0.70067E+04
 0.96999989E+01 -0.36531E+03
 0.97499990E+01 -0.11397E+05
 0.97999992E+01  0.54150E+04
 0.98499994E+01 -0.40108E+04
 0.98999996E+01 -0.16070E+05
 0.99499989E+01 -0.63235E+04
 0.99999990E+01  0.12823E+05
 0.10049999E+02 -0.36521E+04
 0.10099999E+02  0.26952E+04
 0.10150000E+02  0.20165E+04
 0.10199999E+02 -0.59026E+04
 0.10249999E+02  0.19218E+05
 0.10299999E+02 -0.18841E+04
 0.10349999E+02 -0.32410E+04
 0.10400000E+02 -0.21403E+05
 0.10449999E+02  0.85440E+04
 0.10499999E+02 -0.39940E+04
 0.10549999E+02 -0.31850E+05
 0.10599999E+02 -0.37818E+04
 0.10650000E+02  0.60042E+04
 0.10699999E+02  0.24190E+05
 0.10749999E+02 -0.58954E+04
 0.10799999E+02  0.29780E+05
 0.10849999E+02 -0.24747E+04
 0.10900000E+02 -0.17997E+05
 0.10949999E+02  0.23101E+03
 0.10999999E+02 -0.10118E+05
 0.11049999E+02  0.72611E+04
 0.11099999E+02 -0.24479E+05
 0.11150000E+02  0.24927E+04
 0.11199999E+02  0.26267E+04
 0.11249999E+02  0.98191E+04
 0.11299999E+02  0.24287E+05
 0.11349999E+02  0.62181E+04
 0.11400000E+02 -0.17909E+05
 0.11449999E+02 -0.23126E+05
 0.11499999E+02 -0.92860E+03
 0.11549999E+02  0.14136E+05
 0.11599999E+02  0.20162E+04
 0.11650000E+02 -0.72979E+03
 0.11699999E+02 -0.17948E+04
 0.11749999E+02 -0.23907E+05
 0.11799999E+02  0.61440E+04
 0.11849999E+02  0.20826E+05
 0.11900000E+02  0.35541E+04
 0.11949999E+02 -0.96811E+04
 0.11999999E+02 -0.94255E+04
 0.12049999E+02  0.30332E+04
 0.12099999E+02 -0.24051E+04
 0.12150000E+02  0.56877E+04
 0.12199999E+02  0.34762E+04
 0.12249999E+02 -0.17302E+05
 0.12299999E+02 -0.12269E+05
 0.12349999E+02 -0.32899E+04
 0.12400000E+02  0.56607E+04
 0.12449999E+02  0.11849E+05
 0.12499999E+02 -0.59521E+04
 0.12549999E+02 -0.30134E+04
 0.12599999E+02  0.59919E+03
 0.12649999E+02 -0.41173E+04
 0.12699999E+02  0.14709E+05
 0.12749999E+02  0.13996E+04
 0.12799999E+02 -0.10844E+05
 0.12849999E+02 -0.33285E+04
 0.12899999E+02 -0.35605E+04
 0.12949999E+02 -0.51044E+04
 0.12999999E+02 -0.14117E+04
 0.13049999E+02  0.24260E+04
 0.13099999E+02  0.24635E+04
 0.13149999E+02  0.26790E+04
 0.13199999E+02 -0.21608E+04
 0.13249999E+02  0.23232E+04
 0.13299999E+02 -0.91671E+03
 0.13349999E+02 -0.28258E+04
 0.13399999E+02 -0.36269E+04
 0.13449999E+02 -0.12455E+04
 0.13499999E+02 -0.14781E+05
 0.13549999E+02 -0.19479E+04
 0.13599999E+02  0.14389E+05
 0.13649999E+02 -0.29488E+04
 0.13699999E+02 -0.19518E+04
 0.13749999E+02 -0.50071E+04
 0.13799999E+02 -0.75047E+04
 0.13849999E+02 -0.22178E+04
 0.13899999E+02  0.88089E+04
 0.13949999E+02  0.11774E+04
 0.13999999E+02 -0.29131E+04
 0.14049999E+02 -0.37158E+04
 0.14099998E+02 -0.22832E+04
 0.14150000E+02  0.71995E+04
 0.14199999E+02 -0.63293E+04
 0.14249998E+02 -0.35038E+04
 0.14299999E+02  0.38134E+04
 0.14349998E+02 -0.78177E+04
 0.14400000E+02  0.46375E+04
 0.14449999E+02 -0.20107E+05
 0.14499998E+02 -0.29857E+05
 0.14549999E+02  0.28310E+05
 0.14599998E+02  0.28778E+05
 0.14650000E+02 -0.30317E+05
 0.14699999E+02  0.26709E+05
 0.14749998E+02 -0.17321E+05
 0.14799999E+02  0.13383E+05
 0.14849998E+02 -0.81430E+04
 0.14900000E+02 -0.26510E+05
 0.14949999E+02  0.12632E+05
 0.14999998E+02 -0.60345E+05
 0.15049999E+02  0.30515E+05
 0.15099998E+02  0.17940E+05
 0.15150000E+02 -0.37463E+05
 0.15199999E+02 -0.19734E+04
 0.15249998E+02  0.77949E+05
 0.15299999E+02 -0.43360E+05
 0.15349998E+02  0.24676E+05
 0.15400000E+02  0.12655E+05
 0.15449999E+02  0.67887E+04
 0.15499998E+02  0.23868E+05
 0.15549999E+02 -0.53318E+05
 0.15599998E+02 -0.13081E+05
 0.15650000E+02 -0.27665E+05
 0.15699999E+02  0.93681E+05
 0.15749998E+02 -0.37757E+05
 0.15799999E+02  0.22297E+04
 0.15849998E+02 -0.26402E+04
 0.15900000E+02 -0.71229E+05
 0.15949999E+02  0.98305E+04
 0.15999998E+02  0.23959E+05
 0.16049999E+02  0.67631E+05
 0.16099998E+02 -0.23621E+05
 0.16150000E+02 -0.82589E+04
 0.16199999E+02 -0.18239E+05
 0.16249998E+02 -0.52758E+05
 0.16299999E+02 -0.71964E+03
 0.16349998E+02  0.94169E+05
 0.16400000E+02 -0.10575E+04
 0.16449999E+02 -0.84070E+05
 0.16499998E+02 -0.96627E+04
 0.16549999E+02 -0.76639E+05
 0.16599998E+02  0.12287E+05
 0.16650000E+02  0.89001E+05
 0.16699999E+02  0.25445E+05
 0.16749998E+02  0.21284E+04
 0.16799999E+02  0.45061E+05
 0.16849998E+02 -0.17968E+05
 0.16900000E+02 -0.37787E+05
 0.16949999E+02  0.19450E+05
 0.16999998E+02 -0.51275E+05
 0.17049999E+02 -0.13621E+05
 0.17099998E+02 -0.62862E+04
 0.17150000E+02 -0.35055E+05
 0.17199999E+02  0.42440E+04
 0.17249998E+02  0.14732E+05
 0.17299999E+02  0.17661E+05
 0.17349998E+02  0.20910E+05
 0.17400000E+02  0.65795E+04
 0.17449999E+02 -0.32572E+05
 0.17499998E+02 -0.12662E+05
 0.17549999E+02  0.70396E+05
 0.17599998E+02  0.31669E+05
 0.17650000E+02  0.17909E+05
 0.17699999E+02 -0.63323E+05
 0.17749998E+02  0.17586E+05
 0.17799999E+02  0.35985E+05
 0.17849998E+02 -0.60742E+05
 0.17900000E+02 -0.67600E+03
 0.17949999E+02 -0.98371E+05
 0.17999998E+02 -0.14675E+05
 0.18049999E+02  0.48863E+05
 0.18099998E+02  0.25455E+05
 0.18150000E+02  0.31340E+05
 0.18199999E+02 -0.22907E+05
 0.18249998E+02 -0.51813E+05
 0.18299999E+02 -0.14455E+04
 0.18349998E+02  0.81735E+05
 0.18400000E+02  0.68493E+05
 0.18449999E+02  0.92924E+04
 0.18499998E+02 -0.17837E+05
 0.18549999E+02 -0.43695E+05
 0.18599998E+02 -0.45582E+05
 0.18650000E+02 -0.58826E+04
 0.18699999E+02  0.27916E+04
 0.18749998E+02 -0.30153E+05
 0.18799999E+02 -0.16930E+05
 0.18849998E+02 -0.30303E+04
 0.18900000E+02  0.11584E+05
 0.18949999E+02  0.22004E+05
 0.18999998E+02  0.30186E+05
 0.19049999E+02  0.76376E+03
 0.19099998E+02 -0.36572E+05
 0.19150000E+02 -0.11051E+05
 0.19199999E+02  0.22372E+05
 0.19249998E+02  0.51383E+05
 0.19299999E+02  0.22547E+05
 0.19349998E+02 -0.28738E+05
 0.19400000E+02 -0.49672E+05
 0.19449999E+02 -0.52972E+05
 0.19499998E+02 -0.50562E+04
 0.19549999E+02  0.11243E+05
 0.19599998E+02  0.37401E+05
 0.19650000E+02  0.64681E+05
 0.19699999E+02 -0.20732E+05
 0.19749998E+02 -0.45979E+05
 0.19799999E+02 -0.16176E+05
 0.19849998E+02 -0.13499E+05
 0.19900000E+02  0.60934E+04
 0.19949999E+02  0.35135E+04
 0.19999998E+02  0.11080E+05
 0.20049999E+02  0.17994E+05
 0.20099998E+02 -0.99747E+03
 0.20150000E+02 -0.13705E+05
 0.20199999E+02 -0.35343E+05
 0.20249998E+02  0.11130E+05
 0.20299999E+02  0.35635E+05
 0.20349998E+02  0.90074E+03
 0.20399998E+02  0.64054E+04
 0.20449999E+02  0.25988E+04
 0.20499998E+02 -0.12432E+05
 0.20549999E+02  0.33217E+04
 0.20599998E+02 -0.16725E+05
 0.20649998E+02  0.31692E+05
 0.20699999E+02  0.23184E+05
 0.20749998E+02 -0.23284E+05
 0.20799999E+02 -0.13754E+05
 0.20849998E+02 -0.37248E+05
 0.20899998E+02 -0.14937E+05
 0.20949999E+02 -0.16240E+05
 0.20999998E+02 -0.27722E+05
 0.21049999E+02 -0.61947E+03
 0.21099998E+02  0.41059E+05
 0.21149998E+02  0.29810E+05
 0.21199999E+02  0.23603E+05
 0.21249998E+02  0.16983E+05
 0.21299999E+02 -0.26524E+05
 0.21349998E+02 -0.21923E+05
 0.21399998E+02 -0.18015E+05
 0.21449999E+02 -0.17661E+05
 0.21499998E+02 -0.11002E+05
 0.21549999E+02  0.31541E+05
 0.21599998E+02  0.28411E+04
 0.21649998E+02 -0.30210E+05
 0.21699999E+02 -0.42142E+04
 0.21749998E+02 -0.12384E+05
 0.21799999E+02  0.33038E+05
 0.21849998E+02  0.32892E+05
 0.21899998E+02 -0.62409E+04
 0.21949999E+02 -0.53088E+04
 0.21999998E+02  0.15847E+05
 0.22049999E+02  0.12461E+05
 0.22099998E+02 -0.17449E+05
 0.22149998E+02 -0.41973E+05
 0.22199999E+02 -0.30773E+05
 0.22249998E+02  0.51167E+04
 0.22299999E+02  0.55918E+04
 0.22349998E+02 -0.10055E+05
 0.22399998E+02 -0.16707E+05
 0.22449999E+02  0.53569E+04
 0.22499998E+02  0.26402E+05
 0.22549999E+02  0.27803E+05
 0.22599998E+02  0.98728E+04
 0.22649998E+02 -0.20686E+05
 0.22699999E+02 -0.21077E+05
 0.22749998E+02 -0.15765E+05
 0.22799999E+02 -0.55155E+04
 0.22849998E+02  0.10203E+05
 0.22899998E+02  0.39523E+04
 0.22949999E+02 -0.23133E+05
 0.22999998E+02 -0.13377E+05
 0.23049999E+02  0.10982E+05
 0.23099998E+02  0.79561E+04
 0.23149998E+02  0.18017E+05
 0.23199999E+02  0.13420E+05
 0.23249998E+02 -0.10101E+05
 0.23299999E+02 -0.10677E+05
 0.23349998E+02 -0.12268E+05
 0.23399998E+02 -0.12764E+05
 0.23449999E+02  0.12316E+05
 0.23499998E+02  0.18999E+05
 0.23549999E+02  0.22754E+05
 0.23599998E+02 -0.40291E+04
 0.23649998E+02 -0.13476E+05
 0.23699999E+02  0.16284E+05
 0.23749998E+02  0.13591E+05
 0.23799999E+02  0.79476E+04
 0.23849998E+02 -0.92639E+04
 0.23899998E+02 -0.82809E+04
 0.23949999E+02 -0.58975E+02
 0.23999998E+02 -0.55154E+04
 0.24049999E+02 -0.36239E+04
 0.24099998E+02 -0.50731E+04
 0.24149998E+02 -0.11426E+05
 0.24199999E+02 -0.16428E+05
 0.24249998E+02 -0.14169E+05
 0.24299999E+02  0.30961E+04
 0.24349998E+02  0.16202E+05
 0.24399998E+02  0.44688E+04
 0.24449999E+02 -0.15530E+04
 0.24499998E+02 -0.13582E+05
 0.24549999E+02 -0.21563E+05
 0.24599998E+02 -0.15394E+05
 0.24649998E+02 -0.29830E+04
 0.24699999E+02 -0.16647E+04
 0.24749998E+02  0.53247E+04
 0.24799999E+02  0.12647E+05
 0.24849998E+02  0.69930E+04
 0.24899998E+02  0.26342E+04
 0.24949999E+02  0.13924E+05
 0.24999998E+02  0.23233E+05
 0.25049999E+02  0.93956E+04
 0.25099998E+02 -0.63743E+04
 0.25149998E+02 -0.17108E+05
 0.25199999E+02 -0.16385E+05
 0.25249998E+02 -0.10265E+05
 0.25299999E+02 -0.40993E+04
 0.25349998E+02  0.48879E+04
 0.25399998E+02  0.51478E+04
 0.25449999E+02 -0.19382E+05
 0.25499998E+02 -0.27766E+05
 0.25549999E+02 -0.11731E+05
 0.25599998E+02  0.85100E+04
 0.25649998E+02  0.23084E+05
 0.25699999E+02  0.25106E+05
 0.25749998E+02  0.78654E+04
 0.25799999E+02  0.59898E+04
 0.25849998E+02  0.98339E+04
 0.25899998E+02 -0.49191E+04
 0.25949999E+02 -0.19227E+05
 0.25999998E+02 -0.20021E+05
 0.26049999E+02 -0.11257E+05
 0.26099998E+02  0.95994E+04
 0.26149998E+02  0.92828E+04
 0.26199999E+02 -0.42022E+04
 0.26249998E+02  0.13491E+04
 0.26299999E+02 -0.50399E+04
 0.26349998E+02 -0.35620E+04
 0.26399998E+02  0.77739E+04
 0.26449999E+02  0.48129E+04
 0.26499998E+02  0.29386E+04
 0.26549999E+02  0.11900E+04
 0.26599998E+02 -0.12447E+05
 0.26649998E+02 -0.48910E+04
 0.26699999E+02  0.57414E+04
 0.26749998E+02  0.60877E+04
 0.26799999E+02 -0.24922E+04
 0.26849998E+02 -0.21861E+05
 0.26899998E+02 -0.25795E+05
 0.26949999E+02 -0.14042E+05
 0.26999998E+02  0.21892E+04
 0.27049997E+02  0.19305E+05
 0.27099998E+02  0.18657E+05
 0.27149998E+02  0.64701E+04
 0.27199999E+02  0.54611E+04
 0.27249998E+02  0.14193E+03
 0.27299997E+02  0.16657E+04
 0.27349998E+02  0.52484E+03
 0.27399998E+02 -0.71149E+04
 0.27449999E+02 -0.12977E+05
 0.27499998E+02 -0.16871E+05
 0.27549997E+02 -0.16346E+05
 0.27599998E+02 -0.11041E+05
 0.27649998E+02 -0.64317E+04
 0.27699999E+02 -0.54387E+04
 0.27749998E+02  0.71487E+04
 0.27799997E+02  0.11809E+05
 0.27849998E+02  0.14417E+05
 0.27899998E+02  0.19370E+05
 0.27949999E+02  0.19116E+05
 0.27999998E+02  0.11912E+05
 0.28049997E+02 -0.54355E+04
 0.28099998E+02 -0.25958E+05
 0.28149998E+02 -0.21987E+05
 0.28199999E+02 -0.12682E+04
 0.28249998E+02  0.12370E+04
 0.28299997E+02  0.32696E+04
 0.28349998E+02  0.48318E+04
 0.28399998E+02  0.39898E+04
 0.28449999E+02  0.38371E+04
 0.28499998E+02  0.15081E+04
 0.28549997E+02 -0.65041E+04
 0.28599998E+02 -0.21171E+05
 0.28649998E+02 -0.12490E+05
 0.28699999E+02 -0.99959E+03
 0.28749998E+02  0.21876E+04
 0.28799997E+02  0.38961E+04
 0.28849998E+02 -0.53989E+03
 0.28899998E+02  0.98388E+04
 0.28949999E+02  0.14393E+05
 0.28999998E+02  0.14601E+04
 0.29049997E+02 -0.64551E+04
 0.29099998E+02 -0.86365E+04
 0.29149998E+02 -0.19882E+04
 0.29199999E+02  0.18737E+04
 0.29249998E+02 -0.30222E+04
 0.29299997E+02  0.42965E+03
 0.29349998E+02 -0.47744E+04
 0.29399998E+02 -0.65171E+04
 0.29449999E+02 -0.12087E+04
 0.29499998E+02 -0.52955E+04
 0.29549997E+02 -0.21967E+04
 0.29599998E+02 -0.22090E+04
 0.29649998E+02 -0.47560E+04
 0.29699999E+02 -0.18871E+04
 0.29749998E+02  0.28431E+04
 0.29799997E+02  0.38342E+04
 0.29849998E+02  0.38464E+04
 0.29899998E+02  0.50574E+04
 0.29949999E+02  0.31249E+04
 0.29999998E+02  0.37868E+04
 0.30049999E+02  0.11091E+04
 0.30099998E+02 -0.55675E+04
 0.30149998E+02 -0.56668E+04
 0.30199997E+02 -0.11583E+04
 0.30249996E+02 -0.79463E+03
 0.30299999E+02  0.12884E+04
 0.30349998E+02 -0.49405E+04
 0.30399998E+02 -0.16449E+05
 0.30449997E+02 -0.10467E+05
 0.30499996E+02 -0.62993E+02
 0.30549999E+02  0.55984E+04
 0.30599998E+02 -0.11740E+04
 0.30649998E+02 -0.24259E+04
 0.30699997E+02 -0.12353E+04
 0.30749996E+02 -0.57213E+04
 0.30799999E+02 -0.14726E+04
 0.30849998E+02  0.59504E+04
 0.30899998E+02  0.68499E+04
 0.30949997E+02  0.56732E+04
 0.30999996E+02  0.75579E+04
 0.31049999E+02  0.14237E+04
 0.31099998E+02 -0.46236E+04
 0.31149998E+02 -0.13963E+05
 0.31199997E+02 -0.17327E+05
 0.31249996E+02 -0.12390E+05
 0.31299999E+02 -0.42175E+04
 0.31349998E+02  0.27953E+04
 0.31399998E+02  0.52672E+04
 0.31449997E+02  0.61627E+04
 0.31499996E+02  0.54445E+03
 0.31549999E+02  0.27523E+04
 0.31599998E+02  0.20358E+04
 0.31649998E+02 -0.28947E+04
 0.31699997E+02 -0.29961E+04
 0.31749996E+02 -0.28669E+04
 0.31799999E+02 -0.25269E+04
 0.31849998E+02 -0.63737E+03
 0.31899998E+02  0.42799E+04
 0.31949997E+02 -0.12359E+04
 0.31999996E+02  0.19467E+04
 0.32049999E+02  0.27841E+04
 0.32099998E+02 -0.19319E+04
 0.32149998E+02  0.37582E+02
 0.32199997E+02 -0.58351E+04
 0.32249996E+02 -0.95117E+04
 0.32299999E+02 -0.88203E+04
 0.32349998E+02 -0.60530E+04
 0.32399998E+02 -0.87591E+03
 0.32449997E+02  0.24241E+04
 0.32499996E+02  0.56572E+04
 0.32549999E+02  0.96198E+04
 0.32599998E+02  0.76296E+04
 0.32649998E+02  0.79406E+04
 0.32699997E+02  0.92027E+04
 0.32749996E+02  0.58606E+04
 0.32799999E+02  0.15594E+04
 0.32849998E+02  0.11838E+04
 0.32899998E+02 -0.47815E+04
 0.32949997E+02 -0.74186E+04
 0.32999996E+02 -0.67790E+04
 0.33049999E+02 -0.15129E+05
 0.33099998E+02 -0.17042E+05
 0.33149998E+02 -0.11463E+05
 0.33199997E+02 -0.61233E+04
 0.33249996E+02 -0.63211E+04
 0.33299999E+02 -0.22696E+04
 0.33349998E+02  0.84071E+03
 0.33399998E+02  0.26303E+04
 0.33449997E+02  0.83284E+04
 0.33499996E+02  0.82467E+04
 0.33549999E+02  0.98337E+04
 0.33599998E+02  0.96097E+04
 0.33649998E+02  0.39354E+04
 0.33699997E+02  0.24278E+04
 0.33749996E+02 -0.41895E+04
 0.33799999E+02 -0.76851E+04
 0.33849998E+02 -0.87064E+04
 0.33899998E+02 -0.69741E+04
 0.33949997E+02  0.88823E+03
 0.33999996E+02 -0.39560E+04
 0.34049999E+02 -0.49465E+04
 0.34099998E+02 -0.13350E+04
 0.34149998E+02 -0.32456E+04
 0.34199997E+02 -0.52867E+04
 0.34249996E+02  0.15354E+04
 0.34299999E+02  0.70212E+04
 0.34349998E+02  0.55438E+04
 0.34399998E+02  0.12803E+04
 0.34449997E+02 -0.50477E+04
 0.34499996E+02 -0.45936E+04
 0.34549999E+02 -0.80153E+04
 0.34599998E+02 -0.10226E+05
 0.34649998E+02 -0.11421E+05
 0.34699997E+02 -0.11129E+05
 0.34749996E+02 -0.79074E+04
 0.34799999E+02 -0.43068E+04
 0.34849998E+02 -0.63099E+03
 0.34899998E+02  0.38503E+04
 0.34949997E+02  0.86034E+04
 0.34999996E+02  0.12546E+05
 0.35049999E+02  0.11824E+05
 0.35099998E+02  0.30224E+04
 0.35149998E+02  0.14616E+03
 0.35199997E+02 -0.41630E+03
 0.35249996E+02  0.16461E+04
 0.35299999E+02 -0.84342E+03
 0.35349998E+02 -0.76109E+04
 0.35399998E+02 -0.54677E+04
 0.35449997E+02 -0.10027E+04
 0.35499996E+02  0.27657E+04
 0.35549999E+02  0.16521E+04
 0.35599998E+02 -0.40561E+04
 0.35649998E+02 -0.40230E+04
 0.35699997E+02 -0.16804E+04
 0.35749996E+02 -0.88210E+02
 0.35799999E+02 -0.64090E+03
 0.35849998E+02  0.10589E+04
 0.35899998E+02  0.29658E+04
 0.35949997E+02  0.16783E+04
 0.35999996E+02  0.11877E+04
 0.36049999E+02  0.31773E+03
 0.36099998E+02  0.10348E+04
 0.36149998E+02 -0.37897E+04
 0.36199997E+02 -0.94130E+04
 0.36249996E+02 -0.93218E+04
 0.36299999E+02 -0.63735E+04
 0.36349998E+02 -0.64510E+04
 0.36399998E+02 -0.42224E+04
 0.36449997E+02 -0.92353E+03
 0.36499996E+02  0.10838E+04
 0.36549999E+02 -0.95468E+03
 0.36599998E+02 -0.22662E+04
 0.36649998E+02 -0.74467E+03
 0.36699997E+02  0.59876E+03
 0.36749996E+02  0.23808E+04
 0.36799999E+02  0.12661E+04
 0.36849998E+02 -0.13884E+04
 0.36899998E+02 -0.19444E+04
 0.36949997E+02  0.34019E+04
 0.36999996E+02  0.21676E+04
 0.37049999E+02  0.12242E+04
 0.37099998E+02 -0.10007E+04
 0.37149998E+02 -0.16609E+03
 0.37199997E+02 -0.12789E+04
 0.37249996E+02 -0.52919E+04
 0.37299999E+02 -0.58971E+04
 0.37349998E+02 -0.63170E+04
 0.37399998E+02 -0.41807E+04
 0.37449997E+02  0.27956E+04
 0.37499996E+02  0.11792E+05
 0.37549999E+02  0.96490E+04
 0.37599998E+02  0.54017E+04
 0.37649998E+02 -0.30133E+04
 0.37699997E+02 -0.94616E+04
 0.37749996E+02 -0.69268E+04
 0.37799999E+02 -0.73540E+04
 0.37849998E+02 -0.35613E+04
 0.37899998E+02  0.20931E+03
 0.37949997E+02 -0.16096E+04
 0.37999996E+02 -0.29310E+04
 0.38049999E+02 -0.18329E+04
 0.38099998E+02 -0.13780E+04
 0.38149998E+02 -0.60127E+03
 0.38199997E+02  0.19121E+04
 0.38249996E+02  0.17747E+04
 0.38299999E+02  0.39360E+04
 0.38349998E+02  0.53476E+04
 0.38399998E+02  0.50675E+04
 0.38449997E+02  0.15361E+04
 0.38499996E+02 -0.21357E+04
 0.38549999E+02 -0.59103E+04
 0.38599998E+02 -0.63017E+04
 0.38649998E+02 -0.46705E+04
 0.38699997E+02 -0.44453E+04
 0.38749996E+02 -0.39306E+04
 0.38799999E+02 -0.65270E+04
 0.38849998E+02 -0.53399E+04
 0.38899998E+02 -0.40818E+04
 0.38949997E+02 -0.20786E+04
 0.38999996E+02  0.18792E+04
 0.39049999E+02  0.19137E+04
 0.39099998E+02  0.25590E+04
 0.39149998E+02  0.35275E+04
 0.39199997E+02  0.32145E+04
 0.39249996E+02  0.50989E+04
 0.39299999E+02  0.32065E+04
 0.39349998E+02 -0.11198E+03
 0.39399998E+02 -0.16212E+04
 0.39449997E+02 -0.54635E+04
 0.39499996E+02 -0.81068E+04
 0.39549999E+02 -0.77330E+04
 0.39599998E+02 -0.83682E+04
 0.39649998E+02 -0.60523E+04
 0.39699997E+02 -0.14884E+04
 0.39749996E+02  0.92036E+03
 0.39799999E+02  0.28528E+04
 0.39849998E+02  0.29332E+04
 0.39899998E+02  0.29603E+04
 0.39949997E+02  0.29045E+04
 0.39999996E+02  0.88549E+03
 0.40049999E+02 -0.18975E+03
 0.40099998E+02 -0.27648E+04
 0.40149998E+02 -0.37178E+04
 0.40199997E+02 -0.41074E+04
 0.40249996E+02 -0.24538E+04
 0.40299999E+02  0.11056E+04
 0.40349998E+02  0.21452E+03
 0.40399998E+02  0.19015E+04
 0.40449997E+02  0.29590E+04
 0.40499996E+02  0.25504E+04
 0.40549999E+02  0.95575E+03
 0.40599998E+02 -0.62837E+03
 0.40649998E+02 -0.26671E+04
 0.40699997E+02 -0.50519E+04
 0.40749996E+02 -0.40933E+04
 0.40799999E+02 -0.49830E+04
 0.40849998E+02 -0.64487E+04
 0.40899998E+02 -0.50087E+04
 0.40949997E+02 -0.40914E+04
 0.40999996E+02 -0.12445E+04
 0.41049999E+02  0.20357E+04
 0.41099998E+02  0.20380E+04
 0.41149998E+02  0.11876E+04
 0.41199997E+02  0.31105E+03
 0.41249996E+02  0.20193E+03
 0.41299999E+02  0.27674E+03
 0.41349998E+02  0.20725E+03
 0.41399998E+02 -0.26628E+02
 0.41449997E+02  0.86150E+03
 0.41499996E+02 -0.11147E+04
 0.41549999E+02 -0.46355E+04
 0.41599998E+02 -0.49467E+04
 0.41649998E+02 -0.48173E+04
 0.41699997E+02 -0.42610E+04
 0.41749996E+02 -0.32501E+04
 0.41799999E+02 -0.22293E+04
 0.41849998E+02 -0.16152E+04
 0.41899998E+02 -0.30930E+04
 0.41949997E+02 -0.35752E+04
 0.41999996E+02  0.58110E+03
 0.42049999E+02  0.25931E+04
 0.42099998E+02  0.38138E+04
 0.42149998E+02  0.33380E+04
 0.42199997E+02  0.23464E+04
 0.42249996E+02  0.56217E+03
 0.42299999E+02  0.82150E+03
 0.42349998E+02  0.13349E+04
 0.42399998E+02 -0.46487E+04
 0.42449997E+02 -0.56265E+04
 0.42499996E+02 -0.82793E+04
 0.42549999E+02 -0.80500E+04
 0.42599998E+02 -0.33115E+04
 0.42649998E+02  0.11634E+04
 0.42699997E+02  0.42701E+04
 0.42749996E+02  0.49850E+04
 0.42799995E+02  0.46329E+04
 0.42849998E+02  0.35553E+04
 0.42899998E+02  0.35116E+04
 0.42949997E+02 -0.95288E+03
 0.42999996E+02 -0.41492E+04
 0.43049995E+02 -0.63609E+04
 0.43099998E+02 -0.55778E+04
 0.43149998E+02 -0.24099E+04
 0.43199997E+02 -0.19274E+04
 0.43249996E+02 -0.20916E+04
 0.43299995E+02 -0.17640E+04
 0.43349998E+02 -0.28748E+03
 0.43399998E+02 -0.39974E+03
 0.43449997E+02  0.10779E+04
 0.43499996E+02  0.96427E+03
 0.43549995E+02 -0.38743E+02
 0.43599998E+02  0.58814E+03
 0.43649998E+02  0.10079E+04
 0.43699997E+02  0.32756E+03
 0.43749996E+02 -0.32979E+04
 0.43799995E+02 -0.40956E+04
 0.43849998E+02 -0.45570E+04
 0.43899998E+02 -0.37951E+04
 0.43949997E+02 -0.32603E+04
 0.43999996E+02 -0.25222E+04
 0.44049995E+02 -0.12392E+04
 0.44099998E+02 -0.15119E+04
 0.44149998E+02 -0.11622E+04
 0.44199997E+02 -0.44908E+03
 0.44249996E+02  0.45155E+03
 0.44299995E+02  0.89606E+03
 0.44349998E+02  0.13672E+04
 0.44399998E+02  0.58169E+02
 0.44449997E+02  0.91038E+03
 0.44499996E+02 -0.60520E+03
 0.44549995E+02 -0.44037E+04
 0.44599998E+02 -0.45247E+04
 0.44649998E+02 -0.20719E+04
 0.44699997E+02 -0.24547E+04
 0.44749996E+02 -0.45940E+04
 0.44799995E+02 -0.59302E+04
 0.44849998E+02 -0.45958E+04
 0.44899998E+02 -0.15767E+04
 0.44949997E+02 -0.68249E+03
 0.44999996E+02  0.12645E+04
 0.45049995E+02  0.21065E+04
 0.45099998E+02  0.19167E+04
 0.45149998E+02  0.10096E+04
 0.45199997E+02  0.61167E+03
 0.45249996E+02  0.77358E+03
 0.45299995E+02  0.13003E+04
 0.45349998E+02  0.25261E+04
 0.45399998E+02  0.24589E+04
 0.45449997E+02  0.49923E+03
 0.45499996E+02 -0.21728E+04
 0.45549995E+02 -0.33402E+04
 0.45599998E+02 -0.34439E+04
 0.45649998E+02 -0.29243E+04
 0.45699997E+02 -0.21968E+04
 0.45749996E+02 -0.35648E+04
 0.45799995E+02 -0.27911E+04
 0.45849998E+02 -0.59812E+03
 0.45899998E+02  0.61097E+03
 0.45949997E+02  0.25639E+04
 0.45999996E+02  0.11779E+04
 0.46049995E+02 -0.41372E+03
 0.46099998E+02 -0.23360E+04
 0.46149998E+02 -0.13201E+04
 0.46199997E+02  0.88123E+03
 0.46249996E+02  0.13191E+04
 0.46299995E+02  0.19453E+04
 0.46349998E+02  0.26342E+03
 0.46399998E+02 -0.63714E+03
 0.46449997E+02 -0.17909E+04
 0.46499996E+02 -0.27518E+04
 0.46549995E+02 -0.42830E+04
 0.46599998E+02 -0.29390E+04
 0.46649998E+02 -0.20513E+04
 0.46699997E+02 -0.29807E+04
 0.46749996E+02 -0.33997E+04
 0.46799995E+02 -0.37788E+04
 0.46849998E+02 -0.20829E+04
 0.46899998E+02 -0.29432E+04
 0.46949997E+02 -0.25816E+04
 0.46999996E+02 -0.30996E+03
 0.47049995E+02  0.57498E+03
 0.47099998E+02 -0.79496E+03
 0.47149998E+02 -0.22778E+04
 0.47199997E+02 -0.43772E+04
 0.47249996E+02 -0.36756E+04
 0.47299995E+02 -0.15631E+04
 0.47349998E+02 -0.96261E+03
 0.47399998E+02  0.16484E+03
 0.47449997E+02 -0.61456E+03
 0.47499996E+02 -0.25932E+04
 0.47549995E+02 -0.19150E+04
 0.47599998E+02  0.49001E+03
 0.47649998E+02 -0.40719E+03
 0.47699997E+02  0.40577E+03
 0.47749996E+02  0.76829E+02
 0.47799995E+02  0.51109E+03
 0.47849998E+02  0.14941E+04
 0.47899998E+02  0.37848E+03
 0.47949997E+02  0.43636E+03
 0.47999996E+02 -0.34094E+03
 0.48049995E+02 -0.62817E+02
 0.48099998E+02 -0.34165E+03
 0.48149998E+02 -0.27231E+04
 0.48199997E+02 -0.44114E+04
 0.48249996E+02 -0.40426E+04
 0.48299995E+02 -0.22298E+04
 0.48349998E+02  0.60556E+03
 0.48399998E+02  0.12694E+04
 0.48449997E+02  0.48529E+03
 0.48499996E+02  0.93117E+03
 0.48549995E+02  0.18858E+04
 0.48599998E+02  0.19168E+04
 0.48649998E+02  0.16767E+04
 0.48699997E+02  0.64396E+03
 0.48749996E+02 -0.12062E+04
 0.48799995E+02 -0.17313E+04
 0.48849998E+02 -0.16616E+04
 0.48899998E+02 -0.20548E+04
 0.48949997E+02 -0.35535E+04
 0.48999996E+02 -0.45488E+04
 0.49049995E+02 -0.43718E+04
 0.49099998E+02 -0.56368E+04
 0.49149998E+02 -0.45943E+04
 0.49199997E+02 -0.16972E+04
 0.49249996E+02  0.29725E+03
 0.49299995E+02  0.12677E+04
 0.49349998E+02  0.76377E+03
 0.49399998E+02  0.31868E+03
 0.49449997E+02  0.16399E+03
 0.49499996E+02 -0.12961E+04
 0.49549995E+02 -0.31348E+04
 0.49599998E+02 -0.16577E+04
 0.49649998E+02 -0.13965E+04
 0.49699997E+02 -0.98778E+03
 0.49749996E+02 -0.71663E+03
 0.49799995E+02 -0.19512E+04
 0.49849998E+02 -0.25577E+04
 0.49899998E+02 -0.29019E+04
 0.49949997E+02 -0.21023E+04
 0.49999996E+02 -0.12480E+04
 0.50049995E+02 -0.83407E+03
 0.50099998E+02  0.24462E+03
 0.50149998E+02  0.10529E+04
 0.50199997E+02  0.28286E+02
 0.50249996E+02  0.25901E+03
 0.50299995E+02  0.43352E+03
 0.50349998E+02 -0.91155E+03
 0.50399998E+02 -0.13972E+04
 0.50449997E+02 -0.14510E+04
 0.50499996E+02  0.55895E+03
 0.50549995E+02  0.18617E+04
 0.50599998E+02  0.85889E+03
 0.50649998E+02 -0.11463E+04
 0.50699997E+02 -0.23303E+04
 0.50749996E+02 -0.28905E+04
 0.50799995E+02 -0.39302E+04
 0.50849998E+02 -0.28577E+04
 0.50899998E+02 -0.19413E+04
 0.50949997E+02 -0.50480E+03
 0.50999996E+02 -0.41802E+03
 0.51049995E+02 -0.14906E+04
 0.51099998E+02 -0.55861E+03
 0.51149998E+02  0.70612E+02
 0.51199997E+02 -0.24264E+03
 0.51249996E+02 -0.10768E+04
 0.51299995E+02 -0.21720E+04
 0.51349998E+02 -0.21274E+04
 0.51399998E+02 -0.16567E+04
 0.51449997E+02 -0.16959E+04
 0.51499996E+02 -0.18362E+04
 0.51549995E+02 -0.18482E+04
 0.51599998E+02 -0.21593E+04
 0.51649998E+02 -0.20620E+04
 0.51699997E+02 -0.23843E+04
 0.51749996E+02 -0.24367E+04
 0.51799995E+02 -0.79369E+03
 0.51849998E+02 -0.49018E+03
 0.51899998E+02 -0.93959E+03
 0.51949997E+02  0.92535E+03
 0.51999996E+02  0.15965E+04
 0.52049995E+02  0.70837E+03
 0.52099998E+02 -0.47351E+03
 0.52149998E+02 -0.17791E+04
 0.52199997E+02 -0.20549E+04
 0.52249996E+02 -0.34154E+04
 0.52299995E+02 -0.40595E+04
 0.52349998E+02 -0.33445E+04
 0.52399998E+02 -0.23288E+04
 0.52449997E+02 -0.14949E+04
 0.52499996E+02  0.34894E+03
 0.52549995E+02  0.14081E+04
 0.52599998E+02  0.17410E+04
 0.52649998E+02  0.18495E+04
 0.52699997E+02  0.92077E+03
 0.52749996E+02 -0.42224E+03
 0.52799995E+02 -0.20093E+04
 0.52849998E+02 -0.24446E+04
 0.52899998E+02 -0.27054E+04
 0.52949997E+02 -0.28582E+04
 0.52999996E+02 -0.29808E+04
 0.53049995E+02 -0.31992E+04
 0.53099998E+02 -0.18693E+04
 0.53149998E+02 -0.35406E+02
 0.53199997E+02  0.31069E+03
 0.53249996E+02 -0.26835E+03
 0.53299995E+02 -0.10870E+04
 0.53349998E+02 -0.22707E+04
 0.53399998E+02 -0.23824E+04
 0.53449997E+02 -0.26212E+04
 0.53499996E+02 -0.35034E+04
 0.53549995E+02 -0.26725E+04
 0.53599998E+02 -0.19818E+04
 0.53649998E+02 -0.16003E+04
 0.53699997E+02 -0.21946E+04
 0.53749996E+02 -0.12351E+04
 0.53799995E+02  0.51079E+03
 0.53849998E+02  0.13065E+04
 0.53899998E+02  0.18514E+04
 0.53949997E+02  0.10519E+04
 0.53999996E+02  0.54576E+03
 0.54049995E+02  0.15594E+03
 0.54099998E+02 -0.36241E+03
 0.54149998E+02 -0.16663E+04
 0.54199997E+02 -0.17784E+04
 0.54249996E+02 -0.66123E+03
 0.54299995E+02 -0.26340E+03
 0.54349998E+02  0.85695E+03
 0.54399998E+02  0.15662E+04
 0.54449997E+02  0.11701E+04
 0.54499996E+02  0.27703E+03
 0.54549995E+02 -0.13131E+04
 0.54599998E+02 -0.13936E+04
 0.54649998E+02 -0.85234E+03
 0.54699997E+02 -0.57691E+03
 0.54749996E+02 -0.36337E+02
 0.54799995E+02  0.30307E+03
 0.54849998E+02 -0.68687E+03
 0.54899998E+02 -0.20225E+04
 0.54949997E+02 -0.28635E+04
 0.54999996E+02 -0.35248E+04
 0.55049995E+02 -0.29259E+04
 0.55099998E+02 -0.13425E+04
 0.55149998E+02 -0.20307E+03
 0.55199997E+02 -0.36330E+03
 0.55249996E+02 -0.12999E+04
 0.55299995E+02 -0.17203E+04
 0.55349998E+02 -0.19528E+04
 0.55399998E+02 -0.33475E+04
 0.55449997E+02 -0.32859E+04
 0.55499996E+02 -0.19805E+04
 0.55549995E+02 -0.20518E+03
 0.55599998E+02  0.93723E+03
 0.55649998E+02 -0.32028E+03
 0.55699997E+02 -0.56979E+03
 0.55749996E+02 -0.82971E+03
 0.55799995E+02 -0.20479E+04
 0.55849995E+02 -0.22473E+04
 0.55899998E+02 -0.16835E+04
 0.55949997E+02 -0.58963E+03
 0.55999996E+02 -0.35508E+03
 0.56049995E+02 -0.97877E+03
 0.56099995E+02 -0.18899E+04
 0.56149998E+02 -0.29938E+04
 0.56199997E+02 -0.31050E+04
 0.56249996E+02 -0.27590E+04
 0.56299995E+02 -0.31285E+04
 0.56349995E+02 -0.18562E+04
 0.56399998E+02 -0.74081E+03
 0.56449997E+02 -0.50760E+03
 0.56499996E+02 -0.34886E+03
 0.56549995E+02 -0.12882E+04
 0.56599995E+02 -0.15052E+04
 0.56649998E+02 -0.16537E+04
 0.56699997E+02 -0.12101E+04
 0.56749996E+02 -0.21599E+03
 0.56799995E+02 -0.84553E+02
 0.56849995E+02 -0.41114E+03
 0.56899998E+02 -0.25577E+03
 0.56949997E+02  0.37294E+03
 0.56999996E+02  0.82933E+03
 0.57049995E+02  0.69912E+03
 0.57099995E+02  0.35321E+02
 0.57149998E+02 -0.10884E+04
 0.57199997E+02 -0.20575E+04
 0.57249996E+02 -0.22784E+04
 0.57299995E+02 -0.24525E+04
 0.57349995E+02 -0.30125E+04
 0.57399998E+02 -0.37096E+04
 0.57449997E+02 -0.36314E+04
 0.57499996E+02 -0.21454E+04
 0.57549995E+02 -0.81450E+03
 0.57599995E+02 -0.69600E+03
 0.57649998E+02 -0.85068E+03
 0.57699997E+02 -0.85441E+03
 0.57749996E+02 -0.29926E+03
 0.57799995E+02  0.13629E+03
 0.57849995E+02 -0.22067E+03
 0.57899998E+02 -0.15473E+04
 0.57949997E+02 -0.26062E+04
 0.57999996E+02 -0.32933E+04
 0.58049995E+02 -0.32580E+04
 0.58099995E+02 -0.25523E+04
 0.58149998E+02 -0.12050E+04
 0.58199997E+02  0.27594E+03
 0.58249996E+02  0.44749E+03
 0.58299995E+02  0.70156E+03
 0.58349995E+02 -0.22417E+01
 0.58399998E+02  0.88348E+02
 0.58449997E+02  0.13834E+04
 0.58499996E+02  0.22775E+04
 0.58549995E+02  0.24701E+04
 0.58599995E+02  0.13038E+04
 0.58649998E+02 -0.48942E+03
 0.58699997E+02 -0.15424E+04
 0.58749996E+02 -0.13358E+04
 0.58799995E+02 -0.12647E+04
 0.58849995E+02 -0.98518E+03
 0.58899998E+02 -0.79170E+03
 0.58949997E+02 -0.83096E+03
 0.58999996E+02 -0.14635E+04
 0.59049995E+02 -0.24900E+04
 0.59099995E+02 -0.28330E+04
 0.59149998E+02 -0.30251E+04
 0.59199997E+02 -0.32731E+04
 0.59249996E+02 -0.31097E+04
 0.59299995E+02 -0.25603E+04
 0.59349995E+02 -0.20859E+04
 0.59399998E+02 -0.12705E+04
 0.59449997E+02 -0.57984E+03
 0.59499996E+02 -0.19149E+03
 0.59549995E+02 -0.95923E+03
 0.59599995E+02 -0.22660E+04
 0.59649998E+02 -0.29210E+04
 0.59699997E+02 -0.24699E+04
 0.59749996E+02 -0.15991E+04
 0.59799995E+02 -0.16337E+04
 0.59849995E+02 -0.12534E+04
 0.59899998E+02 -0.96688E+03
 0.59949997E+02 -0.84695E+03
 0.59999996E+02 -0.97756E+03
 0.60049995E+02 -0.11037E+04
 0.60099995E+02 -0.72277E+03
 0.60149998E+02  0.12830E+03
 0.60199997E+02  0.14453E+04
 0.60249996E+02  0.16400E+04
 0.60299995E+02  0.13974E+04
 0.60349995E+02  0.90049E+03
 0.60399998E+02 -0.37194E+03
 0.60449997E+02 -0.14266E+04
 0.60499996E+02 -0.18406E+04
 0.60549995E+02 -0.21438E+04
 0.60599995E+02 -0.19246E+04
 0.60649998E+02 -0.15590E+04
 0.60699997E+02 -0.17252E+04
 0.60749996E+02 -0.21469E+04
 0.60799995E+02 -0.18220E+04
 0.60849995E+02 -0.83929E+03
 0.60899998E+02 -0.81835E+03
 0.60949997E+02 -0.79996E+03
 0.60999996E+02 -0.10913E+04
 0.61049995E+02 -0.11740E+04
 0.61099995E+02 -0.11903E+04
 0.61149998E+02 -0.12453E+04
 0.61199997E+02 -0.15415E+04
 0.61249996E+02 -0.21620E+04
 0.61299995E+02 -0.22087E+04
 0.61349995E+02 -0.27783E+04
 0.61399998E+02 -0.25615E+04
 0.61449997E+02 -0.15882E+04
 0.61499996E+02 -0.11620E+03
 0.61549995E+02  0.61276E+03
 0.61599995E+02  0.59515E+02
 0.61649998E+02 -0.75155E+02
 0.61699997E+02 -0.57754E+02
 0.61749996E+02  0.61255E+01
 0.61799995E+02 -0.66228E+03
 0.61849995E+02 -0.15684E+04
 0.61899998E+02 -0.20772E+04
 0.61949997E+02 -0.22327E+04
 0.61999996E+02 -0.19348E+04
 0.62049995E+02 -0.11964E+04
 0.62099998E+02 -0.20006E+03
 0.62149994E+02 -0.27596E+03
 0.62199997E+02 -0.96489E+03
 0.62249992E+02 -0.13965E+04
 0.62299995E+02 -0.84176E+03
 0.62349998E+02 -0.20784E+03
 0.62399994E+02  0.32940E+03
 0.62449997E+02  0.41614E+03
 0.62499992E+02 -0.97859E+02
 0.62549995E+02 -0.10923E+04
 0.62599998E+02 -0.24819E+04
 0.62649994E+02 -0.31170E+04
 0.62699997E+02 -0.36654E+04
 0.62749992E+02 -0.32641E+04
 0.62799995E+02 -0.24276E+04
 0.62849998E+02 -0.21085E+04
 0.62899994E+02 -0.13176E+04
 0.62949997E+02 -0.25651E+03
 0.62999992E+02 -0.47222E+02
 0.63049995E+02 -0.50601E+03
 0.63099998E+02 -0.59086E+03
 0.63149994E+02 -0.39413E+03
 0.63199997E+02 -0.43082E+03
 0.63249992E+02 -0.51906E+03
 0.63299995E+02 -0.51535E+03
 0.63349998E+02 -0.17204E+03
 0.63399994E+02  0.20171E+03
 0.63449997E+02  0.27721E+02
 0.63499992E+02 -0.55772E+03
 0.63549995E+02 -0.12897E+04
 0.63599998E+02 -0.15293E+04
 0.63649994E+02 -0.17627E+04
 0.63699997E+02 -0.22503E+04
 0.63749992E+02 -0.23674E+04
 0.63799995E+02 -0.22197E+04
 0.63849998E+02 -0.22664E+04
 0.63899994E+02 -0.30862E+04
 0.63949997E+02 -0.32447E+04
 0.63999992E+02 -0.23485E+04
 0.64049995E+02 -0.19380E+04
 0.64099998E+02 -0.13540E+04
 0.64149994E+02 -0.33651E+03
 0.64199997E+02  0.26338E+03
 0.64249992E+02  0.16253E+03
 0.64299995E+02 -0.36759E+03
 0.64349998E+02 -0.12006E+04
 0.64399994E+02 -0.18226E+04
 0.64449997E+02 -0.93293E+03
 0.64499992E+02 -0.20541E+03
 0.64549995E+02 -0.62021E+03
 0.64599998E+02 -0.10150E+04
 0.64649994E+02 -0.14089E+04
 0.64699997E+02 -0.11173E+04
 0.64749992E+02 -0.46798E+03
 0.64799995E+02 -0.43449E+03
 0.64849998E+02  0.37792E+01
 0.64899994E+02  0.97514E+03
 0.64949997E+02  0.17432E+04
 0.64999992E+02  0.14075E+04
 0.65049995E+02  0.10377E+03
 0.65099998E+02 -0.79764E+03
 0.65149994E+02 -0.16539E+04
 0.65199997E+02 -0.20539E+04
 0.65249992E+02 -0.20470E+04
 0.65299995E+02 -0.19050E+04
 0.65349998E+02 -0.96088E+03
 0.65399994E+02 -0.11690E+03
 0.65449997E+02  0.57518E+02
 0.65499992E+02 -0.12522E+03
 0.65549995E+02 -0.51672E+03
 0.65599998E+02 -0.11615E+04
 0.65649994E+02 -0.15283E+04
 0.65699997E+02 -0.21829E+04
 0.65749992E+02 -0.26781E+04
 0.65799995E+02 -0.23373E+04
 0.65849998E+02 -0.18315E+04
 0.65899994E+02 -0.18282E+04
 0.65949997E+02 -0.21423E+04
 0.65999992E+02 -0.21980E+04
 0.66049995E+02 -0.20574E+04
 0.66099998E+02 -0.18889E+04
 0.66149994E+02 -0.18973E+04
 0.66199997E+02 -0.15546E+04
 0.66249992E+02 -0.15141E+04
 0.66299995E+02 -0.16808E+04
 0.66349998E+02 -0.13462E+04
 0.66399994E+02 -0.78658E+03
 0.66449997E+02 -0.10663E+04
 0.66499992E+02 -0.17657E+04
 0.66549995E+02 -0.19706E+04
 0.66599998E+02 -0.15544E+04
 0.66649994E+02 -0.11300E+04
 0.66699997E+02 -0.10264E+04
 0.66749992E+02 -0.86172E+03
 0.66799995E+02 -0.97306E+03
 0.66849998E+02 -0.73960E+03
 0.66899994E+02 -0.42258E+03
 0.66949997E+02 -0.80232E+03
 0.66999992E+02 -0.14006E+04
 0.67049995E+02 -0.13658E+04
 0.67099998E+02 -0.75787E+03
 0.67149994E+02 -0.30010E+03
 0.67199997E+02 -0.58907E+03
 0.67249992E+02 -0.12377E+04
 0.67299995E+02 -0.16776E+04
 0.67349998E+02 -0.15604E+04
 0.67399994E+02 -0.10476E+04
 0.67449997E+02 -0.73454E+03
 0.67499992E+02 -0.56151E+03
 0.67549995E+02 -0.77877E+03
 0.67599998E+02 -0.10192E+04
 0.67649994E+02 -0.67701E+03
 0.67699997E+02 -0.55945E+03
 0.67749992E+02 -0.85626E+03
 0.67799995E+02 -0.96321E+03
 0.67849998E+02 -0.10602E+04
 0.67899994E+02 -0.10145E+04
 0.67949997E+02 -0.12671E+04
 0.67999992E+02 -0.13734E+04
 0.68049995E+02 -0.10106E+04
 0.68099998E+02 -0.10248E+04
 0.68149994E+02 -0.14195E+04
 0.68199997E+02 -0.22107E+04
 0.68249992E+02 -0.25091E+04
 0.68299995E+02 -0.18855E+04
 0.68349998E+02 -0.11385E+04
 0.68399994E+02 -0.83421E+03
 0.68449997E+02 -0.83426E+03
 0.68499992E+02 -0.97127E+03
 0.68549995E+02 -0.59130E+03
 0.68599998E+02 -0.17109E+03
 0.68649994E+02 -0.22851E+03
 0.68699997E+02 -0.58166E+03
 0.68749992E+02 -0.96052E+03
 0.68799995E+02 -0.95510E+03
 0.68849998E+02 -0.80670E+03
 0.68899994E+02 -0.43922E+03
 0.68949997E+02 -0.43250E+03
 0.68999992E+02 -0.57288E+03
 0.69049995E+02 -0.54861E+03
 0.69099998E+02 -0.42567E+03
 0.69149994E+02 -0.16246E+03
 0.69199997E+02 -0.87076E+02
 0.69249992E+02 -0.59244E+03
 0.69299995E+02 -0.11778E+04
 0.69349998E+02 -0.14363E+04
 0.69399994E+02 -0.19492E+04
 0.69449997E+02 -0.23824E+04
 0.69499992E+02 -0.24773E+04
 0.69549995E+02 -0.23578E+04
 0.69599998E+02 -0.25855E+04
 0.69649994E+02 -0.27336E+04
 0.69699997E+02 -0.25157E+04
 0.69749992E+02 -0.19836E+04
 0.69799995E+02 -0.12039E+04
 0.69849998E+02 -0.11151E+04
 0.69899994E+02 -0.97372E+03
 0.69949997E+02 -0.67784E+03
 0.69999992E+02 -0.37864E+03
 0.70049995E+02 -0.28843E+03
 0.70099998E+02 -0.62572E+03
 0.70149994E+02 -0.95712E+03
 0.70199997E+02 -0.11697E+04
 0.70249992E+02 -0.11078E+04
 0.70299995E+02 -0.11174E+04
 0.70349998E+02 -0.11980E+04
 0.70399994E+02 -0.11873E+04
 0.70449997E+02 -0.12319E+04
 0.70499992E+02 -0.15981E+04
 0.70549995E+02 -0.18420E+04
 0.70599998E+02 -0.14882E+04
 0.70649994E+02 -0.65136E+03
 0.70699997E+02 -0.11180E+03
 0.70749992E+02 -0.28291E+03
 0.70799995E+02 -0.61596E+03
 0.70849998E+02 -0.10899E+04
 0.70899994E+02 -0.13177E+04
 0.70949997E+02 -0.15552E+04
 0.70999992E+02 -0.16516E+04
 0.71049995E+02 -0.92424E+03
 0.71099998E+02 -0.27302E+03
 0.71149994E+02 -0.14446E+03
 0.71199997E+02 -0.66471E+03
 0.71249992E+02 -0.13890E+04
 0.71299995E+02 -0.16978E+04
 0.71349998E+02 -0.16696E+04
 0.71399994E+02 -0.12763E+04
 0.71449997E+02 -0.76821E+03
 0.71499992E+02 -0.45266E+03
 0.71549995E+02 -0.14818E+03
 0.71599998E+02 -0.22391E+03
 0.71649994E+02 -0.89642E+03
 0.71699997E+02 -0.11969E+04
 0.71749992E+02 -0.13273E+04
 0.71799995E+02 -0.15362E+04
 0.71849998E+02 -0.17124E+04
 0.71899994E+02 -0.17145E+04
 0.71949997E+02 -0.17554E+04
 0.71999992E+02 -0.19487E+04
 0.72049995E+02 -0.17088E+04
 0.72099998E+02 -0.10330E+04
 0.72149994E+02 -0.32461E+03
 0.72199997E+02 -0.28677E+03
 0.72249992E+02 -0.65703E+03
 0.72299995E+02 -0.55813E+03
 0.72349998E+02 -0.41191E+03
 0.72399994E+02 -0.26158E+03
 0.72449997E+02 -0.45655E+02
 0.72499992E+02 -0.20336E+03
 0.72549995E+02 -0.29779E+03
 0.72599998E+02 -0.62422E+03
 0.72649994E+02 -0.11183E+04
 0.72699997E+02 -0.17280E+04
 0.72749992E+02 -0.19697E+04
 0.72799995E+02 -0.18474E+04
 0.72849998E+02 -0.17596E+04
 0.72899994E+02 -0.13681E+04
 0.72949997E+02 -0.14538E+04
 0.72999992E+02 -0.17762E+04
 0.73049995E+02 -0.19842E+04
 0.73099998E+02 -0.18469E+04
 0.73149994E+02 -0.11924E+04
 0.73199997E+02 -0.88692E+03
 0.73249992E+02 -0.10812E+04
 0.73299995E+02 -0.14571E+04
 0.73349998E+02 -0.16858E+04
 0.73399994E+02 -0.14588E+04
 0.73449997E+02 -0.10808E+04
 0.73499992E+02 -0.81938E+03
 0.73549995E+02 -0.58721E+03
 0.73599998E+02 -0.66352E+03
 0.73649994E+02 -0.98974E+03
 0.73699997E+02 -0.14674E+04
 0.73749992E+02 -0.17985E+04
 0.73799995E+02 -0.15901E+04
 0.73849998E+02 -0.13746E+04
 0.73899994E+02 -0.11537E+04
 0.73949997E+02 -0.93262E+03
 0.73999992E+02 -0.99271E+03
 0.74049995E+02 -0.10318E+04
 0.74099998E+02 -0.11836E+04
 0.74149994E+02 -0.12042E+04
 0.74199997E+02 -0.11078E+04
 0.74249992E+02 -0.94242E+03
 0.74299995E+02 -0.60975E+03
 0.74349998E+02 -0.29127E+03
 0.74399994E+02 -0.14927E+03
 0.74449997E+02 -0.82475E+03
 0.74499992E+02 -0.18944E+04
 0.74549995E+02 -0.23030E+04
 0.74599998E+02 -0.20133E+04
 0.74649994E+02 -0.17289E+04
 0.74699997E+02 -0.14207E+04
 0.74749992E+02 -0.96090E+03
 0.74799995E+02 -0.54740E+03
 0.74849998E+02 -0.73405E+03
 0.74899994E+02 -0.12698E+04
 0.74949997E+02 -0.16942E+04
 0.74999992E+02 -0.19849E+04
 0.75049995E+02 -0.19568E+04
 0.75099998E+02 -0.17679E+04
 0.75149994E+02 -0.11158E+04
 0.75199997E+02 -0.34245E+03
 0.75249992E+02  0.13577E+02
 0.75299995E+02 -0.96835E+02
 0.75349998E+02 -0.33115E+03
 0.75399994E+02 -0.30820E+03
 0.75449997E+02 -0.45695E+03
 0.75499992E+02 -0.78869E+03
 0.75549995E+02 -0.11724E+04
 0.75599998E+02 -0.13005E+04
 0.75649994E+02 -0.11258E+04
 0.75699997E+02 -0.12236E+04
 0.75749992E+02 -0.14979E+04
 0.75799995E+02 -0.14937E+04
 0.75849998E+02 -0.14610E+04
 0.75899994E+02 -0.17114E+04
 0.75949997E+02 -0.19300E+04
 0.75999992E+02 -0.17469E+04
 0.76049995E+02 -0.11416E+04
 0.76099998E+02 -0.90860E+03
 0.76149994E+02 -0.10066E+04
 0.76199997E+02 -0.94033E+03
 0.76249992E+02 -0.92272E+03
 0.76299995E+02 -0.12540E+04
 0.76349998E+02 -0.15878E+04
 0.76399994E+02 -0.16929E+04
 0.76449997E+02 -0.15466E+04
 0.76499992E+02 -0.13175E+04
 0.76549995E+02 -0.13996E+04
 0.76599998E+02 -0.16286E+04
 0.76649994E+02 -0.18405E+04
 0.76699997E+02 -0.13820E+04
 0.76749992E+02 -0.55582E+03
 0.76799995E+02  0.43380E+02
 0.76849998E+02  0.23653E+03
 0.76899994E+02 -0.21464E+03
 0.76949997E+02 -0.54989E+03
 0.76999992E+02 -0.49539E+03
 0.77049995E+02 -0.51925E+03
 0.77099998E+02 -0.68685E+03
 0.77149994E+02 -0.66535E+03
 0.77199997E+02 -0.36346E+03
 0.77249992E+02 -0.95077E+02
 0.77299995E+02 -0.27905E+03
 0.77349998E+02 -0.78427E+03
 0.77399994E+02 -0.11488E+04
 0.77449997E+02 -0.15239E+04
 0.77499992E+02 -0.17360E+04
 0.77549995E+02 -0.17907E+04
 0.77599998E+02 -0.17578E+04
 0.77649994E+02 -0.14902E+04
 0.77699997E+02 -0.12123E+04
 0.77749992E+02 -0.96106E+03
 0.77799995E+02 -0.79901E+03
 0.77849998E+02 -0.71964E+03
 0.77899994E+02 -0.76842E+03
 0.77949997E+02 -0.10843E+04
 0.77999992E+02 -0.14668E+04
 0.78049995E+02 -0.15142E+04
 0.78099998E+02 -0.14333E+04
 0.78149994E+02 -0.13837E+04
 0.78199997E+02 -0.14260E+04
 0.78249992E+02 -0.14958E+04
 0.78299995E+02 -0.16759E+04
 0.78349998E+02 -0.17332E+04
 0.78399994E+02 -0.15569E+04
 0.78449997E+02 -0.11658E+04
 0.78499992E+02 -0.82908E+03
 0.78549995E+02 -0.73533E+03
 0.78599998E+02 -0.63425E+03
 0.78649994E+02 -0.78674E+03
 0.78699997E+02 -0.11258E+04
 0.78749992E+02 -0.13248E+04
 0.78799995E+02 -0.10109E+04
 0.78849998E+02 -0.79087E+03
 0.78899994E+02 -0.87393E+03
 0.78949997E+02 -0.10756E+04
 0.78999992E+02 -0.15228E+04
 0.79049995E+02 -0.16743E+04
 0.79099998E+02 -0.13544E+04
 0.79149994E+02 -0.10979E+04
 0.79199997E+02 -0.96072E+03
 0.79249992E+02 -0.10716E+04
 0.79299995E+02 -0.13898E+04
 0.79349998E+02 -0.15881E+04
 0.79399994E+02 -0.18808E+04
 0.79449997E+02 -0.20175E+04
 0.79499992E+02 -0.19976E+04
 0.79549995E+02 -0.18046E+04
 0.79599998E+02 -0.13617E+04
 0.79649994E+02 -0.91541E+03
 0.79699997E+02 -0.76012E+03
 0.79749992E+02 -0.93029E+03
 0.79799995E+02 -0.94177E+03
 0.79849998E+02 -0.83108E+03
 0.79899994E+02 -0.61125E+03
 0.79949997E+02 -0.71997E+03
 0.79999992E+02 -0.10488E+04
 0.80049995E+02 -0.99943E+03
 0.80099998E+02 -0.79594E+03
 0.80149994E+02 -0.59174E+03
 0.80199997E+02 -0.68793E+03
 0.80249992E+02 -0.10069E+04
 0.80299995E+02 -0.12167E+04
 0.80349998E+02 -0.11404E+04
 0.80399994E+02 -0.10981E+04
 0.80449997E+02 -0.12826E+04
 0.80499992E+02 -0.14789E+04
 0.80549995E+02 -0.16885E+04
 0.80599998E+02 -0.16090E+04
 0.80649994E+02 -0.12774E+04
 0.80699997E+02 -0.78069E+03
 0.80749992E+02 -0.41761E+03
 0.80799995E+02 -0.55760E+03
 0.80849998E+02 -0.10384E+04
 0.80899994E+02 -0.14679E+04
 0.80949997E+02 -0.16132E+04
 0.80999992E+02 -0.17560E+04
 0.81049995E+02 -0.17628E+04
 0.81099998E+02 -0.13677E+04
 0.81149994E+02 -0.96755E+03
 0.81199997E+02 -0.93198E+03
 0.81249992E+02 -0.10621E+04
 0.81299995E+02 -0.12182E+04
 0.81349998E+02 -0.11076E+04
 0.81399994E+02 -0.76169E+03
 0.81449997E+02 -0.44960E+03
 0.81499992E+02 -0.13062E+03
 0.81549995E+02 -0.91561E+02
 0.81599998E+02 -0.21344E+03
 0.81649994E+02 -0.47196E+03
 0.81699997E+02 -0.66978E+03
 0.81749992E+02 -0.64991E+03
 0.81799995E+02 -0.94396E+03
 0.81849998E+02 -0.12852E+04
 0.81899994E+02 -0.14723E+04
 0.81949997E+02 -0.14946E+04
 0.81999992E+02 -0.14115E+04
 0.82049995E+02 -0.13054E+04
 0.82099998E+02 -0.97180E+03
 0.82149994E+02 -0.69936E+03
 0.82199997E+02 -0.69252E+03
 0.82249992E+02 -0.84691E+03
 0.82299995E+02 -0.92849E+03
 0.82349998E+02 -0.94461E+03
 0.82399994E+02 -0.10229E+04
 0.82449997E+02 -0.10800E+04
 0.82499992E+02 -0.12639E+04
 0.82549995E+02 -0.15114E+04
 0.82599998E+02 -0.15327E+04
 0.82649994E+02 -0.12900E+04
 0.82699997E+02 -0.10619E+04
 0.82749992E+02 -0.90190E+03
 0.82799995E+02 -0.97757E+03
 0.82849998E+02 -0.12004E+04
 0.82899994E+02 -0.11792E+04
 0.82949997E+02 -0.11742E+04
 0.82999992E+02 -0.10649E+04
 0.83049995E+02 -0.74032E+03
 0.83099998E+02 -0.62250E+03
 0.83149994E+02 -0.73450E+03
 0.83199997E+02 -0.83339E+03
 0.83249992E+02 -0.10818E+04
 0.83299995E+02 -0.14079E+04
 0.83349998E+02 -0.16203E+04
 0.83399994E+02 -0.16489E+04
 0.83449997E+02 -0.16274E+04
 0.83499992E+02 -0.16524E+04
 0.83549995E+02 -0.16096E+04
 0.83599998E+02 -0.15349E+04
 0.83649994E+02 -0.14739E+04
 0.83699997E+02 -0.15183E+04
 0.83749992E+02 -0.14746E+04
 0.83799995E+02 -0.12655E+04
 0.83849998E+02 -0.11302E+04
 0.83899994E+02 -0.12287E+04
 0.83949997E+02 -0.13370E+04
 0.83999992E+02 -0.11380E+04
 0.84049995E+02 -0.98336E+03
 0.84099998E+02 -0.11237E+04
 0.84149994E+02 -0.12894E+04
 0.84199997E+02 -0.12963E+04
 0.84249992E+02 -0.12305E+04
 0.84299995E+02 -0.14051E+04
 0.84349998E+02 -0.15380E+04
 0.84399994E+02 -0.15479E+04
 0.84449997E+02 -0.13976E+04
 0.84499992E+02 -0.96131E+03
 0.84549995E+02 -0.72490E+03
 0.84599998E+02 -0.71788E+03
 0.84649994E+02 -0.87704E+03
 0.84699997E+02 -0.97292E+03
 0.84749992E+02 -0.87301E+03
 0.84799995E+02 -0.93198E+03
 0.84849998E+02 -0.10026E+04
 0.84899994E+02 -0.98674E+03
 0.84949997E+02 -0.91735E+03
 0.84999992E+02 -0.92379E+03
 0.85049995E+02 -0.11525E+04
 0.85099998E+02 -0.13404E+04
 0.85149994E+02 -0.14475E+04
 0.85199997E+02 -0.15130E+04
 0.85249992E+02 -0.15519E+04
 0.85299995E+02 -0.16302E+04
 0.85349998E+02 -0.16255E+04
 0.85399994E+02 -0.14262E+04
 0.85449997E+02 -0.12634E+04
 0.85499992E+02 -0.12680E+04
 0.85549995E+02 -0.13442E+04
 0.85599998E+02 -0.12588E+04
 0.85649994E+02 -0.11293E+04
 0.85699997E+02 -0.10531E+04
 0.85749992E+02 -0.10828E+04
 0.85799995E+02 -0.11774E+04
 0.85849998E+02 -0.10431E+04
 0.85899994E+02 -0.84572E+03
 0.85949997E+02 -0.76873E+03
 0.85999992E+02 -0.73005E+03
 0.86049995E+02 -0.56976E+03
 0.86099998E+02 -0.51711E+03
 0.86149994E+02 -0.64981E+03
 0.86199997E+02 -0.75427E+03
 0.86249992E+02 -0.54254E+03
 0.86299995E+02 -0.32247E+03
 0.86349998E+02 -0.24044E+03
 0.86399994E+02 -0.15668E+03
 0.86449997E+02 -0.19769E+03
 0.86499992E+02 -0.55976E+03
 0.86549995E+02 -0.10330E+04
 0.86599998E+02 -0.12949E+04
 0.86649994E+02 -0.13947E+04
 0.86699997E+02 -0.11607E+04
 0.86749992E+02 -0.97412E+03
 0.86799995E+02 -0.98774E+03
 0.86849998E+02 -0.10519E+04
 0.86899994E+02 -0.11808E+04
 0.86949997E+02 -0.15240E+04
 0.86999992E+02 -0.19573E+04
 0.87049995E+02 -0.21622E+04
 0.87099998E+02 -0.21075E+04
 0.87149994E+02 -0.17465E+04
 0.87199997E+02 -0.13301E+04
 0.87249992E+02 -0.11250E+04
 0.87299995E+02 -0.11611E+04
 0.87349998E+02 -0.13005E+04
 0.87399994E+02 -0.13594E+04
 0.87449997E+02 -0.13702E+04
 0.87499992E+02 -0.10841E+04
 0.87549995E+02 -0.61552E+03
 0.87599991E+02 -0.37574E+03
 0.87649994E+02 -0.40576E+03
 0.87699997E+02 -0.44914E+03
 0.87749992E+02 -0.52105E+03
 0.87799995E+02 -0.83080E+03
 0.87849991E+02 -0.11093E+04
 0.87899994E+02 -0.12963E+04
 0.87949997E+02 -0.14375E+04
 0.87999992E+02 -0.16010E+04
 0.88049995E+02 -0.16787E+04
 0.88099991E+02 -0.16695E+04
 0.88149994E+02 -0.17106E+04
 0.88199997E+02 -0.16143E+04
 0.88249992E+02 -0.14070E+04
 0.88299995E+02 -0.12243E+04
 0.88349991E+02 -0.11132E+04
 0.88399994E+02 -0.11542E+04
 0.88449997E+02 -0.10610E+04
 0.88499992E+02 -0.91045E+03
 0.88549995E+02 -0.10186E+04
 0.88599991E+02 -0.11030E+04
 0.88649994E+02 -0.12093E+04
 0.88699997E+02 -0.12855E+04
 0.88749992E+02 -0.12693E+04
 0.88799995E+02 -0.11478E+04
 0.88849991E+02 -0.98488E+03
 0.88899994E+02 -0.97009E+03
 0.88949997E+02 -0.10181E+04
 0.88999992E+02 -0.11206E+04
 0.89049995E+02 -0.11567E+04
 0.89099991E+02 -0.10521E+04
 0.89149994E+02 -0.88357E+03
 0.89199997E+02 -0.92533E+03
 0.89249992E+02 -0.10083E+04
 0.89299995E+02 -0.10224E+04
 0.89349991E+02 -0.10207E+04
 0.89399994E+02 -0.88441E+03
 0.89449997E+02 -0.81819E+03
 0.89499992E+02 -0.88344E+03
 0.89549995E+02 -0.10353E+04
 0.89599991E+02 -0.11303E+04
 0.89649994E+02 -0.10534E+04
 0.89699997E+02 -0.93461E+03
 0.89749992E+02 -0.94936E+03
 0.89799995E+02 -0.10394E+04
 0.89849991E+02 -0.10720E+04
 0.89899994E+02 -0.10380E+04
 0.89949997E+02 -0.94443E+03
 0.89999992E+02 -0.90852E+03
 0.90049995E+02 -0.99222E+03
 0.90099991E+02 -0.11527E+04
 0.90149994E+02 -0.12562E+04
 0.90199997E+02 -0.13164E+04
 0.90249992E+02 -0.12931E+04
 0.90299995E+02 -0.12871E+04
 0.90349991E+02 -0.12489E+04
 0.90399994E+02 -0.11187E+04
 0.90449997E+02 -0.10235E+04
 0.90499992E+02 -0.10139E+04
 0.90549995E+02 -0.10764E+04
 0.90599991E+02 -0.90684E+03
 0.90649994E+02 -0.67722E+03
 0.90699997E+02 -0.64535E+03
 0.90749992E+02 -0.89069E+03
 0.90799995E+02 -0.13170E+04
 0.90849991E+02 -0.16975E+04
 0.90899994E+02 -0.18113E+04
 0.90949997E+02 -0.17332E+04
 0.90999992E+02 -0.14484E+04
 0.91049995E+02 -0.12069E+04
 0.91099991E+02 -0.12340E+04
 0.91149994E+02 -0.13476E+04
 0.91199997E+02 -0.12908E+04
 0.91249992E+02 -0.11086E+04
 0.91299995E+02 -0.10530E+04
 0.91349991E+02 -0.98270E+03
 0.91399994E+02 -0.99973E+03
 0.91449997E+02 -0.10037E+04
 0.91499992E+02 -0.11126E+04
 0.91549995E+02 -0.13033E+04
 0.91599991E+02 -0.14405E+04
 0.91649994E+02 -0.15786E+04
 0.91699997E+02 -0.16801E+04
 0.91749992E+02 -0.15969E+04
 0.91799995E+02 -0.13059E+04
 0.91849991E+02 -0.10192E+04
 0.91899994E+02 -0.87528E+03
 0.91949997E+02 -0.89873E+03
 0.91999992E+02 -0.91774E+03
 0.92049995E+02 -0.85161E+03
 0.92099991E+02 -0.84027E+03
 0.92149994E+02 -0.10056E+04
 0.92199997E+02 -0.10335E+04
 0.92249992E+02 -0.91358E+03
 0.92299995E+02 -0.82540E+03
 0.92349991E+02 -0.80523E+03
 0.92399994E+02 -0.88210E+03
 0.92449997E+02 -0.88684E+03
 0.92499992E+02 -0.91142E+03
 0.92549995E+02 -0.10425E+04
 0.92599991E+02 -0.11581E+04
 0.92649994E+02 -0.11144E+04
 0.92699997E+02 -0.10238E+04
 0.92749992E+02 -0.10447E+04
 0.92799995E+02 -0.11306E+04
 0.92849991E+02 -0.12456E+04
 0.92899994E+02 -0.13125E+04
 0.92949997E+02 -0.12074E+04
 0.92999992E+02 -0.10865E+04
 0.93049995E+02 -0.11205E+04
 0.93099991E+02 -0.12140E+04
 0.93149994E+02 -0.12496E+04
 0.93199997E+02 -0.12112E+04
 0.93249992E+02 -0.11855E+04
 0.93299995E+02 -0.10385E+04
 0.93349991E+02 -0.93105E+03
 0.93399994E+02 -0.94229E+03
 0.93449997E+02 -0.85929E+03
 0.93499992E+02 -0.77471E+03
 0.93549995E+02 -0.81448E+03
 0.93599991E+02 -0.11006E+04
 0.93649994E+02 -0.14687E+04
 0.93699997E+02 -0.14702E+04
 0.93749992E+02 -0.11116E+04
 0.93799995E+02 -0.85876E+03
 0.93849991E+02 -0.99084E+03
 0.93899994E+02 -0.14176E+04
 0.93949997E+02 -0.17937E+04
 0.93999992E+02 -0.19656E+04
 0.94049995E+02 -0.18340E+04
 0.94099991E+02 -0.15105E+04
 0.94149994E+02 -0.12249E+04
 0.94199997E+02 -0.96829E+03
 0.94249992E+02 -0.89645E+03
 0.94299995E+02 -0.10628E+04
 0.94349991E+02 -0.13581E+04
 0.94399994E+02 -0.15254E+04
 0.94449997E+02 -0.14227E+04
 0.94499992E+02 -0.12056E+04
 0.94549995E+02 -0.10959E+04
 0.94599991E+02 -0.10213E+04
 0.94649994E+02 -0.81224E+03
 0.94699997E+02 -0.63088E+03
 0.94749992E+02 -0.60026E+03
 0.94799995E+02 -0.62022E+03
 0.94849991E+02 -0.81425E+03
 0.94899994E+02 -0.11285E+04
 0.94949997E+02 -0.13033E+04
 0.94999992E+02 -0.12917E+04
 0.95049995E+02 -0.11182E+04
 0.95099991E+02 -0.68044E+03
 0.95149994E+02 -0.28697E+03
 0.95199997E+02 -0.24279E+03
 0.95249992E+02 -0.41253E+03
 0.95299995E+02 -0.81939E+03
 0.95349991E+02 -0.12124E+04
 0.95399994E+02 -0.14821E+04
 0.95449997E+02 -0.15889E+04
 0.95499992E+02 -0.15243E+04
 0.95549995E+02 -0.13174E+04
 0.95599991E+02 -0.11345E+04
 0.95649994E+02 -0.11445E+04
 0.95699997E+02 -0.11744E+04
 0.95749992E+02 -0.11988E+04
 0.95799995E+02 -0.11763E+04
 0.95849991E+02 -0.12408E+04
 0.95899994E+02 -0.12632E+04
 0.95949997E+02 -0.12551E+04
 0.95999992E+02 -0.12897E+04
 0.96049995E+02 -0.12371E+04
 0.96099991E+02 -0.11475E+04
 0.96149994E+02 -0.11090E+04
 0.96199997E+02 -0.11843E+04
 0.96249992E+02 -0.11945E+04
 0.96299995E+02 -0.12216E+04
 0.96349991E+02 -0.11678E+04
 0.96399994E+02 -0.11251E+04
 0.96449997E+02 -0.11066E+04
 0.96499992E+02 -0.10508E+04
 0.96549995E+02 -0.10459E+04
 0.96599991E+02 -0.10574E+04
 0.96649994E+02 -0.10625E+04
 0.96699997E+02 -0.94850E+03
 0.96749992E+02 -0.73109E+03
 0.96799995E+02 -0.53642E+03
 0.96849991E+02 -0.55297E+03
 0.96899994E+02 -0.71906E+03
 0.96949997E+02 -0.90746E+03
 0.96999992E+02 -0.10294E+04
 0.97049995E+02 -0.10651E+04
 0.97099991E+02 -0.11309E+04
 0.97149994E+02 -0.12474E+04
 0.97199997E+02 -0.13175E+04
 0.97249992E+02 -0.13920E+04
 0.97299995E+02 -0.12566E+04
 0.97349991E+02 -0.10085E+04
 0.97399994E+02 -0.84622E+03
 0.97449997E+02 -0.69622E+03
 0.97499992E+02 -0.61138E+03
 0.97549995E+02 -0.45184E+03
 0.97599991E+02 -0.37303E+03
 0.97649994E+02 -0.60938E+03
 0.97699997E+02 -0.10294E+04
 0.97749992E+02 -0.14522E+04
 0.97799995E+02 -0.17998E+04
 0.97849991E+02 -0.20090E+04
 0.97899994E+02 -0.19656E+04
 0.97949997E+02 -0.15978E+04
 0.97999992E+02 -0.11919E+04
