-0.20000000E+01  0.27191E+04
-0.19500000E+01  0.65712E+04
-0.19000000E+01  0.98255E+04
-0.18500000E+01  0.12678E+05
-0.18000000E+01  0.15227E+05
-0.17500000E+01  0.17569E+05
-0.17000000E+01  0.19603E+05
-0.16500001E+01  0.21114E+05
-0.16000000E+01  0.21862E+05
-0.15500000E+01  0.21596E+05
-0.15000000E+01  0.20207E+05
-0.14500000E+01  0.17734E+05
-0.14000001E+01  0.14476E+05
-0.13500000E+01  0.10638E+05
-0.13000001E+01  0.62662E+04
-0.12500000E+01  0.15623E+04
-0.12000000E+01 -0.30814E+04
-0.11500001E+01 -0.73380E+04
-0.11000000E+01 -0.11363E+05
-0.10500001E+01 -0.15506E+05
-0.10000000E+01 -0.19689E+05
-0.95000005E+00 -0.23646E+05
-0.90000010E+00 -0.27183E+05
-0.85000002E+00 -0.30082E+05
-0.80000007E+00 -0.32162E+05
-0.75000012E+00 -0.33309E+05
-0.70000005E+00 -0.33513E+05
-0.65000010E+00 -0.32729E+05
-0.60000014E+00 -0.30912E+05
-0.55000007E+00 -0.28239E+05
-0.50000012E+00 -0.25257E+05
-0.45000005E+00 -0.22518E+05
-0.40000010E+00 -0.20091E+05
-0.35000014E+00 -0.18025E+05
-0.30000007E+00 -0.16389E+05
-0.25000012E+00 -0.15190E+05
-0.20000005E+00 -0.14407E+05
-0.15000010E+00 -0.13828E+05
-0.10000014E+00 -0.13285E+05
-0.50000072E-01 -0.12693E+05
-0.11920929E-06 -0.12158E+05
 0.49999952E-01 -0.11974E+05
 0.99999905E-01 -0.12471E+05
 0.14999986E+00 -0.13592E+05
 0.19999981E+00 -0.15041E+05
 0.24999976E+00 -0.16590E+05
 0.29999995E+00 -0.18045E+05
 0.34999990E+00 -0.19257E+05
 0.39999986E+00 -0.20015E+05
 0.44999981E+00 -0.20277E+05
 0.49999976E+00 -0.20245E+05
 0.54999995E+00 -0.20118E+05
 0.59999990E+00 -0.19988E+05
 0.64999986E+00 -0.20055E+05
 0.69999981E+00 -0.20266E+05
 0.74999976E+00 -0.20464E+05
 0.79999971E+00 -0.20739E+05
 0.84999990E+00 -0.21276E+05
 0.89999986E+00 -0.22268E+05
 0.94999981E+00 -0.23593E+05
 0.99999976E+00 -0.24987E+05
 0.10499997E+01 -0.26372E+05
 0.10999999E+01 -0.27738E+05
 0.11499999E+01 -0.28985E+05
 0.11999998E+01 -0.30290E+05
 0.12499998E+01 -0.31879E+05
 0.12999997E+01 -0.33660E+05
 0.13499999E+01 -0.35459E+05
 0.13999999E+01 -0.37153E+05
 0.14499998E+01 -0.38757E+05
 0.14999998E+01 -0.40150E+05
 0.15499997E+01 -0.40997E+05
 0.15999999E+01 -0.41172E+05
 0.16499999E+01 -0.40736E+05
 0.16999998E+01 -0.39552E+05
 0.17499998E+01 -0.37471E+05
 0.17999997E+01 -0.34471E+05
 0.18499997E+01 -0.30541E+05
 0.18999999E+01 -0.25734E+05
 0.19499998E+01 -0.20175E+05
 0.19999998E+01 -0.14080E+05
 0.20499997E+01 -0.77209E+04
 0.20999999E+01 -0.14183E+04
 0.21499996E+01  0.44815E+04
 0.21999998E+01  0.96473E+04
 0.22499995E+01  0.13952E+05
 0.22999997E+01  0.17496E+05
 0.23499999E+01  0.20289E+05
 0.23999996E+01  0.22325E+05
 0.24499998E+01  0.23556E+05
 0.24999995E+01  0.23949E+05
 0.25499997E+01  0.23663E+05
 0.25999999E+01  0.22838E+05
 0.26499996E+01  0.21704E+05
 0.26999998E+01  0.20448E+05
 0.27499995E+01  0.19086E+05
 0.27999997E+01  0.17560E+05
 0.28499999E+01  0.15930E+05
 0.28999996E+01  0.14295E+05
 0.29499998E+01  0.12506E+05
 0.29999995E+01  0.10255E+05
 0.30499997E+01  0.73745E+04
 0.30999999E+01  0.41359E+04
 0.31499996E+01  0.73041E+03
 0.31999998E+01 -0.28154E+04
 0.32499995E+01 -0.63516E+04
 0.32999997E+01 -0.96456E+04
 0.33499999E+01 -0.12521E+05
 0.33999996E+01 -0.14976E+05
 0.34499998E+01 -0.17181E+05
 0.34999995E+01 -0.19274E+05
 0.35499997E+01 -0.21160E+05
 0.35999994E+01 -0.22760E+05
 0.36499996E+01 -0.24030E+05
 0.36999998E+01 -0.25008E+05
 0.37499995E+01 -0.25799E+05
 0.37999997E+01 -0.26605E+05
 0.38499994E+01 -0.27516E+05
 0.38999996E+01 -0.28381E+05
 0.39499998E+01 -0.29217E+05
 0.39999995E+01 -0.30177E+05
 0.40499997E+01 -0.31277E+05
 0.40999994E+01 -0.32311E+05
 0.41499996E+01 -0.33071E+05
 0.41999998E+01 -0.33535E+05
 0.42499995E+01 -0.33647E+05
 0.42999997E+01 -0.33300E+05
 0.43499994E+01 -0.32587E+05
 0.43999996E+01 -0.31776E+05
 0.44499998E+01 -0.31134E+05
 0.44999995E+01 -0.30761E+05
 0.45499997E+01 -0.30659E+05
 0.45999994E+01 -0.30862E+05
 0.46499996E+01 -0.31355E+05
 0.46999998E+01 -0.31966E+05
 0.47499995E+01 -0.32443E+05
 0.47999997E+01 -0.32781E+05
 0.48499994E+01 -0.33160E+05
 0.48999996E+01 -0.33461E+05
 0.49499998E+01 -0.33529E+05
 0.49999995E+01 -0.33458E+05
 0.50499997E+01 -0.33237E+05
 0.50999994E+01 -0.32684E+05
 0.51499996E+01 -0.31697E+05
 0.51999998E+01 -0.30383E+05
 0.52499995E+01 -0.28937E+05
 0.52999997E+01 -0.27511E+05
 0.53499994E+01 -0.26042E+05
 0.53999996E+01 -0.24423E+05
 0.54499993E+01 -0.22744E+05
 0.54999995E+01 -0.20969E+05
 0.55499997E+01 -0.18939E+05
 0.55999994E+01 -0.16550E+05
 0.56499996E+01 -0.13881E+05
 0.56999993E+01 -0.11182E+05
 0.57499995E+01 -0.83796E+04
 0.57999997E+01 -0.52534E+04
 0.58499994E+01 -0.18463E+04
 0.58999996E+01  0.17236E+04
 0.59499993E+01  0.52742E+04
 0.59999995E+01  0.86054E+04
 0.60499992E+01  0.11646E+05
 0.60999994E+01  0.14424E+05
 0.61499996E+01  0.17018E+05
 0.61999998E+01  0.19489E+05
 0.62499990E+01  0.21599E+05
 0.62999992E+01  0.23130E+05
 0.63499994E+01  0.24123E+05
 0.63999996E+01  0.24594E+05
 0.64499998E+01  0.24504E+05
 0.64999990E+01  0.23855E+05
 0.65499992E+01  0.22713E+05
 0.65999994E+01  0.21200E+05
 0.66499996E+01  0.19400E+05
 0.66999998E+01  0.17334E+05
 0.67499990E+01  0.15156E+05
 0.67999992E+01  0.12892E+05
 0.68499994E+01  0.10345E+05
 0.68999996E+01  0.72758E+04
 0.69499998E+01  0.35177E+04
 0.69999990E+01 -0.72187E+03
 0.70499992E+01 -0.50369E+04
 0.70999994E+01 -0.92823E+04
 0.71499996E+01 -0.13443E+05
 0.71999998E+01 -0.17435E+05
 0.72499990E+01 -0.21241E+05
 0.72999992E+01 -0.24872E+05
 0.73499994E+01 -0.28268E+05
 0.73999996E+01 -0.31262E+05
 0.74499998E+01 -0.33659E+05
 0.74999990E+01 -0.35432E+05
 0.75499992E+01 -0.36770E+05
 0.75999994E+01 -0.37914E+05
 0.76499996E+01 -0.38956E+05
 0.76999998E+01 -0.39881E+05
 0.77499990E+01 -0.40598E+05
 0.77999992E+01 -0.40923E+05
 0.78499994E+01 -0.40536E+05
 0.78999996E+01 -0.39246E+05
 0.79499998E+01 -0.37252E+05
 0.79999990E+01 -0.35007E+05
 0.80499992E+01 -0.32928E+05
 0.80999994E+01 -0.31306E+05
 0.81499996E+01 -0.30329E+05
 0.81999998E+01 -0.30037E+05
 0.82499990E+01 -0.30364E+05
 0.82999992E+01 -0.31104E+05
 0.83499994E+01 -0.31975E+05
 0.83999996E+01 -0.32769E+05
 0.84499998E+01 -0.33429E+05
 0.84999990E+01 -0.33709E+05
 0.85499992E+01 -0.33436E+05
 0.85999994E+01 -0.32753E+05
 0.86499996E+01 -0.31810E+05
 0.86999998E+01 -0.30776E+05
 0.87499990E+01 -0.29626E+05
 0.87999992E+01 -0.28143E+05
 0.88499994E+01 -0.26092E+05
 0.88999996E+01 -0.23316E+05
 0.89499998E+01 -0.19780E+05
 0.89999990E+01 -0.15651E+05
 0.90499992E+01 -0.11304E+05
 0.90999994E+01 -0.69706E+04
 0.91499996E+01 -0.27714E+04
 0.91999989E+01  0.11747E+04
 0.92499990E+01  0.47635E+04
 0.92999992E+01  0.79193E+04
 0.93499994E+01  0.10684E+05
 0.93999996E+01  0.13109E+05
 0.94499989E+01  0.15230E+05
 0.94999990E+01  0.17007E+05
 0.95499992E+01  0.18445E+05
 0.95999994E+01  0.19728E+05
 0.96499996E+01  0.20910E+05
 0.96999989E+01  0.21756E+05
 0.97499990E+01  0.22208E+05
 0.97999992E+01  0.22343E+05
 0.98499994E+01  0.22071E+05
 0.98999996E+01  0.21225E+05
 0.99499989E+01  0.19757E+05
 0.99999990E+01  0.17854E+05
 0.10049999E+02  0.15651E+05
 0.10099999E+02  0.13172E+05
 0.10150000E+02  0.10372E+05
 0.10199999E+02  0.73315E+04
 0.10249999E+02  0.41847E+04
 0.10299999E+02  0.10163E+04
 0.10349999E+02 -0.20651E+04
 0.10400000E+02 -0.49229E+04
 0.10449999E+02 -0.74338E+04
 0.10499999E+02 -0.95274E+04
 0.10549999E+02 -0.11292E+05
 0.10599999E+02 -0.13027E+05
 0.10650000E+02 -0.14795E+05
 0.10699999E+02 -0.16452E+05
 0.10749999E+02 -0.17799E+05
 0.10799999E+02 -0.18459E+05
 0.10849999E+02 -0.18235E+05
 0.10900000E+02 -0.17334E+05
 0.10949999E+02 -0.16049E+05
 0.10999999E+02 -0.14540E+05
 0.11049999E+02 -0.12832E+05
 0.11099999E+02 -0.11020E+05
 0.11150000E+02 -0.94055E+04
 0.11199999E+02 -0.83367E+04
 0.11249999E+02 -0.78775E+04
 0.11299999E+02 -0.77737E+04
 0.11349999E+02 -0.77949E+04
 0.11400000E+02 -0.77608E+04
 0.11449999E+02 -0.75929E+04
 0.11499999E+02 -0.74684E+04
 0.11549999E+02 -0.75304E+04
 0.11599999E+02 -0.77564E+04
 0.11650000E+02 -0.81906E+04
 0.11699999E+02 -0.88224E+04
 0.11749999E+02 -0.95688E+04
 0.11799999E+02 -0.10479E+05
 0.11849999E+02 -0.11507E+05
 0.11900000E+02 -0.12462E+05
 0.11949999E+02 -0.13190E+05
 0.11999999E+02 -0.13673E+05
 0.12049999E+02 -0.13908E+05
 0.12099999E+02 -0.13729E+05
 0.12150000E+02 -0.12990E+05
 0.12199999E+02 -0.11740E+05
 0.12249999E+02 -0.10129E+05
 0.12299999E+02 -0.81503E+04
 0.12349999E+02 -0.58847E+04
 0.12400000E+02 -0.36321E+04
 0.12449999E+02 -0.15790E+04
 0.12499999E+02  0.30183E+03
 0.12549999E+02  0.19899E+04
 0.12599999E+02  0.32043E+04
 0.12649999E+02  0.36507E+04
 0.12699999E+02  0.32693E+04
 0.12749999E+02  0.23779E+04
 0.12799999E+02  0.13191E+04
 0.12849999E+02  0.40096E+03
 0.12899999E+02 -0.21729E+03
 0.12949999E+02 -0.65180E+03
 0.12999999E+02 -0.11548E+04
 0.13049999E+02 -0.17630E+04
 0.13099999E+02 -0.23296E+04
 0.13149999E+02 -0.30067E+04
 0.13199999E+02 -0.38281E+04
 0.13249999E+02 -0.46606E+04
 0.13299999E+02 -0.52521E+04
 0.13349999E+02 -0.54279E+04
 0.13399999E+02 -0.51934E+04
 0.13449999E+02 -0.46310E+04
 0.13499999E+02 -0.39151E+04
 0.13549999E+02 -0.31965E+04
 0.13599999E+02 -0.25512E+04
 0.13649999E+02 -0.18641E+04
 0.13699999E+02 -0.95493E+03
 0.13749999E+02  0.20891E+03
 0.13799999E+02  0.14732E+04
 0.13849999E+02  0.26895E+04
 0.13899999E+02  0.37613E+04
 0.13949999E+02  0.45608E+04
 0.13999999E+02  0.50285E+04
 0.14049999E+02  0.51094E+04
 0.14099998E+02  0.46637E+04
 0.14150000E+02  0.37069E+04
 0.14199999E+02  0.24004E+04
 0.14249998E+02  0.10667E+04
 0.14299999E+02 -0.13728E+03
 0.14349998E+02 -0.14241E+04
 0.14400000E+02 -0.30237E+04
 0.14449999E+02 -0.50821E+04
 0.14499998E+02 -0.76935E+04
 0.14549999E+02 -0.10902E+05
 0.14599998E+02 -0.14608E+05
 0.14650000E+02 -0.18580E+05
 0.14699999E+02 -0.22502E+05
 0.14749998E+02 -0.26093E+05
 0.14799999E+02 -0.29194E+05
 0.14849998E+02 -0.31650E+05
 0.14900000E+02 -0.33525E+05
 0.14949999E+02 -0.35033E+05
 0.14999998E+02 -0.36486E+05
 0.15049999E+02 -0.37795E+05
 0.15099998E+02 -0.39041E+05
 0.15150000E+02 -0.40416E+05
 0.15199999E+02 -0.41541E+05
 0.15249998E+02 -0.41419E+05
 0.15299999E+02 -0.39939E+05
 0.15349998E+02 -0.37631E+05
 0.15400000E+02 -0.34294E+05
 0.15449999E+02 -0.30645E+05
 0.15499998E+02 -0.27190E+05
 0.15549999E+02 -0.24322E+05
 0.15599998E+02 -0.21977E+05
 0.15650000E+02 -0.22129E+05
 0.15699999E+02 -0.25262E+05
 0.15749998E+02 -0.28897E+05
 0.15799999E+02 -0.32061E+05
 0.15849998E+02 -0.28089E+05
 0.15900000E+02 -0.10970E+05
 0.15949999E+02  0.18113E+05
 0.15999998E+02  0.43214E+05
 0.16049999E+02  0.48316E+05
 0.16099998E+02  0.16507E+05
 0.16150000E+02 -0.32206E+05
 0.16199999E+02 -0.75832E+05
 0.16249998E+02 -0.10413E+06
 0.16299999E+02 -0.11082E+06
 0.16349998E+02 -0.82816E+05
 0.16400000E+02 -0.66556E+05
 0.16449999E+02 -0.57940E+05
 0.16499998E+02 -0.78402E+04
 0.16549999E+02  0.57269E+05
 0.16599998E+02  0.16395E+06
 0.16650000E+02  0.21866E+06
 0.16699999E+02  0.16338E+06
 0.16749998E+02  0.10023E+06
 0.16799999E+02  0.47695E+05
 0.16849998E+02 -0.62637E+05
 0.16900000E+02 -0.11635E+06
 0.16949999E+02 -0.11146E+06
 0.16999998E+02 -0.14690E+06
 0.17049999E+02 -0.72130E+05
 0.17099998E+02  0.37609E+05
 0.17150000E+02  0.11832E+06
 0.17199999E+02  0.27141E+06
 0.17249998E+02  0.30388E+06
 0.17299999E+02  0.27794E+06
 0.17349998E+02  0.28820E+06
 0.17400000E+02  0.23570E+06
 0.17449999E+02  0.82976E+05
 0.17499998E+02 -0.82568E+05
 0.17549999E+02 -0.11438E+06
 0.17599998E+02 -0.10202E+06
 0.17650000E+02 -0.67056E+05
 0.17699999E+02 -0.19326E+05
 0.17749998E+02 -0.59513E+05
 0.17799999E+02 -0.94435E+05
 0.17849998E+02 -0.52024E+05
 0.17900000E+02 -0.67358E+05
 0.17949999E+02  0.10646E+06
 0.17999998E+02  0.19549E+06
 0.18049999E+02  0.14777E+06
 0.18099998E+02  0.10454E+06
 0.18150000E+02 -0.10623E+06
 0.18199999E+02 -0.21053E+06
 0.18249998E+02 -0.21913E+06
 0.18299999E+02 -0.15481E+06
 0.18349998E+02 -0.20697E+05
 0.18400000E+02  0.69995E+05
 0.18449999E+02  0.84170E+05
 0.18499998E+02  0.14389E+06
 0.18549999E+02  0.20788E+06
 0.18599998E+02  0.18809E+06
 0.18650000E+02  0.73894E+05
 0.18699999E+02  0.41699E+05
 0.18749998E+02  0.22208E+05
 0.18799999E+02  0.14947E+05
 0.18849998E+02  0.21849E+06
 0.18900000E+02  0.36578E+06
 0.18949999E+02  0.35820E+06
 0.18999998E+02  0.26619E+06
 0.19049999E+02  0.16769E+06
 0.19099998E+02  0.26548E+06
 0.19150000E+02  0.34509E+06
 0.19199999E+02  0.28115E+06
 0.19249998E+02  0.25504E+06
 0.19299999E+02  0.10628E+06
 0.19349998E+02  0.14413E+06
 0.19400000E+02  0.19062E+06
 0.19449999E+02  0.17937E+06
 0.19499998E+02  0.22069E+06
 0.19549999E+02  0.14764E+06
 0.19599998E+02  0.11388E+06
 0.19650000E+02  0.87643E+05
 0.19699999E+02  0.13840E+06
 0.19749998E+02  0.13786E+06
 0.19799999E+02  0.97156E+05
 0.19849998E+02  0.64725E+04
 0.19900000E+02 -0.61274E+05
 0.19949999E+02 -0.26878E+05
 0.19999998E+02  0.97963E+05
 0.20049999E+02  0.22950E+04
 0.20099998E+02 -0.25828E+06
 0.20150000E+02 -0.34586E+06
 0.20199999E+02 -0.24057E+06
 0.20249998E+02  0.38832E+05
 0.20299999E+02  0.16121E+06
 0.20349998E+02  0.14510E+06
 0.20399998E+02  0.65995E+05
 0.20449999E+02  0.42120E+05
 0.20499998E+02  0.80987E+05
 0.20549999E+02  0.85218E+05
 0.20599998E+02  0.28635E+05
 0.20649998E+02 -0.59641E+05
 0.20699999E+02  0.91593E+05
 0.20749998E+02  0.37565E+06
 0.20799999E+02  0.39935E+06
 0.20849998E+02  0.18035E+06
 0.20899998E+02 -0.85943E+04
 0.20949999E+02 -0.16815E+06
 0.20999998E+02 -0.17059E+06
 0.21049999E+02  0.85271E+05
 0.21099998E+02  0.37758E+06
 0.21149998E+02  0.33189E+06
 0.21199999E+02  0.43878E+04
 0.21249998E+02 -0.66098E+05
 0.21299999E+02 -0.33339E+05
 0.21349998E+02 -0.30986E+05
 0.21399998E+02  0.35902E+05
 0.21449999E+02  0.71618E+05
 0.21499998E+02  0.83764E+05
 0.21549999E+02  0.59879E+05
 0.21599998E+02  0.31739E+05
 0.21649998E+02 -0.34688E+05
 0.21699999E+02 -0.12569E+06
 0.21749998E+02 -0.20996E+06
 0.21799999E+02 -0.13969E+06
 0.21849998E+02  0.79482E+05
 0.21899998E+02  0.17848E+06
 0.21949999E+02  0.10920E+06
 0.21999998E+02  0.14720E+06
 0.22049999E+02  0.17305E+06
 0.22099998E+02  0.10894E+06
 0.22149998E+02  0.18263E+06
 0.22199999E+02  0.14587E+06
 0.22249998E+02 -0.85048E+05
 0.22299999E+02 -0.16262E+06
 0.22349998E+02  0.25096E+04
 0.22399998E+02  0.39321E+05
 0.22449999E+02 -0.62337E+05
 0.22499998E+02 -0.12324E+06
 0.22549999E+02 -0.80593E+05
 0.22599998E+02 -0.66927E+05
 0.22649998E+02  0.57030E+04
 0.22699999E+02  0.18163E+06
 0.22749998E+02  0.34270E+06
 0.22799999E+02  0.34904E+06
 0.22849998E+02  0.10200E+06
 0.22899998E+02 -0.45991E+05
 0.22949999E+02 -0.42226E+05
 0.22999998E+02  0.98083E+05
 0.23049999E+02  0.22523E+06
 0.23099998E+02  0.17768E+06
 0.23149998E+02  0.10456E+06
 0.23199999E+02  0.46779E+05
 0.23249998E+02  0.32406E+05
 0.23299999E+02  0.57629E+05
 0.23349998E+02  0.40805E+05
 0.23399998E+02  0.63415E+05
 0.23449999E+02  0.98610E+05
 0.23499998E+02  0.52812E+05
 0.23549999E+02  0.74536E+05
 0.23599998E+02  0.21271E+06
 0.23649998E+02  0.35138E+06
 0.23699999E+02  0.38823E+06
 0.23749998E+02  0.37688E+06
 0.23799999E+02  0.33856E+06
 0.23849998E+02  0.15911E+06
 0.23899998E+02  0.12086E+05
 0.23949999E+02  0.31904E+05
 0.23999998E+02  0.14449E+06
 0.24049999E+02  0.21322E+06
 0.24099998E+02  0.13425E+06
 0.24149998E+02  0.90828E+05
 0.24199999E+02  0.15780E+06
 0.24249998E+02  0.22664E+06
 0.24299999E+02  0.21974E+06
 0.24349998E+02  0.19380E+06
 0.24399998E+02  0.17199E+06
 0.24449999E+02  0.11898E+06
 0.24499998E+02  0.79798E+05
 0.24549999E+02  0.35602E+05
 0.24599998E+02 -0.33928E+05
 0.24649998E+02 -0.14871E+06
 0.24699999E+02 -0.21537E+06
 0.24749998E+02 -0.23698E+06
 0.24799999E+02 -0.17155E+06
 0.24849998E+02 -0.99108E+05
 0.24899998E+02 -0.90550E+05
 0.24949999E+02 -0.66406E+05
 0.24999998E+02 -0.47498E+05
 0.25049999E+02 -0.11265E+06
 0.25099998E+02 -0.31687E+06
 0.25149998E+02 -0.46398E+06
 0.25199999E+02 -0.54140E+06
 0.25249998E+02 -0.58369E+06
 0.25299999E+02 -0.59282E+06
 0.25349998E+02 -0.54485E+06
 0.25399998E+02 -0.57317E+06
 0.25449999E+02 -0.72175E+06
 0.25499998E+02 -0.80106E+06
 0.25549999E+02 -0.81282E+06
 0.25599998E+02 -0.79978E+06
 0.25649998E+02 -0.78207E+06
 0.25699999E+02 -0.74951E+06
 0.25749998E+02 -0.76428E+06
 0.25799999E+02 -0.87225E+06
 0.25849998E+02 -0.10219E+07
 0.25899998E+02 -0.11806E+07
 0.25949999E+02 -0.14006E+07
 0.25999998E+02 -0.16326E+07
 0.26049999E+02 -0.17900E+07
 0.26099998E+02 -0.17960E+07
 0.26149998E+02 -0.17303E+07
 0.26199999E+02 -0.17535E+07
 0.26249998E+02 -0.20409E+07
 0.26299999E+02 -0.26097E+07
 0.26349998E+02 -0.32963E+07
 0.26399998E+02 -0.41691E+07
 0.26449999E+02 -0.50844E+07
 0.26499998E+02 -0.57916E+07
 0.26549999E+02 -0.62505E+07
 0.26599998E+02 -0.65768E+07
 0.26649998E+02 -0.66877E+07
 0.26699999E+02 -0.62650E+07
 0.26749998E+02 -0.53129E+07
 0.26799999E+02 -0.43345E+07
 0.26849998E+02 -0.37440E+07
 0.26899998E+02 -0.35207E+07
 0.26949999E+02 -0.31727E+07
 0.26999998E+02 -0.23430E+07
 0.27049997E+02 -0.12815E+07
 0.27099998E+02 -0.14488E+06
 0.27149998E+02  0.10292E+07
 0.27199999E+02  0.22278E+07
 0.27249998E+02  0.32044E+07
 0.27299997E+02  0.39293E+07
 0.27349998E+02  0.44385E+07
 0.27399998E+02  0.42147E+07
 0.27449999E+02  0.33558E+07
 0.27499998E+02  0.28447E+07
 0.27549997E+02  0.30016E+07
 0.27599998E+02  0.39276E+07
 0.27649998E+02  0.51798E+07
 0.27699999E+02  0.63037E+07
 0.27749998E+02  0.68074E+07
 0.27799997E+02  0.68622E+07
 0.27849998E+02  0.63679E+07
 0.27899998E+02  0.48192E+07
 0.27949999E+02  0.32763E+07
 0.27999998E+02  0.16931E+07
 0.28049997E+02  0.22701E+06
 0.28099998E+02 -0.45308E+06
 0.28149998E+02  0.23634E+06
 0.28199999E+02  0.17083E+07
 0.28249998E+02  0.24475E+07
 0.28299997E+02  0.19428E+07
 0.28349998E+02  0.41304E+06
 0.28399998E+02 -0.10324E+07
 0.28449999E+02 -0.14451E+07
 0.28499998E+02 -0.68174E+06
 0.28549997E+02  0.39645E+06
 0.28599998E+02  0.57071E+06
 0.28649998E+02  0.41974E+06
 0.28699999E+02  0.91459E+06
 0.28749998E+02  0.18523E+07
 0.28799997E+02  0.27264E+07
 0.28849998E+02  0.34547E+07
 0.28899998E+02  0.36832E+07
 0.28949999E+02  0.34983E+07
 0.28999998E+02  0.36370E+07
 0.29049997E+02  0.48412E+07
 0.29099998E+02  0.64543E+07
 0.29149998E+02  0.68101E+07
 0.29199999E+02  0.67305E+07
 0.29249998E+02  0.67800E+07
 0.29299997E+02  0.67597E+07
 0.29349998E+02  0.68047E+07
 0.29399998E+02  0.67852E+07
 0.29449999E+02  0.68101E+07
 0.29499998E+02  0.67796E+07
 0.29549997E+02  0.67900E+07
 0.29599998E+02  0.67668E+07
 0.29649998E+02  0.67861E+07
 0.29699999E+02  0.67756E+07
 0.29749998E+02  0.67892E+07
 0.29799997E+02  0.66982E+07
 0.29849998E+02  0.54032E+07
 0.29899998E+02  0.41355E+07
 0.29949999E+02  0.40018E+07
 0.29999998E+02  0.47419E+07
 0.30049999E+02  0.55130E+07
 0.30099998E+02  0.55429E+07
 0.30149998E+02  0.48861E+07
 0.30199997E+02  0.35347E+07
 0.30249996E+02  0.21378E+07
 0.30299999E+02  0.90941E+06
 0.30349998E+02  0.11015E+05
 0.30399998E+02 -0.45048E+06
 0.30449997E+02 -0.33509E+06
 0.30499996E+02  0.25825E+06
 0.30549999E+02  0.78580E+06
 0.30599998E+02  0.10303E+07
 0.30649998E+02  0.89471E+06
 0.30699997E+02  0.29992E+06
 0.30749996E+02 -0.47435E+05
 0.30799999E+02  0.26441E+06
 0.30849998E+02  0.50092E+06
 0.30899998E+02  0.24225E+06
 0.30949997E+02 -0.15768E+06
 0.30999996E+02 -0.25059E+06
 0.31049999E+02  0.16345E+06
 0.31099998E+02  0.85875E+06
 0.31149998E+02  0.20316E+07
 0.31199997E+02  0.36390E+07
 0.31249996E+02  0.51681E+07
 0.31299999E+02  0.64933E+07
 0.31349998E+02  0.68120E+07
 0.31399998E+02  0.68104E+07
 0.31449997E+02  0.60810E+07
 0.31499996E+02  0.44772E+07
 0.31549999E+02  0.34377E+07
 0.31599998E+02  0.29540E+07
 0.31649998E+02  0.30618E+07
 0.31699997E+02  0.35929E+07
 0.31749996E+02  0.42080E+07
 0.31799999E+02  0.47364E+07
 0.31849998E+02  0.52038E+07
 0.31899998E+02  0.54247E+07
 0.31949997E+02  0.53125E+07
 0.31999996E+02  0.49008E+07
 0.32049999E+02  0.44573E+07
 0.32099998E+02  0.39892E+07
 0.32149998E+02  0.36359E+07
 0.32199997E+02  0.36513E+07
 0.32249996E+02  0.38530E+07
 0.32299999E+02  0.40391E+07
 0.32349998E+02  0.42829E+07
 0.32399998E+02  0.44674E+07
 0.32449997E+02  0.41715E+07
 0.32499996E+02  0.32297E+07
 0.32549999E+02  0.19455E+07
 0.32599998E+02  0.96519E+06
 0.32649998E+02  0.51679E+06
 0.32699997E+02  0.69981E+06
 0.32749996E+02  0.12430E+07
 0.32799999E+02  0.15720E+07
 0.32849998E+02  0.14843E+07
 0.32899998E+02  0.13747E+07
 0.32949997E+02  0.16174E+07
 0.32999996E+02  0.21685E+07
 0.33049999E+02  0.28362E+07
 0.33099998E+02  0.33112E+07
 0.33149998E+02  0.35651E+07
 0.33199997E+02  0.40089E+07
 0.33249996E+02  0.47958E+07
 0.33299999E+02  0.54593E+07
 0.33349998E+02  0.56450E+07
 0.33399998E+02  0.54309E+07
 0.33449997E+02  0.48444E+07
 0.33499996E+02  0.41128E+07
 0.33549999E+02  0.36245E+07
 0.33599998E+02  0.33394E+07
 0.33649998E+02  0.29426E+07
 0.33699997E+02  0.24359E+07
 0.33749996E+02  0.17892E+07
 0.33799999E+02  0.96746E+06
 0.33849998E+02  0.39343E+06
 0.33899998E+02  0.29517E+06
 0.33949997E+02  0.62465E+06
 0.33999996E+02  0.13304E+07
 0.34049999E+02  0.21415E+07
 0.34099998E+02  0.26783E+07
 0.34149998E+02  0.27861E+07
 0.34199997E+02  0.23646E+07
 0.34249996E+02  0.14403E+07
 0.34299999E+02  0.30016E+06
 0.34349998E+02 -0.81612E+06
 0.34399998E+02 -0.16307E+07
 0.34449997E+02 -0.20174E+07
 0.34499996E+02 -0.22378E+07
 0.34549999E+02 -0.21721E+07
 0.34599998E+02 -0.17676E+07
 0.34649998E+02 -0.14009E+07
 0.34699997E+02 -0.14272E+07
 0.34749996E+02 -0.16950E+07
 0.34799999E+02 -0.19027E+07
 0.34849998E+02 -0.19030E+07
 0.34899998E+02 -0.13383E+07
 0.34949997E+02 -0.38555E+06
 0.34999996E+02  0.59921E+06
 0.35049999E+02  0.14591E+07
 0.35099998E+02  0.18394E+07
 0.35149998E+02  0.15833E+07
 0.35199997E+02  0.90534E+06
 0.35249996E+02  0.26437E+06
 0.35299999E+02 -0.12826E+06
 0.35349998E+02 -0.30962E+06
 0.35399998E+02 -0.41744E+05
 0.35449997E+02  0.49400E+06
 0.35499996E+02  0.92158E+06
 0.35549999E+02  0.10070E+07
 0.35599998E+02  0.81621E+06
 0.35649998E+02  0.77296E+06
 0.35699997E+02  0.89116E+06
 0.35749996E+02  0.86100E+06
 0.35799999E+02  0.87030E+06
 0.35849998E+02  0.11636E+07
 0.35899998E+02  0.12023E+07
 0.35949997E+02  0.78998E+06
 0.35999996E+02  0.23495E+06
 0.36049999E+02 -0.23620E+06
 0.36099998E+02 -0.44880E+06
 0.36149998E+02 -0.46438E+06
 0.36199997E+02 -0.40047E+06
 0.36249996E+02 -0.24751E+06
 0.36299999E+02  0.20613E+06
 0.36349998E+02  0.10282E+07
 0.36399998E+02  0.20031E+07
 0.36449997E+02  0.27609E+07
 0.36499996E+02  0.29260E+07
 0.36549999E+02  0.25640E+07
 0.36599998E+02  0.22138E+07
 0.36649998E+02  0.21202E+07
 0.36699997E+02  0.19310E+07
 0.36749996E+02  0.17742E+07
 0.36799999E+02  0.17537E+07
 0.36849998E+02  0.17872E+07
 0.36899998E+02  0.20277E+07
 0.36949997E+02  0.25866E+07
 0.36999996E+02  0.35795E+07
 0.37049999E+02  0.45809E+07
 0.37099998E+02  0.51685E+07
 0.37149998E+02  0.51818E+07
 0.37199997E+02  0.49550E+07
 0.37249996E+02  0.48727E+07
 0.37299999E+02  0.45996E+07
 0.37349998E+02  0.40170E+07
 0.37399998E+02  0.34478E+07
 0.37449997E+02  0.29401E+07
 0.37499996E+02  0.23942E+07
 0.37549999E+02  0.19177E+07
 0.37599998E+02  0.17260E+07
 0.37649998E+02  0.18267E+07
 0.37699997E+02  0.19945E+07
 0.37749996E+02  0.22167E+07
 0.37799999E+02  0.24334E+07
 0.37849998E+02  0.26406E+07
 0.37899998E+02  0.27600E+07
 0.37949997E+02  0.26336E+07
 0.37999996E+02  0.24257E+07
 0.38049999E+02  0.21742E+07
 0.38099998E+02  0.18897E+07
 0.38149998E+02  0.18326E+07
 0.38199997E+02  0.19320E+07
 0.38249996E+02  0.20375E+07
 0.38299999E+02  0.22167E+07
 0.38349998E+02  0.24035E+07
 0.38399998E+02  0.24756E+07
 0.38449997E+02  0.23140E+07
 0.38499996E+02  0.19945E+07
 0.38549999E+02  0.15564E+07
 0.38599998E+02  0.11113E+07
 0.38649998E+02  0.71974E+06
 0.38699997E+02  0.42738E+06
 0.38749996E+02  0.42336E+06
 0.38799999E+02  0.57649E+06
 0.38849998E+02  0.67601E+06
 0.38899998E+02  0.59064E+06
 0.38949997E+02  0.34749E+06
 0.38999996E+02 -0.13286E+05
 0.39049999E+02 -0.37196E+06
 0.39099998E+02 -0.66359E+06
 0.39149998E+02 -0.82180E+06
 0.39199997E+02 -0.79535E+06
 0.39249996E+02 -0.77928E+06
 0.39299999E+02 -0.84134E+06
 0.39349998E+02 -0.85396E+06
 0.39399998E+02 -0.86546E+06
 0.39449997E+02 -0.92741E+06
 0.39499996E+02 -0.10487E+07
 0.39549999E+02 -0.11484E+07
 0.39599998E+02 -0.10766E+07
 0.39649998E+02 -0.86964E+06
 0.39699997E+02 -0.55770E+06
 0.39749996E+02 -0.32070E+06
 0.39799999E+02 -0.26937E+06
 0.39849998E+02 -0.40600E+06
 0.39899998E+02 -0.61839E+06
 0.39949997E+02 -0.86225E+06
 0.39999996E+02 -0.97974E+06
 0.40049999E+02 -0.92956E+06
 0.40099998E+02 -0.83621E+06
 0.40149998E+02 -0.58620E+06
 0.40199997E+02 -0.19130E+06
 0.40249996E+02  0.26349E+06
 0.40299999E+02  0.63621E+06
 0.40349998E+02  0.10033E+07
 0.40399998E+02  0.13857E+07
 0.40449997E+02  0.16650E+07
 0.40499996E+02  0.21056E+07
 0.40549999E+02  0.27813E+07
 0.40599998E+02  0.32694E+07
 0.40649998E+02  0.34108E+07
 0.40699997E+02  0.32518E+07
 0.40749996E+02  0.29681E+07
 0.40799999E+02  0.26562E+07
 0.40849998E+02  0.21715E+07
 0.40899998E+02  0.15553E+07
 0.40949997E+02  0.93776E+06
 0.40999996E+02  0.56384E+06
 0.41049999E+02  0.47205E+06
 0.41099998E+02  0.64569E+06
 0.41149998E+02  0.84272E+06
 0.41199997E+02  0.68555E+06
 0.41249996E+02  0.33243E+06
 0.41299999E+02  0.17363E+05
 0.41349998E+02 -0.16800E+06
 0.41399998E+02 -0.28762E+06
 0.41449997E+02 -0.45804E+06
 0.41499996E+02 -0.69042E+06
 0.41549999E+02 -0.10208E+07
 0.41599998E+02 -0.12447E+07
 0.41649998E+02 -0.13631E+07
 0.41699997E+02 -0.15516E+07
 0.41749996E+02 -0.17491E+07
 0.41799999E+02 -0.19380E+07
 0.41849998E+02 -0.19728E+07
 0.41899998E+02 -0.17354E+07
 0.41949997E+02 -0.12599E+07
 0.41999996E+02 -0.66509E+06
 0.42049999E+02 -0.16099E+05
 0.42099998E+02  0.56101E+06
 0.42149998E+02  0.10174E+07
 0.42199997E+02  0.13480E+07
 0.42249996E+02  0.14856E+07
 0.42299999E+02  0.14656E+07
 0.42349998E+02  0.13880E+07
 0.42399998E+02  0.13251E+07
 0.42449997E+02  0.12318E+07
 0.42499996E+02  0.11459E+07
 0.42549999E+02  0.11668E+07
 0.42599998E+02  0.12588E+07
 0.42649998E+02  0.12169E+07
 0.42699997E+02  0.10645E+07
 0.42749996E+02  0.98579E+06
 0.42799995E+02  0.94917E+06
 0.42849998E+02  0.78131E+06
 0.42899998E+02  0.59051E+06
 0.42949997E+02  0.51160E+06
 0.42999996E+02  0.49786E+06
 0.43049995E+02  0.47864E+06
 0.43099998E+02  0.40486E+06
 0.43149998E+02  0.38599E+06
 0.43199997E+02  0.28119E+06
 0.43249996E+02 -0.15156E+05
 0.43299995E+02 -0.30779E+06
 0.43349998E+02 -0.40905E+06
 0.43399998E+02 -0.35979E+06
 0.43449997E+02 -0.24830E+06
 0.43499996E+02 -0.89654E+05
 0.43549995E+02 -0.16246E+05
 0.43599998E+02  0.74529E+04
 0.43649998E+02  0.11160E+06
 0.43699997E+02  0.25336E+06
 0.43749996E+02  0.42310E+06
 0.43799995E+02  0.48848E+06
 0.43849998E+02  0.45161E+06
 0.43899998E+02  0.43192E+06
 0.43949997E+02  0.32628E+06
 0.43999996E+02  0.96003E+05
 0.44049995E+02 -0.26151E+06
 0.44099998E+02 -0.66941E+06
 0.44149998E+02 -0.97492E+06
 0.44199997E+02 -0.98859E+06
 0.44249996E+02 -0.72401E+06
 0.44299995E+02 -0.31415E+06
 0.44349998E+02  0.14986E+06
 0.44399998E+02  0.43657E+06
 0.44449997E+02  0.58929E+06
 0.44499996E+02  0.74057E+06
 0.44549995E+02  0.78478E+06
 0.44599998E+02  0.76114E+06
 0.44649998E+02  0.72004E+06
 0.44699997E+02  0.71787E+06
 0.44749996E+02  0.72070E+06
 0.44799995E+02  0.70613E+06
 0.44849998E+02  0.66822E+06
 0.44899998E+02  0.45477E+06
 0.44949997E+02  0.93375E+05
 0.44999996E+02 -0.36857E+06
 0.45049995E+02 -0.86759E+06
 0.45099998E+02 -0.12836E+07
 0.45149998E+02 -0.15823E+07
 0.45199997E+02 -0.17282E+07
 0.45249996E+02 -0.17190E+07
 0.45299995E+02 -0.15374E+07
 0.45349998E+02 -0.13497E+07
 0.45399998E+02 -0.13189E+07
 0.45449997E+02 -0.11722E+07
 0.45499996E+02 -0.85442E+06
 0.45549995E+02 -0.56652E+06
 0.45599998E+02 -0.38319E+06
 0.45649998E+02 -0.26192E+06
 0.45699997E+02 -0.24260E+06
 0.45749996E+02 -0.35654E+06
 0.45799995E+02 -0.50260E+06
 0.45849998E+02 -0.65826E+06
 0.45899998E+02 -0.87459E+06
 0.45949997E+02 -0.10954E+07
 0.45999996E+02 -0.12422E+07
 0.46049995E+02 -0.12645E+07
 0.46099998E+02 -0.10621E+07
 0.46149998E+02 -0.77787E+06
 0.46199997E+02 -0.49088E+06
 0.46249996E+02 -0.22617E+06
 0.46299995E+02 -0.43761E+05
 0.46349998E+02  0.41972E+05
 0.46399998E+02  0.71822E+05
 0.46449997E+02  0.99294E+05
 0.46499996E+02  0.15623E+06
 0.46549995E+02  0.26684E+06
 0.46599998E+02  0.41205E+06
 0.46649998E+02  0.58425E+06
 0.46699997E+02  0.74280E+06
 0.46749996E+02  0.80547E+06
 0.46799995E+02  0.72295E+06
 0.46849998E+02  0.63108E+06
 0.46899998E+02  0.48302E+06
 0.46949997E+02  0.28193E+06
 0.46999996E+02  0.11828E+06
 0.47049995E+02  0.31870E+05
 0.47099998E+02  0.15038E+05
 0.47149998E+02  0.37213E+05
 0.47199997E+02  0.68451E+05
 0.47249996E+02  0.21499E+05
 0.47299995E+02 -0.19574E+05
 0.47349998E+02 -0.39935E+05
 0.47399998E+02 -0.13203E+06
 0.47449997E+02 -0.27004E+06
 0.47499996E+02 -0.45039E+06
 0.47549995E+02 -0.65883E+06
 0.47599998E+02 -0.80100E+06
 0.47649998E+02 -0.89933E+06
 0.47699997E+02 -0.10224E+07
 0.47749996E+02 -0.10690E+07
 0.47799995E+02 -0.10567E+07
 0.47849998E+02 -0.10878E+07
 0.47899998E+02 -0.10795E+07
 0.47949997E+02 -0.10355E+07
 0.47999996E+02 -0.87897E+06
 0.48049995E+02 -0.63094E+06
 0.48099998E+02 -0.40753E+06
 0.48149998E+02 -0.24927E+06
 0.48199997E+02 -0.15583E+06
 0.48249996E+02 -0.40803E+05
 0.48299995E+02  0.44808E+05
 0.48349998E+02  0.38233E+05
 0.48399998E+02 -0.41067E+05
 0.48449997E+02 -0.12684E+06
 0.48499996E+02 -0.18810E+06
 0.48549995E+02 -0.22045E+06
 0.48599998E+02 -0.19548E+06
 0.48649998E+02 -0.19777E+06
 0.48699997E+02 -0.28429E+06
 0.48749996E+02 -0.43462E+06
 0.48799995E+02 -0.60888E+06
 0.48849998E+02 -0.76354E+06
 0.48899998E+02 -0.84620E+06
 0.48949997E+02 -0.88879E+06
 0.48999996E+02 -0.95577E+06
 0.49049995E+02 -0.97440E+06
 0.49099998E+02 -0.86521E+06
 0.49149998E+02 -0.68122E+06
 0.49199997E+02 -0.48105E+06
 0.49249996E+02 -0.27644E+06
 0.49299995E+02 -0.11628E+06
 0.49349998E+02 -0.40775E+05
 0.49399998E+02 -0.60421E+05
 0.49449997E+02 -0.13301E+06
 0.49499996E+02 -0.23595E+06
 0.49549995E+02 -0.35840E+06
 0.49599998E+02 -0.49327E+06
 0.49649998E+02 -0.62332E+06
 0.49699997E+02 -0.71102E+06
 0.49749996E+02 -0.71682E+06
 0.49799995E+02 -0.70932E+06
 0.49849998E+02 -0.73508E+06
 0.49899998E+02 -0.81116E+06
 0.49949997E+02 -0.93106E+06
 0.49999996E+02 -0.10140E+07
 0.50049995E+02 -0.10913E+07
 0.50099998E+02 -0.11209E+07
 0.50149998E+02 -0.11332E+07
 0.50199997E+02 -0.11918E+07
 0.50249996E+02 -0.12385E+07
 0.50299995E+02 -0.12517E+07
 0.50349998E+02 -0.12343E+07
 0.50399998E+02 -0.12136E+07
 0.50449997E+02 -0.11891E+07
 0.50499996E+02 -0.11165E+07
 0.50549995E+02 -0.99952E+06
 0.50599998E+02 -0.89767E+06
 0.50649998E+02 -0.76711E+06
 0.50699997E+02 -0.56748E+06
 0.50749996E+02 -0.28509E+06
 0.50799995E+02  0.20450E+05
 0.50849998E+02  0.18456E+06
 0.50899998E+02  0.16180E+06
 0.50949997E+02 -0.14803E+05
 0.50999996E+02 -0.27340E+06
 0.51049995E+02 -0.57477E+06
 0.51099998E+02 -0.89272E+06
 0.51149998E+02 -0.11665E+07
 0.51199997E+02 -0.14075E+07
 0.51249996E+02 -0.15807E+07
 0.51299995E+02 -0.15728E+07
 0.51349998E+02 -0.13988E+07
 0.51399998E+02 -0.12065E+07
 0.51449997E+02 -0.10684E+07
 0.51499996E+02 -0.99576E+06
 0.51549995E+02 -0.94873E+06
 0.51599998E+02 -0.85596E+06
 0.51649998E+02 -0.78237E+06
 0.51699997E+02 -0.76445E+06
 0.51749996E+02 -0.76216E+06
 0.51799995E+02 -0.78521E+06
 0.51849998E+02 -0.75926E+06
 0.51899998E+02 -0.63140E+06
 0.51949997E+02 -0.47679E+06
 0.51999996E+02 -0.35901E+06
 0.52049995E+02 -0.31540E+06
 0.52099998E+02 -0.31543E+06
 0.52149998E+02 -0.27596E+06
 0.52199997E+02 -0.18737E+06
 0.52249996E+02 -0.92240E+05
 0.52299995E+02  0.70635E+04
 0.52349998E+02  0.12697E+06
 0.52399998E+02  0.25783E+06
 0.52449997E+02  0.35194E+06
 0.52499996E+02  0.39262E+06
 0.52549995E+02  0.35223E+06
 0.52599998E+02  0.24818E+06
 0.52649998E+02  0.13097E+06
 0.52699997E+02  0.94823E+04
 0.52749996E+02 -0.13006E+06
 0.52799995E+02 -0.31303E+06
 0.52849998E+02 -0.48134E+06
 0.52899998E+02 -0.62256E+06
 0.52949997E+02 -0.76613E+06
 0.52999996E+02 -0.94147E+06
 0.53049995E+02 -0.11448E+07
 0.53099998E+02 -0.13349E+07
 0.53149998E+02 -0.14814E+07
 0.53199997E+02 -0.15183E+07
 0.53249996E+02 -0.14577E+07
 0.53299995E+02 -0.13456E+07
 0.53349998E+02 -0.12196E+07
 0.53399998E+02 -0.11177E+07
 0.53449997E+02 -0.99340E+06
 0.53499996E+02 -0.83178E+06
 0.53549995E+02 -0.67142E+06
 0.53599998E+02 -0.54871E+06
 0.53649998E+02 -0.48549E+06
 0.53699997E+02 -0.49225E+06
 0.53749996E+02 -0.55254E+06
 0.53799995E+02 -0.62373E+06
 0.53849998E+02 -0.69313E+06
 0.53899998E+02 -0.73555E+06
 0.53949997E+02 -0.76725E+06
 0.53999996E+02 -0.80002E+06
 0.54049995E+02 -0.83889E+06
 0.54099998E+02 -0.93562E+06
 0.54149998E+02 -0.10696E+07
 0.54199997E+02 -0.12202E+07
 0.54249996E+02 -0.13704E+07
 0.54299995E+02 -0.15011E+07
 0.54349998E+02 -0.15901E+07
 0.54399998E+02 -0.16274E+07
 0.54449997E+02 -0.16947E+07
 0.54499996E+02 -0.17350E+07
 0.54549995E+02 -0.16939E+07
 0.54599998E+02 -0.16176E+07
 0.54649998E+02 -0.15545E+07
 0.54699997E+02 -0.15634E+07
 0.54749996E+02 -0.16184E+07
 0.54799995E+02 -0.16545E+07
 0.54849998E+02 -0.16504E+07
 0.54899998E+02 -0.16006E+07
 0.54949997E+02 -0.15130E+07
 0.54999996E+02 -0.14158E+07
 0.55049995E+02 -0.12881E+07
 0.55099998E+02 -0.11204E+07
 0.55149998E+02 -0.89565E+06
 0.55199997E+02 -0.63218E+06
 0.55249996E+02 -0.37143E+06
 0.55299995E+02 -0.14870E+06
 0.55349998E+02  0.44286E+05
 0.55399998E+02  0.24481E+06
 0.55449997E+02  0.40468E+06
 0.55499996E+02  0.46752E+06
 0.55549995E+02  0.45010E+06
 0.55599998E+02  0.35460E+06
 0.55649998E+02  0.19881E+06
 0.55699997E+02  0.65422E+05
 0.55749996E+02 -0.85183E+04
 0.55799995E+02 -0.50529E+05
 0.55849995E+02 -0.94983E+05
 0.55899998E+02 -0.16747E+06
 0.55949997E+02 -0.25165E+06
 0.55999996E+02 -0.33651E+06
 0.56049995E+02 -0.47367E+06
 0.56099995E+02 -0.66991E+06
 0.56149998E+02 -0.89049E+06
 0.56199997E+02 -0.10932E+07
 0.56249996E+02 -0.12500E+07
 0.56299995E+02 -0.13616E+07
 0.56349995E+02 -0.14471E+07
 0.56399998E+02 -0.15219E+07
 0.56449997E+02 -0.16281E+07
 0.56499996E+02 -0.17806E+07
 0.56549995E+02 -0.19749E+07
 0.56599995E+02 -0.21820E+07
 0.56649998E+02 -0.23317E+07
 0.56699997E+02 -0.23580E+07
 0.56749996E+02 -0.22694E+07
 0.56799995E+02 -0.21442E+07
 0.56849995E+02 -0.20326E+07
 0.56899998E+02 -0.19328E+07
 0.56949997E+02 -0.18376E+07
 0.56999996E+02 -0.17801E+07
 0.57049995E+02 -0.17268E+07
 0.57099995E+02 -0.16279E+07
 0.57149998E+02 -0.15041E+07
 0.57199997E+02 -0.13976E+07
 0.57249996E+02 -0.13204E+07
 0.57299995E+02 -0.12674E+07
 0.57349995E+02 -0.12020E+07
 0.57399998E+02 -0.11262E+07
 0.57449997E+02 -0.10459E+07
 0.57499996E+02 -0.96158E+06
 0.57549995E+02 -0.88027E+06
 0.57599995E+02 -0.80558E+06
 0.57649998E+02 -0.73015E+06
 0.57699997E+02 -0.62455E+06
 0.57749996E+02 -0.52365E+06
 0.57799995E+02 -0.46313E+06
 0.57849995E+02 -0.47051E+06
 0.57899998E+02 -0.51738E+06
 0.57949997E+02 -0.57568E+06
 0.57999996E+02 -0.69041E+06
 0.58049995E+02 -0.87608E+06
 0.58099995E+02 -0.10741E+07
 0.58149998E+02 -0.12582E+07
 0.58199997E+02 -0.14423E+07
 0.58249996E+02 -0.15963E+07
 0.58299995E+02 -0.16737E+07
 0.58349995E+02 -0.16778E+07
 0.58399998E+02 -0.16681E+07
 0.58449997E+02 -0.16728E+07
 0.58499996E+02 -0.16975E+07
 0.58549995E+02 -0.17206E+07
 0.58599995E+02 -0.17225E+07
 0.58649998E+02 -0.16975E+07
 0.58699997E+02 -0.16357E+07
 0.58749996E+02 -0.15588E+07
 0.58799995E+02 -0.15065E+07
 0.58849995E+02 -0.15076E+07
 0.58899998E+02 -0.15235E+07
 0.58949997E+02 -0.14958E+07
 0.58999996E+02 -0.14231E+07
 0.59049995E+02 -0.13540E+07
 0.59099995E+02 -0.12845E+07
 0.59149998E+02 -0.12239E+07
 0.59199997E+02 -0.11944E+07
 0.59249996E+02 -0.11893E+07
 0.59299995E+02 -0.12401E+07
 0.59349995E+02 -0.13135E+07
 0.59399998E+02 -0.14074E+07
 0.59449997E+02 -0.15434E+07
 0.59499996E+02 -0.16810E+07
 0.59549995E+02 -0.17845E+07
 0.59599995E+02 -0.18680E+07
 0.59649998E+02 -0.19322E+07
 0.59699997E+02 -0.19584E+07
 0.59749996E+02 -0.19306E+07
 0.59799995E+02 -0.18332E+07
 0.59849995E+02 -0.16916E+07
 0.59899998E+02 -0.14986E+07
 0.59949997E+02 -0.12684E+07
 0.59999996E+02 -0.10554E+07
 0.60049995E+02 -0.87186E+06
 0.60099995E+02 -0.70136E+06
 0.60149998E+02 -0.53653E+06
 0.60199997E+02 -0.36862E+06
 0.60249996E+02 -0.22572E+06
 0.60299995E+02 -0.11594E+06
 0.60349995E+02 -0.23948E+05
 0.60399998E+02  0.32669E+05
 0.60449997E+02  0.14515E+05
 0.60499996E+02 -0.93490E+05
 0.60549995E+02 -0.25565E+06
 0.60599995E+02 -0.41480E+06
 0.60649998E+02 -0.52437E+06
 0.60699997E+02 -0.58403E+06
 0.60749996E+02 -0.59786E+06
 0.60799995E+02 -0.60026E+06
 0.60849995E+02 -0.61016E+06
 0.60899998E+02 -0.64062E+06
 0.60949997E+02 -0.69809E+06
 0.60999996E+02 -0.77254E+06
 0.61049995E+02 -0.86465E+06
 0.61099995E+02 -0.98069E+06
 0.61149998E+02 -0.11125E+07
 0.61199997E+02 -0.12214E+07
 0.61249996E+02 -0.12711E+07
 0.61299995E+02 -0.12612E+07
 0.61349995E+02 -0.12356E+07
 0.61399998E+02 -0.12100E+07
 0.61449997E+02 -0.11819E+07
 0.61499996E+02 -0.11441E+07
 0.61549995E+02 -0.10824E+07
 0.61599995E+02 -0.98828E+06
 0.61649998E+02 -0.85221E+06
 0.61699997E+02 -0.68971E+06
 0.61749996E+02 -0.56763E+06
 0.61799995E+02 -0.51001E+06
 0.61849995E+02 -0.48533E+06
 0.61899998E+02 -0.50661E+06
 0.61949997E+02 -0.59637E+06
 0.61999996E+02 -0.71704E+06
 0.62049995E+02 -0.83127E+06
 0.62099998E+02 -0.94000E+06
 0.62149994E+02 -0.10193E+07
 0.62199997E+02 -0.10631E+07
 0.62249992E+02 -0.10975E+07
 0.62299995E+02 -0.11262E+07
 0.62349998E+02 -0.11669E+07
 0.62399994E+02 -0.12330E+07
 0.62449997E+02 -0.13174E+07
 0.62499992E+02 -0.14190E+07
 0.62549995E+02 -0.15464E+07
 0.62599998E+02 -0.16753E+07
 0.62649994E+02 -0.17582E+07
 0.62699997E+02 -0.17998E+07
 0.62749992E+02 -0.18302E+07
 0.62799995E+02 -0.18722E+07
 0.62849998E+02 -0.19092E+07
 0.62899994E+02 -0.19173E+07
 0.62949997E+02 -0.18998E+07
 0.62999992E+02 -0.18413E+07
 0.63049995E+02 -0.17591E+07
 0.63099998E+02 -0.16767E+07
 0.63149994E+02 -0.15838E+07
 0.63199997E+02 -0.14708E+07
 0.63249992E+02 -0.13524E+07
 0.63299995E+02 -0.12579E+07
 0.63349998E+02 -0.11797E+07
 0.63399994E+02 -0.11017E+07
 0.63449997E+02 -0.99738E+06
 0.63499992E+02 -0.86061E+06
 0.63549995E+02 -0.72118E+06
 0.63599998E+02 -0.59523E+06
 0.63649994E+02 -0.50123E+06
 0.63699997E+02 -0.46246E+06
 0.63749992E+02 -0.46289E+06
 0.63799995E+02 -0.49046E+06
 0.63849998E+02 -0.55497E+06
 0.63899994E+02 -0.63962E+06
 0.63949997E+02 -0.74361E+06
 0.63999992E+02 -0.85508E+06
 0.64049995E+02 -0.93876E+06
 0.64099998E+02 -0.96792E+06
 0.64149994E+02 -0.96686E+06
 0.64199997E+02 -0.96755E+06
 0.64249992E+02 -0.95760E+06
 0.64299995E+02 -0.95978E+06
 0.64349998E+02 -0.99000E+06
 0.64399994E+02 -0.10509E+07
 0.64449997E+02 -0.11537E+07
 0.64499992E+02 -0.12697E+07
 0.64549995E+02 -0.13673E+07
 0.64599998E+02 -0.14395E+07
 0.64649994E+02 -0.14787E+07
 0.64699997E+02 -0.14667E+07
 0.64749992E+02 -0.14201E+07
 0.64799995E+02 -0.13624E+07
 0.64849998E+02 -0.12950E+07
 0.64899994E+02 -0.12470E+07
 0.64949997E+02 -0.12390E+07
 0.64999992E+02 -0.12509E+07
 0.65049995E+02 -0.12386E+07
 0.65099998E+02 -0.11909E+07
 0.65149994E+02 -0.11408E+07
 0.65199997E+02 -0.11099E+07
 0.65249992E+02 -0.11044E+07
 0.65299995E+02 -0.11203E+07
 0.65349998E+02 -0.11409E+07
 0.65399994E+02 -0.11563E+07
 0.65449997E+02 -0.11906E+07
 0.65499992E+02 -0.12446E+07
 0.65549995E+02 -0.12923E+07
 0.65599998E+02 -0.13395E+07
 0.65649994E+02 -0.13898E+07
 0.65699997E+02 -0.14304E+07
 0.65749992E+02 -0.14477E+07
 0.65799995E+02 -0.14571E+07
 0.65849998E+02 -0.14722E+07
 0.65899994E+02 -0.14837E+07
 0.65949997E+02 -0.14892E+07
 0.65999992E+02 -0.14561E+07
 0.66049995E+02 -0.13872E+07
 0.66099998E+02 -0.13378E+07
 0.66149994E+02 -0.13391E+07
 0.66199997E+02 -0.14050E+07
 0.66249992E+02 -0.15217E+07
 0.66299995E+02 -0.16402E+07
 0.66349998E+02 -0.17364E+07
 0.66399994E+02 -0.18059E+07
 0.66449997E+02 -0.18524E+07
 0.66499992E+02 -0.18737E+07
 0.66549995E+02 -0.18680E+07
 0.66599998E+02 -0.18406E+07
 0.66649994E+02 -0.17848E+07
 0.66699997E+02 -0.17230E+07
 0.66749992E+02 -0.16868E+07
 0.66799995E+02 -0.16813E+07
 0.66849998E+02 -0.16913E+07
 0.66899994E+02 -0.16887E+07
 0.66949997E+02 -0.16494E+07
 0.66999992E+02 -0.15728E+07
 0.67049995E+02 -0.14782E+07
 0.67099998E+02 -0.13950E+07
 0.67149994E+02 -0.13295E+07
 0.67199997E+02 -0.12732E+07
 0.67249992E+02 -0.12203E+07
 0.67299995E+02 -0.11921E+07
 0.67349998E+02 -0.12137E+07
 0.67399994E+02 -0.12535E+07
 0.67449997E+02 -0.12643E+07
 0.67499992E+02 -0.12288E+07
 0.67549995E+02 -0.11676E+07
 0.67599998E+02 -0.10955E+07
 0.67649994E+02 -0.10251E+07
 0.67699997E+02 -0.96898E+06
 0.67749992E+02 -0.92555E+06
 0.67799995E+02 -0.89090E+06
 0.67849998E+02 -0.86712E+06
 0.67899994E+02 -0.86371E+06
 0.67949997E+02 -0.88032E+06
 0.67999992E+02 -0.91223E+06
 0.68049995E+02 -0.94764E+06
 0.68099998E+02 -0.98328E+06
 0.68149994E+02 -0.10160E+07
 0.68199997E+02 -0.10340E+07
 0.68249992E+02 -0.10436E+07
 0.68299995E+02 -0.10640E+07
 0.68349998E+02 -0.10975E+07
 0.68399994E+02 -0.11290E+07
 0.68449997E+02 -0.11554E+07
 0.68499992E+02 -0.11679E+07
 0.68549995E+02 -0.11622E+07
 0.68599998E+02 -0.11488E+07
 0.68649994E+02 -0.11458E+07
 0.68699997E+02 -0.11621E+07
 0.68749992E+02 -0.11889E+07
 0.68799995E+02 -0.12261E+07
 0.68849998E+02 -0.12551E+07
 0.68899994E+02 -0.12498E+07
 0.68949997E+02 -0.12178E+07
 0.68999992E+02 -0.11880E+07
 0.69049995E+02 -0.11880E+07
 0.69099998E+02 -0.12237E+07
 0.69149994E+02 -0.12815E+07
 0.69199997E+02 -0.13463E+07
 0.69249992E+02 -0.14048E+07
 0.69299995E+02 -0.14483E+07
 0.69349998E+02 -0.14539E+07
 0.69399994E+02 -0.14363E+07
 0.69449997E+02 -0.14116E+07
 0.69499992E+02 -0.13626E+07
 0.69549995E+02 -0.13055E+07
 0.69599998E+02 -0.12655E+07
 0.69649994E+02 -0.12493E+07
 0.69699997E+02 -0.12412E+07
 0.69749992E+02 -0.12265E+07
 0.69799995E+02 -0.11986E+07
 0.69849998E+02 -0.11535E+07
 0.69899994E+02 -0.10922E+07
 0.69949997E+02 -0.10184E+07
 0.69999992E+02 -0.93817E+06
 0.70049995E+02 -0.86489E+06
 0.70099998E+02 -0.81605E+06
 0.70149994E+02 -0.79157E+06
 0.70199997E+02 -0.78476E+06
 0.70249992E+02 -0.79041E+06
 0.70299995E+02 -0.80817E+06
 0.70349998E+02 -0.84436E+06
 0.70399994E+02 -0.88347E+06
 0.70449997E+02 -0.91206E+06
 0.70499992E+02 -0.93899E+06
 0.70549995E+02 -0.95855E+06
 0.70599998E+02 -0.96890E+06
 0.70649994E+02 -0.98228E+06
 0.70699997E+02 -0.10007E+07
 0.70749992E+02 -0.10098E+07
 0.70799995E+02 -0.10107E+07
 0.70849998E+02 -0.10237E+07
 0.70899994E+02 -0.10482E+07
 0.70949997E+02 -0.10767E+07
 0.70999992E+02 -0.11027E+07
 0.71049995E+02 -0.11159E+07
 0.71099998E+02 -0.11059E+07
 0.71149994E+02 -0.10716E+07
 0.71199997E+02 -0.10258E+07
 0.71249992E+02 -0.98161E+06
 0.71299995E+02 -0.94572E+06
 0.71349998E+02 -0.91499E+06
 0.71399994E+02 -0.88073E+06
 0.71449997E+02 -0.83424E+06
 0.71499992E+02 -0.78732E+06
 0.71549995E+02 -0.75910E+06
 0.71599998E+02 -0.75676E+06
 0.71649994E+02 -0.77173E+06
 0.71699997E+02 -0.78535E+06
 0.71749992E+02 -0.79261E+06
 0.71799995E+02 -0.79762E+06
 0.71849998E+02 -0.80146E+06
 0.71899994E+02 -0.82130E+06
 0.71949997E+02 -0.86968E+06
 0.71999992E+02 -0.93171E+06
 0.72049995E+02 -0.99201E+06
 0.72099998E+02 -0.10341E+07
 0.72149994E+02 -0.10555E+07
 0.72199997E+02 -0.10730E+07
 0.72249992E+02 -0.10798E+07
 0.72299995E+02 -0.10568E+07
 0.72349998E+02 -0.10247E+07
 0.72399994E+02 -0.10191E+07
 0.72449997E+02 -0.10392E+07
 0.72499992E+02 -0.10812E+07
 0.72549995E+02 -0.11453E+07
 0.72599998E+02 -0.12124E+07
 0.72649994E+02 -0.12720E+07
 0.72699997E+02 -0.13324E+07
 0.72749992E+02 -0.14101E+07
 0.72799995E+02 -0.14903E+07
 0.72849998E+02 -0.15586E+07
 0.72899994E+02 -0.16128E+07
 0.72949997E+02 -0.16432E+07
 0.72999992E+02 -0.16584E+07
 0.73049995E+02 -0.16654E+07
 0.73099998E+02 -0.16592E+07
 0.73149994E+02 -0.16399E+07
 0.73199997E+02 -0.16132E+07
 0.73249992E+02 -0.15838E+07
 0.73299995E+02 -0.15536E+07
 0.73349998E+02 -0.15263E+07
 0.73399994E+02 -0.15051E+07
 0.73449997E+02 -0.14879E+07
 0.73499992E+02 -0.14739E+07
 0.73549995E+02 -0.14498E+07
 0.73599998E+02 -0.14124E+07
 0.73649994E+02 -0.13779E+07
 0.73699997E+02 -0.13550E+07
 0.73749992E+02 -0.13361E+07
 0.73799995E+02 -0.13238E+07
 0.73849998E+02 -0.13256E+07
 0.73899994E+02 -0.13268E+07
 0.73949997E+02 -0.13095E+07
 0.73999992E+02 -0.12656E+07
 0.74049995E+02 -0.11896E+07
 0.74099998E+02 -0.10864E+07
 0.74149994E+02 -0.97593E+06
 0.74199997E+02 -0.86998E+06
 0.74249992E+02 -0.77763E+06
 0.74299995E+02 -0.70341E+06
 0.74349998E+02 -0.64664E+06
 0.74399994E+02 -0.61000E+06
 0.74449997E+02 -0.59958E+06
 0.74499992E+02 -0.60864E+06
 0.74549995E+02 -0.63572E+06
 0.74599998E+02 -0.67009E+06
 0.74649994E+02 -0.69246E+06
 0.74699997E+02 -0.69826E+06
 0.74749992E+02 -0.68607E+06
 0.74799995E+02 -0.66486E+06
 0.74849998E+02 -0.64337E+06
 0.74899994E+02 -0.63493E+06
 0.74949997E+02 -0.65357E+06
 0.74999992E+02 -0.70912E+06
 0.75049995E+02 -0.79170E+06
 0.75099998E+02 -0.87921E+06
 0.75149994E+02 -0.95807E+06
 0.75199997E+02 -0.10259E+07
 0.75249992E+02 -0.10833E+07
 0.75299995E+02 -0.11353E+07
 0.75349998E+02 -0.11778E+07
 0.75399994E+02 -0.12074E+07
 0.75449997E+02 -0.12233E+07
 0.75499992E+02 -0.12287E+07
 0.75549995E+02 -0.12298E+07
 0.75599998E+02 -0.12199E+07
 0.75649994E+02 -0.12018E+07
 0.75699997E+02 -0.11906E+07
 0.75749992E+02 -0.11925E+07
 0.75799995E+02 -0.11945E+07
 0.75849998E+02 -0.11879E+07
 0.75899994E+02 -0.11764E+07
 0.75949997E+02 -0.11656E+07
 0.75999992E+02 -0.11583E+07
 0.76049995E+02 -0.11601E+07
 0.76099998E+02 -0.11745E+07
 0.76149994E+02 -0.12003E+07
 0.76199997E+02 -0.12261E+07
 0.76249992E+02 -0.12456E+07
 0.76299995E+02 -0.12650E+07
 0.76349998E+02 -0.12849E+07
 0.76399994E+02 -0.12913E+07
 0.76449997E+02 -0.12742E+07
 0.76499992E+02 -0.12320E+07
 0.76549995E+02 -0.11813E+07
 0.76599998E+02 -0.11395E+07
 0.76649994E+02 -0.11090E+07
 0.76699997E+02 -0.10947E+07
 0.76749992E+02 -0.10923E+07
 0.76799995E+02 -0.10922E+07
 0.76849998E+02 -0.10865E+07
 0.76899994E+02 -0.10806E+07
 0.76949997E+02 -0.10850E+07
 0.76999992E+02 -0.11018E+07
 0.77049995E+02 -0.11304E+07
 0.77099998E+02 -0.11812E+07
 0.77149994E+02 -0.12501E+07
 0.77199997E+02 -0.13142E+07
 0.77249992E+02 -0.13573E+07
 0.77299995E+02 -0.13723E+07
 0.77349998E+02 -0.13630E+07
 0.77399994E+02 -0.13377E+07
 0.77449997E+02 -0.13028E+07
 0.77499992E+02 -0.12630E+07
 0.77549995E+02 -0.12331E+07
 0.77599998E+02 -0.12227E+07
 0.77649994E+02 -0.12303E+07
 0.77699997E+02 -0.12649E+07
 0.77749992E+02 -0.13131E+07
 0.77799995E+02 -0.13413E+07
 0.77849998E+02 -0.13425E+07
 0.77899994E+02 -0.13322E+07
 0.77949997E+02 -0.13260E+07
 0.77999992E+02 -0.13127E+07
 0.78049995E+02 -0.12854E+07
 0.78099998E+02 -0.12499E+07
 0.78149994E+02 -0.12102E+07
 0.78199997E+02 -0.11647E+07
 0.78249992E+02 -0.11114E+07
 0.78299995E+02 -0.10621E+07
 0.78349998E+02 -0.10311E+07
 0.78399994E+02 -0.10081E+07
 0.78449997E+02 -0.97780E+06
 0.78499992E+02 -0.94878E+06
 0.78549995E+02 -0.92038E+06
 0.78599998E+02 -0.89569E+06
 0.78649994E+02 -0.87968E+06
 0.78699997E+02 -0.87430E+06
 0.78749992E+02 -0.87050E+06
 0.78799995E+02 -0.86052E+06
 0.78849998E+02 -0.84617E+06
 0.78899994E+02 -0.82776E+06
 0.78949997E+02 -0.80860E+06
 0.78999992E+02 -0.79305E+06
 0.79049995E+02 -0.79633E+06
 0.79099998E+02 -0.83370E+06
 0.79149994E+02 -0.90247E+06
 0.79199997E+02 -0.98201E+06
 0.79249992E+02 -0.10583E+07
 0.79299995E+02 -0.11320E+07
 0.79349998E+02 -0.12115E+07
 0.79399994E+02 -0.12896E+07
 0.79449997E+02 -0.13505E+07
 0.79499992E+02 -0.13804E+07
 0.79549995E+02 -0.13726E+07
 0.79599998E+02 -0.13376E+07
 0.79649994E+02 -0.12873E+07
 0.79699997E+02 -0.12246E+07
 0.79749992E+02 -0.11509E+07
 0.79799995E+02 -0.10763E+07
 0.79849998E+02 -0.10075E+07
 0.79899994E+02 -0.94712E+06
 0.79949997E+02 -0.90819E+06
 0.79999992E+02 -0.88307E+06
 0.80049995E+02 -0.84355E+06
 0.80099998E+02 -0.78939E+06
 0.80149994E+02 -0.73108E+06
 0.80199997E+02 -0.67049E+06
 0.80249992E+02 -0.61713E+06
 0.80299995E+02 -0.58212E+06
 0.80349998E+02 -0.56196E+06
 0.80399994E+02 -0.55221E+06
 0.80449997E+02 -0.55402E+06
 0.80499992E+02 -0.57244E+06
 0.80549995E+02 -0.61405E+06
 0.80599998E+02 -0.66915E+06
 0.80649994E+02 -0.71415E+06
 0.80699997E+02 -0.73779E+06
 0.80749992E+02 -0.74522E+06
 0.80799995E+02 -0.73771E+06
 0.80849998E+02 -0.71722E+06
 0.80899994E+02 -0.68703E+06
 0.80949997E+02 -0.65225E+06
 0.80999992E+02 -0.62204E+06
 0.81049995E+02 -0.60796E+06
 0.81099998E+02 -0.60786E+06
 0.81149994E+02 -0.61724E+06
 0.81199997E+02 -0.64186E+06
 0.81249992E+02 -0.66861E+06
 0.81299995E+02 -0.68824E+06
 0.81349998E+02 -0.70840E+06
 0.81399994E+02 -0.73506E+06
 0.81449997E+02 -0.76320E+06
 0.81499992E+02 -0.78417E+06
 0.81549995E+02 -0.79238E+06
 0.81599998E+02 -0.79132E+06
 0.81649994E+02 -0.79367E+06
 0.81699997E+02 -0.80758E+06
 0.81749992E+02 -0.82474E+06
 0.81799995E+02 -0.82945E+06
 0.81849998E+02 -0.81611E+06
 0.81899994E+02 -0.77950E+06
 0.81949997E+02 -0.72498E+06
 0.81999992E+02 -0.67512E+06
 0.82049995E+02 -0.65882E+06
 0.82099998E+02 -0.68343E+06
 0.82149994E+02 -0.73115E+06
 0.82199997E+02 -0.78249E+06
 0.82249992E+02 -0.83732E+06
 0.82299995E+02 -0.89171E+06
 0.82349998E+02 -0.93826E+06
 0.82399994E+02 -0.97676E+06
 0.82449997E+02 -0.99673E+06
 0.82499992E+02 -0.99294E+06
 0.82549995E+02 -0.97202E+06
 0.82599998E+02 -0.94892E+06
 0.82649994E+02 -0.93517E+06
 0.82699997E+02 -0.93935E+06
 0.82749992E+02 -0.95486E+06
 0.82799995E+02 -0.96786E+06
 0.82849998E+02 -0.97333E+06
 0.82899994E+02 -0.96663E+06
 0.82949997E+02 -0.95055E+06
 0.82999992E+02 -0.92395E+06
 0.83049995E+02 -0.88815E+06
 0.83099998E+02 -0.86343E+06
 0.83149994E+02 -0.85613E+06
 0.83199997E+02 -0.86094E+06
 0.83249992E+02 -0.88125E+06
 0.83299995E+02 -0.92099E+06
 0.83349998E+02 -0.97084E+06
 0.83399994E+02 -0.10123E+07
 0.83449997E+02 -0.10445E+07
 0.83499992E+02 -0.10807E+07
 0.83549995E+02 -0.11240E+07
 0.83599998E+02 -0.11686E+07
 0.83649994E+02 -0.12082E+07
 0.83699997E+02 -0.12436E+07
 0.83749992E+02 -0.12769E+07
 0.83799995E+02 -0.13091E+07
 0.83849998E+02 -0.13425E+07
 0.83899994E+02 -0.13783E+07
 0.83949997E+02 -0.14132E+07
 0.83999992E+02 -0.14304E+07
 0.84049995E+02 -0.14256E+07
 0.84099998E+02 -0.14093E+07
 0.84149994E+02 -0.13910E+07
 0.84199997E+02 -0.13727E+07
 0.84249992E+02 -0.13496E+07
 0.84299995E+02 -0.13244E+07
 0.84349998E+02 -0.13012E+07
 0.84399994E+02 -0.12852E+07
 0.84449997E+02 -0.12672E+07
 0.84499992E+02 -0.12337E+07
 0.84549995E+02 -0.11852E+07
 0.84599998E+02 -0.11256E+07
 0.84649994E+02 -0.10572E+07
 0.84699997E+02 -0.97921E+06
 0.84749992E+02 -0.89461E+06
 0.84799995E+02 -0.81153E+06
 0.84849998E+02 -0.74074E+06
 0.84899994E+02 -0.69124E+06
 0.84949997E+02 -0.66360E+06
 0.84999992E+02 -0.64917E+06
 0.85049995E+02 -0.64707E+06
 0.85099998E+02 -0.65803E+06
 0.85149994E+02 -0.66949E+06
 0.85199997E+02 -0.67703E+06
 0.85249992E+02 -0.68053E+06
 0.85299995E+02 -0.68285E+06
 0.85349998E+02 -0.69337E+06
 0.85399994E+02 -0.70502E+06
 0.85449997E+02 -0.71036E+06
 0.85499992E+02 -0.71078E+06
 0.85549995E+02 -0.70907E+06
 0.85599998E+02 -0.71036E+06
 0.85649994E+02 -0.71479E+06
 0.85699997E+02 -0.72048E+06
 0.85749992E+02 -0.72891E+06
 0.85799995E+02 -0.74345E+06
 0.85849998E+02 -0.75792E+06
 0.85899994E+02 -0.76050E+06
 0.85949997E+02 -0.74990E+06
 0.85999992E+02 -0.73065E+06
 0.86049995E+02 -0.71141E+06
 0.86099998E+02 -0.69934E+06
 0.86149994E+02 -0.69602E+06
 0.86199997E+02 -0.70148E+06
 0.86249992E+02 -0.71357E+06
 0.86299995E+02 -0.72626E+06
 0.86349998E+02 -0.73056E+06
 0.86399994E+02 -0.72439E+06
 0.86449997E+02 -0.70588E+06
 0.86499992E+02 -0.67329E+06
 0.86549995E+02 -0.63180E+06
 0.86599998E+02 -0.59185E+06
 0.86649994E+02 -0.56492E+06
 0.86699997E+02 -0.55201E+06
 0.86749992E+02 -0.54961E+06
 0.86799995E+02 -0.55656E+06
 0.86849998E+02 -0.57009E+06
 0.86899994E+02 -0.58651E+06
 0.86949997E+02 -0.60007E+06
 0.86999992E+02 -0.60363E+06
 0.87049995E+02 -0.59484E+06
 0.87099998E+02 -0.57541E+06
 0.87149994E+02 -0.55597E+06
 0.87199997E+02 -0.55247E+06
 0.87249992E+02 -0.56917E+06
 0.87299995E+02 -0.60089E+06
 0.87349998E+02 -0.64571E+06
 0.87399994E+02 -0.70198E+06
 0.87449997E+02 -0.76043E+06
 0.87499992E+02 -0.81196E+06
 0.87549995E+02 -0.84605E+06
 0.87599991E+02 -0.85805E+06
 0.87649994E+02 -0.85194E+06
 0.87699997E+02 -0.83587E+06
 0.87749992E+02 -0.82699E+06
 0.87799995E+02 -0.83246E+06
 0.87849991E+02 -0.84202E+06
 0.87899994E+02 -0.84972E+06
 0.87949997E+02 -0.85208E+06
 0.87999992E+02 -0.84257E+06
 0.88049995E+02 -0.82056E+06
 0.88099991E+02 -0.78329E+06
 0.88149994E+02 -0.72971E+06
 0.88199997E+02 -0.66791E+06
 0.88249992E+02 -0.60702E+06
 0.88299995E+02 -0.55333E+06
 0.88349991E+02 -0.51419E+06
 0.88399994E+02 -0.49237E+06
 0.88449997E+02 -0.48635E+06
 0.88499992E+02 -0.48955E+06
 0.88549995E+02 -0.49378E+06
 0.88599991E+02 -0.49517E+06
 0.88649994E+02 -0.49199E+06
 0.88699997E+02 -0.48777E+06
 0.88749992E+02 -0.48689E+06
 0.88799995E+02 -0.49108E+06
 0.88849991E+02 -0.50296E+06
 0.88899994E+02 -0.52829E+06
 0.88949997E+02 -0.56668E+06
 0.88999992E+02 -0.60925E+06
 0.89049995E+02 -0.64394E+06
 0.89099991E+02 -0.67032E+06
 0.89149994E+02 -0.69805E+06
 0.89199997E+02 -0.72876E+06
 0.89249992E+02 -0.75528E+06
 0.89299995E+02 -0.77332E+06
 0.89349991E+02 -0.79237E+06
 0.89399994E+02 -0.82448E+06
 0.89449997E+02 -0.87785E+06
 0.89499992E+02 -0.94452E+06
 0.89549995E+02 -0.10021E+07
 0.89599991E+02 -0.10410E+07
 0.89649994E+02 -0.10642E+07
 0.89699997E+02 -0.10785E+07
 0.89749992E+02 -0.10917E+07
 0.89799995E+02 -0.11031E+07
 0.89849991E+02 -0.11034E+07
 0.89899994E+02 -0.10973E+07
 0.89949997E+02 -0.10944E+07
 0.89999992E+02 -0.10942E+07
 0.90049995E+02 -0.10950E+07
 0.90099991E+02 -0.10913E+07
 0.90149994E+02 -0.10774E+07
 0.90199997E+02 -0.10516E+07
 0.90249992E+02 -0.10179E+07
 0.90299995E+02 -0.98093E+06
 0.90349991E+02 -0.93861E+06
 0.90399994E+02 -0.88509E+06
 0.90449997E+02 -0.81342E+06
 0.90499992E+02 -0.72403E+06
 0.90549995E+02 -0.63069E+06
 0.90599991E+02 -0.54138E+06
 0.90649994E+02 -0.45776E+06
 0.90699997E+02 -0.38342E+06
 0.90749992E+02 -0.32537E+06
 0.90799995E+02 -0.29318E+06
 0.90849991E+02 -0.28714E+06
 0.90899994E+02 -0.30553E+06
 0.90949997E+02 -0.33966E+06
 0.90999992E+02 -0.38071E+06
 0.91049995E+02 -0.42887E+06
 0.91099991E+02 -0.48424E+06
 0.91149994E+02 -0.54487E+06
 0.91199997E+02 -0.60729E+06
 0.91249992E+02 -0.66717E+06
 0.91299995E+02 -0.72127E+06
 0.91349991E+02 -0.76988E+06
 0.91399994E+02 -0.81106E+06
 0.91449997E+02 -0.84696E+06
 0.91499992E+02 -0.87818E+06
 0.91549995E+02 -0.89660E+06
 0.91599991E+02 -0.89922E+06
 0.91649994E+02 -0.90022E+06
 0.91699997E+02 -0.91203E+06
 0.91749992E+02 -0.92873E+06
 0.91799995E+02 -0.94229E+06
 0.91849991E+02 -0.95294E+06
 0.91899994E+02 -0.95814E+06
 0.91949997E+02 -0.95012E+06
 0.91999992E+02 -0.92555E+06
 0.92049995E+02 -0.88938E+06
 0.92099991E+02 -0.84898E+06
 0.92149994E+02 -0.80399E+06
 0.92199997E+02 -0.75573E+06
 0.92249992E+02 -0.70527E+06
 0.92299995E+02 -0.64568E+06
 0.92349991E+02 -0.57618E+06
 0.92399994E+02 -0.50499E+06
 0.92449997E+02 -0.44419E+06
 0.92499992E+02 -0.40368E+06
 0.92549995E+02 -0.38613E+06
 0.92599991E+02 -0.39011E+06
 0.92649994E+02 -0.41438E+06
 0.92699997E+02 -0.45189E+06
 0.92749992E+02 -0.49622E+06
 0.92799995E+02 -0.54122E+06
 0.92849991E+02 -0.58170E+06
 0.92899994E+02 -0.61333E+06
 0.92949997E+02 -0.63057E+06
 0.92999992E+02 -0.63918E+06
 0.93049995E+02 -0.64901E+06
 0.93099991E+02 -0.66625E+06
 0.93149994E+02 -0.68257E+06
 0.93199997E+02 -0.68900E+06
 0.93249992E+02 -0.68190E+06
 0.93299995E+02 -0.65953E+06
 0.93349991E+02 -0.62670E+06
 0.93399994E+02 -0.58815E+06
 0.93449997E+02 -0.55214E+06
 0.93499992E+02 -0.52498E+06
 0.93549995E+02 -0.51174E+06
 0.93599991E+02 -0.51446E+06
 0.93649994E+02 -0.52563E+06
 0.93699997E+02 -0.53721E+06
 0.93749992E+02 -0.54440E+06
 0.93799995E+02 -0.54793E+06
 0.93849991E+02 -0.55316E+06
 0.93899994E+02 -0.55993E+06
 0.93949997E+02 -0.56751E+06
 0.93999992E+02 -0.57680E+06
 0.94049995E+02 -0.58392E+06
 0.94099991E+02 -0.58311E+06
 0.94149994E+02 -0.56958E+06
 0.94199997E+02 -0.54816E+06
 0.94249992E+02 -0.52503E+06
 0.94299995E+02 -0.50083E+06
 0.94349991E+02 -0.47580E+06
 0.94399994E+02 -0.45236E+06
 0.94449997E+02 -0.43656E+06
 0.94499992E+02 -0.43031E+06
 0.94549995E+02 -0.43152E+06
 0.94599991E+02 -0.43893E+06
 0.94649994E+02 -0.45404E+06
 0.94699997E+02 -0.47606E+06
 0.94749992E+02 -0.49810E+06
 0.94799995E+02 -0.51355E+06
 0.94849991E+02 -0.51965E+06
 0.94899994E+02 -0.51484E+06
 0.94949997E+02 -0.50200E+06
 0.94999992E+02 -0.48232E+06
 0.95049995E+02 -0.45654E+06
 0.95099991E+02 -0.42303E+06
 0.95149994E+02 -0.38332E+06
 0.95199997E+02 -0.35007E+06
 0.95249992E+02 -0.33162E+06
 0.95299995E+02 -0.32770E+06
 0.95349991E+02 -0.33310E+06
 0.95399994E+02 -0.35096E+06
 0.95449997E+02 -0.38248E+06
 0.95499992E+02 -0.41831E+06
 0.95549995E+02 -0.45398E+06
 0.95599991E+02 -0.48813E+06
 0.95649994E+02 -0.52101E+06
 0.95699997E+02 -0.55632E+06
 0.95749992E+02 -0.59087E+06
 0.95799995E+02 -0.61713E+06
 0.95849991E+02 -0.63333E+06
 0.95899994E+02 -0.64376E+06
 0.95949997E+02 -0.65400E+06
 0.95999992E+02 -0.66574E+06
 0.96049995E+02 -0.67375E+06
 0.96099991E+02 -0.66843E+06
 0.96149994E+02 -0.64212E+06
 0.96199997E+02 -0.59226E+06
 0.96249992E+02 -0.52385E+06
 0.96299995E+02 -0.44886E+06
 0.96349991E+02 -0.37997E+06
 0.96399994E+02 -0.32296E+06
 0.96449997E+02 -0.27923E+06
 0.96499992E+02 -0.24770E+06
 0.96549995E+02 -0.23068E+06
 0.96599991E+02 -0.23087E+06
 0.96649994E+02 -0.24178E+06
 0.96699997E+02 -0.25323E+06
 0.96749992E+02 -0.26026E+06
 0.96799995E+02 -0.26379E+06
 0.96849991E+02 -0.26685E+06
 0.96899994E+02 -0.27251E+06
 0.96949997E+02 -0.28432E+06
 0.96999992E+02 -0.30121E+06
 0.97049995E+02 -0.31555E+06
 0.97099991E+02 -0.32435E+06
 0.97149994E+02 -0.33172E+06
 0.97199997E+02 -0.34460E+06
 0.97249992E+02 -0.36456E+06
 0.97299995E+02 -0.39034E+06
 0.97349991E+02 -0.42211E+06
 0.97399994E+02 -0.46097E+06
 0.97449997E+02 -0.50771E+06
 0.97499992E+02 -0.56178E+06
 0.97549995E+02 -0.61851E+06
 0.97599991E+02 -0.66807E+06
 0.97649994E+02 -0.70682E+06
 0.97699997E+02 -0.73329E+06
 0.97749992E+02 -0.75003E+06
 0.97799995E+02 -0.76384E+06
 0.97849991E+02 -0.77530E+06
 0.97899994E+02 -0.78314E+06
 0.97949997E+02 -0.78614E+06
 0.97999992E+02 -0.78335E+06
