-0.20000000E+01  0.14808E+04
-0.19500000E+01  0.13893E+04
-0.19000000E+01  0.13888E+04
-0.18500000E+01  0.14111E+04
-0.18000000E+01  0.13817E+04
-0.17500000E+01  0.14274E+04
-0.17000000E+01  0.13981E+04
-0.16500001E+01  0.13326E+04
-0.16000000E+01  0.14014E+04
-0.15500000E+01  0.13549E+04
-0.15000000E+01  0.12862E+04
-0.14500000E+01  0.14335E+04
-0.14000001E+01  0.13034E+04
-0.13500000E+01  0.13692E+04
-0.13000001E+01  0.14116E+04
-0.12500000E+01  0.13394E+04
-0.12000000E+01  0.14844E+04
-0.11500001E+01  0.14420E+04
-0.11000000E+01  0.14404E+04
-0.10500001E+01  0.15161E+04
-0.10000000E+01  0.14141E+04
-0.95000005E+00  0.14984E+04
-0.90000010E+00  0.15990E+04
-0.85000002E+00  0.14916E+04
-0.80000007E+00  0.15227E+04
-0.75000012E+00  0.14173E+04
-0.70000005E+00  0.14441E+04
-0.65000010E+00  0.14915E+04
-0.60000014E+00  0.14128E+04
-0.55000007E+00  0.14676E+04
-0.50000012E+00  0.13904E+04
-0.45000005E+00  0.13319E+04
-0.40000010E+00  0.13396E+04
-0.35000014E+00  0.13231E+04
-0.30000007E+00  0.13556E+04
-0.25000012E+00  0.13137E+04
-0.20000005E+00  0.12910E+04
-0.15000010E+00  0.13139E+04
-0.10000014E+00  0.12916E+04
-0.50000072E-01  0.13224E+04
-0.11920929E-06  0.13366E+04
 0.49999952E-01  0.13731E+04
 0.99999905E-01  0.13893E+04
 0.14999986E+00  0.13619E+04
 0.19999981E+00  0.13677E+04
 0.24999976E+00  0.14039E+04
 0.29999995E+00  0.14796E+04
 0.34999990E+00  0.14269E+04
 0.39999986E+00  0.13573E+04
 0.44999981E+00  0.14236E+04
 0.49999976E+00  0.14648E+04
 0.54999995E+00  0.14843E+04
 0.59999990E+00  0.14595E+04
 0.64999986E+00  0.14411E+04
 0.69999981E+00  0.14549E+04
 0.74999976E+00  0.14353E+04
 0.79999971E+00  0.14276E+04
 0.84999990E+00  0.14346E+04
 0.89999986E+00  0.14538E+04
 0.94999981E+00  0.14286E+04
 0.99999976E+00  0.14851E+04
 0.10499997E+01  0.14966E+04
 0.10999999E+01  0.13954E+04
 0.11499999E+01  0.14600E+04
 0.11999998E+01  0.14565E+04
 0.12499998E+01  0.13658E+04
 0.12999997E+01  0.14487E+04
 0.13499999E+01  0.14305E+04
 0.13999999E+01  0.13327E+04
 0.14499998E+01  0.14078E+04
 0.14999998E+01  0.14267E+04
 0.15499997E+01  0.13672E+04
 0.15999999E+01  0.13578E+04
 0.16499999E+01  0.13503E+04
 0.16999998E+01  0.14202E+04
 0.17499998E+01  0.14284E+04
 0.17999997E+01  0.12933E+04
 0.18499997E+01  0.13197E+04
 0.18999999E+01  0.13847E+04
 0.19499998E+01  0.13273E+04
 0.19999998E+01  0.14290E+04
 0.20499997E+01  0.14412E+04
 0.20999999E+01  0.13741E+04
 0.21499996E+01  0.13941E+04
 0.21999998E+01  0.14334E+04
 0.22499995E+01  0.14520E+04
 0.22999997E+01  0.14605E+04
 0.23499999E+01  0.14669E+04
 0.23999996E+01  0.14241E+04
 0.24499998E+01  0.14291E+04
 0.24999995E+01  0.14320E+04
 0.25499997E+01  0.14463E+04
 0.25999999E+01  0.13823E+04
 0.26499996E+01  0.15021E+04
 0.26999998E+01  0.14396E+04
 0.27499995E+01  0.14386E+04
 0.27999997E+01  0.14682E+04
 0.28499999E+01  0.13359E+04
 0.28999996E+01  0.14159E+04
 0.29499998E+01  0.14710E+04
 0.29999995E+01  0.14171E+04
 0.30499997E+01  0.13426E+04
 0.30999999E+01  0.14170E+04
 0.31499996E+01  0.13469E+04
 0.31999998E+01  0.14135E+04
 0.32499995E+01  0.13638E+04
 0.32999997E+01  0.13733E+04
 0.33499999E+01  0.14046E+04
 0.33999996E+01  0.12991E+04
 0.34499998E+01  0.14348E+04
 0.34999995E+01  0.14024E+04
 0.35499997E+01  0.13195E+04
 0.35999994E+01  0.14394E+04
 0.36499996E+01  0.13687E+04
 0.36999998E+01  0.13383E+04
 0.37499995E+01  0.14182E+04
 0.37999997E+01  0.14339E+04
 0.38499994E+01  0.13833E+04
 0.38999996E+01  0.14402E+04
 0.39499998E+01  0.14237E+04
 0.39999995E+01  0.14168E+04
 0.40499997E+01  0.14697E+04
 0.40999994E+01  0.13536E+04
 0.41499996E+01  0.14357E+04
 0.41999998E+01  0.13968E+04
 0.42499995E+01  0.14520E+04
 0.42999997E+01  0.14120E+04
 0.43499994E+01  0.13534E+04
 0.43999996E+01  0.14093E+04
 0.44499998E+01  0.14203E+04
 0.44999995E+01  0.13760E+04
 0.45499997E+01  0.13663E+04
 0.45999994E+01  0.14172E+04
 0.46499996E+01  0.12924E+04
 0.46999998E+01  0.13774E+04
 0.47499995E+01  0.14204E+04
 0.47999997E+01  0.13623E+04
 0.48499994E+01  0.14479E+04
 0.48999996E+01  0.13736E+04
 0.49499998E+01  0.13609E+04
 0.49999995E+01  0.14772E+04
 0.50499997E+01  0.14440E+04
 0.50999994E+01  0.14122E+04
 0.51499996E+01  0.14424E+04
 0.51999998E+01  0.14933E+04
 0.52499995E+01  0.14669E+04
 0.52999997E+01  0.13984E+04
 0.53499994E+01  0.14268E+04
 0.53999996E+01  0.14819E+04
 0.54499993E+01  0.14981E+04
 0.54999995E+01  0.14524E+04
 0.55499997E+01  0.13851E+04
 0.55999994E+01  0.14565E+04
 0.56499996E+01  0.14598E+04
 0.56999993E+01  0.13654E+04
 0.57499995E+01  0.14196E+04
 0.57999997E+01  0.13912E+04
 0.58499994E+01  0.13514E+04
 0.58999996E+01  0.13602E+04
 0.59499993E+01  0.13431E+04
 0.59999995E+01  0.13400E+04
 0.60499992E+01  0.13497E+04
 0.60999994E+01  0.13240E+04
 0.61499996E+01  0.12794E+04
 0.61999998E+01  0.13603E+04
 0.62499990E+01  0.13496E+04
 0.62999992E+01  0.13422E+04
 0.63499994E+01  0.13679E+04
 0.63999996E+01  0.13582E+04
 0.64499998E+01  0.14145E+04
 0.64999990E+01  0.14484E+04
 0.65499992E+01  0.14481E+04
 0.65999994E+01  0.14689E+04
 0.66499996E+01  0.14882E+04
 0.66999998E+01  0.15228E+04
 0.67499990E+01  0.15059E+04
 0.67999992E+01  0.14960E+04
 0.68499994E+01  0.14984E+04
 0.68999996E+01  0.14643E+04
 0.69499998E+01  0.14934E+04
 0.69999990E+01  0.14883E+04
 0.70499992E+01  0.14871E+04
 0.70999994E+01  0.14516E+04
 0.71499996E+01  0.14466E+04
 0.71999998E+01  0.14189E+04
 0.72499990E+01  0.13963E+04
 0.72999992E+01  0.13706E+04
 0.73499994E+01  0.13575E+04
 0.73999996E+01  0.13868E+04
 0.74499998E+01  0.13505E+04
 0.74999990E+01  0.13346E+04
 0.75499992E+01  0.13116E+04
 0.75999994E+01  0.13009E+04
 0.76499996E+01  0.13283E+04
 0.76999998E+01  0.13596E+04
 0.77499990E+01  0.13762E+04
 0.77999992E+01  0.13920E+04
 0.78499994E+01  0.14224E+04
 0.78999996E+01  0.14081E+04
 0.79499998E+01  0.14374E+04
 0.79999990E+01  0.14954E+04
 0.80499992E+01  0.14856E+04
 0.80999994E+01  0.14270E+04
 0.81499996E+01  0.13726E+04
 0.81999998E+01  0.14329E+04
 0.82499990E+01  0.15060E+04
 0.82999992E+01  0.14389E+04
 0.83499994E+01  0.13410E+04
 0.83999996E+01  0.14308E+04
 0.84499998E+01  0.14498E+04
 0.84999990E+01  0.13326E+04
 0.85499992E+01  0.13495E+04
 0.85999994E+01  0.14135E+04
 0.86499996E+01  0.14090E+04
 0.86999998E+01  0.13416E+04
 0.87499990E+01  0.13111E+04
 0.87999992E+01  0.13908E+04
 0.88499994E+01  0.13660E+04
 0.88999996E+01  0.13921E+04
 0.89499998E+01  0.14268E+04
 0.89999990E+01  0.14072E+04
 0.90499992E+01  0.14218E+04
 0.90999994E+01  0.14168E+04
 0.91499996E+01  0.14531E+04
 0.91999989E+01  0.14424E+04
 0.92499990E+01  0.14726E+04
 0.92999992E+01  0.14062E+04
 0.93499994E+01  0.13492E+04
 0.93999996E+01  0.13731E+04
 0.94499989E+01  0.14683E+04
 0.94999990E+01  0.14524E+04
 0.95499992E+01  0.14167E+04
 0.95999994E+01  0.14000E+04
 0.96499996E+01  0.13334E+04
 0.96999989E+01  0.13404E+04
 0.97499990E+01  0.13655E+04
 0.97999992E+01  0.13448E+04
 0.98499994E+01  0.13833E+04
 0.98999996E+01  0.14695E+04
 0.99499989E+01  0.13165E+04
 0.99999990E+01  0.12918E+04
 0.10049999E+02  0.14044E+04
 0.10099999E+02  0.15392E+04
 0.10150000E+02  0.12828E+04
 0.10199999E+02  0.13065E+04
 0.10249999E+02  0.15878E+04
 0.10299999E+02  0.14497E+04
 0.10349999E+02  0.14122E+04
 0.10400000E+02  0.14624E+04
 0.10449999E+02  0.15216E+04
 0.10499999E+02  0.14381E+04
 0.10549999E+02  0.14071E+04
 0.10599999E+02  0.14502E+04
 0.10650000E+02  0.14901E+04
 0.10699999E+02  0.13943E+04
 0.10749999E+02  0.14437E+04
 0.10799999E+02  0.14907E+04
 0.10849999E+02  0.14308E+04
 0.10900000E+02  0.14730E+04
 0.10949999E+02  0.13455E+04
 0.10999999E+02  0.13828E+04
 0.11049999E+02  0.14894E+04
 0.11099999E+02  0.14597E+04
 0.11150000E+02  0.13936E+04
 0.11199999E+02  0.13484E+04
 0.11249999E+02  0.14001E+04
 0.11299999E+02  0.13988E+04
 0.11349999E+02  0.13209E+04
 0.11400000E+02  0.13771E+04
 0.11449999E+02  0.13728E+04
 0.11499999E+02  0.14020E+04
 0.11549999E+02  0.14110E+04
 0.11599999E+02  0.13152E+04
 0.11650000E+02  0.13445E+04
 0.11699999E+02  0.13531E+04
 0.11749999E+02  0.14151E+04
 0.11799999E+02  0.13279E+04
 0.11849999E+02  0.13510E+04
 0.11900000E+02  0.13304E+04
 0.11949999E+02  0.13405E+04
 0.11999999E+02  0.14418E+04
 0.12049999E+02  0.13321E+04
 0.12099999E+02  0.13758E+04
 0.12150000E+02  0.14189E+04
 0.12199999E+02  0.13521E+04
 0.12249999E+02  0.13509E+04
 0.12299999E+02  0.14551E+04
 0.12349999E+02  0.14619E+04
 0.12400000E+02  0.14634E+04
 0.12449999E+02  0.13931E+04
 0.12499999E+02  0.14497E+04
 0.12549999E+02  0.15375E+04
 0.12599999E+02  0.14175E+04
 0.12649999E+02  0.14837E+04
 0.12699999E+02  0.15307E+04
 0.12749999E+02  0.14655E+04
 0.12799999E+02  0.14648E+04
 0.12849999E+02  0.14769E+04
 0.12899999E+02  0.15103E+04
 0.12949999E+02  0.14665E+04
 0.12999999E+02  0.14063E+04
 0.13049999E+02  0.14225E+04
 0.13099999E+02  0.14290E+04
 0.13149999E+02  0.14265E+04
 0.13199999E+02  0.14107E+04
 0.13249999E+02  0.14121E+04
 0.13299999E+02  0.13326E+04
 0.13349999E+02  0.13423E+04
 0.13399999E+02  0.14411E+04
 0.13449999E+02  0.13871E+04
 0.13499999E+02  0.13616E+04
 0.13549999E+02  0.13477E+04
 0.13599999E+02  0.14170E+04
 0.13649999E+02  0.14040E+04
 0.13699999E+02  0.13126E+04
 0.13749999E+02  0.14225E+04
 0.13799999E+02  0.14354E+04
 0.13849999E+02  0.13431E+04
 0.13899999E+02  0.14081E+04
 0.13949999E+02  0.14268E+04
 0.13999999E+02  0.13562E+04
 0.14049999E+02  0.14073E+04
 0.14099998E+02  0.13842E+04
 0.14150000E+02  0.13913E+04
 0.14199999E+02  0.13902E+04
 0.14249998E+02  0.13974E+04
 0.14299999E+02  0.13964E+04
 0.14349998E+02  0.14213E+04
 0.14400000E+02  0.14044E+04
 0.14449999E+02  0.14384E+04
 0.14499998E+02  0.14863E+04
 0.14549999E+02  0.13573E+04
 0.14599998E+02  0.14366E+04
 0.14650000E+02  0.14418E+04
 0.14699999E+02  0.14575E+04
 0.14749998E+02  0.14487E+04
 0.14799999E+02  0.14049E+04
 0.14849998E+02  0.13979E+04
 0.14900000E+02  0.14186E+04
 0.14949999E+02  0.14468E+04
 0.14999998E+02  0.13743E+04
 0.15049999E+02  0.14171E+04
 0.15099998E+02  0.13608E+04
 0.15150000E+02  0.13757E+04
 0.15199999E+02  0.13764E+04
 0.15249998E+02  0.13375E+04
 0.15299999E+02  0.14125E+04
 0.15349998E+02  0.13897E+04
 0.15400000E+02  0.13663E+04
 0.15449999E+02  0.13858E+04
 0.15499998E+02  0.13706E+04
 0.15549999E+02  0.13606E+04
 0.15599998E+02  0.14339E+04
 0.15650000E+02  0.13940E+04
 0.15699999E+02  0.13690E+04
 0.15749998E+02  0.13989E+04
 0.15799999E+02  0.14249E+04
 0.15849998E+02  0.14311E+04
 0.15900000E+02  0.14316E+04
 0.15949999E+02  0.14699E+04
 0.15999998E+02  0.14359E+04
 0.16049999E+02  0.14063E+04
 0.16099998E+02  0.14308E+04
 0.16150000E+02  0.14237E+04
 0.16199999E+02  0.14153E+04
 0.16249998E+02  0.14301E+04
 0.16299999E+02  0.13967E+04
 0.16349998E+02  0.13979E+04
 0.16400000E+02  0.14023E+04
 0.16449999E+02  0.13922E+04
 0.16499998E+02  0.14269E+04
 0.16549999E+02  0.13947E+04
 0.16599998E+02  0.13985E+04
 0.16650000E+02  0.14176E+04
 0.16699999E+02  0.13893E+04
 0.16749998E+02  0.14290E+04
 0.16799999E+02  0.14226E+04
 0.16849998E+02  0.14123E+04
 0.16900000E+02  0.13934E+04
 0.16949999E+02  0.14212E+04
 0.16999998E+02  0.14505E+04
 0.17049999E+02  0.14345E+04
 0.17099998E+02  0.14390E+04
 0.17150000E+02  0.14251E+04
 0.17199999E+02  0.14099E+04
 0.17249998E+02  0.13829E+04
 0.17299999E+02  0.14173E+04
 0.17349998E+02  0.14499E+04
 0.17400000E+02  0.13990E+04
 0.17449999E+02  0.13629E+04
 0.17499998E+02  0.13445E+04
 0.17549999E+02  0.13458E+04
 0.17599998E+02  0.13709E+04
 0.17650000E+02  0.13312E+04
 0.17699999E+02  0.13315E+04
 0.17749998E+02  0.13935E+04
 0.17799999E+02  0.13483E+04
 0.17849998E+02  0.12953E+04
 0.17900000E+02  0.13679E+04
 0.17949999E+02  0.13757E+04
 0.17999998E+02  0.14327E+04
 0.18049999E+02  0.14079E+04
 0.18099998E+02  0.14149E+04
 0.18150000E+02  0.14646E+04
 0.18199999E+02  0.13968E+04
 0.18249998E+02  0.14672E+04
 0.18299999E+02  0.14578E+04
 0.18349998E+02  0.15198E+04
 0.18400000E+02  0.14910E+04
 0.18449999E+02  0.14373E+04
 0.18499998E+02  0.14537E+04
 0.18549999E+02  0.14330E+04
 0.18599998E+02  0.14769E+04
 0.18650000E+02  0.14488E+04
 0.18699999E+02  0.14371E+04
 0.18749998E+02  0.14543E+04
 0.18799999E+02  0.14219E+04
 0.18849998E+02  0.13916E+04
 0.18900000E+02  0.14397E+04
 0.18949999E+02  0.14312E+04
 0.18999998E+02  0.14257E+04
 0.19049999E+02  0.14288E+04
 0.19099998E+02  0.13667E+04
 0.19150000E+02  0.13839E+04
 0.19199999E+02  0.13690E+04
 0.19249998E+02  0.13796E+04
 0.19299999E+02  0.14030E+04
 0.19349998E+02  0.13682E+04
 0.19400000E+02  0.13634E+04
 0.19449999E+02  0.13301E+04
 0.19499998E+02  0.14185E+04
 0.19549999E+02  0.13872E+04
 0.19599998E+02  0.14228E+04
 0.19650000E+02  0.14033E+04
 0.19699999E+02  0.13475E+04
 0.19749998E+02  0.14665E+04
 0.19799999E+02  0.14344E+04
 0.19849998E+02  0.14327E+04
 0.19900000E+02  0.14239E+04
 0.19949999E+02  0.14023E+04
 0.19999998E+02  0.13936E+04
 0.20049999E+02  0.13518E+04
 0.20099998E+02  0.14397E+04
 0.20150000E+02  0.14291E+04
 0.20199999E+02  0.14082E+04
 0.20249998E+02  0.14103E+04
 0.20299999E+02  0.13301E+04
 0.20349998E+02  0.13745E+04
 0.20399998E+02  0.13388E+04
 0.20449999E+02  0.14947E+04
 0.20499998E+02  0.15145E+04
 0.20549999E+02  0.13503E+04
 0.20599998E+02  0.12568E+04
 0.20649998E+02  0.13864E+04
 0.20699999E+02  0.14799E+04
 0.20749998E+02  0.15143E+04
 0.20799999E+02  0.15709E+04
 0.20849998E+02  0.14017E+04
 0.20899998E+02  0.14169E+04
 0.20949999E+02  0.14159E+04
 0.20999998E+02  0.15211E+04
 0.21049999E+02  0.15040E+04
 0.21099998E+02  0.13779E+04
 0.21149998E+02  0.13381E+04
 0.21199999E+02  0.14295E+04
 0.21249998E+02  0.14396E+04
 0.21299999E+02  0.13858E+04
 0.21349998E+02  0.15273E+04
 0.21399998E+02  0.14041E+04
 0.21449999E+02  0.13424E+04
 0.21499998E+02  0.14925E+04
 0.21549999E+02  0.15531E+04
 0.21599998E+02  0.13467E+04
 0.21649998E+02  0.13143E+04
 0.21699999E+02  0.13932E+04
 0.21749998E+02  0.12542E+04
 0.21799999E+02  0.12326E+04
 0.21849998E+02  0.14502E+04
 0.21899998E+02  0.14247E+04
 0.21949999E+02  0.11288E+04
 0.21999998E+02  0.11116E+04
 0.22049999E+02  0.13756E+04
 0.22099998E+02  0.15016E+04
 0.22149998E+02  0.14068E+04
 0.22199999E+02  0.13654E+04
 0.22249998E+02  0.12048E+04
 0.22299999E+02  0.11918E+04
 0.22349998E+02  0.14918E+04
 0.22399998E+02  0.17742E+04
 0.22449999E+02  0.16404E+04
 0.22499998E+02  0.13900E+04
 0.22549999E+02  0.12070E+04
 0.22599998E+02  0.13412E+04
 0.22649998E+02  0.16588E+04
 0.22699999E+02  0.15805E+04
 0.22749998E+02  0.14227E+04
 0.22799999E+02  0.14411E+04
 0.22849998E+02  0.11525E+04
 0.22899998E+02  0.13251E+04
 0.22949999E+02  0.16973E+04
 0.22999998E+02  0.15899E+04
 0.23049999E+02  0.14304E+04
 0.23099998E+02  0.12180E+04
 0.23149998E+02  0.10495E+04
 0.23199999E+02  0.11577E+04
 0.23249998E+02  0.15921E+04
 0.23299999E+02  0.15611E+04
 0.23349998E+02  0.15585E+04
 0.23399998E+02  0.16088E+04
 0.23449999E+02  0.10313E+04
 0.23499998E+02  0.11881E+04
 0.23549999E+02  0.18889E+04
 0.23599998E+02  0.16645E+04
 0.23649998E+02  0.14400E+04
 0.23699999E+02  0.13734E+04
 0.23749998E+02  0.11514E+04
 0.23799999E+02  0.12630E+04
 0.23849998E+02  0.15696E+04
 0.23899998E+02  0.11318E+04
 0.23949999E+02  0.12861E+04
 0.23999998E+02  0.15443E+04
 0.24049999E+02  0.13610E+04
 0.24099998E+02  0.14965E+04
 0.24149998E+02  0.15925E+04
 0.24199999E+02  0.14731E+04
 0.24249998E+02  0.84422E+03
 0.24299999E+02  0.14283E+04
 0.24349998E+02  0.18533E+04
 0.24399998E+02  0.12726E+04
 0.24449999E+02  0.11318E+04
 0.24499998E+02  0.14240E+04
 0.24549999E+02  0.13343E+04
 0.24599998E+02  0.94141E+03
 0.24649998E+02  0.67919E+03
 0.24699999E+02  0.10637E+04
 0.24749998E+02  0.21140E+04
 0.24799999E+02  0.24178E+04
 0.24849998E+02  0.17475E+04
 0.24899998E+02  0.61003E+03
 0.24949999E+02  0.98195E+03
 0.24999998E+02  0.16197E+04
 0.25049999E+02  0.13585E+04
 0.25099998E+02  0.16314E+04
 0.25149998E+02  0.15745E+04
 0.25199999E+02  0.19607E+04
 0.25249998E+02  0.16151E+04
 0.25299999E+02  0.42573E+03
 0.25349998E+02  0.12108E+04
 0.25399998E+02  0.10249E+04
 0.25449999E+02  0.85027E+03
 0.25499998E+02  0.83311E+03
 0.25549999E+02  0.23115E+04
 0.25599998E+02  0.22613E+04
 0.25649998E+02  0.46674E+03
 0.25699999E+02  0.15472E+04
 0.25749998E+02  0.22829E+04
 0.25799999E+02  0.24650E+04
 0.25849998E+02  0.12326E+04
 0.25899998E+02  0.18721E+04
 0.25949999E+02  0.22437E+04
 0.25999998E+02  0.15848E+04
 0.26049999E+02  0.10405E+04
 0.26099998E+02  0.50396E+03
 0.26149998E+02  0.44697E+03
 0.26199999E+02  0.10010E+04
 0.26249998E+02  0.24431E+04
 0.26299999E+02  0.12348E+04
 0.26349998E+02  0.12749E+04
 0.26399998E+02  0.12954E+04
 0.26449999E+02  0.11549E+04
 0.26499998E+02  0.16599E+04
 0.26549999E+02  0.15806E+04
 0.26599998E+02  0.15041E+04
 0.26649998E+02  0.79872E+03
 0.26699999E+02  0.12827E+04
 0.26749998E+02  0.10647E+04
 0.26799999E+02  0.13022E+04
 0.26849998E+02  0.17192E+04
 0.26899998E+02  0.24374E+04
 0.26949999E+02  0.26503E+04
 0.26999998E+02  0.19493E+04
 0.27049997E+02  0.13404E+04
 0.27099998E+02  0.38415E+02
 0.27149998E+02 -0.24428E+02
 0.27199999E+02  0.12957E+04
 0.27249998E+02  0.18036E+04
 0.27299997E+02  0.12707E+04
 0.27349998E+02  0.11963E+04
 0.27399998E+02  0.10925E+04
 0.27449999E+02  0.11497E+04
 0.27499998E+02  0.11975E+04
 0.27549997E+02  0.13302E+04
 0.27599998E+02  0.93899E+03
 0.27649998E+02  0.21817E+04
 0.27699999E+02  0.20816E+04
 0.27749998E+02  0.61174E+03
 0.27799997E+02  0.19099E+04
 0.27849998E+02  0.17334E+04
 0.27899998E+02  0.75801E+03
 0.27949999E+02  0.18424E+04
 0.27999998E+02  0.30644E+04
 0.28049997E+02  0.19075E+04
 0.28099998E+02  0.11542E+04
 0.28149998E+02  0.21535E+04
 0.28199999E+02  0.18827E+04
 0.28249998E+02  0.17451E+04
 0.28299997E+02  0.59096E+03
 0.28349998E+02  0.47622E+03
 0.28399998E+02  0.25759E+04
 0.28449999E+02  0.26451E+04
 0.28499998E+02  0.15946E+04
 0.28549997E+02  0.82018E+03
 0.28599998E+02  0.69575E+03
 0.28649998E+02  0.48298E+03
 0.28699999E+02  0.10445E+04
 0.28749998E+02  0.93075E+03
 0.28799997E+02  0.13430E+04
 0.28849998E+02  0.15212E+04
 0.28899998E+02 -0.76226E+03
 0.28949999E+02  0.10545E+04
 0.28999998E+02  0.22775E+04
 0.29049997E+02  0.52822E+03
 0.29099998E+02  0.12152E+04
 0.29149998E+02  0.35354E+04
 0.29199999E+02  0.33662E+04
 0.29249998E+02  0.18813E+04
 0.29299997E+02  0.17769E+04
 0.29349998E+02 -0.48152E+03
 0.29399998E+02 -0.29387E+02
 0.29449999E+02  0.36055E+04
 0.29499998E+02  0.31382E+04
 0.29549997E+02  0.76058E+03
 0.29599998E+02  0.47298E+03
 0.29649998E+02  0.84365E+03
 0.29699999E+02  0.13582E+04
 0.29749998E+02  0.12174E+04
 0.29799997E+02  0.10090E+04
 0.29849998E+02  0.17786E+04
 0.29899998E+02  0.22060E+04
 0.29949999E+02  0.17869E+04
 0.29999998E+02  0.50703E+02
 0.30049999E+02 -0.61613E+02
 0.30099998E+02  0.83730E+03
 0.30149998E+02  0.29264E+04
 0.30199997E+02  0.25814E+04
 0.30249996E+02  0.18367E+04
 0.30299999E+02  0.19499E+04
 0.30349998E+02  0.10002E+04
 0.30399998E+02  0.14339E+04
 0.30449997E+02  0.15837E+04
 0.30499996E+02  0.20947E+04
 0.30549999E+02  0.42167E+03
 0.30599998E+02  0.16579E+04
 0.30649998E+02  0.28505E+04
 0.30699997E+02  0.23497E+04
 0.30749996E+02  0.16283E+04
 0.30799999E+02  0.77608E+03
 0.30849998E+02 -0.30539E+03
 0.30899998E+02  0.39781E+03
 0.30949997E+02  0.14778E+04
 0.30999996E+02  0.19608E+04
 0.31049999E+02  0.10679E+04
 0.31099998E+02 -0.44880E+03
 0.31149998E+02  0.18690E+04
 0.31199997E+02  0.83465E+03
 0.31249996E+02  0.56368E+03
 0.31299999E+02  0.57617E+03
 0.31349998E+02  0.20417E+04
 0.31399998E+02  0.23014E+04
 0.31449997E+02  0.57227E+03
 0.31499996E+02  0.18294E+04
 0.31549999E+02  0.11098E+04
 0.31599998E+02  0.20162E+04
 0.31649998E+02  0.33063E+04
 0.31699997E+02  0.16186E+04
 0.31749996E+02  0.12911E+04
 0.31799999E+02  0.15433E+04
 0.31849998E+02  0.31493E+03
 0.31899998E+02  0.66337E+03
 0.31949997E+02  0.30407E+04
 0.31999996E+02  0.20779E+04
 0.32049999E+02  0.46200E+03
 0.32099998E+02  0.13782E+04
 0.32149998E+02  0.10442E+04
 0.32199997E+02  0.38126E+03
 0.32249996E+02  0.11475E+04
 0.32299999E+02  0.26549E+04
 0.32349998E+02  0.22384E+04
 0.32399998E+02  0.47380E+03
 0.32449997E+02  0.91272E+03
 0.32499996E+02  0.26793E+04
 0.32549999E+02  0.14510E+04
 0.32599998E+02  0.42534E+03
 0.32649998E+02  0.13673E+04
 0.32699997E+02  0.18792E+04
 0.32749996E+02  0.25990E+04
 0.32799999E+02  0.29999E+04
 0.32849998E+02  0.20273E+04
 0.32899998E+02  0.23058E+03
 0.32949997E+02 -0.10007E+04
 0.32999996E+02 -0.28724E+03
 0.33049999E+02  0.90192E+03
 0.33099998E+02  0.20418E+04
 0.33149998E+02  0.24938E+04
 0.33199997E+02  0.36993E+03
 0.33249996E+02  0.59985E+03
 0.33299999E+02  0.15028E+04
 0.33349998E+02  0.12695E+04
 0.33399998E+02  0.18896E+04
 0.33449997E+02  0.19034E+04
 0.33499996E+02  0.10881E+04
 0.33549999E+02  0.71147E+03
 0.33599998E+02  0.78430E+03
 0.33649998E+02  0.14651E+02
 0.33699997E+02  0.10901E+04
 0.33749996E+02  0.20831E+04
 0.33799999E+02  0.32256E+04
 0.33849998E+02  0.24710E+04
 0.33899998E+02  0.10598E+04
 0.33949997E+02  0.22241E+04
 0.33999996E+02  0.32580E+04
 0.34049999E+02  0.30863E+04
 0.34099998E+02  0.10705E+04
 0.34149998E+02  0.18682E+04
 0.34199997E+02  0.39920E+03
 0.34249996E+02 -0.98648E+03
 0.34299999E+02  0.35734E+03
 0.34349998E+02  0.19088E+04
 0.34399998E+02  0.17358E+04
 0.34449997E+02  0.67502E+03
 0.34499996E+02  0.19445E+04
 0.34549999E+02  0.11732E+04
 0.34599998E+02  0.20508E+04
 0.34649998E+02  0.21125E+04
 0.34699997E+02  0.11669E+04
 0.34749996E+02  0.50642E+03
 0.34799999E+02 -0.12315E+03
 0.34849998E+02 -0.18940E+04
 0.34899998E+02 -0.72705E+03
 0.34949997E+02  0.26436E+04
 0.34999996E+02  0.31536E+04
 0.35049999E+02  0.23222E+04
 0.35099998E+02  0.88142E+03
 0.35149998E+02  0.14589E+04
 0.35199997E+02  0.15212E+04
 0.35249996E+02  0.17878E+04
 0.35299999E+02  0.27561E+04
 0.35349998E+02  0.43859E+04
 0.35399998E+02  0.46669E+04
 0.35449997E+02  0.54322E+04
 0.35499996E+02  0.40269E+04
 0.35549999E+02 -0.12561E+03
 0.35599998E+02 -0.19081E+04
 0.35649998E+02 -0.10689E+04
 0.35699997E+02 -0.21679E+04
 0.35749996E+02 -0.37140E+04
 0.35799999E+02  0.80898E+03
 0.35849998E+02  0.45064E+04
 0.35899998E+02  0.41063E+04
 0.35949997E+02  0.26473E+04
 0.35999996E+02  0.42330E+03
 0.36049999E+02 -0.18874E+04
 0.36099998E+02 -0.52038E+03
 0.36149998E+02  0.16142E+04
 0.36199997E+02  0.25223E+04
 0.36249996E+02  0.30957E+04
 0.36299999E+02  0.43857E+04
 0.36349998E+02  0.58435E+04
 0.36399998E+02  0.39432E+04
 0.36449997E+02  0.70337E+03
 0.36499996E+02 -0.11571E+04
 0.36549999E+02  0.41770E+01
 0.36599998E+02  0.87170E+02
 0.36649998E+02 -0.14435E+04
 0.36699997E+02 -0.16126E+04
 0.36749996E+02  0.73967E+03
 0.36799999E+02  0.62260E+04
 0.36849998E+02  0.67738E+04
 0.36899998E+02  0.36712E+04
 0.36949997E+02 -0.15205E+03
 0.36999996E+02 -0.23634E+04
 0.37049999E+02 -0.31129E+03
 0.37099998E+02  0.47490E+03
 0.37149998E+02  0.13591E+04
 0.37199997E+02  0.13420E+04
 0.37249996E+02 -0.39281E+03
 0.37299999E+02 -0.26236E+04
 0.37349998E+02 -0.71610E+03
 0.37399998E+02  0.34654E+04
 0.37449997E+02  0.33962E+04
 0.37499996E+02  0.60670E+03
 0.37549999E+02  0.12296E+04
 0.37599998E+02  0.27584E+04
 0.37649998E+02  0.17672E+04
 0.37699997E+02  0.28317E+04
 0.37749996E+02  0.44877E+04
 0.37799999E+02  0.13985E+04
 0.37849998E+02 -0.45340E+04
 0.37899998E+02 -0.33814E+04
 0.37949997E+02  0.46309E+04
 0.37999996E+02  0.86078E+04
 0.38049999E+02  0.52432E+04
 0.38099998E+02  0.26567E+03
 0.38149998E+02 -0.35353E+04
 0.38199997E+02 -0.27701E+04
 0.38249996E+02 -0.28262E+02
 0.38299999E+02  0.32485E+04
 0.38349998E+02  0.61992E+04
 0.38399998E+02  0.52586E+04
 0.38449997E+02  0.31210E+04
 0.38499996E+02  0.15457E+04
 0.38549999E+02  0.37382E+03
 0.38599998E+02  0.17405E+04
 0.38649998E+02  0.22889E+04
 0.38699997E+02  0.11077E+04
 0.38749996E+02 -0.17105E+03
 0.38799999E+02 -0.54860E+03
 0.38849998E+02 -0.66026E+03
 0.38899998E+02 -0.90733E+03
 0.38949997E+02  0.27742E+04
 0.38999996E+02  0.59927E+04
 0.39049999E+02  0.33321E+04
 0.39099998E+02 -0.23214E+02
 0.39149998E+02 -0.61093E+03
 0.39199997E+02  0.19069E+03
 0.39249996E+02  0.24211E+04
 0.39299999E+02  0.21685E+04
 0.39349998E+02 -0.76734E+02
 0.39399998E+02 -0.59445E+03
 0.39449997E+02  0.51496E+03
 0.39499996E+02  0.87135E+03
 0.39549999E+02  0.16458E+04
 0.39599998E+02  0.10711E+04
 0.39649998E+02  0.55253E+03
 0.39699997E+02  0.70121E+03
 0.39749996E+02  0.26127E+04
 0.39799999E+02  0.63519E+04
 0.39849998E+02  0.63127E+04
 0.39899998E+02  0.23000E+04
 0.39949997E+02  0.10337E+04
 0.39999996E+02  0.33528E+04
 0.40049999E+02  0.14009E+03
 0.40099998E+02 -0.32158E+04
 0.40149998E+02 -0.82450E+03
 0.40199997E+02  0.36506E+04
 0.40249996E+02  0.32473E+04
 0.40299999E+02 -0.20282E+03
 0.40349998E+02 -0.30332E+04
 0.40399998E+02 -0.41130E+04
 0.40449997E+02  0.80501E+03
 0.40499996E+02  0.41072E+04
 0.40549999E+02  0.25390E+04
 0.40599998E+02  0.75420E+03
 0.40649998E+02  0.23404E+04
 0.40699997E+02  0.56086E+04
 0.40749996E+02  0.49751E+04
 0.40799999E+02  0.11213E+04
 0.40849998E+02 -0.17545E+04
 0.40899998E+02 -0.14153E+04
 0.40949997E+02 -0.12610E+04
 0.40999996E+02 -0.11472E+03
 0.41049999E+02  0.32700E+04
 0.41099998E+02  0.19351E+04
 0.41149998E+02 -0.13364E+03
 0.41199997E+02  0.42028E+04
 0.41249996E+02  0.84362E+04
 0.41299999E+02  0.63500E+04
 0.41349998E+02  0.15141E+04
 0.41399998E+02 -0.63309E+03
 0.41449997E+02 -0.10630E+04
 0.41499996E+02 -0.10960E+04
 0.41549999E+02  0.18397E+04
 0.41599998E+02  0.23111E+04
 0.41649998E+02  0.10144E+03
 0.41699997E+02 -0.12109E+03
 0.41749996E+02 -0.92169E+02
 0.41799999E+02 -0.57127E+03
 0.41849998E+02 -0.13985E+04
 0.41899998E+02 -0.26117E+03
 0.41949997E+02  0.17156E+03
 0.41999996E+02 -0.87839E+03
 0.42049999E+02  0.17613E+03
 0.42099998E+02  0.42243E+04
 0.42149998E+02  0.69074E+04
 0.42199997E+02  0.49225E+04
 0.42249996E+02  0.31072E+04
 0.42299999E+02  0.37613E+04
 0.42349998E+02  0.35121E+04
 0.42399998E+02  0.22326E+04
 0.42449997E+02  0.13315E+04
 0.42499996E+02 -0.14783E+03
 0.42549999E+02  0.14187E+04
 0.42599998E+02  0.28397E+04
 0.42649998E+02  0.24541E+02
 0.42699997E+02 -0.18606E+04
 0.42749996E+02  0.10436E+04
 0.42799995E+02  0.48920E+04
 0.42849998E+02  0.29648E+04
 0.42899998E+02  0.15029E+04
 0.42949997E+02  0.16680E+04
 0.42999996E+02  0.16826E+03
 0.43049995E+02  0.52582E+03
 0.43099998E+02  0.23489E+03
 0.43149998E+02 -0.92026E+03
 0.43199997E+02  0.81690E+03
 0.43249996E+02  0.33144E+04
 0.43299995E+02  0.34705E+04
 0.43349998E+02  0.14240E+04
 0.43399998E+02 -0.98814E+02
 0.43449997E+02  0.16814E+04
 0.43499996E+02  0.24691E+04
 0.43549995E+02 -0.62187E+03
 0.43599998E+02 -0.27141E+04
 0.43649998E+02 -0.28235E+04
 0.43699997E+02 -0.65356E+03
 0.43749996E+02  0.51259E+04
 0.43799995E+02  0.62711E+04
 0.43849998E+02  0.18862E+04
 0.43899998E+02  0.13968E+04
 0.43949997E+02  0.20173E+04
 0.43999996E+02 -0.11388E+04
 0.44049995E+02 -0.17341E+04
 0.44099998E+02 -0.69385E+03
 0.44149998E+02  0.84982E+03
 0.44199997E+02  0.84877E+03
 0.44249996E+02 -0.57408E+03
 0.44299995E+02  0.13220E+04
 0.44349998E+02  0.51624E+04
 0.44399998E+02  0.64425E+04
 0.44449997E+02  0.52946E+04
 0.44499996E+02  0.27970E+04
 0.44549995E+02 -0.15101E+04
 0.44599998E+02 -0.15554E+04
 0.44649998E+02  0.39039E+04
 0.44699997E+02  0.72913E+04
 0.44749996E+02  0.44937E+04
 0.44799995E+02  0.10845E+04
 0.44849998E+02 -0.23065E+04
 0.44899998E+02 -0.70068E+03
 0.44949997E+02  0.18570E+04
 0.44999996E+02  0.42821E+03
 0.45049995E+02 -0.57383E+03
 0.45099998E+02 -0.23360E+04
 0.45149998E+02 -0.35311E+04
 0.45199997E+02 -0.64238E+03
 0.45249996E+02  0.28361E+04
 0.45299995E+02  0.15469E+04
 0.45349998E+02  0.37356E+02
 0.45399998E+02  0.13132E+04
 0.45449997E+02  0.29236E+04
 0.45499996E+02  0.22285E+04
 0.45549995E+02  0.22911E+04
 0.45599998E+02  0.37490E+04
 0.45649998E+02  0.31276E+04
 0.45699997E+02  0.16720E+04
 0.45749996E+02  0.13280E+04
 0.45799995E+02  0.30179E+04
 0.45849998E+02  0.23861E+04
 0.45899998E+02  0.11158E+04
 0.45949997E+02  0.33281E+04
 0.45999996E+02  0.44044E+04
 0.46049995E+02  0.25892E+04
 0.46099998E+02 -0.84934E+03
 0.46149998E+02 -0.11077E+04
 0.46199997E+02  0.93512E+03
 0.46249996E+02  0.14840E+04
 0.46299995E+02  0.91392E+03
 0.46349998E+02 -0.59065E+00
 0.46399998E+02 -0.36460E+01
 0.46449997E+02  0.12920E+04
 0.46499996E+02  0.20940E+04
 0.46549995E+02  0.18037E+04
 0.46599998E+02  0.14965E+04
 0.46649998E+02  0.28060E+04
 0.46699997E+02  0.38593E+04
 0.46749996E+02  0.27607E+04
 0.46799995E+02  0.27195E+03
 0.46849998E+02 -0.21428E+04
 0.46899998E+02 -0.15948E+04
 0.46949997E+02 -0.53293E+03
 0.46999996E+02 -0.55015E+03
 0.47049995E+02  0.36375E+03
 0.47099998E+02  0.17084E+04
 0.47149998E+02  0.19321E+04
 0.47199997E+02  0.12114E+04
 0.47249996E+02  0.15415E+04
 0.47299995E+02  0.35946E+04
 0.47349998E+02  0.39999E+04
 0.47399998E+02  0.12746E+04
 0.47449997E+02 -0.11353E+04
 0.47499996E+02 -0.17122E+04
 0.47549995E+02 -0.43882E+03
 0.47599998E+02  0.27751E+04
 0.47649998E+02  0.36474E+04
 0.47699997E+02  0.17087E+04
 0.47749996E+02 -0.51605E+03
 0.47799995E+02 -0.72091E+03
 0.47849998E+02  0.26049E+03
 0.47899998E+02  0.19382E+03
 0.47949997E+02  0.29652E+04
 0.47999996E+02  0.66954E+04
 0.48049995E+02  0.70939E+04
 0.48099998E+02  0.55450E+04
 0.48149998E+02  0.34262E+04
 0.48199997E+02  0.11856E+04
 0.48249996E+02  0.85010E+03
 0.48299995E+02  0.26531E+04
 0.48349998E+02  0.35696E+04
 0.48399998E+02  0.15326E+04
 0.48449997E+02 -0.10488E+04
 0.48499996E+02 -0.90440E+03
 0.48549995E+02  0.14309E+04
 0.48599998E+02  0.24154E+04
 0.48649998E+02  0.28820E+03
 0.48699997E+02 -0.24136E+04
 0.48749996E+02 -0.25673E+04
 0.48799995E+02  0.13847E+03
 0.48849998E+02  0.19247E+04
 0.48899998E+02  0.94725E+03
 0.48949997E+02  0.33966E+03
 0.48999996E+02  0.25004E+04
 0.49049995E+02  0.12089E+04
 0.49099998E+02 -0.10265E+04
 0.49149998E+02  0.11685E+04
 0.49199997E+02  0.23119E+04
 0.49249996E+02  0.16063E+04
 0.49299995E+02  0.13858E+04
 0.49349998E+02  0.28172E+04
 0.49399998E+02  0.35591E+04
 0.49449997E+02  0.33357E+04
 0.49499996E+02  0.39911E+04
 0.49549995E+02  0.27496E+04
 0.49599998E+02  0.26285E+03
 0.49649998E+02  0.26674E+03
 0.49699997E+02  0.64805E+03
 0.49749996E+02  0.88736E+03
 0.49799995E+02  0.11782E+04
 0.49849998E+02  0.11706E+04
 0.49899998E+02  0.18424E+04
 0.49949997E+02  0.17004E+04
 0.49999996E+02  0.94697E+03
 0.50049995E+02  0.17608E+03
 0.50099998E+02  0.18941E+02
 0.50149998E+02  0.14542E+04
 0.50199997E+02  0.26303E+04
 0.50249996E+02  0.20778E+04
 0.50299995E+02  0.18911E+04
 0.50349998E+02  0.20080E+04
 0.50399998E+02  0.20469E+04
 0.50449997E+02  0.24842E+04
 0.50499996E+02  0.24360E+04
 0.50549995E+02  0.16294E+04
 0.50599998E+02 -0.82011E+02
 0.50649998E+02 -0.68446E+03
 0.50699997E+02  0.16682E+04
 0.50749996E+02  0.36193E+04
 0.50799995E+02  0.35006E+04
 0.50849998E+02  0.27527E+04
 0.50899998E+02  0.13593E+04
 0.50949997E+02  0.70299E+03
 0.50999996E+02  0.32939E+03
 0.51049995E+02  0.14386E+04
 0.51099998E+02  0.32476E+04
 0.51149998E+02  0.22777E+04
 0.51199997E+02  0.54130E+03
 0.51249996E+02  0.16489E+02
 0.51299995E+02  0.88500E+03
 0.51349998E+02  0.14222E+04
 0.51399998E+02  0.17841E+04
 0.51449997E+02  0.28143E+04
 0.51499996E+02  0.24697E+04
 0.51549995E+02  0.22296E+03
 0.51599998E+02 -0.14096E+04
 0.51649998E+02  0.12423E+03
 0.51699997E+02  0.23457E+04
 0.51749996E+02  0.30228E+04
 0.51799995E+02  0.24187E+04
 0.51849998E+02  0.14813E+03
 0.51899998E+02 -0.18018E+04
 0.51949997E+02 -0.18171E+04
 0.51999996E+02 -0.17320E+03
 0.52049995E+02  0.54257E+03
 0.52099998E+02  0.85850E+03
 0.52149998E+02  0.19100E+04
 0.52199997E+02  0.26762E+04
 0.52249996E+02  0.38363E+04
 0.52299995E+02  0.44535E+04
 0.52349998E+02  0.33345E+04
 0.52399998E+02  0.11416E+04
 0.52449997E+02  0.10571E+03
 0.52499996E+02  0.12858E+04
 0.52549995E+02  0.19000E+04
 0.52599998E+02  0.14805E+04
 0.52649998E+02  0.77466E+03
 0.52699997E+02 -0.51174E+03
 0.52749996E+02 -0.10129E+04
 0.52799995E+02 -0.41519E+03
 0.52849998E+02  0.19928E+04
 0.52899998E+02  0.27720E+04
 0.52949997E+02  0.11889E+04
 0.52999996E+02  0.65313E+03
 0.53049995E+02  0.14168E+04
 0.53099998E+02  0.33304E+04
 0.53149998E+02  0.40714E+04
 0.53199997E+02  0.27219E+04
 0.53249996E+02  0.83790E+03
 0.53299995E+02  0.11866E+03
 0.53349998E+02  0.14173E+04
 0.53399998E+02  0.21942E+04
 0.53449997E+02  0.28963E+04
 0.53499996E+02  0.40122E+04
 0.53549995E+02  0.28993E+04
 0.53599998E+02  0.34307E+03
 0.53649998E+02 -0.27791E+03
 0.53699997E+02  0.84875E+02
 0.53749996E+02 -0.50694E+03
 0.53799995E+02 -0.38498E+03
 0.53849998E+02  0.22053E+03
 0.53899998E+02 -0.10214E+03
 0.53949997E+02 -0.15596E+03
 0.53999996E+02  0.94432E+03
 0.54049995E+02  0.15634E+04
 0.54099998E+02  0.19483E+04
 0.54149998E+02  0.30667E+04
 0.54199997E+02  0.39081E+04
 0.54249996E+02  0.27776E+04
 0.54299995E+02  0.16159E+04
 0.54349998E+02  0.19815E+04
 0.54399998E+02  0.26662E+04
 0.54449997E+02  0.31828E+04
 0.54499996E+02  0.27247E+04
 0.54549995E+02  0.19153E+04
 0.54599998E+02  0.13892E+04
 0.54649998E+02  0.19259E+04
 0.54699997E+02  0.23051E+04
 0.54749996E+02  0.65796E+03
 0.54799995E+02 -0.11081E+04
 0.54849998E+02 -0.12432E+04
 0.54899998E+02 -0.45349E+03
 0.54949997E+02 -0.17136E+03
 0.54999996E+02  0.56623E+03
 0.55049995E+02  0.23647E+04
 0.55099998E+02  0.26568E+04
 0.55149998E+02  0.15367E+04
 0.55199997E+02  0.10389E+04
 0.55249996E+02  0.73270E+03
 0.55299995E+02  0.85921E+03
 0.55349998E+02  0.17187E+04
 0.55399998E+02  0.22925E+04
 0.55449997E+02  0.20914E+04
 0.55499996E+02  0.11349E+04
 0.55549995E+02 -0.38914E+03
 0.55599998E+02 -0.11512E+04
 0.55649998E+02 -0.43640E+03
 0.55699997E+02  0.11450E+04
 0.55749996E+02  0.19819E+04
 0.55799995E+02  0.24114E+04
 0.55849995E+02  0.30969E+04
 0.55899998E+02  0.35534E+04
 0.55949997E+02  0.36636E+04
 0.55999996E+02  0.25690E+04
 0.56049995E+02  0.98652E+03
 0.56099995E+02 -0.63488E+03
 0.56149998E+02 -0.10029E+04
 0.56199997E+02  0.85732E+03
 0.56249996E+02  0.28123E+04
 0.56299995E+02  0.33841E+04
 0.56349995E+02  0.34022E+04
 0.56399998E+02  0.36065E+04
 0.56449997E+02  0.38791E+04
 0.56499996E+02  0.36382E+04
 0.56549995E+02  0.29496E+04
 0.56599995E+02  0.18422E+04
 0.56649998E+02  0.94437E+03
 0.56699997E+02  0.18885E+03
 0.56749996E+02 -0.43962E+03
 0.56799995E+02 -0.24476E+03
 0.56849995E+02 -0.27397E+02
 0.56899998E+02  0.93253E+03
 0.56949997E+02  0.12081E+04
 0.56999996E+02 -0.88027E+02
 0.57049995E+02 -0.50803E+03
 0.57099995E+02  0.21811E+03
 0.57149998E+02  0.64156E+03
 0.57199997E+02  0.83314E+03
 0.57249996E+02  0.96709E+03
 0.57299995E+02  0.10728E+04
 0.57349995E+02  0.15202E+04
 0.57399998E+02  0.19837E+04
 0.57449997E+02  0.26269E+04
 0.57499996E+02  0.22241E+04
 0.57549995E+02  0.15054E+04
 0.57599995E+02  0.19039E+04
 0.57649998E+02  0.25421E+04
 0.57699997E+02  0.25592E+04
 0.57749996E+02  0.22406E+04
 0.57799995E+02  0.25030E+04
 0.57849995E+02  0.27123E+04
 0.57899998E+02  0.23255E+04
 0.57949997E+02  0.12448E+04
 0.57999996E+02  0.21320E+03
 0.58049995E+02 -0.17348E+03
 0.58099995E+02 -0.34591E+03
 0.58149998E+02 -0.59879E+03
 0.58199997E+02 -0.10505E+04
 0.58249996E+02 -0.15988E+04
 0.58299995E+02 -0.17042E+04
 0.58349995E+02 -0.23159E+03
 0.58399998E+02  0.18073E+04
 0.58449997E+02  0.30184E+04
 0.58499996E+02  0.31832E+04
 0.58549995E+02  0.23917E+04
 0.58599995E+02  0.19833E+04
 0.58649998E+02  0.21260E+04
 0.58699997E+02  0.23041E+04
 0.58749996E+02  0.22168E+04
 0.58799995E+02  0.24437E+04
 0.58849995E+02  0.27265E+04
 0.58899998E+02  0.26079E+04
 0.58949997E+02  0.25471E+04
 0.58999996E+02  0.22971E+04
 0.59049995E+02  0.19990E+04
 0.59099995E+02  0.18939E+04
 0.59149998E+02  0.18104E+04
 0.59199997E+02  0.17209E+04
 0.59249996E+02  0.13515E+04
 0.59299995E+02  0.11969E+04
 0.59349995E+02  0.10359E+04
 0.59399998E+02  0.22798E+03
 0.59449997E+02 -0.24442E+03
 0.59499996E+02  0.47629E+02
 0.59549995E+02  0.73376E+03
 0.59599995E+02  0.93098E+03
 0.59649998E+02  0.96823E+03
 0.59699997E+02  0.18661E+04
 0.59749996E+02  0.30277E+04
 0.59799995E+02  0.29075E+04
 0.59849995E+02  0.20088E+04
 0.59899998E+02  0.13838E+04
 0.59949997E+02  0.11497E+04
 0.59999996E+02  0.76804E+03
 0.60049995E+02  0.41918E+03
 0.60099995E+02 -0.75735E+02
 0.60149998E+02 -0.98439E+03
 0.60199997E+02 -0.10737E+04
 0.60249996E+02 -0.44168E+03
 0.60299995E+02  0.57840E+03
 0.60349995E+02  0.10594E+04
 0.60399998E+02  0.12113E+04
 0.60449997E+02  0.20670E+04
 0.60499996E+02  0.27847E+04
 0.60549995E+02  0.27139E+04
 0.60599995E+02  0.25672E+04
 0.60649998E+02  0.27601E+04
 0.60699997E+02  0.31338E+04
 0.60749996E+02  0.33576E+04
 0.60799995E+02  0.33202E+04
 0.60849995E+02  0.26694E+04
 0.60899998E+02  0.12965E+04
 0.60949997E+02  0.99646E+03
 0.60999996E+02  0.18310E+04
 0.61049995E+02  0.24050E+04
 0.61099995E+02  0.23068E+04
 0.61149998E+02  0.18514E+04
 0.61199997E+02  0.15924E+04
 0.61249996E+02  0.12597E+04
 0.61299995E+02  0.12395E+04
 0.61349995E+02  0.13049E+04
 0.61399998E+02  0.11552E+04
 0.61449997E+02  0.10533E+04
 0.61499996E+02  0.91680E+03
 0.61549995E+02  0.66387E+03
 0.61599995E+02  0.11335E+03
 0.61649998E+02 -0.34053E+03
 0.61699997E+02 -0.25719E+03
 0.61749996E+02  0.66907E+03
 0.61799995E+02  0.10762E+04
 0.61849995E+02  0.11346E+04
 0.61899998E+02  0.17192E+04
 0.61949997E+02  0.18778E+04
 0.61999996E+02  0.15174E+04
 0.62049995E+02  0.13626E+04
 0.62099998E+02  0.14062E+04
 0.62149994E+02  0.81668E+03
 0.62199997E+02  0.55061E+03
 0.62249992E+02  0.11249E+04
 0.62299995E+02  0.18168E+04
 0.62349998E+02  0.19642E+04
 0.62399994E+02  0.16493E+04
 0.62449997E+02  0.16733E+04
 0.62499992E+02  0.19989E+04
 0.62549995E+02  0.18251E+04
 0.62599998E+02  0.16926E+04
 0.62649994E+02  0.18633E+04
 0.62699997E+02  0.14649E+04
 0.62749992E+02  0.14597E+04
 0.62799995E+02  0.11636E+04
 0.62849998E+02  0.93419E+03
 0.62899994E+02  0.12884E+04
 0.62949997E+02  0.12498E+04
 0.62999992E+02  0.13375E+04
 0.63049995E+02  0.12925E+04
 0.63099998E+02  0.13314E+04
 0.63149994E+02  0.13534E+04
 0.63199997E+02  0.13369E+04
 0.63249992E+02  0.17865E+04
 0.63299995E+02  0.18903E+04
 0.63349998E+02  0.13044E+04
 0.63399994E+02  0.78644E+03
 0.63449997E+02  0.15019E+04
 0.63499992E+02  0.24258E+04
 0.63549995E+02  0.25582E+04
 0.63599998E+02  0.25275E+04
 0.63649994E+02  0.24328E+04
 0.63699997E+02  0.20242E+04
 0.63749992E+02  0.16512E+04
 0.63799995E+02  0.16634E+04
 0.63849998E+02  0.14004E+04
 0.63899994E+02  0.12121E+04
 0.63949997E+02  0.10769E+04
 0.63999992E+02  0.13832E+04
 0.64049995E+02  0.17602E+04
 0.64099998E+02  0.17320E+04
 0.64149994E+02  0.12301E+04
 0.64199997E+02  0.67092E+03
 0.64249992E+02  0.24183E+03
 0.64299995E+02  0.15263E+03
 0.64349998E+02  0.74039E+03
 0.64399994E+02  0.68697E+03
 0.64449997E+02  0.60723E+03
 0.64499992E+02  0.49047E+03
 0.64549995E+02  0.47418E+03
 0.64599998E+02  0.51008E+03
 0.64649994E+02  0.63325E+03
 0.64699997E+02  0.13124E+04
 0.64749992E+02  0.21040E+04
 0.64799995E+02  0.26880E+04
 0.64849998E+02  0.23615E+04
 0.64899994E+02  0.16614E+04
 0.64949997E+02  0.10146E+04
 0.64999992E+02  0.61353E+03
 0.65049995E+02  0.85145E+03
 0.65099998E+02  0.15379E+04
 0.65149994E+02  0.23125E+04
 0.65199997E+02  0.29395E+04
 0.65249992E+02  0.33854E+04
 0.65299995E+02  0.30838E+04
 0.65349998E+02  0.20709E+04
 0.65399994E+02  0.16079E+04
 0.65449997E+02  0.15068E+04
 0.65499992E+02  0.11976E+04
 0.65549995E+02  0.10424E+04
 0.65599998E+02  0.99082E+03
 0.65649994E+02  0.94136E+03
 0.65699997E+02  0.12475E+04
 0.65749992E+02  0.13264E+04
 0.65799995E+02  0.62523E+03
 0.65849998E+02 -0.12063E+03
 0.65899994E+02 -0.32735E+03
 0.65949997E+02  0.17977E+03
 0.65999992E+02  0.73039E+03
 0.66049995E+02  0.97749E+03
 0.66099998E+02  0.12435E+04
 0.66149994E+02  0.15312E+04
 0.66199997E+02  0.17332E+04
 0.66249992E+02  0.16659E+04
 0.66299995E+02  0.15277E+04
 0.66349998E+02  0.15960E+04
 0.66399994E+02  0.19231E+04
 0.66449997E+02  0.20497E+04
 0.66499992E+02  0.16356E+04
 0.66549995E+02  0.14276E+04
 0.66599998E+02  0.16712E+04
 0.66649994E+02  0.17823E+04
 0.66699997E+02  0.16336E+04
 0.66749992E+02  0.17698E+04
 0.66799995E+02  0.17189E+04
 0.66849998E+02  0.15243E+04
 0.66899994E+02  0.14560E+04
 0.66949997E+02  0.14299E+04
 0.66999992E+02  0.17165E+04
 0.67049995E+02  0.18748E+04
 0.67099998E+02  0.23247E+04
 0.67149994E+02  0.26082E+04
 0.67199997E+02  0.24048E+04
 0.67249992E+02  0.17179E+04
 0.67299995E+02  0.94410E+03
 0.67349998E+02  0.52256E+03
 0.67399994E+02  0.37277E+03
 0.67449997E+02  0.60570E+03
 0.67499992E+02  0.11554E+04
 0.67549995E+02  0.16389E+04
 0.67599998E+02  0.17744E+04
 0.67649994E+02  0.19198E+04
 0.67699997E+02  0.18144E+04
 0.67749992E+02  0.15045E+04
 0.67799995E+02  0.11149E+04
 0.67849998E+02  0.76883E+03
 0.67899994E+02  0.67047E+03
 0.67949997E+02  0.94299E+03
 0.67999992E+02  0.10246E+04
 0.68049995E+02  0.11988E+04
 0.68099998E+02  0.12617E+04
 0.68149994E+02  0.78894E+03
 0.68199997E+02  0.54089E+03
 0.68249992E+02  0.52176E+03
 0.68299995E+02  0.51243E+03
 0.68349998E+02  0.59282E+03
 0.68399994E+02  0.12490E+04
 0.68449997E+02  0.16885E+04
 0.68499992E+02  0.20283E+04
 0.68549995E+02  0.24495E+04
 0.68599998E+02  0.23024E+04
 0.68649994E+02  0.19059E+04
 0.68699997E+02  0.12627E+04
 0.68749992E+02  0.12986E+04
 0.68799995E+02  0.18495E+04
 0.68849998E+02  0.22618E+04
 0.68899994E+02  0.24840E+04
 0.68949997E+02  0.23329E+04
 0.68999992E+02  0.23356E+04
 0.69049995E+02  0.23348E+04
 0.69099998E+02  0.24393E+04
 0.69149994E+02  0.25385E+04
 0.69199997E+02  0.20281E+04
 0.69249992E+02  0.12429E+04
 0.69299995E+02  0.79040E+03
 0.69349998E+02  0.77357E+03
 0.69399994E+02  0.95354E+03
 0.69449997E+02  0.13367E+04
 0.69499992E+02  0.17271E+04
 0.69549995E+02  0.16827E+04
 0.69599998E+02  0.10386E+04
 0.69649994E+02  0.54626E+03
 0.69699997E+02  0.46135E+03
 0.69749992E+02  0.27227E+03
 0.69799995E+02 -0.74244E+02
 0.69849998E+02 -0.36423E+03
 0.69899994E+02 -0.36366E+03
 0.69949997E+02  0.40060E+02
 0.69999992E+02  0.94977E+03
 0.70049995E+02  0.17673E+04
 0.70099998E+02  0.19341E+04
 0.70149994E+02  0.15997E+04
 0.70199997E+02  0.12931E+04
 0.70249992E+02  0.13080E+04
 0.70299995E+02  0.16694E+04
 0.70349998E+02  0.20183E+04
 0.70399994E+02  0.22579E+04
 0.70449997E+02  0.25576E+04
 0.70499992E+02  0.25621E+04
 0.70549995E+02  0.21865E+04
 0.70599998E+02  0.17914E+04
 0.70649994E+02  0.17162E+04
 0.70699997E+02  0.19158E+04
 0.70749992E+02  0.19835E+04
 0.70799995E+02  0.19707E+04
 0.70849998E+02  0.21847E+04
 0.70899994E+02  0.21963E+04
 0.70949997E+02  0.18932E+04
 0.70999992E+02  0.13875E+04
 0.71049995E+02  0.12826E+04
 0.71099998E+02  0.11898E+04
 0.71149994E+02  0.81932E+03
 0.71199997E+02  0.67058E+03
 0.71249992E+02  0.59886E+03
 0.71299995E+02  0.52026E+03
 0.71349998E+02  0.59140E+03
 0.71399994E+02  0.83117E+03
 0.71449997E+02  0.98129E+03
 0.71499992E+02  0.11163E+04
 0.71549995E+02  0.11381E+04
 0.71599998E+02  0.11622E+04
 0.71649994E+02  0.83852E+03
 0.71699997E+02  0.64120E+03
 0.71749992E+02  0.98807E+03
 0.71799995E+02  0.12901E+04
 0.71849998E+02  0.14989E+04
 0.71899994E+02  0.17564E+04
 0.71949997E+02  0.19897E+04
 0.71999992E+02  0.22668E+04
 0.72049995E+02  0.26014E+04
 0.72099998E+02  0.24805E+04
 0.72149994E+02  0.19116E+04
 0.72199997E+02  0.15440E+04
 0.72249992E+02  0.14944E+04
 0.72299995E+02  0.14436E+04
 0.72349998E+02  0.14594E+04
 0.72399994E+02  0.13071E+04
 0.72449997E+02  0.11523E+04
 0.72499992E+02  0.12421E+04
 0.72549995E+02  0.15166E+04
 0.72599998E+02  0.14881E+04
 0.72649994E+02  0.10009E+04
 0.72699997E+02  0.94530E+03
 0.72749992E+02  0.85455E+03
 0.72799995E+02  0.49714E+03
 0.72849998E+02 -0.23347E+02
 0.72899994E+02 -0.17091E+03
 0.72949997E+02  0.53616E+03
 0.72999992E+02  0.10680E+04
 0.73049995E+02  0.15688E+04
 0.73099998E+02  0.24297E+04
 0.73149994E+02  0.28440E+04
 0.73199997E+02  0.28415E+04
 0.73249992E+02  0.28815E+04
 0.73299995E+02  0.25190E+04
 0.73349998E+02  0.23558E+04
 0.73399994E+02  0.25703E+04
 0.73449997E+02  0.24744E+04
 0.73499992E+02  0.20535E+04
 0.73549995E+02  0.13477E+04
 0.73599998E+02  0.76370E+03
 0.73649994E+02  0.36883E+03
 0.73699997E+02  0.57015E+02
 0.73749992E+02  0.13269E+03
 0.73799995E+02  0.31320E+03
 0.73849998E+02  0.54763E+03
 0.73899994E+02  0.83601E+03
 0.73949997E+02  0.10175E+04
 0.73999992E+02  0.10993E+04
 0.74049995E+02  0.90560E+03
 0.74099998E+02  0.88844E+03
 0.74149994E+02  0.10823E+04
 0.74199997E+02  0.15367E+04
 0.74249992E+02  0.20320E+04
 0.74299995E+02  0.20822E+04
 0.74349998E+02  0.20411E+04
 0.74399994E+02  0.20169E+04
 0.74449997E+02  0.18973E+04
 0.74499992E+02  0.17996E+04
 0.74549995E+02  0.18282E+04
 0.74599998E+02  0.20082E+04
 0.74649994E+02  0.21325E+04
 0.74699997E+02  0.20415E+04
 0.74749992E+02  0.19285E+04
 0.74799995E+02  0.16504E+04
 0.74849998E+02  0.12712E+04
 0.74899994E+02  0.10597E+04
 0.74949997E+02  0.90136E+03
 0.74999992E+02  0.10581E+04
 0.75049995E+02  0.14483E+04
 0.75099998E+02  0.16894E+04
 0.75149994E+02  0.15668E+04
 0.75199997E+02  0.10087E+04
 0.75249992E+02  0.44376E+03
 0.75299995E+02  0.11144E+03
 0.75349998E+02 -0.57063E+02
 0.75399994E+02  0.78982E+02
 0.75449997E+02  0.68078E+03
 0.75499992E+02  0.13694E+04
 0.75549995E+02  0.21732E+04
 0.75599998E+02  0.27609E+04
 0.75649994E+02  0.29806E+04
 0.75699997E+02  0.29546E+04
 0.75749992E+02  0.25602E+04
 0.75799995E+02  0.19141E+04
 0.75849998E+02  0.11568E+04
 0.75899994E+02  0.68155E+03
 0.75949997E+02  0.73610E+03
 0.75999992E+02  0.10098E+04
 0.76049995E+02  0.12693E+04
 0.76099998E+02  0.16031E+04
 0.76149994E+02  0.18927E+04
 0.76199997E+02  0.21122E+04
 0.76249992E+02  0.20086E+04
 0.76299995E+02  0.13774E+04
 0.76349998E+02  0.76029E+03
 0.76399994E+02  0.43247E+03
 0.76449997E+02  0.23408E+03
 0.76499992E+02  0.46766E+03
 0.76549995E+02  0.74560E+03
 0.76599998E+02  0.78400E+03
 0.76649994E+02  0.88980E+03
 0.76699997E+02  0.12242E+04
 0.76749992E+02  0.15529E+04
 0.76799995E+02  0.16849E+04
 0.76849998E+02  0.15370E+04
 0.76899994E+02  0.13060E+04
 0.76949997E+02  0.13497E+04
 0.76999992E+02  0.11509E+04
 0.77049995E+02  0.92861E+03
 0.77099998E+02  0.96451E+03
 0.77149994E+02  0.10901E+04
 0.77199997E+02  0.14556E+04
 0.77249992E+02  0.20806E+04
 0.77299995E+02  0.26265E+04
 0.77349998E+02  0.27024E+04
 0.77399994E+02  0.26314E+04
 0.77449997E+02  0.27156E+04
 0.77499992E+02  0.28925E+04
 0.77549995E+02  0.28230E+04
 0.77599998E+02  0.23288E+04
 0.77649994E+02  0.18768E+04
 0.77699997E+02  0.16297E+04
 0.77749992E+02  0.13859E+04
 0.77799995E+02  0.11791E+04
 0.77849998E+02  0.99437E+03
 0.77899994E+02  0.81088E+03
 0.77949997E+02  0.64785E+03
 0.77999992E+02  0.67835E+03
 0.78049995E+02  0.56409E+03
 0.78099998E+02  0.62483E+03
 0.78149994E+02  0.10826E+04
 0.78199997E+02  0.10944E+04
 0.78249992E+02  0.78975E+03
 0.78299995E+02  0.86895E+03
 0.78349998E+02  0.10261E+04
 0.78399994E+02  0.81126E+03
 0.78449997E+02  0.75990E+03
 0.78499992E+02  0.66888E+03
 0.78549995E+02  0.68164E+03
 0.78599998E+02  0.90225E+03
 0.78649994E+02  0.12390E+04
 0.78699997E+02  0.15845E+04
 0.78749992E+02  0.18011E+04
 0.78799995E+02  0.19466E+04
 0.78849998E+02  0.19669E+04
 0.78899994E+02  0.21802E+04
 0.78949997E+02  0.23637E+04
 0.78999992E+02  0.24448E+04
 0.79049995E+02  0.23415E+04
 0.79099998E+02  0.21567E+04
 0.79149994E+02  0.15469E+04
 0.79199997E+02  0.97786E+03
 0.79249992E+02  0.61799E+03
 0.79299995E+02  0.49444E+03
 0.79349998E+02  0.67760E+03
 0.79399994E+02  0.70225E+03
 0.79449997E+02  0.10124E+04
 0.79499992E+02  0.14027E+04
 0.79549995E+02  0.17526E+04
 0.79599998E+02  0.18378E+04
 0.79649994E+02  0.17680E+04
 0.79699997E+02  0.15866E+04
 0.79749992E+02  0.14668E+04
 0.79799995E+02  0.12723E+04
 0.79849998E+02  0.12850E+04
 0.79899994E+02  0.13755E+04
 0.79949997E+02  0.15463E+04
 0.79999992E+02  0.17729E+04
 0.80049995E+02  0.17632E+04
 0.80099998E+02  0.19649E+04
 0.80149994E+02  0.19996E+04
 0.80199997E+02  0.18329E+04
 0.80249992E+02  0.17856E+04
 0.80299995E+02  0.19884E+04
 0.80349998E+02  0.21459E+04
 0.80399994E+02  0.22930E+04
 0.80449997E+02  0.19676E+04
 0.80499992E+02  0.18631E+04
 0.80549995E+02  0.17833E+04
 0.80599998E+02  0.15451E+04
 0.80649994E+02  0.17617E+04
 0.80699997E+02  0.18100E+04
 0.80749992E+02  0.18126E+04
 0.80799995E+02  0.17073E+04
 0.80849998E+02  0.14853E+04
 0.80899994E+02  0.10063E+04
 0.80949997E+02  0.63652E+03
 0.80999992E+02  0.44086E+03
 0.81049995E+02  0.23364E+03
 0.81099998E+02  0.25858E+03
 0.81149994E+02  0.38628E+03
 0.81199997E+02  0.47162E+03
 0.81249992E+02  0.44233E+03
 0.81299995E+02  0.17093E+03
 0.81349998E+02  0.87024E+02
 0.81399994E+02 -0.56957E+01
 0.81449997E+02 -0.23951E+03
 0.81499992E+02  0.62521E+02
 0.81549995E+02  0.55127E+03
 0.81599998E+02  0.12348E+04
 0.81649994E+02  0.16901E+04
 0.81699997E+02  0.21118E+04
 0.81749992E+02  0.24001E+04
 0.81799995E+02  0.25428E+04
 0.81849998E+02  0.25144E+04
 0.81899994E+02  0.22726E+04
 0.81949997E+02  0.25377E+04
 0.81999992E+02  0.24649E+04
 0.82049995E+02  0.22869E+04
 0.82099998E+02  0.21599E+04
 0.82149994E+02  0.18863E+04
 0.82199997E+02  0.19022E+04
 0.82249992E+02  0.18335E+04
 0.82299995E+02  0.14444E+04
 0.82349998E+02  0.13760E+04
 0.82399994E+02  0.12835E+04
 0.82449997E+02  0.11214E+04
 0.82499992E+02  0.82299E+03
 0.82549995E+02  0.81839E+03
 0.82599998E+02  0.90385E+03
 0.82649994E+02  0.95729E+03
 0.82699997E+02  0.10462E+04
 0.82749992E+02  0.92186E+03
 0.82799995E+02  0.72300E+03
 0.82849998E+02  0.54865E+03
 0.82899994E+02  0.71143E+03
 0.82949997E+02  0.71481E+03
 0.82999992E+02  0.10976E+04
 0.83049995E+02  0.12943E+04
 0.83099998E+02  0.16261E+04
 0.83149994E+02  0.19911E+04
 0.83199997E+02  0.21514E+04
 0.83249992E+02  0.22072E+04
 0.83299995E+02  0.22670E+04
 0.83349998E+02  0.24514E+04
 0.83399994E+02  0.22140E+04
 0.83449997E+02  0.20743E+04
 0.83499992E+02  0.18439E+04
 0.83549995E+02  0.18603E+04
 0.83599998E+02  0.16135E+04
 0.83649994E+02  0.12588E+04
 0.83699997E+02  0.96596E+03
 0.83749992E+02  0.66500E+03
 0.83799995E+02  0.80467E+03
 0.83849998E+02  0.86792E+03
 0.83899994E+02  0.10057E+04
 0.83949997E+02  0.99895E+03
 0.83999992E+02  0.11407E+04
 0.84049995E+02  0.13734E+04
 0.84099998E+02  0.15075E+04
 0.84149994E+02  0.17416E+04
 0.84199997E+02  0.19289E+04
 0.84249992E+02  0.20662E+04
 0.84299995E+02  0.19184E+04
 0.84349998E+02  0.18340E+04
 0.84399994E+02  0.18401E+04
 0.84449997E+02  0.16431E+04
 0.84499992E+02  0.14435E+04
 0.84549995E+02  0.13689E+04
 0.84599998E+02  0.12191E+04
 0.84649994E+02  0.10684E+04
 0.84699997E+02  0.10520E+04
 0.84749992E+02  0.82196E+03
 0.84799995E+02  0.65096E+03
 0.84849998E+02  0.63916E+03
 0.84899994E+02  0.79953E+03
 0.84949997E+02  0.10992E+04
 0.84999992E+02  0.13015E+04
 0.85049995E+02  0.14632E+04
 0.85099998E+02  0.15153E+04
 0.85149994E+02  0.17064E+04
 0.85199997E+02  0.18955E+04
 0.85249992E+02  0.19380E+04
 0.85299995E+02  0.19756E+04
 0.85349998E+02  0.19026E+04
 0.85399994E+02  0.19219E+04
 0.85449997E+02  0.20354E+04
 0.85499992E+02  0.19981E+04
 0.85549995E+02  0.17534E+04
 0.85599998E+02  0.15227E+04
 0.85649994E+02  0.14520E+04
 0.85699997E+02  0.12344E+04
 0.85749992E+02  0.11773E+04
 0.85799995E+02  0.12766E+04
 0.85849998E+02  0.12801E+04
 0.85899994E+02  0.13424E+04
 0.85949997E+02  0.13440E+04
 0.85999992E+02  0.12851E+04
 0.86049995E+02  0.13706E+04
 0.86099998E+02  0.12745E+04
 0.86149994E+02  0.85674E+03
 0.86199997E+02  0.72477E+03
 0.86249992E+02  0.76491E+03
 0.86299995E+02  0.66166E+03
 0.86349998E+02  0.71214E+03
 0.86399994E+02  0.96111E+03
 0.86449997E+02  0.10107E+04
 0.86499992E+02  0.12064E+04
 0.86549995E+02  0.14648E+04
 0.86599998E+02  0.13594E+04
 0.86649994E+02  0.13543E+04
 0.86699997E+02  0.16584E+04
 0.86749992E+02  0.19653E+04
 0.86799995E+02  0.19247E+04
 0.86849998E+02  0.17805E+04
 0.86899994E+02  0.15297E+04
 0.86949997E+02  0.15335E+04
 0.86999992E+02  0.14921E+04
 0.87049995E+02  0.12191E+04
 0.87099998E+02  0.12497E+04
 0.87149994E+02  0.15793E+04
 0.87199997E+02  0.16416E+04
 0.87249992E+02  0.15574E+04
 0.87299995E+02  0.16949E+04
 0.87349998E+02  0.16053E+04
 0.87399994E+02  0.16108E+04
 0.87449997E+02  0.13973E+04
 0.87499992E+02  0.13788E+04
 0.87549995E+02  0.13305E+04
 0.87599991E+02  0.11300E+04
 0.87649994E+02  0.12814E+04
 0.87699997E+02  0.14799E+04
 0.87749992E+02  0.15817E+04
 0.87799995E+02  0.15066E+04
 0.87849991E+02  0.14443E+04
 0.87899994E+02  0.14537E+04
 0.87949997E+02  0.17350E+04
 0.87999992E+02  0.18333E+04
 0.88049995E+02  0.17440E+04
 0.88099991E+02  0.16248E+04
 0.88149994E+02  0.15224E+04
 0.88199997E+02  0.15954E+04
 0.88249992E+02  0.17807E+04
 0.88299995E+02  0.17290E+04
 0.88349991E+02  0.15812E+04
 0.88399994E+02  0.15015E+04
 0.88449997E+02  0.13592E+04
 0.88499992E+02  0.15110E+04
 0.88549995E+02  0.14776E+04
 0.88599991E+02  0.13809E+04
 0.88649994E+02  0.12784E+04
 0.88699997E+02  0.13218E+04
 0.88749992E+02  0.14304E+04
 0.88799995E+02  0.14384E+04
 0.88849991E+02  0.14042E+04
 0.88899994E+02  0.13196E+04
 0.88949997E+02  0.12926E+04
 0.88999992E+02  0.11119E+04
 0.89049995E+02  0.10307E+04
 0.89099991E+02  0.94465E+03
 0.89149994E+02  0.93160E+03
 0.89199997E+02  0.10383E+04
 0.89249992E+02  0.11966E+04
 0.89299995E+02  0.12459E+04
 0.89349991E+02  0.12361E+04
 0.89399994E+02  0.13330E+04
 0.89449997E+02  0.14364E+04
 0.89499992E+02  0.13991E+04
 0.89549995E+02  0.12193E+04
 0.89599991E+02  0.11236E+04
 0.89649994E+02  0.10656E+04
 0.89699997E+02  0.11616E+04
 0.89749992E+02  0.12483E+04
 0.89799995E+02  0.12523E+04
 0.89849991E+02  0.11308E+04
 0.89899994E+02  0.11064E+04
 0.89949997E+02  0.11571E+04
 0.89999992E+02  0.11474E+04
 0.90049995E+02  0.12441E+04
 0.90099991E+02  0.12405E+04
 0.90149994E+02  0.12644E+04
 0.90199997E+02  0.12215E+04
 0.90249992E+02  0.12913E+04
 0.90299995E+02  0.13378E+04
 0.90349991E+02  0.12675E+04
 0.90399994E+02  0.12604E+04
 0.90449997E+02  0.14635E+04
 0.90499992E+02  0.17632E+04
 0.90549995E+02  0.18928E+04
 0.90599991E+02  0.20305E+04
 0.90649994E+02  0.21184E+04
 0.90699997E+02  0.21545E+04
 0.90749992E+02  0.20572E+04
 0.90799995E+02  0.20513E+04
 0.90849991E+02  0.20787E+04
 0.90899994E+02  0.20226E+04
 0.90949997E+02  0.21647E+04
 0.90999992E+02  0.21588E+04
 0.91049995E+02  0.20261E+04
 0.91099991E+02  0.19680E+04
 0.91149994E+02  0.16823E+04
 0.91199997E+02  0.14141E+04
 0.91249992E+02  0.12710E+04
 0.91299995E+02  0.11140E+04
 0.91349991E+02  0.11017E+04
 0.91399994E+02  0.97264E+03
 0.91449997E+02  0.94476E+03
 0.91499992E+02  0.94667E+03
 0.91549995E+02  0.63674E+03
 0.91599991E+02  0.42788E+03
 0.91649994E+02  0.20355E+03
 0.91699997E+02  0.11636E+03
 0.91749992E+02  0.27047E+03
 0.91799995E+02  0.28479E+03
 0.91849991E+02  0.38366E+03
 0.91899994E+02  0.68197E+03
 0.91949997E+02  0.10244E+04
 0.91999992E+02  0.13659E+04
 0.92049995E+02  0.17110E+04
 0.92099991E+02  0.19811E+04
 0.92149994E+02  0.21302E+04
 0.92199997E+02  0.23388E+04
 0.92249992E+02  0.24599E+04
 0.92299995E+02  0.24329E+04
 0.92349991E+02  0.25381E+04
 0.92399994E+02  0.25472E+04
 0.92449997E+02  0.24656E+04
 0.92499992E+02  0.22392E+04
 0.92549995E+02  0.21361E+04
 0.92599991E+02  0.21466E+04
 0.92649994E+02  0.20777E+04
 0.92699997E+02  0.20720E+04
 0.92749992E+02  0.20763E+04
 0.92799995E+02  0.18945E+04
 0.92849991E+02  0.15183E+04
 0.92899994E+02  0.11527E+04
 0.92949997E+02  0.87350E+03
 0.92999992E+02  0.68824E+03
 0.93049995E+02  0.56332E+03
 0.93099991E+02  0.57880E+03
 0.93149994E+02  0.68624E+03
 0.93199997E+02  0.89877E+03
 0.93249992E+02  0.10225E+04
 0.93299995E+02  0.11161E+04
 0.93349991E+02  0.99242E+03
 0.93399994E+02  0.10348E+04
 0.93449997E+02  0.94697E+03
 0.93499992E+02  0.76082E+03
 0.93549995E+02  0.10291E+04
 0.93599991E+02  0.12716E+04
 0.93649994E+02  0.13342E+04
 0.93699997E+02  0.12186E+04
 0.93749992E+02  0.11758E+04
 0.93799995E+02  0.10700E+04
 0.93849991E+02  0.10395E+04
 0.93899994E+02  0.11069E+04
 0.93949997E+02  0.10986E+04
 0.93999992E+02  0.12044E+04
 0.94049995E+02  0.13388E+04
 0.94099991E+02  0.14754E+04
 0.94149994E+02  0.16376E+04
 0.94199997E+02  0.16923E+04
 0.94249992E+02  0.15763E+04
 0.94299995E+02  0.14059E+04
 0.94349991E+02  0.10532E+04
 0.94399994E+02  0.10088E+04
 0.94449997E+02  0.11782E+04
 0.94499992E+02  0.10455E+04
 0.94549995E+02  0.98756E+03
 0.94599991E+02  0.11736E+04
 0.94649994E+02  0.13385E+04
 0.94699997E+02  0.15906E+04
 0.94749992E+02  0.17489E+04
 0.94799995E+02  0.19165E+04
 0.94849991E+02  0.21560E+04
 0.94899994E+02  0.22442E+04
 0.94949997E+02  0.22088E+04
 0.94999992E+02  0.21213E+04
 0.95049995E+02  0.22790E+04
 0.95099991E+02  0.21781E+04
 0.95149994E+02  0.20307E+04
 0.95199997E+02  0.19785E+04
 0.95249992E+02  0.16504E+04
 0.95299995E+02  0.14717E+04
 0.95349991E+02  0.14324E+04
 0.95399994E+02  0.12529E+04
 0.95449997E+02  0.13199E+04
 0.95499992E+02  0.13260E+04
 0.95549995E+02  0.11536E+04
 0.95599991E+02  0.12974E+04
 0.95649994E+02  0.12128E+04
 0.95699997E+02  0.98690E+03
 0.95749992E+02  0.11919E+04
 0.95799995E+02  0.12773E+04
 0.95849991E+02  0.11503E+04
 0.95899994E+02  0.10627E+04
 0.95949997E+02  0.11093E+04
 0.95999992E+02  0.11901E+04
 0.96049995E+02  0.12735E+04
 0.96099991E+02  0.12154E+04
 0.96149994E+02  0.11062E+04
 0.96199997E+02  0.12185E+04
 0.96249992E+02  0.11000E+04
 0.96299995E+02  0.10433E+04
 0.96349991E+02  0.11203E+04
 0.96399994E+02  0.11038E+04
 0.96449997E+02  0.10865E+04
 0.96499992E+02  0.12177E+04
 0.96549995E+02  0.15009E+04
 0.96599991E+02  0.16902E+04
 0.96649994E+02  0.18127E+04
 0.96699997E+02  0.19911E+04
 0.96749992E+02  0.19485E+04
 0.96799995E+02  0.18379E+04
 0.96849991E+02  0.17754E+04
 0.96899994E+02  0.18033E+04
 0.96949997E+02  0.19231E+04
 0.96999992E+02  0.17223E+04
 0.97049995E+02  0.18240E+04
 0.97099991E+02  0.18875E+04
 0.97149994E+02  0.16625E+04
 0.97199997E+02  0.16987E+04
 0.97249992E+02  0.15554E+04
 0.97299995E+02  0.14541E+04
 0.97349991E+02  0.13909E+04
 0.97399994E+02  0.13846E+04
 0.97449997E+02  0.15406E+04
 0.97499992E+02  0.15338E+04
 0.97549995E+02  0.15019E+04
 0.97599991E+02  0.12395E+04
 0.97649994E+02  0.11048E+04
 0.97699997E+02  0.81191E+03
 0.97749992E+02  0.56332E+03
 0.97799995E+02  0.60252E+03
 0.97849991E+02  0.69401E+03
 0.97899994E+02  0.98620E+03
 0.97949997E+02  0.11799E+04
 0.97999992E+02  0.12327E+04
