-0.19969940E+01  0.10070E+05
-0.19469941E+01  0.97237E+04
-0.18969940E+01  0.97183E+04
-0.18469940E+01  0.97763E+04
-0.17969940E+01  0.99965E+04
-0.17469940E+01  0.10101E+05
-0.16969941E+01  0.98347E+04
-0.16469941E+01  0.96493E+04
-0.15969940E+01  0.96423E+04
-0.15469940E+01  0.97491E+04
-0.14969940E+01  0.10006E+05
-0.14469941E+01  0.10008E+05
-0.13969941E+01  0.96653E+04
-0.13469940E+01  0.95440E+04
-0.12969941E+01  0.96367E+04
-0.12469940E+01  0.97812E+04
-0.11969941E+01  0.10038E+05
-0.11469941E+01  0.99260E+04
-0.10969940E+01  0.96827E+04
-0.10469941E+01  0.96741E+04
-0.99699408E+00  0.98709E+04
-0.94699407E+00  0.10028E+05
-0.89699411E+00  0.10109E+05
-0.84699404E+00  0.99015E+04
-0.79699409E+00  0.97354E+04
-0.74699414E+00  0.98433E+04
-0.69699407E+00  0.99297E+04
-0.64699411E+00  0.10166E+05
-0.59699416E+00  0.10060E+05
-0.54699409E+00  0.97851E+04
-0.49699414E+00  0.97028E+04
-0.44699407E+00  0.98644E+04
-0.39699411E+00  0.10024E+05
-0.34699416E+00  0.10157E+05
-0.29699409E+00  0.99796E+04
-0.24699414E+00  0.97508E+04
-0.19699407E+00  0.98367E+04
-0.14699411E+00  0.98512E+04
-0.96994162E-01  0.10140E+05
-0.46994090E-01  0.10109E+05
 0.30058622E-02  0.98467E+04
 0.53005934E-01  0.97307E+04
 0.10300589E+00  0.98681E+04
 0.15300584E+00  0.99962E+04
 0.20300579E+00  0.10185E+05
 0.25300574E+00  0.10097E+05
 0.30300593E+00  0.97527E+04
 0.35300589E+00  0.97989E+04
 0.40300584E+00  0.99393E+04
 0.45300579E+00  0.10150E+05
 0.50300574E+00  0.10007E+05
 0.55300593E+00  0.98536E+04
 0.60300589E+00  0.96900E+04
 0.65300584E+00  0.97449E+04
 0.70300579E+00  0.98496E+04
 0.75300574E+00  0.99163E+04
 0.80300570E+00  0.98596E+04
 0.85300589E+00  0.95958E+04
 0.90300584E+00  0.95845E+04
 0.95300579E+00  0.97265E+04
 0.10030057E+01  0.98625E+04
 0.10530057E+01  0.99209E+04
 0.11030059E+01  0.97004E+04
 0.11530058E+01  0.95575E+04
 0.12030058E+01  0.97006E+04
 0.12530057E+01  0.98075E+04
 0.13030057E+01  0.99651E+04
 0.13530059E+01  0.99455E+04
 0.14030058E+01  0.96717E+04
 0.14530058E+01  0.96317E+04
 0.15030057E+01  0.98034E+04
 0.15530057E+01  0.99843E+04
 0.16030059E+01  0.10068E+05
 0.16530058E+01  0.98911E+04
 0.17030058E+01  0.96842E+04
 0.17530057E+01  0.97366E+04
 0.18030057E+01  0.99047E+04
 0.18530056E+01  0.10027E+05
 0.19030058E+01  0.99959E+04
 0.19530058E+01  0.97772E+04
 0.20030057E+01  0.96712E+04
 0.20530057E+01  0.97710E+04
 0.21030059E+01  0.99935E+04
 0.21530056E+01  0.10077E+05
 0.22030058E+01  0.98112E+04
 0.22530055E+01  0.96139E+04
 0.23030057E+01  0.96493E+04
 0.23530059E+01  0.97939E+04
 0.24030056E+01  0.10076E+05
 0.24530058E+01  0.99977E+04
 0.25030055E+01  0.97425E+04
 0.25530057E+01  0.97086E+04
 0.26030059E+01  0.98491E+04
 0.26530056E+01  0.10005E+05
 0.27030058E+01  0.10102E+05
 0.27530055E+01  0.99471E+04
 0.28030057E+01  0.97596E+04
 0.28530059E+01  0.98289E+04
 0.29030056E+01  0.10057E+05
 0.29530058E+01  0.10257E+05
 0.30030055E+01  0.10174E+05
 0.30530057E+01  0.98949E+04
 0.31030059E+01  0.98152E+04
 0.31530056E+01  0.99048E+04
 0.32030058E+01  0.10056E+05
 0.32530055E+01  0.10214E+05
 0.33030057E+01  0.99963E+04
 0.33530059E+01  0.98071E+04
 0.34030056E+01  0.98373E+04
 0.34530058E+01  0.10038E+05
 0.35030055E+01  0.10233E+05
 0.35530057E+01  0.10118E+05
 0.36030054E+01  0.98695E+04
 0.36530056E+01  0.97831E+04
 0.37030058E+01  0.98770E+04
 0.37530055E+01  0.10009E+05
 0.38030057E+01  0.10139E+05
 0.38530054E+01  0.99184E+04
 0.39030056E+01  0.97253E+04
 0.39530058E+01  0.97209E+04
 0.40030055E+01  0.98287E+04
 0.40530057E+01  0.99894E+04
 0.41030054E+01  0.99957E+04
 0.41530056E+01  0.96779E+04
 0.42030058E+01  0.95996E+04
 0.42530055E+01  0.97677E+04
 0.43030057E+01  0.98783E+04
 0.43530054E+01  0.10107E+05
 0.44030056E+01  0.98345E+04
 0.44530058E+01  0.96302E+04
 0.45030055E+01  0.96514E+04
 0.45530057E+01  0.96880E+04
 0.46030054E+01  0.99454E+04
 0.46530056E+01  0.98544E+04
 0.47030058E+01  0.94905E+04
 0.47530055E+01  0.96433E+04
 0.48030057E+01  0.94480E+04
 0.48530054E+01  0.99411E+04
 0.49030056E+01  0.98490E+04
 0.49530058E+01  0.10181E+05
 0.50030055E+01  0.89948E+04
 0.50530057E+01  0.97074E+04
 0.51030054E+01  0.94943E+04
 0.51530056E+01  0.57331E+04
 0.52030058E+01  0.14293E+05
 0.52530055E+01  0.72056E+04
 0.53030057E+01  0.10355E+05
 0.53530054E+01  0.17019E+05
 0.54030056E+01 -0.19832E+02
 0.54530053E+01  0.18273E+05
 0.55030055E+01  0.56977E+04
 0.55530057E+01  0.77165E+04
 0.56030054E+01  0.23860E+05
 0.56530056E+01 -0.26005E+04
 0.57030053E+01  0.22191E+05
 0.57530055E+01  0.63274E+04
 0.58030057E+01 -0.33941E+04
 0.58530054E+01  0.24611E+05
 0.59030056E+01 -0.38739E+04
 0.59530053E+01  0.17974E+05
 0.60030055E+01  0.22359E+05
 0.60530052E+01 -0.37760E+03
 0.61030054E+01  0.15413E+05
 0.61530056E+01  0.10188E+05
 0.62030058E+01  0.36159E+04
 0.62530050E+01  0.19590E+05
 0.63030052E+01 -0.75118E+04
 0.63530054E+01  0.10859E+05
 0.64030056E+01  0.27561E+05
 0.64530058E+01 -0.18649E+05
 0.65030050E+01  0.17434E+05
 0.65530052E+01 -0.13029E+05
 0.66030054E+01  0.71895E+04
 0.66530056E+01  0.41935E+05
 0.67030058E+01  0.28770E+04
 0.67530050E+01  0.20017E+05
 0.68030052E+01  0.27442E+05
 0.68530054E+01 -0.23421E+05
 0.69030056E+01  0.26671E+04
 0.69530058E+01  0.65531E+04
 0.70030050E+01  0.28684E+04
 0.70530052E+01  0.55476E+05
 0.71030054E+01 -0.11026E+04
 0.71530056E+01 -0.27094E+05
 0.72030058E+01  0.19751E+05
 0.72530050E+01 -0.17693E+05
 0.73030052E+01  0.30659E+05
 0.73530054E+01  0.27695E+05
 0.74030056E+01 -0.30423E+05
 0.74530058E+01  0.40557E+05
 0.75030050E+01 -0.26943E+05
 0.75530052E+01  0.73790E+05
 0.76030054E+01 -0.12279E+05
 0.76530056E+01 -0.33627E+05
 0.77030058E+01  0.27802E+05
 0.77530050E+01  0.35935E+05
 0.78030052E+01 -0.56886E+03
 0.78530054E+01 -0.77952E+05
 0.79030056E+01  0.53290E+05
 0.79530058E+01  0.13283E+06
 0.80030050E+01  0.62263E+05
 0.80530052E+01 -0.42057E+05
 0.81030054E+01  0.27806E+05
 0.81530056E+01 -0.51635E+05
 0.82030058E+01  0.20948E+05
 0.82530050E+01  0.49794E+05
 0.83030052E+01 -0.13020E+06
 0.83530054E+01 -0.13237E+06
 0.84030056E+01  0.21082E+06
 0.84530058E+01  0.66106E+05
 0.85030050E+01 -0.17565E+06
 0.85530052E+01 -0.18002E+06
 0.86030054E+01  0.11053E+06
 0.86530056E+01  0.21707E+06
 0.87030058E+01 -0.12831E+06
 0.87530050E+01  0.12523E+06
 0.88030052E+01  0.61965E+05
 0.88530054E+01  0.70386E+05
 0.89030056E+01 -0.21923E+04
 0.89530058E+01 -0.24291E+06
 0.90030050E+01  0.59317E+05
 0.90530052E+01  0.22243E+06
 0.91030054E+01 -0.18391E+05
 0.91530056E+01  0.30399E+05
 0.92030048E+01  0.14118E+06
 0.92530050E+01 -0.13368E+06
 0.93030052E+01  0.42648E+05
 0.93530054E+01  0.15980E+06
 0.94030056E+01  0.84912E+05
 0.94530048E+01  0.14331E+05
 0.95030050E+01  0.35522E+05
 0.95530052E+01 -0.89859E+05
 0.96030054E+01 -0.27783E+06
 0.96530056E+01 -0.22396E+06
 0.97030048E+01  0.25804E+05
 0.97530050E+01  0.19051E+05
 0.98030052E+01  0.13408E+06
 0.98530054E+01  0.21515E+06
 0.99030056E+01 -0.24300E+06
 0.99530048E+01  0.18607E+06
 0.10003005E+02  0.12497E+06
 0.10053005E+02  0.17037E+06
 0.10103005E+02  0.19412E+06
 0.10153006E+02  0.72631E+05
 0.10203005E+02  0.25120E+06
 0.10253005E+02  0.52665E+05
 0.10303005E+02 -0.73910E+05
 0.10353005E+02 -0.29408E+06
 0.10403006E+02 -0.32106E+05
 0.10453005E+02 -0.17614E+06
 0.10503005E+02 -0.47179E+06
 0.10553005E+02 -0.44378E+06
 0.10603005E+02 -0.27276E+06
 0.10653006E+02 -0.10841E+06
 0.10703005E+02  0.81560E+03
 0.10753005E+02  0.43417E+06
 0.10803005E+02  0.67782E+06
 0.10853005E+02  0.48494E+06
 0.10903006E+02  0.26768E+06
 0.10953005E+02 -0.47248E+05
 0.11003005E+02 -0.12547E+06
 0.11053005E+02  0.16360E+06
 0.11103005E+02  0.97435E+05
 0.11153006E+02 -0.11363E+06
 0.11203005E+02 -0.29148E+06
 0.11253005E+02 -0.45992E+06
 0.11303005E+02 -0.38771E+06
 0.11353005E+02 -0.34322E+05
 0.11403006E+02 -0.34100E+05
 0.11453005E+02 -0.21471E+05
 0.11503005E+02 -0.26089E+05
 0.11553005E+02  0.21128E+06
 0.11603005E+02  0.44441E+06
 0.11653006E+02  0.24245E+06
 0.11703005E+02  0.25871E+06
 0.11753005E+02  0.17639E+06
 0.11803005E+02  0.17094E+06
 0.11853005E+02  0.89444E+04
 0.11903006E+02 -0.32004E+06
 0.11953005E+02 -0.35482E+06
 0.12003005E+02 -0.14436E+06
 0.12053005E+02 -0.37239E+05
 0.12103005E+02 -0.67695E+05
 0.12153006E+02  0.33818E+05
 0.12203005E+02  0.31332E+05
 0.12253005E+02 -0.40985E+05
 0.12303005E+02 -0.71186E+05
 0.12353005E+02 -0.59849E+05
 0.12403006E+02  0.54186E+05
 0.12453005E+02  0.20845E+06
 0.12503005E+02  0.41448E+06
 0.12553005E+02  0.36533E+06
 0.12603005E+02  0.10754E+06
 0.12653005E+02 -0.14628E+06
 0.12703005E+02 -0.24747E+06
 0.12753005E+02 -0.19537E+06
 0.12803005E+02 -0.11198E+06
 0.12853005E+02  0.11200E+06
 0.12903005E+02  0.12704E+05
 0.12953005E+02 -0.12696E+06
 0.13003005E+02 -0.20225E+06
 0.13053005E+02 -0.12458E+06
 0.13103005E+02  0.74532E+05
 0.13153005E+02  0.10242E+06
 0.13203005E+02  0.20546E+06
 0.13253005E+02  0.12616E+06
 0.13303005E+02  0.10751E+06
 0.13353005E+02  0.10664E+06
 0.13403005E+02  0.10415E+06
 0.13453005E+02  0.31065E+05
 0.13503005E+02 -0.12640E+06
 0.13553005E+02 -0.12335E+06
 0.13603005E+02 -0.74744E+05
 0.13653005E+02 -0.18272E+05
 0.13703005E+02  0.31314E+05
 0.13753005E+02  0.40753E+05
 0.13803005E+02  0.58238E+05
 0.13853005E+02  0.42052E+05
 0.13903005E+02 -0.69456E+05
 0.13953005E+02 -0.12827E+06
 0.14003005E+02 -0.55274E+05
 0.14053005E+02  0.19515E+04
 0.14103004E+02  0.70210E+05
 0.14153006E+02  0.79391E+05
 0.14203005E+02  0.40932E+05
 0.14253004E+02  0.64851E+05
 0.14303005E+02 -0.20132E+05
 0.14353004E+02 -0.36493E+05
 0.14403006E+02 -0.15966E+05
 0.14453005E+02  0.33334E+04
 0.14503004E+02  0.42246E+05
 0.14553005E+02 -0.87527E+03
 0.14603004E+02  0.30859E+05
 0.14653006E+02  0.81862E+05
 0.14703005E+02  0.27279E+05
 0.14753004E+02  0.31591E+05
 0.14803005E+02  0.11650E+06
 0.14853004E+02  0.74928E+04
 0.14903006E+02 -0.90735E+05
 0.14953005E+02 -0.28830E+05
 0.15003004E+02 -0.28591E+05
 0.15053005E+02 -0.36184E+05
 0.15103004E+02 -0.49860E+05
 0.15153006E+02 -0.32885E+05
 0.15203005E+02 -0.30270E+05
 0.15253004E+02  0.41736E+05
 0.15303005E+02  0.12273E+06
 0.15353004E+02  0.10229E+06
 0.15403006E+02  0.68173E+05
 0.15453005E+02 -0.35280E+04
 0.15503004E+02 -0.61279E+05
 0.15553005E+02 -0.30648E+05
 0.15603004E+02  0.36200E+05
 0.15653006E+02 -0.29381E+05
 0.15703005E+02 -0.50840E+05
 0.15753004E+02  0.43499E+03
 0.15803005E+02  0.37167E+05
 0.15853004E+02  0.49720E+05
 0.15903006E+02  0.56281E+05
 0.15953005E+02  0.68185E+05
 0.16003004E+02  0.38527E+05
 0.16053005E+02 -0.15959E+05
 0.16103004E+02 -0.94472E+04
 0.16153006E+02  0.91604E+04
 0.16203005E+02 -0.51171E+05
 0.16253004E+02 -0.46527E+05
 0.16303005E+02 -0.11034E+05
 0.16353004E+02  0.59740E+04
 0.16403006E+02  0.17580E+05
 0.16453005E+02  0.37893E+05
 0.16503004E+02  0.63898E+05
 0.16553005E+02  0.38343E+05
 0.16603004E+02 -0.67640E+04
 0.16653006E+02 -0.94390E+04
 0.16703005E+02  0.35029E+05
 0.16753004E+02 -0.62537E+04
 0.16803005E+02 -0.11285E+05
 0.16853004E+02  0.43889E+05
 0.16903006E+02  0.93253E+03
 0.16953005E+02 -0.35643E+05
 0.17003004E+02 -0.15999E+05
 0.17053005E+02  0.31974E+05
 0.17103004E+02  0.50183E+05
 0.17153006E+02  0.60309E+05
 0.17203005E+02  0.44295E+05
 0.17253004E+02  0.16956E+05
 0.17303005E+02 -0.54346E+04
 0.17353004E+02 -0.61610E+05
 0.17403006E+02 -0.61362E+05
 0.17453005E+02 -0.17441E+05
 0.17503004E+02 -0.47960E+04
 0.17553005E+02  0.19335E+05
 0.17603004E+02  0.20008E+05
 0.17653006E+02  0.25939E+05
 0.17703005E+02  0.75705E+05
 0.17753004E+02  0.65778E+05
 0.17803005E+02  0.40902E+05
 0.17853004E+02  0.24033E+05
 0.17903006E+02 -0.53037E+03
 0.17953005E+02 -0.40252E+04
 0.18003004E+02 -0.17141E+05
 0.18053005E+02 -0.25386E+05
 0.18103004E+02 -0.18580E+05
 0.18153006E+02 -0.44319E+05
 0.18203005E+02 -0.51679E+05
 0.18253004E+02 -0.26139E+05
 0.18303005E+02  0.20604E+05
 0.18353004E+02  0.66945E+05
 0.18403006E+02  0.95225E+05
 0.18453005E+02  0.95085E+05
 0.18503004E+02  0.51998E+05
 0.18553005E+02  0.27630E+03
 0.18603004E+02 -0.37642E+05
 0.18653006E+02 -0.45688E+05
 0.18703005E+02 -0.45371E+05
 0.18753004E+02 -0.33425E+05
 0.18803005E+02 -0.13207E+05
 0.18853004E+02  0.25749E+05
 0.18903006E+02  0.29639E+05
 0.18953005E+02  0.72243E+04
 0.19003004E+02  0.79980E+04
 0.19053005E+02  0.15899E+05
 0.19103004E+02  0.30494E+05
 0.19153006E+02  0.27833E+05
 0.19203005E+02  0.71533E+04
 0.19253004E+02 -0.42283E+04
 0.19303005E+02  0.35340E+05
 0.19353004E+02  0.57049E+05
 0.19403006E+02  0.43152E+05
 0.19453005E+02  0.25712E+05
 0.19503004E+02  0.13886E+05
 0.19553005E+02  0.41670E+05
 0.19603004E+02  0.38955E+05
 0.19653006E+02 -0.40202E+04
 0.19703005E+02 -0.31328E+05
 0.19753004E+02 -0.24562E+05
 0.19803005E+02 -0.54231E+05
 0.19853004E+02 -0.54637E+05
 0.19903006E+02 -0.79686E+04
 0.19953005E+02  0.36925E+05
 0.20003004E+02  0.47971E+05
 0.20053005E+02  0.36177E+05
 0.20103004E+02  0.48443E+05
 0.20153006E+02  0.35247E+05
 0.20203005E+02  0.30030E+05
 0.20253004E+02  0.73002E+04
 0.20303005E+02 -0.46878E+04
 0.20353004E+02 -0.24156E+05
 0.20403004E+02 -0.50491E+05
 0.20453005E+02 -0.35731E+05
 0.20503004E+02  0.10209E+05
 0.20553005E+02  0.25958E+05
 0.20603004E+02  0.15833E+05
 0.20653004E+02  0.22286E+05
 0.20703005E+02  0.32233E+05
 0.20753004E+02  0.19162E+05
 0.20803005E+02  0.15486E+05
 0.20853004E+02  0.23825E+05
 0.20903004E+02  0.13136E+05
 0.20953005E+02  0.21476E+05
 0.21003004E+02  0.23782E+04
 0.21053005E+02 -0.65258E+04
 0.21103004E+02  0.90041E+04
 0.21153004E+02  0.27836E+05
 0.21203005E+02  0.17263E+05
 0.21253004E+02  0.11992E+05
 0.21303005E+02  0.14685E+05
 0.21353004E+02 -0.10932E+05
 0.21403004E+02 -0.28128E+05
 0.21453005E+02 -0.23925E+05
 0.21503004E+02 -0.27442E+05
 0.21553005E+02 -0.21487E+05
 0.21603004E+02  0.28531E+05
 0.21653004E+02  0.52667E+05
 0.21703005E+02  0.53993E+05
 0.21753004E+02  0.45139E+05
 0.21803005E+02  0.33207E+05
 0.21853004E+02  0.29698E+05
 0.21903004E+02  0.20848E+05
 0.21953005E+02 -0.56734E+04
 0.22003004E+02 -0.21106E+05
 0.22053005E+02 -0.19705E+05
 0.22103004E+02 -0.18562E+05
 0.22153004E+02 -0.92878E+04
 0.22203005E+02 -0.15955E+04
 0.22253004E+02  0.60737E+04
 0.22303005E+02  0.25868E+05
 0.22353004E+02  0.42516E+05
 0.22403004E+02  0.46251E+05
 0.22453005E+02  0.38362E+05
 0.22503004E+02  0.58450E+04
 0.22553005E+02 -0.26334E+05
 0.22603004E+02 -0.28953E+05
 0.22653004E+02 -0.23067E+05
 0.22703005E+02 -0.14874E+04
 0.22753004E+02  0.25018E+05
 0.22803005E+02  0.26508E+05
 0.22853004E+02  0.22760E+05
 0.22903004E+02  0.26754E+05
 0.22953005E+02  0.21903E+05
 0.23003004E+02  0.11376E+05
 0.23053005E+02  0.10394E+05
 0.23103004E+02  0.66583E+04
 0.23153004E+02  0.13980E+05
 0.23203005E+02  0.12577E+05
 0.23253004E+02  0.16722E+05
 0.23303005E+02  0.13221E+05
 0.23353004E+02  0.12943E+05
 0.23403004E+02  0.17216E+05
 0.23453005E+02  0.97698E+04
 0.23503004E+02 -0.57734E+04
 0.23553005E+02 -0.12387E+05
 0.23603004E+02  0.15577E+05
 0.23653004E+02  0.24442E+05
 0.23703005E+02  0.33608E+05
 0.23753004E+02  0.26279E+05
 0.23803005E+02 -0.37733E+04
 0.23853004E+02 -0.89455E+04
 0.23903004E+02 -0.13700E+05
 0.23953005E+02 -0.42878E+05
 0.24003004E+02 -0.24009E+05
 0.24053005E+02  0.14591E+05
 0.24103004E+02  0.42894E+05
 0.24153004E+02  0.39937E+05
 0.24203005E+02  0.14695E+05
 0.24253004E+02  0.15789E+05
 0.24303005E+02  0.17532E+04
 0.24353004E+02  0.42805E+04
 0.24403004E+02  0.14822E+05
 0.24453005E+02  0.22061E+05
 0.24503004E+02  0.12442E+05
 0.24553005E+02 -0.39289E+04
 0.24603004E+02  0.78157E+03
 0.24653004E+02  0.84026E+04
 0.24703005E+02  0.86284E+04
 0.24753004E+02  0.58471E+04
 0.24803005E+02  0.67465E+04
 0.24853004E+02  0.10627E+05
 0.24903004E+02  0.63221E+04
 0.24953005E+02 -0.41564E+04
 0.25003004E+02 -0.44795E+04
 0.25053005E+02  0.17325E+05
 0.25103004E+02  0.42596E+05
 0.25153004E+02  0.43279E+05
 0.25203005E+02  0.30842E+05
 0.25253004E+02  0.16638E+05
 0.25303005E+02  0.27425E+04
 0.25353004E+02 -0.79263E+04
 0.25403004E+02 -0.71176E+04
 0.25453005E+02  0.34026E+03
 0.25503004E+02  0.10091E+05
 0.25553005E+02  0.23284E+05
 0.25603004E+02  0.17079E+05
 0.25653004E+02 -0.93430E+04
 0.25703005E+02 -0.10351E+05
 0.25753004E+02  0.21907E+04
 0.25803005E+02  0.24944E+05
 0.25853004E+02  0.43016E+05
 0.25903004E+02  0.24730E+05
 0.25953005E+02  0.10288E+05
 0.26003004E+02  0.62018E+04
 0.26053005E+02  0.10974E+05
 0.26103004E+02  0.16721E+05
 0.26153004E+02  0.83471E+04
 0.26203005E+02  0.85877E+04
 0.26253004E+02  0.16507E+05
 0.26303005E+02  0.15515E+05
 0.26353004E+02  0.13411E+05
 0.26403004E+02  0.11370E+05
 0.26453005E+02 -0.29552E+04
 0.26503004E+02 -0.11444E+05
 0.26553005E+02 -0.21365E+05
 0.26603004E+02 -0.20827E+05
 0.26653004E+02 -0.37005E+04
 0.26703005E+02  0.60092E+04
 0.26753004E+02  0.19208E+05
 0.26803005E+02  0.24562E+05
 0.26853004E+02  0.10739E+05
 0.26903004E+02  0.74492E+04
 0.26953005E+02  0.13306E+05
 0.27003004E+02  0.11473E+04
 0.27053003E+02 -0.35080E+04
 0.27103004E+02  0.54558E+04
 0.27153004E+02  0.38133E+04
 0.27203005E+02  0.24392E+04
 0.27253004E+02  0.12783E+05
 0.27303003E+02  0.17041E+05
 0.27353004E+02  0.23757E+05
 0.27403004E+02  0.30493E+05
 0.27453005E+02  0.15389E+05
 0.27503004E+02  0.13014E+05
 0.27553003E+02  0.14653E+05
 0.27603004E+02 -0.43945E+03
 0.27653004E+02  0.48897E+04
 0.27703005E+02  0.14690E+05
 0.27753004E+02  0.15417E+05
 0.27803003E+02  0.23718E+05
 0.27853004E+02  0.25992E+05
 0.27903004E+02  0.16218E+05
 0.27953005E+02  0.20864E+05
 0.28003004E+02  0.25950E+05
 0.28053003E+02  0.21960E+05
 0.28103004E+02  0.13837E+05
 0.28153004E+02 -0.45108E+04
 0.28203005E+02 -0.77272E+04
 0.28253004E+02 -0.14537E+05
 0.28303003E+02 -0.10381E+05
 0.28353004E+02  0.10613E+05
 0.28403004E+02  0.19283E+05
 0.28453005E+02  0.23481E+05
 0.28503004E+02  0.18299E+05
 0.28553003E+02  0.42973E+04
 0.28603004E+02 -0.99001E+04
 0.28653004E+02 -0.17786E+05
 0.28703005E+02 -0.16936E+05
 0.28753004E+02 -0.44657E+04
 0.28803003E+02  0.65260E+04
 0.28853004E+02  0.17006E+05
 0.28903004E+02  0.14171E+05
 0.28953005E+02  0.17822E+05
 0.29003004E+02  0.24201E+05
 0.29053003E+02  0.12170E+05
 0.29103004E+02  0.19026E+05
 0.29153004E+02  0.25828E+05
 0.29203005E+02  0.19310E+05
 0.29253004E+02  0.94952E+04
 0.29303003E+02  0.32762E+04
 0.29353004E+02  0.72730E+04
 0.29403004E+02  0.96029E+04
 0.29453005E+02  0.10506E+05
 0.29503004E+02  0.85094E+04
 0.29553003E+02  0.70610E+04
 0.29603004E+02  0.13340E+05
 0.29653004E+02  0.12071E+05
 0.29703005E+02  0.25675E+05
 0.29753004E+02  0.30453E+05
 0.29803003E+02  0.16528E+05
 0.29853004E+02  0.55512E+04
 0.29903004E+02 -0.19070E+04
 0.29953005E+02  0.11318E+03
 0.30003004E+02 -0.22913E+04
 0.30053005E+02 -0.39233E+04
 0.30103004E+02 -0.26531E+04
 0.30153004E+02  0.33647E+04
 0.30203003E+02  0.22940E+04
 0.30253002E+02  0.66188E+04
 0.30303005E+02  0.19797E+05
 0.30353004E+02  0.15926E+05
 0.30403004E+02  0.11437E+05
 0.30453003E+02  0.10038E+05
 0.30503002E+02  0.28158E+04
 0.30553005E+02  0.35870E+04
 0.30603004E+02  0.99657E+04
 0.30653004E+02  0.14388E+05
 0.30703003E+02  0.14868E+05
 0.30753002E+02  0.14981E+05
 0.30803005E+02  0.15957E+05
 0.30853004E+02  0.86367E+04
 0.30903004E+02  0.42419E+04
 0.30953003E+02  0.94058E+03
 0.31003002E+02 -0.58139E+03
 0.31053005E+02  0.25495E+04
 0.31103004E+02  0.79510E+04
 0.31153004E+02  0.13454E+05
 0.31203003E+02  0.15756E+05
 0.31253002E+02  0.16620E+05
 0.31303005E+02  0.17040E+05
 0.31353004E+02  0.23412E+05
 0.31403004E+02  0.24054E+05
 0.31453003E+02  0.27517E+05
 0.31503002E+02  0.26971E+05
 0.31553005E+02  0.15346E+05
 0.31603004E+02  0.80650E+04
 0.31653004E+02 -0.37343E+04
 0.31703003E+02 -0.97229E+04
 0.31753002E+02 -0.77716E+04
 0.31803005E+02 -0.43932E+04
 0.31853004E+02  0.48245E+04
 0.31903004E+02  0.84741E+04
 0.31953003E+02  0.12560E+05
 0.32003002E+02  0.17456E+05
 0.32053005E+02  0.14971E+05
 0.32103004E+02  0.13246E+05
 0.32153004E+02  0.49944E+04
 0.32203003E+02  0.42460E+04
 0.32253002E+02  0.15242E+05
 0.32303005E+02  0.18921E+05
 0.32353004E+02  0.11209E+05
 0.32403004E+02  0.65643E+04
 0.32453003E+02  0.35445E+04
 0.32503002E+02 -0.28977E+04
 0.32553005E+02  0.67637E+04
 0.32603004E+02  0.14099E+05
 0.32653004E+02  0.91599E+04
 0.32703003E+02  0.38684E+04
 0.32753002E+02  0.38959E+04
 0.32803005E+02  0.97590E+04
 0.32853004E+02  0.12723E+05
 0.32903004E+02  0.99572E+04
 0.32953003E+02  0.56706E+04
 0.33003002E+02  0.33326E+04
 0.33053005E+02  0.83525E+04
 0.33103004E+02  0.15694E+05
 0.33153004E+02  0.18678E+05
 0.33203003E+02  0.17372E+05
 0.33253002E+02  0.14566E+05
 0.33303005E+02  0.12731E+05
 0.33353004E+02  0.12197E+05
 0.33403004E+02  0.11381E+05
 0.33453003E+02  0.11335E+05
 0.33503002E+02  0.11375E+05
 0.33553005E+02  0.10131E+05
 0.33603004E+02  0.13157E+05
 0.33653004E+02  0.15275E+05
 0.33703003E+02  0.16324E+05
 0.33753002E+02  0.17992E+05
 0.33803005E+02  0.14742E+05
 0.33853004E+02  0.10566E+05
 0.33903004E+02  0.10643E+05
 0.33953003E+02  0.10983E+05
 0.34003002E+02  0.39944E+04
 0.34053005E+02 -0.53076E+04
 0.34103004E+02 -0.87523E+03
 0.34153004E+02  0.59071E+04
 0.34203003E+02  0.49019E+03
 0.34253002E+02 -0.36270E+04
 0.34303005E+02  0.14626E+04
 0.34353004E+02  0.96420E+04
 0.34403004E+02  0.95856E+04
 0.34453003E+02  0.48766E+04
 0.34503002E+02  0.80359E+04
 0.34553005E+02  0.14691E+05
 0.34603004E+02  0.18127E+05
 0.34653004E+02  0.16057E+05
 0.34703003E+02  0.51667E+04
 0.34753002E+02 -0.25299E+04
 0.34803005E+02  0.37486E+04
 0.34853004E+02  0.75520E+04
 0.34903004E+02  0.58783E+04
 0.34953003E+02  0.69781E+04
 0.35003002E+02  0.78117E+04
 0.35053005E+02  0.62080E+04
 0.35103004E+02  0.64726E+04
 0.35153004E+02  0.10988E+05
 0.35203003E+02  0.14218E+05
 0.35253002E+02  0.16530E+05
 0.35303005E+02  0.19035E+05
 0.35353004E+02  0.18869E+05
 0.35403004E+02  0.10901E+05
 0.35453003E+02  0.10190E+05
 0.35503002E+02  0.14595E+05
 0.35553005E+02  0.96427E+04
 0.35603004E+02  0.42307E+04
 0.35653004E+02  0.46591E+04
 0.35703003E+02  0.80419E+04
 0.35753002E+02  0.10293E+05
 0.35803005E+02  0.15931E+05
 0.35853004E+02  0.20744E+05
 0.35903004E+02  0.19580E+05
 0.35953003E+02  0.17248E+05
 0.36003002E+02  0.16258E+05
 0.36053005E+02  0.12617E+05
 0.36103004E+02  0.93270E+04
 0.36153004E+02  0.57916E+04
 0.36203003E+02  0.60149E+04
 0.36253002E+02  0.11883E+05
 0.36303005E+02  0.14242E+05
 0.36353004E+02  0.11117E+05
 0.36403004E+02  0.56195E+04
 0.36453003E+02  0.32705E+04
 0.36503002E+02  0.25324E+04
 0.36553005E+02  0.61705E+04
 0.36603004E+02  0.81185E+04
 0.36653004E+02  0.78297E+04
 0.36703003E+02  0.12444E+05
 0.36753002E+02  0.14227E+05
 0.36803005E+02  0.12980E+05
 0.36853004E+02  0.80258E+04
 0.36903004E+02  0.69694E+04
 0.36953003E+02  0.80114E+04
 0.37003002E+02  0.73468E+04
 0.37053005E+02  0.41878E+04
 0.37103004E+02  0.20504E+04
 0.37153004E+02  0.63966E+03
 0.37203003E+02 -0.12924E+04
 0.37253002E+02  0.46098E+04
 0.37303005E+02  0.98257E+04
 0.37353004E+02  0.11238E+05
 0.37403004E+02  0.13960E+05
 0.37453003E+02  0.17027E+05
 0.37503002E+02  0.15373E+05
 0.37553005E+02  0.19818E+05
 0.37603004E+02  0.27614E+05
 0.37653004E+02  0.20892E+05
 0.37703003E+02  0.74943E+04
 0.37753002E+02  0.43529E+04
 0.37803005E+02  0.74751E+04
 0.37853004E+02  0.88948E+04
 0.37903004E+02  0.64294E+04
 0.37953003E+02  0.29351E+04
 0.38003002E+02  0.18125E+04
 0.38053005E+02  0.14478E+04
 0.38103004E+02  0.32570E+04
 0.38153004E+02  0.88325E+04
 0.38203003E+02  0.12512E+05
 0.38253002E+02  0.12803E+05
 0.38303005E+02  0.12260E+05
 0.38353004E+02  0.13101E+05
 0.38403004E+02  0.13559E+05
 0.38453003E+02  0.11085E+05
 0.38503002E+02  0.12665E+05
 0.38553005E+02  0.10839E+05
 0.38603004E+02  0.31772E+04
 0.38653004E+02  0.60808E+03
 0.38703003E+02  0.13660E+04
 0.38753002E+02  0.19768E+04
 0.38803005E+02  0.88622E+04
 0.38853004E+02  0.15431E+05
 0.38903004E+02  0.17465E+05
 0.38953003E+02  0.16807E+05
 0.39003002E+02  0.14960E+05
 0.39053005E+02  0.15139E+05
 0.39103004E+02  0.12576E+05
 0.39153004E+02  0.88073E+04
 0.39203003E+02  0.52850E+04
 0.39253002E+02  0.28747E+04
 0.39303005E+02  0.36403E+04
 0.39353004E+02  0.34453E+04
 0.39403004E+02  0.14860E+04
 0.39453003E+02  0.38934E+04
 0.39503002E+02  0.74578E+04
 0.39553005E+02  0.76277E+04
 0.39603004E+02  0.10381E+05
 0.39653004E+02  0.14730E+05
 0.39703003E+02  0.14809E+05
 0.39753002E+02  0.14259E+05
 0.39803005E+02  0.14578E+05
 0.39853004E+02  0.13573E+05
 0.39903004E+02  0.12822E+05
 0.39953003E+02  0.14093E+05
 0.40003002E+02  0.15062E+05
 0.40053005E+02  0.13780E+05
 0.40103004E+02  0.10238E+05
 0.40153004E+02  0.82412E+04
 0.40203003E+02  0.85960E+04
 0.40253002E+02  0.12145E+05
 0.40303005E+02  0.12716E+05
 0.40353004E+02  0.94746E+04
 0.40403004E+02  0.90393E+04
 0.40453003E+02  0.56363E+04
 0.40503002E+02  0.72193E+04
 0.40553005E+02  0.12023E+05
 0.40603004E+02  0.12471E+05
 0.40653004E+02  0.11545E+05
 0.40703003E+02  0.78203E+04
 0.40753002E+02  0.18274E+04
 0.40803005E+02 -0.25321E+04
 0.40853004E+02  0.40926E+03
 0.40903004E+02  0.54112E+04
 0.40953003E+02  0.81556E+04
 0.41003002E+02  0.96790E+04
 0.41053005E+02  0.10986E+05
 0.41103004E+02  0.12636E+05
 0.41153004E+02  0.11104E+05
 0.41203003E+02  0.10278E+05
 0.41253002E+02  0.97034E+04
 0.41303005E+02  0.81285E+04
 0.41353004E+02  0.10044E+05
 0.41403004E+02  0.11344E+05
 0.41453003E+02  0.11815E+05
 0.41503002E+02  0.13234E+05
 0.41553005E+02  0.15524E+05
 0.41603004E+02  0.16146E+05
 0.41653004E+02  0.12144E+05
 0.41703003E+02  0.10944E+05
 0.41753002E+02  0.98212E+04
 0.41803005E+02  0.59959E+04
 0.41853004E+02  0.19338E+04
 0.41903004E+02  0.89501E+03
 0.41953003E+02  0.58953E+04
 0.42003002E+02  0.12276E+05
 0.42053005E+02  0.17654E+05
 0.42103004E+02  0.20809E+05
 0.42153004E+02  0.23035E+05
 0.42203003E+02  0.18708E+05
 0.42253002E+02  0.87718E+04
 0.42303005E+02  0.31669E+04
 0.42353004E+02  0.88616E+03
 0.42403004E+02 -0.13458E+04
 0.42453003E+02 -0.13835E+04
 0.42503002E+02  0.72450E+03
 0.42553005E+02  0.20918E+04
 0.42603004E+02  0.50841E+04
 0.42653004E+02  0.11422E+05
 0.42703003E+02  0.16984E+05
 0.42753002E+02  0.18547E+05
 0.42803001E+02  0.18019E+05
 0.42853004E+02  0.15408E+05
 0.42903004E+02  0.94288E+04
 0.42953003E+02  0.50965E+04
 0.43003002E+02  0.59271E+04
 0.43053001E+02  0.69242E+04
 0.43103004E+02  0.78727E+04
 0.43153004E+02  0.80601E+04
 0.43203003E+02  0.81755E+04
 0.43253002E+02  0.88412E+04
 0.43303001E+02  0.85225E+04
 0.43353004E+02  0.11230E+05
 0.43403004E+02  0.12271E+05
 0.43453003E+02  0.12271E+05
 0.43503002E+02  0.14455E+05
 0.43553001E+02  0.14978E+05
 0.43603004E+02  0.13510E+05
 0.43653004E+02  0.10127E+05
 0.43703003E+02  0.65383E+04
 0.43753002E+02  0.74309E+04
 0.43803001E+02  0.11288E+05
 0.43853004E+02  0.13222E+05
 0.43903004E+02  0.13508E+05
 0.43953003E+02  0.13251E+05
 0.44003002E+02  0.10645E+05
 0.44053001E+02  0.82508E+04
 0.44103004E+02  0.74593E+04
 0.44153004E+02  0.70563E+04
 0.44203003E+02  0.68903E+04
 0.44253002E+02  0.74443E+04
 0.44303001E+02  0.80095E+04
 0.44353004E+02  0.64908E+04
 0.44403004E+02  0.52489E+04
 0.44453003E+02  0.39792E+04
 0.44503002E+02  0.61659E+04
 0.44553001E+02  0.91138E+04
 0.44603004E+02  0.11485E+05
 0.44653004E+02  0.14585E+05
 0.44703003E+02  0.14889E+05
 0.44753002E+02  0.13318E+05
 0.44803001E+02  0.10871E+05
 0.44853004E+02  0.67342E+04
 0.44903004E+02  0.54073E+04
 0.44953003E+02  0.69048E+04
 0.45003002E+02  0.68056E+04
 0.45053001E+02  0.80861E+04
 0.45103004E+02  0.88532E+04
 0.45153004E+02  0.93346E+04
 0.45203003E+02  0.93961E+04
 0.45253002E+02  0.79429E+04
 0.45303001E+02  0.73510E+04
 0.45353004E+02  0.71524E+04
 0.45403004E+02  0.68773E+04
 0.45453003E+02  0.83478E+04
 0.45503002E+02  0.11325E+05
 0.45553001E+02  0.13429E+05
 0.45603004E+02  0.14870E+05
 0.45653004E+02  0.14680E+05
 0.45703003E+02  0.11613E+05
 0.45753002E+02  0.79326E+04
 0.45803001E+02  0.69234E+04
 0.45853004E+02  0.58459E+04
 0.45903004E+02  0.72134E+04
 0.45953003E+02  0.86396E+04
 0.46003002E+02  0.72055E+04
 0.46053001E+02  0.95771E+04
 0.46103004E+02  0.11835E+05
 0.46153004E+02  0.13662E+05
 0.46203003E+02  0.15184E+05
 0.46253002E+02  0.14955E+05
 0.46303001E+02  0.13530E+05
 0.46353004E+02  0.12033E+05
 0.46403004E+02  0.92395E+04
 0.46453003E+02  0.60681E+04
 0.46503002E+02  0.58531E+04
 0.46553001E+02  0.77009E+04
 0.46603004E+02  0.11345E+05
 0.46653004E+02  0.13135E+05
 0.46703003E+02  0.11999E+05
 0.46753002E+02  0.10813E+05
 0.46803001E+02  0.93442E+04
 0.46853004E+02  0.80229E+04
 0.46903004E+02  0.90728E+04
 0.46953003E+02  0.11532E+05
 0.47003002E+02  0.13055E+05
 0.47053001E+02  0.11675E+05
 0.47103004E+02  0.10987E+05
 0.47153004E+02  0.10084E+05
 0.47203003E+02  0.65550E+04
 0.47253002E+02  0.43481E+04
 0.47303001E+02  0.51035E+04
 0.47353004E+02  0.68647E+04
 0.47403004E+02  0.74650E+04
 0.47453003E+02  0.91592E+04
 0.47503002E+02  0.11546E+05
 0.47553001E+02  0.13047E+05
 0.47603004E+02  0.13272E+05
 0.47653004E+02  0.11343E+05
 0.47703003E+02  0.96248E+04
 0.47753002E+02  0.91860E+04
 0.47803001E+02  0.73865E+04
 0.47853004E+02  0.60830E+04
 0.47903004E+02  0.67537E+04
 0.47953003E+02  0.83920E+04
 0.48003002E+02  0.91557E+04
 0.48053001E+02  0.84755E+04
 0.48103004E+02  0.98291E+04
 0.48153004E+02  0.11556E+05
 0.48203003E+02  0.11822E+05
 0.48253002E+02  0.10413E+05
 0.48303001E+02  0.80551E+04
 0.48353004E+02  0.61675E+04
 0.48403004E+02  0.37793E+04
 0.48453003E+02  0.17940E+04
 0.48503002E+02  0.33028E+04
 0.48553001E+02  0.62277E+04
 0.48603004E+02  0.10344E+05
 0.48653004E+02  0.14586E+05
 0.48703003E+02  0.15359E+05
 0.48753002E+02  0.14435E+05
 0.48803001E+02  0.11562E+05
 0.48853004E+02  0.99424E+04
 0.48903004E+02  0.92363E+04
 0.48953003E+02  0.76255E+04
 0.49003002E+02  0.70685E+04
 0.49053001E+02  0.82888E+04
 0.49103004E+02  0.10752E+05
 0.49153004E+02  0.11592E+05
 0.49203003E+02  0.11738E+05
 0.49253002E+02  0.12332E+05
 0.49303001E+02  0.12979E+05
 0.49353004E+02  0.13389E+05
 0.49403004E+02  0.12400E+05
 0.49453003E+02  0.10429E+05
 0.49503002E+02  0.10883E+05
 0.49553001E+02  0.13143E+05
 0.49603004E+02  0.12902E+05
 0.49653004E+02  0.11292E+05
 0.49703003E+02  0.10365E+05
 0.49753002E+02  0.96310E+04
 0.49803001E+02  0.91882E+04
 0.49853004E+02  0.92852E+04
 0.49903004E+02  0.72842E+04
 0.49953003E+02  0.38009E+04
 0.50003002E+02  0.20307E+04
 0.50053001E+02  0.10880E+04
 0.50103004E+02  0.28997E+04
 0.50153004E+02  0.77543E+04
 0.50203003E+02  0.11463E+05
 0.50253002E+02  0.12692E+05
 0.50303001E+02  0.13520E+05
 0.50353004E+02  0.14802E+05
 0.50403004E+02  0.14563E+05
 0.50453003E+02  0.11819E+05
 0.50503002E+02  0.93455E+04
 0.50553001E+02  0.77145E+04
 0.50603004E+02  0.63177E+04
 0.50653004E+02  0.59046E+04
 0.50703003E+02  0.65220E+04
 0.50753002E+02  0.84708E+04
 0.50803001E+02  0.99347E+04
 0.50853004E+02  0.10660E+05
 0.50903004E+02  0.10834E+05
 0.50953003E+02  0.11780E+05
 0.51003002E+02  0.12857E+05
 0.51053001E+02  0.12769E+05
 0.51103004E+02  0.12606E+05
 0.51153004E+02  0.11447E+05
 0.51203003E+02  0.10305E+05
 0.51253002E+02  0.80768E+04
 0.51303001E+02  0.71265E+04
 0.51353004E+02  0.70676E+04
 0.51403004E+02  0.55476E+04
 0.51453003E+02  0.61183E+04
 0.51503002E+02  0.81691E+04
 0.51553001E+02  0.10446E+05
 0.51603004E+02  0.12421E+05
 0.51653004E+02  0.12584E+05
 0.51703003E+02  0.12201E+05
 0.51753002E+02  0.11167E+05
 0.51803001E+02  0.92555E+04
 0.51853004E+02  0.92097E+04
 0.51903004E+02  0.96567E+04
 0.51953003E+02  0.97197E+04
 0.52003002E+02  0.97957E+04
 0.52053001E+02  0.10024E+05
 0.52103004E+02  0.93003E+04
 0.52153004E+02  0.74418E+04
 0.52203003E+02  0.73803E+04
 0.52253002E+02  0.87835E+04
 0.52303001E+02  0.90296E+04
 0.52353004E+02  0.97381E+04
 0.52403004E+02  0.11629E+05
 0.52453003E+02  0.12574E+05
 0.52503002E+02  0.11912E+05
 0.52553001E+02  0.10442E+05
 0.52603004E+02  0.95631E+04
 0.52653004E+02  0.79164E+04
 0.52703003E+02  0.59514E+04
 0.52753002E+02  0.59389E+04
 0.52803001E+02  0.72452E+04
 0.52853004E+02  0.83470E+04
 0.52903004E+02  0.83617E+04
 0.52953003E+02  0.77906E+04
 0.53003002E+02  0.75722E+04
 0.53053001E+02  0.83264E+04
 0.53103004E+02  0.86076E+04
 0.53153004E+02  0.87614E+04
 0.53203003E+02  0.11405E+05
 0.53253002E+02  0.13741E+05
 0.53303001E+02  0.13968E+05
 0.53353004E+02  0.12890E+05
 0.53403004E+02  0.11449E+05
 0.53453003E+02  0.10818E+05
 0.53503002E+02  0.11325E+05
 0.53553001E+02  0.10993E+05
 0.53603004E+02  0.10309E+05
 0.53653004E+02  0.10359E+05
 0.53703003E+02  0.96038E+04
 0.53753002E+02  0.94912E+04
 0.53803001E+02  0.10189E+05
 0.53853004E+02  0.10912E+05
 0.53903004E+02  0.11523E+05
 0.53953003E+02  0.10379E+05
 0.54003002E+02  0.79597E+04
 0.54053001E+02  0.72555E+04
 0.54103004E+02  0.78547E+04
 0.54153004E+02  0.75044E+04
 0.54203003E+02  0.66671E+04
 0.54253002E+02  0.78529E+04
 0.54303001E+02  0.94121E+04
 0.54353004E+02  0.10774E+05
 0.54403004E+02  0.10895E+05
 0.54453003E+02  0.92856E+04
 0.54503002E+02  0.90559E+04
 0.54553001E+02  0.88257E+04
 0.54603004E+02  0.83423E+04
 0.54653004E+02  0.81093E+04
 0.54703003E+02  0.80850E+04
 0.54753002E+02  0.73369E+04
 0.54803001E+02  0.61308E+04
 0.54853004E+02  0.73482E+04
 0.54903004E+02  0.94989E+04
 0.54953003E+02  0.10496E+05
 0.55003002E+02  0.11680E+05
 0.55053001E+02  0.11950E+05
 0.55103004E+02  0.11540E+05
 0.55153004E+02  0.11685E+05
 0.55203003E+02  0.10886E+05
 0.55253002E+02  0.99602E+04
 0.55303001E+02  0.85625E+04
 0.55353004E+02  0.68465E+04
 0.55403004E+02  0.67098E+04
 0.55453003E+02  0.75446E+04
 0.55503002E+02  0.92304E+04
 0.55553001E+02  0.10955E+05
 0.55603004E+02  0.12295E+05
 0.55653004E+02  0.12558E+05
 0.55703003E+02  0.12047E+05
 0.55753002E+02  0.10920E+05
 0.55803001E+02  0.95285E+04
 0.55853001E+02  0.88001E+04
 0.55903004E+02  0.79877E+04
 0.55953003E+02  0.78510E+04
 0.56003002E+02  0.82481E+04
 0.56053001E+02  0.93013E+04
 0.56103001E+02  0.10852E+05
 0.56153004E+02  0.11398E+05
 0.56203003E+02  0.11588E+05
 0.56253002E+02  0.11117E+05
 0.56303001E+02  0.95518E+04
 0.56353001E+02  0.87997E+04
 0.56403004E+02  0.90658E+04
 0.56453003E+02  0.96576E+04
 0.56503002E+02  0.97518E+04
 0.56553001E+02  0.10032E+05
 0.56603001E+02  0.11385E+05
 0.56653004E+02  0.12748E+05
 0.56703003E+02  0.12422E+05
 0.56753002E+02  0.11091E+05
 0.56803001E+02  0.10012E+05
 0.56853001E+02  0.81621E+04
 0.56903004E+02  0.71964E+04
 0.56953003E+02  0.70863E+04
 0.57003002E+02  0.67842E+04
 0.57053001E+02  0.66912E+04
 0.57103001E+02  0.64681E+04
 0.57153004E+02  0.73645E+04
 0.57203003E+02  0.88759E+04
 0.57253002E+02  0.10714E+05
 0.57303001E+02  0.13498E+05
 0.57353001E+02  0.15802E+05
 0.57403004E+02  0.15256E+05
 0.57453003E+02  0.12663E+05
 0.57503002E+02  0.10049E+05
 0.57553001E+02  0.81323E+04
 0.57603001E+02  0.72846E+04
 0.57653004E+02  0.77178E+04
 0.57703003E+02  0.96946E+04
 0.57753002E+02  0.10873E+05
 0.57803001E+02  0.10741E+05
 0.57853001E+02  0.10575E+05
 0.57903004E+02  0.10249E+05
 0.57953003E+02  0.10256E+05
 0.58003002E+02  0.97461E+04
 0.58053001E+02  0.83951E+04
 0.58103001E+02  0.72091E+04
 0.58153004E+02  0.74418E+04
 0.58203003E+02  0.80536E+04
 0.58253002E+02  0.80283E+04
 0.58303001E+02  0.82386E+04
 0.58353001E+02  0.81050E+04
 0.58403004E+02  0.82041E+04
 0.58453003E+02  0.87036E+04
 0.58503002E+02  0.85740E+04
 0.58553001E+02  0.92723E+04
 0.58603001E+02  0.10008E+05
 0.58653004E+02  0.90151E+04
 0.58703003E+02  0.78217E+04
 0.58753002E+02  0.74823E+04
 0.58803001E+02  0.74941E+04
 0.58853001E+02  0.82094E+04
 0.58903004E+02  0.88486E+04
 0.58953003E+02  0.90491E+04
 0.59003002E+02  0.96488E+04
 0.59053001E+02  0.99910E+04
 0.59103001E+02  0.10160E+05
 0.59153004E+02  0.10031E+05
 0.59203003E+02  0.10300E+05
 0.59253002E+02  0.10190E+05
 0.59303001E+02  0.95772E+04
 0.59353001E+02  0.10130E+05
 0.59403004E+02  0.11628E+05
 0.59453003E+02  0.12418E+05
 0.59503002E+02  0.11426E+05
 0.59553001E+02  0.98824E+04
 0.59603001E+02  0.87492E+04
 0.59653004E+02  0.81974E+04
 0.59703003E+02  0.91266E+04
 0.59753002E+02  0.10644E+05
 0.59803001E+02  0.11076E+05
 0.59853001E+02  0.11822E+05
 0.59903004E+02  0.11793E+05
 0.59953003E+02  0.10885E+05
 0.60003002E+02  0.98438E+04
 0.60053001E+02  0.82145E+04
 0.60103001E+02  0.70403E+04
 0.60153004E+02  0.68210E+04
 0.60203003E+02  0.74606E+04
 0.60253002E+02  0.85292E+04
 0.60303001E+02  0.10261E+05
 0.60353001E+02  0.11766E+05
 0.60403004E+02  0.12042E+05
 0.60453003E+02  0.11401E+05
 0.60503002E+02  0.11061E+05
 0.60553001E+02  0.10028E+05
 0.60603001E+02  0.82040E+04
 0.60653004E+02  0.76135E+04
 0.60703003E+02  0.77097E+04
 0.60753002E+02  0.79106E+04
 0.60803001E+02  0.83037E+04
 0.60853001E+02  0.88993E+04
 0.60903004E+02  0.10065E+05
 0.60953003E+02  0.10584E+05
 0.61003002E+02  0.10799E+05
 0.61053001E+02  0.10894E+05
 0.61103001E+02  0.10432E+05
 0.61153004E+02  0.10196E+05
 0.61203003E+02  0.92676E+04
 0.61253002E+02  0.81943E+04
 0.61303001E+02  0.85575E+04
 0.61353001E+02  0.98622E+04
 0.61403004E+02  0.99688E+04
 0.61453003E+02  0.93953E+04
 0.61503002E+02  0.93079E+04
 0.61553001E+02  0.95427E+04
 0.61603001E+02  0.10307E+05
 0.61653004E+02  0.10546E+05
 0.61703003E+02  0.99739E+04
 0.61753002E+02  0.95619E+04
 0.61803001E+02  0.98334E+04
 0.61853001E+02  0.10606E+05
 0.61903004E+02  0.10819E+05
 0.61953003E+02  0.10983E+05
 0.62003002E+02  0.10702E+05
 0.62053001E+02  0.95309E+04
 0.62103004E+02  0.86258E+04
 0.62153000E+02  0.84803E+04
 0.62203003E+02  0.92388E+04
 0.62252998E+02  0.10298E+05
 0.62303001E+02  0.10709E+05
 0.62353004E+02  0.10567E+05
 0.62403000E+02  0.10049E+05
 0.62453003E+02  0.92941E+04
 0.62502998E+02  0.87144E+04
 0.62553001E+02  0.74565E+04
 0.62603004E+02  0.61449E+04
 0.62653000E+02  0.59163E+04
 0.62703003E+02  0.66729E+04
 0.62752998E+02  0.74764E+04
 0.62803001E+02  0.87012E+04
 0.62853004E+02  0.10295E+05
 0.62903000E+02  0.10666E+05
 0.62953003E+02  0.10149E+05
 0.63002998E+02  0.96543E+04
 0.63053001E+02  0.10382E+05
 0.63103004E+02  0.11592E+05
 0.63153000E+02  0.12323E+05
 0.63203003E+02  0.12379E+05
 0.63252998E+02  0.10575E+05
 0.63303001E+02  0.94065E+04
 0.63353004E+02  0.10381E+05
 0.63403000E+02  0.10746E+05
 0.63453003E+02  0.10882E+05
 0.63502998E+02  0.11217E+05
 0.63553001E+02  0.10955E+05
 0.63603004E+02  0.10732E+05
 0.63653000E+02  0.10246E+05
 0.63703003E+02  0.96503E+04
 0.63752998E+02  0.93545E+04
 0.63803001E+02  0.92867E+04
 0.63853004E+02  0.97094E+04
 0.63903000E+02  0.10377E+05
 0.63953003E+02  0.10567E+05
 0.64002998E+02  0.10351E+05
 0.64053001E+02  0.93805E+04
 0.64103004E+02  0.86067E+04
 0.64153000E+02  0.82763E+04
 0.64203003E+02  0.78257E+04
 0.64252998E+02  0.74857E+04
 0.64303001E+02  0.74706E+04
 0.64353004E+02  0.78096E+04
 0.64403000E+02  0.75464E+04
 0.64453003E+02  0.72343E+04
 0.64502998E+02  0.74058E+04
 0.64553001E+02  0.82759E+04
 0.64603004E+02  0.95591E+04
 0.64653000E+02  0.97675E+04
 0.64703003E+02  0.90541E+04
 0.64752998E+02  0.87473E+04
 0.64803001E+02  0.90483E+04
 0.64853004E+02  0.91656E+04
 0.64903000E+02  0.92603E+04
 0.64953003E+02  0.96964E+04
 0.65002998E+02  0.96670E+04
 0.65053001E+02  0.93451E+04
 0.65103004E+02  0.95360E+04
 0.65153000E+02  0.96485E+04
 0.65203003E+02  0.92264E+04
 0.65252998E+02  0.88416E+04
 0.65303001E+02  0.88475E+04
 0.65353004E+02  0.93411E+04
 0.65403000E+02  0.10237E+05
 0.65453003E+02  0.11457E+05
 0.65502998E+02  0.12253E+05
 0.65553001E+02  0.12492E+05
 0.65603004E+02  0.12575E+05
 0.65653000E+02  0.12453E+05
 0.65703003E+02  0.12180E+05
 0.65752998E+02  0.11311E+05
 0.65803001E+02  0.10195E+05
 0.65853004E+02  0.91299E+04
 0.65903000E+02  0.80027E+04
 0.65953003E+02  0.71823E+04
 0.66002998E+02  0.73424E+04
 0.66053001E+02  0.81488E+04
 0.66103004E+02  0.91341E+04
 0.66153000E+02  0.94620E+04
 0.66203003E+02  0.92667E+04
 0.66252998E+02  0.87940E+04
 0.66303001E+02  0.86586E+04
 0.66353004E+02  0.90124E+04
 0.66403000E+02  0.86486E+04
 0.66453003E+02  0.82174E+04
 0.66502998E+02  0.80370E+04
 0.66553001E+02  0.86525E+04
 0.66603004E+02  0.99308E+04
 0.66653000E+02  0.11196E+05
 0.66703003E+02  0.11237E+05
 0.66752998E+02  0.10680E+05
 0.66803001E+02  0.10427E+05
 0.66853004E+02  0.10115E+05
 0.66903000E+02  0.10769E+05
 0.66953003E+02  0.11576E+05
 0.67002998E+02  0.11767E+05
 0.67053001E+02  0.12047E+05
 0.67103004E+02  0.11759E+05
 0.67153000E+02  0.11353E+05
 0.67203003E+02  0.11444E+05
 0.67252998E+02  0.11401E+05
 0.67303001E+02  0.11218E+05
 0.67353004E+02  0.10983E+05
 0.67403000E+02  0.10755E+05
 0.67453003E+02  0.98249E+04
 0.67502998E+02  0.85694E+04
 0.67553001E+02  0.78834E+04
 0.67603004E+02  0.73448E+04
 0.67653000E+02  0.66285E+04
 0.67703003E+02  0.58739E+04
 0.67752998E+02  0.52054E+04
 0.67803001E+02  0.54780E+04
 0.67853004E+02  0.66125E+04
 0.67903000E+02  0.79733E+04
 0.67953003E+02  0.91562E+04
 0.68002998E+02  0.97520E+04
 0.68053001E+02  0.10173E+05
 0.68103004E+02  0.10544E+05
 0.68153000E+02  0.10835E+05
 0.68203003E+02  0.10765E+05
 0.68252998E+02  0.10137E+05
 0.68303001E+02  0.89605E+04
 0.68353004E+02  0.80044E+04
 0.68403000E+02  0.76411E+04
 0.68453003E+02  0.76544E+04
 0.68502998E+02  0.84892E+04
 0.68553001E+02  0.96052E+04
 0.68603004E+02  0.10138E+05
 0.68653000E+02  0.98359E+04
 0.68703003E+02  0.96787E+04
 0.68752998E+02  0.97491E+04
 0.68803001E+02  0.96515E+04
 0.68853004E+02  0.94776E+04
 0.68903000E+02  0.95962E+04
 0.68953003E+02  0.10197E+05
 0.69002998E+02  0.10686E+05
 0.69053001E+02  0.10526E+05
 0.69103004E+02  0.99841E+04
 0.69153000E+02  0.96465E+04
 0.69203003E+02  0.94473E+04
 0.69252998E+02  0.95894E+04
 0.69303001E+02  0.98185E+04
 0.69353004E+02  0.10202E+05
 0.69403000E+02  0.10384E+05
 0.69453003E+02  0.10281E+05
 0.69502998E+02  0.10052E+05
 0.69553001E+02  0.10188E+05
 0.69603004E+02  0.10982E+05
 0.69653000E+02  0.11455E+05
 0.69703003E+02  0.11622E+05
 0.69752998E+02  0.10995E+05
 0.69803001E+02  0.98094E+04
 0.69853004E+02  0.93130E+04
 0.69903000E+02  0.93905E+04
 0.69953003E+02  0.10378E+05
 0.70002998E+02  0.11997E+05
 0.70053001E+02  0.12701E+05
 0.70103004E+02  0.12808E+05
 0.70153000E+02  0.12509E+05
 0.70203003E+02  0.11894E+05
 0.70252998E+02  0.11107E+05
 0.70303001E+02  0.10387E+05
 0.70353004E+02  0.98098E+04
 0.70403000E+02  0.84826E+04
 0.70453003E+02  0.72288E+04
 0.70502998E+02  0.64034E+04
 0.70553001E+02  0.61653E+04
 0.70603004E+02  0.65997E+04
 0.70653000E+02  0.70249E+04
 0.70703003E+02  0.78026E+04
 0.70752998E+02  0.86771E+04
 0.70803001E+02  0.87907E+04
 0.70853004E+02  0.82924E+04
 0.70903000E+02  0.75836E+04
 0.70953003E+02  0.67143E+04
 0.71002998E+02  0.63958E+04
 0.71053001E+02  0.68335E+04
 0.71103004E+02  0.75744E+04
 0.71153000E+02  0.87214E+04
 0.71203003E+02  0.95076E+04
 0.71252998E+02  0.97963E+04
 0.71303001E+02  0.97107E+04
 0.71353004E+02  0.95258E+04
 0.71403000E+02  0.95408E+04
 0.71453003E+02  0.96696E+04
 0.71502998E+02  0.97204E+04
 0.71553001E+02  0.95710E+04
 0.71603004E+02  0.93728E+04
 0.71653000E+02  0.86946E+04
 0.71703003E+02  0.83710E+04
 0.71752998E+02  0.87750E+04
 0.71803001E+02  0.98119E+04
 0.71853004E+02  0.11303E+05
 0.71903000E+02  0.12089E+05
 0.71953003E+02  0.12396E+05
 0.72002998E+02  0.12693E+05
 0.72053001E+02  0.12122E+05
 0.72103004E+02  0.11139E+05
 0.72153000E+02  0.10521E+05
 0.72203003E+02  0.10369E+05
 0.72252998E+02  0.10643E+05
 0.72303001E+02  0.10984E+05
 0.72353004E+02  0.11513E+05
 0.72403000E+02  0.12048E+05
 0.72453003E+02  0.12073E+05
 0.72502998E+02  0.11513E+05
 0.72553001E+02  0.10574E+05
 0.72603004E+02  0.97088E+04
 0.72653000E+02  0.93601E+04
 0.72703003E+02  0.92584E+04
 0.72752998E+02  0.88342E+04
 0.72803001E+02  0.86268E+04
 0.72853004E+02  0.90338E+04
 0.72903000E+02  0.88448E+04
 0.72953003E+02  0.83875E+04
 0.73002998E+02  0.84752E+04
 0.73053001E+02  0.87130E+04
 0.73103004E+02  0.89234E+04
 0.73153000E+02  0.88421E+04
 0.73203003E+02  0.86156E+04
 0.73252998E+02  0.85308E+04
 0.73303001E+02  0.87977E+04
 0.73353004E+02  0.88283E+04
 0.73403000E+02  0.87479E+04
 0.73453003E+02  0.89118E+04
 0.73502998E+02  0.91444E+04
 0.73553001E+02  0.91180E+04
 0.73603004E+02  0.83254E+04
 0.73653000E+02  0.75876E+04
 0.73703003E+02  0.73033E+04
 0.73752998E+02  0.78440E+04
 0.73803001E+02  0.85210E+04
 0.73853004E+02  0.99159E+04
 0.73903000E+02  0.10679E+05
 0.73953003E+02  0.11281E+05
 0.74002998E+02  0.10602E+05
 0.74053001E+02  0.90243E+04
 0.74103004E+02  0.93562E+04
 0.74153000E+02  0.93058E+04
 0.74203003E+02  0.96244E+04
 0.74252998E+02  0.97167E+04
 0.74303001E+02  0.98627E+04
 0.74353004E+02  0.10215E+05
 0.74403000E+02  0.10170E+05
 0.74453003E+02  0.10021E+05
 0.74502998E+02  0.96773E+04
 0.74553001E+02  0.88795E+04
 0.74603004E+02  0.81376E+04
 0.74653000E+02  0.81291E+04
 0.74703003E+02  0.88258E+04
 0.74752998E+02  0.10103E+05
 0.74803001E+02  0.11310E+05
 0.74853004E+02  0.11653E+05
 0.74903000E+02  0.10954E+05
 0.74953003E+02  0.10137E+05
 0.75002998E+02  0.95521E+04
 0.75053001E+02  0.97132E+04
 0.75103004E+02  0.99193E+04
 0.75153000E+02  0.96915E+04
 0.75203003E+02  0.94615E+04
 0.75252998E+02  0.94609E+04
 0.75303001E+02  0.98564E+04
 0.75353004E+02  0.10431E+05
 0.75403000E+02  0.11010E+05
 0.75453003E+02  0.10963E+05
 0.75502998E+02  0.10295E+05
 0.75553001E+02  0.95896E+04
 0.75603004E+02  0.91547E+04
 0.75653000E+02  0.96855E+04
 0.75703003E+02  0.10588E+05
 0.75752998E+02  0.10855E+05
 0.75803001E+02  0.10729E+05
 0.75853004E+02  0.10599E+05
 0.75903000E+02  0.10017E+05
 0.75953003E+02  0.91543E+04
 0.76002998E+02  0.87541E+04
 0.76053001E+02  0.85513E+04
 0.76103004E+02  0.83678E+04
 0.76153000E+02  0.88517E+04
 0.76203003E+02  0.95297E+04
 0.76252998E+02  0.96746E+04
 0.76303001E+02  0.95911E+04
 0.76353004E+02  0.95052E+04
 0.76403000E+02  0.93224E+04
 0.76453003E+02  0.90844E+04
 0.76502998E+02  0.92344E+04
 0.76553001E+02  0.94623E+04
 0.76603004E+02  0.98312E+04
 0.76653000E+02  0.10168E+05
 0.76703003E+02  0.10112E+05
 0.76752998E+02  0.99484E+04
 0.76803001E+02  0.94755E+04
 0.76853004E+02  0.88823E+04
 0.76903000E+02  0.85117E+04
 0.76953003E+02  0.82893E+04
 0.77002998E+02  0.78709E+04
 0.77053001E+02  0.75698E+04
 0.77103004E+02  0.80594E+04
 0.77153000E+02  0.89503E+04
 0.77203003E+02  0.96878E+04
 0.77252998E+02  0.10017E+05
 0.77303001E+02  0.98647E+04
 0.77353004E+02  0.95804E+04
 0.77403000E+02  0.98895E+04
 0.77453003E+02  0.10581E+05
 0.77502998E+02  0.10819E+05
 0.77553001E+02  0.10612E+05
 0.77603004E+02  0.10156E+05
 0.77653000E+02  0.96879E+04
 0.77703003E+02  0.95249E+04
 0.77752998E+02  0.95697E+04
 0.77803001E+02  0.99468E+04
 0.77853004E+02  0.10206E+05
 0.77903000E+02  0.99839E+04
 0.77953003E+02  0.96760E+04
 0.78002998E+02  0.94169E+04
 0.78053001E+02  0.95207E+04
 0.78103004E+02  0.97098E+04
 0.78153000E+02  0.96979E+04
 0.78203003E+02  0.94953E+04
 0.78252998E+02  0.92946E+04
 0.78303001E+02  0.90852E+04
 0.78353004E+02  0.89812E+04
 0.78403000E+02  0.93891E+04
 0.78453003E+02  0.98598E+04
 0.78502998E+02  0.99673E+04
 0.78553001E+02  0.98067E+04
 0.78603004E+02  0.95320E+04
 0.78653000E+02  0.94345E+04
 0.78703003E+02  0.10039E+05
 0.78752998E+02  0.11006E+05
 0.78803001E+02  0.11555E+05
 0.78853004E+02  0.11836E+05
 0.78903000E+02  0.11528E+05
 0.78953003E+02  0.10861E+05
 0.79002998E+02  0.10350E+05
 0.79053001E+02  0.98754E+04
 0.79103004E+02  0.93254E+04
 0.79153000E+02  0.87042E+04
 0.79203003E+02  0.83990E+04
 0.79252998E+02  0.84087E+04
 0.79303001E+02  0.86409E+04
 0.79353004E+02  0.87571E+04
 0.79403000E+02  0.87456E+04
 0.79453003E+02  0.88165E+04
 0.79502998E+02  0.89917E+04
 0.79553001E+02  0.93148E+04
 0.79603004E+02  0.94689E+04
 0.79653000E+02  0.93683E+04
 0.79703003E+02  0.93366E+04
 0.79752998E+02  0.94209E+04
 0.79803001E+02  0.95389E+04
 0.79853004E+02  0.97005E+04
 0.79903000E+02  0.10000E+05
 0.79953003E+02  0.10083E+05
 0.80002998E+02  0.94943E+04
 0.80053001E+02  0.90322E+04
 0.80103004E+02  0.87966E+04
 0.80153000E+02  0.85101E+04
 0.80203003E+02  0.85426E+04
 0.80252998E+02  0.84102E+04
 0.80303001E+02  0.83018E+04
 0.80353004E+02  0.83274E+04
 0.80403000E+02  0.86721E+04
 0.80453003E+02  0.91494E+04
 0.80502998E+02  0.96363E+04
 0.80553001E+02  0.10008E+05
 0.80603004E+02  0.96228E+04
 0.80653000E+02  0.89609E+04
 0.80703003E+02  0.88928E+04
 0.80752998E+02  0.93727E+04
 0.80803001E+02  0.96908E+04
 0.80853004E+02  0.97463E+04
 0.80903000E+02  0.94368E+04
 0.80953003E+02  0.89400E+04
 0.81002998E+02  0.85585E+04
 0.81053001E+02  0.83366E+04
 0.81103004E+02  0.87019E+04
 0.81153000E+02  0.96033E+04
 0.81203003E+02  0.10133E+05
 0.81252998E+02  0.10287E+05
 0.81303001E+02  0.10257E+05
 0.81353004E+02  0.10298E+05
 0.81403000E+02  0.10607E+05
 0.81453003E+02  0.10869E+05
 0.81502998E+02  0.11042E+05
 0.81553001E+02  0.11010E+05
 0.81603004E+02  0.10833E+05
 0.81653000E+02  0.10581E+05
 0.81703003E+02  0.10451E+05
 0.81752998E+02  0.10375E+05
 0.81803001E+02  0.99151E+04
 0.81853004E+02  0.95720E+04
 0.81903000E+02  0.96710E+04
 0.81953003E+02  0.97970E+04
 0.82002998E+02  0.10033E+05
 0.82053001E+02  0.10245E+05
 0.82103004E+02  0.10194E+05
 0.82153000E+02  0.98550E+04
 0.82203003E+02  0.98165E+04
 0.82252998E+02  0.96840E+04
 0.82303001E+02  0.92013E+04
 0.82353004E+02  0.89747E+04
 0.82403000E+02  0.88892E+04
 0.82453003E+02  0.89585E+04
 0.82502998E+02  0.92427E+04
 0.82553001E+02  0.95941E+04
 0.82603004E+02  0.98997E+04
 0.82653000E+02  0.10120E+05
 0.82703003E+02  0.99487E+04
 0.82752998E+02  0.95926E+04
 0.82803001E+02  0.94885E+04
 0.82853004E+02  0.94510E+04
 0.82903000E+02  0.95070E+04
 0.82953003E+02  0.96083E+04
 0.83002998E+02  0.92895E+04
 0.83053001E+02  0.87632E+04
 0.83103004E+02  0.86492E+04
 0.83153000E+02  0.90266E+04
 0.83203003E+02  0.96169E+04
 0.83252998E+02  0.10071E+05
 0.83303001E+02  0.10045E+05
 0.83353004E+02  0.96677E+04
 0.83403000E+02  0.92852E+04
 0.83453003E+02  0.89889E+04
 0.83502998E+02  0.89958E+04
 0.83553001E+02  0.91650E+04
 0.83603004E+02  0.90434E+04
 0.83653000E+02  0.89983E+04
 0.83703003E+02  0.91279E+04
 0.83752998E+02  0.90074E+04
 0.83803001E+02  0.88930E+04
 0.83853004E+02  0.89468E+04
 0.83903000E+02  0.89405E+04
 0.83953003E+02  0.91056E+04
 0.84002998E+02  0.94534E+04
 0.84053001E+02  0.98027E+04
 0.84103004E+02  0.10103E+05
 0.84153000E+02  0.10322E+05
 0.84203003E+02  0.10151E+05
 0.84252998E+02  0.97346E+04
 0.84303001E+02  0.95282E+04
 0.84353004E+02  0.97184E+04
 0.84403000E+02  0.10332E+05
 0.84453003E+02  0.10967E+05
 0.84502998E+02  0.11172E+05
 0.84553001E+02  0.11036E+05
 0.84603004E+02  0.11118E+05
 0.84653000E+02  0.11053E+05
 0.84703003E+02  0.10537E+05
 0.84752998E+02  0.99719E+04
 0.84803001E+02  0.93734E+04
 0.84853004E+02  0.90459E+04
 0.84903000E+02  0.90904E+04
 0.84953003E+02  0.94497E+04
 0.85002998E+02  0.10036E+05
 0.85053001E+02  0.10054E+05
 0.85103004E+02  0.95742E+04
 0.85153000E+02  0.90830E+04
 0.85203003E+02  0.89171E+04
 0.85252998E+02  0.88922E+04
 0.85303001E+02  0.89016E+04
 0.85353004E+02  0.87669E+04
 0.85403000E+02  0.84892E+04
 0.85453003E+02  0.80844E+04
 0.85502998E+02  0.76829E+04
 0.85553001E+02  0.77353E+04
 0.85603004E+02  0.81159E+04
 0.85653000E+02  0.86306E+04
 0.85703003E+02  0.90767E+04
 0.85752998E+02  0.95086E+04
 0.85803001E+02  0.99284E+04
 0.85853004E+02  0.10208E+05
 0.85903000E+02  0.10443E+05
 0.85953003E+02  0.10602E+05
 0.86002998E+02  0.10449E+05
 0.86053001E+02  0.10278E+05
 0.86103004E+02  0.10305E+05
 0.86153000E+02  0.10333E+05
 0.86203003E+02  0.10232E+05
 0.86252998E+02  0.10099E+05
 0.86303001E+02  0.98564E+04
 0.86353004E+02  0.98784E+04
 0.86403000E+02  0.10023E+05
 0.86453003E+02  0.99036E+04
 0.86502998E+02  0.98524E+04
 0.86553001E+02  0.96580E+04
 0.86603004E+02  0.92153E+04
 0.86653000E+02  0.92225E+04
 0.86703003E+02  0.97483E+04
 0.86752998E+02  0.10280E+05
 0.86803001E+02  0.10839E+05
 0.86853004E+02  0.11020E+05
 0.86903000E+02  0.10734E+05
 0.86953003E+02  0.10324E+05
 0.87002998E+02  0.99642E+04
 0.87053001E+02  0.96743E+04
 0.87103004E+02  0.93318E+04
 0.87153000E+02  0.89038E+04
 0.87203003E+02  0.86402E+04
 0.87252998E+02  0.88798E+04
 0.87303001E+02  0.91652E+04
 0.87353004E+02  0.95052E+04
 0.87403000E+02  0.97553E+04
 0.87453003E+02  0.94286E+04
 0.87502998E+02  0.88968E+04
 0.87553001E+02  0.85173E+04
 0.87602997E+02  0.82646E+04
 0.87653000E+02  0.82616E+04
 0.87703003E+02  0.88248E+04
 0.87752998E+02  0.92391E+04
 0.87803001E+02  0.92116E+04
 0.87852997E+02  0.92227E+04
 0.87903000E+02  0.95165E+04
 0.87953003E+02  0.99696E+04
 0.88002998E+02  0.10339E+05
 0.88053001E+02  0.10395E+05
 0.88102997E+02  0.10038E+05
 0.88153000E+02  0.97897E+04
 0.88203003E+02  0.97966E+04
 0.88252998E+02  0.97727E+04
 0.88303001E+02  0.95991E+04
 0.88352997E+02  0.92831E+04
 0.88403000E+02  0.90713E+04
 0.88453003E+02  0.91758E+04
 0.88502998E+02  0.93513E+04
 0.88553001E+02  0.96107E+04
 0.88602997E+02  0.97708E+04
 0.88653000E+02  0.98459E+04
 0.88703003E+02  0.98255E+04
 0.88752998E+02  0.97803E+04
 0.88803001E+02  0.98268E+04
 0.88852997E+02  0.98615E+04
 0.88903000E+02  0.99240E+04
 0.88953003E+02  0.95841E+04
 0.89002998E+02  0.91837E+04
 0.89053001E+02  0.90814E+04
 0.89102997E+02  0.94556E+04
 0.89153000E+02  0.10013E+05
 0.89203003E+02  0.10323E+05
 0.89252998E+02  0.10147E+05
 0.89303001E+02  0.99480E+04
 0.89352997E+02  0.99845E+04
 0.89403000E+02  0.10055E+05
 0.89453003E+02  0.10232E+05
 0.89502998E+02  0.10111E+05
 0.89553001E+02  0.97821E+04
 0.89602997E+02  0.94149E+04
 0.89653000E+02  0.93716E+04
 0.89703003E+02  0.96933E+04
 0.89752998E+02  0.99513E+04
 0.89803001E+02  0.97603E+04
 0.89852997E+02  0.94225E+04
 0.89903000E+02  0.93885E+04
 0.89953003E+02  0.93720E+04
 0.90002998E+02  0.91589E+04
 0.90053001E+02  0.87877E+04
 0.90102997E+02  0.83304E+04
 0.90153000E+02  0.79152E+04
 0.90203003E+02  0.77674E+04
 0.90252998E+02  0.79237E+04
 0.90303001E+02  0.83335E+04
 0.90352997E+02  0.88875E+04
 0.90403000E+02  0.92252E+04
 0.90453003E+02  0.93843E+04
 0.90502998E+02  0.94752E+04
 0.90553001E+02  0.96040E+04
 0.90602997E+02  0.98491E+04
 0.90653000E+02  0.10056E+05
 0.90703003E+02  0.10049E+05
 0.90752998E+02  0.98016E+04
 0.90803001E+02  0.98277E+04
 0.90852997E+02  0.10077E+05
 0.90903000E+02  0.10500E+05
 0.90953003E+02  0.10994E+05
 0.91002998E+02  0.11097E+05
 0.91053001E+02  0.10845E+05
 0.91102997E+02  0.10576E+05
 0.91153000E+02  0.10448E+05
 0.91203003E+02  0.10306E+05
 0.91252998E+02  0.10122E+05
 0.91303001E+02  0.99435E+04
 0.91352997E+02  0.10033E+05
 0.91403000E+02  0.10094E+05
 0.91453003E+02  0.10061E+05
 0.91502998E+02  0.10009E+05
 0.91553001E+02  0.98241E+04
 0.91602997E+02  0.93905E+04
 0.91653000E+02  0.87916E+04
 0.91703003E+02  0.84215E+04
 0.91752998E+02  0.82617E+04
 0.91803001E+02  0.84221E+04
 0.91852997E+02  0.86610E+04
 0.91903000E+02  0.86193E+04
 0.91953003E+02  0.83207E+04
 0.92002998E+02  0.81930E+04
 0.92053001E+02  0.82881E+04
 0.92102997E+02  0.85332E+04
 0.92153000E+02  0.87563E+04
 0.92203003E+02  0.87542E+04
 0.92252998E+02  0.89088E+04
 0.92303001E+02  0.92325E+04
 0.92352997E+02  0.96596E+04
 0.92403000E+02  0.99424E+04
 0.92453003E+02  0.10081E+05
 0.92502998E+02  0.10261E+05
 0.92553001E+02  0.10479E+05
 0.92602997E+02  0.10633E+05
 0.92653000E+02  0.10655E+05
 0.92703003E+02  0.10911E+05
 0.92752998E+02  0.10865E+05
 0.92803001E+02  0.10559E+05
 0.92852997E+02  0.10536E+05
 0.92903000E+02  0.10553E+05
 0.92953003E+02  0.10492E+05
 0.93002998E+02  0.10362E+05
 0.93053001E+02  0.10098E+05
 0.93102997E+02  0.96250E+04
 0.93153000E+02  0.92877E+04
 0.93203003E+02  0.93246E+04
 0.93252998E+02  0.95794E+04
 0.93303001E+02  0.97451E+04
 0.93352997E+02  0.96705E+04
 0.93403000E+02  0.94474E+04
 0.93453003E+02  0.94859E+04
 0.93502998E+02  0.98910E+04
 0.93553001E+02  0.10104E+05
 0.93602997E+02  0.99034E+04
 0.93653000E+02  0.94509E+04
 0.93703003E+02  0.90794E+04
 0.93752998E+02  0.90696E+04
 0.93803001E+02  0.93943E+04
 0.93852997E+02  0.97899E+04
 0.93903000E+02  0.10211E+05
 0.93953003E+02  0.10298E+05
 0.94002998E+02  0.10188E+05
 0.94053001E+02  0.10254E+05
 0.94102997E+02  0.10107E+05
 0.94153000E+02  0.99490E+04
 0.94203003E+02  0.98899E+04
 0.94252998E+02  0.97506E+04
 0.94303001E+02  0.96552E+04
 0.94352997E+02  0.97889E+04
 0.94403000E+02  0.96824E+04
 0.94453003E+02  0.94566E+04
 0.94502998E+02  0.93468E+04
 0.94553001E+02  0.90754E+04
 0.94602997E+02  0.86875E+04
 0.94653000E+02  0.84943E+04
 0.94703003E+02  0.86811E+04
 0.94752998E+02  0.87244E+04
 0.94803001E+02  0.86390E+04
 0.94852997E+02  0.83822E+04
 0.94903000E+02  0.81321E+04
 0.94953003E+02  0.79918E+04
 0.95002998E+02  0.79305E+04
 0.95053001E+02  0.82760E+04
 0.95102997E+02  0.86089E+04
 0.95153000E+02  0.86872E+04
 0.95203003E+02  0.89667E+04
 0.95252998E+02  0.94153E+04
 0.95303001E+02  0.97398E+04
 0.95352997E+02  0.99639E+04
 0.95403000E+02  0.98057E+04
 0.95453003E+02  0.95352E+04
 0.95502998E+02  0.93781E+04
 0.95553001E+02  0.94954E+04
 0.95602997E+02  0.97692E+04
 0.95653000E+02  0.10022E+05
 0.95703003E+02  0.10108E+05
 0.95752998E+02  0.10044E+05
 0.95803001E+02  0.10094E+05
 0.95852997E+02  0.10224E+05
 0.95903000E+02  0.10526E+05
 0.95953003E+02  0.10725E+05
 0.96002998E+02  0.10904E+05
 0.96053001E+02  0.11044E+05
 0.96102997E+02  0.11054E+05
 0.96153000E+02  0.10688E+05
 0.96203003E+02  0.10235E+05
 0.96252998E+02  0.10007E+05
 0.96303001E+02  0.98745E+04
 0.96352997E+02  0.98151E+04
 0.96403000E+02  0.98951E+04
 0.96453003E+02  0.10003E+05
 0.96502998E+02  0.10109E+05
 0.96553001E+02  0.10365E+05
 0.96602997E+02  0.10259E+05
 0.96653000E+02  0.97331E+04
 0.96703003E+02  0.93595E+04
 0.96752998E+02  0.93003E+04
 0.96803001E+02  0.93472E+04
 0.96852997E+02  0.95180E+04
 0.96903000E+02  0.95573E+04
 0.96953003E+02  0.94617E+04
 0.97002998E+02  0.94177E+04
 0.97053001E+02  0.93130E+04
 0.97102997E+02  0.90628E+04
 0.97153000E+02  0.90147E+04
 0.97203003E+02  0.89697E+04
 0.97252998E+02  0.89404E+04
 0.97303001E+02  0.91174E+04
 0.97352997E+02  0.92964E+04
 0.97403000E+02  0.96193E+04
 0.97453003E+02  0.97189E+04
 0.97502998E+02  0.94024E+04
 0.97553001E+02  0.90415E+04
 0.97602997E+02  0.89869E+04
 0.97653000E+02  0.91899E+04
 0.97703003E+02  0.95798E+04
 0.97752998E+02  0.98466E+04
 0.97803001E+02  0.99341E+04
 0.97852997E+02  0.99360E+04
 0.97903000E+02  0.97734E+04
 0.97953003E+02  0.96668E+04
 0.98002998E+02  0.95349E+04
