-0.20000000E+01  0.83889E+03
-0.19500000E+01  0.17922E+04
-0.19000000E+01  0.28516E+04
-0.18500000E+01  0.40291E+04
-0.18000000E+01  0.52572E+04
-0.17500000E+01  0.63988E+04
-0.17000000E+01  0.72961E+04
-0.16500001E+01  0.78919E+04
-0.16000000E+01  0.81607E+04
-0.15500000E+01  0.80631E+04
-0.15000000E+01  0.75913E+04
-0.14500000E+01  0.67972E+04
-0.14000001E+01  0.57870E+04
-0.13500000E+01  0.46076E+04
-0.13000001E+01  0.32403E+04
-0.12500000E+01  0.17109E+04
-0.12000000E+01  0.40019E+02
-0.11500001E+01 -0.17223E+04
-0.11000000E+01 -0.34361E+04
-0.10500001E+01 -0.49756E+04
-0.10000000E+01 -0.62412E+04
-0.95000005E+00 -0.71732E+04
-0.90000010E+00 -0.77397E+04
-0.85000002E+00 -0.78703E+04
-0.80000007E+00 -0.75317E+04
-0.75000012E+00 -0.67518E+04
-0.70000005E+00 -0.56634E+04
-0.65000010E+00 -0.43145E+04
-0.60000014E+00 -0.27424E+04
-0.55000007E+00 -0.10863E+04
-0.50000012E+00  0.54369E+03
-0.45000005E+00  0.20419E+04
-0.40000010E+00  0.33771E+04
-0.35000014E+00  0.45633E+04
-0.30000007E+00  0.55538E+04
-0.25000012E+00  0.62977E+04
-0.20000005E+00  0.67871E+04
-0.15000010E+00  0.70181E+04
-0.10000014E+00  0.70754E+04
-0.50000072E-01  0.70402E+04
-0.11920929E-06  0.69142E+04
 0.49999952E-01  0.67575E+04
 0.99999905E-01  0.66752E+04
 0.14999986E+00  0.66634E+04
 0.19999981E+00  0.66438E+04
 0.24999976E+00  0.65577E+04
 0.29999995E+00  0.63565E+04
 0.34999990E+00  0.60195E+04
 0.39999986E+00  0.55228E+04
 0.44999981E+00  0.48858E+04
 0.49999976E+00  0.41463E+04
 0.54999995E+00  0.33589E+04
 0.59999990E+00  0.25264E+04
 0.64999986E+00  0.16734E+04
 0.69999981E+00  0.88272E+03
 0.74999976E+00  0.20797E+03
 0.79999971E+00 -0.31385E+03
 0.84999990E+00 -0.67442E+03
 0.89999986E+00 -0.90146E+03
 0.94999981E+00 -0.99535E+03
 0.99999976E+00 -0.85096E+03
 0.10499997E+01 -0.49544E+03
 0.10999999E+01  0.13175E+02
 0.11499999E+01  0.60156E+03
 0.11999998E+01  0.11906E+04
 0.12499998E+01  0.17469E+04
 0.12999997E+01  0.22569E+04
 0.13499999E+01  0.26700E+04
 0.13999999E+01  0.29489E+04
 0.14499998E+01  0.31033E+04
 0.14999998E+01  0.31245E+04
 0.15499997E+01  0.31120E+04
 0.15999999E+01  0.31581E+04
 0.16499999E+01  0.33045E+04
 0.16999998E+01  0.35197E+04
 0.17499998E+01  0.37669E+04
 0.17999997E+01  0.39687E+04
 0.18499997E+01  0.40921E+04
 0.18999999E+01  0.41056E+04
 0.19499998E+01  0.39775E+04
 0.19999998E+01  0.36494E+04
 0.20499997E+01  0.30869E+04
 0.20999999E+01  0.23788E+04
 0.21499996E+01  0.15828E+04
 0.21999998E+01  0.79484E+03
 0.22499995E+01  0.10030E+03
 0.22999997E+01 -0.43124E+03
 0.23499999E+01 -0.78142E+03
 0.23999996E+01 -0.10451E+04
 0.24499998E+01 -0.13284E+04
 0.24999995E+01 -0.16143E+04
 0.25499997E+01 -0.18103E+04
 0.25999999E+01 -0.17906E+04
 0.26499996E+01 -0.14653E+04
 0.26999998E+01 -0.80041E+03
 0.27499995E+01  0.22901E+03
 0.27999997E+01  0.15587E+04
 0.28499999E+01  0.30708E+04
 0.28999996E+01  0.46633E+04
 0.29499998E+01  0.62387E+04
 0.29999995E+01  0.77142E+04
 0.30499997E+01  0.91139E+04
 0.30999999E+01  0.10497E+05
 0.31499996E+01  0.11875E+05
 0.31999998E+01  0.13177E+05
 0.32499995E+01  0.14307E+05
 0.32999997E+01  0.15170E+05
 0.33499999E+01  0.15696E+05
 0.33999996E+01  0.15842E+05
 0.34499998E+01  0.15655E+05
 0.34999995E+01  0.15203E+05
 0.35499997E+01  0.14435E+05
 0.35999994E+01  0.13357E+05
 0.36499996E+01  0.11962E+05
 0.36999998E+01  0.10324E+05
 0.37499995E+01  0.85285E+04
 0.37999997E+01  0.66359E+04
 0.38499994E+01  0.47067E+04
 0.38999996E+01  0.28159E+04
 0.39499998E+01  0.10690E+04
 0.39999995E+01 -0.48072E+03
 0.40499997E+01 -0.17510E+04
 0.40999994E+01 -0.26932E+04
 0.41499996E+01 -0.32644E+04
 0.41999998E+01 -0.34633E+04
 0.42499995E+01 -0.33367E+04
 0.42999997E+01 -0.29685E+04
 0.43499994E+01 -0.24653E+04
 0.43999996E+01 -0.18534E+04
 0.44499998E+01 -0.12079E+04
 0.44999995E+01 -0.62517E+03
 0.45499997E+01 -0.14750E+03
 0.45999994E+01  0.12930E+03
 0.46499996E+01  0.19380E+03
 0.46999998E+01  0.91895E+02
 0.47499995E+01 -0.17959E+03
 0.47999997E+01 -0.63541E+03
 0.48499994E+01 -0.12306E+04
 0.48999996E+01 -0.19065E+04
 0.49499998E+01 -0.26145E+04
 0.49999995E+01 -0.33647E+04
 0.50499997E+01 -0.41061E+04
 0.50999994E+01 -0.47642E+04
 0.51499996E+01 -0.53377E+04
 0.51999998E+01 -0.57725E+04
 0.52499995E+01 -0.59871E+04
 0.52999997E+01 -0.59731E+04
 0.53499994E+01 -0.57955E+04
 0.53999996E+01 -0.54731E+04
 0.54499993E+01 -0.50750E+04
 0.54999995E+01 -0.46163E+04
 0.55499997E+01 -0.41262E+04
 0.55999994E+01 -0.36809E+04
 0.56499996E+01 -0.33115E+04
 0.56999993E+01 -0.30090E+04
 0.57499995E+01 -0.27314E+04
 0.57999997E+01 -0.23903E+04
 0.58499994E+01 -0.20570E+04
 0.58999996E+01 -0.17948E+04
 0.59499993E+01 -0.16007E+04
 0.59999995E+01 -0.14982E+04
 0.60499992E+01 -0.14587E+04
 0.60999994E+01 -0.14985E+04
 0.61499996E+01 -0.16359E+04
 0.61999998E+01 -0.19108E+04
 0.62499990E+01 -0.22754E+04
 0.62999992E+01 -0.27028E+04
 0.63499994E+01 -0.31768E+04
 0.63999996E+01 -0.36663E+04
 0.64499998E+01 -0.41704E+04
 0.64999990E+01 -0.46802E+04
 0.65499992E+01 -0.51185E+04
 0.65999994E+01 -0.54020E+04
 0.66499996E+01 -0.55618E+04
 0.66999998E+01 -0.56761E+04
 0.67499990E+01 -0.58458E+04
 0.67999992E+01 -0.61564E+04
 0.68499994E+01 -0.66703E+04
 0.68999996E+01 -0.73357E+04
 0.69499998E+01 -0.80704E+04
 0.69999990E+01 -0.88675E+04
 0.70499992E+01 -0.97117E+04
 0.70999994E+01 -0.10571E+05
 0.71499996E+01 -0.11317E+05
 0.71999998E+01 -0.11890E+05
 0.72499990E+01 -0.12272E+05
 0.72999992E+01 -0.12407E+05
 0.73499994E+01 -0.12233E+05
 0.73999996E+01 -0.11716E+05
 0.74499998E+01 -0.10968E+05
 0.74999990E+01 -0.10106E+05
 0.75499992E+01 -0.91942E+04
 0.75999994E+01 -0.82677E+04
 0.76499996E+01 -0.73008E+04
 0.76999998E+01 -0.63348E+04
 0.77499990E+01 -0.53722E+04
 0.77999992E+01 -0.43851E+04
 0.78499994E+01 -0.33565E+04
 0.78999996E+01 -0.22736E+04
 0.79499998E+01 -0.11701E+04
 0.79999990E+01 -0.11757E+03
 0.80499992E+01  0.72397E+03
 0.80999994E+01  0.13538E+04
 0.81499996E+01  0.18135E+04
 0.81999998E+01  0.21840E+04
 0.82499990E+01  0.26217E+04
 0.82999992E+01  0.31992E+04
 0.83499994E+01  0.39482E+04
 0.83999996E+01  0.47999E+04
 0.84499998E+01  0.56725E+04
 0.84999990E+01  0.65741E+04
 0.85499992E+01  0.74797E+04
 0.85999994E+01  0.83048E+04
 0.86499996E+01  0.90083E+04
 0.86999998E+01  0.95892E+04
 0.87499990E+01  0.10047E+05
 0.87999992E+01  0.10419E+05
 0.88499994E+01  0.10749E+05
 0.88999996E+01  0.11002E+05
 0.89499998E+01  0.11167E+05
 0.89999990E+01  0.11203E+05
 0.90499992E+01  0.10971E+05
 0.90999994E+01  0.10357E+05
 0.91499996E+01  0.93452E+04
 0.91999989E+01  0.79990E+04
 0.92499990E+01  0.64599E+04
 0.92999992E+01  0.48608E+04
 0.93499994E+01  0.33203E+04
 0.93999996E+01  0.18752E+04
 0.94499989E+01  0.51256E+03
 0.94999990E+01 -0.74226E+03
 0.95499992E+01 -0.19061E+04
 0.95999994E+01 -0.29577E+04
 0.96499996E+01 -0.38577E+04
 0.96999989E+01 -0.46128E+04
 0.97499990E+01 -0.51870E+04
 0.97999992E+01 -0.55401E+04
 0.98499994E+01 -0.56919E+04
 0.98999996E+01 -0.56265E+04
 0.99499989E+01 -0.54196E+04
 0.99999990E+01 -0.51347E+04
 0.10049999E+02 -0.47262E+04
 0.10099999E+02 -0.41525E+04
 0.10150000E+02 -0.34197E+04
 0.10199999E+02 -0.25906E+04
 0.10249999E+02 -0.16672E+04
 0.10299999E+02 -0.69647E+03
 0.10349999E+02  0.28441E+03
 0.10400000E+02  0.12145E+04
 0.10449999E+02  0.20675E+04
 0.10499999E+02  0.28148E+04
 0.10549999E+02  0.34182E+04
 0.10599999E+02  0.38861E+04
 0.10650000E+02  0.41615E+04
 0.10699999E+02  0.42557E+04
 0.10749999E+02  0.41037E+04
 0.10799999E+02  0.37607E+04
 0.10849999E+02  0.33217E+04
 0.10900000E+02  0.28061E+04
 0.10949999E+02  0.22998E+04
 0.10999999E+02  0.18561E+04
 0.11049999E+02  0.14532E+04
 0.11099999E+02  0.10855E+04
 0.11150000E+02  0.74242E+03
 0.11199999E+02  0.46435E+03
 0.11249999E+02  0.28928E+03
 0.11299999E+02  0.26285E+03
 0.11349999E+02  0.40639E+03
 0.11400000E+02  0.60124E+03
 0.11449999E+02  0.81531E+03
 0.11499999E+02  0.98320E+03
 0.11549999E+02  0.10502E+04
 0.11599999E+02  0.10214E+04
 0.11650000E+02  0.91161E+03
 0.11699999E+02  0.78711E+03
 0.11749999E+02  0.67473E+03
 0.11799999E+02  0.56337E+03
 0.11849999E+02  0.44732E+03
 0.11900000E+02  0.33389E+03
 0.11949999E+02  0.22277E+03
 0.11999999E+02  0.10709E+03
 0.12049999E+02  0.29533E+02
 0.12099999E+02  0.26702E+02
 0.12150000E+02  0.11265E+03
 0.12199999E+02  0.27115E+03
 0.12249999E+02  0.52680E+03
 0.12299999E+02  0.86158E+03
 0.12349999E+02  0.12478E+04
 0.12400000E+02  0.17146E+04
 0.12449999E+02  0.22231E+04
 0.12499999E+02  0.27111E+04
 0.12549999E+02  0.31379E+04
 0.12599999E+02  0.34272E+04
 0.12649999E+02  0.35289E+04
 0.12699999E+02  0.34869E+04
 0.12749999E+02  0.33381E+04
 0.12799999E+02  0.31090E+04
 0.12849999E+02  0.27917E+04
 0.12899999E+02  0.23707E+04
 0.12949999E+02  0.18825E+04
 0.12999999E+02  0.13901E+04
 0.13049999E+02  0.95588E+03
 0.13099999E+02  0.59798E+03
 0.13149999E+02  0.31766E+03
 0.13199999E+02  0.41311E+02
 0.13249999E+02 -0.26997E+03
 0.13299999E+02 -0.53880E+03
 0.13349999E+02 -0.68924E+03
 0.13399999E+02 -0.63521E+03
 0.13449999E+02 -0.32291E+03
 0.13499999E+02  0.24710E+03
 0.13549999E+02  0.98712E+03
 0.13599999E+02  0.18095E+04
 0.13649999E+02  0.26325E+04
 0.13699999E+02  0.34293E+04
 0.13749999E+02  0.41607E+04
 0.13799999E+02  0.48178E+04
 0.13849999E+02  0.54355E+04
 0.13899999E+02  0.59467E+04
 0.13949999E+02  0.62794E+04
 0.13999999E+02  0.63992E+04
 0.14049999E+02  0.62993E+04
 0.14099998E+02  0.59439E+04
 0.14150000E+02  0.53225E+04
 0.14199999E+02  0.44523E+04
 0.14249998E+02  0.34366E+04
 0.14299999E+02  0.23746E+04
 0.14349998E+02  0.13746E+04
 0.14400000E+02  0.53984E+03
 0.14449999E+02 -0.14888E+03
 0.14499998E+02 -0.72255E+03
 0.14549999E+02 -0.12458E+04
 0.14599998E+02 -0.17299E+04
 0.14650000E+02 -0.21524E+04
 0.14699999E+02 -0.25155E+04
 0.14749998E+02 -0.28503E+04
 0.14799999E+02 -0.31941E+04
 0.14849998E+02 -0.34994E+04
 0.14900000E+02 -0.36694E+04
 0.14949999E+02 -0.36723E+04
 0.14999998E+02 -0.35287E+04
 0.15049999E+02 -0.32744E+04
 0.15099998E+02 -0.30374E+04
 0.15150000E+02 -0.28813E+04
 0.15199999E+02 -0.28332E+04
 0.15249998E+02 -0.28546E+04
 0.15299999E+02 -0.28750E+04
 0.15349998E+02 -0.28392E+04
 0.15400000E+02 -0.27836E+04
 0.15449999E+02 -0.27821E+04
 0.15499998E+02 -0.28581E+04
 0.15549999E+02 -0.30555E+04
 0.15599998E+02 -0.33773E+04
 0.15650000E+02 -0.38263E+04
 0.15699999E+02 -0.44679E+04
 0.15749998E+02 -0.52488E+04
 0.15799999E+02 -0.60691E+04
 0.15849998E+02 -0.69044E+04
 0.15900000E+02 -0.76609E+04
 0.15949999E+02 -0.82764E+04
 0.15999998E+02 -0.86946E+04
 0.16049999E+02 -0.89478E+04
 0.16099998E+02 -0.90343E+04
 0.16150000E+02 -0.89683E+04
 0.16199999E+02 -0.87547E+04
 0.16249998E+02 -0.83326E+04
 0.16299999E+02 -0.77029E+04
 0.16349998E+02 -0.68915E+04
 0.16400000E+02 -0.59564E+04
 0.16449999E+02 -0.48607E+04
 0.16499998E+02 -0.36214E+04
 0.16549999E+02 -0.22615E+04
 0.16599998E+02 -0.77449E+03
 0.16650000E+02  0.77063E+03
 0.16699999E+02  0.22669E+04
 0.16749998E+02  0.36193E+04
 0.16799999E+02  0.48581E+04
 0.16849998E+02  0.59644E+04
 0.16900000E+02  0.68995E+04
 0.16949999E+02  0.76591E+04
 0.16999998E+02  0.82254E+04
 0.17049999E+02  0.86121E+04
 0.17099998E+02  0.88906E+04
 0.17150000E+02  0.90762E+04
 0.17199999E+02  0.91587E+04
 0.17249998E+02  0.90781E+04
 0.17299999E+02  0.87882E+04
 0.17349998E+02  0.83921E+04
 0.17400000E+02  0.79138E+04
 0.17449999E+02  0.74198E+04
 0.17499998E+02  0.69276E+04
 0.17549999E+02  0.63920E+04
 0.17599998E+02  0.58503E+04
 0.17650000E+02  0.52244E+04
 0.17699999E+02  0.43966E+04
 0.17749998E+02  0.32986E+04
 0.17799999E+02  0.18724E+04
 0.17849998E+02  0.16562E+03
 0.17900000E+02 -0.17154E+04
 0.17949999E+02 -0.36981E+04
 0.17999998E+02 -0.56920E+04
 0.18049999E+02 -0.76132E+04
 0.18099998E+02 -0.94029E+04
 0.18150000E+02 -0.10953E+05
 0.18199999E+02 -0.12141E+05
 0.18249998E+02 -0.12975E+05
 0.18299999E+02 -0.13483E+05
 0.18349998E+02 -0.13734E+05
 0.18400000E+02 -0.13756E+05
 0.18449999E+02 -0.13494E+05
 0.18499998E+02 -0.12972E+05
 0.18549999E+02 -0.12158E+05
 0.18599998E+02 -0.11125E+05
 0.18650000E+02 -0.99515E+04
 0.18699999E+02 -0.86751E+04
 0.18749998E+02 -0.73807E+04
 0.18799999E+02 -0.61366E+04
 0.18849998E+02 -0.49865E+04
 0.18900000E+02 -0.39111E+04
 0.18949999E+02 -0.29267E+04
 0.18999998E+02 -0.20823E+04
 0.19049999E+02 -0.14190E+04
 0.19099998E+02 -0.94093E+03
 0.19150000E+02 -0.64064E+03
 0.19199999E+02 -0.45173E+03
 0.19249998E+02 -0.36745E+03
 0.19299999E+02 -0.40480E+03
 0.19349998E+02 -0.52782E+03
 0.19400000E+02 -0.75397E+03
 0.19449999E+02 -0.10748E+04
 0.19499998E+02 -0.14523E+04
 0.19549999E+02 -0.17966E+04
 0.19599998E+02 -0.21413E+04
 0.19650000E+02 -0.25654E+04
 0.19699999E+02 -0.30470E+04
 0.19749998E+02 -0.35893E+04
 0.19799999E+02 -0.41436E+04
 0.19849998E+02 -0.46849E+04
 0.19900000E+02 -0.51364E+04
 0.19949999E+02 -0.54173E+04
 0.19999998E+02 -0.54652E+04
 0.20049999E+02 -0.52738E+04
 0.20099998E+02 -0.48727E+04
 0.20150000E+02 -0.42828E+04
 0.20199999E+02 -0.36079E+04
 0.20249998E+02 -0.28698E+04
 0.20299999E+02 -0.21198E+04
 0.20349998E+02 -0.13664E+04
 0.20399998E+02 -0.60367E+03
 0.20449999E+02  0.20414E+03
 0.20499998E+02  0.10753E+04
 0.20549999E+02  0.20128E+04
 0.20599998E+02  0.30565E+04
 0.20649998E+02  0.41032E+04
 0.20699999E+02  0.51560E+04
 0.20749998E+02  0.61668E+04
 0.20799999E+02  0.71009E+04
 0.20849998E+02  0.80007E+04
 0.20899998E+02  0.87246E+04
 0.20949999E+02  0.92968E+04
 0.20999998E+02  0.96804E+04
 0.21049999E+02  0.98746E+04
 0.21099998E+02  0.99799E+04
 0.21149998E+02  0.99302E+04
 0.21199999E+02  0.97914E+04
 0.21249998E+02  0.96116E+04
 0.21299999E+02  0.93550E+04
 0.21349998E+02  0.90111E+04
 0.21399998E+02  0.85828E+04
 0.21449999E+02  0.81010E+04
 0.21499998E+02  0.76369E+04
 0.21549999E+02  0.72425E+04
 0.21599998E+02  0.69581E+04
 0.21649998E+02  0.67858E+04
 0.21699999E+02  0.67231E+04
 0.21749998E+02  0.67471E+04
 0.21799999E+02  0.67564E+04
 0.21849998E+02  0.66749E+04
 0.21899998E+02  0.64670E+04
 0.21949999E+02  0.61389E+04
 0.21999998E+02  0.57207E+04
 0.22049999E+02  0.52268E+04
 0.22099998E+02  0.46380E+04
 0.22149998E+02  0.39627E+04
 0.22199999E+02  0.32432E+04
 0.22249998E+02  0.25013E+04
 0.22299999E+02  0.17182E+04
 0.22349998E+02  0.91566E+03
 0.22399998E+02  0.11070E+03
 0.22449999E+02 -0.66030E+03
 0.22499998E+02 -0.12562E+04
 0.22549999E+02 -0.15398E+04
 0.22599998E+02 -0.14248E+04
 0.22649998E+02 -0.90497E+03
 0.22699999E+02 -0.18124E+02
 0.22749998E+02  0.11900E+04
 0.22799999E+02  0.26000E+04
 0.22849998E+02  0.41319E+04
 0.22899998E+02  0.57035E+04
 0.22949999E+02  0.71520E+04
 0.22999998E+02  0.83964E+04
 0.23049999E+02  0.93934E+04
 0.23099998E+02  0.10147E+05
 0.23149998E+02  0.10688E+05
 0.23199999E+02  0.10997E+05
 0.23249998E+02  0.11012E+05
 0.23299999E+02  0.10706E+05
 0.23349998E+02  0.10107E+05
 0.23399998E+02  0.92795E+04
 0.23449999E+02  0.82850E+04
 0.23499998E+02  0.71297E+04
 0.23549999E+02  0.58081E+04
 0.23599998E+02  0.42883E+04
 0.23649998E+02  0.26554E+04
 0.23699999E+02  0.10006E+04
 0.23749998E+02 -0.63203E+03
 0.23799999E+02 -0.21898E+04
 0.23849998E+02 -0.36615E+04
 0.23899998E+02 -0.50030E+04
 0.23949999E+02 -0.61944E+04
 0.23999998E+02 -0.72642E+04
 0.24049999E+02 -0.82022E+04
 0.24099998E+02 -0.89783E+04
 0.24149998E+02 -0.96073E+04
 0.24199999E+02 -0.10142E+05
 0.24249998E+02 -0.10659E+05
 0.24299999E+02 -0.11233E+05
 0.24349998E+02 -0.11836E+05
 0.24399998E+02 -0.12382E+05
 0.24449999E+02 -0.12883E+05
 0.24499998E+02 -0.13304E+05
 0.24549999E+02 -0.13551E+05
 0.24599998E+02 -0.13586E+05
 0.24649998E+02 -0.13454E+05
 0.24699999E+02 -0.13170E+05
 0.24749998E+02 -0.12719E+05
 0.24799999E+02 -0.12119E+05
 0.24849998E+02 -0.11412E+05
 0.24899998E+02 -0.10665E+05
 0.24949999E+02 -0.99395E+04
 0.24999998E+02 -0.93038E+04
 0.25049999E+02 -0.86826E+04
 0.25099998E+02 -0.80636E+04
 0.25149998E+02 -0.74127E+04
 0.25199999E+02 -0.67274E+04
 0.25249998E+02 -0.60774E+04
 0.25299999E+02 -0.54655E+04
 0.25349998E+02 -0.49303E+04
 0.25399998E+02 -0.44259E+04
 0.25449999E+02 -0.38883E+04
 0.25499998E+02 -0.32859E+04
 0.25549999E+02 -0.26240E+04
 0.25599998E+02 -0.17671E+04
 0.25649998E+02 -0.78520E+03
 0.25699999E+02  0.20372E+03
 0.25749998E+02  0.12605E+04
 0.25799999E+02  0.23213E+04
 0.25849998E+02  0.33728E+04
 0.25899998E+02  0.45321E+04
 0.25949999E+02  0.56360E+04
 0.25999998E+02  0.66310E+04
 0.26049999E+02  0.75847E+04
 0.26099998E+02  0.84384E+04
 0.26149998E+02  0.89096E+04
 0.26199999E+02  0.91571E+04
 0.26249998E+02  0.92050E+04
 0.26299999E+02  0.88750E+04
 0.26349998E+02  0.84858E+04
 0.26399998E+02  0.76679E+04
 0.26449999E+02  0.66361E+04
 0.26499998E+02  0.54879E+04
 0.26549999E+02  0.40786E+04
 0.26599998E+02  0.24542E+04
 0.26649998E+02  0.12103E+04
 0.26699999E+02  0.37778E+03
 0.26749998E+02 -0.11016E+03
 0.26799999E+02 -0.62304E+03
 0.26849998E+02 -0.18406E+04
 0.26899998E+02 -0.37087E+04
 0.26949999E+02 -0.58755E+04
 0.26999998E+02 -0.69895E+04
 0.27049997E+02 -0.73798E+04
 0.27099998E+02 -0.80873E+04
 0.27149998E+02 -0.80477E+04
 0.27199999E+02 -0.62460E+04
 0.27249998E+02 -0.46878E+04
 0.27299997E+02 -0.28546E+04
 0.27349998E+02 -0.84904E+03
 0.27399998E+02  0.85618E+03
 0.27449999E+02  0.28970E+04
 0.27499998E+02  0.29666E+04
 0.27549997E+02 -0.26008E+02
 0.27599998E+02 -0.38045E+04
 0.27649998E+02 -0.60337E+04
 0.27699999E+02 -0.66015E+04
 0.27749998E+02 -0.55975E+04
 0.27799997E+02 -0.27150E+04
 0.27849998E+02  0.19816E+04
 0.27899998E+02  0.68523E+04
 0.27949999E+02  0.10956E+05
 0.27999998E+02  0.16108E+05
 0.28049997E+02  0.20808E+05
 0.28099998E+02  0.20360E+05
 0.28149998E+02  0.16868E+05
 0.28199999E+02  0.15255E+05
 0.28249998E+02  0.12999E+05
 0.28299997E+02  0.94161E+04
 0.28349998E+02  0.68820E+04
 0.28399998E+02  0.79661E+04
 0.28449999E+02  0.89784E+04
 0.28499998E+02  0.87978E+04
 0.28549997E+02  0.14114E+05
 0.28599998E+02  0.18834E+05
 0.28649998E+02  0.25045E+05
 0.28699999E+02  0.32167E+05
 0.28749998E+02  0.32483E+05
 0.28799997E+02  0.25391E+05
 0.28849998E+02  0.18755E+05
 0.28899998E+02  0.18899E+05
 0.28949999E+02  0.18116E+05
 0.28999998E+02  0.19939E+05
 0.29049997E+02  0.25324E+05
 0.29099998E+02  0.24032E+05
 0.29149998E+02  0.20487E+05
 0.29199999E+02  0.23128E+05
 0.29249998E+02  0.22910E+05
 0.29299997E+02  0.23717E+05
 0.29349998E+02  0.27569E+05
 0.29399998E+02  0.20474E+05
 0.29449999E+02  0.10194E+05
 0.29499998E+02  0.11133E+05
 0.29549997E+02  0.14626E+05
 0.29599998E+02  0.21889E+05
 0.29649998E+02  0.25042E+05
 0.29699999E+02  0.19284E+05
 0.29749998E+02  0.27509E+05
 0.29799997E+02  0.29887E+05
 0.29849998E+02  0.27719E+05
 0.29899998E+02  0.30996E+05
 0.29949999E+02  0.30955E+05
 0.29999998E+02  0.28208E+05
 0.30049999E+02  0.29318E+05
 0.30099998E+02  0.31589E+05
 0.30149998E+02  0.28644E+05
 0.30199997E+02  0.25461E+05
 0.30249996E+02  0.15789E+05
 0.30299999E+02  0.19369E+05
 0.30349998E+02  0.36766E+05
 0.30399998E+02  0.45772E+05
 0.30449997E+02  0.43265E+05
 0.30499996E+02  0.40091E+05
 0.30549999E+02  0.25827E+05
 0.30599998E+02  0.11481E+05
 0.30649998E+02  0.82907E+04
 0.30699997E+02  0.33539E+04
 0.30749996E+02  0.13912E+05
 0.30799999E+02  0.20620E+05
 0.30849998E+02  0.18900E+05
 0.30899998E+02  0.14519E+05
 0.30949997E+02  0.15074E+05
 0.30999996E+02  0.18698E+05
 0.31049999E+02  0.13944E+05
 0.31099998E+02  0.64971E+04
 0.31149998E+02  0.69395E+04
 0.31199997E+02  0.80093E+04
 0.31249996E+02 -0.60398E+04
 0.31299999E+02 -0.15728E+05
 0.31349998E+02 -0.18625E+05
 0.31399998E+02 -0.13931E+05
 0.31449997E+02 -0.30821E+04
 0.31499996E+02  0.10760E+04
 0.31549999E+02 -0.10994E+05
 0.31599998E+02 -0.22109E+05
 0.31649998E+02 -0.29802E+05
 0.31699997E+02 -0.25130E+05
 0.31749996E+02 -0.46370E+04
 0.31799999E+02  0.11892E+05
 0.31849998E+02  0.34693E+05
 0.31899998E+02  0.47525E+05
 0.31949997E+02  0.38204E+05
 0.31999996E+02  0.29574E+05
 0.32049999E+02  0.23952E+05
 0.32099998E+02  0.10347E+05
 0.32149998E+02 -0.58525E+04
 0.32199997E+02 -0.22760E+05
 0.32249996E+02 -0.48912E+05
 0.32299999E+02 -0.58486E+05
 0.32349998E+02 -0.21556E+05
 0.32399998E+02  0.13743E+05
 0.32449997E+02  0.18392E+05
 0.32499996E+02  0.12640E+05
 0.32549999E+02 -0.31764E+04
 0.32599998E+02 -0.16184E+05
 0.32649998E+02 -0.31146E+05
 0.32699997E+02 -0.31755E+05
 0.32749996E+02 -0.23183E+05
 0.32799999E+02 -0.31921E+05
 0.32849998E+02 -0.44156E+05
 0.32899998E+02 -0.48886E+05
 0.32949997E+02 -0.56807E+05
 0.32999996E+02 -0.57376E+05
 0.33049999E+02 -0.40172E+05
 0.33099998E+02 -0.34219E+05
 0.33149998E+02 -0.39672E+05
 0.33199997E+02 -0.36040E+05
 0.33249996E+02 -0.28564E+05
 0.33299999E+02 -0.27522E+05
 0.33349998E+02 -0.15336E+05
 0.33399998E+02 -0.39612E+04
 0.33449997E+02  0.85055E+04
 0.33499996E+02  0.12351E+05
 0.33549999E+02 -0.76377E+04
 0.33599998E+02 -0.21759E+05
 0.33649998E+02 -0.32280E+05
 0.33699997E+02 -0.29239E+05
 0.33749996E+02 -0.18085E+05
 0.33799999E+02 -0.26386E+05
 0.33849998E+02 -0.38325E+05
 0.33899998E+02 -0.44006E+05
 0.33949997E+02 -0.51782E+05
 0.33999996E+02 -0.59598E+05
 0.34049999E+02 -0.70746E+05
 0.34099998E+02 -0.71407E+05
 0.34149998E+02 -0.56979E+05
 0.34199997E+02 -0.27702E+05
 0.34249996E+02  0.11258E+05
 0.34299999E+02  0.40197E+05
 0.34349998E+02  0.58831E+05
 0.34399998E+02  0.34094E+05
 0.34449997E+02  0.95122E+04
 0.34499996E+02  0.22049E+05
 0.34549999E+02  0.54682E+05
 0.34599998E+02  0.95640E+05
 0.34649998E+02  0.11282E+06
 0.34699997E+02  0.11349E+06
 0.34749996E+02  0.91926E+05
 0.34799999E+02  0.44816E+05
 0.34849998E+02  0.25659E+04
 0.34899998E+02 -0.18351E+05
 0.34949997E+02 -0.11129E+05
 0.34999996E+02  0.22975E+05
 0.35049999E+02  0.63795E+05
 0.35099998E+02  0.91118E+05
 0.35149998E+02  0.10091E+06
 0.35199997E+02  0.89783E+05
 0.35249996E+02  0.53672E+05
 0.35299999E+02  0.19567E+05
 0.35349998E+02 -0.37911E+04
 0.35399998E+02 -0.38977E+05
 0.35449997E+02 -0.57053E+05
 0.35499996E+02 -0.47614E+05
 0.35549999E+02 -0.37899E+05
 0.35599998E+02 -0.41188E+04
 0.35649998E+02  0.25551E+05
 0.35699997E+02  0.46247E+05
 0.35749996E+02  0.75216E+05
 0.35799999E+02  0.73658E+05
 0.35849998E+02  0.46844E+05
 0.35899998E+02  0.27143E+05
 0.35949997E+02  0.42382E+05
 0.35999996E+02  0.70504E+05
 0.36049999E+02  0.72525E+05
 0.36099998E+02  0.63701E+05
 0.36149998E+02  0.64264E+05
 0.36199997E+02  0.46947E+05
 0.36249996E+02  0.14982E+05
 0.36299999E+02 -0.15373E+05
 0.36349998E+02 -0.30188E+05
 0.36399998E+02 -0.13844E+05
 0.36449997E+02  0.87895E+04
 0.36499996E+02  0.20723E+05
 0.36549999E+02 -0.16442E+04
 0.36599998E+02 -0.50475E+05
 0.36649998E+02 -0.84223E+05
 0.36699997E+02 -0.99167E+05
 0.36749996E+02 -0.10170E+06
 0.36799999E+02 -0.83324E+05
 0.36849998E+02 -0.53616E+05
 0.36899998E+02 -0.49967E+05
 0.36949997E+02 -0.74102E+05
 0.36999996E+02 -0.90651E+05
 0.37049999E+02 -0.84761E+05
 0.37099998E+02 -0.63504E+05
 0.37149998E+02 -0.39733E+05
 0.37199997E+02 -0.17805E+05
 0.37249996E+02  0.13294E+04
 0.37299999E+02  0.58475E+04
 0.37349998E+02 -0.30197E+04
 0.37399998E+02  0.36848E+04
 0.37449997E+02  0.10824E+05
 0.37499996E+02 -0.20149E+04
 0.37549999E+02 -0.23155E+05
 0.37599998E+02 -0.65029E+05
 0.37649998E+02 -0.96625E+05
 0.37699997E+02 -0.95849E+05
 0.37749996E+02 -0.71859E+05
 0.37799999E+02 -0.33555E+05
 0.37849998E+02 -0.52367E+04
 0.37899998E+02  0.14368E+05
 0.37949997E+02  0.26797E+05
 0.37999996E+02  0.37285E+05
 0.38049999E+02  0.25371E+05
 0.38099998E+02 -0.10991E+05
 0.38149998E+02 -0.36367E+05
 0.38199997E+02 -0.38466E+05
 0.38249996E+02 -0.24135E+05
 0.38299999E+02 -0.82385E+04
 0.38349998E+02 -0.25401E+04
 0.38399998E+02 -0.11770E+05
 0.38449997E+02 -0.17917E+05
 0.38499996E+02 -0.15963E+05
 0.38549999E+02 -0.23336E+04
 0.38599998E+02  0.26352E+05
 0.38649998E+02  0.46346E+05
 0.38699997E+02  0.46293E+05
 0.38749996E+02  0.33850E+05
 0.38799999E+02  0.21303E+05
 0.38849998E+02  0.13928E+05
 0.38899998E+02 -0.84375E+04
 0.38949997E+02 -0.21228E+05
 0.38999996E+02  0.18334E+04
 0.39049999E+02  0.28579E+05
 0.39099998E+02  0.50025E+05
 0.39149998E+02  0.66979E+05
 0.39199997E+02  0.68918E+05
 0.39249996E+02  0.57053E+05
 0.39299999E+02  0.47695E+05
 0.39349998E+02  0.26007E+05
 0.39399998E+02 -0.10797E+03
 0.39449997E+02 -0.21845E+05
 0.39499996E+02 -0.46126E+05
 0.39549999E+02 -0.56401E+05
 0.39599998E+02 -0.41981E+05
 0.39649998E+02 -0.24539E+05
 0.39699997E+02 -0.10277E+05
 0.39749996E+02  0.12158E+05
 0.39799999E+02  0.17496E+05
 0.39849998E+02  0.17043E+05
 0.39899998E+02  0.86035E+04
 0.39949997E+02 -0.33014E+04
 0.39999996E+02 -0.11178E+05
 0.40049999E+02 -0.35308E+05
 0.40099998E+02 -0.66923E+05
 0.40149998E+02 -0.88578E+05
 0.40199997E+02 -0.96629E+05
 0.40249996E+02 -0.81358E+05
 0.40299999E+02 -0.49425E+05
 0.40349998E+02 -0.21965E+05
 0.40399998E+02 -0.10881E+05
 0.40449997E+02 -0.65818E+04
 0.40499996E+02  0.83398E+03
 0.40549999E+02  0.14861E+05
 0.40599998E+02  0.36956E+05
 0.40649998E+02  0.55231E+05
 0.40699997E+02  0.53572E+05
 0.40749996E+02  0.36171E+05
 0.40799999E+02  0.19533E+05
 0.40849998E+02 -0.61168E+04
 0.40899998E+02 -0.34103E+05
 0.40949997E+02 -0.51509E+05
 0.40999996E+02 -0.51730E+05
 0.41049999E+02 -0.39581E+05
 0.41099998E+02 -0.21751E+05
 0.41149998E+02 -0.85038E+04
 0.41199997E+02  0.87068E+04
 0.41249996E+02  0.32772E+05
 0.41299999E+02  0.54920E+05
 0.41349998E+02  0.59920E+05
 0.41399998E+02  0.38621E+05
 0.41449997E+02  0.33368E+04
 0.41499996E+02 -0.25533E+05
 0.41549999E+02 -0.36494E+05
 0.41599998E+02 -0.44422E+05
 0.41649998E+02 -0.53229E+05
 0.41699997E+02 -0.55854E+05
 0.41749996E+02 -0.49856E+05
 0.41799999E+02 -0.47416E+05
 0.41849998E+02 -0.42768E+05
 0.41899998E+02 -0.35919E+05
 0.41949997E+02 -0.25557E+05
 0.41999996E+02 -0.15974E+05
 0.42049999E+02 -0.11264E+05
 0.42099998E+02 -0.47994E+04
 0.42149998E+02 -0.54183E+04
 0.42199997E+02 -0.99744E+04
 0.42249996E+02 -0.18429E+05
 0.42299999E+02 -0.24863E+05
 0.42349998E+02 -0.24318E+05
 0.42399998E+02 -0.24411E+05
 0.42449997E+02 -0.31164E+05
 0.42499996E+02 -0.37458E+05
 0.42549999E+02 -0.30729E+05
 0.42599998E+02 -0.21822E+05
 0.42649998E+02 -0.21301E+05
 0.42699997E+02 -0.29638E+05
 0.42749996E+02 -0.35230E+05
 0.42799995E+02 -0.25688E+05
 0.42849998E+02 -0.18344E+04
 0.42899998E+02  0.24108E+05
 0.42949997E+02  0.28982E+05
 0.42999996E+02  0.24157E+05
 0.43049995E+02  0.83834E+04
 0.43099998E+02 -0.24830E+05
 0.43149998E+02 -0.34561E+05
 0.43199997E+02 -0.25770E+05
 0.43249996E+02 -0.21916E+05
 0.43299995E+02 -0.11932E+05
 0.43349998E+02 -0.11545E+04
 0.43399998E+02  0.14100E+05
 0.43449997E+02  0.37071E+05
 0.43499996E+02  0.49866E+05
 0.43549995E+02  0.54731E+05
 0.43599998E+02  0.55776E+05
 0.43649998E+02  0.50800E+05
 0.43699997E+02  0.32606E+05
 0.43749996E+02  0.88593E+04
 0.43799995E+02 -0.62029E+04
 0.43849998E+02 -0.86169E+04
 0.43899998E+02 -0.73125E+03
 0.43949997E+02  0.58309E+04
 0.43999996E+02  0.15882E+05
 0.44049995E+02  0.32956E+05
 0.44099998E+02  0.55449E+05
 0.44149998E+02  0.86115E+05
 0.44199997E+02  0.12051E+06
 0.44249996E+02  0.14765E+06
 0.44299995E+02  0.15575E+06
 0.44349998E+02  0.13711E+06
 0.44399998E+02  0.10617E+06
 0.44449997E+02  0.80463E+05
 0.44499996E+02  0.62993E+05
 0.44549995E+02  0.44811E+05
 0.44599998E+02  0.19627E+05
 0.44649998E+02  0.50798E+04
 0.44699997E+02  0.14875E+05
 0.44749996E+02  0.27360E+05
 0.44799995E+02  0.21268E+05
 0.44849998E+02  0.70603E+04
 0.44899998E+02 -0.88197E+04
 0.44949997E+02 -0.31414E+05
 0.44999996E+02 -0.46286E+05
 0.45049995E+02 -0.43097E+05
 0.45099998E+02 -0.32875E+05
 0.45149998E+02 -0.11328E+05
 0.45199997E+02  0.74640E+04
 0.45249996E+02  0.25679E+05
 0.45299995E+02  0.48488E+05
 0.45349998E+02  0.44016E+05
 0.45399998E+02  0.21211E+05
 0.45449997E+02  0.26557E+03
 0.45499996E+02 -0.11051E+05
 0.45549995E+02 -0.13567E+05
 0.45599998E+02 -0.15399E+05
 0.45649998E+02 -0.17595E+05
 0.45699997E+02 -0.20747E+05
 0.45749996E+02 -0.13779E+05
 0.45799995E+02 -0.50250E+04
 0.45849998E+02 -0.69403E+04
 0.45899998E+02 -0.10498E+05
 0.45949997E+02 -0.12139E+05
 0.45999996E+02 -0.16042E+05
 0.46049995E+02 -0.18299E+05
 0.46099998E+02 -0.20756E+05
 0.46149998E+02 -0.43513E+05
 0.46199997E+02 -0.89742E+05
 0.46249996E+02 -0.15570E+06
 0.46299995E+02 -0.22377E+06
 0.46349998E+02 -0.26844E+06
 0.46399998E+02 -0.28805E+06
 0.46449997E+02 -0.29226E+06
 0.46499996E+02 -0.29629E+06
 0.46549995E+02 -0.31061E+06
 0.46599998E+02 -0.33617E+06
 0.46649998E+02 -0.36428E+06
 0.46699997E+02 -0.37150E+06
 0.46749996E+02 -0.35775E+06
 0.46799995E+02 -0.35221E+06
 0.46849998E+02 -0.33803E+06
 0.46899998E+02 -0.29350E+06
 0.46949997E+02 -0.22832E+06
 0.46999996E+02 -0.14716E+06
 0.47049995E+02 -0.90067E+05
 0.47099998E+02 -0.75559E+05
 0.47149998E+02 -0.85923E+05
 0.47199997E+02 -0.11534E+06
 0.47249996E+02 -0.12490E+06
 0.47299995E+02 -0.82205E+05
 0.47349998E+02  0.36840E+04
 0.47399998E+02  0.10217E+06
 0.47449997E+02  0.19448E+06
 0.47499996E+02  0.25467E+06
 0.47549995E+02  0.26472E+06
 0.47599998E+02  0.23228E+06
 0.47649998E+02  0.15544E+06
 0.47699997E+02  0.62622E+05
 0.47749996E+02 -0.42280E+04
 0.47799995E+02 -0.49768E+04
 0.47849998E+02  0.38346E+05
 0.47899998E+02  0.52744E+05
 0.47949997E+02  0.11532E+05
 0.47999996E+02 -0.63787E+05
 0.48049995E+02 -0.15924E+06
 0.48099998E+02 -0.27593E+06
 0.48149998E+02 -0.39222E+06
 0.48199997E+02 -0.48115E+06
 0.48249996E+02 -0.51406E+06
 0.48299995E+02 -0.46508E+06
 0.48349998E+02 -0.35249E+06
 0.48399998E+02 -0.21417E+06
 0.48449997E+02 -0.97656E+05
 0.48499996E+02 -0.24367E+05
 0.48549995E+02  0.22319E+05
 0.48599998E+02  0.44774E+05
 0.48649998E+02  0.40121E+05
 0.48699997E+02  0.42619E+05
 0.48749996E+02  0.85075E+05
 0.48799995E+02  0.13616E+06
 0.48849998E+02  0.18669E+06
 0.48899998E+02  0.25202E+06
 0.48949997E+02  0.33128E+06
 0.48999996E+02  0.38813E+06
 0.49049995E+02  0.36609E+06
 0.49099998E+02  0.27030E+06
 0.49149998E+02  0.14296E+06
 0.49199997E+02  0.15759E+05
 0.49249996E+02 -0.61337E+05
 0.49299995E+02 -0.73209E+05
 0.49349998E+02 -0.59746E+05
 0.49399998E+02 -0.51667E+05
 0.49449997E+02 -0.61568E+05
 0.49499996E+02 -0.10175E+06
 0.49549995E+02 -0.17560E+06
 0.49599998E+02 -0.21652E+06
 0.49649998E+02 -0.17322E+06
 0.49699997E+02 -0.10788E+06
 0.49749996E+02 -0.82337E+05
 0.49799995E+02 -0.11656E+06
 0.49849998E+02 -0.18891E+06
 0.49899998E+02 -0.23041E+06
 0.49949997E+02 -0.17528E+06
 0.49999996E+02 -0.11384E+05
 0.50049995E+02  0.16074E+06
 0.50099998E+02  0.25814E+06
 0.50149998E+02  0.28116E+06
 0.50199997E+02  0.26414E+06
 0.50249996E+02  0.23684E+06
 0.50299995E+02  0.21369E+06
 0.50349998E+02  0.20449E+06
 0.50399998E+02  0.20139E+06
 0.50449997E+02  0.16573E+06
 0.50499996E+02  0.69641E+05
 0.50549995E+02 -0.61106E+05
 0.50599998E+02 -0.18895E+06
 0.50649998E+02 -0.25961E+06
 0.50699997E+02 -0.26517E+06
 0.50749996E+02 -0.22117E+06
 0.50799995E+02 -0.10577E+06
 0.50849998E+02  0.53664E+05
 0.50899998E+02  0.17721E+06
 0.50949997E+02  0.25426E+06
 0.50999996E+02  0.29651E+06
 0.51049995E+02  0.31636E+06
 0.51099998E+02  0.33736E+06
 0.51149998E+02  0.33963E+06
 0.51199997E+02  0.30779E+06
 0.51249996E+02  0.25158E+06
 0.51299995E+02  0.16427E+06
 0.51349998E+02  0.38297E+05
 0.51399998E+02 -0.87494E+05
 0.51449997E+02 -0.18108E+06
 0.51499996E+02 -0.23852E+06
 0.51549995E+02 -0.26427E+06
 0.51599998E+02 -0.26419E+06
 0.51649998E+02 -0.22385E+06
 0.51699997E+02 -0.12481E+06
 0.51749996E+02  0.43883E+04
 0.51799995E+02  0.12416E+06
 0.51849998E+02  0.20537E+06
 0.51899998E+02  0.22698E+06
 0.51949997E+02  0.20966E+06
 0.51999996E+02  0.14769E+06
 0.52049995E+02  0.58981E+05
 0.52099998E+02  0.18703E+05
 0.52149998E+02  0.40621E+05
 0.52199997E+02  0.11869E+06
 0.52249996E+02  0.20181E+06
 0.52299995E+02  0.20227E+06
 0.52349998E+02  0.12300E+06
 0.52399998E+02 -0.14239E+05
 0.52449997E+02 -0.16741E+06
 0.52499996E+02 -0.25405E+06
 0.52549995E+02 -0.23693E+06
 0.52599998E+02 -0.13602E+06
 0.52649998E+02 -0.99843E+03
 0.52699997E+02  0.11855E+06
 0.52749996E+02  0.17528E+06
 0.52799995E+02  0.16982E+06
 0.52849998E+02  0.92151E+05
 0.52899998E+02 -0.19914E+05
 0.52949997E+02 -0.10706E+06
 0.52999996E+02 -0.17199E+06
 0.53049995E+02 -0.16800E+06
 0.53099998E+02 -0.87608E+05
 0.53149998E+02 -0.65078E+04
 0.53199997E+02  0.52436E+05
 0.53249996E+02  0.10036E+06
 0.53299995E+02  0.12455E+06
 0.53349998E+02  0.14405E+06
 0.53399998E+02  0.13846E+06
 0.53449997E+02  0.11850E+06
 0.53499996E+02  0.11006E+06
 0.53549995E+02  0.77782E+05
 0.53599998E+02  0.34265E+05
 0.53649998E+02  0.80795E+04
 0.53699997E+02 -0.18363E+05
 0.53749996E+02 -0.46346E+05
 0.53799995E+02 -0.40825E+05
 0.53849998E+02 -0.17852E+05
 0.53899998E+02 -0.70264E+04
 0.53949997E+02  0.16072E+05
 0.53999996E+02  0.71494E+05
 0.54049995E+02  0.14569E+06
 0.54099998E+02  0.19800E+06
 0.54149998E+02  0.21366E+06
 0.54199997E+02  0.22155E+06
 0.54249996E+02  0.22972E+06
 0.54299995E+02  0.24654E+06
 0.54349998E+02  0.27462E+06
 0.54399998E+02  0.28923E+06
 0.54449997E+02  0.27149E+06
 0.54499996E+02  0.22256E+06
 0.54549995E+02  0.13671E+06
 0.54599998E+02  0.34287E+05
 0.54649998E+02 -0.38189E+05
 0.54699997E+02 -0.57534E+05
 0.54749996E+02 -0.33099E+05
 0.54799995E+02  0.27651E+04
 0.54849998E+02  0.36139E+05
 0.54899998E+02  0.47600E+05
 0.54949997E+02  0.45089E+05
 0.54999996E+02  0.74572E+05
 0.55049995E+02  0.14280E+06
 0.55099998E+02  0.21099E+06
 0.55149998E+02  0.26467E+06
 0.55199997E+02  0.30421E+06
 0.55249996E+02  0.31488E+06
 0.55299995E+02  0.31584E+06
 0.55349998E+02  0.32489E+06
 0.55399998E+02  0.33513E+06
 0.55449997E+02  0.31312E+06
 0.55499996E+02  0.24102E+06
 0.55549995E+02  0.15753E+06
 0.55599998E+02  0.84101E+05
 0.55649998E+02  0.30233E+05
 0.55699997E+02  0.99835E+04
 0.55749996E+02  0.16300E+05
 0.55799995E+02  0.46745E+05
 0.55849995E+02  0.10081E+06
 0.55899998E+02  0.15416E+06
 0.55949997E+02  0.19332E+06
 0.55999996E+02  0.20045E+06
 0.56049995E+02  0.16203E+06
 0.56099995E+02  0.11443E+06
 0.56149998E+02  0.11914E+06
 0.56199997E+02  0.19858E+06
 0.56249996E+02  0.29379E+06
 0.56299995E+02  0.34928E+06
 0.56349995E+02  0.35400E+06
 0.56399998E+02  0.30505E+06
 0.56449997E+02  0.23935E+06
 0.56499996E+02  0.17712E+06
 0.56549995E+02  0.10914E+06
 0.56599995E+02  0.56261E+05
 0.56649998E+02  0.23832E+05
 0.56699997E+02  0.10467E+05
 0.56749996E+02  0.39491E+04
 0.56799995E+02  0.33046E+04
 0.56849995E+02  0.65836E+04
 0.56899998E+02 -0.57226E+04
 0.56949997E+02 -0.48960E+05
 0.56999996E+02 -0.12673E+06
 0.57049995E+02 -0.22016E+06
 0.57099995E+02 -0.28523E+06
 0.57149998E+02 -0.29925E+06
 0.57199997E+02 -0.29992E+06
 0.57249996E+02 -0.30212E+06
 0.57299995E+02 -0.30007E+06
 0.57349995E+02 -0.28515E+06
 0.57399998E+02 -0.25999E+06
 0.57449997E+02 -0.23495E+06
 0.57499996E+02 -0.21527E+06
 0.57549995E+02 -0.19631E+06
 0.57599995E+02 -0.17954E+06
 0.57649998E+02 -0.15842E+06
 0.57699997E+02 -0.12908E+06
 0.57749996E+02 -0.11672E+06
 0.57799995E+02 -0.11150E+06
 0.57849995E+02 -0.13211E+06
 0.57899998E+02 -0.19072E+06
 0.57949997E+02 -0.24598E+06
 0.57999996E+02 -0.26952E+06
 0.58049995E+02 -0.25363E+06
 0.58099995E+02 -0.19666E+06
 0.58149998E+02 -0.12140E+06
 0.58199997E+02 -0.69560E+05
 0.58249996E+02 -0.50592E+05
 0.58299995E+02 -0.59728E+05
 0.58349995E+02 -0.95464E+05
 0.58399998E+02 -0.14235E+06
 0.58449997E+02 -0.17920E+06
 0.58499996E+02 -0.19404E+06
 0.58549995E+02 -0.19402E+06
 0.58599995E+02 -0.18641E+06
 0.58649998E+02 -0.17257E+06
 0.58699997E+02 -0.19273E+06
 0.58749996E+02 -0.26294E+06
 0.58799995E+02 -0.35486E+06
 0.58849995E+02 -0.43350E+06
 0.58899998E+02 -0.46194E+06
 0.58949997E+02 -0.43710E+06
 0.58999996E+02 -0.35079E+06
 0.59049995E+02 -0.22293E+06
 0.59099995E+02 -0.93306E+05
 0.59149998E+02  0.29019E+05
 0.59199997E+02  0.14088E+06
 0.59249996E+02  0.23361E+06
 0.59299995E+02  0.30262E+06
 0.59349995E+02  0.35660E+06
 0.59399998E+02  0.39130E+06
 0.59449997E+02  0.40142E+06
 0.59499996E+02  0.39766E+06
 0.59549995E+02  0.38135E+06
 0.59599995E+02  0.34312E+06
 0.59649998E+02  0.27824E+06
 0.59699997E+02  0.19815E+06
 0.59749996E+02  0.13189E+06
 0.59799995E+02  0.90832E+05
 0.59849995E+02  0.68932E+05
 0.59899998E+02  0.66541E+05
 0.59949997E+02  0.82898E+05
 0.59999996E+02  0.10716E+06
 0.60049995E+02  0.14577E+06
 0.60099995E+02  0.18569E+06
 0.60149998E+02  0.18869E+06
 0.60199997E+02  0.14032E+06
 0.60249996E+02  0.69393E+05
 0.60299995E+02  0.15476E+05
 0.60349995E+02 -0.21045E+05
 0.60399998E+02 -0.49314E+05
 0.60449997E+02 -0.72488E+05
 0.60499996E+02 -0.95023E+05
 0.60549995E+02 -0.11946E+06
 0.60599995E+02 -0.14192E+06
 0.60649998E+02 -0.14685E+06
 0.60699997E+02 -0.11868E+06
 0.60749996E+02 -0.69830E+05
 0.60799995E+02 -0.88348E+04
 0.60849995E+02  0.62929E+05
 0.60899998E+02  0.12934E+06
 0.60949997E+02  0.18702E+06
 0.60999996E+02  0.23340E+06
 0.61049995E+02  0.25381E+06
 0.61099995E+02  0.25169E+06
 0.61149998E+02  0.24971E+06
 0.61199997E+02  0.25776E+06
 0.61249996E+02  0.28085E+06
 0.61299995E+02  0.31682E+06
 0.61349995E+02  0.35322E+06
 0.61399998E+02  0.37562E+06
 0.61449997E+02  0.36224E+06
 0.61499996E+02  0.30789E+06
 0.61549995E+02  0.22771E+06
 0.61599995E+02  0.13869E+06
 0.61649998E+02  0.63730E+05
 0.61699997E+02  0.14444E+05
 0.61749996E+02 -0.83832E+04
 0.61799995E+02 -0.10890E+05
 0.61849995E+02 -0.13242E+05
 0.61899998E+02 -0.27051E+05
 0.61949997E+02 -0.53393E+05
 0.61999996E+02 -0.72988E+05
 0.62049995E+02 -0.68027E+05
 0.62099998E+02 -0.56400E+05
 0.62149994E+02 -0.61070E+05
 0.62199997E+02 -0.84780E+05
 0.62249992E+02 -0.12325E+06
 0.62299995E+02 -0.16599E+06
 0.62349998E+02 -0.20054E+06
 0.62399994E+02 -0.22432E+06
 0.62449997E+02 -0.22728E+06
 0.62499992E+02 -0.20032E+06
 0.62549995E+02 -0.15620E+06
 0.62599998E+02 -0.10399E+06
 0.62649994E+02 -0.45893E+05
 0.62699997E+02  0.50550E+04
 0.62749992E+02  0.50563E+05
 0.62799995E+02  0.84977E+05
 0.62849998E+02  0.88016E+05
 0.62899994E+02  0.62241E+05
 0.62949997E+02  0.19676E+05
 0.62999992E+02 -0.26653E+05
 0.63049995E+02 -0.66217E+05
 0.63099998E+02 -0.95074E+05
 0.63149994E+02 -0.10505E+06
 0.63199997E+02 -0.87372E+05
 0.63249992E+02 -0.43302E+05
 0.63299995E+02  0.20688E+05
 0.63349998E+02  0.83840E+05
 0.63399994E+02  0.12126E+06
 0.63449997E+02  0.13041E+06
 0.63499992E+02  0.11220E+06
 0.63549995E+02  0.61518E+05
 0.63599998E+02 -0.11370E+05
 0.63649994E+02 -0.91856E+05
 0.63699997E+02 -0.17231E+06
 0.63749992E+02 -0.24341E+06
 0.63799995E+02 -0.31209E+06
 0.63849998E+02 -0.37657E+06
 0.63899994E+02 -0.41602E+06
 0.63949997E+02 -0.43463E+06
 0.63999992E+02 -0.43466E+06
 0.64049995E+02 -0.41416E+06
 0.64099998E+02 -0.37766E+06
 0.64149994E+02 -0.33124E+06
 0.64199997E+02 -0.28725E+06
 0.64249992E+02 -0.24687E+06
 0.64299995E+02 -0.21234E+06
 0.64349998E+02 -0.18755E+06
 0.64399994E+02 -0.16958E+06
 0.64449997E+02 -0.15458E+06
 0.64499992E+02 -0.14518E+06
 0.64549995E+02 -0.14228E+06
 0.64599998E+02 -0.14085E+06
 0.64649994E+02 -0.13820E+06
 0.64699997E+02 -0.13144E+06
 0.64749992E+02 -0.11500E+06
 0.64799995E+02 -0.95906E+05
 0.64849998E+02 -0.89880E+05
 0.64899994E+02 -0.97531E+05
 0.64949997E+02 -0.10558E+06
 0.64999992E+02 -0.10118E+06
 0.65049995E+02 -0.90819E+05
 0.65099998E+02 -0.81839E+05
 0.65149994E+02 -0.64355E+05
 0.65199997E+02 -0.43292E+05
 0.65249992E+02 -0.31650E+05
 0.65299995E+02 -0.30219E+05
 0.65349998E+02 -0.29998E+05
 0.65399994E+02 -0.23336E+05
 0.65449997E+02 -0.88212E+04
 0.65499992E+02  0.18095E+05
 0.65549995E+02  0.56712E+05
 0.65599998E+02  0.10706E+06
 0.65649994E+02  0.15372E+06
 0.65699997E+02  0.17355E+06
 0.65749992E+02  0.16642E+06
 0.65799995E+02  0.14754E+06
 0.65849998E+02  0.13331E+06
 0.65899994E+02  0.12445E+06
 0.65949997E+02  0.11586E+06
 0.65999992E+02  0.10689E+06
 0.66049995E+02  0.91772E+05
 0.66099998E+02  0.73279E+05
 0.66149994E+02  0.54011E+05
 0.66199997E+02  0.32885E+05
 0.66249992E+02  0.24746E+05
 0.66299995E+02  0.38085E+05
 0.66349998E+02  0.62563E+05
 0.66399994E+02  0.86389E+05
 0.66449997E+02  0.10311E+06
 0.66499992E+02  0.10768E+06
 0.66549995E+02  0.10289E+06
 0.66599998E+02  0.91214E+05
 0.66649994E+02  0.72186E+05
 0.66699997E+02  0.42343E+05
 0.66749992E+02  0.48170E+04
 0.66799995E+02 -0.31068E+05
 0.66849998E+02 -0.61843E+05
 0.66899994E+02 -0.85893E+05
 0.66949997E+02 -0.10279E+06
 0.66999992E+02 -0.10239E+06
 0.67049995E+02 -0.87119E+05
 0.67099998E+02 -0.72361E+05
 0.67149994E+02 -0.60696E+05
 0.67199997E+02 -0.45048E+05
 0.67249992E+02 -0.26483E+05
 0.67299995E+02 -0.92169E+04
 0.67349998E+02  0.96785E+04
 0.67399994E+02  0.27387E+05
 0.67449997E+02  0.41162E+05
 0.67499992E+02  0.50101E+05
 0.67549995E+02  0.59919E+05
 0.67599998E+02  0.73428E+05
 0.67649994E+02  0.92432E+05
 0.67699997E+02  0.12023E+06
 0.67749992E+02  0.14823E+06
 0.67799995E+02  0.16669E+06
 0.67849998E+02  0.17300E+06
 0.67899994E+02  0.17437E+06
 0.67949997E+02  0.17798E+06
 0.67999992E+02  0.17770E+06
 0.68049995E+02  0.16100E+06
 0.68099998E+02  0.12461E+06
 0.68149994E+02  0.71548E+05
 0.68199997E+02  0.12955E+05
 0.68249992E+02 -0.36287E+05
 0.68299995E+02 -0.69079E+05
 0.68349998E+02 -0.86352E+05
 0.68399994E+02 -0.96690E+05
 0.68449997E+02 -0.10530E+06
 0.68499992E+02 -0.11257E+06
 0.68549995E+02 -0.12079E+06
 0.68599998E+02 -0.12868E+06
 0.68649994E+02 -0.13092E+06
 0.68699997E+02 -0.12336E+06
 0.68749992E+02 -0.10480E+06
 0.68799995E+02 -0.78631E+05
 0.68849998E+02 -0.52203E+05
 0.68899994E+02 -0.28359E+05
 0.68949997E+02 -0.13837E+04
 0.68999992E+02  0.35507E+05
 0.69049995E+02  0.81064E+05
 0.69099998E+02  0.12719E+06
 0.69149994E+02  0.16544E+06
 0.69199997E+02  0.19334E+06
 0.69249992E+02  0.20438E+06
 0.69299995E+02  0.18843E+06
 0.69349998E+02  0.15314E+06
 0.69399994E+02  0.10832E+06
 0.69449997E+02  0.59493E+05
 0.69499992E+02  0.12325E+05
 0.69549995E+02 -0.29352E+05
 0.69599998E+02 -0.62522E+05
 0.69649994E+02 -0.85815E+05
 0.69699997E+02 -0.97891E+05
 0.69749992E+02 -0.10381E+06
 0.69799995E+02 -0.10809E+06
 0.69849998E+02 -0.11164E+06
 0.69899994E+02 -0.11277E+06
 0.69949997E+02 -0.11447E+06
 0.69999992E+02 -0.12231E+06
 0.70049995E+02 -0.13606E+06
 0.70099998E+02 -0.15178E+06
 0.70149994E+02 -0.16405E+06
 0.70199997E+02 -0.17525E+06
 0.70249992E+02 -0.19249E+06
 0.70299995E+02 -0.21966E+06
 0.70349998E+02 -0.25432E+06
 0.70399994E+02 -0.28100E+06
 0.70449997E+02 -0.29074E+06
 0.70499992E+02 -0.28472E+06
 0.70549995E+02 -0.26168E+06
 0.70599998E+02 -0.23048E+06
 0.70649994E+02 -0.19974E+06
 0.70699997E+02 -0.16889E+06
 0.70749992E+02 -0.13144E+06
 0.70799995E+02 -0.86620E+05
 0.70849998E+02 -0.47944E+05
 0.70899994E+02 -0.29105E+05
 0.70949997E+02 -0.24809E+05
 0.70999992E+02 -0.21299E+05
 0.71049995E+02 -0.97238E+04
 0.71099998E+02  0.12694E+05
 0.71149994E+02  0.40760E+05
 0.71199997E+02  0.63771E+05
 0.71249992E+02  0.76733E+05
 0.71299995E+02  0.82424E+05
 0.71349998E+02  0.80042E+05
 0.71399994E+02  0.69225E+05
 0.71449997E+02  0.53821E+05
 0.71499992E+02  0.42900E+05
 0.71549995E+02  0.35441E+05
 0.71599998E+02  0.26740E+05
 0.71649994E+02  0.17479E+05
 0.71699997E+02  0.13924E+05
 0.71749992E+02  0.23459E+05
 0.71799995E+02  0.41585E+05
 0.71849998E+02  0.60668E+05
 0.71899994E+02  0.72649E+05
 0.71949997E+02  0.79244E+05
 0.71999992E+02  0.84277E+05
 0.72049995E+02  0.83842E+05
 0.72099998E+02  0.75280E+05
 0.72149994E+02  0.55796E+05
 0.72199997E+02  0.27092E+05
 0.72249992E+02 -0.79411E+04
 0.72299995E+02 -0.40045E+05
 0.72349998E+02 -0.52196E+05
 0.72399994E+02 -0.39089E+05
 0.72449997E+02 -0.13829E+05
 0.72499992E+02  0.99185E+04
 0.72549995E+02  0.30728E+05
 0.72599998E+02  0.46229E+05
 0.72649994E+02  0.54899E+05
 0.72699997E+02  0.61754E+05
 0.72749992E+02  0.66717E+05
 0.72799995E+02  0.66301E+05
 0.72849998E+02  0.62673E+05
 0.72899994E+02  0.59636E+05
 0.72949997E+02  0.53871E+05
 0.72999992E+02  0.44027E+05
 0.73049995E+02  0.33061E+05
 0.73099998E+02  0.18644E+05
 0.73149994E+02  0.22777E+04
 0.73199997E+02 -0.11772E+05
 0.73249992E+02 -0.21457E+05
 0.73299995E+02 -0.26087E+05
 0.73349998E+02 -0.23158E+05
 0.73399994E+02 -0.10411E+05
 0.73449997E+02  0.99309E+04
 0.73499992E+02  0.34783E+05
 0.73549995E+02  0.56650E+05
 0.73599998E+02  0.69242E+05
 0.73649994E+02  0.73927E+05
 0.73699997E+02  0.76929E+05
 0.73749992E+02  0.82835E+05
 0.73799995E+02  0.89369E+05
 0.73849998E+02  0.89889E+05
 0.73899994E+02  0.81412E+05
 0.73949997E+02  0.65830E+05
 0.73999992E+02  0.46401E+05
 0.74049995E+02  0.23750E+05
 0.74099998E+02 -0.39643E+04
 0.74149994E+02 -0.36228E+05
 0.74199997E+02 -0.68589E+05
 0.74249992E+02 -0.91754E+05
 0.74299995E+02 -0.98510E+05
 0.74349998E+02 -0.87422E+05
 0.74399994E+02 -0.60093E+05
 0.74449997E+02 -0.21788E+05
 0.74499992E+02  0.22527E+05
 0.74549995E+02  0.69929E+05
 0.74599998E+02  0.12032E+06
 0.74649994E+02  0.16978E+06
 0.74699997E+02  0.20536E+06
 0.74749992E+02  0.21868E+06
 0.74799995E+02  0.21092E+06
 0.74849998E+02  0.18676E+06
 0.74899994E+02  0.15492E+06
 0.74949997E+02  0.12342E+06
 0.74999992E+02  0.96727E+05
 0.75049995E+02  0.76113E+05
 0.75099998E+02  0.59142E+05
 0.75149994E+02  0.48108E+05
 0.75199997E+02  0.51201E+05
 0.75249992E+02  0.69211E+05
 0.75299995E+02  0.95682E+05
 0.75349998E+02  0.12267E+06
 0.75399994E+02  0.13983E+06
 0.75449997E+02  0.14462E+06
 0.75499992E+02  0.13918E+06
 0.75549995E+02  0.12687E+06
 0.75599998E+02  0.11249E+06
 0.75649994E+02  0.94022E+05
 0.75699997E+02  0.69268E+05
 0.75749992E+02  0.44489E+05
 0.75799995E+02  0.21132E+05
 0.75849998E+02 -0.56800E+04
 0.75899994E+02 -0.33382E+05
 0.75949997E+02 -0.58502E+05
 0.75999992E+02 -0.79991E+05
 0.76049995E+02 -0.95803E+05
 0.76099998E+02 -0.10625E+06
 0.76149994E+02 -0.10894E+06
 0.76199997E+02 -0.10151E+06
 0.76249992E+02 -0.89294E+05
 0.76299995E+02 -0.77653E+05
 0.76349998E+02 -0.67098E+05
 0.76399994E+02 -0.58775E+05
 0.76449997E+02 -0.53815E+05
 0.76499992E+02 -0.51291E+05
 0.76549995E+02 -0.46511E+05
 0.76599998E+02 -0.34965E+05
 0.76649994E+02 -0.19140E+05
 0.76699997E+02 -0.21392E+04
 0.76749992E+02  0.10325E+05
 0.76799995E+02  0.12474E+05
 0.76849998E+02  0.44721E+04
 0.76899994E+02 -0.11333E+05
 0.76949997E+02 -0.28234E+05
 0.76999992E+02 -0.40282E+05
 0.77049995E+02 -0.48231E+05
 0.77099998E+02 -0.54512E+05
 0.77149994E+02 -0.60779E+05
 0.77199997E+02 -0.65048E+05
 0.77249992E+02 -0.62660E+05
 0.77299995E+02 -0.52129E+05
 0.77349998E+02 -0.34280E+05
 0.77399994E+02 -0.10363E+05
 0.77449997E+02  0.15620E+05
 0.77499992E+02  0.35841E+05
 0.77549995E+02  0.48313E+05
 0.77599998E+02  0.54143E+05
 0.77649994E+02  0.53889E+05
 0.77699997E+02  0.52623E+05
 0.77749992E+02  0.54796E+05
 0.77799995E+02  0.63581E+05
 0.77849998E+02  0.81072E+05
 0.77899994E+02  0.10119E+06
 0.77949997E+02  0.11459E+06
 0.77999992E+02  0.11944E+06
 0.78049995E+02  0.11664E+06
 0.78099998E+02  0.11012E+06
 0.78149994E+02  0.10503E+06
 0.78199997E+02  0.10351E+06
 0.78249992E+02  0.10482E+06
 0.78299995E+02  0.10803E+06
 0.78349998E+02  0.11197E+06
 0.78399994E+02  0.10797E+06
 0.78449997E+02  0.90240E+05
 0.78499992E+02  0.61130E+05
 0.78549995E+02  0.25570E+05
 0.78599998E+02 -0.13039E+05
 0.78649994E+02 -0.54085E+05
 0.78699997E+02 -0.94552E+05
 0.78749992E+02 -0.13060E+06
 0.78799995E+02 -0.15930E+06
 0.78849998E+02 -0.17779E+06
 0.78899994E+02 -0.18798E+06
 0.78949997E+02 -0.19518E+06
 0.78999992E+02 -0.20149E+06
 0.79049995E+02 -0.20634E+06
 0.79099998E+02 -0.20466E+06
 0.79149994E+02 -0.19401E+06
 0.79199997E+02 -0.17725E+06
 0.79249992E+02 -0.15866E+06
 0.79299995E+02 -0.14275E+06
 0.79349998E+02 -0.13184E+06
 0.79399994E+02 -0.12379E+06
 0.79449997E+02 -0.11389E+06
 0.79499992E+02 -0.99384E+05
 0.79549995E+02 -0.80850E+05
 0.79599998E+02 -0.63173E+05
 0.79649994E+02 -0.46185E+05
 0.79699997E+02 -0.27848E+05
 0.79749992E+02 -0.96790E+04
 0.79799995E+02  0.50744E+04
 0.79849998E+02  0.15962E+05
 0.79899994E+02  0.21371E+05
 0.79949997E+02  0.18154E+05
 0.79999992E+02  0.78589E+04
 0.80049995E+02 -0.44402E+04
 0.80099998E+02 -0.15485E+05
 0.80149994E+02 -0.27351E+05
 0.80199997E+02 -0.37471E+05
 0.80249992E+02 -0.42676E+05
 0.80299995E+02 -0.43948E+05
 0.80349998E+02 -0.44362E+05
 0.80399994E+02 -0.49003E+05
 0.80449997E+02 -0.59257E+05
 0.80499992E+02 -0.73352E+05
 0.80549995E+02 -0.89992E+05
 0.80599998E+02 -0.10622E+06
 0.80649994E+02 -0.11800E+06
 0.80699997E+02 -0.12099E+06
 0.80749992E+02 -0.11005E+06
 0.80799995E+02 -0.83232E+05
 0.80849998E+02 -0.43070E+05
 0.80899994E+02  0.62914E+04
 0.80949997E+02  0.58703E+05
 0.80999992E+02  0.10583E+06
 0.81049995E+02  0.14354E+06
 0.81099998E+02  0.17219E+06
 0.81149994E+02  0.19437E+06
 0.81199997E+02  0.21099E+06
 0.81249992E+02  0.22058E+06
 0.81299995E+02  0.22343E+06
 0.81349998E+02  0.22218E+06
 0.81399994E+02  0.22031E+06
 0.81449997E+02  0.21849E+06
 0.81499992E+02  0.21679E+06
 0.81549995E+02  0.21627E+06
 0.81599998E+02  0.21494E+06
 0.81649994E+02  0.20871E+06
 0.81699997E+02  0.19555E+06
 0.81749992E+02  0.17634E+06
 0.81799995E+02  0.15510E+06
 0.81849998E+02  0.13432E+06
 0.81899994E+02  0.11469E+06
 0.81949997E+02  0.96799E+05
 0.81999992E+02  0.80146E+05
 0.82049995E+02  0.65517E+05
 0.82099998E+02  0.51818E+05
 0.82149994E+02  0.37982E+05
 0.82199997E+02  0.23739E+05
 0.82249992E+02  0.76464E+04
 0.82299995E+02 -0.97918E+04
 0.82349998E+02 -0.27184E+05
 0.82399994E+02 -0.43495E+05
 0.82449997E+02 -0.55946E+05
 0.82499992E+02 -0.63522E+05
 0.82549995E+02 -0.66469E+05
 0.82599998E+02 -0.65503E+05
 0.82649994E+02 -0.64000E+05
 0.82699997E+02 -0.64317E+05
 0.82749992E+02 -0.70085E+05
 0.82799995E+02 -0.80477E+05
 0.82849998E+02 -0.89990E+05
 0.82899994E+02 -0.96759E+05
 0.82949997E+02 -0.99771E+05
 0.82999992E+02 -0.98021E+05
 0.83049995E+02 -0.90695E+05
 0.83099998E+02 -0.79449E+05
 0.83149994E+02 -0.67766E+05
 0.83199997E+02 -0.57403E+05
 0.83249992E+02 -0.49308E+05
 0.83299995E+02 -0.43501E+05
 0.83349998E+02 -0.40413E+05
 0.83399994E+02 -0.40552E+05
 0.83449997E+02 -0.43124E+05
 0.83499992E+02 -0.47643E+05
 0.83549995E+02 -0.55713E+05
 0.83599998E+02 -0.67603E+05
 0.83649994E+02 -0.78553E+05
 0.83699997E+02 -0.81274E+05
 0.83749992E+02 -0.74445E+05
 0.83799995E+02 -0.62188E+05
 0.83849998E+02 -0.48055E+05
 0.83899994E+02 -0.36716E+05
 0.83949997E+02 -0.28599E+05
 0.83999992E+02 -0.20649E+05
 0.84049995E+02 -0.12767E+05
 0.84099998E+02 -0.68957E+04
 0.84149994E+02 -0.48797E+04
 0.84199997E+02 -0.48423E+04
 0.84249992E+02 -0.14059E+04
 0.84299995E+02  0.94652E+04
 0.84349998E+02  0.29720E+05
 0.84399994E+02  0.58853E+05
 0.84449997E+02  0.91305E+05
 0.84499992E+02  0.12114E+06
 0.84549995E+02  0.14570E+06
 0.84599998E+02  0.16326E+06
 0.84649994E+02  0.17307E+06
 0.84699997E+02  0.17555E+06
 0.84749992E+02  0.17438E+06
 0.84799995E+02  0.17325E+06
 0.84849998E+02  0.17135E+06
 0.84899994E+02  0.16989E+06
 0.84949997E+02  0.16835E+06
 0.84999992E+02  0.16176E+06
 0.85049995E+02  0.14669E+06
 0.85099998E+02  0.12207E+06
 0.85149994E+02  0.91202E+05
 0.85199997E+02  0.60371E+05
 0.85249992E+02  0.33431E+05
 0.85299995E+02  0.12318E+05
 0.85349998E+02 -0.23891E+04
 0.85399994E+02 -0.13618E+05
 0.85449997E+02 -0.24234E+05
 0.85499992E+02 -0.36672E+05
 0.85549995E+02 -0.53277E+05
 0.85599998E+02 -0.71652E+05
 0.85649994E+02 -0.88718E+05
 0.85699997E+02 -0.10355E+06
 0.85749992E+02 -0.11551E+06
 0.85799995E+02 -0.12585E+06
 0.85849998E+02 -0.13446E+06
 0.85899994E+02 -0.14194E+06
 0.85949997E+02 -0.15012E+06
 0.85999992E+02 -0.15710E+06
 0.86049995E+02 -0.16231E+06
 0.86099998E+02 -0.16501E+06
 0.86149994E+02 -0.16231E+06
 0.86199997E+02 -0.15262E+06
 0.86249992E+02 -0.13684E+06
 0.86299995E+02 -0.11932E+06
 0.86349998E+02 -0.10187E+06
 0.86399994E+02 -0.84024E+05
 0.86449997E+02 -0.66486E+05
 0.86499992E+02 -0.51385E+05
 0.86549995E+02 -0.41449E+05
 0.86599998E+02 -0.37016E+05
 0.86649994E+02 -0.37138E+05
 0.86699997E+02 -0.39273E+05
 0.86749992E+02 -0.38800E+05
 0.86799995E+02 -0.33504E+05
 0.86849998E+02 -0.25933E+05
 0.86899994E+02 -0.20614E+05
 0.86949997E+02 -0.19967E+05
 0.86999992E+02 -0.23818E+05
 0.87049995E+02 -0.30377E+05
 0.87099998E+02 -0.37615E+05
 0.87149994E+02 -0.43631E+05
 0.87199997E+02 -0.45939E+05
 0.87249992E+02 -0.44853E+05
 0.87299995E+02 -0.45374E+05
 0.87349998E+02 -0.51103E+05
 0.87399994E+02 -0.58761E+05
 0.87449997E+02 -0.64135E+05
 0.87499992E+02 -0.65642E+05
 0.87549995E+02 -0.61279E+05
 0.87599991E+02 -0.51883E+05
 0.87649994E+02 -0.41341E+05
 0.87699997E+02 -0.31648E+05
 0.87749992E+02 -0.24475E+05
 0.87799995E+02 -0.19690E+05
 0.87849991E+02 -0.16165E+05
 0.87899994E+02 -0.12860E+05
 0.87949997E+02 -0.88517E+04
 0.87999992E+02 -0.51373E+04
 0.88049995E+02 -0.22934E+04
 0.88099991E+02  0.49948E+03
 0.88149994E+02  0.62097E+04
 0.88199997E+02  0.16914E+05
 0.88249992E+02  0.30405E+05
 0.88299995E+02  0.42824E+05
 0.88349991E+02  0.52714E+05
 0.88399994E+02  0.59337E+05
 0.88449997E+02  0.62020E+05
 0.88499992E+02  0.61980E+05
 0.88549995E+02  0.60999E+05
 0.88599991E+02  0.58413E+05
 0.88649994E+02  0.50968E+05
 0.88699997E+02  0.36698E+05
 0.88749992E+02  0.15806E+05
 0.88799995E+02 -0.89222E+04
 0.88849991E+02 -0.32436E+05
 0.88899994E+02 -0.52129E+05
 0.88949997E+02 -0.67674E+05
 0.88999992E+02 -0.78806E+05
 0.89049995E+02 -0.85709E+05
 0.89099991E+02 -0.87589E+05
 0.89149994E+02 -0.83145E+05
 0.89199997E+02 -0.71146E+05
 0.89249992E+02 -0.52845E+05
 0.89299995E+02 -0.32199E+05
 0.89349991E+02 -0.13395E+05
 0.89399994E+02  0.37347E+03
 0.89449997E+02  0.97834E+04
 0.89499992E+02  0.16826E+05
 0.89549995E+02  0.22163E+05
 0.89599991E+02  0.25752E+05
 0.89649994E+02  0.28089E+05
 0.89699997E+02  0.30525E+05
 0.89749992E+02  0.33145E+05
 0.89799995E+02  0.35557E+05
 0.89849991E+02  0.36525E+05
 0.89899994E+02  0.35331E+05
 0.89949997E+02  0.33417E+05
 0.89999992E+02  0.32273E+05
 0.90049995E+02  0.32055E+05
 0.90099991E+02  0.32162E+05
 0.90149994E+02  0.31515E+05
 0.90199997E+02  0.29103E+05
 0.90249992E+02  0.24252E+05
 0.90299995E+02  0.15386E+05
 0.90349991E+02  0.11757E+04
 0.90399994E+02 -0.17262E+05
 0.90449997E+02 -0.35377E+05
 0.90499992E+02 -0.47529E+05
 0.90549995E+02 -0.51475E+05
 0.90599991E+02 -0.48254E+05
 0.90649994E+02 -0.39852E+05
 0.90699997E+02 -0.28372E+05
 0.90749992E+02 -0.15165E+05
 0.90799995E+02 -0.11390E+04
 0.90849991E+02  0.13269E+05
 0.90899994E+02  0.25551E+05
 0.90949997E+02  0.31568E+05
 0.90999992E+02  0.30457E+05
 0.91049995E+02  0.24925E+05
 0.91099991E+02  0.19427E+05
 0.91149994E+02  0.17567E+05
 0.91199997E+02  0.19807E+05
 0.91249992E+02  0.25254E+05
 0.91299995E+02  0.32600E+05
 0.91349991E+02  0.41482E+05
 0.91399994E+02  0.52634E+05
 0.91449997E+02  0.66267E+05
 0.91499992E+02  0.80542E+05
 0.91549995E+02  0.91632E+05
 0.91599991E+02  0.97673E+05
 0.91649994E+02  0.98719E+05
 0.91699997E+02  0.95452E+05
 0.91749992E+02  0.89707E+05
 0.91799995E+02  0.83764E+05
 0.91849991E+02  0.78425E+05
 0.91899994E+02  0.73529E+05
 0.91949997E+02  0.67517E+05
 0.91999992E+02  0.57966E+05
 0.92049995E+02  0.43265E+05
 0.92099991E+02  0.24872E+05
 0.92149994E+02  0.68145E+04
 0.92199997E+02 -0.91383E+04
 0.92249992E+02 -0.21691E+05
 0.92299995E+02 -0.33091E+05
 0.92349991E+02 -0.47539E+05
 0.92399994E+02 -0.63908E+05
 0.92449997E+02 -0.78817E+05
 0.92499992E+02 -0.88831E+05
 0.92549995E+02 -0.91927E+05
 0.92599991E+02 -0.89642E+05
 0.92649994E+02 -0.84362E+05
 0.92699997E+02 -0.76125E+05
 0.92749992E+02 -0.64189E+05
 0.92799995E+02 -0.47643E+05
 0.92849991E+02 -0.26994E+05
 0.92899994E+02 -0.56496E+04
 0.92949997E+02  0.12011E+05
 0.92999992E+02  0.22352E+05
 0.93049995E+02  0.24231E+05
 0.93099991E+02  0.19809E+05
 0.93149994E+02  0.12043E+05
 0.93199997E+02  0.33431E+04
 0.93249992E+02 -0.33092E+04
 0.93299995E+02 -0.63741E+04
 0.93349991E+02 -0.58381E+04
 0.93399994E+02 -0.17753E+04
 0.93449997E+02  0.55215E+04
 0.93499992E+02  0.14865E+05
 0.93549995E+02  0.26147E+05
 0.93599991E+02  0.40954E+05
 0.93649994E+02  0.59720E+05
 0.93699997E+02  0.82256E+05
 0.93749992E+02  0.10735E+06
 0.93799995E+02  0.13303E+06
 0.93849991E+02  0.15763E+06
 0.93899994E+02  0.17905E+06
 0.93949997E+02  0.19593E+06
 0.93999992E+02  0.20779E+06
 0.94049995E+02  0.21422E+06
 0.94099991E+02  0.21387E+06
 0.94149994E+02  0.20607E+06
 0.94199997E+02  0.19130E+06
 0.94249992E+02  0.17043E+06
 0.94299995E+02  0.14567E+06
 0.94349991E+02  0.11975E+06
 0.94399994E+02  0.94418E+05
 0.94449997E+02  0.69545E+05
 0.94499992E+02  0.44597E+05
 0.94549995E+02  0.20450E+05
 0.94599991E+02 -0.12590E+04
 0.94649994E+02 -0.19392E+05
 0.94699997E+02 -0.33133E+05
 0.94749992E+02 -0.42838E+05
 0.94799995E+02 -0.48890E+05
 0.94849991E+02 -0.51966E+05
 0.94899994E+02 -0.53147E+05
 0.94949997E+02 -0.53322E+05
 0.94999992E+02 -0.53395E+05
 0.95049995E+02 -0.51889E+05
 0.95099991E+02 -0.46360E+05
 0.95149994E+02 -0.35989E+05
 0.95199997E+02 -0.23232E+05
 0.95249992E+02 -0.13063E+05
 0.95299995E+02 -0.10193E+05
 0.95349991E+02 -0.15475E+05
 0.95399994E+02 -0.26772E+05
 0.95449997E+02 -0.41669E+05
 0.95499992E+02 -0.56880E+05
 0.95549995E+02 -0.71032E+05
 0.95599991E+02 -0.83257E+05
 0.95649994E+02 -0.92141E+05
 0.95699997E+02 -0.97930E+05
 0.95749992E+02 -0.10106E+06
 0.95799995E+02 -0.10111E+06
 0.95849991E+02 -0.97248E+05
 0.95899994E+02 -0.89337E+05
 0.95949997E+02 -0.78285E+05
 0.95999992E+02 -0.65256E+05
 0.96049995E+02 -0.51666E+05
 0.96099991E+02 -0.38622E+05
 0.96149994E+02 -0.26512E+05
 0.96199997E+02 -0.15987E+05
 0.96249992E+02 -0.73045E+04
 0.96299995E+02 -0.28119E+03
 0.96349991E+02  0.51280E+04
 0.96399994E+02  0.85983E+04
 0.96449997E+02  0.97773E+04
 0.96499992E+02  0.85178E+04
 0.96549995E+02  0.51870E+04
 0.96599991E+02  0.82348E+03
 0.96649994E+02 -0.40903E+04
 0.96699997E+02 -0.80327E+04
 0.96749992E+02 -0.90047E+04
 0.96799995E+02 -0.67547E+04
 0.96849991E+02 -0.18055E+04
 0.96899994E+02  0.50481E+04
 0.96949997E+02  0.13156E+05
 0.96999992E+02  0.21518E+05
 0.97049995E+02  0.28386E+05
 0.97099991E+02  0.31580E+05
 0.97149994E+02  0.29482E+05
 0.97199997E+02  0.22138E+05
 0.97249992E+02  0.11342E+05
 0.97299995E+02  0.56557E+03
 0.97349991E+02 -0.68911E+04
 0.97399994E+02 -0.87184E+04
 0.97449997E+02 -0.38363E+04
 0.97499992E+02  0.70085E+04
 0.97549995E+02  0.21212E+05
 0.97599991E+02  0.34708E+05
 0.97649994E+02  0.43703E+05
 0.97699997E+02  0.46609E+05
 0.97749992E+02  0.43539E+05
 0.97799995E+02  0.35856E+05
 0.97849991E+02  0.25004E+05
 0.97899994E+02  0.11583E+05
 0.97949997E+02 -0.28630E+04
 0.97999992E+02 -0.16456E+05
