-0.20000000E+01 -0.32493E+05
-0.19500000E+01 -0.32314E+05
-0.19000000E+01 -0.32426E+05
-0.18500000E+01 -0.32403E+05
-0.18000000E+01 -0.32368E+05
-0.17500000E+01 -0.32344E+05
-0.17000000E+01 -0.32338E+05
-0.16500001E+01 -0.32350E+05
-0.16000000E+01 -0.32322E+05
-0.15500000E+01 -0.32322E+05
-0.15000000E+01 -0.32328E+05
-0.14500000E+01 -0.32291E+05
-0.14000001E+01 -0.32324E+05
-0.13500000E+01 -0.32306E+05
-0.13000001E+01 -0.32376E+05
-0.12500000E+01 -0.32369E+05
-0.12000000E+01 -0.32414E+05
-0.11500001E+01 -0.32427E+05
-0.11000000E+01 -0.32402E+05
-0.10500001E+01 -0.32436E+05
-0.10000000E+01 -0.32406E+05
-0.95000005E+00 -0.32420E+05
-0.90000010E+00 -0.32407E+05
-0.85000002E+00 -0.32420E+05
-0.80000007E+00 -0.32388E+05
-0.75000012E+00 -0.32391E+05
-0.70000005E+00 -0.32391E+05
-0.65000010E+00 -0.32384E+05
-0.60000014E+00 -0.32407E+05
-0.55000007E+00 -0.32387E+05
-0.50000012E+00 -0.32408E+05
-0.45000005E+00 -0.32388E+05
-0.40000010E+00 -0.32397E+05
-0.35000014E+00 -0.32390E+05
-0.30000007E+00 -0.32318E+05
-0.25000012E+00 -0.32344E+05
-0.20000005E+00 -0.32288E+05
-0.15000010E+00 -0.32321E+05
-0.10000014E+00 -0.32312E+05
-0.50000072E-01 -0.32351E+05
-0.11920929E-06 -0.32388E+05
 0.49999952E-01 -0.32387E+05
 0.99999905E-01 -0.32445E+05
 0.14999986E+00 -0.32405E+05
 0.19999981E+00 -0.32483E+05
 0.24999976E+00 -0.32441E+05
 0.29999995E+00 -0.32485E+05
 0.34999990E+00 -0.32471E+05
 0.39999986E+00 -0.32448E+05
 0.44999981E+00 -0.32458E+05
 0.49999976E+00 -0.32404E+05
 0.54999995E+00 -0.32448E+05
 0.59999990E+00 -0.32393E+05
 0.64999986E+00 -0.32415E+05
 0.69999981E+00 -0.32418E+05
 0.74999976E+00 -0.32416E+05
 0.79999971E+00 -0.32383E+05
 0.84999990E+00 -0.32399E+05
 0.89999986E+00 -0.32375E+05
 0.94999981E+00 -0.32359E+05
 0.99999976E+00 -0.32394E+05
 0.10499997E+01 -0.32351E+05
 0.10999999E+01 -0.32390E+05
 0.11499999E+01 -0.32383E+05
 0.11999998E+01 -0.32386E+05
 0.12499998E+01 -0.32426E+05
 0.12999997E+01 -0.32395E+05
 0.13499999E+01 -0.32425E+05
 0.13999999E+01 -0.32423E+05
 0.14499998E+01 -0.32355E+05
 0.14999998E+01 -0.32367E+05
 0.15499997E+01 -0.32344E+05
 0.15999999E+01 -0.32354E+05
 0.16499999E+01 -0.32384E+05
 0.16999998E+01 -0.32380E+05
 0.17499998E+01 -0.32424E+05
 0.17999997E+01 -0.32415E+05
 0.18499997E+01 -0.32412E+05
 0.18999999E+01 -0.32432E+05
 0.19499998E+01 -0.32373E+05
 0.19999998E+01 -0.32433E+05
 0.20499997E+01 -0.32404E+05
 0.20999999E+01 -0.32392E+05
 0.21499996E+01 -0.32387E+05
 0.21999998E+01 -0.32336E+05
 0.22499995E+01 -0.32370E+05
 0.22999997E+01 -0.32344E+05
 0.23499999E+01 -0.32391E+05
 0.23999996E+01 -0.32374E+05
 0.24499998E+01 -0.32386E+05
 0.24999995E+01 -0.32404E+05
 0.25499997E+01 -0.32392E+05
 0.25999999E+01 -0.32413E+05
 0.26499996E+01 -0.32399E+05
 0.26999998E+01 -0.32438E+05
 0.27499995E+01 -0.32456E+05
 0.27999997E+01 -0.32462E+05
 0.28499999E+01 -0.32477E+05
 0.28999996E+01 -0.32432E+05
 0.29499998E+01 -0.32419E+05
 0.29999995E+01 -0.32394E+05
 0.30499997E+01 -0.32373E+05
 0.30999999E+01 -0.32359E+05
 0.31499996E+01 -0.32319E+05
 0.31999998E+01 -0.32336E+05
 0.32499995E+01 -0.32331E+05
 0.32999997E+01 -0.32346E+05
 0.33499999E+01 -0.32352E+05
 0.33999996E+01 -0.32369E+05
 0.34499998E+01 -0.32396E+05
 0.34999995E+01 -0.32386E+05
 0.35499997E+01 -0.32410E+05
 0.35999994E+01 -0.32389E+05
 0.36499996E+01 -0.32370E+05
 0.36999998E+01 -0.32383E+05
 0.37499995E+01 -0.32374E+05
 0.37999997E+01 -0.32402E+05
 0.38499994E+01 -0.32385E+05
 0.38999996E+01 -0.32372E+05
 0.39499998E+01 -0.32390E+05
 0.39999995E+01 -0.32393E+05
 0.40499997E+01 -0.32414E+05
 0.40999994E+01 -0.32407E+05
 0.41499996E+01 -0.32417E+05
 0.41999998E+01 -0.32403E+05
 0.42499995E+01 -0.32385E+05
 0.42999997E+01 -0.32373E+05
 0.43499994E+01 -0.32364E+05
 0.43999996E+01 -0.32359E+05
 0.44499998E+01 -0.32363E+05
 0.44999995E+01 -0.32386E+05
 0.45499997E+01 -0.32378E+05
 0.45999994E+01 -0.32405E+05
 0.46499996E+01 -0.32400E+05
 0.46999998E+01 -0.32411E+05
 0.47499995E+01 -0.32424E+05
 0.47999997E+01 -0.32420E+05
 0.48499994E+01 -0.32423E+05
 0.48999996E+01 -0.32401E+05
 0.49499998E+01 -0.32383E+05
 0.49999995E+01 -0.32347E+05
 0.50499997E+01 -0.32364E+05
 0.50999994E+01 -0.32365E+05
 0.51499996E+01 -0.32377E+05
 0.51999998E+01 -0.32386E+05
 0.52499995E+01 -0.32382E+05
 0.52999997E+01 -0.32370E+05
 0.53499994E+01 -0.32352E+05
 0.53999996E+01 -0.32345E+05
 0.54499993E+01 -0.32349E+05
 0.54999995E+01 -0.32347E+05
 0.55499997E+01 -0.32325E+05
 0.55999994E+01 -0.32341E+05
 0.56499996E+01 -0.32313E+05
 0.56999993E+01 -0.32338E+05
 0.57499995E+01 -0.32376E+05
 0.57999997E+01 -0.32369E+05
 0.58499994E+01 -0.32400E+05
 0.58999996E+01 -0.32432E+05
 0.59499993E+01 -0.32429E+05
 0.59999995E+01 -0.32429E+05
 0.60499992E+01 -0.32421E+05
 0.60999994E+01 -0.32417E+05
 0.61499996E+01 -0.32431E+05
 0.61999998E+01 -0.32452E+05
 0.62499990E+01 -0.32448E+05
 0.62999992E+01 -0.32446E+05
 0.63499994E+01 -0.32440E+05
 0.63999996E+01 -0.32430E+05
 0.64499998E+01 -0.32444E+05
 0.64999990E+01 -0.32413E+05
 0.65499992E+01 -0.32423E+05
 0.65999994E+01 -0.32403E+05
 0.66499996E+01 -0.32426E+05
 0.66999998E+01 -0.32409E+05
 0.67499990E+01 -0.32396E+05
 0.67999992E+01 -0.32416E+05
 0.68499994E+01 -0.32386E+05
 0.68999996E+01 -0.32429E+05
 0.69499998E+01 -0.32426E+05
 0.69999990E+01 -0.32407E+05
 0.70499992E+01 -0.32427E+05
 0.70999994E+01 -0.32402E+05
 0.71499996E+01 -0.32387E+05
 0.71999998E+01 -0.32389E+05
 0.72499990E+01 -0.32347E+05
 0.72999992E+01 -0.32400E+05
 0.73499994E+01 -0.32367E+05
 0.73999996E+01 -0.32371E+05
 0.74499998E+01 -0.32401E+05
 0.74999990E+01 -0.32357E+05
 0.75499992E+01 -0.32397E+05
 0.75999994E+01 -0.32341E+05
 0.76499996E+01 -0.32344E+05
 0.76999998E+01 -0.32360E+05
 0.77499990E+01 -0.32309E+05
 0.77999992E+01 -0.32357E+05
 0.78499994E+01 -0.32334E+05
 0.78999996E+01 -0.32320E+05
 0.79499998E+01 -0.32343E+05
 0.79999990E+01 -0.32313E+05
 0.80499992E+01 -0.32351E+05
 0.80999994E+01 -0.32354E+05
 0.81499996E+01 -0.32357E+05
 0.81999998E+01 -0.32386E+05
 0.82499990E+01 -0.32353E+05
 0.82999992E+01 -0.32396E+05
 0.83499994E+01 -0.32399E+05
 0.83999996E+01 -0.32397E+05
 0.84499998E+01 -0.32459E+05
 0.84999990E+01 -0.32439E+05
 0.85499992E+01 -0.32454E+05
 0.85999994E+01 -0.32453E+05
 0.86499996E+01 -0.32416E+05
 0.86999998E+01 -0.32431E+05
 0.87499990E+01 -0.32400E+05
 0.87999992E+01 -0.32402E+05
 0.88499994E+01 -0.32396E+05
 0.88999996E+01 -0.32362E+05
 0.89499998E+01 -0.32362E+05
 0.89999990E+01 -0.32334E+05
 0.90499992E+01 -0.32358E+05
 0.90999994E+01 -0.32333E+05
 0.91499996E+01 -0.32351E+05
 0.91999989E+01 -0.32380E+05
 0.92499990E+01 -0.32380E+05
 0.92999992E+01 -0.32385E+05
 0.93499994E+01 -0.32408E+05
 0.93999996E+01 -0.32448E+05
 0.94499989E+01 -0.32420E+05
 0.94999990E+01 -0.32469E+05
 0.95499992E+01 -0.32470E+05
 0.95999994E+01 -0.32453E+05
 0.96499996E+01 -0.32459E+05
 0.96999989E+01 -0.32435E+05
 0.97499990E+01 -0.32438E+05
 0.97999992E+01 -0.32433E+05
 0.98499994E+01 -0.32436E+05
 0.98999996E+01 -0.32439E+05
 0.99499989E+01 -0.32411E+05
 0.99999990E+01 -0.32398E+05
 0.10049999E+02 -0.32370E+05
 0.10099999E+02 -0.32333E+05
 0.10150000E+02 -0.32313E+05
 0.10199999E+02 -0.32319E+05
 0.10249999E+02 -0.32352E+05
 0.10299999E+02 -0.32346E+05
 0.10349999E+02 -0.32351E+05
 0.10400000E+02 -0.32354E+05
 0.10449999E+02 -0.32376E+05
 0.10499999E+02 -0.32378E+05
 0.10549999E+02 -0.32394E+05
 0.10599999E+02 -0.32409E+05
 0.10650000E+02 -0.32402E+05
 0.10699999E+02 -0.32402E+05
 0.10749999E+02 -0.32381E+05
 0.10799999E+02 -0.32373E+05
 0.10849999E+02 -0.32364E+05
 0.10900000E+02 -0.32366E+05
 0.10949999E+02 -0.32358E+05
 0.10999999E+02 -0.32375E+05
 0.11049999E+02 -0.32375E+05
 0.11099999E+02 -0.32373E+05
 0.11150000E+02 -0.32392E+05
 0.11199999E+02 -0.32400E+05
 0.11249999E+02 -0.32412E+05
 0.11299999E+02 -0.32413E+05
 0.11349999E+02 -0.32424E+05
 0.11400000E+02 -0.32437E+05
 0.11449999E+02 -0.32418E+05
 0.11499999E+02 -0.32417E+05
 0.11549999E+02 -0.32397E+05
 0.11599999E+02 -0.32388E+05
 0.11650000E+02 -0.32408E+05
 0.11699999E+02 -0.32404E+05
 0.11749999E+02 -0.32390E+05
 0.11799999E+02 -0.32382E+05
 0.11849999E+02 -0.32401E+05
 0.11900000E+02 -0.32404E+05
 0.11949999E+02 -0.32405E+05
 0.11999999E+02 -0.32413E+05
 0.12049999E+02 -0.32423E+05
 0.12099999E+02 -0.32424E+05
 0.12150000E+02 -0.32426E+05
 0.12199999E+02 -0.32411E+05
 0.12249999E+02 -0.32396E+05
 0.12299999E+02 -0.32397E+05
 0.12349999E+02 -0.32380E+05
 0.12400000E+02 -0.32378E+05
 0.12449999E+02 -0.32372E+05
 0.12499999E+02 -0.32357E+05
 0.12549999E+02 -0.32351E+05
 0.12599999E+02 -0.32326E+05
 0.12649999E+02 -0.32353E+05
 0.12699999E+02 -0.32370E+05
 0.12749999E+02 -0.32359E+05
 0.12799999E+02 -0.32387E+05
 0.12849999E+02 -0.32392E+05
 0.12899999E+02 -0.32405E+05
 0.12949999E+02 -0.32391E+05
 0.12999999E+02 -0.32391E+05
 0.13049999E+02 -0.32405E+05
 0.13099999E+02 -0.32407E+05
 0.13149999E+02 -0.32404E+05
 0.13199999E+02 -0.32376E+05
 0.13249999E+02 -0.32372E+05
 0.13299999E+02 -0.32372E+05
 0.13349999E+02 -0.32365E+05
 0.13399999E+02 -0.32374E+05
 0.13449999E+02 -0.32386E+05
 0.13499999E+02 -0.32416E+05
 0.13549999E+02 -0.32441E+05
 0.13599999E+02 -0.32435E+05
 0.13649999E+02 -0.32428E+05
 0.13699999E+02 -0.32424E+05
 0.13749999E+02 -0.32416E+05
 0.13799999E+02 -0.32387E+05
 0.13849999E+02 -0.32393E+05
 0.13899999E+02 -0.32386E+05
 0.13949999E+02 -0.32397E+05
 0.13999999E+02 -0.32405E+05
 0.14049999E+02 -0.32410E+05
 0.14099998E+02 -0.32411E+05
 0.14150000E+02 -0.32411E+05
 0.14199999E+02 -0.32401E+05
 0.14249998E+02 -0.32366E+05
 0.14299999E+02 -0.32376E+05
 0.14349998E+02 -0.32366E+05
 0.14400000E+02 -0.32361E+05
 0.14449999E+02 -0.32372E+05
 0.14499998E+02 -0.32361E+05
 0.14549999E+02 -0.32334E+05
 0.14599998E+02 -0.32343E+05
 0.14650000E+02 -0.32324E+05
 0.14699999E+02 -0.32324E+05
 0.14749998E+02 -0.32326E+05
 0.14799999E+02 -0.32341E+05
 0.14849998E+02 -0.32374E+05
 0.14900000E+02 -0.32395E+05
 0.14949999E+02 -0.32427E+05
 0.14999998E+02 -0.32420E+05
 0.15049999E+02 -0.32427E+05
 0.15099998E+02 -0.32439E+05
 0.15150000E+02 -0.32444E+05
 0.15199999E+02 -0.32462E+05
 0.15249998E+02 -0.32482E+05
 0.15299999E+02 -0.32477E+05
 0.15349998E+02 -0.32471E+05
 0.15400000E+02 -0.32436E+05
 0.15449999E+02 -0.32399E+05
 0.15499998E+02 -0.32398E+05
 0.15549999E+02 -0.32380E+05
 0.15599998E+02 -0.32352E+05
 0.15650000E+02 -0.32353E+05
 0.15699999E+02 -0.32351E+05
 0.15749998E+02 -0.32334E+05
 0.15799999E+02 -0.32339E+05
 0.15849998E+02 -0.32346E+05
 0.15900000E+02 -0.32362E+05
 0.15949999E+02 -0.32384E+05
 0.15999998E+02 -0.32386E+05
 0.16049999E+02 -0.32367E+05
 0.16099998E+02 -0.32362E+05
 0.16150000E+02 -0.32361E+05
 0.16199999E+02 -0.32350E+05
 0.16249998E+02 -0.32355E+05
 0.16299999E+02 -0.32346E+05
 0.16349998E+02 -0.32338E+05
 0.16400000E+02 -0.32322E+05
 0.16449999E+02 -0.32321E+05
 0.16499998E+02 -0.32348E+05
 0.16549999E+02 -0.32371E+05
 0.16599998E+02 -0.32407E+05
 0.16650000E+02 -0.32413E+05
 0.16699999E+02 -0.32416E+05
 0.16749998E+02 -0.32425E+05
 0.16799999E+02 -0.32416E+05
 0.16849998E+02 -0.32399E+05
 0.16900000E+02 -0.32396E+05
 0.16949999E+02 -0.32391E+05
 0.16999998E+02 -0.32401E+05
 0.17049999E+02 -0.32413E+05
 0.17099998E+02 -0.32416E+05
 0.17150000E+02 -0.32425E+05
 0.17199999E+02 -0.32418E+05
 0.17249998E+02 -0.32425E+05
 0.17299999E+02 -0.32425E+05
 0.17349998E+02 -0.32430E+05
 0.17400000E+02 -0.32412E+05
 0.17449999E+02 -0.32399E+05
 0.17499998E+02 -0.32371E+05
 0.17549999E+02 -0.32359E+05
 0.17599998E+02 -0.32357E+05
 0.17650000E+02 -0.32344E+05
 0.17699999E+02 -0.32353E+05
 0.17749998E+02 -0.32351E+05
 0.17799999E+02 -0.32355E+05
 0.17849998E+02 -0.32354E+05
 0.17900000E+02 -0.32369E+05
 0.17949999E+02 -0.32384E+05
 0.17999998E+02 -0.32412E+05
 0.18049999E+02 -0.32421E+05
 0.18099998E+02 -0.32438E+05
 0.18150000E+02 -0.32451E+05
 0.18199999E+02 -0.32473E+05
 0.18249998E+02 -0.32493E+05
 0.18299999E+02 -0.32472E+05
 0.18349998E+02 -0.32476E+05
 0.18400000E+02 -0.32477E+05
 0.18449999E+02 -0.32463E+05
 0.18499998E+02 -0.32466E+05
 0.18549999E+02 -0.32457E+05
 0.18599998E+02 -0.32444E+05
 0.18650000E+02 -0.32441E+05
 0.18699999E+02 -0.32410E+05
 0.18749998E+02 -0.32399E+05
 0.18799999E+02 -0.32396E+05
 0.18849998E+02 -0.32379E+05
 0.18900000E+02 -0.32375E+05
 0.18949999E+02 -0.32360E+05
 0.18999998E+02 -0.32348E+05
 0.19049999E+02 -0.32335E+05
 0.19099998E+02 -0.32321E+05
 0.19150000E+02 -0.32325E+05
 0.19199999E+02 -0.32315E+05
 0.19249998E+02 -0.32330E+05
 0.19299999E+02 -0.32364E+05
 0.19349998E+02 -0.32387E+05
 0.19400000E+02 -0.32403E+05
 0.19449999E+02 -0.32385E+05
 0.19499998E+02 -0.32385E+05
 0.19549999E+02 -0.32386E+05
 0.19599998E+02 -0.32376E+05
 0.19650000E+02 -0.32375E+05
 0.19699999E+02 -0.32371E+05
 0.19749998E+02 -0.32377E+05
 0.19799999E+02 -0.32381E+05
 0.19849998E+02 -0.32384E+05
 0.19900000E+02 -0.32382E+05
 0.19949999E+02 -0.32388E+05
 0.19999998E+02 -0.32396E+05
 0.20049999E+02 -0.32402E+05
 0.20099998E+02 -0.32425E+05
 0.20150000E+02 -0.32415E+05
 0.20199999E+02 -0.32407E+05
 0.20249998E+02 -0.32385E+05
 0.20299999E+02 -0.32378E+05
 0.20349998E+02 -0.32364E+05
 0.20399998E+02 -0.32371E+05
 0.20449999E+02 -0.32378E+05
 0.20499998E+02 -0.32355E+05
 0.20549999E+02 -0.32365E+05
 0.20599998E+02 -0.32351E+05
 0.20649998E+02 -0.32368E+05
 0.20699999E+02 -0.32359E+05
 0.20749998E+02 -0.32364E+05
 0.20799999E+02 -0.32371E+05
 0.20849998E+02 -0.32375E+05
 0.20899998E+02 -0.32386E+05
 0.20949999E+02 -0.32390E+05
 0.20999998E+02 -0.32399E+05
 0.21049999E+02 -0.32392E+05
 0.21099998E+02 -0.32398E+05
 0.21149998E+02 -0.32390E+05
 0.21199999E+02 -0.32389E+05
 0.21249998E+02 -0.32371E+05
 0.21299999E+02 -0.32377E+05
 0.21349998E+02 -0.32368E+05
 0.21399998E+02 -0.32380E+05
 0.21449999E+02 -0.32398E+05
 0.21499998E+02 -0.32422E+05
 0.21549999E+02 -0.32457E+05
 0.21599998E+02 -0.32449E+05
 0.21649998E+02 -0.32447E+05
 0.21699999E+02 -0.32428E+05
 0.21749998E+02 -0.32396E+05
 0.21799999E+02 -0.32342E+05
 0.21849998E+02 -0.32351E+05
 0.21899998E+02 -0.32360E+05
 0.21949999E+02 -0.32379E+05
 0.21999998E+02 -0.32379E+05
 0.22049999E+02 -0.32332E+05
 0.22099998E+02 -0.32329E+05
 0.22149998E+02 -0.32347E+05
 0.22199999E+02 -0.32379E+05
 0.22249998E+02 -0.32367E+05
 0.22299999E+02 -0.32436E+05
 0.22349998E+02 -0.32436E+05
 0.22399998E+02 -0.32425E+05
 0.22449999E+02 -0.32394E+05
 0.22499998E+02 -0.32265E+05
 0.22549999E+02 -0.32278E+05
 0.22599998E+02 -0.32379E+05
 0.22649998E+02 -0.32355E+05
 0.22699999E+02 -0.32226E+05
 0.22749998E+02 -0.32251E+05
 0.22799999E+02 -0.32363E+05
 0.22849998E+02 -0.32467E+05
 0.22899998E+02 -0.32443E+05
 0.22949999E+02 -0.32527E+05
 0.22999998E+02 -0.32447E+05
 0.23049999E+02 -0.32311E+05
 0.23099998E+02 -0.32411E+05
 0.23149998E+02 -0.32504E+05
 0.23199999E+02 -0.32689E+05
 0.23249998E+02 -0.32607E+05
 0.23299999E+02 -0.32324E+05
 0.23349998E+02 -0.32188E+05
 0.23399998E+02 -0.32446E+05
 0.23449999E+02 -0.32589E+05
 0.23499998E+02 -0.32490E+05
 0.23549999E+02 -0.32442E+05
 0.23599998E+02 -0.32218E+05
 0.23649998E+02 -0.32363E+05
 0.23699999E+02 -0.32481E+05
 0.23749998E+02 -0.32181E+05
 0.23799999E+02 -0.32181E+05
 0.23849998E+02 -0.32708E+05
 0.23899998E+02 -0.32752E+05
 0.23949999E+02 -0.32460E+05
 0.23999998E+02 -0.32067E+05
 0.24049999E+02 -0.32023E+05
 0.24099998E+02 -0.32277E+05
 0.24149998E+02 -0.32588E+05
 0.24199999E+02 -0.33071E+05
 0.24249998E+02 -0.32215E+05
 0.24299999E+02 -0.31849E+05
 0.24349998E+02 -0.32059E+05
 0.24399998E+02 -0.32219E+05
 0.24449999E+02 -0.32911E+05
 0.24499998E+02 -0.32999E+05
 0.24549999E+02 -0.32267E+05
 0.24599998E+02 -0.31796E+05
 0.24649998E+02 -0.32362E+05
 0.24699999E+02 -0.32263E+05
 0.24749998E+02 -0.32642E+05
 0.24799999E+02 -0.32680E+05
 0.24849998E+02 -0.32054E+05
 0.24899998E+02 -0.32473E+05
 0.24949999E+02 -0.32422E+05
 0.24999998E+02 -0.32635E+05
 0.25049999E+02 -0.33062E+05
 0.25099998E+02 -0.32449E+05
 0.25149998E+02 -0.31965E+05
 0.25199999E+02 -0.32094E+05
 0.25249998E+02 -0.32327E+05
 0.25299999E+02 -0.32767E+05
 0.25349998E+02 -0.32573E+05
 0.25399998E+02 -0.32318E+05
 0.25449999E+02 -0.32765E+05
 0.25499998E+02 -0.32264E+05
 0.25549999E+02 -0.31902E+05
 0.25599998E+02 -0.31749E+05
 0.25649998E+02 -0.31519E+05
 0.25699999E+02 -0.33319E+05
 0.25749998E+02 -0.33279E+05
 0.25799999E+02 -0.31851E+05
 0.25849998E+02 -0.32331E+05
 0.25899998E+02 -0.33295E+05
 0.25949999E+02 -0.32891E+05
 0.25999998E+02 -0.31572E+05
 0.26049999E+02 -0.31808E+05
 0.26099998E+02 -0.33193E+05
 0.26149998E+02 -0.32927E+05
 0.26199999E+02 -0.32104E+05
 0.26249998E+02 -0.31407E+05
 0.26299999E+02 -0.30856E+05
 0.26349998E+02 -0.33059E+05
 0.26399998E+02 -0.34142E+05
 0.26449999E+02 -0.31702E+05
 0.26499998E+02 -0.31532E+05
 0.26549999E+02 -0.32327E+05
 0.26599998E+02 -0.32565E+05
 0.26649998E+02 -0.33443E+05
 0.26699999E+02 -0.33636E+05
 0.26749998E+02 -0.32645E+05
 0.26799999E+02 -0.31432E+05
 0.26849998E+02 -0.31901E+05
 0.26899998E+02 -0.31721E+05
 0.26949999E+02 -0.32377E+05
 0.26999998E+02 -0.33037E+05
 0.27049997E+02 -0.32591E+05
 0.27099998E+02 -0.31714E+05
 0.27149998E+02 -0.32132E+05
 0.27199999E+02 -0.33514E+05
 0.27249998E+02 -0.32668E+05
 0.27299997E+02 -0.31796E+05
 0.27349998E+02 -0.32767E+05
 0.27399998E+02 -0.32918E+05
 0.27449999E+02 -0.31470E+05
 0.27499998E+02 -0.30931E+05
 0.27549997E+02 -0.31310E+05
 0.27599998E+02 -0.33109E+05
 0.27649998E+02 -0.33338E+05
 0.27699999E+02 -0.32370E+05
 0.27749998E+02 -0.33257E+05
 0.27799997E+02 -0.32691E+05
 0.27849998E+02 -0.31070E+05
 0.27899998E+02 -0.32436E+05
 0.27949999E+02 -0.32990E+05
 0.27999998E+02 -0.32220E+05
 0.28049997E+02 -0.32355E+05
 0.28099998E+02 -0.32317E+05
 0.28149998E+02 -0.30295E+05
 0.28199999E+02 -0.30866E+05
 0.28249998E+02 -0.35263E+05
 0.28299997E+02 -0.35348E+05
 0.28349998E+02 -0.31018E+05
 0.28399998E+02 -0.30524E+05
 0.28449999E+02 -0.32923E+05
 0.28499998E+02 -0.34215E+05
 0.28549997E+02 -0.33231E+05
 0.28599998E+02 -0.30914E+05
 0.28649998E+02 -0.30769E+05
 0.28699999E+02 -0.30941E+05
 0.28749998E+02 -0.33872E+05
 0.28799997E+02 -0.34272E+05
 0.28849998E+02 -0.30663E+05
 0.28899998E+02 -0.30542E+05
 0.28949999E+02 -0.33204E+05
 0.28999998E+02 -0.34130E+05
 0.29049997E+02 -0.33655E+05
 0.29099998E+02 -0.31461E+05
 0.29149998E+02 -0.30062E+05
 0.29199999E+02 -0.31612E+05
 0.29249998E+02 -0.33999E+05
 0.29299997E+02 -0.34781E+05
 0.29349998E+02 -0.33412E+05
 0.29399998E+02 -0.31083E+05
 0.29449999E+02 -0.31519E+05
 0.29499998E+02 -0.34229E+05
 0.29549997E+02 -0.32984E+05
 0.29599998E+02 -0.32236E+05
 0.29649998E+02 -0.32688E+05
 0.29699999E+02 -0.31754E+05
 0.29749998E+02 -0.31316E+05
 0.29799997E+02 -0.31792E+05
 0.29849998E+02 -0.30614E+05
 0.29899998E+02 -0.31226E+05
 0.29949999E+02 -0.33115E+05
 0.29999998E+02 -0.34073E+05
 0.30049999E+02 -0.33572E+05
 0.30099998E+02 -0.30770E+05
 0.30149998E+02 -0.31532E+05
 0.30199997E+02 -0.33083E+05
 0.30249996E+02 -0.32513E+05
 0.30299999E+02 -0.32605E+05
 0.30349998E+02 -0.32975E+05
 0.30399998E+02 -0.32264E+05
 0.30449997E+02 -0.31399E+05
 0.30499996E+02 -0.31438E+05
 0.30549999E+02 -0.31467E+05
 0.30599998E+02 -0.31789E+05
 0.30649998E+02 -0.32663E+05
 0.30699997E+02 -0.33652E+05
 0.30749996E+02 -0.34116E+05
 0.30799999E+02 -0.33606E+05
 0.30849998E+02 -0.32871E+05
 0.30899998E+02 -0.32436E+05
 0.30949997E+02 -0.32614E+05
 0.30999996E+02 -0.31060E+05
 0.31049999E+02 -0.31522E+05
 0.31099998E+02 -0.33306E+05
 0.31149998E+02 -0.32478E+05
 0.31199997E+02 -0.31187E+05
 0.31249996E+02 -0.31679E+05
 0.31299999E+02 -0.31279E+05
 0.31349998E+02 -0.31606E+05
 0.31399998E+02 -0.33424E+05
 0.31449997E+02 -0.33669E+05
 0.31499996E+02 -0.31264E+05
 0.31549999E+02 -0.30340E+05
 0.31599998E+02 -0.33399E+05
 0.31649998E+02 -0.33168E+05
 0.31699997E+02 -0.32830E+05
 0.31749996E+02 -0.33728E+05
 0.31799999E+02 -0.34542E+05
 0.31849998E+02 -0.35334E+05
 0.31899998E+02 -0.33401E+05
 0.31949997E+02 -0.31120E+05
 0.31999996E+02 -0.29238E+05
 0.32049999E+02 -0.30204E+05
 0.32099998E+02 -0.31956E+05
 0.32149998E+02 -0.33898E+05
 0.32199997E+02 -0.35148E+05
 0.32249996E+02 -0.31663E+05
 0.32299999E+02 -0.30375E+05
 0.32349998E+02 -0.30367E+05
 0.32399998E+02 -0.33060E+05
 0.32449997E+02 -0.34176E+05
 0.32499996E+02 -0.32017E+05
 0.32549999E+02 -0.31943E+05
 0.32599998E+02 -0.31665E+05
 0.32649998E+02 -0.33022E+05
 0.32699997E+02 -0.33175E+05
 0.32749996E+02 -0.33212E+05
 0.32799999E+02 -0.33496E+05
 0.32849998E+02 -0.32289E+05
 0.32899998E+02 -0.32301E+05
 0.32949997E+02 -0.32026E+05
 0.32999996E+02 -0.32273E+05
 0.33049999E+02 -0.33319E+05
 0.33099998E+02 -0.32397E+05
 0.33149998E+02 -0.32171E+05
 0.33199997E+02 -0.30953E+05
 0.33249996E+02 -0.31477E+05
 0.33299999E+02 -0.32778E+05
 0.33349998E+02 -0.31220E+05
 0.33399998E+02 -0.31453E+05
 0.33449997E+02 -0.32740E+05
 0.33499996E+02 -0.34465E+05
 0.33549999E+02 -0.34545E+05
 0.33599998E+02 -0.32647E+05
 0.33649998E+02 -0.32204E+05
 0.33699997E+02 -0.31902E+05
 0.33749996E+02 -0.30638E+05
 0.33799999E+02 -0.31074E+05
 0.33849998E+02 -0.31675E+05
 0.33899998E+02 -0.31515E+05
 0.33949997E+02 -0.32334E+05
 0.33999996E+02 -0.32814E+05
 0.34049999E+02 -0.31868E+05
 0.34099998E+02 -0.31548E+05
 0.34149998E+02 -0.32884E+05
 0.34199997E+02 -0.34086E+05
 0.34249996E+02 -0.35422E+05
 0.34299999E+02 -0.34987E+05
 0.34349998E+02 -0.32849E+05
 0.34399998E+02 -0.32803E+05
 0.34449997E+02 -0.31145E+05
 0.34499996E+02 -0.31399E+05
 0.34549999E+02 -0.30815E+05
 0.34599998E+02 -0.29888E+05
 0.34649998E+02 -0.32286E+05
 0.34699997E+02 -0.33355E+05
 0.34749996E+02 -0.32725E+05
 0.34799999E+02 -0.30827E+05
 0.34849998E+02 -0.31081E+05
 0.34899998E+02 -0.32951E+05
 0.34949997E+02 -0.33268E+05
 0.34999996E+02 -0.31864E+05
 0.35049999E+02 -0.30337E+05
 0.35099998E+02 -0.31379E+05
 0.35149998E+02 -0.33183E+05
 0.35199997E+02 -0.33410E+05
 0.35249996E+02 -0.34310E+05
 0.35299999E+02 -0.34017E+05
 0.35349998E+02 -0.33251E+05
 0.35399998E+02 -0.32774E+05
 0.35449997E+02 -0.31463E+05
 0.35499996E+02 -0.32036E+05
 0.35549999E+02 -0.32072E+05
 0.35599998E+02 -0.32382E+05
 0.35649998E+02 -0.32050E+05
 0.35699997E+02 -0.30207E+05
 0.35749996E+02 -0.32260E+05
 0.35799999E+02 -0.33224E+05
 0.35849998E+02 -0.34416E+05
 0.35899998E+02 -0.34214E+05
 0.35949997E+02 -0.30770E+05
 0.35999996E+02 -0.28841E+05
 0.36049999E+02 -0.31053E+05
 0.36099998E+02 -0.34151E+05
 0.36149998E+02 -0.34926E+05
 0.36199997E+02 -0.33323E+05
 0.36249996E+02 -0.31967E+05
 0.36299999E+02 -0.31306E+05
 0.36349998E+02 -0.31064E+05
 0.36399998E+02 -0.33048E+05
 0.36449997E+02 -0.31816E+05
 0.36499996E+02 -0.28639E+05
 0.36549999E+02 -0.29299E+05
 0.36599998E+02 -0.35432E+05
 0.36649998E+02 -0.36918E+05
 0.36699997E+02 -0.29407E+05
 0.36749996E+02 -0.21078E+05
 0.36799999E+02 -0.24523E+05
 0.36849998E+02 -0.41656E+05
 0.36899998E+02 -0.52134E+05
 0.36949997E+02 -0.43038E+05
 0.36999996E+02 -0.22312E+05
 0.37049999E+02 -0.99219E+04
 0.37099998E+02 -0.21123E+05
 0.37149998E+02 -0.45309E+05
 0.37199997E+02 -0.54438E+05
 0.37249996E+02 -0.41477E+05
 0.37299999E+02 -0.26511E+05
 0.37349998E+02 -0.21945E+05
 0.37399998E+02 -0.24607E+05
 0.37449997E+02 -0.29800E+05
 0.37499996E+02 -0.36533E+05
 0.37549999E+02 -0.40990E+05
 0.37599998E+02 -0.38192E+05
 0.37649998E+02 -0.31355E+05
 0.37699997E+02 -0.29395E+05
 0.37749996E+02 -0.28892E+05
 0.37799999E+02 -0.29861E+05
 0.37849998E+02 -0.37468E+05
 0.37899998E+02 -0.35866E+05
 0.37949997E+02 -0.26313E+05
 0.37999996E+02 -0.24228E+05
 0.38049999E+02 -0.31995E+05
 0.38099998E+02 -0.36816E+05
 0.38149998E+02 -0.32367E+05
 0.38199997E+02 -0.33992E+05
 0.38249996E+02 -0.44687E+05
 0.38299999E+02 -0.44575E+05
 0.38349998E+02 -0.29182E+05
 0.38399998E+02 -0.18719E+05
 0.38449997E+02 -0.25577E+05
 0.38499996E+02 -0.41400E+05
 0.38549999E+02 -0.49114E+05
 0.38599998E+02 -0.34270E+05
 0.38649998E+02 -0.16887E+05
 0.38699997E+02 -0.16497E+05
 0.38749996E+02 -0.28490E+05
 0.38799999E+02 -0.38288E+05
 0.38849998E+02 -0.34164E+05
 0.38899998E+02 -0.28915E+05
 0.38949997E+02 -0.26508E+05
 0.38999996E+02 -0.27597E+05
 0.39049999E+02 -0.26959E+05
 0.39099998E+02 -0.28927E+05
 0.39149998E+02 -0.37310E+05
 0.39199997E+02 -0.48318E+05
 0.39249996E+02 -0.46222E+05
 0.39299999E+02 -0.37263E+05
 0.39349998E+02 -0.28640E+05
 0.39399998E+02 -0.21719E+05
 0.39449997E+02 -0.28223E+05
 0.39499996E+02 -0.34864E+05
 0.39549999E+02 -0.41284E+05
 0.39599998E+02 -0.46411E+05
 0.39649998E+02 -0.45261E+05
 0.39699997E+02 -0.37943E+05
 0.39749996E+02 -0.33324E+05
 0.39799999E+02 -0.29863E+05
 0.39849998E+02 -0.22207E+05
 0.39899998E+02 -0.96282E+04
 0.39949997E+02  0.24788E+04
 0.39999996E+02 -0.74119E+04
 0.40049999E+02 -0.34854E+05
 0.40099998E+02 -0.59974E+05
 0.40149998E+02 -0.65834E+05
 0.40199997E+02 -0.46346E+05
 0.40249996E+02 -0.22580E+05
 0.40299999E+02 -0.20095E+05
 0.40349998E+02 -0.32175E+05
 0.40399998E+02 -0.38160E+05
 0.40449997E+02 -0.37224E+05
 0.40499996E+02 -0.28496E+05
 0.40549999E+02 -0.26903E+05
 0.40599998E+02 -0.32883E+05
 0.40649998E+02 -0.37489E+05
 0.40699997E+02 -0.31086E+05
 0.40749996E+02 -0.15421E+05
 0.40799999E+02 -0.11674E+05
 0.40849998E+02 -0.26172E+05
 0.40899998E+02 -0.42530E+05
 0.40949997E+02 -0.44707E+05
 0.40999996E+02 -0.39770E+05
 0.41049999E+02 -0.30483E+05
 0.41099998E+02 -0.25873E+05
 0.41149998E+02 -0.27950E+05
 0.41199997E+02 -0.32136E+05
 0.41249996E+02 -0.32071E+05
 0.41299999E+02 -0.32450E+05
 0.41349998E+02 -0.37744E+05
 0.41399998E+02 -0.40451E+05
 0.41449997E+02 -0.44574E+05
 0.41499996E+02 -0.44251E+05
 0.41549999E+02 -0.36046E+05
 0.41599998E+02 -0.27964E+05
 0.41649998E+02 -0.26610E+05
 0.41699997E+02 -0.25868E+05
 0.41749996E+02 -0.25512E+05
 0.41799999E+02 -0.24772E+05
 0.41849998E+02 -0.22689E+05
 0.41899998E+02 -0.30356E+05
 0.41949997E+02 -0.40354E+05
 0.41999996E+02 -0.46012E+05
 0.42049999E+02 -0.41803E+05
 0.42099998E+02 -0.35999E+05
 0.42149998E+02 -0.32519E+05
 0.42199997E+02 -0.23085E+05
 0.42249996E+02 -0.16067E+05
 0.42299999E+02 -0.20451E+05
 0.42349998E+02 -0.29854E+05
 0.42399998E+02 -0.35909E+05
 0.42449997E+02 -0.40692E+05
 0.42499996E+02 -0.39793E+05
 0.42549999E+02 -0.40602E+05
 0.42599998E+02 -0.42980E+05
 0.42649998E+02 -0.37987E+05
 0.42699997E+02 -0.25390E+05
 0.42749996E+02 -0.18199E+05
 0.42799995E+02 -0.23305E+05
 0.42849998E+02 -0.35479E+05
 0.42899998E+02 -0.47407E+05
 0.42949997E+02 -0.51143E+05
 0.42999996E+02 -0.47398E+05
 0.43049995E+02 -0.34612E+05
 0.43099998E+02 -0.21541E+05
 0.43149998E+02 -0.16115E+05
 0.43199997E+02 -0.16504E+05
 0.43249996E+02 -0.20544E+05
 0.43299995E+02 -0.36961E+05
 0.43349998E+02 -0.49372E+05
 0.43399998E+02 -0.44814E+05
 0.43449997E+02 -0.39711E+05
 0.43499996E+02 -0.35527E+05
 0.43549995E+02 -0.32921E+05
 0.43599998E+02 -0.30123E+05
 0.43649998E+02 -0.23702E+05
 0.43699997E+02 -0.25168E+05
 0.43749996E+02 -0.32650E+05
 0.43799995E+02 -0.33095E+05
 0.43849998E+02 -0.28378E+05
 0.43899998E+02 -0.25390E+05
 0.43949997E+02 -0.27493E+05
 0.43999996E+02 -0.28928E+05
 0.44049995E+02 -0.23741E+05
 0.44099998E+02 -0.22282E+05
 0.44149998E+02 -0.29512E+05
 0.44199997E+02 -0.36552E+05
 0.44249996E+02 -0.40099E+05
 0.44299995E+02 -0.37018E+05
 0.44349998E+02 -0.33447E+05
 0.44399998E+02 -0.37234E+05
 0.44449997E+02 -0.36371E+05
 0.44499996E+02 -0.28818E+05
 0.44549995E+02 -0.26741E+05
 0.44599998E+02 -0.30831E+05
 0.44649998E+02 -0.33848E+05
 0.44699997E+02 -0.35852E+05
 0.44749996E+02 -0.38476E+05
 0.44799995E+02 -0.38027E+05
 0.44849998E+02 -0.28656E+05
 0.44899998E+02 -0.18532E+05
 0.44949997E+02 -0.17573E+05
 0.44999996E+02 -0.23567E+05
 0.45049995E+02 -0.29637E+05
 0.45099998E+02 -0.37120E+05
 0.45149998E+02 -0.44563E+05
 0.45199997E+02 -0.47141E+05
 0.45249996E+02 -0.46200E+05
 0.45299995E+02 -0.32867E+05
 0.45349998E+02 -0.23984E+05
 0.45399998E+02 -0.23196E+05
 0.45449997E+02 -0.26911E+05
 0.45499996E+02 -0.31574E+05
 0.45549995E+02 -0.33077E+05
 0.45599998E+02 -0.41413E+05
 0.45649998E+02 -0.45093E+05
 0.45699997E+02 -0.41670E+05
 0.45749996E+02 -0.35279E+05
 0.45799995E+02 -0.30164E+05
 0.45849998E+02 -0.26769E+05
 0.45899998E+02 -0.25689E+05
 0.45949997E+02 -0.25358E+05
 0.45999996E+02 -0.33203E+05
 0.46049995E+02 -0.42874E+05
 0.46099998E+02 -0.42124E+05
 0.46149998E+02 -0.34289E+05
 0.46199997E+02 -0.28262E+05
 0.46249996E+02 -0.27344E+05
 0.46299995E+02 -0.29917E+05
 0.46349998E+02 -0.33643E+05
 0.46399998E+02 -0.31181E+05
 0.46449997E+02 -0.28414E+05
 0.46499996E+02 -0.24789E+05
 0.46549995E+02 -0.29519E+05
 0.46599998E+02 -0.36059E+05
 0.46649998E+02 -0.37201E+05
 0.46699997E+02 -0.38952E+05
 0.46749996E+02 -0.37135E+05
 0.46799995E+02 -0.32331E+05
 0.46849998E+02 -0.23634E+05
 0.46899998E+02 -0.22887E+05
 0.46949997E+02 -0.30454E+05
 0.46999996E+02 -0.32964E+05
 0.47049995E+02 -0.33178E+05
 0.47099998E+02 -0.33156E+05
 0.47149998E+02 -0.35786E+05
 0.47199997E+02 -0.38255E+05
 0.47249996E+02 -0.35208E+05
 0.47299995E+02 -0.30572E+05
 0.47349998E+02 -0.25829E+05
 0.47399998E+02 -0.22692E+05
 0.47449997E+02 -0.25552E+05
 0.47499996E+02 -0.27586E+05
 0.47549995E+02 -0.26915E+05
 0.47599998E+02 -0.27286E+05
 0.47649998E+02 -0.33425E+05
 0.47699997E+02 -0.42618E+05
 0.47749996E+02 -0.41928E+05
 0.47799995E+02 -0.38343E+05
 0.47849998E+02 -0.41371E+05
 0.47899998E+02 -0.39281E+05
 0.47949997E+02 -0.36483E+05
 0.47999996E+02 -0.38091E+05
 0.48049995E+02 -0.36044E+05
 0.48099998E+02 -0.32119E+05
 0.48149998E+02 -0.34618E+05
 0.48199997E+02 -0.36730E+05
 0.48249996E+02 -0.31588E+05
 0.48299995E+02 -0.31901E+05
 0.48349998E+02 -0.30916E+05
 0.48399998E+02 -0.29323E+05
 0.48449997E+02 -0.29574E+05
 0.48499996E+02 -0.25494E+05
 0.48549995E+02 -0.22792E+05
 0.48599998E+02 -0.24039E+05
 0.48649998E+02 -0.29453E+05
 0.48699997E+02 -0.33336E+05
 0.48749996E+02 -0.33379E+05
 0.48799995E+02 -0.35631E+05
 0.48849998E+02 -0.33604E+05
 0.48899998E+02 -0.26889E+05
 0.48949997E+02 -0.21896E+05
 0.48999996E+02 -0.23369E+05
 0.49049995E+02 -0.29288E+05
 0.49099998E+02 -0.31387E+05
 0.49149998E+02 -0.32935E+05
 0.49199997E+02 -0.40873E+05
 0.49249996E+02 -0.44077E+05
 0.49299995E+02 -0.41738E+05
 0.49349998E+02 -0.40090E+05
 0.49399998E+02 -0.35502E+05
 0.49449997E+02 -0.33681E+05
 0.49499996E+02 -0.34649E+05
 0.49549995E+02 -0.34965E+05
 0.49599998E+02 -0.33539E+05
 0.49649998E+02 -0.32126E+05
 0.49699997E+02 -0.31954E+05
 0.49749996E+02 -0.33848E+05
 0.49799995E+02 -0.34075E+05
 0.49849998E+02 -0.35300E+05
 0.49899998E+02 -0.34197E+05
 0.49949997E+02 -0.25761E+05
 0.49999996E+02 -0.23117E+05
 0.50049995E+02 -0.26181E+05
 0.50099998E+02 -0.31329E+05
 0.50149998E+02 -0.33387E+05
 0.50199997E+02 -0.32322E+05
 0.50249996E+02 -0.30174E+05
 0.50299995E+02 -0.27312E+05
 0.50349998E+02 -0.26364E+05
 0.50399998E+02 -0.28224E+05
 0.50449997E+02 -0.31689E+05
 0.50499996E+02 -0.33132E+05
 0.50549995E+02 -0.33651E+05
 0.50599998E+02 -0.31770E+05
 0.50649998E+02 -0.30599E+05
 0.50699997E+02 -0.31554E+05
 0.50749996E+02 -0.33315E+05
 0.50799995E+02 -0.36333E+05
 0.50849998E+02 -0.38379E+05
 0.50899998E+02 -0.38515E+05
 0.50949997E+02 -0.39375E+05
 0.50999996E+02 -0.38976E+05
 0.51049995E+02 -0.35288E+05
 0.51099998E+02 -0.30871E+05
 0.51149998E+02 -0.29367E+05
 0.51199997E+02 -0.31893E+05
 0.51249996E+02 -0.34894E+05
 0.51299995E+02 -0.34621E+05
 0.51349998E+02 -0.34422E+05
 0.51399998E+02 -0.33220E+05
 0.51449997E+02 -0.29054E+05
 0.51499996E+02 -0.29481E+05
 0.51549995E+02 -0.33007E+05
 0.51599998E+02 -0.34214E+05
 0.51649998E+02 -0.33933E+05
 0.51699997E+02 -0.28656E+05
 0.51749996E+02 -0.23485E+05
 0.51799995E+02 -0.24977E+05
 0.51849998E+02 -0.27800E+05
 0.51899998E+02 -0.31323E+05
 0.51949997E+02 -0.31412E+05
 0.51999996E+02 -0.33032E+05
 0.52049995E+02 -0.35012E+05
 0.52099998E+02 -0.30179E+05
 0.52149998E+02 -0.26762E+05
 0.52199997E+02 -0.27890E+05
 0.52249996E+02 -0.31062E+05
 0.52299995E+02 -0.35783E+05
 0.52349998E+02 -0.38867E+05
 0.52399998E+02 -0.36700E+05
 0.52449997E+02 -0.34231E+05
 0.52499996E+02 -0.33470E+05
 0.52549995E+02 -0.36022E+05
 0.52599998E+02 -0.37200E+05
 0.52649998E+02 -0.36062E+05
 0.52699997E+02 -0.36593E+05
 0.52749996E+02 -0.36558E+05
 0.52799995E+02 -0.34177E+05
 0.52849998E+02 -0.31951E+05
 0.52899998E+02 -0.29908E+05
 0.52949997E+02 -0.26720E+05
 0.52999996E+02 -0.26772E+05
 0.53049995E+02 -0.29258E+05
 0.53099998E+02 -0.32822E+05
 0.53149998E+02 -0.34455E+05
 0.53199997E+02 -0.36293E+05
 0.53249996E+02 -0.36015E+05
 0.53299995E+02 -0.32903E+05
 0.53349998E+02 -0.31575E+05
 0.53399998E+02 -0.31377E+05
 0.53449997E+02 -0.28959E+05
 0.53499996E+02 -0.25307E+05
 0.53549995E+02 -0.24713E+05
 0.53599998E+02 -0.26865E+05
 0.53649998E+02 -0.30801E+05
 0.53699997E+02 -0.31739E+05
 0.53749996E+02 -0.32583E+05
 0.53799995E+02 -0.33433E+05
 0.53849998E+02 -0.34213E+05
 0.53899998E+02 -0.31278E+05
 0.53949997E+02 -0.27105E+05
 0.53999996E+02 -0.27084E+05
 0.54049995E+02 -0.29060E+05
 0.54099998E+02 -0.31893E+05
 0.54149998E+02 -0.34499E+05
 0.54199997E+02 -0.35837E+05
 0.54249996E+02 -0.36073E+05
 0.54299995E+02 -0.35521E+05
 0.54349998E+02 -0.35634E+05
 0.54399998E+02 -0.37517E+05
 0.54449997E+02 -0.37236E+05
 0.54499996E+02 -0.37275E+05
 0.54549995E+02 -0.36005E+05
 0.54599998E+02 -0.32568E+05
 0.54649998E+02 -0.31735E+05
 0.54699997E+02 -0.33533E+05
 0.54749996E+02 -0.34926E+05
 0.54799995E+02 -0.33362E+05
 0.54849998E+02 -0.31466E+05
 0.54899998E+02 -0.33669E+05
 0.54949997E+02 -0.32870E+05
 0.54999996E+02 -0.27903E+05
 0.55049995E+02 -0.26150E+05
 0.55099998E+02 -0.29344E+05
 0.55149998E+02 -0.34534E+05
 0.55199997E+02 -0.38015E+05
 0.55249996E+02 -0.37922E+05
 0.55299995E+02 -0.37117E+05
 0.55349998E+02 -0.36369E+05
 0.55399998E+02 -0.31992E+05
 0.55449997E+02 -0.25879E+05
 0.55499996E+02 -0.23196E+05
 0.55549995E+02 -0.25328E+05
 0.55599998E+02 -0.29131E+05
 0.55649998E+02 -0.33579E+05
 0.55699997E+02 -0.35399E+05
 0.55749996E+02 -0.33078E+05
 0.55799995E+02 -0.32593E+05
 0.55849995E+02 -0.33570E+05
 0.55899998E+02 -0.32050E+05
 0.55949997E+02 -0.30172E+05
 0.55999996E+02 -0.30681E+05
 0.56049995E+02 -0.32646E+05
 0.56099995E+02 -0.34686E+05
 0.56149998E+02 -0.35930E+05
 0.56199997E+02 -0.35180E+05
 0.56249996E+02 -0.34122E+05
 0.56299995E+02 -0.32661E+05
 0.56349995E+02 -0.30971E+05
 0.56399998E+02 -0.30344E+05
 0.56449997E+02 -0.30814E+05
 0.56499996E+02 -0.29785E+05
 0.56549995E+02 -0.26981E+05
 0.56599995E+02 -0.26731E+05
 0.56649998E+02 -0.27900E+05
 0.56699997E+02 -0.30468E+05
 0.56749996E+02 -0.34648E+05
 0.56799995E+02 -0.37977E+05
 0.56849995E+02 -0.39099E+05
 0.56899998E+02 -0.39624E+05
 0.56949997E+02 -0.39523E+05
 0.56999996E+02 -0.37354E+05
 0.57049995E+02 -0.32391E+05
 0.57099995E+02 -0.27755E+05
 0.57149998E+02 -0.26539E+05
 0.57199997E+02 -0.27181E+05
 0.57249996E+02 -0.30174E+05
 0.57299995E+02 -0.33846E+05
 0.57349995E+02 -0.36938E+05
 0.57399998E+02 -0.37439E+05
 0.57449997E+02 -0.33641E+05
 0.57499996E+02 -0.29544E+05
 0.57549995E+02 -0.29285E+05
 0.57599995E+02 -0.30079E+05
 0.57649998E+02 -0.31268E+05
 0.57699997E+02 -0.32907E+05
 0.57749996E+02 -0.31886E+05
 0.57799995E+02 -0.29421E+05
 0.57849995E+02 -0.28996E+05
 0.57899998E+02 -0.30037E+05
 0.57949997E+02 -0.31229E+05
 0.57999996E+02 -0.32273E+05
 0.58049995E+02 -0.33751E+05
 0.58099995E+02 -0.35973E+05
 0.58149998E+02 -0.36591E+05
 0.58199997E+02 -0.35661E+05
 0.58249996E+02 -0.33818E+05
 0.58299995E+02 -0.32468E+05
 0.58349995E+02 -0.31168E+05
 0.58399998E+02 -0.29287E+05
 0.58449997E+02 -0.28205E+05
 0.58499996E+02 -0.29274E+05
 0.58549995E+02 -0.31722E+05
 0.58599995E+02 -0.33267E+05
 0.58649998E+02 -0.33019E+05
 0.58699997E+02 -0.33292E+05
 0.58749996E+02 -0.34141E+05
 0.58799995E+02 -0.35702E+05
 0.58849995E+02 -0.36000E+05
 0.58899998E+02 -0.33591E+05
 0.58949997E+02 -0.32372E+05
 0.58999996E+02 -0.32724E+05
 0.59049995E+02 -0.32537E+05
 0.59099995E+02 -0.31523E+05
 0.59149998E+02 -0.29976E+05
 0.59199997E+02 -0.28652E+05
 0.59249996E+02 -0.30564E+05
 0.59299995E+02 -0.31951E+05
 0.59349995E+02 -0.31706E+05
 0.59399998E+02 -0.30856E+05
 0.59449997E+02 -0.29924E+05
 0.59499996E+02 -0.31581E+05
 0.59549995E+02 -0.35245E+05
 0.59599995E+02 -0.38337E+05
 0.59649998E+02 -0.39391E+05
 0.59699997E+02 -0.38539E+05
 0.59749996E+02 -0.36318E+05
 0.59799995E+02 -0.32642E+05
 0.59849995E+02 -0.28736E+05
 0.59899998E+02 -0.26615E+05
 0.59949997E+02 -0.25988E+05
 0.59999996E+02 -0.27263E+05
 0.60049995E+02 -0.30299E+05
 0.60099995E+02 -0.35318E+05
 0.60149998E+02 -0.38608E+05
 0.60199997E+02 -0.38427E+05
 0.60249996E+02 -0.37156E+05
 0.60299995E+02 -0.34885E+05
 0.60349995E+02 -0.32834E+05
 0.60399998E+02 -0.32436E+05
 0.60449997E+02 -0.31779E+05
 0.60499996E+02 -0.29643E+05
 0.60549995E+02 -0.28140E+05
 0.60599995E+02 -0.27456E+05
 0.60649998E+02 -0.26288E+05
 0.60699997E+02 -0.26371E+05
 0.60749996E+02 -0.27745E+05
 0.60799995E+02 -0.29785E+05
 0.60849995E+02 -0.33109E+05
 0.60899998E+02 -0.34896E+05
 0.60949997E+02 -0.36357E+05
 0.60999996E+02 -0.37566E+05
 0.61049995E+02 -0.36718E+05
 0.61099995E+02 -0.36024E+05
 0.61149998E+02 -0.34330E+05
 0.61199997E+02 -0.32031E+05
 0.61249996E+02 -0.31751E+05
 0.61299995E+02 -0.31493E+05
 0.61349995E+02 -0.30463E+05
 0.61399998E+02 -0.30199E+05
 0.61449997E+02 -0.30553E+05
 0.61499996E+02 -0.32666E+05
 0.61549995E+02 -0.33935E+05
 0.61599995E+02 -0.33507E+05
 0.61649998E+02 -0.33124E+05
 0.61699997E+02 -0.31360E+05
 0.61749996E+02 -0.30958E+05
 0.61799995E+02 -0.31335E+05
 0.61849995E+02 -0.29485E+05
 0.61899998E+02 -0.26960E+05
 0.61949997E+02 -0.26536E+05
 0.61999996E+02 -0.29431E+05
 0.62049995E+02 -0.32827E+05
 0.62099998E+02 -0.34621E+05
 0.62149994E+02 -0.36439E+05
 0.62199997E+02 -0.37320E+05
 0.62249992E+02 -0.36688E+05
 0.62299995E+02 -0.34858E+05
 0.62349998E+02 -0.31655E+05
 0.62399994E+02 -0.30033E+05
 0.62449997E+02 -0.30678E+05
 0.62499992E+02 -0.30425E+05
 0.62549995E+02 -0.30365E+05
 0.62599998E+02 -0.32454E+05
 0.62649994E+02 -0.34372E+05
 0.62699997E+02 -0.36064E+05
 0.62749992E+02 -0.35329E+05
 0.62799995E+02 -0.32942E+05
 0.62849998E+02 -0.33090E+05
 0.62899994E+02 -0.33588E+05
 0.62949997E+02 -0.33412E+05
 0.62999992E+02 -0.33121E+05
 0.63049995E+02 -0.32619E+05
 0.63099998E+02 -0.32942E+05
 0.63149994E+02 -0.32097E+05
 0.63199997E+02 -0.30938E+05
 0.63249992E+02 -0.33094E+05
 0.63299995E+02 -0.35418E+05
 0.63349998E+02 -0.33954E+05
 0.63399994E+02 -0.30604E+05
 0.63449997E+02 -0.28314E+05
 0.63499992E+02 -0.29392E+05
 0.63549995E+02 -0.32796E+05
 0.63599998E+02 -0.33809E+05
 0.63649994E+02 -0.32531E+05
 0.63699997E+02 -0.32223E+05
 0.63749992E+02 -0.33282E+05
 0.63799995E+02 -0.34068E+05
 0.63849998E+02 -0.33512E+05
 0.63899994E+02 -0.32706E+05
 0.63949997E+02 -0.33805E+05
 0.63999992E+02 -0.35346E+05
 0.64049995E+02 -0.34479E+05
 0.64099998E+02 -0.31770E+05
 0.64149994E+02 -0.29459E+05
 0.64199997E+02 -0.29517E+05
 0.64249992E+02 -0.30672E+05
 0.64299995E+02 -0.32190E+05
 0.64349998E+02 -0.34824E+05
 0.64399994E+02 -0.36795E+05
 0.64449997E+02 -0.35834E+05
 0.64499992E+02 -0.32832E+05
 0.64549995E+02 -0.30215E+05
 0.64599998E+02 -0.28131E+05
 0.64649994E+02 -0.28052E+05
 0.64699997E+02 -0.28967E+05
 0.64749992E+02 -0.28651E+05
 0.64799995E+02 -0.29349E+05
 0.64849998E+02 -0.31519E+05
 0.64899994E+02 -0.33202E+05
 0.64949997E+02 -0.34243E+05
 0.64999992E+02 -0.33819E+05
 0.65049995E+02 -0.33025E+05
 0.65099998E+02 -0.31726E+05
 0.65149994E+02 -0.30467E+05
 0.65199997E+02 -0.30581E+05
 0.65249992E+02 -0.31149E+05
 0.65299995E+02 -0.33179E+05
 0.65349998E+02 -0.34803E+05
 0.65399994E+02 -0.34766E+05
 0.65449997E+02 -0.33789E+05
 0.65499992E+02 -0.32236E+05
 0.65549995E+02 -0.31362E+05
 0.65599998E+02 -0.31854E+05
 0.65649994E+02 -0.33034E+05
 0.65699997E+02 -0.34419E+05
 0.65749992E+02 -0.34681E+05
 0.65799995E+02 -0.33833E+05
 0.65849998E+02 -0.32619E+05
 0.65899994E+02 -0.31217E+05
 0.65949997E+02 -0.30870E+05
 0.65999992E+02 -0.31048E+05
 0.66049995E+02 -0.32063E+05
 0.66099998E+02 -0.33800E+05
 0.66149994E+02 -0.35125E+05
 0.66199997E+02 -0.34165E+05
 0.66249992E+02 -0.31481E+05
 0.66299995E+02 -0.29560E+05
 0.66349998E+02 -0.28489E+05
 0.66399994E+02 -0.28797E+05
 0.66449997E+02 -0.29186E+05
 0.66499992E+02 -0.29024E+05
 0.66549995E+02 -0.29524E+05
 0.66599998E+02 -0.31233E+05
 0.66649994E+02 -0.32442E+05
 0.66699997E+02 -0.32432E+05
 0.66749992E+02 -0.32955E+05
 0.66799995E+02 -0.35199E+05
 0.66849998E+02 -0.36895E+05
 0.66899994E+02 -0.36799E+05
 0.66949997E+02 -0.36388E+05
 0.66999992E+02 -0.36225E+05
 0.67049995E+02 -0.35451E+05
 0.67099998E+02 -0.33304E+05
 0.67149994E+02 -0.31000E+05
 0.67199997E+02 -0.29683E+05
 0.67249992E+02 -0.29952E+05
 0.67299995E+02 -0.31510E+05
 0.67349998E+02 -0.33442E+05
 0.67399994E+02 -0.34667E+05
 0.67449997E+02 -0.34845E+05
 0.67499992E+02 -0.33913E+05
 0.67549995E+02 -0.33457E+05
 0.67599998E+02 -0.33246E+05
 0.67649994E+02 -0.32429E+05
 0.67699997E+02 -0.31389E+05
 0.67749992E+02 -0.30232E+05
 0.67799995E+02 -0.29797E+05
 0.67849998E+02 -0.30291E+05
 0.67899994E+02 -0.31357E+05
 0.67949997E+02 -0.31178E+05
 0.67999992E+02 -0.30384E+05
 0.68049995E+02 -0.30796E+05
 0.68099998E+02 -0.31168E+05
 0.68149994E+02 -0.30364E+05
 0.68199997E+02 -0.29744E+05
 0.68249992E+02 -0.29895E+05
 0.68299995E+02 -0.31395E+05
 0.68349998E+02 -0.34590E+05
 0.68399994E+02 -0.36152E+05
 0.68449997E+02 -0.35950E+05
 0.68499992E+02 -0.35456E+05
 0.68549995E+02 -0.34485E+05
 0.68599998E+02 -0.33541E+05
 0.68649994E+02 -0.33074E+05
 0.68699997E+02 -0.32774E+05
 0.68749992E+02 -0.32403E+05
 0.68799995E+02 -0.32693E+05
 0.68849998E+02 -0.32778E+05
 0.68899994E+02 -0.33207E+05
 0.68949997E+02 -0.34219E+05
 0.68999992E+02 -0.34492E+05
 0.69049995E+02 -0.33883E+05
 0.69099998E+02 -0.32542E+05
 0.69149994E+02 -0.31018E+05
 0.69199997E+02 -0.30229E+05
 0.69249992E+02 -0.30543E+05
 0.69299995E+02 -0.31714E+05
 0.69349998E+02 -0.33145E+05
 0.69399994E+02 -0.34342E+05
 0.69449997E+02 -0.35375E+05
 0.69499992E+02 -0.35529E+05
 0.69549995E+02 -0.33771E+05
 0.69599998E+02 -0.31610E+05
 0.69649994E+02 -0.30654E+05
 0.69699997E+02 -0.30032E+05
 0.69749992E+02 -0.29235E+05
 0.69799995E+02 -0.29040E+05
 0.69849998E+02 -0.29872E+05
 0.69899994E+02 -0.30325E+05
 0.69949997E+02 -0.30605E+05
 0.69999992E+02 -0.31185E+05
 0.70049995E+02 -0.31539E+05
 0.70099998E+02 -0.31787E+05
 0.70149994E+02 -0.31772E+05
 0.70199997E+02 -0.31422E+05
 0.70249992E+02 -0.31662E+05
 0.70299995E+02 -0.32264E+05
 0.70349998E+02 -0.32711E+05
 0.70399994E+02 -0.32533E+05
 0.70449997E+02 -0.31906E+05
 0.70499992E+02 -0.32057E+05
 0.70549995E+02 -0.32484E+05
 0.70599998E+02 -0.33373E+05
 0.70649994E+02 -0.33807E+05
 0.70699997E+02 -0.33979E+05
 0.70749992E+02 -0.34418E+05
 0.70799995E+02 -0.34194E+05
 0.70849998E+02 -0.33354E+05
 0.70899994E+02 -0.32752E+05
 0.70949997E+02 -0.32686E+05
 0.70999992E+02 -0.31744E+05
 0.71049995E+02 -0.29611E+05
 0.71099998E+02 -0.27937E+05
 0.71149994E+02 -0.28950E+05
 0.71199997E+02 -0.31556E+05
 0.71249992E+02 -0.33615E+05
 0.71299995E+02 -0.34673E+05
 0.71349998E+02 -0.35311E+05
 0.71399994E+02 -0.35752E+05
 0.71449997E+02 -0.35504E+05
 0.71499992E+02 -0.34380E+05
 0.71549995E+02 -0.32356E+05
 0.71599998E+02 -0.31523E+05
 0.71649994E+02 -0.31589E+05
 0.71699997E+02 -0.30567E+05
 0.71749992E+02 -0.29125E+05
 0.71799995E+02 -0.28433E+05
 0.71849998E+02 -0.29043E+05
 0.71899994E+02 -0.30335E+05
 0.71949997E+02 -0.31041E+05
 0.71999992E+02 -0.31534E+05
 0.72049995E+02 -0.33400E+05
 0.72099998E+02 -0.36315E+05
 0.72149994E+02 -0.38399E+05
 0.72199997E+02 -0.38745E+05
 0.72249992E+02 -0.38166E+05
 0.72299995E+02 -0.36422E+05
 0.72349998E+02 -0.34211E+05
 0.72399994E+02 -0.33210E+05
 0.72449997E+02 -0.32755E+05
 0.72499992E+02 -0.31854E+05
 0.72549995E+02 -0.30424E+05
 0.72599998E+02 -0.29065E+05
 0.72649994E+02 -0.28636E+05
 0.72699997E+02 -0.28655E+05
 0.72749992E+02 -0.28667E+05
 0.72799995E+02 -0.28842E+05
 0.72849998E+02 -0.29902E+05
 0.72899994E+02 -0.32048E+05
 0.72949997E+02 -0.33346E+05
 0.72999992E+02 -0.33201E+05
 0.73049995E+02 -0.33029E+05
 0.73099998E+02 -0.33392E+05
 0.73149994E+02 -0.33587E+05
 0.73199997E+02 -0.33486E+05
 0.73249992E+02 -0.33018E+05
 0.73299995E+02 -0.32798E+05
 0.73349998E+02 -0.33454E+05
 0.73399994E+02 -0.34298E+05
 0.73449997E+02 -0.34303E+05
 0.73499992E+02 -0.33684E+05
 0.73549995E+02 -0.33244E+05
 0.73599998E+02 -0.32611E+05
 0.73649994E+02 -0.31640E+05
 0.73699997E+02 -0.31052E+05
 0.73749992E+02 -0.30887E+05
 0.73799995E+02 -0.30541E+05
 0.73849998E+02 -0.30990E+05
 0.73899994E+02 -0.32729E+05
 0.73949997E+02 -0.33908E+05
 0.73999992E+02 -0.33457E+05
 0.74049995E+02 -0.32397E+05
 0.74099998E+02 -0.31349E+05
 0.74149994E+02 -0.30948E+05
 0.74199997E+02 -0.31252E+05
 0.74249992E+02 -0.31586E+05
 0.74299995E+02 -0.31732E+05
 0.74349998E+02 -0.31696E+05
 0.74399994E+02 -0.32132E+05
 0.74449997E+02 -0.31838E+05
 0.74499992E+02 -0.30867E+05
 0.74549995E+02 -0.30332E+05
 0.74599998E+02 -0.30063E+05
 0.74649994E+02 -0.30876E+05
 0.74699997E+02 -0.32766E+05
 0.74749992E+02 -0.34520E+05
 0.74799995E+02 -0.35694E+05
 0.74849998E+02 -0.35841E+05
 0.74899994E+02 -0.34883E+05
 0.74949997E+02 -0.33783E+05
 0.74999992E+02 -0.32959E+05
 0.75049995E+02 -0.32360E+05
 0.75099998E+02 -0.32205E+05
 0.75149994E+02 -0.32882E+05
 0.75199997E+02 -0.33574E+05
 0.75249992E+02 -0.33336E+05
 0.75299995E+02 -0.32904E+05
 0.75349998E+02 -0.32617E+05
 0.75399994E+02 -0.32288E+05
 0.75449997E+02 -0.32420E+05
 0.75499992E+02 -0.32999E+05
 0.75549995E+02 -0.33496E+05
 0.75599998E+02 -0.33518E+05
 0.75649994E+02 -0.32911E+05
 0.75699997E+02 -0.31805E+05
 0.75749992E+02 -0.30720E+05
 0.75799995E+02 -0.30033E+05
 0.75849998E+02 -0.30191E+05
 0.75899994E+02 -0.30574E+05
 0.75949997E+02 -0.30808E+05
 0.75999992E+02 -0.31534E+05
 0.76049995E+02 -0.31920E+05
 0.76099998E+02 -0.31818E+05
 0.76149994E+02 -0.32048E+05
 0.76199997E+02 -0.32297E+05
 0.76249992E+02 -0.32458E+05
 0.76299995E+02 -0.32829E+05
 0.76349998E+02 -0.32963E+05
 0.76399994E+02 -0.32568E+05
 0.76449997E+02 -0.31717E+05
 0.76499992E+02 -0.31165E+05
 0.76549995E+02 -0.31642E+05
 0.76599998E+02 -0.32630E+05
 0.76649994E+02 -0.33588E+05
 0.76699997E+02 -0.34456E+05
 0.76749992E+02 -0.34854E+05
 0.76799995E+02 -0.35023E+05
 0.76849998E+02 -0.34843E+05
 0.76899994E+02 -0.33502E+05
 0.76949997E+02 -0.31871E+05
 0.76999992E+02 -0.31168E+05
 0.77049995E+02 -0.31183E+05
 0.77099998E+02 -0.31387E+05
 0.77149994E+02 -0.31610E+05
 0.77199997E+02 -0.31380E+05
 0.77249992E+02 -0.31356E+05
 0.77299995E+02 -0.32062E+05
 0.77349998E+02 -0.32569E+05
 0.77399994E+02 -0.32505E+05
 0.77449997E+02 -0.32383E+05
 0.77499992E+02 -0.32183E+05
 0.77549995E+02 -0.32152E+05
 0.77599998E+02 -0.32283E+05
 0.77649994E+02 -0.32077E+05
 0.77699997E+02 -0.32007E+05
 0.77749992E+02 -0.32028E+05
 0.77799995E+02 -0.31820E+05
 0.77849998E+02 -0.31381E+05
 0.77899994E+02 -0.31070E+05
 0.77949997E+02 -0.31335E+05
 0.77999992E+02 -0.32251E+05
 0.78049995E+02 -0.33724E+05
 0.78099998E+02 -0.35143E+05
 0.78149994E+02 -0.35397E+05
 0.78199997E+02 -0.34299E+05
 0.78249992E+02 -0.33024E+05
 0.78299995E+02 -0.32080E+05
 0.78349998E+02 -0.31504E+05
 0.78399994E+02 -0.31318E+05
 0.78449997E+02 -0.31518E+05
 0.78499992E+02 -0.31862E+05
 0.78549995E+02 -0.31574E+05
 0.78599998E+02 -0.30988E+05
 0.78649994E+02 -0.30586E+05
 0.78699997E+02 -0.30778E+05
 0.78749992E+02 -0.31270E+05
 0.78799995E+02 -0.31334E+05
 0.78849998E+02 -0.31704E+05
 0.78899994E+02 -0.32567E+05
 0.78949997E+02 -0.33267E+05
 0.78999992E+02 -0.34035E+05
 0.79049995E+02 -0.34167E+05
 0.79099998E+02 -0.33134E+05
 0.79149994E+02 -0.32367E+05
 0.79199997E+02 -0.32419E+05
 0.79249992E+02 -0.32361E+05
 0.79299995E+02 -0.32029E+05
 0.79349998E+02 -0.31946E+05
 0.79399994E+02 -0.32603E+05
 0.79449997E+02 -0.33327E+05
 0.79499992E+02 -0.33175E+05
 0.79549995E+02 -0.32682E+05
 0.79599998E+02 -0.32140E+05
 0.79649994E+02 -0.31381E+05
 0.79699997E+02 -0.30791E+05
 0.79749992E+02 -0.30848E+05
 0.79799995E+02 -0.31884E+05
 0.79849998E+02 -0.33534E+05
 0.79899994E+02 -0.34227E+05
 0.79949997E+02 -0.33699E+05
 0.79999992E+02 -0.32839E+05
 0.80049995E+02 -0.32426E+05
 0.80099998E+02 -0.32762E+05
 0.80149994E+02 -0.32718E+05
 0.80199997E+02 -0.32507E+05
 0.80249992E+02 -0.33205E+05
 0.80299995E+02 -0.33789E+05
 0.80349998E+02 -0.33617E+05
 0.80399994E+02 -0.33205E+05
 0.80449997E+02 -0.32671E+05
 0.80499992E+02 -0.32197E+05
 0.80549995E+02 -0.31806E+05
 0.80599998E+02 -0.31539E+05
 0.80649994E+02 -0.31793E+05
 0.80699997E+02 -0.32458E+05
 0.80749992E+02 -0.33280E+05
 0.80799995E+02 -0.33582E+05
 0.80849998E+02 -0.32424E+05
 0.80899994E+02 -0.30727E+05
 0.80949997E+02 -0.29907E+05
 0.80999992E+02 -0.29843E+05
 0.81049995E+02 -0.30379E+05
 0.81099998E+02 -0.31243E+05
 0.81149994E+02 -0.32035E+05
 0.81199997E+02 -0.32802E+05
 0.81249992E+02 -0.33204E+05
 0.81299995E+02 -0.33052E+05
 0.81349998E+02 -0.33123E+05
 0.81399994E+02 -0.33683E+05
 0.81449997E+02 -0.34210E+05
 0.81499992E+02 -0.34583E+05
 0.81549995E+02 -0.34671E+05
 0.81599998E+02 -0.34550E+05
 0.81649994E+02 -0.33939E+05
 0.81699997E+02 -0.32732E+05
 0.81749992E+02 -0.31568E+05
 0.81799995E+02 -0.30865E+05
 0.81849998E+02 -0.30823E+05
 0.81899994E+02 -0.31337E+05
 0.81949997E+02 -0.31819E+05
 0.81999992E+02 -0.32012E+05
 0.82049995E+02 -0.32409E+05
 0.82099998E+02 -0.32612E+05
 0.82149994E+02 -0.32136E+05
 0.82199997E+02 -0.31538E+05
 0.82249992E+02 -0.31247E+05
 0.82299995E+02 -0.31321E+05
 0.82349998E+02 -0.31623E+05
 0.82399994E+02 -0.31866E+05
 0.82449997E+02 -0.32131E+05
 0.82499992E+02 -0.32407E+05
 0.82549995E+02 -0.32333E+05
 0.82599998E+02 -0.31880E+05
 0.82649994E+02 -0.31675E+05
 0.82699997E+02 -0.31842E+05
 0.82749992E+02 -0.32427E+05
 0.82799995E+02 -0.33415E+05
 0.82849998E+02 -0.33849E+05
 0.82899994E+02 -0.33981E+05
 0.82949997E+02 -0.33825E+05
 0.82999992E+02 -0.33544E+05
 0.83049995E+02 -0.33651E+05
 0.83099998E+02 -0.33672E+05
 0.83149994E+02 -0.33417E+05
 0.83199997E+02 -0.32971E+05
 0.83249992E+02 -0.32100E+05
 0.83299995E+02 -0.31108E+05
 0.83349998E+02 -0.30455E+05
 0.83399994E+02 -0.29854E+05
 0.83449997E+02 -0.29548E+05
 0.83499992E+02 -0.29877E+05
 0.83549995E+02 -0.30642E+05
 0.83599998E+02 -0.31529E+05
 0.83649994E+02 -0.32018E+05
 0.83699997E+02 -0.31696E+05
 0.83749992E+02 -0.31246E+05
 0.83799995E+02 -0.31351E+05
 0.83849998E+02 -0.31972E+05
 0.83899994E+02 -0.32556E+05
 0.83949997E+02 -0.32790E+05
 0.83999992E+02 -0.33248E+05
 0.84049995E+02 -0.33908E+05
 0.84099998E+02 -0.34215E+05
 0.84149994E+02 -0.34168E+05
 0.84199997E+02 -0.33694E+05
 0.84249992E+02 -0.33217E+05
 0.84299995E+02 -0.33248E+05
 0.84349998E+02 -0.33057E+05
 0.84399994E+02 -0.32747E+05
 0.84449997E+02 -0.32595E+05
 0.84499992E+02 -0.32631E+05
 0.84549995E+02 -0.32899E+05
 0.84599998E+02 -0.33019E+05
 0.84649994E+02 -0.33432E+05
 0.84699997E+02 -0.33976E+05
 0.84749992E+02 -0.34050E+05
 0.84799995E+02 -0.33658E+05
 0.84849998E+02 -0.33091E+05
 0.84899994E+02 -0.32562E+05
 0.84949997E+02 -0.31879E+05
 0.84999992E+02 -0.31362E+05
 0.85049995E+02 -0.31345E+05
 0.85099998E+02 -0.31508E+05
 0.85149994E+02 -0.31647E+05
 0.85199997E+02 -0.31283E+05
 0.85249992E+02 -0.30640E+05
 0.85299995E+02 -0.30215E+05
 0.85349998E+02 -0.30228E+05
 0.85399994E+02 -0.30886E+05
 0.85449997E+02 -0.31597E+05
 0.85499992E+02 -0.32193E+05
 0.85549995E+02 -0.33003E+05
 0.85599998E+02 -0.33771E+05
 0.85649994E+02 -0.34328E+05
 0.85699997E+02 -0.34265E+05
 0.85749992E+02 -0.33768E+05
 0.85799995E+02 -0.33349E+05
 0.85849998E+02 -0.32686E+05
 0.85899994E+02 -0.31991E+05
 0.85949997E+02 -0.31677E+05
 0.85999992E+02 -0.31760E+05
 0.86049995E+02 -0.31845E+05
 0.86099998E+02 -0.32063E+05
 0.86149994E+02 -0.32205E+05
 0.86199997E+02 -0.32385E+05
 0.86249992E+02 -0.32656E+05
 0.86299995E+02 -0.32489E+05
 0.86349998E+02 -0.32293E+05
 0.86399994E+02 -0.32195E+05
 0.86449997E+02 -0.32405E+05
 0.86499992E+02 -0.32912E+05
 0.86549995E+02 -0.33265E+05
 0.86599998E+02 -0.33644E+05
 0.86649994E+02 -0.33970E+05
 0.86699997E+02 -0.33608E+05
 0.86749992E+02 -0.32822E+05
 0.86799995E+02 -0.32042E+05
 0.86849998E+02 -0.31498E+05
 0.86899994E+02 -0.31208E+05
 0.86949997E+02 -0.31001E+05
 0.86999992E+02 -0.31045E+05
 0.87049995E+02 -0.31437E+05
 0.87099998E+02 -0.31660E+05
 0.87149994E+02 -0.31360E+05
 0.87199997E+02 -0.31031E+05
 0.87249992E+02 -0.31210E+05
 0.87299995E+02 -0.31796E+05
 0.87349998E+02 -0.32399E+05
 0.87399994E+02 -0.32667E+05
 0.87449997E+02 -0.32599E+05
 0.87499992E+02 -0.32579E+05
 0.87549995E+02 -0.32468E+05
 0.87599991E+02 -0.32096E+05
 0.87649994E+02 -0.31800E+05
 0.87699997E+02 -0.32056E+05
 0.87749992E+02 -0.32506E+05
 0.87799995E+02 -0.32755E+05
 0.87849991E+02 -0.33093E+05
 0.87899994E+02 -0.33373E+05
 0.87949997E+02 -0.33327E+05
 0.87999992E+02 -0.32892E+05
 0.88049995E+02 -0.32505E+05
 0.88099991E+02 -0.32508E+05
 0.88149994E+02 -0.32491E+05
 0.88199997E+02 -0.32432E+05
 0.88249992E+02 -0.32583E+05
 0.88299995E+02 -0.32777E+05
 0.88349991E+02 -0.32821E+05
 0.88399994E+02 -0.32691E+05
 0.88449997E+02 -0.32263E+05
 0.88499992E+02 -0.31763E+05
 0.88549995E+02 -0.31780E+05
 0.88599991E+02 -0.32241E+05
 0.88649994E+02 -0.32790E+05
 0.88699997E+02 -0.33493E+05
 0.88749992E+02 -0.33888E+05
 0.88799995E+02 -0.33575E+05
 0.88849991E+02 -0.32965E+05
 0.88899994E+02 -0.32384E+05
 0.88949997E+02 -0.32093E+05
 0.88999992E+02 -0.32074E+05
 0.89049995E+02 -0.32045E+05
 0.89099991E+02 -0.31950E+05
 0.89149994E+02 -0.31728E+05
 0.89199997E+02 -0.31445E+05
 0.89249992E+02 -0.31217E+05
 0.89299995E+02 -0.31322E+05
 0.89349991E+02 -0.31483E+05
 0.89399994E+02 -0.31745E+05
 0.89449997E+02 -0.32436E+05
 0.89499992E+02 -0.33367E+05
 0.89549995E+02 -0.34132E+05
 0.89599991E+02 -0.34345E+05
 0.89649994E+02 -0.34338E+05
 0.89699997E+02 -0.34328E+05
 0.89749992E+02 -0.33997E+05
 0.89799995E+02 -0.33052E+05
 0.89849991E+02 -0.31960E+05
 0.89899994E+02 -0.31078E+05
 0.89949997E+02 -0.30565E+05
 0.89999992E+02 -0.30648E+05
 0.90049995E+02 -0.31094E+05
 0.90099991E+02 -0.31495E+05
 0.90149994E+02 -0.31842E+05
 0.90199997E+02 -0.32227E+05
 0.90249992E+02 -0.32460E+05
 0.90299995E+02 -0.32688E+05
 0.90349991E+02 -0.32807E+05
 0.90399994E+02 -0.32868E+05
 0.90449997E+02 -0.32748E+05
 0.90499992E+02 -0.32323E+05
 0.90549995E+02 -0.32160E+05
 0.90599991E+02 -0.32007E+05
 0.90649994E+02 -0.31622E+05
 0.90699997E+02 -0.31204E+05
 0.90749992E+02 -0.30947E+05
 0.90799995E+02 -0.31025E+05
 0.90849991E+02 -0.31269E+05
 0.90899994E+02 -0.31664E+05
 0.90949997E+02 -0.32155E+05
 0.90999992E+02 -0.32572E+05
 0.91049995E+02 -0.32713E+05
 0.91099991E+02 -0.32782E+05
 0.91149994E+02 -0.32946E+05
 0.91199997E+02 -0.33023E+05
 0.91249992E+02 -0.32737E+05
 0.91299995E+02 -0.32321E+05
 0.91349991E+02 -0.32367E+05
 0.91399994E+02 -0.32682E+05
 0.91449997E+02 -0.32878E+05
 0.91499992E+02 -0.32953E+05
 0.91549995E+02 -0.33082E+05
 0.91599991E+02 -0.33302E+05
 0.91649994E+02 -0.33494E+05
 0.91699997E+02 -0.33493E+05
 0.91749992E+02 -0.33163E+05
 0.91799995E+02 -0.32756E+05
 0.91849991E+02 -0.32428E+05
 0.91899994E+02 -0.31990E+05
 0.91949997E+02 -0.31613E+05
 0.91999992E+02 -0.31528E+05
 0.92049995E+02 -0.32027E+05
 0.92099991E+02 -0.32839E+05
 0.92149994E+02 -0.33477E+05
 0.92199997E+02 -0.33610E+05
 0.92249992E+02 -0.33264E+05
 0.92299995E+02 -0.32789E+05
 0.92349991E+02 -0.32281E+05
 0.92399994E+02 -0.31904E+05
 0.92449997E+02 -0.31648E+05
 0.92499992E+02 -0.31490E+05
 0.92549995E+02 -0.31555E+05
 0.92599991E+02 -0.31704E+05
 0.92649994E+02 -0.32008E+05
 0.92699997E+02 -0.32453E+05
 0.92749992E+02 -0.32605E+05
 0.92799995E+02 -0.32363E+05
 0.92849991E+02 -0.31858E+05
 0.92899994E+02 -0.31781E+05
 0.92949997E+02 -0.32343E+05
 0.92999992E+02 -0.32842E+05
 0.93049995E+02 -0.32979E+05
 0.93099991E+02 -0.32921E+05
 0.93149994E+02 -0.32724E+05
 0.93199997E+02 -0.32665E+05
 0.93249992E+02 -0.32593E+05
 0.93299995E+02 -0.32437E+05
 0.93349991E+02 -0.32553E+05
 0.93399994E+02 -0.32728E+05
 0.93449997E+02 -0.32745E+05
 0.93499992E+02 -0.32798E+05
 0.93549995E+02 -0.32711E+05
 0.93599991E+02 -0.32515E+05
 0.93649994E+02 -0.32309E+05
 0.93699997E+02 -0.31801E+05
 0.93749992E+02 -0.31212E+05
 0.93799995E+02 -0.30868E+05
 0.93849991E+02 -0.31184E+05
 0.93899994E+02 -0.31831E+05
 0.93949997E+02 -0.32325E+05
 0.93999992E+02 -0.32330E+05
 0.94049995E+02 -0.31925E+05
 0.94099991E+02 -0.31625E+05
 0.94149994E+02 -0.31394E+05
 0.94199997E+02 -0.31318E+05
 0.94249992E+02 -0.31475E+05
 0.94299995E+02 -0.31870E+05
 0.94349991E+02 -0.32653E+05
 0.94399994E+02 -0.33654E+05
 0.94449997E+02 -0.34494E+05
 0.94499992E+02 -0.34914E+05
 0.94549995E+02 -0.34759E+05
 0.94599991E+02 -0.34348E+05
 0.94649994E+02 -0.33760E+05
 0.94699997E+02 -0.32997E+05
 0.94749992E+02 -0.32140E+05
 0.94799995E+02 -0.31383E+05
 0.94849991E+02 -0.31410E+05
 0.94899994E+02 -0.31967E+05
 0.94949997E+02 -0.32381E+05
 0.94999992E+02 -0.32550E+05
 0.95049995E+02 -0.32257E+05
 0.95099991E+02 -0.31807E+05
 0.95149994E+02 -0.31675E+05
 0.95199997E+02 -0.31506E+05
 0.95249992E+02 -0.31485E+05
 0.95299995E+02 -0.31548E+05
 0.95349991E+02 -0.31404E+05
 0.95399994E+02 -0.31470E+05
 0.95449997E+02 -0.31811E+05
 0.95499992E+02 -0.32298E+05
 0.95549995E+02 -0.32843E+05
 0.95599991E+02 -0.33340E+05
 0.95649994E+02 -0.33541E+05
 0.95699997E+02 -0.33363E+05
 0.95749992E+02 -0.33042E+05
 0.95799995E+02 -0.32663E+05
 0.95849991E+02 -0.32423E+05
 0.95899994E+02 -0.32511E+05
 0.95949997E+02 -0.32659E+05
 0.95999992E+02 -0.32702E+05
 0.96049995E+02 -0.32586E+05
 0.96099991E+02 -0.32436E+05
 0.96149994E+02 -0.32166E+05
 0.96199997E+02 -0.31566E+05
 0.96249992E+02 -0.31170E+05
 0.96299995E+02 -0.31191E+05
 0.96349991E+02 -0.31349E+05
 0.96399994E+02 -0.31661E+05
 0.96449997E+02 -0.32013E+05
 0.96499992E+02 -0.32355E+05
 0.96549995E+02 -0.32744E+05
 0.96599991E+02 -0.33122E+05
 0.96649994E+02 -0.33423E+05
 0.96699997E+02 -0.33370E+05
 0.96749992E+02 -0.33155E+05
 0.96799995E+02 -0.33014E+05
 0.96849991E+02 -0.32904E+05
 0.96899994E+02 -0.32745E+05
 0.96949997E+02 -0.32299E+05
 0.96999992E+02 -0.31548E+05
 0.97049995E+02 -0.31031E+05
 0.97099991E+02 -0.31149E+05
 0.97149994E+02 -0.31456E+05
 0.97199997E+02 -0.31734E+05
 0.97249992E+02 -0.32087E+05
 0.97299995E+02 -0.32486E+05
 0.97349991E+02 -0.32776E+05
 0.97399994E+02 -0.32905E+05
 0.97449997E+02 -0.32736E+05
 0.97499992E+02 -0.32430E+05
 0.97549995E+02 -0.32492E+05
 0.97599991E+02 -0.32633E+05
 0.97649994E+02 -0.32710E+05
 0.97699997E+02 -0.32935E+05
 0.97749992E+02 -0.32965E+05
 0.97799995E+02 -0.32608E+05
 0.97849991E+02 -0.32126E+05
 0.97899994E+02 -0.32012E+05
 0.97949997E+02 -0.32337E+05
 0.97999992E+02 -0.32595E+05
