-0.20000000E+01 -0.31516E+04
-0.19500000E+01 -0.31248E+04
-0.19000000E+01 -0.31362E+04
-0.18500000E+01 -0.31369E+04
-0.18000000E+01 -0.31323E+04
-0.17500000E+01 -0.31323E+04
-0.17000000E+01 -0.31218E+04
-0.16500001E+01 -0.31205E+04
-0.16000000E+01 -0.31158E+04
-0.15500000E+01 -0.31033E+04
-0.15000000E+01 -0.30950E+04
-0.14500000E+01 -0.30853E+04
-0.14000001E+01 -0.30848E+04
-0.13500000E+01 -0.30957E+04
-0.13000001E+01 -0.31042E+04
-0.12500000E+01 -0.31163E+04
-0.12000000E+01 -0.31334E+04
-0.11500001E+01 -0.31398E+04
-0.11000000E+01 -0.31456E+04
-0.10500001E+01 -0.31556E+04
-0.10000000E+01 -0.31604E+04
-0.95000005E+00 -0.31634E+04
-0.90000010E+00 -0.31622E+04
-0.85000002E+00 -0.31607E+04
-0.80000007E+00 -0.31505E+04
-0.75000012E+00 -0.31520E+04
-0.70000005E+00 -0.31602E+04
-0.65000010E+00 -0.31556E+04
-0.60000014E+00 -0.31618E+04
-0.55000007E+00 -0.31534E+04
-0.50000012E+00 -0.31476E+04
-0.45000005E+00 -0.31454E+04
-0.40000010E+00 -0.31343E+04
-0.35000014E+00 -0.31405E+04
-0.30000007E+00 -0.31470E+04
-0.25000012E+00 -0.31642E+04
-0.20000005E+00 -0.31765E+04
-0.15000010E+00 -0.31861E+04
-0.10000014E+00 -0.31959E+04
-0.50000072E-01 -0.31958E+04
-0.11920929E-06 -0.31971E+04
 0.49999952E-01 -0.31878E+04
 0.99999905E-01 -0.31810E+04
 0.14999986E+00 -0.31707E+04
 0.19999981E+00 -0.31655E+04
 0.24999976E+00 -0.31518E+04
 0.29999995E+00 -0.31366E+04
 0.34999990E+00 -0.31320E+04
 0.39999986E+00 -0.31269E+04
 0.44999981E+00 -0.31258E+04
 0.49999976E+00 -0.31266E+04
 0.54999995E+00 -0.31306E+04
 0.59999990E+00 -0.31426E+04
 0.64999986E+00 -0.31528E+04
 0.69999981E+00 -0.31524E+04
 0.74999976E+00 -0.31589E+04
 0.79999971E+00 -0.31574E+04
 0.84999990E+00 -0.31670E+04
 0.89999986E+00 -0.31770E+04
 0.94999981E+00 -0.31825E+04
 0.99999976E+00 -0.31900E+04
 0.10499997E+01 -0.31881E+04
 0.10999999E+01 -0.31849E+04
 0.11499999E+01 -0.31716E+04
 0.11999998E+01 -0.31585E+04
 0.12499998E+01 -0.31442E+04
 0.12999997E+01 -0.31335E+04
 0.13499999E+01 -0.31225E+04
 0.13999999E+01 -0.31225E+04
 0.14499998E+01 -0.31263E+04
 0.14999998E+01 -0.31321E+04
 0.15499997E+01 -0.31458E+04
 0.15999999E+01 -0.31515E+04
 0.16499999E+01 -0.31591E+04
 0.16999998E+01 -0.31604E+04
 0.17499998E+01 -0.31650E+04
 0.17999997E+01 -0.31608E+04
 0.18499997E+01 -0.31510E+04
 0.18999999E+01 -0.31438E+04
 0.19499998E+01 -0.31299E+04
 0.19999998E+01 -0.31268E+04
 0.20499997E+01 -0.31229E+04
 0.20999999E+01 -0.31187E+04
 0.21499996E+01 -0.31223E+04
 0.21999998E+01 -0.31274E+04
 0.22499995E+01 -0.31193E+04
 0.22999997E+01 -0.31052E+04
 0.23499999E+01 -0.31062E+04
 0.23999996E+01 -0.31112E+04
 0.24499998E+01 -0.31125E+04
 0.24999995E+01 -0.31207E+04
 0.25499997E+01 -0.31336E+04
 0.25999999E+01 -0.31375E+04
 0.26499996E+01 -0.31400E+04
 0.26999998E+01 -0.31454E+04
 0.27499995E+01 -0.31522E+04
 0.27999997E+01 -0.31565E+04
 0.28499999E+01 -0.31563E+04
 0.28999996E+01 -0.31646E+04
 0.29499998E+01 -0.31593E+04
 0.29999995E+01 -0.31552E+04
 0.30499997E+01 -0.31541E+04
 0.30999999E+01 -0.31469E+04
 0.31499996E+01 -0.31478E+04
 0.31999998E+01 -0.31399E+04
 0.32499995E+01 -0.31356E+04
 0.32999997E+01 -0.31322E+04
 0.33499999E+01 -0.31356E+04
 0.33999996E+01 -0.31521E+04
 0.34499998E+01 -0.31667E+04
 0.34999995E+01 -0.31776E+04
 0.35499997E+01 -0.31895E+04
 0.35999994E+01 -0.31951E+04
 0.36499996E+01 -0.31921E+04
 0.36999998E+01 -0.31805E+04
 0.37499995E+01 -0.31745E+04
 0.37999997E+01 -0.31583E+04
 0.38499994E+01 -0.31447E+04
 0.38999996E+01 -0.31431E+04
 0.39499998E+01 -0.31441E+04
 0.39999995E+01 -0.31598E+04
 0.40499997E+01 -0.31703E+04
 0.40999994E+01 -0.31757E+04
 0.41499996E+01 -0.31711E+04
 0.41999998E+01 -0.31660E+04
 0.42499995E+01 -0.31541E+04
 0.42999997E+01 -0.31416E+04
 0.43499994E+01 -0.31379E+04
 0.43999996E+01 -0.31310E+04
 0.44499998E+01 -0.31204E+04
 0.44999995E+01 -0.31150E+04
 0.45499997E+01 -0.31153E+04
 0.45999994E+01 -0.31078E+04
 0.46499996E+01 -0.30977E+04
 0.46999998E+01 -0.30954E+04
 0.47499995E+01 -0.30908E+04
 0.47999997E+01 -0.30875E+04
 0.48499994E+01 -0.30893E+04
 0.48999996E+01 -0.30940E+04
 0.49499998E+01 -0.31009E+04
 0.49999995E+01 -0.30936E+04
 0.50499997E+01 -0.30894E+04
 0.50999994E+01 -0.30997E+04
 0.51499996E+01 -0.31110E+04
 0.51999998E+01 -0.31271E+04
 0.52499995E+01 -0.31427E+04
 0.52999997E+01 -0.31545E+04
 0.53499994E+01 -0.31653E+04
 0.53999996E+01 -0.31744E+04
 0.54499993E+01 -0.31799E+04
 0.54999995E+01 -0.31791E+04
 0.55499997E+01 -0.31765E+04
 0.55999994E+01 -0.31729E+04
 0.56499996E+01 -0.31713E+04
 0.56999993E+01 -0.31699E+04
 0.57499995E+01 -0.31639E+04
 0.57999997E+01 -0.31546E+04
 0.58499994E+01 -0.31459E+04
 0.58999996E+01 -0.31367E+04
 0.59499993E+01 -0.31358E+04
 0.59999995E+01 -0.31441E+04
 0.60499992E+01 -0.31542E+04
 0.60999994E+01 -0.31596E+04
 0.61499996E+01 -0.31567E+04
 0.61999998E+01 -0.31532E+04
 0.62499990E+01 -0.31534E+04
 0.62999992E+01 -0.31595E+04
 0.63499994E+01 -0.31645E+04
 0.63999996E+01 -0.31690E+04
 0.64499998E+01 -0.31706E+04
 0.64999990E+01 -0.31727E+04
 0.65499992E+01 -0.31839E+04
 0.65999994E+01 -0.31833E+04
 0.66499996E+01 -0.31774E+04
 0.66999998E+01 -0.31795E+04
 0.67499990E+01 -0.31758E+04
 0.67999992E+01 -0.31714E+04
 0.68499994E+01 -0.31567E+04
 0.68999996E+01 -0.31481E+04
 0.69499998E+01 -0.31455E+04
 0.69999990E+01 -0.31452E+04
 0.70499992E+01 -0.31432E+04
 0.70999994E+01 -0.31366E+04
 0.71499996E+01 -0.31447E+04
 0.71999998E+01 -0.31396E+04
 0.72499990E+01 -0.31375E+04
 0.72999992E+01 -0.31352E+04
 0.73499994E+01 -0.31235E+04
 0.73999996E+01 -0.31208E+04
 0.74499998E+01 -0.31172E+04
 0.74999990E+01 -0.31098E+04
 0.75499992E+01 -0.31112E+04
 0.75999994E+01 -0.31161E+04
 0.76499996E+01 -0.31219E+04
 0.76999998E+01 -0.31350E+04
 0.77499990E+01 -0.31423E+04
 0.77999992E+01 -0.31661E+04
 0.78499994E+01 -0.31829E+04
 0.78999996E+01 -0.31902E+04
 0.79499998E+01 -0.32015E+04
 0.79999990E+01 -0.32019E+04
 0.80499992E+01 -0.32133E+04
 0.80999994E+01 -0.32219E+04
 0.81499996E+01 -0.32185E+04
 0.81999998E+01 -0.32148E+04
 0.82499990E+01 -0.32078E+04
 0.82999992E+01 -0.31905E+04
 0.83499994E+01 -0.31762E+04
 0.83999996E+01 -0.31713E+04
 0.84499998E+01 -0.31570E+04
 0.84999990E+01 -0.31480E+04
 0.85499992E+01 -0.31395E+04
 0.85999994E+01 -0.31251E+04
 0.86499996E+01 -0.31207E+04
 0.86999998E+01 -0.31044E+04
 0.87499990E+01 -0.30911E+04
 0.87999992E+01 -0.30836E+04
 0.88499994E+01 -0.30687E+04
 0.88999996E+01 -0.30724E+04
 0.89499998E+01 -0.30688E+04
 0.89999990E+01 -0.30636E+04
 0.90499992E+01 -0.30660E+04
 0.90999994E+01 -0.30742E+04
 0.91499996E+01 -0.30878E+04
 0.91999989E+01 -0.30996E+04
 0.92499990E+01 -0.31093E+04
 0.92999992E+01 -0.31135E+04
 0.93499994E+01 -0.31199E+04
 0.93999996E+01 -0.31199E+04
 0.94499989E+01 -0.31237E+04
 0.94999990E+01 -0.31268E+04
 0.95499992E+01 -0.31319E+04
 0.95999994E+01 -0.31360E+04
 0.96499996E+01 -0.31390E+04
 0.96999989E+01 -0.31461E+04
 0.97499990E+01 -0.31488E+04
 0.97999992E+01 -0.31531E+04
 0.98499994E+01 -0.31632E+04
 0.98999996E+01 -0.31730E+04
 0.99499989E+01 -0.31822E+04
 0.99999990E+01 -0.31876E+04
 0.10049999E+02 -0.32017E+04
 0.10099999E+02 -0.32160E+04
 0.10150000E+02 -0.32180E+04
 0.10199999E+02 -0.32274E+04
 0.10249999E+02 -0.32305E+04
 0.10299999E+02 -0.32233E+04
 0.10349999E+02 -0.32144E+04
 0.10400000E+02 -0.32014E+04
 0.10449999E+02 -0.31869E+04
 0.10499999E+02 -0.31683E+04
 0.10549999E+02 -0.31497E+04
 0.10599999E+02 -0.31339E+04
 0.10650000E+02 -0.31206E+04
 0.10699999E+02 -0.31141E+04
 0.10749999E+02 -0.31104E+04
 0.10799999E+02 -0.31129E+04
 0.10849999E+02 -0.31162E+04
 0.10900000E+02 -0.31121E+04
 0.10949999E+02 -0.31045E+04
 0.10999999E+02 -0.31043E+04
 0.11049999E+02 -0.31074E+04
 0.11099999E+02 -0.31085E+04
 0.11150000E+02 -0.31119E+04
 0.11199999E+02 -0.31166E+04
 0.11249999E+02 -0.31179E+04
 0.11299999E+02 -0.31244E+04
 0.11349999E+02 -0.31349E+04
 0.11400000E+02 -0.31431E+04
 0.11449999E+02 -0.31494E+04
 0.11499999E+02 -0.31530E+04
 0.11549999E+02 -0.31546E+04
 0.11599999E+02 -0.31515E+04
 0.11650000E+02 -0.31572E+04
 0.11699999E+02 -0.31613E+04
 0.11749999E+02 -0.31684E+04
 0.11799999E+02 -0.31739E+04
 0.11849999E+02 -0.31804E+04
 0.11900000E+02 -0.31807E+04
 0.11949999E+02 -0.31768E+04
 0.11999999E+02 -0.31672E+04
 0.12049999E+02 -0.31585E+04
 0.12099999E+02 -0.31565E+04
 0.12150000E+02 -0.31533E+04
 0.12199999E+02 -0.31554E+04
 0.12249999E+02 -0.31609E+04
 0.12299999E+02 -0.31650E+04
 0.12349999E+02 -0.31644E+04
 0.12400000E+02 -0.31716E+04
 0.12449999E+02 -0.31745E+04
 0.12499999E+02 -0.31771E+04
 0.12549999E+02 -0.31723E+04
 0.12599999E+02 -0.31740E+04
 0.12649999E+02 -0.31741E+04
 0.12699999E+02 -0.31685E+04
 0.12749999E+02 -0.31654E+04
 0.12799999E+02 -0.31585E+04
 0.12849999E+02 -0.31446E+04
 0.12899999E+02 -0.31346E+04
 0.12949999E+02 -0.31236E+04
 0.12999999E+02 -0.31145E+04
 0.13049999E+02 -0.31100E+04
 0.13099999E+02 -0.31017E+04
 0.13149999E+02 -0.31090E+04
 0.13199999E+02 -0.31089E+04
 0.13249999E+02 -0.31127E+04
 0.13299999E+02 -0.31141E+04
 0.13349999E+02 -0.31124E+04
 0.13399999E+02 -0.31124E+04
 0.13449999E+02 -0.31204E+04
 0.13499999E+02 -0.31296E+04
 0.13549999E+02 -0.31312E+04
 0.13599999E+02 -0.31406E+04
 0.13649999E+02 -0.31363E+04
 0.13699999E+02 -0.31349E+04
 0.13749999E+02 -0.31446E+04
 0.13799999E+02 -0.31500E+04
 0.13849999E+02 -0.31507E+04
 0.13899999E+02 -0.31587E+04
 0.13949999E+02 -0.31652E+04
 0.13999999E+02 -0.31761E+04
 0.14049999E+02 -0.31830E+04
 0.14099998E+02 -0.31854E+04
 0.14150000E+02 -0.31868E+04
 0.14199999E+02 -0.31875E+04
 0.14249998E+02 -0.31894E+04
 0.14299999E+02 -0.31900E+04
 0.14349998E+02 -0.31850E+04
 0.14400000E+02 -0.31710E+04
 0.14449999E+02 -0.31624E+04
 0.14499998E+02 -0.31611E+04
 0.14549999E+02 -0.31567E+04
 0.14599998E+02 -0.31559E+04
 0.14650000E+02 -0.31612E+04
 0.14699999E+02 -0.31580E+04
 0.14749998E+02 -0.31561E+04
 0.14799999E+02 -0.31581E+04
 0.14849998E+02 -0.31614E+04
 0.14900000E+02 -0.31621E+04
 0.14949999E+02 -0.31675E+04
 0.14999998E+02 -0.31654E+04
 0.15049999E+02 -0.31598E+04
 0.15099998E+02 -0.31470E+04
 0.15150000E+02 -0.31389E+04
 0.15199999E+02 -0.31300E+04
 0.15249998E+02 -0.31210E+04
 0.15299999E+02 -0.31161E+04
 0.15349998E+02 -0.31090E+04
 0.15400000E+02 -0.31089E+04
 0.15449999E+02 -0.31100E+04
 0.15499998E+02 -0.31130E+04
 0.15549999E+02 -0.31154E+04
 0.15599998E+02 -0.31202E+04
 0.15650000E+02 -0.31239E+04
 0.15699999E+02 -0.31319E+04
 0.15749998E+02 -0.31444E+04
 0.15799999E+02 -0.31520E+04
 0.15849998E+02 -0.31560E+04
 0.15900000E+02 -0.31563E+04
 0.15949999E+02 -0.31486E+04
 0.15999998E+02 -0.31489E+04
 0.16049999E+02 -0.31475E+04
 0.16099998E+02 -0.31458E+04
 0.16150000E+02 -0.31531E+04
 0.16199999E+02 -0.31555E+04
 0.16249998E+02 -0.31539E+04
 0.16299999E+02 -0.31458E+04
 0.16349998E+02 -0.31340E+04
 0.16400000E+02 -0.31247E+04
 0.16449999E+02 -0.31213E+04
 0.16499998E+02 -0.31309E+04
 0.16549999E+02 -0.31306E+04
 0.16599998E+02 -0.31243E+04
 0.16650000E+02 -0.31224E+04
 0.16699999E+02 -0.31193E+04
 0.16749998E+02 -0.31247E+04
 0.16799999E+02 -0.31324E+04
 0.16849998E+02 -0.31428E+04
 0.16900000E+02 -0.31459E+04
 0.16949999E+02 -0.31413E+04
 0.16999998E+02 -0.31318E+04
 0.17049999E+02 -0.31275E+04
 0.17099998E+02 -0.31301E+04
 0.17150000E+02 -0.31329E+04
 0.17199999E+02 -0.31371E+04
 0.17249998E+02 -0.31354E+04
 0.17299999E+02 -0.31442E+04
 0.17349998E+02 -0.31548E+04
 0.17400000E+02 -0.31652E+04
 0.17449999E+02 -0.31779E+04
 0.17499998E+02 -0.31812E+04
 0.17549999E+02 -0.31912E+04
 0.17599998E+02 -0.32049E+04
 0.17650000E+02 -0.32107E+04
 0.17699999E+02 -0.32120E+04
 0.17749998E+02 -0.32064E+04
 0.17799999E+02 -0.31999E+04
 0.17849998E+02 -0.31873E+04
 0.17900000E+02 -0.31697E+04
 0.17949999E+02 -0.31536E+04
 0.17999998E+02 -0.31385E+04
 0.18049999E+02 -0.31259E+04
 0.18099998E+02 -0.31228E+04
 0.18150000E+02 -0.31232E+04
 0.18199999E+02 -0.31290E+04
 0.18249998E+02 -0.31293E+04
 0.18299999E+02 -0.31269E+04
 0.18349998E+02 -0.31319E+04
 0.18400000E+02 -0.31379E+04
 0.18449999E+02 -0.31496E+04
 0.18499998E+02 -0.31557E+04
 0.18549999E+02 -0.31614E+04
 0.18599998E+02 -0.31622E+04
 0.18650000E+02 -0.31663E+04
 0.18699999E+02 -0.31657E+04
 0.18749998E+02 -0.31662E+04
 0.18799999E+02 -0.31678E+04
 0.18849998E+02 -0.31687E+04
 0.18900000E+02 -0.31713E+04
 0.18949999E+02 -0.31651E+04
 0.18999998E+02 -0.31605E+04
 0.19049999E+02 -0.31386E+04
 0.19099998E+02 -0.31238E+04
 0.19150000E+02 -0.31128E+04
 0.19199999E+02 -0.31068E+04
 0.19249998E+02 -0.31126E+04
 0.19299999E+02 -0.31201E+04
 0.19349998E+02 -0.31422E+04
 0.19400000E+02 -0.31566E+04
 0.19449999E+02 -0.31699E+04
 0.19499998E+02 -0.31708E+04
 0.19549999E+02 -0.31686E+04
 0.19599998E+02 -0.31634E+04
 0.19650000E+02 -0.31541E+04
 0.19699999E+02 -0.31559E+04
 0.19749998E+02 -0.31493E+04
 0.19799999E+02 -0.31393E+04
 0.19849998E+02 -0.31375E+04
 0.19900000E+02 -0.31451E+04
 0.19949999E+02 -0.31407E+04
 0.19999998E+02 -0.31347E+04
 0.20049999E+02 -0.31312E+04
 0.20099998E+02 -0.31240E+04
 0.20150000E+02 -0.31148E+04
 0.20199999E+02 -0.30999E+04
 0.20249998E+02 -0.30875E+04
 0.20299999E+02 -0.30768E+04
 0.20349998E+02 -0.30704E+04
 0.20399998E+02 -0.30715E+04
 0.20449999E+02 -0.30791E+04
 0.20499998E+02 -0.30917E+04
 0.20549999E+02 -0.31109E+04
 0.20599998E+02 -0.31342E+04
 0.20649998E+02 -0.31494E+04
 0.20699999E+02 -0.31581E+04
 0.20749998E+02 -0.31699E+04
 0.20799999E+02 -0.31817E+04
 0.20849998E+02 -0.31861E+04
 0.20899998E+02 -0.31924E+04
 0.20949999E+02 -0.31990E+04
 0.20999998E+02 -0.32067E+04
 0.21049999E+02 -0.32189E+04
 0.21099998E+02 -0.32261E+04
 0.21149998E+02 -0.32314E+04
 0.21199999E+02 -0.32330E+04
 0.21249998E+02 -0.32360E+04
 0.21299999E+02 -0.32271E+04
 0.21349998E+02 -0.32103E+04
 0.21399998E+02 -0.31928E+04
 0.21449999E+02 -0.31715E+04
 0.21499998E+02 -0.31478E+04
 0.21549999E+02 -0.31299E+04
 0.21599998E+02 -0.31176E+04
 0.21649998E+02 -0.31062E+04
 0.21699999E+02 -0.30939E+04
 0.21749998E+02 -0.30928E+04
 0.21799999E+02 -0.30937E+04
 0.21849998E+02 -0.30967E+04
 0.21899998E+02 -0.31126E+04
 0.21949999E+02 -0.31202E+04
 0.21999998E+02 -0.31305E+04
 0.22049999E+02 -0.31371E+04
 0.22099998E+02 -0.31483E+04
 0.22149998E+02 -0.31419E+04
 0.22199999E+02 -0.31349E+04
 0.22249998E+02 -0.31318E+04
 0.22299999E+02 -0.31291E+04
 0.22349998E+02 -0.31358E+04
 0.22399998E+02 -0.31363E+04
 0.22449999E+02 -0.31450E+04
 0.22499998E+02 -0.31472E+04
 0.22549999E+02 -0.31550E+04
 0.22599998E+02 -0.31564E+04
 0.22649998E+02 -0.31492E+04
 0.22699999E+02 -0.31474E+04
 0.22749998E+02 -0.31582E+04
 0.22799999E+02 -0.31749E+04
 0.22849998E+02 -0.31932E+04
 0.22899998E+02 -0.32053E+04
 0.22949999E+02 -0.31774E+04
 0.22999998E+02 -0.31293E+04
 0.23049999E+02 -0.30978E+04
 0.23099998E+02 -0.30931E+04
 0.23149998E+02 -0.31395E+04
 0.23199999E+02 -0.31903E+04
 0.23249998E+02 -0.32133E+04
 0.23299999E+02 -0.32354E+04
 0.23349998E+02 -0.31535E+04
 0.23399998E+02 -0.30367E+04
 0.23449999E+02 -0.30266E+04
 0.23499998E+02 -0.30701E+04
 0.23549999E+02 -0.32469E+04
 0.23599998E+02 -0.33643E+04
 0.23649998E+02 -0.32591E+04
 0.23699999E+02 -0.31331E+04
 0.23749998E+02 -0.29115E+04
 0.23799999E+02 -0.27582E+04
 0.23849998E+02 -0.29831E+04
 0.23899998E+02 -0.33340E+04
 0.23949999E+02 -0.36232E+04
 0.23999998E+02 -0.36198E+04
 0.24049999E+02 -0.33145E+04
 0.24099998E+02 -0.29544E+04
 0.24149998E+02 -0.26242E+04
 0.24199999E+02 -0.27534E+04
 0.24249998E+02 -0.32637E+04
 0.24299999E+02 -0.35843E+04
 0.24349998E+02 -0.34310E+04
 0.24399998E+02 -0.32471E+04
 0.24449999E+02 -0.30126E+04
 0.24499998E+02 -0.25605E+04
 0.24549999E+02 -0.24172E+04
 0.24599998E+02 -0.29823E+04
 0.24649998E+02 -0.34010E+04
 0.24699999E+02 -0.39166E+04
 0.24749998E+02 -0.38647E+04
 0.24799999E+02 -0.31850E+04
 0.24849998E+02 -0.25831E+04
 0.24899998E+02 -0.24287E+04
 0.24949999E+02 -0.27125E+04
 0.24999998E+02 -0.30424E+04
 0.25049999E+02 -0.40359E+04
 0.25099998E+02 -0.36709E+04
 0.25149998E+02 -0.31231E+04
 0.25199999E+02 -0.32406E+04
 0.25249998E+02 -0.26534E+04
 0.25299999E+02 -0.28656E+04
 0.25349998E+02 -0.36704E+04
 0.25399998E+02 -0.34768E+04
 0.25449999E+02 -0.38173E+04
 0.25499998E+02 -0.40362E+04
 0.25549999E+02 -0.29607E+04
 0.25599998E+02 -0.27047E+04
 0.25649998E+02 -0.30975E+04
 0.25699999E+02 -0.27329E+04
 0.25749998E+02 -0.32189E+04
 0.25799999E+02 -0.32070E+04
 0.25849998E+02 -0.26555E+04
 0.25899998E+02 -0.28380E+04
 0.25949999E+02 -0.28201E+04
 0.25999998E+02 -0.31370E+04
 0.26049999E+02 -0.31500E+04
 0.26099998E+02 -0.28936E+04
 0.26149998E+02 -0.29635E+04
 0.26199999E+02 -0.35686E+04
 0.26249998E+02 -0.26450E+04
 0.26299999E+02 -0.22376E+04
 0.26349998E+02 -0.30563E+04
 0.26399998E+02 -0.30464E+04
 0.26449999E+02 -0.37595E+04
 0.26499998E+02 -0.38859E+04
 0.26549999E+02 -0.27385E+04
 0.26599998E+02 -0.27243E+04
 0.26649998E+02 -0.26522E+04
 0.26699999E+02 -0.32666E+04
 0.26749998E+02 -0.54121E+04
 0.26799999E+02 -0.52071E+04
 0.26849998E+02 -0.33045E+04
 0.26899998E+02 -0.35931E+04
 0.26949999E+02 -0.38374E+04
 0.26999998E+02 -0.20864E+04
 0.27049997E+02 -0.24823E+04
 0.27099998E+02 -0.33831E+04
 0.27149998E+02 -0.19224E+04
 0.27199999E+02 -0.22199E+04
 0.27249998E+02 -0.26765E+04
 0.27299997E+02 -0.30105E+04
 0.27349998E+02 -0.34351E+04
 0.27399998E+02 -0.27910E+04
 0.27449999E+02 -0.33312E+04
 0.27499998E+02 -0.24788E+04
 0.27549997E+02 -0.32041E+04
 0.27599998E+02 -0.35590E+04
 0.27649998E+02 -0.28046E+04
 0.27699999E+02 -0.32844E+04
 0.27749998E+02 -0.34294E+04
 0.27799997E+02 -0.32386E+04
 0.27849998E+02 -0.28419E+04
 0.27899998E+02 -0.29713E+04
 0.27949999E+02 -0.28622E+04
 0.27999998E+02 -0.31309E+04
 0.28049997E+02 -0.32678E+04
 0.28099998E+02 -0.42995E+04
 0.28149998E+02 -0.37858E+04
 0.28199999E+02 -0.21204E+04
 0.28249998E+02 -0.18918E+04
 0.28299997E+02 -0.29642E+04
 0.28349998E+02 -0.42535E+04
 0.28399998E+02 -0.45525E+04
 0.28449999E+02 -0.31746E+04
 0.28499998E+02 -0.29318E+04
 0.28549997E+02 -0.27264E+04
 0.28599998E+02 -0.22621E+04
 0.28649998E+02 -0.39918E+04
 0.28699999E+02 -0.42158E+04
 0.28749998E+02 -0.38750E+04
 0.28799997E+02 -0.32916E+04
 0.28849998E+02 -0.15498E+04
 0.28899998E+02 -0.40567E+03
 0.28949999E+02 -0.79613E+03
 0.28999998E+02 -0.24039E+04
 0.29049997E+02 -0.46814E+04
 0.29099998E+02 -0.33729E+04
 0.29149998E+02 -0.32482E+04
 0.29199999E+02 -0.39665E+04
 0.29249998E+02 -0.31074E+04
 0.29299997E+02 -0.29359E+04
 0.29349998E+02 -0.29041E+04
 0.29399998E+02 -0.45645E+04
 0.29449999E+02 -0.51506E+04
 0.29499998E+02 -0.54840E+04
 0.29549997E+02 -0.43600E+04
 0.29599998E+02 -0.27646E+04
 0.29649998E+02 -0.29015E+04
 0.29699999E+02 -0.15469E+04
 0.29749998E+02 -0.21638E+04
 0.29799997E+02 -0.34297E+04
 0.29849998E+02 -0.34943E+04
 0.29899998E+02 -0.35355E+04
 0.29949999E+02 -0.32063E+04
 0.29999998E+02 -0.40572E+04
 0.30049999E+02 -0.26206E+04
 0.30099998E+02 -0.19060E+04
 0.30149998E+02 -0.29747E+04
 0.30199997E+02 -0.27087E+04
 0.30249996E+02 -0.18156E+04
 0.30299999E+02 -0.29657E+04
 0.30349998E+02 -0.33078E+04
 0.30399998E+02 -0.58355E+03
 0.30449997E+02 -0.24208E+04
 0.30499996E+02 -0.44931E+04
 0.30549999E+02 -0.35436E+04
 0.30599998E+02 -0.33871E+04
 0.30649998E+02 -0.29526E+04
 0.30699997E+02 -0.21140E+04
 0.30749996E+02 -0.41590E+04
 0.30799999E+02 -0.49716E+04
 0.30849998E+02 -0.36773E+04
 0.30899998E+02 -0.46628E+04
 0.30949997E+02 -0.48838E+04
 0.30999996E+02 -0.29922E+04
 0.31049999E+02 -0.13351E+04
 0.31099998E+02 -0.30267E+04
 0.31149998E+02 -0.40100E+04
 0.31199997E+02 -0.38768E+04
 0.31249996E+02 -0.27489E+04
 0.31299999E+02 -0.18222E+04
 0.31349998E+02 -0.27781E+04
 0.31399998E+02 -0.37751E+04
 0.31449997E+02 -0.33911E+04
 0.31499996E+02 -0.19914E+04
 0.31549999E+02 -0.21674E+04
 0.31599998E+02 -0.29309E+04
 0.31649998E+02 -0.33240E+04
 0.31699997E+02 -0.29287E+04
 0.31749996E+02 -0.22940E+04
 0.31799999E+02 -0.38358E+04
 0.31849998E+02 -0.48120E+04
 0.31899998E+02 -0.26974E+04
 0.31949997E+02 -0.26431E+04
 0.31999996E+02 -0.24931E+04
 0.32049999E+02 -0.24723E+04
 0.32099998E+02 -0.40059E+04
 0.32149998E+02 -0.54096E+04
 0.32199997E+02 -0.45444E+04
 0.32249996E+02 -0.23311E+04
 0.32299999E+02 -0.16655E+04
 0.32349998E+02 -0.17268E+04
 0.32399998E+02 -0.20266E+04
 0.32449997E+02 -0.22480E+04
 0.32499996E+02 -0.36626E+04
 0.32549999E+02 -0.42243E+04
 0.32599998E+02 -0.41978E+04
 0.32649998E+02 -0.26481E+04
 0.32699997E+02 -0.22670E+04
 0.32749996E+02 -0.20257E+04
 0.32799999E+02 -0.87764E+03
 0.32849998E+02 -0.37293E+04
 0.32899998E+02 -0.60599E+04
 0.32949997E+02 -0.58280E+04
 0.32999996E+02 -0.52305E+04
 0.33049999E+02 -0.41552E+04
 0.33099998E+02 -0.21600E+04
 0.33149998E+02 -0.19596E+04
 0.33199997E+02 -0.32187E+04
 0.33249996E+02 -0.30112E+04
 0.33299999E+02 -0.27255E+04
 0.33349998E+02 -0.28131E+04
 0.33399998E+02 -0.35349E+04
 0.33449997E+02 -0.32460E+04
 0.33499996E+02 -0.27394E+04
 0.33549999E+02 -0.36057E+04
 0.33599998E+02 -0.22159E+04
 0.33649998E+02 -0.20654E+04
 0.33699997E+02 -0.42406E+04
 0.33749996E+02 -0.35668E+04
 0.33799999E+02 -0.13741E+04
 0.33849998E+02 -0.15898E+04
 0.33899998E+02 -0.28767E+04
 0.33949997E+02 -0.40093E+04
 0.33999996E+02 -0.30253E+04
 0.34049999E+02 -0.22573E+04
 0.34099998E+02 -0.45185E+04
 0.34149998E+02 -0.34366E+04
 0.34199997E+02 -0.14948E+04
 0.34249996E+02 -0.37224E+04
 0.34299999E+02 -0.49060E+04
 0.34349998E+02 -0.38688E+04
 0.34399998E+02 -0.28258E+04
 0.34449997E+02 -0.21149E+04
 0.34499996E+02 -0.29101E+04
 0.34549999E+02 -0.24865E+04
 0.34599998E+02 -0.30527E+04
 0.34649998E+02 -0.54493E+04
 0.34699997E+02 -0.44216E+04
 0.34749996E+02 -0.15712E+04
 0.34799999E+02 -0.26578E+04
 0.34849998E+02 -0.54597E+04
 0.34899998E+02 -0.45643E+04
 0.34949997E+02 -0.27390E+04
 0.34999996E+02 -0.16631E+04
 0.35049999E+02 -0.11854E+04
 0.35099998E+02 -0.32884E+04
 0.35149998E+02 -0.41632E+04
 0.35199997E+02 -0.43159E+04
 0.35249996E+02 -0.45125E+04
 0.35299999E+02 -0.16550E+04
 0.35349998E+02 -0.10879E+04
 0.35399998E+02 -0.24453E+04
 0.35449997E+02 -0.27704E+04
 0.35499996E+02 -0.21398E+04
 0.35549999E+02 -0.28702E+04
 0.35599998E+02 -0.40705E+04
 0.35649998E+02 -0.41052E+04
 0.35699997E+02 -0.21618E+04
 0.35749996E+02 -0.24729E+03
 0.35799999E+02 -0.20649E+04
 0.35849998E+02 -0.36994E+04
 0.35899998E+02 -0.54534E+04
 0.35949997E+02 -0.71794E+04
 0.35999996E+02 -0.61873E+04
 0.36049999E+02 -0.45834E+04
 0.36099998E+02 -0.34989E+04
 0.36149998E+02 -0.32858E+04
 0.36199997E+02 -0.34192E+04
 0.36249996E+02 -0.12021E+04
 0.36299999E+02 -0.14015E+04
 0.36349998E+02 -0.26858E+04
 0.36399998E+02 -0.17021E+04
 0.36449997E+02 -0.11760E+04
 0.36499996E+02 -0.85305E+02
 0.36549999E+02 -0.10534E+04
 0.36599998E+02 -0.35919E+04
 0.36649998E+02 -0.44732E+04
 0.36699997E+02 -0.44627E+04
 0.36749996E+02 -0.36288E+04
 0.36799999E+02 -0.37590E+04
 0.36849998E+02 -0.36817E+04
 0.36899998E+02 -0.37600E+04
 0.36949997E+02 -0.34242E+04
 0.36999996E+02 -0.42566E+04
 0.37049999E+02 -0.51756E+04
 0.37099998E+02 -0.36538E+04
 0.37149998E+02 -0.17908E+04
 0.37199997E+02 -0.77730E+03
 0.37249996E+02 -0.28350E+04
 0.37299999E+02 -0.37679E+04
 0.37349998E+02 -0.30451E+04
 0.37399998E+02 -0.34853E+04
 0.37449997E+02 -0.39013E+04
 0.37499996E+02 -0.28146E+04
 0.37549999E+02 -0.23586E+04
 0.37599998E+02 -0.34125E+04
 0.37649998E+02 -0.50251E+04
 0.37699997E+02 -0.44828E+04
 0.37749996E+02 -0.19412E+04
 0.37799999E+02 -0.65172E+03
 0.37849998E+02 -0.11905E+04
 0.37899998E+02 -0.16880E+04
 0.37949997E+02 -0.42905E+04
 0.37999996E+02 -0.72129E+04
 0.38049999E+02 -0.49793E+04
 0.38099998E+02 -0.19230E+04
 0.38149998E+02 -0.18941E+04
 0.38199997E+02 -0.24556E+04
 0.38249996E+02 -0.15059E+04
 0.38299999E+02 -0.17410E+04
 0.38349998E+02 -0.29222E+04
 0.38399998E+02 -0.42464E+04
 0.38449997E+02 -0.50268E+04
 0.38499996E+02 -0.47379E+04
 0.38549999E+02 -0.60509E+04
 0.38599998E+02 -0.66552E+04
 0.38649998E+02 -0.34801E+04
 0.38699997E+02 -0.14222E+04
 0.38749996E+02 -0.68409E+03
 0.38799999E+02  0.13469E+04
 0.38849998E+02 -0.53710E+03
 0.38899998E+02 -0.57573E+04
 0.38949997E+02 -0.60390E+04
 0.38999996E+02 -0.54353E+04
 0.39049999E+02 -0.55394E+04
 0.39099998E+02 -0.31590E+04
 0.39149998E+02 -0.26138E+04
 0.39199997E+02 -0.15207E+04
 0.39249996E+02  0.31189E+04
 0.39299999E+02  0.45522E+04
 0.39349998E+02 -0.18284E+04
 0.39399998E+02 -0.83934E+04
 0.39449997E+02 -0.10430E+05
 0.39499996E+02 -0.69545E+04
 0.39549999E+02 -0.80788E+02
 0.39599998E+02  0.17318E+04
 0.39649998E+02 -0.12154E+04
 0.39699997E+02 -0.43303E+04
 0.39749996E+02 -0.66568E+04
 0.39799999E+02 -0.86413E+04
 0.39849998E+02 -0.82855E+04
 0.39899998E+02 -0.24119E+04
 0.39949997E+02  0.36408E+04
 0.39999996E+02  0.57092E+04
 0.40049999E+02  0.29797E+04
 0.40099998E+02 -0.77907E+04
 0.40149998E+02 -0.17943E+05
 0.40199997E+02 -0.12970E+05
 0.40249996E+02 -0.27562E+04
 0.40299999E+02 -0.31461E+04
 0.40349998E+02 -0.11037E+04
 0.40399998E+02  0.81643E+04
 0.40449997E+02  0.49826E+04
 0.40499996E+02  0.29911E+03
 0.40549999E+02 -0.14045E+04
 0.40599998E+02 -0.76874E+04
 0.40649998E+02 -0.81285E+04
 0.40699997E+02 -0.41464E+04
 0.40749996E+02  0.34178E+04
 0.40799999E+02  0.59367E+04
 0.40849998E+02 -0.23850E+04
 0.40899998E+02 -0.11341E+05
 0.40949997E+02 -0.14056E+05
 0.40999996E+02 -0.77067E+04
 0.41049999E+02 -0.88236E+02
 0.41099998E+02 -0.17841E+04
 0.41149998E+02 -0.27018E+04
 0.41199997E+02 -0.53829E+04
 0.41249996E+02 -0.90119E+04
 0.41299999E+02 -0.55835E+04
 0.41349998E+02 -0.69347E+04
 0.41399998E+02 -0.35130E+04
 0.41449997E+02  0.31921E+04
 0.41499996E+02  0.28375E+04
 0.41549999E+02  0.33213E+04
 0.41599998E+02  0.11935E+04
 0.41649998E+02 -0.13113E+04
 0.41699997E+02 -0.48041E+04
 0.41749996E+02 -0.92717E+04
 0.41799999E+02 -0.37467E+04
 0.41849998E+02  0.34564E+04
 0.41899998E+02  0.48264E+04
 0.41949997E+02  0.69157E+03
 0.41999996E+02 -0.39577E+04
 0.42049999E+02 -0.35416E+04
 0.42099998E+02 -0.63158E+04
 0.42149998E+02 -0.70789E+04
 0.42199997E+02 -0.58906E+04
 0.42249996E+02 -0.10242E+05
 0.42299999E+02 -0.45097E+04
 0.42349998E+02  0.25674E+04
 0.42399998E+02 -0.88178E+04
 0.42449997E+02 -0.13736E+05
 0.42499996E+02 -0.12512E+04
 0.42549999E+02  0.26937E+04
 0.42599998E+02 -0.32104E+04
 0.42649998E+02 -0.58014E+04
 0.42699997E+02 -0.19197E+04
 0.42749996E+02 -0.19674E+04
 0.42799995E+02 -0.29123E+04
 0.42849998E+02 -0.39454E+03
 0.42899998E+02 -0.36601E+04
 0.42949997E+02 -0.31407E+04
 0.42999996E+02  0.24220E+04
 0.43049995E+02  0.27622E+04
 0.43099998E+02  0.49148E+03
 0.43149998E+02 -0.22650E+04
 0.43199997E+02 -0.33204E+04
 0.43249996E+02 -0.64742E+04
 0.43299995E+02 -0.85948E+04
 0.43349998E+02 -0.18281E+04
 0.43399998E+02 -0.67163E+03
 0.43449997E+02 -0.68373E+04
 0.43499996E+02 -0.12908E+05
 0.43549995E+02 -0.10016E+05
 0.43599998E+02 -0.32136E+04
 0.43649998E+02 -0.57929E+04
 0.43699997E+02 -0.72155E+04
 0.43749996E+02 -0.48342E+03
 0.43799995E+02  0.56342E+03
 0.43849998E+02  0.18032E+04
 0.43899998E+02  0.99474E+03
 0.43949997E+02 -0.49373E+04
 0.43999996E+02 -0.43633E+04
 0.44049995E+02 -0.17097E+04
 0.44099998E+02  0.75067E+03
 0.44149998E+02 -0.21788E+04
 0.44199997E+02 -0.13430E+04
 0.44249996E+02  0.31407E+04
 0.44299995E+02 -0.13520E+04
 0.44349998E+02 -0.19298E+04
 0.44399998E+02  0.33788E+04
 0.44449997E+02 -0.43793E+03
 0.44499996E+02 -0.65188E+04
 0.44549995E+02 -0.76089E+04
 0.44599998E+02 -0.57167E+04
 0.44649998E+02 -0.78861E+04
 0.44699997E+02 -0.70753E+04
 0.44749996E+02  0.33410E+04
 0.44799995E+02  0.39259E+04
 0.44849998E+02 -0.46256E+04
 0.44899998E+02 -0.67346E+04
 0.44949997E+02 -0.88783E+04
 0.44999996E+02 -0.10133E+05
 0.45049995E+02 -0.58809E+04
 0.45099998E+02 -0.38514E+03
 0.45149998E+02  0.21006E+04
 0.45199997E+02 -0.71559E+03
 0.45249996E+02 -0.21734E+04
 0.45299995E+02 -0.39635E+04
 0.45349998E+02 -0.49587E+04
 0.45399998E+02 -0.59525E+04
 0.45449997E+02 -0.70554E+04
 0.45499996E+02 -0.10156E+05
 0.45549995E+02 -0.95195E+04
 0.45599998E+02 -0.50088E+04
 0.45649998E+02 -0.60219E+04
 0.45699997E+02 -0.21962E+04
 0.45749996E+02  0.11276E+04
 0.45799995E+02 -0.12082E+04
 0.45849998E+02  0.81071E+03
 0.45899998E+02  0.69173E+04
 0.45949997E+02  0.93911E+04
 0.45999996E+02  0.59504E+04
 0.46049995E+02  0.31575E+04
 0.46099998E+02  0.17977E+04
 0.46149998E+02 -0.13023E+04
 0.46199997E+02 -0.49894E+04
 0.46249996E+02 -0.75122E+04
 0.46299995E+02 -0.11507E+05
 0.46349998E+02 -0.14647E+05
 0.46399998E+02 -0.13198E+05
 0.46449997E+02 -0.10768E+05
 0.46499996E+02 -0.69284E+04
 0.46549995E+02 -0.62708E+04
 0.46599998E+02 -0.63052E+04
 0.46649998E+02 -0.73579E+04
 0.46699997E+02 -0.68553E+04
 0.46749996E+02  0.19301E+04
 0.46799995E+02  0.47183E+04
 0.46849998E+02  0.20677E+04
 0.46899998E+02  0.20742E+04
 0.46949997E+02  0.96523E+03
 0.46999996E+02  0.34946E+02
 0.47049995E+02 -0.52294E+02
 0.47099998E+02 -0.46091E+04
 0.47149998E+02 -0.67794E+04
 0.47199997E+02 -0.34178E+04
 0.47249996E+02 -0.32089E+04
 0.47299995E+02 -0.35963E+04
 0.47349998E+02 -0.92476E+03
 0.47399998E+02  0.11021E+03
 0.47449997E+02 -0.31882E+04
 0.47499996E+02 -0.62455E+04
 0.47549995E+02 -0.60018E+04
 0.47599998E+02 -0.60137E+04
 0.47649998E+02 -0.47961E+04
 0.47699997E+02 -0.33801E+04
 0.47749996E+02 -0.50765E+04
 0.47799995E+02 -0.47356E+04
 0.47849998E+02 -0.41547E+04
 0.47899998E+02 -0.37004E+04
 0.47949997E+02 -0.12984E+04
 0.47999996E+02 -0.23462E+04
 0.48049995E+02 -0.47429E+04
 0.48099998E+02 -0.48926E+04
 0.48149998E+02 -0.70200E+04
 0.48199997E+02 -0.61328E+04
 0.48249996E+02 -0.44576E+03
 0.48299995E+02  0.28817E+04
 0.48349998E+02  0.31755E+04
 0.48399998E+02  0.15017E+04
 0.48449997E+02  0.85738E+02
 0.48499996E+02 -0.13201E+04
 0.48549995E+02 -0.47204E+04
 0.48599998E+02 -0.44568E+04
 0.48649998E+02 -0.66881E+03
 0.48699997E+02 -0.16420E+04
 0.48749996E+02 -0.55661E+04
 0.48799995E+02 -0.71946E+04
 0.48849998E+02 -0.44117E+04
 0.48899998E+02 -0.59337E+03
 0.48949997E+02 -0.20025E+04
 0.48999996E+02 -0.46119E+04
 0.49049995E+02 -0.61675E+04
 0.49099998E+02 -0.67576E+04
 0.49149998E+02 -0.49742E+04
 0.49199997E+02 -0.32130E+04
 0.49249996E+02 -0.31437E+04
 0.49299995E+02 -0.45202E+04
 0.49349998E+02 -0.60935E+04
 0.49399998E+02 -0.88070E+04
 0.49449997E+02 -0.96677E+04
 0.49499996E+02 -0.56344E+04
 0.49549995E+02  0.80388E+03
 0.49599998E+02  0.51255E+04
 0.49649998E+02  0.36991E+04
 0.49699997E+02  0.15904E+04
 0.49749996E+02  0.16054E+04
 0.49799995E+02 -0.31068E+04
 0.49849998E+02 -0.59048E+04
 0.49899998E+02 -0.42273E+04
 0.49949997E+02 -0.40800E+04
 0.49999996E+02 -0.37886E+04
 0.50049995E+02 -0.52255E+04
 0.50099998E+02 -0.49182E+04
 0.50149998E+02 -0.21348E+04
 0.50199997E+02 -0.57870E+03
 0.50249996E+02 -0.10032E+04
 0.50299995E+02 -0.30713E+04
 0.50349998E+02 -0.38383E+04
 0.50399998E+02 -0.43417E+04
 0.50449997E+02 -0.34640E+04
 0.50499996E+02 -0.15642E+04
 0.50549995E+02 -0.23606E+04
 0.50599998E+02 -0.39338E+04
 0.50649998E+02 -0.34292E+04
 0.50699997E+02 -0.39668E+04
 0.50749996E+02 -0.67298E+04
 0.50799995E+02 -0.66667E+04
 0.50849998E+02 -0.70937E+04
 0.50899998E+02 -0.85756E+04
 0.50949997E+02 -0.76757E+04
 0.50999996E+02 -0.67820E+04
 0.51049995E+02 -0.51343E+04
 0.51099998E+02 -0.21649E+04
 0.51149998E+02  0.38435E+03
 0.51199997E+02  0.13632E+04
 0.51249996E+02  0.16895E+04
 0.51299995E+02  0.10829E+04
 0.51349998E+02  0.53858E+03
 0.51399998E+02  0.76510E+03
 0.51449997E+02  0.55843E+02
 0.51499996E+02 -0.47067E+03
 0.51549995E+02 -0.37133E+04
 0.51599998E+02 -0.67695E+04
 0.51649998E+02 -0.84876E+04
 0.51699997E+02 -0.96440E+04
 0.51749996E+02 -0.62040E+04
 0.51799995E+02 -0.19008E+04
 0.51849998E+02  0.43050E+02
 0.51899998E+02  0.90261E+03
 0.51949997E+02 -0.26183E+03
 0.51999996E+02 -0.30705E+04
 0.52049995E+02 -0.56840E+04
 0.52099998E+02 -0.67546E+04
 0.52149998E+02 -0.46055E+04
 0.52199997E+02 -0.28122E+04
 0.52249996E+02 -0.25371E+04
 0.52299995E+02 -0.22879E+04
 0.52349998E+02 -0.19171E+04
 0.52399998E+02 -0.26558E+04
 0.52449997E+02 -0.36927E+04
 0.52499996E+02 -0.39203E+04
 0.52549995E+02 -0.29413E+04
 0.52599998E+02 -0.32552E+04
 0.52649998E+02 -0.66635E+04
 0.52699997E+02 -0.79623E+04
 0.52749996E+02 -0.50921E+04
 0.52799995E+02 -0.39217E+04
 0.52849998E+02 -0.44318E+04
 0.52899998E+02 -0.21721E+04
 0.52949997E+02 -0.14368E+04
 0.52999996E+02 -0.13677E+04
 0.53049995E+02 -0.39479E+03
 0.53099998E+02 -0.16362E+04
 0.53149998E+02 -0.35071E+04
 0.53199997E+02 -0.29079E+04
 0.53249996E+02 -0.79796E+02
 0.53299995E+02  0.73585E+03
 0.53349998E+02 -0.25720E+03
 0.53399998E+02  0.27435E+03
 0.53449997E+02 -0.47643E+02
 0.53499996E+02 -0.24312E+04
 0.53549995E+02 -0.63467E+04
 0.53599998E+02 -0.93146E+04
 0.53649998E+02 -0.89964E+04
 0.53699997E+02 -0.60099E+04
 0.53749996E+02 -0.21017E+04
 0.53799995E+02  0.24063E+03
 0.53849998E+02  0.12420E+04
 0.53899998E+02  0.15654E+03
 0.53949997E+02 -0.28546E+04
 0.53999996E+02 -0.49898E+04
 0.54049995E+02 -0.65631E+04
 0.54099998E+02 -0.76784E+04
 0.54149998E+02 -0.54813E+04
 0.54199997E+02 -0.29064E+04
 0.54249996E+02 -0.22687E+04
 0.54299995E+02 -0.13354E+04
 0.54349998E+02 -0.13136E+04
 0.54399998E+02 -0.24209E+04
 0.54449997E+02 -0.29041E+04
 0.54499996E+02 -0.30539E+04
 0.54549995E+02 -0.33890E+04
 0.54599998E+02 -0.43630E+04
 0.54649998E+02 -0.54314E+04
 0.54699997E+02 -0.38727E+04
 0.54749996E+02 -0.18359E+04
 0.54799995E+02 -0.19196E+04
 0.54849998E+02 -0.24524E+04
 0.54899998E+02 -0.32615E+04
 0.54949997E+02 -0.29651E+04
 0.54999996E+02 -0.24951E+04
 0.55049995E+02 -0.32029E+04
 0.55099998E+02 -0.36138E+04
 0.55149998E+02 -0.31927E+04
 0.55199997E+02 -0.34238E+04
 0.55249996E+02 -0.51958E+04
 0.55299995E+02 -0.59731E+04
 0.55349998E+02 -0.60074E+04
 0.55399998E+02 -0.63600E+04
 0.55449997E+02 -0.49701E+04
 0.55499996E+02 -0.18596E+04
 0.55549995E+02  0.12380E+04
 0.55599998E+02  0.33988E+04
 0.55649998E+02  0.35589E+04
 0.55699997E+02  0.20686E+04
 0.55749996E+02  0.10364E+04
 0.55799995E+02 -0.13328E+03
 0.55849995E+02 -0.13872E+04
 0.55899998E+02 -0.29985E+04
 0.55949997E+02 -0.53342E+04
 0.55999996E+02 -0.59278E+04
 0.56049995E+02 -0.53674E+04
 0.56099995E+02 -0.53183E+04
 0.56149998E+02 -0.73219E+04
 0.56199997E+02 -0.83331E+04
 0.56249996E+02 -0.84941E+04
 0.56299995E+02 -0.85913E+04
 0.56349995E+02 -0.67408E+04
 0.56399998E+02 -0.49483E+04
 0.56449997E+02 -0.33559E+04
 0.56499996E+02 -0.18526E+04
 0.56549995E+02 -0.12957E+04
 0.56599995E+02 -0.95885E+03
 0.56649998E+02  0.40427E+03
 0.56699997E+02  0.42886E+03
 0.56749996E+02 -0.10880E+04
 0.56799995E+02 -0.23010E+04
 0.56849995E+02 -0.39145E+04
 0.56899998E+02 -0.52484E+04
 0.56949997E+02 -0.53872E+04
 0.56999996E+02 -0.44198E+04
 0.57049995E+02 -0.18505E+04
 0.57099995E+02  0.88819E+01
 0.57149998E+02  0.44462E+02
 0.57199997E+02 -0.45532E+03
 0.57249996E+02 -0.22377E+04
 0.57299995E+02 -0.37170E+04
 0.57349995E+02 -0.47268E+04
 0.57399998E+02 -0.52010E+04
 0.57449997E+02 -0.35858E+04
 0.57499996E+02 -0.36331E+04
 0.57549995E+02 -0.50659E+04
 0.57599995E+02 -0.41881E+04
 0.57649998E+02 -0.23973E+04
 0.57699997E+02 -0.71455E+03
 0.57749996E+02  0.37313E+03
 0.57799995E+02 -0.11510E+04
 0.57849995E+02 -0.33645E+04
 0.57899998E+02 -0.29696E+04
 0.57949997E+02 -0.25436E+04
 0.57999996E+02 -0.36550E+04
 0.58049995E+02 -0.41785E+04
 0.58099995E+02 -0.53149E+04
 0.58149998E+02 -0.69367E+04
 0.58199997E+02 -0.77934E+04
 0.58249996E+02 -0.75494E+04
 0.58299995E+02 -0.64108E+04
 0.58349995E+02 -0.45817E+04
 0.58399998E+02 -0.20067E+04
 0.58449997E+02  0.21989E+03
 0.58499996E+02  0.10585E+04
 0.58549995E+02  0.14281E+04
 0.58599995E+02  0.14050E+04
 0.58649998E+02 -0.97886E+03
 0.58699997E+02 -0.24911E+04
 0.58749996E+02 -0.27245E+04
 0.58799995E+02 -0.39540E+04
 0.58849995E+02 -0.38288E+04
 0.58899998E+02 -0.19811E+04
 0.58949997E+02 -0.17463E+04
 0.58999996E+02 -0.32637E+04
 0.59049995E+02 -0.41368E+04
 0.59099995E+02 -0.51459E+04
 0.59149998E+02 -0.46877E+04
 0.59199997E+02 -0.32896E+04
 0.59249996E+02 -0.38783E+04
 0.59299995E+02 -0.44849E+04
 0.59349995E+02 -0.61385E+04
 0.59399998E+02 -0.71241E+04
 0.59449997E+02 -0.61635E+04
 0.59499996E+02 -0.52681E+04
 0.59549995E+02 -0.36575E+04
 0.59599995E+02 -0.16239E+04
 0.59649998E+02 -0.34190E+02
 0.59699997E+02  0.16650E+03
 0.59749996E+02  0.45189E+03
 0.59799995E+02  0.71314E+03
 0.59849995E+02 -0.76547E+02
 0.59899998E+02 -0.15836E+04
 0.59949997E+02 -0.39092E+04
 0.59999996E+02 -0.56259E+04
 0.60049995E+02 -0.65673E+04
 0.60099995E+02 -0.62297E+04
 0.60149998E+02 -0.40498E+04
 0.60199997E+02 -0.20606E+04
 0.60249996E+02 -0.27461E+04
 0.60299995E+02 -0.42543E+04
 0.60349995E+02 -0.41044E+04
 0.60399998E+02 -0.40356E+04
 0.60449997E+02 -0.34435E+04
 0.60499996E+02 -0.23493E+04
 0.60549995E+02 -0.25959E+04
 0.60599995E+02 -0.38502E+04
 0.60649998E+02 -0.49669E+04
 0.60699997E+02 -0.51843E+04
 0.60749996E+02 -0.42109E+04
 0.60799995E+02 -0.31095E+04
 0.60849995E+02 -0.18993E+04
 0.60899998E+02 -0.68632E+03
 0.60949997E+02 -0.62234E+03
 0.60999996E+02 -0.15945E+04
 0.61049995E+02 -0.22943E+04
 0.61099995E+02 -0.18868E+04
 0.61149998E+02 -0.16299E+04
 0.61199997E+02 -0.22513E+04
 0.61249996E+02 -0.39576E+04
 0.61299995E+02 -0.58534E+04
 0.61349995E+02 -0.57348E+04
 0.61399998E+02 -0.44932E+04
 0.61449997E+02 -0.39773E+04
 0.61499996E+02 -0.39380E+04
 0.61549995E+02 -0.38324E+04
 0.61599995E+02 -0.27139E+04
 0.61649998E+02 -0.11468E+04
 0.61699997E+02 -0.32686E+03
 0.61749996E+02 -0.97635E+03
 0.61799995E+02 -0.22408E+04
 0.61849995E+02 -0.40517E+04
 0.61899998E+02 -0.61235E+04
 0.61949997E+02 -0.65534E+04
 0.61999996E+02 -0.57810E+04
 0.62049995E+02 -0.43763E+04
 0.62099998E+02 -0.31831E+04
 0.62149994E+02 -0.25584E+04
 0.62199997E+02 -0.21223E+04
 0.62249992E+02 -0.17959E+04
 0.62299995E+02 -0.12769E+04
 0.62349998E+02 -0.11935E+04
 0.62399994E+02 -0.23087E+04
 0.62449997E+02 -0.31264E+04
 0.62499992E+02 -0.31997E+04
 0.62549995E+02 -0.33501E+04
 0.62599998E+02 -0.32011E+04
 0.62649994E+02 -0.29258E+04
 0.62699997E+02 -0.23972E+04
 0.62749992E+02 -0.26676E+04
 0.62799995E+02 -0.33149E+04
 0.62849998E+02 -0.33372E+04
 0.62899994E+02 -0.42071E+04
 0.62949997E+02 -0.50330E+04
 0.62999992E+02 -0.50010E+04
 0.63049995E+02 -0.47885E+04
 0.63099998E+02 -0.45795E+04
 0.63149994E+02 -0.51714E+04
 0.63199997E+02 -0.49951E+04
 0.63249992E+02 -0.36733E+04
 0.63299995E+02 -0.35157E+04
 0.63349998E+02 -0.37238E+04
 0.63399994E+02 -0.27234E+04
 0.63449997E+02 -0.14298E+04
 0.63499992E+02 -0.51608E+03
 0.63549995E+02 -0.60647E+03
 0.63599998E+02 -0.12359E+04
 0.63649994E+02 -0.62292E+03
 0.63699997E+02 -0.28148E+03
 0.63749992E+02 -0.75102E+03
 0.63799995E+02 -0.10043E+04
 0.63849998E+02 -0.14170E+04
 0.63899994E+02 -0.19495E+04
 0.63949997E+02 -0.26148E+04
 0.63999992E+02 -0.33132E+04
 0.64049995E+02 -0.43164E+04
 0.64099998E+02 -0.50933E+04
 0.64149994E+02 -0.52253E+04
 0.64199997E+02 -0.52339E+04
 0.64249992E+02 -0.55295E+04
 0.64299995E+02 -0.63574E+04
 0.64349998E+02 -0.62977E+04
 0.64399994E+02 -0.56574E+04
 0.64449997E+02 -0.51356E+04
 0.64499992E+02 -0.44517E+04
 0.64549995E+02 -0.42536E+04
 0.64599998E+02 -0.45023E+04
 0.64649994E+02 -0.41751E+04
 0.64699997E+02 -0.34581E+04
 0.64749992E+02 -0.28555E+04
 0.64799995E+02 -0.18509E+04
 0.64849998E+02 -0.13532E+04
 0.64899994E+02 -0.56077E+03
 0.64949997E+02  0.69196E+01
 0.64999992E+02 -0.80513E+03
 0.65049995E+02 -0.13514E+04
 0.65099998E+02 -0.23016E+04
 0.65149994E+02 -0.30846E+04
 0.65199997E+02 -0.32098E+04
 0.65249992E+02 -0.36481E+04
 0.65299995E+02 -0.44484E+04
 0.65349998E+02 -0.53471E+04
 0.65399994E+02 -0.57172E+04
 0.65449997E+02 -0.55378E+04
 0.65499992E+02 -0.47453E+04
 0.65549995E+02 -0.34683E+04
 0.65599998E+02 -0.20246E+04
 0.65649994E+02 -0.14298E+04
 0.65699997E+02 -0.17370E+04
 0.65749992E+02 -0.19697E+04
 0.65799995E+02 -0.23251E+04
 0.65849998E+02 -0.24205E+04
 0.65899994E+02 -0.23657E+04
 0.65949997E+02 -0.32898E+04
 0.65999992E+02 -0.40843E+04
 0.66049995E+02 -0.40818E+04
 0.66099998E+02 -0.43171E+04
 0.66149994E+02 -0.41779E+04
 0.66199997E+02 -0.35078E+04
 0.66249992E+02 -0.36792E+04
 0.66299995E+02 -0.38883E+04
 0.66349998E+02 -0.35196E+04
 0.66399994E+02 -0.39527E+04
 0.66449997E+02 -0.38715E+04
 0.66499992E+02 -0.24980E+04
 0.66549995E+02 -0.18729E+04
 0.66599998E+02 -0.15805E+04
 0.66649994E+02 -0.11965E+04
 0.66699997E+02 -0.18459E+04
 0.66749992E+02 -0.25486E+04
 0.66799995E+02 -0.20893E+04
 0.66849998E+02 -0.15874E+04
 0.66899994E+02 -0.17423E+04
 0.66949997E+02 -0.21126E+04
 0.66999992E+02 -0.27031E+04
 0.67049995E+02 -0.33020E+04
 0.67099998E+02 -0.40294E+04
 0.67149994E+02 -0.52995E+04
 0.67199997E+02 -0.55331E+04
 0.67249992E+02 -0.46391E+04
 0.67299995E+02 -0.41809E+04
 0.67349998E+02 -0.35284E+04
 0.67399994E+02 -0.29608E+04
 0.67449997E+02 -0.24184E+04
 0.67499992E+02 -0.15737E+04
 0.67549995E+02 -0.11777E+04
 0.67599998E+02 -0.13780E+04
 0.67649994E+02 -0.15634E+04
 0.67699997E+02 -0.19757E+04
 0.67749992E+02 -0.24692E+04
 0.67799995E+02 -0.23923E+04
 0.67849998E+02 -0.25225E+04
 0.67899994E+02 -0.25653E+04
 0.67949997E+02 -0.26441E+04
 0.67999992E+02 -0.35904E+04
 0.68049995E+02 -0.50437E+04
 0.68099998E+02 -0.62295E+04
 0.68149994E+02 -0.67460E+04
 0.68199997E+02 -0.68561E+04
 0.68249992E+02 -0.67989E+04
 0.68299995E+02 -0.59672E+04
 0.68349998E+02 -0.44877E+04
 0.68399994E+02 -0.36832E+04
 0.68449997E+02 -0.27528E+04
 0.68499992E+02 -0.12403E+04
 0.68549995E+02 -0.35470E+03
 0.68599998E+02 -0.36711E+02
 0.68649994E+02 -0.48288E+03
 0.68699997E+02 -0.16495E+04
 0.68749992E+02 -0.28899E+04
 0.68799995E+02 -0.36793E+04
 0.68849998E+02 -0.34997E+04
 0.68899994E+02 -0.33989E+04
 0.68949997E+02 -0.37337E+04
 0.68999992E+02 -0.38176E+04
 0.69049995E+02 -0.39646E+04
 0.69099998E+02 -0.43564E+04
 0.69149994E+02 -0.47347E+04
 0.69199997E+02 -0.49219E+04
 0.69249992E+02 -0.43335E+04
 0.69299995E+02 -0.28398E+04
 0.69349998E+02 -0.18302E+04
 0.69399994E+02 -0.15492E+04
 0.69449997E+02 -0.19065E+04
 0.69499992E+02 -0.30497E+04
 0.69549995E+02 -0.37985E+04
 0.69599998E+02 -0.37331E+04
 0.69649994E+02 -0.39322E+04
 0.69699997E+02 -0.41025E+04
 0.69749992E+02 -0.35532E+04
 0.69799995E+02 -0.32369E+04
 0.69849998E+02 -0.27510E+04
 0.69899994E+02 -0.20239E+04
 0.69949997E+02 -0.20552E+04
 0.69999992E+02 -0.21657E+04
 0.70049995E+02 -0.20159E+04
 0.70099998E+02 -0.18628E+04
 0.70149994E+02 -0.16342E+04
 0.70199997E+02 -0.14220E+04
 0.70249992E+02 -0.19431E+04
 0.70299995E+02 -0.33235E+04
 0.70349998E+02 -0.41221E+04
 0.70399994E+02 -0.42029E+04
 0.70449997E+02 -0.40689E+04
 0.70499992E+02 -0.39628E+04
 0.70549995E+02 -0.34515E+04
 0.70599998E+02 -0.26492E+04
 0.70649994E+02 -0.25830E+04
 0.70699997E+02 -0.29816E+04
 0.70749992E+02 -0.33749E+04
 0.70799995E+02 -0.36526E+04
 0.70849998E+02 -0.38975E+04
 0.70899994E+02 -0.36015E+04
 0.70949997E+02 -0.33203E+04
 0.70999992E+02 -0.33311E+04
 0.71049995E+02 -0.29407E+04
 0.71099998E+02 -0.24820E+04
 0.71149994E+02 -0.27139E+04
 0.71199997E+02 -0.35846E+04
 0.71249992E+02 -0.38143E+04
 0.71299995E+02 -0.32578E+04
 0.71349998E+02 -0.30114E+04
 0.71399994E+02 -0.30957E+04
 0.71449997E+02 -0.28357E+04
 0.71499992E+02 -0.29862E+04
 0.71549995E+02 -0.33170E+04
 0.71599998E+02 -0.30799E+04
 0.71649994E+02 -0.28402E+04
 0.71699997E+02 -0.28116E+04
 0.71749992E+02 -0.29599E+04
 0.71799995E+02 -0.32615E+04
 0.71849998E+02 -0.34973E+04
 0.71899994E+02 -0.33913E+04
 0.71949997E+02 -0.33760E+04
 0.71999992E+02 -0.34889E+04
 0.72049995E+02 -0.36046E+04
 0.72099998E+02 -0.40105E+04
 0.72149994E+02 -0.42652E+04
 0.72199997E+02 -0.40088E+04
 0.72249992E+02 -0.35997E+04
 0.72299995E+02 -0.33028E+04
 0.72349998E+02 -0.33806E+04
 0.72399994E+02 -0.35731E+04
 0.72449997E+02 -0.33424E+04
 0.72499992E+02 -0.27773E+04
 0.72549995E+02 -0.22965E+04
 0.72599998E+02 -0.20740E+04
 0.72649994E+02 -0.25773E+04
 0.72699997E+02 -0.34024E+04
 0.72749992E+02 -0.38618E+04
 0.72799995E+02 -0.40385E+04
 0.72849998E+02 -0.35391E+04
 0.72899994E+02 -0.33033E+04
 0.72949997E+02 -0.31671E+04
 0.72999992E+02 -0.27542E+04
 0.73049995E+02 -0.26466E+04
 0.73099998E+02 -0.30733E+04
 0.73149994E+02 -0.36315E+04
 0.73199997E+02 -0.37869E+04
 0.73249992E+02 -0.40356E+04
 0.73299995E+02 -0.44173E+04
 0.73349998E+02 -0.44345E+04
 0.73399994E+02 -0.37156E+04
 0.73449997E+02 -0.25345E+04
 0.73499992E+02 -0.18057E+04
 0.73549995E+02 -0.16501E+04
 0.73599998E+02 -0.15015E+04
 0.73649994E+02 -0.18774E+04
 0.73699997E+02 -0.27911E+04
 0.73749992E+02 -0.35862E+04
 0.73799995E+02 -0.39851E+04
 0.73849998E+02 -0.38591E+04
 0.73899994E+02 -0.33810E+04
 0.73949997E+02 -0.29860E+04
 0.73999992E+02 -0.25957E+04
 0.74049995E+02 -0.26906E+04
 0.74099998E+02 -0.34687E+04
 0.74149994E+02 -0.39245E+04
 0.74199997E+02 -0.36837E+04
 0.74249992E+02 -0.28910E+04
 0.74299995E+02 -0.23167E+04
 0.74349998E+02 -0.22366E+04
 0.74399994E+02 -0.23852E+04
 0.74449997E+02 -0.24490E+04
 0.74499992E+02 -0.22605E+04
 0.74549995E+02 -0.25311E+04
 0.74599998E+02 -0.30290E+04
 0.74649994E+02 -0.34181E+04
 0.74699997E+02 -0.38181E+04
 0.74749992E+02 -0.36529E+04
 0.74799995E+02 -0.30260E+04
 0.74849998E+02 -0.25991E+04
 0.74899994E+02 -0.25101E+04
 0.74949997E+02 -0.26997E+04
 0.74999992E+02 -0.28529E+04
 0.75049995E+02 -0.30649E+04
 0.75099998E+02 -0.32912E+04
 0.75149994E+02 -0.31750E+04
 0.75199997E+02 -0.32510E+04
 0.75249992E+02 -0.32299E+04
 0.75299995E+02 -0.33881E+04
 0.75349998E+02 -0.40060E+04
 0.75399994E+02 -0.40724E+04
 0.75449997E+02 -0.40459E+04
 0.75499992E+02 -0.44436E+04
 0.75549995E+02 -0.45070E+04
 0.75599998E+02 -0.42767E+04
 0.75649994E+02 -0.36726E+04
 0.75699997E+02 -0.27102E+04
 0.75749992E+02 -0.22227E+04
 0.75799995E+02 -0.21667E+04
 0.75849998E+02 -0.23635E+04
 0.75899994E+02 -0.28986E+04
 0.75949997E+02 -0.37455E+04
 0.75999992E+02 -0.44251E+04
 0.76049995E+02 -0.45059E+04
 0.76099998E+02 -0.43207E+04
 0.76149994E+02 -0.40218E+04
 0.76199997E+02 -0.37063E+04
 0.76249992E+02 -0.33339E+04
 0.76299995E+02 -0.28104E+04
 0.76349998E+02 -0.24704E+04
 0.76399994E+02 -0.21826E+04
 0.76449997E+02 -0.20136E+04
 0.76499992E+02 -0.19776E+04
 0.76549995E+02 -0.20022E+04
 0.76599998E+02 -0.22448E+04
 0.76649994E+02 -0.26235E+04
 0.76699997E+02 -0.31195E+04
 0.76749992E+02 -0.30778E+04
 0.76799995E+02 -0.22451E+04
 0.76849998E+02 -0.16380E+04
 0.76899994E+02 -0.12790E+04
 0.76949997E+02 -0.12522E+04
 0.76999992E+02 -0.20428E+04
 0.77049995E+02 -0.31046E+04
 0.77099998E+02 -0.43619E+04
 0.77149994E+02 -0.52545E+04
 0.77199997E+02 -0.53291E+04
 0.77249992E+02 -0.52474E+04
 0.77299995E+02 -0.51212E+04
 0.77349998E+02 -0.48191E+04
 0.77399994E+02 -0.46580E+04
 0.77449997E+02 -0.44875E+04
 0.77499992E+02 -0.41374E+04
 0.77549995E+02 -0.36888E+04
 0.77599998E+02 -0.33484E+04
 0.77649994E+02 -0.33443E+04
 0.77699997E+02 -0.28399E+04
 0.77749992E+02 -0.19071E+04
 0.77799995E+02 -0.12094E+04
 0.77849998E+02 -0.11837E+04
 0.77899994E+02 -0.19272E+04
 0.77949997E+02 -0.26707E+04
 0.77999992E+02 -0.32299E+04
 0.78049995E+02 -0.34443E+04
 0.78099998E+02 -0.35352E+04
 0.78149994E+02 -0.36539E+04
 0.78199997E+02 -0.35276E+04
 0.78249992E+02 -0.34511E+04
 0.78299995E+02 -0.34430E+04
 0.78349998E+02 -0.34932E+04
 0.78399994E+02 -0.34661E+04
 0.78449997E+02 -0.30433E+04
 0.78499992E+02 -0.25197E+04
 0.78549995E+02 -0.21188E+04
 0.78599998E+02 -0.21112E+04
 0.78649994E+02 -0.25474E+04
 0.78699997E+02 -0.32486E+04
 0.78749992E+02 -0.40967E+04
 0.78799995E+02 -0.45502E+04
 0.78849998E+02 -0.46585E+04
 0.78899994E+02 -0.47354E+04
 0.78949997E+02 -0.46188E+04
 0.78999992E+02 -0.43124E+04
 0.79049995E+02 -0.40566E+04
 0.79099998E+02 -0.38222E+04
 0.79149994E+02 -0.35031E+04
 0.79199997E+02 -0.31848E+04
 0.79249992E+02 -0.29254E+04
 0.79299995E+02 -0.24608E+04
 0.79349998E+02 -0.19133E+04
 0.79399994E+02 -0.17271E+04
 0.79449997E+02 -0.19443E+04
 0.79499992E+02 -0.22186E+04
 0.79549995E+02 -0.23409E+04
 0.79599998E+02 -0.24483E+04
 0.79649994E+02 -0.25872E+04
 0.79699997E+02 -0.27241E+04
 0.79749992E+02 -0.30731E+04
 0.79799995E+02 -0.36516E+04
 0.79849998E+02 -0.40625E+04
 0.79899994E+02 -0.43338E+04
 0.79949997E+02 -0.42588E+04
 0.79999992E+02 -0.37087E+04
 0.80049995E+02 -0.33508E+04
 0.80099998E+02 -0.32520E+04
 0.80149994E+02 -0.32249E+04
 0.80199997E+02 -0.29767E+04
 0.80249992E+02 -0.25059E+04
 0.80299995E+02 -0.21601E+04
 0.80349998E+02 -0.17841E+04
 0.80399994E+02 -0.15819E+04
 0.80449997E+02 -0.17207E+04
 0.80499992E+02 -0.20527E+04
 0.80549995E+02 -0.25409E+04
 0.80599998E+02 -0.29750E+04
 0.80649994E+02 -0.31126E+04
 0.80699997E+02 -0.29836E+04
 0.80749992E+02 -0.30324E+04
 0.80799995E+02 -0.33839E+04
 0.80849998E+02 -0.35501E+04
 0.80899994E+02 -0.35668E+04
 0.80949997E+02 -0.34726E+04
 0.80999992E+02 -0.32633E+04
 0.81049995E+02 -0.29987E+04
 0.81099998E+02 -0.28251E+04
 0.81149994E+02 -0.27433E+04
 0.81199997E+02 -0.25480E+04
 0.81249992E+02 -0.29405E+04
 0.81299995E+02 -0.38377E+04
 0.81349998E+02 -0.44751E+04
 0.81399994E+02 -0.47058E+04
 0.81449997E+02 -0.44748E+04
 0.81499992E+02 -0.41308E+04
 0.81549995E+02 -0.40843E+04
 0.81599998E+02 -0.41145E+04
 0.81649994E+02 -0.38338E+04
 0.81699997E+02 -0.32801E+04
 0.81749992E+02 -0.26800E+04
 0.81799995E+02 -0.24289E+04
 0.81849998E+02 -0.26048E+04
 0.81899994E+02 -0.28851E+04
 0.81949997E+02 -0.31094E+04
 0.81999992E+02 -0.32092E+04
 0.82049995E+02 -0.32450E+04
 0.82099998E+02 -0.34070E+04
 0.82149994E+02 -0.34250E+04
 0.82199997E+02 -0.30823E+04
 0.82249992E+02 -0.26350E+04
 0.82299995E+02 -0.20030E+04
 0.82349998E+02 -0.14783E+04
 0.82399994E+02 -0.15389E+04
 0.82449997E+02 -0.19737E+04
 0.82499992E+02 -0.26541E+04
 0.82549995E+02 -0.34976E+04
 0.82599998E+02 -0.40008E+04
 0.82649994E+02 -0.40606E+04
 0.82699997E+02 -0.38688E+04
 0.82749992E+02 -0.36134E+04
 0.82799995E+02 -0.34079E+04
 0.82849998E+02 -0.32940E+04
 0.82899994E+02 -0.35443E+04
 0.82949997E+02 -0.40797E+04
 0.82999992E+02 -0.44225E+04
 0.83049995E+02 -0.43704E+04
 0.83099998E+02 -0.41543E+04
 0.83149994E+02 -0.36782E+04
 0.83199997E+02 -0.30495E+04
 0.83249992E+02 -0.29203E+04
 0.83299995E+02 -0.32108E+04
 0.83349998E+02 -0.34642E+04
 0.83399994E+02 -0.33478E+04
 0.83449997E+02 -0.25913E+04
 0.83499992E+02 -0.17754E+04
 0.83549995E+02 -0.13891E+04
 0.83599998E+02 -0.15199E+04
 0.83649994E+02 -0.20328E+04
 0.83699997E+02 -0.26422E+04
 0.83749992E+02 -0.32205E+04
 0.83799995E+02 -0.34673E+04
 0.83849998E+02 -0.34863E+04
 0.83899994E+02 -0.35740E+04
 0.83949997E+02 -0.36082E+04
 0.83999992E+02 -0.36236E+04
 0.84049995E+02 -0.37494E+04
 0.84099998E+02 -0.37817E+04
 0.84149994E+02 -0.36490E+04
 0.84199997E+02 -0.32849E+04
 0.84249992E+02 -0.28947E+04
 0.84299995E+02 -0.27352E+04
 0.84349998E+02 -0.27880E+04
 0.84399994E+02 -0.28622E+04
 0.84449997E+02 -0.30429E+04
 0.84499992E+02 -0.33668E+04
 0.84549995E+02 -0.34830E+04
 0.84599998E+02 -0.34078E+04
 0.84649994E+02 -0.32872E+04
 0.84699997E+02 -0.31949E+04
 0.84749992E+02 -0.30975E+04
 0.84799995E+02 -0.30491E+04
 0.84849998E+02 -0.32776E+04
 0.84899994E+02 -0.37275E+04
 0.84949997E+02 -0.40058E+04
 0.84999992E+02 -0.38962E+04
 0.85049995E+02 -0.35600E+04
 0.85099998E+02 -0.32630E+04
 0.85149994E+02 -0.30064E+04
 0.85199997E+02 -0.27779E+04
 0.85249992E+02 -0.26560E+04
 0.85299995E+02 -0.27070E+04
 0.85349998E+02 -0.26887E+04
 0.85399994E+02 -0.26626E+04
 0.85449997E+02 -0.29885E+04
 0.85499992E+02 -0.33571E+04
 0.85549995E+02 -0.33993E+04
 0.85599998E+02 -0.34173E+04
 0.85649994E+02 -0.35851E+04
 0.85699997E+02 -0.39305E+04
 0.85749992E+02 -0.46020E+04
 0.85799995E+02 -0.48635E+04
 0.85849998E+02 -0.45765E+04
 0.85899994E+02 -0.43158E+04
 0.85949997E+02 -0.39777E+04
 0.85999992E+02 -0.32690E+04
 0.86049995E+02 -0.24648E+04
 0.86099998E+02 -0.20996E+04
 0.86149994E+02 -0.22806E+04
 0.86199997E+02 -0.25839E+04
 0.86249992E+02 -0.26051E+04
 0.86299995E+02 -0.24699E+04
 0.86349998E+02 -0.22999E+04
 0.86399994E+02 -0.20719E+04
 0.86449997E+02 -0.20566E+04
 0.86499992E+02 -0.24681E+04
 0.86549995E+02 -0.27870E+04
 0.86599998E+02 -0.28398E+04
 0.86649994E+02 -0.29749E+04
 0.86699997E+02 -0.30468E+04
 0.86749992E+02 -0.29907E+04
 0.86799995E+02 -0.32480E+04
 0.86849998E+02 -0.35702E+04
 0.86899994E+02 -0.35778E+04
 0.86949997E+02 -0.36556E+04
 0.86999992E+02 -0.37904E+04
 0.87049995E+02 -0.37707E+04
 0.87099998E+02 -0.34490E+04
 0.87149994E+02 -0.30541E+04
 0.87199997E+02 -0.30348E+04
 0.87249992E+02 -0.33624E+04
 0.87299995E+02 -0.36361E+04
 0.87349998E+02 -0.37218E+04
 0.87399994E+02 -0.36202E+04
 0.87449997E+02 -0.33911E+04
 0.87499992E+02 -0.32844E+04
 0.87549995E+02 -0.31265E+04
 0.87599991E+02 -0.29115E+04
 0.87649994E+02 -0.28565E+04
 0.87699997E+02 -0.28455E+04
 0.87749992E+02 -0.25629E+04
 0.87799995E+02 -0.22099E+04
 0.87849991E+02 -0.20345E+04
 0.87899994E+02 -0.21487E+04
 0.87949997E+02 -0.26314E+04
 0.87999992E+02 -0.32804E+04
 0.88049995E+02 -0.35728E+04
 0.88099991E+02 -0.34266E+04
 0.88149994E+02 -0.32525E+04
 0.88199997E+02 -0.31532E+04
 0.88249992E+02 -0.33191E+04
 0.88299995E+02 -0.37942E+04
 0.88349991E+02 -0.42913E+04
 0.88399994E+02 -0.44503E+04
 0.88449997E+02 -0.42997E+04
 0.88499992E+02 -0.39538E+04
 0.88549995E+02 -0.35055E+04
 0.88599991E+02 -0.31830E+04
 0.88649994E+02 -0.30834E+04
 0.88699997E+02 -0.31945E+04
 0.88749992E+02 -0.32837E+04
 0.88799995E+02 -0.30839E+04
 0.88849991E+02 -0.28028E+04
 0.88899994E+02 -0.27077E+04
 0.88949997E+02 -0.26806E+04
 0.88999992E+02 -0.28397E+04
 0.89049995E+02 -0.30759E+04
 0.89099991E+02 -0.32357E+04
 0.89149994E+02 -0.35639E+04
 0.89199997E+02 -0.37524E+04
 0.89249992E+02 -0.35850E+04
 0.89299995E+02 -0.32451E+04
 0.89349991E+02 -0.29393E+04
 0.89399994E+02 -0.27862E+04
 0.89449997E+02 -0.26806E+04
 0.89499992E+02 -0.25916E+04
 0.89549995E+02 -0.27538E+04
 0.89599991E+02 -0.31570E+04
 0.89649994E+02 -0.34909E+04
 0.89699997E+02 -0.36077E+04
 0.89749992E+02 -0.34876E+04
 0.89799995E+02 -0.32071E+04
 0.89849991E+02 -0.30588E+04
 0.89899994E+02 -0.31425E+04
 0.89949997E+02 -0.30733E+04
 0.89999992E+02 -0.29717E+04
 0.90049995E+02 -0.28698E+04
 0.90099991E+02 -0.26645E+04
 0.90149994E+02 -0.26060E+04
 0.90199997E+02 -0.26397E+04
 0.90249992E+02 -0.27418E+04
 0.90299995E+02 -0.27910E+04
 0.90349991E+02 -0.27142E+04
 0.90399994E+02 -0.26591E+04
 0.90449997E+02 -0.27216E+04
 0.90499992E+02 -0.28311E+04
 0.90549995E+02 -0.29125E+04
 0.90599991E+02 -0.29671E+04
 0.90649994E+02 -0.32831E+04
 0.90699997E+02 -0.37503E+04
 0.90749992E+02 -0.38987E+04
 0.90799995E+02 -0.37974E+04
 0.90849991E+02 -0.33625E+04
 0.90899994E+02 -0.28074E+04
 0.90949997E+02 -0.25411E+04
 0.90999992E+02 -0.25091E+04
 0.91049995E+02 -0.25393E+04
 0.91099991E+02 -0.26570E+04
 0.91149994E+02 -0.29188E+04
 0.91199997E+02 -0.31519E+04
 0.91249992E+02 -0.33946E+04
 0.91299995E+02 -0.37143E+04
 0.91349991E+02 -0.38502E+04
 0.91399994E+02 -0.37716E+04
 0.91449997E+02 -0.36332E+04
 0.91499992E+02 -0.34466E+04
 0.91549995E+02 -0.32621E+04
 0.91599991E+02 -0.30927E+04
 0.91649994E+02 -0.27736E+04
 0.91699997E+02 -0.25599E+04
 0.91749992E+02 -0.26830E+04
 0.91799995E+02 -0.29952E+04
 0.91849991E+02 -0.34576E+04
 0.91899994E+02 -0.39400E+04
 0.91949997E+02 -0.43588E+04
 0.91999992E+02 -0.45845E+04
 0.92049995E+02 -0.45169E+04
 0.92099991E+02 -0.40808E+04
 0.92149994E+02 -0.34924E+04
 0.92199997E+02 -0.30307E+04
 0.92249992E+02 -0.27958E+04
 0.92299995E+02 -0.28490E+04
 0.92349991E+02 -0.29370E+04
 0.92399994E+02 -0.29950E+04
 0.92449997E+02 -0.30471E+04
 0.92499992E+02 -0.29704E+04
 0.92549995E+02 -0.28702E+04
 0.92599991E+02 -0.28256E+04
 0.92649994E+02 -0.28662E+04
 0.92699997E+02 -0.29584E+04
 0.92749992E+02 -0.30680E+04
 0.92799995E+02 -0.33429E+04
 0.92849991E+02 -0.34783E+04
 0.92899994E+02 -0.33813E+04
 0.92949997E+02 -0.34240E+04
 0.92999992E+02 -0.35989E+04
 0.93049995E+02 -0.35967E+04
 0.93099991E+02 -0.33454E+04
 0.93149994E+02 -0.29230E+04
 0.93199997E+02 -0.24706E+04
 0.93249992E+02 -0.23172E+04
 0.93299995E+02 -0.23510E+04
 0.93349991E+02 -0.24725E+04
 0.93399994E+02 -0.26041E+04
 0.93449997E+02 -0.26270E+04
 0.93499992E+02 -0.26860E+04
 0.93549995E+02 -0.27403E+04
 0.93599991E+02 -0.28826E+04
 0.93649994E+02 -0.31873E+04
 0.93699997E+02 -0.33744E+04
 0.93749992E+02 -0.33038E+04
 0.93799995E+02 -0.30941E+04
 0.93849991E+02 -0.30243E+04
 0.93899994E+02 -0.31878E+04
 0.93949997E+02 -0.35484E+04
 0.93999992E+02 -0.38905E+04
 0.94049995E+02 -0.39648E+04
 0.94099991E+02 -0.40244E+04
 0.94149994E+02 -0.40295E+04
 0.94199997E+02 -0.37854E+04
 0.94249992E+02 -0.33749E+04
 0.94299995E+02 -0.29330E+04
 0.94349991E+02 -0.26101E+04
 0.94399994E+02 -0.25813E+04
 0.94449997E+02 -0.28280E+04
 0.94499992E+02 -0.29959E+04
 0.94549995E+02 -0.29536E+04
 0.94599991E+02 -0.28929E+04
 0.94649994E+02 -0.29094E+04
 0.94699997E+02 -0.28579E+04
 0.94749992E+02 -0.28341E+04
 0.94799995E+02 -0.29483E+04
 0.94849991E+02 -0.30982E+04
 0.94899994E+02 -0.32717E+04
 0.94949997E+02 -0.35037E+04
 0.94999992E+02 -0.37305E+04
 0.95049995E+02 -0.37740E+04
 0.95099991E+02 -0.37380E+04
 0.95149994E+02 -0.36112E+04
 0.95199997E+02 -0.35051E+04
 0.95249992E+02 -0.35047E+04
 0.95299995E+02 -0.33466E+04
 0.95349991E+02 -0.30695E+04
 0.95399994E+02 -0.28327E+04
 0.95449997E+02 -0.28103E+04
 0.95499992E+02 -0.29650E+04
 0.95549995E+02 -0.31149E+04
 0.95599991E+02 -0.31860E+04
 0.95649994E+02 -0.32849E+04
 0.95699997E+02 -0.34136E+04
 0.95749992E+02 -0.34969E+04
 0.95799995E+02 -0.37466E+04
 0.95849991E+02 -0.40605E+04
 0.95899994E+02 -0.42503E+04
 0.95949997E+02 -0.42761E+04
 0.95999992E+02 -0.39356E+04
 0.96049995E+02 -0.33370E+04
 0.96099991E+02 -0.28376E+04
 0.96149994E+02 -0.25611E+04
 0.96199997E+02 -0.25820E+04
 0.96249992E+02 -0.27417E+04
 0.96299995E+02 -0.28024E+04
 0.96349991E+02 -0.28124E+04
 0.96399994E+02 -0.28251E+04
 0.96449997E+02 -0.29126E+04
 0.96499992E+02 -0.31342E+04
 0.96549995E+02 -0.33607E+04
 0.96599991E+02 -0.35353E+04
 0.96649994E+02 -0.36291E+04
 0.96699997E+02 -0.35171E+04
 0.96749992E+02 -0.32343E+04
 0.96799995E+02 -0.28313E+04
 0.96849991E+02 -0.25425E+04
 0.96899994E+02 -0.25062E+04
 0.96949997E+02 -0.26110E+04
 0.96999992E+02 -0.27333E+04
 0.97049995E+02 -0.27393E+04
 0.97099991E+02 -0.26424E+04
 0.97149994E+02 -0.25300E+04
 0.97199997E+02 -0.24644E+04
 0.97249992E+02 -0.25361E+04
 0.97299995E+02 -0.27657E+04
 0.97349991E+02 -0.30916E+04
 0.97399994E+02 -0.35018E+04
 0.97449997E+02 -0.39211E+04
 0.97499992E+02 -0.41556E+04
 0.97549995E+02 -0.41616E+04
 0.97599991E+02 -0.40350E+04
 0.97649994E+02 -0.38419E+04
 0.97699997E+02 -0.35576E+04
 0.97749992E+02 -0.31532E+04
 0.97799995E+02 -0.27189E+04
 0.97849991E+02 -0.23274E+04
 0.97899994E+02 -0.20717E+04
 0.97949997E+02 -0.20426E+04
 0.97999992E+02 -0.22494E+04
