-0.20000000E+01 -0.32520E+05
-0.19500000E+01 -0.32347E+05
-0.19000000E+01 -0.32476E+05
-0.18500000E+01 -0.32442E+05
-0.18000000E+01 -0.32429E+05
-0.17500000E+01 -0.32377E+05
-0.17000000E+01 -0.32303E+05
-0.16500001E+01 -0.32221E+05
-0.16000000E+01 -0.32118E+05
-0.15500000E+01 -0.32045E+05
-0.15000000E+01 -0.31963E+05
-0.14500000E+01 -0.31904E+05
-0.14000001E+01 -0.31860E+05
-0.13500000E+01 -0.31830E+05
-0.13000001E+01 -0.31810E+05
-0.12500000E+01 -0.31855E+05
-0.12000000E+01 -0.31905E+05
-0.11500001E+01 -0.31962E+05
-0.11000000E+01 -0.32009E+05
-0.10500001E+01 -0.32060E+05
-0.10000000E+01 -0.32114E+05
-0.95000005E+00 -0.32141E+05
-0.90000010E+00 -0.32203E+05
-0.85000002E+00 -0.32237E+05
-0.80000007E+00 -0.32237E+05
-0.75000012E+00 -0.32219E+05
-0.70000005E+00 -0.32199E+05
-0.65000010E+00 -0.32184E+05
-0.60000014E+00 -0.32174E+05
-0.55000007E+00 -0.32181E+05
-0.50000012E+00 -0.32175E+05
-0.45000005E+00 -0.32186E+05
-0.40000010E+00 -0.32218E+05
-0.35000014E+00 -0.32215E+05
-0.30000007E+00 -0.32203E+05
-0.25000012E+00 -0.32229E+05
-0.20000005E+00 -0.32279E+05
-0.15000010E+00 -0.32265E+05
-0.10000014E+00 -0.32249E+05
-0.50000072E-01 -0.32256E+05
-0.11920929E-06 -0.32232E+05
 0.49999952E-01 -0.32230E+05
 0.99999905E-01 -0.32236E+05
 0.14999986E+00 -0.32236E+05
 0.19999981E+00 -0.32219E+05
 0.24999976E+00 -0.32222E+05
 0.29999995E+00 -0.32234E+05
 0.34999990E+00 -0.32236E+05
 0.39999986E+00 -0.32214E+05
 0.44999981E+00 -0.32148E+05
 0.49999976E+00 -0.32101E+05
 0.54999995E+00 -0.32089E+05
 0.59999990E+00 -0.32104E+05
 0.64999986E+00 -0.32120E+05
 0.69999981E+00 -0.32134E+05
 0.74999976E+00 -0.32133E+05
 0.79999971E+00 -0.32136E+05
 0.84999990E+00 -0.32162E+05
 0.89999986E+00 -0.32175E+05
 0.94999981E+00 -0.32184E+05
 0.99999976E+00 -0.32191E+05
 0.10499997E+01 -0.32198E+05
 0.10999999E+01 -0.32202E+05
 0.11499999E+01 -0.32205E+05
 0.11999998E+01 -0.32197E+05
 0.12499998E+01 -0.32176E+05
 0.12999997E+01 -0.32147E+05
 0.13499999E+01 -0.32091E+05
 0.13999999E+01 -0.32025E+05
 0.14499998E+01 -0.31968E+05
 0.14999998E+01 -0.31930E+05
 0.15499997E+01 -0.31903E+05
 0.15999999E+01 -0.31902E+05
 0.16499999E+01 -0.31892E+05
 0.16999998E+01 -0.31883E+05
 0.17499998E+01 -0.31898E+05
 0.17999997E+01 -0.31932E+05
 0.18499997E+01 -0.31974E+05
 0.18999999E+01 -0.32021E+05
 0.19499998E+01 -0.32101E+05
 0.19999998E+01 -0.32142E+05
 0.20499997E+01 -0.32170E+05
 0.20999999E+01 -0.32211E+05
 0.21499996E+01 -0.32245E+05
 0.21999998E+01 -0.32304E+05
 0.22499995E+01 -0.32342E+05
 0.22999997E+01 -0.32346E+05
 0.23499999E+01 -0.32342E+05
 0.23999996E+01 -0.32341E+05
 0.24499998E+01 -0.32337E+05
 0.24999995E+01 -0.32312E+05
 0.25499997E+01 -0.32255E+05
 0.25999999E+01 -0.32165E+05
 0.26499996E+01 -0.32069E+05
 0.26999998E+01 -0.31989E+05
 0.27499995E+01 -0.31938E+05
 0.27999997E+01 -0.31896E+05
 0.28499999E+01 -0.31892E+05
 0.28999996E+01 -0.31912E+05
 0.29499998E+01 -0.31927E+05
 0.29999995E+01 -0.31966E+05
 0.30499997E+01 -0.32009E+05
 0.30999999E+01 -0.32038E+05
 0.31499996E+01 -0.32056E+05
 0.31999998E+01 -0.32070E+05
 0.32499995E+01 -0.32094E+05
 0.32999997E+01 -0.32122E+05
 0.33499999E+01 -0.32165E+05
 0.33999996E+01 -0.32181E+05
 0.34499998E+01 -0.32195E+05
 0.34999995E+01 -0.32208E+05
 0.35499997E+01 -0.32193E+05
 0.35999994E+01 -0.32168E+05
 0.36499996E+01 -0.32156E+05
 0.36999998E+01 -0.32159E+05
 0.37499995E+01 -0.32175E+05
 0.37999997E+01 -0.32195E+05
 0.38499994E+01 -0.32204E+05
 0.38999996E+01 -0.32225E+05
 0.39499998E+01 -0.32227E+05
 0.39999995E+01 -0.32202E+05
 0.40499997E+01 -0.32173E+05
 0.40999994E+01 -0.32147E+05
 0.41499996E+01 -0.32134E+05
 0.41999998E+01 -0.32097E+05
 0.42499995E+01 -0.32079E+05
 0.42999997E+01 -0.32080E+05
 0.43499994E+01 -0.32102E+05
 0.43999996E+01 -0.32142E+05
 0.44499998E+01 -0.32153E+05
 0.44999995E+01 -0.32173E+05
 0.45499997E+01 -0.32182E+05
 0.45999994E+01 -0.32186E+05
 0.46499996E+01 -0.32203E+05
 0.46999998E+01 -0.32206E+05
 0.47499995E+01 -0.32162E+05
 0.47999997E+01 -0.32143E+05
 0.48499994E+01 -0.32134E+05
 0.48999996E+01 -0.32131E+05
 0.49499998E+01 -0.32151E+05
 0.49999995E+01 -0.32169E+05
 0.50499997E+01 -0.32183E+05
 0.50999994E+01 -0.32175E+05
 0.51499996E+01 -0.32161E+05
 0.51999998E+01 -0.32146E+05
 0.52499995E+01 -0.32146E+05
 0.52999997E+01 -0.32167E+05
 0.53499994E+01 -0.32191E+05
 0.53999996E+01 -0.32175E+05
 0.54499993E+01 -0.32139E+05
 0.54999995E+01 -0.32125E+05
 0.55499997E+01 -0.32133E+05
 0.55999994E+01 -0.32136E+05
 0.56499996E+01 -0.32108E+05
 0.56999993E+01 -0.32078E+05
 0.57499995E+01 -0.32061E+05
 0.57999997E+01 -0.32054E+05
 0.58499994E+01 -0.32048E+05
 0.58999996E+01 -0.32062E+05
 0.59499993E+01 -0.32042E+05
 0.59999995E+01 -0.32019E+05
 0.60499992E+01 -0.31997E+05
 0.60999994E+01 -0.31951E+05
 0.61499996E+01 -0.31916E+05
 0.61999998E+01 -0.31894E+05
 0.62499990E+01 -0.31896E+05
 0.62999992E+01 -0.31902E+05
 0.63499994E+01 -0.31960E+05
 0.63999996E+01 -0.32010E+05
 0.64499998E+01 -0.32068E+05
 0.64999990E+01 -0.32126E+05
 0.65499992E+01 -0.32151E+05
 0.65999994E+01 -0.32183E+05
 0.66499996E+01 -0.32218E+05
 0.66999998E+01 -0.32270E+05
 0.67499990E+01 -0.32290E+05
 0.67999992E+01 -0.32302E+05
 0.68499994E+01 -0.32329E+05
 0.68999996E+01 -0.32346E+05
 0.69499998E+01 -0.32361E+05
 0.69999990E+01 -0.32357E+05
 0.70499992E+01 -0.32354E+05
 0.70999994E+01 -0.32345E+05
 0.71499996E+01 -0.32335E+05
 0.71999998E+01 -0.32334E+05
 0.72499990E+01 -0.32314E+05
 0.72999992E+01 -0.32313E+05
 0.73499994E+01 -0.32282E+05
 0.73999996E+01 -0.32223E+05
 0.74499998E+01 -0.32173E+05
 0.74999990E+01 -0.32137E+05
 0.75499992E+01 -0.32121E+05
 0.75999994E+01 -0.32089E+05
 0.76499996E+01 -0.32063E+05
 0.76999998E+01 -0.32005E+05
 0.77499990E+01 -0.31954E+05
 0.77999992E+01 -0.31906E+05
 0.78499994E+01 -0.31863E+05
 0.78999996E+01 -0.31844E+05
 0.79499998E+01 -0.31845E+05
 0.79999990E+01 -0.31864E+05
 0.80499992E+01 -0.31902E+05
 0.80999994E+01 -0.31950E+05
 0.81499996E+01 -0.31979E+05
 0.81999998E+01 -0.32037E+05
 0.82499990E+01 -0.32107E+05
 0.82999992E+01 -0.32153E+05
 0.83499994E+01 -0.32192E+05
 0.83999996E+01 -0.32242E+05
 0.84499998E+01 -0.32275E+05
 0.84999990E+01 -0.32297E+05
 0.85499992E+01 -0.32311E+05
 0.85999994E+01 -0.32317E+05
 0.86499996E+01 -0.32352E+05
 0.86999998E+01 -0.32387E+05
 0.87499990E+01 -0.32401E+05
 0.87999992E+01 -0.32404E+05
 0.88499994E+01 -0.32384E+05
 0.88999996E+01 -0.32364E+05
 0.89499998E+01 -0.32323E+05
 0.89999990E+01 -0.32280E+05
 0.90499992E+01 -0.32226E+05
 0.90999994E+01 -0.32191E+05
 0.91499996E+01 -0.32155E+05
 0.91999989E+01 -0.32128E+05
 0.92499990E+01 -0.32122E+05
 0.92999992E+01 -0.32109E+05
 0.93499994E+01 -0.32114E+05
 0.93999996E+01 -0.32098E+05
 0.94499989E+01 -0.32091E+05
 0.94999990E+01 -0.32067E+05
 0.95499992E+01 -0.32055E+05
 0.95999994E+01 -0.32037E+05
 0.96499996E+01 -0.32006E+05
 0.96999989E+01 -0.31966E+05
 0.97499990E+01 -0.31913E+05
 0.97999992E+01 -0.31872E+05
 0.98499994E+01 -0.31822E+05
 0.98999996E+01 -0.31806E+05
 0.99499989E+01 -0.31796E+05
 0.99999990E+01 -0.31801E+05
 0.10049999E+02 -0.31833E+05
 0.10099999E+02 -0.31877E+05
 0.10150000E+02 -0.31917E+05
 0.10199999E+02 -0.31973E+05
 0.10249999E+02 -0.32043E+05
 0.10299999E+02 -0.32105E+05
 0.10349999E+02 -0.32141E+05
 0.10400000E+02 -0.32136E+05
 0.10449999E+02 -0.32135E+05
 0.10499999E+02 -0.32124E+05
 0.10549999E+02 -0.32108E+05
 0.10599999E+02 -0.32117E+05
 0.10650000E+02 -0.32088E+05
 0.10699999E+02 -0.32071E+05
 0.10749999E+02 -0.32097E+05
 0.10799999E+02 -0.32132E+05
 0.10849999E+02 -0.32193E+05
 0.10900000E+02 -0.32264E+05
 0.10949999E+02 -0.32330E+05
 0.10999999E+02 -0.32374E+05
 0.11049999E+02 -0.32407E+05
 0.11099999E+02 -0.32444E+05
 0.11150000E+02 -0.32426E+05
 0.11199999E+02 -0.32376E+05
 0.11249999E+02 -0.32331E+05
 0.11299999E+02 -0.32263E+05
 0.11349999E+02 -0.32205E+05
 0.11400000E+02 -0.32165E+05
 0.11449999E+02 -0.32159E+05
 0.11499999E+02 -0.32143E+05
 0.11549999E+02 -0.32110E+05
 0.11599999E+02 -0.32072E+05
 0.11650000E+02 -0.32051E+05
 0.11699999E+02 -0.32025E+05
 0.11749999E+02 -0.32004E+05
 0.11799999E+02 -0.32012E+05
 0.11849999E+02 -0.32044E+05
 0.11900000E+02 -0.32076E+05
 0.11949999E+02 -0.32133E+05
 0.11999999E+02 -0.32203E+05
 0.12049999E+02 -0.32257E+05
 0.12099999E+02 -0.32314E+05
 0.12150000E+02 -0.32320E+05
 0.12199999E+02 -0.32331E+05
 0.12249999E+02 -0.32324E+05
 0.12299999E+02 -0.32320E+05
 0.12349999E+02 -0.32324E+05
 0.12400000E+02 -0.32303E+05
 0.12449999E+02 -0.32282E+05
 0.12499999E+02 -0.32229E+05
 0.12549999E+02 -0.32170E+05
 0.12599999E+02 -0.32120E+05
 0.12649999E+02 -0.32075E+05
 0.12699999E+02 -0.32058E+05
 0.12749999E+02 -0.32039E+05
 0.12799999E+02 -0.32030E+05
 0.12849999E+02 -0.32044E+05
 0.12899999E+02 -0.32067E+05
 0.12949999E+02 -0.32074E+05
 0.12999999E+02 -0.32103E+05
 0.13049999E+02 -0.32137E+05
 0.13099999E+02 -0.32128E+05
 0.13149999E+02 -0.32143E+05
 0.13199999E+02 -0.32148E+05
 0.13249999E+02 -0.32135E+05
 0.13299999E+02 -0.32113E+05
 0.13349999E+02 -0.32086E+05
 0.13399999E+02 -0.32020E+05
 0.13449999E+02 -0.31974E+05
 0.13499999E+02 -0.31926E+05
 0.13549999E+02 -0.31853E+05
 0.13599999E+02 -0.31834E+05
 0.13649999E+02 -0.31819E+05
 0.13699999E+02 -0.31803E+05
 0.13749999E+02 -0.31795E+05
 0.13799999E+02 -0.31810E+05
 0.13849999E+02 -0.31816E+05
 0.13899999E+02 -0.31862E+05
 0.13949999E+02 -0.31909E+05
 0.13999999E+02 -0.31956E+05
 0.14049999E+02 -0.32038E+05
 0.14099998E+02 -0.32086E+05
 0.14150000E+02 -0.32147E+05
 0.14199999E+02 -0.32217E+05
 0.14249998E+02 -0.32264E+05
 0.14299999E+02 -0.32306E+05
 0.14349998E+02 -0.32314E+05
 0.14400000E+02 -0.32313E+05
 0.14449999E+02 -0.32308E+05
 0.14499998E+02 -0.32314E+05
 0.14549999E+02 -0.32324E+05
 0.14599998E+02 -0.32295E+05
 0.14650000E+02 -0.32292E+05
 0.14699999E+02 -0.32298E+05
 0.14749998E+02 -0.32289E+05
 0.14799999E+02 -0.32311E+05
 0.14849998E+02 -0.32345E+05
 0.14900000E+02 -0.32341E+05
 0.14949999E+02 -0.32337E+05
 0.14999998E+02 -0.32335E+05
 0.15049999E+02 -0.32302E+05
 0.15099998E+02 -0.32298E+05
 0.15150000E+02 -0.32299E+05
 0.15199999E+02 -0.32282E+05
 0.15249998E+02 -0.32265E+05
 0.15299999E+02 -0.32246E+05
 0.15349998E+02 -0.32209E+05
 0.15400000E+02 -0.32190E+05
 0.15449999E+02 -0.32175E+05
 0.15499998E+02 -0.32134E+05
 0.15549999E+02 -0.32130E+05
 0.15599998E+02 -0.32131E+05
 0.15650000E+02 -0.32100E+05
 0.15699999E+02 -0.32092E+05
 0.15749998E+02 -0.32072E+05
 0.15799999E+02 -0.32048E+05
 0.15849998E+02 -0.32069E+05
 0.15900000E+02 -0.32075E+05
 0.15949999E+02 -0.32097E+05
 0.15999998E+02 -0.32132E+05
 0.16049999E+02 -0.32148E+05
 0.16099998E+02 -0.32163E+05
 0.16150000E+02 -0.32144E+05
 0.16199999E+02 -0.32110E+05
 0.16249998E+02 -0.32081E+05
 0.16299999E+02 -0.32023E+05
 0.16349998E+02 -0.31992E+05
 0.16400000E+02 -0.31979E+05
 0.16449999E+02 -0.31958E+05
 0.16499998E+02 -0.31952E+05
 0.16549999E+02 -0.31929E+05
 0.16599998E+02 -0.31917E+05
 0.16650000E+02 -0.31910E+05
 0.16699999E+02 -0.31893E+05
 0.16749998E+02 -0.31868E+05
 0.16799999E+02 -0.31862E+05
 0.16849998E+02 -0.31892E+05
 0.16900000E+02 -0.31914E+05
 0.16949999E+02 -0.31969E+05
 0.16999998E+02 -0.31999E+05
 0.17049999E+02 -0.32040E+05
 0.17099998E+02 -0.32105E+05
 0.17150000E+02 -0.32157E+05
 0.17199999E+02 -0.32209E+05
 0.17249998E+02 -0.32240E+05
 0.17299999E+02 -0.32259E+05
 0.17349998E+02 -0.32258E+05
 0.17400000E+02 -0.32264E+05
 0.17449999E+02 -0.32271E+05
 0.17499998E+02 -0.32280E+05
 0.17549999E+02 -0.32286E+05
 0.17599998E+02 -0.32301E+05
 0.17650000E+02 -0.32291E+05
 0.17699999E+02 -0.32278E+05
 0.17749998E+02 -0.32290E+05
 0.17799999E+02 -0.32272E+05
 0.17849998E+02 -0.32256E+05
 0.17900000E+02 -0.32255E+05
 0.17949999E+02 -0.32255E+05
 0.17999998E+02 -0.32250E+05
 0.18049999E+02 -0.32262E+05
 0.18099998E+02 -0.32266E+05
 0.18150000E+02 -0.32265E+05
 0.18199999E+02 -0.32292E+05
 0.18249998E+02 -0.32297E+05
 0.18299999E+02 -0.32308E+05
 0.18349998E+02 -0.32311E+05
 0.18400000E+02 -0.32313E+05
 0.18449999E+02 -0.32310E+05
 0.18499998E+02 -0.32304E+05
 0.18549999E+02 -0.32323E+05
 0.18599998E+02 -0.32313E+05
 0.18650000E+02 -0.32275E+05
 0.18699999E+02 -0.32232E+05
 0.18749998E+02 -0.32198E+05
 0.18799999E+02 -0.32166E+05
 0.18849998E+02 -0.32096E+05
 0.18900000E+02 -0.32045E+05
 0.18949999E+02 -0.32004E+05
 0.18999998E+02 -0.31953E+05
 0.19049999E+02 -0.31928E+05
 0.19099998E+02 -0.31876E+05
 0.19150000E+02 -0.31843E+05
 0.19199999E+02 -0.31820E+05
 0.19249998E+02 -0.31803E+05
 0.19299999E+02 -0.31794E+05
 0.19349998E+02 -0.31784E+05
 0.19400000E+02 -0.31792E+05
 0.19449999E+02 -0.31780E+05
 0.19499998E+02 -0.31791E+05
 0.19549999E+02 -0.31802E+05
 0.19599998E+02 -0.31802E+05
 0.19650000E+02 -0.31828E+05
 0.19699999E+02 -0.31901E+05
 0.19749998E+02 -0.31959E+05
 0.19799999E+02 -0.32020E+05
 0.19849998E+02 -0.32082E+05
 0.19900000E+02 -0.32118E+05
 0.19949999E+02 -0.32175E+05
 0.19999998E+02 -0.32231E+05
 0.20049999E+02 -0.32258E+05
 0.20099998E+02 -0.32307E+05
 0.20150000E+02 -0.32353E+05
 0.20199999E+02 -0.32369E+05
 0.20249998E+02 -0.32376E+05
 0.20299999E+02 -0.32373E+05
 0.20349998E+02 -0.32377E+05
 0.20399998E+02 -0.32375E+05
 0.20449999E+02 -0.32355E+05
 0.20499998E+02 -0.32304E+05
 0.20549999E+02 -0.32247E+05
 0.20599998E+02 -0.32205E+05
 0.20649998E+02 -0.32160E+05
 0.20699999E+02 -0.32122E+05
 0.20749998E+02 -0.32090E+05
 0.20799999E+02 -0.32042E+05
 0.20849998E+02 -0.31999E+05
 0.20899998E+02 -0.31981E+05
 0.20949999E+02 -0.31991E+05
 0.20999998E+02 -0.32011E+05
 0.21049999E+02 -0.32058E+05
 0.21099998E+02 -0.32111E+05
 0.21149998E+02 -0.32155E+05
 0.21199999E+02 -0.32207E+05
 0.21249998E+02 -0.32267E+05
 0.21299999E+02 -0.32353E+05
 0.21349998E+02 -0.32371E+05
 0.21399998E+02 -0.32369E+05
 0.21449999E+02 -0.32374E+05
 0.21499998E+02 -0.32398E+05
 0.21549999E+02 -0.32362E+05
 0.21599998E+02 -0.32372E+05
 0.21649998E+02 -0.32295E+05
 0.21699999E+02 -0.32359E+05
 0.21749998E+02 -0.32174E+05
 0.21799999E+02 -0.32042E+05
 0.21849998E+02 -0.32336E+05
 0.21899998E+02 -0.31927E+05
 0.21949999E+02 -0.32044E+05
 0.21999998E+02 -0.32073E+05
 0.22049999E+02 -0.32059E+05
 0.22099998E+02 -0.32027E+05
 0.22149998E+02 -0.31960E+05
 0.22199999E+02 -0.32090E+05
 0.22249998E+02 -0.32217E+05
 0.22299999E+02 -0.32218E+05
 0.22349998E+02 -0.31879E+05
 0.22399998E+02 -0.32610E+05
 0.22449999E+02 -0.31912E+05
 0.22499998E+02 -0.31871E+05
 0.22549999E+02 -0.31976E+05
 0.22599998E+02 -0.31964E+05
 0.22649998E+02 -0.32021E+05
 0.22699999E+02 -0.31826E+05
 0.22749998E+02 -0.32211E+05
 0.22799999E+02 -0.31415E+05
 0.22849998E+02 -0.32181E+05
 0.22899998E+02 -0.31914E+05
 0.22949999E+02 -0.31542E+05
 0.22999998E+02 -0.32046E+05
 0.23049999E+02 -0.31471E+05
 0.23099998E+02 -0.31899E+05
 0.23149998E+02 -0.31748E+05
 0.23199999E+02 -0.30914E+05
 0.23249998E+02 -0.32968E+05
 0.23299999E+02 -0.31695E+05
 0.23349998E+02 -0.31821E+05
 0.23399998E+02 -0.32823E+05
 0.23449999E+02 -0.32020E+05
 0.23499998E+02 -0.32600E+05
 0.23549999E+02 -0.30589E+05
 0.23599998E+02 -0.33067E+05
 0.23649998E+02 -0.33004E+05
 0.23699999E+02 -0.31519E+05
 0.23749998E+02 -0.33050E+05
 0.23799999E+02 -0.32712E+05
 0.23849998E+02 -0.31938E+05
 0.23899998E+02 -0.32250E+05
 0.23949999E+02 -0.33670E+05
 0.23999998E+02 -0.33250E+05
 0.24049999E+02 -0.31795E+05
 0.24099998E+02 -0.31676E+05
 0.24149998E+02 -0.31787E+05
 0.24199999E+02 -0.33037E+05
 0.24249998E+02 -0.33131E+05
 0.24299999E+02 -0.31346E+05
 0.24349998E+02 -0.34311E+05
 0.24399998E+02 -0.31832E+05
 0.24449999E+02 -0.32044E+05
 0.24499998E+02 -0.34041E+05
 0.24549999E+02 -0.31500E+05
 0.24599998E+02 -0.31601E+05
 0.24649998E+02 -0.30911E+05
 0.24699999E+02 -0.33210E+05
 0.24749998E+02 -0.31766E+05
 0.24799999E+02 -0.30728E+05
 0.24849998E+02 -0.31576E+05
 0.24899998E+02 -0.32730E+05
 0.24949999E+02 -0.31594E+05
 0.24999998E+02 -0.31727E+05
 0.25049999E+02 -0.32538E+05
 0.25099998E+02 -0.31917E+05
 0.25149998E+02 -0.30709E+05
 0.25199999E+02 -0.29524E+05
 0.25249998E+02 -0.34361E+05
 0.25299999E+02 -0.32281E+05
 0.25349998E+02 -0.30180E+05
 0.25399998E+02 -0.34440E+05
 0.25449999E+02 -0.33138E+05
 0.25499998E+02 -0.31933E+05
 0.25549999E+02 -0.32243E+05
 0.25599998E+02 -0.32504E+05
 0.25649998E+02 -0.31027E+05
 0.25699999E+02 -0.30065E+05
 0.25749998E+02 -0.35147E+05
 0.25799999E+02 -0.33144E+05
 0.25849998E+02 -0.31741E+05
 0.25899998E+02 -0.31781E+05
 0.25949999E+02 -0.30657E+05
 0.25999998E+02 -0.33559E+05
 0.26049999E+02 -0.33067E+05
 0.26099998E+02 -0.34419E+05
 0.26149998E+02 -0.32793E+05
 0.26199999E+02 -0.28916E+05
 0.26249998E+02 -0.32448E+05
 0.26299999E+02 -0.32674E+05
 0.26349998E+02 -0.33095E+05
 0.26399998E+02 -0.32935E+05
 0.26449999E+02 -0.34083E+05
 0.26499998E+02 -0.32172E+05
 0.26549999E+02 -0.28991E+05
 0.26599998E+02 -0.32812E+05
 0.26649998E+02 -0.30806E+05
 0.26699999E+02 -0.30412E+05
 0.26749998E+02 -0.30839E+05
 0.26799999E+02 -0.31841E+05
 0.26849998E+02 -0.31668E+05
 0.26899998E+02 -0.29796E+05
 0.26949999E+02 -0.29814E+05
 0.26999998E+02 -0.33048E+05
 0.27049997E+02 -0.35096E+05
 0.27099998E+02 -0.34556E+05
 0.27149998E+02 -0.32724E+05
 0.27199999E+02 -0.28890E+05
 0.27249998E+02 -0.30389E+05
 0.27299997E+02 -0.36513E+05
 0.27349998E+02 -0.34399E+05
 0.27399998E+02 -0.29414E+05
 0.27449999E+02 -0.29421E+05
 0.27499998E+02 -0.30434E+05
 0.27549997E+02 -0.33574E+05
 0.27599998E+02 -0.31560E+05
 0.27649998E+02 -0.33447E+05
 0.27699999E+02 -0.34751E+05
 0.27749998E+02 -0.31797E+05
 0.27799997E+02 -0.31242E+05
 0.27849998E+02 -0.36092E+05
 0.27899998E+02 -0.31731E+05
 0.27949999E+02 -0.28169E+05
 0.27999998E+02 -0.32862E+05
 0.28049997E+02 -0.33563E+05
 0.28099998E+02 -0.35546E+05
 0.28149998E+02 -0.31737E+05
 0.28199999E+02 -0.33697E+05
 0.28249998E+02 -0.31973E+05
 0.28299997E+02 -0.30432E+05
 0.28349998E+02 -0.31288E+05
 0.28399998E+02 -0.30365E+05
 0.28449999E+02 -0.32567E+05
 0.28499998E+02 -0.29553E+05
 0.28549997E+02 -0.30979E+05
 0.28599998E+02 -0.32665E+05
 0.28649998E+02 -0.32616E+05
 0.28699999E+02 -0.32716E+05
 0.28749998E+02 -0.33899E+05
 0.28799997E+02 -0.32311E+05
 0.28849998E+02 -0.32186E+05
 0.28899998E+02 -0.34269E+05
 0.28949999E+02 -0.30581E+05
 0.28999998E+02 -0.27922E+05
 0.29049997E+02 -0.29643E+05
 0.29099998E+02 -0.33567E+05
 0.29149998E+02 -0.34786E+05
 0.29199999E+02 -0.34298E+05
 0.29249998E+02 -0.34022E+05
 0.29299997E+02 -0.33792E+05
 0.29349998E+02 -0.35395E+05
 0.29399998E+02 -0.32161E+05
 0.29449999E+02 -0.30952E+05
 0.29499998E+02 -0.33250E+05
 0.29549997E+02 -0.29641E+05
 0.29599998E+02 -0.29465E+05
 0.29649998E+02 -0.29703E+05
 0.29699999E+02 -0.30808E+05
 0.29749998E+02 -0.29611E+05
 0.29799997E+02 -0.31278E+05
 0.29849998E+02 -0.35363E+05
 0.29899998E+02 -0.31850E+05
 0.29949999E+02 -0.34433E+05
 0.29999998E+02 -0.33735E+05
 0.30049999E+02 -0.31716E+05
 0.30099998E+02 -0.34334E+05
 0.30149998E+02 -0.35030E+05
 0.30199997E+02 -0.32511E+05
 0.30249996E+02 -0.29305E+05
 0.30299999E+02 -0.28543E+05
 0.30349998E+02 -0.30104E+05
 0.30399998E+02 -0.32638E+05
 0.30449997E+02 -0.31250E+05
 0.30499996E+02 -0.33952E+05
 0.30549999E+02 -0.31421E+05
 0.30599998E+02 -0.30984E+05
 0.30649998E+02 -0.31333E+05
 0.30699997E+02 -0.30737E+05
 0.30749996E+02 -0.38658E+05
 0.30799999E+02 -0.33821E+05
 0.30849998E+02 -0.30322E+05
 0.30899998E+02 -0.31981E+05
 0.30949997E+02 -0.29757E+05
 0.30999996E+02 -0.30390E+05
 0.31049999E+02 -0.27608E+05
 0.31099998E+02 -0.31393E+05
 0.31149998E+02 -0.33926E+05
 0.31199997E+02 -0.32396E+05
 0.31249996E+02 -0.33107E+05
 0.31299999E+02 -0.32014E+05
 0.31349998E+02 -0.35461E+05
 0.31399998E+02 -0.30364E+05
 0.31449997E+02 -0.31495E+05
 0.31499996E+02 -0.36009E+05
 0.31549999E+02 -0.32921E+05
 0.31599998E+02 -0.30308E+05
 0.31649998E+02 -0.28674E+05
 0.31699997E+02 -0.32831E+05
 0.31749996E+02 -0.35819E+05
 0.31799999E+02 -0.31350E+05
 0.31849998E+02 -0.27890E+05
 0.31899998E+02 -0.32036E+05
 0.31949997E+02 -0.33348E+05
 0.31999996E+02 -0.33222E+05
 0.32049999E+02 -0.36823E+05
 0.32099998E+02 -0.36870E+05
 0.32149998E+02 -0.31958E+05
 0.32199997E+02 -0.32670E+05
 0.32249996E+02 -0.29671E+05
 0.32299999E+02 -0.26926E+05
 0.32349998E+02 -0.30021E+05
 0.32399998E+02 -0.33102E+05
 0.32449997E+02 -0.32522E+05
 0.32499996E+02 -0.29790E+05
 0.32549999E+02 -0.29596E+05
 0.32599998E+02 -0.28706E+05
 0.32649998E+02 -0.33271E+05
 0.32699997E+02 -0.31841E+05
 0.32749996E+02 -0.32201E+05
 0.32799999E+02 -0.37911E+05
 0.32849998E+02 -0.40040E+05
 0.32899998E+02 -0.38327E+05
 0.32949997E+02 -0.33886E+05
 0.32999996E+02 -0.36080E+05
 0.33049999E+02 -0.29367E+05
 0.33099998E+02 -0.23650E+05
 0.33149998E+02 -0.25841E+05
 0.33199997E+02 -0.26571E+05
 0.33249996E+02 -0.34708E+05
 0.33299999E+02 -0.32314E+05
 0.33349998E+02 -0.29250E+05
 0.33399998E+02 -0.36933E+05
 0.33449997E+02 -0.38050E+05
 0.33499996E+02 -0.37819E+05
 0.33549999E+02 -0.36877E+05
 0.33599998E+02 -0.30345E+05
 0.33649998E+02 -0.29566E+05
 0.33699997E+02 -0.28827E+05
 0.33749996E+02 -0.25563E+05
 0.33799999E+02 -0.28233E+05
 0.33849998E+02 -0.33024E+05
 0.33899998E+02 -0.32138E+05
 0.33949997E+02 -0.27663E+05
 0.33999996E+02 -0.30984E+05
 0.34049999E+02 -0.31161E+05
 0.34099998E+02 -0.30731E+05
 0.34149998E+02 -0.31818E+05
 0.34199997E+02 -0.36103E+05
 0.34249996E+02 -0.37075E+05
 0.34299999E+02 -0.35783E+05
 0.34349998E+02 -0.31899E+05
 0.34399998E+02 -0.28080E+05
 0.34449997E+02 -0.34630E+05
 0.34499996E+02 -0.33507E+05
 0.34549999E+02 -0.33964E+05
 0.34599998E+02 -0.32879E+05
 0.34649998E+02 -0.35655E+05
 0.34699997E+02 -0.33074E+05
 0.34749996E+02 -0.27913E+05
 0.34799999E+02 -0.29399E+05
 0.34849998E+02 -0.26603E+05
 0.34899998E+02 -0.31665E+05
 0.34949997E+02 -0.31951E+05
 0.34999996E+02 -0.31270E+05
 0.35049999E+02 -0.34994E+05
 0.35099998E+02 -0.32246E+05
 0.35149998E+02 -0.31058E+05
 0.35199997E+02 -0.40730E+05
 0.35249996E+02 -0.34327E+05
 0.35299999E+02 -0.24905E+05
 0.35349998E+02 -0.25427E+05
 0.35399998E+02 -0.25418E+05
 0.35449997E+02 -0.31482E+05
 0.35499996E+02 -0.35685E+05
 0.35549999E+02 -0.37965E+05
 0.35599998E+02 -0.33397E+05
 0.35649998E+02 -0.31696E+05
 0.35699997E+02 -0.33653E+05
 0.35749996E+02 -0.35273E+05
 0.35799999E+02 -0.39446E+05
 0.35849998E+02 -0.35523E+05
 0.35899998E+02 -0.28048E+05
 0.35949997E+02 -0.26824E+05
 0.35999996E+02 -0.28549E+05
 0.36049999E+02 -0.28834E+05
 0.36099998E+02 -0.29862E+05
 0.36149998E+02 -0.27379E+05
 0.36199997E+02 -0.27258E+05
 0.36249996E+02 -0.28228E+05
 0.36299999E+02 -0.34258E+05
 0.36349998E+02 -0.35811E+05
 0.36399998E+02 -0.30982E+05
 0.36449997E+02 -0.34398E+05
 0.36499996E+02 -0.26804E+05
 0.36549999E+02 -0.32213E+05
 0.36599998E+02 -0.36052E+05
 0.36649998E+02 -0.29937E+05
 0.36699997E+02 -0.41456E+05
 0.36749996E+02 -0.47703E+05
 0.36799999E+02 -0.39126E+05
 0.36849998E+02 -0.19056E+05
 0.36899998E+02 -0.32448E+05
 0.36949997E+02 -0.72300E+05
 0.36999996E+02 -0.46791E+05
 0.37049999E+02  0.95751E+04
 0.37099998E+02 -0.22402E+04
 0.37149998E+02 -0.58067E+05
 0.37199997E+02 -0.65334E+05
 0.37249996E+02 -0.73922E+04
 0.37299999E+02  0.25879E+05
 0.37349998E+02 -0.25628E+05
 0.37399998E+02 -0.56850E+05
 0.37449997E+02 -0.33922E+05
 0.37499996E+02 -0.26059E+05
 0.37549999E+02 -0.18912E+05
 0.37599998E+02 -0.47218E+05
 0.37649998E+02 -0.58307E+05
 0.37699997E+02 -0.27931E+05
 0.37749996E+02 -0.37144E+05
 0.37799999E+02 -0.58960E+05
 0.37849998E+02 -0.48687E+05
 0.37899998E+02 -0.18759E+05
 0.37949997E+02 -0.92721E+04
 0.37999996E+02 -0.42083E+05
 0.38049999E+02 -0.59867E+05
 0.38099998E+02 -0.27980E+05
 0.38149998E+02 -0.13579E+05
 0.38199997E+02 -0.10085E+04
 0.38249996E+02 -0.45347E+04
 0.38299999E+02 -0.25925E+05
 0.38349998E+02 -0.23762E+05
 0.38399998E+02 -0.37847E+05
 0.38449997E+02 -0.61561E+05
 0.38499996E+02 -0.53002E+05
 0.38549999E+02 -0.42963E+05
 0.38599998E+02 -0.43361E+05
 0.38649998E+02 -0.26665E+05
 0.38699997E+02 -0.25804E+05
 0.38749996E+02 -0.27436E+05
 0.38799999E+02 -0.32908E+05
 0.38849998E+02 -0.36173E+05
 0.38899998E+02 -0.21997E+05
 0.38949997E+02 -0.24678E+05
 0.38999996E+02 -0.32210E+05
 0.39049999E+02 -0.28723E+05
 0.39099998E+02 -0.21837E+05
 0.39149998E+02 -0.30562E+05
 0.39199997E+02 -0.50074E+05
 0.39249996E+02 -0.54794E+05
 0.39299999E+02 -0.41165E+05
 0.39349998E+02 -0.24953E+05
 0.39399998E+02 -0.24089E+05
 0.39449997E+02 -0.25859E+05
 0.39499996E+02 -0.24448E+05
 0.39549999E+02 -0.31371E+05
 0.39599998E+02 -0.34607E+05
 0.39649998E+02 -0.31969E+05
 0.39699997E+02 -0.34089E+05
 0.39749996E+02 -0.27921E+05
 0.39799999E+02 -0.25508E+05
 0.39849998E+02 -0.33444E+05
 0.39899998E+02 -0.38666E+05
 0.39949997E+02 -0.23453E+05
 0.39999996E+02 -0.21762E+05
 0.40049999E+02 -0.36728E+05
 0.40099998E+02 -0.42900E+05
 0.40149998E+02 -0.42526E+05
 0.40199997E+02 -0.26898E+05
 0.40249996E+02 -0.22252E+05
 0.40299999E+02 -0.15068E+05
 0.40349998E+02 -0.32912E+05
 0.40399998E+02 -0.33691E+05
 0.40449997E+02 -0.22387E+05
 0.40499996E+02 -0.27358E+05
 0.40549999E+02 -0.25373E+05
 0.40599998E+02 -0.40638E+05
 0.40649998E+02 -0.39789E+05
 0.40699997E+02 -0.42059E+05
 0.40749996E+02 -0.41611E+05
 0.40799999E+02 -0.27028E+05
 0.40849998E+02 -0.24010E+05
 0.40899998E+02 -0.28196E+05
 0.40949997E+02 -0.37451E+05
 0.40999996E+02 -0.37749E+05
 0.41049999E+02 -0.23725E+05
 0.41099998E+02 -0.26490E+05
 0.41149998E+02 -0.46894E+05
 0.41199997E+02 -0.54968E+05
 0.41249996E+02 -0.41792E+05
 0.41299999E+02 -0.28492E+05
 0.41349998E+02 -0.37929E+05
 0.41399998E+02 -0.24197E+05
 0.41449997E+02 -0.22944E+04
 0.41499996E+02 -0.22000E+05
 0.41549999E+02 -0.30438E+05
 0.41599998E+02 -0.42897E+05
 0.41649998E+02 -0.38271E+05
 0.41699997E+02 -0.27830E+05
 0.41749996E+02 -0.19890E+05
 0.41799999E+02 -0.19709E+05
 0.41849998E+02 -0.36925E+05
 0.41899998E+02 -0.31049E+05
 0.41949997E+02 -0.38369E+05
 0.41999996E+02 -0.48547E+05
 0.42049999E+02 -0.45355E+05
 0.42099998E+02 -0.24403E+05
 0.42149998E+02 -0.30828E+05
 0.42199997E+02 -0.49819E+05
 0.42249996E+02 -0.39262E+05
 0.42299999E+02 -0.22680E+05
 0.42349998E+02 -0.17550E+05
 0.42399998E+02 -0.29773E+05
 0.42449997E+02 -0.37417E+05
 0.42499996E+02 -0.31947E+05
 0.42549999E+02 -0.34825E+05
 0.42599998E+02 -0.34885E+05
 0.42649998E+02 -0.19930E+05
 0.42699997E+02 -0.23208E+05
 0.42749996E+02 -0.21276E+05
 0.42799995E+02 -0.30806E+05
 0.42849998E+02 -0.49108E+05
 0.42899998E+02 -0.47968E+05
 0.42949997E+02 -0.49827E+05
 0.42999996E+02 -0.39167E+05
 0.43049995E+02 -0.40874E+05
 0.43099998E+02 -0.50266E+05
 0.43149998E+02 -0.44105E+05
 0.43199997E+02 -0.16209E+05
 0.43249996E+02 -0.11926E+05
 0.43299995E+02 -0.32083E+05
 0.43349998E+02 -0.43466E+05
 0.43399998E+02 -0.53178E+05
 0.43449997E+02 -0.50556E+05
 0.43499996E+02 -0.46931E+05
 0.43549995E+02 -0.32178E+05
 0.43599998E+02 -0.13023E+04
 0.43649998E+02  0.23463E+05
 0.43699997E+02  0.80353E+04
 0.43749996E+02 -0.96688E+04
 0.43799995E+02 -0.24533E+05
 0.43849998E+02 -0.36964E+05
 0.43899998E+02 -0.28473E+05
 0.43949997E+02 -0.38104E+05
 0.43999996E+02 -0.48745E+05
 0.44049995E+02 -0.52359E+05
 0.44099998E+02 -0.48481E+05
 0.44149998E+02 -0.43524E+05
 0.44199997E+02 -0.33068E+05
 0.44249996E+02 -0.29539E+05
 0.44299995E+02 -0.29091E+05
 0.44349998E+02 -0.17576E+05
 0.44399998E+02 -0.20574E+05
 0.44449997E+02 -0.21950E+05
 0.44499996E+02 -0.34988E+05
 0.44549995E+02 -0.43338E+05
 0.44599998E+02 -0.50606E+05
 0.44649998E+02 -0.46398E+05
 0.44699997E+02 -0.20583E+05
 0.44749996E+02  0.74380E+03
 0.44799995E+02  0.44862E+04
 0.44849998E+02 -0.19472E+05
 0.44899998E+02 -0.44858E+05
 0.44949997E+02 -0.53684E+05
 0.44999996E+02 -0.44299E+05
 0.45049995E+02 -0.29632E+05
 0.45099998E+02 -0.18787E+05
 0.45149998E+02 -0.39879E+05
 0.45199997E+02 -0.55931E+05
 0.45249996E+02 -0.56074E+05
 0.45299995E+02 -0.53191E+05
 0.45349998E+02 -0.43332E+05
 0.45399998E+02 -0.34336E+05
 0.45449997E+02 -0.21944E+05
 0.45499996E+02 -0.99842E+04
 0.45549995E+02 -0.72949E+04
 0.45599998E+02 -0.18332E+05
 0.45649998E+02 -0.22993E+05
 0.45699997E+02 -0.36609E+05
 0.45749996E+02 -0.36329E+05
 0.45799995E+02 -0.19952E+05
 0.45849998E+02 -0.23367E+05
 0.45899998E+02 -0.37327E+05
 0.45949997E+02 -0.47471E+05
 0.45999996E+02 -0.41919E+05
 0.46049995E+02 -0.32614E+05
 0.46099998E+02 -0.35899E+05
 0.46149998E+02 -0.48691E+05
 0.46199997E+02 -0.47857E+05
 0.46249996E+02 -0.28111E+05
 0.46299995E+02 -0.15948E+05
 0.46349998E+02 -0.23916E+05
 0.46399998E+02 -0.32089E+05
 0.46449997E+02 -0.36000E+05
 0.46499996E+02 -0.37184E+05
 0.46549995E+02 -0.37360E+05
 0.46599998E+02 -0.41070E+05
 0.46649998E+02 -0.32866E+05
 0.46699997E+02 -0.23833E+05
 0.46749996E+02 -0.28949E+05
 0.46799995E+02 -0.37793E+05
 0.46849998E+02 -0.36722E+05
 0.46899998E+02 -0.41009E+05
 0.46949997E+02 -0.45857E+05
 0.46999996E+02 -0.43444E+05
 0.47049995E+02 -0.36285E+05
 0.47099998E+02 -0.25165E+05
 0.47149998E+02 -0.29138E+05
 0.47199997E+02 -0.26008E+05
 0.47249996E+02 -0.18129E+05
 0.47299995E+02 -0.25631E+05
 0.47349998E+02 -0.35189E+05
 0.47399998E+02 -0.27911E+05
 0.47449997E+02 -0.80956E+04
 0.47499996E+02 -0.11637E+05
 0.47549995E+02 -0.26265E+05
 0.47599998E+02 -0.31585E+05
 0.47649998E+02 -0.34614E+05
 0.47699997E+02 -0.35833E+05
 0.47749996E+02 -0.46946E+05
 0.47799995E+02 -0.48221E+05
 0.47849998E+02 -0.33542E+05
 0.47899998E+02 -0.32258E+05
 0.47949997E+02 -0.36846E+05
 0.47999996E+02 -0.44693E+05
 0.48049995E+02 -0.48460E+05
 0.48099998E+02 -0.38673E+05
 0.48149998E+02 -0.20566E+05
 0.48199997E+02 -0.25918E+03
 0.48249996E+02 -0.32245E+04
 0.48299995E+02 -0.17130E+05
 0.48349998E+02 -0.30791E+05
 0.48399998E+02 -0.38392E+05
 0.48449997E+02 -0.41923E+05
 0.48499996E+02 -0.47562E+05
 0.48549995E+02 -0.38135E+05
 0.48599998E+02 -0.36038E+05
 0.48649998E+02 -0.34827E+05
 0.48699997E+02 -0.39588E+05
 0.48749996E+02 -0.48297E+05
 0.48799995E+02 -0.44036E+05
 0.48849998E+02 -0.43210E+05
 0.48899998E+02 -0.35745E+05
 0.48949997E+02 -0.22547E+05
 0.48999996E+02 -0.13433E+05
 0.49049995E+02 -0.11530E+05
 0.49099998E+02 -0.11285E+05
 0.49149998E+02 -0.12355E+05
 0.49199997E+02 -0.22711E+05
 0.49249996E+02 -0.30395E+05
 0.49299995E+02 -0.40985E+05
 0.49349998E+02 -0.48954E+05
 0.49399998E+02 -0.45002E+05
 0.49449997E+02 -0.37622E+05
 0.49499996E+02 -0.34435E+05
 0.49549995E+02 -0.34019E+05
 0.49599998E+02 -0.24521E+05
 0.49649998E+02 -0.18351E+05
 0.49699997E+02 -0.17637E+05
 0.49749996E+02 -0.20563E+05
 0.49799995E+02 -0.24768E+05
 0.49849998E+02 -0.27252E+05
 0.49899998E+02 -0.36013E+05
 0.49949997E+02 -0.45411E+05
 0.49999996E+02 -0.46910E+05
 0.50049995E+02 -0.43742E+05
 0.50099998E+02 -0.43501E+05
 0.50149998E+02 -0.44399E+05
 0.50199997E+02 -0.44794E+05
 0.50249996E+02 -0.46871E+05
 0.50299995E+02 -0.51734E+05
 0.50349998E+02 -0.43592E+05
 0.50399998E+02 -0.28906E+05
 0.50449997E+02 -0.28222E+05
 0.50499996E+02 -0.33660E+05
 0.50549995E+02 -0.39900E+05
 0.50599998E+02 -0.41654E+05
 0.50649998E+02 -0.38118E+05
 0.50699997E+02 -0.30880E+05
 0.50749996E+02 -0.24939E+05
 0.50799995E+02 -0.23971E+05
 0.50849998E+02 -0.22225E+05
 0.50899998E+02 -0.22043E+05
 0.50949997E+02 -0.23253E+05
 0.50999996E+02 -0.15358E+05
 0.51049995E+02 -0.91679E+04
 0.51099998E+02 -0.12114E+05
 0.51149998E+02 -0.21607E+05
 0.51199997E+02 -0.34019E+05
 0.51249996E+02 -0.38252E+05
 0.51299995E+02 -0.35739E+05
 0.51349998E+02 -0.33099E+05
 0.51399998E+02 -0.40500E+05
 0.51449997E+02 -0.50203E+05
 0.51499996E+02 -0.50363E+05
 0.51549995E+02 -0.48015E+05
 0.51599998E+02 -0.41096E+05
 0.51649998E+02 -0.30388E+05
 0.51699997E+02 -0.33016E+05
 0.51749996E+02 -0.38427E+05
 0.51799995E+02 -0.33487E+05
 0.51849998E+02 -0.28192E+05
 0.51899998E+02 -0.27206E+05
 0.51949997E+02 -0.22545E+05
 0.51999996E+02 -0.19332E+05
 0.52049995E+02 -0.28399E+05
 0.52099998E+02 -0.36421E+05
 0.52149998E+02 -0.35746E+05
 0.52199997E+02 -0.33866E+05
 0.52249996E+02 -0.33856E+05
 0.52299995E+02 -0.31000E+05
 0.52349998E+02 -0.27812E+05
 0.52399998E+02 -0.21071E+05
 0.52449997E+02 -0.19697E+05
 0.52499996E+02 -0.26897E+05
 0.52549995E+02 -0.26719E+05
 0.52599998E+02 -0.23889E+05
 0.52649998E+02 -0.20884E+05
 0.52699997E+02 -0.16904E+05
 0.52749996E+02 -0.17445E+05
 0.52799995E+02 -0.26471E+05
 0.52849998E+02 -0.34848E+05
 0.52899998E+02 -0.36434E+05
 0.52949997E+02 -0.45238E+05
 0.52999996E+02 -0.50613E+05
 0.53049995E+02 -0.44788E+05
 0.53099998E+02 -0.39307E+05
 0.53149998E+02 -0.40983E+05
 0.53199997E+02 -0.41854E+05
 0.53249996E+02 -0.42224E+05
 0.53299995E+02 -0.41542E+05
 0.53349998E+02 -0.31454E+05
 0.53399998E+02 -0.24542E+05
 0.53449997E+02 -0.17730E+05
 0.53499996E+02 -0.11865E+05
 0.53549995E+02 -0.16383E+05
 0.53599998E+02 -0.32701E+05
 0.53649998E+02 -0.36723E+05
 0.53699997E+02 -0.31803E+05
 0.53749996E+02 -0.33034E+05
 0.53799995E+02 -0.23910E+05
 0.53849998E+02 -0.19081E+05
 0.53899998E+02 -0.20887E+05
 0.53949997E+02 -0.29290E+05
 0.53999996E+02 -0.47078E+05
 0.54049995E+02 -0.60087E+05
 0.54099998E+02 -0.62811E+05
 0.54149998E+02 -0.51482E+05
 0.54199997E+02 -0.35710E+05
 0.54249996E+02 -0.24494E+05
 0.54299995E+02 -0.22066E+05
 0.54349998E+02 -0.25578E+05
 0.54399998E+02 -0.30400E+05
 0.54449997E+02 -0.30662E+05
 0.54499996E+02 -0.27424E+05
 0.54549995E+02 -0.25152E+05
 0.54599998E+02 -0.24678E+05
 0.54649998E+02 -0.30024E+05
 0.54699997E+02 -0.34345E+05
 0.54749996E+02 -0.34169E+05
 0.54799995E+02 -0.34775E+05
 0.54849998E+02 -0.39507E+05
 0.54899998E+02 -0.45750E+05
 0.54949997E+02 -0.47319E+05
 0.54999996E+02 -0.38741E+05
 0.55049995E+02 -0.29611E+05
 0.55099998E+02 -0.22907E+05
 0.55149998E+02 -0.25987E+05
 0.55199997E+02 -0.30400E+05
 0.55249996E+02 -0.26473E+05
 0.55299995E+02 -0.21977E+05
 0.55349998E+02 -0.18384E+05
 0.55399998E+02 -0.20295E+05
 0.55449997E+02 -0.22001E+05
 0.55499996E+02 -0.25738E+05
 0.55549995E+02 -0.34126E+05
 0.55599998E+02 -0.39576E+05
 0.55649998E+02 -0.34834E+05
 0.55699997E+02 -0.27114E+05
 0.55749996E+02 -0.24693E+05
 0.55799995E+02 -0.23697E+05
 0.55849995E+02 -0.25962E+05
 0.55899998E+02 -0.31457E+05
 0.55949997E+02 -0.40141E+05
 0.55999996E+02 -0.50089E+05
 0.56049995E+02 -0.55151E+05
 0.56099995E+02 -0.55152E+05
 0.56149998E+02 -0.48251E+05
 0.56199997E+02 -0.39569E+05
 0.56249996E+02 -0.34744E+05
 0.56299995E+02 -0.29654E+05
 0.56349995E+02 -0.26665E+05
 0.56399998E+02 -0.26715E+05
 0.56449997E+02 -0.24874E+05
 0.56499996E+02 -0.21161E+05
 0.56549995E+02 -0.21891E+05
 0.56599995E+02 -0.25233E+05
 0.56649998E+02 -0.29198E+05
 0.56699997E+02 -0.37089E+05
 0.56749996E+02 -0.43268E+05
 0.56799995E+02 -0.43569E+05
 0.56849995E+02 -0.41312E+05
 0.56899998E+02 -0.38955E+05
 0.56949997E+02 -0.31144E+05
 0.56999996E+02 -0.22029E+05
 0.57049995E+02 -0.15685E+05
 0.57099995E+02 -0.12945E+05
 0.57149998E+02 -0.10617E+05
 0.57199997E+02 -0.86055E+04
 0.57249996E+02 -0.11607E+05
 0.57299995E+02 -0.18884E+05
 0.57349995E+02 -0.30827E+05
 0.57399998E+02 -0.39712E+05
 0.57449997E+02 -0.42588E+05
 0.57499996E+02 -0.42589E+05
 0.57549995E+02 -0.39692E+05
 0.57599995E+02 -0.37590E+05
 0.57649998E+02 -0.38350E+05
 0.57699997E+02 -0.37488E+05
 0.57749996E+02 -0.36995E+05
 0.57799995E+02 -0.39361E+05
 0.57849995E+02 -0.42379E+05
 0.57899998E+02 -0.39155E+05
 0.57949997E+02 -0.35205E+05
 0.57999996E+02 -0.40055E+05
 0.58049995E+02 -0.47524E+05
 0.58099995E+02 -0.51048E+05
 0.58149998E+02 -0.45932E+05
 0.58199997E+02 -0.36590E+05
 0.58249996E+02 -0.32666E+05
 0.58299995E+02 -0.30240E+05
 0.58349995E+02 -0.25698E+05
 0.58399998E+02 -0.20475E+05
 0.58449997E+02 -0.19601E+05
 0.58499996E+02 -0.24957E+05
 0.58549995E+02 -0.29340E+05
 0.58599995E+02 -0.29163E+05
 0.58649998E+02 -0.32022E+05
 0.58699997E+02 -0.39204E+05
 0.58749996E+02 -0.40687E+05
 0.58799995E+02 -0.41355E+05
 0.58849995E+02 -0.40798E+05
 0.58899998E+02 -0.39220E+05
 0.58949997E+02 -0.37641E+05
 0.58999996E+02 -0.33429E+05
 0.59049995E+02 -0.27487E+05
 0.59099995E+02 -0.24169E+05
 0.59149998E+02 -0.23542E+05
 0.59199997E+02 -0.26398E+05
 0.59249996E+02 -0.30674E+05
 0.59299995E+02 -0.30289E+05
 0.59349995E+02 -0.28393E+05
 0.59399998E+02 -0.27277E+05
 0.59449997E+02 -0.30622E+05
 0.59499996E+02 -0.31067E+05
 0.59549995E+02 -0.25784E+05
 0.59599995E+02 -0.21633E+05
 0.59649998E+02 -0.20671E+05
 0.59699997E+02 -0.22400E+05
 0.59749996E+02 -0.27967E+05
 0.59799995E+02 -0.32021E+05
 0.59849995E+02 -0.35011E+05
 0.59899998E+02 -0.39578E+05
 0.59949997E+02 -0.43694E+05
 0.59999996E+02 -0.46606E+05
 0.60049995E+02 -0.46245E+05
 0.60099995E+02 -0.42767E+05
 0.60149998E+02 -0.34578E+05
 0.60199997E+02 -0.31030E+05
 0.60249996E+02 -0.30033E+05
 0.60299995E+02 -0.28852E+05
 0.60349995E+02 -0.30088E+05
 0.60399998E+02 -0.30768E+05
 0.60449997E+02 -0.29649E+05
 0.60499996E+02 -0.27008E+05
 0.60549995E+02 -0.21571E+05
 0.60599995E+02 -0.13833E+05
 0.60649998E+02 -0.93319E+04
 0.60699997E+02 -0.11306E+05
 0.60749996E+02 -0.17882E+05
 0.60799995E+02 -0.25927E+05
 0.60849995E+02 -0.35447E+05
 0.60899998E+02 -0.41663E+05
 0.60949997E+02 -0.47311E+05
 0.60999996E+02 -0.51503E+05
 0.61049995E+02 -0.50306E+05
 0.61099995E+02 -0.42701E+05
 0.61149998E+02 -0.34852E+05
 0.61199997E+02 -0.30302E+05
 0.61249996E+02 -0.27275E+05
 0.61299995E+02 -0.27432E+05
 0.61349995E+02 -0.27825E+05
 0.61399998E+02 -0.30692E+05
 0.61449997E+02 -0.35286E+05
 0.61499996E+02 -0.40268E+05
 0.61549995E+02 -0.43638E+05
 0.61599995E+02 -0.43534E+05
 0.61649998E+02 -0.42544E+05
 0.61699997E+02 -0.39890E+05
 0.61749996E+02 -0.37157E+05
 0.61799995E+02 -0.35378E+05
 0.61849995E+02 -0.30679E+05
 0.61899998E+02 -0.24912E+05
 0.61949997E+02 -0.19728E+05
 0.61999996E+02 -0.14001E+05
 0.62049995E+02 -0.10212E+05
 0.62099998E+02 -0.11164E+05
 0.62149994E+02 -0.12390E+05
 0.62199997E+02 -0.10199E+05
 0.62249992E+02 -0.11627E+05
 0.62299995E+02 -0.16277E+05
 0.62349998E+02 -0.23626E+05
 0.62399994E+02 -0.29742E+05
 0.62449997E+02 -0.31307E+05
 0.62499992E+02 -0.32192E+05
 0.62549995E+02 -0.35029E+05
 0.62599998E+02 -0.39674E+05
 0.62649994E+02 -0.41978E+05
 0.62699997E+02 -0.42707E+05
 0.62749992E+02 -0.44924E+05
 0.62799995E+02 -0.49403E+05
 0.62849998E+02 -0.49802E+05
 0.62899994E+02 -0.47372E+05
 0.62949997E+02 -0.45956E+05
 0.62999992E+02 -0.44800E+05
 0.63049995E+02 -0.43848E+05
 0.63099998E+02 -0.44064E+05
 0.63149994E+02 -0.47963E+05
 0.63199997E+02 -0.52531E+05
 0.63249992E+02 -0.53807E+05
 0.63299995E+02 -0.51204E+05
 0.63349998E+02 -0.45421E+05
 0.63399994E+02 -0.35034E+05
 0.63449997E+02 -0.24971E+05
 0.63499992E+02 -0.20847E+05
 0.63549995E+02 -0.19354E+05
 0.63599998E+02 -0.18810E+05
 0.63649994E+02 -0.19945E+05
 0.63699997E+02 -0.22959E+05
 0.63749992E+02 -0.24994E+05
 0.63799995E+02 -0.26543E+05
 0.63849998E+02 -0.29599E+05
 0.63899994E+02 -0.32867E+05
 0.63949997E+02 -0.33588E+05
 0.63999992E+02 -0.31395E+05
 0.64049995E+02 -0.28256E+05
 0.64099998E+02 -0.26621E+05
 0.64149994E+02 -0.25192E+05
 0.64199997E+02 -0.23306E+05
 0.64249992E+02 -0.22504E+05
 0.64299995E+02 -0.21921E+05
 0.64349998E+02 -0.25125E+05
 0.64399994E+02 -0.26765E+05
 0.64449997E+02 -0.27870E+05
 0.64499992E+02 -0.31271E+05
 0.64549995E+02 -0.33929E+05
 0.64599998E+02 -0.36469E+05
 0.64649994E+02 -0.36072E+05
 0.64699997E+02 -0.34117E+05
 0.64749992E+02 -0.31688E+05
 0.64799995E+02 -0.31560E+05
 0.64849998E+02 -0.35050E+05
 0.64899994E+02 -0.40331E+05
 0.64949997E+02 -0.45531E+05
 0.64999992E+02 -0.48374E+05
 0.65049995E+02 -0.47578E+05
 0.65099998E+02 -0.41855E+05
 0.65149994E+02 -0.36644E+05
 0.65199997E+02 -0.30942E+05
 0.65249992E+02 -0.24743E+05
 0.65299995E+02 -0.23729E+05
 0.65349998E+02 -0.26751E+05
 0.65399994E+02 -0.30609E+05
 0.65449997E+02 -0.33543E+05
 0.65499992E+02 -0.38204E+05
 0.65549995E+02 -0.42860E+05
 0.65599998E+02 -0.43889E+05
 0.65649994E+02 -0.42148E+05
 0.65699997E+02 -0.39324E+05
 0.65749992E+02 -0.35609E+05
 0.65799995E+02 -0.31328E+05
 0.65849998E+02 -0.27540E+05
 0.65899994E+02 -0.24567E+05
 0.65949997E+02 -0.19919E+05
 0.65999992E+02 -0.13265E+05
 0.66049995E+02 -0.86651E+04
 0.66099998E+02 -0.74014E+04
 0.66149994E+02 -0.10857E+05
 0.66199997E+02 -0.17174E+05
 0.66249992E+02 -0.23176E+05
 0.66299995E+02 -0.26250E+05
 0.66349998E+02 -0.24151E+05
 0.66399994E+02 -0.20788E+05
 0.66449997E+02 -0.19136E+05
 0.66499992E+02 -0.19591E+05
 0.66549995E+02 -0.22919E+05
 0.66599998E+02 -0.27827E+05
 0.66649994E+02 -0.32311E+05
 0.66699997E+02 -0.37337E+05
 0.66749992E+02 -0.41789E+05
 0.66799995E+02 -0.44760E+05
 0.66849998E+02 -0.45463E+05
 0.66899994E+02 -0.46703E+05
 0.66949997E+02 -0.48169E+05
 0.66999992E+02 -0.46299E+05
 0.67049995E+02 -0.44765E+05
 0.67099998E+02 -0.43795E+05
 0.67149994E+02 -0.44613E+05
 0.67199997E+02 -0.45452E+05
 0.67249992E+02 -0.44993E+05
 0.67299995E+02 -0.43104E+05
 0.67349998E+02 -0.40584E+05
 0.67399994E+02 -0.38238E+05
 0.67449997E+02 -0.34848E+05
 0.67499992E+02 -0.31515E+05
 0.67549995E+02 -0.27210E+05
 0.67599998E+02 -0.24483E+05
 0.67649994E+02 -0.23250E+05
 0.67699997E+02 -0.23336E+05
 0.67749992E+02 -0.25061E+05
 0.67799995E+02 -0.27822E+05
 0.67849998E+02 -0.31440E+05
 0.67899994E+02 -0.32172E+05
 0.67949997E+02 -0.30637E+05
 0.67999992E+02 -0.28891E+05
 0.68049995E+02 -0.26952E+05
 0.68099998E+02 -0.26041E+05
 0.68149994E+02 -0.27007E+05
 0.68199997E+02 -0.30002E+05
 0.68249992E+02 -0.33125E+05
 0.68299995E+02 -0.34941E+05
 0.68349998E+02 -0.34645E+05
 0.68399994E+02 -0.33447E+05
 0.68449997E+02 -0.33370E+05
 0.68499992E+02 -0.34116E+05
 0.68549995E+02 -0.33529E+05
 0.68599998E+02 -0.30701E+05
 0.68649994E+02 -0.28293E+05
 0.68699997E+02 -0.27514E+05
 0.68749992E+02 -0.28451E+05
 0.68799995E+02 -0.30218E+05
 0.68849998E+02 -0.30604E+05
 0.68899994E+02 -0.32040E+05
 0.68949997E+02 -0.35440E+05
 0.68999992E+02 -0.39470E+05
 0.69049995E+02 -0.43462E+05
 0.69099998E+02 -0.43978E+05
 0.69149994E+02 -0.40323E+05
 0.69199997E+02 -0.35337E+05
 0.69249992E+02 -0.31731E+05
 0.69299995E+02 -0.28097E+05
 0.69349998E+02 -0.24925E+05
 0.69399994E+02 -0.23638E+05
 0.69449997E+02 -0.22878E+05
 0.69499992E+02 -0.22162E+05
 0.69549995E+02 -0.22985E+05
 0.69599998E+02 -0.27310E+05
 0.69649994E+02 -0.32533E+05
 0.69699997E+02 -0.37080E+05
 0.69749992E+02 -0.38929E+05
 0.69799995E+02 -0.37188E+05
 0.69849998E+02 -0.35676E+05
 0.69899994E+02 -0.35411E+05
 0.69949997E+02 -0.34464E+05
 0.69999992E+02 -0.33057E+05
 0.70049995E+02 -0.31083E+05
 0.70099998E+02 -0.28949E+05
 0.70149994E+02 -0.28619E+05
 0.70199997E+02 -0.29751E+05
 0.70249992E+02 -0.32512E+05
 0.70299995E+02 -0.35702E+05
 0.70349998E+02 -0.38125E+05
 0.70399994E+02 -0.37847E+05
 0.70449997E+02 -0.34180E+05
 0.70499992E+02 -0.29552E+05
 0.70549995E+02 -0.26999E+05
 0.70599998E+02 -0.26089E+05
 0.70649994E+02 -0.25617E+05
 0.70699997E+02 -0.27402E+05
 0.70749992E+02 -0.29554E+05
 0.70799995E+02 -0.31462E+05
 0.70849998E+02 -0.33720E+05
 0.70899994E+02 -0.35804E+05
 0.70949997E+02 -0.37290E+05
 0.70999992E+02 -0.37870E+05
 0.71049995E+02 -0.38079E+05
 0.71099998E+02 -0.36999E+05
 0.71149994E+02 -0.35606E+05
 0.71199997E+02 -0.33388E+05
 0.71249992E+02 -0.30508E+05
 0.71299995E+02 -0.28862E+05
 0.71349998E+02 -0.28011E+05
 0.71399994E+02 -0.27580E+05
 0.71449997E+02 -0.27850E+05
 0.71499992E+02 -0.29206E+05
 0.71549995E+02 -0.29574E+05
 0.71599998E+02 -0.29900E+05
 0.71649994E+02 -0.30407E+05
 0.71699997E+02 -0.31288E+05
 0.71749992E+02 -0.32873E+05
 0.71799995E+02 -0.34050E+05
 0.71849998E+02 -0.35230E+05
 0.71899994E+02 -0.36172E+05
 0.71949997E+02 -0.36221E+05
 0.71999992E+02 -0.35389E+05
 0.72049995E+02 -0.35114E+05
 0.72099998E+02 -0.34489E+05
 0.72149994E+02 -0.33948E+05
 0.72199997E+02 -0.32004E+05
 0.72249992E+02 -0.29114E+05
 0.72299995E+02 -0.27382E+05
 0.72349998E+02 -0.27019E+05
 0.72399994E+02 -0.28591E+05
 0.72449997E+02 -0.30101E+05
 0.72499992E+02 -0.31709E+05
 0.72549995E+02 -0.34046E+05
 0.72599998E+02 -0.37852E+05
 0.72649994E+02 -0.41828E+05
 0.72699997E+02 -0.44804E+05
 0.72749992E+02 -0.45811E+05
 0.72799995E+02 -0.44444E+05
 0.72849998E+02 -0.42580E+05
 0.72899994E+02 -0.39389E+05
 0.72949997E+02 -0.35377E+05
 0.72999992E+02 -0.30436E+05
 0.73049995E+02 -0.25850E+05
 0.73099998E+02 -0.23123E+05
 0.73149994E+02 -0.20518E+05
 0.73199997E+02 -0.18399E+05
 0.73249992E+02 -0.18797E+05
 0.73299995E+02 -0.21072E+05
 0.73349998E+02 -0.23399E+05
 0.73399994E+02 -0.25524E+05
 0.73449997E+02 -0.26726E+05
 0.73499992E+02 -0.28690E+05
 0.73549995E+02 -0.30838E+05
 0.73599998E+02 -0.31057E+05
 0.73649994E+02 -0.29958E+05
 0.73699997E+02 -0.28349E+05
 0.73749992E+02 -0.27252E+05
 0.73799995E+02 -0.27445E+05
 0.73849998E+02 -0.29969E+05
 0.73899994E+02 -0.33297E+05
 0.73949997E+02 -0.36263E+05
 0.73999992E+02 -0.39237E+05
 0.74049995E+02 -0.40886E+05
 0.74099998E+02 -0.39742E+05
 0.74149994E+02 -0.38204E+05
 0.74199997E+02 -0.37816E+05
 0.74249992E+02 -0.36707E+05
 0.74299995E+02 -0.35410E+05
 0.74349998E+02 -0.35243E+05
 0.74399994E+02 -0.35804E+05
 0.74449997E+02 -0.36605E+05
 0.74499992E+02 -0.36699E+05
 0.74549995E+02 -0.35136E+05
 0.74599998E+02 -0.32376E+05
 0.74649994E+02 -0.30322E+05
 0.74699997E+02 -0.29680E+05
 0.74749992E+02 -0.29829E+05
 0.74799995E+02 -0.30062E+05
 0.74849998E+02 -0.28768E+05
 0.74899994E+02 -0.27753E+05
 0.74949997E+02 -0.27719E+05
 0.74999992E+02 -0.27370E+05
 0.75049995E+02 -0.25700E+05
 0.75099998E+02 -0.24948E+05
 0.75149994E+02 -0.26833E+05
 0.75199997E+02 -0.28759E+05
 0.75249992E+02 -0.30135E+05
 0.75299995E+02 -0.31825E+05
 0.75349998E+02 -0.33354E+05
 0.75399994E+02 -0.33098E+05
 0.75449997E+02 -0.31547E+05
 0.75499992E+02 -0.29290E+05
 0.75549995E+02 -0.27742E+05
 0.75599998E+02 -0.27451E+05
 0.75649994E+02 -0.27091E+05
 0.75699997E+02 -0.26793E+05
 0.75749992E+02 -0.28209E+05
 0.75799995E+02 -0.31254E+05
 0.75849998E+02 -0.34755E+05
 0.75899994E+02 -0.37954E+05
 0.75949997E+02 -0.40428E+05
 0.75999992E+02 -0.41889E+05
 0.76049995E+02 -0.42523E+05
 0.76099998E+02 -0.42621E+05
 0.76149994E+02 -0.41470E+05
 0.76199997E+02 -0.39640E+05
 0.76249992E+02 -0.37941E+05
 0.76299995E+02 -0.36171E+05
 0.76349998E+02 -0.33506E+05
 0.76399994E+02 -0.31611E+05
 0.76449997E+02 -0.31395E+05
 0.76499992E+02 -0.32677E+05
 0.76549995E+02 -0.34138E+05
 0.76599998E+02 -0.34250E+05
 0.76649994E+02 -0.33803E+05
 0.76699997E+02 -0.33791E+05
 0.76749992E+02 -0.34763E+05
 0.76799995E+02 -0.33977E+05
 0.76849998E+02 -0.31910E+05
 0.76899994E+02 -0.30629E+05
 0.76949997E+02 -0.29573E+05
 0.76999992E+02 -0.28380E+05
 0.77049995E+02 -0.27428E+05
 0.77099998E+02 -0.27629E+05
 0.77149994E+02 -0.27617E+05
 0.77199997E+02 -0.26796E+05
 0.77249992E+02 -0.25979E+05
 0.77299995E+02 -0.25837E+05
 0.77349998E+02 -0.27102E+05
 0.77399994E+02 -0.28632E+05
 0.77449997E+02 -0.29250E+05
 0.77499992E+02 -0.30316E+05
 0.77549995E+02 -0.31183E+05
 0.77599998E+02 -0.31060E+05
 0.77649994E+02 -0.32246E+05
 0.77699997E+02 -0.34887E+05
 0.77749992E+02 -0.37324E+05
 0.77799995E+02 -0.38701E+05
 0.77849998E+02 -0.39053E+05
 0.77899994E+02 -0.38763E+05
 0.77949997E+02 -0.37636E+05
 0.77999992E+02 -0.35919E+05
 0.78049995E+02 -0.35359E+05
 0.78099998E+02 -0.35320E+05
 0.78149994E+02 -0.33912E+05
 0.78199997E+02 -0.32105E+05
 0.78249992E+02 -0.30878E+05
 0.78299995E+02 -0.30246E+05
 0.78349998E+02 -0.28286E+05
 0.78399994E+02 -0.26388E+05
 0.78449997E+02 -0.26226E+05
 0.78499992E+02 -0.26461E+05
 0.78549995E+02 -0.28279E+05
 0.78599998E+02 -0.30850E+05
 0.78649994E+02 -0.33199E+05
 0.78699997E+02 -0.33999E+05
 0.78749992E+02 -0.32802E+05
 0.78799995E+02 -0.31314E+05
 0.78849998E+02 -0.29829E+05
 0.78899994E+02 -0.28430E+05
 0.78949997E+02 -0.27800E+05
 0.78999992E+02 -0.27950E+05
 0.79049995E+02 -0.28901E+05
 0.79099998E+02 -0.29098E+05
 0.79149994E+02 -0.28261E+05
 0.79199997E+02 -0.28310E+05
 0.79249992E+02 -0.28945E+05
 0.79299995E+02 -0.30410E+05
 0.79349998E+02 -0.32305E+05
 0.79399994E+02 -0.34068E+05
 0.79449997E+02 -0.35148E+05
 0.79499992E+02 -0.36078E+05
 0.79549995E+02 -0.37238E+05
 0.79599998E+02 -0.37765E+05
 0.79649994E+02 -0.37455E+05
 0.79699997E+02 -0.36999E+05
 0.79749992E+02 -0.36062E+05
 0.79799995E+02 -0.34395E+05
 0.79849998E+02 -0.33522E+05
 0.79899994E+02 -0.33042E+05
 0.79949997E+02 -0.32883E+05
 0.79999992E+02 -0.34002E+05
 0.80049995E+02 -0.35274E+05
 0.80099998E+02 -0.35192E+05
 0.80149994E+02 -0.34286E+05
 0.80199997E+02 -0.33935E+05
 0.80249992E+02 -0.33808E+05
 0.80299995E+02 -0.33164E+05
 0.80349998E+02 -0.32298E+05
 0.80399994E+02 -0.31876E+05
 0.80449997E+02 -0.32413E+05
 0.80499992E+02 -0.32467E+05
 0.80549995E+02 -0.31687E+05
 0.80599998E+02 -0.30383E+05
 0.80649994E+02 -0.29165E+05
 0.80699997E+02 -0.28088E+05
 0.80749992E+02 -0.27392E+05
 0.80799995E+02 -0.27775E+05
 0.80849998E+02 -0.28690E+05
 0.80899994E+02 -0.29210E+05
 0.80949997E+02 -0.28701E+05
 0.80999992E+02 -0.28384E+05
 0.81049995E+02 -0.28737E+05
 0.81099998E+02 -0.30568E+05
 0.81149994E+02 -0.32968E+05
 0.81199997E+02 -0.34455E+05
 0.81249992E+02 -0.35336E+05
 0.81299995E+02 -0.35759E+05
 0.81349998E+02 -0.36076E+05
 0.81399994E+02 -0.35999E+05
 0.81449997E+02 -0.35357E+05
 0.81499992E+02 -0.34725E+05
 0.81549995E+02 -0.33800E+05
 0.81599998E+02 -0.32677E+05
 0.81649994E+02 -0.32202E+05
 0.81699997E+02 -0.32398E+05
 0.81749992E+02 -0.32583E+05
 0.81799995E+02 -0.32848E+05
 0.81849998E+02 -0.33939E+05
 0.81899994E+02 -0.34942E+05
 0.81949997E+02 -0.35323E+05
 0.81999992E+02 -0.34623E+05
 0.82049995E+02 -0.33335E+05
 0.82099998E+02 -0.32143E+05
 0.82149994E+02 -0.30434E+05
 0.82199997E+02 -0.28430E+05
 0.82249992E+02 -0.26511E+05
 0.82299995E+02 -0.25031E+05
 0.82349998E+02 -0.24534E+05
 0.82399994E+02 -0.25303E+05
 0.82449997E+02 -0.25756E+05
 0.82499992E+02 -0.25080E+05
 0.82549995E+02 -0.24720E+05
 0.82599998E+02 -0.25026E+05
 0.82649994E+02 -0.26461E+05
 0.82699997E+02 -0.28979E+05
 0.82749992E+02 -0.31693E+05
 0.82799995E+02 -0.33536E+05
 0.82849998E+02 -0.33684E+05
 0.82899994E+02 -0.33296E+05
 0.82949997E+02 -0.34105E+05
 0.82999992E+02 -0.35524E+05
 0.83049995E+02 -0.36019E+05
 0.83099998E+02 -0.36677E+05
 0.83149994E+02 -0.37414E+05
 0.83199997E+02 -0.37724E+05
 0.83249992E+02 -0.37675E+05
 0.83299995E+02 -0.37719E+05
 0.83349998E+02 -0.37802E+05
 0.83399994E+02 -0.37982E+05
 0.83449997E+02 -0.38248E+05
 0.83499992E+02 -0.37415E+05
 0.83549995E+02 -0.36764E+05
 0.83599998E+02 -0.36409E+05
 0.83649994E+02 -0.35257E+05
 0.83699997E+02 -0.33810E+05
 0.83749992E+02 -0.32356E+05
 0.83799995E+02 -0.30678E+05
 0.83849998E+02 -0.29369E+05
 0.83899994E+02 -0.27799E+05
 0.83949997E+02 -0.26192E+05
 0.83999992E+02 -0.25162E+05
 0.84049995E+02 -0.24774E+05
 0.84099998E+02 -0.25886E+05
 0.84149994E+02 -0.27759E+05
 0.84199997E+02 -0.29990E+05
 0.84249992E+02 -0.31718E+05
 0.84299995E+02 -0.33570E+05
 0.84349998E+02 -0.35175E+05
 0.84399994E+02 -0.35886E+05
 0.84449997E+02 -0.36830E+05
 0.84499992E+02 -0.37271E+05
 0.84549995E+02 -0.37211E+05
 0.84599998E+02 -0.36427E+05
 0.84649994E+02 -0.35671E+05
 0.84699997E+02 -0.35248E+05
 0.84749992E+02 -0.34580E+05
 0.84799995E+02 -0.33907E+05
 0.84849998E+02 -0.33312E+05
 0.84899994E+02 -0.32867E+05
 0.84949997E+02 -0.32145E+05
 0.84999992E+02 -0.31130E+05
 0.85049995E+02 -0.30091E+05
 0.85099998E+02 -0.30093E+05
 0.85149994E+02 -0.30579E+05
 0.85199997E+02 -0.30485E+05
 0.85249992E+02 -0.30666E+05
 0.85299995E+02 -0.31516E+05
 0.85349998E+02 -0.32447E+05
 0.85399994E+02 -0.33128E+05
 0.85449997E+02 -0.33702E+05
 0.85499992E+02 -0.33841E+05
 0.85549995E+02 -0.34022E+05
 0.85599998E+02 -0.33513E+05
 0.85649994E+02 -0.31401E+05
 0.85699997E+02 -0.28537E+05
 0.85749992E+02 -0.26145E+05
 0.85799995E+02 -0.24698E+05
 0.85849998E+02 -0.23864E+05
 0.85899994E+02 -0.24293E+05
 0.85949997E+02 -0.25642E+05
 0.85999992E+02 -0.27026E+05
 0.86049995E+02 -0.28644E+05
 0.86099998E+02 -0.29819E+05
 0.86149994E+02 -0.29867E+05
 0.86199997E+02 -0.29301E+05
 0.86249992E+02 -0.28967E+05
 0.86299995E+02 -0.29403E+05
 0.86349998E+02 -0.29872E+05
 0.86399994E+02 -0.29979E+05
 0.86449997E+02 -0.30492E+05
 0.86499992E+02 -0.30989E+05
 0.86549995E+02 -0.30663E+05
 0.86599998E+02 -0.30874E+05
 0.86649994E+02 -0.32325E+05
 0.86699997E+02 -0.34476E+05
 0.86749992E+02 -0.36866E+05
 0.86799995E+02 -0.38735E+05
 0.86849998E+02 -0.39796E+05
 0.86899994E+02 -0.40126E+05
 0.86949997E+02 -0.39565E+05
 0.86999992E+02 -0.38335E+05
 0.87049995E+02 -0.37532E+05
 0.87099998E+02 -0.36761E+05
 0.87149994E+02 -0.35841E+05
 0.87199997E+02 -0.34921E+05
 0.87249992E+02 -0.34055E+05
 0.87299995E+02 -0.33009E+05
 0.87349998E+02 -0.31586E+05
 0.87399994E+02 -0.29801E+05
 0.87449997E+02 -0.28210E+05
 0.87499992E+02 -0.28089E+05
 0.87549995E+02 -0.29071E+05
 0.87599991E+02 -0.30280E+05
 0.87649994E+02 -0.31026E+05
 0.87699997E+02 -0.31773E+05
 0.87749992E+02 -0.32259E+05
 0.87799995E+02 -0.32721E+05
 0.87849991E+02 -0.33737E+05
 0.87899994E+02 -0.34723E+05
 0.87949997E+02 -0.34967E+05
 0.87999992E+02 -0.34928E+05
 0.88049995E+02 -0.35391E+05
 0.88099991E+02 -0.35356E+05
 0.88149994E+02 -0.34851E+05
 0.88199997E+02 -0.34442E+05
 0.88249992E+02 -0.34519E+05
 0.88299995E+02 -0.35349E+05
 0.88349991E+02 -0.36077E+05
 0.88399994E+02 -0.36565E+05
 0.88449997E+02 -0.36465E+05
 0.88499992E+02 -0.34967E+05
 0.88549995E+02 -0.32874E+05
 0.88599991E+02 -0.30897E+05
 0.88649994E+02 -0.29180E+05
 0.88699997E+02 -0.28183E+05
 0.88749992E+02 -0.27643E+05
 0.88799995E+02 -0.26691E+05
 0.88849991E+02 -0.25522E+05
 0.88899994E+02 -0.24880E+05
 0.88949997E+02 -0.25165E+05
 0.88999992E+02 -0.26586E+05
 0.89049995E+02 -0.28219E+05
 0.89099991E+02 -0.29378E+05
 0.89149994E+02 -0.30291E+05
 0.89199997E+02 -0.30729E+05
 0.89249992E+02 -0.31307E+05
 0.89299995E+02 -0.31593E+05
 0.89349991E+02 -0.30979E+05
 0.89399994E+02 -0.30616E+05
 0.89449997E+02 -0.30477E+05
 0.89499992E+02 -0.30335E+05
 0.89549995E+02 -0.30493E+05
 0.89599991E+02 -0.31204E+05
 0.89649994E+02 -0.31559E+05
 0.89699997E+02 -0.31665E+05
 0.89749992E+02 -0.32042E+05
 0.89799995E+02 -0.32827E+05
 0.89849991E+02 -0.34322E+05
 0.89899994E+02 -0.36074E+05
 0.89949997E+02 -0.37723E+05
 0.89999992E+02 -0.38031E+05
 0.90049995E+02 -0.36924E+05
 0.90099991E+02 -0.35104E+05
 0.90149994E+02 -0.33989E+05
 0.90199997E+02 -0.33578E+05
 0.90249992E+02 -0.33231E+05
 0.90299995E+02 -0.32781E+05
 0.90349991E+02 -0.32444E+05
 0.90399994E+02 -0.32274E+05
 0.90449997E+02 -0.31768E+05
 0.90499992E+02 -0.31280E+05
 0.90549995E+02 -0.30482E+05
 0.90599991E+02 -0.30077E+05
 0.90649994E+02 -0.29938E+05
 0.90699997E+02 -0.29344E+05
 0.90749992E+02 -0.28984E+05
 0.90799995E+02 -0.29412E+05
 0.90849991E+02 -0.29803E+05
 0.90899994E+02 -0.30350E+05
 0.90949997E+02 -0.31167E+05
 0.90999992E+02 -0.32205E+05
 0.91049995E+02 -0.33709E+05
 0.91099991E+02 -0.34251E+05
 0.91149994E+02 -0.34021E+05
 0.91199997E+02 -0.33463E+05
 0.91249992E+02 -0.32809E+05
 0.91299995E+02 -0.32303E+05
 0.91349991E+02 -0.32026E+05
 0.91399994E+02 -0.31833E+05
 0.91449997E+02 -0.31378E+05
 0.91499992E+02 -0.30970E+05
 0.91549995E+02 -0.30592E+05
 0.91599991E+02 -0.30769E+05
 0.91649994E+02 -0.31347E+05
 0.91699997E+02 -0.31947E+05
 0.91749992E+02 -0.32745E+05
 0.91799995E+02 -0.33560E+05
 0.91849991E+02 -0.33899E+05
 0.91899994E+02 -0.34029E+05
 0.91949997E+02 -0.34236E+05
 0.91999992E+02 -0.34415E+05
 0.92049995E+02 -0.34486E+05
 0.92099991E+02 -0.34011E+05
 0.92149994E+02 -0.33586E+05
 0.92199997E+02 -0.33832E+05
 0.92249992E+02 -0.34317E+05
 0.92299995E+02 -0.34750E+05
 0.92349991E+02 -0.35352E+05
 0.92399994E+02 -0.35628E+05
 0.92449997E+02 -0.35279E+05
 0.92499992E+02 -0.34614E+05
 0.92549995E+02 -0.33778E+05
 0.92599991E+02 -0.33075E+05
 0.92649994E+02 -0.32486E+05
 0.92699997E+02 -0.32013E+05
 0.92749992E+02 -0.31667E+05
 0.92799995E+02 -0.31473E+05
 0.92849991E+02 -0.31279E+05
 0.92899994E+02 -0.30270E+05
 0.92949997E+02 -0.28906E+05
 0.92999992E+02 -0.28062E+05
 0.93049995E+02 -0.27568E+05
 0.93099991E+02 -0.27434E+05
 0.93149994E+02 -0.27628E+05
 0.93199997E+02 -0.27636E+05
 0.93249992E+02 -0.27606E+05
 0.93299995E+02 -0.27676E+05
 0.93349991E+02 -0.28234E+05
 0.93399994E+02 -0.29041E+05
 0.93449997E+02 -0.29589E+05
 0.93499992E+02 -0.30496E+05
 0.93549995E+02 -0.31783E+05
 0.93599991E+02 -0.33245E+05
 0.93649994E+02 -0.34405E+05
 0.93699997E+02 -0.35201E+05
 0.93749992E+02 -0.35378E+05
 0.93799995E+02 -0.35070E+05
 0.93849991E+02 -0.34112E+05
 0.93899994E+02 -0.32819E+05
 0.93949997E+02 -0.31787E+05
 0.93999992E+02 -0.31476E+05
 0.94049995E+02 -0.32207E+05
 0.94099991E+02 -0.32671E+05
 0.94149994E+02 -0.32677E+05
 0.94199997E+02 -0.32433E+05
 0.94249992E+02 -0.32089E+05
 0.94299995E+02 -0.31559E+05
 0.94349991E+02 -0.31251E+05
 0.94399994E+02 -0.31737E+05
 0.94449997E+02 -0.32510E+05
 0.94499992E+02 -0.33083E+05
 0.94549995E+02 -0.33779E+05
 0.94599991E+02 -0.34939E+05
 0.94649994E+02 -0.35986E+05
 0.94699997E+02 -0.36157E+05
 0.94749992E+02 -0.35636E+05
 0.94799995E+02 -0.34788E+05
 0.94849991E+02 -0.33719E+05
 0.94899994E+02 -0.32628E+05
 0.94949997E+02 -0.31774E+05
 0.94999992E+02 -0.31523E+05
 0.95049995E+02 -0.31470E+05
 0.95099991E+02 -0.31077E+05
 0.95149994E+02 -0.30884E+05
 0.95199997E+02 -0.31017E+05
 0.95249992E+02 -0.31378E+05
 0.95299995E+02 -0.31499E+05
 0.95349991E+02 -0.31039E+05
 0.95399994E+02 -0.30670E+05
 0.95449997E+02 -0.30293E+05
 0.95499992E+02 -0.29901E+05
 0.95549995E+02 -0.29641E+05
 0.95599991E+02 -0.29858E+05
 0.95649994E+02 -0.30517E+05
 0.95699997E+02 -0.31323E+05
 0.95749992E+02 -0.32000E+05
 0.95799995E+02 -0.32482E+05
 0.95849991E+02 -0.33193E+05
 0.95899994E+02 -0.34132E+05
 0.95949997E+02 -0.35054E+05
 0.95999992E+02 -0.35997E+05
 0.96049995E+02 -0.36496E+05
 0.96099991E+02 -0.36037E+05
 0.96149994E+02 -0.34986E+05
 0.96199997E+02 -0.34051E+05
 0.96249992E+02 -0.33483E+05
 0.96299995E+02 -0.32546E+05
 0.96349991E+02 -0.31750E+05
 0.96399994E+02 -0.31694E+05
 0.96449997E+02 -0.31760E+05
 0.96499992E+02 -0.31842E+05
 0.96549995E+02 -0.32039E+05
 0.96599991E+02 -0.32319E+05
 0.96649994E+02 -0.32156E+05
 0.96699997E+02 -0.31497E+05
 0.96749992E+02 -0.30968E+05
 0.96799995E+02 -0.30459E+05
 0.96849991E+02 -0.30078E+05
 0.96899994E+02 -0.29738E+05
 0.96949997E+02 -0.29671E+05
 0.96999992E+02 -0.29916E+05
 0.97049995E+02 -0.30058E+05
 0.97099991E+02 -0.30390E+05
 0.97149994E+02 -0.30486E+05
 0.97199997E+02 -0.30328E+05
 0.97249992E+02 -0.29957E+05
 0.97299995E+02 -0.29619E+05
 0.97349991E+02 -0.29764E+05
 0.97399994E+02 -0.30154E+05
 0.97449997E+02 -0.30771E+05
 0.97499992E+02 -0.31241E+05
 0.97549995E+02 -0.31397E+05
 0.97599991E+02 -0.31506E+05
 0.97649994E+02 -0.31659E+05
 0.97699997E+02 -0.31940E+05
 0.97749992E+02 -0.32235E+05
 0.97799995E+02 -0.32410E+05
 0.97849991E+02 -0.32499E+05
 0.97899994E+02 -0.32837E+05
 0.97949997E+02 -0.33211E+05
 0.97999992E+02 -0.33352E+05
