-0.19969940E+01 -0.15984E+04
-0.19469941E+01 -0.15916E+04
-0.18969940E+01 -0.16188E+04
-0.18469940E+01 -0.16290E+04
-0.17969940E+01 -0.16573E+04
-0.17469940E+01 -0.16545E+04
-0.16969941E+01 -0.16338E+04
-0.16469941E+01 -0.16211E+04
-0.15969940E+01 -0.16527E+04
-0.15469940E+01 -0.16444E+04
-0.14969940E+01 -0.16248E+04
-0.14469941E+01 -0.16251E+04
-0.13969941E+01 -0.16092E+04
-0.13469940E+01 -0.16277E+04
-0.12969941E+01 -0.16257E+04
-0.12469940E+01 -0.16088E+04
-0.11969941E+01 -0.16242E+04
-0.11469941E+01 -0.16699E+04
-0.10969940E+01 -0.16666E+04
-0.10469941E+01 -0.16586E+04
-0.99699408E+00 -0.16503E+04
-0.94699407E+00 -0.16342E+04
-0.89699411E+00 -0.16493E+04
-0.84699404E+00 -0.16451E+04
-0.79699409E+00 -0.16282E+04
-0.74699414E+00 -0.15992E+04
-0.69699407E+00 -0.15780E+04
-0.64699411E+00 -0.15930E+04
-0.59699416E+00 -0.15945E+04
-0.54699409E+00 -0.15574E+04
-0.49699414E+00 -0.15610E+04
-0.44699407E+00 -0.15707E+04
-0.39699411E+00 -0.15528E+04
-0.34699416E+00 -0.15444E+04
-0.29699409E+00 -0.15129E+04
-0.24699414E+00 -0.15195E+04
-0.19699407E+00 -0.15117E+04
-0.14699411E+00 -0.14876E+04
-0.96994162E-01 -0.14767E+04
-0.46994090E-01 -0.14790E+04
 0.30058622E-02 -0.14911E+04
 0.53005934E-01 -0.14542E+04
 0.10300589E+00 -0.14713E+04
 0.15300584E+00 -0.14860E+04
 0.20300579E+00 -0.15075E+04
 0.25300574E+00 -0.14642E+04
 0.30300593E+00 -0.14505E+04
 0.35300589E+00 -0.14933E+04
 0.40300584E+00 -0.15007E+04
 0.45300579E+00 -0.15477E+04
 0.50300574E+00 -0.15407E+04
 0.55300593E+00 -0.15526E+04
 0.60300589E+00 -0.15540E+04
 0.65300584E+00 -0.15731E+04
 0.70300579E+00 -0.15798E+04
 0.75300574E+00 -0.15925E+04
 0.80300570E+00 -0.16140E+04
 0.85300589E+00 -0.16088E+04
 0.90300584E+00 -0.16227E+04
 0.95300579E+00 -0.16060E+04
 0.10030057E+01 -0.16042E+04
 0.10530057E+01 -0.16091E+04
 0.11030059E+01 -0.16201E+04
 0.11530058E+01 -0.16224E+04
 0.12030058E+01 -0.16149E+04
 0.12530057E+01 -0.16269E+04
 0.13030057E+01 -0.16173E+04
 0.13530059E+01 -0.16139E+04
 0.14030058E+01 -0.16539E+04
 0.14530058E+01 -0.16856E+04
 0.15030057E+01 -0.17158E+04
 0.15530057E+01 -0.17285E+04
 0.16030059E+01 -0.16925E+04
 0.16530058E+01 -0.16941E+04
 0.17030058E+01 -0.17125E+04
 0.17530057E+01 -0.17183E+04
 0.18030057E+01 -0.17231E+04
 0.18530056E+01 -0.17071E+04
 0.19030058E+01 -0.16889E+04
 0.19530058E+01 -0.16809E+04
 0.20030057E+01 -0.16576E+04
 0.20530057E+01 -0.16164E+04
 0.21030059E+01 -0.15948E+04
 0.21530056E+01 -0.15866E+04
 0.22030058E+01 -0.16006E+04
 0.22530055E+01 -0.15755E+04
 0.23030057E+01 -0.15791E+04
 0.23530059E+01 -0.15413E+04
 0.24030056E+01 -0.15175E+04
 0.24530058E+01 -0.15215E+04
 0.25030055E+01 -0.14853E+04
 0.25530057E+01 -0.14747E+04
 0.26030059E+01 -0.14860E+04
 0.26530056E+01 -0.14842E+04
 0.27030058E+01 -0.14771E+04
 0.27530055E+01 -0.15023E+04
 0.28030057E+01 -0.15152E+04
 0.28530059E+01 -0.15202E+04
 0.29030056E+01 -0.15094E+04
 0.29530058E+01 -0.15571E+04
 0.30030055E+01 -0.15495E+04
 0.30530057E+01 -0.15532E+04
 0.31030059E+01 -0.15166E+04
 0.31530056E+01 -0.15646E+04
 0.32030058E+01 -0.15805E+04
 0.32530055E+01 -0.14979E+04
 0.33030057E+01 -0.16358E+04
 0.33530059E+01 -0.16324E+04
 0.34030056E+01 -0.15448E+04
 0.34530058E+01 -0.15886E+04
 0.35030055E+01 -0.15608E+04
 0.35530057E+01 -0.16173E+04
 0.36030054E+01 -0.15936E+04
 0.36530056E+01 -0.15526E+04
 0.37030058E+01 -0.16011E+04
 0.37530055E+01 -0.16478E+04
 0.38030057E+01 -0.15643E+04
 0.38530054E+01 -0.15998E+04
 0.39030056E+01 -0.16965E+04
 0.39530058E+01 -0.15954E+04
 0.40030055E+01 -0.16273E+04
 0.40530057E+01 -0.15995E+04
 0.41030054E+01 -0.16348E+04
 0.41530056E+01 -0.16329E+04
 0.42030058E+01 -0.16272E+04
 0.42530055E+01 -0.16391E+04
 0.43030057E+01 -0.16170E+04
 0.43530054E+01 -0.16415E+04
 0.44030056E+01 -0.16339E+04
 0.44530058E+01 -0.16787E+04
 0.45030055E+01 -0.16241E+04
 0.45530057E+01 -0.16238E+04
 0.46030054E+01 -0.16185E+04
 0.46530056E+01 -0.16619E+04
 0.47030058E+01 -0.16568E+04
 0.47530055E+01 -0.15774E+04
 0.48030057E+01 -0.15695E+04
 0.48530054E+01 -0.15566E+04
 0.49030056E+01 -0.15795E+04
 0.49530058E+01 -0.14852E+04
 0.50030055E+01 -0.15206E+04
 0.50530057E+01 -0.14864E+04
 0.51030054E+01 -0.15222E+04
 0.51530056E+01 -0.14676E+04
 0.52030058E+01 -0.14630E+04
 0.52530055E+01 -0.15574E+04
 0.53030057E+01 -0.15097E+04
 0.53530054E+01 -0.15087E+04
 0.54030056E+01 -0.14742E+04
 0.54530053E+01 -0.15376E+04
 0.55030055E+01 -0.15579E+04
 0.55530057E+01 -0.15453E+04
 0.56030054E+01 -0.15052E+04
 0.56530056E+01 -0.15471E+04
 0.57030053E+01 -0.15846E+04
 0.57530055E+01 -0.15787E+04
 0.58030057E+01 -0.15899E+04
 0.58530054E+01 -0.16191E+04
 0.59030056E+01 -0.16002E+04
 0.59530053E+01 -0.15724E+04
 0.60030055E+01 -0.15933E+04
 0.60530052E+01 -0.15906E+04
 0.61030054E+01 -0.15744E+04
 0.61530056E+01 -0.15560E+04
 0.62030058E+01 -0.15855E+04
 0.62530050E+01 -0.16213E+04
 0.63030052E+01 -0.16321E+04
 0.63530054E+01 -0.16232E+04
 0.64030056E+01 -0.16105E+04
 0.64530058E+01 -0.16598E+04
 0.65030050E+01 -0.16474E+04
 0.65530052E+01 -0.16221E+04
 0.66030054E+01 -0.16346E+04
 0.66530056E+01 -0.16504E+04
 0.67030058E+01 -0.16765E+04
 0.67530050E+01 -0.16556E+04
 0.68030052E+01 -0.16326E+04
 0.68530054E+01 -0.16224E+04
 0.69030056E+01 -0.16563E+04
 0.69530058E+01 -0.16477E+04
 0.70030050E+01 -0.16446E+04
 0.70530052E+01 -0.16214E+04
 0.71030054E+01 -0.15929E+04
 0.71530056E+01 -0.16083E+04
 0.72030058E+01 -0.15846E+04
 0.72530050E+01 -0.15848E+04
 0.73030052E+01 -0.16236E+04
 0.73530054E+01 -0.16231E+04
 0.74030056E+01 -0.15895E+04
 0.74530058E+01 -0.16074E+04
 0.75030050E+01 -0.16183E+04
 0.75530052E+01 -0.15926E+04
 0.76030054E+01 -0.15973E+04
 0.76530056E+01 -0.16345E+04
 0.77030058E+01 -0.16299E+04
 0.77530050E+01 -0.15958E+04
 0.78030052E+01 -0.15831E+04
 0.78530054E+01 -0.15880E+04
 0.79030056E+01 -0.15941E+04
 0.79530058E+01 -0.15393E+04
 0.80030050E+01 -0.15438E+04
 0.80530052E+01 -0.15700E+04
 0.81030054E+01 -0.15532E+04
 0.81530056E+01 -0.15526E+04
 0.82030058E+01 -0.15767E+04
 0.82530050E+01 -0.15803E+04
 0.83030052E+01 -0.15445E+04
 0.83530054E+01 -0.15584E+04
 0.84030056E+01 -0.15555E+04
 0.84530058E+01 -0.15666E+04
 0.85030050E+01 -0.15871E+04
 0.85530052E+01 -0.15745E+04
 0.86030054E+01 -0.15791E+04
 0.86530056E+01 -0.15823E+04
 0.87030058E+01 -0.15858E+04
 0.87530050E+01 -0.15758E+04
 0.88030052E+01 -0.15970E+04
 0.88530054E+01 -0.15802E+04
 0.89030056E+01 -0.15856E+04
 0.89530058E+01 -0.16209E+04
 0.90030050E+01 -0.16188E+04
 0.90530052E+01 -0.16069E+04
 0.91030054E+01 -0.15987E+04
 0.91530056E+01 -0.16009E+04
 0.92030048E+01 -0.15999E+04
 0.92530050E+01 -0.15932E+04
 0.93030052E+01 -0.16074E+04
 0.93530054E+01 -0.16189E+04
 0.94030056E+01 -0.15886E+04
 0.94530048E+01 -0.16000E+04
 0.95030050E+01 -0.15810E+04
 0.95530052E+01 -0.15784E+04
 0.96030054E+01 -0.15865E+04
 0.96530056E+01 -0.15448E+04
 0.97030048E+01 -0.15432E+04
 0.97530050E+01 -0.15638E+04
 0.98030052E+01 -0.15707E+04
 0.98530054E+01 -0.15608E+04
 0.99030056E+01 -0.15255E+04
 0.99530048E+01 -0.14988E+04
 0.10003005E+02 -0.15082E+04
 0.10053005E+02 -0.15304E+04
 0.10103005E+02 -0.15426E+04
 0.10153006E+02 -0.15522E+04
 0.10203005E+02 -0.15535E+04
 0.10253005E+02 -0.15465E+04
 0.10303005E+02 -0.15814E+04
 0.10353005E+02 -0.15752E+04
 0.10403006E+02 -0.15739E+04
 0.10453005E+02 -0.15748E+04
 0.10503005E+02 -0.15671E+04
 0.10553005E+02 -0.15861E+04
 0.10603005E+02 -0.16026E+04
 0.10653006E+02 -0.16157E+04
 0.10703005E+02 -0.15973E+04
 0.10753005E+02 -0.15960E+04
 0.10803005E+02 -0.15768E+04
 0.10853005E+02 -0.15841E+04
 0.10903006E+02 -0.16038E+04
 0.10953005E+02 -0.16214E+04
 0.11003005E+02 -0.15798E+04
 0.11053005E+02 -0.15644E+04
 0.11103005E+02 -0.15855E+04
 0.11153006E+02 -0.15854E+04
 0.11203005E+02 -0.16010E+04
 0.11253005E+02 -0.16062E+04
 0.11303005E+02 -0.15861E+04
 0.11353005E+02 -0.16049E+04
 0.11403006E+02 -0.16274E+04
 0.11453005E+02 -0.16174E+04
 0.11503005E+02 -0.16471E+04
 0.11553005E+02 -0.16240E+04
 0.11603005E+02 -0.16329E+04
 0.11653006E+02 -0.16243E+04
 0.11703005E+02 -0.16392E+04
 0.11753005E+02 -0.16484E+04
 0.11803005E+02 -0.16589E+04
 0.11853005E+02 -0.17061E+04
 0.11903006E+02 -0.16809E+04
 0.11953005E+02 -0.16470E+04
 0.12003005E+02 -0.16412E+04
 0.12053005E+02 -0.16243E+04
 0.12103005E+02 -0.16243E+04
 0.12153006E+02 -0.16044E+04
 0.12203005E+02 -0.15585E+04
 0.12253005E+02 -0.15978E+04
 0.12303005E+02 -0.15597E+04
 0.12353005E+02 -0.15373E+04
 0.12403006E+02 -0.15540E+04
 0.12453005E+02 -0.15473E+04
 0.12503005E+02 -0.15512E+04
 0.12553005E+02 -0.15373E+04
 0.12603005E+02 -0.15123E+04
 0.12653005E+02 -0.15266E+04
 0.12703005E+02 -0.15318E+04
 0.12753005E+02 -0.14991E+04
 0.12803005E+02 -0.15120E+04
 0.12853005E+02 -0.15087E+04
 0.12903005E+02 -0.15289E+04
 0.12953005E+02 -0.15349E+04
 0.13003005E+02 -0.15400E+04
 0.13053005E+02 -0.15518E+04
 0.13103005E+02 -0.15683E+04
 0.13153005E+02 -0.15726E+04
 0.13203005E+02 -0.15615E+04
 0.13253005E+02 -0.15912E+04
 0.13303005E+02 -0.16148E+04
 0.13353005E+02 -0.15877E+04
 0.13403005E+02 -0.15859E+04
 0.13453005E+02 -0.15925E+04
 0.13503005E+02 -0.16017E+04
 0.13553005E+02 -0.16099E+04
 0.13603005E+02 -0.16056E+04
 0.13653005E+02 -0.16422E+04
 0.13703005E+02 -0.16185E+04
 0.13753005E+02 -0.16061E+04
 0.13803005E+02 -0.16110E+04
 0.13853005E+02 -0.16164E+04
 0.13903005E+02 -0.16220E+04
 0.13953005E+02 -0.16203E+04
 0.14003005E+02 -0.16599E+04
 0.14053005E+02 -0.16492E+04
 0.14103004E+02 -0.16190E+04
 0.14153006E+02 -0.16538E+04
 0.14203005E+02 -0.16592E+04
 0.14253004E+02 -0.16667E+04
 0.14303005E+02 -0.16683E+04
 0.14353004E+02 -0.16550E+04
 0.14403006E+02 -0.16434E+04
 0.14453005E+02 -0.16241E+04
 0.14503004E+02 -0.16414E+04
 0.14553005E+02 -0.16324E+04
 0.14603004E+02 -0.16498E+04
 0.14653006E+02 -0.16502E+04
 0.14703005E+02 -0.16268E+04
 0.14753004E+02 -0.16265E+04
 0.14803005E+02 -0.16130E+04
 0.14853004E+02 -0.16455E+04
 0.14903006E+02 -0.16104E+04
 0.14953005E+02 -0.15875E+04
 0.15003004E+02 -0.15883E+04
 0.15053005E+02 -0.15239E+04
 0.15103004E+02 -0.15711E+04
 0.15153006E+02 -0.15743E+04
 0.15203005E+02 -0.15593E+04
 0.15253004E+02 -0.15766E+04
 0.15303005E+02 -0.15819E+04
 0.15353004E+02 -0.15731E+04
 0.15403006E+02 -0.15422E+04
 0.15453005E+02 -0.15206E+04
 0.15503004E+02 -0.15731E+04
 0.15553005E+02 -0.15736E+04
 0.15603004E+02 -0.14993E+04
 0.15653006E+02 -0.15764E+04
 0.15703005E+02 -0.15500E+04
 0.15753004E+02 -0.15062E+04
 0.15803005E+02 -0.15534E+04
 0.15853004E+02 -0.15398E+04
 0.15903006E+02 -0.15158E+04
 0.15953005E+02 -0.15081E+04
 0.16003004E+02 -0.15296E+04
 0.16053005E+02 -0.15430E+04
 0.16103004E+02 -0.15622E+04
 0.16153006E+02 -0.15582E+04
 0.16203005E+02 -0.15490E+04
 0.16253004E+02 -0.15634E+04
 0.16303005E+02 -0.15596E+04
 0.16353004E+02 -0.15568E+04
 0.16403006E+02 -0.16085E+04
 0.16453005E+02 -0.15965E+04
 0.16503004E+02 -0.15724E+04
 0.16553005E+02 -0.16005E+04
 0.16603004E+02 -0.15964E+04
 0.16653006E+02 -0.15948E+04
 0.16703005E+02 -0.15703E+04
 0.16753004E+02 -0.16076E+04
 0.16803005E+02 -0.16113E+04
 0.16853004E+02 -0.15941E+04
 0.16903006E+02 -0.15909E+04
 0.16953005E+02 -0.16305E+04
 0.17003004E+02 -0.15950E+04
 0.17053005E+02 -0.16561E+04
 0.17103004E+02 -0.16027E+04
 0.17153006E+02 -0.16521E+04
 0.17203005E+02 -0.16334E+04
 0.17253004E+02 -0.15766E+04
 0.17303005E+02 -0.16360E+04
 0.17353004E+02 -0.14780E+04
 0.17403006E+02 -0.17149E+04
 0.17453005E+02 -0.14835E+04
 0.17503004E+02 -0.16577E+04
 0.17553005E+02 -0.16068E+04
 0.17603004E+02 -0.15466E+04
 0.17653006E+02 -0.15325E+04
 0.17703005E+02 -0.14837E+04
 0.17753004E+02 -0.15729E+04
 0.17803005E+02 -0.16181E+04
 0.17853004E+02 -0.16083E+04
 0.17903006E+02 -0.16008E+04
 0.17953005E+02 -0.16028E+04
 0.18003004E+02 -0.14211E+04
 0.18053005E+02 -0.17095E+04
 0.18103004E+02 -0.15792E+04
 0.18153006E+02 -0.16985E+04
 0.18203005E+02 -0.13702E+04
 0.18253004E+02 -0.17085E+04
 0.18303005E+02 -0.14621E+04
 0.18353004E+02 -0.17221E+04
 0.18403006E+02 -0.11707E+04
 0.18453005E+02 -0.18514E+04
 0.18503004E+02 -0.15911E+04
 0.18553005E+02 -0.16412E+04
 0.18603004E+02 -0.16703E+04
 0.18653006E+02 -0.13227E+04
 0.18703005E+02 -0.17117E+04
 0.18753004E+02 -0.11842E+04
 0.18803005E+02 -0.20118E+04
 0.18853004E+02 -0.16560E+04
 0.18903006E+02 -0.16208E+04
 0.18953005E+02 -0.13496E+04
 0.19003004E+02 -0.21869E+04
 0.19053005E+02 -0.16366E+04
 0.19103004E+02 -0.14191E+04
 0.19153006E+02 -0.82579E+03
 0.19203005E+02 -0.21901E+04
 0.19253004E+02 -0.16054E+04
 0.19303005E+02 -0.17062E+04
 0.19353004E+02 -0.17760E+04
 0.19403006E+02 -0.17588E+04
 0.19453005E+02 -0.16434E+04
 0.19503004E+02 -0.10510E+04
 0.19553005E+02 -0.12973E+04
 0.19603004E+02 -0.13197E+04
 0.19653006E+02 -0.25948E+04
 0.19703005E+02 -0.13578E+04
 0.19753004E+02 -0.20995E+04
 0.19803005E+02 -0.10195E+04
 0.19853004E+02 -0.99864E+03
 0.19903006E+02 -0.10275E+04
 0.19953005E+02 -0.23578E+04
 0.20003004E+02 -0.25910E+04
 0.20053005E+02 -0.20123E+04
 0.20103004E+02 -0.76065E+03
 0.20153006E+02  0.19857E+03
 0.20203005E+02 -0.18692E+04
 0.20253004E+02 -0.23088E+04
 0.20303005E+02 -0.19222E+04
 0.20353004E+02 -0.21447E+04
 0.20403004E+02 -0.15918E+04
 0.20453005E+02 -0.10200E+04
 0.20503004E+02 -0.13964E+04
 0.20553005E+02 -0.70910E+02
 0.20603004E+02 -0.25276E+04
 0.20653004E+02 -0.22036E+04
 0.20703005E+02 -0.27078E+04
 0.20753004E+02 -0.53778E+03
 0.20803005E+02 -0.16101E+04
 0.20853004E+02 -0.17539E+04
 0.20903004E+02 -0.77152E+03
 0.20953005E+02 -0.23197E+04
 0.21003004E+02 -0.11528E+04
 0.21053005E+02 -0.21734E+04
 0.21103004E+02 -0.16403E+04
 0.21153004E+02 -0.13814E+04
 0.21203005E+02 -0.57560E+03
 0.21253004E+02 -0.23329E+04
 0.21303005E+02 -0.15742E+04
 0.21353004E+02 -0.20519E+04
 0.21403004E+02 -0.11574E+04
 0.21453005E+02 -0.22113E+04
 0.21503004E+02 -0.13585E+04
 0.21553005E+02 -0.12199E+04
 0.21603004E+02 -0.19231E+04
 0.21653004E+02 -0.21291E+04
 0.21703005E+02 -0.23492E+04
 0.21753004E+02 -0.12762E+04
 0.21803005E+02 -0.22471E+04
 0.21853004E+02 -0.15104E+04
 0.21903004E+02 -0.89222E+03
 0.21953005E+02 -0.34895E+03
 0.22003004E+02 -0.21150E+04
 0.22053005E+02 -0.13208E+04
 0.22103004E+02 -0.36234E+04
 0.22153004E+02 -0.22549E+04
 0.22203005E+02  0.86027E+03
 0.22253004E+02 -0.31612E+02
 0.22303005E+02 -0.35183E+04
 0.22353004E+02 -0.39355E+04
 0.22403004E+02 -0.74217E+03
 0.22453005E+02  0.25774E+04
 0.22503004E+02 -0.14649E+04
 0.22553005E+02 -0.35295E+04
 0.22603004E+02 -0.78442E+03
 0.22653004E+02 -0.21501E+04
 0.22703005E+02 -0.24525E+04
 0.22753004E+02 -0.17662E+04
 0.22803005E+02 -0.13215E+03
 0.22853004E+02 -0.37051E+03
 0.22903004E+02 -0.20318E+03
 0.22953005E+02 -0.43589E+04
 0.23003004E+02 -0.38485E+04
 0.23053005E+02 -0.15288E+04
 0.23103004E+02 -0.11676E+03
 0.23153004E+02 -0.17626E+03
 0.23203005E+02 -0.19470E+04
 0.23253004E+02 -0.42127E+04
 0.23303005E+02 -0.15702E+04
 0.23353004E+02  0.84764E+03
 0.23403004E+02  0.38003E+03
 0.23453005E+02 -0.36925E+04
 0.23503004E+02 -0.52113E+04
 0.23553005E+02 -0.76950E+03
 0.23603004E+02  0.47657E+03
 0.23653004E+02 -0.27445E+03
 0.23703005E+02 -0.52496E+04
 0.23753004E+02 -0.30021E+04
 0.23803005E+02  0.42455E+03
 0.23853004E+02  0.21705E+04
 0.23903004E+02  0.37884E+03
 0.23953005E+02 -0.33206E+04
 0.24003004E+02 -0.30207E+04
 0.24053005E+02 -0.36146E+04
 0.24103004E+02  0.65335E+03
 0.24153004E+02 -0.10501E+04
 0.24203005E+02 -0.41364E+04
 0.24253004E+02 -0.22417E+04
 0.24303005E+02 -0.95597E+03
 0.24353004E+02  0.69419E+03
 0.24403004E+02 -0.24272E+04
 0.24453005E+02 -0.24953E+04
 0.24503004E+02  0.16509E+04
 0.24553005E+02 -0.14673E+04
 0.24603004E+02 -0.41131E+04
 0.24653004E+02 -0.19463E+04
 0.24703005E+02 -0.27664E+04
 0.24753004E+02 -0.38524E+04
 0.24803005E+02  0.13664E+03
 0.24853004E+02  0.15533E+04
 0.24903004E+02 -0.16083E+03
 0.24953005E+02 -0.33534E+03
 0.25003004E+02 -0.22524E+04
 0.25053005E+02 -0.74964E+03
 0.25103004E+02 -0.52080E+04
 0.25153004E+02 -0.50862E+04
 0.25203005E+02 -0.15025E+04
 0.25253004E+02 -0.37633E+03
 0.25303005E+02 -0.82490E+03
 0.25353004E+02 -0.87219E+03
 0.25403004E+02 -0.20214E+04
 0.25453005E+02 -0.34695E+03
 0.25503004E+02 -0.14370E+04
 0.25553005E+02 -0.27499E+04
 0.25603004E+02 -0.15155E+04
 0.25653004E+02 -0.31822E+04
 0.25703005E+02 -0.20788E+04
 0.25753004E+02 -0.52015E+04
 0.25803005E+02  0.25401E+03
 0.25853004E+02  0.10196E+04
 0.25903004E+02 -0.86329E+03
 0.25953005E+02 -0.19171E+04
 0.26003004E+02  0.48037E+03
 0.26053005E+02 -0.92909E+03
 0.26103004E+02 -0.24523E+04
 0.26153004E+02 -0.15913E+04
 0.26203005E+02 -0.58181E+04
 0.26253004E+02 -0.29710E+04
 0.26303005E+02 -0.76802E+03
 0.26353004E+02  0.99948E+02
 0.26403004E+02  0.17661E+04
 0.26453005E+02 -0.12158E+04
 0.26503004E+02 -0.33184E+04
 0.26553005E+02 -0.94300E+03
 0.26603004E+02 -0.22121E+04
 0.26653004E+02 -0.26654E+04
 0.26703005E+02 -0.17277E+04
 0.26753004E+02 -0.94769E+03
 0.26803005E+02 -0.25472E+04
 0.26853004E+02 -0.34953E+04
 0.26903004E+02 -0.35824E+04
 0.26953005E+02 -0.11249E+01
 0.27003004E+02  0.31115E+04
 0.27053003E+02  0.31575E+03
 0.27103004E+02 -0.19739E+04
 0.27153004E+02 -0.43420E+04
 0.27203005E+02 -0.54754E+04
 0.27253004E+02 -0.21411E+04
 0.27303003E+02 -0.31459E+04
 0.27353004E+02 -0.21607E+04
 0.27403004E+02  0.52298E+04
 0.27453005E+02  0.33280E+04
 0.27503004E+02 -0.38279E+04
 0.27553003E+02 -0.93648E+04
 0.27603004E+02 -0.37753E+04
 0.27653004E+02  0.18975E+04
 0.27703005E+02  0.24809E+04
 0.27753004E+02 -0.39797E+04
 0.27803003E+02 -0.38605E+04
 0.27853004E+02 -0.25027E+03
 0.27903004E+02 -0.23985E+04
 0.27953005E+02 -0.33797E+02
 0.28003004E+02  0.12025E+04
 0.28053003E+02  0.58933E+03
 0.28103004E+02 -0.41149E+04
 0.28153004E+02 -0.16324E+04
 0.28203005E+02 -0.24777E+03
 0.28253004E+02 -0.13468E+04
 0.28303003E+02 -0.14965E+04
 0.28353004E+02 -0.30573E+03
 0.28403004E+02 -0.47392E+04
 0.28453005E+02 -0.25034E+04
 0.28503004E+02  0.18925E+04
 0.28553003E+02 -0.25207E+04
 0.28603004E+02 -0.39809E+04
 0.28653004E+02 -0.31688E+04
 0.28703005E+02  0.96984E+03
 0.28753004E+02 -0.65109E+03
 0.28803003E+02 -0.18625E+04
 0.28853004E+02 -0.94592E+03
 0.28903004E+02  0.16558E+04
 0.28953005E+02 -0.25819E+04
 0.29003004E+02 -0.82316E+04
 0.29053003E+02 -0.23141E+04
 0.29103004E+02  0.22489E+04
 0.29153004E+02  0.15395E+04
 0.29203005E+02 -0.36701E+04
 0.29253004E+02 -0.31006E+04
 0.29303003E+02 -0.24935E+04
 0.29353004E+02 -0.49467E+04
 0.29403004E+02 -0.32570E+03
 0.29453005E+02  0.20831E+04
 0.29503004E+02  0.94015E+03
 0.29553003E+02 -0.21969E+04
 0.29603004E+02 -0.46170E+04
 0.29653004E+02 -0.15779E+04
 0.29703005E+02 -0.96399E+03
 0.29753004E+02 -0.37864E+04
 0.29803003E+02 -0.23680E+04
 0.29853004E+02  0.79860E+03
 0.29903004E+02  0.22111E+04
 0.29953005E+02 -0.34060E+04
 0.30003004E+02 -0.42961E+04
 0.30053005E+02 -0.38003E+04
 0.30103004E+02 -0.18247E+04
 0.30153004E+02  0.34361E+04
 0.30203003E+02 -0.35865E+03
 0.30253002E+02 -0.41391E+04
 0.30303005E+02 -0.44715E+04
 0.30353004E+02 -0.66105E+02
 0.30403004E+02  0.54666E+03
 0.30453003E+02  0.84031E+02
 0.30503002E+02 -0.87118E+03
 0.30553005E+02 -0.41052E+04
 0.30603004E+02 -0.31765E+04
 0.30653004E+02 -0.42495E+04
 0.30703003E+02 -0.31090E+04
 0.30753002E+02  0.40683E+03
 0.30803005E+02 -0.64552E+03
 0.30853004E+02 -0.19686E+04
 0.30903004E+02 -0.24659E+04
 0.30953003E+02 -0.23374E+04
 0.31003002E+02 -0.18659E+04
 0.31053005E+02 -0.33239E+04
 0.31103004E+02  0.45365E+03
 0.31153004E+02  0.14857E+04
 0.31203003E+02 -0.31649E+04
 0.31253002E+02 -0.47945E+04
 0.31303005E+02 -0.80946E+01
 0.31353004E+02  0.14222E+04
 0.31403004E+02 -0.12279E+04
 0.31453003E+02 -0.71168E+04
 0.31503002E+02 -0.46821E+04
 0.31553005E+02  0.66710E+04
 0.31603004E+02  0.26499E+04
 0.31653004E+02 -0.74414E+04
 0.31703003E+02 -0.65365E+04
 0.31753002E+02  0.50751E+04
 0.31803005E+02  0.40857E+04
 0.31853004E+02 -0.10671E+05
 0.31903004E+02 -0.85304E+04
 0.31953003E+02  0.71102E+04
 0.32003002E+02  0.36315E+04
 0.32053005E+02 -0.10666E+05
 0.32103004E+02 -0.91597E+04
 0.32153004E+02  0.80571E+04
 0.32203003E+02  0.68800E+04
 0.32253002E+02 -0.80502E+04
 0.32303005E+02 -0.60665E+04
 0.32353004E+02  0.88569E+03
 0.32403004E+02  0.58785E+04
 0.32453003E+02 -0.20603E+04
 0.32503002E+02 -0.12981E+05
 0.32553005E+02 -0.56772E+04
 0.32603004E+02  0.57830E+04
 0.32653004E+02  0.91053E+04
 0.32703003E+02 -0.37101E+04
 0.32753002E+02 -0.13007E+05
 0.32803005E+02  0.25648E+04
 0.32853004E+02  0.78793E+04
 0.32903004E+02 -0.68232E+04
 0.32953003E+02 -0.12741E+05
 0.33003002E+02  0.57558E+04
 0.33053005E+02  0.10106E+05
 0.33103004E+02 -0.99294E+04
 0.33153004E+02 -0.11904E+05
 0.33203003E+02  0.54384E+04
 0.33253002E+02  0.12177E+05
 0.33303005E+02 -0.88334E+04
 0.33353004E+02 -0.13692E+05
 0.33403004E+02  0.43282E+04
 0.33453003E+02  0.11057E+05
 0.33503002E+02 -0.59273E+04
 0.33553005E+02 -0.12074E+05
 0.33603004E+02  0.31391E+04
 0.33653004E+02  0.51563E+04
 0.33703003E+02 -0.53615E+04
 0.33753002E+02 -0.83710E+04
 0.33803005E+02  0.58496E+04
 0.33853004E+02  0.92859E+04
 0.33903004E+02 -0.81046E+04
 0.33953003E+02 -0.11496E+05
 0.34003002E+02  0.18709E+04
 0.34053005E+02  0.74991E+04
 0.34103004E+02 -0.58936E+04
 0.34153004E+02 -0.14176E+05
 0.34203003E+02  0.18709E+04
 0.34253002E+02  0.10428E+05
 0.34303005E+02  0.41254E+03
 0.34353004E+02 -0.10040E+05
 0.34403004E+02 -0.32144E+04
 0.34453003E+02  0.47852E+04
 0.34503002E+02  0.73073E+04
 0.34553005E+02 -0.10156E+02
 0.34603004E+02 -0.63422E+04
 0.34653004E+02 -0.47229E+04
 0.34703003E+02 -0.41320E+04
 0.34753002E+02 -0.53436E+04
 0.34803005E+02 -0.12768E+05
 0.34853004E+02 -0.47266E+04
 0.34903004E+02  0.50090E+04
 0.34953003E+02  0.53917E+04
 0.35003002E+02  0.73902E+03
 0.35053005E+02  0.27097E+03
 0.35103004E+02  0.36387E+04
 0.35153004E+02 -0.60265E+04
 0.35203003E+02 -0.76592E+04
 0.35253002E+02 -0.26999E+04
 0.35303005E+02 -0.39037E+04
 0.35353004E+02 -0.11376E+05
 0.35403004E+02 -0.14461E+04
 0.35453003E+02  0.73219E+04
 0.35503002E+02 -0.39952E+04
 0.35553005E+02 -0.28211E+04
 0.35603004E+02  0.64344E+04
 0.35653004E+02  0.77847E+04
 0.35703003E+02 -0.33760E+04
 0.35753002E+02 -0.99226E+04
 0.35803005E+02 -0.85665E+04
 0.35853004E+02  0.53513E+04
 0.35903004E+02  0.31504E+04
 0.35953003E+02 -0.73911E+04
 0.36003002E+02 -0.24478E+04
 0.36053005E+02 -0.17798E+03
 0.36103004E+02  0.39018E+03
 0.36153004E+02 -0.10068E+04
 0.36203003E+02 -0.23708E+04
 0.36253002E+02 -0.82899E+04
 0.36303005E+02 -0.13907E+04
 0.36353004E+02  0.60412E+04
 0.36403004E+02 -0.72021E+04
 0.36453003E+02 -0.10854E+05
 0.36503002E+02 -0.31952E+04
 0.36553005E+02 -0.35753E+04
 0.36603004E+02 -0.53464E+04
 0.36653004E+02  0.39280E+04
 0.36703003E+02  0.15714E+05
 0.36753002E+02 -0.52135E+03
 0.36803005E+02 -0.42133E+04
 0.36853004E+02  0.11205E+05
 0.36903004E+02 -0.47014E+03
 0.36953003E+02 -0.20378E+05
 0.37003002E+02 -0.18637E+05
 0.37053005E+02 -0.23971E+04
 0.37103004E+02 -0.17236E+04
 0.37153004E+02  0.42832E+04
 0.37203003E+02  0.10762E+05
 0.37253002E+02  0.38229E+03
 0.37303005E+02 -0.80461E+04
 0.37353004E+02  0.25464E+04
 0.37403004E+02  0.10851E+05
 0.37453003E+02  0.23745E+04
 0.37503002E+02 -0.10398E+05
 0.37553005E+02 -0.10944E+05
 0.37603004E+02 -0.59898E+04
 0.37653004E+02 -0.16938E+04
 0.37703003E+02  0.81653E+04
 0.37753002E+02  0.36741E+03
 0.37803005E+02 -0.71536E+04
 0.37853004E+02 -0.53754E+04
 0.37903004E+02  0.23756E+04
 0.37953003E+02  0.56917E+04
 0.38003002E+02  0.13619E+03
 0.38053005E+02  0.56208E+04
 0.38103004E+02 -0.24324E+04
 0.38153004E+02 -0.15720E+05
 0.38203003E+02 -0.45703E+04
 0.38253002E+02  0.16767E+04
 0.38303005E+02 -0.16893E+04
 0.38353004E+02 -0.71870E+04
 0.38403004E+02  0.57226E+04
 0.38453003E+02  0.82941E+04
 0.38503002E+02 -0.14264E+05
 0.38553005E+02 -0.19670E+05
 0.38603004E+02 -0.80727E+04
 0.38653004E+02  0.12353E+05
 0.38703003E+02  0.12924E+05
 0.38753002E+02  0.13985E+05
 0.38803005E+02  0.55742E+04
 0.38853004E+02 -0.78338E+04
 0.38903004E+02 -0.48112E+04
 0.38953003E+02  0.67659E+03
 0.39003002E+02 -0.33412E+04
 0.39053005E+02 -0.93355E+04
 0.39103004E+02 -0.36302E+04
 0.39153004E+02 -0.47568E+04
 0.39203003E+02 -0.54377E+04
 0.39253002E+02 -0.34349E+04
 0.39303005E+02  0.50996E+04
 0.39353004E+02  0.68032E+04
 0.39403004E+02  0.55036E+04
 0.39453003E+02 -0.30764E+04
 0.39503002E+02 -0.11857E+05
 0.39553005E+02 -0.92113E+04
 0.39603004E+02 -0.59512E+04
 0.39653004E+02  0.59741E+04
 0.39703003E+02  0.37294E+04
 0.39753002E+02  0.18638E+04
 0.39803005E+02  0.72773E+04
 0.39853004E+02 -0.76917E+04
 0.39903004E+02 -0.12830E+05
 0.39953003E+02 -0.47881E+04
 0.40003002E+02  0.95369E+04
 0.40053005E+02  0.11366E+05
 0.40103004E+02 -0.28007E+04
 0.40153004E+02 -0.12966E+05
 0.40203003E+02 -0.14523E+05
 0.40253002E+02  0.54183E+04
 0.40303005E+02  0.15451E+05
 0.40353004E+02  0.38521E+04
 0.40403004E+02 -0.87840E+04
 0.40453003E+02 -0.59122E+04
 0.40503002E+02  0.14923E+04
 0.40553005E+02  0.57147E+04
 0.40603004E+02  0.18151E+04
 0.40653004E+02 -0.87853E+04
 0.40703003E+02 -0.56659E+04
 0.40753002E+02 -0.24548E+04
 0.40803005E+02 -0.32971E+04
 0.40853004E+02 -0.11198E+05
 0.40903004E+02 -0.12369E+05
 0.40953003E+02 -0.16119E+04
 0.41003002E+02  0.92147E+04
 0.41053005E+02  0.19540E+04
 0.41103004E+02 -0.80058E+04
 0.41153004E+02  0.56084E+03
 0.41203003E+02  0.51857E+04
 0.41253002E+02  0.12024E+04
 0.41303005E+02 -0.39840E+04
 0.41353004E+02  0.35690E+03
 0.41403004E+02 -0.37667E+04
 0.41453003E+02 -0.13178E+05
 0.41503002E+02 -0.70997E+04
 0.41553005E+02  0.20497E+04
 0.41603004E+02  0.61304E+02
 0.41653004E+02  0.47404E+03
 0.41703003E+02  0.64342E+04
 0.41753002E+02  0.44189E+04
 0.41803005E+02 -0.76125E+04
 0.41853004E+02 -0.87300E+04
 0.41903004E+02 -0.14443E+04
 0.41953003E+02  0.13464E+04
 0.42003002E+02 -0.21677E+04
 0.42053005E+02 -0.82852E+04
 0.42103004E+02 -0.16841E+04
 0.42153004E+02  0.18910E+04
 0.42203003E+02 -0.37026E+04
 0.42253002E+02 -0.79354E+04
 0.42303005E+02 -0.54587E+04
 0.42353004E+02 -0.23707E+04
 0.42403004E+02 -0.74550E+03
 0.42453003E+02 -0.14536E+04
 0.42503002E+02 -0.65711E+04
 0.42553005E+02 -0.11989E+05
 0.42603004E+02 -0.73841E+04
 0.42653004E+02  0.60708E+04
 0.42703003E+02  0.84958E+04
 0.42753002E+02  0.38094E+03
 0.42803001E+02 -0.87638E+04
 0.42853004E+02 -0.30276E+04
 0.42903004E+02  0.43572E+04
 0.42953003E+02 -0.59997E+03
 0.43003002E+02 -0.68422E+04
 0.43053001E+02 -0.59185E+04
 0.43103004E+02  0.17644E+04
 0.43153004E+02  0.49707E+04
 0.43203003E+02 -0.44813E+04
 0.43253002E+02 -0.38302E+04
 0.43303001E+02  0.29148E+04
 0.43353004E+02 -0.16742E+04
 0.43403004E+02 -0.70281E+04
 0.43453003E+02 -0.65278E+04
 0.43503002E+02 -0.34931E+04
 0.43553001E+02 -0.38027E+04
 0.43603004E+02  0.29857E+04
 0.43653004E+02  0.44264E+04
 0.43703003E+02  0.31677E+03
 0.43753002E+02 -0.40048E+04
 0.43803001E+02 -0.36313E+04
 0.43853004E+02  0.52619E+04
 0.43903004E+02  0.91940E+04
 0.43953003E+02  0.33591E+03
 0.44003002E+02 -0.46660E+04
 0.44053001E+02 -0.27661E+04
 0.44103004E+02 -0.17384E+04
 0.44153004E+02 -0.26796E+03
 0.44203003E+02 -0.29717E+04
 0.44253002E+02 -0.54827E+04
 0.44303001E+02 -0.14457E+04
 0.44353004E+02  0.44179E+04
 0.44403004E+02  0.27958E+04
 0.44453003E+02  0.33864E+03
 0.44503002E+02  0.59329E+04
 0.44553001E+02  0.37529E+04
 0.44603004E+02 -0.81809E+04
 0.44653004E+02 -0.11972E+05
 0.44703003E+02 -0.72289E+04
 0.44753002E+02 -0.10121E+04
 0.44803001E+02  0.13577E+04
 0.44853004E+02  0.13394E+03
 0.44903004E+02 -0.22905E+04
 0.44953003E+02 -0.76977E+03
 0.45003002E+02  0.83029E+03
 0.45053001E+02  0.16624E+04
 0.45103004E+02  0.42188E+04
 0.45153004E+02  0.37955E+02
 0.45203003E+02 -0.52863E+04
 0.45253002E+02 -0.51720E+04
 0.45303001E+02 -0.45717E+04
 0.45353004E+02 -0.16925E+04
 0.45403004E+02 -0.19192E+04
 0.45453003E+02 -0.36493E+04
 0.45503002E+02 -0.25211E+03
 0.45553001E+02  0.22111E+04
 0.45603004E+02 -0.18566E+04
 0.45653004E+02 -0.26180E+04
 0.45703003E+02  0.11462E+04
 0.45753002E+02  0.91430E+03
 0.45803001E+02 -0.45164E+04
 0.45853004E+02 -0.87422E+04
 0.45903004E+02 -0.67687E+04
 0.45953003E+02 -0.19280E+04
 0.46003002E+02  0.25364E+04
 0.46053001E+02  0.35496E+04
 0.46103004E+02 -0.38684E+04
 0.46153004E+02 -0.40562E+04
 0.46203003E+02  0.39570E+04
 0.46253002E+02  0.49304E+04
 0.46303001E+02 -0.91799E+03
 0.46353004E+02 -0.57563E+04
 0.46403004E+02 -0.43513E+04
 0.46453003E+02 -0.49775E+04
 0.46503002E+02 -0.35834E+04
 0.46553001E+02 -0.10405E+04
 0.46603004E+02 -0.84201E+03
 0.46653004E+02 -0.33566E+04
 0.46703003E+02 -0.60236E+04
 0.46753002E+02 -0.24324E+04
 0.46803001E+02  0.10268E+04
 0.46853004E+02  0.60281E+03
 0.46903004E+02 -0.51621E+03
 0.46953003E+02 -0.14417E+03
 0.47003002E+02  0.21450E+04
 0.47053001E+02 -0.10355E+03
 0.47103004E+02 -0.37440E+04
 0.47153004E+02 -0.69643E+03
 0.47203003E+02  0.14690E+04
 0.47253002E+02 -0.31693E+04
 0.47303001E+02 -0.72909E+04
 0.47353004E+02 -0.67795E+04
 0.47403004E+02 -0.25312E+04
 0.47453003E+02 -0.28585E+04
 0.47503002E+02 -0.28853E+04
 0.47553001E+02 -0.97865E+03
 0.47603004E+02 -0.52479E+04
 0.47653004E+02 -0.63697E+04
 0.47703003E+02 -0.25319E+04
 0.47753002E+02  0.83329E+03
 0.47803001E+02 -0.26036E+04
 0.47853004E+02 -0.62151E+04
 0.47903004E+02 -0.60266E+04
 0.47953003E+02 -0.56472E+04
 0.48003002E+02 -0.51764E+04
 0.48053001E+02 -0.41913E+04
 0.48103004E+02 -0.45779E+04
 0.48153004E+02 -0.50141E+04
 0.48203003E+02 -0.42995E+04
 0.48253002E+02 -0.34545E+04
 0.48303001E+02  0.92673E+03
 0.48353004E+02  0.44054E+04
 0.48403004E+02  0.50665E+04
 0.48453003E+02  0.53032E+04
 0.48503002E+02  0.67300E+04
 0.48553001E+02  0.46798E+04
 0.48603004E+02  0.26037E+03
 0.48653004E+02 -0.26266E+04
 0.48703003E+02 -0.37701E+04
 0.48753002E+02 -0.45931E+04
 0.48803001E+02 -0.31657E+04
 0.48853004E+02  0.69354E+03
 0.48903004E+02  0.64108E+04
 0.48953003E+02  0.99661E+04
 0.49003002E+02  0.56157E+04
 0.49053001E+02 -0.26950E+03
 0.49103004E+02 -0.18241E+04
 0.49153004E+02  0.16419E+04
 0.49203003E+02 -0.79089E+03
 0.49253002E+02 -0.48249E+04
 0.49303001E+02 -0.34898E+04
 0.49353004E+02 -0.18671E+04
 0.49403004E+02  0.56682E+03
 0.49453003E+02  0.38168E+03
 0.49503002E+02 -0.62153E+03
 0.49553001E+02 -0.42520E+03
 0.49603004E+02 -0.15464E+04
 0.49653004E+02 -0.42725E+04
 0.49703003E+02 -0.66095E+04
 0.49753002E+02 -0.38180E+04
 0.49803001E+02 -0.84835E+03
 0.49853004E+02 -0.24103E+04
 0.49903004E+02 -0.96761E+03
 0.49953003E+02  0.39599E+04
 0.50003002E+02  0.72625E+03
 0.50053001E+02 -0.50279E+04
 0.50103004E+02 -0.20061E+04
 0.50153004E+02  0.21392E+03
 0.50203003E+02 -0.31281E+04
 0.50253002E+02 -0.65321E+04
 0.50303001E+02 -0.44996E+04
 0.50353004E+02 -0.17259E+04
 0.50403004E+02 -0.13271E+04
 0.50453003E+02  0.11915E+03
 0.50503002E+02  0.79603E+03
 0.50553001E+02  0.35721E+02
 0.50603004E+02 -0.18619E+04
 0.50653004E+02 -0.39545E+04
 0.50703003E+02 -0.14856E+04
 0.50753002E+02 -0.15979E+04
 0.50803001E+02 -0.72689E+04
 0.50853004E+02 -0.73824E+04
 0.50903004E+02 -0.47209E+04
 0.50953003E+02 -0.61137E+03
 0.51003002E+02  0.96786E+03
 0.51053001E+02  0.36519E+04
 0.51103004E+02  0.70032E+04
 0.51153004E+02  0.38984E+04
 0.51203003E+02  0.11878E+04
 0.51253002E+02 -0.16750E+04
 0.51303001E+02 -0.19591E+04
 0.51353004E+02 -0.31358E+04
 0.51403004E+02 -0.41445E+04
 0.51453003E+02 -0.66994E+03
 0.51503002E+02  0.36551E+02
 0.51553001E+02 -0.11329E+04
 0.51603004E+02 -0.40643E+04
 0.51653004E+02 -0.50805E+04
 0.51703003E+02 -0.47917E+04
 0.51753002E+02 -0.39231E+04
 0.51803001E+02 -0.92525E+03
 0.51853004E+02 -0.16910E+04
 0.51903004E+02 -0.20858E+04
 0.51953003E+02  0.16333E+04
 0.52003002E+02  0.38807E+04
 0.52053001E+02  0.12664E+04
 0.52103004E+02 -0.43890E+04
 0.52153004E+02 -0.62810E+04
 0.52203003E+02 -0.32426E+04
 0.52253002E+02  0.10090E+03
 0.52303001E+02  0.67000E+03
 0.52353004E+02 -0.75348E+03
 0.52403004E+02 -0.12192E+04
 0.52453003E+02 -0.17328E+04
 0.52503002E+02 -0.28533E+04
 0.52553001E+02 -0.49902E+04
 0.52603004E+02 -0.75811E+04
 0.52653004E+02 -0.67143E+04
 0.52703003E+02 -0.24294E+04
 0.52753002E+02 -0.22950E+04
 0.52803001E+02 -0.28612E+04
 0.52853004E+02 -0.22535E+03
 0.52903004E+02  0.14339E+04
 0.52953003E+02  0.11490E+03
 0.53003002E+02 -0.21961E+04
 0.53053001E+02 -0.10909E+04
 0.53103004E+02 -0.18376E+04
 0.53153004E+02 -0.62468E+04
 0.53203003E+02 -0.68755E+04
 0.53253002E+02 -0.43213E+04
 0.53303001E+02 -0.31473E+04
 0.53353004E+02 -0.36038E+04
 0.53403004E+02 -0.51591E+04
 0.53453003E+02 -0.67415E+04
 0.53503002E+02 -0.41474E+04
 0.53553001E+02 -0.28574E+04
 0.53603004E+02 -0.32593E+04
 0.53653004E+02 -0.22767E+04
 0.53703003E+02 -0.71777E+03
 0.53753002E+02 -0.37230E+03
 0.53803001E+02 -0.37687E+04
 0.53853004E+02 -0.38954E+04
 0.53903004E+02 -0.33758E+04
 0.53953003E+02 -0.31860E+04
 0.54003002E+02 -0.44647E+04
 0.54053001E+02 -0.61078E+04
 0.54103004E+02 -0.49311E+04
 0.54153004E+02 -0.25699E+04
 0.54203003E+02  0.22662E+04
 0.54253002E+02  0.38492E+04
 0.54303001E+02  0.13790E+04
 0.54353004E+02  0.16871E+03
 0.54403004E+02  0.74799E+02
 0.54453003E+02  0.27402E+04
 0.54503002E+02  0.52549E+04
 0.54553001E+02  0.59012E+04
 0.54603004E+02  0.43003E+04
 0.54653004E+02  0.20162E+04
 0.54703003E+02  0.21403E+04
 0.54753002E+02  0.16858E+04
 0.54803001E+02 -0.55144E+03
 0.54853004E+02 -0.24190E+04
 0.54903004E+02 -0.31516E+04
 0.54953003E+02 -0.49458E+04
 0.55003002E+02 -0.37159E+04
 0.55053001E+02 -0.14256E+04
 0.55103004E+02 -0.22405E+04
 0.55153004E+02 -0.18381E+04
 0.55203003E+02  0.13996E+04
 0.55253002E+02  0.31147E+04
 0.55303001E+02  0.24184E+04
 0.55353004E+02  0.92405E+03
 0.55403004E+02 -0.18790E+04
 0.55453003E+02 -0.42639E+04
 0.55503002E+02 -0.44219E+04
 0.55553001E+02 -0.20866E+04
 0.55603004E+02 -0.70086E+03
 0.55653004E+02 -0.11151E+04
 0.55703003E+02 -0.26336E+04
 0.55753002E+02 -0.33751E+04
 0.55803001E+02 -0.25832E+04
 0.55853001E+02 -0.21567E+04
 0.55903004E+02 -0.10810E+03
 0.55953003E+02  0.54076E+03
 0.56003002E+02  0.15220E+03
 0.56053001E+02 -0.18657E+04
 0.56103001E+02 -0.34612E+04
 0.56153004E+02 -0.22619E+04
 0.56203003E+02 -0.80829E+03
 0.56253002E+02  0.50193E+03
 0.56303001E+02  0.46359E+03
 0.56353001E+02 -0.91782E+03
 0.56403004E+02 -0.32996E+04
 0.56453003E+02 -0.39849E+04
 0.56503002E+02 -0.41419E+04
 0.56553001E+02 -0.32569E+04
 0.56603001E+02 -0.25887E+04
 0.56653004E+02 -0.34744E+04
 0.56703003E+02 -0.36209E+04
 0.56753002E+02 -0.31227E+04
 0.56803001E+02 -0.19235E+04
 0.56853001E+02 -0.14541E+04
 0.56903004E+02 -0.85129E+03
 0.56953003E+02 -0.45727E+03
 0.57003002E+02 -0.22323E+03
 0.57053001E+02 -0.13333E+04
 0.57103001E+02 -0.34516E+04
 0.57153004E+02 -0.31697E+04
 0.57203003E+02 -0.29475E+04
 0.57253002E+02 -0.30423E+04
 0.57303001E+02 -0.33362E+04
 0.57353001E+02 -0.22794E+04
 0.57403004E+02 -0.58759E+03
 0.57453003E+02  0.15414E+03
 0.57503002E+02  0.13184E+04
 0.57553001E+02  0.11531E+04
 0.57603001E+02  0.11635E+03
 0.57653004E+02 -0.63801E+03
 0.57703003E+02 -0.16457E+04
 0.57753002E+02 -0.66062E+03
 0.57803001E+02  0.12292E+03
 0.57853001E+02 -0.11527E+04
 0.57903004E+02 -0.49874E+03
 0.57953003E+02  0.24714E+03
 0.58003002E+02  0.16108E+02
 0.58053001E+02 -0.10290E+04
 0.58103001E+02 -0.19161E+04
 0.58153004E+02  0.96172E+03
 0.58203003E+02  0.26014E+04
 0.58253002E+02 -0.76281E+03
 0.58303001E+02 -0.27261E+04
 0.58353001E+02 -0.29956E+04
 0.58403004E+02 -0.37328E+04
 0.58453003E+02 -0.41076E+04
 0.58503002E+02 -0.37192E+04
 0.58553001E+02 -0.23010E+04
 0.58603001E+02 -0.18413E+04
 0.58653004E+02 -0.34406E+04
 0.58703003E+02 -0.44512E+04
 0.58753002E+02 -0.32053E+04
 0.58803001E+02 -0.23722E+04
 0.58853001E+02 -0.18268E+04
 0.58903004E+02 -0.14283E+04
 0.58953003E+02 -0.14732E+04
 0.59003002E+02 -0.16773E+04
 0.59053001E+02 -0.24592E+04
 0.59103001E+02 -0.11639E+04
 0.59153004E+02 -0.11113E+04
 0.59203003E+02 -0.26161E+04
 0.59253002E+02 -0.25259E+04
 0.59303001E+02 -0.19703E+04
 0.59353001E+02 -0.19342E+04
 0.59403004E+02 -0.20801E+04
 0.59453003E+02 -0.13028E+04
 0.59503002E+02 -0.91665E+03
 0.59553001E+02 -0.17724E+04
 0.59603001E+02 -0.24724E+04
 0.59653004E+02 -0.16105E+04
 0.59703003E+02 -0.92726E+03
 0.59753002E+02  0.25325E+03
 0.59803001E+02  0.19382E+03
 0.59853001E+02 -0.26225E+04
 0.59903004E+02 -0.42304E+04
 0.59953003E+02 -0.34863E+04
 0.60003002E+02 -0.21108E+04
 0.60053001E+02 -0.87309E+03
 0.60103001E+02 -0.26736E+03
 0.60153004E+02  0.10567E+03
 0.60203003E+02 -0.22193E+03
 0.60253002E+02 -0.11988E+04
 0.60303001E+02 -0.14501E+04
 0.60353001E+02 -0.30598E+04
 0.60403004E+02 -0.36282E+04
 0.60453003E+02 -0.10899E+04
 0.60503002E+02 -0.21451E+03
 0.60553001E+02 -0.10633E+02
 0.60603001E+02  0.13496E+04
 0.60653004E+02  0.13859E+04
 0.60703003E+02  0.76465E+02
 0.60753002E+02 -0.76749E+02
 0.60803001E+02 -0.10031E+04
 0.60853001E+02 -0.40178E+04
 0.60903004E+02 -0.52666E+04
 0.60953003E+02 -0.37019E+04
 0.61003002E+02 -0.21026E+04
 0.61053001E+02 -0.29385E+04
 0.61103001E+02 -0.34115E+04
 0.61153004E+02 -0.22547E+04
 0.61203003E+02 -0.13875E+04
 0.61253002E+02 -0.14715E+04
 0.61303001E+02 -0.12170E+04
 0.61353001E+02 -0.11595E+04
 0.61403004E+02 -0.10236E+04
 0.61453003E+02 -0.26581E+04
 0.61503002E+02 -0.41432E+04
 0.61553001E+02 -0.37329E+04
 0.61603001E+02 -0.36924E+04
 0.61653004E+02 -0.28784E+04
 0.61703003E+02 -0.26549E+04
 0.61753002E+02 -0.32434E+04
 0.61803001E+02 -0.46843E+04
 0.61853001E+02 -0.54487E+04
 0.61903004E+02 -0.40890E+04
 0.61953003E+02 -0.15759E+04
 0.62003002E+02  0.14768E+03
 0.62053001E+02  0.70395E+03
 0.62103004E+02  0.17434E+04
 0.62153000E+02  0.25121E+04
 0.62203003E+02  0.26587E+04
 0.62252998E+02  0.24347E+04
 0.62303001E+02  0.15386E+04
 0.62353004E+02  0.70514E+03
 0.62403000E+02  0.69451E+03
 0.62453003E+02  0.13555E+04
 0.62502998E+02  0.14399E+04
 0.62553001E+02 -0.14882E+03
 0.62603004E+02 -0.12197E+04
 0.62653000E+02 -0.16076E+04
 0.62703003E+02 -0.28562E+04
 0.62752998E+02 -0.40761E+04
 0.62803001E+02 -0.43387E+04
 0.62853004E+02 -0.31967E+04
 0.62903000E+02 -0.28346E+04
 0.62953003E+02 -0.24310E+04
 0.63002998E+02 -0.29922E+04
 0.63053001E+02 -0.26772E+04
 0.63103004E+02 -0.12042E+04
 0.63153000E+02 -0.64678E+03
 0.63203003E+02 -0.43819E+03
 0.63252998E+02 -0.14879E+04
 0.63303001E+02 -0.17043E+04
 0.63353004E+02 -0.16184E+04
 0.63403000E+02 -0.23599E+04
 0.63453003E+02 -0.37557E+04
 0.63502998E+02 -0.41155E+04
 0.63553001E+02 -0.35411E+04
 0.63603004E+02 -0.30646E+04
 0.63653000E+02 -0.27816E+04
 0.63703003E+02 -0.26599E+04
 0.63752998E+02 -0.23464E+04
 0.63803001E+02 -0.23350E+04
 0.63853004E+02 -0.16171E+04
 0.63903000E+02 -0.16955E+03
 0.63953003E+02 -0.17142E+01
 0.64002998E+02 -0.63507E+03
 0.64053001E+02 -0.32506E+02
 0.64103004E+02  0.24708E+03
 0.64153000E+02 -0.16356E+04
 0.64203003E+02 -0.30905E+04
 0.64252998E+02 -0.29904E+04
 0.64303001E+02 -0.23327E+04
 0.64353004E+02 -0.18236E+04
 0.64403000E+02 -0.17129E+04
 0.64453003E+02 -0.19414E+04
 0.64502998E+02 -0.23290E+04
 0.64553001E+02 -0.33633E+04
 0.64603004E+02 -0.33278E+04
 0.64653000E+02 -0.25558E+04
 0.64703003E+02 -0.27238E+04
 0.64752998E+02 -0.19643E+04
 0.64803001E+02 -0.40966E+03
 0.64853004E+02  0.81061E+03
 0.64903000E+02  0.53182E+03
 0.64953003E+02  0.35129E+03
 0.65002998E+02  0.63518E+03
 0.65053001E+02  0.14848E+04
 0.65103004E+02  0.57778E+03
 0.65153000E+02 -0.72239E+03
 0.65203003E+02 -0.93138E+03
 0.65252998E+02 -0.16604E+04
 0.65303001E+02 -0.11110E+04
 0.65353004E+02 -0.71264E+03
 0.65403000E+02 -0.10227E+04
 0.65453003E+02 -0.21094E+04
 0.65502998E+02 -0.24310E+04
 0.65553001E+02 -0.24789E+04
 0.65603004E+02 -0.16007E+04
 0.65653000E+02 -0.47141E+03
 0.65703003E+02 -0.14183E+04
 0.65752998E+02 -0.21529E+04
 0.65803001E+02 -0.24681E+04
 0.65853004E+02 -0.20858E+04
 0.65903000E+02 -0.10467E+04
 0.65953003E+02 -0.54269E+03
 0.66002998E+02 -0.54466E+03
 0.66053001E+02 -0.10298E+04
 0.66103004E+02 -0.12087E+04
 0.66153000E+02 -0.14717E+04
 0.66203003E+02 -0.15687E+04
 0.66252998E+02 -0.15364E+04
 0.66303001E+02 -0.13171E+04
 0.66353004E+02 -0.76960E+03
 0.66403000E+02 -0.77662E+03
 0.66453003E+02 -0.12195E+04
 0.66502998E+02 -0.15189E+04
 0.66553001E+02 -0.12191E+04
 0.66603004E+02 -0.11546E+04
 0.66653000E+02 -0.13837E+04
 0.66703003E+02 -0.20363E+04
 0.66752998E+02 -0.17119E+04
 0.66803001E+02 -0.98060E+03
 0.66853004E+02 -0.86371E+03
 0.66903000E+02 -0.24110E+04
 0.66953003E+02 -0.40266E+04
 0.67002998E+02 -0.45521E+04
 0.67053001E+02 -0.44818E+04
 0.67103004E+02 -0.35741E+04
 0.67153000E+02 -0.34735E+04
 0.67203003E+02 -0.33122E+04
 0.67252998E+02 -0.30672E+04
 0.67303001E+02 -0.30606E+04
 0.67353004E+02 -0.35422E+04
 0.67403000E+02 -0.39004E+04
 0.67453003E+02 -0.34736E+04
 0.67502998E+02 -0.26888E+04
 0.67553001E+02 -0.21329E+04
 0.67603004E+02 -0.13349E+04
 0.67653000E+02 -0.71171E+03
 0.67703003E+02  0.77991E+02
 0.67752998E+02  0.20450E+03
 0.67803001E+02 -0.15064E+03
 0.67853004E+02  0.40028E+03
 0.67903000E+02 -0.17509E+03
 0.67953003E+02 -0.15960E+04
 0.68002998E+02 -0.26281E+04
 0.68053001E+02 -0.24052E+04
 0.68103004E+02 -0.19938E+04
 0.68153000E+02 -0.18594E+04
 0.68203003E+02 -0.91118E+03
 0.68252998E+02 -0.54365E+03
 0.68303001E+02 -0.12052E+04
 0.68353004E+02 -0.11270E+04
 0.68403000E+02 -0.51465E+03
 0.68453003E+02 -0.44417E+03
 0.68502998E+02 -0.70953E+03
 0.68553001E+02 -0.91027E+03
 0.68603004E+02 -0.28733E+03
 0.68653000E+02  0.51773E+03
 0.68703003E+02  0.53782E+03
 0.68752998E+02 -0.16983E+03
 0.68803001E+02 -0.86509E+03
 0.68853004E+02 -0.89224E+03
 0.68903000E+02 -0.15492E+04
 0.68953003E+02 -0.23118E+04
 0.69002998E+02 -0.24232E+04
 0.69053001E+02 -0.24697E+04
 0.69103004E+02 -0.25473E+04
 0.69153000E+02 -0.27573E+04
 0.69203003E+02 -0.22838E+04
 0.69252998E+02 -0.14289E+04
 0.69303001E+02 -0.72123E+03
 0.69353004E+02 -0.10717E+04
 0.69403000E+02 -0.19712E+04
 0.69453003E+02 -0.15714E+04
 0.69502998E+02 -0.14332E+04
 0.69553001E+02 -0.21628E+04
 0.69603004E+02 -0.20968E+04
 0.69653000E+02 -0.14834E+04
 0.69703003E+02 -0.10972E+04
 0.69752998E+02 -0.50183E+03
 0.69803001E+02 -0.69371E+03
 0.69853004E+02 -0.79279E+03
 0.69903000E+02 -0.60211E+03
 0.69953003E+02 -0.10063E+04
 0.70002998E+02 -0.14490E+04
 0.70053001E+02 -0.21710E+04
 0.70103004E+02 -0.21125E+04
 0.70153000E+02 -0.20589E+04
 0.70203003E+02 -0.23519E+04
 0.70252998E+02 -0.26650E+04
 0.70303001E+02 -0.25332E+04
 0.70353004E+02 -0.22414E+04
 0.70403000E+02 -0.24823E+04
 0.70453003E+02 -0.23884E+04
 0.70502998E+02 -0.22219E+04
 0.70553001E+02 -0.17896E+04
 0.70603004E+02 -0.11945E+04
 0.70653000E+02 -0.75497E+03
 0.70703003E+02 -0.43492E+03
 0.70752998E+02 -0.10391E+04
 0.70803001E+02 -0.18870E+04
 0.70853004E+02 -0.18069E+04
 0.70903000E+02 -0.18868E+04
 0.70953003E+02 -0.22822E+04
 0.71002998E+02 -0.28573E+04
 0.71053001E+02 -0.35936E+04
 0.71103004E+02 -0.37296E+04
 0.71153000E+02 -0.31284E+04
 0.71203003E+02 -0.31401E+04
 0.71252998E+02 -0.35249E+04
 0.71303001E+02 -0.35292E+04
 0.71353004E+02 -0.33804E+04
 0.71403000E+02 -0.24755E+04
 0.71453003E+02 -0.14063E+04
 0.71502998E+02 -0.81360E+03
 0.71553001E+02 -0.99281E+03
 0.71603004E+02 -0.12923E+04
 0.71653000E+02 -0.97572E+03
 0.71703003E+02 -0.20246E+03
 0.71752998E+02  0.44702E+03
 0.71803001E+02  0.18638E+03
 0.71853004E+02 -0.29744E+03
 0.71903000E+02 -0.41043E+03
 0.71953003E+02 -0.50404E+03
 0.72002998E+02 -0.89863E+03
 0.72053001E+02 -0.10441E+04
 0.72103004E+02 -0.12548E+04
 0.72153000E+02 -0.14511E+04
 0.72203003E+02 -0.11342E+04
 0.72252998E+02 -0.80981E+03
 0.72303001E+02 -0.36363E+03
 0.72353004E+02 -0.11324E+03
 0.72403000E+02 -0.36397E+02
 0.72453003E+02  0.28188E+03
 0.72502998E+02  0.12052E+03
 0.72553001E+02 -0.45442E+03
 0.72603004E+02 -0.71249E+03
 0.72653000E+02 -0.11078E+04
 0.72703003E+02 -0.16357E+04
 0.72752998E+02 -0.21814E+04
 0.72803001E+02 -0.23282E+04
 0.72853004E+02 -0.20731E+04
 0.72903000E+02 -0.21489E+04
 0.72953003E+02 -0.20669E+04
 0.73002998E+02 -0.21345E+04
 0.73053001E+02 -0.23918E+04
 0.73103004E+02 -0.28293E+04
 0.73153000E+02 -0.33926E+04
 0.73203003E+02 -0.34556E+04
 0.73252998E+02 -0.32745E+04
 0.73303001E+02 -0.33152E+04
 0.73353004E+02 -0.31370E+04
 0.73403000E+02 -0.26669E+04
 0.73453003E+02 -0.24257E+04
 0.73502998E+02 -0.19917E+04
 0.73553001E+02 -0.15797E+04
 0.73603004E+02 -0.96326E+03
 0.73653000E+02 -0.13506E+04
 0.73703003E+02 -0.20456E+04
 0.73752998E+02 -0.18869E+04
 0.73803001E+02 -0.22026E+04
 0.73853004E+02 -0.30692E+04
 0.73903000E+02 -0.37343E+04
 0.73953003E+02 -0.33354E+04
 0.74002998E+02 -0.24453E+04
 0.74053001E+02 -0.20030E+04
 0.74103004E+02 -0.20792E+04
 0.74153000E+02 -0.17124E+04
 0.74203003E+02 -0.94836E+03
 0.74252998E+02 -0.62207E+03
 0.74303001E+02 -0.37831E+03
 0.74353004E+02 -0.54069E+03
 0.74403000E+02 -0.57626E+03
 0.74453003E+02 -0.37516E+03
 0.74502998E+02 -0.53185E+03
 0.74553001E+02 -0.62927E+03
 0.74603004E+02 -0.31797E+03
 0.74653000E+02 -0.29173E+03
 0.74703003E+02 -0.37137E+03
 0.74752998E+02 -0.34652E+03
 0.74803001E+02 -0.94944E+03
 0.74853004E+02 -0.15429E+04
 0.74903000E+02 -0.14397E+04
 0.74953003E+02 -0.34661E+03
 0.75002998E+02  0.14155E+03
 0.75053001E+02 -0.37065E+03
 0.75103004E+02 -0.11144E+04
 0.75153000E+02 -0.19396E+04
 0.75203003E+02 -0.20653E+04
 0.75252998E+02 -0.13535E+04
 0.75303001E+02 -0.55851E+03
 0.75353004E+02 -0.28070E+03
 0.75403000E+02 -0.46891E+03
 0.75453003E+02 -0.11506E+04
 0.75502998E+02 -0.12883E+04
 0.75553001E+02 -0.11193E+04
 0.75603004E+02 -0.16019E+04
 0.75653000E+02 -0.21281E+04
 0.75703003E+02 -0.20889E+04
 0.75752998E+02 -0.16350E+04
 0.75803001E+02 -0.17276E+04
 0.75853004E+02 -0.16547E+04
 0.75903000E+02 -0.16480E+04
 0.75953003E+02 -0.20409E+04
 0.76002998E+02 -0.23665E+04
 0.76053001E+02 -0.23166E+04
 0.76103004E+02 -0.24241E+04
 0.76153000E+02 -0.27442E+04
 0.76203003E+02 -0.25095E+04
 0.76252998E+02 -0.25215E+04
 0.76303001E+02 -0.22209E+04
 0.76353004E+02 -0.16162E+04
 0.76403000E+02 -0.13804E+04
 0.76453003E+02 -0.19552E+04
 0.76502998E+02 -0.24720E+04
 0.76553001E+02 -0.23702E+04
 0.76603004E+02 -0.26107E+04
 0.76653000E+02 -0.29021E+04
 0.76703003E+02 -0.31101E+04
 0.76752998E+02 -0.24606E+04
 0.76803001E+02 -0.20186E+04
 0.76853004E+02 -0.20477E+04
 0.76903000E+02 -0.17699E+04
 0.76953003E+02 -0.15938E+04
 0.77002998E+02 -0.17149E+04
 0.77053001E+02 -0.18615E+04
 0.77103004E+02 -0.14080E+04
 0.77153000E+02 -0.11305E+04
 0.77203003E+02 -0.61423E+03
 0.77252998E+02 -0.38877E+03
 0.77303001E+02 -0.58741E+03
 0.77353004E+02 -0.88873E+03
 0.77403000E+02 -0.93033E+03
 0.77453003E+02 -0.82387E+03
 0.77502998E+02 -0.12098E+04
 0.77553001E+02 -0.10218E+04
 0.77603004E+02 -0.59744E+03
 0.77653000E+02 -0.64196E+03
 0.77703003E+02 -0.10666E+04
 0.77752998E+02 -0.14439E+04
 0.77803001E+02 -0.15415E+04
 0.77853004E+02 -0.18852E+04
 0.77903000E+02 -0.21489E+04
 0.77953003E+02 -0.22196E+04
 0.78002998E+02 -0.21434E+04
 0.78053001E+02 -0.24633E+04
 0.78103004E+02 -0.29180E+04
 0.78153000E+02 -0.26572E+04
 0.78203003E+02 -0.23135E+04
 0.78252998E+02 -0.19769E+04
 0.78303001E+02 -0.18405E+04
 0.78353004E+02 -0.11718E+04
 0.78403000E+02 -0.37361E+03
 0.78453003E+02 -0.76633E+03
 0.78502998E+02 -0.15290E+04
 0.78553001E+02 -0.17733E+04
 0.78603004E+02 -0.18940E+04
 0.78653000E+02 -0.22730E+04
 0.78703003E+02 -0.28153E+04
 0.78752998E+02 -0.27289E+04
 0.78803001E+02 -0.20454E+04
 0.78853004E+02 -0.15166E+04
 0.78903000E+02 -0.12283E+04
 0.78953003E+02 -0.13762E+04
 0.79002998E+02 -0.10535E+04
 0.79053001E+02 -0.76534E+03
 0.79103004E+02 -0.11348E+04
 0.79153000E+02 -0.16727E+04
 0.79203003E+02 -0.16906E+04
 0.79252998E+02 -0.13690E+04
 0.79303001E+02 -0.13406E+04
 0.79353004E+02 -0.11026E+04
 0.79403000E+02 -0.97148E+03
 0.79453003E+02 -0.83279E+03
 0.79502998E+02 -0.80766E+03
 0.79553001E+02 -0.10103E+04
 0.79603004E+02 -0.92994E+03
 0.79653000E+02 -0.10417E+04
 0.79703003E+02 -0.12928E+04
 0.79752998E+02 -0.16048E+04
 0.79803001E+02 -0.19217E+04
 0.79853004E+02 -0.16274E+04
 0.79903000E+02 -0.14824E+04
 0.79953003E+02 -0.12367E+04
 0.80002998E+02 -0.85162E+03
 0.80053001E+02 -0.10151E+04
 0.80103004E+02 -0.15799E+04
 0.80153000E+02 -0.24039E+04
 0.80203003E+02 -0.29423E+04
 0.80252998E+02 -0.30044E+04
 0.80303001E+02 -0.29063E+04
 0.80353004E+02 -0.29737E+04
 0.80403000E+02 -0.27928E+04
 0.80453003E+02 -0.26228E+04
 0.80502998E+02 -0.23113E+04
 0.80553001E+02 -0.16245E+04
 0.80603004E+02 -0.15019E+04
 0.80653000E+02 -0.17094E+04
 0.80703003E+02 -0.15152E+04
 0.80752998E+02 -0.13017E+04
 0.80803001E+02 -0.13243E+04
 0.80853004E+02 -0.10370E+04
 0.80903000E+02 -0.80386E+03
 0.80953003E+02 -0.12456E+04
 0.81002998E+02 -0.18151E+04
 0.81053001E+02 -0.17323E+04
 0.81103004E+02 -0.17143E+04
 0.81153000E+02 -0.18961E+04
 0.81203003E+02 -0.17666E+04
 0.81252998E+02 -0.14791E+04
 0.81303001E+02 -0.14978E+04
 0.81353004E+02 -0.14045E+04
 0.81403000E+02 -0.10408E+04
 0.81453003E+02 -0.10089E+04
 0.81502998E+02 -0.95527E+03
 0.81553001E+02 -0.10386E+04
 0.81603004E+02 -0.15566E+04
 0.81653000E+02 -0.22457E+04
 0.81703003E+02 -0.26081E+04
 0.81752998E+02 -0.24589E+04
 0.81803001E+02 -0.18304E+04
 0.81853004E+02 -0.16002E+04
 0.81903000E+02 -0.18751E+04
 0.81953003E+02 -0.17794E+04
 0.82002998E+02 -0.17950E+04
 0.82053001E+02 -0.17803E+04
 0.82103004E+02 -0.14335E+04
 0.82153000E+02 -0.98424E+03
 0.82203003E+02 -0.60678E+03
 0.82252998E+02 -0.88691E+03
 0.82303001E+02 -0.12438E+04
 0.82353004E+02 -0.11591E+04
 0.82403000E+02 -0.11234E+04
 0.82453003E+02 -0.11309E+04
 0.82502998E+02 -0.10816E+04
 0.82553001E+02 -0.10895E+04
 0.82603004E+02 -0.83214E+03
 0.82653000E+02 -0.44442E+03
 0.82703003E+02 -0.27719E+03
 0.82752998E+02 -0.60614E+03
 0.82803001E+02 -0.11695E+04
 0.82853004E+02 -0.13620E+04
 0.82903000E+02 -0.13036E+04
 0.82953003E+02 -0.13678E+04
 0.83002998E+02 -0.16059E+04
 0.83053001E+02 -0.19034E+04
 0.83103004E+02 -0.19327E+04
 0.83153000E+02 -0.17837E+04
 0.83203003E+02 -0.17245E+04
 0.83252998E+02 -0.15045E+04
 0.83303001E+02 -0.10201E+04
 0.83353004E+02 -0.70664E+03
 0.83403000E+02 -0.66196E+03
 0.83453003E+02 -0.81538E+03
 0.83502998E+02 -0.12294E+04
 0.83553001E+02 -0.17881E+04
 0.83603004E+02 -0.18589E+04
 0.83653000E+02 -0.14010E+04
 0.83703003E+02 -0.16813E+04
 0.83752998E+02 -0.22916E+04
 0.83803001E+02 -0.25377E+04
 0.83853004E+02 -0.24850E+04
 0.83903000E+02 -0.26740E+04
 0.83953003E+02 -0.29884E+04
 0.84002998E+02 -0.28332E+04
 0.84053001E+02 -0.26821E+04
 0.84103004E+02 -0.29021E+04
 0.84153000E+02 -0.30278E+04
 0.84203003E+02 -0.23408E+04
 0.84252998E+02 -0.19177E+04
 0.84303001E+02 -0.19224E+04
 0.84353004E+02 -0.17145E+04
 0.84403000E+02 -0.14730E+04
 0.84453003E+02 -0.13005E+04
 0.84502998E+02 -0.13718E+04
 0.84553001E+02 -0.15613E+04
 0.84603004E+02 -0.16508E+04
 0.84653000E+02 -0.13932E+04
 0.84703003E+02 -0.13709E+04
 0.84752998E+02 -0.12849E+04
 0.84803001E+02 -0.12358E+04
 0.84853004E+02 -0.14801E+04
 0.84903000E+02 -0.17523E+04
 0.84953003E+02 -0.19471E+04
 0.85002998E+02 -0.21922E+04
 0.85053001E+02 -0.21005E+04
 0.85103004E+02 -0.17764E+04
 0.85153000E+02 -0.16911E+04
 0.85203003E+02 -0.15363E+04
 0.85252998E+02 -0.17103E+04
 0.85303001E+02 -0.13851E+04
 0.85353004E+02 -0.83800E+03
 0.85403000E+02 -0.83999E+03
 0.85453003E+02 -0.81769E+03
 0.85502998E+02 -0.98005E+03
 0.85553001E+02 -0.13139E+04
 0.85603004E+02 -0.13399E+04
 0.85653000E+02 -0.12583E+04
 0.85703003E+02 -0.11174E+04
 0.85752998E+02 -0.13229E+04
 0.85803001E+02 -0.19259E+04
 0.85853004E+02 -0.20761E+04
 0.85903000E+02 -0.17046E+04
 0.85953003E+02 -0.15681E+04
 0.86002998E+02 -0.15486E+04
 0.86053001E+02 -0.12830E+04
 0.86103004E+02 -0.13092E+04
 0.86153000E+02 -0.14854E+04
 0.86203003E+02 -0.14231E+04
 0.86252998E+02 -0.10975E+04
 0.86303001E+02 -0.83055E+03
 0.86353004E+02 -0.11528E+04
 0.86403000E+02 -0.17630E+04
 0.86453003E+02 -0.20371E+04
 0.86502998E+02 -0.19410E+04
 0.86553001E+02 -0.17167E+04
 0.86603004E+02 -0.15989E+04
 0.86653000E+02 -0.13961E+04
 0.86703003E+02 -0.14000E+04
 0.86752998E+02 -0.19067E+04
 0.86803001E+02 -0.24185E+04
 0.86853004E+02 -0.25636E+04
 0.86903000E+02 -0.23028E+04
 0.86953003E+02 -0.21298E+04
 0.87002998E+02 -0.23457E+04
 0.87053001E+02 -0.25444E+04
 0.87103004E+02 -0.25504E+04
 0.87153000E+02 -0.24158E+04
 0.87203003E+02 -0.22192E+04
 0.87252998E+02 -0.20048E+04
 0.87303001E+02 -0.16852E+04
 0.87353004E+02 -0.18265E+04
 0.87403000E+02 -0.21350E+04
 0.87453003E+02 -0.21417E+04
 0.87502998E+02 -0.19353E+04
 0.87553001E+02 -0.16901E+04
 0.87602997E+02 -0.19640E+04
 0.87653000E+02 -0.19972E+04
 0.87703003E+02 -0.16749E+04
 0.87752998E+02 -0.14397E+04
 0.87803001E+02 -0.12501E+04
 0.87852997E+02 -0.12609E+04
 0.87903000E+02 -0.12006E+04
 0.87953003E+02 -0.12832E+04
 0.88002998E+02 -0.10744E+04
 0.88053001E+02 -0.77592E+03
 0.88102997E+02 -0.66286E+03
 0.88153000E+02 -0.47090E+03
 0.88203003E+02 -0.59066E+03
 0.88252998E+02 -0.73819E+03
 0.88303001E+02 -0.10402E+04
 0.88352997E+02 -0.10065E+04
 0.88403000E+02 -0.74918E+03
 0.88453003E+02 -0.10163E+04
 0.88502998E+02 -0.13389E+04
 0.88553001E+02 -0.15865E+04
 0.88602997E+02 -0.16289E+04
 0.88653000E+02 -0.15869E+04
 0.88703003E+02 -0.12683E+04
 0.88752998E+02 -0.90934E+03
 0.88803001E+02 -0.87624E+03
 0.88852997E+02 -0.94879E+03
 0.88903000E+02 -0.91070E+03
 0.88953003E+02 -0.91949E+03
 0.89002998E+02 -0.11442E+04
 0.89053001E+02 -0.12892E+04
 0.89102997E+02 -0.15309E+04
 0.89153000E+02 -0.12180E+04
 0.89203003E+02 -0.10981E+04
 0.89252998E+02 -0.11128E+04
 0.89303001E+02 -0.97272E+03
 0.89352997E+02 -0.10326E+04
 0.89403000E+02 -0.10620E+04
 0.89453003E+02 -0.11897E+04
 0.89502998E+02 -0.12159E+04
 0.89553001E+02 -0.14664E+04
 0.89602997E+02 -0.18759E+04
 0.89653000E+02 -0.22491E+04
 0.89703003E+02 -0.23825E+04
 0.89752998E+02 -0.23890E+04
 0.89803001E+02 -0.21430E+04
 0.89852997E+02 -0.18937E+04
 0.89903000E+02 -0.18390E+04
 0.89953003E+02 -0.20730E+04
 0.90002998E+02 -0.22828E+04
 0.90053001E+02 -0.20987E+04
 0.90102997E+02 -0.19253E+04
 0.90153000E+02 -0.21012E+04
 0.90203003E+02 -0.23826E+04
 0.90252998E+02 -0.21642E+04
 0.90303001E+02 -0.19428E+04
 0.90352997E+02 -0.18183E+04
 0.90403000E+02 -0.20522E+04
 0.90453003E+02 -0.23925E+04
 0.90502998E+02 -0.24891E+04
 0.90553001E+02 -0.27526E+04
 0.90602997E+02 -0.27650E+04
 0.90653000E+02 -0.26218E+04
 0.90703003E+02 -0.25391E+04
 0.90752998E+02 -0.26712E+04
 0.90803001E+02 -0.28024E+04
 0.90852997E+02 -0.26135E+04
 0.90903000E+02 -0.23384E+04
 0.90953003E+02 -0.20149E+04
 0.91002998E+02 -0.17793E+04
 0.91053001E+02 -0.17897E+04
 0.91102997E+02 -0.18402E+04
 0.91153000E+02 -0.19630E+04
 0.91203003E+02 -0.22930E+04
 0.91252998E+02 -0.24890E+04
 0.91303001E+02 -0.22913E+04
 0.91352997E+02 -0.17916E+04
 0.91403000E+02 -0.11596E+04
 0.91453003E+02 -0.83670E+03
 0.91502998E+02 -0.77356E+03
 0.91553001E+02 -0.55140E+03
 0.91602997E+02 -0.41263E+03
 0.91653000E+02 -0.44012E+03
 0.91703003E+02 -0.43187E+03
 0.91752998E+02 -0.53285E+03
 0.91803001E+02 -0.42914E+03
 0.91852997E+02 -0.25387E+03
 0.91903000E+02 -0.42542E+03
 0.91953003E+02 -0.74751E+03
 0.92002998E+02 -0.87912E+03
 0.92053001E+02 -0.83939E+03
 0.92102997E+02 -0.11986E+04
 0.92153000E+02 -0.17584E+04
 0.92203003E+02 -0.19022E+04
 0.92252998E+02 -0.16690E+04
 0.92303001E+02 -0.17069E+04
 0.92352997E+02 -0.18843E+04
 0.92403000E+02 -0.20100E+04
 0.92453003E+02 -0.19656E+04
 0.92502998E+02 -0.18715E+04
 0.92553001E+02 -0.19017E+04
 0.92602997E+02 -0.17625E+04
 0.92653000E+02 -0.14756E+04
 0.92703003E+02 -0.12565E+04
 0.92752998E+02 -0.10703E+04
 0.92803001E+02 -0.94964E+03
 0.92852997E+02 -0.61583E+03
 0.92903000E+02 -0.30193E+03
 0.92953003E+02 -0.35824E+03
 0.93002998E+02 -0.35171E+03
 0.93053001E+02 -0.21811E+03
 0.93102997E+02 -0.32148E+03
 0.93153000E+02 -0.62130E+03
 0.93203003E+02 -0.75291E+03
 0.93252998E+02 -0.86407E+03
 0.93303001E+02 -0.10282E+04
 0.93352997E+02 -0.13329E+04
 0.93403000E+02 -0.15013E+04
 0.93453003E+02 -0.14563E+04
 0.93502998E+02 -0.14864E+04
 0.93553001E+02 -0.17485E+04
 0.93602997E+02 -0.22095E+04
 0.93653000E+02 -0.25358E+04
 0.93703003E+02 -0.26826E+04
 0.93752998E+02 -0.28511E+04
 0.93803001E+02 -0.29992E+04
 0.93852997E+02 -0.30079E+04
 0.93903000E+02 -0.29646E+04
 0.93953003E+02 -0.29852E+04
 0.94002998E+02 -0.28879E+04
 0.94053001E+02 -0.27176E+04
 0.94102997E+02 -0.25968E+04
 0.94153000E+02 -0.24502E+04
 0.94203003E+02 -0.22858E+04
 0.94252998E+02 -0.22434E+04
 0.94303001E+02 -0.18960E+04
 0.94352997E+02 -0.14261E+04
 0.94403000E+02 -0.12782E+04
 0.94453003E+02 -0.13872E+04
 0.94502998E+02 -0.14824E+04
 0.94553001E+02 -0.13280E+04
 0.94602997E+02 -0.12206E+04
 0.94653000E+02 -0.13427E+04
 0.94703003E+02 -0.16974E+04
 0.94752998E+02 -0.19228E+04
 0.94803001E+02 -0.20303E+04
 0.94852997E+02 -0.20435E+04
 0.94903000E+02 -0.19994E+04
 0.94953003E+02 -0.18989E+04
 0.95002998E+02 -0.17210E+04
 0.95053001E+02 -0.15717E+04
 0.95102997E+02 -0.12258E+04
 0.95153000E+02 -0.94056E+03
 0.95203003E+02 -0.86140E+03
 0.95252998E+02 -0.83869E+03
 0.95303001E+02 -0.91953E+03
 0.95352997E+02 -0.95929E+03
 0.95403000E+02 -0.79045E+03
 0.95453003E+02 -0.59453E+03
 0.95502998E+02 -0.83205E+03
 0.95553001E+02 -0.13277E+04
 0.95602997E+02 -0.15563E+04
 0.95653000E+02 -0.17172E+04
 0.95703003E+02 -0.17941E+04
 0.95752998E+02 -0.18414E+04
 0.95803001E+02 -0.19923E+04
 0.95852997E+02 -0.19896E+04
 0.95903000E+02 -0.21654E+04
 0.95953003E+02 -0.23398E+04
 0.96002998E+02 -0.22848E+04
 0.96053001E+02 -0.20347E+04
 0.96102997E+02 -0.17780E+04
 0.96153000E+02 -0.17667E+04
 0.96203003E+02 -0.19228E+04
 0.96252998E+02 -0.19900E+04
 0.96303001E+02 -0.17854E+04
 0.96352997E+02 -0.15645E+04
 0.96403000E+02 -0.14264E+04
 0.96453003E+02 -0.15031E+04
 0.96502998E+02 -0.16582E+04
 0.96553001E+02 -0.16419E+04
 0.96602997E+02 -0.13104E+04
 0.96653000E+02 -0.98138E+03
 0.96703003E+02 -0.10055E+04
 0.96752998E+02 -0.12783E+04
 0.96803001E+02 -0.15053E+04
 0.96852997E+02 -0.15588E+04
 0.96903000E+02 -0.17498E+04
 0.96953003E+02 -0.18754E+04
 0.97002998E+02 -0.18489E+04
 0.97053001E+02 -0.18391E+04
 0.97102997E+02 -0.16406E+04
 0.97153000E+02 -0.12643E+04
 0.97203003E+02 -0.10906E+04
 0.97252998E+02 -0.11030E+04
 0.97303001E+02 -0.94808E+03
 0.97352997E+02 -0.79982E+03
 0.97403000E+02 -0.98969E+03
 0.97453003E+02 -0.11280E+04
 0.97502998E+02 -0.10792E+04
 0.97553001E+02 -0.10622E+04
 0.97602997E+02 -0.10870E+04
 0.97653000E+02 -0.13250E+04
 0.97703003E+02 -0.15634E+04
 0.97752998E+02 -0.16848E+04
 0.97803001E+02 -0.17447E+04
 0.97852997E+02 -0.18648E+04
 0.97903000E+02 -0.19010E+04
 0.97953003E+02 -0.17836E+04
 0.98002998E+02 -0.16228E+04
