-0.20000000E+01  0.12555E+05
-0.19500000E+01  0.12070E+05
-0.19000000E+01  0.11311E+05
-0.18500000E+01  0.10513E+05
-0.18000000E+01  0.93884E+04
-0.17500000E+01  0.79632E+04
-0.17000000E+01  0.62184E+04
-0.16500001E+01  0.42894E+04
-0.16000000E+01  0.24767E+04
-0.15500000E+01  0.10277E+04
-0.15000000E+01  0.89567E+02
-0.14500000E+01 -0.33652E+03
-0.14000001E+01 -0.31841E+03
-0.13500000E+01 -0.76025E+02
-0.13000001E+01  0.35372E+03
-0.12500000E+01  0.10871E+04
-0.12000000E+01  0.20683E+04
-0.11500001E+01  0.31809E+04
-0.11000000E+01  0.44423E+04
-0.10500001E+01  0.60848E+04
-0.10000000E+01  0.81393E+04
-0.95000005E+00  0.10297E+05
-0.90000010E+00  0.12469E+05
-0.85000002E+00  0.14680E+05
-0.80000007E+00  0.16885E+05
-0.75000012E+00  0.19082E+05
-0.70000005E+00  0.21149E+05
-0.65000010E+00  0.22924E+05
-0.60000014E+00  0.24403E+05
-0.55000007E+00  0.25610E+05
-0.50000012E+00  0.26389E+05
-0.45000005E+00  0.26557E+05
-0.40000010E+00  0.26020E+05
-0.35000014E+00  0.24800E+05
-0.30000007E+00  0.23008E+05
-0.25000012E+00  0.20611E+05
-0.20000005E+00  0.17728E+05
-0.15000010E+00  0.14557E+05
-0.10000014E+00  0.11299E+05
-0.50000072E-01  0.82101E+04
-0.11920929E-06  0.51697E+04
 0.49999952E-01  0.18145E+04
 0.99999905E-01 -0.18471E+04
 0.14999986E+00 -0.55434E+04
 0.19999981E+00 -0.90377E+04
 0.24999976E+00 -0.12311E+05
 0.29999995E+00 -0.15463E+05
 0.34999990E+00 -0.18451E+05
 0.39999986E+00 -0.21148E+05
 0.44999981E+00 -0.23521E+05
 0.49999976E+00 -0.25707E+05
 0.54999995E+00 -0.27789E+05
 0.59999990E+00 -0.29868E+05
 0.64999986E+00 -0.31910E+05
 0.69999981E+00 -0.33785E+05
 0.74999976E+00 -0.35429E+05
 0.79999971E+00 -0.36775E+05
 0.84999990E+00 -0.37827E+05
 0.89999986E+00 -0.38660E+05
 0.94999981E+00 -0.39229E+05
 0.99999976E+00 -0.39279E+05
 0.10499997E+01 -0.38545E+05
 0.10999999E+01 -0.36994E+05
 0.11499999E+01 -0.34703E+05
 0.11999998E+01 -0.31831E+05
 0.12499998E+01 -0.28666E+05
 0.12999997E+01 -0.25436E+05
 0.13499999E+01 -0.22272E+05
 0.13999999E+01 -0.19049E+05
 0.14499998E+01 -0.15651E+05
 0.14999998E+01 -0.12219E+05
 0.15499997E+01 -0.88869E+04
 0.15999999E+01 -0.58229E+04
 0.16499999E+01 -0.30809E+04
 0.16999998E+01 -0.62180E+03
 0.17499998E+01  0.15429E+04
 0.17999997E+01  0.33586E+04
 0.18499997E+01  0.48475E+04
 0.18999999E+01  0.61942E+04
 0.19499998E+01  0.75310E+04
 0.19999998E+01  0.89255E+04
 0.20499997E+01  0.10389E+05
 0.20999999E+01  0.11869E+05
 0.21499996E+01  0.13307E+05
 0.21999998E+01  0.14640E+05
 0.22499995E+01  0.15738E+05
 0.22999997E+01  0.16659E+05
 0.23499999E+01  0.17505E+05
 0.23999996E+01  0.18293E+05
 0.24499998E+01  0.19045E+05
 0.24999995E+01  0.19836E+05
 0.25499997E+01  0.20676E+05
 0.25999999E+01  0.21350E+05
 0.26499996E+01  0.21774E+05
 0.26999998E+01  0.21945E+05
 0.27499995E+01  0.21818E+05
 0.27999997E+01  0.21422E+05
 0.28499999E+01  0.20766E+05
 0.28999996E+01  0.19806E+05
 0.29499998E+01  0.18648E+05
 0.29999995E+01  0.17404E+05
 0.30499997E+01  0.16097E+05
 0.30999999E+01  0.14896E+05
 0.31499996E+01  0.13916E+05
 0.31999998E+01  0.13021E+05
 0.32499995E+01  0.12082E+05
 0.32999997E+01  0.11181E+05
 0.33499999E+01  0.10391E+05
 0.33999996E+01  0.98127E+04
 0.34499998E+01  0.95090E+04
 0.34999995E+01  0.93575E+04
 0.35499997E+01  0.94817E+04
 0.35999994E+01  0.98866E+04
 0.36499996E+01  0.10589E+05
 0.36999998E+01  0.11635E+05
 0.37499995E+01  0.12822E+05
 0.37999997E+01  0.13940E+05
 0.38499994E+01  0.14793E+05
 0.38999996E+01  0.15417E+05
 0.39499998E+01  0.15859E+05
 0.39999995E+01  0.16208E+05
 0.40499997E+01  0.16612E+05
 0.40999994E+01  0.17024E+05
 0.41499996E+01  0.17300E+05
 0.41999998E+01  0.17277E+05
 0.42499995E+01  0.16812E+05
 0.42999997E+01  0.16020E+05
 0.43499994E+01  0.14907E+05
 0.43999996E+01  0.13342E+05
 0.44499998E+01  0.11328E+05
 0.44999995E+01  0.88975E+04
 0.45499997E+01  0.62312E+04
 0.45999994E+01  0.35153E+04
 0.46499996E+01  0.79332E+03
 0.46999998E+01 -0.19979E+04
 0.47499995E+01 -0.48123E+04
 0.47999997E+01 -0.75500E+04
 0.48499994E+01 -0.10131E+05
 0.48999996E+01 -0.12549E+05
 0.49499998E+01 -0.14897E+05
 0.49999995E+01 -0.17157E+05
 0.50499997E+01 -0.19138E+05
 0.50999994E+01 -0.20642E+05
 0.51499996E+01 -0.21571E+05
 0.51999998E+01 -0.21997E+05
 0.52499995E+01 -0.22226E+05
 0.52999997E+01 -0.22410E+05
 0.53499994E+01 -0.22447E+05
 0.53999996E+01 -0.22310E+05
 0.54499993E+01 -0.21956E+05
 0.54999995E+01 -0.21447E+05
 0.55499997E+01 -0.20786E+05
 0.55999994E+01 -0.19891E+05
 0.56499996E+01 -0.18711E+05
 0.56999993E+01 -0.17172E+05
 0.57499995E+01 -0.15434E+05
 0.57999997E+01 -0.13666E+05
 0.58499994E+01 -0.12084E+05
 0.58999996E+01 -0.10783E+05
 0.59499993E+01 -0.96423E+04
 0.59999995E+01 -0.85790E+04
 0.60499992E+01 -0.74453E+04
 0.60999994E+01 -0.61818E+04
 0.61499996E+01 -0.47709E+04
 0.61999998E+01 -0.30940E+04
 0.62499990E+01 -0.12196E+04
 0.62999992E+01  0.70672E+03
 0.63499994E+01  0.26104E+04
 0.63999996E+01  0.44853E+04
 0.64499998E+01  0.65134E+04
 0.64999990E+01  0.87439E+04
 0.65499992E+01  0.11046E+05
 0.65999994E+01  0.13300E+05
 0.66499996E+01  0.15411E+05
 0.66999998E+01  0.17422E+05
 0.67499990E+01  0.19323E+05
 0.67999992E+01  0.21133E+05
 0.68499994E+01  0.22735E+05
 0.68999996E+01  0.24137E+05
 0.69499998E+01  0.25339E+05
 0.69999990E+01  0.26106E+05
 0.70499992E+01  0.26369E+05
 0.70999994E+01  0.25990E+05
 0.71499996E+01  0.25029E+05
 0.71999998E+01  0.23811E+05
 0.72499990E+01  0.22505E+05
 0.72999992E+01  0.21041E+05
 0.73499994E+01  0.19313E+05
 0.73999996E+01  0.17153E+05
 0.74499998E+01  0.14586E+05
 0.74999990E+01  0.11783E+05
 0.75499992E+01  0.89271E+04
 0.75999994E+01  0.60796E+04
 0.76499996E+01  0.33311E+04
 0.76999998E+01  0.85862E+03
 0.77499990E+01 -0.13949E+04
 0.77999992E+01 -0.34664E+04
 0.78499994E+01 -0.53219E+04
 0.78999996E+01 -0.70235E+04
 0.79499998E+01 -0.85850E+04
 0.79999990E+01 -0.98203E+04
 0.80499992E+01 -0.10763E+05
 0.80999994E+01 -0.11436E+05
 0.81499996E+01 -0.11807E+05
 0.81999998E+01 -0.11863E+05
 0.82499990E+01 -0.11480E+05
 0.82999992E+01 -0.10621E+05
 0.83499994E+01 -0.93619E+04
 0.83999996E+01 -0.79715E+04
 0.84499998E+01 -0.66886E+04
 0.84999990E+01 -0.56726E+04
 0.85499992E+01 -0.49416E+04
 0.85999994E+01 -0.44710E+04
 0.86499996E+01 -0.43136E+04
 0.86999998E+01 -0.44838E+04
 0.87499990E+01 -0.49548E+04
 0.87999992E+01 -0.55733E+04
 0.88499994E+01 -0.62670E+04
 0.88999996E+01 -0.70617E+04
 0.89499998E+01 -0.78807E+04
 0.89999990E+01 -0.85131E+04
 0.90499992E+01 -0.88822E+04
 0.90999994E+01 -0.89288E+04
 0.91499996E+01 -0.85844E+04
 0.91999989E+01 -0.78987E+04
 0.92499990E+01 -0.67418E+04
 0.92999992E+01 -0.50246E+04
 0.93499994E+01 -0.28622E+04
 0.93999996E+01 -0.45269E+03
 0.94499989E+01  0.21003E+04
 0.94999990E+01  0.45575E+04
 0.95499992E+01  0.68226E+04
 0.95999994E+01  0.91377E+04
 0.96499996E+01  0.11530E+05
 0.96999989E+01  0.13878E+05
 0.97499990E+01  0.16013E+05
 0.97999992E+01  0.17830E+05
 0.98499994E+01  0.19245E+05
 0.98999996E+01  0.20113E+05
 0.99499989E+01  0.20520E+05
 0.99999990E+01  0.20685E+05
 0.10049999E+02  0.20766E+05
 0.10099999E+02  0.20718E+05
 0.10150000E+02  0.20487E+05
 0.10199999E+02  0.19999E+05
 0.10249999E+02  0.19240E+05
 0.10299999E+02  0.18396E+05
 0.10349999E+02  0.17404E+05
 0.10400000E+02  0.16212E+05
 0.10449999E+02  0.14984E+05
 0.10499999E+02  0.13817E+05
 0.10549999E+02  0.12616E+05
 0.10599999E+02  0.11344E+05
 0.10650000E+02  0.10128E+05
 0.10699999E+02  0.88972E+04
 0.10749999E+02  0.75606E+04
 0.10799999E+02  0.62794E+04
 0.10849999E+02  0.51028E+04
 0.10900000E+02  0.41893E+04
 0.10949999E+02  0.36875E+04
 0.10999999E+02  0.34639E+04
 0.11049999E+02  0.34271E+04
 0.11099999E+02  0.34479E+04
 0.11150000E+02  0.33694E+04
 0.11199999E+02  0.30704E+04
 0.11249999E+02  0.26004E+04
 0.11299999E+02  0.21261E+04
 0.11349999E+02  0.17918E+04
 0.11400000E+02  0.16131E+04
 0.11449999E+02  0.14498E+04
 0.11499999E+02  0.12131E+04
 0.11549999E+02  0.92640E+03
 0.11599999E+02  0.66536E+03
 0.11650000E+02  0.36592E+03
 0.11699999E+02  0.34405E+02
 0.11749999E+02 -0.30999E+03
 0.11799999E+02 -0.85210E+03
 0.11849999E+02 -0.16482E+04
 0.11900000E+02 -0.25324E+04
 0.11949999E+02 -0.33067E+04
 0.11999999E+02 -0.38390E+04
 0.12049999E+02 -0.42033E+04
 0.12099999E+02 -0.45699E+04
 0.12150000E+02 -0.48771E+04
 0.12199999E+02 -0.50947E+04
 0.12249999E+02 -0.53990E+04
 0.12299999E+02 -0.59922E+04
 0.12349999E+02 -0.68034E+04
 0.12400000E+02 -0.76258E+04
 0.12449999E+02 -0.85299E+04
 0.12499999E+02 -0.95367E+04
 0.12549999E+02 -0.10478E+05
 0.12599999E+02 -0.11225E+05
 0.12649999E+02 -0.11713E+05
 0.12699999E+02 -0.11910E+05
 0.12749999E+02 -0.11855E+05
 0.12799999E+02 -0.11723E+05
 0.12849999E+02 -0.11634E+05
 0.12899999E+02 -0.11547E+05
 0.12949999E+02 -0.11477E+05
 0.12999999E+02 -0.11323E+05
 0.13049999E+02 -0.11038E+05
 0.13099999E+02 -0.10723E+05
 0.13149999E+02 -0.10374E+05
 0.13199999E+02 -0.99969E+04
 0.13249999E+02 -0.96696E+04
 0.13299999E+02 -0.95030E+04
 0.13349999E+02 -0.94073E+04
 0.13399999E+02 -0.93187E+04
 0.13449999E+02 -0.92712E+04
 0.13499999E+02 -0.93967E+04
 0.13549999E+02 -0.98343E+04
 0.13599999E+02 -0.10491E+05
 0.13649999E+02 -0.11172E+05
 0.13699999E+02 -0.11698E+05
 0.13749999E+02 -0.11957E+05
 0.13799999E+02 -0.11809E+05
 0.13849999E+02 -0.11201E+05
 0.13899999E+02 -0.10170E+05
 0.13949999E+02 -0.88689E+04
 0.13999999E+02 -0.74903E+04
 0.14049999E+02 -0.60794E+04
 0.14099998E+02 -0.46576E+04
 0.14150000E+02 -0.31415E+04
 0.14199999E+02 -0.14810E+04
 0.14249998E+02  0.29533E+03
 0.14299999E+02  0.21170E+04
 0.14349998E+02  0.37831E+04
 0.14400000E+02  0.51298E+04
 0.14449999E+02  0.60835E+04
 0.14499998E+02  0.67167E+04
 0.14549999E+02  0.70406E+04
 0.14599998E+02  0.70577E+04
 0.14650000E+02  0.69085E+04
 0.14699999E+02  0.67610E+04
 0.14749998E+02  0.65977E+04
 0.14799999E+02  0.62517E+04
 0.14849998E+02  0.57221E+04
 0.14900000E+02  0.50732E+04
 0.14949999E+02  0.43576E+04
 0.14999998E+02  0.36985E+04
 0.15049999E+02  0.31670E+04
 0.15099998E+02  0.27501E+04
 0.15150000E+02  0.25109E+04
 0.15199999E+02  0.25286E+04
 0.15249998E+02  0.29061E+04
 0.15299999E+02  0.35925E+04
 0.15349998E+02  0.43549E+04
 0.15400000E+02  0.49511E+04
 0.15449999E+02  0.51007E+04
 0.15499998E+02  0.48833E+04
 0.15549999E+02  0.48078E+04
 0.15599998E+02  0.54600E+04
 0.15650000E+02  0.68221E+04
 0.15699999E+02  0.82978E+04
 0.15749998E+02  0.86150E+04
 0.15799999E+02  0.72617E+04
 0.15849998E+02  0.53270E+04
 0.15900000E+02  0.34852E+04
 0.15949999E+02  0.14476E+04
 0.15999998E+02  0.22213E+03
 0.16049999E+02  0.48105E+03
 0.16099998E+02  0.14746E+04
 0.16150000E+02  0.96583E+02
 0.16199999E+02 -0.56658E+04
 0.16249998E+02 -0.15715E+05
 0.16299999E+02 -0.27578E+05
 0.16349998E+02 -0.32618E+05
 0.16400000E+02 -0.23156E+05
 0.16449999E+02 -0.17090E+04
 0.16499998E+02  0.17701E+05
 0.16549999E+02  0.24684E+05
 0.16599998E+02  0.16227E+05
 0.16650000E+02 -0.15707E+05
 0.16699999E+02 -0.57408E+05
 0.16749998E+02 -0.88562E+05
 0.16799999E+02 -0.10275E+06
 0.16849998E+02 -0.89988E+05
 0.16900000E+02 -0.66138E+05
 0.16949999E+02 -0.38966E+05
 0.16999998E+02 -0.19598E+05
 0.17049999E+02 -0.33121E+05
 0.17099998E+02 -0.56403E+05
 0.17150000E+02 -0.76808E+05
 0.17199999E+02 -0.82789E+05
 0.17249998E+02 -0.52225E+05
 0.17299999E+02  0.35679E+04
 0.17349998E+02  0.77724E+05
 0.17400000E+02  0.13004E+06
 0.17449999E+02  0.13067E+06
 0.17499998E+02  0.84129E+05
 0.17549999E+02  0.24348E+05
 0.17599998E+02 -0.14194E+05
 0.17650000E+02 -0.14817E+05
 0.17699999E+02  0.32565E+05
 0.17749998E+02  0.36128E+05
 0.17799999E+02 -0.14708E+05
 0.17849998E+02 -0.49271E+05
 0.17900000E+02 -0.79666E+05
 0.17949999E+02 -0.89740E+05
 0.17999998E+02 -0.25618E+04
 0.18049999E+02  0.42181E+05
 0.18099998E+02  0.96082E+04
 0.18150000E+02  0.54025E+05
 0.18199999E+02  0.16832E+05
 0.18249998E+02  0.22742E+05
 0.18299999E+02  0.10173E+05
 0.18349998E+02 -0.50743E+05
 0.18400000E+02 -0.22902E+05
 0.18449999E+02 -0.29729E+05
 0.18499998E+02  0.27433E+05
 0.18549999E+02  0.38999E+05
 0.18599998E+02  0.39022E+05
 0.18650000E+02  0.14869E+04
 0.18699999E+02  0.39986E+04
 0.18749998E+02  0.84518E+05
 0.18799999E+02  0.11298E+06
 0.18849998E+02  0.18385E+06
 0.18900000E+02  0.16212E+06
 0.18949999E+02  0.75475E+05
 0.18999998E+02  0.38916E+05
 0.19049999E+02  0.48551E+05
 0.19099998E+02  0.72578E+05
 0.19150000E+02  0.74230E+05
 0.19199999E+02  0.32403E+05
 0.19249998E+02 -0.32979E+05
 0.19299999E+02 -0.48039E+05
 0.19349998E+02 -0.99461E+05
 0.19400000E+02 -0.11263E+06
 0.19449999E+02 -0.45617E+05
 0.19499998E+02 -0.10547E+06
 0.19549999E+02 -0.12987E+06
 0.19599998E+02 -0.72857E+05
 0.19650000E+02 -0.21311E+05
 0.19699999E+02  0.52143E+05
 0.19749998E+02  0.16299E+06
 0.19799999E+02  0.17459E+06
 0.19849998E+02  0.98100E+05
 0.19900000E+02  0.15346E+06
 0.19949999E+02  0.70863E+05
 0.19999998E+02 -0.16584E+05
 0.20049999E+02 -0.51857E+05
 0.20099998E+02 -0.53852E+05
 0.20150000E+02  0.28037E+05
 0.20199999E+02  0.68941E+05
 0.20249998E+02  0.99227E+05
 0.20299999E+02 -0.60523E+04
 0.20349998E+02 -0.38645E+05
 0.20399998E+02  0.25511E+05
 0.20449999E+02  0.65948E+05
 0.20499998E+02  0.43653E+05
 0.20549999E+02  0.20446E+05
 0.20599998E+02  0.13958E+06
 0.20649998E+02  0.15797E+06
 0.20699999E+02  0.11536E+06
 0.20749998E+02  0.70671E+05
 0.20799999E+02 -0.11515E+04
 0.20849998E+02  0.54170E+05
 0.20899998E+02  0.15303E+06
 0.20949999E+02  0.10940E+06
 0.20999998E+02 -0.26388E+05
 0.21049999E+02 -0.35302E+05
 0.21099998E+02  0.49480E+05
 0.21149998E+02  0.12970E+06
 0.21199999E+02  0.90140E+05
 0.21249998E+02 -0.40064E+03
 0.21299999E+02 -0.14764E+05
 0.21349998E+02  0.76525E+05
 0.21399998E+02  0.61353E+05
 0.21449999E+02  0.67375E+05
 0.21499998E+02  0.10849E+06
 0.21549999E+02 -0.20728E+05
 0.21599998E+02 -0.37174E+05
 0.21649998E+02 -0.19823E+05
 0.21699999E+02 -0.64749E+05
 0.21749998E+02 -0.15518E+06
 0.21799999E+02 -0.21268E+06
 0.21849998E+02 -0.18607E+06
 0.21899998E+02 -0.87328E+05
 0.21949999E+02  0.10453E+05
 0.21999998E+02  0.58807E+05
 0.22049999E+02  0.13446E+06
 0.22099998E+02  0.16496E+06
 0.22149998E+02  0.18110E+05
 0.22199999E+02 -0.41277E+05
 0.22249998E+02  0.11397E+05
 0.22299999E+02  0.31936E+05
 0.22349998E+02  0.15648E+06
 0.22399998E+02  0.11545E+06
 0.22449999E+02 -0.76730E+05
 0.22499998E+02 -0.17553E+06
 0.22549999E+02 -0.19464E+06
 0.22599998E+02 -0.13999E+06
 0.22649998E+02 -0.81840E+05
 0.22699999E+02 -0.15202E+06
 0.22749998E+02 -0.18852E+06
 0.22799999E+02 -0.75518E+05
 0.22849998E+02  0.32343E+03
 0.22899998E+02  0.19110E+05
 0.22949999E+02  0.25944E+05
 0.22999998E+02  0.99133E+05
 0.23049999E+02  0.13320E+06
 0.23099998E+02  0.11814E+06
 0.23149998E+02  0.13654E+06
 0.23199999E+02  0.17152E+06
 0.23249998E+02  0.21252E+06
 0.23299999E+02  0.10015E+06
 0.23349998E+02 -0.19903E+05
 0.23399998E+02 -0.56844E+04
 0.23449999E+02  0.44884E+05
 0.23499998E+02  0.52773E+04
 0.23549999E+02 -0.32303E+05
 0.23599998E+02 -0.90517E+04
 0.23649998E+02  0.32163E+05
 0.23699999E+02  0.63317E+04
 0.23749998E+02 -0.11881E+06
 0.23799999E+02 -0.24353E+06
 0.23849998E+02 -0.34571E+06
 0.23899998E+02 -0.30457E+06
 0.23949999E+02 -0.25589E+06
 0.23999998E+02 -0.24933E+06
 0.24049999E+02 -0.26132E+06
 0.24099998E+02 -0.27659E+06
 0.24149998E+02 -0.23594E+06
 0.24199999E+02 -0.23492E+06
 0.24249998E+02 -0.25916E+06
 0.24299999E+02 -0.29823E+06
 0.24349998E+02 -0.32823E+06
 0.24399998E+02 -0.27970E+06
 0.24449999E+02 -0.18183E+06
 0.24499998E+02 -0.18567E+06
 0.24549999E+02 -0.27274E+06
 0.24599998E+02 -0.34954E+06
 0.24649998E+02 -0.39213E+06
 0.24699999E+02 -0.27114E+06
 0.24749998E+02 -0.25008E+06
 0.24799999E+02 -0.29557E+06
 0.24849998E+02 -0.28599E+06
 0.24899998E+02 -0.27478E+06
 0.24949999E+02 -0.18485E+06
 0.24999998E+02 -0.23109E+06
 0.25049999E+02 -0.21226E+06
 0.25099998E+02 -0.20533E+06
 0.25149998E+02 -0.23126E+06
 0.25199999E+02 -0.18745E+06
 0.25249998E+02 -0.18513E+06
 0.25299999E+02 -0.94963E+05
 0.25349998E+02 -0.16322E+05
 0.25399998E+02  0.95488E+04
 0.25449999E+02 -0.66286E+05
 0.25499998E+02 -0.13810E+06
 0.25549999E+02 -0.18076E+06
 0.25599998E+02 -0.10042E+06
 0.25649998E+02  0.13406E+05
 0.25699999E+02 -0.56890E+05
 0.25749998E+02 -0.30249E+05
 0.25799999E+02 -0.49910E+05
 0.25849998E+02 -0.17114E+06
 0.25899998E+02 -0.20669E+06
 0.25949999E+02 -0.22463E+06
 0.25999998E+02 -0.14296E+06
 0.26049999E+02 -0.76968E+05
 0.26099998E+02 -0.16068E+05
 0.26149998E+02 -0.84669E+05
 0.26199999E+02 -0.16254E+06
 0.26249998E+02 -0.22183E+05
 0.26299999E+02 -0.28140E+05
 0.26349998E+02 -0.48423E+05
 0.26399998E+02  0.27698E+05
 0.26449999E+02  0.64314E+05
 0.26499998E+02  0.13474E+06
 0.26549999E+02  0.22671E+06
 0.26599998E+02  0.19451E+06
 0.26649998E+02  0.16803E+06
 0.26699999E+02  0.23268E+06
 0.26749998E+02  0.34141E+06
 0.26799999E+02  0.38686E+06
 0.26849998E+02  0.48852E+06
 0.26899998E+02  0.66421E+06
 0.26949999E+02  0.74357E+06
 0.26999998E+02  0.86422E+06
 0.27049997E+02  0.10171E+07
 0.27099998E+02  0.12053E+07
 0.27149998E+02  0.15090E+07
 0.27199999E+02  0.16722E+07
 0.27249998E+02  0.13829E+07
 0.27299997E+02  0.10409E+07
 0.27349998E+02  0.10340E+07
 0.27399998E+02  0.11409E+07
 0.27449999E+02  0.11595E+07
 0.27499998E+02  0.10674E+07
 0.27549997E+02  0.90953E+06
 0.27599998E+02  0.81751E+06
 0.27649998E+02  0.79447E+06
 0.27699999E+02  0.62973E+06
 0.27749998E+02  0.34368E+06
 0.27799997E+02  0.25435E+05
 0.27849998E+02 -0.28649E+06
 0.27899998E+02 -0.61202E+06
 0.27949999E+02 -0.73653E+06
 0.27999998E+02 -0.49286E+06
 0.28049997E+02  0.10952E+06
 0.28099998E+02  0.71759E+06
 0.28149998E+02  0.65177E+06
 0.28199999E+02 -0.13763E+06
 0.28249998E+02 -0.10611E+07
 0.28299997E+02 -0.14575E+07
 0.28349998E+02 -0.12437E+07
 0.28399998E+02 -0.79215E+06
 0.28449999E+02 -0.40049E+06
 0.28499998E+02  0.16076E+06
 0.28549997E+02  0.71446E+06
 0.28599998E+02  0.63084E+06
 0.28649998E+02 -0.27927E+06
 0.28699999E+02 -0.10648E+07
 0.28749998E+02 -0.10502E+07
 0.28799997E+02 -0.59363E+06
 0.28849998E+02 -0.41341E+05
 0.28899998E+02  0.39964E+06
 0.28949999E+02  0.99624E+06
 0.28999998E+02  0.15807E+07
 0.29049997E+02  0.16015E+07
 0.29099998E+02  0.89188E+06
 0.29149998E+02  0.23757E+05
 0.29199999E+02  0.41835E+05
 0.29249998E+02  0.69419E+06
 0.29299997E+02  0.11703E+07
 0.29349998E+02  0.11995E+07
 0.29399998E+02  0.88650E+06
 0.29449999E+02  0.61583E+06
 0.29499998E+02  0.62033E+06
 0.29549997E+02  0.69835E+06
 0.29599998E+02  0.26878E+06
 0.29649998E+02  0.82186E+05
 0.29699999E+02  0.35510E+06
 0.29749998E+02  0.35514E+06
 0.29799997E+02  0.48673E+06
 0.29849998E+02  0.83078E+06
 0.29899998E+02  0.81468E+06
 0.29949999E+02  0.50263E+06
 0.29999998E+02  0.30332E+06
 0.30049999E+02 -0.43435E+05
 0.30099998E+02 -0.36064E+06
 0.30149998E+02 -0.43738E+06
 0.30199997E+02 -0.30408E+06
 0.30249996E+02  0.14046E+06
 0.30299999E+02  0.42148E+06
 0.30349998E+02  0.20718E+06
 0.30399998E+02 -0.40231E+06
 0.30449997E+02 -0.84014E+06
 0.30499996E+02 -0.90224E+06
 0.30549999E+02 -0.83122E+06
 0.30599998E+02 -0.64577E+06
 0.30649998E+02 -0.38571E+06
 0.30699997E+02  0.21624E+05
 0.30749996E+02  0.56320E+05
 0.30799999E+02 -0.23072E+06
 0.30849998E+02 -0.30273E+06
 0.30899998E+02  0.15844E+05
 0.30949997E+02  0.55401E+06
 0.30999996E+02  0.47977E+06
 0.31049999E+02 -0.92219E+05
 0.31099998E+02 -0.55591E+06
 0.31149998E+02 -0.60767E+06
 0.31199997E+02 -0.22262E+06
 0.31249996E+02  0.29551E+06
 0.31299999E+02  0.47554E+06
 0.31349998E+02  0.74144E+06
 0.31399998E+02  0.80998E+06
 0.31449997E+02  0.12330E+06
 0.31499996E+02 -0.51806E+06
 0.31549999E+02 -0.92140E+06
 0.31599998E+02 -0.90319E+06
 0.31649998E+02 -0.44727E+06
 0.31699997E+02 -0.60085E+05
 0.31749996E+02 -0.20862E+06
 0.31799999E+02 -0.50454E+06
 0.31849998E+02 -0.37333E+06
 0.31899998E+02 -0.21307E+06
 0.31949997E+02 -0.19412E+06
 0.31999996E+02 -0.28783E+06
 0.32049999E+02 -0.72647E+06
 0.32099998E+02 -0.12964E+07
 0.32149998E+02 -0.14734E+07
 0.32199997E+02 -0.13776E+07
 0.32249996E+02 -0.12411E+07
 0.32299999E+02 -0.92742E+06
 0.32349998E+02 -0.49636E+06
 0.32399998E+02 -0.17074E+06
 0.32449997E+02 -0.74116E+05
 0.32499996E+02 -0.20494E+06
 0.32549999E+02 -0.52125E+06
 0.32599998E+02 -0.65111E+06
 0.32649998E+02 -0.43557E+06
 0.32699997E+02 -0.14979E+06
 0.32749996E+02  0.66165E+05
 0.32799999E+02  0.14537E+06
 0.32849998E+02  0.17211E+06
 0.32899998E+02  0.78758E+05
 0.32949997E+02 -0.16589E+06
 0.32999996E+02 -0.40638E+06
 0.33049999E+02 -0.65817E+06
 0.33099998E+02 -0.86336E+06
 0.33149998E+02 -0.11543E+07
 0.33199997E+02 -0.15686E+07
 0.33249996E+02 -0.18297E+07
 0.33299999E+02 -0.17417E+07
 0.33349998E+02 -0.13312E+07
 0.33399998E+02 -0.10165E+07
 0.33449997E+02 -0.78377E+06
 0.33499996E+02 -0.58627E+06
 0.33549999E+02 -0.53759E+06
 0.33599998E+02 -0.41545E+06
 0.33649998E+02 -0.20546E+06
 0.33699997E+02  0.10388E+06
 0.33749996E+02  0.44805E+06
 0.33799999E+02  0.69763E+06
 0.33849998E+02  0.84718E+06
 0.33899998E+02  0.10621E+07
 0.33949997E+02  0.12454E+07
 0.33999996E+02  0.12554E+07
 0.34049999E+02  0.10810E+07
 0.34099998E+02  0.96636E+06
 0.34149998E+02  0.11002E+07
 0.34199997E+02  0.95292E+06
 0.34249996E+02  0.51774E+06
 0.34299999E+02  0.21041E+06
 0.34349998E+02  0.79429E+05
 0.34399998E+02  0.91134E+05
 0.34449997E+02 -0.11848E+06
 0.34499996E+02 -0.68987E+06
 0.34549999E+02 -0.96996E+06
 0.34599998E+02 -0.84649E+06
 0.34649998E+02 -0.84340E+06
 0.34699997E+02 -0.11030E+07
 0.34749996E+02 -0.13908E+07
 0.34799999E+02 -0.15226E+07
 0.34849998E+02 -0.14762E+07
 0.34899998E+02 -0.15143E+07
 0.34949997E+02 -0.16017E+07
 0.34999996E+02 -0.14784E+07
 0.35049999E+02 -0.12527E+07
 0.35099998E+02 -0.10417E+07
 0.35149998E+02 -0.74098E+06
 0.35199997E+02 -0.45388E+06
 0.35249996E+02 -0.43009E+06
 0.35299999E+02 -0.35801E+06
 0.35349998E+02 -0.27141E+06
 0.35399998E+02 -0.31115E+06
 0.35449997E+02 -0.24762E+06
 0.35499996E+02 -0.15251E+06
 0.35549999E+02 -0.24603E+06
 0.35599998E+02 -0.47735E+06
 0.35649998E+02 -0.37058E+06
 0.35699997E+02 -0.19960E+06
 0.35749996E+02 -0.87119E+05
 0.35799999E+02  0.16433E+06
 0.35849998E+02  0.34232E+06
 0.35899998E+02  0.51507E+06
 0.35949997E+02  0.57063E+06
 0.35999996E+02  0.49459E+06
 0.36049999E+02  0.44277E+06
 0.36099998E+02  0.60795E+06
 0.36149998E+02  0.10804E+07
 0.36199997E+02  0.13423E+07
 0.36249996E+02  0.11678E+07
 0.36299999E+02  0.84956E+06
 0.36349998E+02  0.44803E+06
 0.36399998E+02  0.73820E+05
 0.36449997E+02 -0.18905E+06
 0.36499996E+02 -0.21484E+06
 0.36549999E+02 -0.93093E+05
 0.36599998E+02 -0.26105E+05
 0.36649998E+02 -0.25500E+05
 0.36699997E+02 -0.17745E+05
 0.36749996E+02  0.65935E+05
 0.36799999E+02  0.17570E+06
 0.36849998E+02  0.14918E+06
 0.36899998E+02  0.97548E+04
 0.36949997E+02 -0.10026E+06
 0.36999996E+02 -0.26719E+06
 0.37049999E+02 -0.29018E+06
 0.37099998E+02 -0.87874E+05
 0.37149998E+02  0.19375E+06
 0.37199997E+02  0.48470E+06
 0.37249996E+02  0.58014E+06
 0.37299999E+02  0.39968E+06
 0.37349998E+02  0.18576E+06
 0.37399998E+02  0.14414E+06
 0.37449997E+02  0.15723E+06
 0.37499996E+02  0.31999E+06
 0.37549999E+02  0.57819E+06
 0.37599998E+02  0.60374E+06
 0.37649998E+02  0.41674E+06
 0.37699997E+02  0.77745E+05
 0.37749996E+02 -0.27461E+06
 0.37799999E+02 -0.40457E+06
 0.37849998E+02 -0.26130E+06
 0.37899998E+02 -0.78448E+05
 0.37949997E+02  0.12577E+06
 0.37999996E+02  0.37671E+06
 0.38049999E+02  0.49633E+06
 0.38099998E+02  0.55366E+06
 0.38149998E+02  0.69260E+06
 0.38199997E+02  0.74699E+06
 0.38249996E+02  0.73459E+06
 0.38299999E+02  0.71222E+06
 0.38349998E+02  0.71986E+06
 0.38399998E+02  0.89814E+06
 0.38449997E+02  0.10543E+07
 0.38499996E+02  0.10518E+07
 0.38549999E+02  0.89651E+06
 0.38599998E+02  0.74087E+06
 0.38649998E+02  0.56460E+06
 0.38699997E+02  0.33446E+06
 0.38749996E+02  0.16255E+06
 0.38799999E+02  0.14143E+06
 0.38849998E+02  0.25613E+06
 0.38899998E+02  0.35424E+06
 0.38949997E+02  0.46388E+06
 0.38999996E+02  0.48876E+06
 0.39049999E+02  0.46544E+06
 0.39099998E+02  0.56218E+06
 0.39149998E+02  0.62288E+06
 0.39199997E+02  0.57778E+06
 0.39249996E+02  0.47342E+06
 0.39299999E+02  0.35916E+06
 0.39349998E+02  0.21789E+06
 0.39399998E+02  0.76940E+05
 0.39449997E+02 -0.64260E+05
 0.39499996E+02 -0.26586E+06
 0.39549999E+02 -0.36561E+06
 0.39599998E+02 -0.33366E+06
 0.39649998E+02 -0.40014E+06
 0.39699997E+02 -0.56592E+06
 0.39749996E+02 -0.62741E+06
 0.39799999E+02 -0.64045E+06
 0.39849998E+02 -0.54645E+06
 0.39899998E+02 -0.33104E+06
 0.39949997E+02 -0.19429E+06
 0.39999996E+02 -0.11789E+06
 0.40049999E+02  0.68450E+03
 0.40099998E+02  0.10340E+06
 0.40149998E+02  0.20928E+06
 0.40199997E+02  0.37865E+06
 0.40249996E+02  0.42905E+06
 0.40299999E+02  0.33268E+06
 0.40349998E+02  0.17427E+06
 0.40399998E+02 -0.86484E+05
 0.40449997E+02 -0.30601E+06
 0.40499996E+02 -0.31289E+06
 0.40549999E+02 -0.20902E+06
 0.40599998E+02 -0.10246E+06
 0.40649998E+02 -0.87162E+05
 0.40699997E+02 -0.16820E+06
 0.40749996E+02 -0.28670E+06
 0.40799999E+02 -0.37692E+06
 0.40849998E+02 -0.41689E+06
 0.40899998E+02 -0.45519E+06
 0.40949997E+02 -0.38755E+06
 0.40999996E+02 -0.22451E+06
 0.41049999E+02 -0.10935E+06
 0.41099998E+02 -0.14812E+06
 0.41149998E+02 -0.26963E+06
 0.41199997E+02 -0.31306E+06
 0.41249996E+02 -0.22680E+06
 0.41299999E+02 -0.78966E+05
 0.41349998E+02  0.51551E+05
 0.41399998E+02  0.12231E+06
 0.41449997E+02  0.17504E+06
 0.41499996E+02  0.29040E+06
 0.41549999E+02  0.36378E+06
 0.41599998E+02  0.32339E+06
 0.41649998E+02  0.24714E+06
 0.41699997E+02  0.25414E+06
 0.41749996E+02  0.32465E+06
 0.41799999E+02  0.28165E+06
 0.41849998E+02  0.14571E+06
 0.41899998E+02  0.13802E+05
 0.41949997E+02 -0.10076E+06
 0.41999996E+02 -0.21259E+06
 0.42049999E+02 -0.33068E+06
 0.42099998E+02 -0.36696E+06
 0.42149998E+02 -0.25265E+06
 0.42199997E+02 -0.12096E+06
 0.42249996E+02 -0.16463E+06
 0.42299999E+02 -0.32347E+06
 0.42349998E+02 -0.47174E+06
 0.42399998E+02 -0.55905E+06
 0.42449997E+02 -0.59557E+06
 0.42499996E+02 -0.62226E+06
 0.42549999E+02 -0.61541E+06
 0.42599998E+02 -0.49465E+06
 0.42649998E+02 -0.27522E+06
 0.42699997E+02 -0.10873E+06
 0.42749996E+02 -0.88102E+05
 0.42799995E+02 -0.16469E+06
 0.42849998E+02 -0.29389E+06
 0.42899998E+02 -0.38081E+06
 0.42949997E+02 -0.37518E+06
 0.42999996E+02 -0.34339E+06
 0.43049995E+02 -0.32499E+06
 0.43099998E+02 -0.27496E+06
 0.43149998E+02 -0.22127E+06
 0.43199997E+02 -0.22107E+06
 0.43249996E+02 -0.21121E+06
 0.43299995E+02 -0.24293E+06
 0.43349998E+02 -0.30045E+06
 0.43399998E+02 -0.24408E+06
 0.43449997E+02 -0.50042E+05
 0.43499996E+02  0.19354E+06
 0.43549995E+02  0.43066E+06
 0.43599998E+02  0.53420E+06
 0.43649998E+02  0.52575E+06
 0.43699997E+02  0.54458E+06
 0.43749996E+02  0.56671E+06
 0.43799995E+02  0.52056E+06
 0.43849998E+02  0.43186E+06
 0.43899998E+02  0.39418E+06
 0.43949997E+02  0.31551E+06
 0.43999996E+02  0.20060E+06
 0.44049995E+02  0.10041E+06
 0.44099998E+02 -0.10721E+04
 0.44149998E+02 -0.74806E+05
 0.44199997E+02 -0.17257E+06
 0.44249996E+02 -0.32611E+06
 0.44299995E+02 -0.45050E+06
 0.44349998E+02 -0.48387E+06
 0.44399998E+02 -0.42032E+06
 0.44449997E+02 -0.26634E+06
 0.44499996E+02 -0.78527E+05
 0.44549995E+02  0.90113E+05
 0.44599998E+02  0.21092E+06
 0.44649998E+02  0.25066E+06
 0.44699997E+02  0.20544E+06
 0.44749996E+02  0.15183E+06
 0.44799995E+02  0.14156E+06
 0.44849998E+02  0.21844E+06
 0.44899998E+02  0.38254E+06
 0.44949997E+02  0.53535E+06
 0.44999996E+02  0.56988E+06
 0.45049995E+02  0.49299E+06
 0.45099998E+02  0.39947E+06
 0.45149998E+02  0.30322E+06
 0.45199997E+02  0.25412E+06
 0.45249996E+02  0.29017E+06
 0.45299995E+02  0.34272E+06
 0.45349998E+02  0.37496E+06
 0.45399998E+02  0.32817E+06
 0.45449997E+02  0.19499E+06
 0.45499996E+02  0.40127E+05
 0.45549995E+02 -0.11887E+06
 0.45599998E+02 -0.27007E+06
 0.45649998E+02 -0.39610E+06
 0.45699997E+02 -0.46906E+06
 0.45749996E+02 -0.53536E+06
 0.45799995E+02 -0.59909E+06
 0.45849998E+02 -0.60416E+06
 0.45899998E+02 -0.53168E+06
 0.45949997E+02 -0.41038E+06
 0.45999996E+02 -0.30762E+06
 0.46049995E+02 -0.23447E+06
 0.46099998E+02 -0.16882E+06
 0.46149998E+02 -0.11469E+06
 0.46199997E+02 -0.42569E+05
 0.46249996E+02  0.78207E+05
 0.46299995E+02  0.15742E+06
 0.46349998E+02  0.18422E+06
 0.46399998E+02  0.17221E+06
 0.46449997E+02  0.99606E+05
 0.46499996E+02  0.13151E+05
 0.46549995E+02 -0.45800E+05
 0.46599998E+02 -0.10933E+06
 0.46649998E+02 -0.15499E+06
 0.46699997E+02 -0.15654E+06
 0.46749996E+02 -0.15258E+06
 0.46799995E+02 -0.13780E+06
 0.46849998E+02 -0.15806E+06
 0.46899998E+02 -0.17026E+06
 0.46949997E+02 -0.16539E+06
 0.46999996E+02 -0.16045E+06
 0.47049995E+02 -0.11799E+06
 0.47099998E+02 -0.36991E+05
 0.47149998E+02  0.73109E+05
 0.47199997E+02  0.15600E+06
 0.47249996E+02  0.20120E+06
 0.47299995E+02  0.19867E+06
 0.47349998E+02  0.15794E+06
 0.47399998E+02  0.10338E+06
 0.47449997E+02  0.83064E+05
 0.47499996E+02  0.11100E+06
 0.47549995E+02  0.12678E+06
 0.47599998E+02  0.12274E+06
 0.47649998E+02  0.14602E+06
 0.47699997E+02  0.22005E+06
 0.47749996E+02  0.30339E+06
 0.47799995E+02  0.33205E+06
 0.47849998E+02  0.32347E+06
 0.47899998E+02  0.31359E+06
 0.47949997E+02  0.29312E+06
 0.47999996E+02  0.26316E+06
 0.48049995E+02  0.19685E+06
 0.48099998E+02  0.13485E+06
 0.48149998E+02  0.11419E+06
 0.48199997E+02  0.63431E+05
 0.48249996E+02 -0.23855E+05
 0.48299995E+02 -0.92381E+05
 0.48349998E+02 -0.83468E+05
 0.48399998E+02 -0.20606E+05
 0.48449997E+02  0.50288E+05
 0.48499996E+02  0.83741E+05
 0.48549995E+02  0.40735E+05
 0.48599998E+02 -0.90253E+04
 0.48649998E+02 -0.29876E+05
 0.48699997E+02 -0.42205E+05
 0.48749996E+02 -0.59055E+05
 0.48799995E+02 -0.68101E+05
 0.48849998E+02 -0.54244E+05
 0.48899998E+02 -0.32086E+05
 0.48949997E+02 -0.66302E+05
 0.48999996E+02 -0.15725E+06
 0.49049995E+02 -0.25510E+06
 0.49099998E+02 -0.32309E+06
 0.49149998E+02 -0.38604E+06
 0.49199997E+02 -0.46061E+06
 0.49249996E+02 -0.50202E+06
 0.49299995E+02 -0.48286E+06
 0.49349998E+02 -0.40821E+06
 0.49399998E+02 -0.32751E+06
 0.49449997E+02 -0.23524E+06
 0.49499996E+02 -0.11833E+06
 0.49549995E+02 -0.11164E+05
 0.49599998E+02  0.73899E+05
 0.49649998E+02  0.11710E+06
 0.49699997E+02  0.12466E+06
 0.49749996E+02  0.14074E+06
 0.49799995E+02  0.20131E+06
 0.49849998E+02  0.27667E+06
 0.49899998E+02  0.29281E+06
 0.49949997E+02  0.25770E+06
 0.49999996E+02  0.21973E+06
 0.50049995E+02  0.19662E+06
 0.50099998E+02  0.15207E+06
 0.50149998E+02  0.93856E+05
 0.50199997E+02  0.63902E+05
 0.50249996E+02  0.76693E+05
 0.50299995E+02  0.14151E+06
 0.50349998E+02  0.23389E+06
 0.50399998E+02  0.30471E+06
 0.50449997E+02  0.36217E+06
 0.50499996E+02  0.40461E+06
 0.50549995E+02  0.42070E+06
 0.50599998E+02  0.43608E+06
 0.50649998E+02  0.45894E+06
 0.50699997E+02  0.47328E+06
 0.50749996E+02  0.44480E+06
 0.50799995E+02  0.37570E+06
 0.50849998E+02  0.28151E+06
 0.50899998E+02  0.18681E+06
 0.50949997E+02  0.10721E+06
 0.50999996E+02  0.50113E+05
 0.51049995E+02  0.16140E+05
 0.51099998E+02 -0.11620E+05
 0.51149998E+02 -0.49975E+05
 0.51199997E+02 -0.12395E+06
 0.51249996E+02 -0.19876E+06
 0.51299995E+02 -0.23594E+06
 0.51349998E+02 -0.26431E+06
 0.51399998E+02 -0.28478E+06
 0.51449997E+02 -0.31622E+06
 0.51499996E+02 -0.35606E+06
 0.51549995E+02 -0.36131E+06
 0.51599998E+02 -0.35337E+06
 0.51649998E+02 -0.33226E+06
 0.51699997E+02 -0.26320E+06
 0.51749996E+02 -0.16023E+06
 0.51799995E+02 -0.72618E+05
 0.51849998E+02 -0.10394E+05
 0.51899998E+02 -0.37816E+03
 0.51949997E+02 -0.38329E+05
 0.51999996E+02 -0.54109E+05
 0.52049995E+02 -0.43179E+05
 0.52099998E+02 -0.28833E+05
 0.52149998E+02  0.63957E+04
 0.52199997E+02  0.88186E+05
 0.52249996E+02  0.16210E+06
 0.52299995E+02  0.18508E+06
 0.52349998E+02  0.16522E+06
 0.52399998E+02  0.11785E+06
 0.52449997E+02  0.69853E+05
 0.52499996E+02  0.14262E+05
 0.52549995E+02 -0.57878E+05
 0.52599998E+02 -0.11693E+06
 0.52649998E+02 -0.12368E+06
 0.52699997E+02 -0.88152E+05
 0.52749996E+02 -0.49270E+05
 0.52799995E+02 -0.16269E+05
 0.52849998E+02  0.19050E+05
 0.52899998E+02  0.55302E+05
 0.52949997E+02  0.59721E+05
 0.52999996E+02 -0.28310E+04
 0.53049995E+02 -0.10826E+06
 0.53099998E+02 -0.21086E+06
 0.53149998E+02 -0.27970E+06
 0.53199997E+02 -0.32502E+06
 0.53249996E+02 -0.34163E+06
 0.53299995E+02 -0.32178E+06
 0.53349998E+02 -0.28863E+06
 0.53399998E+02 -0.22857E+06
 0.53449997E+02 -0.14140E+06
 0.53499996E+02 -0.52159E+05
 0.53549995E+02  0.46606E+05
 0.53599998E+02  0.14985E+06
 0.53649998E+02  0.25066E+06
 0.53699997E+02  0.34530E+06
 0.53749996E+02  0.42498E+06
 0.53799995E+02  0.49683E+06
 0.53849998E+02  0.54039E+06
 0.53899998E+02  0.56558E+06
 0.53949997E+02  0.54821E+06
 0.53999996E+02  0.44709E+06
 0.54049995E+02  0.29119E+06
 0.54099998E+02  0.11174E+06
 0.54149998E+02 -0.62002E+05
 0.54199997E+02 -0.16612E+06
 0.54249996E+02 -0.19000E+06
 0.54299995E+02 -0.20271E+06
 0.54349998E+02 -0.22430E+06
 0.54399998E+02 -0.25242E+06
 0.54449997E+02 -0.28217E+06
 0.54499996E+02 -0.28938E+06
 0.54549995E+02 -0.26748E+06
 0.54599998E+02 -0.22536E+06
 0.54649998E+02 -0.16222E+06
 0.54699997E+02 -0.91697E+05
 0.54749996E+02 -0.53302E+05
 0.54799995E+02 -0.64094E+05
 0.54849998E+02 -0.95595E+05
 0.54899998E+02 -0.10811E+06
 0.54949997E+02 -0.11104E+06
 0.54999996E+02 -0.12249E+06
 0.55049995E+02 -0.13481E+06
 0.55099998E+02 -0.13193E+06
 0.55149998E+02 -0.12555E+06
 0.55199997E+02 -0.11969E+06
 0.55249996E+02 -0.90465E+05
 0.55299995E+02 -0.46450E+05
 0.55349998E+02  0.16841E+05
 0.55399998E+02  0.88891E+05
 0.55449997E+02  0.14062E+06
 0.55499996E+02  0.15002E+06
 0.55549995E+02  0.12906E+06
 0.55599998E+02  0.98093E+05
 0.55649998E+02  0.51730E+05
 0.55699997E+02  0.51799E+04
 0.55749996E+02 -0.27613E+05
 0.55799995E+02 -0.32876E+05
 0.55849995E+02 -0.29506E+04
 0.55899998E+02  0.29898E+05
 0.55949997E+02  0.29735E+05
 0.55999996E+02  0.28088E+04
 0.56049995E+02 -0.26720E+05
 0.56099995E+02 -0.37091E+05
 0.56149998E+02 -0.35786E+05
 0.56199997E+02 -0.34144E+05
 0.56249996E+02 -0.33907E+05
 0.56299995E+02 -0.20372E+05
 0.56349995E+02 -0.10309E+05
 0.56399998E+02 -0.44413E+05
 0.56449997E+02 -0.10873E+06
 0.56499996E+02 -0.17705E+06
 0.56549995E+02 -0.21288E+06
 0.56599995E+02 -0.19978E+06
 0.56649998E+02 -0.13181E+06
 0.56699997E+02 -0.46705E+05
 0.56749996E+02  0.81385E+04
 0.56799995E+02  0.38784E+05
 0.56849995E+02  0.47736E+05
 0.56899998E+02  0.54547E+05
 0.56949997E+02  0.66565E+05
 0.56999996E+02  0.66566E+05
 0.57049995E+02  0.52495E+05
 0.57099995E+02  0.44750E+05
 0.57149998E+02  0.57917E+05
 0.57199997E+02  0.95909E+05
 0.57249996E+02  0.13953E+06
 0.57299995E+02  0.15472E+06
 0.57349995E+02  0.13578E+06
 0.57399998E+02  0.10375E+06
 0.57449997E+02  0.88458E+05
 0.57499996E+02  0.10967E+06
 0.57549995E+02  0.17438E+06
 0.57599995E+02  0.26129E+06
 0.57649998E+02  0.33158E+06
 0.57699997E+02  0.35903E+06
 0.57749996E+02  0.33286E+06
 0.57799995E+02  0.27524E+06
 0.57849995E+02  0.23196E+06
 0.57899998E+02  0.21288E+06
 0.57949997E+02  0.19736E+06
 0.57999996E+02  0.18853E+06
 0.58049995E+02  0.16932E+06
 0.58099995E+02  0.13420E+06
 0.58149998E+02  0.10420E+06
 0.58199997E+02  0.79907E+05
 0.58249996E+02  0.58127E+05
 0.58299995E+02  0.15378E+05
 0.58349995E+02 -0.41685E+05
 0.58399998E+02 -0.95895E+05
 0.58449997E+02 -0.12810E+06
 0.58499996E+02 -0.13501E+06
 0.58549995E+02 -0.14350E+06
 0.58599995E+02 -0.14253E+06
 0.58649998E+02 -0.11358E+06
 0.58699997E+02 -0.80982E+05
 0.58749996E+02 -0.82022E+05
 0.58799995E+02 -0.92956E+05
 0.58849995E+02 -0.69919E+05
 0.58899998E+02 -0.96062E+04
 0.58949997E+02  0.70578E+05
 0.58999996E+02  0.14532E+06
 0.59049995E+02  0.18897E+06
 0.59099995E+02  0.20631E+06
 0.59149998E+02  0.20520E+06
 0.59199997E+02  0.18171E+06
 0.59249996E+02  0.14341E+06
 0.59299995E+02  0.99429E+05
 0.59349995E+02  0.50972E+05
 0.59399998E+02 -0.26754E+04
 0.59449997E+02 -0.44474E+05
 0.59499996E+02 -0.81353E+05
 0.59549995E+02 -0.12845E+06
 0.59599995E+02 -0.15799E+06
 0.59649998E+02 -0.14552E+06
 0.59699997E+02 -0.95935E+05
 0.59749996E+02 -0.31575E+05
 0.59799995E+02  0.31697E+05
 0.59849995E+02  0.83941E+05
 0.59899998E+02  0.12641E+06
 0.59949997E+02  0.16261E+06
 0.59999996E+02  0.17538E+06
 0.60049995E+02  0.16126E+06
 0.60099995E+02  0.13475E+06
 0.60149998E+02  0.10937E+06
 0.60199997E+02  0.98115E+05
 0.60249996E+02  0.11381E+06
 0.60299995E+02  0.14622E+06
 0.60349995E+02  0.17884E+06
 0.60399998E+02  0.20372E+06
 0.60449997E+02  0.22560E+06
 0.60499996E+02  0.24827E+06
 0.60549995E+02  0.25728E+06
 0.60599995E+02  0.24274E+06
 0.60649998E+02  0.21462E+06
 0.60699997E+02  0.18654E+06
 0.60749996E+02  0.15443E+06
 0.60799995E+02  0.11760E+06
 0.60849995E+02  0.87782E+05
 0.60899998E+02  0.87821E+05
 0.60949997E+02  0.12446E+06
 0.60999996E+02  0.16340E+06
 0.61049995E+02  0.17162E+06
 0.61099995E+02  0.15599E+06
 0.61149998E+02  0.12743E+06
 0.61199997E+02  0.83067E+05
 0.61249996E+02  0.32772E+05
 0.61299995E+02 -0.26243E+05
 0.61349995E+02 -0.10217E+06
 0.61399998E+02 -0.17783E+06
 0.61449997E+02 -0.23656E+06
 0.61499996E+02 -0.28278E+06
 0.61549995E+02 -0.32398E+06
 0.61599995E+02 -0.35452E+06
 0.61649998E+02 -0.36957E+06
 0.61699997E+02 -0.36705E+06
 0.61749996E+02 -0.34526E+06
 0.61799995E+02 -0.31725E+06
 0.61849995E+02 -0.28717E+06
 0.61899998E+02 -0.24430E+06
 0.61949997E+02 -0.20171E+06
 0.61999996E+02 -0.16615E+06
 0.62049995E+02 -0.13070E+06
 0.62099998E+02 -0.82631E+05
 0.62149994E+02 -0.27859E+05
 0.62199997E+02  0.13576E+05
 0.62249992E+02  0.37778E+05
 0.62299995E+02  0.45336E+05
 0.62349998E+02  0.50828E+05
 0.62399994E+02  0.68626E+05
 0.62449997E+02  0.10879E+06
 0.62499992E+02  0.16451E+06
 0.62549995E+02  0.21731E+06
 0.62599998E+02  0.25418E+06
 0.62649994E+02  0.26912E+06
 0.62699997E+02  0.25721E+06
 0.62749992E+02  0.22529E+06
 0.62799995E+02  0.20500E+06
 0.62849998E+02  0.21430E+06
 0.62899994E+02  0.23306E+06
 0.62949997E+02  0.23784E+06
 0.62999992E+02  0.21432E+06
 0.63049995E+02  0.16829E+06
 0.63099998E+02  0.13150E+06
 0.63149994E+02  0.11626E+06
 0.63199997E+02  0.11983E+06
 0.63249992E+02  0.13406E+06
 0.63299995E+02  0.15843E+06
 0.63349998E+02  0.19043E+06
 0.63399994E+02  0.21583E+06
 0.63449997E+02  0.21496E+06
 0.63499992E+02  0.17703E+06
 0.63549995E+02  0.11624E+06
 0.63599998E+02  0.53779E+05
 0.63649994E+02 -0.49086E+04
 0.63699997E+02 -0.54749E+05
 0.63749992E+02 -0.89140E+05
 0.63799995E+02 -0.11901E+06
 0.63849998E+02 -0.15648E+06
 0.63899994E+02 -0.20187E+06
 0.63949997E+02 -0.25181E+06
 0.63999992E+02 -0.32123E+06
 0.64049995E+02 -0.40024E+06
 0.64099998E+02 -0.45489E+06
 0.64149994E+02 -0.47960E+06
 0.64199997E+02 -0.48236E+06
 0.64249992E+02 -0.47262E+06
 0.64299995E+02 -0.45642E+06
 0.64349998E+02 -0.43094E+06
 0.64399994E+02 -0.38321E+06
 0.64449997E+02 -0.32853E+06
 0.64499992E+02 -0.30052E+06
 0.64549995E+02 -0.29342E+06
 0.64599998E+02 -0.28981E+06
 0.64649994E+02 -0.27459E+06
 0.64699997E+02 -0.23789E+06
 0.64749992E+02 -0.18900E+06
 0.64799995E+02 -0.14579E+06
 0.64849998E+02 -0.10371E+06
 0.64899994E+02 -0.55869E+05
 0.64949997E+02 -0.14624E+05
 0.64999992E+02  0.11377E+05
 0.65049995E+02  0.30878E+05
 0.65099998E+02  0.62548E+05
 0.65149994E+02  0.10646E+06
 0.65199997E+02  0.14210E+06
 0.65249992E+02  0.15931E+06
 0.65299995E+02  0.17123E+06
 0.65349998E+02  0.19462E+06
 0.65399994E+02  0.22423E+06
 0.65449997E+02  0.24227E+06
 0.65499992E+02  0.23810E+06
 0.65549995E+02  0.21430E+06
 0.65599998E+02  0.18640E+06
 0.65649994E+02  0.15823E+06
 0.65699997E+02  0.12367E+06
 0.65749992E+02  0.10117E+06
 0.65799995E+02  0.11336E+06
 0.65849998E+02  0.14522E+06
 0.65899994E+02  0.17167E+06
 0.65949997E+02  0.17252E+06
 0.65999992E+02  0.14565E+06
 0.66049995E+02  0.10620E+06
 0.66099998E+02  0.62000E+05
 0.66149994E+02  0.20449E+05
 0.66199997E+02 -0.42105E+04
 0.66249992E+02  0.51731E+03
 0.66299995E+02  0.19690E+05
 0.66349998E+02  0.33103E+05
 0.66399994E+02  0.37518E+05
 0.66449997E+02  0.41741E+05
 0.66499992E+02  0.56317E+05
 0.66549995E+02  0.73162E+05
 0.66599998E+02  0.85973E+05
 0.66649994E+02  0.93748E+05
 0.66699997E+02  0.10191E+06
 0.66749992E+02  0.10701E+06
 0.66799995E+02  0.10081E+06
 0.66849998E+02  0.85695E+05
 0.66899994E+02  0.66105E+05
 0.66949997E+02  0.47644E+05
 0.66999992E+02  0.25034E+05
 0.67049995E+02 -0.64309E+04
 0.67099998E+02 -0.45284E+05
 0.67149994E+02 -0.78194E+05
 0.67199997E+02 -0.10733E+06
 0.67249992E+02 -0.13751E+06
 0.67299995E+02 -0.15730E+06
 0.67349998E+02 -0.16062E+06
 0.67399994E+02 -0.14953E+06
 0.67449997E+02 -0.13754E+06
 0.67499992E+02 -0.13045E+06
 0.67549995E+02 -0.13013E+06
 0.67599998E+02 -0.12428E+06
 0.67649994E+02 -0.97022E+05
 0.67699997E+02 -0.61170E+05
 0.67749992E+02 -0.37651E+05
 0.67799995E+02 -0.31201E+05
 0.67849998E+02 -0.28461E+05
 0.67899994E+02 -0.19045E+05
 0.67949997E+02 -0.48316E+04
 0.67999992E+02  0.96566E+04
 0.68049995E+02  0.33681E+05
 0.68099998E+02  0.78252E+05
 0.68149994E+02  0.13741E+06
 0.68199997E+02  0.20080E+06
 0.68249992E+02  0.25415E+06
 0.68299995E+02  0.30015E+06
 0.68349998E+02  0.34808E+06
 0.68399994E+02  0.38286E+06
 0.68449997E+02  0.39212E+06
 0.68499992E+02  0.37608E+06
 0.68549995E+02  0.35077E+06
 0.68599998E+02  0.33372E+06
 0.68649994E+02  0.31524E+06
 0.68699997E+02  0.28089E+06
 0.68749992E+02  0.22937E+06
 0.68799995E+02  0.17402E+06
 0.68849998E+02  0.12738E+06
 0.68899994E+02  0.84798E+05
 0.68949997E+02  0.32859E+05
 0.68999992E+02 -0.33222E+05
 0.69049995E+02 -0.10160E+06
 0.69099998E+02 -0.16690E+06
 0.69149994E+02 -0.22951E+06
 0.69199997E+02 -0.28922E+06
 0.69249992E+02 -0.34729E+06
 0.69299995E+02 -0.39790E+06
 0.69349998E+02 -0.42947E+06
 0.69399994E+02 -0.43158E+06
 0.69449997E+02 -0.40677E+06
 0.69499992E+02 -0.36752E+06
 0.69549995E+02 -0.32975E+06
 0.69599998E+02 -0.30251E+06
 0.69649994E+02 -0.28553E+06
 0.69699997E+02 -0.26568E+06
 0.69749992E+02 -0.22868E+06
 0.69799995E+02 -0.17595E+06
 0.69849998E+02 -0.11075E+06
 0.69899994E+02 -0.45329E+05
 0.69949997E+02  0.49855E+04
 0.69999992E+02  0.36525E+05
 0.70049995E+02  0.54856E+05
 0.70099998E+02  0.68527E+05
 0.70149994E+02  0.86578E+05
 0.70199997E+02  0.11531E+06
 0.70249992E+02  0.14872E+06
 0.70299995E+02  0.16903E+06
 0.70349998E+02  0.17361E+06
 0.70399994E+02  0.17752E+06
 0.70449997E+02  0.18857E+06
 0.70499992E+02  0.21108E+06
 0.70549995E+02  0.24572E+06
 0.70599998E+02  0.27682E+06
 0.70649994E+02  0.29131E+06
 0.70699997E+02  0.28924E+06
 0.70749992E+02  0.27546E+06
 0.70799995E+02  0.25738E+06
 0.70849998E+02  0.23473E+06
 0.70899994E+02  0.20819E+06
 0.70949997E+02  0.18317E+06
 0.70999992E+02  0.16889E+06
 0.71049995E+02  0.15787E+06
 0.71099998E+02  0.14623E+06
 0.71149994E+02  0.14423E+06
 0.71199997E+02  0.14952E+06
 0.71249992E+02  0.15508E+06
 0.71299995E+02  0.15495E+06
 0.71349998E+02  0.14392E+06
 0.71399994E+02  0.12931E+06
 0.71449997E+02  0.12724E+06
 0.71499992E+02  0.12972E+06
 0.71549995E+02  0.13101E+06
 0.71599998E+02  0.13213E+06
 0.71649994E+02  0.12299E+06
 0.71699997E+02  0.98230E+05
 0.71749992E+02  0.56202E+05
 0.71799995E+02  0.42016E+04
 0.71849998E+02 -0.49821E+05
 0.71899994E+02 -0.99971E+05
 0.71949997E+02 -0.13818E+06
 0.71999992E+02 -0.16527E+06
 0.72049995E+02 -0.18194E+06
 0.72099998E+02 -0.19169E+06
 0.72149994E+02 -0.19850E+06
 0.72199997E+02 -0.20003E+06
 0.72249992E+02 -0.19708E+06
 0.72299995E+02 -0.19047E+06
 0.72349998E+02 -0.18001E+06
 0.72399994E+02 -0.16517E+06
 0.72449997E+02 -0.14317E+06
 0.72499992E+02 -0.11740E+06
 0.72549995E+02 -0.97029E+05
 0.72599998E+02 -0.78743E+05
 0.72649994E+02 -0.53361E+05
 0.72699997E+02 -0.27044E+05
 0.72749992E+02 -0.12213E+05
 0.72799995E+02 -0.13107E+05
 0.72849998E+02 -0.27962E+05
 0.72899994E+02 -0.51511E+05
 0.72949997E+02 -0.78672E+05
 0.72999992E+02 -0.10821E+06
 0.73049995E+02 -0.13497E+06
 0.73099998E+02 -0.15026E+06
 0.73149994E+02 -0.15749E+06
 0.73199997E+02 -0.15979E+06
 0.73249992E+02 -0.15433E+06
 0.73299995E+02 -0.14239E+06
 0.73349998E+02 -0.12078E+06
 0.73399994E+02 -0.89675E+05
 0.73449997E+02 -0.64080E+05
 0.73499992E+02 -0.50534E+05
 0.73549995E+02 -0.37098E+05
 0.73599998E+02 -0.22969E+05
 0.73649994E+02 -0.20544E+05
 0.73699997E+02 -0.37344E+05
 0.73749992E+02 -0.61749E+05
 0.73799995E+02 -0.82901E+05
 0.73849998E+02 -0.96069E+05
 0.73899994E+02 -0.10264E+06
 0.73949997E+02 -0.10780E+06
 0.73999992E+02 -0.10124E+06
 0.74049995E+02 -0.85519E+05
 0.74099998E+02 -0.72443E+05
 0.74149994E+02 -0.66630E+05
 0.74199997E+02 -0.57660E+05
 0.74249992E+02 -0.32376E+05
 0.74299995E+02  0.44983E+04
 0.74349998E+02  0.41293E+05
 0.74399994E+02  0.69097E+05
 0.74449997E+02  0.90364E+05
 0.74499992E+02  0.11134E+06
 0.74549995E+02  0.12906E+06
 0.74599998E+02  0.13713E+06
 0.74649994E+02  0.13942E+06
 0.74699997E+02  0.14116E+06
 0.74749992E+02  0.13678E+06
 0.74799995E+02  0.12212E+06
 0.74849998E+02  0.10866E+06
 0.74899994E+02  0.10780E+06
 0.74949997E+02  0.11320E+06
 0.74999992E+02  0.11048E+06
 0.75049995E+02  0.89040E+05
 0.75099998E+02  0.49746E+05
 0.75149994E+02  0.14421E+04
 0.75199997E+02 -0.47745E+05
 0.75249992E+02 -0.91434E+05
 0.75299995E+02 -0.12229E+06
 0.75349998E+02 -0.13119E+06
 0.75399994E+02 -0.11782E+06
 0.75449997E+02 -0.93881E+05
 0.75499992E+02 -0.69842E+05
 0.75549995E+02 -0.53593E+05
 0.75599998E+02 -0.43186E+05
 0.75649994E+02 -0.34063E+05
 0.75699997E+02 -0.27807E+05
 0.75749992E+02 -0.23773E+05
 0.75799995E+02 -0.15697E+05
 0.75849998E+02  0.23756E+04
 0.75899994E+02  0.31096E+05
 0.75949997E+02  0.69880E+05
 0.75999992E+02  0.10940E+06
 0.76049995E+02  0.14132E+06
 0.76099998E+02  0.15903E+06
 0.76149994E+02  0.16382E+06
 0.76199997E+02  0.16472E+06
 0.76249992E+02  0.16832E+06
 0.76299995E+02  0.17866E+06
 0.76349998E+02  0.19096E+06
 0.76399994E+02  0.20489E+06
 0.76449997E+02  0.21457E+06
 0.76499992E+02  0.20954E+06
 0.76549995E+02  0.18978E+06
 0.76599998E+02  0.16380E+06
 0.76649994E+02  0.14140E+06
 0.76699997E+02  0.13094E+06
 0.76749992E+02  0.13184E+06
 0.76799995E+02  0.13049E+06
 0.76849998E+02  0.12054E+06
 0.76899994E+02  0.99218E+05
 0.76949997E+02  0.67004E+05
 0.76999992E+02  0.31040E+05
 0.77049995E+02 -0.84166E+03
 0.77099998E+02 -0.26362E+05
 0.77149994E+02 -0.47706E+05
 0.77199997E+02 -0.61932E+05
 0.77249992E+02 -0.69097E+05
 0.77299995E+02 -0.71189E+05
 0.77349998E+02 -0.66192E+05
 0.77399994E+02 -0.48949E+05
 0.77449997E+02 -0.15582E+05
 0.77499992E+02  0.26978E+05
 0.77549995E+02  0.72230E+05
 0.77599998E+02  0.11865E+06
 0.77649994E+02  0.16270E+06
 0.77699997E+02  0.19955E+06
 0.77749992E+02  0.22312E+06
 0.77799995E+02  0.23062E+06
 0.77849998E+02  0.22486E+06
 0.77899994E+02  0.21181E+06
 0.77949997E+02  0.19863E+06
 0.77999992E+02  0.18834E+06
 0.78049995E+02  0.17562E+06
 0.78099998E+02  0.15647E+06
 0.78149994E+02  0.13342E+06
 0.78199997E+02  0.10666E+06
 0.78249992E+02  0.72605E+05
 0.78299995E+02  0.30545E+05
 0.78349998E+02 -0.14421E+05
 0.78399994E+02 -0.54767E+05
 0.78449997E+02 -0.88356E+05
 0.78499992E+02 -0.12173E+06
 0.78549995E+02 -0.15777E+06
 0.78599998E+02 -0.19339E+06
 0.78649994E+02 -0.23233E+06
 0.78699997E+02 -0.27535E+06
 0.78749992E+02 -0.32105E+06
 0.78799995E+02 -0.36915E+06
 0.78849998E+02 -0.41215E+06
 0.78899994E+02 -0.44335E+06
 0.78949997E+02 -0.46222E+06
 0.78999992E+02 -0.47546E+06
 0.79049995E+02 -0.48354E+06
 0.79099998E+02 -0.48082E+06
 0.79149994E+02 -0.46474E+06
 0.79199997E+02 -0.44160E+06
 0.79249992E+02 -0.42270E+06
 0.79299995E+02 -0.39919E+06
 0.79349998E+02 -0.36173E+06
 0.79399994E+02 -0.31560E+06
 0.79449997E+02 -0.26821E+06
 0.79499992E+02 -0.22220E+06
 0.79549995E+02 -0.17040E+06
 0.79599998E+02 -0.10868E+06
 0.79649994E+02 -0.41595E+05
 0.79699997E+02  0.21303E+05
 0.79749992E+02  0.79209E+05
 0.79799995E+02  0.13105E+06
 0.79849998E+02  0.16354E+06
 0.79899994E+02  0.17298E+06
 0.79949997E+02  0.17087E+06
 0.79999992E+02  0.16700E+06
 0.80049995E+02  0.16162E+06
 0.80099998E+02  0.15377E+06
 0.80149994E+02  0.14051E+06
 0.80199997E+02  0.12287E+06
 0.80249992E+02  0.10451E+06
 0.80299995E+02  0.82704E+05
 0.80349998E+02  0.57469E+05
 0.80399994E+02  0.37382E+05
 0.80449997E+02  0.30413E+05
 0.80499992E+02  0.28797E+05
 0.80549995E+02  0.24090E+05
 0.80599998E+02  0.21355E+05
 0.80649994E+02  0.24644E+05
 0.80699997E+02  0.32153E+05
 0.80749992E+02  0.42878E+05
 0.80799995E+02  0.59765E+05
 0.80849998E+02  0.86446E+05
 0.80899994E+02  0.11889E+06
 0.80949997E+02  0.14748E+06
 0.80999992E+02  0.16728E+06
 0.81049995E+02  0.17952E+06
 0.81099998E+02  0.18546E+06
 0.81149994E+02  0.18717E+06
 0.81199997E+02  0.18850E+06
 0.81249992E+02  0.19503E+06
 0.81299995E+02  0.20532E+06
 0.81349998E+02  0.21690E+06
 0.81399994E+02  0.22815E+06
 0.81449997E+02  0.23403E+06
 0.81499992E+02  0.23677E+06
 0.81549995E+02  0.23796E+06
 0.81599998E+02  0.23695E+06
 0.81649994E+02  0.23213E+06
 0.81699997E+02  0.22106E+06
 0.81749992E+02  0.20423E+06
 0.81799995E+02  0.18466E+06
 0.81849998E+02  0.16139E+06
 0.81899994E+02  0.13889E+06
 0.81949997E+02  0.12549E+06
 0.81999992E+02  0.11734E+06
 0.82049995E+02  0.11119E+06
 0.82099998E+02  0.10995E+06
 0.82149994E+02  0.10745E+06
 0.82199997E+02  0.94718E+05
 0.82249992E+02  0.72602E+05
 0.82299995E+02  0.46700E+05
 0.82349998E+02  0.22138E+05
 0.82399994E+02  0.26158E+04
 0.82449997E+02 -0.92552E+04
 0.82499992E+02 -0.18333E+05
 0.82549995E+02 -0.31623E+05
 0.82599998E+02 -0.54654E+05
 0.82649994E+02 -0.86932E+05
 0.82699997E+02 -0.11867E+06
 0.82749992E+02 -0.14409E+06
 0.82799995E+02 -0.15779E+06
 0.82849998E+02 -0.15601E+06
 0.82899994E+02 -0.14076E+06
 0.82949997E+02 -0.11344E+06
 0.82999992E+02 -0.76669E+05
 0.83049995E+02 -0.37014E+05
 0.83099998E+02 -0.10483E+03
 0.83149994E+02  0.36541E+05
 0.83199997E+02  0.73775E+05
 0.83249992E+02  0.10986E+06
 0.83299995E+02  0.14035E+06
 0.83349998E+02  0.16067E+06
 0.83399994E+02  0.17369E+06
 0.83449997E+02  0.18063E+06
 0.83499992E+02  0.17997E+06
 0.83549995E+02  0.16873E+06
 0.83599998E+02  0.14897E+06
 0.83649994E+02  0.12584E+06
 0.83699997E+02  0.10162E+06
 0.83749992E+02  0.77955E+05
 0.83799995E+02  0.57193E+05
 0.83849998E+02  0.43653E+05
 0.83899994E+02  0.40092E+05
 0.83949997E+02  0.44120E+05
 0.83999992E+02  0.46882E+05
 0.84049995E+02  0.40663E+05
 0.84099998E+02  0.27463E+05
 0.84149994E+02  0.13234E+05
 0.84199997E+02  0.12243E+04
 0.84249992E+02 -0.61798E+04
 0.84299995E+02 -0.12576E+05
 0.84349998E+02 -0.18999E+05
 0.84399994E+02 -0.16959E+05
 0.84449997E+02 -0.31154E+04
 0.84499992E+02  0.16993E+05
 0.84549995E+02  0.37639E+05
 0.84599998E+02  0.56985E+05
 0.84649994E+02  0.75086E+05
 0.84699997E+02  0.92657E+05
 0.84749992E+02  0.10950E+06
 0.84799995E+02  0.12552E+06
 0.84849998E+02  0.13899E+06
 0.84899994E+02  0.14740E+06
 0.84949997E+02  0.14676E+06
 0.84999992E+02  0.13074E+06
 0.85049995E+02  0.99255E+05
 0.85099998E+02  0.59998E+05
 0.85149994E+02  0.16842E+05
 0.85199997E+02 -0.31117E+05
 0.85249992E+02 -0.83047E+05
 0.85299995E+02 -0.13465E+06
 0.85349998E+02 -0.17836E+06
 0.85399994E+02 -0.21085E+06
 0.85449997E+02 -0.23347E+06
 0.85499992E+02 -0.25102E+06
 0.85549995E+02 -0.26596E+06
 0.85599998E+02 -0.27604E+06
 0.85649994E+02 -0.28329E+06
 0.85699997E+02 -0.28574E+06
 0.85749992E+02 -0.27288E+06
 0.85799995E+02 -0.24187E+06
 0.85849998E+02 -0.19506E+06
 0.85899994E+02 -0.13619E+06
 0.85949997E+02 -0.77092E+05
 0.85999992E+02 -0.25487E+05
 0.86049995E+02  0.19357E+05
 0.86099998E+02  0.54116E+05
 0.86149994E+02  0.78304E+05
 0.86199997E+02  0.10144E+06
 0.86249992E+02  0.12987E+06
 0.86299995E+02  0.16200E+06
 0.86349998E+02  0.19602E+06
 0.86399994E+02  0.22920E+06
 0.86449997E+02  0.25717E+06
 0.86499992E+02  0.27571E+06
 0.86549995E+02  0.28178E+06
 0.86599998E+02  0.27471E+06
 0.86649994E+02  0.25489E+06
 0.86699997E+02  0.22459E+06
 0.86749992E+02  0.18573E+06
 0.86799995E+02  0.14533E+06
 0.86849998E+02  0.10760E+06
 0.86899994E+02  0.67973E+05
 0.86949997E+02  0.25039E+05
 0.86999992E+02 -0.18693E+05
 0.87049995E+02 -0.61230E+05
 0.87099998E+02 -0.10182E+06
 0.87149994E+02 -0.14010E+06
 0.87199997E+02 -0.17680E+06
 0.87249992E+02 -0.21437E+06
 0.87299995E+02 -0.24930E+06
 0.87349998E+02 -0.27758E+06
 0.87399994E+02 -0.29983E+06
 0.87449997E+02 -0.31390E+06
 0.87499992E+02 -0.32127E+06
 0.87549995E+02 -0.32685E+06
 0.87599991E+02 -0.33439E+06
 0.87649994E+02 -0.34276E+06
 0.87699997E+02 -0.34971E+06
 0.87749992E+02 -0.35334E+06
 0.87799995E+02 -0.34872E+06
 0.87849991E+02 -0.33510E+06
 0.87899994E+02 -0.31351E+06
 0.87949997E+02 -0.28096E+06
 0.87999992E+02 -0.23844E+06
 0.88049995E+02 -0.19482E+06
 0.88099991E+02 -0.15262E+06
 0.88149994E+02 -0.10623E+06
 0.88199997E+02 -0.52814E+05
 0.88249992E+02  0.45663E+04
 0.88299995E+02  0.60825E+05
 0.88349991E+02  0.11363E+06
 0.88399994E+02  0.15891E+06
 0.88449997E+02  0.19279E+06
 0.88499992E+02  0.21553E+06
 0.88549995E+02  0.22786E+06
 0.88599991E+02  0.23332E+06
 0.88649994E+02  0.23795E+06
 0.88699997E+02  0.24557E+06
 0.88749992E+02  0.25420E+06
 0.88799995E+02  0.25745E+06
 0.88849991E+02  0.24939E+06
 0.88899994E+02  0.22893E+06
 0.88949997E+02  0.20345E+06
 0.88999992E+02  0.17705E+06
 0.89049995E+02  0.14688E+06
 0.89099991E+02  0.11696E+06
 0.89149994E+02  0.96363E+05
 0.89199997E+02  0.85388E+05
 0.89249992E+02  0.78421E+05
 0.89299995E+02  0.71112E+05
 0.89349991E+02  0.62557E+05
 0.89399994E+02  0.56208E+05
 0.89449997E+02  0.52366E+05
 0.89499992E+02  0.50165E+05
 0.89549995E+02  0.50944E+05
 0.89599991E+02  0.55727E+05
 0.89649994E+02  0.62029E+05
 0.89699997E+02  0.67382E+05
 0.89749992E+02  0.71070E+05
 0.89799995E+02  0.73928E+05
 0.89849991E+02  0.77440E+05
 0.89899994E+02  0.81382E+05
 0.89949997E+02  0.83166E+05
 0.89999992E+02  0.82509E+05
 0.90049995E+02  0.82587E+05
 0.90099991E+02  0.84950E+05
 0.90149994E+02  0.87397E+05
 0.90199997E+02  0.86352E+05
 0.90249992E+02  0.82965E+05
 0.90299995E+02  0.79964E+05
 0.90349991E+02  0.80083E+05
 0.90399994E+02  0.85578E+05
 0.90449997E+02  0.96254E+05
 0.90499992E+02  0.10756E+06
 0.90549995E+02  0.11255E+06
 0.90599991E+02  0.10609E+06
 0.90649994E+02  0.87009E+05
 0.90699997E+02  0.60434E+05
 0.90749992E+02  0.37029E+05
 0.90799995E+02  0.21639E+05
 0.90849991E+02  0.11545E+05
 0.90899994E+02  0.24868E+04
 0.90949997E+02 -0.73523E+04
 0.90999992E+02 -0.16885E+05
 0.91049995E+02 -0.25686E+05
 0.91099991E+02 -0.35560E+05
 0.91149994E+02 -0.48282E+05
 0.91199997E+02 -0.60749E+05
 0.91249992E+02 -0.70820E+05
 0.91299995E+02 -0.78337E+05
 0.91349991E+02 -0.83594E+05
 0.91399994E+02 -0.87629E+05
 0.91449997E+02 -0.90069E+05
 0.91499992E+02 -0.90249E+05
 0.91549995E+02 -0.86676E+05
 0.91599991E+02 -0.77661E+05
 0.91649994E+02 -0.65098E+05
 0.91699997E+02 -0.51024E+05
 0.91749992E+02 -0.37458E+05
 0.91799995E+02 -0.27006E+05
 0.91849991E+02 -0.16645E+05
 0.91899994E+02 -0.10590E+04
 0.91949997E+02  0.17899E+05
 0.91999992E+02  0.34669E+05
 0.92049995E+02  0.45417E+05
 0.92099991E+02  0.48115E+05
 0.92149994E+02  0.44263E+05
 0.92199997E+02  0.33945E+05
 0.92249992E+02  0.17480E+05
 0.92299995E+02  0.10875E+04
 0.92349991E+02 -0.82240E+04
 0.92399994E+02 -0.85875E+04
 0.92449997E+02 -0.28342E+04
 0.92499992E+02  0.72959E+04
 0.92549995E+02  0.19032E+05
 0.92599991E+02  0.26740E+05
 0.92649994E+02  0.26106E+05
 0.92699997E+02  0.19619E+05
 0.92749992E+02  0.12481E+05
 0.92799995E+02  0.76327E+04
 0.92849991E+02  0.70011E+04
 0.92899994E+02  0.11558E+05
 0.92949997E+02  0.22015E+05
 0.92999992E+02  0.32475E+05
 0.93049995E+02  0.37161E+05
 0.93099991E+02  0.31940E+05
 0.93149994E+02  0.15101E+05
 0.93199997E+02 -0.11745E+05
 0.93249992E+02 -0.45885E+05
 0.93299995E+02 -0.77241E+05
 0.93349991E+02 -0.99185E+05
 0.93399994E+02 -0.11007E+06
 0.93449997E+02 -0.11096E+06
 0.93499992E+02 -0.10784E+06
 0.93549995E+02 -0.10562E+06
 0.93599991E+02 -0.10557E+06
 0.93649994E+02 -0.10773E+06
 0.93699997E+02 -0.11362E+06
 0.93749992E+02 -0.11912E+06
 0.93799995E+02 -0.12067E+06
 0.93849991E+02 -0.12133E+06
 0.93899994E+02 -0.12118E+06
 0.93949997E+02 -0.11744E+06
 0.93999992E+02 -0.10988E+06
 0.94049995E+02 -0.99551E+05
 0.94099991E+02 -0.86112E+05
 0.94149994E+02 -0.69268E+05
 0.94199997E+02 -0.50029E+05
 0.94249992E+02 -0.27958E+05
 0.94299995E+02 -0.48895E+04
 0.94349991E+02  0.15385E+05
 0.94399994E+02  0.34803E+05
 0.94449997E+02  0.55035E+05
 0.94499992E+02  0.74696E+05
 0.94549995E+02  0.93416E+05
 0.94599991E+02  0.10774E+06
 0.94649994E+02  0.11261E+06
 0.94699997E+02  0.10740E+06
 0.94749992E+02  0.93602E+05
 0.94799995E+02  0.72449E+05
 0.94849991E+02  0.46426E+05
 0.94899994E+02  0.20262E+05
 0.94949997E+02  0.18392E+03
 0.94999992E+02 -0.10454E+05
 0.95049995E+02 -0.13485E+05
 0.95099991E+02 -0.12817E+05
 0.95149994E+02 -0.10793E+05
 0.95199997E+02 -0.68308E+04
 0.95249992E+02 -0.30867E+04
 0.95299995E+02 -0.39220E+04
 0.95349991E+02 -0.90932E+04
 0.95399994E+02 -0.15592E+05
 0.95449997E+02 -0.20171E+05
 0.95499992E+02 -0.21591E+05
 0.95549995E+02 -0.22919E+05
 0.95599991E+02 -0.24430E+05
 0.95649994E+02 -0.22334E+05
 0.95699997E+02 -0.14350E+05
 0.95749992E+02 -0.29742E+04
 0.95799995E+02  0.90949E+04
 0.95849991E+02  0.20044E+05
 0.95899994E+02  0.28773E+05
 0.95949997E+02  0.35269E+05
 0.95999992E+02  0.38133E+05
 0.96049995E+02  0.37757E+05
 0.96099991E+02  0.33541E+05
 0.96149994E+02  0.24802E+05
 0.96199997E+02  0.10634E+05
 0.96249992E+02 -0.97335E+04
 0.96299995E+02 -0.34207E+05
 0.96349991E+02 -0.58550E+05
 0.96399994E+02 -0.77521E+05
 0.96449997E+02 -0.86433E+05
 0.96499992E+02 -0.83210E+05
 0.96549995E+02 -0.68490E+05
 0.96599991E+02 -0.45550E+05
 0.96649994E+02 -0.19226E+05
 0.96699997E+02  0.57854E+04
 0.96749992E+02  0.26418E+05
 0.96799995E+02  0.45037E+05
 0.96849991E+02  0.64872E+05
 0.96899994E+02  0.85652E+05
 0.96949997E+02  0.10453E+06
 0.96999992E+02  0.11704E+06
 0.97049995E+02  0.12098E+06
 0.97099991E+02  0.11528E+06
 0.97149994E+02  0.99525E+05
 0.97199997E+02  0.76241E+05
 0.97249992E+02  0.48991E+05
 0.97299995E+02  0.19882E+05
 0.97349991E+02 -0.88825E+04
 0.97399994E+02 -0.34237E+05
 0.97449997E+02 -0.52993E+05
 0.97499992E+02 -0.63356E+05
 0.97549995E+02 -0.67653E+05
 0.97599991E+02 -0.67820E+05
 0.97649994E+02 -0.62956E+05
 0.97699997E+02 -0.51702E+05
 0.97749992E+02 -0.35835E+05
 0.97799995E+02 -0.17343E+05
 0.97849991E+02  0.48681E+04
 0.97899994E+02  0.30806E+05
 0.97949997E+02  0.59948E+05
 0.97999992E+02  0.91241E+05
