-0.20000000E+01 -0.77147E+03
-0.19500000E+01 -0.11985E+04
-0.19000000E+01 -0.14133E+04
-0.18500000E+01 -0.15804E+04
-0.18000000E+01 -0.16603E+04
-0.17500000E+01 -0.17157E+04
-0.17000000E+01 -0.18515E+04
-0.16500001E+01 -0.21569E+04
-0.16000000E+01 -0.26053E+04
-0.15500000E+01 -0.31332E+04
-0.15000000E+01 -0.37343E+04
-0.14500000E+01 -0.44162E+04
-0.14000001E+01 -0.51281E+04
-0.13500000E+01 -0.57937E+04
-0.13000001E+01 -0.63876E+04
-0.12500000E+01 -0.69020E+04
-0.12000000E+01 -0.73039E+04
-0.11500001E+01 -0.76230E+04
-0.11000000E+01 -0.78622E+04
-0.10500001E+01 -0.79921E+04
-0.10000000E+01 -0.80595E+04
-0.95000005E+00 -0.81012E+04
-0.90000010E+00 -0.81500E+04
-0.85000002E+00 -0.82249E+04
-0.80000007E+00 -0.83759E+04
-0.75000012E+00 -0.86827E+04
-0.70000005E+00 -0.91446E+04
-0.65000010E+00 -0.97256E+04
-0.60000014E+00 -0.10406E+05
-0.55000007E+00 -0.11173E+05
-0.50000012E+00 -0.11997E+05
-0.45000005E+00 -0.12812E+05
-0.40000010E+00 -0.13612E+05
-0.35000014E+00 -0.14380E+05
-0.30000007E+00 -0.15019E+05
-0.25000012E+00 -0.15465E+05
-0.20000005E+00 -0.15699E+05
-0.15000010E+00 -0.15705E+05
-0.10000014E+00 -0.15447E+05
-0.50000072E-01 -0.14890E+05
-0.11920929E-06 -0.14029E+05
 0.49999952E-01 -0.12882E+05
 0.99999905E-01 -0.11441E+05
 0.14999986E+00 -0.97725E+04
 0.19999981E+00 -0.79507E+04
 0.24999976E+00 -0.60133E+04
 0.29999995E+00 -0.40801E+04
 0.34999990E+00 -0.22115E+04
 0.39999986E+00 -0.50147E+03
 0.44999981E+00  0.91436E+03
 0.49999976E+00  0.19993E+04
 0.54999995E+00  0.28021E+04
 0.59999990E+00  0.33867E+04
 0.64999986E+00  0.37464E+04
 0.69999981E+00  0.38315E+04
 0.74999976E+00  0.36188E+04
 0.79999971E+00  0.31106E+04
 0.84999990E+00  0.23144E+04
 0.89999986E+00  0.13239E+04
 0.94999981E+00  0.27420E+03
 0.99999976E+00 -0.75081E+03
 0.10499997E+01 -0.16623E+04
 0.10999999E+01 -0.24018E+04
 0.11499999E+01 -0.29512E+04
 0.11999998E+01 -0.32556E+04
 0.12499998E+01 -0.32975E+04
 0.12999997E+01 -0.30675E+04
 0.13499999E+01 -0.25628E+04
 0.13999999E+01 -0.18321E+04
 0.14499998E+01 -0.89012E+03
 0.14999998E+01  0.23643E+03
 0.15499997E+01  0.14358E+04
 0.15999999E+01  0.25803E+04
 0.16499999E+01  0.36084E+04
 0.16999998E+01  0.44847E+04
 0.17499998E+01  0.51803E+04
 0.17999997E+01  0.56862E+04
 0.18499997E+01  0.59820E+04
 0.18999999E+01  0.60748E+04
 0.19499998E+01  0.59765E+04
 0.19999998E+01  0.57137E+04
 0.20499997E+01  0.53630E+04
 0.20999999E+01  0.49726E+04
 0.21499996E+01  0.45679E+04
 0.21999998E+01  0.41475E+04
 0.22499995E+01  0.37536E+04
 0.22999997E+01  0.34631E+04
 0.23499999E+01  0.32616E+04
 0.23999996E+01  0.30924E+04
 0.24499998E+01  0.29373E+04
 0.24999995E+01  0.28200E+04
 0.25499997E+01  0.27347E+04
 0.25999999E+01  0.25973E+04
 0.26499996E+01  0.23909E+04
 0.26999998E+01  0.21834E+04
 0.27499995E+01  0.19944E+04
 0.27999997E+01  0.18008E+04
 0.28499999E+01  0.15657E+04
 0.28999996E+01  0.13319E+04
 0.29499998E+01  0.11230E+04
 0.29999995E+01  0.91602E+03
 0.30499997E+01  0.68954E+03
 0.30999999E+01  0.42635E+03
 0.31499996E+01  0.16702E+03
 0.31999998E+01 -0.37624E+02
 0.32499995E+01 -0.18644E+03
 0.32999997E+01 -0.28013E+03
 0.33499999E+01 -0.29980E+03
 0.33999996E+01 -0.25738E+03
 0.34499998E+01 -0.15353E+03
 0.34999995E+01  0.14256E+02
 0.35499997E+01  0.22556E+03
 0.35999994E+01  0.50204E+03
 0.36499996E+01  0.85122E+03
 0.36999998E+01  0.12199E+04
 0.37499995E+01  0.15780E+04
 0.37999997E+01  0.18616E+04
 0.38499994E+01  0.19729E+04
 0.38999996E+01  0.19189E+04
 0.39499998E+01  0.17611E+04
 0.39999995E+01  0.14916E+04
 0.40499997E+01  0.10971E+04
 0.40999994E+01  0.58685E+03
 0.41499996E+01 -0.78394E+01
 0.41999998E+01 -0.67740E+03
 0.42499995E+01 -0.13767E+04
 0.42999997E+01 -0.20116E+04
 0.43499994E+01 -0.25450E+04
 0.43999996E+01 -0.29685E+04
 0.44499998E+01 -0.32482E+04
 0.44999995E+01 -0.33420E+04
 0.45499997E+01 -0.32656E+04
 0.45999994E+01 -0.30381E+04
 0.46499996E+01 -0.27123E+04
 0.46999998E+01 -0.22994E+04
 0.47499995E+01 -0.17362E+04
 0.47999997E+01 -0.10073E+04
 0.48499994E+01 -0.10991E+03
 0.48999996E+01  0.93813E+03
 0.49499998E+01  0.20587E+04
 0.49999995E+01  0.31633E+04
 0.50499997E+01  0.41960E+04
 0.50999994E+01  0.51248E+04
 0.51499996E+01  0.59283E+04
 0.51999998E+01  0.65479E+04
 0.52499995E+01  0.69946E+04
 0.52999997E+01  0.73251E+04
 0.53499994E+01  0.75040E+04
 0.53999996E+01  0.75258E+04
 0.54499993E+01  0.73761E+04
 0.54999995E+01  0.70361E+04
 0.55499997E+01  0.64808E+04
 0.55999994E+01  0.57031E+04
 0.56499996E+01  0.47559E+04
 0.56999993E+01  0.37063E+04
 0.57499995E+01  0.26141E+04
 0.57999997E+01  0.15264E+04
 0.58499994E+01  0.51023E+03
 0.58999996E+01 -0.40625E+03
 0.59499993E+01 -0.12033E+04
 0.59999995E+01 -0.18863E+04
 0.60499992E+01 -0.24043E+04
 0.60999994E+01 -0.27345E+04
 0.61499996E+01 -0.29079E+04
 0.61999998E+01 -0.29264E+04
 0.62499990E+01 -0.28386E+04
 0.62999992E+01 -0.27104E+04
 0.63499994E+01 -0.25763E+04
 0.63999996E+01 -0.24361E+04
 0.64499998E+01 -0.23125E+04
 0.64999990E+01 -0.22008E+04
 0.65499992E+01 -0.21032E+04
 0.65999994E+01 -0.20570E+04
 0.66499996E+01 -0.20916E+04
 0.66999998E+01 -0.21819E+04
 0.67499990E+01 -0.22663E+04
 0.67999992E+01 -0.23126E+04
 0.68499994E+01 -0.22988E+04
 0.68999996E+01 -0.22479E+04
 0.69499998E+01 -0.21490E+04
 0.69999990E+01 -0.19666E+04
 0.70499992E+01 -0.16779E+04
 0.70999994E+01 -0.12738E+04
 0.71499996E+01 -0.78433E+03
 0.71999998E+01 -0.20765E+03
 0.72499990E+01  0.48566E+03
 0.72999992E+01  0.13240E+04
 0.73499994E+01  0.22920E+04
 0.73999996E+01  0.33375E+04
 0.74499998E+01  0.44342E+04
 0.74999990E+01  0.55726E+04
 0.75499992E+01  0.67275E+04
 0.75999994E+01  0.78112E+04
 0.76499996E+01  0.87214E+04
 0.76999998E+01  0.94099E+04
 0.77499990E+01  0.98693E+04
 0.77999992E+01  0.10083E+05
 0.78499994E+01  0.10058E+05
 0.78999996E+01  0.98124E+04
 0.79499998E+01  0.93927E+04
 0.79999990E+01  0.88293E+04
 0.80499992E+01  0.81386E+04
 0.80999994E+01  0.73823E+04
 0.81499996E+01  0.65564E+04
 0.81999998E+01  0.56532E+04
 0.82499990E+01  0.46892E+04
 0.82999992E+01  0.37478E+04
 0.83499994E+01  0.28370E+04
 0.83999996E+01  0.19353E+04
 0.84499998E+01  0.11087E+04
 0.84999990E+01  0.39844E+03
 0.85499992E+01 -0.25434E+03
 0.85999994E+01 -0.91511E+03
 0.86499996E+01 -0.16160E+04
 0.86999998E+01 -0.23767E+04
 0.87499990E+01 -0.31707E+04
 0.87999992E+01 -0.39916E+04
 0.88499994E+01 -0.47932E+04
 0.88999996E+01 -0.55359E+04
 0.89499998E+01 -0.61906E+04
 0.89999990E+01 -0.66357E+04
 0.90499992E+01 -0.67551E+04
 0.90999994E+01 -0.65140E+04
 0.91499996E+01 -0.60132E+04
 0.91999989E+01 -0.53540E+04
 0.92499990E+01 -0.45733E+04
 0.92999992E+01 -0.37051E+04
 0.93499994E+01 -0.27627E+04
 0.93999996E+01 -0.17608E+04
 0.94499989E+01 -0.64055E+03
 0.94999990E+01  0.55889E+03
 0.95499992E+01  0.17655E+04
 0.95999994E+01  0.29124E+04
 0.96499996E+01  0.39169E+04
 0.96999989E+01  0.47669E+04
 0.97499990E+01  0.54969E+04
 0.97999992E+01  0.61275E+04
 0.98499994E+01  0.66271E+04
 0.98999996E+01  0.69347E+04
 0.99499989E+01  0.70085E+04
 0.99999990E+01  0.68541E+04
 0.10049999E+02  0.64673E+04
 0.10099999E+02  0.58718E+04
 0.10150000E+02  0.51189E+04
 0.10199999E+02  0.42308E+04
 0.10249999E+02  0.32066E+04
 0.10299999E+02  0.20772E+04
 0.10349999E+02  0.86820E+03
 0.10400000E+02 -0.40584E+03
 0.10449999E+02 -0.16801E+04
 0.10499999E+02 -0.28769E+04
 0.10549999E+02 -0.39481E+04
 0.10599999E+02 -0.48534E+04
 0.10650000E+02 -0.55991E+04
 0.10699999E+02 -0.62096E+04
 0.10749999E+02 -0.67093E+04
 0.10799999E+02 -0.71350E+04
 0.10849999E+02 -0.74339E+04
 0.10900000E+02 -0.75462E+04
 0.10949999E+02 -0.74940E+04
 0.10999999E+02 -0.72834E+04
 0.11049999E+02 -0.69289E+04
 0.11099999E+02 -0.64825E+04
 0.11150000E+02 -0.60111E+04
 0.11199999E+02 -0.55186E+04
 0.11249999E+02 -0.49055E+04
 0.11299999E+02 -0.40957E+04
 0.11349999E+02 -0.31099E+04
 0.11400000E+02 -0.20427E+04
 0.11449999E+02 -0.97765E+03
 0.11499999E+02  0.48991E+01
 0.11549999E+02  0.81021E+03
 0.11599999E+02  0.13917E+04
 0.11650000E+02  0.17250E+04
 0.11699999E+02  0.17882E+04
 0.11749999E+02  0.15510E+04
 0.11799999E+02  0.95614E+03
 0.11849999E+02 -0.95304E+01
 0.11900000E+02 -0.12888E+04
 0.11949999E+02 -0.28186E+04
 0.11999999E+02 -0.45397E+04
 0.12049999E+02 -0.63747E+04
 0.12099999E+02 -0.82225E+04
 0.12150000E+02 -0.10009E+05
 0.12199999E+02 -0.11663E+05
 0.12249999E+02 -0.13102E+05
 0.12299999E+02 -0.14336E+05
 0.12349999E+02 -0.15343E+05
 0.12400000E+02 -0.16080E+05
 0.12449999E+02 -0.16617E+05
 0.12499999E+02 -0.17025E+05
 0.12549999E+02 -0.17343E+05
 0.12599999E+02 -0.17596E+05
 0.12649999E+02 -0.17788E+05
 0.12699999E+02 -0.17975E+05
 0.12749999E+02 -0.18192E+05
 0.12799999E+02 -0.18433E+05
 0.12849999E+02 -0.18687E+05
 0.12899999E+02 -0.18935E+05
 0.12949999E+02 -0.19131E+05
 0.12999999E+02 -0.19245E+05
 0.13049999E+02 -0.19273E+05
 0.13099999E+02 -0.19215E+05
 0.13149999E+02 -0.19071E+05
 0.13199999E+02 -0.18816E+05
 0.13249999E+02 -0.18418E+05
 0.13299999E+02 -0.17855E+05
 0.13349999E+02 -0.17104E+05
 0.13399999E+02 -0.16127E+05
 0.13449999E+02 -0.14940E+05
 0.13499999E+02 -0.13584E+05
 0.13549999E+02 -0.12090E+05
 0.13599999E+02 -0.10476E+05
 0.13649999E+02 -0.87471E+04
 0.13699999E+02 -0.69125E+04
 0.13749999E+02 -0.50518E+04
 0.13799999E+02 -0.32565E+04
 0.13849999E+02 -0.14739E+04
 0.13899999E+02  0.33791E+03
 0.13949999E+02  0.21248E+04
 0.13999999E+02  0.38849E+04
 0.14049999E+02  0.55860E+04
 0.14099998E+02  0.71766E+04
 0.14150000E+02  0.86085E+04
 0.14199999E+02  0.97912E+04
 0.14249998E+02  0.10732E+05
 0.14299999E+02  0.11501E+05
 0.14349998E+02  0.12077E+05
 0.14400000E+02  0.12458E+05
 0.14449999E+02  0.12677E+05
 0.14499998E+02  0.12775E+05
 0.14549999E+02  0.12807E+05
 0.14599998E+02  0.12797E+05
 0.14650000E+02  0.12763E+05
 0.14699999E+02  0.12702E+05
 0.14749998E+02  0.12610E+05
 0.14799999E+02  0.12451E+05
 0.14849998E+02  0.12205E+05
 0.14900000E+02  0.11871E+05
 0.14949999E+02  0.11474E+05
 0.14999998E+02  0.11076E+05
 0.15049999E+02  0.10690E+05
 0.15099998E+02  0.10325E+05
 0.15150000E+02  0.99331E+04
 0.15199999E+02  0.95089E+04
 0.15249998E+02  0.90625E+04
 0.15299999E+02  0.85719E+04
 0.15349998E+02  0.80390E+04
 0.15400000E+02  0.74474E+04
 0.15449999E+02  0.68057E+04
 0.15499998E+02  0.61473E+04
 0.15549999E+02  0.54705E+04
 0.15599998E+02  0.47278E+04
 0.15650000E+02  0.38934E+04
 0.15699999E+02  0.29581E+04
 0.15749998E+02  0.19272E+04
 0.15799999E+02  0.83045E+03
 0.15849998E+02 -0.32340E+03
 0.15900000E+02 -0.15213E+04
 0.15949999E+02 -0.27137E+04
 0.15999998E+02 -0.38245E+04
 0.16049999E+02 -0.48045E+04
 0.16099998E+02 -0.56357E+04
 0.16150000E+02 -0.63379E+04
 0.16199999E+02 -0.69460E+04
 0.16249998E+02 -0.74672E+04
 0.16299999E+02 -0.78951E+04
 0.16349998E+02 -0.82016E+04
 0.16400000E+02 -0.83847E+04
 0.16449999E+02 -0.84537E+04
 0.16499998E+02 -0.84138E+04
 0.16549999E+02 -0.82715E+04
 0.16599998E+02 -0.80268E+04
 0.16650000E+02 -0.77163E+04
 0.16699999E+02 -0.73592E+04
 0.16749998E+02 -0.69237E+04
 0.16799999E+02 -0.63894E+04
 0.16849998E+02 -0.57993E+04
 0.16900000E+02 -0.52104E+04
 0.16949999E+02 -0.46162E+04
 0.16999998E+02 -0.39569E+04
 0.17049999E+02 -0.31955E+04
 0.17099998E+02 -0.23074E+04
 0.17150000E+02 -0.13034E+04
 0.17199999E+02 -0.23967E+03
 0.17249998E+02  0.87091E+03
 0.17299999E+02  0.19834E+04
 0.17349998E+02  0.30678E+04
 0.17400000E+02  0.41478E+04
 0.17449999E+02  0.51840E+04
 0.17499998E+02  0.60946E+04
 0.17549999E+02  0.68165E+04
 0.17599998E+02  0.73443E+04
 0.17650000E+02  0.77090E+04
 0.17699999E+02  0.78954E+04
 0.17749998E+02  0.78875E+04
 0.17799999E+02  0.76776E+04
 0.17849998E+02  0.72335E+04
 0.17900000E+02  0.65707E+04
 0.17949999E+02  0.57396E+04
 0.17999998E+02  0.48065E+04
 0.18049999E+02  0.37840E+04
 0.18099998E+02  0.26445E+04
 0.18150000E+02  0.13855E+04
 0.18199999E+02  0.80694E+02
 0.18249998E+02 -0.11593E+04
 0.18299999E+02 -0.22646E+04
 0.18349998E+02 -0.32005E+04
 0.18400000E+02 -0.40087E+04
 0.18449999E+02 -0.46869E+04
 0.18499998E+02 -0.51871E+04
 0.18549999E+02 -0.54953E+04
 0.18599998E+02 -0.56005E+04
 0.18650000E+02 -0.54865E+04
 0.18699999E+02 -0.51870E+04
 0.18749998E+02 -0.47626E+04
 0.18799999E+02 -0.42711E+04
 0.18849998E+02 -0.37584E+04
 0.18900000E+02 -0.32148E+04
 0.18949999E+02 -0.26744E+04
 0.18999998E+02 -0.21900E+04
 0.19049999E+02 -0.17878E+04
 0.19099998E+02 -0.14914E+04
 0.19150000E+02 -0.13170E+04
 0.19199999E+02 -0.12544E+04
 0.19249998E+02 -0.13114E+04
 0.19299999E+02 -0.15511E+04
 0.19349998E+02 -0.19524E+04
 0.19400000E+02 -0.24479E+04
 0.19449999E+02 -0.30435E+04
 0.19499998E+02 -0.37333E+04
 0.19549999E+02 -0.44706E+04
 0.19599998E+02 -0.52023E+04
 0.19650000E+02 -0.59266E+04
 0.19699999E+02 -0.66056E+04
 0.19749998E+02 -0.71740E+04
 0.19799999E+02 -0.76101E+04
 0.19849998E+02 -0.78758E+04
 0.19900000E+02 -0.79709E+04
 0.19949999E+02 -0.79096E+04
 0.19999998E+02 -0.77094E+04
 0.20049999E+02 -0.74036E+04
 0.20099998E+02 -0.69756E+04
 0.20150000E+02 -0.64171E+04
 0.20199999E+02 -0.57381E+04
 0.20249998E+02 -0.49050E+04
 0.20299999E+02 -0.38972E+04
 0.20349998E+02 -0.27334E+04
 0.20399998E+02 -0.14758E+04
 0.20449999E+02 -0.18536E+03
 0.20499998E+02  0.10757E+04
 0.20549999E+02  0.22713E+04
 0.20599998E+02  0.33842E+04
 0.20649998E+02  0.44017E+04
 0.20699999E+02  0.52913E+04
 0.20749998E+02  0.59794E+04
 0.20799999E+02  0.64868E+04
 0.20849998E+02  0.68604E+04
 0.20899998E+02  0.71547E+04
 0.20949999E+02  0.73955E+04
 0.20999998E+02  0.75606E+04
 0.21049999E+02  0.77022E+04
 0.21099998E+02  0.78392E+04
 0.21149998E+02  0.79439E+04
 0.21199999E+02  0.79865E+04
 0.21249998E+02  0.78926E+04
 0.21299999E+02  0.76073E+04
 0.21349998E+02  0.71510E+04
 0.21399998E+02  0.65601E+04
 0.21449999E+02  0.58303E+04
 0.21499998E+02  0.49866E+04
 0.21549999E+02  0.40560E+04
 0.21599998E+02  0.30526E+04
 0.21649998E+02  0.19918E+04
 0.21699999E+02  0.85903E+03
 0.21749998E+02 -0.33608E+03
 0.21799999E+02 -0.15068E+04
 0.21849998E+02 -0.25861E+04
 0.21899998E+02 -0.35251E+04
 0.21949999E+02 -0.42593E+04
 0.21999998E+02 -0.48048E+04
 0.22049999E+02 -0.51461E+04
 0.22099998E+02 -0.52520E+04
 0.22149998E+02 -0.51393E+04
 0.22199999E+02 -0.48376E+04
 0.22249998E+02 -0.43711E+04
 0.22299999E+02 -0.37846E+04
 0.22349998E+02 -0.31537E+04
 0.22399998E+02 -0.25129E+04
 0.22449999E+02 -0.19059E+04
 0.22499998E+02 -0.13301E+04
 0.22549999E+02 -0.80033E+03
 0.22599998E+02 -0.30851E+03
 0.22649998E+02  0.15764E+03
 0.22699999E+02  0.55520E+03
 0.22749998E+02  0.86503E+03
 0.22799999E+02  0.11031E+04
 0.22849998E+02  0.12927E+04
 0.22899998E+02  0.14420E+04
 0.22949999E+02  0.15719E+04
 0.22999998E+02  0.16409E+04
 0.23049999E+02  0.15931E+04
 0.23099998E+02  0.13931E+04
 0.23149998E+02  0.10885E+04
 0.23199999E+02  0.66342E+03
 0.23249998E+02  0.10070E+03
 0.23299999E+02 -0.53975E+03
 0.23349998E+02 -0.12247E+04
 0.23399998E+02 -0.19279E+04
 0.23449999E+02 -0.26256E+04
 0.23499998E+02 -0.33075E+04
 0.23549999E+02 -0.40050E+04
 0.23599998E+02 -0.47017E+04
 0.23649998E+02 -0.53129E+04
 0.23699999E+02 -0.58119E+04
 0.23749998E+02 -0.62066E+04
 0.23799999E+02 -0.64843E+04
 0.23849998E+02 -0.66954E+04
 0.23899998E+02 -0.68860E+04
 0.23949999E+02 -0.70696E+04
 0.23999998E+02 -0.72616E+04
 0.24049999E+02 -0.75112E+04
 0.24099998E+02 -0.78408E+04
 0.24149998E+02 -0.82527E+04
 0.24199999E+02 -0.87183E+04
 0.24249998E+02 -0.91826E+04
 0.24299999E+02 -0.95961E+04
 0.24349998E+02 -0.99323E+04
 0.24399998E+02 -0.10175E+05
 0.24449999E+02 -0.10313E+05
 0.24499998E+02 -0.10354E+05
 0.24549999E+02 -0.10286E+05
 0.24599998E+02 -0.10147E+05
 0.24649998E+02 -0.99425E+04
 0.24699999E+02 -0.96945E+04
 0.24749998E+02 -0.94429E+04
 0.24799999E+02 -0.91583E+04
 0.24849998E+02 -0.88098E+04
 0.24899998E+02 -0.83956E+04
 0.24949999E+02 -0.79441E+04
 0.24999998E+02 -0.74750E+04
 0.25049999E+02 -0.69906E+04
 0.25099998E+02 -0.64966E+04
 0.25149998E+02 -0.60159E+04
 0.25199999E+02 -0.55128E+04
 0.25249998E+02 -0.49840E+04
 0.25299999E+02 -0.45033E+04
 0.25349998E+02 -0.40505E+04
 0.25399998E+02 -0.36058E+04
 0.25449999E+02 -0.31410E+04
 0.25499998E+02 -0.26261E+04
 0.25549999E+02 -0.21047E+04
 0.25599998E+02 -0.15945E+04
 0.25649998E+02 -0.10994E+04
 0.25699999E+02 -0.60164E+03
 0.25749998E+02 -0.11710E+03
 0.25799999E+02  0.36680E+03
 0.25849998E+02  0.88162E+03
 0.25899998E+02  0.14116E+04
 0.25949999E+02  0.19730E+04
 0.25999998E+02  0.25562E+04
 0.26049999E+02  0.31221E+04
 0.26099998E+02  0.36419E+04
 0.26149998E+02  0.41059E+04
 0.26199999E+02  0.45407E+04
 0.26249998E+02  0.49605E+04
 0.26299999E+02  0.53255E+04
 0.26349998E+02  0.56083E+04
 0.26399998E+02  0.57928E+04
 0.26449999E+02  0.58420E+04
 0.26499998E+02  0.57301E+04
 0.26549999E+02  0.54547E+04
 0.26599998E+02  0.50464E+04
 0.26649998E+02  0.45317E+04
 0.26699999E+02  0.39215E+04
 0.26749998E+02  0.32508E+04
 0.26799999E+02  0.25389E+04
 0.26849998E+02  0.17782E+04
 0.26899998E+02  0.99807E+03
 0.26949999E+02  0.23383E+03
 0.26999998E+02 -0.48741E+03
 0.27049997E+02 -0.11419E+04
 0.27099998E+02 -0.16983E+04
 0.27149998E+02 -0.20722E+04
 0.27199999E+02 -0.22280E+04
 0.27249998E+02 -0.22290E+04
 0.27299997E+02 -0.21464E+04
 0.27349998E+02 -0.20337E+04
 0.27399998E+02 -0.19295E+04
 0.27449999E+02 -0.18321E+04
 0.27499998E+02 -0.17479E+04
 0.27549997E+02 -0.16480E+04
 0.27599998E+02 -0.15205E+04
 0.27649998E+02 -0.13936E+04
 0.27699999E+02 -0.12401E+04
 0.27749998E+02 -0.10594E+04
 0.27799997E+02 -0.87683E+03
 0.27849998E+02 -0.71821E+03
 0.27899998E+02 -0.58180E+03
 0.27949999E+02 -0.42536E+03
 0.27999998E+02 -0.21051E+03
 0.28049997E+02  0.80956E+02
 0.28099998E+02  0.47960E+03
 0.28149998E+02  0.99266E+03
 0.28199999E+02  0.15643E+04
 0.28249998E+02  0.21380E+04
 0.28299997E+02  0.27074E+04
 0.28349998E+02  0.33004E+04
 0.28399998E+02  0.38952E+04
 0.28449999E+02  0.44238E+04
 0.28499998E+02  0.49028E+04
 0.28549997E+02  0.53783E+04
 0.28599998E+02  0.58357E+04
 0.28649998E+02  0.62599E+04
 0.28699999E+02  0.65802E+04
 0.28749998E+02  0.67484E+04
 0.28799997E+02  0.68408E+04
 0.28849998E+02  0.69523E+04
 0.28899998E+02  0.70740E+04
 0.28949999E+02  0.71669E+04
 0.28999998E+02  0.72011E+04
 0.29049997E+02  0.71222E+04
 0.29099998E+02  0.69452E+04
 0.29149998E+02  0.66554E+04
 0.29199999E+02  0.62861E+04
 0.29249998E+02  0.59169E+04
 0.29299997E+02  0.54704E+04
 0.29349998E+02  0.49608E+04
 0.29399998E+02  0.44452E+04
 0.29449999E+02  0.38796E+04
 0.29499998E+02  0.33188E+04
 0.29549997E+02  0.27506E+04
 0.29599998E+02  0.21263E+04
 0.29649998E+02  0.14295E+04
 0.29699999E+02  0.57581E+03
 0.29749998E+02 -0.45947E+03
 0.29799997E+02 -0.15609E+04
 0.29849998E+02 -0.26355E+04
 0.29899998E+02 -0.36642E+04
 0.29949999E+02 -0.46898E+04
 0.29999998E+02 -0.57333E+04
 0.30049999E+02 -0.67089E+04
 0.30099998E+02 -0.75525E+04
 0.30149998E+02 -0.82307E+04
 0.30199997E+02 -0.87642E+04
 0.30249996E+02 -0.90481E+04
 0.30299999E+02 -0.90921E+04
 0.30349998E+02 -0.90243E+04
 0.30399998E+02 -0.88244E+04
 0.30449997E+02 -0.85341E+04
 0.30499996E+02 -0.81911E+04
 0.30549999E+02 -0.77205E+04
 0.30599998E+02 -0.73113E+04
 0.30649998E+02 -0.69978E+04
 0.30699997E+02 -0.67798E+04
 0.30749996E+02 -0.66296E+04
 0.30799999E+02 -0.63282E+04
 0.30849998E+02 -0.59899E+04
 0.30899998E+02 -0.57305E+04
 0.30949997E+02 -0.56030E+04
 0.30999996E+02 -0.54403E+04
 0.31049999E+02 -0.52144E+04
 0.31099998E+02 -0.48929E+04
 0.31149998E+02 -0.45224E+04
 0.31199997E+02 -0.41036E+04
 0.31249996E+02 -0.34904E+04
 0.31299999E+02 -0.29723E+04
 0.31349998E+02 -0.26636E+04
 0.31399998E+02 -0.24115E+04
 0.31449997E+02 -0.19902E+04
 0.31499996E+02 -0.13893E+04
 0.31549999E+02 -0.67824E+03
 0.31599998E+02  0.17671E+03
 0.31649998E+02  0.97636E+03
 0.31699997E+02  0.16919E+04
 0.31749996E+02  0.26353E+04
 0.31799999E+02  0.40804E+04
 0.31849998E+02  0.52605E+04
 0.31899998E+02  0.60469E+04
 0.31949997E+02  0.73891E+04
 0.31999996E+02  0.89476E+04
 0.32049999E+02  0.10251E+05
 0.32099998E+02  0.11238E+05
 0.32149998E+02  0.11818E+05
 0.32199997E+02  0.12411E+05
 0.32249996E+02  0.13291E+05
 0.32299999E+02  0.14136E+05
 0.32349998E+02  0.14933E+05
 0.32399998E+02  0.15615E+05
 0.32449997E+02  0.16268E+05
 0.32499996E+02  0.16703E+05
 0.32549999E+02  0.17092E+05
 0.32599998E+02  0.17461E+05
 0.32649998E+02  0.17711E+05
 0.32699997E+02  0.18477E+05
 0.32749996E+02  0.19422E+05
 0.32799999E+02  0.19969E+05
 0.32849998E+02  0.19920E+05
 0.32899998E+02  0.19781E+05
 0.32949997E+02  0.20200E+05
 0.32999996E+02  0.21484E+05
 0.33049999E+02  0.22619E+05
 0.33099998E+02  0.22534E+05
 0.33149998E+02  0.22226E+05
 0.33199997E+02  0.22414E+05
 0.33249996E+02  0.22327E+05
 0.33299999E+02  0.22255E+05
 0.33349998E+02  0.22212E+05
 0.33399998E+02  0.22274E+05
 0.33449997E+02  0.22348E+05
 0.33499996E+02  0.22366E+05
 0.33549999E+02  0.21192E+05
 0.33599998E+02  0.18859E+05
 0.33649998E+02  0.17610E+05
 0.33699997E+02  0.17672E+05
 0.33749996E+02  0.17170E+05
 0.33799999E+02  0.14847E+05
 0.33849998E+02  0.13364E+05
 0.33899998E+02  0.12585E+05
 0.33949997E+02  0.12548E+05
 0.33999996E+02  0.11987E+05
 0.34049999E+02  0.97200E+04
 0.34099998E+02  0.71997E+04
 0.34149998E+02  0.56678E+04
 0.34199997E+02  0.49976E+04
 0.34249996E+02  0.31350E+04
 0.34299999E+02  0.27765E+03
 0.34349998E+02 -0.13284E+04
 0.34399998E+02 -0.87308E+03
 0.34449997E+02 -0.17259E+04
 0.34499996E+02 -0.24963E+04
 0.34549999E+02 -0.17544E+04
 0.34599998E+02 -0.58807E+03
 0.34649998E+02 -0.12580E+04
 0.34699997E+02 -0.16599E+04
 0.34749996E+02  0.32875E+03
 0.34799999E+02 -0.21775E+04
 0.34849998E+02 -0.73279E+04
 0.34899998E+02 -0.12204E+05
 0.34949997E+02 -0.14320E+05
 0.34999996E+02 -0.13237E+05
 0.35049999E+02 -0.16683E+05
 0.35099998E+02 -0.22918E+05
 0.35149998E+02 -0.26409E+05
 0.35199997E+02 -0.26673E+05
 0.35249996E+02 -0.26156E+05
 0.35299999E+02 -0.23957E+05
 0.35349998E+02 -0.21650E+05
 0.35399998E+02 -0.23985E+05
 0.35449997E+02 -0.27518E+05
 0.35499996E+02 -0.31523E+05
 0.35549999E+02 -0.34269E+05
 0.35599998E+02 -0.35443E+05
 0.35649998E+02 -0.35957E+05
 0.35699997E+02 -0.30023E+05
 0.35749996E+02 -0.25505E+05
 0.35799999E+02 -0.23588E+05
 0.35849998E+02 -0.21587E+05
 0.35899998E+02 -0.21544E+05
 0.35949997E+02 -0.20632E+05
 0.35999996E+02 -0.19133E+05
 0.36049999E+02 -0.17443E+05
 0.36099998E+02 -0.18583E+05
 0.36149998E+02 -0.16912E+05
 0.36199997E+02 -0.21499E+05
 0.36249996E+02 -0.38997E+05
 0.36299999E+02 -0.50546E+05
 0.36349998E+02 -0.50303E+05
 0.36399998E+02 -0.41615E+05
 0.36449997E+02 -0.32352E+05
 0.36499996E+02 -0.32813E+05
 0.36549999E+02 -0.38190E+05
 0.36599998E+02 -0.36741E+05
 0.36649998E+02 -0.35716E+05
 0.36699997E+02 -0.35522E+05
 0.36749996E+02 -0.34744E+05
 0.36799999E+02 -0.38157E+05
 0.36849998E+02 -0.39541E+05
 0.36899998E+02 -0.37685E+05
 0.36949997E+02 -0.33486E+05
 0.36999996E+02 -0.30974E+05
 0.37049999E+02 -0.34024E+05
 0.37099998E+02 -0.40148E+05
 0.37149998E+02 -0.35919E+05
 0.37199997E+02 -0.24448E+05
 0.37249996E+02 -0.19104E+05
 0.37299999E+02 -0.26323E+05
 0.37349998E+02 -0.34835E+05
 0.37399998E+02 -0.35484E+05
 0.37449997E+02 -0.35392E+05
 0.37499996E+02 -0.34205E+05
 0.37549999E+02 -0.26073E+05
 0.37599998E+02 -0.22776E+05
 0.37649998E+02 -0.24769E+05
 0.37699997E+02 -0.22318E+05
 0.37749996E+02 -0.25045E+05
 0.37799999E+02 -0.32749E+05
 0.37849998E+02 -0.36330E+05
 0.37899998E+02 -0.18970E+05
 0.37949997E+02 -0.14114E+04
 0.37999996E+02  0.61570E+03
 0.38049999E+02 -0.10256E+05
 0.38099998E+02 -0.22822E+05
 0.38149998E+02 -0.21976E+05
 0.38199997E+02 -0.25094E+05
 0.38249996E+02 -0.38243E+05
 0.38299999E+02 -0.38014E+05
 0.38349998E+02 -0.14952E+05
 0.38399998E+02  0.10495E+05
 0.38449997E+02  0.17702E+05
 0.38499996E+02  0.64999E+04
 0.38549999E+02  0.35804E+04
 0.38599998E+02  0.12563E+05
 0.38649998E+02  0.19867E+05
 0.38699997E+02  0.31646E+05
 0.38749996E+02  0.41752E+05
 0.38799999E+02  0.34758E+05
 0.38849998E+02  0.12815E+05
 0.38899998E+02 -0.11041E+05
 0.38949997E+02 -0.20519E+05
 0.38999996E+02 -0.68372E+04
 0.39049999E+02  0.10967E+05
 0.39099998E+02  0.10117E+05
 0.39149998E+02 -0.90528E+04
 0.39199997E+02 -0.22430E+05
 0.39249996E+02 -0.11362E+05
 0.39299999E+02  0.75999E+04
 0.39349998E+02  0.31516E+05
 0.39399998E+02  0.49842E+05
 0.39449997E+02  0.56163E+05
 0.39499996E+02  0.51650E+05
 0.39549999E+02  0.41335E+05
 0.39599998E+02  0.38976E+05
 0.39649998E+02  0.33018E+05
 0.39699997E+02  0.25553E+05
 0.39749996E+02  0.21041E+05
 0.39799999E+02  0.24844E+05
 0.39849998E+02  0.37164E+05
 0.39899998E+02  0.37543E+05
 0.39949997E+02  0.21521E+05
 0.39999996E+02  0.19191E+05
 0.40049999E+02  0.42057E+05
 0.40099998E+02  0.64876E+05
 0.40149998E+02  0.79479E+05
 0.40199997E+02  0.82919E+05
 0.40249996E+02  0.75752E+05
 0.40299999E+02  0.65233E+05
 0.40349998E+02  0.60578E+05
 0.40399998E+02  0.67415E+05
 0.40449997E+02  0.78477E+05
 0.40499996E+02  0.77925E+05
 0.40549999E+02  0.60774E+05
 0.40599998E+02  0.42905E+05
 0.40649998E+02  0.25942E+05
 0.40699997E+02  0.11566E+05
 0.40749996E+02  0.64683E+04
 0.40799999E+02  0.95783E+03
 0.40849998E+02 -0.12661E+05
 0.40899998E+02 -0.18453E+05
 0.40949997E+02 -0.17634E+05
 0.40999996E+02 -0.24320E+05
 0.41049999E+02 -0.38297E+05
 0.41099998E+02 -0.44934E+05
 0.41149998E+02 -0.34748E+05
 0.41199997E+02 -0.17293E+05
 0.41249996E+02 -0.12705E+05
 0.41299999E+02 -0.28631E+05
 0.41349998E+02 -0.39363E+05
 0.41399998E+02 -0.41774E+05
 0.41449997E+02 -0.42603E+05
 0.41499996E+02 -0.40691E+05
 0.41549999E+02 -0.52637E+05
 0.41599998E+02 -0.72529E+05
 0.41649998E+02 -0.92283E+05
 0.41699997E+02 -0.11997E+06
 0.41749996E+02 -0.13398E+06
 0.41799999E+02 -0.11616E+06
 0.41849998E+02 -0.91137E+05
 0.41899998E+02 -0.74162E+05
 0.41949997E+02 -0.60279E+05
 0.41999996E+02 -0.47636E+05
 0.42049999E+02 -0.25818E+05
 0.42099998E+02  0.83815E+04
 0.42149998E+02  0.39549E+05
 0.42199997E+02  0.53620E+05
 0.42249996E+02  0.52175E+05
 0.42299999E+02  0.36728E+05
 0.42349998E+02  0.19325E+05
 0.42399998E+02  0.12078E+05
 0.42449997E+02  0.54216E+04
 0.42499996E+02  0.60433E+03
 0.42549999E+02  0.39583E+03
 0.42599998E+02 -0.69516E+04
 0.42649998E+02 -0.17694E+05
 0.42699997E+02 -0.22443E+05
 0.42749996E+02 -0.33828E+05
 0.42799995E+02 -0.56336E+05
 0.42849998E+02 -0.62780E+05
 0.42899998E+02 -0.45156E+05
 0.42949997E+02 -0.24328E+05
 0.42999996E+02 -0.90616E+04
 0.43049995E+02  0.57008E+03
 0.43099998E+02  0.85744E+04
 0.43149998E+02  0.76109E+04
 0.43199997E+02 -0.43812E+04
 0.43249996E+02 -0.10876E+05
 0.43299995E+02 -0.15861E+05
 0.43349998E+02 -0.30416E+05
 0.43399998E+02 -0.51625E+05
 0.43449997E+02 -0.73781E+05
 0.43499996E+02 -0.83606E+05
 0.43549995E+02 -0.82999E+05
 0.43599998E+02 -0.79149E+05
 0.43649998E+02 -0.68490E+05
 0.43699997E+02 -0.57256E+05
 0.43749996E+02 -0.44655E+05
 0.43799995E+02 -0.25100E+05
 0.43849998E+02 -0.10066E+05
 0.43899998E+02 -0.73778E+03
 0.43949997E+02  0.23831E+05
 0.43999996E+02  0.41495E+05
 0.44049995E+02  0.29662E+05
 0.44099998E+02  0.14158E+05
 0.44149998E+02  0.48793E+04
 0.44199997E+02 -0.77361E+04
 0.44249996E+02 -0.21870E+05
 0.44299995E+02 -0.31611E+05
 0.44349998E+02 -0.26866E+05
 0.44399998E+02 -0.20353E+05
 0.44449997E+02 -0.24638E+05
 0.44499996E+02 -0.31948E+05
 0.44549995E+02 -0.35344E+05
 0.44599998E+02 -0.30700E+05
 0.44649998E+02 -0.29658E+05
 0.44699997E+02 -0.36642E+05
 0.44749996E+02 -0.41634E+05
 0.44799995E+02 -0.48741E+05
 0.44849998E+02 -0.57982E+05
 0.44899998E+02 -0.51459E+05
 0.44949997E+02 -0.39188E+05
 0.44999996E+02 -0.35903E+05
 0.45049995E+02 -0.35825E+05
 0.45099998E+02 -0.34707E+05
 0.45149998E+02 -0.31529E+05
 0.45199997E+02 -0.29297E+05
 0.45249996E+02 -0.22310E+05
 0.45299995E+02 -0.60891E+04
 0.45349998E+02  0.16676E+05
 0.45399998E+02  0.44188E+05
 0.45449997E+02  0.67503E+05
 0.45499996E+02  0.75250E+05
 0.45549995E+02  0.73332E+05
 0.45599998E+02  0.81099E+05
 0.45649998E+02  0.94047E+05
 0.45699997E+02  0.99156E+05
 0.45749996E+02  0.88925E+05
 0.45799995E+02  0.65446E+05
 0.45849998E+02  0.39638E+05
 0.45899998E+02  0.16740E+05
 0.45949997E+02 -0.54926E+04
 0.45999996E+02 -0.25697E+05
 0.46049995E+02 -0.36888E+05
 0.46099998E+02 -0.37556E+05
 0.46149998E+02 -0.27089E+05
 0.46199997E+02 -0.13971E+05
 0.46249996E+02  0.34123E+03
 0.46299995E+02  0.15310E+05
 0.46349998E+02  0.21075E+05
 0.46399998E+02  0.24457E+05
 0.46449997E+02  0.29255E+05
 0.46499996E+02  0.14927E+05
 0.46549995E+02 -0.13287E+05
 0.46599998E+02 -0.31529E+05
 0.46649998E+02 -0.34648E+05
 0.46699997E+02 -0.27204E+05
 0.46749996E+02 -0.22271E+05
 0.46799995E+02 -0.21677E+05
 0.46849998E+02 -0.21202E+05
 0.46899998E+02 -0.16833E+05
 0.46949997E+02 -0.98367E+04
 0.46999996E+02 -0.94986E+04
 0.47049995E+02 -0.20527E+05
 0.47099998E+02 -0.34683E+05
 0.47149998E+02 -0.35518E+05
 0.47199997E+02 -0.31464E+05
 0.47249996E+02 -0.33325E+05
 0.47299995E+02 -0.28570E+05
 0.47349998E+02 -0.74304E+04
 0.47399998E+02  0.15245E+05
 0.47449997E+02  0.25787E+05
 0.47499996E+02  0.30851E+05
 0.47549995E+02  0.28322E+05
 0.47599998E+02  0.25499E+05
 0.47649998E+02  0.29014E+05
 0.47699997E+02  0.26441E+05
 0.47749996E+02  0.10031E+05
 0.47799995E+02 -0.14326E+05
 0.47849998E+02 -0.32843E+05
 0.47899998E+02 -0.35886E+05
 0.47949997E+02 -0.26608E+05
 0.47999996E+02 -0.18200E+05
 0.48049995E+02 -0.12887E+05
 0.48099998E+02 -0.45372E+04
 0.48149998E+02  0.13190E+05
 0.48199997E+02  0.34854E+05
 0.48249996E+02  0.47293E+05
 0.48299995E+02  0.46742E+05
 0.48349998E+02  0.39594E+05
 0.48399998E+02  0.30541E+05
 0.48449997E+02  0.22689E+05
 0.48499996E+02  0.18304E+05
 0.48549995E+02  0.10329E+05
 0.48599998E+02 -0.75318E+04
 0.48649998E+02 -0.25056E+05
 0.48699997E+02 -0.26753E+05
 0.48749996E+02 -0.19262E+05
 0.48799995E+02 -0.60832E+04
 0.48849998E+02  0.14535E+05
 0.48899998E+02  0.28657E+05
 0.48949997E+02  0.32779E+05
 0.48999996E+02  0.32404E+05
 0.49049995E+02  0.24122E+05
 0.49099998E+02  0.20114E+05
 0.49149998E+02  0.29198E+05
 0.49199997E+02  0.36002E+05
 0.49249996E+02  0.34161E+05
 0.49299995E+02  0.26121E+05
 0.49349998E+02  0.77063E+04
 0.49399998E+02 -0.14398E+05
 0.49449997E+02 -0.29766E+05
 0.49499996E+02 -0.40046E+05
 0.49549995E+02 -0.41428E+05
 0.49599998E+02 -0.34094E+05
 0.49649998E+02 -0.22400E+05
 0.49699997E+02 -0.12327E+05
 0.49749996E+02 -0.65704E+04
 0.49799995E+02 -0.33675E+04
 0.49849998E+02 -0.40109E+04
 0.49899998E+02 -0.44492E+04
 0.49949997E+02  0.32673E+04
 0.49999996E+02  0.12058E+05
 0.50049995E+02  0.14096E+05
 0.50099998E+02  0.16757E+05
 0.50149998E+02  0.15461E+05
 0.50199997E+02  0.87283E+04
 0.50249996E+02  0.37119E+04
 0.50299995E+02  0.59432E+04
 0.50349998E+02  0.12237E+05
 0.50399998E+02  0.17070E+05
 0.50449997E+02  0.28893E+05
 0.50499996E+02  0.42009E+05
 0.50549995E+02  0.41104E+05
 0.50599998E+02  0.34062E+05
 0.50649998E+02  0.33481E+05
 0.50699997E+02  0.38016E+05
 0.50749996E+02  0.39444E+05
 0.50799995E+02  0.31909E+05
 0.50849998E+02  0.23047E+05
 0.50899998E+02  0.16336E+05
 0.50949997E+02  0.82165E+04
 0.50999996E+02  0.76247E+04
 0.51049995E+02  0.20996E+05
 0.51099998E+02  0.32218E+05
 0.51149998E+02  0.32313E+05
 0.51199997E+02  0.26603E+05
 0.51249996E+02  0.24237E+05
 0.51299995E+02  0.32254E+05
 0.51349998E+02  0.43505E+05
 0.51399998E+02  0.50467E+05
 0.51449997E+02  0.56877E+05
 0.51499996E+02  0.69609E+05
 0.51549995E+02  0.79744E+05
 0.51599998E+02  0.79017E+05
 0.51649998E+02  0.78245E+05
 0.51699997E+02  0.84912E+05
 0.51749996E+02  0.90678E+05
 0.51799995E+02  0.88616E+05
 0.51849998E+02  0.83737E+05
 0.51899998E+02  0.72894E+05
 0.51949997E+02  0.52795E+05
 0.51999996E+02  0.36994E+05
 0.52049995E+02  0.33587E+05
 0.52099998E+02  0.30211E+05
 0.52149998E+02  0.17950E+05
 0.52199997E+02  0.62317E+04
 0.52249996E+02  0.10446E+04
 0.52299995E+02  0.21336E+04
 0.52349998E+02  0.10190E+05
 0.52399998E+02  0.26619E+05
 0.52449997E+02  0.46191E+05
 0.52499996E+02  0.62085E+05
 0.52549995E+02  0.73320E+05
 0.52599998E+02  0.75681E+05
 0.52649998E+02  0.70630E+05
 0.52699997E+02  0.67990E+05
 0.52749996E+02  0.72234E+05
 0.52799995E+02  0.80162E+05
 0.52849998E+02  0.81433E+05
 0.52899998E+02  0.74070E+05
 0.52949997E+02  0.72878E+05
 0.52999996E+02  0.78727E+05
 0.53049995E+02  0.82747E+05
 0.53099998E+02  0.81127E+05
 0.53149998E+02  0.74565E+05
 0.53199997E+02  0.72693E+05
 0.53249996E+02  0.77311E+05
 0.53299995E+02  0.82697E+05
 0.53349998E+02  0.86303E+05
 0.53399998E+02  0.89754E+05
 0.53449997E+02  0.86258E+05
 0.53499996E+02  0.70293E+05
 0.53549995E+02  0.52337E+05
 0.53599998E+02  0.34581E+05
 0.53649998E+02  0.17545E+05
 0.53699997E+02  0.37798E+04
 0.53749996E+02 -0.10631E+05
 0.53799995E+02 -0.24440E+05
 0.53849998E+02 -0.34556E+05
 0.53899998E+02 -0.39119E+05
 0.53949997E+02 -0.38030E+05
 0.53999996E+02 -0.31769E+05
 0.54049995E+02 -0.24252E+05
 0.54099998E+02 -0.17147E+05
 0.54149998E+02 -0.83158E+04
 0.54199997E+02  0.23609E+04
 0.54249996E+02  0.16653E+05
 0.54299995E+02  0.37332E+05
 0.54349998E+02  0.56725E+05
 0.54399998E+02  0.64938E+05
 0.54449997E+02  0.66323E+05
 0.54499996E+02  0.70609E+05
 0.54549995E+02  0.68800E+05
 0.54599998E+02  0.47209E+05
 0.54649998E+02  0.27284E+05
 0.54699997E+02  0.18400E+05
 0.54749996E+02  0.16181E+05
 0.54799995E+02  0.21730E+05
 0.54849998E+02  0.26206E+05
 0.54899998E+02  0.29492E+05
 0.54949997E+02  0.33884E+05
 0.54999996E+02  0.35333E+05
 0.55049995E+02  0.32365E+05
 0.55099998E+02  0.31500E+05
 0.55149998E+02  0.28049E+05
 0.55199997E+02  0.23548E+05
 0.55249996E+02  0.19331E+05
 0.55299995E+02  0.13610E+05
 0.55349998E+02  0.10911E+05
 0.55399998E+02  0.11648E+05
 0.55449997E+02  0.14952E+05
 0.55499996E+02  0.15045E+05
 0.55549995E+02  0.21296E+05
 0.55599998E+02  0.33895E+05
 0.55649998E+02  0.38217E+05
 0.55699997E+02  0.33557E+05
 0.55749996E+02  0.27421E+05
 0.55799995E+02  0.23305E+05
 0.55849995E+02  0.14613E+05
 0.55899998E+02  0.22109E+04
 0.55949997E+02 -0.66404E+04
 0.55999996E+02 -0.87258E+04
 0.56049995E+02 -0.54886E+03
 0.56099995E+02  0.13621E+05
 0.56149998E+02  0.24799E+05
 0.56199997E+02  0.35307E+05
 0.56249996E+02  0.49458E+05
 0.56299995E+02  0.64391E+05
 0.56349995E+02  0.82798E+05
 0.56399998E+02  0.97686E+05
 0.56449997E+02  0.92567E+05
 0.56499996E+02  0.77681E+05
 0.56549995E+02  0.74623E+05
 0.56599995E+02  0.77372E+05
 0.56649998E+02  0.74774E+05
 0.56699997E+02  0.65470E+05
 0.56749996E+02  0.50507E+05
 0.56799995E+02  0.32849E+05
 0.56849995E+02  0.69030E+04
 0.56899998E+02 -0.17399E+05
 0.56949997E+02 -0.33038E+05
 0.56999996E+02 -0.43186E+05
 0.57049995E+02 -0.46404E+05
 0.57099995E+02 -0.43477E+05
 0.57149998E+02 -0.36677E+05
 0.57199997E+02 -0.33570E+05
 0.57249996E+02 -0.34104E+05
 0.57299995E+02 -0.32805E+05
 0.57349995E+02 -0.30418E+05
 0.57399998E+02 -0.34488E+05
 0.57449997E+02 -0.39635E+05
 0.57499996E+02 -0.39970E+05
 0.57549995E+02 -0.43722E+05
 0.57599995E+02 -0.52909E+05
 0.57649998E+02 -0.60913E+05
 0.57699997E+02 -0.64249E+05
 0.57749996E+02 -0.59096E+05
 0.57799995E+02 -0.51241E+05
 0.57849995E+02 -0.46699E+05
 0.57899998E+02 -0.43216E+05
 0.57949997E+02 -0.39136E+05
 0.57999996E+02 -0.30512E+05
 0.58049995E+02 -0.20901E+05
 0.58099995E+02 -0.15881E+05
 0.58149998E+02 -0.18588E+05
 0.58199997E+02 -0.25285E+05
 0.58249996E+02 -0.28629E+05
 0.58299995E+02 -0.34632E+05
 0.58349995E+02 -0.42838E+05
 0.58399998E+02 -0.49413E+05
 0.58449997E+02 -0.53875E+05
 0.58499996E+02 -0.53647E+05
 0.58549995E+02 -0.59878E+05
 0.58599995E+02 -0.64641E+05
 0.58649998E+02 -0.62239E+05
 0.58699997E+02 -0.59345E+05
 0.58749996E+02 -0.66295E+05
 0.58799995E+02 -0.90467E+05
 0.58849995E+02 -0.10645E+06
 0.58899998E+02 -0.10005E+06
 0.58949997E+02 -0.83944E+05
 0.58999996E+02 -0.74240E+05
 0.59049995E+02 -0.70924E+05
 0.59099995E+02 -0.60035E+05
 0.59149998E+02 -0.39612E+05
 0.59199997E+02 -0.27170E+05
 0.59249996E+02 -0.33244E+05
 0.59299995E+02 -0.52479E+05
 0.59349995E+02 -0.69914E+05
 0.59399998E+02 -0.81043E+05
 0.59449997E+02 -0.93826E+05
 0.59499996E+02 -0.10628E+06
 0.59549995E+02 -0.11249E+06
 0.59599995E+02 -0.11503E+06
 0.59649998E+02 -0.11951E+06
 0.59699997E+02 -0.11949E+06
 0.59749996E+02 -0.11565E+06
 0.59799995E+02 -0.11098E+06
 0.59849995E+02 -0.95693E+05
 0.59899998E+02 -0.74845E+05
 0.59949997E+02 -0.59159E+05
 0.59999996E+02 -0.47781E+05
 0.60049995E+02 -0.41712E+05
 0.60099995E+02 -0.42377E+05
 0.60149998E+02 -0.46411E+05
 0.60199997E+02 -0.45875E+05
 0.60249996E+02 -0.45848E+05
 0.60299995E+02 -0.49684E+05
 0.60349995E+02 -0.55352E+05
 0.60399998E+02 -0.58591E+05
 0.60449997E+02 -0.55722E+05
 0.60499996E+02 -0.60267E+05
 0.60549995E+02 -0.72228E+05
 0.60599995E+02 -0.73772E+05
 0.60649998E+02 -0.60062E+05
 0.60699997E+02 -0.44027E+05
 0.60749996E+02 -0.34431E+05
 0.60799995E+02 -0.22789E+05
 0.60849995E+02 -0.14377E+04
 0.60899998E+02  0.24064E+05
 0.60949997E+02  0.43484E+05
 0.60999996E+02  0.51488E+05
 0.61049995E+02  0.56858E+05
 0.61099995E+02  0.70105E+05
 0.61149998E+02  0.84410E+05
 0.61199997E+02  0.96216E+05
 0.61249996E+02  0.11011E+06
 0.61299995E+02  0.11967E+06
 0.61349995E+02  0.11993E+06
 0.61399998E+02  0.10611E+06
 0.61449997E+02  0.82351E+05
 0.61499996E+02  0.55840E+05
 0.61549995E+02  0.30167E+05
 0.61599995E+02 -0.22214E+04
 0.61649998E+02 -0.51457E+05
 0.61699997E+02 -0.96505E+05
 0.61749996E+02 -0.11861E+06
 0.61799995E+02 -0.12155E+06
 0.61849995E+02 -0.12151E+06
 0.61899998E+02 -0.12900E+06
 0.61949997E+02 -0.14435E+06
 0.61999996E+02 -0.16873E+06
 0.62049995E+02 -0.18813E+06
 0.62099998E+02 -0.19454E+06
 0.62149994E+02 -0.19467E+06
 0.62199997E+02 -0.18525E+06
 0.62249992E+02 -0.16543E+06
 0.62299995E+02 -0.13958E+06
 0.62349998E+02 -0.11119E+06
 0.62399994E+02 -0.80905E+05
 0.62449997E+02 -0.50080E+05
 0.62499992E+02 -0.16041E+05
 0.62549995E+02  0.17455E+05
 0.62599998E+02  0.43329E+05
 0.62649994E+02  0.61420E+05
 0.62699997E+02  0.75243E+05
 0.62749992E+02  0.88926E+05
 0.62799995E+02  0.97195E+05
 0.62849998E+02  0.96504E+05
 0.62899994E+02  0.89339E+05
 0.62949997E+02  0.80012E+05
 0.62999992E+02  0.69544E+05
 0.63049995E+02  0.53313E+05
 0.63099998E+02  0.27876E+05
 0.63149994E+02 -0.31934E+03
 0.63199997E+02 -0.18056E+05
 0.63249992E+02 -0.15357E+05
 0.63299995E+02 -0.10121E+04
 0.63349998E+02  0.71625E+04
 0.63399994E+02  0.17273E+04
 0.63449997E+02 -0.14210E+05
 0.63499992E+02 -0.39159E+05
 0.63549995E+02 -0.73779E+05
 0.63599998E+02 -0.10320E+06
 0.63649994E+02 -0.12101E+06
 0.63699997E+02 -0.13590E+06
 0.63749992E+02 -0.14642E+06
 0.63799995E+02 -0.15212E+06
 0.63849998E+02 -0.14702E+06
 0.63899994E+02 -0.12518E+06
 0.63949997E+02 -0.93718E+05
 0.63999992E+02 -0.60426E+05
 0.64049995E+02 -0.23143E+05
 0.64099998E+02  0.23867E+05
 0.64149994E+02  0.74653E+05
 0.64199997E+02  0.12476E+06
 0.64249992E+02  0.17479E+06
 0.64299995E+02  0.21542E+06
 0.64349998E+02  0.23929E+06
 0.64399994E+02  0.24126E+06
 0.64449997E+02  0.21751E+06
 0.64499992E+02  0.17697E+06
 0.64549995E+02  0.13053E+06
 0.64599998E+02  0.81329E+05
 0.64649994E+02  0.30293E+05
 0.64699997E+02 -0.18925E+05
 0.64749992E+02 -0.61702E+05
 0.64799995E+02 -0.89447E+05
 0.64849998E+02 -0.10463E+06
 0.64899994E+02 -0.10377E+06
 0.64949997E+02 -0.88080E+05
 0.64999992E+02 -0.72210E+05
 0.65049995E+02 -0.64647E+05
 0.65099998E+02 -0.71519E+05
 0.65149994E+02 -0.98071E+05
 0.65199997E+02 -0.14428E+06
 0.65249992E+02 -0.19093E+06
 0.65299995E+02 -0.21934E+06
 0.65349998E+02 -0.23300E+06
 0.65399994E+02 -0.25152E+06
 0.65449997E+02 -0.27311E+06
 0.65499992E+02 -0.28234E+06
 0.65549995E+02 -0.27672E+06
 0.65599998E+02 -0.25603E+06
 0.65649994E+02 -0.21825E+06
 0.65699997E+02 -0.17079E+06
 0.65749992E+02 -0.12022E+06
 0.65799995E+02 -0.63604E+05
 0.65849998E+02 -0.17375E+04
 0.65899994E+02  0.61022E+05
 0.65949997E+02  0.11692E+06
 0.65999992E+02  0.15294E+06
 0.66049995E+02  0.16221E+06
 0.66099998E+02  0.15680E+06
 0.66149994E+02  0.15344E+06
 0.66199997E+02  0.15977E+06
 0.66249992E+02  0.17556E+06
 0.66299995E+02  0.20058E+06
 0.66349998E+02  0.22505E+06
 0.66399994E+02  0.23234E+06
 0.66449997E+02  0.22187E+06
 0.66499992E+02  0.20493E+06
 0.66549995E+02  0.19191E+06
 0.66599998E+02  0.18750E+06
 0.66649994E+02  0.18918E+06
 0.66699997E+02  0.18680E+06
 0.66749992E+02  0.16254E+06
 0.66799995E+02  0.11856E+06
 0.66849998E+02  0.70794E+05
 0.66899994E+02  0.23714E+05
 0.66949997E+02 -0.20779E+05
 0.66999992E+02 -0.62394E+05
 0.67049995E+02 -0.94767E+05
 0.67099998E+02 -0.11100E+06
 0.67149994E+02 -0.10647E+06
 0.67199997E+02 -0.81108E+05
 0.67249992E+02 -0.53151E+05
 0.67299995E+02 -0.39923E+05
 0.67349998E+02 -0.37585E+05
 0.67399994E+02 -0.32757E+05
 0.67449997E+02 -0.22551E+05
 0.67499992E+02 -0.12284E+05
 0.67549995E+02 -0.15168E+03
 0.67599998E+02  0.14372E+05
 0.67649994E+02  0.26182E+05
 0.67699997E+02  0.35505E+05
 0.67749992E+02  0.50187E+05
 0.67799995E+02  0.71496E+05
 0.67849998E+02  0.94837E+05
 0.67899994E+02  0.12113E+06
 0.67949997E+02  0.14857E+06
 0.67999992E+02  0.16969E+06
 0.68049995E+02  0.17673E+06
 0.68099998E+02  0.17852E+06
 0.68149994E+02  0.18227E+06
 0.68199997E+02  0.18035E+06
 0.68249992E+02  0.16932E+06
 0.68299995E+02  0.14740E+06
 0.68349998E+02  0.11402E+06
 0.68399994E+02  0.72305E+05
 0.68449997E+02  0.28435E+05
 0.68499992E+02 -0.12698E+05
 0.68549995E+02 -0.44403E+05
 0.68599998E+02 -0.60961E+05
 0.68649994E+02 -0.65588E+05
 0.68699997E+02 -0.65811E+05
 0.68749992E+02 -0.62293E+05
 0.68799995E+02 -0.48261E+05
 0.68849998E+02 -0.19876E+05
 0.68899994E+02  0.21008E+05
 0.68949997E+02  0.59834E+05
 0.68999992E+02  0.76143E+05
 0.69049995E+02  0.74796E+05
 0.69099998E+02  0.70536E+05
 0.69149994E+02  0.66954E+05
 0.69199997E+02  0.64915E+05
 0.69249992E+02  0.64529E+05
 0.69299995E+02  0.73040E+05
 0.69349998E+02  0.88527E+05
 0.69399994E+02  0.99174E+05
 0.69449997E+02  0.10060E+06
 0.69499992E+02  0.97779E+05
 0.69549995E+02  0.95053E+05
 0.69599998E+02  0.85366E+05
 0.69649994E+02  0.58905E+05
 0.69699997E+02  0.16952E+05
 0.69749992E+02 -0.27202E+05
 0.69799995E+02 -0.60814E+05
 0.69849998E+02 -0.83702E+05
 0.69899994E+02 -0.99683E+05
 0.69949997E+02 -0.10716E+06
 0.69999992E+02 -0.11431E+06
 0.70049995E+02 -0.12564E+06
 0.70099998E+02 -0.13172E+06
 0.70149994E+02 -0.13271E+06
 0.70199997E+02 -0.13576E+06
 0.70249992E+02 -0.13577E+06
 0.70299995E+02 -0.13055E+06
 0.70349998E+02 -0.13049E+06
 0.70399994E+02 -0.13336E+06
 0.70449997E+02 -0.12734E+06
 0.70499992E+02 -0.11001E+06
 0.70549995E+02 -0.83575E+05
 0.70599998E+02 -0.53014E+05
 0.70649994E+02 -0.23387E+05
 0.70699997E+02  0.91419E+04
 0.70749992E+02  0.41154E+05
 0.70799995E+02  0.59914E+05
 0.70849998E+02  0.62066E+05
 0.70899994E+02  0.55279E+05
 0.70949997E+02  0.45659E+05
 0.70999992E+02  0.30711E+05
 0.71049995E+02  0.13427E+05
 0.71099998E+02  0.87638E+03
 0.71149994E+02 -0.35390E+04
 0.71199997E+02  0.81862E+03
 0.71249992E+02  0.11632E+05
 0.71299995E+02  0.25850E+05
 0.71349998E+02  0.38121E+05
 0.71399994E+02  0.45740E+05
 0.71449997E+02  0.44321E+05
 0.71499992E+02  0.26806E+05
 0.71549995E+02 -0.38215E+04
 0.71599998E+02 -0.35436E+05
 0.71649994E+02 -0.61242E+05
 0.71699997E+02 -0.82618E+05
 0.71749992E+02 -0.10461E+06
 0.71799995E+02 -0.12848E+06
 0.71849998E+02 -0.15064E+06
 0.71899994E+02 -0.17431E+06
 0.71949997E+02 -0.20114E+06
 0.71999992E+02 -0.22447E+06
 0.72049995E+02 -0.23908E+06
 0.72099998E+02 -0.24623E+06
 0.72149994E+02 -0.24815E+06
 0.72199997E+02 -0.24175E+06
 0.72249992E+02 -0.22244E+06
 0.72299995E+02 -0.19171E+06
 0.72349998E+02 -0.15360E+06
 0.72399994E+02 -0.11351E+06
 0.72449997E+02 -0.75394E+05
 0.72499992E+02 -0.40313E+05
 0.72549995E+02 -0.95751E+04
 0.72599998E+02  0.15565E+05
 0.72649994E+02  0.32150E+05
 0.72699997E+02  0.35788E+05
 0.72749992E+02  0.26389E+05
 0.72799995E+02  0.95916E+04
 0.72849998E+02 -0.10511E+05
 0.72899994E+02 -0.30453E+05
 0.72949997E+02 -0.47000E+05
 0.72999992E+02 -0.55799E+05
 0.73049995E+02 -0.53632E+05
 0.73099998E+02 -0.43777E+05
 0.73149994E+02 -0.34026E+05
 0.73199997E+02 -0.27863E+05
 0.73249992E+02 -0.28303E+05
 0.73299995E+02 -0.37557E+05
 0.73349998E+02 -0.56399E+05
 0.73399994E+02 -0.88001E+05
 0.73449997E+02 -0.12466E+06
 0.73499992E+02 -0.15345E+06
 0.73549995E+02 -0.16779E+06
 0.73599998E+02 -0.16644E+06
 0.73649994E+02 -0.15061E+06
 0.73699997E+02 -0.12385E+06
 0.73749992E+02 -0.90267E+05
 0.73799995E+02 -0.52737E+05
 0.73849998E+02 -0.14493E+05
 0.73899994E+02  0.20734E+05
 0.73949997E+02  0.53497E+05
 0.73999992E+02  0.86306E+05
 0.74049995E+02  0.11865E+06
 0.74099998E+02  0.14740E+06
 0.74149994E+02  0.16826E+06
 0.74199997E+02  0.17683E+06
 0.74249992E+02  0.17357E+06
 0.74299995E+02  0.16239E+06
 0.74349998E+02  0.14615E+06
 0.74399994E+02  0.13201E+06
 0.74449997E+02  0.12474E+06
 0.74499992E+02  0.12800E+06
 0.74549995E+02  0.13959E+06
 0.74599998E+02  0.15137E+06
 0.74649994E+02  0.16373E+06
 0.74699997E+02  0.17985E+06
 0.74749992E+02  0.19932E+06
 0.74799995E+02  0.21817E+06
 0.74849998E+02  0.23194E+06
 0.74899994E+02  0.23836E+06
 0.74949997E+02  0.23497E+06
 0.74999992E+02  0.22065E+06
 0.75049995E+02  0.19707E+06
 0.75099998E+02  0.16680E+06
 0.75149994E+02  0.13222E+06
 0.75199997E+02  0.99541E+05
 0.75249992E+02  0.77816E+05
 0.75299995E+02  0.73372E+05
 0.75349998E+02  0.82755E+05
 0.75399994E+02  0.95178E+05
 0.75449997E+02  0.10443E+06
 0.75499992E+02  0.10827E+06
 0.75549995E+02  0.10508E+06
 0.75599998E+02  0.95287E+05
 0.75649994E+02  0.80622E+05
 0.75699997E+02  0.62467E+05
 0.75749992E+02  0.43602E+05
 0.75799995E+02  0.27269E+05
 0.75849998E+02  0.14124E+05
 0.75899994E+02  0.74739E+03
 0.75949997E+02 -0.10649E+05
 0.75999992E+02 -0.12453E+05
 0.76049995E+02 -0.32795E+04
 0.76099998E+02  0.15500E+05
 0.76149994E+02  0.41480E+05
 0.76199997E+02  0.68423E+05
 0.76249992E+02  0.90300E+05
 0.76299995E+02  0.10693E+06
 0.76349998E+02  0.11669E+06
 0.76399994E+02  0.11722E+06
 0.76449997E+02  0.11049E+06
 0.76499992E+02  0.10102E+06
 0.76549995E+02  0.93666E+05
 0.76599998E+02  0.89297E+05
 0.76649994E+02  0.86228E+05
 0.76699997E+02  0.80058E+05
 0.76749992E+02  0.64313E+05
 0.76799995E+02  0.36268E+05
 0.76849998E+02 -0.37052E+04
 0.76899994E+02 -0.55800E+05
 0.76949997E+02 -0.11164E+06
 0.76999992E+02 -0.15733E+06
 0.77049995E+02 -0.18355E+06
 0.77099998E+02 -0.19183E+06
 0.77149994E+02 -0.19094E+06
 0.77199997E+02 -0.18476E+06
 0.77249992E+02 -0.17462E+06
 0.77299995E+02 -0.16174E+06
 0.77349998E+02 -0.14639E+06
 0.77399994E+02 -0.12957E+06
 0.77449997E+02 -0.11458E+06
 0.77499992E+02 -0.10318E+06
 0.77549995E+02 -0.92829E+05
 0.77599998E+02 -0.79545E+05
 0.77649994E+02 -0.60801E+05
 0.77699997E+02 -0.38156E+05
 0.77749992E+02 -0.14523E+05
 0.77799995E+02  0.83745E+04
 0.77849998E+02  0.28177E+05
 0.77899994E+02  0.42284E+05
 0.77949997E+02  0.48684E+05
 0.77999992E+02  0.46995E+05
 0.78049995E+02  0.41679E+05
 0.78099998E+02  0.37130E+05
 0.78149994E+02  0.34357E+05
 0.78199997E+02  0.33755E+05
 0.78249992E+02  0.32634E+05
 0.78299995E+02  0.28048E+05
 0.78349998E+02  0.20550E+05
 0.78399994E+02  0.99631E+04
 0.78449997E+02 -0.30558E+04
 0.78499992E+02 -0.18223E+05
 0.78549995E+02 -0.35980E+05
 0.78599998E+02 -0.56529E+05
 0.78649994E+02 -0.82360E+05
 0.78699997E+02 -0.11325E+06
 0.78749992E+02 -0.14419E+06
 0.78799995E+02 -0.16836E+06
 0.78849998E+02 -0.18160E+06
 0.78899994E+02 -0.18223E+06
 0.78949997E+02 -0.17250E+06
 0.78999992E+02 -0.15653E+06
 0.79049995E+02 -0.13806E+06
 0.79099998E+02 -0.11832E+06
 0.79149994E+02 -0.98163E+05
 0.79199997E+02 -0.82510E+05
 0.79249992E+02 -0.74566E+05
 0.79299995E+02 -0.72959E+05
 0.79349998E+02 -0.73708E+05
 0.79399994E+02 -0.71336E+05
 0.79449997E+02 -0.62280E+05
 0.79499992E+02 -0.45179E+05
 0.79549995E+02 -0.20345E+05
 0.79599998E+02  0.92047E+04
 0.79649994E+02  0.41353E+05
 0.79699997E+02  0.76130E+05
 0.79749992E+02  0.11394E+06
 0.79799995E+02  0.15014E+06
 0.79849998E+02  0.17918E+06
 0.79899994E+02  0.19826E+06
 0.79949997E+02  0.20608E+06
 0.79999992E+02  0.20271E+06
 0.80049995E+02  0.18818E+06
 0.80099998E+02  0.16209E+06
 0.80149994E+02  0.12481E+06
 0.80199997E+02  0.81513E+05
 0.80249992E+02  0.38158E+05
 0.80299995E+02  0.56379E+03
 0.80349998E+02 -0.24515E+05
 0.80399994E+02 -0.34515E+05
 0.80449997E+02 -0.31259E+05
 0.80499992E+02 -0.20921E+05
 0.80549995E+02 -0.80606E+04
 0.80599998E+02  0.46530E+04
 0.80649994E+02  0.13293E+05
 0.80699997E+02  0.16892E+05
 0.80749992E+02  0.16300E+05
 0.80799995E+02  0.12650E+05
 0.80849998E+02  0.80014E+04
 0.80899994E+02  0.61457E+04
 0.80949997E+02  0.79321E+04
 0.80999992E+02  0.11059E+05
 0.81049995E+02  0.13530E+05
 0.81099998E+02  0.17913E+05
 0.81149994E+02  0.25856E+05
 0.81199997E+02  0.34338E+05
 0.81249992E+02  0.42000E+05
 0.81299995E+02  0.48387E+05
 0.81349998E+02  0.53794E+05
 0.81399994E+02  0.57006E+05
 0.81449997E+02  0.57688E+05
 0.81499992E+02  0.56882E+05
 0.81549995E+02  0.54761E+05
 0.81599998E+02  0.52832E+05
 0.81649994E+02  0.55621E+05
 0.81699997E+02  0.64562E+05
 0.81749992E+02  0.76295E+05
 0.81799995E+02  0.87211E+05
 0.81849998E+02  0.92767E+05
 0.81899994E+02  0.88680E+05
 0.81949997E+02  0.74523E+05
 0.81999992E+02  0.53646E+05
 0.82049995E+02  0.28864E+05
 0.82099998E+02  0.34591E+04
 0.82149994E+02 -0.20354E+05
 0.82199997E+02 -0.41978E+05
 0.82249992E+02 -0.59814E+05
 0.82299995E+02 -0.71827E+05
 0.82349998E+02 -0.76284E+05
 0.82399994E+02 -0.72955E+05
 0.82449997E+02 -0.64537E+05
 0.82499992E+02 -0.52870E+05
 0.82549995E+02 -0.38848E+05
 0.82599998E+02 -0.21602E+05
 0.82649994E+02  0.17341E+02
 0.82699997E+02  0.22633E+05
 0.82749992E+02  0.41308E+05
 0.82799995E+02  0.51867E+05
 0.82849998E+02  0.53978E+05
 0.82899994E+02  0.49315E+05
 0.82949997E+02  0.40794E+05
 0.82999992E+02  0.32795E+05
 0.83049995E+02  0.27499E+05
 0.83099998E+02  0.24745E+05
 0.83149994E+02  0.23466E+05
 0.83199997E+02  0.23213E+05
 0.83249992E+02  0.24622E+05
 0.83299995E+02  0.27785E+05
 0.83349998E+02  0.31346E+05
 0.83399994E+02  0.32687E+05
 0.83449997E+02  0.30135E+05
 0.83499992E+02  0.24307E+05
 0.83549995E+02  0.15917E+05
 0.83599998E+02  0.42352E+04
 0.83649994E+02 -0.13224E+05
 0.83699997E+02 -0.37582E+05
 0.83749992E+02 -0.67320E+05
 0.83799995E+02 -0.10030E+06
 0.83849998E+02 -0.13265E+06
 0.83899994E+02 -0.15979E+06
 0.83949997E+02 -0.17932E+06
 0.83999992E+02 -0.19004E+06
 0.84049995E+02 -0.19067E+06
 0.84099998E+02 -0.18293E+06
 0.84149994E+02 -0.17143E+06
 0.84199997E+02 -0.15905E+06
 0.84249992E+02 -0.14514E+06
 0.84299995E+02 -0.12989E+06
 0.84349998E+02 -0.11455E+06
 0.84399994E+02 -0.10014E+06
 0.84449997E+02 -0.89521E+05
 0.84499992E+02 -0.83375E+05
 0.84549995E+02 -0.79088E+05
 0.84599998E+02 -0.75064E+05
 0.84649994E+02 -0.72279E+05
 0.84699997E+02 -0.71374E+05
 0.84749992E+02 -0.70717E+05
 0.84799995E+02 -0.67856E+05
 0.84849998E+02 -0.60908E+05
 0.84899994E+02 -0.50552E+05
 0.84949997E+02 -0.41954E+05
 0.84999992E+02 -0.39947E+05
 0.85049995E+02 -0.44025E+05
 0.85099998E+02 -0.51509E+05
 0.85149994E+02 -0.59814E+05
 0.85199997E+02 -0.67984E+05
 0.85249992E+02 -0.74670E+05
 0.85299995E+02 -0.78087E+05
 0.85349998E+02 -0.80329E+05
 0.85399994E+02 -0.83764E+05
 0.85449997E+02 -0.87597E+05
 0.85499992E+02 -0.89414E+05
 0.85549995E+02 -0.87161E+05
 0.85599998E+02 -0.80202E+05
 0.85649994E+02 -0.69218E+05
 0.85699997E+02 -0.54610E+05
 0.85749992E+02 -0.36896E+05
 0.85799995E+02 -0.18666E+05
 0.85849998E+02 -0.43252E+04
 0.85899994E+02  0.20818E+04
 0.85949997E+02 -0.92342E+02
 0.85999992E+02 -0.71717E+04
 0.86049995E+02 -0.18109E+05
 0.86099998E+02 -0.33577E+05
 0.86149994E+02 -0.49282E+05
 0.86199997E+02 -0.61019E+05
 0.86249992E+02 -0.67353E+05
 0.86299995E+02 -0.67046E+05
 0.86349998E+02 -0.58427E+05
 0.86399994E+02 -0.41542E+05
 0.86449997E+02 -0.17733E+05
 0.86499992E+02  0.11596E+05
 0.86549995E+02  0.43223E+05
 0.86599998E+02  0.73086E+05
 0.86649994E+02  0.98959E+05
 0.86699997E+02  0.11913E+06
 0.86749992E+02  0.13216E+06
 0.86799995E+02  0.13832E+06
 0.86849998E+02  0.13767E+06
 0.86899994E+02  0.13044E+06
 0.86949997E+02  0.11927E+06
 0.86999992E+02  0.10879E+06
 0.87049995E+02  0.10166E+06
 0.87099998E+02  0.97453E+05
 0.87149994E+02  0.95101E+05
 0.87199997E+02  0.93353E+05
 0.87249992E+02  0.91194E+05
 0.87299995E+02  0.88762E+05
 0.87349998E+02  0.85721E+05
 0.87399994E+02  0.80937E+05
 0.87449997E+02  0.74319E+05
 0.87499992E+02  0.66699E+05
 0.87549995E+02  0.57730E+05
 0.87599991E+02  0.46545E+05
 0.87649994E+02  0.33068E+05
 0.87699997E+02  0.18028E+05
 0.87749992E+02  0.25659E+04
 0.87799995E+02 -0.12902E+05
 0.87849991E+02 -0.25967E+05
 0.87899994E+02 -0.33500E+05
 0.87949997E+02 -0.33515E+05
 0.87999992E+02 -0.26201E+05
 0.88049995E+02 -0.14415E+05
 0.88099991E+02 -0.94777E+03
 0.88149994E+02  0.11516E+05
 0.88199997E+02  0.22063E+05
 0.88249992E+02  0.32117E+05
 0.88299995E+02  0.42956E+05
 0.88349991E+02  0.54116E+05
 0.88399994E+02  0.61967E+05
 0.88449997E+02  0.62823E+05
 0.88499992E+02  0.55686E+05
 0.88549995E+02  0.41906E+05
 0.88599991E+02  0.23963E+05
 0.88649994E+02  0.33099E+04
 0.88699997E+02 -0.17907E+05
 0.88749992E+02 -0.37880E+05
 0.88799995E+02 -0.55457E+05
 0.88849991E+02 -0.70086E+05
 0.88899994E+02 -0.83345E+05
 0.88949997E+02 -0.95199E+05
 0.88999992E+02 -0.10402E+06
 0.89049995E+02 -0.10917E+06
 0.89099991E+02 -0.11059E+06
 0.89149994E+02 -0.10836E+06
 0.89199997E+02 -0.10319E+06
 0.89249992E+02 -0.95410E+05
 0.89299995E+02 -0.85907E+05
 0.89349991E+02 -0.76645E+05
 0.89399994E+02 -0.68556E+05
 0.89449997E+02 -0.62354E+05
 0.89499992E+02 -0.56814E+05
 0.89549995E+02 -0.49856E+05
 0.89599991E+02 -0.41694E+05
 0.89649994E+02 -0.33552E+05
 0.89699997E+02 -0.26205E+05
 0.89749992E+02 -0.19399E+05
 0.89799995E+02 -0.12261E+05
 0.89849991E+02 -0.45830E+04
 0.89899994E+02  0.18677E+04
 0.89949997E+02  0.62071E+04
 0.89999992E+02  0.96853E+04
 0.90049995E+02  0.13155E+05
 0.90099991E+02  0.16432E+05
 0.90149994E+02  0.19754E+05
 0.90199997E+02  0.24154E+05
 0.90249992E+02  0.29958E+05
 0.90299995E+02  0.37572E+05
 0.90349991E+02  0.46734E+05
 0.90399994E+02  0.56575E+05
 0.90449997E+02  0.65666E+05
 0.90499992E+02  0.72094E+05
 0.90549995E+02  0.74782E+05
 0.90599991E+02  0.72867E+05
 0.90649994E+02  0.66196E+05
 0.90699997E+02  0.56171E+05
 0.90749992E+02  0.44570E+05
 0.90799995E+02  0.32265E+05
 0.90849991E+02  0.20282E+05
 0.90899994E+02  0.98429E+04
 0.90949997E+02  0.25059E+04
 0.90999992E+02 -0.15875E+04
 0.91049995E+02 -0.44994E+04
 0.91099991E+02 -0.76215E+04
 0.91149994E+02 -0.11118E+05
 0.91199997E+02 -0.13611E+05
 0.91249992E+02 -0.13764E+05
 0.91299995E+02 -0.11543E+05
 0.91349991E+02 -0.72359E+04
 0.91399994E+02 -0.15434E+04
 0.91449997E+02  0.43262E+04
 0.91499992E+02  0.95228E+04
 0.91549995E+02  0.15000E+05
 0.91599991E+02  0.20164E+05
 0.91649994E+02  0.23184E+05
 0.91699997E+02  0.23252E+05
 0.91749992E+02  0.20342E+05
 0.91799995E+02  0.16697E+05
 0.91849991E+02  0.14086E+05
 0.91899994E+02  0.12284E+05
 0.91949997E+02  0.10796E+05
 0.91999992E+02  0.11213E+05
 0.92049995E+02  0.14420E+05
 0.92099991E+02  0.19662E+05
 0.92149994E+02  0.25768E+05
 0.92199997E+02  0.30622E+05
 0.92249992E+02  0.34521E+05
 0.92299995E+02  0.38786E+05
 0.92349991E+02  0.44205E+05
 0.92399994E+02  0.51118E+05
 0.92449997E+02  0.58603E+05
 0.92499992E+02  0.66185E+05
 0.92549995E+02  0.73908E+05
 0.92599991E+02  0.81137E+05
 0.92649994E+02  0.88137E+05
 0.92699997E+02  0.95713E+05
 0.92749992E+02  0.10307E+06
 0.92799995E+02  0.10978E+06
 0.92849991E+02  0.11670E+06
 0.92899994E+02  0.12492E+06
 0.92949997E+02  0.13427E+06
 0.92999992E+02  0.14337E+06
 0.93049995E+02  0.15023E+06
 0.93099991E+02  0.15300E+06
 0.93149994E+02  0.15111E+06
 0.93199997E+02  0.14567E+06
 0.93249992E+02  0.13822E+06
 0.93299995E+02  0.12935E+06
 0.93349991E+02  0.12037E+06
 0.93399994E+02  0.11176E+06
 0.93449997E+02  0.10358E+06
 0.93499992E+02  0.95456E+05
 0.93549995E+02  0.85333E+05
 0.93599991E+02  0.72031E+05
 0.93649994E+02  0.56223E+05
 0.93699997E+02  0.40236E+05
 0.93749992E+02  0.26984E+05
 0.93799995E+02  0.17874E+05
 0.93849991E+02  0.12422E+05
 0.93899994E+02  0.97644E+04
 0.93949997E+02  0.86804E+04
 0.93999992E+02  0.77790E+04
 0.94049995E+02  0.60267E+04
 0.94099991E+02  0.24550E+04
 0.94149994E+02 -0.30235E+04
 0.94199997E+02 -0.10097E+05
 0.94249992E+02 -0.18909E+05
 0.94299995E+02 -0.28390E+05
 0.94349991E+02 -0.36787E+05
 0.94399994E+02 -0.42676E+05
 0.94449997E+02 -0.45959E+05
 0.94499992E+02 -0.46984E+05
 0.94549995E+02 -0.45246E+05
 0.94599991E+02 -0.40834E+05
 0.94649994E+02 -0.33744E+05
 0.94699997E+02 -0.24492E+05
 0.94749992E+02 -0.14655E+05
 0.94799995E+02 -0.60947E+04
 0.94849991E+02  0.43229E+03
 0.94899994E+02  0.50556E+04
 0.94949997E+02  0.69715E+04
 0.94999992E+02  0.51018E+04
 0.95049995E+02 -0.27793E+03
 0.95099991E+02 -0.86037E+04
 0.95149994E+02 -0.18742E+05
 0.95199997E+02 -0.29034E+05
 0.95249992E+02 -0.38828E+05
 0.95299995E+02 -0.47510E+05
 0.95349991E+02 -0.54997E+05
 0.95399994E+02 -0.61996E+05
 0.95449997E+02 -0.68128E+05
 0.95499992E+02 -0.72699E+05
 0.95549995E+02 -0.76505E+05
 0.95599991E+02 -0.80197E+05
 0.95649994E+02 -0.84200E+05
 0.95699997E+02 -0.88493E+05
 0.95749992E+02 -0.91138E+05
 0.95799995E+02 -0.90114E+05
 0.95849991E+02 -0.84882E+05
 0.95899994E+02 -0.75750E+05
 0.95949997E+02 -0.64101E+05
 0.95999992E+02 -0.52053E+05
 0.96049995E+02 -0.40856E+05
 0.96099991E+02 -0.31959E+05
 0.96149994E+02 -0.26754E+05
 0.96199997E+02 -0.25242E+05
 0.96249992E+02 -0.27293E+05
 0.96299995E+02 -0.32701E+05
 0.96349991E+02 -0.40909E+05
 0.96399994E+02 -0.50859E+05
 0.96449997E+02 -0.62056E+05
 0.96499992E+02 -0.73762E+05
 0.96549995E+02 -0.84404E+05
 0.96599991E+02 -0.92195E+05
 0.96649994E+02 -0.95369E+05
 0.96699997E+02 -0.93737E+05
 0.96749992E+02 -0.87965E+05
 0.96799995E+02 -0.80136E+05
 0.96849991E+02 -0.72843E+05
 0.96899994E+02 -0.67423E+05
 0.96949997E+02 -0.63961E+05
 0.96999992E+02 -0.61806E+05
 0.97049995E+02 -0.60543E+05
 0.97099991E+02 -0.61175E+05
 0.97149994E+02 -0.64632E+05
 0.97199997E+02 -0.70343E+05
 0.97249992E+02 -0.77813E+05
 0.97299995E+02 -0.86307E+05
 0.97349991E+02 -0.95271E+05
 0.97399994E+02 -0.10471E+06
 0.97449997E+02 -0.11373E+06
 0.97499992E+02 -0.12091E+06
 0.97549995E+02 -0.12494E+06
 0.97599991E+02 -0.12519E+06
 0.97649994E+02 -0.12162E+06
 0.97699997E+02 -0.11405E+06
 0.97749992E+02 -0.10281E+06
 0.97799995E+02 -0.89613E+05
 0.97849991E+02 -0.76813E+05
 0.97899994E+02 -0.64526E+05
 0.97949997E+02 -0.51257E+05
 0.97999992E+02 -0.36475E+05
