-0.20000000E+01  0.29619E+05
-0.19500000E+01  0.22503E+05
-0.19000000E+01  0.15392E+05
-0.18500000E+01  0.71189E+04
-0.18000000E+01 -0.20410E+04
-0.17500000E+01 -0.11892E+05
-0.17000000E+01 -0.21752E+05
-0.16500001E+01 -0.30416E+05
-0.16000000E+01 -0.37456E+05
-0.15500000E+01 -0.43826E+05
-0.15000000E+01 -0.49369E+05
-0.14500000E+01 -0.54081E+05
-0.14000001E+01 -0.58554E+05
-0.13500000E+01 -0.62978E+05
-0.13000001E+01 -0.67833E+05
-0.12500000E+01 -0.72648E+05
-0.12000000E+01 -0.76828E+05
-0.11500001E+01 -0.79804E+05
-0.11000000E+01 -0.81363E+05
-0.10500001E+01 -0.81114E+05
-0.10000000E+01 -0.78647E+05
-0.95000005E+00 -0.74328E+05
-0.90000010E+00 -0.68108E+05
-0.85000002E+00 -0.60793E+05
-0.80000007E+00 -0.52886E+05
-0.75000012E+00 -0.44975E+05
-0.70000005E+00 -0.37567E+05
-0.65000010E+00 -0.30473E+05
-0.60000014E+00 -0.24074E+05
-0.55000007E+00 -0.18139E+05
-0.50000012E+00 -0.12421E+05
-0.45000005E+00 -0.76742E+04
-0.40000010E+00 -0.37083E+04
-0.35000014E+00 -0.58375E+03
-0.30000007E+00  0.20189E+04
-0.25000012E+00  0.52493E+04
-0.20000005E+00  0.92752E+04
-0.15000010E+00  0.13888E+05
-0.10000014E+00  0.18818E+05
-0.50000072E-01  0.23286E+05
-0.11920929E-06  0.27299E+05
 0.49999952E-01  0.31178E+05
 0.99999905E-01  0.34320E+05
 0.14999986E+00  0.36492E+05
 0.19999981E+00  0.37352E+05
 0.24999976E+00  0.36660E+05
 0.29999995E+00  0.34572E+05
 0.34999990E+00  0.32320E+05
 0.39999986E+00  0.30633E+05
 0.44999981E+00  0.29234E+05
 0.49999976E+00  0.28704E+05
 0.54999995E+00  0.28916E+05
 0.59999990E+00  0.30083E+05
 0.64999986E+00  0.31852E+05
 0.69999981E+00  0.33971E+05
 0.74999976E+00  0.36283E+05
 0.79999971E+00  0.38355E+05
 0.84999990E+00  0.40284E+05
 0.89999986E+00  0.41649E+05
 0.94999981E+00  0.43026E+05
 0.99999976E+00  0.44023E+05
 0.10499997E+01  0.44312E+05
 0.10999999E+01  0.44129E+05
 0.11499999E+01  0.43829E+05
 0.11999998E+01  0.43328E+05
 0.12499998E+01  0.42519E+05
 0.12999997E+01  0.41372E+05
 0.13499999E+01  0.39039E+05
 0.13999999E+01  0.36432E+05
 0.14499998E+01  0.33372E+05
 0.14999998E+01  0.30583E+05
 0.15499997E+01  0.28339E+05
 0.15999999E+01  0.25511E+05
 0.16499999E+01  0.22834E+05
 0.16999998E+01  0.19550E+05
 0.17499998E+01  0.16118E+05
 0.17999997E+01  0.12038E+05
 0.18499997E+01  0.83289E+04
 0.18999999E+01  0.52705E+04
 0.19499998E+01  0.25104E+04
 0.19999998E+01  0.14974E+03
 0.20499997E+01 -0.25404E+04
 0.20999999E+01 -0.49651E+04
 0.21499996E+01 -0.73357E+04
 0.21999998E+01 -0.88059E+04
 0.22499995E+01 -0.94676E+04
 0.22999997E+01 -0.95029E+04
 0.23499999E+01 -0.87297E+04
 0.23999996E+01 -0.63074E+04
 0.24499998E+01 -0.17494E+04
 0.24999995E+01  0.39761E+04
 0.25499997E+01  0.10173E+05
 0.25999999E+01  0.16626E+05
 0.26499996E+01  0.23113E+05
 0.26999998E+01  0.29369E+05
 0.27499995E+01  0.35861E+05
 0.27999997E+01  0.42120E+05
 0.28499999E+01  0.47392E+05
 0.28999996E+01  0.50886E+05
 0.29499998E+01  0.52467E+05
 0.29999995E+01  0.52714E+05
 0.30499997E+01  0.51422E+05
 0.30999999E+01  0.49075E+05
 0.31499996E+01  0.46331E+05
 0.31999998E+01  0.44128E+05
 0.32499995E+01  0.42686E+05
 0.32999997E+01  0.41800E+05
 0.33499999E+01  0.41662E+05
 0.33999996E+01  0.41785E+05
 0.34499998E+01  0.42282E+05
 0.34999995E+01  0.42729E+05
 0.35499997E+01  0.42854E+05
 0.35999994E+01  0.43086E+05
 0.36499996E+01  0.43404E+05
 0.36999998E+01  0.43327E+05
 0.37499995E+01  0.42179E+05
 0.37999997E+01  0.39687E+05
 0.38499994E+01  0.36366E+05
 0.38999996E+01  0.32420E+05
 0.39499998E+01  0.27780E+05
 0.39999995E+01  0.22542E+05
 0.40499997E+01  0.16218E+05
 0.40999994E+01  0.94974E+04
 0.41499996E+01  0.22134E+04
 0.41999998E+01 -0.53201E+04
 0.42499995E+01 -0.12362E+05
 0.42999997E+01 -0.18517E+05
 0.43499994E+01 -0.23628E+05
 0.43999996E+01 -0.27998E+05
 0.44499998E+01 -0.31541E+05
 0.44999995E+01 -0.34401E+05
 0.45499997E+01 -0.36779E+05
 0.45999994E+01 -0.38858E+05
 0.46499996E+01 -0.40272E+05
 0.46999998E+01 -0.40685E+05
 0.47499995E+01 -0.39300E+05
 0.47999997E+01 -0.35757E+05
 0.48499994E+01 -0.30495E+05
 0.48999996E+01 -0.24141E+05
 0.49499998E+01 -0.16945E+05
 0.49999995E+01 -0.95198E+04
 0.50499997E+01 -0.18511E+04
 0.50999994E+01  0.62981E+04
 0.51499996E+01  0.14542E+05
 0.51999998E+01  0.22745E+05
 0.52499995E+01  0.30057E+05
 0.52999997E+01  0.36839E+05
 0.53499994E+01  0.42637E+05
 0.53999996E+01  0.46933E+05
 0.54499993E+01  0.49677E+05
 0.54999995E+01  0.50335E+05
 0.55499997E+01  0.48909E+05
 0.55999994E+01  0.45910E+05
 0.56499996E+01  0.42102E+05
 0.56999993E+01  0.37671E+05
 0.57499995E+01  0.33771E+05
 0.57999997E+01  0.30238E+05
 0.58499994E+01  0.27126E+05
 0.58999996E+01  0.24523E+05
 0.59499993E+01  0.22170E+05
 0.59999995E+01  0.19699E+05
 0.60499992E+01  0.17263E+05
 0.60999994E+01  0.14987E+05
 0.61499996E+01  0.12785E+05
 0.61999998E+01  0.11343E+05
 0.62499990E+01  0.10555E+05
 0.62999992E+01  0.10553E+05
 0.63499994E+01  0.10890E+05
 0.63999996E+01  0.11058E+05
 0.64499998E+01  0.10478E+05
 0.64999990E+01  0.94271E+04
 0.65499992E+01  0.86659E+04
 0.65999994E+01  0.86875E+04
 0.66499996E+01  0.96706E+04
 0.66999998E+01  0.11245E+05
 0.67499990E+01  0.12882E+05
 0.67999992E+01  0.14271E+05
 0.68499994E+01  0.15065E+05
 0.68999996E+01  0.15351E+05
 0.69499998E+01  0.15213E+05
 0.69999990E+01  0.14876E+05
 0.70499992E+01  0.14321E+05
 0.70999994E+01  0.13298E+05
 0.71499996E+01  0.11972E+05
 0.71999998E+01  0.10323E+05
 0.72499990E+01  0.82442E+04
 0.72999992E+01  0.57150E+04
 0.73499994E+01  0.26097E+04
 0.73999996E+01 -0.13198E+04
 0.74499998E+01 -0.56006E+04
 0.74999990E+01 -0.10376E+05
 0.75499992E+01 -0.15472E+05
 0.75999994E+01 -0.20997E+05
 0.76499996E+01 -0.26716E+05
 0.76999998E+01 -0.32263E+05
 0.77499990E+01 -0.37775E+05
 0.77999992E+01 -0.42660E+05
 0.78499994E+01 -0.47587E+05
 0.78999996E+01 -0.52583E+05
 0.79499998E+01 -0.57375E+05
 0.79999990E+01 -0.61752E+05
 0.80499992E+01 -0.65297E+05
 0.80999994E+01 -0.67612E+05
 0.81499996E+01 -0.68388E+05
 0.81999998E+01 -0.67371E+05
 0.82499990E+01 -0.64476E+05
 0.82999992E+01 -0.59771E+05
 0.83499994E+01 -0.52698E+05
 0.83999996E+01 -0.44293E+05
 0.84499998E+01 -0.35299E+05
 0.84999990E+01 -0.26115E+05
 0.85499992E+01 -0.17223E+05
 0.85999994E+01 -0.80958E+04
 0.86499996E+01  0.16678E+04
 0.86999998E+01  0.12066E+05
 0.87499990E+01  0.22584E+05
 0.87999992E+01  0.32920E+05
 0.88499994E+01  0.42583E+05
 0.88999996E+01  0.51655E+05
 0.89499998E+01  0.60676E+05
 0.89999990E+01  0.69469E+05
 0.90499992E+01  0.77846E+05
 0.90999994E+01  0.85772E+05
 0.91499996E+01  0.93315E+05
 0.91999989E+01  0.10033E+06
 0.92499990E+01  0.10627E+06
 0.92999992E+01  0.11069E+06
 0.93499994E+01  0.11326E+06
 0.93999996E+01  0.11402E+06
 0.94499989E+01  0.11301E+06
 0.94999990E+01  0.11085E+06
 0.95499992E+01  0.10751E+06
 0.95999994E+01  0.10287E+06
 0.96499996E+01  0.97145E+05
 0.96999989E+01  0.90462E+05
 0.97499990E+01  0.83222E+05
 0.97999992E+01  0.75777E+05
 0.98499994E+01  0.68403E+05
 0.98999996E+01  0.60395E+05
 0.99499989E+01  0.51643E+05
 0.99999990E+01  0.42091E+05
 0.10049999E+02  0.32353E+05
 0.10099999E+02  0.22949E+05
 0.10150000E+02  0.13793E+05
 0.10199999E+02  0.50325E+04
 0.10249999E+02 -0.32002E+04
 0.10299999E+02 -0.10305E+05
 0.10349999E+02 -0.15927E+05
 0.10400000E+02 -0.19981E+05
 0.10449999E+02 -0.22399E+05
 0.10499999E+02 -0.23661E+05
 0.10549999E+02 -0.23671E+05
 0.10599999E+02 -0.22055E+05
 0.10650000E+02 -0.19221E+05
 0.10699999E+02 -0.15536E+05
 0.10749999E+02 -0.11465E+05
 0.10799999E+02 -0.72967E+04
 0.10849999E+02 -0.32140E+04
 0.10900000E+02  0.84767E+03
 0.10949999E+02  0.46676E+04
 0.10999999E+02  0.77532E+04
 0.11049999E+02  0.99878E+04
 0.11099999E+02  0.11767E+05
 0.11150000E+02  0.12935E+05
 0.11199999E+02  0.13849E+05
 0.11249999E+02  0.14214E+05
 0.11299999E+02  0.13849E+05
 0.11349999E+02  0.13234E+05
 0.11400000E+02  0.12512E+05
 0.11449999E+02  0.11446E+05
 0.11499999E+02  0.96919E+04
 0.11549999E+02  0.72651E+04
 0.11599999E+02  0.38257E+04
 0.11650000E+02 -0.77681E+03
 0.11699999E+02 -0.61654E+04
 0.11749999E+02 -0.11935E+05
 0.11799999E+02 -0.17645E+05
 0.11849999E+02 -0.22998E+05
 0.11900000E+02 -0.27850E+05
 0.11949999E+02 -0.32235E+05
 0.11999999E+02 -0.36373E+05
 0.12049999E+02 -0.40100E+05
 0.12099999E+02 -0.43883E+05
 0.12150000E+02 -0.47697E+05
 0.12199999E+02 -0.51937E+05
 0.12249999E+02 -0.56204E+05
 0.12299999E+02 -0.60460E+05
 0.12349999E+02 -0.64390E+05
 0.12400000E+02 -0.67535E+05
 0.12449999E+02 -0.69529E+05
 0.12499999E+02 -0.69976E+05
 0.12549999E+02 -0.68641E+05
 0.12599999E+02 -0.65387E+05
 0.12649999E+02 -0.60792E+05
 0.12699999E+02 -0.55100E+05
 0.12749999E+02 -0.49262E+05
 0.12799999E+02 -0.43047E+05
 0.12849999E+02 -0.36299E+05
 0.12899999E+02 -0.28730E+05
 0.12949999E+02 -0.20289E+05
 0.12999999E+02 -0.10364E+05
 0.13049999E+02  0.16203E+04
 0.13099999E+02  0.14647E+05
 0.13149999E+02  0.27933E+05
 0.13199999E+02  0.40528E+05
 0.13249999E+02  0.51702E+05
 0.13299999E+02  0.61126E+05
 0.13349999E+02  0.68877E+05
 0.13399999E+02  0.74820E+05
 0.13449999E+02  0.78967E+05
 0.13499999E+02  0.81488E+05
 0.13549999E+02  0.82341E+05
 0.13599999E+02  0.82577E+05
 0.13649999E+02  0.82343E+05
 0.13699999E+02  0.81331E+05
 0.13749999E+02  0.79451E+05
 0.13799999E+02  0.76954E+05
 0.13849999E+02  0.74542E+05
 0.13899999E+02  0.71879E+05
 0.13949999E+02  0.69310E+05
 0.13999999E+02  0.66754E+05
 0.14049999E+02  0.64537E+05
 0.14099998E+02  0.62627E+05
 0.14150000E+02  0.60818E+05
 0.14199999E+02  0.59461E+05
 0.14249998E+02  0.57895E+05
 0.14299999E+02  0.56456E+05
 0.14349998E+02  0.54941E+05
 0.14400000E+02  0.53511E+05
 0.14449999E+02  0.52404E+05
 0.14499998E+02  0.50780E+05
 0.14549999E+02  0.48403E+05
 0.14599998E+02  0.45409E+05
 0.14650000E+02  0.42414E+05
 0.14699999E+02  0.39316E+05
 0.14749998E+02  0.36375E+05
 0.14799999E+02  0.33389E+05
 0.14849998E+02  0.29997E+05
 0.14900000E+02  0.26546E+05
 0.14949999E+02  0.22674E+05
 0.14999998E+02  0.18704E+05
 0.15049999E+02  0.14352E+05
 0.15099998E+02  0.89090E+04
 0.15150000E+02  0.25820E+04
 0.15199999E+02 -0.36517E+04
 0.15249998E+02 -0.90777E+04
 0.15299999E+02 -0.13740E+05
 0.15349998E+02 -0.17510E+05
 0.15400000E+02 -0.20791E+05
 0.15449999E+02 -0.23496E+05
 0.15499998E+02 -0.25276E+05
 0.15549999E+02 -0.25900E+05
 0.15599998E+02 -0.25108E+05
 0.15650000E+02 -0.23310E+05
 0.15699999E+02 -0.21251E+05
 0.15749998E+02 -0.19620E+05
 0.15799999E+02 -0.18010E+05
 0.15849998E+02 -0.16181E+05
 0.15900000E+02 -0.14335E+05
 0.15949999E+02 -0.12187E+05
 0.15999998E+02 -0.96613E+04
 0.16049999E+02 -0.64331E+04
 0.16099998E+02 -0.24160E+04
 0.16150000E+02  0.19461E+04
 0.16199999E+02  0.66181E+04
 0.16249998E+02  0.11441E+05
 0.16299999E+02  0.16287E+05
 0.16349998E+02  0.21551E+05
 0.16400000E+02  0.26994E+05
 0.16449999E+02  0.32192E+05
 0.16499998E+02  0.36554E+05
 0.16549999E+02  0.39791E+05
 0.16599998E+02  0.42116E+05
 0.16650000E+02  0.43965E+05
 0.16699999E+02  0.45826E+05
 0.16749998E+02  0.47268E+05
 0.16799999E+02  0.48052E+05
 0.16849998E+02  0.48028E+05
 0.16900000E+02  0.47469E+05
 0.16949999E+02  0.46228E+05
 0.16999998E+02  0.44261E+05
 0.17049999E+02  0.41382E+05
 0.17099998E+02  0.37164E+05
 0.17150000E+02  0.32252E+05
 0.17199999E+02  0.26597E+05
 0.17249998E+02  0.20496E+05
 0.17299999E+02  0.13535E+05
 0.17349998E+02  0.50473E+04
 0.17400000E+02 -0.46767E+04
 0.17449999E+02 -0.15276E+05
 0.17499998E+02 -0.26594E+05
 0.17549999E+02 -0.37999E+05
 0.17599998E+02 -0.49012E+05
 0.17650000E+02 -0.59727E+05
 0.17699999E+02 -0.69693E+05
 0.17749998E+02 -0.78025E+05
 0.17799999E+02 -0.83715E+05
 0.17849998E+02 -0.86683E+05
 0.17900000E+02 -0.86707E+05
 0.17949999E+02 -0.84248E+05
 0.17999998E+02 -0.79848E+05
 0.18049999E+02 -0.73898E+05
 0.18099998E+02 -0.66677E+05
 0.18150000E+02 -0.57550E+05
 0.18199999E+02 -0.47028E+05
 0.18249998E+02 -0.35342E+05
 0.18299999E+02 -0.22586E+05
 0.18349998E+02 -0.86564E+04
 0.18400000E+02  0.65095E+04
 0.18449999E+02  0.22660E+05
 0.18499998E+02  0.38919E+05
 0.18549999E+02  0.54658E+05
 0.18599998E+02  0.69537E+05
 0.18650000E+02  0.82799E+05
 0.18699999E+02  0.94284E+05
 0.18749998E+02  0.10369E+06
 0.18799999E+02  0.11037E+06
 0.18849998E+02  0.11384E+06
 0.18900000E+02  0.11416E+06
 0.18949999E+02  0.11201E+06
 0.18999998E+02  0.10855E+06
 0.19049999E+02  0.10365E+06
 0.19099998E+02  0.97799E+05
 0.19150000E+02  0.91350E+05
 0.19199999E+02  0.84796E+05
 0.19249998E+02  0.78222E+05
 0.19299999E+02  0.71961E+05
 0.19349998E+02  0.65387E+05
 0.19400000E+02  0.58759E+05
 0.19449999E+02  0.52418E+05
 0.19499998E+02  0.46261E+05
 0.19549999E+02  0.40697E+05
 0.19599998E+02  0.35250E+05
 0.19650000E+02  0.31212E+05
 0.19699999E+02  0.28027E+05
 0.19749998E+02  0.25879E+05
 0.19799999E+02  0.24607E+05
 0.19849998E+02  0.23757E+05
 0.19900000E+02  0.23334E+05
 0.19949999E+02  0.22702E+05
 0.19999998E+02  0.21552E+05
 0.20049999E+02  0.19566E+05
 0.20099998E+02  0.16826E+05
 0.20150000E+02  0.13389E+05
 0.20199999E+02  0.95657E+04
 0.20249998E+02  0.55254E+04
 0.20299999E+02  0.16118E+04
 0.20349998E+02 -0.16178E+04
 0.20399998E+02 -0.40738E+04
 0.20449999E+02 -0.57067E+04
 0.20499998E+02 -0.72036E+04
 0.20549999E+02 -0.88059E+04
 0.20599998E+02 -0.10461E+05
 0.20649998E+02 -0.12703E+05
 0.20699999E+02 -0.15236E+05
 0.20749998E+02 -0.18244E+05
 0.20799999E+02 -0.21466E+05
 0.20849998E+02 -0.25172E+05
 0.20899998E+02 -0.29076E+05
 0.20949999E+02 -0.32268E+05
 0.20999998E+02 -0.34613E+05
 0.21049999E+02 -0.35213E+05
 0.21099998E+02 -0.34548E+05
 0.21149998E+02 -0.32787E+05
 0.21199999E+02 -0.29893E+05
 0.21249998E+02 -0.26444E+05
 0.21299999E+02 -0.22844E+05
 0.21349998E+02 -0.19299E+05
 0.21399998E+02 -0.15572E+05
 0.21449999E+02 -0.11534E+05
 0.21499998E+02 -0.73613E+04
 0.21549999E+02 -0.29529E+04
 0.21599998E+02  0.17374E+04
 0.21649998E+02  0.63934E+04
 0.21699999E+02  0.11180E+05
 0.21749998E+02  0.15361E+05
 0.21799999E+02  0.18794E+05
 0.21849998E+02  0.21699E+05
 0.21899998E+02  0.23917E+05
 0.21949999E+02  0.26582E+05
 0.21999998E+02  0.29717E+05
 0.22049999E+02  0.32795E+05
 0.22099998E+02  0.35128E+05
 0.22149998E+02  0.36620E+05
 0.22199999E+02  0.37431E+05
 0.22249998E+02  0.37524E+05
 0.22299999E+02  0.37367E+05
 0.22349998E+02  0.37178E+05
 0.22399998E+02  0.37153E+05
 0.22449999E+02  0.37204E+05
 0.22499998E+02  0.37633E+05
 0.22549999E+02  0.37808E+05
 0.22599998E+02  0.37919E+05
 0.22649998E+02  0.37435E+05
 0.22699999E+02  0.36912E+05
 0.22749998E+02  0.36188E+05
 0.22799999E+02  0.35265E+05
 0.22849998E+02  0.34584E+05
 0.22899998E+02  0.33586E+05
 0.22949999E+02  0.32821E+05
 0.22999998E+02  0.32125E+05
 0.23049999E+02  0.31373E+05
 0.23099998E+02  0.30015E+05
 0.23149998E+02  0.28048E+05
 0.23199999E+02  0.25588E+05
 0.23249998E+02  0.22681E+05
 0.23299999E+02  0.19070E+05
 0.23349998E+02  0.14912E+05
 0.23399998E+02  0.95908E+04
 0.23449999E+02  0.36340E+04
 0.23499998E+02 -0.22127E+04
 0.23549999E+02 -0.76246E+04
 0.23599998E+02 -0.12690E+05
 0.23649998E+02 -0.18090E+05
 0.23699999E+02 -0.23246E+05
 0.23749998E+02 -0.27743E+05
 0.23799999E+02 -0.31760E+05
 0.23849998E+02 -0.35242E+05
 0.23899998E+02 -0.38072E+05
 0.23949999E+02 -0.40610E+05
 0.23999998E+02 -0.42467E+05
 0.24049999E+02 -0.43692E+05
 0.24099998E+02 -0.44017E+05
 0.24149998E+02 -0.43720E+05
 0.24199999E+02 -0.43371E+05
 0.24249998E+02 -0.42865E+05
 0.24299999E+02 -0.42665E+05
 0.24349998E+02 -0.42351E+05
 0.24399998E+02 -0.41484E+05
 0.24449999E+02 -0.40218E+05
 0.24499998E+02 -0.38432E+05
 0.24549999E+02 -0.36215E+05
 0.24599998E+02 -0.33496E+05
 0.24649998E+02 -0.29954E+05
 0.24699999E+02 -0.25827E+05
 0.24749998E+02 -0.21245E+05
 0.24799999E+02 -0.16400E+05
 0.24849998E+02 -0.10689E+05
 0.24899998E+02 -0.38138E+04
 0.24949999E+02  0.33286E+04
 0.24999998E+02  0.10253E+05
 0.25049999E+02  0.15874E+05
 0.25099998E+02  0.20373E+05
 0.25149998E+02  0.24777E+05
 0.25199999E+02  0.29512E+05
 0.25249998E+02  0.34815E+05
 0.25299999E+02  0.39845E+05
 0.25349998E+02  0.43236E+05
 0.25399998E+02  0.44002E+05
 0.25449999E+02  0.44202E+05
 0.25499998E+02  0.43788E+05
 0.25549999E+02  0.41225E+05
 0.25599998E+02  0.40016E+05
 0.25649998E+02  0.40274E+05
 0.25699999E+02  0.39752E+05
 0.25749998E+02  0.37711E+05
 0.25799999E+02  0.37033E+05
 0.25849998E+02  0.37318E+05
 0.25899998E+02  0.35538E+05
 0.25949999E+02  0.35221E+05
 0.25999998E+02  0.36959E+05
 0.26049999E+02  0.37029E+05
 0.26099998E+02  0.36345E+05
 0.26149998E+02  0.39631E+05
 0.26199999E+02  0.41848E+05
 0.26249998E+02  0.42388E+05
 0.26299999E+02  0.43701E+05
 0.26349998E+02  0.42844E+05
 0.26399998E+02  0.41722E+05
 0.26449999E+02  0.41305E+05
 0.26499998E+02  0.43406E+05
 0.26549999E+02  0.45144E+05
 0.26599998E+02  0.45941E+05
 0.26649998E+02  0.47624E+05
 0.26699999E+02  0.51874E+05
 0.26749998E+02  0.53789E+05
 0.26799999E+02  0.56283E+05
 0.26849998E+02  0.65362E+05
 0.26899998E+02  0.71086E+05
 0.26949999E+02  0.68804E+05
 0.26999998E+02  0.61096E+05
 0.27049997E+02  0.55098E+05
 0.27099998E+02  0.50722E+05
 0.27149998E+02  0.46079E+05
 0.27199999E+02  0.28171E+05
 0.27249998E+02  0.40676E+04
 0.27299997E+02  0.25386E+04
 0.27349998E+02  0.36800E+04
 0.27399998E+02 -0.55156E+04
 0.27449999E+02 -0.92415E+04
 0.27499998E+02 -0.18658E+05
 0.27549997E+02 -0.29305E+05
 0.27599998E+02 -0.38144E+05
 0.27649998E+02 -0.35938E+05
 0.27699999E+02 -0.30483E+05
 0.27749998E+02 -0.47050E+05
 0.27799997E+02 -0.46240E+05
 0.27849998E+02 -0.50105E+05
 0.27899998E+02 -0.76071E+05
 0.27949999E+02 -0.77220E+05
 0.27999998E+02 -0.51241E+05
 0.28049997E+02 -0.46236E+05
 0.28099998E+02 -0.76655E+05
 0.28149998E+02 -0.81023E+05
 0.28199999E+02 -0.76935E+05
 0.28249998E+02 -0.70376E+05
 0.28299997E+02 -0.59065E+05
 0.28349998E+02 -0.73676E+05
 0.28399998E+02 -0.81797E+05
 0.28449999E+02 -0.80708E+05
 0.28499998E+02 -0.61803E+05
 0.28549997E+02 -0.48216E+05
 0.28599998E+02 -0.34575E+05
 0.28649998E+02  0.23668E+04
 0.28699999E+02  0.31560E+04
 0.28749998E+02 -0.14013E+05
 0.28799997E+02 -0.92084E+04
 0.28849998E+02  0.40450E+04
 0.28899998E+02  0.22653E+03
 0.28949999E+02  0.79564E+04
 0.28999998E+02  0.53696E+05
 0.29049997E+02  0.87297E+05
 0.29099998E+02  0.90025E+05
 0.29149998E+02  0.91668E+05
 0.29199999E+02  0.10829E+06
 0.29249998E+02  0.10927E+06
 0.29299997E+02  0.13853E+06
 0.29349998E+02  0.16970E+06
 0.29399998E+02  0.11774E+06
 0.29449999E+02  0.84949E+05
 0.29499998E+02  0.98406E+05
 0.29549997E+02  0.84583E+05
 0.29599998E+02  0.68211E+05
 0.29649998E+02  0.70736E+05
 0.29699999E+02  0.80731E+05
 0.29749998E+02  0.70402E+05
 0.29799997E+02  0.49278E+05
 0.29849998E+02  0.48173E+05
 0.29899998E+02  0.14290E+05
 0.29949999E+02 -0.21370E+05
 0.29999998E+02 -0.33139E+05
 0.30049999E+02 -0.53882E+05
 0.30099998E+02 -0.60172E+05
 0.30149998E+02 -0.68804E+05
 0.30199997E+02 -0.83880E+05
 0.30249996E+02 -0.10616E+06
 0.30299999E+02 -0.10080E+06
 0.30349998E+02 -0.52570E+05
 0.30399998E+02 -0.59345E+05
 0.30449997E+02 -0.64785E+05
 0.30499996E+02 -0.80157E+05
 0.30549999E+02 -0.13391E+06
 0.30599998E+02 -0.20839E+06
 0.30649998E+02 -0.26318E+06
 0.30699997E+02 -0.24544E+06
 0.30749996E+02 -0.25505E+06
 0.30799999E+02 -0.25434E+06
 0.30849998E+02 -0.19312E+06
 0.30899998E+02 -0.14711E+06
 0.30949997E+02 -0.12492E+06
 0.30999996E+02 -0.33370E+05
 0.31049999E+02  0.10166E+04
 0.31099998E+02 -0.51952E+05
 0.31149998E+02  0.19458E+05
 0.31199997E+02  0.16163E+06
 0.31249996E+02  0.20286E+06
 0.31299999E+02  0.21767E+06
 0.31349998E+02  0.25817E+06
 0.31399998E+02  0.25829E+06
 0.31449997E+02  0.25556E+06
 0.31499996E+02  0.29724E+06
 0.31549999E+02  0.29327E+06
 0.31599998E+02  0.23666E+06
 0.31649998E+02  0.22083E+06
 0.31699997E+02  0.20344E+06
 0.31749996E+02  0.17742E+06
 0.31799999E+02  0.19391E+06
 0.31849998E+02  0.22549E+06
 0.31899998E+02  0.19948E+06
 0.31949997E+02  0.18469E+06
 0.31999996E+02  0.19174E+06
 0.32049999E+02  0.16246E+06
 0.32099998E+02  0.12321E+06
 0.32149998E+02  0.58663E+05
 0.32199997E+02 -0.12152E+05
 0.32249996E+02 -0.47117E+05
 0.32299999E+02 -0.38399E+05
 0.32349998E+02 -0.18547E+05
 0.32399998E+02 -0.68772E+05
 0.32449997E+02 -0.16980E+06
 0.32499996E+02 -0.22796E+06
 0.32549999E+02 -0.21699E+06
 0.32599998E+02 -0.20574E+06
 0.32649998E+02 -0.17124E+06
 0.32699997E+02 -0.71362E+05
 0.32749996E+02 -0.46083E+05
 0.32799999E+02 -0.74063E+05
 0.32849998E+02 -0.84155E+05
 0.32899998E+02 -0.16639E+06
 0.32949997E+02 -0.28222E+06
 0.32999996E+02 -0.28739E+06
 0.33049999E+02 -0.23669E+06
 0.33099998E+02 -0.20758E+06
 0.33149998E+02 -0.19061E+06
 0.33199997E+02 -0.19943E+06
 0.33249996E+02 -0.17685E+06
 0.33299999E+02 -0.11799E+06
 0.33349998E+02 -0.12280E+06
 0.33399998E+02 -0.81027E+05
 0.33449997E+02 -0.10795E+05
 0.33499996E+02 -0.55017E+05
 0.33549999E+02 -0.15952E+06
 0.33599998E+02 -0.20505E+06
 0.33649998E+02 -0.15379E+06
 0.33699997E+02 -0.11558E+06
 0.33749996E+02 -0.45499E+05
 0.33799999E+02 -0.13560E+05
 0.33849998E+02 -0.31558E+05
 0.33899998E+02 -0.13815E+05
 0.33949997E+02 -0.97401E+04
 0.33999996E+02  0.23871E+05
 0.34049999E+02  0.48260E+05
 0.34099998E+02  0.30247E+05
 0.34149998E+02  0.36873E+05
 0.34199997E+02  0.12290E+06
 0.34249996E+02  0.21836E+06
 0.34299999E+02  0.28096E+06
 0.34349998E+02  0.35281E+06
 0.34399998E+02  0.42630E+06
 0.34449997E+02  0.44516E+06
 0.34499996E+02  0.47706E+06
 0.34549999E+02  0.55372E+06
 0.34599998E+02  0.51832E+06
 0.34649998E+02  0.43939E+06
 0.34699997E+02  0.42511E+06
 0.34749996E+02  0.35216E+06
 0.34799999E+02  0.18556E+06
 0.34849998E+02  0.48954E+05
 0.34899998E+02 -0.36590E+04
 0.34949997E+02 -0.36909E+05
 0.34999996E+02 -0.29862E+05
 0.35049999E+02  0.17774E+05
 0.35099998E+02 -0.50505E+05
 0.35149998E+02 -0.95089E+05
 0.35199997E+02 -0.79404E+05
 0.35249996E+02 -0.11326E+06
 0.35299999E+02 -0.14900E+06
 0.35349998E+02 -0.12351E+06
 0.35399998E+02 -0.72956E+05
 0.35449997E+02 -0.58732E+05
 0.35499996E+02 -0.53460E+05
 0.35549999E+02 -0.92811E+05
 0.35599998E+02 -0.18430E+06
 0.35649998E+02 -0.26149E+06
 0.35699997E+02 -0.28528E+06
 0.35749996E+02 -0.23991E+06
 0.35799999E+02 -0.15329E+06
 0.35849998E+02 -0.96486E+05
 0.35899998E+02 -0.54247E+05
 0.35949997E+02 -0.62253E+05
 0.35999996E+02 -0.11798E+06
 0.36049999E+02 -0.15346E+06
 0.36099998E+02 -0.15219E+06
 0.36149998E+02 -0.12068E+06
 0.36199997E+02 -0.54919E+05
 0.36249996E+02  0.44527E+05
 0.36299999E+02  0.11643E+06
 0.36349998E+02  0.10376E+06
 0.36399998E+02  0.31439E+05
 0.36449997E+02 -0.61823E+05
 0.36499996E+02 -0.82179E+05
 0.36549999E+02 -0.37076E+04
 0.36599998E+02  0.22998E+05
 0.36649998E+02 -0.51203E+05
 0.36699997E+02 -0.80626E+05
 0.36749996E+02 -0.48550E+05
 0.36799999E+02  0.24383E+05
 0.36849998E+02  0.33004E+05
 0.36899998E+02 -0.46547E+05
 0.36949997E+02 -0.28762E+05
 0.36999996E+02  0.17571E+04
 0.37049999E+02  0.34787E+05
 0.37099998E+02  0.52309E+05
 0.37149998E+02  0.22551E+05
 0.37199997E+02  0.29092E+04
 0.37249996E+02  0.30403E+04
 0.37299999E+02 -0.73951E+04
 0.37349998E+02 -0.80122E+05
 0.37399998E+02 -0.14057E+06
 0.37449997E+02 -0.16261E+06
 0.37499996E+02 -0.15062E+06
 0.37549999E+02 -0.99193E+05
 0.37599998E+02 -0.71946E+05
 0.37649998E+02  0.16516E+05
 0.37699997E+02  0.19408E+06
 0.37749996E+02  0.29972E+06
 0.37799999E+02  0.32716E+06
 0.37849998E+02  0.27762E+06
 0.37899998E+02  0.22814E+06
 0.37949997E+02  0.24778E+06
 0.37999996E+02  0.26869E+06
 0.38049999E+02  0.24617E+06
 0.38099998E+02  0.18820E+06
 0.38149998E+02  0.15577E+06
 0.38199997E+02  0.12905E+06
 0.38249996E+02  0.54058E+05
 0.38299999E+02 -0.86671E+04
 0.38349998E+02  0.11331E+05
 0.38399998E+02 -0.16896E+05
 0.38449997E+02 -0.85112E+05
 0.38499996E+02 -0.10355E+06
 0.38549999E+02 -0.10093E+06
 0.38599998E+02 -0.47480E+05
 0.38649998E+02 -0.31339E+05
 0.38699997E+02 -0.12422E+06
 0.38749996E+02 -0.22838E+06
 0.38799999E+02 -0.30159E+06
 0.38849998E+02 -0.33723E+06
 0.38899998E+02 -0.32555E+06
 0.38949997E+02 -0.32415E+06
 0.38999996E+02 -0.33763E+06
 0.39049999E+02 -0.33107E+06
 0.39099998E+02 -0.27041E+06
 0.39149998E+02 -0.16736E+06
 0.39199997E+02 -0.66671E+05
 0.39249996E+02  0.55455E+04
 0.39299999E+02  0.10316E+06
 0.39349998E+02  0.22926E+06
 0.39399998E+02  0.34341E+06
 0.39449997E+02  0.46348E+06
 0.39499996E+02  0.45798E+06
 0.39549999E+02  0.36673E+06
 0.39599998E+02  0.32742E+06
 0.39649998E+02  0.28951E+06
 0.39699997E+02  0.22189E+06
 0.39749996E+02  0.18663E+06
 0.39799999E+02  0.22981E+06
 0.39849998E+02  0.22493E+06
 0.39899998E+02  0.12684E+06
 0.39949997E+02  0.14529E+05
 0.39999996E+02 -0.10688E+06
 0.40049999E+02 -0.19430E+06
 0.40099998E+02 -0.23641E+06
 0.40149998E+02 -0.25673E+06
 0.40199997E+02 -0.22405E+06
 0.40249996E+02 -0.19251E+06
 0.40299999E+02 -0.17290E+06
 0.40349998E+02 -0.15158E+06
 0.40399998E+02 -0.10473E+06
 0.40449997E+02 -0.23242E+05
 0.40499996E+02 -0.91229E+04
 0.40549999E+02 -0.27673E+05
 0.40599998E+02  0.31059E+05
 0.40649998E+02  0.16657E+06
 0.40699997E+02  0.23613E+06
 0.40749996E+02  0.20689E+06
 0.40799999E+02  0.18243E+06
 0.40849998E+02  0.21334E+06
 0.40899998E+02  0.28665E+06
 0.40949997E+02  0.37379E+06
 0.40999996E+02  0.46379E+06
 0.41049999E+02  0.44213E+06
 0.41099998E+02  0.28767E+06
 0.41149998E+02  0.16573E+06
 0.41199997E+02  0.17239E+06
 0.41249996E+02  0.22823E+06
 0.41299999E+02  0.22515E+06
 0.41349998E+02  0.18668E+06
 0.41399998E+02  0.12078E+06
 0.41449997E+02  0.53381E+05
 0.41499996E+02  0.32544E+05
 0.41549999E+02 -0.88064E+04
 0.41599998E+02 -0.61431E+05
 0.41649998E+02 -0.16351E+06
 0.41699997E+02 -0.31313E+06
 0.41749996E+02 -0.39499E+06
 0.41799999E+02 -0.40704E+06
 0.41849998E+02 -0.36765E+06
 0.41899998E+02 -0.32124E+06
 0.41949997E+02 -0.27151E+06
 0.41999996E+02 -0.23173E+06
 0.42049999E+02 -0.15571E+06
 0.42099998E+02 -0.78559E+05
 0.42149998E+02 -0.98788E+05
 0.42199997E+02 -0.13923E+06
 0.42249996E+02 -0.11468E+06
 0.42299999E+02 -0.70425E+05
 0.42349998E+02 -0.60699E+05
 0.42399998E+02 -0.27347E+05
 0.42449997E+02  0.15572E+05
 0.42499996E+02  0.68220E+05
 0.42549999E+02  0.89209E+05
 0.42599998E+02  0.51387E+05
 0.42649998E+02  0.47281E+05
 0.42699997E+02  0.95371E+05
 0.42749996E+02  0.12420E+06
 0.42799995E+02  0.11933E+06
 0.42849998E+02  0.12386E+06
 0.42899998E+02  0.16464E+06
 0.42949997E+02  0.16397E+06
 0.42999996E+02  0.92290E+05
 0.43049995E+02  0.50810E+05
 0.43099998E+02  0.23849E+05
 0.43149998E+02 -0.14033E+05
 0.43199997E+02 -0.15215E+05
 0.43249996E+02  0.68104E+04
 0.43299995E+02 -0.21351E+04
 0.43349998E+02  0.42743E+05
 0.43399998E+02  0.18743E+06
 0.43449997E+02  0.38171E+06
 0.43499996E+02  0.54299E+06
 0.43549995E+02  0.67183E+06
 0.43599998E+02  0.87584E+06
 0.43649998E+02  0.11191E+07
 0.43699997E+02  0.13184E+07
 0.43749996E+02  0.14487E+07
 0.43799995E+02  0.15537E+07
 0.43849998E+02  0.16567E+07
 0.43899998E+02  0.16640E+07
 0.43949997E+02  0.15654E+07
 0.43999996E+02  0.14390E+07
 0.44049995E+02  0.12913E+07
 0.44099998E+02  0.11434E+07
 0.44149998E+02  0.10213E+07
 0.44199997E+02  0.10012E+07
 0.44249996E+02  0.10843E+07
 0.44299995E+02  0.11515E+07
 0.44349998E+02  0.10985E+07
 0.44399998E+02  0.10304E+07
 0.44449997E+02  0.10936E+07
 0.44499996E+02  0.11588E+07
 0.44549995E+02  0.11317E+07
 0.44599998E+02  0.10509E+07
 0.44649998E+02  0.80164E+06
 0.44699997E+02  0.30386E+06
 0.44749996E+02 -0.33877E+06
 0.44799995E+02 -0.10934E+07
 0.44849998E+02 -0.17084E+07
 0.44899998E+02 -0.20623E+07
 0.44949997E+02 -0.22127E+07
 0.44999996E+02 -0.21581E+07
 0.45049995E+02 -0.19118E+07
 0.45099998E+02 -0.15521E+07
 0.45149998E+02 -0.11688E+07
 0.45199997E+02 -0.78384E+06
 0.45249996E+02 -0.52162E+06
 0.45299995E+02 -0.63119E+06
 0.45349998E+02 -0.10604E+07
 0.45399998E+02 -0.14166E+07
 0.45449997E+02 -0.16594E+07
 0.45499996E+02 -0.17817E+07
 0.45549995E+02 -0.19166E+07
 0.45599998E+02 -0.22666E+07
 0.45649998E+02 -0.24342E+07
 0.45699997E+02 -0.20459E+07
 0.45749996E+02 -0.13222E+07
 0.45799995E+02 -0.56682E+06
 0.45849998E+02  0.98234E+05
 0.45899998E+02  0.54394E+06
 0.45949997E+02  0.74598E+06
 0.45999996E+02  0.11653E+07
 0.46049995E+02  0.16478E+07
 0.46099998E+02  0.14768E+07
 0.46149998E+02  0.76359E+06
 0.46199997E+02  0.17439E+05
 0.46249996E+02 -0.37775E+06
 0.46299995E+02 -0.35355E+06
 0.46349998E+02  0.71081E+05
 0.46399998E+02  0.57734E+06
 0.46449997E+02  0.79020E+06
 0.46499996E+02  0.97042E+06
 0.46549995E+02  0.13582E+07
 0.46599998E+02  0.18631E+07
 0.46649998E+02  0.20822E+07
 0.46699997E+02  0.17512E+07
 0.46749996E+02  0.13043E+07
 0.46799995E+02  0.13244E+07
 0.46849998E+02  0.18696E+07
 0.46899998E+02  0.23557E+07
 0.46949997E+02  0.24872E+07
 0.46999996E+02  0.22575E+07
 0.47049995E+02  0.18442E+07
 0.47099998E+02  0.16843E+07
 0.47149998E+02  0.17242E+07
 0.47199997E+02  0.17908E+07
 0.47249996E+02  0.14891E+07
 0.47299995E+02  0.76038E+06
 0.47349998E+02  0.32428E+06
 0.47399998E+02  0.58113E+06
 0.47449997E+02  0.11362E+07
 0.47499996E+02  0.11328E+07
 0.47549995E+02  0.41229E+06
 0.47599998E+02 -0.51619E+06
 0.47649998E+02 -0.10136E+07
 0.47699997E+02 -0.92536E+06
 0.47749996E+02 -0.75244E+06
 0.47799995E+02 -0.62358E+06
 0.47849998E+02 -0.60661E+06
 0.47899998E+02 -0.72908E+06
 0.47949997E+02 -0.77056E+06
 0.47999996E+02 -0.66731E+06
 0.48049995E+02 -0.72849E+06
 0.48099998E+02 -0.12180E+07
 0.48149998E+02 -0.18501E+07
 0.48199997E+02 -0.24912E+07
 0.48249996E+02 -0.29174E+07
 0.48299995E+02 -0.29129E+07
 0.48349998E+02 -0.27466E+07
 0.48399998E+02 -0.25315E+07
 0.48449997E+02 -0.21190E+07
 0.48499996E+02 -0.17200E+07
 0.48549995E+02 -0.13792E+07
 0.48599998E+02 -0.80170E+06
 0.48649998E+02 -0.40526E+06
 0.48699997E+02 -0.23749E+06
 0.48749996E+02  0.19702E+06
 0.48799995E+02  0.44615E+06
 0.48849998E+02  0.37380E+06
 0.48899998E+02  0.32122E+06
 0.48949997E+02  0.55031E+05
 0.48999996E+02 -0.48977E+06
 0.49049995E+02 -0.12283E+07
 0.49099998E+02 -0.17519E+07
 0.49149998E+02 -0.16270E+07
 0.49199997E+02 -0.99459E+06
 0.49249996E+02 -0.42504E+06
 0.49299995E+02  0.37825E+04
 0.49349998E+02  0.60878E+06
 0.49399998E+02  0.13148E+07
 0.49449997E+02  0.18283E+07
 0.49499996E+02  0.19985E+07
 0.49549995E+02  0.17970E+07
 0.49599998E+02  0.14733E+07
 0.49649998E+02  0.13766E+07
 0.49699997E+02  0.13377E+07
 0.49749996E+02  0.15669E+07
 0.49799995E+02  0.18132E+07
 0.49849998E+02  0.16015E+07
 0.49899998E+02  0.13150E+07
 0.49949997E+02  0.11255E+07
 0.49999996E+02  0.96164E+06
 0.50049995E+02  0.87015E+06
 0.50099998E+02  0.94891E+06
 0.50149998E+02  0.10107E+07
 0.50199997E+02  0.88401E+06
 0.50249996E+02  0.58597E+06
 0.50299995E+02  0.29947E+06
 0.50349998E+02  0.27206E+06
 0.50399998E+02  0.32852E+06
 0.50449997E+02  0.21870E+06
 0.50499996E+02  0.88457E+05
 0.50549995E+02 -0.10187E+06
 0.50599998E+02 -0.55829E+06
 0.50649998E+02 -0.10210E+07
 0.50699997E+02 -0.13787E+07
 0.50749996E+02 -0.15105E+07
 0.50799995E+02 -0.13846E+07
 0.50849998E+02 -0.11423E+07
 0.50899998E+02 -0.98868E+06
 0.50949997E+02 -0.10459E+07
 0.50999996E+02 -0.12846E+07
 0.51049995E+02 -0.15825E+07
 0.51099998E+02 -0.17384E+07
 0.51149998E+02 -0.18491E+07
 0.51199997E+02 -0.18444E+07
 0.51249996E+02 -0.18066E+07
 0.51299995E+02 -0.18391E+07
 0.51349998E+02 -0.19086E+07
 0.51399998E+02 -0.19753E+07
 0.51449997E+02 -0.19468E+07
 0.51499996E+02 -0.19027E+07
 0.51549995E+02 -0.18046E+07
 0.51599998E+02 -0.16219E+07
 0.51649998E+02 -0.15322E+07
 0.51699997E+02 -0.15901E+07
 0.51749996E+02 -0.15499E+07
 0.51799995E+02 -0.13386E+07
 0.51849998E+02 -0.10764E+07
 0.51899998E+02 -0.76648E+06
 0.51949997E+02 -0.59432E+06
 0.51999996E+02 -0.56354E+06
 0.52049995E+02 -0.47029E+06
 0.52099998E+02 -0.40287E+06
 0.52149998E+02 -0.13336E+06
 0.52199997E+02  0.47044E+06
 0.52249996E+02  0.88274E+06
 0.52299995E+02  0.79365E+06
 0.52349998E+02  0.43842E+06
 0.52399998E+02  0.85916E+05
 0.52449997E+02 -0.15095E+06
 0.52499996E+02 -0.19540E+06
 0.52549995E+02 -0.41461E+05
 0.52599998E+02  0.37468E+06
 0.52649998E+02  0.81339E+06
 0.52699997E+02  0.94745E+06
 0.52749996E+02  0.91445E+06
 0.52799995E+02  0.83819E+06
 0.52849998E+02  0.51838E+06
 0.52899998E+02 -0.11156E+05
 0.52949997E+02 -0.42684E+06
 0.52999996E+02 -0.62574E+06
 0.53049995E+02 -0.64601E+06
 0.53099998E+02 -0.42337E+06
 0.53149998E+02 -0.94749E+05
 0.53199997E+02  0.14245E+05
 0.53249996E+02 -0.69267E+05
 0.53299995E+02 -0.67767E+05
 0.53349998E+02  0.17019E+06
 0.53399998E+02  0.40541E+06
 0.53449997E+02  0.49216E+06
 0.53499996E+02  0.39734E+06
 0.53549995E+02  0.26211E+06
 0.53599998E+02  0.27732E+06
 0.53649998E+02  0.32436E+06
 0.53699997E+02  0.23787E+06
 0.53749996E+02 -0.13155E+06
 0.53799995E+02 -0.70911E+06
 0.53849998E+02 -0.12585E+07
 0.53899998E+02 -0.16726E+07
 0.53949997E+02 -0.19734E+07
 0.53999996E+02 -0.20668E+07
 0.54049995E+02 -0.18891E+07
 0.54099998E+02 -0.15673E+07
 0.54149998E+02 -0.12907E+07
 0.54199997E+02 -0.10083E+07
 0.54249996E+02 -0.78332E+06
 0.54299995E+02 -0.84969E+06
 0.54349998E+02 -0.11274E+07
 0.54399998E+02 -0.14323E+07
 0.54449997E+02 -0.16521E+07
 0.54499996E+02 -0.16589E+07
 0.54549995E+02 -0.13009E+07
 0.54599998E+02 -0.71532E+06
 0.54649998E+02 -0.16306E+06
 0.54699997E+02  0.32229E+06
 0.54749996E+02  0.76360E+06
 0.54799995E+02  0.10316E+07
 0.54849998E+02  0.10838E+07
 0.54899998E+02  0.10942E+07
 0.54949997E+02  0.12103E+07
 0.54999996E+02  0.14674E+07
 0.55049995E+02  0.16959E+07
 0.55099998E+02  0.18020E+07
 0.55149998E+02  0.17583E+07
 0.55199997E+02  0.15239E+07
 0.55249996E+02  0.11826E+07
 0.55299995E+02  0.86307E+06
 0.55349998E+02  0.73795E+06
 0.55399998E+02  0.72883E+06
 0.55449997E+02  0.63018E+06
 0.55499996E+02  0.44901E+06
 0.55549995E+02  0.22439E+06
 0.55599998E+02  0.72123E+05
 0.55649998E+02  0.17431E+06
 0.55699997E+02  0.47412E+06
 0.55749996E+02  0.79631E+06
 0.55799995E+02  0.94421E+06
 0.55849995E+02  0.89844E+06
 0.55899998E+02  0.78822E+06
 0.55949997E+02  0.62215E+06
 0.55999996E+02  0.43935E+06
 0.56049995E+02  0.29166E+06
 0.56099995E+02  0.26118E+06
 0.56149998E+02  0.40734E+06
 0.56199997E+02  0.67581E+06
 0.56249996E+02  0.10807E+07
 0.56299995E+02  0.15713E+07
 0.56349995E+02  0.18572E+07
 0.56399998E+02  0.18732E+07
 0.56449997E+02  0.18390E+07
 0.56499996E+02  0.17876E+07
 0.56549995E+02  0.16370E+07
 0.56599995E+02  0.14167E+07
 0.56649998E+02  0.11246E+07
 0.56699997E+02  0.74938E+06
 0.56749996E+02  0.36951E+06
 0.56799995E+02  0.89676E+05
 0.56849995E+02 -0.44521E+05
 0.56899998E+02 -0.13937E+06
 0.56949997E+02 -0.29864E+06
 0.56999996E+02 -0.47296E+06
 0.57049995E+02 -0.56442E+06
 0.57099995E+02 -0.58017E+06
 0.57149998E+02 -0.67329E+06
 0.57199997E+02 -0.85937E+06
 0.57249996E+02 -0.10447E+07
 0.57299995E+02 -0.11040E+07
 0.57349995E+02 -0.93939E+06
 0.57399998E+02 -0.65407E+06
 0.57449997E+02 -0.34107E+06
 0.57499996E+02  0.30127E+05
 0.57549995E+02  0.34584E+06
 0.57599995E+02  0.40778E+06
 0.57649998E+02  0.28256E+06
 0.57699997E+02  0.10248E+06
 0.57749996E+02 -0.44544E+05
 0.57799995E+02 -0.14975E+06
 0.57849995E+02 -0.24503E+06
 0.57899998E+02 -0.30993E+06
 0.57949997E+02 -0.24659E+06
 0.57999996E+02 -0.50605E+05
 0.58049995E+02  0.19501E+06
 0.58099995E+02  0.39246E+06
 0.58149998E+02  0.36312E+06
 0.58199997E+02  0.66450E+05
 0.58249996E+02 -0.34210E+06
 0.58299995E+02 -0.67068E+06
 0.58349995E+02 -0.78866E+06
 0.58399998E+02 -0.64456E+06
 0.58449997E+02 -0.33726E+06
 0.58499996E+02  0.84042E+05
 0.58549995E+02  0.64079E+06
 0.58599995E+02  0.12325E+07
 0.58649998E+02  0.17261E+07
 0.58699997E+02  0.20443E+07
 0.58749996E+02  0.21325E+07
 0.58799995E+02  0.20367E+07
 0.58849995E+02  0.19366E+07
 0.58899998E+02  0.18501E+07
 0.58949997E+02  0.16720E+07
 0.58999996E+02  0.14707E+07
 0.59049995E+02  0.13453E+07
 0.59099995E+02  0.12729E+07
 0.59149998E+02  0.11419E+07
 0.59199997E+02  0.93541E+06
 0.59249996E+02  0.69230E+06
 0.59299995E+02  0.43715E+06
 0.59349995E+02  0.24062E+06
 0.59399998E+02  0.16409E+06
 0.59449997E+02  0.21690E+06
 0.59499996E+02  0.32871E+06
 0.59549995E+02  0.44835E+06
 0.59599995E+02  0.54343E+06
 0.59649998E+02  0.58051E+06
 0.59699997E+02  0.50239E+06
 0.59749996E+02  0.29940E+06
 0.59799995E+02 -0.76991E+04
 0.59849995E+02 -0.32079E+06
 0.59899998E+02 -0.60517E+06
 0.59949997E+02 -0.80436E+06
 0.59999996E+02 -0.83172E+06
 0.60049995E+02 -0.80327E+06
 0.60099995E+02 -0.80961E+06
 0.60149998E+02 -0.87448E+06
 0.60199997E+02 -0.95628E+06
 0.60249996E+02 -0.98572E+06
 0.60299995E+02 -0.88942E+06
 0.60349995E+02 -0.71139E+06
 0.60399998E+02 -0.53680E+06
 0.60449997E+02 -0.33393E+06
 0.60499996E+02 -0.88727E+05
 0.60549995E+02  0.62032E+05
 0.60599995E+02  0.84042E+04
 0.60649998E+02 -0.25092E+06
 0.60699997E+02 -0.58409E+06
 0.60749996E+02 -0.87320E+06
 0.60799995E+02 -0.11118E+07
 0.60849995E+02 -0.12585E+07
 0.60899998E+02 -0.13029E+07
 0.60949997E+02 -0.12358E+07
 0.60999996E+02 -0.10779E+07
 0.61049995E+02 -0.86910E+06
 0.61099995E+02 -0.66602E+06
 0.61149998E+02 -0.49741E+06
 0.61199997E+02 -0.32135E+06
 0.61249996E+02 -0.11337E+06
 0.61299995E+02  0.65164E+05
 0.61349995E+02  0.14738E+06
 0.61399998E+02  0.16621E+06
 0.61449997E+02  0.13034E+06
 0.61499996E+02  0.17856E+05
 0.61549995E+02 -0.97382E+05
 0.61599995E+02 -0.19544E+06
 0.61649998E+02 -0.27227E+06
 0.61699997E+02 -0.27224E+06
 0.61749996E+02 -0.15239E+06
 0.61799995E+02  0.77438E+05
 0.61849995E+02  0.30965E+06
 0.61899998E+02  0.47135E+06
 0.61949997E+02  0.57550E+06
 0.61999996E+02  0.64186E+06
 0.62049995E+02  0.66750E+06
 0.62099998E+02  0.68710E+06
 0.62149994E+02  0.69086E+06
 0.62199997E+02  0.58953E+06
 0.62249992E+02  0.39978E+06
 0.62299995E+02  0.20996E+06
 0.62349998E+02  0.48717E+05
 0.62399994E+02 -0.74659E+05
 0.62449997E+02 -0.16782E+06
 0.62499992E+02 -0.21470E+06
 0.62549995E+02 -0.16769E+06
 0.62599998E+02 -0.35426E+05
 0.62649994E+02  0.79316E+05
 0.62699997E+02  0.10316E+06
 0.62749992E+02  0.65372E+05
 0.62799995E+02  0.56496E+04
 0.62849998E+02 -0.36382E+05
 0.62899994E+02 -0.32055E+05
 0.62949997E+02 -0.16111E+05
 0.62999992E+02 -0.27545E+05
 0.63049995E+02 -0.33981E+05
 0.63099998E+02 -0.16611E+05
 0.63149994E+02 -0.12221E+05
 0.63199997E+02 -0.22410E+05
 0.63249992E+02  0.16521E+05
 0.63299995E+02  0.15420E+06
 0.63349998E+02  0.31100E+06
 0.63399994E+02  0.41489E+06
 0.63449997E+02  0.45386E+06
 0.63499992E+02  0.36402E+06
 0.63549995E+02  0.14493E+06
 0.63599998E+02 -0.13064E+06
 0.63649994E+02 -0.40129E+06
 0.63699997E+02 -0.63237E+06
 0.63749992E+02 -0.81194E+06
 0.63799995E+02 -0.95255E+06
 0.63849998E+02 -0.10588E+07
 0.63899994E+02 -0.11182E+07
 0.63949997E+02 -0.11640E+07
 0.63999992E+02 -0.12726E+07
 0.64049995E+02 -0.14448E+07
 0.64099998E+02 -0.15932E+07
 0.64149994E+02 -0.16522E+07
 0.64199997E+02 -0.15631E+07
 0.64249992E+02 -0.13052E+07
 0.64299995E+02 -0.94202E+06
 0.64349998E+02 -0.55168E+06
 0.64399994E+02 -0.23594E+06
 0.64449997E+02 -0.57853E+05
 0.64499992E+02  0.80104E+04
 0.64549995E+02  0.14828E+05
 0.64599998E+02  0.52037E+05
 0.64649994E+02  0.13924E+06
 0.64699997E+02  0.23846E+06
 0.64749992E+02  0.32285E+06
 0.64799995E+02  0.37408E+06
 0.64849998E+02  0.45275E+06
 0.64899994E+02  0.62595E+06
 0.64949997E+02  0.86022E+06
 0.64999992E+02  0.10724E+07
 0.65049995E+02  0.12167E+07
 0.65099998E+02  0.13105E+07
 0.65149994E+02  0.13677E+07
 0.65199997E+02  0.13876E+07
 0.65249992E+02  0.13456E+07
 0.65299995E+02  0.12176E+07
 0.65349998E+02  0.10829E+07
 0.65399994E+02  0.10253E+07
 0.65449997E+02  0.10166E+07
 0.65499992E+02  0.99841E+06
 0.65549995E+02  0.97469E+06
 0.65599998E+02  0.94687E+06
 0.65649994E+02  0.88583E+06
 0.65699997E+02  0.78171E+06
 0.65749992E+02  0.62963E+06
 0.65799995E+02  0.39063E+06
 0.65849998E+02  0.59443E+05
 0.65899994E+02 -0.31112E+06
 0.65949997E+02 -0.63801E+06
 0.65999992E+02 -0.85185E+06
 0.66049995E+02 -0.94956E+06
 0.66099998E+02 -0.93926E+06
 0.66149994E+02 -0.84049E+06
 0.66199997E+02 -0.65970E+06
 0.66249992E+02 -0.43504E+06
 0.66299995E+02 -0.22496E+06
 0.66349998E+02 -0.43344E+05
 0.66399994E+02  0.58151E+05
 0.66449997E+02  0.72283E+05
 0.66499992E+02  0.27440E+05
 0.66549995E+02 -0.51781E+05
 0.66599998E+02 -0.88881E+05
 0.66649994E+02 -0.64321E+05
 0.66699997E+02 -0.61591E+04
 0.66749992E+02  0.57407E+05
 0.66799995E+02  0.91805E+05
 0.66849998E+02  0.61907E+05
 0.66899994E+02 -0.16694E+05
 0.66949997E+02 -0.98038E+05
 0.66999992E+02 -0.17470E+06
 0.67049995E+02 -0.23260E+06
 0.67099998E+02 -0.24775E+06
 0.67149994E+02 -0.22432E+06
 0.67199997E+02 -0.18025E+06
 0.67249992E+02 -0.10329E+06
 0.67299995E+02 -0.53317E+04
 0.67349998E+02  0.93762E+05
 0.67399994E+02  0.17689E+06
 0.67449997E+02  0.19410E+06
 0.67499992E+02  0.15275E+06
 0.67549995E+02  0.10208E+06
 0.67599998E+02  0.25177E+05
 0.67649994E+02 -0.10114E+06
 0.67699997E+02 -0.21653E+06
 0.67749992E+02 -0.27172E+06
 0.67799995E+02 -0.27047E+06
 0.67849998E+02 -0.23157E+06
 0.67899994E+02 -0.18157E+06
 0.67949997E+02 -0.13214E+06
 0.67999992E+02 -0.83263E+05
 0.68049995E+02 -0.17299E+05
 0.68099998E+02  0.38646E+05
 0.68149994E+02  0.38737E+05
 0.68199997E+02 -0.15625E+05
 0.68249992E+02 -0.10308E+06
 0.68299995E+02 -0.16750E+06
 0.68349998E+02 -0.16258E+06
 0.68399994E+02 -0.94827E+05
 0.68449997E+02  0.67902E+04
 0.68499992E+02  0.84526E+05
 0.68549995E+02  0.10158E+06
 0.68599998E+02  0.10211E+06
 0.68649994E+02  0.13840E+06
 0.68699997E+02  0.20750E+06
 0.68749992E+02  0.24133E+06
 0.68799995E+02  0.20010E+06
 0.68849998E+02  0.15438E+06
 0.68899994E+02  0.19222E+06
 0.68949997E+02  0.31707E+06
 0.68999992E+02  0.49130E+06
 0.69049995E+02  0.62597E+06
 0.69099998E+02  0.64983E+06
 0.69149994E+02  0.59627E+06
 0.69199997E+02  0.54726E+06
 0.69249992E+02  0.54844E+06
 0.69299995E+02  0.54300E+06
 0.69349998E+02  0.51122E+06
 0.69399994E+02  0.47945E+06
 0.69449997E+02  0.40304E+06
 0.69499992E+02  0.25172E+06
 0.69549995E+02  0.46149E+05
 0.69599998E+02 -0.17197E+06
 0.69649994E+02 -0.37030E+06
 0.69699997E+02 -0.56151E+06
 0.69749992E+02 -0.73497E+06
 0.69799995E+02 -0.87104E+06
 0.69849998E+02 -0.98794E+06
 0.69899994E+02 -0.10990E+07
 0.69949997E+02 -0.11840E+07
 0.69999992E+02 -0.12228E+07
 0.70049995E+02 -0.12068E+07
 0.70099998E+02 -0.11322E+07
 0.70149994E+02 -0.10013E+07
 0.70199997E+02 -0.81629E+06
 0.70249992E+02 -0.56746E+06
 0.70299995E+02 -0.27616E+06
 0.70349998E+02 -0.71224E+04
 0.70399994E+02  0.20842E+06
 0.70449997E+02  0.35757E+06
 0.70499992E+02  0.41984E+06
 0.70549995E+02  0.40912E+06
 0.70599998E+02  0.37051E+06
 0.70649994E+02  0.32391E+06
 0.70699997E+02  0.29791E+06
 0.70749992E+02  0.30692E+06
 0.70799995E+02  0.31523E+06
 0.70849998E+02  0.32040E+06
 0.70899994E+02  0.35072E+06
 0.70949997E+02  0.42361E+06
 0.70999992E+02  0.52195E+06
 0.71049995E+02  0.62108E+06
 0.71099998E+02  0.70871E+06
 0.71149994E+02  0.76723E+06
 0.71199997E+02  0.76673E+06
 0.71249992E+02  0.70890E+06
 0.71299995E+02  0.60240E+06
 0.71349998E+02  0.43962E+06
 0.71399994E+02  0.23594E+06
 0.71449997E+02  0.13392E+05
 0.71499992E+02 -0.17718E+06
 0.71549995E+02 -0.31423E+06
 0.71599998E+02 -0.41438E+06
 0.71649994E+02 -0.49481E+06
 0.71699997E+02 -0.56166E+06
 0.71749992E+02 -0.60382E+06
 0.71799995E+02 -0.60721E+06
 0.71849998E+02 -0.56784E+06
 0.71899994E+02 -0.49410E+06
 0.71949997E+02 -0.40522E+06
 0.71999992E+02 -0.32353E+06
 0.72049995E+02 -0.25744E+06
 0.72099998E+02 -0.21048E+06
 0.72149994E+02 -0.19541E+06
 0.72199997E+02 -0.26485E+06
 0.72249992E+02 -0.44404E+06
 0.72299995E+02 -0.66242E+06
 0.72349998E+02 -0.83231E+06
 0.72399994E+02 -0.93006E+06
 0.72449997E+02 -0.98513E+06
 0.72499992E+02 -0.10262E+07
 0.72549995E+02 -0.10608E+07
 0.72599998E+02 -0.10647E+07
 0.72649994E+02 -0.10165E+07
 0.72699997E+02 -0.92318E+06
 0.72749992E+02 -0.78760E+06
 0.72799995E+02 -0.62650E+06
 0.72849998E+02 -0.45911E+06
 0.72899994E+02 -0.28050E+06
 0.72949997E+02 -0.93055E+05
 0.72999992E+02  0.94849E+05
 0.73049995E+02  0.28311E+06
 0.73099998E+02  0.47238E+06
 0.73149994E+02  0.65743E+06
 0.73199997E+02  0.81475E+06
 0.73249992E+02  0.91632E+06
 0.73299995E+02  0.95122E+06
 0.73349998E+02  0.91782E+06
 0.73399994E+02  0.83770E+06
 0.73449997E+02  0.76512E+06
 0.73499992E+02  0.71804E+06
 0.73549995E+02  0.66995E+06
 0.73599998E+02  0.59972E+06
 0.73649994E+02  0.51468E+06
 0.73699997E+02  0.41749E+06
 0.73749992E+02  0.30979E+06
 0.73799995E+02  0.21266E+06
 0.73849998E+02  0.11791E+06
 0.73899994E+02  0.99547E+04
 0.73949997E+02 -0.10803E+06
 0.73999992E+02 -0.22901E+06
 0.74049995E+02 -0.34109E+06
 0.74099998E+02 -0.40665E+06
 0.74149994E+02 -0.39813E+06
 0.74199997E+02 -0.34641E+06
 0.74249992E+02 -0.29237E+06
 0.74299995E+02 -0.25964E+06
 0.74349998E+02 -0.24999E+06
 0.74399994E+02 -0.23404E+06
 0.74449997E+02 -0.18553E+06
 0.74499992E+02 -0.11422E+06
 0.74549995E+02 -0.52005E+05
 0.74599998E+02  0.26509E+03
 0.74649994E+02  0.49436E+05
 0.74699997E+02  0.92012E+05
 0.74749992E+02  0.13936E+06
 0.74799995E+02  0.17635E+06
 0.74849998E+02  0.18902E+06
 0.74899994E+02  0.19060E+06
 0.74949997E+02  0.21040E+06
 0.74999992E+02  0.26398E+06
 0.75049995E+02  0.31836E+06
 0.75099998E+02  0.34567E+06
 0.75149994E+02  0.35239E+06
 0.75199997E+02  0.36937E+06
 0.75249992E+02  0.41500E+06
 0.75299995E+02  0.47322E+06
 0.75349998E+02  0.52414E+06
 0.75399994E+02  0.53326E+06
 0.75449997E+02  0.47525E+06
 0.75499992E+02  0.37812E+06
 0.75549995E+02  0.28629E+06
 0.75599998E+02  0.22002E+06
 0.75649994E+02  0.18708E+06
 0.75699997E+02  0.19027E+06
 0.75749992E+02  0.20929E+06
 0.75799995E+02  0.24226E+06
 0.75849998E+02  0.30741E+06
 0.75899994E+02  0.38129E+06
 0.75949997E+02  0.41893E+06
 0.75999992E+02  0.39419E+06
 0.76049995E+02  0.30939E+06
 0.76099998E+02  0.18618E+06
 0.76149994E+02  0.37774E+05
 0.76199997E+02 -0.11480E+06
 0.76249992E+02 -0.24354E+06
 0.76299995E+02 -0.32082E+06
 0.76349998E+02 -0.35254E+06
 0.76399994E+02 -0.37144E+06
 0.76449997E+02 -0.38937E+06
 0.76499992E+02 -0.41844E+06
 0.76549995E+02 -0.44830E+06
 0.76599998E+02 -0.44643E+06
 0.76649994E+02 -0.39784E+06
 0.76699997E+02 -0.31478E+06
 0.76749992E+02 -0.19202E+06
 0.76799995E+02 -0.25909E+05
 0.76849998E+02  0.16311E+06
 0.76899994E+02  0.34960E+06
 0.76949997E+02  0.50573E+06
 0.76999992E+02  0.62244E+06
 0.77049995E+02  0.70465E+06
 0.77099998E+02  0.76372E+06
 0.77149994E+02  0.80594E+06
 0.77199997E+02  0.83354E+06
 0.77249992E+02  0.84574E+06
 0.77299995E+02  0.84419E+06
 0.77349998E+02  0.81984E+06
 0.77399994E+02  0.77478E+06
 0.77449997E+02  0.72194E+06
 0.77499992E+02  0.65990E+06
 0.77549995E+02  0.58416E+06
 0.77599998E+02  0.49578E+06
 0.77649994E+02  0.40898E+06
 0.77699997E+02  0.34054E+06
 0.77749992E+02  0.29650E+06
 0.77799995E+02  0.25842E+06
 0.77849998E+02  0.19558E+06
 0.77899994E+02  0.89697E+05
 0.77949997E+02 -0.42412E+05
 0.77999992E+02 -0.17810E+06
 0.78049995E+02 -0.31008E+06
 0.78099998E+02 -0.43040E+06
 0.78149994E+02 -0.51511E+06
 0.78199997E+02 -0.55386E+06
 0.78249992E+02 -0.56225E+06
 0.78299995E+02 -0.54610E+06
 0.78349998E+02 -0.52643E+06
 0.78399994E+02 -0.53792E+06
 0.78449997E+02 -0.58363E+06
 0.78499992E+02 -0.64278E+06
 0.78549995E+02 -0.69814E+06
 0.78599998E+02 -0.73498E+06
 0.78649994E+02 -0.74489E+06
 0.78699997E+02 -0.72574E+06
 0.78749992E+02 -0.69561E+06
 0.78799995E+02 -0.66733E+06
 0.78849998E+02 -0.65654E+06
 0.78899994E+02 -0.67726E+06
 0.78949997E+02 -0.71431E+06
 0.78999992E+02 -0.74228E+06
 0.79049995E+02 -0.72792E+06
 0.79099998E+02 -0.66406E+06
 0.79149994E+02 -0.56680E+06
 0.79199997E+02 -0.45991E+06
 0.79249992E+02 -0.35458E+06
 0.79299995E+02 -0.25379E+06
 0.79349998E+02 -0.16616E+06
 0.79399994E+02 -0.94509E+05
 0.79449997E+02 -0.33735E+05
 0.79499992E+02  0.20305E+05
 0.79549995E+02  0.73707E+05
 0.79599998E+02  0.14295E+06
 0.79649994E+02  0.23347E+06
 0.79699997E+02  0.34384E+06
 0.79749992E+02  0.46850E+06
 0.79799995E+02  0.60470E+06
 0.79849998E+02  0.74340E+06
 0.79899994E+02  0.86427E+06
 0.79949997E+02  0.95834E+06
 0.79999992E+02  0.10151E+07
 0.80049995E+02  0.10178E+07
 0.80099998E+02  0.97395E+06
 0.80149994E+02  0.90369E+06
 0.80199997E+02  0.82729E+06
 0.80249992E+02  0.75545E+06
 0.80299995E+02  0.67244E+06
 0.80349998E+02  0.56616E+06
 0.80399994E+02  0.43513E+06
 0.80449997E+02  0.28888E+06
 0.80499992E+02  0.14713E+06
 0.80549995E+02  0.23650E+05
 0.80599998E+02 -0.96329E+05
 0.80649994E+02 -0.21734E+06
 0.80699997E+02 -0.32547E+06
 0.80749992E+02 -0.42942E+06
 0.80799995E+02 -0.52447E+06
 0.80849998E+02 -0.57833E+06
 0.80899994E+02 -0.58675E+06
 0.80949997E+02 -0.57250E+06
 0.80999992E+02 -0.54446E+06
 0.81049995E+02 -0.50930E+06
 0.81099998E+02 -0.48020E+06
 0.81149994E+02 -0.46345E+06
 0.81199997E+02 -0.43888E+06
 0.81249992E+02 -0.39288E+06
 0.81299995E+02 -0.32879E+06
 0.81349998E+02 -0.26042E+06
 0.81399994E+02 -0.20245E+06
 0.81449997E+02 -0.15855E+06
 0.81499992E+02 -0.12921E+06
 0.81549995E+02 -0.10095E+06
 0.81599998E+02 -0.65327E+05
 0.81649994E+02 -0.61848E+04
 0.81699997E+02  0.10048E+06
 0.81749992E+02  0.25511E+06
 0.81799995E+02  0.43904E+06
 0.81849998E+02  0.62788E+06
 0.81899994E+02  0.77653E+06
 0.81949997E+02  0.84166E+06
 0.81999992E+02  0.82986E+06
 0.82049995E+02  0.75544E+06
 0.82099998E+02  0.62827E+06
 0.82149994E+02  0.47583E+06
 0.82199997E+02  0.32161E+06
 0.82249992E+02  0.18180E+06
 0.82299995E+02  0.62328E+05
 0.82349998E+02 -0.36121E+05
 0.82399994E+02 -0.11755E+06
 0.82449997E+02 -0.19862E+06
 0.82499992E+02 -0.29529E+06
 0.82549995E+02 -0.40064E+06
 0.82599998E+02 -0.48622E+06
 0.82649994E+02 -0.53906E+06
 0.82699997E+02 -0.56018E+06
 0.82749992E+02 -0.54776E+06
 0.82799995E+02 -0.50605E+06
 0.82849998E+02 -0.44489E+06
 0.82899994E+02 -0.37054E+06
 0.82949997E+02 -0.28742E+06
 0.82999992E+02 -0.20177E+06
 0.83049995E+02 -0.11440E+06
 0.83099998E+02 -0.21431E+05
 0.83149994E+02  0.65094E+05
 0.83199997E+02  0.11971E+06
 0.83249992E+02  0.14094E+06
 0.83299995E+02  0.15133E+06
 0.83349998E+02  0.17302E+06
 0.83399994E+02  0.21599E+06
 0.83449997E+02  0.26709E+06
 0.83499992E+02  0.30446E+06
 0.83549995E+02  0.32241E+06
 0.83599998E+02  0.32419E+06
 0.83649994E+02  0.30698E+06
 0.83699997E+02  0.26855E+06
 0.83749992E+02  0.21557E+06
 0.83799995E+02  0.15922E+06
 0.83849998E+02  0.11145E+06
 0.83899994E+02  0.81444E+05
 0.83949997E+02  0.72318E+05
 0.83999992E+02  0.91527E+05
 0.84049995E+02  0.14071E+06
 0.84099998E+02  0.20041E+06
 0.84149994E+02  0.24415E+06
 0.84199997E+02  0.25459E+06
 0.84249992E+02  0.22326E+06
 0.84299995E+02  0.15520E+06
 0.84349998E+02  0.70877E+05
 0.84399994E+02 -0.77699E+04
 0.84449997E+02 -0.76836E+05
 0.84499992E+02 -0.13847E+06
 0.84549995E+02 -0.19539E+06
 0.84599998E+02 -0.25063E+06
 0.84649994E+02 -0.30111E+06
 0.84699997E+02 -0.36153E+06
 0.84749992E+02 -0.43668E+06
 0.84799995E+02 -0.50599E+06
 0.84849998E+02 -0.55566E+06
 0.84899994E+02 -0.59543E+06
 0.84949997E+02 -0.62776E+06
 0.84999992E+02 -0.64344E+06
 0.85049995E+02 -0.64800E+06
 0.85099998E+02 -0.62802E+06
 0.85149994E+02 -0.56387E+06
 0.85199997E+02 -0.47053E+06
 0.85249992E+02 -0.36651E+06
 0.85299995E+02 -0.26800E+06
 0.85349998E+02 -0.19024E+06
 0.85399994E+02 -0.12897E+06
 0.85449997E+02 -0.74569E+05
 0.85499992E+02 -0.35526E+05
 0.85549995E+02 -0.30218E+05
 0.85599998E+02 -0.63022E+05
 0.85649994E+02 -0.12679E+06
 0.85699997E+02 -0.19814E+06
 0.85749992E+02 -0.24864E+06
 0.85799995E+02 -0.27681E+06
 0.85849998E+02 -0.29285E+06
 0.85899994E+02 -0.29527E+06
 0.85949997E+02 -0.27608E+06
 0.85999992E+02 -0.22395E+06
 0.86049995E+02 -0.12968E+06
 0.86099998E+02 -0.73927E+04
 0.86149994E+02  0.11535E+06
 0.86199997E+02  0.22346E+06
 0.86249992E+02  0.31033E+06
 0.86299995E+02  0.37831E+06
 0.86349998E+02  0.43420E+06
 0.86399994E+02  0.48691E+06
 0.86449997E+02  0.53775E+06
 0.86499992E+02  0.59087E+06
 0.86549995E+02  0.65363E+06
 0.86599998E+02  0.72573E+06
 0.86649994E+02  0.80077E+06
 0.86699997E+02  0.86092E+06
 0.86749992E+02  0.90356E+06
 0.86799995E+02  0.93685E+06
 0.86849998E+02  0.95491E+06
 0.86899994E+02  0.94542E+06
 0.86949997E+02  0.89699E+06
 0.86999992E+02  0.81364E+06
 0.87049995E+02  0.70122E+06
 0.87099998E+02  0.56064E+06
 0.87149994E+02  0.40192E+06
 0.87199997E+02  0.23176E+06
 0.87249992E+02  0.52170E+05
 0.87299995E+02 -0.13076E+06
 0.87349998E+02 -0.29829E+06
 0.87399994E+02 -0.43379E+06
 0.87449997E+02 -0.53580E+06
 0.87499992E+02 -0.60390E+06
 0.87549995E+02 -0.63727E+06
 0.87599991E+02 -0.63822E+06
 0.87649994E+02 -0.62262E+06
 0.87699997E+02 -0.61859E+06
 0.87749992E+02 -0.63819E+06
 0.87799995E+02 -0.66822E+06
 0.87849991E+02 -0.68370E+06
 0.87899994E+02 -0.66894E+06
 0.87949997E+02 -0.62678E+06
 0.87999992E+02 -0.56238E+06
 0.88049995E+02 -0.48334E+06
 0.88099991E+02 -0.39892E+06
 0.88149994E+02 -0.31534E+06
 0.88199997E+02 -0.24249E+06
 0.88249992E+02 -0.19642E+06
 0.88299995E+02 -0.18065E+06
 0.88349991E+02 -0.18249E+06
 0.88399994E+02 -0.18641E+06
 0.88449997E+02 -0.17576E+06
 0.88499992E+02 -0.14956E+06
 0.88549995E+02 -0.11355E+06
 0.88599991E+02 -0.69990E+05
 0.88649994E+02 -0.86694E+04
 0.88699997E+02  0.71515E+05
 0.88749992E+02  0.15744E+06
 0.88799995E+02  0.23077E+06
 0.88849991E+02  0.28716E+06
 0.88899994E+02  0.33356E+06
 0.88949997E+02  0.36842E+06
 0.88999992E+02  0.39656E+06
 0.89049995E+02  0.41969E+06
 0.89099991E+02  0.43582E+06
 0.89149994E+02  0.44109E+06
 0.89199997E+02  0.42688E+06
 0.89249992E+02  0.38505E+06
 0.89299995E+02  0.31792E+06
 0.89349991E+02  0.23316E+06
 0.89399994E+02  0.14492E+06
 0.89449997E+02  0.72140E+05
 0.89499992E+02  0.28673E+05
 0.89549995E+02  0.16875E+05
 0.89599991E+02  0.34652E+05
 0.89649994E+02  0.77797E+05
 0.89699997E+02  0.13176E+06
 0.89749992E+02  0.18304E+06
 0.89799995E+02  0.23014E+06
 0.89849991E+02  0.27851E+06
 0.89899994E+02  0.33218E+06
 0.89949997E+02  0.38225E+06
 0.89999992E+02  0.40819E+06
 0.90049995E+02  0.39248E+06
 0.90099991E+02  0.34250E+06
 0.90149994E+02  0.27882E+06
 0.90199997E+02  0.21668E+06
 0.90249992E+02  0.15772E+06
 0.90299995E+02  0.96461E+05
 0.90349991E+02  0.37889E+05
 0.90399994E+02 -0.73802E+04
 0.90449997E+02 -0.25495E+05
 0.90499992E+02 -0.18101E+05
 0.90549995E+02 -0.57476E+04
 0.90599991E+02 -0.10381E+05
 0.90649994E+02 -0.38517E+05
 0.90699997E+02 -0.86991E+05
 0.90749992E+02 -0.15221E+06
 0.90799995E+02 -0.22609E+06
 0.90849991E+02 -0.29975E+06
 0.90899994E+02 -0.36431E+06
 0.90949997E+02 -0.41588E+06
 0.90999992E+02 -0.46174E+06
 0.91049995E+02 -0.51033E+06
 0.91099991E+02 -0.56280E+06
 0.91149994E+02 -0.61282E+06
 0.91199997E+02 -0.65131E+06
 0.91249992E+02 -0.66420E+06
 0.91299995E+02 -0.64029E+06
 0.91349991E+02 -0.58871E+06
 0.91399994E+02 -0.51614E+06
 0.91449997E+02 -0.41784E+06
 0.91499992E+02 -0.29960E+06
 0.91549995E+02 -0.17477E+06
 0.91599991E+02 -0.52267E+05
 0.91649994E+02  0.59633E+05
 0.91699997E+02  0.16071E+06
 0.91749992E+02  0.25800E+06
 0.91799995E+02  0.35098E+06
 0.91849991E+02  0.44120E+06
 0.91899994E+02  0.52434E+06
 0.91949997E+02  0.59436E+06
 0.91999992E+02  0.65699E+06
 0.92049995E+02  0.71385E+06
 0.92099991E+02  0.75998E+06
 0.92149994E+02  0.78847E+06
 0.92199997E+02  0.79877E+06
 0.92249992E+02  0.79695E+06
 0.92299995E+02  0.78757E+06
 0.92349991E+02  0.77310E+06
 0.92399994E+02  0.75571E+06
 0.92449997E+02  0.73372E+06
 0.92499992E+02  0.69557E+06
 0.92549995E+02  0.62610E+06
 0.92599991E+02  0.52751E+06
 0.92649994E+02  0.41055E+06
 0.92699997E+02  0.27787E+06
 0.92749992E+02  0.13776E+06
 0.92799995E+02  0.37484E+04
 0.92849991E+02 -0.12312E+06
 0.92899994E+02 -0.25710E+06
 0.92949997E+02 -0.40001E+06
 0.92999992E+02 -0.53801E+06
 0.93049995E+02 -0.64954E+06
 0.93099991E+02 -0.71897E+06
 0.93149994E+02 -0.75061E+06
 0.93199997E+02 -0.75607E+06
 0.93249992E+02 -0.74617E+06
 0.93299995E+02 -0.72035E+06
 0.93349991E+02 -0.67534E+06
 0.93399994E+02 -0.61179E+06
 0.93449997E+02 -0.53375E+06
 0.93499992E+02 -0.45793E+06
 0.93549995E+02 -0.40230E+06
 0.93599991E+02 -0.36877E+06
 0.93649994E+02 -0.34997E+06
 0.93699997E+02 -0.32805E+06
 0.93749992E+02 -0.29096E+06
 0.93799995E+02 -0.23776E+06
 0.93849991E+02 -0.17507E+06
 0.93899994E+02 -0.11836E+06
 0.93949997E+02 -0.70345E+05
 0.93999992E+02 -0.23863E+05
 0.94049995E+02  0.27464E+05
 0.94099991E+02  0.79162E+05
 0.94149994E+02  0.12183E+06
 0.94199997E+02  0.14967E+06
 0.94249992E+02  0.16738E+06
 0.94299995E+02  0.18711E+06
 0.94349991E+02  0.21160E+06
 0.94399994E+02  0.23436E+06
 0.94449997E+02  0.25112E+06
 0.94499992E+02  0.26013E+06
 0.94549995E+02  0.27232E+06
 0.94599991E+02  0.29641E+06
 0.94649994E+02  0.32412E+06
 0.94699997E+02  0.34341E+06
 0.94749992E+02  0.34638E+06
 0.94799995E+02  0.34017E+06
 0.94849991E+02  0.33102E+06
 0.94899994E+02  0.31881E+06
 0.94949997E+02  0.29735E+06
 0.94999992E+02  0.26326E+06
 0.95049995E+02  0.22111E+06
 0.95099991E+02  0.17748E+06
 0.95149994E+02  0.14059E+06
 0.95199997E+02  0.11685E+06
 0.95249992E+02  0.10579E+06
 0.95299995E+02  0.10360E+06
 0.95349991E+02  0.10926E+06
 0.95399994E+02  0.11939E+06
 0.95449997E+02  0.12927E+06
 0.95499992E+02  0.14079E+06
 0.95549995E+02  0.16132E+06
 0.95599991E+02  0.18533E+06
 0.95649994E+02  0.20104E+06
 0.95699997E+02  0.20573E+06
 0.95749992E+02  0.20286E+06
 0.95799995E+02  0.19105E+06
 0.95849991E+02  0.17235E+06
 0.95899994E+02  0.15481E+06
 0.95949997E+02  0.14287E+06
 0.95999992E+02  0.13494E+06
 0.96049995E+02  0.11977E+06
 0.96099991E+02  0.94294E+05
 0.96149994E+02  0.62348E+05
 0.96199997E+02  0.22191E+05
 0.96249992E+02 -0.27771E+05
 0.96299995E+02 -0.85757E+05
 0.96349991E+02 -0.14514E+06
 0.96399994E+02 -0.20200E+06
 0.96449997E+02 -0.25871E+06
 0.96499992E+02 -0.31231E+06
 0.96549995E+02 -0.35624E+06
 0.96599991E+02 -0.38002E+06
 0.96649994E+02 -0.37360E+06
 0.96699997E+02 -0.33860E+06
 0.96749992E+02 -0.27493E+06
 0.96799995E+02 -0.18802E+06
 0.96849991E+02 -0.90903E+05
 0.96899994E+02  0.10507E+05
 0.96949997E+02  0.10618E+06
 0.96999992E+02  0.18508E+06
 0.97049995E+02  0.24417E+06
 0.97099991E+02  0.28194E+06
 0.97149994E+02  0.29509E+06
 0.97199997E+02  0.28237E+06
 0.97249992E+02  0.24571E+06
 0.97299995E+02  0.19121E+06
 0.97349991E+02  0.13132E+06
 0.97399994E+02  0.82815E+05
 0.97449997E+02  0.49563E+05
 0.97499992E+02  0.24556E+05
 0.97549995E+02  0.62976E+04
 0.97599991E+02 -0.39528E+04
 0.97649994E+02 -0.69141E+04
 0.97699997E+02 -0.14184E+05
 0.97749992E+02 -0.29666E+05
 0.97799995E+02 -0.54670E+05
 0.97849991E+02 -0.93332E+05
 0.97899994E+02 -0.13612E+06
 0.97949997E+02 -0.17345E+06
 0.97999992E+02 -0.20522E+06
