-0.20000000E+01 -0.21550E+05
-0.19500000E+01 -0.21425E+05
-0.19000000E+01 -0.21471E+05
-0.18500000E+01 -0.21456E+05
-0.18000000E+01 -0.21447E+05
-0.17500000E+01 -0.21443E+05
-0.17000000E+01 -0.21461E+05
-0.16500001E+01 -0.21456E+05
-0.16000000E+01 -0.21418E+05
-0.15500000E+01 -0.21411E+05
-0.15000000E+01 -0.21398E+05
-0.14500000E+01 -0.21398E+05
-0.14000001E+01 -0.21420E+05
-0.13500000E+01 -0.21403E+05
-0.13000001E+01 -0.21375E+05
-0.12500000E+01 -0.21388E+05
-0.12000000E+01 -0.21374E+05
-0.11500001E+01 -0.21378E+05
-0.11000000E+01 -0.21382E+05
-0.10500001E+01 -0.21336E+05
-0.10000000E+01 -0.21312E+05
-0.95000005E+00 -0.21315E+05
-0.90000010E+00 -0.21321E+05
-0.85000002E+00 -0.21345E+05
-0.80000007E+00 -0.21356E+05
-0.75000012E+00 -0.21311E+05
-0.70000005E+00 -0.21287E+05
-0.65000010E+00 -0.21282E+05
-0.60000014E+00 -0.21273E+05
-0.55000007E+00 -0.21290E+05
-0.50000012E+00 -0.21293E+05
-0.45000005E+00 -0.21267E+05
-0.40000010E+00 -0.21270E+05
-0.35000014E+00 -0.21277E+05
-0.30000007E+00 -0.21282E+05
-0.25000012E+00 -0.21305E+05
-0.20000005E+00 -0.21287E+05
-0.15000010E+00 -0.21258E+05
-0.10000014E+00 -0.21266E+05
-0.50000072E-01 -0.21266E+05
-0.11920929E-06 -0.21272E+05
 0.49999952E-01 -0.21305E+05
 0.99999905E-01 -0.21303E+05
 0.14999986E+00 -0.21288E+05
 0.19999981E+00 -0.21306E+05
 0.24999976E+00 -0.21318E+05
 0.29999995E+00 -0.21332E+05
 0.34999990E+00 -0.21357E+05
 0.39999986E+00 -0.21346E+05
 0.44999981E+00 -0.21334E+05
 0.49999976E+00 -0.21369E+05
 0.54999995E+00 -0.21382E+05
 0.59999990E+00 -0.21420E+05
 0.64999986E+00 -0.21452E+05
 0.69999981E+00 -0.21447E+05
 0.74999976E+00 -0.21467E+05
 0.79999971E+00 -0.21487E+05
 0.84999990E+00 -0.21495E+05
 0.89999986E+00 -0.21517E+05
 0.94999981E+00 -0.21539E+05
 0.99999976E+00 -0.21507E+05
 0.10499997E+01 -0.21512E+05
 0.10999999E+01 -0.21528E+05
 0.11499999E+01 -0.21539E+05
 0.11999998E+01 -0.21570E+05
 0.12499998E+01 -0.21544E+05
 0.12999997E+01 -0.21494E+05
 0.13499999E+01 -0.21482E+05
 0.13999999E+01 -0.21470E+05
 0.14499998E+01 -0.21461E+05
 0.14999998E+01 -0.21461E+05
 0.15499997E+01 -0.21416E+05
 0.15999999E+01 -0.21366E+05
 0.16499999E+01 -0.21333E+05
 0.16999998E+01 -0.21315E+05
 0.17499998E+01 -0.21303E+05
 0.17999997E+01 -0.21295E+05
 0.18499997E+01 -0.21260E+05
 0.18999999E+01 -0.21237E+05
 0.19499998E+01 -0.21257E+05
 0.19999998E+01 -0.21263E+05
 0.20499997E+01 -0.21284E+05
 0.20999999E+01 -0.21290E+05
 0.21499996E+01 -0.21256E+05
 0.21999998E+01 -0.21251E+05
 0.22499995E+01 -0.21268E+05
 0.22999997E+01 -0.21290E+05
 0.23499999E+01 -0.21340E+05
 0.23999996E+01 -0.21359E+05
 0.24499998E+01 -0.21349E+05
 0.24999995E+01 -0.21370E+05
 0.25499997E+01 -0.21397E+05
 0.25999999E+01 -0.21427E+05
 0.26499996E+01 -0.21459E+05
 0.26999998E+01 -0.21440E+05
 0.27499995E+01 -0.21409E+05
 0.27999997E+01 -0.21422E+05
 0.28499999E+01 -0.21425E+05
 0.28999996E+01 -0.21450E+05
 0.29499998E+01 -0.21471E+05
 0.29999995E+01 -0.21427E+05
 0.30499997E+01 -0.21389E+05
 0.30999999E+01 -0.21386E+05
 0.31499996E+01 -0.21373E+05
 0.31999998E+01 -0.21377E+05
 0.32499995E+01 -0.21380E+05
 0.32999997E+01 -0.21349E+05
 0.33499999E+01 -0.21351E+05
 0.33999996E+01 -0.21360E+05
 0.34499998E+01 -0.21354E+05
 0.34999995E+01 -0.21365E+05
 0.35499997E+01 -0.21353E+05
 0.35999994E+01 -0.21319E+05
 0.36499996E+01 -0.21332E+05
 0.36999998E+01 -0.21356E+05
 0.37499995E+01 -0.21381E+05
 0.37999997E+01 -0.21427E+05
 0.38499994E+01 -0.21425E+05
 0.38999996E+01 -0.21394E+05
 0.39499998E+01 -0.21406E+05
 0.39999995E+01 -0.21401E+05
 0.40499997E+01 -0.21400E+05
 0.40999994E+01 -0.21399E+05
 0.41499996E+01 -0.21348E+05
 0.41999998E+01 -0.21328E+05
 0.42499995E+01 -0.21334E+05
 0.42999997E+01 -0.21323E+05
 0.43499994E+01 -0.21330E+05
 0.43999996E+01 -0.21331E+05
 0.44499998E+01 -0.21290E+05
 0.44999995E+01 -0.21294E+05
 0.45499997E+01 -0.21296E+05
 0.45999994E+01 -0.21304E+05
 0.46499996E+01 -0.21340E+05
 0.46999998E+01 -0.21337E+05
 0.47499995E+01 -0.21323E+05
 0.47999997E+01 -0.21337E+05
 0.48499994E+01 -0.21348E+05
 0.48999996E+01 -0.21359E+05
 0.49499998E+01 -0.21398E+05
 0.49999995E+01 -0.21389E+05
 0.50499997E+01 -0.21377E+05
 0.50999994E+01 -0.21394E+05
 0.51499996E+01 -0.21407E+05
 0.51999998E+01 -0.21442E+05
 0.52499995E+01 -0.21464E+05
 0.52999997E+01 -0.21433E+05
 0.53499994E+01 -0.21430E+05
 0.53999996E+01 -0.21443E+05
 0.54499993E+01 -0.21433E+05
 0.54999995E+01 -0.21451E+05
 0.55499997E+01 -0.21444E+05
 0.55999994E+01 -0.21412E+05
 0.56499996E+01 -0.21415E+05
 0.56999993E+01 -0.21423E+05
 0.57499995E+01 -0.21430E+05
 0.57999997E+01 -0.21450E+05
 0.58499994E+01 -0.21421E+05
 0.58999996E+01 -0.21380E+05
 0.59499993E+01 -0.21369E+05
 0.59999995E+01 -0.21359E+05
 0.60499992E+01 -0.21358E+05
 0.60999994E+01 -0.21355E+05
 0.61499996E+01 -0.21309E+05
 0.61999998E+01 -0.21284E+05
 0.62499990E+01 -0.21288E+05
 0.62999992E+01 -0.21294E+05
 0.63499994E+01 -0.21332E+05
 0.63999996E+01 -0.21345E+05
 0.64499998E+01 -0.21326E+05
 0.64999990E+01 -0.21331E+05
 0.65499992E+01 -0.21339E+05
 0.65999994E+01 -0.21341E+05
 0.66499996E+01 -0.21373E+05
 0.66999998E+01 -0.21352E+05
 0.67499990E+01 -0.21319E+05
 0.67999992E+01 -0.21329E+05
 0.68499994E+01 -0.21325E+05
 0.68999996E+01 -0.21344E+05
 0.69499998E+01 -0.21367E+05
 0.69999990E+01 -0.21352E+05
 0.70499992E+01 -0.21350E+05
 0.70999994E+01 -0.21369E+05
 0.71499996E+01 -0.21366E+05
 0.71999998E+01 -0.21374E+05
 0.72499990E+01 -0.21354E+05
 0.72999992E+01 -0.21307E+05
 0.73499994E+01 -0.21307E+05
 0.73999996E+01 -0.21336E+05
 0.74499998E+01 -0.21374E+05
 0.74999990E+01 -0.21421E+05
 0.75499992E+01 -0.21419E+05
 0.75999994E+01 -0.21395E+05
 0.76499996E+01 -0.21414E+05
 0.76999998E+01 -0.21426E+05
 0.77499990E+01 -0.21450E+05
 0.77999992E+01 -0.21476E+05
 0.78499994E+01 -0.21458E+05
 0.78999996E+01 -0.21431E+05
 0.79499998E+01 -0.21426E+05
 0.79999990E+01 -0.21409E+05
 0.80499992E+01 -0.21411E+05
 0.80999994E+01 -0.21413E+05
 0.81499996E+01 -0.21383E+05
 0.81999998E+01 -0.21387E+05
 0.82499990E+01 -0.21403E+05
 0.82999992E+01 -0.21414E+05
 0.83499994E+01 -0.21448E+05
 0.83999996E+01 -0.21444E+05
 0.84499998E+01 -0.21412E+05
 0.84999990E+01 -0.21407E+05
 0.85499992E+01 -0.21387E+05
 0.85999994E+01 -0.21384E+05
 0.86499996E+01 -0.21392E+05
 0.86999998E+01 -0.21355E+05
 0.87499990E+01 -0.21321E+05
 0.87999992E+01 -0.21326E+05
 0.88499994E+01 -0.21323E+05
 0.88999996E+01 -0.21335E+05
 0.89499998E+01 -0.21331E+05
 0.89999990E+01 -0.21276E+05
 0.90499992E+01 -0.21263E+05
 0.90999994E+01 -0.21269E+05
 0.91499996E+01 -0.21272E+05
 0.91999989E+01 -0.21302E+05
 0.92499990E+01 -0.21297E+05
 0.92999992E+01 -0.21273E+05
 0.93499994E+01 -0.21287E+05
 0.93999996E+01 -0.21299E+05
 0.94499989E+01 -0.21323E+05
 0.94999990E+01 -0.21354E+05
 0.95499992E+01 -0.21324E+05
 0.95999994E+01 -0.21304E+05
 0.96499996E+01 -0.21327E+05
 0.96999989E+01 -0.21334E+05
 0.97499990E+01 -0.21370E+05
 0.97999992E+01 -0.21386E+05
 0.98499994E+01 -0.21354E+05
 0.98999996E+01 -0.21357E+05
 0.99499989E+01 -0.21366E+05
 0.99999990E+01 -0.21369E+05
 0.10049999E+02 -0.21410E+05
 0.10099999E+02 -0.21419E+05
 0.10150000E+02 -0.21398E+05
 0.10199999E+02 -0.21429E+05
 0.10249999E+02 -0.21450E+05
 0.10299999E+02 -0.21486E+05
 0.10349999E+02 -0.21519E+05
 0.10400000E+02 -0.21482E+05
 0.10449999E+02 -0.21470E+05
 0.10499999E+02 -0.21493E+05
 0.10549999E+02 -0.21491E+05
 0.10599999E+02 -0.21493E+05
 0.10650000E+02 -0.21498E+05
 0.10699999E+02 -0.21404E+05
 0.10749999E+02 -0.21421E+05
 0.10799999E+02 -0.21392E+05
 0.10849999E+02 -0.21398E+05
 0.10900000E+02 -0.21340E+05
 0.10949999E+02 -0.21344E+05
 0.10999999E+02 -0.21268E+05
 0.11049999E+02 -0.21232E+05
 0.11099999E+02 -0.21279E+05
 0.11150000E+02 -0.21200E+05
 0.11199999E+02 -0.21249E+05
 0.11249999E+02 -0.21149E+05
 0.11299999E+02 -0.21164E+05
 0.11349999E+02 -0.21028E+05
 0.11400000E+02 -0.21233E+05
 0.11449999E+02 -0.21280E+05
 0.11499999E+02 -0.21260E+05
 0.11549999E+02 -0.21318E+05
 0.11599999E+02 -0.21678E+05
 0.11650000E+02 -0.21006E+05
 0.11699999E+02 -0.21672E+05
 0.11749999E+02 -0.21419E+05
 0.11799999E+02 -0.21521E+05
 0.11849999E+02 -0.21092E+05
 0.11900000E+02 -0.21652E+05
 0.11949999E+02 -0.21907E+05
 0.11999999E+02 -0.21406E+05
 0.12049999E+02 -0.21490E+05
 0.12099999E+02 -0.21833E+05
 0.12150000E+02 -0.21619E+05
 0.12199999E+02 -0.22419E+05
 0.12249999E+02 -0.21602E+05
 0.12299999E+02 -0.21870E+05
 0.12349999E+02 -0.21835E+05
 0.12400000E+02 -0.21846E+05
 0.12449999E+02 -0.22345E+05
 0.12499999E+02 -0.20565E+05
 0.12549999E+02 -0.20911E+05
 0.12599999E+02 -0.21328E+05
 0.12649999E+02 -0.23054E+05
 0.12699999E+02 -0.21458E+05
 0.12749999E+02 -0.22281E+05
 0.12799999E+02 -0.20632E+05
 0.12849999E+02 -0.21934E+05
 0.12899999E+02 -0.22228E+05
 0.12949999E+02 -0.19437E+05
 0.12999999E+02 -0.20302E+05
 0.13049999E+02 -0.21391E+05
 0.13099999E+02 -0.21662E+05
 0.13149999E+02 -0.19540E+05
 0.13199999E+02 -0.21613E+05
 0.13249999E+02 -0.21056E+05
 0.13299999E+02 -0.21015E+05
 0.13349999E+02 -0.22313E+05
 0.13399999E+02 -0.20309E+05
 0.13449999E+02 -0.24193E+05
 0.13499999E+02 -0.20939E+05
 0.13549999E+02 -0.25391E+05
 0.13599999E+02 -0.19328E+05
 0.13649999E+02 -0.23199E+05
 0.13699999E+02 -0.20147E+05
 0.13749999E+02 -0.19702E+05
 0.13799999E+02 -0.24838E+05
 0.13849999E+02 -0.16683E+05
 0.13899999E+02 -0.26283E+05
 0.13949999E+02 -0.17643E+05
 0.13999999E+02 -0.21318E+05
 0.14049999E+02 -0.19320E+05
 0.14099998E+02 -0.20999E+05
 0.14150000E+02 -0.23020E+05
 0.14199999E+02 -0.19106E+05
 0.14249998E+02 -0.24258E+05
 0.14299999E+02 -0.17147E+05
 0.14349998E+02 -0.23110E+05
 0.14400000E+02 -0.22731E+05
 0.14449999E+02 -0.18349E+05
 0.14499998E+02 -0.21645E+05
 0.14549999E+02 -0.19630E+05
 0.14599998E+02 -0.22746E+05
 0.14650000E+02 -0.21723E+05
 0.14699999E+02 -0.21365E+05
 0.14749998E+02 -0.21116E+05
 0.14799999E+02 -0.22779E+05
 0.14849998E+02 -0.22182E+05
 0.14900000E+02 -0.18716E+05
 0.14949999E+02 -0.27272E+05
 0.14999998E+02 -0.19047E+05
 0.15049999E+02 -0.18671E+05
 0.15099998E+02 -0.20449E+05
 0.15150000E+02 -0.19074E+05
 0.15199999E+02 -0.24185E+05
 0.15249998E+02 -0.21286E+05
 0.15299999E+02 -0.21862E+05
 0.15349998E+02 -0.21218E+05
 0.15400000E+02 -0.21270E+05
 0.15449999E+02 -0.20034E+05
 0.15499998E+02 -0.20807E+05
 0.15549999E+02 -0.25102E+05
 0.15599998E+02 -0.20504E+05
 0.15650000E+02 -0.23503E+05
 0.15699999E+02 -0.20326E+05
 0.15749998E+02 -0.18202E+05
 0.15799999E+02 -0.22025E+05
 0.15849998E+02 -0.21229E+05
 0.15900000E+02 -0.18817E+05
 0.15949999E+02 -0.17178E+05
 0.15999998E+02 -0.26555E+05
 0.16049999E+02 -0.22037E+05
 0.16099998E+02 -0.21836E+05
 0.16150000E+02 -0.21540E+05
 0.16199999E+02 -0.17150E+05
 0.16249998E+02 -0.20259E+05
 0.16299999E+02 -0.22754E+05
 0.16349998E+02 -0.18113E+05
 0.16400000E+02 -0.23056E+05
 0.16449999E+02 -0.22248E+05
 0.16499998E+02 -0.17653E+05
 0.16549999E+02 -0.20483E+05
 0.16599998E+02 -0.19173E+05
 0.16650000E+02 -0.21518E+05
 0.16699999E+02 -0.24514E+05
 0.16749998E+02 -0.29117E+05
 0.16799999E+02 -0.22065E+05
 0.16849998E+02 -0.18256E+05
 0.16900000E+02 -0.23240E+05
 0.16949999E+02 -0.22815E+05
 0.16999998E+02 -0.23040E+05
 0.17049999E+02 -0.21971E+05
 0.17099998E+02 -0.16548E+05
 0.17150000E+02 -0.17995E+05
 0.17199999E+02 -0.21906E+05
 0.17249998E+02 -0.21161E+05
 0.17299999E+02 -0.21942E+05
 0.17349998E+02 -0.23318E+05
 0.17400000E+02 -0.22644E+05
 0.17449999E+02 -0.18990E+05
 0.17499998E+02 -0.22524E+05
 0.17549999E+02 -0.25764E+05
 0.17599998E+02 -0.21197E+05
 0.17650000E+02 -0.23467E+05
 0.17699999E+02 -0.19134E+05
 0.17749998E+02 -0.23235E+05
 0.17799999E+02 -0.19754E+05
 0.17849998E+02 -0.19048E+05
 0.17900000E+02 -0.19422E+05
 0.17949999E+02 -0.20064E+05
 0.17999998E+02 -0.23178E+05
 0.18049999E+02 -0.21466E+05
 0.18099998E+02 -0.24068E+05
 0.18150000E+02 -0.16958E+05
 0.18199999E+02 -0.24951E+05
 0.18249998E+02 -0.27163E+05
 0.18299999E+02 -0.20073E+05
 0.18349998E+02 -0.13932E+05
 0.18400000E+02 -0.15263E+05
 0.18449999E+02 -0.18739E+05
 0.18499998E+02 -0.20049E+05
 0.18549999E+02 -0.26248E+05
 0.18599998E+02 -0.25981E+05
 0.18650000E+02 -0.21372E+05
 0.18699999E+02 -0.21728E+05
 0.18749998E+02 -0.19451E+05
 0.18799999E+02 -0.25054E+05
 0.18849998E+02 -0.27902E+05
 0.18900000E+02 -0.13635E+05
 0.18949999E+02 -0.18186E+05
 0.18999998E+02 -0.24026E+05
 0.19049999E+02 -0.19257E+05
 0.19099998E+02 -0.26533E+05
 0.19150000E+02 -0.22105E+05
 0.19199999E+02 -0.15036E+05
 0.19249998E+02 -0.30367E+05
 0.19299999E+02 -0.18731E+05
 0.19349998E+02 -0.21141E+05
 0.19400000E+02 -0.27319E+05
 0.19449999E+02 -0.15489E+05
 0.19499998E+02 -0.24909E+05
 0.19549999E+02 -0.20015E+05
 0.19599998E+02 -0.13769E+05
 0.19650000E+02 -0.21819E+05
 0.19699999E+02 -0.29715E+05
 0.19749998E+02 -0.29234E+05
 0.19799999E+02 -0.27261E+05
 0.19849998E+02 -0.27178E+05
 0.19900000E+02 -0.17099E+05
 0.19949999E+02 -0.31275E+04
 0.19999998E+02 -0.33874E+05
 0.20049999E+02 -0.25877E+05
 0.20099998E+02 -0.12289E+05
 0.20150000E+02 -0.25068E+05
 0.20199999E+02 -0.22907E+04
 0.20249998E+02 -0.17297E+05
 0.20299999E+02 -0.30870E+05
 0.20349998E+02 -0.19349E+05
 0.20399998E+02 -0.16984E+05
 0.20449999E+02 -0.29030E+05
 0.20499998E+02 -0.16752E+05
 0.20549999E+02 -0.97966E+04
 0.20599998E+02 -0.29863E+05
 0.20649998E+02 -0.52474E+05
 0.20699999E+02 -0.85664E+04
 0.20749998E+02 -0.24916E+05
 0.20799999E+02 -0.44606E+05
 0.20849998E+02  0.69967E+04
 0.20899998E+02 -0.11478E+05
 0.20949999E+02 -0.25648E+05
 0.20999998E+02 -0.32845E+05
 0.21049999E+02  0.15672E+05
 0.21099998E+02 -0.23021E+05
 0.21149998E+02 -0.23295E+05
 0.21199999E+02 -0.38058E+05
 0.21249998E+02 -0.62025E+05
 0.21299999E+02 -0.77467E+04
 0.21349998E+02 -0.32311E+05
 0.21399998E+02 -0.47856E+04
 0.21449999E+02 -0.63087E+04
 0.21499998E+02 -0.20172E+05
 0.21549999E+02 -0.19394E+05
 0.21599998E+02 -0.30194E+04
 0.21649998E+02 -0.22107E+05
 0.21699999E+02 -0.44004E+05
 0.21749998E+02 -0.27622E+05
 0.21799999E+02 -0.34123E+05
 0.21849998E+02 -0.13985E+05
 0.21899998E+02  0.14323E+05
 0.21949999E+02 -0.42957E+05
 0.21999998E+02 -0.55394E+05
 0.22049999E+02  0.17478E+05
 0.22099998E+02 -0.33963E+04
 0.22149998E+02 -0.21319E+05
 0.22199999E+02 -0.42622E+05
 0.22249998E+02 -0.32045E+05
 0.22299999E+02 -0.18718E+04
 0.22349998E+02 -0.39708E+05
 0.22399998E+02 -0.51580E+05
 0.22449999E+02 -0.33082E+05
 0.22499998E+02 -0.45593E+05
 0.22549999E+02 -0.24360E+04
 0.22599998E+02  0.48252E+05
 0.22649998E+02 -0.12420E+05
 0.22699999E+02 -0.50896E+05
 0.22749998E+02 -0.30106E+05
 0.22799999E+02  0.58763E+03
 0.22849998E+02 -0.49802E+05
 0.22899998E+02 -0.31825E+05
 0.22949999E+02  0.11889E+05
 0.22999998E+02 -0.13390E+05
 0.23049999E+02 -0.13098E+05
 0.23099998E+02 -0.25273E+05
 0.23149998E+02 -0.28020E+05
 0.23199999E+02 -0.24255E+05
 0.23249998E+02 -0.24145E+05
 0.23299999E+02 -0.13159E+05
 0.23349998E+02 -0.16239E+05
 0.23399998E+02 -0.14033E+05
 0.23449999E+02 -0.12772E+05
 0.23499998E+02 -0.24878E+05
 0.23549999E+02 -0.18638E+05
 0.23599998E+02 -0.56317E+05
 0.23649998E+02 -0.39662E+05
 0.23699999E+02  0.57618E+04
 0.23749998E+02 -0.13329E+05
 0.23799999E+02 -0.35486E+05
 0.23849998E+02 -0.31323E+05
 0.23899998E+02 -0.19876E+05
 0.23949999E+02 -0.54906E+04
 0.23999998E+02 -0.11343E+05
 0.24049999E+02 -0.71786E+04
 0.24099998E+02 -0.14518E+05
 0.24149998E+02 -0.25426E+05
 0.24199999E+02 -0.20137E+05
 0.24249998E+02 -0.39926E+05
 0.24299999E+02 -0.22342E+05
 0.24349998E+02 -0.17933E+05
 0.24399998E+02 -0.16304E+05
 0.24449999E+02 -0.64982E+04
 0.24499998E+02 -0.18064E+05
 0.24549999E+02 -0.20793E+05
 0.24599998E+02 -0.44550E+05
 0.24649998E+02 -0.50276E+05
 0.24699999E+02 -0.30883E+05
 0.24749998E+02 -0.14700E+04
 0.24799999E+02  0.29873E+04
 0.24849998E+02 -0.67701E+04
 0.24899998E+02 -0.12005E+05
 0.24949999E+02 -0.33593E+05
 0.24999998E+02 -0.33961E+05
 0.25049999E+02 -0.38528E+05
 0.25099998E+02 -0.26919E+05
 0.25149998E+02 -0.33642E+05
 0.25199999E+02 -0.30546E+05
 0.25249998E+02 -0.22655E+04
 0.25299999E+02 -0.74820E+04
 0.25349998E+02 -0.12643E+05
 0.25399998E+02 -0.22006E+05
 0.25449999E+02 -0.30940E+05
 0.25499998E+02 -0.23417E+05
 0.25549999E+02 -0.94552E+04
 0.25599998E+02  0.29297E+04
 0.25649998E+02 -0.12334E+05
 0.25699999E+02 -0.27171E+05
 0.25749998E+02 -0.25038E+05
 0.25799999E+02 -0.29216E+05
 0.25849998E+02 -0.28563E+05
 0.25899998E+02 -0.19305E+05
 0.25949999E+02 -0.33250E+05
 0.25999998E+02 -0.45218E+05
 0.26049999E+02 -0.28804E+05
 0.26099998E+02 -0.20790E+05
 0.26149998E+02 -0.15992E+05
 0.26199999E+02 -0.25996E+05
 0.26249998E+02 -0.16097E+05
 0.26299999E+02 -0.63723E+04
 0.26349998E+02 -0.20738E+05
 0.26399998E+02 -0.28158E+05
 0.26449999E+02 -0.16556E+05
 0.26499998E+02 -0.11176E+05
 0.26549999E+02 -0.30610E+05
 0.26599998E+02 -0.45449E+05
 0.26649998E+02 -0.45666E+05
 0.26699999E+02 -0.29541E+05
 0.26749998E+02 -0.63683E+04
 0.26799999E+02  0.72994E+03
 0.26849998E+02  0.21406E+04
 0.26899998E+02  0.76613E+04
 0.26949999E+02 -0.96024E+04
 0.26999998E+02 -0.36607E+05
 0.27049997E+02 -0.50431E+05
 0.27099998E+02 -0.34124E+05
 0.27149998E+02 -0.28988E+05
 0.27199999E+02 -0.38976E+05
 0.27249998E+02 -0.29462E+05
 0.27299997E+02 -0.26115E+04
 0.27349998E+02  0.81512E+04
 0.27399998E+02 -0.13699E+05
 0.27449999E+02 -0.36299E+05
 0.27499998E+02 -0.53240E+05
 0.27549997E+02 -0.37199E+05
 0.27599998E+02 -0.84434E+04
 0.27649998E+02 -0.61089E+04
 0.27699999E+02 -0.14086E+05
 0.27749998E+02 -0.21967E+05
 0.27799997E+02 -0.29686E+05
 0.27849998E+02 -0.24200E+05
 0.27899998E+02 -0.79559E+04
 0.27949999E+02 -0.93858E+04
 0.27999998E+02 -0.18781E+05
 0.28049997E+02 -0.13906E+05
 0.28099998E+02 -0.15124E+05
 0.28149998E+02 -0.19142E+05
 0.28199999E+02 -0.13525E+05
 0.28249998E+02 -0.15306E+05
 0.28299997E+02 -0.30162E+05
 0.28349998E+02 -0.38586E+05
 0.28399998E+02 -0.38903E+05
 0.28449999E+02 -0.42162E+05
 0.28499998E+02 -0.33940E+05
 0.28549997E+02 -0.18298E+05
 0.28599998E+02 -0.11495E+05
 0.28649998E+02  0.39136E+03
 0.28699999E+02  0.57531E+04
 0.28749998E+02 -0.15142E+05
 0.28799997E+02 -0.35108E+05
 0.28849998E+02 -0.33218E+05
 0.28899998E+02 -0.23168E+05
 0.28949999E+02 -0.21396E+05
 0.28999998E+02 -0.23694E+05
 0.29049997E+02 -0.30931E+05
 0.29099998E+02 -0.24111E+05
 0.29149998E+02 -0.14729E+05
 0.29199999E+02 -0.15574E+05
 0.29249998E+02 -0.20464E+05
 0.29299997E+02 -0.29343E+05
 0.29349998E+02 -0.25758E+05
 0.29399998E+02 -0.17442E+05
 0.29449999E+02 -0.80281E+04
 0.29499998E+02 -0.12526E+05
 0.29549997E+02 -0.26968E+05
 0.29599998E+02 -0.36112E+05
 0.29649998E+02 -0.39683E+05
 0.29699999E+02 -0.28532E+05
 0.29749998E+02 -0.14874E+05
 0.29799997E+02 -0.46051E+04
 0.29849998E+02 -0.11201E+05
 0.29899998E+02 -0.35110E+05
 0.29949999E+02 -0.35195E+05
 0.29999998E+02 -0.24362E+05
 0.30049999E+02 -0.21284E+05
 0.30099998E+02 -0.13897E+05
 0.30149998E+02 -0.90844E+04
 0.30199997E+02 -0.12927E+05
 0.30249996E+02 -0.18779E+05
 0.30299999E+02 -0.18004E+05
 0.30349998E+02 -0.24107E+05
 0.30399998E+02 -0.29050E+05
 0.30449997E+02 -0.27912E+05
 0.30499996E+02 -0.17539E+05
 0.30549999E+02 -0.91382E+04
 0.30599998E+02 -0.84801E+04
 0.30649998E+02 -0.13421E+05
 0.30699997E+02 -0.21133E+05
 0.30749996E+02 -0.25537E+05
 0.30799999E+02 -0.32332E+05
 0.30849998E+02 -0.29441E+05
 0.30899998E+02 -0.36142E+05
 0.30949997E+02 -0.31273E+05
 0.30999996E+02 -0.16417E+05
 0.31049999E+02 -0.58826E+04
 0.31099998E+02  0.63518E+04
 0.31149998E+02  0.91431E+04
 0.31199997E+02  0.85846E+04
 0.31249996E+02 -0.25798E+04
 0.31299999E+02 -0.25140E+05
 0.31349998E+02 -0.46337E+05
 0.31399998E+02 -0.52321E+05
 0.31449997E+02 -0.50648E+05
 0.31499996E+02 -0.41753E+05
 0.31549999E+02 -0.26417E+05
 0.31599998E+02 -0.15606E+05
 0.31649998E+02 -0.18603E+05
 0.31699997E+02 -0.23178E+05
 0.31749996E+02 -0.19696E+05
 0.31799999E+02 -0.26106E+05
 0.31849998E+02 -0.33834E+05
 0.31899998E+02 -0.36982E+05
 0.31949997E+02 -0.34513E+05
 0.31999996E+02 -0.23163E+05
 0.32049999E+02 -0.19543E+05
 0.32099998E+02 -0.27308E+05
 0.32149998E+02 -0.32368E+05
 0.32199997E+02 -0.24221E+05
 0.32249996E+02 -0.18151E+05
 0.32299999E+02 -0.12966E+05
 0.32349998E+02  0.17510E+03
 0.32399998E+02  0.36245E+04
 0.32449997E+02  0.47798E+03
 0.32499996E+02 -0.56971E+04
 0.32549999E+02 -0.19307E+05
 0.32599998E+02 -0.27351E+05
 0.32649998E+02 -0.25315E+05
 0.32699997E+02 -0.17205E+05
 0.32749996E+02 -0.75248E+04
 0.32799999E+02 -0.62122E+04
 0.32849998E+02 -0.90368E+04
 0.32899998E+02 -0.67793E+04
 0.32949997E+02 -0.94236E+04
 0.32999996E+02 -0.22455E+05
 0.33049999E+02 -0.37405E+05
 0.33099998E+02 -0.51103E+05
 0.33149998E+02 -0.53214E+05
 0.33199997E+02 -0.55424E+05
 0.33249996E+02 -0.59864E+05
 0.33299999E+02 -0.59503E+05
 0.33349998E+02 -0.49476E+05
 0.33399998E+02 -0.29420E+05
 0.33449997E+02 -0.13058E+05
 0.33499996E+02  0.21200E+04
 0.33549999E+02  0.69441E+04
 0.33599998E+02  0.27407E+04
 0.33649998E+02 -0.24926E+04
 0.33699997E+02 -0.90629E+04
 0.33749996E+02 -0.16697E+05
 0.33799999E+02 -0.18088E+05
 0.33849998E+02 -0.14450E+05
 0.33899998E+02 -0.15155E+05
 0.33949997E+02 -0.16721E+05
 0.33999996E+02 -0.19256E+05
 0.34049999E+02 -0.20529E+05
 0.34099998E+02 -0.19222E+05
 0.34149998E+02 -0.18420E+05
 0.34199997E+02 -0.15917E+05
 0.34249996E+02 -0.82003E+04
 0.34299999E+02  0.26880E+04
 0.34349998E+02  0.60783E+04
 0.34399998E+02 -0.69329E+04
 0.34449997E+02 -0.35138E+05
 0.34499996E+02 -0.52696E+05
 0.34549999E+02 -0.53826E+05
 0.34599998E+02 -0.50219E+05
 0.34649998E+02 -0.42184E+05
 0.34699997E+02 -0.31078E+05
 0.34749996E+02 -0.20989E+05
 0.34799999E+02 -0.12777E+05
 0.34849998E+02 -0.26307E+04
 0.34899998E+02  0.85779E+03
 0.34949997E+02 -0.13520E+04
 0.34999996E+02 -0.88720E+04
 0.35049999E+02 -0.17230E+05
 0.35099998E+02 -0.22176E+05
 0.35149998E+02 -0.29248E+05
 0.35199997E+02 -0.34217E+05
 0.35249996E+02 -0.35856E+05
 0.35299999E+02 -0.31716E+05
 0.35349998E+02 -0.23050E+05
 0.35399998E+02 -0.12267E+05
 0.35449997E+02 -0.76377E+04
 0.35499996E+02 -0.12598E+05
 0.35549999E+02 -0.12229E+05
 0.35599998E+02 -0.16423E+05
 0.35649998E+02 -0.22113E+05
 0.35699997E+02 -0.24465E+05
 0.35749996E+02 -0.31174E+05
 0.35799999E+02 -0.41155E+05
 0.35849998E+02 -0.45323E+05
 0.35899998E+02 -0.41681E+05
 0.35949997E+02 -0.41237E+05
 0.35999996E+02 -0.35091E+05
 0.36049999E+02 -0.24731E+05
 0.36099998E+02 -0.16910E+05
 0.36149998E+02 -0.15829E+05
 0.36199997E+02 -0.19479E+05
 0.36249996E+02 -0.16781E+05
 0.36299999E+02 -0.10074E+05
 0.36349998E+02 -0.97361E+04
 0.36399998E+02 -0.16855E+05
 0.36449997E+02 -0.22113E+05
 0.36499996E+02 -0.22695E+05
 0.36549999E+02 -0.18719E+05
 0.36599998E+02 -0.12876E+05
 0.36649998E+02 -0.80537E+04
 0.36699997E+02 -0.73193E+04
 0.36749996E+02 -0.14269E+05
 0.36799999E+02 -0.24329E+05
 0.36849998E+02 -0.28857E+05
 0.36899998E+02 -0.29244E+05
 0.36949997E+02 -0.27792E+05
 0.36999996E+02 -0.19303E+05
 0.37049999E+02 -0.12921E+05
 0.37099998E+02 -0.10675E+05
 0.37149998E+02 -0.98357E+04
 0.37199997E+02 -0.11567E+05
 0.37249996E+02 -0.14952E+05
 0.37299999E+02 -0.18407E+05
 0.37349998E+02 -0.19338E+05
 0.37399998E+02 -0.17632E+05
 0.37449997E+02 -0.18503E+05
 0.37499996E+02 -0.26114E+05
 0.37549999E+02 -0.33253E+05
 0.37599998E+02 -0.40820E+05
 0.37649998E+02 -0.46054E+05
 0.37699997E+02 -0.44306E+05
 0.37749996E+02 -0.39424E+05
 0.37799999E+02 -0.31102E+05
 0.37849998E+02 -0.23777E+05
 0.37899998E+02 -0.19518E+05
 0.37949997E+02 -0.13066E+05
 0.37999996E+02 -0.82103E+04
 0.38049999E+02 -0.46767E+04
 0.38099998E+02 -0.44550E+04
 0.38149998E+02 -0.11154E+05
 0.38199997E+02 -0.24193E+05
 0.38249996E+02 -0.33841E+05
 0.38299999E+02 -0.31113E+05
 0.38349998E+02 -0.26065E+05
 0.38399998E+02 -0.21095E+05
 0.38449997E+02 -0.15820E+05
 0.38499996E+02 -0.13018E+05
 0.38549999E+02 -0.12901E+05
 0.38599998E+02 -0.17936E+05
 0.38649998E+02 -0.20997E+05
 0.38699997E+02 -0.17973E+05
 0.38749996E+02 -0.13112E+05
 0.38799999E+02 -0.13105E+05
 0.38849998E+02 -0.21420E+05
 0.38899998E+02 -0.26792E+05
 0.38949997E+02 -0.23252E+05
 0.38999996E+02 -0.17991E+05
 0.39049999E+02 -0.14928E+05
 0.39099998E+02 -0.96036E+04
 0.39149998E+02 -0.10648E+05
 0.39199997E+02 -0.14627E+05
 0.39249996E+02 -0.17621E+05
 0.39299999E+02 -0.21740E+05
 0.39349998E+02 -0.24267E+05
 0.39399998E+02 -0.26823E+05
 0.39449997E+02 -0.25411E+05
 0.39499996E+02 -0.22795E+05
 0.39549999E+02 -0.23236E+05
 0.39599998E+02 -0.26379E+05
 0.39649998E+02 -0.30772E+05
 0.39699997E+02 -0.34424E+05
 0.39749996E+02 -0.36709E+05
 0.39799999E+02 -0.40443E+05
 0.39849998E+02 -0.43506E+05
 0.39899998E+02 -0.43606E+05
 0.39949997E+02 -0.39398E+05
 0.39999996E+02 -0.33040E+05
 0.40049999E+02 -0.28958E+05
 0.40099998E+02 -0.24438E+05
 0.40149998E+02 -0.17008E+05
 0.40199997E+02 -0.94960E+04
 0.40249996E+02 -0.82089E+03
 0.40299999E+02  0.39135E+04
 0.40349998E+02  0.22134E+04
 0.40399998E+02 -0.20427E+04
 0.40449997E+02 -0.98104E+04
 0.40499996E+02 -0.16526E+05
 0.40549999E+02 -0.20578E+05
 0.40599998E+02 -0.24682E+05
 0.40649998E+02 -0.30529E+05
 0.40699997E+02 -0.36502E+05
 0.40749996E+02 -0.40496E+05
 0.40799999E+02 -0.39450E+05
 0.40849998E+02 -0.33873E+05
 0.40899998E+02 -0.23047E+05
 0.40949997E+02 -0.98934E+04
 0.40999996E+02 -0.15088E+03
 0.41049999E+02  0.70377E+04
 0.41099998E+02  0.91764E+04
 0.41149998E+02  0.63946E+04
 0.41199997E+02 -0.87096E+03
 0.41249996E+02 -0.10544E+05
 0.41299999E+02 -0.23165E+05
 0.41349998E+02 -0.37667E+05
 0.41399998E+02 -0.46917E+05
 0.41449997E+02 -0.46650E+05
 0.41499996E+02 -0.38900E+05
 0.41549999E+02 -0.31649E+05
 0.41599998E+02 -0.28594E+05
 0.41649998E+02 -0.27629E+05
 0.41699997E+02 -0.25696E+05
 0.41749996E+02 -0.23535E+05
 0.41799999E+02 -0.19581E+05
 0.41849998E+02 -0.14011E+05
 0.41899998E+02 -0.88695E+04
 0.41949997E+02 -0.57035E+04
 0.41999996E+02 -0.89177E+04
 0.42049999E+02 -0.16433E+05
 0.42099998E+02 -0.23026E+05
 0.42149998E+02 -0.27528E+05
 0.42199997E+02 -0.30951E+05
 0.42249996E+02 -0.33250E+05
 0.42299999E+02 -0.33001E+05
 0.42349998E+02 -0.28436E+05
 0.42399998E+02 -0.23562E+05
 0.42449997E+02 -0.23685E+05
 0.42499996E+02 -0.22097E+05
 0.42549999E+02 -0.18339E+05
 0.42599998E+02 -0.15795E+05
 0.42649998E+02 -0.13633E+05
 0.42699997E+02 -0.14518E+05
 0.42749996E+02 -0.16582E+05
 0.42799995E+02 -0.17897E+05
 0.42849998E+02 -0.18569E+05
 0.42899998E+02 -0.18062E+05
 0.42949997E+02 -0.16901E+05
 0.42999996E+02 -0.18254E+05
 0.43049995E+02 -0.18325E+05
 0.43099998E+02 -0.16018E+05
 0.43149998E+02 -0.16322E+05
 0.43199997E+02 -0.19666E+05
 0.43249996E+02 -0.26457E+05
 0.43299995E+02 -0.29448E+05
 0.43349998E+02 -0.29552E+05
 0.43399998E+02 -0.29494E+05
 0.43449997E+02 -0.28735E+05
 0.43499996E+02 -0.29707E+05
 0.43549995E+02 -0.31790E+05
 0.43599998E+02 -0.31654E+05
 0.43649998E+02 -0.28996E+05
 0.43699997E+02 -0.28104E+05
 0.43749996E+02 -0.28786E+05
 0.43799995E+02 -0.29858E+05
 0.43849998E+02 -0.28031E+05
 0.43899998E+02 -0.23452E+05
 0.43949997E+02 -0.17598E+05
 0.43999996E+02 -0.15130E+05
 0.44049995E+02 -0.13226E+05
 0.44099998E+02 -0.10041E+05
 0.44149998E+02 -0.86052E+04
 0.44199997E+02 -0.77266E+04
 0.44249996E+02 -0.81025E+04
 0.44299995E+02 -0.87199E+04
 0.44349998E+02 -0.10948E+05
 0.44399998E+02 -0.13744E+05
 0.44449997E+02 -0.18090E+05
 0.44499996E+02 -0.22501E+05
 0.44549995E+02 -0.25787E+05
 0.44599998E+02 -0.27416E+05
 0.44649998E+02 -0.25992E+05
 0.44699997E+02 -0.22571E+05
 0.44749996E+02 -0.18892E+05
 0.44799995E+02 -0.14740E+05
 0.44849998E+02 -0.11046E+05
 0.44899998E+02 -0.10800E+05
 0.44949997E+02 -0.14844E+05
 0.44999996E+02 -0.24878E+05
 0.45049995E+02 -0.35026E+05
 0.45099998E+02 -0.41873E+05
 0.45149998E+02 -0.45465E+05
 0.45199997E+02 -0.45047E+05
 0.45249996E+02 -0.41022E+05
 0.45299995E+02 -0.33421E+05
 0.45349998E+02 -0.24429E+05
 0.45399998E+02 -0.14258E+05
 0.45449997E+02 -0.52383E+04
 0.45499996E+02  0.30391E+03
 0.45549995E+02  0.26937E+04
 0.45599998E+02  0.52613E+03
 0.45649998E+02 -0.49838E+04
 0.45699997E+02 -0.97701E+04
 0.45749996E+02 -0.15285E+05
 0.45799995E+02 -0.22395E+05
 0.45849998E+02 -0.30517E+05
 0.45899998E+02 -0.35900E+05
 0.45949997E+02 -0.36604E+05
 0.45999996E+02 -0.35093E+05
 0.46049995E+02 -0.31543E+05
 0.46099998E+02 -0.26383E+05
 0.46149998E+02 -0.19641E+05
 0.46199997E+02 -0.15370E+05
 0.46249996E+02 -0.13975E+05
 0.46299995E+02 -0.15410E+05
 0.46349998E+02 -0.19249E+05
 0.46399998E+02 -0.24591E+05
 0.46449997E+02 -0.28649E+05
 0.46499996E+02 -0.31309E+05
 0.46549995E+02 -0.31257E+05
 0.46599998E+02 -0.28425E+05
 0.46649998E+02 -0.25267E+05
 0.46699997E+02 -0.20190E+05
 0.46749996E+02 -0.17184E+05
 0.46799995E+02 -0.15974E+05
 0.46849998E+02 -0.14525E+05
 0.46899998E+02 -0.12664E+05
 0.46949997E+02 -0.15009E+05
 0.46999996E+02 -0.19261E+05
 0.47049995E+02 -0.21460E+05
 0.47099998E+02 -0.21918E+05
 0.47149998E+02 -0.20757E+05
 0.47199997E+02 -0.21762E+05
 0.47249996E+02 -0.24579E+05
 0.47299995E+02 -0.27622E+05
 0.47349998E+02 -0.28909E+05
 0.47399998E+02 -0.27919E+05
 0.47449997E+02 -0.25080E+05
 0.47499996E+02 -0.22273E+05
 0.47549995E+02 -0.19179E+05
 0.47599998E+02 -0.15421E+05
 0.47649998E+02 -0.13188E+05
 0.47699997E+02 -0.13231E+05
 0.47749996E+02 -0.14827E+05
 0.47799995E+02 -0.18195E+05
 0.47849998E+02 -0.21894E+05
 0.47899998E+02 -0.23911E+05
 0.47949997E+02 -0.24431E+05
 0.47999996E+02 -0.24869E+05
 0.48049995E+02 -0.26914E+05
 0.48099998E+02 -0.27370E+05
 0.48149998E+02 -0.27060E+05
 0.48199997E+02 -0.26414E+05
 0.48249996E+02 -0.24128E+05
 0.48299995E+02 -0.21805E+05
 0.48349998E+02 -0.20501E+05
 0.48399998E+02 -0.19803E+05
 0.48449997E+02 -0.20123E+05
 0.48499996E+02 -0.20753E+05
 0.48549995E+02 -0.19792E+05
 0.48599998E+02 -0.18320E+05
 0.48649998E+02 -0.16834E+05
 0.48699997E+02 -0.16057E+05
 0.48749996E+02 -0.16246E+05
 0.48799995E+02 -0.17813E+05
 0.48849998E+02 -0.20068E+05
 0.48899998E+02 -0.22731E+05
 0.48949997E+02 -0.24694E+05
 0.48999996E+02 -0.25474E+05
 0.49049995E+02 -0.25182E+05
 0.49099998E+02 -0.23882E+05
 0.49149998E+02 -0.22774E+05
 0.49199997E+02 -0.20117E+05
 0.49249996E+02 -0.16916E+05
 0.49299995E+02 -0.15163E+05
 0.49349998E+02 -0.15198E+05
 0.49399998E+02 -0.15408E+05
 0.49449997E+02 -0.16315E+05
 0.49499996E+02 -0.18757E+05
 0.49549995E+02 -0.20787E+05
 0.49599998E+02 -0.21975E+05
 0.49649998E+02 -0.22178E+05
 0.49699997E+02 -0.21658E+05
 0.49749996E+02 -0.19685E+05
 0.49799995E+02 -0.16547E+05
 0.49849998E+02 -0.13539E+05
 0.49899998E+02 -0.13231E+05
 0.49949997E+02 -0.16936E+05
 0.49999996E+02 -0.21808E+05
 0.50049995E+02 -0.26703E+05
 0.50099998E+02 -0.29888E+05
 0.50149998E+02 -0.30327E+05
 0.50199997E+02 -0.29728E+05
 0.50249996E+02 -0.28957E+05
 0.50299995E+02 -0.27997E+05
 0.50349998E+02 -0.26474E+05
 0.50399998E+02 -0.24710E+05
 0.50449997E+02 -0.22200E+05
 0.50499996E+02 -0.19544E+05
 0.50549995E+02 -0.18469E+05
 0.50599998E+02 -0.18569E+05
 0.50649998E+02 -0.18820E+05
 0.50699997E+02 -0.19215E+05
 0.50749996E+02 -0.20073E+05
 0.50799995E+02 -0.20835E+05
 0.50849998E+02 -0.20788E+05
 0.50899998E+02 -0.20190E+05
 0.50949997E+02 -0.20799E+05
 0.50999996E+02 -0.22498E+05
 0.51049995E+02 -0.23585E+05
 0.51099998E+02 -0.25642E+05
 0.51149998E+02 -0.28781E+05
 0.51199997E+02 -0.31387E+05
 0.51249996E+02 -0.32439E+05
 0.51299995E+02 -0.32106E+05
 0.51349998E+02 -0.30282E+05
 0.51399998E+02 -0.26459E+05
 0.51449997E+02 -0.22474E+05
 0.51499996E+02 -0.17624E+05
 0.51549995E+02 -0.12839E+05
 0.51599998E+02 -0.10309E+05
 0.51649998E+02 -0.83647E+04
 0.51699997E+02 -0.76877E+04
 0.51749996E+02 -0.88638E+04
 0.51799995E+02 -0.11377E+05
 0.51849998E+02 -0.15789E+05
 0.51899998E+02 -0.20771E+05
 0.51949997E+02 -0.23504E+05
 0.51999996E+02 -0.23868E+05
 0.52049995E+02 -0.23185E+05
 0.52099998E+02 -0.22173E+05
 0.52149998E+02 -0.21584E+05
 0.52199997E+02 -0.21508E+05
 0.52249996E+02 -0.22170E+05
 0.52299995E+02 -0.23743E+05
 0.52349998E+02 -0.26536E+05
 0.52399998E+02 -0.27924E+05
 0.52449997E+02 -0.27535E+05
 0.52499996E+02 -0.27237E+05
 0.52549995E+02 -0.25850E+05
 0.52599998E+02 -0.22826E+05
 0.52649998E+02 -0.19881E+05
 0.52699997E+02 -0.18265E+05
 0.52749996E+02 -0.17963E+05
 0.52799995E+02 -0.18101E+05
 0.52849998E+02 -0.18322E+05
 0.52899998E+02 -0.17889E+05
 0.52949997E+02 -0.16901E+05
 0.52999996E+02 -0.17247E+05
 0.53049995E+02 -0.19406E+05
 0.53099998E+02 -0.21725E+05
 0.53149998E+02 -0.23242E+05
 0.53199997E+02 -0.24918E+05
 0.53249996E+02 -0.25951E+05
 0.53299995E+02 -0.25901E+05
 0.53349998E+02 -0.25360E+05
 0.53399998E+02 -0.24599E+05
 0.53449997E+02 -0.24191E+05
 0.53499996E+02 -0.24171E+05
 0.53549995E+02 -0.23461E+05
 0.53599998E+02 -0.22090E+05
 0.53649998E+02 -0.20337E+05
 0.53699997E+02 -0.18769E+05
 0.53749996E+02 -0.17447E+05
 0.53799995E+02 -0.16637E+05
 0.53849998E+02 -0.17270E+05
 0.53899998E+02 -0.18740E+05
 0.53949997E+02 -0.20984E+05
 0.53999996E+02 -0.23367E+05
 0.54049995E+02 -0.25043E+05
 0.54099998E+02 -0.26093E+05
 0.54149998E+02 -0.26294E+05
 0.54199997E+02 -0.26510E+05
 0.54249996E+02 -0.26712E+05
 0.54299995E+02 -0.25019E+05
 0.54349998E+02 -0.21411E+05
 0.54399998E+02 -0.17877E+05
 0.54449997E+02 -0.15196E+05
 0.54499996E+02 -0.13860E+05
 0.54549995E+02 -0.13213E+05
 0.54599998E+02 -0.13122E+05
 0.54649998E+02 -0.14930E+05
 0.54699997E+02 -0.17418E+05
 0.54749996E+02 -0.19728E+05
 0.54799995E+02 -0.20924E+05
 0.54849998E+02 -0.21403E+05
 0.54899998E+02 -0.22005E+05
 0.54949997E+02 -0.22741E+05
 0.54999996E+02 -0.23468E+05
 0.55049995E+02 -0.22753E+05
 0.55099998E+02 -0.21488E+05
 0.55149998E+02 -0.20475E+05
 0.55199997E+02 -0.19707E+05
 0.55249996E+02 -0.18445E+05
 0.55299995E+02 -0.17034E+05
 0.55349998E+02 -0.17527E+05
 0.55399998E+02 -0.19546E+05
 0.55449997E+02 -0.21882E+05
 0.55499996E+02 -0.23664E+05
 0.55549995E+02 -0.26123E+05
 0.55599998E+02 -0.28644E+05
 0.55649998E+02 -0.29542E+05
 0.55699997E+02 -0.29099E+05
 0.55749996E+02 -0.27910E+05
 0.55799995E+02 -0.25786E+05
 0.55849995E+02 -0.23825E+05
 0.55899998E+02 -0.22299E+05
 0.55949997E+02 -0.21040E+05
 0.55999996E+02 -0.20787E+05
 0.56049995E+02 -0.20082E+05
 0.56099995E+02 -0.18733E+05
 0.56149998E+02 -0.18176E+05
 0.56199997E+02 -0.18976E+05
 0.56249996E+02 -0.20513E+05
 0.56299995E+02 -0.21824E+05
 0.56349995E+02 -0.22580E+05
 0.56399998E+02 -0.23179E+05
 0.56449997E+02 -0.23242E+05
 0.56499996E+02 -0.23031E+05
 0.56549995E+02 -0.22464E+05
 0.56599995E+02 -0.21132E+05
 0.56649998E+02 -0.19088E+05
 0.56699997E+02 -0.16887E+05
 0.56749996E+02 -0.14811E+05
 0.56799995E+02 -0.13723E+05
 0.56849995E+02 -0.13913E+05
 0.56899998E+02 -0.15218E+05
 0.56949997E+02 -0.17479E+05
 0.56999996E+02 -0.19603E+05
 0.57049995E+02 -0.21241E+05
 0.57099995E+02 -0.22366E+05
 0.57149998E+02 -0.23328E+05
 0.57199997E+02 -0.24444E+05
 0.57249996E+02 -0.24702E+05
 0.57299995E+02 -0.24524E+05
 0.57349995E+02 -0.24443E+05
 0.57399998E+02 -0.23990E+05
 0.57449997E+02 -0.23574E+05
 0.57499996E+02 -0.23051E+05
 0.57549995E+02 -0.22948E+05
 0.57599995E+02 -0.22898E+05
 0.57649998E+02 -0.22058E+05
 0.57699997E+02 -0.20316E+05
 0.57749996E+02 -0.18507E+05
 0.57799995E+02 -0.17505E+05
 0.57849995E+02 -0.17484E+05
 0.57899998E+02 -0.18693E+05
 0.57949997E+02 -0.20972E+05
 0.57999996E+02 -0.22787E+05
 0.58049995E+02 -0.22783E+05
 0.58099995E+02 -0.22605E+05
 0.58149998E+02 -0.22516E+05
 0.58199997E+02 -0.21978E+05
 0.58249996E+02 -0.22011E+05
 0.58299995E+02 -0.22488E+05
 0.58349995E+02 -0.22526E+05
 0.58399998E+02 -0.22799E+05
 0.58449997E+02 -0.23510E+05
 0.58499996E+02 -0.24167E+05
 0.58549995E+02 -0.25000E+05
 0.58599995E+02 -0.25748E+05
 0.58649998E+02 -0.26349E+05
 0.58699997E+02 -0.26980E+05
 0.58749996E+02 -0.27565E+05
 0.58799995E+02 -0.26454E+05
 0.58849995E+02 -0.24141E+05
 0.58899998E+02 -0.21792E+05
 0.58949997E+02 -0.18718E+05
 0.58999996E+02 -0.15988E+05
 0.59049995E+02 -0.15060E+05
 0.59099995E+02 -0.15469E+05
 0.59149998E+02 -0.16073E+05
 0.59199997E+02 -0.16513E+05
 0.59249996E+02 -0.17203E+05
 0.59299995E+02 -0.18479E+05
 0.59349995E+02 -0.19874E+05
 0.59399998E+02 -0.21259E+05
 0.59449997E+02 -0.22347E+05
 0.59499996E+02 -0.22775E+05
 0.59549995E+02 -0.22961E+05
 0.59599995E+02 -0.22747E+05
 0.59649998E+02 -0.21994E+05
 0.59699997E+02 -0.21292E+05
 0.59749996E+02 -0.20221E+05
 0.59799995E+02 -0.19793E+05
 0.59849995E+02 -0.20147E+05
 0.59899998E+02 -0.20012E+05
 0.59949997E+02 -0.19958E+05
 0.59999996E+02 -0.19854E+05
 0.60049995E+02 -0.20057E+05
 0.60099995E+02 -0.20818E+05
 0.60149998E+02 -0.21684E+05
 0.60199997E+02 -0.22402E+05
 0.60249996E+02 -0.23193E+05
 0.60299995E+02 -0.23835E+05
 0.60349995E+02 -0.23975E+05
 0.60399998E+02 -0.23328E+05
 0.60449997E+02 -0.22303E+05
 0.60499996E+02 -0.21330E+05
 0.60549995E+02 -0.20278E+05
 0.60599995E+02 -0.19659E+05
 0.60649998E+02 -0.19439E+05
 0.60699997E+02 -0.19114E+05
 0.60749996E+02 -0.18996E+05
 0.60799995E+02 -0.19563E+05
 0.60849995E+02 -0.20097E+05
 0.60899998E+02 -0.21248E+05
 0.60949997E+02 -0.23002E+05
 0.60999996E+02 -0.24688E+05
 0.61049995E+02 -0.26144E+05
 0.61099995E+02 -0.26408E+05
 0.61149998E+02 -0.25471E+05
 0.61199997E+02 -0.24696E+05
 0.61249996E+02 -0.23838E+05
 0.61299995E+02 -0.22396E+05
 0.61349995E+02 -0.21459E+05
 0.61399998E+02 -0.20806E+05
 0.61449997E+02 -0.20441E+05
 0.61499996E+02 -0.20563E+05
 0.61549995E+02 -0.21148E+05
 0.61599995E+02 -0.21719E+05
 0.61649998E+02 -0.21822E+05
 0.61699997E+02 -0.21622E+05
 0.61749996E+02 -0.21622E+05
 0.61799995E+02 -0.21742E+05
 0.61849995E+02 -0.22175E+05
 0.61899998E+02 -0.23056E+05
 0.61949997E+02 -0.23161E+05
 0.61999996E+02 -0.22164E+05
 0.62049995E+02 -0.20777E+05
 0.62099998E+02 -0.19654E+05
 0.62149994E+02 -0.18835E+05
 0.62199997E+02 -0.18502E+05
 0.62249992E+02 -0.18537E+05
 0.62299995E+02 -0.18209E+05
 0.62349998E+02 -0.17438E+05
 0.62399994E+02 -0.17114E+05
 0.62449997E+02 -0.17496E+05
 0.62499992E+02 -0.18620E+05
 0.62549995E+02 -0.19532E+05
 0.62599998E+02 -0.20293E+05
 0.62649994E+02 -0.21435E+05
 0.62699997E+02 -0.22180E+05
 0.62749992E+02 -0.22301E+05
 0.62799995E+02 -0.21660E+05
 0.62849998E+02 -0.21060E+05
 0.62899994E+02 -0.20809E+05
 0.62949997E+02 -0.20764E+05
 0.62999992E+02 -0.21157E+05
 0.63049995E+02 -0.22014E+05
 0.63099998E+02 -0.22574E+05
 0.63149994E+02 -0.22270E+05
 0.63199997E+02 -0.21656E+05
 0.63249992E+02 -0.21656E+05
 0.63299995E+02 -0.22009E+05
 0.63349998E+02 -0.21898E+05
 0.63399994E+02 -0.21733E+05
 0.63449997E+02 -0.22111E+05
 0.63499992E+02 -0.22147E+05
 0.63549995E+02 -0.21315E+05
 0.63599998E+02 -0.20477E+05
 0.63649994E+02 -0.19722E+05
 0.63699997E+02 -0.19523E+05
 0.63749992E+02 -0.19979E+05
 0.63799995E+02 -0.20768E+05
 0.63849998E+02 -0.21948E+05
 0.63899994E+02 -0.23509E+05
 0.63949997E+02 -0.24906E+05
 0.63999992E+02 -0.25524E+05
 0.64049995E+02 -0.25599E+05
 0.64099998E+02 -0.25473E+05
 0.64149994E+02 -0.25061E+05
 0.64199997E+02 -0.23811E+05
 0.64249992E+02 -0.22163E+05
 0.64299995E+02 -0.19919E+05
 0.64349998E+02 -0.17402E+05
 0.64399994E+02 -0.16080E+05
 0.64449997E+02 -0.15888E+05
 0.64499992E+02 -0.16575E+05
 0.64549995E+02 -0.17689E+05
 0.64599998E+02 -0.18819E+05
 0.64649994E+02 -0.20119E+05
 0.64699997E+02 -0.21737E+05
 0.64749992E+02 -0.22889E+05
 0.64799995E+02 -0.23504E+05
 0.64849998E+02 -0.23962E+05
 0.64899994E+02 -0.23918E+05
 0.64949997E+02 -0.23906E+05
 0.64999992E+02 -0.24202E+05
 0.65049995E+02 -0.24210E+05
 0.65099998E+02 -0.23618E+05
 0.65149994E+02 -0.23005E+05
 0.65199997E+02 -0.22680E+05
 0.65249992E+02 -0.22835E+05
 0.65299995E+02 -0.23114E+05
 0.65349998E+02 -0.22997E+05
 0.65399994E+02 -0.22716E+05
 0.65449997E+02 -0.22193E+05
 0.65499992E+02 -0.21494E+05
 0.65549995E+02 -0.20630E+05
 0.65599998E+02 -0.19873E+05
 0.65649994E+02 -0.19756E+05
 0.65699997E+02 -0.19986E+05
 0.65749992E+02 -0.19862E+05
 0.65799995E+02 -0.19801E+05
 0.65849998E+02 -0.20244E+05
 0.65899994E+02 -0.20912E+05
 0.65949997E+02 -0.21183E+05
 0.65999992E+02 -0.20994E+05
 0.66049995E+02 -0.20560E+05
 0.66099998E+02 -0.19943E+05
 0.66149994E+02 -0.19383E+05
 0.66199997E+02 -0.19307E+05
 0.66249992E+02 -0.19714E+05
 0.66299995E+02 -0.20100E+05
 0.66349998E+02 -0.20724E+05
 0.66399994E+02 -0.21470E+05
 0.66449997E+02 -0.22166E+05
 0.66499992E+02 -0.22255E+05
 0.66549995E+02 -0.21629E+05
 0.66599998E+02 -0.20678E+05
 0.66649994E+02 -0.19713E+05
 0.66699997E+02 -0.19578E+05
 0.66749992E+02 -0.20032E+05
 0.66799995E+02 -0.20560E+05
 0.66849998E+02 -0.21183E+05
 0.66899994E+02 -0.22014E+05
 0.66949997E+02 -0.23012E+05
 0.66999992E+02 -0.23347E+05
 0.67049995E+02 -0.23157E+05
 0.67099998E+02 -0.22998E+05
 0.67149994E+02 -0.22761E+05
 0.67199997E+02 -0.22226E+05
 0.67249992E+02 -0.21378E+05
 0.67299995E+02 -0.20643E+05
 0.67349998E+02 -0.20023E+05
 0.67399994E+02 -0.20141E+05
 0.67449997E+02 -0.21225E+05
 0.67499992E+02 -0.22525E+05
 0.67549995E+02 -0.23075E+05
 0.67599998E+02 -0.22646E+05
 0.67649994E+02 -0.21645E+05
 0.67699997E+02 -0.20448E+05
 0.67749992E+02 -0.19478E+05
 0.67799995E+02 -0.18715E+05
 0.67849998E+02 -0.18409E+05
 0.67899994E+02 -0.18642E+05
 0.67949997E+02 -0.19549E+05
 0.67999992E+02 -0.21104E+05
 0.68049995E+02 -0.22862E+05
 0.68099998E+02 -0.24167E+05
 0.68149994E+02 -0.24853E+05
 0.68199997E+02 -0.25315E+05
 0.68249992E+02 -0.25319E+05
 0.68299995E+02 -0.24773E+05
 0.68349998E+02 -0.23873E+05
 0.68399994E+02 -0.22753E+05
 0.68449997E+02 -0.21680E+05
 0.68499992E+02 -0.21228E+05
 0.68549995E+02 -0.21090E+05
 0.68599998E+02 -0.20986E+05
 0.68649994E+02 -0.20739E+05
 0.68699997E+02 -0.20227E+05
 0.68749992E+02 -0.19871E+05
 0.68799995E+02 -0.19898E+05
 0.68849998E+02 -0.20261E+05
 0.68899994E+02 -0.20396E+05
 0.68949997E+02 -0.20296E+05
 0.68999992E+02 -0.19875E+05
 0.69049995E+02 -0.19372E+05
 0.69099998E+02 -0.18815E+05
 0.69149994E+02 -0.18103E+05
 0.69199997E+02 -0.17718E+05
 0.69249992E+02 -0.18027E+05
 0.69299995E+02 -0.19016E+05
 0.69349998E+02 -0.20152E+05
 0.69399994E+02 -0.21277E+05
 0.69449997E+02 -0.22477E+05
 0.69499992E+02 -0.23655E+05
 0.69549995E+02 -0.24268E+05
 0.69599998E+02 -0.24439E+05
 0.69649994E+02 -0.24453E+05
 0.69699997E+02 -0.24081E+05
 0.69749992E+02 -0.23691E+05
 0.69799995E+02 -0.23252E+05
 0.69849998E+02 -0.22588E+05
 0.69899994E+02 -0.21767E+05
 0.69949997E+02 -0.21234E+05
 0.69999992E+02 -0.21214E+05
 0.70049995E+02 -0.21412E+05
 0.70099998E+02 -0.21763E+05
 0.70149994E+02 -0.21764E+05
 0.70199997E+02 -0.21616E+05
 0.70249992E+02 -0.21826E+05
 0.70299995E+02 -0.22213E+05
 0.70349998E+02 -0.22581E+05
 0.70399994E+02 -0.22762E+05
 0.70449997E+02 -0.22634E+05
 0.70499992E+02 -0.22213E+05
 0.70549995E+02 -0.21683E+05
 0.70599998E+02 -0.21334E+05
 0.70649994E+02 -0.21264E+05
 0.70699997E+02 -0.21195E+05
 0.70749992E+02 -0.20984E+05
 0.70799995E+02 -0.20628E+05
 0.70849998E+02 -0.20131E+05
 0.70899994E+02 -0.19602E+05
 0.70949997E+02 -0.19180E+05
 0.70999992E+02 -0.18804E+05
 0.71049995E+02 -0.18702E+05
 0.71099998E+02 -0.19072E+05
 0.71149994E+02 -0.19388E+05
 0.71199997E+02 -0.19753E+05
 0.71249992E+02 -0.20245E+05
 0.71299995E+02 -0.20644E+05
 0.71349998E+02 -0.21026E+05
 0.71399994E+02 -0.21293E+05
 0.71449997E+02 -0.21419E+05
 0.71499992E+02 -0.21893E+05
 0.71549995E+02 -0.22548E+05
 0.71599998E+02 -0.22959E+05
 0.71649994E+02 -0.22934E+05
 0.71699997E+02 -0.22658E+05
 0.71749992E+02 -0.22571E+05
 0.71799995E+02 -0.22192E+05
 0.71849998E+02 -0.21730E+05
 0.71899994E+02 -0.21344E+05
 0.71949997E+02 -0.20960E+05
 0.71999992E+02 -0.20913E+05
 0.72049995E+02 -0.21205E+05
 0.72099998E+02 -0.21397E+05
 0.72149994E+02 -0.21291E+05
 0.72199997E+02 -0.21065E+05
 0.72249992E+02 -0.20942E+05
 0.72299995E+02 -0.20949E+05
 0.72349998E+02 -0.21038E+05
 0.72399994E+02 -0.21175E+05
 0.72449997E+02 -0.21195E+05
 0.72499992E+02 -0.21016E+05
 0.72549995E+02 -0.20807E+05
 0.72599998E+02 -0.20843E+05
 0.72649994E+02 -0.21158E+05
 0.72699997E+02 -0.21677E+05
 0.72749992E+02 -0.21895E+05
 0.72799995E+02 -0.21613E+05
 0.72849998E+02 -0.21068E+05
 0.72899994E+02 -0.20526E+05
 0.72949997E+02 -0.20386E+05
 0.72999992E+02 -0.20690E+05
 0.73049995E+02 -0.21112E+05
 0.73099998E+02 -0.21735E+05
 0.73149994E+02 -0.22509E+05
 0.73199997E+02 -0.23061E+05
 0.73249992E+02 -0.23256E+05
 0.73299995E+02 -0.23181E+05
 0.73349998E+02 -0.23011E+05
 0.73399994E+02 -0.23016E+05
 0.73449997E+02 -0.23052E+05
 0.73499992E+02 -0.23017E+05
 0.73549995E+02 -0.22849E+05
 0.73599998E+02 -0.22355E+05
 0.73649994E+02 -0.21566E+05
 0.73699997E+02 -0.20729E+05
 0.73749992E+02 -0.19909E+05
 0.73799995E+02 -0.19037E+05
 0.73849998E+02 -0.18755E+05
 0.73899994E+02 -0.18972E+05
 0.73949997E+02 -0.19638E+05
 0.73999992E+02 -0.20525E+05
 0.74049995E+02 -0.21225E+05
 0.74099998E+02 -0.21716E+05
 0.74149994E+02 -0.22107E+05
 0.74199997E+02 -0.22617E+05
 0.74249992E+02 -0.22868E+05
 0.74299995E+02 -0.22759E+05
 0.74349998E+02 -0.22664E+05
 0.74399994E+02 -0.22588E+05
 0.74449997E+02 -0.22394E+05
 0.74499992E+02 -0.22031E+05
 0.74549995E+02 -0.21758E+05
 0.74599998E+02 -0.21764E+05
 0.74649994E+02 -0.21698E+05
 0.74699997E+02 -0.21447E+05
 0.74749992E+02 -0.21192E+05
 0.74799995E+02 -0.21142E+05
 0.74849998E+02 -0.21196E+05
 0.74899994E+02 -0.21189E+05
 0.74949997E+02 -0.21340E+05
 0.74999992E+02 -0.21661E+05
 0.75049995E+02 -0.21870E+05
 0.75099998E+02 -0.21942E+05
 0.75149994E+02 -0.21887E+05
 0.75199997E+02 -0.21801E+05
 0.75249992E+02 -0.21354E+05
 0.75299995E+02 -0.20685E+05
 0.75349998E+02 -0.20132E+05
 0.75399994E+02 -0.19521E+05
 0.75449997E+02 -0.19005E+05
 0.75499992E+02 -0.18601E+05
 0.75549995E+02 -0.18279E+05
 0.75599998E+02 -0.18188E+05
 0.75649994E+02 -0.18253E+05
 0.75699997E+02 -0.18547E+05
 0.75749992E+02 -0.19286E+05
 0.75799995E+02 -0.20512E+05
 0.75849998E+02 -0.21678E+05
 0.75899994E+02 -0.22249E+05
 0.75949997E+02 -0.22401E+05
 0.75999992E+02 -0.22254E+05
 0.76049995E+02 -0.21848E+05
 0.76099998E+02 -0.21368E+05
 0.76149994E+02 -0.21060E+05
 0.76199997E+02 -0.20979E+05
 0.76249992E+02 -0.21109E+05
 0.76299995E+02 -0.21127E+05
 0.76349998E+02 -0.20950E+05
 0.76399994E+02 -0.20981E+05
 0.76449997E+02 -0.21399E+05
 0.76499992E+02 -0.21833E+05
 0.76549995E+02 -0.22260E+05
 0.76599998E+02 -0.22842E+05
 0.76649994E+02 -0.23427E+05
 0.76699997E+02 -0.23506E+05
 0.76749992E+02 -0.23183E+05
 0.76799995E+02 -0.23141E+05
 0.76849998E+02 -0.23326E+05
 0.76899994E+02 -0.23515E+05
 0.76949997E+02 -0.23723E+05
 0.76999992E+02 -0.23818E+05
 0.77049995E+02 -0.23578E+05
 0.77099998E+02 -0.23257E+05
 0.77149994E+02 -0.22838E+05
 0.77199997E+02 -0.22404E+05
 0.77249992E+02 -0.21895E+05
 0.77299995E+02 -0.21429E+05
 0.77349998E+02 -0.21038E+05
 0.77399994E+02 -0.20524E+05
 0.77449997E+02 -0.19951E+05
 0.77499992E+02 -0.19194E+05
 0.77549995E+02 -0.18614E+05
 0.77599998E+02 -0.18424E+05
 0.77649994E+02 -0.18702E+05
 0.77699997E+02 -0.19310E+05
 0.77749992E+02 -0.19894E+05
 0.77799995E+02 -0.20573E+05
 0.77849998E+02 -0.21051E+05
 0.77899994E+02 -0.21139E+05
 0.77949997E+02 -0.21035E+05
 0.77999992E+02 -0.20956E+05
 0.78049995E+02 -0.20984E+05
 0.78099998E+02 -0.20906E+05
 0.78149994E+02 -0.20703E+05
 0.78199997E+02 -0.20702E+05
 0.78249992E+02 -0.20807E+05
 0.78299995E+02 -0.20942E+05
 0.78349998E+02 -0.21430E+05
 0.78399994E+02 -0.21869E+05
 0.78449997E+02 -0.22174E+05
 0.78499992E+02 -0.22439E+05
 0.78549995E+02 -0.22762E+05
 0.78599998E+02 -0.22950E+05
 0.78649994E+02 -0.22926E+05
 0.78699997E+02 -0.22753E+05
 0.78749992E+02 -0.22388E+05
 0.78799995E+02 -0.21991E+05
 0.78849998E+02 -0.21596E+05
 0.78899994E+02 -0.21574E+05
 0.78949997E+02 -0.21750E+05
 0.78999992E+02 -0.21848E+05
 0.79049995E+02 -0.21640E+05
 0.79099998E+02 -0.21255E+05
 0.79149994E+02 -0.21019E+05
 0.79199997E+02 -0.21134E+05
 0.79249992E+02 -0.21476E+05
 0.79299995E+02 -0.21707E+05
 0.79349998E+02 -0.21687E+05
 0.79399994E+02 -0.21478E+05
 0.79449997E+02 -0.21256E+05
 0.79499992E+02 -0.21024E+05
 0.79549995E+02 -0.20923E+05
 0.79599998E+02 -0.21006E+05
 0.79649994E+02 -0.21248E+05
 0.79699997E+02 -0.21528E+05
 0.79749992E+02 -0.21541E+05
 0.79799995E+02 -0.21435E+05
 0.79849998E+02 -0.21350E+05
 0.79899994E+02 -0.21242E+05
 0.79949997E+02 -0.21298E+05
 0.79999992E+02 -0.21199E+05
 0.80049995E+02 -0.21193E+05
 0.80099998E+02 -0.21521E+05
 0.80149994E+02 -0.22162E+05
 0.80199997E+02 -0.22757E+05
 0.80249992E+02 -0.23045E+05
 0.80299995E+02 -0.23024E+05
 0.80349998E+02 -0.22716E+05
 0.80399994E+02 -0.22425E+05
 0.80449997E+02 -0.22032E+05
 0.80499992E+02 -0.21264E+05
 0.80549995E+02 -0.20365E+05
 0.80599998E+02 -0.19654E+05
 0.80649994E+02 -0.19030E+05
 0.80699997E+02 -0.18805E+05
 0.80749992E+02 -0.18829E+05
 0.80799995E+02 -0.18967E+05
 0.80849998E+02 -0.19228E+05
 0.80899994E+02 -0.19451E+05
 0.80949997E+02 -0.19599E+05
 0.80999992E+02 -0.19684E+05
 0.81049995E+02 -0.19778E+05
 0.81099998E+02 -0.19960E+05
 0.81149994E+02 -0.20323E+05
 0.81199997E+02 -0.20747E+05
 0.81249992E+02 -0.21091E+05
 0.81299995E+02 -0.21256E+05
 0.81349998E+02 -0.21329E+05
 0.81399994E+02 -0.21512E+05
 0.81449997E+02 -0.21661E+05
 0.81499992E+02 -0.21866E+05
 0.81549995E+02 -0.22023E+05
 0.81599998E+02 -0.22140E+05
 0.81649994E+02 -0.22327E+05
 0.81699997E+02 -0.22445E+05
 0.81749992E+02 -0.22462E+05
 0.81799995E+02 -0.22362E+05
 0.81849998E+02 -0.22399E+05
 0.81899994E+02 -0.22660E+05
 0.81949997E+02 -0.23066E+05
 0.81999992E+02 -0.23250E+05
 0.82049995E+02 -0.23191E+05
 0.82099998E+02 -0.23276E+05
 0.82149994E+02 -0.23631E+05
 0.82199997E+02 -0.23754E+05
 0.82249992E+02 -0.23540E+05
 0.82299995E+02 -0.23088E+05
 0.82349998E+02 -0.22468E+05
 0.82399994E+02 -0.22036E+05
 0.82449997E+02 -0.21844E+05
 0.82499992E+02 -0.21544E+05
 0.82549995E+02 -0.21071E+05
 0.82599998E+02 -0.20593E+05
 0.82649994E+02 -0.20049E+05
 0.82699997E+02 -0.19676E+05
 0.82749992E+02 -0.19654E+05
 0.82799995E+02 -0.20005E+05
 0.82849998E+02 -0.20377E+05
 0.82899994E+02 -0.20833E+05
 0.82949997E+02 -0.21323E+05
 0.82999992E+02 -0.21434E+05
 0.83049995E+02 -0.21296E+05
 0.83099998E+02 -0.21027E+05
 0.83149994E+02 -0.20840E+05
 0.83199997E+02 -0.20791E+05
 0.83249992E+02 -0.20648E+05
 0.83299995E+02 -0.20499E+05
 0.83349998E+02 -0.20453E+05
 0.83399994E+02 -0.20551E+05
 0.83449997E+02 -0.20630E+05
 0.83499992E+02 -0.20564E+05
 0.83549995E+02 -0.20719E+05
 0.83599998E+02 -0.21096E+05
 0.83649994E+02 -0.21463E+05
 0.83699997E+02 -0.21721E+05
 0.83749992E+02 -0.21861E+05
 0.83799995E+02 -0.21967E+05
 0.83849998E+02 -0.22327E+05
 0.83899994E+02 -0.22555E+05
 0.83949997E+02 -0.22389E+05
 0.83999992E+02 -0.21993E+05
 0.84049995E+02 -0.21389E+05
 0.84099998E+02 -0.20915E+05
 0.84149994E+02 -0.20704E+05
 0.84199997E+02 -0.20688E+05
 0.84249992E+02 -0.20713E+05
 0.84299995E+02 -0.20839E+05
 0.84349998E+02 -0.20903E+05
 0.84399994E+02 -0.20938E+05
 0.84449997E+02 -0.20951E+05
 0.84499992E+02 -0.20891E+05
 0.84549995E+02 -0.20775E+05
 0.84599998E+02 -0.20556E+05
 0.84649994E+02 -0.20357E+05
 0.84699997E+02 -0.20307E+05
 0.84749992E+02 -0.20621E+05
 0.84799995E+02 -0.21177E+05
 0.84849998E+02 -0.21599E+05
 0.84899994E+02 -0.21944E+05
 0.84949997E+02 -0.22316E+05
 0.84999992E+02 -0.22574E+05
 0.85049995E+02 -0.22836E+05
 0.85099998E+02 -0.22888E+05
 0.85149994E+02 -0.22612E+05
 0.85199997E+02 -0.22250E+05
 0.85249992E+02 -0.21903E+05
 0.85299995E+02 -0.21354E+05
 0.85349998E+02 -0.20770E+05
 0.85399994E+02 -0.20349E+05
 0.85449997E+02 -0.20061E+05
 0.85499992E+02 -0.20166E+05
 0.85549995E+02 -0.20514E+05
 0.85599998E+02 -0.20695E+05
 0.85649994E+02 -0.20607E+05
 0.85699997E+02 -0.20543E+05
 0.85749992E+02 -0.20509E+05
 0.85799995E+02 -0.20442E+05
 0.85849998E+02 -0.20384E+05
 0.85899994E+02 -0.20371E+05
 0.85949997E+02 -0.20512E+05
 0.85999992E+02 -0.20684E+05
 0.86049995E+02 -0.20988E+05
 0.86099998E+02 -0.21498E+05
 0.86149994E+02 -0.22058E+05
 0.86199997E+02 -0.22402E+05
 0.86249992E+02 -0.22440E+05
 0.86299995E+02 -0.22575E+05
 0.86349998E+02 -0.22646E+05
 0.86399994E+02 -0.22513E+05
 0.86449997E+02 -0.22286E+05
 0.86499992E+02 -0.22025E+05
 0.86549995E+02 -0.21858E+05
 0.86599998E+02 -0.21799E+05
 0.86649994E+02 -0.21804E+05
 0.86699997E+02 -0.21860E+05
 0.86749992E+02 -0.21988E+05
 0.86799995E+02 -0.22357E+05
 0.86849998E+02 -0.22796E+05
 0.86899994E+02 -0.22957E+05
 0.86949997E+02 -0.22966E+05
 0.86999992E+02 -0.22798E+05
 0.87049995E+02 -0.22449E+05
 0.87099998E+02 -0.22127E+05
 0.87149994E+02 -0.21764E+05
 0.87199997E+02 -0.21358E+05
 0.87249992E+02 -0.21040E+05
 0.87299995E+02 -0.20888E+05
 0.87349998E+02 -0.20907E+05
 0.87399994E+02 -0.20897E+05
 0.87449997E+02 -0.20893E+05
 0.87499992E+02 -0.20858E+05
 0.87549995E+02 -0.20635E+05
 0.87599991E+02 -0.20414E+05
 0.87649994E+02 -0.20384E+05
 0.87699997E+02 -0.20525E+05
 0.87749992E+02 -0.20775E+05
 0.87799995E+02 -0.20972E+05
 0.87849991E+02 -0.21066E+05
 0.87899994E+02 -0.20912E+05
 0.87949997E+02 -0.20586E+05
 0.87999992E+02 -0.20378E+05
 0.88049995E+02 -0.20448E+05
 0.88099991E+02 -0.20619E+05
 0.88149994E+02 -0.20725E+05
 0.88199997E+02 -0.20914E+05
 0.88249992E+02 -0.21151E+05
 0.88299995E+02 -0.21227E+05
 0.88349991E+02 -0.21285E+05
 0.88399994E+02 -0.21469E+05
 0.88449997E+02 -0.21630E+05
 0.88499992E+02 -0.21755E+05
 0.88549995E+02 -0.21774E+05
 0.88599991E+02 -0.21717E+05
 0.88649994E+02 -0.21720E+05
 0.88699997E+02 -0.21642E+05
 0.88749992E+02 -0.21522E+05
 0.88799995E+02 -0.21500E+05
 0.88849991E+02 -0.21564E+05
 0.88899994E+02 -0.21734E+05
 0.88949997E+02 -0.21798E+05
 0.88999992E+02 -0.21667E+05
 0.89049995E+02 -0.21438E+05
 0.89099991E+02 -0.21198E+05
 0.89149994E+02 -0.20965E+05
 0.89199997E+02 -0.20922E+05
 0.89249992E+02 -0.21137E+05
 0.89299995E+02 -0.21415E+05
 0.89349991E+02 -0.21729E+05
 0.89399994E+02 -0.21943E+05
 0.89449997E+02 -0.22009E+05
 0.89499992E+02 -0.21870E+05
 0.89549995E+02 -0.21674E+05
 0.89599991E+02 -0.21549E+05
 0.89649994E+02 -0.21519E+05
 0.89699997E+02 -0.21576E+05
 0.89749992E+02 -0.21525E+05
 0.89799995E+02 -0.21369E+05
 0.89849991E+02 -0.21224E+05
 0.89899994E+02 -0.21103E+05
 0.89949997E+02 -0.20924E+05
 0.89999992E+02 -0.20840E+05
 0.90049995E+02 -0.20908E+05
 0.90099991E+02 -0.21028E+05
 0.90149994E+02 -0.21189E+05
 0.90199997E+02 -0.21244E+05
 0.90249992E+02 -0.21021E+05
 0.90299995E+02 -0.20812E+05
 0.90349991E+02 -0.20892E+05
 0.90399994E+02 -0.21193E+05
 0.90449997E+02 -0.21484E+05
 0.90499992E+02 -0.21703E+05
 0.90549995E+02 -0.21777E+05
 0.90599991E+02 -0.21741E+05
 0.90649994E+02 -0.21603E+05
 0.90699997E+02 -0.21386E+05
 0.90749992E+02 -0.21212E+05
 0.90799995E+02 -0.21026E+05
 0.90849991E+02 -0.20798E+05
 0.90899994E+02 -0.20593E+05
 0.90949997E+02 -0.20463E+05
 0.90999992E+02 -0.20467E+05
 0.91049995E+02 -0.20662E+05
 0.91099991E+02 -0.20953E+05
 0.91149994E+02 -0.21271E+05
 0.91199997E+02 -0.21553E+05
 0.91249992E+02 -0.21839E+05
 0.91299995E+02 -0.22256E+05
 0.91349991E+02 -0.22715E+05
 0.91399994E+02 -0.22974E+05
 0.91449997E+02 -0.22985E+05
 0.91499992E+02 -0.22743E+05
 0.91549995E+02 -0.22397E+05
 0.91599991E+02 -0.22053E+05
 0.91649994E+02 -0.21666E+05
 0.91699997E+02 -0.21161E+05
 0.91749992E+02 -0.20585E+05
 0.91799995E+02 -0.20238E+05
 0.91849991E+02 -0.20176E+05
 0.91899994E+02 -0.20135E+05
 0.91949997E+02 -0.20152E+05
 0.91999992E+02 -0.20291E+05
 0.92049995E+02 -0.20441E+05
 0.92099991E+02 -0.20708E+05
 0.92149994E+02 -0.21213E+05
 0.92199997E+02 -0.21750E+05
 0.92249992E+02 -0.22167E+05
 0.92299995E+02 -0.22588E+05
 0.92349991E+02 -0.23031E+05
 0.92399994E+02 -0.23337E+05
 0.92449997E+02 -0.23366E+05
 0.92499992E+02 -0.23125E+05
 0.92549995E+02 -0.22609E+05
 0.92599991E+02 -0.22027E+05
 0.92649994E+02 -0.21529E+05
 0.92699997E+02 -0.21237E+05
 0.92749992E+02 -0.21043E+05
 0.92799995E+02 -0.20775E+05
 0.92849991E+02 -0.20591E+05
 0.92899994E+02 -0.20579E+05
 0.92949997E+02 -0.20773E+05
 0.92999992E+02 -0.20909E+05
 0.93049995E+02 -0.20925E+05
 0.93099991E+02 -0.20803E+05
 0.93149994E+02 -0.20614E+05
 0.93199997E+02 -0.20426E+05
 0.93249992E+02 -0.20248E+05
 0.93299995E+02 -0.20173E+05
 0.93349991E+02 -0.20134E+05
 0.93399994E+02 -0.20092E+05
 0.93449997E+02 -0.20115E+05
 0.93499992E+02 -0.20233E+05
 0.93549995E+02 -0.20438E+05
 0.93599991E+02 -0.20863E+05
 0.93649994E+02 -0.21352E+05
 0.93699997E+02 -0.21790E+05
 0.93749992E+02 -0.22042E+05
 0.93799995E+02 -0.22109E+05
 0.93849991E+02 -0.22139E+05
 0.93899994E+02 -0.22147E+05
 0.93949997E+02 -0.22148E+05
 0.93999992E+02 -0.22179E+05
 0.94049995E+02 -0.22214E+05
 0.94099991E+02 -0.22041E+05
 0.94149994E+02 -0.21754E+05
 0.94199997E+02 -0.21459E+05
 0.94249992E+02 -0.21210E+05
 0.94299995E+02 -0.21096E+05
 0.94349991E+02 -0.21099E+05
 0.94399994E+02 -0.21129E+05
 0.94449997E+02 -0.21126E+05
 0.94499992E+02 -0.21189E+05
 0.94549995E+02 -0.21310E+05
 0.94599991E+02 -0.21446E+05
 0.94649994E+02 -0.21556E+05
 0.94699997E+02 -0.21631E+05
 0.94749992E+02 -0.21670E+05
 0.94799995E+02 -0.21706E+05
 0.94849991E+02 -0.21603E+05
 0.94899994E+02 -0.21462E+05
 0.94949997E+02 -0.21411E+05
 0.94999992E+02 -0.21464E+05
 0.95049995E+02 -0.21615E+05
 0.95099991E+02 -0.21662E+05
 0.95149994E+02 -0.21621E+05
 0.95199997E+02 -0.21633E+05
 0.95249992E+02 -0.21698E+05
 0.95299995E+02 -0.21746E+05
 0.95349991E+02 -0.21789E+05
 0.95399994E+02 -0.21697E+05
 0.95449997E+02 -0.21468E+05
 0.95499992E+02 -0.21253E+05
 0.95549995E+02 -0.21142E+05
 0.95599991E+02 -0.21057E+05
 0.95649994E+02 -0.20907E+05
 0.95699997E+02 -0.20785E+05
 0.95749992E+02 -0.20694E+05
 0.95799995E+02 -0.20666E+05
 0.95849991E+02 -0.20822E+05
 0.95899994E+02 -0.20990E+05
 0.95949997E+02 -0.21056E+05
 0.95999992E+02 -0.21213E+05
 0.96049995E+02 -0.21399E+05
 0.96099991E+02 -0.21334E+05
 0.96149994E+02 -0.21195E+05
 0.96199997E+02 -0.21102E+05
 0.96249992E+02 -0.21113E+05
 0.96299995E+02 -0.21237E+05
 0.96349991E+02 -0.21273E+05
 0.96399994E+02 -0.21186E+05
 0.96449997E+02 -0.21095E+05
 0.96499992E+02 -0.21097E+05
 0.96549995E+02 -0.21222E+05
 0.96599991E+02 -0.21427E+05
 0.96649994E+02 -0.21558E+05
 0.96699997E+02 -0.21610E+05
 0.96749992E+02 -0.21671E+05
 0.96799995E+02 -0.21814E+05
 0.96849991E+02 -0.22060E+05
 0.96899994E+02 -0.22210E+05
 0.96949997E+02 -0.22268E+05
 0.96999992E+02 -0.22274E+05
 0.97049995E+02 -0.22163E+05
 0.97099991E+02 -0.22045E+05
 0.97149994E+02 -0.21766E+05
 0.97199997E+02 -0.21379E+05
 0.97249992E+02 -0.21018E+05
 0.97299995E+02 -0.20809E+05
 0.97349991E+02 -0.20903E+05
 0.97399994E+02 -0.21063E+05
 0.97449997E+02 -0.21168E+05
 0.97499992E+02 -0.21068E+05
 0.97549995E+02 -0.20854E+05
 0.97599991E+02 -0.20713E+05
 0.97649994E+02 -0.20591E+05
 0.97699997E+02 -0.20596E+05
 0.97749992E+02 -0.20856E+05
 0.97799995E+02 -0.21126E+05
 0.97849991E+02 -0.21345E+05
 0.97899994E+02 -0.21576E+05
 0.97949997E+02 -0.21628E+05
 0.97999992E+02 -0.21594E+05
