-0.20000000E+01  0.25991E+04
-0.19500000E+01  0.25839E+04
-0.19000000E+01  0.25957E+04
-0.18500000E+01  0.25955E+04
-0.18000000E+01  0.25943E+04
-0.17500000E+01  0.25907E+04
-0.17000000E+01  0.25888E+04
-0.16500001E+01  0.25911E+04
-0.16000000E+01  0.25949E+04
-0.15500000E+01  0.25904E+04
-0.15000000E+01  0.25874E+04
-0.14500000E+01  0.25891E+04
-0.14000001E+01  0.25838E+04
-0.13500000E+01  0.25820E+04
-0.13000001E+01  0.25836E+04
-0.12500000E+01  0.25858E+04
-0.12000000E+01  0.25860E+04
-0.11500001E+01  0.25818E+04
-0.11000000E+01  0.25830E+04
-0.10500001E+01  0.25840E+04
-0.10000000E+01  0.25826E+04
-0.95000005E+00  0.25837E+04
-0.90000010E+00  0.25871E+04
-0.85000002E+00  0.25907E+04
-0.80000007E+00  0.25939E+04
-0.75000012E+00  0.25951E+04
-0.70000005E+00  0.25964E+04
-0.65000010E+00  0.25945E+04
-0.60000014E+00  0.25940E+04
-0.55000007E+00  0.25978E+04
-0.50000012E+00  0.25985E+04
-0.45000005E+00  0.25976E+04
-0.40000010E+00  0.25972E+04
-0.35000014E+00  0.26005E+04
-0.30000007E+00  0.26010E+04
-0.25000012E+00  0.26017E+04
-0.20000005E+00  0.26020E+04
-0.15000010E+00  0.26051E+04
-0.10000014E+00  0.26048E+04
-0.50000072E-01  0.26011E+04
-0.11920929E-06  0.26027E+04
 0.49999952E-01  0.26025E+04
 0.99999905E-01  0.26010E+04
 0.14999986E+00  0.25996E+04
 0.19999981E+00  0.26002E+04
 0.24999976E+00  0.26012E+04
 0.29999995E+00  0.25983E+04
 0.34999990E+00  0.25964E+04
 0.39999986E+00  0.25983E+04
 0.44999981E+00  0.25972E+04
 0.49999976E+00  0.25970E+04
 0.54999995E+00  0.25941E+04
 0.59999990E+00  0.25922E+04
 0.64999986E+00  0.25878E+04
 0.69999981E+00  0.25900E+04
 0.74999976E+00  0.25929E+04
 0.79999971E+00  0.25921E+04
 0.84999990E+00  0.25894E+04
 0.89999986E+00  0.25856E+04
 0.94999981E+00  0.25861E+04
 0.99999976E+00  0.25804E+04
 0.10499997E+01  0.25796E+04
 0.10999999E+01  0.25774E+04
 0.11499999E+01  0.25756E+04
 0.11999998E+01  0.25766E+04
 0.12499998E+01  0.25807E+04
 0.12999997E+01  0.25809E+04
 0.13499999E+01  0.25791E+04
 0.13999999E+01  0.25775E+04
 0.14499998E+01  0.25796E+04
 0.14999998E+01  0.25849E+04
 0.15499997E+01  0.25871E+04
 0.15999999E+01  0.25882E+04
 0.16499999E+01  0.25908E+04
 0.16999998E+01  0.25929E+04
 0.17499998E+01  0.25948E+04
 0.17999997E+01  0.25990E+04
 0.18499997E+01  0.26014E+04
 0.18999999E+01  0.26053E+04
 0.19499998E+01  0.26059E+04
 0.19999998E+01  0.26069E+04
 0.20499997E+01  0.26057E+04
 0.20999999E+01  0.26079E+04
 0.21499996E+01  0.26069E+04
 0.21999998E+01  0.26041E+04
 0.22499995E+01  0.26020E+04
 0.22999997E+01  0.26002E+04
 0.23499999E+01  0.26010E+04
 0.23999996E+01  0.26004E+04
 0.24499998E+01  0.25989E+04
 0.24999995E+01  0.25960E+04
 0.25499997E+01  0.25946E+04
 0.25999999E+01  0.25936E+04
 0.26499996E+01  0.25900E+04
 0.26999998E+01  0.25843E+04
 0.27499995E+01  0.25828E+04
 0.27999997E+01  0.25849E+04
 0.28499999E+01  0.25852E+04
 0.28999996E+01  0.25865E+04
 0.29499998E+01  0.25886E+04
 0.29999995E+01  0.25908E+04
 0.30499997E+01  0.25917E+04
 0.30999999E+01  0.25894E+04
 0.31499996E+01  0.25908E+04
 0.31999998E+01  0.25916E+04
 0.32499995E+01  0.25933E+04
 0.32999997E+01  0.25916E+04
 0.33499999E+01  0.25908E+04
 0.33999996E+01  0.25939E+04
 0.34499998E+01  0.25950E+04
 0.34999995E+01  0.25956E+04
 0.35499997E+01  0.25938E+04
 0.35999994E+01  0.25929E+04
 0.36499996E+01  0.25925E+04
 0.36999998E+01  0.25890E+04
 0.37499995E+01  0.25905E+04
 0.37999997E+01  0.25917E+04
 0.38499994E+01  0.25863E+04
 0.38999996E+01  0.25831E+04
 0.39499998E+01  0.25870E+04
 0.39999995E+01  0.25913E+04
 0.40499997E+01  0.25918E+04
 0.40999994E+01  0.25915E+04
 0.41499996E+01  0.25940E+04
 0.41999998E+01  0.25972E+04
 0.42499995E+01  0.25958E+04
 0.42999997E+01  0.25989E+04
 0.43499994E+01  0.26012E+04
 0.43999996E+01  0.25995E+04
 0.44499998E+01  0.25978E+04
 0.44999995E+01  0.25965E+04
 0.45499997E+01  0.25953E+04
 0.45999994E+01  0.25941E+04
 0.46499996E+01  0.25946E+04
 0.46999998E+01  0.25964E+04
 0.47499995E+01  0.25939E+04
 0.47999997E+01  0.25921E+04
 0.48499994E+01  0.25916E+04
 0.48999996E+01  0.25884E+04
 0.49499998E+01  0.25871E+04
 0.49999995E+01  0.25844E+04
 0.50499997E+01  0.25853E+04
 0.50999994E+01  0.25808E+04
 0.51499996E+01  0.25786E+04
 0.51999998E+01  0.25823E+04
 0.52499995E+01  0.25836E+04
 0.52999997E+01  0.25854E+04
 0.53499994E+01  0.25856E+04
 0.53999996E+01  0.25905E+04
 0.54499993E+01  0.25928E+04
 0.54999995E+01  0.25927E+04
 0.55499997E+01  0.25950E+04
 0.55999994E+01  0.25972E+04
 0.56499996E+01  0.25973E+04
 0.56999993E+01  0.25976E+04
 0.57499995E+01  0.25958E+04
 0.57999997E+01  0.25953E+04
 0.58499994E+01  0.25979E+04
 0.58999996E+01  0.25945E+04
 0.59499993E+01  0.25893E+04
 0.59999995E+01  0.25873E+04
 0.60499992E+01  0.25886E+04
 0.60999994E+01  0.25907E+04
 0.61499996E+01  0.25926E+04
 0.61999998E+01  0.25936E+04
 0.62499990E+01  0.25922E+04
 0.62999992E+01  0.25906E+04
 0.63499994E+01  0.25890E+04
 0.63999996E+01  0.25864E+04
 0.64499998E+01  0.25861E+04
 0.64999990E+01  0.25862E+04
 0.65499992E+01  0.25847E+04
 0.65999994E+01  0.25872E+04
 0.66499996E+01  0.25905E+04
 0.66999998E+01  0.25908E+04
 0.67499990E+01  0.25902E+04
 0.67999992E+01  0.25886E+04
 0.68499994E+01  0.25927E+04
 0.68999996E+01  0.25962E+04
 0.69499998E+01  0.25965E+04
 0.69999990E+01  0.25959E+04
 0.70499992E+01  0.25957E+04
 0.70999994E+01  0.25957E+04
 0.71499996E+01  0.25952E+04
 0.71999998E+01  0.25936E+04
 0.72499990E+01  0.25936E+04
 0.72999992E+01  0.25923E+04
 0.73499994E+01  0.25880E+04
 0.73999996E+01  0.25842E+04
 0.74499998E+01  0.25849E+04
 0.74999990E+01  0.25887E+04
 0.75499992E+01  0.25885E+04
 0.75999994E+01  0.25879E+04
 0.76499996E+01  0.25889E+04
 0.76999998E+01  0.25911E+04
 0.77499990E+01  0.25917E+04
 0.77999992E+01  0.25918E+04
 0.78499994E+01  0.25916E+04
 0.78999996E+01  0.25955E+04
 0.79499998E+01  0.26008E+04
 0.79999990E+01  0.26011E+04
 0.80499992E+01  0.25989E+04
 0.80999994E+01  0.25947E+04
 0.81499996E+01  0.25932E+04
 0.81999998E+01  0.25924E+04
 0.82499990E+01  0.25875E+04
 0.82999992E+01  0.25865E+04
 0.83499994E+01  0.25858E+04
 0.83999996E+01  0.25861E+04
 0.84499998E+01  0.25858E+04
 0.84999990E+01  0.25888E+04
 0.85499992E+01  0.25927E+04
 0.85999994E+01  0.25909E+04
 0.86499996E+01  0.25911E+04
 0.86999998E+01  0.25901E+04
 0.87499990E+01  0.25924E+04
 0.87999992E+01  0.25929E+04
 0.88499994E+01  0.25920E+04
 0.88999996E+01  0.25936E+04
 0.89499998E+01  0.25948E+04
 0.89999990E+01  0.25974E+04
 0.90499992E+01  0.25946E+04
 0.90999994E+01  0.25955E+04
 0.91499996E+01  0.25993E+04
 0.91999989E+01  0.25978E+04
 0.92499990E+01  0.25994E+04
 0.92999992E+01  0.26019E+04
 0.93499994E+01  0.26038E+04
 0.93999996E+01  0.26040E+04
 0.94499989E+01  0.26035E+04
 0.94999990E+01  0.26022E+04
 0.95499992E+01  0.26032E+04
 0.95999994E+01  0.26026E+04
 0.96499996E+01  0.25956E+04
 0.96999989E+01  0.25950E+04
 0.97499990E+01  0.25958E+04
 0.97999992E+01  0.25912E+04
 0.98499994E+01  0.25906E+04
 0.98999996E+01  0.25889E+04
 0.99499989E+01  0.25852E+04
 0.99999990E+01  0.25876E+04
 0.10049999E+02  0.25864E+04
 0.10099999E+02  0.25852E+04
 0.10150000E+02  0.25872E+04
 0.10199999E+02  0.25875E+04
 0.10249999E+02  0.25888E+04
 0.10299999E+02  0.25892E+04
 0.10349999E+02  0.25891E+04
 0.10400000E+02  0.25905E+04
 0.10449999E+02  0.25932E+04
 0.10499999E+02  0.25946E+04
 0.10549999E+02  0.25941E+04
 0.10599999E+02  0.25918E+04
 0.10650000E+02  0.25920E+04
 0.10699999E+02  0.25906E+04
 0.10749999E+02  0.25919E+04
 0.10799999E+02  0.25958E+04
 0.10849999E+02  0.25954E+04
 0.10900000E+02  0.25921E+04
 0.10949999E+02  0.25872E+04
 0.10999999E+02  0.25841E+04
 0.11049999E+02  0.25844E+04
 0.11099999E+02  0.25851E+04
 0.11150000E+02  0.25862E+04
 0.11199999E+02  0.25879E+04
 0.11249999E+02  0.25903E+04
 0.11299999E+02  0.25929E+04
 0.11349999E+02  0.25893E+04
 0.11400000E+02  0.25875E+04
 0.11449999E+02  0.25865E+04
 0.11499999E+02  0.25869E+04
 0.11549999E+02  0.25901E+04
 0.11599999E+02  0.25913E+04
 0.11650000E+02  0.25923E+04
 0.11699999E+02  0.25963E+04
 0.11749999E+02  0.25932E+04
 0.11799999E+02  0.25903E+04
 0.11849999E+02  0.25912E+04
 0.11900000E+02  0.25891E+04
 0.11949999E+02  0.25918E+04
 0.11999999E+02  0.25918E+04
 0.12049999E+02  0.25928E+04
 0.12099999E+02  0.25931E+04
 0.12150000E+02  0.25932E+04
 0.12199999E+02  0.25923E+04
 0.12249999E+02  0.25917E+04
 0.12299999E+02  0.25927E+04
 0.12349999E+02  0.25937E+04
 0.12400000E+02  0.25918E+04
 0.12449999E+02  0.25908E+04
 0.12499999E+02  0.25931E+04
 0.12549999E+02  0.25965E+04
 0.12599999E+02  0.25955E+04
 0.12649999E+02  0.25938E+04
 0.12699999E+02  0.25991E+04
 0.12749999E+02  0.25947E+04
 0.12799999E+02  0.25915E+04
 0.12849999E+02  0.25910E+04
 0.12899999E+02  0.25947E+04
 0.12949999E+02  0.25981E+04
 0.12999999E+02  0.25930E+04
 0.13049999E+02  0.25919E+04
 0.13099999E+02  0.25903E+04
 0.13149999E+02  0.25875E+04
 0.13199999E+02  0.25869E+04
 0.13249999E+02  0.25846E+04
 0.13299999E+02  0.25825E+04
 0.13349999E+02  0.25817E+04
 0.13399999E+02  0.25834E+04
 0.13449999E+02  0.25852E+04
 0.13499999E+02  0.25803E+04
 0.13549999E+02  0.25802E+04
 0.13599999E+02  0.25810E+04
 0.13649999E+02  0.25773E+04
 0.13699999E+02  0.25758E+04
 0.13749999E+02  0.25739E+04
 0.13799999E+02  0.25774E+04
 0.13849999E+02  0.25845E+04
 0.13899999E+02  0.25869E+04
 0.13949999E+02  0.25852E+04
 0.13999999E+02  0.25873E+04
 0.14049999E+02  0.25911E+04
 0.14099998E+02  0.25900E+04
 0.14150000E+02  0.25922E+04
 0.14199999E+02  0.25977E+04
 0.14249998E+02  0.26002E+04
 0.14299999E+02  0.26028E+04
 0.14349998E+02  0.26032E+04
 0.14400000E+02  0.26048E+04
 0.14449999E+02  0.26049E+04
 0.14499998E+02  0.26062E+04
 0.14549999E+02  0.26079E+04
 0.14599998E+02  0.26038E+04
 0.14650000E+02  0.26098E+04
 0.14699999E+02  0.26067E+04
 0.14749998E+02  0.26151E+04
 0.14799999E+02  0.26165E+04
 0.14849998E+02  0.26086E+04
 0.14900000E+02  0.25799E+04
 0.14949999E+02  0.26079E+04
 0.14999998E+02  0.26184E+04
 0.15049999E+02  0.26116E+04
 0.15099998E+02  0.25838E+04
 0.15150000E+02  0.25818E+04
 0.15199999E+02  0.26230E+04
 0.15249998E+02  0.25979E+04
 0.15299999E+02  0.26499E+04
 0.15349998E+02  0.25284E+04
 0.15400000E+02  0.26354E+04
 0.15449999E+02  0.26169E+04
 0.15499998E+02  0.26278E+04
 0.15549999E+02  0.26566E+04
 0.15599998E+02  0.25262E+04
 0.15650000E+02  0.26028E+04
 0.15699999E+02  0.25137E+04
 0.15749998E+02  0.25715E+04
 0.15799999E+02  0.23659E+04
 0.15849998E+02  0.23754E+04
 0.15900000E+02  0.25278E+04
 0.15949999E+02  0.26663E+04
 0.15999998E+02  0.28017E+04
 0.16049999E+02  0.24675E+04
 0.16099998E+02  0.25255E+04
 0.16150000E+02  0.25154E+04
 0.16199999E+02  0.27735E+04
 0.16249998E+02  0.36625E+04
 0.16299999E+02  0.21917E+04
 0.16349998E+02  0.18625E+04
 0.16400000E+02  0.20964E+04
 0.16449999E+02  0.15726E+04
 0.16499998E+02  0.31848E+04
 0.16549999E+02  0.13188E+04
 0.16599998E+02  0.27069E+04
 0.16650000E+02  0.35498E+04
 0.16699999E+02  0.23662E+04
 0.16749998E+02  0.43380E+04
 0.16799999E+02  0.11567E+04
 0.16849998E+02  0.40902E+04
 0.16900000E+02  0.42441E+04
 0.16949999E+02  0.18356E+04
 0.16999998E+02  0.40640E+04
 0.17049999E+02 -0.24413E+03
 0.17099998E+02  0.28192E+04
 0.17150000E+02  0.24766E+04
 0.17199999E+02 -0.10553E+03
 0.17249998E+02  0.32084E+04
 0.17299999E+02  0.39887E+04
 0.17349998E+02  0.41870E+04
 0.17400000E+02  0.28325E+04
 0.17449999E+02  0.11746E+04
 0.17499998E+02  0.23869E+04
 0.17549999E+02  0.36936E+04
 0.17599998E+02  0.84033E+03
 0.17650000E+02  0.29368E+04
 0.17699999E+02  0.24898E+04
 0.17749998E+02  0.13929E+04
 0.17799999E+02  0.15570E+04
 0.17849998E+02  0.23680E+04
 0.17900000E+02  0.43060E+04
 0.17949999E+02  0.35796E+04
 0.17999998E+02  0.65917E+03
 0.18049999E+02  0.42173E+04
 0.18099998E+02  0.58391E+04
 0.18150000E+02  0.22629E+04
 0.18199999E+02  0.25737E+04
 0.18249998E+02 -0.14631E+04
 0.18299999E+02  0.33419E+04
 0.18349998E+02  0.47214E+04
 0.18400000E+02  0.21848E+04
 0.18449999E+02  0.45536E+04
 0.18499998E+02  0.10519E+04
 0.18549999E+02  0.11156E+04
 0.18599998E+02  0.27054E+04
 0.18650000E+02  0.48960E+03
 0.18699999E+02  0.40070E+04
 0.18749998E+02  0.37514E+04
 0.18799999E+02  0.53908E+04
 0.18849998E+02  0.25100E+04
 0.18900000E+02 -0.63153E+03
 0.18949999E+02  0.24024E+04
 0.18999998E+02  0.96921E+03
 0.19049999E+02  0.51894E+04
 0.19099998E+02  0.38229E+04
 0.19150000E+02  0.32459E+04
 0.19199999E+02 -0.23519E+04
 0.19249998E+02  0.55188E+04
 0.19299999E+02  0.42511E+04
 0.19349998E+02 -0.12490E+04
 0.19400000E+02  0.43080E+04
 0.19449999E+02  0.22558E+03
 0.19499998E+02  0.82916E+04
 0.19549999E+02  0.25527E+04
 0.19599998E+02 -0.85277E+03
 0.19650000E+02  0.28098E+04
 0.19699999E+02  0.60088E+03
 0.19749998E+02  0.40477E+04
 0.19799999E+02  0.51139E+04
 0.19849998E+02  0.26243E+04
 0.19900000E+02  0.50558E+02
 0.19949999E+02  0.24138E+04
 0.19999998E+02  0.63142E+04
 0.20049999E+02  0.22621E+04
 0.20099998E+02  0.15236E+04
 0.20150000E+02  0.13449E+04
 0.20199999E+02  0.42010E+04
 0.20249998E+02  0.22630E+04
 0.20299999E+02  0.48151E+03
 0.20349998E+02  0.67016E+04
 0.20399998E+02 -0.17551E+04
 0.20449999E+02  0.25927E+04
 0.20499998E+02  0.44676E+04
 0.20549999E+02  0.44978E+04
 0.20599998E+02  0.45686E+04
 0.20649998E+02 -0.48051E+04
 0.20699999E+02  0.39535E+04
 0.20749998E+02  0.38266E+04
 0.20799999E+02  0.42951E+04
 0.20849998E+02  0.35627E+04
 0.20899998E+02  0.15095E+04
 0.20949999E+02  0.30071E+04
 0.20999998E+02 -0.63942E+03
 0.21049999E+02  0.39670E+04
 0.21099998E+02  0.14849E+04
 0.21149998E+02  0.45583E+04
 0.21199999E+02  0.35216E+04
 0.21249998E+02  0.14853E+04
 0.21299999E+02  0.36241E+04
 0.21349998E+02  0.53898E+03
 0.21399998E+02  0.34789E+04
 0.21449999E+02  0.28216E+04
 0.21499998E+02  0.35754E+04
 0.21549999E+02  0.29669E+04
 0.21599998E+02  0.68719E+03
 0.21649998E+02  0.33154E+04
 0.21699999E+02  0.16194E+04
 0.21749998E+02  0.12646E+04
 0.21799999E+02  0.38177E+04
 0.21849998E+02  0.37169E+04
 0.21899998E+02  0.20876E+04
 0.21949999E+02  0.36337E+04
 0.21999998E+02  0.37339E+04
 0.22049999E+02 -0.29764E+04
 0.22099998E+02  0.11612E+04
 0.22149998E+02  0.76270E+04
 0.22199999E+02  0.28490E+04
 0.22249998E+02 -0.13007E+04
 0.22299999E+02  0.21804E+04
 0.22349998E+02  0.50752E+04
 0.22399998E+02  0.58739E+04
 0.22449999E+02  0.38697E+03
 0.22499998E+02  0.51170E+03
 0.22549999E+02  0.64820E+04
 0.22599998E+02  0.22407E+04
 0.22649998E+02  0.23399E+04
 0.22699999E+02  0.24757E+04
 0.22749998E+02  0.32484E+03
 0.22799999E+02  0.25440E+04
 0.22849998E+02  0.10186E+04
 0.22899998E+02  0.43258E+04
 0.22949999E+02  0.28805E+04
 0.22999998E+02  0.45457E+03
 0.23049999E+02  0.59768E+04
 0.23099998E+02  0.18322E+03
 0.23149998E+02  0.26778E+04
 0.23199999E+02  0.30475E+04
 0.23249998E+02  0.15483E+04
 0.23299999E+02  0.35541E+04
 0.23349998E+02  0.12025E+04
 0.23399998E+02  0.61712E+04
 0.23449999E+02  0.26807E+04
 0.23499998E+02  0.91585E+03
 0.23549999E+02  0.11203E+04
 0.23599998E+02  0.31343E+04
 0.23649998E+02  0.62008E+04
 0.23699999E+02 -0.22691E+03
 0.23749998E+02  0.33883E+04
 0.23799999E+02  0.42187E+04
 0.23849998E+02  0.15482E+04
 0.23899998E+02  0.33732E+04
 0.23949999E+02  0.23524E+04
 0.23999998E+02  0.30345E+04
 0.24049999E+02 -0.87659E+03
 0.24099998E+02  0.31271E+04
 0.24149998E+02  0.67670E+04
 0.24199999E+02  0.16440E+04
 0.24249998E+02  0.12024E+04
 0.24299999E+02  0.18246E+04
 0.24349998E+02  0.51259E+04
 0.24399998E+02  0.37969E+04
 0.24449999E+02 -0.15484E+03
 0.24499998E+02  0.15546E+03
 0.24549999E+02  0.24988E+04
 0.24599998E+02  0.36746E+04
 0.24649998E+02  0.25735E+04
 0.24699999E+02  0.59893E+04
 0.24749998E+02  0.24981E+04
 0.24799999E+02 -0.89686E+03
 0.24849998E+02  0.21746E+04
 0.24899998E+02  0.41060E+04
 0.24949999E+02  0.61654E+04
 0.24999998E+02 -0.29472E+03
 0.25049999E+02  0.22475E+04
 0.25099998E+02  0.23113E+04
 0.25149998E+02  0.15638E+04
 0.25199999E+02  0.58913E+04
 0.25249998E+02 -0.83006E+03
 0.25299999E+02  0.28663E+04
 0.25349998E+02  0.23870E+04
 0.25399998E+02  0.47381E+04
 0.25449999E+02  0.28916E+04
 0.25499998E+02 -0.20269E+04
 0.25549999E+02  0.47190E+04
 0.25599998E+02  0.33260E+04
 0.25649998E+02  0.38677E+04
 0.25699999E+02  0.34921E+02
 0.25749998E+02  0.20579E+04
 0.25799999E+02  0.52334E+04
 0.25849998E+02  0.13576E+04
 0.25899998E+02  0.22358E+04
 0.25949999E+02  0.30666E+04
 0.25999998E+02  0.26186E+04
 0.26049999E+02  0.24146E+04
 0.26099998E+02  0.51055E+04
 0.26149998E+02  0.32424E+04
 0.26199999E+02 -0.63603E+03
 0.26249998E+02 -0.91610E+03
 0.26299999E+02  0.68531E+04
 0.26349998E+02  0.56775E+04
 0.26399998E+02 -0.59661E+03
 0.26449999E+02  0.12832E+04
 0.26499998E+02  0.32942E+04
 0.26549999E+02  0.54362E+04
 0.26599998E+02  0.17895E+04
 0.26649998E+02 -0.55159E+03
 0.26699999E+02  0.20673E+04
 0.26749998E+02  0.44068E+04
 0.26799999E+02  0.15666E+04
 0.26849998E+02  0.25965E+04
 0.26899998E+02  0.55062E+04
 0.26949999E+02  0.83373E+04
 0.26999998E+02  0.34650E+03
 0.27049997E+02 -0.97413E+04
 0.27099998E+02  0.16670E+04
 0.27149998E+02  0.12203E+05
 0.27199999E+02  0.66401E+03
 0.27249998E+02 -0.44023E+04
 0.27299997E+02  0.60854E+04
 0.27349998E+02  0.92379E+04
 0.27399998E+02  0.22283E+04
 0.27449999E+02  0.33788E+04
 0.27499998E+02  0.51419E+04
 0.27549997E+02 -0.66410E+04
 0.27599998E+02 -0.31771E+04
 0.27649998E+02  0.25665E+04
 0.27699999E+02  0.10372E+05
 0.27749998E+02  0.11741E+05
 0.27799997E+02 -0.57379E+04
 0.27849998E+02 -0.19211E+04
 0.27899998E+02  0.10804E+05
 0.27949999E+02 -0.74387E+04
 0.27999998E+02  0.18760E+04
 0.28049997E+02  0.78479E+04
 0.28099998E+02 -0.27717E+04
 0.28149998E+02  0.11572E+05
 0.28199999E+02  0.27595E+04
 0.28249998E+02  0.23336E+04
 0.28299997E+02  0.40477E+04
 0.28349998E+02  0.18168E+03
 0.28399998E+02  0.41524E+03
 0.28449999E+02 -0.14579E+04
 0.28499998E+02  0.13967E+05
 0.28549997E+02  0.60391E+04
 0.28599998E+02 -0.78309E+04
 0.28649998E+02 -0.42228E+04
 0.28699999E+02 -0.86560E+03
 0.28749998E+02  0.65436E+04
 0.28799997E+02  0.78635E+04
 0.28849998E+02  0.96097E+04
 0.28899998E+02 -0.34101E+04
 0.28949999E+02  0.60463E+04
 0.28999998E+02  0.57783E+04
 0.29049997E+02 -0.22021E+04
 0.29099998E+02  0.10066E+05
 0.29149998E+02 -0.42279E+04
 0.29199999E+02 -0.64166E+04
 0.29249998E+02  0.50335E+04
 0.29299997E+02  0.92416E+04
 0.29349998E+02 -0.21111E+04
 0.29399998E+02 -0.19541E+04
 0.29449999E+02  0.10356E+05
 0.29499998E+02  0.10828E+05
 0.29549997E+02  0.32134E+04
 0.29599998E+02 -0.72823E+04
 0.29649998E+02 -0.15911E+04
 0.29699999E+02  0.44915E+04
 0.29749998E+02  0.53023E+04
 0.29799997E+02  0.12231E+05
 0.29849998E+02  0.45273E+04
 0.29899998E+02 -0.87606E+04
 0.29949999E+02 -0.12123E+04
 0.29999998E+02  0.63430E+04
 0.30049999E+02  0.10299E+05
 0.30099998E+02  0.69156E+04
 0.30149998E+02 -0.37323E+04
 0.30199997E+02 -0.34535E+04
 0.30249996E+02  0.39904E+04
 0.30299999E+02  0.35126E+04
 0.30349998E+02  0.35460E+04
 0.30399998E+02  0.41115E+04
 0.30449997E+02 -0.23749E+04
 0.30499996E+02  0.72450E+04
 0.30549999E+02  0.10498E+04
 0.30599998E+02 -0.36981E+04
 0.30649998E+02  0.11312E+05
 0.30699997E+02  0.93532E+04
 0.30749996E+02  0.74063E+04
 0.30799999E+02 -0.76768E+04
 0.30849998E+02 -0.14330E+05
 0.30899998E+02  0.51353E+04
 0.30949997E+02  0.83410E+04
 0.30999996E+02  0.96221E+04
 0.31049999E+02  0.98228E+03
 0.31099998E+02 -0.60306E+04
 0.31149998E+02  0.52701E+04
 0.31199997E+02  0.78178E+04
 0.31249996E+02  0.27719E+04
 0.31299999E+02  0.81391E+04
 0.31349998E+02  0.42919E+04
 0.31399998E+02 -0.67443E+04
 0.31449997E+02  0.32807E+04
 0.31499996E+02  0.41724E+04
 0.31549999E+02  0.10533E+05
 0.31599998E+02  0.83831E+04
 0.31649998E+02 -0.58847E+04
 0.31699997E+02  0.43639E+03
 0.31749996E+02 -0.19012E+04
 0.31799999E+02 -0.46207E+04
 0.31849998E+02  0.85837E+04
 0.31899998E+02  0.13270E+05
 0.31949997E+02  0.16791E+03
 0.31999996E+02 -0.45406E+04
 0.32049999E+02 -0.16171E+04
 0.32099998E+02  0.50571E+04
 0.32149998E+02  0.49459E+04
 0.32199997E+02  0.58631E+02
 0.32249996E+02  0.86867E+04
 0.32299999E+02  0.54938E+04
 0.32349998E+02  0.91472E+03
 0.32399998E+02 -0.37697E+04
 0.32449997E+02 -0.22034E+04
 0.32499996E+02  0.56686E+04
 0.32549999E+02  0.43967E+04
 0.32599998E+02  0.30280E+04
 0.32649998E+02  0.32130E+04
 0.32699997E+02  0.58851E+04
 0.32749996E+02 -0.56632E+03
 0.32799999E+02  0.19263E+04
 0.32849998E+02  0.73991E+04
 0.32899998E+02  0.68620E+03
 0.32949997E+02 -0.25137E+04
 0.32999996E+02  0.53746E+03
 0.33049999E+02  0.63122E+04
 0.33099998E+02  0.11127E+05
 0.33149998E+02  0.69090E+04
 0.33199997E+02 -0.49574E+04
 0.33249996E+02 -0.67227E+04
 0.33299999E+02  0.49793E+04
 0.33349998E+02  0.64727E+04
 0.33399998E+02  0.57622E+04
 0.33449997E+02  0.30294E+04
 0.33499996E+02 -0.83626E+03
 0.33549999E+02  0.24737E+04
 0.33599998E+02 -0.79027E+02
 0.33649998E+02  0.18130E+04
 0.33699997E+02  0.56278E+04
 0.33749996E+02  0.29973E+04
 0.33799999E+02  0.19575E+04
 0.33849998E+02  0.31396E+04
 0.33899998E+02 -0.31149E+04
 0.33949997E+02 -0.10209E+03
 0.33999996E+02  0.91779E+04
 0.34049999E+02  0.58322E+04
 0.34099998E+02 -0.34285E+04
 0.34149998E+02 -0.74742E+03
 0.34199997E+02  0.70897E+04
 0.34249996E+02  0.76032E+04
 0.34299999E+02  0.50839E+04
 0.34349998E+02 -0.19022E+04
 0.34399998E+02 -0.61228E+03
 0.34449997E+02  0.28737E+04
 0.34499996E+02  0.63102E+03
 0.34549999E+02  0.46023E+04
 0.34599998E+02  0.72173E+04
 0.34649998E+02  0.22405E+04
 0.34699997E+02 -0.12370E+04
 0.34749996E+02  0.30014E+04
 0.34799999E+02  0.58571E+04
 0.34849998E+02  0.21225E+03
 0.34899998E+02  0.45933E+03
 0.34949997E+02  0.29694E+04
 0.34999996E+02 -0.93139E+03
 0.35049999E+02  0.37989E+04
 0.35099998E+02  0.66169E+04
 0.35149998E+02  0.61239E+04
 0.35199997E+02  0.66636E+04
 0.35249996E+02  0.29756E+04
 0.35299999E+02  0.42821E+04
 0.35349998E+02  0.22308E+04
 0.35399998E+02  0.17424E+04
 0.35449997E+02  0.19492E+03
 0.35499996E+02 -0.69180E+03
 0.35549999E+02  0.59032E+04
 0.35599998E+02  0.65956E+04
 0.35649998E+02 -0.20738E+02
 0.35699997E+02 -0.21201E+04
 0.35749996E+02  0.40834E+04
 0.35799999E+02  0.37748E+04
 0.35849998E+02  0.60767E+04
 0.35899998E+02  0.27825E+04
 0.35949997E+02 -0.22664E+04
 0.35999996E+02  0.21684E+04
 0.36049999E+02  0.89644E+03
 0.36099998E+02  0.38767E+04
 0.36149998E+02  0.38226E+04
 0.36199997E+02  0.74022E+03
 0.36249996E+02  0.43555E+03
 0.36299999E+02 -0.11510E+04
 0.36349998E+02  0.56594E+03
 0.36399998E+02  0.21703E+04
 0.36449997E+02  0.58103E+04
 0.36499996E+02  0.43613E+04
 0.36549999E+02  0.28788E+04
 0.36599998E+02  0.43874E+04
 0.36649998E+02  0.19764E+04
 0.36699997E+02  0.37987E+04
 0.36749996E+02  0.45848E+04
 0.36799999E+02  0.30742E+04
 0.36849998E+02  0.89160E+03
 0.36899998E+02  0.11460E+04
 0.36949997E+02  0.30595E+04
 0.36999996E+02  0.45463E+04
 0.37049999E+02  0.32218E+04
 0.37099998E+02  0.15592E+03
 0.37149998E+02  0.19613E+04
 0.37199997E+02  0.28761E+04
 0.37249996E+02  0.45601E+04
 0.37299999E+02  0.65022E+04
 0.37349998E+02  0.31722E+04
 0.37399998E+02 -0.28910E+04
 0.37449997E+02 -0.25896E+04
 0.37499996E+02  0.23948E+04
 0.37549999E+02  0.38596E+04
 0.37599998E+02  0.33579E+04
 0.37649998E+02  0.65411E+03
 0.37699997E+02 -0.71114E+03
 0.37749996E+02 -0.96839E+03
 0.37799999E+02  0.28244E+04
 0.37849998E+02  0.82736E+04
 0.37899998E+02  0.54198E+04
 0.37949997E+02  0.41990E+03
 0.37999996E+02  0.25412E+04
 0.38049999E+02  0.28585E+04
 0.38099998E+02  0.13899E+04
 0.38149998E+02  0.50992E+04
 0.38199997E+02  0.44477E+04
 0.38249996E+02  0.13748E+04
 0.38299999E+02 -0.14866E+03
 0.38349998E+02  0.38871E+04
 0.38399998E+02  0.71041E+04
 0.38449997E+02  0.23941E+04
 0.38499996E+02  0.22110E+03
 0.38549999E+02  0.30488E+04
 0.38599998E+02  0.22341E+04
 0.38649998E+02  0.91823E+03
 0.38699997E+02  0.41892E+04
 0.38749996E+02  0.36852E+04
 0.38799999E+02  0.17700E+04
 0.38849998E+02  0.57619E+03
 0.38899998E+02  0.25808E+04
 0.38949997E+02  0.58181E+04
 0.38999996E+02  0.23860E+04
 0.39049999E+02  0.26235E+03
 0.39099998E+02  0.86827E+03
 0.39149998E+02  0.16657E+04
 0.39199997E+02  0.34265E+04
 0.39249996E+02  0.37272E+04
 0.39299999E+02  0.26004E+04
 0.39349998E+02  0.29175E+04
 0.39399998E+02  0.42318E+04
 0.39449997E+02  0.24430E+04
 0.39499996E+02  0.17246E+04
 0.39549999E+02  0.19296E+04
 0.39599998E+02  0.34368E+04
 0.39649998E+02  0.43034E+04
 0.39699997E+02  0.21786E+04
 0.39749996E+02  0.37285E+04
 0.39799999E+02  0.27562E+04
 0.39849998E+02 -0.47470E+03
 0.39899998E+02 -0.35019E+03
 0.39949997E+02  0.29894E+04
 0.39999996E+02  0.71830E+04
 0.40049999E+02  0.46964E+04
 0.40099998E+02  0.66053E+03
 0.40149998E+02  0.20069E+04
 0.40199997E+02  0.32001E+04
 0.40249996E+02  0.22154E+04
 0.40299999E+02  0.18405E+04
 0.40349998E+02  0.33305E+04
 0.40399998E+02  0.34495E+04
 0.40449997E+02  0.16768E+04
 0.40499996E+02  0.25169E+03
 0.40549999E+02  0.13998E+04
 0.40599998E+02  0.54134E+04
 0.40649998E+02  0.53347E+04
 0.40699997E+02  0.11989E+04
 0.40749996E+02  0.91831E+03
 0.40799999E+02  0.26453E+04
 0.40849998E+02  0.34387E+04
 0.40899998E+02  0.42387E+04
 0.40949997E+02  0.23959E+04
 0.40999996E+02  0.32779E+04
 0.41049999E+02  0.44933E+04
 0.41099998E+02  0.44141E+04
 0.41149998E+02  0.33567E+04
 0.41199997E+02 -0.32271E+03
 0.41249996E+02  0.43265E+03
 0.41299999E+02  0.24833E+04
 0.41349998E+02  0.12143E+04
 0.41399998E+02  0.71218E+03
 0.41449997E+02  0.33358E+04
 0.41499996E+02  0.40685E+04
 0.41549999E+02  0.32468E+04
 0.41599998E+02  0.34101E+04
 0.41649998E+02  0.14670E+04
 0.41699997E+02  0.16910E+04
 0.41749996E+02  0.20900E+04
 0.41799999E+02  0.74540E+03
 0.41849998E+02  0.53817E+04
 0.41899998E+02  0.49683E+04
 0.41949997E+02  0.70684E+02
 0.41999996E+02  0.11349E+04
 0.42049999E+02  0.40980E+04
 0.42099998E+02  0.40999E+04
 0.42149998E+02  0.12544E+04
 0.42199997E+02  0.86607E+03
 0.42249996E+02  0.13238E+04
 0.42299999E+02  0.25347E+04
 0.42349998E+02  0.26795E+04
 0.42399998E+02  0.21096E+04
 0.42449997E+02  0.35641E+04
 0.42499996E+02  0.46057E+04
 0.42549999E+02  0.31582E+04
 0.42599998E+02  0.18885E+04
 0.42649998E+02  0.25498E+04
 0.42699997E+02  0.20111E+04
 0.42749996E+02  0.33424E+04
 0.42799995E+02  0.27917E+04
 0.42849998E+02  0.17891E+04
 0.42899998E+02  0.20791E+04
 0.42949997E+02  0.18131E+04
 0.42999996E+02  0.25586E+04
 0.43049995E+02  0.27854E+04
 0.43099998E+02  0.29602E+04
 0.43149998E+02  0.21676E+04
 0.43199997E+02  0.23267E+04
 0.43249996E+02  0.28745E+04
 0.43299995E+02  0.46160E+04
 0.43349998E+02  0.43536E+04
 0.43399998E+02  0.25224E+04
 0.43449997E+02  0.11372E+04
 0.43499996E+02  0.13976E+04
 0.43549995E+02  0.34878E+04
 0.43599998E+02  0.31758E+04
 0.43649998E+02  0.29435E+04
 0.43699997E+02  0.30841E+04
 0.43749996E+02  0.31665E+04
 0.43799995E+02  0.15108E+04
 0.43849998E+02  0.15353E+04
 0.43899998E+02  0.23814E+04
 0.43949997E+02  0.59822E+03
 0.43999996E+02  0.64569E+03
 0.44049995E+02  0.36099E+04
 0.44099998E+02  0.52212E+04
 0.44149998E+02  0.37788E+04
 0.44199997E+02  0.20625E+04
 0.44249996E+02  0.25801E+04
 0.44299995E+02  0.37116E+04
 0.44349998E+02  0.21313E+04
 0.44399998E+02  0.16465E+03
 0.44449997E+02  0.13368E+04
 0.44499996E+02  0.32610E+04
 0.44549995E+02  0.13372E+04
 0.44599998E+02  0.13311E+04
 0.44649998E+02  0.20774E+04
 0.44699997E+02  0.18321E+04
 0.44749996E+02  0.30262E+04
 0.44799995E+02  0.30360E+04
 0.44849998E+02  0.36889E+04
 0.44899998E+02  0.38104E+04
 0.44949997E+02  0.29801E+04
 0.44999996E+02  0.42327E+04
 0.45049995E+02  0.48874E+04
 0.45099998E+02  0.36730E+04
 0.45149998E+02  0.31628E+04
 0.45199997E+02  0.24476E+04
 0.45249996E+02  0.26425E+04
 0.45299995E+02  0.19651E+04
 0.45349998E+02  0.15892E+04
 0.45399998E+02  0.17041E+04
 0.45449997E+02  0.11155E+04
 0.45499996E+02  0.25335E+04
 0.45549995E+02  0.35292E+04
 0.45599998E+02  0.27626E+04
 0.45649998E+02  0.18506E+04
 0.45699997E+02  0.29639E+04
 0.45749996E+02  0.39418E+04
 0.45799995E+02  0.38226E+04
 0.45849998E+02  0.38136E+04
 0.45899998E+02  0.34736E+04
 0.45949997E+02  0.24929E+04
 0.45999996E+02  0.15386E+04
 0.46049995E+02  0.28458E+04
 0.46099998E+02  0.28636E+04
 0.46149998E+02  0.19538E+04
 0.46199997E+02  0.89487E+03
 0.46249996E+02 -0.12427E+03
 0.46299995E+02  0.80900E+03
 0.46349998E+02  0.13643E+04
 0.46399998E+02  0.22528E+04
 0.46449997E+02  0.38820E+04
 0.46499996E+02  0.50066E+04
 0.46549995E+02  0.38079E+04
 0.46599998E+02  0.29307E+04
 0.46649998E+02  0.36987E+04
 0.46699997E+02  0.32020E+04
 0.46749996E+02  0.24885E+04
 0.46799995E+02  0.33881E+04
 0.46849998E+02  0.32235E+04
 0.46899998E+02  0.22040E+04
 0.46949997E+02  0.22907E+04
 0.46999996E+02  0.21200E+04
 0.47049995E+02  0.14540E+04
 0.47099998E+02  0.12998E+04
 0.47149998E+02  0.20491E+04
 0.47199997E+02  0.20034E+04
 0.47249996E+02  0.26881E+04
 0.47299995E+02  0.31965E+04
 0.47349998E+02  0.23232E+04
 0.47399998E+02  0.20971E+04
 0.47449997E+02  0.26754E+04
 0.47499996E+02  0.32150E+04
 0.47549995E+02  0.35802E+04
 0.47599998E+02  0.34127E+04
 0.47649998E+02  0.30338E+04
 0.47699997E+02  0.33582E+04
 0.47749996E+02  0.25810E+04
 0.47799995E+02  0.15053E+04
 0.47849998E+02  0.15670E+04
 0.47899998E+02  0.23148E+04
 0.47949997E+02  0.25324E+04
 0.47999996E+02  0.32219E+04
 0.48049995E+02  0.38810E+04
 0.48099998E+02  0.26108E+04
 0.48149998E+02  0.12284E+04
 0.48199997E+02  0.13847E+04
 0.48249996E+02  0.33320E+04
 0.48299995E+02  0.40544E+04
 0.48349998E+02  0.30521E+04
 0.48399998E+02  0.17993E+04
 0.48449997E+02  0.14478E+04
 0.48499996E+02  0.33594E+04
 0.48549995E+02  0.35572E+04
 0.48599998E+02  0.13422E+04
 0.48649998E+02  0.10644E+04
 0.48699997E+02  0.19212E+04
 0.48749996E+02  0.18669E+04
 0.48799995E+02  0.15937E+04
 0.48849998E+02  0.24394E+04
 0.48899998E+02  0.22923E+04
 0.48949997E+02  0.19592E+04
 0.48999996E+02  0.28595E+04
 0.49049995E+02  0.33004E+04
 0.49099998E+02  0.30413E+04
 0.49149998E+02  0.24614E+04
 0.49199997E+02  0.25775E+04
 0.49249996E+02  0.26545E+04
 0.49299995E+02  0.29304E+04
 0.49349998E+02  0.35368E+04
 0.49399998E+02  0.39847E+04
 0.49449997E+02  0.21875E+04
 0.49499996E+02  0.15327E+04
 0.49549995E+02  0.25142E+04
 0.49599998E+02  0.31963E+04
 0.49649998E+02  0.32204E+04
 0.49699997E+02  0.20684E+04
 0.49749996E+02  0.29541E+04
 0.49799995E+02  0.29316E+04
 0.49849998E+02  0.27122E+04
 0.49899998E+02  0.30407E+04
 0.49949997E+02  0.28402E+04
 0.49999996E+02  0.29918E+04
 0.50049995E+02  0.20000E+04
 0.50099998E+02  0.16253E+04
 0.50149998E+02  0.26056E+04
 0.50199997E+02  0.30850E+04
 0.50249996E+02  0.31306E+04
 0.50299995E+02  0.28416E+04
 0.50349998E+02  0.26701E+04
 0.50399998E+02  0.34533E+04
 0.50449997E+02  0.37462E+04
 0.50499996E+02  0.28940E+04
 0.50549995E+02  0.23273E+04
 0.50599998E+02  0.13859E+04
 0.50649998E+02  0.91701E+03
 0.50699997E+02  0.23067E+04
 0.50749996E+02  0.32676E+04
 0.50799995E+02  0.37098E+04
 0.50849998E+02  0.32986E+04
 0.50899998E+02  0.21014E+04
 0.50949997E+02  0.24286E+04
 0.50999996E+02  0.22890E+04
 0.51049995E+02  0.17589E+04
 0.51099998E+02  0.23263E+04
 0.51149998E+02  0.24718E+04
 0.51199997E+02  0.27800E+04
 0.51249996E+02  0.27147E+04
 0.51299995E+02  0.21950E+04
 0.51349998E+02  0.27829E+04
 0.51399998E+02  0.32705E+04
 0.51449997E+02  0.27892E+04
 0.51499996E+02  0.17589E+04
 0.51549995E+02  0.19719E+04
 0.51599998E+02  0.37335E+04
 0.51649998E+02  0.37114E+04
 0.51699997E+02  0.21736E+04
 0.51749996E+02  0.25393E+04
 0.51799995E+02  0.28688E+04
 0.51849998E+02  0.18293E+04
 0.51899998E+02  0.19552E+04
 0.51949997E+02  0.28731E+04
 0.51999996E+02  0.25809E+04
 0.52049995E+02  0.24095E+04
 0.52099998E+02  0.27087E+04
 0.52149998E+02  0.23494E+04
 0.52199997E+02  0.21270E+04
 0.52249996E+02  0.15114E+04
 0.52299995E+02  0.19736E+04
 0.52349998E+02  0.27955E+04
 0.52399998E+02  0.23807E+04
 0.52449997E+02  0.19841E+04
 0.52499996E+02  0.23573E+04
 0.52549995E+02  0.27276E+04
 0.52599998E+02  0.21683E+04
 0.52649998E+02  0.27346E+04
 0.52699997E+02  0.40732E+04
 0.52749996E+02  0.42194E+04
 0.52799995E+02  0.33756E+04
 0.52849998E+02  0.22297E+04
 0.52899998E+02  0.24449E+04
 0.52949997E+02  0.23683E+04
 0.52999996E+02  0.27180E+04
 0.53049995E+02  0.30991E+04
 0.53099998E+02  0.19605E+04
 0.53149998E+02  0.13481E+04
 0.53199997E+02  0.19315E+04
 0.53249996E+02  0.29343E+04
 0.53299995E+02  0.27927E+04
 0.53349998E+02  0.27113E+04
 0.53399998E+02  0.28717E+04
 0.53449997E+02  0.31507E+04
 0.53499996E+02  0.27292E+04
 0.53549995E+02  0.23446E+04
 0.53599998E+02  0.24951E+04
 0.53649998E+02  0.22869E+04
 0.53699997E+02  0.23847E+04
 0.53749996E+02  0.25873E+04
 0.53799995E+02  0.28919E+04
 0.53849998E+02  0.27454E+04
 0.53899998E+02  0.27084E+04
 0.53949997E+02  0.22855E+04
 0.53999996E+02  0.17099E+04
 0.54049995E+02  0.22509E+04
 0.54099998E+02  0.25079E+04
 0.54149998E+02  0.25365E+04
 0.54199997E+02  0.24417E+04
 0.54249996E+02  0.23792E+04
 0.54299995E+02  0.27583E+04
 0.54349998E+02  0.23144E+04
 0.54399998E+02  0.26651E+04
 0.54449997E+02  0.34041E+04
 0.54499996E+02  0.30394E+04
 0.54549995E+02  0.28961E+04
 0.54599998E+02  0.30502E+04
 0.54649998E+02  0.34191E+04
 0.54699997E+02  0.33526E+04
 0.54749996E+02  0.30306E+04
 0.54799995E+02  0.31557E+04
 0.54849998E+02  0.31748E+04
 0.54899998E+02  0.30002E+04
 0.54949997E+02  0.32859E+04
 0.54999996E+02  0.32501E+04
 0.55049995E+02  0.27457E+04
 0.55099998E+02  0.30042E+04
 0.55149998E+02  0.27780E+04
 0.55199997E+02  0.18507E+04
 0.55249996E+02  0.21586E+04
 0.55299995E+02  0.24453E+04
 0.55349998E+02  0.20463E+04
 0.55399998E+02  0.16094E+04
 0.55449997E+02  0.16670E+04
 0.55499996E+02  0.20505E+04
 0.55549995E+02  0.22405E+04
 0.55599998E+02  0.23819E+04
 0.55649998E+02  0.13050E+04
 0.55699997E+02  0.13654E+04
 0.55749996E+02  0.25248E+04
 0.55799995E+02  0.28952E+04
 0.55849995E+02  0.28639E+04
 0.55899998E+02  0.21984E+04
 0.55949997E+02  0.24293E+04
 0.55999996E+02  0.27160E+04
 0.56049995E+02  0.23893E+04
 0.56099995E+02  0.23415E+04
 0.56149998E+02  0.24561E+04
 0.56199997E+02  0.24604E+04
 0.56249996E+02  0.23320E+04
 0.56299995E+02  0.28481E+04
 0.56349995E+02  0.28875E+04
 0.56399998E+02  0.28134E+04
 0.56449997E+02  0.27015E+04
 0.56499996E+02  0.23145E+04
 0.56549995E+02  0.24616E+04
 0.56599995E+02  0.27519E+04
 0.56649998E+02  0.32199E+04
 0.56699997E+02  0.34142E+04
 0.56749996E+02  0.32543E+04
 0.56799995E+02  0.27078E+04
 0.56849995E+02  0.30198E+04
 0.56899998E+02  0.33798E+04
 0.56949997E+02  0.25745E+04
 0.56999996E+02  0.21309E+04
 0.57049995E+02  0.24007E+04
 0.57099995E+02  0.29264E+04
 0.57149998E+02  0.30158E+04
 0.57199997E+02  0.28188E+04
 0.57249996E+02  0.29162E+04
 0.57299995E+02  0.29732E+04
 0.57349995E+02  0.22840E+04
 0.57399998E+02  0.22109E+04
 0.57449997E+02  0.27492E+04
 0.57499996E+02  0.25151E+04
 0.57549995E+02  0.23632E+04
 0.57599995E+02  0.20916E+04
 0.57649998E+02  0.21282E+04
 0.57699997E+02  0.24767E+04
 0.57749996E+02  0.25984E+04
 0.57799995E+02  0.23804E+04
 0.57849995E+02  0.21531E+04
 0.57899998E+02  0.22408E+04
 0.57949997E+02  0.18551E+04
 0.57999996E+02  0.19356E+04
 0.58049995E+02  0.19394E+04
 0.58099995E+02  0.24835E+04
 0.58149998E+02  0.35483E+04
 0.58199997E+02  0.34403E+04
 0.58249996E+02  0.32587E+04
 0.58299995E+02  0.31474E+04
 0.58349995E+02  0.28714E+04
 0.58399998E+02  0.27551E+04
 0.58449997E+02  0.22935E+04
 0.58499996E+02  0.20884E+04
 0.58549995E+02  0.22871E+04
 0.58599995E+02  0.26041E+04
 0.58649998E+02  0.27807E+04
 0.58699997E+02  0.22777E+04
 0.58749996E+02  0.26621E+04
 0.58799995E+02  0.30223E+04
 0.58849995E+02  0.30834E+04
 0.58899998E+02  0.31135E+04
 0.58949997E+02  0.29147E+04
 0.58999996E+02  0.31572E+04
 0.59049995E+02  0.27910E+04
 0.59099995E+02  0.21630E+04
 0.59149998E+02  0.22241E+04
 0.59199997E+02  0.25297E+04
 0.59249996E+02  0.23613E+04
 0.59299995E+02  0.22058E+04
 0.59349995E+02  0.23618E+04
 0.59399998E+02  0.26869E+04
 0.59449997E+02  0.27215E+04
 0.59499996E+02  0.21362E+04
 0.59549995E+02  0.19507E+04
 0.59599995E+02  0.23822E+04
 0.59649998E+02  0.25102E+04
 0.59699997E+02  0.24348E+04
 0.59749996E+02  0.20905E+04
 0.59799995E+02  0.20723E+04
 0.59849995E+02  0.26865E+04
 0.59899998E+02  0.29397E+04
 0.59949997E+02  0.31717E+04
 0.59999996E+02  0.30973E+04
 0.60049995E+02  0.27567E+04
 0.60099995E+02  0.26266E+04
 0.60149998E+02  0.24085E+04
 0.60199997E+02  0.23106E+04
 0.60249996E+02  0.25430E+04
 0.60299995E+02  0.28645E+04
 0.60349995E+02  0.28014E+04
 0.60399998E+02  0.26099E+04
 0.60449997E+02  0.23814E+04
 0.60499996E+02  0.22978E+04
 0.60549995E+02  0.25068E+04
 0.60599995E+02  0.24849E+04
 0.60649998E+02  0.25058E+04
 0.60699997E+02  0.26474E+04
 0.60749996E+02  0.26383E+04
 0.60799995E+02  0.26529E+04
 0.60849995E+02  0.29791E+04
 0.60899998E+02  0.32599E+04
 0.60949997E+02  0.33040E+04
 0.60999996E+02  0.29599E+04
 0.61049995E+02  0.25576E+04
 0.61099995E+02  0.27485E+04
 0.61149998E+02  0.28539E+04
 0.61199997E+02  0.25461E+04
 0.61249996E+02  0.23420E+04
 0.61299995E+02  0.25652E+04
 0.61349995E+02  0.29054E+04
 0.61399998E+02  0.27190E+04
 0.61449997E+02  0.22657E+04
 0.61499996E+02  0.23565E+04
 0.61549995E+02  0.26839E+04
 0.61599995E+02  0.26874E+04
 0.61649998E+02  0.24790E+04
 0.61699997E+02  0.24762E+04
 0.61749996E+02  0.27155E+04
 0.61799995E+02  0.27798E+04
 0.61849995E+02  0.26223E+04
 0.61899998E+02  0.23168E+04
 0.61949997E+02  0.22898E+04
 0.61999996E+02  0.25666E+04
 0.62049995E+02  0.25323E+04
 0.62099998E+02  0.24030E+04
 0.62149994E+02  0.24620E+04
 0.62199997E+02  0.27089E+04
 0.62249992E+02  0.24523E+04
 0.62299995E+02  0.21221E+04
 0.62349998E+02  0.21749E+04
 0.62399994E+02  0.21884E+04
 0.62449997E+02  0.26842E+04
 0.62499992E+02  0.29799E+04
 0.62549995E+02  0.31028E+04
 0.62599998E+02  0.28836E+04
 0.62649994E+02  0.23647E+04
 0.62699997E+02  0.25121E+04
 0.62749992E+02  0.24665E+04
 0.62799995E+02  0.20429E+04
 0.62849998E+02  0.18341E+04
 0.62899994E+02  0.20404E+04
 0.62949997E+02  0.22446E+04
 0.62999992E+02  0.24892E+04
 0.63049995E+02  0.30149E+04
 0.63099998E+02  0.31298E+04
 0.63149994E+02  0.28191E+04
 0.63199997E+02  0.23149E+04
 0.63249992E+02  0.23787E+04
 0.63299995E+02  0.28189E+04
 0.63349998E+02  0.27813E+04
 0.63399994E+02  0.27357E+04
 0.63449997E+02  0.29114E+04
 0.63499992E+02  0.28998E+04
 0.63549995E+02  0.28978E+04
 0.63599998E+02  0.29135E+04
 0.63649994E+02  0.27132E+04
 0.63699997E+02  0.26595E+04
 0.63749992E+02  0.27480E+04
 0.63799995E+02  0.29056E+04
 0.63849998E+02  0.26979E+04
 0.63899994E+02  0.20750E+04
 0.63949997E+02  0.21825E+04
 0.63999992E+02  0.28424E+04
 0.64049995E+02  0.30217E+04
 0.64099998E+02  0.25629E+04
 0.64149994E+02  0.20697E+04
 0.64199997E+02  0.25409E+04
 0.64249992E+02  0.26980E+04
 0.64299995E+02  0.24339E+04
 0.64349998E+02  0.24955E+04
 0.64399994E+02  0.26011E+04
 0.64449997E+02  0.26168E+04
 0.64499992E+02  0.26122E+04
 0.64549995E+02  0.24781E+04
 0.64599998E+02  0.22450E+04
 0.64649994E+02  0.24951E+04
 0.64699997E+02  0.26063E+04
 0.64749992E+02  0.27034E+04
 0.64799995E+02  0.24533E+04
 0.64849998E+02  0.23568E+04
 0.64899994E+02  0.27351E+04
 0.64949997E+02  0.26176E+04
 0.64999992E+02  0.24147E+04
 0.65049995E+02  0.23844E+04
 0.65099998E+02  0.25973E+04
 0.65149994E+02  0.27155E+04
 0.65199997E+02  0.22933E+04
 0.65249992E+02  0.21131E+04
 0.65299995E+02  0.24802E+04
 0.65349998E+02  0.26845E+04
 0.65399994E+02  0.25808E+04
 0.65449997E+02  0.26939E+04
 0.65499992E+02  0.28823E+04
 0.65549995E+02  0.27325E+04
 0.65599998E+02  0.23887E+04
 0.65649994E+02  0.23616E+04
 0.65699997E+02  0.26815E+04
 0.65749992E+02  0.25872E+04
 0.65799995E+02  0.24237E+04
 0.65849998E+02  0.26337E+04
 0.65899994E+02  0.27989E+04
 0.65949997E+02  0.29463E+04
 0.65999992E+02  0.29164E+04
 0.66049995E+02  0.25350E+04
 0.66099998E+02  0.24269E+04
 0.66149994E+02  0.25794E+04
 0.66199997E+02  0.27577E+04
 0.66249992E+02  0.27596E+04
 0.66299995E+02  0.27054E+04
 0.66349998E+02  0.27491E+04
 0.66399994E+02  0.27036E+04
 0.66449997E+02  0.24726E+04
 0.66499992E+02  0.22838E+04
 0.66549995E+02  0.23608E+04
 0.66599998E+02  0.22800E+04
 0.66649994E+02  0.22290E+04
 0.66699997E+02  0.25048E+04
 0.66749992E+02  0.24312E+04
 0.66799995E+02  0.24554E+04
 0.66849998E+02  0.28515E+04
 0.66899994E+02  0.29510E+04
 0.66949997E+02  0.28927E+04
 0.66999992E+02  0.26933E+04
 0.67049995E+02  0.29347E+04
 0.67099998E+02  0.31566E+04
 0.67149994E+02  0.28680E+04
 0.67199997E+02  0.27213E+04
 0.67249992E+02  0.26091E+04
 0.67299995E+02  0.26989E+04
 0.67349998E+02  0.30124E+04
 0.67399994E+02  0.29661E+04
 0.67449997E+02  0.26454E+04
 0.67499992E+02  0.23523E+04
 0.67549995E+02  0.24218E+04
 0.67599998E+02  0.27596E+04
 0.67649994E+02  0.28240E+04
 0.67699997E+02  0.26511E+04
 0.67749992E+02  0.27024E+04
 0.67799995E+02  0.27967E+04
 0.67849998E+02  0.26089E+04
 0.67899994E+02  0.24301E+04
 0.67949997E+02  0.21594E+04
 0.67999992E+02  0.17853E+04
 0.68049995E+02  0.18593E+04
 0.68099998E+02  0.22153E+04
 0.68149994E+02  0.23938E+04
 0.68199997E+02  0.24076E+04
 0.68249992E+02  0.22480E+04
 0.68299995E+02  0.24859E+04
 0.68349998E+02  0.25343E+04
 0.68399994E+02  0.23276E+04
 0.68449997E+02  0.24631E+04
 0.68499992E+02  0.25891E+04
 0.68549995E+02  0.28306E+04
 0.68599998E+02  0.27031E+04
 0.68649994E+02  0.26209E+04
 0.68699997E+02  0.27836E+04
 0.68749992E+02  0.27221E+04
 0.68799995E+02  0.27113E+04
 0.68849998E+02  0.28257E+04
 0.68899994E+02  0.27596E+04
 0.68949997E+02  0.25813E+04
 0.68999992E+02  0.24979E+04
 0.69049995E+02  0.24815E+04
 0.69099998E+02  0.26311E+04
 0.69149994E+02  0.25386E+04
 0.69199997E+02  0.26640E+04
 0.69249992E+02  0.28354E+04
 0.69299995E+02  0.25537E+04
 0.69349998E+02  0.25311E+04
 0.69399994E+02  0.26912E+04
 0.69449997E+02  0.26864E+04
 0.69499992E+02  0.27874E+04
 0.69549995E+02  0.29455E+04
 0.69599998E+02  0.28526E+04
 0.69649994E+02  0.28094E+04
 0.69699997E+02  0.29110E+04
 0.69749992E+02  0.29036E+04
 0.69799995E+02  0.29810E+04
 0.69849998E+02  0.28153E+04
 0.69899994E+02  0.24576E+04
 0.69949997E+02  0.23745E+04
 0.69999992E+02  0.23541E+04
 0.70049995E+02  0.25198E+04
 0.70099998E+02  0.26007E+04
 0.70149994E+02  0.25900E+04
 0.70199997E+02  0.25857E+04
 0.70249992E+02  0.24837E+04
 0.70299995E+02  0.22623E+04
 0.70349998E+02  0.21815E+04
 0.70399994E+02  0.24099E+04
 0.70449997E+02  0.24174E+04
 0.70499992E+02  0.23701E+04
 0.70549995E+02  0.22176E+04
 0.70599998E+02  0.23933E+04
 0.70649994E+02  0.26868E+04
 0.70699997E+02  0.24456E+04
 0.70749992E+02  0.23542E+04
 0.70799995E+02  0.24444E+04
 0.70849998E+02  0.24933E+04
 0.70899994E+02  0.25349E+04
 0.70949997E+02  0.27416E+04
 0.70999992E+02  0.28939E+04
 0.71049995E+02  0.28827E+04
 0.71099998E+02  0.29709E+04
 0.71149994E+02  0.29083E+04
 0.71199997E+02  0.27510E+04
 0.71249992E+02  0.27574E+04
 0.71299995E+02  0.28207E+04
 0.71349998E+02  0.27006E+04
 0.71399994E+02  0.23043E+04
 0.71449997E+02  0.22351E+04
 0.71499992E+02  0.23960E+04
 0.71549995E+02  0.25001E+04
 0.71599998E+02  0.25822E+04
 0.71649994E+02  0.25843E+04
 0.71699997E+02  0.26994E+04
 0.71749992E+02  0.26784E+04
 0.71799995E+02  0.25786E+04
 0.71849998E+02  0.24691E+04
 0.71899994E+02  0.25433E+04
 0.71949997E+02  0.26058E+04
 0.71999992E+02  0.24438E+04
 0.72049995E+02  0.25406E+04
 0.72099998E+02  0.26668E+04
 0.72149994E+02  0.27546E+04
 0.72199997E+02  0.28210E+04
 0.72249992E+02  0.26801E+04
 0.72299995E+02  0.25202E+04
 0.72349998E+02  0.25030E+04
 0.72399994E+02  0.25512E+04
 0.72449997E+02  0.26385E+04
 0.72499992E+02  0.28242E+04
 0.72549995E+02  0.28934E+04
 0.72599998E+02  0.27873E+04
 0.72649994E+02  0.27242E+04
 0.72699997E+02  0.27138E+04
 0.72749992E+02  0.26201E+04
 0.72799995E+02  0.24832E+04
 0.72849998E+02  0.25244E+04
 0.72899994E+02  0.26558E+04
 0.72949997E+02  0.25491E+04
 0.72999992E+02  0.24169E+04
 0.73049995E+02  0.24671E+04
 0.73099998E+02  0.24874E+04
 0.73149994E+02  0.23736E+04
 0.73199997E+02  0.23191E+04
 0.73249992E+02  0.23758E+04
 0.73299995E+02  0.24897E+04
 0.73349998E+02  0.25767E+04
 0.73399994E+02  0.26019E+04
 0.73449997E+02  0.25605E+04
 0.73499992E+02  0.23786E+04
 0.73549995E+02  0.24190E+04
 0.73599998E+02  0.26031E+04
 0.73649994E+02  0.26316E+04
 0.73699997E+02  0.25919E+04
 0.73749992E+02  0.24486E+04
 0.73799995E+02  0.24341E+04
 0.73849998E+02  0.25945E+04
 0.73899994E+02  0.26590E+04
 0.73949997E+02  0.26759E+04
 0.73999992E+02  0.27587E+04
 0.74049995E+02  0.28076E+04
 0.74099998E+02  0.27018E+04
 0.74149994E+02  0.25860E+04
 0.74199997E+02  0.25121E+04
 0.74249992E+02  0.24934E+04
 0.74299995E+02  0.25813E+04
 0.74349998E+02  0.25901E+04
 0.74399994E+02  0.25571E+04
 0.74449997E+02  0.24816E+04
 0.74499992E+02  0.22653E+04
 0.74549995E+02  0.22474E+04
 0.74599998E+02  0.24210E+04
 0.74649994E+02  0.24718E+04
 0.74699997E+02  0.23415E+04
 0.74749992E+02  0.24373E+04
 0.74799995E+02  0.27997E+04
 0.74849998E+02  0.27447E+04
 0.74899994E+02  0.25787E+04
 0.74949997E+02  0.26717E+04
 0.74999992E+02  0.28604E+04
 0.75049995E+02  0.29991E+04
 0.75099998E+02  0.27986E+04
 0.75149994E+02  0.26462E+04
 0.75199997E+02  0.27124E+04
 0.75249992E+02  0.27542E+04
 0.75299995E+02  0.26726E+04
 0.75349998E+02  0.26001E+04
 0.75399994E+02  0.27272E+04
 0.75449997E+02  0.28421E+04
 0.75499992E+02  0.26992E+04
 0.75549995E+02  0.25462E+04
 0.75599998E+02  0.26772E+04
 0.75649994E+02  0.27452E+04
 0.75699997E+02  0.25819E+04
 0.75749992E+02  0.25111E+04
 0.75799995E+02  0.26507E+04
 0.75849998E+02  0.26614E+04
 0.75899994E+02  0.25141E+04
 0.75949997E+02  0.25307E+04
 0.75999992E+02  0.26714E+04
 0.76049995E+02  0.25225E+04
 0.76099998E+02  0.24042E+04
 0.76149994E+02  0.25224E+04
 0.76199997E+02  0.26589E+04
 0.76249992E+02  0.26906E+04
 0.76299995E+02  0.25746E+04
 0.76349998E+02  0.25942E+04
 0.76399994E+02  0.25501E+04
 0.76449997E+02  0.25540E+04
 0.76499992E+02  0.26577E+04
 0.76549995E+02  0.26526E+04
 0.76599998E+02  0.26247E+04
 0.76649994E+02  0.25409E+04
 0.76699997E+02  0.24495E+04
 0.76749992E+02  0.23714E+04
 0.76799995E+02  0.24997E+04
 0.76849998E+02  0.26701E+04
 0.76899994E+02  0.25495E+04
 0.76949997E+02  0.24091E+04
 0.76999992E+02  0.23580E+04
 0.77049995E+02  0.23892E+04
 0.77099998E+02  0.23975E+04
 0.77149994E+02  0.25253E+04
 0.77199997E+02  0.27788E+04
 0.77249992E+02  0.28740E+04
 0.77299995E+02  0.28386E+04
 0.77349998E+02  0.28037E+04
 0.77399994E+02  0.27984E+04
 0.77449997E+02  0.26998E+04
 0.77499992E+02  0.25588E+04
 0.77549995E+02  0.26290E+04
 0.77599998E+02  0.27807E+04
 0.77649994E+02  0.27526E+04
 0.77699997E+02  0.27375E+04
 0.77749992E+02  0.26973E+04
 0.77799995E+02  0.26757E+04
 0.77849998E+02  0.26579E+04
 0.77899994E+02  0.25780E+04
 0.77949997E+02  0.25282E+04
 0.77999992E+02  0.26102E+04
 0.78049995E+02  0.26489E+04
 0.78099998E+02  0.25693E+04
 0.78149994E+02  0.25456E+04
 0.78199997E+02  0.24956E+04
 0.78249992E+02  0.24152E+04
 0.78299995E+02  0.23901E+04
 0.78349998E+02  0.25591E+04
 0.78399994E+02  0.27634E+04
 0.78449997E+02  0.28411E+04
 0.78499992E+02  0.27174E+04
 0.78549995E+02  0.25586E+04
 0.78599998E+02  0.24336E+04
 0.78649994E+02  0.23160E+04
 0.78699997E+02  0.23182E+04
 0.78749992E+02  0.23500E+04
 0.78799995E+02  0.23654E+04
 0.78849998E+02  0.23164E+04
 0.78899994E+02  0.23356E+04
 0.78949997E+02  0.24152E+04
 0.78999992E+02  0.24417E+04
 0.79049995E+02  0.25078E+04
 0.79099998E+02  0.25991E+04
 0.79149994E+02  0.25938E+04
 0.79199997E+02  0.25883E+04
 0.79249992E+02  0.26021E+04
 0.79299995E+02  0.25262E+04
 0.79349998E+02  0.24641E+04
 0.79399994E+02  0.24730E+04
 0.79449997E+02  0.25564E+04
 0.79499992E+02  0.25857E+04
 0.79549995E+02  0.24892E+04
 0.79599998E+02  0.24990E+04
 0.79649994E+02  0.25731E+04
 0.79699997E+02  0.26604E+04
 0.79749992E+02  0.28125E+04
 0.79799995E+02  0.28386E+04
 0.79849998E+02  0.27353E+04
 0.79899994E+02  0.25940E+04
 0.79949997E+02  0.26145E+04
 0.79999992E+02  0.27461E+04
 0.80049995E+02  0.27423E+04
 0.80099998E+02  0.26935E+04
 0.80149994E+02  0.28174E+04
 0.80199997E+02  0.29682E+04
 0.80249992E+02  0.28360E+04
 0.80299995E+02  0.25031E+04
 0.80349998E+02  0.24516E+04
 0.80399994E+02  0.26848E+04
 0.80449997E+02  0.27808E+04
 0.80499992E+02  0.27045E+04
 0.80549995E+02  0.26481E+04
 0.80599998E+02  0.27209E+04
 0.80649994E+02  0.28015E+04
 0.80699997E+02  0.27710E+04
 0.80749992E+02  0.25680E+04
 0.80799995E+02  0.23601E+04
 0.80849998E+02  0.24172E+04
 0.80899994E+02  0.25378E+04
 0.80949997E+02  0.25343E+04
 0.80999992E+02  0.25411E+04
 0.81049995E+02  0.25500E+04
 0.81099998E+02  0.25832E+04
 0.81149994E+02  0.25809E+04
 0.81199997E+02  0.24462E+04
 0.81249992E+02  0.24382E+04
 0.81299995E+02  0.24947E+04
 0.81349998E+02  0.23815E+04
 0.81399994E+02  0.23561E+04
 0.81449997E+02  0.24548E+04
 0.81499992E+02  0.24915E+04
 0.81549995E+02  0.25780E+04
 0.81599998E+02  0.25755E+04
 0.81649994E+02  0.23838E+04
 0.81699997E+02  0.23079E+04
 0.81749992E+02  0.23684E+04
 0.81799995E+02  0.24637E+04
 0.81849998E+02  0.24714E+04
 0.81899994E+02  0.25674E+04
 0.81949997E+02  0.27640E+04
 0.81999992E+02  0.27980E+04
 0.82049995E+02  0.28181E+04
 0.82099998E+02  0.28316E+04
 0.82149994E+02  0.27438E+04
 0.82199997E+02  0.27615E+04
 0.82249992E+02  0.28716E+04
 0.82299995E+02  0.29537E+04
 0.82349998E+02  0.28051E+04
 0.82399994E+02  0.25955E+04
 0.82449997E+02  0.26166E+04
 0.82499992E+02  0.25581E+04
 0.82549995E+02  0.24920E+04
 0.82599998E+02  0.24781E+04
 0.82649994E+02  0.25559E+04
 0.82699997E+02  0.25524E+04
 0.82749992E+02  0.25087E+04
 0.82799995E+02  0.25772E+04
 0.82849998E+02  0.25122E+04
 0.82899994E+02  0.25068E+04
 0.82949997E+02  0.24794E+04
 0.82999992E+02  0.24165E+04
 0.83049995E+02  0.24862E+04
 0.83099998E+02  0.25253E+04
 0.83149994E+02  0.26364E+04
 0.83199997E+02  0.26883E+04
 0.83249992E+02  0.26495E+04
 0.83299995E+02  0.26110E+04
 0.83349998E+02  0.24141E+04
 0.83399994E+02  0.25040E+04
 0.83449997E+02  0.27062E+04
 0.83499992E+02  0.27473E+04
 0.83549995E+02  0.27238E+04
 0.83599998E+02  0.26210E+04
 0.83649994E+02  0.25878E+04
 0.83699997E+02  0.25469E+04
 0.83749992E+02  0.25159E+04
 0.83799995E+02  0.25368E+04
 0.83849998E+02  0.25926E+04
 0.83899994E+02  0.25715E+04
 0.83949997E+02  0.25459E+04
 0.83999992E+02  0.25517E+04
 0.84049995E+02  0.24452E+04
 0.84099998E+02  0.23145E+04
 0.84149994E+02  0.23285E+04
 0.84199997E+02  0.24283E+04
 0.84249992E+02  0.25372E+04
 0.84299995E+02  0.25938E+04
 0.84349998E+02  0.26226E+04
 0.84399994E+02  0.26966E+04
 0.84449997E+02  0.27351E+04
 0.84499992E+02  0.27535E+04
 0.84549995E+02  0.27764E+04
 0.84599998E+02  0.27126E+04
 0.84649994E+02  0.26336E+04
 0.84699997E+02  0.25728E+04
 0.84749992E+02  0.25695E+04
 0.84799995E+02  0.26735E+04
 0.84849998E+02  0.27893E+04
 0.84899994E+02  0.28086E+04
 0.84949997E+02  0.27464E+04
 0.84999992E+02  0.27809E+04
 0.85049995E+02  0.27731E+04
 0.85099998E+02  0.27528E+04
 0.85149994E+02  0.26272E+04
 0.85199997E+02  0.25430E+04
 0.85249992E+02  0.25570E+04
 0.85299995E+02  0.24489E+04
 0.85349998E+02  0.24831E+04
 0.85399994E+02  0.25882E+04
 0.85449997E+02  0.26264E+04
 0.85499992E+02  0.26311E+04
 0.85549995E+02  0.25970E+04
 0.85599998E+02  0.26211E+04
 0.85649994E+02  0.26437E+04
 0.85699997E+02  0.25627E+04
 0.85749992E+02  0.24827E+04
 0.85799995E+02  0.24487E+04
 0.85849998E+02  0.24501E+04
 0.85899994E+02  0.24686E+04
 0.85949997E+02  0.24832E+04
 0.85999992E+02  0.24575E+04
 0.86049995E+02  0.24341E+04
 0.86099998E+02  0.23715E+04
 0.86149994E+02  0.23814E+04
 0.86199997E+02  0.24721E+04
 0.86249992E+02  0.24995E+04
 0.86299995E+02  0.25654E+04
 0.86349998E+02  0.27034E+04
 0.86399994E+02  0.27559E+04
 0.86449997E+02  0.27263E+04
 0.86499992E+02  0.27444E+04
 0.86549995E+02  0.27607E+04
 0.86599998E+02  0.28053E+04
 0.86649994E+02  0.27737E+04
 0.86699997E+02  0.27508E+04
 0.86749992E+02  0.27591E+04
 0.86799995E+02  0.27250E+04
 0.86849998E+02  0.27345E+04
 0.86899994E+02  0.27695E+04
 0.86949997E+02  0.27658E+04
 0.86999992E+02  0.26574E+04
 0.87049995E+02  0.26038E+04
 0.87099998E+02  0.26063E+04
 0.87149994E+02  0.25217E+04
 0.87199997E+02  0.24519E+04
 0.87249992E+02  0.24865E+04
 0.87299995E+02  0.25378E+04
 0.87349998E+02  0.25667E+04
 0.87399994E+02  0.25307E+04
 0.87449997E+02  0.24820E+04
 0.87499992E+02  0.25009E+04
 0.87549995E+02  0.25164E+04
 0.87599991E+02  0.25475E+04
 0.87649994E+02  0.25781E+04
 0.87699997E+02  0.25432E+04
 0.87749992E+02  0.24559E+04
 0.87799995E+02  0.24436E+04
 0.87849991E+02  0.24082E+04
 0.87899994E+02  0.23216E+04
 0.87949997E+02  0.23570E+04
 0.87999992E+02  0.24342E+04
 0.88049995E+02  0.25056E+04
 0.88099991E+02  0.25273E+04
 0.88149994E+02  0.25282E+04
 0.88199997E+02  0.25249E+04
 0.88249992E+02  0.25159E+04
 0.88299995E+02  0.25663E+04
 0.88349991E+02  0.26328E+04
 0.88399994E+02  0.27449E+04
 0.88449997E+02  0.28518E+04
 0.88499992E+02  0.27610E+04
 0.88549995E+02  0.26755E+04
 0.88599991E+02  0.26324E+04
 0.88649994E+02  0.25742E+04
 0.88699997E+02  0.25806E+04
 0.88749992E+02  0.26022E+04
 0.88799995E+02  0.26736E+04
 0.88849991E+02  0.27209E+04
 0.88899994E+02  0.27578E+04
 0.88949997E+02  0.26988E+04
 0.88999992E+02  0.27049E+04
 0.89049995E+02  0.27674E+04
 0.89099991E+02  0.26359E+04
 0.89149994E+02  0.25272E+04
 0.89199997E+02  0.25957E+04
 0.89249992E+02  0.27057E+04
 0.89299995E+02  0.27272E+04
 0.89349991E+02  0.26796E+04
 0.89399994E+02  0.26199E+04
 0.89449997E+02  0.26279E+04
 0.89499992E+02  0.26187E+04
 0.89549995E+02  0.25678E+04
 0.89599991E+02  0.25707E+04
 0.89649994E+02  0.25563E+04
 0.89699997E+02  0.25567E+04
 0.89749992E+02  0.24995E+04
 0.89799995E+02  0.24544E+04
 0.89849991E+02  0.24572E+04
 0.89899994E+02  0.24391E+04
 0.89949997E+02  0.25205E+04
 0.89999992E+02  0.25473E+04
 0.90049995E+02  0.25384E+04
 0.90099991E+02  0.25788E+04
 0.90149994E+02  0.26235E+04
 0.90199997E+02  0.26370E+04
 0.90249992E+02  0.26124E+04
 0.90299995E+02  0.25584E+04
 0.90349991E+02  0.25295E+04
 0.90399994E+02  0.25251E+04
 0.90449997E+02  0.25144E+04
 0.90499992E+02  0.25059E+04
 0.90549995E+02  0.25038E+04
 0.90599991E+02  0.25406E+04
 0.90649994E+02  0.26314E+04
 0.90699997E+02  0.27167E+04
 0.90749992E+02  0.26960E+04
 0.90799995E+02  0.26030E+04
 0.90849991E+02  0.25434E+04
 0.90899994E+02  0.25001E+04
 0.90949997E+02  0.25449E+04
 0.90999992E+02  0.26000E+04
 0.91049995E+02  0.25963E+04
 0.91099991E+02  0.26409E+04
 0.91149994E+02  0.25955E+04
 0.91199997E+02  0.25967E+04
 0.91249992E+02  0.25778E+04
 0.91299995E+02  0.25490E+04
 0.91349991E+02  0.26022E+04
 0.91399994E+02  0.26534E+04
 0.91449997E+02  0.26655E+04
 0.91499992E+02  0.25732E+04
 0.91549995E+02  0.25857E+04
 0.91599991E+02  0.26141E+04
 0.91649994E+02  0.25482E+04
 0.91699997E+02  0.24636E+04
 0.91749992E+02  0.24290E+04
 0.91799995E+02  0.24207E+04
 0.91849991E+02  0.24095E+04
 0.91899994E+02  0.24927E+04
 0.91949997E+02  0.26334E+04
 0.91999992E+02  0.27228E+04
 0.92049995E+02  0.26651E+04
 0.92099991E+02  0.26645E+04
 0.92149994E+02  0.27441E+04
 0.92199997E+02  0.27285E+04
 0.92249992E+02  0.26844E+04
 0.92299995E+02  0.26272E+04
 0.92349991E+02  0.26494E+04
 0.92399994E+02  0.26721E+04
 0.92449997E+02  0.26021E+04
 0.92499992E+02  0.25744E+04
 0.92549995E+02  0.25306E+04
 0.92599991E+02  0.25485E+04
 0.92649994E+02  0.26280E+04
 0.92699997E+02  0.26381E+04
 0.92749992E+02  0.26666E+04
 0.92799995E+02  0.26514E+04
 0.92849991E+02  0.26579E+04
 0.92899994E+02  0.26000E+04
 0.92949997E+02  0.25099E+04
 0.92999992E+02  0.25345E+04
 0.93049995E+02  0.25814E+04
 0.93099991E+02  0.26406E+04
 0.93149994E+02  0.25868E+04
 0.93199997E+02  0.25101E+04
 0.93249992E+02  0.25343E+04
 0.93299995E+02  0.25548E+04
 0.93349991E+02  0.25057E+04
 0.93399994E+02  0.24796E+04
 0.93449997E+02  0.25826E+04
 0.93499992E+02  0.26805E+04
 0.93549995E+02  0.26857E+04
 0.93599991E+02  0.26123E+04
 0.93649994E+02  0.25911E+04
 0.93699997E+02  0.26243E+04
 0.93749992E+02  0.25363E+04
 0.93799995E+02  0.25364E+04
 0.93849991E+02  0.26245E+04
 0.93899994E+02  0.26545E+04
 0.93949997E+02  0.26475E+04
 0.93999992E+02  0.25976E+04
 0.94049995E+02  0.25785E+04
 0.94099991E+02  0.25799E+04
 0.94149994E+02  0.26033E+04
 0.94199997E+02  0.26522E+04
 0.94249992E+02  0.26517E+04
 0.94299995E+02  0.26160E+04
 0.94349991E+02  0.25406E+04
 0.94399994E+02  0.24356E+04
 0.94449997E+02  0.24515E+04
 0.94499992E+02  0.25481E+04
 0.94549995E+02  0.25639E+04
 0.94599991E+02  0.25577E+04
 0.94649994E+02  0.25592E+04
 0.94699997E+02  0.25595E+04
 0.94749992E+02  0.26011E+04
 0.94799995E+02  0.25858E+04
 0.94849991E+02  0.25468E+04
 0.94899994E+02  0.25395E+04
 0.94949997E+02  0.24932E+04
 0.94999992E+02  0.24658E+04
 0.95049995E+02  0.24676E+04
 0.95099991E+02  0.25199E+04
 0.95149994E+02  0.25980E+04
 0.95199997E+02  0.26853E+04
 0.95249992E+02  0.27847E+04
 0.95299995E+02  0.27679E+04
 0.95349991E+02  0.26664E+04
 0.95399994E+02  0.26168E+04
 0.95449997E+02  0.26122E+04
 0.95499992E+02  0.26026E+04
 0.95549995E+02  0.25863E+04
 0.95599991E+02  0.26542E+04
 0.95649994E+02  0.27489E+04
 0.95699997E+02  0.27175E+04
 0.95749992E+02  0.26638E+04
 0.95799995E+02  0.26275E+04
 0.95849991E+02  0.26240E+04
 0.95899994E+02  0.26331E+04
 0.95949997E+02  0.26302E+04
 0.95999992E+02  0.26410E+04
 0.96049995E+02  0.26494E+04
 0.96099991E+02  0.26180E+04
 0.96149994E+02  0.26105E+04
 0.96199997E+02  0.26296E+04
 0.96249992E+02  0.25731E+04
 0.96299995E+02  0.25621E+04
 0.96349991E+02  0.26493E+04
 0.96399994E+02  0.26851E+04
 0.96449997E+02  0.25882E+04
 0.96499992E+02  0.25611E+04
 0.96549995E+02  0.26469E+04
 0.96599991E+02  0.26759E+04
 0.96649994E+02  0.26382E+04
 0.96699997E+02  0.25520E+04
 0.96749992E+02  0.24458E+04
 0.96799995E+02  0.23891E+04
 0.96849991E+02  0.23971E+04
 0.96899994E+02  0.24767E+04
 0.96949997E+02  0.26104E+04
 0.96999992E+02  0.26175E+04
 0.97049995E+02  0.25683E+04
 0.97099991E+02  0.25600E+04
 0.97149994E+02  0.25394E+04
 0.97199997E+02  0.25608E+04
 0.97249992E+02  0.25556E+04
 0.97299995E+02  0.25286E+04
 0.97349991E+02  0.25468E+04
 0.97399994E+02  0.26286E+04
 0.97449997E+02  0.26714E+04
 0.97499992E+02  0.26182E+04
 0.97549995E+02  0.26042E+04
 0.97599991E+02  0.26647E+04
 0.97649994E+02  0.26852E+04
 0.97699997E+02  0.25902E+04
 0.97749992E+02  0.25149E+04
 0.97799995E+02  0.25257E+04
 0.97849991E+02  0.25661E+04
 0.97899994E+02  0.26066E+04
 0.97949997E+02  0.26488E+04
 0.97999992E+02  0.26337E+04
