-0.20000000E+01  0.16246E+05
-0.19500000E+01  0.17027E+05
-0.19000000E+01  0.16455E+05
-0.18500000E+01  0.15270E+05
-0.18000000E+01  0.13235E+05
-0.17500000E+01  0.10364E+05
-0.17000000E+01  0.66911E+04
-0.16500001E+01  0.23318E+04
-0.16000000E+01 -0.27896E+04
-0.15500000E+01 -0.84022E+04
-0.15000000E+01 -0.14056E+05
-0.14500000E+01 -0.19649E+05
-0.14000001E+01 -0.24872E+05
-0.13500000E+01 -0.29712E+05
-0.13000001E+01 -0.34309E+05
-0.12500000E+01 -0.38839E+05
-0.12000000E+01 -0.43269E+05
-0.11500001E+01 -0.47527E+05
-0.11000000E+01 -0.51556E+05
-0.10500001E+01 -0.55247E+05
-0.10000000E+01 -0.58631E+05
-0.95000005E+00 -0.61453E+05
-0.90000010E+00 -0.63445E+05
-0.85000002E+00 -0.64339E+05
-0.80000007E+00 -0.63903E+05
-0.75000012E+00 -0.62173E+05
-0.70000005E+00 -0.59518E+05
-0.65000010E+00 -0.56171E+05
-0.60000014E+00 -0.51862E+05
-0.55000007E+00 -0.46498E+05
-0.50000012E+00 -0.40315E+05
-0.45000005E+00 -0.33449E+05
-0.40000010E+00 -0.26232E+05
-0.35000014E+00 -0.19340E+05
-0.30000007E+00 -0.13170E+05
-0.25000012E+00 -0.80329E+04
-0.20000005E+00 -0.37764E+04
-0.15000010E+00  0.11665E+03
-0.10000014E+00  0.40418E+04
-0.50000072E-01  0.81218E+04
-0.11920929E-06  0.12090E+05
 0.49999952E-01  0.16041E+05
 0.99999905E-01  0.20084E+05
 0.14999986E+00  0.24001E+05
 0.19999981E+00  0.27711E+05
 0.24999976E+00  0.31514E+05
 0.29999995E+00  0.35608E+05
 0.34999990E+00  0.39719E+05
 0.39999986E+00  0.43554E+05
 0.44999981E+00  0.46643E+05
 0.49999976E+00  0.48903E+05
 0.54999995E+00  0.50337E+05
 0.59999990E+00  0.50784E+05
 0.64999986E+00  0.50511E+05
 0.69999981E+00  0.49628E+05
 0.74999976E+00  0.48317E+05
 0.79999971E+00  0.46540E+05
 0.84999990E+00  0.44553E+05
 0.89999986E+00  0.42712E+05
 0.94999981E+00  0.41168E+05
 0.99999976E+00  0.40241E+05
 0.10499997E+01  0.40123E+05
 0.10999999E+01  0.40281E+05
 0.11499999E+01  0.40115E+05
 0.11999998E+01  0.39699E+05
 0.12499998E+01  0.39066E+05
 0.12999997E+01  0.38071E+05
 0.13499999E+01  0.36048E+05
 0.13999999E+01  0.32661E+05
 0.14499998E+01  0.28111E+05
 0.14999998E+01  0.22599E+05
 0.15499997E+01  0.16474E+05
 0.15999999E+01  0.99006E+04
 0.16499999E+01  0.30301E+04
 0.16999998E+01 -0.39202E+04
 0.17499998E+01 -0.10806E+05
 0.17999997E+01 -0.17422E+05
 0.18499997E+01 -0.23750E+05
 0.18999999E+01 -0.29906E+05
 0.19499998E+01 -0.36016E+05
 0.19999998E+01 -0.42042E+05
 0.20499997E+01 -0.48015E+05
 0.20999999E+01 -0.54159E+05
 0.21499996E+01 -0.60290E+05
 0.21999998E+01 -0.65948E+05
 0.22499995E+01 -0.70759E+05
 0.22999997E+01 -0.74767E+05
 0.23499999E+01 -0.78297E+05
 0.23999996E+01 -0.81519E+05
 0.24499998E+01 -0.84358E+05
 0.24999995E+01 -0.86216E+05
 0.25499997E+01 -0.86749E+05
 0.25999999E+01 -0.85967E+05
 0.26499996E+01 -0.84013E+05
 0.26999998E+01 -0.81408E+05
 0.27499995E+01 -0.78550E+05
 0.27999997E+01 -0.75291E+05
 0.28499999E+01 -0.71162E+05
 0.28999996E+01 -0.66030E+05
 0.29499998E+01 -0.59871E+05
 0.29999995E+01 -0.52965E+05
 0.30499997E+01 -0.45493E+05
 0.30999999E+01 -0.37387E+05
 0.31499996E+01 -0.28671E+05
 0.31999998E+01 -0.19535E+05
 0.32499995E+01 -0.10375E+05
 0.32999997E+01 -0.14263E+04
 0.33499999E+01  0.72449E+04
 0.33999996E+01  0.15460E+05
 0.34499998E+01  0.22773E+05
 0.34999995E+01  0.28720E+05
 0.35499997E+01  0.33091E+05
 0.35999994E+01  0.36160E+05
 0.36499996E+01  0.38249E+05
 0.36999998E+01  0.39629E+05
 0.37499995E+01  0.40742E+05
 0.37999997E+01  0.41947E+05
 0.38499994E+01  0.43262E+05
 0.38999996E+01  0.44650E+05
 0.39499998E+01  0.46174E+05
 0.39999995E+01  0.47940E+05
 0.40499997E+01  0.49831E+05
 0.40999994E+01  0.51471E+05
 0.41499996E+01  0.52820E+05
 0.41999998E+01  0.53907E+05
 0.42499995E+01  0.54703E+05
 0.42999997E+01  0.55489E+05
 0.43499994E+01  0.56437E+05
 0.43999996E+01  0.57497E+05
 0.44499998E+01  0.58602E+05
 0.44999995E+01  0.59591E+05
 0.45499997E+01  0.60354E+05
 0.45999994E+01  0.61026E+05
 0.46499996E+01  0.61738E+05
 0.46999998E+01  0.62398E+05
 0.47499995E+01  0.62956E+05
 0.47999997E+01  0.63035E+05
 0.48499994E+01  0.62081E+05
 0.48999996E+01  0.59984E+05
 0.49499998E+01  0.56728E+05
 0.49999995E+01  0.52250E+05
 0.50499997E+01  0.46673E+05
 0.50999994E+01  0.40264E+05
 0.51499996E+01  0.33170E+05
 0.51999998E+01  0.25283E+05
 0.52499995E+01  0.16741E+05
 0.52999997E+01  0.81388E+04
 0.53499994E+01 -0.15143E+02
 0.53999996E+01 -0.74076E+04
 0.54499993E+01 -0.13850E+05
 0.54999995E+01 -0.19319E+05
 0.55499997E+01 -0.24010E+05
 0.55999994E+01 -0.28103E+05
 0.56499996E+01 -0.31450E+05
 0.56999993E+01 -0.33788E+05
 0.57499995E+01 -0.34881E+05
 0.57999997E+01 -0.35046E+05
 0.58499994E+01 -0.34961E+05
 0.58999996E+01 -0.34933E+05
 0.59499993E+01 -0.34955E+05
 0.59999995E+01 -0.35030E+05
 0.60499992E+01 -0.35162E+05
 0.60999994E+01 -0.34975E+05
 0.61499996E+01 -0.34119E+05
 0.61999998E+01 -0.32452E+05
 0.62499990E+01 -0.30149E+05
 0.62999992E+01 -0.27565E+05
 0.63499994E+01 -0.24837E+05
 0.63999996E+01 -0.21994E+05
 0.64499998E+01 -0.19165E+05
 0.64999990E+01 -0.16477E+05
 0.65499992E+01 -0.13720E+05
 0.65999994E+01 -0.10682E+05
 0.66499996E+01 -0.75902E+04
 0.66999998E+01 -0.46832E+04
 0.67499990E+01 -0.19803E+04
 0.67999992E+01  0.38278E+03
 0.68499994E+01  0.22596E+04
 0.68999996E+01  0.36451E+04
 0.69499998E+01  0.45587E+04
 0.69999990E+01  0.51077E+04
 0.70499992E+01  0.54049E+04
 0.70999994E+01  0.52269E+04
 0.71499996E+01  0.47093E+04
 0.71999998E+01  0.42686E+04
 0.72499990E+01  0.40961E+04
 0.72999992E+01  0.41574E+04
 0.73499994E+01  0.44795E+04
 0.73999996E+01  0.50574E+04
 0.74499998E+01  0.56689E+04
 0.74999990E+01  0.63217E+04
 0.75499992E+01  0.69080E+04
 0.75999994E+01  0.75413E+04
 0.76499996E+01  0.83671E+04
 0.76999998E+01  0.93326E+04
 0.77499990E+01  0.10367E+05
 0.77999992E+01  0.11299E+05
 0.78499994E+01  0.12181E+05
 0.78999996E+01  0.12811E+05
 0.79499998E+01  0.12822E+05
 0.79999990E+01  0.12054E+05
 0.80499992E+01  0.10644E+05
 0.80999994E+01  0.88784E+04
 0.81499996E+01  0.68536E+04
 0.81999998E+01  0.45872E+04
 0.82499990E+01  0.22804E+04
 0.82999992E+01  0.41385E+02
 0.83499994E+01 -0.24106E+04
 0.83999996E+01 -0.50626E+04
 0.84499998E+01 -0.76447E+04
 0.84999990E+01 -0.10080E+05
 0.85499992E+01 -0.12308E+05
 0.85999994E+01 -0.14306E+05
 0.86499996E+01 -0.15960E+05
 0.86999998E+01 -0.17059E+05
 0.87499990E+01 -0.17667E+05
 0.87999992E+01 -0.17886E+05
 0.88499994E+01 -0.17896E+05
 0.88999996E+01 -0.17954E+05
 0.89499998E+01 -0.18233E+05
 0.89999990E+01 -0.18690E+05
 0.90499992E+01 -0.19240E+05
 0.90999994E+01 -0.19989E+05
 0.91499996E+01 -0.20861E+05
 0.91999989E+01 -0.21616E+05
 0.92499990E+01 -0.21950E+05
 0.92999992E+01 -0.21716E+05
 0.93499994E+01 -0.20995E+05
 0.93999996E+01 -0.19987E+05
 0.94499989E+01 -0.18972E+05
 0.94999990E+01 -0.17942E+05
 0.95499992E+01 -0.16912E+05
 0.95999994E+01 -0.15873E+05
 0.96499996E+01 -0.14531E+05
 0.96999989E+01 -0.12915E+05
 0.97499990E+01 -0.11177E+05
 0.97999992E+01 -0.90077E+04
 0.98499994E+01 -0.61002E+04
 0.98999996E+01 -0.26611E+04
 0.99499989E+01  0.93525E+03
 0.99999990E+01  0.45559E+04
 0.10049999E+02  0.81305E+04
 0.10099999E+02  0.11252E+05
 0.10150000E+02  0.13530E+05
 0.10199999E+02  0.15065E+05
 0.10249999E+02  0.16141E+05
 0.10299999E+02  0.16705E+05
 0.10349999E+02  0.16889E+05
 0.10400000E+02  0.16724E+05
 0.10449999E+02  0.16004E+05
 0.10499999E+02  0.14772E+05
 0.10549999E+02  0.13022E+05
 0.10599999E+02  0.10745E+05
 0.10650000E+02  0.79617E+04
 0.10699999E+02  0.47017E+04
 0.10749999E+02  0.10661E+04
 0.10799999E+02 -0.25549E+04
 0.10849999E+02 -0.55362E+04
 0.10900000E+02 -0.75522E+04
 0.10949999E+02 -0.87061E+04
 0.10999999E+02 -0.91124E+04
 0.11049999E+02 -0.86520E+04
 0.11099999E+02 -0.72651E+04
 0.11150000E+02 -0.52251E+04
 0.11199999E+02 -0.29699E+04
 0.11249999E+02 -0.79893E+03
 0.11299999E+02  0.13117E+04
 0.11349999E+02  0.31701E+04
 0.11400000E+02  0.43958E+04
 0.11449999E+02  0.48591E+04
 0.11499999E+02  0.44899E+04
 0.11549999E+02  0.30824E+04
 0.11599999E+02  0.63066E+03
 0.11650000E+02 -0.26092E+04
 0.11699999E+02 -0.63136E+04
 0.11749999E+02 -0.10330E+05
 0.11799999E+02 -0.14694E+05
 0.11849999E+02 -0.19152E+05
 0.11900000E+02 -0.23337E+05
 0.11949999E+02 -0.26914E+05
 0.11999999E+02 -0.29629E+05
 0.12049999E+02 -0.31524E+05
 0.12099999E+02 -0.32739E+05
 0.12150000E+02 -0.33231E+05
 0.12199999E+02 -0.32781E+05
 0.12249999E+02 -0.31215E+05
 0.12299999E+02 -0.28776E+05
 0.12349999E+02 -0.25819E+05
 0.12400000E+02 -0.22529E+05
 0.12449999E+02 -0.19459E+05
 0.12499999E+02 -0.16827E+05
 0.12549999E+02 -0.14347E+05
 0.12599999E+02 -0.12340E+05
 0.12649999E+02 -0.10734E+05
 0.12699999E+02 -0.96097E+04
 0.12749999E+02 -0.77821E+04
 0.12799999E+02 -0.52712E+04
 0.12849999E+02 -0.25765E+04
 0.12899999E+02 -0.33987E+04
 0.12949999E+02 -0.65823E+04
 0.12999999E+02 -0.10326E+05
 0.13049999E+02 -0.92247E+04
 0.13099999E+02 -0.47077E+04
 0.13149999E+02  0.49697E+04
 0.13199999E+02  0.19423E+05
 0.13249999E+02  0.16488E+05
 0.13299999E+02 -0.67456E+04
 0.13349999E+02 -0.58401E+04
 0.13399999E+02  0.26410E+05
 0.13449999E+02  0.47125E+05
 0.13499999E+02  0.65590E+05
 0.13549999E+02  0.49915E+05
 0.13599999E+02  0.96504E+04
 0.13649999E+02  0.15637E+04
 0.13699999E+02  0.38958E+05
 0.13749999E+02  0.68198E+05
 0.13799999E+02  0.90391E+05
 0.13849999E+02  0.78645E+05
 0.13899999E+02  0.69303E+05
 0.13949999E+02  0.10360E+06
 0.13999999E+02  0.14662E+06
 0.14049999E+02  0.22639E+06
 0.14099998E+02  0.26176E+06
 0.14150000E+02  0.23204E+06
 0.14199999E+02  0.23446E+06
 0.14249998E+02  0.28857E+06
 0.14299999E+02  0.25255E+06
 0.14349998E+02  0.23972E+06
 0.14400000E+02  0.25423E+06
 0.14449999E+02  0.20975E+06
 0.14499998E+02  0.17450E+06
 0.14549999E+02  0.18206E+06
 0.14599998E+02  0.21883E+06
 0.14650000E+02  0.29197E+06
 0.14699999E+02  0.34947E+06
 0.14749998E+02  0.30565E+06
 0.14799999E+02  0.11088E+06
 0.14849998E+02  0.68945E+04
 0.14900000E+02  0.56960E+05
 0.14949999E+02  0.62772E+05
 0.14999998E+02  0.15947E+06
 0.15049999E+02  0.10080E+06
 0.15099998E+02 -0.29779E+04
 0.15150000E+02 -0.67233E+05
 0.15199999E+02  0.66381E+05
 0.15249998E+02  0.14201E+06
 0.15299999E+02  0.11061E+06
 0.15349998E+02  0.62707E+05
 0.15400000E+02 -0.14787E+05
 0.15449999E+02  0.88789E+05
 0.15499998E+02 -0.88821E+05
 0.15549999E+02 -0.46996E+06
 0.15599998E+02 -0.49058E+06
 0.15650000E+02 -0.25601E+06
 0.15699999E+02 -0.20985E+06
 0.15749998E+02  0.11035E+05
 0.15799999E+02  0.34909E+05
 0.15849998E+02 -0.16421E+06
 0.15900000E+02 -0.26039E+06
 0.15949999E+02 -0.14457E+06
 0.15999998E+02  0.45629E+05
 0.16049999E+02 -0.17549E+06
 0.16099998E+02 -0.20689E+06
 0.16150000E+02 -0.10387E+06
 0.16199999E+02 -0.39942E+05
 0.16249998E+02 -0.25098E+03
 0.16299999E+02  0.50524E+05
 0.16349998E+02  0.16774E+06
 0.16400000E+02  0.14006E+06
 0.16449999E+02  0.85766E+05
 0.16499998E+02 -0.32164E+05
 0.16549999E+02  0.70932E+05
 0.16599998E+02  0.95821E+05
 0.16650000E+02  0.58261E+05
 0.16699999E+02  0.19826E+06
 0.16749998E+02  0.19121E+06
 0.16799999E+02  0.19362E+06
 0.16849998E+02  0.19962E+06
 0.16900000E+02  0.29996E+06
 0.16949999E+02  0.63722E+06
 0.16999998E+02  0.63257E+06
 0.17049999E+02  0.44323E+06
 0.17099998E+02  0.33063E+06
 0.17150000E+02  0.24077E+06
 0.17199999E+02  0.22012E+06
 0.17249998E+02  0.14666E+06
 0.17299999E+02  0.15307E+06
 0.17349998E+02  0.27111E+06
 0.17400000E+02  0.26975E+06
 0.17449999E+02 -0.26085E+05
 0.17499998E+02  0.12917E+06
 0.17549999E+02  0.41227E+06
 0.17599998E+02  0.34670E+06
 0.17650000E+02  0.30579E+06
 0.17699999E+02  0.28178E+06
 0.17749998E+02  0.26716E+06
 0.17799999E+02 -0.73534E+03
 0.17849998E+02  0.60900E+04
 0.17900000E+02  0.35558E+06
 0.17949999E+02  0.42680E+06
 0.17999998E+02  0.28562E+06
 0.18049999E+02  0.21625E+06
 0.18099998E+02  0.56089E+06
 0.18150000E+02  0.63869E+06
 0.18199999E+02  0.51181E+06
 0.18249998E+02  0.43516E+06
 0.18299999E+02  0.84212E+05
 0.18349998E+02  0.78902E+05
 0.18400000E+02  0.24912E+06
 0.18449999E+02  0.33285E+05
 0.18499998E+02  0.41358E+04
 0.18549999E+02  0.27335E+06
 0.18599998E+02  0.48448E+06
 0.18650000E+02  0.65596E+06
 0.18699999E+02  0.53468E+06
 0.18749998E+02  0.55425E+06
 0.18799999E+02  0.63928E+06
 0.18849998E+02  0.55704E+06
 0.18900000E+02  0.54337E+06
 0.18949999E+02  0.51866E+06
 0.18999998E+02  0.75503E+06
 0.19049999E+02  0.84280E+06
 0.19099998E+02  0.98930E+06
 0.19150000E+02  0.12589E+07
 0.19199999E+02  0.10479E+07
 0.19249998E+02  0.10752E+07
 0.19299999E+02  0.12467E+07
 0.19349998E+02  0.12722E+07
 0.19400000E+02  0.10504E+07
 0.19449999E+02  0.79773E+06
 0.19499998E+02  0.78159E+06
 0.19549999E+02  0.79535E+06
 0.19599998E+02  0.11252E+07
 0.19650000E+02  0.99815E+06
 0.19699999E+02  0.77445E+06
 0.19749998E+02  0.97708E+06
 0.19799999E+02  0.10494E+07
 0.19849998E+02  0.10101E+07
 0.19900000E+02  0.12101E+07
 0.19949999E+02  0.12553E+07
 0.19999998E+02  0.79994E+06
 0.20049999E+02  0.49722E+06
 0.20099998E+02  0.15855E+06
 0.20150000E+02  0.16191E+06
 0.20199999E+02  0.19106E+06
 0.20249998E+02 -0.20846E+05
 0.20299999E+02 -0.98655E+05
 0.20349998E+02 -0.24424E+06
 0.20399998E+02 -0.39291E+06
 0.20449999E+02 -0.63169E+06
 0.20499998E+02 -0.70063E+06
 0.20549999E+02 -0.80468E+06
 0.20599998E+02 -0.10962E+07
 0.20649998E+02 -0.16277E+07
 0.20699999E+02 -0.22636E+07
 0.20749998E+02 -0.25152E+07
 0.20799999E+02 -0.29062E+07
 0.20849998E+02 -0.33857E+07
 0.20899998E+02 -0.37818E+07
 0.20949999E+02 -0.41867E+07
 0.20999998E+02 -0.44794E+07
 0.21049999E+02 -0.46361E+07
 0.21099998E+02 -0.49204E+07
 0.21149998E+02 -0.55431E+07
 0.21199999E+02 -0.59144E+07
 0.21249998E+02 -0.57819E+07
 0.21299999E+02 -0.50356E+07
 0.21349998E+02 -0.43144E+07
 0.21399998E+02 -0.35747E+07
 0.21449999E+02 -0.27217E+07
 0.21499998E+02 -0.22999E+07
 0.21549999E+02 -0.17891E+07
 0.21599998E+02 -0.76980E+06
 0.21649998E+02 -0.46145E+05
 0.21699999E+02 -0.28714E+06
 0.21749998E+02 -0.11415E+07
 0.21799999E+02 -0.24839E+07
 0.21849998E+02 -0.34017E+07
 0.21899998E+02 -0.34988E+07
 0.21949999E+02 -0.30552E+07
 0.21999998E+02 -0.28937E+07
 0.22049999E+02 -0.33285E+07
 0.22099998E+02 -0.44031E+07
 0.22149998E+02 -0.60048E+07
 0.22199999E+02 -0.64625E+07
 0.22249998E+02 -0.63946E+07
 0.22299999E+02 -0.55423E+07
 0.22349998E+02 -0.43712E+07
 0.22399998E+02 -0.41432E+07
 0.22449999E+02 -0.41841E+07
 0.22499998E+02 -0.40948E+07
 0.22549999E+02 -0.29117E+07
 0.22599998E+02 -0.12707E+07
 0.22649998E+02 -0.15967E+06
 0.22699999E+02 -0.25199E+06
 0.22749998E+02 -0.10317E+07
 0.22799999E+02 -0.15290E+07
 0.22849998E+02 -0.15942E+07
 0.22899998E+02 -0.11857E+07
 0.22949999E+02 -0.21930E+06
 0.22999998E+02  0.86798E+06
 0.23049999E+02  0.19212E+07
 0.23099998E+02  0.40220E+07
 0.23149998E+02  0.51577E+07
 0.23199999E+02  0.44165E+07
 0.23249998E+02  0.34962E+07
 0.23299999E+02  0.30558E+07
 0.23349998E+02  0.32543E+07
 0.23399998E+02  0.31213E+07
 0.23449999E+02  0.23893E+07
 0.23499998E+02  0.12337E+07
 0.23549999E+02 -0.77449E+06
 0.23599998E+02 -0.18060E+07
 0.23649998E+02 -0.13684E+07
 0.23699999E+02 -0.15721E+07
 0.23749998E+02 -0.10354E+07
 0.23799999E+02  0.34736E+06
 0.23849998E+02  0.11034E+07
 0.23899998E+02  0.14367E+07
 0.23949999E+02  0.14187E+07
 0.23999998E+02  0.13957E+07
 0.24049999E+02  0.66999E+06
 0.24099998E+02  0.11544E+06
 0.24149998E+02  0.79605E+06
 0.24199999E+02  0.15065E+07
 0.24249998E+02  0.16278E+07
 0.24299999E+02  0.21215E+07
 0.24349998E+02  0.34072E+07
 0.24399998E+02  0.34904E+07
 0.24449999E+02  0.26735E+07
 0.24499998E+02  0.23150E+07
 0.24549999E+02  0.17099E+07
 0.24599998E+02  0.11663E+07
 0.24649998E+02  0.16155E+07
 0.24699999E+02  0.24421E+07
 0.24749998E+02  0.18998E+07
 0.24799999E+02  0.32465E+06
 0.24849998E+02 -0.67647E+06
 0.24899998E+02 -0.14274E+07
 0.24949999E+02 -0.14683E+07
 0.24999998E+02 -0.56122E+06
 0.25049999E+02  0.22009E+06
 0.25099998E+02  0.21635E+06
 0.25149998E+02 -0.93287E+06
 0.25199999E+02 -0.19220E+07
 0.25249998E+02 -0.25225E+07
 0.25299999E+02 -0.27007E+07
 0.25349998E+02 -0.19348E+07
 0.25399998E+02 -0.67203E+06
 0.25449999E+02  0.24828E+06
 0.25499998E+02  0.81531E+06
 0.25549999E+02  0.89024E+06
 0.25599998E+02  0.12337E+07
 0.25649998E+02  0.29311E+07
 0.25699999E+02  0.41778E+07
 0.25749998E+02  0.38664E+07
 0.25799999E+02  0.36600E+07
 0.25849998E+02  0.43247E+07
 0.25899998E+02  0.44175E+07
 0.25949999E+02  0.33505E+07
 0.25999998E+02  0.18111E+07
 0.26049999E+02  0.13569E+07
 0.26099998E+02  0.18547E+07
 0.26149998E+02  0.21034E+07
 0.26199999E+02  0.22600E+07
 0.26249998E+02  0.23691E+07
 0.26299999E+02  0.21734E+07
 0.26349998E+02  0.18205E+07
 0.26399998E+02  0.81707E+06
 0.26449999E+02 -0.43648E+06
 0.26499998E+02 -0.11998E+07
 0.26549999E+02 -0.17069E+07
 0.26599998E+02 -0.14522E+07
 0.26649998E+02 -0.19628E+06
 0.26699999E+02  0.12896E+07
 0.26749998E+02  0.19818E+07
 0.26799999E+02  0.23585E+07
 0.26849998E+02  0.30064E+07
 0.26899998E+02  0.37618E+07
 0.26949999E+02  0.47647E+07
 0.26999998E+02  0.55064E+07
 0.27049997E+02  0.54814E+07
 0.27099998E+02  0.53233E+07
 0.27149998E+02  0.52634E+07
 0.27199999E+02  0.50831E+07
 0.27249998E+02  0.48291E+07
 0.27299997E+02  0.44377E+07
 0.27349998E+02  0.44334E+07
 0.27399998E+02  0.48168E+07
 0.27449999E+02  0.45521E+07
 0.27499998E+02  0.41809E+07
 0.27549997E+02  0.42241E+07
 0.27599998E+02  0.43060E+07
 0.27649998E+02  0.41772E+07
 0.27699999E+02  0.34112E+07
 0.27749998E+02  0.25892E+07
 0.27799997E+02  0.19521E+07
 0.27849998E+02  0.10990E+07
 0.27899998E+02  0.30971E+06
 0.27949999E+02 -0.39552E+06
 0.27999998E+02 -0.71837E+06
 0.28049997E+02 -0.95701E+06
 0.28099998E+02 -0.15623E+07
 0.28149998E+02 -0.19580E+07
 0.28199999E+02 -0.28086E+07
 0.28249998E+02 -0.34041E+07
 0.28299997E+02 -0.32906E+07
 0.28349998E+02 -0.30016E+07
 0.28399998E+02 -0.25912E+07
 0.28449999E+02 -0.22134E+07
 0.28499998E+02 -0.18334E+07
 0.28549997E+02 -0.20630E+07
 0.28599998E+02 -0.28183E+07
 0.28649998E+02 -0.33963E+07
 0.28699999E+02 -0.31871E+07
 0.28749998E+02 -0.27630E+07
 0.28799997E+02 -0.25861E+07
 0.28849998E+02 -0.27420E+07
 0.28899998E+02 -0.33722E+07
 0.28949999E+02 -0.41037E+07
 0.28999998E+02 -0.41205E+07
 0.29049997E+02 -0.31241E+07
 0.29099998E+02 -0.21741E+07
 0.29149998E+02 -0.15657E+07
 0.29199999E+02 -0.14254E+07
 0.29249998E+02 -0.13170E+07
 0.29299997E+02 -0.12264E+07
 0.29349998E+02 -0.17055E+07
 0.29399998E+02 -0.19312E+07
 0.29449999E+02 -0.19786E+07
 0.29499998E+02 -0.24939E+07
 0.29549997E+02 -0.30910E+07
 0.29599998E+02 -0.30464E+07
 0.29649998E+02 -0.24178E+07
 0.29699999E+02 -0.15768E+07
 0.29749998E+02 -0.10340E+07
 0.29799997E+02 -0.68336E+06
 0.29849998E+02  0.13908E+06
 0.29899998E+02  0.67761E+06
 0.29949999E+02  0.79227E+06
 0.29999998E+02  0.97541E+06
 0.30049999E+02  0.10376E+07
 0.30099998E+02  0.98002E+06
 0.30149998E+02  0.61219E+06
 0.30199997E+02  0.58324E+06
 0.30249996E+02  0.11216E+07
 0.30299999E+02  0.19947E+07
 0.30349998E+02  0.30350E+07
 0.30399998E+02  0.37460E+07
 0.30449997E+02  0.44264E+07
 0.30499996E+02  0.49665E+07
 0.30549999E+02  0.52627E+07
 0.30599998E+02  0.55262E+07
 0.30649998E+02  0.57062E+07
 0.30699997E+02  0.57605E+07
 0.30749996E+02  0.54234E+07
 0.30799999E+02  0.46375E+07
 0.30849998E+02  0.37903E+07
 0.30899998E+02  0.35618E+07
 0.30949997E+02  0.34663E+07
 0.30999996E+02  0.31902E+07
 0.31049999E+02  0.29626E+07
 0.31099998E+02  0.24291E+07
 0.31149998E+02  0.16654E+07
 0.31199997E+02  0.85375E+06
 0.31249996E+02  0.31462E+06
 0.31299999E+02  0.96233E+04
 0.31349998E+02  0.31147E+05
 0.31399998E+02  0.13347E+06
 0.31449997E+02  0.18137E+06
 0.31499996E+02 -0.86439E+05
 0.31549999E+02 -0.77581E+06
 0.31599998E+02 -0.13192E+07
 0.31649998E+02 -0.15356E+07
 0.31699997E+02 -0.11863E+07
 0.31749996E+02 -0.10642E+07
 0.31799999E+02 -0.13599E+07
 0.31849998E+02 -0.14678E+07
 0.31899998E+02 -0.12885E+07
 0.31949997E+02 -0.76455E+06
 0.31999996E+02 -0.22412E+06
 0.32049999E+02  0.12941E+06
 0.32099998E+02  0.44662E+06
 0.32149998E+02  0.48151E+06
 0.32199997E+02  0.28954E+06
 0.32249996E+02  0.10903E+03
 0.32299999E+02 -0.66131E+06
 0.32349998E+02 -0.12265E+07
 0.32399998E+02 -0.16961E+07
 0.32449997E+02 -0.23724E+07
 0.32499996E+02 -0.31042E+07
 0.32549999E+02 -0.36641E+07
 0.32599998E+02 -0.40463E+07
 0.32649998E+02 -0.43103E+07
 0.32699997E+02 -0.43718E+07
 0.32749996E+02 -0.41771E+07
 0.32799999E+02 -0.39679E+07
 0.32849998E+02 -0.38248E+07
 0.32899998E+02 -0.38407E+07
 0.32949997E+02 -0.39594E+07
 0.32999996E+02 -0.39435E+07
 0.33049999E+02 -0.39172E+07
 0.33099998E+02 -0.35647E+07
 0.33149998E+02 -0.29425E+07
 0.33199997E+02 -0.22207E+07
 0.33249996E+02 -0.13596E+07
 0.33299999E+02 -0.36110E+06
 0.33349998E+02  0.53865E+06
 0.33399998E+02  0.87921E+06
 0.33449997E+02  0.94301E+06
 0.33499996E+02  0.62211E+06
 0.33549999E+02  0.26630E+05
 0.33599998E+02 -0.48553E+06
 0.33649998E+02 -0.85084E+06
 0.33699997E+02 -0.83609E+06
 0.33749996E+02 -0.10957E+07
 0.33799999E+02 -0.12600E+07
 0.33849998E+02 -0.15094E+07
 0.33899998E+02 -0.18673E+07
 0.33949997E+02 -0.19454E+07
 0.33999996E+02 -0.17971E+07
 0.34049999E+02 -0.10961E+07
 0.34099998E+02 -0.10382E+06
 0.34149998E+02  0.72132E+06
 0.34199997E+02  0.15452E+07
 0.34249996E+02  0.22775E+07
 0.34299999E+02  0.24162E+07
 0.34349998E+02  0.24893E+07
 0.34399998E+02  0.19802E+07
 0.34449997E+02  0.10727E+07
 0.34499996E+02  0.20648E+06
 0.34549999E+02 -0.69313E+06
 0.34599998E+02 -0.16788E+07
 0.34649998E+02 -0.24664E+07
 0.34699997E+02 -0.27646E+07
 0.34749996E+02 -0.29065E+07
 0.34799999E+02 -0.25066E+07
 0.34849998E+02 -0.17850E+07
 0.34899998E+02 -0.10069E+07
 0.34949997E+02 -0.10431E+06
 0.34999996E+02  0.95328E+06
 0.35049999E+02  0.21792E+07
 0.35099998E+02  0.35997E+07
 0.35149998E+02  0.46076E+07
 0.35199997E+02  0.52356E+07
 0.35249996E+02  0.59181E+07
 0.35299999E+02  0.62548E+07
 0.35349998E+02  0.63772E+07
 0.35399998E+02  0.61360E+07
 0.35449997E+02  0.57576E+07
 0.35499996E+02  0.52795E+07
 0.35549999E+02  0.46305E+07
 0.35599998E+02  0.40464E+07
 0.35649998E+02  0.33606E+07
 0.35699997E+02  0.24658E+07
 0.35749996E+02  0.13675E+07
 0.35799999E+02  0.35058E+06
 0.35849998E+02 -0.30077E+06
 0.35899998E+02 -0.65012E+06
 0.35949997E+02 -0.86589E+06
 0.35999996E+02 -0.94954E+06
 0.36049999E+02 -0.10812E+07
 0.36099998E+02 -0.12498E+07
 0.36149998E+02 -0.15214E+07
 0.36199997E+02 -0.17812E+07
 0.36249996E+02 -0.17352E+07
 0.36299999E+02 -0.15558E+07
 0.36349998E+02 -0.16221E+07
 0.36399998E+02 -0.19098E+07
 0.36449997E+02 -0.23072E+07
 0.36499996E+02 -0.27533E+07
 0.36549999E+02 -0.31127E+07
 0.36599998E+02 -0.33035E+07
 0.36649998E+02 -0.32859E+07
 0.36699997E+02 -0.30090E+07
 0.36749996E+02 -0.26180E+07
 0.36799999E+02 -0.24508E+07
 0.36849998E+02 -0.24511E+07
 0.36899998E+02 -0.23910E+07
 0.36949997E+02 -0.19506E+07
 0.36999996E+02 -0.12296E+07
 0.37049999E+02 -0.70421E+06
 0.37099998E+02 -0.48594E+06
 0.37149998E+02 -0.24271E+06
 0.37199997E+02 -0.33958E+05
 0.37249996E+02  0.36893E+05
 0.37299999E+02  0.10613E+06
 0.37349998E+02  0.12467E+06
 0.37399998E+02  0.26915E+06
 0.37449997E+02  0.27682E+06
 0.37499996E+02 -0.10406E+06
 0.37549999E+02 -0.48845E+06
 0.37599998E+02 -0.67651E+06
 0.37649998E+02 -0.80813E+06
 0.37699997E+02 -0.91458E+06
 0.37749996E+02 -0.95205E+06
 0.37799999E+02 -0.87278E+06
 0.37849998E+02 -0.75428E+06
 0.37899998E+02 -0.79086E+06
 0.37949997E+02 -0.10202E+07
 0.37999996E+02 -0.11654E+07
 0.38049999E+02 -0.92798E+06
 0.38099998E+02 -0.58920E+06
 0.38149998E+02 -0.19052E+06
 0.38199997E+02  0.91670E+05
 0.38249996E+02  0.37172E+06
 0.38299999E+02  0.82454E+06
 0.38349998E+02  0.11199E+07
 0.38399998E+02  0.14276E+07
 0.38449997E+02  0.16159E+07
 0.38499996E+02  0.17600E+07
 0.38549999E+02  0.19740E+07
 0.38599998E+02  0.19539E+07
 0.38649998E+02  0.17975E+07
 0.38699997E+02  0.16060E+07
 0.38749996E+02  0.13715E+07
 0.38799999E+02  0.10573E+07
 0.38849998E+02  0.71746E+06
 0.38899998E+02  0.23009E+06
 0.38949997E+02 -0.39373E+06
 0.38999996E+02 -0.69124E+06
 0.39049999E+02 -0.76868E+06
 0.39099998E+02 -0.54182E+06
 0.39149998E+02  0.76285E+05
 0.39199997E+02  0.52339E+06
 0.39249996E+02  0.72639E+06
 0.39299999E+02  0.79698E+06
 0.39349998E+02  0.63923E+06
 0.39399998E+02  0.40676E+06
 0.39449997E+02  0.29750E+06
 0.39499996E+02  0.20253E+05
 0.39549999E+02 -0.37449E+06
 0.39599998E+02 -0.53881E+06
 0.39649998E+02 -0.81408E+06
 0.39699997E+02 -0.88873E+06
 0.39749996E+02 -0.68716E+06
 0.39799999E+02 -0.44733E+06
 0.39849998E+02 -0.21308E+06
 0.39899998E+02  0.69747E+05
 0.39949997E+02  0.35980E+06
 0.39999996E+02  0.55808E+06
 0.40049999E+02  0.81210E+06
 0.40099998E+02  0.94093E+06
 0.40149998E+02  0.10361E+07
 0.40199997E+02  0.10969E+07
 0.40249996E+02  0.10868E+07
 0.40299999E+02  0.89070E+06
 0.40349998E+02  0.64621E+06
 0.40399998E+02  0.46590E+06
 0.40449997E+02  0.27020E+06
 0.40499996E+02 -0.15771E+06
 0.40549999E+02 -0.58485E+06
 0.40599998E+02 -0.71376E+06
 0.40649998E+02 -0.73077E+06
 0.40699997E+02 -0.77895E+06
 0.40749996E+02 -0.98516E+06
 0.40799999E+02 -0.12612E+07
 0.40849998E+02 -0.15410E+07
 0.40899998E+02 -0.15844E+07
 0.40949997E+02 -0.15921E+07
 0.40999996E+02 -0.14733E+07
 0.41049999E+02 -0.11071E+07
 0.41099998E+02 -0.81690E+06
 0.41149998E+02 -0.51352E+06
 0.41199997E+02 -0.14295E+06
 0.41249996E+02  0.26605E+06
 0.41299999E+02  0.77009E+06
 0.41349998E+02  0.12703E+07
 0.41399998E+02  0.15274E+07
 0.41449997E+02  0.15989E+07
 0.41499996E+02  0.15998E+07
 0.41549999E+02  0.14799E+07
 0.41599998E+02  0.12725E+07
 0.41649998E+02  0.89237E+06
 0.41699997E+02  0.46349E+06
 0.41749996E+02  0.20664E+06
 0.41799999E+02 -0.16752E+06
 0.41849998E+02 -0.65869E+06
 0.41899998E+02 -0.98986E+06
 0.41949997E+02 -0.13079E+07
 0.41999996E+02 -0.15573E+07
 0.42049999E+02 -0.16810E+07
 0.42099998E+02 -0.17263E+07
 0.42149998E+02 -0.16719E+07
 0.42199997E+02 -0.17613E+07
 0.42249996E+02 -0.18531E+07
 0.42299999E+02 -0.18171E+07
 0.42349998E+02 -0.17970E+07
 0.42399998E+02 -0.18350E+07
 0.42449997E+02 -0.18401E+07
 0.42499996E+02 -0.19064E+07
 0.42549999E+02 -0.18625E+07
 0.42599998E+02 -0.16460E+07
 0.42649998E+02 -0.15545E+07
 0.42699997E+02 -0.13443E+07
 0.42749996E+02 -0.94616E+06
 0.42799995E+02 -0.61432E+06
 0.42849998E+02 -0.29976E+06
 0.42899998E+02  0.11268E+06
 0.42949997E+02  0.46466E+06
 0.42999996E+02  0.78121E+06
 0.43049995E+02  0.10782E+07
 0.43099998E+02  0.11987E+07
 0.43149998E+02  0.11586E+07
 0.43199997E+02  0.11990E+07
 0.43249996E+02  0.14448E+07
 0.43299995E+02  0.17982E+07
 0.43349998E+02  0.19557E+07
 0.43399998E+02  0.20073E+07
 0.43449997E+02  0.21617E+07
 0.43499996E+02  0.21979E+07
 0.43549995E+02  0.20868E+07
 0.43599998E+02  0.19092E+07
 0.43649998E+02  0.17515E+07
 0.43699997E+02  0.15032E+07
 0.43749996E+02  0.11272E+07
 0.43799995E+02  0.80028E+06
 0.43849998E+02  0.54618E+06
 0.43899998E+02  0.23803E+06
 0.43949997E+02 -0.10601E+06
 0.43999996E+02 -0.33812E+06
 0.44049995E+02 -0.52868E+06
 0.44099998E+02 -0.62707E+06
 0.44149998E+02 -0.58973E+06
 0.44199997E+02 -0.52825E+06
 0.44249996E+02 -0.51438E+06
 0.44299995E+02 -0.48187E+06
 0.44349998E+02 -0.36577E+06
 0.44399998E+02 -0.23603E+06
 0.44449997E+02 -0.13580E+06
 0.44499996E+02 -0.12118E+06
 0.44549995E+02 -0.69714E+05
 0.44599998E+02 -0.12562E+05
 0.44649998E+02 -0.14310E+06
 0.44699997E+02 -0.45367E+06
 0.44749996E+02 -0.80409E+06
 0.44799995E+02 -0.96350E+06
 0.44849998E+02 -0.10002E+07
 0.44899998E+02 -0.10423E+07
 0.44949997E+02 -0.11189E+07
 0.44999996E+02 -0.12201E+07
 0.45049995E+02 -0.12991E+07
 0.45099998E+02 -0.14380E+07
 0.45149998E+02 -0.16258E+07
 0.45199997E+02 -0.16752E+07
 0.45249996E+02 -0.14636E+07
 0.45299995E+02 -0.10901E+07
 0.45349998E+02 -0.73908E+06
 0.45399998E+02 -0.44087E+06
 0.45449997E+02 -0.15633E+06
 0.45499996E+02 -0.22258E+05
 0.45549995E+02 -0.10517E+06
 0.45599998E+02 -0.37464E+06
 0.45649998E+02 -0.60440E+06
 0.45699997E+02 -0.43136E+06
 0.45749996E+02  0.46166E+05
 0.45799995E+02  0.58365E+06
 0.45849998E+02  0.10372E+07
 0.45899998E+02  0.11171E+07
 0.45949997E+02  0.96387E+06
 0.45999996E+02  0.82299E+06
 0.46049995E+02  0.75290E+06
 0.46099998E+02  0.77092E+06
 0.46149998E+02  0.84353E+06
 0.46199997E+02  0.10560E+07
 0.46249996E+02  0.12071E+07
 0.46299995E+02  0.12024E+07
 0.46349998E+02  0.10554E+07
 0.46399998E+02  0.99821E+06
 0.46449997E+02  0.10378E+07
 0.46499996E+02  0.89336E+06
 0.46549995E+02  0.80562E+06
 0.46599998E+02  0.91400E+06
 0.46649998E+02  0.11383E+07
 0.46699997E+02  0.12779E+07
 0.46749996E+02  0.12146E+07
 0.46799995E+02  0.10806E+07
 0.46849998E+02  0.84374E+06
 0.46899998E+02  0.56276E+06
 0.46949997E+02  0.35437E+06
 0.46999996E+02  0.22970E+06
 0.47049995E+02  0.13691E+06
 0.47099998E+02  0.36159E+05
 0.47149998E+02 -0.38581E+05
 0.47199997E+02 -0.12633E+06
 0.47249996E+02 -0.13275E+06
 0.47299995E+02 -0.86250E+05
 0.47349998E+02 -0.29372E+05
 0.47399998E+02  0.67220E+05
 0.47449997E+02  0.14214E+06
 0.47499996E+02  0.75047E+05
 0.47549995E+02 -0.72375E+05
 0.47599998E+02 -0.14873E+06
 0.47649998E+02 -0.27731E+06
 0.47699997E+02 -0.42211E+06
 0.47749996E+02 -0.47241E+06
 0.47799995E+02 -0.41937E+06
 0.47849998E+02 -0.22657E+06
 0.47899998E+02 -0.45660E+05
 0.47949997E+02  0.12917E+06
 0.47999996E+02  0.35896E+06
 0.48049995E+02  0.68247E+06
 0.48099998E+02  0.10765E+07
 0.48149998E+02  0.13676E+07
 0.48199997E+02  0.15249E+07
 0.48249996E+02  0.15523E+07
 0.48299995E+02  0.15085E+07
 0.48349998E+02  0.14329E+07
 0.48399998E+02  0.13277E+07
 0.48449997E+02  0.12257E+07
 0.48499996E+02  0.10839E+07
 0.48549995E+02  0.82990E+06
 0.48599998E+02  0.60032E+06
 0.48649998E+02  0.45844E+06
 0.48699997E+02  0.39306E+06
 0.48749996E+02  0.38160E+06
 0.48799995E+02  0.38474E+06
 0.48849998E+02  0.38072E+06
 0.48899998E+02  0.35153E+06
 0.48949997E+02  0.41181E+06
 0.48999996E+02  0.51710E+06
 0.49049995E+02  0.59185E+06
 0.49099998E+02  0.57674E+06
 0.49149998E+02  0.46425E+06
 0.49199997E+02  0.31682E+06
 0.49249996E+02  0.10631E+06
 0.49299995E+02 -0.64445E+05
 0.49349998E+02 -0.10971E+06
 0.49399998E+02 -0.14601E+06
 0.49449997E+02 -0.25989E+06
 0.49499996E+02 -0.36763E+06
 0.49549995E+02 -0.42156E+06
 0.49599998E+02 -0.46544E+06
 0.49649998E+02 -0.44573E+06
 0.49699997E+02 -0.46430E+06
 0.49749996E+02 -0.61449E+06
 0.49799995E+02 -0.70072E+06
 0.49849998E+02 -0.79724E+06
 0.49899998E+02 -0.10026E+07
 0.49949997E+02 -0.11570E+07
 0.49999996E+02 -0.11948E+07
 0.50049995E+02 -0.11827E+07
 0.50099998E+02 -0.11213E+07
 0.50149998E+02 -0.10038E+07
 0.50199997E+02 -0.96255E+06
 0.50249996E+02 -0.93666E+06
 0.50299995E+02 -0.94049E+06
 0.50349998E+02 -0.99762E+06
 0.50399998E+02 -0.10301E+07
 0.50449997E+02 -0.97210E+06
 0.50499996E+02 -0.83959E+06
 0.50549995E+02 -0.76481E+06
 0.50599998E+02 -0.63241E+06
 0.50649998E+02 -0.53211E+06
 0.50699997E+02 -0.51126E+06
 0.50749996E+02 -0.39701E+06
 0.50799995E+02 -0.24572E+06
 0.50849998E+02 -0.12706E+06
 0.50899998E+02 -0.11385E+05
 0.50949997E+02  0.80465E+05
 0.50999996E+02  0.11899E+06
 0.51049995E+02  0.93045E+05
 0.51099998E+02  0.10602E+06
 0.51149998E+02  0.20127E+06
 0.51199997E+02  0.30662E+06
 0.51249996E+02  0.44001E+06
 0.51299995E+02  0.55795E+06
 0.51349998E+02  0.69318E+06
 0.51399998E+02  0.72531E+06
 0.51449997E+02  0.64889E+06
 0.51499996E+02  0.59555E+06
 0.51549995E+02  0.52880E+06
 0.51599998E+02  0.43112E+06
 0.51649998E+02  0.24579E+06
 0.51699997E+02  0.11762E+06
 0.51749996E+02  0.10309E+06
 0.51799995E+02  0.83602E+05
 0.51849998E+02  0.22136E+05
 0.51899998E+02 -0.99358E+05
 0.51949997E+02 -0.29293E+06
 0.51999996E+02 -0.50114E+06
 0.52049995E+02 -0.72818E+06
 0.52099998E+02 -0.92208E+06
 0.52149998E+02 -0.99127E+06
 0.52199997E+02 -0.10144E+07
 0.52249996E+02 -0.10125E+07
 0.52299995E+02 -0.97691E+06
 0.52349998E+02 -0.88177E+06
 0.52399998E+02 -0.78715E+06
 0.52449997E+02 -0.71231E+06
 0.52499996E+02 -0.62315E+06
 0.52549995E+02 -0.39463E+06
 0.52599998E+02 -0.13552E+06
 0.52649998E+02  0.91377E+03
 0.52699997E+02  0.80098E+05
 0.52749996E+02  0.67276E+05
 0.52799995E+02 -0.24620E+05
 0.52849998E+02 -0.11101E+06
 0.52899998E+02 -0.18787E+06
 0.52949997E+02 -0.34451E+06
 0.52999996E+02 -0.56002E+06
 0.53049995E+02 -0.86332E+06
 0.53099998E+02 -0.11966E+07
 0.53149998E+02 -0.14766E+07
 0.53199997E+02 -0.16224E+07
 0.53249996E+02 -0.16651E+07
 0.53299995E+02 -0.16797E+07
 0.53349998E+02 -0.16141E+07
 0.53399998E+02 -0.15122E+07
 0.53449997E+02 -0.13353E+07
 0.53499996E+02 -0.10563E+07
 0.53549995E+02 -0.73950E+06
 0.53599998E+02 -0.48955E+06
 0.53649998E+02 -0.28220E+06
 0.53699997E+02 -0.36412E+05
 0.53749996E+02  0.17866E+06
 0.53799995E+02  0.36801E+06
 0.53849998E+02  0.54628E+06
 0.53899998E+02  0.66448E+06
 0.53949997E+02  0.67175E+06
 0.53999996E+02  0.62156E+06
 0.54049995E+02  0.47390E+06
 0.54099998E+02  0.24075E+06
 0.54149998E+02  0.63635E+05
 0.54199997E+02 -0.50681E+05
 0.54249996E+02 -0.10914E+06
 0.54299995E+02 -0.14373E+06
 0.54349998E+02 -0.20857E+06
 0.54399998E+02 -0.29874E+06
 0.54449997E+02 -0.32960E+06
 0.54499996E+02 -0.37658E+06
 0.54549995E+02 -0.50554E+06
 0.54599998E+02 -0.64213E+06
 0.54649998E+02 -0.71062E+06
 0.54699997E+02 -0.73284E+06
 0.54749996E+02 -0.75571E+06
 0.54799995E+02 -0.70415E+06
 0.54849998E+02 -0.54568E+06
 0.54899998E+02 -0.28314E+06
 0.54949997E+02  0.48665E+05
 0.54999996E+02  0.38443E+06
 0.55049995E+02  0.73088E+06
 0.55099998E+02  0.10717E+07
 0.55149998E+02  0.13712E+07
 0.55199997E+02  0.15801E+07
 0.55249996E+02  0.16940E+07
 0.55299995E+02  0.17186E+07
 0.55349998E+02  0.17014E+07
 0.55399998E+02  0.17550E+07
 0.55449997E+02  0.18592E+07
 0.55499996E+02  0.19869E+07
 0.55549995E+02  0.20697E+07
 0.55599998E+02  0.20695E+07
 0.55649998E+02  0.20726E+07
 0.55699997E+02  0.21539E+07
 0.55749996E+02  0.22484E+07
 0.55799995E+02  0.22810E+07
 0.55849995E+02  0.22666E+07
 0.55899998E+02  0.21324E+07
 0.55949997E+02  0.19283E+07
 0.55999996E+02  0.17612E+07
 0.56049995E+02  0.15902E+07
 0.56099995E+02  0.14231E+07
 0.56149998E+02  0.12689E+07
 0.56199997E+02  0.10785E+07
 0.56249996E+02  0.85113E+06
 0.56299995E+02  0.57998E+06
 0.56349995E+02  0.27009E+06
 0.56399998E+02 -0.38909E+05
 0.56449997E+02 -0.30901E+06
 0.56499996E+02 -0.51633E+06
 0.56549995E+02 -0.68740E+06
 0.56599995E+02 -0.82010E+06
 0.56649998E+02 -0.91582E+06
 0.56699997E+02 -0.99522E+06
 0.56749996E+02 -0.10142E+07
 0.56799995E+02 -0.10000E+07
 0.56849995E+02 -0.98463E+06
 0.56899998E+02 -0.97178E+06
 0.56949997E+02 -0.96645E+06
 0.56999996E+02 -0.93990E+06
 0.57049995E+02 -0.92123E+06
 0.57099995E+02 -0.87975E+06
 0.57149998E+02 -0.82137E+06
 0.57199997E+02 -0.78215E+06
 0.57249996E+02 -0.71000E+06
 0.57299995E+02 -0.59868E+06
 0.57349995E+02 -0.51960E+06
 0.57399998E+02 -0.47217E+06
 0.57449997E+02 -0.47564E+06
 0.57499996E+02 -0.53027E+06
 0.57549995E+02 -0.60142E+06
 0.57599995E+02 -0.71718E+06
 0.57649998E+02 -0.84674E+06
 0.57699997E+02 -0.99085E+06
 0.57749996E+02 -0.11141E+07
 0.57799995E+02 -0.12141E+07
 0.57849995E+02 -0.13072E+07
 0.57899998E+02 -0.13512E+07
 0.57949997E+02 -0.13709E+07
 0.57999996E+02 -0.13999E+07
 0.58049995E+02 -0.14010E+07
 0.58099995E+02 -0.13423E+07
 0.58149998E+02 -0.11916E+07
 0.58199997E+02 -0.99911E+06
 0.58249996E+02 -0.81734E+06
 0.58299995E+02 -0.63041E+06
 0.58349995E+02 -0.49393E+06
 0.58399998E+02 -0.42373E+06
 0.58449997E+02 -0.40078E+06
 0.58499996E+02 -0.39479E+06
 0.58549995E+02 -0.38333E+06
 0.58599995E+02 -0.33328E+06
 0.58649998E+02 -0.23068E+06
 0.58699997E+02 -0.40188E+05
 0.58749996E+02  0.26984E+06
 0.58799995E+02  0.63166E+06
 0.58849995E+02  0.93186E+06
 0.58899998E+02  0.11149E+07
 0.58949997E+02  0.12397E+07
 0.58999996E+02  0.13351E+07
 0.59049995E+02  0.14263E+07
 0.59099995E+02  0.14914E+07
 0.59149998E+02  0.15152E+07
 0.59199997E+02  0.15210E+07
 0.59249996E+02  0.15021E+07
 0.59299995E+02  0.14283E+07
 0.59349995E+02  0.12515E+07
 0.59399998E+02  0.10458E+07
 0.59449997E+02  0.86534E+06
 0.59499996E+02  0.68901E+06
 0.59549995E+02  0.53444E+06
 0.59599995E+02  0.40930E+06
 0.59649998E+02  0.30471E+06
 0.59699997E+02  0.24185E+06
 0.59749996E+02  0.20984E+06
 0.59799995E+02  0.15161E+06
 0.59849995E+02  0.72984E+05
 0.59899998E+02  0.21745E+05
 0.59949997E+02 -0.82926E+04
 0.59999996E+02 -0.66413E+05
 0.60049995E+02 -0.12108E+06
 0.60099995E+02 -0.13744E+06
 0.60149998E+02 -0.17310E+06
 0.60199997E+02 -0.26834E+06
 0.60249996E+02 -0.39655E+06
 0.60299995E+02 -0.52228E+06
 0.60349995E+02 -0.66171E+06
 0.60399998E+02 -0.82057E+06
 0.60449997E+02 -0.94261E+06
 0.60499996E+02 -0.98914E+06
 0.60549995E+02 -0.10386E+07
 0.60599995E+02 -0.11048E+07
 0.60649998E+02 -0.11464E+07
 0.60699997E+02 -0.11677E+07
 0.60749996E+02 -0.11513E+07
 0.60799995E+02 -0.11082E+07
 0.60849995E+02 -0.10082E+07
 0.60899998E+02 -0.89014E+06
 0.60949997E+02 -0.79903E+06
 0.60999996E+02 -0.75852E+06
 0.61049995E+02 -0.74861E+06
 0.61099995E+02 -0.72875E+06
 0.61149998E+02 -0.66728E+06
 0.61199997E+02 -0.52594E+06
 0.61249996E+02 -0.35763E+06
 0.61299995E+02 -0.22406E+06
 0.61349995E+02 -0.15986E+06
 0.61399998E+02 -0.11701E+06
 0.61449997E+02 -0.43491E+05
 0.61499996E+02  0.40333E+05
 0.61549995E+02  0.82536E+05
 0.61599995E+02  0.98283E+05
 0.61649998E+02  0.15349E+06
 0.61699997E+02  0.27632E+06
 0.61749996E+02  0.44449E+06
 0.61799995E+02  0.60568E+06
 0.61849995E+02  0.73989E+06
 0.61899998E+02  0.87000E+06
 0.61949997E+02  0.99500E+06
 0.61999996E+02  0.10586E+07
 0.62049995E+02  0.10380E+07
 0.62099998E+02  0.94918E+06
 0.62149994E+02  0.79956E+06
 0.62199997E+02  0.60991E+06
 0.62249992E+02  0.37571E+06
 0.62299995E+02  0.11514E+06
 0.62349998E+02 -0.11835E+06
 0.62399994E+02 -0.30746E+06
 0.62449997E+02 -0.45469E+06
 0.62499992E+02 -0.58706E+06
 0.62549995E+02 -0.71630E+06
 0.62599998E+02 -0.78269E+06
 0.62649994E+02 -0.79172E+06
 0.62699997E+02 -0.81885E+06
 0.62749992E+02 -0.87800E+06
 0.62799995E+02 -0.90600E+06
 0.62849998E+02 -0.82312E+06
 0.62899994E+02 -0.65759E+06
 0.62949997E+02 -0.48330E+06
 0.62999992E+02 -0.35573E+06
 0.63049995E+02 -0.27966E+06
 0.63099998E+02 -0.17408E+06
 0.63149994E+02 -0.26918E+05
 0.63199997E+02  0.13538E+06
 0.63249992E+02  0.30119E+06
 0.63299995E+02  0.45348E+06
 0.63349998E+02  0.57391E+06
 0.63399994E+02  0.65122E+06
 0.63449997E+02  0.68987E+06
 0.63499992E+02  0.69197E+06
 0.63549995E+02  0.67203E+06
 0.63599998E+02  0.65908E+06
 0.63649994E+02  0.64456E+06
 0.63699997E+02  0.60186E+06
 0.63749992E+02  0.54423E+06
 0.63799995E+02  0.48544E+06
 0.63849998E+02  0.45328E+06
 0.63899994E+02  0.45293E+06
 0.63949997E+02  0.46016E+06
 0.63999992E+02  0.46559E+06
 0.64049995E+02  0.46006E+06
 0.64099998E+02  0.44250E+06
 0.64149994E+02  0.42382E+06
 0.64199997E+02  0.41898E+06
 0.64249992E+02  0.42771E+06
 0.64299995E+02  0.42204E+06
 0.64349998E+02  0.40497E+06
 0.64399994E+02  0.35755E+06
 0.64449997E+02  0.28484E+06
 0.64499992E+02  0.23302E+06
 0.64549995E+02  0.20427E+06
 0.64599998E+02  0.19018E+06
 0.64649994E+02  0.19094E+06
 0.64699997E+02  0.18232E+06
 0.64749992E+02  0.17498E+06
 0.64799995E+02  0.18020E+06
 0.64849998E+02  0.13894E+06
 0.64899994E+02  0.72691E+05
 0.64949997E+02  0.92514E+04
 0.64999992E+02 -0.59537E+05
 0.65049995E+02 -0.15558E+06
 0.65099998E+02 -0.27061E+06
 0.65149994E+02 -0.35980E+06
 0.65199997E+02 -0.44687E+06
 0.65249992E+02 -0.54705E+06
 0.65299995E+02 -0.65870E+06
 0.65349998E+02 -0.72917E+06
 0.65399994E+02 -0.75000E+06
 0.65449997E+02 -0.75445E+06
 0.65499992E+02 -0.74722E+06
 0.65549995E+02 -0.73104E+06
 0.65599998E+02 -0.73481E+06
 0.65649994E+02 -0.77666E+06
 0.65699997E+02 -0.81102E+06
 0.65749992E+02 -0.83172E+06
 0.65799995E+02 -0.81878E+06
 0.65849998E+02 -0.77555E+06
 0.65899994E+02 -0.70583E+06
 0.65949997E+02 -0.62074E+06
 0.65999992E+02 -0.53393E+06
 0.66049995E+02 -0.43428E+06
 0.66099998E+02 -0.32515E+06
 0.66149994E+02 -0.20439E+06
 0.66199997E+02 -0.96892E+05
 0.66249992E+02 -0.54078E+04
 0.66299995E+02  0.82661E+05
 0.66349998E+02  0.14068E+06
 0.66399994E+02  0.18077E+06
 0.66449997E+02  0.24427E+06
 0.66499992E+02  0.32125E+06
 0.66549995E+02  0.40317E+06
 0.66599998E+02  0.50761E+06
 0.66649994E+02  0.63289E+06
 0.66699997E+02  0.76276E+06
 0.66749992E+02  0.86967E+06
 0.66799995E+02  0.93040E+06
 0.66849998E+02  0.97146E+06
 0.66899994E+02  0.99060E+06
 0.66949997E+02  0.98351E+06
 0.66999992E+02  0.97822E+06
 0.67049995E+02  0.97861E+06
 0.67099998E+02  0.95475E+06
 0.67149994E+02  0.88158E+06
 0.67199997E+02  0.76288E+06
 0.67249992E+02  0.65329E+06
 0.67299995E+02  0.55784E+06
 0.67349998E+02  0.44447E+06
 0.67399994E+02  0.35516E+06
 0.67449997E+02  0.31758E+06
 0.67499992E+02  0.30690E+06
 0.67549995E+02  0.28839E+06
 0.67599998E+02  0.27421E+06
 0.67649994E+02  0.28617E+06
 0.67699997E+02  0.31583E+06
 0.67749992E+02  0.35613E+06
 0.67799995E+02  0.38004E+06
 0.67849998E+02  0.36727E+06
 0.67899994E+02  0.33632E+06
 0.67949997E+02  0.25843E+06
 0.67999992E+02  0.15444E+06
 0.68049995E+02  0.60036E+05
 0.68099998E+02 -0.10483E+05
 0.68149994E+02 -0.77088E+05
 0.68199997E+02 -0.15809E+06
 0.68249992E+02 -0.21505E+06
 0.68299995E+02 -0.22158E+06
 0.68349998E+02 -0.18052E+06
 0.68399994E+02 -0.13455E+06
 0.68449997E+02 -0.84815E+05
 0.68499992E+02 -0.53989E+05
 0.68549995E+02 -0.44102E+05
 0.68599998E+02 -0.56021E+05
 0.68649994E+02 -0.64878E+05
 0.68699997E+02 -0.68434E+05
 0.68749992E+02 -0.84474E+05
 0.68799995E+02 -0.11577E+06
 0.68849998E+02 -0.19008E+06
 0.68899994E+02 -0.26612E+06
 0.68949997E+02 -0.31610E+06
 0.68999992E+02 -0.34387E+06
 0.69049995E+02 -0.33567E+06
 0.69099998E+02 -0.27952E+06
 0.69149994E+02 -0.20329E+06
 0.69199997E+02 -0.13670E+06
 0.69249992E+02 -0.80065E+05
 0.69299995E+02  0.63374E+04
 0.69349998E+02  0.12566E+06
 0.69399994E+02  0.25532E+06
 0.69449997E+02  0.38736E+06
 0.69499992E+02  0.50932E+06
 0.69549995E+02  0.59540E+06
 0.69599998E+02  0.63075E+06
 0.69649994E+02  0.61420E+06
 0.69699997E+02  0.55796E+06
 0.69749992E+02  0.51731E+06
 0.69799995E+02  0.48253E+06
 0.69849998E+02  0.42003E+06
 0.69899994E+02  0.33633E+06
 0.69949997E+02  0.21134E+06
 0.69999992E+02  0.46341E+05
 0.70049995E+02 -0.13805E+06
 0.70099998E+02 -0.33513E+06
 0.70149994E+02 -0.50742E+06
 0.70199997E+02 -0.60676E+06
 0.70249992E+02 -0.64512E+06
 0.70299995E+02 -0.67388E+06
 0.70349998E+02 -0.71134E+06
 0.70399994E+02 -0.77309E+06
 0.70449997E+02 -0.83132E+06
 0.70499992E+02 -0.84560E+06
 0.70549995E+02 -0.84567E+06
 0.70599998E+02 -0.84384E+06
 0.70649994E+02 -0.82962E+06
 0.70699997E+02 -0.80103E+06
 0.70749992E+02 -0.76552E+06
 0.70799995E+02 -0.74204E+06
 0.70849998E+02 -0.72026E+06
 0.70899994E+02 -0.67839E+06
 0.70949997E+02 -0.60885E+06
 0.70999992E+02 -0.52384E+06
 0.71049995E+02 -0.43192E+06
 0.71099998E+02 -0.32125E+06
 0.71149994E+02 -0.18837E+06
 0.71199997E+02 -0.64930E+05
 0.71249992E+02  0.28338E+05
 0.71299995E+02  0.81548E+05
 0.71349998E+02  0.90629E+05
 0.71399994E+02  0.75033E+05
 0.71449997E+02  0.47268E+05
 0.71499992E+02  0.16454E+05
 0.71549995E+02 -0.20819E+05
 0.71599998E+02 -0.47710E+05
 0.71649994E+02 -0.77101E+05
 0.71699997E+02 -0.13613E+06
 0.71749992E+02 -0.21489E+06
 0.71799995E+02 -0.29615E+06
 0.71849998E+02 -0.36186E+06
 0.71899994E+02 -0.42504E+06
 0.71949997E+02 -0.49479E+06
 0.71999992E+02 -0.54758E+06
 0.72049995E+02 -0.58666E+06
 0.72099998E+02 -0.63291E+06
 0.72149994E+02 -0.68002E+06
 0.72199997E+02 -0.71371E+06
 0.72249992E+02 -0.72964E+06
 0.72299995E+02 -0.72235E+06
 0.72349998E+02 -0.66696E+06
 0.72399994E+02 -0.58067E+06
 0.72449997E+02 -0.47023E+06
 0.72499992E+02 -0.32991E+06
 0.72549995E+02 -0.19864E+06
 0.72599998E+02 -0.87480E+05
 0.72649994E+02 -0.69339E+04
 0.72699997E+02  0.53222E+05
 0.72749992E+02  0.12791E+06
 0.72799995E+02  0.21425E+06
 0.72849998E+02  0.29683E+06
 0.72899994E+02  0.36719E+06
 0.72949997E+02  0.43240E+06
 0.72999992E+02  0.50059E+06
 0.73049995E+02  0.55618E+06
 0.73099998E+02  0.58942E+06
 0.73149994E+02  0.59049E+06
 0.73199997E+02  0.56101E+06
 0.73249992E+02  0.50926E+06
 0.73299995E+02  0.43721E+06
 0.73349998E+02  0.36139E+06
 0.73399994E+02  0.28465E+06
 0.73449997E+02  0.21210E+06
 0.73499992E+02  0.13596E+06
 0.73549995E+02  0.47998E+05
 0.73599998E+02 -0.22261E+05
 0.73649994E+02 -0.46060E+05
 0.73699997E+02 -0.45372E+05
 0.73749992E+02 -0.50313E+05
 0.73799995E+02 -0.79083E+05
 0.73849998E+02 -0.14719E+06
 0.73899994E+02 -0.22712E+06
 0.73949997E+02 -0.29786E+06
 0.73999992E+02 -0.35345E+06
 0.74049995E+02 -0.36752E+06
 0.74099998E+02 -0.34084E+06
 0.74149994E+02 -0.30580E+06
 0.74199997E+02 -0.26920E+06
 0.74249992E+02 -0.23230E+06
 0.74299995E+02 -0.19111E+06
 0.74349998E+02 -0.13303E+06
 0.74399994E+02 -0.70256E+05
 0.74449997E+02 -0.29571E+05
 0.74499992E+02 -0.14552E+05
 0.74549995E+02  0.90264E+04
 0.74599998E+02  0.61902E+05
 0.74649994E+02  0.15394E+06
 0.74699997E+02  0.28508E+06
 0.74749992E+02  0.41623E+06
 0.74799995E+02  0.52148E+06
 0.74849998E+02  0.58672E+06
 0.74899994E+02  0.60397E+06
 0.74949997E+02  0.59359E+06
 0.74999992E+02  0.59868E+06
 0.75049995E+02  0.62871E+06
 0.75099998E+02  0.66619E+06
 0.75149994E+02  0.69092E+06
 0.75199997E+02  0.68125E+06
 0.75249992E+02  0.64229E+06
 0.75299995E+02  0.58281E+06
 0.75349998E+02  0.50320E+06
 0.75399994E+02  0.40195E+06
 0.75449997E+02  0.32583E+06
 0.75499992E+02  0.29041E+06
 0.75549995E+02  0.27871E+06
 0.75599998E+02  0.28615E+06
 0.75649994E+02  0.29363E+06
 0.75699997E+02  0.30498E+06
 0.75749992E+02  0.31366E+06
 0.75799995E+02  0.31897E+06
 0.75849998E+02  0.32315E+06
 0.75899994E+02  0.32256E+06
 0.75949997E+02  0.31186E+06
 0.75999992E+02  0.25643E+06
 0.76049995E+02  0.15644E+06
 0.76099998E+02  0.43776E+05
 0.76149994E+02 -0.53016E+05
 0.76199997E+02 -0.11165E+06
 0.76249992E+02 -0.13604E+06
 0.76299995E+02 -0.13881E+06
 0.76349998E+02 -0.12071E+06
 0.76399994E+02 -0.88919E+05
 0.76449997E+02 -0.69585E+05
 0.76499992E+02 -0.63256E+05
 0.76549995E+02 -0.57086E+05
 0.76599998E+02 -0.51089E+05
 0.76649994E+02 -0.43056E+05
 0.76699997E+02 -0.38593E+05
 0.76749992E+02 -0.52341E+05
 0.76799995E+02 -0.76081E+05
 0.76849998E+02 -0.89222E+05
 0.76899994E+02 -0.86795E+05
 0.76949997E+02 -0.53535E+05
 0.76999992E+02  0.22030E+04
 0.77049995E+02  0.61323E+05
 0.77099998E+02  0.11347E+06
 0.77149994E+02  0.13859E+06
 0.77199997E+02  0.13314E+06
 0.77249992E+02  0.92715E+05
 0.77299995E+02  0.22424E+05
 0.77349998E+02 -0.55193E+05
 0.77399994E+02 -0.13320E+06
 0.77449997E+02 -0.19972E+06
 0.77499992E+02 -0.25234E+06
 0.77549995E+02 -0.31831E+06
 0.77599998E+02 -0.39881E+06
 0.77649994E+02 -0.47574E+06
 0.77699997E+02 -0.53246E+06
 0.77749992E+02 -0.56268E+06
 0.77799995E+02 -0.55445E+06
 0.77849998E+02 -0.51857E+06
 0.77899994E+02 -0.48650E+06
 0.77949997E+02 -0.45952E+06
 0.77999992E+02 -0.44154E+06
 0.78049995E+02 -0.42321E+06
 0.78099998E+02 -0.38283E+06
 0.78149994E+02 -0.31519E+06
 0.78199997E+02 -0.22995E+06
 0.78249992E+02 -0.13674E+06
 0.78299995E+02 -0.44692E+05
 0.78349998E+02  0.34353E+05
 0.78399994E+02  0.10076E+06
 0.78449997E+02  0.15727E+06
 0.78499992E+02  0.20598E+06
 0.78549995E+02  0.27109E+06
 0.78599998E+02  0.35088E+06
 0.78649994E+02  0.41533E+06
 0.78699997E+02  0.45584E+06
 0.78749992E+02  0.46840E+06
 0.78799995E+02  0.45313E+06
 0.78849998E+02  0.41996E+06
 0.78899994E+02  0.38701E+06
 0.78949997E+02  0.36283E+06
 0.78999992E+02  0.35421E+06
 0.79049995E+02  0.34901E+06
 0.79099998E+02  0.32277E+06
 0.79149994E+02  0.27260E+06
 0.79199997E+02  0.19346E+06
 0.79249992E+02  0.84015E+05
 0.79299995E+02 -0.28178E+05
 0.79349998E+02 -0.11673E+06
 0.79399994E+02 -0.18096E+06
 0.79449997E+02 -0.23169E+06
 0.79499992E+02 -0.27501E+06
 0.79549995E+02 -0.31251E+06
 0.79599998E+02 -0.33514E+06
 0.79649994E+02 -0.34112E+06
 0.79699997E+02 -0.35267E+06
 0.79749992E+02 -0.35994E+06
 0.79799995E+02 -0.35128E+06
 0.79849998E+02 -0.32236E+06
 0.79899994E+02 -0.25977E+06
 0.79949997E+02 -0.18796E+06
 0.79999992E+02 -0.13042E+06
 0.80049995E+02 -0.88097E+05
 0.80099998E+02 -0.71979E+05
 0.80149994E+02 -0.88292E+05
 0.80199997E+02 -0.10843E+06
 0.80249992E+02 -0.10682E+06
 0.80299995E+02 -0.96725E+05
 0.80349998E+02 -0.10294E+06
 0.80399994E+02 -0.12509E+06
 0.80449997E+02 -0.15996E+06
 0.80499992E+02 -0.19913E+06
 0.80549995E+02 -0.21256E+06
 0.80599998E+02 -0.19147E+06
 0.80649994E+02 -0.15304E+06
 0.80699997E+02 -0.12098E+06
 0.80749992E+02 -0.10441E+06
 0.80799995E+02 -0.97889E+05
 0.80849998E+02 -0.87761E+05
 0.80899994E+02 -0.65036E+05
 0.80949997E+02 -0.23789E+05
 0.80999992E+02  0.19647E+05
 0.81049995E+02  0.56561E+05
 0.81099998E+02  0.10355E+06
 0.81149994E+02  0.15027E+06
 0.81199997E+02  0.19459E+06
 0.81249992E+02  0.23201E+06
 0.81299995E+02  0.25653E+06
 0.81349998E+02  0.28205E+06
 0.81399994E+02  0.31284E+06
 0.81449997E+02  0.35234E+06
 0.81499992E+02  0.40390E+06
 0.81549995E+02  0.45719E+06
 0.81599998E+02  0.49118E+06
 0.81649994E+02  0.48781E+06
 0.81699997E+02  0.43471E+06
 0.81749992E+02  0.34287E+06
 0.81799995E+02  0.25037E+06
 0.81849998E+02  0.17450E+06
 0.81899994E+02  0.11587E+06
 0.81949997E+02  0.66427E+05
 0.81999992E+02  0.62593E+04
 0.82049995E+02 -0.57075E+05
 0.82099998E+02 -0.12490E+06
 0.82149994E+02 -0.19512E+06
 0.82199997E+02 -0.24128E+06
 0.82249992E+02 -0.24539E+06
 0.82299995E+02 -0.21515E+06
 0.82349998E+02 -0.16749E+06
 0.82399994E+02 -0.96652E+05
 0.82449997E+02 -0.19825E+05
 0.82499992E+02  0.44866E+05
 0.82549995E+02  0.91643E+05
 0.82599998E+02  0.12464E+06
 0.82649994E+02  0.15801E+06
 0.82699997E+02  0.18201E+06
 0.82749992E+02  0.18540E+06
 0.82799995E+02  0.17491E+06
 0.82849998E+02  0.16283E+06
 0.82899994E+02  0.14756E+06
 0.82949997E+02  0.10841E+06
 0.82999992E+02  0.43803E+05
 0.83049995E+02 -0.63508E+04
 0.83099998E+02 -0.29486E+05
 0.83149994E+02 -0.45777E+05
 0.83199997E+02 -0.56629E+05
 0.83249992E+02 -0.64433E+05
 0.83299995E+02 -0.78433E+05
 0.83349998E+02 -0.98888E+05
 0.83399994E+02 -0.11539E+06
 0.83449997E+02 -0.12234E+06
 0.83499992E+02 -0.13187E+06
 0.83549995E+02 -0.16446E+06
 0.83599998E+02 -0.21725E+06
 0.83649994E+02 -0.26862E+06
 0.83699997E+02 -0.31310E+06
 0.83749992E+02 -0.34908E+06
 0.83799995E+02 -0.37660E+06
 0.83849998E+02 -0.39666E+06
 0.83899994E+02 -0.40526E+06
 0.83949997E+02 -0.40074E+06
 0.83999992E+02 -0.38822E+06
 0.84049995E+02 -0.37054E+06
 0.84099998E+02 -0.36107E+06
 0.84149994E+02 -0.36559E+06
 0.84199997E+02 -0.35852E+06
 0.84249992E+02 -0.31058E+06
 0.84299995E+02 -0.22700E+06
 0.84349998E+02 -0.15378E+06
 0.84399994E+02 -0.11303E+06
 0.84449997E+02 -0.89434E+05
 0.84499992E+02 -0.66816E+05
 0.84549995E+02 -0.39048E+05
 0.84599998E+02  0.22131E+04
 0.84649994E+02  0.63425E+05
 0.84699997E+02  0.14247E+06
 0.84749992E+02  0.22115E+06
 0.84799995E+02  0.26624E+06
 0.84849998E+02  0.27387E+06
 0.84899994E+02  0.26995E+06
 0.84949997E+02  0.27138E+06
 0.84999992E+02  0.27560E+06
 0.85049995E+02  0.25883E+06
 0.85099998E+02  0.20930E+06
 0.85149994E+02  0.13464E+06
 0.85199997E+02  0.49624E+05
 0.85249992E+02 -0.33552E+05
 0.85299995E+02 -0.98087E+05
 0.85349998E+02 -0.13316E+06
 0.85399994E+02 -0.15627E+06
 0.85449997E+02 -0.17638E+06
 0.85499992E+02 -0.19442E+06
 0.85549995E+02 -0.20384E+06
 0.85599998E+02 -0.20704E+06
 0.85649994E+02 -0.20701E+06
 0.85699997E+02 -0.20832E+06
 0.85749992E+02 -0.20782E+06
 0.85799995E+02 -0.18184E+06
 0.85849998E+02 -0.14243E+06
 0.85899994E+02 -0.99784E+05
 0.85949997E+02 -0.51719E+05
 0.85999992E+02 -0.10307E+05
 0.86049995E+02  0.19618E+05
 0.86099998E+02  0.45599E+05
 0.86149994E+02  0.86484E+05
 0.86199997E+02  0.14017E+06
 0.86249992E+02  0.19290E+06
 0.86299995E+02  0.22931E+06
 0.86349998E+02  0.24709E+06
 0.86399994E+02  0.25071E+06
 0.86449997E+02  0.23973E+06
 0.86499992E+02  0.23525E+06
 0.86549995E+02  0.24337E+06
 0.86599998E+02  0.24200E+06
 0.86649994E+02  0.21612E+06
 0.86699997E+02  0.16977E+06
 0.86749992E+02  0.11550E+06
 0.86799995E+02  0.64985E+05
 0.86849998E+02  0.14103E+05
 0.86899994E+02 -0.40992E+05
 0.86949997E+02 -0.80084E+05
 0.86999992E+02 -0.93714E+05
 0.87049995E+02 -0.10598E+06
 0.87099998E+02 -0.13093E+06
 0.87149994E+02 -0.16304E+06
 0.87199997E+02 -0.19086E+06
 0.87249992E+02 -0.20222E+06
 0.87299995E+02 -0.20032E+06
 0.87349998E+02 -0.19752E+06
 0.87399994E+02 -0.18699E+06
 0.87449997E+02 -0.15021E+06
 0.87499992E+02 -0.10280E+06
 0.87549995E+02 -0.56900E+05
 0.87599991E+02 -0.83768E+04
 0.87649994E+02  0.29681E+05
 0.87699997E+02  0.58197E+05
 0.87749992E+02  0.86573E+05
 0.87799995E+02  0.11680E+06
 0.87849991E+02  0.15579E+06
 0.87899994E+02  0.20112E+06
 0.87949997E+02  0.23316E+06
 0.87999992E+02  0.23861E+06
 0.88049995E+02  0.21463E+06
 0.88099991E+02  0.17358E+06
 0.88149994E+02  0.13527E+06
 0.88199997E+02  0.10316E+06
 0.88249992E+02  0.77607E+05
 0.88299995E+02  0.58228E+05
 0.88349991E+02  0.37888E+05
 0.88399994E+02  0.43323E+04
 0.88449997E+02 -0.43535E+05
 0.88499992E+02 -0.88449E+05
 0.88549995E+02 -0.11664E+06
 0.88599991E+02 -0.13708E+06
 0.88649994E+02 -0.16263E+06
 0.88699997E+02 -0.18655E+06
 0.88749992E+02 -0.20464E+06
 0.88799995E+02 -0.21397E+06
 0.88849991E+02 -0.22041E+06
 0.88899994E+02 -0.22652E+06
 0.88949997E+02 -0.21841E+06
 0.88999992E+02 -0.19379E+06
 0.89049995E+02 -0.15339E+06
 0.89099991E+02 -0.97720E+05
 0.89149994E+02 -0.27034E+05
 0.89199997E+02  0.46749E+05
 0.89249992E+02  0.10246E+06
 0.89299995E+02  0.13551E+06
 0.89349991E+02  0.15580E+06
 0.89399994E+02  0.17386E+06
 0.89449997E+02  0.18002E+06
 0.89499992E+02  0.16984E+06
 0.89549995E+02  0.15305E+06
 0.89599991E+02  0.14012E+06
 0.89649994E+02  0.13514E+06
 0.89699997E+02  0.12948E+06
 0.89749992E+02  0.13700E+06
 0.89799995E+02  0.16581E+06
 0.89849991E+02  0.20166E+06
 0.89899994E+02  0.23010E+06
 0.89949997E+02  0.23992E+06
 0.89999992E+02  0.22844E+06
 0.90049995E+02  0.20212E+06
 0.90099991E+02  0.17481E+06
 0.90149994E+02  0.14657E+06
 0.90199997E+02  0.11963E+06
 0.90249992E+02  0.99904E+05
 0.90299995E+02  0.70283E+05
 0.90349991E+02  0.23816E+05
 0.90399994E+02 -0.26014E+05
 0.90449997E+02 -0.75104E+05
 0.90499992E+02 -0.11689E+06
 0.90549995E+02 -0.14503E+06
 0.90599991E+02 -0.17150E+06
 0.90649994E+02 -0.19319E+06
 0.90699997E+02 -0.20089E+06
 0.90749992E+02 -0.19379E+06
 0.90799995E+02 -0.16913E+06
 0.90849991E+02 -0.13488E+06
 0.90899994E+02 -0.10615E+06
 0.90949997E+02 -0.86293E+05
 0.90999992E+02 -0.56361E+05
 0.91049995E+02 -0.12481E+05
 0.91099991E+02  0.37183E+05
 0.91149994E+02  0.85991E+05
 0.91199997E+02  0.11777E+06
 0.91249992E+02  0.12620E+06
 0.91299995E+02  0.11938E+06
 0.91349991E+02  0.10491E+06
 0.91399994E+02  0.89760E+05
 0.91449997E+02  0.75666E+05
 0.91499992E+02  0.53998E+05
 0.91549995E+02  0.27411E+05
 0.91599991E+02  0.44489E+04
 0.91649994E+02 -0.13268E+05
 0.91699997E+02 -0.23704E+05
 0.91749992E+02 -0.39524E+05
 0.91799995E+02 -0.67524E+05
 0.91849991E+02 -0.10008E+06
 0.91899994E+02 -0.12945E+06
 0.91949997E+02 -0.15648E+06
 0.91999992E+02 -0.19354E+06
 0.92049995E+02 -0.23525E+06
 0.92099991E+02 -0.27946E+06
 0.92149994E+02 -0.32273E+06
 0.92199997E+02 -0.36108E+06
 0.92249992E+02 -0.39678E+06
 0.92299995E+02 -0.41589E+06
 0.92349991E+02 -0.40887E+06
 0.92399994E+02 -0.39161E+06
 0.92449997E+02 -0.38498E+06
 0.92499992E+02 -0.40167E+06
 0.92549995E+02 -0.43546E+06
 0.92599991E+02 -0.45932E+06
 0.92649994E+02 -0.45362E+06
 0.92699997E+02 -0.41371E+06
 0.92749992E+02 -0.34441E+06
 0.92799995E+02 -0.25151E+06
 0.92849991E+02 -0.15173E+06
 0.92899994E+02 -0.60291E+05
 0.92949997E+02  0.20966E+05
 0.92999992E+02  0.91495E+05
 0.93049995E+02  0.16015E+06
 0.93099991E+02  0.24274E+06
 0.93149994E+02  0.32785E+06
 0.93199997E+02  0.39230E+06
 0.93249992E+02  0.44081E+06
 0.93299995E+02  0.48036E+06
 0.93349991E+02  0.49795E+06
 0.93399994E+02  0.48130E+06
 0.93449997E+02  0.42781E+06
 0.93499992E+02  0.34758E+06
 0.93549995E+02  0.26428E+06
 0.93599991E+02  0.19434E+06
 0.93649994E+02  0.14448E+06
 0.93699997E+02  0.12312E+06
 0.93749992E+02  0.12823E+06
 0.93799995E+02  0.14189E+06
 0.93849991E+02  0.15323E+06
 0.93899994E+02  0.15960E+06
 0.93949997E+02  0.15820E+06
 0.93999992E+02  0.14819E+06
 0.94049995E+02  0.12754E+06
 0.94099991E+02  0.10315E+06
 0.94149994E+02  0.83712E+05
 0.94199997E+02  0.63885E+05
 0.94249992E+02  0.45277E+05
 0.94299995E+02  0.32954E+05
 0.94349991E+02  0.16838E+05
 0.94399994E+02 -0.76414E+04
 0.94449997E+02 -0.36313E+05
 0.94499992E+02 -0.58356E+05
 0.94549995E+02 -0.63906E+05
 0.94599991E+02 -0.51816E+05
 0.94649994E+02 -0.15276E+05
 0.94699997E+02  0.33867E+05
 0.94749992E+02  0.69545E+05
 0.94799995E+02  0.77675E+05
 0.94849991E+02  0.58245E+05
 0.94899994E+02  0.32749E+05
 0.94949997E+02  0.19500E+05
 0.94999992E+02  0.21938E+05
 0.95049995E+02  0.40000E+05
 0.95099991E+02  0.67559E+05
 0.95149994E+02  0.96284E+05
 0.95199997E+02  0.12169E+06
 0.95249992E+02  0.14614E+06
 0.95299995E+02  0.17288E+06
 0.95349991E+02  0.21130E+06
 0.95399994E+02  0.25599E+06
 0.95449997E+02  0.28981E+06
 0.95499992E+02  0.31437E+06
 0.95549995E+02  0.33221E+06
 0.95599991E+02  0.34679E+06
 0.95649994E+02  0.35204E+06
 0.95699997E+02  0.33940E+06
 0.95749992E+02  0.31317E+06
 0.95799995E+02  0.27059E+06
 0.95849991E+02  0.20475E+06
 0.95899994E+02  0.12297E+06
 0.95949997E+02  0.41582E+05
 0.95999992E+02 -0.31482E+05
 0.96049995E+02 -0.97566E+05
 0.96099991E+02 -0.15986E+06
 0.96149994E+02 -0.21765E+06
 0.96199997E+02 -0.26545E+06
 0.96249992E+02 -0.29343E+06
 0.96299995E+02 -0.29790E+06
 0.96349991E+02 -0.28210E+06
 0.96399994E+02 -0.25513E+06
 0.96449997E+02 -0.23244E+06
 0.96499992E+02 -0.21911E+06
 0.96549995E+02 -0.21095E+06
 0.96599991E+02 -0.20036E+06
 0.96649994E+02 -0.18089E+06
 0.96699997E+02 -0.15814E+06
 0.96749992E+02 -0.14522E+06
 0.96799995E+02 -0.14885E+06
 0.96849991E+02 -0.16568E+06
 0.96899994E+02 -0.19399E+06
 0.96949997E+02 -0.22623E+06
 0.96999992E+02 -0.24790E+06
 0.97049995E+02 -0.25343E+06
 0.97099991E+02 -0.24385E+06
 0.97149994E+02 -0.22957E+06
 0.97199997E+02 -0.21973E+06
 0.97249992E+02 -0.21294E+06
 0.97299995E+02 -0.20552E+06
 0.97349991E+02 -0.19154E+06
 0.97399994E+02 -0.17564E+06
 0.97449997E+02 -0.16496E+06
 0.97499992E+02 -0.16029E+06
 0.97549995E+02 -0.16016E+06
 0.97599991E+02 -0.15378E+06
 0.97649994E+02 -0.13877E+06
 0.97699997E+02 -0.12746E+06
 0.97749992E+02 -0.12579E+06
 0.97799995E+02 -0.12600E+06
 0.97849991E+02 -0.12238E+06
 0.97899994E+02 -0.11492E+06
 0.97949997E+02 -0.10909E+06
 0.97999992E+02 -0.12056E+06
