-0.19969940E+01 -0.10025E+05
-0.19469941E+01 -0.99730E+04
-0.18969940E+01 -0.10014E+05
-0.18469940E+01 -0.10008E+05
-0.17969940E+01 -0.10014E+05
-0.17469940E+01 -0.10025E+05
-0.16969941E+01 -0.10031E+05
-0.16469941E+01 -0.10022E+05
-0.15969940E+01 -0.10031E+05
-0.15469940E+01 -0.10042E+05
-0.14969940E+01 -0.10044E+05
-0.14469941E+01 -0.10052E+05
-0.13969941E+01 -0.10077E+05
-0.13469940E+01 -0.10082E+05
-0.12969941E+01 -0.10072E+05
-0.12469940E+01 -0.10081E+05
-0.11969941E+01 -0.10100E+05
-0.11469941E+01 -0.10114E+05
-0.10969940E+01 -0.10108E+05
-0.10469941E+01 -0.10088E+05
-0.99699408E+00 -0.10092E+05
-0.94699407E+00 -0.10088E+05
-0.89699411E+00 -0.10065E+05
-0.84699404E+00 -0.10055E+05
-0.79699409E+00 -0.10048E+05
-0.74699414E+00 -0.10050E+05
-0.69699407E+00 -0.10035E+05
-0.64699411E+00 -0.10031E+05
-0.59699416E+00 -0.10043E+05
-0.54699409E+00 -0.10046E+05
-0.49699414E+00 -0.10030E+05
-0.44699407E+00 -0.10023E+05
-0.39699411E+00 -0.10023E+05
-0.34699416E+00 -0.10024E+05
-0.29699409E+00 -0.10027E+05
-0.24699414E+00 -0.10046E+05
-0.19699407E+00 -0.10052E+05
-0.14699411E+00 -0.10049E+05
-0.96994162E-01 -0.10046E+05
-0.46994090E-01 -0.10037E+05
 0.30058622E-02 -0.10049E+05
 0.53005934E-01 -0.10032E+05
 0.10300589E+00 -0.10032E+05
 0.15300584E+00 -0.10032E+05
 0.20300579E+00 -0.10031E+05
 0.25300574E+00 -0.10035E+05
 0.30300593E+00 -0.10029E+05
 0.35300589E+00 -0.10014E+05
 0.40300584E+00 -0.10009E+05
 0.45300579E+00 -0.10015E+05
 0.50300574E+00 -0.10004E+05
 0.55300593E+00 -0.10011E+05
 0.60300589E+00 -0.10020E+05
 0.65300584E+00 -0.10009E+05
 0.70300579E+00 -0.10012E+05
 0.75300574E+00 -0.10008E+05
 0.80300570E+00 -0.10008E+05
 0.85300589E+00 -0.10021E+05
 0.90300584E+00 -0.10012E+05
 0.95300579E+00 -0.10021E+05
 0.10030057E+01 -0.10035E+05
 0.10530057E+01 -0.10035E+05
 0.11030059E+01 -0.10031E+05
 0.11530058E+01 -0.10033E+05
 0.12030058E+01 -0.10030E+05
 0.12530057E+01 -0.10011E+05
 0.13030057E+01 -0.10010E+05
 0.13530059E+01 -0.10025E+05
 0.14030058E+01 -0.10029E+05
 0.14530058E+01 -0.10024E+05
 0.15030057E+01 -0.10021E+05
 0.15530057E+01 -0.10026E+05
 0.16030059E+01 -0.10046E+05
 0.16530058E+01 -0.10049E+05
 0.17030058E+01 -0.10032E+05
 0.17530057E+01 -0.10024E+05
 0.18030057E+01 -0.10027E+05
 0.18530056E+01 -0.10026E+05
 0.19030058E+01 -0.10016E+05
 0.19530058E+01 -0.10017E+05
 0.20030057E+01 -0.10012E+05
 0.20530057E+01 -0.10013E+05
 0.21030059E+01 -0.10018E+05
 0.21530056E+01 -0.10024E+05
 0.22030058E+01 -0.10036E+05
 0.22530055E+01 -0.10030E+05
 0.23030057E+01 -0.10024E+05
 0.23530059E+01 -0.10022E+05
 0.24030056E+01 -0.10027E+05
 0.24530058E+01 -0.10023E+05
 0.25030055E+01 -0.10023E+05
 0.25530057E+01 -0.10029E+05
 0.26030059E+01 -0.10037E+05
 0.26530056E+01 -0.10050E+05
 0.27030058E+01 -0.10055E+05
 0.27530055E+01 -0.10062E+05
 0.28030057E+01 -0.10050E+05
 0.28530059E+01 -0.10047E+05
 0.29030056E+01 -0.10045E+05
 0.29530058E+01 -0.10047E+05
 0.30030055E+01 -0.10045E+05
 0.30530057E+01 -0.10032E+05
 0.31030059E+01 -0.10041E+05
 0.31530056E+01 -0.10044E+05
 0.32030058E+01 -0.10050E+05
 0.32530055E+01 -0.10043E+05
 0.33030057E+01 -0.10042E+05
 0.33530059E+01 -0.10036E+05
 0.34030056E+01 -0.10031E+05
 0.34530058E+01 -0.10028E+05
 0.35030055E+01 -0.10012E+05
 0.35530057E+01 -0.10002E+05
 0.36030054E+01 -0.10014E+05
 0.36530056E+01 -0.10015E+05
 0.37030058E+01 -0.99967E+04
 0.37530055E+01 -0.10003E+05
 0.38030057E+01 -0.10002E+05
 0.38530054E+01 -0.99990E+04
 0.39030056E+01 -0.99905E+04
 0.39530058E+01 -0.99771E+04
 0.40030055E+01 -0.99807E+04
 0.40530057E+01 -0.99885E+04
 0.41030054E+01 -0.99881E+04
 0.41530056E+01 -0.99756E+04
 0.42030058E+01 -0.99840E+04
 0.42530055E+01 -0.99956E+04
 0.43030057E+01 -0.99972E+04
 0.43530054E+01 -0.10010E+05
 0.44030056E+01 -0.10019E+05
 0.44530058E+01 -0.10028E+05
 0.45030055E+01 -0.10023E+05
 0.45530057E+01 -0.10019E+05
 0.46030054E+01 -0.10035E+05
 0.46530056E+01 -0.10050E+05
 0.47030058E+01 -0.10039E+05
 0.47530055E+01 -0.10033E+05
 0.48030057E+01 -0.10050E+05
 0.48530054E+01 -0.10050E+05
 0.49030056E+01 -0.10040E+05
 0.49530058E+01 -0.10035E+05
 0.50030055E+01 -0.10045E+05
 0.50530057E+01 -0.10044E+05
 0.51030054E+01 -0.10038E+05
 0.51530056E+01 -0.10047E+05
 0.52030058E+01 -0.10047E+05
 0.52530055E+01 -0.10048E+05
 0.53030057E+01 -0.10046E+05
 0.53530054E+01 -0.10046E+05
 0.54030056E+01 -0.10046E+05
 0.54530053E+01 -0.10045E+05
 0.55030055E+01 -0.10041E+05
 0.55530057E+01 -0.10038E+05
 0.56030054E+01 -0.10041E+05
 0.56530056E+01 -0.10042E+05
 0.57030053E+01 -0.10036E+05
 0.57530055E+01 -0.10042E+05
 0.58030057E+01 -0.10050E+05
 0.58530054E+01 -0.10045E+05
 0.59030056E+01 -0.10030E+05
 0.59530053E+01 -0.10010E+05
 0.60030055E+01 -0.10018E+05
 0.60530052E+01 -0.10008E+05
 0.61030054E+01 -0.99938E+04
 0.61530056E+01 -0.99946E+04
 0.62030058E+01 -0.10010E+05
 0.62530050E+01 -0.10013E+05
 0.63030052E+01 -0.10007E+05
 0.63530054E+01 -0.10014E+05
 0.64030056E+01 -0.10014E+05
 0.64530058E+01 -0.10019E+05
 0.65030050E+01 -0.10018E+05
 0.65530052E+01 -0.10012E+05
 0.66030054E+01 -0.10010E+05
 0.66530056E+01 -0.10014E+05
 0.67030058E+01 -0.10014E+05
 0.67530050E+01 -0.10023E+05
 0.68030052E+01 -0.10025E+05
 0.68530054E+01 -0.10022E+05
 0.69030056E+01 -0.10014E+05
 0.69530058E+01 -0.10019E+05
 0.70030050E+01 -0.10034E+05
 0.70530052E+01 -0.10032E+05
 0.71030054E+01 -0.10030E+05
 0.71530056E+01 -0.10020E+05
 0.72030058E+01 -0.10024E+05
 0.72530050E+01 -0.10022E+05
 0.73030052E+01 -0.10023E+05
 0.73530054E+01 -0.10034E+05
 0.74030056E+01 -0.10035E+05
 0.74530058E+01 -0.10030E+05
 0.75030050E+01 -0.10029E+05
 0.75530052E+01 -0.10040E+05
 0.76030054E+01 -0.10045E+05
 0.76530056E+01 -0.10034E+05
 0.77030058E+01 -0.10030E+05
 0.77530050E+01 -0.10032E+05
 0.78030052E+01 -0.10036E+05
 0.78530054E+01 -0.10044E+05
 0.79030056E+01 -0.10041E+05
 0.79530058E+01 -0.10048E+05
 0.80030050E+01 -0.10056E+05
 0.80530052E+01 -0.10055E+05
 0.81030054E+01 -0.10048E+05
 0.81530056E+01 -0.10046E+05
 0.82030058E+01 -0.10059E+05
 0.82530050E+01 -0.10054E+05
 0.83030052E+01 -0.10047E+05
 0.83530054E+01 -0.10051E+05
 0.84030056E+01 -0.10049E+05
 0.84530058E+01 -0.10035E+05
 0.85030050E+01 -0.10029E+05
 0.85530052E+01 -0.10038E+05
 0.86030054E+01 -0.10031E+05
 0.86530056E+01 -0.10027E+05
 0.87030058E+01 -0.10020E+05
 0.87530050E+01 -0.10019E+05
 0.88030052E+01 -0.10013E+05
 0.88530054E+01 -0.99981E+04
 0.89030056E+01 -0.10003E+05
 0.89530058E+01 -0.10009E+05
 0.90030050E+01 -0.10002E+05
 0.90530052E+01 -0.99931E+04
 0.91030054E+01 -0.99930E+04
 0.91530056E+01 -0.99905E+04
 0.92030048E+01 -0.99994E+04
 0.92530050E+01 -0.10012E+05
 0.93030052E+01 -0.10018E+05
 0.93530054E+01 -0.10018E+05
 0.94030056E+01 -0.10022E+05
 0.94530048E+01 -0.10018E+05
 0.95030050E+01 -0.10014E+05
 0.95530052E+01 -0.10024E+05
 0.96030054E+01 -0.10034E+05
 0.96530056E+01 -0.10029E+05
 0.97030048E+01 -0.10037E+05
 0.97530050E+01 -0.10035E+05
 0.98030052E+01 -0.10036E+05
 0.98530054E+01 -0.10034E+05
 0.99030056E+01 -0.10028E+05
 0.99530048E+01 -0.10040E+05
 0.10003005E+02 -0.10037E+05
 0.10053005E+02 -0.10032E+05
 0.10103005E+02 -0.10033E+05
 0.10153006E+02 -0.10038E+05
 0.10203005E+02 -0.10029E+05
 0.10253005E+02 -0.10024E+05
 0.10303005E+02 -0.10014E+05
 0.10353005E+02 -0.10019E+05
 0.10403006E+02 -0.10027E+05
 0.10453005E+02 -0.10027E+05
 0.10503005E+02 -0.10030E+05
 0.10553005E+02 -0.10029E+05
 0.10603005E+02 -0.10028E+05
 0.10653006E+02 -0.10014E+05
 0.10703005E+02 -0.10001E+05
 0.10753005E+02 -0.10004E+05
 0.10803005E+02 -0.10015E+05
 0.10853005E+02 -0.10012E+05
 0.10903006E+02 -0.10018E+05
 0.10953005E+02 -0.10019E+05
 0.11003005E+02 -0.10018E+05
 0.11053005E+02 -0.10029E+05
 0.11103005E+02 -0.10034E+05
 0.11153006E+02 -0.10043E+05
 0.11203005E+02 -0.10050E+05
 0.11253005E+02 -0.10050E+05
 0.11303005E+02 -0.10041E+05
 0.11353005E+02 -0.10041E+05
 0.11403006E+02 -0.10030E+05
 0.11453005E+02 -0.10026E+05
 0.11503005E+02 -0.10027E+05
 0.11553005E+02 -0.10021E+05
 0.11603005E+02 -0.10014E+05
 0.11653006E+02 -0.10021E+05
 0.11703005E+02 -0.10041E+05
 0.11753005E+02 -0.10046E+05
 0.11803005E+02 -0.10049E+05
 0.11853005E+02 -0.10053E+05
 0.11903006E+02 -0.10066E+05
 0.11953005E+02 -0.10062E+05
 0.12003005E+02 -0.10055E+05
 0.12053005E+02 -0.10058E+05
 0.12103005E+02 -0.10067E+05
 0.12153006E+02 -0.10078E+05
 0.12203005E+02 -0.10076E+05
 0.12253005E+02 -0.10070E+05
 0.12303005E+02 -0.10061E+05
 0.12353005E+02 -0.10057E+05
 0.12403006E+02 -0.10040E+05
 0.12453005E+02 -0.10035E+05
 0.12503005E+02 -0.10022E+05
 0.12553005E+02 -0.10015E+05
 0.12603005E+02 -0.10021E+05
 0.12653005E+02 -0.10021E+05
 0.12703005E+02 -0.10024E+05
 0.12753005E+02 -0.10019E+05
 0.12803005E+02 -0.10018E+05
 0.12853005E+02 -0.10018E+05
 0.12903005E+02 -0.10021E+05
 0.12953005E+02 -0.10014E+05
 0.13003005E+02 -0.10016E+05
 0.13053005E+02 -0.10016E+05
 0.13103005E+02 -0.10028E+05
 0.13153005E+02 -0.10027E+05
 0.13203005E+02 -0.10026E+05
 0.13253005E+02 -0.10039E+05
 0.13303005E+02 -0.10025E+05
 0.13353005E+02 -0.10023E+05
 0.13403005E+02 -0.10021E+05
 0.13453005E+02 -0.10025E+05
 0.13503005E+02 -0.10027E+05
 0.13553005E+02 -0.10026E+05
 0.13603005E+02 -0.10027E+05
 0.13653005E+02 -0.10025E+05
 0.13703005E+02 -0.10024E+05
 0.13753005E+02 -0.10027E+05
 0.13803005E+02 -0.10030E+05
 0.13853005E+02 -0.10030E+05
 0.13903005E+02 -0.10036E+05
 0.13953005E+02 -0.10034E+05
 0.14003005E+02 -0.10041E+05
 0.14053005E+02 -0.10038E+05
 0.14103004E+02 -0.10038E+05
 0.14153006E+02 -0.10033E+05
 0.14203005E+02 -0.10029E+05
 0.14253004E+02 -0.10042E+05
 0.14303005E+02 -0.10047E+05
 0.14353004E+02 -0.10045E+05
 0.14403006E+02 -0.10035E+05
 0.14453005E+02 -0.10032E+05
 0.14503004E+02 -0.10036E+05
 0.14553005E+02 -0.10039E+05
 0.14603004E+02 -0.10037E+05
 0.14653006E+02 -0.10027E+05
 0.14703005E+02 -0.10029E+05
 0.14753004E+02 -0.10042E+05
 0.14803005E+02 -0.10036E+05
 0.14853004E+02 -0.10031E+05
 0.14903006E+02 -0.10037E+05
 0.14953005E+02 -0.10040E+05
 0.15003004E+02 -0.10045E+05
 0.15053005E+02 -0.10052E+05
 0.15103004E+02 -0.10048E+05
 0.15153006E+02 -0.10050E+05
 0.15203005E+02 -0.10057E+05
 0.15253004E+02 -0.10058E+05
 0.15303005E+02 -0.10058E+05
 0.15353004E+02 -0.10051E+05
 0.15403006E+02 -0.10059E+05
 0.15453005E+02 -0.10057E+05
 0.15503004E+02 -0.10053E+05
 0.15553005E+02 -0.10052E+05
 0.15603004E+02 -0.10046E+05
 0.15653006E+02 -0.10048E+05
 0.15703005E+02 -0.10033E+05
 0.15753004E+02 -0.10026E+05
 0.15803005E+02 -0.10027E+05
 0.15853004E+02 -0.10027E+05
 0.15903006E+02 -0.10021E+05
 0.15953005E+02 -0.10021E+05
 0.16003004E+02 -0.10017E+05
 0.16053005E+02 -0.10013E+05
 0.16103004E+02 -0.10026E+05
 0.16153006E+02 -0.10028E+05
 0.16203005E+02 -0.10033E+05
 0.16253004E+02 -0.10031E+05
 0.16303005E+02 -0.10034E+05
 0.16353004E+02 -0.10036E+05
 0.16403006E+02 -0.10044E+05
 0.16453005E+02 -0.10047E+05
 0.16503004E+02 -0.10058E+05
 0.16553005E+02 -0.10065E+05
 0.16603004E+02 -0.10060E+05
 0.16653006E+02 -0.10064E+05
 0.16703005E+02 -0.10065E+05
 0.16753004E+02 -0.10063E+05
 0.16803005E+02 -0.10052E+05
 0.16853004E+02 -0.10057E+05
 0.16903006E+02 -0.10055E+05
 0.16953005E+02 -0.10057E+05
 0.17003004E+02 -0.10049E+05
 0.17053005E+02 -0.10043E+05
 0.17103004E+02 -0.10046E+05
 0.17153006E+02 -0.10034E+05
 0.17203005E+02 -0.10028E+05
 0.17253004E+02 -0.10024E+05
 0.17303005E+02 -0.10026E+05
 0.17353004E+02 -0.10020E+05
 0.17403006E+02 -0.10015E+05
 0.17453005E+02 -0.10016E+05
 0.17503004E+02 -0.10014E+05
 0.17553005E+02 -0.10019E+05
 0.17603004E+02 -0.10032E+05
 0.17653006E+02 -0.10040E+05
 0.17703005E+02 -0.10043E+05
 0.17753004E+02 -0.10046E+05
 0.17803005E+02 -0.10050E+05
 0.17853004E+02 -0.10067E+05
 0.17903006E+02 -0.10070E+05
 0.17953005E+02 -0.10064E+05
 0.18003004E+02 -0.10058E+05
 0.18053005E+02 -0.10058E+05
 0.18103004E+02 -0.10060E+05
 0.18153006E+02 -0.10054E+05
 0.18203005E+02 -0.10051E+05
 0.18253004E+02 -0.10055E+05
 0.18303005E+02 -0.10060E+05
 0.18353004E+02 -0.10070E+05
 0.18403006E+02 -0.10073E+05
 0.18453005E+02 -0.10059E+05
 0.18503004E+02 -0.10050E+05
 0.18553005E+02 -0.10051E+05
 0.18603004E+02 -0.10046E+05
 0.18653006E+02 -0.10032E+05
 0.18703005E+02 -0.10026E+05
 0.18753004E+02 -0.10028E+05
 0.18803005E+02 -0.10038E+05
 0.18853004E+02 -0.10039E+05
 0.18903006E+02 -0.10039E+05
 0.18953005E+02 -0.10035E+05
 0.19003004E+02 -0.10028E+05
 0.19053005E+02 -0.10038E+05
 0.19103004E+02 -0.10038E+05
 0.19153006E+02 -0.10038E+05
 0.19203005E+02 -0.10041E+05
 0.19253004E+02 -0.10049E+05
 0.19303005E+02 -0.10052E+05
 0.19353004E+02 -0.10045E+05
 0.19403006E+02 -0.10048E+05
 0.19453005E+02 -0.10056E+05
 0.19503004E+02 -0.10053E+05
 0.19553005E+02 -0.10048E+05
 0.19603004E+02 -0.10056E+05
 0.19653006E+02 -0.10055E+05
 0.19703005E+02 -0.10060E+05
 0.19753004E+02 -0.10063E+05
 0.19803005E+02 -0.10061E+05
 0.19853004E+02 -0.10057E+05
 0.19903006E+02 -0.10056E+05
 0.19953005E+02 -0.10053E+05
 0.20003004E+02 -0.10049E+05
 0.20053005E+02 -0.10057E+05
 0.20103004E+02 -0.10054E+05
 0.20153006E+02 -0.10051E+05
 0.20203005E+02 -0.10052E+05
 0.20253004E+02 -0.10055E+05
 0.20303005E+02 -0.10062E+05
 0.20353004E+02 -0.10062E+05
 0.20403004E+02 -0.10051E+05
 0.20453005E+02 -0.10047E+05
 0.20503004E+02 -0.10045E+05
 0.20553005E+02 -0.10049E+05
 0.20603004E+02 -0.10046E+05
 0.20653004E+02 -0.10036E+05
 0.20703005E+02 -0.10040E+05
 0.20753004E+02 -0.10057E+05
 0.20803005E+02 -0.10059E+05
 0.20853004E+02 -0.10067E+05
 0.20903004E+02 -0.10069E+05
 0.20953005E+02 -0.10078E+05
 0.21003004E+02 -0.10076E+05
 0.21053005E+02 -0.10060E+05
 0.21103004E+02 -0.10057E+05
 0.21153004E+02 -0.10051E+05
 0.21203005E+02 -0.10057E+05
 0.21253004E+02 -0.10051E+05
 0.21303005E+02 -0.10047E+05
 0.21353004E+02 -0.10044E+05
 0.21403004E+02 -0.10047E+05
 0.21453005E+02 -0.10048E+05
 0.21503004E+02 -0.10055E+05
 0.21553005E+02 -0.10056E+05
 0.21603004E+02 -0.10048E+05
 0.21653004E+02 -0.10051E+05
 0.21703005E+02 -0.10063E+05
 0.21753004E+02 -0.10060E+05
 0.21803005E+02 -0.10048E+05
 0.21853004E+02 -0.10056E+05
 0.21903004E+02 -0.10050E+05
 0.21953005E+02 -0.10049E+05
 0.22003004E+02 -0.10057E+05
 0.22053005E+02 -0.10060E+05
 0.22103004E+02 -0.10065E+05
 0.22153004E+02 -0.10062E+05
 0.22203005E+02 -0.10064E+05
 0.22253004E+02 -0.10067E+05
 0.22303005E+02 -0.10069E+05
 0.22353004E+02 -0.10073E+05
 0.22403004E+02 -0.10061E+05
 0.22453005E+02 -0.10061E+05
 0.22503004E+02 -0.10060E+05
 0.22553005E+02 -0.10052E+05
 0.22603004E+02 -0.10061E+05
 0.22653004E+02 -0.10057E+05
 0.22703005E+02 -0.10051E+05
 0.22753004E+02 -0.10049E+05
 0.22803005E+02 -0.10047E+05
 0.22853004E+02 -0.10047E+05
 0.22903004E+02 -0.10046E+05
 0.22953005E+02 -0.10049E+05
 0.23003004E+02 -0.10056E+05
 0.23053005E+02 -0.10060E+05
 0.23103004E+02 -0.10059E+05
 0.23153004E+02 -0.10059E+05
 0.23203005E+02 -0.10055E+05
 0.23253004E+02 -0.10050E+05
 0.23303005E+02 -0.10053E+05
 0.23353004E+02 -0.10049E+05
 0.23403004E+02 -0.10050E+05
 0.23453005E+02 -0.10051E+05
 0.23503004E+02 -0.10060E+05
 0.23553005E+02 -0.10065E+05
 0.23603004E+02 -0.10062E+05
 0.23653004E+02 -0.10067E+05
 0.23703005E+02 -0.10071E+05
 0.23753004E+02 -0.10069E+05
 0.23803005E+02 -0.10066E+05
 0.23853004E+02 -0.10071E+05
 0.23903004E+02 -0.10080E+05
 0.23953005E+02 -0.10081E+05
 0.24003004E+02 -0.10085E+05
 0.24053005E+02 -0.10073E+05
 0.24103004E+02 -0.10063E+05
 0.24153004E+02 -0.10087E+05
 0.24203005E+02 -0.10098E+05
 0.24253004E+02 -0.10072E+05
 0.24303005E+02 -0.10061E+05
 0.24353004E+02 -0.10065E+05
 0.24403004E+02 -0.10089E+05
 0.24453005E+02 -0.10061E+05
 0.24503004E+02 -0.10035E+05
 0.24553005E+02 -0.10025E+05
 0.24603004E+02 -0.10079E+05
 0.24653004E+02 -0.10093E+05
 0.24703005E+02 -0.10061E+05
 0.24753004E+02 -0.99933E+04
 0.24803005E+02 -0.99368E+04
 0.24853004E+02 -0.10059E+05
 0.24903004E+02 -0.10024E+05
 0.24953005E+02 -0.10105E+05
 0.25003004E+02 -0.99561E+04
 0.25053005E+02 -0.99250E+04
 0.25103004E+02 -0.10083E+05
 0.25153004E+02 -0.10272E+05
 0.25203005E+02 -0.99217E+04
 0.25253004E+02 -0.98187E+04
 0.25303005E+02 -0.10181E+05
 0.25353004E+02 -0.10154E+05
 0.25403004E+02 -0.10070E+05
 0.25453005E+02 -0.97466E+04
 0.25503004E+02 -0.10164E+05
 0.25553005E+02 -0.99988E+04
 0.25603004E+02 -0.98311E+04
 0.25653004E+02 -0.10377E+05
 0.25703005E+02 -0.10381E+05
 0.25753004E+02 -0.96190E+04
 0.25803005E+02 -0.99026E+04
 0.25853004E+02 -0.10507E+05
 0.25903004E+02 -0.10009E+05
 0.25953005E+02 -0.99194E+04
 0.26003004E+02 -0.10122E+05
 0.26053005E+02 -0.10710E+05
 0.26103004E+02 -0.95330E+04
 0.26153004E+02 -0.91352E+04
 0.26203005E+02 -0.11120E+05
 0.26253004E+02 -0.11246E+05
 0.26303005E+02 -0.96016E+04
 0.26353004E+02 -0.94578E+04
 0.26403004E+02 -0.10586E+05
 0.26453005E+02 -0.11015E+05
 0.26503004E+02 -0.10300E+05
 0.26553005E+02 -0.96771E+04
 0.26603004E+02 -0.11190E+05
 0.26653004E+02 -0.10489E+05
 0.26703005E+02 -0.94269E+04
 0.26753004E+02 -0.10506E+05
 0.26803005E+02 -0.10470E+05
 0.26853004E+02 -0.94972E+04
 0.26903004E+02 -0.95033E+04
 0.26953005E+02 -0.10507E+05
 0.27003004E+02 -0.10907E+05
 0.27053003E+02 -0.91165E+04
 0.27103004E+02 -0.79365E+04
 0.27153004E+02 -0.96907E+04
 0.27203005E+02 -0.10261E+05
 0.27253004E+02 -0.11177E+05
 0.27303003E+02 -0.99233E+04
 0.27353004E+02 -0.80900E+04
 0.27403004E+02 -0.84705E+04
 0.27453005E+02 -0.11714E+05
 0.27503004E+02 -0.13056E+05
 0.27553003E+02 -0.86540E+04
 0.27603004E+02 -0.62453E+04
 0.27653004E+02 -0.10868E+05
 0.27703005E+02 -0.14518E+05
 0.27753004E+02 -0.88586E+04
 0.27803003E+02 -0.61549E+04
 0.27853004E+02 -0.94899E+04
 0.27903004E+02 -0.12805E+05
 0.27953005E+02 -0.10835E+05
 0.28003004E+02 -0.90554E+04
 0.28053003E+02 -0.10350E+05
 0.28103004E+02 -0.10151E+05
 0.28153004E+02 -0.10077E+05
 0.28203005E+02 -0.10578E+05
 0.28253004E+02 -0.11372E+05
 0.28303003E+02 -0.80735E+04
 0.28353004E+02 -0.89459E+04
 0.28403004E+02 -0.11034E+05
 0.28453005E+02 -0.11736E+05
 0.28503004E+02 -0.11852E+05
 0.28553003E+02 -0.73688E+04
 0.28603004E+02 -0.72220E+04
 0.28653004E+02 -0.11321E+05
 0.28703005E+02 -0.13675E+05
 0.28753004E+02 -0.12359E+05
 0.28803003E+02 -0.47069E+04
 0.28853004E+02 -0.69207E+04
 0.28903004E+02 -0.17185E+05
 0.28953005E+02 -0.12113E+05
 0.29003004E+02 -0.76692E+04
 0.29053003E+02 -0.83091E+04
 0.29103004E+02 -0.12446E+05
 0.29153004E+02 -0.12198E+05
 0.29203005E+02 -0.85743E+04
 0.29253004E+02 -0.10523E+05
 0.29303003E+02 -0.91714E+04
 0.29353004E+02 -0.90445E+04
 0.29403004E+02 -0.10970E+05
 0.29453005E+02 -0.12214E+05
 0.29503004E+02 -0.97655E+04
 0.29553003E+02 -0.82880E+04
 0.29603004E+02 -0.81264E+04
 0.29653004E+02 -0.99973E+04
 0.29703005E+02 -0.14437E+05
 0.29753004E+02 -0.99778E+04
 0.29803003E+02 -0.28918E+04
 0.29853004E+02 -0.10113E+05
 0.29903004E+02 -0.17963E+05
 0.29953005E+02 -0.11628E+05
 0.30003004E+02 -0.35629E+04
 0.30053005E+02 -0.10343E+05
 0.30103004E+02 -0.13117E+05
 0.30153004E+02 -0.64062E+04
 0.30203003E+02 -0.78943E+04
 0.30253002E+02 -0.11768E+05
 0.30303005E+02 -0.11694E+05
 0.30353004E+02 -0.72864E+04
 0.30403004E+02 -0.66914E+04
 0.30453003E+02 -0.15445E+05
 0.30503002E+02 -0.14066E+05
 0.30553005E+02 -0.50707E+04
 0.30603004E+02 -0.89552E+04
 0.30653004E+02 -0.11597E+05
 0.30703003E+02 -0.10188E+05
 0.30753002E+02 -0.84554E+04
 0.30803005E+02 -0.86136E+04
 0.30853004E+02 -0.12502E+05
 0.30903004E+02 -0.12281E+05
 0.30953003E+02 -0.89617E+04
 0.31003002E+02 -0.10307E+05
 0.31053005E+02 -0.95964E+04
 0.31103004E+02 -0.83314E+04
 0.31153004E+02 -0.10065E+05
 0.31203003E+02 -0.11177E+05
 0.31253002E+02 -0.10551E+05
 0.31303005E+02 -0.39339E+04
 0.31353004E+02 -0.93536E+04
 0.31403004E+02 -0.19133E+05
 0.31453003E+02 -0.14691E+05
 0.31503002E+02 -0.95724E+04
 0.31553005E+02 -0.68653E+04
 0.31603004E+02 -0.75388E+04
 0.31653004E+02 -0.11740E+05
 0.31703003E+02 -0.11454E+05
 0.31753002E+02 -0.75709E+04
 0.31803005E+02 -0.10247E+05
 0.31853004E+02 -0.12897E+05
 0.31903004E+02 -0.10408E+05
 0.31953003E+02 -0.69761E+04
 0.32003002E+02 -0.66945E+04
 0.32053005E+02 -0.12893E+05
 0.32103004E+02 -0.11806E+05
 0.32153004E+02 -0.80545E+04
 0.32203003E+02 -0.67281E+04
 0.32253002E+02 -0.89656E+04
 0.32303005E+02 -0.12094E+05
 0.32353004E+02 -0.13236E+05
 0.32403004E+02 -0.11473E+05
 0.32453003E+02 -0.83174E+04
 0.32503002E+02 -0.43786E+04
 0.32553005E+02 -0.84856E+04
 0.32603004E+02 -0.15873E+05
 0.32653004E+02 -0.12378E+05
 0.32703003E+02 -0.83311E+04
 0.32753002E+02 -0.91298E+04
 0.32803005E+02 -0.13051E+05
 0.32853004E+02 -0.10775E+05
 0.32903004E+02 -0.10747E+05
 0.32953003E+02 -0.10574E+05
 0.33003002E+02 -0.72189E+04
 0.33053005E+02 -0.12642E+05
 0.33103004E+02 -0.13395E+05
 0.33153004E+02 -0.70005E+04
 0.33203003E+02 -0.70646E+04
 0.33253002E+02 -0.12880E+05
 0.33303005E+02 -0.12932E+05
 0.33353004E+02 -0.61326E+04
 0.33403004E+02 -0.56848E+04
 0.33453003E+02 -0.99921E+04
 0.33503002E+02 -0.95160E+04
 0.33553005E+02 -0.67130E+04
 0.33603004E+02 -0.11840E+05
 0.33653004E+02 -0.13327E+05
 0.33703003E+02 -0.85933E+04
 0.33753002E+02 -0.72347E+04
 0.33803005E+02 -0.98293E+04
 0.33853004E+02 -0.13141E+05
 0.33903004E+02 -0.95635E+04
 0.33953003E+02 -0.66577E+04
 0.34003002E+02 -0.11340E+05
 0.34053005E+02 -0.12395E+05
 0.34103004E+02 -0.98283E+04
 0.34153004E+02 -0.82715E+04
 0.34203003E+02 -0.10759E+05
 0.34253002E+02 -0.14334E+05
 0.34303005E+02 -0.75488E+04
 0.34353004E+02 -0.80321E+04
 0.34403004E+02 -0.12022E+05
 0.34453003E+02 -0.99661E+04
 0.34503002E+02 -0.10304E+05
 0.34553005E+02 -0.10248E+05
 0.34603004E+02 -0.10144E+05
 0.34653004E+02 -0.98178E+04
 0.34703003E+02 -0.10206E+05
 0.34753002E+02 -0.98191E+04
 0.34803005E+02 -0.10756E+05
 0.34853004E+02 -0.12561E+05
 0.34903004E+02 -0.10240E+05
 0.34953003E+02 -0.75683E+04
 0.35003002E+02 -0.10626E+05
 0.35053005E+02 -0.13746E+05
 0.35103004E+02 -0.10819E+05
 0.35153004E+02 -0.68199E+04
 0.35203003E+02 -0.66780E+04
 0.35253002E+02 -0.10866E+05
 0.35303005E+02 -0.15286E+05
 0.35353004E+02 -0.11184E+05
 0.35403004E+02 -0.69835E+04
 0.35453003E+02 -0.11172E+05
 0.35503002E+02 -0.95362E+04
 0.35553005E+02 -0.94577E+04
 0.35603004E+02 -0.10811E+05
 0.35653004E+02 -0.77944E+04
 0.35703003E+02 -0.88867E+04
 0.35753002E+02 -0.11549E+05
 0.35803005E+02 -0.11332E+05
 0.35853004E+02 -0.92468E+04
 0.35903004E+02 -0.10066E+05
 0.35953003E+02 -0.99718E+04
 0.36003002E+02 -0.10587E+05
 0.36053005E+02 -0.94390E+04
 0.36103004E+02 -0.71479E+04
 0.36153004E+02 -0.10088E+05
 0.36203003E+02 -0.12425E+05
 0.36253002E+02 -0.11648E+05
 0.36303005E+02 -0.89300E+04
 0.36353004E+02 -0.87252E+04
 0.36403004E+02 -0.11631E+05
 0.36453003E+02 -0.11782E+05
 0.36503002E+02 -0.73182E+04
 0.36553005E+02 -0.77490E+04
 0.36603004E+02 -0.11286E+05
 0.36653004E+02 -0.11104E+05
 0.36703003E+02 -0.80723E+04
 0.36753002E+02 -0.10273E+05
 0.36803005E+02 -0.14467E+05
 0.36853004E+02 -0.97879E+04
 0.36903004E+02 -0.73762E+04
 0.36953003E+02 -0.10974E+05
 0.37003002E+02 -0.13890E+05
 0.37053005E+02 -0.94112E+04
 0.37103004E+02 -0.64424E+04
 0.37153004E+02 -0.97607E+04
 0.37203003E+02 -0.11965E+05
 0.37253002E+02 -0.94527E+04
 0.37303005E+02 -0.90328E+04
 0.37353004E+02 -0.11917E+05
 0.37403004E+02 -0.95548E+04
 0.37453003E+02 -0.67566E+04
 0.37503002E+02 -0.86294E+04
 0.37553005E+02 -0.13772E+05
 0.37603004E+02 -0.12157E+05
 0.37653004E+02 -0.66116E+04
 0.37703003E+02 -0.12191E+05
 0.37753002E+02 -0.13630E+05
 0.37803005E+02 -0.53770E+04
 0.37853004E+02 -0.76604E+04
 0.37903004E+02 -0.14480E+05
 0.37953003E+02 -0.14548E+05
 0.38003002E+02 -0.78743E+04
 0.38053005E+02 -0.71059E+04
 0.38103004E+02 -0.10797E+05
 0.38153004E+02 -0.96179E+04
 0.38203003E+02 -0.92462E+04
 0.38253002E+02 -0.13100E+05
 0.38303005E+02 -0.14403E+05
 0.38353004E+02 -0.66754E+04
 0.38403004E+02 -0.54753E+04
 0.38453003E+02 -0.11705E+05
 0.38503002E+02 -0.11421E+05
 0.38553005E+02 -0.10140E+05
 0.38603004E+02 -0.10239E+05
 0.38653004E+02 -0.98927E+04
 0.38703003E+02 -0.10013E+05
 0.38753002E+02 -0.91885E+04
 0.38803005E+02 -0.10594E+05
 0.38853004E+02 -0.99781E+04
 0.38903004E+02 -0.82516E+04
 0.38953003E+02 -0.89894E+04
 0.39003002E+02 -0.11211E+05
 0.39053005E+02 -0.12702E+05
 0.39103004E+02 -0.11081E+05
 0.39153004E+02 -0.10051E+05
 0.39203003E+02 -0.94893E+04
 0.39253002E+02 -0.11601E+05
 0.39303005E+02 -0.11399E+05
 0.39353004E+02 -0.84948E+04
 0.39403004E+02 -0.11562E+05
 0.39453003E+02 -0.11207E+05
 0.39503002E+02 -0.68846E+04
 0.39553005E+02 -0.68380E+04
 0.39603004E+02 -0.10436E+05
 0.39653004E+02 -0.12118E+05
 0.39703003E+02 -0.97005E+04
 0.39753002E+02 -0.10064E+05
 0.39803005E+02 -0.10037E+05
 0.39853004E+02 -0.88919E+04
 0.39903004E+02 -0.79449E+04
 0.39953003E+02 -0.10360E+05
 0.40003002E+02 -0.13298E+05
 0.40053005E+02 -0.90832E+04
 0.40103004E+02 -0.62583E+04
 0.40153004E+02 -0.11310E+05
 0.40203003E+02 -0.13542E+05
 0.40253002E+02 -0.93634E+04
 0.40303005E+02 -0.99744E+04
 0.40353004E+02 -0.11689E+05
 0.40403004E+02 -0.12178E+05
 0.40453003E+02 -0.10379E+05
 0.40503002E+02 -0.75641E+04
 0.40553005E+02 -0.90189E+04
 0.40603004E+02 -0.10880E+05
 0.40653004E+02 -0.10790E+05
 0.40703003E+02 -0.10986E+05
 0.40753002E+02 -0.10536E+05
 0.40803005E+02 -0.93931E+04
 0.40853004E+02 -0.10732E+05
 0.40903004E+02 -0.11976E+05
 0.40953003E+02 -0.10252E+05
 0.41003002E+02 -0.70433E+04
 0.41053005E+02 -0.78588E+04
 0.41103004E+02 -0.10879E+05
 0.41153004E+02 -0.10706E+05
 0.41203003E+02 -0.86527E+04
 0.41253002E+02 -0.10309E+05
 0.41303005E+02 -0.11651E+05
 0.41353004E+02 -0.91487E+04
 0.41403004E+02 -0.89092E+04
 0.41453003E+02 -0.10861E+05
 0.41503002E+02 -0.10308E+05
 0.41553005E+02 -0.92648E+04
 0.41603004E+02 -0.10948E+05
 0.41653004E+02 -0.11637E+05
 0.41703003E+02 -0.86533E+04
 0.41753002E+02 -0.78774E+04
 0.41803005E+02 -0.99324E+04
 0.41853004E+02 -0.12050E+05
 0.41903004E+02 -0.10749E+05
 0.41953003E+02 -0.84130E+04
 0.42003002E+02 -0.11889E+05
 0.42053005E+02 -0.11170E+05
 0.42103004E+02 -0.89502E+04
 0.42153004E+02 -0.96969E+04
 0.42203003E+02 -0.11692E+05
 0.42253002E+02 -0.10786E+05
 0.42303005E+02 -0.76372E+04
 0.42353004E+02 -0.93877E+04
 0.42403004E+02 -0.97038E+04
 0.42453003E+02 -0.10689E+05
 0.42503002E+02 -0.91177E+04
 0.42553005E+02 -0.95813E+04
 0.42603004E+02 -0.13745E+05
 0.42653004E+02 -0.11835E+05
 0.42703003E+02 -0.66840E+04
 0.42753002E+02 -0.61096E+04
 0.42803001E+02 -0.11504E+05
 0.42853004E+02 -0.14244E+05
 0.42903004E+02 -0.11010E+05
 0.42953003E+02 -0.66828E+04
 0.43003002E+02 -0.69813E+04
 0.43053001E+02 -0.96520E+04
 0.43103004E+02 -0.12061E+05
 0.43153004E+02 -0.12145E+05
 0.43203003E+02 -0.10833E+05
 0.43253002E+02 -0.93817E+04
 0.43303001E+02 -0.97283E+04
 0.43353004E+02 -0.10447E+05
 0.43403004E+02 -0.10556E+05
 0.43453003E+02 -0.10333E+05
 0.43503002E+02 -0.10809E+05
 0.43553001E+02 -0.10027E+05
 0.43603004E+02 -0.76158E+04
 0.43653004E+02 -0.10181E+05
 0.43703003E+02 -0.10843E+05
 0.43753002E+02 -0.11051E+05
 0.43803001E+02 -0.13466E+05
 0.43853004E+02 -0.14108E+05
 0.43903004E+02 -0.15029E+05
 0.43953003E+02 -0.10446E+05
 0.44003002E+02 -0.25913E+04
 0.44053001E+02  0.24717E+03
 0.44103004E+02 -0.37565E+04
 0.44153004E+02 -0.78748E+04
 0.44203003E+02 -0.97810E+04
 0.44253002E+02 -0.16809E+05
 0.44303001E+02 -0.18083E+05
 0.44353004E+02 -0.10480E+05
 0.44403004E+02 -0.55296E+04
 0.44453003E+02 -0.67491E+04
 0.44503002E+02 -0.12359E+05
 0.44553001E+02 -0.11479E+05
 0.44603004E+02 -0.13185E+05
 0.44653004E+02 -0.17603E+05
 0.44703003E+02 -0.10860E+05
 0.44753002E+02 -0.17261E+04
 0.44803001E+02 -0.23825E+04
 0.44853004E+02 -0.67858E+04
 0.44903004E+02 -0.90573E+04
 0.44953003E+02 -0.13411E+05
 0.45003002E+02 -0.13771E+05
 0.45053001E+02 -0.12340E+05
 0.45103004E+02 -0.11163E+05
 0.45153004E+02 -0.10549E+05
 0.45203003E+02 -0.16828E+05
 0.45253002E+02 -0.18108E+05
 0.45303001E+02 -0.52260E+04
 0.45353004E+02  0.19320E+04
 0.45403004E+02 -0.13278E+04
 0.45453003E+02 -0.95351E+04
 0.45503002E+02 -0.19795E+05
 0.45553001E+02 -0.18433E+05
 0.45603004E+02 -0.63317E+04
 0.45653004E+02 -0.52184E+04
 0.45703003E+02 -0.11129E+05
 0.45753002E+02 -0.13216E+05
 0.45803001E+02 -0.13640E+05
 0.45853004E+02 -0.10190E+05
 0.45903004E+02 -0.87339E+04
 0.45953003E+02 -0.78271E+04
 0.46003002E+02 -0.62012E+04
 0.46053001E+02 -0.60254E+04
 0.46103004E+02 -0.15919E+05
 0.46153004E+02 -0.22429E+05
 0.46203003E+02 -0.12768E+05
 0.46253002E+02 -0.18219E+04
 0.46303001E+02  0.13302E+04
 0.46353004E+02 -0.49925E+04
 0.46403004E+02 -0.13333E+05
 0.46453003E+02 -0.16780E+05
 0.46503002E+02 -0.12875E+05
 0.46553001E+02 -0.50225E+04
 0.46603004E+02  0.32464E+03
 0.46653004E+02 -0.12453E+05
 0.46703003E+02 -0.25791E+05
 0.46753002E+02 -0.16361E+05
 0.46803001E+02 -0.64288E+04
 0.46853004E+02 -0.42482E+04
 0.46903004E+02 -0.56563E+04
 0.46953003E+02 -0.13287E+05
 0.47003002E+02 -0.17067E+05
 0.47053001E+02 -0.67021E+04
 0.47103004E+02  0.13331E+04
 0.47153004E+02 -0.93405E+04
 0.47203003E+02 -0.19406E+05
 0.47253002E+02 -0.12761E+05
 0.47303001E+02 -0.62841E+04
 0.47353004E+02 -0.68266E+04
 0.47403004E+02 -0.83013E+04
 0.47453003E+02 -0.96539E+04
 0.47503002E+02 -0.15610E+05
 0.47553001E+02 -0.18844E+05
 0.47603004E+02 -0.89421E+04
 0.47653004E+02 -0.25421E+04
 0.47703003E+02 -0.69782E+04
 0.47753002E+02 -0.10859E+05
 0.47803001E+02 -0.58001E+04
 0.47853004E+02 -0.28561E+04
 0.47903004E+02 -0.10453E+05
 0.47953003E+02 -0.20163E+05
 0.48003002E+02 -0.16992E+05
 0.48053001E+02 -0.69945E+04
 0.48103004E+02 -0.82808E+04
 0.48153004E+02 -0.98725E+04
 0.48203003E+02 -0.82314E+04
 0.48253002E+02 -0.76441E+04
 0.48303001E+02 -0.88570E+04
 0.48353004E+02 -0.12693E+05
 0.48403004E+02 -0.11436E+05
 0.48453003E+02 -0.97964E+04
 0.48503002E+02 -0.12487E+05
 0.48553001E+02 -0.96175E+04
 0.48603004E+02 -0.10016E+05
 0.48653004E+02 -0.16746E+05
 0.48703003E+02 -0.12774E+05
 0.48753002E+02 -0.20548E+04
 0.48803001E+02 -0.89999E+04
 0.48853004E+02 -0.15982E+05
 0.48903004E+02 -0.10933E+05
 0.48953003E+02 -0.10305E+05
 0.49003002E+02 -0.11774E+05
 0.49053001E+02 -0.13264E+05
 0.49103004E+02 -0.97543E+04
 0.49153004E+02 -0.63244E+04
 0.49203003E+02 -0.40317E+04
 0.49253002E+02 -0.44291E+04
 0.49303001E+02 -0.88975E+04
 0.49353004E+02 -0.13127E+05
 0.49403004E+02 -0.12470E+05
 0.49453003E+02 -0.12712E+05
 0.49503002E+02 -0.11841E+05
 0.49553001E+02 -0.65730E+04
 0.49603004E+02 -0.11986E+05
 0.49653004E+02 -0.10661E+05
 0.49703003E+02 -0.46280E+04
 0.49753002E+02 -0.98377E+04
 0.49803001E+02 -0.96946E+04
 0.49853004E+02 -0.57438E+04
 0.49903004E+02 -0.96587E+04
 0.49953003E+02 -0.16128E+05
 0.50003002E+02 -0.15049E+05
 0.50053001E+02 -0.59357E+04
 0.50103004E+02 -0.87348E+04
 0.50153004E+02 -0.17301E+05
 0.50203003E+02 -0.79757E+04
 0.50253002E+02 -0.37565E+04
 0.50303001E+02 -0.13323E+05
 0.50353004E+02 -0.12239E+05
 0.50403004E+02 -0.53484E+04
 0.50453003E+02 -0.95076E+04
 0.50503002E+02 -0.10304E+05
 0.50553001E+02 -0.73196E+04
 0.50603004E+02 -0.11890E+05
 0.50653004E+02 -0.11521E+05
 0.50703003E+02 -0.11805E+05
 0.50753002E+02 -0.11505E+05
 0.50803001E+02 -0.71917E+04
 0.50853004E+02 -0.88336E+04
 0.50903004E+02 -0.13478E+05
 0.50953003E+02 -0.13081E+05
 0.51003002E+02 -0.73454E+04
 0.51053001E+02 -0.80171E+04
 0.51103004E+02 -0.13923E+05
 0.51153004E+02 -0.14458E+05
 0.51203003E+02 -0.10903E+05
 0.51253002E+02 -0.77874E+04
 0.51303001E+02 -0.48997E+04
 0.51353004E+02 -0.52410E+04
 0.51403004E+02 -0.99621E+04
 0.51453003E+02 -0.12191E+05
 0.51503002E+02 -0.91270E+04
 0.51553001E+02 -0.95286E+04
 0.51603004E+02 -0.93601E+04
 0.51653004E+02 -0.11181E+05
 0.51703003E+02 -0.11991E+05
 0.51753002E+02 -0.11819E+05
 0.51803001E+02 -0.11911E+05
 0.51853004E+02 -0.76551E+04
 0.51903004E+02 -0.98727E+04
 0.51953003E+02 -0.11038E+05
 0.52003002E+02 -0.10289E+05
 0.52053001E+02 -0.99911E+04
 0.52103004E+02 -0.93930E+04
 0.52153004E+02 -0.58736E+04
 0.52203003E+02 -0.66464E+04
 0.52253002E+02 -0.12616E+05
 0.52303001E+02 -0.13583E+05
 0.52353004E+02 -0.96356E+04
 0.52403004E+02 -0.86678E+04
 0.52453003E+02 -0.11740E+05
 0.52503002E+02 -0.12266E+05
 0.52553001E+02 -0.95470E+04
 0.52603004E+02 -0.35718E+04
 0.52653004E+02 -0.69698E+04
 0.52703003E+02 -0.16105E+05
 0.52753002E+02 -0.12712E+05
 0.52803001E+02 -0.92208E+04
 0.52853004E+02 -0.14468E+05
 0.52903004E+02 -0.14117E+05
 0.52953003E+02 -0.84097E+04
 0.53003002E+02 -0.84972E+04
 0.53053001E+02 -0.13695E+05
 0.53103004E+02 -0.13034E+05
 0.53153004E+02 -0.92702E+04
 0.53203003E+02 -0.70442E+04
 0.53253002E+02 -0.78792E+04
 0.53303001E+02 -0.10931E+05
 0.53353004E+02 -0.10897E+05
 0.53403004E+02 -0.84813E+04
 0.53453003E+02 -0.71152E+04
 0.53503002E+02 -0.79832E+04
 0.53553001E+02 -0.10123E+05
 0.53603004E+02 -0.12865E+05
 0.53653004E+02 -0.11612E+05
 0.53703003E+02 -0.94074E+04
 0.53753002E+02 -0.10049E+05
 0.53803001E+02 -0.10577E+05
 0.53853004E+02 -0.10544E+05
 0.53903004E+02 -0.11278E+05
 0.53953003E+02 -0.12748E+05
 0.54003002E+02 -0.84946E+04
 0.54053001E+02 -0.35483E+04
 0.54103004E+02 -0.67506E+04
 0.54153004E+02 -0.12390E+05
 0.54203003E+02 -0.11804E+05
 0.54253002E+02 -0.81724E+04
 0.54303001E+02 -0.90153E+04
 0.54353004E+02 -0.13278E+05
 0.54403004E+02 -0.12099E+05
 0.54453003E+02 -0.10071E+05
 0.54503002E+02 -0.12063E+05
 0.54553001E+02 -0.87857E+04
 0.54603004E+02 -0.59328E+04
 0.54653004E+02 -0.10672E+05
 0.54703003E+02 -0.13777E+05
 0.54753002E+02 -0.10795E+05
 0.54803001E+02 -0.10306E+05
 0.54853004E+02 -0.98379E+04
 0.54903004E+02 -0.11027E+05
 0.54953003E+02 -0.13670E+05
 0.55003002E+02 -0.12324E+05
 0.55053001E+02 -0.94814E+04
 0.55103004E+02 -0.88885E+04
 0.55153004E+02 -0.91439E+04
 0.55203003E+02 -0.10180E+05
 0.55253002E+02 -0.10692E+05
 0.55303001E+02 -0.10770E+05
 0.55353004E+02 -0.12356E+05
 0.55403004E+02 -0.11487E+05
 0.55453003E+02 -0.10017E+05
 0.55503002E+02 -0.81680E+04
 0.55553001E+02 -0.68129E+04
 0.55603004E+02 -0.72063E+04
 0.55653004E+02 -0.96723E+04
 0.55703003E+02 -0.12415E+05
 0.55753002E+02 -0.11731E+05
 0.55803001E+02 -0.92631E+04
 0.55853001E+02 -0.93456E+04
 0.55903004E+02 -0.82627E+04
 0.55953003E+02 -0.93914E+04
 0.56003002E+02 -0.11543E+05
 0.56053001E+02 -0.11887E+05
 0.56103001E+02 -0.11892E+05
 0.56153004E+02 -0.98838E+04
 0.56203003E+02 -0.88522E+04
 0.56253002E+02 -0.10222E+05
 0.56303001E+02 -0.10959E+05
 0.56353001E+02 -0.79697E+04
 0.56403004E+02 -0.86125E+04
 0.56453003E+02 -0.10233E+05
 0.56503002E+02 -0.97631E+04
 0.56553001E+02 -0.10939E+05
 0.56603001E+02 -0.12918E+05
 0.56653004E+02 -0.12752E+05
 0.56703003E+02 -0.97906E+04
 0.56753002E+02 -0.85200E+04
 0.56803001E+02 -0.99093E+04
 0.56853001E+02 -0.12204E+05
 0.56903004E+02 -0.10984E+05
 0.56953003E+02 -0.72251E+04
 0.57003002E+02 -0.62679E+04
 0.57053001E+02 -0.85994E+04
 0.57103001E+02 -0.10758E+05
 0.57153004E+02 -0.10557E+05
 0.57203003E+02 -0.10072E+05
 0.57253002E+02 -0.10194E+05
 0.57303001E+02 -0.99870E+04
 0.57353001E+02 -0.88252E+04
 0.57403004E+02 -0.95207E+04
 0.57453003E+02 -0.11522E+05
 0.57503002E+02 -0.92398E+04
 0.57553001E+02 -0.79111E+04
 0.57603001E+02 -0.10906E+05
 0.57653004E+02 -0.10613E+05
 0.57703003E+02 -0.10219E+05
 0.57753002E+02 -0.13642E+05
 0.57803001E+02 -0.14284E+05
 0.57853001E+02 -0.10681E+05
 0.57903004E+02 -0.85693E+04
 0.57953003E+02 -0.99450E+04
 0.58003002E+02 -0.11348E+05
 0.58053001E+02 -0.10502E+05
 0.58103001E+02 -0.93008E+04
 0.58153004E+02 -0.98649E+04
 0.58203003E+02 -0.90042E+04
 0.58253002E+02 -0.84348E+04
 0.58303001E+02 -0.11112E+05
 0.58353001E+02 -0.11368E+05
 0.58403004E+02 -0.93095E+04
 0.58453003E+02 -0.83161E+04
 0.58503002E+02 -0.83276E+04
 0.58553001E+02 -0.96810E+04
 0.58603001E+02 -0.10961E+05
 0.58653004E+02 -0.10188E+05
 0.58703003E+02 -0.87474E+04
 0.58753002E+02 -0.81560E+04
 0.58803001E+02 -0.83472E+04
 0.58853001E+02 -0.10507E+05
 0.58903004E+02 -0.12882E+05
 0.58953003E+02 -0.13010E+05
 0.59003002E+02 -0.10444E+05
 0.59053001E+02 -0.88560E+04
 0.59103001E+02 -0.94396E+04
 0.59153004E+02 -0.93827E+04
 0.59203003E+02 -0.99204E+04
 0.59253002E+02 -0.10911E+05
 0.59303001E+02 -0.10841E+05
 0.59353001E+02 -0.89675E+04
 0.59403004E+02 -0.99369E+04
 0.59453003E+02 -0.12773E+05
 0.59503002E+02 -0.12319E+05
 0.59553001E+02 -0.10644E+05
 0.59603001E+02 -0.95021E+04
 0.59653004E+02 -0.90478E+04
 0.59703003E+02 -0.96547E+04
 0.59753002E+02 -0.10379E+05
 0.59803001E+02 -0.91932E+04
 0.59853001E+02 -0.74055E+04
 0.59903004E+02 -0.69809E+04
 0.59953003E+02 -0.82963E+04
 0.60003002E+02 -0.96588E+04
 0.60053001E+02 -0.94161E+04
 0.60103001E+02 -0.94147E+04
 0.60153004E+02 -0.10367E+05
 0.60203003E+02 -0.10477E+05
 0.60253002E+02 -0.11183E+05
 0.60303001E+02 -0.10388E+05
 0.60353001E+02 -0.80064E+04
 0.60403004E+02 -0.87078E+04
 0.60453003E+02 -0.10575E+05
 0.60503002E+02 -0.10046E+05
 0.60553001E+02 -0.10235E+05
 0.60603001E+02 -0.11591E+05
 0.60653004E+02 -0.11458E+05
 0.60703003E+02 -0.11048E+05
 0.60753002E+02 -0.10628E+05
 0.60803001E+02 -0.10065E+05
 0.60853001E+02 -0.88493E+04
 0.60903004E+02 -0.96584E+04
 0.60953003E+02 -0.11041E+05
 0.61003002E+02 -0.93366E+04
 0.61053001E+02 -0.78449E+04
 0.61103001E+02 -0.10067E+05
 0.61153004E+02 -0.11737E+05
 0.61203003E+02 -0.10549E+05
 0.61253002E+02 -0.99193E+04
 0.61303001E+02 -0.96166E+04
 0.61353001E+02 -0.93982E+04
 0.61403004E+02 -0.97944E+04
 0.61453003E+02 -0.10492E+05
 0.61503002E+02 -0.97814E+04
 0.61553001E+02 -0.86147E+04
 0.61603001E+02 -0.91240E+04
 0.61653004E+02 -0.11397E+05
 0.61703003E+02 -0.11811E+05
 0.61753002E+02 -0.10162E+05
 0.61803001E+02 -0.10183E+05
 0.61853001E+02 -0.10990E+05
 0.61903004E+02 -0.10005E+05
 0.61953003E+02 -0.82202E+04
 0.62003002E+02 -0.95305E+04
 0.62053001E+02 -0.10620E+05
 0.62103004E+02 -0.93638E+04
 0.62153000E+02 -0.96866E+04
 0.62203003E+02 -0.10525E+05
 0.62252998E+02 -0.10648E+05
 0.62303001E+02 -0.10937E+05
 0.62353004E+02 -0.10726E+05
 0.62403000E+02 -0.11044E+05
 0.62453003E+02 -0.10713E+05
 0.62502998E+02 -0.97306E+04
 0.62553001E+02 -0.97010E+04
 0.62603004E+02 -0.99762E+04
 0.62653000E+02 -0.92808E+04
 0.62703003E+02 -0.93080E+04
 0.62752998E+02 -0.11246E+05
 0.62803001E+02 -0.11797E+05
 0.62853004E+02 -0.11027E+05
 0.62903000E+02 -0.11153E+05
 0.62953003E+02 -0.11606E+05
 0.63002998E+02 -0.10935E+05
 0.63053001E+02 -0.10568E+05
 0.63103004E+02 -0.10363E+05
 0.63153000E+02 -0.92051E+04
 0.63203003E+02 -0.83419E+04
 0.63252998E+02 -0.83099E+04
 0.63303001E+02 -0.94357E+04
 0.63353004E+02 -0.10403E+05
 0.63403000E+02 -0.96234E+04
 0.63453003E+02 -0.96508E+04
 0.63502998E+02 -0.10890E+05
 0.63553001E+02 -0.11077E+05
 0.63603004E+02 -0.99994E+04
 0.63653000E+02 -0.96833E+04
 0.63703003E+02 -0.10722E+05
 0.63752998E+02 -0.10586E+05
 0.63803001E+02 -0.90297E+04
 0.63853004E+02 -0.82387E+04
 0.63903000E+02 -0.89818E+04
 0.63953003E+02 -0.10169E+05
 0.64002998E+02 -0.10242E+05
 0.64053001E+02 -0.10117E+05
 0.64103004E+02 -0.11076E+05
 0.64153000E+02 -0.11229E+05
 0.64203003E+02 -0.11151E+05
 0.64252998E+02 -0.11186E+05
 0.64303001E+02 -0.11076E+05
 0.64353004E+02 -0.11271E+05
 0.64403000E+02 -0.11200E+05
 0.64453003E+02 -0.10660E+05
 0.64502998E+02 -0.11140E+05
 0.64553001E+02 -0.11340E+05
 0.64603004E+02 -0.98114E+04
 0.64653000E+02 -0.96855E+04
 0.64703003E+02 -0.95382E+04
 0.64752998E+02 -0.90212E+04
 0.64803001E+02 -0.96372E+04
 0.64853004E+02 -0.10473E+05
 0.64903000E+02 -0.99345E+04
 0.64953003E+02 -0.89314E+04
 0.65002998E+02 -0.90020E+04
 0.65053001E+02 -0.99255E+04
 0.65103004E+02 -0.10755E+05
 0.65153000E+02 -0.99249E+04
 0.65203003E+02 -0.96848E+04
 0.65252998E+02 -0.10702E+05
 0.65303001E+02 -0.10348E+05
 0.65353004E+02 -0.97297E+04
 0.65403000E+02 -0.10381E+05
 0.65453003E+02 -0.10252E+05
 0.65502998E+02 -0.95611E+04
 0.65553001E+02 -0.96150E+04
 0.65603004E+02 -0.94708E+04
 0.65653000E+02 -0.91027E+04
 0.65703003E+02 -0.94522E+04
 0.65752998E+02 -0.10226E+05
 0.65803001E+02 -0.10670E+05
 0.65853004E+02 -0.10343E+05
 0.65903000E+02 -0.10444E+05
 0.65953003E+02 -0.11066E+05
 0.66002998E+02 -0.10968E+05
 0.66053001E+02 -0.10358E+05
 0.66103004E+02 -0.10009E+05
 0.66153000E+02 -0.10001E+05
 0.66203003E+02 -0.10000E+05
 0.66252998E+02 -0.10543E+05
 0.66303001E+02 -0.10454E+05
 0.66353004E+02 -0.95640E+04
 0.66403000E+02 -0.92965E+04
 0.66453003E+02 -0.87379E+04
 0.66502998E+02 -0.83932E+04
 0.66553001E+02 -0.90023E+04
 0.66603004E+02 -0.97558E+04
 0.66653000E+02 -0.10145E+05
 0.66703003E+02 -0.10157E+05
 0.66752998E+02 -0.10770E+05
 0.66803001E+02 -0.11350E+05
 0.66853004E+02 -0.11155E+05
 0.66903000E+02 -0.10745E+05
 0.66953003E+02 -0.10363E+05
 0.67002998E+02 -0.99806E+04
 0.67053001E+02 -0.94867E+04
 0.67103004E+02 -0.97414E+04
 0.67153000E+02 -0.10542E+05
 0.67203003E+02 -0.10259E+05
 0.67252998E+02 -0.95336E+04
 0.67303001E+02 -0.10106E+05
 0.67353004E+02 -0.10631E+05
 0.67403000E+02 -0.94628E+04
 0.67453003E+02 -0.86840E+04
 0.67502998E+02 -0.97330E+04
 0.67553001E+02 -0.11029E+05
 0.67603004E+02 -0.11002E+05
 0.67653000E+02 -0.10396E+05
 0.67703003E+02 -0.10292E+05
 0.67752998E+02 -0.10257E+05
 0.67803001E+02 -0.10253E+05
 0.67853004E+02 -0.10774E+05
 0.67903000E+02 -0.10634E+05
 0.67953003E+02 -0.97670E+04
 0.68002998E+02 -0.98493E+04
 0.68053001E+02 -0.11016E+05
 0.68103004E+02 -0.11190E+05
 0.68153000E+02 -0.95123E+04
 0.68203003E+02 -0.90211E+04
 0.68252998E+02 -0.99237E+04
 0.68303001E+02 -0.10068E+05
 0.68353004E+02 -0.97189E+04
 0.68403000E+02 -0.98958E+04
 0.68453003E+02 -0.10238E+05
 0.68502998E+02 -0.10355E+05
 0.68553001E+02 -0.10725E+05
 0.68603004E+02 -0.10810E+05
 0.68653000E+02 -0.10978E+05
 0.68703003E+02 -0.10836E+05
 0.68752998E+02 -0.10469E+05
 0.68803001E+02 -0.10547E+05
 0.68853004E+02 -0.10492E+05
 0.68903000E+02 -0.10173E+05
 0.68953003E+02 -0.97736E+04
 0.69002998E+02 -0.94488E+04
 0.69053001E+02 -0.95575E+04
 0.69103004E+02 -0.98729E+04
 0.69153000E+02 -0.10297E+05
 0.69203003E+02 -0.10952E+05
 0.69252998E+02 -0.10157E+05
 0.69303001E+02 -0.89914E+04
 0.69353004E+02 -0.89792E+04
 0.69403000E+02 -0.94107E+04
 0.69453003E+02 -0.91931E+04
 0.69502998E+02 -0.85758E+04
 0.69553001E+02 -0.87008E+04
 0.69603004E+02 -0.91093E+04
 0.69653000E+02 -0.90034E+04
 0.69703003E+02 -0.91390E+04
 0.69752998E+02 -0.96811E+04
 0.69803001E+02 -0.10474E+05
 0.69853004E+02 -0.10727E+05
 0.69903000E+02 -0.10227E+05
 0.69953003E+02 -0.10424E+05
 0.70002998E+02 -0.10901E+05
 0.70053001E+02 -0.10994E+05
 0.70103004E+02 -0.11073E+05
 0.70153000E+02 -0.11302E+05
 0.70203003E+02 -0.10903E+05
 0.70252998E+02 -0.10735E+05
 0.70303001E+02 -0.11098E+05
 0.70353004E+02 -0.11073E+05
 0.70403000E+02 -0.10729E+05
 0.70453003E+02 -0.10317E+05
 0.70502998E+02 -0.10224E+05
 0.70553001E+02 -0.10659E+05
 0.70603004E+02 -0.10873E+05
 0.70653000E+02 -0.10891E+05
 0.70703003E+02 -0.10429E+05
 0.70752998E+02 -0.93197E+04
 0.70803001E+02 -0.84543E+04
 0.70853004E+02 -0.85916E+04
 0.70903000E+02 -0.90879E+04
 0.70953003E+02 -0.89916E+04
 0.71002998E+02 -0.92868E+04
 0.71053001E+02 -0.99957E+04
 0.71103004E+02 -0.97110E+04
 0.71153000E+02 -0.93762E+04
 0.71203003E+02 -0.10315E+05
 0.71252998E+02 -0.10905E+05
 0.71303001E+02 -0.10508E+05
 0.71353004E+02 -0.10080E+05
 0.71403000E+02 -0.99727E+04
 0.71453003E+02 -0.99551E+04
 0.71502998E+02 -0.93252E+04
 0.71553001E+02 -0.84234E+04
 0.71603004E+02 -0.88990E+04
 0.71653000E+02 -0.10039E+05
 0.71703003E+02 -0.99442E+04
 0.71752998E+02 -0.10285E+05
 0.71803001E+02 -0.11311E+05
 0.71853004E+02 -0.10985E+05
 0.71903000E+02 -0.10022E+05
 0.71953003E+02 -0.98886E+04
 0.72002998E+02 -0.10413E+05
 0.72053001E+02 -0.10649E+05
 0.72103004E+02 -0.10448E+05
 0.72153000E+02 -0.97007E+04
 0.72203003E+02 -0.95843E+04
 0.72252998E+02 -0.10356E+05
 0.72303001E+02 -0.10995E+05
 0.72353004E+02 -0.10838E+05
 0.72403000E+02 -0.10421E+05
 0.72453003E+02 -0.10482E+05
 0.72502998E+02 -0.10617E+05
 0.72553001E+02 -0.10409E+05
 0.72603004E+02 -0.99379E+04
 0.72653000E+02 -0.95524E+04
 0.72703003E+02 -0.93291E+04
 0.72752998E+02 -0.93893E+04
 0.72803001E+02 -0.96340E+04
 0.72853004E+02 -0.10198E+05
 0.72903000E+02 -0.10769E+05
 0.72953003E+02 -0.11090E+05
 0.73002998E+02 -0.11255E+05
 0.73053001E+02 -0.11137E+05
 0.73103004E+02 -0.10708E+05
 0.73153000E+02 -0.10331E+05
 0.73203003E+02 -0.10475E+05
 0.73252998E+02 -0.10429E+05
 0.73303001E+02 -0.98029E+04
 0.73353004E+02 -0.99151E+04
 0.73403000E+02 -0.10201E+05
 0.73453003E+02 -0.98635E+04
 0.73502998E+02 -0.95721E+04
 0.73553001E+02 -0.98890E+04
 0.73603004E+02 -0.10266E+05
 0.73653000E+02 -0.10073E+05
 0.73703003E+02 -0.96925E+04
 0.73752998E+02 -0.95774E+04
 0.73803001E+02 -0.10041E+05
 0.73853004E+02 -0.10008E+05
 0.73903000E+02 -0.95959E+04
 0.73953003E+02 -0.96048E+04
 0.74002998E+02 -0.97207E+04
 0.74053001E+02 -0.10066E+05
 0.74103004E+02 -0.10566E+05
 0.74153000E+02 -0.10432E+05
 0.74203003E+02 -0.99231E+04
 0.74252998E+02 -0.97915E+04
 0.74303001E+02 -0.97841E+04
 0.74353004E+02 -0.97358E+04
 0.74403000E+02 -0.97939E+04
 0.74453003E+02 -0.98241E+04
 0.74502998E+02 -0.97573E+04
 0.74553001E+02 -0.96166E+04
 0.74603004E+02 -0.96493E+04
 0.74653000E+02 -0.96998E+04
 0.74703003E+02 -0.95985E+04
 0.74752998E+02 -0.10127E+05
 0.74803001E+02 -0.10874E+05
 0.74853004E+02 -0.10776E+05
 0.74903000E+02 -0.10266E+05
 0.74953003E+02 -0.10035E+05
 0.75002998E+02 -0.10096E+05
 0.75053001E+02 -0.10253E+05
 0.75103004E+02 -0.10405E+05
 0.75153000E+02 -0.10423E+05
 0.75203003E+02 -0.10231E+05
 0.75252998E+02 -0.10399E+05
 0.75303001E+02 -0.10694E+05
 0.75353004E+02 -0.10600E+05
 0.75403000E+02 -0.10254E+05
 0.75453003E+02 -0.99860E+04
 0.75502998E+02 -0.99864E+04
 0.75553001E+02 -0.99335E+04
 0.75603004E+02 -0.94509E+04
 0.75653000E+02 -0.94074E+04
 0.75703003E+02 -0.98222E+04
 0.75752998E+02 -0.99993E+04
 0.75803001E+02 -0.10089E+05
 0.75853004E+02 -0.99833E+04
 0.75903000E+02 -0.10026E+05
 0.75953003E+02 -0.98073E+04
 0.76002998E+02 -0.95881E+04
 0.76053001E+02 -0.98079E+04
 0.76103004E+02 -0.98824E+04
 0.76153000E+02 -0.97967E+04
 0.76203003E+02 -0.99916E+04
 0.76252998E+02 -0.10409E+05
 0.76303001E+02 -0.10847E+05
 0.76353004E+02 -0.10784E+05
 0.76403000E+02 -0.10627E+05
 0.76453003E+02 -0.11058E+05
 0.76502998E+02 -0.11084E+05
 0.76553001E+02 -0.10536E+05
 0.76603004E+02 -0.10281E+05
 0.76653000E+02 -0.10225E+05
 0.76703003E+02 -0.10006E+05
 0.76752998E+02 -0.98853E+04
 0.76803001E+02 -0.99876E+04
 0.76853004E+02 -0.99553E+04
 0.76903000E+02 -0.98773E+04
 0.76953003E+02 -0.10137E+05
 0.77002998E+02 -0.10538E+05
 0.77053001E+02 -0.10835E+05
 0.77103004E+02 -0.10678E+05
 0.77153000E+02 -0.10634E+05
 0.77203003E+02 -0.10478E+05
 0.77252998E+02 -0.99900E+04
 0.77303001E+02 -0.96046E+04
 0.77353004E+02 -0.96934E+04
 0.77403000E+02 -0.97047E+04
 0.77453003E+02 -0.94850E+04
 0.77502998E+02 -0.94728E+04
 0.77553001E+02 -0.94054E+04
 0.77603004E+02 -0.96202E+04
 0.77653000E+02 -0.98500E+04
 0.77703003E+02 -0.99654E+04
 0.77752998E+02 -0.10081E+05
 0.77803001E+02 -0.99764E+04
 0.77853004E+02 -0.97326E+04
 0.77903000E+02 -0.10232E+05
 0.77953003E+02 -0.10683E+05
 0.78002998E+02 -0.10389E+05
 0.78053001E+02 -0.10043E+05
 0.78103004E+02 -0.97960E+04
 0.78153000E+02 -0.97628E+04
 0.78203003E+02 -0.99392E+04
 0.78252998E+02 -0.10276E+05
 0.78303001E+02 -0.10537E+05
 0.78353004E+02 -0.10336E+05
 0.78403000E+02 -0.99530E+04
 0.78453003E+02 -0.98138E+04
 0.78502998E+02 -0.98873E+04
 0.78553001E+02 -0.10094E+05
 0.78603004E+02 -0.10286E+05
 0.78653000E+02 -0.10358E+05
 0.78703003E+02 -0.10300E+05
 0.78752998E+02 -0.10037E+05
 0.78803001E+02 -0.95767E+04
 0.78853004E+02 -0.93143E+04
 0.78903000E+02 -0.96055E+04
 0.78953003E+02 -0.10133E+05
 0.79002998E+02 -0.10399E+05
 0.79053001E+02 -0.10216E+05
 0.79103004E+02 -0.99924E+04
 0.79153000E+02 -0.10259E+05
 0.79203003E+02 -0.10630E+05
 0.79252998E+02 -0.10592E+05
 0.79303001E+02 -0.10262E+05
 0.79353004E+02 -0.10152E+05
 0.79403000E+02 -0.10454E+05
 0.79453003E+02 -0.10674E+05
 0.79502998E+02 -0.10513E+05
 0.79553001E+02 -0.10252E+05
 0.79603004E+02 -0.98661E+04
 0.79653000E+02 -0.97725E+04
 0.79703003E+02 -0.10203E+05
 0.79752998E+02 -0.10270E+05
 0.79803001E+02 -0.10085E+05
 0.79853004E+02 -0.10095E+05
 0.79903000E+02 -0.10312E+05
 0.79953003E+02 -0.10459E+05
 0.80002998E+02 -0.99928E+04
 0.80053001E+02 -0.95530E+04
 0.80103004E+02 -0.96295E+04
 0.80153000E+02 -0.97248E+04
 0.80203003E+02 -0.97973E+04
 0.80252998E+02 -0.98776E+04
 0.80303001E+02 -0.98268E+04
 0.80353004E+02 -0.96367E+04
 0.80403000E+02 -0.94751E+04
 0.80453003E+02 -0.96389E+04
 0.80502998E+02 -0.99890E+04
 0.80553001E+02 -0.10106E+05
 0.80603004E+02 -0.10255E+05
 0.80653000E+02 -0.10615E+05
 0.80703003E+02 -0.10567E+05
 0.80752998E+02 -0.10259E+05
 0.80803001E+02 -0.10152E+05
 0.80853004E+02 -0.10017E+05
 0.80903000E+02 -0.10207E+05
 0.80953003E+02 -0.10422E+05
 0.81002998E+02 -0.10030E+05
 0.81053001E+02 -0.98240E+04
 0.81103004E+02 -0.10153E+05
 0.81153000E+02 -0.10512E+05
 0.81203003E+02 -0.10545E+05
 0.81252998E+02 -0.10476E+05
 0.81303001E+02 -0.10609E+05
 0.81353004E+02 -0.10652E+05
 0.81403000E+02 -0.10413E+05
 0.81453003E+02 -0.10401E+05
 0.81502998E+02 -0.10607E+05
 0.81553001E+02 -0.10560E+05
 0.81603004E+02 -0.10348E+05
 0.81653000E+02 -0.10180E+05
 0.81703003E+02 -0.99933E+04
 0.81752998E+02 -0.97035E+04
 0.81803001E+02 -0.93565E+04
 0.81853004E+02 -0.93457E+04
 0.81903000E+02 -0.94793E+04
 0.81953003E+02 -0.95339E+04
 0.82002998E+02 -0.96353E+04
 0.82053001E+02 -0.97207E+04
 0.82103004E+02 -0.98374E+04
 0.82153000E+02 -0.97452E+04
 0.82203003E+02 -0.95863E+04
 0.82252998E+02 -0.95378E+04
 0.82303001E+02 -0.98347E+04
 0.82353004E+02 -0.10220E+05
 0.82403000E+02 -0.10513E+05
 0.82453003E+02 -0.10517E+05
 0.82502998E+02 -0.10274E+05
 0.82553001E+02 -0.10101E+05
 0.82603004E+02 -0.98953E+04
 0.82653000E+02 -0.96895E+04
 0.82703003E+02 -0.95374E+04
 0.82752998E+02 -0.96764E+04
 0.82803001E+02 -0.99669E+04
 0.82853004E+02 -0.10213E+05
 0.82903000E+02 -0.10414E+05
 0.82953003E+02 -0.10555E+05
 0.83002998E+02 -0.10566E+05
 0.83053001E+02 -0.10411E+05
 0.83103004E+02 -0.10301E+05
 0.83153000E+02 -0.10392E+05
 0.83203003E+02 -0.10496E+05
 0.83252998E+02 -0.10534E+05
 0.83303001E+02 -0.10500E+05
 0.83353004E+02 -0.10460E+05
 0.83403000E+02 -0.10374E+05
 0.83453003E+02 -0.10257E+05
 0.83502998E+02 -0.10065E+05
 0.83553001E+02 -0.10115E+05
 0.83603004E+02 -0.10378E+05
 0.83653000E+02 -0.10393E+05
 0.83703003E+02 -0.10301E+05
 0.83752998E+02 -0.10188E+05
 0.83803001E+02 -0.10490E+05
 0.83853004E+02 -0.10776E+05
 0.83903000E+02 -0.10575E+05
 0.83953003E+02 -0.10197E+05
 0.84002998E+02 -0.10023E+05
 0.84053001E+02 -0.10218E+05
 0.84103004E+02 -0.10446E+05
 0.84153000E+02 -0.10498E+05
 0.84203003E+02 -0.10044E+05
 0.84252998E+02 -0.96628E+04
 0.84303001E+02 -0.97515E+04
 0.84353004E+02 -0.97913E+04
 0.84403000E+02 -0.96475E+04
 0.84453003E+02 -0.96232E+04
 0.84502998E+02 -0.98973E+04
 0.84553001E+02 -0.10106E+05
 0.84603004E+02 -0.10047E+05
 0.84653000E+02 -0.98981E+04
 0.84703003E+02 -0.98481E+04
 0.84752998E+02 -0.98829E+04
 0.84803001E+02 -0.99813E+04
 0.84853004E+02 -0.10134E+05
 0.84903000E+02 -0.10141E+05
 0.84953003E+02 -0.10014E+05
 0.85002998E+02 -0.99560E+04
 0.85053001E+02 -0.98129E+04
 0.85103004E+02 -0.98568E+04
 0.85153000E+02 -0.10278E+05
 0.85203003E+02 -0.10389E+05
 0.85252998E+02 -0.10149E+05
 0.85303001E+02 -0.10152E+05
 0.85353004E+02 -0.10123E+05
 0.85403000E+02 -0.99555E+04
 0.85453003E+02 -0.10048E+05
 0.85502998E+02 -0.10087E+05
 0.85553001E+02 -0.98670E+04
 0.85603004E+02 -0.98426E+04
 0.85653000E+02 -0.10047E+05
 0.85703003E+02 -0.10053E+05
 0.85752998E+02 -0.99266E+04
 0.85803001E+02 -0.98684E+04
 0.85853004E+02 -0.10177E+05
 0.85903000E+02 -0.10433E+05
 0.85953003E+02 -0.10147E+05
 0.86002998E+02 -0.98382E+04
 0.86053001E+02 -0.98292E+04
 0.86103004E+02 -0.98848E+04
 0.86153000E+02 -0.97937E+04
 0.86203003E+02 -0.98591E+04
 0.86252998E+02 -0.10105E+05
 0.86303001E+02 -0.10166E+05
 0.86353004E+02 -0.10108E+05
 0.86403000E+02 -0.10217E+05
 0.86453003E+02 -0.10365E+05
 0.86502998E+02 -0.10245E+05
 0.86553001E+02 -0.10222E+05
 0.86603004E+02 -0.10387E+05
 0.86653000E+02 -0.10317E+05
 0.86703003E+02 -0.10135E+05
 0.86752998E+02 -0.10341E+05
 0.86803001E+02 -0.10809E+05
 0.86853004E+02 -0.10778E+05
 0.86903000E+02 -0.10320E+05
 0.86953003E+02 -0.10314E+05
 0.87002998E+02 -0.10693E+05
 0.87053001E+02 -0.10685E+05
 0.87103004E+02 -0.10176E+05
 0.87153000E+02 -0.97649E+04
 0.87203003E+02 -0.10014E+05
 0.87252998E+02 -0.10385E+05
 0.87303001E+02 -0.10345E+05
 0.87353004E+02 -0.10121E+05
 0.87403000E+02 -0.99716E+04
 0.87453003E+02 -0.99085E+04
 0.87502998E+02 -0.98862E+04
 0.87553001E+02 -0.96857E+04
 0.87602997E+02 -0.94753E+04
 0.87653000E+02 -0.96808E+04
 0.87703003E+02 -0.10022E+05
 0.87752998E+02 -0.10147E+05
 0.87803001E+02 -0.10138E+05
 0.87852997E+02 -0.10203E+05
 0.87903000E+02 -0.10139E+05
 0.87953003E+02 -0.99220E+04
 0.88002998E+02 -0.98712E+04
 0.88053001E+02 -0.10026E+05
 0.88102997E+02 -0.10138E+05
 0.88153000E+02 -0.98714E+04
 0.88203003E+02 -0.96450E+04
 0.88252998E+02 -0.97603E+04
 0.88303001E+02 -0.99172E+04
 0.88352997E+02 -0.98307E+04
 0.88403000E+02 -0.95354E+04
 0.88453003E+02 -0.93692E+04
 0.88502998E+02 -0.93541E+04
 0.88553001E+02 -0.95039E+04
 0.88602997E+02 -0.97838E+04
 0.88653000E+02 -0.98210E+04
 0.88703003E+02 -0.97714E+04
 0.88752998E+02 -0.10114E+05
 0.88803001E+02 -0.10525E+05
 0.88852997E+02 -0.10527E+05
 0.88903000E+02 -0.10411E+05
 0.88953003E+02 -0.10412E+05
 0.89002998E+02 -0.10488E+05
 0.89053001E+02 -0.10739E+05
 0.89102997E+02 -0.10734E+05
 0.89153000E+02 -0.10442E+05
 0.89203003E+02 -0.10273E+05
 0.89252998E+02 -0.10251E+05
 0.89303001E+02 -0.10156E+05
 0.89352997E+02 -0.10232E+05
 0.89403000E+02 -0.10452E+05
 0.89453003E+02 -0.10497E+05
 0.89502998E+02 -0.10403E+05
 0.89553001E+02 -0.10365E+05
 0.89602997E+02 -0.10569E+05
 0.89653000E+02 -0.10545E+05
 0.89703003E+02 -0.10368E+05
 0.89752998E+02 -0.10308E+05
 0.89803001E+02 -0.10293E+05
 0.89852997E+02 -0.10232E+05
 0.89903000E+02 -0.10166E+05
 0.89953003E+02 -0.99448E+04
 0.90002998E+02 -0.97477E+04
 0.90053001E+02 -0.98693E+04
 0.90102997E+02 -0.10080E+05
 0.90153000E+02 -0.10178E+05
 0.90203003E+02 -0.10078E+05
 0.90252998E+02 -0.10137E+05
 0.90303001E+02 -0.10067E+05
 0.90352997E+02 -0.99215E+04
 0.90403000E+02 -0.99355E+04
 0.90453003E+02 -0.99081E+04
 0.90502998E+02 -0.99437E+04
 0.90553001E+02 -0.98577E+04
 0.90602997E+02 -0.98185E+04
 0.90653000E+02 -0.99797E+04
 0.90703003E+02 -0.10111E+05
 0.90752998E+02 -0.99181E+04
 0.90803001E+02 -0.96110E+04
 0.90852997E+02 -0.97040E+04
 0.90903000E+02 -0.99336E+04
 0.90953003E+02 -0.99886E+04
 0.91002998E+02 -0.98649E+04
 0.91053001E+02 -0.96754E+04
 0.91102997E+02 -0.97126E+04
 0.91153000E+02 -0.10090E+05
 0.91203003E+02 -0.10403E+05
 0.91252998E+02 -0.10444E+05
 0.91303001E+02 -0.10497E+05
 0.91352997E+02 -0.10453E+05
 0.91403000E+02 -0.10310E+05
 0.91453003E+02 -0.10253E+05
 0.91502998E+02 -0.10258E+05
 0.91553001E+02 -0.10169E+05
 0.91602997E+02 -0.10186E+05
 0.91653000E+02 -0.10361E+05
 0.91703003E+02 -0.10300E+05
 0.91752998E+02 -0.10137E+05
 0.91803001E+02 -0.10026E+05
 0.91852997E+02 -0.99912E+04
 0.91903000E+02 -0.99824E+04
 0.91953003E+02 -0.99639E+04
 0.92002998E+02 -0.10093E+05
 0.92053001E+02 -0.10133E+05
 0.92102997E+02 -0.10028E+05
 0.92153000E+02 -0.99871E+04
 0.92203003E+02 -0.10146E+05
 0.92252998E+02 -0.10182E+05
 0.92303001E+02 -0.99186E+04
 0.92352997E+02 -0.98529E+04
 0.92403000E+02 -0.98958E+04
 0.92453003E+02 -0.99858E+04
 0.92502998E+02 -0.10143E+05
 0.92553001E+02 -0.10354E+05
 0.92602997E+02 -0.10633E+05
 0.92653000E+02 -0.10716E+05
 0.92703003E+02 -0.10625E+05
 0.92752998E+02 -0.10483E+05
 0.92803001E+02 -0.10332E+05
 0.92852997E+02 -0.10145E+05
 0.92903000E+02 -0.10132E+05
 0.92953003E+02 -0.10302E+05
 0.93002998E+02 -0.10155E+05
 0.93053001E+02 -0.98927E+04
 0.93102997E+02 -0.10071E+05
 0.93153000E+02 -0.10249E+05
 0.93203003E+02 -0.10131E+05
 0.93252998E+02 -0.98357E+04
 0.93303001E+02 -0.96062E+04
 0.93352997E+02 -0.97651E+04
 0.93403000E+02 -0.10120E+05
 0.93453003E+02 -0.10198E+05
 0.93502998E+02 -0.10021E+05
 0.93553001E+02 -0.99678E+04
 0.93602997E+02 -0.99871E+04
 0.93653000E+02 -0.10037E+05
 0.93703003E+02 -0.99380E+04
 0.93752998E+02 -0.96357E+04
 0.93803001E+02 -0.94930E+04
 0.93852997E+02 -0.95726E+04
 0.93903000E+02 -0.94697E+04
 0.93953003E+02 -0.94735E+04
 0.94002998E+02 -0.98084E+04
 0.94053001E+02 -0.10078E+05
 0.94102997E+02 -0.10329E+05
 0.94153000E+02 -0.10506E+05
 0.94203003E+02 -0.10489E+05
 0.94252998E+02 -0.10547E+05
 0.94303001E+02 -0.10694E+05
 0.94352997E+02 -0.10665E+05
 0.94403000E+02 -0.10481E+05
 0.94453003E+02 -0.10314E+05
 0.94502998E+02 -0.10367E+05
 0.94553001E+02 -0.10385E+05
 0.94602997E+02 -0.10250E+05
 0.94653000E+02 -0.10069E+05
 0.94703003E+02 -0.99311E+04
 0.94752998E+02 -0.98981E+04
 0.94803001E+02 -0.97551E+04
 0.94852997E+02 -0.96175E+04
 0.94903000E+02 -0.96046E+04
 0.94953003E+02 -0.97029E+04
 0.95002998E+02 -0.99403E+04
 0.95053001E+02 -0.10140E+05
 0.95102997E+02 -0.10286E+05
 0.95153000E+02 -0.10266E+05
 0.95203003E+02 -0.10082E+05
 0.95252998E+02 -0.10017E+05
 0.95303001E+02 -0.10101E+05
 0.95352997E+02 -0.10142E+05
 0.95403000E+02 -0.10048E+05
 0.95453003E+02 -0.99491E+04
 0.95502998E+02 -0.99849E+04
 0.95553001E+02 -0.10159E+05
 0.95602997E+02 -0.10248E+05
 0.95653000E+02 -0.10155E+05
 0.95703003E+02 -0.10048E+05
 0.95752998E+02 -0.10033E+05
 0.95803001E+02 -0.10106E+05
 0.95852997E+02 -0.10163E+05
 0.95903000E+02 -0.10115E+05
 0.95953003E+02 -0.10100E+05
 0.96002998E+02 -0.10181E+05
 0.96053001E+02 -0.10279E+05
 0.96102997E+02 -0.10387E+05
 0.96153000E+02 -0.10456E+05
 0.96203003E+02 -0.10387E+05
 0.96252998E+02 -0.10357E+05
 0.96303001E+02 -0.10396E+05
 0.96352997E+02 -0.10433E+05
 0.96403000E+02 -0.10393E+05
 0.96453003E+02 -0.10246E+05
 0.96502998E+02 -0.10134E+05
 0.96553001E+02 -0.10196E+05
 0.96602997E+02 -0.10224E+05
 0.96653000E+02 -0.99816E+04
 0.96703003E+02 -0.97255E+04
 0.96752998E+02 -0.97074E+04
 0.96803001E+02 -0.97474E+04
 0.96852997E+02 -0.96566E+04
 0.96903000E+02 -0.95264E+04
 0.96953003E+02 -0.96222E+04
 0.97002998E+02 -0.99850E+04
 0.97053001E+02 -0.10275E+05
 0.97102997E+02 -0.10439E+05
 0.97153000E+02 -0.10458E+05
 0.97203003E+02 -0.10416E+05
 0.97252998E+02 -0.10435E+05
 0.97303001E+02 -0.10380E+05
 0.97352997E+02 -0.10210E+05
 0.97403000E+02 -0.10131E+05
 0.97453003E+02 -0.10126E+05
 0.97502998E+02 -0.10129E+05
 0.97553001E+02 -0.10243E+05
 0.97602997E+02 -0.10283E+05
 0.97653000E+02 -0.10129E+05
 0.97703003E+02 -0.99482E+04
 0.97752998E+02 -0.99162E+04
 0.97803001E+02 -0.99816E+04
 0.97852997E+02 -0.10089E+05
 0.97903000E+02 -0.10113E+05
 0.97953003E+02 -0.10058E+05
 0.98002998E+02 -0.99927E+04
