-0.20000000E+01 -0.88006E+04
-0.19500000E+01  0.68780E+04
-0.19000000E+01  0.20701E+05
-0.18500000E+01  0.33685E+05
-0.18000000E+01  0.45127E+05
-0.17500000E+01  0.54825E+05
-0.17000000E+01  0.62856E+05
-0.16500001E+01  0.69125E+05
-0.16000000E+01  0.72905E+05
-0.15500000E+01  0.73774E+05
-0.15000000E+01  0.72582E+05
-0.14500000E+01  0.70481E+05
-0.14000001E+01  0.68619E+05
-0.13500000E+01  0.66799E+05
-0.13000001E+01  0.64672E+05
-0.12500000E+01  0.62404E+05
-0.12000000E+01  0.60341E+05
-0.11500001E+01  0.58613E+05
-0.11000000E+01  0.57115E+05
-0.10500001E+01  0.56107E+05
-0.10000000E+01  0.56036E+05
-0.95000005E+00  0.57246E+05
-0.90000010E+00  0.59893E+05
-0.85000002E+00  0.63830E+05
-0.80000007E+00  0.68562E+05
-0.75000012E+00  0.73720E+05
-0.70000005E+00  0.78453E+05
-0.65000010E+00  0.81830E+05
-0.60000014E+00  0.83086E+05
-0.55000007E+00  0.81880E+05
-0.50000012E+00  0.78579E+05
-0.45000005E+00  0.73336E+05
-0.40000010E+00  0.66139E+05
-0.35000014E+00  0.57023E+05
-0.30000007E+00  0.46364E+05
-0.25000012E+00  0.34654E+05
-0.20000005E+00  0.21664E+05
-0.15000010E+00  0.77510E+04
-0.10000014E+00 -0.60865E+04
-0.50000072E-01 -0.18894E+05
-0.11920929E-06 -0.29732E+05
 0.49999952E-01 -0.38588E+05
 0.99999905E-01 -0.45236E+05
 0.14999986E+00 -0.49290E+05
 0.19999981E+00 -0.50492E+05
 0.24999976E+00 -0.48738E+05
 0.29999995E+00 -0.44486E+05
 0.34999990E+00 -0.38206E+05
 0.39999986E+00 -0.30699E+05
 0.44999981E+00 -0.22418E+05
 0.49999976E+00 -0.13574E+05
 0.54999995E+00 -0.50417E+04
 0.59999990E+00  0.32500E+04
 0.64999986E+00  0.11254E+05
 0.69999981E+00  0.18393E+05
 0.74999976E+00  0.24282E+05
 0.79999971E+00  0.28265E+05
 0.84999990E+00  0.30882E+05
 0.89999986E+00  0.32477E+05
 0.94999981E+00  0.33334E+05
 0.99999976E+00  0.33288E+05
 0.10499997E+01  0.31979E+05
 0.10999999E+01  0.29254E+05
 0.11499999E+01  0.24747E+05
 0.11999998E+01  0.19287E+05
 0.12499998E+01  0.13665E+05
 0.12999997E+01  0.89779E+04
 0.13499999E+01  0.56561E+04
 0.13999999E+01  0.32193E+04
 0.14499998E+01  0.15011E+04
 0.14999998E+01 -0.23510E+03
 0.15499997E+01 -0.21483E+04
 0.15999999E+01 -0.41623E+04
 0.16499999E+01 -0.66926E+04
 0.16999998E+01 -0.98279E+04
 0.17499998E+01 -0.13961E+05
 0.17999997E+01 -0.18927E+05
 0.18499997E+01 -0.24288E+05
 0.18999999E+01 -0.29657E+05
 0.19499998E+01 -0.34464E+05
 0.19999998E+01 -0.38387E+05
 0.20499997E+01 -0.41234E+05
 0.20999999E+01 -0.42846E+05
 0.21499996E+01 -0.43007E+05
 0.21999998E+01 -0.41769E+05
 0.22499995E+01 -0.38951E+05
 0.22999997E+01 -0.34557E+05
 0.23499999E+01 -0.28457E+05
 0.23999996E+01 -0.20682E+05
 0.24499998E+01 -0.11856E+05
 0.24999995E+01 -0.26705E+04
 0.25499997E+01  0.63329E+04
 0.25999999E+01  0.15062E+05
 0.26499996E+01  0.23107E+05
 0.26999998E+01  0.29958E+05
 0.27499995E+01  0.35709E+05
 0.27999997E+01  0.40746E+05
 0.28499999E+01  0.45611E+05
 0.28999996E+01  0.50605E+05
 0.29499998E+01  0.56133E+05
 0.29999995E+01  0.62389E+05
 0.30499997E+01  0.69162E+05
 0.30999999E+01  0.76468E+05
 0.31499996E+01  0.84284E+05
 0.31999998E+01  0.92761E+05
 0.32499995E+01  0.10194E+06
 0.32999997E+01  0.11149E+06
 0.33499999E+01  0.12089E+06
 0.33999996E+01  0.12943E+06
 0.34499998E+01  0.13642E+06
 0.34999995E+01  0.14150E+06
 0.35499997E+01  0.14400E+06
 0.35999994E+01  0.14371E+06
 0.36499996E+01  0.14079E+06
 0.36999998E+01  0.13580E+06
 0.37499995E+01  0.12878E+06
 0.37999997E+01  0.11924E+06
 0.38499994E+01  0.10780E+06
 0.38999996E+01  0.94909E+05
 0.39499998E+01  0.81347E+05
 0.39999995E+01  0.67715E+05
 0.40499997E+01  0.54284E+05
 0.40999994E+01  0.41421E+05
 0.41499996E+01  0.29422E+05
 0.41999998E+01  0.18446E+05
 0.42499995E+01  0.84590E+04
 0.42999997E+01 -0.61311E+03
 0.43499994E+01 -0.87504E+04
 0.43999996E+01 -0.16169E+05
 0.44499998E+01 -0.23349E+05
 0.44999995E+01 -0.30574E+05
 0.45499997E+01 -0.37588E+05
 0.45999994E+01 -0.43819E+05
 0.46499996E+01 -0.49476E+05
 0.46999998E+01 -0.54512E+05
 0.47499995E+01 -0.58591E+05
 0.47999997E+01 -0.61354E+05
 0.48499994E+01 -0.62257E+05
 0.48999996E+01 -0.61384E+05
 0.49499998E+01 -0.59028E+05
 0.49999995E+01 -0.55393E+05
 0.50499997E+01 -0.50651E+05
 0.50999994E+01 -0.45128E+05
 0.51499996E+01 -0.39532E+05
 0.51999998E+01 -0.34103E+05
 0.52499995E+01 -0.29259E+05
 0.52999997E+01 -0.24783E+05
 0.53499994E+01 -0.20207E+05
 0.53999996E+01 -0.15820E+05
 0.54499993E+01 -0.11421E+05
 0.54999995E+01 -0.66616E+04
 0.55499997E+01 -0.15336E+04
 0.55999994E+01  0.36857E+04
 0.56499996E+01  0.89512E+04
 0.56999993E+01  0.14119E+05
 0.57499995E+01  0.18652E+05
 0.57999997E+01  0.22170E+05
 0.58499994E+01  0.24182E+05
 0.58999996E+01  0.24570E+05
 0.59499993E+01  0.23400E+05
 0.59999995E+01  0.20720E+05
 0.60499992E+01  0.16896E+05
 0.60999994E+01  0.11728E+05
 0.61499996E+01  0.50310E+04
 0.61999998E+01 -0.32592E+04
 0.62499990E+01 -0.12661E+05
 0.62999992E+01 -0.22567E+05
 0.63499994E+01 -0.32546E+05
 0.63999996E+01 -0.41899E+05
 0.64499998E+01 -0.50267E+05
 0.64999990E+01 -0.57420E+05
 0.65499992E+01 -0.63239E+05
 0.65999994E+01 -0.67978E+05
 0.66499996E+01 -0.71561E+05
 0.66999998E+01 -0.73609E+05
 0.67499990E+01 -0.73761E+05
 0.67999992E+01 -0.71817E+05
 0.68499994E+01 -0.68030E+05
 0.68999996E+01 -0.62441E+05
 0.69499998E+01 -0.55388E+05
 0.69999990E+01 -0.47399E+05
 0.70499992E+01 -0.38927E+05
 0.70999994E+01 -0.30476E+05
 0.71499996E+01 -0.22636E+05
 0.71999998E+01 -0.15891E+05
 0.72499990E+01 -0.10636E+05
 0.72999992E+01 -0.71528E+04
 0.73499994E+01 -0.49077E+04
 0.73999996E+01 -0.30868E+04
 0.74499998E+01 -0.12442E+04
 0.74999990E+01  0.32419E+03
 0.75499992E+01  0.16936E+04
 0.75999994E+01  0.28936E+04
 0.76499996E+01  0.41124E+04
 0.76999998E+01  0.61076E+04
 0.77499990E+01  0.86598E+04
 0.77999992E+01  0.11456E+05
 0.78499994E+01  0.14041E+05
 0.78999996E+01  0.15849E+05
 0.79499998E+01  0.16563E+05
 0.79999990E+01  0.16154E+05
 0.80499992E+01  0.15174E+05
 0.80999994E+01  0.14177E+05
 0.81499996E+01  0.13416E+05
 0.81999998E+01  0.12876E+05
 0.82499990E+01  0.12764E+05
 0.82999992E+01  0.13065E+05
 0.83499994E+01  0.13934E+05
 0.83999996E+01  0.15675E+05
 0.84499998E+01  0.17723E+05
 0.84999990E+01  0.19686E+05
 0.85499992E+01  0.21463E+05
 0.85999994E+01  0.23032E+05
 0.86499996E+01  0.24612E+05
 0.86999998E+01  0.25960E+05
 0.87499990E+01  0.26734E+05
 0.87999992E+01  0.26809E+05
 0.88499994E+01  0.26522E+05
 0.88999996E+01  0.26303E+05
 0.89499998E+01  0.25857E+05
 0.89999990E+01  0.25138E+05
 0.90499992E+01  0.24008E+05
 0.90999994E+01  0.22646E+05
 0.91499996E+01  0.21361E+05
 0.91999989E+01  0.20017E+05
 0.92499990E+01  0.18855E+05
 0.92999992E+01  0.17799E+05
 0.93499994E+01  0.17055E+05
 0.93999996E+01  0.16780E+05
 0.94499989E+01  0.16733E+05
 0.94999990E+01  0.16775E+05
 0.95499992E+01  0.16662E+05
 0.95999994E+01  0.16460E+05
 0.96499996E+01  0.15964E+05
 0.96999989E+01  0.14852E+05
 0.97499990E+01  0.13223E+05
 0.97999992E+01  0.10956E+05
 0.98499994E+01  0.79028E+04
 0.98999996E+01  0.43051E+04
 0.99499989E+01  0.68560E+03
 0.99999990E+01 -0.25900E+04
 0.10049999E+02 -0.51965E+04
 0.10099999E+02 -0.69778E+04
 0.10150000E+02 -0.81255E+04
 0.10199999E+02 -0.83366E+04
 0.10249999E+02 -0.73916E+04
 0.10299999E+02 -0.50857E+04
 0.10349999E+02 -0.13799E+04
 0.10400000E+02  0.30019E+04
 0.10449999E+02  0.73569E+04
 0.10499999E+02  0.11337E+05
 0.10549999E+02  0.15030E+05
 0.10599999E+02  0.18500E+05
 0.10650000E+02  0.21564E+05
 0.10699999E+02  0.23967E+05
 0.10749999E+02  0.24821E+05
 0.10799999E+02  0.23572E+05
 0.10849999E+02  0.20189E+05
 0.10900000E+02  0.14857E+05
 0.10949999E+02  0.82930E+04
 0.10999999E+02  0.75854E+03
 0.11049999E+02 -0.74202E+04
 0.11099999E+02 -0.15766E+05
 0.11150000E+02 -0.23869E+05
 0.11199999E+02 -0.30921E+05
 0.11249999E+02 -0.36682E+05
 0.11299999E+02 -0.41128E+05
 0.11349999E+02 -0.44054E+05
 0.11400000E+02 -0.45084E+05
 0.11449999E+02 -0.43793E+05
 0.11499999E+02 -0.40190E+05
 0.11549999E+02 -0.34453E+05
 0.11599999E+02 -0.27094E+05
 0.11650000E+02 -0.18772E+05
 0.11699999E+02 -0.10163E+05
 0.11749999E+02 -0.19472E+04
 0.11799999E+02  0.55301E+04
 0.11849999E+02  0.11820E+05
 0.11900000E+02  0.16351E+05
 0.11949999E+02  0.19079E+05
 0.11999999E+02  0.19689E+05
 0.12049999E+02  0.17967E+05
 0.12099999E+02  0.14483E+05
 0.12150000E+02  0.99234E+04
 0.12199999E+02  0.50857E+04
 0.12249999E+02  0.57756E+03
 0.12299999E+02 -0.30648E+04
 0.12349999E+02 -0.50071E+04
 0.12400000E+02 -0.45313E+04
 0.12449999E+02 -0.18115E+04
 0.12499999E+02  0.29536E+04
 0.12549999E+02  0.97694E+04
 0.12599999E+02  0.18368E+05
 0.12649999E+02  0.28182E+05
 0.12699999E+02  0.38498E+05
 0.12749999E+02  0.48792E+05
 0.12799999E+02  0.58505E+05
 0.12849999E+02  0.67193E+05
 0.12899999E+02  0.74493E+05
 0.12949999E+02  0.80040E+05
 0.12999999E+02  0.83706E+05
 0.13049999E+02  0.85802E+05
 0.13099999E+02  0.86456E+05
 0.13149999E+02  0.85862E+05
 0.13199999E+02  0.84186E+05
 0.13249999E+02  0.81469E+05
 0.13299999E+02  0.78039E+05
 0.13349999E+02  0.74334E+05
 0.13399999E+02  0.70271E+05
 0.13449999E+02  0.65695E+05
 0.13499999E+02  0.60983E+05
 0.13549999E+02  0.56082E+05
 0.13599999E+02  0.51135E+05
 0.13649999E+02  0.46540E+05
 0.13699999E+02  0.42346E+05
 0.13749999E+02  0.38586E+05
 0.13799999E+02  0.35135E+05
 0.13849999E+02  0.31703E+05
 0.13899999E+02  0.27949E+05
 0.13949999E+02  0.23693E+05
 0.13999999E+02  0.18775E+05
 0.14049999E+02  0.13173E+05
 0.14099998E+02  0.72887E+04
 0.14150000E+02  0.11681E+04
 0.14199999E+02 -0.52625E+04
 0.14249998E+02 -0.12201E+05
 0.14299999E+02 -0.19444E+05
 0.14349998E+02 -0.26270E+05
 0.14400000E+02 -0.32448E+05
 0.14449999E+02 -0.37883E+05
 0.14499998E+02 -0.42782E+05
 0.14549999E+02 -0.47115E+05
 0.14599998E+02 -0.50444E+05
 0.14650000E+02 -0.52251E+05
 0.14699999E+02 -0.52137E+05
 0.14749998E+02 -0.50378E+05
 0.14799999E+02 -0.47392E+05
 0.14849998E+02 -0.43781E+05
 0.14900000E+02 -0.40467E+05
 0.14949999E+02 -0.37892E+05
 0.14999998E+02 -0.36193E+05
 0.15049999E+02 -0.35713E+05
 0.15099998E+02 -0.36346E+05
 0.15150000E+02 -0.37801E+05
 0.15199999E+02 -0.39790E+05
 0.15249998E+02 -0.41777E+05
 0.15299999E+02 -0.43793E+05
 0.15349998E+02 -0.45763E+05
 0.15400000E+02 -0.47739E+05
 0.15449999E+02 -0.49715E+05
 0.15499998E+02 -0.51640E+05
 0.15549999E+02 -0.53749E+05
 0.15599998E+02 -0.55863E+05
 0.15650000E+02 -0.57814E+05
 0.15699999E+02 -0.59427E+05
 0.15749998E+02 -0.60784E+05
 0.15799999E+02 -0.61531E+05
 0.15849998E+02 -0.61492E+05
 0.15900000E+02 -0.60805E+05
 0.15949999E+02 -0.59444E+05
 0.15999998E+02 -0.57854E+05
 0.16049999E+02 -0.55920E+05
 0.16099998E+02 -0.53410E+05
 0.16150000E+02 -0.49879E+05
 0.16199999E+02 -0.45172E+05
 0.16249998E+02 -0.39483E+05
 0.16299999E+02 -0.32971E+05
 0.16349998E+02 -0.25944E+05
 0.16400000E+02 -0.18381E+05
 0.16449999E+02 -0.10313E+05
 0.16499998E+02 -0.16904E+04
 0.16549999E+02  0.74495E+04
 0.16599998E+02  0.17040E+05
 0.16650000E+02  0.27057E+05
 0.16699999E+02  0.37523E+05
 0.16749998E+02  0.48191E+05
 0.16799999E+02  0.58773E+05
 0.16849998E+02  0.68975E+05
 0.16900000E+02  0.78601E+05
 0.16949999E+02  0.87341E+05
 0.16999998E+02  0.94964E+05
 0.17049999E+02  0.10153E+06
 0.17099998E+02  0.10698E+06
 0.17150000E+02  0.11147E+06
 0.17199999E+02  0.11520E+06
 0.17249998E+02  0.11821E+06
 0.17299999E+02  0.12028E+06
 0.17349998E+02  0.12114E+06
 0.17400000E+02  0.12068E+06
 0.17449999E+02  0.11893E+06
 0.17499998E+02  0.11597E+06
 0.17549999E+02  0.11237E+06
 0.17599998E+02  0.10825E+06
 0.17650000E+02  0.10341E+06
 0.17699999E+02  0.97466E+05
 0.17749998E+02  0.90127E+05
 0.17799999E+02  0.81488E+05
 0.17849998E+02  0.71516E+05
 0.17900000E+02  0.60534E+05
 0.17949999E+02  0.48604E+05
 0.17999998E+02  0.35639E+05
 0.18049999E+02  0.21753E+05
 0.18099998E+02  0.70428E+04
 0.18150000E+02 -0.82090E+04
 0.18199999E+02 -0.23956E+05
 0.18249998E+02 -0.40068E+05
 0.18299999E+02 -0.55903E+05
 0.18349998E+02 -0.70669E+05
 0.18400000E+02 -0.83551E+05
 0.18449999E+02 -0.94423E+05
 0.18499998E+02 -0.10305E+06
 0.18549999E+02 -0.10985E+06
 0.18599998E+02 -0.11503E+06
 0.18650000E+02 -0.11854E+06
 0.18699999E+02 -0.12080E+06
 0.18749998E+02 -0.12196E+06
 0.18799999E+02 -0.12163E+06
 0.18849998E+02 -0.11880E+06
 0.18900000E+02 -0.11172E+06
 0.18949999E+02 -0.10298E+06
 0.18999998E+02 -0.98166E+05
 0.19049999E+02 -0.93900E+05
 0.19099998E+02 -0.80113E+05
 0.19150000E+02 -0.65368E+05
 0.19199999E+02 -0.62982E+05
 0.19249998E+02 -0.61035E+05
 0.19299999E+02 -0.58078E+05
 0.19349998E+02 -0.45102E+05
 0.19400000E+02 -0.21770E+05
 0.19449999E+02  0.30459E+04
 0.19499998E+02  0.26857E+05
 0.19549999E+02  0.17469E+05
 0.19599998E+02  0.19146E+05
 0.19650000E+02  0.40138E+05
 0.19699999E+02  0.29983E+05
 0.19749998E+02  0.25911E+05
 0.19799999E+02  0.14160E+05
 0.19849998E+02  0.69361E+04
 0.19900000E+02  0.40965E+04
 0.19949999E+02 -0.36453E+05
 0.19999998E+02 -0.40707E+05
 0.20049999E+02  0.23271E+04
 0.20099998E+02  0.35418E+05
 0.20150000E+02  0.26781E+05
 0.20199999E+02  0.32958E+05
 0.20249998E+02  0.74775E+05
 0.20299999E+02  0.78276E+05
 0.20349998E+02  0.57356E+05
 0.20399998E+02  0.84289E+05
 0.20449999E+02  0.89959E+05
 0.20499998E+02  0.38129E+05
 0.20549999E+02  0.72366E+05
 0.20599998E+02  0.84366E+05
 0.20649998E+02  0.50607E+05
 0.20699999E+02  0.58051E+05
 0.20749998E+02  0.25756E+05
 0.20799999E+02  0.51791E+05
 0.20849998E+02  0.72056E+05
 0.20899998E+02  0.12595E+06
 0.20949999E+02  0.19656E+06
 0.20999998E+02  0.17236E+06
 0.21049999E+02  0.19699E+06
 0.21099998E+02  0.10130E+06
 0.21149998E+02  0.66212E+05
 0.21199999E+02  0.13222E+06
 0.21249998E+02  0.12869E+06
 0.21299999E+02  0.13685E+06
 0.21349998E+02  0.18093E+06
 0.21399998E+02  0.12703E+06
 0.21449999E+02  0.11762E+06
 0.21499998E+02  0.17097E+06
 0.21549999E+02  0.69910E+05
 0.21599998E+02  0.13428E+06
 0.21649998E+02  0.12482E+06
 0.21699999E+02  0.14645E+06
 0.21749998E+02  0.14098E+06
 0.21799999E+02  0.11365E+06
 0.21849998E+02  0.10524E+06
 0.21899998E+02  0.43844E+05
 0.21949999E+02  0.21049E+05
 0.21999998E+02  0.42128E+05
 0.22049999E+02 -0.20095E+05
 0.22099998E+02 -0.92406E+05
 0.22149998E+02 -0.76663E+04
 0.22199999E+02 -0.86848E+05
 0.22249998E+02 -0.18622E+05
 0.22299999E+02 -0.44657E+05
 0.22349998E+02 -0.19938E+05
 0.22399998E+02 -0.40536E+05
 0.22449999E+02 -0.11711E+06
 0.22499998E+02 -0.88879E+05
 0.22549999E+02 -0.85077E+05
 0.22599998E+02  0.20876E+05
 0.22649998E+02  0.42548E+05
 0.22699999E+02  0.17346E+05
 0.22749998E+02  0.65994E+05
 0.22799999E+02  0.11513E+05
 0.22849998E+02 -0.39826E+05
 0.22899998E+02 -0.46368E+05
 0.22949999E+02 -0.74389E+05
 0.22999998E+02  0.35109E+05
 0.23049999E+02 -0.71045E+05
 0.23099998E+02 -0.10516E+06
 0.23149998E+02 -0.90835E+05
 0.23199999E+02 -0.87550E+05
 0.23249998E+02 -0.17238E+05
 0.23299999E+02 -0.57064E+05
 0.23349998E+02 -0.17869E+06
 0.23399998E+02 -0.17912E+06
 0.23449999E+02 -0.17892E+06
 0.23499998E+02 -0.11686E+06
 0.23549999E+02 -0.65496E+05
 0.23599998E+02 -0.15185E+06
 0.23649998E+02  0.26067E+05
 0.23699999E+02  0.10041E+05
 0.23749998E+02 -0.49170E+05
 0.23799999E+02 -0.16617E+06
 0.23849998E+02 -0.20104E+06
 0.23899998E+02 -0.14258E+06
 0.23949999E+02 -0.93300E+05
 0.23999998E+02  0.11267E+06
 0.24049999E+02  0.15873E+06
 0.24099998E+02  0.18018E+06
 0.24149998E+02  0.12610E+06
 0.24199999E+02  0.10792E+06
 0.24249998E+02  0.42865E+05
 0.24299999E+02 -0.21544E+05
 0.24349998E+02  0.38863E+04
 0.24399998E+02  0.30437E+04
 0.24449999E+02  0.33868E+04
 0.24499998E+02  0.37755E+05
 0.24549999E+02 -0.18057E+05
 0.24599998E+02  0.17852E+05
 0.24649998E+02  0.12833E+06
 0.24699999E+02  0.21175E+05
 0.24749998E+02  0.66552E+05
 0.24799999E+02  0.23391E+06
 0.24849998E+02  0.30118E+06
 0.24899998E+02  0.18084E+06
 0.24949999E+02  0.17147E+06
 0.24999998E+02  0.12545E+06
 0.25049999E+02  0.15631E+06
 0.25099998E+02  0.28993E+06
 0.25149998E+02  0.21383E+06
 0.25199999E+02  0.23331E+05
 0.25249998E+02 -0.12496E+06
 0.25299999E+02 -0.27951E+05
 0.25349998E+02  0.76949E+05
 0.25399998E+02  0.17422E+06
 0.25449999E+02  0.16471E+06
 0.25499998E+02  0.20197E+06
 0.25549999E+02  0.15229E+06
 0.25599998E+02  0.16355E+06
 0.25649998E+02  0.13122E+06
 0.25699999E+02  0.48908E+05
 0.25749998E+02  0.22148E+05
 0.25799999E+02 -0.38022E+05
 0.25849998E+02  0.88622E+05
 0.25899998E+02  0.64911E+05
 0.25949999E+02  0.39895E+05
 0.25999998E+02  0.91118E+05
 0.26049999E+02  0.32229E+05
 0.26099998E+02 -0.60887E+05
 0.26149998E+02 -0.10318E+06
 0.26199999E+02 -0.11406E+06
 0.26249998E+02 -0.20889E+05
 0.26299999E+02  0.80211E+05
 0.26349998E+02  0.11769E+06
 0.26399998E+02  0.10273E+06
 0.26449999E+02  0.14355E+06
 0.26499998E+02  0.66341E+05
 0.26549999E+02 -0.61687E+05
 0.26599998E+02 -0.83915E+05
 0.26649998E+02 -0.28966E+05
 0.26699999E+02  0.18242E+06
 0.26749998E+02  0.33244E+06
 0.26799999E+02  0.32525E+06
 0.26849998E+02  0.22043E+06
 0.26899998E+02  0.37868E+05
 0.26949999E+02 -0.23531E+06
 0.26999998E+02 -0.29303E+06
 0.27049997E+02 -0.13982E+06
 0.27099998E+02  0.92242E+05
 0.27149998E+02  0.12475E+06
 0.27199999E+02  0.10373E+06
 0.27249998E+02  0.11093E+06
 0.27299997E+02 -0.68802E+05
 0.27349998E+02 -0.15429E+06
 0.27399998E+02 -0.13871E+06
 0.27449999E+02 -0.87366E+05
 0.27499998E+02 -0.32577E+05
 0.27549997E+02 -0.75933E+05
 0.27599998E+02 -0.88130E+05
 0.27649998E+02  0.16544E+05
 0.27699999E+02  0.14242E+06
 0.27749998E+02  0.19150E+06
 0.27799997E+02  0.83028E+05
 0.27849998E+02  0.86271E+05
 0.27899998E+02  0.77113E+05
 0.27949999E+02  0.12296E+06
 0.27999998E+02  0.22677E+06
 0.28049997E+02  0.20190E+06
 0.28099998E+02  0.13652E+06
 0.28149998E+02 -0.44422E+05
 0.28199999E+02 -0.18452E+06
 0.28249998E+02 -0.33895E+06
 0.28299997E+02 -0.45729E+06
 0.28349998E+02 -0.35757E+06
 0.28399998E+02 -0.63647E+05
 0.28449999E+02  0.13550E+06
 0.28499998E+02  0.39408E+05
 0.28549997E+02 -0.38251E+05
 0.28599998E+02  0.86700E+05
 0.28649998E+02  0.13435E+06
 0.28699999E+02 -0.18611E+05
 0.28749998E+02 -0.18436E+06
 0.28799997E+02 -0.24763E+06
 0.28849998E+02 -0.18682E+06
 0.28899998E+02 -0.76878E+05
 0.28949999E+02  0.60938E+05
 0.28999998E+02  0.23579E+06
 0.29049997E+02  0.32461E+06
 0.29099998E+02  0.11561E+06
 0.29149998E+02 -0.19176E+06
 0.29199999E+02 -0.22372E+06
 0.29249998E+02 -0.18461E+06
 0.29299997E+02 -0.16027E+06
 0.29349998E+02 -0.79329E+05
 0.29399998E+02 -0.66678E+05
 0.29449999E+02 -0.19640E+06
 0.29499998E+02 -0.28727E+06
 0.29549997E+02 -0.23286E+06
 0.29599998E+02 -0.15274E+06
 0.29649998E+02 -0.13962E+06
 0.29699999E+02 -0.10699E+06
 0.29749998E+02 -0.40679E+05
 0.29799997E+02  0.16125E+06
 0.29849998E+02  0.30422E+06
 0.29899998E+02  0.23824E+06
 0.29949999E+02  0.21593E+06
 0.29999998E+02  0.90767E+05
 0.30049999E+02  0.43171E+05
 0.30099998E+02  0.12644E+06
 0.30149998E+02  0.16118E+06
 0.30199997E+02  0.16190E+06
 0.30249996E+02  0.22078E+06
 0.30299999E+02  0.15804E+06
 0.30349998E+02 -0.63595E+05
 0.30399998E+02 -0.18201E+06
 0.30449997E+02 -0.21476E+06
 0.30499996E+02 -0.21290E+06
 0.30549999E+02 -0.79066E+05
 0.30599998E+02  0.72107E+05
 0.30649998E+02  0.12932E+06
 0.30699997E+02  0.35822E+06
 0.30749996E+02  0.47358E+06
 0.30799999E+02  0.35504E+06
 0.30849998E+02  0.23577E+06
 0.30899998E+02  0.11487E+06
 0.30949997E+02 -0.30222E+05
 0.30999996E+02  0.46211E+05
 0.31049999E+02  0.14745E+06
 0.31099998E+02 -0.81784E+04
 0.31149998E+02 -0.98757E+05
 0.31199997E+02 -0.24923E+06
 0.31249996E+02 -0.23505E+06
 0.31299999E+02 -0.40228E+05
 0.31349998E+02  0.13788E+06
 0.31399998E+02  0.27808E+06
 0.31449997E+02  0.28041E+06
 0.31499996E+02  0.22942E+06
 0.31549999E+02 -0.99084E+04
 0.31599998E+02 -0.31599E+06
 0.31649998E+02 -0.47887E+06
 0.31699997E+02 -0.61115E+06
 0.31749996E+02 -0.58189E+06
 0.31799999E+02 -0.33000E+06
 0.31849998E+02 -0.18650E+06
 0.31899998E+02 -0.29979E+06
 0.31949997E+02 -0.69770E+06
 0.31999996E+02 -0.11005E+07
 0.32049999E+02 -0.16488E+07
 0.32099998E+02 -0.27278E+07
 0.32149998E+02 -0.38921E+07
 0.32199997E+02 -0.36550E+07
 0.32249996E+02 -0.18696E+07
 0.32299999E+02 -0.46583E+06
 0.32349998E+02 -0.92579E+06
 0.32399998E+02 -0.25967E+07
 0.32449997E+02 -0.31851E+07
 0.32499996E+02 -0.17770E+07
 0.32549999E+02  0.17392E+06
 0.32599998E+02  0.80011E+06
 0.32649998E+02  0.33444E+06
 0.32699997E+02 -0.69473E+06
 0.32749996E+02 -0.18649E+07
 0.32799999E+02 -0.25959E+07
 0.32849998E+02 -0.26491E+07
 0.32899998E+02 -0.21031E+07
 0.32949997E+02 -0.15487E+07
 0.32999996E+02 -0.66850E+06
 0.33049999E+02  0.13095E+06
 0.33099998E+02 -0.71695E+05
 0.33149998E+02 -0.49616E+06
 0.33199997E+02 -0.53436E+06
 0.33249996E+02 -0.39990E+06
 0.33299999E+02 -0.23046E+06
 0.33349998E+02 -0.45212E+04
 0.33399998E+02 -0.16078E+06
 0.33449997E+02 -0.13839E+07
 0.33499996E+02 -0.28880E+07
 0.33549999E+02 -0.31218E+07
 0.33599998E+02 -0.19651E+07
 0.33649998E+02 -0.35408E+06
 0.33699997E+02  0.90979E+06
 0.33749996E+02  0.10031E+07
 0.33799999E+02  0.73217E+06
 0.33849998E+02  0.42131E+06
 0.33899998E+02  0.35417E+06
 0.33949997E+02  0.80946E+06
 0.33999996E+02  0.96971E+06
 0.34049999E+02  0.47465E+06
 0.34099998E+02 -0.78540E+06
 0.34149998E+02 -0.18445E+07
 0.34199997E+02 -0.23642E+07
 0.34249996E+02 -0.29980E+07
 0.34299999E+02 -0.33090E+07
 0.34349998E+02 -0.21883E+07
 0.34399998E+02 -0.99530E+05
 0.34449997E+02  0.13506E+07
 0.34499996E+02  0.12880E+07
 0.34549999E+02  0.17698E+06
 0.34599998E+02 -0.80025E+06
 0.34649998E+02 -0.12853E+07
 0.34699997E+02 -0.14227E+07
 0.34749996E+02 -0.78332E+06
 0.34799999E+02 -0.34009E+06
 0.34849998E+02 -0.85090E+06
 0.34899998E+02 -0.18994E+07
 0.34949997E+02 -0.30380E+07
 0.34999996E+02 -0.30828E+07
 0.35049999E+02 -0.17492E+07
 0.35099998E+02 -0.78991E+06
 0.35149998E+02 -0.12168E+07
 0.35199997E+02 -0.18399E+07
 0.35249996E+02 -0.17954E+07
 0.35299999E+02 -0.18621E+07
 0.35349998E+02 -0.27484E+07
 0.35399998E+02 -0.31938E+07
 0.35449997E+02 -0.33090E+07
 0.35499996E+02 -0.35107E+07
 0.35549999E+02 -0.29713E+07
 0.35599998E+02 -0.26249E+07
 0.35649998E+02 -0.28476E+07
 0.35699997E+02 -0.32688E+07
 0.35749996E+02 -0.31191E+07
 0.35799999E+02 -0.19490E+07
 0.35849998E+02 -0.11560E+07
 0.35899998E+02 -0.13650E+07
 0.35949997E+02 -0.21576E+07
 0.35999996E+02 -0.29357E+07
 0.36049999E+02 -0.35124E+07
 0.36099998E+02 -0.36313E+07
 0.36149998E+02 -0.32187E+07
 0.36199997E+02 -0.26376E+07
 0.36249996E+02 -0.21694E+07
 0.36299999E+02 -0.20500E+07
 0.36349998E+02 -0.18087E+07
 0.36399998E+02 -0.18151E+07
 0.36449997E+02 -0.24340E+07
 0.36499996E+02 -0.33782E+07
 0.36549999E+02 -0.40469E+07
 0.36599998E+02 -0.41114E+07
 0.36649998E+02 -0.37678E+07
 0.36699997E+02 -0.31748E+07
 0.36749996E+02 -0.24587E+07
 0.36799999E+02 -0.18481E+07
 0.36849998E+02 -0.22389E+07
 0.36899998E+02 -0.26882E+07
 0.36949997E+02 -0.20546E+07
 0.36999996E+02 -0.57497E+06
 0.37049999E+02  0.36020E+06
 0.37099998E+02 -0.36159E+06
 0.37149998E+02 -0.18693E+07
 0.37199997E+02 -0.30249E+07
 0.37249996E+02 -0.36132E+07
 0.37299999E+02 -0.40114E+07
 0.37349998E+02 -0.41891E+07
 0.37399998E+02 -0.36601E+07
 0.37449997E+02 -0.25012E+07
 0.37499996E+02 -0.10771E+07
 0.37549999E+02  0.24333E+06
 0.37599998E+02  0.10752E+07
 0.37649998E+02  0.17906E+07
 0.37699997E+02  0.22336E+07
 0.37749996E+02  0.26825E+07
 0.37799999E+02  0.26126E+07
 0.37849998E+02  0.11110E+07
 0.37899998E+02 -0.86968E+06
 0.37949997E+02 -0.17833E+07
 0.37999996E+02 -0.10892E+07
 0.38049999E+02  0.21630E+06
 0.38099998E+02  0.14904E+07
 0.38149998E+02  0.21958E+07
 0.38199997E+02  0.24693E+07
 0.38249996E+02  0.26685E+07
 0.38299999E+02  0.27593E+07
 0.38349998E+02  0.33587E+07
 0.38399998E+02  0.46182E+07
 0.38449997E+02  0.52949E+07
 0.38499996E+02  0.44365E+07
 0.38549999E+02  0.28180E+07
 0.38599998E+02  0.10691E+07
 0.38649998E+02  0.13597E+06
 0.38699997E+02  0.12680E+06
 0.38749996E+02  0.10118E+07
 0.38799999E+02  0.24012E+07
 0.38849998E+02  0.36438E+07
 0.38899998E+02  0.45378E+07
 0.38949997E+02  0.42303E+07
 0.38999996E+02  0.34467E+07
 0.39049999E+02  0.29108E+07
 0.39099998E+02  0.24610E+07
 0.39149998E+02  0.22694E+07
 0.39199997E+02  0.23807E+07
 0.39249996E+02  0.21937E+07
 0.39299999E+02  0.17178E+07
 0.39349998E+02  0.14053E+07
 0.39399998E+02  0.15880E+07
 0.39449997E+02  0.21297E+07
 0.39499996E+02  0.21029E+07
 0.39549999E+02  0.13662E+07
 0.39599998E+02  0.85502E+06
 0.39649998E+02  0.62961E+06
 0.39699997E+02  0.69551E+06
 0.39749996E+02  0.64880E+06
 0.39799999E+02 -0.10096E+06
 0.39849998E+02 -0.59101E+06
 0.39899998E+02 -0.17933E+06
 0.39949997E+02  0.42202E+06
 0.39999996E+02  0.53052E+05
 0.40049999E+02 -0.51848E+06
 0.40099998E+02 -0.49951E+06
 0.40149998E+02 -0.45965E+05
 0.40199997E+02  0.12979E+06
 0.40249996E+02 -0.69782E+06
 0.40299999E+02 -0.21794E+07
 0.40349998E+02 -0.32827E+07
 0.40399998E+02 -0.36078E+07
 0.40449997E+02 -0.36269E+07
 0.40499996E+02 -0.27858E+07
 0.40549999E+02 -0.12232E+07
 0.40599998E+02  0.66372E+05
 0.40649998E+02  0.11226E+06
 0.40699997E+02 -0.99467E+06
 0.40749996E+02 -0.20650E+07
 0.40799999E+02 -0.25700E+07
 0.40849998E+02 -0.27149E+07
 0.40899998E+02 -0.25284E+07
 0.40949997E+02 -0.21048E+07
 0.40999996E+02 -0.13185E+07
 0.41049999E+02 -0.29537E+06
 0.41099998E+02  0.17601E+06
 0.41149998E+02 -0.94237E+05
 0.41199997E+02 -0.48846E+06
 0.41249996E+02 -0.60480E+06
 0.41299999E+02 -0.79646E+06
 0.41349998E+02 -0.11613E+07
 0.41399998E+02 -0.15355E+07
 0.41449997E+02 -0.11800E+07
 0.41499996E+02 -0.25761E+06
 0.41549999E+02  0.41830E+06
 0.41599998E+02  0.32321E+06
 0.41649998E+02 -0.64305E+06
 0.41699997E+02 -0.22277E+07
 0.41749996E+02 -0.36448E+07
 0.41799999E+02 -0.42023E+07
 0.41849998E+02 -0.45689E+07
 0.41899998E+02 -0.50680E+07
 0.41949997E+02 -0.56877E+07
 0.41999996E+02 -0.60667E+07
 0.42049999E+02 -0.57677E+07
 0.42099998E+02 -0.49481E+07
 0.42149998E+02 -0.41672E+07
 0.42199997E+02 -0.36750E+07
 0.42249996E+02 -0.35090E+07
 0.42299999E+02 -0.39288E+07
 0.42349998E+02 -0.44940E+07
 0.42399998E+02 -0.44038E+07
 0.42449997E+02 -0.38622E+07
 0.42499996E+02 -0.35537E+07
 0.42549999E+02 -0.32845E+07
 0.42599998E+02 -0.25576E+07
 0.42649998E+02 -0.15040E+07
 0.42699997E+02 -0.23470E+06
 0.42749996E+02  0.94270E+06
 0.42799995E+02  0.13997E+07
 0.42849998E+02  0.85856E+06
 0.42899998E+02 -0.43045E+06
 0.42949997E+02 -0.13886E+07
 0.42999996E+02 -0.15526E+07
 0.43049995E+02 -0.15178E+07
 0.43099998E+02 -0.16766E+07
 0.43149998E+02 -0.17783E+07
 0.43199997E+02 -0.13373E+07
 0.43249996E+02 -0.54405E+06
 0.43299995E+02  0.82699E+05
 0.43349998E+02 -0.19533E+04
 0.43399998E+02 -0.89274E+06
 0.43449997E+02 -0.21170E+07
 0.43499996E+02 -0.30114E+07
 0.43549995E+02 -0.34315E+07
 0.43599998E+02 -0.35500E+07
 0.43649998E+02 -0.34410E+07
 0.43699997E+02 -0.33885E+07
 0.43749996E+02 -0.36405E+07
 0.43799995E+02 -0.38870E+07
 0.43849998E+02 -0.36336E+07
 0.43899998E+02 -0.32997E+07
 0.43949997E+02 -0.29655E+07
 0.43999996E+02 -0.27164E+07
 0.44049995E+02 -0.25543E+07
 0.44099998E+02 -0.22708E+07
 0.44149998E+02 -0.17723E+07
 0.44199997E+02 -0.11469E+07
 0.44249996E+02 -0.71551E+06
 0.44299995E+02 -0.49780E+06
 0.44349998E+02 -0.52265E+06
 0.44399998E+02 -0.73010E+06
 0.44449997E+02 -0.92842E+06
 0.44499996E+02 -0.86774E+06
 0.44549995E+02 -0.53355E+06
 0.44599998E+02 -0.11554E+04
 0.44649998E+02  0.49697E+06
 0.44699997E+02  0.79802E+06
 0.44749996E+02  0.77463E+06
 0.44799995E+02  0.32842E+06
 0.44849998E+02 -0.24627E+06
 0.44899998E+02 -0.65195E+06
 0.44949997E+02 -0.93066E+06
 0.44999996E+02 -0.11502E+07
 0.45049995E+02 -0.12931E+07
 0.45099998E+02 -0.12883E+07
 0.45149998E+02 -0.13397E+07
 0.45199997E+02 -0.13634E+07
 0.45249996E+02 -0.13140E+07
 0.45299995E+02 -0.14195E+07
 0.45349998E+02 -0.16239E+07
 0.45399998E+02 -0.17831E+07
 0.45449997E+02 -0.15094E+07
 0.45499996E+02 -0.90064E+06
 0.45549995E+02  0.43891E+05
 0.45599998E+02  0.11893E+07
 0.45649998E+02  0.23192E+07
 0.45699997E+02  0.33589E+07
 0.45749996E+02  0.40837E+07
 0.45799995E+02  0.42520E+07
 0.45849998E+02  0.37080E+07
 0.45899998E+02  0.30222E+07
 0.45949997E+02  0.24804E+07
 0.45999996E+02  0.21545E+07
 0.46049995E+02  0.19138E+07
 0.46099998E+02  0.15521E+07
 0.46149998E+02  0.11564E+07
 0.46199997E+02  0.73869E+06
 0.46249996E+02  0.26123E+06
 0.46299995E+02 -0.20326E+06
 0.46349998E+02 -0.54751E+06
 0.46399998E+02 -0.78769E+06
 0.46449997E+02 -0.93683E+06
 0.46499996E+02 -0.83832E+06
 0.46549995E+02 -0.50525E+06
 0.46599998E+02 -0.31174E+06
 0.46649998E+02 -0.27491E+06
 0.46699997E+02 -0.28392E+06
 0.46749996E+02 -0.21971E+06
 0.46799995E+02 -0.38206E+04
 0.46849998E+02  0.27000E+06
 0.46899998E+02  0.46175E+06
 0.46949997E+02  0.60542E+06
 0.46999996E+02  0.53265E+06
 0.47049995E+02  0.26346E+06
 0.47099998E+02 -0.33039E+05
 0.47149998E+02 -0.32647E+06
 0.47199997E+02 -0.45538E+06
 0.47249996E+02 -0.63798E+06
 0.47299995E+02 -0.80284E+06
 0.47349998E+02 -0.79067E+06
 0.47399998E+02 -0.74830E+06
 0.47449997E+02 -0.63578E+06
 0.47499996E+02 -0.48683E+06
 0.47549995E+02 -0.22871E+06
 0.47599998E+02  0.13002E+06
 0.47649998E+02  0.33462E+06
 0.47699997E+02  0.41930E+06
 0.47749996E+02  0.56099E+06
 0.47799995E+02  0.67414E+06
 0.47849998E+02  0.65069E+06
 0.47899998E+02  0.72524E+06
 0.47949997E+02  0.85860E+06
 0.47999996E+02  0.83906E+06
 0.48049995E+02  0.68167E+06
 0.48099998E+02  0.72298E+06
 0.48149998E+02  0.89300E+06
 0.48199997E+02  0.87973E+06
 0.48249996E+02  0.91590E+06
 0.48299995E+02  0.10105E+07
 0.48349998E+02  0.92331E+06
 0.48399998E+02  0.62620E+06
 0.48449997E+02  0.19379E+06
 0.48499996E+02 -0.31721E+06
 0.48549995E+02 -0.87222E+06
 0.48599998E+02 -0.14604E+07
 0.48649998E+02 -0.17622E+07
 0.48699997E+02 -0.18098E+07
 0.48749996E+02 -0.18893E+07
 0.48799995E+02 -0.20317E+07
 0.48849998E+02 -0.22983E+07
 0.48899998E+02 -0.23783E+07
 0.48949997E+02 -0.20314E+07
 0.48999996E+02 -0.14175E+07
 0.49049995E+02 -0.81743E+06
 0.49099998E+02 -0.41557E+06
 0.49149998E+02 -0.25009E+06
 0.49199997E+02 -0.26235E+06
 0.49249996E+02 -0.35291E+06
 0.49299995E+02 -0.46459E+06
 0.49349998E+02 -0.52930E+06
 0.49399998E+02 -0.68035E+06
 0.49449997E+02 -0.87844E+06
 0.49499996E+02 -0.10474E+07
 0.49549995E+02 -0.12129E+07
 0.49599998E+02 -0.14384E+07
 0.49649998E+02 -0.15773E+07
 0.49699997E+02 -0.14587E+07
 0.49749996E+02 -0.12690E+07
 0.49799995E+02 -0.11101E+07
 0.49849998E+02 -0.11410E+07
 0.49899998E+02 -0.14097E+07
 0.49949997E+02 -0.17023E+07
 0.49999996E+02 -0.19842E+07
 0.50049995E+02 -0.22687E+07
 0.50099998E+02 -0.25859E+07
 0.50149998E+02 -0.28076E+07
 0.50199997E+02 -0.27009E+07
 0.50249996E+02 -0.24382E+07
 0.50299995E+02 -0.21471E+07
 0.50349998E+02 -0.18098E+07
 0.50399998E+02 -0.13982E+07
 0.50449997E+02 -0.99389E+06
 0.50499996E+02 -0.68867E+06
 0.50549995E+02 -0.35992E+06
 0.50599998E+02 -0.19445E+06
 0.50649998E+02 -0.38396E+06
 0.50699997E+02 -0.71006E+06
 0.50749996E+02 -0.99437E+06
 0.50799995E+02 -0.12608E+07
 0.50849998E+02 -0.14814E+07
 0.50899998E+02 -0.16907E+07
 0.50949997E+02 -0.19245E+07
 0.50999996E+02 -0.19303E+07
 0.51049995E+02 -0.14917E+07
 0.51099998E+02 -0.69799E+06
 0.51149998E+02  0.10371E+06
 0.51199997E+02  0.73449E+06
 0.51249996E+02  0.12607E+07
 0.51299995E+02  0.16770E+07
 0.51349998E+02  0.19947E+07
 0.51399998E+02  0.22924E+07
 0.51449997E+02  0.26145E+07
 0.51499996E+02  0.30187E+07
 0.51549995E+02  0.32800E+07
 0.51599998E+02  0.31804E+07
 0.51649998E+02  0.28365E+07
 0.51699997E+02  0.23089E+07
 0.51749996E+02  0.17381E+07
 0.51799995E+02  0.12727E+07
 0.51849998E+02  0.98210E+06
 0.51899998E+02  0.90764E+06
 0.51949997E+02  0.11195E+07
 0.51999996E+02  0.15276E+07
 0.52049995E+02  0.18677E+07
 0.52099998E+02  0.20393E+07
 0.52149998E+02  0.19457E+07
 0.52199997E+02  0.16749E+07
 0.52249996E+02  0.14436E+07
 0.52299995E+02  0.13295E+07
 0.52349998E+02  0.12815E+07
 0.52399998E+02  0.13080E+07
 0.52449997E+02  0.14893E+07
 0.52499996E+02  0.18612E+07
 0.52549995E+02  0.23372E+07
 0.52599998E+02  0.27161E+07
 0.52649998E+02  0.30073E+07
 0.52699997E+02  0.31322E+07
 0.52749996E+02  0.31740E+07
 0.52799995E+02  0.31813E+07
 0.52849998E+02  0.29434E+07
 0.52899998E+02  0.24926E+07
 0.52949997E+02  0.18043E+07
 0.52999996E+02  0.10826E+07
 0.53049995E+02  0.42394E+06
 0.53099998E+02 -0.15298E+06
 0.53149998E+02 -0.48930E+06
 0.53199997E+02 -0.62810E+06
 0.53249996E+02 -0.66422E+06
 0.53299995E+02 -0.78011E+06
 0.53349998E+02 -0.10895E+07
 0.53399998E+02 -0.15109E+07
 0.53449997E+02 -0.19679E+07
 0.53499996E+02 -0.25649E+07
 0.53549995E+02 -0.32250E+07
 0.53599998E+02 -0.38662E+07
 0.53649998E+02 -0.45472E+07
 0.53699997E+02 -0.50697E+07
 0.53749996E+02 -0.52534E+07
 0.53799995E+02 -0.50801E+07
 0.53849998E+02 -0.46712E+07
 0.53899998E+02 -0.42564E+07
 0.53949997E+02 -0.39622E+07
 0.53999996E+02 -0.38479E+07
 0.54049995E+02 -0.38845E+07
 0.54099998E+02 -0.40682E+07
 0.54149998E+02 -0.43418E+07
 0.54199997E+02 -0.45513E+07
 0.54249996E+02 -0.47088E+07
 0.54299995E+02 -0.47056E+07
 0.54349998E+02 -0.44032E+07
 0.54399998E+02 -0.38136E+07
 0.54449997E+02 -0.31242E+07
 0.54499996E+02 -0.25327E+07
 0.54549995E+02 -0.20206E+07
 0.54599998E+02 -0.16246E+07
 0.54649998E+02 -0.13097E+07
 0.54699997E+02 -0.10390E+07
 0.54749996E+02 -0.94057E+06
 0.54799995E+02 -0.97729E+06
 0.54849998E+02 -0.10112E+07
 0.54899998E+02 -0.94312E+06
 0.54949997E+02 -0.83627E+06
 0.54999996E+02 -0.78672E+06
 0.55049995E+02 -0.75680E+06
 0.55099998E+02 -0.71806E+06
 0.55149998E+02 -0.60867E+06
 0.55199997E+02 -0.40836E+06
 0.55249996E+02 -0.11057E+06
 0.55299995E+02  0.19995E+06
 0.55349998E+02  0.49585E+06
 0.55399998E+02  0.74996E+06
 0.55449997E+02  0.94041E+06
 0.55499996E+02  0.10842E+07
 0.55549995E+02  0.12179E+07
 0.55599998E+02  0.13648E+07
 0.55649998E+02  0.15538E+07
 0.55699997E+02  0.18201E+07
 0.55749996E+02  0.21488E+07
 0.55799995E+02  0.25275E+07
 0.55849995E+02  0.28366E+07
 0.55899998E+02  0.31777E+07
 0.55949997E+02  0.35887E+07
 0.55999996E+02  0.40524E+07
 0.56049995E+02  0.45118E+07
 0.56099995E+02  0.48827E+07
 0.56149998E+02  0.51691E+07
 0.56199997E+02  0.52950E+07
 0.56249996E+02  0.52719E+07
 0.56299995E+02  0.50377E+07
 0.56349995E+02  0.46800E+07
 0.56399998E+02  0.43327E+07
 0.56449997E+02  0.39936E+07
 0.56499996E+02  0.36579E+07
 0.56549995E+02  0.33063E+07
 0.56599995E+02  0.29774E+07
 0.56649998E+02  0.27142E+07
 0.56699997E+02  0.24819E+07
 0.56749996E+02  0.22496E+07
 0.56799995E+02  0.20343E+07
 0.56849995E+02  0.18274E+07
 0.56899998E+02  0.16143E+07
 0.56949997E+02  0.13573E+07
 0.56999996E+02  0.98971E+06
 0.57049995E+02  0.54277E+06
 0.57099995E+02  0.32266E+05
 0.57149998E+02 -0.60324E+06
 0.57199997E+02 -0.12146E+07
 0.57249996E+02 -0.16682E+07
 0.57299995E+02 -0.19350E+07
 0.57349995E+02 -0.21218E+07
 0.57399998E+02 -0.22903E+07
 0.57449997E+02 -0.24322E+07
 0.57499996E+02 -0.26784E+07
 0.57549995E+02 -0.29728E+07
 0.57599995E+02 -0.32040E+07
 0.57649998E+02 -0.33521E+07
 0.57699997E+02 -0.33802E+07
 0.57749996E+02 -0.32488E+07
 0.57799995E+02 -0.30088E+07
 0.57849995E+02 -0.27070E+07
 0.57899998E+02 -0.24044E+07
 0.57949997E+02 -0.21836E+07
 0.57999996E+02 -0.20517E+07
 0.58049995E+02 -0.19717E+07
 0.58099995E+02 -0.19050E+07
 0.58149998E+02 -0.18134E+07
 0.58199997E+02 -0.17040E+07
 0.58249996E+02 -0.15750E+07
 0.58299995E+02 -0.14069E+07
 0.58349995E+02 -0.12807E+07
 0.58399998E+02 -0.12124E+07
 0.58449997E+02 -0.11372E+07
 0.58499996E+02 -0.11215E+07
 0.58549995E+02 -0.12357E+07
 0.58599995E+02 -0.13892E+07
 0.58649998E+02 -0.14668E+07
 0.58699997E+02 -0.14005E+07
 0.58749996E+02 -0.12133E+07
 0.58799995E+02 -0.94226E+06
 0.58849995E+02 -0.65334E+06
 0.58899998E+02 -0.38524E+06
 0.58949997E+02 -0.11705E+06
 0.58999996E+02  0.13751E+06
 0.59049995E+02  0.36250E+06
 0.59099995E+02  0.65951E+06
 0.59149998E+02  0.98001E+06
 0.59199997E+02  0.11884E+07
 0.59249996E+02  0.13275E+07
 0.59299995E+02  0.14540E+07
 0.59349995E+02  0.16006E+07
 0.59399998E+02  0.16821E+07
 0.59449997E+02  0.16369E+07
 0.59499996E+02  0.14457E+07
 0.59549995E+02  0.11589E+07
 0.59599995E+02  0.82141E+06
 0.59649998E+02  0.46549E+06
 0.59699997E+02  0.16037E+06
 0.59749996E+02 -0.39085E+05
 0.59799995E+02 -0.14575E+06
 0.59849995E+02 -0.17552E+06
 0.59899998E+02 -0.20800E+06
 0.59949997E+02 -0.31271E+06
 0.59999996E+02 -0.32495E+06
 0.60049995E+02 -0.22115E+06
 0.60099995E+02 -0.32271E+05
 0.60149998E+02  0.19117E+06
 0.60199997E+02  0.42214E+06
 0.60249996E+02  0.69245E+06
 0.60299995E+02  0.10047E+07
 0.60349995E+02  0.13334E+07
 0.60399998E+02  0.16714E+07
 0.60449997E+02  0.19803E+07
 0.60499996E+02  0.22440E+07
 0.60549995E+02  0.24669E+07
 0.60599995E+02  0.25657E+07
 0.60649998E+02  0.25937E+07
 0.60699997E+02  0.26172E+07
 0.60749996E+02  0.26571E+07
 0.60799995E+02  0.26551E+07
 0.60849995E+02  0.25966E+07
 0.60899998E+02  0.24787E+07
 0.60949997E+02  0.22784E+07
 0.60999996E+02  0.20464E+07
 0.61049995E+02  0.18183E+07
 0.61099995E+02  0.15615E+07
 0.61149998E+02  0.12500E+07
 0.61199997E+02  0.92136E+06
 0.61249996E+02  0.58342E+06
 0.61299995E+02  0.23877E+06
 0.61349995E+02 -0.88342E+05
 0.61399998E+02 -0.33453E+06
 0.61449997E+02 -0.44229E+06
 0.61499996E+02 -0.42189E+06
 0.61549995E+02 -0.38300E+06
 0.61599995E+02 -0.41264E+06
 0.61649998E+02 -0.49004E+06
 0.61699997E+02 -0.58824E+06
 0.61749996E+02 -0.71282E+06
 0.61799995E+02 -0.87639E+06
 0.61849995E+02 -0.10816E+07
 0.61899998E+02 -0.12885E+07
 0.61949997E+02 -0.14108E+07
 0.61999996E+02 -0.14768E+07
 0.62049995E+02 -0.15109E+07
 0.62099998E+02 -0.14678E+07
 0.62149994E+02 -0.13896E+07
 0.62199997E+02 -0.13073E+07
 0.62249992E+02 -0.11811E+07
 0.62299995E+02 -0.97251E+06
 0.62349998E+02 -0.74595E+06
 0.62399994E+02 -0.58165E+06
 0.62449997E+02 -0.47324E+06
 0.62499992E+02 -0.37913E+06
 0.62549995E+02 -0.27859E+06
 0.62599998E+02 -0.23068E+06
 0.62649994E+02 -0.28163E+06
 0.62699997E+02 -0.39502E+06
 0.62749992E+02 -0.57106E+06
 0.62799995E+02 -0.81473E+06
 0.62849998E+02 -0.10602E+07
 0.62899994E+02 -0.12484E+07
 0.62949997E+02 -0.13582E+07
 0.62999992E+02 -0.13768E+07
 0.63049995E+02 -0.13754E+07
 0.63099998E+02 -0.14057E+07
 0.63149994E+02 -0.13880E+07
 0.63199997E+02 -0.13082E+07
 0.63249992E+02 -0.11951E+07
 0.63299995E+02 -0.10410E+07
 0.63349998E+02 -0.84716E+06
 0.63399994E+02 -0.59595E+06
 0.63449997E+02 -0.32851E+06
 0.63499992E+02 -0.10444E+06
 0.63549995E+02  0.31917E+05
 0.63599998E+02  0.92311E+05
 0.63649994E+02  0.15984E+06
 0.63699997E+02  0.22926E+06
 0.63749992E+02  0.26904E+06
 0.63799995E+02  0.23482E+06
 0.63849998E+02  0.11236E+06
 0.63899994E+02 -0.70849E+05
 0.63949997E+02 -0.31782E+06
 0.63999992E+02 -0.59447E+06
 0.64049995E+02 -0.85112E+06
 0.64099998E+02 -0.10678E+07
 0.64149994E+02 -0.11874E+07
 0.64199997E+02 -0.11842E+07
 0.64249992E+02 -0.10817E+07
 0.64299995E+02 -0.88681E+06
 0.64349998E+02 -0.64148E+06
 0.64399994E+02 -0.39278E+06
 0.64449997E+02 -0.24013E+06
 0.64499992E+02 -0.18973E+06
 0.64549995E+02 -0.15145E+06
 0.64599998E+02 -0.92485E+05
 0.64649994E+02 -0.31080E+05
 0.64699997E+02  0.33173E+05
 0.64749992E+02  0.13354E+06
 0.64799995E+02  0.25971E+06
 0.64849998E+02  0.44163E+06
 0.64899994E+02  0.65658E+06
 0.64949997E+02  0.88400E+06
 0.64999992E+02  0.11355E+07
 0.65049995E+02  0.13822E+07
 0.65099998E+02  0.15984E+07
 0.65149994E+02  0.17569E+07
 0.65199997E+02  0.18573E+07
 0.65249992E+02  0.19162E+07
 0.65299995E+02  0.19643E+07
 0.65349998E+02  0.19938E+07
 0.65399994E+02  0.20018E+07
 0.65449997E+02  0.20136E+07
 0.65499992E+02  0.19997E+07
 0.65549995E+02  0.19214E+07
 0.65599998E+02  0.18077E+07
 0.65649994E+02  0.16626E+07
 0.65699997E+02  0.14912E+07
 0.65749992E+02  0.12744E+07
 0.65799995E+02  0.10402E+07
 0.65849998E+02  0.86104E+06
 0.65899994E+02  0.73541E+06
 0.65949997E+02  0.63653E+06
 0.65999992E+02  0.51547E+06
 0.66049995E+02  0.35075E+06
 0.66099998E+02  0.12623E+06
 0.66149994E+02 -0.13342E+06
 0.66199997E+02 -0.35878E+06
 0.66249992E+02 -0.49321E+06
 0.66299995E+02 -0.56213E+06
 0.66349998E+02 -0.58429E+06
 0.66399994E+02 -0.53514E+06
 0.66449997E+02 -0.41736E+06
 0.66499992E+02 -0.24478E+06
 0.66549995E+02 -0.61441E+05
 0.66599998E+02  0.55429E+05
 0.66649994E+02  0.10678E+06
 0.66699997E+02  0.14871E+06
 0.66749992E+02  0.15140E+06
 0.66799995E+02  0.83677E+05
 0.66849998E+02 -0.57641E+05
 0.66899994E+02 -0.24079E+06
 0.66949997E+02 -0.39731E+06
 0.66999992E+02 -0.52003E+06
 0.67049995E+02 -0.58605E+06
 0.67099998E+02 -0.55011E+06
 0.67149994E+02 -0.43668E+06
 0.67199997E+02 -0.30812E+06
 0.67249992E+02 -0.23072E+06
 0.67299995E+02 -0.23379E+06
 0.67349998E+02 -0.26760E+06
 0.67399994E+02 -0.28493E+06
 0.67449997E+02 -0.29079E+06
 0.67499992E+02 -0.28858E+06
 0.67549995E+02 -0.23903E+06
 0.67599998E+02 -0.68287E+05
 0.67649994E+02  0.24014E+06
 0.67699997E+02  0.61799E+06
 0.67749992E+02  0.98367E+06
 0.67799995E+02  0.12973E+07
 0.67849998E+02  0.15440E+07
 0.67899994E+02  0.16926E+07
 0.67949997E+02  0.17371E+07
 0.67999992E+02  0.17056E+07
 0.68049995E+02  0.16200E+07
 0.68099998E+02  0.14956E+07
 0.68149994E+02  0.13169E+07
 0.68199997E+02  0.10739E+07
 0.68249992E+02  0.79671E+06
 0.68299995E+02  0.50718E+06
 0.68349998E+02  0.20390E+06
 0.68399994E+02 -0.11565E+06
 0.68449997E+02 -0.45081E+06
 0.68499992E+02 -0.74334E+06
 0.68549995E+02 -0.97222E+06
 0.68599998E+02 -0.11398E+07
 0.68649994E+02 -0.12187E+07
 0.68699997E+02 -0.12330E+07
 0.68749992E+02 -0.12038E+07
 0.68799995E+02 -0.11117E+07
 0.68849998E+02 -0.95190E+06
 0.68899994E+02 -0.79718E+06
 0.68949997E+02 -0.66469E+06
 0.68999992E+02 -0.52672E+06
 0.69049995E+02 -0.37725E+06
 0.69099998E+02 -0.26089E+06
 0.69149994E+02 -0.18892E+06
 0.69199997E+02 -0.12050E+06
 0.69249992E+02 -0.42965E+05
 0.69299995E+02  0.43213E+05
 0.69349998E+02  0.10519E+06
 0.69399994E+02  0.14330E+06
 0.69449997E+02  0.14416E+06
 0.69499992E+02  0.12139E+06
 0.69549995E+02  0.95645E+05
 0.69599998E+02  0.77244E+05
 0.69649994E+02  0.77015E+05
 0.69699997E+02  0.89075E+05
 0.69749992E+02  0.13569E+06
 0.69799995E+02  0.25099E+06
 0.69849998E+02  0.45109E+06
 0.69899994E+02  0.68443E+06
 0.69949997E+02  0.88798E+06
 0.69999992E+02  0.10448E+07
 0.70049995E+02  0.11910E+07
 0.70099998E+02  0.13624E+07
 0.70149994E+02  0.15495E+07
 0.70199997E+02  0.17339E+07
 0.70249992E+02  0.18733E+07
 0.70299995E+02  0.19440E+07
 0.70349998E+02  0.19676E+07
 0.70399994E+02  0.19489E+07
 0.70449997E+02  0.18844E+07
 0.70499992E+02  0.18056E+07
 0.70549995E+02  0.17499E+07
 0.70599998E+02  0.16974E+07
 0.70649994E+02  0.16240E+07
 0.70699997E+02  0.15731E+07
 0.70749992E+02  0.15408E+07
 0.70799995E+02  0.14611E+07
 0.70849998E+02  0.13191E+07
 0.70899994E+02  0.11181E+07
 0.70949997E+02  0.87717E+06
 0.70999992E+02  0.62802E+06
 0.71049995E+02  0.40587E+06
 0.71099998E+02  0.23928E+06
 0.71149994E+02  0.10588E+06
 0.71199997E+02 -0.14121E+05
 0.71249992E+02 -0.10929E+06
 0.71299995E+02 -0.18426E+06
 0.71349998E+02 -0.22628E+06
 0.71399994E+02 -0.20881E+06
 0.71449997E+02 -0.13053E+06
 0.71499992E+02 -0.23201E+05
 0.71549995E+02  0.84313E+05
 0.71599998E+02  0.18266E+06
 0.71649994E+02  0.24834E+06
 0.71699997E+02  0.27046E+06
 0.71749992E+02  0.26266E+06
 0.71799995E+02  0.19871E+06
 0.71849998E+02  0.80057E+05
 0.71899994E+02 -0.13475E+05
 0.71949997E+02 -0.83171E+05
 0.71999992E+02 -0.15283E+06
 0.72049995E+02 -0.24535E+06
 0.72099998E+02 -0.36172E+06
 0.72149994E+02 -0.48262E+06
 0.72199997E+02 -0.60840E+06
 0.72249992E+02 -0.73222E+06
 0.72299995E+02 -0.87248E+06
 0.72349998E+02 -0.98341E+06
 0.72399994E+02 -0.10454E+07
 0.72449997E+02 -0.10675E+07
 0.72499992E+02 -0.10294E+07
 0.72549995E+02 -0.94335E+06
 0.72599998E+02 -0.85992E+06
 0.72649994E+02 -0.80328E+06
 0.72699997E+02 -0.77437E+06
 0.72749992E+02 -0.75462E+06
 0.72799995E+02 -0.68955E+06
 0.72849998E+02 -0.59424E+06
 0.72899994E+02 -0.52037E+06
 0.72949997E+02 -0.50393E+06
 0.72999992E+02 -0.52843E+06
 0.73049995E+02 -0.54059E+06
 0.73099998E+02 -0.53557E+06
 0.73149994E+02 -0.53776E+06
 0.73199997E+02 -0.57391E+06
 0.73249992E+02 -0.65207E+06
 0.73299995E+02 -0.75155E+06
 0.73349998E+02 -0.82930E+06
 0.73399994E+02 -0.85042E+06
 0.73449997E+02 -0.81350E+06
 0.73499992E+02 -0.76109E+06
 0.73549995E+02 -0.75111E+06
 0.73599998E+02 -0.77710E+06
 0.73649994E+02 -0.81115E+06
 0.73699997E+02 -0.84662E+06
 0.73749992E+02 -0.85599E+06
 0.73799995E+02 -0.83490E+06
 0.73849998E+02 -0.78779E+06
 0.73899994E+02 -0.69441E+06
 0.73949997E+02 -0.54488E+06
 0.73999992E+02 -0.36440E+06
 0.74049995E+02 -0.18724E+06
 0.74099998E+02 -0.12630E+05
 0.74149994E+02  0.16271E+06
 0.74199997E+02  0.36118E+06
 0.74249992E+02  0.57469E+06
 0.74299995E+02  0.77351E+06
 0.74349998E+02  0.92621E+06
 0.74399994E+02  0.10295E+07
 0.74449997E+02  0.11160E+07
 0.74499992E+02  0.11824E+07
 0.74549995E+02  0.12431E+07
 0.74599998E+02  0.13035E+07
 0.74649994E+02  0.13488E+07
 0.74699997E+02  0.13600E+07
 0.74749992E+02  0.13300E+07
 0.74799995E+02  0.12700E+07
 0.74849998E+02  0.12019E+07
 0.74899994E+02  0.11181E+07
 0.74949997E+02  0.10146E+07
 0.74999992E+02  0.95090E+06
 0.75049995E+02  0.94650E+06
 0.75099998E+02  0.97604E+06
 0.75149994E+02  0.99318E+06
 0.75199997E+02  0.96679E+06
 0.75249992E+02  0.92497E+06
 0.75299995E+02  0.89488E+06
 0.75349998E+02  0.87912E+06
 0.75399994E+02  0.87040E+06
 0.75449997E+02  0.86675E+06
 0.75499992E+02  0.88438E+06
 0.75549995E+02  0.91982E+06
 0.75599998E+02  0.95448E+06
 0.75649994E+02  0.97091E+06
 0.75699997E+02  0.96528E+06
 0.75749992E+02  0.96599E+06
 0.75799995E+02  0.96502E+06
 0.75849998E+02  0.94524E+06
 0.75899994E+02  0.91306E+06
 0.75949997E+02  0.89134E+06
 0.75999992E+02  0.90699E+06
 0.76049995E+02  0.95790E+06
 0.76099998E+02  0.10054E+07
 0.76149994E+02  0.10133E+07
 0.76199997E+02  0.98647E+06
 0.76249992E+02  0.93199E+06
 0.76299995E+02  0.84714E+06
 0.76349998E+02  0.74486E+06
 0.76399994E+02  0.65761E+06
 0.76449997E+02  0.60573E+06
 0.76499992E+02  0.56922E+06
 0.76549995E+02  0.53211E+06
 0.76599998E+02  0.51771E+06
 0.76649994E+02  0.52781E+06
 0.76699997E+02  0.54388E+06
 0.76749992E+02  0.52408E+06
 0.76799995E+02  0.43989E+06
 0.76849998E+02  0.31260E+06
 0.76899994E+02  0.18254E+06
 0.76949997E+02  0.91233E+05
 0.76999992E+02  0.34216E+05
 0.77049995E+02 -0.11991E+03
 0.77099998E+02 -0.28600E+04
 0.77149994E+02  0.29782E+05
 0.77199997E+02  0.83492E+05
 0.77249992E+02  0.12483E+06
 0.77299995E+02  0.12505E+06
 0.77349998E+02  0.89648E+05
 0.77399994E+02  0.30627E+05
 0.77449997E+02 -0.22195E+05
 0.77499992E+02 -0.27380E+05
 0.77549995E+02 -0.14580E+01
 0.77599998E+02  0.29847E+05
 0.77649994E+02  0.36065E+05
 0.77699997E+02  0.46769E+04
 0.77749992E+02 -0.70572E+05
 0.77799995E+02 -0.17114E+06
 0.77849998E+02 -0.25490E+06
 0.77899994E+02 -0.29901E+06
 0.77949997E+02 -0.27972E+06
 0.77999992E+02 -0.18367E+06
 0.78049995E+02 -0.44484E+05
 0.78099998E+02  0.85926E+05
 0.78149994E+02  0.16175E+06
 0.78199997E+02  0.14913E+06
 0.78249992E+02  0.56013E+05
 0.78299995E+02 -0.74432E+05
 0.78349998E+02 -0.19849E+06
 0.78399994E+02 -0.30578E+06
 0.78449997E+02 -0.40886E+06
 0.78499992E+02 -0.49658E+06
 0.78549995E+02 -0.54405E+06
 0.78599998E+02 -0.55551E+06
 0.78649994E+02 -0.54553E+06
 0.78699997E+02 -0.55361E+06
 0.78749992E+02 -0.58813E+06
 0.78799995E+02 -0.62364E+06
 0.78849998E+02 -0.62890E+06
 0.78899994E+02 -0.57615E+06
 0.78949997E+02 -0.48147E+06
 0.78999992E+02 -0.36367E+06
 0.79049995E+02 -0.23655E+06
 0.79099998E+02 -0.12499E+06
 0.79149994E+02 -0.49413E+05
 0.79199997E+02  0.11197E+05
 0.79249992E+02  0.66897E+05
 0.79299995E+02  0.11457E+06
 0.79349998E+02  0.17786E+06
 0.79399994E+02  0.27793E+06
 0.79449997E+02  0.41066E+06
 0.79499992E+02  0.54664E+06
 0.79549995E+02  0.64166E+06
 0.79599998E+02  0.67831E+06
 0.79649994E+02  0.67755E+06
 0.79699997E+02  0.68436E+06
 0.79749992E+02  0.72546E+06
 0.79799995E+02  0.78635E+06
 0.79849998E+02  0.83795E+06
 0.79899994E+02  0.88491E+06
 0.79949997E+02  0.94278E+06
 0.79999992E+02  0.10161E+07
 0.80049995E+02  0.11451E+07
 0.80099998E+02  0.13254E+07
 0.80149994E+02  0.15303E+07
 0.80199997E+02  0.17413E+07
 0.80249992E+02  0.19403E+07
 0.80299995E+02  0.21100E+07
 0.80349998E+02  0.22187E+07
 0.80399994E+02  0.22347E+07
 0.80449997E+02  0.21336E+07
 0.80499992E+02  0.19175E+07
 0.80549995E+02  0.16292E+07
 0.80599998E+02  0.13409E+07
 0.80649994E+02  0.10749E+07
 0.80699997E+02  0.82032E+06
 0.80749992E+02  0.56108E+06
 0.80799995E+02  0.29701E+06
 0.80849998E+02  0.62013E+05
 0.80899994E+02 -0.12293E+06
 0.80949997E+02 -0.26049E+06
 0.80999992E+02 -0.36970E+06
 0.81049995E+02 -0.45250E+06
 0.81099998E+02 -0.48567E+06
 0.81149994E+02 -0.48300E+06
 0.81199997E+02 -0.45973E+06
 0.81249992E+02 -0.41589E+06
 0.81299995E+02 -0.36949E+06
 0.81349998E+02 -0.34842E+06
 0.81399994E+02 -0.37062E+06
 0.81449997E+02 -0.40553E+06
 0.81499992E+02 -0.42637E+06
 0.81549995E+02 -0.41193E+06
 0.81599998E+02 -0.35463E+06
 0.81649994E+02 -0.27694E+06
 0.81699997E+02 -0.21101E+06
 0.81749992E+02 -0.16286E+06
 0.81799995E+02 -0.11701E+06
 0.81849998E+02 -0.83053E+05
 0.81899994E+02 -0.50783E+05
 0.81949997E+02 -0.11012E+05
 0.81999992E+02  0.36870E+05
 0.82049995E+02  0.97540E+05
 0.82099998E+02  0.16793E+06
 0.82149994E+02  0.22504E+06
 0.82199997E+02  0.25125E+06
 0.82249992E+02  0.25745E+06
 0.82299995E+02  0.26959E+06
 0.82349998E+02  0.30535E+06
 0.82399994E+02  0.34111E+06
 0.82449997E+02  0.34979E+06
 0.82499992E+02  0.32353E+06
 0.82549995E+02  0.26097E+06
 0.82599998E+02  0.17998E+06
 0.82649994E+02  0.11594E+06
 0.82699997E+02  0.66192E+05
 0.82749992E+02  0.33966E+05
 0.82799995E+02  0.28256E+05
 0.82849998E+02  0.33994E+05
 0.82899994E+02  0.24733E+05
 0.82949997E+02 -0.33132E+05
 0.82999992E+02 -0.12449E+06
 0.83049995E+02 -0.20619E+06
 0.83099998E+02 -0.25990E+06
 0.83149994E+02 -0.29332E+06
 0.83199997E+02 -0.30610E+06
 0.83249992E+02 -0.29304E+06
 0.83299995E+02 -0.25441E+06
 0.83349998E+02 -0.21175E+06
 0.83399994E+02 -0.20065E+06
 0.83449997E+02 -0.22508E+06
 0.83499992E+02 -0.26389E+06
 0.83549995E+02 -0.29849E+06
 0.83599998E+02 -0.31366E+06
 0.83649994E+02 -0.29673E+06
 0.83699997E+02 -0.25205E+06
 0.83749992E+02 -0.21226E+06
 0.83799995E+02 -0.21289E+06
 0.83849998E+02 -0.25876E+06
 0.83899994E+02 -0.32231E+06
 0.83949997E+02 -0.35875E+06
 0.83999992E+02 -0.33916E+06
 0.84049995E+02 -0.26178E+06
 0.84099998E+02 -0.15396E+06
 0.84149994E+02 -0.32846E+05
 0.84199997E+02  0.10101E+06
 0.84249992E+02  0.23303E+06
 0.84299995E+02  0.33897E+06
 0.84349998E+02  0.40204E+06
 0.84399994E+02  0.42563E+06
 0.84449997E+02  0.44037E+06
 0.84499992E+02  0.47072E+06
 0.84549995E+02  0.51398E+06
 0.84599998E+02  0.56991E+06
 0.84649994E+02  0.61627E+06
 0.84699997E+02  0.63614E+06
 0.84749992E+02  0.62759E+06
 0.84799995E+02  0.57654E+06
 0.84849998E+02  0.49014E+06
 0.84899994E+02  0.39222E+06
 0.84949997E+02  0.30152E+06
 0.84999992E+02  0.24305E+06
 0.85049995E+02  0.22915E+06
 0.85099998E+02  0.24779E+06
 0.85149994E+02  0.27414E+06
 0.85199997E+02  0.27593E+06
 0.85249992E+02  0.23914E+06
 0.85299995E+02  0.17690E+06
 0.85349998E+02  0.11276E+06
 0.85399994E+02  0.67750E+05
 0.85449997E+02  0.45654E+05
 0.85499992E+02  0.32479E+05
 0.85549995E+02  0.29903E+05
 0.85599998E+02  0.38270E+05
 0.85649994E+02  0.49302E+05
 0.85699997E+02  0.56067E+05
 0.85749992E+02  0.53652E+05
 0.85799995E+02  0.46498E+05
 0.85849998E+02  0.60412E+05
 0.85899994E+02  0.11546E+06
 0.85949997E+02  0.19523E+06
 0.85999992E+02  0.27959E+06
 0.86049995E+02  0.35153E+06
 0.86099998E+02  0.39433E+06
 0.86149994E+02  0.40268E+06
 0.86199997E+02  0.39693E+06
 0.86249992E+02  0.40897E+06
 0.86299995E+02  0.45381E+06
 0.86349998E+02  0.53287E+06
 0.86399994E+02  0.63620E+06
 0.86449997E+02  0.72111E+06
 0.86499992E+02  0.77472E+06
 0.86549995E+02  0.82904E+06
 0.86599998E+02  0.89585E+06
 0.86649994E+02  0.95481E+06
 0.86699997E+02  0.99730E+06
 0.86749992E+02  0.10423E+07
 0.86799995E+02  0.10966E+07
 0.86849998E+02  0.11513E+07
 0.86899994E+02  0.12021E+07
 0.86949997E+02  0.12392E+07
 0.86999992E+02  0.12500E+07
 0.87049995E+02  0.12371E+07
 0.87099998E+02  0.12021E+07
 0.87149994E+02  0.11520E+07
 0.87199997E+02  0.10787E+07
 0.87249992E+02  0.98435E+06
 0.87299995E+02  0.88534E+06
 0.87349998E+02  0.78383E+06
 0.87399994E+02  0.69841E+06
 0.87449997E+02  0.63633E+06
 0.87499992E+02  0.58267E+06
 0.87549995E+02  0.50149E+06
 0.87599991E+02  0.38006E+06
 0.87649994E+02  0.25500E+06
 0.87699997E+02  0.15803E+06
 0.87749992E+02  0.10124E+06
 0.87799995E+02  0.72371E+05
 0.87849991E+02  0.50942E+05
 0.87899994E+02  0.27343E+05
 0.87949997E+02  0.29475E+04
 0.87999992E+02 -0.29618E+05
 0.88049995E+02 -0.71909E+05
 0.88099991E+02 -0.11119E+06
 0.88149994E+02 -0.13433E+06
 0.88199997E+02 -0.12861E+06
 0.88249992E+02 -0.92106E+05
 0.88299995E+02 -0.31701E+05
 0.88349991E+02  0.42924E+05
 0.88399994E+02  0.12498E+06
 0.88449997E+02  0.20423E+06
 0.88499992E+02  0.28346E+06
 0.88549995E+02  0.36347E+06
 0.88599991E+02  0.42598E+06
 0.88649994E+02  0.45336E+06
 0.88699997E+02  0.42762E+06
 0.88749992E+02  0.36501E+06
 0.88799995E+02  0.31062E+06
 0.88849991E+02  0.29348E+06
 0.88899994E+02  0.31417E+06
 0.88949997E+02  0.35597E+06
 0.88999992E+02  0.40812E+06
 0.89049995E+02  0.45516E+06
 0.89099991E+02  0.47846E+06
 0.89149994E+02  0.48417E+06
 0.89199997E+02  0.48375E+06
 0.89249992E+02  0.46498E+06
 0.89299995E+02  0.42513E+06
 0.89349991E+02  0.38405E+06
 0.89399994E+02  0.35377E+06
 0.89449997E+02  0.32589E+06
 0.89499992E+02  0.29719E+06
 0.89549995E+02  0.27079E+06
 0.89599991E+02  0.24750E+06
 0.89649994E+02  0.23684E+06
 0.89699997E+02  0.24026E+06
 0.89749992E+02  0.24873E+06
 0.89799995E+02  0.23815E+06
 0.89849991E+02  0.21230E+06
 0.89899994E+02  0.19164E+06
 0.89949997E+02  0.17127E+06
 0.89999992E+02  0.14241E+06
 0.90049995E+02  0.98832E+05
 0.90099991E+02  0.38087E+05
 0.90149994E+02 -0.28740E+05
 0.90199997E+02 -0.87291E+05
 0.90249992E+02 -0.13977E+06
 0.90299995E+02 -0.17938E+06
 0.90349991E+02 -0.20727E+06
 0.90399994E+02 -0.23105E+06
 0.90449997E+02 -0.25677E+06
 0.90499992E+02 -0.27946E+06
 0.90549995E+02 -0.28566E+06
 0.90599991E+02 -0.27568E+06
 0.90649994E+02 -0.25559E+06
 0.90699997E+02 -0.23387E+06
 0.90749992E+02 -0.20777E+06
 0.90799995E+02 -0.16697E+06
 0.90849991E+02 -0.11043E+06
 0.90899994E+02 -0.58823E+05
 0.90949997E+02 -0.34125E+05
 0.90999992E+02 -0.31365E+05
 0.91049995E+02 -0.34167E+05
 0.91099991E+02 -0.29970E+05
 0.91149994E+02 -0.14974E+05
 0.91199997E+02 -0.90656E+04
 0.91249992E+02 -0.11767E+05
 0.91299995E+02 -0.11252E+05
 0.91349991E+02 -0.92026E+04
 0.91399994E+02 -0.88988E+04
 0.91449997E+02 -0.19891E+05
 0.91499992E+02 -0.26031E+05
 0.91549995E+02 -0.13308E+05
 0.91599991E+02  0.52065E+00
 0.91649994E+02 -0.12358E+05
 0.91699997E+02 -0.45733E+05
 0.91749992E+02 -0.75598E+05
 0.91799995E+02 -0.96747E+05
 0.91849991E+02 -0.12339E+06
 0.91899994E+02 -0.16848E+06
 0.91949997E+02 -0.22241E+06
 0.91999992E+02 -0.26658E+06
 0.92049995E+02 -0.30239E+06
 0.92099991E+02 -0.34300E+06
 0.92149994E+02 -0.38190E+06
 0.92199997E+02 -0.40370E+06
 0.92249992E+02 -0.40380E+06
 0.92299995E+02 -0.39250E+06
 0.92349991E+02 -0.37194E+06
 0.92399994E+02 -0.32769E+06
 0.92449997E+02 -0.26163E+06
 0.92499992E+02 -0.17736E+06
 0.92549995E+02 -0.72598E+05
 0.92599991E+02  0.49393E+05
 0.92649994E+02  0.19146E+06
 0.92699997E+02  0.34306E+06
 0.92749992E+02  0.47504E+06
 0.92799995E+02  0.56752E+06
 0.92849991E+02  0.61850E+06
 0.92899994E+02  0.65307E+06
 0.92949997E+02  0.68738E+06
 0.92999992E+02  0.70389E+06
 0.93049995E+02  0.69992E+06
 0.93099991E+02  0.69824E+06
 0.93149994E+02  0.71823E+06
 0.93199997E+02  0.76703E+06
 0.93249992E+02  0.83612E+06
 0.93299995E+02  0.91079E+06
 0.93349991E+02  0.98374E+06
 0.93399994E+02  0.10436E+07
 0.93449997E+02  0.10887E+07
 0.93499992E+02  0.11101E+07
 0.93549995E+02  0.10919E+07
 0.93599991E+02  0.10277E+07
 0.93649994E+02  0.93183E+06
 0.93699997E+02  0.83143E+06
 0.93749992E+02  0.73861E+06
 0.93799995E+02  0.64291E+06
 0.93849991E+02  0.53248E+06
 0.93899994E+02  0.42011E+06
 0.93949997E+02  0.31569E+06
 0.93999992E+02  0.22661E+06
 0.94049995E+02  0.16051E+06
 0.94099991E+02  0.12542E+06
 0.94149994E+02  0.10625E+06
 0.94199997E+02  0.86651E+05
 0.94249992E+02  0.62531E+05
 0.94299995E+02  0.30737E+05
 0.94349991E+02  0.22683E+04
 0.94399994E+02 -0.84060E+04
 0.94449997E+02  0.62248E+04
 0.94499992E+02  0.41666E+05
 0.94549995E+02  0.98245E+05
 0.94599991E+02  0.16945E+06
 0.94649994E+02  0.24276E+06
 0.94699997E+02  0.29834E+06
 0.94749992E+02  0.32803E+06
 0.94799995E+02  0.34450E+06
 0.94849991E+02  0.35038E+06
 0.94899994E+02  0.33972E+06
 0.94949997E+02  0.31349E+06
 0.94999992E+02  0.28945E+06
 0.95049995E+02  0.28369E+06
 0.95099991E+02  0.28961E+06
 0.95149994E+02  0.29056E+06
 0.95199997E+02  0.28291E+06
 0.95249992E+02  0.27638E+06
 0.95299995E+02  0.28991E+06
 0.95349991E+02  0.32918E+06
 0.95399994E+02  0.37414E+06
 0.95449997E+02  0.40847E+06
 0.95499992E+02  0.43194E+06
 0.95549995E+02  0.43773E+06
 0.95599991E+02  0.41405E+06
 0.95649994E+02  0.35977E+06
 0.95699997E+02  0.29263E+06
 0.95749992E+02  0.23855E+06
 0.95799995E+02  0.20455E+06
 0.95849991E+02  0.18113E+06
 0.95899994E+02  0.16367E+06
 0.95949997E+02  0.15870E+06
 0.95999992E+02  0.16027E+06
 0.96049995E+02  0.15041E+06
 0.96099991E+02  0.12313E+06
 0.96149994E+02  0.91305E+05
 0.96199997E+02  0.53014E+05
 0.96249992E+02  0.23735E+03
 0.96299995E+02 -0.51322E+05
 0.96349991E+02 -0.84615E+05
 0.96399994E+02 -0.99446E+05
 0.96449997E+02 -0.11146E+06
 0.96499992E+02 -0.12188E+06
 0.96549995E+02 -0.12986E+06
 0.96599991E+02 -0.14381E+06
 0.96649994E+02 -0.16297E+06
 0.96699997E+02 -0.17461E+06
 0.96749992E+02 -0.16227E+06
 0.96799995E+02 -0.12952E+06
 0.96849991E+02 -0.90039E+05
 0.96899994E+02 -0.48827E+05
 0.96949997E+02 -0.11322E+05
 0.96999992E+02  0.18389E+05
 0.97049995E+02  0.39267E+05
 0.97099991E+02  0.54391E+05
 0.97149994E+02  0.66348E+05
 0.97199997E+02  0.65880E+05
 0.97249992E+02  0.49795E+05
 0.97299995E+02  0.16021E+05
 0.97349991E+02 -0.26809E+05
 0.97399994E+02 -0.60903E+05
 0.97449997E+02 -0.73436E+05
 0.97499992E+02 -0.65027E+05
 0.97549995E+02 -0.50911E+05
 0.97599991E+02 -0.44587E+05
 0.97649994E+02 -0.47450E+05
 0.97699997E+02 -0.46391E+05
 0.97749992E+02 -0.36724E+05
 0.97799995E+02 -0.13105E+05
 0.97849991E+02  0.30337E+05
 0.97899994E+02  0.97233E+05
 0.97949997E+02  0.18306E+06
 0.97999992E+02  0.26666E+06
