-0.19969940E+01 -0.55842E+05
-0.19469941E+01 -0.55543E+05
-0.18969940E+01 -0.55769E+05
-0.18469940E+01 -0.55764E+05
-0.17969940E+01 -0.55766E+05
-0.17469940E+01 -0.55765E+05
-0.16969941E+01 -0.55765E+05
-0.16469941E+01 -0.55771E+05
-0.15969940E+01 -0.55774E+05
-0.15469940E+01 -0.55756E+05
-0.14969940E+01 -0.55752E+05
-0.14469941E+01 -0.55742E+05
-0.13969941E+01 -0.55722E+05
-0.13469940E+01 -0.55714E+05
-0.12969941E+01 -0.55706E+05
-0.12469940E+01 -0.55697E+05
-0.11969941E+01 -0.55689E+05
-0.11469941E+01 -0.55683E+05
-0.10969940E+01 -0.55670E+05
-0.10469941E+01 -0.55668E+05
-0.99699408E+00 -0.55668E+05
-0.94699407E+00 -0.55676E+05
-0.89699411E+00 -0.55697E+05
-0.84699404E+00 -0.55706E+05
-0.79699409E+00 -0.55714E+05
-0.74699414E+00 -0.55719E+05
-0.69699407E+00 -0.55733E+05
-0.64699411E+00 -0.55740E+05
-0.59699416E+00 -0.55749E+05
-0.54699409E+00 -0.55761E+05
-0.49699414E+00 -0.55765E+05
-0.44699407E+00 -0.55774E+05
-0.39699411E+00 -0.55766E+05
-0.34699416E+00 -0.55754E+05
-0.29699409E+00 -0.55741E+05
-0.24699414E+00 -0.55726E+05
-0.19699407E+00 -0.55719E+05
-0.14699411E+00 -0.55719E+05
-0.96994162E-01 -0.55722E+05
-0.46994090E-01 -0.55735E+05
 0.30058622E-02 -0.55744E+05
 0.53005934E-01 -0.55742E+05
 0.10300589E+00 -0.55742E+05
 0.15300584E+00 -0.55738E+05
 0.20300579E+00 -0.55735E+05
 0.25300574E+00 -0.55740E+05
 0.30300593E+00 -0.55740E+05
 0.35300589E+00 -0.55738E+05
 0.40300584E+00 -0.55740E+05
 0.45300579E+00 -0.55735E+05
 0.50300574E+00 -0.55726E+05
 0.55300593E+00 -0.55718E+05
 0.60300589E+00 -0.55723E+05
 0.65300584E+00 -0.55726E+05
 0.70300579E+00 -0.55725E+05
 0.75300574E+00 -0.55729E+05
 0.80300570E+00 -0.55728E+05
 0.85300589E+00 -0.55732E+05
 0.90300584E+00 -0.55739E+05
 0.95300579E+00 -0.55738E+05
 0.10030057E+01 -0.55740E+05
 0.10530057E+01 -0.55739E+05
 0.11030059E+01 -0.55734E+05
 0.11530058E+01 -0.55736E+05
 0.12030058E+01 -0.55731E+05
 0.12530057E+01 -0.55731E+05
 0.13030057E+01 -0.55731E+05
 0.13530059E+01 -0.55725E+05
 0.14030058E+01 -0.55719E+05
 0.14530058E+01 -0.55726E+05
 0.15030057E+01 -0.55738E+05
 0.15530057E+01 -0.55744E+05
 0.16030059E+01 -0.55749E+05
 0.16530058E+01 -0.55747E+05
 0.17030058E+01 -0.55744E+05
 0.17530057E+01 -0.55742E+05
 0.18030057E+01 -0.55739E+05
 0.18530056E+01 -0.55734E+05
 0.19030058E+01 -0.55742E+05
 0.19530058E+01 -0.55749E+05
 0.20030057E+01 -0.55749E+05
 0.20530057E+01 -0.55750E+05
 0.21030059E+01 -0.55747E+05
 0.21530056E+01 -0.55742E+05
 0.22030058E+01 -0.55730E+05
 0.22530055E+01 -0.55727E+05
 0.23030057E+01 -0.55718E+05
 0.23530059E+01 -0.55709E+05
 0.24030056E+01 -0.55711E+05
 0.24530058E+01 -0.55716E+05
 0.25030055E+01 -0.55727E+05
 0.25530057E+01 -0.55737E+05
 0.26030059E+01 -0.55740E+05
 0.26530056E+01 -0.55735E+05
 0.27030058E+01 -0.55735E+05
 0.27530055E+01 -0.55741E+05
 0.28030057E+01 -0.55742E+05
 0.28530059E+01 -0.55741E+05
 0.29030056E+01 -0.55755E+05
 0.29530058E+01 -0.55754E+05
 0.30030055E+01 -0.55751E+05
 0.30530057E+01 -0.55753E+05
 0.31030059E+01 -0.55747E+05
 0.31530056E+01 -0.55753E+05
 0.32030058E+01 -0.55757E+05
 0.32530055E+01 -0.55772E+05
 0.33030057E+01 -0.55779E+05
 0.33530059E+01 -0.55786E+05
 0.34030056E+01 -0.55795E+05
 0.34530058E+01 -0.55795E+05
 0.35030055E+01 -0.55801E+05
 0.35530057E+01 -0.55793E+05
 0.36030054E+01 -0.55778E+05
 0.36530056E+01 -0.55765E+05
 0.37030058E+01 -0.55747E+05
 0.37530055E+01 -0.55735E+05
 0.38030057E+01 -0.55735E+05
 0.38530054E+01 -0.55731E+05
 0.39030056E+01 -0.55728E+05
 0.39530058E+01 -0.55720E+05
 0.40030055E+01 -0.55706E+05
 0.40530057E+01 -0.55689E+05
 0.41030054E+01 -0.55682E+05
 0.41530056E+01 -0.55683E+05
 0.42030058E+01 -0.55685E+05
 0.42530055E+01 -0.55683E+05
 0.43030057E+01 -0.55686E+05
 0.43530054E+01 -0.55693E+05
 0.44030056E+01 -0.55693E+05
 0.44530058E+01 -0.55699E+05
 0.45030055E+01 -0.55712E+05
 0.45530057E+01 -0.55718E+05
 0.46030054E+01 -0.55722E+05
 0.46530056E+01 -0.55726E+05
 0.47030058E+01 -0.55736E+05
 0.47530055E+01 -0.55751E+05
 0.48030057E+01 -0.55767E+05
 0.48530054E+01 -0.55776E+05
 0.49030056E+01 -0.55778E+05
 0.49530058E+01 -0.55777E+05
 0.50030055E+01 -0.55775E+05
 0.50530057E+01 -0.55768E+05
 0.51030054E+01 -0.55756E+05
 0.51530056E+01 -0.55750E+05
 0.52030058E+01 -0.55758E+05
 0.52530055E+01 -0.55753E+05
 0.53030057E+01 -0.55749E+05
 0.53530054E+01 -0.55750E+05
 0.54030056E+01 -0.55735E+05
 0.54530053E+01 -0.55726E+05
 0.55030055E+01 -0.55720E+05
 0.55530057E+01 -0.55718E+05
 0.56030054E+01 -0.55718E+05
 0.56530056E+01 -0.55714E+05
 0.57030053E+01 -0.55720E+05
 0.57530055E+01 -0.55727E+05
 0.58030057E+01 -0.55733E+05
 0.58530054E+01 -0.55745E+05
 0.59030056E+01 -0.55751E+05
 0.59530053E+01 -0.55755E+05
 0.60030055E+01 -0.55757E+05
 0.60530052E+01 -0.55753E+05
 0.61030054E+01 -0.55753E+05
 0.61530056E+01 -0.55751E+05
 0.62030058E+01 -0.55750E+05
 0.62530050E+01 -0.55750E+05
 0.63030052E+01 -0.55746E+05
 0.63530054E+01 -0.55752E+05
 0.64030056E+01 -0.55761E+05
 0.64530058E+01 -0.55756E+05
 0.65030050E+01 -0.55752E+05
 0.65530052E+01 -0.55753E+05
 0.66030054E+01 -0.55752E+05
 0.66530056E+01 -0.55749E+05
 0.67030058E+01 -0.55742E+05
 0.67530050E+01 -0.55736E+05
 0.68030052E+01 -0.55740E+05
 0.68530054E+01 -0.55741E+05
 0.69030056E+01 -0.55739E+05
 0.69530058E+01 -0.55742E+05
 0.70030050E+01 -0.55741E+05
 0.70530052E+01 -0.55741E+05
 0.71030054E+01 -0.55734E+05
 0.71530056E+01 -0.55733E+05
 0.72030058E+01 -0.55730E+05
 0.72530050E+01 -0.55718E+05
 0.73030052E+01 -0.55714E+05
 0.73530054E+01 -0.55710E+05
 0.74030056E+01 -0.55717E+05
 0.74530058E+01 -0.55721E+05
 0.75030050E+01 -0.55722E+05
 0.75530052E+01 -0.55723E+05
 0.76030054E+01 -0.55721E+05
 0.76530056E+01 -0.55724E+05
 0.77030058E+01 -0.55724E+05
 0.77530050E+01 -0.55725E+05
 0.78030052E+01 -0.55730E+05
 0.78530054E+01 -0.55726E+05
 0.79030056E+01 -0.55727E+05
 0.79530058E+01 -0.55720E+05
 0.80030050E+01 -0.55712E+05
 0.80530052E+01 -0.55709E+05
 0.81030054E+01 -0.55695E+05
 0.81530056E+01 -0.55700E+05
 0.82030058E+01 -0.55700E+05
 0.82530050E+01 -0.55704E+05
 0.83030052E+01 -0.55705E+05
 0.83530054E+01 -0.55708E+05
 0.84030056E+01 -0.55726E+05
 0.84530058E+01 -0.55740E+05
 0.85030050E+01 -0.55763E+05
 0.85530052E+01 -0.55768E+05
 0.86030054E+01 -0.55779E+05
 0.86530056E+01 -0.55778E+05
 0.87030058E+01 -0.55790E+05
 0.87530050E+01 -0.55796E+05
 0.88030052E+01 -0.55785E+05
 0.88530054E+01 -0.55788E+05
 0.89030056E+01 -0.55780E+05
 0.89530058E+01 -0.55792E+05
 0.90030050E+01 -0.55780E+05
 0.90530052E+01 -0.55778E+05
 0.91030054E+01 -0.55782E+05
 0.91530056E+01 -0.55767E+05
 0.92030048E+01 -0.55761E+05
 0.92530050E+01 -0.55773E+05
 0.93030052E+01 -0.55766E+05
 0.93530054E+01 -0.55759E+05
 0.94030056E+01 -0.55757E+05
 0.94530048E+01 -0.55761E+05
 0.95030050E+01 -0.55754E+05
 0.95530052E+01 -0.55773E+05
 0.96030054E+01 -0.55771E+05
 0.96530056E+01 -0.55746E+05
 0.97030048E+01 -0.55749E+05
 0.97530050E+01 -0.55764E+05
 0.98030052E+01 -0.55724E+05
 0.98530054E+01 -0.55745E+05
 0.99030056E+01 -0.55752E+05
 0.99530048E+01 -0.55713E+05
 0.10003005E+02 -0.55716E+05
 0.10053005E+02 -0.55715E+05
 0.10103005E+02 -0.55796E+05
 0.10153006E+02 -0.56346E+05
 0.10203005E+02 -0.56827E+05
 0.10253005E+02 -0.56790E+05
 0.10303005E+02 -0.56051E+05
 0.10353005E+02 -0.56283E+05
 0.10403006E+02 -0.55224E+05
 0.10453005E+02 -0.54385E+05
 0.10503005E+02 -0.55090E+05
 0.10553005E+02 -0.55658E+05
 0.10603005E+02 -0.55501E+05
 0.10653006E+02 -0.57460E+05
 0.10703005E+02 -0.59760E+05
 0.10753005E+02 -0.54757E+05
 0.10803005E+02 -0.56496E+05
 0.10853005E+02 -0.58439E+05
 0.10903006E+02 -0.54197E+05
 0.10953005E+02 -0.56083E+05
 0.11003005E+02 -0.62221E+05
 0.11053005E+02 -0.57639E+05
 0.11103005E+02 -0.58792E+05
 0.11153006E+02 -0.55644E+05
 0.11203005E+02 -0.51079E+05
 0.11253005E+02 -0.51294E+05
 0.11303005E+02 -0.59381E+05
 0.11353005E+02 -0.63504E+05
 0.11403006E+02 -0.41667E+05
 0.11453005E+02 -0.65349E+05
 0.11503005E+02 -0.61215E+05
 0.11553005E+02 -0.30478E+05
 0.11603005E+02 -0.57345E+05
 0.11653006E+02 -0.74701E+05
 0.11703005E+02 -0.50405E+05
 0.11753005E+02 -0.43530E+05
 0.11803005E+02 -0.53531E+05
 0.11853005E+02 -0.64768E+05
 0.11903006E+02 -0.48995E+05
 0.11953005E+02 -0.39015E+05
 0.12003005E+02 -0.71999E+05
 0.12053005E+02 -0.54699E+05
 0.12103005E+02 -0.46571E+05
 0.12153006E+02 -0.58915E+05
 0.12203005E+02 -0.55171E+05
 0.12253005E+02 -0.45811E+05
 0.12303005E+02 -0.56563E+05
 0.12353005E+02 -0.58471E+05
 0.12403006E+02 -0.55749E+05
 0.12453005E+02 -0.65859E+05
 0.12503005E+02 -0.58425E+05
 0.12553005E+02 -0.43814E+05
 0.12603005E+02 -0.58642E+05
 0.12653005E+02 -0.67400E+05
 0.12703005E+02 -0.45534E+05
 0.12753005E+02 -0.72459E+05
 0.12803005E+02 -0.59394E+05
 0.12853005E+02 -0.45997E+05
 0.12903005E+02 -0.69773E+05
 0.12953005E+02 -0.55990E+05
 0.13003005E+02 -0.63935E+05
 0.13053005E+02 -0.60462E+05
 0.13103005E+02 -0.41457E+05
 0.13153005E+02 -0.69336E+05
 0.13203005E+02 -0.57728E+05
 0.13253005E+02 -0.40748E+05
 0.13303005E+02 -0.62554E+05
 0.13353005E+02 -0.56216E+05
 0.13403005E+02 -0.59498E+05
 0.13453005E+02 -0.54489E+05
 0.13503005E+02 -0.48796E+05
 0.13553005E+02 -0.50234E+05
 0.13603005E+02 -0.47498E+05
 0.13653005E+02 -0.45768E+05
 0.13703005E+02 -0.48727E+05
 0.13753005E+02 -0.59631E+05
 0.13803005E+02 -0.45835E+05
 0.13853005E+02 -0.56945E+05
 0.13903005E+02 -0.64829E+05
 0.13953005E+02 -0.50954E+05
 0.14003005E+02 -0.59265E+05
 0.14053005E+02 -0.65998E+05
 0.14103004E+02 -0.48621E+05
 0.14153006E+02 -0.59618E+05
 0.14203005E+02 -0.56038E+05
 0.14253004E+02 -0.50811E+05
 0.14303005E+02 -0.62398E+05
 0.14353004E+02 -0.42452E+05
 0.14403006E+02 -0.45493E+05
 0.14453005E+02 -0.68953E+05
 0.14503004E+02 -0.58189E+05
 0.14553005E+02 -0.51568E+05
 0.14603004E+02 -0.70407E+05
 0.14653006E+02 -0.54818E+05
 0.14703005E+02 -0.48279E+05
 0.14753004E+02 -0.62652E+05
 0.14803005E+02 -0.59131E+05
 0.14853004E+02 -0.54217E+05
 0.14903006E+02 -0.67651E+05
 0.14953005E+02 -0.66091E+05
 0.15003004E+02 -0.45613E+05
 0.15053005E+02 -0.53619E+05
 0.15103004E+02 -0.65145E+05
 0.15153006E+02 -0.57382E+05
 0.15203005E+02 -0.64052E+05
 0.15253004E+02 -0.53779E+05
 0.15303005E+02 -0.45925E+05
 0.15353004E+02 -0.65312E+05
 0.15403006E+02 -0.54010E+05
 0.15453005E+02 -0.42731E+05
 0.15503004E+02 -0.69618E+05
 0.15553005E+02 -0.55605E+05
 0.15603004E+02 -0.50262E+05
 0.15653006E+02 -0.55928E+05
 0.15703005E+02 -0.42818E+05
 0.15753004E+02 -0.51026E+05
 0.15803005E+02 -0.54386E+05
 0.15853004E+02 -0.47987E+05
 0.15903006E+02 -0.48899E+05
 0.15953005E+02 -0.70058E+05
 0.16003004E+02 -0.50602E+05
 0.16053005E+02 -0.41517E+05
 0.16103004E+02 -0.66792E+05
 0.16153006E+02 -0.40721E+05
 0.16203005E+02 -0.41523E+05
 0.16253004E+02 -0.79075E+05
 0.16303005E+02 -0.43668E+05
 0.16353004E+02 -0.44741E+05
 0.16403006E+02 -0.79993E+05
 0.16453005E+02 -0.47351E+05
 0.16503004E+02 -0.67654E+05
 0.16553005E+02 -0.72164E+05
 0.16603004E+02 -0.26619E+05
 0.16653006E+02 -0.61417E+05
 0.16703005E+02 -0.63262E+05
 0.16753004E+02 -0.64454E+05
 0.16803005E+02 -0.75915E+05
 0.16853004E+02 -0.51914E+05
 0.16903006E+02 -0.44477E+05
 0.16953005E+02 -0.42515E+05
 0.17003004E+02 -0.53473E+05
 0.17053005E+02 -0.75800E+05
 0.17103004E+02 -0.55440E+05
 0.17153006E+02 -0.44713E+05
 0.17203005E+02 -0.76784E+05
 0.17253004E+02 -0.20714E+05
 0.17303005E+02 -0.16724E+05
 0.17353004E+02 -0.11626E+05
 0.17403006E+02 -0.26854E+05
 0.17453005E+02 -0.14670E+06
 0.17503004E+02 -0.14750E+06
 0.17553005E+02 -0.19262E+05
 0.17603004E+02  0.35712E+04
 0.17653006E+02 -0.10213E+06
 0.17703005E+02 -0.38098E+05
 0.17753004E+02 -0.18214E+05
 0.17803005E+02 -0.67854E+05
 0.17853004E+02 -0.88604E+05
 0.17903006E+02 -0.12704E+06
 0.17953005E+02 -0.11745E+05
 0.18003004E+02 -0.99759E+04
 0.18053005E+02 -0.11281E+06
 0.18103004E+02 -0.48309E+05
 0.18153006E+02 -0.25220E+05
 0.18203005E+02 -0.43792E+05
 0.18253004E+02  0.59075E+04
 0.18303005E+02 -0.39439E+05
 0.18353004E+02 -0.53404E+05
 0.18403006E+02 -0.12102E+05
 0.18453005E+02 -0.61563E+05
 0.18503004E+02 -0.90524E+05
 0.18553005E+02 -0.73638E+05
 0.18603004E+02 -0.79735E+05
 0.18653006E+02 -0.79905E+05
 0.18703005E+02 -0.61605E+05
 0.18753004E+02 -0.65831E+05
 0.18803005E+02 -0.86644E+05
 0.18853004E+02 -0.60961E+05
 0.18903006E+02 -0.87780E+05
 0.18953005E+02 -0.66883E+05
 0.19003004E+02 -0.95608E+04
 0.19053005E+02 -0.51950E+05
 0.19103004E+02 -0.59886E+03
 0.19153006E+02 -0.27384E+05
 0.19203005E+02 -0.12572E+06
 0.19253004E+02 -0.74921E+05
 0.19303005E+02 -0.47976E+05
 0.19353004E+02 -0.10112E+06
 0.19403006E+02 -0.75933E+05
 0.19453005E+02 -0.21041E+05
 0.19503004E+02 -0.16622E+05
 0.19553005E+02 -0.46731E+05
 0.19603004E+02 -0.10123E+06
 0.19653006E+02 -0.93000E+05
 0.19703005E+02 -0.58010E+05
 0.19753004E+02 -0.44958E+05
 0.19803005E+02 -0.45381E+05
 0.19853004E+02 -0.40155E+05
 0.19903006E+02 -0.20404E+05
 0.19953005E+02 -0.31411E+05
 0.20003004E+02 -0.46694E+05
 0.20053005E+02 -0.59825E+05
 0.20103004E+02 -0.60364E+05
 0.20153006E+02 -0.22898E+05
 0.20203005E+02 -0.35508E+05
 0.20253004E+02 -0.35861E+05
 0.20303005E+02 -0.21571E+05
 0.20353004E+02 -0.58536E+05
 0.20403004E+02 -0.52989E+05
 0.20453005E+02 -0.55770E+05
 0.20503004E+02 -0.10917E+06
 0.20553005E+02 -0.86818E+05
 0.20603004E+02 -0.73206E+05
 0.20653004E+02 -0.11365E+06
 0.20703005E+02 -0.77144E+05
 0.20753004E+02 -0.33889E+05
 0.20803005E+02 -0.44980E+05
 0.20853004E+02 -0.54725E+05
 0.20903004E+02 -0.45809E+05
 0.20953005E+02 -0.63800E+05
 0.21003004E+02 -0.73057E+05
 0.21053005E+02 -0.79911E+05
 0.21103004E+02 -0.83382E+05
 0.21153004E+02 -0.51295E+05
 0.21203005E+02 -0.29325E+05
 0.21253004E+02 -0.37133E+05
 0.21303005E+02 -0.32828E+05
 0.21353004E+02 -0.49781E+05
 0.21403004E+02 -0.68160E+05
 0.21453005E+02 -0.48785E+05
 0.21503004E+02 -0.53525E+05
 0.21553005E+02 -0.52935E+05
 0.21603004E+02 -0.45965E+05
 0.21653004E+02 -0.48463E+05
 0.21703005E+02 -0.49496E+05
 0.21753004E+02 -0.42473E+05
 0.21803005E+02 -0.44229E+05
 0.21853004E+02 -0.88547E+05
 0.21903004E+02 -0.60551E+05
 0.21953005E+02 -0.47341E+05
 0.22003004E+02 -0.84752E+05
 0.22053005E+02 -0.47333E+05
 0.22103004E+02 -0.42645E+05
 0.22153004E+02 -0.46958E+05
 0.22203005E+02 -0.36317E+05
 0.22253004E+02 -0.39946E+05
 0.22303005E+02 -0.53594E+05
 0.22353004E+02 -0.72952E+05
 0.22403004E+02 -0.72018E+05
 0.22453005E+02 -0.60179E+05
 0.22503004E+02 -0.62500E+05
 0.22553005E+02 -0.74588E+05
 0.22603004E+02 -0.44019E+05
 0.22653004E+02 -0.30032E+05
 0.22703005E+02 -0.38740E+05
 0.22753004E+02 -0.44052E+05
 0.22803005E+02 -0.69497E+05
 0.22853004E+02 -0.73575E+05
 0.22903004E+02 -0.74580E+05
 0.22953005E+02 -0.75265E+05
 0.23003004E+02 -0.60969E+05
 0.23053005E+02 -0.48123E+05
 0.23103004E+02 -0.69299E+05
 0.23153004E+02 -0.55994E+05
 0.23203005E+02 -0.51715E+05
 0.23253004E+02 -0.61474E+05
 0.23303005E+02 -0.43848E+05
 0.23353004E+02 -0.44322E+05
 0.23403004E+02 -0.60331E+05
 0.23453005E+02 -0.61967E+05
 0.23503004E+02 -0.48253E+05
 0.23553005E+02 -0.64228E+05
 0.23603004E+02 -0.44600E+05
 0.23653004E+02 -0.39408E+05
 0.23703005E+02 -0.54652E+05
 0.23753004E+02 -0.44585E+05
 0.23803005E+02 -0.51917E+05
 0.23853004E+02 -0.80862E+05
 0.23903004E+02 -0.65875E+05
 0.23953005E+02 -0.61608E+05
 0.24003004E+02 -0.86275E+05
 0.24053005E+02 -0.55382E+05
 0.24103004E+02 -0.45818E+05
 0.24153004E+02 -0.41806E+05
 0.24203005E+02 -0.19065E+05
 0.24253004E+02 -0.36892E+05
 0.24303005E+02 -0.33981E+05
 0.24353004E+02 -0.30178E+05
 0.24403004E+02 -0.63336E+05
 0.24453005E+02 -0.66680E+05
 0.24503004E+02 -0.70495E+05
 0.24553005E+02 -0.97669E+05
 0.24603004E+02 -0.87784E+05
 0.24653004E+02 -0.55680E+05
 0.24703005E+02 -0.38675E+05
 0.24753004E+02 -0.31048E+05
 0.24803005E+02 -0.47124E+05
 0.24853004E+02 -0.67398E+05
 0.24903004E+02 -0.57490E+05
 0.24953005E+02 -0.59952E+05
 0.25003004E+02 -0.71917E+05
 0.25053005E+02 -0.55311E+05
 0.25103004E+02 -0.65528E+05
 0.25153004E+02 -0.66997E+05
 0.25203005E+02 -0.52876E+05
 0.25253004E+02 -0.67910E+05
 0.25303005E+02 -0.62596E+05
 0.25353004E+02 -0.45964E+05
 0.25403004E+02 -0.50057E+05
 0.25453005E+02 -0.50000E+05
 0.25503004E+02 -0.43197E+05
 0.25553005E+02 -0.41512E+05
 0.25603004E+02 -0.46266E+05
 0.25653004E+02 -0.54605E+05
 0.25703005E+02 -0.51670E+05
 0.25753004E+02 -0.40497E+05
 0.25803005E+02 -0.45172E+05
 0.25853004E+02 -0.58856E+05
 0.25903004E+02 -0.48349E+05
 0.25953005E+02 -0.58583E+05
 0.26003004E+02 -0.81530E+05
 0.26053005E+02 -0.53607E+05
 0.26103004E+02 -0.44490E+05
 0.26153004E+02 -0.62492E+05
 0.26203005E+02 -0.38882E+05
 0.26253004E+02 -0.38909E+05
 0.26303005E+02 -0.70291E+05
 0.26353004E+02 -0.77694E+05
 0.26403004E+02 -0.70114E+05
 0.26453005E+02 -0.66411E+05
 0.26503004E+02 -0.63688E+05
 0.26553005E+02 -0.39996E+05
 0.26603004E+02 -0.41384E+05
 0.26653004E+02 -0.68532E+05
 0.26703005E+02 -0.62318E+05
 0.26753004E+02 -0.62385E+05
 0.26803005E+02 -0.71221E+05
 0.26853004E+02 -0.63919E+05
 0.26903004E+02 -0.63694E+05
 0.26953005E+02 -0.56497E+05
 0.27003004E+02 -0.44814E+05
 0.27053003E+02 -0.40387E+05
 0.27103004E+02 -0.40003E+05
 0.27153004E+02 -0.42836E+05
 0.27203005E+02 -0.42822E+05
 0.27253004E+02 -0.51694E+05
 0.27303003E+02 -0.52875E+05
 0.27353004E+02 -0.53677E+05
 0.27403004E+02 -0.57432E+05
 0.27453005E+02 -0.42820E+05
 0.27503004E+02 -0.45483E+05
 0.27553003E+02 -0.52267E+05
 0.27603004E+02 -0.53901E+05
 0.27653004E+02 -0.67101E+05
 0.27703005E+02 -0.66224E+05
 0.27753004E+02 -0.70677E+05
 0.27803003E+02 -0.71116E+05
 0.27853004E+02 -0.56462E+05
 0.27903004E+02 -0.76700E+05
 0.27953005E+02 -0.86934E+05
 0.28003004E+02 -0.68849E+05
 0.28053003E+02 -0.74496E+05
 0.28103004E+02 -0.63837E+05
 0.28153004E+02 -0.47318E+05
 0.28203005E+02 -0.58953E+05
 0.28253004E+02 -0.47228E+05
 0.28303003E+02 -0.48108E+05
 0.28353004E+02 -0.51039E+05
 0.28403004E+02 -0.29606E+05
 0.28453005E+02 -0.36987E+05
 0.28503004E+02 -0.32846E+05
 0.28553003E+02 -0.30939E+05
 0.28603004E+02 -0.38172E+05
 0.28653004E+02 -0.37319E+05
 0.28703005E+02 -0.49667E+05
 0.28753004E+02 -0.57085E+05
 0.28803003E+02 -0.65125E+05
 0.28853004E+02 -0.73114E+05
 0.28903004E+02 -0.64848E+05
 0.28953005E+02 -0.64981E+05
 0.29003004E+02 -0.72851E+05
 0.29053003E+02 -0.65433E+05
 0.29103004E+02 -0.68992E+05
 0.29153004E+02 -0.68131E+05
 0.29203005E+02 -0.59613E+05
 0.29253004E+02 -0.55882E+05
 0.29303003E+02 -0.52893E+05
 0.29353004E+02 -0.58947E+05
 0.29403004E+02 -0.60880E+05
 0.29453005E+02 -0.58729E+05
 0.29503004E+02 -0.56184E+05
 0.29553003E+02 -0.53364E+05
 0.29603004E+02 -0.56669E+05
 0.29653004E+02 -0.49434E+05
 0.29703005E+02 -0.39709E+05
 0.29753004E+02 -0.43453E+05
 0.29803003E+02 -0.39581E+05
 0.29853004E+02 -0.35368E+05
 0.29903004E+02 -0.46668E+05
 0.29953005E+02 -0.53187E+05
 0.30003004E+02 -0.53043E+05
 0.30053005E+02 -0.55307E+05
 0.30103004E+02 -0.50566E+05
 0.30153004E+02 -0.59474E+05
 0.30203003E+02 -0.67161E+05
 0.30253002E+02 -0.62354E+05
 0.30303005E+02 -0.70843E+05
 0.30353004E+02 -0.71113E+05
 0.30403004E+02 -0.55959E+05
 0.30453003E+02 -0.49413E+05
 0.30503002E+02 -0.55513E+05
 0.30553005E+02 -0.56451E+05
 0.30603004E+02 -0.64119E+05
 0.30653004E+02 -0.71134E+05
 0.30703003E+02 -0.66454E+05
 0.30753002E+02 -0.61917E+05
 0.30803005E+02 -0.54787E+05
 0.30853004E+02 -0.54886E+05
 0.30903004E+02 -0.48709E+05
 0.30953003E+02 -0.49725E+05
 0.31003002E+02 -0.60945E+05
 0.31053005E+02 -0.57278E+05
 0.31103004E+02 -0.54373E+05
 0.31153004E+02 -0.54849E+05
 0.31203003E+02 -0.53275E+05
 0.31253002E+02 -0.53106E+05
 0.31303005E+02 -0.49963E+05
 0.31353004E+02 -0.50715E+05
 0.31403004E+02 -0.53654E+05
 0.31453003E+02 -0.50609E+05
 0.31503002E+02 -0.51162E+05
 0.31553005E+02 -0.62682E+05
 0.31603004E+02 -0.64364E+05
 0.31653004E+02 -0.57730E+05
 0.31703003E+02 -0.61845E+05
 0.31753002E+02 -0.57353E+05
 0.31803005E+02 -0.46169E+05
 0.31853004E+02 -0.47610E+05
 0.31903004E+02 -0.52449E+05
 0.31953003E+02 -0.48082E+05
 0.32003002E+02 -0.54138E+05
 0.32053005E+02 -0.59987E+05
 0.32103004E+02 -0.55351E+05
 0.32153004E+02 -0.57901E+05
 0.32203003E+02 -0.56884E+05
 0.32253002E+02 -0.52517E+05
 0.32303005E+02 -0.55096E+05
 0.32353004E+02 -0.53051E+05
 0.32403004E+02 -0.47711E+05
 0.32453003E+02 -0.56540E+05
 0.32503002E+02 -0.55468E+05
 0.32553005E+02 -0.47684E+05
 0.32603004E+02 -0.53238E+05
 0.32653004E+02 -0.54135E+05
 0.32703003E+02 -0.54029E+05
 0.32753002E+02 -0.60047E+05
 0.32803005E+02 -0.59226E+05
 0.32853004E+02 -0.58513E+05
 0.32903004E+02 -0.60040E+05
 0.32953003E+02 -0.54918E+05
 0.33003002E+02 -0.54251E+05
 0.33053005E+02 -0.54268E+05
 0.33103004E+02 -0.48844E+05
 0.33153004E+02 -0.52537E+05
 0.33203003E+02 -0.62976E+05
 0.33253002E+02 -0.68934E+05
 0.33303005E+02 -0.68563E+05
 0.33353004E+02 -0.65476E+05
 0.33403004E+02 -0.67321E+05
 0.33453003E+02 -0.63470E+05
 0.33503002E+02 -0.63608E+05
 0.33553005E+02 -0.67465E+05
 0.33603004E+02 -0.60259E+05
 0.33653004E+02 -0.60465E+05
 0.33703003E+02 -0.58896E+05
 0.33753002E+02 -0.50618E+05
 0.33803005E+02 -0.55001E+05
 0.33853004E+02 -0.47458E+05
 0.33903004E+02 -0.46073E+05
 0.33953003E+02 -0.59914E+05
 0.34003002E+02 -0.57686E+05
 0.34053005E+02 -0.56098E+05
 0.34103004E+02 -0.57533E+05
 0.34153004E+02 -0.50488E+05
 0.34203003E+02 -0.39857E+05
 0.34253002E+02 -0.40478E+05
 0.34303005E+02 -0.44168E+05
 0.34353004E+02 -0.43221E+05
 0.34403004E+02 -0.43986E+05
 0.34453003E+02 -0.43574E+05
 0.34503002E+02 -0.42690E+05
 0.34553005E+02 -0.43141E+05
 0.34603004E+02 -0.48674E+05
 0.34653004E+02 -0.59584E+05
 0.34703003E+02 -0.62210E+05
 0.34753002E+02 -0.66218E+05
 0.34803005E+02 -0.66287E+05
 0.34853004E+02 -0.62868E+05
 0.34903004E+02 -0.65795E+05
 0.34953003E+02 -0.62229E+05
 0.35003002E+02 -0.66023E+05
 0.35053005E+02 -0.65497E+05
 0.35103004E+02 -0.61061E+05
 0.35153004E+02 -0.62398E+05
 0.35203003E+02 -0.59887E+05
 0.35253002E+02 -0.56804E+05
 0.35303005E+02 -0.55391E+05
 0.35353004E+02 -0.53807E+05
 0.35403004E+02 -0.54226E+05
 0.35453003E+02 -0.55079E+05
 0.35503002E+02 -0.53518E+05
 0.35553005E+02 -0.53451E+05
 0.35603004E+02 -0.52607E+05
 0.35653004E+02 -0.53504E+05
 0.35703003E+02 -0.55271E+05
 0.35753002E+02 -0.55616E+05
 0.35803005E+02 -0.52740E+05
 0.35853004E+02 -0.52581E+05
 0.35903004E+02 -0.51510E+05
 0.35953003E+02 -0.52311E+05
 0.36003002E+02 -0.53959E+05
 0.36053005E+02 -0.52635E+05
 0.36103004E+02 -0.55123E+05
 0.36153004E+02 -0.58812E+05
 0.36203003E+02 -0.62010E+05
 0.36253002E+02 -0.66588E+05
 0.36303005E+02 -0.67320E+05
 0.36353004E+02 -0.61574E+05
 0.36403004E+02 -0.60247E+05
 0.36453003E+02 -0.53522E+05
 0.36503002E+02 -0.51104E+05
 0.36553005E+02 -0.55738E+05
 0.36603004E+02 -0.53905E+05
 0.36653004E+02 -0.54433E+05
 0.36703003E+02 -0.53425E+05
 0.36753002E+02 -0.49683E+05
 0.36803005E+02 -0.49954E+05
 0.36853004E+02 -0.49369E+05
 0.36903004E+02 -0.49878E+05
 0.36953003E+02 -0.56039E+05
 0.37003002E+02 -0.60676E+05
 0.37053005E+02 -0.59482E+05
 0.37103004E+02 -0.63104E+05
 0.37153004E+02 -0.61663E+05
 0.37203003E+02 -0.56011E+05
 0.37253002E+02 -0.54801E+05
 0.37303005E+02 -0.51077E+05
 0.37353004E+02 -0.50964E+05
 0.37403004E+02 -0.48747E+05
 0.37453003E+02 -0.50143E+05
 0.37503002E+02 -0.53983E+05
 0.37553005E+02 -0.52956E+05
 0.37603004E+02 -0.55651E+05
 0.37653004E+02 -0.56739E+05
 0.37703003E+02 -0.55535E+05
 0.37753002E+02 -0.54868E+05
 0.37803005E+02 -0.55143E+05
 0.37853004E+02 -0.56841E+05
 0.37903004E+02 -0.54413E+05
 0.37953003E+02 -0.58030E+05
 0.38003002E+02 -0.60762E+05
 0.38053005E+02 -0.55968E+05
 0.38103004E+02 -0.57183E+05
 0.38153004E+02 -0.54774E+05
 0.38203003E+02 -0.51607E+05
 0.38253002E+02 -0.57188E+05
 0.38303005E+02 -0.58854E+05
 0.38353004E+02 -0.55869E+05
 0.38403004E+02 -0.55783E+05
 0.38453003E+02 -0.54712E+05
 0.38503002E+02 -0.55963E+05
 0.38553005E+02 -0.58125E+05
 0.38603004E+02 -0.58318E+05
 0.38653004E+02 -0.60456E+05
 0.38703003E+02 -0.57912E+05
 0.38753002E+02 -0.59374E+05
 0.38803005E+02 -0.61033E+05
 0.38853004E+02 -0.57568E+05
 0.38903004E+02 -0.60315E+05
 0.38953003E+02 -0.59797E+05
 0.39003002E+02 -0.54981E+05
 0.39053005E+02 -0.54908E+05
 0.39103004E+02 -0.57188E+05
 0.39153004E+02 -0.57264E+05
 0.39203003E+02 -0.56803E+05
 0.39253002E+02 -0.55663E+05
 0.39303005E+02 -0.49900E+05
 0.39353004E+02 -0.47692E+05
 0.39403004E+02 -0.48716E+05
 0.39453003E+02 -0.49052E+05
 0.39503002E+02 -0.51609E+05
 0.39553005E+02 -0.52619E+05
 0.39603004E+02 -0.52463E+05
 0.39653004E+02 -0.51181E+05
 0.39703003E+02 -0.51852E+05
 0.39753002E+02 -0.57325E+05
 0.39803005E+02 -0.56811E+05
 0.39853004E+02 -0.54202E+05
 0.39903004E+02 -0.61553E+05
 0.39953003E+02 -0.62273E+05
 0.40003002E+02 -0.57581E+05
 0.40053005E+02 -0.59730E+05
 0.40103004E+02 -0.60214E+05
 0.40153004E+02 -0.56161E+05
 0.40203003E+02 -0.54894E+05
 0.40253002E+02 -0.55647E+05
 0.40303005E+02 -0.55739E+05
 0.40353004E+02 -0.57177E+05
 0.40403004E+02 -0.56435E+05
 0.40453003E+02 -0.56211E+05
 0.40503002E+02 -0.58585E+05
 0.40553005E+02 -0.56889E+05
 0.40603004E+02 -0.55126E+05
 0.40653004E+02 -0.55344E+05
 0.40703003E+02 -0.53899E+05
 0.40753002E+02 -0.55338E+05
 0.40803005E+02 -0.57587E+05
 0.40853004E+02 -0.58403E+05
 0.40903004E+02 -0.59220E+05
 0.40953003E+02 -0.58598E+05
 0.41003002E+02 -0.55378E+05
 0.41053005E+02 -0.53161E+05
 0.41103004E+02 -0.53033E+05
 0.41153004E+02 -0.52383E+05
 0.41203003E+02 -0.52749E+05
 0.41253002E+02 -0.53661E+05
 0.41303005E+02 -0.52451E+05
 0.41353004E+02 -0.55564E+05
 0.41403004E+02 -0.54266E+05
 0.41453003E+02 -0.49992E+05
 0.41503002E+02 -0.55931E+05
 0.41553005E+02 -0.56354E+05
 0.41603004E+02 -0.55663E+05
 0.41653004E+02 -0.59750E+05
 0.41703003E+02 -0.57999E+05
 0.41753002E+02 -0.55658E+05
 0.41803005E+02 -0.55835E+05
 0.41853004E+02 -0.56851E+05
 0.41903004E+02 -0.57798E+05
 0.41953003E+02 -0.56648E+05
 0.42003002E+02 -0.54855E+05
 0.42053005E+02 -0.54956E+05
 0.42103004E+02 -0.54805E+05
 0.42153004E+02 -0.53740E+05
 0.42203003E+02 -0.53521E+05
 0.42253002E+02 -0.55092E+05
 0.42303005E+02 -0.56936E+05
 0.42353004E+02 -0.55192E+05
 0.42403004E+02 -0.56996E+05
 0.42453003E+02 -0.58542E+05
 0.42503002E+02 -0.56434E+05
 0.42553005E+02 -0.58680E+05
 0.42603004E+02 -0.57975E+05
 0.42653004E+02 -0.55940E+05
 0.42703003E+02 -0.53189E+05
 0.42753002E+02 -0.51212E+05
 0.42803001E+02 -0.54171E+05
 0.42853004E+02 -0.53724E+05
 0.42903004E+02 -0.53922E+05
 0.42953003E+02 -0.55505E+05
 0.43003002E+02 -0.53782E+05
 0.43053001E+02 -0.53361E+05
 0.43103004E+02 -0.53293E+05
 0.43153004E+02 -0.54257E+05
 0.43203003E+02 -0.57104E+05
 0.43253002E+02 -0.57903E+05
 0.43303001E+02 -0.57400E+05
 0.43353004E+02 -0.57652E+05
 0.43403004E+02 -0.57131E+05
 0.43453003E+02 -0.55371E+05
 0.43503002E+02 -0.56580E+05
 0.43553001E+02 -0.57461E+05
 0.43603004E+02 -0.57955E+05
 0.43653004E+02 -0.59968E+05
 0.43703003E+02 -0.58132E+05
 0.43753002E+02 -0.57262E+05
 0.43803001E+02 -0.57968E+05
 0.43853004E+02 -0.57522E+05
 0.43903004E+02 -0.57280E+05
 0.43953003E+02 -0.54920E+05
 0.44003002E+02 -0.52783E+05
 0.44053001E+02 -0.52587E+05
 0.44103004E+02 -0.52632E+05
 0.44153004E+02 -0.53529E+05
 0.44203003E+02 -0.58042E+05
 0.44253002E+02 -0.56189E+05
 0.44303001E+02 -0.53134E+05
 0.44353004E+02 -0.54788E+05
 0.44403004E+02 -0.52924E+05
 0.44453003E+02 -0.54628E+05
 0.44503002E+02 -0.56090E+05
 0.44553001E+02 -0.54089E+05
 0.44603004E+02 -0.56425E+05
 0.44653004E+02 -0.59183E+05
 0.44703003E+02 -0.58133E+05
 0.44753002E+02 -0.59445E+05
 0.44803001E+02 -0.58158E+05
 0.44853004E+02 -0.56815E+05
 0.44903004E+02 -0.56642E+05
 0.44953003E+02 -0.52515E+05
 0.45003002E+02 -0.51817E+05
 0.45053001E+02 -0.52017E+05
 0.45103004E+02 -0.52177E+05
 0.45153004E+02 -0.55083E+05
 0.45203003E+02 -0.57812E+05
 0.45253002E+02 -0.59806E+05
 0.45303001E+02 -0.61695E+05
 0.45353004E+02 -0.61578E+05
 0.45403004E+02 -0.59349E+05
 0.45453003E+02 -0.58025E+05
 0.45503002E+02 -0.57846E+05
 0.45553001E+02 -0.55560E+05
 0.45603004E+02 -0.53412E+05
 0.45653004E+02 -0.52218E+05
 0.45703003E+02 -0.50247E+05
 0.45753002E+02 -0.51297E+05
 0.45803001E+02 -0.52181E+05
 0.45853004E+02 -0.52182E+05
 0.45903004E+02 -0.52708E+05
 0.45953003E+02 -0.51371E+05
 0.46003002E+02 -0.52767E+05
 0.46053001E+02 -0.54309E+05
 0.46103004E+02 -0.53152E+05
 0.46153004E+02 -0.55315E+05
 0.46203003E+02 -0.57251E+05
 0.46253002E+02 -0.56480E+05
 0.46303001E+02 -0.58743E+05
 0.46353004E+02 -0.60294E+05
 0.46403004E+02 -0.57799E+05
 0.46453003E+02 -0.57187E+05
 0.46503002E+02 -0.58055E+05
 0.46553001E+02 -0.58008E+05
 0.46603004E+02 -0.59362E+05
 0.46653004E+02 -0.61692E+05
 0.46703003E+02 -0.59831E+05
 0.46753002E+02 -0.56231E+05
 0.46803001E+02 -0.55201E+05
 0.46853004E+02 -0.53398E+05
 0.46903004E+02 -0.52216E+05
 0.46953003E+02 -0.52355E+05
 0.47003002E+02 -0.52159E+05
 0.47053001E+02 -0.51835E+05
 0.47103004E+02 -0.53090E+05
 0.47153004E+02 -0.55692E+05
 0.47203003E+02 -0.55847E+05
 0.47253002E+02 -0.57362E+05
 0.47303001E+02 -0.58995E+05
 0.47353004E+02 -0.57645E+05
 0.47403004E+02 -0.56629E+05
 0.47453003E+02 -0.55820E+05
 0.47503002E+02 -0.57050E+05
 0.47553001E+02 -0.58267E+05
 0.47603004E+02 -0.57363E+05
 0.47653004E+02 -0.57087E+05
 0.47703003E+02 -0.57579E+05
 0.47753002E+02 -0.56618E+05
 0.47803001E+02 -0.55415E+05
 0.47853004E+02 -0.54780E+05
 0.47903004E+02 -0.53663E+05
 0.47953003E+02 -0.53343E+05
 0.48003002E+02 -0.53150E+05
 0.48053001E+02 -0.52379E+05
 0.48103004E+02 -0.52937E+05
 0.48153004E+02 -0.53782E+05
 0.48203003E+02 -0.53733E+05
 0.48253002E+02 -0.53840E+05
 0.48303001E+02 -0.54852E+05
 0.48353004E+02 -0.54650E+05
 0.48403004E+02 -0.54334E+05
 0.48453003E+02 -0.54585E+05
 0.48503002E+02 -0.53211E+05
 0.48553001E+02 -0.54433E+05
 0.48603004E+02 -0.55892E+05
 0.48653004E+02 -0.54455E+05
 0.48703003E+02 -0.55398E+05
 0.48753002E+02 -0.56515E+05
 0.48803001E+02 -0.55263E+05
 0.48853004E+02 -0.56061E+05
 0.48903004E+02 -0.57779E+05
 0.48953003E+02 -0.57636E+05
 0.49003002E+02 -0.57220E+05
 0.49053001E+02 -0.58879E+05
 0.49103004E+02 -0.60103E+05
 0.49153004E+02 -0.59257E+05
 0.49203003E+02 -0.58905E+05
 0.49253002E+02 -0.59506E+05
 0.49303001E+02 -0.57680E+05
 0.49353004E+02 -0.56410E+05
 0.49403004E+02 -0.57637E+05
 0.49453003E+02 -0.58990E+05
 0.49503002E+02 -0.59856E+05
 0.49553001E+02 -0.58462E+05
 0.49603004E+02 -0.57025E+05
 0.49653004E+02 -0.55224E+05
 0.49703003E+02 -0.53641E+05
 0.49753002E+02 -0.52276E+05
 0.49803001E+02 -0.51736E+05
 0.49853004E+02 -0.53300E+05
 0.49903004E+02 -0.52931E+05
 0.49953003E+02 -0.54469E+05
 0.50003002E+02 -0.56680E+05
 0.50053001E+02 -0.54699E+05
 0.50103004E+02 -0.54384E+05
 0.50153004E+02 -0.55205E+05
 0.50203003E+02 -0.53625E+05
 0.50253002E+02 -0.52926E+05
 0.50303001E+02 -0.52626E+05
 0.50353004E+02 -0.51409E+05
 0.50403004E+02 -0.52941E+05
 0.50453003E+02 -0.54385E+05
 0.50503002E+02 -0.54828E+05
 0.50553001E+02 -0.56201E+05
 0.50603004E+02 -0.56339E+05
 0.50653004E+02 -0.55259E+05
 0.50703003E+02 -0.55084E+05
 0.50753002E+02 -0.56273E+05
 0.50803001E+02 -0.56728E+05
 0.50853004E+02 -0.57819E+05
 0.50903004E+02 -0.59281E+05
 0.50953003E+02 -0.60109E+05
 0.51003002E+02 -0.59729E+05
 0.51053001E+02 -0.57977E+05
 0.51103004E+02 -0.57772E+05
 0.51153004E+02 -0.56875E+05
 0.51203003E+02 -0.55726E+05
 0.51253002E+02 -0.55701E+05
 0.51303001E+02 -0.55094E+05
 0.51353004E+02 -0.55703E+05
 0.51403004E+02 -0.56622E+05
 0.51453003E+02 -0.57625E+05
 0.51503002E+02 -0.57952E+05
 0.51553001E+02 -0.54959E+05
 0.51603004E+02 -0.51972E+05
 0.51653004E+02 -0.51832E+05
 0.51703003E+02 -0.51196E+05
 0.51753002E+02 -0.51181E+05
 0.51803001E+02 -0.52969E+05
 0.51853004E+02 -0.54047E+05
 0.51903004E+02 -0.53294E+05
 0.51953003E+02 -0.53405E+05
 0.52003002E+02 -0.56158E+05
 0.52053001E+02 -0.56185E+05
 0.52103004E+02 -0.56763E+05
 0.52153004E+02 -0.58426E+05
 0.52203003E+02 -0.57409E+05
 0.52253002E+02 -0.57343E+05
 0.52303001E+02 -0.57964E+05
 0.52353004E+02 -0.57233E+05
 0.52403004E+02 -0.56059E+05
 0.52453003E+02 -0.56371E+05
 0.52503002E+02 -0.56961E+05
 0.52553001E+02 -0.57649E+05
 0.52603004E+02 -0.58452E+05
 0.52653004E+02 -0.56726E+05
 0.52703003E+02 -0.55181E+05
 0.52753002E+02 -0.54303E+05
 0.52803001E+02 -0.52881E+05
 0.52853004E+02 -0.53343E+05
 0.52903004E+02 -0.54670E+05
 0.52953003E+02 -0.54645E+05
 0.53003002E+02 -0.54655E+05
 0.53053001E+02 -0.54377E+05
 0.53103004E+02 -0.52829E+05
 0.53153004E+02 -0.52176E+05
 0.53203003E+02 -0.52259E+05
 0.53253002E+02 -0.54109E+05
 0.53303001E+02 -0.54899E+05
 0.53353004E+02 -0.55248E+05
 0.53403004E+02 -0.57744E+05
 0.53453003E+02 -0.57254E+05
 0.53503002E+02 -0.57417E+05
 0.53553001E+02 -0.60647E+05
 0.53603004E+02 -0.60869E+05
 0.53653004E+02 -0.59427E+05
 0.53703003E+02 -0.59697E+05
 0.53753002E+02 -0.59467E+05
 0.53803001E+02 -0.58076E+05
 0.53853004E+02 -0.58124E+05
 0.53903004E+02 -0.59064E+05
 0.53953003E+02 -0.58562E+05
 0.54003002E+02 -0.58616E+05
 0.54053001E+02 -0.57622E+05
 0.54103004E+02 -0.55543E+05
 0.54153004E+02 -0.54481E+05
 0.54203003E+02 -0.53633E+05
 0.54253002E+02 -0.53301E+05
 0.54303001E+02 -0.52289E+05
 0.54353004E+02 -0.50948E+05
 0.54403004E+02 -0.49721E+05
 0.54453003E+02 -0.48665E+05
 0.54503002E+02 -0.49144E+05
 0.54553001E+02 -0.50850E+05
 0.54603004E+02 -0.52472E+05
 0.54653004E+02 -0.54886E+05
 0.54703003E+02 -0.57044E+05
 0.54753002E+02 -0.56637E+05
 0.54803001E+02 -0.55451E+05
 0.54853004E+02 -0.55724E+05
 0.54903004E+02 -0.56206E+05
 0.54953003E+02 -0.55829E+05
 0.55003002E+02 -0.55985E+05
 0.55053001E+02 -0.56287E+05
 0.55103004E+02 -0.55447E+05
 0.55153004E+02 -0.55388E+05
 0.55203003E+02 -0.55850E+05
 0.55253002E+02 -0.56359E+05
 0.55303001E+02 -0.57167E+05
 0.55353004E+02 -0.56839E+05
 0.55403004E+02 -0.57012E+05
 0.55453003E+02 -0.57676E+05
 0.55503002E+02 -0.57702E+05
 0.55553001E+02 -0.57867E+05
 0.55603004E+02 -0.57837E+05
 0.55653004E+02 -0.57290E+05
 0.55703003E+02 -0.56012E+05
 0.55753002E+02 -0.55070E+05
 0.55803001E+02 -0.55735E+05
 0.55853001E+02 -0.56975E+05
 0.55903004E+02 -0.57322E+05
 0.55953003E+02 -0.57423E+05
 0.56003002E+02 -0.57785E+05
 0.56053001E+02 -0.57307E+05
 0.56103001E+02 -0.56668E+05
 0.56153004E+02 -0.56176E+05
 0.56203003E+02 -0.56300E+05
 0.56253002E+02 -0.56087E+05
 0.56303001E+02 -0.54904E+05
 0.56353001E+02 -0.54585E+05
 0.56403004E+02 -0.54269E+05
 0.56453003E+02 -0.54041E+05
 0.56503002E+02 -0.55286E+05
 0.56553001E+02 -0.55049E+05
 0.56603001E+02 -0.53789E+05
 0.56653004E+02 -0.54111E+05
 0.56703003E+02 -0.53439E+05
 0.56753002E+02 -0.52971E+05
 0.56803001E+02 -0.53695E+05
 0.56853001E+02 -0.54018E+05
 0.56903004E+02 -0.54536E+05
 0.56953003E+02 -0.55203E+05
 0.57003002E+02 -0.56029E+05
 0.57053001E+02 -0.56156E+05
 0.57103001E+02 -0.56001E+05
 0.57153004E+02 -0.55204E+05
 0.57203003E+02 -0.54250E+05
 0.57253002E+02 -0.54696E+05
 0.57303001E+02 -0.55469E+05
 0.57353001E+02 -0.56022E+05
 0.57403004E+02 -0.56479E+05
 0.57453003E+02 -0.57327E+05
 0.57503002E+02 -0.57489E+05
 0.57553001E+02 -0.57201E+05
 0.57603001E+02 -0.57673E+05
 0.57653004E+02 -0.57174E+05
 0.57703003E+02 -0.55704E+05
 0.57753002E+02 -0.54785E+05
 0.57803001E+02 -0.53971E+05
 0.57853001E+02 -0.53831E+05
 0.57903004E+02 -0.54458E+05
 0.57953003E+02 -0.55035E+05
 0.58003002E+02 -0.55994E+05
 0.58053001E+02 -0.56425E+05
 0.58103001E+02 -0.56141E+05
 0.58153004E+02 -0.56598E+05
 0.58203003E+02 -0.56734E+05
 0.58253002E+02 -0.56114E+05
 0.58303001E+02 -0.56573E+05
 0.58353001E+02 -0.56958E+05
 0.58403004E+02 -0.56390E+05
 0.58453003E+02 -0.55756E+05
 0.58503002E+02 -0.55084E+05
 0.58553001E+02 -0.55204E+05
 0.58603001E+02 -0.55549E+05
 0.58653004E+02 -0.56030E+05
 0.58703003E+02 -0.56424E+05
 0.58753002E+02 -0.55543E+05
 0.58803001E+02 -0.55139E+05
 0.58853001E+02 -0.54814E+05
 0.58903004E+02 -0.54219E+05
 0.58953003E+02 -0.55264E+05
 0.59003002E+02 -0.56297E+05
 0.59053001E+02 -0.56271E+05
 0.59103001E+02 -0.55773E+05
 0.59153004E+02 -0.55833E+05
 0.59203003E+02 -0.56393E+05
 0.59253002E+02 -0.56209E+05
 0.59303001E+02 -0.55841E+05
 0.59353001E+02 -0.55537E+05
 0.59403004E+02 -0.55411E+05
 0.59453003E+02 -0.56061E+05
 0.59503002E+02 -0.56820E+05
 0.59553001E+02 -0.56932E+05
 0.59603001E+02 -0.56610E+05
 0.59653004E+02 -0.56015E+05
 0.59703003E+02 -0.55406E+05
 0.59753002E+02 -0.54829E+05
 0.59803001E+02 -0.54558E+05
 0.59853001E+02 -0.54518E+05
 0.59903004E+02 -0.54581E+05
 0.59953003E+02 -0.54779E+05
 0.60003002E+02 -0.54063E+05
 0.60053001E+02 -0.53094E+05
 0.60103001E+02 -0.53090E+05
 0.60153004E+02 -0.53094E+05
 0.60203003E+02 -0.53388E+05
 0.60253002E+02 -0.54745E+05
 0.60303001E+02 -0.56150E+05
 0.60353001E+02 -0.56823E+05
 0.60403004E+02 -0.57250E+05
 0.60453003E+02 -0.57038E+05
 0.60503002E+02 -0.57062E+05
 0.60553001E+02 -0.57647E+05
 0.60603001E+02 -0.57208E+05
 0.60653004E+02 -0.56943E+05
 0.60703003E+02 -0.57177E+05
 0.60753002E+02 -0.57022E+05
 0.60803001E+02 -0.57332E+05
 0.60853001E+02 -0.57328E+05
 0.60903004E+02 -0.56385E+05
 0.60953003E+02 -0.55737E+05
 0.61003002E+02 -0.55062E+05
 0.61053001E+02 -0.54846E+05
 0.61103001E+02 -0.55467E+05
 0.61153004E+02 -0.55738E+05
 0.61203003E+02 -0.55565E+05
 0.61253002E+02 -0.55687E+05
 0.61303001E+02 -0.55574E+05
 0.61353001E+02 -0.55199E+05
 0.61403004E+02 -0.55689E+05
 0.61453003E+02 -0.55585E+05
 0.61503002E+02 -0.55271E+05
 0.61553001E+02 -0.55322E+05
 0.61603001E+02 -0.54778E+05
 0.61653004E+02 -0.55032E+05
 0.61703003E+02 -0.55677E+05
 0.61753002E+02 -0.55943E+05
 0.61803001E+02 -0.56184E+05
 0.61853001E+02 -0.55774E+05
 0.61903004E+02 -0.55005E+05
 0.61953003E+02 -0.54992E+05
 0.62003002E+02 -0.55432E+05
 0.62053001E+02 -0.55348E+05
 0.62103004E+02 -0.55330E+05
 0.62153000E+02 -0.56057E+05
 0.62203003E+02 -0.55728E+05
 0.62252998E+02 -0.55295E+05
 0.62303001E+02 -0.55966E+05
 0.62353004E+02 -0.55968E+05
 0.62403000E+02 -0.55748E+05
 0.62453003E+02 -0.55847E+05
 0.62502998E+02 -0.55563E+05
 0.62553001E+02 -0.55129E+05
 0.62603004E+02 -0.54677E+05
 0.62653000E+02 -0.54616E+05
 0.62703003E+02 -0.54973E+05
 0.62752998E+02 -0.55160E+05
 0.62803001E+02 -0.55764E+05
 0.62853004E+02 -0.56025E+05
 0.62903000E+02 -0.55858E+05
 0.62953003E+02 -0.55770E+05
 0.63002998E+02 -0.55688E+05
 0.63053001E+02 -0.55590E+05
 0.63103004E+02 -0.55974E+05
 0.63153000E+02 -0.56579E+05
 0.63203003E+02 -0.56367E+05
 0.63252998E+02 -0.56001E+05
 0.63303001E+02 -0.55297E+05
 0.63353004E+02 -0.54525E+05
 0.63403000E+02 -0.54814E+05
 0.63453003E+02 -0.55380E+05
 0.63502998E+02 -0.55970E+05
 0.63553001E+02 -0.56738E+05
 0.63603004E+02 -0.57066E+05
 0.63653000E+02 -0.57000E+05
 0.63703003E+02 -0.56567E+05
 0.63752998E+02 -0.56307E+05
 0.63803001E+02 -0.56320E+05
 0.63853004E+02 -0.56312E+05
 0.63903000E+02 -0.55856E+05
 0.63953003E+02 -0.55185E+05
 0.64002998E+02 -0.54664E+05
 0.64053001E+02 -0.54319E+05
 0.64103004E+02 -0.55046E+05
 0.64153000E+02 -0.55183E+05
 0.64203003E+02 -0.54589E+05
 0.64252998E+02 -0.54791E+05
 0.64303001E+02 -0.54832E+05
 0.64353004E+02 -0.54225E+05
 0.64403000E+02 -0.53834E+05
 0.64453003E+02 -0.53831E+05
 0.64502998E+02 -0.54111E+05
 0.64553001E+02 -0.54843E+05
 0.64603004E+02 -0.55456E+05
 0.64653000E+02 -0.55882E+05
 0.64703003E+02 -0.55916E+05
 0.64752998E+02 -0.55928E+05
 0.64803001E+02 -0.56739E+05
 0.64853004E+02 -0.57186E+05
 0.64903000E+02 -0.57099E+05
 0.64953003E+02 -0.57506E+05
 0.65002998E+02 -0.58026E+05
 0.65053001E+02 -0.57728E+05
 0.65103004E+02 -0.57337E+05
 0.65153000E+02 -0.57059E+05
 0.65203003E+02 -0.56322E+05
 0.65252998E+02 -0.55523E+05
 0.65303001E+02 -0.54703E+05
 0.65353004E+02 -0.54087E+05
 0.65403000E+02 -0.54051E+05
 0.65453003E+02 -0.54265E+05
 0.65502998E+02 -0.53981E+05
 0.65553001E+02 -0.54072E+05
 0.65603004E+02 -0.55219E+05
 0.65653000E+02 -0.55848E+05
 0.65703003E+02 -0.55758E+05
 0.65752998E+02 -0.56292E+05
 0.65803001E+02 -0.56126E+05
 0.65853004E+02 -0.55545E+05
 0.65903000E+02 -0.55558E+05
 0.65953003E+02 -0.55826E+05
 0.66002998E+02 -0.56037E+05
 0.66053001E+02 -0.55457E+05
 0.66103004E+02 -0.55045E+05
 0.66153000E+02 -0.55055E+05
 0.66203003E+02 -0.54992E+05
 0.66252998E+02 -0.55168E+05
 0.66303001E+02 -0.55325E+05
 0.66353004E+02 -0.55609E+05
 0.66403000E+02 -0.56239E+05
 0.66453003E+02 -0.56051E+05
 0.66502998E+02 -0.55337E+05
 0.66553001E+02 -0.55397E+05
 0.66603004E+02 -0.55970E+05
 0.66653000E+02 -0.56767E+05
 0.66703003E+02 -0.57484E+05
 0.66752998E+02 -0.57407E+05
 0.66803001E+02 -0.57021E+05
 0.66853004E+02 -0.56927E+05
 0.66903000E+02 -0.56736E+05
 0.66953003E+02 -0.56412E+05
 0.67002998E+02 -0.56656E+05
 0.67053001E+02 -0.56725E+05
 0.67103004E+02 -0.56197E+05
 0.67153000E+02 -0.55912E+05
 0.67203003E+02 -0.55678E+05
 0.67252998E+02 -0.55345E+05
 0.67303001E+02 -0.55768E+05
 0.67353004E+02 -0.56442E+05
 0.67403000E+02 -0.56203E+05
 0.67453003E+02 -0.55854E+05
 0.67502998E+02 -0.55126E+05
 0.67553001E+02 -0.54154E+05
 0.67603004E+02 -0.53496E+05
 0.67653000E+02 -0.53606E+05
 0.67703003E+02 -0.54550E+05
 0.67752998E+02 -0.54632E+05
 0.67803001E+02 -0.54642E+05
 0.67853004E+02 -0.54865E+05
 0.67903000E+02 -0.54775E+05
 0.67953003E+02 -0.55196E+05
 0.68002998E+02 -0.55634E+05
 0.68053001E+02 -0.56102E+05
 0.68103004E+02 -0.56568E+05
 0.68153000E+02 -0.56746E+05
 0.68203003E+02 -0.56952E+05
 0.68252998E+02 -0.56703E+05
 0.68303001E+02 -0.56079E+05
 0.68353004E+02 -0.55142E+05
 0.68403000E+02 -0.54414E+05
 0.68453003E+02 -0.54463E+05
 0.68502998E+02 -0.54566E+05
 0.68553001E+02 -0.54871E+05
 0.68603004E+02 -0.55177E+05
 0.68653000E+02 -0.54804E+05
 0.68703003E+02 -0.55063E+05
 0.68752998E+02 -0.55874E+05
 0.68803001E+02 -0.56293E+05
 0.68853004E+02 -0.56612E+05
 0.68903000E+02 -0.56633E+05
 0.68953003E+02 -0.56601E+05
 0.69002998E+02 -0.56270E+05
 0.69053001E+02 -0.55651E+05
 0.69103004E+02 -0.55368E+05
 0.69153000E+02 -0.55364E+05
 0.69203003E+02 -0.55446E+05
 0.69252998E+02 -0.55352E+05
 0.69303001E+02 -0.55071E+05
 0.69353004E+02 -0.54943E+05
 0.69403000E+02 -0.54934E+05
 0.69453003E+02 -0.55310E+05
 0.69502998E+02 -0.55840E+05
 0.69553001E+02 -0.56188E+05
 0.69603004E+02 -0.56721E+05
 0.69653000E+02 -0.57049E+05
 0.69703003E+02 -0.56786E+05
 0.69752998E+02 -0.55925E+05
 0.69803001E+02 -0.55235E+05
 0.69853004E+02 -0.54963E+05
 0.69903000E+02 -0.54684E+05
 0.69953003E+02 -0.54745E+05
 0.70002998E+02 -0.54962E+05
 0.70053001E+02 -0.54954E+05
 0.70103004E+02 -0.55085E+05
 0.70153000E+02 -0.55521E+05
 0.70203003E+02 -0.55637E+05
 0.70252998E+02 -0.55412E+05
 0.70303001E+02 -0.55452E+05
 0.70353004E+02 -0.55780E+05
 0.70403000E+02 -0.56307E+05
 0.70453003E+02 -0.56716E+05
 0.70502998E+02 -0.56756E+05
 0.70553001E+02 -0.56536E+05
 0.70603004E+02 -0.56375E+05
 0.70653000E+02 -0.56124E+05
 0.70703003E+02 -0.55817E+05
 0.70752998E+02 -0.55706E+05
 0.70803001E+02 -0.55451E+05
 0.70853004E+02 -0.55250E+05
 0.70903000E+02 -0.54897E+05
 0.70953003E+02 -0.54922E+05
 0.71002998E+02 -0.55162E+05
 0.71053001E+02 -0.55514E+05
 0.71103004E+02 -0.56493E+05
 0.71153000E+02 -0.56669E+05
 0.71203003E+02 -0.56592E+05
 0.71252998E+02 -0.56573E+05
 0.71303001E+02 -0.56248E+05
 0.71353004E+02 -0.55947E+05
 0.71403000E+02 -0.55230E+05
 0.71453003E+02 -0.54708E+05
 0.71502998E+02 -0.54622E+05
 0.71553001E+02 -0.54477E+05
 0.71603004E+02 -0.54271E+05
 0.71653000E+02 -0.54469E+05
 0.71703003E+02 -0.55117E+05
 0.71752998E+02 -0.55752E+05
 0.71803001E+02 -0.56400E+05
 0.71853004E+02 -0.57212E+05
 0.71903000E+02 -0.57659E+05
 0.71953003E+02 -0.57509E+05
 0.72002998E+02 -0.56968E+05
 0.72053001E+02 -0.56463E+05
 0.72103004E+02 -0.55883E+05
 0.72153000E+02 -0.55187E+05
 0.72203003E+02 -0.55040E+05
 0.72252998E+02 -0.54730E+05
 0.72303001E+02 -0.54220E+05
 0.72353004E+02 -0.54178E+05
 0.72403000E+02 -0.54569E+05
 0.72453003E+02 -0.55207E+05
 0.72502998E+02 -0.55779E+05
 0.72553001E+02 -0.56027E+05
 0.72603004E+02 -0.55939E+05
 0.72653000E+02 -0.55825E+05
 0.72703003E+02 -0.55444E+05
 0.72752998E+02 -0.55240E+05
 0.72803001E+02 -0.55462E+05
 0.72853004E+02 -0.55334E+05
 0.72903000E+02 -0.55109E+05
 0.72953003E+02 -0.54964E+05
 0.73002998E+02 -0.54662E+05
 0.73053001E+02 -0.54512E+05
 0.73103004E+02 -0.54925E+05
 0.73153000E+02 -0.55409E+05
 0.73203003E+02 -0.55790E+05
 0.73252998E+02 -0.56122E+05
 0.73303001E+02 -0.56172E+05
 0.73353004E+02 -0.56197E+05
 0.73403000E+02 -0.56176E+05
 0.73453003E+02 -0.56076E+05
 0.73502998E+02 -0.56251E+05
 0.73553001E+02 -0.56713E+05
 0.73603004E+02 -0.57189E+05
 0.73653000E+02 -0.57693E+05
 0.73703003E+02 -0.57796E+05
 0.73752998E+02 -0.57449E+05
 0.73803001E+02 -0.56951E+05
 0.73853004E+02 -0.56509E+05
 0.73903000E+02 -0.55956E+05
 0.73953003E+02 -0.55498E+05
 0.74002998E+02 -0.55336E+05
 0.74053001E+02 -0.55109E+05
 0.74103004E+02 -0.55105E+05
 0.74153000E+02 -0.55052E+05
 0.74203003E+02 -0.54722E+05
 0.74252998E+02 -0.54467E+05
 0.74303001E+02 -0.54238E+05
 0.74353004E+02 -0.54149E+05
 0.74403000E+02 -0.54456E+05
 0.74453003E+02 -0.55054E+05
 0.74502998E+02 -0.55693E+05
 0.74553001E+02 -0.55883E+05
 0.74603004E+02 -0.56013E+05
 0.74653000E+02 -0.55977E+05
 0.74703003E+02 -0.55513E+05
 0.74752998E+02 -0.55327E+05
 0.74803001E+02 -0.55157E+05
 0.74853004E+02 -0.55086E+05
 0.74903000E+02 -0.55599E+05
 0.74953003E+02 -0.55813E+05
 0.75002998E+02 -0.55810E+05
 0.75053001E+02 -0.55987E+05
 0.75103004E+02 -0.55537E+05
 0.75153000E+02 -0.55384E+05
 0.75203003E+02 -0.55746E+05
 0.75252998E+02 -0.55753E+05
 0.75303001E+02 -0.55805E+05
 0.75353004E+02 -0.55979E+05
 0.75403000E+02 -0.55843E+05
 0.75453003E+02 -0.55593E+05
 0.75502998E+02 -0.55430E+05
 0.75553001E+02 -0.55327E+05
 0.75603004E+02 -0.55498E+05
 0.75653000E+02 -0.55753E+05
 0.75703003E+02 -0.55947E+05
 0.75752998E+02 -0.56255E+05
 0.75803001E+02 -0.56534E+05
 0.75853004E+02 -0.56690E+05
 0.75903000E+02 -0.57123E+05
 0.75953003E+02 -0.57286E+05
 0.76002998E+02 -0.57034E+05
 0.76053001E+02 -0.56722E+05
 0.76103004E+02 -0.56339E+05
 0.76153000E+02 -0.56111E+05
 0.76203003E+02 -0.55964E+05
 0.76252998E+02 -0.55843E+05
 0.76303001E+02 -0.55507E+05
 0.76353004E+02 -0.55075E+05
 0.76403000E+02 -0.54878E+05
 0.76453003E+02 -0.54774E+05
 0.76502998E+02 -0.54780E+05
 0.76553001E+02 -0.54946E+05
 0.76603004E+02 -0.55003E+05
 0.76653000E+02 -0.54941E+05
 0.76703003E+02 -0.54819E+05
 0.76752998E+02 -0.54442E+05
 0.76803001E+02 -0.54139E+05
 0.76853004E+02 -0.54251E+05
 0.76903000E+02 -0.54317E+05
 0.76953003E+02 -0.54409E+05
 0.77002998E+02 -0.54642E+05
 0.77053001E+02 -0.54869E+05
 0.77103004E+02 -0.55246E+05
 0.77153000E+02 -0.55549E+05
 0.77203003E+02 -0.55747E+05
 0.77252998E+02 -0.55607E+05
 0.77303001E+02 -0.55566E+05
 0.77353004E+02 -0.55898E+05
 0.77403000E+02 -0.56173E+05
 0.77453003E+02 -0.56450E+05
 0.77502998E+02 -0.56297E+05
 0.77553001E+02 -0.56250E+05
 0.77603004E+02 -0.56463E+05
 0.77653000E+02 -0.56548E+05
 0.77703003E+02 -0.56522E+05
 0.77752998E+02 -0.56411E+05
 0.77803001E+02 -0.56538E+05
 0.77853004E+02 -0.56538E+05
 0.77903000E+02 -0.56260E+05
 0.77953003E+02 -0.56096E+05
 0.78002998E+02 -0.55990E+05
 0.78053001E+02 -0.55774E+05
 0.78103004E+02 -0.55528E+05
 0.78153000E+02 -0.55433E+05
 0.78203003E+02 -0.55257E+05
 0.78252998E+02 -0.54713E+05
 0.78303001E+02 -0.54431E+05
 0.78353004E+02 -0.54620E+05
 0.78403000E+02 -0.54840E+05
 0.78453003E+02 -0.55188E+05
 0.78502998E+02 -0.55806E+05
 0.78553001E+02 -0.56314E+05
 0.78603004E+02 -0.56410E+05
 0.78653000E+02 -0.56199E+05
 0.78703003E+02 -0.56148E+05
 0.78752998E+02 -0.56275E+05
 0.78803001E+02 -0.56254E+05
 0.78853004E+02 -0.56386E+05
 0.78903000E+02 -0.56505E+05
 0.78953003E+02 -0.56359E+05
 0.79002998E+02 -0.56309E+05
 0.79053001E+02 -0.56051E+05
 0.79103004E+02 -0.55910E+05
 0.79153000E+02 -0.56108E+05
 0.79203003E+02 -0.56017E+05
 0.79252998E+02 -0.56025E+05
 0.79303001E+02 -0.56314E+05
 0.79353004E+02 -0.56399E+05
 0.79403000E+02 -0.56314E+05
 0.79453003E+02 -0.56082E+05
 0.79502998E+02 -0.55598E+05
 0.79553001E+02 -0.55311E+05
 0.79603004E+02 -0.55349E+05
 0.79653000E+02 -0.55425E+05
 0.79703003E+02 -0.55537E+05
 0.79752998E+02 -0.55561E+05
 0.79803001E+02 -0.55486E+05
 0.79853004E+02 -0.55449E+05
 0.79903000E+02 -0.55419E+05
 0.79953003E+02 -0.55503E+05
 0.80002998E+02 -0.55406E+05
 0.80053001E+02 -0.55211E+05
 0.80103004E+02 -0.55122E+05
 0.80153000E+02 -0.55004E+05
 0.80203003E+02 -0.54978E+05
 0.80252998E+02 -0.54988E+05
 0.80303001E+02 -0.55009E+05
 0.80353004E+02 -0.54995E+05
 0.80403000E+02 -0.55016E+05
 0.80453003E+02 -0.55154E+05
 0.80502998E+02 -0.55226E+05
 0.80553001E+02 -0.55215E+05
 0.80603004E+02 -0.55166E+05
 0.80653000E+02 -0.55053E+05
 0.80703003E+02 -0.55078E+05
 0.80752998E+02 -0.55227E+05
 0.80803001E+02 -0.55577E+05
 0.80853004E+02 -0.56009E+05
 0.80903000E+02 -0.56178E+05
 0.80953003E+02 -0.56176E+05
 0.81002998E+02 -0.55981E+05
 0.81053001E+02 -0.55706E+05
 0.81103004E+02 -0.55529E+05
 0.81153000E+02 -0.55597E+05
 0.81203003E+02 -0.56048E+05
 0.81252998E+02 -0.56503E+05
 0.81303001E+02 -0.56626E+05
 0.81353004E+02 -0.56883E+05
 0.81403000E+02 -0.57121E+05
 0.81453003E+02 -0.56818E+05
 0.81502998E+02 -0.56398E+05
 0.81553001E+02 -0.56013E+05
 0.81603004E+02 -0.55583E+05
 0.81653000E+02 -0.55489E+05
 0.81703003E+02 -0.55597E+05
 0.81752998E+02 -0.55546E+05
 0.81803001E+02 -0.55468E+05
 0.81853004E+02 -0.55321E+05
 0.81903000E+02 -0.55301E+05
 0.81953003E+02 -0.55405E+05
 0.82002998E+02 -0.55174E+05
 0.82053001E+02 -0.55115E+05
 0.82103004E+02 -0.55327E+05
 0.82153000E+02 -0.55322E+05
 0.82203003E+02 -0.55407E+05
 0.82252998E+02 -0.55460E+05
 0.82303001E+02 -0.55331E+05
 0.82353004E+02 -0.55230E+05
 0.82403000E+02 -0.55149E+05
 0.82453003E+02 -0.55308E+05
 0.82502998E+02 -0.55514E+05
 0.82553001E+02 -0.55528E+05
 0.82603004E+02 -0.55490E+05
 0.82653000E+02 -0.55562E+05
 0.82703003E+02 -0.55759E+05
 0.82752998E+02 -0.56041E+05
 0.82803001E+02 -0.56274E+05
 0.82853004E+02 -0.56505E+05
 0.82903000E+02 -0.56658E+05
 0.82953003E+02 -0.56454E+05
 0.83002998E+02 -0.56302E+05
 0.83053001E+02 -0.56242E+05
 0.83103004E+02 -0.56000E+05
 0.83153000E+02 -0.55700E+05
 0.83203003E+02 -0.55774E+05
 0.83252998E+02 -0.55939E+05
 0.83303001E+02 -0.55764E+05
 0.83353004E+02 -0.55572E+05
 0.83403000E+02 -0.55460E+05
 0.83453003E+02 -0.55360E+05
 0.83502998E+02 -0.55278E+05
 0.83553001E+02 -0.55296E+05
 0.83603004E+02 -0.55357E+05
 0.83653000E+02 -0.55383E+05
 0.83703003E+02 -0.55298E+05
 0.83752998E+02 -0.55323E+05
 0.83803001E+02 -0.55421E+05
 0.83853004E+02 -0.55298E+05
 0.83903000E+02 -0.55191E+05
 0.83953003E+02 -0.55184E+05
 0.84002998E+02 -0.55290E+05
 0.84053001E+02 -0.55596E+05
 0.84103004E+02 -0.55873E+05
 0.84153000E+02 -0.55914E+05
 0.84203003E+02 -0.55980E+05
 0.84252998E+02 -0.56210E+05
 0.84303001E+02 -0.56277E+05
 0.84353004E+02 -0.56279E+05
 0.84403000E+02 -0.56338E+05
 0.84453003E+02 -0.56356E+05
 0.84502998E+02 -0.56570E+05
 0.84553001E+02 -0.56678E+05
 0.84603004E+02 -0.56422E+05
 0.84653000E+02 -0.56185E+05
 0.84703003E+02 -0.55938E+05
 0.84752998E+02 -0.55556E+05
 0.84803001E+02 -0.55515E+05
 0.84853004E+02 -0.55612E+05
 0.84903000E+02 -0.55558E+05
 0.84953003E+02 -0.55767E+05
 0.85002998E+02 -0.56109E+05
 0.85053001E+02 -0.56136E+05
 0.85103004E+02 -0.55977E+05
 0.85153000E+02 -0.55926E+05
 0.85203003E+02 -0.55750E+05
 0.85252998E+02 -0.55524E+05
 0.85303001E+02 -0.55352E+05
 0.85353004E+02 -0.55206E+05
 0.85403000E+02 -0.55160E+05
 0.85453003E+02 -0.55104E+05
 0.85502998E+02 -0.55055E+05
 0.85553001E+02 -0.55085E+05
 0.85603004E+02 -0.55200E+05
 0.85653000E+02 -0.55137E+05
 0.85703003E+02 -0.54957E+05
 0.85752998E+02 -0.55024E+05
 0.85803001E+02 -0.55182E+05
 0.85853004E+02 -0.55244E+05
 0.85903000E+02 -0.55337E+05
 0.85953003E+02 -0.55586E+05
 0.86002998E+02 -0.55865E+05
 0.86053001E+02 -0.56092E+05
 0.86103004E+02 -0.56223E+05
 0.86153000E+02 -0.56115E+05
 0.86203003E+02 -0.56038E+05
 0.86252998E+02 -0.55913E+05
 0.86303001E+02 -0.55622E+05
 0.86353004E+02 -0.55530E+05
 0.86403000E+02 -0.55438E+05
 0.86453003E+02 -0.55430E+05
 0.86502998E+02 -0.55783E+05
 0.86553001E+02 -0.55839E+05
 0.86603004E+02 -0.55566E+05
 0.86653000E+02 -0.55540E+05
 0.86703003E+02 -0.55568E+05
 0.86752998E+02 -0.55782E+05
 0.86803001E+02 -0.56155E+05
 0.86853004E+02 -0.56228E+05
 0.86903000E+02 -0.56305E+05
 0.86953003E+02 -0.56363E+05
 0.87002998E+02 -0.56334E+05
 0.87053001E+02 -0.56323E+05
 0.87103004E+02 -0.56187E+05
 0.87153000E+02 -0.56068E+05
 0.87203003E+02 -0.55835E+05
 0.87252998E+02 -0.55553E+05
 0.87303001E+02 -0.55423E+05
 0.87353004E+02 -0.55372E+05
 0.87403000E+02 -0.55227E+05
 0.87453003E+02 -0.55087E+05
 0.87502998E+02 -0.55251E+05
 0.87553001E+02 -0.55267E+05
 0.87602997E+02 -0.55186E+05
 0.87653000E+02 -0.55286E+05
 0.87703003E+02 -0.55435E+05
 0.87752998E+02 -0.55772E+05
 0.87803001E+02 -0.56103E+05
 0.87852997E+02 -0.56301E+05
 0.87903000E+02 -0.56385E+05
 0.87953003E+02 -0.56210E+05
 0.88002998E+02 -0.55845E+05
 0.88053001E+02 -0.55530E+05
 0.88102997E+02 -0.55306E+05
 0.88153000E+02 -0.55160E+05
 0.88203003E+02 -0.55131E+05
 0.88252998E+02 -0.55256E+05
 0.88303001E+02 -0.55480E+05
 0.88352997E+02 -0.55825E+05
 0.88403000E+02 -0.56029E+05
 0.88453003E+02 -0.55996E+05
 0.88502998E+02 -0.55960E+05
 0.88553001E+02 -0.55752E+05
 0.88602997E+02 -0.55753E+05
 0.88653000E+02 -0.56036E+05
 0.88703003E+02 -0.56095E+05
 0.88752998E+02 -0.56145E+05
 0.88803001E+02 -0.56182E+05
 0.88852997E+02 -0.55925E+05
 0.88903000E+02 -0.55575E+05
 0.88953003E+02 -0.55329E+05
 0.89002998E+02 -0.55244E+05
 0.89053001E+02 -0.55480E+05
 0.89102997E+02 -0.55804E+05
 0.89153000E+02 -0.56057E+05
 0.89203003E+02 -0.56277E+05
 0.89252998E+02 -0.56259E+05
 0.89303001E+02 -0.56099E+05
 0.89352997E+02 -0.55939E+05
 0.89403000E+02 -0.55816E+05
 0.89453003E+02 -0.55744E+05
 0.89502998E+02 -0.55742E+05
 0.89553001E+02 -0.55811E+05
 0.89602997E+02 -0.55813E+05
 0.89653000E+02 -0.55750E+05
 0.89703003E+02 -0.55734E+05
 0.89752998E+02 -0.55651E+05
 0.89803001E+02 -0.55619E+05
 0.89852997E+02 -0.55578E+05
 0.89903000E+02 -0.55358E+05
 0.89953003E+02 -0.55278E+05
 0.90002998E+02 -0.55331E+05
 0.90053001E+02 -0.55337E+05
 0.90102997E+02 -0.55306E+05
 0.90153000E+02 -0.55273E+05
 0.90203003E+02 -0.55115E+05
 0.90252998E+02 -0.55039E+05
 0.90303001E+02 -0.55214E+05
 0.90352997E+02 -0.55349E+05
 0.90403000E+02 -0.55470E+05
 0.90453003E+02 -0.55794E+05
 0.90502998E+02 -0.55984E+05
 0.90553001E+02 -0.55937E+05
 0.90602997E+02 -0.56078E+05
 0.90653000E+02 -0.56207E+05
 0.90703003E+02 -0.56096E+05
 0.90752998E+02 -0.55923E+05
 0.90803001E+02 -0.55864E+05
 0.90852997E+02 -0.55883E+05
 0.90903000E+02 -0.55822E+05
 0.90953003E+02 -0.55835E+05
 0.91002998E+02 -0.55851E+05
 0.91053001E+02 -0.55756E+05
 0.91102997E+02 -0.55704E+05
 0.91153000E+02 -0.55773E+05
 0.91203003E+02 -0.55940E+05
 0.91252998E+02 -0.56015E+05
 0.91303001E+02 -0.55922E+05
 0.91352997E+02 -0.55893E+05
 0.91403000E+02 -0.55903E+05
 0.91453003E+02 -0.55836E+05
 0.91502998E+02 -0.55898E+05
 0.91553001E+02 -0.56002E+05
 0.91602997E+02 -0.55914E+05
 0.91653000E+02 -0.55847E+05
 0.91703003E+02 -0.55952E+05
 0.91752998E+02 -0.55949E+05
 0.91803001E+02 -0.55843E+05
 0.91852997E+02 -0.55704E+05
 0.91903000E+02 -0.55614E+05
 0.91953003E+02 -0.55753E+05
 0.92002998E+02 -0.55792E+05
 0.92053001E+02 -0.55644E+05
 0.92102997E+02 -0.55476E+05
 0.92153000E+02 -0.55197E+05
 0.92203003E+02 -0.55132E+05
 0.92252998E+02 -0.55406E+05
 0.92303001E+02 -0.55545E+05
 0.92352997E+02 -0.55475E+05
 0.92403000E+02 -0.55396E+05
 0.92453003E+02 -0.55510E+05
 0.92502998E+02 -0.55623E+05
 0.92553001E+02 -0.55523E+05
 0.92602997E+02 -0.55600E+05
 0.92653000E+02 -0.55666E+05
 0.92703003E+02 -0.55618E+05
 0.92752998E+02 -0.55809E+05
 0.92803001E+02 -0.55998E+05
 0.92852997E+02 -0.56058E+05
 0.92903000E+02 -0.55958E+05
 0.92953003E+02 -0.55815E+05
 0.93002998E+02 -0.55859E+05
 0.93053001E+02 -0.55889E+05
 0.93102997E+02 -0.55983E+05
 0.93153000E+02 -0.56045E+05
 0.93203003E+02 -0.55928E+05
 0.93252998E+02 -0.55774E+05
 0.93303001E+02 -0.55635E+05
 0.93352997E+02 -0.55529E+05
 0.93403000E+02 -0.55504E+05
 0.93453003E+02 -0.55551E+05
 0.93502998E+02 -0.55522E+05
 0.93553001E+02 -0.55608E+05
 0.93602997E+02 -0.55701E+05
 0.93653000E+02 -0.55782E+05
 0.93703003E+02 -0.56094E+05
 0.93752998E+02 -0.56428E+05
 0.93803001E+02 -0.56614E+05
 0.93852997E+02 -0.56643E+05
 0.93903000E+02 -0.56602E+05
 0.93953003E+02 -0.56506E+05
 0.94002998E+02 -0.56152E+05
 0.94053001E+02 -0.55728E+05
 0.94102997E+02 -0.55412E+05
 0.94153000E+02 -0.55227E+05
 0.94203003E+02 -0.55220E+05
 0.94252998E+02 -0.55288E+05
 0.94303001E+02 -0.55525E+05
 0.94352997E+02 -0.55641E+05
 0.94403000E+02 -0.55548E+05
 0.94453003E+02 -0.55424E+05
 0.94502998E+02 -0.55306E+05
 0.94553001E+02 -0.55312E+05
 0.94602997E+02 -0.55440E+05
 0.94653000E+02 -0.55526E+05
 0.94703003E+02 -0.55538E+05
 0.94752998E+02 -0.55524E+05
 0.94803001E+02 -0.55423E+05
 0.94852997E+02 -0.55360E+05
 0.94903000E+02 -0.55370E+05
 0.94953003E+02 -0.55500E+05
 0.95002998E+02 -0.55675E+05
 0.95053001E+02 -0.55574E+05
 0.95102997E+02 -0.55529E+05
 0.95153000E+02 -0.55698E+05
 0.95203003E+02 -0.55715E+05
 0.95252998E+02 -0.55783E+05
 0.95303001E+02 -0.55925E+05
 0.95352997E+02 -0.56022E+05
 0.95403000E+02 -0.56220E+05
 0.95453003E+02 -0.56369E+05
 0.95502998E+02 -0.56356E+05
 0.95553001E+02 -0.56315E+05
 0.95602997E+02 -0.56143E+05
 0.95653000E+02 -0.55818E+05
 0.95703003E+02 -0.55642E+05
 0.95752998E+02 -0.55618E+05
 0.95803001E+02 -0.55726E+05
 0.95852997E+02 -0.55850E+05
 0.95903000E+02 -0.55769E+05
 0.95953003E+02 -0.55611E+05
 0.96002998E+02 -0.55443E+05
 0.96053001E+02 -0.55310E+05
 0.96102997E+02 -0.55363E+05
 0.96153000E+02 -0.55429E+05
 0.96203003E+02 -0.55298E+05
 0.96252998E+02 -0.55259E+05
 0.96303001E+02 -0.55319E+05
 0.96352997E+02 -0.55324E+05
 0.96403000E+02 -0.55404E+05
 0.96453003E+02 -0.55522E+05
 0.96502998E+02 -0.55725E+05
 0.96553001E+02 -0.56006E+05
 0.96602997E+02 -0.56150E+05
 0.96653000E+02 -0.56126E+05
 0.96703003E+02 -0.56088E+05
 0.96752998E+02 -0.56106E+05
 0.96803001E+02 -0.56261E+05
 0.96852997E+02 -0.56375E+05
 0.96903000E+02 -0.56428E+05
 0.96953003E+02 -0.56570E+05
 0.97002998E+02 -0.56554E+05
 0.97053001E+02 -0.56346E+05
 0.97102997E+02 -0.56196E+05
 0.97153000E+02 -0.56151E+05
 0.97203003E+02 -0.56070E+05
 0.97252998E+02 -0.56008E+05
 0.97303001E+02 -0.55864E+05
 0.97352997E+02 -0.55514E+05
 0.97403000E+02 -0.55218E+05
 0.97453003E+02 -0.55075E+05
 0.97502998E+02 -0.54969E+05
 0.97553001E+02 -0.55055E+05
 0.97602997E+02 -0.55151E+05
 0.97653000E+02 -0.55016E+05
 0.97703003E+02 -0.54976E+05
 0.97752998E+02 -0.55096E+05
 0.97803001E+02 -0.55266E+05
 0.97852997E+02 -0.55502E+05
 0.97903000E+02 -0.55624E+05
 0.97953003E+02 -0.55640E+05
 0.98002998E+02 -0.55619E+05
