-0.20000000E+01 -0.11074E+04
-0.19500000E+01 -0.11023E+04
-0.19000000E+01 -0.11112E+04
-0.18500000E+01 -0.11081E+04
-0.18000000E+01 -0.11132E+04
-0.17500000E+01 -0.11064E+04
-0.17000000E+01 -0.10920E+04
-0.16500001E+01 -0.10816E+04
-0.16000000E+01 -0.10764E+04
-0.15500000E+01 -0.10767E+04
-0.15000000E+01 -0.10758E+04
-0.14500000E+01 -0.10751E+04
-0.14000001E+01 -0.10757E+04
-0.13500000E+01 -0.10778E+04
-0.13000001E+01 -0.10824E+04
-0.12500000E+01 -0.10883E+04
-0.12000000E+01 -0.10853E+04
-0.11500001E+01 -0.10882E+04
-0.11000000E+01 -0.10823E+04
-0.10500001E+01 -0.10823E+04
-0.10000000E+01 -0.10826E+04
-0.95000005E+00 -0.10788E+04
-0.90000010E+00 -0.10863E+04
-0.85000002E+00 -0.10936E+04
-0.80000007E+00 -0.10920E+04
-0.75000012E+00 -0.10924E+04
-0.70000005E+00 -0.10912E+04
-0.65000010E+00 -0.10893E+04
-0.60000014E+00 -0.10879E+04
-0.55000007E+00 -0.10789E+04
-0.50000012E+00 -0.10835E+04
-0.45000005E+00 -0.10851E+04
-0.40000010E+00 -0.10883E+04
-0.35000014E+00 -0.10852E+04
-0.30000007E+00 -0.10808E+04
-0.25000012E+00 -0.10778E+04
-0.20000005E+00 -0.10679E+04
-0.15000010E+00 -0.10644E+04
-0.10000014E+00 -0.10601E+04
-0.50000072E-01 -0.10621E+04
-0.11920929E-06 -0.10690E+04
 0.49999952E-01 -0.10724E+04
 0.99999905E-01 -0.10820E+04
 0.14999986E+00 -0.10858E+04
 0.19999981E+00 -0.10827E+04
 0.24999976E+00 -0.10882E+04
 0.29999995E+00 -0.10852E+04
 0.34999990E+00 -0.10863E+04
 0.39999986E+00 -0.10832E+04
 0.44999981E+00 -0.10781E+04
 0.49999976E+00 -0.10735E+04
 0.54999995E+00 -0.10612E+04
 0.59999990E+00 -0.10574E+04
 0.64999986E+00 -0.10561E+04
 0.69999981E+00 -0.10559E+04
 0.74999976E+00 -0.10572E+04
 0.79999971E+00 -0.10499E+04
 0.84999990E+00 -0.10466E+04
 0.89999986E+00 -0.10427E+04
 0.94999981E+00 -0.10385E+04
 0.99999976E+00 -0.10441E+04
 0.10499997E+01 -0.10479E+04
 0.10999999E+01 -0.10553E+04
 0.11499999E+01 -0.10556E+04
 0.11999998E+01 -0.10597E+04
 0.12499998E+01 -0.10656E+04
 0.12999997E+01 -0.10626E+04
 0.13499999E+01 -0.10621E+04
 0.13999999E+01 -0.10567E+04
 0.14499998E+01 -0.10566E+04
 0.14999998E+01 -0.10528E+04
 0.15499997E+01 -0.10525E+04
 0.15999999E+01 -0.10630E+04
 0.16499999E+01 -0.10704E+04
 0.16999998E+01 -0.10847E+04
 0.17499998E+01 -0.10828E+04
 0.17999997E+01 -0.10862E+04
 0.18499997E+01 -0.10905E+04
 0.18999999E+01 -0.10914E+04
 0.19499998E+01 -0.10975E+04
 0.19999998E+01 -0.10958E+04
 0.20499997E+01 -0.11003E+04
 0.20999999E+01 -0.11007E+04
 0.21499996E+01 -0.10996E+04
 0.21999998E+01 -0.11013E+04
 0.22499995E+01 -0.10998E+04
 0.22999997E+01 -0.11013E+04
 0.23499999E+01 -0.11011E+04
 0.23999996E+01 -0.10972E+04
 0.24499998E+01 -0.10980E+04
 0.24999995E+01 -0.10933E+04
 0.25499997E+01 -0.10895E+04
 0.25999999E+01 -0.10901E+04
 0.26499996E+01 -0.10914E+04
 0.26999998E+01 -0.10921E+04
 0.27499995E+01 -0.10926E+04
 0.27999997E+01 -0.10932E+04
 0.28499999E+01 -0.10925E+04
 0.28999996E+01 -0.10896E+04
 0.29499998E+01 -0.10879E+04
 0.29999995E+01 -0.10862E+04
 0.30499997E+01 -0.10835E+04
 0.30999999E+01 -0.10792E+04
 0.31499996E+01 -0.10717E+04
 0.31999998E+01 -0.10721E+04
 0.32499995E+01 -0.10742E+04
 0.32999997E+01 -0.10728E+04
 0.33499999E+01 -0.10729E+04
 0.33999996E+01 -0.10717E+04
 0.34499998E+01 -0.10638E+04
 0.34999995E+01 -0.10626E+04
 0.35499997E+01 -0.10555E+04
 0.35999994E+01 -0.10574E+04
 0.36499996E+01 -0.10646E+04
 0.36999998E+01 -0.10658E+04
 0.37499995E+01 -0.10763E+04
 0.37999997E+01 -0.10731E+04
 0.38499994E+01 -0.10713E+04
 0.38999996E+01 -0.10698E+04
 0.39499998E+01 -0.10725E+04
 0.39999995E+01 -0.10727E+04
 0.40499997E+01 -0.10691E+04
 0.40999994E+01 -0.10708E+04
 0.41499996E+01 -0.10746E+04
 0.41999998E+01 -0.10834E+04
 0.42499995E+01 -0.10861E+04
 0.42999997E+01 -0.10878E+04
 0.43499994E+01 -0.10860E+04
 0.43999996E+01 -0.10832E+04
 0.44499998E+01 -0.10844E+04
 0.44999995E+01 -0.10850E+04
 0.45499997E+01 -0.10873E+04
 0.45999994E+01 -0.10914E+04
 0.46499996E+01 -0.10925E+04
 0.46999998E+01 -0.10978E+04
 0.47499995E+01 -0.10985E+04
 0.47999997E+01 -0.11015E+04
 0.48499994E+01 -0.11029E+04
 0.48999996E+01 -0.10946E+04
 0.49499998E+01 -0.10932E+04
 0.49999995E+01 -0.10876E+04
 0.50499997E+01 -0.10782E+04
 0.50999994E+01 -0.10687E+04
 0.51499996E+01 -0.10584E+04
 0.51999998E+01 -0.10577E+04
 0.52499995E+01 -0.10537E+04
 0.52999997E+01 -0.10546E+04
 0.53499994E+01 -0.10553E+04
 0.53999996E+01 -0.10570E+04
 0.54499993E+01 -0.10635E+04
 0.54999995E+01 -0.10692E+04
 0.55499997E+01 -0.10771E+04
 0.55999994E+01 -0.10829E+04
 0.56499996E+01 -0.10839E+04
 0.56999993E+01 -0.10817E+04
 0.57499995E+01 -0.10861E+04
 0.57999997E+01 -0.10868E+04
 0.58499994E+01 -0.10911E+04
 0.58999996E+01 -0.10862E+04
 0.59499993E+01 -0.10824E+04
 0.59999995E+01 -0.10798E+04
 0.60499992E+01 -0.10746E+04
 0.60999994E+01 -0.10727E+04
 0.61499996E+01 -0.10738E+04
 0.61999998E+01 -0.10736E+04
 0.62499990E+01 -0.10704E+04
 0.62999992E+01 -0.10693E+04
 0.63499994E+01 -0.10710E+04
 0.63999996E+01 -0.10777E+04
 0.64499998E+01 -0.10773E+04
 0.64999990E+01 -0.10779E+04
 0.65499992E+01 -0.10780E+04
 0.65999994E+01 -0.10804E+04
 0.66499996E+01 -0.10753E+04
 0.66999998E+01 -0.10750E+04
 0.67499990E+01 -0.10769E+04
 0.67999992E+01 -0.10771E+04
 0.68499994E+01 -0.10765E+04
 0.68999996E+01 -0.10744E+04
 0.69499998E+01 -0.10694E+04
 0.69999990E+01 -0.10683E+04
 0.70499992E+01 -0.10682E+04
 0.70999994E+01 -0.10700E+04
 0.71499996E+01 -0.10734E+04
 0.71999998E+01 -0.10736E+04
 0.72499990E+01 -0.10818E+04
 0.72999992E+01 -0.10776E+04
 0.73499994E+01 -0.10855E+04
 0.73999996E+01 -0.10833E+04
 0.74499998E+01 -0.10899E+04
 0.74999990E+01 -0.10891E+04
 0.75499992E+01 -0.10859E+04
 0.75999994E+01 -0.10922E+04
 0.76499996E+01 -0.10895E+04
 0.76999998E+01 -0.10974E+04
 0.77499990E+01 -0.10993E+04
 0.77999992E+01 -0.11000E+04
 0.78499994E+01 -0.11011E+04
 0.78999996E+01 -0.11026E+04
 0.79499998E+01 -0.10989E+04
 0.79999990E+01 -0.11009E+04
 0.80499992E+01 -0.10958E+04
 0.80999994E+01 -0.10931E+04
 0.81499996E+01 -0.10847E+04
 0.81999998E+01 -0.10812E+04
 0.82499990E+01 -0.10779E+04
 0.82999992E+01 -0.10737E+04
 0.83499994E+01 -0.10782E+04
 0.83999996E+01 -0.10790E+04
 0.84499998E+01 -0.10878E+04
 0.84999990E+01 -0.10915E+04
 0.85499992E+01 -0.10916E+04
 0.85999994E+01 -0.10853E+04
 0.86499996E+01 -0.10783E+04
 0.86999998E+01 -0.10711E+04
 0.87499990E+01 -0.10658E+04
 0.87999992E+01 -0.10599E+04
 0.88499994E+01 -0.10532E+04
 0.88999996E+01 -0.10512E+04
 0.89499998E+01 -0.10486E+04
 0.89999990E+01 -0.10514E+04
 0.90499992E+01 -0.10543E+04
 0.90999994E+01 -0.10564E+04
 0.91499996E+01 -0.10605E+04
 0.91999989E+01 -0.10587E+04
 0.92499990E+01 -0.10635E+04
 0.92999992E+01 -0.10671E+04
 0.93499994E+01 -0.10659E+04
 0.93999996E+01 -0.10713E+04
 0.94499989E+01 -0.10712E+04
 0.94999990E+01 -0.10731E+04
 0.95499992E+01 -0.10768E+04
 0.95999994E+01 -0.10785E+04
 0.96499996E+01 -0.10769E+04
 0.96999989E+01 -0.10751E+04
 0.97499990E+01 -0.10738E+04
 0.97999992E+01 -0.10752E+04
 0.98499994E+01 -0.10779E+04
 0.98999996E+01 -0.10777E+04
 0.99499989E+01 -0.10785E+04
 0.99999990E+01 -0.10841E+04
 0.10049999E+02 -0.10909E+04
 0.10099999E+02 -0.10940E+04
 0.10150000E+02 -0.10989E+04
 0.10199999E+02 -0.10948E+04
 0.10249999E+02 -0.10888E+04
 0.10299999E+02 -0.10825E+04
 0.10349999E+02 -0.10742E+04
 0.10400000E+02 -0.10726E+04
 0.10449999E+02 -0.10682E+04
 0.10499999E+02 -0.10633E+04
 0.10549999E+02 -0.10584E+04
 0.10599999E+02 -0.10499E+04
 0.10650000E+02 -0.10466E+04
 0.10699999E+02 -0.10453E+04
 0.10749999E+02 -0.10461E+04
 0.10799999E+02 -0.10531E+04
 0.10849999E+02 -0.10571E+04
 0.10900000E+02 -0.10643E+04
 0.10949999E+02 -0.10668E+04
 0.10999999E+02 -0.10704E+04
 0.11049999E+02 -0.10804E+04
 0.11099999E+02 -0.10784E+04
 0.11150000E+02 -0.10843E+04
 0.11199999E+02 -0.10854E+04
 0.11249999E+02 -0.10817E+04
 0.11299999E+02 -0.10825E+04
 0.11349999E+02 -0.10827E+04
 0.11400000E+02 -0.10787E+04
 0.11449999E+02 -0.10683E+04
 0.11499999E+02 -0.10653E+04
 0.11549999E+02 -0.10593E+04
 0.11599999E+02 -0.10588E+04
 0.11650000E+02 -0.10594E+04
 0.11699999E+02 -0.10601E+04
 0.11749999E+02 -0.10662E+04
 0.11799999E+02 -0.10657E+04
 0.11849999E+02 -0.10691E+04
 0.11900000E+02 -0.10717E+04
 0.11949999E+02 -0.10712E+04
 0.11999999E+02 -0.10748E+04
 0.12049999E+02 -0.10875E+04
 0.12099999E+02 -0.10939E+04
 0.12150000E+02 -0.10988E+04
 0.12199999E+02 -0.11028E+04
 0.12249999E+02 -0.10960E+04
 0.12299999E+02 -0.11006E+04
 0.12349999E+02 -0.10955E+04
 0.12400000E+02 -0.10920E+04
 0.12449999E+02 -0.10939E+04
 0.12499999E+02 -0.10895E+04
 0.12549999E+02 -0.10881E+04
 0.12599999E+02 -0.10869E+04
 0.12649999E+02 -0.10834E+04
 0.12699999E+02 -0.10811E+04
 0.12749999E+02 -0.10867E+04
 0.12799999E+02 -0.10884E+04
 0.12849999E+02 -0.10873E+04
 0.12899999E+02 -0.10873E+04
 0.12949999E+02 -0.10825E+04
 0.12999999E+02 -0.10871E+04
 0.13049999E+02 -0.10870E+04
 0.13099999E+02 -0.10836E+04
 0.13149999E+02 -0.10831E+04
 0.13199999E+02 -0.10772E+04
 0.13249999E+02 -0.10754E+04
 0.13299999E+02 -0.10689E+04
 0.13349999E+02 -0.10648E+04
 0.13399999E+02 -0.10642E+04
 0.13449999E+02 -0.10616E+04
 0.13499999E+02 -0.10600E+04
 0.13549999E+02 -0.10656E+04
 0.13599999E+02 -0.10667E+04
 0.13649999E+02 -0.10713E+04
 0.13699999E+02 -0.10751E+04
 0.13749999E+02 -0.10776E+04
 0.13799999E+02 -0.10776E+04
 0.13849999E+02 -0.10762E+04
 0.13899999E+02 -0.10766E+04
 0.13949999E+02 -0.10724E+04
 0.13999999E+02 -0.10746E+04
 0.14049999E+02 -0.10761E+04
 0.14099998E+02 -0.10810E+04
 0.14150000E+02 -0.10831E+04
 0.14199999E+02 -0.10847E+04
 0.14249998E+02 -0.10880E+04
 0.14299999E+02 -0.10867E+04
 0.14349998E+02 -0.10856E+04
 0.14400000E+02 -0.10879E+04
 0.14449999E+02 -0.10866E+04
 0.14499998E+02 -0.10875E+04
 0.14549999E+02 -0.10824E+04
 0.14599998E+02 -0.10808E+04
 0.14650000E+02 -0.10810E+04
 0.14699999E+02 -0.10799E+04
 0.14749998E+02 -0.10862E+04
 0.14799999E+02 -0.10863E+04
 0.14849998E+02 -0.10878E+04
 0.14900000E+02 -0.10892E+04
 0.14949999E+02 -0.10920E+04
 0.14999998E+02 -0.10933E+04
 0.15049999E+02 -0.10934E+04
 0.15099998E+02 -0.10875E+04
 0.15150000E+02 -0.10826E+04
 0.15199999E+02 -0.10742E+04
 0.15249998E+02 -0.10615E+04
 0.15299999E+02 -0.10577E+04
 0.15349998E+02 -0.10546E+04
 0.15400000E+02 -0.10552E+04
 0.15449999E+02 -0.10559E+04
 0.15499998E+02 -0.10573E+04
 0.15549999E+02 -0.10568E+04
 0.15599998E+02 -0.10586E+04
 0.15650000E+02 -0.10577E+04
 0.15699999E+02 -0.10646E+04
 0.15749998E+02 -0.10688E+04
 0.15799999E+02 -0.10715E+04
 0.15849998E+02 -0.10747E+04
 0.15900000E+02 -0.10727E+04
 0.15949999E+02 -0.10824E+04
 0.15999998E+02 -0.10854E+04
 0.16049999E+02 -0.10911E+04
 0.16099998E+02 -0.10950E+04
 0.16150000E+02 -0.11012E+04
 0.16199999E+02 -0.11034E+04
 0.16249998E+02 -0.11052E+04
 0.16299999E+02 -0.11035E+04
 0.16349998E+02 -0.10999E+04
 0.16400000E+02 -0.10952E+04
 0.16449999E+02 -0.10863E+04
 0.16499998E+02 -0.10839E+04
 0.16549999E+02 -0.10780E+04
 0.16599998E+02 -0.10740E+04
 0.16650000E+02 -0.10682E+04
 0.16699999E+02 -0.10687E+04
 0.16749998E+02 -0.10635E+04
 0.16799999E+02 -0.10664E+04
 0.16849998E+02 -0.10689E+04
 0.16900000E+02 -0.10695E+04
 0.16949999E+02 -0.10695E+04
 0.16999998E+02 -0.10711E+04
 0.17049999E+02 -0.10745E+04
 0.17099998E+02 -0.10761E+04
 0.17150000E+02 -0.10819E+04
 0.17199999E+02 -0.10833E+04
 0.17249998E+02 -0.10917E+04
 0.17299999E+02 -0.10897E+04
 0.17349998E+02 -0.10937E+04
 0.17400000E+02 -0.10953E+04
 0.17449999E+02 -0.10859E+04
 0.17499998E+02 -0.10806E+04
 0.17549999E+02 -0.10739E+04
 0.17599998E+02 -0.10687E+04
 0.17650000E+02 -0.10688E+04
 0.17699999E+02 -0.10698E+04
 0.17749998E+02 -0.10681E+04
 0.17799999E+02 -0.10737E+04
 0.17849998E+02 -0.10725E+04
 0.17900000E+02 -0.10742E+04
 0.17949999E+02 -0.10720E+04
 0.17999998E+02 -0.10732E+04
 0.18049999E+02 -0.10739E+04
 0.18099998E+02 -0.10689E+04
 0.18150000E+02 -0.10763E+04
 0.18199999E+02 -0.10715E+04
 0.18249998E+02 -0.10760E+04
 0.18299999E+02 -0.10813E+04
 0.18349998E+02 -0.10857E+04
 0.18400000E+02 -0.10895E+04
 0.18449999E+02 -0.10871E+04
 0.18499998E+02 -0.10819E+04
 0.18549999E+02 -0.10788E+04
 0.18599998E+02 -0.10750E+04
 0.18650000E+02 -0.10657E+04
 0.18699999E+02 -0.10667E+04
 0.18749998E+02 -0.10660E+04
 0.18799999E+02 -0.10680E+04
 0.18849998E+02 -0.10679E+04
 0.18900000E+02 -0.10698E+04
 0.18949999E+02 -0.10658E+04
 0.18999998E+02 -0.10631E+04
 0.19049999E+02 -0.10603E+04
 0.19099998E+02 -0.10612E+04
 0.19150000E+02 -0.10663E+04
 0.19199999E+02 -0.10667E+04
 0.19249998E+02 -0.10677E+04
 0.19299999E+02 -0.10668E+04
 0.19349998E+02 -0.10726E+04
 0.19400000E+02 -0.10671E+04
 0.19449999E+02 -0.10702E+04
 0.19499998E+02 -0.10698E+04
 0.19549999E+02 -0.10752E+04
 0.19599998E+02 -0.10824E+04
 0.19650000E+02 -0.10819E+04
 0.19699999E+02 -0.10901E+04
 0.19749998E+02 -0.10947E+04
 0.19799999E+02 -0.10995E+04
 0.19849998E+02 -0.11043E+04
 0.19900000E+02 -0.11081E+04
 0.19949999E+02 -0.11086E+04
 0.19999998E+02 -0.11091E+04
 0.20049999E+02 -0.11050E+04
 0.20099998E+02 -0.11097E+04
 0.20150000E+02 -0.11086E+04
 0.20199999E+02 -0.11025E+04
 0.20249998E+02 -0.10973E+04
 0.20299999E+02 -0.10905E+04
 0.20349998E+02 -0.10836E+04
 0.20399998E+02 -0.10840E+04
 0.20449999E+02 -0.10820E+04
 0.20499998E+02 -0.10801E+04
 0.20549999E+02 -0.10785E+04
 0.20599998E+02 -0.10747E+04
 0.20649998E+02 -0.10769E+04
 0.20699999E+02 -0.10683E+04
 0.20749998E+02 -0.10755E+04
 0.20799999E+02 -0.10729E+04
 0.20849998E+02 -0.10787E+04
 0.20899998E+02 -0.10813E+04
 0.20949999E+02 -0.10774E+04
 0.20999998E+02 -0.10841E+04
 0.21049999E+02 -0.10786E+04
 0.21099998E+02 -0.10804E+04
 0.21149998E+02 -0.10765E+04
 0.21199999E+02 -0.10774E+04
 0.21249998E+02 -0.10769E+04
 0.21299999E+02 -0.10811E+04
 0.21349998E+02 -0.10845E+04
 0.21399998E+02 -0.10866E+04
 0.21449999E+02 -0.10923E+04
 0.21499998E+02 -0.10942E+04
 0.21549999E+02 -0.10952E+04
 0.21599998E+02 -0.10943E+04
 0.21649998E+02 -0.10896E+04
 0.21699999E+02 -0.10869E+04
 0.21749998E+02 -0.10850E+04
 0.21799999E+02 -0.10821E+04
 0.21849998E+02 -0.10778E+04
 0.21899998E+02 -0.10762E+04
 0.21949999E+02 -0.10823E+04
 0.21999998E+02 -0.10801E+04
 0.22049999E+02 -0.10787E+04
 0.22099998E+02 -0.10743E+04
 0.22149998E+02 -0.10666E+04
 0.22199999E+02 -0.10664E+04
 0.22249998E+02 -0.10625E+04
 0.22299999E+02 -0.10611E+04
 0.22349998E+02 -0.10615E+04
 0.22399998E+02 -0.10582E+04
 0.22449999E+02 -0.10571E+04
 0.22499998E+02 -0.10554E+04
 0.22549999E+02 -0.10615E+04
 0.22599998E+02 -0.10533E+04
 0.22649998E+02 -0.10421E+04
 0.22699999E+02 -0.10372E+04
 0.22749998E+02 -0.10440E+04
 0.22799999E+02 -0.10742E+04
 0.22849998E+02 -0.10596E+04
 0.22899998E+02 -0.10386E+04
 0.22949999E+02 -0.10211E+04
 0.22999998E+02 -0.10456E+04
 0.23049999E+02 -0.10622E+04
 0.23099998E+02 -0.10311E+04
 0.23149998E+02 -0.10553E+04
 0.23199999E+02 -0.10034E+04
 0.23249998E+02 -0.10312E+04
 0.23299999E+02 -0.10768E+04
 0.23349998E+02 -0.10333E+04
 0.23399998E+02 -0.10125E+04
 0.23449999E+02 -0.98207E+03
 0.23499998E+02 -0.10466E+04
 0.23549999E+02 -0.11625E+04
 0.23599998E+02 -0.12177E+04
 0.23649998E+02 -0.12271E+04
 0.23699999E+02 -0.13626E+04
 0.23749998E+02 -0.14671E+04
 0.23799999E+02 -0.13759E+04
 0.23849998E+02 -0.12637E+04
 0.23899998E+02 -0.10954E+04
 0.23949999E+02 -0.10056E+04
 0.23999998E+02 -0.10846E+04
 0.24049999E+02 -0.88399E+03
 0.24099998E+02 -0.11065E+04
 0.24149998E+02 -0.15929E+04
 0.24199999E+02 -0.15126E+04
 0.24249998E+02 -0.14351E+04
 0.24299999E+02 -0.13363E+04
 0.24349998E+02 -0.14644E+04
 0.24399998E+02 -0.16014E+04
 0.24449999E+02 -0.10108E+04
 0.24499998E+02  0.89238E+02
 0.24549999E+02  0.37095E+03
 0.24599998E+02  0.78292E+02
 0.24649998E+02 -0.64763E+03
 0.24699999E+02 -0.15242E+04
 0.24749998E+02 -0.87380E+03
 0.24799999E+02 -0.71197E+03
 0.24849998E+02 -0.13412E+04
 0.24899998E+02 -0.15733E+04
 0.24949999E+02 -0.13389E+04
 0.24999998E+02 -0.15732E+04
 0.25049999E+02 -0.15397E+04
 0.25099998E+02 -0.58964E+03
 0.25149998E+02 -0.13070E+04
 0.25199999E+02 -0.14520E+04
 0.25249998E+02 -0.79913E+03
 0.25299999E+02 -0.11526E+04
 0.25349998E+02 -0.12152E+04
 0.25399998E+02 -0.11681E+04
 0.25449999E+02 -0.16426E+04
 0.25499998E+02 -0.17829E+04
 0.25549999E+02 -0.15510E+04
 0.25599998E+02 -0.14546E+04
 0.25649998E+02 -0.35035E+03
 0.25699999E+02 -0.58792E+03
 0.25749998E+02 -0.17862E+04
 0.25799999E+02 -0.17898E+04
 0.25849998E+02 -0.16282E+04
 0.25899998E+02  0.85954E+02
 0.25949999E+02  0.33703E+03
 0.25999998E+02 -0.13337E+04
 0.26049999E+02 -0.93018E+03
 0.26099998E+02 -0.75854E+02
 0.26149998E+02  0.30246E+03
 0.26199999E+02  0.31942E+03
 0.26249998E+02 -0.46840E+03
 0.26299999E+02 -0.11242E+04
 0.26349998E+02 -0.17682E+04
 0.26399998E+02 -0.13537E+04
 0.26449999E+02 -0.16351E+04
 0.26499998E+02 -0.30816E+04
 0.26549999E+02 -0.21101E+04
 0.26599998E+02 -0.74497E+03
 0.26649998E+02 -0.15058E+04
 0.26699999E+02 -0.26562E+04
 0.26749998E+02 -0.18676E+04
 0.26799999E+02 -0.14994E+04
 0.26849998E+02 -0.78733E+03
 0.26899998E+02 -0.41408E+03
 0.26949999E+02 -0.18735E+04
 0.26999998E+02 -0.89416E+03
 0.27049997E+02 -0.39059E+03
 0.27099998E+02 -0.59234E+03
 0.27149998E+02 -0.62577E+03
 0.27199999E+02  0.10822E+04
 0.27249998E+02  0.16369E+04
 0.27299997E+02 -0.21940E+04
 0.27349998E+02 -0.25589E+04
 0.27399998E+02 -0.12287E+04
 0.27449999E+02 -0.89399E+03
 0.27499998E+02 -0.80542E+03
 0.27549997E+02 -0.22249E+04
 0.27599998E+02 -0.18930E+04
 0.27649998E+02 -0.96286E+03
 0.27699999E+02 -0.11000E+04
 0.27749998E+02  0.39680E+03
 0.27799997E+02  0.35028E+03
 0.27849998E+02  0.48594E+02
 0.27899998E+02  0.32653E+03
 0.27949999E+02 -0.11221E+04
 0.27999998E+02 -0.29970E+04
 0.28049997E+02 -0.36465E+04
 0.28099998E+02 -0.23407E+04
 0.28149998E+02 -0.20222E+04
 0.28199999E+02 -0.25745E+03
 0.28249998E+02  0.19639E+03
 0.28299997E+02 -0.24403E+04
 0.28349998E+02 -0.25060E+04
 0.28399998E+02 -0.13747E+04
 0.28449999E+02  0.61446E+02
 0.28499998E+02  0.17296E+04
 0.28549997E+02  0.63254E+03
 0.28599998E+02 -0.24872E+03
 0.28649998E+02  0.25980E+03
 0.28699999E+02  0.25646E+03
 0.28749998E+02 -0.18163E+04
 0.28799997E+02 -0.26887E+04
 0.28849998E+02 -0.12982E+04
 0.28899998E+02 -0.92130E+03
 0.28949999E+02 -0.82959E+03
 0.28999998E+02 -0.11588E+04
 0.29049997E+02 -0.16649E+04
 0.29099998E+02 -0.24559E+04
 0.29149998E+02 -0.11577E+04
 0.29199999E+02 -0.56024E+03
 0.29249998E+02 -0.21928E+03
 0.29299997E+02 -0.14422E+04
 0.29349998E+02 -0.27987E+04
 0.29399998E+02 -0.51394E+03
 0.29449999E+02  0.64050E+03
 0.29499998E+02 -0.11341E+04
 0.29549997E+02 -0.23566E+04
 0.29599998E+02 -0.13112E+04
 0.29649998E+02 -0.10505E+04
 0.29699999E+02 -0.14064E+04
 0.29749998E+02 -0.28392E+04
 0.29799997E+02 -0.77482E+03
 0.29849998E+02  0.74616E+03
 0.29899998E+02 -0.20437E+04
 0.29949999E+02 -0.15954E+04
 0.29999998E+02 -0.16970E+04
 0.30049999E+02 -0.24153E+04
 0.30099998E+02 -0.14906E+04
 0.30149998E+02  0.12862E+03
 0.30199997E+02 -0.37797E+03
 0.30249996E+02  0.39445E+03
 0.30299999E+02  0.12964E+04
 0.30349998E+02  0.26087E+03
 0.30399998E+02 -0.68887E+03
 0.30449997E+02 -0.34962E+04
 0.30499996E+02 -0.40254E+04
 0.30549999E+02 -0.26869E+04
 0.30599998E+02 -0.45643E+03
 0.30649998E+02 -0.64342E+03
 0.30699997E+02 -0.31165E+04
 0.30749996E+02 -0.30074E+04
 0.30799999E+02 -0.39958E+03
 0.30849998E+02  0.74263E+03
 0.30899998E+02  0.63563E+03
 0.30949997E+02  0.32050E+03
 0.30999996E+02 -0.16099E+04
 0.31049999E+02 -0.20021E+04
 0.31099998E+02 -0.18698E+04
 0.31149998E+02 -0.27571E+04
 0.31199997E+02 -0.18886E+04
 0.31249996E+02 -0.19366E+04
 0.31299999E+02 -0.98840E+03
 0.31349998E+02  0.64717E+03
 0.31399998E+02  0.88777E+03
 0.31449997E+02  0.12289E+04
 0.31499996E+02  0.56038E+03
 0.31549999E+02 -0.91104E+03
 0.31599998E+02 -0.13940E+04
 0.31649998E+02  0.34714E+03
 0.31699997E+02 -0.33171E+03
 0.31749996E+02 -0.44229E+04
 0.31799999E+02 -0.41711E+04
 0.31849998E+02 -0.11359E+04
 0.31899998E+02 -0.70539E+03
 0.31949997E+02 -0.58268E+03
 0.31999996E+02 -0.11049E+04
 0.32049999E+02 -0.14742E+04
 0.32099998E+02 -0.11912E+04
 0.32149998E+02 -0.19393E+04
 0.32199997E+02 -0.94613E+03
 0.32249996E+02  0.74310E+03
 0.32299999E+02  0.35319E+03
 0.32349998E+02 -0.58700E+03
 0.32399998E+02 -0.19683E+04
 0.32449997E+02 -0.20983E+04
 0.32499996E+02 -0.81076E+03
 0.32549999E+02 -0.92605E+03
 0.32599998E+02 -0.15592E+04
 0.32649998E+02  0.23750E+03
 0.32699997E+02  0.69888E+03
 0.32749996E+02 -0.18914E+04
 0.32799999E+02 -0.26365E+04
 0.32849998E+02 -0.20649E+04
 0.32899998E+02 -0.10955E+04
 0.32949997E+02  0.33985E+02
 0.32999996E+02 -0.19473E+04
 0.33049999E+02 -0.17300E+04
 0.33099998E+02  0.37957E+02
 0.33149998E+02 -0.25695E+03
 0.33199997E+02  0.24842E+03
 0.33249996E+02 -0.27469E+03
 0.33299999E+02 -0.99814E+03
 0.33349998E+02 -0.18066E+04
 0.33399998E+02 -0.20283E+04
 0.33449997E+02 -0.16685E+04
 0.33499996E+02 -0.19181E+04
 0.33549999E+02 -0.25765E+04
 0.33599998E+02 -0.50140E+03
 0.33649998E+02  0.10194E+04
 0.33699997E+02 -0.11671E+04
 0.33749996E+02 -0.26699E+04
 0.33799999E+02 -0.22154E+04
 0.33849998E+02 -0.95379E+03
 0.33899998E+02 -0.12901E+04
 0.33949997E+02 -0.13033E+04
 0.33999996E+02 -0.11417E+04
 0.34049999E+02 -0.14832E+04
 0.34099998E+02 -0.64478E+03
 0.34149998E+02 -0.71436E+02
 0.34199997E+02 -0.10041E+04
 0.34249996E+02 -0.58615E+03
 0.34299999E+02  0.26013E+02
 0.34349998E+02 -0.10026E+04
 0.34399998E+02 -0.96009E+03
 0.34449997E+02 -0.15423E+03
 0.34499996E+02 -0.12200E+03
 0.34549999E+02 -0.35581E+03
 0.34599998E+02 -0.22025E+03
 0.34649998E+02 -0.67748E+03
 0.34699997E+02 -0.19292E+04
 0.34749996E+02 -0.18683E+04
 0.34799999E+02 -0.17437E+04
 0.34849998E+02 -0.40012E+04
 0.34899998E+02 -0.42000E+04
 0.34949997E+02 -0.95948E+03
 0.34999996E+02  0.59544E+03
 0.35049999E+02 -0.16196E+04
 0.35099998E+02 -0.28632E+04
 0.35149998E+02 -0.20962E+03
 0.35199997E+02  0.56792E+03
 0.35249996E+02 -0.24441E+03
 0.35299999E+02  0.25976E+03
 0.35349998E+02 -0.96769E+03
 0.35399998E+02 -0.17641E+04
 0.35449997E+02 -0.13328E+04
 0.35499996E+02 -0.14163E+04
 0.35549999E+02 -0.10649E+04
 0.35599998E+02 -0.94423E+03
 0.35649998E+02 -0.91133E+03
 0.35699997E+02 -0.92027E+03
 0.35749996E+02 -0.52537E+03
 0.35799999E+02  0.10405E+04
 0.35849998E+02  0.62853E+03
 0.35899998E+02 -0.11294E+04
 0.35949997E+02 -0.34227E+04
 0.35999996E+02 -0.39994E+04
 0.36049999E+02 -0.16421E+04
 0.36099998E+02 -0.13641E+04
 0.36149998E+02 -0.17353E+04
 0.36199997E+02 -0.60195E+03
 0.36249996E+02 -0.20212E+02
 0.36299999E+02 -0.59876E+03
 0.36349998E+02 -0.77164E+03
 0.36399998E+02 -0.59982E+03
 0.36449997E+02 -0.16060E+04
 0.36499996E+02 -0.23629E+04
 0.36549999E+02 -0.81456E+03
 0.36599998E+02  0.28382E+03
 0.36649998E+02 -0.88470E+03
 0.36699997E+02 -0.21590E+04
 0.36749996E+02 -0.17223E+04
 0.36799999E+02  0.16987E+03
 0.36849998E+02 -0.93697E+02
 0.36899998E+02 -0.14483E+04
 0.36949997E+02 -0.19355E+04
 0.36999996E+02 -0.21990E+04
 0.37049999E+02 -0.76772E+03
 0.37099998E+02  0.93239E+02
 0.37149998E+02 -0.77248E+03
 0.37199997E+02 -0.15881E+04
 0.37249996E+02 -0.14383E+04
 0.37299999E+02 -0.10553E+04
 0.37349998E+02 -0.44490E+03
 0.37399998E+02  0.31945E+03
 0.37449997E+02 -0.26975E+03
 0.37499996E+02 -0.11655E+04
 0.37549999E+02 -0.14911E+04
 0.37599998E+02 -0.92361E+03
 0.37649998E+02 -0.71602E+03
 0.37699997E+02 -0.17126E+04
 0.37749996E+02 -0.26784E+04
 0.37799999E+02 -0.19389E+04
 0.37849998E+02 -0.10616E+04
 0.37899998E+02 -0.12885E+04
 0.37949997E+02 -0.19145E+04
 0.37999996E+02 -0.22431E+04
 0.38049999E+02 -0.82881E+03
 0.38099998E+02 -0.37439E+02
 0.38149998E+02 -0.54877E+03
 0.38199997E+02 -0.33364E+03
 0.38249996E+02  0.37031E+03
 0.38299999E+02 -0.38429E+03
 0.38349998E+02 -0.96976E+03
 0.38399998E+02 -0.14401E+04
 0.38449997E+02 -0.23395E+04
 0.38499996E+02 -0.90507E+03
 0.38549999E+02  0.26758E+03
 0.38599998E+02 -0.10261E+04
 0.38649998E+02 -0.17711E+04
 0.38699997E+02 -0.10871E+04
 0.38749996E+02 -0.20700E+04
 0.38799999E+02 -0.27007E+04
 0.38849998E+02 -0.16720E+04
 0.38899998E+02 -0.11594E+04
 0.38949997E+02 -0.64442E+03
 0.38999996E+02 -0.60140E+03
 0.39049999E+02 -0.97488E+03
 0.39099998E+02 -0.75551E+03
 0.39149998E+02 -0.31247E+03
 0.39199997E+02  0.38696E+02
 0.39249996E+02  0.57238E+02
 0.39299999E+02 -0.39228E+03
 0.39349998E+02 -0.23181E+04
 0.39399998E+02 -0.39802E+04
 0.39449997E+02 -0.23224E+04
 0.39499996E+02  0.95540E+03
 0.39549999E+02  0.17179E+04
 0.39599998E+02 -0.15549E+04
 0.39649998E+02 -0.34708E+04
 0.39699997E+02 -0.28856E+04
 0.39749996E+02 -0.26287E+04
 0.39799999E+02 -0.97671E+03
 0.39849998E+02  0.51951E+03
 0.39899998E+02 -0.72352E+03
 0.39949997E+02 -0.16783E+04
 0.39999996E+02 -0.14438E+04
 0.40049999E+02 -0.15256E+04
 0.40099998E+02 -0.21199E+04
 0.40149998E+02 -0.22344E+04
 0.40199997E+02 -0.10239E+04
 0.40249996E+02  0.85543E+03
 0.40299999E+02  0.19920E+04
 0.40349998E+02  0.74335E+03
 0.40399998E+02 -0.65333E+03
 0.40449997E+02 -0.15410E+04
 0.40499996E+02 -0.45041E+03
 0.40549999E+02  0.15604E+04
 0.40599998E+02  0.21936E+04
 0.40649998E+02  0.37496E+04
 0.40699997E+02  0.39777E+04
 0.40749996E+02 -0.69561E+03
 0.40799999E+02 -0.61481E+04
 0.40849998E+02 -0.58490E+04
 0.40899998E+02 -0.30562E+04
 0.40949997E+02 -0.14367E+04
 0.40999996E+02 -0.19483E+04
 0.41049999E+02 -0.38570E+04
 0.41099998E+02 -0.42562E+04
 0.41149998E+02 -0.39228E+04
 0.41199997E+02 -0.39177E+04
 0.41249996E+02 -0.27349E+04
 0.41299999E+02  0.28683E+03
 0.41349998E+02  0.42390E+04
 0.41399998E+02  0.32071E+04
 0.41449997E+02 -0.22468E+04
 0.41499996E+02 -0.43105E+04
 0.41549999E+02 -0.35871E+04
 0.41599998E+02 -0.23128E+04
 0.41649998E+02  0.35927E+03
 0.41699997E+02  0.26450E+04
 0.41749996E+02  0.12497E+04
 0.41799999E+02 -0.31740E+04
 0.41849998E+02 -0.60822E+04
 0.41899998E+02 -0.29041E+04
 0.41949997E+02  0.66766E+03
 0.41999996E+02  0.20238E+04
 0.42049999E+02  0.32641E+04
 0.42099998E+02  0.27116E+04
 0.42149998E+02  0.21510E+04
 0.42199997E+02  0.23740E+04
 0.42249996E+02 -0.25446E+04
 0.42299999E+02 -0.11276E+05
 0.42349998E+02 -0.12681E+05
 0.42399998E+02 -0.54239E+04
 0.42449997E+02  0.35187E+04
 0.42499996E+02  0.50492E+04
 0.42549999E+02  0.20130E+04
 0.42599998E+02 -0.47576E+03
 0.42649998E+02 -0.45823E+04
 0.42699997E+02 -0.46565E+04
 0.42749996E+02 -0.15304E+04
 0.42799995E+02  0.40103E+03
 0.42849998E+02  0.66002E+03
 0.42899998E+02 -0.16409E+04
 0.42949997E+02 -0.38569E+04
 0.42999996E+02 -0.29433E+04
 0.43049995E+02  0.87341E+03
 0.43099998E+02  0.50335E+04
 0.43149998E+02  0.48745E+04
 0.43199997E+02  0.40413E+03
 0.43249996E+02 -0.34933E+03
 0.43299995E+02 -0.54005E+03
 0.43349998E+02 -0.29358E+04
 0.43399998E+02 -0.30762E+04
 0.43449997E+02 -0.40840E+04
 0.43499996E+02 -0.48802E+04
 0.43549995E+02 -0.31565E+04
 0.43599998E+02 -0.77999E+03
 0.43649998E+02  0.20103E+04
 0.43699997E+02  0.13828E+04
 0.43749996E+02 -0.32569E+04
 0.43799995E+02 -0.54425E+04
 0.43849998E+02 -0.16362E+04
 0.43899998E+02  0.29669E+04
 0.43949997E+02 -0.12875E+03
 0.43999996E+02 -0.57665E+04
 0.44049995E+02 -0.52171E+04
 0.44099998E+02 -0.20687E+03
 0.44149998E+02  0.40212E+04
 0.44199997E+02  0.45083E+04
 0.44249996E+02  0.39028E+04
 0.44299995E+02  0.82138E+03
 0.44349998E+02 -0.33732E+04
 0.44399998E+02 -0.29294E+04
 0.44449997E+02 -0.90843E+03
 0.44499996E+02 -0.17762E+04
 0.44549995E+02 -0.14127E+04
 0.44599998E+02  0.22185E+04
 0.44649998E+02  0.32581E+04
 0.44699997E+02  0.18037E+03
 0.44749996E+02 -0.55119E+04
 0.44799995E+02 -0.47110E+04
 0.44849998E+02  0.16390E+04
 0.44899998E+02  0.38263E+03
 0.44949997E+02 -0.36861E+04
 0.44999996E+02 -0.52477E+04
 0.45049995E+02 -0.32467E+04
 0.45099998E+02 -0.24320E+04
 0.45149998E+02 -0.10192E+04
 0.45199997E+02  0.26370E+04
 0.45249996E+02  0.14470E+04
 0.45299995E+02  0.92043E+03
 0.45349998E+02  0.80110E+03
 0.45399998E+02 -0.27734E+04
 0.45449997E+02 -0.57711E+04
 0.45499996E+02 -0.25855E+04
 0.45549995E+02 -0.13247E+04
 0.45599998E+02 -0.41289E+04
 0.45649998E+02 -0.33801E+04
 0.45699997E+02  0.19676E+04
 0.45749996E+02  0.48547E+04
 0.45799995E+02  0.24801E+04
 0.45849998E+02  0.76455E+03
 0.45899998E+02 -0.18849E+03
 0.45949997E+02 -0.31921E+04
 0.45999996E+02 -0.32629E+04
 0.46049995E+02 -0.12059E+03
 0.46099998E+02  0.96036E+03
 0.46149998E+02  0.29169E+01
 0.46199997E+02 -0.46720E+04
 0.46249996E+02 -0.53896E+04
 0.46299995E+02 -0.18683E+04
 0.46349998E+02 -0.21987E+04
 0.46399998E+02 -0.40967E+04
 0.46449997E+02 -0.36538E+03
 0.46499996E+02  0.36205E+04
 0.46549995E+02  0.14599E+04
 0.46599998E+02  0.42725E+03
 0.46649998E+02  0.23568E+03
 0.46699997E+02 -0.14396E+04
 0.46749996E+02 -0.17331E+04
 0.46799995E+02 -0.61708E+03
 0.46849998E+02  0.12537E+04
 0.46899998E+02 -0.32158E+03
 0.46949997E+02 -0.43465E+04
 0.46999996E+02 -0.36889E+04
 0.47049995E+02 -0.10398E+04
 0.47099998E+02  0.57638E+03
 0.47149998E+02  0.12264E+04
 0.47199997E+02  0.37323E+04
 0.47249996E+02  0.39506E+04
 0.47299995E+02 -0.11807E+04
 0.47349998E+02 -0.60268E+04
 0.47399998E+02 -0.84011E+04
 0.47449997E+02 -0.59461E+04
 0.47499996E+02 -0.17576E+04
 0.47549995E+02  0.35423E+03
 0.47599998E+02 -0.17221E+03
 0.47649998E+02 -0.70892E+03
 0.47699997E+02 -0.57338E+03
 0.47749996E+02  0.10681E+04
 0.47799995E+02  0.29486E+04
 0.47849998E+02 -0.27357E+03
 0.47899998E+02 -0.52679E+04
 0.47949997E+02 -0.62709E+04
 0.47999996E+02 -0.43230E+04
 0.48049995E+02 -0.86745E+03
 0.48099998E+02  0.37951E+04
 0.48149998E+02  0.51970E+04
 0.48199997E+02  0.23970E+04
 0.48249996E+02 -0.60314E+03
 0.48299995E+02 -0.34222E+04
 0.48349998E+02 -0.48673E+04
 0.48399998E+02 -0.27077E+04
 0.48449997E+02 -0.40109E+03
 0.48499996E+02 -0.96378E+03
 0.48549995E+02 -0.18679E+04
 0.48599998E+02 -0.18863E+04
 0.48649998E+02 -0.20506E+04
 0.48699997E+02 -0.20613E+04
 0.48749996E+02 -0.25747E+04
 0.48799995E+02 -0.19955E+04
 0.48849998E+02  0.10550E+04
 0.48899998E+02  0.18409E+04
 0.48949997E+02 -0.14173E+04
 0.48999996E+02 -0.29391E+04
 0.49049995E+02 -0.13134E+04
 0.49099998E+02 -0.14066E+04
 0.49149998E+02 -0.16144E+04
 0.49199997E+02 -0.30569E+03
 0.49249996E+02 -0.16066E+04
 0.49299995E+02 -0.42879E+04
 0.49349998E+02 -0.31059E+04
 0.49399998E+02  0.63647E+03
 0.49449997E+02  0.20821E+04
 0.49499996E+02  0.57942E+03
 0.49549995E+02 -0.13797E+04
 0.49599998E+02 -0.16092E+04
 0.49649998E+02 -0.63039E+03
 0.49699997E+02  0.89365E+03
 0.49749996E+02  0.64504E+03
 0.49799995E+02  0.97275E+02
 0.49849998E+02 -0.85220E+03
 0.49899998E+02 -0.31538E+04
 0.49949997E+02 -0.23839E+04
 0.49999996E+02 -0.12134E+04
 0.50049995E+02 -0.30704E+04
 0.50099998E+02 -0.64989E+04
 0.50149998E+02 -0.86940E+04
 0.50199997E+02 -0.84529E+04
 0.50249996E+02 -0.46711E+04
 0.50299995E+02  0.48085E+03
 0.50349998E+02  0.22201E+03
 0.50399998E+02 -0.15887E+04
 0.50449997E+02 -0.77203E+03
 0.50499996E+02  0.18585E+04
 0.50549995E+02  0.38476E+04
 0.50599998E+02  0.18718E+04
 0.50649998E+02 -0.10735E+04
 0.50699997E+02 -0.18375E+04
 0.50749996E+02  0.31000E+03
 0.50799995E+02  0.25856E+04
 0.50849998E+02  0.21487E+04
 0.50899998E+02 -0.16373E+03
 0.50949997E+02 -0.18955E+04
 0.50999996E+02 -0.23329E+04
 0.51049995E+02 -0.23388E+04
 0.51099998E+02 -0.31573E+04
 0.51149998E+02 -0.45368E+04
 0.51199997E+02 -0.40246E+04
 0.51249996E+02 -0.13817E+04
 0.51299995E+02 -0.45265E+02
 0.51349998E+02 -0.11311E+04
 0.51399998E+02 -0.16388E+04
 0.51449997E+02 -0.20346E+04
 0.51499996E+02 -0.25792E+04
 0.51549995E+02 -0.31956E+03
 0.51599998E+02  0.18747E+04
 0.51649998E+02  0.13939E+04
 0.51699997E+02  0.10503E+04
 0.51749996E+02  0.14765E+04
 0.51799995E+02  0.66845E+02
 0.51849998E+02 -0.22454E+04
 0.51899998E+02 -0.14208E+04
 0.51949997E+02 -0.18896E+03
 0.51999996E+02 -0.11879E+04
 0.52049995E+02 -0.74584E+03
 0.52099998E+02  0.12499E+04
 0.52149998E+02  0.18860E+04
 0.52199997E+02  0.15248E+04
 0.52249996E+02  0.94694E+01
 0.52299995E+02 -0.97092E+03
 0.52349998E+02 -0.98766E+03
 0.52399998E+02 -0.16236E+04
 0.52449997E+02 -0.93063E+03
 0.52499996E+02 -0.13747E+04
 0.52549995E+02 -0.26157E+04
 0.52599998E+02 -0.23458E+04
 0.52649998E+02 -0.12182E+04
 0.52699997E+02 -0.48075E+03
 0.52749996E+02 -0.88349E+03
 0.52799995E+02 -0.80615E+03
 0.52849998E+02 -0.45935E+03
 0.52899998E+02  0.98156E+01
 0.52949997E+02  0.19162E+03
 0.52999996E+02 -0.98028E+03
 0.53049995E+02 -0.30495E+04
 0.53099998E+02 -0.22629E+04
 0.53149998E+02  0.46691E+03
 0.53199997E+02  0.29027E+03
 0.53249996E+02 -0.17275E+04
 0.53299995E+02 -0.20278E+04
 0.53349998E+02 -0.17333E+04
 0.53399998E+02 -0.31952E+04
 0.53449997E+02 -0.47469E+04
 0.53499996E+02 -0.31239E+04
 0.53549995E+02 -0.76968E+03
 0.53599998E+02 -0.48348E+03
 0.53649998E+02 -0.33032E+02
 0.53699997E+02  0.24834E+03
 0.53749996E+02 -0.85947E+03
 0.53799995E+02 -0.20974E+04
 0.53849998E+02 -0.24094E+04
 0.53899998E+02 -0.20279E+04
 0.53949997E+02 -0.82148E+03
 0.53999996E+02  0.11862E+04
 0.54049995E+02  0.14412E+04
 0.54099998E+02 -0.10500E+04
 0.54149998E+02 -0.29851E+04
 0.54199997E+02 -0.35495E+04
 0.54249996E+02 -0.20687E+04
 0.54299995E+02 -0.33870E+03
 0.54349998E+02 -0.88393E+03
 0.54399998E+02 -0.12060E+04
 0.54449997E+02 -0.20479E+04
 0.54499996E+02 -0.28482E+04
 0.54549995E+02 -0.16791E+04
 0.54599998E+02 -0.65790E+03
 0.54649998E+02 -0.75825E+03
 0.54699997E+02 -0.68119E+03
 0.54749996E+02  0.55689E+03
 0.54799995E+02  0.76525E+03
 0.54849998E+02 -0.57177E+03
 0.54899998E+02 -0.18306E+04
 0.54949997E+02 -0.18606E+04
 0.54999996E+02 -0.13579E+04
 0.55049995E+02 -0.22688E+04
 0.55099998E+02 -0.31852E+04
 0.55149998E+02 -0.34032E+04
 0.55199997E+02 -0.31777E+04
 0.55249996E+02 -0.18744E+04
 0.55299995E+02 -0.86362E+02
 0.55349998E+02  0.17831E+04
 0.55399998E+02  0.23654E+04
 0.55449997E+02  0.11911E+04
 0.55499996E+02  0.27931E+03
 0.55549995E+02  0.45375E+00
 0.55599998E+02 -0.84681E+03
 0.55649998E+02 -0.90605E+03
 0.55699997E+02 -0.55313E+03
 0.55749996E+02 -0.13148E+04
 0.55799995E+02 -0.14961E+04
 0.55849995E+02 -0.54277E+02
 0.55899998E+02  0.87249E+03
 0.55949997E+02 -0.22200E+03
 0.55999996E+02 -0.16331E+04
 0.56049995E+02 -0.25285E+04
 0.56099995E+02 -0.27122E+04
 0.56149998E+02 -0.20765E+04
 0.56199997E+02 -0.12336E+04
 0.56249996E+02 -0.31440E+03
 0.56299995E+02  0.71642E+02
 0.56349995E+02 -0.80864E+03
 0.56399998E+02 -0.14710E+04
 0.56449997E+02 -0.15605E+04
 0.56499996E+02 -0.11380E+04
 0.56549995E+02 -0.14620E+04
 0.56599995E+02 -0.26049E+04
 0.56649998E+02 -0.24317E+04
 0.56699997E+02 -0.17819E+04
 0.56749996E+02 -0.11446E+04
 0.56799995E+02 -0.71360E+02
 0.56849995E+02  0.79899E+03
 0.56899998E+02  0.92549E+03
 0.56949997E+02  0.21715E+03
 0.56999996E+02 -0.53498E+03
 0.57049995E+02 -0.77077E+03
 0.57099995E+02 -0.13338E+04
 0.57149998E+02 -0.19415E+04
 0.57199997E+02 -0.21848E+04
 0.57249996E+02 -0.17309E+04
 0.57299995E+02 -0.12872E+04
 0.57349995E+02 -0.71213E+03
 0.57399998E+02  0.80937E+02
 0.57449997E+02 -0.43374E+03
 0.57499996E+02 -0.17473E+04
 0.57549995E+02 -0.30872E+04
 0.57599995E+02 -0.26287E+04
 0.57649998E+02 -0.38867E+03
 0.57699997E+02  0.78045E+03
 0.57749996E+02 -0.16501E+03
 0.57799995E+02 -0.12313E+04
 0.57849995E+02 -0.98326E+03
 0.57899998E+02 -0.39976E+03
 0.57949997E+02 -0.81366E+03
 0.57999996E+02 -0.11100E+04
 0.58049995E+02 -0.61101E+03
 0.58099995E+02 -0.10812E+04
 0.58149998E+02 -0.20818E+04
 0.58199997E+02 -0.21240E+04
 0.58249996E+02 -0.11543E+04
 0.58299995E+02 -0.52504E+03
 0.58349995E+02 -0.44509E+03
 0.58399998E+02 -0.29556E+03
 0.58449997E+02 -0.31184E+03
 0.58499996E+02 -0.55318E+03
 0.58549995E+02 -0.10637E+04
 0.58599995E+02 -0.15553E+04
 0.58649998E+02 -0.21303E+04
 0.58699997E+02 -0.24548E+04
 0.58749996E+02 -0.28130E+04
 0.58799995E+02 -0.32058E+04
 0.58849995E+02 -0.30123E+04
 0.58899998E+02 -0.25088E+04
 0.58949997E+02 -0.13477E+04
 0.58999996E+02 -0.11777E+03
 0.59049995E+02  0.35808E+03
 0.59099995E+02  0.62687E+03
 0.59149998E+02  0.83037E+03
 0.59199997E+02  0.15918E+03
 0.59249996E+02 -0.57873E+03
 0.59299995E+02 -0.92105E+03
 0.59349995E+02 -0.79556E+03
 0.59399998E+02 -0.83745E+03
 0.59449997E+02 -0.87518E+03
 0.59499996E+02 -0.70797E+03
 0.59549995E+02 -0.14567E+04
 0.59599995E+02 -0.17860E+04
 0.59649998E+02 -0.15433E+04
 0.59699997E+02 -0.10751E+04
 0.59749996E+02 -0.86567E+03
 0.59799995E+02 -0.12750E+04
 0.59849995E+02 -0.18312E+04
 0.59899998E+02 -0.23668E+04
 0.59949997E+02 -0.23860E+04
 0.59999996E+02 -0.17424E+04
 0.60049995E+02 -0.85632E+03
 0.60099995E+02 -0.37496E+03
 0.60149998E+02 -0.19581E+03
 0.60199997E+02  0.31417E+02
 0.60249996E+02  0.40140E+03
 0.60299995E+02  0.47566E+03
 0.60349995E+02  0.68079E+01
 0.60399998E+02 -0.15246E+04
 0.60449997E+02 -0.28189E+04
 0.60499996E+02 -0.27111E+04
 0.60549995E+02 -0.22610E+04
 0.60599995E+02 -0.19274E+04
 0.60649998E+02 -0.11080E+04
 0.60699997E+02 -0.26096E+03
 0.60749996E+02 -0.39779E+03
 0.60799995E+02 -0.46730E+03
 0.60849995E+02  0.18987E+03
 0.60899998E+02  0.53077E+03
 0.60949997E+02  0.13063E+03
 0.60999996E+02 -0.48746E+03
 0.61049995E+02 -0.14044E+04
 0.61099995E+02 -0.19626E+04
 0.61149998E+02 -0.25389E+04
 0.61199997E+02 -0.28987E+04
 0.61249996E+02 -0.29079E+04
 0.61299995E+02 -0.30954E+04
 0.61349995E+02 -0.28134E+04
 0.61399998E+02 -0.26108E+04
 0.61449997E+02 -0.24453E+04
 0.61499996E+02 -0.14954E+04
 0.61549995E+02 -0.50325E+03
 0.61599995E+02 -0.47380E+02
 0.61649998E+02  0.29031E+03
 0.61699997E+02  0.36363E+03
 0.61749996E+02  0.18316E+03
 0.61799995E+02 -0.64030E+03
 0.61849995E+02 -0.13514E+04
 0.61899998E+02 -0.12439E+04
 0.61949997E+02 -0.11944E+04
 0.61999996E+02 -0.14259E+04
 0.62049995E+02 -0.10216E+04
 0.62099998E+02 -0.43833E+03
 0.62149994E+02 -0.29901E+03
 0.62199997E+02 -0.77571E+02
 0.62249992E+02 -0.45797E+03
 0.62299995E+02 -0.11367E+04
 0.62349998E+02 -0.16754E+04
 0.62399994E+02 -0.17185E+04
 0.62449997E+02 -0.17277E+04
 0.62499992E+02 -0.24364E+04
 0.62549995E+02 -0.25601E+04
 0.62599998E+02 -0.20422E+04
 0.62649994E+02 -0.14520E+04
 0.62699997E+02 -0.94529E+03
 0.62749992E+02 -0.57050E+03
 0.62799995E+02 -0.18727E+03
 0.62849998E+02  0.22602E+03
 0.62899994E+02  0.73387E+03
 0.62949997E+02  0.93013E+03
 0.62999992E+02  0.56600E+03
 0.63049995E+02 -0.23594E+03
 0.63099998E+02 -0.73062E+03
 0.63149994E+02 -0.65448E+03
 0.63199997E+02 -0.10657E+04
 0.63249992E+02 -0.11608E+04
 0.63299995E+02 -0.54336E+03
 0.63349998E+02 -0.70177E+03
 0.63399994E+02 -0.10978E+04
 0.63449997E+02 -0.10076E+04
 0.63499992E+02 -0.11279E+04
 0.63549995E+02 -0.10590E+04
 0.63599998E+02 -0.11034E+04
 0.63649994E+02 -0.17149E+04
 0.63699997E+02 -0.15185E+04
 0.63749992E+02 -0.96154E+03
 0.63799995E+02 -0.11569E+04
 0.63849998E+02 -0.18402E+04
 0.63899994E+02 -0.22239E+04
 0.63949997E+02 -0.19406E+04
 0.63999992E+02 -0.15277E+04
 0.64049995E+02 -0.10987E+04
 0.64099998E+02 -0.11411E+04
 0.64149994E+02 -0.17125E+04
 0.64199997E+02 -0.21095E+04
 0.64249992E+02 -0.17827E+04
 0.64299995E+02 -0.12311E+04
 0.64349998E+02 -0.12378E+04
 0.64399994E+02 -0.92346E+03
 0.64449997E+02 -0.32494E+03
 0.64499992E+02 -0.80980E+02
 0.64549995E+02 -0.24098E+03
 0.64599998E+02 -0.57548E+03
 0.64649994E+02 -0.11418E+04
 0.64699997E+02 -0.17157E+04
 0.64749992E+02 -0.14368E+04
 0.64799995E+02 -0.92846E+03
 0.64849998E+02 -0.12595E+04
 0.64899994E+02 -0.19502E+04
 0.64949997E+02 -0.20968E+04
 0.64999992E+02 -0.17432E+04
 0.65049995E+02 -0.11428E+04
 0.65099998E+02 -0.74362E+03
 0.65149994E+02 -0.94808E+03
 0.65199997E+02 -0.12417E+04
 0.65249992E+02 -0.12602E+04
 0.65299995E+02 -0.12189E+04
 0.65349998E+02 -0.11575E+04
 0.65399994E+02 -0.14367E+04
 0.65449997E+02 -0.21802E+04
 0.65499992E+02 -0.22629E+04
 0.65549995E+02 -0.16724E+04
 0.65599998E+02 -0.13480E+04
 0.65649994E+02 -0.13221E+04
 0.65699997E+02 -0.98377E+03
 0.65749992E+02 -0.30033E+03
 0.65799995E+02  0.18234E+03
 0.65849998E+02  0.33357E+03
 0.65899994E+02  0.22577E+02
 0.65949997E+02 -0.41739E+03
 0.65999992E+02 -0.31469E+03
 0.66049995E+02  0.42944E+03
 0.66099998E+02  0.57052E+03
 0.66149994E+02 -0.44297E+03
 0.66199997E+02 -0.13267E+04
 0.66249992E+02 -0.17159E+04
 0.66299995E+02 -0.19740E+04
 0.66349998E+02 -0.19050E+04
 0.66399994E+02 -0.18048E+04
 0.66449997E+02 -0.17323E+04
 0.66499992E+02 -0.13845E+04
 0.66549995E+02 -0.95557E+03
 0.66599998E+02 -0.65967E+03
 0.66649994E+02 -0.87566E+03
 0.66699997E+02 -0.15310E+04
 0.66749992E+02 -0.18254E+04
 0.66799995E+02 -0.16490E+04
 0.66849998E+02 -0.14164E+04
 0.66899994E+02 -0.13153E+04
 0.66949997E+02 -0.11337E+04
 0.66999992E+02 -0.11317E+04
 0.67049995E+02 -0.12494E+04
 0.67099998E+02 -0.73596E+03
 0.67149994E+02 -0.22979E+03
 0.67199997E+02 -0.34689E+03
 0.67249992E+02 -0.77411E+03
 0.67299995E+02 -0.85560E+03
 0.67349998E+02 -0.46028E+03
 0.67399994E+02  0.13178E+03
 0.67449997E+02  0.46685E+03
 0.67499992E+02 -0.18550E+02
 0.67549995E+02 -0.79917E+03
 0.67599998E+02 -0.11483E+04
 0.67649994E+02 -0.12077E+04
 0.67699997E+02 -0.15767E+04
 0.67749992E+02 -0.19512E+04
 0.67799995E+02 -0.18482E+04
 0.67849998E+02 -0.15838E+04
 0.67899994E+02 -0.16206E+04
 0.67949997E+02 -0.19981E+04
 0.67999992E+02 -0.21789E+04
 0.68049995E+02 -0.21540E+04
 0.68099998E+02 -0.21669E+04
 0.68149994E+02 -0.20509E+04
 0.68199997E+02 -0.18410E+04
 0.68249992E+02 -0.15738E+04
 0.68299995E+02 -0.11999E+04
 0.68349998E+02 -0.10057E+04
 0.68399994E+02 -0.64486E+03
 0.68449997E+02  0.13833E+03
 0.68499992E+02  0.34877E+03
 0.68549995E+02 -0.13276E+03
 0.68599998E+02 -0.49932E+03
 0.68649994E+02 -0.79653E+03
 0.68699997E+02 -0.10155E+04
 0.68749992E+02 -0.99466E+03
 0.68799995E+02 -0.96910E+03
 0.68849998E+02 -0.10586E+04
 0.68899994E+02 -0.97782E+03
 0.68949997E+02 -0.84666E+03
 0.68999992E+02 -0.98656E+03
 0.69049995E+02 -0.90967E+03
 0.69099998E+02 -0.72851E+03
 0.69149994E+02 -0.73171E+03
 0.69199997E+02 -0.79998E+03
 0.69249992E+02 -0.73527E+03
 0.69299995E+02 -0.48981E+03
 0.69349998E+02 -0.46418E+03
 0.69399994E+02 -0.73018E+03
 0.69449997E+02 -0.11115E+04
 0.69499992E+02 -0.13042E+04
 0.69549995E+02 -0.12058E+04
 0.69599998E+02 -0.12522E+04
 0.69649994E+02 -0.14014E+04
 0.69699997E+02 -0.10931E+04
 0.69749992E+02 -0.58669E+03
 0.69799995E+02 -0.59531E+03
 0.69849998E+02 -0.99131E+03
 0.69899994E+02 -0.11317E+04
 0.69949997E+02 -0.11585E+04
 0.69999992E+02 -0.13898E+04
 0.70049995E+02 -0.17222E+04
 0.70099998E+02 -0.20928E+04
 0.70149994E+02 -0.22431E+04
 0.70199997E+02 -0.22066E+04
 0.70249992E+02 -0.21255E+04
 0.70299995E+02 -0.19146E+04
 0.70349998E+02 -0.15366E+04
 0.70399994E+02 -0.12590E+04
 0.70449997E+02 -0.13929E+04
 0.70499992E+02 -0.16266E+04
 0.70549995E+02 -0.14906E+04
 0.70599998E+02 -0.11759E+04
 0.70649994E+02 -0.80422E+03
 0.70699997E+02 -0.42382E+03
 0.70749992E+02 -0.37390E+03
 0.70799995E+02 -0.38430E+03
 0.70849998E+02 -0.33883E+03
 0.70899994E+02 -0.20754E+03
 0.70949997E+02 -0.12536E+03
 0.70999992E+02 -0.26947E+03
 0.71049995E+02 -0.50488E+03
 0.71099998E+02 -0.99634E+03
 0.71149994E+02 -0.18075E+04
 0.71199997E+02 -0.22209E+04
 0.71249992E+02 -0.18215E+04
 0.71299995E+02 -0.11967E+04
 0.71349998E+02 -0.77740E+03
 0.71399994E+02 -0.55189E+03
 0.71449997E+02 -0.68631E+03
 0.71499992E+02 -0.12844E+04
 0.71549995E+02 -0.17993E+04
 0.71599998E+02 -0.20000E+04
 0.71649994E+02 -0.17901E+04
 0.71699997E+02 -0.12853E+04
 0.71749992E+02 -0.76626E+03
 0.71799995E+02 -0.43327E+03
 0.71849998E+02 -0.40273E+03
 0.71899994E+02 -0.56692E+03
 0.71949997E+02 -0.62318E+03
 0.71999992E+02 -0.57275E+03
 0.72049995E+02 -0.66017E+03
 0.72099998E+02 -0.59311E+03
 0.72149994E+02 -0.73943E+03
 0.72199997E+02 -0.13568E+04
 0.72249992E+02 -0.16451E+04
 0.72299995E+02 -0.14334E+04
 0.72349998E+02 -0.12718E+04
 0.72399994E+02 -0.10568E+04
 0.72449997E+02 -0.98397E+03
 0.72499992E+02 -0.11724E+04
 0.72549995E+02 -0.14139E+04
 0.72599998E+02 -0.14219E+04
 0.72649994E+02 -0.10981E+04
 0.72699997E+02 -0.85207E+03
 0.72749992E+02 -0.89040E+03
 0.72799995E+02 -0.10490E+04
 0.72849998E+02 -0.81576E+03
 0.72899994E+02 -0.63698E+03
 0.72949997E+02 -0.97849E+03
 0.72999992E+02 -0.15217E+04
 0.73049995E+02 -0.18158E+04
 0.73099998E+02 -0.16952E+04
 0.73149994E+02 -0.13637E+04
 0.73199997E+02 -0.11583E+04
 0.73249992E+02 -0.11491E+04
 0.73299995E+02 -0.11547E+04
 0.73349998E+02 -0.10696E+04
 0.73399994E+02 -0.98077E+03
 0.73449997E+02 -0.11725E+04
 0.73499992E+02 -0.14111E+04
 0.73549995E+02 -0.14792E+04
 0.73599998E+02 -0.14130E+04
 0.73649994E+02 -0.12760E+04
 0.73699997E+02 -0.12150E+04
 0.73749992E+02 -0.12847E+04
 0.73799995E+02 -0.14991E+04
 0.73849998E+02 -0.14487E+04
 0.73899994E+02 -0.12340E+04
 0.73949997E+02 -0.12459E+04
 0.73999992E+02 -0.11266E+04
 0.74049995E+02 -0.59203E+03
 0.74099998E+02  0.72356E+01
 0.74149994E+02  0.11561E+01
 0.74199997E+02 -0.43024E+03
 0.74249992E+02 -0.72542E+03
 0.74299995E+02 -0.80049E+03
 0.74349998E+02 -0.73224E+03
 0.74399994E+02 -0.60375E+03
 0.74449997E+02 -0.51671E+03
 0.74499992E+02 -0.69328E+03
 0.74549995E+02 -0.11183E+04
 0.74599998E+02 -0.14225E+04
 0.74649994E+02 -0.13274E+04
 0.74699997E+02 -0.11026E+04
 0.74749992E+02 -0.76158E+03
 0.74799995E+02 -0.45541E+03
 0.74849998E+02 -0.42015E+03
 0.74899994E+02 -0.73422E+03
 0.74949997E+02 -0.12475E+04
 0.74999992E+02 -0.13763E+04
 0.75049995E+02 -0.12453E+04
 0.75099998E+02 -0.12004E+04
 0.75149994E+02 -0.12739E+04
 0.75199997E+02 -0.13349E+04
 0.75249992E+02 -0.12954E+04
 0.75299995E+02 -0.11512E+04
 0.75349998E+02 -0.13019E+04
 0.75399994E+02 -0.17055E+04
 0.75449997E+02 -0.18670E+04
 0.75499992E+02 -0.18383E+04
 0.75549995E+02 -0.19062E+04
 0.75599998E+02 -0.18437E+04
 0.75649994E+02 -0.13877E+04
 0.75699997E+02 -0.75746E+03
 0.75749992E+02 -0.15436E+03
 0.75799995E+02  0.99933E+02
 0.75849998E+02 -0.72335E+02
 0.75899994E+02 -0.56203E+03
 0.75949997E+02 -0.93362E+03
 0.75999992E+02 -0.90857E+03
 0.76049995E+02 -0.86373E+03
 0.76099998E+02 -0.88230E+03
 0.76149994E+02 -0.81969E+03
 0.76199997E+02 -0.77275E+03
 0.76249992E+02 -0.10885E+04
 0.76299995E+02 -0.16201E+04
 0.76349998E+02 -0.20286E+04
 0.76399994E+02 -0.22505E+04
 0.76449997E+02 -0.21347E+04
 0.76499992E+02 -0.17065E+04
 0.76549995E+02 -0.11703E+04
 0.76599998E+02 -0.69558E+03
 0.76649994E+02 -0.53772E+03
 0.76699997E+02 -0.60247E+03
 0.76749992E+02 -0.76859E+03
 0.76799995E+02 -0.10376E+04
 0.76849998E+02 -0.11716E+04
 0.76899994E+02 -0.11695E+04
 0.76949997E+02 -0.12375E+04
 0.76999992E+02 -0.13412E+04
 0.77049995E+02 -0.11163E+04
 0.77099998E+02 -0.76534E+03
 0.77149994E+02 -0.48921E+03
 0.77199997E+02 -0.40384E+03
 0.77249992E+02 -0.64708E+03
 0.77299995E+02 -0.87607E+03
 0.77349998E+02 -0.85905E+03
 0.77399994E+02 -0.81957E+03
 0.77449997E+02 -0.96840E+03
 0.77499992E+02 -0.10061E+04
 0.77549995E+02 -0.99994E+03
 0.77599998E+02 -0.10672E+04
 0.77649994E+02 -0.12602E+04
 0.77699997E+02 -0.15361E+04
 0.77749992E+02 -0.15206E+04
 0.77799995E+02 -0.13399E+04
 0.77849998E+02 -0.13841E+04
 0.77899994E+02 -0.15377E+04
 0.77949997E+02 -0.16167E+04
 0.77999992E+02 -0.17228E+04
 0.78049995E+02 -0.17600E+04
 0.78099998E+02 -0.15407E+04
 0.78149994E+02 -0.10858E+04
 0.78199997E+02 -0.60603E+03
 0.78249992E+02 -0.33906E+03
 0.78299995E+02 -0.33791E+03
 0.78349998E+02 -0.59140E+03
 0.78399994E+02 -0.99740E+03
 0.78449997E+02 -0.10883E+04
 0.78499992E+02 -0.10189E+04
 0.78549995E+02 -0.10278E+04
 0.78599998E+02 -0.10139E+04
 0.78649994E+02 -0.10664E+04
 0.78699997E+02 -0.12159E+04
 0.78749992E+02 -0.12970E+04
 0.78799995E+02 -0.11751E+04
 0.78849998E+02 -0.92620E+03
 0.78899994E+02 -0.72763E+03
 0.78949997E+02 -0.78541E+03
 0.78999992E+02 -0.11257E+04
 0.79049995E+02 -0.14035E+04
 0.79099998E+02 -0.13417E+04
 0.79149994E+02 -0.12602E+04
 0.79199997E+02 -0.13282E+04
 0.79249992E+02 -0.12426E+04
 0.79299995E+02 -0.10952E+04
 0.79349998E+02 -0.11806E+04
 0.79399994E+02 -0.11422E+04
 0.79449997E+02 -0.84238E+03
 0.79499992E+02 -0.53634E+03
 0.79549995E+02 -0.48845E+03
 0.79599998E+02 -0.62982E+03
 0.79649994E+02 -0.66916E+03
 0.79699997E+02 -0.69355E+03
 0.79749992E+02 -0.88709E+03
 0.79799995E+02 -0.11036E+04
 0.79849998E+02 -0.10294E+04
 0.79899994E+02 -0.83931E+03
 0.79949997E+02 -0.74428E+03
 0.79999992E+02 -0.75836E+03
 0.80049995E+02 -0.89719E+03
 0.80099998E+02 -0.10381E+04
 0.80149994E+02 -0.10539E+04
 0.80199997E+02 -0.95288E+03
 0.80249992E+02 -0.83791E+03
 0.80299995E+02 -0.90322E+03
 0.80349998E+02 -0.13602E+04
 0.80399994E+02 -0.18813E+04
 0.80449997E+02 -0.21806E+04
 0.80499992E+02 -0.22000E+04
 0.80549995E+02 -0.19314E+04
 0.80599998E+02 -0.17365E+04
 0.80649994E+02 -0.16625E+04
 0.80699997E+02 -0.15464E+04
 0.80749992E+02 -0.13744E+04
 0.80799995E+02 -0.11307E+04
 0.80849998E+02 -0.85967E+03
 0.80899994E+02 -0.69222E+03
 0.80949997E+02 -0.44016E+03
 0.80999992E+02 -0.17507E+03
 0.81049995E+02 -0.33334E+03
 0.81099998E+02 -0.67813E+03
 0.81149994E+02 -0.82668E+03
 0.81199997E+02 -0.78847E+03
 0.81249992E+02 -0.78444E+03
 0.81299995E+02 -0.86198E+03
 0.81349998E+02 -0.97675E+03
 0.81399994E+02 -0.12140E+04
 0.81449997E+02 -0.15006E+04
 0.81499992E+02 -0.15590E+04
 0.81549995E+02 -0.13420E+04
 0.81599998E+02 -0.10017E+04
 0.81649994E+02 -0.82231E+03
 0.81699997E+02 -0.98163E+03
 0.81749992E+02 -0.11117E+04
 0.81799995E+02 -0.11590E+04
 0.81849998E+02 -0.13690E+04
 0.81899994E+02 -0.15978E+04
 0.81949997E+02 -0.16346E+04
 0.81999992E+02 -0.15613E+04
 0.82049995E+02 -0.15085E+04
 0.82099998E+02 -0.15065E+04
 0.82149994E+02 -0.14007E+04
 0.82199997E+02 -0.11104E+04
 0.82249992E+02 -0.79073E+03
 0.82299995E+02 -0.65824E+03
 0.82349998E+02 -0.67957E+03
 0.82399994E+02 -0.82028E+03
 0.82449997E+02 -0.10731E+04
 0.82499992E+02 -0.12833E+04
 0.82549995E+02 -0.14867E+04
 0.82599998E+02 -0.15629E+04
 0.82649994E+02 -0.14544E+04
 0.82699997E+02 -0.13138E+04
 0.82749992E+02 -0.11399E+04
 0.82799995E+02 -0.93806E+03
 0.82849998E+02 -0.66783E+03
 0.82899994E+02 -0.51459E+03
 0.82949997E+02 -0.54590E+03
 0.82999992E+02 -0.55516E+03
 0.83049995E+02 -0.64728E+03
 0.83099998E+02 -0.79221E+03
 0.83149994E+02 -0.97519E+03
 0.83199997E+02 -0.10742E+04
 0.83249992E+02 -0.94112E+03
 0.83299995E+02 -0.74466E+03
 0.83349998E+02 -0.75704E+03
 0.83399994E+02 -0.93002E+03
 0.83449997E+02 -0.11363E+04
 0.83499992E+02 -0.13295E+04
 0.83549995E+02 -0.14025E+04
 0.83599998E+02 -0.14939E+04
 0.83649994E+02 -0.16418E+04
 0.83699997E+02 -0.16242E+04
 0.83749992E+02 -0.12642E+04
 0.83799995E+02 -0.88196E+03
 0.83849998E+02 -0.73975E+03
 0.83899994E+02 -0.70752E+03
 0.83949997E+02 -0.82432E+03
 0.83999992E+02 -0.11108E+04
 0.84049995E+02 -0.12323E+04
 0.84099998E+02 -0.10841E+04
 0.84149994E+02 -0.81642E+03
 0.84199997E+02 -0.52198E+03
 0.84249992E+02 -0.39425E+03
 0.84299995E+02 -0.55570E+03
 0.84349998E+02 -0.94988E+03
 0.84399994E+02 -0.12602E+04
 0.84449997E+02 -0.13365E+04
 0.84499992E+02 -0.13043E+04
 0.84549995E+02 -0.12739E+04
 0.84599998E+02 -0.12962E+04
 0.84649994E+02 -0.12309E+04
 0.84699997E+02 -0.10800E+04
 0.84749992E+02 -0.85934E+03
 0.84799995E+02 -0.63529E+03
 0.84849998E+02 -0.63066E+03
 0.84899994E+02 -0.78207E+03
 0.84949997E+02 -0.92864E+03
 0.84999992E+02 -0.11342E+04
 0.85049995E+02 -0.13874E+04
 0.85099998E+02 -0.14263E+04
 0.85149994E+02 -0.13703E+04
 0.85199997E+02 -0.13397E+04
 0.85249992E+02 -0.12464E+04
 0.85299995E+02 -0.10634E+04
 0.85349998E+02 -0.98844E+03
 0.85399994E+02 -0.99759E+03
 0.85449997E+02 -0.96071E+03
 0.85499992E+02 -0.11092E+04
 0.85549995E+02 -0.13299E+04
 0.85599998E+02 -0.12959E+04
 0.85649994E+02 -0.96386E+03
 0.85699997E+02 -0.68390E+03
 0.85749992E+02 -0.63928E+03
 0.85799995E+02 -0.88146E+03
 0.85849998E+02 -0.12493E+04
 0.85899994E+02 -0.13998E+04
 0.85949997E+02 -0.12978E+04
 0.85999992E+02 -0.12482E+04
 0.86049995E+02 -0.14307E+04
 0.86099998E+02 -0.15642E+04
 0.86149994E+02 -0.15659E+04
 0.86199997E+02 -0.15606E+04
 0.86249992E+02 -0.13842E+04
 0.86299995E+02 -0.96681E+03
 0.86349998E+02 -0.55916E+03
 0.86399994E+02 -0.43139E+03
 0.86449997E+02 -0.59910E+03
 0.86499992E+02 -0.90304E+03
 0.86549995E+02 -0.12444E+04
 0.86599998E+02 -0.14454E+04
 0.86649994E+02 -0.15069E+04
 0.86699997E+02 -0.15718E+04
 0.86749992E+02 -0.15463E+04
 0.86799995E+02 -0.13757E+04
 0.86849998E+02 -0.12554E+04
 0.86899994E+02 -0.13293E+04
 0.86949997E+02 -0.14226E+04
 0.86999992E+02 -0.14198E+04
 0.87049995E+02 -0.12494E+04
 0.87099998E+02 -0.96301E+03
 0.87149994E+02 -0.94275E+03
 0.87199997E+02 -0.11012E+04
 0.87249992E+02 -0.10551E+04
 0.87299995E+02 -0.83681E+03
 0.87349998E+02 -0.73818E+03
 0.87399994E+02 -0.79712E+03
 0.87449997E+02 -0.89847E+03
 0.87499992E+02 -0.10205E+04
 0.87549995E+02 -0.10552E+04
 0.87599991E+02 -0.95431E+03
 0.87649994E+02 -0.88251E+03
 0.87699997E+02 -0.86495E+03
 0.87749992E+02 -0.70033E+03
 0.87799995E+02 -0.45491E+03
 0.87849991E+02 -0.33565E+03
 0.87899994E+02 -0.40310E+03
 0.87949997E+02 -0.55517E+03
 0.87999992E+02 -0.76914E+03
 0.88049995E+02 -0.11080E+04
 0.88099991E+02 -0.13868E+04
 0.88149994E+02 -0.14386E+04
 0.88199997E+02 -0.13183E+04
 0.88249992E+02 -0.11563E+04
 0.88299995E+02 -0.10185E+04
 0.88349991E+02 -0.99938E+03
 0.88399994E+02 -0.10828E+04
 0.88449997E+02 -0.12336E+04
 0.88499992E+02 -0.13611E+04
 0.88549995E+02 -0.12708E+04
 0.88599991E+02 -0.11461E+04
 0.88649994E+02 -0.10933E+04
 0.88699997E+02 -0.98712E+03
 0.88749992E+02 -0.95421E+03
 0.88799995E+02 -0.10448E+04
 0.88849991E+02 -0.11260E+04
 0.88899994E+02 -0.11580E+04
 0.88949997E+02 -0.11539E+04
 0.88999992E+02 -0.11535E+04
 0.89049995E+02 -0.11458E+04
 0.89099991E+02 -0.10193E+04
 0.89149994E+02 -0.89127E+03
 0.89199997E+02 -0.92801E+03
 0.89249992E+02 -0.10568E+04
 0.89299995E+02 -0.12427E+04
 0.89349991E+02 -0.14441E+04
 0.89399994E+02 -0.15207E+04
 0.89449997E+02 -0.14643E+04
 0.89499992E+02 -0.13863E+04
 0.89549995E+02 -0.13213E+04
 0.89599991E+02 -0.13758E+04
 0.89649994E+02 -0.14396E+04
 0.89699997E+02 -0.13011E+04
 0.89749992E+02 -0.95814E+03
 0.89799995E+02 -0.68923E+03
 0.89849991E+02 -0.74830E+03
 0.89899994E+02 -0.96492E+03
 0.89949997E+02 -0.11581E+04
 0.89999992E+02 -0.12400E+04
 0.90049995E+02 -0.12060E+04
 0.90099991E+02 -0.11968E+04
 0.90149994E+02 -0.12130E+04
 0.90199997E+02 -0.11494E+04
 0.90249992E+02 -0.10082E+04
 0.90299995E+02 -0.87563E+03
 0.90349991E+02 -0.77928E+03
 0.90399994E+02 -0.77840E+03
 0.90449997E+02 -0.87555E+03
 0.90499992E+02 -0.85738E+03
 0.90549995E+02 -0.87233E+03
 0.90599991E+02 -0.11006E+04
 0.90649994E+02 -0.14276E+04
 0.90699997E+02 -0.16155E+04
 0.90749992E+02 -0.15349E+04
 0.90799995E+02 -0.14234E+04
 0.90849991E+02 -0.14277E+04
 0.90899994E+02 -0.12754E+04
 0.90949997E+02 -0.95105E+03
 0.90999992E+02 -0.82928E+03
 0.91049995E+02 -0.94557E+03
 0.91099991E+02 -0.98799E+03
 0.91149994E+02 -0.98771E+03
 0.91199997E+02 -0.10401E+04
 0.91249992E+02 -0.97723E+03
 0.91299995E+02 -0.83401E+03
 0.91349991E+02 -0.66565E+03
 0.91399994E+02 -0.60033E+03
 0.91449997E+02 -0.67979E+03
 0.91499992E+02 -0.83283E+03
 0.91549995E+02 -0.10107E+04
 0.91599991E+02 -0.11549E+04
 0.91649994E+02 -0.12147E+04
 0.91699997E+02 -0.12469E+04
 0.91749992E+02 -0.12181E+04
 0.91799995E+02 -0.10548E+04
 0.91849991E+02 -0.88075E+03
 0.91899994E+02 -0.81327E+03
 0.91949997E+02 -0.82083E+03
 0.91999992E+02 -0.77867E+03
 0.92049995E+02 -0.77051E+03
 0.92099991E+02 -0.85165E+03
 0.92149994E+02 -0.91555E+03
 0.92199997E+02 -0.92802E+03
 0.92249992E+02 -0.98216E+03
 0.92299995E+02 -0.11384E+04
 0.92349991E+02 -0.13339E+04
 0.92399994E+02 -0.14332E+04
 0.92449997E+02 -0.14218E+04
 0.92499992E+02 -0.13394E+04
 0.92549995E+02 -0.12375E+04
 0.92599991E+02 -0.11022E+04
 0.92649994E+02 -0.98439E+03
 0.92699997E+02 -0.98436E+03
 0.92749992E+02 -0.94735E+03
 0.92799995E+02 -0.87869E+03
 0.92849991E+02 -0.82593E+03
 0.92899994E+02 -0.80712E+03
 0.92949997E+02 -0.80318E+03
 0.92999992E+02 -0.75995E+03
 0.93049995E+02 -0.76278E+03
 0.93099991E+02 -0.87825E+03
 0.93149994E+02 -0.10232E+04
 0.93199997E+02 -0.10533E+04
 0.93249992E+02 -0.10345E+04
 0.93299995E+02 -0.11114E+04
 0.93349991E+02 -0.13273E+04
 0.93399994E+02 -0.15089E+04
 0.93449997E+02 -0.15288E+04
 0.93499992E+02 -0.14259E+04
 0.93549995E+02 -0.13121E+04
 0.93599991E+02 -0.12208E+04
 0.93649994E+02 -0.10907E+04
 0.93699997E+02 -0.97937E+03
 0.93749992E+02 -0.88056E+03
 0.93799995E+02 -0.75855E+03
 0.93849991E+02 -0.73520E+03
 0.93899994E+02 -0.83215E+03
 0.93949997E+02 -0.92399E+03
 0.93999992E+02 -0.10565E+04
 0.94049995E+02 -0.12608E+04
 0.94099991E+02 -0.14579E+04
 0.94149994E+02 -0.15304E+04
 0.94199997E+02 -0.14661E+04
 0.94249992E+02 -0.14158E+04
 0.94299995E+02 -0.14388E+04
 0.94349991E+02 -0.14922E+04
 0.94399994E+02 -0.14647E+04
 0.94449997E+02 -0.13542E+04
 0.94499992E+02 -0.11975E+04
 0.94549995E+02 -0.10015E+04
 0.94599991E+02 -0.86073E+03
 0.94649994E+02 -0.83936E+03
 0.94699997E+02 -0.88677E+03
 0.94749992E+02 -0.90397E+03
 0.94799995E+02 -0.85508E+03
 0.94849991E+02 -0.75691E+03
 0.94899994E+02 -0.74868E+03
 0.94949997E+02 -0.88426E+03
 0.94999992E+02 -0.10142E+04
 0.95049995E+02 -0.10341E+04
 0.95099991E+02 -0.10006E+04
 0.95149994E+02 -0.89150E+03
 0.95199997E+02 -0.71156E+03
 0.95249992E+02 -0.67498E+03
 0.95299995E+02 -0.81585E+03
 0.95349991E+02 -0.98089E+03
 0.95399994E+02 -0.11352E+04
 0.95449997E+02 -0.12661E+04
 0.95499992E+02 -0.13325E+04
 0.95549995E+02 -0.13643E+04
 0.95599991E+02 -0.13695E+04
 0.95649994E+02 -0.13053E+04
 0.95699997E+02 -0.12105E+04
 0.95749992E+02 -0.11379E+04
 0.95799995E+02 -0.11269E+04
 0.95849991E+02 -0.11762E+04
 0.95899994E+02 -0.11413E+04
 0.95949997E+02 -0.10247E+04
 0.95999992E+02 -0.96607E+03
 0.96049995E+02 -0.10955E+04
 0.96099991E+02 -0.13109E+04
 0.96149994E+02 -0.14054E+04
 0.96199997E+02 -0.14180E+04
 0.96249992E+02 -0.13860E+04
 0.96299995E+02 -0.13092E+04
 0.96349991E+02 -0.11943E+04
 0.96399994E+02 -0.10840E+04
 0.96449997E+02 -0.10170E+04
 0.96499992E+02 -0.10334E+04
 0.96549995E+02 -0.10677E+04
 0.96599991E+02 -0.10273E+04
 0.96649994E+02 -0.10003E+04
 0.96699997E+02 -0.99555E+03
 0.96749992E+02 -0.96518E+03
 0.96799995E+02 -0.10467E+04
 0.96849991E+02 -0.12842E+04
 0.96899994E+02 -0.14554E+04
 0.96949997E+02 -0.15564E+04
 0.96999992E+02 -0.16266E+04
 0.97049995E+02 -0.15889E+04
 0.97099991E+02 -0.13940E+04
 0.97149994E+02 -0.11351E+04
 0.97199997E+02 -0.92593E+03
 0.97249992E+02 -0.76813E+03
 0.97299995E+02 -0.72899E+03
 0.97349991E+02 -0.73133E+03
 0.97399994E+02 -0.72476E+03
 0.97449997E+02 -0.75187E+03
 0.97499992E+02 -0.85612E+03
 0.97549995E+02 -0.10355E+04
 0.97599991E+02 -0.11897E+04
 0.97649994E+02 -0.12171E+04
 0.97699997E+02 -0.11104E+04
 0.97749992E+02 -0.10235E+04
 0.97799995E+02 -0.99366E+03
 0.97849991E+02 -0.92697E+03
 0.97899994E+02 -0.82561E+03
 0.97949997E+02 -0.76734E+03
 0.97999992E+02 -0.76018E+03
