-0.20000000E+01  0.17281E+04
-0.19500000E+01  0.17189E+04
-0.19000000E+01  0.17229E+04
-0.18500000E+01  0.17232E+04
-0.18000000E+01  0.17276E+04
-0.17500000E+01  0.17301E+04
-0.17000000E+01  0.17288E+04
-0.16500001E+01  0.17331E+04
-0.16000000E+01  0.17349E+04
-0.15500000E+01  0.17356E+04
-0.15000000E+01  0.17366E+04
-0.14500000E+01  0.17388E+04
-0.14000001E+01  0.17410E+04
-0.13500000E+01  0.17410E+04
-0.13000001E+01  0.17393E+04
-0.12500000E+01  0.17383E+04
-0.12000000E+01  0.17413E+04
-0.11500001E+01  0.17380E+04
-0.11000000E+01  0.17383E+04
-0.10500001E+01  0.17393E+04
-0.10000000E+01  0.17391E+04
-0.95000005E+00  0.17397E+04
-0.90000010E+00  0.17362E+04
-0.85000002E+00  0.17367E+04
-0.80000007E+00  0.17368E+04
-0.75000012E+00  0.17336E+04
-0.70000005E+00  0.17351E+04
-0.65000010E+00  0.17339E+04
-0.60000014E+00  0.17323E+04
-0.55000007E+00  0.17323E+04
-0.50000012E+00  0.17327E+04
-0.45000005E+00  0.17351E+04
-0.40000010E+00  0.17346E+04
-0.35000014E+00  0.17334E+04
-0.30000007E+00  0.17319E+04
-0.25000012E+00  0.17302E+04
-0.20000005E+00  0.17314E+04
-0.15000010E+00  0.17317E+04
-0.10000014E+00  0.17304E+04
-0.50000072E-01  0.17319E+04
-0.11920929E-06  0.17341E+04
 0.49999952E-01  0.17309E+04
 0.99999905E-01  0.17315E+04
 0.14999986E+00  0.17330E+04
 0.19999981E+00  0.17322E+04
 0.24999976E+00  0.17310E+04
 0.29999995E+00  0.17307E+04
 0.34999990E+00  0.17323E+04
 0.39999986E+00  0.17313E+04
 0.44999981E+00  0.17320E+04
 0.49999976E+00  0.17289E+04
 0.54999995E+00  0.17299E+04
 0.59999990E+00  0.17308E+04
 0.64999986E+00  0.17276E+04
 0.69999981E+00  0.17293E+04
 0.74999976E+00  0.17267E+04
 0.79999971E+00  0.17259E+04
 0.84999990E+00  0.17267E+04
 0.89999986E+00  0.17273E+04
 0.94999981E+00  0.17300E+04
 0.99999976E+00  0.17325E+04
 0.10499997E+01  0.17332E+04
 0.10999999E+01  0.17319E+04
 0.11499999E+01  0.17314E+04
 0.11999998E+01  0.17290E+04
 0.12499998E+01  0.17291E+04
 0.12999997E+01  0.17293E+04
 0.13499999E+01  0.17297E+04
 0.13999999E+01  0.17299E+04
 0.14499998E+01  0.17312E+04
 0.14999998E+01  0.17320E+04
 0.15499997E+01  0.17310E+04
 0.15999999E+01  0.17314E+04
 0.16499999E+01  0.17350E+04
 0.16999998E+01  0.17341E+04
 0.17499998E+01  0.17328E+04
 0.17999997E+01  0.17315E+04
 0.18499997E+01  0.17292E+04
 0.18999999E+01  0.17279E+04
 0.19499998E+01  0.17261E+04
 0.19999998E+01  0.17294E+04
 0.20499997E+01  0.17284E+04
 0.20999999E+01  0.17276E+04
 0.21499996E+01  0.17276E+04
 0.21999998E+01  0.17300E+04
 0.22499995E+01  0.17297E+04
 0.22999997E+01  0.17295E+04
 0.23499999E+01  0.17293E+04
 0.23999996E+01  0.17291E+04
 0.24499998E+01  0.17302E+04
 0.24999995E+01  0.17294E+04
 0.25499997E+01  0.17298E+04
 0.25999999E+01  0.17297E+04
 0.26499996E+01  0.17310E+04
 0.26999998E+01  0.17332E+04
 0.27499995E+01  0.17349E+04
 0.27999997E+01  0.17325E+04
 0.28499999E+01  0.17329E+04
 0.28999996E+01  0.17350E+04
 0.29499998E+01  0.17352E+04
 0.29999995E+01  0.17370E+04
 0.30499997E+01  0.17365E+04
 0.30999999E+01  0.17393E+04
 0.31499996E+01  0.17389E+04
 0.31999998E+01  0.17385E+04
 0.32499995E+01  0.17391E+04
 0.32999997E+01  0.17362E+04
 0.33499999E+01  0.17381E+04
 0.33999996E+01  0.17367E+04
 0.34499998E+01  0.17362E+04
 0.34999995E+01  0.17355E+04
 0.35499997E+01  0.17360E+04
 0.35999994E+01  0.17378E+04
 0.36499996E+01  0.17363E+04
 0.36999998E+01  0.17352E+04
 0.37499995E+01  0.17332E+04
 0.37999997E+01  0.17316E+04
 0.38499994E+01  0.17318E+04
 0.38999996E+01  0.17305E+04
 0.39499998E+01  0.17275E+04
 0.39999995E+01  0.17288E+04
 0.40499997E+01  0.17343E+04
 0.40999994E+01  0.17324E+04
 0.41499996E+01  0.17328E+04
 0.41999998E+01  0.17351E+04
 0.42499995E+01  0.17326E+04
 0.42999997E+01  0.17330E+04
 0.43499994E+01  0.17341E+04
 0.43999996E+01  0.17325E+04
 0.44499998E+01  0.17322E+04
 0.44999995E+01  0.17336E+04
 0.45499997E+01  0.17343E+04
 0.45999994E+01  0.17343E+04
 0.46499996E+01  0.17309E+04
 0.46999998E+01  0.17336E+04
 0.47499995E+01  0.17336E+04
 0.47999997E+01  0.17330E+04
 0.48499994E+01  0.17327E+04
 0.48999996E+01  0.17317E+04
 0.49499998E+01  0.17312E+04
 0.49999995E+01  0.17313E+04
 0.50499997E+01  0.17345E+04
 0.50999994E+01  0.17353E+04
 0.51499996E+01  0.17354E+04
 0.51999998E+01  0.17338E+04
 0.52499995E+01  0.17320E+04
 0.52999997E+01  0.17338E+04
 0.53499994E+01  0.17345E+04
 0.53999996E+01  0.17297E+04
 0.54499993E+01  0.17303E+04
 0.54999995E+01  0.17298E+04
 0.55499997E+01  0.17269E+04
 0.55999994E+01  0.17258E+04
 0.56499996E+01  0.17261E+04
 0.56999993E+01  0.17245E+04
 0.57499995E+01  0.17243E+04
 0.57999997E+01  0.17289E+04
 0.58499994E+01  0.17319E+04
 0.58999996E+01  0.17356E+04
 0.59499993E+01  0.17314E+04
 0.59999995E+01  0.17337E+04
 0.60499992E+01  0.17362E+04
 0.60999994E+01  0.17324E+04
 0.61499996E+01  0.17350E+04
 0.61999998E+01  0.17337E+04
 0.62499990E+01  0.17329E+04
 0.62999992E+01  0.17314E+04
 0.63499994E+01  0.17297E+04
 0.63999996E+01  0.17298E+04
 0.64499998E+01  0.17278E+04
 0.64999990E+01  0.17272E+04
 0.65499992E+01  0.17269E+04
 0.65999994E+01  0.17246E+04
 0.66499996E+01  0.17267E+04
 0.66999998E+01  0.17271E+04
 0.67499990E+01  0.17260E+04
 0.67999992E+01  0.17297E+04
 0.68499994E+01  0.17303E+04
 0.68999996E+01  0.17286E+04
 0.69499998E+01  0.17266E+04
 0.69999990E+01  0.17266E+04
 0.70499992E+01  0.17275E+04
 0.70999994E+01  0.17267E+04
 0.71499996E+01  0.17278E+04
 0.71999998E+01  0.17285E+04
 0.72499990E+01  0.17286E+04
 0.72999992E+01  0.17304E+04
 0.73499994E+01  0.17325E+04
 0.73999996E+01  0.17348E+04
 0.74499998E+01  0.17367E+04
 0.74999990E+01  0.17370E+04
 0.75499992E+01  0.17387E+04
 0.75999994E+01  0.17402E+04
 0.76499996E+01  0.17418E+04
 0.76999998E+01  0.17377E+04
 0.77499990E+01  0.17366E+04
 0.77999992E+01  0.17374E+04
 0.78499994E+01  0.17357E+04
 0.78999996E+01  0.17383E+04
 0.79499998E+01  0.17351E+04
 0.79999990E+01  0.17364E+04
 0.80499992E+01  0.17370E+04
 0.80999994E+01  0.17366E+04
 0.81499996E+01  0.17359E+04
 0.81999998E+01  0.17346E+04
 0.82499990E+01  0.17338E+04
 0.82999992E+01  0.17322E+04
 0.83499994E+01  0.17348E+04
 0.83999996E+01  0.17332E+04
 0.84499998E+01  0.17353E+04
 0.84999990E+01  0.17350E+04
 0.85499992E+01  0.17367E+04
 0.85999994E+01  0.17374E+04
 0.86499996E+01  0.17366E+04
 0.86999998E+01  0.17386E+04
 0.87499990E+01  0.17374E+04
 0.87999992E+01  0.17376E+04
 0.88499994E+01  0.17351E+04
 0.88999996E+01  0.17352E+04
 0.89499998E+01  0.17339E+04
 0.89999990E+01  0.17311E+04
 0.90499992E+01  0.17312E+04
 0.90999994E+01  0.17277E+04
 0.91499996E+01  0.17272E+04
 0.91999989E+01  0.17279E+04
 0.92499990E+01  0.17261E+04
 0.92999992E+01  0.17264E+04
 0.93499994E+01  0.17291E+04
 0.93999996E+01  0.17321E+04
 0.94499989E+01  0.17348E+04
 0.94999990E+01  0.17369E+04
 0.95499992E+01  0.17392E+04
 0.95999994E+01  0.17407E+04
 0.96499996E+01  0.17390E+04
 0.96999989E+01  0.17407E+04
 0.97499990E+01  0.17388E+04
 0.97999992E+01  0.17359E+04
 0.98499994E+01  0.17343E+04
 0.98999996E+01  0.17313E+04
 0.99499989E+01  0.17296E+04
 0.99999990E+01  0.17279E+04
 0.10049999E+02  0.17272E+04
 0.10099999E+02  0.17270E+04
 0.10150000E+02  0.17227E+04
 0.10199999E+02  0.17209E+04
 0.10249999E+02  0.17200E+04
 0.10299999E+02  0.17185E+04
 0.10349999E+02  0.17201E+04
 0.10400000E+02  0.17196E+04
 0.10449999E+02  0.17224E+04
 0.10499999E+02  0.17238E+04
 0.10549999E+02  0.17249E+04
 0.10599999E+02  0.17255E+04
 0.10650000E+02  0.17259E+04
 0.10699999E+02  0.17264E+04
 0.10749999E+02  0.17277E+04
 0.10799999E+02  0.17267E+04
 0.10849999E+02  0.17294E+04
 0.10900000E+02  0.17323E+04
 0.10949999E+02  0.17346E+04
 0.10999999E+02  0.17411E+04
 0.11049999E+02  0.17414E+04
 0.11099999E+02  0.17432E+04
 0.11150000E+02  0.17441E+04
 0.11199999E+02  0.17458E+04
 0.11249999E+02  0.17484E+04
 0.11299999E+02  0.17523E+04
 0.11349999E+02  0.17530E+04
 0.11400000E+02  0.17514E+04
 0.11449999E+02  0.17499E+04
 0.11499999E+02  0.17470E+04
 0.11549999E+02  0.17474E+04
 0.11599999E+02  0.17447E+04
 0.11650000E+02  0.17437E+04
 0.11699999E+02  0.17418E+04
 0.11749999E+02  0.17405E+04
 0.11799999E+02  0.17406E+04
 0.11849999E+02  0.17361E+04
 0.11900000E+02  0.17398E+04
 0.11949999E+02  0.17351E+04
 0.11999999E+02  0.17381E+04
 0.12049999E+02  0.17280E+04
 0.12099999E+02  0.17356E+04
 0.12150000E+02  0.17241E+04
 0.12199999E+02  0.17341E+04
 0.12249999E+02  0.17206E+04
 0.12299999E+02  0.17177E+04
 0.12349999E+02  0.17157E+04
 0.12400000E+02  0.17450E+04
 0.12449999E+02  0.18192E+04
 0.12499999E+02  0.18423E+04
 0.12549999E+02  0.18203E+04
 0.12599999E+02  0.16518E+04
 0.12649999E+02  0.16688E+04
 0.12699999E+02  0.15569E+04
 0.12749999E+02  0.16859E+04
 0.12799999E+02  0.17962E+04
 0.12849999E+02  0.19300E+04
 0.12899999E+02  0.19027E+04
 0.12949999E+02  0.15803E+04
 0.12999999E+02  0.15755E+04
 0.13049999E+02  0.15792E+04
 0.13099999E+02  0.21422E+04
 0.13149999E+02  0.16716E+04
 0.13199999E+02  0.14012E+04
 0.13249999E+02  0.20611E+04
 0.13299999E+02  0.28789E+04
 0.13349999E+02  0.22758E+04
 0.13399999E+02  0.41255E+03
 0.13449999E+02  0.59715E+03
 0.13499999E+02  0.15042E+04
 0.13549999E+02  0.39441E+04
 0.13599999E+02  0.32798E+04
 0.13649999E+02  0.28499E+02
 0.13699999E+02 -0.11294E+04
 0.13749999E+02  0.93256E+03
 0.13799999E+02  0.38109E+04
 0.13849999E+02  0.22642E+04
 0.13899999E+02  0.23461E+04
 0.13949999E+02  0.43181E+03
 0.13999999E+02 -0.15239E+04
 0.14049999E+02  0.27185E+04
 0.14099998E+02  0.41813E+04
 0.14150000E+02  0.59518E+03
 0.14199999E+02  0.78567E+03
 0.14249998E+02  0.21217E+04
 0.14299999E+02  0.18519E+04
 0.14349998E+02  0.32779E+04
 0.14400000E+02  0.18567E+04
 0.14449999E+02  0.12011E+04
 0.14499998E+02  0.85163E+03
 0.14549999E+02  0.13930E+04
 0.14599998E+02  0.32042E+04
 0.14650000E+02  0.43656E+04
 0.14699999E+02  0.11290E+04
 0.14749998E+02  0.26188E+03
 0.14799999E+02  0.18275E+04
 0.14849998E+02  0.13235E+04
 0.14900000E+02  0.34817E+04
 0.14949999E+02  0.15509E+04
 0.14999998E+02  0.98267E+03
 0.15049999E+02  0.19603E+04
 0.15099998E+02  0.30136E+04
 0.15150000E+02  0.93778E+03
 0.15199999E+02  0.14121E+04
 0.15249998E+02  0.31478E+04
 0.15299999E+02 -0.69362E+02
 0.15349998E+02 -0.55887E+02
 0.15400000E+02  0.18233E+04
 0.15449999E+02  0.12683E+04
 0.15499998E+02  0.20806E+04
 0.15549999E+02  0.42166E+04
 0.15599998E+02  0.19172E+04
 0.15650000E+02 -0.53227E+03
 0.15699999E+02  0.67736E+03
 0.15749998E+02  0.32446E+04
 0.15799999E+02  0.18411E+04
 0.15849998E+02  0.24969E+04
 0.15900000E+02  0.16968E+04
 0.15949999E+02  0.39146E+02
 0.15999998E+02  0.12017E+04
 0.16049999E+02  0.28937E+04
 0.16099998E+02  0.25308E+04
 0.16150000E+02  0.27986E+04
 0.16199999E+02 -0.22441E+04
 0.16249998E+02  0.21144E+04
 0.16299999E+02  0.47062E+04
 0.16349998E+02  0.12785E+04
 0.16400000E+02  0.17187E+04
 0.16449999E+02  0.17670E+03
 0.16499998E+02  0.11030E+04
 0.16549999E+02  0.18267E+04
 0.16599998E+02  0.47806E+04
 0.16650000E+02  0.16398E+04
 0.16699999E+02  0.45019E+03
 0.16749998E+02  0.57641E+03
 0.16799999E+02  0.16453E+04
 0.16849998E+02  0.31818E+04
 0.16900000E+02  0.35691E+04
 0.16949999E+02  0.21216E+04
 0.16999998E+02  0.29425E+03
 0.17049999E+02  0.38111E+03
 0.17099998E+02  0.10620E+04
 0.17150000E+02  0.28830E+04
 0.17199999E+02  0.25066E+04
 0.17249998E+02  0.93532E+03
 0.17299999E+02  0.17222E+04
 0.17349998E+02  0.31855E+04
 0.17400000E+02  0.26948E+04
 0.17449999E+02 -0.41803E+02
 0.17499998E+02  0.51159E+03
 0.17549999E+02  0.27153E+04
 0.17599998E+02  0.44352E+02
 0.17650000E+02  0.26703E+04
 0.17699999E+02  0.23251E+04
 0.17749998E+02 -0.31739E+03
 0.17799999E+02  0.13714E+04
 0.17849998E+02  0.27244E+04
 0.17900000E+02  0.33911E+04
 0.17949999E+02  0.11713E+04
 0.17999998E+02  0.16073E+04
 0.18049999E+02  0.14905E+04
 0.18099998E+02 -0.29062E+03
 0.18150000E+02  0.30371E+04
 0.18199999E+02  0.33768E+04
 0.18249998E+02  0.10615E+04
 0.18299999E+02  0.12997E+04
 0.18349998E+02  0.36251E+04
 0.18400000E+02  0.28629E+04
 0.18449999E+02 -0.11138E+04
 0.18499998E+02  0.33094E+04
 0.18549999E+02  0.11611E+04
 0.18599998E+02 -0.28132E+03
 0.18650000E+02  0.16567E+04
 0.18699999E+02  0.21090E+04
 0.18749998E+02  0.19879E+04
 0.18799999E+02  0.17961E+04
 0.18849998E+02  0.27285E+04
 0.18900000E+02  0.32476E+03
 0.18949999E+02  0.20995E+04
 0.18999998E+02  0.21801E+04
 0.19049999E+02  0.25688E+04
 0.19099998E+02  0.28670E+04
 0.19150000E+02  0.11915E+04
 0.19199999E+02 -0.77833E+02
 0.19249998E+02  0.18901E+04
 0.19299999E+02  0.24717E+04
 0.19349998E+02  0.46112E+03
 0.19400000E+02  0.17060E+02
 0.19449999E+02  0.25237E+04
 0.19499998E+02  0.29188E+04
 0.19549999E+02  0.15347E+04
 0.19599998E+02  0.20887E+04
 0.19650000E+02  0.20341E+04
 0.19699999E+02  0.37063E+04
 0.19749998E+02  0.29040E+04
 0.19799999E+02  0.10542E+04
 0.19849998E+02  0.11090E+04
 0.19900000E+02  0.26491E+04
 0.19949999E+02  0.28387E+04
 0.19999998E+02  0.60599E+03
 0.20049999E+02  0.28200E+04
 0.20099998E+02  0.22965E+04
 0.20150000E+02 -0.67139E+03
 0.20199999E+02  0.35435E+04
 0.20249998E+02  0.37633E+04
 0.20299999E+02  0.26757E+04
 0.20349998E+02  0.75433E+04
 0.20399998E+02  0.11781E+05
 0.20449999E+02  0.57404E+04
 0.20499998E+02  0.20083E+03
 0.20549999E+02 -0.48422E+03
 0.20599998E+02 -0.13155E+04
 0.20649998E+02 -0.35939E+04
 0.20699999E+02 -0.15927E+04
 0.20749998E+02 -0.32489E+04
 0.20799999E+02 -0.28742E+03
 0.20849998E+02 -0.90798E+03
 0.20899998E+02 -0.91087E+04
 0.20949999E+02  0.47306E+04
 0.20999998E+02  0.27844E+04
 0.21049999E+02 -0.24756E+04
 0.21099998E+02  0.10660E+05
 0.21149998E+02  0.25576E+04
 0.21199999E+02 -0.27966E+05
 0.21249998E+02  0.30765E+04
 0.21299999E+02  0.63814E+04
 0.21349998E+02 -0.57476E+04
 0.21399998E+02  0.24057E+05
 0.21449999E+02  0.69122E+04
 0.21499998E+02 -0.82556E+03
 0.21549999E+02 -0.20399E+04
 0.21599998E+02  0.67606E+04
 0.21649998E+02  0.13505E+05
 0.21699999E+02 -0.25231E+03
 0.21749998E+02  0.87150E+04
 0.21799999E+02 -0.88804E+04
 0.21849998E+02 -0.17744E+05
 0.21899998E+02  0.21638E+05
 0.21949999E+02  0.11797E+05
 0.21999998E+02 -0.77256E+04
 0.22049999E+02  0.89631E+03
 0.22099998E+02  0.17086E+05
 0.22149998E+02  0.54181E+04
 0.22199999E+02 -0.15828E+05
 0.22249998E+02  0.10702E+05
 0.22299999E+02 -0.97239E+03
 0.22349998E+02 -0.90545E+03
 0.22399998E+02  0.11181E+05
 0.22449999E+02 -0.24465E+04
 0.22499998E+02 -0.74821E+04
 0.22549999E+02 -0.59166E+04
 0.22599998E+02 -0.96044E+03
 0.22649998E+02  0.11867E+05
 0.22699999E+02  0.22728E+05
 0.22749998E+02 -0.56028E+04
 0.22799999E+02 -0.48900E+03
 0.22849998E+02  0.89937E+03
 0.22899998E+02 -0.10233E+04
 0.22949999E+02 -0.34296E+04
 0.22999998E+02  0.44635E+04
 0.23049999E+02  0.45109E+04
 0.23099998E+02 -0.10875E+05
 0.23149998E+02  0.23937E+04
 0.23199999E+02 -0.45593E+04
 0.23249998E+02  0.12102E+04
 0.23299999E+02 -0.14758E+04
 0.23349998E+02  0.60706E+04
 0.23399998E+02  0.92934E+04
 0.23449999E+02 -0.33766E+04
 0.23499998E+02  0.76888E+04
 0.23549999E+02  0.75014E+03
 0.23599998E+02 -0.15161E+04
 0.23649998E+02  0.32961E+04
 0.23699999E+02 -0.11207E+04
 0.23749998E+02  0.29910E+04
 0.23799999E+02  0.20042E+04
 0.23849998E+02 -0.36374E+04
 0.23899998E+02  0.24370E+04
 0.23949999E+02  0.59441E+04
 0.23999998E+02 -0.72670E+04
 0.24049999E+02 -0.28517E+04
 0.24099998E+02  0.42986E+04
 0.24149998E+02 -0.10613E+04
 0.24199999E+02  0.40081E+04
 0.24249998E+02  0.85895E+04
 0.24299999E+02  0.44472E+04
 0.24349998E+02  0.45091E+04
 0.24399998E+02  0.72531E+04
 0.24449999E+02  0.29898E+04
 0.24499998E+02  0.59786E+04
 0.24549999E+02 -0.10107E+04
 0.24599998E+02 -0.32256E+04
 0.24649998E+02  0.94608E+04
 0.24699999E+02  0.26243E+04
 0.24749998E+02 -0.82723E+04
 0.24799999E+02  0.81389E+03
 0.24849998E+02  0.68095E+04
 0.24899998E+02 -0.43240E+04
 0.24949999E+02 -0.42631E+04
 0.24999998E+02  0.42856E+04
 0.25049999E+02  0.47037E+03
 0.25099998E+02  0.30513E+04
 0.25149998E+02  0.69394E+04
 0.25199999E+02  0.24535E+02
 0.25249998E+02  0.46043E+04
 0.25299999E+02  0.18372E+04
 0.25349998E+02  0.21986E+04
 0.25399998E+02  0.32086E+04
 0.25449999E+02 -0.16589E+04
 0.25499998E+02  0.36433E+04
 0.25549999E+02  0.25159E+04
 0.25599998E+02  0.37181E+04
 0.25649998E+02  0.43150E+04
 0.25699999E+02  0.71457E+03
 0.25749998E+02  0.13374E+04
 0.25799999E+02  0.18185E+04
 0.25849998E+02 -0.39789E+04
 0.25899998E+02 -0.27151E+04
 0.25949999E+02  0.90357E+03
 0.25999998E+02  0.40482E+03
 0.26049999E+02  0.19362E+04
 0.26099998E+02 -0.27177E+03
 0.26149998E+02 -0.53681E+03
 0.26199999E+02  0.39671E+04
 0.26249998E+02  0.66338E+03
 0.26299999E+02  0.42016E+04
 0.26349998E+02  0.44182E+04
 0.26399998E+02 -0.16674E+04
 0.26449999E+02  0.29991E+04
 0.26499998E+02  0.34872E+04
 0.26549999E+02  0.74169E+03
 0.26599998E+02  0.63145E+03
 0.26649998E+02  0.25091E+04
 0.26699999E+02  0.18134E+04
 0.26749998E+02  0.58727E+04
 0.26799999E+02  0.59652E+04
 0.26849998E+02  0.25997E+04
 0.26899998E+02  0.24980E+04
 0.26949999E+02  0.11998E+04
 0.26999998E+02  0.38912E+04
 0.27049997E+02  0.62233E+04
 0.27099998E+02  0.13270E+04
 0.27149998E+02 -0.41499E+04
 0.27199999E+02  0.21563E+04
 0.27249998E+02  0.22202E+04
 0.27299997E+02  0.21729E+04
 0.27349998E+02  0.98556E+03
 0.27399998E+02 -0.27854E+04
 0.27449999E+02  0.17232E+04
 0.27499998E+02  0.13353E+04
 0.27549997E+02  0.30654E+04
 0.27599998E+02  0.15236E+04
 0.27649998E+02 -0.25914E+03
 0.27699999E+02  0.11010E+04
 0.27749998E+02  0.30432E+04
 0.27799997E+02  0.51375E+04
 0.27849998E+02  0.29028E+04
 0.27899998E+02  0.19837E+04
 0.27949999E+02  0.12268E+04
 0.27999998E+02  0.19318E+04
 0.28049997E+02  0.25564E+04
 0.28099998E+02  0.10965E+03
 0.28149998E+02  0.10494E+04
 0.28199999E+02  0.29072E+04
 0.28249998E+02 -0.14460E+04
 0.28299997E+02 -0.53308E+03
 0.28349998E+02  0.38161E+04
 0.28399998E+02  0.21961E+03
 0.28449999E+02 -0.44999E+03
 0.28499998E+02  0.14216E+04
 0.28549997E+02  0.44377E+04
 0.28599998E+02  0.17833E+04
 0.28649998E+02  0.15922E+04
 0.28699999E+02  0.31025E+04
 0.28749998E+02 -0.17303E+04
 0.28799997E+02  0.20700E+03
 0.28849998E+02  0.35470E+04
 0.28899998E+02  0.27129E+04
 0.28949999E+02  0.19415E+04
 0.28999998E+02  0.54655E+03
 0.29049997E+02 -0.68336E+03
 0.29099998E+02  0.30547E+03
 0.29149998E+02  0.32130E+04
 0.29199999E+02  0.25532E+04
 0.29249998E+02  0.17525E+04
 0.29299997E+02  0.37811E+04
 0.29349998E+02  0.37011E+04
 0.29399998E+02  0.25241E+04
 0.29449999E+02  0.46007E+03
 0.29499998E+02  0.34246E+04
 0.29549997E+02  0.10391E+04
 0.29599998E+02  0.83459E+03
 0.29649998E+02  0.59260E+04
 0.29699999E+02  0.56679E+04
 0.29749998E+02  0.23003E+04
 0.29799997E+02  0.59244E+03
 0.29849998E+02  0.14720E+04
 0.29899998E+02  0.28563E+04
 0.29949999E+02  0.14408E+04
 0.29999998E+02 -0.15955E+04
 0.30049999E+02 -0.53830E+03
 0.30099998E+02  0.64164E+03
 0.30149998E+02  0.81892E+03
 0.30199997E+02  0.22169E+04
 0.30249996E+02  0.79387E+03
 0.30299999E+02 -0.45391E+03
 0.30349998E+02  0.26316E+04
 0.30399998E+02  0.37176E+04
 0.30449997E+02  0.24732E+04
 0.30499996E+02  0.23168E+04
 0.30549999E+02  0.33130E+04
 0.30599998E+02  0.23680E+04
 0.30649998E+02  0.19247E+04
 0.30699997E+02 -0.12649E+04
 0.30749996E+02 -0.26672E+03
 0.30799999E+02  0.27943E+04
 0.30849998E+02  0.21627E+04
 0.30899998E+02  0.21283E+04
 0.30949997E+02  0.12595E+03
 0.30999996E+02  0.14809E+04
 0.31049999E+02  0.19481E+04
 0.31099998E+02  0.28442E+04
 0.31149998E+02  0.72358E+03
 0.31199997E+02  0.68298E+03
 0.31249996E+02  0.38009E+04
 0.31299999E+02  0.15502E+04
 0.31349998E+02  0.23015E+04
 0.31399998E+02  0.26677E+04
 0.31449997E+02  0.15361E+04
 0.31499996E+02  0.19876E+04
 0.31549999E+02  0.41389E+04
 0.31599998E+02  0.23439E+04
 0.31649998E+02  0.14149E+02
 0.31699997E+02  0.31960E+03
 0.31749996E+02 -0.64518E+03
 0.31799999E+02  0.96038E+03
 0.31849998E+02  0.75698E+03
 0.31899998E+02 -0.11415E+04
 0.31949997E+02  0.97789E+03
 0.31999996E+02  0.23370E+04
 0.32049999E+02  0.39528E+04
 0.32099998E+02  0.42906E+04
 0.32149998E+02  0.19653E+04
 0.32199997E+02  0.26960E+04
 0.32249996E+02  0.43281E+04
 0.32299999E+02  0.33846E+04
 0.32349998E+02  0.19926E+04
 0.32399998E+02 -0.14296E+03
 0.32449997E+02  0.18307E+04
 0.32499996E+02  0.34485E+04
 0.32549999E+02  0.20520E+04
 0.32599998E+02  0.25316E+04
 0.32649998E+02  0.97518E+03
 0.32699997E+02 -0.92687E+03
 0.32749996E+02  0.12452E+03
 0.32799999E+02  0.40890E+04
 0.32849998E+02  0.20048E+04
 0.32899998E+02  0.31036E+03
 0.32949997E+02  0.93368E+03
 0.32999996E+02  0.68949E+03
 0.33049999E+02  0.26109E+04
 0.33099998E+02  0.17251E+04
 0.33149998E+02  0.11465E+04
 0.33199997E+02  0.50405E+03
 0.33249996E+02  0.40784E+03
 0.33299999E+02  0.20354E+04
 0.33349998E+02  0.36609E+04
 0.33399998E+02  0.35353E+04
 0.33449997E+02  0.26903E+04
 0.33499996E+02  0.34056E+04
 0.33549999E+02  0.21607E+04
 0.33599998E+02  0.20518E+04
 0.33649998E+02  0.26878E+04
 0.33699997E+02  0.20947E+03
 0.33749996E+02  0.33337E+03
 0.33799999E+02  0.31963E+03
 0.33849998E+02 -0.53325E+03
 0.33899998E+02  0.12242E+04
 0.33949997E+02  0.21574E+04
 0.33999996E+02  0.97062E+03
 0.34049999E+02  0.72317E+03
 0.34099998E+02  0.47230E+03
 0.34149998E+02  0.75864E+03
 0.34199997E+02  0.24629E+04
 0.34249996E+02  0.26730E+04
 0.34299999E+02  0.33824E+04
 0.34349998E+02  0.29949E+04
 0.34399998E+02  0.18118E+04
 0.34449997E+02  0.14000E+04
 0.34499996E+02  0.62443E+03
 0.34549999E+02 -0.27043E+03
 0.34599998E+02  0.11431E+04
 0.34649998E+02  0.27073E+04
 0.34699997E+02  0.30407E+04
 0.34749996E+02  0.30741E+04
 0.34799999E+02  0.24035E+04
 0.34849998E+02  0.72852E+03
 0.34899998E+02  0.18507E+04
 0.34949997E+02  0.33396E+04
 0.34999996E+02  0.10258E+03
 0.35049999E+02  0.20021E+04
 0.35099998E+02  0.35889E+04
 0.35149998E+02  0.94664E+03
 0.35199997E+02  0.12844E+04
 0.35249996E+02  0.91548E+03
 0.35299999E+02  0.74885E+03
 0.35349998E+02  0.19617E+04
 0.35399998E+02  0.23618E+04
 0.35449997E+02  0.29040E+04
 0.35499996E+02  0.30991E+04
 0.35549999E+02  0.26141E+04
 0.35599998E+02  0.25537E+04
 0.35649998E+02  0.16469E+04
 0.35699997E+02  0.14550E+04
 0.35749996E+02  0.30361E+04
 0.35799999E+02  0.31457E+04
 0.35849998E+02  0.15209E+04
 0.35899998E+02 -0.24998E+03
 0.35949997E+02  0.13507E+03
 0.35999996E+02  0.91989E+03
 0.36049999E+02  0.11198E+04
 0.36099998E+02  0.11331E+04
 0.36149998E+02  0.11346E+04
 0.36199997E+02  0.18008E+04
 0.36249996E+02  0.17661E+04
 0.36299999E+02  0.15926E+04
 0.36349998E+02  0.15751E+04
 0.36399998E+02  0.74166E+03
 0.36449997E+02  0.50969E+03
 0.36499996E+02  0.13934E+04
 0.36549999E+02  0.14791E+04
 0.36599998E+02  0.20098E+04
 0.36649998E+02  0.23514E+04
 0.36699997E+02  0.17331E+04
 0.36749996E+02  0.18655E+04
 0.36799999E+02  0.11050E+04
 0.36849998E+02  0.18408E+04
 0.36899998E+02  0.33011E+04
 0.36949997E+02  0.28199E+04
 0.36999996E+02  0.28770E+04
 0.37049999E+02  0.18118E+04
 0.37099998E+02  0.16435E+04
 0.37149998E+02  0.20358E+04
 0.37199997E+02  0.10714E+04
 0.37249996E+02  0.11186E+04
 0.37299999E+02  0.18131E+04
 0.37349998E+02  0.28692E+04
 0.37399998E+02  0.31707E+04
 0.37449997E+02  0.27615E+04
 0.37499996E+02  0.21299E+04
 0.37549999E+02  0.15507E+04
 0.37599998E+02  0.18406E+04
 0.37649998E+02  0.15313E+04
 0.37699997E+02  0.17545E+04
 0.37749996E+02  0.16366E+04
 0.37799999E+02  0.13258E+04
 0.37849998E+02  0.14103E+04
 0.37899998E+02  0.48880E+03
 0.37949997E+02  0.52106E+02
 0.37999996E+02  0.62348E+03
 0.38049999E+02  0.75907E+03
 0.38099998E+02  0.52321E+03
 0.38149998E+02  0.15483E+04
 0.38199997E+02  0.15348E+04
 0.38249996E+02  0.13666E+04
 0.38299999E+02  0.20496E+04
 0.38349998E+02  0.11474E+04
 0.38399998E+02  0.51924E+03
 0.38449997E+02  0.58502E+03
 0.38499996E+02  0.15154E+04
 0.38549999E+02  0.12989E+04
 0.38599998E+02  0.18997E+04
 0.38649998E+02  0.35851E+04
 0.38699997E+02  0.24907E+04
 0.38749996E+02  0.23708E+04
 0.38799999E+02  0.25679E+04
 0.38849998E+02  0.25543E+04
 0.38899998E+02  0.26446E+04
 0.38949997E+02  0.24451E+04
 0.38999996E+02  0.26028E+04
 0.39049999E+02  0.27872E+04
 0.39099998E+02  0.21595E+04
 0.39149998E+02  0.23277E+04
 0.39199997E+02  0.29334E+04
 0.39249996E+02  0.23086E+04
 0.39299999E+02  0.17368E+04
 0.39349998E+02  0.72402E+03
 0.39399998E+02  0.94922E+03
 0.39449997E+02  0.18391E+04
 0.39499996E+02  0.25871E+04
 0.39549999E+02  0.26061E+04
 0.39599998E+02  0.13847E+04
 0.39649998E+02  0.47760E+03
 0.39699997E+02  0.14510E+04
 0.39749996E+02  0.23765E+04
 0.39799999E+02  0.17178E+04
 0.39849998E+02  0.17471E+04
 0.39899998E+02  0.17697E+04
 0.39949997E+02  0.18534E+04
 0.39999996E+02  0.17671E+04
 0.40049999E+02  0.16723E+04
 0.40099998E+02  0.12518E+04
 0.40149998E+02  0.82653E+03
 0.40199997E+02  0.20039E+03
 0.40249996E+02  0.38602E+03
 0.40299999E+02  0.15018E+04
 0.40349998E+02  0.15323E+04
 0.40399998E+02  0.16717E+04
 0.40449997E+02  0.23535E+04
 0.40499996E+02  0.23975E+04
 0.40549999E+02  0.19105E+04
 0.40599998E+02  0.22357E+04
 0.40649998E+02  0.29046E+04
 0.40699997E+02  0.26380E+04
 0.40749996E+02  0.19228E+04
 0.40799999E+02  0.23539E+04
 0.40849998E+02  0.25789E+04
 0.40899998E+02  0.18741E+04
 0.40949997E+02  0.15782E+04
 0.40999996E+02  0.24967E+04
 0.41049999E+02  0.15811E+04
 0.41099998E+02  0.75425E+03
 0.41149998E+02  0.56361E+03
 0.41199997E+02  0.33606E+03
 0.41249996E+02  0.28654E+03
 0.41299999E+02  0.58991E+03
 0.41349998E+02  0.19148E+04
 0.41399998E+02  0.15922E+04
 0.41449997E+02  0.95624E+03
 0.41499996E+02  0.12930E+04
 0.41549999E+02  0.22184E+04
 0.41599998E+02  0.24148E+04
 0.41649998E+02  0.15628E+04
 0.41699997E+02  0.11663E+04
 0.41749996E+02  0.12468E+04
 0.41799999E+02  0.90620E+03
 0.41849998E+02  0.13869E+04
 0.41899998E+02  0.26669E+04
 0.41949997E+02  0.18825E+04
 0.41999996E+02  0.16395E+04
 0.42049999E+02  0.24421E+04
 0.42099998E+02  0.23181E+04
 0.42149998E+02  0.25792E+04
 0.42199997E+02  0.25806E+04
 0.42249996E+02  0.26321E+04
 0.42299999E+02  0.24140E+04
 0.42349998E+02  0.20594E+04
 0.42399998E+02  0.23526E+04
 0.42449997E+02  0.19949E+04
 0.42499996E+02  0.13185E+04
 0.42549999E+02  0.13920E+04
 0.42599998E+02  0.16053E+04
 0.42649998E+02  0.13100E+04
 0.42699997E+02  0.17995E+04
 0.42749996E+02  0.21912E+04
 0.42799995E+02  0.21018E+04
 0.42849998E+02  0.26316E+04
 0.42899998E+02  0.15378E+04
 0.42949997E+02  0.12392E+04
 0.42999996E+02  0.11728E+04
 0.43049995E+02  0.16189E+04
 0.43099998E+02  0.21140E+04
 0.43149998E+02  0.17446E+04
 0.43199997E+02  0.17739E+04
 0.43249996E+02  0.19523E+04
 0.43299995E+02  0.18624E+04
 0.43349998E+02  0.71417E+03
 0.43399998E+02  0.85704E+03
 0.43449997E+02  0.60675E+03
 0.43499996E+02  0.50774E+03
 0.43549995E+02  0.13792E+04
 0.43599998E+02  0.18176E+04
 0.43649998E+02  0.17624E+04
 0.43699997E+02  0.17668E+04
 0.43749996E+02  0.13248E+04
 0.43799995E+02  0.94282E+03
 0.43849998E+02  0.17992E+04
 0.43899998E+02  0.20292E+04
 0.43949997E+02  0.22940E+04
 0.43999996E+02  0.26162E+04
 0.44049995E+02  0.20096E+04
 0.44099998E+02  0.21574E+04
 0.44149998E+02  0.21160E+04
 0.44199997E+02  0.11817E+04
 0.44249996E+02  0.12518E+04
 0.44299995E+02  0.95995E+03
 0.44349998E+02  0.10096E+04
 0.44399998E+02  0.16723E+04
 0.44449997E+02  0.16990E+04
 0.44499996E+02  0.19711E+04
 0.44549995E+02  0.15735E+04
 0.44599998E+02  0.19776E+04
 0.44649998E+02  0.20531E+04
 0.44699997E+02  0.18799E+04
 0.44749996E+02  0.20300E+04
 0.44799995E+02  0.20770E+04
 0.44849998E+02  0.24883E+04
 0.44899998E+02  0.23519E+04
 0.44949997E+02  0.22902E+04
 0.44999996E+02  0.24570E+04
 0.45049995E+02  0.24059E+04
 0.45099998E+02  0.19830E+04
 0.45149998E+02  0.19449E+04
 0.45199997E+02  0.18033E+04
 0.45249996E+02  0.16802E+04
 0.45299995E+02  0.20737E+04
 0.45349998E+02  0.22697E+04
 0.45399998E+02  0.21592E+04
 0.45449997E+02  0.19504E+04
 0.45499996E+02  0.17914E+04
 0.45549995E+02  0.18722E+04
 0.45599998E+02  0.16489E+04
 0.45649998E+02  0.16032E+04
 0.45699997E+02  0.16153E+04
 0.45749996E+02  0.14635E+04
 0.45799995E+02  0.11074E+04
 0.45849998E+02  0.10747E+04
 0.45899998E+02  0.98420E+03
 0.45949997E+02  0.55186E+03
 0.45999996E+02  0.66024E+03
 0.46049995E+02  0.71679E+03
 0.46099998E+02  0.87834E+03
 0.46149998E+02  0.95035E+03
 0.46199997E+02  0.13375E+04
 0.46249996E+02  0.16712E+04
 0.46299995E+02  0.20083E+04
 0.46349998E+02  0.21773E+04
 0.46399998E+02  0.19115E+04
 0.46449997E+02  0.17982E+04
 0.46499996E+02  0.18736E+04
 0.46549995E+02  0.23021E+04
 0.46599998E+02  0.21439E+04
 0.46649998E+02  0.18342E+04
 0.46699997E+02  0.17037E+04
 0.46749996E+02  0.16985E+04
 0.46799995E+02  0.19282E+04
 0.46849998E+02  0.22285E+04
 0.46899998E+02  0.21646E+04
 0.46949997E+02  0.17818E+04
 0.46999996E+02  0.17795E+04
 0.47049995E+02  0.18826E+04
 0.47099998E+02  0.20777E+04
 0.47149998E+02  0.21946E+04
 0.47199997E+02  0.18221E+04
 0.47249996E+02  0.13607E+04
 0.47299995E+02  0.14800E+04
 0.47349998E+02  0.17268E+04
 0.47399998E+02  0.14762E+04
 0.47449997E+02  0.15193E+04
 0.47499996E+02  0.20657E+04
 0.47549995E+02  0.23647E+04
 0.47599998E+02  0.23427E+04
 0.47649998E+02  0.22299E+04
 0.47699997E+02  0.19152E+04
 0.47749996E+02  0.13798E+04
 0.47799995E+02  0.11813E+04
 0.47849998E+02  0.13313E+04
 0.47899998E+02  0.15983E+04
 0.47949997E+02  0.13179E+04
 0.47999996E+02  0.13425E+04
 0.48049995E+02  0.18699E+04
 0.48099998E+02  0.18490E+04
 0.48149998E+02  0.17459E+04
 0.48199997E+02  0.14910E+04
 0.48249996E+02  0.15836E+04
 0.48299995E+02  0.17211E+04
 0.48349998E+02  0.15114E+04
 0.48399998E+02  0.16271E+04
 0.48449997E+02  0.15654E+04
 0.48499996E+02  0.15234E+04
 0.48549995E+02  0.14281E+04
 0.48599998E+02  0.17125E+04
 0.48649998E+02  0.19748E+04
 0.48699997E+02  0.19561E+04
 0.48749996E+02  0.21024E+04
 0.48799995E+02  0.23660E+04
 0.48849998E+02  0.23976E+04
 0.48899998E+02  0.17957E+04
 0.48949997E+02  0.19410E+04
 0.48999996E+02  0.22469E+04
 0.49049995E+02  0.19349E+04
 0.49099998E+02  0.18311E+04
 0.49149998E+02  0.19061E+04
 0.49199997E+02  0.15467E+04
 0.49249996E+02  0.16921E+04
 0.49299995E+02  0.21018E+04
 0.49349998E+02  0.19301E+04
 0.49399998E+02  0.19208E+04
 0.49449997E+02  0.19208E+04
 0.49499996E+02  0.15812E+04
 0.49549995E+02  0.13849E+04
 0.49599998E+02  0.78760E+03
 0.49649998E+02  0.74166E+03
 0.49699997E+02  0.12447E+04
 0.49749996E+02  0.11167E+04
 0.49799995E+02  0.95421E+03
 0.49849998E+02  0.10482E+04
 0.49899998E+02  0.12474E+04
 0.49949997E+02  0.10716E+04
 0.49999996E+02  0.13012E+04
 0.50049995E+02  0.17173E+04
 0.50099998E+02  0.17291E+04
 0.50149998E+02  0.19582E+04
 0.50199997E+02  0.23841E+04
 0.50249996E+02  0.25027E+04
 0.50299995E+02  0.25195E+04
 0.50349998E+02  0.23309E+04
 0.50399998E+02  0.20711E+04
 0.50449997E+02  0.20441E+04
 0.50499996E+02  0.23146E+04
 0.50549995E+02  0.23497E+04
 0.50599998E+02  0.25241E+04
 0.50649998E+02  0.25965E+04
 0.50699997E+02  0.21149E+04
 0.50749996E+02  0.21148E+04
 0.50799995E+02  0.17569E+04
 0.50849998E+02  0.14555E+04
 0.50899998E+02  0.14127E+04
 0.50949997E+02  0.15180E+04
 0.50999996E+02  0.15440E+04
 0.51049995E+02  0.13189E+04
 0.51099998E+02  0.14360E+04
 0.51149998E+02  0.13385E+04
 0.51199997E+02  0.13797E+04
 0.51249996E+02  0.17280E+04
 0.51299995E+02  0.18420E+04
 0.51349998E+02  0.16085E+04
 0.51399998E+02  0.12109E+04
 0.51449997E+02  0.15752E+04
 0.51499996E+02  0.19078E+04
 0.51549995E+02  0.18889E+04
 0.51599998E+02  0.18381E+04
 0.51649998E+02  0.13395E+04
 0.51699997E+02  0.14413E+04
 0.51749996E+02  0.16293E+04
 0.51799995E+02  0.15144E+04
 0.51849998E+02  0.16943E+04
 0.51899998E+02  0.18529E+04
 0.51949997E+02  0.18630E+04
 0.51999996E+02  0.18733E+04
 0.52049995E+02  0.19686E+04
 0.52099998E+02  0.19156E+04
 0.52149998E+02  0.15696E+04
 0.52199997E+02  0.16400E+04
 0.52249996E+02  0.16889E+04
 0.52299995E+02  0.17267E+04
 0.52349998E+02  0.20355E+04
 0.52399998E+02  0.20625E+04
 0.52449997E+02  0.20152E+04
 0.52499996E+02  0.19197E+04
 0.52549995E+02  0.19186E+04
 0.52599998E+02  0.18696E+04
 0.52649998E+02  0.16411E+04
 0.52699997E+02  0.17012E+04
 0.52749996E+02  0.16308E+04
 0.52799995E+02  0.11047E+04
 0.52849998E+02  0.10972E+04
 0.52899998E+02  0.13918E+04
 0.52949997E+02  0.13853E+04
 0.52999996E+02  0.13118E+04
 0.53049995E+02  0.12781E+04
 0.53099998E+02  0.14042E+04
 0.53149998E+02  0.17501E+04
 0.53199997E+02  0.17487E+04
 0.53249996E+02  0.18643E+04
 0.53299995E+02  0.18933E+04
 0.53349998E+02  0.19665E+04
 0.53399998E+02  0.22079E+04
 0.53449997E+02  0.21019E+04
 0.53499996E+02  0.20185E+04
 0.53549995E+02  0.19338E+04
 0.53599998E+02  0.19353E+04
 0.53649998E+02  0.19479E+04
 0.53699997E+02  0.19944E+04
 0.53749996E+02  0.17711E+04
 0.53799995E+02  0.17453E+04
 0.53849998E+02  0.19000E+04
 0.53899998E+02  0.17114E+04
 0.53949997E+02  0.16542E+04
 0.53999996E+02  0.15682E+04
 0.54049995E+02  0.15632E+04
 0.54099998E+02  0.15828E+04
 0.54149998E+02  0.15104E+04
 0.54199997E+02  0.16060E+04
 0.54249996E+02  0.15516E+04
 0.54299995E+02  0.16241E+04
 0.54349998E+02  0.15627E+04
 0.54399998E+02  0.16733E+04
 0.54449997E+02  0.19485E+04
 0.54499996E+02  0.18425E+04
 0.54549995E+02  0.16942E+04
 0.54599998E+02  0.16222E+04
 0.54649998E+02  0.15923E+04
 0.54699997E+02  0.14750E+04
 0.54749996E+02  0.13833E+04
 0.54799995E+02  0.14540E+04
 0.54849998E+02  0.15410E+04
 0.54899998E+02  0.15139E+04
 0.54949997E+02  0.16768E+04
 0.54999996E+02  0.18412E+04
 0.55049995E+02  0.21239E+04
 0.55099998E+02  0.21168E+04
 0.55149998E+02  0.20468E+04
 0.55199997E+02  0.22954E+04
 0.55249996E+02  0.22382E+04
 0.55299995E+02  0.22876E+04
 0.55349998E+02  0.21153E+04
 0.55399998E+02  0.18977E+04
 0.55449997E+02  0.16909E+04
 0.55499996E+02  0.14106E+04
 0.55549995E+02  0.14682E+04
 0.55599998E+02  0.15288E+04
 0.55649998E+02  0.14915E+04
 0.55699997E+02  0.16192E+04
 0.55749996E+02  0.16332E+04
 0.55799995E+02  0.15565E+04
 0.55849995E+02  0.15334E+04
 0.55899998E+02  0.15654E+04
 0.55949997E+02  0.13975E+04
 0.55999996E+02  0.11478E+04
 0.56049995E+02  0.13765E+04
 0.56099995E+02  0.16040E+04
 0.56149998E+02  0.16087E+04
 0.56199997E+02  0.16149E+04
 0.56249996E+02  0.15978E+04
 0.56299995E+02  0.16845E+04
 0.56349995E+02  0.19299E+04
 0.56399998E+02  0.17886E+04
 0.56449997E+02  0.17092E+04
 0.56499996E+02  0.18844E+04
 0.56549995E+02  0.21825E+04
 0.56599995E+02  0.22054E+04
 0.56649998E+02  0.19511E+04
 0.56699997E+02  0.20566E+04
 0.56749996E+02  0.20472E+04
 0.56799995E+02  0.21879E+04
 0.56849995E+02  0.22837E+04
 0.56899998E+02  0.18902E+04
 0.56949997E+02  0.16462E+04
 0.56999996E+02  0.16685E+04
 0.57049995E+02  0.17691E+04
 0.57099995E+02  0.16160E+04
 0.57149998E+02  0.13815E+04
 0.57199997E+02  0.12800E+04
 0.57249996E+02  0.14767E+04
 0.57299995E+02  0.16198E+04
 0.57349995E+02  0.14958E+04
 0.57399998E+02  0.14815E+04
 0.57449997E+02  0.15120E+04
 0.57499996E+02  0.14869E+04
 0.57549995E+02  0.14535E+04
 0.57599995E+02  0.15972E+04
 0.57649998E+02  0.16518E+04
 0.57699997E+02  0.18178E+04
 0.57749996E+02  0.16932E+04
 0.57799995E+02  0.17208E+04
 0.57849995E+02  0.17746E+04
 0.57899998E+02  0.17286E+04
 0.57949997E+02  0.16905E+04
 0.57999996E+02  0.15268E+04
 0.58049995E+02  0.17397E+04
 0.58099995E+02  0.20598E+04
 0.58149998E+02  0.20974E+04
 0.58199997E+02  0.19947E+04
 0.58249996E+02  0.20516E+04
 0.58299995E+02  0.20335E+04
 0.58349995E+02  0.21911E+04
 0.58399998E+02  0.19830E+04
 0.58449997E+02  0.18684E+04
 0.58499996E+02  0.18988E+04
 0.58549995E+02  0.17476E+04
 0.58599995E+02  0.17299E+04
 0.58649998E+02  0.17625E+04
 0.58699997E+02  0.16172E+04
 0.58749996E+02  0.16831E+04
 0.58799995E+02  0.19074E+04
 0.58849995E+02  0.17541E+04
 0.58899998E+02  0.15349E+04
 0.58949997E+02  0.12961E+04
 0.58999996E+02  0.11876E+04
 0.59049995E+02  0.98741E+03
 0.59099995E+02  0.11548E+04
 0.59149998E+02  0.14359E+04
 0.59199997E+02  0.15767E+04
 0.59249996E+02  0.19084E+04
 0.59299995E+02  0.20301E+04
 0.59349995E+02  0.20142E+04
 0.59399998E+02  0.19919E+04
 0.59449997E+02  0.19959E+04
 0.59499996E+02  0.20591E+04
 0.59549995E+02  0.21951E+04
 0.59599995E+02  0.22569E+04
 0.59649998E+02  0.21224E+04
 0.59699997E+02  0.19441E+04
 0.59749996E+02  0.18367E+04
 0.59799995E+02  0.17211E+04
 0.59849995E+02  0.15682E+04
 0.59899998E+02  0.16735E+04
 0.59949997E+02  0.18339E+04
 0.59999996E+02  0.17699E+04
 0.60049995E+02  0.16918E+04
 0.60099995E+02  0.16236E+04
 0.60149998E+02  0.16238E+04
 0.60199997E+02  0.17261E+04
 0.60249996E+02  0.17831E+04
 0.60299995E+02  0.18093E+04
 0.60349995E+02  0.16048E+04
 0.60399998E+02  0.15213E+04
 0.60449997E+02  0.16548E+04
 0.60499996E+02  0.16081E+04
 0.60549995E+02  0.16146E+04
 0.60599995E+02  0.15341E+04
 0.60649998E+02  0.15814E+04
 0.60699997E+02  0.16372E+04
 0.60749996E+02  0.16604E+04
 0.60799995E+02  0.18506E+04
 0.60849995E+02  0.19304E+04
 0.60899998E+02  0.20476E+04
 0.60949997E+02  0.20277E+04
 0.60999996E+02  0.19778E+04
 0.61049995E+02  0.20566E+04
 0.61099995E+02  0.19645E+04
 0.61149998E+02  0.18583E+04
 0.61199997E+02  0.18316E+04
 0.61249996E+02  0.17633E+04
 0.61299995E+02  0.16971E+04
 0.61349995E+02  0.15655E+04
 0.61399998E+02  0.14640E+04
 0.61449997E+02  0.13311E+04
 0.61499996E+02  0.12631E+04
 0.61549995E+02  0.12992E+04
 0.61599995E+02  0.13407E+04
 0.61649998E+02  0.14065E+04
 0.61699997E+02  0.14641E+04
 0.61749996E+02  0.17005E+04
 0.61799995E+02  0.18230E+04
 0.61849995E+02  0.18492E+04
 0.61899998E+02  0.18821E+04
 0.61949997E+02  0.18154E+04
 0.61999996E+02  0.15680E+04
 0.62049995E+02  0.15689E+04
 0.62099998E+02  0.17007E+04
 0.62149994E+02  0.16162E+04
 0.62199997E+02  0.15359E+04
 0.62249992E+02  0.14857E+04
 0.62299995E+02  0.15279E+04
 0.62349998E+02  0.16546E+04
 0.62399994E+02  0.18952E+04
 0.62449997E+02  0.19440E+04
 0.62499992E+02  0.17450E+04
 0.62549995E+02  0.16055E+04
 0.62599998E+02  0.16590E+04
 0.62649994E+02  0.18202E+04
 0.62699997E+02  0.21072E+04
 0.62749992E+02  0.21839E+04
 0.62799995E+02  0.21382E+04
 0.62849998E+02  0.20888E+04
 0.62899994E+02  0.20326E+04
 0.62949997E+02  0.19551E+04
 0.62999992E+02  0.18141E+04
 0.63049995E+02  0.16186E+04
 0.63099998E+02  0.14573E+04
 0.63149994E+02  0.15095E+04
 0.63199997E+02  0.15951E+04
 0.63249992E+02  0.15462E+04
 0.63299995E+02  0.14257E+04
 0.63349998E+02  0.15503E+04
 0.63399994E+02  0.15555E+04
 0.63449997E+02  0.15625E+04
 0.63499992E+02  0.16564E+04
 0.63549995E+02  0.16313E+04
 0.63599998E+02  0.16863E+04
 0.63649994E+02  0.17176E+04
 0.63699997E+02  0.17492E+04
 0.63749992E+02  0.18115E+04
 0.63799995E+02  0.18489E+04
 0.63849998E+02  0.18456E+04
 0.63899994E+02  0.19243E+04
 0.63949997E+02  0.19658E+04
 0.63999992E+02  0.18657E+04
 0.64049995E+02  0.17988E+04
 0.64099998E+02  0.17967E+04
 0.64149994E+02  0.17967E+04
 0.64199997E+02  0.18636E+04
 0.64249992E+02  0.18166E+04
 0.64299995E+02  0.16703E+04
 0.64349998E+02  0.16383E+04
 0.64399994E+02  0.16715E+04
 0.64449997E+02  0.16513E+04
 0.64499992E+02  0.17129E+04
 0.64549995E+02  0.18119E+04
 0.64599998E+02  0.18554E+04
 0.64649994E+02  0.18320E+04
 0.64699997E+02  0.17290E+04
 0.64749992E+02  0.18242E+04
 0.64799995E+02  0.18714E+04
 0.64849998E+02  0.17682E+04
 0.64899994E+02  0.16583E+04
 0.64949997E+02  0.16586E+04
 0.64999992E+02  0.16743E+04
 0.65049995E+02  0.17046E+04
 0.65099998E+02  0.16730E+04
 0.65149994E+02  0.16271E+04
 0.65199997E+02  0.15488E+04
 0.65249992E+02  0.14555E+04
 0.65299995E+02  0.16278E+04
 0.65349998E+02  0.17735E+04
 0.65399994E+02  0.16829E+04
 0.65449997E+02  0.16519E+04
 0.65499992E+02  0.17723E+04
 0.65549995E+02  0.17878E+04
 0.65599998E+02  0.17651E+04
 0.65649994E+02  0.18277E+04
 0.65699997E+02  0.17049E+04
 0.65749992E+02  0.16592E+04
 0.65799995E+02  0.18574E+04
 0.65849998E+02  0.19502E+04
 0.65899994E+02  0.18591E+04
 0.65949997E+02  0.17108E+04
 0.65999992E+02  0.16887E+04
 0.66049995E+02  0.16523E+04
 0.66099998E+02  0.17285E+04
 0.66149994E+02  0.17279E+04
 0.66199997E+02  0.17202E+04
 0.66249992E+02  0.16728E+04
 0.66299995E+02  0.16295E+04
 0.66349998E+02  0.17902E+04
 0.66399994E+02  0.18106E+04
 0.66449997E+02  0.17718E+04
 0.66499992E+02  0.16736E+04
 0.66549995E+02  0.16081E+04
 0.66599998E+02  0.17004E+04
 0.66649994E+02  0.17526E+04
 0.66699997E+02  0.16593E+04
 0.66749992E+02  0.15585E+04
 0.66799995E+02  0.15685E+04
 0.66849998E+02  0.17319E+04
 0.66899994E+02  0.18266E+04
 0.66949997E+02  0.18328E+04
 0.66999992E+02  0.18025E+04
 0.67049995E+02  0.18027E+04
 0.67099998E+02  0.18486E+04
 0.67149994E+02  0.18512E+04
 0.67199997E+02  0.19562E+04
 0.67249992E+02  0.19473E+04
 0.67299995E+02  0.18586E+04
 0.67349998E+02  0.18357E+04
 0.67399994E+02  0.17962E+04
 0.67449997E+02  0.17490E+04
 0.67499992E+02  0.16782E+04
 0.67549995E+02  0.16876E+04
 0.67599998E+02  0.16194E+04
 0.67649994E+02  0.15606E+04
 0.67699997E+02  0.15660E+04
 0.67749992E+02  0.15397E+04
 0.67799995E+02  0.15060E+04
 0.67849998E+02  0.15182E+04
 0.67899994E+02  0.16243E+04
 0.67949997E+02  0.16229E+04
 0.67999992E+02  0.16777E+04
 0.68049995E+02  0.17144E+04
 0.68099998E+02  0.17815E+04
 0.68149994E+02  0.18757E+04
 0.68199997E+02  0.19297E+04
 0.68249992E+02  0.18664E+04
 0.68299995E+02  0.16688E+04
 0.68349998E+02  0.15980E+04
 0.68399994E+02  0.15422E+04
 0.68449997E+02  0.15537E+04
 0.68499992E+02  0.15766E+04
 0.68549995E+02  0.15703E+04
 0.68599998E+02  0.16248E+04
 0.68649994E+02  0.17213E+04
 0.68699997E+02  0.18228E+04
 0.68749992E+02  0.18588E+04
 0.68799995E+02  0.17405E+04
 0.68849998E+02  0.17913E+04
 0.68899994E+02  0.18715E+04
 0.68949997E+02  0.18913E+04
 0.68999992E+02  0.19887E+04
 0.69049995E+02  0.19404E+04
 0.69099998E+02  0.18729E+04
 0.69149994E+02  0.18415E+04
 0.69199997E+02  0.19179E+04
 0.69249992E+02  0.18636E+04
 0.69299995E+02  0.17883E+04
 0.69349998E+02  0.18353E+04
 0.69399994E+02  0.18354E+04
 0.69449997E+02  0.19243E+04
 0.69499992E+02  0.19434E+04
 0.69549995E+02  0.18860E+04
 0.69599998E+02  0.17596E+04
 0.69649994E+02  0.16685E+04
 0.69699997E+02  0.16279E+04
 0.69749992E+02  0.16141E+04
 0.69799995E+02  0.16814E+04
 0.69849998E+02  0.15143E+04
 0.69899994E+02  0.14535E+04
 0.69949997E+02  0.15457E+04
 0.69999992E+02  0.15683E+04
 0.70049995E+02  0.16971E+04
 0.70099998E+02  0.17484E+04
 0.70149994E+02  0.16730E+04
 0.70199997E+02  0.16921E+04
 0.70249992E+02  0.18031E+04
 0.70299995E+02  0.17778E+04
 0.70349998E+02  0.17812E+04
 0.70399994E+02  0.18037E+04
 0.70449997E+02  0.17120E+04
 0.70499992E+02  0.17034E+04
 0.70549995E+02  0.17438E+04
 0.70599998E+02  0.17991E+04
 0.70649994E+02  0.18796E+04
 0.70699997E+02  0.18564E+04
 0.70749992E+02  0.16797E+04
 0.70799995E+02  0.15820E+04
 0.70849998E+02  0.16652E+04
 0.70899994E+02  0.16879E+04
 0.70949997E+02  0.17192E+04
 0.70999992E+02  0.17784E+04
 0.71049995E+02  0.17764E+04
 0.71099998E+02  0.17855E+04
 0.71149994E+02  0.17789E+04
 0.71199997E+02  0.18582E+04
 0.71249992E+02  0.18192E+04
 0.71299995E+02  0.16575E+04
 0.71349998E+02  0.16681E+04
 0.71399994E+02  0.17010E+04
 0.71449997E+02  0.17206E+04
 0.71499992E+02  0.17710E+04
 0.71549995E+02  0.17098E+04
 0.71599998E+02  0.16333E+04
 0.71649994E+02  0.15882E+04
 0.71699997E+02  0.14833E+04
 0.71749992E+02  0.14820E+04
 0.71799995E+02  0.15556E+04
 0.71849998E+02  0.16017E+04
 0.71899994E+02  0.16731E+04
 0.71949997E+02  0.17656E+04
 0.71999992E+02  0.17481E+04
 0.72049995E+02  0.16727E+04
 0.72099998E+02  0.16677E+04
 0.72149994E+02  0.16539E+04
 0.72199997E+02  0.15848E+04
 0.72249992E+02  0.15932E+04
 0.72299995E+02  0.17216E+04
 0.72349998E+02  0.18168E+04
 0.72399994E+02  0.18269E+04
 0.72449997E+02  0.17914E+04
 0.72499992E+02  0.17347E+04
 0.72549995E+02  0.16715E+04
 0.72599998E+02  0.16515E+04
 0.72649994E+02  0.16632E+04
 0.72699997E+02  0.17003E+04
 0.72749992E+02  0.17848E+04
 0.72799995E+02  0.19657E+04
 0.72849998E+02  0.20626E+04
 0.72899994E+02  0.20241E+04
 0.72949997E+02  0.19830E+04
 0.72999992E+02  0.19132E+04
 0.73049995E+02  0.18981E+04
 0.73099998E+02  0.18533E+04
 0.73149994E+02  0.17401E+04
 0.73199997E+02  0.17557E+04
 0.73249992E+02  0.18032E+04
 0.73299995E+02  0.17237E+04
 0.73349998E+02  0.16368E+04
 0.73399994E+02  0.16272E+04
 0.73449997E+02  0.16199E+04
 0.73499992E+02  0.15983E+04
 0.73549995E+02  0.16342E+04
 0.73599998E+02  0.17280E+04
 0.73649994E+02  0.17582E+04
 0.73699997E+02  0.18066E+04
 0.73749992E+02  0.18453E+04
 0.73799995E+02  0.18088E+04
 0.73849998E+02  0.18536E+04
 0.73899994E+02  0.18388E+04
 0.73949997E+02  0.16957E+04
 0.73999992E+02  0.17094E+04
 0.74049995E+02  0.17737E+04
 0.74099998E+02  0.17714E+04
 0.74149994E+02  0.17300E+04
 0.74199997E+02  0.16823E+04
 0.74249992E+02  0.17300E+04
 0.74299995E+02  0.17375E+04
 0.74349998E+02  0.17729E+04
 0.74399994E+02  0.17892E+04
 0.74449997E+02  0.17555E+04
 0.74499992E+02  0.16997E+04
 0.74549995E+02  0.16066E+04
 0.74599998E+02  0.14859E+04
 0.74649994E+02  0.14858E+04
 0.74699997E+02  0.15266E+04
 0.74749992E+02  0.15132E+04
 0.74799995E+02  0.16067E+04
 0.74849998E+02  0.16835E+04
 0.74899994E+02  0.17165E+04
 0.74949997E+02  0.17335E+04
 0.74999992E+02  0.17550E+04
 0.75049995E+02  0.17577E+04
 0.75099998E+02  0.17452E+04
 0.75149994E+02  0.17768E+04
 0.75199997E+02  0.18628E+04
 0.75249992E+02  0.18861E+04
 0.75299995E+02  0.19026E+04
 0.75349998E+02  0.19258E+04
 0.75399994E+02  0.19738E+04
 0.75449997E+02  0.20277E+04
 0.75499992E+02  0.19882E+04
 0.75549995E+02  0.19293E+04
 0.75599998E+02  0.18859E+04
 0.75649994E+02  0.18356E+04
 0.75699997E+02  0.17336E+04
 0.75749992E+02  0.17362E+04
 0.75799995E+02  0.17036E+04
 0.75849998E+02  0.16353E+04
 0.75899994E+02  0.16405E+04
 0.75949997E+02  0.16430E+04
 0.75999992E+02  0.15833E+04
 0.76049995E+02  0.15091E+04
 0.76099998E+02  0.15013E+04
 0.76149994E+02  0.15073E+04
 0.76199997E+02  0.15466E+04
 0.76249992E+02  0.15215E+04
 0.76299995E+02  0.15025E+04
 0.76349998E+02  0.15133E+04
 0.76399994E+02  0.14827E+04
 0.76449997E+02  0.14823E+04
 0.76499992E+02  0.15535E+04
 0.76549995E+02  0.15265E+04
 0.76599998E+02  0.14723E+04
 0.76649994E+02  0.15850E+04
 0.76699997E+02  0.17039E+04
 0.76749992E+02  0.17021E+04
 0.76799995E+02  0.16727E+04
 0.76849998E+02  0.17542E+04
 0.76899994E+02  0.18522E+04
 0.76949997E+02  0.19238E+04
 0.76999992E+02  0.19647E+04
 0.77049995E+02  0.19254E+04
 0.77099998E+02  0.18827E+04
 0.77149994E+02  0.18712E+04
 0.77199997E+02  0.18135E+04
 0.77249992E+02  0.17801E+04
 0.77299995E+02  0.17881E+04
 0.77349998E+02  0.18210E+04
 0.77399994E+02  0.18599E+04
 0.77449997E+02  0.18512E+04
 0.77499992E+02  0.18009E+04
 0.77549995E+02  0.17758E+04
 0.77599998E+02  0.18152E+04
 0.77649994E+02  0.18839E+04
 0.77699997E+02  0.19014E+04
 0.77749992E+02  0.18637E+04
 0.77799995E+02  0.18601E+04
 0.77849998E+02  0.18930E+04
 0.77899994E+02  0.19465E+04
 0.77949997E+02  0.19344E+04
 0.77999992E+02  0.19112E+04
 0.78049995E+02  0.18093E+04
 0.78099998E+02  0.17486E+04
 0.78149994E+02  0.17603E+04
 0.78199997E+02  0.17109E+04
 0.78249992E+02  0.17337E+04
 0.78299995E+02  0.17270E+04
 0.78349998E+02  0.16560E+04
 0.78399994E+02  0.16168E+04
 0.78449997E+02  0.15972E+04
 0.78499992E+02  0.15690E+04
 0.78549995E+02  0.15903E+04
 0.78599998E+02  0.16601E+04
 0.78649994E+02  0.17270E+04
 0.78699997E+02  0.17802E+04
 0.78749992E+02  0.18002E+04
 0.78799995E+02  0.18021E+04
 0.78849998E+02  0.17969E+04
 0.78899994E+02  0.17458E+04
 0.78949997E+02  0.16750E+04
 0.78999992E+02  0.16210E+04
 0.79049995E+02  0.15881E+04
 0.79099998E+02  0.16000E+04
 0.79149994E+02  0.16342E+04
 0.79199997E+02  0.16624E+04
 0.79249992E+02  0.16243E+04
 0.79299995E+02  0.16103E+04
 0.79349998E+02  0.16358E+04
 0.79399994E+02  0.16264E+04
 0.79449997E+02  0.16604E+04
 0.79499992E+02  0.16942E+04
 0.79549995E+02  0.17147E+04
 0.79599998E+02  0.17081E+04
 0.79649994E+02  0.16885E+04
 0.79699997E+02  0.16880E+04
 0.79749992E+02  0.16723E+04
 0.79799995E+02  0.17068E+04
 0.79849998E+02  0.17423E+04
 0.79899994E+02  0.17585E+04
 0.79949997E+02  0.18326E+04
 0.79999992E+02  0.18574E+04
 0.80049995E+02  0.18067E+04
 0.80099998E+02  0.17593E+04
 0.80149994E+02  0.16715E+04
 0.80199997E+02  0.15920E+04
 0.80249992E+02  0.15805E+04
 0.80299995E+02  0.15578E+04
 0.80349998E+02  0.15607E+04
 0.80399994E+02  0.16002E+04
 0.80449997E+02  0.16437E+04
 0.80499992E+02  0.17301E+04
 0.80549995E+02  0.18088E+04
 0.80599998E+02  0.18530E+04
 0.80649994E+02  0.18737E+04
 0.80699997E+02  0.18892E+04
 0.80749992E+02  0.18884E+04
 0.80799995E+02  0.18779E+04
 0.80849998E+02  0.18426E+04
 0.80899994E+02  0.17601E+04
 0.80949997E+02  0.17266E+04
 0.80999992E+02  0.17247E+04
 0.81049995E+02  0.17469E+04
 0.81099998E+02  0.17658E+04
 0.81149994E+02  0.17456E+04
 0.81199997E+02  0.17480E+04
 0.81249992E+02  0.17584E+04
 0.81299995E+02  0.17916E+04
 0.81349998E+02  0.17684E+04
 0.81399994E+02  0.17995E+04
 0.81449997E+02  0.18997E+04
 0.81499992E+02  0.19342E+04
 0.81549995E+02  0.19466E+04
 0.81599998E+02  0.18935E+04
 0.81649994E+02  0.18238E+04
 0.81699997E+02  0.17950E+04
 0.81749992E+02  0.18168E+04
 0.81799995E+02  0.17928E+04
 0.81849998E+02  0.17466E+04
 0.81899994E+02  0.17595E+04
 0.81949997E+02  0.17131E+04
 0.81999992E+02  0.16788E+04
 0.82049995E+02  0.17145E+04
 0.82099998E+02  0.16860E+04
 0.82149994E+02  0.16437E+04
 0.82199997E+02  0.16525E+04
 0.82249992E+02  0.16260E+04
 0.82299995E+02  0.15904E+04
 0.82349998E+02  0.15447E+04
 0.82399994E+02  0.14826E+04
 0.82449997E+02  0.14650E+04
 0.82499992E+02  0.14867E+04
 0.82549995E+02  0.14901E+04
 0.82599998E+02  0.15202E+04
 0.82649994E+02  0.15612E+04
 0.82699997E+02  0.15796E+04
 0.82749992E+02  0.16160E+04
 0.82799995E+02  0.16662E+04
 0.82849998E+02  0.17209E+04
 0.82899994E+02  0.17712E+04
 0.82949997E+02  0.18433E+04
 0.82999992E+02  0.19328E+04
 0.83049995E+02  0.19525E+04
 0.83099998E+02  0.19061E+04
 0.83149994E+02  0.18937E+04
 0.83199997E+02  0.18654E+04
 0.83249992E+02  0.19009E+04
 0.83299995E+02  0.19341E+04
 0.83349998E+02  0.19236E+04
 0.83399994E+02  0.19401E+04
 0.83449997E+02  0.19599E+04
 0.83499992E+02  0.19663E+04
 0.83549995E+02  0.19142E+04
 0.83599998E+02  0.18928E+04
 0.83649994E+02  0.19177E+04
 0.83699997E+02  0.18958E+04
 0.83749992E+02  0.17701E+04
 0.83799995E+02  0.16567E+04
 0.83849998E+02  0.15818E+04
 0.83899994E+02  0.14914E+04
 0.83949997E+02  0.14558E+04
 0.83999992E+02  0.15051E+04
 0.84049995E+02  0.15639E+04
 0.84099998E+02  0.16084E+04
 0.84149994E+02  0.16027E+04
 0.84199997E+02  0.15778E+04
 0.84249992E+02  0.15691E+04
 0.84299995E+02  0.15927E+04
 0.84349998E+02  0.15914E+04
 0.84399994E+02  0.15592E+04
 0.84449997E+02  0.16137E+04
 0.84499992E+02  0.16818E+04
 0.84549995E+02  0.17410E+04
 0.84599998E+02  0.17620E+04
 0.84649994E+02  0.17562E+04
 0.84699997E+02  0.18119E+04
 0.84749992E+02  0.19128E+04
 0.84799995E+02  0.18830E+04
 0.84849998E+02  0.18231E+04
 0.84899994E+02  0.17816E+04
 0.84949997E+02  0.17170E+04
 0.84999992E+02  0.17029E+04
 0.85049995E+02  0.17207E+04
 0.85099998E+02  0.17763E+04
 0.85149994E+02  0.17957E+04
 0.85199997E+02  0.18114E+04
 0.85249992E+02  0.17881E+04
 0.85299995E+02  0.17882E+04
 0.85349998E+02  0.17652E+04
 0.85399994E+02  0.17185E+04
 0.85449997E+02  0.17350E+04
 0.85499992E+02  0.17463E+04
 0.85549995E+02  0.18192E+04
 0.85599998E+02  0.18533E+04
 0.85649994E+02  0.18139E+04
 0.85699997E+02  0.17562E+04
 0.85749992E+02  0.17066E+04
 0.85799995E+02  0.17516E+04
 0.85849998E+02  0.17764E+04
 0.85899994E+02  0.17135E+04
 0.85949997E+02  0.17014E+04
 0.85999992E+02  0.17200E+04
 0.86049995E+02  0.17428E+04
 0.86099998E+02  0.17602E+04
 0.86149994E+02  0.17440E+04
 0.86199997E+02  0.17031E+04
 0.86249992E+02  0.16415E+04
 0.86299995E+02  0.16460E+04
 0.86349998E+02  0.16807E+04
 0.86399994E+02  0.16900E+04
 0.86449997E+02  0.16947E+04
 0.86499992E+02  0.17134E+04
 0.86549995E+02  0.17549E+04
 0.86599998E+02  0.18166E+04
 0.86649994E+02  0.18611E+04
 0.86699997E+02  0.18639E+04
 0.86749992E+02  0.18329E+04
 0.86799995E+02  0.17536E+04
 0.86849998E+02  0.17001E+04
 0.86899994E+02  0.16609E+04
 0.86949997E+02  0.16316E+04
 0.86999992E+02  0.16552E+04
 0.87049995E+02  0.16657E+04
 0.87099998E+02  0.16572E+04
 0.87149994E+02  0.16871E+04
 0.87199997E+02  0.17136E+04
 0.87249992E+02  0.16819E+04
 0.87299995E+02  0.16796E+04
 0.87349998E+02  0.16363E+04
 0.87399994E+02  0.15576E+04
 0.87449997E+02  0.15445E+04
 0.87499992E+02  0.15357E+04
 0.87549995E+02  0.15764E+04
 0.87599991E+02  0.16484E+04
 0.87649994E+02  0.17003E+04
 0.87699997E+02  0.17198E+04
 0.87749992E+02  0.17171E+04
 0.87799995E+02  0.17381E+04
 0.87849991E+02  0.17256E+04
 0.87899994E+02  0.17192E+04
 0.87949997E+02  0.17602E+04
 0.87999992E+02  0.18084E+04
 0.88049995E+02  0.18445E+04
 0.88099991E+02  0.18468E+04
 0.88149994E+02  0.18465E+04
 0.88199997E+02  0.18525E+04
 0.88249992E+02  0.18366E+04
 0.88299995E+02  0.18385E+04
 0.88349991E+02  0.18408E+04
 0.88399994E+02  0.18231E+04
 0.88449997E+02  0.18427E+04
 0.88499992E+02  0.18374E+04
 0.88549995E+02  0.18158E+04
 0.88599991E+02  0.17927E+04
 0.88649994E+02  0.17673E+04
 0.88699997E+02  0.17488E+04
 0.88749992E+02  0.17249E+04
 0.88799995E+02  0.17198E+04
 0.88849991E+02  0.16880E+04
 0.88899994E+02  0.16380E+04
 0.88949997E+02  0.16181E+04
 0.88999992E+02  0.16239E+04
 0.89049995E+02  0.16529E+04
 0.89099991E+02  0.16559E+04
 0.89149994E+02  0.16479E+04
 0.89199997E+02  0.16913E+04
 0.89249992E+02  0.17155E+04
 0.89299995E+02  0.17283E+04
 0.89349991E+02  0.17568E+04
 0.89399994E+02  0.17517E+04
 0.89449997E+02  0.17311E+04
 0.89499992E+02  0.17202E+04
 0.89549995E+02  0.16949E+04
 0.89599991E+02  0.16331E+04
 0.89649994E+02  0.16089E+04
 0.89699997E+02  0.16329E+04
 0.89749992E+02  0.16272E+04
 0.89799995E+02  0.16355E+04
 0.89849991E+02  0.16826E+04
 0.89899994E+02  0.17042E+04
 0.89949997E+02  0.17091E+04
 0.89999992E+02  0.17388E+04
 0.90049995E+02  0.17861E+04
 0.90099991E+02  0.18223E+04
 0.90149994E+02  0.18538E+04
 0.90199997E+02  0.18797E+04
 0.90249992E+02  0.18580E+04
 0.90299995E+02  0.18056E+04
 0.90349991E+02  0.17866E+04
 0.90399994E+02  0.17750E+04
 0.90449997E+02  0.17594E+04
 0.90499992E+02  0.17909E+04
 0.90549995E+02  0.18351E+04
 0.90599991E+02  0.18585E+04
 0.90649994E+02  0.18281E+04
 0.90699997E+02  0.17862E+04
 0.90749992E+02  0.17556E+04
 0.90799995E+02  0.16952E+04
 0.90849991E+02  0.16531E+04
 0.90899994E+02  0.16552E+04
 0.90949997E+02  0.16554E+04
 0.90999992E+02  0.16895E+04
 0.91049995E+02  0.17317E+04
 0.91099991E+02  0.17368E+04
 0.91149994E+02  0.17207E+04
 0.91199997E+02  0.17095E+04
 0.91249992E+02  0.17187E+04
 0.91299995E+02  0.17059E+04
 0.91349991E+02  0.17096E+04
 0.91399994E+02  0.17469E+04
 0.91449997E+02  0.17775E+04
 0.91499992E+02  0.17772E+04
 0.91549995E+02  0.17961E+04
 0.91599991E+02  0.18287E+04
 0.91649994E+02  0.18260E+04
 0.91699997E+02  0.17998E+04
 0.91749992E+02  0.18011E+04
 0.91799995E+02  0.18245E+04
 0.91849991E+02  0.18121E+04
 0.91899994E+02  0.17614E+04
 0.91949997E+02  0.17316E+04
 0.91999992E+02  0.17190E+04
 0.92049995E+02  0.17132E+04
 0.92099991E+02  0.17260E+04
 0.92149994E+02  0.17219E+04
 0.92199997E+02  0.16990E+04
 0.92249992E+02  0.16666E+04
 0.92299995E+02  0.16431E+04
 0.92349991E+02  0.16683E+04
 0.92399994E+02  0.16736E+04
 0.92449997E+02  0.16274E+04
 0.92499992E+02  0.15930E+04
 0.92549995E+02  0.15966E+04
 0.92599991E+02  0.16306E+04
 0.92649994E+02  0.16693E+04
 0.92699997E+02  0.17097E+04
 0.92749992E+02  0.17300E+04
 0.92799995E+02  0.17264E+04
 0.92849991E+02  0.17252E+04
 0.92899994E+02  0.17425E+04
 0.92949997E+02  0.17403E+04
 0.92999992E+02  0.17368E+04
 0.93049995E+02  0.17236E+04
 0.93099991E+02  0.17173E+04
 0.93149994E+02  0.17460E+04
 0.93199997E+02  0.17318E+04
 0.93249992E+02  0.17117E+04
 0.93299995E+02  0.17307E+04
 0.93349991E+02  0.17041E+04
 0.93399994E+02  0.16379E+04
 0.93449997E+02  0.15982E+04
 0.93499992E+02  0.16063E+04
 0.93549995E+02  0.16479E+04
 0.93599991E+02  0.16631E+04
 0.93649994E+02  0.16910E+04
 0.93699997E+02  0.17261E+04
 0.93749992E+02  0.17327E+04
 0.93799995E+02  0.17453E+04
 0.93849991E+02  0.17941E+04
 0.93899994E+02  0.18535E+04
 0.93949997E+02  0.18469E+04
 0.93999992E+02  0.18241E+04
 0.94049995E+02  0.18444E+04
 0.94099991E+02  0.18396E+04
 0.94149994E+02  0.18202E+04
 0.94199997E+02  0.17833E+04
 0.94249992E+02  0.17251E+04
 0.94299995E+02  0.16997E+04
 0.94349991E+02  0.16825E+04
 0.94399994E+02  0.17239E+04
 0.94449997E+02  0.17753E+04
 0.94499992E+02  0.17718E+04
 0.94549995E+02  0.17386E+04
 0.94599991E+02  0.16968E+04
 0.94649994E+02  0.16751E+04
 0.94699997E+02  0.16464E+04
 0.94749992E+02  0.16504E+04
 0.94799995E+02  0.17054E+04
 0.94849991E+02  0.17509E+04
 0.94899994E+02  0.17919E+04
 0.94949997E+02  0.18151E+04
 0.94999992E+02  0.18137E+04
 0.95049995E+02  0.18237E+04
 0.95099991E+02  0.18343E+04
 0.95149994E+02  0.18290E+04
 0.95199997E+02  0.18111E+04
 0.95249992E+02  0.17939E+04
 0.95299995E+02  0.17791E+04
 0.95349991E+02  0.17849E+04
 0.95399994E+02  0.17838E+04
 0.95449997E+02  0.17641E+04
 0.95499992E+02  0.17531E+04
 0.95549995E+02  0.17532E+04
 0.95599991E+02  0.17451E+04
 0.95649994E+02  0.17441E+04
 0.95699997E+02  0.17458E+04
 0.95749992E+02  0.17250E+04
 0.95799995E+02  0.17111E+04
 0.95849991E+02  0.17117E+04
 0.95899994E+02  0.16976E+04
 0.95949997E+02  0.16759E+04
 0.95999992E+02  0.16760E+04
 0.96049995E+02  0.16771E+04
 0.96099991E+02  0.16905E+04
 0.96149994E+02  0.17203E+04
 0.96199997E+02  0.17279E+04
 0.96249992E+02  0.17234E+04
 0.96299995E+02  0.17427E+04
 0.96349991E+02  0.17614E+04
 0.96399994E+02  0.17482E+04
 0.96449997E+02  0.17582E+04
 0.96499992E+02  0.17621E+04
 0.96549995E+02  0.17579E+04
 0.96599991E+02  0.17834E+04
 0.96649994E+02  0.17829E+04
 0.96699997E+02  0.17626E+04
 0.96749992E+02  0.17151E+04
 0.96799995E+02  0.16945E+04
 0.96849991E+02  0.17222E+04
 0.96899994E+02  0.17402E+04
 0.96949997E+02  0.17319E+04
 0.96999992E+02  0.17149E+04
 0.97049995E+02  0.17199E+04
 0.97099991E+02  0.17296E+04
 0.97149994E+02  0.17158E+04
 0.97199997E+02  0.16934E+04
 0.97249992E+02  0.16824E+04
 0.97299995E+02  0.16739E+04
 0.97349991E+02  0.16649E+04
 0.97399994E+02  0.16501E+04
 0.97449997E+02  0.16362E+04
 0.97499992E+02  0.16298E+04
 0.97549995E+02  0.16599E+04
 0.97599991E+02  0.16956E+04
 0.97649994E+02  0.17160E+04
 0.97699997E+02  0.17454E+04
 0.97749992E+02  0.17768E+04
 0.97799995E+02  0.17925E+04
 0.97849991E+02  0.17658E+04
 0.97899994E+02  0.17136E+04
 0.97949997E+02  0.16736E+04
 0.97999992E+02  0.16407E+04
