-0.20000000E+01  0.22591E+05
-0.19500000E+01  0.24805E+05
-0.19000000E+01  0.26462E+05
-0.18500000E+01  0.27465E+05
-0.18000000E+01  0.27581E+05
-0.17500000E+01  0.26790E+05
-0.17000000E+01  0.25216E+05
-0.16500001E+01  0.23093E+05
-0.16000000E+01  0.20537E+05
-0.15500000E+01  0.17592E+05
-0.15000000E+01  0.14204E+05
-0.14500000E+01  0.10282E+05
-0.14000001E+01  0.60228E+04
-0.13500000E+01  0.17150E+04
-0.13000001E+01 -0.23434E+04
-0.12500000E+01 -0.59990E+04
-0.12000000E+01 -0.93095E+04
-0.11500001E+01 -0.12241E+05
-0.11000000E+01 -0.14656E+05
-0.10500001E+01 -0.16517E+05
-0.10000000E+01 -0.17811E+05
-0.95000005E+00 -0.18471E+05
-0.90000010E+00 -0.18550E+05
-0.85000002E+00 -0.18165E+05
-0.80000007E+00 -0.17336E+05
-0.75000012E+00 -0.16034E+05
-0.70000005E+00 -0.14306E+05
-0.65000010E+00 -0.12121E+05
-0.60000014E+00 -0.95121E+04
-0.55000007E+00 -0.66630E+04
-0.50000012E+00 -0.37241E+04
-0.45000005E+00 -0.82583E+03
-0.40000010E+00  0.18922E+04
-0.35000014E+00  0.42344E+04
-0.30000007E+00  0.59446E+04
-0.25000012E+00  0.68909E+04
-0.20000005E+00  0.71050E+04
-0.15000010E+00  0.67884E+04
-0.10000014E+00  0.62202E+04
-0.50000072E-01  0.56388E+04
-0.11920929E-06  0.51273E+04
 0.49999952E-01  0.46733E+04
 0.99999905E-01  0.42853E+04
 0.14999986E+00  0.38589E+04
 0.19999981E+00  0.33616E+04
 0.24999976E+00  0.28005E+04
 0.29999995E+00  0.22297E+04
 0.34999990E+00  0.17292E+04
 0.39999986E+00  0.12984E+04
 0.44999981E+00  0.98856E+03
 0.49999976E+00  0.85389E+03
 0.54999995E+00  0.89541E+03
 0.59999990E+00  0.11544E+04
 0.64999986E+00  0.16027E+04
 0.69999981E+00  0.21040E+04
 0.74999976E+00  0.26234E+04
 0.79999971E+00  0.31374E+04
 0.84999990E+00  0.34592E+04
 0.89999986E+00  0.34254E+04
 0.94999981E+00  0.29585E+04
 0.99999976E+00  0.21152E+04
 0.10499997E+01  0.90282E+03
 0.10999999E+01 -0.66089E+03
 0.11499999E+01 -0.23859E+04
 0.11999998E+01 -0.40199E+04
 0.12499998E+01 -0.52731E+04
 0.12999997E+01 -0.61186E+04
 0.13499999E+01 -0.65568E+04
 0.13999999E+01 -0.66305E+04
 0.14499998E+01 -0.64637E+04
 0.14999998E+01 -0.62176E+04
 0.15499997E+01 -0.60576E+04
 0.15999999E+01 -0.60035E+04
 0.16499999E+01 -0.59441E+04
 0.16999998E+01 -0.57119E+04
 0.17499998E+01 -0.53213E+04
 0.17999997E+01 -0.49497E+04
 0.18499997E+01 -0.47276E+04
 0.18999999E+01 -0.45970E+04
 0.19499998E+01 -0.44145E+04
 0.19999998E+01 -0.41936E+04
 0.20499997E+01 -0.40398E+04
 0.20999999E+01 -0.38731E+04
 0.21499996E+01 -0.36084E+04
 0.21999998E+01 -0.31854E+04
 0.22499995E+01 -0.26824E+04
 0.22999997E+01 -0.21834E+04
 0.23499999E+01 -0.16341E+04
 0.23999996E+01 -0.10551E+04
 0.24499998E+01 -0.53222E+03
 0.24999995E+01 -0.16368E+03
 0.25499997E+01 -0.50206E+02
 0.25999999E+01 -0.28577E+03
 0.26499996E+01 -0.89809E+03
 0.26999998E+01 -0.18442E+04
 0.27499995E+01 -0.29298E+04
 0.27999997E+01 -0.40003E+04
 0.28499999E+01 -0.50517E+04
 0.28999996E+01 -0.60504E+04
 0.29499998E+01 -0.68549E+04
 0.29999995E+01 -0.74052E+04
 0.30499997E+01 -0.77491E+04
 0.30999999E+01 -0.79578E+04
 0.31499996E+01 -0.80854E+04
 0.31999998E+01 -0.81364E+04
 0.32499995E+01 -0.80528E+04
 0.32999997E+01 -0.77464E+04
 0.33499999E+01 -0.72198E+04
 0.33999996E+01 -0.64895E+04
 0.34499998E+01 -0.56705E+04
 0.34999995E+01 -0.49183E+04
 0.35499997E+01 -0.43065E+04
 0.35999994E+01 -0.39082E+04
 0.36499996E+01 -0.38232E+04
 0.36999998E+01 -0.40732E+04
 0.37499995E+01 -0.44912E+04
 0.37999997E+01 -0.47917E+04
 0.38499994E+01 -0.44971E+04
 0.38999996E+01 -0.32768E+04
 0.39499998E+01 -0.11297E+04
 0.39999995E+01  0.17943E+04
 0.40499997E+01  0.51804E+04
 0.40999994E+01  0.88302E+04
 0.41499996E+01  0.12602E+05
 0.41999998E+01  0.16326E+05
 0.42499995E+01  0.19703E+05
 0.42999997E+01  0.22335E+05
 0.43499994E+01  0.24088E+05
 0.43999996E+01  0.25090E+05
 0.44499998E+01  0.25519E+05
 0.44999995E+01  0.25479E+05
 0.45499997E+01  0.24944E+05
 0.45999994E+01  0.23895E+05
 0.46499996E+01  0.22408E+05
 0.46999998E+01  0.20606E+05
 0.47499995E+01  0.18586E+05
 0.47999997E+01  0.16332E+05
 0.48499994E+01  0.13902E+05
 0.48999996E+01  0.11340E+05
 0.49499998E+01  0.87149E+04
 0.49999995E+01  0.62658E+04
 0.50499997E+01  0.41200E+04
 0.50999994E+01  0.22909E+04
 0.51499996E+01  0.72389E+03
 0.51999998E+01 -0.64938E+03
 0.52499995E+01 -0.19207E+04
 0.52999997E+01 -0.33010E+04
 0.53499994E+01 -0.48921E+04
 0.53999996E+01 -0.66989E+04
 0.54499993E+01 -0.87854E+04
 0.54999995E+01 -0.11101E+05
 0.55499997E+01 -0.13484E+05
 0.55999994E+01 -0.15820E+05
 0.56499996E+01 -0.18037E+05
 0.56999993E+01 -0.20143E+05
 0.57499995E+01 -0.22071E+05
 0.57999997E+01 -0.23650E+05
 0.58499994E+01 -0.24582E+05
 0.58999996E+01 -0.24667E+05
 0.59499993E+01 -0.23919E+05
 0.59999995E+01 -0.22459E+05
 0.60499992E+01 -0.20514E+05
 0.60999994E+01 -0.18280E+05
 0.61499996E+01 -0.15820E+05
 0.61999998E+01 -0.13100E+05
 0.62499990E+01 -0.10119E+05
 0.62999992E+01 -0.70069E+04
 0.63499994E+01 -0.39619E+04
 0.63999996E+01 -0.10900E+04
 0.64499998E+01  0.15061E+04
 0.64999990E+01  0.37536E+04
 0.65499992E+01  0.56948E+04
 0.65999994E+01  0.73210E+04
 0.66499996E+01  0.85381E+04
 0.66999998E+01  0.92777E+04
 0.67499990E+01  0.96765E+04
 0.67999992E+01  0.10025E+05
 0.68499994E+01  0.10499E+05
 0.68999996E+01  0.11041E+05
 0.69499998E+01  0.11482E+05
 0.69999990E+01  0.11666E+05
 0.70499992E+01  0.11600E+05
 0.70999994E+01  0.11489E+05
 0.71499996E+01  0.11573E+05
 0.71999998E+01  0.11911E+05
 0.72499990E+01  0.12287E+05
 0.72999992E+01  0.12546E+05
 0.73499994E+01  0.12677E+05
 0.73999996E+01  0.12850E+05
 0.74499998E+01  0.13094E+05
 0.74999990E+01  0.13305E+05
 0.75499992E+01  0.13324E+05
 0.75999994E+01  0.12986E+05
 0.76499996E+01  0.12267E+05
 0.76999998E+01  0.11235E+05
 0.77499990E+01  0.98897E+04
 0.77999992E+01  0.80929E+04
 0.78499994E+01  0.58672E+04
 0.78999996E+01  0.33694E+04
 0.79499998E+01  0.89709E+03
 0.79999990E+01 -0.13434E+04
 0.80499992E+01 -0.32649E+04
 0.80999994E+01 -0.48581E+04
 0.81499996E+01 -0.61345E+04
 0.81999998E+01 -0.71233E+04
 0.82499990E+01 -0.78413E+04
 0.82999992E+01 -0.84049E+04
 0.83499994E+01 -0.89026E+04
 0.83999996E+01 -0.93723E+04
 0.84499998E+01 -0.98768E+04
 0.84999990E+01 -0.10421E+05
 0.85499992E+01 -0.11095E+05
 0.85999994E+01 -0.11973E+05
 0.86499996E+01 -0.13102E+05
 0.86999998E+01 -0.14338E+05
 0.87499990E+01 -0.15511E+05
 0.87999992E+01 -0.16409E+05
 0.88499994E+01 -0.16949E+05
 0.88999996E+01 -0.17242E+05
 0.89499998E+01 -0.17405E+05
 0.89999990E+01 -0.17526E+05
 0.90499992E+01 -0.17504E+05
 0.90999994E+01 -0.17240E+05
 0.91499996E+01 -0.16598E+05
 0.91999989E+01 -0.15569E+05
 0.92499990E+01 -0.14133E+05
 0.92999992E+01 -0.12210E+05
 0.93499994E+01 -0.97673E+04
 0.93999996E+01 -0.68260E+04
 0.94499989E+01 -0.35357E+04
 0.94999990E+01 -0.25339E+02
 0.95499992E+01  0.35184E+04
 0.95999994E+01  0.68548E+04
 0.96499996E+01  0.98195E+04
 0.96999989E+01  0.12390E+05
 0.97499990E+01  0.14669E+05
 0.97999992E+01  0.16776E+05
 0.98499994E+01  0.18723E+05
 0.98999996E+01  0.20309E+05
 0.99499989E+01  0.21218E+05
 0.99999990E+01  0.21330E+05
 0.10049999E+02  0.20646E+05
 0.10099999E+02  0.19389E+05
 0.10150000E+02  0.17925E+05
 0.10199999E+02  0.16418E+05
 0.10249999E+02  0.14882E+05
 0.10299999E+02  0.13262E+05
 0.10349999E+02  0.11391E+05
 0.10400000E+02  0.91444E+04
 0.10449999E+02  0.67182E+04
 0.10499999E+02  0.43879E+04
 0.10549999E+02  0.24474E+04
 0.10599999E+02  0.12528E+04
 0.10650000E+02  0.97376E+03
 0.10699999E+02  0.15045E+04
 0.10749999E+02  0.26511E+04
 0.10799999E+02  0.42584E+04
 0.10849999E+02  0.62343E+04
 0.10900000E+02  0.84998E+04
 0.10949999E+02  0.10860E+05
 0.10999999E+02  0.13031E+05
 0.11049999E+02  0.14718E+05
 0.11099999E+02  0.15763E+05
 0.11150000E+02  0.16102E+05
 0.11199999E+02  0.15710E+05
 0.11249999E+02  0.14647E+05
 0.11299999E+02  0.13118E+05
 0.11349999E+02  0.11208E+05
 0.11400000E+02  0.90604E+04
 0.11449999E+02  0.69492E+04
 0.11499999E+02  0.50412E+04
 0.11549999E+02  0.34754E+04
 0.11599999E+02  0.21433E+04
 0.11650000E+02  0.95150E+03
 0.11699999E+02 -0.20178E+03
 0.11749999E+02 -0.14513E+04
 0.11799999E+02 -0.27810E+04
 0.11849999E+02 -0.41973E+04
 0.11900000E+02 -0.56234E+04
 0.11949999E+02 -0.69505E+04
 0.11999999E+02 -0.80640E+04
 0.12049999E+02 -0.88246E+04
 0.12099999E+02 -0.92728E+04
 0.12150000E+02 -0.95554E+04
 0.12199999E+02 -0.97636E+04
 0.12249999E+02 -0.99421E+04
 0.12299999E+02 -0.10001E+05
 0.12349999E+02 -0.98068E+04
 0.12400000E+02 -0.92930E+04
 0.12449999E+02 -0.85484E+04
 0.12499999E+02 -0.77902E+04
 0.12549999E+02 -0.71579E+04
 0.12599999E+02 -0.67292E+04
 0.12649999E+02 -0.65041E+04
 0.12699999E+02 -0.65798E+04
 0.12749999E+02 -0.70431E+04
 0.12799999E+02 -0.78605E+04
 0.12849999E+02 -0.89666E+04
 0.12899999E+02 -0.10159E+05
 0.12949999E+02 -0.11228E+05
 0.12999999E+02 -0.12083E+05
 0.13049999E+02 -0.12778E+05
 0.13099999E+02 -0.13409E+05
 0.13149999E+02 -0.13988E+05
 0.13199999E+02 -0.14455E+05
 0.13249999E+02 -0.14733E+05
 0.13299999E+02 -0.14758E+05
 0.13349999E+02 -0.14465E+05
 0.13399999E+02 -0.13794E+05
 0.13449999E+02 -0.12817E+05
 0.13499999E+02 -0.11707E+05
 0.13549999E+02 -0.10580E+05
 0.13599999E+02 -0.93999E+04
 0.13649999E+02 -0.79863E+04
 0.13699999E+02 -0.60927E+04
 0.13749999E+02 -0.36479E+04
 0.13799999E+02 -0.83304E+03
 0.13849999E+02  0.20616E+04
 0.13899999E+02  0.47424E+04
 0.13949999E+02  0.71005E+04
 0.13999999E+02  0.91161E+04
 0.14049999E+02  0.10715E+05
 0.14099998E+02  0.11868E+05
 0.14150000E+02  0.12539E+05
 0.14199999E+02  0.12661E+05
 0.14249998E+02  0.12235E+05
 0.14299999E+02  0.11406E+05
 0.14349998E+02  0.10426E+05
 0.14400000E+02  0.95803E+04
 0.14449999E+02  0.90242E+04
 0.14499998E+02  0.86927E+04
 0.14549999E+02  0.84183E+04
 0.14599998E+02  0.80527E+04
 0.14650000E+02  0.74484E+04
 0.14699999E+02  0.66033E+04
 0.14749998E+02  0.56518E+04
 0.14799999E+02  0.47518E+04
 0.14849998E+02  0.40049E+04
 0.14900000E+02  0.34814E+04
 0.14949999E+02  0.32327E+04
 0.14999998E+02  0.31167E+04
 0.15049999E+02  0.30968E+04
 0.15099998E+02  0.31420E+04
 0.15150000E+02  0.31937E+04
 0.15199999E+02  0.32194E+04
 0.15249998E+02  0.30978E+04
 0.15299999E+02  0.26169E+04
 0.15349998E+02  0.16535E+04
 0.15400000E+02  0.30476E+03
 0.15449999E+02 -0.13070E+04
 0.15499998E+02 -0.29846E+04
 0.15549999E+02 -0.45572E+04
 0.15599998E+02 -0.59277E+04
 0.15650000E+02 -0.70801E+04
 0.15699999E+02 -0.79360E+04
 0.15749998E+02 -0.83758E+04
 0.15799999E+02 -0.83668E+04
 0.15849998E+02 -0.79927E+04
 0.15900000E+02 -0.74542E+04
 0.15949999E+02 -0.69214E+04
 0.15999998E+02 -0.65106E+04
 0.16049999E+02 -0.61517E+04
 0.16099998E+02 -0.58248E+04
 0.16150000E+02 -0.55665E+04
 0.16199999E+02 -0.54145E+04
 0.16249998E+02 -0.54162E+04
 0.16299999E+02 -0.54893E+04
 0.16349998E+02 -0.55769E+04
 0.16400000E+02 -0.57549E+04
 0.16449999E+02 -0.60542E+04
 0.16499998E+02 -0.65012E+04
 0.16549999E+02 -0.70909E+04
 0.16599998E+02 -0.76638E+04
 0.16650000E+02 -0.81068E+04
 0.16699999E+02 -0.83067E+04
 0.16749998E+02 -0.81483E+04
 0.16799999E+02 -0.75726E+04
 0.16849998E+02 -0.66508E+04
 0.16900000E+02 -0.55562E+04
 0.16949999E+02 -0.44870E+04
 0.16999998E+02 -0.35864E+04
 0.17049999E+02 -0.29354E+04
 0.17099998E+02 -0.24447E+04
 0.17150000E+02 -0.20272E+04
 0.17199999E+02 -0.15853E+04
 0.17249998E+02 -0.97498E+03
 0.17299999E+02 -0.14643E+03
 0.17349998E+02  0.86591E+03
 0.17400000E+02  0.18908E+04
 0.17449999E+02  0.28010E+04
 0.17499998E+02  0.35008E+04
 0.17549999E+02  0.39190E+04
 0.17599998E+02  0.40307E+04
 0.17650000E+02  0.38795E+04
 0.17699999E+02  0.35418E+04
 0.17749998E+02  0.32158E+04
 0.17799999E+02  0.30809E+04
 0.17849998E+02  0.31924E+04
 0.17900000E+02  0.34766E+04
 0.17949999E+02  0.38360E+04
 0.17999998E+02  0.43345E+04
 0.18049999E+02  0.50347E+04
 0.18099998E+02  0.58895E+04
 0.18150000E+02  0.66966E+04
 0.18199999E+02  0.72134E+04
 0.18249998E+02  0.73387E+04
 0.18299999E+02  0.70647E+04
 0.18349998E+02  0.64951E+04
 0.18400000E+02  0.57111E+04
 0.18449999E+02  0.47190E+04
 0.18499998E+02  0.35167E+04
 0.18549999E+02  0.22501E+04
 0.18599998E+02  0.11614E+04
 0.18650000E+02  0.35455E+03
 0.18699999E+02 -0.24592E+03
 0.18749998E+02 -0.82387E+03
 0.18799999E+02 -0.14487E+04
 0.18849998E+02 -0.19764E+04
 0.18900000E+02 -0.21821E+04
 0.18949999E+02 -0.20209E+04
 0.18999998E+02 -0.15109E+04
 0.19049999E+02 -0.78067E+03
 0.19099998E+02  0.96026E+02
 0.19150000E+02  0.10097E+04
 0.19199999E+02  0.18498E+04
 0.19249998E+02  0.26565E+04
 0.19299999E+02  0.35261E+04
 0.19349998E+02  0.46060E+04
 0.19400000E+02  0.58750E+04
 0.19449999E+02  0.71343E+04
 0.19499998E+02  0.81958E+04
 0.19549999E+02  0.91127E+04
 0.19599998E+02  0.99183E+04
 0.19650000E+02  0.10632E+05
 0.19699999E+02  0.11169E+05
 0.19749998E+02  0.11379E+05
 0.19799999E+02  0.11259E+05
 0.19849998E+02  0.10779E+05
 0.19900000E+02  0.10053E+05
 0.19949999E+02  0.90952E+04
 0.19999998E+02  0.79334E+04
 0.20049999E+02  0.66962E+04
 0.20099998E+02  0.55223E+04
 0.20150000E+02  0.44515E+04
 0.20199999E+02  0.34853E+04
 0.20249998E+02  0.25885E+04
 0.20299999E+02  0.16695E+04
 0.20349998E+02  0.72719E+03
 0.20399998E+02 -0.24362E+03
 0.20449999E+02 -0.10838E+04
 0.20499998E+02 -0.17186E+04
 0.20549999E+02 -0.20578E+04
 0.20599998E+02 -0.20669E+04
 0.20649998E+02 -0.18213E+04
 0.20699999E+02 -0.13650E+04
 0.20749998E+02 -0.79347E+03
 0.20799999E+02 -0.19811E+03
 0.20849998E+02  0.33803E+03
 0.20899998E+02  0.84684E+03
 0.20949999E+02  0.13892E+04
 0.20999998E+02  0.20577E+04
 0.21049999E+02  0.29718E+04
 0.21099998E+02  0.40230E+04
 0.21149998E+02  0.49324E+04
 0.21199999E+02  0.54828E+04
 0.21249998E+02  0.55990E+04
 0.21299999E+02  0.54090E+04
 0.21349998E+02  0.50415E+04
 0.21399998E+02  0.45195E+04
 0.21449999E+02  0.38474E+04
 0.21499998E+02  0.30031E+04
 0.21549999E+02  0.20147E+04
 0.21599998E+02  0.92345E+03
 0.21649998E+02 -0.14867E+03
 0.21699999E+02 -0.10557E+04
 0.21749998E+02 -0.16429E+04
 0.21799999E+02 -0.18849E+04
 0.21849998E+02 -0.18551E+04
 0.21899998E+02 -0.16764E+04
 0.21949999E+02 -0.15553E+04
 0.21999998E+02 -0.16494E+04
 0.22049999E+02 -0.20826E+04
 0.22099998E+02 -0.28227E+04
 0.22149998E+02 -0.37379E+04
 0.22199999E+02 -0.47327E+04
 0.22249998E+02 -0.57186E+04
 0.22299999E+02 -0.66950E+04
 0.22349998E+02 -0.76646E+04
 0.22399998E+02 -0.85695E+04
 0.22449999E+02 -0.94031E+04
 0.22499998E+02 -0.10152E+05
 0.22549999E+02 -0.10910E+05
 0.22599998E+02 -0.11622E+05
 0.22649998E+02 -0.12206E+05
 0.22699999E+02 -0.12570E+05
 0.22749998E+02 -0.12677E+05
 0.22799999E+02 -0.12567E+05
 0.22849998E+02 -0.12215E+05
 0.22899998E+02 -0.11722E+05
 0.22949999E+02 -0.11220E+05
 0.22999998E+02 -0.10848E+05
 0.23049999E+02 -0.10634E+05
 0.23099998E+02 -0.10532E+05
 0.23149998E+02 -0.10477E+05
 0.23199999E+02 -0.10387E+05
 0.23249998E+02 -0.10308E+05
 0.23299999E+02 -0.10197E+05
 0.23349998E+02 -0.99556E+04
 0.23399998E+02 -0.95315E+04
 0.23449999E+02 -0.88949E+04
 0.23499998E+02 -0.82513E+04
 0.23549999E+02 -0.76760E+04
 0.23599998E+02 -0.71613E+04
 0.23649998E+02 -0.65410E+04
 0.23699999E+02 -0.57172E+04
 0.23749998E+02 -0.44869E+04
 0.23799999E+02 -0.29964E+04
 0.23849998E+02 -0.13371E+04
 0.23899998E+02  0.22164E+03
 0.23949999E+02  0.16526E+04
 0.23999998E+02  0.30092E+04
 0.24049999E+02  0.45754E+04
 0.24099998E+02  0.62565E+04
 0.24149998E+02  0.75192E+04
 0.24199999E+02  0.86982E+04
 0.24249998E+02  0.10366E+05
 0.24299999E+02  0.12511E+05
 0.24349998E+02  0.14833E+05
 0.24399998E+02  0.16244E+05
 0.24449999E+02  0.16896E+05
 0.24499998E+02  0.17494E+05
 0.24549999E+02  0.19444E+05
 0.24599998E+02  0.20634E+05
 0.24649998E+02  0.19870E+05
 0.24699999E+02  0.17381E+05
 0.24749998E+02  0.16009E+05
 0.24799999E+02  0.17055E+05
 0.24849998E+02  0.18866E+05
 0.24899998E+02  0.19515E+05
 0.24949999E+02  0.15920E+05
 0.24999998E+02  0.15108E+05
 0.25049999E+02  0.17278E+05
 0.25099998E+02  0.18405E+05
 0.25149998E+02  0.14357E+05
 0.25199999E+02  0.12129E+05
 0.25249998E+02  0.11860E+05
 0.25299999E+02  0.13977E+05
 0.25349998E+02  0.17420E+05
 0.25399998E+02  0.16619E+05
 0.25449999E+02  0.13297E+05
 0.25499998E+02  0.13569E+05
 0.25549999E+02  0.21366E+05
 0.25599998E+02  0.21711E+05
 0.25649998E+02  0.14834E+05
 0.25699999E+02  0.78863E+04
 0.25749998E+02  0.64781E+04
 0.25799999E+02  0.44536E+04
 0.25849998E+02  0.74119E+04
 0.25899998E+02  0.10216E+05
 0.25949999E+02  0.71213E+04
 0.25999998E+02  0.73817E+04
 0.26049999E+02  0.83381E+04
 0.26099998E+02  0.84385E+04
 0.26149998E+02  0.38411E+04
 0.26199999E+02 -0.14451E+03
 0.26249998E+02 -0.38460E+04
 0.26299999E+02 -0.80250E+04
 0.26349998E+02 -0.16850E+05
 0.26399998E+02 -0.31377E+05
 0.26449999E+02 -0.44454E+05
 0.26499998E+02 -0.48167E+05
 0.26549999E+02 -0.47298E+05
 0.26599998E+02 -0.41138E+05
 0.26649998E+02 -0.26482E+05
 0.26699999E+02 -0.26130E+05
 0.26749998E+02 -0.32276E+05
 0.26799999E+02 -0.24512E+05
 0.26849998E+02 -0.37422E+04
 0.26899998E+02  0.12826E+05
 0.26949999E+02  0.18282E+05
 0.26999998E+02  0.93224E+04
 0.27049997E+02 -0.22578E+04
 0.27099998E+02 -0.50659E+04
 0.27149998E+02  0.12368E+05
 0.27199999E+02  0.25740E+05
 0.27249998E+02 -0.58958E+03
 0.27299997E+02 -0.31821E+05
 0.27349998E+02 -0.48987E+05
 0.27399998E+02 -0.36688E+05
 0.27449999E+02 -0.27460E+05
 0.27499998E+02 -0.31228E+05
 0.27549997E+02 -0.40090E+05
 0.27599998E+02 -0.24644E+05
 0.27649998E+02  0.11443E+05
 0.27699999E+02  0.33021E+05
 0.27749998E+02  0.61663E+05
 0.27799997E+02  0.80955E+05
 0.27849998E+02  0.11448E+06
 0.27899998E+02  0.14063E+06
 0.27949999E+02  0.12984E+06
 0.27999998E+02  0.77821E+05
 0.28049997E+02  0.29654E+05
 0.28099998E+02  0.46123E+04
 0.28149998E+02 -0.29657E+05
 0.28199999E+02 -0.42639E+05
 0.28249998E+02 -0.18750E+05
 0.28299997E+02  0.10210E+05
 0.28349998E+02  0.20201E+05
 0.28399998E+02  0.13300E+05
 0.28449999E+02 -0.29833E+05
 0.28499998E+02 -0.38452E+05
 0.28549997E+02 -0.37582E+04
 0.28599998E+02  0.74117E+04
 0.28649998E+02 -0.10784E+05
 0.28699999E+02 -0.29729E+05
 0.28749998E+02 -0.30756E+05
 0.28799997E+02 -0.43429E+05
 0.28849998E+02 -0.35046E+05
 0.28899998E+02  0.10097E+05
 0.28949999E+02  0.19353E+05
 0.28999998E+02 -0.20183E+05
 0.29049997E+02 -0.35467E+05
 0.29099998E+02 -0.40376E+05
 0.29149998E+02 -0.18918E+05
 0.29199999E+02  0.23943E+05
 0.29249998E+02  0.62230E+05
 0.29299997E+02  0.95482E+05
 0.29349998E+02  0.79482E+05
 0.29399998E+02  0.28177E+05
 0.29449999E+02 -0.18069E+05
 0.29499998E+02 -0.19525E+05
 0.29549997E+02 -0.96173E+04
 0.29599998E+02 -0.12254E+05
 0.29649998E+02 -0.19787E+05
 0.29699999E+02 -0.46382E+05
 0.29749998E+02 -0.57754E+05
 0.29799997E+02 -0.52567E+05
 0.29849998E+02 -0.70658E+05
 0.29899998E+02 -0.11368E+06
 0.29949999E+02 -0.15744E+06
 0.29999998E+02 -0.18840E+06
 0.30049999E+02 -0.18982E+06
 0.30099998E+02 -0.13550E+06
 0.30149998E+02 -0.59559E+05
 0.30199997E+02  0.55149E+05
 0.30249996E+02  0.14751E+06
 0.30299999E+02  0.18108E+06
 0.30349998E+02  0.16421E+06
 0.30399998E+02  0.86102E+05
 0.30449997E+02 -0.20065E+05
 0.30499996E+02 -0.85778E+05
 0.30549999E+02 -0.88304E+05
 0.30599998E+02 -0.61770E+05
 0.30649998E+02 -0.36209E+04
 0.30699997E+02  0.37111E+05
 0.30749996E+02  0.43674E+05
 0.30799999E+02  0.34170E+05
 0.30849998E+02  0.31654E+05
 0.30899998E+02  0.45192E+05
 0.30949997E+02  0.37726E+04
 0.30999996E+02 -0.67332E+05
 0.31049999E+02 -0.77811E+05
 0.31099998E+02 -0.26614E+05
 0.31149998E+02  0.45301E+05
 0.31199997E+02  0.74686E+05
 0.31249996E+02  0.92456E+05
 0.31299999E+02  0.89631E+05
 0.31349998E+02  0.37718E+05
 0.31399998E+02 -0.77252E+05
 0.31449997E+02 -0.17525E+06
 0.31499996E+02 -0.21130E+06
 0.31549999E+02 -0.16939E+06
 0.31599998E+02 -0.84892E+05
 0.31649998E+02 -0.14386E+05
 0.31699997E+02  0.34921E+05
 0.31749996E+02  0.61064E+05
 0.31799999E+02  0.10052E+06
 0.31849998E+02  0.86003E+05
 0.31899998E+02  0.60470E+05
 0.31949997E+02  0.70474E+05
 0.31999996E+02  0.12032E+06
 0.32049999E+02  0.14099E+06
 0.32099998E+02  0.11890E+06
 0.32149998E+02  0.54127E+05
 0.32199997E+02  0.17466E+04
 0.32249996E+02  0.11389E+05
 0.32299999E+02 -0.16597E+05
 0.32349998E+02 -0.65309E+05
 0.32399998E+02 -0.87962E+05
 0.32449997E+02 -0.52025E+05
 0.32499996E+02  0.13989E+05
 0.32549999E+02  0.60235E+05
 0.32599998E+02  0.83181E+05
 0.32649998E+02  0.64086E+05
 0.32699997E+02  0.11620E+05
 0.32749996E+02 -0.16679E+05
 0.32799999E+02 -0.40766E+05
 0.32849998E+02 -0.55319E+05
 0.32899998E+02 -0.58429E+05
 0.32949997E+02 -0.50599E+05
 0.32999996E+02 -0.34800E+05
 0.33049999E+02 -0.38067E+05
 0.33099998E+02 -0.49928E+05
 0.33149998E+02 -0.88328E+05
 0.33199997E+02 -0.12834E+06
 0.33249996E+02 -0.14821E+06
 0.33299999E+02 -0.15156E+06
 0.33349998E+02 -0.13112E+06
 0.33399998E+02 -0.44343E+05
 0.33449997E+02  0.36505E+05
 0.33499996E+02  0.77919E+05
 0.33549999E+02  0.74196E+05
 0.33599998E+02  0.36666E+05
 0.33649998E+02  0.37631E+05
 0.33699997E+02  0.64699E+05
 0.33749996E+02  0.10342E+06
 0.33799999E+02  0.10818E+06
 0.33849998E+02  0.97283E+05
 0.33899998E+02  0.58852E+05
 0.33949997E+02  0.27725E+05
 0.33999996E+02  0.59042E+05
 0.34049999E+02  0.11513E+06
 0.34099998E+02  0.15170E+06
 0.34149998E+02  0.15107E+06
 0.34199997E+02  0.99405E+05
 0.34249996E+02  0.73705E+05
 0.34299999E+02  0.12540E+06
 0.34349998E+02  0.16782E+06
 0.34399998E+02  0.17411E+06
 0.34449997E+02  0.15431E+06
 0.34499996E+02  0.12526E+06
 0.34549999E+02  0.97140E+05
 0.34599998E+02  0.12071E+06
 0.34649998E+02  0.13502E+06
 0.34699997E+02  0.75597E+05
 0.34749996E+02 -0.15432E+05
 0.34799999E+02 -0.13170E+06
 0.34849998E+02 -0.22112E+06
 0.34899998E+02 -0.20761E+06
 0.34949997E+02 -0.12197E+06
 0.34999996E+02 -0.61324E+05
 0.35049999E+02 -0.36285E+05
 0.35099998E+02 -0.14091E+05
 0.35149998E+02  0.33001E+04
 0.35199997E+02  0.21646E+05
 0.35249996E+02  0.82381E+04
 0.35299999E+02 -0.52371E+05
 0.35349998E+02 -0.10122E+06
 0.35399998E+02 -0.11529E+06
 0.35449997E+02 -0.79860E+05
 0.35499996E+02 -0.49000E+04
 0.35549999E+02  0.39849E+05
 0.35599998E+02  0.68194E+05
 0.35649998E+02  0.95258E+05
 0.35699997E+02  0.99526E+05
 0.35749996E+02  0.78377E+05
 0.35799999E+02  0.37407E+05
 0.35849998E+02  0.39896E+05
 0.35899998E+02  0.65580E+05
 0.35949997E+02  0.74318E+05
 0.35999996E+02  0.75183E+05
 0.36049999E+02  0.83295E+05
 0.36099998E+02  0.82831E+05
 0.36149998E+02  0.82595E+05
 0.36199997E+02  0.96325E+05
 0.36249996E+02  0.71243E+05
 0.36299999E+02  0.13735E+05
 0.36349998E+02 -0.53434E+05
 0.36399998E+02 -0.10028E+06
 0.36449997E+02 -0.10665E+06
 0.36499996E+02 -0.95681E+05
 0.36549999E+02 -0.26075E+05
 0.36599998E+02  0.84366E+05
 0.36649998E+02  0.14732E+06
 0.36699997E+02  0.15836E+06
 0.36749996E+02  0.14785E+06
 0.36799999E+02  0.11567E+06
 0.36849998E+02  0.56800E+05
 0.36899998E+02  0.15801E+05
 0.36949997E+02 -0.54357E+04
 0.36999996E+02 -0.36866E+05
 0.37049999E+02 -0.71093E+05
 0.37099998E+02 -0.84842E+05
 0.37149998E+02 -0.90943E+05
 0.37199997E+02 -0.77038E+05
 0.37249996E+02 -0.47106E+05
 0.37299999E+02 -0.12660E+05
 0.37349998E+02  0.48369E+05
 0.37399998E+02  0.93405E+05
 0.37449997E+02  0.12623E+06
 0.37499996E+02  0.11732E+06
 0.37549999E+02  0.66077E+05
 0.37599998E+02  0.31356E+05
 0.37649998E+02  0.14463E+05
 0.37699997E+02  0.14045E+05
 0.37749996E+02  0.41724E+05
 0.37799999E+02  0.65500E+05
 0.37849998E+02  0.48582E+05
 0.37899998E+02  0.21819E+05
 0.37949997E+02  0.34443E+04
 0.37999996E+02 -0.28603E+05
 0.38049999E+02 -0.30433E+05
 0.38099998E+02  0.17701E+05
 0.38149998E+02  0.75045E+05
 0.38199997E+02  0.12748E+06
 0.38249996E+02  0.14116E+06
 0.38299999E+02  0.12124E+06
 0.38349998E+02  0.97774E+05
 0.38399998E+02  0.97650E+05
 0.38449997E+02  0.11128E+06
 0.38499996E+02  0.97325E+05
 0.38549999E+02  0.58604E+05
 0.38599998E+02  0.13878E+05
 0.38649998E+02 -0.45687E+05
 0.38699997E+02 -0.83027E+05
 0.38749996E+02 -0.90527E+05
 0.38799999E+02 -0.87153E+05
 0.38849998E+02 -0.62358E+05
 0.38899998E+02 -0.57078E+04
 0.38949997E+02  0.32929E+05
 0.38999996E+02  0.18313E+05
 0.39049999E+02 -0.11785E+05
 0.39099998E+02 -0.62572E+05
 0.39149998E+02 -0.10558E+06
 0.39199997E+02 -0.14722E+06
 0.39249996E+02 -0.17826E+06
 0.39299999E+02 -0.17500E+06
 0.39349998E+02 -0.14873E+06
 0.39399998E+02 -0.12086E+06
 0.39449997E+02 -0.98462E+05
 0.39499996E+02 -0.73869E+05
 0.39549999E+02 -0.43698E+05
 0.39599998E+02 -0.25788E+05
 0.39649998E+02 -0.34373E+05
 0.39699997E+02 -0.77899E+05
 0.39749996E+02 -0.13329E+06
 0.39799999E+02 -0.12053E+06
 0.39849998E+02 -0.73402E+05
 0.39899998E+02 -0.19085E+05
 0.39949997E+02  0.55613E+04
 0.39999996E+02 -0.46711E+04
 0.40049999E+02 -0.96705E+04
 0.40099998E+02 -0.76414E+04
 0.40149998E+02  0.14402E+05
 0.40199997E+02  0.36960E+05
 0.40249996E+02  0.42677E+05
 0.40299999E+02 -0.77089E+02
 0.40349998E+02 -0.43810E+05
 0.40399998E+02 -0.44877E+05
 0.40449997E+02 -0.12323E+05
 0.40499996E+02  0.38783E+05
 0.40549999E+02  0.93290E+05
 0.40599998E+02  0.12523E+06
 0.40649998E+02  0.12083E+06
 0.40699997E+02  0.90864E+05
 0.40749996E+02  0.13737E+05
 0.40799999E+02 -0.74816E+05
 0.40849998E+02 -0.14457E+06
 0.40899998E+02 -0.18593E+06
 0.40949997E+02 -0.20065E+06
 0.40999996E+02 -0.18438E+06
 0.41049999E+02 -0.14062E+06
 0.41099998E+02 -0.79151E+05
 0.41149998E+02 -0.84939E+04
 0.41199997E+02  0.39449E+05
 0.41249996E+02  0.54781E+05
 0.41299999E+02  0.33951E+05
 0.41349998E+02  0.58426E+04
 0.41399998E+02 -0.14406E+05
 0.41449997E+02 -0.23621E+05
 0.41499996E+02 -0.10975E+05
 0.41549999E+02 -0.37387E+04
 0.41599998E+02 -0.12105E+05
 0.41649998E+02 -0.27868E+05
 0.41699997E+02 -0.51136E+05
 0.41749996E+02 -0.92417E+05
 0.41799999E+02 -0.13705E+06
 0.41849998E+02 -0.17720E+06
 0.41899998E+02 -0.23216E+06
 0.41949997E+02 -0.29862E+06
 0.41999996E+02 -0.34100E+06
 0.42049999E+02 -0.34972E+06
 0.42099998E+02 -0.34019E+06
 0.42149998E+02 -0.34338E+06
 0.42199997E+02 -0.35057E+06
 0.42249996E+02 -0.34422E+06
 0.42299999E+02 -0.34376E+06
 0.42349998E+02 -0.34230E+06
 0.42399998E+02 -0.34702E+06
 0.42449997E+02 -0.37679E+06
 0.42499996E+02 -0.40524E+06
 0.42549999E+02 -0.40132E+06
 0.42599998E+02 -0.35119E+06
 0.42649998E+02 -0.26959E+06
 0.42699997E+02 -0.18404E+06
 0.42749996E+02 -0.11484E+06
 0.42799995E+02 -0.13527E+06
 0.42849998E+02 -0.16954E+06
 0.42899998E+02 -0.16997E+06
 0.42949997E+02 -0.14016E+06
 0.42999996E+02 -0.90403E+05
 0.43049995E+02 -0.72701E+05
 0.43099998E+02 -0.10749E+06
 0.43149998E+02 -0.18671E+06
 0.43199997E+02 -0.24487E+06
 0.43249996E+02 -0.26854E+06
 0.43299995E+02 -0.23603E+06
 0.43349998E+02 -0.18085E+06
 0.43399998E+02 -0.13691E+06
 0.43449997E+02 -0.11965E+06
 0.43499996E+02 -0.10931E+06
 0.43549995E+02 -0.11474E+06
 0.43599998E+02 -0.15495E+06
 0.43649998E+02 -0.20608E+06
 0.43699997E+02 -0.31137E+06
 0.43749996E+02 -0.46439E+06
 0.43799995E+02 -0.56033E+06
 0.43849998E+02 -0.48939E+06
 0.43899998E+02 -0.23208E+06
 0.43949997E+02  0.19983E+06
 0.43999996E+02  0.71495E+06
 0.44049995E+02  0.11749E+07
 0.44099998E+02  0.14541E+07
 0.44149998E+02  0.15333E+07
 0.44199997E+02  0.14058E+07
 0.44249996E+02  0.10788E+07
 0.44299995E+02  0.67220E+06
 0.44349998E+02  0.25552E+06
 0.44399998E+02 -0.48193E+05
 0.44449997E+02 -0.19424E+06
 0.44499996E+02 -0.23940E+06
 0.44549995E+02 -0.26516E+06
 0.44599998E+02 -0.36211E+06
 0.44649998E+02 -0.51005E+06
 0.44699997E+02 -0.59877E+06
 0.44749996E+02 -0.51879E+06
 0.44799995E+02 -0.22833E+06
 0.44849998E+02  0.17955E+06
 0.44899998E+02  0.51230E+06
 0.44949997E+02  0.66694E+06
 0.44999996E+02  0.64071E+06
 0.45049995E+02  0.46889E+06
 0.45099998E+02  0.21276E+06
 0.45149998E+02 -0.12057E+06
 0.45199997E+02 -0.55883E+06
 0.45249996E+02 -0.97114E+06
 0.45299995E+02 -0.11468E+07
 0.45349998E+02 -0.10659E+07
 0.45399998E+02 -0.83737E+06
 0.45449997E+02 -0.57885E+06
 0.45499996E+02 -0.42707E+06
 0.45549995E+02 -0.38836E+06
 0.45599998E+02 -0.34516E+06
 0.45649998E+02 -0.21041E+06
 0.45699997E+02 -0.75345E+05
 0.45749996E+02 -0.34202E+05
 0.45799995E+02 -0.81550E+05
 0.45849998E+02 -0.27809E+06
 0.45899998E+02 -0.56251E+06
 0.45949997E+02 -0.75661E+06
 0.45999996E+02 -0.83337E+06
 0.46049995E+02 -0.90292E+06
 0.46099998E+02 -0.99389E+06
 0.46149998E+02 -0.10208E+07
 0.46199997E+02 -0.88177E+06
 0.46249996E+02 -0.49409E+06
 0.46299995E+02  0.80378E+05
 0.46349998E+02  0.58933E+06
 0.46399998E+02  0.80175E+06
 0.46449997E+02  0.76347E+06
 0.46499996E+02  0.73133E+06
 0.46549995E+02  0.84725E+06
 0.46599998E+02  0.10163E+07
 0.46649998E+02  0.10299E+07
 0.46699997E+02  0.81885E+06
 0.46749996E+02  0.43003E+06
 0.46799995E+02  0.81544E+04
 0.46849998E+02 -0.29424E+06
 0.46899998E+02 -0.41316E+06
 0.46949997E+02 -0.34950E+06
 0.46999996E+02 -0.16298E+06
 0.47049995E+02  0.89273E+05
 0.47099998E+02  0.31963E+06
 0.47149998E+02  0.49388E+06
 0.47199997E+02  0.52964E+06
 0.47249996E+02  0.46776E+06
 0.47299995E+02  0.31225E+06
 0.47349998E+02  0.68318E+05
 0.47399998E+02 -0.93107E+05
 0.47449997E+02 -0.12255E+06
 0.47499996E+02  0.30987E+04
 0.47549995E+02  0.13878E+06
 0.47599998E+02  0.15859E+06
 0.47649998E+02  0.38541E+05
 0.47699997E+02 -0.54475E+05
 0.47749996E+02  0.22646E+05
 0.47799995E+02  0.12419E+06
 0.47849998E+02  0.21112E+06
 0.47899998E+02  0.17836E+06
 0.47949997E+02  0.12502E+05
 0.47999996E+02 -0.66636E+05
 0.48049995E+02  0.25310E+05
 0.48099998E+02  0.14978E+06
 0.48149998E+02  0.10955E+06
 0.48199997E+02 -0.47256E+05
 0.48249996E+02 -0.21254E+06
 0.48299995E+02 -0.36928E+06
 0.48349998E+02 -0.44775E+06
 0.48399998E+02 -0.41041E+06
 0.48449997E+02 -0.35110E+06
 0.48499996E+02 -0.34563E+06
 0.48549995E+02 -0.30859E+06
 0.48599998E+02 -0.30857E+06
 0.48649998E+02 -0.37378E+06
 0.48699997E+02 -0.34080E+06
 0.48749996E+02 -0.16343E+06
 0.48799995E+02  0.15582E+06
 0.48849998E+02  0.47254E+06
 0.48899998E+02  0.68097E+06
 0.48949997E+02  0.73611E+06
 0.48999996E+02  0.53075E+06
 0.49049995E+02  0.17311E+06
 0.49099998E+02 -0.18585E+06
 0.49149998E+02 -0.45678E+06
 0.49199997E+02 -0.50779E+06
 0.49249996E+02 -0.36772E+06
 0.49299995E+02 -0.19723E+06
 0.49349998E+02 -0.88914E+05
 0.49399998E+02 -0.47259E+05
 0.49449997E+02 -0.14749E+04
 0.49499996E+02  0.10110E+06
 0.49549995E+02  0.24013E+06
 0.49599998E+02  0.36327E+06
 0.49649998E+02  0.47863E+06
 0.49699997E+02  0.56281E+06
 0.49749996E+02  0.63643E+06
 0.49799995E+02  0.70500E+06
 0.49849998E+02  0.70785E+06
 0.49899998E+02  0.69673E+06
 0.49949997E+02  0.62574E+06
 0.49999996E+02  0.46818E+06
 0.50049995E+02  0.27810E+06
 0.50099998E+02  0.14336E+06
 0.50149998E+02  0.11067E+06
 0.50199997E+02  0.14285E+06
 0.50249996E+02  0.23109E+06
 0.50299995E+02  0.31160E+06
 0.50349998E+02  0.36466E+06
 0.50399998E+02  0.37144E+06
 0.50449997E+02  0.33767E+06
 0.50499996E+02  0.28614E+06
 0.50549995E+02  0.21639E+06
 0.50599998E+02  0.20241E+06
 0.50649998E+02  0.23973E+06
 0.50699997E+02  0.29930E+06
 0.50749996E+02  0.34137E+06
 0.50799995E+02  0.30867E+06
 0.50849998E+02  0.18170E+06
 0.50899998E+02  0.13300E+05
 0.50949997E+02 -0.68061E+05
 0.50999996E+02 -0.29444E+05
 0.51049995E+02  0.53336E+05
 0.51099998E+02  0.11439E+06
 0.51149998E+02  0.16129E+06
 0.51199997E+02  0.17690E+06
 0.51249996E+02  0.17749E+06
 0.51299995E+02  0.23902E+06
 0.51349998E+02  0.35044E+06
 0.51399998E+02  0.43632E+06
 0.51449997E+02  0.50288E+06
 0.51499996E+02  0.56318E+06
 0.51549995E+02  0.56764E+06
 0.51599998E+02  0.51510E+06
 0.51649998E+02  0.45404E+06
 0.51699997E+02  0.40690E+06
 0.51749996E+02  0.36185E+06
 0.51799995E+02  0.33281E+06
 0.51849998E+02  0.35593E+06
 0.51899998E+02  0.43808E+06
 0.51949997E+02  0.54018E+06
 0.51999996E+02  0.60587E+06
 0.52049995E+02  0.62999E+06
 0.52099998E+02  0.61487E+06
 0.52149998E+02  0.57614E+06
 0.52199997E+02  0.57604E+06
 0.52249996E+02  0.59790E+06
 0.52299995E+02  0.59401E+06
 0.52349998E+02  0.52071E+06
 0.52399998E+02  0.41379E+06
 0.52449997E+02  0.36407E+06
 0.52499996E+02  0.38592E+06
 0.52549995E+02  0.47264E+06
 0.52599998E+02  0.60368E+06
 0.52649998E+02  0.72813E+06
 0.52699997E+02  0.80311E+06
 0.52749996E+02  0.82372E+06
 0.52799995E+02  0.76326E+06
 0.52849998E+02  0.61843E+06
 0.52899998E+02  0.43994E+06
 0.52949997E+02  0.25593E+06
 0.52999996E+02  0.36258E+05
 0.53049995E+02 -0.18594E+06
 0.53099998E+02 -0.34151E+06
 0.53149998E+02 -0.43739E+06
 0.53199997E+02 -0.48151E+06
 0.53249996E+02 -0.49282E+06
 0.53299995E+02 -0.47618E+06
 0.53349998E+02 -0.44180E+06
 0.53399998E+02 -0.39938E+06
 0.53449997E+02 -0.38110E+06
 0.53499996E+02 -0.38414E+06
 0.53549995E+02 -0.36217E+06
 0.53599998E+02 -0.31190E+06
 0.53649998E+02 -0.25724E+06
 0.53699997E+02 -0.19554E+06
 0.53749996E+02 -0.13846E+06
 0.53799995E+02 -0.12344E+06
 0.53849998E+02 -0.99051E+05
 0.53899998E+02 -0.59415E+05
 0.53949997E+02 -0.10648E+05
 0.53999996E+02  0.77810E+05
 0.54049995E+02  0.17779E+06
 0.54099998E+02  0.25409E+06
 0.54149998E+02  0.28122E+06
 0.54199997E+02  0.24808E+06
 0.54249996E+02  0.18643E+06
 0.54299995E+02  0.11879E+06
 0.54349998E+02  0.83149E+05
 0.54399998E+02  0.80738E+05
 0.54449997E+02  0.44613E+05
 0.54499996E+02 -0.31370E+05
 0.54549995E+02 -0.11715E+06
 0.54599998E+02 -0.21046E+06
 0.54649998E+02 -0.30248E+06
 0.54699997E+02 -0.36083E+06
 0.54749996E+02 -0.36113E+06
 0.54799995E+02 -0.31127E+06
 0.54849998E+02 -0.22338E+06
 0.54899998E+02 -0.15502E+06
 0.54949997E+02 -0.13293E+06
 0.54999996E+02 -0.13759E+06
 0.55049995E+02 -0.15657E+06
 0.55099998E+02 -0.14954E+06
 0.55149998E+02 -0.14142E+06
 0.55199997E+02 -0.14472E+06
 0.55249996E+02 -0.17647E+06
 0.55299995E+02 -0.25569E+06
 0.55349998E+02 -0.37063E+06
 0.55399998E+02 -0.49111E+06
 0.55449997E+02 -0.54851E+06
 0.55499996E+02 -0.53307E+06
 0.55549995E+02 -0.46834E+06
 0.55599998E+02 -0.39145E+06
 0.55649998E+02 -0.33305E+06
 0.55699997E+02 -0.29110E+06
 0.55749996E+02 -0.22841E+06
 0.55799995E+02 -0.11602E+06
 0.55849995E+02  0.39142E+05
 0.55899998E+02  0.18610E+06
 0.55949997E+02  0.28526E+06
 0.55999996E+02  0.35166E+06
 0.56049995E+02  0.37797E+06
 0.56099995E+02  0.36653E+06
 0.56149998E+02  0.30508E+06
 0.56199997E+02  0.19879E+06
 0.56249996E+02  0.85189E+05
 0.56299995E+02 -0.92813E+04
 0.56349995E+02 -0.96188E+05
 0.56399998E+02 -0.17911E+06
 0.56449997E+02 -0.26525E+06
 0.56499996E+02 -0.37423E+06
 0.56549995E+02 -0.47751E+06
 0.56599995E+02 -0.56991E+06
 0.56649998E+02 -0.62814E+06
 0.56699997E+02 -0.65968E+06
 0.56749996E+02 -0.70604E+06
 0.56799995E+02 -0.77173E+06
 0.56849995E+02 -0.81503E+06
 0.56899998E+02 -0.79158E+06
 0.56949997E+02 -0.68104E+06
 0.56999996E+02 -0.50412E+06
 0.57049995E+02 -0.32502E+06
 0.57099995E+02 -0.17294E+06
 0.57149998E+02 -0.78531E+05
 0.57199997E+02 -0.45852E+05
 0.57249996E+02 -0.32925E+05
 0.57299995E+02 -0.72601E+04
 0.57349995E+02  0.34892E+05
 0.57399998E+02  0.67466E+05
 0.57449997E+02  0.68874E+05
 0.57499996E+02  0.49410E+05
 0.57549995E+02  0.19493E+05
 0.57599995E+02 -0.19905E+05
 0.57649998E+02 -0.71862E+05
 0.57699997E+02 -0.15402E+06
 0.57749996E+02 -0.26910E+06
 0.57799995E+02 -0.39124E+06
 0.57849995E+02 -0.49623E+06
 0.57899998E+02 -0.58612E+06
 0.57949997E+02 -0.66084E+06
 0.57999996E+02 -0.72360E+06
 0.58049995E+02 -0.76665E+06
 0.58099995E+02 -0.77104E+06
 0.58149998E+02 -0.71611E+06
 0.58199997E+02 -0.61313E+06
 0.58249996E+02 -0.49008E+06
 0.58299995E+02 -0.33872E+06
 0.58349995E+02 -0.17673E+06
 0.58399998E+02 -0.26115E+05
 0.58449997E+02  0.88583E+05
 0.58499996E+02  0.13852E+06
 0.58549995E+02  0.11779E+06
 0.58599995E+02  0.64936E+05
 0.58649998E+02  0.21233E+05
 0.58699997E+02 -0.16036E+05
 0.58749996E+02 -0.40697E+05
 0.58799995E+02 -0.33897E+05
 0.58849995E+02  0.85450E+04
 0.58899998E+02  0.71523E+05
 0.58949997E+02  0.13299E+06
 0.58999996E+02  0.16710E+06
 0.59049995E+02  0.19027E+06
 0.59099995E+02  0.21295E+06
 0.59149998E+02  0.22617E+06
 0.59199997E+02  0.22345E+06
 0.59249996E+02  0.19489E+06
 0.59299995E+02  0.14935E+06
 0.59349995E+02  0.94212E+05
 0.59399998E+02  0.45417E+05
 0.59449997E+02  0.19810E+05
 0.59499996E+02  0.37991E+04
 0.59549995E+02 -0.30108E+05
 0.59599995E+02 -0.86224E+05
 0.59649998E+02 -0.16631E+06
 0.59699997E+02 -0.25107E+06
 0.59749996E+02 -0.30556E+06
 0.59799995E+02 -0.31326E+06
 0.59849995E+02 -0.27684E+06
 0.59899998E+02 -0.20154E+06
 0.59949997E+02 -0.11248E+06
 0.59999996E+02 -0.47602E+05
 0.60049995E+02 -0.32361E+04
 0.60099995E+02  0.33372E+05
 0.60149998E+02  0.55529E+05
 0.60199997E+02  0.50258E+05
 0.60249996E+02  0.26605E+05
 0.60299995E+02  0.13276E+05
 0.60349995E+02  0.13209E+05
 0.60399998E+02  0.89538E+04
 0.60449997E+02  0.59136E+04
 0.60499996E+02  0.11774E+05
 0.60549995E+02  0.22266E+05
 0.60599995E+02  0.31972E+05
 0.60649998E+02  0.36938E+05
 0.60699997E+02  0.33799E+05
 0.60749996E+02  0.15497E+05
 0.60799995E+02 -0.36744E+04
 0.60849995E+02 -0.15877E+05
 0.60899998E+02 -0.30659E+05
 0.60949997E+02 -0.30119E+05
 0.60999996E+02  0.31888E+04
 0.61049995E+02  0.56641E+05
 0.61099995E+02  0.11099E+06
 0.61149998E+02  0.14856E+06
 0.61199997E+02  0.16974E+06
 0.61249996E+02  0.18948E+06
 0.61299995E+02  0.20784E+06
 0.61349995E+02  0.20674E+06
 0.61399998E+02  0.16809E+06
 0.61449997E+02  0.95605E+05
 0.61499996E+02  0.18134E+05
 0.61549995E+02 -0.40483E+05
 0.61599995E+02 -0.75096E+05
 0.61649998E+02 -0.79677E+05
 0.61699997E+02 -0.54579E+05
 0.61749996E+02  0.11698E+05
 0.61799995E+02  0.11631E+06
 0.61849995E+02  0.23404E+06
 0.61899998E+02  0.35329E+06
 0.61949997E+02  0.45697E+06
 0.61999996E+02  0.51901E+06
 0.62049995E+02  0.53055E+06
 0.62099998E+02  0.50221E+06
 0.62149994E+02  0.45311E+06
 0.62199997E+02  0.40821E+06
 0.62249992E+02  0.38342E+06
 0.62299995E+02  0.37336E+06
 0.62349998E+02  0.36128E+06
 0.62399994E+02  0.34416E+06
 0.62449997E+02  0.31898E+06
 0.62499992E+02  0.29167E+06
 0.62549995E+02  0.27671E+06
 0.62599998E+02  0.27276E+06
 0.62649994E+02  0.27233E+06
 0.62699997E+02  0.26701E+06
 0.62749992E+02  0.24331E+06
 0.62799995E+02  0.18810E+06
 0.62849998E+02  0.10035E+06
 0.62899994E+02  0.34622E+03
 0.62949997E+02 -0.96137E+05
 0.62999992E+02 -0.19447E+06
 0.63049995E+02 -0.29054E+06
 0.63099998E+02 -0.36225E+06
 0.63149994E+02 -0.39014E+06
 0.63199997E+02 -0.37848E+06
 0.63249992E+02 -0.34601E+06
 0.63299995E+02 -0.30983E+06
 0.63349998E+02 -0.28361E+06
 0.63399994E+02 -0.27526E+06
 0.63449997E+02 -0.27939E+06
 0.63499992E+02 -0.27816E+06
 0.63549995E+02 -0.26448E+06
 0.63599998E+02 -0.23530E+06
 0.63649994E+02 -0.18674E+06
 0.63699997E+02 -0.12156E+06
 0.63749992E+02 -0.44197E+05
 0.63799995E+02  0.42390E+05
 0.63849998E+02  0.13713E+06
 0.63899994E+02  0.23218E+06
 0.63949997E+02  0.32349E+06
 0.63999992E+02  0.41211E+06
 0.64049995E+02  0.48309E+06
 0.64099998E+02  0.50389E+06
 0.64149994E+02  0.46092E+06
 0.64199997E+02  0.36616E+06
 0.64249992E+02  0.25151E+06
 0.64299995E+02  0.14259E+06
 0.64349998E+02  0.25516E+05
 0.64399994E+02 -0.10280E+06
 0.64449997E+02 -0.23391E+06
 0.64499992E+02 -0.35567E+06
 0.64549995E+02 -0.44402E+06
 0.64599998E+02 -0.47944E+06
 0.64649994E+02 -0.45449E+06
 0.64699997E+02 -0.37789E+06
 0.64749992E+02 -0.26886E+06
 0.64799995E+02 -0.15516E+06
 0.64849998E+02 -0.46490E+05
 0.64899994E+02  0.62591E+05
 0.64949997E+02  0.16556E+06
 0.64999992E+02  0.24116E+06
 0.65049995E+02  0.27620E+06
 0.65099998E+02  0.27065E+06
 0.65149994E+02  0.23782E+06
 0.65199997E+02  0.19439E+06
 0.65249992E+02  0.14420E+06
 0.65299995E+02  0.89397E+05
 0.65349998E+02  0.37669E+05
 0.65399994E+02 -0.39461E+04
 0.65449997E+02 -0.37127E+05
 0.65499992E+02 -0.68644E+05
 0.65549995E+02 -0.89919E+05
 0.65599998E+02 -0.80237E+05
 0.65649994E+02 -0.36637E+05
 0.65699997E+02  0.23710E+05
 0.65749992E+02  0.85173E+05
 0.65799995E+02  0.13440E+06
 0.65849998E+02  0.16011E+06
 0.65899994E+02  0.15942E+06
 0.65949997E+02  0.12893E+06
 0.65999992E+02  0.67638E+05
 0.66049995E+02 -0.22884E+05
 0.66099998E+02 -0.12883E+06
 0.66149994E+02 -0.22837E+06
 0.66199997E+02 -0.30642E+06
 0.66249992E+02 -0.35120E+06
 0.66299995E+02 -0.35536E+06
 0.66349998E+02 -0.31960E+06
 0.66399994E+02 -0.24830E+06
 0.66449997E+02 -0.15208E+06
 0.66499992E+02 -0.40013E+05
 0.66549995E+02  0.80582E+05
 0.66599998E+02  0.18806E+06
 0.66649994E+02  0.26986E+06
 0.66699997E+02  0.32602E+06
 0.66749992E+02  0.35033E+06
 0.66799995E+02  0.34645E+06
 0.66849998E+02  0.32089E+06
 0.66899994E+02  0.28664E+06
 0.66949997E+02  0.25654E+06
 0.66999992E+02  0.22509E+06
 0.67049995E+02  0.18073E+06
 0.67099998E+02  0.11397E+06
 0.67149994E+02  0.19570E+05
 0.67199997E+02 -0.90053E+05
 0.67249992E+02 -0.18566E+06
 0.67299995E+02 -0.24960E+06
 0.67349998E+02 -0.26619E+06
 0.67399994E+02 -0.22986E+06
 0.67449997E+02 -0.15099E+06
 0.67499992E+02 -0.53831E+05
 0.67549995E+02  0.33933E+05
 0.67599998E+02  0.98144E+05
 0.67649994E+02  0.13008E+06
 0.67699997E+02  0.13050E+06
 0.67749992E+02  0.10310E+06
 0.67799995E+02  0.54419E+05
 0.67849998E+02 -0.51622E+04
 0.67899994E+02 -0.65053E+05
 0.67949997E+02 -0.12215E+06
 0.67999992E+02 -0.16700E+06
 0.68049995E+02 -0.18559E+06
 0.68099998E+02 -0.17841E+06
 0.68149994E+02 -0.16295E+06
 0.68199997E+02 -0.16245E+06
 0.68249992E+02 -0.18251E+06
 0.68299995E+02 -0.20868E+06
 0.68349998E+02 -0.22428E+06
 0.68399994E+02 -0.23020E+06
 0.68449997E+02 -0.23255E+06
 0.68499992E+02 -0.23909E+06
 0.68549995E+02 -0.24532E+06
 0.68599998E+02 -0.24205E+06
 0.68649994E+02 -0.23138E+06
 0.68699997E+02 -0.21763E+06
 0.68749992E+02 -0.20610E+06
 0.68799995E+02 -0.19699E+06
 0.68849998E+02 -0.19553E+06
 0.68899994E+02 -0.20153E+06
 0.68949997E+02 -0.21354E+06
 0.68999992E+02 -0.24041E+06
 0.69049995E+02 -0.27631E+06
 0.69099998E+02 -0.30701E+06
 0.69149994E+02 -0.32492E+06
 0.69199997E+02 -0.32281E+06
 0.69249992E+02 -0.29955E+06
 0.69299995E+02 -0.25865E+06
 0.69349998E+02 -0.20491E+06
 0.69399994E+02 -0.14321E+06
 0.69449997E+02 -0.69472E+05
 0.69499992E+02  0.28596E+05
 0.69549995E+02  0.15435E+06
 0.69599998E+02  0.30126E+06
 0.69649994E+02  0.45457E+06
 0.69699997E+02  0.59139E+06
 0.69749992E+02  0.69492E+06
 0.69799995E+02  0.75834E+06
 0.69849998E+02  0.78858E+06
 0.69899994E+02  0.79531E+06
 0.69949997E+02  0.77665E+06
 0.69999992E+02  0.73546E+06
 0.70049995E+02  0.67246E+06
 0.70099998E+02  0.57993E+06
 0.70149994E+02  0.46602E+06
 0.70199997E+02  0.34686E+06
 0.70249992E+02  0.23584E+06
 0.70299995E+02  0.14334E+06
 0.70349998E+02  0.71098E+05
 0.70399994E+02  0.20128E+05
 0.70449997E+02 -0.17786E+05
 0.70499992E+02 -0.64357E+05
 0.70549995E+02 -0.13350E+06
 0.70599998E+02 -0.22323E+06
 0.70649994E+02 -0.31536E+06
 0.70699997E+02 -0.38184E+06
 0.70749992E+02 -0.40778E+06
 0.70799995E+02 -0.39463E+06
 0.70849998E+02 -0.36023E+06
 0.70899994E+02 -0.32983E+06
 0.70949997E+02 -0.30672E+06
 0.70999992E+02 -0.28449E+06
 0.71049995E+02 -0.25652E+06
 0.71099998E+02 -0.21357E+06
 0.71149994E+02 -0.16151E+06
 0.71199997E+02 -0.12131E+06
 0.71249992E+02 -0.10557E+06
 0.71299995E+02 -0.10989E+06
 0.71349998E+02 -0.11959E+06
 0.71399994E+02 -0.11773E+06
 0.71449997E+02 -0.96481E+05
 0.71499992E+02 -0.54060E+05
 0.71549995E+02  0.34253E+04
 0.71599998E+02  0.69206E+05
 0.71649994E+02  0.13664E+06
 0.71699997E+02  0.19594E+06
 0.71749992E+02  0.24149E+06
 0.71799995E+02  0.27329E+06
 0.71849998E+02  0.29694E+06
 0.71899994E+02  0.31417E+06
 0.71949997E+02  0.32320E+06
 0.71999992E+02  0.32523E+06
 0.72049995E+02  0.32393E+06
 0.72099998E+02  0.32041E+06
 0.72149994E+02  0.31047E+06
 0.72199997E+02  0.28899E+06
 0.72249992E+02  0.26016E+06
 0.72299995E+02  0.23001E+06
 0.72349998E+02  0.20162E+06
 0.72399994E+02  0.17842E+06
 0.72449997E+02  0.16463E+06
 0.72499992E+02  0.16297E+06
 0.72549995E+02  0.17302E+06
 0.72599998E+02  0.19123E+06
 0.72649994E+02  0.20373E+06
 0.72699997E+02  0.20238E+06
 0.72749992E+02  0.19088E+06
 0.72799995E+02  0.16985E+06
 0.72849998E+02  0.13703E+06
 0.72899994E+02  0.96886E+05
 0.72949997E+02  0.56761E+05
 0.72999992E+02  0.27545E+05
 0.73049995E+02  0.17822E+05
 0.73099998E+02  0.22324E+05
 0.73149994E+02  0.26431E+05
 0.73199997E+02  0.19056E+05
 0.73249992E+02  0.25913E+04
 0.73299995E+02 -0.18704E+05
 0.73349998E+02 -0.42008E+05
 0.73399994E+02 -0.74106E+05
 0.73449997E+02 -0.12298E+06
 0.73499992E+02 -0.18278E+06
 0.73549995E+02 -0.23919E+06
 0.73599998E+02 -0.27589E+06
 0.73649994E+02 -0.29329E+06
 0.73699997E+02 -0.30228E+06
 0.73749992E+02 -0.30800E+06
 0.73799995E+02 -0.31307E+06
 0.73849998E+02 -0.31499E+06
 0.73899994E+02 -0.30921E+06
 0.73949997E+02 -0.29508E+06
 0.73999992E+02 -0.27455E+06
 0.74049995E+02 -0.24819E+06
 0.74099998E+02 -0.21525E+06
 0.74149994E+02 -0.17649E+06
 0.74199997E+02 -0.13194E+06
 0.74249992E+02 -0.84728E+05
 0.74299995E+02 -0.38891E+05
 0.74349998E+02  0.42967E+04
 0.74399994E+02  0.44648E+05
 0.74449997E+02  0.79623E+05
 0.74499992E+02  0.10669E+06
 0.74549995E+02  0.12267E+06
 0.74599998E+02  0.12809E+06
 0.74649994E+02  0.12313E+06
 0.74699997E+02  0.10820E+06
 0.74749992E+02  0.86024E+05
 0.74799995E+02  0.56358E+05
 0.74849998E+02  0.23317E+05
 0.74899994E+02 -0.76311E+04
 0.74949997E+02 -0.28451E+05
 0.74999992E+02 -0.36554E+05
 0.75049995E+02 -0.34011E+05
 0.75099998E+02 -0.27394E+05
 0.75149994E+02 -0.32793E+05
 0.75199997E+02 -0.58541E+05
 0.75249992E+02 -0.98173E+05
 0.75299995E+02 -0.14048E+06
 0.75349998E+02 -0.18004E+06
 0.75399994E+02 -0.21300E+06
 0.75449997E+02 -0.23135E+06
 0.75499992E+02 -0.22843E+06
 0.75549995E+02 -0.20212E+06
 0.75599998E+02 -0.15936E+06
 0.75649994E+02 -0.10800E+06
 0.75699997E+02 -0.56931E+05
 0.75749992E+02 -0.11981E+05
 0.75799995E+02  0.33132E+05
 0.75849998E+02  0.81434E+05
 0.75899994E+02  0.13243E+06
 0.75949997E+02  0.18454E+06
 0.75999992E+02  0.23307E+06
 0.76049995E+02  0.27052E+06
 0.76099998E+02  0.28924E+06
 0.76149994E+02  0.28614E+06
 0.76199997E+02  0.25771E+06
 0.76249992E+02  0.20116E+06
 0.76299995E+02  0.12022E+06
 0.76349998E+02  0.24124E+05
 0.76399994E+02 -0.71548E+05
 0.76449997E+02 -0.15200E+06
 0.76499992E+02 -0.20728E+06
 0.76549995E+02 -0.23484E+06
 0.76599998E+02 -0.24067E+06
 0.76649994E+02 -0.23066E+06
 0.76699997E+02 -0.21225E+06
 0.76749992E+02 -0.19418E+06
 0.76799995E+02 -0.18169E+06
 0.76849998E+02 -0.17769E+06
 0.76899994E+02 -0.18204E+06
 0.76949997E+02 -0.19006E+06
 0.76999992E+02 -0.20066E+06
 0.77049995E+02 -0.21628E+06
 0.77099998E+02 -0.23824E+06
 0.77149994E+02 -0.26007E+06
 0.77199997E+02 -0.26704E+06
 0.77249992E+02 -0.25111E+06
 0.77299995E+02 -0.21600E+06
 0.77349998E+02 -0.16937E+06
 0.77399994E+02 -0.12232E+06
 0.77449997E+02 -0.84434E+05
 0.77499992E+02 -0.54787E+05
 0.77549995E+02 -0.34523E+05
 0.77599998E+02 -0.24449E+05
 0.77649994E+02 -0.19743E+05
 0.77699997E+02 -0.15902E+05
 0.77749992E+02 -0.68472E+04
 0.77799995E+02  0.10709E+05
 0.77849998E+02  0.30473E+05
 0.77899994E+02  0.43302E+05
 0.77949997E+02  0.47260E+05
 0.77999992E+02  0.47941E+05
 0.78049995E+02  0.54507E+05
 0.78099998E+02  0.73655E+05
 0.78149994E+02  0.10555E+06
 0.78199997E+02  0.14302E+06
 0.78249992E+02  0.17421E+06
 0.78299995E+02  0.18751E+06
 0.78349998E+02  0.18471E+06
 0.78399994E+02  0.17363E+06
 0.78449997E+02  0.15785E+06
 0.78499992E+02  0.13904E+06
 0.78549995E+02  0.11730E+06
 0.78599998E+02  0.98164E+05
 0.78649994E+02  0.87540E+05
 0.78699997E+02  0.89345E+05
 0.78749992E+02  0.10384E+06
 0.78799995E+02  0.12335E+06
 0.78849998E+02  0.13990E+06
 0.78899994E+02  0.15148E+06
 0.78949997E+02  0.15465E+06
 0.78999992E+02  0.14723E+06
 0.79049995E+02  0.12888E+06
 0.79099998E+02  0.98014E+05
 0.79149994E+02  0.52964E+05
 0.79199997E+02 -0.65436E+04
 0.79249992E+02 -0.75329E+05
 0.79299995E+02 -0.14211E+06
 0.79349998E+02 -0.19506E+06
 0.79399994E+02 -0.23187E+06
 0.79449997E+02 -0.25585E+06
 0.79499992E+02 -0.27043E+06
 0.79549995E+02 -0.27540E+06
 0.79599998E+02 -0.26872E+06
 0.79649994E+02 -0.24639E+06
 0.79699997E+02 -0.20843E+06
 0.79749992E+02 -0.16654E+06
 0.79799995E+02 -0.13418E+06
 0.79849998E+02 -0.11888E+06
 0.79899994E+02 -0.11881E+06
 0.79949997E+02 -0.12194E+06
 0.79999992E+02 -0.11364E+06
 0.80049995E+02 -0.92180E+05
 0.80099998E+02 -0.65675E+05
 0.80149994E+02 -0.41053E+05
 0.80199997E+02 -0.27406E+05
 0.80249992E+02 -0.29204E+05
 0.80299995E+02 -0.42321E+05
 0.80349998E+02 -0.61118E+05
 0.80399994E+02 -0.80477E+05
 0.80449997E+02 -0.97931E+05
 0.80499992E+02 -0.11396E+06
 0.80549995E+02 -0.13014E+06
 0.80599998E+02 -0.14607E+06
 0.80649994E+02 -0.15646E+06
 0.80699997E+02 -0.15255E+06
 0.80749992E+02 -0.13038E+06
 0.80799995E+02 -0.91535E+05
 0.80849998E+02 -0.41276E+05
 0.80899994E+02  0.13988E+05
 0.80949997E+02  0.71244E+05
 0.80999992E+02  0.12765E+06
 0.81049995E+02  0.17887E+06
 0.81099998E+02  0.21964E+06
 0.81149994E+02  0.24830E+06
 0.81199997E+02  0.26660E+06
 0.81249992E+02  0.27499E+06
 0.81299995E+02  0.27444E+06
 0.81349998E+02  0.26279E+06
 0.81399994E+02  0.23390E+06
 0.81449997E+02  0.18550E+06
 0.81499992E+02  0.12605E+06
 0.81549995E+02  0.70113E+05
 0.81599998E+02  0.28153E+05
 0.81649994E+02 -0.76437E+03
 0.81699997E+02 -0.23665E+05
 0.81749992E+02 -0.41515E+05
 0.81799995E+02 -0.49328E+05
 0.81849998E+02 -0.42346E+05
 0.81899994E+02 -0.19020E+05
 0.81949997E+02  0.17420E+05
 0.81999992E+02  0.57629E+05
 0.82049995E+02  0.94487E+05
 0.82099998E+02  0.12441E+06
 0.82149994E+02  0.14565E+06
 0.82199997E+02  0.15499E+06
 0.82249992E+02  0.15104E+06
 0.82299995E+02  0.13911E+06
 0.82349998E+02  0.12393E+06
 0.82399994E+02  0.10778E+06
 0.82449997E+02  0.90502E+05
 0.82499992E+02  0.70294E+05
 0.82549995E+02  0.47848E+05
 0.82599998E+02  0.30151E+05
 0.82649994E+02  0.24445E+05
 0.82699997E+02  0.32681E+05
 0.82749992E+02  0.52243E+05
 0.82799995E+02  0.77478E+05
 0.82849998E+02  0.10245E+06
 0.82899994E+02  0.12260E+06
 0.82949997E+02  0.13787E+06
 0.82999992E+02  0.15083E+06
 0.83049995E+02  0.16383E+06
 0.83099998E+02  0.17732E+06
 0.83149994E+02  0.19018E+06
 0.83199997E+02  0.20040E+06
 0.83249992E+02  0.20472E+06
 0.83299995E+02  0.19990E+06
 0.83349998E+02  0.18285E+06
 0.83399994E+02  0.15490E+06
 0.83449997E+02  0.12074E+06
 0.83499992E+02  0.85177E+05
 0.83549995E+02  0.52771E+05
 0.83599998E+02  0.26196E+05
 0.83649994E+02  0.51013E+04
 0.83699997E+02 -0.14335E+05
 0.83749992E+02 -0.34612E+05
 0.83799995E+02 -0.50618E+05
 0.83849998E+02 -0.57109E+05
 0.83899994E+02 -0.56006E+05
 0.83949997E+02 -0.51655E+05
 0.83999992E+02 -0.46749E+05
 0.84049995E+02 -0.43132E+05
 0.84099998E+02 -0.40902E+05
 0.84149994E+02 -0.35568E+05
 0.84199997E+02 -0.24707E+05
 0.84249992E+02 -0.79511E+04
 0.84299995E+02  0.11975E+05
 0.84349998E+02  0.29372E+05
 0.84399994E+02  0.39301E+05
 0.84449997E+02  0.38474E+05
 0.84499992E+02  0.29160E+05
 0.84549995E+02  0.16759E+05
 0.84599998E+02  0.52528E+04
 0.84649994E+02 -0.31375E+03
 0.84699997E+02  0.14506E+04
 0.84749992E+02  0.64735E+04
 0.84799995E+02  0.12781E+05
 0.84849998E+02  0.21482E+05
 0.84899994E+02  0.35281E+05
 0.84949997E+02  0.52550E+05
 0.84999992E+02  0.70212E+05
 0.85049995E+02  0.84004E+05
 0.85099998E+02  0.90664E+05
 0.85149994E+02  0.86812E+05
 0.85199997E+02  0.71025E+05
 0.85249992E+02  0.43772E+05
 0.85299995E+02  0.65307E+04
 0.85349998E+02 -0.33801E+05
 0.85399994E+02 -0.71633E+05
 0.85449997E+02 -0.98135E+05
 0.85499992E+02 -0.10618E+06
 0.85549995E+02 -0.97539E+05
 0.85599998E+02 -0.77456E+05
 0.85649994E+02 -0.51704E+05
 0.85699997E+02 -0.25456E+05
 0.85749992E+02 -0.10211E+04
 0.85799995E+02  0.19793E+05
 0.85849998E+02  0.33390E+05
 0.85899994E+02  0.40976E+05
 0.85949997E+02  0.49591E+05
 0.85999992E+02  0.64177E+05
 0.86049995E+02  0.82312E+05
 0.86099998E+02  0.95815E+05
 0.86149994E+02  0.96617E+05
 0.86199997E+02  0.83128E+05
 0.86249992E+02  0.60234E+05
 0.86299995E+02  0.31878E+05
 0.86349998E+02 -0.14519E+04
 0.86399994E+02 -0.38061E+05
 0.86449997E+02 -0.72738E+05
 0.86499992E+02 -0.10241E+06
 0.86549995E+02 -0.12328E+06
 0.86599998E+02 -0.13072E+06
 0.86649994E+02 -0.12638E+06
 0.86699997E+02 -0.11666E+06
 0.86749992E+02 -0.10929E+06
 0.86799995E+02 -0.10814E+06
 0.86849998E+02 -0.11313E+06
 0.86899994E+02 -0.12190E+06
 0.86949997E+02 -0.13122E+06
 0.86999992E+02 -0.13638E+06
 0.87049995E+02 -0.13263E+06
 0.87099998E+02 -0.11995E+06
 0.87149994E+02 -0.10258E+06
 0.87199997E+02 -0.87739E+05
 0.87249992E+02 -0.79682E+05
 0.87299995E+02 -0.80127E+05
 0.87349998E+02 -0.89283E+05
 0.87399994E+02 -0.10333E+06
 0.87449997E+02 -0.11506E+06
 0.87499992E+02 -0.11729E+06
 0.87549995E+02 -0.10792E+06
 0.87599991E+02 -0.89432E+05
 0.87649994E+02 -0.66832E+05
 0.87699997E+02 -0.45641E+05
 0.87749992E+02 -0.29603E+05
 0.87799995E+02 -0.20608E+05
 0.87849991E+02 -0.19538E+05
 0.87899994E+02 -0.23833E+05
 0.87949997E+02 -0.30107E+05
 0.87999992E+02 -0.36274E+05
 0.88049995E+02 -0.42532E+05
 0.88099991E+02 -0.50735E+05
 0.88149994E+02 -0.61148E+05
 0.88199997E+02 -0.70679E+05
 0.88249992E+02 -0.71320E+05
 0.88299995E+02 -0.56678E+05
 0.88349991E+02 -0.28207E+05
 0.88399994E+02  0.77985E+04
 0.88449997E+02  0.43198E+05
 0.88499992E+02  0.71288E+05
 0.88549995E+02  0.87663E+05
 0.88599991E+02  0.90731E+05
 0.88649994E+02  0.81992E+05
 0.88699997E+02  0.64368E+05
 0.88749992E+02  0.43988E+05
 0.88799995E+02  0.28176E+05
 0.88849991E+02  0.24358E+05
 0.88899994E+02  0.34824E+05
 0.88949997E+02  0.53209E+05
 0.88999992E+02  0.69027E+05
 0.89049995E+02  0.74811E+05
 0.89099991E+02  0.69688E+05
 0.89149994E+02  0.55890E+05
 0.89199997E+02  0.37795E+05
 0.89249992E+02  0.18314E+05
 0.89299995E+02 -0.12503E+04
 0.89349991E+02 -0.19403E+05
 0.89399994E+02 -0.36686E+05
 0.89449997E+02 -0.52000E+05
 0.89499992E+02 -0.62905E+05
 0.89549995E+02 -0.68803E+05
 0.89599991E+02 -0.67761E+05
 0.89649994E+02 -0.59368E+05
 0.89699997E+02 -0.46294E+05
 0.89749992E+02 -0.30945E+05
 0.89799995E+02 -0.14920E+05
 0.89849991E+02  0.20744E+04
 0.89899994E+02  0.20521E+05
 0.89949997E+02  0.36779E+05
 0.89999992E+02  0.47117E+05
 0.90049995E+02  0.51327E+05
 0.90099991E+02  0.49469E+05
 0.90149994E+02  0.40491E+05
 0.90199997E+02  0.20995E+05
 0.90249992E+02 -0.89503E+04
 0.90299995E+02 -0.45254E+05
 0.90349991E+02 -0.81382E+05
 0.90399994E+02 -0.11015E+06
 0.90449997E+02 -0.12927E+06
 0.90499992E+02 -0.13860E+06
 0.90549995E+02 -0.13865E+06
 0.90599991E+02 -0.12940E+06
 0.90649994E+02 -0.11107E+06
 0.90699997E+02 -0.85423E+05
 0.90749992E+02 -0.55149E+05
 0.90799995E+02 -0.24124E+05
 0.90849991E+02  0.41296E+04
 0.90899994E+02  0.28098E+05
 0.90949997E+02  0.48901E+05
 0.90999992E+02  0.68634E+05
 0.91049995E+02  0.89562E+05
 0.91099991E+02  0.11235E+06
 0.91149994E+02  0.13413E+06
 0.91199997E+02  0.15027E+06
 0.91249992E+02  0.15556E+06
 0.91299995E+02  0.14764E+06
 0.91349991E+02  0.12898E+06
 0.91399994E+02  0.10598E+06
 0.91449997E+02  0.82954E+05
 0.91499992E+02  0.60084E+05
 0.91549995E+02  0.38639E+05
 0.91599991E+02  0.21188E+05
 0.91649994E+02  0.85902E+04
 0.91699997E+02  0.72780E+03
 0.91749992E+02 -0.21457E+04
 0.91799995E+02 -0.36889E+03
 0.91849991E+02  0.46972E+04
 0.91899994E+02  0.11424E+05
 0.91949997E+02  0.20187E+05
 0.91999992E+02  0.29830E+05
 0.92049995E+02  0.37704E+05
 0.92099991E+02  0.43194E+05
 0.92149994E+02  0.45342E+05
 0.92199997E+02  0.43325E+05
 0.92249992E+02  0.38022E+05
 0.92299995E+02  0.32461E+05
 0.92349991E+02  0.30138E+05
 0.92399994E+02  0.30814E+05
 0.92449997E+02  0.31712E+05
 0.92499992E+02  0.30104E+05
 0.92549995E+02  0.24420E+05
 0.92599991E+02  0.12913E+05
 0.92649994E+02 -0.63089E+04
 0.92699997E+02 -0.32423E+05
 0.92749992E+02 -0.63010E+05
 0.92799995E+02 -0.94336E+05
 0.92849991E+02 -0.12090E+06
 0.92899994E+02 -0.13842E+06
 0.92949997E+02 -0.14588E+06
 0.92999992E+02 -0.14658E+06
 0.93049995E+02 -0.14687E+06
 0.93099991E+02 -0.15103E+06
 0.93149994E+02 -0.15654E+06
 0.93199997E+02 -0.15509E+06
 0.93249992E+02 -0.14222E+06
 0.93299995E+02 -0.11993E+06
 0.93349991E+02 -0.93928E+05
 0.93399994E+02 -0.72186E+05
 0.93449997E+02 -0.59317E+05
 0.93499992E+02 -0.54719E+05
 0.93549995E+02 -0.54159E+05
 0.93599991E+02 -0.52473E+05
 0.93649994E+02 -0.45506E+05
 0.93699997E+02 -0.27829E+05
 0.93749992E+02  0.37408E+04
 0.93799995E+02  0.46939E+05
 0.93849991E+02  0.96811E+05
 0.93899994E+02  0.14373E+06
 0.93949997E+02  0.17744E+06
 0.93999992E+02  0.19293E+06
 0.94049995E+02  0.18859E+06
 0.94099991E+02  0.16503E+06
 0.94149994E+02  0.12528E+06
 0.94199997E+02  0.76048E+05
 0.94249992E+02  0.26025E+05
 0.94299995E+02 -0.18052E+05
 0.94349991E+02 -0.52532E+05
 0.94399994E+02 -0.76969E+05
 0.94449997E+02 -0.92752E+05
 0.94499992E+02 -0.99600E+05
 0.94549995E+02 -0.97604E+05
 0.94599991E+02 -0.87534E+05
 0.94649994E+02 -0.71961E+05
 0.94699997E+02 -0.54215E+05
 0.94749992E+02 -0.35844E+05
 0.94799995E+02 -0.19760E+05
 0.94849991E+02 -0.68988E+04
 0.94899994E+02  0.17783E+04
 0.94949997E+02  0.29817E+04
 0.94999992E+02 -0.40639E+04
 0.95049995E+02 -0.16069E+05
 0.95099991E+02 -0.27637E+05
 0.95149994E+02 -0.34998E+05
 0.95199997E+02 -0.36885E+05
 0.95249992E+02 -0.32302E+05
 0.95299995E+02 -0.19897E+05
 0.95349991E+02  0.31445E+02
 0.95399994E+02  0.22468E+05
 0.95449997E+02  0.41214E+05
 0.95499992E+02  0.53657E+05
 0.95549995E+02  0.57666E+05
 0.95599991E+02  0.53114E+05
 0.95649994E+02  0.41901E+05
 0.95699997E+02  0.27374E+05
 0.95749992E+02  0.15282E+05
 0.95799995E+02  0.10570E+05
 0.95849991E+02  0.15629E+05
 0.95899994E+02  0.27509E+05
 0.95949997E+02  0.41244E+05
 0.95999992E+02  0.55770E+05
 0.96049995E+02  0.70853E+05
 0.96099991E+02  0.83985E+05
 0.96149994E+02  0.92038E+05
 0.96199997E+02  0.92250E+05
 0.96249992E+02  0.84215E+05
 0.96299995E+02  0.71278E+05
 0.96349991E+02  0.55418E+05
 0.96399994E+02  0.35981E+05
 0.96449997E+02  0.14705E+05
 0.96499992E+02 -0.54644E+04
 0.96549995E+02 -0.20505E+05
 0.96599991E+02 -0.26606E+05
 0.96649994E+02 -0.25193E+05
 0.96699997E+02 -0.21943E+05
 0.96749992E+02 -0.20171E+05
 0.96799995E+02 -0.18987E+05
 0.96849991E+02 -0.16212E+05
 0.96899994E+02 -0.10326E+05
 0.96949997E+02 -0.18102E+04
 0.96999992E+02  0.81211E+04
 0.97049995E+02  0.18237E+05
 0.97099991E+02  0.28225E+05
 0.97149994E+02  0.37880E+05
 0.97199997E+02  0.47262E+05
 0.97249992E+02  0.57573E+05
 0.97299995E+02  0.70418E+05
 0.97349991E+02  0.84956E+05
 0.97399994E+02  0.99111E+05
 0.97449997E+02  0.11095E+06
 0.97499992E+02  0.11854E+06
 0.97549995E+02  0.12248E+06
 0.97599991E+02  0.12454E+06
 0.97649994E+02  0.12638E+06
 0.97699997E+02  0.12775E+06
 0.97749992E+02  0.12876E+06
 0.97799995E+02  0.12908E+06
 0.97849991E+02  0.12679E+06
 0.97899994E+02  0.12025E+06
 0.97949997E+02  0.10861E+06
 0.97999992E+02  0.91778E+05
