-0.20000000E+01 -0.27189E+05
-0.19500000E+01 -0.26077E+05
-0.19000000E+01 -0.24844E+05
-0.18500000E+01 -0.23898E+05
-0.18000000E+01 -0.23219E+05
-0.17500000E+01 -0.22748E+05
-0.17000000E+01 -0.22063E+05
-0.16500001E+01 -0.20709E+05
-0.16000000E+01 -0.18304E+05
-0.15500000E+01 -0.15099E+05
-0.15000000E+01 -0.11570E+05
-0.14500000E+01 -0.78752E+04
-0.14000001E+01 -0.40215E+04
-0.13500000E+01 -0.17463E+03
-0.13000001E+01  0.34459E+04
-0.12500000E+01  0.68435E+04
-0.12000000E+01  0.99793E+04
-0.11500001E+01  0.12824E+05
-0.11000000E+01  0.15433E+05
-0.10500001E+01  0.17894E+05
-0.10000000E+01  0.20037E+05
-0.95000005E+00  0.21586E+05
-0.90000010E+00  0.22336E+05
-0.85000002E+00  0.22109E+05
-0.80000007E+00  0.21114E+05
-0.75000012E+00  0.19667E+05
-0.70000005E+00  0.17943E+05
-0.65000010E+00  0.16001E+05
-0.60000014E+00  0.14061E+05
-0.55000007E+00  0.12575E+05
-0.50000012E+00  0.11878E+05
-0.45000005E+00  0.12026E+05
-0.40000010E+00  0.12976E+05
-0.35000014E+00  0.14508E+05
-0.30000007E+00  0.16042E+05
-0.25000012E+00  0.17415E+05
-0.20000005E+00  0.18538E+05
-0.15000010E+00  0.19318E+05
-0.10000014E+00  0.19783E+05
-0.50000072E-01  0.20028E+05
-0.11920929E-06  0.20150E+05
 0.49999952E-01  0.20177E+05
 0.99999905E-01  0.19978E+05
 0.14999986E+00  0.19572E+05
 0.19999981E+00  0.19150E+05
 0.24999976E+00  0.18371E+05
 0.29999995E+00  0.17131E+05
 0.34999990E+00  0.15548E+05
 0.39999986E+00  0.13671E+05
 0.44999981E+00  0.11453E+05
 0.49999976E+00  0.91016E+04
 0.54999995E+00  0.70633E+04
 0.59999990E+00  0.52367E+04
 0.64999986E+00  0.37197E+04
 0.69999981E+00  0.25203E+04
 0.74999976E+00  0.15942E+04
 0.79999971E+00  0.78414E+03
 0.84999990E+00 -0.21729E+03
 0.89999986E+00 -0.14379E+04
 0.94999981E+00 -0.29514E+04
 0.99999976E+00 -0.46703E+04
 0.10499997E+01 -0.63954E+04
 0.10999999E+01 -0.77538E+04
 0.11499999E+01 -0.87612E+04
 0.11999998E+01 -0.96280E+04
 0.12499998E+01 -0.10584E+05
 0.12999997E+01 -0.11542E+05
 0.13499999E+01 -0.12408E+05
 0.13999999E+01 -0.13349E+05
 0.14499998E+01 -0.14479E+05
 0.14999998E+01 -0.15913E+05
 0.15499997E+01 -0.17693E+05
 0.15999999E+01 -0.19980E+05
 0.16499999E+01 -0.22514E+05
 0.16999998E+01 -0.24884E+05
 0.17499998E+01 -0.26698E+05
 0.17999997E+01 -0.27996E+05
 0.18499997E+01 -0.28785E+05
 0.18999999E+01 -0.28907E+05
 0.19499998E+01 -0.28271E+05
 0.19999998E+01 -0.26559E+05
 0.20499997E+01 -0.23794E+05
 0.20999999E+01 -0.19967E+05
 0.21499996E+01 -0.15528E+05
 0.21999998E+01 -0.11061E+05
 0.22499995E+01 -0.71841E+04
 0.22999997E+01 -0.43280E+04
 0.23499999E+01 -0.25063E+04
 0.23999996E+01 -0.16274E+04
 0.24499998E+01 -0.10101E+04
 0.24999995E+01 -0.16200E+03
 0.25499997E+01  0.10543E+04
 0.25999999E+01  0.25455E+04
 0.26499996E+01  0.43125E+04
 0.26999998E+01  0.61997E+04
 0.27499995E+01  0.81584E+04
 0.27999997E+01  0.10279E+05
 0.28499999E+01  0.12494E+05
 0.28999996E+01  0.14805E+05
 0.29499998E+01  0.17034E+05
 0.29999995E+01  0.19139E+05
 0.30499997E+01  0.21101E+05
 0.30999999E+01  0.23098E+05
 0.31499996E+01  0.24983E+05
 0.31999998E+01  0.26558E+05
 0.32499995E+01  0.27800E+05
 0.32999997E+01  0.28733E+05
 0.33499999E+01  0.29453E+05
 0.33999996E+01  0.29946E+05
 0.34499998E+01  0.30303E+05
 0.34999995E+01  0.30155E+05
 0.35499997E+01  0.29222E+05
 0.35999994E+01  0.27372E+05
 0.36499996E+01  0.24820E+05
 0.36999998E+01  0.22032E+05
 0.37499995E+01  0.19248E+05
 0.37999997E+01  0.16516E+05
 0.38499994E+01  0.13596E+05
 0.38999996E+01  0.10665E+05
 0.39499998E+01  0.79282E+04
 0.39999995E+01  0.53035E+04
 0.40499997E+01  0.23892E+04
 0.40999994E+01 -0.11206E+04
 0.41499996E+01 -0.49081E+04
 0.41999998E+01 -0.84034E+04
 0.42499995E+01 -0.11330E+05
 0.42999997E+01 -0.13843E+05
 0.43499994E+01 -0.15953E+05
 0.43999996E+01 -0.17650E+05
 0.44499998E+01 -0.18738E+05
 0.44999995E+01 -0.19095E+05
 0.45499997E+01 -0.18823E+05
 0.45999994E+01 -0.18191E+05
 0.46499996E+01 -0.17833E+05
 0.46999998E+01 -0.17803E+05
 0.47499995E+01 -0.17956E+05
 0.47999997E+01 -0.18185E+05
 0.48499994E+01 -0.18495E+05
 0.48999996E+01 -0.18791E+05
 0.49499998E+01 -0.18789E+05
 0.49999995E+01 -0.18511E+05
 0.50499997E+01 -0.18199E+05
 0.50999994E+01 -0.18373E+05
 0.51499996E+01 -0.19237E+05
 0.51999998E+01 -0.21036E+05
 0.52499995E+01 -0.23687E+05
 0.52999997E+01 -0.26683E+05
 0.53499994E+01 -0.29252E+05
 0.53999996E+01 -0.30824E+05
 0.54499993E+01 -0.31424E+05
 0.54999995E+01 -0.31242E+05
 0.55499997E+01 -0.30484E+05
 0.55999994E+01 -0.29117E+05
 0.56499996E+01 -0.27347E+05
 0.56999993E+01 -0.25377E+05
 0.57499995E+01 -0.23444E+05
 0.57999997E+01 -0.21518E+05
 0.58499994E+01 -0.19200E+05
 0.58999996E+01 -0.15987E+05
 0.59499993E+01 -0.11751E+05
 0.59999995E+01 -0.69918E+04
 0.60499992E+01 -0.23140E+04
 0.60999994E+01  0.16370E+04
 0.61499996E+01  0.48352E+04
 0.61999998E+01  0.76173E+04
 0.62499990E+01  0.10040E+05
 0.62999992E+01  0.11992E+05
 0.63499994E+01  0.13496E+05
 0.63999996E+01  0.14710E+05
 0.64499998E+01  0.15867E+05
 0.64999990E+01  0.17090E+05
 0.65499992E+01  0.18376E+05
 0.65999994E+01  0.19881E+05
 0.66499996E+01  0.21533E+05
 0.66999998E+01  0.23277E+05
 0.67499990E+01  0.25025E+05
 0.67999992E+01  0.26811E+05
 0.68499994E+01  0.28557E+05
 0.68999996E+01  0.30052E+05
 0.69499998E+01  0.31199E+05
 0.69999990E+01  0.31803E+05
 0.70499992E+01  0.31997E+05
 0.70999994E+01  0.31938E+05
 0.71499996E+01  0.31911E+05
 0.71999998E+01  0.31661E+05
 0.72499990E+01  0.30547E+05
 0.72999992E+01  0.28322E+05
 0.73499994E+01  0.25289E+05
 0.73999996E+01  0.22006E+05
 0.74499998E+01  0.18351E+05
 0.74999990E+01  0.14064E+05
 0.75499992E+01  0.91066E+04
 0.75999994E+01  0.37621E+04
 0.76499996E+01 -0.16580E+04
 0.76999998E+01 -0.67622E+04
 0.77499990E+01 -0.11037E+05
 0.77999992E+01 -0.14328E+05
 0.78499994E+01 -0.16665E+05
 0.78999996E+01 -0.18348E+05
 0.79499998E+01 -0.19622E+05
 0.79999990E+01 -0.20531E+05
 0.80499992E+01 -0.20864E+05
 0.80999994E+01 -0.20625E+05
 0.81499996E+01 -0.20235E+05
 0.81999998E+01 -0.20065E+05
 0.82499990E+01 -0.20211E+05
 0.82999992E+01 -0.20442E+05
 0.83499994E+01 -0.20493E+05
 0.83999996E+01 -0.19938E+05
 0.84499998E+01 -0.18683E+05
 0.84999990E+01 -0.16768E+05
 0.85499992E+01 -0.14387E+05
 0.85999994E+01 -0.11751E+05
 0.86499996E+01 -0.89298E+04
 0.86999998E+01 -0.59906E+04
 0.87499990E+01 -0.29524E+04
 0.87999992E+01  0.94704E+02
 0.88499994E+01  0.29634E+04
 0.88999996E+01  0.50665E+04
 0.89499998E+01  0.61566E+04
 0.89999990E+01  0.64636E+04
 0.90499992E+01  0.63621E+04
 0.90999994E+01  0.60553E+04
 0.91499996E+01  0.55513E+04
 0.91999989E+01  0.52075E+04
 0.92499990E+01  0.52317E+04
 0.92999992E+01  0.56244E+04
 0.93499994E+01  0.63210E+04
 0.93999996E+01  0.73750E+04
 0.94499989E+01  0.87161E+04
 0.94999990E+01  0.10203E+05
 0.95499992E+01  0.11730E+05
 0.95999994E+01  0.12936E+05
 0.96499996E+01  0.13856E+05
 0.96999989E+01  0.14513E+05
 0.97499990E+01  0.15083E+05
 0.97999992E+01  0.15831E+05
 0.98499994E+01  0.17043E+05
 0.98999996E+01  0.18550E+05
 0.99499989E+01  0.19996E+05
 0.99999990E+01  0.21380E+05
 0.10049999E+02  0.22604E+05
 0.10099999E+02  0.23556E+05
 0.10150000E+02  0.24005E+05
 0.10199999E+02  0.24154E+05
 0.10249999E+02  0.23939E+05
 0.10299999E+02  0.23436E+05
 0.10349999E+02  0.22706E+05
 0.10400000E+02  0.21650E+05
 0.10449999E+02  0.20054E+05
 0.10499999E+02  0.17575E+05
 0.10549999E+02  0.14364E+05
 0.10599999E+02  0.10481E+05
 0.10650000E+02  0.63020E+04
 0.10699999E+02  0.21446E+04
 0.10749999E+02 -0.16405E+04
 0.10799999E+02 -0.50735E+04
 0.10849999E+02 -0.82440E+04
 0.10900000E+02 -0.10974E+05
 0.10949999E+02 -0.13235E+05
 0.10999999E+02 -0.15062E+05
 0.11049999E+02 -0.16837E+05
 0.11099999E+02 -0.18715E+05
 0.11150000E+02 -0.20689E+05
 0.11199999E+02 -0.22501E+05
 0.11249999E+02 -0.24011E+05
 0.11299999E+02 -0.25154E+05
 0.11349999E+02 -0.25914E+05
 0.11400000E+02 -0.26464E+05
 0.11449999E+02 -0.26825E+05
 0.11499999E+02 -0.27103E+05
 0.11549999E+02 -0.27250E+05
 0.11599999E+02 -0.27366E+05
 0.11650000E+02 -0.27416E+05
 0.11699999E+02 -0.27363E+05
 0.11749999E+02 -0.27214E+05
 0.11799999E+02 -0.26782E+05
 0.11849999E+02 -0.25923E+05
 0.11900000E+02 -0.24620E+05
 0.11949999E+02 -0.22894E+05
 0.11999999E+02 -0.20546E+05
 0.12049999E+02 -0.17870E+05
 0.12099999E+02 -0.15252E+05
 0.12150000E+02 -0.12938E+05
 0.12199999E+02 -0.10953E+05
 0.12249999E+02 -0.93263E+04
 0.12299999E+02 -0.82745E+04
 0.12349999E+02 -0.76400E+04
 0.12400000E+02 -0.71896E+04
 0.12449999E+02 -0.64000E+04
 0.12499999E+02 -0.51622E+04
 0.12549999E+02 -0.34213E+04
 0.12599999E+02 -0.12499E+04
 0.12649999E+02  0.11278E+04
 0.12699999E+02  0.36387E+04
 0.12749999E+02  0.60648E+04
 0.12799999E+02  0.84925E+04
 0.12849999E+02  0.10718E+05
 0.12899999E+02  0.12720E+05
 0.12949999E+02  0.14285E+05
 0.12999999E+02  0.15449E+05
 0.13049999E+02  0.16514E+05
 0.13099999E+02  0.17821E+05
 0.13149999E+02  0.19587E+05
 0.13199999E+02  0.21435E+05
 0.13249999E+02  0.23017E+05
 0.13299999E+02  0.23781E+05
 0.13349999E+02  0.23447E+05
 0.13399999E+02  0.21930E+05
 0.13449999E+02  0.19424E+05
 0.13499999E+02  0.16230E+05
 0.13549999E+02  0.12756E+05
 0.13599999E+02  0.92856E+04
 0.13649999E+02  0.61326E+04
 0.13699999E+02  0.37466E+04
 0.13749999E+02  0.19436E+04
 0.13799999E+02  0.48597E+03
 0.13849999E+02 -0.75861E+03
 0.13899999E+02 -0.16040E+04
 0.13949999E+02 -0.20354E+04
 0.13999999E+02 -0.21453E+04
 0.14049999E+02 -0.19901E+04
 0.14099998E+02 -0.15892E+04
 0.14150000E+02 -0.84898E+03
 0.14199999E+02 -0.31250E+03
 0.14249998E+02 -0.20514E+03
 0.14299999E+02 -0.47840E+03
 0.14349998E+02 -0.85118E+03
 0.14400000E+02 -0.11123E+04
 0.14449999E+02 -0.12142E+04
 0.14499998E+02 -0.10588E+04
 0.14549999E+02 -0.87498E+03
 0.14599998E+02 -0.80500E+03
 0.14650000E+02 -0.91716E+03
 0.14699999E+02 -0.99442E+03
 0.14749998E+02 -0.12135E+04
 0.14799999E+02 -0.16522E+04
 0.14849998E+02 -0.23398E+04
 0.14900000E+02 -0.31625E+04
 0.14949999E+02 -0.38425E+04
 0.14999998E+02 -0.42879E+04
 0.15049999E+02 -0.44085E+04
 0.15099998E+02 -0.44855E+04
 0.15150000E+02 -0.45292E+04
 0.15199999E+02 -0.47796E+04
 0.15249998E+02 -0.53894E+04
 0.15299999E+02 -0.62357E+04
 0.15349998E+02 -0.70483E+04
 0.15400000E+02 -0.78289E+04
 0.15449999E+02 -0.86408E+04
 0.15499998E+02 -0.92897E+04
 0.15549999E+02 -0.96281E+04
 0.15599998E+02 -0.91401E+04
 0.15650000E+02 -0.77238E+04
 0.15699999E+02 -0.55384E+04
 0.15749998E+02 -0.29490E+04
 0.15799999E+02 -0.92819E+02
 0.15849998E+02  0.31208E+04
 0.15900000E+02  0.66305E+04
 0.15949999E+02  0.10274E+05
 0.15999998E+02  0.13408E+05
 0.16049999E+02  0.15720E+05
 0.16099998E+02  0.17095E+05
 0.16150000E+02  0.17674E+05
 0.16199999E+02  0.17478E+05
 0.16249998E+02  0.16351E+05
 0.16299999E+02  0.14419E+05
 0.16349998E+02  0.11857E+05
 0.16400000E+02  0.90491E+04
 0.16449999E+02  0.57847E+04
 0.16499998E+02  0.19626E+04
 0.16549999E+02 -0.23896E+04
 0.16599998E+02 -0.70187E+04
 0.16650000E+02 -0.11341E+05
 0.16699999E+02 -0.15031E+05
 0.16749998E+02 -0.17768E+05
 0.16799999E+02 -0.19486E+05
 0.16849998E+02 -0.20195E+05
 0.16900000E+02 -0.19907E+05
 0.16949999E+02 -0.18566E+05
 0.16999998E+02 -0.16429E+05
 0.17049999E+02 -0.13780E+05
 0.17099998E+02 -0.10698E+05
 0.17150000E+02 -0.73149E+04
 0.17199999E+02 -0.37844E+04
 0.17249998E+02 -0.23773E+03
 0.17299999E+02  0.32076E+04
 0.17349998E+02  0.63407E+04
 0.17400000E+02  0.89473E+04
 0.17449999E+02  0.10837E+05
 0.17499998E+02  0.12158E+05
 0.17549999E+02  0.13063E+05
 0.17599998E+02  0.13484E+05
 0.17650000E+02  0.13206E+05
 0.17699999E+02  0.12271E+05
 0.17749998E+02  0.10942E+05
 0.17799999E+02  0.91646E+04
 0.17849998E+02  0.72524E+04
 0.17900000E+02  0.54654E+04
 0.17949999E+02  0.38079E+04
 0.17999998E+02  0.20934E+04
 0.18049999E+02  0.16548E+03
 0.18099998E+02 -0.18911E+04
 0.18150000E+02 -0.41345E+04
 0.18199999E+02 -0.64863E+04
 0.18249998E+02 -0.89412E+04
 0.18299999E+02 -0.11201E+05
 0.18349998E+02 -0.13069E+05
 0.18400000E+02 -0.14317E+05
 0.18449999E+02 -0.15062E+05
 0.18499998E+02 -0.15350E+05
 0.18549999E+02 -0.15257E+05
 0.18599998E+02 -0.15102E+05
 0.18650000E+02 -0.14810E+05
 0.18699999E+02 -0.14409E+05
 0.18749998E+02 -0.13833E+05
 0.18799999E+02 -0.13391E+05
 0.18849998E+02 -0.12883E+05
 0.18900000E+02 -0.11969E+05
 0.18949999E+02 -0.10380E+05
 0.18999998E+02 -0.82027E+04
 0.19049999E+02 -0.57004E+04
 0.19099998E+02 -0.30576E+04
 0.19150000E+02 -0.61283E+03
 0.19199999E+02  0.15432E+04
 0.19249998E+02  0.32379E+04
 0.19299999E+02  0.46363E+04
 0.19349998E+02  0.57978E+04
 0.19400000E+02  0.68002E+04
 0.19449999E+02  0.78479E+04
 0.19499998E+02  0.90249E+04
 0.19549999E+02  0.10182E+05
 0.19599998E+02  0.10891E+05
 0.19650000E+02  0.11099E+05
 0.19699999E+02  0.10854E+05
 0.19749998E+02  0.10127E+05
 0.19799999E+02  0.93109E+04
 0.19849998E+02  0.91357E+04
 0.19900000E+02  0.10143E+05
 0.19949999E+02  0.11349E+05
 0.19999998E+02  0.10572E+05
 0.20049999E+02  0.57223E+04
 0.20099998E+02 -0.35099E+04
 0.20150000E+02 -0.14494E+05
 0.20199999E+02 -0.22846E+05
 0.20249998E+02 -0.25600E+05
 0.20299999E+02 -0.21652E+05
 0.20349998E+02 -0.13479E+05
 0.20399998E+02 -0.60556E+04
 0.20449999E+02 -0.42597E+04
 0.20499998E+02 -0.12321E+05
 0.20549999E+02 -0.29486E+05
 0.20599998E+02 -0.49284E+05
 0.20649998E+02 -0.60342E+05
 0.20699999E+02 -0.64836E+05
 0.20749998E+02 -0.65758E+05
 0.20799999E+02 -0.69636E+05
 0.20849998E+02 -0.94219E+05
 0.20899998E+02 -0.12871E+06
 0.20949999E+02 -0.14905E+06
 0.20999998E+02 -0.13816E+06
 0.21049999E+02 -0.12164E+06
 0.21099998E+02 -0.13465E+06
 0.21149998E+02 -0.15778E+06
 0.21199999E+02 -0.16145E+06
 0.21249998E+02 -0.13119E+06
 0.21299999E+02 -0.87361E+05
 0.21349998E+02 -0.65419E+05
 0.21399998E+02 -0.93141E+05
 0.21449999E+02 -0.13141E+06
 0.21499998E+02 -0.10136E+06
 0.21549999E+02 -0.14970E+05
 0.21599998E+02  0.17122E+05
 0.21649998E+02  0.88503E+04
 0.21699999E+02  0.39277E+05
 0.21749998E+02  0.80490E+05
 0.21799999E+02  0.11097E+06
 0.21849998E+02  0.14342E+06
 0.21899998E+02  0.10631E+06
 0.21949999E+02  0.16923E+05
 0.21999998E+02  0.18467E+05
 0.22049999E+02  0.17118E+06
 0.22099998E+02  0.22235E+06
 0.22149998E+02  0.65200E+05
 0.22199999E+02 -0.11749E+06
 0.22249998E+02 -0.17177E+06
 0.22299999E+02 -0.36624E+05
 0.22349998E+02  0.13768E+06
 0.22399998E+02  0.18579E+06
 0.22449999E+02 -0.11415E+05
 0.22499998E+02 -0.29694E+06
 0.22549999E+02 -0.22085E+06
 0.22599998E+02  0.56357E+05
 0.22649998E+02  0.16057E+05
 0.22699999E+02 -0.60889E+05
 0.22749998E+02  0.30554E+05
 0.22799999E+02 -0.10641E+06
 0.22849998E+02 -0.13146E+06
 0.22899998E+02 -0.15498E+05
 0.22949999E+02 -0.22897E+06
 0.22999998E+02 -0.98053E+05
 0.23049999E+02  0.19136E+06
 0.23099998E+02  0.13257E+06
 0.23149998E+02 -0.98048E+04
 0.23199999E+02 -0.36152E+05
 0.23249998E+02 -0.66931E+05
 0.23299999E+02 -0.22551E+06
 0.23349998E+02 -0.52615E+05
 0.23399998E+02  0.46532E+05
 0.23449999E+02 -0.16000E+06
 0.23499998E+02 -0.54587E+05
 0.23549999E+02 -0.36641E+05
 0.23599998E+02 -0.15352E+06
 0.23649998E+02 -0.33924E+05
 0.23699999E+02  0.12641E+06
 0.23749998E+02  0.29142E+06
 0.23799999E+02  0.28880E+06
 0.23849998E+02  0.23110E+05
 0.23899998E+02 -0.16365E+06
 0.23949999E+02 -0.52913E+05
 0.23999998E+02 -0.79480E+05
 0.24049999E+02 -0.20021E+06
 0.24099998E+02  0.62925E+04
 0.24149998E+02  0.43301E+05
 0.24199999E+02 -0.12350E+06
 0.24249998E+02 -0.62000E+05
 0.24299999E+02 -0.61115E+05
 0.24349998E+02  0.58399E+05
 0.24399998E+02  0.76877E+05
 0.24449999E+02  0.33691E+05
 0.24499998E+02  0.92588E+05
 0.24549999E+02 -0.17495E+06
 0.24599998E+02 -0.25097E+06
 0.24649998E+02 -0.17077E+06
 0.24699999E+02 -0.11316E+06
 0.24749998E+02 -0.29254E+06
 0.24799999E+02 -0.48157E+06
 0.24849998E+02 -0.17280E+06
 0.24899998E+02 -0.45588E+05
 0.24949999E+02 -0.10612E+05
 0.24999998E+02  0.10670E+06
 0.25049999E+02 -0.23910E+05
 0.25099998E+02 -0.17391E+05
 0.25149998E+02  0.13098E+06
 0.25199999E+02  0.59637E+05
 0.25249998E+02 -0.21934E+06
 0.25299999E+02 -0.28371E+06
 0.25349998E+02 -0.16838E+06
 0.25399998E+02 -0.84964E+05
 0.25449999E+02 -0.11052E+05
 0.25499998E+02 -0.15230E+05
 0.25549999E+02 -0.84711E+04
 0.25599998E+02 -0.21875E+05
 0.25649998E+02  0.16003E+06
 0.25699999E+02  0.27302E+06
 0.25749998E+02  0.18533E+06
 0.25799999E+02  0.24335E+05
 0.25849998E+02 -0.44448E+05
 0.25899998E+02 -0.12450E+06
 0.25949999E+02 -0.27520E+06
 0.25999998E+02 -0.18624E+06
 0.26049999E+02 -0.26539E+06
 0.26099998E+02 -0.26756E+06
 0.26149998E+02 -0.17924E+06
 0.26199999E+02 -0.19671E+06
 0.26249998E+02 -0.13847E+06
 0.26299999E+02 -0.20950E+05
 0.26349998E+02  0.11427E+06
 0.26399998E+02  0.28230E+06
 0.26449999E+02  0.23209E+06
 0.26499998E+02 -0.52076E+05
 0.26549999E+02 -0.16077E+06
 0.26599998E+02 -0.32160E+06
 0.26649998E+02 -0.36173E+06
 0.26699999E+02 -0.28726E+06
 0.26749998E+02 -0.20703E+06
 0.26799999E+02 -0.91406E+05
 0.26849998E+02  0.12114E+05
 0.26899998E+02 -0.17354E+05
 0.26949999E+02 -0.16317E+06
 0.26999998E+02 -0.63985E+05
 0.27049997E+02  0.12512E+06
 0.27099998E+02  0.20184E+06
 0.27149998E+02  0.13512E+06
 0.27199999E+02  0.16534E+06
 0.27249998E+02  0.15613E+06
 0.27299997E+02 -0.60297E+05
 0.27349998E+02 -0.16186E+06
 0.27399998E+02  0.94250E+05
 0.27449999E+02  0.34193E+06
 0.27499998E+02  0.29629E+06
 0.27549997E+02  0.14910E+06
 0.27599998E+02  0.16773E+06
 0.27649998E+02  0.16001E+06
 0.27699999E+02  0.18106E+04
 0.27749998E+02  0.94977E+04
 0.27799997E+02  0.38834E+05
 0.27849998E+02  0.11839E+06
 0.27899998E+02 -0.36539E+04
 0.27949999E+02 -0.26899E+06
 0.27999998E+02 -0.12309E+06
 0.28049997E+02 -0.16872E+05
 0.28099998E+02  0.19401E+05
 0.28149998E+02  0.12004E+06
 0.28199999E+02  0.12658E+06
 0.28249998E+02  0.18484E+06
 0.28299997E+02  0.24479E+06
 0.28349998E+02  0.38041E+06
 0.28399998E+02  0.27560E+06
 0.28449999E+02  0.86084E+05
 0.28499998E+02  0.10610E+06
 0.28549997E+02  0.18204E+06
 0.28599998E+02  0.20138E+06
 0.28649998E+02  0.25802E+06
 0.28699999E+02  0.31797E+06
 0.28749998E+02  0.36051E+06
 0.28799997E+02  0.49294E+06
 0.28849998E+02  0.53517E+06
 0.28899998E+02  0.43446E+06
 0.28949999E+02  0.27090E+06
 0.28999998E+02  0.28170E+06
 0.29049997E+02  0.22785E+06
 0.29099998E+02  0.19379E+06
 0.29149998E+02  0.23836E+06
 0.29199999E+02  0.10059E+06
 0.29249998E+02 -0.26419E+05
 0.29299997E+02  0.34586E+04
 0.29349998E+02  0.58349E+05
 0.29399998E+02  0.10604E+06
 0.29449999E+02  0.21424E+06
 0.29499998E+02  0.21223E+06
 0.29549997E+02  0.28953E+06
 0.29599998E+02  0.53081E+06
 0.29649998E+02  0.58234E+06
 0.29699999E+02  0.54436E+06
 0.29749998E+02  0.55783E+06
 0.29799997E+02  0.52676E+06
 0.29849998E+02  0.45223E+06
 0.29899998E+02  0.36021E+06
 0.29949999E+02  0.41173E+06
 0.29999998E+02  0.37327E+06
 0.30049999E+02  0.26368E+06
 0.30099998E+02  0.27336E+06
 0.30149998E+02  0.32631E+06
 0.30199997E+02  0.39957E+06
 0.30249996E+02  0.26301E+06
 0.30299999E+02  0.17873E+06
 0.30349998E+02  0.33627E+06
 0.30399998E+02  0.53754E+06
 0.30449997E+02  0.49041E+06
 0.30499996E+02  0.18753E+06
 0.30549999E+02 -0.81062E+05
 0.30599998E+02 -0.19912E+06
 0.30649998E+02 -0.12832E+06
 0.30699997E+02 -0.43359E+05
 0.30749996E+02 -0.61401E+05
 0.30799999E+02 -0.14244E+06
 0.30849998E+02 -0.24648E+06
 0.30899998E+02 -0.39726E+06
 0.30949997E+02 -0.43939E+06
 0.30999996E+02 -0.23902E+06
 0.31049999E+02 -0.15236E+06
 0.31099998E+02 -0.20211E+06
 0.31149998E+02 -0.22749E+06
 0.31199997E+02 -0.32619E+06
 0.31249996E+02 -0.43472E+06
 0.31299999E+02 -0.31600E+06
 0.31349998E+02 -0.26174E+05
 0.31399998E+02  0.26334E+06
 0.31449997E+02  0.45735E+06
 0.31499996E+02  0.39437E+06
 0.31549999E+02  0.32770E+06
 0.31599998E+02  0.29736E+06
 0.31649998E+02  0.28397E+06
 0.31699997E+02  0.23992E+06
 0.31749996E+02  0.10851E+06
 0.31799999E+02 -0.59936E+05
 0.31849998E+02 -0.20423E+06
 0.31899998E+02 -0.14456E+06
 0.31949997E+02 -0.35472E+05
 0.31999996E+02  0.22669E+05
 0.32049999E+02  0.34900E+05
 0.32099998E+02  0.10560E+05
 0.32149998E+02 -0.14995E+06
 0.32199997E+02 -0.40016E+06
 0.32249996E+02 -0.44449E+06
 0.32299999E+02 -0.51224E+06
 0.32349998E+02 -0.69212E+06
 0.32399998E+02 -0.68987E+06
 0.32449997E+02 -0.52164E+06
 0.32499996E+02 -0.54778E+06
 0.32549999E+02 -0.88442E+06
 0.32599998E+02 -0.10925E+07
 0.32649998E+02 -0.95786E+06
 0.32699997E+02 -0.80073E+06
 0.32749996E+02 -0.66018E+06
 0.32799999E+02 -0.41942E+06
 0.32849998E+02 -0.46266E+06
 0.32899998E+02 -0.69550E+06
 0.32949997E+02 -0.91680E+06
 0.32999996E+02 -0.10167E+07
 0.33049999E+02 -0.92430E+06
 0.33099998E+02 -0.88520E+06
 0.33149998E+02 -0.95922E+06
 0.33199997E+02 -0.10091E+07
 0.33249996E+02 -0.85763E+06
 0.33299999E+02 -0.71520E+06
 0.33349998E+02 -0.65179E+06
 0.33399998E+02 -0.56384E+06
 0.33449997E+02 -0.48188E+06
 0.33499996E+02 -0.38684E+06
 0.33549999E+02 -0.37224E+06
 0.33599998E+02 -0.49723E+06
 0.33649998E+02 -0.74279E+06
 0.33699997E+02 -0.99716E+06
 0.33749996E+02 -0.11332E+07
 0.33799999E+02 -0.11532E+07
 0.33849998E+02 -0.10158E+07
 0.33899998E+02 -0.65229E+06
 0.33949997E+02 -0.69934E+05
 0.33999996E+02  0.52057E+06
 0.34049999E+02  0.10376E+07
 0.34099998E+02  0.14248E+07
 0.34149998E+02  0.15329E+07
 0.34199997E+02  0.14003E+07
 0.34249996E+02  0.10279E+07
 0.34299999E+02  0.55939E+06
 0.34349998E+02  0.91959E+05
 0.34399998E+02 -0.20946E+06
 0.34449997E+02 -0.43303E+05
 0.34499996E+02  0.36533E+06
 0.34549999E+02  0.72980E+06
 0.34599998E+02  0.10494E+07
 0.34649998E+02  0.12988E+07
 0.34699997E+02  0.14240E+07
 0.34749996E+02  0.13167E+07
 0.34799999E+02  0.95238E+06
 0.34849998E+02  0.38639E+06
 0.34899998E+02 -0.23255E+06
 0.34949997E+02 -0.74222E+06
 0.34999996E+02 -0.98524E+06
 0.35049999E+02 -0.91497E+06
 0.35099998E+02 -0.70004E+06
 0.35149998E+02 -0.50304E+06
 0.35199997E+02 -0.47802E+06
 0.35249996E+02 -0.43785E+06
 0.35299999E+02 -0.54397E+06
 0.35349998E+02 -0.84392E+06
 0.35399998E+02 -0.92984E+06
 0.35449997E+02 -0.80950E+06
 0.35499996E+02 -0.53578E+06
 0.35549999E+02 -0.16898E+06
 0.35599998E+02  0.93345E+05
 0.35649998E+02  0.11923E+06
 0.35699997E+02  0.18350E+05
 0.35749996E+02 -0.14788E+06
 0.35799999E+02 -0.61458E+06
 0.35849998E+02 -0.82192E+06
 0.35899998E+02 -0.40748E+06
 0.35949997E+02 -0.27320E+06
 0.35999996E+02 -0.49420E+06
 0.36049999E+02 -0.89468E+06
 0.36099998E+02 -0.13063E+07
 0.36149998E+02 -0.13355E+07
 0.36199997E+02 -0.11929E+07
 0.36249996E+02 -0.95824E+06
 0.36299999E+02 -0.79032E+06
 0.36349998E+02 -0.81165E+06
 0.36399998E+02 -0.72134E+06
 0.36449997E+02 -0.24860E+06
 0.36499996E+02  0.29798E+06
 0.36549999E+02  0.45766E+06
 0.36599998E+02  0.27441E+06
 0.36649998E+02  0.42158E+05
 0.36699997E+02  0.15153E+05
 0.36749996E+02  0.13642E+06
 0.36799999E+02  0.26385E+06
 0.36849998E+02  0.55715E+06
 0.36899998E+02  0.11134E+07
 0.36949997E+02  0.16004E+07
 0.36999996E+02  0.18130E+07
 0.37049999E+02  0.19900E+07
 0.37099998E+02  0.23077E+07
 0.37149998E+02  0.26148E+07
 0.37199997E+02  0.26699E+07
 0.37249996E+02  0.24347E+07
 0.37299999E+02  0.19873E+07
 0.37349998E+02  0.14722E+07
 0.37399998E+02  0.11066E+07
 0.37449997E+02  0.96741E+06
 0.37499996E+02  0.10405E+07
 0.37549999E+02  0.11133E+07
 0.37599998E+02  0.10366E+07
 0.37649998E+02  0.89307E+06
 0.37699997E+02  0.82467E+06
 0.37749996E+02  0.73116E+06
 0.37799999E+02  0.55974E+06
 0.37849998E+02  0.24942E+06
 0.37899998E+02 -0.21823E+06
 0.37949997E+02 -0.57163E+06
 0.37999996E+02 -0.86591E+06
 0.38049999E+02 -0.92445E+06
 0.38099998E+02 -0.71848E+06
 0.38149998E+02 -0.42008E+06
 0.38199997E+02 -0.15622E+06
 0.38249996E+02 -0.15237E+06
 0.38299999E+02 -0.45481E+06
 0.38349998E+02 -0.93634E+06
 0.38399998E+02 -0.11787E+07
 0.38449997E+02 -0.11992E+07
 0.38499996E+02 -0.11476E+07
 0.38549999E+02 -0.10160E+07
 0.38599998E+02 -0.82240E+06
 0.38649998E+02 -0.42672E+06
 0.38699997E+02  0.10791E+06
 0.38749996E+02  0.45551E+06
 0.38799999E+02  0.50333E+06
 0.38849998E+02  0.47018E+06
 0.38899998E+02  0.41281E+06
 0.38949997E+02  0.42115E+06
 0.38999996E+02  0.55704E+06
 0.39049999E+02  0.71062E+06
 0.39099998E+02  0.73600E+06
 0.39149998E+02  0.67953E+06
 0.39199997E+02  0.69293E+06
 0.39249996E+02  0.62377E+06
 0.39299999E+02  0.47931E+06
 0.39349998E+02  0.41938E+06
 0.39399998E+02  0.34877E+06
 0.39449997E+02  0.16070E+06
 0.39499996E+02  0.14378E+06
 0.39549999E+02  0.45040E+06
 0.39599998E+02  0.78477E+06
 0.39649998E+02  0.94301E+06
 0.39699997E+02  0.98290E+06
 0.39749996E+02  0.89339E+06
 0.39799999E+02  0.75885E+06
 0.39849998E+02  0.81983E+06
 0.39899998E+02  0.11273E+07
 0.39949997E+02  0.14587E+07
 0.39999996E+02  0.14653E+07
 0.40049999E+02  0.11874E+07
 0.40099998E+02  0.93074E+06
 0.40149998E+02  0.95297E+06
 0.40199997E+02  0.11611E+07
 0.40249996E+02  0.12221E+07
 0.40299999E+02  0.11828E+07
 0.40349998E+02  0.10939E+07
 0.40399998E+02  0.10232E+07
 0.40449997E+02  0.91339E+06
 0.40499996E+02  0.77301E+06
 0.40549999E+02  0.70805E+06
 0.40599998E+02  0.39961E+06
 0.40649998E+02 -0.20916E+06
 0.40699997E+02 -0.75955E+06
 0.40749996E+02 -0.10112E+07
 0.40799999E+02 -0.10494E+07
 0.40849998E+02 -0.93280E+06
 0.40899998E+02 -0.61264E+06
 0.40949997E+02 -0.22215E+06
 0.40999996E+02  0.77258E+05
 0.41049999E+02  0.28715E+06
 0.41099998E+02  0.32433E+06
 0.41149998E+02  0.31634E+06
 0.41199997E+02  0.29023E+06
 0.41249996E+02  0.23291E+06
 0.41299999E+02  0.28033E+06
 0.41349998E+02  0.40057E+06
 0.41399998E+02  0.50234E+06
 0.41449997E+02  0.48180E+06
 0.41499996E+02  0.38107E+06
 0.41549999E+02  0.25682E+06
 0.41599998E+02  0.14996E+06
 0.41649998E+02  0.26077E+05
 0.41699997E+02 -0.14540E+06
 0.41749996E+02 -0.21169E+06
 0.41799999E+02 -0.93535E+05
 0.41849998E+02 -0.21638E+05
 0.41899998E+02 -0.31073E+06
 0.41949997E+02 -0.84151E+06
 0.41999996E+02 -0.11084E+07
 0.42049999E+02 -0.11042E+07
 0.42099998E+02 -0.11295E+07
 0.42149998E+02 -0.10866E+07
 0.42199997E+02 -0.10047E+07
 0.42249996E+02 -0.10202E+07
 0.42299999E+02 -0.89239E+06
 0.42349998E+02 -0.46647E+06
 0.42399998E+02  0.12270E+06
 0.42449997E+02  0.65136E+06
 0.42499996E+02  0.10078E+07
 0.42549999E+02  0.11057E+07
 0.42599998E+02  0.93247E+06
 0.42649998E+02  0.59882E+06
 0.42699997E+02  0.29854E+06
 0.42749996E+02  0.12458E+06
 0.42799995E+02 -0.39604E+05
 0.42849998E+02 -0.24454E+06
 0.42899998E+02 -0.45461E+06
 0.42949997E+02 -0.59783E+06
 0.42999996E+02 -0.56828E+06
 0.43049995E+02 -0.36302E+06
 0.43099998E+02 -0.12917E+06
 0.43149998E+02  0.10730E+06
 0.43199997E+02  0.25704E+06
 0.43249996E+02  0.16174E+06
 0.43299995E+02 -0.13158E+06
 0.43349998E+02 -0.56798E+06
 0.43399998E+02 -0.10334E+07
 0.43449997E+02 -0.14546E+07
 0.43499996E+02 -0.17298E+07
 0.43549995E+02 -0.17999E+07
 0.43599998E+02 -0.18085E+07
 0.43649998E+02 -0.16103E+07
 0.43699997E+02 -0.12136E+07
 0.43749996E+02 -0.90732E+06
 0.43799995E+02 -0.86883E+06
 0.43849998E+02 -0.10484E+07
 0.43899998E+02 -0.11144E+07
 0.43949997E+02 -0.83980E+06
 0.43999996E+02 -0.39665E+06
 0.44049995E+02  0.87928E+04
 0.44099998E+02  0.32607E+06
 0.44149998E+02  0.53151E+06
 0.44199997E+02  0.66418E+06
 0.44249996E+02  0.73032E+06
 0.44299995E+02  0.64276E+06
 0.44349998E+02  0.38312E+06
 0.44399998E+02 -0.38209E+05
 0.44449997E+02 -0.61799E+06
 0.44499996E+02 -0.11242E+07
 0.44549995E+02 -0.13598E+07
 0.44599998E+02 -0.14162E+07
 0.44649998E+02 -0.14169E+07
 0.44699997E+02 -0.13812E+07
 0.44749996E+02 -0.12359E+07
 0.44799995E+02 -0.96882E+06
 0.44849998E+02 -0.77859E+06
 0.44899998E+02 -0.70475E+06
 0.44949997E+02 -0.65459E+06
 0.44999996E+02 -0.64433E+06
 0.45049995E+02 -0.56673E+06
 0.45099998E+02 -0.27278E+06
 0.45149998E+02  0.15397E+06
 0.45199997E+02  0.49762E+06
 0.45249996E+02  0.61428E+06
 0.45299995E+02  0.55814E+06
 0.45349998E+02  0.38454E+06
 0.45399998E+02  0.16795E+06
 0.45449997E+02  0.10815E+06
 0.45499996E+02  0.23125E+06
 0.45549995E+02  0.35279E+06
 0.45599998E+02  0.36787E+06
 0.45649998E+02  0.34087E+06
 0.45699997E+02  0.37775E+06
 0.45749996E+02  0.49614E+06
 0.45799995E+02  0.47247E+06
 0.45849998E+02  0.18043E+06
 0.45899998E+02 -0.24180E+06
 0.45949997E+02 -0.56426E+06
 0.45999996E+02 -0.70858E+06
 0.46049995E+02 -0.67136E+06
 0.46099998E+02 -0.48657E+06
 0.46149998E+02 -0.29305E+06
 0.46199997E+02 -0.90721E+05
 0.46249996E+02  0.38127E+05
 0.46299995E+02 -0.30219E+05
 0.46349998E+02 -0.21791E+06
 0.46399998E+02 -0.36167E+06
 0.46449997E+02 -0.47625E+06
 0.46499996E+02 -0.57599E+06
 0.46549995E+02 -0.51535E+06
 0.46599998E+02 -0.22574E+06
 0.46649998E+02  0.18649E+06
 0.46699997E+02  0.56571E+06
 0.46749996E+02  0.75507E+06
 0.46799995E+02  0.66452E+06
 0.46849998E+02  0.43940E+06
 0.46899998E+02  0.21970E+06
 0.46949997E+02  0.79222E+05
 0.46999996E+02  0.32352E+05
 0.47049995E+02  0.88862E+05
 0.47099998E+02  0.26372E+06
 0.47149998E+02  0.49162E+06
 0.47199997E+02  0.76484E+06
 0.47249996E+02  0.98956E+06
 0.47299995E+02  0.97388E+06
 0.47349998E+02  0.68760E+06
 0.47399998E+02  0.21241E+06
 0.47449997E+02 -0.32014E+06
 0.47499996E+02 -0.76698E+06
 0.47549995E+02 -0.10192E+07
 0.47599998E+02 -0.10399E+07
 0.47649998E+02 -0.93465E+06
 0.47699997E+02 -0.78573E+06
 0.47749996E+02 -0.57058E+06
 0.47799995E+02 -0.30963E+06
 0.47849998E+02 -0.73150E+05
 0.47899998E+02  0.75067E+05
 0.47949997E+02  0.18751E+06
 0.47999996E+02  0.26925E+06
 0.48049995E+02  0.33256E+06
 0.48099998E+02  0.46756E+06
 0.48149998E+02  0.67294E+06
 0.48199997E+02  0.89776E+06
 0.48249996E+02  0.10204E+07
 0.48299995E+02  0.10621E+07
 0.48349998E+02  0.10961E+07
 0.48399998E+02  0.11837E+07
 0.48449997E+02  0.12712E+07
 0.48499996E+02  0.11830E+07
 0.48549995E+02  0.10455E+07
 0.48599998E+02  0.98402E+06
 0.48649998E+02  0.99091E+06
 0.48699997E+02  0.11825E+07
 0.48749996E+02  0.14816E+07
 0.48799995E+02  0.16934E+07
 0.48849998E+02  0.17076E+07
 0.48899998E+02  0.15470E+07
 0.48949997E+02  0.12168E+07
 0.48999996E+02  0.73985E+06
 0.49049995E+02  0.31709E+06
 0.49099998E+02 -0.12152E+05
 0.49149998E+02 -0.25635E+06
 0.49199997E+02 -0.34299E+06
 0.49249996E+02 -0.32882E+06
 0.49299995E+02 -0.24325E+06
 0.49349998E+02 -0.92278E+05
 0.49399998E+02 -0.14054E+05
 0.49449997E+02 -0.12346E+05
 0.49499996E+02 -0.62509E+05
 0.49549995E+02 -0.48416E+05
 0.49599998E+02  0.56816E+05
 0.49649998E+02  0.13679E+06
 0.49699997E+02  0.15340E+06
 0.49749996E+02  0.84527E+05
 0.49799995E+02  0.19243E+05
 0.49849998E+02 -0.29283E+05
 0.49899998E+02 -0.83201E+05
 0.49949997E+02 -0.19495E+06
 0.49999996E+02 -0.41441E+06
 0.50049995E+02 -0.64727E+06
 0.50099998E+02 -0.76270E+06
 0.50149998E+02 -0.72461E+06
 0.50199997E+02 -0.55950E+06
 0.50249996E+02 -0.33551E+06
 0.50299995E+02 -0.11664E+06
 0.50349998E+02  0.39195E+05
 0.50399998E+02  0.18753E+06
 0.50449997E+02  0.44342E+06
 0.50499996E+02  0.69543E+06
 0.50549995E+02  0.83369E+06
 0.50599998E+02  0.82250E+06
 0.50649998E+02  0.67394E+06
 0.50699997E+02  0.46959E+06
 0.50749996E+02  0.24079E+06
 0.50799995E+02  0.55197E+03
 0.50849998E+02 -0.24558E+06
 0.50899998E+02 -0.43233E+06
 0.50949997E+02 -0.54740E+06
 0.50999996E+02 -0.62360E+06
 0.51049995E+02 -0.61415E+06
 0.51099998E+02 -0.43428E+06
 0.51149998E+02 -0.15589E+06
 0.51199997E+02  0.10959E+06
 0.51249996E+02  0.26747E+06
 0.51299995E+02  0.20360E+06
 0.51349998E+02  0.85715E+05
 0.51399998E+02  0.46815E+05
 0.51449997E+02 -0.21006E+04
 0.51499996E+02 -0.15645E+06
 0.51549995E+02 -0.38136E+06
 0.51599998E+02 -0.58358E+06
 0.51649998E+02 -0.72992E+06
 0.51699997E+02 -0.75873E+06
 0.51749996E+02 -0.61168E+06
 0.51799995E+02 -0.38129E+06
 0.51849998E+02 -0.18988E+06
 0.51899998E+02 -0.28248E+05
 0.51949997E+02  0.88233E+05
 0.51999996E+02  0.11609E+06
 0.52049995E+02  0.65621E+05
 0.52099998E+02 -0.50808E+05
 0.52149998E+02 -0.23309E+06
 0.52199997E+02 -0.39292E+06
 0.52249996E+02 -0.43720E+06
 0.52299995E+02 -0.41454E+06
 0.52349998E+02 -0.28814E+06
 0.52399998E+02 -0.80737E+05
 0.52449997E+02  0.99006E+05
 0.52499996E+02  0.25596E+06
 0.52549995E+02  0.42550E+06
 0.52599998E+02  0.54005E+06
 0.52649998E+02  0.48704E+06
 0.52699997E+02  0.30267E+06
 0.52749996E+02  0.70756E+05
 0.52799995E+02 -0.99229E+05
 0.52849998E+02 -0.12157E+06
 0.52899998E+02 -0.29821E+05
 0.52949997E+02  0.11100E+06
 0.52999996E+02  0.27176E+06
 0.53049995E+02  0.37429E+06
 0.53099998E+02  0.36215E+06
 0.53149998E+02  0.27113E+06
 0.53199997E+02  0.15965E+06
 0.53249996E+02  0.21371E+05
 0.53299995E+02 -0.10006E+06
 0.53349998E+02 -0.13711E+06
 0.53399998E+02 -0.13358E+06
 0.53449997E+02 -0.14827E+06
 0.53499996E+02 -0.19616E+06
 0.53549995E+02 -0.24792E+06
 0.53599998E+02 -0.33032E+06
 0.53649998E+02 -0.37814E+06
 0.53699997E+02 -0.33323E+06
 0.53749996E+02 -0.28836E+06
 0.53799995E+02 -0.25679E+06
 0.53849998E+02 -0.19033E+06
 0.53899998E+02 -0.10596E+06
 0.53949997E+02 -0.28966E+05
 0.53999996E+02  0.10031E+06
 0.54049995E+02  0.28905E+06
 0.54099998E+02  0.43410E+06
 0.54149998E+02  0.52222E+06
 0.54199997E+02  0.56464E+06
 0.54249996E+02  0.50482E+06
 0.54299995E+02  0.31338E+06
 0.54349998E+02  0.16166E+05
 0.54399998E+02 -0.28518E+06
 0.54449997E+02 -0.49334E+06
 0.54499996E+02 -0.56856E+06
 0.54549995E+02 -0.56830E+06
 0.54599998E+02 -0.53305E+06
 0.54649998E+02 -0.45013E+06
 0.54699997E+02 -0.32300E+06
 0.54749996E+02 -0.15820E+06
 0.54799995E+02  0.58519E+05
 0.54849998E+02  0.33215E+06
 0.54899998E+02  0.58339E+06
 0.54949997E+02  0.76058E+06
 0.54999996E+02  0.81957E+06
 0.55049995E+02  0.77280E+06
 0.55099998E+02  0.71152E+06
 0.55149998E+02  0.62661E+06
 0.55199997E+02  0.49026E+06
 0.55249996E+02  0.35191E+06
 0.55299995E+02  0.24309E+06
 0.55349998E+02  0.20663E+06
 0.55399998E+02  0.27411E+06
 0.55449997E+02  0.41015E+06
 0.55499996E+02  0.56358E+06
 0.55549995E+02  0.69234E+06
 0.55599998E+02  0.73971E+06
 0.55649998E+02  0.66788E+06
 0.55699997E+02  0.50885E+06
 0.55749996E+02  0.27103E+06
 0.55799995E+02 -0.96838E+03
 0.55849995E+02 -0.22596E+06
 0.55899998E+02 -0.37412E+06
 0.55949997E+02 -0.43944E+06
 0.55999996E+02 -0.46382E+06
 0.56049995E+02 -0.49448E+06
 0.56099995E+02 -0.51800E+06
 0.56149998E+02 -0.51818E+06
 0.56199997E+02 -0.49900E+06
 0.56249996E+02 -0.44188E+06
 0.56299995E+02 -0.33762E+06
 0.56349995E+02 -0.26026E+06
 0.56399998E+02 -0.23902E+06
 0.56449997E+02 -0.22846E+06
 0.56499996E+02 -0.21443E+06
 0.56549995E+02 -0.17946E+06
 0.56599995E+02 -0.13512E+06
 0.56649998E+02 -0.10533E+06
 0.56699997E+02 -0.83406E+05
 0.56749996E+02 -0.60323E+05
 0.56799995E+02 -0.41840E+05
 0.56849995E+02 -0.28769E+05
 0.56899998E+02 -0.50095E+05
 0.56949997E+02 -0.60114E+05
 0.56999996E+02 -0.15170E+04
 0.57049995E+02  0.15818E+06
 0.57099995E+02  0.40919E+06
 0.57149998E+02  0.60316E+06
 0.57199997E+02  0.66285E+06
 0.57249996E+02  0.63664E+06
 0.57299995E+02  0.57913E+06
 0.57349995E+02  0.50906E+06
 0.57399998E+02  0.41637E+06
 0.57449997E+02  0.30701E+06
 0.57499996E+02  0.21651E+06
 0.57549995E+02  0.16327E+06
 0.57599995E+02  0.18958E+06
 0.57649998E+02  0.27190E+06
 0.57699997E+02  0.35794E+06
 0.57749996E+02  0.40643E+06
 0.57799995E+02  0.35536E+06
 0.57849995E+02  0.22162E+06
 0.57899998E+02  0.67691E+05
 0.57949997E+02 -0.33011E+05
 0.57999996E+02 -0.81197E+05
 0.58049995E+02 -0.11905E+06
 0.58099995E+02 -0.11719E+06
 0.58149998E+02 -0.54524E+05
 0.58199997E+02  0.27808E+05
 0.58249996E+02  0.11026E+06
 0.58299995E+02  0.19827E+06
 0.58349995E+02  0.23063E+06
 0.58399998E+02  0.12209E+06
 0.58449997E+02 -0.84818E+05
 0.58499996E+02 -0.28188E+06
 0.58549995E+02 -0.44231E+06
 0.58599995E+02 -0.53821E+06
 0.58649998E+02 -0.53990E+06
 0.58699997E+02 -0.44888E+06
 0.58749996E+02 -0.30490E+06
 0.58799995E+02 -0.17692E+06
 0.58849995E+02 -0.10453E+06
 0.58899998E+02 -0.66733E+05
 0.58949997E+02 -0.33563E+05
 0.58999996E+02 -0.98059E+04
 0.59049995E+02 -0.12484E+05
 0.59099995E+02  0.16242E+05
 0.59149998E+02  0.15019E+06
 0.59199997E+02  0.31958E+06
 0.59249996E+02  0.46366E+06
 0.59299995E+02  0.57030E+06
 0.59349995E+02  0.63313E+06
 0.59399998E+02  0.62288E+06
 0.59449997E+02  0.54374E+06
 0.59499996E+02  0.42738E+06
 0.59549995E+02  0.29441E+06
 0.59599995E+02  0.16995E+06
 0.59649998E+02  0.68791E+05
 0.59699997E+02  0.21443E+05
 0.59749996E+02  0.29930E+04
 0.59799995E+02 -0.36678E+05
 0.59849995E+02 -0.12533E+06
 0.59899998E+02 -0.23122E+06
 0.59949997E+02 -0.33652E+06
 0.59999996E+02 -0.43401E+06
 0.60049995E+02 -0.49860E+06
 0.60099995E+02 -0.53088E+06
 0.60149998E+02 -0.49414E+06
 0.60199997E+02 -0.39408E+06
 0.60249996E+02 -0.29578E+06
 0.60299995E+02 -0.23914E+06
 0.60349995E+02 -0.23563E+06
 0.60399998E+02 -0.26385E+06
 0.60449997E+02 -0.26726E+06
 0.60499996E+02 -0.20215E+06
 0.60549995E+02 -0.62095E+05
 0.60599995E+02  0.15304E+06
 0.60649998E+02  0.40924E+06
 0.60699997E+02  0.60920E+06
 0.60749996E+02  0.70237E+06
 0.60799995E+02  0.65885E+06
 0.60849995E+02  0.46828E+06
 0.60899998E+02  0.19497E+06
 0.60949997E+02 -0.71405E+05
 0.60999996E+02 -0.23905E+06
 0.61049995E+02 -0.30625E+06
 0.61099995E+02 -0.29519E+06
 0.61149998E+02 -0.22460E+06
 0.61199997E+02 -0.12910E+06
 0.61249996E+02 -0.63604E+04
 0.61299995E+02  0.11054E+06
 0.61349995E+02  0.17688E+06
 0.61399998E+02  0.18730E+06
 0.61449997E+02  0.12552E+06
 0.61499996E+02  0.17799E+05
 0.61549995E+02 -0.70946E+05
 0.61599995E+02 -0.12272E+06
 0.61649998E+02 -0.13988E+06
 0.61699997E+02 -0.12078E+06
 0.61749996E+02 -0.55763E+05
 0.61799995E+02  0.67143E+05
 0.61849995E+02  0.23492E+06
 0.61899998E+02  0.39386E+06
 0.61949997E+02  0.47181E+06
 0.61999996E+02  0.46858E+06
 0.62049995E+02  0.41259E+06
 0.62099998E+02  0.31344E+06
 0.62149994E+02  0.20579E+06
 0.62199997E+02  0.13661E+06
 0.62249992E+02  0.13251E+06
 0.62299995E+02  0.17575E+06
 0.62349998E+02  0.24185E+06
 0.62399994E+02  0.32318E+06
 0.62449997E+02  0.40651E+06
 0.62499992E+02  0.46928E+06
 0.62549995E+02  0.49096E+06
 0.62599998E+02  0.43283E+06
 0.62649994E+02  0.29099E+06
 0.62699997E+02  0.11212E+06
 0.62749992E+02 -0.43122E+05
 0.62799995E+02 -0.13237E+06
 0.62849998E+02 -0.13255E+06
 0.62899994E+02 -0.46702E+05
 0.62949997E+02  0.55044E+05
 0.62999992E+02  0.94981E+05
 0.63049995E+02  0.52667E+05
 0.63099998E+02 -0.16337E+05
 0.63149994E+02 -0.67182E+05
 0.63199997E+02 -0.67863E+05
 0.63249992E+02  0.97021E+04
 0.63299995E+02  0.12194E+06
 0.63349998E+02  0.20681E+06
 0.63399994E+02  0.21769E+06
 0.63449997E+02  0.15288E+06
 0.63499992E+02  0.69365E+05
 0.63549995E+02 -0.12113E+05
 0.63599998E+02 -0.10723E+06
 0.63649994E+02 -0.19772E+06
 0.63699997E+02 -0.26444E+06
 0.63749992E+02 -0.27311E+06
 0.63799995E+02 -0.20595E+06
 0.63849998E+02 -0.95666E+05
 0.63899994E+02  0.40959E+04
 0.63949997E+02  0.57768E+05
 0.63999992E+02  0.75369E+05
 0.64049995E+02  0.59040E+05
 0.64099998E+02  0.49670E+04
 0.64149994E+02 -0.56759E+05
 0.64199997E+02 -0.86096E+05
 0.64249992E+02 -0.58377E+05
 0.64299995E+02  0.26121E+05
 0.64349998E+02  0.14814E+06
 0.64399994E+02  0.29683E+06
 0.64449997E+02  0.43268E+06
 0.64499992E+02  0.52341E+06
 0.64549995E+02  0.58364E+06
 0.64599998E+02  0.62558E+06
 0.64649994E+02  0.63697E+06
 0.64699997E+02  0.59770E+06
 0.64749992E+02  0.50246E+06
 0.64799995E+02  0.37960E+06
 0.64849998E+02  0.27078E+06
 0.64899994E+02  0.18072E+06
 0.64949997E+02  0.85330E+05
 0.64999992E+02 -0.41093E+05
 0.65049995E+02 -0.18940E+06
 0.65099998E+02 -0.32079E+06
 0.65149994E+02 -0.42396E+06
 0.65199997E+02 -0.49289E+06
 0.65249992E+02 -0.52347E+06
 0.65299995E+02 -0.50631E+06
 0.65349998E+02 -0.42741E+06
 0.65399994E+02 -0.29500E+06
 0.65449997E+02 -0.14328E+06
 0.65499992E+02 -0.16986E+05
 0.65549995E+02  0.59715E+05
 0.65599998E+02  0.68466E+05
 0.65649994E+02  0.37766E+05
 0.65699997E+02  0.75665E+04
 0.65749992E+02 -0.19739E+05
 0.65799995E+02 -0.42711E+05
 0.65849998E+02 -0.39918E+05
 0.65899994E+02  0.18310E+05
 0.65949997E+02  0.11511E+06
 0.65999992E+02  0.17355E+06
 0.66049995E+02  0.16194E+06
 0.66099998E+02  0.97982E+05
 0.66149994E+02 -0.83892E+04
 0.66199997E+02 -0.12629E+06
 0.66249992E+02 -0.22065E+06
 0.66299995E+02 -0.27262E+06
 0.66349998E+02 -0.28752E+06
 0.66399994E+02 -0.27767E+06
 0.66449997E+02 -0.23865E+06
 0.66499992E+02 -0.16349E+06
 0.66549995E+02 -0.10118E+06
 0.66599998E+02 -0.90300E+05
 0.66649994E+02 -0.10700E+06
 0.66699997E+02 -0.14002E+06
 0.66749992E+02 -0.19186E+06
 0.66799995E+02 -0.24938E+06
 0.66849998E+02 -0.27181E+06
 0.66899994E+02 -0.25270E+06
 0.66949997E+02 -0.21165E+06
 0.66999992E+02 -0.14857E+06
 0.67049995E+02 -0.81621E+05
 0.67099998E+02 -0.48601E+05
 0.67149994E+02 -0.70700E+05
 0.67199997E+02 -0.13086E+06
 0.67249992E+02 -0.20983E+06
 0.67299995E+02 -0.28704E+06
 0.67349998E+02 -0.33615E+06
 0.67399994E+02 -0.33880E+06
 0.67449997E+02 -0.27228E+06
 0.67499992E+02 -0.14214E+06
 0.67549995E+02  0.67350E+04
 0.67599998E+02  0.14229E+06
 0.67649994E+02  0.25895E+06
 0.67699997E+02  0.35392E+06
 0.67749992E+02  0.43532E+06
 0.67799995E+02  0.50496E+06
 0.67849998E+02  0.54672E+06
 0.67899994E+02  0.55825E+06
 0.67949997E+02  0.54358E+06
 0.67999992E+02  0.52087E+06
 0.68049995E+02  0.51618E+06
 0.68099998E+02  0.53750E+06
 0.68149994E+02  0.57663E+06
 0.68199997E+02  0.60340E+06
 0.68249992E+02  0.59854E+06
 0.68299995E+02  0.57439E+06
 0.68349998E+02  0.54436E+06
 0.68399994E+02  0.52050E+06
 0.68449997E+02  0.51235E+06
 0.68499992E+02  0.54186E+06
 0.68549995E+02  0.61018E+06
 0.68599998E+02  0.67903E+06
 0.68649994E+02  0.71899E+06
 0.68699997E+02  0.71823E+06
 0.68749992E+02  0.68932E+06
 0.68799995E+02  0.62230E+06
 0.68849998E+02  0.52201E+06
 0.68899994E+02  0.41385E+06
 0.68949997E+02  0.29016E+06
 0.68999992E+02  0.14560E+06
 0.69049995E+02  0.10930E+05
 0.69099998E+02 -0.80420E+05
 0.69149994E+02 -0.14807E+06
 0.69199997E+02 -0.20337E+06
 0.69249992E+02 -0.25413E+06
 0.69299995E+02 -0.30813E+06
 0.69349998E+02 -0.35605E+06
 0.69399994E+02 -0.39220E+06
 0.69449997E+02 -0.42712E+06
 0.69499992E+02 -0.45668E+06
 0.69549995E+02 -0.46328E+06
 0.69599998E+02 -0.46818E+06
 0.69649994E+02 -0.47845E+06
 0.69699997E+02 -0.46802E+06
 0.69749992E+02 -0.41959E+06
 0.69799995E+02 -0.33475E+06
 0.69849998E+02 -0.22582E+06
 0.69899994E+02 -0.10463E+06
 0.69949997E+02  0.26938E+05
 0.69999992E+02  0.14277E+06
 0.70049995E+02  0.23150E+06
 0.70099998E+02  0.31101E+06
 0.70149994E+02  0.39456E+06
 0.70199997E+02  0.47351E+06
 0.70249992E+02  0.51596E+06
 0.70299995E+02  0.50599E+06
 0.70349998E+02  0.43659E+06
 0.70399994E+02  0.30891E+06
 0.70449997E+02  0.15394E+06
 0.70499992E+02  0.14718E+05
 0.70549995E+02 -0.98037E+05
 0.70599998E+02 -0.19095E+06
 0.70649994E+02 -0.24485E+06
 0.70699997E+02 -0.23500E+06
 0.70749992E+02 -0.15761E+06
 0.70799995E+02 -0.45679E+05
 0.70849998E+02  0.54244E+05
 0.70899994E+02  0.12477E+06
 0.70949997E+02  0.16921E+06
 0.70999992E+02  0.21287E+06
 0.71049995E+02  0.26825E+06
 0.71099998E+02  0.32227E+06
 0.71149994E+02  0.36185E+06
 0.71199997E+02  0.37636E+06
 0.71249992E+02  0.37134E+06
 0.71299995E+02  0.33316E+06
 0.71349998E+02  0.25300E+06
 0.71399994E+02  0.14309E+06
 0.71449997E+02  0.16437E+05
 0.71499992E+02 -0.10019E+06
 0.71549995E+02 -0.18424E+06
 0.71599998E+02 -0.21690E+06
 0.71649994E+02 -0.22815E+06
 0.71699997E+02 -0.24844E+06
 0.71749992E+02 -0.27062E+06
 0.71799995E+02 -0.29367E+06
 0.71849998E+02 -0.31567E+06
 0.71899994E+02 -0.34802E+06
 0.71949997E+02 -0.39247E+06
 0.71999992E+02 -0.43322E+06
 0.72049995E+02 -0.44994E+06
 0.72099998E+02 -0.43548E+06
 0.72149994E+02 -0.39462E+06
 0.72199997E+02 -0.34103E+06
 0.72249992E+02 -0.29211E+06
 0.72299995E+02 -0.24596E+06
 0.72349998E+02 -0.20140E+06
 0.72399994E+02 -0.15068E+06
 0.72449997E+02 -0.89201E+05
 0.72499992E+02 -0.28137E+05
 0.72549995E+02  0.26402E+05
 0.72599998E+02  0.66980E+05
 0.72649994E+02  0.82993E+05
 0.72699997E+02  0.88271E+05
 0.72749992E+02  0.10180E+06
 0.72799995E+02  0.13219E+06
 0.72849998E+02  0.17453E+06
 0.72899994E+02  0.20872E+06
 0.72949997E+02  0.23036E+06
 0.72999992E+02  0.24010E+06
 0.73049995E+02  0.24037E+06
 0.73099998E+02  0.23362E+06
 0.73149994E+02  0.22301E+06
 0.73199997E+02  0.21851E+06
 0.73249992E+02  0.22996E+06
 0.73299995E+02  0.24848E+06
 0.73349998E+02  0.25029E+06
 0.73399994E+02  0.23604E+06
 0.73449997E+02  0.22509E+06
 0.73499992E+02  0.22743E+06
 0.73549995E+02  0.24211E+06
 0.73599998E+02  0.26475E+06
 0.73649994E+02  0.28035E+06
 0.73699997E+02  0.28145E+06
 0.73749992E+02  0.27631E+06
 0.73799995E+02  0.26412E+06
 0.73849998E+02  0.22618E+06
 0.73899994E+02  0.14900E+06
 0.73949997E+02  0.35308E+05
 0.73999992E+02 -0.91239E+05
 0.74049995E+02 -0.20158E+06
 0.74099998E+02 -0.27691E+06
 0.74149994E+02 -0.29347E+06
 0.74199997E+02 -0.25836E+06
 0.74249992E+02 -0.20172E+06
 0.74299995E+02 -0.14546E+06
 0.74349998E+02 -0.10955E+06
 0.74399994E+02 -0.92290E+05
 0.74449997E+02 -0.72798E+05
 0.74499992E+02 -0.29363E+05
 0.74549995E+02  0.52414E+05
 0.74599998E+02  0.15764E+06
 0.74649994E+02  0.25710E+06
 0.74699997E+02  0.31847E+06
 0.74749992E+02  0.32151E+06
 0.74799995E+02  0.28110E+06
 0.74849998E+02  0.21991E+06
 0.74899994E+02  0.15733E+06
 0.74949997E+02  0.10415E+06
 0.74999992E+02  0.55731E+05
 0.75049995E+02  0.12225E+05
 0.75099998E+02 -0.10132E+05
 0.75149994E+02 -0.12997E+05
 0.75199997E+02 -0.24227E+05
 0.75249992E+02 -0.68764E+05
 0.75299995E+02 -0.15279E+06
 0.75349998E+02 -0.26573E+06
 0.75399994E+02 -0.38340E+06
 0.75449997E+02 -0.48397E+06
 0.75499992E+02 -0.55386E+06
 0.75549995E+02 -0.58311E+06
 0.75599998E+02 -0.57287E+06
 0.75649994E+02 -0.53138E+06
 0.75699997E+02 -0.46055E+06
 0.75749992E+02 -0.36055E+06
 0.75799995E+02 -0.25403E+06
 0.75849998E+02 -0.15757E+06
 0.75899994E+02 -0.77837E+05
 0.75949997E+02 -0.12365E+05
 0.75999992E+02  0.48077E+05
 0.76049995E+02  0.10549E+06
 0.76099998E+02  0.16172E+06
 0.76149994E+02  0.20629E+06
 0.76199997E+02  0.22688E+06
 0.76249992E+02  0.21352E+06
 0.76299995E+02  0.16509E+06
 0.76349998E+02  0.97149E+05
 0.76399994E+02  0.29634E+05
 0.76449997E+02 -0.24411E+05
 0.76499992E+02 -0.54818E+05
 0.76549995E+02 -0.52067E+05
 0.76599998E+02 -0.58600E+04
 0.76649994E+02  0.91505E+05
 0.76699997E+02  0.21830E+06
 0.76749992E+02  0.33619E+06
 0.76799995E+02  0.42428E+06
 0.76849998E+02  0.47422E+06
 0.76899994E+02  0.47754E+06
 0.76949997E+02  0.44007E+06
 0.76999992E+02  0.38055E+06
 0.77049995E+02  0.31354E+06
 0.77099998E+02  0.25600E+06
 0.77149994E+02  0.22209E+06
 0.77199997E+02  0.21882E+06
 0.77249992E+02  0.24475E+06
 0.77299995E+02  0.28244E+06
 0.77349998E+02  0.30272E+06
 0.77399994E+02  0.28619E+06
 0.77449997E+02  0.24457E+06
 0.77499992E+02  0.19330E+06
 0.77549995E+02  0.13628E+06
 0.77599998E+02  0.76584E+05
 0.77649994E+02  0.16605E+05
 0.77699997E+02 -0.32724E+05
 0.77749992E+02 -0.49813E+05
 0.77799995E+02 -0.28730E+05
 0.77849998E+02  0.24484E+04
 0.77899994E+02  0.28611E+05
 0.77949997E+02  0.52274E+05
 0.77999992E+02  0.70745E+05
 0.78049995E+02  0.83654E+05
 0.78099998E+02  0.81416E+05
 0.78149994E+02  0.57826E+05
 0.78199997E+02  0.13497E+05
 0.78249992E+02 -0.43457E+05
 0.78299995E+02 -0.98354E+05
 0.78349998E+02 -0.14399E+06
 0.78399994E+02 -0.16949E+06
 0.78449997E+02 -0.15927E+06
 0.78499992E+02 -0.10285E+06
 0.78549995E+02 -0.65382E+04
 0.78599998E+02  0.10660E+06
 0.78649994E+02  0.20943E+06
 0.78699997E+02  0.28191E+06
 0.78749992E+02  0.32220E+06
 0.78799995E+02  0.33532E+06
 0.78849998E+02  0.32890E+06
 0.78899994E+02  0.31689E+06
 0.78949997E+02  0.30719E+06
 0.78999992E+02  0.30382E+06
 0.79049995E+02  0.30558E+06
 0.79099998E+02  0.30726E+06
 0.79149994E+02  0.30661E+06
 0.79199997E+02  0.29696E+06
 0.79249992E+02  0.26771E+06
 0.79299995E+02  0.21058E+06
 0.79349998E+02  0.13297E+06
 0.79399994E+02  0.51836E+05
 0.79449997E+02 -0.22371E+05
 0.79499992E+02 -0.75397E+05
 0.79549995E+02 -0.10488E+06
 0.79599998E+02 -0.11593E+06
 0.79649994E+02 -0.11071E+06
 0.79699997E+02 -0.98372E+05
 0.79749992E+02 -0.73091E+05
 0.79799995E+02 -0.29121E+05
 0.79849998E+02  0.24913E+05
 0.79899994E+02  0.84412E+05
 0.79949997E+02  0.13410E+06
 0.79999992E+02  0.15227E+06
 0.80049995E+02  0.14385E+06
 0.80099998E+02  0.12383E+06
 0.80149994E+02  0.10083E+06
 0.80199997E+02  0.79856E+05
 0.80249992E+02  0.60729E+05
 0.80299995E+02  0.38527E+05
 0.80349998E+02  0.89096E+04
 0.80399994E+02 -0.20652E+05
 0.80449997E+02 -0.46356E+05
 0.80499992E+02 -0.75004E+05
 0.80549995E+02 -0.96830E+05
 0.80599998E+02 -0.10307E+06
 0.80649994E+02 -0.95680E+05
 0.80699997E+02 -0.78600E+05
 0.80749992E+02 -0.64445E+05
 0.80799995E+02 -0.59919E+05
 0.80849998E+02 -0.68681E+05
 0.80899994E+02 -0.89099E+05
 0.80949997E+02 -0.11575E+06
 0.80999992E+02 -0.13961E+06
 0.81049995E+02 -0.15251E+06
 0.81099998E+02 -0.14715E+06
 0.81149994E+02 -0.12547E+06
 0.81199997E+02 -0.10254E+06
 0.81249992E+02 -0.87905E+05
 0.81299995E+02 -0.80441E+05
 0.81349998E+02 -0.64908E+05
 0.81399994E+02 -0.34679E+05
 0.81449997E+02  0.55768E+04
 0.81499992E+02  0.57859E+05
 0.81549995E+02  0.12173E+06
 0.81599998E+02  0.18577E+06
 0.81649994E+02  0.23662E+06
 0.81699997E+02  0.26415E+06
 0.81749992E+02  0.27012E+06
 0.81799995E+02  0.26569E+06
 0.81849998E+02  0.26286E+06
 0.81899994E+02  0.26669E+06
 0.81949997E+02  0.26367E+06
 0.81999992E+02  0.24683E+06
 0.82049995E+02  0.21926E+06
 0.82099998E+02  0.18044E+06
 0.82149994E+02  0.13562E+06
 0.82199997E+02  0.95616E+05
 0.82249992E+02  0.61386E+05
 0.82299995E+02  0.30264E+05
 0.82349998E+02  0.45735E+04
 0.82399994E+02 -0.17578E+05
 0.82449997E+02 -0.32510E+05
 0.82499992E+02 -0.36464E+05
 0.82549995E+02 -0.38356E+05
 0.82599998E+02 -0.45887E+05
 0.82649994E+02 -0.56460E+05
 0.82699997E+02 -0.64806E+05
 0.82749992E+02 -0.60094E+05
 0.82799995E+02 -0.39629E+05
 0.82849998E+02 -0.17072E+05
 0.82899994E+02  0.19839E+04
 0.82949997E+02  0.29013E+05
 0.82999992E+02  0.72908E+05
 0.83049995E+02  0.12700E+06
 0.83099998E+02  0.18598E+06
 0.83149994E+02  0.24861E+06
 0.83199997E+02  0.29982E+06
 0.83249992E+02  0.31688E+06
 0.83299995E+02  0.29752E+06
 0.83349998E+02  0.24969E+06
 0.83399994E+02  0.17719E+06
 0.83449997E+02  0.91499E+05
 0.83499992E+02  0.83399E+04
 0.83549995E+02 -0.64046E+05
 0.83599998E+02 -0.12161E+06
 0.83649994E+02 -0.15680E+06
 0.83699997E+02 -0.17625E+06
 0.83749992E+02 -0.18966E+06
 0.83799995E+02 -0.18968E+06
 0.83849998E+02 -0.17232E+06
 0.83899994E+02 -0.14976E+06
 0.83949997E+02 -0.12963E+06
 0.83999992E+02 -0.10327E+06
 0.84049995E+02 -0.67244E+05
 0.84099998E+02 -0.20897E+05
 0.84149994E+02  0.33008E+05
 0.84199997E+02  0.76386E+05
 0.84249992E+02  0.10420E+06
 0.84299995E+02  0.12456E+06
 0.84349998E+02  0.14370E+06
 0.84399994E+02  0.17199E+06
 0.84449997E+02  0.20998E+06
 0.84499992E+02  0.24482E+06
 0.84549995E+02  0.26401E+06
 0.84599998E+02  0.25622E+06
 0.84649994E+02  0.21346E+06
 0.84699997E+02  0.14484E+06
 0.84749992E+02  0.69949E+05
 0.84799995E+02  0.11892E+04
 0.84849998E+02 -0.62109E+05
 0.84899994E+02 -0.12676E+06
 0.84949997E+02 -0.19529E+06
 0.84999992E+02 -0.25685E+06
 0.85049995E+02 -0.29473E+06
 0.85099998E+02 -0.29879E+06
 0.85149994E+02 -0.26528E+06
 0.85199997E+02 -0.20049E+06
 0.85249992E+02 -0.12054E+06
 0.85299995E+02 -0.49137E+05
 0.85349998E+02  0.69259E+03
 0.85399994E+02  0.39284E+05
 0.85449997E+02  0.75006E+05
 0.85499992E+02  0.10397E+06
 0.85549995E+02  0.12620E+06
 0.85599998E+02  0.13915E+06
 0.85649994E+02  0.14230E+06
 0.85699997E+02  0.14300E+06
 0.85749992E+02  0.14188E+06
 0.85799995E+02  0.13303E+06
 0.85849998E+02  0.11488E+06
 0.85899994E+02  0.85760E+05
 0.85949997E+02  0.43635E+05
 0.85999992E+02 -0.78641E+04
 0.86049995E+02 -0.56701E+05
 0.86099998E+02 -0.89337E+05
 0.86149994E+02 -0.10642E+06
 0.86199997E+02 -0.11066E+06
 0.86249992E+02 -0.10695E+06
 0.86299995E+02 -0.10422E+06
 0.86349998E+02 -0.10877E+06
 0.86399994E+02 -0.12125E+06
 0.86449997E+02 -0.13982E+06
 0.86499992E+02 -0.16135E+06
 0.86549995E+02 -0.17718E+06
 0.86599998E+02 -0.17741E+06
 0.86649994E+02 -0.14981E+06
 0.86699997E+02 -0.95105E+05
 0.86749992E+02 -0.30567E+05
 0.86799995E+02  0.19279E+05
 0.86849998E+02  0.37906E+05
 0.86899994E+02  0.29232E+05
 0.86949997E+02  0.45837E+04
 0.86999992E+02 -0.28289E+05
 0.87049995E+02 -0.64529E+05
 0.87099998E+02 -0.10090E+06
 0.87149994E+02 -0.12755E+06
 0.87199997E+02 -0.12516E+06
 0.87249992E+02 -0.85889E+05
 0.87299995E+02 -0.20255E+05
 0.87349998E+02  0.56036E+05
 0.87399994E+02  0.13074E+06
 0.87449997E+02  0.19685E+06
 0.87499992E+02  0.25248E+06
 0.87549995E+02  0.28961E+06
 0.87599991E+02  0.30020E+06
 0.87649994E+02  0.28208E+06
 0.87699997E+02  0.24351E+06
 0.87749992E+02  0.19895E+06
 0.87799995E+02  0.15081E+06
 0.87849991E+02  0.93399E+05
 0.87899994E+02  0.27184E+05
 0.87949997E+02 -0.32451E+05
 0.87999992E+02 -0.75544E+05
 0.88049995E+02 -0.10066E+06
 0.88099991E+02 -0.11278E+06
 0.88149994E+02 -0.12126E+06
 0.88199997E+02 -0.12729E+06
 0.88249992E+02 -0.12353E+06
 0.88299995E+02 -0.10602E+06
 0.88349991E+02 -0.80421E+05
 0.88399994E+02 -0.53598E+05
 0.88449997E+02 -0.36088E+05
 0.88499992E+02 -0.29219E+05
 0.88549995E+02 -0.21803E+05
 0.88599991E+02 -0.13506E+05
 0.88649994E+02 -0.46426E+04
 0.88699997E+02  0.15169E+05
 0.88749992E+02  0.54465E+05
 0.88799995E+02  0.11007E+06
 0.88849991E+02  0.17242E+06
 0.88899994E+02  0.23339E+06
 0.88949997E+02  0.28083E+06
 0.88999992E+02  0.30918E+06
 0.89049995E+02  0.32012E+06
 0.89099991E+02  0.31420E+06
 0.89149994E+02  0.29267E+06
 0.89199997E+02  0.25711E+06
 0.89249992E+02  0.21666E+06
 0.89299995E+02  0.18124E+06
 0.89349991E+02  0.16209E+06
 0.89399994E+02  0.16376E+06
 0.89449997E+02  0.16952E+06
 0.89499992E+02  0.16193E+06
 0.89549995E+02  0.13297E+06
 0.89599991E+02  0.90640E+05
 0.89649994E+02  0.44733E+05
 0.89699997E+02 -0.62670E+03
 0.89749992E+02 -0.43571E+05
 0.89799995E+02 -0.81131E+05
 0.89849991E+02 -0.10464E+06
 0.89899994E+02 -0.11868E+06
 0.89949997E+02 -0.13125E+06
 0.89999992E+02 -0.14584E+06
 0.90049995E+02 -0.16270E+06
 0.90099991E+02 -0.18249E+06
 0.90149994E+02 -0.20379E+06
 0.90199997E+02 -0.21797E+06
 0.90249992E+02 -0.21387E+06
 0.90299995E+02 -0.18495E+06
 0.90349991E+02 -0.14099E+06
 0.90399994E+02 -0.92653E+05
 0.90449997E+02 -0.48950E+05
 0.90499992E+02 -0.14272E+05
 0.90549995E+02  0.18744E+05
 0.90599991E+02  0.53056E+05
 0.90649994E+02  0.87483E+05
 0.90699997E+02  0.12026E+06
 0.90749992E+02  0.14950E+06
 0.90799995E+02  0.17794E+06
 0.90849991E+02  0.20311E+06
 0.90899994E+02  0.21730E+06
 0.90949997E+02  0.21635E+06
 0.90999992E+02  0.20135E+06
 0.91049995E+02  0.17734E+06
 0.91099991E+02  0.15067E+06
 0.91149994E+02  0.13108E+06
 0.91199997E+02  0.11634E+06
 0.91249992E+02  0.95408E+05
 0.91299995E+02  0.68357E+05
 0.91349991E+02  0.41483E+05
 0.91399994E+02  0.23563E+05
 0.91449997E+02  0.20129E+05
 0.91499992E+02  0.27647E+05
 0.91549995E+02  0.41257E+05
 0.91599991E+02  0.53799E+05
 0.91649994E+02  0.62509E+05
 0.91699997E+02  0.70085E+05
 0.91749992E+02  0.73312E+05
 0.91799995E+02  0.75750E+05
 0.91849991E+02  0.85629E+05
 0.91899994E+02  0.10322E+06
 0.91949997E+02  0.11995E+06
 0.91999992E+02  0.12868E+06
 0.92049995E+02  0.13216E+06
 0.92099991E+02  0.12969E+06
 0.92149994E+02  0.11601E+06
 0.92199997E+02  0.93005E+05
 0.92249992E+02  0.67271E+05
 0.92299995E+02  0.45835E+05
 0.92349991E+02  0.29661E+05
 0.92399994E+02  0.21809E+05
 0.92449997E+02  0.28723E+05
 0.92499992E+02  0.47977E+05
 0.92549995E+02  0.68878E+05
 0.92599991E+02  0.78386E+05
 0.92649994E+02  0.79029E+05
 0.92699997E+02  0.77850E+05
 0.92749992E+02  0.75887E+05
 0.92799995E+02  0.75162E+05
 0.92849991E+02  0.74428E+05
 0.92899994E+02  0.71224E+05
 0.92949997E+02  0.61668E+05
 0.92999992E+02  0.39210E+05
 0.93049995E+02 -0.84114E+03
 0.93099991E+02 -0.54405E+05
 0.93149994E+02 -0.11811E+06
 0.93199997E+02 -0.18542E+06
 0.93249992E+02 -0.24039E+06
 0.93299995E+02 -0.27044E+06
 0.93349991E+02 -0.26765E+06
 0.93399994E+02 -0.23465E+06
 0.93449997E+02 -0.18428E+06
 0.93499992E+02 -0.13146E+06
 0.93549995E+02 -0.85786E+05
 0.93599991E+02 -0.52179E+05
 0.93649994E+02 -0.33673E+05
 0.93699997E+02 -0.28712E+05
 0.93749992E+02 -0.35134E+05
 0.93799995E+02 -0.47713E+05
 0.93849991E+02 -0.59183E+05
 0.93899994E+02 -0.62646E+05
 0.93949997E+02 -0.54715E+05
 0.93999992E+02 -0.37097E+05
 0.94049995E+02 -0.97273E+04
 0.94099991E+02  0.27945E+05
 0.94149994E+02  0.68627E+05
 0.94199997E+02  0.10091E+06
 0.94249992E+02  0.11653E+06
 0.94299995E+02  0.11428E+06
 0.94349991E+02  0.99027E+05
 0.94399994E+02  0.84167E+05
 0.94449997E+02  0.80177E+05
 0.94499992E+02  0.81797E+05
 0.94549995E+02  0.83600E+05
 0.94599991E+02  0.81369E+05
 0.94649994E+02  0.75057E+05
 0.94699997E+02  0.67475E+05
 0.94749992E+02  0.54199E+05
 0.94799995E+02  0.32034E+05
 0.94849991E+02  0.88032E+04
 0.94899994E+02 -0.13074E+04
 0.94949997E+02  0.57104E+04
 0.94999992E+02  0.21949E+05
 0.95049995E+02  0.36689E+05
 0.95099991E+02  0.39994E+05
 0.95149994E+02  0.31169E+05
 0.95199997E+02  0.15222E+05
 0.95249992E+02 -0.17996E+04
 0.95299995E+02 -0.11634E+05
 0.95349991E+02 -0.13372E+05
 0.95399994E+02 -0.12636E+05
 0.95449997E+02 -0.17180E+05
 0.95499992E+02 -0.32850E+05
 0.95549995E+02 -0.55109E+05
 0.95599991E+02 -0.72166E+05
 0.95649994E+02 -0.71507E+05
 0.95699997E+02 -0.50172E+05
 0.95749992E+02 -0.16429E+05
 0.95799995E+02  0.20784E+05
 0.95849991E+02  0.54678E+05
 0.95899994E+02  0.87279E+05
 0.95949997E+02  0.12576E+06
 0.95999992E+02  0.17063E+06
 0.96049995E+02  0.21483E+06
 0.96099991E+02  0.24978E+06
 0.96149994E+02  0.27143E+06
 0.96199997E+02  0.27888E+06
 0.96249992E+02  0.27292E+06
 0.96299995E+02  0.25128E+06
 0.96349991E+02  0.21225E+06
 0.96399994E+02  0.16002E+06
 0.96449997E+02  0.10196E+06
 0.96499992E+02  0.47811E+05
 0.96549995E+02  0.44734E+04
 0.96599991E+02 -0.24514E+05
 0.96649994E+02 -0.37319E+05
 0.96699997E+02 -0.39636E+05
 0.96749992E+02 -0.35770E+05
 0.96799995E+02 -0.23451E+05
 0.96849991E+02 -0.49284E+04
 0.96899994E+02  0.14563E+05
 0.96949997E+02  0.29008E+05
 0.96999992E+02  0.35786E+05
 0.97049995E+02  0.37282E+05
 0.97099991E+02  0.34583E+05
 0.97149994E+02  0.26810E+05
 0.97199997E+02  0.14938E+05
 0.97249992E+02  0.59937E+04
 0.97299995E+02  0.65599E+04
 0.97349991E+02  0.18195E+05
 0.97399994E+02  0.38599E+05
 0.97449997E+02  0.58603E+05
 0.97499992E+02  0.69470E+05
 0.97549995E+02  0.68505E+05
 0.97599991E+02  0.52920E+05
 0.97649994E+02  0.21725E+05
 0.97699997E+02 -0.21564E+05
 0.97749992E+02 -0.70183E+05
 0.97799995E+02 -0.11286E+06
 0.97849991E+02 -0.14317E+06
 0.97899994E+02 -0.16022E+06
 0.97949997E+02 -0.16181E+06
 0.97999992E+02 -0.14826E+06
