-0.20000000E+01 -0.21017E+04
-0.19500000E+01 -0.20879E+04
-0.19000000E+01 -0.20872E+04
-0.18500000E+01 -0.20846E+04
-0.18000000E+01 -0.20859E+04
-0.17500000E+01 -0.20833E+04
-0.17000000E+01 -0.20809E+04
-0.16500001E+01 -0.20801E+04
-0.16000000E+01 -0.20821E+04
-0.15500000E+01 -0.20808E+04
-0.15000000E+01 -0.20825E+04
-0.14500000E+01 -0.20825E+04
-0.14000001E+01 -0.20837E+04
-0.13500000E+01 -0.20842E+04
-0.13000001E+01 -0.20848E+04
-0.12500000E+01 -0.20899E+04
-0.12000000E+01 -0.20940E+04
-0.11500001E+01 -0.20931E+04
-0.11000000E+01 -0.20972E+04
-0.10500001E+01 -0.21007E+04
-0.10000000E+01 -0.21010E+04
-0.95000005E+00 -0.20990E+04
-0.90000010E+00 -0.20942E+04
-0.85000002E+00 -0.20962E+04
-0.80000007E+00 -0.20970E+04
-0.75000012E+00 -0.20990E+04
-0.70000005E+00 -0.20948E+04
-0.65000010E+00 -0.20948E+04
-0.60000014E+00 -0.20936E+04
-0.55000007E+00 -0.20921E+04
-0.50000012E+00 -0.20976E+04
-0.45000005E+00 -0.20957E+04
-0.40000010E+00 -0.20993E+04
-0.35000014E+00 -0.20978E+04
-0.30000007E+00 -0.20990E+04
-0.25000012E+00 -0.20966E+04
-0.20000005E+00 -0.20952E+04
-0.15000010E+00 -0.20988E+04
-0.10000014E+00 -0.20980E+04
-0.50000072E-01 -0.21011E+04
-0.11920929E-06 -0.20978E+04
 0.49999952E-01 -0.20990E+04
 0.99999905E-01 -0.21010E+04
 0.14999986E+00 -0.21034E+04
 0.19999981E+00 -0.21050E+04
 0.24999976E+00 -0.21088E+04
 0.29999995E+00 -0.21065E+04
 0.34999990E+00 -0.21027E+04
 0.39999986E+00 -0.21056E+04
 0.44999981E+00 -0.21038E+04
 0.49999976E+00 -0.21034E+04
 0.54999995E+00 -0.20997E+04
 0.59999990E+00 -0.20954E+04
 0.64999986E+00 -0.20964E+04
 0.69999981E+00 -0.20984E+04
 0.74999976E+00 -0.20912E+04
 0.79999971E+00 -0.20866E+04
 0.84999990E+00 -0.20875E+04
 0.89999986E+00 -0.20838E+04
 0.94999981E+00 -0.20795E+04
 0.99999976E+00 -0.20812E+04
 0.10499997E+01 -0.20867E+04
 0.10999999E+01 -0.20841E+04
 0.11499999E+01 -0.20840E+04
 0.11999998E+01 -0.20873E+04
 0.12499998E+01 -0.20885E+04
 0.12999997E+01 -0.20926E+04
 0.13499999E+01 -0.20929E+04
 0.13999999E+01 -0.20921E+04
 0.14499998E+01 -0.20935E+04
 0.14999998E+01 -0.20909E+04
 0.15499997E+01 -0.20931E+04
 0.15999999E+01 -0.20965E+04
 0.16499999E+01 -0.20964E+04
 0.16999998E+01 -0.20944E+04
 0.17499998E+01 -0.20944E+04
 0.17999997E+01 -0.20957E+04
 0.18499997E+01 -0.20914E+04
 0.18999999E+01 -0.20948E+04
 0.19499998E+01 -0.20917E+04
 0.19999998E+01 -0.20895E+04
 0.20499997E+01 -0.20925E+04
 0.20999999E+01 -0.20897E+04
 0.21499996E+01 -0.20896E+04
 0.21999998E+01 -0.20908E+04
 0.22499995E+01 -0.20942E+04
 0.22999997E+01 -0.20964E+04
 0.23499999E+01 -0.20955E+04
 0.23999996E+01 -0.20970E+04
 0.24499998E+01 -0.20978E+04
 0.24999995E+01 -0.20935E+04
 0.25499997E+01 -0.20955E+04
 0.25999999E+01 -0.20953E+04
 0.26499996E+01 -0.20948E+04
 0.26999998E+01 -0.20955E+04
 0.27499995E+01 -0.20933E+04
 0.27999997E+01 -0.20909E+04
 0.28499999E+01 -0.20906E+04
 0.28999996E+01 -0.20907E+04
 0.29499998E+01 -0.20911E+04
 0.29999995E+01 -0.20923E+04
 0.30499997E+01 -0.20961E+04
 0.30999999E+01 -0.20999E+04
 0.31499996E+01 -0.20960E+04
 0.31999998E+01 -0.20927E+04
 0.32499995E+01 -0.20894E+04
 0.32999997E+01 -0.20902E+04
 0.33499999E+01 -0.20902E+04
 0.33999996E+01 -0.20905E+04
 0.34499998E+01 -0.20909E+04
 0.34999995E+01 -0.20891E+04
 0.35499997E+01 -0.20899E+04
 0.35999994E+01 -0.20875E+04
 0.36499996E+01 -0.20800E+04
 0.36999998E+01 -0.20791E+04
 0.37499995E+01 -0.20801E+04
 0.37999997E+01 -0.20813E+04
 0.38499994E+01 -0.20877E+04
 0.38999996E+01 -0.20848E+04
 0.39499998E+01 -0.20830E+04
 0.39999995E+01 -0.20877E+04
 0.40499997E+01 -0.20887E+04
 0.40999994E+01 -0.20897E+04
 0.41499996E+01 -0.20886E+04
 0.41999998E+01 -0.20861E+04
 0.42499995E+01 -0.20866E+04
 0.42999997E+01 -0.20870E+04
 0.43499994E+01 -0.20903E+04
 0.43999996E+01 -0.20972E+04
 0.44499998E+01 -0.20967E+04
 0.44999995E+01 -0.20952E+04
 0.45499997E+01 -0.20960E+04
 0.45999994E+01 -0.20953E+04
 0.46499996E+01 -0.20959E+04
 0.46999998E+01 -0.20968E+04
 0.47499995E+01 -0.21024E+04
 0.47999997E+01 -0.21035E+04
 0.48499994E+01 -0.21051E+04
 0.48999996E+01 -0.21079E+04
 0.49499998E+01 -0.21035E+04
 0.49999995E+01 -0.21029E+04
 0.50499997E+01 -0.21046E+04
 0.50999994E+01 -0.21057E+04
 0.51499996E+01 -0.21026E+04
 0.51999998E+01 -0.21019E+04
 0.52499995E+01 -0.21053E+04
 0.52999997E+01 -0.20998E+04
 0.53499994E+01 -0.20978E+04
 0.53999996E+01 -0.20996E+04
 0.54499993E+01 -0.20984E+04
 0.54999995E+01 -0.20964E+04
 0.55499997E+01 -0.20958E+04
 0.55999994E+01 -0.20923E+04
 0.56499996E+01 -0.20900E+04
 0.56999993E+01 -0.20885E+04
 0.57499995E+01 -0.20847E+04
 0.57999997E+01 -0.20875E+04
 0.58499994E+01 -0.20892E+04
 0.58999996E+01 -0.20912E+04
 0.59499993E+01 -0.20915E+04
 0.59999995E+01 -0.20927E+04
 0.60499992E+01 -0.20931E+04
 0.60999994E+01 -0.20900E+04
 0.61499996E+01 -0.20884E+04
 0.61999998E+01 -0.20878E+04
 0.62499990E+01 -0.20884E+04
 0.62999992E+01 -0.20878E+04
 0.63499994E+01 -0.20926E+04
 0.63999996E+01 -0.20993E+04
 0.64499998E+01 -0.20999E+04
 0.64999990E+01 -0.20969E+04
 0.65499992E+01 -0.20960E+04
 0.65999994E+01 -0.20931E+04
 0.66499996E+01 -0.20910E+04
 0.66999998E+01 -0.20968E+04
 0.67499990E+01 -0.20986E+04
 0.67999992E+01 -0.20958E+04
 0.68499994E+01 -0.20981E+04
 0.68999996E+01 -0.20983E+04
 0.69499998E+01 -0.20978E+04
 0.69999990E+01 -0.20948E+04
 0.70499992E+01 -0.20941E+04
 0.70999994E+01 -0.20932E+04
 0.71499996E+01 -0.20882E+04
 0.71999998E+01 -0.20897E+04
 0.72499990E+01 -0.20856E+04
 0.72999992E+01 -0.20877E+04
 0.73499994E+01 -0.20898E+04
 0.73999996E+01 -0.20916E+04
 0.74499998E+01 -0.20948E+04
 0.74999990E+01 -0.20904E+04
 0.75499992E+01 -0.20857E+04
 0.75999994E+01 -0.20840E+04
 0.76499996E+01 -0.20839E+04
 0.76999998E+01 -0.20856E+04
 0.77499990E+01 -0.20866E+04
 0.77999992E+01 -0.20830E+04
 0.78499994E+01 -0.20884E+04
 0.78999996E+01 -0.20870E+04
 0.79499998E+01 -0.20888E+04
 0.79999990E+01 -0.20923E+04
 0.80499992E+01 -0.20933E+04
 0.80999994E+01 -0.20984E+04
 0.81499996E+01 -0.20993E+04
 0.81999998E+01 -0.20995E+04
 0.82499990E+01 -0.20999E+04
 0.82999992E+01 -0.20979E+04
 0.83499994E+01 -0.20952E+04
 0.83999996E+01 -0.20969E+04
 0.84499998E+01 -0.20981E+04
 0.84999990E+01 -0.21016E+04
 0.85499992E+01 -0.21048E+04
 0.85999994E+01 -0.21062E+04
 0.86499996E+01 -0.21082E+04
 0.86999998E+01 -0.21056E+04
 0.87499990E+01 -0.21060E+04
 0.87999992E+01 -0.21079E+04
 0.88499994E+01 -0.21038E+04
 0.88999996E+01 -0.21056E+04
 0.89499998E+01 -0.21051E+04
 0.89999990E+01 -0.21034E+04
 0.90499992E+01 -0.21056E+04
 0.90999994E+01 -0.21061E+04
 0.91499996E+01 -0.21029E+04
 0.91999989E+01 -0.20995E+04
 0.92499990E+01 -0.20987E+04
 0.92999992E+01 -0.20995E+04
 0.93499994E+01 -0.21014E+04
 0.93999996E+01 -0.20988E+04
 0.94499989E+01 -0.20974E+04
 0.94999990E+01 -0.20955E+04
 0.95499992E+01 -0.20944E+04
 0.95999994E+01 -0.20920E+04
 0.96499996E+01 -0.20881E+04
 0.96999989E+01 -0.20846E+04
 0.97499990E+01 -0.20838E+04
 0.97999992E+01 -0.20860E+04
 0.98499994E+01 -0.20843E+04
 0.98999996E+01 -0.20797E+04
 0.99499989E+01 -0.20811E+04
 0.99999990E+01 -0.20809E+04
 0.10049999E+02 -0.20763E+04
 0.10099999E+02 -0.20783E+04
 0.10150000E+02 -0.20837E+04
 0.10199999E+02 -0.20847E+04
 0.10249999E+02 -0.20834E+04
 0.10299999E+02 -0.20861E+04
 0.10349999E+02 -0.20858E+04
 0.10400000E+02 -0.20874E+04
 0.10449999E+02 -0.20871E+04
 0.10499999E+02 -0.20854E+04
 0.10549999E+02 -0.20871E+04
 0.10599999E+02 -0.20926E+04
 0.10650000E+02 -0.20927E+04
 0.10699999E+02 -0.20883E+04
 0.10749999E+02 -0.20902E+04
 0.10799999E+02 -0.20899E+04
 0.10849999E+02 -0.20928E+04
 0.10900000E+02 -0.20952E+04
 0.10949999E+02 -0.20988E+04
 0.10999999E+02 -0.21009E+04
 0.11049999E+02 -0.20984E+04
 0.11099999E+02 -0.20958E+04
 0.11150000E+02 -0.20971E+04
 0.11199999E+02 -0.20976E+04
 0.11249999E+02 -0.20941E+04
 0.11299999E+02 -0.20922E+04
 0.11349999E+02 -0.20928E+04
 0.11400000E+02 -0.20965E+04
 0.11449999E+02 -0.20970E+04
 0.11499999E+02 -0.20965E+04
 0.11549999E+02 -0.20934E+04
 0.11599999E+02 -0.20936E+04
 0.11650000E+02 -0.20964E+04
 0.11699999E+02 -0.20961E+04
 0.11749999E+02 -0.20986E+04
 0.11799999E+02 -0.21022E+04
 0.11849999E+02 -0.21011E+04
 0.11900000E+02 -0.21012E+04
 0.11949999E+02 -0.21006E+04
 0.11999999E+02 -0.20973E+04
 0.12049999E+02 -0.20991E+04
 0.12099999E+02 -0.21007E+04
 0.12150000E+02 -0.21015E+04
 0.12199999E+02 -0.20987E+04
 0.12249999E+02 -0.21017E+04
 0.12299999E+02 -0.21044E+04
 0.12349999E+02 -0.21019E+04
 0.12400000E+02 -0.21013E+04
 0.12449999E+02 -0.21030E+04
 0.12499999E+02 -0.21042E+04
 0.12549999E+02 -0.21054E+04
 0.12599999E+02 -0.21070E+04
 0.12649999E+02 -0.21038E+04
 0.12699999E+02 -0.21002E+04
 0.12749999E+02 -0.20945E+04
 0.12799999E+02 -0.20948E+04
 0.12849999E+02 -0.20970E+04
 0.12899999E+02 -0.20929E+04
 0.12949999E+02 -0.20880E+04
 0.12999999E+02 -0.20867E+04
 0.13049999E+02 -0.20862E+04
 0.13099999E+02 -0.20848E+04
 0.13149999E+02 -0.20841E+04
 0.13199999E+02 -0.20859E+04
 0.13249999E+02 -0.20913E+04
 0.13299999E+02 -0.20918E+04
 0.13349999E+02 -0.20895E+04
 0.13399999E+02 -0.20885E+04
 0.13449999E+02 -0.20872E+04
 0.13499999E+02 -0.20886E+04
 0.13549999E+02 -0.20926E+04
 0.13599999E+02 -0.20941E+04
 0.13649999E+02 -0.20908E+04
 0.13699999E+02 -0.20896E+04
 0.13749999E+02 -0.20923E+04
 0.13799999E+02 -0.20917E+04
 0.13849999E+02 -0.20893E+04
 0.13899999E+02 -0.20940E+04
 0.13949999E+02 -0.20954E+04
 0.13999999E+02 -0.20902E+04
 0.14049999E+02 -0.20889E+04
 0.14099998E+02 -0.20919E+04
 0.14150000E+02 -0.20932E+04
 0.14199999E+02 -0.20906E+04
 0.14249998E+02 -0.20916E+04
 0.14299999E+02 -0.20889E+04
 0.14349998E+02 -0.20920E+04
 0.14400000E+02 -0.20916E+04
 0.14449999E+02 -0.20942E+04
 0.14499998E+02 -0.20936E+04
 0.14549999E+02 -0.20919E+04
 0.14599998E+02 -0.20912E+04
 0.14650000E+02 -0.20893E+04
 0.14699999E+02 -0.20874E+04
 0.14749998E+02 -0.20780E+04
 0.14799999E+02 -0.20770E+04
 0.14849998E+02 -0.20948E+04
 0.14900000E+02 -0.21039E+04
 0.14949999E+02 -0.20591E+04
 0.14999998E+02 -0.21116E+04
 0.15049999E+02 -0.20724E+04
 0.15099998E+02 -0.20895E+04
 0.15150000E+02 -0.20596E+04
 0.15199999E+02 -0.21215E+04
 0.15249998E+02 -0.20465E+04
 0.15299999E+02 -0.20454E+04
 0.15349998E+02 -0.21550E+04
 0.15400000E+02 -0.20005E+04
 0.15449999E+02 -0.21090E+04
 0.15499998E+02 -0.20429E+04
 0.15549999E+02 -0.19956E+04
 0.15599998E+02 -0.21203E+04
 0.15650000E+02 -0.21862E+04
 0.15699999E+02 -0.21444E+04
 0.15749998E+02 -0.22299E+04
 0.15799999E+02 -0.24368E+04
 0.15849998E+02 -0.23420E+04
 0.15900000E+02 -0.21326E+04
 0.15949999E+02 -0.18070E+04
 0.15999998E+02 -0.16771E+04
 0.16049999E+02 -0.22258E+04
 0.16099998E+02 -0.19116E+04
 0.16150000E+02 -0.28466E+04
 0.16199999E+02 -0.23214E+04
 0.16249998E+02 -0.47975E+03
 0.16299999E+02 -0.33976E+04
 0.16349998E+02 -0.22138E+04
 0.16400000E+02 -0.20559E+04
 0.16449999E+02 -0.42692E+04
 0.16499998E+02 -0.19097E+04
 0.16549999E+02 -0.25680E+04
 0.16599998E+02 -0.86217E+03
 0.16650000E+02 -0.16895E+04
 0.16699999E+02 -0.18837E+04
 0.16749998E+02  0.27614E+02
 0.16799999E+02 -0.56668E+04
 0.16849998E+02 -0.98796E+03
 0.16900000E+02 -0.17538E+04
 0.16949999E+02 -0.42380E+04
 0.16999998E+02  0.25544E+04
 0.17049999E+02 -0.25797E+04
 0.17099998E+02 -0.41701E+04
 0.17150000E+02  0.42624E+03
 0.17199999E+02 -0.36086E+04
 0.17249998E+02 -0.12046E+04
 0.17299999E+02 -0.53746E+03
 0.17349998E+02 -0.56045E+04
 0.17400000E+02  0.18216E+04
 0.17449999E+02 -0.54658E+04
 0.17499998E+02 -0.53788E+04
 0.17549999E+02 -0.15362E+04
 0.17599998E+02 -0.42509E+04
 0.17650000E+02  0.13951E+04
 0.17699999E+02  0.87223E+03
 0.17749998E+02 -0.63617E+04
 0.17799999E+02  0.46848E+03
 0.17849998E+02 -0.79226E+03
 0.17900000E+02 -0.56273E+04
 0.17949999E+02 -0.46445E+03
 0.17999998E+02 -0.62070E+04
 0.18049999E+02  0.10244E+04
 0.18099998E+02 -0.22787E+04
 0.18150000E+02 -0.38198E+04
 0.18199999E+02  0.48151E+04
 0.18249998E+02 -0.14138E+04
 0.18299999E+02 -0.57004E+04
 0.18349998E+02  0.10191E+04
 0.18400000E+02 -0.43953E+04
 0.18449999E+02  0.97621E+03
 0.18499998E+02 -0.22546E+04
 0.18549999E+02 -0.72753E+04
 0.18599998E+02 -0.10981E+03
 0.18650000E+02 -0.54832E+04
 0.18699999E+02 -0.20708E+04
 0.18749998E+02  0.50976E+03
 0.18799999E+02 -0.25427E+04
 0.18849998E+02 -0.24057E+04
 0.18900000E+02  0.15800E+04
 0.18949999E+02 -0.58681E+04
 0.18999998E+02 -0.18886E+04
 0.19049999E+02 -0.28974E+04
 0.19099998E+02 -0.95338E+03
 0.19150000E+02 -0.36707E+04
 0.19199999E+02 -0.11333E+04
 0.19249998E+02  0.48106E+04
 0.19299999E+02 -0.86292E+04
 0.19349998E+02 -0.14667E+04
 0.19400000E+02  0.10688E+04
 0.19449999E+02 -0.61937E+04
 0.19499998E+02 -0.23441E+04
 0.19549999E+02 -0.14193E+03
 0.19599998E+02 -0.51630E+04
 0.19650000E+02  0.14350E+04
 0.19699999E+02 -0.45175E+04
 0.19749998E+02 -0.17952E+03
 0.19799999E+02  0.32265E+04
 0.19849998E+02 -0.52592E+04
 0.19900000E+02 -0.46979E+04
 0.19949999E+02 -0.19517E+04
 0.19999998E+02 -0.95828E+03
 0.20049999E+02 -0.29867E+04
 0.20099998E+02  0.95999E+02
 0.20150000E+02 -0.47543E+04
 0.20199999E+02 -0.43007E+04
 0.20249998E+02  0.93711E+02
 0.20299999E+02  0.54819E+04
 0.20349998E+02 -0.28537E+04
 0.20399998E+02 -0.69723E+04
 0.20449999E+02 -0.89793E+03
 0.20499998E+02 -0.62676E+04
 0.20549999E+02 -0.14548E+03
 0.20599998E+02 -0.90848E+03
 0.20649998E+02 -0.28991E+04
 0.20699999E+02 -0.31002E+04
 0.20749998E+02 -0.51119E+04
 0.20799999E+02 -0.97643E+03
 0.20849998E+02  0.22838E+04
 0.20899998E+02  0.15374E+04
 0.20949999E+02 -0.80685E+04
 0.20999998E+02 -0.19426E+04
 0.21049999E+02 -0.12634E+04
 0.21099998E+02 -0.26573E+04
 0.21149998E+02 -0.18424E+03
 0.21199999E+02 -0.49683E+04
 0.21249998E+02 -0.11410E+04
 0.21299999E+02 -0.45200E+03
 0.21349998E+02 -0.15790E+04
 0.21399998E+02 -0.27902E+04
 0.21449999E+02 -0.50661E+04
 0.21499998E+02 -0.25153E+04
 0.21549999E+02  0.15793E+04
 0.21599998E+02 -0.33434E+04
 0.21649998E+02 -0.12275E+04
 0.21699999E+02 -0.23036E+04
 0.21749998E+02 -0.45486E+04
 0.21799999E+02  0.10378E+03
 0.21849998E+02 -0.38424E+04
 0.21899998E+02 -0.51465E+03
 0.21949999E+02 -0.35715E+04
 0.21999998E+02 -0.66197E+04
 0.22049999E+02  0.15109E+04
 0.22099998E+02 -0.27272E+04
 0.22149998E+02 -0.37041E+04
 0.22199999E+02  0.15379E+04
 0.22249998E+02  0.61982E+03
 0.22299999E+02 -0.58727E+04
 0.22349998E+02 -0.27735E+04
 0.22399998E+02  0.19897E+04
 0.22449999E+02 -0.51860E+04
 0.22499998E+02 -0.32485E+04
 0.22549999E+02 -0.60744E+03
 0.22599998E+02 -0.47785E+04
 0.22649998E+02  0.44147E+03
 0.22699999E+02 -0.61758E+03
 0.22749998E+02 -0.75969E+04
 0.22799999E+02 -0.10425E+03
 0.22849998E+02 -0.72469E+03
 0.22899998E+02 -0.50266E+03
 0.22949999E+02 -0.40222E+04
 0.22999998E+02 -0.29116E+04
 0.23049999E+02 -0.79080E+03
 0.23099998E+02 -0.37631E+04
 0.23149998E+02  0.12811E+04
 0.23199999E+02 -0.46970E+04
 0.23249998E+02 -0.36618E+04
 0.23299999E+02  0.21182E+04
 0.23349998E+02 -0.40549E+04
 0.23399998E+02 -0.34776E+04
 0.23449999E+02 -0.24700E+03
 0.23499998E+02 -0.25072E+04
 0.23549999E+02 -0.11843E+04
 0.23599998E+02 -0.71028E+02
 0.23649998E+02 -0.23464E+04
 0.23699999E+02 -0.57897E+04
 0.23749998E+02  0.30894E+03
 0.23799999E+02 -0.99778E+03
 0.23849998E+02 -0.37997E+04
 0.23899998E+02 -0.12128E+04
 0.23949999E+02 -0.31333E+04
 0.23999998E+02 -0.22346E+04
 0.24049999E+02 -0.31935E+04
 0.24099998E+02  0.10136E+04
 0.24149998E+02 -0.24102E+04
 0.24199999E+02 -0.34842E+04
 0.24249998E+02 -0.12651E+04
 0.24299999E+02 -0.31673E+04
 0.24349998E+02 -0.99817E+03
 0.24399998E+02 -0.19275E+04
 0.24449999E+02 -0.15071E+04
 0.24499998E+02 -0.75514E+03
 0.24549999E+02 -0.27049E+04
 0.24599998E+02 -0.50360E+04
 0.24649998E+02  0.10538E+04
 0.24699999E+02 -0.17022E+04
 0.24749998E+02 -0.59926E+04
 0.24799999E+02  0.29401E+03
 0.24849998E+02 -0.27910E+04
 0.24899998E+02 -0.39281E+04
 0.24949999E+02 -0.15744E+03
 0.24999998E+02 -0.29663E+04
 0.25049999E+02 -0.51682E+03
 0.25099998E+02 -0.38191E+04
 0.25149998E+02 -0.25261E+04
 0.25199999E+02 -0.78289E+03
 0.25249998E+02 -0.32102E+04
 0.25299999E+02 -0.69975E+03
 0.25349998E+02 -0.52478E+04
 0.25399998E+02 -0.31439E+04
 0.25449999E+02  0.17210E+04
 0.25499998E+02 -0.17838E+04
 0.25549999E+02 -0.54075E+04
 0.25599998E+02 -0.45496E+03
 0.25649998E+02 -0.12167E+03
 0.25699999E+02 -0.28330E+04
 0.25749998E+02 -0.22361E+04
 0.25799999E+02 -0.15820E+04
 0.25849998E+02  0.84528E+03
 0.25899998E+02 -0.39788E+04
 0.25949999E+02 -0.60093E+04
 0.25999998E+02  0.49281E+03
 0.26049999E+02 -0.33251E+04
 0.26099998E+02 -0.24322E+04
 0.26149998E+02 -0.17674E+04
 0.26199999E+02 -0.88238E+03
 0.26249998E+02 -0.51679E+03
 0.26299999E+02 -0.53568E+04
 0.26349998E+02  0.52835E+01
 0.26399998E+02 -0.23985E+04
 0.26449999E+02 -0.48718E+04
 0.26499998E+02 -0.28413E+04
 0.26549999E+02 -0.14034E+04
 0.26599998E+02  0.19542E+04
 0.26649998E+02 -0.44152E+04
 0.26699999E+02 -0.15079E+04
 0.26749998E+02 -0.26339E+04
 0.26799999E+02 -0.35980E+04
 0.26849998E+02  0.88248E+04
 0.26899998E+02 -0.21102E+04
 0.26949999E+02 -0.98974E+04
 0.26999998E+02 -0.81470E+04
 0.27049997E+02 -0.40549E+04
 0.27099998E+02  0.48740E+04
 0.27149998E+02 -0.54718E+04
 0.27199999E+02 -0.25810E+04
 0.27249998E+02  0.76615E+04
 0.27299997E+02  0.13043E+04
 0.27349998E+02 -0.53740E+03
 0.27399998E+02 -0.12809E+05
 0.27449999E+02 -0.52358E+04
 0.27499998E+02  0.44021E+02
 0.27549997E+02 -0.10971E+05
 0.27599998E+02 -0.16794E+03
 0.27649998E+02  0.56047E+04
 0.27699999E+02  0.42606E+04
 0.27749998E+02  0.22559E+04
 0.27799997E+02  0.55879E+02
 0.27849998E+02 -0.10833E+05
 0.27899998E+02 -0.10710E+05
 0.27949999E+02 -0.22422E+04
 0.27999998E+02 -0.40113E+04
 0.28049997E+02 -0.24545E+03
 0.28099998E+02  0.38868E+04
 0.28149998E+02 -0.36139E+04
 0.28199999E+02  0.31445E+04
 0.28249998E+02 -0.40148E+03
 0.28299997E+02 -0.77976E+04
 0.28349998E+02 -0.54961E+04
 0.28399998E+02 -0.11834E+05
 0.28449999E+02  0.49318E+02
 0.28499998E+02  0.24513E+04
 0.28549997E+02 -0.14229E+03
 0.28599998E+02 -0.13586E+04
 0.28649998E+02  0.76168E+04
 0.28699999E+02  0.41524E+04
 0.28749998E+02 -0.54730E+04
 0.28799997E+02 -0.29890E+04
 0.28849998E+02 -0.75663E+04
 0.28899998E+02 -0.59704E+04
 0.28949999E+02 -0.57128E+04
 0.28999998E+02  0.37926E+03
 0.29049997E+02 -0.29063E+04
 0.29099998E+02  0.21096E+04
 0.29149998E+02 -0.24563E+04
 0.29199999E+02 -0.40523E+04
 0.29249998E+02  0.20903E+04
 0.29299997E+02 -0.11678E+05
 0.29349998E+02 -0.52352E+04
 0.29399998E+02 -0.27792E+04
 0.29449999E+02 -0.71954E+03
 0.29499998E+02  0.56211E+04
 0.29549997E+02  0.61186E+04
 0.29599998E+02 -0.63928E+04
 0.29649998E+02 -0.30354E+04
 0.29699999E+02  0.41005E+04
 0.29749998E+02 -0.99283E+04
 0.29799997E+02 -0.10724E+05
 0.29849998E+02 -0.15651E+04
 0.29899998E+02  0.13452E+05
 0.29949999E+02 -0.14288E+04
 0.29999998E+02 -0.10704E+05
 0.30049999E+02 -0.23820E+03
 0.30099998E+02 -0.38744E+04
 0.30149998E+02 -0.62637E+04
 0.30199997E+02 -0.64365E+04
 0.30249996E+02 -0.10803E+04
 0.30299999E+02 -0.21991E+04
 0.30349998E+02 -0.27941E+03
 0.30399998E+02  0.65759E+04
 0.30449997E+02 -0.76685E+04
 0.30499996E+02  0.23823E+03
 0.30549999E+02  0.61082E+04
 0.30599998E+02 -0.10873E+05
 0.30649998E+02 -0.65594E+03
 0.30699997E+02 -0.78006E+04
 0.30749996E+02 -0.53314E+04
 0.30799999E+02  0.61245E+04
 0.30849998E+02  0.57046E+03
 0.30899998E+02  0.28430E+04
 0.30949997E+02 -0.42036E+04
 0.30999996E+02 -0.16947E+04
 0.31049999E+02  0.12173E+03
 0.31099998E+02 -0.54985E+04
 0.31149998E+02 -0.26128E+04
 0.31199997E+02  0.86746E+03
 0.31249996E+02 -0.27990E+04
 0.31299999E+02 -0.47924E+04
 0.31349998E+02  0.52865E+02
 0.31399998E+02 -0.35781E+04
 0.31449997E+02 -0.38504E+04
 0.31499996E+02 -0.11265E+04
 0.31549999E+02 -0.46306E+04
 0.31599998E+02 -0.63850E+04
 0.31649998E+02 -0.68429E+04
 0.31699997E+02 -0.11457E+04
 0.31749996E+02  0.71843E+03
 0.31799999E+02  0.51040E+04
 0.31849998E+02  0.44572E+04
 0.31899998E+02 -0.11558E+05
 0.31949997E+02 -0.78950E+04
 0.31999996E+02  0.45000E+04
 0.32049999E+02  0.36669E+04
 0.32099998E+02  0.14075E+04
 0.32149998E+02 -0.31517E+04
 0.32199997E+02 -0.96633E+04
 0.32249996E+02 -0.49509E+04
 0.32299999E+02  0.26423E+03
 0.32349998E+02  0.16266E+04
 0.32399998E+02  0.32854E+04
 0.32449997E+02 -0.35367E+04
 0.32499996E+02 -0.12473E+05
 0.32549999E+02 -0.39183E+04
 0.32599998E+02  0.64491E+04
 0.32649998E+02  0.16728E+04
 0.32699997E+02 -0.24495E+04
 0.32749996E+02 -0.36872E+04
 0.32799999E+02 -0.16638E+04
 0.32849998E+02 -0.16768E+04
 0.32899998E+02 -0.20223E+03
 0.32949997E+02 -0.10595E+04
 0.32999996E+02 -0.62985E+04
 0.33049999E+02 -0.53318E+04
 0.33099998E+02 -0.52582E+04
 0.33149998E+02 -0.19581E+04
 0.33199997E+02  0.19195E+04
 0.33249996E+02 -0.19705E+04
 0.33299999E+02 -0.60310E+04
 0.33349998E+02 -0.64578E+04
 0.33399998E+02 -0.11284E+04
 0.33449997E+02 -0.45372E+03
 0.33499996E+02 -0.16468E+04
 0.33549999E+02  0.43209E+04
 0.33599998E+02 -0.34775E+02
 0.33649998E+02 -0.73182E+04
 0.33699997E+02 -0.33655E+04
 0.33749996E+02 -0.12361E+04
 0.33799999E+02 -0.39482E+03
 0.33849998E+02 -0.30606E+03
 0.33899998E+02 -0.29885E+04
 0.33949997E+02 -0.53581E+04
 0.33999996E+02 -0.86704E+04
 0.34049999E+02 -0.31655E+04
 0.34099998E+02  0.44732E+04
 0.34149998E+02  0.15269E+04
 0.34199997E+02 -0.28230E+04
 0.34249996E+02 -0.48200E+04
 0.34299999E+02 -0.27573E+04
 0.34349998E+02 -0.24062E+04
 0.34399998E+02 -0.36357E+04
 0.34449997E+02 -0.16797E+04
 0.34499996E+02 -0.84488E+03
 0.34549999E+02  0.26289E+04
 0.34599998E+02 -0.15192E+04
 0.34649998E+02 -0.59321E+04
 0.34699997E+02 -0.42744E+04
 0.34749996E+02 -0.55930E+04
 0.34799999E+02 -0.31930E+04
 0.34849998E+02 -0.17993E+04
 0.34899998E+02 -0.17199E+04
 0.34949997E+02 -0.99827E+03
 0.34999996E+02  0.56235E+03
 0.35049999E+02 -0.65383E+03
 0.35099998E+02 -0.56833E+04
 0.35149998E+02 -0.84490E+04
 0.35199997E+02 -0.36755E+04
 0.35249996E+02  0.39462E+04
 0.35299999E+02  0.17900E+04
 0.35349998E+02 -0.22274E+03
 0.35399998E+02 -0.49032E+03
 0.35449997E+02 -0.34924E+04
 0.35499996E+02 -0.83234E+04
 0.35549999E+02 -0.48741E+04
 0.35599998E+02  0.21681E+04
 0.35649998E+02 -0.11964E+04
 0.35699997E+02 -0.95993E+03
 0.35749996E+02  0.11594E+03
 0.35799999E+02 -0.27756E+04
 0.35849998E+02 -0.41828E+04
 0.35899998E+02 -0.18215E+04
 0.35949997E+02  0.95982E+03
 0.35999996E+02 -0.11196E+04
 0.36049999E+02 -0.54188E+04
 0.36099998E+02 -0.40958E+04
 0.36149998E+02  0.92658E+03
 0.36199997E+02 -0.14260E+04
 0.36249996E+02 -0.12462E+04
 0.36299999E+02 -0.36031E+04
 0.36349998E+02 -0.57478E+04
 0.36399998E+02 -0.21541E+04
 0.36449997E+02 -0.15803E+04
 0.36499996E+02 -0.41425E+03
 0.36549999E+02 -0.43814E+03
 0.36599998E+02 -0.36273E+03
 0.36649998E+02 -0.12521E+04
 0.36699997E+02 -0.25923E+04
 0.36749996E+02 -0.21128E+04
 0.36799999E+02 -0.25026E+04
 0.36849998E+02 -0.24727E+04
 0.36899998E+02 -0.33025E+04
 0.36949997E+02 -0.47778E+04
 0.36999996E+02 -0.38915E+04
 0.37049999E+02  0.11282E+04
 0.37099998E+02  0.69016E+03
 0.37149998E+02 -0.35947E+04
 0.37199997E+02 -0.10476E+04
 0.37249996E+02 -0.64612E+03
 0.37299999E+02 -0.29691E+04
 0.37349998E+02 -0.25222E+04
 0.37399998E+02 -0.64254E+03
 0.37449997E+02 -0.31108E+04
 0.37499996E+02 -0.47416E+04
 0.37549999E+02 -0.44783E+03
 0.37599998E+02 -0.23653E+04
 0.37649998E+02 -0.43778E+04
 0.37699997E+02 -0.39964E+04
 0.37749996E+02 -0.35460E+04
 0.37799999E+02  0.28017E+03
 0.37849998E+02 -0.18423E+04
 0.37899998E+02  0.76521E+03
 0.37949997E+02  0.24167E+04
 0.37999996E+02 -0.19209E+04
 0.38049999E+02 -0.27050E+04
 0.38099998E+02 -0.28706E+04
 0.38149998E+02 -0.17737E+04
 0.38199997E+02 -0.22694E+04
 0.38249996E+02 -0.26533E+03
 0.38299999E+02 -0.66647E+03
 0.38349998E+02 -0.54700E+04
 0.38399998E+02 -0.36161E+04
 0.38449997E+02 -0.42386E+04
 0.38499996E+02 -0.55734E+04
 0.38549999E+02 -0.34036E+04
 0.38599998E+02 -0.24659E+03
 0.38649998E+02  0.37342E+04
 0.38699997E+02 -0.17381E+04
 0.38749996E+02 -0.58394E+04
 0.38799999E+02 -0.42907E+04
 0.38849998E+02 -0.34771E+04
 0.38899998E+02  0.15245E+03
 0.38949997E+02  0.18183E+04
 0.38999996E+02 -0.10346E+04
 0.39049999E+02 -0.36727E+04
 0.39099998E+02 -0.33710E+04
 0.39149998E+02 -0.31776E+04
 0.39199997E+02 -0.49890E+04
 0.39249996E+02 -0.26784E+04
 0.39299999E+02  0.28767E+03
 0.39349998E+02 -0.49087E+03
 0.39399998E+02 -0.35593E+03
 0.39449997E+02  0.18679E+03
 0.39499996E+02  0.41895E+03
 0.39549999E+02 -0.16069E+04
 0.39599998E+02 -0.47610E+04
 0.39649998E+02 -0.24095E+04
 0.39699997E+02 -0.19737E+04
 0.39749996E+02 -0.64186E+04
 0.39799999E+02 -0.52431E+04
 0.39849998E+02 -0.11455E+04
 0.39899998E+02 -0.11691E+04
 0.39949997E+02 -0.14235E+04
 0.39999996E+02 -0.21879E+04
 0.40049999E+02 -0.25141E+04
 0.40099998E+02 -0.14185E+04
 0.40149998E+02 -0.17103E+04
 0.40199997E+02 -0.29065E+04
 0.40249996E+02 -0.88926E+03
 0.40299999E+02  0.18635E+04
 0.40349998E+02 -0.24103E+04
 0.40399998E+02 -0.31691E+04
 0.40449997E+02 -0.18907E+04
 0.40499996E+02 -0.14620E+03
 0.40549999E+02 -0.75213E+03
 0.40599998E+02 -0.57295E+04
 0.40649998E+02 -0.53940E+04
 0.40699997E+02 -0.30244E+04
 0.40749996E+02 -0.65597E+03
 0.40799999E+02 -0.82450E+03
 0.40849998E+02 -0.32335E+04
 0.40899998E+02 -0.33208E+04
 0.40949997E+02 -0.15045E+04
 0.40999996E+02 -0.13475E+04
 0.41049999E+02 -0.41572E+04
 0.41099998E+02 -0.26945E+04
 0.41149998E+02  0.15730E+03
 0.41199997E+02 -0.16064E+04
 0.41249996E+02 -0.29001E+04
 0.41299999E+02 -0.84829E+03
 0.41349998E+02 -0.69752E+03
 0.41399998E+02 -0.23806E+04
 0.41449997E+02 -0.57066E+03
 0.41499996E+02 -0.27662E+04
 0.41549999E+02 -0.35650E+04
 0.41599998E+02 -0.78307E+03
 0.41649998E+02 -0.47557E+03
 0.41699997E+02 -0.13465E+04
 0.41749996E+02 -0.17993E+04
 0.41799999E+02 -0.25859E+04
 0.41849998E+02 -0.45323E+04
 0.41899998E+02 -0.23674E+04
 0.41949997E+02 -0.50918E+03
 0.41999996E+02 -0.21383E+04
 0.42049999E+02 -0.34239E+04
 0.42099998E+02 -0.15101E+04
 0.42149998E+02 -0.39416E+03
 0.42199997E+02 -0.12971E+04
 0.42249996E+02 -0.27776E+04
 0.42299999E+02 -0.40743E+04
 0.42349998E+02 -0.15515E+04
 0.42399998E+02 -0.22483E+04
 0.42449997E+02 -0.32703E+04
 0.42499996E+02 -0.23553E+04
 0.42549999E+02 -0.14037E+04
 0.42599998E+02 -0.68180E+03
 0.42649998E+02 -0.27103E+04
 0.42699997E+02 -0.23121E+04
 0.42749996E+02 -0.21322E+04
 0.42799995E+02 -0.20986E+04
 0.42849998E+02 -0.25099E+04
 0.42899998E+02 -0.19642E+04
 0.42949997E+02 -0.15232E+04
 0.42999996E+02 -0.14370E+04
 0.43049995E+02  0.17700E+03
 0.43099998E+02 -0.27889E+04
 0.43149998E+02 -0.43154E+04
 0.43199997E+02 -0.49578E+04
 0.43249996E+02 -0.42238E+04
 0.43299995E+02 -0.17457E+04
 0.43349998E+02 -0.13909E+04
 0.43399998E+02 -0.55392E+03
 0.43449997E+02 -0.97953E+03
 0.43499996E+02 -0.23976E+04
 0.43549995E+02 -0.23744E+04
 0.43599998E+02 -0.29655E+04
 0.43649998E+02 -0.41700E+04
 0.43699997E+02 -0.38251E+04
 0.43749996E+02 -0.37836E+04
 0.43799995E+02 -0.15522E+04
 0.43849998E+02 -0.50460E+03
 0.43899998E+02 -0.96222E+03
 0.43949997E+02 -0.13297E+04
 0.43999996E+02 -0.35676E+04
 0.44049995E+02 -0.35854E+04
 0.44099998E+02 -0.40504E+03
 0.44149998E+02 -0.10335E+03
 0.44199997E+02 -0.27328E+04
 0.44249996E+02 -0.27501E+04
 0.44299995E+02 -0.16180E+04
 0.44349998E+02  0.98574E+03
 0.44399998E+02  0.74056E+03
 0.44449997E+02 -0.17845E+04
 0.44499996E+02 -0.22885E+04
 0.44549995E+02 -0.32902E+04
 0.44599998E+02 -0.39723E+04
 0.44649998E+02 -0.23751E+04
 0.44699997E+02 -0.13539E+04
 0.44749996E+02 -0.16264E+04
 0.44799995E+02 -0.22724E+03
 0.44849998E+02 -0.27586E+03
 0.44899998E+02 -0.16135E+04
 0.44949997E+02 -0.33484E+04
 0.44999996E+02 -0.31789E+04
 0.45049995E+02 -0.24094E+04
 0.45099998E+02 -0.43875E+04
 0.45149998E+02 -0.41803E+04
 0.45199997E+02 -0.26618E+04
 0.45249996E+02 -0.15565E+04
 0.45299995E+02 -0.12009E+04
 0.45349998E+02 -0.20166E+04
 0.45399998E+02 -0.15447E+04
 0.45449997E+02 -0.23471E+04
 0.45499996E+02 -0.18161E+04
 0.45549995E+02 -0.17842E+03
 0.45599998E+02 -0.12080E+04
 0.45649998E+02 -0.19149E+04
 0.45699997E+02 -0.24441E+04
 0.45749996E+02 -0.28569E+04
 0.45799995E+02 -0.20546E+04
 0.45849998E+02 -0.23668E+04
 0.45899998E+02 -0.38970E+04
 0.45949997E+02 -0.15617E+04
 0.45999996E+02 -0.19162E+04
 0.46049995E+02 -0.39832E+04
 0.46099998E+02 -0.24736E+04
 0.46149998E+02 -0.18576E+04
 0.46199997E+02 -0.21822E+04
 0.46249996E+02 -0.15923E+04
 0.46299995E+02 -0.10978E+04
 0.46349998E+02 -0.19718E+04
 0.46399998E+02 -0.13235E+04
 0.46449997E+02 -0.22271E+04
 0.46499996E+02 -0.28217E+04
 0.46549995E+02 -0.18192E+04
 0.46599998E+02 -0.24282E+04
 0.46649998E+02 -0.28356E+04
 0.46699997E+02 -0.32747E+04
 0.46749996E+02 -0.35439E+04
 0.46799995E+02 -0.36525E+04
 0.46849998E+02 -0.29476E+04
 0.46899998E+02 -0.19058E+04
 0.46949997E+02 -0.16184E+04
 0.46999996E+02 -0.20872E+04
 0.47049995E+02 -0.26310E+04
 0.47099998E+02 -0.16202E+04
 0.47149998E+02 -0.38387E+03
 0.47199997E+02 -0.90973E+02
 0.47249996E+02 -0.10527E+04
 0.47299995E+02 -0.14742E+04
 0.47349998E+02 -0.24419E+04
 0.47399998E+02 -0.25211E+04
 0.47449997E+02  0.25530E+03
 0.47499996E+02  0.12032E+03
 0.47549995E+02 -0.16197E+04
 0.47599998E+02 -0.25040E+04
 0.47649998E+02 -0.25005E+04
 0.47699997E+02 -0.22251E+04
 0.47749996E+02 -0.20601E+04
 0.47799995E+02 -0.16684E+03
 0.47849998E+02  0.33590E+03
 0.47899998E+02 -0.23645E+04
 0.47949997E+02 -0.27581E+04
 0.47999996E+02 -0.26211E+04
 0.48049995E+02 -0.33480E+04
 0.48099998E+02 -0.25216E+04
 0.48149998E+02 -0.20438E+04
 0.48199997E+02 -0.25732E+04
 0.48249996E+02 -0.41385E+04
 0.48299995E+02 -0.41957E+04
 0.48349998E+02 -0.38124E+04
 0.48399998E+02 -0.28814E+04
 0.48449997E+02 -0.21801E+04
 0.48499996E+02 -0.27839E+04
 0.48549995E+02 -0.35298E+04
 0.48599998E+02 -0.29376E+04
 0.48649998E+02 -0.11892E+04
 0.48699997E+02 -0.10518E+04
 0.48749996E+02 -0.23639E+04
 0.48799995E+02 -0.19980E+04
 0.48849998E+02 -0.93842E+03
 0.48899998E+02 -0.18896E+04
 0.48949997E+02 -0.15106E+04
 0.48999996E+02 -0.54868E+03
 0.49049995E+02 -0.60765E+03
 0.49099998E+02 -0.20805E+04
 0.49149998E+02 -0.21886E+04
 0.49199997E+02 -0.14301E+04
 0.49249996E+02 -0.15682E+04
 0.49299995E+02 -0.18783E+04
 0.49349998E+02 -0.27032E+04
 0.49399998E+02 -0.18518E+04
 0.49449997E+02 -0.18270E+04
 0.49499996E+02 -0.26823E+04
 0.49549995E+02 -0.26786E+04
 0.49599998E+02 -0.35208E+04
 0.49649998E+02 -0.27707E+04
 0.49699997E+02 -0.16657E+04
 0.49749996E+02 -0.26672E+04
 0.49799995E+02 -0.25346E+04
 0.49849998E+02 -0.22958E+04
 0.49899998E+02 -0.20949E+04
 0.49949997E+02 -0.24825E+04
 0.49999996E+02 -0.28461E+04
 0.50049995E+02 -0.17502E+04
 0.50099998E+02 -0.82545E+03
 0.50149998E+02 -0.84014E+03
 0.50199997E+02 -0.18880E+04
 0.50249996E+02 -0.20047E+04
 0.50299995E+02 -0.19731E+04
 0.50349998E+02 -0.23541E+04
 0.50399998E+02 -0.22922E+04
 0.50449997E+02 -0.23373E+04
 0.50499996E+02 -0.19894E+04
 0.50549995E+02 -0.18158E+04
 0.50599998E+02 -0.18677E+04
 0.50649998E+02 -0.20374E+04
 0.50699997E+02 -0.24659E+04
 0.50749996E+02 -0.17769E+04
 0.50799995E+02 -0.17629E+04
 0.50849998E+02 -0.18794E+04
 0.50899998E+02 -0.13352E+04
 0.50949997E+02 -0.18043E+04
 0.50999996E+02 -0.26118E+04
 0.51049995E+02 -0.32097E+04
 0.51099998E+02 -0.33908E+04
 0.51149998E+02 -0.32276E+04
 0.51199997E+02 -0.26966E+04
 0.51249996E+02 -0.21625E+04
 0.51299995E+02 -0.16718E+04
 0.51349998E+02 -0.18807E+04
 0.51399998E+02 -0.29249E+04
 0.51449997E+02 -0.28687E+04
 0.51499996E+02 -0.25595E+04
 0.51549995E+02 -0.21154E+04
 0.51599998E+02 -0.16825E+04
 0.51649998E+02 -0.23337E+04
 0.51699997E+02 -0.23894E+04
 0.51749996E+02 -0.10936E+04
 0.51799995E+02 -0.94708E+03
 0.51849998E+02 -0.20412E+04
 0.51899998E+02 -0.12941E+04
 0.51949997E+02 -0.10400E+04
 0.51999996E+02 -0.19128E+04
 0.52049995E+02 -0.16178E+04
 0.52099998E+02 -0.20395E+04
 0.52149998E+02 -0.22769E+04
 0.52199997E+02 -0.19610E+04
 0.52249996E+02 -0.23115E+04
 0.52299995E+02 -0.29340E+04
 0.52349998E+02 -0.29512E+04
 0.52399998E+02 -0.24463E+04
 0.52449997E+02 -0.24933E+04
 0.52499996E+02 -0.20729E+04
 0.52549995E+02 -0.18198E+04
 0.52599998E+02 -0.20545E+04
 0.52649998E+02 -0.13599E+04
 0.52699997E+02 -0.83385E+03
 0.52749996E+02 -0.11510E+04
 0.52799995E+02 -0.13486E+04
 0.52849998E+02 -0.14301E+04
 0.52899998E+02 -0.22833E+04
 0.52949997E+02 -0.27360E+04
 0.52999996E+02 -0.23621E+04
 0.53049995E+02 -0.17530E+04
 0.53099998E+02 -0.11966E+04
 0.53149998E+02 -0.13780E+04
 0.53199997E+02 -0.17892E+04
 0.53249996E+02 -0.21622E+04
 0.53299995E+02 -0.18352E+04
 0.53349998E+02 -0.24381E+04
 0.53399998E+02 -0.21542E+04
 0.53449997E+02 -0.18778E+04
 0.53499996E+02 -0.29476E+04
 0.53549995E+02 -0.26440E+04
 0.53599998E+02 -0.26345E+04
 0.53649998E+02 -0.25951E+04
 0.53699997E+02 -0.18841E+04
 0.53749996E+02 -0.18704E+04
 0.53799995E+02 -0.31601E+04
 0.53849998E+02 -0.38001E+04
 0.53899998E+02 -0.31527E+04
 0.53949997E+02 -0.25609E+04
 0.53999996E+02 -0.22483E+04
 0.54049995E+02 -0.19348E+04
 0.54099998E+02 -0.15124E+04
 0.54149998E+02 -0.17340E+04
 0.54199997E+02 -0.19765E+04
 0.54249996E+02 -0.23911E+04
 0.54299995E+02 -0.22845E+04
 0.54349998E+02 -0.19381E+04
 0.54399998E+02 -0.20253E+04
 0.54449997E+02 -0.23640E+04
 0.54499996E+02 -0.24711E+04
 0.54549995E+02 -0.15102E+04
 0.54599998E+02 -0.17421E+04
 0.54649998E+02 -0.24588E+04
 0.54699997E+02 -0.23328E+04
 0.54749996E+02 -0.21248E+04
 0.54799995E+02 -0.25111E+04
 0.54849998E+02 -0.22398E+04
 0.54899998E+02 -0.18621E+04
 0.54949997E+02 -0.19684E+04
 0.54999996E+02 -0.15504E+04
 0.55049995E+02 -0.17520E+04
 0.55099998E+02 -0.21462E+04
 0.55149998E+02 -0.20437E+04
 0.55199997E+02 -0.22744E+04
 0.55249996E+02 -0.23983E+04
 0.55299995E+02 -0.20421E+04
 0.55349998E+02 -0.20383E+04
 0.55399998E+02 -0.19633E+04
 0.55449997E+02 -0.18017E+04
 0.55499996E+02 -0.15692E+04
 0.55549995E+02 -0.15599E+04
 0.55599998E+02 -0.17427E+04
 0.55649998E+02 -0.17698E+04
 0.55699997E+02 -0.19848E+04
 0.55749996E+02 -0.24041E+04
 0.55799995E+02 -0.20606E+04
 0.55849995E+02 -0.15515E+04
 0.55899998E+02 -0.17902E+04
 0.55949997E+02 -0.20297E+04
 0.55999996E+02 -0.22011E+04
 0.56049995E+02 -0.22007E+04
 0.56099995E+02 -0.19335E+04
 0.56149998E+02 -0.22258E+04
 0.56199997E+02 -0.28081E+04
 0.56249996E+02 -0.27001E+04
 0.56299995E+02 -0.21503E+04
 0.56349995E+02 -0.18669E+04
 0.56399998E+02 -0.17473E+04
 0.56449997E+02 -0.15166E+04
 0.56499996E+02 -0.18061E+04
 0.56549995E+02 -0.23106E+04
 0.56599995E+02 -0.17677E+04
 0.56649998E+02 -0.13523E+04
 0.56699997E+02 -0.19576E+04
 0.56749996E+02 -0.21933E+04
 0.56799995E+02 -0.25417E+04
 0.56849995E+02 -0.25742E+04
 0.56899998E+02 -0.21321E+04
 0.56949997E+02 -0.22318E+04
 0.56999996E+02 -0.22533E+04
 0.57049995E+02 -0.19964E+04
 0.57099995E+02 -0.17897E+04
 0.57149998E+02 -0.18058E+04
 0.57199997E+02 -0.21619E+04
 0.57249996E+02 -0.21620E+04
 0.57299995E+02 -0.24041E+04
 0.57349995E+02 -0.26182E+04
 0.57399998E+02 -0.25518E+04
 0.57449997E+02 -0.25005E+04
 0.57499996E+02 -0.21389E+04
 0.57549995E+02 -0.19603E+04
 0.57599995E+02 -0.20593E+04
 0.57649998E+02 -0.22699E+04
 0.57699997E+02 -0.23303E+04
 0.57749996E+02 -0.23359E+04
 0.57799995E+02 -0.17263E+04
 0.57849995E+02 -0.18195E+04
 0.57899998E+02 -0.20223E+04
 0.57949997E+02 -0.19300E+04
 0.57999996E+02 -0.19588E+04
 0.58049995E+02 -0.13853E+04
 0.58099995E+02 -0.18600E+04
 0.58149998E+02 -0.19579E+04
 0.58199997E+02 -0.17923E+04
 0.58249996E+02 -0.20124E+04
 0.58299995E+02 -0.19339E+04
 0.58349995E+02 -0.22303E+04
 0.58399998E+02 -0.23115E+04
 0.58449997E+02 -0.22209E+04
 0.58499996E+02 -0.23676E+04
 0.58549995E+02 -0.27073E+04
 0.58599995E+02 -0.24289E+04
 0.58649998E+02 -0.19304E+04
 0.58699997E+02 -0.19297E+04
 0.58749996E+02 -0.21560E+04
 0.58799995E+02 -0.24520E+04
 0.58849995E+02 -0.25294E+04
 0.58899998E+02 -0.22997E+04
 0.58949997E+02 -0.23578E+04
 0.58999996E+02 -0.26501E+04
 0.59049995E+02 -0.24841E+04
 0.59099995E+02 -0.21267E+04
 0.59149998E+02 -0.24455E+04
 0.59199997E+02 -0.28576E+04
 0.59249996E+02 -0.21064E+04
 0.59299995E+02 -0.15369E+04
 0.59349995E+02 -0.18687E+04
 0.59399998E+02 -0.24219E+04
 0.59449997E+02 -0.22531E+04
 0.59499996E+02 -0.18965E+04
 0.59549995E+02 -0.17644E+04
 0.59599995E+02 -0.17014E+04
 0.59649998E+02 -0.17058E+04
 0.59699997E+02 -0.12029E+04
 0.59749996E+02 -0.12479E+04
 0.59799995E+02 -0.14794E+04
 0.59849995E+02 -0.18451E+04
 0.59899998E+02 -0.26493E+04
 0.59949997E+02 -0.25024E+04
 0.59999996E+02 -0.20746E+04
 0.60049995E+02 -0.18812E+04
 0.60099995E+02 -0.19002E+04
 0.60149998E+02 -0.19117E+04
 0.60199997E+02 -0.16954E+04
 0.60249996E+02 -0.22772E+04
 0.60299995E+02 -0.25689E+04
 0.60349995E+02 -0.28475E+04
 0.60399998E+02 -0.29130E+04
 0.60449997E+02 -0.28219E+04
 0.60499996E+02 -0.26999E+04
 0.60549995E+02 -0.20194E+04
 0.60599995E+02 -0.18722E+04
 0.60649998E+02 -0.18791E+04
 0.60699997E+02 -0.22216E+04
 0.60749996E+02 -0.21556E+04
 0.60799995E+02 -0.22020E+04
 0.60849995E+02 -0.24244E+04
 0.60899998E+02 -0.20316E+04
 0.60949997E+02 -0.21120E+04
 0.60999996E+02 -0.24740E+04
 0.61049995E+02 -0.23585E+04
 0.61099995E+02 -0.18266E+04
 0.61149998E+02 -0.18182E+04
 0.61199997E+02 -0.16339E+04
 0.61249996E+02 -0.15452E+04
 0.61299995E+02 -0.18829E+04
 0.61349995E+02 -0.17905E+04
 0.61399998E+02 -0.17925E+04
 0.61449997E+02 -0.16943E+04
 0.61499996E+02 -0.17240E+04
 0.61549995E+02 -0.15869E+04
 0.61599995E+02 -0.14684E+04
 0.61649998E+02 -0.17439E+04
 0.61699997E+02 -0.18580E+04
 0.61749996E+02 -0.20935E+04
 0.61799995E+02 -0.23339E+04
 0.61849995E+02 -0.23769E+04
 0.61899998E+02 -0.22920E+04
 0.61949997E+02 -0.21819E+04
 0.61999996E+02 -0.20743E+04
 0.62049995E+02 -0.19808E+04
 0.62099998E+02 -0.19255E+04
 0.62149994E+02 -0.22746E+04
 0.62199997E+02 -0.23382E+04
 0.62249992E+02 -0.18341E+04
 0.62299995E+02 -0.15096E+04
 0.62349998E+02 -0.18956E+04
 0.62399994E+02 -0.25445E+04
 0.62449997E+02 -0.26184E+04
 0.62499992E+02 -0.24864E+04
 0.62549995E+02 -0.23802E+04
 0.62599998E+02 -0.26598E+04
 0.62649994E+02 -0.27940E+04
 0.62699997E+02 -0.25460E+04
 0.62749992E+02 -0.22453E+04
 0.62799995E+02 -0.19444E+04
 0.62849998E+02 -0.18754E+04
 0.62899994E+02 -0.19751E+04
 0.62949997E+02 -0.19462E+04
 0.62999992E+02 -0.18839E+04
 0.63049995E+02 -0.21918E+04
 0.63099998E+02 -0.23753E+04
 0.63149994E+02 -0.21324E+04
 0.63199997E+02 -0.17029E+04
 0.63249992E+02 -0.18639E+04
 0.63299995E+02 -0.20663E+04
 0.63349998E+02 -0.19328E+04
 0.63399994E+02 -0.17596E+04
 0.63449997E+02 -0.17058E+04
 0.63499992E+02 -0.20440E+04
 0.63549995E+02 -0.23783E+04
 0.63599998E+02 -0.23620E+04
 0.63649994E+02 -0.19816E+04
 0.63699997E+02 -0.18167E+04
 0.63749992E+02 -0.18228E+04
 0.63799995E+02 -0.20175E+04
 0.63849998E+02 -0.20221E+04
 0.63899994E+02 -0.19687E+04
 0.63949997E+02 -0.19901E+04
 0.63999992E+02 -0.21213E+04
 0.64049995E+02 -0.23923E+04
 0.64099998E+02 -0.25455E+04
 0.64149994E+02 -0.24172E+04
 0.64199997E+02 -0.24657E+04
 0.64249992E+02 -0.25686E+04
 0.64299995E+02 -0.21629E+04
 0.64349998E+02 -0.18315E+04
 0.64399994E+02 -0.19562E+04
 0.64449997E+02 -0.23284E+04
 0.64499992E+02 -0.22105E+04
 0.64549995E+02 -0.21362E+04
 0.64599998E+02 -0.19744E+04
 0.64649994E+02 -0.19113E+04
 0.64699997E+02 -0.20850E+04
 0.64749992E+02 -0.20413E+04
 0.64799995E+02 -0.18501E+04
 0.64849998E+02 -0.17115E+04
 0.64899994E+02 -0.18633E+04
 0.64949997E+02 -0.17766E+04
 0.64999992E+02 -0.16716E+04
 0.65049995E+02 -0.16752E+04
 0.65099998E+02 -0.19021E+04
 0.65149994E+02 -0.21102E+04
 0.65199997E+02 -0.21615E+04
 0.65249992E+02 -0.22664E+04
 0.65299995E+02 -0.21711E+04
 0.65349998E+02 -0.19748E+04
 0.65399994E+02 -0.21289E+04
 0.65449997E+02 -0.23755E+04
 0.65499992E+02 -0.23997E+04
 0.65549995E+02 -0.24681E+04
 0.65599998E+02 -0.23305E+04
 0.65649994E+02 -0.21369E+04
 0.65699997E+02 -0.21068E+04
 0.65749992E+02 -0.20466E+04
 0.65799995E+02 -0.18446E+04
 0.65849998E+02 -0.19096E+04
 0.65899994E+02 -0.24707E+04
 0.65949997E+02 -0.24896E+04
 0.65999992E+02 -0.19753E+04
 0.66049995E+02 -0.19806E+04
 0.66099998E+02 -0.20652E+04
 0.66149994E+02 -0.22269E+04
 0.66199997E+02 -0.25427E+04
 0.66249992E+02 -0.26058E+04
 0.66299995E+02 -0.25645E+04
 0.66349998E+02 -0.21994E+04
 0.66399994E+02 -0.19480E+04
 0.66449997E+02 -0.18999E+04
 0.66499992E+02 -0.21595E+04
 0.66549995E+02 -0.23007E+04
 0.66599998E+02 -0.20345E+04
 0.66649994E+02 -0.20219E+04
 0.66699997E+02 -0.19106E+04
 0.66749992E+02 -0.17775E+04
 0.66799995E+02 -0.15563E+04
 0.66849998E+02 -0.16818E+04
 0.66899994E+02 -0.18951E+04
 0.66949997E+02 -0.17248E+04
 0.66999992E+02 -0.18536E+04
 0.67049995E+02 -0.20562E+04
 0.67099998E+02 -0.20068E+04
 0.67149994E+02 -0.18642E+04
 0.67199997E+02 -0.18250E+04
 0.67249992E+02 -0.20164E+04
 0.67299995E+02 -0.23649E+04
 0.67349998E+02 -0.24297E+04
 0.67399994E+02 -0.22584E+04
 0.67449997E+02 -0.21955E+04
 0.67499992E+02 -0.23542E+04
 0.67549995E+02 -0.23645E+04
 0.67599998E+02 -0.20041E+04
 0.67649994E+02 -0.20144E+04
 0.67699997E+02 -0.19899E+04
 0.67749992E+02 -0.19922E+04
 0.67799995E+02 -0.23028E+04
 0.67849998E+02 -0.24265E+04
 0.67899994E+02 -0.22163E+04
 0.67949997E+02 -0.18891E+04
 0.67999992E+02 -0.20178E+04
 0.68049995E+02 -0.19506E+04
 0.68099998E+02 -0.18790E+04
 0.68149994E+02 -0.19163E+04
 0.68199997E+02 -0.18514E+04
 0.68249992E+02 -0.20153E+04
 0.68299995E+02 -0.22232E+04
 0.68349998E+02 -0.24791E+04
 0.68399994E+02 -0.23909E+04
 0.68449997E+02 -0.21887E+04
 0.68499992E+02 -0.22971E+04
 0.68549995E+02 -0.23333E+04
 0.68599998E+02 -0.21398E+04
 0.68649994E+02 -0.19724E+04
 0.68699997E+02 -0.20650E+04
 0.68749992E+02 -0.22976E+04
 0.68799995E+02 -0.24948E+04
 0.68849998E+02 -0.24574E+04
 0.68899994E+02 -0.22565E+04
 0.68949997E+02 -0.20053E+04
 0.68999992E+02 -0.18492E+04
 0.69049995E+02 -0.20458E+04
 0.69099998E+02 -0.21152E+04
 0.69149994E+02 -0.21022E+04
 0.69199997E+02 -0.22189E+04
 0.69249992E+02 -0.23036E+04
 0.69299995E+02 -0.24609E+04
 0.69349998E+02 -0.23926E+04
 0.69399994E+02 -0.23252E+04
 0.69449997E+02 -0.23424E+04
 0.69499992E+02 -0.20824E+04
 0.69549995E+02 -0.20046E+04
 0.69599998E+02 -0.20274E+04
 0.69649994E+02 -0.20805E+04
 0.69699997E+02 -0.20529E+04
 0.69749992E+02 -0.19318E+04
 0.69799995E+02 -0.19091E+04
 0.69849998E+02 -0.20582E+04
 0.69899994E+02 -0.22443E+04
 0.69949997E+02 -0.20984E+04
 0.69999992E+02 -0.20515E+04
 0.70049995E+02 -0.20350E+04
 0.70099998E+02 -0.19236E+04
 0.70149994E+02 -0.18628E+04
 0.70199997E+02 -0.18634E+04
 0.70249992E+02 -0.17891E+04
 0.70299995E+02 -0.17784E+04
 0.70349998E+02 -0.17290E+04
 0.70399994E+02 -0.17489E+04
 0.70449997E+02 -0.20185E+04
 0.70499992E+02 -0.21280E+04
 0.70549995E+02 -0.22122E+04
 0.70599998E+02 -0.23183E+04
 0.70649994E+02 -0.23216E+04
 0.70699997E+02 -0.22174E+04
 0.70749992E+02 -0.21089E+04
 0.70799995E+02 -0.20186E+04
 0.70849998E+02 -0.20050E+04
 0.70899994E+02 -0.20203E+04
 0.70949997E+02 -0.19988E+04
 0.70999992E+02 -0.20572E+04
 0.71049995E+02 -0.20952E+04
 0.71099998E+02 -0.20994E+04
 0.71149994E+02 -0.20975E+04
 0.71199997E+02 -0.20659E+04
 0.71249992E+02 -0.19598E+04
 0.71299995E+02 -0.18219E+04
 0.71349998E+02 -0.18327E+04
 0.71399994E+02 -0.20498E+04
 0.71449997E+02 -0.20962E+04
 0.71499992E+02 -0.20193E+04
 0.71549995E+02 -0.21708E+04
 0.71599998E+02 -0.22692E+04
 0.71649994E+02 -0.22797E+04
 0.71699997E+02 -0.21353E+04
 0.71749992E+02 -0.19724E+04
 0.71799995E+02 -0.19050E+04
 0.71849998E+02 -0.18466E+04
 0.71899994E+02 -0.19366E+04
 0.71949997E+02 -0.21534E+04
 0.71999992E+02 -0.22844E+04
 0.72049995E+02 -0.22290E+04
 0.72099998E+02 -0.20236E+04
 0.72149994E+02 -0.20026E+04
 0.72199997E+02 -0.21531E+04
 0.72249992E+02 -0.21032E+04
 0.72299995E+02 -0.21187E+04
 0.72349998E+02 -0.23251E+04
 0.72399994E+02 -0.25458E+04
 0.72449997E+02 -0.24642E+04
 0.72499992E+02 -0.23774E+04
 0.72549995E+02 -0.22865E+04
 0.72599998E+02 -0.22609E+04
 0.72649994E+02 -0.22778E+04
 0.72699997E+02 -0.20879E+04
 0.72749992E+02 -0.19384E+04
 0.72799995E+02 -0.18185E+04
 0.72849998E+02 -0.19075E+04
 0.72899994E+02 -0.21072E+04
 0.72949997E+02 -0.21082E+04
 0.72999992E+02 -0.20116E+04
 0.73049995E+02 -0.20675E+04
 0.73099998E+02 -0.21493E+04
 0.73149994E+02 -0.20612E+04
 0.73199997E+02 -0.18155E+04
 0.73249992E+02 -0.16338E+04
 0.73299995E+02 -0.18057E+04
 0.73349998E+02 -0.20943E+04
 0.73399994E+02 -0.20760E+04
 0.73449997E+02 -0.20885E+04
 0.73499992E+02 -0.23176E+04
 0.73549995E+02 -0.23441E+04
 0.73599998E+02 -0.22351E+04
 0.73649994E+02 -0.21225E+04
 0.73699997E+02 -0.20046E+04
 0.73749992E+02 -0.20065E+04
 0.73799995E+02 -0.21190E+04
 0.73849998E+02 -0.21645E+04
 0.73899994E+02 -0.20769E+04
 0.73949997E+02 -0.22169E+04
 0.73999992E+02 -0.22852E+04
 0.74049995E+02 -0.21708E+04
 0.74099998E+02 -0.20551E+04
 0.74149994E+02 -0.18626E+04
 0.74199997E+02 -0.17502E+04
 0.74249992E+02 -0.18743E+04
 0.74299995E+02 -0.20277E+04
 0.74349998E+02 -0.19861E+04
 0.74399994E+02 -0.21683E+04
 0.74449997E+02 -0.22740E+04
 0.74499992E+02 -0.19574E+04
 0.74549995E+02 -0.19169E+04
 0.74599998E+02 -0.21202E+04
 0.74649994E+02 -0.21006E+04
 0.74699997E+02 -0.20317E+04
 0.74749992E+02 -0.20979E+04
 0.74799995E+02 -0.22111E+04
 0.74849998E+02 -0.22697E+04
 0.74899994E+02 -0.22669E+04
 0.74949997E+02 -0.23331E+04
 0.74999992E+02 -0.24244E+04
 0.75049995E+02 -0.22110E+04
 0.75099998E+02 -0.20288E+04
 0.75149994E+02 -0.21546E+04
 0.75199997E+02 -0.22161E+04
 0.75249992E+02 -0.22807E+04
 0.75299995E+02 -0.23545E+04
 0.75349998E+02 -0.20683E+04
 0.75399994E+02 -0.19156E+04
 0.75449997E+02 -0.19315E+04
 0.75499992E+02 -0.18238E+04
 0.75549995E+02 -0.18582E+04
 0.75599998E+02 -0.20227E+04
 0.75649994E+02 -0.22143E+04
 0.75699997E+02 -0.22517E+04
 0.75749992E+02 -0.21740E+04
 0.75799995E+02 -0.23307E+04
 0.75849998E+02 -0.23450E+04
 0.75899994E+02 -0.20510E+04
 0.75949997E+02 -0.19569E+04
 0.75999992E+02 -0.19024E+04
 0.76049995E+02 -0.18322E+04
 0.76099998E+02 -0.18707E+04
 0.76149994E+02 -0.19045E+04
 0.76199997E+02 -0.20139E+04
 0.76249992E+02 -0.19972E+04
 0.76299995E+02 -0.17988E+04
 0.76349998E+02 -0.18290E+04
 0.76399994E+02 -0.20363E+04
 0.76449997E+02 -0.21397E+04
 0.76499992E+02 -0.20879E+04
 0.76549995E+02 -0.20937E+04
 0.76599998E+02 -0.21252E+04
 0.76649994E+02 -0.20154E+04
 0.76699997E+02 -0.20292E+04
 0.76749992E+02 -0.22193E+04
 0.76799995E+02 -0.23376E+04
 0.76849998E+02 -0.24232E+04
 0.76899994E+02 -0.23314E+04
 0.76949997E+02 -0.22423E+04
 0.76999992E+02 -0.22365E+04
 0.77049995E+02 -0.21150E+04
 0.77099998E+02 -0.20416E+04
 0.77149994E+02 -0.21067E+04
 0.77199997E+02 -0.23382E+04
 0.77249992E+02 -0.23888E+04
 0.77299995E+02 -0.23451E+04
 0.77349998E+02 -0.21700E+04
 0.77399994E+02 -0.21273E+04
 0.77449997E+02 -0.22212E+04
 0.77499992E+02 -0.21192E+04
 0.77549995E+02 -0.20766E+04
 0.77599998E+02 -0.19219E+04
 0.77649994E+02 -0.18914E+04
 0.77699997E+02 -0.18753E+04
 0.77749992E+02 -0.18211E+04
 0.77799995E+02 -0.17436E+04
 0.77849998E+02 -0.16841E+04
 0.77899994E+02 -0.17735E+04
 0.77949997E+02 -0.18972E+04
 0.77999992E+02 -0.20500E+04
 0.78049995E+02 -0.21140E+04
 0.78099998E+02 -0.21289E+04
 0.78149994E+02 -0.20668E+04
 0.78199997E+02 -0.20659E+04
 0.78249992E+02 -0.21365E+04
 0.78299995E+02 -0.21321E+04
 0.78349998E+02 -0.21923E+04
 0.78399994E+02 -0.23491E+04
 0.78449997E+02 -0.23875E+04
 0.78499992E+02 -0.22877E+04
 0.78549995E+02 -0.22029E+04
 0.78599998E+02 -0.22604E+04
 0.78649994E+02 -0.21583E+04
 0.78699997E+02 -0.20146E+04
 0.78749992E+02 -0.19460E+04
 0.78799995E+02 -0.18771E+04
 0.78849998E+02 -0.19001E+04
 0.78899994E+02 -0.19606E+04
 0.78949997E+02 -0.21400E+04
 0.78999992E+02 -0.22025E+04
 0.79049995E+02 -0.21884E+04
 0.79099998E+02 -0.21515E+04
 0.79149994E+02 -0.21823E+04
 0.79199997E+02 -0.22465E+04
 0.79249992E+02 -0.22198E+04
 0.79299995E+02 -0.21594E+04
 0.79349998E+02 -0.21078E+04
 0.79399994E+02 -0.20558E+04
 0.79449997E+02 -0.20348E+04
 0.79499992E+02 -0.20931E+04
 0.79549995E+02 -0.21254E+04
 0.79599998E+02 -0.22529E+04
 0.79649994E+02 -0.24450E+04
 0.79699997E+02 -0.24725E+04
 0.79749992E+02 -0.22920E+04
 0.79799995E+02 -0.19747E+04
 0.79849998E+02 -0.16992E+04
 0.79899994E+02 -0.16740E+04
 0.79949997E+02 -0.18510E+04
 0.79999992E+02 -0.20156E+04
 0.80049995E+02 -0.20746E+04
 0.80099998E+02 -0.20570E+04
 0.80149994E+02 -0.19768E+04
 0.80199997E+02 -0.19446E+04
 0.80249992E+02 -0.20409E+04
 0.80299995E+02 -0.20350E+04
 0.80349998E+02 -0.19260E+04
 0.80399994E+02 -0.20153E+04
 0.80449997E+02 -0.21543E+04
 0.80499992E+02 -0.21586E+04
 0.80549995E+02 -0.21444E+04
 0.80599998E+02 -0.22575E+04
 0.80649994E+02 -0.22375E+04
 0.80699997E+02 -0.21194E+04
 0.80749992E+02 -0.20459E+04
 0.80799995E+02 -0.20081E+04
 0.80849998E+02 -0.21072E+04
 0.80899994E+02 -0.22130E+04
 0.80949997E+02 -0.23565E+04
 0.80999992E+02 -0.24288E+04
 0.81049995E+02 -0.24201E+04
 0.81099998E+02 -0.22369E+04
 0.81149994E+02 -0.21005E+04
 0.81199997E+02 -0.21337E+04
 0.81249992E+02 -0.20496E+04
 0.81299995E+02 -0.19388E+04
 0.81349998E+02 -0.19062E+04
 0.81399994E+02 -0.19828E+04
 0.81449997E+02 -0.20263E+04
 0.81499992E+02 -0.20470E+04
 0.81549995E+02 -0.20721E+04
 0.81599998E+02 -0.20468E+04
 0.81649994E+02 -0.20573E+04
 0.81699997E+02 -0.21160E+04
 0.81749992E+02 -0.21597E+04
 0.81799995E+02 -0.22100E+04
 0.81849998E+02 -0.21772E+04
 0.81899994E+02 -0.21515E+04
 0.81949997E+02 -0.21176E+04
 0.81999992E+02 -0.19458E+04
 0.82049995E+02 -0.18294E+04
 0.82099998E+02 -0.18604E+04
 0.82149994E+02 -0.19236E+04
 0.82199997E+02 -0.20672E+04
 0.82249992E+02 -0.23632E+04
 0.82299995E+02 -0.23560E+04
 0.82349998E+02 -0.21042E+04
 0.82399994E+02 -0.19807E+04
 0.82449997E+02 -0.19965E+04
 0.82499992E+02 -0.20640E+04
 0.82549995E+02 -0.20731E+04
 0.82599998E+02 -0.21089E+04
 0.82649994E+02 -0.21742E+04
 0.82699997E+02 -0.22348E+04
 0.82749992E+02 -0.22010E+04
 0.82799995E+02 -0.21160E+04
 0.82849998E+02 -0.20711E+04
 0.82899994E+02 -0.20417E+04
 0.82949997E+02 -0.20660E+04
 0.82999992E+02 -0.20781E+04
 0.83049995E+02 -0.20185E+04
 0.83099998E+02 -0.20786E+04
 0.83149994E+02 -0.21813E+04
 0.83199997E+02 -0.21409E+04
 0.83249992E+02 -0.20948E+04
 0.83299995E+02 -0.20005E+04
 0.83349998E+02 -0.19302E+04
 0.83399994E+02 -0.20603E+04
 0.83449997E+02 -0.21750E+04
 0.83499992E+02 -0.21913E+04
 0.83549995E+02 -0.20836E+04
 0.83599998E+02 -0.19334E+04
 0.83649994E+02 -0.19510E+04
 0.83699997E+02 -0.19453E+04
 0.83749992E+02 -0.19208E+04
 0.83799995E+02 -0.19554E+04
 0.83849998E+02 -0.20568E+04
 0.83899994E+02 -0.21170E+04
 0.83949997E+02 -0.22295E+04
 0.83999992E+02 -0.23520E+04
 0.84049995E+02 -0.22374E+04
 0.84099998E+02 -0.20429E+04
 0.84149994E+02 -0.19335E+04
 0.84199997E+02 -0.20113E+04
 0.84249992E+02 -0.20642E+04
 0.84299995E+02 -0.20619E+04
 0.84349998E+02 -0.20220E+04
 0.84399994E+02 -0.20885E+04
 0.84449997E+02 -0.22474E+04
 0.84499992E+02 -0.23042E+04
 0.84549995E+02 -0.22929E+04
 0.84599998E+02 -0.22262E+04
 0.84649994E+02 -0.22085E+04
 0.84699997E+02 -0.20827E+04
 0.84749992E+02 -0.18900E+04
 0.84799995E+02 -0.18652E+04
 0.84849998E+02 -0.19705E+04
 0.84899994E+02 -0.20320E+04
 0.84949997E+02 -0.20456E+04
 0.84999992E+02 -0.21133E+04
 0.85049995E+02 -0.20920E+04
 0.85099998E+02 -0.19721E+04
 0.85149994E+02 -0.19331E+04
 0.85199997E+02 -0.20311E+04
 0.85249992E+02 -0.21218E+04
 0.85299995E+02 -0.21668E+04
 0.85349998E+02 -0.22367E+04
 0.85399994E+02 -0.22151E+04
 0.85449997E+02 -0.21508E+04
 0.85499992E+02 -0.20955E+04
 0.85549995E+02 -0.22032E+04
 0.85599998E+02 -0.22934E+04
 0.85649994E+02 -0.20794E+04
 0.85699997E+02 -0.19440E+04
 0.85749992E+02 -0.19670E+04
 0.85799995E+02 -0.19549E+04
 0.85849998E+02 -0.20118E+04
 0.85899994E+02 -0.20349E+04
 0.85949997E+02 -0.20466E+04
 0.85999992E+02 -0.21209E+04
 0.86049995E+02 -0.21451E+04
 0.86099998E+02 -0.22270E+04
 0.86149994E+02 -0.22581E+04
 0.86199997E+02 -0.22790E+04
 0.86249992E+02 -0.22933E+04
 0.86299995E+02 -0.22422E+04
 0.86349998E+02 -0.21800E+04
 0.86399994E+02 -0.20722E+04
 0.86449997E+02 -0.20530E+04
 0.86499992E+02 -0.20885E+04
 0.86549995E+02 -0.21069E+04
 0.86599998E+02 -0.21166E+04
 0.86649994E+02 -0.20227E+04
 0.86699997E+02 -0.20659E+04
 0.86749992E+02 -0.22096E+04
 0.86799995E+02 -0.21232E+04
 0.86849998E+02 -0.20818E+04
 0.86899994E+02 -0.21776E+04
 0.86949997E+02 -0.22055E+04
 0.86999992E+02 -0.22298E+04
 0.87049995E+02 -0.21769E+04
 0.87099998E+02 -0.20292E+04
 0.87149994E+02 -0.19310E+04
 0.87199997E+02 -0.18646E+04
 0.87249992E+02 -0.19230E+04
 0.87299995E+02 -0.19625E+04
 0.87349998E+02 -0.20362E+04
 0.87399994E+02 -0.21941E+04
 0.87449997E+02 -0.21712E+04
 0.87499992E+02 -0.20283E+04
 0.87549995E+02 -0.20262E+04
 0.87599991E+02 -0.20825E+04
 0.87649994E+02 -0.21009E+04
 0.87699997E+02 -0.21463E+04
 0.87749992E+02 -0.21807E+04
 0.87799995E+02 -0.22000E+04
 0.87849991E+02 -0.21578E+04
 0.87899994E+02 -0.22512E+04
 0.87949997E+02 -0.23082E+04
 0.87999992E+02 -0.22626E+04
 0.88049995E+02 -0.22223E+04
 0.88099991E+02 -0.21004E+04
 0.88149994E+02 -0.20365E+04
 0.88199997E+02 -0.20228E+04
 0.88249992E+02 -0.19293E+04
 0.88299995E+02 -0.19455E+04
 0.88349991E+02 -0.20223E+04
 0.88399994E+02 -0.20396E+04
 0.88449997E+02 -0.20937E+04
 0.88499992E+02 -0.20730E+04
 0.88549995E+02 -0.20161E+04
 0.88599991E+02 -0.19415E+04
 0.88649994E+02 -0.19111E+04
 0.88699997E+02 -0.19938E+04
 0.88749992E+02 -0.21222E+04
 0.88799995E+02 -0.21392E+04
 0.88849991E+02 -0.21039E+04
 0.88899994E+02 -0.21329E+04
 0.88949997E+02 -0.20739E+04
 0.88999992E+02 -0.19390E+04
 0.89049995E+02 -0.18366E+04
 0.89099991E+02 -0.17800E+04
 0.89149994E+02 -0.18644E+04
 0.89199997E+02 -0.20197E+04
 0.89249992E+02 -0.21016E+04
 0.89299995E+02 -0.20716E+04
 0.89349991E+02 -0.20758E+04
 0.89399994E+02 -0.21151E+04
 0.89449997E+02 -0.20586E+04
 0.89499992E+02 -0.20950E+04
 0.89549995E+02 -0.21703E+04
 0.89599991E+02 -0.21807E+04
 0.89649994E+02 -0.20965E+04
 0.89699997E+02 -0.19630E+04
 0.89749992E+02 -0.19439E+04
 0.89799995E+02 -0.20221E+04
 0.89849991E+02 -0.21514E+04
 0.89899994E+02 -0.22363E+04
 0.89949997E+02 -0.22754E+04
 0.89999992E+02 -0.22725E+04
 0.90049995E+02 -0.22407E+04
 0.90099991E+02 -0.21631E+04
 0.90149994E+02 -0.21797E+04
 0.90199997E+02 -0.22531E+04
 0.90249992E+02 -0.22053E+04
 0.90299995E+02 -0.21814E+04
 0.90349991E+02 -0.21775E+04
 0.90399994E+02 -0.21703E+04
 0.90449997E+02 -0.21588E+04
 0.90499992E+02 -0.21276E+04
 0.90549995E+02 -0.21709E+04
 0.90599991E+02 -0.22044E+04
 0.90649994E+02 -0.22089E+04
 0.90699997E+02 -0.22118E+04
 0.90749992E+02 -0.20928E+04
 0.90799995E+02 -0.20042E+04
 0.90849991E+02 -0.20252E+04
 0.90899994E+02 -0.20912E+04
 0.90949997E+02 -0.21521E+04
 0.90999992E+02 -0.21411E+04
 0.91049995E+02 -0.21139E+04
 0.91099991E+02 -0.21077E+04
 0.91149994E+02 -0.20745E+04
 0.91199997E+02 -0.20527E+04
 0.91249992E+02 -0.20250E+04
 0.91299995E+02 -0.20174E+04
 0.91349991E+02 -0.20005E+04
 0.91399994E+02 -0.19936E+04
 0.91449997E+02 -0.20469E+04
 0.91499992E+02 -0.21022E+04
 0.91549995E+02 -0.21486E+04
 0.91599991E+02 -0.20959E+04
 0.91649994E+02 -0.21216E+04
 0.91699997E+02 -0.21424E+04
 0.91749992E+02 -0.20190E+04
 0.91799995E+02 -0.20137E+04
 0.91849991E+02 -0.20319E+04
 0.91899994E+02 -0.20292E+04
 0.91949997E+02 -0.21269E+04
 0.91999992E+02 -0.21973E+04
 0.92049995E+02 -0.21727E+04
 0.92099991E+02 -0.21282E+04
 0.92149994E+02 -0.21103E+04
 0.92199997E+02 -0.20867E+04
 0.92249992E+02 -0.20144E+04
 0.92299995E+02 -0.19667E+04
 0.92349991E+02 -0.20568E+04
 0.92399994E+02 -0.20971E+04
 0.92449997E+02 -0.21146E+04
 0.92499992E+02 -0.21272E+04
 0.92549995E+02 -0.20846E+04
 0.92599991E+02 -0.20928E+04
 0.92649994E+02 -0.20446E+04
 0.92699997E+02 -0.21030E+04
 0.92749992E+02 -0.21826E+04
 0.92799995E+02 -0.21785E+04
 0.92849991E+02 -0.21342E+04
 0.92899994E+02 -0.20783E+04
 0.92949997E+02 -0.20874E+04
 0.92999992E+02 -0.20836E+04
 0.93049995E+02 -0.20900E+04
 0.93099991E+02 -0.20561E+04
 0.93149994E+02 -0.19912E+04
 0.93199997E+02 -0.20202E+04
 0.93249992E+02 -0.21030E+04
 0.93299995E+02 -0.21018E+04
 0.93349991E+02 -0.20453E+04
 0.93399994E+02 -0.19417E+04
 0.93449997E+02 -0.18967E+04
 0.93499992E+02 -0.19392E+04
 0.93549995E+02 -0.20451E+04
 0.93599991E+02 -0.21205E+04
 0.93649994E+02 -0.21271E+04
 0.93699997E+02 -0.21831E+04
 0.93749992E+02 -0.21805E+04
 0.93799995E+02 -0.21356E+04
 0.93849991E+02 -0.20993E+04
 0.93899994E+02 -0.21150E+04
 0.93949997E+02 -0.21384E+04
 0.93999992E+02 -0.21603E+04
 0.94049995E+02 -0.21572E+04
 0.94099991E+02 -0.21336E+04
 0.94149994E+02 -0.20984E+04
 0.94199997E+02 -0.20446E+04
 0.94249992E+02 -0.20764E+04
 0.94299995E+02 -0.21262E+04
 0.94349991E+02 -0.21110E+04
 0.94399994E+02 -0.20523E+04
 0.94449997E+02 -0.21014E+04
 0.94499992E+02 -0.21453E+04
 0.94549995E+02 -0.21327E+04
 0.94599991E+02 -0.20991E+04
 0.94649994E+02 -0.20514E+04
 0.94699997E+02 -0.20928E+04
 0.94749992E+02 -0.21313E+04
 0.94799995E+02 -0.21386E+04
 0.94849991E+02 -0.20689E+04
 0.94899994E+02 -0.19957E+04
 0.94949997E+02 -0.19545E+04
 0.94999992E+02 -0.19195E+04
 0.95049995E+02 -0.19872E+04
 0.95099991E+02 -0.20904E+04
 0.95149994E+02 -0.21683E+04
 0.95199997E+02 -0.22261E+04
 0.95249992E+02 -0.22426E+04
 0.95299995E+02 -0.22292E+04
 0.95349991E+02 -0.21618E+04
 0.95399994E+02 -0.20790E+04
 0.95449997E+02 -0.20602E+04
 0.95499992E+02 -0.20988E+04
 0.95549995E+02 -0.21886E+04
 0.95599991E+02 -0.21887E+04
 0.95649994E+02 -0.21406E+04
 0.95699997E+02 -0.21143E+04
 0.95749992E+02 -0.20522E+04
 0.95799995E+02 -0.20072E+04
 0.95849991E+02 -0.20332E+04
 0.95899994E+02 -0.21165E+04
 0.95949997E+02 -0.21098E+04
 0.95999992E+02 -0.20961E+04
 0.96049995E+02 -0.20820E+04
 0.96099991E+02 -0.21023E+04
 0.96149994E+02 -0.21826E+04
 0.96199997E+02 -0.22290E+04
 0.96249992E+02 -0.21593E+04
 0.96299995E+02 -0.20845E+04
 0.96349991E+02 -0.20751E+04
 0.96399994E+02 -0.20311E+04
 0.96449997E+02 -0.20454E+04
 0.96499992E+02 -0.20849E+04
 0.96549995E+02 -0.21255E+04
 0.96599991E+02 -0.21390E+04
 0.96649994E+02 -0.20989E+04
 0.96699997E+02 -0.20003E+04
 0.96749992E+02 -0.20111E+04
 0.96799995E+02 -0.20928E+04
 0.96849991E+02 -0.21034E+04
 0.96899994E+02 -0.20761E+04
 0.96949997E+02 -0.20046E+04
 0.96999992E+02 -0.19514E+04
 0.97049995E+02 -0.19823E+04
 0.97099991E+02 -0.20480E+04
 0.97149994E+02 -0.20995E+04
 0.97199997E+02 -0.20976E+04
 0.97249992E+02 -0.20188E+04
 0.97299995E+02 -0.20409E+04
 0.97349991E+02 -0.21106E+04
 0.97399994E+02 -0.21614E+04
 0.97449997E+02 -0.21819E+04
 0.97499992E+02 -0.21772E+04
 0.97549995E+02 -0.22124E+04
 0.97599991E+02 -0.22122E+04
 0.97649994E+02 -0.21639E+04
 0.97699997E+02 -0.21163E+04
 0.97749992E+02 -0.21253E+04
 0.97799995E+02 -0.20931E+04
 0.97849991E+02 -0.20335E+04
 0.97899994E+02 -0.20098E+04
 0.97949997E+02 -0.20114E+04
 0.97999992E+02 -0.20481E+04
