-0.19969940E+01  0.12819E+04
-0.19469941E+01  0.12797E+04
-0.18969940E+01  0.13086E+04
-0.18469940E+01  0.13356E+04
-0.17969940E+01  0.13988E+04
-0.17469940E+01  0.14820E+04
-0.16969941E+01  0.15280E+04
-0.16469941E+01  0.15592E+04
-0.15969940E+01  0.15731E+04
-0.15469940E+01  0.15743E+04
-0.14969940E+01  0.15550E+04
-0.14469941E+01  0.15160E+04
-0.13969941E+01  0.14762E+04
-0.13469940E+01  0.14270E+04
-0.12969941E+01  0.13445E+04
-0.12469940E+01  0.12806E+04
-0.11969941E+01  0.12167E+04
-0.11469941E+01  0.11359E+04
-0.10969940E+01  0.10985E+04
-0.10469941E+01  0.10498E+04
-0.99699408E+00  0.10298E+04
-0.94699407E+00  0.10253E+04
-0.89699411E+00  0.10232E+04
-0.84699404E+00  0.10418E+04
-0.79699409E+00  0.10225E+04
-0.74699414E+00  0.10005E+04
-0.69699407E+00  0.10197E+04
-0.64699411E+00  0.10385E+04
-0.59699416E+00  0.10671E+04
-0.54699409E+00  0.10810E+04
-0.49699414E+00  0.11057E+04
-0.44699407E+00  0.11430E+04
-0.39699411E+00  0.11624E+04
-0.34699416E+00  0.12067E+04
-0.29699409E+00  0.12460E+04
-0.24699414E+00  0.12902E+04
-0.19699407E+00  0.13254E+04
-0.14699411E+00  0.13580E+04
-0.96994162E-01  0.13696E+04
-0.46994090E-01  0.13611E+04
 0.30058622E-02  0.13449E+04
 0.53005934E-01  0.13332E+04
 0.10300589E+00  0.13193E+04
 0.15300584E+00  0.12892E+04
 0.20300579E+00  0.12698E+04
 0.25300574E+00  0.12633E+04
 0.30300593E+00  0.12855E+04
 0.35300589E+00  0.12746E+04
 0.40300584E+00  0.12761E+04
 0.45300579E+00  0.12807E+04
 0.50300574E+00  0.12935E+04
 0.55300593E+00  0.13095E+04
 0.60300589E+00  0.13081E+04
 0.65300584E+00  0.13343E+04
 0.70300579E+00  0.13447E+04
 0.75300574E+00  0.13739E+04
 0.80300570E+00  0.14142E+04
 0.85300589E+00  0.14583E+04
 0.90300584E+00  0.14883E+04
 0.95300579E+00  0.14993E+04
 0.10030057E+01  0.15022E+04
 0.10530057E+01  0.14929E+04
 0.11030059E+01  0.14887E+04
 0.11530058E+01  0.15045E+04
 0.12030058E+01  0.15239E+04
 0.12530057E+01  0.15082E+04
 0.13030057E+01  0.14865E+04
 0.13530059E+01  0.14652E+04
 0.14030058E+01  0.14227E+04
 0.14530058E+01  0.13763E+04
 0.15030057E+01  0.13335E+04
 0.15530057E+01  0.12990E+04
 0.16030059E+01  0.12781E+04
 0.16530058E+01  0.12510E+04
 0.17030058E+01  0.12084E+04
 0.17530057E+01  0.11553E+04
 0.18030057E+01  0.11180E+04
 0.18530056E+01  0.10673E+04
 0.19030058E+01  0.10253E+04
 0.19530058E+01  0.98460E+03
 0.20030057E+01  0.93409E+03
 0.20530057E+01  0.88531E+03
 0.21030059E+01  0.84781E+03
 0.21530056E+01  0.83211E+03
 0.22030058E+01  0.83265E+03
 0.22530055E+01  0.86886E+03
 0.23030057E+01  0.86395E+03
 0.23530059E+01  0.88608E+03
 0.24030056E+01  0.92461E+03
 0.24530058E+01  0.97577E+03
 0.25030055E+01  0.10503E+04
 0.25530057E+01  0.11192E+04
 0.26030059E+01  0.12010E+04
 0.26530056E+01  0.12651E+04
 0.27030058E+01  0.13246E+04
 0.27530055E+01  0.13576E+04
 0.28030057E+01  0.13933E+04
 0.28530059E+01  0.14301E+04
 0.29030056E+01  0.14640E+04
 0.29530058E+01  0.15256E+04
 0.30030055E+01  0.15745E+04
 0.30530057E+01  0.16242E+04
 0.31030059E+01  0.16418E+04
 0.31530056E+01  0.16565E+04
 0.32030058E+01  0.16737E+04
 0.32530055E+01  0.16450E+04
 0.33030057E+01  0.16497E+04
 0.33530059E+01  0.16371E+04
 0.34030056E+01  0.16025E+04
 0.34530058E+01  0.15373E+04
 0.35030055E+01  0.14826E+04
 0.35530057E+01  0.13984E+04
 0.36030054E+01  0.13307E+04
 0.36530056E+01  0.12842E+04
 0.37030058E+01  0.12103E+04
 0.37530055E+01  0.11498E+04
 0.38030057E+01  0.10911E+04
 0.38530054E+01  0.10407E+04
 0.39030056E+01  0.98443E+03
 0.39530058E+01  0.94932E+03
 0.40030055E+01  0.92070E+03
 0.40530057E+01  0.91858E+03
 0.41030054E+01  0.91050E+03
 0.41530056E+01  0.93547E+03
 0.42030058E+01  0.96866E+03
 0.42530055E+01  0.10069E+04
 0.43030057E+01  0.10719E+04
 0.43530054E+01  0.11134E+04
 0.44030056E+01  0.11535E+04
 0.44530058E+01  0.12065E+04
 0.45030055E+01  0.12579E+04
 0.45530057E+01  0.13148E+04
 0.46030054E+01  0.13545E+04
 0.46530056E+01  0.13964E+04
 0.47030058E+01  0.14070E+04
 0.47530055E+01  0.13822E+04
 0.48030057E+01  0.13857E+04
 0.48530054E+01  0.13536E+04
 0.49030056E+01  0.13275E+04
 0.49530058E+01  0.13157E+04
 0.50030055E+01  0.12909E+04
 0.50530057E+01  0.12760E+04
 0.51030054E+01  0.12690E+04
 0.51530056E+01  0.12729E+04
 0.52030058E+01  0.12820E+04
 0.52530055E+01  0.12834E+04
 0.53030057E+01  0.13057E+04
 0.53530054E+01  0.13254E+04
 0.54030056E+01  0.13459E+04
 0.54530053E+01  0.13358E+04
 0.55030055E+01  0.13239E+04
 0.55530057E+01  0.13213E+04
 0.56030054E+01  0.12786E+04
 0.56530056E+01  0.12755E+04
 0.57030053E+01  0.12349E+04
 0.57530055E+01  0.11905E+04
 0.58030057E+01  0.11671E+04
 0.58530054E+01  0.11173E+04
 0.59030056E+01  0.10984E+04
 0.59530053E+01  0.10580E+04
 0.60030055E+01  0.10436E+04
 0.60530052E+01  0.10386E+04
 0.61030054E+01  0.10309E+04
 0.61530056E+01  0.10692E+04
 0.62030058E+01  0.10870E+04
 0.62530050E+01  0.11433E+04
 0.63030052E+01  0.12139E+04
 0.63530054E+01  0.12694E+04
 0.64030056E+01  0.13368E+04
 0.64530058E+01  0.14114E+04
 0.65030050E+01  0.14617E+04
 0.65530052E+01  0.15069E+04
 0.66030054E+01  0.15252E+04
 0.66530056E+01  0.15499E+04
 0.67030058E+01  0.15509E+04
 0.67530050E+01  0.15276E+04
 0.68030052E+01  0.15339E+04
 0.68530054E+01  0.15107E+04
 0.69030056E+01  0.14785E+04
 0.69530058E+01  0.14453E+04
 0.70030050E+01  0.14172E+04
 0.70530052E+01  0.13804E+04
 0.71030054E+01  0.13151E+04
 0.71530056E+01  0.12666E+04
 0.72030058E+01  0.12253E+04
 0.72530050E+01  0.11713E+04
 0.73030052E+01  0.11414E+04
 0.73530054E+01  0.11217E+04
 0.74030056E+01  0.11196E+04
 0.74530058E+01  0.11085E+04
 0.75030050E+01  0.11035E+04
 0.75530052E+01  0.10804E+04
 0.76030054E+01  0.10802E+04
 0.76530056E+01  0.10979E+04
 0.77030058E+01  0.11160E+04
 0.77530050E+01  0.11755E+04
 0.78030052E+01  0.12099E+04
 0.78530054E+01  0.12398E+04
 0.79030056E+01  0.12665E+04
 0.79530058E+01  0.13074E+04
 0.80030050E+01  0.12980E+04
 0.80530052E+01  0.12827E+04
 0.81030054E+01  0.13155E+04
 0.81530056E+01  0.13238E+04
 0.82030058E+01  0.13132E+04
 0.82530050E+01  0.12869E+04
 0.83030052E+01  0.12834E+04
 0.83530054E+01  0.12633E+04
 0.84030056E+01  0.12697E+04
 0.84530058E+01  0.12584E+04
 0.85030050E+01  0.12369E+04
 0.85530052E+01  0.12170E+04
 0.86030054E+01  0.12015E+04
 0.86530056E+01  0.11710E+04
 0.87030058E+01  0.11150E+04
 0.87530050E+01  0.11067E+04
 0.88030052E+01  0.10971E+04
 0.88530054E+01  0.11199E+04
 0.89030056E+01  0.11547E+04
 0.89530058E+01  0.11961E+04
 0.90030050E+01  0.12254E+04
 0.90530052E+01  0.12640E+04
 0.91030054E+01  0.13184E+04
 0.91530056E+01  0.13545E+04
 0.92030048E+01  0.13963E+04
 0.92530050E+01  0.14342E+04
 0.93030052E+01  0.14492E+04
 0.93530054E+01  0.14507E+04
 0.94030056E+01  0.14611E+04
 0.94530048E+01  0.14525E+04
 0.95030050E+01  0.14858E+04
 0.95530052E+01  0.15114E+04
 0.96030054E+01  0.15024E+04
 0.96530056E+01  0.14993E+04
 0.97030048E+01  0.14638E+04
 0.97530050E+01  0.14278E+04
 0.98030052E+01  0.13782E+04
 0.98530054E+01  0.13190E+04
 0.99030056E+01  0.12822E+04
 0.99530048E+01  0.12654E+04
 0.10003005E+02  0.12227E+04
 0.10053005E+02  0.11993E+04
 0.10103005E+02  0.11687E+04
 0.10153006E+02  0.11409E+04
 0.10203005E+02  0.11441E+04
 0.10253005E+02  0.11094E+04
 0.10303005E+02  0.10757E+04
 0.10353005E+02  0.10554E+04
 0.10403006E+02  0.99999E+03
 0.10453005E+02  0.95643E+03
 0.10503005E+02  0.94071E+03
 0.10553005E+02  0.93322E+03
 0.10603005E+02  0.96361E+03
 0.10653006E+02  0.10095E+04
 0.10703005E+02  0.10766E+04
 0.10753005E+02  0.11385E+04
 0.10803005E+02  0.12195E+04
 0.10853005E+02  0.12922E+04
 0.10903006E+02  0.13774E+04
 0.10953005E+02  0.14146E+04
 0.11003005E+02  0.14768E+04
 0.11053005E+02  0.15045E+04
 0.11103005E+02  0.14859E+04
 0.11153006E+02  0.15135E+04
 0.11203005E+02  0.14734E+04
 0.11253005E+02  0.14440E+04
 0.11303005E+02  0.13992E+04
 0.11353005E+02  0.13472E+04
 0.11403006E+02  0.13160E+04
 0.11453005E+02  0.13018E+04
 0.11503005E+02  0.12971E+04
 0.11553005E+02  0.12875E+04
 0.11603005E+02  0.12865E+04
 0.11653006E+02  0.12733E+04
 0.11703005E+02  0.12773E+04
 0.11753005E+02  0.12607E+04
 0.11803005E+02  0.12384E+04
 0.11853005E+02  0.12501E+04
 0.11903006E+02  0.12323E+04
 0.11953005E+02  0.12433E+04
 0.12003005E+02  0.12363E+04
 0.12053005E+02  0.12335E+04
 0.12103005E+02  0.12084E+04
 0.12153006E+02  0.11826E+04
 0.12203005E+02  0.11240E+04
 0.12253005E+02  0.10697E+04
 0.12303005E+02  0.10734E+04
 0.12353005E+02  0.10527E+04
 0.12403006E+02  0.10994E+04
 0.12453005E+02  0.11447E+04
 0.12503005E+02  0.11875E+04
 0.12553005E+02  0.12458E+04
 0.12603005E+02  0.12974E+04
 0.12653005E+02  0.13000E+04
 0.12703005E+02  0.13258E+04
 0.12753005E+02  0.13814E+04
 0.12803005E+02  0.13947E+04
 0.12853005E+02  0.14202E+04
 0.12903005E+02  0.14117E+04
 0.12953005E+02  0.13771E+04
 0.13003005E+02  0.13599E+04
 0.13053005E+02  0.13557E+04
 0.13103005E+02  0.13391E+04
 0.13153005E+02  0.13320E+04
 0.13203005E+02  0.13182E+04
 0.13253005E+02  0.13121E+04
 0.13303005E+02  0.12965E+04
 0.13353005E+02  0.12738E+04
 0.13403005E+02  0.12788E+04
 0.13453005E+02  0.12718E+04
 0.13503005E+02  0.12372E+04
 0.13553005E+02  0.12171E+04
 0.13603005E+02  0.11942E+04
 0.13653005E+02  0.11648E+04
 0.13703005E+02  0.11001E+04
 0.13753005E+02  0.10554E+04
 0.13803005E+02  0.10468E+04
 0.13853005E+02  0.10478E+04
 0.13903005E+02  0.10696E+04
 0.13953005E+02  0.10923E+04
 0.14003005E+02  0.11518E+04
 0.14053005E+02  0.12071E+04
 0.14103004E+02  0.12528E+04
 0.14153006E+02  0.12987E+04
 0.14203005E+02  0.13427E+04
 0.14253004E+02  0.13879E+04
 0.14303005E+02  0.14300E+04
 0.14353004E+02  0.14666E+04
 0.14403006E+02  0.15093E+04
 0.14453005E+02  0.15222E+04
 0.14503004E+02  0.15097E+04
 0.14553005E+02  0.14944E+04
 0.14603004E+02  0.14750E+04
 0.14653006E+02  0.14330E+04
 0.14703005E+02  0.14195E+04
 0.14753004E+02  0.13956E+04
 0.14803005E+02  0.13449E+04
 0.14853004E+02  0.12814E+04
 0.14903006E+02  0.12298E+04
 0.14953005E+02  0.11682E+04
 0.15003004E+02  0.10778E+04
 0.15053005E+02  0.10591E+04
 0.15103004E+02  0.10232E+04
 0.15153006E+02  0.10159E+04
 0.15203005E+02  0.10160E+04
 0.15253004E+02  0.10354E+04
 0.15303005E+02  0.10791E+04
 0.15353004E+02  0.11028E+04
 0.15403006E+02  0.11597E+04
 0.15453005E+02  0.12008E+04
 0.15503004E+02  0.12616E+04
 0.15553005E+02  0.12808E+04
 0.15603004E+02  0.12893E+04
 0.15653006E+02  0.12810E+04
 0.15703005E+02  0.12591E+04
 0.15753004E+02  0.12489E+04
 0.15803005E+02  0.12307E+04
 0.15853004E+02  0.12166E+04
 0.15903006E+02  0.11824E+04
 0.15953005E+02  0.11941E+04
 0.16003004E+02  0.11907E+04
 0.16053005E+02  0.12033E+04
 0.16103004E+02  0.12268E+04
 0.16153006E+02  0.12539E+04
 0.16203005E+02  0.12946E+04
 0.16253004E+02  0.13415E+04
 0.16303005E+02  0.14098E+04
 0.16353004E+02  0.14457E+04
 0.16403006E+02  0.14741E+04
 0.16453005E+02  0.14626E+04
 0.16503004E+02  0.14807E+04
 0.16553005E+02  0.14877E+04
 0.16603004E+02  0.14924E+04
 0.16653006E+02  0.14924E+04
 0.16703005E+02  0.14413E+04
 0.16753004E+02  0.14243E+04
 0.16803005E+02  0.13740E+04
 0.16853004E+02  0.13359E+04
 0.16903006E+02  0.12815E+04
 0.16953005E+02  0.12112E+04
 0.17003004E+02  0.11722E+04
 0.17053005E+02  0.11266E+04
 0.17103004E+02  0.11025E+04
 0.17153006E+02  0.10975E+04
 0.17203005E+02  0.11220E+04
 0.17253004E+02  0.11381E+04
 0.17303005E+02  0.11625E+04
 0.17353004E+02  0.11791E+04
 0.17403006E+02  0.12063E+04
 0.17453005E+02  0.12235E+04
 0.17503004E+02  0.12183E+04
 0.17553005E+02  0.12228E+04
 0.17603004E+02  0.12205E+04
 0.17653006E+02  0.12104E+04
 0.17703005E+02  0.12049E+04
 0.17753004E+02  0.12145E+04
 0.17803005E+02  0.12280E+04
 0.17853004E+02  0.12556E+04
 0.17903006E+02  0.13031E+04
 0.17953005E+02  0.13353E+04
 0.18003004E+02  0.13759E+04
 0.18053005E+02  0.13927E+04
 0.18103004E+02  0.13950E+04
 0.18153006E+02  0.14075E+04
 0.18203005E+02  0.13871E+04
 0.18253004E+02  0.13854E+04
 0.18303005E+02  0.13523E+04
 0.18353004E+02  0.13256E+04
 0.18403006E+02  0.13107E+04
 0.18453005E+02  0.12917E+04
 0.18503004E+02  0.12478E+04
 0.18553005E+02  0.12042E+04
 0.18603004E+02  0.11822E+04
 0.18653006E+02  0.11373E+04
 0.18703005E+02  0.11311E+04
 0.18753004E+02  0.11139E+04
 0.18803005E+02  0.11156E+04
 0.18853004E+02  0.11221E+04
 0.18903006E+02  0.11455E+04
 0.18953005E+02  0.11673E+04
 0.19003004E+02  0.11521E+04
 0.19053005E+02  0.12032E+04
 0.19103004E+02  0.12225E+04
 0.19153006E+02  0.12677E+04
 0.19203005E+02  0.13196E+04
 0.19253004E+02  0.13596E+04
 0.19303005E+02  0.13755E+04
 0.19353004E+02  0.14097E+04
 0.19403006E+02  0.14526E+04
 0.19453005E+02  0.14428E+04
 0.19503004E+02  0.14617E+04
 0.19553005E+02  0.14743E+04
 0.19603004E+02  0.14775E+04
 0.19653006E+02  0.14405E+04
 0.19703005E+02  0.14315E+04
 0.19753004E+02  0.13895E+04
 0.19803005E+02  0.13436E+04
 0.19853004E+02  0.12991E+04
 0.19903006E+02  0.12512E+04
 0.19953005E+02  0.12242E+04
 0.20003004E+02  0.11778E+04
 0.20053005E+02  0.11387E+04
 0.20103004E+02  0.10791E+04
 0.20153006E+02  0.10855E+04
 0.20203005E+02  0.10498E+04
 0.20253004E+02  0.10177E+04
 0.20303005E+02  0.10123E+04
 0.20353004E+02  0.10019E+04
 0.20403004E+02  0.10122E+04
 0.20453005E+02  0.10289E+04
 0.20503004E+02  0.10796E+04
 0.20553005E+02  0.11374E+04
 0.20603004E+02  0.12036E+04
 0.20653004E+02  0.12470E+04
 0.20703005E+02  0.12998E+04
 0.20753004E+02  0.13076E+04
 0.20803005E+02  0.13124E+04
 0.20853004E+02  0.13199E+04
 0.20903004E+02  0.12981E+04
 0.20953005E+02  0.12635E+04
 0.21003004E+02  0.12866E+04
 0.21053005E+02  0.12567E+04
 0.21103004E+02  0.12459E+04
 0.21153004E+02  0.11944E+04
 0.21203005E+02  0.12130E+04
 0.21253004E+02  0.12798E+04
 0.21303005E+02  0.12411E+04
 0.21353004E+02  0.13244E+04
 0.21403004E+02  0.14100E+04
 0.21453005E+02  0.14324E+04
 0.21503004E+02  0.13947E+04
 0.21553005E+02  0.16045E+04
 0.21603004E+02  0.17248E+04
 0.21653004E+02  0.15438E+04
 0.21703005E+02  0.13916E+04
 0.21753004E+02  0.12233E+04
 0.21803005E+02  0.12295E+04
 0.21853004E+02  0.17751E+04
 0.21903004E+02  0.14477E+01
 0.21953005E+02  0.20048E+04
 0.22003004E+02  0.19492E+04
 0.22053005E+02 -0.22751E+03
 0.22103004E+02  0.25242E+04
 0.22153004E+02  0.21303E+03
 0.22203005E+02  0.27041E+04
 0.22253004E+02  0.98392E+03
 0.22303005E+02  0.47580E+03
 0.22353004E+02  0.26987E+04
 0.22403004E+02  0.76744E+03
 0.22453005E+02  0.17722E+04
 0.22503004E+02 -0.33395E+03
 0.22553005E+02  0.41204E+04
 0.22603004E+02  0.11060E+04
 0.22653004E+02  0.70631E+03
 0.22703005E+02  0.29417E+04
 0.22753004E+02  0.63248E+02
 0.22803005E+02  0.27058E+04
 0.22853004E+02 -0.89044E+03
 0.22903004E+02  0.19528E+04
 0.22953005E+02  0.18181E+04
 0.23003004E+02  0.85712E+03
 0.23053005E+02  0.13306E+04
 0.23103004E+02  0.35201E+03
 0.23153004E+02  0.41548E+04
 0.23203005E+02 -0.38589E+03
 0.23253004E+02  0.23314E+04
 0.23303005E+02  0.33087E+04
 0.23353004E+02  0.79092E+03
 0.23403004E+02 -0.23168E+04
 0.23453005E+02 -0.76285E+03
 0.23503004E+02  0.19621E+04
 0.23553005E+02 -0.14275E+04
 0.23603004E+02  0.23517E+04
 0.23653004E+02  0.48763E+03
 0.23703005E+02  0.21854E+04
 0.23753004E+02 -0.23536E+04
 0.23803005E+02  0.38459E+03
 0.23853004E+02  0.18664E+04
 0.23903004E+02 -0.10078E+04
 0.23953005E+02  0.40814E+04
 0.24003004E+02 -0.43741E+03
 0.24053005E+02  0.28542E+04
 0.24103004E+02  0.97880E+03
 0.24153004E+02 -0.21970E+02
 0.24203005E+02  0.29438E+04
 0.24253004E+02  0.88279E+03
 0.24303005E+02  0.20942E+04
 0.24353004E+02  0.23024E+04
 0.24403004E+02  0.37924E+03
 0.24453005E+02  0.23835E+04
 0.24503004E+02  0.66162E+03
 0.24553005E+02  0.13430E+04
 0.24603004E+02  0.29285E+04
 0.24653004E+02  0.32597E+04
 0.24703005E+02  0.78145E+03
 0.24753004E+02  0.99048E+03
 0.24803005E+02  0.34132E+04
 0.24853004E+02 -0.18600E+04
 0.24903004E+02  0.13609E+04
 0.24953005E+02 -0.21929E+04
 0.25003004E+02  0.28132E+04
 0.25053005E+02  0.51166E+04
 0.25103004E+02  0.17626E+04
 0.25153004E+02  0.57082E+04
 0.25203005E+02  0.83761E+03
 0.25253004E+02  0.30190E+04
 0.25303005E+02  0.62627E+03
 0.25353004E+02 -0.46590E+02
 0.25403004E+02 -0.20696E+04
 0.25453005E+02 -0.11767E+04
 0.25503004E+02  0.27740E+04
 0.25553005E+02 -0.15353E+04
 0.25603004E+02  0.45903E+04
 0.25653004E+02 -0.25870E+02
 0.25703005E+02 -0.10901E+04
 0.25753004E+02  0.28926E+04
 0.25803005E+02 -0.11983E+04
 0.25853004E+02 -0.24949E+04
 0.25903004E+02  0.14073E+04
 0.25953005E+02  0.24513E+04
 0.26003004E+02  0.49753E+04
 0.26053005E+02  0.26707E+04
 0.26103004E+02 -0.27835E+04
 0.26153004E+02  0.70757E+04
 0.26203005E+02 -0.76764E+03
 0.26253004E+02 -0.17251E+04
 0.26303005E+02  0.60025E+04
 0.26353004E+02  0.36647E+02
 0.26403004E+02 -0.11187E+03
 0.26453005E+02  0.17496E+04
 0.26503004E+02  0.19552E+04
 0.26553005E+02  0.18174E+04
 0.26603004E+02  0.58599E+03
 0.26653004E+02  0.26321E+03
 0.26703005E+02  0.15584E+04
 0.26753004E+02  0.12766E+04
 0.26803005E+02  0.20425E+03
 0.26853004E+02 -0.23298E+03
 0.26903004E+02  0.50767E+04
 0.26953005E+02  0.50149E+04
 0.27003004E+02 -0.21480E+04
 0.27053003E+02  0.75990E+03
 0.27103004E+02  0.40844E+04
 0.27153004E+02  0.19226E+04
 0.27203005E+02 -0.68049E+03
 0.27253004E+02  0.19290E+03
 0.27303003E+02  0.22624E+04
 0.27353004E+02  0.13835E+04
 0.27403004E+02  0.23008E+04
 0.27453005E+02  0.31186E+04
 0.27503004E+02 -0.23674E+04
 0.27553003E+02 -0.27486E+04
 0.27603004E+02 -0.42841E+03
 0.27653004E+02  0.31704E+04
 0.27703005E+02  0.50680E+04
 0.27753004E+02 -0.29138E+04
 0.27803003E+02  0.13258E+04
 0.27853004E+02  0.55425E+04
 0.27903004E+02  0.40058E+04
 0.27953005E+02 -0.13608E+04
 0.28003004E+02  0.27634E+03
 0.28053003E+02  0.31163E+04
 0.28103004E+02 -0.51992E+03
 0.28153004E+02 -0.26182E+04
 0.28203005E+02  0.10195E+04
 0.28253004E+02  0.54766E+04
 0.28303003E+02 -0.55202E+03
 0.28353004E+02  0.30778E+04
 0.28403004E+02  0.44810E+03
 0.28453005E+02 -0.11654E+04
 0.28503004E+02  0.41147E+04
 0.28553003E+02  0.13505E+04
 0.28603004E+02 -0.14277E+04
 0.28653004E+02  0.94726E+03
 0.28703005E+02  0.36254E+04
 0.28753004E+02  0.19610E+04
 0.28803003E+02  0.22154E+04
 0.28853004E+02  0.57016E+04
 0.28903004E+02 -0.19168E+04
 0.28953005E+02 -0.24269E+03
 0.29003004E+02 -0.19376E+04
 0.29053003E+02 -0.31729E+04
 0.29103004E+02  0.14919E+04
 0.29153004E+02  0.37593E+04
 0.29203005E+02  0.48881E+04
 0.29253004E+02 -0.49000E+03
 0.29303003E+02  0.33244E+04
 0.29353004E+02  0.39882E+04
 0.29403004E+02  0.49277E+04
 0.29453005E+02  0.14677E+04
 0.29503004E+02  0.65228E+03
 0.29553003E+02 -0.11039E+04
 0.29603004E+02 -0.15636E+04
 0.29653004E+02  0.33805E+04
 0.29703005E+02  0.33022E+04
 0.29753004E+02 -0.46152E+03
 0.29803003E+02 -0.24505E+04
 0.29853004E+02 -0.29755E+03
 0.29903004E+02  0.35152E+03
 0.29953005E+02 -0.20275E+03
 0.30003004E+02  0.22357E+04
 0.30053005E+02 -0.71129E+03
 0.30103004E+02 -0.17035E+04
 0.30153004E+02  0.49589E+04
 0.30203003E+02  0.14996E+03
 0.30253002E+02 -0.16396E+03
 0.30303005E+02  0.29470E+04
 0.30353004E+02  0.75322E+03
 0.30403004E+02  0.26138E+04
 0.30453003E+02  0.16573E+04
 0.30503002E+02  0.51000E+04
 0.30553005E+02  0.42449E+04
 0.30603004E+02  0.38578E+04
 0.30653004E+02  0.18711E+04
 0.30703003E+02 -0.11227E+04
 0.30753002E+02 -0.48407E+04
 0.30803005E+02 -0.16046E+04
 0.30853004E+02 -0.24110E+03
 0.30903004E+02 -0.76797E+03
 0.30953003E+02  0.41458E+04
 0.31003002E+02 -0.21876E+04
 0.31053005E+02  0.30189E+04
 0.31103004E+02  0.21817E+04
 0.31153004E+02  0.76350E+04
 0.31203003E+02  0.19780E+04
 0.31253002E+02 -0.90466E+03
 0.31303005E+02  0.55003E+04
 0.31353004E+02 -0.38987E+03
 0.31403004E+02  0.24344E+04
 0.31453003E+02  0.56754E+04
 0.31503002E+02  0.88400E+03
 0.31553005E+02 -0.19137E+04
 0.31603004E+02  0.31595E+04
 0.31653004E+02 -0.21551E+04
 0.31703003E+02  0.19094E+04
 0.31753002E+02 -0.52086E+03
 0.31803005E+02 -0.87733E+03
 0.31853004E+02 -0.21102E+04
 0.31903004E+02 -0.15710E+03
 0.31953003E+02  0.38790E+04
 0.32003002E+02 -0.11185E+04
 0.32053005E+02  0.62549E+04
 0.32103004E+02  0.37671E+04
 0.32153004E+02  0.26023E+04
 0.32203003E+02  0.71042E+04
 0.32253002E+02  0.45315E+04
 0.32303005E+02 -0.53118E+04
 0.32353004E+02 -0.33023E+04
 0.32403004E+02 -0.81643E+03
 0.32453003E+02 -0.30144E+03
 0.32503002E+02  0.52072E+04
 0.32553005E+02 -0.15300E+04
 0.32603004E+02  0.22749E+04
 0.32653004E+02  0.16367E+04
 0.32703003E+02 -0.30044E+04
 0.32753002E+02  0.15396E+04
 0.32803005E+02  0.10195E+04
 0.32853004E+02  0.26050E+04
 0.32903004E+02  0.29435E+04
 0.32953003E+02 -0.73103E+02
 0.33003002E+02  0.97508E+03
 0.33053005E+02  0.56429E+04
 0.33103004E+02  0.42449E+04
 0.33153004E+02  0.57891E+04
 0.33203003E+02  0.13541E+04
 0.33253002E+02 -0.16084E+04
 0.33303005E+02  0.29807E+04
 0.33353004E+02  0.58450E+03
 0.33403004E+02 -0.21166E+04
 0.33453003E+02  0.50618E+03
 0.33503002E+02  0.67068E+03
 0.33553005E+02  0.55166E+02
 0.33603004E+02 -0.22051E+04
 0.33653004E+02  0.86265E+03
 0.33703003E+02  0.48019E+04
 0.33753002E+02 -0.18062E+03
 0.33803005E+02  0.44055E+04
 0.33853004E+02 -0.26029E+04
 0.33903004E+02 -0.12518E+04
 0.33953003E+02  0.54106E+04
 0.34003002E+02  0.44769E+03
 0.34053005E+02 -0.68682E+02
 0.34103004E+02  0.30775E+04
 0.34153004E+02  0.88632E+03
 0.34203003E+02 -0.34364E+04
 0.34253002E+02  0.25942E+04
 0.34303005E+02  0.39005E+04
 0.34353004E+02  0.63389E+04
 0.34403004E+02  0.43839E+04
 0.34453003E+02  0.64199E+03
 0.34503002E+02  0.11999E+04
 0.34553005E+02  0.18490E+04
 0.34603004E+02  0.23233E+04
 0.34653004E+02  0.25334E+04
 0.34703003E+02  0.38203E+04
 0.34753002E+02  0.28244E+03
 0.34803005E+02  0.24665E+04
 0.34853004E+02 -0.30166E+03
 0.34903004E+02  0.19011E+04
 0.34953003E+02  0.22277E+04
 0.35003002E+02 -0.32504E+04
 0.35053005E+02  0.14249E+04
 0.35103004E+02  0.26356E+04
 0.35153004E+02 -0.20787E+03
 0.35203003E+02 -0.24707E+04
 0.35253002E+02 -0.11924E+04
 0.35303005E+02 -0.25735E+04
 0.35353004E+02  0.16655E+04
 0.35403004E+02  0.31751E+04
 0.35453003E+02 -0.80698E+03
 0.35503002E+02 -0.11241E+04
 0.35553005E+02 -0.29178E+04
 0.35603004E+02  0.14631E+04
 0.35653004E+02  0.91415E+03
 0.35703003E+02  0.38951E+04
 0.35753002E+02  0.11067E+05
 0.35803005E+02  0.10318E+05
 0.35853004E+02  0.20022E+04
 0.35903004E+02 -0.33744E+04
 0.35953003E+02  0.38841E+04
 0.36003002E+02 -0.18937E+04
 0.36053005E+02 -0.70847E+04
 0.36103004E+02 -0.75429E+03
 0.36153004E+02 -0.23953E+04
 0.36203003E+02  0.88785E+04
 0.36253002E+02  0.32072E+05
 0.36303005E+02  0.32377E+05
 0.36353004E+02 -0.12067E+05
 0.36403004E+02 -0.60449E+05
 0.36453003E+02 -0.37258E+05
 0.36503002E+02  0.97125E+04
 0.36553005E+02 -0.12869E+05
 0.36603004E+02 -0.21290E+05
 0.36653004E+02  0.40736E+05
 0.36703003E+02  0.58656E+05
 0.36753002E+02  0.42323E+05
 0.36803005E+02 -0.66708E+04
 0.36853004E+02 -0.44881E+05
 0.36903004E+02 -0.28116E+05
 0.36953003E+02 -0.28491E+05
 0.37003002E+02 -0.68084E+03
 0.37053005E+02  0.50797E+05
 0.37103004E+02  0.42348E+05
 0.37153004E+02  0.21692E+05
 0.37203003E+02  0.18118E+05
 0.37253002E+02 -0.12534E+05
 0.37303005E+02 -0.23955E+05
 0.37353004E+02 -0.36193E+05
 0.37403004E+02  0.99352E+03
 0.37453003E+02  0.43754E+05
 0.37503002E+02  0.15602E+05
 0.37553005E+02 -0.28754E+05
 0.37603004E+02 -0.44606E+05
 0.37653004E+02 -0.90669E+04
 0.37703003E+02 -0.79610E+04
 0.37753002E+02 -0.18658E+05
 0.37803005E+02  0.17758E+05
 0.37853004E+02  0.33414E+05
 0.37903004E+02 -0.13157E+05
 0.37953003E+02  0.14979E+04
 0.38003002E+02  0.21268E+05
 0.38053005E+02 -0.76097E+04
 0.38103004E+02  0.85371E+04
 0.38153004E+02  0.24768E+05
 0.38203003E+02  0.13118E+05
 0.38253002E+02  0.85569E+04
 0.38303005E+02  0.13637E+05
 0.38353004E+02 -0.10970E+05
 0.38403004E+02 -0.20056E+05
 0.38453003E+02 -0.17162E+05
 0.38503002E+02 -0.24322E+05
 0.38553005E+02 -0.15638E+04
 0.38603004E+02  0.64868E+04
 0.38653004E+02  0.14167E+05
 0.38703003E+02  0.13837E+05
 0.38753002E+02 -0.36537E+04
 0.38803005E+02 -0.27787E+04
 0.38853004E+02 -0.26770E+05
 0.38903004E+02 -0.20761E+05
 0.38953003E+02  0.31331E+05
 0.39003002E+02  0.32961E+05
 0.39053005E+02  0.24690E+04
 0.39103004E+02  0.15144E+05
 0.39153004E+02  0.17540E+05
 0.39203003E+02 -0.16883E+05
 0.39253002E+02 -0.14811E+05
 0.39303005E+02 -0.10856E+05
 0.39353004E+02 -0.14466E+05
 0.39403004E+02  0.63690E+04
 0.39453003E+02  0.11642E+05
 0.39503002E+02  0.71736E+02
 0.39553005E+02  0.25726E+05
 0.39603004E+02  0.26328E+05
 0.39653004E+02 -0.21373E+05
 0.39703003E+02  0.13048E+04
 0.39753002E+02  0.13334E+05
 0.39803005E+02 -0.89875E+04
 0.39853004E+02  0.18019E+05
 0.39903004E+02  0.91055E+03
 0.39953003E+02 -0.19932E+05
 0.40003002E+02  0.12846E+05
 0.40053005E+02 -0.12648E+04
 0.40103004E+02 -0.15994E+04
 0.40153004E+02  0.14225E+05
 0.40203003E+02 -0.19427E+05
 0.40253002E+02 -0.12288E+05
 0.40303005E+02  0.80228E+04
 0.40353004E+02 -0.16872E+05
 0.40403004E+02 -0.32270E+04
 0.40453003E+02  0.75432E+04
 0.40503002E+02  0.14709E+05
 0.40553005E+02  0.12482E+05
 0.40603004E+02  0.10641E+05
 0.40653004E+02  0.92893E+04
 0.40703003E+02 -0.13949E+05
 0.40753002E+02  0.72506E+03
 0.40803005E+02 -0.12794E+05
 0.40853004E+02 -0.13202E+05
 0.40903004E+02 -0.48951E+03
 0.40953003E+02  0.91444E+04
 0.41003002E+02  0.22017E+05
 0.41053005E+02  0.16533E+05
 0.41103004E+02 -0.11363E+05
 0.41153004E+02 -0.38549E+04
 0.41203003E+02  0.12419E+05
 0.41253002E+02  0.50412E+03
 0.41303005E+02  0.59338E+04
 0.41353004E+02 -0.87118E+04
 0.41403004E+02  0.68361E+04
 0.41453003E+02  0.22503E+05
 0.41503002E+02  0.49557E+04
 0.41553005E+02 -0.81936E+04
 0.41603004E+02 -0.26366E+04
 0.41653004E+02 -0.12471E+05
 0.41703003E+02 -0.76222E+04
 0.41753002E+02  0.15268E+05
 0.41803005E+02  0.19152E+04
 0.41853004E+02  0.68336E+03
 0.41903004E+02  0.19124E+04
 0.41953003E+02 -0.70431E+04
 0.42003002E+02 -0.82960E+04
 0.42053005E+02 -0.24348E+04
 0.42103004E+02  0.40247E+04
 0.42153004E+02  0.86016E+04
 0.42203003E+02 -0.95494E+04
 0.42253002E+02 -0.16374E+05
 0.42303005E+02  0.49512E+04
 0.42353004E+02  0.22322E+05
 0.42403004E+02  0.12762E+05
 0.42453003E+02  0.59694E+04
 0.42503002E+02 -0.53551E+04
 0.42553005E+02 -0.79566E+04
 0.42603004E+02  0.73080E+04
 0.42653004E+02  0.30513E+04
 0.42703003E+02 -0.43161E+04
 0.42753002E+02 -0.13556E+05
 0.42803001E+02 -0.15856E+05
 0.42853004E+02 -0.11701E+05
 0.42903004E+02  0.14623E+04
 0.42953003E+02 -0.27947E+04
 0.43003002E+02  0.27821E+04
 0.43053001E+02  0.10920E+05
 0.43103004E+02  0.24371E+05
 0.43153004E+02  0.24056E+05
 0.43203003E+02  0.10972E+05
 0.43253002E+02 -0.10499E+04
 0.43303001E+02 -0.10743E+05
 0.43353004E+02 -0.94584E+04
 0.43403004E+02 -0.10031E+05
 0.43453003E+02  0.10103E+05
 0.43503002E+02  0.89339E+04
 0.43553001E+02  0.67401E+04
 0.43603004E+02  0.20837E+04
 0.43653004E+02 -0.32362E+04
 0.43703003E+02 -0.42460E+04
 0.43753002E+02 -0.13341E+04
 0.43803001E+02  0.25587E+04
 0.43853004E+02  0.14717E+04
 0.43903004E+02  0.17069E+05
 0.43953003E+02  0.83325E+04
 0.44003002E+02 -0.13453E+04
 0.44053001E+02  0.13518E+05
 0.44103004E+02  0.41025E+04
 0.44153004E+02 -0.35359E+04
 0.44203003E+02 -0.49768E+04
 0.44253002E+02 -0.94075E+04
 0.44303001E+02  0.86826E+04
 0.44353004E+02  0.11008E+05
 0.44403004E+02 -0.12456E+05
 0.44453003E+02 -0.70441E+04
 0.44503002E+02  0.99066E+03
 0.44553001E+02 -0.25526E+04
 0.44603004E+02  0.86642E+04
 0.44653004E+02 -0.62604E+03
 0.44703003E+02  0.42824E+03
 0.44753002E+02  0.95080E+04
 0.44803001E+02  0.26045E+04
 0.44853004E+02 -0.20415E+04
 0.44903004E+02 -0.88433E+04
 0.44953003E+02 -0.93723E+04
 0.45003002E+02 -0.10272E+05
 0.45053001E+02 -0.11765E+03
 0.45103004E+02  0.80145E+04
 0.45153004E+02  0.13249E+05
 0.45203003E+02  0.12216E+05
 0.45253002E+02  0.91452E+04
 0.45303001E+02  0.13493E+05
 0.45353004E+02  0.11194E+04
 0.45403004E+02 -0.40274E+04
 0.45453003E+02 -0.10246E+05
 0.45503002E+02 -0.30804E+04
 0.45553001E+02 -0.13897E+04
 0.45603004E+02 -0.10025E+05
 0.45653004E+02 -0.13793E+04
 0.45703003E+02  0.91352E+04
 0.45753002E+02  0.80143E+04
 0.45803001E+02  0.23564E+04
 0.45853004E+02  0.60502E+04
 0.45903004E+02  0.10735E+05
 0.45953003E+02  0.10522E+05
 0.46003002E+02 -0.10647E+03
 0.46053001E+02 -0.99345E+03
 0.46103004E+02 -0.22907E+04
 0.46153004E+02 -0.82551E+04
 0.46203003E+02 -0.14125E+05
 0.46253002E+02 -0.15754E+05
 0.46303001E+02 -0.82701E+04
 0.46353004E+02 -0.39271E+04
 0.46403004E+02  0.58172E+04
 0.46453003E+02  0.10174E+05
 0.46503002E+02  0.97837E+04
 0.46553001E+02 -0.28931E+04
 0.46603004E+02 -0.94687E+04
 0.46653004E+02  0.33496E+04
 0.46703003E+02  0.90956E+04
 0.46753002E+02  0.50788E+04
 0.46803001E+02  0.24437E+04
 0.46853004E+02  0.10201E+05
 0.46903004E+02  0.56683E+04
 0.46953003E+02  0.13892E+04
 0.47003002E+02  0.48928E+04
 0.47053001E+02  0.54602E+04
 0.47103004E+02  0.78392E+04
 0.47153004E+02  0.92156E+04
 0.47203003E+02  0.54009E+03
 0.47253002E+02 -0.27091E+04
 0.47303001E+02 -0.17625E+04
 0.47353004E+02 -0.34950E+04
 0.47403004E+02  0.47202E+04
 0.47453003E+02  0.39720E+04
 0.47503002E+02  0.63086E+02
 0.47553001E+02  0.27269E+04
 0.47603004E+02  0.76699E+04
 0.47653004E+02  0.72935E+04
 0.47703003E+02  0.39797E+04
 0.47753002E+02 -0.14993E+04
 0.47803001E+02 -0.50409E+03
 0.47853004E+02  0.11574E+04
 0.47903004E+02 -0.12715E+05
 0.47953003E+02 -0.69679E+04
 0.48003002E+02 -0.44438E+03
 0.48053001E+02 -0.39491E+04
 0.48103004E+02  0.18304E+04
 0.48153004E+02  0.98694E+04
 0.48203003E+02  0.55393E+04
 0.48253002E+02  0.15184E+04
 0.48303001E+02  0.47869E+04
 0.48353004E+02 -0.45007E+04
 0.48403004E+02 -0.38547E+04
 0.48453003E+02 -0.14487E+04
 0.48503002E+02  0.10206E+04
 0.48553001E+02  0.22014E+03
 0.48603004E+02  0.14404E+04
 0.48653004E+02  0.36663E+04
 0.48703003E+02  0.26710E+04
 0.48753002E+02  0.20777E+04
 0.48803001E+02 -0.22210E+04
 0.48853004E+02 -0.65576E+04
 0.48903004E+02 -0.63641E+04
 0.48953003E+02 -0.21621E+04
 0.49003002E+02  0.24953E+03
 0.49053001E+02  0.66178E+04
 0.49103004E+02  0.59764E+04
 0.49153004E+02  0.39832E+04
 0.49203003E+02 -0.26809E+04
 0.49253002E+02 -0.14666E+04
 0.49303001E+02  0.41860E+04
 0.49353004E+02  0.22594E+04
 0.49403004E+02  0.51126E+04
 0.49453003E+02  0.49642E+04
 0.49503002E+02 -0.52073E+04
 0.49553001E+02 -0.66002E+04
 0.49603004E+02 -0.99794E+03
 0.49653004E+02 -0.10419E+04
 0.49703003E+02  0.89849E+04
 0.49753002E+02  0.12261E+05
 0.49803001E+02  0.95189E+04
 0.49853004E+02  0.65441E+04
 0.49903004E+02  0.37359E+04
 0.49953003E+02  0.95370E+03
 0.50003002E+02 -0.45231E+04
 0.50053001E+02 -0.72609E+03
 0.50103004E+02 -0.38009E+04
 0.50153004E+02 -0.73760E+04
 0.50203003E+02 -0.49289E+04
 0.50253002E+02  0.14396E+04
 0.50303001E+02 -0.49667E+04
 0.50353004E+02 -0.94993E+04
 0.50403004E+02 -0.34131E+04
 0.50453003E+02 -0.32847E+04
 0.50503002E+02  0.48900E+04
 0.50553001E+02  0.12107E+05
 0.50603004E+02  0.10988E+05
 0.50653004E+02  0.58720E+04
 0.50703003E+02  0.75655E+03
 0.50753002E+02 -0.11898E+04
 0.50803001E+02  0.39813E+04
 0.50853004E+02  0.89542E+02
 0.50903004E+02 -0.74171E+04
 0.50953003E+02 -0.18627E+04
 0.51003002E+02  0.67837E+04
 0.51053001E+02  0.71842E+04
 0.51103004E+02  0.33378E+04
 0.51153004E+02 -0.43415E+03
 0.51203003E+02 -0.37464E+04
 0.51253002E+02 -0.44302E+04
 0.51303001E+02  0.30824E+04
 0.51353004E+02  0.64368E+04
 0.51403004E+02  0.13549E+04
 0.51453003E+02 -0.24639E+04
 0.51503002E+02  0.20107E+03
 0.51553001E+02  0.40937E+04
 0.51603004E+02 -0.13267E+04
 0.51653004E+02 -0.54242E+04
 0.51703003E+02 -0.21419E+04
 0.51753002E+02  0.45639E+03
 0.51803001E+02 -0.22061E+03
 0.51853004E+02  0.28259E+04
 0.51903004E+02  0.18422E+04
 0.51953003E+02 -0.35542E+04
 0.52003002E+02  0.18960E+04
 0.52053001E+02  0.91621E+04
 0.52103004E+02  0.12090E+05
 0.52153004E+02  0.13969E+05
 0.52203003E+02  0.81678E+04
 0.52253002E+02  0.60484E+04
 0.52303001E+02  0.87268E+04
 0.52353004E+02  0.60536E+04
 0.52403004E+02  0.25521E+04
 0.52453003E+02  0.34143E+04
 0.52503002E+02 -0.92415E+03
 0.52553001E+02 -0.45473E+04
 0.52603004E+02 -0.29254E+04
 0.52653004E+02 -0.35999E+04
 0.52703003E+02 -0.10745E+04
 0.52753002E+02  0.15284E+04
 0.52803001E+02  0.17296E+04
 0.52853004E+02  0.11578E+04
 0.52903004E+02 -0.45454E+03
 0.52953003E+02  0.10278E+04
 0.53003002E+02  0.34275E+03
 0.53053001E+02  0.53167E+04
 0.53103004E+02  0.55556E+04
 0.53153004E+02  0.48310E+04
 0.53203003E+02  0.12319E+05
 0.53253002E+02  0.36020E+04
 0.53303001E+02 -0.46542E+04
 0.53353004E+02 -0.90757E+04
 0.53403004E+02 -0.15657E+05
 0.53453003E+02 -0.13777E+05
 0.53503002E+02 -0.44080E+04
 0.53553001E+02 -0.11962E+04
 0.53603004E+02  0.94501E+03
 0.53653004E+02  0.45060E+04
 0.53703003E+02  0.78048E+04
 0.53753002E+02  0.10939E+05
 0.53803001E+02  0.11647E+05
 0.53853004E+02  0.12256E+05
 0.53903004E+02  0.43850E+04
 0.53953003E+02 -0.20315E+04
 0.54003002E+02 -0.34366E+04
 0.54053001E+02 -0.45577E+03
 0.54103004E+02  0.44700E+04
 0.54153004E+02  0.64933E+04
 0.54203003E+02  0.69255E+04
 0.54253002E+02  0.73985E+04
 0.54303001E+02  0.43940E+04
 0.54353004E+02 -0.86622E+03
 0.54403004E+02 -0.59693E+04
 0.54453003E+02 -0.11732E+05
 0.54503002E+02 -0.11283E+05
 0.54553001E+02 -0.54845E+04
 0.54603004E+02  0.35511E+04
 0.54653004E+02  0.12882E+05
 0.54703003E+02  0.14438E+05
 0.54753002E+02  0.10488E+05
 0.54803001E+02  0.49058E+04
 0.54853004E+02 -0.15001E+04
 0.54903004E+02 -0.42503E+04
 0.54953003E+02  0.24302E+04
 0.55003002E+02  0.11344E+05
 0.55053001E+02  0.15975E+05
 0.55103004E+02  0.14410E+05
 0.55153004E+02  0.66245E+04
 0.55203003E+02 -0.24125E+04
 0.55253002E+02 -0.10071E+05
 0.55303001E+02 -0.10526E+05
 0.55353004E+02 -0.75876E+04
 0.55403004E+02  0.17704E+04
 0.55453003E+02  0.75959E+04
 0.55503002E+02  0.40397E+04
 0.55553001E+02 -0.54047E+04
 0.55603004E+02 -0.12095E+05
 0.55653004E+02 -0.10455E+05
 0.55703003E+02 -0.76278E+04
 0.55753002E+02 -0.30106E+04
 0.55803001E+02  0.64284E+03
 0.55853001E+02 -0.90034E+02
 0.55903004E+02 -0.47115E+04
 0.55953003E+02 -0.58285E+04
 0.56003002E+02 -0.64723E+04
 0.56053001E+02 -0.61236E+04
 0.56103001E+02 -0.51452E+04
 0.56153004E+02 -0.16505E+04
 0.56203003E+02  0.41839E+04
 0.56253002E+02  0.11287E+05
 0.56303001E+02  0.15783E+05
 0.56353001E+02  0.14874E+05
 0.56403004E+02  0.11997E+05
 0.56453003E+02  0.80991E+04
 0.56503002E+02  0.63261E+04
 0.56553001E+02 -0.44561E+04
 0.56603001E+02 -0.64067E+04
 0.56653004E+02 -0.19449E+04
 0.56703003E+02 -0.72209E+03
 0.56753002E+02  0.28460E+04
 0.56803001E+02  0.62958E+04
 0.56853001E+02  0.98675E+04
 0.56903004E+02  0.90246E+04
 0.56953003E+02  0.58999E+04
 0.57003002E+02 -0.28703E+04
 0.57053001E+02 -0.41222E+04
 0.57103001E+02 -0.21224E+04
 0.57153004E+02  0.38883E+03
 0.57203003E+02  0.55787E+04
 0.57253002E+02  0.81861E+04
 0.57303001E+02  0.12553E+05
 0.57353001E+02  0.11340E+05
 0.57403004E+02  0.10231E+05
 0.57453003E+02  0.83732E+04
 0.57503002E+02  0.97784E+03
 0.57553001E+02 -0.42349E+04
 0.57603001E+02 -0.11529E+05
 0.57653004E+02 -0.15601E+05
 0.57703003E+02 -0.13732E+05
 0.57753002E+02 -0.14137E+05
 0.57803001E+02 -0.13645E+05
 0.57853001E+02 -0.75908E+04
 0.57903004E+02  0.76740E+03
 0.57953003E+02  0.59966E+04
 0.58003002E+02  0.98896E+04
 0.58053001E+02  0.83484E+04
 0.58103001E+02  0.35928E+04
 0.58153004E+02  0.22489E+03
 0.58203003E+02 -0.19290E+04
 0.58253002E+02 -0.34928E+04
 0.58303001E+02 -0.29951E+04
 0.58353001E+02  0.46037E+03
 0.58403004E+02  0.16397E+04
 0.58453003E+02  0.18841E+04
 0.58503002E+02  0.10381E+04
 0.58553001E+02 -0.42889E+04
 0.58603001E+02 -0.47296E+04
 0.58653004E+02  0.24496E+04
 0.58703003E+02  0.53648E+04
 0.58753002E+02  0.74657E+04
 0.58803001E+02  0.11303E+05
 0.58853001E+02  0.11766E+05
 0.58903004E+02  0.76759E+04
 0.58953003E+02 -0.27570E+04
 0.59003002E+02 -0.10828E+05
 0.59053001E+02 -0.10273E+05
 0.59103001E+02 -0.36923E+04
 0.59153004E+02  0.23570E+04
 0.59203003E+02  0.42260E+04
 0.59253002E+02  0.10425E+05
 0.59303001E+02  0.12161E+05
 0.59353001E+02  0.67598E+04
 0.59403004E+02  0.26458E+04
 0.59453003E+02 -0.49677E+02
 0.59503002E+02 -0.46415E+02
 0.59553001E+02  0.15814E+04
 0.59603001E+02  0.99762E+03
 0.59653004E+02  0.61492E+03
 0.59703003E+02  0.90626E+03
 0.59753002E+02 -0.33492E+03
 0.59803001E+02 -0.60912E+03
 0.59853001E+02 -0.17443E+04
 0.59903004E+02 -0.56525E+04
 0.59953003E+02 -0.73695E+04
 0.60003002E+02 -0.48635E+04
 0.60053001E+02 -0.37603E+04
 0.60103001E+02 -0.38580E+04
 0.60153004E+02 -0.62279E+04
 0.60203003E+02 -0.50479E+04
 0.60253002E+02 -0.38353E+04
 0.60303001E+02 -0.28609E+04
 0.60353001E+02  0.31042E+04
 0.60403004E+02  0.99133E+04
 0.60453003E+02  0.11975E+05
 0.60503002E+02  0.10773E+05
 0.60553001E+02  0.77683E+04
 0.60603001E+02  0.71075E+03
 0.60653004E+02 -0.25051E+04
 0.60703003E+02 -0.13242E+04
 0.60753002E+02  0.32153E+04
 0.60803001E+02  0.10687E+05
 0.60853001E+02  0.18649E+05
 0.60903004E+02  0.22846E+05
 0.60953003E+02  0.22737E+05
 0.61003002E+02  0.17545E+05
 0.61053001E+02  0.12102E+05
 0.61103001E+02  0.61611E+04
 0.61153004E+02 -0.95913E+03
 0.61203003E+02 -0.66481E+04
 0.61253002E+02 -0.93490E+04
 0.61303001E+02 -0.97783E+04
 0.61353001E+02 -0.12201E+05
 0.61403004E+02 -0.12185E+05
 0.61453003E+02 -0.73085E+04
 0.61503002E+02 -0.21430E+04
 0.61553001E+02 -0.11659E+04
 0.61603001E+02 -0.17815E+04
 0.61653004E+02 -0.25761E+04
 0.61703003E+02  0.45345E+02
 0.61753002E+02  0.79179E+03
 0.61803001E+02  0.17172E+04
 0.61853001E+02  0.68190E+04
 0.61903004E+02  0.59735E+04
 0.61953003E+02  0.27377E+04
 0.62003002E+02  0.46680E+03
 0.62053001E+02  0.25539E+03
 0.62103004E+02 -0.14656E+04
 0.62153000E+02 -0.52667E+04
 0.62203003E+02 -0.18573E+04
 0.62252998E+02  0.28525E+04
 0.62303001E+02  0.36177E+04
 0.62353004E+02  0.70288E+04
 0.62403000E+02  0.13298E+05
 0.62453003E+02  0.14720E+05
 0.62502998E+02  0.15082E+05
 0.62553001E+02  0.14290E+05
 0.62603004E+02  0.10810E+05
 0.62653000E+02  0.96352E+04
 0.62703003E+02  0.41024E+04
 0.62752998E+02 -0.30721E+04
 0.62803001E+02 -0.79025E+04
 0.62853004E+02 -0.10423E+05
 0.62903000E+02 -0.85774E+04
 0.62953003E+02 -0.49354E+04
 0.63002998E+02 -0.20797E+04
 0.63053001E+02  0.60080E+03
 0.63103004E+02 -0.24304E+03
 0.63153000E+02 -0.35509E+04
 0.63203003E+02 -0.30767E+04
 0.63252998E+02 -0.48213E+04
 0.63303001E+02 -0.74400E+04
 0.63353004E+02 -0.40196E+04
 0.63403000E+02  0.20259E+04
 0.63453003E+02  0.35750E+04
 0.63502998E+02  0.38318E+04
 0.63553001E+02  0.60702E+04
 0.63603004E+02  0.55230E+04
 0.63653000E+02  0.19370E+04
 0.63703003E+02 -0.10719E+04
 0.63752998E+02 -0.23833E+04
 0.63803001E+02 -0.41896E+04
 0.63853004E+02 -0.31989E+04
 0.63903000E+02 -0.10827E+04
 0.63953003E+02 -0.76617E+03
 0.64002998E+02 -0.11569E+04
 0.64053001E+02  0.19612E+03
 0.64103004E+02 -0.21700E+03
 0.64153000E+02 -0.31826E+04
 0.64203003E+02 -0.46116E+04
 0.64252998E+02 -0.32182E+04
 0.64303001E+02 -0.32147E+03
 0.64353004E+02  0.20000E+04
 0.64403000E+02  0.61232E+04
 0.64453003E+02  0.76950E+04
 0.64502998E+02  0.89143E+04
 0.64553001E+02  0.96256E+04
 0.64603004E+02  0.74943E+04
 0.64653000E+02  0.45601E+04
 0.64703003E+02  0.26255E+03
 0.64752998E+02 -0.24541E+04
 0.64803001E+02 -0.14976E+04
 0.64853004E+02 -0.81043E+03
 0.64903000E+02 -0.25317E+04
 0.64953003E+02 -0.52369E+04
 0.65002998E+02 -0.51458E+04
 0.65053001E+02 -0.18068E+04
 0.65103004E+02 -0.19573E+04
 0.65153000E+02 -0.34241E+04
 0.65203003E+02 -0.31023E+03
 0.65252998E+02  0.11923E+04
 0.65303001E+02 -0.19877E+04
 0.65353004E+02 -0.26230E+04
 0.65403000E+02 -0.62147E+03
 0.65453003E+02 -0.24267E+03
 0.65502998E+02 -0.17331E+03
 0.65553001E+02  0.40385E+03
 0.65603004E+02  0.18403E+04
 0.65653000E+02  0.61615E+04
 0.65703003E+02  0.98265E+04
 0.65752998E+02  0.11634E+05
 0.65803001E+02  0.12060E+05
 0.65853004E+02  0.11157E+05
 0.65903000E+02  0.71713E+04
 0.65953003E+02  0.43956E+04
 0.66002998E+02  0.35647E+04
 0.66053001E+02  0.27383E+04
 0.66103004E+02  0.19421E+04
 0.66153000E+02  0.56259E+03
 0.66203003E+02  0.14652E+04
 0.66252998E+02  0.31139E+04
 0.66303001E+02  0.32699E+04
 0.66353004E+02  0.20864E+04
 0.66403000E+02  0.20759E+04
 0.66453003E+02  0.15866E+04
 0.66502998E+02  0.66699E+03
 0.66553001E+02  0.12970E+04
 0.66603004E+02  0.15831E+04
 0.66653000E+02 -0.55554E+03
 0.66703003E+02 -0.23393E+04
 0.66752998E+02 -0.29630E+04
 0.66803001E+02 -0.39605E+04
 0.66853004E+02 -0.35081E+04
 0.66903000E+02 -0.32808E+04
 0.66953003E+02 -0.17577E+04
 0.67002998E+02  0.82660E+03
 0.67053001E+02  0.73671E+03
 0.67103004E+02 -0.28251E+02
 0.67153000E+02 -0.13940E+04
 0.67203003E+02 -0.94038E+03
 0.67252998E+02  0.14502E+02
 0.67303001E+02  0.15958E+03
 0.67353004E+02 -0.52422E+03
 0.67403000E+02 -0.28420E+02
 0.67453003E+02  0.37506E+04
 0.67502998E+02  0.67953E+04
 0.67553001E+02  0.80907E+04
 0.67603004E+02  0.77206E+04
 0.67653000E+02  0.70020E+04
 0.67703003E+02  0.73705E+04
 0.67752998E+02  0.95574E+04
 0.67803001E+02  0.11894E+05
 0.67853004E+02  0.11100E+05
 0.67903000E+02  0.81123E+04
 0.67953003E+02  0.50895E+04
 0.68002998E+02  0.34032E+04
 0.68053001E+02  0.41689E+04
 0.68103004E+02  0.48875E+04
 0.68153000E+02  0.67209E+04
 0.68203003E+02  0.78869E+04
 0.68252998E+02  0.66468E+04
 0.68303001E+02  0.42070E+04
 0.68353004E+02  0.15961E+04
 0.68403000E+02 -0.23659E+04
 0.68453003E+02 -0.68198E+04
 0.68502998E+02 -0.11076E+05
 0.68553001E+02 -0.14852E+05
 0.68603004E+02 -0.14801E+05
 0.68653000E+02 -0.15469E+05
 0.68703003E+02 -0.15487E+05
 0.68752998E+02 -0.14853E+05
 0.68803001E+02 -0.14721E+05
 0.68853004E+02 -0.11980E+05
 0.68903000E+02 -0.92340E+04
 0.68953003E+02 -0.60866E+04
 0.69002998E+02 -0.26246E+04
 0.69053001E+02 -0.30961E+03
 0.69103004E+02  0.40840E+04
 0.69153000E+02  0.79654E+04
 0.69203003E+02  0.99428E+04
 0.69252998E+02  0.98946E+04
 0.69303001E+02  0.96339E+04
 0.69353004E+02  0.97614E+04
 0.69403000E+02  0.90414E+04
 0.69453003E+02  0.76416E+04
 0.69502998E+02  0.82073E+04
 0.69553001E+02  0.86165E+04
 0.69603004E+02  0.61446E+04
 0.69653000E+02  0.54602E+04
 0.69703003E+02  0.40054E+04
 0.69752998E+02  0.48475E+04
 0.69803001E+02  0.72027E+04
 0.69853004E+02  0.73927E+04
 0.69903000E+02  0.79664E+04
 0.69953003E+02  0.75817E+04
 0.70002998E+02  0.18364E+04
 0.70053001E+02 -0.23286E+04
 0.70103004E+02 -0.39573E+04
 0.70153000E+02 -0.60251E+04
 0.70203003E+02 -0.60564E+04
 0.70252998E+02 -0.64176E+04
 0.70303001E+02 -0.51357E+04
 0.70353004E+02 -0.61725E+04
 0.70403000E+02 -0.90813E+04
 0.70453003E+02 -0.11031E+05
 0.70502998E+02 -0.11945E+05
 0.70553001E+02 -0.10095E+05
 0.70603004E+02 -0.55405E+04
 0.70653000E+02  0.80985E+03
 0.70703003E+02  0.63084E+04
 0.70752998E+02  0.94170E+04
 0.70803001E+02  0.10828E+05
 0.70853004E+02  0.93955E+04
 0.70903000E+02  0.78510E+04
 0.70953003E+02  0.80214E+04
 0.71002998E+02  0.62949E+04
 0.71053001E+02  0.63125E+04
 0.71103004E+02  0.70936E+04
 0.71153000E+02  0.70942E+04
 0.71203003E+02  0.77641E+04
 0.71252998E+02  0.86667E+04
 0.71303001E+02  0.81511E+04
 0.71353004E+02  0.77480E+04
 0.71403000E+02  0.82418E+04
 0.71453003E+02  0.85356E+04
 0.71502998E+02  0.10501E+05
 0.71553001E+02  0.11367E+05
 0.71603004E+02  0.97748E+04
 0.71653000E+02  0.75091E+04
 0.71703003E+02  0.35090E+04
 0.71752998E+02 -0.26912E+04
 0.71803001E+02 -0.78695E+04
 0.71853004E+02 -0.11245E+05
 0.71903000E+02 -0.12276E+05
 0.71953003E+02 -0.14056E+05
 0.72002998E+02 -0.14851E+05
 0.72053001E+02 -0.11236E+05
 0.72103004E+02 -0.80584E+04
 0.72153000E+02 -0.58190E+04
 0.72203003E+02 -0.31397E+04
 0.72252998E+02  0.61385E+03
 0.72303001E+02  0.20859E+04
 0.72353004E+02  0.88736E+03
 0.72403000E+02 -0.33432E+02
 0.72453003E+02  0.15308E+03
 0.72502998E+02  0.11417E+04
 0.72553001E+02  0.30299E+03
 0.72603004E+02  0.45177E+03
 0.72653000E+02  0.20753E+04
 0.72703003E+02  0.46638E+04
 0.72752998E+02  0.68133E+04
 0.72803001E+02  0.77552E+04
 0.72853004E+02  0.89511E+04
 0.72903000E+02  0.82381E+04
 0.72953003E+02  0.76807E+04
 0.73002998E+02  0.81167E+04
 0.73053001E+02  0.84856E+04
 0.73103004E+02  0.81898E+04
 0.73153000E+02  0.69871E+04
 0.73203003E+02  0.57595E+04
 0.73252998E+02  0.33184E+04
 0.73303001E+02  0.62269E+03
 0.73353004E+02 -0.27603E+04
 0.73403000E+02 -0.61558E+04
 0.73453003E+02 -0.71093E+04
 0.73502998E+02 -0.67024E+04
 0.73553001E+02 -0.46987E+04
 0.73603004E+02 -0.25975E+04
 0.73653000E+02 -0.24024E+04
 0.73703003E+02 -0.21908E+04
 0.73752998E+02 -0.64803E+03
 0.73803001E+02 -0.60301E+03
 0.73853004E+02 -0.11782E+04
 0.73903000E+02 -0.14720E+04
 0.73953003E+02 -0.10612E+04
 0.74002998E+02  0.13391E+03
 0.74053001E+02  0.55429E+03
 0.74103004E+02  0.86320E+03
 0.74153000E+02  0.21795E+04
 0.74203003E+02  0.33779E+04
 0.74252998E+02  0.33748E+04
 0.74303001E+02  0.33402E+04
 0.74353004E+02  0.19962E+04
 0.74403000E+02 -0.10149E+03
 0.74453003E+02 -0.21932E+04
 0.74502998E+02 -0.38918E+04
 0.74553001E+02 -0.50447E+04
 0.74603004E+02 -0.53147E+04
 0.74653000E+02 -0.49648E+04
 0.74703003E+02 -0.28998E+04
 0.74752998E+02 -0.18548E+03
 0.74803001E+02  0.14062E+04
 0.74853004E+02  0.35808E+04
 0.74903000E+02  0.63185E+04
 0.74953003E+02  0.88235E+04
 0.75002998E+02  0.10410E+05
 0.75053001E+02  0.12067E+05
 0.75103004E+02  0.13376E+05
 0.75153000E+02  0.13145E+05
 0.75203003E+02  0.11806E+05
 0.75252998E+02  0.98508E+04
 0.75303001E+02  0.73264E+04
 0.75353004E+02  0.53158E+04
 0.75403000E+02  0.34311E+04
 0.75453003E+02  0.41589E+03
 0.75502998E+02 -0.19878E+04
 0.75553001E+02 -0.44291E+04
 0.75603004E+02 -0.72846E+04
 0.75653000E+02 -0.79762E+04
 0.75703003E+02 -0.69197E+04
 0.75752998E+02 -0.47890E+04
 0.75803001E+02 -0.13238E+04
 0.75853004E+02  0.10978E+04
 0.75903000E+02  0.29274E+04
 0.75953003E+02  0.48066E+04
 0.76002998E+02  0.53851E+04
 0.76053001E+02  0.56000E+04
 0.76103004E+02  0.45353E+04
 0.76153000E+02  0.23697E+04
 0.76203003E+02  0.59235E+03
 0.76252998E+02 -0.35531E+03
 0.76303001E+02 -0.13968E+04
 0.76353004E+02 -0.24643E+04
 0.76403000E+02 -0.15835E+04
 0.76453003E+02 -0.41765E+03
 0.76502998E+02  0.45675E+03
 0.76553001E+02  0.49802E+03
 0.76603004E+02 -0.56410E+03
 0.76653000E+02 -0.15817E+04
 0.76703003E+02 -0.34595E+04
 0.76752998E+02 -0.49372E+04
 0.76803001E+02 -0.38922E+04
 0.76853004E+02 -0.26449E+04
 0.76903000E+02 -0.89174E+03
 0.76953003E+02  0.24985E+04
 0.77002998E+02  0.43742E+04
 0.77053001E+02  0.45153E+04
 0.77103004E+02  0.38191E+04
 0.77153000E+02  0.26379E+04
 0.77203003E+02  0.19808E+04
 0.77252998E+02  0.10855E+04
 0.77303001E+02 -0.33183E+03
 0.77353004E+02  0.30379E+03
 0.77403000E+02  0.15239E+04
 0.77453003E+02  0.22512E+04
 0.77502998E+02  0.32932E+04
 0.77553001E+02  0.45914E+04
 0.77603004E+02  0.52578E+04
 0.77653000E+02  0.51913E+04
 0.77703003E+02  0.49469E+04
 0.77752998E+02  0.32431E+04
 0.77803001E+02  0.73901E+03
 0.77853004E+02 -0.14018E+04
 0.77903000E+02 -0.38440E+04
 0.77953003E+02 -0.39993E+04
 0.78002998E+02 -0.28901E+04
 0.78053001E+02 -0.38092E+04
 0.78103004E+02 -0.26757E+04
 0.78153000E+02 -0.36534E+03
 0.78203003E+02  0.16754E+04
 0.78252998E+02  0.31694E+04
 0.78303001E+02  0.38138E+04
 0.78353004E+02  0.51503E+04
 0.78403000E+02  0.56831E+04
 0.78453003E+02  0.59643E+04
 0.78502998E+02  0.78109E+04
 0.78553001E+02  0.82455E+04
 0.78603004E+02  0.63599E+04
 0.78653000E+02  0.46716E+04
 0.78703003E+02  0.24074E+04
 0.78752998E+02  0.32659E+03
 0.78803001E+02 -0.76006E+03
 0.78853004E+02 -0.21494E+04
 0.78903000E+02 -0.28604E+04
 0.78953003E+02 -0.24699E+04
 0.79002998E+02 -0.25606E+04
 0.79053001E+02 -0.30150E+04
 0.79103004E+02 -0.28727E+04
 0.79153000E+02 -0.15408E+04
 0.79203003E+02  0.43076E+03
 0.79252998E+02  0.23806E+04
 0.79303001E+02  0.40317E+04
 0.79353004E+02  0.54035E+04
 0.79403000E+02  0.61548E+04
 0.79453003E+02  0.56566E+04
 0.79502998E+02  0.50174E+04
 0.79553001E+02  0.50265E+04
 0.79603004E+02  0.55427E+04
 0.79653000E+02  0.60143E+04
 0.79703003E+02  0.52495E+04
 0.79752998E+02  0.29086E+04
 0.79803001E+02  0.52048E+03
 0.79853004E+02 -0.14501E+04
 0.79903000E+02 -0.30777E+04
 0.79953003E+02 -0.30812E+04
 0.80002998E+02 -0.19135E+04
 0.80053001E+02 -0.13547E+04
 0.80103004E+02 -0.63422E+03
 0.80153000E+02  0.20913E+03
 0.80203003E+02  0.12680E+03
 0.80252998E+02 -0.15715E+03
 0.80303001E+02 -0.53345E+03
 0.80353004E+02 -0.94479E+03
 0.80403000E+02 -0.12171E+04
 0.80453003E+02 -0.13874E+04
 0.80502998E+02 -0.11454E+04
 0.80553001E+02 -0.66810E+03
 0.80603004E+02  0.66981E+02
 0.80653000E+02  0.49256E+03
 0.80703003E+02  0.91687E+03
 0.80752998E+02  0.92801E+03
 0.80803001E+02  0.17087E+04
 0.80853004E+02  0.24175E+04
 0.80903000E+02  0.11146E+04
 0.80953003E+02  0.27628E+03
 0.81002998E+02  0.81447E+03
 0.81053001E+02  0.19829E+04
 0.81103004E+02  0.19009E+04
 0.81153000E+02  0.13684E+04
 0.81203003E+02  0.82565E+03
 0.81252998E+02  0.63013E+02
 0.81303001E+02  0.50722E+03
 0.81353004E+02  0.58086E+03
 0.81403000E+02  0.37371E+02
 0.81453003E+02 -0.48935E+03
 0.81502998E+02  0.17910E+02
 0.81553001E+02  0.85845E+03
 0.81603004E+02  0.13151E+04
 0.81653000E+02  0.18755E+04
 0.81703003E+02  0.32328E+04
 0.81752998E+02  0.50022E+04
 0.81803001E+02  0.58113E+04
 0.81853004E+02  0.64547E+04
 0.81903000E+02  0.56582E+04
 0.81953003E+02  0.48948E+04
 0.82002998E+02  0.42491E+04
 0.82053001E+02  0.28219E+04
 0.82103004E+02  0.13921E+04
 0.82153000E+02  0.93184E+03
 0.82203003E+02  0.14757E+04
 0.82252998E+02  0.65269E+03
 0.82303001E+02 -0.78827E+03
 0.82353004E+02 -0.12214E+04
 0.82403000E+02 -0.20470E+04
 0.82453003E+02 -0.29571E+04
 0.82502998E+02 -0.27532E+04
 0.82553001E+02 -0.14344E+04
 0.82603004E+02  0.12389E+04
 0.82653000E+02  0.33974E+04
 0.82703003E+02  0.35153E+04
 0.82752998E+02  0.36024E+04
 0.82803001E+02  0.37799E+04
 0.82853004E+02  0.28919E+04
 0.82903000E+02  0.22955E+04
 0.82953003E+02  0.20705E+04
 0.83002998E+02  0.27523E+04
 0.83053001E+02  0.34259E+04
 0.83103004E+02  0.25340E+04
 0.83153000E+02  0.14665E+04
 0.83203003E+02  0.11642E+04
 0.83252998E+02  0.13930E+04
 0.83303001E+02  0.14816E+04
 0.83353004E+02  0.74498E+03
 0.83403000E+02  0.36812E+03
 0.83453003E+02  0.56688E+03
 0.83502998E+02  0.65717E+03
 0.83553001E+02  0.45843E+03
 0.83603004E+02 -0.22661E+03
 0.83653000E+02 -0.38795E+03
 0.83703003E+02 -0.66088E+03
 0.83752998E+02 -0.11451E+04
 0.83803001E+02 -0.14794E+04
 0.83853004E+02 -0.18249E+04
 0.83903000E+02 -0.18013E+04
 0.83953003E+02 -0.29372E+03
 0.84002998E+02  0.25813E+04
 0.84053001E+02  0.54864E+04
 0.84103004E+02  0.74617E+04
 0.84153000E+02  0.83721E+04
 0.84203003E+02  0.84055E+04
 0.84252998E+02  0.69233E+04
 0.84303001E+02  0.43324E+04
 0.84353004E+02  0.19678E+04
 0.84403000E+02 -0.15382E+03
 0.84453003E+02 -0.12464E+04
 0.84502998E+02 -0.18481E+04
 0.84553001E+02 -0.23445E+04
 0.84603004E+02 -0.19412E+04
 0.84653000E+02 -0.24146E+04
 0.84703003E+02 -0.23898E+04
 0.84752998E+02 -0.14885E+04
 0.84803001E+02 -0.38436E+03
 0.84853004E+02  0.72650E+03
 0.84903000E+02  0.14825E+04
 0.84953003E+02  0.22431E+04
 0.85002998E+02  0.25523E+04
 0.85053001E+02  0.19836E+04
 0.85103004E+02  0.61884E+03
 0.85153000E+02 -0.29868E+03
 0.85203003E+02 -0.64415E+03
 0.85252998E+02 -0.12244E+04
 0.85303001E+02 -0.19762E+04
 0.85353004E+02 -0.27513E+04
 0.85403000E+02 -0.31406E+04
 0.85453003E+02 -0.30475E+04
 0.85502998E+02 -0.22817E+04
 0.85553001E+02 -0.60947E+03
 0.85603004E+02  0.70287E+03
 0.85653000E+02  0.23012E+04
 0.85703003E+02  0.39155E+04
 0.85752998E+02  0.43895E+04
 0.85803001E+02  0.31177E+04
 0.85853004E+02  0.10733E+04
 0.85903000E+02  0.69025E+03
 0.85953003E+02  0.10572E+04
 0.86002998E+02  0.12766E+04
 0.86053001E+02  0.16739E+04
 0.86103004E+02  0.23131E+04
 0.86153000E+02  0.31855E+04
 0.86203003E+02  0.48473E+04
 0.86252998E+02  0.67378E+04
 0.86303001E+02  0.79744E+04
 0.86353004E+02  0.84411E+04
 0.86403000E+02  0.81060E+04
 0.86453003E+02  0.76957E+04
 0.86502998E+02  0.58400E+04
 0.86553001E+02  0.40084E+04
 0.86603004E+02  0.35223E+04
 0.86653000E+02  0.32289E+04
 0.86703003E+02  0.27071E+04
 0.86752998E+02  0.14668E+04
 0.86803001E+02  0.60702E+03
 0.86853004E+02  0.93896E+01
 0.86903000E+02 -0.80163E+03
 0.86953003E+02 -0.17662E+04
 0.87002998E+02 -0.20947E+04
 0.87053001E+02 -0.17934E+04
 0.87103004E+02 -0.62062E+03
 0.87153000E+02  0.46502E+03
 0.87203003E+02  0.13851E+04
 0.87252998E+02  0.24779E+04
 0.87303001E+02  0.17966E+04
 0.87353004E+02  0.13150E+04
 0.87403000E+02  0.90693E+03
 0.87453003E+02 -0.36614E+03
 0.87502998E+02 -0.12926E+04
 0.87553001E+02 -0.17256E+04
 0.87602997E+02 -0.22017E+04
 0.87653000E+02 -0.28119E+04
 0.87703003E+02 -0.34756E+04
 0.87752998E+02 -0.36824E+04
 0.87803001E+02 -0.26665E+04
 0.87852997E+02 -0.13502E+04
 0.87903000E+02  0.38685E+03
 0.87953003E+02  0.21319E+04
 0.88002998E+02  0.31608E+04
 0.88053001E+02  0.34896E+04
 0.88102997E+02  0.37823E+04
 0.88153000E+02  0.36247E+04
 0.88203003E+02  0.24512E+04
 0.88252998E+02  0.98775E+03
 0.88303001E+02 -0.80300E+02
 0.88352997E+02 -0.28647E+03
 0.88403000E+02 -0.90032E+02
 0.88453003E+02  0.69372E+03
 0.88502998E+02  0.13797E+04
 0.88553001E+02  0.11822E+04
 0.88602997E+02  0.20699E+03
 0.88653000E+02 -0.29261E+03
 0.88703003E+02 -0.50069E+03
 0.88752998E+02 -0.11701E+04
 0.88803001E+02 -0.10561E+04
 0.88852997E+02  0.46852E+03
 0.88903000E+02  0.19648E+04
 0.88953003E+02  0.21993E+04
 0.89002998E+02  0.26179E+04
 0.89053001E+02  0.26419E+04
 0.89102997E+02  0.17744E+04
 0.89153000E+02  0.45799E+03
 0.89203003E+02  0.14465E+03
 0.89252998E+02  0.14062E+04
 0.89303001E+02  0.25223E+04
 0.89352997E+02  0.35179E+04
 0.89403000E+02  0.42184E+04
 0.89453003E+02  0.48382E+04
 0.89502998E+02  0.51695E+04
 0.89553001E+02  0.46639E+04
 0.89602997E+02  0.33257E+04
 0.89653000E+02  0.22699E+04
 0.89703003E+02  0.11888E+04
 0.89752998E+02  0.19580E+03
 0.89803001E+02  0.56089E+03
 0.89852997E+02  0.10963E+04
 0.89903000E+02  0.18352E+04
 0.89953003E+02  0.23377E+04
 0.90002998E+02  0.31627E+04
 0.90053001E+02  0.41800E+04
 0.90102997E+02  0.38046E+04
 0.90153000E+02  0.22424E+04
 0.90203003E+02  0.97839E+03
 0.90252998E+02 -0.67626E+01
 0.90303001E+02 -0.91272E+03
 0.90352997E+02 -0.58379E+03
 0.90403000E+02  0.60114E+02
 0.90453003E+02  0.46025E+03
 0.90502998E+02  0.51964E+03
 0.90553001E+02  0.75207E+03
 0.90602997E+02  0.98453E+03
 0.90653000E+02  0.60416E+03
 0.90703003E+02 -0.97117E+02
 0.90752998E+02 -0.58823E+03
 0.90803001E+02 -0.36393E+03
 0.90852997E+02  0.69176E+03
 0.90903000E+02  0.25316E+04
 0.90953003E+02  0.39745E+04
 0.91002998E+02  0.45172E+04
 0.91053001E+02  0.41914E+04
 0.91102997E+02  0.25911E+04
 0.91153000E+02  0.12011E+04
 0.91203003E+02  0.74578E+03
 0.91252998E+02 -0.42251E+02
 0.91303001E+02 -0.13888E+02
 0.91352997E+02  0.16915E+03
 0.91403000E+02 -0.11044E+03
 0.91453003E+02  0.25258E+03
 0.91502998E+02  0.27723E+03
 0.91553001E+02 -0.13157E+01
 0.91602997E+02 -0.18348E+03
 0.91653000E+02 -0.34008E+03
 0.91703003E+02 -0.10370E+04
 0.91752998E+02 -0.11066E+04
 0.91803001E+02 -0.13861E+03
 0.91852997E+02  0.66925E+03
 0.91903000E+02  0.13095E+04
 0.91953003E+02  0.25089E+04
 0.92002998E+02  0.36501E+04
 0.92053001E+02  0.38295E+04
 0.92102997E+02  0.37295E+04
 0.92153000E+02  0.26886E+04
 0.92203003E+02  0.13088E+04
 0.92252998E+02  0.29299E+03
 0.92303001E+02 -0.34416E+03
 0.92352997E+02  0.14895E+02
 0.92403000E+02  0.93901E+03
 0.92453003E+02  0.20803E+04
 0.92502998E+02  0.32827E+04
 0.92553001E+02  0.33402E+04
 0.92602997E+02  0.31584E+04
 0.92653000E+02  0.31050E+04
 0.92703003E+02  0.24788E+04
 0.92752998E+02  0.20646E+04
 0.92803001E+02  0.14200E+04
 0.92852997E+02  0.82891E+03
 0.92903000E+02  0.10794E+04
 0.92953003E+02  0.14693E+04
 0.93002998E+02  0.15119E+04
 0.93053001E+02  0.19438E+04
 0.93102997E+02  0.22331E+04
 0.93153000E+02  0.14333E+04
 0.93203003E+02 -0.25245E+03
 0.93252998E+02 -0.18536E+04
 0.93303001E+02 -0.29490E+04
 0.93352997E+02 -0.35190E+04
 0.93403000E+02 -0.35074E+04
 0.93453003E+02 -0.22185E+04
 0.93502998E+02  0.16562E+03
 0.93553001E+02  0.20157E+04
 0.93602997E+02  0.35348E+04
 0.93653000E+02  0.44896E+04
 0.93703003E+02  0.45650E+04
 0.93752998E+02  0.39259E+04
 0.93803001E+02  0.30619E+04
 0.93852997E+02  0.27348E+04
 0.93903000E+02  0.26522E+04
 0.93953003E+02  0.21997E+04
 0.94002998E+02  0.15263E+04
 0.94053001E+02  0.14389E+04
 0.94102997E+02  0.10854E+04
 0.94153000E+02  0.34555E+03
 0.94203003E+02  0.10196E+03
 0.94252998E+02  0.50326E+03
 0.94303001E+02  0.10406E+04
 0.94352997E+02  0.14491E+04
 0.94403000E+02  0.20910E+04
 0.94453003E+02  0.25399E+04
 0.94502998E+02  0.27148E+04
 0.94553001E+02  0.29569E+04
 0.94602997E+02  0.35813E+04
 0.94653000E+02  0.39161E+04
 0.94703003E+02  0.40931E+04
 0.94752998E+02  0.43121E+04
 0.94803001E+02  0.41665E+04
 0.94852997E+02  0.40425E+04
 0.94903000E+02  0.37058E+04
 0.94953003E+02  0.32560E+04
 0.95002998E+02  0.28996E+04
 0.95053001E+02  0.20131E+04
 0.95102997E+02  0.26031E+02
 0.95153000E+02 -0.20453E+04
 0.95203003E+02 -0.29274E+04
 0.95252998E+02 -0.36442E+04
 0.95303001E+02 -0.48000E+04
 0.95352997E+02 -0.53790E+04
 0.95403000E+02 -0.55068E+04
 0.95453003E+02 -0.48956E+04
 0.95502998E+02 -0.40909E+04
 0.95553001E+02 -0.33073E+04
 0.95602997E+02 -0.24465E+04
 0.95653000E+02 -0.14619E+04
 0.95703003E+02 -0.67983E+03
 0.95752998E+02 -0.16367E+03
 0.95803001E+02  0.61923E+03
 0.95852997E+02  0.10344E+04
 0.95903000E+02  0.16496E+04
 0.95953003E+02  0.22162E+04
 0.96002998E+02  0.30125E+04
 0.96053001E+02  0.41050E+04
 0.96102997E+02  0.47575E+04
 0.96153000E+02  0.50362E+04
 0.96203003E+02  0.54886E+04
 0.96252998E+02  0.57170E+04
 0.96303001E+02  0.53290E+04
 0.96352997E+02  0.49892E+04
 0.96403000E+02  0.45990E+04
 0.96453003E+02  0.45998E+04
 0.96502998E+02  0.47970E+04
 0.96553001E+02  0.44285E+04
 0.96602997E+02  0.34467E+04
 0.96653000E+02  0.23560E+04
 0.96703003E+02  0.12744E+04
 0.96752998E+02  0.48710E+03
 0.96803001E+02  0.45185E+03
 0.96852997E+02  0.51254E+03
 0.96903000E+02  0.37296E+03
 0.96953003E+02  0.27061E+02
 0.97002998E+02 -0.27262E+03
 0.97053001E+02 -0.39465E+03
 0.97102997E+02 -0.70068E+03
 0.97153000E+02 -0.93702E+03
 0.97203003E+02 -0.74644E+03
 0.97252998E+02 -0.24793E+03
 0.97303001E+02 -0.51823E+02
 0.97352997E+02 -0.12147E+03
 0.97403000E+02 -0.25744E+03
 0.97453003E+02 -0.10384E+04
 0.97502998E+02 -0.16407E+04
 0.97553001E+02 -0.17503E+04
 0.97602997E+02 -0.15200E+04
 0.97653000E+02 -0.30293E+03
 0.97703003E+02  0.63862E+03
 0.97752998E+02  0.12704E+04
 0.97803001E+02  0.22299E+04
 0.97852997E+02  0.30919E+04
 0.97903000E+02  0.39272E+04
 0.97953003E+02  0.48335E+04
 0.98002998E+02  0.55592E+04
