-0.19969940E+01 -0.23175E+05
-0.19469941E+01 -0.23068E+05
-0.18969940E+01 -0.23157E+05
-0.18469940E+01 -0.23124E+05
-0.17969940E+01 -0.23133E+05
-0.17469940E+01 -0.23144E+05
-0.16969941E+01 -0.23153E+05
-0.16469941E+01 -0.23184E+05
-0.15969940E+01 -0.23170E+05
-0.15469940E+01 -0.23158E+05
-0.14969940E+01 -0.23141E+05
-0.14469941E+01 -0.23118E+05
-0.13969941E+01 -0.23121E+05
-0.13469940E+01 -0.23128E+05
-0.12969941E+01 -0.23159E+05
-0.12469940E+01 -0.23155E+05
-0.11969941E+01 -0.23127E+05
-0.11469941E+01 -0.23099E+05
-0.10969940E+01 -0.23101E+05
-0.10469941E+01 -0.23110E+05
-0.99699408E+00 -0.23099E+05
-0.94699407E+00 -0.23073E+05
-0.89699411E+00 -0.23081E+05
-0.84699404E+00 -0.23115E+05
-0.79699409E+00 -0.23130E+05
-0.74699414E+00 -0.23148E+05
-0.69699407E+00 -0.23153E+05
-0.64699411E+00 -0.23168E+05
-0.59699416E+00 -0.23169E+05
-0.54699409E+00 -0.23156E+05
-0.49699414E+00 -0.23118E+05
-0.44699407E+00 -0.23102E+05
-0.39699411E+00 -0.23130E+05
-0.34699416E+00 -0.23139E+05
-0.29699409E+00 -0.23133E+05
-0.24699414E+00 -0.23111E+05
-0.19699407E+00 -0.23095E+05
-0.14699411E+00 -0.23127E+05
-0.96994162E-01 -0.23110E+05
-0.46994090E-01 -0.23069E+05
 0.30058622E-02 -0.23075E+05
 0.53005934E-01 -0.23098E+05
 0.10300589E+00 -0.23114E+05
 0.15300584E+00 -0.23080E+05
 0.20300579E+00 -0.23090E+05
 0.25300574E+00 -0.23119E+05
 0.30300593E+00 -0.23142E+05
 0.35300589E+00 -0.23145E+05
 0.40300584E+00 -0.23109E+05
 0.45300579E+00 -0.23097E+05
 0.50300574E+00 -0.23111E+05
 0.55300593E+00 -0.23155E+05
 0.60300589E+00 -0.23170E+05
 0.65300584E+00 -0.23135E+05
 0.70300579E+00 -0.23127E+05
 0.75300574E+00 -0.23156E+05
 0.80300570E+00 -0.23165E+05
 0.85300589E+00 -0.23114E+05
 0.90300584E+00 -0.23102E+05
 0.95300579E+00 -0.23126E+05
 0.10030057E+01 -0.23139E+05
 0.10530057E+01 -0.23154E+05
 0.11030059E+01 -0.23117E+05
 0.11530058E+01 -0.23083E+05
 0.12030058E+01 -0.23108E+05
 0.12530057E+01 -0.23146E+05
 0.13030057E+01 -0.23129E+05
 0.13530059E+01 -0.23132E+05
 0.14030058E+01 -0.23134E+05
 0.14530058E+01 -0.23132E+05
 0.15030057E+01 -0.23129E+05
 0.15530057E+01 -0.23095E+05
 0.16030059E+01 -0.23107E+05
 0.16530058E+01 -0.23125E+05
 0.17030058E+01 -0.23123E+05
 0.17530057E+01 -0.23114E+05
 0.18030057E+01 -0.23108E+05
 0.18530056E+01 -0.23100E+05
 0.19030058E+01 -0.23119E+05
 0.19530058E+01 -0.23103E+05
 0.20030057E+01 -0.23078E+05
 0.20530057E+01 -0.23098E+05
 0.21030059E+01 -0.23110E+05
 0.21530056E+01 -0.23124E+05
 0.22030058E+01 -0.23130E+05
 0.22530055E+01 -0.23115E+05
 0.23030057E+01 -0.23118E+05
 0.23530059E+01 -0.23118E+05
 0.24030056E+01 -0.23099E+05
 0.24530058E+01 -0.23132E+05
 0.25030055E+01 -0.23163E+05
 0.25530057E+01 -0.23154E+05
 0.26030059E+01 -0.23128E+05
 0.26530056E+01 -0.23091E+05
 0.27030058E+01 -0.23100E+05
 0.27530055E+01 -0.23094E+05
 0.28030057E+01 -0.23107E+05
 0.28530059E+01 -0.23118E+05
 0.29030056E+01 -0.23129E+05
 0.29530058E+01 -0.23124E+05
 0.30030055E+01 -0.23114E+05
 0.30530057E+01 -0.23141E+05
 0.31030059E+01 -0.23125E+05
 0.31530056E+01 -0.23104E+05
 0.32030058E+01 -0.23096E+05
 0.32530055E+01 -0.23137E+05
 0.33030057E+01 -0.23158E+05
 0.33530059E+01 -0.23118E+05
 0.34030056E+01 -0.23100E+05
 0.34530058E+01 -0.23104E+05
 0.35030055E+01 -0.23136E+05
 0.35530057E+01 -0.23185E+05
 0.36030054E+01 -0.23169E+05
 0.36530056E+01 -0.23134E+05
 0.37030058E+01 -0.23120E+05
 0.37530055E+01 -0.23115E+05
 0.38030057E+01 -0.23136E+05
 0.38530054E+01 -0.23149E+05
 0.39030056E+01 -0.23116E+05
 0.39530058E+01 -0.23120E+05
 0.40030055E+01 -0.23132E+05
 0.40530057E+01 -0.23114E+05
 0.41030054E+01 -0.23101E+05
 0.41530056E+01 -0.23097E+05
 0.42030058E+01 -0.23097E+05
 0.42530055E+01 -0.23084E+05
 0.43030057E+01 -0.23117E+05
 0.43530054E+01 -0.23141E+05
 0.44030056E+01 -0.23160E+05
 0.44530058E+01 -0.23134E+05
 0.45030055E+01 -0.23105E+05
 0.45530057E+01 -0.23150E+05
 0.46030054E+01 -0.23152E+05
 0.46530056E+01 -0.23122E+05
 0.47030058E+01 -0.23112E+05
 0.47530055E+01 -0.23120E+05
 0.48030057E+01 -0.23129E+05
 0.48530054E+01 -0.23130E+05
 0.49030056E+01 -0.23119E+05
 0.49530058E+01 -0.23108E+05
 0.50030055E+01 -0.23079E+05
 0.50530057E+01 -0.23079E+05
 0.51030054E+01 -0.23111E+05
 0.51530056E+01 -0.23118E+05
 0.52030058E+01 -0.23126E+05
 0.52530055E+01 -0.23109E+05
 0.53030057E+01 -0.23122E+05
 0.53530054E+01 -0.23178E+05
 0.54030056E+01 -0.23131E+05
 0.54530053E+01 -0.23112E+05
 0.55030055E+01 -0.23121E+05
 0.55530057E+01 -0.23139E+05
 0.56030054E+01 -0.23157E+05
 0.56530056E+01 -0.23112E+05
 0.57030053E+01 -0.23112E+05
 0.57530055E+01 -0.23155E+05
 0.58030057E+01 -0.23155E+05
 0.58530054E+01 -0.23124E+05
 0.59030056E+01 -0.23135E+05
 0.59530053E+01 -0.23118E+05
 0.60030055E+01 -0.23114E+05
 0.60530052E+01 -0.23132E+05
 0.61030054E+01 -0.23105E+05
 0.61530056E+01 -0.23119E+05
 0.62030058E+01 -0.23149E+05
 0.62530050E+01 -0.23149E+05
 0.63030052E+01 -0.23154E+05
 0.63530054E+01 -0.23140E+05
 0.64030056E+01 -0.23118E+05
 0.64530058E+01 -0.23128E+05
 0.65030050E+01 -0.23119E+05
 0.65530052E+01 -0.23097E+05
 0.66030054E+01 -0.23106E+05
 0.66530056E+01 -0.23098E+05
 0.67030058E+01 -0.23106E+05
 0.67530050E+01 -0.23070E+05
 0.68030052E+01 -0.23071E+05
 0.68530054E+01 -0.23131E+05
 0.69030056E+01 -0.23122E+05
 0.69530058E+01 -0.23096E+05
 0.70030050E+01 -0.23103E+05
 0.70530052E+01 -0.23098E+05
 0.71030054E+01 -0.23101E+05
 0.71530056E+01 -0.23142E+05
 0.72030058E+01 -0.23125E+05
 0.72530050E+01 -0.23151E+05
 0.73030052E+01 -0.23163E+05
 0.73530054E+01 -0.23143E+05
 0.74030056E+01 -0.23174E+05
 0.74530058E+01 -0.23152E+05
 0.75030050E+01 -0.23139E+05
 0.75530052E+01 -0.23124E+05
 0.76030054E+01 -0.23135E+05
 0.76530056E+01 -0.23141E+05
 0.77030058E+01 -0.23136E+05
 0.77530050E+01 -0.23118E+05
 0.78030052E+01 -0.23126E+05
 0.78530054E+01 -0.23156E+05
 0.79030056E+01 -0.23159E+05
 0.79530058E+01 -0.23178E+05
 0.80030050E+01 -0.23109E+05
 0.80530052E+01 -0.23111E+05
 0.81030054E+01 -0.23142E+05
 0.81530056E+01 -0.23137E+05
 0.82030058E+01 -0.23129E+05
 0.82530050E+01 -0.23133E+05
 0.83030052E+01 -0.23096E+05
 0.83530054E+01 -0.23060E+05
 0.84030056E+01 -0.23116E+05
 0.84530058E+01 -0.23128E+05
 0.85030050E+01 -0.23126E+05
 0.85530052E+01 -0.23111E+05
 0.86030054E+01 -0.23154E+05
 0.86530056E+01 -0.23166E+05
 0.87030058E+01 -0.23132E+05
 0.87530050E+01 -0.23158E+05
 0.88030052E+01 -0.23165E+05
 0.88530054E+01 -0.23166E+05
 0.89030056E+01 -0.23126E+05
 0.89530058E+01 -0.23107E+05
 0.90030050E+01 -0.23116E+05
 0.90530052E+01 -0.23127E+05
 0.91030054E+01 -0.23104E+05
 0.91530056E+01 -0.23077E+05
 0.92030048E+01 -0.23084E+05
 0.92530050E+01 -0.23118E+05
 0.93030052E+01 -0.23123E+05
 0.93530054E+01 -0.23092E+05
 0.94030056E+01 -0.23081E+05
 0.94530048E+01 -0.23095E+05
 0.95030050E+01 -0.23095E+05
 0.95530052E+01 -0.23078E+05
 0.96030054E+01 -0.23094E+05
 0.96530056E+01 -0.23117E+05
 0.97030048E+01 -0.23130E+05
 0.97530050E+01 -0.23114E+05
 0.98030052E+01 -0.23092E+05
 0.98530054E+01 -0.23070E+05
 0.99030056E+01 -0.23101E+05
 0.99530048E+01 -0.23105E+05
 0.10003005E+02 -0.23057E+05
 0.10053005E+02 -0.23097E+05
 0.10103005E+02 -0.23141E+05
 0.10153006E+02 -0.23164E+05
 0.10203005E+02 -0.23151E+05
 0.10253005E+02 -0.23124E+05
 0.10303005E+02 -0.23140E+05
 0.10353005E+02 -0.23143E+05
 0.10403006E+02 -0.23129E+05
 0.10453005E+02 -0.23096E+05
 0.10503005E+02 -0.23090E+05
 0.10553005E+02 -0.23109E+05
 0.10603005E+02 -0.23147E+05
 0.10653006E+02 -0.23113E+05
 0.10703005E+02 -0.23146E+05
 0.10753005E+02 -0.23154E+05
 0.10803005E+02 -0.23135E+05
 0.10853005E+02 -0.23115E+05
 0.10903006E+02 -0.23109E+05
 0.10953005E+02 -0.23188E+05
 0.11003005E+02 -0.23085E+05
 0.11053005E+02 -0.22842E+05
 0.11103005E+02 -0.22503E+05
 0.11153006E+02 -0.22742E+05
 0.11203005E+02 -0.22930E+05
 0.11253005E+02 -0.23712E+05
 0.11303005E+02 -0.23254E+05
 0.11353005E+02 -0.23557E+05
 0.11403006E+02 -0.24090E+05
 0.11453005E+02 -0.24536E+05
 0.11503005E+02 -0.24200E+05
 0.11553005E+02 -0.23009E+05
 0.11603005E+02 -0.21326E+05
 0.11653006E+02 -0.20026E+05
 0.11703005E+02 -0.22473E+05
 0.11753005E+02 -0.22067E+05
 0.11803005E+02 -0.22948E+05
 0.11853005E+02 -0.22778E+05
 0.11903006E+02 -0.24039E+05
 0.11953005E+02 -0.22677E+05
 0.12003005E+02 -0.24205E+05
 0.12053005E+02 -0.26425E+05
 0.12103005E+02 -0.23877E+05
 0.12153006E+02 -0.22931E+05
 0.12203005E+02 -0.18735E+05
 0.12253005E+02 -0.20115E+05
 0.12303005E+02 -0.31197E+05
 0.12353005E+02 -0.30906E+05
 0.12403006E+02 -0.14614E+05
 0.12453005E+02 -0.22714E+05
 0.12503005E+02 -0.34424E+05
 0.12553005E+02 -0.17908E+05
 0.12603005E+02 -0.20539E+05
 0.12653005E+02 -0.28305E+05
 0.12703005E+02 -0.27414E+04
 0.12753005E+02 -0.11820E+05
 0.12803005E+02 -0.40518E+05
 0.12853005E+02 -0.23946E+05
 0.12903005E+02 -0.20899E+05
 0.12953005E+02 -0.39888E+05
 0.13003005E+02 -0.21687E+05
 0.13053005E+02 -0.89786E+04
 0.13103005E+02 -0.28151E+05
 0.13153005E+02 -0.36641E+05
 0.13203005E+02 -0.20276E+05
 0.13253005E+02 -0.86900E+04
 0.13303005E+02 -0.17595E+05
 0.13353005E+02 -0.29701E+05
 0.13403005E+02 -0.33975E+05
 0.13453005E+02 -0.20687E+05
 0.13503005E+02 -0.21739E+05
 0.13553005E+02 -0.26062E+05
 0.13603005E+02 -0.96864E+04
 0.13653005E+02 -0.15257E+05
 0.13703005E+02 -0.38066E+05
 0.13753005E+02 -0.31442E+05
 0.13803005E+02 -0.17918E+05
 0.13853005E+02 -0.22567E+05
 0.13903005E+02 -0.24046E+05
 0.13953005E+02 -0.18451E+05
 0.14003005E+02 -0.20688E+05
 0.14053005E+02 -0.31900E+05
 0.14103004E+02 -0.17087E+05
 0.14153006E+02 -0.86224E+04
 0.14203005E+02 -0.18317E+05
 0.14253004E+02 -0.40409E+05
 0.14303005E+02 -0.47206E+05
 0.14353004E+02 -0.12121E+05
 0.14403006E+02 -0.87462E+04
 0.14453005E+02 -0.27128E+05
 0.14503004E+02 -0.25597E+05
 0.14553005E+02 -0.23752E+05
 0.14603004E+02 -0.23729E+05
 0.14653006E+02 -0.74891E+04
 0.14703005E+02 -0.19410E+05
 0.14753004E+02 -0.28163E+05
 0.14803005E+02 -0.27300E+05
 0.14853004E+02 -0.35297E+05
 0.14903006E+02 -0.29491E+05
 0.14953005E+02 -0.16771E+05
 0.15003004E+02 -0.13425E+05
 0.15053005E+02 -0.21087E+05
 0.15103004E+02 -0.32027E+05
 0.15153006E+02 -0.24396E+05
 0.15203005E+02 -0.20974E+05
 0.15253004E+02 -0.30801E+05
 0.15303005E+02 -0.91681E+04
 0.15353004E+02 -0.19184E+05
 0.15403006E+02 -0.40569E+05
 0.15453005E+02 -0.14030E+05
 0.15503004E+02 -0.11026E+05
 0.15553005E+02 -0.34861E+05
 0.15603004E+02 -0.27154E+05
 0.15653006E+02 -0.27989E+05
 0.15703005E+02 -0.26071E+05
 0.15753004E+02 -0.19025E+05
 0.15803005E+02 -0.19181E+05
 0.15853004E+02 -0.19410E+05
 0.15903006E+02 -0.20349E+05
 0.15953005E+02 -0.22511E+05
 0.16003004E+02 -0.30318E+05
 0.16053005E+02 -0.28255E+05
 0.16103004E+02 -0.79718E+04
 0.16153006E+02 -0.19226E+05
 0.16203005E+02 -0.27962E+05
 0.16253004E+02 -0.27904E+05
 0.16303005E+02 -0.35050E+05
 0.16353004E+02 -0.15028E+05
 0.16403006E+02 -0.73885E+03
 0.16453005E+02 -0.25340E+05
 0.16503004E+02 -0.56193E+05
 0.16553005E+02 -0.14722E+05
 0.16603004E+02 -0.14154E+05
 0.16653006E+02 -0.34443E+05
 0.16703005E+02 -0.19794E+05
 0.16753004E+02 -0.12457E+05
 0.16803005E+02 -0.25932E+05
 0.16853004E+02 -0.36996E+05
 0.16903006E+02 -0.10401E+05
 0.16953005E+02 -0.15542E+05
 0.17003004E+02 -0.13882E+05
 0.17053005E+02 -0.23137E+05
 0.17103004E+02 -0.39221E+05
 0.17153006E+02 -0.26902E+05
 0.17203005E+02 -0.13161E+05
 0.17253004E+02 -0.22200E+05
 0.17303005E+02 -0.28377E+05
 0.17353004E+02 -0.14768E+05
 0.17403006E+02 -0.38192E+05
 0.17453005E+02 -0.38893E+05
 0.17503004E+02 -0.17953E+05
 0.17553005E+02 -0.46244E+04
 0.17603004E+02 -0.23627E+05
 0.17653006E+02 -0.27795E+05
 0.17703005E+02 -0.13366E+05
 0.17753004E+02 -0.12400E+05
 0.17803005E+02 -0.28994E+05
 0.17853004E+02 -0.44577E+05
 0.17903006E+02 -0.23877E+05
 0.17953005E+02 -0.15412E+05
 0.18003004E+02 -0.17498E+05
 0.18053005E+02 -0.27373E+05
 0.18103004E+02 -0.27222E+05
 0.18153006E+02 -0.21117E+05
 0.18203005E+02 -0.15753E+05
 0.18253004E+02 -0.24752E+05
 0.18303005E+02 -0.16019E+05
 0.18353004E+02 -0.79139E+04
 0.18403006E+02 -0.35597E+05
 0.18453005E+02 -0.39708E+05
 0.18503004E+02 -0.27835E+05
 0.18553005E+02 -0.26653E+05
 0.18603004E+02 -0.25574E+05
 0.18653006E+02 -0.28178E+05
 0.18703005E+02 -0.13988E+05
 0.18753004E+02 -0.99494E+04
 0.18803005E+02 -0.20044E+05
 0.18853004E+02 -0.19003E+05
 0.18903006E+02 -0.28786E+05
 0.18953005E+02 -0.30607E+05
 0.19003004E+02 -0.37924E+05
 0.19053005E+02 -0.26487E+05
 0.19103004E+02 -0.14697E+05
 0.19153006E+02 -0.13900E+04
 0.19203005E+02  0.49002E+04
 0.19253004E+02  0.45684E+04
 0.19303005E+02 -0.13912E+05
 0.19353004E+02 -0.57126E+05
 0.19403006E+02 -0.74382E+05
 0.19453005E+02 -0.69178E+05
 0.19503004E+02 -0.58422E+05
 0.19553005E+02 -0.41597E+05
 0.19603004E+02  0.46079E+04
 0.19653006E+02  0.27316E+05
 0.19703005E+02  0.54388E+05
 0.19753004E+02  0.51300E+04
 0.19803005E+02 -0.40137E+05
 0.19853004E+02 -0.39569E+05
 0.19903006E+02 -0.53905E+05
 0.19953005E+02 -0.70911E+05
 0.20003004E+02 -0.49720E+05
 0.20053005E+02  0.15085E+05
 0.20103004E+02  0.30025E+05
 0.20153006E+02 -0.48755E+04
 0.20203005E+02 -0.46589E+04
 0.20253004E+02 -0.26492E+05
 0.20303005E+02 -0.60294E+05
 0.20353004E+02 -0.68649E+05
 0.20403004E+02 -0.63011E+05
 0.20453005E+02 -0.23405E+05
 0.20503004E+02 -0.12865E+05
 0.20553005E+02  0.13691E+05
 0.20603004E+02  0.95246E+03
 0.20653004E+02  0.28084E+05
 0.20703005E+02  0.17654E+05
 0.20753004E+02 -0.46723E+05
 0.20803005E+02 -0.86279E+05
 0.20853004E+02 -0.58197E+05
 0.20903004E+02 -0.33216E+05
 0.20953005E+02 -0.34274E+05
 0.21003004E+02 -0.58853E+04
 0.21053005E+02 -0.45372E+05
 0.21103004E+02 -0.95406E+04
 0.21153004E+02  0.19753E+05
 0.21203005E+02 -0.12646E+05
 0.21253004E+02 -0.48021E+05
 0.21303005E+02 -0.91186E+04
 0.21353004E+02  0.45408E+04
 0.21403004E+02 -0.67329E+05
 0.21453005E+02 -0.27611E+05
 0.21503004E+02 -0.21465E+05
 0.21553005E+02 -0.39876E+05
 0.21603004E+02 -0.22261E+05
 0.21653004E+02 -0.14317E+04
 0.21703005E+02  0.12146E+05
 0.21753004E+02 -0.12046E+05
 0.21803005E+02 -0.21479E+05
 0.21853004E+02 -0.49148E+05
 0.21903004E+02 -0.38836E+05
 0.21953005E+02 -0.52468E+05
 0.22003004E+02 -0.55220E+05
 0.22053005E+02  0.15374E+05
 0.22103004E+02  0.16616E+05
 0.22153004E+02 -0.15510E+05
 0.22203005E+02 -0.29207E+05
 0.22253004E+02 -0.38103E+05
 0.22303005E+02 -0.42489E+05
 0.22353004E+02 -0.37155E+05
 0.22403004E+02 -0.27332E+05
 0.22453005E+02  0.55162E+03
 0.22503004E+02  0.19460E+05
 0.22553005E+02 -0.10885E+05
 0.22603004E+02 -0.78716E+05
 0.22653004E+02 -0.42110E+05
 0.22703005E+02 -0.15413E+04
 0.22753004E+02 -0.18663E+05
 0.22803005E+02 -0.27065E+05
 0.22853004E+02 -0.19423E+05
 0.22903004E+02 -0.59032E+04
 0.22953005E+02 -0.27410E+05
 0.23003004E+02  0.11524E+05
 0.23053005E+02 -0.38074E+04
 0.23103004E+02 -0.51287E+05
 0.23153004E+02 -0.71829E+05
 0.23203005E+02 -0.62262E+05
 0.23253004E+02 -0.44322E+04
 0.23303005E+02  0.91103E+04
 0.23353004E+02 -0.10015E+05
 0.23403004E+02 -0.39821E+05
 0.23453005E+02 -0.73149E+04
 0.23503004E+02 -0.68272E+04
 0.23553005E+02 -0.43072E+05
 0.23603004E+02 -0.24835E+05
 0.23653004E+02 -0.16103E+05
 0.23703005E+02 -0.12260E+05
 0.23753004E+02 -0.36866E+05
 0.23803005E+02 -0.34978E+05
 0.23853004E+02 -0.32800E+05
 0.23903004E+02 -0.35885E+05
 0.23953005E+02 -0.22631E+05
 0.24003004E+02  0.55544E+03
 0.24053005E+02  0.12636E+05
 0.24103004E+02 -0.28698E+05
 0.24153004E+02 -0.47788E+05
 0.24203005E+02 -0.33734E+05
 0.24253004E+02 -0.24794E+05
 0.24303005E+02 -0.23441E+05
 0.24353004E+02 -0.10364E+05
 0.24403004E+02 -0.24970E+05
 0.24453005E+02 -0.28925E+05
 0.24503004E+02 -0.82516E+04
 0.24553005E+02 -0.10770E+05
 0.24603004E+02 -0.42750E+05
 0.24653004E+02 -0.24331E+05
 0.24703005E+02 -0.78559E+04
 0.24753004E+02 -0.31922E+05
 0.24803005E+02 -0.22458E+05
 0.24853004E+02 -0.32243E+05
 0.24903004E+02 -0.20953E+05
 0.24953005E+02 -0.10876E+05
 0.25003004E+02 -0.17647E+05
 0.25053005E+02 -0.33360E+05
 0.25103004E+02 -0.35626E+05
 0.25153004E+02 -0.28042E+05
 0.25203005E+02 -0.27851E+05
 0.25253004E+02 -0.75417E+04
 0.25303005E+02 -0.14237E+05
 0.25353004E+02 -0.25014E+05
 0.25403004E+02 -0.24754E+05
 0.25453005E+02 -0.35400E+05
 0.25503004E+02 -0.34088E+05
 0.25553005E+02 -0.22358E+05
 0.25603004E+02 -0.29402E+05
 0.25653004E+02 -0.24216E+05
 0.25703005E+02 -0.20580E+05
 0.25753004E+02 -0.97729E+04
 0.25803005E+02 -0.23459E+04
 0.25853004E+02 -0.20565E+05
 0.25903004E+02 -0.24768E+05
 0.25953005E+02 -0.35612E+05
 0.26003004E+02 -0.44716E+05
 0.26053005E+02 -0.30430E+05
 0.26103004E+02 -0.21503E+05
 0.26153004E+02 -0.23713E+05
 0.26203005E+02 -0.10080E+05
 0.26253004E+02 -0.16368E+05
 0.26303005E+02 -0.10158E+05
 0.26353004E+02 -0.12137E+05
 0.26403004E+02 -0.40682E+05
 0.26453005E+02 -0.41122E+05
 0.26503004E+02 -0.18583E+05
 0.26553005E+02 -0.20974E+05
 0.26603004E+02 -0.19893E+05
 0.26653004E+02 -0.61152E+04
 0.26703005E+02 -0.24362E+05
 0.26753004E+02 -0.25611E+05
 0.26803005E+02 -0.32938E+05
 0.26853004E+02 -0.31632E+05
 0.26903004E+02 -0.21184E+05
 0.26953005E+02 -0.17428E+05
 0.27003004E+02 -0.10056E+05
 0.27053003E+02 -0.17566E+05
 0.27103004E+02 -0.34568E+05
 0.27153004E+02 -0.39496E+05
 0.27203005E+02 -0.34017E+05
 0.27253004E+02 -0.20718E+05
 0.27303003E+02 -0.19416E+05
 0.27353004E+02 -0.18292E+05
 0.27403004E+02 -0.11213E+05
 0.27453005E+02 -0.14444E+05
 0.27503004E+02 -0.14153E+05
 0.27553003E+02 -0.25990E+05
 0.27603004E+02 -0.31796E+05
 0.27653004E+02 -0.27812E+05
 0.27703005E+02 -0.28037E+05
 0.27753004E+02 -0.30010E+05
 0.27803003E+02 -0.21906E+05
 0.27853004E+02 -0.14192E+05
 0.27903004E+02 -0.22269E+05
 0.27953005E+02 -0.33485E+05
 0.28003004E+02 -0.26004E+05
 0.28053003E+02 -0.17800E+05
 0.28103004E+02 -0.15406E+05
 0.28153004E+02 -0.17759E+05
 0.28203005E+02 -0.31620E+05
 0.28253004E+02 -0.26039E+05
 0.28303003E+02 -0.20305E+05
 0.28353004E+02 -0.23894E+05
 0.28403004E+02 -0.23096E+05
 0.28453005E+02 -0.70261E+04
 0.28503004E+02 -0.12644E+05
 0.28553003E+02 -0.31797E+05
 0.28603004E+02 -0.35841E+05
 0.28653004E+02 -0.40330E+05
 0.28703005E+02 -0.40227E+05
 0.28753004E+02 -0.23740E+05
 0.28803003E+02 -0.71566E+04
 0.28853004E+02 -0.97325E+04
 0.28903004E+02 -0.64593E+04
 0.28953005E+02 -0.17889E+05
 0.29003004E+02 -0.36689E+05
 0.29053003E+02 -0.39145E+05
 0.29103004E+02 -0.28292E+05
 0.29153004E+02 -0.18829E+05
 0.29203005E+02 -0.21801E+05
 0.29253004E+02 -0.19217E+05
 0.29303003E+02 -0.10260E+05
 0.29353004E+02 -0.96679E+04
 0.29403004E+02 -0.23211E+05
 0.29453005E+02 -0.39369E+05
 0.29503004E+02 -0.34613E+05
 0.29553003E+02 -0.25434E+05
 0.29603004E+02 -0.21250E+05
 0.29653004E+02 -0.84352E+04
 0.29703005E+02 -0.12028E+05
 0.29753004E+02 -0.21920E+05
 0.29803003E+02 -0.31761E+05
 0.29853004E+02 -0.29856E+05
 0.29903004E+02 -0.26346E+05
 0.29953005E+02 -0.21708E+05
 0.30003004E+02 -0.19683E+05
 0.30053005E+02 -0.29169E+05
 0.30103004E+02 -0.27809E+05
 0.30153004E+02 -0.16819E+05
 0.30203003E+02 -0.15636E+05
 0.30253002E+02 -0.26839E+05
 0.30303005E+02 -0.16988E+05
 0.30353004E+02 -0.21573E+05
 0.30403004E+02 -0.29326E+05
 0.30453003E+02 -0.22336E+05
 0.30503002E+02 -0.31668E+05
 0.30553005E+02 -0.33439E+05
 0.30603004E+02 -0.25392E+05
 0.30653004E+02 -0.21089E+05
 0.30703003E+02 -0.12906E+05
 0.30753002E+02 -0.12825E+05
 0.30803005E+02 -0.19729E+05
 0.30853004E+02 -0.37029E+05
 0.30903004E+02 -0.34751E+05
 0.30953003E+02 -0.18846E+05
 0.31003002E+02 -0.17559E+05
 0.31053005E+02 -0.15318E+05
 0.31103004E+02 -0.13416E+05
 0.31153004E+02 -0.18199E+05
 0.31203003E+02 -0.24453E+05
 0.31253002E+02 -0.31960E+05
 0.31303005E+02 -0.34314E+05
 0.31353004E+02 -0.30578E+05
 0.31403004E+02 -0.30380E+05
 0.31453003E+02 -0.19992E+05
 0.31503002E+02 -0.19786E+05
 0.31553005E+02 -0.16662E+05
 0.31603004E+02 -0.14866E+05
 0.31653004E+02 -0.22014E+05
 0.31703003E+02 -0.25760E+05
 0.31753002E+02 -0.24829E+05
 0.31803005E+02 -0.28496E+05
 0.31853004E+02 -0.27044E+05
 0.31903004E+02 -0.23048E+05
 0.31953003E+02 -0.25887E+05
 0.32003002E+02 -0.15339E+05
 0.32053005E+02 -0.14174E+05
 0.32103004E+02 -0.21434E+05
 0.32153004E+02 -0.22911E+05
 0.32203003E+02 -0.21818E+05
 0.32253002E+02 -0.23559E+05
 0.32303005E+02 -0.27669E+05
 0.32353004E+02 -0.25583E+05
 0.32403004E+02 -0.20221E+05
 0.32453003E+02 -0.23119E+05
 0.32503002E+02 -0.22209E+05
 0.32553005E+02 -0.25375E+05
 0.32603004E+02 -0.28768E+05
 0.32653004E+02 -0.23180E+05
 0.32703003E+02 -0.15217E+05
 0.32753002E+02 -0.15907E+05
 0.32803005E+02 -0.26070E+05
 0.32853004E+02 -0.33181E+05
 0.32903004E+02 -0.31889E+05
 0.32953003E+02 -0.25311E+05
 0.33003002E+02 -0.25071E+05
 0.33053005E+02 -0.11992E+05
 0.33103004E+02 -0.69912E+04
 0.33153004E+02 -0.19443E+05
 0.33203003E+02 -0.30280E+05
 0.33253002E+02 -0.36831E+05
 0.33303005E+02 -0.30638E+05
 0.33353004E+02 -0.20188E+05
 0.33403004E+02 -0.15580E+05
 0.33453003E+02 -0.19862E+05
 0.33503002E+02 -0.22391E+05
 0.33553005E+02 -0.19904E+05
 0.33603004E+02 -0.19253E+05
 0.33653004E+02 -0.19962E+05
 0.33703003E+02 -0.24455E+05
 0.33753002E+02 -0.28906E+05
 0.33803005E+02 -0.27514E+05
 0.33853004E+02 -0.25413E+05
 0.33903004E+02 -0.22097E+05
 0.33953003E+02 -0.26561E+05
 0.34003002E+02 -0.30988E+05
 0.34053005E+02 -0.23060E+05
 0.34103004E+02 -0.19688E+05
 0.34153004E+02 -0.23747E+05
 0.34203003E+02 -0.23234E+05
 0.34253002E+02 -0.11973E+05
 0.34303005E+02 -0.12251E+05
 0.34353004E+02 -0.27703E+05
 0.34403004E+02 -0.36346E+05
 0.34453003E+02 -0.33871E+05
 0.34503002E+02 -0.26526E+05
 0.34553005E+02 -0.18236E+05
 0.34603004E+02 -0.14672E+05
 0.34653004E+02 -0.16306E+05
 0.34703003E+02 -0.19164E+05
 0.34753002E+02 -0.22029E+05
 0.34803005E+02 -0.25167E+05
 0.34853004E+02 -0.26043E+05
 0.34903004E+02 -0.25381E+05
 0.34953003E+02 -0.27901E+05
 0.35003002E+02 -0.26011E+05
 0.35053005E+02 -0.23865E+05
 0.35103004E+02 -0.16185E+05
 0.35153004E+02 -0.17629E+05
 0.35203003E+02 -0.20634E+05
 0.35253002E+02 -0.20738E+05
 0.35303005E+02 -0.24909E+05
 0.35353004E+02 -0.22387E+05
 0.35403004E+02 -0.24762E+05
 0.35453003E+02 -0.25421E+05
 0.35503002E+02 -0.29658E+05
 0.35553005E+02 -0.32010E+05
 0.35603004E+02 -0.21345E+05
 0.35653004E+02 -0.16275E+05
 0.35703003E+02 -0.18392E+05
 0.35753002E+02 -0.18068E+05
 0.35803005E+02 -0.24067E+05
 0.35853004E+02 -0.26953E+05
 0.35903004E+02 -0.25183E+05
 0.35953003E+02 -0.27735E+05
 0.36003002E+02 -0.24416E+05
 0.36053005E+02 -0.23580E+05
 0.36103004E+02 -0.28331E+05
 0.36153004E+02 -0.20960E+05
 0.36203003E+02 -0.12702E+05
 0.36253002E+02 -0.16950E+05
 0.36303005E+02 -0.23052E+05
 0.36353004E+02 -0.28201E+05
 0.36403004E+02 -0.27732E+05
 0.36453003E+02 -0.22818E+05
 0.36503002E+02 -0.22041E+05
 0.36553005E+02 -0.24635E+05
 0.36603004E+02 -0.27282E+05
 0.36653004E+02 -0.27323E+05
 0.36703003E+02 -0.20323E+05
 0.36753002E+02 -0.16149E+05
 0.36803005E+02 -0.20310E+05
 0.36853004E+02 -0.18861E+05
 0.36903004E+02 -0.16355E+05
 0.36953003E+02 -0.27319E+05
 0.37003002E+02 -0.33478E+05
 0.37053005E+02 -0.30425E+05
 0.37103004E+02 -0.29200E+05
 0.37153004E+02 -0.22326E+05
 0.37203003E+02 -0.19455E+05
 0.37253002E+02 -0.20540E+05
 0.37303005E+02 -0.16071E+05
 0.37353004E+02 -0.15610E+05
 0.37403004E+02 -0.22024E+05
 0.37453003E+02 -0.23832E+05
 0.37503002E+02 -0.22950E+05
 0.37553005E+02 -0.26388E+05
 0.37603004E+02 -0.26006E+05
 0.37653004E+02 -0.24425E+05
 0.37703003E+02 -0.20851E+05
 0.37753002E+02 -0.15282E+05
 0.37803005E+02 -0.23966E+05
 0.37853004E+02 -0.28386E+05
 0.37903004E+02 -0.23199E+05
 0.37953003E+02 -0.24780E+05
 0.38003002E+02 -0.27054E+05
 0.38053005E+02 -0.21410E+05
 0.38103004E+02 -0.21927E+05
 0.38153004E+02 -0.24874E+05
 0.38203003E+02 -0.19837E+05
 0.38253002E+02 -0.22273E+05
 0.38303005E+02 -0.22474E+05
 0.38353004E+02 -0.22462E+05
 0.38403004E+02 -0.28780E+05
 0.38453003E+02 -0.29046E+05
 0.38503002E+02 -0.25910E+05
 0.38553005E+02 -0.23551E+05
 0.38603004E+02 -0.21455E+05
 0.38653004E+02 -0.20186E+05
 0.38703003E+02 -0.22350E+05
 0.38753002E+02 -0.18791E+05
 0.38803005E+02 -0.19234E+05
 0.38853004E+02 -0.26742E+05
 0.38903004E+02 -0.24424E+05
 0.38953003E+02 -0.24314E+05
 0.39003002E+02 -0.26303E+05
 0.39053005E+02 -0.21889E+05
 0.39103004E+02 -0.20055E+05
 0.39153004E+02 -0.21518E+05
 0.39203003E+02 -0.19567E+05
 0.39253002E+02 -0.20436E+05
 0.39303005E+02 -0.23055E+05
 0.39353004E+02 -0.26865E+05
 0.39403004E+02 -0.26615E+05
 0.39453003E+02 -0.23969E+05
 0.39503002E+02 -0.22034E+05
 0.39553005E+02 -0.21716E+05
 0.39603004E+02 -0.25032E+05
 0.39653004E+02 -0.18658E+05
 0.39703003E+02 -0.18378E+05
 0.39753002E+02 -0.26912E+05
 0.39803005E+02 -0.26495E+05
 0.39853004E+02 -0.26258E+05
 0.39903004E+02 -0.27539E+05
 0.39953003E+02 -0.23770E+05
 0.40003002E+02 -0.22088E+05
 0.40053005E+02 -0.26440E+05
 0.40103004E+02 -0.27006E+05
 0.40153004E+02 -0.20960E+05
 0.40203003E+02 -0.18276E+05
 0.40253002E+02 -0.16938E+05
 0.40303005E+02 -0.16056E+05
 0.40353004E+02 -0.23056E+05
 0.40403004E+02 -0.24334E+05
 0.40453003E+02 -0.24202E+05
 0.40503002E+02 -0.27885E+05
 0.40553005E+02 -0.25425E+05
 0.40603004E+02 -0.25556E+05
 0.40653004E+02 -0.23961E+05
 0.40703003E+02 -0.22503E+05
 0.40753002E+02 -0.21057E+05
 0.40803005E+02 -0.20965E+05
 0.40853004E+02 -0.23536E+05
 0.40903004E+02 -0.23801E+05
 0.40953003E+02 -0.21805E+05
 0.41003002E+02 -0.18342E+05
 0.41053005E+02 -0.22692E+05
 0.41103004E+02 -0.26720E+05
 0.41153004E+02 -0.23880E+05
 0.41203003E+02 -0.22193E+05
 0.41253002E+02 -0.22345E+05
 0.41303005E+02 -0.22106E+05
 0.41353004E+02 -0.23865E+05
 0.41403004E+02 -0.27588E+05
 0.41453003E+02 -0.24618E+05
 0.41503002E+02 -0.17759E+05
 0.41553005E+02 -0.20755E+05
 0.41603004E+02 -0.26051E+05
 0.41653004E+02 -0.24448E+05
 0.41703003E+02 -0.26238E+05
 0.41753002E+02 -0.27180E+05
 0.41803005E+02 -0.23734E+05
 0.41853004E+02 -0.20599E+05
 0.41903004E+02 -0.18452E+05
 0.41953003E+02 -0.22606E+05
 0.42003002E+02 -0.27150E+05
 0.42053005E+02 -0.26572E+05
 0.42103004E+02 -0.24063E+05
 0.42153004E+02 -0.23255E+05
 0.42203003E+02 -0.23887E+05
 0.42253002E+02 -0.20370E+05
 0.42303005E+02 -0.17832E+05
 0.42353004E+02 -0.19481E+05
 0.42403004E+02 -0.19614E+05
 0.42453003E+02 -0.23761E+05
 0.42503002E+02 -0.27055E+05
 0.42553005E+02 -0.24212E+05
 0.42603004E+02 -0.22305E+05
 0.42653004E+02 -0.22581E+05
 0.42703003E+02 -0.24435E+05
 0.42753002E+02 -0.23784E+05
 0.42803001E+02 -0.21759E+05
 0.42853004E+02 -0.21871E+05
 0.42903004E+02 -0.24741E+05
 0.42953003E+02 -0.22176E+05
 0.43003002E+02 -0.19689E+05
 0.43053001E+02 -0.20960E+05
 0.43103004E+02 -0.18467E+05
 0.43153004E+02 -0.22745E+05
 0.43203003E+02 -0.29734E+05
 0.43253002E+02 -0.29788E+05
 0.43303001E+02 -0.26926E+05
 0.43353004E+02 -0.24616E+05
 0.43403004E+02 -0.21968E+05
 0.43453003E+02 -0.20119E+05
 0.43503002E+02 -0.20080E+05
 0.43553001E+02 -0.20136E+05
 0.43603004E+02 -0.23719E+05
 0.43653004E+02 -0.27385E+05
 0.43703003E+02 -0.24228E+05
 0.43753002E+02 -0.19702E+05
 0.43803001E+02 -0.20780E+05
 0.43853004E+02 -0.22462E+05
 0.43903004E+02 -0.24597E+05
 0.43953003E+02 -0.24812E+05
 0.44003002E+02 -0.22553E+05
 0.44053001E+02 -0.21237E+05
 0.44103004E+02 -0.20889E+05
 0.44153004E+02 -0.23844E+05
 0.44203003E+02 -0.29156E+05
 0.44253002E+02 -0.31391E+05
 0.44303001E+02 -0.26605E+05
 0.44353004E+02 -0.24953E+05
 0.44403004E+02 -0.24095E+05
 0.44453003E+02 -0.21454E+05
 0.44503002E+02 -0.20415E+05
 0.44553001E+02 -0.21833E+05
 0.44603004E+02 -0.22541E+05
 0.44653004E+02 -0.22205E+05
 0.44703003E+02 -0.22493E+05
 0.44753002E+02 -0.22125E+05
 0.44803001E+02 -0.22937E+05
 0.44853004E+02 -0.19624E+05
 0.44903004E+02 -0.18867E+05
 0.44953003E+02 -0.20505E+05
 0.45003002E+02 -0.21353E+05
 0.45053001E+02 -0.22370E+05
 0.45103004E+02 -0.24737E+05
 0.45153004E+02 -0.27230E+05
 0.45203003E+02 -0.25672E+05
 0.45253002E+02 -0.23540E+05
 0.45303001E+02 -0.21243E+05
 0.45353004E+02 -0.22764E+05
 0.45403004E+02 -0.23985E+05
 0.45453003E+02 -0.25105E+05
 0.45503002E+02 -0.26617E+05
 0.45553001E+02 -0.23887E+05
 0.45603004E+02 -0.19829E+05
 0.45653004E+02 -0.21342E+05
 0.45703003E+02 -0.22462E+05
 0.45753002E+02 -0.19917E+05
 0.45803001E+02 -0.21651E+05
 0.45853004E+02 -0.25108E+05
 0.45903004E+02 -0.27204E+05
 0.45953003E+02 -0.25905E+05
 0.46003002E+02 -0.23128E+05
 0.46053001E+02 -0.21085E+05
 0.46103004E+02 -0.19342E+05
 0.46153004E+02 -0.19551E+05
 0.46203003E+02 -0.22269E+05
 0.46253002E+02 -0.25388E+05
 0.46303001E+02 -0.26241E+05
 0.46353004E+02 -0.23169E+05
 0.46403004E+02 -0.21462E+05
 0.46453003E+02 -0.23831E+05
 0.46503002E+02 -0.25934E+05
 0.46553001E+02 -0.24070E+05
 0.46603004E+02 -0.21438E+05
 0.46653004E+02 -0.19568E+05
 0.46703003E+02 -0.20174E+05
 0.46753002E+02 -0.24658E+05
 0.46803001E+02 -0.26550E+05
 0.46853004E+02 -0.25163E+05
 0.46903004E+02 -0.21982E+05
 0.46953003E+02 -0.22194E+05
 0.47003002E+02 -0.25209E+05
 0.47053001E+02 -0.24935E+05
 0.47103004E+02 -0.25063E+05
 0.47153004E+02 -0.24326E+05
 0.47203003E+02 -0.22280E+05
 0.47253002E+02 -0.21773E+05
 0.47303001E+02 -0.21511E+05
 0.47353004E+02 -0.21243E+05
 0.47403004E+02 -0.21472E+05
 0.47453003E+02 -0.22688E+05
 0.47503002E+02 -0.24120E+05
 0.47553001E+02 -0.24068E+05
 0.47603004E+02 -0.23627E+05
 0.47653004E+02 -0.23470E+05
 0.47703003E+02 -0.23256E+05
 0.47753002E+02 -0.23574E+05
 0.47803001E+02 -0.23214E+05
 0.47853004E+02 -0.22891E+05
 0.47903004E+02 -0.22865E+05
 0.47953003E+02 -0.24027E+05
 0.48003002E+02 -0.24098E+05
 0.48053001E+02 -0.22609E+05
 0.48103004E+02 -0.23230E+05
 0.48153004E+02 -0.23417E+05
 0.48203003E+02 -0.22609E+05
 0.48253002E+02 -0.20951E+05
 0.48303001E+02 -0.20193E+05
 0.48353004E+02 -0.20728E+05
 0.48403004E+02 -0.19874E+05
 0.48453003E+02 -0.22690E+05
 0.48503002E+02 -0.27243E+05
 0.48553001E+02 -0.26020E+05
 0.48603004E+02 -0.22585E+05
 0.48653004E+02 -0.21576E+05
 0.48703003E+02 -0.23184E+05
 0.48753002E+02 -0.25032E+05
 0.48803001E+02 -0.23892E+05
 0.48853004E+02 -0.23519E+05
 0.48903004E+02 -0.24720E+05
 0.48953003E+02 -0.22987E+05
 0.49003002E+02 -0.23018E+05
 0.49053001E+02 -0.24934E+05
 0.49103004E+02 -0.25366E+05
 0.49153004E+02 -0.24285E+05
 0.49203003E+02 -0.23165E+05
 0.49253002E+02 -0.22582E+05
 0.49303001E+02 -0.22007E+05
 0.49353004E+02 -0.22050E+05
 0.49403004E+02 -0.22247E+05
 0.49453003E+02 -0.21401E+05
 0.49503002E+02 -0.21243E+05
 0.49553001E+02 -0.23643E+05
 0.49603004E+02 -0.25870E+05
 0.49653004E+02 -0.26837E+05
 0.49703003E+02 -0.25008E+05
 0.49753002E+02 -0.23717E+05
 0.49803001E+02 -0.21946E+05
 0.49853004E+02 -0.19564E+05
 0.49903004E+02 -0.20545E+05
 0.49953003E+02 -0.22761E+05
 0.50003002E+02 -0.23038E+05
 0.50053001E+02 -0.21565E+05
 0.50103004E+02 -0.21577E+05
 0.50153004E+02 -0.22911E+05
 0.50203003E+02 -0.24979E+05
 0.50253002E+02 -0.25241E+05
 0.50303001E+02 -0.24055E+05
 0.50353004E+02 -0.21883E+05
 0.50403004E+02 -0.20311E+05
 0.50453003E+02 -0.22093E+05
 0.50503002E+02 -0.24551E+05
 0.50553001E+02 -0.26749E+05
 0.50603004E+02 -0.26859E+05
 0.50653004E+02 -0.22378E+05
 0.50703003E+02 -0.19994E+05
 0.50753002E+02 -0.22590E+05
 0.50803001E+02 -0.23890E+05
 0.50853004E+02 -0.23541E+05
 0.50903004E+02 -0.23706E+05
 0.50953003E+02 -0.23054E+05
 0.51003002E+02 -0.23302E+05
 0.51053001E+02 -0.22924E+05
 0.51103004E+02 -0.20985E+05
 0.51153004E+02 -0.21336E+05
 0.51203003E+02 -0.22847E+05
 0.51253002E+02 -0.24097E+05
 0.51303001E+02 -0.24017E+05
 0.51353004E+02 -0.23922E+05
 0.51403004E+02 -0.23279E+05
 0.51453003E+02 -0.23156E+05
 0.51503002E+02 -0.24008E+05
 0.51553001E+02 -0.23871E+05
 0.51603004E+02 -0.23032E+05
 0.51653004E+02 -0.21969E+05
 0.51703003E+02 -0.22517E+05
 0.51753002E+02 -0.24300E+05
 0.51803001E+02 -0.24539E+05
 0.51853004E+02 -0.23544E+05
 0.51903004E+02 -0.23249E+05
 0.51953003E+02 -0.21729E+05
 0.52003002E+02 -0.21604E+05
 0.52053001E+02 -0.23168E+05
 0.52103004E+02 -0.21872E+05
 0.52153004E+02 -0.21590E+05
 0.52203003E+02 -0.23682E+05
 0.52253002E+02 -0.24000E+05
 0.52303001E+02 -0.22976E+05
 0.52353004E+02 -0.22136E+05
 0.52403004E+02 -0.22669E+05
 0.52453003E+02 -0.23475E+05
 0.52503002E+02 -0.22712E+05
 0.52553001E+02 -0.23269E+05
 0.52603004E+02 -0.22921E+05
 0.52653004E+02 -0.21865E+05
 0.52703003E+02 -0.22858E+05
 0.52753002E+02 -0.23110E+05
 0.52803001E+02 -0.24224E+05
 0.52853004E+02 -0.25465E+05
 0.52903004E+02 -0.24901E+05
 0.52953003E+02 -0.23072E+05
 0.53003002E+02 -0.21929E+05
 0.53053001E+02 -0.22830E+05
 0.53103004E+02 -0.23995E+05
 0.53153004E+02 -0.25404E+05
 0.53203003E+02 -0.24166E+05
 0.53253002E+02 -0.22582E+05
 0.53303001E+02 -0.23275E+05
 0.53353004E+02 -0.22863E+05
 0.53403004E+02 -0.21732E+05
 0.53453003E+02 -0.21309E+05
 0.53503002E+02 -0.22571E+05
 0.53553001E+02 -0.23703E+05
 0.53603004E+02 -0.25569E+05
 0.53653004E+02 -0.25351E+05
 0.53703003E+02 -0.23889E+05
 0.53753002E+02 -0.23890E+05
 0.53803001E+02 -0.22808E+05
 0.53853004E+02 -0.21781E+05
 0.53903004E+02 -0.20909E+05
 0.53953003E+02 -0.21881E+05
 0.54003002E+02 -0.22685E+05
 0.54053001E+02 -0.22984E+05
 0.54103004E+02 -0.22897E+05
 0.54153004E+02 -0.23554E+05
 0.54203003E+02 -0.23896E+05
 0.54253002E+02 -0.22168E+05
 0.54303001E+02 -0.22158E+05
 0.54353004E+02 -0.21459E+05
 0.54403004E+02 -0.20991E+05
 0.54453003E+02 -0.20889E+05
 0.54503002E+02 -0.21653E+05
 0.54553001E+02 -0.23177E+05
 0.54603004E+02 -0.24513E+05
 0.54653004E+02 -0.25227E+05
 0.54703003E+02 -0.24720E+05
 0.54753002E+02 -0.24728E+05
 0.54803001E+02 -0.23868E+05
 0.54853004E+02 -0.22615E+05
 0.54903004E+02 -0.22587E+05
 0.54953003E+02 -0.23068E+05
 0.55003002E+02 -0.22915E+05
 0.55053001E+02 -0.23209E+05
 0.55103004E+02 -0.23274E+05
 0.55153004E+02 -0.23397E+05
 0.55203003E+02 -0.23084E+05
 0.55253002E+02 -0.22571E+05
 0.55303001E+02 -0.23674E+05
 0.55353004E+02 -0.25454E+05
 0.55403004E+02 -0.25607E+05
 0.55453003E+02 -0.25266E+05
 0.55503002E+02 -0.24327E+05
 0.55553001E+02 -0.22762E+05
 0.55603004E+02 -0.22221E+05
 0.55653004E+02 -0.21644E+05
 0.55703003E+02 -0.21967E+05
 0.55753002E+02 -0.22347E+05
 0.55803001E+02 -0.23549E+05
 0.55853001E+02 -0.25315E+05
 0.55903004E+02 -0.24174E+05
 0.55953003E+02 -0.21452E+05
 0.56003002E+02 -0.20436E+05
 0.56053001E+02 -0.20746E+05
 0.56103001E+02 -0.21812E+05
 0.56153004E+02 -0.23481E+05
 0.56203003E+02 -0.22721E+05
 0.56253002E+02 -0.22037E+05
 0.56303001E+02 -0.23125E+05
 0.56353001E+02 -0.23894E+05
 0.56403004E+02 -0.24153E+05
 0.56453003E+02 -0.24011E+05
 0.56503002E+02 -0.24203E+05
 0.56553001E+02 -0.24148E+05
 0.56603001E+02 -0.23223E+05
 0.56653004E+02 -0.21754E+05
 0.56703003E+02 -0.22359E+05
 0.56753002E+02 -0.24427E+05
 0.56803001E+02 -0.24616E+05
 0.56853001E+02 -0.24506E+05
 0.56903004E+02 -0.25168E+05
 0.56953003E+02 -0.25253E+05
 0.57003002E+02 -0.25104E+05
 0.57053001E+02 -0.22673E+05
 0.57103001E+02 -0.20425E+05
 0.57153004E+02 -0.21310E+05
 0.57203003E+02 -0.21796E+05
 0.57253002E+02 -0.22380E+05
 0.57303001E+02 -0.24098E+05
 0.57353001E+02 -0.23730E+05
 0.57403004E+02 -0.21119E+05
 0.57453003E+02 -0.20458E+05
 0.57503002E+02 -0.21624E+05
 0.57553001E+02 -0.23509E+05
 0.57603001E+02 -0.24669E+05
 0.57653004E+02 -0.24441E+05
 0.57703003E+02 -0.23924E+05
 0.57753002E+02 -0.23537E+05
 0.57803001E+02 -0.23591E+05
 0.57853001E+02 -0.22498E+05
 0.57903004E+02 -0.22113E+05
 0.57953003E+02 -0.22318E+05
 0.58003002E+02 -0.22756E+05
 0.58053001E+02 -0.22946E+05
 0.58103001E+02 -0.22550E+05
 0.58153004E+02 -0.22212E+05
 0.58203003E+02 -0.21773E+05
 0.58253002E+02 -0.22659E+05
 0.58303001E+02 -0.23651E+05
 0.58353001E+02 -0.23831E+05
 0.58403004E+02 -0.24363E+05
 0.58453003E+02 -0.24755E+05
 0.58503002E+02 -0.24768E+05
 0.58553001E+02 -0.24313E+05
 0.58603001E+02 -0.23622E+05
 0.58653004E+02 -0.23059E+05
 0.58703003E+02 -0.22440E+05
 0.58753002E+02 -0.21218E+05
 0.58803001E+02 -0.21076E+05
 0.58853001E+02 -0.22088E+05
 0.58903004E+02 -0.23304E+05
 0.58953003E+02 -0.24889E+05
 0.59003002E+02 -0.24451E+05
 0.59053001E+02 -0.23237E+05
 0.59103001E+02 -0.23041E+05
 0.59153004E+02 -0.23366E+05
 0.59203003E+02 -0.23170E+05
 0.59253002E+02 -0.23130E+05
 0.59303001E+02 -0.22972E+05
 0.59353001E+02 -0.23185E+05
 0.59403004E+02 -0.23944E+05
 0.59453003E+02 -0.23708E+05
 0.59503002E+02 -0.23565E+05
 0.59553001E+02 -0.23966E+05
 0.59603001E+02 -0.22824E+05
 0.59653004E+02 -0.21415E+05
 0.59703003E+02 -0.21219E+05
 0.59753002E+02 -0.21505E+05
 0.59803001E+02 -0.22429E+05
 0.59853001E+02 -0.23037E+05
 0.59903004E+02 -0.23462E+05
 0.59953003E+02 -0.24090E+05
 0.60003002E+02 -0.23385E+05
 0.60053001E+02 -0.22046E+05
 0.60103001E+02 -0.22089E+05
 0.60153004E+02 -0.22798E+05
 0.60203003E+02 -0.23386E+05
 0.60253002E+02 -0.24475E+05
 0.60303001E+02 -0.24894E+05
 0.60353001E+02 -0.24596E+05
 0.60403004E+02 -0.24285E+05
 0.60453003E+02 -0.24268E+05
 0.60503002E+02 -0.24932E+05
 0.60553001E+02 -0.25357E+05
 0.60603001E+02 -0.24001E+05
 0.60653004E+02 -0.21816E+05
 0.60703003E+02 -0.21097E+05
 0.60753002E+02 -0.20893E+05
 0.60803001E+02 -0.20945E+05
 0.60853001E+02 -0.21768E+05
 0.60903004E+02 -0.23003E+05
 0.60953003E+02 -0.23165E+05
 0.61003002E+02 -0.23255E+05
 0.61053001E+02 -0.23283E+05
 0.61103001E+02 -0.22981E+05
 0.61153004E+02 -0.23125E+05
 0.61203003E+02 -0.23520E+05
 0.61253002E+02 -0.23788E+05
 0.61303001E+02 -0.23364E+05
 0.61353001E+02 -0.23328E+05
 0.61403004E+02 -0.23688E+05
 0.61453003E+02 -0.24137E+05
 0.61503002E+02 -0.24047E+05
 0.61553001E+02 -0.22955E+05
 0.61603001E+02 -0.21182E+05
 0.61653004E+02 -0.20528E+05
 0.61703003E+02 -0.21465E+05
 0.61753002E+02 -0.23042E+05
 0.61803001E+02 -0.24333E+05
 0.61853001E+02 -0.24640E+05
 0.61903004E+02 -0.24353E+05
 0.61953003E+02 -0.23272E+05
 0.62003002E+02 -0.22480E+05
 0.62053001E+02 -0.22521E+05
 0.62103004E+02 -0.22460E+05
 0.62153000E+02 -0.21902E+05
 0.62203003E+02 -0.22695E+05
 0.62252998E+02 -0.23966E+05
 0.62303001E+02 -0.24431E+05
 0.62353004E+02 -0.24427E+05
 0.62403000E+02 -0.23433E+05
 0.62453003E+02 -0.22734E+05
 0.62502998E+02 -0.23193E+05
 0.62553001E+02 -0.23264E+05
 0.62603004E+02 -0.22570E+05
 0.62653000E+02 -0.22519E+05
 0.62703003E+02 -0.22884E+05
 0.62752998E+02 -0.22650E+05
 0.62803001E+02 -0.21556E+05
 0.62853004E+02 -0.21501E+05
 0.62903000E+02 -0.23064E+05
 0.62953003E+02 -0.24958E+05
 0.63002998E+02 -0.25948E+05
 0.63053001E+02 -0.25801E+05
 0.63103004E+02 -0.24312E+05
 0.63153000E+02 -0.22950E+05
 0.63203003E+02 -0.22220E+05
 0.63252998E+02 -0.21951E+05
 0.63303001E+02 -0.22251E+05
 0.63353004E+02 -0.22521E+05
 0.63403000E+02 -0.23120E+05
 0.63453003E+02 -0.23890E+05
 0.63502998E+02 -0.24146E+05
 0.63553001E+02 -0.23338E+05
 0.63603004E+02 -0.22755E+05
 0.63653000E+02 -0.22651E+05
 0.63703003E+02 -0.22643E+05
 0.63752998E+02 -0.23103E+05
 0.63803001E+02 -0.22969E+05
 0.63853004E+02 -0.22129E+05
 0.63903000E+02 -0.22324E+05
 0.63953003E+02 -0.22578E+05
 0.64002998E+02 -0.22418E+05
 0.64053001E+02 -0.22811E+05
 0.64103004E+02 -0.22993E+05
 0.64153000E+02 -0.22834E+05
 0.64203003E+02 -0.23152E+05
 0.64252998E+02 -0.23045E+05
 0.64303001E+02 -0.23117E+05
 0.64353004E+02 -0.22937E+05
 0.64403000E+02 -0.23064E+05
 0.64453003E+02 -0.23934E+05
 0.64502998E+02 -0.24190E+05
 0.64553001E+02 -0.24125E+05
 0.64603004E+02 -0.23814E+05
 0.64653000E+02 -0.23645E+05
 0.64703003E+02 -0.23151E+05
 0.64752998E+02 -0.22669E+05
 0.64803001E+02 -0.21373E+05
 0.64853004E+02 -0.20491E+05
 0.64903000E+02 -0.21932E+05
 0.64953003E+02 -0.24215E+05
 0.65002998E+02 -0.24978E+05
 0.65053001E+02 -0.24388E+05
 0.65103004E+02 -0.23965E+05
 0.65153000E+02 -0.24064E+05
 0.65203003E+02 -0.24158E+05
 0.65252998E+02 -0.23283E+05
 0.65303001E+02 -0.23117E+05
 0.65353004E+02 -0.23973E+05
 0.65403000E+02 -0.23878E+05
 0.65453003E+02 -0.23442E+05
 0.65502998E+02 -0.23226E+05
 0.65553001E+02 -0.22556E+05
 0.65603004E+02 -0.22160E+05
 0.65653000E+02 -0.22462E+05
 0.65703003E+02 -0.23078E+05
 0.65752998E+02 -0.23464E+05
 0.65803001E+02 -0.23489E+05
 0.65853004E+02 -0.23409E+05
 0.65903000E+02 -0.23056E+05
 0.65953003E+02 -0.22877E+05
 0.66002998E+02 -0.23351E+05
 0.66053001E+02 -0.23565E+05
 0.66103004E+02 -0.23275E+05
 0.66153000E+02 -0.23307E+05
 0.66203003E+02 -0.23255E+05
 0.66252998E+02 -0.22712E+05
 0.66303001E+02 -0.22152E+05
 0.66353004E+02 -0.21912E+05
 0.66403000E+02 -0.22792E+05
 0.66453003E+02 -0.23875E+05
 0.66502998E+02 -0.23546E+05
 0.66553001E+02 -0.22811E+05
 0.66603004E+02 -0.22383E+05
 0.66653000E+02 -0.22154E+05
 0.66703003E+02 -0.22633E+05
 0.66752998E+02 -0.23326E+05
 0.66803001E+02 -0.23953E+05
 0.66853004E+02 -0.24106E+05
 0.66903000E+02 -0.23059E+05
 0.66953003E+02 -0.22098E+05
 0.67002998E+02 -0.21903E+05
 0.67053001E+02 -0.22456E+05
 0.67103004E+02 -0.23353E+05
 0.67153000E+02 -0.23963E+05
 0.67203003E+02 -0.23763E+05
 0.67252998E+02 -0.23584E+05
 0.67303001E+02 -0.23419E+05
 0.67353004E+02 -0.23167E+05
 0.67403000E+02 -0.23109E+05
 0.67453003E+02 -0.22583E+05
 0.67502998E+02 -0.22408E+05
 0.67553001E+02 -0.22656E+05
 0.67603004E+02 -0.23321E+05
 0.67653000E+02 -0.24028E+05
 0.67703003E+02 -0.24248E+05
 0.67752998E+02 -0.23851E+05
 0.67803001E+02 -0.23581E+05
 0.67853004E+02 -0.23603E+05
 0.67903000E+02 -0.23281E+05
 0.67953003E+02 -0.23101E+05
 0.68002998E+02 -0.23254E+05
 0.68053001E+02 -0.23264E+05
 0.68103004E+02 -0.23213E+05
 0.68153000E+02 -0.23276E+05
 0.68203003E+02 -0.22981E+05
 0.68252998E+02 -0.22823E+05
 0.68303001E+02 -0.23044E+05
 0.68353004E+02 -0.22842E+05
 0.68403000E+02 -0.22203E+05
 0.68453003E+02 -0.22136E+05
 0.68502998E+02 -0.22184E+05
 0.68553001E+02 -0.22537E+05
 0.68603004E+02 -0.23290E+05
 0.68653000E+02 -0.23571E+05
 0.68703003E+02 -0.23783E+05
 0.68752998E+02 -0.23816E+05
 0.68803001E+02 -0.23531E+05
 0.68853004E+02 -0.23041E+05
 0.68903000E+02 -0.22914E+05
 0.68953003E+02 -0.22982E+05
 0.69002998E+02 -0.22857E+05
 0.69053001E+02 -0.22780E+05
 0.69103004E+02 -0.22947E+05
 0.69153000E+02 -0.22875E+05
 0.69203003E+02 -0.22929E+05
 0.69252998E+02 -0.23495E+05
 0.69303001E+02 -0.23486E+05
 0.69353004E+02 -0.23390E+05
 0.69403000E+02 -0.23222E+05
 0.69453003E+02 -0.22907E+05
 0.69502998E+02 -0.23033E+05
 0.69553001E+02 -0.23451E+05
 0.69603004E+02 -0.23458E+05
 0.69653000E+02 -0.22993E+05
 0.69703003E+02 -0.22959E+05
 0.69752998E+02 -0.22909E+05
 0.69803001E+02 -0.22841E+05
 0.69853004E+02 -0.22900E+05
 0.69903000E+02 -0.22979E+05
 0.69953003E+02 -0.22966E+05
 0.70002998E+02 -0.23101E+05
 0.70053001E+02 -0.23276E+05
 0.70103004E+02 -0.23361E+05
 0.70153000E+02 -0.23292E+05
 0.70203003E+02 -0.23302E+05
 0.70252998E+02 -0.23892E+05
 0.70303001E+02 -0.24059E+05
 0.70353004E+02 -0.23521E+05
 0.70403000E+02 -0.23197E+05
 0.70453003E+02 -0.23414E+05
 0.70502998E+02 -0.23109E+05
 0.70553001E+02 -0.22489E+05
 0.70603004E+02 -0.22208E+05
 0.70653000E+02 -0.22295E+05
 0.70703003E+02 -0.22461E+05
 0.70752998E+02 -0.22458E+05
 0.70803001E+02 -0.22457E+05
 0.70853004E+02 -0.23063E+05
 0.70903000E+02 -0.23735E+05
 0.70953003E+02 -0.23932E+05
 0.71002998E+02 -0.24095E+05
 0.71053001E+02 -0.24143E+05
 0.71103004E+02 -0.24073E+05
 0.71153000E+02 -0.23742E+05
 0.71203003E+02 -0.23379E+05
 0.71252998E+02 -0.23372E+05
 0.71303001E+02 -0.23006E+05
 0.71353004E+02 -0.22414E+05
 0.71403000E+02 -0.22510E+05
 0.71453003E+02 -0.22501E+05
 0.71502998E+02 -0.22504E+05
 0.71553001E+02 -0.22578E+05
 0.71603004E+02 -0.22181E+05
 0.71653000E+02 -0.22326E+05
 0.71703003E+02 -0.22718E+05
 0.71752998E+02 -0.23057E+05
 0.71803001E+02 -0.23536E+05
 0.71853004E+02 -0.24027E+05
 0.71903000E+02 -0.23975E+05
 0.71953003E+02 -0.23206E+05
 0.72002998E+02 -0.22972E+05
 0.72053001E+02 -0.23066E+05
 0.72103004E+02 -0.23702E+05
 0.72153000E+02 -0.23966E+05
 0.72203003E+02 -0.23974E+05
 0.72252998E+02 -0.24035E+05
 0.72303001E+02 -0.23374E+05
 0.72353004E+02 -0.22750E+05
 0.72403000E+02 -0.22621E+05
 0.72453003E+02 -0.23128E+05
 0.72502998E+02 -0.23047E+05
 0.72553001E+02 -0.22795E+05
 0.72603004E+02 -0.22999E+05
 0.72653000E+02 -0.22972E+05
 0.72703003E+02 -0.22884E+05
 0.72752998E+02 -0.23101E+05
 0.72803001E+02 -0.23506E+05
 0.72853004E+02 -0.23821E+05
 0.72903000E+02 -0.23862E+05
 0.72953003E+02 -0.23427E+05
 0.73002998E+02 -0.23028E+05
 0.73053001E+02 -0.22850E+05
 0.73103004E+02 -0.22770E+05
 0.73153000E+02 -0.22776E+05
 0.73203003E+02 -0.22556E+05
 0.73252998E+02 -0.22175E+05
 0.73303001E+02 -0.22089E+05
 0.73353004E+02 -0.22542E+05
 0.73403000E+02 -0.22998E+05
 0.73453003E+02 -0.23415E+05
 0.73502998E+02 -0.23639E+05
 0.73553001E+02 -0.23754E+05
 0.73603004E+02 -0.23422E+05
 0.73653000E+02 -0.22828E+05
 0.73703003E+02 -0.22656E+05
 0.73752998E+02 -0.22776E+05
 0.73803001E+02 -0.22976E+05
 0.73853004E+02 -0.23273E+05
 0.73903000E+02 -0.23475E+05
 0.73953003E+02 -0.23326E+05
 0.74002998E+02 -0.23182E+05
 0.74053001E+02 -0.22634E+05
 0.74103004E+02 -0.22274E+05
 0.74153000E+02 -0.22277E+05
 0.74203003E+02 -0.22592E+05
 0.74252998E+02 -0.23349E+05
 0.74303001E+02 -0.24053E+05
 0.74353004E+02 -0.24168E+05
 0.74403000E+02 -0.23239E+05
 0.74453003E+02 -0.22674E+05
 0.74502998E+02 -0.22770E+05
 0.74553001E+02 -0.23331E+05
 0.74603004E+02 -0.23994E+05
 0.74653000E+02 -0.23781E+05
 0.74703003E+02 -0.23639E+05
 0.74752998E+02 -0.23464E+05
 0.74803001E+02 -0.23000E+05
 0.74853004E+02 -0.22918E+05
 0.74903000E+02 -0.23288E+05
 0.74953003E+02 -0.23299E+05
 0.75002998E+02 -0.23308E+05
 0.75053001E+02 -0.23422E+05
 0.75103004E+02 -0.23558E+05
 0.75153000E+02 -0.23681E+05
 0.75203003E+02 -0.23634E+05
 0.75252998E+02 -0.23461E+05
 0.75303001E+02 -0.23041E+05
 0.75353004E+02 -0.22770E+05
 0.75403000E+02 -0.22703E+05
 0.75453003E+02 -0.22890E+05
 0.75502998E+02 -0.22713E+05
 0.75553001E+02 -0.22782E+05
 0.75603004E+02 -0.22729E+05
 0.75653000E+02 -0.22815E+05
 0.75703003E+02 -0.23536E+05
 0.75752998E+02 -0.24003E+05
 0.75803001E+02 -0.23828E+05
 0.75853004E+02 -0.23287E+05
 0.75903000E+02 -0.22529E+05
 0.75953003E+02 -0.22177E+05
 0.76002998E+02 -0.22710E+05
 0.76053001E+02 -0.23213E+05
 0.76103004E+02 -0.23932E+05
 0.76153000E+02 -0.24172E+05
 0.76203003E+02 -0.23980E+05
 0.76252998E+02 -0.23426E+05
 0.76303001E+02 -0.22857E+05
 0.76353004E+02 -0.22564E+05
 0.76403000E+02 -0.22094E+05
 0.76453003E+02 -0.22327E+05
 0.76502998E+02 -0.22960E+05
 0.76553001E+02 -0.23624E+05
 0.76603004E+02 -0.23601E+05
 0.76653000E+02 -0.22628E+05
 0.76703003E+02 -0.21832E+05
 0.76752998E+02 -0.21834E+05
 0.76803001E+02 -0.22488E+05
 0.76853004E+02 -0.23196E+05
 0.76903000E+02 -0.23703E+05
 0.76953003E+02 -0.23550E+05
 0.77002998E+02 -0.23151E+05
 0.77053001E+02 -0.22961E+05
 0.77103004E+02 -0.22832E+05
 0.77153000E+02 -0.22815E+05
 0.77203003E+02 -0.22756E+05
 0.77252998E+02 -0.23269E+05
 0.77303001E+02 -0.23486E+05
 0.77353004E+02 -0.23007E+05
 0.77403000E+02 -0.23100E+05
 0.77453003E+02 -0.23084E+05
 0.77502998E+02 -0.22776E+05
 0.77553001E+02 -0.22966E+05
 0.77603004E+02 -0.23204E+05
 0.77653000E+02 -0.23460E+05
 0.77703003E+02 -0.23911E+05
 0.77752998E+02 -0.23988E+05
 0.77803001E+02 -0.23580E+05
 0.77853004E+02 -0.23576E+05
 0.77903000E+02 -0.23696E+05
 0.77953003E+02 -0.23379E+05
 0.78002998E+02 -0.23281E+05
 0.78053001E+02 -0.23575E+05
 0.78103004E+02 -0.23565E+05
 0.78153000E+02 -0.23128E+05
 0.78203003E+02 -0.22816E+05
 0.78252998E+02 -0.22677E+05
 0.78303001E+02 -0.22933E+05
 0.78353004E+02 -0.23064E+05
 0.78403000E+02 -0.23025E+05
 0.78453003E+02 -0.23019E+05
 0.78502998E+02 -0.23032E+05
 0.78553001E+02 -0.22880E+05
 0.78603004E+02 -0.22848E+05
 0.78653000E+02 -0.22832E+05
 0.78703003E+02 -0.22397E+05
 0.78752998E+02 -0.22663E+05
 0.78803001E+02 -0.23172E+05
 0.78853004E+02 -0.23348E+05
 0.78903000E+02 -0.23271E+05
 0.78953003E+02 -0.23417E+05
 0.79002998E+02 -0.23592E+05
 0.79053001E+02 -0.23420E+05
 0.79103004E+02 -0.23107E+05
 0.79153000E+02 -0.22722E+05
 0.79203003E+02 -0.22843E+05
 0.79252998E+02 -0.23028E+05
 0.79303001E+02 -0.22863E+05
 0.79353004E+02 -0.22363E+05
 0.79403000E+02 -0.22111E+05
 0.79453003E+02 -0.22643E+05
 0.79502998E+02 -0.23490E+05
 0.79553001E+02 -0.24191E+05
 0.79603004E+02 -0.24434E+05
 0.79653000E+02 -0.24149E+05
 0.79703003E+02 -0.23620E+05
 0.79752998E+02 -0.23184E+05
 0.79803001E+02 -0.23066E+05
 0.79853004E+02 -0.23373E+05
 0.79903000E+02 -0.23816E+05
 0.79953003E+02 -0.24110E+05
 0.80002998E+02 -0.24194E+05
 0.80053001E+02 -0.23896E+05
 0.80103004E+02 -0.23142E+05
 0.80153000E+02 -0.22455E+05
 0.80203003E+02 -0.22189E+05
 0.80252998E+02 -0.22209E+05
 0.80303001E+02 -0.22474E+05
 0.80353004E+02 -0.22565E+05
 0.80403000E+02 -0.22634E+05
 0.80453003E+02 -0.22581E+05
 0.80502998E+02 -0.22642E+05
 0.80553001E+02 -0.23154E+05
 0.80603004E+02 -0.23208E+05
 0.80653000E+02 -0.22979E+05
 0.80703003E+02 -0.22611E+05
 0.80752998E+02 -0.22408E+05
 0.80803001E+02 -0.22855E+05
 0.80853004E+02 -0.23200E+05
 0.80903000E+02 -0.23373E+05
 0.80953003E+02 -0.23547E+05
 0.81002998E+02 -0.23445E+05
 0.81053001E+02 -0.23313E+05
 0.81103004E+02 -0.23377E+05
 0.81153000E+02 -0.23155E+05
 0.81203003E+02 -0.23072E+05
 0.81252998E+02 -0.22844E+05
 0.81303001E+02 -0.22740E+05
 0.81353004E+02 -0.22990E+05
 0.81403000E+02 -0.23010E+05
 0.81453003E+02 -0.23129E+05
 0.81502998E+02 -0.23171E+05
 0.81553001E+02 -0.23459E+05
 0.81603004E+02 -0.23736E+05
 0.81653000E+02 -0.23619E+05
 0.81703003E+02 -0.23534E+05
 0.81752998E+02 -0.23635E+05
 0.81803001E+02 -0.23649E+05
 0.81853004E+02 -0.23735E+05
 0.81903000E+02 -0.23598E+05
 0.81953003E+02 -0.23281E+05
 0.82002998E+02 -0.23147E+05
 0.82053001E+02 -0.23180E+05
 0.82103004E+02 -0.23225E+05
 0.82153000E+02 -0.22683E+05
 0.82203003E+02 -0.21853E+05
 0.82252998E+02 -0.21862E+05
 0.82303001E+02 -0.22461E+05
 0.82353004E+02 -0.23008E+05
 0.82403000E+02 -0.23443E+05
 0.82453003E+02 -0.23589E+05
 0.82502998E+02 -0.23582E+05
 0.82553001E+02 -0.23386E+05
 0.82603004E+02 -0.22980E+05
 0.82653000E+02 -0.22818E+05
 0.82703003E+02 -0.22873E+05
 0.82752998E+02 -0.22941E+05
 0.82803001E+02 -0.23343E+05
 0.82853004E+02 -0.23802E+05
 0.82903000E+02 -0.23805E+05
 0.82953003E+02 -0.23382E+05
 0.83002998E+02 -0.23269E+05
 0.83053001E+02 -0.23366E+05
 0.83103004E+02 -0.23257E+05
 0.83153000E+02 -0.23089E+05
 0.83203003E+02 -0.22852E+05
 0.83252998E+02 -0.22611E+05
 0.83303001E+02 -0.22834E+05
 0.83353004E+02 -0.23220E+05
 0.83403000E+02 -0.23423E+05
 0.83453003E+02 -0.23544E+05
 0.83502998E+02 -0.23453E+05
 0.83553001E+02 -0.23390E+05
 0.83603004E+02 -0.23309E+05
 0.83653000E+02 -0.23080E+05
 0.83703003E+02 -0.22658E+05
 0.83752998E+02 -0.22636E+05
 0.83803001E+02 -0.23119E+05
 0.83853004E+02 -0.23579E+05
 0.83903000E+02 -0.23810E+05
 0.83953003E+02 -0.23856E+05
 0.84002998E+02 -0.23569E+05
 0.84053001E+02 -0.23047E+05
 0.84103004E+02 -0.22427E+05
 0.84153000E+02 -0.21954E+05
 0.84203003E+02 -0.22210E+05
 0.84252998E+02 -0.22609E+05
 0.84303001E+02 -0.22884E+05
 0.84353004E+02 -0.23116E+05
 0.84403000E+02 -0.23212E+05
 0.84453003E+02 -0.23363E+05
 0.84502998E+02 -0.23490E+05
 0.84553001E+02 -0.23586E+05
 0.84603004E+02 -0.23510E+05
 0.84653000E+02 -0.22982E+05
 0.84703003E+02 -0.22586E+05
 0.84752998E+02 -0.22792E+05
 0.84803001E+02 -0.23205E+05
 0.84853004E+02 -0.23430E+05
 0.84903000E+02 -0.23456E+05
 0.84953003E+02 -0.23197E+05
 0.85002998E+02 -0.23097E+05
 0.85053001E+02 -0.22963E+05
 0.85103004E+02 -0.22652E+05
 0.85153000E+02 -0.22571E+05
 0.85203003E+02 -0.22458E+05
 0.85252998E+02 -0.22544E+05
 0.85303001E+02 -0.22739E+05
 0.85353004E+02 -0.23063E+05
 0.85403000E+02 -0.23514E+05
 0.85453003E+02 -0.23815E+05
 0.85502998E+02 -0.23698E+05
 0.85553001E+02 -0.23323E+05
 0.85603004E+02 -0.22886E+05
 0.85653000E+02 -0.22649E+05
 0.85703003E+02 -0.22946E+05
 0.85752998E+02 -0.23246E+05
 0.85803001E+02 -0.23405E+05
 0.85853004E+02 -0.23535E+05
 0.85903000E+02 -0.23444E+05
 0.85953003E+02 -0.23542E+05
 0.86002998E+02 -0.23729E+05
 0.86053001E+02 -0.23590E+05
 0.86103004E+02 -0.23323E+05
 0.86153000E+02 -0.23112E+05
 0.86203003E+02 -0.22987E+05
 0.86252998E+02 -0.22939E+05
 0.86303001E+02 -0.22905E+05
 0.86353004E+02 -0.22556E+05
 0.86403000E+02 -0.22455E+05
 0.86453003E+02 -0.22751E+05
 0.86502998E+02 -0.23097E+05
 0.86553001E+02 -0.23571E+05
 0.86603004E+02 -0.23860E+05
 0.86653000E+02 -0.23620E+05
 0.86703003E+02 -0.23120E+05
 0.86752998E+02 -0.22687E+05
 0.86803001E+02 -0.22459E+05
 0.86853004E+02 -0.22800E+05
 0.86903000E+02 -0.23166E+05
 0.86953003E+02 -0.23377E+05
 0.87002998E+02 -0.23742E+05
 0.87053001E+02 -0.23817E+05
 0.87103004E+02 -0.23609E+05
 0.87153000E+02 -0.23326E+05
 0.87203003E+02 -0.23022E+05
 0.87252998E+02 -0.23011E+05
 0.87303001E+02 -0.23199E+05
 0.87353004E+02 -0.23231E+05
 0.87403000E+02 -0.23146E+05
 0.87453003E+02 -0.23002E+05
 0.87502998E+02 -0.22908E+05
 0.87553001E+02 -0.23126E+05
 0.87602997E+02 -0.23293E+05
 0.87653000E+02 -0.23328E+05
 0.87703003E+02 -0.23222E+05
 0.87752998E+02 -0.22695E+05
 0.87803001E+02 -0.22553E+05
 0.87852997E+02 -0.22792E+05
 0.87903000E+02 -0.23042E+05
 0.87953003E+02 -0.23292E+05
 0.88002998E+02 -0.23308E+05
 0.88053001E+02 -0.23093E+05
 0.88102997E+02 -0.22825E+05
 0.88153000E+02 -0.22395E+05
 0.88203003E+02 -0.22207E+05
 0.88252998E+02 -0.22559E+05
 0.88303001E+02 -0.22718E+05
 0.88352997E+02 -0.23065E+05
 0.88403000E+02 -0.23318E+05
 0.88453003E+02 -0.22910E+05
 0.88502998E+02 -0.22626E+05
 0.88553001E+02 -0.22902E+05
 0.88602997E+02 -0.23330E+05
 0.88653000E+02 -0.23567E+05
 0.88703003E+02 -0.23662E+05
 0.88752998E+02 -0.23597E+05
 0.88803001E+02 -0.23535E+05
 0.88852997E+02 -0.23378E+05
 0.88903000E+02 -0.23105E+05
 0.88953003E+02 -0.23048E+05
 0.89002998E+02 -0.23289E+05
 0.89053001E+02 -0.23268E+05
 0.89102997E+02 -0.23032E+05
 0.89153000E+02 -0.23196E+05
 0.89203003E+02 -0.23368E+05
 0.89252998E+02 -0.23318E+05
 0.89303001E+02 -0.23315E+05
 0.89352997E+02 -0.23450E+05
 0.89403000E+02 -0.23464E+05
 0.89453003E+02 -0.23554E+05
 0.89502998E+02 -0.23642E+05
 0.89553001E+02 -0.23347E+05
 0.89602997E+02 -0.23035E+05
 0.89653000E+02 -0.22954E+05
 0.89703003E+02 -0.23034E+05
 0.89752998E+02 -0.23136E+05
 0.89803001E+02 -0.22999E+05
 0.89852997E+02 -0.22606E+05
 0.89903000E+02 -0.22522E+05
 0.89953003E+02 -0.22747E+05
 0.90002998E+02 -0.22902E+05
 0.90053001E+02 -0.23056E+05
 0.90102997E+02 -0.23229E+05
 0.90153000E+02 -0.23497E+05
 0.90203003E+02 -0.23636E+05
 0.90252998E+02 -0.23451E+05
 0.90303001E+02 -0.23201E+05
 0.90352997E+02 -0.22983E+05
 0.90403000E+02 -0.22853E+05
 0.90453003E+02 -0.22747E+05
 0.90502998E+02 -0.22804E+05
 0.90553001E+02 -0.23240E+05
 0.90602997E+02 -0.23840E+05
 0.90653000E+02 -0.23963E+05
 0.90703003E+02 -0.23526E+05
 0.90752998E+02 -0.23051E+05
 0.90803001E+02 -0.22898E+05
 0.90852997E+02 -0.23095E+05
 0.90903000E+02 -0.23139E+05
 0.90953003E+02 -0.23044E+05
 0.91002998E+02 -0.23076E+05
 0.91053001E+02 -0.23190E+05
 0.91102997E+02 -0.23400E+05
 0.91153000E+02 -0.23537E+05
 0.91203003E+02 -0.23393E+05
 0.91252998E+02 -0.23120E+05
 0.91303001E+02 -0.23004E+05
 0.91352997E+02 -0.23078E+05
 0.91403000E+02 -0.23256E+05
 0.91453003E+02 -0.23364E+05
 0.91502998E+02 -0.23119E+05
 0.91553001E+02 -0.22862E+05
 0.91602997E+02 -0.22935E+05
 0.91653000E+02 -0.23161E+05
 0.91703003E+02 -0.23349E+05
 0.91752998E+02 -0.23486E+05
 0.91803001E+02 -0.23600E+05
 0.91852997E+02 -0.23489E+05
 0.91903000E+02 -0.23174E+05
 0.91953003E+02 -0.22832E+05
 0.92002998E+02 -0.22741E+05
 0.92053001E+02 -0.22898E+05
 0.92102997E+02 -0.23014E+05
 0.92153000E+02 -0.22914E+05
 0.92203003E+02 -0.22990E+05
 0.92252998E+02 -0.23159E+05
 0.92303001E+02 -0.23013E+05
 0.92352997E+02 -0.22889E+05
 0.92403000E+02 -0.22994E+05
 0.92453003E+02 -0.23078E+05
 0.92502998E+02 -0.22938E+05
 0.92553001E+02 -0.22891E+05
 0.92602997E+02 -0.23055E+05
 0.92653000E+02 -0.23164E+05
 0.92703003E+02 -0.23149E+05
 0.92752998E+02 -0.22920E+05
 0.92803001E+02 -0.22737E+05
 0.92852997E+02 -0.22964E+05
 0.92903000E+02 -0.23220E+05
 0.92953003E+02 -0.23230E+05
 0.93002998E+02 -0.23258E+05
 0.93053001E+02 -0.23206E+05
 0.93102997E+02 -0.23102E+05
 0.93153000E+02 -0.22939E+05
 0.93203003E+02 -0.22821E+05
 0.93252998E+02 -0.23018E+05
 0.93303001E+02 -0.23223E+05
 0.93352997E+02 -0.23353E+05
 0.93403000E+02 -0.23390E+05
 0.93453003E+02 -0.23334E+05
 0.93502998E+02 -0.23203E+05
 0.93553001E+02 -0.23084E+05
 0.93602997E+02 -0.23090E+05
 0.93653000E+02 -0.23214E+05
 0.93703003E+02 -0.23191E+05
 0.93752998E+02 -0.23119E+05
 0.93803001E+02 -0.22989E+05
 0.93852997E+02 -0.22882E+05
 0.93903000E+02 -0.22872E+05
 0.93953003E+02 -0.22876E+05
 0.94002998E+02 -0.23079E+05
 0.94053001E+02 -0.23457E+05
 0.94102997E+02 -0.23651E+05
 0.94153000E+02 -0.23551E+05
 0.94203003E+02 -0.23495E+05
 0.94252998E+02 -0.23449E+05
 0.94303001E+02 -0.23509E+05
 0.94352997E+02 -0.23286E+05
 0.94403000E+02 -0.23063E+05
 0.94453003E+02 -0.23007E+05
 0.94502998E+02 -0.22671E+05
 0.94553001E+02 -0.22577E+05
 0.94602997E+02 -0.22877E+05
 0.94653000E+02 -0.23052E+05
 0.94703003E+02 -0.22935E+05
 0.94752998E+02 -0.22931E+05
 0.94803001E+02 -0.23070E+05
 0.94852997E+02 -0.23213E+05
 0.94903000E+02 -0.23251E+05
 0.94953003E+02 -0.23141E+05
 0.95002998E+02 -0.23076E+05
 0.95053001E+02 -0.23268E+05
 0.95102997E+02 -0.23335E+05
 0.95153000E+02 -0.23210E+05
 0.95203003E+02 -0.23150E+05
 0.95252998E+02 -0.23148E+05
 0.95303001E+02 -0.23347E+05
 0.95352997E+02 -0.23271E+05
 0.95403000E+02 -0.22820E+05
 0.95453003E+02 -0.22561E+05
 0.95502998E+02 -0.22811E+05
 0.95553001E+02 -0.23262E+05
 0.95602997E+02 -0.23359E+05
 0.95653000E+02 -0.23278E+05
 0.95703003E+02 -0.23374E+05
 0.95752998E+02 -0.23351E+05
 0.95803001E+02 -0.23166E+05
 0.95852997E+02 -0.22935E+05
 0.95903000E+02 -0.22773E+05
 0.95953003E+02 -0.22791E+05
 0.96002998E+02 -0.22911E+05
 0.96053001E+02 -0.23156E+05
 0.96102997E+02 -0.23396E+05
 0.96153000E+02 -0.23392E+05
 0.96203003E+02 -0.23263E+05
 0.96252998E+02 -0.23178E+05
 0.96303001E+02 -0.22966E+05
 0.96352997E+02 -0.22628E+05
 0.96403000E+02 -0.22474E+05
 0.96453003E+02 -0.22524E+05
 0.96502998E+02 -0.22706E+05
 0.96553001E+02 -0.23011E+05
 0.96602997E+02 -0.23251E+05
 0.96653000E+02 -0.23379E+05
 0.96703003E+02 -0.23337E+05
 0.96752998E+02 -0.22977E+05
 0.96803001E+02 -0.22707E+05
 0.96852997E+02 -0.22799E+05
 0.96903000E+02 -0.23035E+05
 0.96953003E+02 -0.23417E+05
 0.97002998E+02 -0.23637E+05
 0.97053001E+02 -0.23498E+05
 0.97102997E+02 -0.23227E+05
 0.97153000E+02 -0.23250E+05
 0.97203003E+02 -0.23339E+05
 0.97252998E+02 -0.23391E+05
 0.97303001E+02 -0.23469E+05
 0.97352997E+02 -0.23420E+05
 0.97403000E+02 -0.23338E+05
 0.97453003E+02 -0.23189E+05
 0.97502998E+02 -0.23151E+05
 0.97553001E+02 -0.23154E+05
 0.97602997E+02 -0.23072E+05
 0.97653000E+02 -0.22906E+05
 0.97703003E+02 -0.22837E+05
 0.97752998E+02 -0.22908E+05
 0.97803001E+02 -0.23097E+05
 0.97852997E+02 -0.23373E+05
 0.97903000E+02 -0.23518E+05
 0.97953003E+02 -0.23483E+05
 0.98002998E+02 -0.23355E+05
