-0.20000000E+01  0.14171E+05
-0.19500000E+01  0.14096E+05
-0.19000000E+01  0.14156E+05
-0.18500000E+01  0.14154E+05
-0.18000000E+01  0.14158E+05
-0.17500000E+01  0.14161E+05
-0.17000000E+01  0.14157E+05
-0.16500001E+01  0.14160E+05
-0.16000000E+01  0.14161E+05
-0.15500000E+01  0.14163E+05
-0.15000000E+01  0.14157E+05
-0.14500000E+01  0.14157E+05
-0.14000001E+01  0.14159E+05
-0.13500000E+01  0.14155E+05
-0.13000001E+01  0.14163E+05
-0.12500000E+01  0.14164E+05
-0.12000000E+01  0.14172E+05
-0.11500001E+01  0.14180E+05
-0.11000000E+01  0.14182E+05
-0.10500001E+01  0.14183E+05
-0.10000000E+01  0.14185E+05
-0.95000005E+00  0.14182E+05
-0.90000010E+00  0.14182E+05
-0.85000002E+00  0.14182E+05
-0.80000007E+00  0.14182E+05
-0.75000012E+00  0.14191E+05
-0.70000005E+00  0.14187E+05
-0.65000010E+00  0.14182E+05
-0.60000014E+00  0.14168E+05
-0.55000007E+00  0.14160E+05
-0.50000012E+00  0.14158E+05
-0.45000005E+00  0.14146E+05
-0.40000010E+00  0.14141E+05
-0.35000014E+00  0.14140E+05
-0.30000007E+00  0.14139E+05
-0.25000012E+00  0.14138E+05
-0.20000005E+00  0.14138E+05
-0.15000010E+00  0.14140E+05
-0.10000014E+00  0.14143E+05
-0.50000072E-01  0.14144E+05
-0.11920929E-06  0.14151E+05
 0.49999952E-01  0.14162E+05
 0.99999905E-01  0.14169E+05
 0.14999986E+00  0.14176E+05
 0.19999981E+00  0.14179E+05
 0.24999976E+00  0.14184E+05
 0.29999995E+00  0.14187E+05
 0.34999990E+00  0.14187E+05
 0.39999986E+00  0.14188E+05
 0.44999981E+00  0.14187E+05
 0.49999976E+00  0.14186E+05
 0.54999995E+00  0.14183E+05
 0.59999990E+00  0.14187E+05
 0.64999986E+00  0.14183E+05
 0.69999981E+00  0.14184E+05
 0.74999976E+00  0.14186E+05
 0.79999971E+00  0.14179E+05
 0.84999990E+00  0.14176E+05
 0.89999986E+00  0.14175E+05
 0.94999981E+00  0.14177E+05
 0.99999976E+00  0.14171E+05
 0.10499997E+01  0.14175E+05
 0.10999999E+01  0.14170E+05
 0.11499999E+01  0.14164E+05
 0.11999998E+01  0.14159E+05
 0.12499998E+01  0.14146E+05
 0.12999997E+01  0.14147E+05
 0.13499999E+01  0.14146E+05
 0.13999999E+01  0.14146E+05
 0.14499998E+01  0.14141E+05
 0.14999998E+01  0.14141E+05
 0.15499997E+01  0.14135E+05
 0.15999999E+01  0.14131E+05
 0.16499999E+01  0.14131E+05
 0.16999998E+01  0.14132E+05
 0.17499998E+01  0.14137E+05
 0.17999997E+01  0.14136E+05
 0.18499997E+01  0.14143E+05
 0.18999999E+01  0.14139E+05
 0.19499998E+01  0.14136E+05
 0.19999998E+01  0.14138E+05
 0.20499997E+01  0.14140E+05
 0.20999999E+01  0.14145E+05
 0.21499996E+01  0.14145E+05
 0.21999998E+01  0.14145E+05
 0.22499995E+01  0.14150E+05
 0.22999997E+01  0.14157E+05
 0.23499999E+01  0.14169E+05
 0.23999996E+01  0.14171E+05
 0.24499998E+01  0.14170E+05
 0.24999995E+01  0.14175E+05
 0.25499997E+01  0.14178E+05
 0.25999999E+01  0.14178E+05
 0.26499996E+01  0.14172E+05
 0.26999998E+01  0.14171E+05
 0.27499995E+01  0.14163E+05
 0.27999997E+01  0.14164E+05
 0.28499999E+01  0.14162E+05
 0.28999996E+01  0.14160E+05
 0.29499998E+01  0.14162E+05
 0.29999995E+01  0.14161E+05
 0.30499997E+01  0.14166E+05
 0.30999999E+01  0.14171E+05
 0.31499996E+01  0.14180E+05
 0.31999998E+01  0.14187E+05
 0.32499995E+01  0.14188E+05
 0.32999997E+01  0.14190E+05
 0.33499999E+01  0.14190E+05
 0.33999996E+01  0.14185E+05
 0.34499998E+01  0.14185E+05
 0.34999995E+01  0.14177E+05
 0.35499997E+01  0.14173E+05
 0.35999994E+01  0.14180E+05
 0.36499996E+01  0.14174E+05
 0.36999998E+01  0.14171E+05
 0.37499995E+01  0.14162E+05
 0.37999997E+01  0.14158E+05
 0.38499994E+01  0.14164E+05
 0.38999996E+01  0.14156E+05
 0.39499998E+01  0.14153E+05
 0.39999995E+01  0.14150E+05
 0.40499997E+01  0.14142E+05
 0.40999994E+01  0.14146E+05
 0.41499996E+01  0.14147E+05
 0.41999998E+01  0.14147E+05
 0.42499995E+01  0.14152E+05
 0.42999997E+01  0.14155E+05
 0.43499994E+01  0.14157E+05
 0.43999996E+01  0.14156E+05
 0.44499998E+01  0.14156E+05
 0.44999995E+01  0.14156E+05
 0.45499997E+01  0.14147E+05
 0.45999994E+01  0.14142E+05
 0.46499996E+01  0.14146E+05
 0.46999998E+01  0.14144E+05
 0.47499995E+01  0.14144E+05
 0.47999997E+01  0.14149E+05
 0.48499994E+01  0.14150E+05
 0.48999996E+01  0.14148E+05
 0.49499998E+01  0.14149E+05
 0.49999995E+01  0.14153E+05
 0.50499997E+01  0.14154E+05
 0.50999994E+01  0.14156E+05
 0.51499996E+01  0.14162E+05
 0.51999998E+01  0.14171E+05
 0.52499995E+01  0.14178E+05
 0.52999997E+01  0.14189E+05
 0.53499994E+01  0.14197E+05
 0.53999996E+01  0.14198E+05
 0.54499993E+01  0.14207E+05
 0.54999995E+01  0.14207E+05
 0.55499997E+01  0.14207E+05
 0.55999994E+01  0.14201E+05
 0.56499996E+01  0.14193E+05
 0.56999993E+01  0.14193E+05
 0.57499995E+01  0.14186E+05
 0.57999997E+01  0.14174E+05
 0.58499994E+01  0.14165E+05
 0.58999996E+01  0.14159E+05
 0.59499993E+01  0.14151E+05
 0.59999995E+01  0.14145E+05
 0.60499992E+01  0.14144E+05
 0.60999994E+01  0.14149E+05
 0.61499996E+01  0.14152E+05
 0.61999998E+01  0.14152E+05
 0.62499990E+01  0.14148E+05
 0.62999992E+01  0.14144E+05
 0.63499994E+01  0.14145E+05
 0.63999996E+01  0.14143E+05
 0.64499998E+01  0.14145E+05
 0.64999990E+01  0.14148E+05
 0.65499992E+01  0.14150E+05
 0.65999994E+01  0.14153E+05
 0.66499996E+01  0.14151E+05
 0.66999998E+01  0.14152E+05
 0.67499990E+01  0.14148E+05
 0.67999992E+01  0.14154E+05
 0.68499994E+01  0.14157E+05
 0.68999996E+01  0.14153E+05
 0.69499998E+01  0.14156E+05
 0.69999990E+01  0.14156E+05
 0.70499992E+01  0.14161E+05
 0.70999994E+01  0.14162E+05
 0.71499996E+01  0.14162E+05
 0.71999998E+01  0.14161E+05
 0.72499990E+01  0.14164E+05
 0.72999992E+01  0.14161E+05
 0.73499994E+01  0.14158E+05
 0.73999996E+01  0.14162E+05
 0.74499998E+01  0.14167E+05
 0.74999990E+01  0.14166E+05
 0.75499992E+01  0.14172E+05
 0.75999994E+01  0.14173E+05
 0.76499996E+01  0.14167E+05
 0.76999998E+01  0.14168E+05
 0.77499990E+01  0.14168E+05
 0.77999992E+01  0.14164E+05
 0.78499994E+01  0.14157E+05
 0.78999996E+01  0.14151E+05
 0.79499998E+01  0.14142E+05
 0.79999990E+01  0.14137E+05
 0.80499992E+01  0.14134E+05
 0.80999994E+01  0.14136E+05
 0.81499996E+01  0.14140E+05
 0.81999998E+01  0.14142E+05
 0.82499990E+01  0.14151E+05
 0.82999992E+01  0.14162E+05
 0.83499994E+01  0.14166E+05
 0.83999996E+01  0.14169E+05
 0.84499998E+01  0.14180E+05
 0.84999990E+01  0.14185E+05
 0.85499992E+01  0.14190E+05
 0.85999994E+01  0.14189E+05
 0.86499996E+01  0.14187E+05
 0.86999998E+01  0.14182E+05
 0.87499990E+01  0.14178E+05
 0.87999992E+01  0.14177E+05
 0.88499994E+01  0.14169E+05
 0.88999996E+01  0.14167E+05
 0.89499998E+01  0.14169E+05
 0.89999990E+01  0.14166E+05
 0.90499992E+01  0.14162E+05
 0.90999994E+01  0.14161E+05
 0.91499996E+01  0.14156E+05
 0.91999989E+01  0.14153E+05
 0.92499990E+01  0.14151E+05
 0.92999992E+01  0.14154E+05
 0.93499994E+01  0.14157E+05
 0.93999996E+01  0.14161E+05
 0.94499989E+01  0.14159E+05
 0.94999990E+01  0.14156E+05
 0.95499992E+01  0.14156E+05
 0.95999994E+01  0.14158E+05
 0.96499996E+01  0.14159E+05
 0.96999989E+01  0.14161E+05
 0.97499990E+01  0.14163E+05
 0.97999992E+01  0.14163E+05
 0.98499994E+01  0.14165E+05
 0.98999996E+01  0.14164E+05
 0.99499989E+01  0.14169E+05
 0.99999990E+01  0.14168E+05
 0.10049999E+02  0.14171E+05
 0.10099999E+02  0.14172E+05
 0.10150000E+02  0.14174E+05
 0.10199999E+02  0.14179E+05
 0.10249999E+02  0.14178E+05
 0.10299999E+02  0.14182E+05
 0.10349999E+02  0.14181E+05
 0.10400000E+02  0.14183E+05
 0.10449999E+02  0.14181E+05
 0.10499999E+02  0.14176E+05
 0.10549999E+02  0.14174E+05
 0.10599999E+02  0.14170E+05
 0.10650000E+02  0.14164E+05
 0.10699999E+02  0.14157E+05
 0.10749999E+02  0.14152E+05
 0.10799999E+02  0.14149E+05
 0.10849999E+02  0.14151E+05
 0.10900000E+02  0.14146E+05
 0.10949999E+02  0.14147E+05
 0.10999999E+02  0.14146E+05
 0.11049999E+02  0.14145E+05
 0.11099999E+02  0.14146E+05
 0.11150000E+02  0.14146E+05
 0.11199999E+02  0.14146E+05
 0.11249999E+02  0.14144E+05
 0.11299999E+02  0.14146E+05
 0.11349999E+02  0.14142E+05
 0.11400000E+02  0.14147E+05
 0.11449999E+02  0.14149E+05
 0.11499999E+02  0.14152E+05
 0.11549999E+02  0.14156E+05
 0.11599999E+02  0.14159E+05
 0.11650000E+02  0.14160E+05
 0.11699999E+02  0.14165E+05
 0.11749999E+02  0.14166E+05
 0.11799999E+02  0.14166E+05
 0.11849999E+02  0.14169E+05
 0.11900000E+02  0.14166E+05
 0.11949999E+02  0.14164E+05
 0.11999999E+02  0.14161E+05
 0.12049999E+02  0.14161E+05
 0.12099999E+02  0.14167E+05
 0.12150000E+02  0.14164E+05
 0.12199999E+02  0.14161E+05
 0.12249999E+02  0.14164E+05
 0.12299999E+02  0.14159E+05
 0.12349999E+02  0.14157E+05
 0.12400000E+02  0.14151E+05
 0.12449999E+02  0.14148E+05
 0.12499999E+02  0.14151E+05
 0.12549999E+02  0.14152E+05
 0.12599999E+02  0.14151E+05
 0.12649999E+02  0.14153E+05
 0.12699999E+02  0.14160E+05
 0.12749999E+02  0.14158E+05
 0.12799999E+02  0.14159E+05
 0.12849999E+02  0.14157E+05
 0.12899999E+02  0.14163E+05
 0.12949999E+02  0.14167E+05
 0.12999999E+02  0.14172E+05
 0.13049999E+02  0.14176E+05
 0.13099999E+02  0.14171E+05
 0.13149999E+02  0.14172E+05
 0.13199999E+02  0.14172E+05
 0.13249999E+02  0.14168E+05
 0.13299999E+02  0.14162E+05
 0.13349999E+02  0.14167E+05
 0.13399999E+02  0.14166E+05
 0.13449999E+02  0.14164E+05
 0.13499999E+02  0.14158E+05
 0.13549999E+02  0.14156E+05
 0.13599999E+02  0.14158E+05
 0.13649999E+02  0.14158E+05
 0.13699999E+02  0.14156E+05
 0.13749999E+02  0.14152E+05
 0.13799999E+02  0.14156E+05
 0.13849999E+02  0.14158E+05
 0.13899999E+02  0.14159E+05
 0.13949999E+02  0.14157E+05
 0.13999999E+02  0.14158E+05
 0.14049999E+02  0.14152E+05
 0.14099998E+02  0.14156E+05
 0.14150000E+02  0.14159E+05
 0.14199999E+02  0.14159E+05
 0.14249998E+02  0.14166E+05
 0.14299999E+02  0.14164E+05
 0.14349998E+02  0.14167E+05
 0.14400000E+02  0.14173E+05
 0.14449999E+02  0.14177E+05
 0.14499998E+02  0.14183E+05
 0.14549999E+02  0.14187E+05
 0.14599998E+02  0.14186E+05
 0.14650000E+02  0.14188E+05
 0.14699999E+02  0.14191E+05
 0.14749998E+02  0.14184E+05
 0.14799999E+02  0.14178E+05
 0.14849998E+02  0.14171E+05
 0.14900000E+02  0.14166E+05
 0.14949999E+02  0.14165E+05
 0.14999998E+02  0.14161E+05
 0.15049999E+02  0.14156E+05
 0.15099998E+02  0.14153E+05
 0.15150000E+02  0.14148E+05
 0.15199999E+02  0.14144E+05
 0.15249998E+02  0.14147E+05
 0.15299999E+02  0.14142E+05
 0.15349998E+02  0.14136E+05
 0.15400000E+02  0.14138E+05
 0.15449999E+02  0.14143E+05
 0.15499998E+02  0.14143E+05
 0.15549999E+02  0.14139E+05
 0.15599998E+02  0.14139E+05
 0.15650000E+02  0.14140E+05
 0.15699999E+02  0.14136E+05
 0.15749998E+02  0.14135E+05
 0.15799999E+02  0.14136E+05
 0.15849998E+02  0.14137E+05
 0.15900000E+02  0.14143E+05
 0.15949999E+02  0.14148E+05
 0.15999998E+02  0.14150E+05
 0.16049999E+02  0.14150E+05
 0.16099998E+02  0.14153E+05
 0.16150000E+02  0.14153E+05
 0.16199999E+02  0.14151E+05
 0.16249998E+02  0.14153E+05
 0.16299999E+02  0.14154E+05
 0.16349998E+02  0.14156E+05
 0.16400000E+02  0.14159E+05
 0.16449999E+02  0.14163E+05
 0.16499998E+02  0.14165E+05
 0.16549999E+02  0.14170E+05
 0.16599998E+02  0.14167E+05
 0.16650000E+02  0.14167E+05
 0.16699999E+02  0.14170E+05
 0.16749998E+02  0.14174E+05
 0.16799999E+02  0.14176E+05
 0.16849998E+02  0.14177E+05
 0.16900000E+02  0.14184E+05
 0.16949999E+02  0.14183E+05
 0.16999998E+02  0.14189E+05
 0.17049999E+02  0.14190E+05
 0.17099998E+02  0.14192E+05
 0.17150000E+02  0.14194E+05
 0.17199999E+02  0.14194E+05
 0.17249998E+02  0.14192E+05
 0.17299999E+02  0.14189E+05
 0.17349998E+02  0.14190E+05
 0.17400000E+02  0.14183E+05
 0.17449999E+02  0.14179E+05
 0.17499998E+02  0.14179E+05
 0.17549999E+02  0.14175E+05
 0.17599998E+02  0.14168E+05
 0.17650000E+02  0.14167E+05
 0.17699999E+02  0.14160E+05
 0.17749998E+02  0.14154E+05
 0.17799999E+02  0.14144E+05
 0.17849998E+02  0.14139E+05
 0.17900000E+02  0.14141E+05
 0.17949999E+02  0.14135E+05
 0.17999998E+02  0.14136E+05
 0.18049999E+02  0.14133E+05
 0.18099998E+02  0.14132E+05
 0.18150000E+02  0.14132E+05
 0.18199999E+02  0.14133E+05
 0.18249998E+02  0.14135E+05
 0.18299999E+02  0.14136E+05
 0.18349998E+02  0.14146E+05
 0.18400000E+02  0.14150E+05
 0.18449999E+02  0.14159E+05
 0.18499998E+02  0.14172E+05
 0.18549999E+02  0.14188E+05
 0.18599998E+02  0.14199E+05
 0.18650000E+02  0.14203E+05
 0.18699999E+02  0.14190E+05
 0.18749998E+02  0.14193E+05
 0.18799999E+02  0.14185E+05
 0.18849998E+02  0.14189E+05
 0.18900000E+02  0.14220E+05
 0.18949999E+02  0.14225E+05
 0.18999998E+02  0.14234E+05
 0.19049999E+02  0.14206E+05
 0.19099998E+02  0.14134E+05
 0.19150000E+02  0.13957E+05
 0.19199999E+02  0.14060E+05
 0.19249998E+02  0.14207E+05
 0.19299999E+02  0.13851E+05
 0.19349998E+02  0.13405E+05
 0.19400000E+02  0.13700E+05
 0.19449999E+02  0.14333E+05
 0.19499998E+02  0.14854E+05
 0.19549999E+02  0.14897E+05
 0.19599998E+02  0.14105E+05
 0.19650000E+02  0.14009E+05
 0.19699999E+02  0.14702E+05
 0.19749998E+02  0.14511E+05
 0.19799999E+02  0.13534E+05
 0.19849998E+02  0.12218E+05
 0.19900000E+02  0.12136E+05
 0.19949999E+02  0.12889E+05
 0.19999998E+02  0.13537E+05
 0.20049999E+02  0.13996E+05
 0.20099998E+02  0.14988E+05
 0.20150000E+02  0.16529E+05
 0.20199999E+02  0.16644E+05
 0.20249998E+02  0.14904E+05
 0.20299999E+02  0.13453E+05
 0.20349998E+02  0.14601E+05
 0.20399998E+02  0.14508E+05
 0.20449999E+02  0.15380E+05
 0.20499998E+02  0.15469E+05
 0.20549999E+02  0.14457E+05
 0.20599998E+02  0.12312E+05
 0.20649998E+02  0.11561E+05
 0.20699999E+02  0.12601E+05
 0.20749998E+02  0.14584E+05
 0.20799999E+02  0.14537E+05
 0.20849998E+02  0.14837E+05
 0.20899998E+02  0.16401E+05
 0.20949999E+02  0.14817E+05
 0.20999998E+02  0.13026E+05
 0.21049999E+02  0.10858E+05
 0.21099998E+02  0.15539E+05
 0.21149998E+02  0.14569E+05
 0.21199999E+02  0.13041E+05
 0.21249998E+02  0.14413E+05
 0.21299999E+02  0.14180E+05
 0.21349998E+02  0.10511E+05
 0.21399998E+02  0.10785E+05
 0.21449999E+02  0.17687E+05
 0.21499998E+02  0.15501E+05
 0.21549999E+02  0.13095E+05
 0.21599998E+02  0.13688E+05
 0.21649998E+02  0.15877E+05
 0.21699999E+02  0.17006E+05
 0.21749998E+02  0.17773E+05
 0.21799999E+02  0.18572E+05
 0.21849998E+02  0.11951E+05
 0.21899998E+02  0.11727E+05
 0.21949999E+02  0.15956E+05
 0.21999998E+02  0.12264E+05
 0.22049999E+02  0.11843E+05
 0.22099998E+02  0.13889E+05
 0.22149998E+02  0.12007E+05
 0.22199999E+02  0.11081E+05
 0.22249998E+02  0.15434E+05
 0.22299999E+02  0.15273E+05
 0.22349998E+02  0.10875E+05
 0.22399998E+02  0.12959E+05
 0.22449999E+02  0.16514E+05
 0.22499998E+02  0.17371E+05
 0.22549999E+02  0.14834E+05
 0.22599998E+02  0.15738E+05
 0.22649998E+02  0.14963E+05
 0.22699999E+02  0.13209E+05
 0.22749998E+02  0.14659E+05
 0.22799999E+02  0.15751E+05
 0.22849998E+02  0.14097E+05
 0.22899998E+02  0.11133E+05
 0.22949999E+02  0.14648E+05
 0.22999998E+02  0.15558E+05
 0.23049999E+02  0.15138E+05
 0.23099998E+02  0.10161E+05
 0.23149998E+02  0.12640E+05
 0.23199999E+02  0.15194E+05
 0.23249998E+02  0.15706E+05
 0.23299999E+02  0.10121E+05
 0.23349998E+02  0.15770E+05
 0.23399998E+02  0.20905E+05
 0.23449999E+02  0.91252E+04
 0.23499998E+02  0.11523E+05
 0.23549999E+02  0.12376E+05
 0.23599998E+02  0.16587E+05
 0.23649998E+02  0.15774E+05
 0.23699999E+02  0.14082E+05
 0.23749998E+02  0.15539E+05
 0.23799999E+02  0.15642E+05
 0.23849998E+02  0.13060E+05
 0.23899998E+02  0.16028E+05
 0.23949999E+02  0.17889E+05
 0.23999998E+02  0.13837E+05
 0.24049999E+02  0.12586E+05
 0.24099998E+02  0.14706E+05
 0.24149998E+02  0.14510E+05
 0.24199999E+02  0.14873E+05
 0.24249998E+02  0.10836E+05
 0.24299999E+02  0.14019E+05
 0.24349998E+02  0.16325E+05
 0.24399998E+02  0.12153E+05
 0.24449999E+02  0.13467E+05
 0.24499998E+02  0.14620E+05
 0.24549999E+02  0.16338E+05
 0.24599998E+02  0.15043E+05
 0.24649998E+02  0.16313E+05
 0.24699999E+02  0.12650E+05
 0.24749998E+02  0.11208E+05
 0.24799999E+02  0.16552E+05
 0.24849998E+02  0.12503E+05
 0.24899998E+02  0.84621E+04
 0.24949999E+02  0.17140E+05
 0.24999998E+02  0.14859E+05
 0.25049999E+02  0.11385E+05
 0.25099998E+02  0.15162E+05
 0.25149998E+02  0.14246E+05
 0.25199999E+02  0.91400E+04
 0.25249998E+02  0.16437E+05
 0.25299999E+02  0.16399E+05
 0.25349998E+02  0.15934E+05
 0.25399998E+02  0.13733E+05
 0.25449999E+02  0.10377E+05
 0.25499998E+02  0.17412E+05
 0.25549999E+02  0.14203E+05
 0.25599998E+02  0.11946E+05
 0.25649998E+02  0.14365E+05
 0.25699999E+02  0.11880E+05
 0.25749998E+02  0.12777E+05
 0.25799999E+02  0.15941E+05
 0.25849998E+02  0.12408E+05
 0.25899998E+02  0.17862E+05
 0.25949999E+02  0.16215E+05
 0.25999998E+02  0.15570E+05
 0.26049999E+02  0.14758E+05
 0.26099998E+02  0.12083E+05
 0.26149998E+02  0.14324E+05
 0.26199999E+02  0.14525E+05
 0.26249998E+02  0.14500E+05
 0.26299999E+02  0.13659E+05
 0.26349998E+02  0.14444E+05
 0.26399998E+02  0.10911E+05
 0.26449999E+02  0.14382E+05
 0.26499998E+02  0.11362E+05
 0.26549999E+02  0.14535E+05
 0.26599998E+02  0.13560E+05
 0.26649998E+02  0.15085E+05
 0.26699999E+02  0.20926E+05
 0.26749998E+02  0.15908E+05
 0.26799999E+02  0.15428E+05
 0.26849998E+02  0.97235E+04
 0.26899998E+02  0.11560E+05
 0.26949999E+02  0.15920E+05
 0.26999998E+02  0.11067E+05
 0.27049997E+02  0.13565E+05
 0.27099998E+02  0.16485E+05
 0.27149998E+02  0.14838E+05
 0.27199999E+02  0.13328E+05
 0.27249998E+02  0.10165E+05
 0.27299997E+02  0.12168E+05
 0.27349998E+02  0.16691E+05
 0.27399998E+02  0.18502E+05
 0.27449999E+02  0.16062E+05
 0.27499998E+02  0.12217E+05
 0.27549997E+02  0.15402E+05
 0.27599998E+02  0.17072E+05
 0.27649998E+02  0.13029E+05
 0.27699999E+02  0.13868E+05
 0.27749998E+02  0.13855E+05
 0.27799997E+02  0.97667E+04
 0.27849998E+02  0.13770E+05
 0.27899998E+02  0.17171E+05
 0.27949999E+02  0.13966E+05
 0.27999998E+02  0.16318E+05
 0.28049997E+02  0.13941E+05
 0.28099998E+02  0.15226E+05
 0.28149998E+02  0.14102E+05
 0.28199999E+02  0.12522E+05
 0.28249998E+02  0.15316E+05
 0.28299997E+02  0.14444E+05
 0.28349998E+02  0.12368E+05
 0.28399998E+02  0.13497E+05
 0.28449999E+02  0.14071E+05
 0.28499998E+02  0.13317E+05
 0.28549997E+02  0.12387E+05
 0.28599998E+02  0.14994E+05
 0.28649998E+02  0.19103E+05
 0.28699999E+02  0.12252E+05
 0.28749998E+02  0.12665E+05
 0.28799997E+02  0.14137E+05
 0.28849998E+02  0.12038E+05
 0.28899998E+02  0.16525E+05
 0.28949999E+02  0.12874E+05
 0.28999998E+02  0.15205E+05
 0.29049997E+02  0.16686E+05
 0.29099998E+02  0.12629E+05
 0.29149998E+02  0.13139E+05
 0.29199999E+02  0.12147E+05
 0.29249998E+02  0.16345E+05
 0.29299997E+02  0.14593E+05
 0.29349998E+02  0.13396E+05
 0.29399998E+02  0.13483E+05
 0.29449999E+02  0.15748E+05
 0.29499998E+02  0.13857E+05
 0.29549997E+02  0.13647E+05
 0.29599998E+02  0.15132E+05
 0.29649998E+02  0.13428E+05
 0.29699999E+02  0.16062E+05
 0.29749998E+02  0.12834E+05
 0.29799997E+02  0.14033E+05
 0.29849998E+02  0.14554E+05
 0.29899998E+02  0.13784E+05
 0.29949999E+02  0.14106E+05
 0.29999998E+02  0.14079E+05
 0.30049999E+02  0.13619E+05
 0.30099998E+02  0.13518E+05
 0.30149998E+02  0.13455E+05
 0.30199997E+02  0.14209E+05
 0.30249996E+02  0.13828E+05
 0.30299999E+02  0.15151E+05
 0.30349998E+02  0.16722E+05
 0.30399998E+02  0.13936E+05
 0.30449997E+02  0.15719E+05
 0.30499996E+02  0.14332E+05
 0.30549999E+02  0.11967E+05
 0.30599998E+02  0.13549E+05
 0.30649998E+02  0.15769E+05
 0.30699997E+02  0.14361E+05
 0.30749996E+02  0.12814E+05
 0.30799999E+02  0.11425E+05
 0.30849998E+02  0.14609E+05
 0.30899998E+02  0.15747E+05
 0.30949997E+02  0.12460E+05
 0.30999996E+02  0.13408E+05
 0.31049999E+02  0.12997E+05
 0.31099998E+02  0.14012E+05
 0.31149998E+02  0.15540E+05
 0.31199997E+02  0.13076E+05
 0.31249996E+02  0.13445E+05
 0.31299999E+02  0.15908E+05
 0.31349998E+02  0.13232E+05
 0.31399998E+02  0.15078E+05
 0.31449997E+02  0.14998E+05
 0.31499996E+02  0.12874E+05
 0.31549999E+02  0.14249E+05
 0.31599998E+02  0.15154E+05
 0.31649998E+02  0.16374E+05
 0.31699997E+02  0.15363E+05
 0.31749996E+02  0.11471E+05
 0.31799999E+02  0.12367E+05
 0.31849998E+02  0.15635E+05
 0.31899998E+02  0.12930E+05
 0.31949997E+02  0.15571E+05
 0.31999996E+02  0.15539E+05
 0.32049999E+02  0.13764E+05
 0.32099998E+02  0.14666E+05
 0.32149998E+02  0.11409E+05
 0.32199997E+02  0.14230E+05
 0.32249996E+02  0.14988E+05
 0.32299999E+02  0.10812E+05
 0.32349998E+02  0.16704E+05
 0.32399998E+02  0.13247E+05
 0.32449997E+02  0.11841E+05
 0.32499996E+02  0.17752E+05
 0.32549999E+02  0.14354E+05
 0.32599998E+02  0.14443E+05
 0.32649998E+02  0.14668E+05
 0.32699997E+02  0.13966E+05
 0.32749996E+02  0.18692E+05
 0.32799999E+02  0.14389E+05
 0.32849998E+02  0.10127E+05
 0.32899998E+02  0.16442E+05
 0.32949997E+02  0.11371E+05
 0.32999996E+02  0.13518E+05
 0.33049999E+02  0.19304E+05
 0.33099998E+02  0.70624E+04
 0.33149998E+02  0.99711E+04
 0.33199997E+02  0.17902E+05
 0.33249996E+02  0.13297E+05
 0.33299999E+02  0.12810E+05
 0.33349998E+02  0.10986E+05
 0.33399998E+02  0.19248E+05
 0.33449997E+02  0.17117E+05
 0.33499996E+02  0.62429E+04
 0.33549999E+02  0.10631E+05
 0.33599998E+02  0.20523E+05
 0.33649998E+02  0.16170E+05
 0.33699997E+02  0.59145E+04
 0.33749996E+02  0.17155E+05
 0.33799999E+02  0.23721E+05
 0.33849998E+02  0.15831E+05
 0.33899998E+02  0.13649E+05
 0.33949997E+02  0.16434E+05
 0.33999996E+02  0.17835E+05
 0.34049999E+02  0.14906E+05
 0.34099998E+02  0.10118E+05
 0.34149998E+02  0.14128E+05
 0.34199997E+02  0.14629E+05
 0.34249996E+02  0.89167E+04
 0.34299999E+02  0.11025E+05
 0.34349998E+02  0.18891E+05
 0.34399998E+02  0.16248E+05
 0.34449997E+02  0.16507E+05
 0.34499996E+02  0.14054E+05
 0.34549999E+02  0.50788E+04
 0.34599998E+02  0.71824E+04
 0.34649998E+02  0.14546E+05
 0.34699997E+02  0.18469E+05
 0.34749996E+02  0.15073E+05
 0.34799999E+02  0.15198E+05
 0.34849998E+02  0.14003E+05
 0.34899998E+02  0.13902E+05
 0.34949997E+02  0.11548E+05
 0.34999996E+02  0.10501E+05
 0.35049999E+02  0.17253E+05
 0.35099998E+02  0.22991E+05
 0.35149998E+02  0.12845E+05
 0.35199997E+02  0.16842E+05
 0.35249996E+02  0.24742E+05
 0.35299999E+02  0.18790E+05
 0.35349998E+02  0.73587E+04
 0.35399998E+02  0.26427E+04
 0.35449997E+02  0.12808E+05
 0.35499996E+02  0.16283E+05
 0.35549999E+02  0.16601E+05
 0.35599998E+02  0.11466E+05
 0.35649998E+02  0.15502E+05
 0.35699997E+02  0.18267E+05
 0.35749996E+02  0.11652E+05
 0.35799999E+02  0.88013E+04
 0.35849998E+02  0.96393E+04
 0.35899998E+02  0.13193E+05
 0.35949997E+02  0.16431E+05
 0.35999996E+02  0.22213E+05
 0.36049999E+02  0.17280E+05
 0.36099998E+02  0.14000E+05
 0.36149998E+02  0.19868E+05
 0.36199997E+02  0.12853E+05
 0.36249996E+02  0.10053E+04
 0.36299999E+02  0.11154E+05
 0.36349998E+02  0.21015E+05
 0.36399998E+02  0.84189E+04
 0.36449997E+02  0.11746E+05
 0.36499996E+02  0.16095E+05
 0.36549999E+02  0.20093E+05
 0.36599998E+02  0.19702E+05
 0.36649998E+02  0.80480E+04
 0.36699997E+02  0.87949E+04
 0.36749996E+02  0.15008E+05
 0.36799999E+02  0.12104E+05
 0.36849998E+02  0.95734E+04
 0.36899998E+02  0.83693E+04
 0.36949997E+02  0.16535E+05
 0.36999996E+02  0.30876E+05
 0.37049999E+02  0.17734E+05
 0.37099998E+02  0.11603E+05
 0.37149998E+02  0.21735E+05
 0.37199997E+02  0.15806E+05
 0.37249996E+02  0.59946E+04
 0.37299999E+02  0.14268E+05
 0.37349998E+02  0.16078E+05
 0.37399998E+02  0.40141E+04
 0.37449997E+02  0.10021E+05
 0.37499996E+02  0.20805E+05
 0.37549999E+02  0.14456E+05
 0.37599998E+02  0.11673E+05
 0.37649998E+02  0.17085E+05
 0.37699997E+02  0.16496E+05
 0.37749996E+02  0.13856E+05
 0.37799999E+02  0.12758E+05
 0.37849998E+02  0.17034E+05
 0.37899998E+02  0.19121E+05
 0.37949997E+02  0.14112E+05
 0.37999996E+02  0.13252E+05
 0.38049999E+02  0.13717E+05
 0.38099998E+02  0.12749E+05
 0.38149998E+02  0.14162E+05
 0.38199997E+02  0.12416E+05
 0.38249996E+02  0.14173E+05
 0.38299999E+02  0.17814E+05
 0.38349998E+02  0.20236E+05
 0.38399998E+02  0.15001E+05
 0.38449997E+02  0.10606E+05
 0.38499996E+02  0.11958E+05
 0.38549999E+02  0.12810E+05
 0.38599998E+02  0.17311E+05
 0.38649998E+02  0.14654E+05
 0.38699997E+02  0.16045E+05
 0.38749996E+02  0.19813E+05
 0.38799999E+02  0.13175E+05
 0.38849998E+02  0.99283E+04
 0.38899998E+02  0.94470E+04
 0.38949997E+02  0.88093E+04
 0.38999996E+02  0.10156E+05
 0.39049999E+02  0.15952E+05
 0.39099998E+02  0.22536E+05
 0.39149998E+02  0.15995E+05
 0.39199997E+02  0.74493E+04
 0.39249996E+02  0.12205E+05
 0.39299999E+02  0.16742E+05
 0.39349998E+02  0.14263E+05
 0.39399998E+02  0.10957E+05
 0.39449997E+02  0.13303E+05
 0.39499996E+02  0.18249E+05
 0.39549999E+02  0.21425E+05
 0.39599998E+02  0.21039E+05
 0.39649998E+02  0.84749E+04
 0.39699997E+02  0.46784E+04
 0.39749996E+02  0.16222E+05
 0.39799999E+02  0.15726E+05
 0.39849998E+02  0.54888E+04
 0.39899998E+02  0.12650E+05
 0.39949997E+02  0.21928E+05
 0.39999996E+02  0.14778E+05
 0.40049999E+02  0.11653E+05
 0.40099998E+02  0.17664E+05
 0.40149998E+02  0.17108E+05
 0.40199997E+02  0.80165E+04
 0.40249996E+02  0.10952E+05
 0.40299999E+02  0.17001E+05
 0.40349998E+02  0.11358E+05
 0.40399998E+02  0.13221E+05
 0.40449997E+02  0.16297E+05
 0.40499996E+02  0.14749E+05
 0.40549999E+02  0.16378E+05
 0.40599998E+02  0.16980E+05
 0.40649998E+02  0.13264E+05
 0.40699997E+02  0.93910E+04
 0.40749996E+02  0.91603E+04
 0.40799999E+02  0.78626E+04
 0.40849998E+02  0.11108E+05
 0.40899998E+02  0.20425E+05
 0.40949997E+02  0.17747E+05
 0.40999996E+02  0.15341E+05
 0.41049999E+02  0.19691E+05
 0.41099998E+02  0.16213E+05
 0.41149998E+02  0.14507E+05
 0.41199997E+02  0.14150E+05
 0.41249996E+02  0.95231E+04
 0.41299999E+02  0.10302E+05
 0.41349998E+02  0.12954E+05
 0.41399998E+02  0.16125E+05
 0.41449997E+02  0.17846E+05
 0.41499996E+02  0.14153E+05
 0.41549999E+02  0.14198E+05
 0.41599998E+02  0.16732E+05
 0.41649998E+02  0.14441E+05
 0.41699997E+02  0.12114E+05
 0.41749996E+02  0.14031E+05
 0.41799999E+02  0.15535E+05
 0.41849998E+02  0.15031E+05
 0.41899998E+02  0.12424E+05
 0.41949997E+02  0.12902E+05
 0.41999996E+02  0.10296E+05
 0.42049999E+02  0.11753E+05
 0.42099998E+02  0.16202E+05
 0.42149998E+02  0.12087E+05
 0.42199997E+02  0.14500E+05
 0.42249996E+02  0.14371E+05
 0.42299999E+02  0.15398E+05
 0.42349998E+02  0.16565E+05
 0.42399998E+02  0.13140E+05
 0.42449997E+02  0.12095E+05
 0.42499996E+02  0.12026E+05
 0.42549999E+02  0.12744E+05
 0.42599998E+02  0.12024E+05
 0.42649998E+02  0.14015E+05
 0.42699997E+02  0.11436E+05
 0.42749996E+02  0.13726E+05
 0.42799995E+02  0.16842E+05
 0.42849998E+02  0.14699E+05
 0.42899998E+02  0.13285E+05
 0.42949997E+02  0.12547E+05
 0.42999996E+02  0.12306E+05
 0.43049995E+02  0.16419E+05
 0.43099998E+02  0.16610E+05
 0.43149998E+02  0.13053E+05
 0.43199997E+02  0.16588E+05
 0.43249996E+02  0.14267E+05
 0.43299995E+02  0.15464E+05
 0.43349998E+02  0.17531E+05
 0.43399998E+02  0.14823E+05
 0.43449997E+02  0.13921E+05
 0.43499996E+02  0.14286E+05
 0.43549995E+02  0.14721E+05
 0.43599998E+02  0.12980E+05
 0.43649998E+02  0.14603E+05
 0.43699997E+02  0.13061E+05
 0.43749996E+02  0.17737E+05
 0.43799995E+02  0.19756E+05
 0.43849998E+02  0.14892E+05
 0.43899998E+02  0.14356E+05
 0.43949997E+02  0.13134E+05
 0.43999996E+02  0.13906E+05
 0.44049995E+02  0.12006E+05
 0.44099998E+02  0.15181E+05
 0.44149998E+02  0.18694E+05
 0.44199997E+02  0.17512E+05
 0.44249996E+02  0.15048E+05
 0.44299995E+02  0.13210E+05
 0.44349998E+02  0.10637E+05
 0.44399998E+02  0.98906E+04
 0.44449997E+02  0.14477E+05
 0.44499996E+02  0.12323E+05
 0.44549995E+02  0.12038E+05
 0.44599998E+02  0.13833E+05
 0.44649998E+02  0.13131E+05
 0.44699997E+02  0.15126E+05
 0.44749996E+02  0.15940E+05
 0.44799995E+02  0.15251E+05
 0.44849998E+02  0.14524E+05
 0.44899998E+02  0.15110E+05
 0.44949997E+02  0.14792E+05
 0.44999996E+02  0.13812E+05
 0.45049995E+02  0.92347E+04
 0.45099998E+02  0.93548E+04
 0.45149998E+02  0.12593E+05
 0.45199997E+02  0.13749E+05
 0.45249996E+02  0.13490E+05
 0.45299995E+02  0.12835E+05
 0.45349998E+02  0.16298E+05
 0.45399998E+02  0.14902E+05
 0.45449997E+02  0.14398E+05
 0.45499996E+02  0.15502E+05
 0.45549995E+02  0.13395E+05
 0.45599998E+02  0.16259E+05
 0.45649998E+02  0.14438E+05
 0.45699997E+02  0.99681E+04
 0.45749996E+02  0.15082E+05
 0.45799995E+02  0.16189E+05
 0.45849998E+02  0.14933E+05
 0.45899998E+02  0.15910E+05
 0.45949997E+02  0.14876E+05
 0.45999996E+02  0.13791E+05
 0.46049995E+02  0.12882E+05
 0.46099998E+02  0.13572E+05
 0.46149998E+02  0.14078E+05
 0.46199997E+02  0.12349E+05
 0.46249996E+02  0.13687E+05
 0.46299995E+02  0.14636E+05
 0.46349998E+02  0.11396E+05
 0.46399998E+02  0.14124E+05
 0.46449997E+02  0.16972E+05
 0.46499996E+02  0.13963E+05
 0.46549995E+02  0.13910E+05
 0.46599998E+02  0.14740E+05
 0.46649998E+02  0.15090E+05
 0.46699997E+02  0.15208E+05
 0.46749996E+02  0.13679E+05
 0.46799995E+02  0.13437E+05
 0.46849998E+02  0.14743E+05
 0.46899998E+02  0.12637E+05
 0.46949997E+02  0.14135E+05
 0.46999996E+02  0.17446E+05
 0.47049995E+02  0.15608E+05
 0.47099998E+02  0.15813E+05
 0.47149998E+02  0.15416E+05
 0.47199997E+02  0.13679E+05
 0.47249996E+02  0.14298E+05
 0.47299995E+02  0.12730E+05
 0.47349998E+02  0.12627E+05
 0.47399998E+02  0.14202E+05
 0.47449997E+02  0.14938E+05
 0.47499996E+02  0.15790E+05
 0.47549995E+02  0.13637E+05
 0.47599998E+02  0.12393E+05
 0.47649998E+02  0.15300E+05
 0.47699997E+02  0.14565E+05
 0.47749996E+02  0.11004E+05
 0.47799995E+02  0.14117E+05
 0.47849998E+02  0.15461E+05
 0.47899998E+02  0.12841E+05
 0.47949997E+02  0.12334E+05
 0.47999996E+02  0.13642E+05
 0.48049995E+02  0.13847E+05
 0.48099998E+02  0.15480E+05
 0.48149998E+02  0.15691E+05
 0.48199997E+02  0.14646E+05
 0.48249996E+02  0.14361E+05
 0.48299995E+02  0.14966E+05
 0.48349998E+02  0.14539E+05
 0.48399998E+02  0.13314E+05
 0.48449997E+02  0.12829E+05
 0.48499996E+02  0.12070E+05
 0.48549995E+02  0.14425E+05
 0.48599998E+02  0.15184E+05
 0.48649998E+02  0.14147E+05
 0.48699997E+02  0.14074E+05
 0.48749996E+02  0.15731E+05
 0.48799995E+02  0.15870E+05
 0.48849998E+02  0.13771E+05
 0.48899998E+02  0.12866E+05
 0.48949997E+02  0.13690E+05
 0.48999996E+02  0.13900E+05
 0.49049995E+02  0.15454E+05
 0.49099998E+02  0.15135E+05
 0.49149998E+02  0.13401E+05
 0.49199997E+02  0.14249E+05
 0.49249996E+02  0.14241E+05
 0.49299995E+02  0.14062E+05
 0.49349998E+02  0.12957E+05
 0.49399998E+02  0.13914E+05
 0.49449997E+02  0.15270E+05
 0.49499996E+02  0.15652E+05
 0.49549995E+02  0.16068E+05
 0.49599998E+02  0.13728E+05
 0.49649998E+02  0.11057E+05
 0.49699997E+02  0.10743E+05
 0.49749996E+02  0.12924E+05
 0.49799995E+02  0.15185E+05
 0.49849998E+02  0.17277E+05
 0.49899998E+02  0.16934E+05
 0.49949997E+02  0.14351E+05
 0.49999996E+02  0.15139E+05
 0.50049995E+02  0.15496E+05
 0.50099998E+02  0.16095E+05
 0.50149998E+02  0.15305E+05
 0.50199997E+02  0.14705E+05
 0.50249996E+02  0.15693E+05
 0.50299995E+02  0.14179E+05
 0.50349998E+02  0.13685E+05
 0.50399998E+02  0.14819E+05
 0.50449997E+02  0.13522E+05
 0.50499996E+02  0.13097E+05
 0.50549995E+02  0.15025E+05
 0.50599998E+02  0.12332E+05
 0.50649998E+02  0.12626E+05
 0.50699997E+02  0.12056E+05
 0.50749996E+02  0.11924E+05
 0.50799995E+02  0.13473E+05
 0.50849998E+02  0.14128E+05
 0.50899998E+02  0.15678E+05
 0.50949997E+02  0.15288E+05
 0.50999996E+02  0.15661E+05
 0.51049995E+02  0.15576E+05
 0.51099998E+02  0.15430E+05
 0.51149998E+02  0.13131E+05
 0.51199997E+02  0.12784E+05
 0.51249996E+02  0.13498E+05
 0.51299995E+02  0.12862E+05
 0.51349998E+02  0.13859E+05
 0.51399998E+02  0.13900E+05
 0.51449997E+02  0.12581E+05
 0.51499996E+02  0.11815E+05
 0.51549995E+02  0.12468E+05
 0.51599998E+02  0.12768E+05
 0.51649998E+02  0.13397E+05
 0.51699997E+02  0.12685E+05
 0.51749996E+02  0.12531E+05
 0.51799995E+02  0.14222E+05
 0.51849998E+02  0.14577E+05
 0.51899998E+02  0.15140E+05
 0.51949997E+02  0.15422E+05
 0.51999996E+02  0.15648E+05
 0.52049995E+02  0.15985E+05
 0.52099998E+02  0.15056E+05
 0.52149998E+02  0.13446E+05
 0.52199997E+02  0.13222E+05
 0.52249996E+02  0.13202E+05
 0.52299995E+02  0.13024E+05
 0.52349998E+02  0.14319E+05
 0.52399998E+02  0.15868E+05
 0.52449997E+02  0.16197E+05
 0.52499996E+02  0.14850E+05
 0.52549995E+02  0.13755E+05
 0.52599998E+02  0.14056E+05
 0.52649998E+02  0.13983E+05
 0.52699997E+02  0.12748E+05
 0.52749996E+02  0.13632E+05
 0.52799995E+02  0.15094E+05
 0.52849998E+02  0.14333E+05
 0.52899998E+02  0.14342E+05
 0.52949997E+02  0.15018E+05
 0.52999996E+02  0.15683E+05
 0.53049995E+02  0.15442E+05
 0.53099998E+02  0.15111E+05
 0.53149998E+02  0.14305E+05
 0.53199997E+02  0.13439E+05
 0.53249996E+02  0.12744E+05
 0.53299995E+02  0.13043E+05
 0.53349998E+02  0.13836E+05
 0.53399998E+02  0.14091E+05
 0.53449997E+02  0.14842E+05
 0.53499996E+02  0.15523E+05
 0.53549995E+02  0.16133E+05
 0.53599998E+02  0.15505E+05
 0.53649998E+02  0.15452E+05
 0.53699997E+02  0.16149E+05
 0.53749996E+02  0.14916E+05
 0.53799995E+02  0.13378E+05
 0.53849998E+02  0.13190E+05
 0.53899998E+02  0.13264E+05
 0.53949997E+02  0.12687E+05
 0.53999996E+02  0.12009E+05
 0.54049995E+02  0.13446E+05
 0.54099998E+02  0.13954E+05
 0.54149998E+02  0.12882E+05
 0.54199997E+02  0.13057E+05
 0.54249996E+02  0.13327E+05
 0.54299995E+02  0.13046E+05
 0.54349998E+02  0.12962E+05
 0.54399998E+02  0.14119E+05
 0.54449997E+02  0.14873E+05
 0.54499996E+02  0.14557E+05
 0.54549995E+02  0.15183E+05
 0.54599998E+02  0.15711E+05
 0.54649998E+02  0.15181E+05
 0.54699997E+02  0.14720E+05
 0.54749996E+02  0.15133E+05
 0.54799995E+02  0.15613E+05
 0.54849998E+02  0.13616E+05
 0.54899998E+02  0.12894E+05
 0.54949997E+02  0.14435E+05
 0.54999996E+02  0.13488E+05
 0.55049995E+02  0.13505E+05
 0.55099998E+02  0.14045E+05
 0.55149998E+02  0.13522E+05
 0.55199997E+02  0.13861E+05
 0.55249996E+02  0.15052E+05
 0.55299995E+02  0.15198E+05
 0.55349998E+02  0.13366E+05
 0.55399998E+02  0.12768E+05
 0.55449997E+02  0.13325E+05
 0.55499996E+02  0.13812E+05
 0.55549995E+02  0.13988E+05
 0.55599998E+02  0.14625E+05
 0.55649998E+02  0.15625E+05
 0.55699997E+02  0.14584E+05
 0.55749996E+02  0.13320E+05
 0.55799995E+02  0.13293E+05
 0.55849995E+02  0.13671E+05
 0.55899998E+02  0.12967E+05
 0.55949997E+02  0.13624E+05
 0.55999996E+02  0.15412E+05
 0.56049995E+02  0.14598E+05
 0.56099995E+02  0.13656E+05
 0.56149998E+02  0.13957E+05
 0.56199997E+02  0.15050E+05
 0.56249996E+02  0.14569E+05
 0.56299995E+02  0.14684E+05
 0.56349995E+02  0.15059E+05
 0.56399998E+02  0.14899E+05
 0.56449997E+02  0.14872E+05
 0.56499996E+02  0.14720E+05
 0.56549995E+02  0.15832E+05
 0.56599995E+02  0.14896E+05
 0.56649998E+02  0.14695E+05
 0.56699997E+02  0.15927E+05
 0.56749996E+02  0.15249E+05
 0.56799995E+02  0.13681E+05
 0.56849995E+02  0.13202E+05
 0.56899998E+02  0.12387E+05
 0.56949997E+02  0.12492E+05
 0.56999996E+02  0.12392E+05
 0.57049995E+02  0.12498E+05
 0.57099995E+02  0.13076E+05
 0.57149998E+02  0.13066E+05
 0.57199997E+02  0.14179E+05
 0.57249996E+02  0.14077E+05
 0.57299995E+02  0.14767E+05
 0.57349995E+02  0.15445E+05
 0.57399998E+02  0.15746E+05
 0.57449997E+02  0.15373E+05
 0.57499996E+02  0.14432E+05
 0.57549995E+02  0.13778E+05
 0.57599995E+02  0.13261E+05
 0.57649998E+02  0.13524E+05
 0.57699997E+02  0.13710E+05
 0.57749996E+02  0.13538E+05
 0.57799995E+02  0.13785E+05
 0.57849995E+02  0.14191E+05
 0.57899998E+02  0.14024E+05
 0.57949997E+02  0.14229E+05
 0.57999996E+02  0.14275E+05
 0.58049995E+02  0.14237E+05
 0.58099995E+02  0.13701E+05
 0.58149998E+02  0.14468E+05
 0.58199997E+02  0.15025E+05
 0.58249996E+02  0.15196E+05
 0.58299995E+02  0.15434E+05
 0.58349995E+02  0.14109E+05
 0.58399998E+02  0.14019E+05
 0.58449997E+02  0.14401E+05
 0.58499996E+02  0.14145E+05
 0.58549995E+02  0.13920E+05
 0.58599995E+02  0.13938E+05
 0.58649998E+02  0.13832E+05
 0.58699997E+02  0.12865E+05
 0.58749996E+02  0.12629E+05
 0.58799995E+02  0.14131E+05
 0.58849995E+02  0.14204E+05
 0.58899998E+02  0.14077E+05
 0.58949997E+02  0.14203E+05
 0.58999996E+02  0.14071E+05
 0.59049995E+02  0.14179E+05
 0.59099995E+02  0.14408E+05
 0.59149998E+02  0.13973E+05
 0.59199997E+02  0.13119E+05
 0.59249996E+02  0.13892E+05
 0.59299995E+02  0.14084E+05
 0.59349995E+02  0.13672E+05
 0.59399998E+02  0.14125E+05
 0.59449997E+02  0.14545E+05
 0.59499996E+02  0.14248E+05
 0.59549995E+02  0.13853E+05
 0.59599995E+02  0.14067E+05
 0.59649998E+02  0.14462E+05
 0.59699997E+02  0.14936E+05
 0.59749996E+02  0.14887E+05
 0.59799995E+02  0.13793E+05
 0.59849995E+02  0.12927E+05
 0.59899998E+02  0.13511E+05
 0.59949997E+02  0.14132E+05
 0.59999996E+02  0.14094E+05
 0.60049995E+02  0.14642E+05
 0.60099995E+02  0.14882E+05
 0.60149998E+02  0.14250E+05
 0.60199997E+02  0.14270E+05
 0.60249996E+02  0.14363E+05
 0.60299995E+02  0.14371E+05
 0.60349995E+02  0.14427E+05
 0.60399998E+02  0.14751E+05
 0.60449997E+02  0.14573E+05
 0.60499996E+02  0.13717E+05
 0.60549995E+02  0.14512E+05
 0.60599995E+02  0.15780E+05
 0.60649998E+02  0.15857E+05
 0.60699997E+02  0.15280E+05
 0.60749996E+02  0.15331E+05
 0.60799995E+02  0.14849E+05
 0.60849995E+02  0.14557E+05
 0.60899998E+02  0.14544E+05
 0.60949997E+02  0.13812E+05
 0.60999996E+02  0.13258E+05
 0.61049995E+02  0.12710E+05
 0.61099995E+02  0.13271E+05
 0.61149998E+02  0.13875E+05
 0.61199997E+02  0.13554E+05
 0.61249996E+02  0.14350E+05
 0.61299995E+02  0.14566E+05
 0.61349995E+02  0.14062E+05
 0.61399998E+02  0.13892E+05
 0.61449997E+02  0.13974E+05
 0.61499996E+02  0.14398E+05
 0.61549995E+02  0.14120E+05
 0.61599995E+02  0.14133E+05
 0.61649998E+02  0.14104E+05
 0.61699997E+02  0.13532E+05
 0.61749996E+02  0.13337E+05
 0.61799995E+02  0.13462E+05
 0.61849995E+02  0.13697E+05
 0.61899998E+02  0.13781E+05
 0.61949997E+02  0.13614E+05
 0.61999996E+02  0.14033E+05
 0.62049995E+02  0.14403E+05
 0.62099998E+02  0.14291E+05
 0.62149994E+02  0.14602E+05
 0.62199997E+02  0.14968E+05
 0.62249992E+02  0.14751E+05
 0.62299995E+02  0.14595E+05
 0.62349998E+02  0.14309E+05
 0.62399994E+02  0.13680E+05
 0.62449997E+02  0.13293E+05
 0.62499992E+02  0.13746E+05
 0.62549995E+02  0.14307E+05
 0.62599998E+02  0.14450E+05
 0.62649994E+02  0.14660E+05
 0.62699997E+02  0.14412E+05
 0.62749992E+02  0.14363E+05
 0.62799995E+02  0.14080E+05
 0.62849998E+02  0.13448E+05
 0.62899994E+02  0.13072E+05
 0.62949997E+02  0.13410E+05
 0.62999992E+02  0.13750E+05
 0.63049995E+02  0.14014E+05
 0.63099998E+02  0.13812E+05
 0.63149994E+02  0.13435E+05
 0.63199997E+02  0.13908E+05
 0.63249992E+02  0.13940E+05
 0.63299995E+02  0.13953E+05
 0.63349998E+02  0.13782E+05
 0.63399994E+02  0.13657E+05
 0.63449997E+02  0.13996E+05
 0.63499992E+02  0.13936E+05
 0.63549995E+02  0.14165E+05
 0.63599998E+02  0.14610E+05
 0.63649994E+02  0.14805E+05
 0.63699997E+02  0.14871E+05
 0.63749992E+02  0.14776E+05
 0.63799995E+02  0.14452E+05
 0.63849998E+02  0.14563E+05
 0.63899994E+02  0.14711E+05
 0.63949997E+02  0.13955E+05
 0.63999992E+02  0.14191E+05
 0.64049995E+02  0.14639E+05
 0.64099998E+02  0.14409E+05
 0.64149994E+02  0.14319E+05
 0.64199997E+02  0.14468E+05
 0.64249992E+02  0.14444E+05
 0.64299995E+02  0.14858E+05
 0.64349998E+02  0.15618E+05
 0.64399994E+02  0.15515E+05
 0.64449997E+02  0.15275E+05
 0.64499992E+02  0.15034E+05
 0.64549995E+02  0.14554E+05
 0.64599998E+02  0.14364E+05
 0.64649994E+02  0.14187E+05
 0.64699997E+02  0.13825E+05
 0.64749992E+02  0.13583E+05
 0.64799995E+02  0.13674E+05
 0.64849998E+02  0.14191E+05
 0.64899994E+02  0.14147E+05
 0.64949997E+02  0.13929E+05
 0.64999992E+02  0.13793E+05
 0.65049995E+02  0.13323E+05
 0.65099998E+02  0.13483E+05
 0.65149994E+02  0.13524E+05
 0.65199997E+02  0.13323E+05
 0.65249992E+02  0.13696E+05
 0.65299995E+02  0.13701E+05
 0.65349998E+02  0.13632E+05
 0.65399994E+02  0.13683E+05
 0.65449997E+02  0.13990E+05
 0.65499992E+02  0.13880E+05
 0.65549995E+02  0.13694E+05
 0.65599998E+02  0.14339E+05
 0.65649994E+02  0.14232E+05
 0.65699997E+02  0.13857E+05
 0.65749992E+02  0.14274E+05
 0.65799995E+02  0.14008E+05
 0.65849998E+02  0.13593E+05
 0.65899994E+02  0.13685E+05
 0.65949997E+02  0.13655E+05
 0.65999992E+02  0.14094E+05
 0.66049995E+02  0.14429E+05
 0.66099998E+02  0.14868E+05
 0.66149994E+02  0.15433E+05
 0.66199997E+02  0.15471E+05
 0.66249992E+02  0.15053E+05
 0.66299995E+02  0.14253E+05
 0.66349998E+02  0.13686E+05
 0.66399994E+02  0.13888E+05
 0.66449997E+02  0.13886E+05
 0.66499992E+02  0.13508E+05
 0.66549995E+02  0.13632E+05
 0.66599998E+02  0.13677E+05
 0.66649994E+02  0.13591E+05
 0.66699997E+02  0.14206E+05
 0.66749992E+02  0.14549E+05
 0.66799995E+02  0.14660E+05
 0.66849998E+02  0.14835E+05
 0.66899994E+02  0.14635E+05
 0.66949997E+02  0.14631E+05
 0.66999992E+02  0.13718E+05
 0.67049995E+02  0.13082E+05
 0.67099998E+02  0.13589E+05
 0.67149994E+02  0.13891E+05
 0.67199997E+02  0.14117E+05
 0.67249992E+02  0.14186E+05
 0.67299995E+02  0.14411E+05
 0.67349998E+02  0.14435E+05
 0.67399994E+02  0.14301E+05
 0.67449997E+02  0.14539E+05
 0.67499992E+02  0.14376E+05
 0.67549995E+02  0.14372E+05
 0.67599998E+02  0.14667E+05
 0.67649994E+02  0.14423E+05
 0.67699997E+02  0.14365E+05
 0.67749992E+02  0.14513E+05
 0.67799995E+02  0.14134E+05
 0.67849998E+02  0.14101E+05
 0.67899994E+02  0.14370E+05
 0.67949997E+02  0.14453E+05
 0.67999992E+02  0.14475E+05
 0.68049995E+02  0.13923E+05
 0.68099998E+02  0.13373E+05
 0.68149994E+02  0.13669E+05
 0.68199997E+02  0.14163E+05
 0.68249992E+02  0.14516E+05
 0.68299995E+02  0.14460E+05
 0.68349998E+02  0.14270E+05
 0.68399994E+02  0.14243E+05
 0.68449997E+02  0.14091E+05
 0.68499992E+02  0.13924E+05
 0.68549995E+02  0.13669E+05
 0.68599998E+02  0.13745E+05
 0.68649994E+02  0.14103E+05
 0.68699997E+02  0.14122E+05
 0.68749992E+02  0.14247E+05
 0.68799995E+02  0.14343E+05
 0.68849998E+02  0.14522E+05
 0.68899994E+02  0.14642E+05
 0.68949997E+02  0.14279E+05
 0.68999992E+02  0.14098E+05
 0.69049995E+02  0.13669E+05
 0.69099998E+02  0.13407E+05
 0.69149994E+02  0.13557E+05
 0.69199997E+02  0.13856E+05
 0.69249992E+02  0.13963E+05
 0.69299995E+02  0.14084E+05
 0.69349998E+02  0.14131E+05
 0.69399994E+02  0.14123E+05
 0.69449997E+02  0.14080E+05
 0.69499992E+02  0.14207E+05
 0.69549995E+02  0.14446E+05
 0.69599998E+02  0.14125E+05
 0.69649994E+02  0.13818E+05
 0.69699997E+02  0.13857E+05
 0.69749992E+02  0.14077E+05
 0.69799995E+02  0.14175E+05
 0.69849998E+02  0.14271E+05
 0.69899994E+02  0.14581E+05
 0.69949997E+02  0.14956E+05
 0.69999992E+02  0.14744E+05
 0.70049995E+02  0.14409E+05
 0.70099998E+02  0.13946E+05
 0.70149994E+02  0.13602E+05
 0.70199997E+02  0.13519E+05
 0.70249992E+02  0.13522E+05
 0.70299995E+02  0.13915E+05
 0.70349998E+02  0.13902E+05
 0.70399994E+02  0.13449E+05
 0.70449997E+02  0.13429E+05
 0.70499992E+02  0.13436E+05
 0.70549995E+02  0.13465E+05
 0.70599998E+02  0.13804E+05
 0.70649994E+02  0.14032E+05
 0.70699997E+02  0.14323E+05
 0.70749992E+02  0.14377E+05
 0.70799995E+02  0.14460E+05
 0.70849998E+02  0.14489E+05
 0.70899994E+02  0.14475E+05
 0.70949997E+02  0.14810E+05
 0.70999992E+02  0.14767E+05
 0.71049995E+02  0.14433E+05
 0.71099998E+02  0.14656E+05
 0.71149994E+02  0.15215E+05
 0.71199997E+02  0.15185E+05
 0.71249992E+02  0.15120E+05
 0.71299995E+02  0.15249E+05
 0.71349998E+02  0.15081E+05
 0.71399994E+02  0.14790E+05
 0.71449997E+02  0.14693E+05
 0.71499992E+02  0.14710E+05
 0.71549995E+02  0.14257E+05
 0.71599998E+02  0.13775E+05
 0.71649994E+02  0.13696E+05
 0.71699997E+02  0.13762E+05
 0.71749992E+02  0.13563E+05
 0.71799995E+02  0.13195E+05
 0.71849998E+02  0.13162E+05
 0.71899994E+02  0.13455E+05
 0.71949997E+02  0.13747E+05
 0.71999992E+02  0.13846E+05
 0.72049995E+02  0.13987E+05
 0.72099998E+02  0.14322E+05
 0.72149994E+02  0.14766E+05
 0.72199997E+02  0.14872E+05
 0.72249992E+02  0.14669E+05
 0.72299995E+02  0.14152E+05
 0.72349998E+02  0.13608E+05
 0.72399994E+02  0.13893E+05
 0.72449997E+02  0.14085E+05
 0.72499992E+02  0.14056E+05
 0.72549995E+02  0.13949E+05
 0.72599998E+02  0.13844E+05
 0.72649994E+02  0.13866E+05
 0.72699997E+02  0.13663E+05
 0.72749992E+02  0.13873E+05
 0.72799995E+02  0.14211E+05
 0.72849998E+02  0.14413E+05
 0.72899994E+02  0.14613E+05
 0.72949997E+02  0.14601E+05
 0.72999992E+02  0.14232E+05
 0.73049995E+02  0.13966E+05
 0.73099998E+02  0.13939E+05
 0.73149994E+02  0.13742E+05
 0.73199997E+02  0.13873E+05
 0.73249992E+02  0.14161E+05
 0.73299995E+02  0.14137E+05
 0.73349998E+02  0.14214E+05
 0.73399994E+02  0.14173E+05
 0.73449997E+02  0.13867E+05
 0.73499992E+02  0.13774E+05
 0.73549995E+02  0.13765E+05
 0.73599998E+02  0.13705E+05
 0.73649994E+02  0.13917E+05
 0.73699997E+02  0.13942E+05
 0.73749992E+02  0.14327E+05
 0.73799995E+02  0.14478E+05
 0.73849998E+02  0.14396E+05
 0.73899994E+02  0.14684E+05
 0.73949997E+02  0.14527E+05
 0.73999992E+02  0.14613E+05
 0.74049995E+02  0.14671E+05
 0.74099998E+02  0.14465E+05
 0.74149994E+02  0.14428E+05
 0.74199997E+02  0.14382E+05
 0.74249992E+02  0.14275E+05
 0.74299995E+02  0.14564E+05
 0.74349998E+02  0.14658E+05
 0.74399994E+02  0.14537E+05
 0.74449997E+02  0.14163E+05
 0.74499992E+02  0.13750E+05
 0.74549995E+02  0.13652E+05
 0.74599998E+02  0.13850E+05
 0.74649994E+02  0.14108E+05
 0.74699997E+02  0.13714E+05
 0.74749992E+02  0.13852E+05
 0.74799995E+02  0.14340E+05
 0.74849998E+02  0.14705E+05
 0.74899994E+02  0.14734E+05
 0.74949997E+02  0.14200E+05
 0.74999992E+02  0.13914E+05
 0.75049995E+02  0.14048E+05
 0.75099998E+02  0.13937E+05
 0.75149994E+02  0.14060E+05
 0.75199997E+02  0.14226E+05
 0.75249992E+02  0.13851E+05
 0.75299995E+02  0.13863E+05
 0.75349998E+02  0.13848E+05
 0.75399994E+02  0.13923E+05
 0.75449997E+02  0.14271E+05
 0.75499992E+02  0.14388E+05
 0.75549995E+02  0.14035E+05
 0.75599998E+02  0.13937E+05
 0.75649994E+02  0.14092E+05
 0.75699997E+02  0.14067E+05
 0.75749992E+02  0.14055E+05
 0.75799995E+02  0.13918E+05
 0.75849998E+02  0.14005E+05
 0.75899994E+02  0.13876E+05
 0.75949997E+02  0.13755E+05
 0.75999992E+02  0.14053E+05
 0.76049995E+02  0.14258E+05
 0.76099998E+02  0.14279E+05
 0.76149994E+02  0.14436E+05
 0.76199997E+02  0.14551E+05
 0.76249992E+02  0.14344E+05
 0.76299995E+02  0.14249E+05
 0.76349998E+02  0.14227E+05
 0.76399994E+02  0.14210E+05
 0.76449997E+02  0.14257E+05
 0.76499992E+02  0.14254E+05
 0.76549995E+02  0.14384E+05
 0.76599998E+02  0.14643E+05
 0.76649994E+02  0.14651E+05
 0.76699997E+02  0.14321E+05
 0.76749992E+02  0.13849E+05
 0.76799995E+02  0.13629E+05
 0.76849998E+02  0.13757E+05
 0.76899994E+02  0.13960E+05
 0.76949997E+02  0.14085E+05
 0.76999992E+02  0.14073E+05
 0.77049995E+02  0.14103E+05
 0.77099998E+02  0.14244E+05
 0.77149994E+02  0.14434E+05
 0.77199997E+02  0.14280E+05
 0.77249992E+02  0.14182E+05
 0.77299995E+02  0.14395E+05
 0.77349998E+02  0.14463E+05
 0.77399994E+02  0.13976E+05
 0.77449997E+02  0.13716E+05
 0.77499992E+02  0.13837E+05
 0.77549995E+02  0.13775E+05
 0.77599998E+02  0.14018E+05
 0.77649994E+02  0.14051E+05
 0.77699997E+02  0.13903E+05
 0.77749992E+02  0.14028E+05
 0.77799995E+02  0.14270E+05
 0.77849998E+02  0.14488E+05
 0.77899994E+02  0.14760E+05
 0.77949997E+02  0.14641E+05
 0.77999992E+02  0.14406E+05
 0.78049995E+02  0.14387E+05
 0.78099998E+02  0.14163E+05
 0.78149994E+02  0.14234E+05
 0.78199997E+02  0.14642E+05
 0.78249992E+02  0.14632E+05
 0.78299995E+02  0.14387E+05
 0.78349998E+02  0.14400E+05
 0.78399994E+02  0.14318E+05
 0.78449997E+02  0.14049E+05
 0.78499992E+02  0.13931E+05
 0.78549995E+02  0.13834E+05
 0.78599998E+02  0.13773E+05
 0.78649994E+02  0.13611E+05
 0.78699997E+02  0.13670E+05
 0.78749992E+02  0.13798E+05
 0.78799995E+02  0.13635E+05
 0.78849998E+02  0.13791E+05
 0.78899994E+02  0.14005E+05
 0.78949997E+02  0.14292E+05
 0.78999992E+02  0.14311E+05
 0.79049995E+02  0.14342E+05
 0.79099998E+02  0.14487E+05
 0.79149994E+02  0.14328E+05
 0.79199997E+02  0.14045E+05
 0.79249992E+02  0.13868E+05
 0.79299995E+02  0.13960E+05
 0.79349998E+02  0.13902E+05
 0.79399994E+02  0.13715E+05
 0.79449997E+02  0.13719E+05
 0.79499992E+02  0.13873E+05
 0.79549995E+02  0.13829E+05
 0.79599998E+02  0.14126E+05
 0.79649994E+02  0.14162E+05
 0.79699997E+02  0.14010E+05
 0.79749992E+02  0.14321E+05
 0.79799995E+02  0.14247E+05
 0.79849998E+02  0.14284E+05
 0.79899994E+02  0.14476E+05
 0.79949997E+02  0.14434E+05
 0.79999992E+02  0.14390E+05
 0.80049995E+02  0.14341E+05
 0.80099998E+02  0.14243E+05
 0.80149994E+02  0.14076E+05
 0.80199997E+02  0.14142E+05
 0.80249992E+02  0.14491E+05
 0.80299995E+02  0.14746E+05
 0.80349998E+02  0.14855E+05
 0.80399994E+02  0.14702E+05
 0.80449997E+02  0.14482E+05
 0.80499992E+02  0.14191E+05
 0.80549995E+02  0.14196E+05
 0.80599998E+02  0.14188E+05
 0.80649994E+02  0.13666E+05
 0.80699997E+02  0.13629E+05
 0.80749992E+02  0.13708E+05
 0.80799995E+02  0.13742E+05
 0.80849998E+02  0.13748E+05
 0.80899994E+02  0.13657E+05
 0.80949997E+02  0.14005E+05
 0.80999992E+02  0.14164E+05
 0.81049995E+02  0.13963E+05
 0.81099998E+02  0.13823E+05
 0.81149994E+02  0.13934E+05
 0.81199997E+02  0.13944E+05
 0.81249992E+02  0.13678E+05
 0.81299995E+02  0.13871E+05
 0.81349998E+02  0.14262E+05
 0.81399994E+02  0.14444E+05
 0.81449997E+02  0.14521E+05
 0.81499992E+02  0.14532E+05
 0.81549995E+02  0.14239E+05
 0.81599998E+02  0.13902E+05
 0.81649994E+02  0.14081E+05
 0.81699997E+02  0.14287E+05
 0.81749992E+02  0.14405E+05
 0.81799995E+02  0.14568E+05
 0.81849998E+02  0.14507E+05
 0.81899994E+02  0.14468E+05
 0.81949997E+02  0.14516E+05
 0.81999992E+02  0.14531E+05
 0.82049995E+02  0.14498E+05
 0.82099998E+02  0.14485E+05
 0.82149994E+02  0.14479E+05
 0.82199997E+02  0.14358E+05
 0.82249992E+02  0.14384E+05
 0.82299995E+02  0.14314E+05
 0.82349998E+02  0.14264E+05
 0.82399994E+02  0.14268E+05
 0.82449997E+02  0.14246E+05
 0.82499992E+02  0.14251E+05
 0.82549995E+02  0.14060E+05
 0.82599998E+02  0.13953E+05
 0.82649994E+02  0.14087E+05
 0.82699997E+02  0.14093E+05
 0.82749992E+02  0.13785E+05
 0.82799995E+02  0.13774E+05
 0.82849998E+02  0.13779E+05
 0.82899994E+02  0.13709E+05
 0.82949997E+02  0.13826E+05
 0.82999992E+02  0.13756E+05
 0.83049995E+02  0.13827E+05
 0.83099998E+02  0.13851E+05
 0.83149994E+02  0.13804E+05
 0.83199997E+02  0.13922E+05
 0.83249992E+02  0.13994E+05
 0.83299995E+02  0.14192E+05
 0.83349998E+02  0.14378E+05
 0.83399994E+02  0.14561E+05
 0.83449997E+02  0.14584E+05
 0.83499992E+02  0.14429E+05
 0.83549995E+02  0.14445E+05
 0.83599998E+02  0.14584E+05
 0.83649994E+02  0.14464E+05
 0.83699997E+02  0.14020E+05
 0.83749992E+02  0.13749E+05
 0.83799995E+02  0.13578E+05
 0.83849998E+02  0.13709E+05
 0.83899994E+02  0.14121E+05
 0.83949997E+02  0.14414E+05
 0.83999992E+02  0.14557E+05
 0.84049995E+02  0.14527E+05
 0.84099998E+02  0.14460E+05
 0.84149994E+02  0.14329E+05
 0.84199997E+02  0.14144E+05
 0.84249992E+02  0.14149E+05
 0.84299995E+02  0.14266E+05
 0.84349998E+02  0.14025E+05
 0.84399994E+02  0.13778E+05
 0.84449997E+02  0.14015E+05
 0.84499992E+02  0.14270E+05
 0.84549995E+02  0.14427E+05
 0.84599998E+02  0.14610E+05
 0.84649994E+02  0.14452E+05
 0.84699997E+02  0.14160E+05
 0.84749992E+02  0.14141E+05
 0.84799995E+02  0.14254E+05
 0.84849998E+02  0.14209E+05
 0.84899994E+02  0.14144E+05
 0.84949997E+02  0.14299E+05
 0.84999992E+02  0.14211E+05
 0.85049995E+02  0.14043E+05
 0.85099998E+02  0.14110E+05
 0.85149994E+02  0.14228E+05
 0.85199997E+02  0.14361E+05
 0.85249992E+02  0.14263E+05
 0.85299995E+02  0.13929E+05
 0.85349998E+02  0.13790E+05
 0.85399994E+02  0.13626E+05
 0.85449997E+02  0.13476E+05
 0.85499992E+02  0.13699E+05
 0.85549995E+02  0.14045E+05
 0.85599998E+02  0.14471E+05
 0.85649994E+02  0.14656E+05
 0.85699997E+02  0.14522E+05
 0.85749992E+02  0.14359E+05
 0.85799995E+02  0.14344E+05
 0.85849998E+02  0.14425E+05
 0.85899994E+02  0.14449E+05
 0.85949997E+02  0.14294E+05
 0.85999992E+02  0.14109E+05
 0.86049995E+02  0.14046E+05
 0.86099998E+02  0.14085E+05
 0.86149994E+02  0.14217E+05
 0.86199997E+02  0.14107E+05
 0.86249992E+02  0.13781E+05
 0.86299995E+02  0.13499E+05
 0.86349998E+02  0.13495E+05
 0.86399994E+02  0.13842E+05
 0.86449997E+02  0.14150E+05
 0.86499992E+02  0.14286E+05
 0.86549995E+02  0.14310E+05
 0.86599998E+02  0.14342E+05
 0.86649994E+02  0.14349E+05
 0.86699997E+02  0.14192E+05
 0.86749992E+02  0.14027E+05
 0.86799995E+02  0.13978E+05
 0.86849998E+02  0.13916E+05
 0.86899994E+02  0.13935E+05
 0.86949997E+02  0.14071E+05
 0.86999992E+02  0.14346E+05
 0.87049995E+02  0.14459E+05
 0.87099998E+02  0.14157E+05
 0.87149994E+02  0.14002E+05
 0.87199997E+02  0.14048E+05
 0.87249992E+02  0.14089E+05
 0.87299995E+02  0.14000E+05
 0.87349998E+02  0.14098E+05
 0.87399994E+02  0.14275E+05
 0.87449997E+02  0.14299E+05
 0.87499992E+02  0.14335E+05
 0.87549995E+02  0.14352E+05
 0.87599991E+02  0.14374E+05
 0.87649994E+02  0.14300E+05
 0.87699997E+02  0.14213E+05
 0.87749992E+02  0.14269E+05
 0.87799995E+02  0.14199E+05
 0.87849991E+02  0.14061E+05
 0.87899994E+02  0.13959E+05
 0.87949997E+02  0.13859E+05
 0.87999992E+02  0.14087E+05
 0.88049995E+02  0.14369E+05
 0.88099991E+02  0.14381E+05
 0.88149994E+02  0.14338E+05
 0.88199997E+02  0.14420E+05
 0.88249992E+02  0.14552E+05
 0.88299995E+02  0.14398E+05
 0.88349991E+02  0.14080E+05
 0.88399994E+02  0.13984E+05
 0.88449997E+02  0.14088E+05
 0.88499992E+02  0.14093E+05
 0.88549995E+02  0.13956E+05
 0.88599991E+02  0.13830E+05
 0.88649994E+02  0.13853E+05
 0.88699997E+02  0.13860E+05
 0.88749992E+02  0.13744E+05
 0.88799995E+02  0.13831E+05
 0.88849991E+02  0.14024E+05
 0.88899994E+02  0.14235E+05
 0.88949997E+02  0.14377E+05
 0.88999992E+02  0.14431E+05
 0.89049995E+02  0.14631E+05
 0.89099991E+02  0.14776E+05
 0.89149994E+02  0.14737E+05
 0.89199997E+02  0.14492E+05
 0.89249992E+02  0.14173E+05
 0.89299995E+02  0.13986E+05
 0.89349991E+02  0.13832E+05
 0.89399994E+02  0.13785E+05
 0.89449997E+02  0.13805E+05
 0.89499992E+02  0.13888E+05
 0.89549995E+02  0.13873E+05
 0.89599991E+02  0.13633E+05
 0.89649994E+02  0.13727E+05
 0.89699997E+02  0.13982E+05
 0.89749992E+02  0.13985E+05
 0.89799995E+02  0.13999E+05
 0.89849991E+02  0.13967E+05
 0.89899994E+02  0.14009E+05
 0.89949997E+02  0.14156E+05
 0.89999992E+02  0.14101E+05
 0.90049995E+02  0.14086E+05
 0.90099991E+02  0.14025E+05
 0.90149994E+02  0.14044E+05
 0.90199997E+02  0.14273E+05
 0.90249992E+02  0.14298E+05
 0.90299995E+02  0.14266E+05
 0.90349991E+02  0.14332E+05
 0.90399994E+02  0.14363E+05
 0.90449997E+02  0.14354E+05
 0.90499992E+02  0.14337E+05
 0.90549995E+02  0.14240E+05
 0.90599991E+02  0.14181E+05
 0.90649994E+02  0.14212E+05
 0.90699997E+02  0.14332E+05
 0.90749992E+02  0.14305E+05
 0.90799995E+02  0.14161E+05
 0.90849991E+02  0.14205E+05
 0.90899994E+02  0.14186E+05
 0.90949997E+02  0.14118E+05
 0.90999992E+02  0.14219E+05
 0.91049995E+02  0.14275E+05
 0.91099991E+02  0.14195E+05
 0.91149994E+02  0.14122E+05
 0.91199997E+02  0.14116E+05
 0.91249992E+02  0.14085E+05
 0.91299995E+02  0.14112E+05
 0.91349991E+02  0.14256E+05
 0.91399994E+02  0.14289E+05
 0.91449997E+02  0.14344E+05
 0.91499992E+02  0.14438E+05
 0.91549995E+02  0.14434E+05
 0.91599991E+02  0.14331E+05
 0.91649994E+02  0.14184E+05
 0.91699997E+02  0.14069E+05
 0.91749992E+02  0.14024E+05
 0.91799995E+02  0.14160E+05
 0.91849991E+02  0.14264E+05
 0.91899994E+02  0.14291E+05
 0.91949997E+02  0.14268E+05
 0.91999992E+02  0.14198E+05
 0.92049995E+02  0.14135E+05
 0.92099991E+02  0.14139E+05
 0.92149994E+02  0.14112E+05
 0.92199997E+02  0.14001E+05
 0.92249992E+02  0.14040E+05
 0.92299995E+02  0.14105E+05
 0.92349991E+02  0.14167E+05
 0.92399994E+02  0.14163E+05
 0.92449997E+02  0.14096E+05
 0.92499992E+02  0.14149E+05
 0.92549995E+02  0.14162E+05
 0.92599991E+02  0.14144E+05
 0.92649994E+02  0.14071E+05
 0.92699997E+02  0.13909E+05
 0.92749992E+02  0.13960E+05
 0.92799995E+02  0.14210E+05
 0.92849991E+02  0.14426E+05
 0.92899994E+02  0.14587E+05
 0.92949997E+02  0.14635E+05
 0.92999992E+02  0.14579E+05
 0.93049995E+02  0.14439E+05
 0.93099991E+02  0.14283E+05
 0.93149994E+02  0.14158E+05
 0.93199997E+02  0.13961E+05
 0.93249992E+02  0.13807E+05
 0.93299995E+02  0.13846E+05
 0.93349991E+02  0.14009E+05
 0.93399994E+02  0.14136E+05
 0.93449997E+02  0.14249E+05
 0.93499992E+02  0.14239E+05
 0.93549995E+02  0.14095E+05
 0.93599991E+02  0.14100E+05
 0.93649994E+02  0.14119E+05
 0.93699997E+02  0.14083E+05
 0.93749992E+02  0.14104E+05
 0.93799995E+02  0.14133E+05
 0.93849991E+02  0.14150E+05
 0.93899994E+02  0.14172E+05
 0.93949997E+02  0.14163E+05
 0.93999992E+02  0.14001E+05
 0.94049995E+02  0.13945E+05
 0.94099991E+02  0.14009E+05
 0.94149994E+02  0.13945E+05
 0.94199997E+02  0.14013E+05
 0.94249992E+02  0.14189E+05
 0.94299995E+02  0.14208E+05
 0.94349991E+02  0.14189E+05
 0.94399994E+02  0.14220E+05
 0.94449997E+02  0.14226E+05
 0.94499992E+02  0.14165E+05
 0.94549995E+02  0.14211E+05
 0.94599991E+02  0.14278E+05
 0.94649994E+02  0.14315E+05
 0.94699997E+02  0.14373E+05
 0.94749992E+02  0.14400E+05
 0.94799995E+02  0.14358E+05
 0.94849991E+02  0.14240E+05
 0.94899994E+02  0.14186E+05
 0.94949997E+02  0.14223E+05
 0.94999992E+02  0.14214E+05
 0.95049995E+02  0.14080E+05
 0.95099991E+02  0.13984E+05
 0.95149994E+02  0.13980E+05
 0.95199997E+02  0.14044E+05
 0.95249992E+02  0.14082E+05
 0.95299995E+02  0.14088E+05
 0.95349991E+02  0.14173E+05
 0.95399994E+02  0.14344E+05
 0.95449997E+02  0.14454E+05
 0.95499992E+02  0.14303E+05
 0.95549995E+02  0.14170E+05
 0.95599991E+02  0.14157E+05
 0.95649994E+02  0.14186E+05
 0.95699997E+02  0.14190E+05
 0.95749992E+02  0.14196E+05
 0.95799995E+02  0.14267E+05
 0.95849991E+02  0.14175E+05
 0.95899994E+02  0.14007E+05
 0.95949997E+02  0.13846E+05
 0.95999992E+02  0.13727E+05
 0.96049995E+02  0.13670E+05
 0.96099991E+02  0.13632E+05
 0.96149994E+02  0.13661E+05
 0.96199997E+02  0.13715E+05
 0.96249992E+02  0.13710E+05
 0.96299995E+02  0.13760E+05
 0.96349991E+02  0.13869E+05
 0.96399994E+02  0.13934E+05
 0.96449997E+02  0.14016E+05
 0.96499992E+02  0.14055E+05
 0.96549995E+02  0.14017E+05
 0.96599991E+02  0.14004E+05
 0.96649994E+02  0.14060E+05
 0.96699997E+02  0.14171E+05
 0.96749992E+02  0.14290E+05
 0.96799995E+02  0.14333E+05
 0.96849991E+02  0.14366E+05
 0.96899994E+02  0.14404E+05
 0.96949997E+02  0.14486E+05
 0.96999992E+02  0.14586E+05
 0.97049995E+02  0.14579E+05
 0.97099991E+02  0.14612E+05
 0.97149994E+02  0.14572E+05
 0.97199997E+02  0.14535E+05
 0.97249992E+02  0.14555E+05
 0.97299995E+02  0.14518E+05
 0.97349991E+02  0.14431E+05
 0.97399994E+02  0.14411E+05
 0.97449997E+02  0.14344E+05
 0.97499992E+02  0.14220E+05
 0.97549995E+02  0.14233E+05
 0.97599991E+02  0.14234E+05
 0.97649994E+02  0.14124E+05
 0.97699997E+02  0.13939E+05
 0.97749992E+02  0.13830E+05
 0.97799995E+02  0.13827E+05
 0.97849991E+02  0.13866E+05
 0.97899994E+02  0.13839E+05
 0.97949997E+02  0.13961E+05
 0.97999992E+02  0.14172E+05
