-0.20000000E+01  0.14057E+04
-0.19500000E+01  0.18415E+04
-0.19000000E+01  0.20724E+04
-0.18500000E+01  0.30554E+04
-0.18000000E+01  0.43605E+04
-0.17500000E+01  0.59759E+04
-0.17000000E+01  0.84144E+04
-0.16500001E+01  0.11632E+05
-0.16000000E+01  0.15112E+05
-0.15500000E+01  0.19192E+05
-0.15000000E+01  0.24051E+05
-0.14500000E+01  0.29058E+05
-0.14000001E+01  0.34268E+05
-0.13500000E+01  0.39289E+05
-0.13000001E+01  0.44260E+05
-0.12500000E+01  0.49163E+05
-0.12000000E+01  0.53710E+05
-0.11500001E+01  0.58079E+05
-0.11000000E+01  0.61752E+05
-0.10500001E+01  0.64282E+05
-0.10000000E+01  0.65693E+05
-0.95000005E+00  0.65913E+05
-0.90000010E+00  0.64904E+05
-0.85000002E+00  0.63346E+05
-0.80000007E+00  0.60961E+05
-0.75000012E+00  0.57940E+05
-0.70000005E+00  0.54364E+05
-0.65000010E+00  0.50660E+05
-0.60000014E+00  0.46795E+05
-0.55000007E+00  0.42162E+05
-0.50000012E+00  0.37372E+05
-0.45000005E+00  0.31899E+05
-0.40000010E+00  0.25812E+05
-0.35000014E+00  0.19330E+05
-0.30000007E+00  0.11983E+05
-0.25000012E+00  0.42114E+04
-0.20000005E+00 -0.39034E+04
-0.15000010E+00 -0.12294E+05
-0.10000014E+00 -0.20508E+05
-0.50000072E-01 -0.28232E+05
-0.11920929E-06 -0.35731E+05
 0.49999952E-01 -0.42850E+05
 0.99999905E-01 -0.49025E+05
 0.14999986E+00 -0.54120E+05
 0.19999981E+00 -0.58113E+05
 0.24999976E+00 -0.61225E+05
 0.29999995E+00 -0.63629E+05
 0.34999990E+00 -0.65323E+05
 0.39999986E+00 -0.65529E+05
 0.44999981E+00 -0.64593E+05
 0.49999976E+00 -0.62990E+05
 0.54999995E+00 -0.60582E+05
 0.59999990E+00 -0.57759E+05
 0.64999986E+00 -0.54641E+05
 0.69999981E+00 -0.50691E+05
 0.74999976E+00 -0.46238E+05
 0.79999971E+00 -0.41736E+05
 0.84999990E+00 -0.36964E+05
 0.89999986E+00 -0.32225E+05
 0.94999981E+00 -0.28109E+05
 0.99999976E+00 -0.24230E+05
 0.10499997E+01 -0.20508E+05
 0.10999999E+01 -0.17670E+05
 0.11499999E+01 -0.15670E+05
 0.11999998E+01 -0.14779E+05
 0.12499998E+01 -0.14485E+05
 0.12999997E+01 -0.14520E+05
 0.13499999E+01 -0.15124E+05
 0.13999999E+01 -0.15932E+05
 0.14499998E+01 -0.17433E+05
 0.14999998E+01 -0.19580E+05
 0.15499997E+01 -0.22254E+05
 0.15999999E+01 -0.25357E+05
 0.16499999E+01 -0.28203E+05
 0.16999998E+01 -0.30599E+05
 0.17499998E+01 -0.32670E+05
 0.17999997E+01 -0.34733E+05
 0.18499997E+01 -0.36334E+05
 0.18999999E+01 -0.37855E+05
 0.19499998E+01 -0.39651E+05
 0.19999998E+01 -0.41200E+05
 0.20499997E+01 -0.42798E+05
 0.20999999E+01 -0.44583E+05
 0.21499996E+01 -0.46190E+05
 0.21999998E+01 -0.47862E+05
 0.22499995E+01 -0.49348E+05
 0.22999997E+01 -0.50094E+05
 0.23499999E+01 -0.50003E+05
 0.23999996E+01 -0.49119E+05
 0.24499998E+01 -0.47837E+05
 0.24999995E+01 -0.45932E+05
 0.25499997E+01 -0.43879E+05
 0.25999999E+01 -0.41938E+05
 0.26499996E+01 -0.39836E+05
 0.26999998E+01 -0.37839E+05
 0.27499995E+01 -0.36168E+05
 0.27999997E+01 -0.34667E+05
 0.28499999E+01 -0.33382E+05
 0.28999996E+01 -0.32719E+05
 0.29499998E+01 -0.32488E+05
 0.29999995E+01 -0.33594E+05
 0.30499997E+01 -0.36509E+05
 0.30999999E+01 -0.40333E+05
 0.31499996E+01 -0.44829E+05
 0.31999998E+01 -0.49886E+05
 0.32499995E+01 -0.55228E+05
 0.32999997E+01 -0.60475E+05
 0.33499999E+01 -0.65317E+05
 0.33999996E+01 -0.69832E+05
 0.34499998E+01 -0.73653E+05
 0.34999995E+01 -0.76679E+05
 0.35499997E+01 -0.78212E+05
 0.35999994E+01 -0.78112E+05
 0.36499996E+01 -0.76759E+05
 0.36999998E+01 -0.73184E+05
 0.37499995E+01 -0.67813E+05
 0.37999997E+01 -0.60579E+05
 0.38499994E+01 -0.51263E+05
 0.38999996E+01 -0.40251E+05
 0.39499998E+01 -0.27875E+05
 0.39999995E+01 -0.14501E+05
 0.40499997E+01  0.12994E+03
 0.40999994E+01  0.15822E+05
 0.41499996E+01  0.32145E+05
 0.41999998E+01  0.48145E+05
 0.42499995E+01  0.63639E+05
 0.42999997E+01  0.78619E+05
 0.43499994E+01  0.92349E+05
 0.43999996E+01  0.10489E+06
 0.44499998E+01  0.11580E+06
 0.44999995E+01  0.12436E+06
 0.45499997E+01  0.13110E+06
 0.45999994E+01  0.13564E+06
 0.46499996E+01  0.13797E+06
 0.46999998E+01  0.13838E+06
 0.47499995E+01  0.13656E+06
 0.47999997E+01  0.13269E+06
 0.48499994E+01  0.12647E+06
 0.48999996E+01  0.11785E+06
 0.49499998E+01  0.10740E+06
 0.49999995E+01  0.95850E+05
 0.50499997E+01  0.83420E+05
 0.50999994E+01  0.70735E+05
 0.51499996E+01  0.58151E+05
 0.51999998E+01  0.46092E+05
 0.52499995E+01  0.34859E+05
 0.52999997E+01  0.24390E+05
 0.53499994E+01  0.14914E+05
 0.53999996E+01  0.67330E+04
 0.54499993E+01  0.48606E+03
 0.54999995E+01 -0.38289E+04
 0.55499997E+01 -0.62049E+04
 0.55999994E+01 -0.66867E+04
 0.56499996E+01 -0.53579E+04
 0.56999993E+01 -0.19107E+04
 0.57499995E+01  0.33703E+04
 0.57999997E+01  0.95171E+04
 0.58499994E+01  0.16026E+05
 0.58999996E+01  0.23259E+05
 0.59499993E+01  0.31380E+05
 0.59999995E+01  0.40198E+05
 0.60499992E+01  0.49836E+05
 0.60999994E+01  0.60216E+05
 0.61499996E+01  0.71056E+05
 0.61999998E+01  0.81855E+05
 0.62499990E+01  0.91952E+05
 0.62999992E+01  0.10121E+06
 0.63499994E+01  0.11010E+06
 0.63999996E+01  0.11826E+06
 0.64499998E+01  0.12518E+06
 0.64999990E+01  0.13079E+06
 0.65499992E+01  0.13502E+06
 0.65999994E+01  0.13750E+06
 0.66499996E+01  0.13764E+06
 0.66999998E+01  0.13558E+06
 0.67499990E+01  0.13156E+06
 0.67999992E+01  0.12573E+06
 0.68499994E+01  0.11835E+06
 0.68999996E+01  0.10942E+06
 0.69499998E+01  0.99448E+05
 0.69999990E+01  0.88769E+05
 0.70499992E+01  0.77548E+05
 0.70999994E+01  0.65777E+05
 0.71499996E+01  0.53377E+05
 0.71999998E+01  0.40452E+05
 0.72499990E+01  0.27075E+05
 0.72999992E+01  0.13625E+05
 0.73499994E+01  0.35265E+03
 0.73999996E+01 -0.12897E+05
 0.74499998E+01 -0.26078E+05
 0.74999990E+01 -0.38904E+05
 0.75499992E+01 -0.51150E+05
 0.75999994E+01 -0.62409E+05
 0.76499996E+01 -0.73115E+05
 0.76999998E+01 -0.83159E+05
 0.77499990E+01 -0.92504E+05
 0.77999992E+01 -0.10074E+06
 0.78499994E+01 -0.10773E+06
 0.78999996E+01 -0.11361E+06
 0.79499998E+01 -0.11838E+06
 0.79999990E+01 -0.12211E+06
 0.80499992E+01 -0.12489E+06
 0.80999994E+01 -0.12724E+06
 0.81499996E+01 -0.12891E+06
 0.81999998E+01 -0.12981E+06
 0.82499990E+01 -0.12968E+06
 0.82999992E+01 -0.12815E+06
 0.83499994E+01 -0.12550E+06
 0.83999996E+01 -0.12214E+06
 0.84499998E+01 -0.11786E+06
 0.84999990E+01 -0.11292E+06
 0.85499992E+01 -0.10787E+06
 0.85999994E+01 -0.10285E+06
 0.86499996E+01 -0.98043E+05
 0.86999998E+01 -0.93287E+05
 0.87499990E+01 -0.88725E+05
 0.87999992E+01 -0.84442E+05
 0.88499994E+01 -0.80584E+05
 0.88999996E+01 -0.77265E+05
 0.89499998E+01 -0.74446E+05
 0.89999990E+01 -0.72097E+05
 0.90499992E+01 -0.70085E+05
 0.90999994E+01 -0.68388E+05
 0.91499996E+01 -0.67068E+05
 0.91999989E+01 -0.66290E+05
 0.92499990E+01 -0.66068E+05
 0.92999992E+01 -0.66255E+05
 0.93499994E+01 -0.66588E+05
 0.93999996E+01 -0.66731E+05
 0.94499989E+01 -0.66683E+05
 0.94999990E+01 -0.66386E+05
 0.95499992E+01 -0.65810E+05
 0.95999994E+01 -0.64522E+05
 0.96499996E+01 -0.62241E+05
 0.96999989E+01 -0.59298E+05
 0.97499990E+01 -0.55551E+05
 0.97999992E+01 -0.51354E+05
 0.98499994E+01 -0.47131E+05
 0.98999996E+01 -0.42722E+05
 0.99499989E+01 -0.37649E+05
 0.99999990E+01 -0.32885E+05
 0.10049999E+02 -0.28877E+05
 0.10099999E+02 -0.25377E+05
 0.10150000E+02 -0.22528E+05
 0.10199999E+02 -0.20148E+05
 0.10249999E+02 -0.18319E+05
 0.10299999E+02 -0.17126E+05
 0.10349999E+02 -0.16210E+05
 0.10400000E+02 -0.15385E+05
 0.10449999E+02 -0.14914E+05
 0.10499999E+02 -0.14687E+05
 0.10549999E+02 -0.14229E+05
 0.10599999E+02 -0.13376E+05
 0.10650000E+02 -0.12005E+05
 0.10699999E+02 -0.96764E+04
 0.10749999E+02 -0.68413E+04
 0.10799999E+02 -0.33144E+04
 0.10849999E+02  0.66200E+03
 0.10900000E+02  0.48229E+04
 0.10949999E+02  0.92717E+04
 0.10999999E+02  0.13613E+05
 0.11049999E+02  0.18237E+05
 0.11099999E+02  0.23408E+05
 0.11150000E+02  0.29260E+05
 0.11199999E+02  0.35449E+05
 0.11249999E+02  0.41262E+05
 0.11299999E+02  0.46539E+05
 0.11349999E+02  0.51550E+05
 0.11400000E+02  0.56065E+05
 0.11449999E+02  0.59872E+05
 0.11499999E+02  0.63481E+05
 0.11549999E+02  0.66756E+05
 0.11599999E+02  0.69110E+05
 0.11650000E+02  0.70745E+05
 0.11699999E+02  0.71379E+05
 0.11749999E+02  0.70421E+05
 0.11799999E+02  0.68054E+05
 0.11849999E+02  0.64621E+05
 0.11900000E+02  0.60854E+05
 0.11949999E+02  0.56222E+05
 0.11999999E+02  0.50759E+05
 0.12049999E+02  0.45402E+05
 0.12099999E+02  0.40147E+05
 0.12150000E+02  0.35213E+05
 0.12199999E+02  0.30651E+05
 0.12249999E+02  0.26601E+05
 0.12299999E+02  0.22814E+05
 0.12349999E+02  0.19626E+05
 0.12400000E+02  0.17264E+05
 0.12449999E+02  0.15512E+05
 0.12499999E+02  0.14618E+05
 0.12549999E+02  0.14318E+05
 0.12599999E+02  0.14508E+05
 0.12649999E+02  0.16115E+05
 0.12699999E+02  0.18325E+05
 0.12749999E+02  0.20564E+05
 0.12799999E+02  0.23458E+05
 0.12849999E+02  0.26759E+05
 0.12899999E+02  0.30380E+05
 0.12949999E+02  0.34017E+05
 0.12999999E+02  0.37983E+05
 0.13049999E+02  0.42365E+05
 0.13099999E+02  0.47353E+05
 0.13149999E+02  0.52697E+05
 0.13199999E+02  0.58446E+05
 0.13249999E+02  0.64352E+05
 0.13299999E+02  0.70736E+05
 0.13349999E+02  0.77188E+05
 0.13399999E+02  0.82922E+05
 0.13449999E+02  0.88182E+05
 0.13499999E+02  0.92382E+05
 0.13549999E+02  0.95957E+05
 0.13599999E+02  0.99118E+05
 0.13649999E+02  0.10139E+06
 0.13699999E+02  0.10300E+06
 0.13749999E+02  0.10393E+06
 0.13799999E+02  0.10378E+06
 0.13849999E+02  0.10299E+06
 0.13899999E+02  0.10126E+06
 0.13949999E+02  0.98568E+05
 0.13999999E+02  0.95094E+05
 0.14049999E+02  0.90676E+05
 0.14099998E+02  0.85308E+05
 0.14150000E+02  0.78658E+05
 0.14199999E+02  0.71021E+05
 0.14249998E+02  0.62431E+05
 0.14299999E+02  0.52743E+05
 0.14349998E+02  0.42877E+05
 0.14400000E+02  0.32774E+05
 0.14449999E+02  0.22794E+05
 0.14499998E+02  0.12828E+05
 0.14549999E+02  0.24326E+04
 0.14599998E+02 -0.80024E+04
 0.14650000E+02 -0.18123E+05
 0.14699999E+02 -0.27405E+05
 0.14749998E+02 -0.36232E+05
 0.14799999E+02 -0.43991E+05
 0.14849998E+02 -0.50826E+05
 0.14900000E+02 -0.56955E+05
 0.14949999E+02 -0.61687E+05
 0.14999998E+02 -0.65558E+05
 0.15049999E+02 -0.68503E+05
 0.15099998E+02 -0.70258E+05
 0.15150000E+02 -0.70936E+05
 0.15199999E+02 -0.70746E+05
 0.15249998E+02 -0.69999E+05
 0.15299999E+02 -0.68117E+05
 0.15349998E+02 -0.65906E+05
 0.15400000E+02 -0.63859E+05
 0.15449999E+02 -0.61999E+05
 0.15499998E+02 -0.60738E+05
 0.15549999E+02 -0.59347E+05
 0.15599998E+02 -0.58695E+05
 0.15650000E+02 -0.58476E+05
 0.15699999E+02 -0.57969E+05
 0.15749998E+02 -0.57618E+05
 0.15799999E+02 -0.57420E+05
 0.15849998E+02 -0.57107E+05
 0.15900000E+02 -0.56249E+05
 0.15949999E+02 -0.55595E+05
 0.15999998E+02 -0.54803E+05
 0.16049999E+02 -0.53598E+05
 0.16099998E+02 -0.51843E+05
 0.16150000E+02 -0.49328E+05
 0.16199999E+02 -0.46906E+05
 0.16249998E+02 -0.44448E+05
 0.16299999E+02 -0.41283E+05
 0.16349998E+02 -0.37546E+05
 0.16400000E+02 -0.33092E+05
 0.16449999E+02 -0.28182E+05
 0.16499998E+02 -0.23051E+05
 0.16549999E+02 -0.17122E+05
 0.16599998E+02 -0.10881E+05
 0.16650000E+02 -0.41542E+04
 0.16699999E+02  0.28076E+04
 0.16749998E+02  0.10055E+05
 0.16799999E+02  0.17932E+05
 0.16849998E+02  0.26046E+05
 0.16900000E+02  0.33966E+05
 0.16949999E+02  0.41004E+05
 0.16999998E+02  0.46972E+05
 0.17049999E+02  0.51609E+05
 0.17099998E+02  0.55132E+05
 0.17150000E+02  0.57560E+05
 0.17199999E+02  0.58743E+05
 0.17249998E+02  0.58772E+05
 0.17299999E+02  0.57676E+05
 0.17349998E+02  0.55252E+05
 0.17400000E+02  0.50966E+05
 0.17449999E+02  0.45160E+05
 0.17499998E+02  0.37958E+05
 0.17549999E+02  0.29340E+05
 0.17599998E+02  0.20244E+05
 0.17650000E+02  0.10846E+05
 0.17699999E+02  0.97131E+03
 0.17749998E+02 -0.90869E+04
 0.17799999E+02 -0.19188E+05
 0.17849998E+02 -0.29584E+05
 0.17900000E+02 -0.40167E+05
 0.17949999E+02 -0.50831E+05
 0.17999998E+02 -0.60983E+05
 0.18049999E+02 -0.70277E+05
 0.18099998E+02 -0.78947E+05
 0.18150000E+02 -0.86902E+05
 0.18199999E+02 -0.94022E+05
 0.18249998E+02 -0.10015E+06
 0.18299999E+02 -0.10552E+06
 0.18349998E+02 -0.10965E+06
 0.18400000E+02 -0.11256E+06
 0.18449999E+02 -0.11385E+06
 0.18499998E+02 -0.11313E+06
 0.18549999E+02 -0.11095E+06
 0.18599998E+02 -0.10693E+06
 0.18650000E+02 -0.10129E+06
 0.18699999E+02 -0.94740E+05
 0.18749998E+02 -0.87630E+05
 0.18799999E+02 -0.79946E+05
 0.18849998E+02 -0.71844E+05
 0.18900000E+02 -0.63613E+05
 0.18949999E+02 -0.55004E+05
 0.18999998E+02 -0.46189E+05
 0.19049999E+02 -0.37545E+05
 0.19099998E+02 -0.29319E+05
 0.19150000E+02 -0.21796E+05
 0.19199999E+02 -0.14823E+05
 0.19249998E+02 -0.87914E+04
 0.19299999E+02 -0.35401E+04
 0.19349998E+02  0.14164E+04
 0.19400000E+02  0.58134E+04
 0.19449999E+02  0.94567E+04
 0.19499998E+02  0.11922E+05
 0.19549999E+02  0.13714E+05
 0.19599998E+02  0.15170E+05
 0.19650000E+02  0.16163E+05
 0.19699999E+02  0.17160E+05
 0.19749998E+02  0.18023E+05
 0.19799999E+02  0.18447E+05
 0.19849998E+02  0.18782E+05
 0.19900000E+02  0.18966E+05
 0.19949999E+02  0.19362E+05
 0.19999998E+02  0.20064E+05
 0.20049999E+02  0.20973E+05
 0.20099998E+02  0.22339E+05
 0.20150000E+02  0.23818E+05
 0.20199999E+02  0.25387E+05
 0.20249998E+02  0.26866E+05
 0.20299999E+02  0.28141E+05
 0.20349998E+02  0.29238E+05
 0.20399998E+02  0.30428E+05
 0.20449999E+02  0.31514E+05
 0.20499998E+02  0.32595E+05
 0.20549999E+02  0.33733E+05
 0.20599998E+02  0.34861E+05
 0.20649998E+02  0.36071E+05
 0.20699999E+02  0.37164E+05
 0.20749998E+02  0.38242E+05
 0.20799999E+02  0.39332E+05
 0.20849998E+02  0.39961E+05
 0.20899998E+02  0.40095E+05
 0.20949999E+02  0.40327E+05
 0.20999998E+02  0.40138E+05
 0.21049999E+02  0.39604E+05
 0.21099998E+02  0.39009E+05
 0.21149998E+02  0.38122E+05
 0.21199999E+02  0.37202E+05
 0.21249998E+02  0.36037E+05
 0.21299999E+02  0.34419E+05
 0.21349998E+02  0.31766E+05
 0.21399998E+02  0.29656E+05
 0.21449999E+02  0.27132E+05
 0.21499998E+02  0.23386E+05
 0.21549999E+02  0.20752E+05
 0.21599998E+02  0.16512E+05
 0.21649998E+02  0.13063E+05
 0.21699999E+02  0.91387E+04
 0.21749998E+02  0.37139E+04
 0.21799999E+02 -0.13816E+04
 0.21849998E+02 -0.78405E+04
 0.21899998E+02 -0.14237E+05
 0.21949999E+02 -0.20927E+05
 0.21999998E+02 -0.26794E+05
 0.22049999E+02 -0.32312E+05
 0.22099998E+02 -0.36179E+05
 0.22149998E+02 -0.38514E+05
 0.22199999E+02 -0.40866E+05
 0.22249998E+02 -0.41408E+05
 0.22299999E+02 -0.42140E+05
 0.22349998E+02 -0.42747E+05
 0.22399998E+02 -0.40777E+05
 0.22449999E+02 -0.38715E+05
 0.22499998E+02 -0.35701E+05
 0.22549999E+02 -0.31327E+05
 0.22599998E+02 -0.25499E+05
 0.22649998E+02 -0.18682E+05
 0.22699999E+02 -0.11502E+05
 0.22749998E+02 -0.33113E+04
 0.22799999E+02  0.46393E+04
 0.22849998E+02  0.12515E+05
 0.22899998E+02  0.18462E+05
 0.22949999E+02  0.25704E+05
 0.22999998E+02  0.33391E+05
 0.23049999E+02  0.40430E+05
 0.23099998E+02  0.46484E+05
 0.23149998E+02  0.53280E+05
 0.23199999E+02  0.62130E+05
 0.23249998E+02  0.68584E+05
 0.23299999E+02  0.77342E+05
 0.23349998E+02  0.83299E+05
 0.23399998E+02  0.88579E+05
 0.23449999E+02  0.94863E+05
 0.23499998E+02  0.98266E+05
 0.23549999E+02  0.10135E+06
 0.23599998E+02  0.10053E+06
 0.23649998E+02  0.10167E+06
 0.23699999E+02  0.10217E+06
 0.23749998E+02  0.10086E+06
 0.23799999E+02  0.99116E+05
 0.23849998E+02  0.92011E+05
 0.23899998E+02  0.88042E+05
 0.23949999E+02  0.86204E+05
 0.23999998E+02  0.79148E+05
 0.24049999E+02  0.72941E+05
 0.24099998E+02  0.64467E+05
 0.24149998E+02  0.57965E+05
 0.24199999E+02  0.52720E+05
 0.24249998E+02  0.45815E+05
 0.24299999E+02  0.41383E+05
 0.24349998E+02  0.36899E+05
 0.24399998E+02  0.30692E+05
 0.24449999E+02  0.19350E+05
 0.24499998E+02  0.13372E+05
 0.24549999E+02  0.92344E+04
 0.24599998E+02  0.92248E+04
 0.24649998E+02  0.11341E+05
 0.24699999E+02  0.14485E+05
 0.24749998E+02  0.18811E+05
 0.24799999E+02  0.16131E+05
 0.24849998E+02  0.17740E+05
 0.24899998E+02  0.23955E+05
 0.24949999E+02  0.26102E+05
 0.24999998E+02  0.15968E+05
 0.25049999E+02  0.61042E+04
 0.25099998E+02  0.76659E+04
 0.25149998E+02  0.11603E+05
 0.25199999E+02  0.12256E+05
 0.25249998E+02  0.16073E+05
 0.25299999E+02  0.27035E+05
 0.25349998E+02  0.39932E+05
 0.25399998E+02  0.41251E+05
 0.25449999E+02  0.38716E+05
 0.25499998E+02  0.33474E+05
 0.25549999E+02  0.28499E+05
 0.25599998E+02  0.35653E+05
 0.25649998E+02  0.39987E+05
 0.25699999E+02  0.37529E+05
 0.25749998E+02  0.31411E+05
 0.25799999E+02  0.30678E+05
 0.25849998E+02  0.40941E+05
 0.25899998E+02  0.45642E+05
 0.25949999E+02  0.31211E+05
 0.25999998E+02  0.16284E+05
 0.26049999E+02  0.15292E+05
 0.26099998E+02  0.21670E+05
 0.26149998E+02  0.14170E+05
 0.26199999E+02  0.37660E+04
 0.26249998E+02 -0.50589E+04
 0.26299999E+02 -0.92650E+02
 0.26349998E+02 -0.10426E+04
 0.26399998E+02 -0.28218E+05
 0.26449999E+02 -0.46873E+05
 0.26499998E+02 -0.56881E+05
 0.26549999E+02 -0.58682E+05
 0.26599998E+02 -0.64709E+05
 0.26649998E+02 -0.78654E+05
 0.26699999E+02 -0.10179E+06
 0.26749998E+02 -0.11308E+06
 0.26799999E+02 -0.98102E+05
 0.26849998E+02 -0.88516E+05
 0.26899998E+02 -0.81466E+05
 0.26949999E+02 -0.48547E+05
 0.26999998E+02 -0.23554E+05
 0.27049997E+02 -0.14679E+05
 0.27099998E+02 -0.89440E+04
 0.27149998E+02 -0.26618E+05
 0.27199999E+02 -0.27295E+05
 0.27249998E+02 -0.76216E+04
 0.27299997E+02 -0.18103E+04
 0.27349998E+02  0.92023E+03
 0.27399998E+02 -0.32157E+04
 0.27449999E+02 -0.29245E+04
 0.27499998E+02 -0.86212E+04
 0.27549997E+02 -0.12853E+05
 0.27599998E+02 -0.65156E+04
 0.27649998E+02 -0.54400E+04
 0.27699999E+02 -0.61955E+04
 0.27749998E+02 -0.79725E+04
 0.27799997E+02 -0.37108E+04
 0.27849998E+02 -0.19658E+05
 0.27899998E+02 -0.34243E+05
 0.27949999E+02 -0.26575E+05
 0.27999998E+02  0.39103E+03
 0.28049997E+02  0.14563E+05
 0.28099998E+02  0.42159E+04
 0.28149998E+02  0.18852E+05
 0.28199999E+02  0.35442E+05
 0.28249998E+02  0.31658E+05
 0.28299997E+02  0.24115E+05
 0.28349998E+02  0.30225E+05
 0.28399998E+02  0.58372E+05
 0.28449999E+02  0.58358E+05
 0.28499998E+02  0.21105E+05
 0.28549997E+02 -0.14508E+05
 0.28599998E+02 -0.38720E+05
 0.28649998E+02 -0.71148E+05
 0.28699999E+02 -0.10795E+06
 0.28749998E+02 -0.11357E+06
 0.28799997E+02 -0.12545E+06
 0.28849998E+02 -0.12176E+06
 0.28899998E+02 -0.92562E+05
 0.28949999E+02 -0.73155E+05
 0.28999998E+02 -0.33391E+05
 0.29049997E+02  0.14517E+05
 0.29099998E+02  0.16182E+05
 0.29149998E+02 -0.12479E+05
 0.29199999E+02 -0.35244E+05
 0.29249998E+02 -0.28907E+05
 0.29299997E+02 -0.10214E+05
 0.29349998E+02 -0.19687E+05
 0.29399998E+02 -0.16801E+05
 0.29449999E+02 -0.24493E+05
 0.29499998E+02 -0.62754E+05
 0.29549997E+02 -0.11458E+06
 0.29599998E+02 -0.14039E+06
 0.29649998E+02 -0.12508E+06
 0.29699999E+02 -0.11901E+06
 0.29749998E+02 -0.14604E+06
 0.29799997E+02 -0.17537E+06
 0.29849998E+02 -0.15434E+06
 0.29899998E+02 -0.13496E+06
 0.29949999E+02 -0.15445E+06
 0.29999998E+02 -0.15708E+06
 0.30049999E+02 -0.13221E+06
 0.30099998E+02 -0.73233E+05
 0.30149998E+02 -0.18361E+05
 0.30199997E+02 -0.21250E+05
 0.30249996E+02 -0.28287E+05
 0.30299999E+02 -0.74864E+04
 0.30349998E+02  0.13342E+05
 0.30399998E+02  0.23564E+05
 0.30449997E+02  0.22533E+05
 0.30499996E+02 -0.64722E+04
 0.30549999E+02 -0.16804E+05
 0.30599998E+02 -0.27383E+05
 0.30649998E+02 -0.43903E+05
 0.30699997E+02 -0.29893E+05
 0.30749996E+02  0.25125E+05
 0.30799999E+02  0.99146E+05
 0.30849998E+02  0.16415E+06
 0.30899998E+02  0.23426E+06
 0.30949997E+02  0.27894E+06
 0.30999996E+02  0.30404E+06
 0.31049999E+02  0.26550E+06
 0.31099998E+02  0.19811E+06
 0.31149998E+02  0.15951E+06
 0.31199997E+02  0.12476E+06
 0.31249996E+02  0.11470E+06
 0.31299999E+02  0.12869E+06
 0.31349998E+02  0.14211E+06
 0.31399998E+02  0.16227E+06
 0.31449997E+02  0.16896E+06
 0.31499996E+02  0.13051E+06
 0.31549999E+02  0.90395E+05
 0.31599998E+02  0.71004E+05
 0.31649998E+02  0.68994E+05
 0.31699997E+02  0.94631E+05
 0.31749996E+02  0.10549E+06
 0.31799999E+02  0.10602E+06
 0.31849998E+02  0.10436E+06
 0.31899998E+02  0.90553E+05
 0.31949997E+02  0.79225E+05
 0.31999996E+02  0.77189E+05
 0.32049999E+02  0.96921E+05
 0.32099998E+02  0.10374E+06
 0.32149998E+02  0.94250E+05
 0.32199997E+02  0.40337E+05
 0.32249996E+02 -0.44944E+05
 0.32299999E+02 -0.12266E+06
 0.32349998E+02 -0.18663E+06
 0.32399998E+02 -0.20145E+06
 0.32449997E+02 -0.17358E+06
 0.32499996E+02 -0.12112E+06
 0.32549999E+02 -0.58054E+05
 0.32599998E+02  0.13801E+05
 0.32649998E+02  0.80889E+05
 0.32699997E+02  0.11795E+06
 0.32749996E+02  0.15559E+06
 0.32799999E+02  0.20102E+06
 0.32849998E+02  0.24116E+06
 0.32899998E+02  0.28479E+06
 0.32949997E+02  0.29520E+06
 0.32999996E+02  0.22753E+06
 0.33049999E+02  0.12370E+06
 0.33099998E+02  0.60699E+05
 0.33149998E+02  0.63777E+05
 0.33199997E+02  0.83483E+05
 0.33249996E+02  0.73574E+05
 0.33299999E+02  0.52404E+05
 0.33349998E+02  0.23987E+05
 0.33399998E+02 -0.23120E+05
 0.33449997E+02 -0.88939E+05
 0.33499996E+02 -0.17245E+06
 0.33549999E+02 -0.23734E+06
 0.33599998E+02 -0.22954E+06
 0.33649998E+02 -0.17155E+06
 0.33699997E+02 -0.12743E+06
 0.33749996E+02 -0.10139E+06
 0.33799999E+02 -0.56954E+05
 0.33849998E+02 -0.51537E+05
 0.33899998E+02 -0.92820E+05
 0.33949997E+02 -0.11454E+06
 0.33999996E+02 -0.13916E+06
 0.34049999E+02 -0.17179E+06
 0.34099998E+02 -0.19075E+06
 0.34149998E+02 -0.20971E+06
 0.34199997E+02 -0.25129E+06
 0.34249996E+02 -0.28259E+06
 0.34299999E+02 -0.27546E+06
 0.34349998E+02 -0.26245E+06
 0.34399998E+02 -0.26475E+06
 0.34449997E+02 -0.26240E+06
 0.34499996E+02 -0.23236E+06
 0.34549999E+02 -0.16536E+06
 0.34599998E+02 -0.10342E+06
 0.34649998E+02 -0.79714E+05
 0.34699997E+02 -0.69665E+05
 0.34749996E+02 -0.81653E+05
 0.34799999E+02 -0.85753E+05
 0.34849998E+02 -0.79664E+05
 0.34899998E+02 -0.81492E+05
 0.34949997E+02 -0.64060E+05
 0.34999996E+02 -0.25051E+05
 0.35049999E+02  0.12616E+05
 0.35099998E+02  0.23454E+05
 0.35149998E+02  0.13613E+05
 0.35199997E+02 -0.19402E+04
 0.35249996E+02  0.46559E+04
 0.35299999E+02  0.12311E+05
 0.35349998E+02 -0.10596E+05
 0.35399998E+02 -0.36302E+05
 0.35449997E+02 -0.30877E+05
 0.35499996E+02 -0.32365E+04
 0.35549999E+02  0.27095E+05
 0.35599998E+02  0.50551E+05
 0.35649998E+02  0.49680E+05
 0.35699997E+02  0.19428E+05
 0.35749996E+02 -0.15310E+05
 0.35799999E+02 -0.36945E+05
 0.35849998E+02 -0.25067E+05
 0.35899998E+02  0.24644E+05
 0.35949997E+02  0.72831E+05
 0.35999996E+02  0.77694E+05
 0.36049999E+02  0.36954E+05
 0.36099998E+02  0.17723E+05
 0.36149998E+02  0.25796E+05
 0.36199997E+02  0.41655E+05
 0.36249996E+02  0.59289E+05
 0.36299999E+02  0.77346E+05
 0.36349998E+02  0.88519E+05
 0.36399998E+02  0.85886E+05
 0.36449997E+02  0.70941E+05
 0.36499996E+02  0.29274E+05
 0.36549999E+02 -0.41028E+04
 0.36599998E+02 -0.89763E+04
 0.36649998E+02 -0.25653E+05
 0.36699997E+02 -0.74163E+05
 0.36749996E+02 -0.15680E+06
 0.36799999E+02 -0.22183E+06
 0.36849998E+02 -0.24185E+06
 0.36899998E+02 -0.20725E+06
 0.36949997E+02 -0.11042E+06
 0.36999996E+02 -0.42228E+05
 0.37049999E+02 -0.40939E+05
 0.37099998E+02 -0.78350E+05
 0.37149998E+02 -0.13443E+06
 0.37199997E+02 -0.18518E+06
 0.37249996E+02 -0.22530E+06
 0.37299999E+02 -0.30411E+06
 0.37349998E+02 -0.40788E+06
 0.37399998E+02 -0.45018E+06
 0.37449997E+02 -0.45217E+06
 0.37499996E+02 -0.49302E+06
 0.37549999E+02 -0.53479E+06
 0.37599998E+02 -0.53009E+06
 0.37649998E+02 -0.52691E+06
 0.37699997E+02 -0.51354E+06
 0.37749996E+02 -0.45159E+06
 0.37799999E+02 -0.37399E+06
 0.37849998E+02 -0.32676E+06
 0.37899998E+02 -0.32078E+06
 0.37949997E+02 -0.32299E+06
 0.37999996E+02 -0.32394E+06
 0.38049999E+02 -0.33122E+06
 0.38099998E+02 -0.34864E+06
 0.38149998E+02 -0.36898E+06
 0.38199997E+02 -0.38544E+06
 0.38249996E+02 -0.37233E+06
 0.38299999E+02 -0.34018E+06
 0.38349998E+02 -0.31421E+06
 0.38399998E+02 -0.28575E+06
 0.38449997E+02 -0.26075E+06
 0.38499996E+02 -0.23814E+06
 0.38549999E+02 -0.22552E+06
 0.38599998E+02 -0.21777E+06
 0.38649998E+02 -0.17463E+06
 0.38699997E+02 -0.11732E+06
 0.38749996E+02 -0.76597E+05
 0.38799999E+02 -0.55415E+05
 0.38849998E+02 -0.91966E+05
 0.38899998E+02 -0.15402E+06
 0.38949997E+02 -0.15632E+06
 0.38999996E+02 -0.77841E+05
 0.39049999E+02 -0.50588E+04
 0.39099998E+02  0.17156E+05
 0.39149998E+02  0.15054E+05
 0.39199997E+02  0.36967E+02
 0.39249996E+02 -0.27722E+05
 0.39299999E+02 -0.86695E+05
 0.39349998E+02 -0.14526E+06
 0.39399998E+02 -0.18228E+06
 0.39449997E+02 -0.16445E+06
 0.39499996E+02 -0.76479E+05
 0.39549999E+02  0.19768E+05
 0.39599998E+02  0.94737E+05
 0.39649998E+02  0.14523E+06
 0.39699997E+02  0.19239E+06
 0.39749996E+02  0.23141E+06
 0.39799999E+02  0.24847E+06
 0.39849998E+02  0.22509E+06
 0.39899998E+02  0.19060E+06
 0.39949997E+02  0.17167E+06
 0.39999996E+02  0.16537E+06
 0.40049999E+02  0.18414E+06
 0.40099998E+02  0.21910E+06
 0.40149998E+02  0.24548E+06
 0.40199997E+02  0.22255E+06
 0.40249996E+02  0.18716E+06
 0.40299999E+02  0.14400E+06
 0.40349998E+02  0.94239E+05
 0.40399998E+02  0.83340E+05
 0.40449997E+02  0.98326E+05
 0.40499996E+02  0.12710E+06
 0.40549999E+02  0.16008E+06
 0.40599998E+02  0.17693E+06
 0.40649998E+02  0.15994E+06
 0.40699997E+02  0.11348E+06
 0.40749996E+02  0.62511E+05
 0.40799999E+02  0.33241E+05
 0.40849998E+02  0.24975E+05
 0.40899998E+02  0.40411E+05
 0.40949997E+02  0.81945E+05
 0.40999996E+02  0.13876E+06
 0.41049999E+02  0.14755E+06
 0.41099998E+02  0.85212E+05
 0.41149998E+02  0.29013E+05
 0.41199997E+02 -0.53814E+04
 0.41249996E+02  0.16325E+05
 0.41299999E+02  0.78606E+05
 0.41349998E+02  0.11293E+06
 0.41399998E+02  0.12805E+06
 0.41449997E+02  0.15555E+06
 0.41499996E+02  0.18044E+06
 0.41549999E+02  0.18519E+06
 0.41599998E+02  0.16966E+06
 0.41649998E+02  0.15291E+06
 0.41699997E+02  0.13396E+06
 0.41749996E+02  0.70155E+05
 0.41799999E+02 -0.13365E+05
 0.41849998E+02 -0.63463E+05
 0.41899998E+02 -0.70397E+05
 0.41949997E+02 -0.76040E+05
 0.41999996E+02 -0.84095E+05
 0.42049999E+02 -0.10107E+06
 0.42099998E+02 -0.16804E+06
 0.42149998E+02 -0.22228E+06
 0.42199997E+02 -0.22271E+06
 0.42249996E+02 -0.21298E+06
 0.42299999E+02 -0.18301E+06
 0.42349998E+02 -0.13472E+06
 0.42399998E+02 -0.79347E+05
 0.42449997E+02 -0.62150E+05
 0.42499996E+02 -0.93573E+05
 0.42549999E+02 -0.81945E+05
 0.42599998E+02 -0.25635E+05
 0.42649998E+02  0.87240E+04
 0.42699997E+02  0.10130E+05
 0.42749996E+02 -0.62258E+04
 0.42799995E+02 -0.23554E+05
 0.42849998E+02 -0.11030E+05
 0.42899998E+02  0.49386E+05
 0.42949997E+02  0.13199E+06
 0.42999996E+02  0.22022E+06
 0.43049995E+02  0.30034E+06
 0.43099998E+02  0.35904E+06
 0.43149998E+02  0.36832E+06
 0.43199997E+02  0.37162E+06
 0.43249996E+02  0.43437E+06
 0.43299995E+02  0.50253E+06
 0.43349998E+02  0.58165E+06
 0.43399998E+02  0.70080E+06
 0.43449997E+02  0.80495E+06
 0.43499996E+02  0.82918E+06
 0.43549995E+02  0.78045E+06
 0.43599998E+02  0.70582E+06
 0.43649998E+02  0.66469E+06
 0.43699997E+02  0.64933E+06
 0.43749996E+02  0.63450E+06
 0.43799995E+02  0.67466E+06
 0.43849998E+02  0.72033E+06
 0.43899998E+02  0.71167E+06
 0.43949997E+02  0.68835E+06
 0.43999996E+02  0.63937E+06
 0.44049995E+02  0.55928E+06
 0.44099998E+02  0.44131E+06
 0.44149998E+02  0.31922E+06
 0.44199997E+02  0.25985E+06
 0.44249996E+02  0.21875E+06
 0.44299995E+02  0.19520E+06
 0.44349998E+02  0.18007E+06
 0.44399998E+02  0.17747E+06
 0.44449997E+02  0.18534E+06
 0.44499996E+02  0.99261E+05
 0.44549995E+02 -0.36812E+05
 0.44599998E+02 -0.12449E+06
 0.44649998E+02 -0.15159E+06
 0.44699997E+02 -0.17945E+06
 0.44749996E+02 -0.24134E+06
 0.44799995E+02 -0.31541E+06
 0.44849998E+02 -0.41063E+06
 0.44899998E+02 -0.52362E+06
 0.44949997E+02 -0.63106E+06
 0.44999996E+02 -0.66347E+06
 0.45049995E+02 -0.60408E+06
 0.45099998E+02 -0.50251E+06
 0.45149998E+02 -0.41809E+06
 0.45199997E+02 -0.37755E+06
 0.45249996E+02 -0.42665E+06
 0.45299995E+02 -0.56662E+06
 0.45349998E+02 -0.67638E+06
 0.45399998E+02 -0.71266E+06
 0.45449997E+02 -0.67078E+06
 0.45499996E+02 -0.58538E+06
 0.45549995E+02 -0.47942E+06
 0.45599998E+02 -0.31981E+06
 0.45649998E+02 -0.20659E+06
 0.45699997E+02 -0.19634E+06
 0.45749996E+02 -0.26666E+06
 0.45799995E+02 -0.36381E+06
 0.45849998E+02 -0.39150E+06
 0.45899998E+02 -0.34230E+06
 0.45949997E+02 -0.29450E+06
 0.45999996E+02 -0.28299E+06
 0.46049995E+02 -0.24765E+06
 0.46099998E+02 -0.12288E+06
 0.46149998E+02  0.51904E+05
 0.46199997E+02  0.14941E+06
 0.46249996E+02  0.18251E+06
 0.46299995E+02  0.19882E+06
 0.46349998E+02  0.17963E+06
 0.46399998E+02  0.14892E+06
 0.46449997E+02  0.13329E+06
 0.46499996E+02  0.17844E+06
 0.46549995E+02  0.28987E+06
 0.46599998E+02  0.36014E+06
 0.46649998E+02  0.32762E+06
 0.46699997E+02  0.26778E+06
 0.46749996E+02  0.27096E+06
 0.46799995E+02  0.31293E+06
 0.46849998E+02  0.32235E+06
 0.46899998E+02  0.28648E+06
 0.46949997E+02  0.25285E+06
 0.46999996E+02  0.23480E+06
 0.47049995E+02  0.21862E+06
 0.47099998E+02  0.19651E+06
 0.47149998E+02  0.15133E+06
 0.47199997E+02  0.10957E+06
 0.47249996E+02  0.69958E+05
 0.47299995E+02  0.51332E+05
 0.47349998E+02  0.13314E+06
 0.47399998E+02  0.32865E+06
 0.47449997E+02  0.51236E+06
 0.47499996E+02  0.61543E+06
 0.47549995E+02  0.73116E+06
 0.47599998E+02  0.76362E+06
 0.47649998E+02  0.62076E+06
 0.47699997E+02  0.44070E+06
 0.47749996E+02  0.35637E+06
 0.47799995E+02  0.36957E+06
 0.47849998E+02  0.40077E+06
 0.47899998E+02  0.39048E+06
 0.47949997E+02  0.30608E+06
 0.47999996E+02  0.17552E+06
 0.48049995E+02  0.46322E+05
 0.48099998E+02  0.27461E+03
 0.48149998E+02  0.53839E+05
 0.48199997E+02  0.14366E+06
 0.48249996E+02  0.22128E+06
 0.48299995E+02  0.25930E+06
 0.48349998E+02  0.29537E+06
 0.48399998E+02  0.33764E+06
 0.48449997E+02  0.31676E+06
 0.48499996E+02  0.14856E+06
 0.48549995E+02 -0.17491E+06
 0.48599998E+02 -0.50970E+06
 0.48649998E+02 -0.73153E+06
 0.48699997E+02 -0.79915E+06
 0.48749996E+02 -0.73638E+06
 0.48799995E+02 -0.64240E+06
 0.48849998E+02 -0.57711E+06
 0.48899998E+02 -0.52754E+06
 0.48949997E+02 -0.43316E+06
 0.48999996E+02 -0.31649E+06
 0.49049995E+02 -0.23477E+06
 0.49099998E+02 -0.16955E+06
 0.49149998E+02 -0.80226E+05
 0.49199997E+02  0.20886E+05
 0.49249996E+02  0.91815E+05
 0.49299995E+02  0.83106E+05
 0.49349998E+02  0.46837E+05
 0.49399998E+02  0.84589E+05
 0.49449997E+02  0.19362E+06
 0.49499996E+02  0.37453E+06
 0.49549995E+02  0.66415E+06
 0.49599998E+02  0.10408E+07
 0.49649998E+02  0.13656E+07
 0.49699997E+02  0.15165E+07
 0.49749996E+02  0.15052E+07
 0.49799995E+02  0.14554E+07
 0.49849998E+02  0.14130E+07
 0.49899998E+02  0.13692E+07
 0.49949997E+02  0.13215E+07
 0.49999996E+02  0.12839E+07
 0.50049995E+02  0.12629E+07
 0.50099998E+02  0.12678E+07
 0.50149998E+02  0.13004E+07
 0.50199997E+02  0.13043E+07
 0.50249996E+02  0.12506E+07
 0.50299995E+02  0.11804E+07
 0.50349998E+02  0.11400E+07
 0.50399998E+02  0.10947E+07
 0.50449997E+02  0.10259E+07
 0.50499996E+02  0.93400E+06
 0.50549995E+02  0.79511E+06
 0.50599998E+02  0.61448E+06
 0.50649998E+02  0.44178E+06
 0.50699997E+02  0.24434E+06
 0.50749996E+02  0.12862E+05
 0.50799995E+02 -0.16458E+06
 0.50849998E+02 -0.27632E+06
 0.50899998E+02 -0.39646E+06
 0.50949997E+02 -0.54261E+06
 0.50999996E+02 -0.67092E+06
 0.51049995E+02 -0.69528E+06
 0.51099998E+02 -0.63034E+06
 0.51149998E+02 -0.56411E+06
 0.51199997E+02 -0.52478E+06
 0.51249996E+02 -0.49318E+06
 0.51299995E+02 -0.44574E+06
 0.51349998E+02 -0.40759E+06
 0.51399998E+02 -0.38890E+06
 0.51449997E+02 -0.44813E+06
 0.51499996E+02 -0.56250E+06
 0.51549995E+02 -0.63686E+06
 0.51599998E+02 -0.69156E+06
 0.51649998E+02 -0.77207E+06
 0.51699997E+02 -0.83252E+06
 0.51749996E+02 -0.85244E+06
 0.51799995E+02 -0.86951E+06
 0.51849998E+02 -0.90751E+06
 0.51899998E+02 -0.92280E+06
 0.51949997E+02 -0.89003E+06
 0.51999996E+02 -0.89358E+06
 0.52049995E+02 -0.94419E+06
 0.52099998E+02 -0.99810E+06
 0.52149998E+02 -0.10831E+07
 0.52199997E+02 -0.11535E+07
 0.52249996E+02 -0.11250E+07
 0.52299995E+02 -0.10204E+07
 0.52349998E+02 -0.87599E+06
 0.52399998E+02 -0.75402E+06
 0.52449997E+02 -0.69710E+06
 0.52499996E+02 -0.63515E+06
 0.52549995E+02 -0.54887E+06
 0.52599998E+02 -0.47600E+06
 0.52649998E+02 -0.43075E+06
 0.52699997E+02 -0.37608E+06
 0.52749996E+02 -0.27826E+06
 0.52799995E+02 -0.13522E+06
 0.52849998E+02  0.54613E+05
 0.52899998E+02  0.25655E+06
 0.52949997E+02  0.46427E+06
 0.52999996E+02  0.63489E+06
 0.53049995E+02  0.75514E+06
 0.53099998E+02  0.84201E+06
 0.53149998E+02  0.89318E+06
 0.53199997E+02  0.92431E+06
 0.53249996E+02  0.94869E+06
 0.53299995E+02  0.99955E+06
 0.53349998E+02  0.10827E+07
 0.53399998E+02  0.11903E+07
 0.53449997E+02  0.13185E+07
 0.53499996E+02  0.14339E+07
 0.53549995E+02  0.14828E+07
 0.53599998E+02  0.14246E+07
 0.53649998E+02  0.12893E+07
 0.53699997E+02  0.11513E+07
 0.53749996E+02  0.10503E+07
 0.53799995E+02  0.99212E+06
 0.53849998E+02  0.99062E+06
 0.53899998E+02  0.10552E+07
 0.53949997E+02  0.11295E+07
 0.53999996E+02  0.11579E+07
 0.54049995E+02  0.11455E+07
 0.54099998E+02  0.11250E+07
 0.54149998E+02  0.10819E+07
 0.54199997E+02  0.99786E+06
 0.54249996E+02  0.88989E+06
 0.54299995E+02  0.75465E+06
 0.54349998E+02  0.59178E+06
 0.54399998E+02  0.41053E+06
 0.54449997E+02  0.20432E+06
 0.54499996E+02  0.68585E+04
 0.54549995E+02 -0.14285E+06
 0.54599998E+02 -0.27556E+06
 0.54649998E+02 -0.43918E+06
 0.54699997E+02 -0.63386E+06
 0.54749996E+02 -0.83812E+06
 0.54799995E+02 -0.10286E+07
 0.54849998E+02 -0.11755E+07
 0.54899998E+02 -0.12897E+07
 0.54949997E+02 -0.13907E+07
 0.54999996E+02 -0.14642E+07
 0.55049995E+02 -0.14893E+07
 0.55099998E+02 -0.14890E+07
 0.55149998E+02 -0.15417E+07
 0.55199997E+02 -0.16986E+07
 0.55249996E+02 -0.18902E+07
 0.55299995E+02 -0.20537E+07
 0.55349998E+02 -0.22051E+07
 0.55399998E+02 -0.23632E+07
 0.55449997E+02 -0.25408E+07
 0.55499996E+02 -0.27398E+07
 0.55549995E+02 -0.29255E+07
 0.55599998E+02 -0.30263E+07
 0.55649998E+02 -0.30366E+07
 0.55699997E+02 -0.29834E+07
 0.55749996E+02 -0.28852E+07
 0.55799995E+02 -0.27676E+07
 0.55849995E+02 -0.26562E+07
 0.55899998E+02 -0.25817E+07
 0.55949997E+02 -0.25447E+07
 0.55999996E+02 -0.25374E+07
 0.56049995E+02 -0.25572E+07
 0.56099995E+02 -0.25861E+07
 0.56149998E+02 -0.25958E+07
 0.56199997E+02 -0.25596E+07
 0.56249996E+02 -0.24646E+07
 0.56299995E+02 -0.23014E+07
 0.56349995E+02 -0.20856E+07
 0.56399998E+02 -0.18637E+07
 0.56449997E+02 -0.16393E+07
 0.56499996E+02 -0.14084E+07
 0.56549995E+02 -0.11833E+07
 0.56599995E+02 -0.96842E+06
 0.56649998E+02 -0.78127E+06
 0.56699997E+02 -0.65092E+06
 0.56749996E+02 -0.54990E+06
 0.56799995E+02 -0.43646E+06
 0.56849995E+02 -0.28531E+06
 0.56899998E+02 -0.43742E+05
 0.56949997E+02  0.27183E+06
 0.56999996E+02  0.59069E+06
 0.57049995E+02  0.87462E+06
 0.57099995E+02  0.10961E+07
 0.57149998E+02  0.12458E+07
 0.57199997E+02  0.13546E+07
 0.57249996E+02  0.14562E+07
 0.57299995E+02  0.15529E+07
 0.57349995E+02  0.16354E+07
 0.57399998E+02  0.16889E+07
 0.57449997E+02  0.16798E+07
 0.57499996E+02  0.16114E+07
 0.57549995E+02  0.15192E+07
 0.57599995E+02  0.14137E+07
 0.57649998E+02  0.13064E+07
 0.57699997E+02  0.11856E+07
 0.57749996E+02  0.10137E+07
 0.57799995E+02  0.79528E+06
 0.57849995E+02  0.58098E+06
 0.57899998E+02  0.39041E+06
 0.57949997E+02  0.21448E+06
 0.57999996E+02  0.77133E+05
 0.58049995E+02 -0.85065E+04
 0.58099995E+02 -0.38990E+05
 0.58149998E+02 -0.23956E+05
 0.58199997E+02  0.62316E+04
 0.58249996E+02  0.43608E+05
 0.58299995E+02  0.10011E+06
 0.58349995E+02  0.18056E+06
 0.58399998E+02  0.26890E+06
 0.58449997E+02  0.34503E+06
 0.58499996E+02  0.39666E+06
 0.58549995E+02  0.42842E+06
 0.58599995E+02  0.44144E+06
 0.58649998E+02  0.42120E+06
 0.58699997E+02  0.36027E+06
 0.58749996E+02  0.29328E+06
 0.58799995E+02  0.25262E+06
 0.58849995E+02  0.24489E+06
 0.58899998E+02  0.28146E+06
 0.58949997E+02  0.35698E+06
 0.58999996E+02  0.47115E+06
 0.59049995E+02  0.60715E+06
 0.59099995E+02  0.71543E+06
 0.59149998E+02  0.74515E+06
 0.59199997E+02  0.66981E+06
 0.59249996E+02  0.52045E+06
 0.59299995E+02  0.34324E+06
 0.59349995E+02  0.17325E+06
 0.59399998E+02  0.73571E+05
 0.59449997E+02  0.87894E+05
 0.59499996E+02  0.17998E+06
 0.59549995E+02  0.29054E+06
 0.59599995E+02  0.40632E+06
 0.59649998E+02  0.54431E+06
 0.59699997E+02  0.68956E+06
 0.59749996E+02  0.81205E+06
 0.59799995E+02  0.89237E+06
 0.59849995E+02  0.94240E+06
 0.59899998E+02  0.99380E+06
 0.59949997E+02  0.10298E+07
 0.59999996E+02  0.10383E+07
 0.60049995E+02  0.10140E+07
 0.60099995E+02  0.97125E+06
 0.60149998E+02  0.93648E+06
 0.60199997E+02  0.89573E+06
 0.60249996E+02  0.83881E+06
 0.60299995E+02  0.77265E+06
 0.60349995E+02  0.70754E+06
 0.60399998E+02  0.64064E+06
 0.60449997E+02  0.58280E+06
 0.60499996E+02  0.55223E+06
 0.60549995E+02  0.55190E+06
 0.60599995E+02  0.57419E+06
 0.60649998E+02  0.61579E+06
 0.60699997E+02  0.66327E+06
 0.60749996E+02  0.69000E+06
 0.60799995E+02  0.68433E+06
 0.60849995E+02  0.65937E+06
 0.60899998E+02  0.62972E+06
 0.60949997E+02  0.59421E+06
 0.60999996E+02  0.57896E+06
 0.61049995E+02  0.60325E+06
 0.61099995E+02  0.66915E+06
 0.61149998E+02  0.75314E+06
 0.61199997E+02  0.83825E+06
 0.61249996E+02  0.94356E+06
 0.61299995E+02  0.10645E+07
 0.61349995E+02  0.11706E+07
 0.61399998E+02  0.12285E+07
 0.61449997E+02  0.12234E+07
 0.61499996E+02  0.11583E+07
 0.61549995E+02  0.10627E+07
 0.61599995E+02  0.95076E+06
 0.61649998E+02  0.81314E+06
 0.61699997E+02  0.65658E+06
 0.61749996E+02  0.50818E+06
 0.61799995E+02  0.39886E+06
 0.61849995E+02  0.32316E+06
 0.61899998E+02  0.25986E+06
 0.61949997E+02  0.21684E+06
 0.61999996E+02  0.21306E+06
 0.62049995E+02  0.23481E+06
 0.62099998E+02  0.25531E+06
 0.62149994E+02  0.25367E+06
 0.62199997E+02  0.22748E+06
 0.62249992E+02  0.20308E+06
 0.62299995E+02  0.18373E+06
 0.62349998E+02  0.13221E+06
 0.62399994E+02  0.33163E+05
 0.62449997E+02 -0.10120E+06
 0.62499992E+02 -0.25456E+06
 0.62549995E+02 -0.39889E+06
 0.62599998E+02 -0.51113E+06
 0.62649994E+02 -0.57952E+06
 0.62699997E+02 -0.61392E+06
 0.62749992E+02 -0.60796E+06
 0.62799995E+02 -0.55104E+06
 0.62849998E+02 -0.45248E+06
 0.62899994E+02 -0.33254E+06
 0.62949997E+02 -0.22171E+06
 0.62999992E+02 -0.13506E+06
 0.63049995E+02 -0.91227E+05
 0.63099998E+02 -0.10936E+06
 0.63149994E+02 -0.16680E+06
 0.63199997E+02 -0.22581E+06
 0.63249992E+02 -0.25677E+06
 0.63299995E+02 -0.23555E+06
 0.63349998E+02 -0.17854E+06
 0.63399994E+02 -0.12730E+06
 0.63449997E+02 -0.10034E+06
 0.63499992E+02 -0.93879E+05
 0.63549995E+02 -0.95271E+05
 0.63599998E+02 -0.86796E+05
 0.63649994E+02 -0.85679E+05
 0.63699997E+02 -0.13035E+06
 0.63749992E+02 -0.23897E+06
 0.63799995E+02 -0.39751E+06
 0.63849998E+02 -0.56201E+06
 0.63899994E+02 -0.69906E+06
 0.63949997E+02 -0.80535E+06
 0.63999992E+02 -0.88416E+06
 0.64049995E+02 -0.92770E+06
 0.64099998E+02 -0.90752E+06
 0.64149994E+02 -0.81002E+06
 0.64199997E+02 -0.65123E+06
 0.64249992E+02 -0.44290E+06
 0.64299995E+02 -0.20355E+06
 0.64349998E+02  0.47195E+05
 0.64399994E+02  0.27548E+06
 0.64449997E+02  0.44438E+06
 0.64499992E+02  0.51780E+06
 0.64549995E+02  0.48342E+06
 0.64599998E+02  0.37684E+06
 0.64649994E+02  0.25162E+06
 0.64699997E+02  0.13824E+06
 0.64749992E+02  0.25730E+05
 0.64799995E+02 -0.88196E+05
 0.64849998E+02 -0.21067E+06
 0.64899994E+02 -0.34961E+06
 0.64949997E+02 -0.51778E+06
 0.64999992E+02 -0.72429E+06
 0.65049995E+02 -0.94906E+06
 0.65099998E+02 -0.11595E+07
 0.65149994E+02 -0.13307E+07
 0.65199997E+02 -0.14504E+07
 0.65249992E+02 -0.15216E+07
 0.65299995E+02 -0.15703E+07
 0.65349998E+02 -0.16155E+07
 0.65399994E+02 -0.16487E+07
 0.65449997E+02 -0.16546E+07
 0.65499992E+02 -0.16495E+07
 0.65549995E+02 -0.16345E+07
 0.65599998E+02 -0.15871E+07
 0.65649994E+02 -0.15145E+07
 0.65699997E+02 -0.14421E+07
 0.65749992E+02 -0.13868E+07
 0.65799995E+02 -0.13543E+07
 0.65849998E+02 -0.13500E+07
 0.65899994E+02 -0.13576E+07
 0.65949997E+02 -0.13414E+07
 0.65999992E+02 -0.12989E+07
 0.66049995E+02 -0.12508E+07
 0.66099998E+02 -0.11990E+07
 0.66149994E+02 -0.11462E+07
 0.66199997E+02 -0.10943E+07
 0.66249992E+02 -0.10370E+07
 0.66299995E+02 -0.96038E+06
 0.66349998E+02 -0.84679E+06
 0.66399994E+02 -0.69278E+06
 0.66449997E+02 -0.50225E+06
 0.66499992E+02 -0.27740E+06
 0.66549995E+02 -0.35487E+05
 0.66599998E+02  0.19639E+06
 0.66649994E+02  0.41588E+06
 0.66699997E+02  0.62549E+06
 0.66749992E+02  0.81811E+06
 0.66799995E+02  0.98177E+06
 0.66849998E+02  0.10985E+07
 0.66899994E+02  0.11550E+07
 0.66949997E+02  0.11456E+07
 0.66999992E+02  0.10804E+07
 0.67049995E+02  0.97798E+06
 0.67099998E+02  0.85913E+06
 0.67149994E+02  0.72465E+06
 0.67199997E+02  0.57298E+06
 0.67249992E+02  0.40290E+06
 0.67299995E+02  0.20497E+06
 0.67349998E+02 -0.23382E+05
 0.67399994E+02 -0.28094E+06
 0.67449997E+02 -0.55172E+06
 0.67499992E+02 -0.82372E+06
 0.67549995E+02 -0.10928E+07
 0.67599998E+02 -0.13514E+07
 0.67649994E+02 -0.15913E+07
 0.67699997E+02 -0.17983E+07
 0.67749992E+02 -0.19460E+07
 0.67799995E+02 -0.20199E+07
 0.67849998E+02 -0.20332E+07
 0.67899994E+02 -0.20175E+07
 0.67949997E+02 -0.19936E+07
 0.67999992E+02 -0.19724E+07
 0.68049995E+02 -0.19654E+07
 0.68099998E+02 -0.19727E+07
 0.68149994E+02 -0.19893E+07
 0.68199997E+02 -0.20138E+07
 0.68249992E+02 -0.20383E+07
 0.68299995E+02 -0.20564E+07
 0.68349998E+02 -0.20692E+07
 0.68399994E+02 -0.20848E+07
 0.68449997E+02 -0.21033E+07
 0.68499992E+02 -0.20954E+07
 0.68549995E+02 -0.20300E+07
 0.68599998E+02 -0.18876E+07
 0.68649994E+02 -0.16681E+07
 0.68699997E+02 -0.13774E+07
 0.68749992E+02 -0.10238E+07
 0.68799995E+02 -0.63937E+06
 0.68849998E+02 -0.25544E+06
 0.68899994E+02  0.10976E+06
 0.68949997E+02  0.44526E+06
 0.68999992E+02  0.75366E+06
 0.69049995E+02  0.10313E+07
 0.69099998E+02  0.12663E+07
 0.69149994E+02  0.14483E+07
 0.69199997E+02  0.15723E+07
 0.69249992E+02  0.16478E+07
 0.69299995E+02  0.16974E+07
 0.69349998E+02  0.17574E+07
 0.69399994E+02  0.18522E+07
 0.69449997E+02  0.19938E+07
 0.69499992E+02  0.21919E+07
 0.69549995E+02  0.24380E+07
 0.69599998E+02  0.27116E+07
 0.69649994E+02  0.29868E+07
 0.69699997E+02  0.32365E+07
 0.69749992E+02  0.34348E+07
 0.69799995E+02  0.35721E+07
 0.69849998E+02  0.36535E+07
 0.69899994E+02  0.36889E+07
 0.69949997E+02  0.36852E+07
 0.69999992E+02  0.36461E+07
 0.70049995E+02  0.35849E+07
 0.70099998E+02  0.35082E+07
 0.70149994E+02  0.34232E+07
 0.70199997E+02  0.33381E+07
 0.70249992E+02  0.32580E+07
 0.70299995E+02  0.31926E+07
 0.70349998E+02  0.31625E+07
 0.70399994E+02  0.31822E+07
 0.70449997E+02  0.32292E+07
 0.70499992E+02  0.32723E+07
 0.70549995E+02  0.32994E+07
 0.70599998E+02  0.33048E+07
 0.70649994E+02  0.32821E+07
 0.70699997E+02  0.32263E+07
 0.70749992E+02  0.31221E+07
 0.70799995E+02  0.29694E+07
 0.70849998E+02  0.27877E+07
 0.70899994E+02  0.25936E+07
 0.70949997E+02  0.23924E+07
 0.70999992E+02  0.21822E+07
 0.71049995E+02  0.19609E+07
 0.71099998E+02  0.17255E+07
 0.71149994E+02  0.14737E+07
 0.71199997E+02  0.12076E+07
 0.71249992E+02  0.94388E+06
 0.71299995E+02  0.70917E+06
 0.71349998E+02  0.51654E+06
 0.71399994E+02  0.36788E+06
 0.71449997E+02  0.24933E+06
 0.71499992E+02  0.13175E+06
 0.71549995E+02 -0.97935E+03
 0.71599998E+02 -0.16038E+06
 0.71649994E+02 -0.35456E+06
 0.71699997E+02 -0.57210E+06
 0.71749992E+02 -0.79846E+06
 0.71799995E+02 -0.10247E+07
 0.71849998E+02 -0.12291E+07
 0.71899994E+02 -0.13939E+07
 0.71949997E+02 -0.15203E+07
 0.71999992E+02 -0.16076E+07
 0.72049995E+02 -0.16615E+07
 0.72099998E+02 -0.16988E+07
 0.72149994E+02 -0.17242E+07
 0.72199997E+02 -0.17273E+07
 0.72249992E+02 -0.16988E+07
 0.72299995E+02 -0.16366E+07
 0.72349998E+02 -0.15516E+07
 0.72399994E+02 -0.14719E+07
 0.72449997E+02 -0.14151E+07
 0.72499992E+02 -0.13862E+07
 0.72549995E+02 -0.13951E+07
 0.72599998E+02 -0.14339E+07
 0.72649994E+02 -0.14776E+07
 0.72699997E+02 -0.15152E+07
 0.72749992E+02 -0.15512E+07
 0.72799995E+02 -0.15882E+07
 0.72849998E+02 -0.16205E+07
 0.72899994E+02 -0.16502E+07
 0.72949997E+02 -0.16779E+07
 0.72999992E+02 -0.17091E+07
 0.73049995E+02 -0.17555E+07
 0.73099998E+02 -0.18182E+07
 0.73149994E+02 -0.18987E+07
 0.73199997E+02 -0.20048E+07
 0.73249992E+02 -0.21528E+07
 0.73299995E+02 -0.23482E+07
 0.73349998E+02 -0.25751E+07
 0.73399994E+02 -0.28072E+07
 0.73449997E+02 -0.30191E+07
 0.73499992E+02 -0.31971E+07
 0.73549995E+02 -0.33338E+07
 0.73599998E+02 -0.34275E+07
 0.73649994E+02 -0.34900E+07
 0.73699997E+02 -0.35337E+07
 0.73749992E+02 -0.35624E+07
 0.73799995E+02 -0.35630E+07
 0.73849998E+02 -0.35196E+07
 0.73899994E+02 -0.34310E+07
 0.73949997E+02 -0.33042E+07
 0.73999992E+02 -0.31470E+07
 0.74049995E+02 -0.29577E+07
 0.74099998E+02 -0.27351E+07
 0.74149994E+02 -0.24835E+07
 0.74199997E+02 -0.22109E+07
 0.74249992E+02 -0.19276E+07
 0.74299995E+02 -0.16387E+07
 0.74349998E+02 -0.13553E+07
 0.74399994E+02 -0.10874E+07
 0.74449997E+02 -0.84472E+06
 0.74499992E+02 -0.63434E+06
 0.74549995E+02 -0.45797E+06
 0.74599998E+02 -0.31617E+06
 0.74649994E+02 -0.19912E+06
 0.74699997E+02 -0.99030E+05
 0.74749992E+02 -0.14281E+05
 0.74799995E+02  0.69225E+05
 0.74849998E+02  0.16682E+06
 0.74899994E+02  0.28454E+06
 0.74949997E+02  0.41893E+06
 0.74999992E+02  0.55511E+06
 0.75049995E+02  0.68021E+06
 0.75099998E+02  0.79173E+06
 0.75149994E+02  0.88744E+06
 0.75199997E+02  0.96063E+06
 0.75249992E+02  0.10047E+07
 0.75299995E+02  0.10159E+07
 0.75349998E+02  0.99497E+06
 0.75399994E+02  0.94153E+06
 0.75449997E+02  0.85869E+06
 0.75499992E+02  0.75901E+06
 0.75549995E+02  0.66077E+06
 0.75599998E+02  0.57890E+06
 0.75649994E+02  0.51900E+06
 0.75699997E+02  0.48588E+06
 0.75749992E+02  0.48111E+06
 0.75799995E+02  0.50229E+06
 0.75849998E+02  0.55586E+06
 0.75899994E+02  0.64475E+06
 0.75949997E+02  0.75543E+06
 0.75999992E+02  0.87380E+06
 0.76049995E+02  0.99094E+06
 0.76099998E+02  0.10966E+07
 0.76149994E+02  0.11863E+07
 0.76199997E+02  0.12600E+07
 0.76249992E+02  0.13159E+07
 0.76299995E+02  0.13559E+07
 0.76349998E+02  0.13866E+07
 0.76399994E+02  0.14106E+07
 0.76449997E+02  0.14286E+07
 0.76499992E+02  0.14445E+07
 0.76549995E+02  0.14596E+07
 0.76599998E+02  0.14777E+07
 0.76649994E+02  0.15030E+07
 0.76699997E+02  0.15357E+07
 0.76749992E+02  0.15737E+07
 0.76799995E+02  0.16165E+07
 0.76849998E+02  0.16604E+07
 0.76899994E+02  0.16981E+07
 0.76949997E+02  0.17208E+07
 0.76999992E+02  0.17195E+07
 0.77049995E+02  0.16911E+07
 0.77099998E+02  0.16305E+07
 0.77149994E+02  0.15379E+07
 0.77199997E+02  0.14211E+07
 0.77249992E+02  0.12820E+07
 0.77299995E+02  0.11219E+07
 0.77349998E+02  0.94071E+06
 0.77399994E+02  0.73877E+06
 0.77449997E+02  0.52529E+06
 0.77499992E+02  0.31367E+06
 0.77549995E+02  0.11604E+06
 0.77599998E+02 -0.62522E+05
 0.77649994E+02 -0.22539E+06
 0.77699997E+02 -0.38001E+06
 0.77749992E+02 -0.53116E+06
 0.77799995E+02 -0.67153E+06
 0.77849998E+02 -0.78996E+06
 0.77899994E+02 -0.88057E+06
 0.77949997E+02 -0.94488E+06
 0.77999992E+02 -0.98579E+06
 0.78049995E+02 -0.99954E+06
 0.78099998E+02 -0.98308E+06
 0.78149994E+02 -0.93657E+06
 0.78199997E+02 -0.85751E+06
 0.78249992E+02 -0.74380E+06
 0.78299995E+02 -0.59662E+06
 0.78349998E+02 -0.42283E+06
 0.78399994E+02 -0.22955E+06
 0.78449997E+02 -0.24545E+05
 0.78499992E+02  0.18630E+06
 0.78549995E+02  0.39752E+06
 0.78599998E+02  0.59836E+06
 0.78649994E+02  0.77776E+06
 0.78699997E+02  0.92968E+06
 0.78749992E+02  0.10524E+07
 0.78799995E+02  0.11469E+07
 0.78849998E+02  0.12177E+07
 0.78899994E+02  0.12606E+07
 0.78949997E+02  0.12700E+07
 0.78999992E+02  0.12470E+07
 0.79049995E+02  0.12009E+07
 0.79099998E+02  0.11470E+07
 0.79149994E+02  0.10956E+07
 0.79199997E+02  0.10503E+07
 0.79249992E+02  0.10086E+07
 0.79299995E+02  0.96986E+06
 0.79349998E+02  0.93664E+06
 0.79399994E+02  0.90870E+06
 0.79449997E+02  0.87801E+06
 0.79499992E+02  0.83931E+06
 0.79549995E+02  0.78909E+06
 0.79599998E+02  0.72099E+06
 0.79649994E+02  0.62980E+06
 0.79699997E+02  0.51427E+06
 0.79749992E+02  0.37901E+06
 0.79799995E+02  0.23760E+06
 0.79849998E+02  0.10482E+06
 0.79899994E+02 -0.11494E+05
 0.79949997E+02 -0.10308E+06
 0.79999992E+02 -0.16202E+06
 0.80049995E+02 -0.18978E+06
 0.80099998E+02 -0.19120E+06
 0.80149994E+02 -0.17188E+06
 0.80199997E+02 -0.14011E+06
 0.80249992E+02 -0.96842E+05
 0.80299995E+02 -0.42576E+05
 0.80349998E+02  0.11495E+05
 0.80399994E+02  0.51623E+05
 0.80449997E+02  0.67980E+05
 0.80499992E+02  0.54237E+05
 0.80549995E+02  0.54548E+04
 0.80599998E+02 -0.83059E+05
 0.80649994E+02 -0.20595E+06
 0.80699997E+02 -0.34989E+06
 0.80749992E+02 -0.50154E+06
 0.80799995E+02 -0.64662E+06
 0.80849998E+02 -0.77977E+06
 0.80899994E+02 -0.90322E+06
 0.80949997E+02 -0.10221E+07
 0.80999992E+02 -0.11399E+07
 0.81049995E+02 -0.12588E+07
 0.81099998E+02 -0.13811E+07
 0.81149994E+02 -0.15013E+07
 0.81199997E+02 -0.16082E+07
 0.81249992E+02 -0.16946E+07
 0.81299995E+02 -0.17566E+07
 0.81349998E+02 -0.17868E+07
 0.81399994E+02 -0.17875E+07
 0.81449997E+02 -0.17645E+07
 0.81499992E+02 -0.17252E+07
 0.81549995E+02 -0.16764E+07
 0.81599998E+02 -0.16152E+07
 0.81649994E+02 -0.15395E+07
 0.81699997E+02 -0.14579E+07
 0.81749992E+02 -0.13800E+07
 0.81799995E+02 -0.13109E+07
 0.81849998E+02 -0.12549E+07
 0.81899994E+02 -0.12128E+07
 0.81949997E+02 -0.11780E+07
 0.81999992E+02 -0.11457E+07
 0.82049995E+02 -0.11183E+07
 0.82099998E+02 -0.11028E+07
 0.82149994E+02 -0.11024E+07
 0.82199997E+02 -0.11095E+07
 0.82249992E+02 -0.11150E+07
 0.82299995E+02 -0.11132E+07
 0.82349998E+02 -0.11041E+07
 0.82399994E+02 -0.10863E+07
 0.82449997E+02 -0.10583E+07
 0.82499992E+02 -0.10211E+07
 0.82549995E+02 -0.97387E+06
 0.82599998E+02 -0.91891E+06
 0.82649994E+02 -0.86214E+06
 0.82699997E+02 -0.80910E+06
 0.82749992E+02 -0.75850E+06
 0.82799995E+02 -0.69970E+06
 0.82849998E+02 -0.61941E+06
 0.82899994E+02 -0.51285E+06
 0.82949997E+02 -0.39028E+06
 0.82999992E+02 -0.26657E+06
 0.83049995E+02 -0.14658E+06
 0.83099998E+02 -0.31441E+05
 0.83149994E+02  0.74126E+05
 0.83199997E+02  0.17057E+06
 0.83249992E+02  0.26035E+06
 0.83299995E+02  0.34790E+06
 0.83349998E+02  0.44471E+06
 0.83399994E+02  0.56326E+06
 0.83449997E+02  0.70935E+06
 0.83499992E+02  0.88134E+06
 0.83549995E+02  0.10734E+07
 0.83599998E+02  0.12709E+07
 0.83649994E+02  0.14523E+07
 0.83699997E+02  0.16033E+07
 0.83749992E+02  0.17172E+07
 0.83799995E+02  0.17889E+07
 0.83849998E+02  0.18174E+07
 0.83899994E+02  0.18072E+07
 0.83949997E+02  0.17625E+07
 0.83999992E+02  0.16848E+07
 0.84049995E+02  0.15786E+07
 0.84099998E+02  0.14509E+07
 0.84149994E+02  0.13102E+07
 0.84199997E+02  0.11694E+07
 0.84249992E+02  0.10421E+07
 0.84299995E+02  0.93419E+06
 0.84349998E+02  0.84348E+06
 0.84399994E+02  0.76535E+06
 0.84449997E+02  0.69442E+06
 0.84499992E+02  0.62962E+06
 0.84549995E+02  0.57339E+06
 0.84599998E+02  0.52277E+06
 0.84649994E+02  0.46841E+06
 0.84699997E+02  0.40228E+06
 0.84749992E+02  0.31784E+06
 0.84799995E+02  0.21381E+06
 0.84849998E+02  0.98525E+05
 0.84899994E+02 -0.13071E+05
 0.84949997E+02 -0.10523E+06
 0.84999992E+02 -0.17067E+06
 0.85049995E+02 -0.20646E+06
 0.85099998E+02 -0.21390E+06
 0.85149994E+02 -0.19899E+06
 0.85199997E+02 -0.17250E+06
 0.85249992E+02 -0.14458E+06
 0.85299995E+02 -0.11828E+06
 0.85349998E+02 -0.97930E+05
 0.85399994E+02 -0.89468E+05
 0.85449997E+02 -0.98508E+05
 0.85499992E+02 -0.12508E+06
 0.85549995E+02 -0.16348E+06
 0.85599998E+02 -0.20355E+06
 0.85649994E+02 -0.23510E+06
 0.85699997E+02 -0.25102E+06
 0.85749992E+02 -0.25180E+06
 0.85799995E+02 -0.23891E+06
 0.85849998E+02 -0.21309E+06
 0.85899994E+02 -0.18376E+06
 0.85949997E+02 -0.16016E+06
 0.85999992E+02 -0.14935E+06
 0.86049995E+02 -0.15541E+06
 0.86099998E+02 -0.18154E+06
 0.86149994E+02 -0.22813E+06
 0.86199997E+02 -0.28952E+06
 0.86249992E+02 -0.35460E+06
 0.86299995E+02 -0.41244E+06
 0.86349998E+02 -0.45706E+06
 0.86399994E+02 -0.48314E+06
 0.86449997E+02 -0.48275E+06
 0.86499992E+02 -0.45379E+06
 0.86549995E+02 -0.39869E+06
 0.86599998E+02 -0.32303E+06
 0.86649994E+02 -0.24008E+06
 0.86699997E+02 -0.16112E+06
 0.86749992E+02 -0.92122E+05
 0.86799995E+02 -0.34611E+05
 0.86849998E+02  0.13177E+05
 0.86899994E+02  0.52050E+05
 0.86949997E+02  0.90526E+05
 0.86999992E+02  0.13443E+06
 0.87049995E+02  0.18218E+06
 0.87099998E+02  0.23463E+06
 0.87149994E+02  0.29065E+06
 0.87199997E+02  0.35013E+06
 0.87249992E+02  0.40910E+06
 0.87299995E+02  0.45482E+06
 0.87349998E+02  0.47643E+06
 0.87399994E+02  0.47383E+06
 0.87449997E+02  0.45358E+06
 0.87499992E+02  0.42277E+06
 0.87549995E+02  0.38454E+06
 0.87599991E+02  0.34086E+06
 0.87649994E+02  0.29272E+06
 0.87699997E+02  0.24462E+06
 0.87749992E+02  0.19936E+06
 0.87799995E+02  0.15399E+06
 0.87849991E+02  0.10638E+06
 0.87899994E+02  0.55119E+05
 0.87949997E+02 -0.22859E+04
 0.87999992E+02 -0.65381E+05
 0.88049995E+02 -0.12942E+06
 0.88099991E+02 -0.19149E+06
 0.88149994E+02 -0.25111E+06
 0.88199997E+02 -0.30901E+06
 0.88249992E+02 -0.37108E+06
 0.88299995E+02 -0.44387E+06
 0.88349991E+02 -0.52439E+06
 0.88399994E+02 -0.60266E+06
 0.88449997E+02 -0.66625E+06
 0.88499992E+02 -0.70602E+06
 0.88549995E+02 -0.72049E+06
 0.88599991E+02 -0.70986E+06
 0.88649994E+02 -0.67401E+06
 0.88699997E+02 -0.61177E+06
 0.88749992E+02 -0.52152E+06
 0.88799995E+02 -0.40740E+06
 0.88849991E+02 -0.27620E+06
 0.88899994E+02 -0.13798E+06
 0.88949997E+02 -0.72832E+03
 0.88999992E+02  0.13158E+06
 0.89049995E+02  0.25344E+06
 0.89099991E+02  0.35644E+06
 0.89149994E+02  0.43012E+06
 0.89199997E+02  0.47139E+06
 0.89249992E+02  0.48236E+06
 0.89299995E+02  0.46618E+06
 0.89349991E+02  0.42561E+06
 0.89399994E+02  0.35996E+06
 0.89449997E+02  0.27548E+06
 0.89499992E+02  0.18619E+06
 0.89549995E+02  0.10526E+06
 0.89599991E+02  0.40472E+05
 0.89649994E+02 -0.70728E+04
 0.89699997E+02 -0.39971E+05
 0.89749992E+02 -0.62950E+05
 0.89799995E+02 -0.82404E+05
 0.89849991E+02 -0.10529E+06
 0.89899994E+02 -0.13774E+06
 0.89949997E+02 -0.17847E+06
 0.89999992E+02 -0.22064E+06
 0.90049995E+02 -0.25847E+06
 0.90099991E+02 -0.28889E+06
 0.90149994E+02 -0.31038E+06
 0.90199997E+02 -0.31878E+06
 0.90249992E+02 -0.31412E+06
 0.90299995E+02 -0.29928E+06
 0.90349991E+02 -0.27379E+06
 0.90399994E+02 -0.23130E+06
 0.90449997E+02 -0.16330E+06
 0.90499992E+02 -0.65529E+05
 0.90549995E+02  0.58880E+05
 0.90599991E+02  0.20029E+06
 0.90649994E+02  0.34545E+06
 0.90699997E+02  0.47838E+06
 0.90749992E+02  0.58789E+06
 0.90799995E+02  0.66635E+06
 0.90849991E+02  0.70744E+06
 0.90899994E+02  0.71296E+06
 0.90949997E+02  0.68976E+06
 0.90999992E+02  0.64491E+06
 0.91049995E+02  0.58577E+06
 0.91099991E+02  0.51813E+06
 0.91149994E+02  0.44560E+06
 0.91199997E+02  0.37283E+06
 0.91249992E+02  0.30359E+06
 0.91299995E+02  0.23854E+06
 0.91349991E+02  0.17840E+06
 0.91399994E+02  0.12109E+06
 0.91449997E+02  0.64359E+05
 0.91499992E+02  0.87352E+04
 0.91549995E+02 -0.44811E+05
 0.91599991E+02 -0.93723E+05
 0.91649994E+02 -0.13661E+06
 0.91699997E+02 -0.17585E+06
 0.91749992E+02 -0.21341E+06
 0.91799995E+02 -0.25059E+06
 0.91849991E+02 -0.28985E+06
 0.91899994E+02 -0.33341E+06
 0.91949997E+02 -0.37928E+06
 0.91999992E+02 -0.42294E+06
 0.92049995E+02 -0.46162E+06
 0.92099991E+02 -0.49240E+06
 0.92149994E+02 -0.51472E+06
 0.92199997E+02 -0.53283E+06
 0.92249992E+02 -0.54903E+06
 0.92299995E+02 -0.56363E+06
 0.92349991E+02 -0.58086E+06
 0.92399994E+02 -0.60122E+06
 0.92449997E+02 -0.61952E+06
 0.92499992E+02 -0.63145E+06
 0.92549995E+02 -0.63460E+06
 0.92599991E+02 -0.62846E+06
 0.92649994E+02 -0.61542E+06
 0.92699997E+02 -0.60218E+06
 0.92749992E+02 -0.59873E+06
 0.92799995E+02 -0.61218E+06
 0.92849991E+02 -0.64149E+06
 0.92899994E+02 -0.68152E+06
 0.92949997E+02 -0.72472E+06
 0.92999992E+02 -0.76138E+06
 0.93049995E+02 -0.78498E+06
 0.93099991E+02 -0.78960E+06
 0.93149994E+02 -0.77378E+06
 0.93199997E+02 -0.73682E+06
 0.93249992E+02 -0.67770E+06
 0.93299995E+02 -0.59882E+06
 0.93349991E+02 -0.50448E+06
 0.93399994E+02 -0.40140E+06
 0.93449997E+02 -0.29068E+06
 0.93499992E+02 -0.17039E+06
 0.93549995E+02 -0.41848E+05
 0.93599991E+02  0.89529E+05
 0.93649994E+02  0.21750E+06
 0.93699997E+02  0.33885E+06
 0.93749992E+02  0.45025E+06
 0.93799995E+02  0.55098E+06
 0.93849991E+02  0.64007E+06
 0.93899994E+02  0.71410E+06
 0.93949997E+02  0.77414E+06
 0.93999992E+02  0.82220E+06
 0.94049995E+02  0.85658E+06
 0.94099991E+02  0.87747E+06
 0.94149994E+02  0.88684E+06
 0.94199997E+02  0.88609E+06
 0.94249992E+02  0.87833E+06
 0.94299995E+02  0.86222E+06
 0.94349991E+02  0.83678E+06
 0.94399994E+02  0.80525E+06
 0.94449997E+02  0.77155E+06
 0.94499992E+02  0.73574E+06
 0.94549995E+02  0.69946E+06
 0.94599991E+02  0.66768E+06
 0.94649994E+02  0.64279E+06
 0.94699997E+02  0.62608E+06
 0.94749992E+02  0.61709E+06
 0.94799995E+02  0.61630E+06
 0.94849991E+02  0.62245E+06
 0.94899994E+02  0.63397E+06
 0.94949997E+02  0.64704E+06
 0.94999992E+02  0.65483E+06
 0.95049995E+02  0.65050E+06
 0.95099991E+02  0.63095E+06
 0.95149994E+02  0.59946E+06
 0.95199997E+02  0.56087E+06
 0.95249992E+02  0.51856E+06
 0.95299995E+02  0.47133E+06
 0.95349991E+02  0.41956E+06
 0.95399994E+02  0.36748E+06
 0.95449997E+02  0.32100E+06
 0.95499992E+02  0.28195E+06
 0.95549995E+02  0.24939E+06
 0.95599991E+02  0.22557E+06
 0.95649994E+02  0.21360E+06
 0.95699997E+02  0.21187E+06
 0.95749992E+02  0.21426E+06
 0.95799995E+02  0.21418E+06
 0.95849991E+02  0.20561E+06
 0.95899994E+02  0.18857E+06
 0.95949997E+02  0.16251E+06
 0.95999992E+02  0.12487E+06
 0.96049995E+02  0.77197E+05
 0.96099991E+02  0.23254E+05
 0.96149994E+02 -0.31991E+05
 0.96199997E+02 -0.87077E+05
 0.96249992E+02 -0.14257E+06
 0.96299995E+02 -0.19643E+06
 0.96349991E+02 -0.24825E+06
 0.96399994E+02 -0.29641E+06
 0.96449997E+02 -0.33909E+06
 0.96499992E+02 -0.37493E+06
 0.96549995E+02 -0.40209E+06
 0.96599991E+02 -0.42054E+06
 0.96649994E+02 -0.43175E+06
 0.96699997E+02 -0.43643E+06
 0.96749992E+02 -0.43555E+06
 0.96799995E+02 -0.43113E+06
 0.96849991E+02 -0.42494E+06
 0.96899994E+02 -0.41897E+06
 0.96949997E+02 -0.41603E+06
 0.96999992E+02 -0.41819E+06
 0.97049995E+02 -0.42301E+06
 0.97099991E+02 -0.42891E+06
 0.97149994E+02 -0.43576E+06
 0.97199997E+02 -0.44334E+06
 0.97249992E+02 -0.45224E+06
 0.97299995E+02 -0.46581E+06
 0.97349991E+02 -0.48601E+06
 0.97399994E+02 -0.50943E+06
 0.97449997E+02 -0.53015E+06
 0.97499992E+02 -0.54315E+06
 0.97549995E+02 -0.54500E+06
 0.97599991E+02 -0.53418E+06
 0.97649994E+02 -0.51044E+06
 0.97699997E+02 -0.47657E+06
 0.97749992E+02 -0.43695E+06
 0.97799995E+02 -0.39362E+06
 0.97849991E+02 -0.35024E+06
 0.97899994E+02 -0.31106E+06
 0.97949997E+02 -0.27935E+06
 0.97999992E+02 -0.25637E+06
