-0.20000000E+01 -0.21120E+05
-0.19500000E+01 -0.17766E+05
-0.19000000E+01 -0.14014E+05
-0.18500000E+01 -0.10843E+05
-0.18000000E+01 -0.78510E+04
-0.17500000E+01 -0.48562E+04
-0.17000000E+01 -0.20351E+04
-0.16500001E+01  0.61194E+03
-0.16000000E+01  0.27474E+04
-0.15500000E+01  0.45129E+04
-0.15000000E+01  0.59131E+04
-0.14500000E+01  0.63216E+04
-0.14000001E+01  0.60689E+04
-0.13500000E+01  0.58018E+04
-0.13000001E+01  0.55288E+04
-0.12500000E+01  0.54413E+04
-0.12000000E+01  0.55624E+04
-0.11500001E+01  0.55572E+04
-0.11000000E+01  0.54831E+04
-0.10500001E+01  0.52451E+04
-0.10000000E+01  0.46702E+04
-0.95000005E+00  0.39134E+04
-0.90000010E+00  0.30284E+04
-0.85000002E+00  0.24794E+04
-0.80000007E+00  0.25506E+04
-0.75000012E+00  0.30163E+04
-0.70000005E+00  0.41879E+04
-0.65000010E+00  0.63778E+04
-0.60000014E+00  0.89563E+04
-0.55000007E+00  0.11227E+05
-0.50000012E+00  0.13119E+05
-0.45000005E+00  0.15046E+05
-0.40000010E+00  0.17328E+05
-0.35000014E+00  0.18986E+05
-0.30000007E+00  0.19756E+05
-0.25000012E+00  0.19704E+05
-0.20000005E+00  0.19055E+05
-0.15000010E+00  0.17036E+05
-0.10000014E+00  0.13645E+05
-0.50000072E-01  0.95259E+04
-0.11920929E-06  0.52808E+04
 0.49999952E-01  0.12781E+04
 0.99999905E-01 -0.33492E+04
 0.14999986E+00 -0.78589E+04
 0.19999981E+00 -0.11870E+05
 0.24999976E+00 -0.15004E+05
 0.29999995E+00 -0.17211E+05
 0.34999990E+00 -0.18528E+05
 0.39999986E+00 -0.19458E+05
 0.44999981E+00 -0.19766E+05
 0.49999976E+00 -0.18841E+05
 0.54999995E+00 -0.16887E+05
 0.59999990E+00 -0.14285E+05
 0.64999986E+00 -0.11030E+05
 0.69999981E+00 -0.66860E+04
 0.74999976E+00 -0.20411E+04
 0.79999971E+00  0.23577E+04
 0.84999990E+00  0.61165E+04
 0.89999986E+00  0.96175E+04
 0.94999981E+00  0.13150E+05
 0.99999976E+00  0.16101E+05
 0.10499997E+01  0.18610E+05
 0.10999999E+01  0.20558E+05
 0.11499999E+01  0.21648E+05
 0.11999998E+01  0.22108E+05
 0.12499998E+01  0.21643E+05
 0.12999997E+01  0.20566E+05
 0.13499999E+01  0.19703E+05
 0.13999999E+01  0.19309E+05
 0.14499998E+01  0.19417E+05
 0.14999998E+01  0.19579E+05
 0.15499997E+01  0.19505E+05
 0.15999999E+01  0.19557E+05
 0.16499999E+01  0.20130E+05
 0.16999998E+01  0.20974E+05
 0.17499998E+01  0.21241E+05
 0.17999997E+01  0.20993E+05
 0.18499997E+01  0.20433E+05
 0.18999999E+01  0.19454E+05
 0.19499998E+01  0.18181E+05
 0.19999998E+01  0.16858E+05
 0.20499997E+01  0.15736E+05
 0.20999999E+01  0.14707E+05
 0.21499996E+01  0.14093E+05
 0.21999998E+01  0.13971E+05
 0.22499995E+01  0.13956E+05
 0.22999997E+01  0.14029E+05
 0.23499999E+01  0.14236E+05
 0.23999996E+01  0.14639E+05
 0.24499998E+01  0.15011E+05
 0.24999995E+01  0.14900E+05
 0.25499997E+01  0.13963E+05
 0.25999999E+01  0.12501E+05
 0.26499996E+01  0.10555E+05
 0.26999998E+01  0.84176E+04
 0.27499995E+01  0.65952E+04
 0.27999997E+01  0.48841E+04
 0.28499999E+01  0.33455E+04
 0.28999996E+01  0.21011E+04
 0.29499998E+01  0.10349E+04
 0.29999995E+01  0.59070E+01
 0.30499997E+01 -0.13745E+04
 0.30999999E+01 -0.35505E+04
 0.31499996E+01 -0.61871E+04
 0.31999998E+01 -0.84549E+04
 0.32499995E+01 -0.98017E+04
 0.32999997E+01 -0.11086E+05
 0.33499999E+01 -0.12964E+05
 0.33999996E+01 -0.15202E+05
 0.34499998E+01 -0.17306E+05
 0.34999995E+01 -0.18495E+05
 0.35499997E+01 -0.18896E+05
 0.35999994E+01 -0.18789E+05
 0.36499996E+01 -0.18354E+05
 0.36999998E+01 -0.18021E+05
 0.37499995E+01 -0.17660E+05
 0.37999997E+01 -0.17734E+05
 0.38499994E+01 -0.18098E+05
 0.38999996E+01 -0.18729E+05
 0.39499998E+01 -0.19979E+05
 0.39999995E+01 -0.21335E+05
 0.40499997E+01 -0.22448E+05
 0.40999994E+01 -0.23289E+05
 0.41499996E+01 -0.24305E+05
 0.41999998E+01 -0.25254E+05
 0.42499995E+01 -0.25454E+05
 0.42999997E+01 -0.24851E+05
 0.43499994E+01 -0.23870E+05
 0.43999996E+01 -0.22292E+05
 0.44499998E+01 -0.19905E+05
 0.44999995E+01 -0.17073E+05
 0.45499997E+01 -0.14070E+05
 0.45999994E+01 -0.11040E+05
 0.46499996E+01 -0.80526E+04
 0.46999998E+01 -0.52237E+04
 0.47499995E+01 -0.29011E+04
 0.47999997E+01 -0.37280E+03
 0.48499994E+01  0.27008E+04
 0.48999996E+01  0.50762E+04
 0.49499998E+01  0.70333E+04
 0.49999995E+01  0.92965E+04
 0.50499997E+01  0.11328E+05
 0.50999994E+01  0.12727E+05
 0.51499996E+01  0.13757E+05
 0.51999998E+01  0.14755E+05
 0.52499995E+01  0.16718E+05
 0.52999997E+01  0.19193E+05
 0.53499994E+01  0.21362E+05
 0.53999996E+01  0.23075E+05
 0.54499993E+01  0.23866E+05
 0.54999995E+01  0.24336E+05
 0.55499997E+01  0.23786E+05
 0.55999994E+01  0.22397E+05
 0.56499996E+01  0.20875E+05
 0.56999993E+01  0.18644E+05
 0.57499995E+01  0.15993E+05
 0.57999997E+01  0.12991E+05
 0.58499994E+01  0.98870E+04
 0.58999996E+01  0.64408E+04
 0.59499993E+01  0.27147E+04
 0.59999995E+01 -0.36141E+03
 0.60499992E+01 -0.28240E+04
 0.60999994E+01 -0.50821E+04
 0.61499996E+01 -0.69426E+04
 0.61999998E+01 -0.79523E+04
 0.62499990E+01 -0.84815E+04
 0.62999992E+01 -0.82543E+04
 0.63499994E+01 -0.76126E+04
 0.63999996E+01 -0.73001E+04
 0.64499998E+01 -0.75477E+04
 0.64999990E+01 -0.83581E+04
 0.65499992E+01 -0.95732E+04
 0.65999994E+01 -0.11641E+05
 0.66499996E+01 -0.14332E+05
 0.66999998E+01 -0.16996E+05
 0.67499990E+01 -0.18911E+05
 0.67999992E+01 -0.20227E+05
 0.68499994E+01 -0.21588E+05
 0.68999996E+01 -0.22856E+05
 0.69499998E+01 -0.23569E+05
 0.69999990E+01 -0.23661E+05
 0.70499992E+01 -0.23264E+05
 0.70999994E+01 -0.22756E+05
 0.71499996E+01 -0.21644E+05
 0.71999998E+01 -0.19580E+05
 0.72499990E+01 -0.17490E+05
 0.72999992E+01 -0.15203E+05
 0.73499994E+01 -0.12774E+05
 0.73999996E+01 -0.99841E+04
 0.74499998E+01 -0.74986E+04
 0.74999990E+01 -0.58812E+04
 0.75499992E+01 -0.46984E+04
 0.75999994E+01 -0.43441E+04
 0.76499996E+01 -0.44414E+04
 0.76999998E+01 -0.47981E+04
 0.77499990E+01 -0.45173E+04
 0.77999992E+01 -0.36452E+04
 0.78499994E+01 -0.28225E+04
 0.78999996E+01 -0.19892E+04
 0.79499998E+01 -0.74199E+03
 0.79999990E+01  0.11468E+04
 0.80499992E+01  0.37481E+04
 0.80999994E+01  0.68882E+04
 0.81499996E+01  0.98012E+04
 0.81999998E+01  0.12129E+05
 0.82499990E+01  0.13967E+05
 0.82999992E+01  0.15864E+05
 0.83499994E+01  0.17932E+05
 0.83999996E+01  0.19876E+05
 0.84499998E+01  0.21424E+05
 0.84999990E+01  0.23121E+05
 0.85499992E+01  0.25152E+05
 0.85999994E+01  0.27104E+05
 0.86499996E+01  0.29010E+05
 0.86999998E+01  0.30960E+05
 0.87499990E+01  0.33261E+05
 0.87999992E+01  0.35863E+05
 0.88499994E+01  0.37858E+05
 0.88999996E+01  0.39178E+05
 0.89499998E+01  0.39904E+05
 0.89999990E+01  0.39553E+05
 0.90499992E+01  0.38812E+05
 0.90999994E+01  0.37719E+05
 0.91499996E+01  0.36104E+05
 0.91999989E+01  0.34354E+05
 0.92499990E+01  0.32015E+05
 0.92999992E+01  0.29167E+05
 0.93499994E+01  0.25932E+05
 0.93999996E+01  0.22321E+05
 0.94499989E+01  0.18411E+05
 0.94999990E+01  0.14329E+05
 0.95499992E+01  0.99417E+04
 0.95999994E+01  0.55292E+04
 0.96499996E+01  0.11560E+04
 0.96999989E+01 -0.29668E+04
 0.97499990E+01 -0.65301E+04
 0.97999992E+01 -0.10449E+05
 0.98499994E+01 -0.14068E+05
 0.98999996E+01 -0.17166E+05
 0.99499989E+01 -0.19687E+05
 0.99999990E+01 -0.21642E+05
 0.10049999E+02 -0.23280E+05
 0.10099999E+02 -0.24216E+05
 0.10150000E+02 -0.24629E+05
 0.10199999E+02 -0.23916E+05
 0.10249999E+02 -0.22617E+05
 0.10299999E+02 -0.21682E+05
 0.10349999E+02 -0.21355E+05
 0.10400000E+02 -0.21678E+05
 0.10449999E+02 -0.22175E+05
 0.10499999E+02 -0.21960E+05
 0.10549999E+02 -0.21753E+05
 0.10599999E+02 -0.21007E+05
 0.10650000E+02 -0.19983E+05
 0.10699999E+02 -0.18759E+05
 0.10749999E+02 -0.16766E+05
 0.10799999E+02 -0.15179E+05
 0.10849999E+02 -0.12234E+05
 0.10900000E+02 -0.12551E+05
 0.10949999E+02 -0.19519E+05
 0.10999999E+02 -0.40109E+05
 0.11049999E+02 -0.63765E+05
 0.11099999E+02 -0.85234E+05
 0.11150000E+02 -0.87301E+05
 0.11199999E+02 -0.84415E+05
 0.11249999E+02 -0.69527E+05
 0.11299999E+02 -0.35151E+05
 0.11349999E+02  0.24641E+05
 0.11400000E+02  0.93465E+05
 0.11449999E+02  0.12529E+06
 0.11499999E+02  0.11512E+06
 0.11549999E+02  0.48687E+05
 0.11599999E+02  0.20233E+04
 0.11650000E+02 -0.44892E+05
 0.11699999E+02 -0.86975E+05
 0.11749999E+02 -0.16124E+06
 0.11799999E+02 -0.22690E+06
 0.11849999E+02 -0.27957E+06
 0.11900000E+02 -0.33806E+06
 0.11949999E+02 -0.34195E+06
 0.11999999E+02 -0.32460E+06
 0.12049999E+02 -0.27652E+06
 0.12099999E+02 -0.25705E+06
 0.12150000E+02 -0.20314E+06
 0.12199999E+02  0.10314E+05
 0.12249999E+02  0.27290E+06
 0.12299999E+02  0.30059E+06
 0.12349999E+02  0.18981E+06
 0.12400000E+02  0.34655E+06
 0.12449999E+02  0.58218E+06
 0.12499999E+02  0.62231E+06
 0.12549999E+02  0.54046E+06
 0.12599999E+02  0.27727E+06
 0.12649999E+02  0.83890E+04
 0.12699999E+02 -0.10769E+06
 0.12749999E+02 -0.88239E+05
 0.12799999E+02 -0.25414E+06
 0.12849999E+02 -0.45083E+06
 0.12899999E+02 -0.26826E+06
 0.12949999E+02 -0.10083E+06
 0.12999999E+02 -0.90897E+05
 0.13049999E+02  0.21423E+06
 0.13099999E+02  0.58214E+06
 0.13149999E+02  0.35294E+06
 0.13199999E+02  0.13434E+06
 0.13249999E+02  0.42688E+06
 0.13299999E+02  0.70838E+06
 0.13349999E+02  0.40140E+06
 0.13399999E+02  0.10652E+06
 0.13449999E+02  0.25877E+06
 0.13499999E+02  0.50966E+05
 0.13549999E+02 -0.13269E+06
 0.13599999E+02 -0.63562E+04
 0.13649999E+02  0.13064E+06
 0.13699999E+02  0.73959E+05
 0.13749999E+02 -0.10579E+06
 0.13799999E+02  0.15395E+06
 0.13849999E+02  0.31805E+06
 0.13899999E+02  0.12329E+06
 0.13949999E+02  0.16464E+06
 0.13999999E+02  0.20581E+06
 0.14049999E+02  0.80287E+05
 0.14099998E+02 -0.12220E+06
 0.14150000E+02  0.16726E+04
 0.14199999E+02  0.35815E+06
 0.14249998E+02  0.20982E+06
 0.14299999E+02  0.19696E+04
 0.14349998E+02  0.58623E+05
 0.14400000E+02  0.27186E+06
 0.14449999E+02  0.36764E+06
 0.14499998E+02  0.20073E+06
 0.14549999E+02 -0.99662E+04
 0.14599998E+02 -0.17752E+06
 0.14650000E+02 -0.18393E+06
 0.14699999E+02 -0.25895E+05
 0.14749998E+02 -0.56790E+05
 0.14799999E+02 -0.12245E+06
 0.14849998E+02  0.20143E+05
 0.14900000E+02  0.13805E+06
 0.14949999E+02  0.70343E+05
 0.14999998E+02  0.24977E+06
 0.15049999E+02  0.40080E+06
 0.15099998E+02  0.15403E+06
 0.15150000E+02  0.18399E+06
 0.15199999E+02  0.24117E+06
 0.15249998E+02  0.11521E+06
 0.15299999E+02  0.19865E+06
 0.15349998E+02  0.28832E+06
 0.15400000E+02  0.24416E+06
 0.15449999E+02  0.12105E+06
 0.15499998E+02  0.17693E+06
 0.15549999E+02  0.33596E+06
 0.15599998E+02  0.23528E+06
 0.15650000E+02  0.39106E+06
 0.15699999E+02  0.50511E+06
 0.15749998E+02  0.41963E+06
 0.15799999E+02  0.44057E+06
 0.15849998E+02  0.54945E+06
 0.15900000E+02  0.46558E+06
 0.15949999E+02  0.43863E+06
 0.15999998E+02  0.41488E+06
 0.16049999E+02  0.24910E+06
 0.16099998E+02  0.40004E+05
 0.16150000E+02  0.64035E+04
 0.16199999E+02  0.16305E+06
 0.16249998E+02 -0.17222E+05
 0.16299999E+02 -0.15189E+06
 0.16349998E+02 -0.27955E+06
 0.16400000E+02 -0.51435E+05
 0.16449999E+02  0.51024E+05
 0.16499998E+02 -0.12306E+06
 0.16549999E+02  0.57641E+05
 0.16599998E+02  0.54651E+06
 0.16650000E+02  0.72011E+06
 0.16699999E+02  0.36262E+06
 0.16749998E+02  0.44159E+06
 0.16799999E+02  0.53060E+06
 0.16849998E+02  0.20482E+06
 0.16900000E+02 -0.21233E+06
 0.16949999E+02 -0.35472E+06
 0.16999998E+02 -0.40017E+06
 0.17049999E+02 -0.58796E+06
 0.17099998E+02 -0.55375E+06
 0.17150000E+02 -0.53518E+06
 0.17199999E+02 -0.48228E+06
 0.17249998E+02 -0.38433E+06
 0.17299999E+02 -0.26527E+06
 0.17349998E+02  0.43128E+04
 0.17400000E+02  0.30083E+06
 0.17449999E+02  0.23321E+06
 0.17499998E+02  0.36695E+05
 0.17549999E+02  0.14940E+06
 0.17599998E+02  0.23360E+06
 0.17650000E+02 -0.27452E+05
 0.17699999E+02 -0.27240E+06
 0.17749998E+02 -0.13701E+06
 0.17799999E+02  0.51014E+05
 0.17849998E+02 -0.15736E+06
 0.17900000E+02 -0.30971E+06
 0.17949999E+02 -0.70217E+05
 0.17999998E+02  0.11814E+06
 0.18049999E+02  0.10182E+06
 0.18099998E+02 -0.24218E+06
 0.18150000E+02 -0.29947E+06
 0.18199999E+02 -0.13911E+06
 0.18249998E+02 -0.27872E+06
 0.18299999E+02 -0.50018E+06
 0.18349998E+02 -0.47355E+06
 0.18400000E+02 -0.28571E+06
 0.18449999E+02 -0.15467E+06
 0.18499998E+02  0.18636E+05
 0.18549999E+02  0.22931E+06
 0.18599998E+02  0.38669E+06
 0.18650000E+02  0.14999E+06
 0.18699999E+02 -0.11804E+05
 0.18749998E+02  0.14558E+05
 0.18799999E+02  0.23886E+04
 0.18849998E+02 -0.75255E+05
 0.18900000E+02 -0.49460E+05
 0.18949999E+02  0.23606E+05
 0.18999998E+02  0.16156E+05
 0.19049999E+02 -0.52350E+06
 0.19099998E+02 -0.16871E+07
 0.19150000E+02 -0.28647E+07
 0.19199999E+02 -0.37404E+07
 0.19249998E+02 -0.32891E+07
 0.19299999E+02 -0.19560E+07
 0.19349998E+02 -0.71399E+06
 0.19400000E+02  0.42930E+06
 0.19449999E+02  0.88605E+06
 0.19499998E+02  0.61005E+06
 0.19549999E+02  0.67701E+06
 0.19599998E+02  0.65512E+06
 0.19650000E+02  0.14190E+07
 0.19699999E+02  0.21642E+07
 0.19749998E+02  0.14559E+07
 0.19799999E+02  0.50874E+06
 0.19849998E+02 -0.74728E+05
 0.19900000E+02 -0.63945E+06
 0.19949999E+02 -0.91661E+06
 0.19999998E+02 -0.87120E+06
 0.20049999E+02 -0.97848E+06
 0.20099998E+02 -0.86976E+06
 0.20150000E+02 -0.10349E+07
 0.20199999E+02 -0.12991E+07
 0.20249998E+02 -0.13149E+07
 0.20299999E+02 -0.65566E+06
 0.20349998E+02 -0.11608E+06
 0.20399998E+02  0.14073E+06
 0.20449999E+02  0.72096E+06
 0.20499998E+02  0.59476E+06
 0.20549999E+02 -0.20200E+06
 0.20599998E+02 -0.39383E+06
 0.20649998E+02 -0.25477E+06
 0.20699999E+02 -0.53849E+06
 0.20749998E+02 -0.45311E+06
 0.20799999E+02 -0.74890E+06
 0.20849998E+02 -0.18533E+07
 0.20899998E+02 -0.17219E+07
 0.20949999E+02 -0.39222E+06
 0.20999998E+02  0.76467E+06
 0.21049999E+02  0.12663E+07
 0.21099998E+02  0.10742E+07
 0.21149998E+02  0.56760E+06
 0.21199999E+02 -0.48624E+06
 0.21249998E+02 -0.61256E+06
 0.21299999E+02  0.18161E+06
 0.21349998E+02  0.61145E+06
 0.21399998E+02  0.99165E+06
 0.21449999E+02  0.11302E+07
 0.21499998E+02  0.54445E+06
 0.21549999E+02 -0.45152E+06
 0.21599998E+02 -0.10593E+07
 0.21649998E+02 -0.11238E+07
 0.21699999E+02 -0.74418E+06
 0.21749998E+02 -0.50370E+06
 0.21799999E+02 -0.59872E+06
 0.21849998E+02 -0.58172E+06
 0.21899998E+02 -0.20101E+06
 0.21949999E+02  0.40083E+05
 0.21999998E+02  0.82277E+05
 0.22049999E+02 -0.65707E+05
 0.22099998E+02  0.83196E+05
 0.22149998E+02  0.77182E+06
 0.22199999E+02  0.13770E+07
 0.22249998E+02  0.21774E+07
 0.22299999E+02  0.26279E+07
 0.22349998E+02  0.18255E+07
 0.22399998E+02  0.42056E+06
 0.22449999E+02 -0.38883E+06
 0.22499998E+02 -0.80498E+05
 0.22549999E+02  0.46906E+06
 0.22599998E+02  0.30729E+06
 0.22649998E+02 -0.23862E+06
 0.22699999E+02 -0.57679E+06
 0.22749998E+02 -0.75873E+06
 0.22799999E+02 -0.85664E+06
 0.22849998E+02 -0.40720E+06
 0.22899998E+02 -0.34285E+06
 0.22949999E+02 -0.94322E+06
 0.22999998E+02 -0.10461E+07
 0.23049999E+02 -0.82489E+06
 0.23099998E+02 -0.45876E+06
 0.23149998E+02 -0.10816E+06
 0.23199999E+02  0.46093E+06
 0.23249998E+02  0.15277E+07
 0.23299999E+02  0.19267E+07
 0.23349998E+02  0.98538E+06
 0.23399998E+02  0.68823E+05
 0.23449999E+02 -0.24631E+06
 0.23499998E+02 -0.52952E+06
 0.23549999E+02 -0.43856E+06
 0.23599998E+02 -0.11841E+06
 0.23649998E+02 -0.48297E+05
 0.23699999E+02 -0.37997E+06
 0.23749998E+02 -0.51190E+06
 0.23799999E+02 -0.46437E+06
 0.23849998E+02 -0.55549E+06
 0.23899998E+02 -0.64080E+06
 0.23949999E+02 -0.64923E+06
 0.23999998E+02 -0.58513E+06
 0.24049999E+02 -0.28778E+06
 0.24099998E+02  0.16904E+06
 0.24149998E+02  0.35613E+06
 0.24199999E+02  0.40696E+06
 0.24249998E+02  0.91184E+05
 0.24299999E+02  0.18954E+06
 0.24349998E+02  0.72925E+06
 0.24399998E+02  0.66406E+06
 0.24449999E+02  0.27762E+06
 0.24499998E+02 -0.20230E+06
 0.24549999E+02 -0.69246E+06
 0.24599998E+02 -0.57018E+06
 0.24649998E+02 -0.15816E+06
 0.24699999E+02  0.38764E+05
 0.24749998E+02  0.68681E+05
 0.24799999E+02 -0.44886E+06
 0.24849998E+02 -0.92754E+06
 0.24899998E+02 -0.76023E+06
 0.24949999E+02 -0.46746E+06
 0.24999998E+02 -0.37125E+06
 0.25049999E+02  0.12101E+06
 0.25099998E+02  0.58074E+06
 0.25149998E+02  0.63814E+06
 0.25199999E+02  0.45856E+06
 0.25249998E+02  0.81228E+05
 0.25299999E+02 -0.46508E+05
 0.25349998E+02 -0.27162E+05
 0.25399998E+02  0.10792E+06
 0.25449999E+02  0.23656E+06
 0.25499998E+02  0.39810E+06
 0.25549999E+02  0.24437E+06
 0.25599998E+02  0.34853E+05
 0.25649998E+02  0.30228E+06
 0.25699999E+02  0.42413E+06
 0.25749998E+02  0.26215E+06
 0.25799999E+02  0.20387E+06
 0.25849998E+02  0.14705E+06
 0.25899998E+02  0.48326E+06
 0.25949999E+02  0.94653E+06
 0.25999998E+02  0.82652E+06
 0.26049999E+02  0.42939E+06
 0.26099998E+02 -0.15094E+06
 0.26149998E+02 -0.41728E+06
 0.26199999E+02 -0.29384E+06
 0.26249998E+02 -0.92604E+04
 0.26299999E+02  0.12714E+06
 0.26349998E+02 -0.17783E+06
 0.26399998E+02 -0.52595E+06
 0.26449999E+02 -0.43141E+06
 0.26499998E+02  0.54252E+05
 0.26549999E+02  0.63957E+06
 0.26599998E+02  0.87940E+06
 0.26649998E+02  0.57468E+06
 0.26699999E+02  0.66079E+05
 0.26749998E+02 -0.49038E+06
 0.26799999E+02 -0.64710E+06
 0.26849998E+02 -0.41433E+06
 0.26899998E+02 -0.10471E+06
 0.26949999E+02  0.14156E+06
 0.26999998E+02  0.31770E+06
 0.27049997E+02  0.40776E+06
 0.27099998E+02  0.38933E+06
 0.27149998E+02  0.34954E+06
 0.27199999E+02  0.31925E+06
 0.27249998E+02  0.26417E+06
 0.27299997E+02  0.30080E+06
 0.27349998E+02  0.39074E+06
 0.27399998E+02  0.23199E+06
 0.27449999E+02 -0.10537E+06
 0.27499998E+02 -0.57980E+06
 0.27549997E+02 -0.87997E+06
 0.27599998E+02 -0.79443E+06
 0.27649998E+02 -0.31542E+06
 0.27699999E+02  0.43019E+06
 0.27749998E+02  0.95282E+06
 0.27799997E+02  0.99652E+06
 0.27849998E+02  0.76785E+06
 0.27899998E+02  0.58083E+06
 0.27949999E+02  0.56649E+06
 0.27999998E+02  0.60969E+06
 0.28049997E+02  0.75709E+06
 0.28099998E+02  0.10552E+07
 0.28149998E+02  0.11347E+07
 0.28199999E+02  0.90945E+06
 0.28249998E+02  0.47584E+06
 0.28299997E+02  0.14857E+06
 0.28349998E+02  0.89406E+05
 0.28399998E+02  0.17113E+06
 0.28449999E+02  0.40374E+06
 0.28499998E+02  0.52131E+06
 0.28549997E+02  0.39748E+06
 0.28599998E+02  0.33610E+06
 0.28649998E+02  0.33313E+06
 0.28699999E+02  0.40866E+06
 0.28749998E+02  0.50684E+06
 0.28799997E+02  0.43050E+06
 0.28849998E+02  0.48608E+06
 0.28899998E+02  0.60828E+06
 0.28949999E+02  0.63534E+06
 0.28999998E+02  0.46485E+06
 0.29049997E+02  0.95431E+05
 0.29099998E+02  0.84568E+04
 0.29149998E+02  0.15070E+06
 0.29199999E+02  0.22435E+06
 0.29249998E+02  0.24198E+05
 0.29299997E+02 -0.24074E+06
 0.29349998E+02 -0.35287E+06
 0.29399998E+02 -0.51179E+06
 0.29449999E+02 -0.52844E+06
 0.29499998E+02 -0.38691E+06
 0.29549997E+02 -0.34232E+06
 0.29599998E+02 -0.38600E+06
 0.29649998E+02 -0.47940E+06
 0.29699999E+02 -0.48842E+06
 0.29749998E+02 -0.40779E+06
 0.29799997E+02 -0.34017E+06
 0.29849998E+02 -0.15099E+06
 0.29899998E+02  0.20689E+05
 0.29949999E+02  0.10372E+06
 0.29999998E+02  0.10888E+06
 0.30049999E+02 -0.53546E+05
 0.30099998E+02 -0.28458E+06
 0.30149998E+02 -0.38088E+06
 0.30199997E+02 -0.30932E+06
 0.30249996E+02 -0.17303E+06
 0.30299999E+02  0.61417E+04
 0.30349998E+02  0.69501E+05
 0.30399998E+02 -0.20094E+06
 0.30449997E+02 -0.51483E+06
 0.30499996E+02 -0.37758E+06
 0.30549999E+02 -0.48268E+05
 0.30599998E+02  0.57128E+05
 0.30649998E+02  0.10379E+06
 0.30699997E+02  0.19455E+06
 0.30749996E+02  0.32600E+06
 0.30799999E+02  0.45598E+06
 0.30849998E+02  0.49432E+06
 0.30899998E+02  0.44929E+06
 0.30949997E+02  0.35799E+06
 0.30999996E+02  0.21137E+06
 0.31049999E+02  0.23325E+05
 0.31099998E+02 -0.21683E+06
 0.31149998E+02 -0.39700E+06
 0.31199997E+02 -0.35070E+06
 0.31249996E+02 -0.28517E+06
 0.31299999E+02 -0.28576E+06
 0.31349998E+02 -0.26028E+06
 0.31399998E+02 -0.51216E+05
 0.31449997E+02  0.16818E+06
 0.31499996E+02  0.17992E+06
 0.31549999E+02  0.30418E+05
 0.31599998E+02 -0.68376E+05
 0.31649998E+02 -0.20991E+04
 0.31699997E+02  0.63923E+05
 0.31749996E+02  0.57921E+05
 0.31799999E+02  0.97791E+05
 0.31849998E+02  0.19882E+06
 0.31899998E+02  0.19474E+06
 0.31949997E+02  0.18545E+06
 0.31999996E+02  0.16678E+06
 0.32049999E+02  0.61855E+05
 0.32099998E+02 -0.10991E+06
 0.32149998E+02 -0.32812E+06
 0.32199997E+02 -0.49556E+06
 0.32249996E+02 -0.56698E+06
 0.32299999E+02 -0.66966E+06
 0.32349998E+02 -0.68915E+06
 0.32399998E+02 -0.55036E+06
 0.32449997E+02 -0.50826E+06
 0.32499996E+02 -0.59455E+06
 0.32549999E+02 -0.72577E+06
 0.32599998E+02 -0.87133E+06
 0.32649998E+02 -0.91527E+06
 0.32699997E+02 -0.68900E+06
 0.32749996E+02 -0.27489E+06
 0.32799999E+02 -0.38918E+05
 0.32849998E+02 -0.10744E+05
 0.32899998E+02  0.12732E+06
 0.32949997E+02  0.36983E+06
 0.32999996E+02  0.41578E+06
 0.33049999E+02  0.42719E+06
 0.33099998E+02  0.51670E+06
 0.33149998E+02  0.52974E+06
 0.33199997E+02  0.55370E+06
 0.33249996E+02  0.55575E+06
 0.33299999E+02  0.56911E+06
 0.33349998E+02  0.53779E+06
 0.33399998E+02  0.33820E+06
 0.33449997E+02  0.84664E+05
 0.33499996E+02 -0.15614E+06
 0.33549999E+02 -0.46146E+06
 0.33599998E+02 -0.63680E+06
 0.33649998E+02 -0.63129E+06
 0.33699997E+02 -0.72556E+06
 0.33749996E+02 -0.79795E+06
 0.33799999E+02 -0.72581E+06
 0.33849998E+02 -0.50162E+06
 0.33899998E+02 -0.26347E+06
 0.33949997E+02 -0.11343E+06
 0.33999996E+02  0.10382E+06
 0.34049999E+02  0.39673E+06
 0.34099998E+02  0.70143E+06
 0.34149998E+02  0.88370E+06
 0.34199997E+02  0.84333E+06
 0.34249996E+02  0.72736E+06
 0.34299999E+02  0.56038E+06
 0.34349998E+02  0.43941E+06
 0.34399998E+02  0.40620E+06
 0.34449997E+02  0.19177E+06
 0.34499996E+02  0.44447E+05
 0.34549999E+02  0.47495E+05
 0.34599998E+02  0.27382E+05
 0.34649998E+02  0.55692E+04
 0.34699997E+02 -0.67665E+05
 0.34749996E+02 -0.16556E+06
 0.34799999E+02 -0.22780E+06
 0.34849998E+02 -0.15736E+06
 0.34899998E+02  0.39655E+04
 0.34949997E+02  0.23832E+06
 0.34999996E+02  0.44096E+06
 0.35049999E+02  0.39809E+06
 0.35099998E+02  0.12104E+06
 0.35149998E+02 -0.19543E+06
 0.35199997E+02 -0.34600E+06
 0.35249996E+02 -0.35319E+06
 0.35299999E+02 -0.25942E+06
 0.35349998E+02 -0.14685E+06
 0.35399998E+02 -0.78266E+05
 0.35449997E+02  0.90712E+05
 0.35499996E+02  0.28358E+06
 0.35549999E+02  0.41839E+06
 0.35599998E+02  0.42624E+06
 0.35649998E+02  0.25775E+06
 0.35699997E+02  0.11300E+06
 0.35749996E+02  0.50157E+05
 0.35799999E+02  0.10379E+06
 0.35849998E+02  0.26162E+06
 0.35899998E+02  0.28900E+06
 0.35949997E+02  0.29662E+06
 0.35999996E+02  0.37584E+06
 0.36049999E+02  0.22173E+06
 0.36099998E+02 -0.11000E+06
 0.36149998E+02 -0.47541E+06
 0.36199997E+02 -0.78607E+06
 0.36249996E+02 -0.93800E+06
 0.36299999E+02 -0.90290E+06
 0.36349998E+02 -0.73023E+06
 0.36399998E+02 -0.55586E+06
 0.36449997E+02 -0.41864E+06
 0.36499996E+02 -0.29424E+06
 0.36549999E+02 -0.18720E+06
 0.36599998E+02 -0.10582E+06
 0.36649998E+02 -0.15422E+05
 0.36699997E+02  0.17020E+06
 0.36749996E+02  0.40675E+06
 0.36799999E+02  0.46774E+06
 0.36849998E+02  0.36731E+06
 0.36899998E+02  0.16667E+06
 0.36949997E+02 -0.47246E+05
 0.36999996E+02 -0.17489E+06
 0.37049999E+02 -0.14772E+06
 0.37099998E+02  0.66104E+05
 0.37149998E+02  0.20977E+06
 0.37199997E+02  0.18724E+06
 0.37249996E+02  0.68771E+05
 0.37299999E+02 -0.75485E+05
 0.37349998E+02 -0.17244E+06
 0.37399998E+02 -0.34291E+06
 0.37449997E+02 -0.43433E+06
 0.37499996E+02 -0.32623E+06
 0.37549999E+02 -0.13601E+06
 0.37599998E+02  0.67007E+05
 0.37649998E+02  0.18716E+06
 0.37699997E+02  0.21134E+06
 0.37749996E+02  0.19437E+06
 0.37799999E+02  0.12464E+06
 0.37849998E+02 -0.34804E+05
 0.37899998E+02 -0.84843E+05
 0.37949997E+02 -0.49176E+05
 0.37999996E+02 -0.77784E+04
 0.38049999E+02  0.21345E+05
 0.38099998E+02 -0.84217E+05
 0.38149998E+02 -0.21590E+06
 0.38199997E+02 -0.23429E+06
 0.38249996E+02 -0.16118E+06
 0.38299999E+02 -0.87238E+04
 0.38349998E+02  0.17263E+06
 0.38399998E+02  0.28594E+06
 0.38449997E+02  0.34099E+06
 0.38499996E+02  0.40480E+06
 0.38549999E+02  0.45240E+06
 0.38599998E+02  0.42787E+06
 0.38649998E+02  0.30371E+06
 0.38699997E+02  0.15722E+06
 0.38749996E+02  0.14595E+06
 0.38799999E+02  0.13468E+06
 0.38849998E+02  0.24178E+05
 0.38899998E+02 -0.48260E+05
 0.38949997E+02 -0.10026E+06
 0.38999996E+02 -0.14668E+06
 0.39049999E+02 -0.45480E+05
 0.39099998E+02  0.72798E+05
 0.39149998E+02  0.13910E+06
 0.39199997E+02  0.17693E+06
 0.39249996E+02  0.15249E+06
 0.39299999E+02  0.13210E+06
 0.39349998E+02  0.11345E+06
 0.39399998E+02  0.14902E+06
 0.39449997E+02  0.26920E+06
 0.39499996E+02  0.38482E+06
 0.39549999E+02  0.33134E+06
 0.39599998E+02  0.14949E+06
 0.39649998E+02 -0.41807E+05
 0.39699997E+02 -0.16459E+06
 0.39749996E+02 -0.91721E+05
 0.39799999E+02  0.32103E+05
 0.39849998E+02  0.13375E+06
 0.39899998E+02  0.27635E+06
 0.39949997E+02  0.39629E+06
 0.39999996E+02  0.47763E+06
 0.40049999E+02  0.45207E+06
 0.40099998E+02  0.28806E+06
 0.40149998E+02  0.10864E+06
 0.40199997E+02 -0.49653E+05
 0.40249996E+02 -0.19099E+06
 0.40299999E+02 -0.29170E+06
 0.40349998E+02 -0.38776E+06
 0.40399998E+02 -0.44773E+06
 0.40449997E+02 -0.43024E+06
 0.40499996E+02 -0.36181E+06
 0.40549999E+02 -0.19962E+06
 0.40599998E+02  0.51253E+05
 0.40649998E+02  0.25015E+06
 0.40699997E+02  0.37285E+06
 0.40749996E+02  0.41169E+06
 0.40799999E+02  0.43923E+06
 0.40849998E+02  0.47922E+06
 0.40899998E+02  0.42099E+06
 0.40949997E+02  0.26139E+06
 0.40999996E+02  0.92859E+05
 0.41049999E+02 -0.36695E+05
 0.41099998E+02 -0.16014E+06
 0.41149998E+02 -0.18542E+06
 0.41199997E+02 -0.17128E+06
 0.41249996E+02 -0.22257E+06
 0.41299999E+02 -0.28230E+06
 0.41349998E+02 -0.30688E+06
 0.41399998E+02 -0.32515E+06
 0.41449997E+02 -0.30749E+06
 0.41499996E+02 -0.18454E+06
 0.41549999E+02 -0.88859E+05
 0.41599998E+02 -0.90377E+05
 0.41649998E+02 -0.88958E+05
 0.41699997E+02 -0.12750E+05
 0.41749996E+02  0.66407E+05
 0.41799999E+02  0.78828E+05
 0.41849998E+02  0.98831E+05
 0.41899998E+02  0.15125E+06
 0.41949997E+02  0.17994E+06
 0.41999996E+02  0.21510E+06
 0.42049999E+02  0.29490E+06
 0.42099998E+02  0.34519E+06
 0.42149998E+02  0.36716E+06
 0.42199997E+02  0.33736E+06
 0.42249996E+02  0.19697E+06
 0.42299999E+02  0.23764E+05
 0.42349998E+02 -0.59486E+05
 0.42399998E+02 -0.77909E+05
 0.42449997E+02 -0.13698E+06
 0.42499996E+02 -0.23260E+06
 0.42549999E+02 -0.28317E+06
 0.42599998E+02 -0.25919E+06
 0.42649998E+02 -0.26554E+06
 0.42699997E+02 -0.34771E+06
 0.42749996E+02 -0.49621E+06
 0.42799995E+02 -0.66873E+06
 0.42849998E+02 -0.76703E+06
 0.42899998E+02 -0.79467E+06
 0.42949997E+02 -0.81598E+06
 0.42999996E+02 -0.82519E+06
 0.43049995E+02 -0.80277E+06
 0.43099998E+02 -0.75874E+06
 0.43149998E+02 -0.67743E+06
 0.43199997E+02 -0.54467E+06
 0.43249996E+02 -0.41458E+06
 0.43299995E+02 -0.25656E+06
 0.43349998E+02 -0.39563E+05
 0.43399998E+02  0.12500E+06
 0.43449997E+02  0.18866E+06
 0.43499996E+02  0.19878E+06
 0.43549995E+02  0.20983E+06
 0.43599998E+02  0.22757E+06
 0.43649998E+02  0.22284E+06
 0.43699997E+02  0.15008E+06
 0.43749996E+02  0.25272E+05
 0.43799995E+02 -0.90634E+05
 0.43849998E+02 -0.17639E+06
 0.43899998E+02 -0.24628E+06
 0.43949997E+02 -0.30245E+06
 0.43999996E+02 -0.30454E+06
 0.44049995E+02 -0.25475E+06
 0.44099998E+02 -0.14238E+06
 0.44149998E+02  0.32961E+05
 0.44199997E+02  0.22584E+06
 0.44249996E+02  0.44179E+06
 0.44299995E+02  0.63400E+06
 0.44349998E+02  0.76257E+06
 0.44399998E+02  0.80321E+06
 0.44449997E+02  0.78792E+06
 0.44499996E+02  0.79357E+06
 0.44549995E+02  0.74795E+06
 0.44599998E+02  0.62782E+06
 0.44649998E+02  0.49971E+06
 0.44699997E+02  0.37926E+06
 0.44749996E+02  0.24975E+06
 0.44799995E+02  0.10616E+06
 0.44849998E+02 -0.74480E+05
 0.44899998E+02 -0.28512E+06
 0.44949997E+02 -0.44968E+06
 0.44999996E+02 -0.50841E+06
 0.45049995E+02 -0.45241E+06
 0.45099998E+02 -0.33144E+06
 0.45149998E+02 -0.21812E+06
 0.45199997E+02 -0.16318E+06
 0.45249996E+02 -0.12991E+06
 0.45299995E+02 -0.87560E+05
 0.45349998E+02  0.22745E+04
 0.45399998E+02  0.17100E+06
 0.45449997E+02  0.33578E+06
 0.45499996E+02  0.39404E+06
 0.45549995E+02  0.34325E+06
 0.45599998E+02  0.24755E+06
 0.45649998E+02  0.14588E+06
 0.45699997E+02  0.86138E+05
 0.45749996E+02  0.48529E+05
 0.45799995E+02  0.18122E+05
 0.45849998E+02  0.92446E+04
 0.45899998E+02 -0.38232E+05
 0.45949997E+02 -0.10382E+06
 0.45999996E+02 -0.14778E+06
 0.46049995E+02 -0.17628E+06
 0.46099998E+02 -0.18759E+06
 0.46149998E+02 -0.22249E+06
 0.46199997E+02 -0.27123E+06
 0.46249996E+02 -0.30578E+06
 0.46299995E+02 -0.31961E+06
 0.46349998E+02 -0.29772E+06
 0.46399998E+02 -0.24319E+06
 0.46449997E+02 -0.16802E+06
 0.46499996E+02 -0.94818E+05
 0.46549995E+02 -0.28560E+05
 0.46599998E+02  0.58901E+05
 0.46649998E+02  0.14898E+06
 0.46699997E+02  0.22573E+06
 0.46749996E+02  0.28640E+06
 0.46799995E+02  0.29703E+06
 0.46849998E+02  0.27862E+06
 0.46899998E+02  0.30543E+06
 0.46949997E+02  0.37761E+06
 0.46999996E+02  0.46128E+06
 0.47049995E+02  0.54254E+06
 0.47099998E+02  0.57420E+06
 0.47149998E+02  0.54410E+06
 0.47199997E+02  0.47475E+06
 0.47249996E+02  0.39589E+06
 0.47299995E+02  0.30198E+06
 0.47349998E+02  0.21986E+06
 0.47399998E+02  0.18933E+06
 0.47449997E+02  0.22260E+06
 0.47499996E+02  0.29994E+06
 0.47549995E+02  0.33496E+06
 0.47599998E+02  0.32133E+06
 0.47649998E+02  0.31198E+06
 0.47699997E+02  0.28625E+06
 0.47749996E+02  0.21955E+06
 0.47799995E+02  0.11946E+06
 0.47849998E+02  0.47216E+05
 0.47899998E+02  0.53446E+05
 0.47949997E+02  0.53252E+05
 0.47999996E+02  0.16765E+05
 0.48049995E+02 -0.38907E+05
 0.48099998E+02 -0.12031E+06
 0.48149998E+02 -0.18787E+06
 0.48199997E+02 -0.19836E+06
 0.48249996E+02 -0.15226E+06
 0.48299995E+02 -0.11116E+06
 0.48349998E+02 -0.13225E+06
 0.48399998E+02 -0.18510E+06
 0.48449997E+02 -0.20125E+06
 0.48499996E+02 -0.18854E+06
 0.48549995E+02 -0.19598E+06
 0.48599998E+02 -0.20406E+06
 0.48649998E+02 -0.19745E+06
 0.48699997E+02 -0.22831E+06
 0.48749996E+02 -0.25802E+06
 0.48799995E+02 -0.25755E+06
 0.48849998E+02 -0.25340E+06
 0.48899998E+02 -0.23304E+06
 0.48949997E+02 -0.20792E+06
 0.48999996E+02 -0.18261E+06
 0.49049995E+02 -0.17425E+06
 0.49099998E+02 -0.17486E+06
 0.49149998E+02 -0.15533E+06
 0.49199997E+02 -0.11838E+06
 0.49249996E+02 -0.59247E+05
 0.49299995E+02 -0.14473E+05
 0.49349998E+02  0.15021E+04
 0.49399998E+02 -0.64866E+04
 0.49449997E+02 -0.46863E+05
 0.49499996E+02 -0.97685E+05
 0.49549995E+02 -0.14761E+06
 0.49599998E+02 -0.17774E+06
 0.49649998E+02 -0.16289E+06
 0.49699997E+02 -0.12559E+06
 0.49749996E+02 -0.11642E+06
 0.49799995E+02 -0.12773E+06
 0.49849998E+02 -0.12571E+06
 0.49899998E+02 -0.11687E+06
 0.49949997E+02 -0.10791E+06
 0.49999996E+02 -0.90358E+05
 0.50049995E+02 -0.53585E+05
 0.50099998E+02  0.21535E+05
 0.50149998E+02  0.11710E+06
 0.50199997E+02  0.21324E+06
 0.50249996E+02  0.29357E+06
 0.50299995E+02  0.30946E+06
 0.50349998E+02  0.27255E+06
 0.50399998E+02  0.22512E+06
 0.50449997E+02  0.19652E+06
 0.50499996E+02  0.19943E+06
 0.50549995E+02  0.21936E+06
 0.50599998E+02  0.25199E+06
 0.50649998E+02  0.28568E+06
 0.50699997E+02  0.31544E+06
 0.50749996E+02  0.32427E+06
 0.50799995E+02  0.31054E+06
 0.50849998E+02  0.26472E+06
 0.50899998E+02  0.20585E+06
 0.50949997E+02  0.17818E+06
 0.50999996E+02  0.15822E+06
 0.51049995E+02  0.15357E+06
 0.51099998E+02  0.16614E+06
 0.51149998E+02  0.17091E+06
 0.51199997E+02  0.15260E+06
 0.51249996E+02  0.11918E+06
 0.51299995E+02  0.90240E+05
 0.51349998E+02  0.74552E+05
 0.51399998E+02  0.75864E+05
 0.51449997E+02  0.94809E+05
 0.51499996E+02  0.10885E+06
 0.51549995E+02  0.10640E+06
 0.51599998E+02  0.11100E+06
 0.51649998E+02  0.81356E+05
 0.51699997E+02 -0.15586E+05
 0.51749996E+02 -0.11002E+06
 0.51799995E+02 -0.17594E+06
 0.51849998E+02 -0.23023E+06
 0.51899998E+02 -0.25764E+06
 0.51949997E+02 -0.27059E+06
 0.51999996E+02 -0.29663E+06
 0.52049995E+02 -0.35313E+06
 0.52099998E+02 -0.40626E+06
 0.52149998E+02 -0.43389E+06
 0.52199997E+02 -0.45502E+06
 0.52249996E+02 -0.48000E+06
 0.52299995E+02 -0.49380E+06
 0.52349998E+02 -0.48525E+06
 0.52399998E+02 -0.47585E+06
 0.52449997E+02 -0.48931E+06
 0.52499996E+02 -0.50703E+06
 0.52549995E+02 -0.50593E+06
 0.52599998E+02 -0.48602E+06
 0.52649998E+02 -0.43690E+06
 0.52699997E+02 -0.36241E+06
 0.52749996E+02 -0.26491E+06
 0.52799995E+02 -0.15309E+06
 0.52849998E+02 -0.53588E+05
 0.52899998E+02  0.14304E+05
 0.52949997E+02  0.80871E+05
 0.52999996E+02  0.14879E+06
 0.53049995E+02  0.19135E+06
 0.53099998E+02  0.20051E+06
 0.53149998E+02  0.20223E+06
 0.53199997E+02  0.20381E+06
 0.53249996E+02  0.19071E+06
 0.53299995E+02  0.17236E+06
 0.53349998E+02  0.14882E+06
 0.53399998E+02  0.15328E+06
 0.53449997E+02  0.16851E+06
 0.53499996E+02  0.17864E+06
 0.53549995E+02  0.19673E+06
 0.53599998E+02  0.21317E+06
 0.53649998E+02  0.26350E+06
 0.53699997E+02  0.36507E+06
 0.53749996E+02  0.46511E+06
 0.53799995E+02  0.52900E+06
 0.53849998E+02  0.55857E+06
 0.53899998E+02  0.55290E+06
 0.53949997E+02  0.52996E+06
 0.53999996E+02  0.50762E+06
 0.54049995E+02  0.49081E+06
 0.54099998E+02  0.48879E+06
 0.54149998E+02  0.47185E+06
 0.54199997E+02  0.40166E+06
 0.54249996E+02  0.26577E+06
 0.54299995E+02  0.89852E+05
 0.54349998E+02 -0.10034E+06
 0.54399998E+02 -0.28414E+06
 0.54449997E+02 -0.42467E+06
 0.54499996E+02 -0.52996E+06
 0.54549995E+02 -0.61857E+06
 0.54599998E+02 -0.69798E+06
 0.54649998E+02 -0.75245E+06
 0.54699997E+02 -0.76040E+06
 0.54749996E+02 -0.73356E+06
 0.54799995E+02 -0.68037E+06
 0.54849998E+02 -0.60027E+06
 0.54899998E+02 -0.54267E+06
 0.54949997E+02 -0.53193E+06
 0.54999996E+02 -0.53948E+06
 0.55049995E+02 -0.53916E+06
 0.55099998E+02 -0.51212E+06
 0.55149998E+02 -0.45592E+06
 0.55199997E+02 -0.36462E+06
 0.55249996E+02 -0.24322E+06
 0.55299995E+02 -0.14494E+06
 0.55349998E+02 -0.83588E+05
 0.55399998E+02 -0.19996E+05
 0.55449997E+02  0.51673E+05
 0.55499996E+02  0.13085E+06
 0.55549995E+02  0.20644E+06
 0.55599998E+02  0.25505E+06
 0.55649998E+02  0.26258E+06
 0.55699997E+02  0.25398E+06
 0.55749996E+02  0.26589E+06
 0.55799995E+02  0.29147E+06
 0.55849995E+02  0.31277E+06
 0.55899998E+02  0.32071E+06
 0.55949997E+02  0.31611E+06
 0.55999996E+02  0.30222E+06
 0.56049995E+02  0.26718E+06
 0.56099995E+02  0.22056E+06
 0.56149998E+02  0.18401E+06
 0.56199997E+02  0.15851E+06
 0.56249996E+02  0.15492E+06
 0.56299995E+02  0.18582E+06
 0.56349995E+02  0.23866E+06
 0.56399998E+02  0.27840E+06
 0.56449997E+02  0.28275E+06
 0.56499996E+02  0.26225E+06
 0.56549995E+02  0.21298E+06
 0.56599995E+02  0.15322E+06
 0.56649998E+02  0.12752E+06
 0.56699997E+02  0.12572E+06
 0.56749996E+02  0.11695E+06
 0.56799995E+02  0.10123E+06
 0.56849995E+02  0.10564E+06
 0.56899998E+02  0.12867E+06
 0.56949997E+02  0.15387E+06
 0.56999996E+02  0.17517E+06
 0.57049995E+02  0.18389E+06
 0.57099995E+02  0.18217E+06
 0.57149998E+02  0.15344E+06
 0.57199997E+02  0.88756E+05
 0.57249996E+02  0.28455E+05
 0.57299995E+02 -0.13818E+05
 0.57349995E+02 -0.52648E+05
 0.57399998E+02 -0.90789E+05
 0.57449997E+02 -0.13717E+06
 0.57499996E+02 -0.15951E+06
 0.57549995E+02 -0.14117E+06
 0.57599995E+02 -0.94499E+05
 0.57649998E+02 -0.22608E+05
 0.57699997E+02  0.45528E+05
 0.57749996E+02  0.90762E+05
 0.57799995E+02  0.91871E+05
 0.57849995E+02  0.49460E+05
 0.57899998E+02  0.85153E+04
 0.57949997E+02 -0.27507E+05
 0.57999996E+02 -0.76723E+05
 0.58049995E+02 -0.14598E+06
 0.58099995E+02 -0.24275E+06
 0.58149998E+02 -0.33485E+06
 0.58199997E+02 -0.38402E+06
 0.58249996E+02 -0.38574E+06
 0.58299995E+02 -0.32964E+06
 0.58349995E+02 -0.23614E+06
 0.58399998E+02 -0.13617E+06
 0.58449997E+02 -0.15683E+05
 0.58499996E+02  0.12547E+06
 0.58549995E+02  0.25142E+06
 0.58599995E+02  0.34082E+06
 0.58649998E+02  0.37899E+06
 0.58699997E+02  0.35934E+06
 0.58749996E+02  0.33259E+06
 0.58799995E+02  0.33061E+06
 0.58849995E+02  0.34286E+06
 0.58899998E+02  0.34231E+06
 0.58949997E+02  0.31386E+06
 0.58999996E+02  0.27997E+06
 0.59049995E+02  0.25670E+06
 0.59099995E+02  0.24868E+06
 0.59149998E+02  0.24746E+06
 0.59199997E+02  0.24117E+06
 0.59249996E+02  0.23479E+06
 0.59299995E+02  0.23580E+06
 0.59349995E+02  0.24002E+06
 0.59399998E+02  0.23657E+06
 0.59449997E+02  0.23569E+06
 0.59499996E+02  0.24438E+06
 0.59549995E+02  0.23733E+06
 0.59599995E+02  0.19419E+06
 0.59649998E+02  0.11445E+06
 0.59699997E+02  0.77530E+04
 0.59749996E+02 -0.10804E+06
 0.59799995E+02 -0.21264E+06
 0.59849995E+02 -0.28325E+06
 0.59899998E+02 -0.32144E+06
 0.59949997E+02 -0.35273E+06
 0.59999996E+02 -0.38414E+06
 0.60049995E+02 -0.39471E+06
 0.60099995E+02 -0.36840E+06
 0.60149998E+02 -0.30764E+06
 0.60199997E+02 -0.20717E+06
 0.60249996E+02 -0.81128E+05
 0.60299995E+02  0.37633E+05
 0.60349995E+02  0.14019E+06
 0.60399998E+02  0.23065E+06
 0.60449997E+02  0.30968E+06
 0.60499996E+02  0.38791E+06
 0.60549995E+02  0.45673E+06
 0.60599995E+02  0.48873E+06
 0.60649998E+02  0.45811E+06
 0.60699997E+02  0.36227E+06
 0.60749996E+02  0.22154E+06
 0.60799995E+02  0.65971E+05
 0.60849995E+02 -0.67974E+05
 0.60899998E+02 -0.16030E+06
 0.60949997E+02 -0.21764E+06
 0.60999996E+02 -0.25303E+06
 0.61049995E+02 -0.28068E+06
 0.61099995E+02 -0.31657E+06
 0.61149998E+02 -0.33648E+06
 0.61199997E+02 -0.32562E+06
 0.61249996E+02 -0.29710E+06
 0.61299995E+02 -0.25671E+06
 0.61349995E+02 -0.19910E+06
 0.61399998E+02 -0.12406E+06
 0.61449997E+02 -0.43261E+05
 0.61499996E+02  0.26793E+05
 0.61549995E+02  0.72243E+05
 0.61599995E+02  0.94492E+05
 0.61649998E+02  0.10672E+06
 0.61699997E+02  0.11065E+06
 0.61749996E+02  0.10233E+06
 0.61799995E+02  0.89270E+05
 0.61849995E+02  0.69553E+05
 0.61899998E+02  0.44787E+05
 0.61949997E+02  0.20287E+05
 0.61999996E+02  0.69401E+04
 0.62049995E+02 -0.70885E+04
 0.62099998E+02 -0.20637E+05
 0.62149994E+02 -0.92236E+04
 0.62199997E+02  0.18306E+05
 0.62249992E+02  0.59027E+05
 0.62299995E+02  0.10807E+06
 0.62349998E+02  0.15442E+06
 0.62399994E+02  0.18366E+06
 0.62449997E+02  0.17089E+06
 0.62499992E+02  0.11482E+06
 0.62549995E+02  0.35855E+05
 0.62599998E+02 -0.31412E+05
 0.62649994E+02 -0.81733E+05
 0.62699997E+02 -0.14018E+06
 0.62749992E+02 -0.21615E+06
 0.62799995E+02 -0.29231E+06
 0.62849998E+02 -0.34470E+06
 0.62899994E+02 -0.37200E+06
 0.62949997E+02 -0.36457E+06
 0.62999992E+02 -0.32111E+06
 0.63049995E+02 -0.24836E+06
 0.63099998E+02 -0.16977E+06
 0.63149994E+02 -0.11258E+06
 0.63199997E+02 -0.83576E+05
 0.63249992E+02 -0.77379E+05
 0.63299995E+02 -0.77515E+05
 0.63349998E+02 -0.70784E+05
 0.63399994E+02 -0.49259E+05
 0.63449997E+02 -0.20050E+05
 0.63499992E+02  0.36611E+04
 0.63549995E+02  0.13852E+05
 0.63599998E+02  0.16937E+05
 0.63649994E+02  0.17869E+05
 0.63699997E+02  0.14555E+05
 0.63749992E+02  0.23851E+04
 0.63799995E+02 -0.11518E+05
 0.63849998E+02 -0.27167E+05
 0.63899994E+02 -0.56256E+05
 0.63949997E+02 -0.10158E+06
 0.63999992E+02 -0.16494E+06
 0.64049995E+02 -0.23700E+06
 0.64099998E+02 -0.28715E+06
 0.64149994E+02 -0.29897E+06
 0.64199997E+02 -0.27451E+06
 0.64249992E+02 -0.21473E+06
 0.64299995E+02 -0.13026E+06
 0.64349998E+02 -0.34075E+05
 0.64399994E+02  0.64711E+05
 0.64449997E+02  0.15858E+06
 0.64499992E+02  0.23365E+06
 0.64549995E+02  0.28663E+06
 0.64599998E+02  0.32341E+06
 0.64649994E+02  0.34123E+06
 0.64699997E+02  0.32789E+06
 0.64749992E+02  0.28517E+06
 0.64799995E+02  0.21497E+06
 0.64849998E+02  0.12962E+06
 0.64899994E+02  0.65388E+05
 0.64949997E+02  0.29712E+05
 0.64999992E+02  0.87940E+04
 0.65049995E+02  0.23368E+03
 0.65099998E+02  0.96143E+04
 0.65149994E+02  0.32400E+05
 0.65199997E+02  0.65383E+05
 0.65249992E+02  0.10108E+06
 0.65299995E+02  0.12210E+06
 0.65349998E+02  0.12797E+06
 0.65399994E+02  0.12027E+06
 0.65449997E+02  0.94485E+05
 0.65499992E+02  0.63032E+05
 0.65549995E+02  0.40971E+05
 0.65599998E+02  0.29324E+05
 0.65649994E+02  0.27337E+05
 0.65699997E+02  0.23304E+05
 0.65749992E+02 -0.12536E+04
 0.65799995E+02 -0.30698E+05
 0.65849998E+02 -0.41745E+05
 0.65899994E+02 -0.28732E+05
 0.65949997E+02  0.64507E+04
 0.65999992E+02  0.46281E+05
 0.66049995E+02  0.72576E+05
 0.66099998E+02  0.81237E+05
 0.66149994E+02  0.72233E+05
 0.66199997E+02  0.41944E+05
 0.66249992E+02 -0.10281E+05
 0.66299995E+02 -0.67683E+05
 0.66349998E+02 -0.11147E+06
 0.66399994E+02 -0.14232E+06
 0.66449997E+02 -0.16881E+06
 0.66499992E+02 -0.19488E+06
 0.66549995E+02 -0.21417E+06
 0.66599998E+02 -0.22879E+06
 0.66649994E+02 -0.23310E+06
 0.66699997E+02 -0.21962E+06
 0.66749992E+02 -0.18710E+06
 0.66799995E+02 -0.13406E+06
 0.66849998E+02 -0.77368E+05
 0.66899994E+02 -0.42766E+05
 0.66949997E+02 -0.41627E+05
 0.66999992E+02 -0.52957E+05
 0.67049995E+02 -0.51670E+05
 0.67099998E+02 -0.34003E+05
 0.67149994E+02 -0.15784E+05
 0.67199997E+02 -0.55259E+04
 0.67249992E+02 -0.49709E+04
 0.67299995E+02 -0.13157E+05
 0.67349998E+02 -0.20450E+05
 0.67399994E+02 -0.23053E+05
 0.67449997E+02 -0.11441E+05
 0.67499992E+02  0.71813E+04
 0.67549995E+02  0.16083E+05
 0.67599998E+02  0.14831E+05
 0.67649994E+02  0.59907E+04
 0.67699997E+02 -0.84313E+04
 0.67749992E+02 -0.26461E+05
 0.67799995E+02 -0.43381E+05
 0.67849998E+02 -0.60203E+05
 0.67899994E+02 -0.82695E+05
 0.67949997E+02 -0.10534E+06
 0.67999992E+02 -0.11442E+06
 0.68049995E+02 -0.10156E+06
 0.68099998E+02 -0.75439E+05
 0.68149994E+02 -0.55668E+05
 0.68199997E+02 -0.50283E+05
 0.68249992E+02 -0.55848E+05
 0.68299995E+02 -0.61297E+05
 0.68349998E+02 -0.58123E+05
 0.68399994E+02 -0.45355E+05
 0.68449997E+02 -0.21482E+05
 0.68499992E+02  0.88922E+04
 0.68549995E+02  0.49310E+05
 0.68599998E+02  0.10607E+06
 0.68649994E+02  0.16268E+06
 0.68699997E+02  0.20235E+06
 0.68749992E+02  0.22311E+06
 0.68799995E+02  0.22931E+06
 0.68849998E+02  0.22955E+06
 0.68899994E+02  0.22877E+06
 0.68949997E+02  0.22550E+06
 0.68999992E+02  0.21399E+06
 0.69049995E+02  0.19332E+06
 0.69099998E+02  0.17551E+06
 0.69149994E+02  0.16507E+06
 0.69199997E+02  0.15292E+06
 0.69249992E+02  0.13623E+06
 0.69299995E+02  0.12064E+06
 0.69349998E+02  0.11514E+06
 0.69399994E+02  0.13064E+06
 0.69449997E+02  0.16153E+06
 0.69499992E+02  0.18607E+06
 0.69549995E+02  0.18471E+06
 0.69599998E+02  0.15364E+06
 0.69649994E+02  0.11316E+06
 0.69699997E+02  0.91010E+05
 0.69749992E+02  0.92118E+05
 0.69799995E+02  0.11105E+06
 0.69849998E+02  0.13196E+06
 0.69899994E+02  0.12955E+06
 0.69949997E+02  0.10991E+06
 0.69999992E+02  0.81492E+05
 0.70049995E+02  0.45163E+05
 0.70099998E+02  0.73138E+04
 0.70149994E+02 -0.13082E+05
 0.70199997E+02 -0.94148E+04
 0.70249992E+02  0.82062E+04
 0.70299995E+02  0.34511E+05
 0.70349998E+02  0.59542E+05
 0.70399994E+02  0.76673E+05
 0.70449997E+02  0.71931E+05
 0.70499992E+02  0.48427E+05
 0.70549995E+02  0.16876E+05
 0.70599998E+02 -0.24020E+05
 0.70649994E+02 -0.68670E+05
 0.70699997E+02 -0.10813E+06
 0.70749992E+02 -0.13343E+06
 0.70799995E+02 -0.14266E+06
 0.70849998E+02 -0.13812E+06
 0.70899994E+02 -0.12988E+06
 0.70949997E+02 -0.13758E+06
 0.70999992E+02 -0.15242E+06
 0.71049995E+02 -0.15457E+06
 0.71099998E+02 -0.13653E+06
 0.71149994E+02 -0.97738E+05
 0.71199997E+02 -0.53893E+05
 0.71249992E+02 -0.23175E+05
 0.71299995E+02 -0.72833E+04
 0.71349998E+02  0.24248E+04
 0.71399994E+02  0.79689E+04
 0.71449997E+02  0.12893E+05
 0.71499992E+02  0.11049E+05
 0.71549995E+02  0.38618E+04
 0.71599998E+02 -0.80997E+04
 0.71649994E+02 -0.27797E+05
 0.71699997E+02 -0.51472E+05
 0.71749992E+02 -0.77574E+05
 0.71799995E+02 -0.10104E+06
 0.71849998E+02 -0.11918E+06
 0.71899994E+02 -0.13079E+06
 0.71949997E+02 -0.14239E+06
 0.71999992E+02 -0.14736E+06
 0.72049995E+02 -0.13715E+06
 0.72099998E+02 -0.10529E+06
 0.72149994E+02 -0.48127E+05
 0.72199997E+02  0.19836E+05
 0.72249992E+02  0.85061E+05
 0.72299995E+02  0.14340E+06
 0.72349998E+02  0.19451E+06
 0.72399994E+02  0.23011E+06
 0.72449997E+02  0.24302E+06
 0.72499992E+02  0.24485E+06
 0.72549995E+02  0.24509E+06
 0.72599998E+02  0.23539E+06
 0.72649994E+02  0.21413E+06
 0.72699997E+02  0.19191E+06
 0.72749992E+02  0.17912E+06
 0.72799995E+02  0.18098E+06
 0.72849998E+02  0.18900E+06
 0.72899994E+02  0.19490E+06
 0.72949997E+02  0.19572E+06
 0.72999992E+02  0.18923E+06
 0.73049995E+02  0.17663E+06
 0.73099998E+02  0.15200E+06
 0.73149994E+02  0.11016E+06
 0.73199997E+02  0.60927E+05
 0.73249992E+02  0.16195E+05
 0.73299995E+02 -0.31118E+05
 0.73349998E+02 -0.90486E+05
 0.73399994E+02 -0.14715E+06
 0.73449997E+02 -0.18317E+06
 0.73499992E+02 -0.20101E+06
 0.73549995E+02 -0.20656E+06
 0.73599998E+02 -0.20437E+06
 0.73649994E+02 -0.20960E+06
 0.73699997E+02 -0.22584E+06
 0.73749992E+02 -0.23872E+06
 0.73799995E+02 -0.23819E+06
 0.73849998E+02 -0.22925E+06
 0.73899994E+02 -0.21989E+06
 0.73949997E+02 -0.21600E+06
 0.73999992E+02 -0.22625E+06
 0.74049995E+02 -0.24430E+06
 0.74099998E+02 -0.25650E+06
 0.74149994E+02 -0.25920E+06
 0.74199997E+02 -0.24713E+06
 0.74249992E+02 -0.21963E+06
 0.74299995E+02 -0.19310E+06
 0.74349998E+02 -0.17365E+06
 0.74399994E+02 -0.15561E+06
 0.74449997E+02 -0.14155E+06
 0.74499992E+02 -0.13940E+06
 0.74549995E+02 -0.14999E+06
 0.74599998E+02 -0.16477E+06
 0.74649994E+02 -0.18267E+06
 0.74699997E+02 -0.20251E+06
 0.74749992E+02 -0.21364E+06
 0.74799995E+02 -0.21032E+06
 0.74849998E+02 -0.19291E+06
 0.74899994E+02 -0.16263E+06
 0.74949997E+02 -0.11991E+06
 0.74999992E+02 -0.67592E+05
 0.75049995E+02 -0.75999E+04
 0.75099998E+02  0.61332E+05
 0.75149994E+02  0.13016E+06
 0.75199997E+02  0.17763E+06
 0.75249992E+02  0.19462E+06
 0.75299995E+02  0.19069E+06
 0.75349998E+02  0.17639E+06
 0.75399994E+02  0.15831E+06
 0.75449997E+02  0.13385E+06
 0.75499992E+02  0.10211E+06
 0.75549995E+02  0.67836E+05
 0.75599998E+02  0.35594E+05
 0.75649994E+02  0.15320E+05
 0.75699997E+02  0.12695E+05
 0.75749992E+02  0.22564E+05
 0.75799995E+02  0.39265E+05
 0.75849998E+02  0.53186E+05
 0.75899994E+02  0.61391E+05
 0.75949997E+02  0.68638E+05
 0.75999992E+02  0.77292E+05
 0.76049995E+02  0.94295E+05
 0.76099998E+02  0.11583E+06
 0.76149994E+02  0.12843E+06
 0.76199997E+02  0.12884E+06
 0.76249992E+02  0.12302E+06
 0.76299995E+02  0.11257E+06
 0.76349998E+02  0.94967E+05
 0.76399994E+02  0.74759E+05
 0.76449997E+02  0.57472E+05
 0.76499992E+02  0.38621E+05
 0.76549995E+02  0.86213E+04
 0.76599998E+02 -0.29958E+05
 0.76649994E+02 -0.67312E+05
 0.76699997E+02 -0.97866E+05
 0.76749992E+02 -0.11959E+06
 0.76799995E+02 -0.13364E+06
 0.76849998E+02 -0.14390E+06
 0.76899994E+02 -0.15154E+06
 0.76949997E+02 -0.15547E+06
 0.76999992E+02 -0.16303E+06
 0.77049995E+02 -0.17849E+06
 0.77099998E+02 -0.20429E+06
 0.77149994E+02 -0.23914E+06
 0.77199997E+02 -0.27322E+06
 0.77249992E+02 -0.29555E+06
 0.77299995E+02 -0.29831E+06
 0.77349998E+02 -0.27846E+06
 0.77399994E+02 -0.24525E+06
 0.77449997E+02 -0.21501E+06
 0.77499992E+02 -0.19720E+06
 0.77549995E+02 -0.18550E+06
 0.77599998E+02 -0.15990E+06
 0.77649994E+02 -0.11045E+06
 0.77699997E+02 -0.44486E+05
 0.77749992E+02  0.25413E+05
 0.77799995E+02  0.89550E+05
 0.77849998E+02  0.13632E+06
 0.77899994E+02  0.16643E+06
 0.77949997E+02  0.18891E+06
 0.77999992E+02  0.21155E+06
 0.78049995E+02  0.23317E+06
 0.78099998E+02  0.24844E+06
 0.78149994E+02  0.26043E+06
 0.78199997E+02  0.26772E+06
 0.78249992E+02  0.26888E+06
 0.78299995E+02  0.26946E+06
 0.78349998E+02  0.26731E+06
 0.78399994E+02  0.25378E+06
 0.78449997E+02  0.23144E+06
 0.78499992E+02  0.20348E+06
 0.78549995E+02  0.17008E+06
 0.78599998E+02  0.12926E+06
 0.78649994E+02  0.86355E+05
 0.78699997E+02  0.46162E+05
 0.78749992E+02  0.10561E+05
 0.78799995E+02 -0.16513E+05
 0.78849998E+02 -0.37436E+05
 0.78899994E+02 -0.58615E+05
 0.78949997E+02 -0.80488E+05
 0.78999992E+02 -0.96653E+05
 0.79049995E+02 -0.10625E+06
 0.79099998E+02 -0.11114E+06
 0.79149994E+02 -0.11977E+06
 0.79199997E+02 -0.13882E+06
 0.79249992E+02 -0.17048E+06
 0.79299995E+02 -0.21076E+06
 0.79349998E+02 -0.24571E+06
 0.79399994E+02 -0.26008E+06
 0.79449997E+02 -0.25290E+06
 0.79499992E+02 -0.23301E+06
 0.79549995E+02 -0.20318E+06
 0.79599998E+02 -0.16894E+06
 0.79649994E+02 -0.13189E+06
 0.79699997E+02 -0.87631E+05
 0.79749992E+02 -0.36824E+05
 0.79799995E+02  0.14299E+05
 0.79849998E+02  0.57225E+05
 0.79899994E+02  0.90195E+05
 0.79949997E+02  0.11724E+06
 0.79999992E+02  0.14209E+06
 0.80049995E+02  0.16316E+06
 0.80099998E+02  0.17238E+06
 0.80149994E+02  0.16890E+06
 0.80199997E+02  0.15541E+06
 0.80249992E+02  0.13744E+06
 0.80299995E+02  0.12285E+06
 0.80349998E+02  0.11037E+06
 0.80399994E+02  0.96803E+05
 0.80449997E+02  0.84663E+05
 0.80499992E+02  0.72697E+05
 0.80549995E+02  0.54100E+05
 0.80599998E+02  0.32394E+05
 0.80649994E+02  0.14276E+05
 0.80699997E+02  0.40902E+04
 0.80749992E+02  0.10960E+04
 0.80799995E+02  0.53243E+03
 0.80849998E+02  0.69111E+03
 0.80899994E+02  0.42211E+04
 0.80949997E+02  0.19801E+05
 0.80999992E+02  0.48198E+05
 0.81049995E+02  0.80652E+05
 0.81099998E+02  0.10865E+06
 0.81149994E+02  0.12142E+06
 0.81199997E+02  0.11827E+06
 0.81249992E+02  0.11222E+06
 0.81299995E+02  0.10906E+06
 0.81349998E+02  0.99427E+05
 0.81399994E+02  0.73675E+05
 0.81449997E+02  0.38111E+05
 0.81499992E+02  0.44581E+04
 0.81549995E+02 -0.18180E+05
 0.81599998E+02 -0.28497E+05
 0.81649994E+02 -0.33332E+05
 0.81699997E+02 -0.33491E+05
 0.81749992E+02 -0.20405E+05
 0.81799995E+02  0.88309E+04
 0.81849998E+02  0.49383E+05
 0.81899994E+02  0.93762E+05
 0.81949997E+02  0.13553E+06
 0.81999992E+02  0.16927E+06
 0.82049995E+02  0.18460E+06
 0.82099998E+02  0.17534E+06
 0.82149994E+02  0.14168E+06
 0.82199997E+02  0.92560E+05
 0.82249992E+02  0.40504E+05
 0.82299995E+02 -0.67570E+04
 0.82349998E+02 -0.48773E+05
 0.82399994E+02 -0.86695E+05
 0.82449997E+02 -0.11756E+06
 0.82499992E+02 -0.13970E+06
 0.82549995E+02 -0.15026E+06
 0.82599998E+02 -0.14734E+06
 0.82649994E+02 -0.13535E+06
 0.82699997E+02 -0.11830E+06
 0.82749992E+02 -0.92373E+05
 0.82799995E+02 -0.53823E+05
 0.82849998E+02 -0.42455E+04
 0.82899994E+02  0.48434E+05
 0.82949997E+02  0.98630E+05
 0.82999992E+02  0.14382E+06
 0.83049995E+02  0.17649E+06
 0.83099998E+02  0.19027E+06
 0.83149994E+02  0.18356E+06
 0.83199997E+02  0.16282E+06
 0.83249992E+02  0.13837E+06
 0.83299995E+02  0.11660E+06
 0.83349998E+02  0.95666E+05
 0.83399994E+02  0.74515E+05
 0.83449997E+02  0.56742E+05
 0.83499992E+02  0.44009E+05
 0.83549995E+02  0.38049E+05
 0.83599998E+02  0.36447E+05
 0.83649994E+02  0.33894E+05
 0.83699997E+02  0.26913E+05
 0.83749992E+02  0.13725E+05
 0.83799995E+02 -0.41876E+04
 0.83849998E+02 -0.21797E+05
 0.83899994E+02 -0.36430E+05
 0.83949997E+02 -0.49032E+05
 0.83999992E+02 -0.66602E+05
 0.84049995E+02 -0.94491E+05
 0.84099998E+02 -0.12955E+06
 0.84149994E+02 -0.16916E+06
 0.84199997E+02 -0.20769E+06
 0.84249992E+02 -0.23829E+06
 0.84299995E+02 -0.25822E+06
 0.84349998E+02 -0.26546E+06
 0.84399994E+02 -0.26176E+06
 0.84449997E+02 -0.24800E+06
 0.84499992E+02 -0.22082E+06
 0.84549995E+02 -0.18308E+06
 0.84599998E+02 -0.14106E+06
 0.84649994E+02 -0.96265E+05
 0.84699997E+02 -0.49655E+05
 0.84749992E+02 -0.47793E+04
 0.84799995E+02  0.33408E+05
 0.84849998E+02  0.56756E+05
 0.84899994E+02  0.67245E+05
 0.84949997E+02  0.73092E+05
 0.84999992E+02  0.75547E+05
 0.85049995E+02  0.71586E+05
 0.85099998E+02  0.59026E+05
 0.85149994E+02  0.41234E+05
 0.85199997E+02  0.24996E+05
 0.85249992E+02  0.16105E+05
 0.85299995E+02  0.16026E+05
 0.85349998E+02  0.21270E+05
 0.85399994E+02  0.28622E+05
 0.85449997E+02  0.35861E+05
 0.85499992E+02  0.39225E+05
 0.85549995E+02  0.37131E+05
 0.85599998E+02  0.30856E+05
 0.85649994E+02  0.23144E+05
 0.85699997E+02  0.14211E+05
 0.85749992E+02  0.24492E+04
 0.85799995E+02 -0.93069E+04
 0.85849998E+02 -0.11033E+05
 0.85899994E+02  0.15987E+04
 0.85949997E+02  0.27258E+05
 0.85999992E+02  0.58242E+05
 0.86049995E+02  0.84723E+05
 0.86099998E+02  0.10363E+06
 0.86149994E+02  0.11918E+06
 0.86199997E+02  0.13694E+06
 0.86249992E+02  0.15137E+06
 0.86299995E+02  0.15431E+06
 0.86349998E+02  0.14815E+06
 0.86399994E+02  0.13946E+06
 0.86449997E+02  0.13089E+06
 0.86499992E+02  0.12130E+06
 0.86549995E+02  0.10776E+06
 0.86599998E+02  0.93132E+05
 0.86649994E+02  0.79637E+05
 0.86699997E+02  0.67055E+05
 0.86749992E+02  0.51295E+05
 0.86799995E+02  0.31300E+05
 0.86849998E+02  0.12935E+05
 0.86899994E+02  0.26913E+04
 0.86949997E+02  0.32930E+04
 0.86999992E+02  0.10163E+05
 0.87049995E+02  0.20450E+05
 0.87099998E+02  0.34640E+05
 0.87149994E+02  0.53976E+05
 0.87199997E+02  0.75094E+05
 0.87249992E+02  0.90257E+05
 0.87299995E+02  0.97898E+05
 0.87349998E+02  0.10335E+06
 0.87399994E+02  0.10665E+06
 0.87449997E+02  0.10172E+06
 0.87499992E+02  0.85107E+05
 0.87549995E+02  0.58342E+05
 0.87599991E+02  0.26294E+05
 0.87649994E+02 -0.72081E+04
 0.87699997E+02 -0.35792E+05
 0.87749992E+02 -0.57243E+05
 0.87799995E+02 -0.73281E+05
 0.87849991E+02 -0.87288E+05
 0.87899994E+02 -0.10228E+06
 0.87949997E+02 -0.11347E+06
 0.87999992E+02 -0.11863E+06
 0.88049995E+02 -0.12311E+06
 0.88099991E+02 -0.13398E+06
 0.88149994E+02 -0.14940E+06
 0.88199997E+02 -0.16654E+06
 0.88249992E+02 -0.18222E+06
 0.88299995E+02 -0.19093E+06
 0.88349991E+02 -0.19451E+06
 0.88399994E+02 -0.19757E+06
 0.88449997E+02 -0.20300E+06
 0.88499992E+02 -0.20597E+06
 0.88549995E+02 -0.20221E+06
 0.88599991E+02 -0.19335E+06
 0.88649994E+02 -0.18280E+06
 0.88699997E+02 -0.17363E+06
 0.88749992E+02 -0.16959E+06
 0.88799995E+02 -0.17521E+06
 0.88849991E+02 -0.18591E+06
 0.88899994E+02 -0.19194E+06
 0.88949997E+02 -0.19021E+06
 0.88999992E+02 -0.18347E+06
 0.89049995E+02 -0.17517E+06
 0.89099991E+02 -0.17198E+06
 0.89149994E+02 -0.17428E+06
 0.89199997E+02 -0.17529E+06
 0.89249992E+02 -0.17044E+06
 0.89299995E+02 -0.16144E+06
 0.89349991E+02 -0.15035E+06
 0.89399994E+02 -0.13231E+06
 0.89449997E+02 -0.10478E+06
 0.89499992E+02 -0.73859E+05
 0.89549995E+02 -0.43093E+05
 0.89599991E+02 -0.10513E+05
 0.89649994E+02  0.19397E+05
 0.89699997E+02  0.39998E+05
 0.89749992E+02  0.52374E+05
 0.89799995E+02  0.62919E+05
 0.89849991E+02  0.72105E+05
 0.89899994E+02  0.75539E+05
 0.89949997E+02  0.71515E+05
 0.89999992E+02  0.64590E+05
 0.90049995E+02  0.60845E+05
 0.90099991E+02  0.60862E+05
 0.90149994E+02  0.59336E+05
 0.90199997E+02  0.54850E+05
 0.90249992E+02  0.52415E+05
 0.90299995E+02  0.51832E+05
 0.90349991E+02  0.49376E+05
 0.90399994E+02  0.42339E+05
 0.90449997E+02  0.30704E+05
 0.90499992E+02  0.18203E+05
 0.90549995E+02  0.97731E+04
 0.90599991E+02  0.54744E+04
 0.90649994E+02  0.95057E+03
 0.90699997E+02 -0.62963E+04
 0.90749992E+02 -0.14262E+05
 0.90799995E+02 -0.18203E+05
 0.90849991E+02 -0.17758E+05
 0.90899994E+02 -0.16855E+05
 0.90949997E+02 -0.15898E+05
 0.90999992E+02 -0.10413E+05
 0.91049995E+02  0.24963E+04
 0.91099991E+02  0.17549E+05
 0.91149994E+02  0.25530E+05
 0.91199997E+02  0.22559E+05
 0.91249992E+02  0.10332E+05
 0.91299995E+02 -0.44900E+04
 0.91349991E+02 -0.13563E+05
 0.91399994E+02 -0.16806E+05
 0.91449997E+02 -0.15251E+05
 0.91499992E+02 -0.54623E+04
 0.91549995E+02  0.15149E+05
 0.91599991E+02  0.45554E+05
 0.91649994E+02  0.82885E+05
 0.91699997E+02  0.12621E+06
 0.91749992E+02  0.17442E+06
 0.91799995E+02  0.22483E+06
 0.91849991E+02  0.27117E+06
 0.91899994E+02  0.30790E+06
 0.91949997E+02  0.33234E+06
 0.91999992E+02  0.34224E+06
 0.92049995E+02  0.33542E+06
 0.92099991E+02  0.31484E+06
 0.92149994E+02  0.28803E+06
 0.92199997E+02  0.26144E+06
 0.92249992E+02  0.23789E+06
 0.92299995E+02  0.21766E+06
 0.92349991E+02  0.20169E+06
 0.92399994E+02  0.18942E+06
 0.92449997E+02  0.17618E+06
 0.92499992E+02  0.15841E+06
 0.92549995E+02  0.13485E+06
 0.92599991E+02  0.10563E+06
 0.92649994E+02  0.72835E+05
 0.92699997E+02  0.40113E+05
 0.92749992E+02  0.12762E+05
 0.92799995E+02 -0.81276E+04
 0.92849991E+02 -0.24365E+05
 0.92899994E+02 -0.41371E+05
 0.92949997E+02 -0.62527E+05
 0.92999992E+02 -0.82840E+05
 0.93049995E+02 -0.98093E+05
 0.93099991E+02 -0.10895E+06
 0.93149994E+02 -0.11792E+06
 0.93199997E+02 -0.12654E+06
 0.93249992E+02 -0.13554E+06
 0.93299995E+02 -0.14682E+06
 0.93349991E+02 -0.16085E+06
 0.93399994E+02 -0.17413E+06
 0.93449997E+02 -0.18490E+06
 0.93499992E+02 -0.19445E+06
 0.93549995E+02 -0.20272E+06
 0.93599991E+02 -0.21142E+06
 0.93649994E+02 -0.21966E+06
 0.93699997E+02 -0.22454E+06
 0.93749992E+02 -0.22602E+06
 0.93799995E+02 -0.22113E+06
 0.93849991E+02 -0.21039E+06
 0.93899994E+02 -0.19497E+06
 0.93949997E+02 -0.17219E+06
 0.93999992E+02 -0.14282E+06
 0.94049995E+02 -0.10998E+06
 0.94099991E+02 -0.79491E+05
 0.94149994E+02 -0.56118E+05
 0.94199997E+02 -0.40540E+05
 0.94249992E+02 -0.31743E+05
 0.94299995E+02 -0.24455E+05
 0.94349991E+02 -0.12049E+05
 0.94399994E+02  0.28427E+04
 0.94449997E+02  0.14162E+05
 0.94499992E+02  0.21908E+05
 0.94549995E+02  0.26835E+05
 0.94599991E+02  0.27878E+05
 0.94649994E+02  0.23105E+05
 0.94699997E+02  0.13924E+05
 0.94749992E+02  0.52864E+04
 0.94799995E+02 -0.25372E+03
 0.94849991E+02 -0.12045E+04
 0.94899994E+02  0.37455E+04
 0.94949997E+02  0.11581E+05
 0.94999992E+02  0.18271E+05
 0.95049995E+02  0.22547E+05
 0.95099991E+02  0.25685E+05
 0.95149994E+02  0.27795E+05
 0.95199997E+02  0.27074E+05
 0.95249992E+02  0.25375E+05
 0.95299995E+02  0.25597E+05
 0.95349991E+02  0.26777E+05
 0.95399994E+02  0.27091E+05
 0.95449997E+02  0.23712E+05
 0.95499992E+02  0.16489E+05
 0.95549995E+02  0.91470E+04
 0.95599991E+02  0.31000E+04
 0.95649994E+02 -0.37789E+03
 0.95699997E+02 -0.81570E+03
 0.95749992E+02 -0.15686E+04
 0.95799995E+02 -0.60909E+04
 0.95849991E+02 -0.10763E+05
 0.95899994E+02 -0.11072E+05
 0.95949997E+02 -0.50666E+04
 0.95999992E+02  0.83894E+04
 0.96049995E+02  0.24034E+05
 0.96099991E+02  0.37092E+05
 0.96149994E+02  0.46926E+05
 0.96199997E+02  0.54339E+05
 0.96249992E+02  0.58826E+05
 0.96299995E+02  0.56923E+05
 0.96349991E+02  0.48950E+05
 0.96399994E+02  0.38679E+05
 0.96449997E+02  0.28455E+05
 0.96499992E+02  0.18088E+05
 0.96549995E+02  0.89300E+04
 0.96599991E+02  0.26805E+04
 0.96649994E+02 -0.15674E+04
 0.96699997E+02 -0.72556E+04
 0.96749992E+02 -0.15226E+05
 0.96799995E+02 -0.24694E+05
 0.96849991E+02 -0.37005E+05
 0.96899994E+02 -0.46794E+05
 0.96949997E+02 -0.49793E+05
 0.96999992E+02 -0.50206E+05
 0.97049995E+02 -0.53257E+05
 0.97099991E+02 -0.58331E+05
 0.97149994E+02 -0.60542E+05
 0.97199997E+02 -0.57654E+05
 0.97249992E+02 -0.52057E+05
 0.97299995E+02 -0.49377E+05
 0.97349991E+02 -0.52263E+05
 0.97399994E+02 -0.57588E+05
 0.97449997E+02 -0.62599E+05
 0.97499992E+02 -0.68888E+05
 0.97549995E+02 -0.76739E+05
 0.97599991E+02 -0.84167E+05
 0.97649994E+02 -0.92535E+05
 0.97699997E+02 -0.10345E+06
 0.97749992E+02 -0.11369E+06
 0.97799995E+02 -0.11886E+06
 0.97849991E+02 -0.11998E+06
 0.97899994E+02 -0.12127E+06
 0.97949997E+02 -0.12640E+06
 0.97999992E+02 -0.13468E+06
