-0.20000000E+01 -0.31530E+04
-0.19500000E+01 -0.31321E+04
-0.19000000E+01 -0.31491E+04
-0.18500000E+01 -0.31543E+04
-0.18000000E+01 -0.31492E+04
-0.17500000E+01 -0.31401E+04
-0.17000000E+01 -0.31337E+04
-0.16500001E+01 -0.31312E+04
-0.16000000E+01 -0.31272E+04
-0.15500000E+01 -0.31263E+04
-0.15000000E+01 -0.31312E+04
-0.14500000E+01 -0.31345E+04
-0.14000001E+01 -0.31377E+04
-0.13500000E+01 -0.31435E+04
-0.13000001E+01 -0.31484E+04
-0.12500000E+01 -0.31434E+04
-0.12000000E+01 -0.31392E+04
-0.11500001E+01 -0.31394E+04
-0.11000000E+01 -0.31389E+04
-0.10500001E+01 -0.31376E+04
-0.10000000E+01 -0.31398E+04
-0.95000005E+00 -0.31379E+04
-0.90000010E+00 -0.31326E+04
-0.85000002E+00 -0.31258E+04
-0.80000007E+00 -0.31198E+04
-0.75000012E+00 -0.31219E+04
-0.70000005E+00 -0.31215E+04
-0.65000010E+00 -0.31149E+04
-0.60000014E+00 -0.31129E+04
-0.55000007E+00 -0.31167E+04
-0.50000012E+00 -0.31219E+04
-0.45000005E+00 -0.31318E+04
-0.40000010E+00 -0.31348E+04
-0.35000014E+00 -0.31347E+04
-0.30000007E+00 -0.31369E+04
-0.25000012E+00 -0.31407E+04
-0.20000005E+00 -0.31443E+04
-0.15000010E+00 -0.31456E+04
-0.10000014E+00 -0.31473E+04
-0.50000072E-01 -0.31536E+04
-0.11920929E-06 -0.31626E+04
 0.49999952E-01 -0.31681E+04
 0.99999905E-01 -0.31736E+04
 0.14999986E+00 -0.31742E+04
 0.19999981E+00 -0.31730E+04
 0.24999976E+00 -0.31724E+04
 0.29999995E+00 -0.31680E+04
 0.34999990E+00 -0.31637E+04
 0.39999986E+00 -0.31691E+04
 0.44999981E+00 -0.31745E+04
 0.49999976E+00 -0.31715E+04
 0.54999995E+00 -0.31685E+04
 0.59999990E+00 -0.31593E+04
 0.64999986E+00 -0.31479E+04
 0.69999981E+00 -0.31388E+04
 0.74999976E+00 -0.31348E+04
 0.79999971E+00 -0.31351E+04
 0.84999990E+00 -0.31314E+04
 0.89999986E+00 -0.31280E+04
 0.94999981E+00 -0.31262E+04
 0.99999976E+00 -0.31244E+04
 0.10499997E+01 -0.31227E+04
 0.10999999E+01 -0.31248E+04
 0.11499999E+01 -0.31309E+04
 0.11999998E+01 -0.31385E+04
 0.12499998E+01 -0.31451E+04
 0.12999997E+01 -0.31496E+04
 0.13499999E+01 -0.31535E+04
 0.13999999E+01 -0.31527E+04
 0.14499998E+01 -0.31503E+04
 0.14999998E+01 -0.31470E+04
 0.15499997E+01 -0.31428E+04
 0.15999999E+01 -0.31484E+04
 0.16499999E+01 -0.31511E+04
 0.16999998E+01 -0.31482E+04
 0.17499998E+01 -0.31501E+04
 0.17999997E+01 -0.31461E+04
 0.18499997E+01 -0.31454E+04
 0.18999999E+01 -0.31532E+04
 0.19499998E+01 -0.31553E+04
 0.19999998E+01 -0.31508E+04
 0.20499997E+01 -0.31472E+04
 0.20999999E+01 -0.31483E+04
 0.21499996E+01 -0.31525E+04
 0.21999998E+01 -0.31561E+04
 0.22499995E+01 -0.31563E+04
 0.22999997E+01 -0.31603E+04
 0.23499999E+01 -0.31672E+04
 0.23999996E+01 -0.31685E+04
 0.24499998E+01 -0.31669E+04
 0.24999995E+01 -0.31644E+04
 0.25499997E+01 -0.31616E+04
 0.25999999E+01 -0.31636E+04
 0.26499996E+01 -0.31668E+04
 0.26999998E+01 -0.31693E+04
 0.27499995E+01 -0.31660E+04
 0.27999997E+01 -0.31630E+04
 0.28499999E+01 -0.31644E+04
 0.28999996E+01 -0.31566E+04
 0.29499998E+01 -0.31455E+04
 0.29999995E+01 -0.31369E+04
 0.30499997E+01 -0.31312E+04
 0.30999999E+01 -0.31232E+04
 0.31499996E+01 -0.31188E+04
 0.31999998E+01 -0.31157E+04
 0.32499995E+01 -0.31129E+04
 0.32999997E+01 -0.31199E+04
 0.33499999E+01 -0.31264E+04
 0.33999996E+01 -0.31298E+04
 0.34499998E+01 -0.31269E+04
 0.34999995E+01 -0.31275E+04
 0.35499997E+01 -0.31262E+04
 0.35999994E+01 -0.31205E+04
 0.36499996E+01 -0.31117E+04
 0.36999998E+01 -0.31028E+04
 0.37499995E+01 -0.31077E+04
 0.37999997E+01 -0.31200E+04
 0.38499994E+01 -0.31317E+04
 0.38999996E+01 -0.31382E+04
 0.39499998E+01 -0.31415E+04
 0.39999995E+01 -0.31440E+04
 0.40499997E+01 -0.31478E+04
 0.40999994E+01 -0.31474E+04
 0.41499996E+01 -0.31460E+04
 0.41999998E+01 -0.31396E+04
 0.42499995E+01 -0.31376E+04
 0.42999997E+01 -0.31446E+04
 0.43499994E+01 -0.31476E+04
 0.43999996E+01 -0.31469E+04
 0.44499998E+01 -0.31430E+04
 0.44999995E+01 -0.31422E+04
 0.45499997E+01 -0.31432E+04
 0.45999994E+01 -0.31461E+04
 0.46499996E+01 -0.31439E+04
 0.46999998E+01 -0.31432E+04
 0.47499995E+01 -0.31408E+04
 0.47999997E+01 -0.31342E+04
 0.48499994E+01 -0.31335E+04
 0.48999996E+01 -0.31356E+04
 0.49499998E+01 -0.31407E+04
 0.49999995E+01 -0.31496E+04
 0.50499997E+01 -0.31619E+04
 0.50999994E+01 -0.31647E+04
 0.51499996E+01 -0.31687E+04
 0.51999998E+01 -0.31724E+04
 0.52499995E+01 -0.31728E+04
 0.52999997E+01 -0.31739E+04
 0.53499994E+01 -0.31681E+04
 0.53999996E+01 -0.31655E+04
 0.54499993E+01 -0.31584E+04
 0.54999995E+01 -0.31519E+04
 0.55499997E+01 -0.31522E+04
 0.55999994E+01 -0.31473E+04
 0.56499996E+01 -0.31450E+04
 0.56999993E+01 -0.31476E+04
 0.57499995E+01 -0.31490E+04
 0.57999997E+01 -0.31452E+04
 0.58499994E+01 -0.31440E+04
 0.58999996E+01 -0.31417E+04
 0.59499993E+01 -0.31393E+04
 0.59999995E+01 -0.31423E+04
 0.60499992E+01 -0.31436E+04
 0.60999994E+01 -0.31459E+04
 0.61499996E+01 -0.31481E+04
 0.61999998E+01 -0.31517E+04
 0.62499990E+01 -0.31529E+04
 0.62999992E+01 -0.31477E+04
 0.63499994E+01 -0.31419E+04
 0.63999996E+01 -0.31360E+04
 0.64499998E+01 -0.31282E+04
 0.64999990E+01 -0.31247E+04
 0.65499992E+01 -0.31230E+04
 0.65999994E+01 -0.31218E+04
 0.66499996E+01 -0.31250E+04
 0.66999998E+01 -0.31279E+04
 0.67499990E+01 -0.31298E+04
 0.67999992E+01 -0.31364E+04
 0.68499994E+01 -0.31420E+04
 0.68999996E+01 -0.31439E+04
 0.69499998E+01 -0.31440E+04
 0.69999990E+01 -0.31402E+04
 0.70499992E+01 -0.31370E+04
 0.70999994E+01 -0.31345E+04
 0.71499996E+01 -0.31321E+04
 0.71999998E+01 -0.31285E+04
 0.72499990E+01 -0.31265E+04
 0.72999992E+01 -0.31265E+04
 0.73499994E+01 -0.31292E+04
 0.73999996E+01 -0.31382E+04
 0.74499998E+01 -0.31433E+04
 0.74999990E+01 -0.31442E+04
 0.75499992E+01 -0.31478E+04
 0.75999994E+01 -0.31488E+04
 0.76499996E+01 -0.31515E+04
 0.76999998E+01 -0.31540E+04
 0.77499990E+01 -0.31596E+04
 0.77999992E+01 -0.31695E+04
 0.78499994E+01 -0.31717E+04
 0.78999996E+01 -0.31710E+04
 0.79499998E+01 -0.31722E+04
 0.79999990E+01 -0.31723E+04
 0.80499992E+01 -0.31686E+04
 0.80999994E+01 -0.31644E+04
 0.81499996E+01 -0.31580E+04
 0.81999998E+01 -0.31531E+04
 0.82499990E+01 -0.31560E+04
 0.82999992E+01 -0.31605E+04
 0.83499994E+01 -0.31681E+04
 0.83999996E+01 -0.31644E+04
 0.84499998E+01 -0.31592E+04
 0.84999990E+01 -0.31586E+04
 0.85499992E+01 -0.31544E+04
 0.85999994E+01 -0.31522E+04
 0.86499996E+01 -0.31551E+04
 0.86999998E+01 -0.31556E+04
 0.87499990E+01 -0.31505E+04
 0.87999992E+01 -0.31486E+04
 0.88499994E+01 -0.31410E+04
 0.88999996E+01 -0.31350E+04
 0.89499998E+01 -0.31276E+04
 0.89999990E+01 -0.31217E+04
 0.90499992E+01 -0.31204E+04
 0.90999994E+01 -0.31212E+04
 0.91499996E+01 -0.31268E+04
 0.91999989E+01 -0.31330E+04
 0.92499990E+01 -0.31397E+04
 0.92999992E+01 -0.31404E+04
 0.93499994E+01 -0.31362E+04
 0.93999996E+01 -0.31306E+04
 0.94499989E+01 -0.31255E+04
 0.94999990E+01 -0.31276E+04
 0.95499992E+01 -0.31341E+04
 0.95999994E+01 -0.31381E+04
 0.96499996E+01 -0.31384E+04
 0.96999989E+01 -0.31420E+04
 0.97499990E+01 -0.31406E+04
 0.97999992E+01 -0.31367E+04
 0.98499994E+01 -0.31365E+04
 0.98999996E+01 -0.31379E+04
 0.99499989E+01 -0.31436E+04
 0.99999990E+01 -0.31499E+04
 0.10049999E+02 -0.31539E+04
 0.10099999E+02 -0.31576E+04
 0.10150000E+02 -0.31606E+04
 0.10199999E+02 -0.31547E+04
 0.10249999E+02 -0.31529E+04
 0.10299999E+02 -0.31529E+04
 0.10349999E+02 -0.31561E+04
 0.10400000E+02 -0.31547E+04
 0.10449999E+02 -0.31544E+04
 0.10499999E+02 -0.31565E+04
 0.10549999E+02 -0.31534E+04
 0.10599999E+02 -0.31524E+04
 0.10650000E+02 -0.31489E+04
 0.10699999E+02 -0.31500E+04
 0.10749999E+02 -0.31519E+04
 0.10799999E+02 -0.31539E+04
 0.10849999E+02 -0.31489E+04
 0.10900000E+02 -0.31451E+04
 0.10949999E+02 -0.31424E+04
 0.10999999E+02 -0.31384E+04
 0.11049999E+02 -0.31345E+04
 0.11099999E+02 -0.31305E+04
 0.11150000E+02 -0.31326E+04
 0.11199999E+02 -0.31370E+04
 0.11249999E+02 -0.31385E+04
 0.11299999E+02 -0.31357E+04
 0.11349999E+02 -0.31375E+04
 0.11400000E+02 -0.31411E+04
 0.11449999E+02 -0.31424E+04
 0.11499999E+02 -0.31431E+04
 0.11549999E+02 -0.31459E+04
 0.11599999E+02 -0.31511E+04
 0.11650000E+02 -0.31521E+04
 0.11699999E+02 -0.31561E+04
 0.11749999E+02 -0.31564E+04
 0.11799999E+02 -0.31584E+04
 0.11849999E+02 -0.31635E+04
 0.11900000E+02 -0.31645E+04
 0.11949999E+02 -0.31623E+04
 0.11999999E+02 -0.31565E+04
 0.12049999E+02 -0.31564E+04
 0.12099999E+02 -0.31549E+04
 0.12150000E+02 -0.31565E+04
 0.12199999E+02 -0.31521E+04
 0.12249999E+02 -0.31525E+04
 0.12299999E+02 -0.31503E+04
 0.12349999E+02 -0.31490E+04
 0.12400000E+02 -0.31502E+04
 0.12449999E+02 -0.31463E+04
 0.12499999E+02 -0.31506E+04
 0.12549999E+02 -0.31492E+04
 0.12599999E+02 -0.31569E+04
 0.12649999E+02 -0.31596E+04
 0.12699999E+02 -0.31618E+04
 0.12749999E+02 -0.31652E+04
 0.12799999E+02 -0.31638E+04
 0.12849999E+02 -0.31625E+04
 0.12899999E+02 -0.31629E+04
 0.12949999E+02 -0.31670E+04
 0.12999999E+02 -0.31645E+04
 0.13049999E+02 -0.31662E+04
 0.13099999E+02 -0.31614E+04
 0.13149999E+02 -0.31577E+04
 0.13199999E+02 -0.31524E+04
 0.13249999E+02 -0.31414E+04
 0.13299999E+02 -0.31369E+04
 0.13349999E+02 -0.31348E+04
 0.13399999E+02 -0.31323E+04
 0.13449999E+02 -0.31303E+04
 0.13499999E+02 -0.31293E+04
 0.13549999E+02 -0.31270E+04
 0.13599999E+02 -0.31250E+04
 0.13649999E+02 -0.31198E+04
 0.13699999E+02 -0.31199E+04
 0.13749999E+02 -0.31174E+04
 0.13799999E+02 -0.31188E+04
 0.13849999E+02 -0.31191E+04
 0.13899999E+02 -0.31190E+04
 0.13949999E+02 -0.31226E+04
 0.13999999E+02 -0.31239E+04
 0.14049999E+02 -0.31298E+04
 0.14099998E+02 -0.31325E+04
 0.14150000E+02 -0.31358E+04
 0.14199999E+02 -0.31359E+04
 0.14249998E+02 -0.31384E+04
 0.14299999E+02 -0.31340E+04
 0.14349998E+02 -0.31309E+04
 0.14400000E+02 -0.31279E+04
 0.14449999E+02 -0.31205E+04
 0.14499998E+02 -0.31222E+04
 0.14549999E+02 -0.31260E+04
 0.14599998E+02 -0.31324E+04
 0.14650000E+02 -0.31337E+04
 0.14699999E+02 -0.31314E+04
 0.14749998E+02 -0.31340E+04
 0.14799999E+02 -0.31444E+04
 0.14849998E+02 -0.31482E+04
 0.14900000E+02 -0.31612E+04
 0.14949999E+02 -0.31632E+04
 0.14999998E+02 -0.31583E+04
 0.15049999E+02 -0.31323E+04
 0.15099998E+02 -0.31214E+04
 0.15150000E+02 -0.31031E+04
 0.15199999E+02 -0.31019E+04
 0.15249998E+02 -0.30818E+04
 0.15299999E+02 -0.30879E+04
 0.15349998E+02 -0.30704E+04
 0.15400000E+02 -0.31012E+04
 0.15449999E+02 -0.30911E+04
 0.15499998E+02 -0.31821E+04
 0.15549999E+02 -0.32336E+04
 0.15599998E+02 -0.35489E+04
 0.15650000E+02 -0.38910E+04
 0.15699999E+02 -0.41730E+04
 0.15749998E+02 -0.38477E+04
 0.15799999E+02 -0.29437E+04
 0.15849998E+02 -0.18378E+04
 0.15900000E+02 -0.11597E+04
 0.15949999E+02 -0.13685E+04
 0.15999998E+02 -0.24549E+04
 0.16049999E+02 -0.38200E+04
 0.16099998E+02 -0.42481E+04
 0.16150000E+02 -0.41043E+04
 0.16199999E+02 -0.39594E+04
 0.16249998E+02 -0.46435E+04
 0.16299999E+02 -0.34281E+04
 0.16349998E+02 -0.29715E+04
 0.16400000E+02 -0.26825E+04
 0.16449999E+02 -0.49267E+04
 0.16499998E+02 -0.53234E+04
 0.16549999E+02 -0.55416E+04
 0.16599998E+02 -0.30045E+04
 0.16650000E+02  0.22676E+03
 0.16699999E+02 -0.95643E+03
 0.16749998E+02 -0.22609E+04
 0.16799999E+02 -0.61146E+04
 0.16849998E+02 -0.32669E+04
 0.16900000E+02  0.42840E+01
 0.16949999E+02  0.10993E+04
 0.16999998E+02 -0.30513E+04
 0.17049999E+02 -0.41429E+04
 0.17099998E+02 -0.25626E+04
 0.17150000E+02 -0.73043E+04
 0.17199999E+02 -0.56896E+04
 0.17249998E+02 -0.15067E+04
 0.17299999E+02  0.60911E+03
 0.17349998E+02 -0.18678E+04
 0.17400000E+02 -0.40331E+04
 0.17449999E+02 -0.33925E+04
 0.17499998E+02 -0.50880E+04
 0.17549999E+02 -0.27702E+04
 0.17599998E+02 -0.28917E+04
 0.17650000E+02 -0.49402E+04
 0.17699999E+02 -0.17368E+04
 0.17749998E+02 -0.29809E+04
 0.17799999E+02 -0.38898E+04
 0.17849998E+02 -0.53713E+04
 0.17900000E+02 -0.48910E+04
 0.17949999E+02 -0.34326E+04
 0.17999998E+02 -0.51837E+04
 0.18049999E+02 -0.37364E+04
 0.18099998E+02  0.16034E+03
 0.18150000E+02 -0.20413E+03
 0.18199999E+02 -0.62709E+04
 0.18249998E+02 -0.16455E+04
 0.18299999E+02  0.24658E+03
 0.18349998E+02 -0.30340E+04
 0.18400000E+02 -0.40117E+04
 0.18449999E+02 -0.56490E+04
 0.18499998E+02 -0.42978E+04
 0.18549999E+02 -0.18644E+04
 0.18599998E+02 -0.12436E+04
 0.18650000E+02 -0.77251E+03
 0.18699999E+02 -0.14726E+04
 0.18749998E+02 -0.29597E+04
 0.18799999E+02 -0.49083E+04
 0.18849998E+02 -0.52598E+04
 0.18900000E+02 -0.54785E+04
 0.18949999E+02 -0.36131E+04
 0.18999998E+02 -0.35724E+04
 0.19049999E+02 -0.54650E+04
 0.19099998E+02 -0.17788E+04
 0.19150000E+02 -0.64496E+03
 0.19199999E+02 -0.24887E+04
 0.19249998E+02 -0.51145E+03
 0.19299999E+02 -0.97163E+03
 0.19349998E+02 -0.37536E+04
 0.19400000E+02 -0.41775E+04
 0.19449999E+02 -0.59614E+04
 0.19499998E+02 -0.57166E+04
 0.19549999E+02 -0.16055E+04
 0.19599998E+02 -0.23442E+04
 0.19650000E+02 -0.35361E+04
 0.19699999E+02 -0.71517E+03
 0.19749998E+02 -0.51935E+04
 0.19799999E+02 -0.25708E+04
 0.19849998E+02 -0.37489E+04
 0.19900000E+02 -0.87968E+04
 0.19949999E+02 -0.41681E+04
 0.19999998E+02  0.31178E+03
 0.20049999E+02  0.17261E+04
 0.20099998E+02 -0.33377E+04
 0.20150000E+02 -0.62128E+04
 0.20199999E+02 -0.38393E+04
 0.20249998E+02 -0.21261E+04
 0.20299999E+02 -0.21929E+04
 0.20349998E+02 -0.46787E+04
 0.20399998E+02 -0.30479E+04
 0.20449999E+02 -0.41505E+04
 0.20499998E+02 -0.28309E+04
 0.20549999E+02 -0.17770E+04
 0.20599998E+02 -0.22319E+04
 0.20649998E+02 -0.12959E+04
 0.20699999E+02 -0.38892E+04
 0.20749998E+02 -0.21298E+04
 0.20799999E+02 -0.12111E+04
 0.20849998E+02 -0.37805E+04
 0.20899998E+02 -0.52202E+04
 0.20949999E+02 -0.34737E+04
 0.20999998E+02 -0.27565E+04
 0.21049999E+02 -0.39830E+04
 0.21099998E+02 -0.41681E+04
 0.21149998E+02 -0.28170E+04
 0.21199999E+02 -0.24924E+04
 0.21249998E+02 -0.41046E+04
 0.21299999E+02 -0.45492E+04
 0.21349998E+02 -0.51039E+04
 0.21399998E+02 -0.25166E+04
 0.21449999E+02 -0.13594E+04
 0.21499998E+02 -0.23905E+04
 0.21549999E+02 -0.27168E+04
 0.21599998E+02 -0.42977E+04
 0.21649998E+02 -0.13644E+04
 0.21699999E+02 -0.11892E+04
 0.21749998E+02 -0.52193E+04
 0.21799999E+02 -0.39331E+04
 0.21849998E+02 -0.14251E+04
 0.21899998E+02 -0.67030E+04
 0.21949999E+02 -0.63184E+04
 0.21999998E+02  0.61251E+03
 0.22049999E+02  0.46318E+03
 0.22099998E+02 -0.23105E+04
 0.22149998E+02 -0.40002E+04
 0.22199999E+02 -0.43099E+04
 0.22249998E+02 -0.37835E+04
 0.22299999E+02 -0.24426E+04
 0.22349998E+02 -0.28550E+04
 0.22399998E+02 -0.23164E+04
 0.22449999E+02 -0.29656E+04
 0.22499998E+02 -0.40959E+04
 0.22549999E+02 -0.60387E+03
 0.22599998E+02 -0.17318E+04
 0.22649998E+02  0.62670E+03
 0.22699999E+02 -0.50574E+04
 0.22749998E+02 -0.56152E+04
 0.22799999E+02 -0.47433E+04
 0.22849998E+02 -0.68219E+04
 0.22899998E+02 -0.18315E+04
 0.22949999E+02 -0.23074E+04
 0.22999998E+02 -0.34772E+04
 0.23049999E+02 -0.49720E+04
 0.23099998E+02 -0.59747E+03
 0.23149998E+02  0.14850E+04
 0.23199999E+02 -0.38898E+04
 0.23249998E+02 -0.46251E+04
 0.23299999E+02 -0.36310E+04
 0.23349998E+02 -0.27734E+04
 0.23399998E+02 -0.25044E+04
 0.23449999E+02 -0.79650E+04
 0.23499998E+02 -0.48070E+04
 0.23549999E+02  0.98129E+03
 0.23599998E+02  0.25375E+04
 0.23649998E+02 -0.11817E+04
 0.23699999E+02 -0.34128E+04
 0.23749998E+02 -0.31473E+04
 0.23799999E+02 -0.76696E+04
 0.23849998E+02 -0.50121E+04
 0.23899998E+02 -0.23177E+04
 0.23949999E+02 -0.26398E+04
 0.23999998E+02 -0.50536E+04
 0.24049999E+02 -0.36304E+04
 0.24099998E+02  0.15382E+03
 0.24149998E+02 -0.12978E+04
 0.24199999E+02 -0.75709E+03
 0.24249998E+02 -0.37319E+04
 0.24299999E+02 -0.65796E+04
 0.24349998E+02 -0.43316E+04
 0.24399998E+02 -0.15545E+04
 0.24449999E+02 -0.50856E+04
 0.24499998E+02 -0.25428E+04
 0.24549999E+02  0.44914E+03
 0.24599998E+02 -0.66964E+04
 0.24649998E+02 -0.86995E+04
 0.24699999E+02 -0.54554E+04
 0.24749998E+02 -0.33757E+03
 0.24799999E+02 -0.54815E+02
 0.24849998E+02 -0.46521E+04
 0.24899998E+02 -0.12334E+04
 0.24949999E+02 -0.22682E+04
 0.24999998E+02 -0.45906E+04
 0.25049999E+02 -0.28079E+04
 0.25099998E+02 -0.73794E+03
 0.25149998E+02 -0.53042E+04
 0.25199999E+02 -0.31792E+04
 0.25249998E+02 -0.30304E+04
 0.25299999E+02 -0.10377E+05
 0.25349998E+02 -0.18925E+03
 0.25399998E+02  0.28059E+04
 0.25449999E+02 -0.29414E+04
 0.25499998E+02 -0.73565E+04
 0.25549999E+02 -0.85126E+04
 0.25599998E+02 -0.14727E+05
 0.25649998E+02 -0.12362E+05
 0.25699999E+02 -0.53441E+04
 0.25749998E+02  0.55901E+04
 0.25799999E+02  0.15357E+05
 0.25849998E+02  0.48494E+04
 0.25899998E+02 -0.50074E+04
 0.25949999E+02 -0.14255E+05
 0.25999998E+02 -0.18694E+05
 0.26049999E+02 -0.84538E+04
 0.26099998E+02  0.16050E+04
 0.26149998E+02  0.53429E+04
 0.26199999E+02  0.11665E+05
 0.26249998E+02  0.11460E+05
 0.26299999E+02  0.11181E+05
 0.26349998E+02 -0.96325E+04
 0.26399998E+02 -0.21921E+05
 0.26449999E+02 -0.27255E+04
 0.26499998E+02  0.13841E+03
 0.26549999E+02 -0.41995E+04
 0.26599998E+02 -0.68017E+04
 0.26649998E+02 -0.18496E+04
 0.26699999E+02  0.94904E+04
 0.26749998E+02  0.10644E+04
 0.26799999E+02 -0.11054E+05
 0.26849998E+02 -0.14155E+05
 0.26899998E+02 -0.14527E+05
 0.26949999E+02  0.10399E+04
 0.26999998E+02 -0.42702E+03
 0.27049997E+02 -0.77959E+04
 0.27099998E+02 -0.19081E+02
 0.27149998E+02  0.48117E+04
 0.27199999E+02  0.70522E+04
 0.27249998E+02 -0.61437E+03
 0.27299997E+02 -0.10431E+05
 0.27349998E+02 -0.45697E+04
 0.27399998E+02 -0.12783E+05
 0.27449999E+02 -0.19298E+05
 0.27499998E+02 -0.86303E+04
 0.27549997E+02 -0.28823E+04
 0.27599998E+02  0.28549E+04
 0.27649998E+02 -0.17673E+04
 0.27699999E+02 -0.47828E+04
 0.27749998E+02 -0.11148E+05
 0.27799997E+02 -0.13135E+05
 0.27849998E+02  0.16388E+03
 0.27899998E+02  0.72853E+04
 0.27949999E+02  0.59030E+04
 0.27999998E+02  0.53345E+04
 0.28049997E+02  0.11417E+05
 0.28099998E+02  0.88162E+04
 0.28149998E+02 -0.15202E+05
 0.28199999E+02 -0.27297E+05
 0.28249998E+02 -0.98799E+04
 0.28299997E+02  0.49855E+04
 0.28349998E+02  0.39434E+04
 0.28399998E+02  0.52981E+04
 0.28449999E+02 -0.23398E+04
 0.28499998E+02 -0.83368E+04
 0.28549997E+02 -0.13762E+05
 0.28599998E+02 -0.84815E+04
 0.28649998E+02  0.18887E+04
 0.28699999E+02 -0.10598E+03
 0.28749998E+02 -0.73179E+03
 0.28799997E+02  0.62634E+04
 0.28849998E+02  0.37380E+04
 0.28899998E+02 -0.40175E+04
 0.28949999E+02  0.41401E+04
 0.28999998E+02  0.51407E+04
 0.29049997E+02 -0.36998E+04
 0.29099998E+02 -0.15827E+05
 0.29149998E+02 -0.11135E+05
 0.29199999E+02 -0.47185E+04
 0.29249998E+02 -0.74640E+04
 0.29299997E+02 -0.55902E+04
 0.29349998E+02 -0.47126E+03
 0.29399998E+02 -0.37196E+04
 0.29449999E+02 -0.67157E+04
 0.29499998E+02 -0.53780E+04
 0.29549997E+02  0.60018E+04
 0.29599998E+02  0.12675E+05
 0.29649998E+02  0.25677E+04
 0.29699999E+02  0.86744E+03
 0.29749998E+02  0.13636E+04
 0.29799997E+02 -0.91996E+04
 0.29849998E+02 -0.12156E+05
 0.29899998E+02 -0.79936E+04
 0.29949999E+02 -0.12703E+05
 0.29999998E+02 -0.83348E+04
 0.30049999E+02 -0.34019E+04
 0.30099998E+02  0.72590E+03
 0.30149998E+02  0.54375E+04
 0.30199997E+02 -0.54486E+04
 0.30249996E+02 -0.15739E+05
 0.30299999E+02 -0.15106E+05
 0.30349998E+02 -0.31103E+04
 0.30399998E+02  0.41911E+04
 0.30449997E+02 -0.26705E+04
 0.30499996E+02  0.47867E+04
 0.30549999E+02  0.25589E+04
 0.30599998E+02 -0.83981E+03
 0.30649998E+02 -0.18669E+04
 0.30699997E+02 -0.81403E+04
 0.30749996E+02 -0.34197E+04
 0.30799999E+02 -0.37665E+04
 0.30849998E+02 -0.98220E+04
 0.30899998E+02 -0.30487E+04
 0.30949997E+02  0.50812E+04
 0.30999996E+02  0.87758E+03
 0.31049999E+02 -0.37673E+04
 0.31099998E+02 -0.80014E+04
 0.31149998E+02 -0.64260E+04
 0.31199997E+02 -0.10965E+05
 0.31249996E+02 -0.55010E+04
 0.31299999E+02  0.86221E+04
 0.31349998E+02  0.35688E+04
 0.31399998E+02  0.64593E+03
 0.31449997E+02  0.10508E+04
 0.31499996E+02 -0.99633E+04
 0.31549999E+02 -0.84778E+04
 0.31599998E+02 -0.36047E+04
 0.31649998E+02 -0.38002E+04
 0.31699997E+02  0.30277E+04
 0.31749996E+02 -0.30018E+04
 0.31799999E+02 -0.46875E+04
 0.31849998E+02  0.27125E+04
 0.31899998E+02 -0.44413E+04
 0.31949997E+02 -0.10222E+05
 0.31999996E+02 -0.57579E+04
 0.32049999E+02 -0.16192E+04
 0.32099998E+02 -0.19231E+04
 0.32149998E+02  0.84141E+03
 0.32199997E+02 -0.15891E+04
 0.32249996E+02 -0.32940E+04
 0.32299999E+02 -0.36031E+03
 0.32349998E+02 -0.83322E+04
 0.32399998E+02 -0.78161E+04
 0.32449997E+02  0.56798E+03
 0.32499996E+02 -0.12333E+03
 0.32549999E+02 -0.52088E+04
 0.32599998E+02 -0.47086E+04
 0.32649998E+02 -0.24849E+04
 0.32699997E+02 -0.56778E+04
 0.32749996E+02 -0.69241E+04
 0.32799999E+02 -0.11032E+04
 0.32849998E+02 -0.10000E+04
 0.32899998E+02 -0.43526E+04
 0.32949997E+02 -0.27770E+04
 0.32999996E+02 -0.42005E+03
 0.33049999E+02 -0.59832E+03
 0.33099998E+02 -0.42298E+03
 0.33149998E+02 -0.12948E+04
 0.33199997E+02 -0.60269E+04
 0.33249996E+02 -0.81557E+04
 0.33299999E+02 -0.73985E+04
 0.33349998E+02 -0.16386E+04
 0.33399998E+02 -0.48363E+04
 0.33449997E+02 -0.71635E+04
 0.33499996E+02 -0.89590E+04
 0.33549999E+02 -0.11776E+05
 0.33599998E+02 -0.61781E+04
 0.33649998E+02 -0.46751E+04
 0.33699997E+02 -0.15046E+04
 0.33749996E+02 -0.44257E+04
 0.33799999E+02 -0.29807E+04
 0.33849998E+02  0.26951E+04
 0.33899998E+02 -0.21568E+04
 0.33949997E+02  0.41197E+04
 0.33999996E+02  0.66224E+04
 0.34049999E+02 -0.13608E+04
 0.34099998E+02  0.20809E+03
 0.34149998E+02 -0.20333E+04
 0.34199997E+02 -0.71117E+04
 0.34249996E+02 -0.87764E+04
 0.34299999E+02 -0.10702E+05
 0.34349998E+02 -0.83219E+04
 0.34399998E+02 -0.48930E+04
 0.34449997E+02 -0.80206E+03
 0.34499996E+02 -0.97147E+03
 0.34549999E+02 -0.12545E+04
 0.34599998E+02  0.19849E+03
 0.34649998E+02  0.34551E+04
 0.34699997E+02  0.59578E+04
 0.34749996E+02  0.10168E+04
 0.34799999E+02  0.58448E+04
 0.34849998E+02  0.33345E+04
 0.34899998E+02 -0.65266E+04
 0.34949997E+02 -0.71241E+04
 0.34999996E+02 -0.90971E+04
 0.35049999E+02 -0.10748E+05
 0.35099998E+02 -0.93640E+04
 0.35149998E+02 -0.50167E+04
 0.35199997E+02 -0.70012E+04
 0.35249996E+02 -0.73289E+04
 0.35299999E+02 -0.44124E+04
 0.35349998E+02 -0.48339E+04
 0.35399998E+02 -0.42302E+04
 0.35449997E+02 -0.23735E+04
 0.35499996E+02  0.32613E+03
 0.35549999E+02 -0.39105E+04
 0.35599998E+02 -0.76969E+04
 0.35649998E+02 -0.46055E+04
 0.35699997E+02 -0.25071E+04
 0.35749996E+02 -0.23934E+04
 0.35799999E+02  0.24393E+04
 0.35849998E+02  0.31948E+04
 0.35899998E+02 -0.40316E+04
 0.35949997E+02 -0.83185E+04
 0.35999996E+02 -0.10081E+05
 0.36049999E+02 -0.66128E+04
 0.36099998E+02 -0.87762E+03
 0.36149998E+02 -0.25274E+04
 0.36199997E+02 -0.45748E+04
 0.36249996E+02  0.54782E+03
 0.36299999E+02  0.41859E+04
 0.36349998E+02  0.18703E+04
 0.36399998E+02 -0.74439E+03
 0.36449997E+02 -0.36082E+04
 0.36499996E+02 -0.37599E+04
 0.36549999E+02 -0.34562E+04
 0.36599998E+02 -0.55921E+04
 0.36649998E+02 -0.45991E+04
 0.36699997E+02 -0.36629E+04
 0.36749996E+02 -0.38921E+04
 0.36799999E+02 -0.12181E+04
 0.36849998E+02  0.88582E+03
 0.36899998E+02 -0.53498E+04
 0.36949997E+02 -0.57380E+04
 0.36999996E+02 -0.23597E+04
 0.37049999E+02 -0.43819E+04
 0.37099998E+02 -0.40293E+04
 0.37149998E+02 -0.48056E+04
 0.37199997E+02 -0.34450E+04
 0.37249996E+02 -0.40069E+04
 0.37299999E+02 -0.33853E+04
 0.37349998E+02  0.15198E+04
 0.37399998E+02  0.39454E+03
 0.37449997E+02  0.13419E+03
 0.37499996E+02  0.68646E+03
 0.37549999E+02 -0.12116E+04
 0.37599998E+02 -0.40966E+04
 0.37649998E+02 -0.63160E+04
 0.37699997E+02 -0.21442E+04
 0.37749996E+02 -0.28228E+04
 0.37799999E+02 -0.43921E+04
 0.37849998E+02 -0.15013E+04
 0.37899998E+02 -0.53095E+02
 0.37949997E+02 -0.10022E+04
 0.37999996E+02 -0.31148E+04
 0.38049999E+02 -0.47456E+04
 0.38099998E+02 -0.74504E+04
 0.38149998E+02 -0.28943E+04
 0.38199997E+02  0.19837E+03
 0.38249996E+02 -0.21173E+04
 0.38299999E+02 -0.52332E+04
 0.38349998E+02 -0.70596E+04
 0.38399998E+02 -0.53344E+04
 0.38449997E+02 -0.43601E+04
 0.38499996E+02 -0.48425E+04
 0.38549999E+02 -0.70374E+04
 0.38599998E+02 -0.89707E+04
 0.38649998E+02 -0.67684E+04
 0.38699997E+02 -0.33648E+04
 0.38749996E+02 -0.54379E+03
 0.38799999E+02  0.10612E+04
 0.38849998E+02 -0.78482E+03
 0.38899998E+02 -0.32510E+04
 0.38949997E+02 -0.32553E+04
 0.38999996E+02  0.99888E+03
 0.39049999E+02  0.72358E+03
 0.39099998E+02 -0.18659E+04
 0.39149998E+02 -0.52479E+03
 0.39199997E+02 -0.27164E+04
 0.39249996E+02 -0.53030E+04
 0.39299999E+02 -0.41576E+04
 0.39349998E+02 -0.39062E+04
 0.39399998E+02 -0.36372E+04
 0.39449997E+02 -0.38964E+04
 0.39499996E+02 -0.53352E+04
 0.39549999E+02 -0.27240E+04
 0.39599998E+02 -0.21569E+04
 0.39649998E+02 -0.28705E+04
 0.39699997E+02 -0.18975E+04
 0.39749996E+02 -0.44635E+04
 0.39799999E+02 -0.53934E+04
 0.39849998E+02 -0.22057E+04
 0.39899998E+02  0.82160E+03
 0.39949997E+02 -0.20376E+04
 0.39999996E+02 -0.44136E+04
 0.40049999E+02 -0.73693E+04
 0.40099998E+02 -0.91788E+04
 0.40149998E+02 -0.48277E+04
 0.40199997E+02 -0.43862E+04
 0.40249996E+02 -0.27994E+04
 0.40299999E+02  0.78736E+03
 0.40349998E+02 -0.91490E+03
 0.40399998E+02 -0.19919E+04
 0.40449997E+02 -0.40701E+03
 0.40499996E+02  0.15387E+04
 0.40549999E+02  0.99557E+03
 0.40599998E+02 -0.77096E+03
 0.40649998E+02 -0.11438E+04
 0.40699997E+02 -0.19291E+04
 0.40749996E+02 -0.38595E+04
 0.40799999E+02 -0.64778E+04
 0.40849998E+02 -0.72153E+04
 0.40899998E+02 -0.76061E+04
 0.40949997E+02 -0.72147E+04
 0.40999996E+02 -0.54091E+04
 0.41049999E+02 -0.28659E+04
 0.41099998E+02 -0.24955E+04
 0.41149998E+02 -0.25884E+04
 0.41199997E+02 -0.15703E+04
 0.41249996E+02 -0.28290E+04
 0.41299999E+02 -0.50030E+04
 0.41349998E+02 -0.41820E+04
 0.41399998E+02 -0.13286E+04
 0.41449997E+02 -0.29150E+04
 0.41499996E+02 -0.37035E+04
 0.41549999E+02  0.72573E+02
 0.41599998E+02 -0.99969E+02
 0.41649998E+02 -0.29965E+04
 0.41699997E+02 -0.37104E+04
 0.41749996E+02 -0.58776E+04
 0.41799999E+02 -0.68331E+04
 0.41849998E+02 -0.59052E+04
 0.41899998E+02 -0.55937E+04
 0.41949997E+02 -0.20303E+04
 0.41999996E+02 -0.20357E+04
 0.42049999E+02 -0.48467E+04
 0.42099998E+02 -0.36125E+04
 0.42149998E+02 -0.55271E+03
 0.42199997E+02  0.13989E+04
 0.42249996E+02 -0.11402E+04
 0.42299999E+02 -0.37328E+04
 0.42349998E+02 -0.41588E+04
 0.42399998E+02 -0.50143E+04
 0.42449997E+02 -0.29378E+04
 0.42499996E+02 -0.10430E+04
 0.42549999E+02 -0.77210E+03
 0.42599998E+02 -0.15708E+04
 0.42649998E+02 -0.30235E+04
 0.42699997E+02 -0.37376E+04
 0.42749996E+02 -0.34345E+04
 0.42799995E+02 -0.19203E+04
 0.42849998E+02 -0.24185E+04
 0.42899998E+02 -0.20731E+04
 0.42949997E+02 -0.19485E+04
 0.42999996E+02 -0.37599E+04
 0.43049995E+02 -0.45994E+04
 0.43099998E+02 -0.45139E+04
 0.43149998E+02 -0.50119E+04
 0.43199997E+02 -0.46415E+04
 0.43249996E+02 -0.20272E+04
 0.43299995E+02 -0.11788E+03
 0.43349998E+02 -0.17663E+04
 0.43399998E+02 -0.30453E+04
 0.43449997E+02 -0.33171E+04
 0.43499996E+02 -0.42779E+04
 0.43549995E+02 -0.53935E+04
 0.43599998E+02 -0.49137E+04
 0.43649998E+02 -0.35503E+04
 0.43699997E+02 -0.31939E+04
 0.43749996E+02 -0.21038E+04
 0.43799995E+02 -0.22146E+04
 0.43849998E+02 -0.31062E+04
 0.43899998E+02 -0.37863E+04
 0.43949997E+02 -0.39246E+04
 0.43999996E+02 -0.34207E+04
 0.44049995E+02 -0.37577E+04
 0.44099998E+02 -0.43315E+04
 0.44149998E+02 -0.52772E+04
 0.44199997E+02 -0.43987E+04
 0.44249996E+02 -0.41219E+04
 0.44299995E+02 -0.42212E+04
 0.44349998E+02 -0.41482E+04
 0.44399998E+02 -0.46359E+04
 0.44449997E+02 -0.29440E+04
 0.44499996E+02 -0.42072E+04
 0.44549995E+02 -0.63244E+04
 0.44599998E+02 -0.62161E+04
 0.44649998E+02 -0.35331E+04
 0.44699997E+02 -0.14990E+04
 0.44749996E+02 -0.21751E+04
 0.44799995E+02 -0.11374E+04
 0.44849998E+02 -0.10066E+04
 0.44899998E+02 -0.23904E+04
 0.44949997E+02 -0.33461E+04
 0.44999996E+02 -0.29308E+04
 0.45049995E+02 -0.78384E+03
 0.45099998E+02 -0.77482E+03
 0.45149998E+02 -0.19798E+04
 0.45199997E+02 -0.32960E+04
 0.45249996E+02 -0.46778E+04
 0.45299995E+02 -0.34166E+04
 0.45349998E+02 -0.20952E+04
 0.45399998E+02 -0.27856E+04
 0.45449997E+02 -0.37745E+04
 0.45499996E+02 -0.32441E+04
 0.45549995E+02 -0.23478E+04
 0.45599998E+02 -0.28143E+04
 0.45649998E+02 -0.23606E+04
 0.45699997E+02 -0.29929E+04
 0.45749996E+02 -0.26097E+04
 0.45799995E+02 -0.13920E+04
 0.45849998E+02 -0.17472E+04
 0.45899998E+02 -0.11036E+04
 0.45949997E+02 -0.13442E+04
 0.45999996E+02 -0.59334E+03
 0.46049995E+02 -0.15081E+04
 0.46099998E+02 -0.35305E+04
 0.46149998E+02 -0.40615E+04
 0.46199997E+02 -0.37139E+04
 0.46249996E+02 -0.37646E+04
 0.46299995E+02 -0.35782E+04
 0.46349998E+02 -0.39041E+04
 0.46399998E+02 -0.52429E+04
 0.46449997E+02 -0.45301E+04
 0.46499996E+02 -0.38465E+04
 0.46549995E+02 -0.39318E+04
 0.46599998E+02 -0.41576E+04
 0.46649998E+02 -0.27295E+04
 0.46699997E+02 -0.23732E+04
 0.46749996E+02 -0.22044E+04
 0.46799995E+02 -0.16138E+04
 0.46849998E+02 -0.21404E+04
 0.46899998E+02 -0.26789E+04
 0.46949997E+02 -0.41985E+04
 0.46999996E+02 -0.53417E+04
 0.47049995E+02 -0.59344E+04
 0.47099998E+02 -0.46413E+04
 0.47149998E+02 -0.36695E+04
 0.47199997E+02 -0.47967E+04
 0.47249996E+02 -0.36205E+04
 0.47299995E+02 -0.18807E+04
 0.47349998E+02 -0.27320E+04
 0.47399998E+02 -0.36114E+04
 0.47449997E+02 -0.37662E+04
 0.47499996E+02 -0.29154E+04
 0.47549995E+02 -0.26250E+04
 0.47599998E+02 -0.29182E+04
 0.47649998E+02 -0.31132E+04
 0.47699997E+02 -0.42464E+04
 0.47749996E+02 -0.42893E+04
 0.47799995E+02 -0.41405E+04
 0.47849998E+02 -0.45152E+04
 0.47899998E+02 -0.38623E+04
 0.47949997E+02 -0.25347E+04
 0.47999996E+02 -0.31369E+04
 0.48049995E+02 -0.31157E+04
 0.48099998E+02 -0.17754E+04
 0.48149998E+02 -0.69249E+03
 0.48199997E+02 -0.29086E+03
 0.48249996E+02 -0.27494E+02
 0.48299995E+02 -0.64704E+03
 0.48349998E+02 -0.36460E+04
 0.48399998E+02 -0.50124E+04
 0.48449997E+02 -0.37773E+04
 0.48499996E+02 -0.26354E+04
 0.48549995E+02 -0.24402E+04
 0.48599998E+02 -0.16615E+04
 0.48649998E+02 -0.16446E+04
 0.48699997E+02 -0.27732E+04
 0.48749996E+02 -0.37336E+04
 0.48799995E+02 -0.44429E+04
 0.48849998E+02 -0.51074E+04
 0.48899998E+02 -0.46602E+04
 0.48949997E+02 -0.29507E+04
 0.48999996E+02 -0.27011E+04
 0.49049995E+02 -0.38733E+04
 0.49099998E+02 -0.32578E+04
 0.49149998E+02 -0.18227E+04
 0.49199997E+02 -0.23114E+04
 0.49249996E+02 -0.30394E+04
 0.49299995E+02 -0.36698E+04
 0.49349998E+02 -0.44002E+04
 0.49399998E+02 -0.42363E+04
 0.49449997E+02 -0.46695E+04
 0.49499996E+02 -0.53509E+04
 0.49549995E+02 -0.51512E+04
 0.49599998E+02 -0.34447E+04
 0.49649998E+02 -0.21547E+04
 0.49699997E+02 -0.18920E+04
 0.49749996E+02 -0.17871E+04
 0.49799995E+02 -0.22147E+04
 0.49849998E+02 -0.29139E+04
 0.49899998E+02 -0.33213E+04
 0.49949997E+02 -0.32836E+04
 0.49999996E+02 -0.39741E+04
 0.50049995E+02 -0.37917E+04
 0.50099998E+02 -0.31613E+04
 0.50149998E+02 -0.25196E+04
 0.50199997E+02 -0.27959E+04
 0.50249996E+02 -0.32898E+04
 0.50299995E+02 -0.21986E+04
 0.50349998E+02 -0.19380E+04
 0.50399998E+02 -0.29698E+04
 0.50449997E+02 -0.43672E+04
 0.50499996E+02 -0.49437E+04
 0.50549995E+02 -0.42604E+04
 0.50599998E+02 -0.30575E+04
 0.50649998E+02 -0.17739E+04
 0.50699997E+02 -0.21512E+04
 0.50749996E+02 -0.23072E+04
 0.50799995E+02 -0.21579E+04
 0.50849998E+02 -0.21733E+04
 0.50899998E+02 -0.16768E+04
 0.50949997E+02 -0.27082E+04
 0.50999996E+02 -0.33188E+04
 0.51049995E+02 -0.29719E+04
 0.51099998E+02 -0.35485E+04
 0.51149998E+02 -0.45951E+04
 0.51199997E+02 -0.37265E+04
 0.51249996E+02 -0.28351E+04
 0.51299995E+02 -0.21439E+04
 0.51349998E+02 -0.21462E+04
 0.51399998E+02 -0.31849E+04
 0.51449997E+02 -0.22583E+04
 0.51499996E+02 -0.20270E+04
 0.51549995E+02 -0.21147E+04
 0.51599998E+02 -0.20810E+04
 0.51649998E+02 -0.36999E+04
 0.51699997E+02 -0.49520E+04
 0.51749996E+02 -0.50213E+04
 0.51799995E+02 -0.52189E+04
 0.51849998E+02 -0.46753E+04
 0.51899998E+02 -0.41923E+04
 0.51949997E+02 -0.42321E+04
 0.51999996E+02 -0.36022E+04
 0.52049995E+02 -0.28720E+04
 0.52099998E+02 -0.31993E+04
 0.52149998E+02 -0.34729E+04
 0.52199997E+02 -0.33010E+04
 0.52249996E+02 -0.34620E+04
 0.52299995E+02 -0.34907E+04
 0.52349998E+02 -0.35001E+04
 0.52399998E+02 -0.28529E+04
 0.52449997E+02 -0.27860E+04
 0.52499996E+02 -0.26418E+04
 0.52549995E+02 -0.24086E+04
 0.52599998E+02 -0.32973E+04
 0.52649998E+02 -0.40332E+04
 0.52699997E+02 -0.44569E+04
 0.52749996E+02 -0.41770E+04
 0.52799995E+02 -0.29549E+04
 0.52849998E+02 -0.24582E+04
 0.52899998E+02 -0.28041E+04
 0.52949997E+02 -0.21097E+04
 0.52999996E+02 -0.15742E+04
 0.53049995E+02 -0.16030E+04
 0.53099998E+02 -0.22001E+04
 0.53149998E+02 -0.26658E+04
 0.53199997E+02 -0.18482E+04
 0.53249996E+02 -0.21000E+04
 0.53299995E+02 -0.31562E+04
 0.53349998E+02 -0.36948E+04
 0.53399998E+02 -0.34703E+04
 0.53449997E+02 -0.31607E+04
 0.53499996E+02 -0.33084E+04
 0.53549995E+02 -0.32831E+04
 0.53599998E+02 -0.29478E+04
 0.53649998E+02 -0.32669E+04
 0.53699997E+02 -0.34137E+04
 0.53749996E+02 -0.30970E+04
 0.53799995E+02 -0.30860E+04
 0.53849998E+02 -0.27909E+04
 0.53899998E+02 -0.29947E+04
 0.53949997E+02 -0.26511E+04
 0.53999996E+02 -0.20094E+04
 0.54049995E+02 -0.25959E+04
 0.54099998E+02 -0.30819E+04
 0.54149998E+02 -0.31375E+04
 0.54199997E+02 -0.33540E+04
 0.54249996E+02 -0.36852E+04
 0.54299995E+02 -0.40600E+04
 0.54349998E+02 -0.40145E+04
 0.54399998E+02 -0.32613E+04
 0.54449997E+02 -0.27018E+04
 0.54499996E+02 -0.31372E+04
 0.54549995E+02 -0.28468E+04
 0.54599998E+02 -0.29147E+04
 0.54649998E+02 -0.42119E+04
 0.54699997E+02 -0.41769E+04
 0.54749996E+02 -0.37929E+04
 0.54799995E+02 -0.38208E+04
 0.54849998E+02 -0.35214E+04
 0.54899998E+02 -0.33132E+04
 0.54949997E+02 -0.29416E+04
 0.54999996E+02 -0.28099E+04
 0.55049995E+02 -0.34511E+04
 0.55099998E+02 -0.42175E+04
 0.55149998E+02 -0.47260E+04
 0.55199997E+02 -0.44545E+04
 0.55249996E+02 -0.39617E+04
 0.55299995E+02 -0.36131E+04
 0.55349998E+02 -0.29481E+04
 0.55399998E+02 -0.25183E+04
 0.55449997E+02 -0.22645E+04
 0.55499996E+02 -0.25102E+04
 0.55549995E+02 -0.29693E+04
 0.55599998E+02 -0.32477E+04
 0.55649998E+02 -0.29951E+04
 0.55699997E+02 -0.24870E+04
 0.55749996E+02 -0.26789E+04
 0.55799995E+02 -0.22653E+04
 0.55849995E+02 -0.20684E+04
 0.55899998E+02 -0.29736E+04
 0.55949997E+02 -0.38713E+04
 0.55999996E+02 -0.38139E+04
 0.56049995E+02 -0.34998E+04
 0.56099995E+02 -0.36650E+04
 0.56149998E+02 -0.31589E+04
 0.56199997E+02 -0.24069E+04
 0.56249996E+02 -0.20838E+04
 0.56299995E+02 -0.20879E+04
 0.56349995E+02 -0.23266E+04
 0.56399998E+02 -0.26340E+04
 0.56449997E+02 -0.25189E+04
 0.56499996E+02 -0.20041E+04
 0.56549995E+02 -0.19528E+04
 0.56599995E+02 -0.27266E+04
 0.56649998E+02 -0.37555E+04
 0.56699997E+02 -0.41174E+04
 0.56749996E+02 -0.43946E+04
 0.56799995E+02 -0.48784E+04
 0.56849995E+02 -0.47820E+04
 0.56899998E+02 -0.42261E+04
 0.56949997E+02 -0.38368E+04
 0.56999996E+02 -0.35872E+04
 0.57049995E+02 -0.33270E+04
 0.57099995E+02 -0.30610E+04
 0.57149998E+02 -0.25833E+04
 0.57199997E+02 -0.25157E+04
 0.57249996E+02 -0.30477E+04
 0.57299995E+02 -0.35228E+04
 0.57349995E+02 -0.34104E+04
 0.57399998E+02 -0.30611E+04
 0.57449997E+02 -0.28383E+04
 0.57499996E+02 -0.19154E+04
 0.57549995E+02 -0.18442E+04
 0.57599995E+02 -0.23628E+04
 0.57649998E+02 -0.27251E+04
 0.57699997E+02 -0.35032E+04
 0.57749996E+02 -0.33639E+04
 0.57799995E+02 -0.32596E+04
 0.57849995E+02 -0.37317E+04
 0.57899998E+02 -0.37760E+04
 0.57949997E+02 -0.30974E+04
 0.57999996E+02 -0.28897E+04
 0.58049995E+02 -0.35209E+04
 0.58099995E+02 -0.33912E+04
 0.58149998E+02 -0.28141E+04
 0.58199997E+02 -0.27121E+04
 0.58249996E+02 -0.26028E+04
 0.58299995E+02 -0.24092E+04
 0.58349995E+02 -0.27470E+04
 0.58399998E+02 -0.29786E+04
 0.58449997E+02 -0.28834E+04
 0.58499996E+02 -0.26675E+04
 0.58549995E+02 -0.26400E+04
 0.58599995E+02 -0.33409E+04
 0.58649998E+02 -0.35308E+04
 0.58699997E+02 -0.38629E+04
 0.58749996E+02 -0.45674E+04
 0.58799995E+02 -0.42665E+04
 0.58849995E+02 -0.38193E+04
 0.58899998E+02 -0.38606E+04
 0.58949997E+02 -0.37756E+04
 0.58999996E+02 -0.34435E+04
 0.59049995E+02 -0.30743E+04
 0.59099995E+02 -0.27006E+04
 0.59149998E+02 -0.24141E+04
 0.59199997E+02 -0.25533E+04
 0.59249996E+02 -0.25536E+04
 0.59299995E+02 -0.20712E+04
 0.59349995E+02 -0.18219E+04
 0.59399998E+02 -0.20190E+04
 0.59449997E+02 -0.21739E+04
 0.59499996E+02 -0.24867E+04
 0.59549995E+02 -0.33943E+04
 0.59599995E+02 -0.37291E+04
 0.59649998E+02 -0.29491E+04
 0.59699997E+02 -0.23112E+04
 0.59749996E+02 -0.25968E+04
 0.59799995E+02 -0.29679E+04
 0.59849995E+02 -0.29492E+04
 0.59899998E+02 -0.35343E+04
 0.59949997E+02 -0.41559E+04
 0.59999996E+02 -0.38251E+04
 0.60049995E+02 -0.39790E+04
 0.60099995E+02 -0.43071E+04
 0.60149998E+02 -0.42460E+04
 0.60199997E+02 -0.41994E+04
 0.60249996E+02 -0.41397E+04
 0.60299995E+02 -0.39602E+04
 0.60349995E+02 -0.39307E+04
 0.60399998E+02 -0.44458E+04
 0.60449997E+02 -0.44534E+04
 0.60499996E+02 -0.35556E+04
 0.60549995E+02 -0.27146E+04
 0.60599995E+02 -0.26090E+04
 0.60649998E+02 -0.27364E+04
 0.60699997E+02 -0.25310E+04
 0.60749996E+02 -0.23215E+04
 0.60799995E+02 -0.23729E+04
 0.60849995E+02 -0.27610E+04
 0.60899998E+02 -0.27491E+04
 0.60949997E+02 -0.19573E+04
 0.60999996E+02 -0.17574E+04
 0.61049995E+02 -0.21966E+04
 0.61099995E+02 -0.28521E+04
 0.61149998E+02 -0.30130E+04
 0.61199997E+02 -0.25267E+04
 0.61249996E+02 -0.23889E+04
 0.61299995E+02 -0.30893E+04
 0.61349995E+02 -0.39052E+04
 0.61399998E+02 -0.36161E+04
 0.61449997E+02 -0.33495E+04
 0.61499996E+02 -0.35020E+04
 0.61549995E+02 -0.37091E+04
 0.61599995E+02 -0.35458E+04
 0.61649998E+02 -0.30608E+04
 0.61699997E+02 -0.31972E+04
 0.61749996E+02 -0.33818E+04
 0.61799995E+02 -0.32944E+04
 0.61849995E+02 -0.31189E+04
 0.61899998E+02 -0.31087E+04
 0.61949997E+02 -0.31715E+04
 0.61999996E+02 -0.31961E+04
 0.62049995E+02 -0.33318E+04
 0.62099998E+02 -0.33569E+04
 0.62149994E+02 -0.32361E+04
 0.62199997E+02 -0.27890E+04
 0.62249992E+02 -0.27670E+04
 0.62299995E+02 -0.31656E+04
 0.62349998E+02 -0.31495E+04
 0.62399994E+02 -0.29628E+04
 0.62449997E+02 -0.29937E+04
 0.62499992E+02 -0.30818E+04
 0.62549995E+02 -0.30769E+04
 0.62599998E+02 -0.29480E+04
 0.62649994E+02 -0.25415E+04
 0.62699997E+02 -0.24306E+04
 0.62749992E+02 -0.28913E+04
 0.62799995E+02 -0.31998E+04
 0.62849998E+02 -0.32234E+04
 0.62899994E+02 -0.37978E+04
 0.62949997E+02 -0.39721E+04
 0.62999992E+02 -0.39905E+04
 0.63049995E+02 -0.40054E+04
 0.63099998E+02 -0.34419E+04
 0.63149994E+02 -0.32669E+04
 0.63199997E+02 -0.31347E+04
 0.63249992E+02 -0.30282E+04
 0.63299995E+02 -0.30346E+04
 0.63349998E+02 -0.30766E+04
 0.63399994E+02 -0.34388E+04
 0.63449997E+02 -0.36446E+04
 0.63499992E+02 -0.31079E+04
 0.63549995E+02 -0.25298E+04
 0.63599998E+02 -0.27812E+04
 0.63649994E+02 -0.34116E+04
 0.63699997E+02 -0.35560E+04
 0.63749992E+02 -0.35243E+04
 0.63799995E+02 -0.34953E+04
 0.63849998E+02 -0.33399E+04
 0.63899994E+02 -0.32849E+04
 0.63949997E+02 -0.30302E+04
 0.63999992E+02 -0.28102E+04
 0.64049995E+02 -0.29951E+04
 0.64099998E+02 -0.33773E+04
 0.64149994E+02 -0.34853E+04
 0.64199997E+02 -0.32226E+04
 0.64249992E+02 -0.29054E+04
 0.64299995E+02 -0.27107E+04
 0.64349998E+02 -0.25377E+04
 0.64399994E+02 -0.25182E+04
 0.64449997E+02 -0.23532E+04
 0.64499992E+02 -0.24746E+04
 0.64549995E+02 -0.29804E+04
 0.64599998E+02 -0.31065E+04
 0.64649994E+02 -0.30730E+04
 0.64699997E+02 -0.28419E+04
 0.64749992E+02 -0.29333E+04
 0.64799995E+02 -0.34102E+04
 0.64849998E+02 -0.33455E+04
 0.64899994E+02 -0.29803E+04
 0.64949997E+02 -0.33071E+04
 0.64999992E+02 -0.38019E+04
 0.65049995E+02 -0.36649E+04
 0.65099998E+02 -0.32391E+04
 0.65149994E+02 -0.33108E+04
 0.65199997E+02 -0.34439E+04
 0.65249992E+02 -0.31624E+04
 0.65299995E+02 -0.30400E+04
 0.65349998E+02 -0.31365E+04
 0.65399994E+02 -0.36863E+04
 0.65449997E+02 -0.40372E+04
 0.65499992E+02 -0.39145E+04
 0.65549995E+02 -0.39478E+04
 0.65599998E+02 -0.38277E+04
 0.65649994E+02 -0.33487E+04
 0.65699997E+02 -0.32774E+04
 0.65749992E+02 -0.33904E+04
 0.65799995E+02 -0.28949E+04
 0.65849998E+02 -0.20275E+04
 0.65899994E+02 -0.17917E+04
 0.65949997E+02 -0.19237E+04
 0.65999992E+02 -0.14364E+04
 0.66049995E+02 -0.17899E+04
 0.66099998E+02 -0.24067E+04
 0.66149994E+02 -0.27693E+04
 0.66199997E+02 -0.31440E+04
 0.66249992E+02 -0.34041E+04
 0.66299995E+02 -0.38141E+04
 0.66349998E+02 -0.35865E+04
 0.66399994E+02 -0.35203E+04
 0.66449997E+02 -0.34075E+04
 0.66499992E+02 -0.28208E+04
 0.66549995E+02 -0.22876E+04
 0.66599998E+02 -0.25020E+04
 0.66649994E+02 -0.32235E+04
 0.66699997E+02 -0.33409E+04
 0.66749992E+02 -0.31996E+04
 0.66799995E+02 -0.32188E+04
 0.66849998E+02 -0.35459E+04
 0.66899994E+02 -0.36029E+04
 0.66949997E+02 -0.30332E+04
 0.66999992E+02 -0.27977E+04
 0.67049995E+02 -0.32128E+04
 0.67099998E+02 -0.37886E+04
 0.67149994E+02 -0.41471E+04
 0.67199997E+02 -0.40586E+04
 0.67249992E+02 -0.34182E+04
 0.67299995E+02 -0.29761E+04
 0.67349998E+02 -0.28329E+04
 0.67399994E+02 -0.26897E+04
 0.67449997E+02 -0.28487E+04
 0.67499992E+02 -0.30161E+04
 0.67549995E+02 -0.34225E+04
 0.67599998E+02 -0.38089E+04
 0.67649994E+02 -0.37255E+04
 0.67699997E+02 -0.38035E+04
 0.67749992E+02 -0.40022E+04
 0.67799995E+02 -0.36573E+04
 0.67849998E+02 -0.32582E+04
 0.67899994E+02 -0.32777E+04
 0.67949997E+02 -0.33256E+04
 0.67999992E+02 -0.31718E+04
 0.68049995E+02 -0.32219E+04
 0.68099998E+02 -0.33706E+04
 0.68149994E+02 -0.33772E+04
 0.68199997E+02 -0.31870E+04
 0.68249992E+02 -0.28723E+04
 0.68299995E+02 -0.27275E+04
 0.68349998E+02 -0.26627E+04
 0.68399994E+02 -0.28016E+04
 0.68449997E+02 -0.29754E+04
 0.68499992E+02 -0.31428E+04
 0.68549995E+02 -0.32871E+04
 0.68599998E+02 -0.33018E+04
 0.68649994E+02 -0.31480E+04
 0.68699997E+02 -0.28376E+04
 0.68749992E+02 -0.26340E+04
 0.68799995E+02 -0.26204E+04
 0.68849998E+02 -0.28346E+04
 0.68899994E+02 -0.28002E+04
 0.68949997E+02 -0.27233E+04
 0.68999992E+02 -0.29110E+04
 0.69049995E+02 -0.27375E+04
 0.69099998E+02 -0.26894E+04
 0.69149994E+02 -0.27094E+04
 0.69199997E+02 -0.26345E+04
 0.69249992E+02 -0.27666E+04
 0.69299995E+02 -0.29699E+04
 0.69349998E+02 -0.29927E+04
 0.69399994E+02 -0.28743E+04
 0.69449997E+02 -0.29735E+04
 0.69499992E+02 -0.31331E+04
 0.69549995E+02 -0.34112E+04
 0.69599998E+02 -0.37994E+04
 0.69649994E+02 -0.38348E+04
 0.69699997E+02 -0.37792E+04
 0.69749992E+02 -0.36589E+04
 0.69799995E+02 -0.36001E+04
 0.69849998E+02 -0.36803E+04
 0.69899994E+02 -0.35178E+04
 0.69949997E+02 -0.33051E+04
 0.69999992E+02 -0.31924E+04
 0.70049995E+02 -0.34088E+04
 0.70099998E+02 -0.33478E+04
 0.70149994E+02 -0.32652E+04
 0.70199997E+02 -0.34732E+04
 0.70249992E+02 -0.33888E+04
 0.70299995E+02 -0.33406E+04
 0.70349998E+02 -0.34945E+04
 0.70399994E+02 -0.35205E+04
 0.70449997E+02 -0.32450E+04
 0.70499992E+02 -0.29765E+04
 0.70549995E+02 -0.26622E+04
 0.70599998E+02 -0.24809E+04
 0.70649994E+02 -0.24559E+04
 0.70699997E+02 -0.24550E+04
 0.70749992E+02 -0.27173E+04
 0.70799995E+02 -0.27321E+04
 0.70849998E+02 -0.27017E+04
 0.70899994E+02 -0.27813E+04
 0.70949997E+02 -0.27139E+04
 0.70999992E+02 -0.28204E+04
 0.71049995E+02 -0.30000E+04
 0.71099998E+02 -0.30970E+04
 0.71149994E+02 -0.30464E+04
 0.71199997E+02 -0.31278E+04
 0.71249992E+02 -0.35506E+04
 0.71299995E+02 -0.37848E+04
 0.71349998E+02 -0.36313E+04
 0.71399994E+02 -0.35107E+04
 0.71449997E+02 -0.34285E+04
 0.71499992E+02 -0.30531E+04
 0.71549995E+02 -0.28983E+04
 0.71599998E+02 -0.31772E+04
 0.71649994E+02 -0.32965E+04
 0.71699997E+02 -0.33391E+04
 0.71749992E+02 -0.34320E+04
 0.71799995E+02 -0.33365E+04
 0.71849998E+02 -0.31444E+04
 0.71899994E+02 -0.28979E+04
 0.71949997E+02 -0.27774E+04
 0.71999992E+02 -0.29445E+04
 0.72049995E+02 -0.30556E+04
 0.72099998E+02 -0.32283E+04
 0.72149994E+02 -0.34400E+04
 0.72199997E+02 -0.32399E+04
 0.72249992E+02 -0.30097E+04
 0.72299995E+02 -0.31005E+04
 0.72349998E+02 -0.33137E+04
 0.72399994E+02 -0.35402E+04
 0.72449997E+02 -0.35397E+04
 0.72499992E+02 -0.32755E+04
 0.72549995E+02 -0.29949E+04
 0.72599998E+02 -0.27584E+04
 0.72649994E+02 -0.25388E+04
 0.72699997E+02 -0.24480E+04
 0.72749992E+02 -0.26553E+04
 0.72799995E+02 -0.28949E+04
 0.72849998E+02 -0.30579E+04
 0.72899994E+02 -0.32133E+04
 0.72949997E+02 -0.34166E+04
 0.72999992E+02 -0.37054E+04
 0.73049995E+02 -0.38269E+04
 0.73099998E+02 -0.38911E+04
 0.73149994E+02 -0.38374E+04
 0.73199997E+02 -0.36535E+04
 0.73249992E+02 -0.35131E+04
 0.73299995E+02 -0.31789E+04
 0.73349998E+02 -0.30765E+04
 0.73399994E+02 -0.31614E+04
 0.73449997E+02 -0.31989E+04
 0.73499992E+02 -0.32362E+04
 0.73549995E+02 -0.31436E+04
 0.73599998E+02 -0.32198E+04
 0.73649994E+02 -0.32290E+04
 0.73699997E+02 -0.30798E+04
 0.73749992E+02 -0.29983E+04
 0.73799995E+02 -0.29336E+04
 0.73849998E+02 -0.27945E+04
 0.73899994E+02 -0.27012E+04
 0.73949997E+02 -0.28603E+04
 0.73999992E+02 -0.29493E+04
 0.74049995E+02 -0.28401E+04
 0.74099998E+02 -0.28770E+04
 0.74149994E+02 -0.28098E+04
 0.74199997E+02 -0.26510E+04
 0.74249992E+02 -0.26240E+04
 0.74299995E+02 -0.27387E+04
 0.74349998E+02 -0.28325E+04
 0.74399994E+02 -0.30054E+04
 0.74449997E+02 -0.34166E+04
 0.74499992E+02 -0.36474E+04
 0.74549995E+02 -0.37128E+04
 0.74599998E+02 -0.37679E+04
 0.74649994E+02 -0.37969E+04
 0.74699997E+02 -0.37341E+04
 0.74749992E+02 -0.34165E+04
 0.74799995E+02 -0.30409E+04
 0.74849998E+02 -0.30449E+04
 0.74899994E+02 -0.31247E+04
 0.74949997E+02 -0.30855E+04
 0.74999992E+02 -0.28720E+04
 0.75049995E+02 -0.27391E+04
 0.75099998E+02 -0.27449E+04
 0.75149994E+02 -0.27334E+04
 0.75199997E+02 -0.28767E+04
 0.75249992E+02 -0.29520E+04
 0.75299995E+02 -0.30567E+04
 0.75349998E+02 -0.33688E+04
 0.75399994E+02 -0.37325E+04
 0.75449997E+02 -0.39389E+04
 0.75499992E+02 -0.41755E+04
 0.75549995E+02 -0.40624E+04
 0.75599998E+02 -0.36674E+04
 0.75649994E+02 -0.33956E+04
 0.75699997E+02 -0.29347E+04
 0.75749992E+02 -0.25483E+04
 0.75799995E+02 -0.25875E+04
 0.75849998E+02 -0.28057E+04
 0.75899994E+02 -0.29522E+04
 0.75949997E+02 -0.30859E+04
 0.75999992E+02 -0.30726E+04
 0.76049995E+02 -0.29238E+04
 0.76099998E+02 -0.30100E+04
 0.76149994E+02 -0.30819E+04
 0.76199997E+02 -0.29344E+04
 0.76249992E+02 -0.28722E+04
 0.76299995E+02 -0.27995E+04
 0.76349998E+02 -0.26414E+04
 0.76399994E+02 -0.26121E+04
 0.76449997E+02 -0.29968E+04
 0.76499992E+02 -0.33266E+04
 0.76549995E+02 -0.33269E+04
 0.76599998E+02 -0.32802E+04
 0.76649994E+02 -0.32729E+04
 0.76699997E+02 -0.32480E+04
 0.76749992E+02 -0.29597E+04
 0.76799995E+02 -0.25658E+04
 0.76849998E+02 -0.25241E+04
 0.76899994E+02 -0.28372E+04
 0.76949997E+02 -0.30593E+04
 0.76999992E+02 -0.31524E+04
 0.77049995E+02 -0.32731E+04
 0.77099998E+02 -0.33213E+04
 0.77149994E+02 -0.33471E+04
 0.77199997E+02 -0.33321E+04
 0.77249992E+02 -0.32080E+04
 0.77299995E+02 -0.32642E+04
 0.77349998E+02 -0.33789E+04
 0.77399994E+02 -0.35085E+04
 0.77449997E+02 -0.35003E+04
 0.77499992E+02 -0.35023E+04
 0.77549995E+02 -0.36773E+04
 0.77599998E+02 -0.36866E+04
 0.77649994E+02 -0.37133E+04
 0.77699997E+02 -0.36891E+04
 0.77749992E+02 -0.35795E+04
 0.77799995E+02 -0.33656E+04
 0.77849998E+02 -0.29706E+04
 0.77899994E+02 -0.28135E+04
 0.77949997E+02 -0.28443E+04
 0.77999992E+02 -0.28129E+04
 0.78049995E+02 -0.27062E+04
 0.78099998E+02 -0.25052E+04
 0.78149994E+02 -0.25037E+04
 0.78199997E+02 -0.24932E+04
 0.78249992E+02 -0.25455E+04
 0.78299995E+02 -0.28633E+04
 0.78349998E+02 -0.31013E+04
 0.78399994E+02 -0.31401E+04
 0.78449997E+02 -0.32114E+04
 0.78499992E+02 -0.33979E+04
 0.78549995E+02 -0.35445E+04
 0.78599998E+02 -0.35068E+04
 0.78649994E+02 -0.34021E+04
 0.78699997E+02 -0.35334E+04
 0.78749992E+02 -0.35146E+04
 0.78799995E+02 -0.31904E+04
 0.78849998E+02 -0.29330E+04
 0.78899994E+02 -0.27605E+04
 0.78949997E+02 -0.26437E+04
 0.78999992E+02 -0.28186E+04
 0.79049995E+02 -0.30277E+04
 0.79099998E+02 -0.29699E+04
 0.79149994E+02 -0.28329E+04
 0.79199997E+02 -0.27413E+04
 0.79249992E+02 -0.28965E+04
 0.79299995E+02 -0.32392E+04
 0.79349998E+02 -0.33572E+04
 0.79399994E+02 -0.33428E+04
 0.79449997E+02 -0.32774E+04
 0.79499992E+02 -0.32989E+04
 0.79549995E+02 -0.33771E+04
 0.79599998E+02 -0.32083E+04
 0.79649994E+02 -0.29982E+04
 0.79699997E+02 -0.30250E+04
 0.79749992E+02 -0.30241E+04
 0.79799995E+02 -0.29296E+04
 0.79849998E+02 -0.30144E+04
 0.79899994E+02 -0.31843E+04
 0.79949997E+02 -0.34234E+04
 0.79999992E+02 -0.35269E+04
 0.80049995E+02 -0.35513E+04
 0.80099998E+02 -0.35113E+04
 0.80149994E+02 -0.34075E+04
 0.80199997E+02 -0.34399E+04
 0.80249992E+02 -0.35862E+04
 0.80299995E+02 -0.36386E+04
 0.80349998E+02 -0.36315E+04
 0.80399994E+02 -0.36108E+04
 0.80449997E+02 -0.35380E+04
 0.80499992E+02 -0.34608E+04
 0.80549995E+02 -0.31856E+04
 0.80599998E+02 -0.27924E+04
 0.80649994E+02 -0.24924E+04
 0.80699997E+02 -0.24052E+04
 0.80749992E+02 -0.24497E+04
 0.80799995E+02 -0.26465E+04
 0.80849998E+02 -0.28910E+04
 0.80899994E+02 -0.30241E+04
 0.80949997E+02 -0.30569E+04
 0.80999992E+02 -0.31678E+04
 0.81049995E+02 -0.34402E+04
 0.81099998E+02 -0.35927E+04
 0.81149994E+02 -0.36290E+04
 0.81199997E+02 -0.35585E+04
 0.81249992E+02 -0.33375E+04
 0.81299995E+02 -0.31100E+04
 0.81349998E+02 -0.31559E+04
 0.81399994E+02 -0.31771E+04
 0.81449997E+02 -0.30289E+04
 0.81499992E+02 -0.30675E+04
 0.81549995E+02 -0.31799E+04
 0.81599998E+02 -0.31869E+04
 0.81649994E+02 -0.31162E+04
 0.81699997E+02 -0.31197E+04
 0.81749992E+02 -0.31239E+04
 0.81799995E+02 -0.30916E+04
 0.81849998E+02 -0.31659E+04
 0.81899994E+02 -0.33058E+04
 0.81949997E+02 -0.32057E+04
 0.81999992E+02 -0.30366E+04
 0.82049995E+02 -0.31641E+04
 0.82099998E+02 -0.32480E+04
 0.82149994E+02 -0.31321E+04
 0.82199997E+02 -0.30044E+04
 0.82249992E+02 -0.29682E+04
 0.82299995E+02 -0.30216E+04
 0.82349998E+02 -0.30593E+04
 0.82399994E+02 -0.30322E+04
 0.82449997E+02 -0.27688E+04
 0.82499992E+02 -0.24280E+04
 0.82549995E+02 -0.23416E+04
 0.82599998E+02 -0.25188E+04
 0.82649994E+02 -0.28876E+04
 0.82699997E+02 -0.31947E+04
 0.82749992E+02 -0.33928E+04
 0.82799995E+02 -0.35508E+04
 0.82849998E+02 -0.35754E+04
 0.82899994E+02 -0.35320E+04
 0.82949997E+02 -0.33923E+04
 0.82999992E+02 -0.32452E+04
 0.83049995E+02 -0.32351E+04
 0.83099998E+02 -0.32040E+04
 0.83149994E+02 -0.32434E+04
 0.83199997E+02 -0.32485E+04
 0.83249992E+02 -0.31572E+04
 0.83299995E+02 -0.31665E+04
 0.83349998E+02 -0.32861E+04
 0.83399994E+02 -0.34062E+04
 0.83449997E+02 -0.33994E+04
 0.83499992E+02 -0.34299E+04
 0.83549995E+02 -0.34996E+04
 0.83599998E+02 -0.33608E+04
 0.83649994E+02 -0.31948E+04
 0.83699997E+02 -0.31976E+04
 0.83749992E+02 -0.31536E+04
 0.83799995E+02 -0.30992E+04
 0.83849998E+02 -0.30648E+04
 0.83899994E+02 -0.31605E+04
 0.83949997E+02 -0.31886E+04
 0.83999992E+02 -0.30085E+04
 0.84049995E+02 -0.29311E+04
 0.84099998E+02 -0.29052E+04
 0.84149994E+02 -0.29022E+04
 0.84199997E+02 -0.29151E+04
 0.84249992E+02 -0.29762E+04
 0.84299995E+02 -0.31379E+04
 0.84349998E+02 -0.32215E+04
 0.84399994E+02 -0.31740E+04
 0.84449997E+02 -0.30259E+04
 0.84499992E+02 -0.29145E+04
 0.84549995E+02 -0.29292E+04
 0.84599998E+02 -0.29798E+04
 0.84649994E+02 -0.29345E+04
 0.84699997E+02 -0.28810E+04
 0.84749992E+02 -0.31156E+04
 0.84799995E+02 -0.34352E+04
 0.84849998E+02 -0.36883E+04
 0.84899994E+02 -0.37234E+04
 0.84949997E+02 -0.36060E+04
 0.84999992E+02 -0.35575E+04
 0.85049995E+02 -0.34580E+04
 0.85099998E+02 -0.33519E+04
 0.85149994E+02 -0.32707E+04
 0.85199997E+02 -0.32065E+04
 0.85249992E+02 -0.31470E+04
 0.85299995E+02 -0.30976E+04
 0.85349998E+02 -0.31542E+04
 0.85399994E+02 -0.30303E+04
 0.85449997E+02 -0.26092E+04
 0.85499992E+02 -0.23453E+04
 0.85549995E+02 -0.23260E+04
 0.85599998E+02 -0.25254E+04
 0.85649994E+02 -0.27583E+04
 0.85699997E+02 -0.29407E+04
 0.85749992E+02 -0.31200E+04
 0.85799995E+02 -0.31891E+04
 0.85849998E+02 -0.32170E+04
 0.85899994E+02 -0.32612E+04
 0.85949997E+02 -0.32621E+04
 0.85999992E+02 -0.31305E+04
 0.86049995E+02 -0.30025E+04
 0.86099998E+02 -0.29835E+04
 0.86149994E+02 -0.31122E+04
 0.86199997E+02 -0.33140E+04
 0.86249992E+02 -0.33686E+04
 0.86299995E+02 -0.34019E+04
 0.86349998E+02 -0.35245E+04
 0.86399994E+02 -0.35306E+04
 0.86449997E+02 -0.34685E+04
 0.86499992E+02 -0.33871E+04
 0.86549995E+02 -0.33028E+04
 0.86599998E+02 -0.32422E+04
 0.86649994E+02 -0.31774E+04
 0.86699997E+02 -0.30961E+04
 0.86749992E+02 -0.29929E+04
 0.86799995E+02 -0.28491E+04
 0.86849998E+02 -0.27331E+04
 0.86899994E+02 -0.28782E+04
 0.86949997E+02 -0.30287E+04
 0.86999992E+02 -0.31454E+04
 0.87049995E+02 -0.32432E+04
 0.87099998E+02 -0.31826E+04
 0.87149994E+02 -0.30943E+04
 0.87199997E+02 -0.29523E+04
 0.87249992E+02 -0.28555E+04
 0.87299995E+02 -0.29232E+04
 0.87349998E+02 -0.31225E+04
 0.87399994E+02 -0.32708E+04
 0.87449997E+02 -0.33314E+04
 0.87499992E+02 -0.32529E+04
 0.87549995E+02 -0.31256E+04
 0.87599991E+02 -0.31301E+04
 0.87649994E+02 -0.31298E+04
 0.87699997E+02 -0.31461E+04
 0.87749992E+02 -0.31809E+04
 0.87799995E+02 -0.32318E+04
 0.87849991E+02 -0.33835E+04
 0.87899994E+02 -0.34873E+04
 0.87949997E+02 -0.34695E+04
 0.87999992E+02 -0.34262E+04
 0.88049995E+02 -0.33477E+04
 0.88099991E+02 -0.33238E+04
 0.88149994E+02 -0.33216E+04
 0.88199997E+02 -0.32741E+04
 0.88249992E+02 -0.32337E+04
 0.88299995E+02 -0.31096E+04
 0.88349991E+02 -0.28821E+04
 0.88399994E+02 -0.26574E+04
 0.88449997E+02 -0.25694E+04
 0.88499992E+02 -0.26174E+04
 0.88549995E+02 -0.27015E+04
 0.88599991E+02 -0.27759E+04
 0.88649994E+02 -0.29069E+04
 0.88699997E+02 -0.30704E+04
 0.88749992E+02 -0.31775E+04
 0.88799995E+02 -0.32902E+04
 0.88849991E+02 -0.33650E+04
 0.88899994E+02 -0.33097E+04
 0.88949997E+02 -0.32268E+04
 0.88999992E+02 -0.31707E+04
 0.89049995E+02 -0.31270E+04
 0.89099991E+02 -0.32074E+04
 0.89149994E+02 -0.33352E+04
 0.89199997E+02 -0.34550E+04
 0.89249992E+02 -0.35129E+04
 0.89299995E+02 -0.34540E+04
 0.89349991E+02 -0.34267E+04
 0.89399994E+02 -0.34132E+04
 0.89449997E+02 -0.33179E+04
 0.89499992E+02 -0.32686E+04
 0.89549995E+02 -0.33039E+04
 0.89599991E+02 -0.32395E+04
 0.89649994E+02 -0.31727E+04
 0.89699997E+02 -0.31171E+04
 0.89749992E+02 -0.29828E+04
 0.89799995E+02 -0.28465E+04
 0.89849991E+02 -0.28283E+04
 0.89899994E+02 -0.29374E+04
 0.89949997E+02 -0.30132E+04
 0.89999992E+02 -0.29542E+04
 0.90049995E+02 -0.29025E+04
 0.90099991E+02 -0.29494E+04
 0.90149994E+02 -0.30164E+04
 0.90199997E+02 -0.30808E+04
 0.90249992E+02 -0.31067E+04
 0.90299995E+02 -0.30763E+04
 0.90349991E+02 -0.31237E+04
 0.90399994E+02 -0.31964E+04
 0.90449997E+02 -0.31344E+04
 0.90499992E+02 -0.31014E+04
 0.90549995E+02 -0.31497E+04
 0.90599991E+02 -0.31986E+04
 0.90649994E+02 -0.31856E+04
 0.90699997E+02 -0.32152E+04
 0.90749992E+02 -0.33657E+04
 0.90799995E+02 -0.34302E+04
 0.90849991E+02 -0.33485E+04
 0.90899994E+02 -0.32490E+04
 0.90949997E+02 -0.32235E+04
 0.90999992E+02 -0.32708E+04
 0.91049995E+02 -0.32033E+04
 0.91099991E+02 -0.30613E+04
 0.91149994E+02 -0.30529E+04
 0.91199997E+02 -0.30947E+04
 0.91249992E+02 -0.31991E+04
 0.91299995E+02 -0.33611E+04
 0.91349991E+02 -0.34300E+04
 0.91399994E+02 -0.34187E+04
 0.91449997E+02 -0.33291E+04
 0.91499992E+02 -0.31863E+04
 0.91549995E+02 -0.31045E+04
 0.91599991E+02 -0.30247E+04
 0.91649994E+02 -0.30260E+04
 0.91699997E+02 -0.31852E+04
 0.91749992E+02 -0.32673E+04
 0.91799995E+02 -0.32453E+04
 0.91849991E+02 -0.31988E+04
 0.91899994E+02 -0.31418E+04
 0.91949997E+02 -0.30541E+04
 0.91999992E+02 -0.29761E+04
 0.92049995E+02 -0.29288E+04
 0.92099991E+02 -0.29346E+04
 0.92149994E+02 -0.30386E+04
 0.92199997E+02 -0.31996E+04
 0.92249992E+02 -0.32960E+04
 0.92299995E+02 -0.33113E+04
 0.92349991E+02 -0.32981E+04
 0.92399994E+02 -0.32622E+04
 0.92449997E+02 -0.32238E+04
 0.92499992E+02 -0.31314E+04
 0.92549995E+02 -0.30529E+04
 0.92599991E+02 -0.29884E+04
 0.92649994E+02 -0.29976E+04
 0.92699997E+02 -0.31612E+04
 0.92749992E+02 -0.32879E+04
 0.92799995E+02 -0.33524E+04
 0.92849991E+02 -0.33397E+04
 0.92899994E+02 -0.32874E+04
 0.92949997E+02 -0.33026E+04
 0.92999992E+02 -0.32621E+04
 0.93049995E+02 -0.31717E+04
 0.93099991E+02 -0.30498E+04
 0.93149994E+02 -0.29733E+04
 0.93199997E+02 -0.29460E+04
 0.93249992E+02 -0.29946E+04
 0.93299995E+02 -0.30643E+04
 0.93349991E+02 -0.30748E+04
 0.93399994E+02 -0.30985E+04
 0.93449997E+02 -0.30754E+04
 0.93499992E+02 -0.31254E+04
 0.93549995E+02 -0.31041E+04
 0.93599991E+02 -0.30180E+04
 0.93649994E+02 -0.31207E+04
 0.93699997E+02 -0.32126E+04
 0.93749992E+02 -0.32320E+04
 0.93799995E+02 -0.31774E+04
 0.93849991E+02 -0.30535E+04
 0.93899994E+02 -0.30018E+04
 0.93949997E+02 -0.29427E+04
 0.93999992E+02 -0.29461E+04
 0.94049995E+02 -0.30711E+04
 0.94099991E+02 -0.31208E+04
 0.94149994E+02 -0.31444E+04
 0.94199997E+02 -0.31136E+04
 0.94249992E+02 -0.30051E+04
 0.94299995E+02 -0.29850E+04
 0.94349991E+02 -0.30708E+04
 0.94399994E+02 -0.31288E+04
 0.94449997E+02 -0.30845E+04
 0.94499992E+02 -0.30891E+04
 0.94549995E+02 -0.31462E+04
 0.94599991E+02 -0.31533E+04
 0.94649994E+02 -0.30797E+04
 0.94699997E+02 -0.30039E+04
 0.94749992E+02 -0.29830E+04
 0.94799995E+02 -0.29774E+04
 0.94849991E+02 -0.29462E+04
 0.94899994E+02 -0.28656E+04
 0.94949997E+02 -0.28738E+04
 0.94999992E+02 -0.30436E+04
 0.95049995E+02 -0.32757E+04
 0.95099991E+02 -0.34464E+04
 0.95149994E+02 -0.35072E+04
 0.95199997E+02 -0.35074E+04
 0.95249992E+02 -0.34616E+04
 0.95299995E+02 -0.34003E+04
 0.95349991E+02 -0.33389E+04
 0.95399994E+02 -0.33158E+04
 0.95449997E+02 -0.33257E+04
 0.95499992E+02 -0.33627E+04
 0.95549995E+02 -0.34341E+04
 0.95599991E+02 -0.34835E+04
 0.95649994E+02 -0.34613E+04
 0.95699997E+02 -0.33884E+04
 0.95749992E+02 -0.32832E+04
 0.95799995E+02 -0.31112E+04
 0.95849991E+02 -0.29683E+04
 0.95899994E+02 -0.29505E+04
 0.95949997E+02 -0.30430E+04
 0.95999992E+02 -0.31107E+04
 0.96049995E+02 -0.32144E+04
 0.96099991E+02 -0.33026E+04
 0.96149994E+02 -0.32447E+04
 0.96199997E+02 -0.32091E+04
 0.96249992E+02 -0.31550E+04
 0.96299995E+02 -0.30474E+04
 0.96349991E+02 -0.30226E+04
 0.96399994E+02 -0.30310E+04
 0.96449997E+02 -0.30344E+04
 0.96499992E+02 -0.30823E+04
 0.96549995E+02 -0.30664E+04
 0.96599991E+02 -0.29690E+04
 0.96649994E+02 -0.29055E+04
 0.96699997E+02 -0.28366E+04
 0.96749992E+02 -0.28068E+04
 0.96799995E+02 -0.28371E+04
 0.96849991E+02 -0.29230E+04
 0.96899994E+02 -0.30275E+04
 0.96949997E+02 -0.31167E+04
 0.96999992E+02 -0.31320E+04
 0.97049995E+02 -0.30598E+04
 0.97099991E+02 -0.30381E+04
 0.97149994E+02 -0.29582E+04
 0.97199997E+02 -0.29829E+04
 0.97249992E+02 -0.31508E+04
 0.97299995E+02 -0.32490E+04
 0.97349991E+02 -0.32575E+04
 0.97399994E+02 -0.32348E+04
 0.97449997E+02 -0.32371E+04
 0.97499992E+02 -0.31974E+04
 0.97549995E+02 -0.31618E+04
 0.97599991E+02 -0.31661E+04
 0.97649994E+02 -0.31707E+04
 0.97699997E+02 -0.31181E+04
 0.97749992E+02 -0.30495E+04
 0.97799995E+02 -0.30689E+04
 0.97849991E+02 -0.31412E+04
 0.97899994E+02 -0.31309E+04
 0.97949997E+02 -0.31280E+04
 0.97999992E+02 -0.32490E+04
