-0.20000000E+01 -0.56971E+04
-0.19500000E+01 -0.56776E+04
-0.19000000E+01 -0.57456E+04
-0.18500000E+01 -0.57835E+04
-0.18000000E+01 -0.57560E+04
-0.17500000E+01 -0.57058E+04
-0.17000000E+01 -0.56580E+04
-0.16500001E+01 -0.56145E+04
-0.16000000E+01 -0.55894E+04
-0.15500000E+01 -0.56461E+04
-0.15000000E+01 -0.56830E+04
-0.14500000E+01 -0.56966E+04
-0.14000001E+01 -0.57327E+04
-0.13500000E+01 -0.56830E+04
-0.13000001E+01 -0.56682E+04
-0.12500000E+01 -0.56679E+04
-0.12000000E+01 -0.55825E+04
-0.11500001E+01 -0.55330E+04
-0.11000000E+01 -0.55089E+04
-0.10500001E+01 -0.54993E+04
-0.10000000E+01 -0.55328E+04
-0.95000005E+00 -0.55129E+04
-0.90000010E+00 -0.54719E+04
-0.85000002E+00 -0.54692E+04
-0.80000007E+00 -0.54586E+04
-0.75000012E+00 -0.54290E+04
-0.70000005E+00 -0.54245E+04
-0.65000010E+00 -0.54190E+04
-0.60000014E+00 -0.54059E+04
-0.55000007E+00 -0.54800E+04
-0.50000012E+00 -0.55711E+04
-0.45000005E+00 -0.56043E+04
-0.40000010E+00 -0.56317E+04
-0.35000014E+00 -0.56592E+04
-0.30000007E+00 -0.56924E+04
-0.25000012E+00 -0.56581E+04
-0.20000005E+00 -0.55978E+04
-0.15000010E+00 -0.56047E+04
-0.10000014E+00 -0.56245E+04
-0.50000072E-01 -0.56149E+04
-0.11920929E-06 -0.55946E+04
 0.49999952E-01 -0.56117E+04
 0.99999905E-01 -0.56028E+04
 0.14999986E+00 -0.55905E+04
 0.19999981E+00 -0.55885E+04
 0.24999976E+00 -0.56253E+04
 0.29999995E+00 -0.56422E+04
 0.34999990E+00 -0.56346E+04
 0.39999986E+00 -0.56501E+04
 0.44999981E+00 -0.56549E+04
 0.49999976E+00 -0.56810E+04
 0.54999995E+00 -0.56803E+04
 0.59999990E+00 -0.56997E+04
 0.64999986E+00 -0.57129E+04
 0.69999981E+00 -0.56509E+04
 0.74999976E+00 -0.55973E+04
 0.79999971E+00 -0.55761E+04
 0.84999990E+00 -0.55247E+04
 0.89999986E+00 -0.55149E+04
 0.94999981E+00 -0.55058E+04
 0.99999976E+00 -0.54564E+04
 0.10499997E+01 -0.54453E+04
 0.10999999E+01 -0.54624E+04
 0.11499999E+01 -0.54864E+04
 0.11999998E+01 -0.55056E+04
 0.12499998E+01 -0.55717E+04
 0.12999997E+01 -0.56206E+04
 0.13499999E+01 -0.56231E+04
 0.13999999E+01 -0.56513E+04
 0.14499998E+01 -0.56657E+04
 0.14999998E+01 -0.56787E+04
 0.15499997E+01 -0.57023E+04
 0.15999999E+01 -0.57230E+04
 0.16499999E+01 -0.57175E+04
 0.16999998E+01 -0.57093E+04
 0.17499998E+01 -0.56913E+04
 0.17999997E+01 -0.57222E+04
 0.18499997E+01 -0.57702E+04
 0.18999999E+01 -0.57301E+04
 0.19499998E+01 -0.56837E+04
 0.19999998E+01 -0.56503E+04
 0.20499997E+01 -0.56338E+04
 0.20999999E+01 -0.55885E+04
 0.21499996E+01 -0.55531E+04
 0.21999998E+01 -0.55179E+04
 0.22499995E+01 -0.55130E+04
 0.22999997E+01 -0.55283E+04
 0.23499999E+01 -0.55261E+04
 0.23999996E+01 -0.55007E+04
 0.24499998E+01 -0.55225E+04
 0.24999995E+01 -0.55332E+04
 0.25499997E+01 -0.55182E+04
 0.25999999E+01 -0.55634E+04
 0.26499996E+01 -0.55761E+04
 0.26999998E+01 -0.55887E+04
 0.27499995E+01 -0.55939E+04
 0.27999997E+01 -0.55749E+04
 0.28499999E+01 -0.55884E+04
 0.28999996E+01 -0.56520E+04
 0.29499998E+01 -0.56447E+04
 0.29999995E+01 -0.56508E+04
 0.30499997E+01 -0.56811E+04
 0.30999999E+01 -0.56575E+04
 0.31499996E+01 -0.56263E+04
 0.31999998E+01 -0.56507E+04
 0.32499995E+01 -0.56297E+04
 0.32999997E+01 -0.55786E+04
 0.33499999E+01 -0.55360E+04
 0.33999996E+01 -0.54788E+04
 0.34499998E+01 -0.55089E+04
 0.34999995E+01 -0.55402E+04
 0.35499997E+01 -0.54907E+04
 0.35999994E+01 -0.54823E+04
 0.36499996E+01 -0.55080E+04
 0.36999998E+01 -0.55003E+04
 0.37499995E+01 -0.55201E+04
 0.37999997E+01 -0.55746E+04
 0.38499994E+01 -0.56167E+04
 0.38999996E+01 -0.56607E+04
 0.39499998E+01 -0.57139E+04
 0.39999995E+01 -0.57053E+04
 0.40499997E+01 -0.57465E+04
 0.40999994E+01 -0.57567E+04
 0.41499996E+01 -0.57082E+04
 0.41999998E+01 -0.57152E+04
 0.42499995E+01 -0.57000E+04
 0.42999997E+01 -0.56597E+04
 0.43499994E+01 -0.56928E+04
 0.43999996E+01 -0.57181E+04
 0.44499998E+01 -0.57131E+04
 0.44999995E+01 -0.57068E+04
 0.45499997E+01 -0.56307E+04
 0.45999994E+01 -0.56066E+04
 0.46499996E+01 -0.56205E+04
 0.46999998E+01 -0.55726E+04
 0.47499995E+01 -0.55344E+04
 0.47999997E+01 -0.55479E+04
 0.48499994E+01 -0.55306E+04
 0.48999996E+01 -0.55056E+04
 0.49499998E+01 -0.55259E+04
 0.49999995E+01 -0.55056E+04
 0.50499997E+01 -0.54671E+04
 0.50999994E+01 -0.55115E+04
 0.51499996E+01 -0.55095E+04
 0.51999998E+01 -0.54876E+04
 0.52499995E+01 -0.55004E+04
 0.52999997E+01 -0.55164E+04
 0.53499994E+01 -0.55529E+04
 0.53999996E+01 -0.55693E+04
 0.54499993E+01 -0.55646E+04
 0.54999995E+01 -0.55783E+04
 0.55499997E+01 -0.56259E+04
 0.55999994E+01 -0.56298E+04
 0.56499996E+01 -0.56438E+04
 0.56999993E+01 -0.56823E+04
 0.57499995E+01 -0.56614E+04
 0.57999997E+01 -0.55859E+04
 0.58499994E+01 -0.55528E+04
 0.58999996E+01 -0.55205E+04
 0.59499993E+01 -0.54802E+04
 0.59999995E+01 -0.54669E+04
 0.60499992E+01 -0.54412E+04
 0.60999994E+01 -0.54463E+04
 0.61499996E+01 -0.54775E+04
 0.61999998E+01 -0.55000E+04
 0.62499990E+01 -0.55036E+04
 0.62999992E+01 -0.55340E+04
 0.63499994E+01 -0.55611E+04
 0.63999996E+01 -0.56138E+04
 0.64499998E+01 -0.56462E+04
 0.64999990E+01 -0.56342E+04
 0.65499992E+01 -0.56773E+04
 0.65999994E+01 -0.57179E+04
 0.66499996E+01 -0.57087E+04
 0.66999998E+01 -0.57288E+04
 0.67499990E+01 -0.57885E+04
 0.67999992E+01 -0.57660E+04
 0.68499994E+01 -0.57619E+04
 0.68999996E+01 -0.57845E+04
 0.69499998E+01 -0.57439E+04
 0.69999990E+01 -0.57323E+04
 0.70499992E+01 -0.56969E+04
 0.70999994E+01 -0.56203E+04
 0.71499996E+01 -0.56622E+04
 0.71999998E+01 -0.56712E+04
 0.72499990E+01 -0.56443E+04
 0.72999992E+01 -0.56684E+04
 0.73499994E+01 -0.56475E+04
 0.73999996E+01 -0.56450E+04
 0.74499998E+01 -0.56572E+04
 0.74999990E+01 -0.56484E+04
 0.75499992E+01 -0.56111E+04
 0.75999994E+01 -0.56055E+04
 0.76499996E+01 -0.56163E+04
 0.76999998E+01 -0.55997E+04
 0.77499990E+01 -0.55904E+04
 0.77999992E+01 -0.55424E+04
 0.78499994E+01 -0.55219E+04
 0.78999996E+01 -0.55290E+04
 0.79499998E+01 -0.55025E+04
 0.79999990E+01 -0.55036E+04
 0.80499992E+01 -0.55150E+04
 0.80999994E+01 -0.55257E+04
 0.81499996E+01 -0.55517E+04
 0.81999998E+01 -0.55816E+04
 0.82499990E+01 -0.55831E+04
 0.82999992E+01 -0.56074E+04
 0.83499994E+01 -0.56203E+04
 0.83999996E+01 -0.56116E+04
 0.84499998E+01 -0.56575E+04
 0.84999990E+01 -0.56765E+04
 0.85499992E+01 -0.56603E+04
 0.85999994E+01 -0.56647E+04
 0.86499996E+01 -0.56885E+04
 0.86999998E+01 -0.56829E+04
 0.87499990E+01 -0.56426E+04
 0.87999992E+01 -0.56135E+04
 0.88499994E+01 -0.55975E+04
 0.88999996E+01 -0.55948E+04
 0.89499998E+01 -0.55982E+04
 0.89999990E+01 -0.56019E+04
 0.90499992E+01 -0.56456E+04
 0.90999994E+01 -0.56489E+04
 0.91499996E+01 -0.56386E+04
 0.91999989E+01 -0.56396E+04
 0.92499990E+01 -0.56391E+04
 0.92999992E+01 -0.56077E+04
 0.93499994E+01 -0.55733E+04
 0.93999996E+01 -0.55329E+04
 0.94499989E+01 -0.55109E+04
 0.94999990E+01 -0.54751E+04
 0.95499992E+01 -0.54516E+04
 0.95999994E+01 -0.54325E+04
 0.96499996E+01 -0.54421E+04
 0.96999989E+01 -0.54351E+04
 0.97499990E+01 -0.54333E+04
 0.97999992E+01 -0.55038E+04
 0.98499994E+01 -0.55041E+04
 0.98999996E+01 -0.55421E+04
 0.99499989E+01 -0.55587E+04
 0.99999990E+01 -0.55885E+04
 0.10049999E+02 -0.56530E+04
 0.10099999E+02 -0.56591E+04
 0.10150000E+02 -0.56564E+04
 0.10199999E+02 -0.56872E+04
 0.10249999E+02 -0.56635E+04
 0.10299999E+02 -0.56717E+04
 0.10349999E+02 -0.56847E+04
 0.10400000E+02 -0.56341E+04
 0.10449999E+02 -0.55992E+04
 0.10499999E+02 -0.55867E+04
 0.10549999E+02 -0.55866E+04
 0.10599999E+02 -0.55856E+04
 0.10650000E+02 -0.55876E+04
 0.10699999E+02 -0.56059E+04
 0.10749999E+02 -0.55560E+04
 0.10799999E+02 -0.55371E+04
 0.10849999E+02 -0.55441E+04
 0.10900000E+02 -0.55182E+04
 0.10949999E+02 -0.55279E+04
 0.10999999E+02 -0.55520E+04
 0.11049999E+02 -0.55723E+04
 0.11099999E+02 -0.55983E+04
 0.11150000E+02 -0.56124E+04
 0.11199999E+02 -0.56360E+04
 0.11249999E+02 -0.56539E+04
 0.11299999E+02 -0.56471E+04
 0.11349999E+02 -0.56661E+04
 0.11400000E+02 -0.56600E+04
 0.11449999E+02 -0.56620E+04
 0.11499999E+02 -0.56386E+04
 0.11549999E+02 -0.56573E+04
 0.11599999E+02 -0.56648E+04
 0.11650000E+02 -0.57040E+04
 0.11699999E+02 -0.57325E+04
 0.11749999E+02 -0.56855E+04
 0.11799999E+02 -0.56866E+04
 0.11849999E+02 -0.57120E+04
 0.11900000E+02 -0.56443E+04
 0.11949999E+02 -0.56026E+04
 0.11999999E+02 -0.56333E+04
 0.12049999E+02 -0.55830E+04
 0.12099999E+02 -0.55572E+04
 0.12150000E+02 -0.55524E+04
 0.12199999E+02 -0.55434E+04
 0.12249999E+02 -0.55529E+04
 0.12299999E+02 -0.55800E+04
 0.12349999E+02 -0.55609E+04
 0.12400000E+02 -0.55583E+04
 0.12449999E+02 -0.56124E+04
 0.12499999E+02 -0.56140E+04
 0.12549999E+02 -0.55901E+04
 0.12599999E+02 -0.56364E+04
 0.12649999E+02 -0.56176E+04
 0.12699999E+02 -0.55925E+04
 0.12749999E+02 -0.56360E+04
 0.12799999E+02 -0.56424E+04
 0.12849999E+02 -0.56325E+04
 0.12899999E+02 -0.56188E+04
 0.12949999E+02 -0.55795E+04
 0.12999999E+02 -0.55246E+04
 0.13049999E+02 -0.55281E+04
 0.13099999E+02 -0.54988E+04
 0.13149999E+02 -0.54945E+04
 0.13199999E+02 -0.55018E+04
 0.13249999E+02 -0.55449E+04
 0.13299999E+02 -0.55880E+04
 0.13349999E+02 -0.56126E+04
 0.13399999E+02 -0.56494E+04
 0.13449999E+02 -0.56620E+04
 0.13499999E+02 -0.56923E+04
 0.13549999E+02 -0.56820E+04
 0.13599999E+02 -0.56926E+04
 0.13649999E+02 -0.56706E+04
 0.13699999E+02 -0.56265E+04
 0.13749999E+02 -0.55550E+04
 0.13799999E+02 -0.55744E+04
 0.13849999E+02 -0.56100E+04
 0.13899999E+02 -0.56098E+04
 0.13949999E+02 -0.56477E+04
 0.13999999E+02 -0.56012E+04
 0.14049999E+02 -0.55947E+04
 0.14099998E+02 -0.55714E+04
 0.14150000E+02 -0.55429E+04
 0.14199999E+02 -0.55629E+04
 0.14249998E+02 -0.55610E+04
 0.14299999E+02 -0.55497E+04
 0.14349998E+02 -0.56110E+04
 0.14400000E+02 -0.56488E+04
 0.14449999E+02 -0.56320E+04
 0.14499998E+02 -0.56462E+04
 0.14549999E+02 -0.56372E+04
 0.14599998E+02 -0.56309E+04
 0.14650000E+02 -0.56697E+04
 0.14699999E+02 -0.56942E+04
 0.14749998E+02 -0.56877E+04
 0.14799999E+02 -0.56622E+04
 0.14849998E+02 -0.56598E+04
 0.14900000E+02 -0.56611E+04
 0.14949999E+02 -0.56314E+04
 0.14999998E+02 -0.56581E+04
 0.15049999E+02 -0.56299E+04
 0.15099998E+02 -0.55945E+04
 0.15150000E+02 -0.55686E+04
 0.15199999E+02 -0.55393E+04
 0.15249998E+02 -0.55168E+04
 0.15299999E+02 -0.55074E+04
 0.15349998E+02 -0.54770E+04
 0.15400000E+02 -0.54589E+04
 0.15449999E+02 -0.54500E+04
 0.15499998E+02 -0.53816E+04
 0.15549999E+02 -0.53868E+04
 0.15599998E+02 -0.53936E+04
 0.15650000E+02 -0.54185E+04
 0.15699999E+02 -0.54442E+04
 0.15749998E+02 -0.54663E+04
 0.15799999E+02 -0.54824E+04
 0.15849998E+02 -0.54870E+04
 0.15900000E+02 -0.55245E+04
 0.15949999E+02 -0.55437E+04
 0.15999998E+02 -0.55640E+04
 0.16049999E+02 -0.56081E+04
 0.16099998E+02 -0.56125E+04
 0.16150000E+02 -0.56288E+04
 0.16199999E+02 -0.56459E+04
 0.16249998E+02 -0.56687E+04
 0.16299999E+02 -0.56863E+04
 0.16349998E+02 -0.56699E+04
 0.16400000E+02 -0.56928E+04
 0.16449999E+02 -0.57167E+04
 0.16499998E+02 -0.57117E+04
 0.16549999E+02 -0.56831E+04
 0.16599998E+02 -0.56967E+04
 0.16650000E+02 -0.56989E+04
 0.16699999E+02 -0.56719E+04
 0.16749998E+02 -0.56872E+04
 0.16799999E+02 -0.56739E+04
 0.16849998E+02 -0.56703E+04
 0.16900000E+02 -0.57117E+04
 0.16949999E+02 -0.57077E+04
 0.16999998E+02 -0.57069E+04
 0.17049999E+02 -0.56735E+04
 0.17099998E+02 -0.56681E+04
 0.17150000E+02 -0.56774E+04
 0.17199999E+02 -0.56725E+04
 0.17249998E+02 -0.56387E+04
 0.17299999E+02 -0.56090E+04
 0.17349998E+02 -0.56113E+04
 0.17400000E+02 -0.56108E+04
 0.17449999E+02 -0.56160E+04
 0.17499998E+02 -0.55962E+04
 0.17549999E+02 -0.55995E+04
 0.17599998E+02 -0.56040E+04
 0.17650000E+02 -0.56510E+04
 0.17699999E+02 -0.56396E+04
 0.17749998E+02 -0.56323E+04
 0.17799999E+02 -0.56722E+04
 0.17849998E+02 -0.56739E+04
 0.17900000E+02 -0.56519E+04
 0.17949999E+02 -0.57140E+04
 0.17999998E+02 -0.57177E+04
 0.18049999E+02 -0.56247E+04
 0.18099998E+02 -0.56339E+04
 0.18150000E+02 -0.56496E+04
 0.18199999E+02 -0.56320E+04
 0.18249998E+02 -0.56337E+04
 0.18299999E+02 -0.56361E+04
 0.18349998E+02 -0.56097E+04
 0.18400000E+02 -0.56102E+04
 0.18449999E+02 -0.56091E+04
 0.18499998E+02 -0.55581E+04
 0.18549999E+02 -0.55261E+04
 0.18599998E+02 -0.55688E+04
 0.18650000E+02 -0.55617E+04
 0.18699999E+02 -0.54978E+04
 0.18749998E+02 -0.55440E+04
 0.18799999E+02 -0.55763E+04
 0.18849998E+02 -0.54922E+04
 0.18900000E+02 -0.54673E+04
 0.18949999E+02 -0.55249E+04
 0.18999998E+02 -0.54856E+04
 0.19049999E+02 -0.54090E+04
 0.19099998E+02 -0.54090E+04
 0.19150000E+02 -0.54294E+04
 0.19199999E+02 -0.54476E+04
 0.19249998E+02 -0.54495E+04
 0.19299999E+02 -0.55244E+04
 0.19349998E+02 -0.55738E+04
 0.19400000E+02 -0.55384E+04
 0.19449999E+02 -0.55337E+04
 0.19499998E+02 -0.55708E+04
 0.19549999E+02 -0.55531E+04
 0.19599998E+02 -0.55718E+04
 0.19650000E+02 -0.56116E+04
 0.19699999E+02 -0.55976E+04
 0.19749998E+02 -0.56370E+04
 0.19799999E+02 -0.56294E+04
 0.19849998E+02 -0.56074E+04
 0.19900000E+02 -0.56271E+04
 0.19949999E+02 -0.56514E+04
 0.19999998E+02 -0.56554E+04
 0.20049999E+02 -0.56177E+04
 0.20099998E+02 -0.55929E+04
 0.20150000E+02 -0.55853E+04
 0.20199999E+02 -0.56292E+04
 0.20249998E+02 -0.56491E+04
 0.20299999E+02 -0.56216E+04
 0.20349998E+02 -0.56548E+04
 0.20399998E+02 -0.56459E+04
 0.20449999E+02 -0.56433E+04
 0.20499998E+02 -0.56528E+04
 0.20549999E+02 -0.57002E+04
 0.20599998E+02 -0.56930E+04
 0.20649998E+02 -0.56416E+04
 0.20699999E+02 -0.56543E+04
 0.20749998E+02 -0.56083E+04
 0.20799999E+02 -0.56008E+04
 0.20849998E+02 -0.55997E+04
 0.20899998E+02 -0.55852E+04
 0.20949999E+02 -0.55716E+04
 0.20999998E+02 -0.55756E+04
 0.21049999E+02 -0.55279E+04
 0.21099998E+02 -0.55151E+04
 0.21149998E+02 -0.55821E+04
 0.21199999E+02 -0.55647E+04
 0.21249998E+02 -0.55711E+04
 0.21299999E+02 -0.55893E+04
 0.21349998E+02 -0.55995E+04
 0.21399998E+02 -0.56039E+04
 0.21449999E+02 -0.56312E+04
 0.21499998E+02 -0.56670E+04
 0.21549999E+02 -0.56901E+04
 0.21599998E+02 -0.57024E+04
 0.21649998E+02 -0.57023E+04
 0.21699999E+02 -0.57435E+04
 0.21749998E+02 -0.57549E+04
 0.21799999E+02 -0.57363E+04
 0.21849998E+02 -0.57161E+04
 0.21899998E+02 -0.57288E+04
 0.21949999E+02 -0.57068E+04
 0.21999998E+02 -0.56518E+04
 0.22049999E+02 -0.56318E+04
 0.22099998E+02 -0.56007E+04
 0.22149998E+02 -0.55895E+04
 0.22199999E+02 -0.56093E+04
 0.22249998E+02 -0.56106E+04
 0.22299999E+02 -0.55672E+04
 0.22349998E+02 -0.55813E+04
 0.22399998E+02 -0.56106E+04
 0.22449999E+02 -0.56105E+04
 0.22499998E+02 -0.56144E+04
 0.22549999E+02 -0.56655E+04
 0.22599998E+02 -0.57381E+04
 0.22649998E+02 -0.56678E+04
 0.22699999E+02 -0.54458E+04
 0.22749998E+02 -0.51682E+04
 0.22799999E+02 -0.51950E+04
 0.22849998E+02 -0.57352E+04
 0.22899998E+02 -0.62288E+04
 0.22949999E+02 -0.61658E+04
 0.22999998E+02 -0.58763E+04
 0.23049999E+02 -0.60531E+04
 0.23099998E+02 -0.67008E+04
 0.23149998E+02 -0.67683E+04
 0.23199999E+02 -0.59320E+04
 0.23249998E+02 -0.52128E+04
 0.23299999E+02 -0.56155E+04
 0.23349998E+02 -0.63506E+04
 0.23399998E+02 -0.49280E+04
 0.23449999E+02 -0.33917E+04
 0.23499998E+02 -0.43872E+04
 0.23549999E+02 -0.63799E+04
 0.23599998E+02 -0.66690E+04
 0.23649998E+02 -0.42467E+04
 0.23699999E+02 -0.32713E+04
 0.23749998E+02 -0.57058E+04
 0.23799999E+02 -0.77821E+04
 0.23849998E+02 -0.72683E+04
 0.23899998E+02 -0.68170E+04
 0.23949999E+02 -0.54608E+04
 0.23999998E+02 -0.18183E+04
 0.24049999E+02 -0.14075E+04
 0.24099998E+02 -0.59574E+04
 0.24149998E+02 -0.97246E+04
 0.24199999E+02 -0.73815E+04
 0.24249998E+02 -0.38323E+04
 0.24299999E+02 -0.39725E+04
 0.24349998E+02 -0.41819E+04
 0.24399998E+02 -0.29054E+04
 0.24449999E+02 -0.30600E+04
 0.24499998E+02 -0.82957E+04
 0.24549999E+02 -0.13129E+05
 0.24599998E+02 -0.90907E+04
 0.24649998E+02 -0.52475E+03
 0.24699999E+02 -0.28083E+03
 0.24749998E+02 -0.46373E+04
 0.24799999E+02 -0.61206E+04
 0.24849998E+02 -0.88058E+04
 0.24899998E+02 -0.10577E+05
 0.24949999E+02 -0.76367E+04
 0.24999998E+02  0.54285E+03
 0.25049999E+02  0.24464E+04
 0.25099998E+02 -0.66796E+04
 0.25149998E+02 -0.15772E+05
 0.25199999E+02 -0.12060E+05
 0.25249998E+02 -0.42378E+03
 0.25299999E+02 -0.13837E+04
 0.25349998E+02 -0.88001E+04
 0.25399998E+02 -0.78529E+04
 0.25449999E+02 -0.55206E+03
 0.25499998E+02 -0.25413E+04
 0.25549999E+02 -0.93734E+04
 0.25599998E+02 -0.75758E+04
 0.25649998E+02 -0.38304E+04
 0.25699999E+02 -0.24800E+04
 0.25749998E+02 -0.44526E+04
 0.25799999E+02 -0.69391E+04
 0.25849998E+02 -0.89455E+04
 0.25899998E+02 -0.10237E+05
 0.25949999E+02 -0.83754E+04
 0.25999998E+02 -0.13603E+04
 0.26049999E+02 -0.11666E+04
 0.26099998E+02 -0.79693E+04
 0.26149998E+02 -0.11008E+05
 0.26199999E+02 -0.74037E+04
 0.26249998E+02 -0.10231E+04
 0.26299999E+02 -0.23757E+04
 0.26349998E+02 -0.49835E+04
 0.26399998E+02 -0.44924E+04
 0.26449999E+02 -0.87304E+04
 0.26499998E+02 -0.11978E+05
 0.26549999E+02 -0.27863E+04
 0.26599998E+02  0.32576E+04
 0.26649998E+02 -0.18759E+04
 0.26699999E+02 -0.83480E+04
 0.26749998E+02 -0.10869E+05
 0.26799999E+02 -0.57934E+04
 0.26849998E+02 -0.46837E+04
 0.26899998E+02 -0.12178E+05
 0.26949999E+02 -0.10859E+05
 0.26999998E+02  0.15140E+04
 0.27049997E+02  0.56400E+04
 0.27099998E+02 -0.35601E+04
 0.27149998E+02 -0.11272E+05
 0.27199999E+02 -0.10065E+05
 0.27249998E+02 -0.53835E+04
 0.27299997E+02 -0.34554E+04
 0.27349998E+02 -0.26368E+04
 0.27399998E+02 -0.23005E+04
 0.27449999E+02 -0.53727E+04
 0.27499998E+02 -0.94453E+04
 0.27549997E+02 -0.71884E+04
 0.27599998E+02 -0.64636E+03
 0.27649998E+02 -0.46576E+04
 0.27699999E+02 -0.79437E+04
 0.27749998E+02 -0.60803E+04
 0.27799997E+02 -0.52087E+04
 0.27849998E+02 -0.61176E+04
 0.27899998E+02 -0.79932E+04
 0.27949999E+02 -0.22278E+04
 0.27999998E+02 -0.36347E+04
 0.28049997E+02 -0.11215E+05
 0.28099998E+02 -0.13186E+05
 0.28149998E+02 -0.73947E+04
 0.28199999E+02 -0.40302E+04
 0.28249998E+02 -0.91038E+04
 0.28299997E+02 -0.54055E+04
 0.28349998E+02 -0.11544E+04
 0.28399998E+02  0.25664E+01
 0.28449999E+02 -0.39604E+04
 0.28499998E+02 -0.10109E+05
 0.28549997E+02 -0.78091E+04
 0.28599998E+02 -0.53328E+04
 0.28649998E+02 -0.15254E+04
 0.28699999E+02 -0.42504E+04
 0.28749998E+02 -0.70777E+04
 0.28799997E+02 -0.82730E+04
 0.28849998E+02 -0.97726E+04
 0.28899998E+02 -0.51821E+04
 0.28949999E+02 -0.11905E+04
 0.28999998E+02  0.42263E+03
 0.29049997E+02 -0.29604E+04
 0.29099998E+02 -0.84511E+04
 0.29149998E+02 -0.10560E+05
 0.29199999E+02 -0.95917E+04
 0.29249998E+02 -0.55905E+04
 0.29299997E+02  0.30793E+03
 0.29349998E+02  0.12193E+01
 0.29399998E+02 -0.63489E+04
 0.29449999E+02 -0.10313E+05
 0.29499998E+02 -0.72286E+04
 0.29549997E+02 -0.68852E+04
 0.29599998E+02 -0.78749E+04
 0.29649998E+02 -0.21059E+04
 0.29699999E+02 -0.54814E+03
 0.29749998E+02 -0.33455E+04
 0.29799997E+02 -0.62579E+04
 0.29849998E+02 -0.77074E+04
 0.29899998E+02 -0.86589E+04
 0.29949999E+02 -0.11455E+05
 0.29999998E+02 -0.10418E+05
 0.30049999E+02 -0.17511E+04
 0.30099998E+02  0.13393E+04
 0.30149998E+02 -0.33003E+04
 0.30199997E+02 -0.59422E+04
 0.30249996E+02 -0.71754E+04
 0.30299999E+02 -0.52506E+04
 0.30349998E+02 -0.45909E+04
 0.30399998E+02 -0.42338E+04
 0.30449997E+02 -0.36164E+04
 0.30499996E+02 -0.66946E+04
 0.30549999E+02 -0.62693E+04
 0.30599998E+02 -0.49375E+04
 0.30649998E+02 -0.69376E+04
 0.30699997E+02 -0.49529E+04
 0.30749996E+02 -0.25679E+04
 0.30799999E+02 -0.53930E+04
 0.30849998E+02 -0.83147E+04
 0.30899998E+02 -0.92727E+04
 0.30949997E+02 -0.71661E+04
 0.30999996E+02 -0.17377E+04
 0.31049999E+02 -0.22800E+04
 0.31099998E+02 -0.67782E+04
 0.31149998E+02 -0.32936E+04
 0.31199997E+02  0.26192E+04
 0.31249996E+02 -0.15209E+04
 0.31299999E+02 -0.66885E+04
 0.31349998E+02 -0.57007E+04
 0.31399998E+02 -0.71753E+04
 0.31449997E+02 -0.12673E+05
 0.31499996E+02 -0.13098E+05
 0.31549999E+02 -0.72286E+04
 0.31599998E+02 -0.53313E+04
 0.31649998E+02 -0.63540E+04
 0.31699997E+02 -0.76725E+04
 0.31749996E+02 -0.64859E+04
 0.31799999E+02 -0.58814E+04
 0.31849998E+02 -0.69328E+04
 0.31899998E+02 -0.18118E+04
 0.31949997E+02 -0.97386E+03
 0.31999996E+02  0.35589E+03
 0.32049999E+02  0.73158E+02
 0.32099998E+02 -0.56836E+04
 0.32149998E+02 -0.60922E+04
 0.32199997E+02 -0.93060E+04
 0.32249996E+02 -0.13298E+05
 0.32299999E+02 -0.63678E+04
 0.32349998E+02 -0.45206E+04
 0.32399998E+02 -0.11355E+05
 0.32449997E+02 -0.37071E+04
 0.32499996E+02 -0.38594E+03
 0.32549999E+02 -0.99014E+04
 0.32599998E+02 -0.12234E+05
 0.32649998E+02 -0.78268E+04
 0.32699997E+02 -0.22295E+04
 0.32749996E+02 -0.16782E+04
 0.32799999E+02 -0.60180E+04
 0.32849998E+02 -0.43363E+04
 0.32899998E+02 -0.17463E+04
 0.32949997E+02 -0.39007E+04
 0.32999996E+02 -0.62207E+04
 0.33049999E+02 -0.70424E+04
 0.33099998E+02 -0.28277E+04
 0.33149998E+02 -0.19547E+04
 0.33199997E+02 -0.69259E+04
 0.33249996E+02 -0.77682E+04
 0.33299999E+02 -0.42375E+04
 0.33349998E+02  0.77075E+03
 0.33399998E+02  0.47095E+03
 0.33449997E+02 -0.71283E+04
 0.33499996E+02 -0.79856E+04
 0.33549999E+02 -0.40220E+04
 0.33599998E+02 -0.62913E+04
 0.33649998E+02 -0.91576E+04
 0.33699997E+02 -0.10967E+05
 0.33749996E+02 -0.70742E+04
 0.33799999E+02 -0.23384E+04
 0.33849998E+02 -0.62624E+04
 0.33899998E+02 -0.98472E+04
 0.33949997E+02 -0.57273E+04
 0.33999996E+02 -0.64982E+04
 0.34049999E+02 -0.12606E+05
 0.34099998E+02 -0.11251E+05
 0.34149998E+02 -0.57283E+04
 0.34199997E+02 -0.96143E+03
 0.34249996E+02 -0.26061E+04
 0.34299999E+02 -0.61141E+04
 0.34349998E+02 -0.73529E+04
 0.34399998E+02 -0.63770E+04
 0.34449997E+02 -0.74455E+04
 0.34499996E+02 -0.10601E+05
 0.34549999E+02 -0.75909E+04
 0.34599998E+02 -0.52258E+04
 0.34649998E+02 -0.79842E+04
 0.34699997E+02 -0.61216E+04
 0.34749996E+02  0.19561E+04
 0.34799999E+02  0.98149E+03
 0.34849998E+02 -0.49577E+04
 0.34899998E+02 -0.55219E+04
 0.34949997E+02 -0.62191E+04
 0.34999996E+02 -0.56228E+04
 0.35049999E+02 -0.55952E+04
 0.35099998E+02 -0.72262E+04
 0.35149998E+02 -0.75473E+04
 0.35199997E+02 -0.73267E+04
 0.35249996E+02 -0.71364E+04
 0.35299999E+02 -0.60289E+04
 0.35349998E+02 -0.51693E+04
 0.35399998E+02 -0.30629E+04
 0.35449997E+02 -0.27573E+04
 0.35499996E+02 -0.55694E+04
 0.35549999E+02 -0.72559E+04
 0.35599998E+02 -0.67488E+04
 0.35649998E+02 -0.47547E+04
 0.35699997E+02 -0.40174E+04
 0.35749996E+02 -0.36255E+04
 0.35799999E+02 -0.50208E+04
 0.35849998E+02 -0.63911E+04
 0.35899998E+02 -0.71480E+04
 0.35949997E+02 -0.81854E+04
 0.35999996E+02 -0.69617E+04
 0.36049999E+02 -0.35959E+04
 0.36099998E+02  0.53363E+03
 0.36149998E+02  0.21781E+03
 0.36199997E+02 -0.56175E+04
 0.36249996E+02 -0.99929E+04
 0.36299999E+02 -0.88850E+04
 0.36349998E+02 -0.67708E+04
 0.36399998E+02 -0.52008E+04
 0.36449997E+02 -0.58855E+04
 0.36499996E+02 -0.65579E+04
 0.36549999E+02 -0.38327E+04
 0.36599998E+02 -0.39902E+04
 0.36649998E+02 -0.79871E+04
 0.36699997E+02 -0.83537E+04
 0.36749996E+02 -0.47102E+04
 0.36799999E+02 -0.52080E+04
 0.36849998E+02 -0.49635E+04
 0.36899998E+02 -0.27346E+04
 0.36949997E+02 -0.35499E+04
 0.36999996E+02 -0.31397E+04
 0.37049999E+02 -0.31763E+04
 0.37099998E+02 -0.56309E+04
 0.37149998E+02 -0.41125E+04
 0.37199997E+02 -0.54445E+04
 0.37249996E+02 -0.11001E+05
 0.37299999E+02 -0.14772E+05
 0.37349998E+02 -0.14197E+05
 0.37399998E+02 -0.99937E+04
 0.37449997E+02 -0.10421E+05
 0.37499996E+02 -0.11176E+05
 0.37549999E+02 -0.96865E+04
 0.37599998E+02 -0.82455E+04
 0.37649998E+02 -0.59078E+04
 0.37699997E+02  0.55944E+03
 0.37749996E+02  0.59850E+04
 0.37799999E+02  0.78289E+04
 0.37849998E+02  0.12143E+05
 0.37899998E+02  0.14927E+05
 0.37949997E+02  0.81686E+04
 0.37999996E+02 -0.48043E+04
 0.38049999E+02 -0.11008E+05
 0.38099998E+02 -0.11727E+05
 0.38149998E+02 -0.12594E+05
 0.38199997E+02 -0.10579E+05
 0.38249996E+02 -0.90625E+04
 0.38299999E+02 -0.10249E+05
 0.38349998E+02 -0.81930E+04
 0.38399998E+02 -0.30888E+04
 0.38449997E+02  0.20613E+04
 0.38499996E+02  0.51708E+04
 0.38549999E+02  0.36000E+04
 0.38599998E+02  0.57057E+02
 0.38649998E+02 -0.26797E+04
 0.38699997E+02 -0.95956E+03
 0.38749996E+02  0.29890E+04
 0.38799999E+02 -0.33007E+03
 0.38849998E+02 -0.83212E+04
 0.38899998E+02 -0.16413E+05
 0.38949997E+02 -0.27478E+05
 0.38999996E+02 -0.34402E+05
 0.39049999E+02 -0.26270E+05
 0.39099998E+02 -0.93585E+04
 0.39149998E+02  0.31848E+04
 0.39199997E+02  0.55356E+04
 0.39249996E+02  0.62674E+04
 0.39299999E+02  0.53199E+04
 0.39349998E+02 -0.39224E+04
 0.39399998E+02 -0.12009E+05
 0.39449997E+02 -0.15984E+05
 0.39499996E+02 -0.11399E+05
 0.39549999E+02 -0.10419E+05
 0.39599998E+02 -0.26430E+05
 0.39649998E+02 -0.47741E+05
 0.39699997E+02 -0.50148E+05
 0.39749996E+02 -0.37996E+05
 0.39799999E+02 -0.36562E+05
 0.39849998E+02 -0.30973E+05
 0.39899998E+02  0.26021E+04
 0.39949997E+02  0.40423E+05
 0.39999996E+02  0.43368E+05
 0.40049999E+02  0.39498E+05
 0.40099998E+02  0.47754E+05
 0.40149998E+02  0.44023E+05
 0.40199997E+02  0.20660E+05
 0.40249996E+02 -0.52185E+04
 0.40299999E+02 -0.21409E+05
 0.40349998E+02 -0.24897E+05
 0.40399998E+02 -0.22541E+05
 0.40449997E+02 -0.18708E+05
 0.40499996E+02  0.36588E+03
 0.40549999E+02  0.22151E+05
 0.40599998E+02  0.17216E+05
 0.40649998E+02 -0.16163E+05
 0.40699997E+02 -0.36953E+05
 0.40749996E+02 -0.28044E+05
 0.40799999E+02 -0.18351E+05
 0.40849998E+02 -0.21791E+05
 0.40899998E+02 -0.10536E+05
 0.40949997E+02  0.81477E+04
 0.40999996E+02  0.48587E+04
 0.41049999E+02 -0.38862E+04
 0.41099998E+02 -0.15769E+04
 0.41149998E+02  0.89623E+04
 0.41199997E+02  0.16257E+05
 0.41249996E+02  0.21687E+04
 0.41299999E+02 -0.17653E+05
 0.41349998E+02 -0.18848E+05
 0.41399998E+02 -0.20753E+05
 0.41449997E+02 -0.30992E+05
 0.41499996E+02 -0.23590E+05
 0.41549999E+02 -0.48392E+02
 0.41599998E+02  0.17516E+05
 0.41649998E+02  0.18200E+05
 0.41699997E+02  0.16182E+03
 0.41749996E+02 -0.80991E+04
 0.41799999E+02  0.36742E+04
 0.41849998E+02  0.80075E+04
 0.41899998E+02 -0.57020E+04
 0.41949997E+02 -0.13033E+05
 0.41999996E+02 -0.13421E+05
 0.42049999E+02 -0.14836E+05
 0.42099998E+02 -0.11242E+05
 0.42149998E+02 -0.17376E+04
 0.42199997E+02  0.98463E+04
 0.42249996E+02  0.45841E+04
 0.42299999E+02 -0.11206E+05
 0.42349998E+02 -0.20390E+05
 0.42399998E+02 -0.22460E+05
 0.42449997E+02 -0.18841E+05
 0.42499996E+02 -0.15891E+05
 0.42549999E+02 -0.19353E+05
 0.42599998E+02 -0.12704E+05
 0.42649998E+02  0.83321E+03
 0.42699997E+02  0.48138E+04
 0.42749996E+02  0.24135E+04
 0.42799995E+02 -0.33396E+04
 0.42849998E+02 -0.24290E+04
 0.42899998E+02 -0.37760E+03
 0.42949997E+02 -0.48552E+04
 0.42999996E+02 -0.13082E+05
 0.43049995E+02 -0.21279E+05
 0.43099998E+02 -0.21039E+05
 0.43149998E+02 -0.13672E+05
 0.43199997E+02 -0.14013E+05
 0.43249996E+02 -0.24394E+05
 0.43299995E+02 -0.15198E+05
 0.43349998E+02  0.22480E+04
 0.43399998E+02  0.41416E+04
 0.43449997E+02  0.66920E+04
 0.43499996E+02  0.13400E+05
 0.43549995E+02  0.11931E+05
 0.43599998E+02  0.86803E+04
 0.43649998E+02  0.96007E+04
 0.43699997E+02  0.11150E+05
 0.43749996E+02  0.15769E+05
 0.43799995E+02  0.12628E+05
 0.43849998E+02  0.12419E+04
 0.43899998E+02 -0.52816E+04
 0.43949997E+02 -0.95303E+04
 0.43999996E+02 -0.15732E+05
 0.44049995E+02 -0.22595E+05
 0.44099998E+02 -0.24949E+05
 0.44149998E+02 -0.13538E+05
 0.44199997E+02  0.41437E+04
 0.44249996E+02  0.10538E+05
 0.44299995E+02  0.26838E+04
 0.44349998E+02 -0.33133E+04
 0.44399998E+02 -0.28897E+04
 0.44449997E+02 -0.69125E+04
 0.44499996E+02 -0.13520E+05
 0.44549995E+02 -0.13990E+05
 0.44599998E+02 -0.11413E+05
 0.44649998E+02 -0.13865E+05
 0.44699997E+02 -0.15290E+05
 0.44749996E+02 -0.11709E+05
 0.44799995E+02 -0.14192E+05
 0.44849998E+02 -0.21092E+05
 0.44899998E+02 -0.16175E+05
 0.44949997E+02 -0.68902E+04
 0.44999996E+02 -0.54900E+04
 0.45049995E+02 -0.27630E+04
 0.45099998E+02 -0.11444E+04
 0.45149998E+02 -0.33870E+04
 0.45199997E+02  0.40679E+04
 0.45249996E+02  0.14525E+05
 0.45299995E+02  0.79542E+04
 0.45349998E+02 -0.11355E+05
 0.45399998E+02 -0.19906E+05
 0.45449997E+02 -0.17523E+05
 0.45499996E+02 -0.17901E+05
 0.45549995E+02 -0.14365E+05
 0.45599998E+02 -0.49881E+04
 0.45649998E+02 -0.97893E+03
 0.45699997E+02  0.13352E+04
 0.45749996E+02  0.34904E+04
 0.45799995E+02 -0.30837E+04
 0.45849998E+02 -0.52072E+04
 0.45899998E+02  0.26897E+04
 0.45949997E+02  0.87963E+04
 0.45999996E+02  0.79385E+04
 0.46049995E+02  0.53735E+03
 0.46099998E+02 -0.85776E+04
 0.46149998E+02 -0.13520E+05
 0.46199997E+02 -0.12582E+05
 0.46249996E+02 -0.99620E+04
 0.46299995E+02 -0.11136E+05
 0.46349998E+02 -0.17156E+05
 0.46399998E+02 -0.20906E+05
 0.46449997E+02 -0.14651E+05
 0.46499996E+02 -0.91497E+04
 0.46549995E+02 -0.13393E+05
 0.46599998E+02 -0.18416E+05
 0.46649998E+02 -0.14426E+05
 0.46699997E+02 -0.44973E+04
 0.46749996E+02  0.30785E+04
 0.46799995E+02  0.60017E+04
 0.46849998E+02  0.74501E+04
 0.46899998E+02  0.87019E+04
 0.46949997E+02  0.46934E+04
 0.46999996E+02  0.42288E+02
 0.47049995E+02 -0.18769E+04
 0.47099998E+02  0.76972E+03
 0.47149998E+02  0.81092E+03
 0.47199997E+02 -0.55594E+04
 0.47249996E+02 -0.13457E+05
 0.47299995E+02 -0.15005E+05
 0.47349998E+02 -0.12209E+05
 0.47399998E+02 -0.15183E+05
 0.47449997E+02 -0.14870E+05
 0.47499996E+02 -0.91240E+04
 0.47549995E+02 -0.54650E+04
 0.47599998E+02 -0.13672E+04
 0.47649998E+02  0.43107E+04
 0.47699997E+02  0.41326E+04
 0.47749996E+02  0.20095E+04
 0.47799995E+02 -0.21151E+04
 0.47849998E+02 -0.11196E+05
 0.47899998E+02 -0.13207E+05
 0.47949997E+02 -0.77048E+04
 0.47999996E+02 -0.63252E+04
 0.48049995E+02 -0.38096E+04
 0.48099998E+02  0.38706E+04
 0.48149998E+02  0.88394E+04
 0.48199997E+02  0.57950E+04
 0.48249996E+02 -0.64669E+04
 0.48299995E+02 -0.17433E+05
 0.48349998E+02 -0.16132E+05
 0.48399998E+02 -0.95226E+04
 0.48449997E+02 -0.57432E+04
 0.48499996E+02 -0.45286E+03
 0.48549995E+02  0.32041E+04
 0.48599998E+02 -0.11957E+04
 0.48649998E+02 -0.10095E+05
 0.48699997E+02 -0.14586E+05
 0.48749996E+02 -0.14085E+05
 0.48799995E+02 -0.13744E+05
 0.48849998E+02 -0.13486E+05
 0.48899998E+02 -0.90660E+04
 0.48949997E+02 -0.22281E+04
 0.48999996E+02  0.42772E+03
 0.49049995E+02  0.26749E+04
 0.49099998E+02  0.27505E+04
 0.49149998E+02  0.12174E+02
 0.49199997E+02 -0.29805E+04
 0.49249996E+02 -0.57846E+04
 0.49299995E+02 -0.55261E+04
 0.49349998E+02 -0.64727E+04
 0.49399998E+02 -0.63918E+04
 0.49449997E+02 -0.10752E+04
 0.49499996E+02 -0.10614E+04
 0.49549995E+02 -0.47237E+04
 0.49599998E+02 -0.38983E+04
 0.49649998E+02 -0.96107E+04
 0.49699997E+02 -0.20378E+05
 0.49749996E+02 -0.25955E+05
 0.49799995E+02 -0.22968E+05
 0.49849998E+02 -0.16540E+05
 0.49899998E+02 -0.84101E+04
 0.49949997E+02  0.27659E+04
 0.49999996E+02  0.71993E+04
 0.50049995E+02  0.12637E+04
 0.50099998E+02 -0.69258E+04
 0.50149998E+02 -0.95890E+04
 0.50199997E+02 -0.85602E+04
 0.50249996E+02 -0.54700E+04
 0.50299995E+02 -0.33173E+04
 0.50349998E+02 -0.29884E+04
 0.50399998E+02  0.50902E+03
 0.50449997E+02  0.45359E+04
 0.50499996E+02  0.58221E+04
 0.50549995E+02  0.37050E+04
 0.50599998E+02 -0.15218E+04
 0.50649998E+02 -0.59703E+04
 0.50699997E+02 -0.10797E+05
 0.50749996E+02 -0.14176E+05
 0.50799995E+02 -0.10823E+05
 0.50849998E+02 -0.64270E+04
 0.50899998E+02 -0.46979E+04
 0.50949997E+02 -0.24332E+04
 0.50999996E+02  0.23654E+03
 0.51049995E+02  0.34999E+04
 0.51099998E+02  0.52321E+04
 0.51149998E+02  0.28521E+04
 0.51199997E+02  0.44231E+03
 0.51249996E+02 -0.15034E+04
 0.51299995E+02 -0.67692E+04
 0.51349998E+02 -0.99562E+04
 0.51399998E+02 -0.98052E+04
 0.51449997E+02 -0.10332E+05
 0.51499996E+02 -0.96917E+04
 0.51549995E+02 -0.10923E+05
 0.51599998E+02 -0.12782E+05
 0.51649998E+02 -0.88103E+04
 0.51699997E+02 -0.45096E+04
 0.51749996E+02 -0.82435E+04
 0.51799995E+02 -0.16206E+05
 0.51849998E+02 -0.19348E+05
 0.51899998E+02 -0.12532E+05
 0.51949997E+02 -0.51317E+03
 0.51999996E+02  0.53681E+04
 0.52049995E+02  0.42821E+04
 0.52099998E+02  0.18183E+03
 0.52149998E+02 -0.44488E+04
 0.52199997E+02 -0.62994E+04
 0.52249996E+02 -0.54957E+04
 0.52299995E+02 -0.50629E+04
 0.52349998E+02 -0.80152E+04
 0.52399998E+02 -0.12844E+05
 0.52449997E+02 -0.16052E+05
 0.52499996E+02 -0.13433E+05
 0.52549995E+02 -0.88047E+04
 0.52599998E+02 -0.79307E+04
 0.52649998E+02 -0.58213E+04
 0.52699997E+02 -0.29588E+04
 0.52749996E+02 -0.38476E+04
 0.52799995E+02 -0.51537E+04
 0.52849998E+02 -0.30432E+04
 0.52899998E+02 -0.82342E+03
 0.52949997E+02  0.17604E+04
 0.52999996E+02  0.39789E+04
 0.53049995E+02  0.16008E+04
 0.53099998E+02  0.32092E+03
 0.53149998E+02  0.10574E+04
 0.53199997E+02 -0.15337E+04
 0.53249996E+02 -0.72220E+04
 0.53299995E+02 -0.12882E+05
 0.53349998E+02 -0.14532E+05
 0.53399998E+02 -0.10399E+05
 0.53449997E+02 -0.68393E+04
 0.53499996E+02 -0.64305E+04
 0.53549995E+02 -0.53939E+04
 0.53599998E+02 -0.46545E+04
 0.53649998E+02 -0.68945E+04
 0.53699997E+02 -0.89224E+04
 0.53749996E+02 -0.72050E+04
 0.53799995E+02 -0.57691E+04
 0.53849998E+02 -0.51092E+04
 0.53899998E+02 -0.62619E+04
 0.53949997E+02 -0.11180E+05
 0.53999996E+02 -0.14582E+05
 0.54049995E+02 -0.10287E+05
 0.54099998E+02 -0.23101E+04
 0.54149998E+02  0.51322E+03
 0.54199997E+02 -0.21383E+04
 0.54249996E+02 -0.50698E+04
 0.54299995E+02 -0.73519E+04
 0.54349998E+02 -0.90417E+04
 0.54399998E+02 -0.65801E+04
 0.54449997E+02 -0.48138E+04
 0.54499996E+02 -0.59608E+04
 0.54549995E+02 -0.65370E+04
 0.54599998E+02 -0.37571E+04
 0.54649998E+02 -0.15110E+03
 0.54699997E+02 -0.62752E+03
 0.54749996E+02 -0.38810E+04
 0.54799995E+02 -0.63206E+04
 0.54849998E+02 -0.51273E+04
 0.54899998E+02 -0.31615E+04
 0.54949997E+02 -0.39193E+04
 0.54999996E+02 -0.72245E+04
 0.55049995E+02 -0.10782E+05
 0.55099998E+02 -0.12323E+05
 0.55149998E+02 -0.94087E+04
 0.55199997E+02 -0.69823E+04
 0.55249996E+02 -0.69310E+04
 0.55299995E+02 -0.52127E+04
 0.55349998E+02 -0.19209E+04
 0.55399998E+02 -0.23113E+03
 0.55449997E+02 -0.11318E+04
 0.55499996E+02 -0.54537E+03
 0.55549995E+02  0.22468E+04
 0.55599998E+02  0.66071E+04
 0.55649998E+02  0.87733E+04
 0.55699997E+02  0.29604E+04
 0.55749996E+02 -0.83628E+04
 0.55799995E+02 -0.16694E+05
 0.55849995E+02 -0.18890E+05
 0.55899998E+02 -0.15891E+05
 0.55949997E+02 -0.10555E+05
 0.55999996E+02 -0.69247E+04
 0.56049995E+02 -0.49781E+04
 0.56099995E+02 -0.29779E+04
 0.56149998E+02 -0.90277E+03
 0.56199997E+02 -0.55388E+03
 0.56249996E+02 -0.10368E+04
 0.56299995E+02 -0.25714E+04
 0.56349995E+02 -0.57228E+04
 0.56399998E+02 -0.81345E+04
 0.56449997E+02 -0.87293E+04
 0.56499996E+02 -0.99607E+04
 0.56549995E+02 -0.10692E+05
 0.56599995E+02 -0.84328E+04
 0.56649998E+02 -0.85863E+04
 0.56699997E+02 -0.12567E+05
 0.56749996E+02 -0.15767E+05
 0.56799995E+02 -0.17511E+05
 0.56849995E+02 -0.16249E+05
 0.56899998E+02 -0.11862E+05
 0.56949997E+02 -0.96245E+04
 0.56999996E+02 -0.82690E+04
 0.57049995E+02 -0.52916E+04
 0.57099995E+02 -0.16848E+04
 0.57149998E+02  0.19842E+04
 0.57199997E+02  0.31929E+04
 0.57249996E+02  0.24013E+04
 0.57299995E+02  0.21651E+04
 0.57349995E+02  0.40620E+04
 0.57399998E+02  0.67275E+04
 0.57449997E+02  0.63309E+04
 0.57499996E+02  0.33940E+04
 0.57549995E+02  0.17269E+04
 0.57599995E+02 -0.40436E+03
 0.57649998E+02 -0.64699E+04
 0.57699997E+02 -0.12332E+05
 0.57749996E+02 -0.16111E+05
 0.57799995E+02 -0.19509E+05
 0.57849995E+02 -0.20438E+05
 0.57899998E+02 -0.16497E+05
 0.57949997E+02 -0.89532E+04
 0.57999996E+02 -0.22861E+04
 0.58049995E+02  0.42459E+02
 0.58099995E+02 -0.11907E+03
 0.58149998E+02 -0.32530E+04
 0.58199997E+02 -0.86834E+04
 0.58249996E+02 -0.11100E+05
 0.58299995E+02 -0.11014E+05
 0.58349995E+02 -0.95886E+04
 0.58399998E+02 -0.67707E+04
 0.58449997E+02 -0.34676E+04
 0.58499996E+02 -0.13742E+04
 0.58549995E+02 -0.12293E+04
 0.58599995E+02 -0.23710E+04
 0.58649998E+02 -0.46445E+04
 0.58699997E+02 -0.62623E+04
 0.58749996E+02 -0.47096E+04
 0.58799995E+02 -0.23574E+04
 0.58849995E+02 -0.13881E+04
 0.58899998E+02 -0.12890E+04
 0.58949997E+02 -0.11033E+04
 0.58999996E+02 -0.10109E+04
 0.59049995E+02 -0.42029E+04
 0.59099995E+02 -0.82134E+04
 0.59149998E+02 -0.77783E+04
 0.59199997E+02 -0.57413E+04
 0.59249996E+02 -0.60373E+04
 0.59299995E+02 -0.62604E+04
 0.59349995E+02 -0.46764E+04
 0.59399998E+02 -0.26190E+04
 0.59449997E+02 -0.21270E+04
 0.59499996E+02 -0.31842E+04
 0.59549995E+02 -0.65239E+04
 0.59599995E+02 -0.10609E+05
 0.59649998E+02 -0.12845E+05
 0.59699997E+02 -0.13615E+05
 0.59749996E+02 -0.12860E+05
 0.59799995E+02 -0.11247E+05
 0.59849995E+02 -0.10335E+05
 0.59899998E+02 -0.10493E+05
 0.59949997E+02 -0.87599E+04
 0.59999996E+02 -0.54735E+04
 0.60049995E+02 -0.45055E+04
 0.60099995E+02 -0.59439E+04
 0.60149998E+02 -0.79024E+04
 0.60199997E+02 -0.93402E+04
 0.60249996E+02 -0.84501E+04
 0.60299995E+02 -0.60832E+04
 0.60349995E+02 -0.24356E+04
 0.60399998E+02  0.20298E+04
 0.60449997E+02  0.57378E+04
 0.60499996E+02  0.77769E+04
 0.60549995E+02  0.63810E+04
 0.60599995E+02  0.31466E+04
 0.60649998E+02 -0.77858E+02
 0.60699997E+02 -0.31951E+04
 0.60749996E+02 -0.70468E+04
 0.60799995E+02 -0.10994E+05
 0.60849995E+02 -0.14194E+05
 0.60899998E+02 -0.14542E+05
 0.60949997E+02 -0.13130E+05
 0.60999996E+02 -0.13614E+05
 0.61049995E+02 -0.13996E+05
 0.61099995E+02 -0.12863E+05
 0.61149998E+02 -0.10289E+05
 0.61199997E+02 -0.64882E+04
 0.61249996E+02 -0.15992E+04
 0.61299995E+02  0.19437E+04
 0.61349995E+02  0.31794E+04
 0.61399998E+02  0.32005E+04
 0.61449997E+02  0.13954E+04
 0.61499996E+02 -0.19696E+04
 0.61549995E+02 -0.51075E+04
 0.61599995E+02 -0.62155E+04
 0.61649998E+02 -0.60311E+04
 0.61699997E+02 -0.60361E+04
 0.61749996E+02 -0.61602E+04
 0.61799995E+02 -0.52859E+04
 0.61849995E+02 -0.37551E+04
 0.61899998E+02 -0.91139E+03
 0.61949997E+02  0.23419E+04
 0.61999996E+02  0.21205E+04
 0.62049995E+02 -0.59058E+03
 0.62099998E+02 -0.20401E+04
 0.62149994E+02 -0.36858E+04
 0.62199997E+02 -0.61729E+04
 0.62249992E+02 -0.76479E+04
 0.62299995E+02 -0.80817E+04
 0.62349998E+02 -0.83524E+04
 0.62399994E+02 -0.93992E+04
 0.62449997E+02 -0.10462E+05
 0.62499992E+02 -0.10846E+05
 0.62549995E+02 -0.10276E+05
 0.62599998E+02 -0.85590E+04
 0.62649994E+02 -0.67776E+04
 0.62699997E+02 -0.55755E+04
 0.62749992E+02 -0.65229E+04
 0.62799995E+02 -0.99346E+04
 0.62849998E+02 -0.12173E+05
 0.62899994E+02 -0.13134E+05
 0.62949997E+02 -0.14087E+05
 0.62999992E+02 -0.12363E+05
 0.63049995E+02 -0.91880E+04
 0.63099998E+02 -0.82094E+04
 0.63149994E+02 -0.68046E+04
 0.63199997E+02 -0.44412E+04
 0.63249992E+02 -0.35615E+04
 0.63299995E+02 -0.26260E+04
 0.63349998E+02 -0.14740E+04
 0.63399994E+02 -0.14461E+04
 0.63449997E+02 -0.20090E+04
 0.63499992E+02 -0.37668E+04
 0.63549995E+02 -0.63019E+04
 0.63599998E+02 -0.65475E+04
 0.63649994E+02 -0.44851E+04
 0.63699997E+02 -0.24472E+04
 0.63749992E+02 -0.44753E+03
 0.63799995E+02  0.68568E+03
 0.63849998E+02 -0.36045E+03
 0.63899994E+02 -0.20103E+04
 0.63949997E+02 -0.19854E+04
 0.63999992E+02 -0.19046E+04
 0.64049995E+02 -0.54538E+04
 0.64099998E+02 -0.93582E+04
 0.64149994E+02 -0.99187E+04
 0.64199997E+02 -0.10154E+05
 0.64249992E+02 -0.10604E+05
 0.64299995E+02 -0.86390E+04
 0.64349998E+02 -0.56666E+04
 0.64399994E+02 -0.32923E+04
 0.64449997E+02 -0.23159E+04
 0.64499992E+02 -0.26153E+04
 0.64549995E+02 -0.27383E+04
 0.64599998E+02 -0.18996E+04
 0.64649994E+02 -0.47430E+03
 0.64699997E+02 -0.33305E+03
 0.64749992E+02 -0.18894E+04
 0.64799995E+02 -0.55082E+04
 0.64849998E+02 -0.10806E+05
 0.64899994E+02 -0.15111E+05
 0.64949997E+02 -0.16818E+05
 0.64999992E+02 -0.15861E+05
 0.65049995E+02 -0.12764E+05
 0.65099998E+02 -0.87170E+04
 0.65149994E+02 -0.45669E+04
 0.65199997E+02 -0.48491E+03
 0.65249992E+02  0.18301E+04
 0.65299995E+02  0.89886E+03
 0.65349998E+02 -0.18166E+04
 0.65399994E+02 -0.42961E+04
 0.65449997E+02 -0.55348E+04
 0.65499992E+02 -0.60586E+04
 0.65549995E+02 -0.54258E+04
 0.65599998E+02 -0.36336E+04
 0.65649994E+02 -0.32029E+04
 0.65699997E+02 -0.40312E+04
 0.65749992E+02 -0.43294E+04
 0.65799995E+02 -0.42785E+04
 0.65849998E+02 -0.39715E+04
 0.65899994E+02 -0.42075E+04
 0.65949997E+02 -0.52370E+04
 0.65999992E+02 -0.60421E+04
 0.66049995E+02 -0.69623E+04
 0.66099998E+02 -0.84961E+04
 0.66149994E+02 -0.10746E+05
 0.66199997E+02 -0.12884E+05
 0.66249992E+02 -0.14397E+05
 0.66299995E+02 -0.14667E+05
 0.66349998E+02 -0.13017E+05
 0.66399994E+02 -0.10926E+05
 0.66449997E+02 -0.85389E+04
 0.66499992E+02 -0.54189E+04
 0.66549995E+02 -0.31649E+04
 0.66599998E+02 -0.22482E+04
 0.66649994E+02 -0.25046E+04
 0.66699997E+02 -0.20588E+04
 0.66749992E+02  0.91736E+03
 0.66799995E+02  0.37581E+04
 0.66849998E+02  0.50380E+04
 0.66899994E+02  0.46907E+04
 0.66949997E+02  0.31331E+04
 0.66999992E+02  0.14297E+04
 0.67049995E+02 -0.18128E+04
 0.67099998E+02 -0.64527E+04
 0.67149994E+02 -0.10526E+05
 0.67199997E+02 -0.13354E+05
 0.67249992E+02 -0.13931E+05
 0.67299995E+02 -0.12149E+05
 0.67349998E+02 -0.10529E+05
 0.67399994E+02 -0.87769E+04
 0.67449997E+02 -0.65227E+04
 0.67499992E+02 -0.64290E+04
 0.67549995E+02 -0.67923E+04
 0.67599998E+02 -0.53926E+04
 0.67649994E+02 -0.37695E+04
 0.67699997E+02 -0.17137E+04
 0.67749992E+02  0.27545E+03
 0.67799995E+02  0.45113E+03
 0.67849998E+02 -0.50521E+03
 0.67899994E+02 -0.20055E+04
 0.67949997E+02 -0.47935E+04
 0.67999992E+02 -0.71657E+04
 0.68049995E+02 -0.77092E+04
 0.68099998E+02 -0.78631E+04
 0.68149994E+02 -0.87242E+04
 0.68199997E+02 -0.10518E+05
 0.68249992E+02 -0.11120E+05
 0.68299995E+02 -0.10463E+05
 0.68349998E+02 -0.10208E+05
 0.68399994E+02 -0.94841E+04
 0.68449997E+02 -0.73608E+04
 0.68499992E+02 -0.59391E+04
 0.68549995E+02 -0.54324E+04
 0.68599998E+02 -0.41481E+04
 0.68649994E+02 -0.24781E+04
 0.68699997E+02 -0.83729E+03
 0.68749992E+02 -0.17756E+04
 0.68799995E+02 -0.51629E+04
 0.68849998E+02 -0.71097E+04
 0.68899994E+02 -0.69770E+04
 0.68949997E+02 -0.62712E+04
 0.68999992E+02 -0.49359E+04
 0.69049995E+02 -0.36083E+04
 0.69099998E+02 -0.35107E+04
 0.69149994E+02 -0.44378E+04
 0.69199997E+02 -0.59716E+04
 0.69249992E+02 -0.74052E+04
 0.69299995E+02 -0.74386E+04
 0.69349998E+02 -0.69210E+04
 0.69399994E+02 -0.67722E+04
 0.69449997E+02 -0.56616E+04
 0.69499992E+02 -0.34714E+04
 0.69549995E+02 -0.16740E+04
 0.69599998E+02 -0.15081E+04
 0.69649994E+02 -0.25685E+04
 0.69699997E+02 -0.35006E+04
 0.69749992E+02 -0.39108E+04
 0.69799995E+02 -0.51363E+04
 0.69849998E+02 -0.70463E+04
 0.69899994E+02 -0.89495E+04
 0.69949997E+02 -0.10732E+05
 0.69999992E+02 -0.11118E+05
 0.70049995E+02 -0.10368E+05
 0.70099998E+02 -0.98838E+04
 0.70149994E+02 -0.87747E+04
 0.70199997E+02 -0.62398E+04
 0.70249992E+02 -0.45404E+04
 0.70299995E+02 -0.43278E+04
 0.70349998E+02 -0.41645E+04
 0.70399994E+02 -0.33397E+04
 0.70449997E+02 -0.18318E+04
 0.70499992E+02 -0.80748E+03
 0.70549995E+02 -0.10437E+04
 0.70599998E+02 -0.18702E+04
 0.70649994E+02 -0.32147E+04
 0.70699997E+02 -0.56492E+04
 0.70749992E+02 -0.79934E+04
 0.70799995E+02 -0.90362E+04
 0.70849998E+02 -0.97438E+04
 0.70899994E+02 -0.10487E+05
 0.70949997E+02 -0.98556E+04
 0.70999992E+02 -0.81468E+04
 0.71049995E+02 -0.68119E+04
 0.71099998E+02 -0.61835E+04
 0.71149994E+02 -0.62811E+04
 0.71199997E+02 -0.62252E+04
 0.71249992E+02 -0.56020E+04
 0.71299995E+02 -0.53977E+04
 0.71349998E+02 -0.52313E+04
 0.71399994E+02 -0.44940E+04
 0.71449997E+02 -0.36943E+04
 0.71499992E+02 -0.32201E+04
 0.71549995E+02 -0.33837E+04
 0.71599998E+02 -0.41083E+04
 0.71649994E+02 -0.48935E+04
 0.71699997E+02 -0.49313E+04
 0.71749992E+02 -0.45728E+04
 0.71799995E+02 -0.45485E+04
 0.71849998E+02 -0.47019E+04
 0.71899994E+02 -0.46259E+04
 0.71949997E+02 -0.43348E+04
 0.71999992E+02 -0.42934E+04
 0.72049995E+02 -0.49590E+04
 0.72099998E+02 -0.65695E+04
 0.72149994E+02 -0.76035E+04
 0.72199997E+02 -0.64932E+04
 0.72249992E+02 -0.48058E+04
 0.72299995E+02 -0.36860E+04
 0.72349998E+02 -0.24439E+04
 0.72399994E+02 -0.15521E+04
 0.72449997E+02 -0.12342E+04
 0.72499992E+02 -0.14862E+04
 0.72549995E+02 -0.25288E+04
 0.72599998E+02 -0.37833E+04
 0.72649994E+02 -0.49727E+04
 0.72699997E+02 -0.66769E+04
 0.72749992E+02 -0.82993E+04
 0.72799995E+02 -0.91323E+04
 0.72849998E+02 -0.94820E+04
 0.72899994E+02 -0.99552E+04
 0.72949997E+02 -0.10448E+05
 0.72999992E+02 -0.10034E+05
 0.73049995E+02 -0.93544E+04
 0.73099998E+02 -0.89232E+04
 0.73149994E+02 -0.81054E+04
 0.73199997E+02 -0.69581E+04
 0.73249992E+02 -0.60310E+04
 0.73299995E+02 -0.52665E+04
 0.73349998E+02 -0.46883E+04
 0.73399994E+02 -0.38498E+04
 0.73449997E+02 -0.33423E+04
 0.73499992E+02 -0.34223E+04
 0.73549995E+02 -0.32430E+04
 0.73599998E+02 -0.31764E+04
 0.73649994E+02 -0.33262E+04
 0.73699997E+02 -0.36674E+04
 0.73749992E+02 -0.44853E+04
 0.73799995E+02 -0.59196E+04
 0.73849998E+02 -0.69697E+04
 0.73899994E+02 -0.68613E+04
 0.73949997E+02 -0.59140E+04
 0.73999992E+02 -0.51302E+04
 0.74049995E+02 -0.44093E+04
 0.74099998E+02 -0.34947E+04
 0.74149994E+02 -0.32818E+04
 0.74199997E+02 -0.39798E+04
 0.74249992E+02 -0.50215E+04
 0.74299995E+02 -0.58108E+04
 0.74349998E+02 -0.70461E+04
 0.74399994E+02 -0.87722E+04
 0.74449997E+02 -0.90448E+04
 0.74499992E+02 -0.68869E+04
 0.74549995E+02 -0.35082E+04
 0.74599998E+02 -0.53377E+03
 0.74649994E+02  0.62418E+03
 0.74699997E+02 -0.34627E+03
 0.74749992E+02 -0.30523E+04
 0.74799995E+02 -0.71127E+04
 0.74849998E+02 -0.10823E+05
 0.74899994E+02 -0.13237E+05
 0.74949997E+02 -0.14482E+05
 0.74999992E+02 -0.14337E+05
 0.75049995E+02 -0.12615E+05
 0.75099998E+02 -0.94941E+04
 0.75149994E+02 -0.65703E+04
 0.75199997E+02 -0.50613E+04
 0.75249992E+02 -0.41517E+04
 0.75299995E+02 -0.40009E+04
 0.75349998E+02 -0.45612E+04
 0.75399994E+02 -0.46439E+04
 0.75449997E+02 -0.42881E+04
 0.75499992E+02 -0.42561E+04
 0.75549995E+02 -0.47754E+04
 0.75599998E+02 -0.50081E+04
 0.75649994E+02 -0.51804E+04
 0.75699997E+02 -0.53988E+04
 0.75749992E+02 -0.49633E+04
 0.75799995E+02 -0.48515E+04
 0.75849998E+02 -0.54372E+04
 0.75899994E+02 -0.59790E+04
 0.75949997E+02 -0.64335E+04
 0.75999992E+02 -0.64777E+04
 0.76049995E+02 -0.59653E+04
 0.76099998E+02 -0.55731E+04
 0.76149994E+02 -0.51028E+04
 0.76199997E+02 -0.40233E+04
 0.76249992E+02 -0.30005E+04
 0.76299995E+02 -0.22629E+04
 0.76349998E+02 -0.13325E+04
 0.76399994E+02 -0.61029E+03
 0.76449997E+02 -0.78944E+03
 0.76499992E+02 -0.21123E+04
 0.76549995E+02 -0.42449E+04
 0.76599998E+02 -0.57971E+04
 0.76649994E+02 -0.63296E+04
 0.76699997E+02 -0.65546E+04
 0.76749992E+02 -0.68011E+04
 0.76799995E+02 -0.70900E+04
 0.76849998E+02 -0.73409E+04
 0.76899994E+02 -0.69952E+04
 0.76949997E+02 -0.56939E+04
 0.76999992E+02 -0.49257E+04
 0.77049995E+02 -0.48488E+04
 0.77099998E+02 -0.43413E+04
 0.77149994E+02 -0.38031E+04
 0.77199997E+02 -0.40702E+04
 0.77249992E+02 -0.46509E+04
 0.77299995E+02 -0.54819E+04
 0.77349998E+02 -0.67268E+04
 0.77399994E+02 -0.77122E+04
 0.77449997E+02 -0.79053E+04
 0.77499992E+02 -0.69308E+04
 0.77549995E+02 -0.56599E+04
 0.77599998E+02 -0.46994E+04
 0.77649994E+02 -0.41370E+04
 0.77699997E+02 -0.45546E+04
 0.77749992E+02 -0.60999E+04
 0.77799995E+02 -0.78478E+04
 0.77849998E+02 -0.89042E+04
 0.77899994E+02 -0.90301E+04
 0.77949997E+02 -0.85418E+04
 0.77999992E+02 -0.77206E+04
 0.78049995E+02 -0.70813E+04
 0.78099998E+02 -0.67563E+04
 0.78149994E+02 -0.61908E+04
 0.78199997E+02 -0.53845E+04
 0.78249992E+02 -0.45623E+04
 0.78299995E+02 -0.41838E+04
 0.78349998E+02 -0.43541E+04
 0.78399994E+02 -0.42301E+04
 0.78449997E+02 -0.36955E+04
 0.78499992E+02 -0.38581E+04
 0.78549995E+02 -0.42027E+04
 0.78599998E+02 -0.36606E+04
 0.78649994E+02 -0.31819E+04
 0.78699997E+02 -0.35195E+04
 0.78749992E+02 -0.44091E+04
 0.78799995E+02 -0.56312E+04
 0.78849998E+02 -0.68575E+04
 0.78899994E+02 -0.80177E+04
 0.78949997E+02 -0.91157E+04
 0.78999992E+02 -0.98791E+04
 0.79049995E+02 -0.94927E+04
 0.79099998E+02 -0.81736E+04
 0.79149994E+02 -0.73227E+04
 0.79199997E+02 -0.67089E+04
 0.79249992E+02 -0.56396E+04
 0.79299995E+02 -0.45719E+04
 0.79349998E+02 -0.35818E+04
 0.79399994E+02 -0.26975E+04
 0.79449997E+02 -0.22856E+04
 0.79499992E+02 -0.24193E+04
 0.79549995E+02 -0.26824E+04
 0.79599998E+02 -0.29107E+04
 0.79649994E+02 -0.35121E+04
 0.79699997E+02 -0.46349E+04
 0.79749992E+02 -0.64826E+04
 0.79799995E+02 -0.83709E+04
 0.79849998E+02 -0.91559E+04
 0.79899994E+02 -0.87814E+04
 0.79949997E+02 -0.78124E+04
 0.79999992E+02 -0.66259E+04
 0.80049995E+02 -0.55685E+04
 0.80099998E+02 -0.48782E+04
 0.80149994E+02 -0.41967E+04
 0.80199997E+02 -0.35138E+04
 0.80249992E+02 -0.32016E+04
 0.80299995E+02 -0.35802E+04
 0.80349998E+02 -0.47949E+04
 0.80399994E+02 -0.59099E+04
 0.80449997E+02 -0.63446E+04
 0.80499992E+02 -0.61733E+04
 0.80549995E+02 -0.58780E+04
 0.80599998E+02 -0.64631E+04
 0.80649994E+02 -0.74492E+04
 0.80699997E+02 -0.76829E+04
 0.80749992E+02 -0.74260E+04
 0.80799995E+02 -0.72058E+04
 0.80849998E+02 -0.71560E+04
 0.80899994E+02 -0.72608E+04
 0.80949997E+02 -0.70715E+04
 0.80999992E+02 -0.64475E+04
 0.81049995E+02 -0.61036E+04
 0.81099998E+02 -0.60447E+04
 0.81149994E+02 -0.55778E+04
 0.81199997E+02 -0.48908E+04
 0.81249992E+02 -0.46115E+04
 0.81299995E+02 -0.49985E+04
 0.81349998E+02 -0.51251E+04
 0.81399994E+02 -0.46863E+04
 0.81449997E+02 -0.43388E+04
 0.81499992E+02 -0.42779E+04
 0.81549995E+02 -0.42624E+04
 0.81599998E+02 -0.44904E+04
 0.81649994E+02 -0.48711E+04
 0.81699997E+02 -0.49430E+04
 0.81749992E+02 -0.47933E+04
 0.81799995E+02 -0.43924E+04
 0.81849998E+02 -0.43006E+04
 0.81899994E+02 -0.50262E+04
 0.81949997E+02 -0.61631E+04
 0.81999992E+02 -0.68119E+04
 0.82049995E+02 -0.65600E+04
 0.82099998E+02 -0.59622E+04
 0.82149994E+02 -0.58106E+04
 0.82199997E+02 -0.57504E+04
 0.82249992E+02 -0.50854E+04
 0.82299995E+02 -0.43206E+04
 0.82349998E+02 -0.37294E+04
 0.82399994E+02 -0.38106E+04
 0.82449997E+02 -0.46534E+04
 0.82499992E+02 -0.49886E+04
 0.82549995E+02 -0.48071E+04
 0.82599998E+02 -0.50146E+04
 0.82649994E+02 -0.52665E+04
 0.82699997E+02 -0.54270E+04
 0.82749992E+02 -0.58762E+04
 0.82799995E+02 -0.65334E+04
 0.82849998E+02 -0.76164E+04
 0.82899994E+02 -0.87137E+04
 0.82949997E+02 -0.90890E+04
 0.82999992E+02 -0.86796E+04
 0.83049995E+02 -0.78017E+04
 0.83099998E+02 -0.68748E+04
 0.83149994E+02 -0.57161E+04
 0.83199997E+02 -0.47749E+04
 0.83249992E+02 -0.45471E+04
 0.83299995E+02 -0.41895E+04
 0.83349998E+02 -0.36637E+04
 0.83399994E+02 -0.33706E+04
 0.83449997E+02 -0.34349E+04
 0.83499992E+02 -0.38276E+04
 0.83549995E+02 -0.39253E+04
 0.83599998E+02 -0.41795E+04
 0.83649994E+02 -0.56300E+04
 0.83699997E+02 -0.73736E+04
 0.83749992E+02 -0.84662E+04
 0.83799995E+02 -0.91268E+04
 0.83849998E+02 -0.93243E+04
 0.83899994E+02 -0.84526E+04
 0.83949997E+02 -0.67222E+04
 0.83999992E+02 -0.49043E+04
 0.84049995E+02 -0.31236E+04
 0.84099998E+02 -0.21064E+04
 0.84149994E+02 -0.18622E+04
 0.84199997E+02 -0.22305E+04
 0.84249992E+02 -0.32688E+04
 0.84299995E+02 -0.40805E+04
 0.84349998E+02 -0.44742E+04
 0.84399994E+02 -0.49267E+04
 0.84449997E+02 -0.56371E+04
 0.84499992E+02 -0.66233E+04
 0.84549995E+02 -0.73501E+04
 0.84599998E+02 -0.73843E+04
 0.84649994E+02 -0.72386E+04
 0.84699997E+02 -0.73969E+04
 0.84749992E+02 -0.79118E+04
 0.84799995E+02 -0.84586E+04
 0.84849998E+02 -0.86028E+04
 0.84899994E+02 -0.85342E+04
 0.84949997E+02 -0.83760E+04
 0.84999992E+02 -0.76349E+04
 0.85049995E+02 -0.62371E+04
 0.85099998E+02 -0.51225E+04
 0.85149994E+02 -0.44493E+04
 0.85199997E+02 -0.38341E+04
 0.85249992E+02 -0.36311E+04
 0.85299995E+02 -0.41677E+04
 0.85349998E+02 -0.51633E+04
 0.85399994E+02 -0.58155E+04
 0.85449997E+02 -0.56286E+04
 0.85499992E+02 -0.47566E+04
 0.85549995E+02 -0.37244E+04
 0.85599998E+02 -0.31092E+04
 0.85649994E+02 -0.30986E+04
 0.85699997E+02 -0.35982E+04
 0.85749992E+02 -0.44505E+04
 0.85799995E+02 -0.54780E+04
 0.85849998E+02 -0.64659E+04
 0.85899994E+02 -0.69605E+04
 0.85949997E+02 -0.71558E+04
 0.85999992E+02 -0.73538E+04
 0.86049995E+02 -0.73344E+04
 0.86099998E+02 -0.70581E+04
 0.86149994E+02 -0.62071E+04
 0.86199997E+02 -0.49326E+04
 0.86249992E+02 -0.43890E+04
 0.86299995E+02 -0.49516E+04
 0.86349998E+02 -0.59393E+04
 0.86399994E+02 -0.66122E+04
 0.86449997E+02 -0.66946E+04
 0.86499992E+02 -0.70825E+04
 0.86549995E+02 -0.77707E+04
 0.86599998E+02 -0.75814E+04
 0.86649994E+02 -0.67040E+04
 0.86699997E+02 -0.58037E+04
 0.86749992E+02 -0.53638E+04
 0.86799995E+02 -0.54333E+04
 0.86849998E+02 -0.54120E+04
 0.86899994E+02 -0.49622E+04
 0.86949997E+02 -0.40169E+04
 0.86999992E+02 -0.27213E+04
 0.87049995E+02 -0.16427E+04
 0.87099998E+02 -0.11614E+04
 0.87149994E+02 -0.11503E+04
 0.87199997E+02 -0.13546E+04
 0.87249992E+02 -0.18437E+04
 0.87299995E+02 -0.25838E+04
 0.87349998E+02 -0.34974E+04
 0.87399994E+02 -0.47303E+04
 0.87449997E+02 -0.61023E+04
 0.87499992E+02 -0.74885E+04
 0.87549995E+02 -0.85741E+04
 0.87599991E+02 -0.87375E+04
 0.87649994E+02 -0.76962E+04
 0.87699997E+02 -0.62067E+04
 0.87749992E+02 -0.53143E+04
 0.87799995E+02 -0.51648E+04
 0.87849991E+02 -0.53961E+04
 0.87899994E+02 -0.58584E+04
 0.87949997E+02 -0.66104E+04
 0.87999992E+02 -0.72334E+04
 0.88049995E+02 -0.77658E+04
 0.88099991E+02 -0.84882E+04
 0.88149994E+02 -0.88907E+04
 0.88199997E+02 -0.84842E+04
 0.88249992E+02 -0.74653E+04
 0.88299995E+02 -0.64633E+04
 0.88349991E+02 -0.58064E+04
 0.88399994E+02 -0.56049E+04
 0.88449997E+02 -0.55419E+04
 0.88499992E+02 -0.48969E+04
 0.88549995E+02 -0.40603E+04
 0.88599991E+02 -0.37933E+04
 0.88649994E+02 -0.41726E+04
 0.88699997E+02 -0.50424E+04
 0.88749992E+02 -0.58930E+04
 0.88799995E+02 -0.65472E+04
 0.88849991E+02 -0.69207E+04
 0.88899994E+02 -0.68383E+04
 0.88949997E+02 -0.64924E+04
 0.88999992E+02 -0.61060E+04
 0.89049995E+02 -0.54996E+04
 0.89099991E+02 -0.47960E+04
 0.89149994E+02 -0.44799E+04
 0.89199997E+02 -0.44237E+04
 0.89249992E+02 -0.45217E+04
 0.89299995E+02 -0.45213E+04
 0.89349991E+02 -0.40273E+04
 0.89399994E+02 -0.33421E+04
 0.89449997E+02 -0.32217E+04
 0.89499992E+02 -0.38122E+04
 0.89549995E+02 -0.45433E+04
 0.89599991E+02 -0.51788E+04
 0.89649994E+02 -0.59435E+04
 0.89699997E+02 -0.69713E+04
 0.89749992E+02 -0.79639E+04
 0.89799995E+02 -0.84966E+04
 0.89849991E+02 -0.84687E+04
 0.89899994E+02 -0.82173E+04
 0.89949997E+02 -0.80632E+04
 0.89999992E+02 -0.77109E+04
 0.90049995E+02 -0.70231E+04
 0.90099991E+02 -0.63590E+04
 0.90149994E+02 -0.57811E+04
 0.90199997E+02 -0.51829E+04
 0.90249992E+02 -0.44348E+04
 0.90299995E+02 -0.32473E+04
 0.90349991E+02 -0.19301E+04
 0.90399994E+02 -0.12969E+04
 0.90449997E+02 -0.16201E+04
 0.90499992E+02 -0.27451E+04
 0.90549995E+02 -0.43136E+04
 0.90599991E+02 -0.58128E+04
 0.90649994E+02 -0.69210E+04
 0.90699997E+02 -0.73458E+04
 0.90749992E+02 -0.71709E+04
 0.90799995E+02 -0.68772E+04
 0.90849991E+02 -0.63732E+04
 0.90899994E+02 -0.60108E+04
 0.90949997E+02 -0.61639E+04
 0.90999992E+02 -0.62371E+04
 0.91049995E+02 -0.59515E+04
 0.91099991E+02 -0.56825E+04
 0.91149994E+02 -0.55386E+04
 0.91199997E+02 -0.54556E+04
 0.91249992E+02 -0.55411E+04
 0.91299995E+02 -0.55531E+04
 0.91349991E+02 -0.54409E+04
 0.91399994E+02 -0.54820E+04
 0.91449997E+02 -0.60564E+04
 0.91499992E+02 -0.70022E+04
 0.91549995E+02 -0.74767E+04
 0.91599991E+02 -0.74049E+04
 0.91649994E+02 -0.72223E+04
 0.91699997E+02 -0.66613E+04
 0.91749992E+02 -0.56853E+04
 0.91799995E+02 -0.47713E+04
 0.91849991E+02 -0.41751E+04
 0.91899994E+02 -0.40063E+04
 0.91949997E+02 -0.40898E+04
 0.91999992E+02 -0.41205E+04
 0.92049995E+02 -0.41330E+04
 0.92099991E+02 -0.40830E+04
 0.92149994E+02 -0.38744E+04
 0.92199997E+02 -0.39163E+04
 0.92249992E+02 -0.44385E+04
 0.92299995E+02 -0.51560E+04
 0.92349991E+02 -0.57524E+04
 0.92399994E+02 -0.63038E+04
 0.92449997E+02 -0.69022E+04
 0.92499992E+02 -0.71498E+04
 0.92549995E+02 -0.70929E+04
 0.92599991E+02 -0.70974E+04
 0.92649994E+02 -0.71979E+04
 0.92699997E+02 -0.73929E+04
 0.92749992E+02 -0.73939E+04
 0.92799995E+02 -0.70121E+04
 0.92849991E+02 -0.60939E+04
 0.92899994E+02 -0.46197E+04
 0.92949997E+02 -0.34675E+04
 0.92999992E+02 -0.31806E+04
 0.93049995E+02 -0.35451E+04
 0.93099991E+02 -0.43736E+04
 0.93149994E+02 -0.53932E+04
 0.93199997E+02 -0.63650E+04
 0.93249992E+02 -0.71651E+04
 0.93299995E+02 -0.77619E+04
 0.93349991E+02 -0.81723E+04
 0.93399994E+02 -0.85306E+04
 0.93449997E+02 -0.85909E+04
 0.93499992E+02 -0.79295E+04
 0.93549995E+02 -0.68513E+04
 0.93599991E+02 -0.58058E+04
 0.93649994E+02 -0.51632E+04
 0.93699997E+02 -0.47232E+04
 0.93749992E+02 -0.40867E+04
 0.93799995E+02 -0.36363E+04
 0.93849991E+02 -0.37596E+04
 0.93899994E+02 -0.41856E+04
 0.93949997E+02 -0.45134E+04
 0.93999992E+02 -0.45916E+04
 0.94049995E+02 -0.43013E+04
 0.94099991E+02 -0.37655E+04
 0.94149994E+02 -0.34721E+04
 0.94199997E+02 -0.37315E+04
 0.94249992E+02 -0.43816E+04
 0.94299995E+02 -0.51171E+04
 0.94349991E+02 -0.56868E+04
 0.94399994E+02 -0.61040E+04
 0.94449997E+02 -0.62502E+04
 0.94499992E+02 -0.59611E+04
 0.94549995E+02 -0.54652E+04
 0.94599991E+02 -0.51193E+04
 0.94649994E+02 -0.51658E+04
 0.94699997E+02 -0.54739E+04
 0.94749992E+02 -0.59106E+04
 0.94799995E+02 -0.63486E+04
 0.94849991E+02 -0.66764E+04
 0.94899994E+02 -0.68041E+04
 0.94949997E+02 -0.67761E+04
 0.94999992E+02 -0.66422E+04
 0.95049995E+02 -0.61955E+04
 0.95099991E+02 -0.53882E+04
 0.95149994E+02 -0.46248E+04
 0.95199997E+02 -0.43494E+04
 0.95249992E+02 -0.44740E+04
 0.95299995E+02 -0.47870E+04
 0.95349991E+02 -0.51345E+04
 0.95399994E+02 -0.55227E+04
 0.95449997E+02 -0.58897E+04
 0.95499992E+02 -0.58990E+04
 0.95549995E+02 -0.55068E+04
 0.95599991E+02 -0.52379E+04
 0.95649994E+02 -0.53499E+04
 0.95699997E+02 -0.54160E+04
 0.95749992E+02 -0.52207E+04
 0.95799995E+02 -0.48398E+04
 0.95849991E+02 -0.43685E+04
 0.95899994E+02 -0.43342E+04
 0.95949997E+02 -0.49016E+04
 0.95999992E+02 -0.54214E+04
 0.96049995E+02 -0.55791E+04
 0.96099991E+02 -0.56906E+04
 0.96149994E+02 -0.56021E+04
 0.96199997E+02 -0.53386E+04
 0.96249992E+02 -0.54335E+04
 0.96299995E+02 -0.60009E+04
 0.96349991E+02 -0.66046E+04
 0.96399994E+02 -0.68272E+04
 0.96449997E+02 -0.68861E+04
 0.96499992E+02 -0.71265E+04
 0.96549995E+02 -0.72372E+04
 0.96599991E+02 -0.68233E+04
 0.96649994E+02 -0.61753E+04
 0.96699997E+02 -0.56141E+04
 0.96749992E+02 -0.54854E+04
 0.96799995E+02 -0.58004E+04
 0.96849991E+02 -0.60531E+04
 0.96899994E+02 -0.59609E+04
 0.96949997E+02 -0.57760E+04
 0.96999992E+02 -0.59178E+04
 0.97049995E+02 -0.64358E+04
 0.97099991E+02 -0.70315E+04
 0.97149994E+02 -0.73321E+04
 0.97199997E+02 -0.72378E+04
 0.97249992E+02 -0.69832E+04
 0.97299995E+02 -0.67741E+04
 0.97349991E+02 -0.65669E+04
 0.97399994E+02 -0.62306E+04
 0.97449997E+02 -0.57702E+04
 0.97499992E+02 -0.53845E+04
 0.97549995E+02 -0.51164E+04
 0.97599991E+02 -0.47526E+04
 0.97649994E+02 -0.42644E+04
 0.97699997E+02 -0.37695E+04
 0.97749992E+02 -0.36648E+04
 0.97799995E+02 -0.40792E+04
 0.97849991E+02 -0.45536E+04
 0.97899994E+02 -0.51226E+04
 0.97949997E+02 -0.57399E+04
 0.97999992E+02 -0.60724E+04
