-0.19969940E+01  0.10246E+05
-0.19469941E+01  0.10189E+05
-0.18969940E+01  0.10233E+05
-0.18469940E+01  0.10235E+05
-0.17969940E+01  0.10232E+05
-0.17469940E+01  0.10234E+05
-0.16969941E+01  0.10238E+05
-0.16469941E+01  0.10240E+05
-0.15969940E+01  0.10242E+05
-0.15469940E+01  0.10245E+05
-0.14969940E+01  0.10246E+05
-0.14469941E+01  0.10246E+05
-0.13969941E+01  0.10248E+05
-0.13469940E+01  0.10249E+05
-0.12969941E+01  0.10255E+05
-0.12469940E+01  0.10264E+05
-0.11969941E+01  0.10269E+05
-0.11469941E+01  0.10267E+05
-0.10969940E+01  0.10265E+05
-0.10469941E+01  0.10263E+05
-0.99699408E+00  0.10259E+05
-0.94699407E+00  0.10257E+05
-0.89699411E+00  0.10258E+05
-0.84699404E+00  0.10262E+05
-0.79699409E+00  0.10268E+05
-0.74699414E+00  0.10263E+05
-0.69699407E+00  0.10252E+05
-0.64699411E+00  0.10241E+05
-0.59699416E+00  0.10235E+05
-0.54699409E+00  0.10230E+05
-0.49699414E+00  0.10229E+05
-0.44699407E+00  0.10228E+05
-0.39699411E+00  0.10220E+05
-0.34699416E+00  0.10215E+05
-0.29699409E+00  0.10210E+05
-0.24699414E+00  0.10212E+05
-0.19699407E+00  0.10213E+05
-0.14699411E+00  0.10207E+05
-0.96994162E-01  0.10203E+05
-0.46994090E-01  0.10204E+05
 0.30058622E-02  0.10205E+05
 0.53005934E-01  0.10210E+05
 0.10300589E+00  0.10209E+05
 0.15300584E+00  0.10205E+05
 0.20300579E+00  0.10203E+05
 0.25300574E+00  0.10202E+05
 0.30300593E+00  0.10207E+05
 0.35300589E+00  0.10211E+05
 0.40300584E+00  0.10220E+05
 0.45300579E+00  0.10227E+05
 0.50300574E+00  0.10233E+05
 0.55300593E+00  0.10242E+05
 0.60300589E+00  0.10241E+05
 0.65300584E+00  0.10236E+05
 0.70300579E+00  0.10234E+05
 0.75300574E+00  0.10237E+05
 0.80300570E+00  0.10237E+05
 0.85300589E+00  0.10237E+05
 0.90300584E+00  0.10231E+05
 0.95300579E+00  0.10229E+05
 0.10030057E+01  0.10233E+05
 0.10530057E+01  0.10237E+05
 0.11030059E+01  0.10241E+05
 0.11530058E+01  0.10240E+05
 0.12030058E+01  0.10236E+05
 0.12530057E+01  0.10232E+05
 0.13030057E+01  0.10234E+05
 0.13530059E+01  0.10236E+05
 0.14030058E+01  0.10234E+05
 0.14530058E+01  0.10246E+05
 0.15030057E+01  0.10260E+05
 0.15530057E+01  0.10265E+05
 0.16030059E+01  0.10268E+05
 0.16530058E+01  0.10266E+05
 0.17030058E+01  0.10256E+05
 0.17530057E+01  0.10243E+05
 0.18030057E+01  0.10233E+05
 0.18530056E+01  0.10225E+05
 0.19030058E+01  0.10227E+05
 0.19530058E+01  0.10224E+05
 0.20030057E+01  0.10223E+05
 0.20530057E+01  0.10228E+05
 0.21030059E+01  0.10228E+05
 0.21530056E+01  0.10228E+05
 0.22030058E+01  0.10230E+05
 0.22530055E+01  0.10234E+05
 0.23030057E+01  0.10234E+05
 0.23530059E+01  0.10234E+05
 0.24030056E+01  0.10234E+05
 0.24530058E+01  0.10240E+05
 0.25030055E+01  0.10242E+05
 0.25530057E+01  0.10241E+05
 0.26030059E+01  0.10244E+05
 0.26530056E+01  0.10247E+05
 0.27030058E+01  0.10241E+05
 0.27530055E+01  0.10230E+05
 0.28030057E+01  0.10225E+05
 0.28530059E+01  0.10222E+05
 0.29030056E+01  0.10217E+05
 0.29530058E+01  0.10210E+05
 0.30030055E+01  0.10201E+05
 0.30530057E+01  0.10193E+05
 0.31030059E+01  0.10195E+05
 0.31530056E+01  0.10199E+05
 0.32030058E+01  0.10203E+05
 0.32530055E+01  0.10213E+05
 0.33030057E+01  0.10226E+05
 0.33530059E+01  0.10233E+05
 0.34030056E+01  0.10237E+05
 0.34530058E+01  0.10240E+05
 0.35030055E+01  0.10242E+05
 0.35530057E+01  0.10243E+05
 0.36030054E+01  0.10240E+05
 0.36530056E+01  0.10244E+05
 0.37030058E+01  0.10251E+05
 0.37530055E+01  0.10251E+05
 0.38030057E+01  0.10247E+05
 0.38530054E+01  0.10241E+05
 0.39030056E+01  0.10240E+05
 0.39530058E+01  0.10244E+05
 0.40030055E+01  0.10255E+05
 0.40530057E+01  0.10267E+05
 0.41030054E+01  0.10276E+05
 0.41530056E+01  0.10281E+05
 0.42030058E+01  0.10277E+05
 0.42530055E+01  0.10269E+05
 0.43030057E+01  0.10258E+05
 0.43530054E+01  0.10249E+05
 0.44030056E+01  0.10243E+05
 0.44530058E+01  0.10245E+05
 0.45030055E+01  0.10246E+05
 0.45530057E+01  0.10245E+05
 0.46030054E+01  0.10242E+05
 0.46530056E+01  0.10241E+05
 0.47030058E+01  0.10239E+05
 0.47530055E+01  0.10242E+05
 0.48030057E+01  0.10248E+05
 0.48530054E+01  0.10250E+05
 0.49030056E+01  0.10254E+05
 0.49530058E+01  0.10250E+05
 0.50030055E+01  0.10247E+05
 0.50530057E+01  0.10248E+05
 0.51030054E+01  0.10246E+05
 0.51530056E+01  0.10250E+05
 0.52030058E+01  0.10248E+05
 0.52530055E+01  0.10244E+05
 0.53030057E+01  0.10244E+05
 0.53530054E+01  0.10239E+05
 0.54030056E+01  0.10232E+05
 0.54530053E+01  0.10223E+05
 0.55030055E+01  0.10214E+05
 0.55530057E+01  0.10200E+05
 0.56030054E+01  0.10192E+05
 0.56530056E+01  0.10191E+05
 0.57030053E+01  0.10203E+05
 0.57530055E+01  0.10209E+05
 0.58030057E+01  0.10214E+05
 0.58530054E+01  0.10220E+05
 0.59030056E+01  0.10219E+05
 0.59530053E+01  0.10224E+05
 0.60030055E+01  0.10230E+05
 0.60530052E+01  0.10235E+05
 0.61030054E+01  0.10241E+05
 0.61530056E+01  0.10244E+05
 0.62030058E+01  0.10241E+05
 0.62530050E+01  0.10233E+05
 0.63030052E+01  0.10224E+05
 0.63530054E+01  0.10219E+05
 0.64030056E+01  0.10212E+05
 0.64530058E+01  0.10208E+05
 0.65030050E+01  0.10203E+05
 0.65530052E+01  0.10198E+05
 0.66030054E+01  0.10202E+05
 0.66530056E+01  0.10203E+05
 0.67030058E+01  0.10210E+05
 0.67530050E+01  0.10213E+05
 0.68030052E+01  0.10209E+05
 0.68530054E+01  0.10213E+05
 0.69030056E+01  0.10215E+05
 0.69530058E+01  0.10217E+05
 0.70030050E+01  0.10230E+05
 0.70530052E+01  0.10237E+05
 0.71030054E+01  0.10244E+05
 0.71530056E+01  0.10248E+05
 0.72030058E+01  0.10249E+05
 0.72530050E+01  0.10251E+05
 0.73030052E+01  0.10246E+05
 0.73530054E+01  0.10243E+05
 0.74030056E+01  0.10239E+05
 0.74530058E+01  0.10240E+05
 0.75030050E+01  0.10240E+05
 0.75530052E+01  0.10245E+05
 0.76030054E+01  0.10249E+05
 0.76530056E+01  0.10248E+05
 0.77030058E+01  0.10242E+05
 0.77530050E+01  0.10235E+05
 0.78030052E+01  0.10231E+05
 0.78530054E+01  0.10233E+05
 0.79030056E+01  0.10240E+05
 0.79530058E+01  0.10248E+05
 0.80030050E+01  0.10254E+05
 0.80530052E+01  0.10247E+05
 0.81030054E+01  0.10249E+05
 0.81530056E+01  0.10251E+05
 0.82030058E+01  0.10256E+05
 0.82530050E+01  0.10256E+05
 0.83030052E+01  0.10245E+05
 0.83530054E+01  0.10238E+05
 0.84030056E+01  0.10233E+05
 0.84530058E+01  0.10235E+05
 0.85030050E+01  0.10231E+05
 0.85530052E+01  0.10227E+05
 0.86030054E+01  0.10225E+05
 0.86530056E+01  0.10227E+05
 0.87030058E+01  0.10229E+05
 0.87530050E+01  0.10233E+05
 0.88030052E+01  0.10236E+05
 0.88530054E+01  0.10241E+05
 0.89030056E+01  0.10248E+05
 0.89530058E+01  0.10254E+05
 0.90030050E+01  0.10261E+05
 0.90530052E+01  0.10259E+05
 0.91030054E+01  0.10261E+05
 0.91530056E+01  0.10260E+05
 0.92030048E+01  0.10256E+05
 0.92530050E+01  0.10247E+05
 0.93030052E+01  0.10237E+05
 0.93530054E+01  0.10229E+05
 0.94030056E+01  0.10218E+05
 0.94530048E+01  0.10216E+05
 0.95030050E+01  0.10212E+05
 0.95530052E+01  0.10209E+05
 0.96030054E+01  0.10211E+05
 0.96530056E+01  0.10213E+05
 0.97030048E+01  0.10215E+05
 0.97530050E+01  0.10216E+05
 0.98030052E+01  0.10219E+05
 0.98530054E+01  0.10218E+05
 0.99030056E+01  0.10216E+05
 0.99530048E+01  0.10213E+05
 0.10003005E+02  0.10219E+05
 0.10053005E+02  0.10226E+05
 0.10103005E+02  0.10230E+05
 0.10153006E+02  0.10238E+05
 0.10203005E+02  0.10240E+05
 0.10253005E+02  0.10248E+05
 0.10303005E+02  0.10252E+05
 0.10353005E+02  0.10255E+05
 0.10403006E+02  0.10259E+05
 0.10453005E+02  0.10260E+05
 0.10503005E+02  0.10260E+05
 0.10553005E+02  0.10255E+05
 0.10603005E+02  0.10254E+05
 0.10653006E+02  0.10245E+05
 0.10703005E+02  0.10239E+05
 0.10753005E+02  0.10232E+05
 0.10803005E+02  0.10229E+05
 0.10853005E+02  0.10230E+05
 0.10903006E+02  0.10228E+05
 0.10953005E+02  0.10223E+05
 0.11003005E+02  0.10217E+05
 0.11053005E+02  0.10215E+05
 0.11103005E+02  0.10210E+05
 0.11153006E+02  0.10208E+05
 0.11203005E+02  0.10210E+05
 0.11253005E+02  0.10225E+05
 0.11303005E+02  0.10233E+05
 0.11353005E+02  0.10238E+05
 0.11403006E+02  0.10240E+05
 0.11453005E+02  0.10231E+05
 0.11503005E+02  0.10234E+05
 0.11553005E+02  0.10228E+05
 0.11603005E+02  0.10235E+05
 0.11653006E+02  0.10243E+05
 0.11703005E+02  0.10232E+05
 0.11753005E+02  0.10236E+05
 0.11803005E+02  0.10233E+05
 0.11853005E+02  0.10224E+05
 0.11903006E+02  0.10243E+05
 0.11953005E+02  0.10255E+05
 0.12003005E+02  0.10244E+05
 0.12053005E+02  0.10268E+05
 0.12103005E+02  0.10255E+05
 0.12153006E+02  0.10214E+05
 0.12203005E+02  0.10188E+05
 0.12253005E+02  0.98019E+04
 0.12303005E+02  0.98210E+04
 0.12353005E+02  0.10769E+05
 0.12403006E+02  0.10657E+05
 0.12453005E+02  0.10215E+05
 0.12503005E+02  0.10424E+05
 0.12553005E+02  0.98972E+04
 0.12603005E+02  0.97323E+04
 0.12653005E+02  0.94296E+04
 0.12703005E+02  0.10036E+05
 0.12753005E+02  0.10875E+05
 0.12803005E+02  0.99576E+04
 0.12853005E+02  0.11209E+05
 0.12903005E+02  0.10501E+05
 0.12953005E+02  0.72205E+04
 0.13003005E+02  0.93434E+04
 0.13053005E+02  0.11389E+05
 0.13103005E+02  0.88285E+04
 0.13153005E+02  0.13303E+05
 0.13203005E+02  0.12752E+05
 0.13253005E+02  0.69090E+04
 0.13303005E+02  0.13064E+05
 0.13353005E+02  0.69142E+04
 0.13403005E+02  0.71553E+04
 0.13453005E+02  0.17271E+05
 0.13503005E+02  0.58242E+04
 0.13553005E+02  0.14488E+05
 0.13603005E+02  0.10363E+05
 0.13653005E+02  0.63026E+04
 0.13703005E+02  0.15865E+05
 0.13753005E+02  0.38377E+04
 0.13803005E+02  0.12510E+05
 0.13853005E+02  0.11355E+05
 0.13903005E+02  0.93303E+04
 0.13953005E+02  0.11033E+05
 0.14003005E+02  0.13669E+05
 0.14053005E+02  0.44629E+04
 0.14103004E+02  0.92370E+04
 0.14153006E+02  0.16021E+05
 0.14203005E+02  0.91767E+04
 0.14253004E+02  0.58396E+04
 0.14303005E+02  0.16280E+05
 0.14353004E+02  0.13965E+05
 0.14403006E+02 -0.32933E+04
 0.14453005E+02  0.19594E+05
 0.14503004E+02  0.96882E+04
 0.14553005E+02  0.88167E+04
 0.14603004E+02  0.17522E+05
 0.14653006E+02  0.34996E+04
 0.14703005E+02  0.53334E+04
 0.14753004E+02  0.12850E+05
 0.14803005E+02  0.56138E+04
 0.14853004E+02  0.16216E+05
 0.14903006E+02  0.13286E+05
 0.14953005E+02 -0.16224E+03
 0.15003004E+02  0.17677E+05
 0.15053005E+02  0.94661E+04
 0.15103004E+02  0.58094E+04
 0.15153006E+02  0.10750E+05
 0.15203005E+02  0.12148E+05
 0.15253004E+02  0.13549E+05
 0.15303005E+02  0.97977E+04
 0.15353004E+02  0.12374E+05
 0.15403006E+02  0.71154E+04
 0.15453005E+02  0.87513E+04
 0.15503004E+02  0.15012E+05
 0.15553005E+02  0.11171E+05
 0.15603004E+02  0.71776E+04
 0.15653006E+02  0.72048E+04
 0.15703005E+02  0.11596E+05
 0.15753004E+02  0.15265E+05
 0.15803005E+02  0.73003E+04
 0.15853004E+02  0.57931E+04
 0.15903006E+02  0.20386E+05
 0.15953005E+02  0.15670E+05
 0.16003004E+02  0.26362E+04
 0.16053005E+02  0.14744E+05
 0.16103004E+02  0.70665E+04
 0.16153006E+02  0.10466E+05
 0.16203005E+02  0.70386E+04
 0.16253004E+02  0.47117E+04
 0.16303005E+02  0.13446E+05
 0.16353004E+02  0.13259E+05
 0.16403006E+02  0.11022E+05
 0.16453005E+02  0.62881E+04
 0.16503004E+02  0.77756E+04
 0.16553005E+02  0.27443E+04
 0.16603004E+02  0.21562E+05
 0.16653006E+02  0.90008E+04
 0.16703005E+02  0.10063E+05
 0.16753004E+02  0.12698E+05
 0.16803005E+02  0.49543E+04
 0.16853004E+02  0.13039E+05
 0.16903006E+02  0.14036E+05
 0.16953005E+02  0.44489E+04
 0.17003004E+02  0.68070E+04
 0.17053005E+02  0.17456E+05
 0.17103004E+02  0.10829E+05
 0.17153006E+02  0.15081E+05
 0.17203005E+02  0.98172E+04
 0.17253004E+02  0.96176E+04
 0.17303005E+02  0.75943E+04
 0.17353004E+02 -0.14692E+04
 0.17403006E+02  0.10167E+05
 0.17453005E+02  0.14462E+05
 0.17503004E+02  0.10998E+05
 0.17553005E+02  0.13723E+05
 0.17603004E+02  0.17139E+04
 0.17653006E+02  0.15225E+05
 0.17703005E+02  0.14742E+05
 0.17753004E+02  0.77813E+04
 0.17803005E+02  0.18791E+05
 0.17853004E+02  0.59937E+04
 0.17903006E+02  0.46034E+04
 0.17953005E+02  0.97003E+04
 0.18003004E+02  0.13660E+05
 0.18053005E+02  0.68311E+04
 0.18103004E+02  0.84551E+04
 0.18153006E+02  0.13314E+05
 0.18203005E+02  0.13758E+05
 0.18253004E+02  0.93857E+04
 0.18303005E+02  0.83209E+04
 0.18353004E+02  0.53294E+04
 0.18403006E+02  0.42346E+04
 0.18453005E+02  0.24761E+05
 0.18503004E+02  0.74339E+04
 0.18553005E+02  0.11492E+05
 0.18603004E+02  0.13303E+05
 0.18653006E+02  0.61427E+04
 0.18703005E+02  0.13362E+05
 0.18753004E+02 -0.95960E+03
 0.18803005E+02  0.94584E+04
 0.18853004E+02  0.56815E+04
 0.18903006E+02  0.73053E+04
 0.18953005E+02  0.22063E+05
 0.19003004E+02  0.18175E+05
 0.19053005E+02  0.80416E+04
 0.19103004E+02  0.64631E+04
 0.19153006E+02  0.10594E+05
 0.19203005E+02  0.46656E+04
 0.19253004E+02  0.16411E+05
 0.19303005E+02  0.42531E+04
 0.19353004E+02  0.75116E+04
 0.19403006E+02  0.23584E+05
 0.19453005E+02  0.68564E+04
 0.19503004E+02  0.14905E+05
 0.19553005E+02  0.80679E+04
 0.19603004E+02  0.53538E+04
 0.19653006E+02  0.98800E+04
 0.19703005E+02  0.10134E+05
 0.19753004E+02  0.10646E+05
 0.19803005E+02  0.69257E+04
 0.19853004E+02  0.13226E+05
 0.19903006E+02  0.59175E+04
 0.19953005E+02  0.49041E+04
 0.20003004E+02  0.51657E+04
 0.20053005E+02  0.86274E+03
 0.20103004E+02  0.10744E+05
 0.20153006E+02  0.10906E+05
 0.20203005E+02  0.15144E+05
 0.20253004E+02  0.33845E+05
 0.20303005E+02  0.12216E+05
 0.20353004E+02  0.97338E+04
 0.20403004E+02  0.17393E+05
 0.20453005E+02  0.10945E+05
 0.20503004E+02  0.17382E+05
 0.20553005E+02  0.99640E+04
 0.20603004E+02  0.17181E+05
 0.20653004E+02 -0.12608E+04
 0.20703005E+02 -0.12827E+05
 0.20753004E+02  0.61793E+04
 0.20803005E+02  0.49085E+04
 0.20853004E+02  0.15140E+05
 0.20903004E+02  0.26706E+05
 0.20953005E+02  0.16446E+05
 0.21003004E+02  0.16102E+05
 0.21053005E+02  0.83705E+04
 0.21103004E+02  0.41354E+04
 0.21153004E+02 -0.42731E+04
 0.21203005E+02 -0.13799E+05
 0.21253004E+02  0.22380E+05
 0.21303005E+02  0.17498E+05
 0.21353004E+02  0.20720E+05
 0.21403004E+02  0.15198E+05
 0.21453005E+02  0.18410E+05
 0.21503004E+02  0.13247E+05
 0.21553005E+02 -0.86360E+04
 0.21603004E+02  0.14706E+05
 0.21653004E+02  0.10556E+05
 0.21703005E+02  0.19501E+05
 0.21753004E+02  0.10095E+05
 0.21803005E+02  0.10198E+05
 0.21853004E+02  0.39460E+04
 0.21903004E+02 -0.91796E+03
 0.21953005E+02  0.41632E+04
 0.22003004E+02  0.63325E+04
 0.22053005E+02  0.16534E+05
 0.22103004E+02  0.83057E+04
 0.22153004E+02  0.54156E+04
 0.22203005E+02  0.78823E+04
 0.22253004E+02  0.17484E+05
 0.22303005E+02  0.29248E+05
 0.22353004E+02  0.15819E+05
 0.22403004E+02  0.20386E+05
 0.22453005E+02  0.13134E+05
 0.22503004E+02 -0.19974E+05
 0.22553005E+02  0.79067E+04
 0.22603004E+02  0.15571E+05
 0.22653004E+02  0.19488E+04
 0.22703005E+02  0.82559E+04
 0.22753004E+02  0.12493E+05
 0.22803005E+02  0.24723E+05
 0.22853004E+02  0.16217E+05
 0.22903004E+02  0.20882E+04
 0.22953005E+02  0.10437E+05
 0.23003004E+02  0.76718E+04
 0.23053005E+02 -0.19108E+04
 0.23103004E+02  0.57931E+04
 0.23153004E+02  0.11151E+05
 0.23203005E+02  0.10929E+05
 0.23253004E+02  0.15401E+05
 0.23303005E+02  0.20308E+05
 0.23353004E+02  0.19092E+05
 0.23403004E+02  0.20528E+05
 0.23453005E+02  0.20532E+05
 0.23503004E+02  0.51535E+03
 0.23553005E+02 -0.31117E+03
 0.23603004E+02  0.33871E+04
 0.23653004E+02 -0.23287E+04
 0.23703005E+02  0.89117E+04
 0.23753004E+02  0.14609E+05
 0.23803005E+02  0.13151E+05
 0.23853004E+02  0.18007E+05
 0.23903004E+02  0.11769E+05
 0.23953005E+02  0.17048E+04
 0.24003004E+02  0.13444E+05
 0.24053005E+02  0.59319E+04
 0.24103004E+02 -0.82682E+04
 0.24153004E+02  0.27120E+04
 0.24203005E+02  0.24755E+05
 0.24253004E+02  0.11725E+05
 0.24303005E+02  0.81550E+04
 0.24353004E+02  0.22880E+05
 0.24403004E+02  0.10567E+05
 0.24453005E+02  0.13221E+05
 0.24503004E+02  0.12145E+05
 0.24553005E+02  0.14499E+05
 0.24603004E+02  0.25419E+05
 0.24653004E+02  0.11598E+05
 0.24703005E+02  0.55831E+04
 0.24753004E+02  0.97826E+04
 0.24803005E+02  0.39621E+04
 0.24853004E+02  0.11494E+05
 0.24903004E+02  0.11143E+05
 0.24953005E+02  0.69498E+04
 0.25003004E+02  0.11108E+05
 0.25053005E+02  0.17716E+05
 0.25103004E+02 -0.12451E+04
 0.25153004E+02 -0.20356E+04
 0.25203005E+02 -0.28954E+04
 0.25253004E+02 -0.49852E+04
 0.25303005E+02  0.29981E+05
 0.25353004E+02  0.19027E+05
 0.25403004E+02  0.23917E+05
 0.25453005E+02  0.32977E+05
 0.25503004E+02  0.14621E+05
 0.25553005E+02  0.86565E+04
 0.25603004E+02 -0.43639E+03
 0.25653004E+02  0.38999E+04
 0.25703005E+02  0.12348E+05
 0.25753004E+02  0.91737E+04
 0.25803005E+02  0.78987E+04
 0.25853004E+02  0.10415E+05
 0.25903004E+02  0.14394E+05
 0.25953005E+02  0.17629E+05
 0.26003004E+02  0.11154E+05
 0.26053005E+02 -0.84085E+03
 0.26103004E+02  0.66947E+04
 0.26153004E+02  0.89636E+04
 0.26203005E+02  0.32264E+04
 0.26253004E+02  0.53177E+04
 0.26303005E+02  0.43691E+04
 0.26353004E+02  0.66340E+04
 0.26403004E+02 -0.49139E+04
 0.26453005E+02  0.21319E+04
 0.26503004E+02  0.10390E+05
 0.26553005E+02  0.13376E+05
 0.26603004E+02  0.18485E+05
 0.26653004E+02  0.11442E+05
 0.26703005E+02  0.11616E+05
 0.26753004E+02  0.15849E+05
 0.26803005E+02  0.17891E+05
 0.26853004E+02  0.14337E+05
 0.26903004E+02  0.10104E+05
 0.26953005E+02  0.15458E+05
 0.27003004E+02  0.16299E+05
 0.27053003E+02  0.11016E+05
 0.27103004E+02  0.89346E+04
 0.27153004E+02  0.10358E+05
 0.27203005E+02  0.33431E+04
 0.27253004E+02  0.72112E+04
 0.27303003E+02  0.17124E+05
 0.27353004E+02  0.14433E+05
 0.27403004E+02  0.18262E+05
 0.27453005E+02  0.14067E+05
 0.27503004E+02  0.61723E+04
 0.27553003E+02  0.33888E+04
 0.27603004E+02  0.30294E+04
 0.27653004E+02  0.43263E+04
 0.27703005E+02  0.88901E+04
 0.27753004E+02  0.12724E+04
 0.27803003E+02  0.78774E+04
 0.27853004E+02  0.13361E+05
 0.27903004E+02  0.88944E+04
 0.27953005E+02  0.18289E+05
 0.28003004E+02  0.17887E+05
 0.28053003E+02  0.10175E+05
 0.28103004E+02  0.64800E+04
 0.28153004E+02  0.96549E+04
 0.28203005E+02  0.12919E+05
 0.28253004E+02  0.11453E+05
 0.28303003E+02  0.11020E+05
 0.28353004E+02  0.16136E+05
 0.28403004E+02  0.14997E+05
 0.28453005E+02  0.34208E+04
 0.28503004E+02  0.38703E+04
 0.28553003E+02  0.15232E+04
 0.28603004E+02  0.43923E+04
 0.28653004E+02  0.10335E+05
 0.28703005E+02  0.69874E+04
 0.28753004E+02  0.12144E+05
 0.28803003E+02  0.88098E+04
 0.28853004E+02  0.71792E+04
 0.28903004E+02  0.87543E+04
 0.28953005E+02  0.11727E+05
 0.29003004E+02  0.10714E+05
 0.29053003E+02  0.11844E+05
 0.29103004E+02  0.17931E+05
 0.29153004E+02  0.94419E+04
 0.29203005E+02  0.98800E+04
 0.29253004E+02  0.15305E+05
 0.29303003E+02  0.34741E+04
 0.29353004E+02  0.24688E+04
 0.29403004E+02  0.15360E+05
 0.29453005E+02  0.18255E+05
 0.29503004E+02  0.17595E+05
 0.29553003E+02  0.18159E+05
 0.29603004E+02  0.11754E+05
 0.29653004E+02  0.64102E+04
 0.29703005E+02  0.14388E+05
 0.29753004E+02  0.16147E+05
 0.29803003E+02  0.17575E+05
 0.29853004E+02  0.12965E+05
 0.29903004E+02  0.73006E+04
 0.29953005E+02  0.51309E+04
 0.30003004E+02 -0.74361E+03
 0.30053005E+02 -0.12175E+03
 0.30103004E+02  0.26538E+04
 0.30153004E+02  0.15408E+05
 0.30203003E+02  0.23351E+05
 0.30253002E+02  0.20902E+05
 0.30303005E+02  0.58590E+04
 0.30353004E+02  0.42888E+03
 0.30403004E+02  0.51376E+04
 0.30453003E+02  0.30829E+04
 0.30503002E+02  0.21836E+05
 0.30553005E+02  0.25285E+05
 0.30603004E+02  0.85415E+04
 0.30653004E+02  0.92540E+04
 0.30703003E+02  0.44704E+04
 0.30753002E+02 -0.30769E+04
 0.30803005E+02  0.56206E+04
 0.30853004E+02  0.11163E+05
 0.30903004E+02  0.76490E+04
 0.30953003E+02  0.95988E+04
 0.31003002E+02  0.44626E+04
 0.31053005E+02  0.83623E+04
 0.31103004E+02  0.98053E+04
 0.31153004E+02  0.61174E+04
 0.31203003E+02  0.14672E+05
 0.31253002E+02  0.16117E+05
 0.31303005E+02  0.16721E+05
 0.31353004E+02  0.20303E+05
 0.31403004E+02  0.19837E+05
 0.31453003E+02  0.14226E+05
 0.31503002E+02  0.15012E+05
 0.31553005E+02  0.11553E+05
 0.31603004E+02  0.90214E+04
 0.31653004E+02  0.10145E+05
 0.31703003E+02  0.90582E+04
 0.31753002E+02  0.13210E+05
 0.31803005E+02  0.94586E+04
 0.31853004E+02  0.63249E+04
 0.31903004E+02  0.53213E+04
 0.31953003E+02  0.57185E+04
 0.32003002E+02  0.86233E+04
 0.32053005E+02  0.76056E+04
 0.32103004E+02  0.41045E+04
 0.32153004E+02  0.48122E+04
 0.32203003E+02  0.78191E+04
 0.32253002E+02  0.10402E+05
 0.32303005E+02  0.96294E+04
 0.32353004E+02  0.72054E+04
 0.32403004E+02  0.96724E+04
 0.32453003E+02  0.98037E+04
 0.32503002E+02  0.12693E+05
 0.32553005E+02  0.93704E+04
 0.32603004E+02  0.90084E+04
 0.32653004E+02  0.10435E+05
 0.32703003E+02  0.86546E+04
 0.32753002E+02  0.40409E+04
 0.32803005E+02  0.49533E+04
 0.32853004E+02  0.14923E+05
 0.32903004E+02  0.95655E+04
 0.32953003E+02  0.15499E+05
 0.33003002E+02  0.20673E+05
 0.33053005E+02  0.13525E+05
 0.33103004E+02  0.13251E+05
 0.33153004E+02  0.91598E+04
 0.33203003E+02  0.11877E+05
 0.33253002E+02  0.17026E+05
 0.33303005E+02  0.12584E+05
 0.33353004E+02  0.15032E+05
 0.33403004E+02  0.18181E+05
 0.33453003E+02  0.10755E+05
 0.33503002E+02  0.13984E+05
 0.33553005E+02  0.91384E+04
 0.33603004E+02  0.40609E+04
 0.33653004E+02  0.96497E+04
 0.33703003E+02  0.54855E+04
 0.33753002E+02  0.64426E+04
 0.33803005E+02  0.51548E+04
 0.33853004E+02  0.66756E+04
 0.33903004E+02  0.84720E+04
 0.33953003E+02  0.14757E+04
 0.34003002E+02  0.44319E+04
 0.34053005E+02  0.11550E+05
 0.34103004E+02  0.11855E+05
 0.34153004E+02  0.97701E+04
 0.34203003E+02  0.10228E+05
 0.34253002E+02  0.88377E+04
 0.34303005E+02  0.90751E+04
 0.34353004E+02  0.10709E+05
 0.34403004E+02  0.10282E+05
 0.34453003E+02  0.13582E+05
 0.34503002E+02  0.10208E+05
 0.34553005E+02  0.13642E+05
 0.34603004E+02  0.11901E+05
 0.34653004E+02  0.87043E+04
 0.34703003E+02  0.14429E+05
 0.34753002E+02  0.12280E+05
 0.34803005E+02  0.12575E+05
 0.34853004E+02  0.12129E+05
 0.34903004E+02  0.14012E+05
 0.34953003E+02  0.88806E+04
 0.35003002E+02  0.10500E+05
 0.35053005E+02  0.13322E+05
 0.35103004E+02  0.13379E+05
 0.35153004E+02  0.13845E+05
 0.35203003E+02  0.10210E+05
 0.35253002E+02  0.73012E+04
 0.35303005E+02  0.69614E+04
 0.35353004E+02  0.73471E+04
 0.35403004E+02  0.67873E+04
 0.35453003E+02  0.96325E+04
 0.35503002E+02  0.48374E+04
 0.35553005E+02  0.14141E+05
 0.35603004E+02  0.10260E+05
 0.35653004E+02  0.83191E+04
 0.35703003E+02  0.58961E+04
 0.35753002E+02  0.34838E+04
 0.35803005E+02  0.14040E+05
 0.35853004E+02  0.88154E+04
 0.35903004E+02  0.12600E+05
 0.35953003E+02  0.10019E+05
 0.36003002E+02  0.89718E+04
 0.36053005E+02  0.12805E+05
 0.36103004E+02  0.13625E+05
 0.36153004E+02  0.12306E+05
 0.36203003E+02  0.13313E+05
 0.36253002E+02  0.13863E+05
 0.36303005E+02  0.11310E+05
 0.36353004E+02  0.12637E+05
 0.36403004E+02  0.77243E+04
 0.36453003E+02  0.82945E+04
 0.36503002E+02  0.12889E+05
 0.36553005E+02  0.12179E+05
 0.36603004E+02  0.82885E+04
 0.36653004E+02  0.80349E+04
 0.36703003E+02  0.68949E+04
 0.36753002E+02  0.68170E+04
 0.36803005E+02  0.94191E+04
 0.36853004E+02  0.87456E+04
 0.36903004E+02  0.11508E+05
 0.36953003E+02  0.11637E+05
 0.37003002E+02  0.11830E+05
 0.37053005E+02  0.11922E+05
 0.37103004E+02  0.81866E+04
 0.37153004E+02  0.88312E+04
 0.37203003E+02  0.84475E+04
 0.37253002E+02  0.92100E+04
 0.37303005E+02  0.60717E+04
 0.37353004E+02  0.61055E+04
 0.37403004E+02  0.95912E+04
 0.37453003E+02  0.98561E+04
 0.37503002E+02  0.15411E+05
 0.37553005E+02  0.15972E+05
 0.37603004E+02  0.12574E+05
 0.37653004E+02  0.62788E+04
 0.37703003E+02  0.76624E+04
 0.37753002E+02  0.80350E+04
 0.37803005E+02  0.10124E+05
 0.37853004E+02  0.13420E+05
 0.37903004E+02  0.11438E+05
 0.37953003E+02  0.10934E+05
 0.38003002E+02  0.83254E+04
 0.38053005E+02  0.99248E+04
 0.38103004E+02  0.10960E+05
 0.38153004E+02  0.13775E+05
 0.38203003E+02  0.13722E+05
 0.38253002E+02  0.13213E+05
 0.38303005E+02  0.80504E+04
 0.38353004E+02  0.77432E+04
 0.38403004E+02  0.12250E+05
 0.38453003E+02  0.99570E+04
 0.38503002E+02  0.12487E+05
 0.38553005E+02  0.10994E+05
 0.38603004E+02  0.11125E+05
 0.38653004E+02  0.10216E+05
 0.38703003E+02  0.88030E+04
 0.38753002E+02  0.98919E+04
 0.38803005E+02  0.89735E+04
 0.38853004E+02  0.94420E+04
 0.38903004E+02  0.76040E+04
 0.38953003E+02  0.10469E+05
 0.39003002E+02  0.11997E+05
 0.39053005E+02  0.10264E+05
 0.39103004E+02  0.12115E+05
 0.39153004E+02  0.12054E+05
 0.39203003E+02  0.10937E+05
 0.39253002E+02  0.13237E+05
 0.39303005E+02  0.13833E+05
 0.39353004E+02  0.66411E+04
 0.39403004E+02  0.48138E+04
 0.39453003E+02  0.86875E+04
 0.39503002E+02  0.80169E+04
 0.39553005E+02  0.86179E+04
 0.39603004E+02  0.12922E+05
 0.39653004E+02  0.92144E+04
 0.39703003E+02  0.82205E+04
 0.39753002E+02  0.11548E+05
 0.39803005E+02  0.84801E+04
 0.39853004E+02  0.11568E+05
 0.39903004E+02  0.92189E+04
 0.39953003E+02  0.56310E+04
 0.40003002E+02  0.99641E+04
 0.40053005E+02  0.82455E+04
 0.40103004E+02  0.77954E+04
 0.40153004E+02  0.98357E+04
 0.40203003E+02  0.12846E+05
 0.40253002E+02  0.13123E+05
 0.40303005E+02  0.97328E+04
 0.40353004E+02  0.12949E+05
 0.40403004E+02  0.92756E+04
 0.40453003E+02  0.11890E+05
 0.40503002E+02  0.13530E+05
 0.40553005E+02  0.12221E+05
 0.40603004E+02  0.15886E+05
 0.40653004E+02  0.12574E+05
 0.40703003E+02  0.12799E+05
 0.40753002E+02  0.13685E+05
 0.40803005E+02  0.11729E+05
 0.40853004E+02  0.10630E+05
 0.40903004E+02  0.11242E+05
 0.40953003E+02  0.88211E+04
 0.41003002E+02  0.63958E+04
 0.41053005E+02  0.66227E+04
 0.41103004E+02  0.66917E+04
 0.41153004E+02  0.88368E+04
 0.41203003E+02  0.89753E+04
 0.41253002E+02  0.84238E+04
 0.41303005E+02  0.10100E+05
 0.41353004E+02  0.84039E+04
 0.41403004E+02  0.81468E+04
 0.41453003E+02  0.74473E+04
 0.41503002E+02  0.76908E+04
 0.41553005E+02  0.85948E+04
 0.41603004E+02  0.88580E+04
 0.41653004E+02  0.12505E+05
 0.41703003E+02  0.12365E+05
 0.41753002E+02  0.11055E+05
 0.41803005E+02  0.10586E+05
 0.41853004E+02  0.91364E+04
 0.41903004E+02  0.11280E+05
 0.41953003E+02  0.13471E+05
 0.42003002E+02  0.12565E+05
 0.42053005E+02  0.10178E+05
 0.42103004E+02  0.85502E+04
 0.42153004E+02  0.73060E+04
 0.42203003E+02  0.74716E+04
 0.42253002E+02  0.82897E+04
 0.42303005E+02  0.10518E+05
 0.42353004E+02  0.12654E+05
 0.42403004E+02  0.11153E+05
 0.42453003E+02  0.95793E+04
 0.42503002E+02  0.68294E+04
 0.42553005E+02  0.93136E+04
 0.42603004E+02  0.10131E+05
 0.42653004E+02  0.10328E+05
 0.42703003E+02  0.12516E+05
 0.42753002E+02  0.13062E+05
 0.42803001E+02  0.16003E+05
 0.42853004E+02  0.15261E+05
 0.42903004E+02  0.12349E+05
 0.42953003E+02  0.94740E+04
 0.43003002E+02  0.11410E+05
 0.43053001E+02  0.11180E+05
 0.43103004E+02  0.11659E+05
 0.43153004E+02  0.98299E+04
 0.43203003E+02  0.76522E+04
 0.43253002E+02  0.10280E+05
 0.43303001E+02  0.69015E+04
 0.43353004E+02  0.78719E+04
 0.43403004E+02  0.10014E+05
 0.43453003E+02  0.93217E+04
 0.43503002E+02  0.10304E+05
 0.43553001E+02  0.11416E+05
 0.43603004E+02  0.10293E+05
 0.43653004E+02  0.95213E+04
 0.43703003E+02  0.10588E+05
 0.43753002E+02  0.10491E+05
 0.43803001E+02  0.91812E+04
 0.43853004E+02  0.12427E+05
 0.43903004E+02  0.11855E+05
 0.43953003E+02  0.87847E+04
 0.44003002E+02  0.10517E+05
 0.44053001E+02  0.12044E+05
 0.44103004E+02  0.12475E+05
 0.44153004E+02  0.12227E+05
 0.44203003E+02  0.11628E+05
 0.44253002E+02  0.71237E+04
 0.44303001E+02  0.94836E+04
 0.44353004E+02  0.11360E+05
 0.44403004E+02  0.85223E+04
 0.44453003E+02  0.87389E+04
 0.44503002E+02  0.64450E+04
 0.44553001E+02  0.72229E+04
 0.44603004E+02  0.99352E+04
 0.44653004E+02  0.97691E+04
 0.44703003E+02  0.91993E+04
 0.44753002E+02  0.10587E+05
 0.44803001E+02  0.10223E+05
 0.44853004E+02  0.67378E+04
 0.44903004E+02  0.10153E+05
 0.44953003E+02  0.13500E+05
 0.45003002E+02  0.10720E+05
 0.45053001E+02  0.96178E+04
 0.45103004E+02  0.88293E+04
 0.45153004E+02  0.77501E+04
 0.45203003E+02  0.87133E+04
 0.45253002E+02  0.98565E+04
 0.45303001E+02  0.10452E+05
 0.45353004E+02  0.98079E+04
 0.45403004E+02  0.11126E+05
 0.45453003E+02  0.13442E+05
 0.45503002E+02  0.12734E+05
 0.45553001E+02  0.11655E+05
 0.45603004E+02  0.95256E+04
 0.45653004E+02  0.95351E+04
 0.45703003E+02  0.10501E+05
 0.45753002E+02  0.13128E+05
 0.45803001E+02  0.12523E+05
 0.45853004E+02  0.11343E+05
 0.45903004E+02  0.86116E+04
 0.45953003E+02  0.66127E+04
 0.46003002E+02  0.85571E+04
 0.46053001E+02  0.85593E+04
 0.46103004E+02  0.94169E+04
 0.46153004E+02  0.84738E+04
 0.46203003E+02  0.10455E+05
 0.46253002E+02  0.11050E+05
 0.46303001E+02  0.13451E+05
 0.46353004E+02  0.10416E+05
 0.46403004E+02  0.12146E+05
 0.46453003E+02  0.16407E+05
 0.46503002E+02  0.11395E+05
 0.46553001E+02  0.12977E+05
 0.46603004E+02  0.10900E+05
 0.46653004E+02  0.10456E+05
 0.46703003E+02  0.10534E+05
 0.46753002E+02  0.10009E+05
 0.46803001E+02  0.92807E+04
 0.46853004E+02  0.78684E+04
 0.46903004E+02  0.86422E+04
 0.46953003E+02  0.81861E+04
 0.47003002E+02  0.88265E+04
 0.47053001E+02  0.98998E+04
 0.47103004E+02  0.10354E+05
 0.47153004E+02  0.89324E+04
 0.47203003E+02  0.10228E+05
 0.47253002E+02  0.98481E+04
 0.47303001E+02  0.10893E+05
 0.47353004E+02  0.11067E+05
 0.47403004E+02  0.99678E+04
 0.47453003E+02  0.10218E+05
 0.47503002E+02  0.97460E+04
 0.47553001E+02  0.10560E+05
 0.47603004E+02  0.79880E+04
 0.47653004E+02  0.96033E+04
 0.47703003E+02  0.11263E+05
 0.47753002E+02  0.10407E+05
 0.47803001E+02  0.11834E+05
 0.47853004E+02  0.11424E+05
 0.47903004E+02  0.98877E+04
 0.47953003E+02  0.99638E+04
 0.48003002E+02  0.11304E+05
 0.48053001E+02  0.11441E+05
 0.48103004E+02  0.10853E+05
 0.48153004E+02  0.11071E+05
 0.48203003E+02  0.10495E+05
 0.48253002E+02  0.98111E+04
 0.48303001E+02  0.11651E+05
 0.48353004E+02  0.10757E+05
 0.48403004E+02  0.10138E+05
 0.48453003E+02  0.11128E+05
 0.48503002E+02  0.97348E+04
 0.48553001E+02  0.10469E+05
 0.48603004E+02  0.86014E+04
 0.48653004E+02  0.75302E+04
 0.48703003E+02  0.91864E+04
 0.48753002E+02  0.93389E+04
 0.48803001E+02  0.10779E+05
 0.48853004E+02  0.10695E+05
 0.48903004E+02  0.10356E+05
 0.48953003E+02  0.10217E+05
 0.49003002E+02  0.92908E+04
 0.49053001E+02  0.82579E+04
 0.49103004E+02  0.96884E+04
 0.49153004E+02  0.10140E+05
 0.49203003E+02  0.95793E+04
 0.49253002E+02  0.10949E+05
 0.49303001E+02  0.10745E+05
 0.49353004E+02  0.95652E+04
 0.49403004E+02  0.88996E+04
 0.49453003E+02  0.10680E+05
 0.49503002E+02  0.10660E+05
 0.49553001E+02  0.10253E+05
 0.49603004E+02  0.10135E+05
 0.49653004E+02  0.10146E+05
 0.49703003E+02  0.10642E+05
 0.49753002E+02  0.98015E+04
 0.49803001E+02  0.11523E+05
 0.49853004E+02  0.90085E+04
 0.49903004E+02  0.97831E+04
 0.49953003E+02  0.11282E+05
 0.50003002E+02  0.10982E+05
 0.50053001E+02  0.11440E+05
 0.50103004E+02  0.11123E+05
 0.50153004E+02  0.12140E+05
 0.50203003E+02  0.11789E+05
 0.50253002E+02  0.11464E+05
 0.50303001E+02  0.92807E+04
 0.50353004E+02  0.10463E+05
 0.50403004E+02  0.10546E+05
 0.50453003E+02  0.11239E+05
 0.50503002E+02  0.99267E+04
 0.50553001E+02  0.89721E+04
 0.50603004E+02  0.94254E+04
 0.50653004E+02  0.96042E+04
 0.50703003E+02  0.10807E+05
 0.50753002E+02  0.99801E+04
 0.50803001E+02  0.11667E+05
 0.50853004E+02  0.99850E+04
 0.50903004E+02  0.10029E+05
 0.50953003E+02  0.11091E+05
 0.51003002E+02  0.88819E+04
 0.51053001E+02  0.86750E+04
 0.51103004E+02  0.95639E+04
 0.51153004E+02  0.99121E+04
 0.51203003E+02  0.10103E+05
 0.51253002E+02  0.10101E+05
 0.51303001E+02  0.96109E+04
 0.51353004E+02  0.92197E+04
 0.51403004E+02  0.89898E+04
 0.51453003E+02  0.10050E+05
 0.51503002E+02  0.10931E+05
 0.51553001E+02  0.10457E+05
 0.51603004E+02  0.12253E+05
 0.51653004E+02  0.10636E+05
 0.51703003E+02  0.91387E+04
 0.51753002E+02  0.98840E+04
 0.51803001E+02  0.99033E+04
 0.51853004E+02  0.99146E+04
 0.51903004E+02  0.97767E+04
 0.51953003E+02  0.11429E+05
 0.52003002E+02  0.99813E+04
 0.52053001E+02  0.10466E+05
 0.52103004E+02  0.10860E+05
 0.52153004E+02  0.10497E+05
 0.52203003E+02  0.10502E+05
 0.52253002E+02  0.10956E+05
 0.52303001E+02  0.11472E+05
 0.52353004E+02  0.10325E+05
 0.52403004E+02  0.11090E+05
 0.52453003E+02  0.10626E+05
 0.52503002E+02  0.10413E+05
 0.52553001E+02  0.99718E+04
 0.52603004E+02  0.94394E+04
 0.52653004E+02  0.96669E+04
 0.52703003E+02  0.88198E+04
 0.52753002E+02  0.95573E+04
 0.52803001E+02  0.90563E+04
 0.52853004E+02  0.88461E+04
 0.52903004E+02  0.10646E+05
 0.52953003E+02  0.10342E+05
 0.53003002E+02  0.11745E+05
 0.53053001E+02  0.10820E+05
 0.53103004E+02  0.87499E+04
 0.53153004E+02  0.98850E+04
 0.53203003E+02  0.99100E+04
 0.53253002E+02  0.11308E+05
 0.53303001E+02  0.11178E+05
 0.53353004E+02  0.10793E+05
 0.53403004E+02  0.11920E+05
 0.53453003E+02  0.10875E+05
 0.53503002E+02  0.11228E+05
 0.53553001E+02  0.10224E+05
 0.53603004E+02  0.95533E+04
 0.53653004E+02  0.10261E+05
 0.53703003E+02  0.96345E+04
 0.53753002E+02  0.98370E+04
 0.53803001E+02  0.97549E+04
 0.53853004E+02  0.92418E+04
 0.53903004E+02  0.88957E+04
 0.53953003E+02  0.91273E+04
 0.54003002E+02  0.94457E+04
 0.54053001E+02  0.10292E+05
 0.54103004E+02  0.10550E+05
 0.54153004E+02  0.11477E+05
 0.54203003E+02  0.11312E+05
 0.54253002E+02  0.10556E+05
 0.54303001E+02  0.11867E+05
 0.54353004E+02  0.10581E+05
 0.54403004E+02  0.10438E+05
 0.54453003E+02  0.10245E+05
 0.54503002E+02  0.99487E+04
 0.54553001E+02  0.10444E+05
 0.54603004E+02  0.90029E+04
 0.54653004E+02  0.10132E+05
 0.54703003E+02  0.97242E+04
 0.54753002E+02  0.87997E+04
 0.54803001E+02  0.93190E+04
 0.54853004E+02  0.94441E+04
 0.54903004E+02  0.10829E+05
 0.54953003E+02  0.11092E+05
 0.55003002E+02  0.10841E+05
 0.55053001E+02  0.11296E+05
 0.55103004E+02  0.10739E+05
 0.55153004E+02  0.10563E+05
 0.55203003E+02  0.10417E+05
 0.55253002E+02  0.93759E+04
 0.55303001E+02  0.91665E+04
 0.55353004E+02  0.85319E+04
 0.55403004E+02  0.92065E+04
 0.55453003E+02  0.99006E+04
 0.55503002E+02  0.10119E+05
 0.55553001E+02  0.10162E+05
 0.55603004E+02  0.95127E+04
 0.55653004E+02  0.96026E+04
 0.55703003E+02  0.99666E+04
 0.55753002E+02  0.11152E+05
 0.55803001E+02  0.10481E+05
 0.55853001E+02  0.11017E+05
 0.55903004E+02  0.11739E+05
 0.55953003E+02  0.10142E+05
 0.56003002E+02  0.10796E+05
 0.56053001E+02  0.11182E+05
 0.56103001E+02  0.10636E+05
 0.56153004E+02  0.11176E+05
 0.56203003E+02  0.10145E+05
 0.56253002E+02  0.10399E+05
 0.56303001E+02  0.10526E+05
 0.56353001E+02  0.93302E+04
 0.56403004E+02  0.10455E+05
 0.56453003E+02  0.10472E+05
 0.56503002E+02  0.11318E+05
 0.56553001E+02  0.11684E+05
 0.56603001E+02  0.11231E+05
 0.56653004E+02  0.11602E+05
 0.56703003E+02  0.11747E+05
 0.56753002E+02  0.10611E+05
 0.56803001E+02  0.95223E+04
 0.56853001E+02  0.10146E+05
 0.56903004E+02  0.99639E+04
 0.56953003E+02  0.96174E+04
 0.57003002E+02  0.94207E+04
 0.57053001E+02  0.10385E+05
 0.57103001E+02  0.10598E+05
 0.57153004E+02  0.92338E+04
 0.57203003E+02  0.91711E+04
 0.57253002E+02  0.87319E+04
 0.57303001E+02  0.90163E+04
 0.57353001E+02  0.94021E+04
 0.57403004E+02  0.93833E+04
 0.57453003E+02  0.10196E+05
 0.57503002E+02  0.10254E+05
 0.57553001E+02  0.10894E+05
 0.57603001E+02  0.10410E+05
 0.57653004E+02  0.10864E+05
 0.57703003E+02  0.11016E+05
 0.57753002E+02  0.10547E+05
 0.57803001E+02  0.11216E+05
 0.57853001E+02  0.11026E+05
 0.57903004E+02  0.10605E+05
 0.57953003E+02  0.10653E+05
 0.58003002E+02  0.10729E+05
 0.58053001E+02  0.10121E+05
 0.58103001E+02  0.10834E+05
 0.58153004E+02  0.10141E+05
 0.58203003E+02  0.99588E+04
 0.58253002E+02  0.93727E+04
 0.58303001E+02  0.89817E+04
 0.58353001E+02  0.99869E+04
 0.58403004E+02  0.90712E+04
 0.58453003E+02  0.98845E+04
 0.58503002E+02  0.10422E+05
 0.58553001E+02  0.10644E+05
 0.58603001E+02  0.10540E+05
 0.58653004E+02  0.10266E+05
 0.58703003E+02  0.10432E+05
 0.58753002E+02  0.10178E+05
 0.58803001E+02  0.94832E+04
 0.58853001E+02  0.98842E+04
 0.58903004E+02  0.11325E+05
 0.58953003E+02  0.10952E+05
 0.59003002E+02  0.10455E+05
 0.59053001E+02  0.10117E+05
 0.59103001E+02  0.98050E+04
 0.59153004E+02  0.96369E+04
 0.59203003E+02  0.10767E+05
 0.59253002E+02  0.11608E+05
 0.59303001E+02  0.11020E+05
 0.59353001E+02  0.10503E+05
 0.59403004E+02  0.10010E+05
 0.59453003E+02  0.10281E+05
 0.59503002E+02  0.10134E+05
 0.59553001E+02  0.10319E+05
 0.59603001E+02  0.10471E+05
 0.59653004E+02  0.93638E+04
 0.59703003E+02  0.88314E+04
 0.59753002E+02  0.91318E+04
 0.59803001E+02  0.98343E+04
 0.59853001E+02  0.97035E+04
 0.59903004E+02  0.93204E+04
 0.59953003E+02  0.92582E+04
 0.60003002E+02  0.98505E+04
 0.60053001E+02  0.10521E+05
 0.60103001E+02  0.11240E+05
 0.60153004E+02  0.11281E+05
 0.60203003E+02  0.10560E+05
 0.60253002E+02  0.97309E+04
 0.60303001E+02  0.87102E+04
 0.60353001E+02  0.92033E+04
 0.60403004E+02  0.95822E+04
 0.60453003E+02  0.10051E+05
 0.60503002E+02  0.98172E+04
 0.60553001E+02  0.99997E+04
 0.60603001E+02  0.10618E+05
 0.60653004E+02  0.11203E+05
 0.60703003E+02  0.11636E+05
 0.60753002E+02  0.10767E+05
 0.60803001E+02  0.10368E+05
 0.60853001E+02  0.97440E+04
 0.60903004E+02  0.10125E+05
 0.60953003E+02  0.10594E+05
 0.61003002E+02  0.10505E+05
 0.61053001E+02  0.10920E+05
 0.61103001E+02  0.11033E+05
 0.61153004E+02  0.10118E+05
 0.61203003E+02  0.95346E+04
 0.61253002E+02  0.99982E+04
 0.61303001E+02  0.10060E+05
 0.61353001E+02  0.10610E+05
 0.61403004E+02  0.11118E+05
 0.61453003E+02  0.11020E+05
 0.61503002E+02  0.10983E+05
 0.61553001E+02  0.10633E+05
 0.61603001E+02  0.10943E+05
 0.61653004E+02  0.11275E+05
 0.61703003E+02  0.10681E+05
 0.61753002E+02  0.10410E+05
 0.61803001E+02  0.10278E+05
 0.61853001E+02  0.99667E+04
 0.61903004E+02  0.10325E+05
 0.61953003E+02  0.10012E+05
 0.62003002E+02  0.97960E+04
 0.62053001E+02  0.10433E+05
 0.62103004E+02  0.10142E+05
 0.62153000E+02  0.98494E+04
 0.62203003E+02  0.93430E+04
 0.62252998E+02  0.91695E+04
 0.62303001E+02  0.88884E+04
 0.62353004E+02  0.95370E+04
 0.62403000E+02  0.98433E+04
 0.62453003E+02  0.95813E+04
 0.62502998E+02  0.10258E+05
 0.62553001E+02  0.97256E+04
 0.62603004E+02  0.97195E+04
 0.62653000E+02  0.94522E+04
 0.62703003E+02  0.96398E+04
 0.62752998E+02  0.97845E+04
 0.62803001E+02  0.97119E+04
 0.62853004E+02  0.99720E+04
 0.62903000E+02  0.99173E+04
 0.62953003E+02  0.10698E+05
 0.63002998E+02  0.10672E+05
 0.63053001E+02  0.11045E+05
 0.63103004E+02  0.11860E+05
 0.63153000E+02  0.12042E+05
 0.63203003E+02  0.11533E+05
 0.63252998E+02  0.10973E+05
 0.63303001E+02  0.11208E+05
 0.63353004E+02  0.10726E+05
 0.63403000E+02  0.10519E+05
 0.63453003E+02  0.10598E+05
 0.63502998E+02  0.10356E+05
 0.63553001E+02  0.10152E+05
 0.63603004E+02  0.10223E+05
 0.63653000E+02  0.10163E+05
 0.63703003E+02  0.10394E+05
 0.63752998E+02  0.10211E+05
 0.63803001E+02  0.95290E+04
 0.63853004E+02  0.10497E+05
 0.63903000E+02  0.10630E+05
 0.63953003E+02  0.10495E+05
 0.64002998E+02  0.10778E+05
 0.64053001E+02  0.10483E+05
 0.64103004E+02  0.97738E+04
 0.64153000E+02  0.97678E+04
 0.64203003E+02  0.10009E+05
 0.64252998E+02  0.95948E+04
 0.64303001E+02  0.93347E+04
 0.64353004E+02  0.93337E+04
 0.64403000E+02  0.10004E+05
 0.64453003E+02  0.95691E+04
 0.64502998E+02  0.97436E+04
 0.64553001E+02  0.10499E+05
 0.64603004E+02  0.10612E+05
 0.64653000E+02  0.10632E+05
 0.64703003E+02  0.10479E+05
 0.64752998E+02  0.10280E+05
 0.64803001E+02  0.10106E+05
 0.64853004E+02  0.10253E+05
 0.64903000E+02  0.10584E+05
 0.64953003E+02  0.10482E+05
 0.65002998E+02  0.10325E+05
 0.65053001E+02  0.10561E+05
 0.65103004E+02  0.99296E+04
 0.65153000E+02  0.10374E+05
 0.65203003E+02  0.10694E+05
 0.65252998E+02  0.10607E+05
 0.65303001E+02  0.11016E+05
 0.65353004E+02  0.10670E+05
 0.65403000E+02  0.10216E+05
 0.65453003E+02  0.94302E+04
 0.65502998E+02  0.91594E+04
 0.65553001E+02  0.88803E+04
 0.65603004E+02  0.91673E+04
 0.65653000E+02  0.99564E+04
 0.65703003E+02  0.10271E+05
 0.65752998E+02  0.10919E+05
 0.65803001E+02  0.10447E+05
 0.65853004E+02  0.10250E+05
 0.65903000E+02  0.10036E+05
 0.65953003E+02  0.95783E+04
 0.66002998E+02  0.99906E+04
 0.66053001E+02  0.97481E+04
 0.66103004E+02  0.10004E+05
 0.66153000E+02  0.10031E+05
 0.66203003E+02  0.99070E+04
 0.66252998E+02  0.10242E+05
 0.66303001E+02  0.10534E+05
 0.66353004E+02  0.10773E+05
 0.66403000E+02  0.11007E+05
 0.66453003E+02  0.11258E+05
 0.66502998E+02  0.10821E+05
 0.66553001E+02  0.10293E+05
 0.66603004E+02  0.99701E+04
 0.66653000E+02  0.10135E+05
 0.66703003E+02  0.10453E+05
 0.66752998E+02  0.10581E+05
 0.66803001E+02  0.10678E+05
 0.66853004E+02  0.10704E+05
 0.66903000E+02  0.10544E+05
 0.66953003E+02  0.10530E+05
 0.67002998E+02  0.10577E+05
 0.67053001E+02  0.10471E+05
 0.67103004E+02  0.10569E+05
 0.67153000E+02  0.10606E+05
 0.67203003E+02  0.10191E+05
 0.67252998E+02  0.96229E+04
 0.67303001E+02  0.97819E+04
 0.67353004E+02  0.10116E+05
 0.67403000E+02  0.10043E+05
 0.67453003E+02  0.10472E+05
 0.67502998E+02  0.10582E+05
 0.67553001E+02  0.10291E+05
 0.67603004E+02  0.10358E+05
 0.67653000E+02  0.98334E+04
 0.67703003E+02  0.98951E+04
 0.67752998E+02  0.10281E+05
 0.67803001E+02  0.10106E+05
 0.67853004E+02  0.99996E+04
 0.67903000E+02  0.98034E+04
 0.67953003E+02  0.97357E+04
 0.68002998E+02  0.97897E+04
 0.68053001E+02  0.10020E+05
 0.68103004E+02  0.10155E+05
 0.68153000E+02  0.98292E+04
 0.68203003E+02  0.94548E+04
 0.68252998E+02  0.96303E+04
 0.68303001E+02  0.10325E+05
 0.68353004E+02  0.10658E+05
 0.68403000E+02  0.10754E+05
 0.68453003E+02  0.11099E+05
 0.68502998E+02  0.11006E+05
 0.68553001E+02  0.10934E+05
 0.68603004E+02  0.11060E+05
 0.68653000E+02  0.10754E+05
 0.68703003E+02  0.10387E+05
 0.68752998E+02  0.10311E+05
 0.68803001E+02  0.10231E+05
 0.68853004E+02  0.10024E+05
 0.68903000E+02  0.99386E+04
 0.68953003E+02  0.98971E+04
 0.69002998E+02  0.10119E+05
 0.69053001E+02  0.10042E+05
 0.69103004E+02  0.98787E+04
 0.69153000E+02  0.97536E+04
 0.69203003E+02  0.94444E+04
 0.69252998E+02  0.95741E+04
 0.69303001E+02  0.10082E+05
 0.69353004E+02  0.10162E+05
 0.69403000E+02  0.99183E+04
 0.69453003E+02  0.10229E+05
 0.69502998E+02  0.10298E+05
 0.69553001E+02  0.10005E+05
 0.69603004E+02  0.10189E+05
 0.69653000E+02  0.10349E+05
 0.69703003E+02  0.10394E+05
 0.69752998E+02  0.10563E+05
 0.69803001E+02  0.10483E+05
 0.69853004E+02  0.10258E+05
 0.69903000E+02  0.10361E+05
 0.69953003E+02  0.10236E+05
 0.70002998E+02  0.10514E+05
 0.70053001E+02  0.10884E+05
 0.70103004E+02  0.10817E+05
 0.70153000E+02  0.10938E+05
 0.70203003E+02  0.10611E+05
 0.70252998E+02  0.10585E+05
 0.70303001E+02  0.10484E+05
 0.70353004E+02  0.10362E+05
 0.70403000E+02  0.10155E+05
 0.70453003E+02  0.10074E+05
 0.70502998E+02  0.10307E+05
 0.70553001E+02  0.10347E+05
 0.70603004E+02  0.10580E+05
 0.70653000E+02  0.10370E+05
 0.70703003E+02  0.10215E+05
 0.70752998E+02  0.10028E+05
 0.70803001E+02  0.95522E+04
 0.70853004E+02  0.95545E+04
 0.70903000E+02  0.96889E+04
 0.70953003E+02  0.98295E+04
 0.71002998E+02  0.10221E+05
 0.71053001E+02  0.10689E+05
 0.71103004E+02  0.10587E+05
 0.71153000E+02  0.10389E+05
 0.71203003E+02  0.10542E+05
 0.71252998E+02  0.10469E+05
 0.71303001E+02  0.10441E+05
 0.71353004E+02  0.10527E+05
 0.71403000E+02  0.10430E+05
 0.71453003E+02  0.10237E+05
 0.71502998E+02  0.10221E+05
 0.71553001E+02  0.10118E+05
 0.71603004E+02  0.99827E+04
 0.71653000E+02  0.10042E+05
 0.71703003E+02  0.10094E+05
 0.71752998E+02  0.10217E+05
 0.71803001E+02  0.10464E+05
 0.71853004E+02  0.10502E+05
 0.71903000E+02  0.10410E+05
 0.71953003E+02  0.10326E+05
 0.72002998E+02  0.10255E+05
 0.72053001E+02  0.10157E+05
 0.72103004E+02  0.10146E+05
 0.72153000E+02  0.10282E+05
 0.72203003E+02  0.10116E+05
 0.72252998E+02  0.99301E+04
 0.72303001E+02  0.99042E+04
 0.72353004E+02  0.97382E+04
 0.72403000E+02  0.99218E+04
 0.72453003E+02  0.10485E+05
 0.72502998E+02  0.10756E+05
 0.72553001E+02  0.10650E+05
 0.72603004E+02  0.10178E+05
 0.72653000E+02  0.97763E+04
 0.72703003E+02  0.95355E+04
 0.72752998E+02  0.93779E+04
 0.72803001E+02  0.94910E+04
 0.72853004E+02  0.98517E+04
 0.72903000E+02  0.10249E+05
 0.72953003E+02  0.10610E+05
 0.73002998E+02  0.10911E+05
 0.73053001E+02  0.10996E+05
 0.73103004E+02  0.11042E+05
 0.73153000E+02  0.10749E+05
 0.73203003E+02  0.10499E+05
 0.73252998E+02  0.99096E+04
 0.73303001E+02  0.96493E+04
 0.73353004E+02  0.10103E+05
 0.73403000E+02  0.10063E+05
 0.73453003E+02  0.10182E+05
 0.73502998E+02  0.10358E+05
 0.73553001E+02  0.10417E+05
 0.73603004E+02  0.10270E+05
 0.73653000E+02  0.99713E+04
 0.73703003E+02  0.10014E+05
 0.73752998E+02  0.10326E+05
 0.73803001E+02  0.10235E+05
 0.73853004E+02  0.10103E+05
 0.73903000E+02  0.10446E+05
 0.73953003E+02  0.10384E+05
 0.74002998E+02  0.10173E+05
 0.74053001E+02  0.10300E+05
 0.74103004E+02  0.10454E+05
 0.74153000E+02  0.10526E+05
 0.74203003E+02  0.10455E+05
 0.74252998E+02  0.10250E+05
 0.74303001E+02  0.10059E+05
 0.74353004E+02  0.99446E+04
 0.74403000E+02  0.99666E+04
 0.74453003E+02  0.10219E+05
 0.74502998E+02  0.10622E+05
 0.74553001E+02  0.10994E+05
 0.74603004E+02  0.11132E+05
 0.74653000E+02  0.10754E+05
 0.74703003E+02  0.10503E+05
 0.74752998E+02  0.10166E+05
 0.74803001E+02  0.98555E+04
 0.74853004E+02  0.97366E+04
 0.74903000E+02  0.97141E+04
 0.74953003E+02  0.10278E+05
 0.75002998E+02  0.10547E+05
 0.75053001E+02  0.10668E+05
 0.75103004E+02  0.10841E+05
 0.75153000E+02  0.10720E+05
 0.75203003E+02  0.10328E+05
 0.75252998E+02  0.97298E+04
 0.75303001E+02  0.96318E+04
 0.75353004E+02  0.97756E+04
 0.75403000E+02  0.99072E+04
 0.75453003E+02  0.10327E+05
 0.75502998E+02  0.10355E+05
 0.75553001E+02  0.10422E+05
 0.75603004E+02  0.10313E+05
 0.75653000E+02  0.96825E+04
 0.75703003E+02  0.94703E+04
 0.75752998E+02  0.95770E+04
 0.75803001E+02  0.96973E+04
 0.75853004E+02  0.97267E+04
 0.75903000E+02  0.98964E+04
 0.75953003E+02  0.97847E+04
 0.76002998E+02  0.98628E+04
 0.76053001E+02  0.10221E+05
 0.76103004E+02  0.10599E+05
 0.76153000E+02  0.10817E+05
 0.76203003E+02  0.10633E+05
 0.76252998E+02  0.10584E+05
 0.76303001E+02  0.10243E+05
 0.76353004E+02  0.10412E+05
 0.76403000E+02  0.10468E+05
 0.76453003E+02  0.10388E+05
 0.76502998E+02  0.10415E+05
 0.76553001E+02  0.10225E+05
 0.76603004E+02  0.10310E+05
 0.76653000E+02  0.10131E+05
 0.76703003E+02  0.10141E+05
 0.76752998E+02  0.10107E+05
 0.76803001E+02  0.10132E+05
 0.76853004E+02  0.10153E+05
 0.76903000E+02  0.99273E+04
 0.76953003E+02  0.98265E+04
 0.77002998E+02  0.94985E+04
 0.77053001E+02  0.96363E+04
 0.77103004E+02  0.10183E+05
 0.77153000E+02  0.10765E+05
 0.77203003E+02  0.10943E+05
 0.77252998E+02  0.10535E+05
 0.77303001E+02  0.10095E+05
 0.77353004E+02  0.99962E+04
 0.77403000E+02  0.99948E+04
 0.77453003E+02  0.99979E+04
 0.77502998E+02  0.10225E+05
 0.77553001E+02  0.10218E+05
 0.77603004E+02  0.10453E+05
 0.77653000E+02  0.10602E+05
 0.77703003E+02  0.10708E+05
 0.77752998E+02  0.10491E+05
 0.77803001E+02  0.10296E+05
 0.77853004E+02  0.10408E+05
 0.77903000E+02  0.10268E+05
 0.77953003E+02  0.10111E+05
 0.78002998E+02  0.10048E+05
 0.78053001E+02  0.10397E+05
 0.78103004E+02  0.10634E+05
 0.78153000E+02  0.10779E+05
 0.78203003E+02  0.10704E+05
 0.78252998E+02  0.10445E+05
 0.78303001E+02  0.10569E+05
 0.78353004E+02  0.11043E+05
 0.78403000E+02  0.11273E+05
 0.78453003E+02  0.10847E+05
 0.78502998E+02  0.10274E+05
 0.78553001E+02  0.98731E+04
 0.78603004E+02  0.96455E+04
 0.78653000E+02  0.97101E+04
 0.78703003E+02  0.97375E+04
 0.78752998E+02  0.10029E+05
 0.78803001E+02  0.10228E+05
 0.78853004E+02  0.10155E+05
 0.78903000E+02  0.10364E+05
 0.78953003E+02  0.10368E+05
 0.79002998E+02  0.10335E+05
 0.79053001E+02  0.10192E+05
 0.79103004E+02  0.10096E+05
 0.79153000E+02  0.99831E+04
 0.79203003E+02  0.10156E+05
 0.79252998E+02  0.10378E+05
 0.79303001E+02  0.10280E+05
 0.79353004E+02  0.10379E+05
 0.79403000E+02  0.99770E+04
 0.79453003E+02  0.97077E+04
 0.79502998E+02  0.97451E+04
 0.79553001E+02  0.97651E+04
 0.79603004E+02  0.99928E+04
 0.79653000E+02  0.10397E+05
 0.79703003E+02  0.10584E+05
 0.79752998E+02  0.10660E+05
 0.79803001E+02  0.10799E+05
 0.79853004E+02  0.10570E+05
 0.79903000E+02  0.10337E+05
 0.79953003E+02  0.10150E+05
 0.80002998E+02  0.10115E+05
 0.80053001E+02  0.10286E+05
 0.80103004E+02  0.10443E+05
 0.80153000E+02  0.10458E+05
 0.80203003E+02  0.10486E+05
 0.80252998E+02  0.10514E+05
 0.80303001E+02  0.10232E+05
 0.80353004E+02  0.10014E+05
 0.80403000E+02  0.10044E+05
 0.80453003E+02  0.10108E+05
 0.80502998E+02  0.10372E+05
 0.80553001E+02  0.10672E+05
 0.80603004E+02  0.10507E+05
 0.80653000E+02  0.99959E+04
 0.80703003E+02  0.96126E+04
 0.80752998E+02  0.93137E+04
 0.80803001E+02  0.93863E+04
 0.80853004E+02  0.97879E+04
 0.80903000E+02  0.10058E+05
 0.80953003E+02  0.10238E+05
 0.81002998E+02  0.10376E+05
 0.81053001E+02  0.10609E+05
 0.81103004E+02  0.10555E+05
 0.81153000E+02  0.10445E+05
 0.81203003E+02  0.10458E+05
 0.81252998E+02  0.10190E+05
 0.81303001E+02  0.98561E+04
 0.81353004E+02  0.96413E+04
 0.81403000E+02  0.98993E+04
 0.81453003E+02  0.10458E+05
 0.81502998E+02  0.10849E+05
 0.81553001E+02  0.11091E+05
 0.81603004E+02  0.10832E+05
 0.81653000E+02  0.10373E+05
 0.81703003E+02  0.10082E+05
 0.81752998E+02  0.98429E+04
 0.81803001E+02  0.10027E+05
 0.81853004E+02  0.10392E+05
 0.81903000E+02  0.10408E+05
 0.81953003E+02  0.10480E+05
 0.82002998E+02  0.10365E+05
 0.82053001E+02  0.10189E+05
 0.82103004E+02  0.10141E+05
 0.82153000E+02  0.97933E+04
 0.82203003E+02  0.99297E+04
 0.82252998E+02  0.10321E+05
 0.82303001E+02  0.10553E+05
 0.82353004E+02  0.10554E+05
 0.82403000E+02  0.10582E+05
 0.82453003E+02  0.10544E+05
 0.82502998E+02  0.10250E+05
 0.82553001E+02  0.10152E+05
 0.82603004E+02  0.10166E+05
 0.82653000E+02  0.10250E+05
 0.82703003E+02  0.10382E+05
 0.82752998E+02  0.10457E+05
 0.82803001E+02  0.10401E+05
 0.82853004E+02  0.10158E+05
 0.82903000E+02  0.99237E+04
 0.82953003E+02  0.10210E+05
 0.83002998E+02  0.10255E+05
 0.83053001E+02  0.10006E+05
 0.83103004E+02  0.10027E+05
 0.83153000E+02  0.99146E+04
 0.83203003E+02  0.97263E+04
 0.83252998E+02  0.98721E+04
 0.83303001E+02  0.99776E+04
 0.83353004E+02  0.10238E+05
 0.83403000E+02  0.10662E+05
 0.83453003E+02  0.10715E+05
 0.83502998E+02  0.10649E+05
 0.83553001E+02  0.10400E+05
 0.83603004E+02  0.10048E+05
 0.83653000E+02  0.98556E+04
 0.83703003E+02  0.97221E+04
 0.83752998E+02  0.97528E+04
 0.83803001E+02  0.99926E+04
 0.83853004E+02  0.10210E+05
 0.83903000E+02  0.10495E+05
 0.83953003E+02  0.10522E+05
 0.84002998E+02  0.10566E+05
 0.84053001E+02  0.10598E+05
 0.84103004E+02  0.10767E+05
 0.84153000E+02  0.10760E+05
 0.84203003E+02  0.10430E+05
 0.84252998E+02  0.10211E+05
 0.84303001E+02  0.10071E+05
 0.84353004E+02  0.10606E+05
 0.84403000E+02  0.11163E+05
 0.84453003E+02  0.11230E+05
 0.84502998E+02  0.10649E+05
 0.84553001E+02  0.10217E+05
 0.84603004E+02  0.10181E+05
 0.84653000E+02  0.99254E+04
 0.84703003E+02  0.99578E+04
 0.84752998E+02  0.10158E+05
 0.84803001E+02  0.10009E+05
 0.84853004E+02  0.98148E+04
 0.84903000E+02  0.97671E+04
 0.84953003E+02  0.97880E+04
 0.85002998E+02  0.99923E+04
 0.85053001E+02  0.10346E+05
 0.85103004E+02  0.10674E+05
 0.85153000E+02  0.10590E+05
 0.85203003E+02  0.10332E+05
 0.85252998E+02  0.10053E+05
 0.85303001E+02  0.98967E+04
 0.85353004E+02  0.97962E+04
 0.85403000E+02  0.99866E+04
 0.85453003E+02  0.10307E+05
 0.85502998E+02  0.10306E+05
 0.85553001E+02  0.10335E+05
 0.85603004E+02  0.10302E+05
 0.85653000E+02  0.10344E+05
 0.85703003E+02  0.10465E+05
 0.85752998E+02  0.10573E+05
 0.85803001E+02  0.10601E+05
 0.85853004E+02  0.10473E+05
 0.85903000E+02  0.10214E+05
 0.85953003E+02  0.99467E+04
 0.86002998E+02  0.99797E+04
 0.86053001E+02  0.10054E+05
 0.86103004E+02  0.10151E+05
 0.86153000E+02  0.10414E+05
 0.86203003E+02  0.10510E+05
 0.86252998E+02  0.10452E+05
 0.86303001E+02  0.10326E+05
 0.86353004E+02  0.10088E+05
 0.86403000E+02  0.98002E+04
 0.86453003E+02  0.97171E+04
 0.86502998E+02  0.96472E+04
 0.86553001E+02  0.96651E+04
 0.86603004E+02  0.97275E+04
 0.86653000E+02  0.96466E+04
 0.86703003E+02  0.97086E+04
 0.86752998E+02  0.97544E+04
 0.86803001E+02  0.10200E+05
 0.86853004E+02  0.10496E+05
 0.86903000E+02  0.10427E+05
 0.86953003E+02  0.10219E+05
 0.87002998E+02  0.10100E+05
 0.87053001E+02  0.10178E+05
 0.87103004E+02  0.10052E+05
 0.87153000E+02  0.10137E+05
 0.87203003E+02  0.10124E+05
 0.87252998E+02  0.10231E+05
 0.87303001E+02  0.10478E+05
 0.87353004E+02  0.10794E+05
 0.87403000E+02  0.10933E+05
 0.87453003E+02  0.10671E+05
 0.87502998E+02  0.10367E+05
 0.87553001E+02  0.10129E+05
 0.87602997E+02  0.10114E+05
 0.87653000E+02  0.10184E+05
 0.87703003E+02  0.10304E+05
 0.87752998E+02  0.10269E+05
 0.87803001E+02  0.10380E+05
 0.87852997E+02  0.10682E+05
 0.87903000E+02  0.10730E+05
 0.87953003E+02  0.10625E+05
 0.88002998E+02  0.10331E+05
 0.88053001E+02  0.10032E+05
 0.88102997E+02  0.99775E+04
 0.88153000E+02  0.10072E+05
 0.88203003E+02  0.10224E+05
 0.88252998E+02  0.10538E+05
 0.88303001E+02  0.10851E+05
 0.88352997E+02  0.10963E+05
 0.88403000E+02  0.10880E+05
 0.88453003E+02  0.10474E+05
 0.88502998E+02  0.10001E+05
 0.88553001E+02  0.96545E+04
 0.88602997E+02  0.96443E+04
 0.88653000E+02  0.98098E+04
 0.88703003E+02  0.10136E+05
 0.88752998E+02  0.10390E+05
 0.88803001E+02  0.10462E+05
 0.88852997E+02  0.10482E+05
 0.88903000E+02  0.10274E+05
 0.88953003E+02  0.10022E+05
 0.89002998E+02  0.98031E+04
 0.89053001E+02  0.98434E+04
 0.89102997E+02  0.10031E+05
 0.89153000E+02  0.10261E+05
 0.89203003E+02  0.10462E+05
 0.89252998E+02  0.10684E+05
 0.89303001E+02  0.10593E+05
 0.89352997E+02  0.10453E+05
 0.89403000E+02  0.10486E+05
 0.89453003E+02  0.10450E+05
 0.89502998E+02  0.10537E+05
 0.89553001E+02  0.10457E+05
 0.89602997E+02  0.10388E+05
 0.89653000E+02  0.10290E+05
 0.89703003E+02  0.10207E+05
 0.89752998E+02  0.10159E+05
 0.89803001E+02  0.10273E+05
 0.89852997E+02  0.10244E+05
 0.89903000E+02  0.10116E+05
 0.89953003E+02  0.10099E+05
 0.90002998E+02  0.10100E+05
 0.90053001E+02  0.10375E+05
 0.90102997E+02  0.10400E+05
 0.90153000E+02  0.10379E+05
 0.90203003E+02  0.10200E+05
 0.90252998E+02  0.10097E+05
 0.90303001E+02  0.10258E+05
 0.90352997E+02  0.10419E+05
 0.90403000E+02  0.10541E+05
 0.90453003E+02  0.10653E+05
 0.90502998E+02  0.10628E+05
 0.90553001E+02  0.10355E+05
 0.90602997E+02  0.10237E+05
 0.90653000E+02  0.10047E+05
 0.90703003E+02  0.10012E+05
 0.90752998E+02  0.10005E+05
 0.90803001E+02  0.99650E+04
 0.90852997E+02  0.10051E+05
 0.90903000E+02  0.10137E+05
 0.90953003E+02  0.10168E+05
 0.91002998E+02  0.99312E+04
 0.91053001E+02  0.97138E+04
 0.91102997E+02  0.95714E+04
 0.91153000E+02  0.95291E+04
 0.91203003E+02  0.98108E+04
 0.91252998E+02  0.10299E+05
 0.91303001E+02  0.10643E+05
 0.91352997E+02  0.10659E+05
 0.91403000E+02  0.10639E+05
 0.91453003E+02  0.10543E+05
 0.91502998E+02  0.10229E+05
 0.91553001E+02  0.10103E+05
 0.91602997E+02  0.10150E+05
 0.91653000E+02  0.10305E+05
 0.91703003E+02  0.10420E+05
 0.91752998E+02  0.10263E+05
 0.91803001E+02  0.10197E+05
 0.91852997E+02  0.10044E+05
 0.91903000E+02  0.99186E+04
 0.91953003E+02  0.98851E+04
 0.92002998E+02  0.98588E+04
 0.92053001E+02  0.10163E+05
 0.92102997E+02  0.10445E+05
 0.92153000E+02  0.10496E+05
 0.92203003E+02  0.10525E+05
 0.92252998E+02  0.10467E+05
 0.92303001E+02  0.10294E+05
 0.92352997E+02  0.10213E+05
 0.92403000E+02  0.10297E+05
 0.92453003E+02  0.10421E+05
 0.92502998E+02  0.10460E+05
 0.92553001E+02  0.10497E+05
 0.92602997E+02  0.10473E+05
 0.92653000E+02  0.10395E+05
 0.92703003E+02  0.10215E+05
 0.92752998E+02  0.10189E+05
 0.92803001E+02  0.10306E+05
 0.92852997E+02  0.10472E+05
 0.92903000E+02  0.10593E+05
 0.92953003E+02  0.10616E+05
 0.93002998E+02  0.10642E+05
 0.93053001E+02  0.10487E+05
 0.93102997E+02  0.10446E+05
 0.93153000E+02  0.10270E+05
 0.93203003E+02  0.10208E+05
 0.93252998E+02  0.10106E+05
 0.93303001E+02  0.98825E+04
 0.93352997E+02  0.99519E+04
 0.93403000E+02  0.99453E+04
 0.93453003E+02  0.10099E+05
 0.93502998E+02  0.10018E+05
 0.93553001E+02  0.98295E+04
 0.93602997E+02  0.98094E+04
 0.93653000E+02  0.97611E+04
 0.93703003E+02  0.99383E+04
 0.93752998E+02  0.10058E+05
 0.93803001E+02  0.10143E+05
 0.93852997E+02  0.10184E+05
 0.93903000E+02  0.10146E+05
 0.93953003E+02  0.10181E+05
 0.94002998E+02  0.10212E+05
 0.94053001E+02  0.10110E+05
 0.94102997E+02  0.10025E+05
 0.94153000E+02  0.99528E+04
 0.94203003E+02  0.99638E+04
 0.94252998E+02  0.10041E+05
 0.94303001E+02  0.10067E+05
 0.94352997E+02  0.10338E+05
 0.94403000E+02  0.10530E+05
 0.94453003E+02  0.10573E+05
 0.94502998E+02  0.10490E+05
 0.94553001E+02  0.10417E+05
 0.94602997E+02  0.10414E+05
 0.94653000E+02  0.10471E+05
 0.94703003E+02  0.10449E+05
 0.94752998E+02  0.10315E+05
 0.94803001E+02  0.10248E+05
 0.94852997E+02  0.10124E+05
 0.94903000E+02  0.10150E+05
 0.94953003E+02  0.10209E+05
 0.95002998E+02  0.10308E+05
 0.95053001E+02  0.10378E+05
 0.95102997E+02  0.10428E+05
 0.95153000E+02  0.10480E+05
 0.95203003E+02  0.10502E+05
 0.95252998E+02  0.10529E+05
 0.95303001E+02  0.10584E+05
 0.95352997E+02  0.10624E+05
 0.95403000E+02  0.10520E+05
 0.95453003E+02  0.10541E+05
 0.95502998E+02  0.10582E+05
 0.95553001E+02  0.10572E+05
 0.95602997E+02  0.10355E+05
 0.95653000E+02  0.10169E+05
 0.95703003E+02  0.10193E+05
 0.95752998E+02  0.10190E+05
 0.95803001E+02  0.10270E+05
 0.95852997E+02  0.10244E+05
 0.95903000E+02  0.10176E+05
 0.95953003E+02  0.10033E+05
 0.96002998E+02  0.98093E+04
 0.96053001E+02  0.96856E+04
 0.96102997E+02  0.96454E+04
 0.96153000E+02  0.97165E+04
 0.96203003E+02  0.99177E+04
 0.96252998E+02  0.10054E+05
 0.96303001E+02  0.10212E+05
 0.96352997E+02  0.10280E+05
 0.96403000E+02  0.10166E+05
 0.96453003E+02  0.10110E+05
 0.96502998E+02  0.10192E+05
 0.96553001E+02  0.10310E+05
 0.96602997E+02  0.10350E+05
 0.96653000E+02  0.10293E+05
 0.96703003E+02  0.10251E+05
 0.96752998E+02  0.10304E+05
 0.96803001E+02  0.10254E+05
 0.96852997E+02  0.10264E+05
 0.96903000E+02  0.10223E+05
 0.96953003E+02  0.10207E+05
 0.97002998E+02  0.10160E+05
 0.97053001E+02  0.10164E+05
 0.97102997E+02  0.10240E+05
 0.97153000E+02  0.10404E+05
 0.97203003E+02  0.10616E+05
 0.97252998E+02  0.10473E+05
 0.97303001E+02  0.10453E+05
 0.97352997E+02  0.10376E+05
 0.97403000E+02  0.10348E+05
 0.97453003E+02  0.10403E+05
 0.97502998E+02  0.10306E+05
 0.97553001E+02  0.10191E+05
 0.97602997E+02  0.10023E+05
 0.97653000E+02  0.98573E+04
 0.97703003E+02  0.98134E+04
 0.97752998E+02  0.99881E+04
 0.97803001E+02  0.10092E+05
 0.97852997E+02  0.10275E+05
 0.97903000E+02  0.10353E+05
 0.97953003E+02  0.10333E+05
 0.98002998E+02  0.10400E+05
