-0.20000000E+01 -0.26103E+05
-0.19500000E+01 -0.22907E+05
-0.19000000E+01 -0.19470E+05
-0.18500000E+01 -0.16182E+05
-0.18000000E+01 -0.13093E+05
-0.17500000E+01 -0.10223E+05
-0.17000000E+01 -0.73302E+04
-0.16500001E+01 -0.43383E+04
-0.16000000E+01 -0.13771E+04
-0.15500000E+01  0.14329E+04
-0.15000000E+01  0.39695E+04
-0.14500000E+01  0.61817E+04
-0.14000001E+01  0.81960E+04
-0.13500000E+01  0.10152E+05
-0.13000001E+01  0.12076E+05
-0.12500000E+01  0.13895E+05
-0.12000000E+01  0.15499E+05
-0.11500001E+01  0.16753E+05
-0.11000000E+01  0.17577E+05
-0.10500001E+01  0.17974E+05
-0.10000000E+01  0.18008E+05
-0.95000005E+00  0.17785E+05
-0.90000010E+00  0.17332E+05
-0.85000002E+00  0.16511E+05
-0.80000007E+00  0.15249E+05
-0.75000012E+00  0.13768E+05
-0.70000005E+00  0.12112E+05
-0.65000010E+00  0.10216E+05
-0.60000014E+00  0.81270E+04
-0.55000007E+00  0.58658E+04
-0.50000012E+00  0.33592E+04
-0.45000005E+00  0.71328E+03
-0.40000010E+00 -0.17426E+04
-0.35000014E+00 -0.37987E+04
-0.30000007E+00 -0.53303E+04
-0.25000012E+00 -0.63215E+04
-0.20000005E+00 -0.68143E+04
-0.15000010E+00 -0.67712E+04
-0.10000014E+00 -0.59620E+04
-0.50000072E-01 -0.42935E+04
-0.11920929E-06 -0.19096E+04
 0.49999952E-01  0.97285E+03
 0.99999905E-01  0.39583E+04
 0.14999986E+00  0.67988E+04
 0.19999981E+00  0.94036E+04
 0.24999976E+00  0.11607E+05
 0.29999995E+00  0.13395E+05
 0.34999990E+00  0.14761E+05
 0.39999986E+00  0.15687E+05
 0.44999981E+00  0.16197E+05
 0.49999976E+00  0.16286E+05
 0.54999995E+00  0.15878E+05
 0.59999990E+00  0.14800E+05
 0.64999986E+00  0.13021E+05
 0.69999981E+00  0.10627E+05
 0.74999976E+00  0.77261E+04
 0.79999971E+00  0.43974E+04
 0.84999990E+00  0.84503E+03
 0.89999986E+00 -0.27594E+04
 0.94999981E+00 -0.63148E+04
 0.99999976E+00 -0.97225E+04
 0.10499997E+01 -0.13125E+05
 0.10999999E+01 -0.16580E+05
 0.11499999E+01 -0.19916E+05
 0.11999998E+01 -0.22810E+05
 0.12499998E+01 -0.24953E+05
 0.12999997E+01 -0.26197E+05
 0.13499999E+01 -0.26662E+05
 0.13999999E+01 -0.26527E+05
 0.14499998E+01 -0.25814E+05
 0.14999998E+01 -0.24655E+05
 0.15499997E+01 -0.23281E+05
 0.15999999E+01 -0.21827E+05
 0.16499999E+01 -0.20362E+05
 0.16999998E+01 -0.18893E+05
 0.17499998E+01 -0.17321E+05
 0.17999997E+01 -0.15715E+05
 0.18499997E+01 -0.14104E+05
 0.18999999E+01 -0.12543E+05
 0.19499998E+01 -0.11159E+05
 0.19999998E+01 -0.10005E+05
 0.20499997E+01 -0.90814E+04
 0.20999999E+01 -0.82745E+04
 0.21499996E+01 -0.74436E+04
 0.21999998E+01 -0.63976E+04
 0.22499995E+01 -0.50237E+04
 0.22999997E+01 -0.32947E+04
 0.23499999E+01 -0.11716E+04
 0.23999996E+01  0.14446E+04
 0.24499998E+01  0.44133E+04
 0.24999995E+01  0.73305E+04
 0.25499997E+01  0.99441E+04
 0.25999999E+01  0.12255E+05
 0.26499996E+01  0.14403E+05
 0.26999998E+01  0.16526E+05
 0.27499995E+01  0.18661E+05
 0.27999997E+01  0.20750E+05
 0.28499999E+01  0.22742E+05
 0.28999996E+01  0.24561E+05
 0.29499998E+01  0.25932E+05
 0.29999995E+01  0.26646E+05
 0.30499997E+01  0.26724E+05
 0.30999999E+01  0.26235E+05
 0.31499996E+01  0.25282E+05
 0.31999998E+01  0.24092E+05
 0.32499995E+01  0.22739E+05
 0.32999997E+01  0.21081E+05
 0.33499999E+01  0.18989E+05
 0.33999996E+01  0.16614E+05
 0.34499998E+01  0.14234E+05
 0.34999995E+01  0.11813E+05
 0.35499997E+01  0.91259E+04
 0.35999994E+01  0.62474E+04
 0.36499996E+01  0.35672E+04
 0.36999998E+01  0.12265E+04
 0.37499995E+01 -0.84697E+03
 0.37999997E+01 -0.27731E+04
 0.38499994E+01 -0.45798E+04
 0.38999996E+01 -0.62648E+04
 0.39499998E+01 -0.77308E+04
 0.39999995E+01 -0.89632E+04
 0.40499997E+01 -0.10095E+05
 0.40999994E+01 -0.11251E+05
 0.41499996E+01 -0.12536E+05
 0.41999998E+01 -0.13879E+05
 0.42499995E+01 -0.15158E+05
 0.42999997E+01 -0.16359E+05
 0.43499994E+01 -0.17689E+05
 0.43999996E+01 -0.19229E+05
 0.44499998E+01 -0.20768E+05
 0.44999995E+01 -0.22151E+05
 0.45499997E+01 -0.23384E+05
 0.45999994E+01 -0.24380E+05
 0.46499996E+01 -0.25002E+05
 0.46999998E+01 -0.25289E+05
 0.47499995E+01 -0.25256E+05
 0.47999997E+01 -0.24933E+05
 0.48499994E+01 -0.24361E+05
 0.48999996E+01 -0.23283E+05
 0.49499998E+01 -0.21476E+05
 0.49999995E+01 -0.19010E+05
 0.50499997E+01 -0.15987E+05
 0.50999994E+01 -0.12414E+05
 0.51499996E+01 -0.84998E+04
 0.51999998E+01 -0.44677E+04
 0.52499995E+01 -0.24613E+03
 0.52999997E+01  0.39451E+04
 0.53499994E+01  0.79068E+04
 0.53999996E+01  0.11646E+05
 0.54499993E+01  0.15074E+05
 0.54999995E+01  0.18184E+05
 0.55499997E+01  0.20918E+05
 0.55999994E+01  0.22984E+05
 0.56499996E+01  0.24297E+05
 0.56999993E+01  0.25114E+05
 0.57499995E+01  0.25422E+05
 0.57999997E+01  0.25102E+05
 0.58499994E+01  0.24164E+05
 0.58999996E+01  0.22761E+05
 0.59499993E+01  0.21018E+05
 0.59999995E+01  0.19073E+05
 0.60499992E+01  0.16871E+05
 0.60999994E+01  0.14199E+05
 0.61499996E+01  0.11213E+05
 0.61999998E+01  0.80935E+04
 0.62499990E+01  0.50022E+04
 0.62999992E+01  0.18298E+04
 0.63499994E+01 -0.14701E+04
 0.63999996E+01 -0.48122E+04
 0.64499998E+01 -0.81298E+04
 0.64999990E+01 -0.11238E+05
 0.65499992E+01 -0.14162E+05
 0.65999994E+01 -0.16853E+05
 0.66499996E+01 -0.19092E+05
 0.66999998E+01 -0.20782E+05
 0.67499990E+01 -0.22136E+05
 0.67999992E+01 -0.23358E+05
 0.68499994E+01 -0.24447E+05
 0.68999996E+01 -0.25173E+05
 0.69499998E+01 -0.25241E+05
 0.69999990E+01 -0.24523E+05
 0.70499992E+01 -0.23130E+05
 0.70999994E+01 -0.21272E+05
 0.71499996E+01 -0.19041E+05
 0.71999998E+01 -0.16479E+05
 0.72499990E+01 -0.13743E+05
 0.72999992E+01 -0.10932E+05
 0.73499994E+01 -0.81504E+04
 0.73999996E+01 -0.53998E+04
 0.74499998E+01 -0.27028E+04
 0.74999990E+01 -0.16952E+03
 0.75499992E+01  0.22331E+04
 0.75999994E+01  0.44129E+04
 0.76499996E+01  0.62131E+04
 0.76999998E+01  0.74128E+04
 0.77499990E+01  0.81368E+04
 0.77999992E+01  0.87306E+04
 0.78499994E+01  0.92722E+04
 0.78999996E+01  0.96913E+04
 0.79499998E+01  0.99051E+04
 0.79999990E+01  0.99191E+04
 0.80499992E+01  0.97126E+04
 0.80999994E+01  0.93537E+04
 0.81499996E+01  0.88405E+04
 0.81999998E+01  0.82186E+04
 0.82499990E+01  0.75133E+04
 0.82999992E+01  0.67001E+04
 0.83499994E+01  0.57728E+04
 0.83999996E+01  0.46508E+04
 0.84499998E+01  0.35144E+04
 0.84999990E+01  0.24547E+04
 0.85499992E+01  0.15083E+04
 0.85999994E+01  0.60720E+03
 0.86499996E+01 -0.25937E+03
 0.86999998E+01 -0.90750E+03
 0.87499990E+01 -0.11993E+04
 0.87999992E+01 -0.10680E+04
 0.88499994E+01 -0.59862E+03
 0.88999996E+01  0.94389E+02
 0.89499998E+01  0.98837E+03
 0.89999990E+01  0.21554E+04
 0.90499992E+01  0.35286E+04
 0.90999994E+01  0.48740E+04
 0.91499996E+01  0.60193E+04
 0.91999989E+01  0.69737E+04
 0.92499990E+01  0.76420E+04
 0.92999992E+01  0.80427E+04
 0.93499994E+01  0.82024E+04
 0.93999996E+01  0.80993E+04
 0.94499989E+01  0.77749E+04
 0.94999990E+01  0.72961E+04
 0.95499992E+01  0.65978E+04
 0.95999994E+01  0.55365E+04
 0.96499996E+01  0.42886E+04
 0.96999989E+01  0.29693E+04
 0.97499990E+01  0.16400E+04
 0.97999992E+01  0.21948E+03
 0.98499994E+01 -0.13575E+04
 0.98999996E+01 -0.30035E+04
 0.99499989E+01 -0.46984E+04
 0.99999990E+01 -0.63382E+04
 0.10049999E+02 -0.78601E+04
 0.10099999E+02 -0.93268E+04
 0.10150000E+02 -0.10702E+05
 0.10199999E+02 -0.11791E+05
 0.10249999E+02 -0.12433E+05
 0.10299999E+02 -0.12611E+05
 0.10349999E+02 -0.12493E+05
 0.10400000E+02 -0.12233E+05
 0.10449999E+02 -0.11970E+05
 0.10499999E+02 -0.11750E+05
 0.10549999E+02 -0.11469E+05
 0.10599999E+02 -0.11109E+05
 0.10650000E+02 -0.10567E+05
 0.10699999E+02 -0.97970E+04
 0.10749999E+02 -0.87309E+04
 0.10799999E+02 -0.74535E+04
 0.10849999E+02 -0.61831E+04
 0.10900000E+02 -0.49278E+04
 0.10949999E+02 -0.36443E+04
 0.10999999E+02 -0.23683E+04
 0.11049999E+02 -0.12445E+04
 0.11099999E+02 -0.30178E+03
 0.11150000E+02  0.48619E+03
 0.11199999E+02  0.11687E+04
 0.11249999E+02  0.17441E+04
 0.11299999E+02  0.21042E+04
 0.11349999E+02  0.21570E+04
 0.11400000E+02  0.18904E+04
 0.11449999E+02  0.12090E+04
 0.11499999E+02  0.15949E+03
 0.11549999E+02 -0.97428E+03
 0.11599999E+02 -0.21427E+04
 0.11650000E+02 -0.32548E+04
 0.11699999E+02 -0.41564E+04
 0.11749999E+02 -0.47759E+04
 0.11799999E+02 -0.51687E+04
 0.11849999E+02 -0.53816E+04
 0.11900000E+02 -0.54893E+04
 0.11949999E+02 -0.55819E+04
 0.11999999E+02 -0.56579E+04
 0.12049999E+02 -0.56678E+04
 0.12099999E+02 -0.55374E+04
 0.12150000E+02 -0.54501E+04
 0.12199999E+02 -0.53976E+04
 0.12249999E+02 -0.53614E+04
 0.12299999E+02 -0.53718E+04
 0.12349999E+02 -0.53836E+04
 0.12400000E+02 -0.54701E+04
 0.12449999E+02 -0.56058E+04
 0.12499999E+02 -0.57693E+04
 0.12549999E+02 -0.58610E+04
 0.12599999E+02 -0.59182E+04
 0.12649999E+02 -0.59943E+04
 0.12699999E+02 -0.60370E+04
 0.12749999E+02 -0.61150E+04
 0.12799999E+02 -0.61678E+04
 0.12849999E+02 -0.60920E+04
 0.12899999E+02 -0.59714E+04
 0.12949999E+02 -0.59151E+04
 0.12999999E+02 -0.60131E+04
 0.13049999E+02 -0.62819E+04
 0.13099999E+02 -0.66096E+04
 0.13149999E+02 -0.69964E+04
 0.13199999E+02 -0.74444E+04
 0.13249999E+02 -0.78524E+04
 0.13299999E+02 -0.81119E+04
 0.13349999E+02 -0.82098E+04
 0.13399999E+02 -0.81343E+04
 0.13449999E+02 -0.79223E+04
 0.13499999E+02 -0.74958E+04
 0.13549999E+02 -0.67457E+04
 0.13599999E+02 -0.55350E+04
 0.13649999E+02 -0.38086E+04
 0.13699999E+02 -0.16795E+04
 0.13749999E+02  0.84736E+03
 0.13799999E+02  0.37304E+04
 0.13849999E+02  0.69039E+04
 0.13899999E+02  0.10245E+05
 0.13949999E+02  0.13687E+05
 0.13999999E+02  0.17101E+05
 0.14049999E+02  0.20358E+05
 0.14099998E+02  0.23375E+05
 0.14150000E+02  0.26067E+05
 0.14199999E+02  0.28527E+05
 0.14249998E+02  0.30847E+05
 0.14299999E+02  0.33038E+05
 0.14349998E+02  0.34972E+05
 0.14400000E+02  0.36471E+05
 0.14449999E+02  0.37399E+05
 0.14499998E+02  0.37590E+05
 0.14549999E+02  0.37075E+05
 0.14599998E+02  0.36039E+05
 0.14650000E+02  0.34590E+05
 0.14699999E+02  0.32762E+05
 0.14749998E+02  0.30584E+05
 0.14799999E+02  0.28078E+05
 0.14849998E+02  0.25336E+05
 0.14900000E+02  0.22467E+05
 0.14949999E+02  0.19556E+05
 0.14999998E+02  0.16663E+05
 0.15049999E+02  0.13828E+05
 0.15099998E+02  0.11117E+05
 0.15150000E+02  0.84748E+04
 0.15199999E+02  0.58447E+04
 0.15249998E+02  0.32446E+04
 0.15299999E+02  0.73806E+03
 0.15349998E+02 -0.15698E+04
 0.15400000E+02 -0.33553E+04
 0.15449999E+02 -0.40923E+04
 0.15499998E+02 -0.38576E+04
 0.15549999E+02 -0.36363E+04
 0.15599998E+02 -0.45830E+04
 0.15650000E+02 -0.65327E+04
 0.15699999E+02 -0.82376E+04
 0.15749998E+02 -0.79280E+04
 0.15799999E+02 -0.51810E+04
 0.15849998E+02 -0.22021E+04
 0.15900000E+02 -0.12114E+03
 0.15949999E+02  0.23886E+04
 0.15999998E+02  0.38727E+04
 0.16049999E+02  0.30026E+04
 0.16099998E+02  0.55386E+03
 0.16150000E+02  0.16910E+04
 0.16199999E+02  0.13073E+05
 0.16249998E+02  0.32507E+05
 0.16299999E+02  0.50855E+05
 0.16349998E+02  0.54066E+05
 0.16400000E+02  0.34149E+05
 0.16449999E+02 -0.26519E+04
 0.16499998E+02 -0.34782E+05
 0.16549999E+02 -0.46157E+05
 0.16599998E+02 -0.32602E+05
 0.16650000E+02  0.19042E+05
 0.16699999E+02  0.85150E+05
 0.16749998E+02  0.13314E+06
 0.16799999E+02  0.15335E+06
 0.16849998E+02  0.12934E+06
 0.16900000E+02  0.86168E+05
 0.16949999E+02  0.50342E+05
 0.16999998E+02  0.31317E+05
 0.17049999E+02  0.53227E+05
 0.17099998E+02  0.74372E+05
 0.17150000E+02  0.10375E+06
 0.17199999E+02  0.10584E+06
 0.17249998E+02  0.39050E+05
 0.17299999E+02 -0.64929E+05
 0.17349998E+02 -0.20612E+06
 0.17400000E+02 -0.30916E+06
 0.17449999E+02 -0.33186E+06
 0.17499998E+02 -0.29219E+06
 0.17549999E+02 -0.27179E+06
 0.17599998E+02 -0.22932E+06
 0.17650000E+02 -0.20325E+06
 0.17699999E+02 -0.22016E+06
 0.17749998E+02 -0.16494E+06
 0.17799999E+02 -0.88594E+05
 0.17849998E+02 -0.37958E+05
 0.17900000E+02  0.20935E+05
 0.17949999E+02  0.10119E+06
 0.17999998E+02  0.47526E+05
 0.18049999E+02  0.63640E+05
 0.18099998E+02  0.15833E+06
 0.18150000E+02  0.16691E+06
 0.18199999E+02  0.25354E+06
 0.18249998E+02  0.17299E+06
 0.18299999E+02  0.99444E+05
 0.18349998E+02  0.85894E+05
 0.18400000E+02 -0.17045E+05
 0.18449999E+02 -0.40702E+05
 0.18499998E+02 -0.10364E+06
 0.18549999E+02 -0.12735E+06
 0.18599998E+02 -0.14631E+06
 0.18650000E+02 -0.23530E+06
 0.18699999E+02 -0.39041E+06
 0.18749998E+02 -0.43107E+06
 0.18799999E+02 -0.35256E+06
 0.18849998E+02 -0.34700E+06
 0.18900000E+02 -0.23256E+06
 0.18949999E+02 -0.18569E+06
 0.18999998E+02 -0.19876E+06
 0.19049999E+02 -0.58706E+05
 0.19099998E+02 -0.30990E+05
 0.19150000E+02 -0.11885E+06
 0.19199999E+02 -0.55390E+05
 0.19249998E+02  0.40236E+05
 0.19299999E+02  0.51903E+05
 0.19349998E+02  0.12096E+06
 0.19400000E+02  0.74951E+05
 0.19449999E+02  0.28683E+04
 0.19499998E+02  0.14189E+06
 0.19549999E+02  0.19564E+06
 0.19599998E+02  0.16892E+06
 0.19650000E+02  0.54681E+05
 0.19699999E+02 -0.15194E+06
 0.19749998E+02 -0.29767E+06
 0.19799999E+02 -0.32546E+06
 0.19849998E+02 -0.35192E+06
 0.19900000E+02 -0.33060E+06
 0.19949999E+02 -0.13931E+06
 0.19999998E+02 -0.17792E+06
 0.20049999E+02 -0.29913E+06
 0.20099998E+02 -0.35032E+06
 0.20150000E+02 -0.31852E+06
 0.20199999E+02 -0.21545E+06
 0.20249998E+02 -0.28565E+06
 0.20299999E+02 -0.34452E+06
 0.20349998E+02 -0.24569E+06
 0.20399998E+02 -0.50045E+05
 0.20449999E+02  0.14873E+06
 0.20499998E+02  0.26395E+06
 0.20549999E+02  0.10928E+06
 0.20599998E+02 -0.18408E+06
 0.20649998E+02 -0.25128E+06
 0.20699999E+02 -0.26165E+06
 0.20749998E+02 -0.15181E+06
 0.20799999E+02  0.39214E+05
 0.20849998E+02 -0.81464E+05
 0.20899998E+02 -0.30633E+06
 0.20949999E+02 -0.35301E+06
 0.20999998E+02 -0.33007E+06
 0.21049999E+02 -0.36292E+06
 0.21099998E+02 -0.46385E+06
 0.21149998E+02 -0.45311E+06
 0.21199999E+02 -0.30562E+06
 0.21249998E+02 -0.14912E+06
 0.21299999E+02 -0.16212E+06
 0.21349998E+02 -0.27828E+06
 0.21399998E+02 -0.12941E+06
 0.21449999E+02 -0.97324E+05
 0.21499998E+02 -0.20029E+06
 0.21549999E+02 -0.15938E+06
 0.21599998E+02 -0.17072E+06
 0.21649998E+02 -0.26463E+05
 0.21699999E+02  0.18799E+06
 0.21749998E+02  0.80385E+05
 0.21799999E+02 -0.10132E+06
 0.21849998E+02  0.45060E+05
 0.21899998E+02  0.22893E+06
 0.21949999E+02  0.12648E+06
 0.21999998E+02  0.73777E+05
 0.22049999E+02 -0.11450E+05
 0.22099998E+02 -0.11099E+06
 0.22149998E+02  0.44274E+05
 0.22199999E+02  0.15954E+06
 0.22249998E+02  0.53021E+05
 0.22299999E+02 -0.12821E+06
 0.22349998E+02 -0.31955E+06
 0.22399998E+02 -0.27248E+06
 0.22449999E+02 -0.18978E+06
 0.22499998E+02 -0.27031E+06
 0.22549999E+02 -0.13528E+06
 0.22599998E+02  0.50514E+05
 0.22649998E+02  0.12891E+06
 0.22699999E+02  0.11169E+06
 0.22749998E+02 -0.88182E+05
 0.22799999E+02 -0.23169E+06
 0.22849998E+02 -0.25743E+06
 0.22899998E+02 -0.24314E+06
 0.22949999E+02  0.45161E+05
 0.22999998E+02  0.33616E+06
 0.23049999E+02  0.40224E+06
 0.23099998E+02  0.44138E+06
 0.23149998E+02  0.31970E+06
 0.23199999E+02  0.79186E+05
 0.23249998E+02  0.21104E+06
 0.23299999E+02  0.29597E+06
 0.23349998E+02  0.21537E+06
 0.23399998E+02  0.24368E+06
 0.23449999E+02  0.13666E+06
 0.23499998E+02  0.54532E+04
 0.23549999E+02 -0.32822E+05
 0.23599998E+02 -0.75446E+05
 0.23649998E+02 -0.28297E+06
 0.23699999E+02 -0.35159E+06
 0.23749998E+02 -0.27667E+06
 0.23799999E+02 -0.24341E+06
 0.23849998E+02 -0.18590E+06
 0.23899998E+02 -0.73234E+05
 0.23949999E+02  0.39510E+05
 0.23999998E+02  0.10282E+06
 0.24049999E+02  0.18659E+06
 0.24099998E+02  0.23135E+06
 0.24149998E+02  0.20048E+06
 0.24199999E+02  0.31087E+06
 0.24249998E+02  0.55189E+06
 0.24299999E+02  0.54620E+06
 0.24349998E+02  0.49850E+06
 0.24399998E+02  0.43186E+06
 0.24449999E+02  0.37216E+06
 0.24499998E+02  0.47118E+06
 0.24549999E+02  0.45671E+06
 0.24599998E+02  0.33752E+06
 0.24649998E+02  0.25213E+06
 0.24699999E+02  0.14082E+06
 0.24749998E+02  0.16230E+06
 0.24799999E+02  0.22220E+06
 0.24849998E+02  0.17962E+06
 0.24899998E+02  0.21858E+06
 0.24949999E+02  0.13111E+06
 0.24999998E+02  0.20501E+06
 0.25049999E+02  0.43769E+06
 0.25099998E+02  0.55815E+06
 0.25149998E+02  0.57586E+06
 0.25199999E+02  0.49244E+06
 0.25249998E+02  0.44893E+06
 0.25299999E+02  0.41877E+06
 0.25349998E+02  0.46684E+06
 0.25399998E+02  0.44571E+06
 0.25449999E+02  0.45157E+06
 0.25499998E+02  0.43266E+06
 0.25549999E+02  0.44206E+06
 0.25599998E+02  0.45260E+06
 0.25649998E+02  0.33523E+06
 0.25699999E+02  0.31709E+06
 0.25749998E+02  0.29178E+06
 0.25799999E+02  0.29497E+06
 0.25849998E+02  0.19777E+06
 0.25899998E+02  0.12822E+06
 0.25949999E+02  0.15316E+06
 0.25999998E+02  0.10447E+06
 0.26049999E+02  0.17973E+06
 0.26099998E+02  0.19807E+06
 0.26149998E+02  0.38975E+05
 0.26199999E+02 -0.46501E+05
 0.26249998E+02 -0.10631E+06
 0.26299999E+02 -0.11826E+05
 0.26349998E+02  0.13054E+06
 0.26399998E+02  0.14950E+06
 0.26449999E+02  0.52557E+05
 0.26499998E+02 -0.11706E+06
 0.26549999E+02 -0.72778E+05
 0.26599998E+02  0.89117E+05
 0.26649998E+02  0.20009E+06
 0.26699999E+02  0.40266E+06
 0.26749998E+02  0.60454E+06
 0.26799999E+02  0.67839E+06
 0.26849998E+02  0.62297E+06
 0.26899998E+02  0.50316E+06
 0.26949999E+02  0.36926E+06
 0.26999998E+02  0.20398E+06
 0.27049997E+02  0.26624E+06
 0.27099998E+02  0.48109E+06
 0.27149998E+02  0.59107E+06
 0.27199999E+02  0.43651E+06
 0.27249998E+02  0.86527E+05
 0.27299997E+02 -0.33034E+06
 0.27349998E+02 -0.70600E+06
 0.27399998E+02 -0.84704E+06
 0.27449999E+02 -0.63178E+06
 0.27499998E+02 -0.12568E+06
 0.27549997E+02  0.42590E+06
 0.27599998E+02  0.64882E+06
 0.27649998E+02  0.59698E+06
 0.27699999E+02  0.29611E+06
 0.27749998E+02 -0.31509E+06
 0.27799997E+02 -0.64394E+06
 0.27849998E+02 -0.57595E+06
 0.27899998E+02 -0.30184E+06
 0.27949999E+02 -0.10367E+06
 0.27999998E+02  0.29471E+05
 0.28049997E+02 -0.17786E+05
 0.28099998E+02 -0.27129E+06
 0.28149998E+02 -0.43334E+06
 0.28199999E+02 -0.41156E+06
 0.28249998E+02 -0.36254E+06
 0.28299997E+02 -0.47137E+06
 0.28349998E+02 -0.36747E+06
 0.28399998E+02 -0.32885E+06
 0.28449999E+02 -0.47355E+06
 0.28499998E+02 -0.47788E+06
 0.28549997E+02 -0.17606E+06
 0.28599998E+02  0.34056E+06
 0.28649998E+02  0.82809E+06
 0.28699999E+02  0.70414E+06
 0.28749998E+02 -0.13993E+06
 0.28799997E+02 -0.60515E+06
 0.28849998E+02 -0.57160E+06
 0.28899998E+02 -0.30590E+06
 0.28949999E+02 -0.14195E+06
 0.28999998E+02 -0.97296E+05
 0.29049997E+02  0.31605E+06
 0.29099998E+02  0.15508E+06
 0.29149998E+02 -0.24763E+06
 0.29199999E+02  0.84793E+05
 0.29249998E+02  0.33680E+06
 0.29299997E+02  0.37222E+06
 0.29349998E+02  0.26042E+06
 0.29399998E+02 -0.11604E+06
 0.29449999E+02 -0.49777E+06
 0.29499998E+02 -0.42760E+06
 0.29549997E+02 -0.81387E+06
 0.29599998E+02 -0.13150E+07
 0.29649998E+02 -0.77594E+06
 0.29699999E+02 -0.27449E+06
 0.29749998E+02  0.12021E+06
 0.29799997E+02  0.22728E+06
 0.29849998E+02  0.26314E+06
 0.29899998E+02  0.24681E+05
 0.29949999E+02 -0.20699E+06
 0.29999998E+02  0.10457E+06
 0.30049999E+02  0.49286E+06
 0.30099998E+02  0.77102E+06
 0.30149998E+02  0.75354E+06
 0.30199997E+02  0.84828E+06
 0.30249996E+02  0.71651E+06
 0.30299999E+02  0.35254E+06
 0.30349998E+02 -0.20796E+06
 0.30399998E+02 -0.86309E+06
 0.30449997E+02 -0.11661E+07
 0.30499996E+02 -0.92933E+06
 0.30549999E+02 -0.72166E+06
 0.30599998E+02 -0.61182E+06
 0.30649998E+02 -0.35846E+06
 0.30699997E+02 -0.26208E+06
 0.30749996E+02 -0.10167E+06
 0.30799999E+02  0.68292E+05
 0.30849998E+02  0.55547E+06
 0.30899998E+02  0.10499E+07
 0.30949997E+02  0.93289E+06
 0.30999996E+02  0.64995E+06
 0.31049999E+02  0.17239E+06
 0.31099998E+02 -0.24281E+06
 0.31149998E+02  0.45699E+05
 0.31199997E+02  0.50388E+06
 0.31249996E+02  0.70802E+06
 0.31299999E+02  0.69733E+06
 0.31349998E+02  0.74292E+06
 0.31399998E+02  0.49385E+06
 0.31449997E+02 -0.78691E+05
 0.31499996E+02 -0.44307E+06
 0.31549999E+02 -0.48730E+06
 0.31599998E+02 -0.16522E+06
 0.31649998E+02  0.23215E+06
 0.31699997E+02  0.42195E+06
 0.31749996E+02  0.22205E+06
 0.31799999E+02 -0.92246E+05
 0.31849998E+02 -0.21256E+06
 0.31899998E+02 -0.44807E+06
 0.31949997E+02 -0.92849E+06
 0.31999996E+02 -0.11103E+07
 0.32049999E+02 -0.10859E+07
 0.32099998E+02 -0.98804E+06
 0.32149998E+02 -0.75141E+06
 0.32199997E+02 -0.43130E+06
 0.32249996E+02 -0.12895E+06
 0.32299999E+02  0.24470E+06
 0.32349998E+02  0.38707E+06
 0.32399998E+02 -0.23320E+05
 0.32449997E+02 -0.16421E+06
 0.32499996E+02  0.26554E+06
 0.32549999E+02  0.68298E+06
 0.32599998E+02  0.61381E+06
 0.32649998E+02  0.33329E+06
 0.32699997E+02  0.38711E+06
 0.32749996E+02  0.55549E+06
 0.32799999E+02  0.63293E+06
 0.32849998E+02  0.55250E+06
 0.32899998E+02  0.32606E+06
 0.32949997E+02  0.42529E+06
 0.32999996E+02  0.42307E+06
 0.33049999E+02 -0.49517E+05
 0.33099998E+02 -0.47963E+06
 0.33149998E+02 -0.63605E+06
 0.33199997E+02 -0.81347E+06
 0.33249996E+02 -0.82903E+06
 0.33299999E+02 -0.74615E+06
 0.33349998E+02 -0.75601E+06
 0.33399998E+02 -0.45897E+06
 0.33449997E+02 -0.27925E+06
 0.33499996E+02 -0.17424E+06
 0.33549999E+02  0.74726E+05
 0.33599998E+02  0.44230E+06
 0.33649998E+02  0.85251E+06
 0.33699997E+02  0.10763E+07
 0.33749996E+02  0.13984E+07
 0.33799999E+02  0.16230E+07
 0.33849998E+02  0.14758E+07
 0.33899998E+02  0.11027E+07
 0.33949997E+02  0.75550E+06
 0.33999996E+02  0.52698E+06
 0.34049999E+02  0.32320E+06
 0.34099998E+02  0.51189E+05
 0.34149998E+02 -0.21813E+06
 0.34199997E+02 -0.23692E+06
 0.34249996E+02 -0.31757E+05
 0.34299999E+02  0.31363E+05
 0.34349998E+02 -0.30934E+06
 0.34399998E+02 -0.53407E+06
 0.34449997E+02 -0.50222E+06
 0.34499996E+02 -0.47490E+06
 0.34549999E+02 -0.29500E+06
 0.34599998E+02 -0.12451E+06
 0.34649998E+02  0.92518E+05
 0.34699997E+02  0.43168E+06
 0.34749996E+02  0.68500E+06
 0.34799999E+02  0.60527E+06
 0.34849998E+02  0.33751E+06
 0.34899998E+02  0.27813E+05
 0.34949997E+02 -0.11144E+06
 0.34999996E+02 -0.55761E+05
 0.35049999E+02 -0.18922E+06
 0.35099998E+02 -0.29625E+06
 0.35149998E+02 -0.25236E+06
 0.35199997E+02 -0.16912E+06
 0.35249996E+02  0.50755E+05
 0.35299999E+02  0.32804E+06
 0.35349998E+02  0.25592E+06
 0.35399998E+02  0.10113E+06
 0.35449997E+02  0.15997E+05
 0.35499996E+02 -0.83752E+05
 0.35549999E+02 -0.25279E+05
 0.35599998E+02  0.15258E+06
 0.35649998E+02  0.28195E+06
 0.35699997E+02  0.44332E+06
 0.35749996E+02  0.71913E+06
 0.35799999E+02  0.88186E+06
 0.35849998E+02  0.72633E+06
 0.35899998E+02  0.29735E+06
 0.35949997E+02 -0.17912E+06
 0.35999996E+02 -0.55057E+06
 0.36049999E+02 -0.79158E+06
 0.36099998E+02 -0.98181E+06
 0.36149998E+02 -0.96164E+06
 0.36199997E+02 -0.78030E+06
 0.36249996E+02 -0.48522E+06
 0.36299999E+02 -0.17137E+06
 0.36349998E+02 -0.13681E+06
 0.36399998E+02 -0.12947E+06
 0.36449997E+02 -0.68665E+04
 0.36499996E+02 -0.26144E+05
 0.36549999E+02 -0.10722E+06
 0.36599998E+02 -0.15977E+06
 0.36649998E+02 -0.22723E+05
 0.36699997E+02  0.26741E+06
 0.36749996E+02  0.34910E+06
 0.36799999E+02  0.14177E+06
 0.36849998E+02 -0.12627E+06
 0.36899998E+02 -0.23964E+06
 0.36949997E+02 -0.22096E+06
 0.36999996E+02 -0.26357E+06
 0.37049999E+02 -0.41950E+06
 0.37099998E+02 -0.43775E+06
 0.37149998E+02 -0.34711E+06
 0.37199997E+02 -0.24137E+06
 0.37249996E+02 -0.22881E+06
 0.37299999E+02 -0.27169E+06
 0.37349998E+02 -0.30415E+06
 0.37399998E+02 -0.40738E+06
 0.37449997E+02 -0.42830E+06
 0.37499996E+02 -0.39691E+06
 0.37549999E+02 -0.43055E+06
 0.37599998E+02 -0.49246E+06
 0.37649998E+02 -0.41726E+06
 0.37699997E+02 -0.35066E+06
 0.37749996E+02 -0.46737E+06
 0.37799999E+02 -0.57866E+06
 0.37849998E+02 -0.57066E+06
 0.37899998E+02 -0.44389E+06
 0.37949997E+02 -0.31374E+06
 0.37999996E+02 -0.31521E+06
 0.38049999E+02 -0.39608E+06
 0.38099998E+02 -0.46158E+06
 0.38149998E+02 -0.63088E+06
 0.38199997E+02 -0.90656E+06
 0.38249996E+02 -0.11847E+07
 0.38299999E+02 -0.12982E+07
 0.38349998E+02 -0.12191E+07
 0.38399998E+02 -0.10845E+07
 0.38449997E+02 -0.10255E+07
 0.38499996E+02 -0.11202E+07
 0.38549999E+02 -0.11519E+07
 0.38599998E+02 -0.10962E+07
 0.38649998E+02 -0.96987E+06
 0.38699997E+02 -0.71172E+06
 0.38749996E+02 -0.40739E+06
 0.38799999E+02 -0.13348E+06
 0.38849998E+02 -0.10428E+05
 0.38899998E+02 -0.38323E+05
 0.38949997E+02 -0.23749E+05
 0.38999996E+02  0.34888E+05
 0.39049999E+02  0.42875E+04
 0.39099998E+02 -0.13144E+06
 0.39149998E+02 -0.32036E+06
 0.39199997E+02 -0.35939E+06
 0.39249996E+02 -0.24116E+06
 0.39299999E+02 -0.10841E+06
 0.39349998E+02 -0.55640E+05
 0.39399998E+02 -0.57738E+05
 0.39449997E+02 -0.20312E+05
 0.39499996E+02  0.45015E+05
 0.39549999E+02  0.10132E+06
 0.39599998E+02  0.68536E+05
 0.39649998E+02  0.37587E+04
 0.39699997E+02 -0.21899E+05
 0.39749996E+02 -0.23834E+05
 0.39799999E+02 -0.51888E+05
 0.39849998E+02 -0.58442E+05
 0.39899998E+02 -0.12161E+06
 0.39949997E+02 -0.23143E+06
 0.39999996E+02 -0.22391E+06
 0.40049999E+02 -0.14141E+06
 0.40099998E+02  0.37704E+05
 0.40149998E+02  0.29135E+06
 0.40199997E+02  0.46048E+06
 0.40249996E+02  0.50567E+06
 0.40299999E+02  0.53035E+06
 0.40349998E+02  0.54991E+06
 0.40399998E+02  0.61699E+06
 0.40449997E+02  0.74766E+06
 0.40499996E+02  0.81078E+06
 0.40549999E+02  0.81446E+06
 0.40599998E+02  0.75506E+06
 0.40649998E+02  0.59367E+06
 0.40699997E+02  0.40266E+06
 0.40749996E+02  0.32024E+06
 0.40799999E+02  0.41437E+06
 0.40849998E+02  0.54703E+06
 0.40899998E+02  0.54982E+06
 0.40949997E+02  0.45153E+06
 0.40999996E+02  0.29251E+06
 0.41049999E+02  0.15068E+06
 0.41099998E+02 -0.20113E+05
 0.41149998E+02 -0.23101E+06
 0.41199997E+02 -0.35204E+06
 0.41249996E+02 -0.33704E+06
 0.41299999E+02 -0.29716E+06
 0.41349998E+02 -0.28695E+06
 0.41399998E+02 -0.17871E+06
 0.41449997E+02 -0.14695E+05
 0.41499996E+02  0.13962E+06
 0.41549999E+02  0.13396E+06
 0.41599998E+02  0.56250E+05
 0.41649998E+02 -0.29379E+05
 0.41699997E+02 -0.37474E+05
 0.41749996E+02  0.35402E+05
 0.41799999E+02  0.58343E+05
 0.41849998E+02  0.12572E+06
 0.41899998E+02  0.18783E+06
 0.41949997E+02  0.26916E+06
 0.41999996E+02  0.37795E+06
 0.42049999E+02  0.51363E+06
 0.42099998E+02  0.63946E+06
 0.42149998E+02  0.74952E+06
 0.42199997E+02  0.83048E+06
 0.42249996E+02  0.78528E+06
 0.42299999E+02  0.63775E+06
 0.42349998E+02  0.39090E+06
 0.42399998E+02  0.14142E+06
 0.42449997E+02 -0.28128E+05
 0.42499996E+02 -0.14293E+06
 0.42549999E+02 -0.13418E+06
 0.42599998E+02 -0.17123E+05
 0.42649998E+02  0.70682E+05
 0.42699997E+02  0.10554E+06
 0.42749996E+02  0.97269E+05
 0.42799995E+02  0.28297E+05
 0.42849998E+02 -0.72339E+05
 0.42899998E+02 -0.58818E+05
 0.42949997E+02  0.84958E+05
 0.42999996E+02  0.25527E+06
 0.43049995E+02  0.39620E+06
 0.43099998E+02  0.42184E+06
 0.43149998E+02  0.39132E+06
 0.43199997E+02  0.37276E+06
 0.43249996E+02  0.33886E+06
 0.43299995E+02  0.29880E+06
 0.43349998E+02  0.30523E+06
 0.43399998E+02  0.27879E+06
 0.43449997E+02  0.20358E+06
 0.43499996E+02  0.13835E+06
 0.43549995E+02  0.13289E+06
 0.43599998E+02  0.20276E+06
 0.43649998E+02  0.25621E+06
 0.43699997E+02  0.26177E+06
 0.43749996E+02  0.17432E+06
 0.43799995E+02 -0.31283E+05
 0.43849998E+02 -0.29192E+06
 0.43899998E+02 -0.50018E+06
 0.43949997E+02 -0.57801E+06
 0.43999996E+02 -0.55610E+06
 0.44049995E+02 -0.47795E+06
 0.44099998E+02 -0.33870E+06
 0.44149998E+02 -0.22481E+06
 0.44199997E+02 -0.11139E+06
 0.44249996E+02 -0.22969E+04
 0.44299995E+02  0.37183E+05
 0.44349998E+02  0.37296E+05
 0.44399998E+02  0.19284E+05
 0.44449997E+02  0.60648E+05
 0.44499996E+02  0.19765E+06
 0.44549995E+02  0.33495E+06
 0.44599998E+02  0.41169E+06
 0.44649998E+02  0.48818E+06
 0.44699997E+02  0.49840E+06
 0.44749996E+02  0.44117E+06
 0.44799995E+02  0.34104E+06
 0.44849998E+02  0.24387E+06
 0.44899998E+02  0.21089E+06
 0.44949997E+02  0.18968E+06
 0.44999996E+02  0.15040E+06
 0.45049995E+02  0.95995E+05
 0.45099998E+02  0.19194E+05
 0.45149998E+02 -0.12672E+06
 0.45199997E+02 -0.30639E+06
 0.45249996E+02 -0.46257E+06
 0.45299995E+02 -0.58737E+06
 0.45349998E+02 -0.60841E+06
 0.45399998E+02 -0.48368E+06
 0.45449997E+02 -0.27152E+06
 0.45499996E+02 -0.64842E+05
 0.45549995E+02 -0.86296E+04
 0.45599998E+02 -0.26956E+05
 0.45649998E+02 -0.10113E+05
 0.45699997E+02  0.11459E+05
 0.45749996E+02 -0.15575E+05
 0.45799995E+02 -0.45564E+05
 0.45849998E+02 -0.94128E+05
 0.45899998E+02 -0.17727E+06
 0.45949997E+02 -0.23674E+06
 0.45999996E+02 -0.35204E+06
 0.46049995E+02 -0.44554E+06
 0.46099998E+02 -0.45620E+06
 0.46149998E+02 -0.45235E+06
 0.46199997E+02 -0.45647E+06
 0.46249996E+02 -0.42340E+06
 0.46299995E+02 -0.33163E+06
 0.46349998E+02 -0.22218E+06
 0.46399998E+02 -0.12503E+06
 0.46449997E+02 -0.47828E+05
 0.46499996E+02  0.36998E+05
 0.46549995E+02  0.98351E+05
 0.46599998E+02  0.12391E+06
 0.46649998E+02  0.14859E+06
 0.46699997E+02  0.17091E+06
 0.46749996E+02  0.17307E+06
 0.46799995E+02  0.10979E+06
 0.46849998E+02 -0.17257E+05
 0.46899998E+02 -0.12005E+06
 0.46949997E+02 -0.94811E+05
 0.46999996E+02 -0.41526E+05
 0.47049995E+02 -0.45862E+05
 0.47099998E+02 -0.51741E+05
 0.47149998E+02 -0.37982E+05
 0.47199997E+02 -0.52580E+05
 0.47249996E+02 -0.11900E+06
 0.47299995E+02 -0.19269E+06
 0.47349998E+02 -0.26047E+06
 0.47399998E+02 -0.29720E+06
 0.47449997E+02 -0.30429E+06
 0.47499996E+02 -0.26557E+06
 0.47549995E+02 -0.21289E+06
 0.47599998E+02 -0.18383E+06
 0.47649998E+02 -0.18288E+06
 0.47699997E+02 -0.22681E+06
 0.47749996E+02 -0.24424E+06
 0.47799995E+02 -0.21477E+06
 0.47849998E+02 -0.19640E+06
 0.47899998E+02 -0.18391E+06
 0.47949997E+02 -0.17080E+06
 0.47999996E+02 -0.16732E+06
 0.48049995E+02 -0.14060E+06
 0.48099998E+02 -0.93718E+05
 0.48149998E+02 -0.25674E+05
 0.48199997E+02  0.69711E+05
 0.48249996E+02  0.18817E+06
 0.48299995E+02  0.29640E+06
 0.48349998E+02  0.37317E+06
 0.48399998E+02  0.46541E+06
 0.48449997E+02  0.49285E+06
 0.48499996E+02  0.45187E+06
 0.48549995E+02  0.38287E+06
 0.48599998E+02  0.29851E+06
 0.48649998E+02  0.25675E+06
 0.48699997E+02  0.26587E+06
 0.48749996E+02  0.29275E+06
 0.48799995E+02  0.28496E+06
 0.48849998E+02  0.24173E+06
 0.48899998E+02  0.17172E+06
 0.48949997E+02  0.12018E+06
 0.48999996E+02  0.76368E+05
 0.49049995E+02  0.38278E+05
 0.49099998E+02  0.39777E+05
 0.49149998E+02  0.50763E+05
 0.49199997E+02  0.48430E+05
 0.49249996E+02 -0.35443E+04
 0.49299995E+02 -0.93734E+05
 0.49349998E+02 -0.16481E+06
 0.49399998E+02 -0.17294E+06
 0.49449997E+02 -0.16488E+06
 0.49499996E+02 -0.16325E+06
 0.49549995E+02 -0.12682E+06
 0.49599998E+02 -0.36511E+05
 0.49649998E+02  0.10198E+06
 0.49699997E+02  0.24735E+06
 0.49749996E+02  0.36237E+06
 0.49799995E+02  0.44693E+06
 0.49849998E+02  0.49603E+06
 0.49899998E+02  0.48569E+06
 0.49949997E+02  0.47278E+06
 0.49999996E+02  0.44616E+06
 0.50049995E+02  0.38980E+06
 0.50099998E+02  0.33160E+06
 0.50149998E+02  0.24955E+06
 0.50199997E+02  0.13253E+06
 0.50249996E+02  0.33854E+05
 0.50299995E+02 -0.39028E+05
 0.50349998E+02 -0.90313E+05
 0.50399998E+02 -0.77821E+05
 0.50449997E+02 -0.62822E+05
 0.50499996E+02 -0.76704E+05
 0.50549995E+02 -0.82307E+05
 0.50599998E+02 -0.77649E+05
 0.50649998E+02 -0.77035E+05
 0.50699997E+02 -0.82236E+04
 0.50749996E+02  0.92270E+05
 0.50799995E+02  0.14211E+06
 0.50849998E+02  0.17764E+06
 0.50899998E+02  0.17819E+06
 0.50949997E+02  0.14558E+06
 0.50999996E+02  0.12995E+06
 0.51049995E+02  0.10275E+06
 0.51099998E+02  0.12522E+05
 0.51149998E+02 -0.78792E+05
 0.51199997E+02 -0.15569E+06
 0.51249996E+02 -0.27480E+06
 0.51299995E+02 -0.38440E+06
 0.51349998E+02 -0.45332E+06
 0.51399998E+02 -0.50932E+06
 0.51449997E+02 -0.55505E+06
 0.51499996E+02 -0.59270E+06
 0.51549995E+02 -0.60977E+06
 0.51599998E+02 -0.57581E+06
 0.51649998E+02 -0.48285E+06
 0.51699997E+02 -0.38425E+06
 0.51749996E+02 -0.29274E+06
 0.51799995E+02 -0.20806E+06
 0.51849998E+02 -0.14313E+06
 0.51899998E+02 -0.92671E+05
 0.51949997E+02 -0.66964E+05
 0.51999996E+02 -0.58190E+05
 0.52049995E+02 -0.52071E+05
 0.52099998E+02 -0.69026E+05
 0.52149998E+02 -0.10149E+06
 0.52199997E+02 -0.13067E+06
 0.52249996E+02 -0.18175E+06
 0.52299995E+02 -0.22797E+06
 0.52349998E+02 -0.26362E+06
 0.52399998E+02 -0.29863E+06
 0.52449997E+02 -0.31286E+06
 0.52499996E+02 -0.30125E+06
 0.52549995E+02 -0.25785E+06
 0.52599998E+02 -0.18573E+06
 0.52649998E+02 -0.12505E+06
 0.52699997E+02 -0.90256E+05
 0.52749996E+02 -0.31008E+05
 0.52799995E+02  0.52555E+05
 0.52849998E+02  0.14532E+06
 0.52899998E+02  0.24952E+06
 0.52949997E+02  0.35494E+06
 0.52999996E+02  0.43765E+06
 0.53049995E+02  0.49079E+06
 0.53099998E+02  0.54170E+06
 0.53149998E+02  0.57287E+06
 0.53199997E+02  0.58814E+06
 0.53249996E+02  0.57628E+06
 0.53299995E+02  0.52983E+06
 0.53349998E+02  0.48561E+06
 0.53399998E+02  0.44450E+06
 0.53449997E+02  0.37871E+06
 0.53499996E+02  0.29615E+06
 0.53549995E+02  0.23505E+06
 0.53599998E+02  0.19575E+06
 0.53649998E+02  0.14072E+06
 0.53699997E+02  0.52770E+05
 0.53749996E+02 -0.33142E+05
 0.53799995E+02 -0.10323E+06
 0.53849998E+02 -0.19301E+06
 0.53899998E+02 -0.30367E+06
 0.53949997E+02 -0.40053E+06
 0.53999996E+02 -0.46813E+06
 0.54049995E+02 -0.48593E+06
 0.54099998E+02 -0.47302E+06
 0.54149998E+02 -0.43617E+06
 0.54199997E+02 -0.39178E+06
 0.54249996E+02 -0.35236E+06
 0.54299995E+02 -0.31578E+06
 0.54349998E+02 -0.25884E+06
 0.54399998E+02 -0.15851E+06
 0.54449997E+02 -0.48673E+05
 0.54499996E+02  0.53164E+05
 0.54549995E+02  0.12562E+06
 0.54599998E+02  0.16801E+06
 0.54649998E+02  0.19107E+06
 0.54699997E+02  0.18659E+06
 0.54749996E+02  0.15405E+06
 0.54799995E+02  0.12778E+06
 0.54849998E+02  0.11980E+06
 0.54899998E+02  0.13301E+06
 0.54949997E+02  0.15781E+06
 0.54999996E+02  0.17111E+06
 0.55049995E+02  0.17315E+06
 0.55099998E+02  0.17320E+06
 0.55149998E+02  0.17786E+06
 0.55199997E+02  0.18274E+06
 0.55249996E+02  0.17886E+06
 0.55299995E+02  0.15597E+06
 0.55349998E+02  0.12075E+06
 0.55399998E+02  0.93794E+05
 0.55449997E+02  0.79153E+05
 0.55499996E+02  0.39771E+05
 0.55549995E+02 -0.45106E+05
 0.55599998E+02 -0.13193E+06
 0.55649998E+02 -0.20315E+06
 0.55699997E+02 -0.25958E+06
 0.55749996E+02 -0.29060E+06
 0.55799995E+02 -0.30269E+06
 0.55849995E+02 -0.27119E+06
 0.55899998E+02 -0.22128E+06
 0.55949997E+02 -0.22073E+06
 0.55999996E+02 -0.28757E+06
 0.56049995E+02 -0.35116E+06
 0.56099995E+02 -0.35185E+06
 0.56149998E+02 -0.28984E+06
 0.56199997E+02 -0.20415E+06
 0.56249996E+02 -0.13125E+06
 0.56299995E+02 -0.37628E+05
 0.56349995E+02  0.67740E+05
 0.56399998E+02  0.15672E+06
 0.56449997E+02  0.22651E+06
 0.56499996E+02  0.27512E+06
 0.56549995E+02  0.30861E+06
 0.56599995E+02  0.32927E+06
 0.56649998E+02  0.31166E+06
 0.56699997E+02  0.23168E+06
 0.56749996E+02  0.10891E+06
 0.56799995E+02 -0.20776E+05
 0.56849995E+02 -0.12529E+06
 0.56899998E+02 -0.18649E+06
 0.56949997E+02 -0.21954E+06
 0.56999996E+02 -0.24615E+06
 0.57049995E+02 -0.24535E+06
 0.57099995E+02 -0.22992E+06
 0.57149998E+02 -0.22446E+06
 0.57199997E+02 -0.22254E+06
 0.57249996E+02 -0.21780E+06
 0.57299995E+02 -0.20326E+06
 0.57349995E+02 -0.18538E+06
 0.57399998E+02 -0.17537E+06
 0.57449997E+02 -0.16423E+06
 0.57499996E+02 -0.14153E+06
 0.57549995E+02 -0.13527E+06
 0.57599995E+02 -0.15646E+06
 0.57649998E+02 -0.19222E+06
 0.57699997E+02 -0.22004E+06
 0.57749996E+02 -0.22646E+06
 0.57799995E+02 -0.22090E+06
 0.57849995E+02 -0.20597E+06
 0.57899998E+02 -0.17712E+06
 0.57949997E+02 -0.14204E+06
 0.57999996E+02 -0.10536E+06
 0.58049995E+02 -0.70916E+05
 0.58099995E+02 -0.45157E+05
 0.58149998E+02 -0.20142E+05
 0.58199997E+02  0.11992E+05
 0.58249996E+02  0.51975E+05
 0.58299995E+02  0.82415E+05
 0.58349995E+02  0.95183E+05
 0.58399998E+02  0.10879E+06
 0.58449997E+02  0.12799E+06
 0.58499996E+02  0.14932E+06
 0.58549995E+02  0.18363E+06
 0.58599995E+02  0.21477E+06
 0.58649998E+02  0.22357E+06
 0.58699997E+02  0.20961E+06
 0.58749996E+02  0.16813E+06
 0.58799995E+02  0.95987E+05
 0.58849995E+02  0.82059E+04
 0.58899998E+02 -0.61037E+05
 0.58949997E+02 -0.10604E+06
 0.58999996E+02 -0.13303E+06
 0.59049995E+02 -0.14871E+06
 0.59099995E+02 -0.17021E+06
 0.59149998E+02 -0.19203E+06
 0.59199997E+02 -0.20328E+06
 0.59249996E+02 -0.18884E+06
 0.59299995E+02 -0.13935E+06
 0.59349995E+02 -0.73048E+05
 0.59399998E+02 -0.14918E+05
 0.59449997E+02  0.14440E+05
 0.59499996E+02  0.25496E+05
 0.59549995E+02  0.37854E+05
 0.59599995E+02  0.60372E+05
 0.59649998E+02  0.75081E+05
 0.59699997E+02  0.66137E+05
 0.59749996E+02  0.32602E+05
 0.59799995E+02 -0.24454E+05
 0.59849995E+02 -0.88064E+05
 0.59899998E+02 -0.14888E+06
 0.59949997E+02 -0.18505E+06
 0.59999996E+02 -0.17303E+06
 0.60049995E+02 -0.11207E+06
 0.60099995E+02 -0.44664E+05
 0.60149998E+02  0.11563E+04
 0.60199997E+02  0.45057E+05
 0.60249996E+02  0.95485E+05
 0.60299995E+02  0.13970E+06
 0.60349995E+02  0.17635E+06
 0.60399998E+02  0.20562E+06
 0.60449997E+02  0.23737E+06
 0.60499996E+02  0.29589E+06
 0.60549995E+02  0.36910E+06
 0.60599995E+02  0.43815E+06
 0.60649998E+02  0.47858E+06
 0.60699997E+02  0.49324E+06
 0.60749996E+02  0.49517E+06
 0.60799995E+02  0.48590E+06
 0.60849995E+02  0.47816E+06
 0.60899998E+02  0.45736E+06
 0.60949997E+02  0.42341E+06
 0.60999996E+02  0.37085E+06
 0.61049995E+02  0.29535E+06
 0.61099995E+02  0.20657E+06
 0.61149998E+02  0.10018E+06
 0.61199997E+02 -0.16674E+05
 0.61249996E+02 -0.11536E+06
 0.61299995E+02 -0.17173E+06
 0.61349995E+02 -0.20127E+06
 0.61399998E+02 -0.22328E+06
 0.61449997E+02 -0.24433E+06
 0.61499996E+02 -0.25615E+06
 0.61549995E+02 -0.24806E+06
 0.61599995E+02 -0.21433E+06
 0.61649998E+02 -0.17442E+06
 0.61699997E+02 -0.14906E+06
 0.61749996E+02 -0.11398E+06
 0.61799995E+02 -0.69156E+05
 0.61849995E+02 -0.27306E+05
 0.61899998E+02  0.43157E+03
 0.61949997E+02  0.19008E+05
 0.61999996E+02  0.45323E+05
 0.62049995E+02  0.79629E+05
 0.62099998E+02  0.11708E+06
 0.62149994E+02  0.15268E+06
 0.62199997E+02  0.19518E+06
 0.62249992E+02  0.23150E+06
 0.62299995E+02  0.25448E+06
 0.62349998E+02  0.26456E+06
 0.62399994E+02  0.25437E+06
 0.62449997E+02  0.22473E+06
 0.62499992E+02  0.18595E+06
 0.62549995E+02  0.15251E+06
 0.62599998E+02  0.12782E+06
 0.62649994E+02  0.10009E+06
 0.62699997E+02  0.59803E+05
 0.62749992E+02  0.14175E+05
 0.62799995E+02 -0.22511E+05
 0.62849998E+02 -0.54571E+05
 0.62899994E+02 -0.77209E+05
 0.62949997E+02 -0.85666E+05
 0.62999992E+02 -0.10726E+06
 0.63049995E+02 -0.14580E+06
 0.63099998E+02 -0.18460E+06
 0.63149994E+02 -0.22366E+06
 0.63199997E+02 -0.27409E+06
 0.63249992E+02 -0.31938E+06
 0.63299995E+02 -0.35757E+06
 0.63349998E+02 -0.37344E+06
 0.63399994E+02 -0.35464E+06
 0.63449997E+02 -0.31577E+06
 0.63499992E+02 -0.26503E+06
 0.63549995E+02 -0.21785E+06
 0.63599998E+02 -0.17962E+06
 0.63649994E+02 -0.14870E+06
 0.63699997E+02 -0.11997E+06
 0.63749992E+02 -0.93856E+05
 0.63799995E+02 -0.64347E+05
 0.63849998E+02 -0.33380E+05
 0.63899994E+02 -0.24325E+04
 0.63949997E+02  0.34207E+05
 0.63999992E+02  0.72067E+05
 0.64049995E+02  0.11691E+06
 0.64099998E+02  0.17233E+06
 0.64149994E+02  0.22577E+06
 0.64199997E+02  0.26569E+06
 0.64249992E+02  0.28493E+06
 0.64299995E+02  0.28292E+06
 0.64349998E+02  0.27064E+06
 0.64399994E+02  0.25927E+06
 0.64449997E+02  0.24880E+06
 0.64499992E+02  0.23526E+06
 0.64549995E+02  0.20964E+06
 0.64599998E+02  0.16186E+06
 0.64649994E+02  0.92687E+05
 0.64699997E+02  0.11442E+05
 0.64749992E+02 -0.62642E+05
 0.64799995E+02 -0.11895E+06
 0.64849998E+02 -0.15930E+06
 0.64899994E+02 -0.18959E+06
 0.64949997E+02 -0.20866E+06
 0.64999992E+02 -0.21918E+06
 0.65049995E+02 -0.24355E+06
 0.65099998E+02 -0.28391E+06
 0.65149994E+02 -0.32431E+06
 0.65199997E+02 -0.36875E+06
 0.65249992E+02 -0.41895E+06
 0.65299995E+02 -0.45643E+06
 0.65349998E+02 -0.47238E+06
 0.65399994E+02 -0.46398E+06
 0.65449997E+02 -0.42543E+06
 0.65499992E+02 -0.37306E+06
 0.65549995E+02 -0.32526E+06
 0.65599998E+02 -0.27833E+06
 0.65649994E+02 -0.23572E+06
 0.65699997E+02 -0.18994E+06
 0.65749992E+02 -0.13385E+06
 0.65799995E+02 -0.83948E+05
 0.65849998E+02 -0.47404E+05
 0.65899994E+02 -0.21438E+05
 0.65949997E+02 -0.10570E+05
 0.65999992E+02 -0.16443E+05
 0.66049995E+02 -0.38943E+05
 0.66099998E+02 -0.62951E+05
 0.66149994E+02 -0.68487E+05
 0.66199997E+02 -0.55893E+05
 0.66249992E+02 -0.36186E+05
 0.66299995E+02 -0.19784E+05
 0.66349998E+02  0.60313E+04
 0.66399994E+02  0.42071E+05
 0.66449997E+02  0.78468E+05
 0.66499992E+02  0.10921E+06
 0.66549995E+02  0.13400E+06
 0.66599998E+02  0.16510E+06
 0.66649994E+02  0.19721E+06
 0.66699997E+02  0.22468E+06
 0.66749992E+02  0.24669E+06
 0.66799995E+02  0.26213E+06
 0.66849998E+02  0.28643E+06
 0.66899994E+02  0.31875E+06
 0.66949997E+02  0.35369E+06
 0.66999992E+02  0.39407E+06
 0.67049995E+02  0.43767E+06
 0.67099998E+02  0.46898E+06
 0.67149994E+02  0.47203E+06
 0.67199997E+02  0.45058E+06
 0.67249992E+02  0.41192E+06
 0.67299995E+02  0.36454E+06
 0.67349998E+02  0.30977E+06
 0.67399994E+02  0.25413E+06
 0.67449997E+02  0.19640E+06
 0.67499992E+02  0.12693E+06
 0.67549995E+02  0.42448E+05
 0.67599998E+02 -0.45620E+05
 0.67649994E+02 -0.12481E+06
 0.67699997E+02 -0.20579E+06
 0.67749992E+02 -0.28466E+06
 0.67799995E+02 -0.35026E+06
 0.67849998E+02 -0.40699E+06
 0.67899994E+02 -0.45074E+06
 0.67949997E+02 -0.47557E+06
 0.67999992E+02 -0.47336E+06
 0.68049995E+02 -0.45165E+06
 0.68099998E+02 -0.42266E+06
 0.68149994E+02 -0.38508E+06
 0.68199997E+02 -0.34162E+06
 0.68249992E+02 -0.29288E+06
 0.68299995E+02 -0.23331E+06
 0.68349998E+02 -0.16040E+06
 0.68399994E+02 -0.72367E+05
 0.68449997E+02  0.26510E+05
 0.68499992E+02  0.11766E+06
 0.68549995E+02  0.18916E+06
 0.68599998E+02  0.23441E+06
 0.68649994E+02  0.26366E+06
 0.68699997E+02  0.28994E+06
 0.68749992E+02  0.30719E+06
 0.68799995E+02  0.31445E+06
 0.68849998E+02  0.31692E+06
 0.68899994E+02  0.30922E+06
 0.68949997E+02  0.29450E+06
 0.68999992E+02  0.27742E+06
 0.69049995E+02  0.24663E+06
 0.69099998E+02  0.19946E+06
 0.69149994E+02  0.14266E+06
 0.69199997E+02  0.94692E+05
 0.69249992E+02  0.65575E+05
 0.69299995E+02  0.45110E+05
 0.69349998E+02  0.27055E+05
 0.69399994E+02 -0.16073E+04
 0.69449997E+02 -0.44040E+05
 0.69499992E+02 -0.84032E+05
 0.69549995E+02 -0.11212E+06
 0.69599998E+02 -0.13068E+06
 0.69649994E+02 -0.13436E+06
 0.69699997E+02 -0.12652E+06
 0.69749992E+02 -0.12578E+06
 0.69799995E+02 -0.14196E+06
 0.69849998E+02 -0.16572E+06
 0.69899994E+02 -0.18380E+06
 0.69949997E+02 -0.19300E+06
 0.69999992E+02 -0.19398E+06
 0.70049995E+02 -0.20219E+06
 0.70099998E+02 -0.22064E+06
 0.70149994E+02 -0.23376E+06
 0.70199997E+02 -0.23257E+06
 0.70249992E+02 -0.21950E+06
 0.70299995E+02 -0.19630E+06
 0.70349998E+02 -0.16355E+06
 0.70399994E+02 -0.12640E+06
 0.70449997E+02 -0.97789E+05
 0.70499992E+02 -0.83529E+05
 0.70549995E+02 -0.77757E+05
 0.70599998E+02 -0.70119E+05
 0.70649994E+02 -0.53973E+05
 0.70699997E+02 -0.35971E+05
 0.70749992E+02 -0.14134E+05
 0.70799995E+02  0.57294E+04
 0.70849998E+02  0.16524E+05
 0.70899994E+02  0.16990E+05
 0.70949997E+02  0.11543E+05
 0.70999992E+02  0.61335E+04
 0.71049995E+02  0.26947E+04
 0.71099998E+02  0.46117E+04
 0.71149994E+02  0.83981E+04
 0.71199997E+02  0.16433E+05
 0.71249992E+02  0.15995E+05
 0.71299995E+02  0.43061E+04
 0.71349998E+02 -0.83942E+04
 0.71399994E+02 -0.24110E+05
 0.71449997E+02 -0.49045E+05
 0.71499992E+02 -0.85457E+05
 0.71549995E+02 -0.12243E+06
 0.71599998E+02 -0.15198E+06
 0.71649994E+02 -0.16448E+06
 0.71699997E+02 -0.15084E+06
 0.71749992E+02 -0.10760E+06
 0.71799995E+02 -0.53746E+05
 0.71849998E+02 -0.10626E+05
 0.71899994E+02  0.17545E+05
 0.71949997E+02  0.35884E+05
 0.71999992E+02  0.50359E+05
 0.72049995E+02  0.58432E+05
 0.72099998E+02  0.69165E+05
 0.72149994E+02  0.83329E+05
 0.72199997E+02  0.98966E+05
 0.72249992E+02  0.12012E+06
 0.72299995E+02  0.14311E+06
 0.72349998E+02  0.16002E+06
 0.72399994E+02  0.16381E+06
 0.72449997E+02  0.14847E+06
 0.72499992E+02  0.11989E+06
 0.72549995E+02  0.99087E+05
 0.72599998E+02  0.83699E+05
 0.72649994E+02  0.70068E+05
 0.72699997E+02  0.62492E+05
 0.72749992E+02  0.55140E+05
 0.72799995E+02  0.52379E+05
 0.72849998E+02  0.49143E+05
 0.72899994E+02  0.37923E+05
 0.72949997E+02  0.26313E+05
 0.72999992E+02  0.24813E+05
 0.73049995E+02  0.41838E+05
 0.73099998E+02  0.70147E+05
 0.73149994E+02  0.96648E+05
 0.73199997E+02  0.11699E+06
 0.73249992E+02  0.12981E+06
 0.73299995E+02  0.12994E+06
 0.73349998E+02  0.12196E+06
 0.73399994E+02  0.11100E+06
 0.73449997E+02  0.10027E+06
 0.73499992E+02  0.10174E+06
 0.73549995E+02  0.11121E+06
 0.73599998E+02  0.11444E+06
 0.73649994E+02  0.10577E+06
 0.73699997E+02  0.87473E+05
 0.73749992E+02  0.66990E+05
 0.73799995E+02  0.53812E+05
 0.73849998E+02  0.51024E+05
 0.73899994E+02  0.49763E+05
 0.73949997E+02  0.39739E+05
 0.73999992E+02  0.21991E+05
 0.74049995E+02  0.39298E+04
 0.74099998E+02 -0.33701E+04
 0.74149994E+02  0.44239E+04
 0.74199997E+02  0.16490E+05
 0.74249992E+02  0.26647E+05
 0.74299995E+02  0.36223E+05
 0.74349998E+02  0.42816E+05
 0.74399994E+02  0.34362E+05
 0.74449997E+02  0.13278E+05
 0.74499992E+02 -0.58901E+04
 0.74549995E+02 -0.16769E+05
 0.74599998E+02 -0.16799E+05
 0.74649994E+02 -0.18680E+05
 0.74699997E+02 -0.30334E+05
 0.74749992E+02 -0.49468E+05
 0.74799995E+02 -0.70957E+05
 0.74849998E+02 -0.94181E+05
 0.74899994E+02 -0.12138E+06
 0.74949997E+02 -0.14853E+06
 0.74999992E+02 -0.17109E+06
 0.75049995E+02 -0.18264E+06
 0.75099998E+02 -0.18203E+06
 0.75149994E+02 -0.17178E+06
 0.75199997E+02 -0.15019E+06
 0.75249992E+02 -0.11569E+06
 0.75299995E+02 -0.73692E+05
 0.75349998E+02 -0.33398E+05
 0.75399994E+02 -0.46351E+04
 0.75449997E+02  0.14595E+05
 0.75499992E+02  0.31479E+05
 0.75549995E+02  0.42716E+05
 0.75599998E+02  0.46890E+05
 0.75649994E+02  0.47483E+05
 0.75699997E+02  0.51151E+05
 0.75749992E+02  0.61112E+05
 0.75799995E+02  0.71738E+05
 0.75849998E+02  0.74043E+05
 0.75899994E+02  0.63772E+05
 0.75949997E+02  0.46614E+05
 0.75999992E+02  0.26363E+05
 0.76049995E+02  0.20618E+04
 0.76099998E+02 -0.25782E+05
 0.76149994E+02 -0.46315E+05
 0.76199997E+02 -0.57477E+05
 0.76249992E+02 -0.71540E+05
 0.76299995E+02 -0.93563E+05
 0.76349998E+02 -0.11714E+06
 0.76399994E+02 -0.13883E+06
 0.76449997E+02 -0.15758E+06
 0.76499992E+02 -0.17675E+06
 0.76549995E+02 -0.19687E+06
 0.76599998E+02 -0.20296E+06
 0.76649994E+02 -0.19335E+06
 0.76699997E+02 -0.17498E+06
 0.76749992E+02 -0.15072E+06
 0.76799995E+02 -0.11762E+06
 0.76849998E+02 -0.84201E+05
 0.76899994E+02 -0.61618E+05
 0.76949997E+02 -0.46343E+05
 0.76999992E+02 -0.34745E+05
 0.77049995E+02 -0.24476E+05
 0.77099998E+02 -0.12767E+05
 0.77149994E+02  0.34401E+04
 0.77199997E+02  0.18785E+05
 0.77249992E+02  0.27472E+05
 0.77299995E+02  0.32651E+05
 0.77349998E+02  0.36666E+05
 0.77399994E+02  0.40708E+05
 0.77449997E+02  0.41755E+05
 0.77499992E+02  0.39554E+05
 0.77549995E+02  0.41654E+05
 0.77599998E+02  0.48139E+05
 0.77649994E+02  0.54543E+05
 0.77699997E+02  0.56589E+05
 0.77749992E+02  0.60372E+05
 0.77799995E+02  0.76070E+05
 0.77849998E+02  0.10046E+06
 0.77899994E+02  0.12628E+06
 0.77949997E+02  0.14600E+06
 0.77999992E+02  0.16317E+06
 0.78049995E+02  0.18244E+06
 0.78099998E+02  0.19584E+06
 0.78149994E+02  0.19252E+06
 0.78199997E+02  0.16963E+06
 0.78249992E+02  0.13571E+06
 0.78299995E+02  0.94329E+05
 0.78349998E+02  0.51602E+05
 0.78399994E+02  0.77172E+04
 0.78449997E+02 -0.41794E+05
 0.78499992E+02 -0.93671E+05
 0.78549995E+02 -0.14437E+06
 0.78599998E+02 -0.18838E+06
 0.78649994E+02 -0.22292E+06
 0.78699997E+02 -0.24678E+06
 0.78749992E+02 -0.25668E+06
 0.78799995E+02 -0.24612E+06
 0.78849998E+02 -0.21835E+06
 0.78899994E+02 -0.18858E+06
 0.78949997E+02 -0.16140E+06
 0.78999992E+02 -0.13429E+06
 0.79049995E+02 -0.10836E+06
 0.79099998E+02 -0.90025E+05
 0.79149994E+02 -0.85389E+05
 0.79199997E+02 -0.89371E+05
 0.79249992E+02 -0.93209E+05
 0.79299995E+02 -0.99122E+05
 0.79349998E+02 -0.11623E+06
 0.79399994E+02 -0.14373E+06
 0.79449997E+02 -0.17200E+06
 0.79499992E+02 -0.19426E+06
 0.79549995E+02 -0.21109E+06
 0.79599998E+02 -0.22558E+06
 0.79649994E+02 -0.23111E+06
 0.79699997E+02 -0.22078E+06
 0.79749992E+02 -0.20208E+06
 0.79799995E+02 -0.18032E+06
 0.79849998E+02 -0.15603E+06
 0.79899994E+02 -0.13385E+06
 0.79949997E+02 -0.11415E+06
 0.79999992E+02 -0.92323E+05
 0.80049995E+02 -0.66844E+05
 0.80099998E+02 -0.39257E+05
 0.80149994E+02 -0.15803E+05
 0.80199997E+02 -0.18426E+04
 0.80249992E+02  0.57475E+04
 0.80299995E+02  0.17144E+05
 0.80349998E+02  0.35458E+05
 0.80399994E+02  0.53044E+05
 0.80449997E+02  0.67044E+05
 0.80499992E+02  0.82146E+05
 0.80549995E+02  0.10283E+06
 0.80599998E+02  0.12487E+06
 0.80649994E+02  0.13985E+06
 0.80699997E+02  0.14656E+06
 0.80749992E+02  0.14985E+06
 0.80799995E+02  0.15095E+06
 0.80849998E+02  0.15335E+06
 0.80899994E+02  0.15914E+06
 0.80949997E+02  0.16882E+06
 0.80999992E+02  0.18031E+06
 0.81049995E+02  0.18433E+06
 0.81099998E+02  0.17606E+06
 0.81149994E+02  0.15540E+06
 0.81199997E+02  0.12723E+06
 0.81249992E+02  0.99247E+05
 0.81299995E+02  0.74060E+05
 0.81349998E+02  0.49783E+05
 0.81399994E+02  0.22237E+05
 0.81449997E+02 -0.10335E+05
 0.81499992E+02 -0.44826E+05
 0.81549995E+02 -0.79485E+05
 0.81599998E+02 -0.10779E+06
 0.81649994E+02 -0.12640E+06
 0.81699997E+02 -0.13425E+06
 0.81749992E+02 -0.12998E+06
 0.81799995E+02 -0.11871E+06
 0.81849998E+02 -0.10252E+06
 0.81899994E+02 -0.83491E+05
 0.81949997E+02 -0.62684E+05
 0.81999992E+02 -0.38058E+05
 0.82049995E+02 -0.11286E+05
 0.82099998E+02  0.13091E+05
 0.82149994E+02  0.28683E+05
 0.82199997E+02  0.33305E+05
 0.82249992E+02  0.30255E+05
 0.82299995E+02  0.19875E+05
 0.82349998E+02  0.72249E+04
 0.82399994E+02 -0.20109E+04
 0.82449997E+02 -0.30597E+04
 0.82499992E+02  0.34938E+04
 0.82549995E+02  0.16012E+05
 0.82599998E+02  0.35263E+05
 0.82649994E+02  0.57099E+05
 0.82699997E+02  0.79253E+05
 0.82749992E+02  0.97991E+05
 0.82799995E+02  0.11443E+06
 0.82849998E+02  0.12859E+06
 0.82899994E+02  0.13731E+06
 0.82949997E+02  0.14116E+06
 0.82999992E+02  0.14869E+06
 0.83049995E+02  0.16826E+06
 0.83099998E+02  0.19764E+06
 0.83149994E+02  0.23102E+06
 0.83199997E+02  0.26187E+06
 0.83249992E+02  0.28307E+06
 0.83299995E+02  0.28979E+06
 0.83349998E+02  0.28641E+06
 0.83399994E+02  0.27753E+06
 0.83449997E+02  0.26360E+06
 0.83499992E+02  0.24309E+06
 0.83549995E+02  0.21617E+06
 0.83599998E+02  0.18548E+06
 0.83649994E+02  0.15241E+06
 0.83699997E+02  0.12295E+06
 0.83749992E+02  0.98275E+05
 0.83799995E+02  0.74788E+05
 0.83849998E+02  0.46972E+05
 0.83899994E+02  0.12370E+05
 0.83949997E+02 -0.26905E+05
 0.83999992E+02 -0.64345E+05
 0.84049995E+02 -0.90955E+05
 0.84099998E+02 -0.10421E+06
 0.84149994E+02 -0.99707E+05
 0.84199997E+02 -0.82601E+05
 0.84249992E+02 -0.59587E+05
 0.84299995E+02 -0.33106E+05
 0.84349998E+02 -0.80782E+04
 0.84399994E+02  0.15644E+05
 0.84449997E+02  0.36708E+05
 0.84499992E+02  0.50517E+05
 0.84549995E+02  0.52302E+05
 0.84599998E+02  0.44914E+05
 0.84649994E+02  0.34964E+05
 0.84699997E+02  0.26813E+05
 0.84749992E+02  0.24390E+05
 0.84799995E+02  0.27456E+05
 0.84849998E+02  0.34625E+05
 0.84899994E+02  0.43606E+05
 0.84949997E+02  0.46377E+05
 0.84999992E+02  0.40882E+05
 0.85049995E+02  0.38833E+05
 0.85099998E+02  0.49290E+05
 0.85149994E+02  0.75632E+05
 0.85199997E+02  0.11058E+06
 0.85249992E+02  0.14228E+06
 0.85299995E+02  0.16516E+06
 0.85349998E+02  0.17389E+06
 0.85399994E+02  0.16759E+06
 0.85449997E+02  0.14935E+06
 0.85499992E+02  0.12536E+06
 0.85549995E+02  0.99742E+05
 0.85599998E+02  0.76746E+05
 0.85649994E+02  0.58394E+05
 0.85699997E+02  0.43473E+05
 0.85749992E+02  0.30172E+05
 0.85799995E+02  0.15203E+05
 0.85849998E+02 -0.62537E+03
 0.85899994E+02 -0.13669E+05
 0.85949997E+02 -0.22574E+05
 0.85999992E+02 -0.31596E+05
 0.86049995E+02 -0.41916E+05
 0.86099998E+02 -0.49419E+05
 0.86149994E+02 -0.54632E+05
 0.86199997E+02 -0.62693E+05
 0.86249992E+02 -0.75652E+05
 0.86299995E+02 -0.91859E+05
 0.86349998E+02 -0.11108E+06
 0.86399994E+02 -0.12617E+06
 0.86449997E+02 -0.13122E+06
 0.86499992E+02 -0.12918E+06
 0.86549995E+02 -0.12415E+06
 0.86599998E+02 -0.11976E+06
 0.86649994E+02 -0.11492E+06
 0.86699997E+02 -0.10772E+06
 0.86749992E+02 -0.95479E+05
 0.86799995E+02 -0.80742E+05
 0.86849998E+02 -0.66570E+05
 0.86899994E+02 -0.53689E+05
 0.86949997E+02 -0.44324E+05
 0.86999992E+02 -0.41740E+05
 0.87049995E+02 -0.51958E+05
 0.87099998E+02 -0.74219E+05
 0.87149994E+02 -0.10072E+06
 0.87199997E+02 -0.12520E+06
 0.87249992E+02 -0.14732E+06
 0.87299995E+02 -0.16588E+06
 0.87349998E+02 -0.18081E+06
 0.87399994E+02 -0.19634E+06
 0.87449997E+02 -0.21453E+06
 0.87499992E+02 -0.23377E+06
 0.87549995E+02 -0.25073E+06
 0.87599991E+02 -0.26254E+06
 0.87649994E+02 -0.26644E+06
 0.87699997E+02 -0.26344E+06
 0.87749992E+02 -0.25448E+06
 0.87799995E+02 -0.23727E+06
 0.87849991E+02 -0.21081E+06
 0.87899994E+02 -0.17907E+06
 0.87949997E+02 -0.14299E+06
 0.87999992E+02 -0.10338E+06
 0.88049995E+02 -0.63270E+05
 0.88099991E+02 -0.24578E+05
 0.88149994E+02  0.90796E+04
 0.88199997E+02  0.37017E+05
 0.88249992E+02  0.60752E+05
 0.88299995E+02  0.85365E+05
 0.88349991E+02  0.10937E+06
 0.88399994E+02  0.12755E+06
 0.88449997E+02  0.13817E+06
 0.88499992E+02  0.13905E+06
 0.88549995E+02  0.13097E+06
 0.88599991E+02  0.11427E+06
 0.88649994E+02  0.91147E+05
 0.88699997E+02  0.65902E+05
 0.88749992E+02  0.39639E+05
 0.88799995E+02  0.12995E+05
 0.88849991E+02 -0.14974E+05
 0.88899994E+02 -0.40731E+05
 0.88949997E+02 -0.60363E+05
 0.88999992E+02 -0.76802E+05
 0.89049995E+02 -0.91826E+05
 0.89099991E+02 -0.10211E+06
 0.89149994E+02 -0.10560E+06
 0.89199997E+02 -0.10697E+06
 0.89249992E+02 -0.10676E+06
 0.89299995E+02 -0.10477E+06
 0.89349991E+02 -0.10200E+06
 0.89399994E+02 -0.96965E+05
 0.89449997E+02 -0.91453E+05
 0.89499992E+02 -0.89670E+05
 0.89549995E+02 -0.91601E+05
 0.89599991E+02 -0.94713E+05
 0.89649994E+02 -0.96905E+05
 0.89699997E+02 -0.96160E+05
 0.89749992E+02 -0.95027E+05
 0.89799995E+02 -0.96329E+05
 0.89849991E+02 -0.98279E+05
 0.89899994E+02 -0.94471E+05
 0.89949997E+02 -0.85190E+05
 0.89999992E+02 -0.75259E+05
 0.90049995E+02 -0.67822E+05
 0.90099991E+02 -0.62517E+05
 0.90149994E+02 -0.55234E+05
 0.90199997E+02 -0.45539E+05
 0.90249992E+02 -0.32715E+05
 0.90299995E+02 -0.17637E+05
 0.90349991E+02 -0.34032E+04
 0.90399994E+02  0.10899E+05
 0.90449997E+02  0.26028E+05
 0.90499992E+02  0.40226E+05
 0.90549995E+02  0.52443E+05
 0.90599991E+02  0.65016E+05
 0.90649994E+02  0.81719E+05
 0.90699997E+02  0.10037E+06
 0.90749992E+02  0.11840E+06
 0.90799995E+02  0.13533E+06
 0.90849991E+02  0.15140E+06
 0.90899994E+02  0.16668E+06
 0.90949997E+02  0.17832E+06
 0.90999992E+02  0.18015E+06
 0.91049995E+02  0.17418E+06
 0.91099991E+02  0.16605E+06
 0.91149994E+02  0.15369E+06
 0.91199997E+02  0.13541E+06
 0.91249992E+02  0.11355E+06
 0.91299995E+02  0.94078E+05
 0.91349991E+02  0.77548E+05
 0.91399994E+02  0.62138E+05
 0.91449997E+02  0.44744E+05
 0.91499992E+02  0.23424E+05
 0.91549995E+02  0.10889E+04
 0.91599991E+02 -0.22007E+05
 0.91649994E+02 -0.48556E+05
 0.91699997E+02 -0.78446E+05
 0.91749992E+02 -0.10752E+06
 0.91799995E+02 -0.13265E+06
 0.91849991E+02 -0.15357E+06
 0.91899994E+02 -0.17041E+06
 0.91949997E+02 -0.18094E+06
 0.91999992E+02 -0.18378E+06
 0.92049995E+02 -0.17740E+06
 0.92099991E+02 -0.15959E+06
 0.92149994E+02 -0.13400E+06
 0.92199997E+02 -0.10565E+06
 0.92249992E+02 -0.76866E+05
 0.92299995E+02 -0.50896E+05
 0.92349991E+02 -0.26242E+05
 0.92399994E+02  0.15631E+04
 0.92449997E+02  0.34445E+05
 0.92499992E+02  0.67743E+05
 0.92549995E+02  0.93986E+05
 0.92599991E+02  0.11352E+06
 0.92649994E+02  0.12929E+06
 0.92699997E+02  0.14011E+06
 0.92749992E+02  0.14636E+06
 0.92799995E+02  0.14814E+06
 0.92849991E+02  0.14458E+06
 0.92899994E+02  0.13774E+06
 0.92949997E+02  0.12957E+06
 0.92999992E+02  0.11938E+06
 0.93049995E+02  0.10542E+06
 0.93099991E+02  0.87203E+05
 0.93149994E+02  0.65441E+05
 0.93199997E+02  0.44001E+05
 0.93249992E+02  0.25828E+05
 0.93299995E+02  0.97165E+04
 0.93349991E+02 -0.46880E+04
 0.93399994E+02 -0.16590E+05
 0.93449997E+02 -0.26028E+05
 0.93499992E+02 -0.32540E+05
 0.93549995E+02 -0.35906E+05
 0.93599991E+02 -0.36146E+05
 0.93649994E+02 -0.33177E+05
 0.93699997E+02 -0.27744E+05
 0.93749992E+02 -0.21973E+05
 0.93799995E+02 -0.14857E+05
 0.93849991E+02 -0.39384E+04
 0.93899994E+02  0.11008E+05
 0.93949997E+02  0.27886E+05
 0.93999992E+02  0.41725E+05
 0.94049995E+02  0.51555E+05
 0.94099991E+02  0.61003E+05
 0.94149994E+02  0.69794E+05
 0.94199997E+02  0.76095E+05
 0.94249992E+02  0.81027E+05
 0.94299995E+02  0.86019E+05
 0.94349991E+02  0.92619E+05
 0.94399994E+02  0.98535E+05
 0.94449997E+02  0.10031E+06
 0.94499992E+02  0.96770E+05
 0.94549995E+02  0.87644E+05
 0.94599991E+02  0.74371E+05
 0.94649994E+02  0.60313E+05
 0.94699997E+02  0.49385E+05
 0.94749992E+02  0.40534E+05
 0.94799995E+02  0.31614E+05
 0.94849991E+02  0.21208E+05
 0.94899994E+02  0.81781E+04
 0.94949997E+02 -0.91662E+04
 0.94999992E+02 -0.30191E+05
 0.95049995E+02 -0.48934E+05
 0.95099991E+02 -0.60567E+05
 0.95149994E+02 -0.64970E+05
 0.95199997E+02 -0.66041E+05
 0.95249992E+02 -0.67226E+05
 0.95299995E+02 -0.69828E+05
 0.95349991E+02 -0.70840E+05
 0.95399994E+02 -0.67798E+05
 0.95449997E+02 -0.62011E+05
 0.95499992E+02 -0.55632E+05
 0.95549995E+02 -0.49281E+05
 0.95599991E+02 -0.44680E+05
 0.95649994E+02 -0.44019E+05
 0.95699997E+02 -0.47662E+05
 0.95749992E+02 -0.57307E+05
 0.95799995E+02 -0.69147E+05
 0.95849991E+02 -0.78981E+05
 0.95899994E+02 -0.84266E+05
 0.95949997E+02 -0.87319E+05
 0.95999992E+02 -0.93622E+05
 0.96049995E+02 -0.10098E+06
 0.96099991E+02 -0.10506E+06
 0.96149994E+02 -0.10331E+06
 0.96199997E+02 -0.98106E+05
 0.96249992E+02 -0.90136E+05
 0.96299995E+02 -0.78904E+05
 0.96349991E+02 -0.64230E+05
 0.96399994E+02 -0.46770E+05
 0.96449997E+02 -0.29315E+05
 0.96499992E+02 -0.12884E+05
 0.96549995E+02  0.53428E+03
 0.96599991E+02  0.52176E+04
 0.96649994E+02 -0.20439E+04
 0.96699997E+02 -0.15594E+05
 0.96749992E+02 -0.29239E+05
 0.96799995E+02 -0.41027E+05
 0.96849991E+02 -0.52751E+05
 0.96899994E+02 -0.67350E+05
 0.96949997E+02 -0.84446E+05
 0.96999992E+02 -0.10172E+06
 0.97049995E+02 -0.11633E+06
 0.97099991E+02 -0.12356E+06
 0.97149994E+02 -0.12149E+06
 0.97199997E+02 -0.11141E+06
 0.97249992E+02 -0.95108E+05
 0.97299995E+02 -0.74017E+05
 0.97349991E+02 -0.50117E+05
 0.97399994E+02 -0.27800E+05
 0.97449997E+02 -0.10073E+05
 0.97499992E+02  0.53845E+04
 0.97549995E+02  0.21428E+05
 0.97599991E+02  0.37708E+05
 0.97649994E+02  0.52592E+05
 0.97699997E+02  0.63423E+05
 0.97749992E+02  0.69052E+05
 0.97799995E+02  0.67664E+05
 0.97849991E+02  0.59396E+05
 0.97899994E+02  0.46270E+05
 0.97949997E+02  0.32065E+05
 0.97999992E+02  0.22093E+05
