-0.20000000E+01 -0.60491E+04
-0.19500000E+01 -0.60390E+04
-0.19000000E+01 -0.60687E+04
-0.18500000E+01 -0.60782E+04
-0.18000000E+01 -0.60757E+04
-0.17500000E+01 -0.60631E+04
-0.17000000E+01 -0.60579E+04
-0.16500001E+01 -0.60330E+04
-0.16000000E+01 -0.59941E+04
-0.15500000E+01 -0.59840E+04
-0.15000000E+01 -0.59922E+04
-0.14500000E+01 -0.59971E+04
-0.14000001E+01 -0.60250E+04
-0.13500000E+01 -0.60267E+04
-0.13000001E+01 -0.60139E+04
-0.12500000E+01 -0.60179E+04
-0.12000000E+01 -0.60043E+04
-0.11500001E+01 -0.60116E+04
-0.11000000E+01 -0.60127E+04
-0.10500001E+01 -0.59873E+04
-0.10000000E+01 -0.59656E+04
-0.95000005E+00 -0.59644E+04
-0.90000010E+00 -0.59619E+04
-0.85000002E+00 -0.59628E+04
-0.80000007E+00 -0.59847E+04
-0.75000012E+00 -0.59658E+04
-0.70000005E+00 -0.59441E+04
-0.65000010E+00 -0.59330E+04
-0.60000014E+00 -0.59126E+04
-0.55000007E+00 -0.59305E+04
-0.50000012E+00 -0.59312E+04
-0.45000005E+00 -0.58942E+04
-0.40000010E+00 -0.58756E+04
-0.35000014E+00 -0.58560E+04
-0.30000007E+00 -0.58383E+04
-0.25000012E+00 -0.58246E+04
-0.20000005E+00 -0.57923E+04
-0.15000010E+00 -0.57460E+04
-0.10000014E+00 -0.57322E+04
-0.50000072E-01 -0.57324E+04
-0.11920929E-06 -0.57522E+04
 0.49999952E-01 -0.57777E+04
 0.99999905E-01 -0.57852E+04
 0.14999986E+00 -0.58040E+04
 0.19999981E+00 -0.58287E+04
 0.24999976E+00 -0.58482E+04
 0.29999995E+00 -0.58762E+04
 0.34999990E+00 -0.59206E+04
 0.39999986E+00 -0.59320E+04
 0.44999981E+00 -0.59531E+04
 0.49999976E+00 -0.59799E+04
 0.54999995E+00 -0.59929E+04
 0.59999990E+00 -0.60074E+04
 0.64999986E+00 -0.60204E+04
 0.69999981E+00 -0.60099E+04
 0.74999976E+00 -0.60050E+04
 0.79999971E+00 -0.60054E+04
 0.84999990E+00 -0.60055E+04
 0.89999986E+00 -0.60097E+04
 0.94999981E+00 -0.60068E+04
 0.99999976E+00 -0.59867E+04
 0.10499997E+01 -0.59712E+04
 0.10999999E+01 -0.59642E+04
 0.11499999E+01 -0.59514E+04
 0.11999998E+01 -0.59623E+04
 0.12499998E+01 -0.59449E+04
 0.12999997E+01 -0.59174E+04
 0.13499999E+01 -0.59110E+04
 0.13999999E+01 -0.59151E+04
 0.14499998E+01 -0.59215E+04
 0.14999998E+01 -0.59432E+04
 0.15499997E+01 -0.59402E+04
 0.15999999E+01 -0.59251E+04
 0.16499999E+01 -0.59169E+04
 0.16999998E+01 -0.59141E+04
 0.17499998E+01 -0.59221E+04
 0.17999997E+01 -0.59305E+04
 0.18499997E+01 -0.59406E+04
 0.18999999E+01 -0.59538E+04
 0.19499998E+01 -0.59777E+04
 0.19999998E+01 -0.59958E+04
 0.20499997E+01 -0.60179E+04
 0.20999999E+01 -0.60277E+04
 0.21499996E+01 -0.60148E+04
 0.21999998E+01 -0.60092E+04
 0.22499995E+01 -0.59870E+04
 0.22999997E+01 -0.59482E+04
 0.23499999E+01 -0.59405E+04
 0.23999996E+01 -0.59299E+04
 0.24499998E+01 -0.59122E+04
 0.24999995E+01 -0.59138E+04
 0.25499997E+01 -0.59203E+04
 0.25999999E+01 -0.59308E+04
 0.26499996E+01 -0.59483E+04
 0.26999998E+01 -0.59436E+04
 0.27499995E+01 -0.59249E+04
 0.27999997E+01 -0.59272E+04
 0.28499999E+01 -0.59339E+04
 0.28999996E+01 -0.59402E+04
 0.29499998E+01 -0.59532E+04
 0.29999995E+01 -0.59375E+04
 0.30499997E+01 -0.59153E+04
 0.30999999E+01 -0.59007E+04
 0.31499996E+01 -0.58786E+04
 0.31999998E+01 -0.58808E+04
 0.32499995E+01 -0.58718E+04
 0.32999997E+01 -0.58353E+04
 0.33499999E+01 -0.58246E+04
 0.33999996E+01 -0.58160E+04
 0.34499998E+01 -0.58138E+04
 0.34999995E+01 -0.58296E+04
 0.35499997E+01 -0.58321E+04
 0.35999994E+01 -0.58249E+04
 0.36499996E+01 -0.58349E+04
 0.36999998E+01 -0.58511E+04
 0.37499995E+01 -0.58681E+04
 0.37999997E+01 -0.58955E+04
 0.38499994E+01 -0.58941E+04
 0.38999996E+01 -0.58938E+04
 0.39499998E+01 -0.59145E+04
 0.39999995E+01 -0.59351E+04
 0.40499997E+01 -0.59572E+04
 0.40999994E+01 -0.59809E+04
 0.41499996E+01 -0.59700E+04
 0.41999998E+01 -0.59442E+04
 0.42499995E+01 -0.59425E+04
 0.42999997E+01 -0.59369E+04
 0.43499994E+01 -0.59442E+04
 0.43999996E+01 -0.59507E+04
 0.44499998E+01 -0.59403E+04
 0.44999995E+01 -0.59459E+04
 0.45499997E+01 -0.59568E+04
 0.45999994E+01 -0.59734E+04
 0.46499996E+01 -0.59855E+04
 0.46999998E+01 -0.59835E+04
 0.47499995E+01 -0.59749E+04
 0.47999997E+01 -0.59821E+04
 0.48499994E+01 -0.59908E+04
 0.48999996E+01 -0.59983E+04
 0.49499998E+01 -0.60201E+04
 0.49999995E+01 -0.60028E+04
 0.50499997E+01 -0.59795E+04
 0.50999994E+01 -0.59784E+04
 0.51499996E+01 -0.59709E+04
 0.51999998E+01 -0.59800E+04
 0.52499995E+01 -0.59869E+04
 0.52999997E+01 -0.59802E+04
 0.53499994E+01 -0.59863E+04
 0.53999996E+01 -0.59774E+04
 0.54499993E+01 -0.59624E+04
 0.54999995E+01 -0.59602E+04
 0.55499997E+01 -0.59478E+04
 0.55999994E+01 -0.59201E+04
 0.56499996E+01 -0.59172E+04
 0.56999993E+01 -0.59208E+04
 0.57499995E+01 -0.59201E+04
 0.57999997E+01 -0.59355E+04
 0.58499994E+01 -0.59285E+04
 0.58999996E+01 -0.59105E+04
 0.59499993E+01 -0.58968E+04
 0.59999995E+01 -0.58914E+04
 0.60499992E+01 -0.58944E+04
 0.60999994E+01 -0.59098E+04
 0.61499996E+01 -0.59042E+04
 0.61999998E+01 -0.58875E+04
 0.62499990E+01 -0.58857E+04
 0.62999992E+01 -0.58714E+04
 0.63499994E+01 -0.58739E+04
 0.63999996E+01 -0.58613E+04
 0.64499998E+01 -0.58295E+04
 0.64999990E+01 -0.58109E+04
 0.65499992E+01 -0.58069E+04
 0.65999994E+01 -0.58216E+04
 0.66499996E+01 -0.58522E+04
 0.66999998E+01 -0.58656E+04
 0.67499990E+01 -0.58701E+04
 0.67999992E+01 -0.58868E+04
 0.68499994E+01 -0.58970E+04
 0.68999996E+01 -0.59012E+04
 0.69499998E+01 -0.59144E+04
 0.69999990E+01 -0.59103E+04
 0.70499992E+01 -0.59062E+04
 0.70999994E+01 -0.59218E+04
 0.71499996E+01 -0.59198E+04
 0.71999998E+01 -0.59272E+04
 0.72499990E+01 -0.59271E+04
 0.72999992E+01 -0.59185E+04
 0.73499994E+01 -0.59273E+04
 0.73999996E+01 -0.59501E+04
 0.74499998E+01 -0.59673E+04
 0.74999990E+01 -0.59897E+04
 0.75499992E+01 -0.59815E+04
 0.75999994E+01 -0.59496E+04
 0.76499996E+01 -0.59535E+04
 0.76999998E+01 -0.59633E+04
 0.77499990E+01 -0.59832E+04
 0.77999992E+01 -0.60023E+04
 0.78499994E+01 -0.59944E+04
 0.78999996E+01 -0.59871E+04
 0.79499998E+01 -0.60017E+04
 0.79999990E+01 -0.60057E+04
 0.80499992E+01 -0.60132E+04
 0.80999994E+01 -0.60214E+04
 0.81499996E+01 -0.60010E+04
 0.81999998E+01 -0.59991E+04
 0.82499990E+01 -0.60063E+04
 0.82999992E+01 -0.60034E+04
 0.83499994E+01 -0.60048E+04
 0.83999996E+01 -0.59745E+04
 0.84499998E+01 -0.59377E+04
 0.84999990E+01 -0.59244E+04
 0.85499992E+01 -0.59102E+04
 0.85999994E+01 -0.59168E+04
 0.86499996E+01 -0.59306E+04
 0.86999998E+01 -0.59140E+04
 0.87499990E+01 -0.58883E+04
 0.87999992E+01 -0.58736E+04
 0.88499994E+01 -0.58539E+04
 0.88999996E+01 -0.58476E+04
 0.89499998E+01 -0.58331E+04
 0.89999990E+01 -0.58210E+04
 0.90499992E+01 -0.58383E+04
 0.90999994E+01 -0.58570E+04
 0.91499996E+01 -0.58823E+04
 0.91999989E+01 -0.59150E+04
 0.92499990E+01 -0.59287E+04
 0.92999992E+01 -0.59275E+04
 0.93499994E+01 -0.59448E+04
 0.93999996E+01 -0.59621E+04
 0.94499989E+01 -0.59738E+04
 0.94999990E+01 -0.59761E+04
 0.95499992E+01 -0.59647E+04
 0.95999994E+01 -0.59472E+04
 0.96499996E+01 -0.59400E+04
 0.96999989E+01 -0.59262E+04
 0.97499990E+01 -0.59186E+04
 0.97999992E+01 -0.59084E+04
 0.98499994E+01 -0.58815E+04
 0.98999996E+01 -0.58636E+04
 0.99499989E+01 -0.58539E+04
 0.99999990E+01 -0.58552E+04
 0.10049999E+02 -0.58768E+04
 0.10099999E+02 -0.58820E+04
 0.10150000E+02 -0.58826E+04
 0.10199999E+02 -0.59089E+04
 0.10249999E+02 -0.59184E+04
 0.10299999E+02 -0.59304E+04
 0.10349999E+02 -0.59450E+04
 0.10400000E+02 -0.59391E+04
 0.10449999E+02 -0.59409E+04
 0.10499999E+02 -0.59592E+04
 0.10549999E+02 -0.59638E+04
 0.10599999E+02 -0.59831E+04
 0.10650000E+02 -0.59877E+04
 0.10699999E+02 -0.60162E+04
 0.10749999E+02 -0.60003E+04
 0.10799999E+02 -0.60403E+04
 0.10849999E+02 -0.60063E+04
 0.10900000E+02 -0.60388E+04
 0.10949999E+02 -0.59789E+04
 0.10999999E+02 -0.59895E+04
 0.11049999E+02 -0.59846E+04
 0.11099999E+02 -0.59506E+04
 0.11150000E+02 -0.59899E+04
 0.11199999E+02 -0.59217E+04
 0.11249999E+02 -0.58849E+04
 0.11299999E+02 -0.58662E+04
 0.11349999E+02 -0.58864E+04
 0.11400000E+02 -0.57699E+04
 0.11449999E+02 -0.57778E+04
 0.11499999E+02 -0.58148E+04
 0.11549999E+02 -0.56653E+04
 0.11599999E+02 -0.53920E+04
 0.11650000E+02 -0.58464E+04
 0.11699999E+02 -0.53759E+04
 0.11749999E+02 -0.59843E+04
 0.11799999E+02 -0.59104E+04
 0.11849999E+02 -0.60370E+04
 0.11900000E+02 -0.61154E+04
 0.11949999E+02 -0.61092E+04
 0.11999999E+02 -0.61571E+04
 0.12049999E+02 -0.58320E+04
 0.12099999E+02 -0.54299E+04
 0.12150000E+02 -0.58889E+04
 0.12199999E+02 -0.54403E+04
 0.12249999E+02 -0.56915E+04
 0.12299999E+02 -0.50630E+04
 0.12349999E+02 -0.50702E+04
 0.12400000E+02 -0.54978E+04
 0.12449999E+02 -0.61301E+04
 0.12499999E+02 -0.70406E+04
 0.12549999E+02 -0.68219E+04
 0.12599999E+02 -0.70212E+04
 0.12649999E+02 -0.63779E+04
 0.12699999E+02 -0.68120E+04
 0.12749999E+02 -0.52405E+04
 0.12799999E+02 -0.58240E+04
 0.12849999E+02 -0.49428E+04
 0.12899999E+02 -0.53171E+04
 0.12949999E+02 -0.70689E+04
 0.12999999E+02 -0.61973E+04
 0.13049999E+02 -0.64140E+04
 0.13099999E+02 -0.63756E+04
 0.13149999E+02 -0.58904E+04
 0.13199999E+02 -0.44629E+04
 0.13249999E+02 -0.78944E+04
 0.13299999E+02 -0.56104E+04
 0.13349999E+02 -0.66242E+04
 0.13399999E+02 -0.73302E+04
 0.13449999E+02 -0.31759E+04
 0.13499999E+02 -0.66222E+04
 0.13549999E+02 -0.17147E+04
 0.13599999E+02 -0.64836E+04
 0.13649999E+02 -0.50028E+04
 0.13699999E+02 -0.78297E+04
 0.13749999E+02 -0.67987E+04
 0.13799999E+02 -0.61668E+04
 0.13849999E+02 -0.88504E+04
 0.13899999E+02 -0.36780E+04
 0.13949999E+02 -0.86939E+04
 0.13999999E+02 -0.41532E+04
 0.14049999E+02 -0.70530E+04
 0.14099998E+02 -0.70149E+04
 0.14150000E+02 -0.57468E+04
 0.14199999E+02 -0.58717E+04
 0.14249998E+02 -0.59101E+04
 0.14299999E+02 -0.33446E+04
 0.14349998E+02 -0.60263E+04
 0.14400000E+02 -0.73354E+04
 0.14449999E+02 -0.45891E+04
 0.14499998E+02 -0.10039E+05
 0.14549999E+02 -0.61836E+04
 0.14599998E+02 -0.57601E+04
 0.14650000E+02 -0.59534E+04
 0.14699999E+02 -0.55713E+04
 0.14749998E+02 -0.55657E+04
 0.14799999E+02 -0.47323E+04
 0.14849998E+02 -0.20515E+04
 0.14900000E+02 -0.51083E+04
 0.14949999E+02 -0.73327E+04
 0.14999998E+02 -0.63127E+04
 0.15049999E+02 -0.68167E+04
 0.15099998E+02 -0.53409E+04
 0.15150000E+02 -0.69284E+04
 0.15199999E+02 -0.51720E+04
 0.15249998E+02 -0.64891E+04
 0.15299999E+02 -0.74670E+04
 0.15349998E+02 -0.60128E+04
 0.15400000E+02 -0.61312E+04
 0.15449999E+02 -0.64108E+04
 0.15499998E+02 -0.73466E+04
 0.15549999E+02 -0.43990E+04
 0.15599998E+02 -0.59342E+04
 0.15650000E+02 -0.39092E+04
 0.15699999E+02 -0.31807E+04
 0.15749998E+02 -0.81054E+04
 0.15799999E+02 -0.39234E+04
 0.15849998E+02 -0.53330E+04
 0.15900000E+02 -0.90807E+04
 0.15949999E+02 -0.78803E+04
 0.15999998E+02 -0.58170E+04
 0.16049999E+02 -0.60435E+04
 0.16099998E+02 -0.35894E+04
 0.16150000E+02 -0.38543E+04
 0.16199999E+02 -0.46518E+04
 0.16249998E+02 -0.81258E+04
 0.16299999E+02 -0.62580E+04
 0.16349998E+02 -0.92945E+04
 0.16400000E+02 -0.55580E+04
 0.16449999E+02  0.40579E+04
 0.16499998E+02 -0.57635E+04
 0.16549999E+02 -0.63779E+04
 0.16599998E+02 -0.10738E+05
 0.16650000E+02 -0.71545E+04
 0.16699999E+02 -0.89873E+04
 0.16749998E+02 -0.53795E+04
 0.16799999E+02 -0.14035E+04
 0.16849998E+02 -0.69362E+04
 0.16900000E+02 -0.26359E+04
 0.16949999E+02 -0.47170E+04
 0.16999998E+02 -0.83967E+04
 0.17049999E+02 -0.66285E+04
 0.17099998E+02 -0.71528E+04
 0.17150000E+02 -0.10303E+05
 0.17199999E+02 -0.36843E+04
 0.17249998E+02 -0.58867E+04
 0.17299999E+02 -0.74257E+04
 0.17349998E+02 -0.45104E+04
 0.17400000E+02 -0.64965E+04
 0.17449999E+02 -0.77019E+04
 0.17499998E+02 -0.24744E+04
 0.17549999E+02 -0.51265E+04
 0.17599998E+02 -0.86982E+04
 0.17650000E+02 -0.62308E+04
 0.17699999E+02 -0.42510E+04
 0.17749998E+02 -0.26041E+04
 0.17799999E+02 -0.39812E+04
 0.17849998E+02 -0.74556E+03
 0.17900000E+02 -0.36642E+04
 0.17949999E+02 -0.36535E+04
 0.17999998E+02 -0.39735E+04
 0.18049999E+02 -0.80900E+04
 0.18099998E+02 -0.89218E+04
 0.18150000E+02 -0.90750E+04
 0.18199999E+02 -0.68100E+04
 0.18249998E+02 -0.27663E+04
 0.18299999E+02 -0.34152E+04
 0.18349998E+02 -0.52061E+04
 0.18400000E+02 -0.17837E+04
 0.18449999E+02 -0.86216E+04
 0.18499998E+02 -0.14809E+05
 0.18549999E+02 -0.73839E+04
 0.18599998E+02 -0.49061E+04
 0.18650000E+02 -0.38411E+04
 0.18699999E+02 -0.63422E+04
 0.18749998E+02 -0.12281E+05
 0.18799999E+02 -0.11323E+05
 0.18849998E+02 -0.48234E+04
 0.18900000E+02 -0.66662E+04
 0.18949999E+02 -0.10578E+05
 0.18999998E+02  0.12540E+04
 0.19049999E+02 -0.36558E+04
 0.19099998E+02 -0.48024E+04
 0.19150000E+02 -0.26559E+04
 0.19199999E+02 -0.12696E+05
 0.19249998E+02 -0.71823E+04
 0.19299999E+02 -0.77382E+04
 0.19349998E+02 -0.12845E+05
 0.19400000E+02 -0.39278E+04
 0.19449999E+02 -0.32681E+04
 0.19499998E+02 -0.92906E+04
 0.19549999E+02  0.37664E+03
 0.19599998E+02 -0.43133E+04
 0.19650000E+02 -0.11441E+05
 0.19699999E+02 -0.26149E+04
 0.19749998E+02 -0.67928E+04
 0.19799999E+02 -0.74258E+04
 0.19849998E+02 -0.25905E+04
 0.19900000E+02 -0.37762E+04
 0.19949999E+02 -0.12002E+05
 0.19999998E+02 -0.54385E+04
 0.20049999E+02  0.12764E+04
 0.20099998E+02 -0.79767E+04
 0.20150000E+02 -0.63113E+04
 0.20199999E+02 -0.48091E+04
 0.20249998E+02 -0.20500E+05
 0.20299999E+02 -0.15349E+05
 0.20349998E+02  0.97001E+04
 0.20399998E+02 -0.17352E+04
 0.20449999E+02 -0.43636E+04
 0.20499998E+02 -0.86668E+04
 0.20549999E+02 -0.33581E+04
 0.20599998E+02  0.95753E+02
 0.20649998E+02 -0.49602E+04
 0.20699999E+02 -0.26732E+05
 0.20749998E+02 -0.26352E+05
 0.20799999E+02  0.11712E+05
 0.20849998E+02 -0.28226E+05
 0.20899998E+02 -0.26908E+05
 0.20949999E+02  0.75182E+04
 0.20999998E+02  0.87795E+04
 0.21049999E+02 -0.60235E+03
 0.21099998E+02  0.96785E+04
 0.21149998E+02 -0.11293E+05
 0.21199999E+02 -0.40414E+05
 0.21249998E+02  0.15538E+05
 0.21299999E+02  0.97755E+04
 0.21349998E+02 -0.23594E+05
 0.21399998E+02  0.61728E+04
 0.21449999E+02 -0.98041E+04
 0.21499998E+02 -0.23816E+05
 0.21549999E+02  0.38392E+05
 0.21599998E+02  0.27998E+05
 0.21649998E+02 -0.31480E+05
 0.21699999E+02 -0.27713E+05
 0.21749998E+02 -0.83542E+04
 0.21799999E+02 -0.27195E+05
 0.21849998E+02  0.13937E+05
 0.21899998E+02  0.38896E+04
 0.21949999E+02 -0.59412E+05
 0.21999998E+02  0.18616E+05
 0.22049999E+02  0.45216E+05
 0.22099998E+02 -0.12854E+05
 0.22149998E+02 -0.22718E+05
 0.22199999E+02 -0.40277E+02
 0.22249998E+02  0.14856E+05
 0.22299999E+02 -0.10432E+05
 0.22349998E+02 -0.14437E+05
 0.22399998E+02 -0.12454E+05
 0.22449999E+02 -0.61812E+05
 0.22499998E+02 -0.25346E+05
 0.22549999E+02  0.90439E+04
 0.22599998E+02 -0.15565E+05
 0.22649998E+02  0.13140E+05
 0.22699999E+02  0.32620E+05
 0.22749998E+02  0.35384E+05
 0.22799999E+02 -0.78004E+04
 0.22849998E+02 -0.20239E+05
 0.22899998E+02  0.15890E+05
 0.22949999E+02 -0.12388E+05
 0.22999998E+02 -0.12076E+04
 0.23049999E+02  0.10421E+05
 0.23099998E+02 -0.29569E+05
 0.23149998E+02 -0.24977E+05
 0.23199999E+02  0.61344E+04
 0.23249998E+02 -0.75078E+04
 0.23299999E+02 -0.10473E+05
 0.23349998E+02 -0.63913E+04
 0.23399998E+02  0.18251E+04
 0.23449999E+02  0.13350E+05
 0.23499998E+02  0.10849E+05
 0.23549999E+02 -0.11026E+04
 0.23599998E+02 -0.14838E+05
 0.23649998E+02  0.54188E+04
 0.23699999E+02 -0.18200E+05
 0.23749998E+02 -0.21441E+05
 0.23799999E+02 -0.41659E+04
 0.23849998E+02 -0.25303E+05
 0.23899998E+02 -0.25084E+05
 0.23949999E+02 -0.26683E+05
 0.23999998E+02 -0.87098E+04
 0.24049999E+02  0.18040E+05
 0.24099998E+02  0.38226E+05
 0.24149998E+02  0.37658E+05
 0.24199999E+02 -0.13372E+05
 0.24249998E+02 -0.30047E+05
 0.24299999E+02 -0.47175E+05
 0.24349998E+02 -0.57096E+05
 0.24399998E+02 -0.28077E+05
 0.24449999E+02  0.27408E+05
 0.24499998E+02  0.31331E+05
 0.24549999E+02 -0.10071E+05
 0.24599998E+02 -0.93346E+04
 0.24649998E+02 -0.13541E+05
 0.24699999E+02 -0.20281E+05
 0.24749998E+02 -0.60255E+04
 0.24799999E+02  0.15865E+05
 0.24849998E+02  0.93867E+04
 0.24899998E+02  0.11260E+05
 0.24949999E+02  0.19763E+05
 0.24999998E+02  0.83325E+04
 0.25049999E+02 -0.72845E+04
 0.25099998E+02 -0.24715E+05
 0.25149998E+02 -0.25611E+05
 0.25199999E+02 -0.37416E+04
 0.25249998E+02  0.22903E+04
 0.25299999E+02 -0.11797E+05
 0.25349998E+02 -0.35331E+04
 0.25399998E+02 -0.13790E+04
 0.25449999E+02 -0.17295E+05
 0.25499998E+02 -0.29401E+05
 0.25549999E+02 -0.30301E+05
 0.25599998E+02 -0.30117E+05
 0.25649998E+02 -0.34632E+05
 0.25699999E+02 -0.19913E+05
 0.25749998E+02 -0.35328E+03
 0.25799999E+02 -0.45822E+04
 0.25849998E+02  0.60794E+04
 0.25899998E+02  0.16007E+05
 0.25949999E+02  0.58020E+04
 0.25999998E+02  0.91979E+04
 0.26049999E+02  0.68333E+04
 0.26099998E+02 -0.12783E+05
 0.26149998E+02 -0.23387E+05
 0.26199999E+02 -0.51480E+04
 0.26249998E+02  0.80345E+04
 0.26299999E+02  0.97108E+04
 0.26349998E+02  0.82472E+04
 0.26399998E+02 -0.68644E+04
 0.26449999E+02 -0.33412E+05
 0.26499998E+02 -0.33668E+05
 0.26549999E+02 -0.55725E+04
 0.26599998E+02  0.16243E+05
 0.26649998E+02  0.11829E+05
 0.26699999E+02 -0.77460E+04
 0.26749998E+02  0.28630E+04
 0.26799999E+02  0.16318E+05
 0.26849998E+02  0.13234E+05
 0.26899998E+02 -0.97453E+03
 0.26949999E+02 -0.19439E+05
 0.26999998E+02 -0.37979E+05
 0.27049997E+02 -0.40468E+05
 0.27099998E+02 -0.25941E+05
 0.27149998E+02 -0.18876E+05
 0.27199999E+02 -0.84031E+04
 0.27249998E+02  0.14758E+05
 0.27299997E+02  0.32505E+05
 0.27349998E+02 -0.41970E+04
 0.27399998E+02 -0.31393E+05
 0.27449999E+02 -0.22368E+05
 0.27499998E+02 -0.19542E+05
 0.27549997E+02 -0.15241E+05
 0.27599998E+02 -0.12087E+05
 0.27649998E+02  0.49605E+04
 0.27699999E+02  0.65675E+04
 0.27749998E+02  0.63892E+04
 0.27799997E+02  0.10913E+05
 0.27849998E+02  0.73671E+03
 0.27899998E+02  0.89066E+03
 0.27949999E+02 -0.91803E+03
 0.27999998E+02 -0.74333E+03
 0.28049997E+02  0.97362E+04
 0.28099998E+02  0.22260E+05
 0.28149998E+02  0.10430E+05
 0.28199999E+02 -0.19317E+05
 0.28249998E+02 -0.38384E+05
 0.28299997E+02 -0.52981E+05
 0.28349998E+02 -0.35945E+05
 0.28399998E+02  0.34079E+04
 0.28449999E+02  0.35433E+05
 0.28499998E+02  0.40082E+05
 0.28549997E+02  0.24183E+05
 0.28599998E+02  0.91516E+04
 0.28649998E+02 -0.11277E+05
 0.28699999E+02 -0.15855E+05
 0.28749998E+02 -0.20381E+05
 0.28799997E+02 -0.25893E+05
 0.28849998E+02 -0.22782E+05
 0.28899998E+02 -0.17187E+05
 0.28949999E+02 -0.41252E+04
 0.28999998E+02 -0.79695E+04
 0.29049997E+02 -0.18649E+05
 0.29099998E+02 -0.13416E+05
 0.29149998E+02  0.28192E+04
 0.29199999E+02  0.23086E+05
 0.29249998E+02  0.24924E+05
 0.29299997E+02  0.53097E+04
 0.29349998E+02 -0.11745E+05
 0.29399998E+02 -0.27142E+05
 0.29449999E+02 -0.36743E+05
 0.29499998E+02 -0.30760E+05
 0.29549997E+02 -0.13790E+05
 0.29599998E+02  0.36123E+04
 0.29649998E+02  0.15520E+05
 0.29699999E+02  0.19365E+05
 0.29749998E+02  0.14163E+05
 0.29799997E+02  0.93872E+04
 0.29849998E+02 -0.90263E+03
 0.29899998E+02 -0.98755E+04
 0.29949999E+02 -0.51353E+04
 0.29999998E+02 -0.54052E+04
 0.30049999E+02 -0.14976E+05
 0.30099998E+02 -0.29126E+05
 0.30149998E+02 -0.46831E+05
 0.30199997E+02 -0.58067E+05
 0.30249996E+02 -0.55312E+05
 0.30299999E+02 -0.32846E+05
 0.30349998E+02 -0.35717E+04
 0.30399998E+02  0.12009E+05
 0.30449997E+02  0.17070E+05
 0.30499996E+02  0.15107E+05
 0.30549999E+02  0.93721E+04
 0.30599998E+02  0.46624E+04
 0.30649998E+02  0.54643E+04
 0.30699997E+02  0.14175E+05
 0.30749996E+02  0.10157E+05
 0.30799999E+02  0.12518E+05
 0.30849998E+02  0.12367E+05
 0.30899998E+02 -0.23261E+04
 0.30949997E+02 -0.18288E+05
 0.30999996E+02 -0.37115E+05
 0.31049999E+02 -0.31456E+05
 0.31099998E+02 -0.12239E+05
 0.31149998E+02 -0.19923E+04
 0.31199997E+02  0.92530E+03
 0.31249996E+02 -0.27659E+03
 0.31299999E+02 -0.27033E+04
 0.31349998E+02 -0.51433E+04
 0.31399998E+02 -0.14186E+05
 0.31449997E+02 -0.22391E+05
 0.31499996E+02 -0.28673E+05
 0.31549999E+02 -0.17914E+05
 0.31599998E+02  0.90401E+04
 0.31649998E+02  0.15603E+05
 0.31699997E+02  0.53654E+04
 0.31749996E+02 -0.87910E+04
 0.31799999E+02 -0.16974E+05
 0.31849998E+02 -0.13094E+05
 0.31899998E+02 -0.63021E+04
 0.31949997E+02 -0.37052E+04
 0.31999996E+02 -0.34065E+04
 0.32049999E+02 -0.59629E+04
 0.32099998E+02 -0.71872E+04
 0.32149998E+02 -0.59782E+04
 0.32199997E+02  0.85373E+03
 0.32249996E+02  0.10564E+05
 0.32299999E+02  0.11826E+05
 0.32349998E+02  0.71866E+04
 0.32399998E+02 -0.95459E+04
 0.32449997E+02 -0.23439E+05
 0.32499996E+02 -0.21082E+05
 0.32549999E+02 -0.11457E+05
 0.32599998E+02 -0.61668E+04
 0.32649998E+02 -0.47591E+04
 0.32699997E+02  0.64216E+04
 0.32749996E+02  0.20697E+05
 0.32799999E+02  0.27934E+05
 0.32849998E+02  0.24709E+05
 0.32899998E+02  0.14530E+05
 0.32949997E+02  0.46119E+04
 0.32999996E+02  0.41042E+04
 0.33049999E+02  0.32004E+04
 0.33099998E+02 -0.65735E+04
 0.33149998E+02 -0.22459E+05
 0.33199997E+02 -0.36001E+05
 0.33249996E+02 -0.38871E+05
 0.33299999E+02 -0.28629E+05
 0.33349998E+02 -0.15313E+05
 0.33399998E+02 -0.16055E+05
 0.33449997E+02 -0.22552E+05
 0.33499996E+02 -0.30441E+05
 0.33549999E+02 -0.27125E+05
 0.33599998E+02 -0.18270E+05
 0.33649998E+02 -0.14322E+05
 0.33699997E+02 -0.17133E+05
 0.33749996E+02 -0.24736E+05
 0.33799999E+02 -0.15791E+05
 0.33849998E+02  0.33080E+04
 0.33899998E+02  0.16025E+05
 0.33949997E+02  0.14487E+05
 0.33999996E+02  0.90408E+04
 0.34049999E+02  0.36210E+04
 0.34099998E+02 -0.33848E+04
 0.34149998E+02 -0.24530E+04
 0.34199997E+02  0.44084E+04
 0.34249996E+02  0.68410E+04
 0.34299999E+02  0.64453E+04
 0.34349998E+02  0.59557E+04
 0.34399998E+02  0.10051E+04
 0.34449997E+02 -0.21599E+04
 0.34499996E+02 -0.15805E+04
 0.34549999E+02 -0.88178E+04
 0.34599998E+02 -0.19821E+05
 0.34649998E+02 -0.20144E+05
 0.34699997E+02 -0.14634E+05
 0.34749996E+02 -0.11310E+05
 0.34799999E+02 -0.14547E+05
 0.34849998E+02 -0.17712E+05
 0.34899998E+02 -0.97444E+04
 0.34949997E+02  0.17907E+04
 0.34999996E+02  0.94298E+04
 0.35049999E+02  0.10787E+05
 0.35099998E+02  0.48743E+04
 0.35149998E+02 -0.12526E+04
 0.35199997E+02 -0.42022E+04
 0.35249996E+02 -0.28761E+04
 0.35299999E+02 -0.24872E+04
 0.35349998E+02 -0.13307E+04
 0.35399998E+02 -0.48840E+04
 0.35449997E+02 -0.15556E+05
 0.35499996E+02 -0.18524E+05
 0.35549999E+02 -0.14171E+05
 0.35599998E+02 -0.36869E+04
 0.35649998E+02  0.57701E+04
 0.35699997E+02  0.56543E+04
 0.35749996E+02 -0.94895E+03
 0.35799999E+02 -0.73477E+04
 0.35849998E+02 -0.11757E+05
 0.35899998E+02 -0.11153E+05
 0.35949997E+02 -0.62686E+04
 0.35999996E+02 -0.65229E+04
 0.36049999E+02 -0.77745E+04
 0.36099998E+02 -0.75424E+04
 0.36149998E+02 -0.89872E+04
 0.36199997E+02 -0.11007E+05
 0.36249996E+02 -0.11164E+05
 0.36299999E+02 -0.37440E+04
 0.36349998E+02  0.20629E+04
 0.36399998E+02 -0.38652E+04
 0.36449997E+02 -0.15073E+05
 0.36499996E+02 -0.23390E+05
 0.36549999E+02 -0.24737E+05
 0.36599998E+02 -0.22361E+05
 0.36649998E+02 -0.15127E+05
 0.36699997E+02 -0.37802E+04
 0.36749996E+02  0.56968E+04
 0.36799999E+02  0.11661E+05
 0.36849998E+02  0.11795E+05
 0.36899998E+02  0.40078E+04
 0.36949997E+02 -0.39986E+04
 0.36999996E+02 -0.10791E+05
 0.37049999E+02 -0.14012E+05
 0.37099998E+02 -0.10536E+05
 0.37149998E+02 -0.62888E+04
 0.37199997E+02 -0.17979E+03
 0.37249996E+02  0.37240E+04
 0.37299999E+02  0.48423E+04
 0.37349998E+02  0.44907E+04
 0.37399998E+02  0.29568E+04
 0.37449997E+02  0.12817E+04
 0.37499996E+02  0.46057E+03
 0.37549999E+02 -0.30458E+03
 0.37599998E+02 -0.53829E+04
 0.37649998E+02 -0.11015E+05
 0.37699997E+02 -0.19334E+05
 0.37749996E+02 -0.32074E+05
 0.37799999E+02 -0.36163E+05
 0.37849998E+02 -0.30929E+05
 0.37899998E+02 -0.23222E+05
 0.37949997E+02 -0.13537E+05
 0.37999996E+02 -0.70846E+03
 0.38049999E+02  0.13547E+05
 0.38099998E+02  0.21502E+05
 0.38149998E+02  0.22001E+05
 0.38199997E+02  0.17731E+05
 0.38249996E+02  0.89930E+04
 0.38299999E+02 -0.20080E+04
 0.38349998E+02 -0.93412E+04
 0.38399998E+02 -0.14384E+05
 0.38449997E+02 -0.17919E+05
 0.38499996E+02 -0.16290E+05
 0.38549999E+02 -0.78531E+04
 0.38599998E+02 -0.47034E+03
 0.38649998E+02  0.56781E+03
 0.38699997E+02 -0.24630E+04
 0.38749996E+02 -0.41096E+04
 0.38799999E+02  0.37158E+03
 0.38849998E+02  0.27494E+04
 0.38899998E+02 -0.23150E+03
 0.38949997E+02 -0.89359E+04
 0.38999996E+02 -0.16819E+05
 0.39049999E+02 -0.20635E+05
 0.39099998E+02 -0.18815E+05
 0.39149998E+02 -0.14126E+05
 0.39199997E+02 -0.17156E+05
 0.39249996E+02 -0.21756E+05
 0.39299999E+02 -0.23082E+05
 0.39349998E+02 -0.19355E+05
 0.39399998E+02 -0.11042E+05
 0.39449997E+02 -0.38616E+04
 0.39499996E+02 -0.21363E+03
 0.39549999E+02 -0.72448E+03
 0.39599998E+02 -0.18913E+04
 0.39649998E+02 -0.34862E+04
 0.39699997E+02 -0.58881E+04
 0.39749996E+02 -0.67431E+04
 0.39799999E+02 -0.36822E+04
 0.39849998E+02  0.68665E+03
 0.39899998E+02  0.82146E+03
 0.39949997E+02 -0.31794E+04
 0.39999996E+02 -0.10278E+05
 0.40049999E+02 -0.15076E+05
 0.40099998E+02 -0.14274E+05
 0.40149998E+02 -0.90887E+04
 0.40199997E+02  0.19676E+04
 0.40249996E+02  0.12372E+05
 0.40299999E+02  0.17945E+05
 0.40349998E+02  0.20550E+05
 0.40399998E+02  0.17910E+05
 0.40449997E+02  0.14224E+05
 0.40499996E+02  0.56865E+04
 0.40549999E+02 -0.42404E+04
 0.40599998E+02 -0.91852E+04
 0.40649998E+02 -0.13915E+05
 0.40699997E+02 -0.17710E+05
 0.40749996E+02 -0.20353E+05
 0.40799999E+02 -0.21531E+05
 0.40849998E+02 -0.22160E+05
 0.40899998E+02 -0.20705E+05
 0.40949997E+02 -0.15671E+05
 0.40999996E+02 -0.84447E+04
 0.41049999E+02 -0.29596E+03
 0.41099998E+02  0.51120E+04
 0.41149998E+02  0.51216E+04
 0.41199997E+02  0.34992E+04
 0.41249996E+02  0.22141E+04
 0.41299999E+02 -0.12258E+04
 0.41349998E+02 -0.58114E+04
 0.41399998E+02 -0.11281E+05
 0.41449997E+02 -0.17981E+05
 0.41499996E+02 -0.17906E+05
 0.41549999E+02 -0.11714E+05
 0.41599998E+02 -0.86053E+04
 0.41649998E+02 -0.11674E+05
 0.41699997E+02 -0.19310E+05
 0.41749996E+02 -0.22551E+05
 0.41799999E+02 -0.19193E+05
 0.41849998E+02 -0.14304E+05
 0.41899998E+02 -0.93260E+04
 0.41949997E+02 -0.49994E+04
 0.41999996E+02 -0.34828E+04
 0.42049999E+02 -0.32234E+04
 0.42099998E+02 -0.10642E+04
 0.42149998E+02 -0.15071E+04
 0.42199997E+02 -0.34483E+04
 0.42249996E+02 -0.24055E+04
 0.42299999E+02 -0.48798E+03
 0.42349998E+02  0.14561E+04
 0.42399998E+02  0.23059E+04
 0.42449997E+02  0.43875E+04
 0.42499996E+02  0.78862E+04
 0.42549999E+02  0.89821E+04
 0.42599998E+02  0.74726E+04
 0.42649998E+02  0.28793E+04
 0.42699997E+02 -0.32984E+04
 0.42749996E+02 -0.81498E+04
 0.42799995E+02 -0.11543E+05
 0.42849998E+02 -0.11873E+05
 0.42899998E+02 -0.71964E+04
 0.42949997E+02  0.35235E+03
 0.42999996E+02  0.57208E+04
 0.43049995E+02  0.35129E+04
 0.43099998E+02 -0.54123E+04
 0.43149998E+02 -0.16542E+05
 0.43199997E+02 -0.25599E+05
 0.43249996E+02 -0.28463E+05
 0.43299995E+02 -0.24193E+05
 0.43349998E+02 -0.16027E+05
 0.43399998E+02 -0.80313E+04
 0.43449997E+02 -0.19702E+04
 0.43499996E+02 -0.82672E+03
 0.43549995E+02 -0.27175E+04
 0.43599998E+02 -0.36539E+04
 0.43649998E+02 -0.43724E+04
 0.43699997E+02 -0.53013E+04
 0.43749996E+02 -0.53813E+04
 0.43799995E+02 -0.65545E+04
 0.43849998E+02 -0.67340E+04
 0.43899998E+02 -0.35178E+04
 0.43949997E+02  0.15343E+04
 0.43999996E+02  0.60193E+04
 0.44049995E+02  0.67171E+04
 0.44099998E+02  0.36007E+04
 0.44149998E+02 -0.32549E+04
 0.44199997E+02 -0.11368E+05
 0.44249996E+02 -0.15949E+05
 0.44299995E+02 -0.13351E+05
 0.44349998E+02 -0.97784E+04
 0.44399998E+02 -0.99221E+04
 0.44449997E+02 -0.99213E+04
 0.44499996E+02 -0.93531E+04
 0.44549995E+02 -0.76222E+04
 0.44599998E+02 -0.40543E+04
 0.44649998E+02 -0.29947E+04
 0.44699997E+02 -0.34773E+04
 0.44749996E+02 -0.44582E+04
 0.44799995E+02 -0.71103E+04
 0.44849998E+02 -0.87108E+04
 0.44899998E+02 -0.83596E+04
 0.44949997E+02 -0.82682E+04
 0.44999996E+02 -0.89485E+04
 0.45049995E+02 -0.87715E+04
 0.45099998E+02 -0.98401E+04
 0.45149998E+02 -0.99946E+04
 0.45199997E+02 -0.95291E+04
 0.45249996E+02 -0.82347E+04
 0.45299995E+02 -0.63351E+04
 0.45349998E+02 -0.69846E+04
 0.45399998E+02 -0.80301E+04
 0.45449997E+02 -0.86923E+04
 0.45499996E+02 -0.85171E+04
 0.45549995E+02 -0.69719E+04
 0.45599998E+02 -0.49585E+04
 0.45649998E+02 -0.27963E+04
 0.45699997E+02 -0.76789E+03
 0.45749996E+02  0.10545E+04
 0.45799995E+02  0.23998E+04
 0.45849998E+02  0.25039E+04
 0.45899998E+02  0.23480E+04
 0.45949997E+02 -0.70829E+02
 0.45999996E+02 -0.38128E+04
 0.46049995E+02 -0.60111E+04
 0.46099998E+02 -0.74060E+04
 0.46149998E+02 -0.89834E+04
 0.46199997E+02 -0.11733E+05
 0.46249996E+02 -0.13544E+05
 0.46299995E+02 -0.12361E+05
 0.46349998E+02 -0.97183E+04
 0.46399998E+02 -0.81548E+04
 0.46449997E+02 -0.62915E+04
 0.46499996E+02 -0.51318E+04
 0.46549995E+02 -0.55951E+04
 0.46599998E+02 -0.62282E+04
 0.46649998E+02 -0.55847E+04
 0.46699997E+02 -0.12327E+04
 0.46749996E+02  0.35869E+04
 0.46799995E+02  0.71594E+04
 0.46849998E+02  0.93061E+04
 0.46899998E+02  0.83062E+04
 0.46949997E+02  0.53040E+04
 0.46999996E+02  0.10749E+04
 0.47049995E+02 -0.41376E+04
 0.47099998E+02 -0.10341E+05
 0.47149998E+02 -0.17346E+05
 0.47199997E+02 -0.23262E+05
 0.47249996E+02 -0.25482E+05
 0.47299995E+02 -0.24009E+05
 0.47349998E+02 -0.19593E+05
 0.47399998E+02 -0.12896E+05
 0.47449997E+02 -0.70923E+04
 0.47499996E+02 -0.15122E+04
 0.47549995E+02  0.29338E+04
 0.47599998E+02  0.49014E+04
 0.47649998E+02  0.49981E+04
 0.47699997E+02  0.29773E+04
 0.47749996E+02  0.79373E+03
 0.47799995E+02 -0.38419E+04
 0.47849998E+02 -0.81207E+04
 0.47899998E+02 -0.99764E+04
 0.47949997E+02 -0.12365E+05
 0.47999996E+02 -0.14408E+05
 0.48049995E+02 -0.16679E+05
 0.48099998E+02 -0.16680E+05
 0.48149998E+02 -0.14653E+05
 0.48199997E+02 -0.11275E+05
 0.48249996E+02 -0.62842E+04
 0.48299995E+02 -0.18903E+04
 0.48349998E+02  0.15179E+04
 0.48399998E+02  0.43134E+04
 0.48449997E+02  0.56491E+04
 0.48499996E+02  0.30863E+04
 0.48549995E+02 -0.11094E+04
 0.48599998E+02 -0.61830E+04
 0.48649998E+02 -0.12554E+05
 0.48699997E+02 -0.17560E+05
 0.48749996E+02 -0.19310E+05
 0.48799995E+02 -0.18290E+05
 0.48849998E+02 -0.15377E+05
 0.48899998E+02 -0.11274E+05
 0.48949997E+02 -0.66936E+04
 0.48999996E+02 -0.19925E+04
 0.49049995E+02  0.28663E+04
 0.49099998E+02  0.58503E+04
 0.49149998E+02  0.58512E+04
 0.49199997E+02  0.50236E+04
 0.49249996E+02  0.25211E+04
 0.49299995E+02 -0.13905E+04
 0.49349998E+02 -0.49802E+04
 0.49399998E+02 -0.67146E+04
 0.49449997E+02 -0.73125E+04
 0.49499996E+02 -0.67721E+04
 0.49549995E+02 -0.63015E+04
 0.49599998E+02 -0.74490E+04
 0.49649998E+02 -0.70194E+04
 0.49699997E+02 -0.54227E+04
 0.49749996E+02 -0.50892E+04
 0.49799995E+02 -0.49354E+04
 0.49849998E+02 -0.42097E+04
 0.49899998E+02 -0.57371E+04
 0.49949997E+02 -0.75970E+04
 0.49999996E+02 -0.65965E+04
 0.50049995E+02 -0.58769E+04
 0.50099998E+02 -0.49237E+04
 0.50149998E+02 -0.34514E+04
 0.50199997E+02 -0.30571E+04
 0.50249996E+02 -0.26848E+04
 0.50299995E+02 -0.34154E+04
 0.50349998E+02 -0.62940E+04
 0.50399998E+02 -0.10015E+05
 0.50449997E+02 -0.13508E+05
 0.50499996E+02 -0.15107E+05
 0.50549995E+02 -0.13605E+05
 0.50599998E+02 -0.10759E+05
 0.50649998E+02 -0.72498E+04
 0.50699997E+02 -0.42000E+04
 0.50749996E+02 -0.20167E+04
 0.50799995E+02 -0.11871E+03
 0.50849998E+02  0.14753E+03
 0.50899998E+02 -0.17698E+04
 0.50949997E+02 -0.53336E+04
 0.50999996E+02 -0.81444E+04
 0.51049995E+02 -0.84816E+04
 0.51099998E+02 -0.78671E+04
 0.51149998E+02 -0.73964E+04
 0.51199997E+02 -0.65789E+04
 0.51249996E+02 -0.52620E+04
 0.51299995E+02 -0.55522E+04
 0.51349998E+02 -0.73424E+04
 0.51399998E+02 -0.95272E+04
 0.51449997E+02 -0.11906E+05
 0.51499996E+02 -0.13058E+05
 0.51549995E+02 -0.12276E+05
 0.51599998E+02 -0.88442E+04
 0.51649998E+02 -0.53569E+04
 0.51699997E+02 -0.31095E+04
 0.51749996E+02 -0.21650E+04
 0.51799995E+02 -0.34073E+04
 0.51849998E+02 -0.54454E+04
 0.51899998E+02 -0.63303E+04
 0.51949997E+02 -0.50321E+04
 0.51999996E+02 -0.39506E+04
 0.52049995E+02 -0.39364E+04
 0.52099998E+02 -0.36641E+04
 0.52149998E+02 -0.22668E+04
 0.52199997E+02 -0.10251E+04
 0.52249996E+02 -0.78848E+03
 0.52299995E+02 -0.14683E+04
 0.52349998E+02 -0.25550E+04
 0.52399998E+02 -0.44120E+04
 0.52449997E+02 -0.78055E+04
 0.52499996E+02 -0.10168E+05
 0.52549995E+02 -0.10621E+05
 0.52599998E+02 -0.91993E+04
 0.52649998E+02 -0.62480E+04
 0.52699997E+02 -0.32836E+04
 0.52749996E+02 -0.15459E+04
 0.52799995E+02 -0.18551E+04
 0.52849998E+02 -0.34619E+04
 0.52899998E+02 -0.59724E+04
 0.52949997E+02 -0.82445E+04
 0.52999996E+02 -0.88116E+04
 0.53049995E+02 -0.86247E+04
 0.53099998E+02 -0.71028E+04
 0.53149998E+02 -0.58497E+04
 0.53199997E+02 -0.52565E+04
 0.53249996E+02 -0.49157E+04
 0.53299995E+02 -0.47643E+04
 0.53349998E+02 -0.44810E+04
 0.53399998E+02 -0.46740E+04
 0.53449997E+02 -0.54104E+04
 0.53499996E+02 -0.63764E+04
 0.53549995E+02 -0.67003E+04
 0.53599998E+02 -0.75275E+04
 0.53649998E+02 -0.82342E+04
 0.53699997E+02 -0.81100E+04
 0.53749996E+02 -0.72951E+04
 0.53799995E+02 -0.70648E+04
 0.53849998E+02 -0.73038E+04
 0.53899998E+02 -0.79499E+04
 0.53949997E+02 -0.94892E+04
 0.53999996E+02 -0.10501E+05
 0.54049995E+02 -0.10116E+05
 0.54099998E+02 -0.82046E+04
 0.54149998E+02 -0.57562E+04
 0.54199997E+02 -0.44135E+04
 0.54249996E+02 -0.46389E+04
 0.54299995E+02 -0.53993E+04
 0.54349998E+02 -0.63930E+04
 0.54399998E+02 -0.76890E+04
 0.54449997E+02 -0.81770E+04
 0.54499996E+02 -0.79006E+04
 0.54549995E+02 -0.76022E+04
 0.54599998E+02 -0.68701E+04
 0.54649998E+02 -0.55075E+04
 0.54699997E+02 -0.30259E+04
 0.54749996E+02 -0.12842E+03
 0.54799995E+02  0.19441E+04
 0.54849998E+02  0.24825E+04
 0.54899998E+02  0.26492E+04
 0.54949997E+02  0.21840E+04
 0.54999996E+02  0.38777E+03
 0.55049995E+02 -0.16001E+04
 0.55099998E+02 -0.39624E+04
 0.55149998E+02 -0.67385E+04
 0.55199997E+02 -0.92763E+04
 0.55249996E+02 -0.10290E+05
 0.55299995E+02 -0.10908E+05
 0.55349998E+02 -0.11478E+05
 0.55399998E+02 -0.11442E+05
 0.55449997E+02 -0.11141E+05
 0.55499996E+02 -0.11030E+05
 0.55549995E+02 -0.11132E+05
 0.55599998E+02 -0.95571E+04
 0.55649998E+02 -0.77012E+04
 0.55699997E+02 -0.60269E+04
 0.55749996E+02 -0.35381E+04
 0.55799995E+02 -0.20645E+04
 0.55849995E+02 -0.19490E+04
 0.55899998E+02 -0.23844E+04
 0.55949997E+02 -0.32588E+04
 0.55999996E+02 -0.47108E+04
 0.56049995E+02 -0.59295E+04
 0.56099995E+02 -0.66328E+04
 0.56149998E+02 -0.63648E+04
 0.56199997E+02 -0.53122E+04
 0.56249996E+02 -0.56065E+04
 0.56299995E+02 -0.60639E+04
 0.56349995E+02 -0.59271E+04
 0.56399998E+02 -0.60409E+04
 0.56449997E+02 -0.59324E+04
 0.56499996E+02 -0.61188E+04
 0.56549995E+02 -0.61933E+04
 0.56599995E+02 -0.61325E+04
 0.56649998E+02 -0.68290E+04
 0.56699997E+02 -0.74026E+04
 0.56749996E+02 -0.67040E+04
 0.56799995E+02 -0.53106E+04
 0.56849995E+02 -0.46278E+04
 0.56899998E+02 -0.43982E+04
 0.56949997E+02 -0.42072E+04
 0.56999996E+02 -0.48398E+04
 0.57049995E+02 -0.63265E+04
 0.57099995E+02 -0.79860E+04
 0.57149998E+02 -0.94279E+04
 0.57199997E+02 -0.93026E+04
 0.57249996E+02 -0.86048E+04
 0.57299995E+02 -0.87008E+04
 0.57349995E+02 -0.82597E+04
 0.57399998E+02 -0.76896E+04
 0.57449997E+02 -0.75410E+04
 0.57499996E+02 -0.74114E+04
 0.57549995E+02 -0.76477E+04
 0.57599995E+02 -0.82552E+04
 0.57649998E+02 -0.80456E+04
 0.57699997E+02 -0.70930E+04
 0.57749996E+02 -0.59879E+04
 0.57799995E+02 -0.40142E+04
 0.57849995E+02 -0.17847E+04
 0.57899998E+02 -0.91880E+02
 0.57949997E+02  0.92235E+03
 0.57999996E+02  0.12230E+04
 0.58049995E+02  0.66549E+03
 0.58099995E+02 -0.11939E+04
 0.58149998E+02 -0.30261E+04
 0.58199997E+02 -0.41523E+04
 0.58249996E+02 -0.54465E+04
 0.58299995E+02 -0.72608E+04
 0.58349995E+02 -0.86526E+04
 0.58399998E+02 -0.91594E+04
 0.58449997E+02 -0.95843E+04
 0.58499996E+02 -0.10081E+05
 0.58549995E+02 -0.10335E+05
 0.58599995E+02 -0.95869E+04
 0.58649998E+02 -0.75215E+04
 0.58699997E+02 -0.51164E+04
 0.58749996E+02 -0.32979E+04
 0.58799995E+02 -0.24490E+04
 0.58849995E+02 -0.28747E+04
 0.58899998E+02 -0.41191E+04
 0.58949997E+02 -0.50503E+04
 0.58999996E+02 -0.53986E+04
 0.59049995E+02 -0.52783E+04
 0.59099995E+02 -0.52452E+04
 0.59149998E+02 -0.55227E+04
 0.59199997E+02 -0.57819E+04
 0.59249996E+02 -0.64468E+04
 0.59299995E+02 -0.73983E+04
 0.59349995E+02 -0.80539E+04
 0.59399998E+02 -0.80338E+04
 0.59449997E+02 -0.78250E+04
 0.59499996E+02 -0.75129E+04
 0.59549995E+02 -0.67177E+04
 0.59599995E+02 -0.64914E+04
 0.59649998E+02 -0.67781E+04
 0.59699997E+02 -0.74032E+04
 0.59749996E+02 -0.82249E+04
 0.59799995E+02 -0.85090E+04
 0.59849995E+02 -0.81808E+04
 0.59899998E+02 -0.72498E+04
 0.59949997E+02 -0.63261E+04
 0.59999996E+02 -0.55830E+04
 0.60049995E+02 -0.49269E+04
 0.60099995E+02 -0.39390E+04
 0.60149998E+02 -0.28524E+04
 0.60199997E+02 -0.21049E+04
 0.60249996E+02 -0.15991E+04
 0.60299995E+02 -0.16575E+04
 0.60349995E+02 -0.17656E+04
 0.60399998E+02 -0.20693E+04
 0.60449997E+02 -0.38231E+04
 0.60499996E+02 -0.61529E+04
 0.60549995E+02 -0.76241E+04
 0.60599995E+02 -0.85790E+04
 0.60649998E+02 -0.95024E+04
 0.60699997E+02 -0.10363E+05
 0.60749996E+02 -0.10617E+05
 0.60799995E+02 -0.10054E+05
 0.60849995E+02 -0.89302E+04
 0.60899998E+02 -0.81664E+04
 0.60949997E+02 -0.76743E+04
 0.60999996E+02 -0.71451E+04
 0.61049995E+02 -0.69205E+04
 0.61099995E+02 -0.65458E+04
 0.61149998E+02 -0.58070E+04
 0.61199997E+02 -0.49451E+04
 0.61249996E+02 -0.44682E+04
 0.61299995E+02 -0.39447E+04
 0.61349995E+02 -0.34050E+04
 0.61399998E+02 -0.34247E+04
 0.61449997E+02 -0.36327E+04
 0.61499996E+02 -0.36117E+04
 0.61549995E+02 -0.30873E+04
 0.61599995E+02 -0.29999E+04
 0.61649998E+02 -0.32691E+04
 0.61699997E+02 -0.38090E+04
 0.61749996E+02 -0.50241E+04
 0.61799995E+02 -0.60344E+04
 0.61849995E+02 -0.66910E+04
 0.61899998E+02 -0.69037E+04
 0.61949997E+02 -0.68277E+04
 0.61999996E+02 -0.67192E+04
 0.62049995E+02 -0.65735E+04
 0.62099998E+02 -0.67282E+04
 0.62149994E+02 -0.75408E+04
 0.62199997E+02 -0.77609E+04
 0.62249992E+02 -0.74442E+04
 0.62299995E+02 -0.72686E+04
 0.62349998E+02 -0.66872E+04
 0.62399994E+02 -0.55004E+04
 0.62449997E+02 -0.43879E+04
 0.62499992E+02 -0.37992E+04
 0.62549995E+02 -0.33491E+04
 0.62599998E+02 -0.36385E+04
 0.62649994E+02 -0.43546E+04
 0.62699997E+02 -0.55521E+04
 0.62749992E+02 -0.71078E+04
 0.62799995E+02 -0.83935E+04
 0.62849998E+02 -0.90809E+04
 0.62899994E+02 -0.95379E+04
 0.62949997E+02 -0.96067E+04
 0.62999992E+02 -0.88234E+04
 0.63049995E+02 -0.78714E+04
 0.63099998E+02 -0.64514E+04
 0.63149994E+02 -0.42545E+04
 0.63199997E+02 -0.23884E+04
 0.63249992E+02 -0.17050E+04
 0.63299995E+02 -0.13520E+04
 0.63349998E+02 -0.16833E+04
 0.63399994E+02 -0.25116E+04
 0.63449997E+02 -0.31790E+04
 0.63499992E+02 -0.43870E+04
 0.63549995E+02 -0.61155E+04
 0.63599998E+02 -0.76771E+04
 0.63649994E+02 -0.88387E+04
 0.63699997E+02 -0.99249E+04
 0.63749992E+02 -0.10772E+05
 0.63799995E+02 -0.11006E+05
 0.63849998E+02 -0.10742E+05
 0.63899994E+02 -0.99728E+04
 0.63949997E+02 -0.87081E+04
 0.63999992E+02 -0.74648E+04
 0.64049995E+02 -0.62770E+04
 0.64099998E+02 -0.50181E+04
 0.64149994E+02 -0.33656E+04
 0.64199997E+02 -0.15818E+04
 0.64249992E+02 -0.73021E+03
 0.64299995E+02 -0.10951E+04
 0.64349998E+02 -0.23524E+04
 0.64399994E+02 -0.37321E+04
 0.64449997E+02 -0.49941E+04
 0.64499992E+02 -0.63141E+04
 0.64549995E+02 -0.73667E+04
 0.64599998E+02 -0.80635E+04
 0.64649994E+02 -0.84639E+04
 0.64699997E+02 -0.85676E+04
 0.64749992E+02 -0.83649E+04
 0.64799995E+02 -0.78853E+04
 0.64849998E+02 -0.71472E+04
 0.64899994E+02 -0.66300E+04
 0.64949997E+02 -0.63764E+04
 0.64999992E+02 -0.62459E+04
 0.65049995E+02 -0.57511E+04
 0.65099998E+02 -0.48046E+04
 0.65149994E+02 -0.43521E+04
 0.65199997E+02 -0.45947E+04
 0.65249992E+02 -0.52580E+04
 0.65299995E+02 -0.55956E+04
 0.65349998E+02 -0.58345E+04
 0.65399994E+02 -0.62750E+04
 0.65449997E+02 -0.65265E+04
 0.65499992E+02 -0.66768E+04
 0.65549995E+02 -0.66675E+04
 0.65599998E+02 -0.63311E+04
 0.65649994E+02 -0.58220E+04
 0.65699997E+02 -0.50894E+04
 0.65749992E+02 -0.43798E+04
 0.65799995E+02 -0.40095E+04
 0.65849998E+02 -0.38790E+04
 0.65899994E+02 -0.38269E+04
 0.65949997E+02 -0.35514E+04
 0.65999992E+02 -0.31550E+04
 0.66049995E+02 -0.31030E+04
 0.66099998E+02 -0.34155E+04
 0.66149994E+02 -0.38563E+04
 0.66199997E+02 -0.43487E+04
 0.66249992E+02 -0.53230E+04
 0.66299995E+02 -0.68609E+04
 0.66349998E+02 -0.80308E+04
 0.66399994E+02 -0.87303E+04
 0.66449997E+02 -0.90551E+04
 0.66499992E+02 -0.89071E+04
 0.66549995E+02 -0.87647E+04
 0.66599998E+02 -0.88790E+04
 0.66649994E+02 -0.88434E+04
 0.66699997E+02 -0.86840E+04
 0.66749992E+02 -0.86002E+04
 0.66799995E+02 -0.84263E+04
 0.66849998E+02 -0.80372E+04
 0.66899994E+02 -0.72041E+04
 0.66949997E+02 -0.62023E+04
 0.66999992E+02 -0.53388E+04
 0.67049995E+02 -0.53299E+04
 0.67099998E+02 -0.59979E+04
 0.67149994E+02 -0.62655E+04
 0.67199997E+02 -0.56011E+04
 0.67249992E+02 -0.40822E+04
 0.67299995E+02 -0.26627E+04
 0.67349998E+02 -0.16724E+04
 0.67399994E+02 -0.10912E+04
 0.67449997E+02 -0.87429E+03
 0.67499992E+02 -0.11668E+04
 0.67549995E+02 -0.21007E+04
 0.67599998E+02 -0.30526E+04
 0.67649994E+02 -0.34874E+04
 0.67699997E+02 -0.36672E+04
 0.67749992E+02 -0.36516E+04
 0.67799995E+02 -0.38694E+04
 0.67849998E+02 -0.47099E+04
 0.67899994E+02 -0.58513E+04
 0.67949997E+02 -0.69679E+04
 0.67999992E+02 -0.79528E+04
 0.68049995E+02 -0.89737E+04
 0.68099998E+02 -0.98219E+04
 0.68149994E+02 -0.10365E+05
 0.68199997E+02 -0.10575E+05
 0.68249992E+02 -0.10535E+05
 0.68299995E+02 -0.10648E+05
 0.68349998E+02 -0.11004E+05
 0.68399994E+02 -0.11275E+05
 0.68449997E+02 -0.11216E+05
 0.68499992E+02 -0.10602E+05
 0.68549995E+02 -0.92644E+04
 0.68599998E+02 -0.74522E+04
 0.68649994E+02 -0.58493E+04
 0.68699997E+02 -0.46394E+04
 0.68749992E+02 -0.40616E+04
 0.68799995E+02 -0.40682E+04
 0.68849998E+02 -0.40119E+04
 0.68899994E+02 -0.38986E+04
 0.68949997E+02 -0.36770E+04
 0.68999992E+02 -0.31405E+04
 0.69049995E+02 -0.26004E+04
 0.69099998E+02 -0.21748E+04
 0.69149994E+02 -0.20354E+04
 0.69199997E+02 -0.20946E+04
 0.69249992E+02 -0.19191E+04
 0.69299995E+02 -0.22016E+04
 0.69349998E+02 -0.27754E+04
 0.69399994E+02 -0.31425E+04
 0.69449997E+02 -0.39053E+04
 0.69499992E+02 -0.48264E+04
 0.69549995E+02 -0.55784E+04
 0.69599998E+02 -0.64654E+04
 0.69649994E+02 -0.72485E+04
 0.69699997E+02 -0.78260E+04
 0.69749992E+02 -0.83170E+04
 0.69799995E+02 -0.85527E+04
 0.69849998E+02 -0.86331E+04
 0.69899994E+02 -0.88469E+04
 0.69949997E+02 -0.89311E+04
 0.69999992E+02 -0.89108E+04
 0.70049995E+02 -0.94074E+04
 0.70099998E+02 -0.96755E+04
 0.70149994E+02 -0.95546E+04
 0.70199997E+02 -0.92887E+04
 0.70249992E+02 -0.85302E+04
 0.70299995E+02 -0.78297E+04
 0.70349998E+02 -0.76085E+04
 0.70399994E+02 -0.74429E+04
 0.70449997E+02 -0.67771E+04
 0.70499992E+02 -0.56397E+04
 0.70549995E+02 -0.41201E+04
 0.70599998E+02 -0.26810E+04
 0.70649994E+02 -0.18612E+04
 0.70699997E+02 -0.17581E+04
 0.70749992E+02 -0.21213E+04
 0.70799995E+02 -0.25188E+04
 0.70849998E+02 -0.28835E+04
 0.70899994E+02 -0.34217E+04
 0.70949997E+02 -0.38539E+04
 0.70999992E+02 -0.43252E+04
 0.71049995E+02 -0.50274E+04
 0.71099998E+02 -0.57177E+04
 0.71149994E+02 -0.63379E+04
 0.71199997E+02 -0.62913E+04
 0.71249992E+02 -0.57419E+04
 0.71299995E+02 -0.51026E+04
 0.71349998E+02 -0.47926E+04
 0.71399994E+02 -0.49505E+04
 0.71449997E+02 -0.53399E+04
 0.71499992E+02 -0.59256E+04
 0.71549995E+02 -0.63750E+04
 0.71599998E+02 -0.67099E+04
 0.71649994E+02 -0.73704E+04
 0.71699997E+02 -0.79150E+04
 0.71749992E+02 -0.77872E+04
 0.71799995E+02 -0.72341E+04
 0.71849998E+02 -0.64870E+04
 0.71899994E+02 -0.59847E+04
 0.71949997E+02 -0.57482E+04
 0.71999992E+02 -0.54225E+04
 0.72049995E+02 -0.50043E+04
 0.72099998E+02 -0.48761E+04
 0.72149994E+02 -0.51313E+04
 0.72199997E+02 -0.56832E+04
 0.72249992E+02 -0.61380E+04
 0.72299995E+02 -0.62227E+04
 0.72349998E+02 -0.62396E+04
 0.72399994E+02 -0.61271E+04
 0.72449997E+02 -0.61711E+04
 0.72499992E+02 -0.60434E+04
 0.72549995E+02 -0.54616E+04
 0.72599998E+02 -0.51491E+04
 0.72649994E+02 -0.53115E+04
 0.72699997E+02 -0.55704E+04
 0.72749992E+02 -0.59469E+04
 0.72799995E+02 -0.67005E+04
 0.72849998E+02 -0.74574E+04
 0.72899994E+02 -0.81388E+04
 0.72949997E+02 -0.86353E+04
 0.72999992E+02 -0.87366E+04
 0.73049995E+02 -0.82721E+04
 0.73099998E+02 -0.72521E+04
 0.73149994E+02 -0.65248E+04
 0.73199997E+02 -0.64202E+04
 0.73249992E+02 -0.63831E+04
 0.73299995E+02 -0.64754E+04
 0.73349998E+02 -0.66230E+04
 0.73399994E+02 -0.65841E+04
 0.73449997E+02 -0.66416E+04
 0.73499992E+02 -0.65713E+04
 0.73549995E+02 -0.60911E+04
 0.73599998E+02 -0.57336E+04
 0.73649994E+02 -0.56326E+04
 0.73699997E+02 -0.52712E+04
 0.73749992E+02 -0.47498E+04
 0.73799995E+02 -0.40939E+04
 0.73849998E+02 -0.33401E+04
 0.73899994E+02 -0.26867E+04
 0.73949997E+02 -0.21815E+04
 0.73999992E+02 -0.24188E+04
 0.74049995E+02 -0.35665E+04
 0.74099998E+02 -0.48077E+04
 0.74149994E+02 -0.57970E+04
 0.74199997E+02 -0.65231E+04
 0.74249992E+02 -0.72306E+04
 0.74299995E+02 -0.80248E+04
 0.74349998E+02 -0.84969E+04
 0.74399994E+02 -0.84331E+04
 0.74449997E+02 -0.78570E+04
 0.74499992E+02 -0.69230E+04
 0.74549995E+02 -0.57282E+04
 0.74599998E+02 -0.47060E+04
 0.74649994E+02 -0.42614E+04
 0.74699997E+02 -0.44319E+04
 0.74749992E+02 -0.50630E+04
 0.74799995E+02 -0.56253E+04
 0.74849998E+02 -0.61393E+04
 0.74899994E+02 -0.68442E+04
 0.74949997E+02 -0.71681E+04
 0.74999992E+02 -0.70245E+04
 0.75049995E+02 -0.65822E+04
 0.75099998E+02 -0.60456E+04
 0.75149994E+02 -0.57379E+04
 0.75199997E+02 -0.54978E+04
 0.75249992E+02 -0.51116E+04
 0.75299995E+02 -0.46117E+04
 0.75349998E+02 -0.44365E+04
 0.75399994E+02 -0.47075E+04
 0.75449997E+02 -0.52100E+04
 0.75499992E+02 -0.59730E+04
 0.75549995E+02 -0.68911E+04
 0.75599998E+02 -0.74985E+04
 0.75649994E+02 -0.76590E+04
 0.75699997E+02 -0.76032E+04
 0.75749992E+02 -0.71277E+04
 0.75799995E+02 -0.65860E+04
 0.75849998E+02 -0.62509E+04
 0.75899994E+02 -0.59709E+04
 0.75949997E+02 -0.60016E+04
 0.75999992E+02 -0.62646E+04
 0.76049995E+02 -0.65688E+04
 0.76099998E+02 -0.66501E+04
 0.76149994E+02 -0.64328E+04
 0.76199997E+02 -0.59518E+04
 0.76249992E+02 -0.55508E+04
 0.76299995E+02 -0.52247E+04
 0.76349998E+02 -0.48090E+04
 0.76399994E+02 -0.46465E+04
 0.76449997E+02 -0.45682E+04
 0.76499992E+02 -0.43201E+04
 0.76549995E+02 -0.42122E+04
 0.76599998E+02 -0.44460E+04
 0.76649994E+02 -0.49618E+04
 0.76699997E+02 -0.57669E+04
 0.76749992E+02 -0.65622E+04
 0.76799995E+02 -0.69272E+04
 0.76849998E+02 -0.67512E+04
 0.76899994E+02 -0.65412E+04
 0.76949997E+02 -0.62788E+04
 0.76999992E+02 -0.56264E+04
 0.77049995E+02 -0.47575E+04
 0.77099998E+02 -0.40758E+04
 0.77149994E+02 -0.38910E+04
 0.77199997E+02 -0.41505E+04
 0.77249992E+02 -0.45880E+04
 0.77299995E+02 -0.50100E+04
 0.77349998E+02 -0.55318E+04
 0.77399994E+02 -0.60644E+04
 0.77449997E+02 -0.63857E+04
 0.77499992E+02 -0.65027E+04
 0.77549995E+02 -0.66178E+04
 0.77599998E+02 -0.69074E+04
 0.77649994E+02 -0.71459E+04
 0.77699997E+02 -0.73003E+04
 0.77749992E+02 -0.75768E+04
 0.77799995E+02 -0.76769E+04
 0.77849998E+02 -0.75280E+04
 0.77899994E+02 -0.71720E+04
 0.77949997E+02 -0.66095E+04
 0.77999992E+02 -0.61165E+04
 0.78049995E+02 -0.59796E+04
 0.78099998E+02 -0.62692E+04
 0.78149994E+02 -0.66794E+04
 0.78199997E+02 -0.67195E+04
 0.78249992E+02 -0.63505E+04
 0.78299995E+02 -0.60053E+04
 0.78349998E+02 -0.58257E+04
 0.78399994E+02 -0.56789E+04
 0.78449997E+02 -0.55591E+04
 0.78499992E+02 -0.53896E+04
 0.78549995E+02 -0.51917E+04
 0.78599998E+02 -0.52036E+04
 0.78649994E+02 -0.55379E+04
 0.78699997E+02 -0.60185E+04
 0.78749992E+02 -0.64897E+04
 0.78799995E+02 -0.68524E+04
 0.78849998E+02 -0.71177E+04
 0.78899994E+02 -0.73219E+04
 0.78949997E+02 -0.73998E+04
 0.78999992E+02 -0.74405E+04
 0.79049995E+02 -0.72711E+04
 0.79099998E+02 -0.69047E+04
 0.79149994E+02 -0.63317E+04
 0.79199997E+02 -0.56348E+04
 0.79249992E+02 -0.50835E+04
 0.79299995E+02 -0.46810E+04
 0.79349998E+02 -0.42569E+04
 0.79399994E+02 -0.39891E+04
 0.79449997E+02 -0.40680E+04
 0.79499992E+02 -0.42168E+04
 0.79549995E+02 -0.43371E+04
 0.79599998E+02 -0.44006E+04
 0.79649994E+02 -0.43073E+04
 0.79699997E+02 -0.41739E+04
 0.79749992E+02 -0.43476E+04
 0.79799995E+02 -0.49479E+04
 0.79849998E+02 -0.56649E+04
 0.79899994E+02 -0.63729E+04
 0.79949997E+02 -0.69959E+04
 0.79999992E+02 -0.73093E+04
 0.80049995E+02 -0.72410E+04
 0.80099998E+02 -0.69012E+04
 0.80149994E+02 -0.65420E+04
 0.80199997E+02 -0.62032E+04
 0.80249992E+02 -0.60161E+04
 0.80299995E+02 -0.59992E+04
 0.80349998E+02 -0.59920E+04
 0.80399994E+02 -0.58960E+04
 0.80449997E+02 -0.59838E+04
 0.80499992E+02 -0.62847E+04
 0.80549995E+02 -0.65347E+04
 0.80599998E+02 -0.66950E+04
 0.80649994E+02 -0.67301E+04
 0.80699997E+02 -0.66549E+04
 0.80749992E+02 -0.63584E+04
 0.80799995E+02 -0.57798E+04
 0.80849998E+02 -0.51873E+04
 0.80899994E+02 -0.48974E+04
 0.80949997E+02 -0.49232E+04
 0.80999992E+02 -0.49878E+04
 0.81049995E+02 -0.49411E+04
 0.81099998E+02 -0.47574E+04
 0.81149994E+02 -0.46493E+04
 0.81199997E+02 -0.47708E+04
 0.81249992E+02 -0.48307E+04
 0.81299995E+02 -0.48002E+04
 0.81349998E+02 -0.48051E+04
 0.81399994E+02 -0.49189E+04
 0.81449997E+02 -0.53336E+04
 0.81499992E+02 -0.60009E+04
 0.81549995E+02 -0.66832E+04
 0.81599998E+02 -0.73059E+04
 0.81649994E+02 -0.76765E+04
 0.81699997E+02 -0.78342E+04
 0.81749992E+02 -0.77481E+04
 0.81799995E+02 -0.73015E+04
 0.81849998E+02 -0.67724E+04
 0.81899994E+02 -0.63397E+04
 0.81949997E+02 -0.61983E+04
 0.81999992E+02 -0.62927E+04
 0.82049995E+02 -0.65403E+04
 0.82099998E+02 -0.69422E+04
 0.82149994E+02 -0.72217E+04
 0.82199997E+02 -0.73202E+04
 0.82249992E+02 -0.73219E+04
 0.82299995E+02 -0.73577E+04
 0.82349998E+02 -0.71985E+04
 0.82399994E+02 -0.67700E+04
 0.82449997E+02 -0.63039E+04
 0.82499992E+02 -0.58855E+04
 0.82549995E+02 -0.55292E+04
 0.82599998E+02 -0.52549E+04
 0.82649994E+02 -0.50860E+04
 0.82699997E+02 -0.49128E+04
 0.82749992E+02 -0.49517E+04
 0.82799995E+02 -0.51459E+04
 0.82849998E+02 -0.53657E+04
 0.82899994E+02 -0.54984E+04
 0.82949997E+02 -0.55848E+04
 0.82999992E+02 -0.57080E+04
 0.83049995E+02 -0.57773E+04
 0.83099998E+02 -0.58649E+04
 0.83149994E+02 -0.57851E+04
 0.83199997E+02 -0.56249E+04
 0.83249992E+02 -0.56696E+04
 0.83299995E+02 -0.58821E+04
 0.83349998E+02 -0.62236E+04
 0.83399994E+02 -0.66050E+04
 0.83449997E+02 -0.67676E+04
 0.83499992E+02 -0.68557E+04
 0.83549995E+02 -0.69531E+04
 0.83599998E+02 -0.68602E+04
 0.83649994E+02 -0.65351E+04
 0.83699997E+02 -0.62560E+04
 0.83749992E+02 -0.62275E+04
 0.83799995E+02 -0.62511E+04
 0.83849998E+02 -0.61255E+04
 0.83899994E+02 -0.58478E+04
 0.83949997E+02 -0.54377E+04
 0.83999992E+02 -0.49215E+04
 0.84049995E+02 -0.44442E+04
 0.84099998E+02 -0.40642E+04
 0.84149994E+02 -0.39230E+04
 0.84199997E+02 -0.41959E+04
 0.84249992E+02 -0.47520E+04
 0.84299995E+02 -0.52386E+04
 0.84349998E+02 -0.54879E+04
 0.84399994E+02 -0.55326E+04
 0.84449997E+02 -0.54142E+04
 0.84499992E+02 -0.51021E+04
 0.84549995E+02 -0.49192E+04
 0.84599998E+02 -0.49973E+04
 0.84649994E+02 -0.53977E+04
 0.84699997E+02 -0.58976E+04
 0.84749992E+02 -0.61911E+04
 0.84799995E+02 -0.64817E+04
 0.84849998E+02 -0.65670E+04
 0.84899994E+02 -0.66001E+04
 0.84949997E+02 -0.67074E+04
 0.84999992E+02 -0.67944E+04
 0.85049995E+02 -0.68061E+04
 0.85099998E+02 -0.66979E+04
 0.85149994E+02 -0.65473E+04
 0.85199997E+02 -0.64817E+04
 0.85249992E+02 -0.63978E+04
 0.85299995E+02 -0.61329E+04
 0.85349998E+02 -0.59229E+04
 0.85399994E+02 -0.58851E+04
 0.85449997E+02 -0.59108E+04
 0.85499992E+02 -0.57745E+04
 0.85549995E+02 -0.55123E+04
 0.85599998E+02 -0.52538E+04
 0.85649994E+02 -0.49504E+04
 0.85699997E+02 -0.46917E+04
 0.85749992E+02 -0.46234E+04
 0.85799995E+02 -0.48264E+04
 0.85849998E+02 -0.52153E+04
 0.85899994E+02 -0.56039E+04
 0.85949997E+02 -0.60108E+04
 0.85999992E+02 -0.64471E+04
 0.86049995E+02 -0.66573E+04
 0.86099998E+02 -0.65570E+04
 0.86149994E+02 -0.65328E+04
 0.86199997E+02 -0.66051E+04
 0.86249992E+02 -0.65046E+04
 0.86299995E+02 -0.63167E+04
 0.86349998E+02 -0.61882E+04
 0.86399994E+02 -0.61494E+04
 0.86449997E+02 -0.60547E+04
 0.86499992E+02 -0.57885E+04
 0.86549995E+02 -0.53900E+04
 0.86599998E+02 -0.51292E+04
 0.86649994E+02 -0.50655E+04
 0.86699997E+02 -0.50757E+04
 0.86749992E+02 -0.52153E+04
 0.86799995E+02 -0.54297E+04
 0.86849998E+02 -0.58208E+04
 0.86899994E+02 -0.64173E+04
 0.86949997E+02 -0.70290E+04
 0.86999992E+02 -0.76340E+04
 0.87049995E+02 -0.81463E+04
 0.87099998E+02 -0.83853E+04
 0.87149994E+02 -0.82101E+04
 0.87199997E+02 -0.77040E+04
 0.87249992E+02 -0.70485E+04
 0.87299995E+02 -0.64515E+04
 0.87349998E+02 -0.58868E+04
 0.87399994E+02 -0.53485E+04
 0.87449997E+02 -0.49331E+04
 0.87499992E+02 -0.47737E+04
 0.87549995E+02 -0.49406E+04
 0.87599991E+02 -0.52171E+04
 0.87649994E+02 -0.54712E+04
 0.87699997E+02 -0.56902E+04
 0.87749992E+02 -0.58501E+04
 0.87799995E+02 -0.59703E+04
 0.87849991E+02 -0.60926E+04
 0.87899994E+02 -0.61264E+04
 0.87949997E+02 -0.61587E+04
 0.87999992E+02 -0.61047E+04
 0.88049995E+02 -0.60244E+04
 0.88099991E+02 -0.58857E+04
 0.88149994E+02 -0.56084E+04
 0.88199997E+02 -0.52607E+04
 0.88249992E+02 -0.48733E+04
 0.88299995E+02 -0.45597E+04
 0.88349991E+02 -0.45017E+04
 0.88399994E+02 -0.47367E+04
 0.88449997E+02 -0.50609E+04
 0.88499992E+02 -0.55184E+04
 0.88549995E+02 -0.60902E+04
 0.88599991E+02 -0.65412E+04
 0.88649994E+02 -0.66885E+04
 0.88699997E+02 -0.65092E+04
 0.88749992E+02 -0.61103E+04
 0.88799995E+02 -0.57113E+04
 0.88849991E+02 -0.54645E+04
 0.88899994E+02 -0.53242E+04
 0.88949997E+02 -0.53522E+04
 0.88999992E+02 -0.55121E+04
 0.89049995E+02 -0.55768E+04
 0.89099991E+02 -0.57233E+04
 0.89149994E+02 -0.59663E+04
 0.89199997E+02 -0.63187E+04
 0.89249992E+02 -0.67727E+04
 0.89299995E+02 -0.70102E+04
 0.89349991E+02 -0.70600E+04
 0.89399994E+02 -0.71815E+04
 0.89449997E+02 -0.73545E+04
 0.89499992E+02 -0.74053E+04
 0.89549995E+02 -0.72530E+04
 0.89599991E+02 -0.68175E+04
 0.89649994E+02 -0.63657E+04
 0.89699997E+02 -0.59453E+04
 0.89749992E+02 -0.54914E+04
 0.89799995E+02 -0.50814E+04
 0.89849991E+02 -0.47794E+04
 0.89899994E+02 -0.46896E+04
 0.89949997E+02 -0.47180E+04
 0.89999992E+02 -0.49772E+04
 0.90049995E+02 -0.54068E+04
 0.90099991E+02 -0.58844E+04
 0.90149994E+02 -0.63555E+04
 0.90199997E+02 -0.66121E+04
 0.90249992E+02 -0.65372E+04
 0.90299995E+02 -0.63397E+04
 0.90349991E+02 -0.61229E+04
 0.90399994E+02 -0.58113E+04
 0.90449997E+02 -0.55116E+04
 0.90499992E+02 -0.52395E+04
 0.90549995E+02 -0.50942E+04
 0.90599991E+02 -0.51751E+04
 0.90649994E+02 -0.54573E+04
 0.90699997E+02 -0.58425E+04
 0.90749992E+02 -0.62115E+04
 0.90799995E+02 -0.65004E+04
 0.90849991E+02 -0.65761E+04
 0.90899994E+02 -0.63571E+04
 0.90949997E+02 -0.60753E+04
 0.90999992E+02 -0.59086E+04
 0.91049995E+02 -0.58194E+04
 0.91099991E+02 -0.57876E+04
 0.91149994E+02 -0.57318E+04
 0.91199997E+02 -0.56008E+04
 0.91249992E+02 -0.53738E+04
 0.91299995E+02 -0.51918E+04
 0.91349991E+02 -0.51789E+04
 0.91399994E+02 -0.53382E+04
 0.91449997E+02 -0.55235E+04
 0.91499992E+02 -0.56049E+04
 0.91549995E+02 -0.57469E+04
 0.91599991E+02 -0.59902E+04
 0.91649994E+02 -0.61500E+04
 0.91699997E+02 -0.61383E+04
 0.91749992E+02 -0.61439E+04
 0.91799995E+02 -0.62532E+04
 0.91849991E+02 -0.64737E+04
 0.91899994E+02 -0.66714E+04
 0.91949997E+02 -0.67763E+04
 0.91999992E+02 -0.69698E+04
 0.92049995E+02 -0.71584E+04
 0.92099991E+02 -0.70858E+04
 0.92149994E+02 -0.68619E+04
 0.92199997E+02 -0.65708E+04
 0.92249992E+02 -0.62754E+04
 0.92299995E+02 -0.61535E+04
 0.92349991E+02 -0.61710E+04
 0.92399994E+02 -0.61261E+04
 0.92449997E+02 -0.58712E+04
 0.92499992E+02 -0.54756E+04
 0.92549995E+02 -0.49467E+04
 0.92599991E+02 -0.44752E+04
 0.92649994E+02 -0.42367E+04
 0.92699997E+02 -0.43095E+04
 0.92749992E+02 -0.46448E+04
 0.92799995E+02 -0.49582E+04
 0.92849991E+02 -0.52532E+04
 0.92899994E+02 -0.56007E+04
 0.92949997E+02 -0.60272E+04
 0.92999992E+02 -0.63962E+04
 0.93049995E+02 -0.65828E+04
 0.93099991E+02 -0.67340E+04
 0.93149994E+02 -0.69344E+04
 0.93199997E+02 -0.71036E+04
 0.93249992E+02 -0.71350E+04
 0.93299995E+02 -0.69344E+04
 0.93349991E+02 -0.64798E+04
 0.93399994E+02 -0.60191E+04
 0.93449997E+02 -0.57709E+04
 0.93499992E+02 -0.56638E+04
 0.93549995E+02 -0.56047E+04
 0.93599991E+02 -0.55555E+04
 0.93649994E+02 -0.55790E+04
 0.93699997E+02 -0.57170E+04
 0.93749992E+02 -0.59036E+04
 0.93799995E+02 -0.60755E+04
 0.93849991E+02 -0.61528E+04
 0.93899994E+02 -0.60589E+04
 0.93949997E+02 -0.57188E+04
 0.93999992E+02 -0.52751E+04
 0.94049995E+02 -0.49619E+04
 0.94099991E+02 -0.48929E+04
 0.94149994E+02 -0.50936E+04
 0.94199997E+02 -0.54359E+04
 0.94249992E+02 -0.56705E+04
 0.94299995E+02 -0.56452E+04
 0.94349991E+02 -0.55116E+04
 0.94399994E+02 -0.55057E+04
 0.94449997E+02 -0.57349E+04
 0.94499992E+02 -0.60388E+04
 0.94549995E+02 -0.62367E+04
 0.94599991E+02 -0.63875E+04
 0.94649994E+02 -0.64578E+04
 0.94699997E+02 -0.64319E+04
 0.94749992E+02 -0.63216E+04
 0.94799995E+02 -0.61745E+04
 0.94849991E+02 -0.59310E+04
 0.94899994E+02 -0.56130E+04
 0.94949997E+02 -0.53216E+04
 0.94999992E+02 -0.51911E+04
 0.95049995E+02 -0.52563E+04
 0.95099991E+02 -0.54804E+04
 0.95149994E+02 -0.57933E+04
 0.95199997E+02 -0.60321E+04
 0.95249992E+02 -0.62800E+04
 0.95299995E+02 -0.65210E+04
 0.95349991E+02 -0.67014E+04
 0.95399994E+02 -0.68062E+04
 0.95449997E+02 -0.67592E+04
 0.95499992E+02 -0.65527E+04
 0.95549995E+02 -0.62968E+04
 0.95599991E+02 -0.60442E+04
 0.95649994E+02 -0.58682E+04
 0.95699997E+02 -0.57673E+04
 0.95749992E+02 -0.57398E+04
 0.95799995E+02 -0.57861E+04
 0.95849991E+02 -0.58941E+04
 0.95899994E+02 -0.60597E+04
 0.95949997E+02 -0.63337E+04
 0.95999992E+02 -0.66577E+04
 0.96049995E+02 -0.68373E+04
 0.96099991E+02 -0.68634E+04
 0.96149994E+02 -0.68345E+04
 0.96199997E+02 -0.68763E+04
 0.96249992E+02 -0.68606E+04
 0.96299995E+02 -0.67494E+04
 0.96349991E+02 -0.66235E+04
 0.96399994E+02 -0.64711E+04
 0.96449997E+02 -0.63423E+04
 0.96499992E+02 -0.62007E+04
 0.96549995E+02 -0.59286E+04
 0.96599991E+02 -0.54924E+04
 0.96649994E+02 -0.49616E+04
 0.96699997E+02 -0.45601E+04
 0.96749992E+02 -0.45764E+04
 0.96799995E+02 -0.50631E+04
 0.96849991E+02 -0.57679E+04
 0.96899994E+02 -0.63065E+04
 0.96949997E+02 -0.65415E+04
 0.96999992E+02 -0.65759E+04
 0.97049995E+02 -0.64806E+04
 0.97099991E+02 -0.62271E+04
 0.97149994E+02 -0.59348E+04
 0.97199997E+02 -0.56763E+04
 0.97249992E+02 -0.54506E+04
 0.97299995E+02 -0.52647E+04
 0.97349991E+02 -0.51025E+04
 0.97399994E+02 -0.50362E+04
 0.97449997E+02 -0.50490E+04
 0.97499992E+02 -0.50665E+04
 0.97549995E+02 -0.51305E+04
 0.97599991E+02 -0.52134E+04
 0.97649994E+02 -0.51909E+04
 0.97699997E+02 -0.51588E+04
 0.97749992E+02 -0.52355E+04
 0.97799995E+02 -0.54195E+04
 0.97849991E+02 -0.56291E+04
 0.97899994E+02 -0.57876E+04
 0.97949997E+02 -0.58034E+04
 0.97999992E+02 -0.57678E+04
