-0.20000000E+01  0.43725E+04
-0.19500000E+01  0.38340E+04
-0.19000000E+01  0.33988E+04
-0.18500000E+01  0.31420E+04
-0.18000000E+01  0.29872E+04
-0.17500000E+01  0.28685E+04
-0.17000000E+01  0.28472E+04
-0.16500001E+01  0.28557E+04
-0.16000000E+01  0.28528E+04
-0.15500000E+01  0.29917E+04
-0.15000000E+01  0.32590E+04
-0.14500000E+01  0.35329E+04
-0.14000001E+01  0.37374E+04
-0.13500000E+01  0.38082E+04
-0.13000001E+01  0.37788E+04
-0.12500000E+01  0.37959E+04
-0.12000000E+01  0.39906E+04
-0.11500001E+01  0.44071E+04
-0.11000000E+01  0.49575E+04
-0.10500001E+01  0.53887E+04
-0.10000000E+01  0.53292E+04
-0.95000005E+00  0.46770E+04
-0.90000010E+00  0.35127E+04
-0.85000002E+00  0.19062E+04
-0.80000007E+00  0.70491E+02
-0.75000012E+00 -0.17673E+04
-0.70000005E+00 -0.34180E+04
-0.65000010E+00 -0.49941E+04
-0.60000014E+00 -0.67579E+04
-0.55000007E+00 -0.87649E+04
-0.50000012E+00 -0.10932E+05
-0.45000005E+00 -0.13060E+05
-0.40000010E+00 -0.14792E+05
-0.35000014E+00 -0.15798E+05
-0.30000007E+00 -0.16094E+05
-0.25000012E+00 -0.15911E+05
-0.20000005E+00 -0.15391E+05
-0.15000010E+00 -0.14622E+05
-0.10000014E+00 -0.13746E+05
-0.50000072E-01 -0.12780E+05
-0.11920929E-06 -0.11692E+05
 0.49999952E-01 -0.10434E+05
 0.99999905E-01 -0.89305E+04
 0.14999986E+00 -0.72432E+04
 0.19999981E+00 -0.54649E+04
 0.24999976E+00 -0.36576E+04
 0.29999995E+00 -0.19931E+04
 0.34999990E+00 -0.61170E+03
 0.39999986E+00  0.43261E+03
 0.44999981E+00  0.10867E+04
 0.49999976E+00  0.13350E+04
 0.54999995E+00  0.12037E+04
 0.59999990E+00  0.75034E+03
 0.64999986E+00 -0.48902E+01
 0.69999981E+00 -0.10042E+04
 0.74999976E+00 -0.21000E+04
 0.79999971E+00 -0.31279E+04
 0.84999990E+00 -0.39826E+04
 0.89999986E+00 -0.46592E+04
 0.94999981E+00 -0.51350E+04
 0.99999976E+00 -0.53404E+04
 0.10499997E+01 -0.52510E+04
 0.10999999E+01 -0.49488E+04
 0.11499999E+01 -0.45961E+04
 0.11999998E+01 -0.42412E+04
 0.12499998E+01 -0.38510E+04
 0.12999997E+01 -0.34126E+04
 0.13499999E+01 -0.28533E+04
 0.13999999E+01 -0.21120E+04
 0.14499998E+01 -0.11937E+04
 0.14999998E+01 -0.95795E+02
 0.15499997E+01  0.11432E+04
 0.15999999E+01  0.24608E+04
 0.16499999E+01  0.37599E+04
 0.16999998E+01  0.50536E+04
 0.17499998E+01  0.64457E+04
 0.17999997E+01  0.78648E+04
 0.18499997E+01  0.91210E+04
 0.18999999E+01  0.10148E+05
 0.19499998E+01  0.11017E+05
 0.19999998E+01  0.11695E+05
 0.20499997E+01  0.12169E+05
 0.20999999E+01  0.12542E+05
 0.21499996E+01  0.12920E+05
 0.21999998E+01  0.13250E+05
 0.22499995E+01  0.13343E+05
 0.22999997E+01  0.13118E+05
 0.23499999E+01  0.12523E+05
 0.23999996E+01  0.11532E+05
 0.24499998E+01  0.10270E+05
 0.24999995E+01  0.88443E+04
 0.25499997E+01  0.73409E+04
 0.25999999E+01  0.59219E+04
 0.26499996E+01  0.47071E+04
 0.26999998E+01  0.37197E+04
 0.27499995E+01  0.31102E+04
 0.27999997E+01  0.31491E+04
 0.28499999E+01  0.39086E+04
 0.28999996E+01  0.52841E+04
 0.29499998E+01  0.70532E+04
 0.29999995E+01  0.88963E+04
 0.30499997E+01  0.10518E+05
 0.30999999E+01  0.11697E+05
 0.31499996E+01  0.12291E+05
 0.31999998E+01  0.12316E+05
 0.32499995E+01  0.11947E+05
 0.32999997E+01  0.11199E+05
 0.33499999E+01  0.99920E+04
 0.33999996E+01  0.84091E+04
 0.34499998E+01  0.64497E+04
 0.34999995E+01  0.41969E+04
 0.35499997E+01  0.19152E+04
 0.35999994E+01 -0.20677E+03
 0.36499996E+01 -0.19876E+04
 0.36999998E+01 -0.33607E+04
 0.37499995E+01 -0.44141E+04
 0.37999997E+01 -0.52078E+04
 0.38499994E+01 -0.58968E+04
 0.38999996E+01 -0.66044E+04
 0.39499998E+01 -0.72539E+04
 0.39999995E+01 -0.78635E+04
 0.40499997E+01 -0.83982E+04
 0.40999994E+01 -0.87275E+04
 0.41499996E+01 -0.88351E+04
 0.41999998E+01 -0.87845E+04
 0.42499995E+01 -0.86577E+04
 0.42999997E+01 -0.85034E+04
 0.43499994E+01 -0.83183E+04
 0.43999996E+01 -0.80054E+04
 0.44499998E+01 -0.75404E+04
 0.44999995E+01 -0.69749E+04
 0.45499997E+01 -0.61761E+04
 0.45999994E+01 -0.50587E+04
 0.46499996E+01 -0.37222E+04
 0.46999998E+01 -0.22960E+04
 0.47499995E+01 -0.90619E+03
 0.47999997E+01  0.36882E+03
 0.48499994E+01  0.15192E+04
 0.48999996E+01  0.25480E+04
 0.49499998E+01  0.35129E+04
 0.49999995E+01  0.45307E+04
 0.50499997E+01  0.56108E+04
 0.50999994E+01  0.67133E+04
 0.51499996E+01  0.77584E+04
 0.51999998E+01  0.86045E+04
 0.52499995E+01  0.91667E+04
 0.52999997E+01  0.94088E+04
 0.53499994E+01  0.94477E+04
 0.53999996E+01  0.94914E+04
 0.54499993E+01  0.95217E+04
 0.54999995E+01  0.94986E+04
 0.55499997E+01  0.94681E+04
 0.55999994E+01  0.94593E+04
 0.56499996E+01  0.94805E+04
 0.56999993E+01  0.93765E+04
 0.57499995E+01  0.90626E+04
 0.57999997E+01  0.86630E+04
 0.58499994E+01  0.81489E+04
 0.58999996E+01  0.73963E+04
 0.59499993E+01  0.64620E+04
 0.59999995E+01  0.54561E+04
 0.60499992E+01  0.44077E+04
 0.60999994E+01  0.33951E+04
 0.61499996E+01  0.25688E+04
 0.61999998E+01  0.19209E+04
 0.62499990E+01  0.13543E+04
 0.62999992E+01  0.85488E+03
 0.63499994E+01  0.42776E+03
 0.63999996E+01  0.91732E+02
 0.64499998E+01 -0.13223E+03
 0.64999990E+01 -0.11954E+03
 0.65499992E+01  0.32773E+03
 0.65999994E+01  0.11351E+04
 0.66499996E+01  0.21486E+04
 0.66999998E+01  0.32629E+04
 0.67499990E+01  0.42969E+04
 0.67999992E+01  0.51185E+04
 0.68499994E+01  0.57814E+04
 0.68999996E+01  0.61547E+04
 0.69499998E+01  0.60627E+04
 0.69999990E+01  0.56992E+04
 0.70499992E+01  0.52840E+04
 0.70999994E+01  0.48727E+04
 0.71499996E+01  0.44811E+04
 0.71999998E+01  0.41743E+04
 0.72499990E+01  0.39102E+04
 0.72999992E+01  0.36323E+04
 0.73499994E+01  0.33279E+04
 0.73999996E+01  0.28963E+04
 0.74499998E+01  0.22430E+04
 0.74999990E+01  0.14354E+04
 0.75499992E+01  0.65279E+03
 0.75999994E+01 -0.34425E+02
 0.76499996E+01 -0.65270E+03
 0.76999998E+01 -0.10925E+04
 0.77499990E+01 -0.11368E+04
 0.77999992E+01 -0.63387E+03
 0.78499994E+01  0.40815E+03
 0.78999996E+01  0.17406E+04
 0.79499998E+01  0.30606E+04
 0.79999990E+01  0.41367E+04
 0.80499992E+01  0.48244E+04
 0.80999994E+01  0.50947E+04
 0.81499996E+01  0.50987E+04
 0.81999998E+01  0.50246E+04
 0.82499990E+01  0.48486E+04
 0.82999992E+01  0.45572E+04
 0.83499994E+01  0.41007E+04
 0.83999996E+01  0.34855E+04
 0.84499998E+01  0.28878E+04
 0.84999990E+01  0.23757E+04
 0.85499992E+01  0.18239E+04
 0.85999994E+01  0.11693E+04
 0.86499996E+01  0.50426E+03
 0.86999998E+01 -0.21384E+03
 0.87499990E+01 -0.10871E+04
 0.87999992E+01 -0.20199E+04
 0.88499994E+01 -0.28570E+04
 0.88999996E+01 -0.35279E+04
 0.89499998E+01 -0.39833E+04
 0.89999990E+01 -0.41907E+04
 0.90499992E+01 -0.42100E+04
 0.90999994E+01 -0.41863E+04
 0.91499996E+01 -0.42844E+04
 0.91999989E+01 -0.46007E+04
 0.92499990E+01 -0.50177E+04
 0.92999992E+01 -0.53701E+04
 0.93499994E+01 -0.56034E+04
 0.93999996E+01 -0.56497E+04
 0.94499989E+01 -0.54508E+04
 0.94999990E+01 -0.51204E+04
 0.95499992E+01 -0.48311E+04
 0.95999994E+01 -0.46328E+04
 0.96499996E+01 -0.44817E+04
 0.96999989E+01 -0.43079E+04
 0.97499990E+01 -0.39892E+04
 0.97999992E+01 -0.34265E+04
 0.98499994E+01 -0.27105E+04
 0.98999996E+01 -0.20220E+04
 0.99499989E+01 -0.15860E+04
 0.99999990E+01 -0.15347E+04
 0.10049999E+02 -0.18037E+04
 0.10099999E+02 -0.23026E+04
 0.10150000E+02 -0.29552E+04
 0.10199999E+02 -0.35949E+04
 0.10249999E+02 -0.41502E+04
 0.10299999E+02 -0.46539E+04
 0.10349999E+02 -0.50463E+04
 0.10400000E+02 -0.52161E+04
 0.10449999E+02 -0.51489E+04
 0.10499999E+02 -0.49795E+04
 0.10549999E+02 -0.48111E+04
 0.10599999E+02 -0.47487E+04
 0.10650000E+02 -0.48640E+04
 0.10699999E+02 -0.51930E+04
 0.10749999E+02 -0.57285E+04
 0.10799999E+02 -0.63610E+04
 0.10849999E+02 -0.69660E+04
 0.10900000E+02 -0.74958E+04
 0.10949999E+02 -0.79059E+04
 0.10999999E+02 -0.82293E+04
 0.11049999E+02 -0.85646E+04
 0.11099999E+02 -0.89873E+04
 0.11150000E+02 -0.94952E+04
 0.11199999E+02 -0.99596E+04
 0.11249999E+02 -0.10200E+05
 0.11299999E+02 -0.10135E+05
 0.11349999E+02 -0.97411E+04
 0.11400000E+02 -0.89292E+04
 0.11449999E+02 -0.77492E+04
 0.11499999E+02 -0.63026E+04
 0.11549999E+02 -0.46095E+04
 0.11599999E+02 -0.27925E+04
 0.11650000E+02 -0.11861E+04
 0.11699999E+02  0.75485E+02
 0.11749999E+02  0.10978E+04
 0.11799999E+02  0.19515E+04
 0.11849999E+02  0.26609E+04
 0.11900000E+02  0.33777E+04
 0.11949999E+02  0.42868E+04
 0.11999999E+02  0.53037E+04
 0.12049999E+02  0.62743E+04
 0.12099999E+02  0.71238E+04
 0.12150000E+02  0.77731E+04
 0.12199999E+02  0.82592E+04
 0.12249999E+02  0.87605E+04
 0.12299999E+02  0.92915E+04
 0.12349999E+02  0.98002E+04
 0.12400000E+02  0.10346E+05
 0.12449999E+02  0.10867E+05
 0.12499999E+02  0.11154E+05
 0.12549999E+02  0.11039E+05
 0.12599999E+02  0.10489E+05
 0.12649999E+02  0.96083E+04
 0.12699999E+02  0.84645E+04
 0.12749999E+02  0.71563E+04
 0.12799999E+02  0.59344E+04
 0.12849999E+02  0.50126E+04
 0.12899999E+02  0.44319E+04
 0.12949999E+02  0.42214E+04
 0.12999999E+02  0.43621E+04
 0.13049999E+02  0.48133E+04
 0.13099999E+02  0.55299E+04
 0.13149999E+02  0.63265E+04
 0.13199999E+02  0.70515E+04
 0.13249999E+02  0.76708E+04
 0.13299999E+02  0.81986E+04
 0.13349999E+02  0.85939E+04
 0.13399999E+02  0.87077E+04
 0.13449999E+02  0.84649E+04
 0.13499999E+02  0.79173E+04
 0.13549999E+02  0.69557E+04
 0.13599999E+02  0.55256E+04
 0.13649999E+02  0.37740E+04
 0.13699999E+02  0.18150E+04
 0.13749999E+02 -0.17751E+03
 0.13799999E+02 -0.20087E+04
 0.13849999E+02 -0.35200E+04
 0.13899999E+02 -0.45976E+04
 0.13949999E+02 -0.52677E+04
 0.13999999E+02 -0.56304E+04
 0.14049999E+02 -0.59202E+04
 0.14099998E+02 -0.62130E+04
 0.14150000E+02 -0.64679E+04
 0.14199999E+02 -0.66468E+04
 0.14249998E+02 -0.66602E+04
 0.14299999E+02 -0.64422E+04
 0.14349998E+02 -0.59616E+04
 0.14400000E+02 -0.52709E+04
 0.14449999E+02 -0.44172E+04
 0.14499998E+02 -0.35979E+04
 0.14549999E+02 -0.30617E+04
 0.14599998E+02 -0.28671E+04
 0.14650000E+02 -0.29538E+04
 0.14699999E+02 -0.32122E+04
 0.14749998E+02 -0.34510E+04
 0.14799999E+02 -0.35727E+04
 0.14849998E+02 -0.35762E+04
 0.14900000E+02 -0.35040E+04
 0.14949999E+02 -0.35005E+04
 0.14999998E+02 -0.35829E+04
 0.15049999E+02 -0.36330E+04
 0.15099998E+02 -0.35139E+04
 0.15150000E+02 -0.29559E+04
 0.15199999E+02 -0.18278E+04
 0.15249998E+02 -0.21739E+03
 0.15299999E+02  0.18049E+04
 0.15349998E+02  0.41560E+04
 0.15400000E+02  0.67119E+04
 0.15449999E+02  0.91875E+04
 0.15499998E+02  0.11295E+05
 0.15549999E+02  0.12974E+05
 0.15599998E+02  0.14190E+05
 0.15650000E+02  0.14953E+05
 0.15699999E+02  0.15215E+05
 0.15749998E+02  0.15035E+05
 0.15799999E+02  0.14518E+05
 0.15849998E+02  0.13621E+05
 0.15900000E+02  0.12402E+05
 0.15949999E+02  0.10927E+05
 0.15999998E+02  0.92213E+04
 0.16049999E+02  0.73378E+04
 0.16099998E+02  0.54089E+04
 0.16150000E+02  0.35572E+04
 0.16199999E+02  0.18872E+04
 0.16249998E+02  0.41382E+03
 0.16299999E+02 -0.94481E+03
 0.16349998E+02 -0.22870E+04
 0.16400000E+02 -0.36359E+04
 0.16449999E+02 -0.49425E+04
 0.16499998E+02 -0.62227E+04
 0.16549999E+02 -0.74315E+04
 0.16599998E+02 -0.84343E+04
 0.16650000E+02 -0.92350E+04
 0.16699999E+02 -0.98745E+04
 0.16749998E+02 -0.10337E+05
 0.16799999E+02 -0.10613E+05
 0.16849998E+02 -0.10709E+05
 0.16900000E+02 -0.10654E+05
 0.16949999E+02 -0.10512E+05
 0.16999998E+02 -0.10220E+05
 0.17049999E+02 -0.98251E+04
 0.17099998E+02 -0.94475E+04
 0.17150000E+02 -0.90198E+04
 0.17199999E+02 -0.84429E+04
 0.17249998E+02 -0.75917E+04
 0.17299999E+02 -0.64372E+04
 0.17349998E+02 -0.49354E+04
 0.17400000E+02 -0.31134E+04
 0.17449999E+02 -0.99877E+03
 0.17499998E+02  0.12814E+04
 0.17549999E+02  0.34897E+04
 0.17599998E+02  0.55643E+04
 0.17650000E+02  0.75902E+04
 0.17699999E+02  0.95019E+04
 0.17749998E+02  0.11322E+05
 0.17799999E+02  0.12943E+05
 0.17849998E+02  0.14085E+05
 0.17900000E+02  0.14283E+05
 0.17949999E+02  0.13403E+05
 0.17999998E+02  0.11415E+05
 0.18049999E+02  0.84020E+04
 0.18099998E+02  0.56266E+04
 0.18150000E+02  0.38456E+04
 0.18199999E+02  0.32538E+04
 0.18249998E+02  0.41530E+04
 0.18299999E+02  0.59684E+04
 0.18349998E+02  0.63699E+04
 0.18400000E+02  0.66260E+04
 0.18449999E+02  0.73808E+04
 0.18499998E+02  0.76714E+04
 0.18549999E+02  0.83986E+04
 0.18599998E+02  0.11024E+05
 0.18650000E+02  0.99230E+04
 0.18699999E+02  0.23667E+04
 0.18749998E+02 -0.76677E+04
 0.18799999E+02 -0.21883E+05
 0.18849998E+02 -0.38317E+05
 0.18900000E+02 -0.49962E+05
 0.18949999E+02 -0.50546E+05
 0.18999998E+02 -0.48016E+05
 0.19049999E+02 -0.44487E+05
 0.19099998E+02 -0.42186E+05
 0.19150000E+02 -0.35871E+05
 0.19199999E+02 -0.32755E+05
 0.19249998E+02 -0.28665E+05
 0.19299999E+02 -0.35920E+04
 0.19349998E+02  0.24861E+05
 0.19400000E+02  0.45577E+05
 0.19449999E+02  0.67708E+05
 0.19499998E+02  0.82980E+05
 0.19549999E+02  0.77477E+05
 0.19599998E+02  0.68872E+05
 0.19650000E+02  0.70538E+05
 0.19699999E+02  0.61842E+05
 0.19749998E+02  0.43926E+05
 0.19799999E+02  0.33470E+05
 0.19849998E+02  0.16784E+05
 0.19900000E+02 -0.24392E+05
 0.19949999E+02 -0.54963E+05
 0.19999998E+02 -0.59199E+05
 0.20049999E+02 -0.72841E+05
 0.20099998E+02 -0.81312E+05
 0.20150000E+02 -0.59859E+05
 0.20199999E+02 -0.51645E+05
 0.20249998E+02 -0.69236E+05
 0.20299999E+02 -0.72192E+05
 0.20349998E+02 -0.76010E+05
 0.20399998E+02 -0.69884E+05
 0.20449999E+02 -0.70433E+05
 0.20499998E+02 -0.48912E+05
 0.20549999E+02 -0.29996E+05
 0.20599998E+02 -0.21818E+05
 0.20649998E+02  0.18141E+03
 0.20699999E+02 -0.25359E+05
 0.20749998E+02 -0.69009E+04
 0.20799999E+02  0.17518E+05
 0.20849998E+02  0.29263E+05
 0.20899998E+02  0.43986E+05
 0.20949999E+02  0.54559E+05
 0.20999998E+02  0.91929E+05
 0.21049999E+02  0.66640E+05
 0.21099998E+02  0.65435E+05
 0.21149998E+02  0.79981E+05
 0.21199999E+02  0.59807E+05
 0.21249998E+02 -0.10769E+05
 0.21299999E+02 -0.24441E+05
 0.21349998E+02 -0.33035E+05
 0.21399998E+02 -0.80354E+05
 0.21449999E+02 -0.67222E+05
 0.21499998E+02 -0.44923E+05
 0.21549999E+02 -0.35109E+05
 0.21599998E+02 -0.30968E+05
 0.21649998E+02  0.12188E+05
 0.21699999E+02  0.10986E+05
 0.21749998E+02  0.54573E+04
 0.21799999E+02  0.48945E+05
 0.21849998E+02  0.60627E+05
 0.21899998E+02  0.14912E+04
 0.21949999E+02 -0.16818E+05
 0.21999998E+02 -0.26275E+05
 0.22049999E+02 -0.96187E+05
 0.22099998E+02 -0.85653E+05
 0.22149998E+02 -0.26204E+05
 0.22199999E+02 -0.91253E+04
 0.22249998E+02 -0.41159E+04
 0.22299999E+02  0.17421E+05
 0.22349998E+02  0.21435E+05
 0.22399998E+02 -0.41803E+04
 0.22449999E+02  0.59150E+05
 0.22499998E+02  0.57200E+05
 0.22549999E+02  0.54391E+05
 0.22599998E+02  0.57561E+05
 0.22649998E+02  0.77952E+04
 0.22699999E+02 -0.20461E+04
 0.22749998E+02 -0.31655E+05
 0.22799999E+02 -0.36585E+05
 0.22849998E+02 -0.32528E+05
 0.22899998E+02  0.19797E+05
 0.22949999E+02  0.16962E+05
 0.22999998E+02 -0.23299E+05
 0.23049999E+02 -0.10952E+05
 0.23099998E+02 -0.47573E+04
 0.23149998E+02 -0.22610E+05
 0.23199999E+02  0.24739E+05
 0.23249998E+02  0.10841E+06
 0.23299999E+02  0.17403E+06
 0.23349998E+02  0.21663E+06
 0.23399998E+02  0.15065E+06
 0.23449999E+02  0.83219E+05
 0.23499998E+02 -0.39406E+05
 0.23549999E+02 -0.10633E+06
 0.23599998E+02 -0.10571E+06
 0.23649998E+02 -0.10260E+06
 0.23699999E+02 -0.60479E+05
 0.23749998E+02 -0.28075E+05
 0.23799999E+02 -0.41200E+05
 0.23849998E+02 -0.48650E+05
 0.23899998E+02  0.17717E+05
 0.23949999E+02  0.31619E+05
 0.23999998E+02  0.87582E+05
 0.24049999E+02  0.13010E+06
 0.24099998E+02  0.15013E+06
 0.24149998E+02  0.95470E+05
 0.24199999E+02  0.71193E+05
 0.24249998E+02  0.84080E+05
 0.24299999E+02  0.68461E+05
 0.24349998E+02  0.16298E+05
 0.24399998E+02 -0.30867E+05
 0.24449999E+02  0.21635E+04
 0.24499998E+02 -0.34760E+05
 0.24549999E+02 -0.93211E+05
 0.24599998E+02 -0.13333E+06
 0.24649998E+02 -0.11507E+06
 0.24699999E+02 -0.90149E+05
 0.24749998E+02 -0.68006E+05
 0.24799999E+02 -0.62633E+05
 0.24849998E+02 -0.47072E+05
 0.24899998E+02 -0.49765E+05
 0.24949999E+02 -0.64420E+05
 0.24999998E+02 -0.45039E+05
 0.25049999E+02  0.48445E+05
 0.25099998E+02  0.45958E+05
 0.25149998E+02 -0.15561E+05
 0.25199999E+02  0.83318E+04
 0.25249998E+02 -0.54199E+05
 0.25299999E+02 -0.43106E+05
 0.25349998E+02 -0.24228E+05
 0.25399998E+02 -0.22688E+05
 0.25449999E+02  0.45204E+05
 0.25499998E+02  0.60943E+05
 0.25549999E+02  0.74751E+05
 0.25599998E+02  0.81021E+05
 0.25649998E+02  0.91558E+05
 0.25699999E+02  0.64498E+05
 0.25749998E+02 -0.28348E+05
 0.25799999E+02 -0.24724E+05
 0.25849998E+02  0.11012E+05
 0.25899998E+02  0.19666E+05
 0.25949999E+02  0.10694E+05
 0.25999998E+02 -0.20682E+05
 0.26049999E+02 -0.32264E+05
 0.26099998E+02 -0.99205E+05
 0.26149998E+02 -0.11615E+06
 0.26199999E+02 -0.82150E+05
 0.26249998E+02 -0.95565E+05
 0.26299999E+02 -0.15361E+06
 0.26349998E+02 -0.22626E+06
 0.26399998E+02 -0.24568E+06
 0.26449999E+02 -0.22655E+06
 0.26499998E+02 -0.14744E+06
 0.26549999E+02 -0.70022E+05
 0.26599998E+02 -0.17847E+05
 0.26649998E+02  0.32727E+05
 0.26699999E+02  0.24696E+05
 0.26749998E+02  0.17504E+05
 0.26799999E+02  0.10204E+05
 0.26849998E+02 -0.30633E+05
 0.26899998E+02 -0.58194E+05
 0.26949999E+02 -0.45305E+05
 0.26999998E+02 -0.99177E+05
 0.27049997E+02 -0.19305E+06
 0.27099998E+02 -0.17224E+06
 0.27149998E+02 -0.15716E+06
 0.27199999E+02 -0.16910E+06
 0.27249998E+02 -0.15022E+06
 0.27299997E+02 -0.98227E+05
 0.27349998E+02 -0.15208E+06
 0.27399998E+02 -0.25540E+06
 0.27449999E+02 -0.23902E+06
 0.27499998E+02 -0.18581E+06
 0.27549997E+02 -0.14728E+06
 0.27599998E+02 -0.14032E+06
 0.27649998E+02 -0.12840E+06
 0.27699999E+02 -0.13262E+06
 0.27749998E+02 -0.14784E+06
 0.27799997E+02 -0.16466E+06
 0.27849998E+02 -0.15900E+06
 0.27899998E+02 -0.10444E+06
 0.27949999E+02 -0.93022E+05
 0.27999998E+02 -0.78358E+05
 0.28049997E+02 -0.18197E+05
 0.28099998E+02  0.21100E+04
 0.28149998E+02 -0.78991E+04
 0.28199999E+02 -0.78367E+04
 0.28249998E+02  0.87310E+05
 0.28299997E+02  0.17003E+06
 0.28349998E+02  0.15409E+06
 0.28399998E+02  0.91528E+05
 0.28449999E+02  0.37869E+05
 0.28499998E+02 -0.85276E+05
 0.28549997E+02 -0.21400E+06
 0.28599998E+02 -0.24106E+06
 0.28649998E+02 -0.20867E+06
 0.28699999E+02 -0.14229E+06
 0.28749998E+02 -0.15921E+06
 0.28799997E+02 -0.18903E+06
 0.28849998E+02 -0.21794E+06
 0.28899998E+02 -0.22615E+06
 0.28949999E+02 -0.25670E+06
 0.28999998E+02 -0.28452E+06
 0.29049997E+02 -0.26786E+06
 0.29099998E+02 -0.18716E+06
 0.29149998E+02 -0.12989E+06
 0.29199999E+02 -0.46867E+05
 0.29249998E+02  0.88199E+05
 0.29299997E+02  0.74523E+05
 0.29349998E+02  0.99564E+05
 0.29399998E+02  0.95168E+05
 0.29449999E+02  0.31873E+05
 0.29499998E+02  0.51031E+04
 0.29549997E+02  0.29989E+05
 0.29599998E+02  0.94319E+05
 0.29649998E+02  0.19553E+06
 0.29699999E+02  0.30773E+06
 0.29749998E+02  0.37410E+06
 0.29799997E+02  0.40543E+06
 0.29849998E+02  0.43387E+06
 0.29899998E+02  0.48213E+06
 0.29949999E+02  0.51011E+06
 0.29999998E+02  0.61603E+06
 0.30049999E+02  0.74863E+06
 0.30099998E+02  0.77674E+06
 0.30149998E+02  0.62122E+06
 0.30199997E+02  0.41498E+06
 0.30249996E+02  0.16872E+06
 0.30299999E+02  0.53746E+05
 0.30349998E+02  0.12467E+06
 0.30399998E+02  0.33282E+06
 0.30449997E+02  0.65353E+06
 0.30499996E+02  0.85658E+06
 0.30549999E+02  0.90702E+06
 0.30599998E+02  0.77054E+06
 0.30649998E+02  0.57620E+06
 0.30699997E+02  0.38665E+06
 0.30749996E+02  0.35837E+06
 0.30799999E+02  0.47889E+06
 0.30849998E+02  0.58359E+06
 0.30899998E+02  0.51165E+06
 0.30949997E+02  0.20068E+06
 0.30999996E+02 -0.78552E+05
 0.31049999E+02 -0.13897E+06
 0.31099998E+02 -0.19170E+06
 0.31149998E+02 -0.38421E+05
 0.31199997E+02  0.54116E+06
 0.31249996E+02  0.86872E+06
 0.31299999E+02  0.96370E+06
 0.31349998E+02  0.10306E+07
 0.31399998E+02  0.80844E+06
 0.31449997E+02  0.40340E+06
 0.31499996E+02  0.98482E+05
 0.31549999E+02 -0.22216E+06
 0.31599998E+02 -0.49927E+06
 0.31649998E+02 -0.60741E+06
 0.31699997E+02 -0.73833E+06
 0.31749996E+02 -0.64081E+06
 0.31799999E+02 -0.28382E+06
 0.31849998E+02 -0.10810E+06
 0.31899998E+02 -0.27403E+06
 0.31949997E+02 -0.43245E+06
 0.31999996E+02 -0.45784E+06
 0.32049999E+02 -0.56543E+06
 0.32099998E+02 -0.58027E+06
 0.32149998E+02 -0.21836E+06
 0.32199997E+02  0.12477E+06
 0.32249996E+02  0.30100E+06
 0.32299999E+02  0.44074E+06
 0.32349998E+02  0.42480E+06
 0.32399998E+02  0.17638E+06
 0.32449997E+02  0.97185E+03
 0.32499996E+02 -0.62713E+05
 0.32549999E+02 -0.91506E+05
 0.32599998E+02  0.66675E+05
 0.32649998E+02  0.38366E+06
 0.32699997E+02  0.62867E+06
 0.32749996E+02  0.72930E+06
 0.32799999E+02  0.96822E+06
 0.32849998E+02  0.11114E+07
 0.32899998E+02  0.12562E+07
 0.32949997E+02  0.14427E+07
 0.32999996E+02  0.15234E+07
 0.33049999E+02  0.17690E+07
 0.33099998E+02  0.20160E+07
 0.33149998E+02  0.18121E+07
 0.33199997E+02  0.14996E+07
 0.33249996E+02  0.13245E+07
 0.33299999E+02  0.12229E+07
 0.33349998E+02  0.11977E+07
 0.33399998E+02  0.11698E+07
 0.33449997E+02  0.12199E+07
 0.33499996E+02  0.10834E+07
 0.33549999E+02  0.72166E+06
 0.33599998E+02  0.29344E+06
 0.33649998E+02 -0.78719E+05
 0.33699997E+02 -0.23869E+06
 0.33749996E+02 -0.39953E+06
 0.33799999E+02 -0.70853E+06
 0.33849998E+02 -0.83016E+06
 0.33899998E+02 -0.84963E+06
 0.33949997E+02 -0.93194E+06
 0.33999996E+02 -0.83133E+06
 0.34049999E+02 -0.74725E+06
 0.34099998E+02 -0.97363E+06
 0.34149998E+02 -0.12552E+07
 0.34199997E+02 -0.14756E+07
 0.34249996E+02 -0.17257E+07
 0.34299999E+02 -0.17158E+07
 0.34349998E+02 -0.13294E+07
 0.34399998E+02 -0.85146E+06
 0.34449997E+02 -0.50445E+06
 0.34499996E+02 -0.33037E+06
 0.34549999E+02 -0.39022E+06
 0.34599998E+02 -0.42475E+06
 0.34649998E+02 -0.24766E+06
 0.34699997E+02 -0.12549E+06
 0.34749996E+02 -0.14154E+06
 0.34799999E+02 -0.13619E+06
 0.34849998E+02 -0.12870E+05
 0.34899998E+02  0.92952E+05
 0.34949997E+02  0.97950E+05
 0.34999996E+02  0.28655E+05
 0.35049999E+02  0.38221E+05
 0.35099998E+02  0.25870E+06
 0.35149998E+02  0.44009E+06
 0.35199997E+02  0.49615E+06
 0.35249996E+02  0.61526E+06
 0.35299999E+02  0.74794E+06
 0.35349998E+02  0.89160E+06
 0.35399998E+02  0.99779E+06
 0.35449997E+02  0.87534E+06
 0.35499996E+02  0.62461E+06
 0.35549999E+02  0.45168E+06
 0.35599998E+02  0.31997E+06
 0.35649998E+02  0.35235E+06
 0.35699997E+02  0.54368E+06
 0.35749996E+02  0.65173E+06
 0.35799999E+02  0.65686E+06
 0.35849998E+02  0.64028E+06
 0.35899998E+02  0.53118E+06
 0.35949997E+02  0.16584E+06
 0.35999996E+02 -0.79971E+05
 0.36049999E+02 -0.13529E+06
 0.36099998E+02 -0.16075E+06
 0.36149998E+02 -0.13883E+06
 0.36199997E+02 -0.28423E+06
 0.36249996E+02 -0.67096E+06
 0.36299999E+02 -0.91974E+06
 0.36349998E+02 -0.95480E+06
 0.36399998E+02 -0.99775E+06
 0.36449997E+02 -0.97858E+06
 0.36499996E+02 -0.10483E+07
 0.36549999E+02 -0.12321E+07
 0.36599998E+02 -0.13219E+07
 0.36649998E+02 -0.13015E+07
 0.36699997E+02 -0.13226E+07
 0.36749996E+02 -0.12831E+07
 0.36799999E+02 -0.12059E+07
 0.36849998E+02 -0.11316E+07
 0.36899998E+02 -0.97237E+06
 0.36949997E+02 -0.96202E+06
 0.36999996E+02 -0.10621E+07
 0.37049999E+02 -0.10919E+07
 0.37099998E+02 -0.10370E+07
 0.37149998E+02 -0.10227E+07
 0.37199997E+02 -0.93321E+06
 0.37249996E+02 -0.69279E+06
 0.37299999E+02 -0.47618E+06
 0.37349998E+02 -0.29697E+06
 0.37399998E+02 -0.15318E+06
 0.37449997E+02 -0.16700E+06
 0.37499996E+02 -0.32271E+06
 0.37549999E+02 -0.53322E+06
 0.37599998E+02 -0.83625E+06
 0.37649998E+02 -0.10504E+07
 0.37699997E+02 -0.11054E+07
 0.37749996E+02 -0.10002E+07
 0.37799999E+02 -0.84745E+06
 0.37849998E+02 -0.73710E+06
 0.37899998E+02 -0.71145E+06
 0.37949997E+02 -0.72014E+06
 0.37999996E+02 -0.57849E+06
 0.38049999E+02 -0.29691E+06
 0.38099998E+02  0.13884E+06
 0.38149998E+02  0.60516E+06
 0.38199997E+02  0.94916E+06
 0.38249996E+02  0.10813E+07
 0.38299999E+02  0.10711E+07
 0.38349998E+02  0.94495E+06
 0.38399998E+02  0.66849E+06
 0.38449997E+02  0.47636E+06
 0.38499996E+02  0.44936E+06
 0.38549999E+02  0.34661E+06
 0.38599998E+02  0.19754E+06
 0.38649998E+02  0.71375E+05
 0.38699997E+02  0.25323E+05
 0.38749996E+02  0.76015E+04
 0.38799999E+02 -0.18557E+06
 0.38849998E+02 -0.35610E+06
 0.38899998E+02 -0.37133E+06
 0.38949997E+02 -0.32760E+06
 0.38999996E+02 -0.22161E+06
 0.39049999E+02 -0.84492E+05
 0.39099998E+02 -0.94053E+05
 0.39149998E+02 -0.60064E+05
 0.39199997E+02  0.39520E+05
 0.39249996E+02 -0.89799E+05
 0.39299999E+02 -0.35019E+06
 0.39349998E+02 -0.57663E+06
 0.39399998E+02 -0.84359E+06
 0.39449997E+02 -0.10340E+07
 0.39499996E+02 -0.10495E+07
 0.39549999E+02 -0.10460E+07
 0.39599998E+02 -0.10189E+07
 0.39649998E+02 -0.91166E+06
 0.39699997E+02 -0.76545E+06
 0.39749996E+02 -0.58624E+06
 0.39799999E+02 -0.34403E+06
 0.39849998E+02 -0.20666E+06
 0.39899998E+02 -0.18227E+06
 0.39949997E+02 -0.17661E+06
 0.39999996E+02 -0.14771E+06
 0.40049999E+02 -0.80500E+05
 0.40099998E+02 -0.77847E+04
 0.40149998E+02  0.73941E+04
 0.40199997E+02 -0.13894E+06
 0.40249996E+02 -0.41316E+06
 0.40299999E+02 -0.60149E+06
 0.40349998E+02 -0.59706E+06
 0.40399998E+02 -0.55253E+06
 0.40449997E+02 -0.47503E+06
 0.40499996E+02 -0.29209E+06
 0.40549999E+02 -0.10399E+06
 0.40599998E+02  0.16176E+05
 0.40649998E+02  0.20758E+06
 0.40699997E+02  0.51056E+06
 0.40749996E+02  0.69444E+06
 0.40799999E+02  0.71929E+06
 0.40849998E+02  0.70916E+06
 0.40899998E+02  0.62266E+06
 0.40949997E+02  0.47450E+06
 0.40999996E+02  0.36607E+06
 0.41049999E+02  0.27097E+06
 0.41099998E+02  0.21282E+06
 0.41149998E+02  0.30827E+06
 0.41199997E+02  0.45470E+06
 0.41249996E+02  0.53065E+06
 0.41299999E+02  0.59588E+06
 0.41349998E+02  0.58951E+06
 0.41399998E+02  0.54168E+06
 0.41449997E+02  0.56306E+06
 0.41499996E+02  0.50331E+06
 0.41549999E+02  0.42689E+06
 0.41599998E+02  0.41181E+06
 0.41649998E+02  0.26329E+06
 0.41699997E+02  0.25187E+05
 0.41749996E+02 -0.12706E+06
 0.41799999E+02 -0.22130E+06
 0.41849998E+02 -0.32492E+06
 0.41899998E+02 -0.44838E+06
 0.41949997E+02 -0.52252E+06
 0.41999996E+02 -0.56435E+06
 0.42049999E+02 -0.60340E+06
 0.42099998E+02 -0.49144E+06
 0.42149998E+02 -0.28368E+06
 0.42199997E+02 -0.11494E+06
 0.42249996E+02  0.71137E+05
 0.42299999E+02  0.22134E+06
 0.42349998E+02  0.21750E+06
 0.42399998E+02  0.23069E+06
 0.42449997E+02  0.34778E+06
 0.42499996E+02  0.45969E+06
 0.42549999E+02  0.57109E+06
 0.42599998E+02  0.72133E+06
 0.42649998E+02  0.82375E+06
 0.42699997E+02  0.79966E+06
 0.42749996E+02  0.75991E+06
 0.42799995E+02  0.68570E+06
 0.42849998E+02  0.50554E+06
 0.42899998E+02  0.35664E+06
 0.42949997E+02  0.30637E+06
 0.42999996E+02  0.24264E+06
 0.43049995E+02  0.20887E+06
 0.43099998E+02  0.21143E+06
 0.43149998E+02  0.17021E+06
 0.43199997E+02  0.16919E+06
 0.43249996E+02  0.28728E+06
 0.43299995E+02  0.38711E+06
 0.43349998E+02  0.41515E+06
 0.43399998E+02  0.45059E+06
 0.43449997E+02  0.40755E+06
 0.43499996E+02  0.32120E+06
 0.43549995E+02  0.30157E+06
 0.43599998E+02  0.31943E+06
 0.43649998E+02  0.24853E+06
 0.43699997E+02  0.10382E+06
 0.43749996E+02 -0.83691E+05
 0.43799995E+02 -0.23611E+06
 0.43849998E+02 -0.26660E+06
 0.43899998E+02 -0.27215E+06
 0.43949997E+02 -0.30508E+06
 0.43999996E+02 -0.37432E+06
 0.44049995E+02 -0.45534E+06
 0.44099998E+02 -0.48555E+06
 0.44149998E+02 -0.54763E+06
 0.44199997E+02 -0.65432E+06
 0.44249996E+02 -0.71958E+06
 0.44299995E+02 -0.77711E+06
 0.44349998E+02 -0.75558E+06
 0.44399998E+02 -0.62989E+06
 0.44449997E+02 -0.48175E+06
 0.44499996E+02 -0.34267E+06
 0.44549995E+02 -0.19879E+06
 0.44599998E+02 -0.60793E+05
 0.44649998E+02  0.25804E+05
 0.44699997E+02  0.68720E+05
 0.44749996E+02  0.61520E+05
 0.44799995E+02  0.50865E+04
 0.44849998E+02 -0.75521E+05
 0.44899998E+02 -0.14269E+06
 0.44949997E+02 -0.18097E+06
 0.44999996E+02 -0.16773E+06
 0.45049995E+02 -0.11899E+06
 0.45099998E+02 -0.79645E+05
 0.45149998E+02  0.12949E+05
 0.45199997E+02  0.14733E+06
 0.45249996E+02  0.25466E+06
 0.45299995E+02  0.35220E+06
 0.45349998E+02  0.39613E+06
 0.45399998E+02  0.33885E+06
 0.45449997E+02  0.28076E+06
 0.45499996E+02  0.28572E+06
 0.45549995E+02  0.34794E+06
 0.45599998E+02  0.44589E+06
 0.45649998E+02  0.55071E+06
 0.45699997E+02  0.59651E+06
 0.45749996E+02  0.58620E+06
 0.45799995E+02  0.56402E+06
 0.45849998E+02  0.53933E+06
 0.45899998E+02  0.54917E+06
 0.45949997E+02  0.55008E+06
 0.45999996E+02  0.50222E+06
 0.46049995E+02  0.42283E+06
 0.46099998E+02  0.39818E+06
 0.46149998E+02  0.38524E+06
 0.46199997E+02  0.33452E+06
 0.46249996E+02  0.28514E+06
 0.46299995E+02  0.27379E+06
 0.46349998E+02  0.31684E+06
 0.46399998E+02  0.33702E+06
 0.46449997E+02  0.31195E+06
 0.46499996E+02  0.27296E+06
 0.46549995E+02  0.22017E+06
 0.46599998E+02  0.14901E+06
 0.46649998E+02  0.99484E+05
 0.46699997E+02  0.37382E+05
 0.46749996E+02 -0.27119E+05
 0.46799995E+02 -0.74114E+05
 0.46849998E+02 -0.13628E+06
 0.46899998E+02 -0.24848E+06
 0.46949997E+02 -0.38716E+06
 0.46999996E+02 -0.46193E+06
 0.47049995E+02 -0.46529E+06
 0.47099998E+02 -0.44315E+06
 0.47149998E+02 -0.40624E+06
 0.47199997E+02 -0.33217E+06
 0.47249996E+02 -0.28456E+06
 0.47299995E+02 -0.31104E+06
 0.47349998E+02 -0.35931E+06
 0.47399998E+02 -0.43467E+06
 0.47449997E+02 -0.50163E+06
 0.47499996E+02 -0.50332E+06
 0.47549995E+02 -0.43001E+06
 0.47599998E+02 -0.32495E+06
 0.47649998E+02 -0.25562E+06
 0.47699997E+02 -0.21129E+06
 0.47749996E+02 -0.21108E+06
 0.47799995E+02 -0.24311E+06
 0.47849998E+02 -0.25002E+06
 0.47899998E+02 -0.23319E+06
 0.47949997E+02 -0.23777E+06
 0.47999996E+02 -0.17967E+06
 0.48049995E+02 -0.38402E+05
 0.48099998E+02  0.74401E+05
 0.48149998E+02  0.19378E+06
 0.48199997E+02  0.31552E+06
 0.48249996E+02  0.37640E+06
 0.48299995E+02  0.38432E+06
 0.48349998E+02  0.39019E+06
 0.48399998E+02  0.39168E+06
 0.48449997E+02  0.36939E+06
 0.48499996E+02  0.37485E+06
 0.48549995E+02  0.39534E+06
 0.48599998E+02  0.38421E+06
 0.48649998E+02  0.34469E+06
 0.48699997E+02  0.27132E+06
 0.48749996E+02  0.14954E+06
 0.48799995E+02  0.37460E+05
 0.48849998E+02  0.96283E+04
 0.48899998E+02  0.27879E+05
 0.48949997E+02  0.31240E+05
 0.48999996E+02  0.56395E+05
 0.49049995E+02  0.11957E+06
 0.49099998E+02  0.14989E+06
 0.49149998E+02  0.14876E+06
 0.49199997E+02  0.16627E+06
 0.49249996E+02  0.20930E+06
 0.49299995E+02  0.26966E+06
 0.49349998E+02  0.30745E+06
 0.49399998E+02  0.30126E+06
 0.49449997E+02  0.26676E+06
 0.49499996E+02  0.23402E+06
 0.49549995E+02  0.22482E+06
 0.49599998E+02  0.21482E+06
 0.49649998E+02  0.18001E+06
 0.49699997E+02  0.15025E+06
 0.49749996E+02  0.10029E+06
 0.49799995E+02 -0.53899E+04
 0.49849998E+02 -0.10672E+06
 0.49899998E+02 -0.16882E+06
 0.49949997E+02 -0.24128E+06
 0.49999996E+02 -0.29814E+06
 0.50049995E+02 -0.33080E+06
 0.50099998E+02 -0.38135E+06
 0.50149998E+02 -0.39688E+06
 0.50199997E+02 -0.39593E+06
 0.50249996E+02 -0.38789E+06
 0.50299995E+02 -0.35979E+06
 0.50349998E+02 -0.31488E+06
 0.50399998E+02 -0.26991E+06
 0.50449997E+02 -0.24511E+06
 0.50499996E+02 -0.26380E+06
 0.50549995E+02 -0.31878E+06
 0.50599998E+02 -0.36790E+06
 0.50649998E+02 -0.43709E+06
 0.50699997E+02 -0.51203E+06
 0.50749996E+02 -0.56541E+06
 0.50799995E+02 -0.56479E+06
 0.50849998E+02 -0.52171E+06
 0.50899998E+02 -0.44413E+06
 0.50949997E+02 -0.33678E+06
 0.50999996E+02 -0.20938E+06
 0.51049995E+02 -0.75096E+05
 0.51099998E+02  0.75801E+05
 0.51149998E+02  0.24133E+06
 0.51199997E+02  0.37905E+06
 0.51249996E+02  0.49142E+06
 0.51299995E+02  0.55145E+06
 0.51349998E+02  0.55652E+06
 0.51399998E+02  0.50630E+06
 0.51449997E+02  0.44928E+06
 0.51499996E+02  0.39915E+06
 0.51549995E+02  0.34638E+06
 0.51599998E+02  0.33204E+06
 0.51649998E+02  0.33803E+06
 0.51699997E+02  0.30565E+06
 0.51749996E+02  0.24447E+06
 0.51799995E+02  0.19819E+06
 0.51849998E+02  0.15545E+06
 0.51899998E+02  0.13045E+06
 0.51949997E+02  0.14119E+06
 0.51999996E+02  0.17120E+06
 0.52049995E+02  0.21152E+06
 0.52099998E+02  0.24315E+06
 0.52149998E+02  0.24565E+06
 0.52199997E+02  0.21146E+06
 0.52249996E+02  0.14617E+06
 0.52299995E+02  0.92187E+05
 0.52349998E+02  0.48310E+05
 0.52399998E+02  0.22421E+05
 0.52449997E+02  0.69081E+04
 0.52499996E+02 -0.35434E+05
 0.52549995E+02 -0.68421E+05
 0.52599998E+02 -0.96095E+05
 0.52649998E+02 -0.16668E+06
 0.52699997E+02 -0.23620E+06
 0.52749996E+02 -0.25125E+06
 0.52799995E+02 -0.25582E+06
 0.52849998E+02 -0.25748E+06
 0.52899998E+02 -0.25143E+06
 0.52949997E+02 -0.26402E+06
 0.52999996E+02 -0.27893E+06
 0.53049995E+02 -0.27740E+06
 0.53099998E+02 -0.29806E+06
 0.53149998E+02 -0.34430E+06
 0.53199997E+02 -0.37148E+06
 0.53249996E+02 -0.38942E+06
 0.53299995E+02 -0.39620E+06
 0.53349998E+02 -0.39156E+06
 0.53399998E+02 -0.34738E+06
 0.53449997E+02 -0.26459E+06
 0.53499996E+02 -0.18850E+06
 0.53549995E+02 -0.10507E+06
 0.53599998E+02 -0.73496E+04
 0.53649998E+02  0.61074E+05
 0.53699997E+02  0.10646E+06
 0.53749996E+02  0.15430E+06
 0.53799995E+02  0.17900E+06
 0.53849998E+02  0.21464E+06
 0.53899998E+02  0.27320E+06
 0.53949997E+02  0.33239E+06
 0.53999996E+02  0.40699E+06
 0.54049995E+02  0.48477E+06
 0.54099998E+02  0.53012E+06
 0.54149998E+02  0.55615E+06
 0.54199997E+02  0.58017E+06
 0.54249996E+02  0.58279E+06
 0.54299995E+02  0.57437E+06
 0.54349998E+02  0.57415E+06
 0.54399998E+02  0.58849E+06
 0.54449997E+02  0.58940E+06
 0.54499996E+02  0.56576E+06
 0.54549995E+02  0.51967E+06
 0.54599998E+02  0.44694E+06
 0.54649998E+02  0.35659E+06
 0.54699997E+02  0.25373E+06
 0.54749996E+02  0.16100E+06
 0.54799995E+02  0.72694E+05
 0.54849998E+02 -0.28334E+04
 0.54899998E+02 -0.40677E+05
 0.54949997E+02 -0.62880E+05
 0.54999996E+02 -0.81903E+05
 0.55049995E+02 -0.99941E+05
 0.55099998E+02 -0.14106E+06
 0.55149998E+02 -0.18781E+06
 0.55199997E+02 -0.20516E+06
 0.55249996E+02 -0.20018E+06
 0.55299995E+02 -0.20051E+06
 0.55349998E+02 -0.19857E+06
 0.55399998E+02 -0.20355E+06
 0.55449997E+02 -0.24188E+06
 0.55499996E+02 -0.27490E+06
 0.55549995E+02 -0.27714E+06
 0.55599998E+02 -0.26129E+06
 0.55649998E+02 -0.23516E+06
 0.55699997E+02 -0.20578E+06
 0.55749996E+02 -0.19323E+06
 0.55799995E+02 -0.20802E+06
 0.55849995E+02 -0.23044E+06
 0.55899998E+02 -0.24452E+06
 0.55949997E+02 -0.25871E+06
 0.55999996E+02 -0.26195E+06
 0.56049995E+02 -0.26121E+06
 0.56099995E+02 -0.27233E+06
 0.56149998E+02 -0.28106E+06
 0.56199997E+02 -0.30487E+06
 0.56249996E+02 -0.33009E+06
 0.56299995E+02 -0.33125E+06
 0.56349995E+02 -0.31633E+06
 0.56399998E+02 -0.28547E+06
 0.56449997E+02 -0.22879E+06
 0.56499996E+02 -0.15498E+06
 0.56549995E+02 -0.80337E+05
 0.56599995E+02 -0.19917E+05
 0.56649998E+02  0.23266E+05
 0.56699997E+02  0.46993E+05
 0.56749996E+02  0.48068E+05
 0.56799995E+02  0.57220E+05
 0.56849995E+02  0.68094E+05
 0.56899998E+02  0.66159E+05
 0.56949997E+02  0.73164E+05
 0.56999996E+02  0.91042E+05
 0.57049995E+02  0.10778E+06
 0.57099995E+02  0.14374E+06
 0.57149998E+02  0.19365E+06
 0.57199997E+02  0.23579E+06
 0.57249996E+02  0.26790E+06
 0.57299995E+02  0.27579E+06
 0.57349995E+02  0.24784E+06
 0.57399998E+02  0.20718E+06
 0.57449997E+02  0.16494E+06
 0.57499996E+02  0.11931E+06
 0.57549995E+02  0.74728E+05
 0.57599995E+02  0.18004E+05
 0.57649998E+02 -0.30772E+05
 0.57699997E+02 -0.57081E+05
 0.57749996E+02 -0.69760E+05
 0.57799995E+02 -0.80620E+05
 0.57849995E+02 -0.83809E+05
 0.57899998E+02 -0.77172E+05
 0.57949997E+02 -0.82671E+05
 0.57999996E+02 -0.99553E+05
 0.58049995E+02 -0.96544E+05
 0.58099995E+02 -0.71402E+05
 0.58149998E+02 -0.57037E+05
 0.58199997E+02 -0.57392E+05
 0.58249996E+02 -0.60998E+05
 0.58299995E+02 -0.66043E+05
 0.58349995E+02 -0.77256E+05
 0.58399998E+02 -0.82980E+05
 0.58449997E+02 -0.81314E+05
 0.58499996E+02 -0.92003E+05
 0.58549995E+02 -0.12006E+06
 0.58599995E+02 -0.13879E+06
 0.58649998E+02 -0.13533E+06
 0.58699997E+02 -0.12198E+06
 0.58749996E+02 -0.10372E+06
 0.58799995E+02 -0.74960E+05
 0.58849995E+02 -0.34117E+05
 0.58899998E+02 -0.12177E+05
 0.58949997E+02 -0.31609E+04
 0.58999996E+02  0.11239E+05
 0.59049995E+02  0.30169E+05
 0.59099995E+02  0.44177E+05
 0.59149998E+02  0.45875E+05
 0.59199997E+02  0.49872E+05
 0.59249996E+02  0.72333E+05
 0.59299995E+02  0.12153E+06
 0.59349995E+02  0.18195E+06
 0.59399998E+02  0.23129E+06
 0.59449997E+02  0.24252E+06
 0.59499996E+02  0.20874E+06
 0.59549995E+02  0.14538E+06
 0.59599995E+02  0.78767E+05
 0.59649998E+02  0.25948E+05
 0.59699997E+02  0.74057E+04
 0.59749996E+02  0.34545E+05
 0.59799995E+02  0.61390E+05
 0.59849995E+02  0.59290E+05
 0.59899998E+02  0.35203E+05
 0.59949997E+02 -0.32021E+04
 0.59999996E+02 -0.57100E+05
 0.60049995E+02 -0.11919E+06
 0.60099995E+02 -0.16661E+06
 0.60149998E+02 -0.21314E+06
 0.60199997E+02 -0.26273E+06
 0.60249996E+02 -0.30027E+06
 0.60299995E+02 -0.32149E+06
 0.60349995E+02 -0.31787E+06
 0.60399998E+02 -0.28721E+06
 0.60449997E+02 -0.23337E+06
 0.60499996E+02 -0.15522E+06
 0.60549995E+02 -0.75553E+05
 0.60599995E+02 -0.20889E+05
 0.60649998E+02  0.11829E+05
 0.60699997E+02  0.28815E+05
 0.60749996E+02  0.45082E+05
 0.60799995E+02  0.54662E+05
 0.60849995E+02  0.46744E+05
 0.60899998E+02  0.35440E+05
 0.60949997E+02  0.24259E+05
 0.60999996E+02  0.95464E+04
 0.61049995E+02  0.40436E+04
 0.61099995E+02  0.46839E+04
 0.61149998E+02  0.73536E+04
 0.61199997E+02  0.17984E+05
 0.61249996E+02  0.25207E+05
 0.61299995E+02  0.25328E+05
 0.61349995E+02  0.23978E+05
 0.61399998E+02  0.23389E+05
 0.61449997E+02  0.23393E+05
 0.61499996E+02  0.15892E+05
 0.61549995E+02  0.12680E+05
 0.61599995E+02  0.25244E+05
 0.61649998E+02  0.40749E+05
 0.61699997E+02  0.50788E+05
 0.61749996E+02  0.61477E+05
 0.61799995E+02  0.58886E+05
 0.61849995E+02  0.37289E+05
 0.61899998E+02  0.17640E+05
 0.61949997E+02  0.60218E+04
 0.61999996E+02  0.94695E+04
 0.62049995E+02  0.19190E+05
 0.62099998E+02  0.30880E+05
 0.62149994E+02  0.54576E+05
 0.62199997E+02  0.98284E+05
 0.62249992E+02  0.14374E+06
 0.62299995E+02  0.17902E+06
 0.62349998E+02  0.21482E+06
 0.62399994E+02  0.24333E+06
 0.62449997E+02  0.25972E+06
 0.62499992E+02  0.26220E+06
 0.62549995E+02  0.24956E+06
 0.62599998E+02  0.22742E+06
 0.62649994E+02  0.20129E+06
 0.62699997E+02  0.18052E+06
 0.62749992E+02  0.16932E+06
 0.62799995E+02  0.14892E+06
 0.62849998E+02  0.10781E+06
 0.62899994E+02  0.62830E+05
 0.62949997E+02  0.27759E+05
 0.62999992E+02 -0.69206E+03
 0.63049995E+02 -0.14953E+05
 0.63099998E+02 -0.14683E+05
 0.63149994E+02 -0.17988E+05
 0.63199997E+02 -0.27263E+05
 0.63249992E+02 -0.36849E+05
 0.63299995E+02 -0.62420E+05
 0.63349998E+02 -0.11439E+06
 0.63399994E+02 -0.17026E+06
 0.63449997E+02 -0.21547E+06
 0.63499992E+02 -0.25030E+06
 0.63549995E+02 -0.25880E+06
 0.63599998E+02 -0.23158E+06
 0.63649994E+02 -0.17907E+06
 0.63699997E+02 -0.11935E+06
 0.63749992E+02 -0.71739E+05
 0.63799995E+02 -0.44309E+05
 0.63849998E+02 -0.35453E+05
 0.63899994E+02 -0.47733E+05
 0.63949997E+02 -0.82058E+05
 0.63999992E+02 -0.12574E+06
 0.64049995E+02 -0.17042E+06
 0.64099998E+02 -0.20495E+06
 0.64149994E+02 -0.21916E+06
 0.64199997E+02 -0.21991E+06
 0.64249992E+02 -0.20413E+06
 0.64299995E+02 -0.17132E+06
 0.64349998E+02 -0.13651E+06
 0.64399994E+02 -0.93380E+05
 0.64449997E+02 -0.46887E+05
 0.64499992E+02 -0.10543E+05
 0.64549995E+02  0.25275E+05
 0.64599998E+02  0.56136E+05
 0.64649994E+02  0.76287E+05
 0.64699997E+02  0.97544E+05
 0.64749992E+02  0.11858E+06
 0.64799995E+02  0.13473E+06
 0.64849998E+02  0.15144E+06
 0.64899994E+02  0.15615E+06
 0.64949997E+02  0.15047E+06
 0.64999992E+02  0.15027E+06
 0.65049995E+02  0.15896E+06
 0.65099998E+02  0.18351E+06
 0.65149994E+02  0.22416E+06
 0.65199997E+02  0.26289E+06
 0.65249992E+02  0.28558E+06
 0.65299995E+02  0.30238E+06
 0.65349998E+02  0.31919E+06
 0.65399994E+02  0.32944E+06
 0.65449997E+02  0.33223E+06
 0.65499992E+02  0.32253E+06
 0.65549995E+02  0.29971E+06
 0.65599998E+02  0.27321E+06
 0.65649994E+02  0.23377E+06
 0.65699997E+02  0.18065E+06
 0.65749992E+02  0.12980E+06
 0.65799995E+02  0.83170E+05
 0.65849998E+02  0.34171E+05
 0.65899994E+02 -0.14046E+05
 0.65949997E+02 -0.50301E+05
 0.65999992E+02 -0.72687E+05
 0.66049995E+02 -0.84292E+05
 0.66099998E+02 -0.90048E+05
 0.66149994E+02 -0.98745E+05
 0.66199997E+02 -0.10456E+06
 0.66249992E+02 -0.98348E+05
 0.66299995E+02 -0.83062E+05
 0.66349998E+02 -0.63660E+05
 0.66399994E+02 -0.44378E+05
 0.66449997E+02 -0.33096E+05
 0.66499992E+02 -0.26223E+05
 0.66549995E+02 -0.10989E+05
 0.66599998E+02  0.26590E+04
 0.66649994E+02  0.86530E+04
 0.66699997E+02  0.82000E+04
 0.66749992E+02 -0.98089E+03
 0.66799995E+02 -0.22604E+05
 0.66849998E+02 -0.47841E+05
 0.66899994E+02 -0.69735E+05
 0.66949997E+02 -0.85786E+05
 0.66999992E+02 -0.95600E+05
 0.67049995E+02 -0.10466E+06
 0.67099998E+02 -0.10286E+06
 0.67149994E+02 -0.94979E+05
 0.67199997E+02 -0.10033E+06
 0.67249992E+02 -0.12488E+06
 0.67299995E+02 -0.16106E+06
 0.67349998E+02 -0.20738E+06
 0.67399994E+02 -0.25251E+06
 0.67449997E+02 -0.28451E+06
 0.67499992E+02 -0.30533E+06
 0.67549995E+02 -0.31266E+06
 0.67599998E+02 -0.30282E+06
 0.67649994E+02 -0.28056E+06
 0.67699997E+02 -0.25516E+06
 0.67749992E+02 -0.22564E+06
 0.67799995E+02 -0.19556E+06
 0.67849998E+02 -0.17006E+06
 0.67899994E+02 -0.14536E+06
 0.67949997E+02 -0.11319E+06
 0.67999992E+02 -0.75842E+05
 0.68049995E+02 -0.32375E+05
 0.68099998E+02  0.22475E+05
 0.68149994E+02  0.72200E+05
 0.68199997E+02  0.11019E+06
 0.68249992E+02  0.14631E+06
 0.68299995E+02  0.17357E+06
 0.68349998E+02  0.18284E+06
 0.68399994E+02  0.17864E+06
 0.68449997E+02  0.16467E+06
 0.68499992E+02  0.14871E+06
 0.68549995E+02  0.13167E+06
 0.68599998E+02  0.10676E+06
 0.68649994E+02  0.84027E+05
 0.68699997E+02  0.72034E+05
 0.68749992E+02  0.61680E+05
 0.68799995E+02  0.48368E+05
 0.68849998E+02  0.41663E+05
 0.68899994E+02  0.49719E+05
 0.68949997E+02  0.70322E+05
 0.68999992E+02  0.96494E+05
 0.69049995E+02  0.12299E+06
 0.69099998E+02  0.14351E+06
 0.69149994E+02  0.15416E+06
 0.69199997E+02  0.14687E+06
 0.69249992E+02  0.12045E+06
 0.69299995E+02  0.87524E+05
 0.69349998E+02  0.53726E+05
 0.69399994E+02  0.33646E+05
 0.69449997E+02  0.41380E+05
 0.69499992E+02  0.74976E+05
 0.69549995E+02  0.12733E+06
 0.69599998E+02  0.18077E+06
 0.69649994E+02  0.21764E+06
 0.69699997E+02  0.22751E+06
 0.69749992E+02  0.20773E+06
 0.69799995E+02  0.16470E+06
 0.69849998E+02  0.10403E+06
 0.69899994E+02  0.39035E+05
 0.69949997E+02 -0.20291E+05
 0.69999992E+02 -0.64519E+05
 0.70049995E+02 -0.92016E+05
 0.70099998E+02 -0.11815E+06
 0.70149994E+02 -0.13964E+06
 0.70199997E+02 -0.14990E+06
 0.70249992E+02 -0.15761E+06
 0.70299995E+02 -0.15498E+06
 0.70349998E+02 -0.12820E+06
 0.70399994E+02 -0.87584E+05
 0.70449997E+02 -0.39144E+05
 0.70499992E+02  0.14675E+05
 0.70549995E+02  0.63744E+05
 0.70599998E+02  0.95636E+05
 0.70649994E+02  0.10624E+06
 0.70699997E+02  0.10128E+06
 0.70749992E+02  0.82622E+05
 0.70799995E+02  0.50650E+05
 0.70849998E+02  0.98108E+04
 0.70899994E+02 -0.36573E+05
 0.70949997E+02 -0.77771E+05
 0.70999992E+02 -0.10783E+06
 0.71049995E+02 -0.13730E+06
 0.71099998E+02 -0.15938E+06
 0.71149994E+02 -0.16054E+06
 0.71199997E+02 -0.14154E+06
 0.71249992E+02 -0.11310E+06
 0.71299995E+02 -0.76128E+05
 0.71349998E+02 -0.33264E+05
 0.71399994E+02  0.59768E+04
 0.71449997E+02  0.34206E+05
 0.71499992E+02  0.53658E+05
 0.71549995E+02  0.74690E+05
 0.71599998E+02  0.10032E+06
 0.71649994E+02  0.13100E+06
 0.71699997E+02  0.16633E+06
 0.71749992E+02  0.20162E+06
 0.71799995E+02  0.22631E+06
 0.71849998E+02  0.23808E+06
 0.71899994E+02  0.23647E+06
 0.71949997E+02  0.21973E+06
 0.71999992E+02  0.18748E+06
 0.72049995E+02  0.14205E+06
 0.72099998E+02  0.94995E+05
 0.72149994E+02  0.55100E+05
 0.72199997E+02  0.20986E+05
 0.72249992E+02 -0.30172E+04
 0.72299995E+02 -0.13173E+05
 0.72349998E+02 -0.16753E+05
 0.72399994E+02 -0.14606E+05
 0.72449997E+02 -0.50938E+04
 0.72499992E+02  0.13747E+04
 0.72549995E+02 -0.61211E+04
 0.72599998E+02 -0.26488E+05
 0.72649994E+02 -0.58150E+05
 0.72699997E+02 -0.97387E+05
 0.72749992E+02 -0.13200E+06
 0.72799995E+02 -0.15335E+06
 0.72849998E+02 -0.15888E+06
 0.72899994E+02 -0.14871E+06
 0.72949997E+02 -0.12888E+06
 0.72999992E+02 -0.10302E+06
 0.73049995E+02 -0.76220E+05
 0.73099998E+02 -0.57524E+05
 0.73149994E+02 -0.49775E+05
 0.73199997E+02 -0.46752E+05
 0.73249992E+02 -0.43821E+05
 0.73299995E+02 -0.45893E+05
 0.73349998E+02 -0.52655E+05
 0.73399994E+02 -0.57674E+05
 0.73449997E+02 -0.54781E+05
 0.73499992E+02 -0.39914E+05
 0.73549995E+02 -0.18676E+05
 0.73599998E+02 -0.15358E+04
 0.73649994E+02  0.64018E+04
 0.73699997E+02  0.83930E+04
 0.73749992E+02  0.10122E+05
 0.73799995E+02  0.10535E+05
 0.73849998E+02  0.83077E+04
 0.73899994E+02  0.10203E+05
 0.73949997E+02  0.13917E+05
 0.73999992E+02  0.99173E+04
 0.74049995E+02  0.24517E+03
 0.74099998E+02 -0.61086E+04
 0.74149994E+02 -0.72443E+04
 0.74199997E+02 -0.66520E+04
 0.74249992E+02 -0.57733E+04
 0.74299995E+02 -0.65625E+04
 0.74349998E+02 -0.50797E+04
 0.74399994E+02 -0.55890E+03
 0.74449997E+02  0.19093E+04
 0.74499992E+02  0.51586E+04
 0.74549995E+02  0.90100E+04
 0.74599998E+02  0.71413E+04
 0.74649994E+02  0.15967E+04
 0.74699997E+02 -0.34862E+04
 0.74749992E+02 -0.59384E+04
 0.74799995E+02 -0.87076E+04
 0.74849998E+02 -0.16078E+05
 0.74899994E+02 -0.26791E+05
 0.74949997E+02 -0.32691E+05
 0.74999992E+02 -0.32861E+05
 0.75049995E+02 -0.31363E+05
 0.75099998E+02 -0.25435E+05
 0.75149994E+02 -0.15861E+05
 0.75199997E+02 -0.98198E+04
 0.75249992E+02 -0.11238E+05
 0.75299995E+02 -0.12225E+05
 0.75349998E+02 -0.13031E+05
 0.75399994E+02 -0.15652E+05
 0.75449997E+02 -0.18297E+05
 0.75499992E+02 -0.19649E+05
 0.75549995E+02 -0.21115E+05
 0.75599998E+02 -0.25855E+05
 0.75649994E+02 -0.29414E+05
 0.75699997E+02 -0.28123E+05
 0.75749992E+02 -0.23826E+05
 0.75799995E+02 -0.14003E+05
 0.75849998E+02  0.12932E+04
 0.75899994E+02  0.15743E+05
 0.75949997E+02  0.30121E+05
 0.75999992E+02  0.41727E+05
 0.76049995E+02  0.47230E+05
 0.76099998E+02  0.51401E+05
 0.76149994E+02  0.55742E+05
 0.76199997E+02  0.62033E+05
 0.76249992E+02  0.71978E+05
 0.76299995E+02  0.77545E+05
 0.76349998E+02  0.70533E+05
 0.76399994E+02  0.53741E+05
 0.76449997E+02  0.32135E+05
 0.76499992E+02  0.27778E+04
 0.76549995E+02 -0.28468E+05
 0.76599998E+02 -0.54682E+05
 0.76649994E+02 -0.78038E+05
 0.76699997E+02 -0.94855E+05
 0.76749992E+02 -0.10294E+06
 0.76799995E+02 -0.10824E+06
 0.76849998E+02 -0.11935E+06
 0.76899994E+02 -0.13676E+06
 0.76949997E+02 -0.16139E+06
 0.76999992E+02 -0.19170E+06
 0.77049995E+02 -0.22230E+06
 0.77099998E+02 -0.24966E+06
 0.77149994E+02 -0.26713E+06
 0.77199997E+02 -0.27197E+06
 0.77249992E+02 -0.26372E+06
 0.77299995E+02 -0.24781E+06
 0.77349998E+02 -0.22729E+06
 0.77399994E+02 -0.20012E+06
 0.77449997E+02 -0.16905E+06
 0.77499992E+02 -0.13657E+06
 0.77549995E+02 -0.10230E+06
 0.77599998E+02 -0.68231E+05
 0.77649994E+02 -0.36607E+05
 0.77699997E+02 -0.10996E+05
 0.77749992E+02  0.67912E+04
 0.77799995E+02  0.19541E+05
 0.77849998E+02  0.30036E+05
 0.77899994E+02  0.43541E+05
 0.77949997E+02  0.61565E+05
 0.77999992E+02  0.79755E+05
 0.78049995E+02  0.94693E+05
 0.78099998E+02  0.10790E+06
 0.78149994E+02  0.12027E+06
 0.78199997E+02  0.12909E+06
 0.78249992E+02  0.13274E+06
 0.78299995E+02  0.13164E+06
 0.78349998E+02  0.13148E+06
 0.78399994E+02  0.13457E+06
 0.78449997E+02  0.13506E+06
 0.78499992E+02  0.13271E+06
 0.78549995E+02  0.12761E+06
 0.78599998E+02  0.11654E+06
 0.78649994E+02  0.10216E+06
 0.78699997E+02  0.85185E+05
 0.78749992E+02  0.65673E+05
 0.78799995E+02  0.52333E+05
 0.78849998E+02  0.50091E+05
 0.78899994E+02  0.53952E+05
 0.78949997E+02  0.59164E+05
 0.78999992E+02  0.61512E+05
 0.79049995E+02  0.61427E+05
 0.79099998E+02  0.57841E+05
 0.79149994E+02  0.46041E+05
 0.79199997E+02  0.29169E+05
 0.79249992E+02  0.15502E+05
 0.79299995E+02  0.10073E+05
 0.79349998E+02  0.12013E+05
 0.79399994E+02  0.22807E+05
 0.79449997E+02  0.40080E+05
 0.79499992E+02  0.57988E+05
 0.79549995E+02  0.74339E+05
 0.79599998E+02  0.90439E+05
 0.79649994E+02  0.10453E+06
 0.79699997E+02  0.10998E+06
 0.79749992E+02  0.10816E+06
 0.79799995E+02  0.98862E+05
 0.79849998E+02  0.81101E+05
 0.79899994E+02  0.58900E+05
 0.79949997E+02  0.37110E+05
 0.79999992E+02  0.16804E+05
 0.80049995E+02 -0.42091E+04
 0.80099998E+02 -0.24724E+05
 0.80149994E+02 -0.43076E+05
 0.80199997E+02 -0.57237E+05
 0.80249992E+02 -0.66322E+05
 0.80299995E+02 -0.69572E+05
 0.80349998E+02 -0.67200E+05
 0.80399994E+02 -0.60660E+05
 0.80449997E+02 -0.51460E+05
 0.80499992E+02 -0.38651E+05
 0.80549995E+02 -0.22710E+05
 0.80599998E+02 -0.37128E+04
 0.80649994E+02  0.21747E+05
 0.80699997E+02  0.49129E+05
 0.80749992E+02  0.68009E+05
 0.80799995E+02  0.75951E+05
 0.80849998E+02  0.76457E+05
 0.80899994E+02  0.70947E+05
 0.80949997E+02  0.60989E+05
 0.80999992E+02  0.47916E+05
 0.81049995E+02  0.34434E+05
 0.81099998E+02  0.22082E+05
 0.81149994E+02  0.13386E+05
 0.81199997E+02  0.10489E+05
 0.81249992E+02  0.12118E+05
 0.81299995E+02  0.16262E+05
 0.81349998E+02  0.25205E+05
 0.81399994E+02  0.39699E+05
 0.81449997E+02  0.53127E+05
 0.81499992E+02  0.61540E+05
 0.81549995E+02  0.63238E+05
 0.81599998E+02  0.58451E+05
 0.81649994E+02  0.48900E+05
 0.81699997E+02  0.37350E+05
 0.81749992E+02  0.31774E+05
 0.81799995E+02  0.36541E+05
 0.81849998E+02  0.49112E+05
 0.81899994E+02  0.65419E+05
 0.81949997E+02  0.81196E+05
 0.81999992E+02  0.94478E+05
 0.82049995E+02  0.10277E+06
 0.82099998E+02  0.10418E+06
 0.82149994E+02  0.10313E+06
 0.82199997E+02  0.10231E+06
 0.82249992E+02  0.98767E+05
 0.82299995E+02  0.92843E+05
 0.82349998E+02  0.86758E+05
 0.82399994E+02  0.79882E+05
 0.82449997E+02  0.65318E+05
 0.82499992E+02  0.39841E+05
 0.82549995E+02  0.69138E+04
 0.82599998E+02 -0.32771E+05
 0.82649994E+02 -0.77078E+05
 0.82699997E+02 -0.12378E+06
 0.82749992E+02 -0.16932E+06
 0.82799995E+02 -0.20856E+06
 0.82849998E+02 -0.23734E+06
 0.82899994E+02 -0.25519E+06
 0.82949997E+02 -0.26638E+06
 0.82999992E+02 -0.26737E+06
 0.83049995E+02 -0.25070E+06
 0.83099998E+02 -0.21847E+06
 0.83149994E+02 -0.17351E+06
 0.83199997E+02 -0.11798E+06
 0.83249992E+02 -0.58155E+05
 0.83299995E+02  0.32361E+04
 0.83349998E+02  0.65012E+05
 0.83399994E+02  0.12285E+06
 0.83449997E+02  0.17299E+06
 0.83499992E+02  0.21373E+06
 0.83549995E+02  0.24208E+06
 0.83599998E+02  0.25688E+06
 0.83649994E+02  0.25667E+06
 0.83699997E+02  0.24432E+06
 0.83749992E+02  0.22526E+06
 0.83799995E+02  0.20403E+06
 0.83849998E+02  0.18307E+06
 0.83899994E+02  0.15971E+06
 0.83949997E+02  0.13265E+06
 0.83999992E+02  0.10376E+06
 0.84049995E+02  0.79091E+05
 0.84099998E+02  0.60258E+05
 0.84149994E+02  0.45585E+05
 0.84199997E+02  0.32816E+05
 0.84249992E+02  0.20574E+05
 0.84299995E+02  0.67483E+04
 0.84349998E+02 -0.12564E+05
 0.84399994E+02 -0.37094E+05
 0.84449997E+02 -0.60007E+05
 0.84499992E+02 -0.78991E+05
 0.84549995E+02 -0.99439E+05
 0.84599998E+02 -0.11915E+06
 0.84649994E+02 -0.13187E+06
 0.84699997E+02 -0.13742E+06
 0.84749992E+02 -0.13921E+06
 0.84799995E+02 -0.13854E+06
 0.84849998E+02 -0.13867E+06
 0.84899994E+02 -0.14285E+06
 0.84949997E+02 -0.15048E+06
 0.84999992E+02 -0.15862E+06
 0.85049995E+02 -0.16473E+06
 0.85099998E+02 -0.16577E+06
 0.85149994E+02 -0.16100E+06
 0.85199997E+02 -0.15369E+06
 0.85249992E+02 -0.14624E+06
 0.85299995E+02 -0.13833E+06
 0.85349998E+02 -0.13038E+06
 0.85399994E+02 -0.12388E+06
 0.85449997E+02 -0.11770E+06
 0.85499992E+02 -0.11128E+06
 0.85549995E+02 -0.10399E+06
 0.85599998E+02 -0.98608E+05
 0.85649994E+02 -0.96752E+05
 0.85699997E+02 -0.94345E+05
 0.85749992E+02 -0.90018E+05
 0.85799995E+02 -0.83694E+05
 0.85849998E+02 -0.75439E+05
 0.85899994E+02 -0.67449E+05
 0.85949997E+02 -0.58595E+05
 0.85999992E+02 -0.48375E+05
 0.86049995E+02 -0.39643E+05
 0.86099998E+02 -0.33937E+05
 0.86149994E+02 -0.32191E+05
 0.86199997E+02 -0.33308E+05
 0.86249992E+02 -0.34831E+05
 0.86299995E+02 -0.34848E+05
 0.86349998E+02 -0.32557E+05
 0.86399994E+02 -0.28402E+05
 0.86449997E+02 -0.20349E+05
 0.86499992E+02 -0.80377E+04
 0.86549995E+02  0.83839E+04
 0.86599998E+02  0.28201E+05
 0.86649994E+02  0.47504E+05
 0.86699997E+02  0.61955E+05
 0.86749992E+02  0.69738E+05
 0.86799995E+02  0.70792E+05
 0.86849998E+02  0.64615E+05
 0.86899994E+02  0.53605E+05
 0.86949997E+02  0.42206E+05
 0.86999992E+02  0.33897E+05
 0.87049995E+02  0.28362E+05
 0.87099998E+02  0.23976E+05
 0.87149994E+02  0.22447E+05
 0.87199997E+02  0.25003E+05
 0.87249992E+02  0.30061E+05
 0.87299995E+02  0.39312E+05
 0.87349998E+02  0.53044E+05
 0.87399994E+02  0.66131E+05
 0.87449997E+02  0.73010E+05
 0.87499992E+02  0.69431E+05
 0.87549995E+02  0.55556E+05
 0.87599991E+02  0.39416E+05
 0.87649994E+02  0.29194E+05
 0.87699997E+02  0.24115E+05
 0.87749992E+02  0.21549E+05
 0.87799995E+02  0.20934E+05
 0.87849991E+02  0.18469E+05
 0.87899994E+02  0.11774E+05
 0.87949997E+02  0.35724E+03
 0.87999992E+02 -0.14570E+05
 0.88049995E+02 -0.28217E+05
 0.88099991E+02 -0.38016E+05
 0.88149994E+02 -0.42917E+05
 0.88199997E+02 -0.41756E+05
 0.88249992E+02 -0.36234E+05
 0.88299995E+02 -0.30759E+05
 0.88349991E+02 -0.26604E+05
 0.88399994E+02 -0.23321E+05
 0.88449997E+02 -0.21901E+05
 0.88499992E+02 -0.23451E+05
 0.88549995E+02 -0.29860E+05
 0.88599991E+02 -0.39776E+05
 0.88649994E+02 -0.53552E+05
 0.88699997E+02 -0.71694E+05
 0.88749992E+02 -0.90747E+05
 0.88799995E+02 -0.10697E+06
 0.88849991E+02 -0.11586E+06
 0.88899994E+02 -0.11741E+06
 0.88949997E+02 -0.11230E+06
 0.88999992E+02 -0.10020E+06
 0.89049995E+02 -0.80387E+05
 0.89099991E+02 -0.55520E+05
 0.89149994E+02 -0.31324E+05
 0.89199997E+02 -0.95703E+04
 0.89249992E+02  0.95664E+04
 0.89299995E+02  0.26256E+05
 0.89349991E+02  0.42291E+05
 0.89399994E+02  0.59338E+05
 0.89449997E+02  0.77118E+05
 0.89499992E+02  0.95941E+05
 0.89549995E+02  0.11484E+06
 0.89599991E+02  0.13204E+06
 0.89649994E+02  0.14896E+06
 0.89699997E+02  0.16585E+06
 0.89749992E+02  0.18015E+06
 0.89799995E+02  0.19017E+06
 0.89849991E+02  0.19263E+06
 0.89899994E+02  0.18660E+06
 0.89949997E+02  0.17486E+06
 0.89999992E+02  0.15962E+06
 0.90049995E+02  0.14381E+06
 0.90099991E+02  0.12896E+06
 0.90149994E+02  0.11345E+06
 0.90199997E+02  0.95758E+05
 0.90249992E+02  0.76607E+05
 0.90299995E+02  0.56192E+05
 0.90349991E+02  0.35677E+05
 0.90399994E+02  0.18727E+05
 0.90449997E+02  0.82742E+04
 0.90499992E+02  0.45329E+04
 0.90549995E+02  0.59808E+04
 0.90599991E+02  0.13474E+05
 0.90649994E+02  0.26108E+05
 0.90699997E+02  0.41787E+05
 0.90749992E+02  0.59327E+05
 0.90799995E+02  0.77876E+05
 0.90849991E+02  0.95373E+05
 0.90899994E+02  0.10847E+06
 0.90949997E+02  0.11579E+06
 0.90999992E+02  0.11888E+06
 0.91049995E+02  0.12174E+06
 0.91099991E+02  0.12352E+06
 0.91149994E+02  0.11996E+06
 0.91199997E+02  0.11107E+06
 0.91249992E+02  0.98163E+05
 0.91299995E+02  0.80740E+05
 0.91349991E+02  0.61923E+05
 0.91399994E+02  0.46544E+05
 0.91449997E+02  0.35791E+05
 0.91499992E+02  0.29284E+05
 0.91549995E+02  0.25064E+05
 0.91599991E+02  0.19884E+05
 0.91649994E+02  0.11744E+05
 0.91699997E+02  0.87670E+03
 0.91749992E+02 -0.11892E+05
 0.91799995E+02 -0.26503E+05
 0.91849991E+02 -0.41546E+05
 0.91899994E+02 -0.55687E+05
 0.91949997E+02 -0.68063E+05
 0.91999992E+02 -0.76874E+05
 0.92049995E+02 -0.83802E+05
 0.92099991E+02 -0.91140E+05
 0.92149994E+02 -0.98667E+05
 0.92199997E+02 -0.10659E+06
 0.92249992E+02 -0.11235E+06
 0.92299995E+02 -0.11246E+06
 0.92349991E+02 -0.10678E+06
 0.92399994E+02 -0.97028E+05
 0.92449997E+02 -0.85548E+05
 0.92499992E+02 -0.73118E+05
 0.92549995E+02 -0.58257E+05
 0.92599991E+02 -0.43294E+05
 0.92649994E+02 -0.31909E+05
 0.92699997E+02 -0.24358E+05
 0.92749992E+02 -0.19927E+05
 0.92799995E+02 -0.15671E+05
 0.92849991E+02 -0.95299E+04
 0.92899994E+02 -0.33158E+04
 0.92949997E+02  0.35502E+04
 0.92999992E+02  0.14093E+05
 0.93049995E+02  0.28099E+05
 0.93099991E+02  0.45101E+05
 0.93149994E+02  0.64713E+05
 0.93199997E+02  0.83094E+05
 0.93249992E+02  0.98268E+05
 0.93299995E+02  0.10931E+06
 0.93349991E+02  0.11201E+06
 0.93399994E+02  0.10486E+06
 0.93449997E+02  0.90710E+05
 0.93499992E+02  0.73791E+05
 0.93549995E+02  0.58010E+05
 0.93599991E+02  0.45376E+05
 0.93649994E+02  0.35212E+05
 0.93699997E+02  0.27794E+05
 0.93749992E+02  0.22377E+05
 0.93799995E+02  0.15561E+05
 0.93849991E+02  0.66825E+04
 0.93899994E+02 -0.17597E+04
 0.93949997E+02 -0.69474E+04
 0.93999992E+02 -0.10519E+05
 0.94049995E+02 -0.17096E+05
 0.94099991E+02 -0.27469E+05
 0.94149994E+02 -0.39757E+05
 0.94199997E+02 -0.51519E+05
 0.94249992E+02 -0.60609E+05
 0.94299995E+02 -0.67994E+05
 0.94349991E+02 -0.76288E+05
 0.94399994E+02 -0.86264E+05
 0.94449997E+02 -0.96000E+05
 0.94499992E+02 -0.10505E+06
 0.94549995E+02 -0.11198E+06
 0.94599991E+02 -0.11426E+06
 0.94649994E+02 -0.11319E+06
 0.94699997E+02 -0.10813E+06
 0.94749992E+02 -0.96107E+05
 0.94799995E+02 -0.79255E+05
 0.94849991E+02 -0.61967E+05
 0.94899994E+02 -0.46499E+05
 0.94949997E+02 -0.34607E+05
 0.94999992E+02 -0.27337E+05
 0.95049995E+02 -0.25000E+05
 0.95099991E+02 -0.27416E+05
 0.95149994E+02 -0.31909E+05
 0.95199997E+02 -0.35252E+05
 0.95249992E+02 -0.36867E+05
 0.95299995E+02 -0.36897E+05
 0.95349991E+02 -0.34811E+05
 0.95399994E+02 -0.32402E+05
 0.95449997E+02 -0.31041E+05
 0.95499992E+02 -0.28432E+05
 0.95549995E+02 -0.24133E+05
 0.95599991E+02 -0.16930E+05
 0.95649994E+02 -0.46813E+04
 0.95699997E+02  0.13111E+05
 0.95749992E+02  0.32719E+05
 0.95799995E+02  0.47364E+05
 0.95849991E+02  0.53795E+05
 0.95899994E+02  0.53718E+05
 0.95949997E+02  0.51702E+05
 0.95999992E+02  0.48619E+05
 0.96049995E+02  0.43124E+05
 0.96099991E+02  0.35109E+05
 0.96149994E+02  0.25886E+05
 0.96199997E+02  0.17513E+05
 0.96249992E+02  0.11412E+05
 0.96299995E+02  0.70620E+04
 0.96349991E+02  0.22426E+04
 0.96399994E+02 -0.38681E+04
 0.96449997E+02 -0.11660E+05
 0.96499992E+02 -0.22267E+05
 0.96549995E+02 -0.35716E+05
 0.96599991E+02 -0.50437E+05
 0.96649994E+02 -0.64220E+05
 0.96699997E+02 -0.76528E+05
 0.96749992E+02 -0.86622E+05
 0.96799995E+02 -0.91429E+05
 0.96849991E+02 -0.88005E+05
 0.96899994E+02 -0.76178E+05
 0.96949997E+02 -0.59510E+05
 0.96999992E+02 -0.41568E+05
 0.97049995E+02 -0.25598E+05
 0.97099991E+02 -0.13985E+05
 0.97149994E+02 -0.74582E+04
 0.97199997E+02 -0.65046E+04
 0.97249992E+02 -0.98837E+04
 0.97299995E+02 -0.13127E+05
 0.97349991E+02 -0.11145E+05
 0.97399994E+02 -0.31821E+04
 0.97449997E+02  0.92464E+04
 0.97499992E+02  0.24908E+05
 0.97549995E+02  0.42003E+05
 0.97599991E+02  0.55606E+05
 0.97649994E+02  0.63205E+05
 0.97699997E+02  0.66048E+05
 0.97749992E+02  0.64481E+05
 0.97799995E+02  0.63301E+05
 0.97849991E+02  0.68306E+05
 0.97899994E+02  0.78088E+05
 0.97949997E+02  0.88837E+05
 0.97999992E+02  0.96540E+05
