-0.19969940E+01  0.66548E+04
-0.19469941E+01  0.66208E+04
-0.18969940E+01  0.66578E+04
-0.18469940E+01  0.66787E+04
-0.17969940E+01  0.66868E+04
-0.17469940E+01  0.66936E+04
-0.16969941E+01  0.67062E+04
-0.16469941E+01  0.67130E+04
-0.15969940E+01  0.67099E+04
-0.15469940E+01  0.67100E+04
-0.14969940E+01  0.67215E+04
-0.14469941E+01  0.67276E+04
-0.13969941E+01  0.67287E+04
-0.13469940E+01  0.67159E+04
-0.12969941E+01  0.67155E+04
-0.12469940E+01  0.67040E+04
-0.11969941E+01  0.66997E+04
-0.11469941E+01  0.66925E+04
-0.10969940E+01  0.66855E+04
-0.10469941E+01  0.66795E+04
-0.99699408E+00  0.66669E+04
-0.94699407E+00  0.66654E+04
-0.89699411E+00  0.66585E+04
-0.84699404E+00  0.66671E+04
-0.79699409E+00  0.66520E+04
-0.74699414E+00  0.66487E+04
-0.69699407E+00  0.66501E+04
-0.64699411E+00  0.66373E+04
-0.59699416E+00  0.66308E+04
-0.54699409E+00  0.66292E+04
-0.49699414E+00  0.66374E+04
-0.44699407E+00  0.66350E+04
-0.39699411E+00  0.66425E+04
-0.34699416E+00  0.66445E+04
-0.29699409E+00  0.66549E+04
-0.24699414E+00  0.66620E+04
-0.19699407E+00  0.66715E+04
-0.14699411E+00  0.66867E+04
-0.96994162E-01  0.66822E+04
-0.46994090E-01  0.66802E+04
 0.30058622E-02  0.66726E+04
 0.53005934E-01  0.66827E+04
 0.10300589E+00  0.66809E+04
 0.15300584E+00  0.66743E+04
 0.20300579E+00  0.66796E+04
 0.25300574E+00  0.66827E+04
 0.30300593E+00  0.66865E+04
 0.35300589E+00  0.66828E+04
 0.40300584E+00  0.66865E+04
 0.45300579E+00  0.66844E+04
 0.50300574E+00  0.66792E+04
 0.55300593E+00  0.66794E+04
 0.60300589E+00  0.66706E+04
 0.65300584E+00  0.66662E+04
 0.70300579E+00  0.66721E+04
 0.75300574E+00  0.66734E+04
 0.80300570E+00  0.66689E+04
 0.85300589E+00  0.66625E+04
 0.90300584E+00  0.66812E+04
 0.95300579E+00  0.66847E+04
 0.10030057E+01  0.66826E+04
 0.10530057E+01  0.66832E+04
 0.11030059E+01  0.66974E+04
 0.11530058E+01  0.67062E+04
 0.12030058E+01  0.66952E+04
 0.12530057E+01  0.66907E+04
 0.13030057E+01  0.66882E+04
 0.13530059E+01  0.66752E+04
 0.14030058E+01  0.66730E+04
 0.14530058E+01  0.66762E+04
 0.15030057E+01  0.66647E+04
 0.15530057E+01  0.66728E+04
 0.16030059E+01  0.66670E+04
 0.16530058E+01  0.66729E+04
 0.17030058E+01  0.66657E+04
 0.17530057E+01  0.66567E+04
 0.18030057E+01  0.66731E+04
 0.18530056E+01  0.66741E+04
 0.19030058E+01  0.66735E+04
 0.19530058E+01  0.66686E+04
 0.20030057E+01  0.66719E+04
 0.20530057E+01  0.66768E+04
 0.21030059E+01  0.66781E+04
 0.21530056E+01  0.66691E+04
 0.22030058E+01  0.66604E+04
 0.22530055E+01  0.66652E+04
 0.23030057E+01  0.66728E+04
 0.23530059E+01  0.66707E+04
 0.24030056E+01  0.66597E+04
 0.24530058E+01  0.66634E+04
 0.25030055E+01  0.66727E+04
 0.25530057E+01  0.66673E+04
 0.26030059E+01  0.66739E+04
 0.26530056E+01  0.66827E+04
 0.27030058E+01  0.66784E+04
 0.27530055E+01  0.66835E+04
 0.28030057E+01  0.66756E+04
 0.28530059E+01  0.66819E+04
 0.29030056E+01  0.66874E+04
 0.29530058E+01  0.66756E+04
 0.30030055E+01  0.66707E+04
 0.30530057E+01  0.66770E+04
 0.31030059E+01  0.66746E+04
 0.31530056E+01  0.66641E+04
 0.32030058E+01  0.66654E+04
 0.32530055E+01  0.66637E+04
 0.33030057E+01  0.66648E+04
 0.33530059E+01  0.66611E+04
 0.34030056E+01  0.66564E+04
 0.34530058E+01  0.66567E+04
 0.35030055E+01  0.66708E+04
 0.35530057E+01  0.66779E+04
 0.36030054E+01  0.66689E+04
 0.36530056E+01  0.66750E+04
 0.37030058E+01  0.66867E+04
 0.37530055E+01  0.66943E+04
 0.38030057E+01  0.66840E+04
 0.38530054E+01  0.66739E+04
 0.39030056E+01  0.66576E+04
 0.39530058E+01  0.66463E+04
 0.40030055E+01  0.66429E+04
 0.40530057E+01  0.66370E+04
 0.41030054E+01  0.66378E+04
 0.41530056E+01  0.66321E+04
 0.42030058E+01  0.66306E+04
 0.42530055E+01  0.66410E+04
 0.43030057E+01  0.66553E+04
 0.43530054E+01  0.66594E+04
 0.44030056E+01  0.66634E+04
 0.44530058E+01  0.66686E+04
 0.45030055E+01  0.66729E+04
 0.45530057E+01  0.66778E+04
 0.46030054E+01  0.66850E+04
 0.46530056E+01  0.66887E+04
 0.47030058E+01  0.66875E+04
 0.47530055E+01  0.66934E+04
 0.48030057E+01  0.67004E+04
 0.48530054E+01  0.66938E+04
 0.49030056E+01  0.67051E+04
 0.49530058E+01  0.67133E+04
 0.50030055E+01  0.66961E+04
 0.50530057E+01  0.66937E+04
 0.51030054E+01  0.66867E+04
 0.51530056E+01  0.66840E+04
 0.52030058E+01  0.66850E+04
 0.52530055E+01  0.66772E+04
 0.53030057E+01  0.66843E+04
 0.53530054E+01  0.66867E+04
 0.54030056E+01  0.66942E+04
 0.54530053E+01  0.66980E+04
 0.55030055E+01  0.66960E+04
 0.55530057E+01  0.67012E+04
 0.56030054E+01  0.67015E+04
 0.56530056E+01  0.66940E+04
 0.57030053E+01  0.66946E+04
 0.57530055E+01  0.66983E+04
 0.58030057E+01  0.66861E+04
 0.58530054E+01  0.66808E+04
 0.59030056E+01  0.66690E+04
 0.59530053E+01  0.66556E+04
 0.60030055E+01  0.66503E+04
 0.60530052E+01  0.66501E+04
 0.61030054E+01  0.66576E+04
 0.61530056E+01  0.66481E+04
 0.62030058E+01  0.66338E+04
 0.62530050E+01  0.66367E+04
 0.63030052E+01  0.66392E+04
 0.63530054E+01  0.66309E+04
 0.64030056E+01  0.66368E+04
 0.64530058E+01  0.66460E+04
 0.65030050E+01  0.66488E+04
 0.65530052E+01  0.66514E+04
 0.66030054E+01  0.66520E+04
 0.66530056E+01  0.66637E+04
 0.67030058E+01  0.66728E+04
 0.67530050E+01  0.66668E+04
 0.68030052E+01  0.66675E+04
 0.68530054E+01  0.66686E+04
 0.69030056E+01  0.66614E+04
 0.69530058E+01  0.66645E+04
 0.70030050E+01  0.66723E+04
 0.70530052E+01  0.66790E+04
 0.71030054E+01  0.66753E+04
 0.71530056E+01  0.66686E+04
 0.72030058E+01  0.66595E+04
 0.72530050E+01  0.66692E+04
 0.73030052E+01  0.66739E+04
 0.73530054E+01  0.66694E+04
 0.74030056E+01  0.66674E+04
 0.74530058E+01  0.66639E+04
 0.75030050E+01  0.66679E+04
 0.75530052E+01  0.66663E+04
 0.76030054E+01  0.66758E+04
 0.76530056E+01  0.66812E+04
 0.77030058E+01  0.66850E+04
 0.77530050E+01  0.66821E+04
 0.78030052E+01  0.66936E+04
 0.78530054E+01  0.67081E+04
 0.79030056E+01  0.67007E+04
 0.79530058E+01  0.66961E+04
 0.80030050E+01  0.66906E+04
 0.80530052E+01  0.66835E+04
 0.81030054E+01  0.66828E+04
 0.81530056E+01  0.66787E+04
 0.82030058E+01  0.66715E+04
 0.82530050E+01  0.66695E+04
 0.83030052E+01  0.66673E+04
 0.83530054E+01  0.66697E+04
 0.84030056E+01  0.66735E+04
 0.84530058E+01  0.66750E+04
 0.85030050E+01  0.66740E+04
 0.85530052E+01  0.66811E+04
 0.86030054E+01  0.66839E+04
 0.86530056E+01  0.66944E+04
 0.87030058E+01  0.66956E+04
 0.87530050E+01  0.66885E+04
 0.88030052E+01  0.66888E+04
 0.88530054E+01  0.66826E+04
 0.89030056E+01  0.66808E+04
 0.89530058E+01  0.66785E+04
 0.90030050E+01  0.66876E+04
 0.90530052E+01  0.66843E+04
 0.91030054E+01  0.66766E+04
 0.91530056E+01  0.66691E+04
 0.92030048E+01  0.66690E+04
 0.92530050E+01  0.66620E+04
 0.93030052E+01  0.66422E+04
 0.93530054E+01  0.66410E+04
 0.94030056E+01  0.66332E+04
 0.94530048E+01  0.66339E+04
 0.95030050E+01  0.66269E+04
 0.95530052E+01  0.66212E+04
 0.96030054E+01  0.66273E+04
 0.96530056E+01  0.66352E+04
 0.97030048E+01  0.66406E+04
 0.97530050E+01  0.66380E+04
 0.98030052E+01  0.66435E+04
 0.98530054E+01  0.66437E+04
 0.99030056E+01  0.66461E+04
 0.99530048E+01  0.66607E+04
 0.10003005E+02  0.66788E+04
 0.10053005E+02  0.66864E+04
 0.10103005E+02  0.66936E+04
 0.10153006E+02  0.66874E+04
 0.10203005E+02  0.66917E+04
 0.10253005E+02  0.66959E+04
 0.10303005E+02  0.66974E+04
 0.10353005E+02  0.67105E+04
 0.10403006E+02  0.67132E+04
 0.10453005E+02  0.67131E+04
 0.10503005E+02  0.67023E+04
 0.10553005E+02  0.66995E+04
 0.10603005E+02  0.66895E+04
 0.10653006E+02  0.66748E+04
 0.10703005E+02  0.66677E+04
 0.10753005E+02  0.66616E+04
 0.10803005E+02  0.66567E+04
 0.10853005E+02  0.66533E+04
 0.10903006E+02  0.66400E+04
 0.10953005E+02  0.66374E+04
 0.11003005E+02  0.66495E+04
 0.11053005E+02  0.66488E+04
 0.11103005E+02  0.66625E+04
 0.11153006E+02  0.66675E+04
 0.11203005E+02  0.66782E+04
 0.11253005E+02  0.66859E+04
 0.11303005E+02  0.66911E+04
 0.11353005E+02  0.67039E+04
 0.11403006E+02  0.66996E+04
 0.11453005E+02  0.67043E+04
 0.11503005E+02  0.66987E+04
 0.11553005E+02  0.66976E+04
 0.11603005E+02  0.66908E+04
 0.11653006E+02  0.66914E+04
 0.11703005E+02  0.66882E+04
 0.11753005E+02  0.66864E+04
 0.11803005E+02  0.66833E+04
 0.11853005E+02  0.66844E+04
 0.11903006E+02  0.66878E+04
 0.11953005E+02  0.66800E+04
 0.12003005E+02  0.66812E+04
 0.12053005E+02  0.66696E+04
 0.12103005E+02  0.66652E+04
 0.12153006E+02  0.66593E+04
 0.12203005E+02  0.66672E+04
 0.12253005E+02  0.66664E+04
 0.12303005E+02  0.66701E+04
 0.12353005E+02  0.66628E+04
 0.12403006E+02  0.66595E+04
 0.12453005E+02  0.66659E+04
 0.12503005E+02  0.66651E+04
 0.12553005E+02  0.66754E+04
 0.12603005E+02  0.66684E+04
 0.12653005E+02  0.66793E+04
 0.12703005E+02  0.66874E+04
 0.12753005E+02  0.66917E+04
 0.12803005E+02  0.66952E+04
 0.12853005E+02  0.67046E+04
 0.12903005E+02  0.67000E+04
 0.12953005E+02  0.66923E+04
 0.13003005E+02  0.66925E+04
 0.13053005E+02  0.66881E+04
 0.13103005E+02  0.66875E+04
 0.13153005E+02  0.66817E+04
 0.13203005E+02  0.66836E+04
 0.13253005E+02  0.66807E+04
 0.13303005E+02  0.66779E+04
 0.13353005E+02  0.66731E+04
 0.13403005E+02  0.66712E+04
 0.13453005E+02  0.66613E+04
 0.13503005E+02  0.66597E+04
 0.13553005E+02  0.66644E+04
 0.13603005E+02  0.66665E+04
 0.13653005E+02  0.66619E+04
 0.13703005E+02  0.66476E+04
 0.13753005E+02  0.66399E+04
 0.13803005E+02  0.66322E+04
 0.13853005E+02  0.66355E+04
 0.13903005E+02  0.66436E+04
 0.13953005E+02  0.66475E+04
 0.14003005E+02  0.66460E+04
 0.14053005E+02  0.66538E+04
 0.14103004E+02  0.66627E+04
 0.14153006E+02  0.66681E+04
 0.14203005E+02  0.66760E+04
 0.14253004E+02  0.66795E+04
 0.14303005E+02  0.66906E+04
 0.14353004E+02  0.66892E+04
 0.14403006E+02  0.66849E+04
 0.14453005E+02  0.66728E+04
 0.14503004E+02  0.66727E+04
 0.14553005E+02  0.66833E+04
 0.14603004E+02  0.66754E+04
 0.14653006E+02  0.66851E+04
 0.14703005E+02  0.66882E+04
 0.14753004E+02  0.66895E+04
 0.14803005E+02  0.66868E+04
 0.14853004E+02  0.66866E+04
 0.14903006E+02  0.66832E+04
 0.14953005E+02  0.66744E+04
 0.15003004E+02  0.66682E+04
 0.15053005E+02  0.66709E+04
 0.15103004E+02  0.66702E+04
 0.15153006E+02  0.66629E+04
 0.15203005E+02  0.66646E+04
 0.15253004E+02  0.66674E+04
 0.15303005E+02  0.66782E+04
 0.15353004E+02  0.66841E+04
 0.15403006E+02  0.66887E+04
 0.15453005E+02  0.66907E+04
 0.15503004E+02  0.66941E+04
 0.15553005E+02  0.66876E+04
 0.15603004E+02  0.66909E+04
 0.15653006E+02  0.66897E+04
 0.15703005E+02  0.66867E+04
 0.15753004E+02  0.66837E+04
 0.15803005E+02  0.66768E+04
 0.15853004E+02  0.66731E+04
 0.15903006E+02  0.66697E+04
 0.15953005E+02  0.66772E+04
 0.16003004E+02  0.66767E+04
 0.16053005E+02  0.66835E+04
 0.16103004E+02  0.66731E+04
 0.16153006E+02  0.66714E+04
 0.16203005E+02  0.66764E+04
 0.16253004E+02  0.66842E+04
 0.16303005E+02  0.66808E+04
 0.16353004E+02  0.66730E+04
 0.16403006E+02  0.66778E+04
 0.16453005E+02  0.66777E+04
 0.16503004E+02  0.66782E+04
 0.16553005E+02  0.66771E+04
 0.16603004E+02  0.66814E+04
 0.16653006E+02  0.66717E+04
 0.16703005E+02  0.66725E+04
 0.16753004E+02  0.66654E+04
 0.16803005E+02  0.66633E+04
 0.16853004E+02  0.66524E+04
 0.16903006E+02  0.66554E+04
 0.16953005E+02  0.66609E+04
 0.17003004E+02  0.66608E+04
 0.17053005E+02  0.66668E+04
 0.17103004E+02  0.66686E+04
 0.17153006E+02  0.66758E+04
 0.17203005E+02  0.66712E+04
 0.17253004E+02  0.66744E+04
 0.17303005E+02  0.66689E+04
 0.17353004E+02  0.66704E+04
 0.17403006E+02  0.66643E+04
 0.17453005E+02  0.66765E+04
 0.17503004E+02  0.66781E+04
 0.17553005E+02  0.66775E+04
 0.17603004E+02  0.66863E+04
 0.17653006E+02  0.66765E+04
 0.17703005E+02  0.66823E+04
 0.17753004E+02  0.66789E+04
 0.17803005E+02  0.66781E+04
 0.17853004E+02  0.66626E+04
 0.17903006E+02  0.66607E+04
 0.17953005E+02  0.66684E+04
 0.18003004E+02  0.66665E+04
 0.18053005E+02  0.66591E+04
 0.18103004E+02  0.66547E+04
 0.18153006E+02  0.66638E+04
 0.18203005E+02  0.66678E+04
 0.18253004E+02  0.66799E+04
 0.18303005E+02  0.66777E+04
 0.18353004E+02  0.66823E+04
 0.18403006E+02  0.66809E+04
 0.18453005E+02  0.66853E+04
 0.18503004E+02  0.67014E+04
 0.18553005E+02  0.67000E+04
 0.18603004E+02  0.66924E+04
 0.18653006E+02  0.66850E+04
 0.18703005E+02  0.66831E+04
 0.18753004E+02  0.66916E+04
 0.18803005E+02  0.66948E+04
 0.18853004E+02  0.66885E+04
 0.18903006E+02  0.66760E+04
 0.18953005E+02  0.66731E+04
 0.19003004E+02  0.66791E+04
 0.19053005E+02  0.66647E+04
 0.19103004E+02  0.66659E+04
 0.19153006E+02  0.66636E+04
 0.19203005E+02  0.66681E+04
 0.19253004E+02  0.66709E+04
 0.19303005E+02  0.66621E+04
 0.19353004E+02  0.66643E+04
 0.19403006E+02  0.66569E+04
 0.19453005E+02  0.66611E+04
 0.19503004E+02  0.66648E+04
 0.19553005E+02  0.66692E+04
 0.19603004E+02  0.66616E+04
 0.19653006E+02  0.66637E+04
 0.19703005E+02  0.66672E+04
 0.19753004E+02  0.66697E+04
 0.19803005E+02  0.66804E+04
 0.19853004E+02  0.66803E+04
 0.19903006E+02  0.66912E+04
 0.19953005E+02  0.66886E+04
 0.20003004E+02  0.66962E+04
 0.20053005E+02  0.66944E+04
 0.20103004E+02  0.66919E+04
 0.20153006E+02  0.66911E+04
 0.20203005E+02  0.66900E+04
 0.20253004E+02  0.66858E+04
 0.20303005E+02  0.66846E+04
 0.20353004E+02  0.66871E+04
 0.20403004E+02  0.66919E+04
 0.20453005E+02  0.66897E+04
 0.20503004E+02  0.66855E+04
 0.20553005E+02  0.66867E+04
 0.20603004E+02  0.66768E+04
 0.20653004E+02  0.66771E+04
 0.20703005E+02  0.66709E+04
 0.20753004E+02  0.66744E+04
 0.20803005E+02  0.66665E+04
 0.20853004E+02  0.66670E+04
 0.20903004E+02  0.66640E+04
 0.20953005E+02  0.66655E+04
 0.21003004E+02  0.66657E+04
 0.21053005E+02  0.66601E+04
 0.21103004E+02  0.66597E+04
 0.21153004E+02  0.66655E+04
 0.21203005E+02  0.66798E+04
 0.21253004E+02  0.66804E+04
 0.21303005E+02  0.66823E+04
 0.21353004E+02  0.66836E+04
 0.21403004E+02  0.66897E+04
 0.21453005E+02  0.66875E+04
 0.21503004E+02  0.66935E+04
 0.21553005E+02  0.66954E+04
 0.21603004E+02  0.66924E+04
 0.21653004E+02  0.66967E+04
 0.21703005E+02  0.66884E+04
 0.21753004E+02  0.66805E+04
 0.21803005E+02  0.66792E+04
 0.21853004E+02  0.66735E+04
 0.21903004E+02  0.66746E+04
 0.21953005E+02  0.66817E+04
 0.22003004E+02  0.66817E+04
 0.22053005E+02  0.66812E+04
 0.22103004E+02  0.66904E+04
 0.22153004E+02  0.66891E+04
 0.22203005E+02  0.66856E+04
 0.22253004E+02  0.66845E+04
 0.22303005E+02  0.66854E+04
 0.22353004E+02  0.66909E+04
 0.22403004E+02  0.66852E+04
 0.22453005E+02  0.66869E+04
 0.22503004E+02  0.66824E+04
 0.22553005E+02  0.66918E+04
 0.22603004E+02  0.66883E+04
 0.22653004E+02  0.66866E+04
 0.22703005E+02  0.66858E+04
 0.22753004E+02  0.66787E+04
 0.22803005E+02  0.66833E+04
 0.22853004E+02  0.66760E+04
 0.22903004E+02  0.66754E+04
 0.22953005E+02  0.66735E+04
 0.23003004E+02  0.66775E+04
 0.23053005E+02  0.66814E+04
 0.23103004E+02  0.66807E+04
 0.23153004E+02  0.66787E+04
 0.23203005E+02  0.66794E+04
 0.23253004E+02  0.66790E+04
 0.23303005E+02  0.66826E+04
 0.23353004E+02  0.66781E+04
 0.23403004E+02  0.66755E+04
 0.23453005E+02  0.66698E+04
 0.23503004E+02  0.66690E+04
 0.23553005E+02  0.66738E+04
 0.23603004E+02  0.66714E+04
 0.23653004E+02  0.66732E+04
 0.23703005E+02  0.66558E+04
 0.23753004E+02  0.66600E+04
 0.23803005E+02  0.66558E+04
 0.23853004E+02  0.66557E+04
 0.23903004E+02  0.66459E+04
 0.23953005E+02  0.66632E+04
 0.24003004E+02  0.66503E+04
 0.24053005E+02  0.66573E+04
 0.24103004E+02  0.66550E+04
 0.24153004E+02  0.66555E+04
 0.24203005E+02  0.66674E+04
 0.24253004E+02  0.66604E+04
 0.24303005E+02  0.66202E+04
 0.24353004E+02  0.66385E+04
 0.24403004E+02  0.66684E+04
 0.24453005E+02  0.66968E+04
 0.24503004E+02  0.66690E+04
 0.24553005E+02  0.66526E+04
 0.24603004E+02  0.66173E+04
 0.24653004E+02  0.67393E+04
 0.24703005E+02  0.67339E+04
 0.24753004E+02  0.67361E+04
 0.24803005E+02  0.66102E+04
 0.24853004E+02  0.66427E+04
 0.24903004E+02  0.67564E+04
 0.24953005E+02  0.67396E+04
 0.25003004E+02  0.67451E+04
 0.25053005E+02  0.65791E+04
 0.25103004E+02  0.66139E+04
 0.25153004E+02  0.66799E+04
 0.25203005E+02  0.71172E+04
 0.25253004E+02  0.64697E+04
 0.25303005E+02  0.64421E+04
 0.25353004E+02  0.67450E+04
 0.25403004E+02  0.68345E+04
 0.25453005E+02  0.67185E+04
 0.25503004E+02  0.66126E+04
 0.25553005E+02  0.66057E+04
 0.25603004E+02  0.66628E+04
 0.25653004E+02  0.67370E+04
 0.25703005E+02  0.68794E+04
 0.25753004E+02  0.69023E+04
 0.25803005E+02  0.61948E+04
 0.25853004E+02  0.68474E+04
 0.25903004E+02  0.68297E+04
 0.25953005E+02  0.65328E+04
 0.26003004E+02  0.67028E+04
 0.26053005E+02  0.64595E+04
 0.26103004E+02  0.67719E+04
 0.26153004E+02  0.71105E+04
 0.26203005E+02  0.64364E+04
 0.26253004E+02  0.64618E+04
 0.26303005E+02  0.68074E+04
 0.26353004E+02  0.68822E+04
 0.26403004E+02  0.66571E+04
 0.26453005E+02  0.66365E+04
 0.26503004E+02  0.71956E+04
 0.26553005E+02  0.63506E+04
 0.26603004E+02  0.56736E+04
 0.26653004E+02  0.67162E+04
 0.26703005E+02  0.71227E+04
 0.26753004E+02  0.67528E+04
 0.26803005E+02  0.60882E+04
 0.26853004E+02  0.63792E+04
 0.26903004E+02  0.66506E+04
 0.26953005E+02  0.65831E+04
 0.27003004E+02  0.69640E+04
 0.27053003E+02  0.74117E+04
 0.27103004E+02  0.68744E+04
 0.27153004E+02  0.63326E+04
 0.27203005E+02  0.59229E+04
 0.27253004E+02  0.74469E+04
 0.27303003E+02  0.83415E+04
 0.27353004E+02  0.72339E+04
 0.27403004E+02  0.53747E+04
 0.27453005E+02  0.52996E+04
 0.27503004E+02  0.83734E+04
 0.27553003E+02  0.69374E+04
 0.27603004E+02  0.68482E+04
 0.27653004E+02  0.47057E+04
 0.27703005E+02  0.58764E+04
 0.27753004E+02  0.82695E+04
 0.27803003E+02  0.61487E+04
 0.27853004E+02  0.56415E+04
 0.27903004E+02  0.56963E+04
 0.27953005E+02  0.77216E+04
 0.28003004E+02  0.78751E+04
 0.28053003E+02  0.70139E+04
 0.28103004E+02  0.62615E+04
 0.28153004E+02  0.76888E+04
 0.28203005E+02  0.81278E+04
 0.28253004E+02  0.44207E+04
 0.28303003E+02  0.52821E+04
 0.28353004E+02  0.83445E+04
 0.28403004E+02  0.81535E+04
 0.28453005E+02  0.50724E+04
 0.28503004E+02  0.50904E+04
 0.28553003E+02  0.97042E+04
 0.28603004E+02  0.66345E+04
 0.28653004E+02  0.41689E+04
 0.28703005E+02  0.77992E+04
 0.28753004E+02  0.73493E+04
 0.28803003E+02  0.74315E+04
 0.28853004E+02  0.58519E+04
 0.28903004E+02  0.47504E+04
 0.28953005E+02  0.66163E+04
 0.29003004E+02  0.70044E+04
 0.29053003E+02  0.10061E+05
 0.29103004E+02  0.31616E+04
 0.29153004E+02  0.46956E+04
 0.29203005E+02  0.94305E+04
 0.29253004E+02  0.63339E+04
 0.29303003E+02  0.39270E+04
 0.29353004E+02  0.56008E+04
 0.29403004E+02  0.12663E+05
 0.29453005E+02  0.57416E+04
 0.29503004E+02  0.22139E+04
 0.29553003E+02  0.95495E+04
 0.29603004E+02  0.99055E+04
 0.29653004E+02  0.43631E+04
 0.29703005E+02  0.47178E+04
 0.29753004E+02  0.92719E+04
 0.29803003E+02  0.81241E+04
 0.29853004E+02  0.45057E+04
 0.29903004E+02  0.73125E+04
 0.29953005E+02  0.80298E+04
 0.30003004E+02  0.63261E+04
 0.30053005E+02  0.74078E+04
 0.30103004E+02  0.65443E+04
 0.30153004E+02  0.48097E+04
 0.30203003E+02  0.63017E+04
 0.30253002E+02  0.34310E+04
 0.30303005E+02  0.60605E+04
 0.30353004E+02  0.90009E+04
 0.30403004E+02  0.95823E+04
 0.30453003E+02  0.60715E+04
 0.30503002E+02  0.52266E+04
 0.30553005E+02  0.10982E+05
 0.30603004E+02  0.57100E+04
 0.30653004E+02  0.28071E+04
 0.30703003E+02  0.57437E+04
 0.30753002E+02  0.10911E+05
 0.30803005E+02  0.73900E+04
 0.30853004E+02  0.10397E+04
 0.30903004E+02  0.67783E+04
 0.30953003E+02  0.10521E+05
 0.31003002E+02  0.85145E+04
 0.31053005E+02  0.55508E+04
 0.31103004E+02  0.49502E+04
 0.31153004E+02  0.65606E+04
 0.31203003E+02  0.62907E+04
 0.31253002E+02  0.62690E+04
 0.31303005E+02  0.74476E+04
 0.31353004E+02  0.81726E+04
 0.31403004E+02  0.60763E+04
 0.31453003E+02  0.83132E+04
 0.31503002E+02  0.72629E+04
 0.31553005E+02  0.56332E+04
 0.31603004E+02  0.33250E+04
 0.31653004E+02  0.72095E+04
 0.31703003E+02  0.75105E+04
 0.31753002E+02  0.55992E+04
 0.31803005E+02  0.44960E+04
 0.31853004E+02  0.58282E+04
 0.31903004E+02  0.11563E+05
 0.31953003E+02  0.59088E+04
 0.32003002E+02  0.37536E+04
 0.32053005E+02  0.62530E+04
 0.32103004E+02  0.96149E+04
 0.32153004E+02  0.92589E+04
 0.32203003E+02  0.49382E+04
 0.32253002E+02  0.45955E+04
 0.32303005E+02  0.10705E+05
 0.32353004E+02  0.67755E+04
 0.32403004E+02  0.52199E+04
 0.32453003E+02  0.63530E+04
 0.32503002E+02  0.75531E+04
 0.32553005E+02  0.57268E+04
 0.32603004E+02  0.46507E+04
 0.32653004E+02  0.78895E+04
 0.32703003E+02  0.70720E+04
 0.32753002E+02  0.76241E+04
 0.32803005E+02  0.66291E+04
 0.32853004E+02  0.44722E+04
 0.32903004E+02  0.75396E+04
 0.32953003E+02  0.94574E+04
 0.33003002E+02  0.30733E+04
 0.33053005E+02  0.57784E+04
 0.33103004E+02  0.94954E+04
 0.33153004E+02  0.60529E+04
 0.33203003E+02  0.65319E+04
 0.33253002E+02  0.93641E+04
 0.33303005E+02  0.48373E+04
 0.33353004E+02  0.70807E+04
 0.33403004E+02  0.73904E+04
 0.33453003E+02  0.34480E+04
 0.33503002E+02  0.68830E+04
 0.33553005E+02  0.91681E+04
 0.33603004E+02  0.84469E+04
 0.33653004E+02  0.34268E+04
 0.33703003E+02  0.51377E+04
 0.33753002E+02  0.87860E+04
 0.33803005E+02  0.78630E+04
 0.33853004E+02  0.46904E+04
 0.33903004E+02  0.63499E+04
 0.33953003E+02  0.11966E+05
 0.34003002E+02  0.49413E+04
 0.34053005E+02  0.20294E+03
 0.34103004E+02  0.65705E+04
 0.34153004E+02  0.12260E+05
 0.34203003E+02  0.68335E+04
 0.34253002E+02  0.28378E+04
 0.34303005E+02  0.73847E+04
 0.34353004E+02  0.66525E+04
 0.34403004E+02  0.61727E+04
 0.34453003E+02  0.72888E+04
 0.34503002E+02  0.70225E+04
 0.34553005E+02  0.85842E+04
 0.34603004E+02  0.40856E+04
 0.34653004E+02  0.43655E+04
 0.34703003E+02  0.11158E+05
 0.34753002E+02  0.89190E+04
 0.34803005E+02  0.63650E+04
 0.34853004E+02  0.85388E+04
 0.34903004E+02  0.65269E+04
 0.34953003E+02  0.29285E+04
 0.35003002E+02  0.67436E+04
 0.35053005E+02  0.57809E+04
 0.35103004E+02  0.59343E+04
 0.35153004E+02  0.92062E+04
 0.35203003E+02  0.49752E+04
 0.35253002E+02  0.57348E+04
 0.35303005E+02  0.97406E+04
 0.35353004E+02  0.72179E+04
 0.35403004E+02  0.60558E+04
 0.35453003E+02  0.47425E+04
 0.35503002E+02  0.51820E+04
 0.35553005E+02  0.74776E+04
 0.35603004E+02  0.74354E+04
 0.35653004E+02  0.57571E+04
 0.35703003E+02  0.52496E+04
 0.35753002E+02  0.93340E+04
 0.35803005E+02  0.74956E+04
 0.35853004E+02  0.35258E+04
 0.35903004E+02  0.75454E+04
 0.35953003E+02  0.78192E+04
 0.36003002E+02  0.60082E+04
 0.36053005E+02  0.66662E+04
 0.36103004E+02  0.68821E+04
 0.36153004E+02  0.82426E+04
 0.36203003E+02  0.43669E+04
 0.36253002E+02  0.63502E+04
 0.36303005E+02  0.95519E+04
 0.36353004E+02  0.75770E+04
 0.36403004E+02  0.68628E+04
 0.36453003E+02  0.64463E+04
 0.36503002E+02  0.67581E+04
 0.36553005E+02  0.64026E+04
 0.36603004E+02  0.33779E+04
 0.36653004E+02  0.51715E+04
 0.36703003E+02  0.98217E+04
 0.36753002E+02  0.55407E+04
 0.36803005E+02  0.52143E+04
 0.36853004E+02  0.95505E+04
 0.36903004E+02  0.76960E+04
 0.36953003E+02  0.49146E+04
 0.37003002E+02  0.58340E+04
 0.37053005E+02  0.90153E+04
 0.37103004E+02  0.87141E+04
 0.37153004E+02  0.52716E+04
 0.37203003E+02  0.52085E+04
 0.37253002E+02  0.69062E+04
 0.37303005E+02  0.81641E+04
 0.37353004E+02  0.45736E+04
 0.37403004E+02  0.33665E+04
 0.37453003E+02  0.86775E+04
 0.37503002E+02  0.95333E+04
 0.37553005E+02  0.60720E+04
 0.37603004E+02  0.50155E+04
 0.37653004E+02  0.85072E+04
 0.37703003E+02  0.64719E+04
 0.37753002E+02  0.47668E+04
 0.37803005E+02  0.64798E+04
 0.37853004E+02  0.87112E+04
 0.37903004E+02  0.75684E+04
 0.37953003E+02  0.32587E+04
 0.38003002E+02  0.81809E+04
 0.38053005E+02  0.88638E+04
 0.38103004E+02  0.39604E+04
 0.38153004E+02  0.51796E+04
 0.38203003E+02  0.73364E+04
 0.38253002E+02  0.69543E+04
 0.38303005E+02  0.50167E+04
 0.38353004E+02  0.70838E+04
 0.38403004E+02  0.92998E+04
 0.38453003E+02  0.62113E+04
 0.38503002E+02  0.39331E+04
 0.38553005E+02  0.79315E+04
 0.38603004E+02  0.11227E+05
 0.38653004E+02  0.58039E+04
 0.38703003E+02  0.38176E+04
 0.38753002E+02  0.93094E+04
 0.38803005E+02  0.88121E+04
 0.38853004E+02  0.35270E+04
 0.38903004E+02  0.47453E+04
 0.38953003E+02  0.88182E+04
 0.39003002E+02  0.74175E+04
 0.39053005E+02  0.47944E+04
 0.39103004E+02  0.78086E+04
 0.39153004E+02  0.84839E+04
 0.39203003E+02  0.64125E+04
 0.39253002E+02  0.54731E+04
 0.39303005E+02  0.66906E+04
 0.39353004E+02  0.77680E+04
 0.39403004E+02  0.46984E+04
 0.39453003E+02  0.60397E+04
 0.39503002E+02  0.76154E+04
 0.39553005E+02  0.78989E+04
 0.39603004E+02  0.52889E+04
 0.39653004E+02  0.59993E+04
 0.39703003E+02  0.91550E+04
 0.39753002E+02  0.82477E+04
 0.39803005E+02  0.51829E+04
 0.39853004E+02  0.44215E+04
 0.39903004E+02  0.73836E+04
 0.39953003E+02  0.68672E+04
 0.40003002E+02  0.61648E+04
 0.40053005E+02  0.73465E+04
 0.40103004E+02  0.80781E+04
 0.40153004E+02  0.51700E+04
 0.40203003E+02  0.41543E+04
 0.40253002E+02  0.71175E+04
 0.40303005E+02  0.90681E+04
 0.40353004E+02  0.75680E+04
 0.40403004E+02  0.40065E+04
 0.40453003E+02  0.58842E+04
 0.40503002E+02  0.86701E+04
 0.40553005E+02  0.50902E+04
 0.40603004E+02  0.43546E+04
 0.40653004E+02  0.81234E+04
 0.40703003E+02  0.80951E+04
 0.40753002E+02  0.62613E+04
 0.40803005E+02  0.86043E+04
 0.40853004E+02  0.81431E+04
 0.40903004E+02  0.61349E+04
 0.40953003E+02  0.66264E+04
 0.41003002E+02  0.66837E+04
 0.41053005E+02  0.75312E+04
 0.41103004E+02  0.50021E+04
 0.41153004E+02  0.39649E+04
 0.41203003E+02  0.75399E+04
 0.41253002E+02  0.72817E+04
 0.41303005E+02  0.68395E+04
 0.41353004E+02  0.71502E+04
 0.41403004E+02  0.72381E+04
 0.41453003E+02  0.69649E+04
 0.41503002E+02  0.56973E+04
 0.41553005E+02  0.66865E+04
 0.41603004E+02  0.65537E+04
 0.41653004E+02  0.65609E+04
 0.41703003E+02  0.83222E+04
 0.41753002E+02  0.73759E+04
 0.41803005E+02  0.70935E+04
 0.41853004E+02  0.72052E+04
 0.41903004E+02  0.66471E+04
 0.41953003E+02  0.85232E+04
 0.42003002E+02  0.78027E+04
 0.42053005E+02  0.54291E+04
 0.42103004E+02  0.57585E+04
 0.42153004E+02  0.72820E+04
 0.42203003E+02  0.72310E+04
 0.42253002E+02  0.61541E+04
 0.42303005E+02  0.69088E+04
 0.42353004E+02  0.67290E+04
 0.42403004E+02  0.69011E+04
 0.42453003E+02  0.72314E+04
 0.42503002E+02  0.87053E+04
 0.42553005E+02  0.59478E+04
 0.42603004E+02  0.39987E+04
 0.42653004E+02  0.49547E+04
 0.42703003E+02  0.68772E+04
 0.42753002E+02  0.67071E+04
 0.42803001E+02  0.51687E+04
 0.42853004E+02  0.86861E+04
 0.42903004E+02  0.79808E+04
 0.42953003E+02  0.54194E+04
 0.43003002E+02  0.33782E+04
 0.43053001E+02  0.78905E+04
 0.43103004E+02  0.10054E+05
 0.43153004E+02  0.74459E+04
 0.43203003E+02  0.51935E+04
 0.43253002E+02  0.68854E+04
 0.43303001E+02  0.74161E+04
 0.43353004E+02  0.51132E+04
 0.43403004E+02  0.49872E+04
 0.43453003E+02  0.60985E+04
 0.43503002E+02  0.83922E+04
 0.43553001E+02  0.66467E+04
 0.43603004E+02  0.66382E+04
 0.43653004E+02  0.77688E+04
 0.43703003E+02  0.89932E+04
 0.43753002E+02  0.92862E+04
 0.43803001E+02  0.81023E+04
 0.43853004E+02  0.29105E+04
 0.43903004E+02 -0.16013E+04
 0.43953003E+02 -0.27619E+03
 0.44003002E+02  0.15140E+04
 0.44053001E+02  0.25019E+04
 0.44103004E+02  0.53079E+04
 0.44153004E+02  0.95258E+04
 0.44203003E+02  0.10425E+05
 0.44253002E+02  0.10767E+05
 0.44303001E+02  0.98325E+04
 0.44353004E+02  0.12734E+05
 0.44403004E+02  0.12378E+05
 0.44453003E+02  0.68004E+04
 0.44503002E+02  0.50684E+04
 0.44553001E+02  0.58870E+04
 0.44603004E+02  0.82803E+04
 0.44653004E+02  0.91288E+04
 0.44703003E+02  0.81573E+04
 0.44753002E+02  0.60662E+04
 0.44803001E+02  0.29741E+04
 0.44853004E+02 -0.10884E+04
 0.44903004E+02  0.60181E+03
 0.44953003E+02  0.74238E+04
 0.45003002E+02  0.10924E+05
 0.45053001E+02  0.83359E+04
 0.45103004E+02  0.74434E+04
 0.45153004E+02  0.11301E+05
 0.45203003E+02  0.13691E+05
 0.45253002E+02  0.12702E+05
 0.45303001E+02  0.85290E+04
 0.45353004E+02  0.34094E+04
 0.45403004E+02  0.36476E+04
 0.45453003E+02  0.39738E+04
 0.45503002E+02  0.34447E+04
 0.45553001E+02  0.70900E+04
 0.45603004E+02  0.70610E+04
 0.45653004E+02  0.42532E+04
 0.45703003E+02  0.23406E+04
 0.45753002E+02  0.54389E+04
 0.45803001E+02  0.88240E+04
 0.45853004E+02  0.11055E+05
 0.45903004E+02  0.13873E+05
 0.45953003E+02  0.11049E+05
 0.46003002E+02  0.49655E+04
 0.46053001E+02  0.34903E+04
 0.46103004E+02  0.85758E+04
 0.46153004E+02  0.10348E+05
 0.46203003E+02  0.17685E+04
 0.46253002E+02 -0.39707E+04
 0.46303001E+02 -0.11631E+04
 0.46353004E+02  0.10527E+04
 0.46403004E+02  0.84430E+04
 0.46453003E+02  0.11600E+05
 0.46503002E+02  0.73903E+04
 0.46553001E+02  0.20487E+04
 0.46603004E+02  0.11590E+04
 0.46653004E+02  0.83974E+04
 0.46703003E+02  0.11136E+05
 0.46753002E+02  0.11404E+05
 0.46803001E+02  0.13660E+05
 0.46853004E+02  0.12319E+05
 0.46903004E+02  0.76311E+04
 0.46953003E+02  0.83628E+03
 0.47003002E+02  0.17274E+04
 0.47053001E+02  0.52964E+04
 0.47103004E+02  0.52203E+04
 0.47153004E+02  0.46599E+04
 0.47203003E+02  0.52033E+04
 0.47253002E+02  0.10406E+05
 0.47303001E+02  0.80219E+04
 0.47353004E+02  0.10817E+05
 0.47403004E+02  0.12756E+05
 0.47453003E+02  0.55468E+04
 0.47503002E+02 -0.92516E+03
 0.47553001E+02 -0.40503E+03
 0.47603004E+02  0.10006E+05
 0.47653004E+02  0.14392E+05
 0.47703003E+02  0.12027E+05
 0.47753002E+02  0.58641E+03
 0.47803001E+02  0.85554E+03
 0.47853004E+02  0.93274E+04
 0.47903004E+02  0.10230E+05
 0.47953003E+02  0.95347E+04
 0.48003002E+02  0.36224E+04
 0.48053001E+02  0.26450E+04
 0.48103004E+02  0.52496E+04
 0.48153004E+02  0.91660E+04
 0.48203003E+02  0.13195E+05
 0.48253002E+02  0.10750E+05
 0.48303001E+02  0.57471E+04
 0.48353004E+02  0.46364E+04
 0.48403004E+02  0.86526E+04
 0.48453003E+02  0.66195E+04
 0.48503002E+02  0.85204E+03
 0.48553001E+02  0.57991E+04
 0.48603004E+02  0.10676E+05
 0.48653004E+02  0.96610E+04
 0.48703003E+02  0.25052E+04
 0.48753002E+02  0.25051E+04
 0.48803001E+02  0.30478E+04
 0.48853004E+02 -0.12281E+04
 0.48903004E+02  0.50697E+04
 0.48953003E+02  0.89104E+04
 0.49003002E+02  0.80269E+04
 0.49053001E+02  0.12144E+05
 0.49103004E+02  0.17117E+05
 0.49153004E+02  0.11163E+05
 0.49203003E+02  0.14604E+04
 0.49253002E+02  0.21957E+04
 0.49303001E+02  0.89718E+04
 0.49353004E+02  0.67187E+04
 0.49403004E+02  0.47480E+04
 0.49453003E+02  0.66356E+04
 0.49503002E+02  0.31937E+04
 0.49553001E+02  0.29503E+04
 0.49603004E+02  0.75166E+04
 0.49653004E+02  0.55233E+04
 0.49703003E+02  0.35259E+04
 0.49753002E+02  0.79997E+04
 0.49803001E+02  0.72155E+04
 0.49853004E+02  0.62105E+04
 0.49903004E+02  0.61459E+04
 0.49953003E+02  0.86872E+04
 0.50003002E+02  0.10557E+05
 0.50053001E+02  0.74014E+04
 0.50103004E+02  0.75877E+04
 0.50153004E+02  0.50028E+04
 0.50203003E+02  0.64487E+04
 0.50253002E+02  0.80237E+04
 0.50303001E+02  0.32844E+04
 0.50353004E+02  0.41451E+04
 0.50403004E+02  0.91074E+04
 0.50453003E+02  0.11429E+05
 0.50503002E+02  0.66151E+04
 0.50553001E+02  0.49460E+04
 0.50603004E+02  0.84767E+04
 0.50653004E+02  0.67010E+04
 0.50703003E+02  0.25906E+04
 0.50753002E+02  0.29769E+04
 0.50803001E+02  0.10586E+05
 0.50853004E+02  0.12212E+05
 0.50903004E+02  0.70845E+04
 0.50953003E+02  0.66207E+04
 0.51003002E+02  0.58539E+04
 0.51053001E+02  0.47902E+04
 0.51103004E+02  0.42762E+04
 0.51153004E+02  0.58651E+04
 0.51203003E+02  0.83372E+04
 0.51253002E+02  0.74289E+04
 0.51303001E+02  0.46719E+04
 0.51353004E+02  0.47954E+04
 0.51403004E+02  0.78882E+04
 0.51453003E+02  0.58456E+04
 0.51503002E+02  0.48252E+04
 0.51553001E+02  0.79554E+04
 0.51603004E+02  0.80487E+04
 0.51653004E+02  0.70243E+04
 0.51703003E+02  0.65717E+04
 0.51753002E+02  0.66912E+04
 0.51803001E+02  0.65579E+04
 0.51853004E+02  0.74950E+04
 0.51903004E+02  0.47102E+04
 0.51953003E+02  0.30034E+04
 0.52003002E+02  0.60486E+04
 0.52053001E+02  0.84014E+04
 0.52103004E+02  0.87752E+04
 0.52153004E+02  0.82475E+04
 0.52203003E+02  0.60679E+04
 0.52253002E+02  0.35514E+04
 0.52303001E+02  0.66936E+04
 0.52353004E+02  0.10951E+05
 0.52403004E+02  0.87205E+04
 0.52453003E+02  0.28323E+04
 0.52503002E+02  0.48525E+04
 0.52553001E+02  0.92708E+04
 0.52603004E+02  0.63462E+04
 0.52653004E+02  0.16002E+04
 0.52703003E+02  0.54973E+04
 0.52753002E+02  0.94886E+04
 0.52803001E+02  0.70411E+04
 0.52853004E+02  0.59896E+04
 0.52903004E+02  0.89638E+04
 0.52953003E+02  0.10575E+05
 0.53003002E+02  0.95027E+04
 0.53053001E+02  0.97429E+04
 0.53103004E+02  0.71615E+04
 0.53153004E+02  0.73040E+04
 0.53203003E+02  0.77846E+04
 0.53253002E+02  0.58923E+04
 0.53303001E+02  0.70095E+04
 0.53353004E+02  0.65181E+04
 0.53403004E+02  0.58615E+04
 0.53453003E+02  0.74749E+04
 0.53503002E+02  0.81087E+04
 0.53553001E+02  0.63792E+04
 0.53603004E+02  0.46716E+04
 0.53653004E+02  0.52305E+04
 0.53703003E+02  0.64234E+04
 0.53753002E+02  0.57875E+04
 0.53803001E+02  0.66418E+04
 0.53853004E+02  0.66375E+04
 0.53903004E+02  0.58295E+04
 0.53953003E+02  0.60627E+04
 0.54003002E+02  0.47167E+04
 0.54053001E+02  0.48549E+04
 0.54103004E+02  0.71299E+04
 0.54153004E+02  0.71251E+04
 0.54203003E+02  0.73702E+04
 0.54253002E+02  0.86125E+04
 0.54303001E+02  0.80431E+04
 0.54353004E+02  0.58822E+04
 0.54403004E+02  0.56321E+04
 0.54453003E+02  0.74179E+04
 0.54503002E+02  0.74119E+04
 0.54553001E+02  0.82103E+04
 0.54603004E+02  0.89995E+04
 0.54653004E+02  0.84534E+04
 0.54703003E+02  0.58376E+04
 0.54753002E+02  0.52091E+04
 0.54803001E+02  0.60855E+04
 0.54853004E+02  0.56227E+04
 0.54903004E+02  0.43909E+04
 0.54953003E+02  0.67983E+04
 0.55003002E+02  0.69357E+04
 0.55053001E+02  0.66422E+04
 0.55103004E+02  0.69147E+04
 0.55153004E+02  0.52580E+04
 0.55203003E+02  0.74679E+04
 0.55253002E+02  0.81611E+04
 0.55303001E+02  0.76573E+04
 0.55353004E+02  0.65698E+04
 0.55403004E+02  0.89288E+04
 0.55453003E+02  0.92584E+04
 0.55503002E+02  0.50932E+04
 0.55553001E+02  0.48879E+04
 0.55603004E+02  0.69159E+04
 0.55653004E+02  0.71221E+04
 0.55703003E+02  0.55497E+04
 0.55753002E+02  0.48871E+04
 0.55803001E+02  0.48930E+04
 0.55853001E+02  0.45536E+04
 0.55903004E+02  0.50323E+04
 0.55953003E+02  0.57534E+04
 0.56003002E+02  0.61891E+04
 0.56053001E+02  0.58496E+04
 0.56103001E+02  0.65888E+04
 0.56153004E+02  0.77374E+04
 0.56203003E+02  0.84254E+04
 0.56253002E+02  0.89408E+04
 0.56303001E+02  0.77070E+04
 0.56353001E+02  0.77116E+04
 0.56403004E+02  0.82104E+04
 0.56453003E+02  0.81600E+04
 0.56503002E+02  0.79146E+04
 0.56553001E+02  0.82976E+04
 0.56603001E+02  0.76962E+04
 0.56653004E+02  0.54759E+04
 0.56703003E+02  0.71177E+04
 0.56753002E+02  0.80707E+04
 0.56803001E+02  0.80555E+04
 0.56853001E+02  0.71896E+04
 0.56903004E+02  0.56612E+04
 0.56953003E+02  0.51836E+04
 0.57003002E+02  0.39445E+04
 0.57053001E+02  0.48584E+04
 0.57103001E+02  0.50060E+04
 0.57153004E+02  0.61573E+04
 0.57203003E+02  0.68699E+04
 0.57253002E+02  0.60047E+04
 0.57303001E+02  0.62830E+04
 0.57353001E+02  0.66857E+04
 0.57403004E+02  0.59406E+04
 0.57453003E+02  0.55425E+04
 0.57503002E+02  0.82692E+04
 0.57553001E+02  0.86738E+04
 0.57603001E+02  0.61013E+04
 0.57653004E+02  0.62654E+04
 0.57703003E+02  0.90838E+04
 0.57753002E+02  0.93657E+04
 0.57803001E+02  0.64023E+04
 0.57853001E+02  0.63325E+04
 0.57903004E+02  0.85962E+04
 0.57953003E+02  0.80750E+04
 0.58003002E+02  0.70534E+04
 0.58053001E+02  0.71573E+04
 0.58103001E+02  0.65602E+04
 0.58153004E+02  0.56885E+04
 0.58203003E+02  0.48434E+04
 0.58253002E+02  0.52104E+04
 0.58303001E+02  0.52281E+04
 0.58353001E+02  0.34786E+04
 0.58403004E+02  0.39029E+04
 0.58453003E+02  0.64915E+04
 0.58503002E+02  0.72853E+04
 0.58553001E+02  0.70667E+04
 0.58603001E+02  0.78026E+04
 0.58653004E+02  0.81269E+04
 0.58703003E+02  0.74779E+04
 0.58753002E+02  0.71907E+04
 0.58803001E+02  0.67878E+04
 0.58853001E+02  0.58840E+04
 0.58903004E+02  0.42968E+04
 0.58953003E+02  0.43488E+04
 0.59003002E+02  0.75035E+04
 0.59053001E+02  0.76095E+04
 0.59103001E+02  0.57171E+04
 0.59153004E+02  0.59092E+04
 0.59203003E+02  0.70379E+04
 0.59253002E+02  0.78263E+04
 0.59303001E+02  0.70068E+04
 0.59353001E+02  0.76564E+04
 0.59403004E+02  0.75765E+04
 0.59453003E+02  0.60226E+04
 0.59503002E+02  0.52269E+04
 0.59553001E+02  0.71417E+04
 0.59603001E+02  0.86189E+04
 0.59653004E+02  0.82159E+04
 0.59703003E+02  0.82296E+04
 0.59753002E+02  0.70727E+04
 0.59803001E+02  0.70209E+04
 0.59853001E+02  0.64512E+04
 0.59903004E+02  0.59810E+04
 0.59953003E+02  0.52486E+04
 0.60003002E+02  0.61027E+04
 0.60053001E+02  0.74612E+04
 0.60103001E+02  0.63380E+04
 0.60153004E+02  0.57742E+04
 0.60203003E+02  0.66263E+04
 0.60253002E+02  0.79029E+04
 0.60303001E+02  0.76162E+04
 0.60353001E+02  0.60936E+04
 0.60403004E+02  0.63310E+04
 0.60453003E+02  0.75545E+04
 0.60503002E+02  0.71252E+04
 0.60553001E+02  0.57849E+04
 0.60603001E+02  0.54584E+04
 0.60653004E+02  0.63258E+04
 0.60703003E+02  0.70025E+04
 0.60753002E+02  0.69652E+04
 0.60803001E+02  0.67306E+04
 0.60853001E+02  0.70317E+04
 0.60903004E+02  0.70134E+04
 0.60953003E+02  0.69421E+04
 0.61003002E+02  0.61682E+04
 0.61053001E+02  0.56264E+04
 0.61103001E+02  0.56848E+04
 0.61153004E+02  0.64347E+04
 0.61203003E+02  0.72289E+04
 0.61253002E+02  0.60167E+04
 0.61303001E+02  0.55295E+04
 0.61353001E+02  0.72980E+04
 0.61403004E+02  0.83934E+04
 0.61453003E+02  0.78570E+04
 0.61503002E+02  0.76948E+04
 0.61553001E+02  0.77079E+04
 0.61603001E+02  0.75039E+04
 0.61653004E+02  0.62964E+04
 0.61703003E+02  0.52865E+04
 0.61753002E+02  0.53725E+04
 0.61803001E+02  0.50533E+04
 0.61853001E+02  0.49052E+04
 0.61903004E+02  0.46364E+04
 0.61953003E+02  0.53733E+04
 0.62003002E+02  0.67395E+04
 0.62053001E+02  0.68544E+04
 0.62103004E+02  0.70027E+04
 0.62153000E+02  0.80155E+04
 0.62203003E+02  0.76706E+04
 0.62252998E+02  0.62255E+04
 0.62303001E+02  0.59970E+04
 0.62353004E+02  0.69005E+04
 0.62403000E+02  0.72439E+04
 0.62453003E+02  0.70757E+04
 0.62502998E+02  0.68324E+04
 0.62553001E+02  0.67350E+04
 0.62603004E+02  0.68733E+04
 0.62653000E+02  0.67742E+04
 0.62703003E+02  0.66845E+04
 0.62752998E+02  0.68341E+04
 0.62803001E+02  0.73328E+04
 0.62853004E+02  0.78067E+04
 0.62903000E+02  0.79917E+04
 0.62953003E+02  0.71923E+04
 0.63002998E+02  0.74102E+04
 0.63053001E+02  0.83288E+04
 0.63103004E+02  0.79338E+04
 0.63153000E+02  0.67798E+04
 0.63203003E+02  0.61406E+04
 0.63252998E+02  0.66242E+04
 0.63303001E+02  0.67583E+04
 0.63353004E+02  0.63753E+04
 0.63403000E+02  0.66763E+04
 0.63453003E+02  0.72159E+04
 0.63502998E+02  0.68722E+04
 0.63553001E+02  0.55979E+04
 0.63603004E+02  0.60210E+04
 0.63653000E+02  0.65082E+04
 0.63703003E+02  0.54583E+04
 0.63752998E+02  0.50008E+04
 0.63803001E+02  0.61936E+04
 0.63853004E+02  0.62329E+04
 0.63903000E+02  0.47784E+04
 0.63953003E+02  0.55386E+04
 0.64002998E+02  0.59456E+04
 0.64053001E+02  0.50416E+04
 0.64103004E+02  0.57035E+04
 0.64153000E+02  0.81254E+04
 0.64203003E+02  0.89853E+04
 0.64252998E+02  0.79440E+04
 0.64303001E+02  0.72908E+04
 0.64353004E+02  0.78078E+04
 0.64403000E+02  0.86229E+04
 0.64453003E+02  0.84969E+04
 0.64502998E+02  0.77404E+04
 0.64553001E+02  0.73503E+04
 0.64603004E+02  0.72025E+04
 0.64653000E+02  0.59518E+04
 0.64703003E+02  0.51451E+04
 0.64752998E+02  0.50152E+04
 0.64803001E+02  0.53459E+04
 0.64853004E+02  0.52925E+04
 0.64903000E+02  0.50432E+04
 0.64953003E+02  0.55066E+04
 0.65002998E+02  0.60893E+04
 0.65053001E+02  0.65917E+04
 0.65103004E+02  0.69944E+04
 0.65153000E+02  0.76884E+04
 0.65203003E+02  0.71858E+04
 0.65252998E+02  0.71245E+04
 0.65303001E+02  0.76121E+04
 0.65353004E+02  0.75354E+04
 0.65403000E+02  0.70058E+04
 0.65453003E+02  0.69330E+04
 0.65502998E+02  0.76220E+04
 0.65553001E+02  0.74147E+04
 0.65603004E+02  0.64757E+04
 0.65653000E+02  0.56430E+04
 0.65703003E+02  0.57396E+04
 0.65752998E+02  0.59490E+04
 0.65803001E+02  0.58344E+04
 0.65853004E+02  0.62675E+04
 0.65903000E+02  0.68120E+04
 0.65953003E+02  0.70933E+04
 0.66002998E+02  0.74496E+04
 0.66053001E+02  0.81751E+04
 0.66103004E+02  0.86563E+04
 0.66153000E+02  0.81691E+04
 0.66203003E+02  0.73631E+04
 0.66252998E+02  0.67666E+04
 0.66303001E+02  0.64011E+04
 0.66353004E+02  0.62206E+04
 0.66403000E+02  0.56808E+04
 0.66453003E+02  0.53466E+04
 0.66502998E+02  0.56695E+04
 0.66553001E+02  0.55928E+04
 0.66603004E+02  0.51044E+04
 0.66653000E+02  0.56828E+04
 0.66703003E+02  0.60945E+04
 0.66752998E+02  0.61067E+04
 0.66803001E+02  0.68633E+04
 0.66853004E+02  0.70341E+04
 0.66903000E+02  0.68238E+04
 0.66953003E+02  0.67541E+04
 0.67002998E+02  0.72836E+04
 0.67053001E+02  0.75416E+04
 0.67103004E+02  0.76346E+04
 0.67153000E+02  0.82718E+04
 0.67203003E+02  0.86066E+04
 0.67252998E+02  0.83002E+04
 0.67303001E+02  0.72449E+04
 0.67353004E+02  0.62204E+04
 0.67403000E+02  0.59854E+04
 0.67453003E+02  0.54969E+04
 0.67502998E+02  0.50646E+04
 0.67553001E+02  0.54397E+04
 0.67603004E+02  0.58216E+04
 0.67653000E+02  0.62768E+04
 0.67703003E+02  0.67994E+04
 0.67752998E+02  0.73375E+04
 0.67803001E+02  0.74687E+04
 0.67853004E+02  0.74210E+04
 0.67903000E+02  0.73194E+04
 0.67953003E+02  0.75644E+04
 0.68002998E+02  0.73932E+04
 0.68053001E+02  0.64298E+04
 0.68103004E+02  0.60271E+04
 0.68153000E+02  0.62995E+04
 0.68203003E+02  0.71705E+04
 0.68252998E+02  0.76385E+04
 0.68303001E+02  0.73686E+04
 0.68353004E+02  0.66137E+04
 0.68403000E+02  0.64495E+04
 0.68453003E+02  0.68017E+04
 0.68502998E+02  0.68671E+04
 0.68553001E+02  0.68641E+04
 0.68603004E+02  0.62294E+04
 0.68653000E+02  0.57430E+04
 0.68703003E+02  0.61913E+04
 0.68752998E+02  0.68916E+04
 0.68803001E+02  0.65012E+04
 0.68853004E+02  0.60183E+04
 0.68903000E+02  0.67558E+04
 0.68953003E+02  0.74396E+04
 0.69002998E+02  0.72417E+04
 0.69053001E+02  0.71858E+04
 0.69103004E+02  0.74723E+04
 0.69153000E+02  0.72999E+04
 0.69203003E+02  0.62981E+04
 0.69252998E+02  0.57544E+04
 0.69303001E+02  0.64188E+04
 0.69353004E+02  0.63439E+04
 0.69403000E+02  0.58057E+04
 0.69453003E+02  0.60062E+04
 0.69502998E+02  0.59326E+04
 0.69553001E+02  0.49461E+04
 0.69603004E+02  0.45292E+04
 0.69653000E+02  0.49200E+04
 0.69703003E+02  0.52560E+04
 0.69752998E+02  0.55990E+04
 0.69803001E+02  0.60962E+04
 0.69853004E+02  0.62779E+04
 0.69903000E+02  0.64941E+04
 0.69953003E+02  0.70333E+04
 0.70002998E+02  0.71438E+04
 0.70053001E+02  0.71841E+04
 0.70103004E+02  0.78688E+04
 0.70153000E+02  0.83503E+04
 0.70203003E+02  0.82129E+04
 0.70252998E+02  0.78825E+04
 0.70303001E+02  0.73429E+04
 0.70353004E+02  0.70947E+04
 0.70403000E+02  0.70850E+04
 0.70453003E+02  0.68393E+04
 0.70502998E+02  0.70751E+04
 0.70553001E+02  0.76745E+04
 0.70603004E+02  0.79859E+04
 0.70653000E+02  0.81115E+04
 0.70703003E+02  0.75012E+04
 0.70752998E+02  0.66936E+04
 0.70803001E+02  0.64661E+04
 0.70853004E+02  0.63431E+04
 0.70903000E+02  0.67561E+04
 0.70953003E+02  0.71164E+04
 0.71002998E+02  0.67667E+04
 0.71053001E+02  0.63039E+04
 0.71103004E+02  0.60771E+04
 0.71153000E+02  0.59613E+04
 0.71203003E+02  0.59245E+04
 0.71252998E+02  0.66675E+04
 0.71303001E+02  0.71646E+04
 0.71353004E+02  0.69110E+04
 0.71403000E+02  0.61659E+04
 0.71453003E+02  0.62979E+04
 0.71502998E+02  0.65592E+04
 0.71553001E+02  0.59894E+04
 0.71603004E+02  0.58681E+04
 0.71653000E+02  0.58746E+04
 0.71703003E+02  0.61429E+04
 0.71752998E+02  0.61387E+04
 0.71803001E+02  0.60349E+04
 0.71853004E+02  0.61292E+04
 0.71903000E+02  0.64597E+04
 0.71953003E+02  0.68518E+04
 0.72002998E+02  0.65259E+04
 0.72053001E+02  0.63019E+04
 0.72103004E+02  0.68216E+04
 0.72153000E+02  0.69873E+04
 0.72203003E+02  0.68582E+04
 0.72252998E+02  0.71964E+04
 0.72303001E+02  0.69873E+04
 0.72353004E+02  0.66895E+04
 0.72403000E+02  0.68104E+04
 0.72453003E+02  0.67884E+04
 0.72502998E+02  0.66057E+04
 0.72553001E+02  0.62169E+04
 0.72603004E+02  0.60894E+04
 0.72653000E+02  0.66436E+04
 0.72703003E+02  0.72213E+04
 0.72752998E+02  0.71898E+04
 0.72803001E+02  0.70412E+04
 0.72853004E+02  0.71378E+04
 0.72903000E+02  0.72682E+04
 0.72953003E+02  0.70284E+04
 0.73002998E+02  0.68109E+04
 0.73053001E+02  0.62881E+04
 0.73103004E+02  0.60128E+04
 0.73153000E+02  0.64268E+04
 0.73203003E+02  0.70346E+04
 0.73252998E+02  0.70591E+04
 0.73303001E+02  0.68092E+04
 0.73353004E+02  0.70069E+04
 0.73403000E+02  0.71299E+04
 0.73453003E+02  0.76234E+04
 0.73502998E+02  0.79371E+04
 0.73553001E+02  0.75576E+04
 0.73603004E+02  0.69793E+04
 0.73653000E+02  0.65785E+04
 0.73703003E+02  0.66885E+04
 0.73752998E+02  0.70571E+04
 0.73803001E+02  0.69881E+04
 0.73853004E+02  0.68190E+04
 0.73903000E+02  0.65806E+04
 0.73953003E+02  0.65850E+04
 0.74002998E+02  0.65729E+04
 0.74053001E+02  0.62694E+04
 0.74103004E+02  0.59754E+04
 0.74153000E+02  0.59886E+04
 0.74203003E+02  0.62291E+04
 0.74252998E+02  0.60865E+04
 0.74303001E+02  0.60774E+04
 0.74353004E+02  0.62438E+04
 0.74403000E+02  0.63185E+04
 0.74453003E+02  0.62831E+04
 0.74502998E+02  0.64260E+04
 0.74553001E+02  0.67674E+04
 0.74603004E+02  0.68233E+04
 0.74653000E+02  0.68210E+04
 0.74703003E+02  0.71244E+04
 0.74752998E+02  0.72481E+04
 0.74803001E+02  0.69254E+04
 0.74853004E+02  0.67629E+04
 0.74903000E+02  0.71662E+04
 0.74953003E+02  0.71404E+04
 0.75002998E+02  0.64747E+04
 0.75053001E+02  0.62537E+04
 0.75103004E+02  0.64819E+04
 0.75153000E+02  0.68579E+04
 0.75203003E+02  0.72178E+04
 0.75252998E+02  0.73362E+04
 0.75303001E+02  0.71494E+04
 0.75353004E+02  0.69413E+04
 0.75403000E+02  0.70747E+04
 0.75453003E+02  0.69366E+04
 0.75502998E+02  0.64463E+04
 0.75553001E+02  0.61705E+04
 0.75603004E+02  0.60225E+04
 0.75653000E+02  0.60546E+04
 0.75703003E+02  0.61852E+04
 0.75752998E+02  0.63333E+04
 0.75803001E+02  0.62338E+04
 0.75853004E+02  0.59096E+04
 0.75903000E+02  0.58458E+04
 0.75953003E+02  0.61112E+04
 0.76002998E+02  0.62081E+04
 0.76053001E+02  0.61902E+04
 0.76103004E+02  0.66355E+04
 0.76153000E+02  0.71389E+04
 0.76203003E+02  0.72437E+04
 0.76252998E+02  0.75052E+04
 0.76303001E+02  0.78988E+04
 0.76353004E+02  0.80571E+04
 0.76403000E+02  0.78724E+04
 0.76453003E+02  0.72844E+04
 0.76502998E+02  0.69156E+04
 0.76553001E+02  0.66036E+04
 0.76603004E+02  0.64120E+04
 0.76653000E+02  0.63633E+04
 0.76703003E+02  0.64516E+04
 0.76752998E+02  0.64528E+04
 0.76803001E+02  0.64774E+04
 0.76853004E+02  0.68442E+04
 0.76903000E+02  0.70397E+04
 0.76953003E+02  0.68293E+04
 0.77002998E+02  0.65566E+04
 0.77053001E+02  0.68483E+04
 0.77103004E+02  0.69420E+04
 0.77153000E+02  0.69053E+04
 0.77203003E+02  0.66735E+04
 0.77252998E+02  0.61580E+04
 0.77303001E+02  0.60890E+04
 0.77353004E+02  0.60420E+04
 0.77403000E+02  0.62358E+04
 0.77453003E+02  0.65346E+04
 0.77502998E+02  0.65308E+04
 0.77553001E+02  0.66004E+04
 0.77603004E+02  0.67728E+04
 0.77653000E+02  0.68965E+04
 0.77703003E+02  0.67705E+04
 0.77752998E+02  0.64968E+04
 0.77803001E+02  0.63147E+04
 0.77853004E+02  0.64076E+04
 0.77903000E+02  0.66481E+04
 0.77953003E+02  0.66358E+04
 0.78002998E+02  0.65684E+04
 0.78053001E+02  0.66052E+04
 0.78103004E+02  0.64393E+04
 0.78153000E+02  0.61273E+04
 0.78203003E+02  0.60987E+04
 0.78252998E+02  0.61526E+04
 0.78303001E+02  0.65247E+04
 0.78353004E+02  0.70426E+04
 0.78403000E+02  0.69357E+04
 0.78453003E+02  0.67381E+04
 0.78502998E+02  0.68363E+04
 0.78553001E+02  0.71929E+04
 0.78603004E+02  0.70876E+04
 0.78653000E+02  0.65824E+04
 0.78703003E+02  0.64012E+04
 0.78752998E+02  0.64818E+04
 0.78803001E+02  0.65932E+04
 0.78853004E+02  0.66782E+04
 0.78903000E+02  0.66693E+04
 0.78953003E+02  0.66160E+04
 0.79002998E+02  0.68493E+04
 0.79053001E+02  0.70200E+04
 0.79103004E+02  0.71182E+04
 0.79153000E+02  0.72829E+04
 0.79203003E+02  0.75123E+04
 0.79252998E+02  0.76696E+04
 0.79303001E+02  0.77007E+04
 0.79353004E+02  0.72797E+04
 0.79403000E+02  0.67828E+04
 0.79453003E+02  0.66583E+04
 0.79502998E+02  0.66654E+04
 0.79553001E+02  0.67607E+04
 0.79603004E+02  0.65786E+04
 0.79653000E+02  0.64029E+04
 0.79703003E+02  0.60629E+04
 0.79752998E+02  0.58629E+04
 0.79803001E+02  0.62352E+04
 0.79853004E+02  0.67996E+04
 0.79903000E+02  0.69638E+04
 0.79953003E+02  0.65987E+04
 0.80002998E+02  0.62678E+04
 0.80053001E+02  0.62929E+04
 0.80103004E+02  0.65948E+04
 0.80153000E+02  0.65755E+04
 0.80203003E+02  0.65104E+04
 0.80252998E+02  0.69546E+04
 0.80303001E+02  0.72569E+04
 0.80353004E+02  0.71213E+04
 0.80403000E+02  0.69918E+04
 0.80453003E+02  0.69817E+04
 0.80502998E+02  0.70407E+04
 0.80553001E+02  0.70039E+04
 0.80603004E+02  0.68310E+04
 0.80653000E+02  0.67102E+04
 0.80703003E+02  0.63879E+04
 0.80752998E+02  0.61113E+04
 0.80803001E+02  0.60780E+04
 0.80853004E+02  0.59069E+04
 0.80903000E+02  0.58122E+04
 0.80953003E+02  0.58446E+04
 0.81002998E+02  0.59983E+04
 0.81053001E+02  0.60761E+04
 0.81103004E+02  0.60521E+04
 0.81153000E+02  0.62126E+04
 0.81203003E+02  0.65081E+04
 0.81252998E+02  0.65421E+04
 0.81303001E+02  0.63822E+04
 0.81353004E+02  0.65624E+04
 0.81403000E+02  0.71935E+04
 0.81453003E+02  0.75550E+04
 0.81502998E+02  0.74987E+04
 0.81553001E+02  0.72993E+04
 0.81603004E+02  0.70536E+04
 0.81653000E+02  0.68715E+04
 0.81703003E+02  0.69403E+04
 0.81752998E+02  0.71642E+04
 0.81803001E+02  0.70746E+04
 0.81853004E+02  0.67315E+04
 0.81903000E+02  0.62449E+04
 0.81953003E+02  0.60701E+04
 0.82002998E+02  0.62936E+04
 0.82053001E+02  0.64538E+04
 0.82103004E+02  0.63025E+04
 0.82153000E+02  0.64035E+04
 0.82203003E+02  0.68931E+04
 0.82252998E+02  0.71468E+04
 0.82303001E+02  0.69363E+04
 0.82353004E+02  0.67723E+04
 0.82403000E+02  0.68875E+04
 0.82453003E+02  0.68308E+04
 0.82502998E+02  0.68866E+04
 0.82553001E+02  0.71416E+04
 0.82603004E+02  0.70609E+04
 0.82653000E+02  0.67125E+04
 0.82703003E+02  0.65049E+04
 0.82752998E+02  0.64891E+04
 0.82803001E+02  0.63939E+04
 0.82853004E+02  0.62873E+04
 0.82903000E+02  0.62526E+04
 0.82953003E+02  0.64032E+04
 0.83002998E+02  0.65019E+04
 0.83053001E+02  0.64192E+04
 0.83103004E+02  0.63034E+04
 0.83153000E+02  0.64148E+04
 0.83203003E+02  0.65420E+04
 0.83252998E+02  0.64498E+04
 0.83303001E+02  0.66272E+04
 0.83353004E+02  0.69009E+04
 0.83403000E+02  0.70806E+04
 0.83453003E+02  0.72146E+04
 0.83502998E+02  0.72312E+04
 0.83553001E+02  0.70268E+04
 0.83603004E+02  0.68254E+04
 0.83653000E+02  0.68452E+04
 0.83703003E+02  0.69067E+04
 0.83752998E+02  0.69987E+04
 0.83803001E+02  0.68373E+04
 0.83853004E+02  0.64042E+04
 0.83903000E+02  0.63848E+04
 0.83953003E+02  0.66110E+04
 0.84002998E+02  0.66591E+04
 0.84053001E+02  0.64636E+04
 0.84103004E+02  0.65309E+04
 0.84153000E+02  0.65885E+04
 0.84203003E+02  0.64183E+04
 0.84252998E+02  0.64242E+04
 0.84303001E+02  0.65176E+04
 0.84353004E+02  0.65870E+04
 0.84403000E+02  0.67444E+04
 0.84453003E+02  0.70272E+04
 0.84502998E+02  0.70655E+04
 0.84553001E+02  0.69386E+04
 0.84603004E+02  0.67801E+04
 0.84653000E+02  0.67849E+04
 0.84703003E+02  0.66597E+04
 0.84752998E+02  0.66124E+04
 0.84803001E+02  0.66926E+04
 0.84853004E+02  0.66504E+04
 0.84903000E+02  0.64397E+04
 0.84953003E+02  0.63199E+04
 0.85002998E+02  0.65728E+04
 0.85053001E+02  0.66206E+04
 0.85103004E+02  0.65733E+04
 0.85153000E+02  0.67083E+04
 0.85203003E+02  0.69627E+04
 0.85252998E+02  0.70812E+04
 0.85303001E+02  0.72108E+04
 0.85353004E+02  0.73220E+04
 0.85403000E+02  0.72847E+04
 0.85453003E+02  0.70707E+04
 0.85502998E+02  0.66234E+04
 0.85553001E+02  0.63661E+04
 0.85603004E+02  0.64332E+04
 0.85653000E+02  0.64274E+04
 0.85703003E+02  0.63491E+04
 0.85752998E+02  0.62984E+04
 0.85803001E+02  0.64192E+04
 0.85853004E+02  0.65863E+04
 0.85903000E+02  0.66777E+04
 0.85953003E+02  0.66589E+04
 0.86002998E+02  0.64227E+04
 0.86053001E+02  0.63497E+04
 0.86103004E+02  0.65663E+04
 0.86153000E+02  0.69803E+04
 0.86203003E+02  0.71236E+04
 0.86252998E+02  0.69988E+04
 0.86303001E+02  0.70272E+04
 0.86353004E+02  0.71736E+04
 0.86403000E+02  0.71205E+04
 0.86453003E+02  0.70314E+04
 0.86502998E+02  0.70883E+04
 0.86553001E+02  0.69686E+04
 0.86603004E+02  0.66528E+04
 0.86653000E+02  0.63329E+04
 0.86703003E+02  0.64689E+04
 0.86752998E+02  0.66601E+04
 0.86803001E+02  0.64407E+04
 0.86853004E+02  0.64888E+04
 0.86903000E+02  0.68007E+04
 0.86953003E+02  0.68359E+04
 0.87002998E+02  0.65441E+04
 0.87053001E+02  0.63267E+04
 0.87103004E+02  0.64538E+04
 0.87153000E+02  0.65157E+04
 0.87203003E+02  0.63989E+04
 0.87252998E+02  0.65442E+04
 0.87303001E+02  0.68023E+04
 0.87353004E+02  0.68968E+04
 0.87403000E+02  0.68617E+04
 0.87453003E+02  0.69593E+04
 0.87502998E+02  0.68664E+04
 0.87553001E+02  0.65369E+04
 0.87602997E+02  0.64391E+04
 0.87653000E+02  0.65355E+04
 0.87703003E+02  0.65767E+04
 0.87752998E+02  0.64420E+04
 0.87803001E+02  0.64475E+04
 0.87852997E+02  0.66659E+04
 0.87903000E+02  0.68148E+04
 0.87953003E+02  0.68610E+04
 0.88002998E+02  0.68114E+04
 0.88053001E+02  0.67212E+04
 0.88102997E+02  0.68947E+04
 0.88153000E+02  0.71104E+04
 0.88203003E+02  0.69775E+04
 0.88252998E+02  0.66698E+04
 0.88303001E+02  0.64217E+04
 0.88352997E+02  0.62794E+04
 0.88403000E+02  0.63453E+04
 0.88453003E+02  0.64218E+04
 0.88502998E+02  0.65544E+04
 0.88553001E+02  0.67735E+04
 0.88602997E+02  0.68616E+04
 0.88653000E+02  0.68915E+04
 0.88703003E+02  0.70071E+04
 0.88752998E+02  0.70705E+04
 0.88803001E+02  0.68575E+04
 0.88852997E+02  0.64789E+04
 0.88903000E+02  0.61415E+04
 0.88953003E+02  0.62565E+04
 0.89002998E+02  0.64474E+04
 0.89053001E+02  0.64701E+04
 0.89102997E+02  0.66501E+04
 0.89153000E+02  0.68692E+04
 0.89203003E+02  0.70018E+04
 0.89252998E+02  0.68369E+04
 0.89303001E+02  0.68033E+04
 0.89352997E+02  0.68897E+04
 0.89403000E+02  0.68344E+04
 0.89453003E+02  0.67609E+04
 0.89502998E+02  0.66944E+04
 0.89553001E+02  0.66467E+04
 0.89602997E+02  0.64972E+04
 0.89653000E+02  0.64017E+04
 0.89703003E+02  0.63765E+04
 0.89752998E+02  0.63828E+04
 0.89803001E+02  0.63905E+04
 0.89852997E+02  0.64588E+04
 0.89903000E+02  0.65220E+04
 0.89953003E+02  0.64649E+04
 0.90002998E+02  0.66224E+04
 0.90053001E+02  0.68202E+04
 0.90102997E+02  0.68009E+04
 0.90153000E+02  0.68032E+04
 0.90203003E+02  0.69370E+04
 0.90252998E+02  0.71680E+04
 0.90303001E+02  0.73332E+04
 0.90352997E+02  0.72641E+04
 0.90403000E+02  0.70408E+04
 0.90453003E+02  0.68697E+04
 0.90502998E+02  0.68651E+04
 0.90553001E+02  0.68136E+04
 0.90602997E+02  0.65528E+04
 0.90653000E+02  0.63304E+04
 0.90703003E+02  0.62763E+04
 0.90752998E+02  0.63277E+04
 0.90803001E+02  0.63578E+04
 0.90852997E+02  0.64236E+04
 0.90903000E+02  0.64799E+04
 0.90953003E+02  0.65608E+04
 0.91002998E+02  0.65637E+04
 0.91053001E+02  0.64285E+04
 0.91102997E+02  0.64133E+04
 0.91153000E+02  0.64477E+04
 0.91203003E+02  0.63914E+04
 0.91252998E+02  0.64790E+04
 0.91303001E+02  0.68106E+04
 0.91352997E+02  0.70283E+04
 0.91403000E+02  0.69656E+04
 0.91453003E+02  0.68263E+04
 0.91502998E+02  0.69076E+04
 0.91553001E+02  0.70682E+04
 0.91602997E+02  0.69629E+04
 0.91653000E+02  0.66438E+04
 0.91703003E+02  0.65956E+04
 0.91752998E+02  0.67602E+04
 0.91803001E+02  0.67084E+04
 0.91852997E+02  0.65690E+04
 0.91903000E+02  0.66277E+04
 0.91953003E+02  0.66272E+04
 0.92002998E+02  0.65292E+04
 0.92053001E+02  0.65500E+04
 0.92102997E+02  0.66770E+04
 0.92153000E+02  0.66821E+04
 0.92203003E+02  0.67182E+04
 0.92252998E+02  0.68707E+04
 0.92303001E+02  0.68302E+04
 0.92352997E+02  0.67244E+04
 0.92403000E+02  0.66181E+04
 0.92453003E+02  0.66418E+04
 0.92502998E+02  0.67322E+04
 0.92553001E+02  0.67229E+04
 0.92602997E+02  0.67199E+04
 0.92653000E+02  0.68417E+04
 0.92703003E+02  0.69777E+04
 0.92752998E+02  0.70509E+04
 0.92803001E+02  0.71126E+04
 0.92852997E+02  0.70518E+04
 0.92903000E+02  0.67963E+04
 0.92953003E+02  0.65983E+04
 0.93002998E+02  0.65596E+04
 0.93053001E+02  0.67024E+04
 0.93102997E+02  0.68244E+04
 0.93153000E+02  0.68071E+04
 0.93203003E+02  0.66750E+04
 0.93252998E+02  0.65133E+04
 0.93303001E+02  0.63478E+04
 0.93352997E+02  0.62673E+04
 0.93403000E+02  0.64721E+04
 0.93453003E+02  0.67305E+04
 0.93502998E+02  0.67958E+04
 0.93553001E+02  0.67056E+04
 0.93602997E+02  0.67200E+04
 0.93653000E+02  0.66914E+04
 0.93703003E+02  0.64788E+04
 0.93752998E+02  0.62060E+04
 0.93803001E+02  0.60728E+04
 0.93852997E+02  0.60765E+04
 0.93903000E+02  0.62169E+04
 0.93953003E+02  0.64630E+04
 0.94002998E+02  0.67062E+04
 0.94053001E+02  0.68903E+04
 0.94102997E+02  0.70714E+04
 0.94153000E+02  0.72733E+04
 0.94203003E+02  0.73064E+04
 0.94252998E+02  0.72439E+04
 0.94303001E+02  0.70749E+04
 0.94352997E+02  0.69026E+04
 0.94403000E+02  0.68403E+04
 0.94453003E+02  0.67735E+04
 0.94502998E+02  0.66479E+04
 0.94553001E+02  0.65142E+04
 0.94602997E+02  0.64250E+04
 0.94653000E+02  0.63730E+04
 0.94703003E+02  0.64927E+04
 0.94752998E+02  0.65914E+04
 0.94803001E+02  0.65995E+04
 0.94852997E+02  0.66666E+04
 0.94903000E+02  0.67024E+04
 0.94953003E+02  0.67770E+04
 0.95002998E+02  0.69773E+04
 0.95053001E+02  0.69596E+04
 0.95102997E+02  0.67218E+04
 0.95153000E+02  0.66302E+04
 0.95203003E+02  0.66848E+04
 0.95252998E+02  0.66672E+04
 0.95303001E+02  0.64647E+04
 0.95352997E+02  0.62825E+04
 0.95403000E+02  0.63153E+04
 0.95453003E+02  0.65748E+04
 0.95502998E+02  0.66494E+04
 0.95553001E+02  0.66346E+04
 0.95602997E+02  0.68015E+04
 0.95653000E+02  0.69532E+04
 0.95703003E+02  0.69295E+04
 0.95752998E+02  0.68106E+04
 0.95803001E+02  0.67323E+04
 0.95852997E+02  0.65255E+04
 0.95903000E+02  0.63787E+04
 0.95953003E+02  0.64496E+04
 0.96002998E+02  0.65439E+04
 0.96053001E+02  0.64497E+04
 0.96102997E+02  0.63192E+04
 0.96153000E+02  0.64170E+04
 0.96203003E+02  0.67155E+04
 0.96252998E+02  0.68813E+04
 0.96303001E+02  0.67880E+04
 0.96352997E+02  0.67447E+04
 0.96403000E+02  0.68832E+04
 0.96453003E+02  0.69845E+04
 0.96502998E+02  0.69770E+04
 0.96553001E+02  0.68720E+04
 0.96602997E+02  0.66148E+04
 0.96653000E+02  0.65237E+04
 0.96703003E+02  0.67404E+04
 0.96752998E+02  0.69007E+04
 0.96803001E+02  0.67936E+04
 0.96852997E+02  0.67332E+04
 0.96903000E+02  0.67321E+04
 0.96953003E+02  0.66857E+04
 0.97002998E+02  0.66049E+04
 0.97053001E+02  0.64971E+04
 0.97102997E+02  0.64532E+04
 0.97153000E+02  0.64992E+04
 0.97203003E+02  0.65345E+04
 0.97252998E+02  0.64491E+04
 0.97303001E+02  0.63735E+04
 0.97352997E+02  0.63832E+04
 0.97403000E+02  0.65049E+04
 0.97453003E+02  0.65532E+04
 0.97502998E+02  0.65856E+04
 0.97553001E+02  0.66080E+04
 0.97602997E+02  0.66137E+04
 0.97653000E+02  0.66300E+04
 0.97703003E+02  0.66787E+04
 0.97752998E+02  0.67333E+04
 0.97803001E+02  0.66664E+04
 0.97852997E+02  0.66900E+04
 0.97903000E+02  0.68015E+04
 0.97953003E+02  0.69194E+04
 0.98002998E+02  0.70000E+04
