-0.20000000E+01 -0.16571E+05
-0.19500000E+01 -0.16478E+05
-0.19000000E+01 -0.16536E+05
-0.18500000E+01 -0.16533E+05
-0.18000000E+01 -0.16519E+05
-0.17500000E+01 -0.16509E+05
-0.17000000E+01 -0.16507E+05
-0.16500001E+01 -0.16502E+05
-0.16000000E+01 -0.16495E+05
-0.15500000E+01 -0.16486E+05
-0.15000000E+01 -0.16487E+05
-0.14500000E+01 -0.16486E+05
-0.14000001E+01 -0.16508E+05
-0.13500000E+01 -0.16521E+05
-0.13000001E+01 -0.16510E+05
-0.12500000E+01 -0.16507E+05
-0.12000000E+01 -0.16496E+05
-0.11500001E+01 -0.16493E+05
-0.11000000E+01 -0.16494E+05
-0.10500001E+01 -0.16498E+05
-0.10000000E+01 -0.16495E+05
-0.95000005E+00 -0.16484E+05
-0.90000010E+00 -0.16474E+05
-0.85000002E+00 -0.16462E+05
-0.80000007E+00 -0.16474E+05
-0.75000012E+00 -0.16483E+05
-0.70000005E+00 -0.16487E+05
-0.65000010E+00 -0.16476E+05
-0.60000014E+00 -0.16470E+05
-0.55000007E+00 -0.16489E+05
-0.50000012E+00 -0.16496E+05
-0.45000005E+00 -0.16486E+05
-0.40000010E+00 -0.16466E+05
-0.35000014E+00 -0.16454E+05
-0.30000007E+00 -0.16458E+05
-0.25000012E+00 -0.16465E+05
-0.20000005E+00 -0.16469E+05
-0.15000010E+00 -0.16479E+05
-0.10000014E+00 -0.16483E+05
-0.50000072E-01 -0.16492E+05
-0.11920929E-06 -0.16512E+05
 0.49999952E-01 -0.16535E+05
 0.99999905E-01 -0.16536E+05
 0.14999986E+00 -0.16531E+05
 0.19999981E+00 -0.16529E+05
 0.24999976E+00 -0.16519E+05
 0.29999995E+00 -0.16519E+05
 0.34999990E+00 -0.16521E+05
 0.39999986E+00 -0.16535E+05
 0.44999981E+00 -0.16536E+05
 0.49999976E+00 -0.16526E+05
 0.54999995E+00 -0.16509E+05
 0.59999990E+00 -0.16499E+05
 0.64999986E+00 -0.16508E+05
 0.69999981E+00 -0.16508E+05
 0.74999976E+00 -0.16500E+05
 0.79999971E+00 -0.16488E+05
 0.84999990E+00 -0.16485E+05
 0.89999986E+00 -0.16484E+05
 0.94999981E+00 -0.16483E+05
 0.99999976E+00 -0.16478E+05
 0.10499997E+01 -0.16460E+05
 0.10999999E+01 -0.16435E+05
 0.11499999E+01 -0.16425E+05
 0.11999998E+01 -0.16428E+05
 0.12499998E+01 -0.16428E+05
 0.12999997E+01 -0.16417E+05
 0.13499999E+01 -0.16409E+05
 0.13999999E+01 -0.16410E+05
 0.14499998E+01 -0.16419E+05
 0.14999998E+01 -0.16443E+05
 0.15499997E+01 -0.16472E+05
 0.15999999E+01 -0.16509E+05
 0.16499999E+01 -0.16536E+05
 0.16999998E+01 -0.16539E+05
 0.17499998E+01 -0.16541E+05
 0.17999997E+01 -0.16550E+05
 0.18499997E+01 -0.16565E+05
 0.18999999E+01 -0.16570E+05
 0.19499998E+01 -0.16572E+05
 0.19999998E+01 -0.16574E+05
 0.20499997E+01 -0.16566E+05
 0.20999999E+01 -0.16532E+05
 0.21499996E+01 -0.16499E+05
 0.21999998E+01 -0.16494E+05
 0.22499995E+01 -0.16490E+05
 0.22999997E+01 -0.16491E+05
 0.23499999E+01 -0.16493E+05
 0.23999996E+01 -0.16473E+05
 0.24499998E+01 -0.16452E+05
 0.24999995E+01 -0.16447E+05
 0.25499997E+01 -0.16441E+05
 0.25999999E+01 -0.16449E+05
 0.26499996E+01 -0.16468E+05
 0.26999998E+01 -0.16486E+05
 0.27499995E+01 -0.16495E+05
 0.27999997E+01 -0.16507E+05
 0.28499999E+01 -0.16522E+05
 0.28999996E+01 -0.16515E+05
 0.29499998E+01 -0.16518E+05
 0.29999995E+01 -0.16519E+05
 0.30499997E+01 -0.16520E+05
 0.30999999E+01 -0.16512E+05
 0.31499996E+01 -0.16510E+05
 0.31999998E+01 -0.16508E+05
 0.32499995E+01 -0.16491E+05
 0.32999997E+01 -0.16492E+05
 0.33499999E+01 -0.16483E+05
 0.33999996E+01 -0.16473E+05
 0.34499998E+01 -0.16474E+05
 0.34999995E+01 -0.16468E+05
 0.35499997E+01 -0.16463E+05
 0.35999994E+01 -0.16463E+05
 0.36499996E+01 -0.16463E+05
 0.36999998E+01 -0.16462E+05
 0.37499995E+01 -0.16458E+05
 0.37999997E+01 -0.16465E+05
 0.38499994E+01 -0.16481E+05
 0.38999996E+01 -0.16488E+05
 0.39499998E+01 -0.16496E+05
 0.39999995E+01 -0.16506E+05
 0.40499997E+01 -0.16523E+05
 0.40999994E+01 -0.16540E+05
 0.41499996E+01 -0.16547E+05
 0.41999998E+01 -0.16547E+05
 0.42499995E+01 -0.16535E+05
 0.42999997E+01 -0.16520E+05
 0.43499994E+01 -0.16508E+05
 0.43999996E+01 -0.16504E+05
 0.44499998E+01 -0.16499E+05
 0.44999995E+01 -0.16497E+05
 0.45499997E+01 -0.16492E+05
 0.45999994E+01 -0.16485E+05
 0.46499996E+01 -0.16472E+05
 0.46999998E+01 -0.16471E+05
 0.47499995E+01 -0.16470E+05
 0.47999997E+01 -0.16468E+05
 0.48499994E+01 -0.16482E+05
 0.48999996E+01 -0.16497E+05
 0.49499998E+01 -0.16514E+05
 0.49999995E+01 -0.16514E+05
 0.50499997E+01 -0.16519E+05
 0.50999994E+01 -0.16513E+05
 0.51499996E+01 -0.16519E+05
 0.51999998E+01 -0.16526E+05
 0.52499995E+01 -0.16528E+05
 0.52999997E+01 -0.16531E+05
 0.53499994E+01 -0.16518E+05
 0.53999996E+01 -0.16522E+05
 0.54499993E+01 -0.16517E+05
 0.54999995E+01 -0.16517E+05
 0.55499997E+01 -0.16517E+05
 0.55999994E+01 -0.16509E+05
 0.56499996E+01 -0.16505E+05
 0.56999993E+01 -0.16492E+05
 0.57499995E+01 -0.16478E+05
 0.57999997E+01 -0.16464E+05
 0.58499994E+01 -0.16453E+05
 0.58999996E+01 -0.16455E+05
 0.59499993E+01 -0.16456E+05
 0.59999995E+01 -0.16460E+05
 0.60499992E+01 -0.16461E+05
 0.60999994E+01 -0.16446E+05
 0.61499996E+01 -0.16463E+05
 0.61999998E+01 -0.16481E+05
 0.62499990E+01 -0.16490E+05
 0.62999992E+01 -0.16510E+05
 0.63499994E+01 -0.16517E+05
 0.63999996E+01 -0.16520E+05
 0.64499998E+01 -0.16532E+05
 0.64999990E+01 -0.16544E+05
 0.65499992E+01 -0.16554E+05
 0.65999994E+01 -0.16560E+05
 0.66499996E+01 -0.16536E+05
 0.66999998E+01 -0.16508E+05
 0.67499990E+01 -0.16505E+05
 0.67999992E+01 -0.16500E+05
 0.68499994E+01 -0.16506E+05
 0.68999996E+01 -0.16495E+05
 0.69499998E+01 -0.16482E+05
 0.69999990E+01 -0.16475E+05
 0.70499992E+01 -0.16462E+05
 0.70999994E+01 -0.16452E+05
 0.71499996E+01 -0.16445E+05
 0.71999998E+01 -0.16443E+05
 0.72499990E+01 -0.16442E+05
 0.72999992E+01 -0.16462E+05
 0.73499994E+01 -0.16470E+05
 0.73999996E+01 -0.16491E+05
 0.74499998E+01 -0.16492E+05
 0.74999990E+01 -0.16487E+05
 0.75499992E+01 -0.16500E+05
 0.75999994E+01 -0.16505E+05
 0.76499996E+01 -0.16510E+05
 0.76999998E+01 -0.16504E+05
 0.77499990E+01 -0.16486E+05
 0.77999992E+01 -0.16473E+05
 0.78499994E+01 -0.16476E+05
 0.78999996E+01 -0.16486E+05
 0.79499998E+01 -0.16499E+05
 0.79999990E+01 -0.16513E+05
 0.80499992E+01 -0.16524E+05
 0.80999994E+01 -0.16524E+05
 0.81499996E+01 -0.16522E+05
 0.81999998E+01 -0.16518E+05
 0.82499990E+01 -0.16520E+05
 0.82999992E+01 -0.16512E+05
 0.83499994E+01 -0.16511E+05
 0.83999996E+01 -0.16518E+05
 0.84499998E+01 -0.16531E+05
 0.84999990E+01 -0.16539E+05
 0.85499992E+01 -0.16529E+05
 0.85999994E+01 -0.16523E+05
 0.86499996E+01 -0.16510E+05
 0.86999998E+01 -0.16507E+05
 0.87499990E+01 -0.16513E+05
 0.87999992E+01 -0.16525E+05
 0.88499994E+01 -0.16520E+05
 0.88999996E+01 -0.16514E+05
 0.89499998E+01 -0.16504E+05
 0.89999990E+01 -0.16505E+05
 0.90499992E+01 -0.16506E+05
 0.90999994E+01 -0.16510E+05
 0.91499996E+01 -0.16491E+05
 0.91999989E+01 -0.16482E+05
 0.92499990E+01 -0.16473E+05
 0.92999992E+01 -0.16441E+05
 0.93499994E+01 -0.16443E+05
 0.93999996E+01 -0.16422E+05
 0.94499989E+01 -0.16454E+05
 0.94999990E+01 -0.16477E+05
 0.95499992E+01 -0.16499E+05
 0.95999994E+01 -0.16520E+05
 0.96499996E+01 -0.16510E+05
 0.96999989E+01 -0.16500E+05
 0.97499990E+01 -0.16487E+05
 0.97999992E+01 -0.16493E+05
 0.98499994E+01 -0.16501E+05
 0.98999996E+01 -0.16509E+05
 0.99499989E+01 -0.16506E+05
 0.99999990E+01 -0.16516E+05
 0.10049999E+02 -0.16496E+05
 0.10099999E+02 -0.16484E+05
 0.10150000E+02 -0.16478E+05
 0.10199999E+02 -0.16451E+05
 0.10249999E+02 -0.16441E+05
 0.10299999E+02 -0.16435E+05
 0.10349999E+02 -0.16438E+05
 0.10400000E+02 -0.16442E+05
 0.10449999E+02 -0.16442E+05
 0.10499999E+02 -0.16456E+05
 0.10549999E+02 -0.16473E+05
 0.10599999E+02 -0.16492E+05
 0.10650000E+02 -0.16501E+05
 0.10699999E+02 -0.16505E+05
 0.10749999E+02 -0.16519E+05
 0.10799999E+02 -0.16543E+05
 0.10849999E+02 -0.16557E+05
 0.10900000E+02 -0.16563E+05
 0.10949999E+02 -0.16569E+05
 0.10999999E+02 -0.16554E+05
 0.11049999E+02 -0.16538E+05
 0.11099999E+02 -0.16527E+05
 0.11150000E+02 -0.16510E+05
 0.11199999E+02 -0.16494E+05
 0.11249999E+02 -0.16473E+05
 0.11299999E+02 -0.16453E+05
 0.11349999E+02 -0.16451E+05
 0.11400000E+02 -0.16443E+05
 0.11449999E+02 -0.16445E+05
 0.11499999E+02 -0.16449E+05
 0.11549999E+02 -0.16464E+05
 0.11599999E+02 -0.16479E+05
 0.11650000E+02 -0.16476E+05
 0.11699999E+02 -0.16491E+05
 0.11749999E+02 -0.16524E+05
 0.11799999E+02 -0.16549E+05
 0.11849999E+02 -0.16549E+05
 0.11900000E+02 -0.16533E+05
 0.11949999E+02 -0.16510E+05
 0.11999999E+02 -0.16507E+05
 0.12049999E+02 -0.16522E+05
 0.12099999E+02 -0.16529E+05
 0.12150000E+02 -0.16536E+05
 0.12199999E+02 -0.16531E+05
 0.12249999E+02 -0.16511E+05
 0.12299999E+02 -0.16492E+05
 0.12349999E+02 -0.16496E+05
 0.12400000E+02 -0.16504E+05
 0.12449999E+02 -0.16513E+05
 0.12499999E+02 -0.16523E+05
 0.12549999E+02 -0.16510E+05
 0.12599999E+02 -0.16502E+05
 0.12649999E+02 -0.16491E+05
 0.12699999E+02 -0.16492E+05
 0.12749999E+02 -0.16481E+05
 0.12799999E+02 -0.16470E+05
 0.12849999E+02 -0.16463E+05
 0.12899999E+02 -0.16445E+05
 0.12949999E+02 -0.16451E+05
 0.12999999E+02 -0.16453E+05
 0.13049999E+02 -0.16478E+05
 0.13099999E+02 -0.16482E+05
 0.13149999E+02 -0.16486E+05
 0.13199999E+02 -0.16512E+05
 0.13249999E+02 -0.16504E+05
 0.13299999E+02 -0.16518E+05
 0.13349999E+02 -0.16509E+05
 0.13399999E+02 -0.16487E+05
 0.13449999E+02 -0.16483E+05
 0.13499999E+02 -0.16465E+05
 0.13549999E+02 -0.16463E+05
 0.13599999E+02 -0.16477E+05
 0.13649999E+02 -0.16488E+05
 0.13699999E+02 -0.16496E+05
 0.13749999E+02 -0.16512E+05
 0.13799999E+02 -0.16523E+05
 0.13849999E+02 -0.16526E+05
 0.13899999E+02 -0.16540E+05
 0.13949999E+02 -0.16546E+05
 0.13999999E+02 -0.16538E+05
 0.14049999E+02 -0.16542E+05
 0.14099998E+02 -0.16531E+05
 0.14150000E+02 -0.16525E+05
 0.14199999E+02 -0.16515E+05
 0.14249998E+02 -0.16493E+05
 0.14299999E+02 -0.16493E+05
 0.14349998E+02 -0.16483E+05
 0.14400000E+02 -0.16482E+05
 0.14449999E+02 -0.16502E+05
 0.14499998E+02 -0.16517E+05
 0.14549999E+02 -0.16516E+05
 0.14599998E+02 -0.16504E+05
 0.14650000E+02 -0.16501E+05
 0.14699999E+02 -0.16493E+05
 0.14749998E+02 -0.16486E+05
 0.14799999E+02 -0.16484E+05
 0.14849998E+02 -0.16479E+05
 0.14900000E+02 -0.16482E+05
 0.14949999E+02 -0.16486E+05
 0.14999998E+02 -0.16495E+05
 0.15049999E+02 -0.16494E+05
 0.15099998E+02 -0.16486E+05
 0.15150000E+02 -0.16484E+05
 0.15199999E+02 -0.16474E+05
 0.15249998E+02 -0.16475E+05
 0.15299999E+02 -0.16493E+05
 0.15349998E+02 -0.16496E+05
 0.15400000E+02 -0.16484E+05
 0.15449999E+02 -0.16470E+05
 0.15499998E+02 -0.16446E+05
 0.15549999E+02 -0.16439E+05
 0.15599998E+02 -0.16452E+05
 0.15650000E+02 -0.16457E+05
 0.15699999E+02 -0.16450E+05
 0.15749998E+02 -0.16465E+05
 0.15799999E+02 -0.16465E+05
 0.15849998E+02 -0.16474E+05
 0.15900000E+02 -0.16503E+05
 0.15949999E+02 -0.16484E+05
 0.15999998E+02 -0.16506E+05
 0.16049999E+02 -0.16509E+05
 0.16099998E+02 -0.16506E+05
 0.16150000E+02 -0.16523E+05
 0.16199999E+02 -0.16520E+05
 0.16249998E+02 -0.16523E+05
 0.16299999E+02 -0.16517E+05
 0.16349998E+02 -0.16512E+05
 0.16400000E+02 -0.16516E+05
 0.16449999E+02 -0.16536E+05
 0.16499998E+02 -0.16537E+05
 0.16549999E+02 -0.16535E+05
 0.16599998E+02 -0.16533E+05
 0.16650000E+02 -0.16525E+05
 0.16699999E+02 -0.16526E+05
 0.16749998E+02 -0.16518E+05
 0.16799999E+02 -0.16505E+05
 0.16849998E+02 -0.16496E+05
 0.16900000E+02 -0.16489E+05
 0.16949999E+02 -0.16474E+05
 0.16999998E+02 -0.16461E+05
 0.17049999E+02 -0.16460E+05
 0.17099998E+02 -0.16464E+05
 0.17150000E+02 -0.16476E+05
 0.17199999E+02 -0.16493E+05
 0.17249998E+02 -0.16506E+05
 0.17299999E+02 -0.16504E+05
 0.17349998E+02 -0.16498E+05
 0.17400000E+02 -0.16495E+05
 0.17449999E+02 -0.16483E+05
 0.17499998E+02 -0.16472E+05
 0.17549999E+02 -0.16477E+05
 0.17599998E+02 -0.16493E+05
 0.17650000E+02 -0.16507E+05
 0.17699999E+02 -0.16528E+05
 0.17749998E+02 -0.16533E+05
 0.17799999E+02 -0.16520E+05
 0.17849998E+02 -0.16516E+05
 0.17900000E+02 -0.16509E+05
 0.17949999E+02 -0.16508E+05
 0.17999998E+02 -0.16502E+05
 0.18049999E+02 -0.16500E+05
 0.18099998E+02 -0.16501E+05
 0.18150000E+02 -0.16491E+05
 0.18199999E+02 -0.16484E+05
 0.18249998E+02 -0.16473E+05
 0.18299999E+02 -0.16479E+05
 0.18349998E+02 -0.16478E+05
 0.18400000E+02 -0.16484E+05
 0.18449999E+02 -0.16492E+05
 0.18499998E+02 -0.16486E+05
 0.18549999E+02 -0.16497E+05
 0.18599998E+02 -0.16485E+05
 0.18650000E+02 -0.16485E+05
 0.18699999E+02 -0.16499E+05
 0.18749998E+02 -0.16507E+05
 0.18799999E+02 -0.16513E+05
 0.18849998E+02 -0.16497E+05
 0.18900000E+02 -0.16481E+05
 0.18949999E+02 -0.16464E+05
 0.18999998E+02 -0.16452E+05
 0.19049999E+02 -0.16462E+05
 0.19099998E+02 -0.16477E+05
 0.19150000E+02 -0.16486E+05
 0.19199999E+02 -0.16494E+05
 0.19249998E+02 -0.16492E+05
 0.19299999E+02 -0.16508E+05
 0.19349998E+02 -0.16517E+05
 0.19400000E+02 -0.16491E+05
 0.19449999E+02 -0.16439E+05
 0.19499998E+02 -0.16391E+05
 0.19549999E+02 -0.16465E+05
 0.19599998E+02 -0.16725E+05
 0.19650000E+02 -0.16913E+05
 0.19699999E+02 -0.16720E+05
 0.19749998E+02 -0.16217E+05
 0.19799999E+02 -0.15780E+05
 0.19849998E+02 -0.15836E+05
 0.19900000E+02 -0.16440E+05
 0.19949999E+02 -0.17184E+05
 0.19999998E+02 -0.17743E+05
 0.20049999E+02 -0.17028E+05
 0.20099998E+02 -0.15553E+05
 0.20150000E+02 -0.14912E+05
 0.20199999E+02 -0.15595E+05
 0.20249998E+02 -0.16726E+05
 0.20299999E+02 -0.17740E+05
 0.20349998E+02 -0.18173E+05
 0.20399998E+02 -0.17250E+05
 0.20449999E+02 -0.15543E+05
 0.20499998E+02 -0.13942E+05
 0.20549999E+02 -0.15179E+05
 0.20599998E+02 -0.17406E+05
 0.20649998E+02 -0.19061E+05
 0.20699999E+02 -0.18610E+05
 0.20749998E+02 -0.16284E+05
 0.20799999E+02 -0.14728E+05
 0.20849998E+02 -0.14824E+05
 0.20899998E+02 -0.15449E+05
 0.20949999E+02 -0.16440E+05
 0.20999998E+02 -0.18810E+05
 0.21049999E+02 -0.18480E+05
 0.21099998E+02 -0.16163E+05
 0.21149998E+02 -0.16927E+05
 0.21199999E+02 -0.15108E+05
 0.21249998E+02 -0.13224E+05
 0.21299999E+02 -0.16893E+05
 0.21349998E+02 -0.16353E+05
 0.21399998E+02 -0.17698E+05
 0.21449999E+02 -0.18282E+05
 0.21499998E+02 -0.17142E+05
 0.21549999E+02 -0.16447E+05
 0.21599998E+02 -0.15290E+05
 0.21649998E+02 -0.14086E+05
 0.21699999E+02 -0.14471E+05
 0.21749998E+02 -0.18804E+05
 0.21799999E+02 -0.22777E+05
 0.21849998E+02 -0.16847E+05
 0.21899998E+02 -0.11408E+05
 0.21949999E+02 -0.15626E+05
 0.21999998E+02 -0.14933E+05
 0.22049999E+02 -0.18395E+05
 0.22099998E+02 -0.20254E+05
 0.22149998E+02 -0.19399E+05
 0.22199999E+02 -0.17244E+05
 0.22249998E+02 -0.10868E+05
 0.22299999E+02 -0.10158E+05
 0.22349998E+02 -0.16922E+05
 0.22399998E+02 -0.18138E+05
 0.22449999E+02 -0.17076E+05
 0.22499998E+02 -0.19123E+05
 0.22549999E+02 -0.17382E+05
 0.22599998E+02 -0.17410E+05
 0.22649998E+02 -0.17839E+05
 0.22699999E+02 -0.14101E+05
 0.22749998E+02 -0.14449E+05
 0.22799999E+02 -0.16661E+05
 0.22849998E+02 -0.17866E+05
 0.22899998E+02 -0.22373E+05
 0.22949999E+02 -0.15921E+05
 0.22999998E+02 -0.89900E+04
 0.23049999E+02 -0.11295E+05
 0.23099998E+02 -0.18463E+05
 0.23149998E+02 -0.24259E+05
 0.23199999E+02 -0.21106E+05
 0.23249998E+02 -0.13113E+05
 0.23299999E+02 -0.11426E+05
 0.23349998E+02 -0.17991E+05
 0.23399998E+02 -0.16663E+05
 0.23449999E+02 -0.16850E+05
 0.23499998E+02 -0.13713E+05
 0.23549999E+02 -0.16045E+05
 0.23599998E+02 -0.20707E+05
 0.23649998E+02 -0.15516E+05
 0.23699999E+02 -0.14426E+05
 0.23749998E+02 -0.15238E+05
 0.23799999E+02 -0.19668E+05
 0.23849998E+02 -0.13906E+05
 0.23899998E+02 -0.16170E+05
 0.23949999E+02 -0.19942E+05
 0.23999998E+02 -0.18059E+05
 0.24049999E+02 -0.15732E+05
 0.24099998E+02 -0.14737E+05
 0.24149998E+02 -0.15039E+05
 0.24199999E+02 -0.20865E+05
 0.24249998E+02 -0.19664E+05
 0.24299999E+02 -0.67640E+04
 0.24349998E+02 -0.13790E+05
 0.24399998E+02 -0.21121E+05
 0.24449999E+02 -0.19006E+05
 0.24499998E+02 -0.17582E+05
 0.24549999E+02 -0.20123E+05
 0.24599998E+02 -0.11770E+05
 0.24649998E+02 -0.14783E+05
 0.24699999E+02 -0.17682E+05
 0.24749998E+02 -0.16959E+05
 0.24799999E+02 -0.14988E+05
 0.24849998E+02 -0.12056E+05
 0.24899998E+02 -0.23138E+05
 0.24949999E+02 -0.18824E+05
 0.24999998E+02 -0.16409E+05
 0.25049999E+02 -0.12508E+05
 0.25099998E+02 -0.13605E+05
 0.25149998E+02 -0.14028E+05
 0.25199999E+02 -0.15736E+05
 0.25249998E+02 -0.22866E+05
 0.25299999E+02 -0.22340E+05
 0.25349998E+02 -0.17467E+05
 0.25399998E+02 -0.83395E+04
 0.25449999E+02 -0.14921E+05
 0.25499998E+02 -0.18462E+05
 0.25549999E+02 -0.15113E+05
 0.25599998E+02 -0.17608E+05
 0.25649998E+02 -0.18926E+05
 0.25699999E+02 -0.10423E+05
 0.25749998E+02 -0.11395E+05
 0.25799999E+02 -0.22964E+05
 0.25849998E+02 -0.22406E+05
 0.25899998E+02 -0.11892E+05
 0.25949999E+02 -0.15787E+05
 0.25999998E+02 -0.27289E+05
 0.26049999E+02 -0.18567E+05
 0.26099998E+02 -0.15668E+05
 0.26149998E+02 -0.17253E+05
 0.26199999E+02 -0.90690E+04
 0.26249998E+02 -0.88592E+04
 0.26299999E+02 -0.18541E+05
 0.26349998E+02 -0.16047E+05
 0.26399998E+02 -0.13346E+05
 0.26449999E+02 -0.18347E+05
 0.26499998E+02 -0.17868E+05
 0.26549999E+02 -0.22372E+05
 0.26599998E+02 -0.20712E+05
 0.26649998E+02 -0.14580E+05
 0.26699999E+02 -0.14223E+05
 0.26749998E+02 -0.16517E+05
 0.26799999E+02 -0.13677E+05
 0.26849998E+02 -0.14026E+05
 0.26899998E+02 -0.17530E+05
 0.26949999E+02 -0.15835E+05
 0.26999998E+02 -0.17712E+05
 0.27049997E+02 -0.18446E+05
 0.27099998E+02 -0.17083E+05
 0.27149998E+02 -0.12788E+05
 0.27199999E+02 -0.13314E+05
 0.27249998E+02 -0.20079E+05
 0.27299997E+02 -0.25149E+05
 0.27349998E+02 -0.23287E+05
 0.27399998E+02 -0.13544E+05
 0.27449999E+02 -0.52404E+04
 0.27499998E+02 -0.11678E+05
 0.27549997E+02 -0.12869E+05
 0.27599998E+02 -0.10649E+05
 0.27649998E+02 -0.18300E+05
 0.27699999E+02 -0.27051E+05
 0.27749998E+02 -0.28326E+05
 0.27799997E+02 -0.21525E+05
 0.27849998E+02 -0.14594E+05
 0.27899998E+02 -0.43700E+04
 0.27949999E+02 -0.89044E+04
 0.27999998E+02 -0.16458E+05
 0.28049997E+02 -0.21629E+05
 0.28099998E+02 -0.21798E+05
 0.28149998E+02 -0.16012E+05
 0.28199999E+02 -0.19225E+05
 0.28249998E+02 -0.18330E+05
 0.28299997E+02 -0.15621E+05
 0.28349998E+02 -0.12734E+05
 0.28399998E+02 -0.92275E+04
 0.28449999E+02 -0.19274E+05
 0.28499998E+02 -0.25425E+05
 0.28549997E+02 -0.18016E+05
 0.28599998E+02 -0.98179E+04
 0.28649998E+02 -0.10300E+05
 0.28699999E+02 -0.15456E+05
 0.28749998E+02 -0.19171E+05
 0.28799997E+02 -0.15689E+05
 0.28849998E+02 -0.13854E+05
 0.28899998E+02 -0.20944E+05
 0.28949999E+02 -0.21273E+05
 0.28999998E+02 -0.16505E+05
 0.29049997E+02 -0.15638E+05
 0.29099998E+02 -0.17417E+05
 0.29149998E+02 -0.11936E+05
 0.29199999E+02 -0.15819E+05
 0.29249998E+02 -0.22876E+05
 0.29299997E+02 -0.18062E+05
 0.29349998E+02 -0.18804E+05
 0.29399998E+02 -0.12715E+05
 0.29449999E+02 -0.10338E+05
 0.29499998E+02 -0.20846E+05
 0.29549997E+02 -0.15854E+05
 0.29599998E+02 -0.13571E+05
 0.29649998E+02 -0.17682E+05
 0.29699999E+02 -0.12034E+05
 0.29749998E+02 -0.15300E+05
 0.29799997E+02 -0.24359E+05
 0.29849998E+02 -0.22803E+05
 0.29899998E+02 -0.15506E+05
 0.29949999E+02 -0.12701E+05
 0.29999998E+02 -0.14198E+05
 0.30049999E+02 -0.12954E+05
 0.30099998E+02 -0.16481E+05
 0.30149998E+02 -0.17623E+05
 0.30199997E+02 -0.17163E+05
 0.30249996E+02 -0.14872E+05
 0.30299999E+02 -0.12211E+05
 0.30349998E+02 -0.17707E+05
 0.30399998E+02 -0.18437E+05
 0.30449997E+02 -0.18451E+05
 0.30499996E+02 -0.15012E+05
 0.30549999E+02 -0.20948E+05
 0.30599998E+02 -0.25883E+05
 0.30649998E+02 -0.10086E+05
 0.30699997E+02 -0.10255E+05
 0.30749996E+02 -0.18493E+05
 0.30799999E+02 -0.19594E+05
 0.30849998E+02 -0.14702E+05
 0.30899998E+02 -0.98644E+04
 0.30949997E+02 -0.15591E+05
 0.30999996E+02 -0.23520E+05
 0.31049999E+02 -0.23778E+05
 0.31099998E+02 -0.10830E+05
 0.31149998E+02 -0.79726E+04
 0.31199997E+02 -0.19551E+05
 0.31249996E+02 -0.20255E+05
 0.31299999E+02 -0.17595E+05
 0.31349998E+02 -0.19116E+05
 0.31399998E+02 -0.15520E+05
 0.31449997E+02 -0.93241E+04
 0.31499996E+02 -0.10917E+05
 0.31549999E+02 -0.18666E+05
 0.31599998E+02 -0.17299E+05
 0.31649998E+02 -0.20211E+05
 0.31699997E+02 -0.17717E+05
 0.31749996E+02 -0.17487E+05
 0.31799999E+02 -0.21412E+05
 0.31849998E+02 -0.19597E+05
 0.31899998E+02 -0.21454E+05
 0.31949997E+02 -0.10989E+05
 0.31999996E+02 -0.51112E+04
 0.32049999E+02 -0.68516E+04
 0.32099998E+02 -0.65361E+04
 0.32149998E+02 -0.21393E+05
 0.32199997E+02 -0.29207E+05
 0.32249996E+02 -0.23337E+05
 0.32299999E+02 -0.22321E+05
 0.32349998E+02 -0.22529E+05
 0.32399998E+02 -0.25344E+05
 0.32449997E+02 -0.17704E+05
 0.32499996E+02 -0.97448E+04
 0.32549999E+02 -0.10470E+05
 0.32599998E+02 -0.14435E+05
 0.32649998E+02 -0.98953E+04
 0.32699997E+02 -0.63208E+04
 0.32749996E+02 -0.11168E+05
 0.32799999E+02 -0.18765E+05
 0.32849998E+02 -0.34234E+05
 0.32899998E+02 -0.37859E+05
 0.32949997E+02 -0.25816E+05
 0.32999996E+02 -0.55044E+04
 0.33049999E+02  0.65516E+04
 0.33099998E+02 -0.28113E+04
 0.33149998E+02 -0.23539E+05
 0.33199997E+02 -0.32572E+05
 0.33249996E+02 -0.32944E+05
 0.33299999E+02 -0.38253E+05
 0.33349998E+02 -0.27040E+05
 0.33399998E+02  0.26722E+04
 0.33449997E+02  0.29153E+05
 0.33499996E+02  0.22864E+05
 0.33549999E+02 -0.15123E+05
 0.33599998E+02 -0.37920E+05
 0.33649998E+02 -0.33960E+05
 0.33699997E+02 -0.16673E+05
 0.33749996E+02 -0.12241E+05
 0.33799999E+02 -0.29527E+05
 0.33849998E+02 -0.26919E+05
 0.33899998E+02 -0.92987E+04
 0.33949997E+02 -0.10609E+05
 0.33999996E+02 -0.15436E+05
 0.34049999E+02 -0.20254E+05
 0.34099998E+02 -0.18612E+05
 0.34149998E+02 -0.88895E+04
 0.34199997E+02  0.11939E+04
 0.34249996E+02  0.10466E+05
 0.34299999E+02 -0.25057E+05
 0.34349998E+02 -0.61888E+05
 0.34399998E+02 -0.32577E+05
 0.34449997E+02 -0.48160E+04
 0.34499996E+02 -0.14447E+05
 0.34549999E+02 -0.28845E+05
 0.34599998E+02 -0.22953E+05
 0.34649998E+02 -0.12112E+05
 0.34699997E+02  0.21046E+04
 0.34749996E+02  0.58209E+04
 0.34799999E+02 -0.19739E+05
 0.34849998E+02 -0.30098E+05
 0.34899998E+02 -0.41411E+05
 0.34949997E+02 -0.40028E+05
 0.34999996E+02 -0.15365E+05
 0.35049999E+02  0.28578E+04
 0.35099998E+02  0.12831E+05
 0.35149998E+02  0.20438E+05
 0.35199997E+02  0.24189E+05
 0.35249996E+02 -0.25991E+05
 0.35299999E+02 -0.65827E+05
 0.35349998E+02 -0.34832E+05
 0.35399998E+02 -0.92655E+04
 0.35449997E+02 -0.13174E+05
 0.35499996E+02 -0.20105E+05
 0.35549999E+02 -0.91786E+04
 0.35599998E+02 -0.14882E+05
 0.35649998E+02 -0.33826E+05
 0.35699997E+02 -0.36123E+05
 0.35749996E+02 -0.34259E+05
 0.35799999E+02 -0.24750E+05
 0.35849998E+02 -0.17439E+05
 0.35899998E+02 -0.18377E+05
 0.35949997E+02 -0.24480E+05
 0.35999996E+02  0.14025E+05
 0.36049999E+02  0.40083E+05
 0.36099998E+02 -0.21238E+04
 0.36149998E+02 -0.47812E+05
 0.36199997E+02 -0.49334E+05
 0.36249996E+02 -0.15596E+05
 0.36299999E+02 -0.66866E+04
 0.36349998E+02 -0.10108E+05
 0.36399998E+02  0.34005E+04
 0.36449997E+02  0.33618E+05
 0.36499996E+02  0.10171E+05
 0.36549999E+02 -0.49617E+05
 0.36599998E+02 -0.73272E+05
 0.36649998E+02 -0.62034E+05
 0.36699997E+02 -0.33491E+05
 0.36749996E+02 -0.18504E+04
 0.36799999E+02  0.20308E+05
 0.36849998E+02  0.10447E+05
 0.36899998E+02  0.32363E+04
 0.36949997E+02 -0.76789E+04
 0.36999996E+02 -0.21672E+05
 0.37049999E+02 -0.40191E+05
 0.37099998E+02 -0.59457E+05
 0.37149998E+02 -0.32760E+05
 0.37199997E+02 -0.13836E+04
 0.37249996E+02  0.11111E+05
 0.37299999E+02  0.61918E+04
 0.37349998E+02 -0.94384E+04
 0.37399998E+02 -0.15189E+05
 0.37449997E+02 -0.25844E+05
 0.37499996E+02 -0.33227E+05
 0.37549999E+02 -0.41217E+05
 0.37599998E+02 -0.37374E+05
 0.37649998E+02 -0.16228E+05
 0.37699997E+02  0.15613E+05
 0.37749996E+02  0.19402E+05
 0.37799999E+02 -0.20541E+04
 0.37849998E+02 -0.34291E+05
 0.37899998E+02 -0.52809E+05
 0.37949997E+02 -0.37504E+05
 0.37999996E+02 -0.39120E+05
 0.38049999E+02 -0.21203E+05
 0.38099998E+02  0.17910E+05
 0.38149998E+02  0.15781E+05
 0.38199997E+02 -0.41301E+04
 0.38249996E+02  0.11216E+03
 0.38299999E+02 -0.19252E+05
 0.38349998E+02 -0.33564E+05
 0.38399998E+02 -0.20608E+05
 0.38449997E+02 -0.11668E+05
 0.38499996E+02 -0.21137E+05
 0.38549999E+02 -0.25482E+05
 0.38599998E+02  0.56248E+04
 0.38649998E+02 -0.36233E+04
 0.38699997E+02 -0.21506E+05
 0.38749996E+02 -0.81889E+04
 0.38799999E+02 -0.19419E+05
 0.38849998E+02 -0.30905E+05
 0.38899998E+02 -0.27447E+05
 0.38949997E+02 -0.21741E+05
 0.38999996E+02 -0.32625E+05
 0.39049999E+02 -0.36620E+05
 0.39099998E+02 -0.15585E+05
 0.39149998E+02 -0.15133E+05
 0.39199997E+02 -0.13717E+05
 0.39249996E+02 -0.10441E+05
 0.39299999E+02 -0.17675E+05
 0.39349998E+02 -0.35917E+05
 0.39399998E+02 -0.29575E+05
 0.39449997E+02 -0.34067E+04
 0.39499996E+02 -0.56077E+04
 0.39549999E+02 -0.53948E+04
 0.39599998E+02  0.52320E+04
 0.39649998E+02 -0.12847E+04
 0.39699997E+02 -0.21347E+05
 0.39749996E+02 -0.29966E+05
 0.39799999E+02 -0.34277E+05
 0.39849998E+02 -0.16115E+05
 0.39899998E+02 -0.25333E+04
 0.39949997E+02 -0.53790E+04
 0.39999996E+02 -0.52326E+04
 0.40049999E+02 -0.11292E+05
 0.40099998E+02 -0.22253E+05
 0.40149998E+02 -0.30154E+05
 0.40199997E+02 -0.25149E+05
 0.40249996E+02 -0.14069E+05
 0.40299999E+02 -0.12030E+05
 0.40349998E+02 -0.33017E+05
 0.40399998E+02 -0.39396E+05
 0.40449997E+02 -0.22186E+05
 0.40499996E+02 -0.21673E+05
 0.40549999E+02 -0.25100E+05
 0.40599998E+02 -0.77378E+04
 0.40649998E+02  0.92158E+02
 0.40699997E+02 -0.46278E+04
 0.40749996E+02 -0.93673E+04
 0.40799999E+02 -0.17356E+05
 0.40849998E+02 -0.19663E+05
 0.40899998E+02 -0.22513E+05
 0.40949997E+02 -0.16608E+05
 0.40999996E+02 -0.45175E+04
 0.41049999E+02 -0.17874E+03
 0.41099998E+02 -0.34040E+04
 0.41149998E+02 -0.12506E+05
 0.41199997E+02 -0.21508E+05
 0.41249996E+02 -0.31502E+05
 0.41299999E+02 -0.26788E+05
 0.41349998E+02 -0.16976E+05
 0.41399998E+02 -0.10340E+05
 0.41449997E+02 -0.89383E+04
 0.41499996E+02 -0.83034E+04
 0.41549999E+02 -0.12398E+05
 0.41599998E+02 -0.25103E+05
 0.41649998E+02 -0.30357E+05
 0.41699997E+02 -0.27276E+05
 0.41749996E+02 -0.18997E+05
 0.41799999E+02 -0.56978E+04
 0.41849998E+02  0.21146E+04
 0.41899998E+02 -0.15352E+05
 0.41949997E+02 -0.21325E+05
 0.41999996E+02 -0.18021E+05
 0.42049999E+02 -0.24797E+05
 0.42099998E+02 -0.15632E+05
 0.42149998E+02 -0.12146E+05
 0.42199997E+02 -0.16758E+05
 0.42249996E+02 -0.88538E+04
 0.42299999E+02 -0.18021E+05
 0.42349998E+02 -0.45133E+05
 0.42399998E+02 -0.51018E+05
 0.42449997E+02 -0.23081E+05
 0.42499996E+02 -0.11610E+03
 0.42549999E+02  0.31599E+04
 0.42599998E+02 -0.32601E+03
 0.42649998E+02 -0.18596E+05
 0.42699997E+02 -0.29531E+05
 0.42749996E+02 -0.24123E+05
 0.42799995E+02 -0.16578E+05
 0.42849998E+02 -0.86849E+04
 0.42899998E+02  0.68431E+04
 0.42949997E+02 -0.27316E+04
 0.42999996E+02 -0.28537E+05
 0.43049995E+02 -0.24479E+05
 0.43099998E+02 -0.14113E+05
 0.43149998E+02 -0.16016E+05
 0.43199997E+02 -0.20646E+05
 0.43249996E+02 -0.12378E+05
 0.43299995E+02 -0.87471E+04
 0.43349998E+02 -0.15521E+05
 0.43399998E+02 -0.21191E+05
 0.43449997E+02 -0.23271E+05
 0.43499996E+02 -0.20460E+05
 0.43549995E+02 -0.20909E+05
 0.43599998E+02 -0.14857E+05
 0.43649998E+02 -0.10882E+05
 0.43699997E+02 -0.11876E+05
 0.43749996E+02 -0.11313E+05
 0.43799995E+02 -0.92639E+04
 0.43849998E+02 -0.11447E+05
 0.43899998E+02 -0.16201E+05
 0.43949997E+02 -0.23203E+05
 0.43999996E+02 -0.31401E+05
 0.44049995E+02 -0.29191E+05
 0.44099998E+02 -0.25737E+05
 0.44149998E+02 -0.16113E+05
 0.44199997E+02 -0.90227E+04
 0.44249996E+02 -0.16912E+05
 0.44299995E+02 -0.18754E+05
 0.44349998E+02 -0.14841E+05
 0.44399998E+02 -0.16681E+05
 0.44449997E+02 -0.81890E+04
 0.44499996E+02 -0.10673E+04
 0.44549995E+02 -0.80230E+04
 0.44599998E+02 -0.19521E+05
 0.44649998E+02 -0.30598E+05
 0.44699997E+02 -0.21106E+05
 0.44749996E+02 -0.17046E+05
 0.44799995E+02 -0.23181E+05
 0.44849998E+02 -0.10349E+05
 0.44899998E+02 -0.18759E+04
 0.44949997E+02 -0.10512E+05
 0.44999996E+02 -0.25555E+05
 0.45049995E+02 -0.25264E+05
 0.45099998E+02 -0.16375E+05
 0.45149998E+02 -0.13557E+05
 0.45199997E+02 -0.14306E+05
 0.45249996E+02 -0.14644E+05
 0.45299995E+02 -0.12159E+05
 0.45349998E+02 -0.21720E+05
 0.45399998E+02 -0.27327E+05
 0.45449997E+02 -0.17826E+05
 0.45499996E+02 -0.14071E+05
 0.45549995E+02 -0.12303E+05
 0.45599998E+02 -0.99204E+04
 0.45649998E+02 -0.15092E+05
 0.45699997E+02 -0.18333E+05
 0.45749996E+02 -0.25797E+05
 0.45799995E+02 -0.28916E+05
 0.45849998E+02 -0.19804E+05
 0.45899998E+02 -0.10669E+05
 0.45949997E+02 -0.75992E+04
 0.45999996E+02 -0.10540E+05
 0.46049995E+02 -0.18137E+05
 0.46099998E+02 -0.20635E+05
 0.46149998E+02 -0.12879E+05
 0.46199997E+02 -0.13657E+05
 0.46249996E+02 -0.24558E+05
 0.46299995E+02 -0.27666E+05
 0.46349998E+02 -0.20601E+05
 0.46399998E+02 -0.18034E+05
 0.46449997E+02 -0.16122E+05
 0.46499996E+02 -0.16403E+05
 0.46549995E+02 -0.17868E+05
 0.46599998E+02 -0.12267E+05
 0.46649998E+02 -0.45605E+04
 0.46699997E+02 -0.37407E+04
 0.46749996E+02 -0.12609E+05
 0.46799995E+02 -0.24146E+05
 0.46849998E+02 -0.26419E+05
 0.46899998E+02 -0.17866E+05
 0.46949997E+02 -0.92345E+04
 0.46999996E+02 -0.10650E+05
 0.47049995E+02 -0.14172E+05
 0.47099998E+02 -0.89831E+04
 0.47149998E+02 -0.78326E+04
 0.47199997E+02 -0.97457E+04
 0.47249996E+02 -0.12103E+05
 0.47299995E+02 -0.21814E+05
 0.47349998E+02 -0.25221E+05
 0.47399998E+02 -0.22496E+05
 0.47449997E+02 -0.23306E+05
 0.47499996E+02 -0.24753E+05
 0.47549995E+02 -0.23320E+05
 0.47599998E+02 -0.14222E+05
 0.47649998E+02 -0.11929E+05
 0.47699997E+02 -0.18593E+05
 0.47749996E+02 -0.18858E+05
 0.47799995E+02 -0.16022E+05
 0.47849998E+02 -0.20612E+05
 0.47899998E+02 -0.20646E+05
 0.47949997E+02 -0.86927E+04
 0.47999996E+02 -0.28409E+04
 0.48049995E+02 -0.41121E+04
 0.48099998E+02 -0.92079E+04
 0.48149998E+02 -0.21117E+05
 0.48199997E+02 -0.31734E+05
 0.48249996E+02 -0.29688E+05
 0.48299995E+02 -0.17043E+05
 0.48349998E+02 -0.89669E+04
 0.48399998E+02 -0.82483E+04
 0.48449997E+02 -0.11449E+05
 0.48499996E+02 -0.14613E+05
 0.48549995E+02 -0.19040E+05
 0.48599998E+02 -0.22520E+05
 0.48649998E+02 -0.22710E+05
 0.48699997E+02 -0.19163E+05
 0.48749996E+02 -0.16749E+05
 0.48799995E+02 -0.21276E+05
 0.48849998E+02 -0.20013E+05
 0.48899998E+02 -0.16192E+05
 0.48949997E+02 -0.15396E+05
 0.48999996E+02 -0.15159E+05
 0.49049995E+02 -0.17853E+05
 0.49099998E+02 -0.14761E+05
 0.49149998E+02 -0.13716E+05
 0.49199997E+02 -0.14644E+05
 0.49249996E+02 -0.12702E+05
 0.49299995E+02 -0.15622E+05
 0.49349998E+02 -0.18611E+05
 0.49399998E+02 -0.18503E+05
 0.49449997E+02 -0.16928E+05
 0.49499996E+02 -0.18652E+05
 0.49549995E+02 -0.15487E+05
 0.49599998E+02 -0.16704E+05
 0.49649998E+02 -0.18377E+05
 0.49699997E+02 -0.11784E+05
 0.49749996E+02 -0.11801E+05
 0.49799995E+02 -0.16557E+05
 0.49849998E+02 -0.21751E+05
 0.49899998E+02 -0.20161E+05
 0.49949997E+02 -0.14632E+05
 0.49999996E+02 -0.15003E+05
 0.50049995E+02 -0.17189E+05
 0.50099998E+02 -0.19998E+05
 0.50149998E+02 -0.16772E+05
 0.50199997E+02 -0.14127E+05
 0.50249996E+02 -0.15632E+05
 0.50299995E+02 -0.15405E+05
 0.50349998E+02 -0.13689E+05
 0.50399998E+02 -0.13148E+05
 0.50449997E+02 -0.18119E+05
 0.50499996E+02 -0.14582E+05
 0.50549995E+02 -0.96709E+04
 0.50599998E+02 -0.12166E+05
 0.50649998E+02 -0.18439E+05
 0.50699997E+02 -0.23846E+05
 0.50749996E+02 -0.22327E+05
 0.50799995E+02 -0.17438E+05
 0.50849998E+02 -0.11408E+05
 0.50899998E+02 -0.92444E+04
 0.50949997E+02 -0.10549E+05
 0.50999996E+02 -0.13260E+05
 0.51049995E+02 -0.18008E+05
 0.51099998E+02 -0.20685E+05
 0.51149998E+02 -0.22364E+05
 0.51199997E+02 -0.22845E+05
 0.51249996E+02 -0.22921E+05
 0.51299995E+02 -0.20653E+05
 0.51349998E+02 -0.13500E+05
 0.51399998E+02 -0.12811E+05
 0.51449997E+02 -0.18797E+05
 0.51499996E+02 -0.19945E+05
 0.51549995E+02 -0.13985E+05
 0.51599998E+02 -0.97782E+04
 0.51649998E+02 -0.16486E+05
 0.51699997E+02 -0.24459E+05
 0.51749996E+02 -0.22346E+05
 0.51799995E+02 -0.16192E+05
 0.51849998E+02 -0.10408E+05
 0.51899998E+02 -0.97990E+04
 0.51949997E+02 -0.13410E+05
 0.51999996E+02 -0.15431E+05
 0.52049995E+02 -0.14753E+05
 0.52099998E+02 -0.13098E+05
 0.52149998E+02 -0.16637E+05
 0.52199997E+02 -0.22765E+05
 0.52249996E+02 -0.24542E+05
 0.52299995E+02 -0.20909E+05
 0.52349998E+02 -0.17251E+05
 0.52399998E+02 -0.17089E+05
 0.52449997E+02 -0.17649E+05
 0.52499996E+02 -0.20081E+05
 0.52549995E+02 -0.19655E+05
 0.52599998E+02 -0.13623E+05
 0.52649998E+02 -0.11330E+05
 0.52699997E+02 -0.94829E+04
 0.52749996E+02 -0.10365E+05
 0.52799995E+02 -0.17727E+05
 0.52849998E+02 -0.20654E+05
 0.52899998E+02 -0.19083E+05
 0.52949997E+02 -0.17441E+05
 0.52999996E+02 -0.14418E+05
 0.53049995E+02 -0.13031E+05
 0.53099998E+02 -0.14456E+05
 0.53149998E+02 -0.12564E+05
 0.53199997E+02 -0.10470E+05
 0.53249996E+02 -0.15467E+05
 0.53299995E+02 -0.17623E+05
 0.53349998E+02 -0.17574E+05
 0.53399998E+02 -0.19162E+05
 0.53449997E+02 -0.16170E+05
 0.53499996E+02 -0.13028E+05
 0.53549995E+02 -0.10942E+05
 0.53599998E+02 -0.97890E+04
 0.53649998E+02 -0.14727E+05
 0.53699997E+02 -0.23176E+05
 0.53749996E+02 -0.22933E+05
 0.53799995E+02 -0.18985E+05
 0.53849998E+02 -0.17550E+05
 0.53899998E+02 -0.17315E+05
 0.53949997E+02 -0.19763E+05
 0.53999996E+02 -0.18265E+05
 0.54049995E+02 -0.18293E+05
 0.54099998E+02 -0.21112E+05
 0.54149998E+02 -0.17615E+05
 0.54199997E+02 -0.14401E+05
 0.54249996E+02 -0.16335E+05
 0.54299995E+02 -0.16932E+05
 0.54349998E+02 -0.16955E+05
 0.54399998E+02 -0.18990E+05
 0.54449997E+02 -0.19365E+05
 0.54499996E+02 -0.18561E+05
 0.54549995E+02 -0.18146E+05
 0.54599998E+02 -0.18291E+05
 0.54649998E+02 -0.17825E+05
 0.54699997E+02 -0.16235E+05
 0.54749996E+02 -0.11104E+05
 0.54799995E+02 -0.66579E+04
 0.54849998E+02 -0.77760E+04
 0.54899998E+02 -0.11439E+05
 0.54949997E+02 -0.17420E+05
 0.54999996E+02 -0.23224E+05
 0.55049995E+02 -0.25471E+05
 0.55099998E+02 -0.21385E+05
 0.55149998E+02 -0.15393E+05
 0.55199997E+02 -0.12437E+05
 0.55249996E+02 -0.14830E+05
 0.55299995E+02 -0.16552E+05
 0.55349998E+02 -0.14253E+05
 0.55399998E+02 -0.13081E+05
 0.55449997E+02 -0.13355E+05
 0.55499996E+02 -0.16728E+05
 0.55549995E+02 -0.20109E+05
 0.55599998E+02 -0.20905E+05
 0.55649998E+02 -0.19010E+05
 0.55699997E+02 -0.19085E+05
 0.55749996E+02 -0.20055E+05
 0.55799995E+02 -0.17297E+05
 0.55849995E+02 -0.14481E+05
 0.55899998E+02 -0.14123E+05
 0.55949997E+02 -0.12710E+05
 0.55999996E+02 -0.10499E+05
 0.56049995E+02 -0.13050E+05
 0.56099995E+02 -0.18346E+05
 0.56149998E+02 -0.21357E+05
 0.56199997E+02 -0.20064E+05
 0.56249996E+02 -0.17715E+05
 0.56299995E+02 -0.17465E+05
 0.56349995E+02 -0.16129E+05
 0.56399998E+02 -0.14177E+05
 0.56449997E+02 -0.17634E+05
 0.56499996E+02 -0.21244E+05
 0.56549995E+02 -0.18284E+05
 0.56599995E+02 -0.13456E+05
 0.56649998E+02 -0.11518E+05
 0.56699997E+02 -0.13386E+05
 0.56749996E+02 -0.17247E+05
 0.56799995E+02 -0.17245E+05
 0.56849995E+02 -0.14939E+05
 0.56899998E+02 -0.14925E+05
 0.56949997E+02 -0.15257E+05
 0.56999996E+02 -0.15804E+05
 0.57049995E+02 -0.16100E+05
 0.57099995E+02 -0.14625E+05
 0.57149998E+02 -0.14623E+05
 0.57199997E+02 -0.16717E+05
 0.57249996E+02 -0.18472E+05
 0.57299995E+02 -0.21502E+05
 0.57349995E+02 -0.22547E+05
 0.57399998E+02 -0.18230E+05
 0.57449997E+02 -0.15652E+05
 0.57499996E+02 -0.15919E+05
 0.57549995E+02 -0.13874E+05
 0.57599995E+02 -0.13421E+05
 0.57649998E+02 -0.13817E+05
 0.57699997E+02 -0.15710E+05
 0.57749996E+02 -0.18414E+05
 0.57799995E+02 -0.19557E+05
 0.57849995E+02 -0.20148E+05
 0.57899998E+02 -0.20123E+05
 0.57949997E+02 -0.18563E+05
 0.57999996E+02 -0.16030E+05
 0.58049995E+02 -0.15823E+05
 0.58099995E+02 -0.15133E+05
 0.58149998E+02 -0.12033E+05
 0.58199997E+02 -0.11715E+05
 0.58249996E+02 -0.16585E+05
 0.58299995E+02 -0.18674E+05
 0.58349995E+02 -0.16668E+05
 0.58399998E+02 -0.15384E+05
 0.58449997E+02 -0.16554E+05
 0.58499996E+02 -0.17337E+05
 0.58549995E+02 -0.17563E+05
 0.58599995E+02 -0.17833E+05
 0.58649998E+02 -0.16934E+05
 0.58699997E+02 -0.15763E+05
 0.58749996E+02 -0.13870E+05
 0.58799995E+02 -0.13814E+05
 0.58849995E+02 -0.15220E+05
 0.58899998E+02 -0.15696E+05
 0.58949997E+02 -0.16187E+05
 0.58999996E+02 -0.17642E+05
 0.59049995E+02 -0.19086E+05
 0.59099995E+02 -0.17376E+05
 0.59149998E+02 -0.15810E+05
 0.59199997E+02 -0.16325E+05
 0.59249996E+02 -0.14380E+05
 0.59299995E+02 -0.13448E+05
 0.59349995E+02 -0.14923E+05
 0.59399998E+02 -0.17094E+05
 0.59449997E+02 -0.17884E+05
 0.59499996E+02 -0.15932E+05
 0.59549995E+02 -0.16869E+05
 0.59599995E+02 -0.19317E+05
 0.59649998E+02 -0.18370E+05
 0.59699997E+02 -0.19026E+05
 0.59749996E+02 -0.19688E+05
 0.59799995E+02 -0.17298E+05
 0.59849995E+02 -0.16180E+05
 0.59899998E+02 -0.14780E+05
 0.59949997E+02 -0.14154E+05
 0.59999996E+02 -0.19200E+05
 0.60049995E+02 -0.26090E+05
 0.60099995E+02 -0.26025E+05
 0.60149998E+02 -0.20615E+05
 0.60199997E+02 -0.15602E+05
 0.60249996E+02 -0.11819E+05
 0.60299995E+02 -0.95391E+04
 0.60349995E+02 -0.11074E+05
 0.60399998E+02 -0.12062E+05
 0.60449997E+02 -0.11957E+05
 0.60499996E+02 -0.14899E+05
 0.60549995E+02 -0.17714E+05
 0.60599995E+02 -0.19639E+05
 0.60649998E+02 -0.18613E+05
 0.60699997E+02 -0.16039E+05
 0.60749996E+02 -0.14001E+05
 0.60799995E+02 -0.12850E+05
 0.60849995E+02 -0.14630E+05
 0.60899998E+02 -0.15930E+05
 0.60949997E+02 -0.16686E+05
 0.60999996E+02 -0.17797E+05
 0.61049995E+02 -0.17826E+05
 0.61099995E+02 -0.18119E+05
 0.61149998E+02 -0.18410E+05
 0.61199997E+02 -0.18285E+05
 0.61249996E+02 -0.17278E+05
 0.61299995E+02 -0.15896E+05
 0.61349995E+02 -0.13882E+05
 0.61399998E+02 -0.13311E+05
 0.61449997E+02 -0.15699E+05
 0.61499996E+02 -0.17844E+05
 0.61549995E+02 -0.18867E+05
 0.61599995E+02 -0.17885E+05
 0.61649998E+02 -0.17537E+05
 0.61699997E+02 -0.18313E+05
 0.61749996E+02 -0.16207E+05
 0.61799995E+02 -0.14518E+05
 0.61849995E+02 -0.15756E+05
 0.61899998E+02 -0.16681E+05
 0.61949997E+02 -0.16476E+05
 0.61999996E+02 -0.15831E+05
 0.62049995E+02 -0.14651E+05
 0.62099998E+02 -0.14558E+05
 0.62149994E+02 -0.15907E+05
 0.62199997E+02 -0.16032E+05
 0.62249992E+02 -0.16097E+05
 0.62299995E+02 -0.18144E+05
 0.62349998E+02 -0.19451E+05
 0.62399994E+02 -0.19374E+05
 0.62449997E+02 -0.19346E+05
 0.62499992E+02 -0.18468E+05
 0.62549995E+02 -0.15648E+05
 0.62599998E+02 -0.14030E+05
 0.62649994E+02 -0.14065E+05
 0.62699997E+02 -0.14883E+05
 0.62749992E+02 -0.15615E+05
 0.62799995E+02 -0.15374E+05
 0.62849998E+02 -0.17534E+05
 0.62899994E+02 -0.18354E+05
 0.62949997E+02 -0.16879E+05
 0.62999992E+02 -0.17212E+05
 0.63049995E+02 -0.16352E+05
 0.63099998E+02 -0.15551E+05
 0.63149994E+02 -0.16297E+05
 0.63199997E+02 -0.16262E+05
 0.63249992E+02 -0.16065E+05
 0.63299995E+02 -0.16273E+05
 0.63349998E+02 -0.17488E+05
 0.63399994E+02 -0.18149E+05
 0.63449997E+02 -0.18579E+05
 0.63499992E+02 -0.18246E+05
 0.63549995E+02 -0.16761E+05
 0.63599998E+02 -0.15936E+05
 0.63649994E+02 -0.15990E+05
 0.63699997E+02 -0.15984E+05
 0.63749992E+02 -0.14132E+05
 0.63799995E+02 -0.14745E+05
 0.63849998E+02 -0.17329E+05
 0.63899994E+02 -0.17465E+05
 0.63949997E+02 -0.15693E+05
 0.63999992E+02 -0.14539E+05
 0.64049995E+02 -0.16767E+05
 0.64099998E+02 -0.17809E+05
 0.64149994E+02 -0.16217E+05
 0.64199997E+02 -0.15120E+05
 0.64249992E+02 -0.14327E+05
 0.64299995E+02 -0.13578E+05
 0.64349998E+02 -0.13728E+05
 0.64399994E+02 -0.14895E+05
 0.64449997E+02 -0.15070E+05
 0.64499992E+02 -0.13716E+05
 0.64549995E+02 -0.12837E+05
 0.64599998E+02 -0.15131E+05
 0.64649994E+02 -0.17762E+05
 0.64699997E+02 -0.18353E+05
 0.64749992E+02 -0.19218E+05
 0.64799995E+02 -0.19766E+05
 0.64849998E+02 -0.19640E+05
 0.64899994E+02 -0.19541E+05
 0.64949997E+02 -0.20408E+05
 0.64999992E+02 -0.21142E+05
 0.65049995E+02 -0.19480E+05
 0.65099998E+02 -0.17662E+05
 0.65149994E+02 -0.15010E+05
 0.65199997E+02 -0.12710E+05
 0.65249992E+02 -0.13580E+05
 0.65299995E+02 -0.14130E+05
 0.65349998E+02 -0.14807E+05
 0.65399994E+02 -0.16424E+05
 0.65449997E+02 -0.18100E+05
 0.65499992E+02 -0.18920E+05
 0.65549995E+02 -0.18389E+05
 0.65599998E+02 -0.18138E+05
 0.65649994E+02 -0.16992E+05
 0.65699997E+02 -0.15525E+05
 0.65749992E+02 -0.15166E+05
 0.65799995E+02 -0.16759E+05
 0.65849998E+02 -0.17127E+05
 0.65899994E+02 -0.14946E+05
 0.65949997E+02 -0.13638E+05
 0.65999992E+02 -0.12650E+05
 0.66049995E+02 -0.12530E+05
 0.66099998E+02 -0.15022E+05
 0.66149994E+02 -0.17415E+05
 0.66199997E+02 -0.16837E+05
 0.66249992E+02 -0.17407E+05
 0.66299995E+02 -0.19641E+05
 0.66349998E+02 -0.19301E+05
 0.66399994E+02 -0.17620E+05
 0.66449997E+02 -0.15972E+05
 0.66499992E+02 -0.15348E+05
 0.66549995E+02 -0.16552E+05
 0.66599998E+02 -0.18132E+05
 0.66649994E+02 -0.19335E+05
 0.66699997E+02 -0.19376E+05
 0.66749992E+02 -0.18072E+05
 0.66799995E+02 -0.16550E+05
 0.66849998E+02 -0.15510E+05
 0.66899994E+02 -0.15860E+05
 0.66949997E+02 -0.16408E+05
 0.66999992E+02 -0.16153E+05
 0.67049995E+02 -0.17321E+05
 0.67099998E+02 -0.18035E+05
 0.67149994E+02 -0.17489E+05
 0.67199997E+02 -0.15994E+05
 0.67249992E+02 -0.15535E+05
 0.67299995E+02 -0.14921E+05
 0.67349998E+02 -0.13938E+05
 0.67399994E+02 -0.15026E+05
 0.67449997E+02 -0.15611E+05
 0.67499992E+02 -0.16394E+05
 0.67549995E+02 -0.17237E+05
 0.67599998E+02 -0.19077E+05
 0.67649994E+02 -0.19613E+05
 0.67699997E+02 -0.18184E+05
 0.67749992E+02 -0.16151E+05
 0.67799995E+02 -0.14307E+05
 0.67849998E+02 -0.12842E+05
 0.67899994E+02 -0.13745E+05
 0.67949997E+02 -0.15360E+05
 0.67999992E+02 -0.14361E+05
 0.68049995E+02 -0.14601E+05
 0.68099998E+02 -0.15931E+05
 0.68149994E+02 -0.17648E+05
 0.68199997E+02 -0.17998E+05
 0.68249992E+02 -0.18209E+05
 0.68299995E+02 -0.18955E+05
 0.68349998E+02 -0.19387E+05
 0.68399994E+02 -0.19147E+05
 0.68449997E+02 -0.18131E+05
 0.68499992E+02 -0.16603E+05
 0.68549995E+02 -0.15713E+05
 0.68599998E+02 -0.15281E+05
 0.68649994E+02 -0.14820E+05
 0.68699997E+02 -0.15653E+05
 0.68749992E+02 -0.15116E+05
 0.68799995E+02 -0.14417E+05
 0.68849998E+02 -0.15192E+05
 0.68899994E+02 -0.16086E+05
 0.68949997E+02 -0.15914E+05
 0.68999992E+02 -0.14818E+05
 0.69049995E+02 -0.14878E+05
 0.69099998E+02 -0.16133E+05
 0.69149994E+02 -0.17395E+05
 0.69199997E+02 -0.18532E+05
 0.69249992E+02 -0.18649E+05
 0.69299995E+02 -0.18250E+05
 0.69349998E+02 -0.17764E+05
 0.69399994E+02 -0.16736E+05
 0.69449997E+02 -0.16884E+05
 0.69499992E+02 -0.17451E+05
 0.69549995E+02 -0.17451E+05
 0.69599998E+02 -0.16886E+05
 0.69649994E+02 -0.15597E+05
 0.69699997E+02 -0.13949E+05
 0.69749992E+02 -0.13594E+05
 0.69799995E+02 -0.14414E+05
 0.69849998E+02 -0.15099E+05
 0.69899994E+02 -0.16484E+05
 0.69949997E+02 -0.17792E+05
 0.69999992E+02 -0.18201E+05
 0.70049995E+02 -0.18106E+05
 0.70099998E+02 -0.17010E+05
 0.70149994E+02 -0.15660E+05
 0.70199997E+02 -0.14868E+05
 0.70249992E+02 -0.15284E+05
 0.70299995E+02 -0.16689E+05
 0.70349998E+02 -0.16490E+05
 0.70399994E+02 -0.15952E+05
 0.70449997E+02 -0.16554E+05
 0.70499992E+02 -0.17350E+05
 0.70549995E+02 -0.17933E+05
 0.70599998E+02 -0.17210E+05
 0.70649994E+02 -0.15643E+05
 0.70699997E+02 -0.15005E+05
 0.70749992E+02 -0.15795E+05
 0.70799995E+02 -0.17028E+05
 0.70849998E+02 -0.17135E+05
 0.70899994E+02 -0.17127E+05
 0.70949997E+02 -0.17752E+05
 0.70999992E+02 -0.18088E+05
 0.71049995E+02 -0.17742E+05
 0.71099998E+02 -0.18258E+05
 0.71149994E+02 -0.18893E+05
 0.71199997E+02 -0.18524E+05
 0.71249992E+02 -0.18192E+05
 0.71299995E+02 -0.17665E+05
 0.71349998E+02 -0.16478E+05
 0.71399994E+02 -0.14487E+05
 0.71449997E+02 -0.13062E+05
 0.71499992E+02 -0.12703E+05
 0.71549995E+02 -0.13818E+05
 0.71599998E+02 -0.15417E+05
 0.71649994E+02 -0.15435E+05
 0.71699997E+02 -0.15450E+05
 0.71749992E+02 -0.16571E+05
 0.71799995E+02 -0.16840E+05
 0.71849998E+02 -0.16824E+05
 0.71899994E+02 -0.17092E+05
 0.71949997E+02 -0.16737E+05
 0.71999992E+02 -0.16018E+05
 0.72049995E+02 -0.15999E+05
 0.72099998E+02 -0.16567E+05
 0.72149994E+02 -0.17530E+05
 0.72199997E+02 -0.17552E+05
 0.72249992E+02 -0.16751E+05
 0.72299995E+02 -0.17413E+05
 0.72349998E+02 -0.17871E+05
 0.72399994E+02 -0.17906E+05
 0.72449997E+02 -0.18384E+05
 0.72499992E+02 -0.17998E+05
 0.72549995E+02 -0.16305E+05
 0.72599998E+02 -0.15933E+05
 0.72649994E+02 -0.16524E+05
 0.72699997E+02 -0.16160E+05
 0.72749992E+02 -0.15192E+05
 0.72799995E+02 -0.14787E+05
 0.72849998E+02 -0.14815E+05
 0.72899994E+02 -0.15016E+05
 0.72949997E+02 -0.15042E+05
 0.72999992E+02 -0.14787E+05
 0.73049995E+02 -0.15493E+05
 0.73099998E+02 -0.16325E+05
 0.73149994E+02 -0.16403E+05
 0.73199997E+02 -0.16226E+05
 0.73249992E+02 -0.16771E+05
 0.73299995E+02 -0.17561E+05
 0.73349998E+02 -0.18670E+05
 0.73399994E+02 -0.18579E+05
 0.73449997E+02 -0.16341E+05
 0.73499992E+02 -0.14556E+05
 0.73549995E+02 -0.14779E+05
 0.73599998E+02 -0.16199E+05
 0.73649994E+02 -0.16859E+05
 0.73699997E+02 -0.17435E+05
 0.73749992E+02 -0.18247E+05
 0.73799995E+02 -0.18453E+05
 0.73849998E+02 -0.18150E+05
 0.73899994E+02 -0.17530E+05
 0.73949997E+02 -0.17368E+05
 0.73999992E+02 -0.17887E+05
 0.74049995E+02 -0.18730E+05
 0.74099998E+02 -0.18033E+05
 0.74149994E+02 -0.16333E+05
 0.74199997E+02 -0.14656E+05
 0.74249992E+02 -0.14013E+05
 0.74299995E+02 -0.14569E+05
 0.74349998E+02 -0.14963E+05
 0.74399994E+02 -0.15846E+05
 0.74449997E+02 -0.17168E+05
 0.74499992E+02 -0.18726E+05
 0.74549995E+02 -0.19120E+05
 0.74599998E+02 -0.18588E+05
 0.74649994E+02 -0.18560E+05
 0.74699997E+02 -0.18407E+05
 0.74749992E+02 -0.17232E+05
 0.74799995E+02 -0.15628E+05
 0.74849998E+02 -0.14124E+05
 0.74899994E+02 -0.13681E+05
 0.74949997E+02 -0.14503E+05
 0.74999992E+02 -0.14289E+05
 0.75049995E+02 -0.13803E+05
 0.75099998E+02 -0.14444E+05
 0.75149994E+02 -0.15178E+05
 0.75199997E+02 -0.15691E+05
 0.75249992E+02 -0.15981E+05
 0.75299995E+02 -0.16009E+05
 0.75349998E+02 -0.16148E+05
 0.75399994E+02 -0.15929E+05
 0.75449997E+02 -0.15272E+05
 0.75499992E+02 -0.15161E+05
 0.75549995E+02 -0.15502E+05
 0.75599998E+02 -0.16420E+05
 0.75649994E+02 -0.17304E+05
 0.75699997E+02 -0.17249E+05
 0.75749992E+02 -0.17327E+05
 0.75799995E+02 -0.17436E+05
 0.75849998E+02 -0.17770E+05
 0.75899994E+02 -0.17865E+05
 0.75949997E+02 -0.17726E+05
 0.75999992E+02 -0.17744E+05
 0.76049995E+02 -0.17187E+05
 0.76099998E+02 -0.17103E+05
 0.76149994E+02 -0.17772E+05
 0.76199997E+02 -0.17793E+05
 0.76249992E+02 -0.16672E+05
 0.76299995E+02 -0.15578E+05
 0.76349998E+02 -0.15425E+05
 0.76399994E+02 -0.16245E+05
 0.76449997E+02 -0.17090E+05
 0.76499992E+02 -0.17594E+05
 0.76549995E+02 -0.18042E+05
 0.76599998E+02 -0.18066E+05
 0.76649994E+02 -0.17542E+05
 0.76699997E+02 -0.16334E+05
 0.76749992E+02 -0.15252E+05
 0.76799995E+02 -0.16143E+05
 0.76849998E+02 -0.17338E+05
 0.76899994E+02 -0.16482E+05
 0.76949997E+02 -0.14314E+05
 0.76999992E+02 -0.13623E+05
 0.77049995E+02 -0.14421E+05
 0.77099998E+02 -0.15615E+05
 0.77149994E+02 -0.16864E+05
 0.77199997E+02 -0.18206E+05
 0.77249992E+02 -0.19030E+05
 0.77299995E+02 -0.18110E+05
 0.77349998E+02 -0.17199E+05
 0.77399994E+02 -0.16162E+05
 0.77449997E+02 -0.15506E+05
 0.77499992E+02 -0.15205E+05
 0.77549995E+02 -0.15207E+05
 0.77599998E+02 -0.15829E+05
 0.77649994E+02 -0.16653E+05
 0.77699997E+02 -0.17954E+05
 0.77749992E+02 -0.18317E+05
 0.77799995E+02 -0.16610E+05
 0.77849998E+02 -0.14677E+05
 0.77899994E+02 -0.14471E+05
 0.77949997E+02 -0.15385E+05
 0.77999992E+02 -0.16381E+05
 0.78049995E+02 -0.16667E+05
 0.78099998E+02 -0.16535E+05
 0.78149994E+02 -0.16396E+05
 0.78199997E+02 -0.16727E+05
 0.78249992E+02 -0.16846E+05
 0.78299995E+02 -0.16195E+05
 0.78349998E+02 -0.15767E+05
 0.78399994E+02 -0.16327E+05
 0.78449997E+02 -0.17255E+05
 0.78499992E+02 -0.17217E+05
 0.78549995E+02 -0.17121E+05
 0.78599998E+02 -0.17480E+05
 0.78649994E+02 -0.17416E+05
 0.78699997E+02 -0.16399E+05
 0.78749992E+02 -0.15441E+05
 0.78799995E+02 -0.15512E+05
 0.78849998E+02 -0.15669E+05
 0.78899994E+02 -0.14993E+05
 0.78949997E+02 -0.14809E+05
 0.78999992E+02 -0.15503E+05
 0.79049995E+02 -0.15895E+05
 0.79099998E+02 -0.16384E+05
 0.79149994E+02 -0.16603E+05
 0.79199997E+02 -0.17267E+05
 0.79249992E+02 -0.17701E+05
 0.79299995E+02 -0.17499E+05
 0.79349998E+02 -0.17637E+05
 0.79399994E+02 -0.17400E+05
 0.79449997E+02 -0.16967E+05
 0.79499992E+02 -0.16644E+05
 0.79549995E+02 -0.15774E+05
 0.79599998E+02 -0.15110E+05
 0.79649994E+02 -0.16321E+05
 0.79699997E+02 -0.17312E+05
 0.79749992E+02 -0.16717E+05
 0.79799995E+02 -0.16364E+05
 0.79849998E+02 -0.16807E+05
 0.79899994E+02 -0.17064E+05
 0.79949997E+02 -0.17192E+05
 0.79999992E+02 -0.17353E+05
 0.80049995E+02 -0.17095E+05
 0.80099998E+02 -0.16809E+05
 0.80149994E+02 -0.16939E+05
 0.80199997E+02 -0.16957E+05
 0.80249992E+02 -0.16537E+05
 0.80299995E+02 -0.16705E+05
 0.80349998E+02 -0.17137E+05
 0.80399994E+02 -0.17062E+05
 0.80449997E+02 -0.16390E+05
 0.80499992E+02 -0.15513E+05
 0.80549995E+02 -0.15131E+05
 0.80599998E+02 -0.15267E+05
 0.80649994E+02 -0.15758E+05
 0.80699997E+02 -0.16283E+05
 0.80749992E+02 -0.17199E+05
 0.80799995E+02 -0.17613E+05
 0.80849998E+02 -0.16868E+05
 0.80899994E+02 -0.16038E+05
 0.80949997E+02 -0.15380E+05
 0.80999992E+02 -0.15505E+05
 0.81049995E+02 -0.16343E+05
 0.81099998E+02 -0.15828E+05
 0.81149994E+02 -0.15187E+05
 0.81199997E+02 -0.16267E+05
 0.81249992E+02 -0.17269E+05
 0.81299995E+02 -0.17453E+05
 0.81349998E+02 -0.17417E+05
 0.81399994E+02 -0.17082E+05
 0.81449997E+02 -0.16682E+05
 0.81499992E+02 -0.16493E+05
 0.81549995E+02 -0.16126E+05
 0.81599998E+02 -0.16465E+05
 0.81649994E+02 -0.17540E+05
 0.81699997E+02 -0.17977E+05
 0.81749992E+02 -0.17931E+05
 0.81799995E+02 -0.17922E+05
 0.81849998E+02 -0.17777E+05
 0.81899994E+02 -0.17026E+05
 0.81949997E+02 -0.15926E+05
 0.81999992E+02 -0.15821E+05
 0.82049995E+02 -0.16369E+05
 0.82099998E+02 -0.16590E+05
 0.82149994E+02 -0.16577E+05
 0.82199997E+02 -0.16456E+05
 0.82249992E+02 -0.15749E+05
 0.82299995E+02 -0.15053E+05
 0.82349998E+02 -0.15186E+05
 0.82399994E+02 -0.15607E+05
 0.82449997E+02 -0.16214E+05
 0.82499992E+02 -0.16376E+05
 0.82549995E+02 -0.16299E+05
 0.82599998E+02 -0.16867E+05
 0.82649994E+02 -0.16848E+05
 0.82699997E+02 -0.15837E+05
 0.82749992E+02 -0.15174E+05
 0.82799995E+02 -0.15360E+05
 0.82849998E+02 -0.15958E+05
 0.82899994E+02 -0.16712E+05
 0.82949997E+02 -0.17500E+05
 0.82999992E+02 -0.17320E+05
 0.83049995E+02 -0.16670E+05
 0.83099998E+02 -0.16144E+05
 0.83149994E+02 -0.16143E+05
 0.83199997E+02 -0.16688E+05
 0.83249992E+02 -0.16645E+05
 0.83299995E+02 -0.16646E+05
 0.83349998E+02 -0.16903E+05
 0.83399994E+02 -0.16878E+05
 0.83449997E+02 -0.16903E+05
 0.83499992E+02 -0.17037E+05
 0.83549995E+02 -0.16984E+05
 0.83599998E+02 -0.16453E+05
 0.83649994E+02 -0.15997E+05
 0.83699997E+02 -0.16004E+05
 0.83749992E+02 -0.15903E+05
 0.83799995E+02 -0.16018E+05
 0.83849998E+02 -0.16552E+05
 0.83899994E+02 -0.16860E+05
 0.83949997E+02 -0.16859E+05
 0.83999992E+02 -0.16933E+05
 0.84049995E+02 -0.17257E+05
 0.84099998E+02 -0.17243E+05
 0.84149994E+02 -0.16584E+05
 0.84199997E+02 -0.15893E+05
 0.84249992E+02 -0.15679E+05
 0.84299995E+02 -0.15876E+05
 0.84349998E+02 -0.16229E+05
 0.84399994E+02 -0.16530E+05
 0.84449997E+02 -0.16741E+05
 0.84499992E+02 -0.16975E+05
 0.84549995E+02 -0.16624E+05
 0.84599998E+02 -0.16059E+05
 0.84649994E+02 -0.16029E+05
 0.84699997E+02 -0.16053E+05
 0.84749992E+02 -0.16456E+05
 0.84799995E+02 -0.17150E+05
 0.84849998E+02 -0.17318E+05
 0.84899994E+02 -0.17093E+05
 0.84949997E+02 -0.16892E+05
 0.84999992E+02 -0.16772E+05
 0.85049995E+02 -0.16573E+05
 0.85099998E+02 -0.16344E+05
 0.85149994E+02 -0.16129E+05
 0.85199997E+02 -0.15851E+05
 0.85249992E+02 -0.15954E+05
 0.85299995E+02 -0.15998E+05
 0.85349998E+02 -0.15577E+05
 0.85399994E+02 -0.15831E+05
 0.85449997E+02 -0.15869E+05
 0.85499992E+02 -0.15832E+05
 0.85549995E+02 -0.16512E+05
 0.85599998E+02 -0.17193E+05
 0.85649994E+02 -0.17730E+05
 0.85699997E+02 -0.17304E+05
 0.85749992E+02 -0.16127E+05
 0.85799995E+02 -0.15282E+05
 0.85849998E+02 -0.15366E+05
 0.85899994E+02 -0.15979E+05
 0.85949997E+02 -0.16026E+05
 0.85999992E+02 -0.15440E+05
 0.86049995E+02 -0.15517E+05
 0.86099998E+02 -0.16276E+05
 0.86149994E+02 -0.16648E+05
 0.86199997E+02 -0.16851E+05
 0.86249992E+02 -0.17043E+05
 0.86299995E+02 -0.17203E+05
 0.86349998E+02 -0.17390E+05
 0.86399994E+02 -0.17214E+05
 0.86449997E+02 -0.16978E+05
 0.86499992E+02 -0.16943E+05
 0.86549995E+02 -0.16895E+05
 0.86599998E+02 -0.16724E+05
 0.86649994E+02 -0.16318E+05
 0.86699997E+02 -0.16514E+05
 0.86749992E+02 -0.17450E+05
 0.86799995E+02 -0.17889E+05
 0.86849998E+02 -0.17460E+05
 0.86899994E+02 -0.16945E+05
 0.86949997E+02 -0.16191E+05
 0.86999992E+02 -0.15411E+05
 0.87049995E+02 -0.15601E+05
 0.87099998E+02 -0.16106E+05
 0.87149994E+02 -0.16097E+05
 0.87199997E+02 -0.15768E+05
 0.87249992E+02 -0.16120E+05
 0.87299995E+02 -0.16898E+05
 0.87349998E+02 -0.17263E+05
 0.87399994E+02 -0.17336E+05
 0.87449997E+02 -0.17415E+05
 0.87499992E+02 -0.17648E+05
 0.87549995E+02 -0.17677E+05
 0.87599991E+02 -0.17238E+05
 0.87649994E+02 -0.16526E+05
 0.87699997E+02 -0.15892E+05
 0.87749992E+02 -0.15398E+05
 0.87799995E+02 -0.15303E+05
 0.87849991E+02 -0.15786E+05
 0.87899994E+02 -0.16458E+05
 0.87949997E+02 -0.16986E+05
 0.87999992E+02 -0.17346E+05
 0.88049995E+02 -0.17265E+05
 0.88099991E+02 -0.16888E+05
 0.88149994E+02 -0.16592E+05
 0.88199997E+02 -0.16922E+05
 0.88249992E+02 -0.16991E+05
 0.88299995E+02 -0.16577E+05
 0.88349991E+02 -0.16529E+05
 0.88399994E+02 -0.16378E+05
 0.88449997E+02 -0.15962E+05
 0.88499992E+02 -0.15277E+05
 0.88549995E+02 -0.15192E+05
 0.88599991E+02 -0.14835E+05
 0.88649994E+02 -0.14383E+05
 0.88699997E+02 -0.15025E+05
 0.88749992E+02 -0.15624E+05
 0.88799995E+02 -0.15879E+05
 0.88849991E+02 -0.16339E+05
 0.88899994E+02 -0.16761E+05
 0.88949997E+02 -0.16637E+05
 0.88999992E+02 -0.16511E+05
 0.89049995E+02 -0.16670E+05
 0.89099991E+02 -0.16953E+05
 0.89149994E+02 -0.17246E+05
 0.89199997E+02 -0.17313E+05
 0.89249992E+02 -0.16977E+05
 0.89299995E+02 -0.16732E+05
 0.89349991E+02 -0.16637E+05
 0.89399994E+02 -0.16919E+05
 0.89449997E+02 -0.17918E+05
 0.89499992E+02 -0.18087E+05
 0.89549995E+02 -0.17116E+05
 0.89599991E+02 -0.16081E+05
 0.89649994E+02 -0.15133E+05
 0.89699997E+02 -0.14950E+05
 0.89749992E+02 -0.15996E+05
 0.89799995E+02 -0.16452E+05
 0.89849991E+02 -0.15856E+05
 0.89899994E+02 -0.15558E+05
 0.89949997E+02 -0.15728E+05
 0.89999992E+02 -0.16288E+05
 0.90049995E+02 -0.17024E+05
 0.90099991E+02 -0.17408E+05
 0.90149994E+02 -0.17427E+05
 0.90199997E+02 -0.17442E+05
 0.90249992E+02 -0.16976E+05
 0.90299995E+02 -0.15987E+05
 0.90349991E+02 -0.15603E+05
 0.90399994E+02 -0.16303E+05
 0.90449997E+02 -0.17127E+05
 0.90499992E+02 -0.17375E+05
 0.90549995E+02 -0.17454E+05
 0.90599991E+02 -0.17435E+05
 0.90649994E+02 -0.17347E+05
 0.90699997E+02 -0.17153E+05
 0.90749992E+02 -0.16999E+05
 0.90799995E+02 -0.16953E+05
 0.90849991E+02 -0.16904E+05
 0.90899994E+02 -0.17008E+05
 0.90949997E+02 -0.16850E+05
 0.90999992E+02 -0.16381E+05
 0.91049995E+02 -0.16131E+05
 0.91099991E+02 -0.16253E+05
 0.91149994E+02 -0.16428E+05
 0.91199997E+02 -0.16610E+05
 0.91249992E+02 -0.16649E+05
 0.91299995E+02 -0.16312E+05
 0.91349991E+02 -0.15916E+05
 0.91399994E+02 -0.15949E+05
 0.91449997E+02 -0.16451E+05
 0.91499992E+02 -0.16823E+05
 0.91549995E+02 -0.16410E+05
 0.91599991E+02 -0.15885E+05
 0.91649994E+02 -0.16082E+05
 0.91699997E+02 -0.16434E+05
 0.91749992E+02 -0.16364E+05
 0.91799995E+02 -0.16065E+05
 0.91849991E+02 -0.15892E+05
 0.91899994E+02 -0.15950E+05
 0.91949997E+02 -0.15976E+05
 0.91999992E+02 -0.16075E+05
 0.92049995E+02 -0.16403E+05
 0.92099991E+02 -0.16421E+05
 0.92149994E+02 -0.16313E+05
 0.92199997E+02 -0.16098E+05
 0.92249992E+02 -0.16120E+05
 0.92299995E+02 -0.16477E+05
 0.92349991E+02 -0.16500E+05
 0.92399994E+02 -0.16339E+05
 0.92449997E+02 -0.16199E+05
 0.92499992E+02 -0.16161E+05
 0.92549995E+02 -0.16192E+05
 0.92599991E+02 -0.16272E+05
 0.92649994E+02 -0.16384E+05
 0.92699997E+02 -0.16508E+05
 0.92749992E+02 -0.16409E+05
 0.92799995E+02 -0.16384E+05
 0.92849991E+02 -0.17055E+05
 0.92899994E+02 -0.17380E+05
 0.92949997E+02 -0.17216E+05
 0.92999992E+02 -0.17490E+05
 0.93049995E+02 -0.17510E+05
 0.93099991E+02 -0.17092E+05
 0.93149994E+02 -0.16913E+05
 0.93199997E+02 -0.16998E+05
 0.93249992E+02 -0.16975E+05
 0.93299995E+02 -0.16542E+05
 0.93349991E+02 -0.16228E+05
 0.93399994E+02 -0.16563E+05
 0.93449997E+02 -0.17015E+05
 0.93499992E+02 -0.17071E+05
 0.93549995E+02 -0.16721E+05
 0.93599991E+02 -0.16212E+05
 0.93649994E+02 -0.15684E+05
 0.93699997E+02 -0.15212E+05
 0.93749992E+02 -0.15092E+05
 0.93799995E+02 -0.15173E+05
 0.93849991E+02 -0.15404E+05
 0.93899994E+02 -0.15934E+05
 0.93949997E+02 -0.16511E+05
 0.93999992E+02 -0.16931E+05
 0.94049995E+02 -0.17136E+05
 0.94099991E+02 -0.17392E+05
 0.94149994E+02 -0.17414E+05
 0.94199997E+02 -0.16962E+05
 0.94249992E+02 -0.16334E+05
 0.94299995E+02 -0.15717E+05
 0.94349991E+02 -0.15632E+05
 0.94399994E+02 -0.15950E+05
 0.94449997E+02 -0.16105E+05
 0.94499992E+02 -0.16059E+05
 0.94549995E+02 -0.16012E+05
 0.94599991E+02 -0.16311E+05
 0.94649994E+02 -0.16804E+05
 0.94699997E+02 -0.17177E+05
 0.94749992E+02 -0.17145E+05
 0.94799995E+02 -0.17031E+05
 0.94849991E+02 -0.17166E+05
 0.94899994E+02 -0.17140E+05
 0.94949997E+02 -0.17030E+05
 0.94999992E+02 -0.16943E+05
 0.95049995E+02 -0.16783E+05
 0.95099991E+02 -0.16625E+05
 0.95149994E+02 -0.16442E+05
 0.95199997E+02 -0.16351E+05
 0.95249992E+02 -0.16465E+05
 0.95299995E+02 -0.16531E+05
 0.95349991E+02 -0.16398E+05
 0.95399994E+02 -0.16111E+05
 0.95449997E+02 -0.15978E+05
 0.95499992E+02 -0.15831E+05
 0.95549995E+02 -0.15396E+05
 0.95599991E+02 -0.15257E+05
 0.95649994E+02 -0.15838E+05
 0.95699997E+02 -0.16284E+05
 0.95749992E+02 -0.16336E+05
 0.95799995E+02 -0.16489E+05
 0.95849991E+02 -0.16802E+05
 0.95899994E+02 -0.17315E+05
 0.95949997E+02 -0.17424E+05
 0.95999992E+02 -0.16910E+05
 0.96049995E+02 -0.16452E+05
 0.96099991E+02 -0.16619E+05
 0.96149994E+02 -0.16850E+05
 0.96199997E+02 -0.16696E+05
 0.96249992E+02 -0.16629E+05
 0.96299995E+02 -0.16632E+05
 0.96349991E+02 -0.16521E+05
 0.96399994E+02 -0.16542E+05
 0.96449997E+02 -0.16417E+05
 0.96499992E+02 -0.15988E+05
 0.96549995E+02 -0.16115E+05
 0.96599991E+02 -0.16533E+05
 0.96649994E+02 -0.16843E+05
 0.96699997E+02 -0.17166E+05
 0.96749992E+02 -0.17153E+05
 0.96799995E+02 -0.16747E+05
 0.96849991E+02 -0.16266E+05
 0.96899994E+02 -0.16267E+05
 0.96949997E+02 -0.16771E+05
 0.96999992E+02 -0.16989E+05
 0.97049995E+02 -0.16593E+05
 0.97099991E+02 -0.16207E+05
 0.97149994E+02 -0.16112E+05
 0.97199997E+02 -0.16207E+05
 0.97249992E+02 -0.16335E+05
 0.97299995E+02 -0.16398E+05
 0.97349991E+02 -0.16822E+05
 0.97399994E+02 -0.17420E+05
 0.97449997E+02 -0.17362E+05
 0.97499992E+02 -0.16768E+05
 0.97549995E+02 -0.16412E+05
 0.97599991E+02 -0.16594E+05
 0.97649994E+02 -0.16837E+05
 0.97699997E+02 -0.16804E+05
 0.97749992E+02 -0.16439E+05
 0.97799995E+02 -0.16091E+05
 0.97849991E+02 -0.16090E+05
 0.97899994E+02 -0.16141E+05
 0.97949997E+02 -0.16220E+05
 0.97999992E+02 -0.16355E+05
