-0.20000000E+01 -0.21911E+05
-0.19500000E+01 -0.21725E+05
-0.19000000E+01 -0.21793E+05
-0.18500000E+01 -0.21800E+05
-0.18000000E+01 -0.21737E+05
-0.17500000E+01 -0.21749E+05
-0.17000000E+01 -0.21695E+05
-0.16500001E+01 -0.21677E+05
-0.16000000E+01 -0.21692E+05
-0.15500000E+01 -0.21692E+05
-0.15000000E+01 -0.21731E+05
-0.14500000E+01 -0.21773E+05
-0.14000001E+01 -0.21775E+05
-0.13500000E+01 -0.21835E+05
-0.13000001E+01 -0.21852E+05
-0.12500000E+01 -0.21930E+05
-0.12000000E+01 -0.21948E+05
-0.11500001E+01 -0.21958E+05
-0.11000000E+01 -0.21986E+05
-0.10500001E+01 -0.21976E+05
-0.10000000E+01 -0.21977E+05
-0.95000005E+00 -0.21980E+05
-0.90000010E+00 -0.21941E+05
-0.85000002E+00 -0.21992E+05
-0.80000007E+00 -0.21947E+05
-0.75000012E+00 -0.21925E+05
-0.70000005E+00 -0.21913E+05
-0.65000010E+00 -0.21867E+05
-0.60000014E+00 -0.21896E+05
-0.55000007E+00 -0.21879E+05
-0.50000012E+00 -0.21880E+05
-0.45000005E+00 -0.21866E+05
-0.40000010E+00 -0.21847E+05
-0.35000014E+00 -0.21824E+05
-0.30000007E+00 -0.21835E+05
-0.25000012E+00 -0.21786E+05
-0.20000005E+00 -0.21837E+05
-0.15000010E+00 -0.21803E+05
-0.10000014E+00 -0.21827E+05
-0.50000072E-01 -0.21823E+05
-0.11920929E-06 -0.21797E+05
 0.49999952E-01 -0.21862E+05
 0.99999905E-01 -0.21843E+05
 0.14999986E+00 -0.21885E+05
 0.19999981E+00 -0.21881E+05
 0.24999976E+00 -0.21899E+05
 0.29999995E+00 -0.21907E+05
 0.34999990E+00 -0.21894E+05
 0.39999986E+00 -0.21900E+05
 0.44999981E+00 -0.21885E+05
 0.49999976E+00 -0.21860E+05
 0.54999995E+00 -0.21847E+05
 0.59999990E+00 -0.21838E+05
 0.64999986E+00 -0.21764E+05
 0.69999981E+00 -0.21810E+05
 0.74999976E+00 -0.21792E+05
 0.79999971E+00 -0.21809E+05
 0.84999990E+00 -0.21844E+05
 0.89999986E+00 -0.21811E+05
 0.94999981E+00 -0.21839E+05
 0.99999976E+00 -0.21817E+05
 0.10499997E+01 -0.21907E+05
 0.10999999E+01 -0.21899E+05
 0.11499999E+01 -0.21939E+05
 0.11999998E+01 -0.22004E+05
 0.12499998E+01 -0.21918E+05
 0.12999997E+01 -0.21961E+05
 0.13499999E+01 -0.21934E+05
 0.13999999E+01 -0.21933E+05
 0.14499998E+01 -0.21945E+05
 0.14999998E+01 -0.21928E+05
 0.15499997E+01 -0.21938E+05
 0.15999999E+01 -0.21898E+05
 0.16499999E+01 -0.21909E+05
 0.16999998E+01 -0.21878E+05
 0.17499998E+01 -0.21855E+05
 0.17999997E+01 -0.21864E+05
 0.18499997E+01 -0.21838E+05
 0.18999999E+01 -0.21830E+05
 0.19499998E+01 -0.21833E+05
 0.19999998E+01 -0.21815E+05
 0.20499997E+01 -0.21821E+05
 0.20999999E+01 -0.21805E+05
 0.21499996E+01 -0.21803E+05
 0.21999998E+01 -0.21795E+05
 0.22499995E+01 -0.21757E+05
 0.22999997E+01 -0.21773E+05
 0.23499999E+01 -0.21722E+05
 0.23999996E+01 -0.21734E+05
 0.24499998E+01 -0.21748E+05
 0.24999995E+01 -0.21730E+05
 0.25499997E+01 -0.21764E+05
 0.25999999E+01 -0.21759E+05
 0.26499996E+01 -0.21795E+05
 0.26999998E+01 -0.21804E+05
 0.27499995E+01 -0.21814E+05
 0.27999997E+01 -0.21863E+05
 0.28499999E+01 -0.21854E+05
 0.28999996E+01 -0.21881E+05
 0.29499998E+01 -0.21870E+05
 0.29999995E+01 -0.21836E+05
 0.30499997E+01 -0.21846E+05
 0.30999999E+01 -0.21828E+05
 0.31499996E+01 -0.21863E+05
 0.31999998E+01 -0.21875E+05
 0.32499995E+01 -0.21871E+05
 0.32999997E+01 -0.21897E+05
 0.33499999E+01 -0.21892E+05
 0.33999996E+01 -0.21906E+05
 0.34499998E+01 -0.21925E+05
 0.34999995E+01 -0.21946E+05
 0.35499997E+01 -0.21947E+05
 0.35999994E+01 -0.21907E+05
 0.36499996E+01 -0.21923E+05
 0.36999998E+01 -0.21901E+05
 0.37499995E+01 -0.21922E+05
 0.37999997E+01 -0.21946E+05
 0.38499994E+01 -0.21931E+05
 0.38999996E+01 -0.21952E+05
 0.39499998E+01 -0.21906E+05
 0.39999995E+01 -0.21892E+05
 0.40499997E+01 -0.21873E+05
 0.40999994E+01 -0.21831E+05
 0.41499996E+01 -0.21854E+05
 0.41999998E+01 -0.21852E+05
 0.42499995E+01 -0.21821E+05
 0.42999997E+01 -0.21824E+05
 0.43499994E+01 -0.21795E+05
 0.43999996E+01 -0.21788E+05
 0.44499998E+01 -0.21800E+05
 0.44999995E+01 -0.21780E+05
 0.45499997E+01 -0.21792E+05
 0.45999994E+01 -0.21767E+05
 0.46499996E+01 -0.21774E+05
 0.46999998E+01 -0.21785E+05
 0.47499995E+01 -0.21789E+05
 0.47999997E+01 -0.21838E+05
 0.48499994E+01 -0.21856E+05
 0.48999996E+01 -0.21885E+05
 0.49499998E+01 -0.21890E+05
 0.49999995E+01 -0.21904E+05
 0.50499997E+01 -0.21893E+05
 0.50999994E+01 -0.21869E+05
 0.51499996E+01 -0.21852E+05
 0.51999998E+01 -0.21844E+05
 0.52499995E+01 -0.21825E+05
 0.52999997E+01 -0.21806E+05
 0.53499994E+01 -0.21804E+05
 0.53999996E+01 -0.21776E+05
 0.54499993E+01 -0.21796E+05
 0.54999995E+01 -0.21807E+05
 0.55499997E+01 -0.21809E+05
 0.55999994E+01 -0.21831E+05
 0.56499996E+01 -0.21832E+05
 0.56999993E+01 -0.21838E+05
 0.57499995E+01 -0.21859E+05
 0.57999997E+01 -0.21888E+05
 0.58499994E+01 -0.21912E+05
 0.58999996E+01 -0.21948E+05
 0.59499993E+01 -0.21974E+05
 0.59999995E+01 -0.21935E+05
 0.60499992E+01 -0.21915E+05
 0.60999994E+01 -0.21903E+05
 0.61499996E+01 -0.21871E+05
 0.61999998E+01 -0.21890E+05
 0.62499990E+01 -0.21868E+05
 0.62999992E+01 -0.21849E+05
 0.63499994E+01 -0.21848E+05
 0.63999996E+01 -0.21826E+05
 0.64499998E+01 -0.21836E+05
 0.64999990E+01 -0.21839E+05
 0.65499992E+01 -0.21848E+05
 0.65999994E+01 -0.21828E+05
 0.66499996E+01 -0.21805E+05
 0.66999998E+01 -0.21783E+05
 0.67499990E+01 -0.21788E+05
 0.67999992E+01 -0.21774E+05
 0.68499994E+01 -0.21792E+05
 0.68999996E+01 -0.21812E+05
 0.69499998E+01 -0.21819E+05
 0.69999990E+01 -0.21841E+05
 0.70499992E+01 -0.21812E+05
 0.70999994E+01 -0.21842E+05
 0.71499996E+01 -0.21850E+05
 0.71999998E+01 -0.21867E+05
 0.72499990E+01 -0.21885E+05
 0.72999992E+01 -0.21863E+05
 0.73499994E+01 -0.21895E+05
 0.73999996E+01 -0.21882E+05
 0.74499998E+01 -0.21885E+05
 0.74999990E+01 -0.21894E+05
 0.75499992E+01 -0.21894E+05
 0.75999994E+01 -0.21894E+05
 0.76499996E+01 -0.21880E+05
 0.76999998E+01 -0.21898E+05
 0.77499990E+01 -0.21877E+05
 0.77999992E+01 -0.21881E+05
 0.78499994E+01 -0.21901E+05
 0.78999996E+01 -0.21889E+05
 0.79499998E+01 -0.21870E+05
 0.79999990E+01 -0.21899E+05
 0.80499992E+01 -0.21916E+05
 0.80999994E+01 -0.21908E+05
 0.81499996E+01 -0.21928E+05
 0.81999998E+01 -0.21912E+05
 0.82499990E+01 -0.21937E+05
 0.82999992E+01 -0.21901E+05
 0.83499994E+01 -0.21869E+05
 0.83999996E+01 -0.21844E+05
 0.84499998E+01 -0.21816E+05
 0.84999990E+01 -0.21817E+05
 0.85499992E+01 -0.21785E+05
 0.85999994E+01 -0.21798E+05
 0.86499996E+01 -0.21775E+05
 0.86999998E+01 -0.21773E+05
 0.87499990E+01 -0.21762E+05
 0.87999992E+01 -0.21755E+05
 0.88499994E+01 -0.21739E+05
 0.88999996E+01 -0.21770E+05
 0.89499998E+01 -0.21787E+05
 0.89999990E+01 -0.21769E+05
 0.90499992E+01 -0.21788E+05
 0.90999994E+01 -0.21784E+05
 0.91499996E+01 -0.21782E+05
 0.91999989E+01 -0.21774E+05
 0.92499990E+01 -0.21793E+05
 0.92999992E+01 -0.21831E+05
 0.93499994E+01 -0.21849E+05
 0.93999996E+01 -0.21847E+05
 0.94499989E+01 -0.21866E+05
 0.94999990E+01 -0.21862E+05
 0.95499992E+01 -0.21845E+05
 0.95999994E+01 -0.21838E+05
 0.96499996E+01 -0.21819E+05
 0.96999989E+01 -0.21857E+05
 0.97499990E+01 -0.21856E+05
 0.97999992E+01 -0.21840E+05
 0.98499994E+01 -0.21864E+05
 0.98999996E+01 -0.21850E+05
 0.99499989E+01 -0.21889E+05
 0.99999990E+01 -0.21904E+05
 0.10049999E+02 -0.21924E+05
 0.10099999E+02 -0.21950E+05
 0.10150000E+02 -0.21971E+05
 0.10199999E+02 -0.21991E+05
 0.10249999E+02 -0.21987E+05
 0.10299999E+02 -0.21992E+05
 0.10349999E+02 -0.21992E+05
 0.10400000E+02 -0.21996E+05
 0.10449999E+02 -0.21978E+05
 0.10499999E+02 -0.21979E+05
 0.10549999E+02 -0.21965E+05
 0.10599999E+02 -0.21948E+05
 0.10650000E+02 -0.21953E+05
 0.10699999E+02 -0.21932E+05
 0.10749999E+02 -0.21899E+05
 0.10799999E+02 -0.21881E+05
 0.10849999E+02 -0.21842E+05
 0.10900000E+02 -0.21829E+05
 0.10949999E+02 -0.21807E+05
 0.10999999E+02 -0.21754E+05
 0.11049999E+02 -0.21767E+05
 0.11099999E+02 -0.21765E+05
 0.11150000E+02 -0.21744E+05
 0.11199999E+02 -0.21745E+05
 0.11249999E+02 -0.21748E+05
 0.11299999E+02 -0.21757E+05
 0.11349999E+02 -0.21790E+05
 0.11400000E+02 -0.21796E+05
 0.11449999E+02 -0.21812E+05
 0.11499999E+02 -0.21824E+05
 0.11549999E+02 -0.21831E+05
 0.11599999E+02 -0.21855E+05
 0.11650000E+02 -0.21814E+05
 0.11699999E+02 -0.21808E+05
 0.11749999E+02 -0.21847E+05
 0.11799999E+02 -0.21850E+05
 0.11849999E+02 -0.21872E+05
 0.11900000E+02 -0.21914E+05
 0.11949999E+02 -0.21900E+05
 0.11999999E+02 -0.21915E+05
 0.12049999E+02 -0.21903E+05
 0.12099999E+02 -0.21882E+05
 0.12150000E+02 -0.21864E+05
 0.12199999E+02 -0.21850E+05
 0.12249999E+02 -0.21867E+05
 0.12299999E+02 -0.21864E+05
 0.12349999E+02 -0.21887E+05
 0.12400000E+02 -0.21898E+05
 0.12449999E+02 -0.21890E+05
 0.12499999E+02 -0.21892E+05
 0.12549999E+02 -0.21878E+05
 0.12599999E+02 -0.21868E+05
 0.12649999E+02 -0.21835E+05
 0.12699999E+02 -0.21842E+05
 0.12749999E+02 -0.21840E+05
 0.12799999E+02 -0.21806E+05
 0.12849999E+02 -0.21806E+05
 0.12899999E+02 -0.21775E+05
 0.12949999E+02 -0.21759E+05
 0.12999999E+02 -0.21763E+05
 0.13049999E+02 -0.21758E+05
 0.13099999E+02 -0.21743E+05
 0.13149999E+02 -0.21753E+05
 0.13199999E+02 -0.21781E+05
 0.13249999E+02 -0.21770E+05
 0.13299999E+02 -0.21777E+05
 0.13349999E+02 -0.21782E+05
 0.13399999E+02 -0.21802E+05
 0.13449999E+02 -0.21808E+05
 0.13499999E+02 -0.21836E+05
 0.13549999E+02 -0.21872E+05
 0.13599999E+02 -0.21883E+05
 0.13649999E+02 -0.21925E+05
 0.13699999E+02 -0.21926E+05
 0.13749999E+02 -0.21956E+05
 0.13799999E+02 -0.21976E+05
 0.13849999E+02 -0.21985E+05
 0.13899999E+02 -0.21995E+05
 0.13949999E+02 -0.21998E+05
 0.13999999E+02 -0.21995E+05
 0.14049999E+02 -0.21967E+05
 0.14099998E+02 -0.21943E+05
 0.14150000E+02 -0.21924E+05
 0.14199999E+02 -0.21889E+05
 0.14249998E+02 -0.21832E+05
 0.14299999E+02 -0.21799E+05
 0.14349998E+02 -0.21795E+05
 0.14400000E+02 -0.21781E+05
 0.14449999E+02 -0.21798E+05
 0.14499998E+02 -0.21817E+05
 0.14549999E+02 -0.21814E+05
 0.14599998E+02 -0.21825E+05
 0.14650000E+02 -0.21810E+05
 0.14699999E+02 -0.21803E+05
 0.14749998E+02 -0.21798E+05
 0.14799999E+02 -0.21798E+05
 0.14849998E+02 -0.21799E+05
 0.14900000E+02 -0.21796E+05
 0.14949999E+02 -0.21796E+05
 0.14999998E+02 -0.21799E+05
 0.15049999E+02 -0.21812E+05
 0.15099998E+02 -0.21825E+05
 0.15150000E+02 -0.21834E+05
 0.15199999E+02 -0.21825E+05
 0.15249998E+02 -0.21825E+05
 0.15299999E+02 -0.21828E+05
 0.15349998E+02 -0.21839E+05
 0.15400000E+02 -0.21830E+05
 0.15449999E+02 -0.21812E+05
 0.15499998E+02 -0.21807E+05
 0.15549999E+02 -0.21801E+05
 0.15599998E+02 -0.21815E+05
 0.15650000E+02 -0.21833E+05
 0.15699999E+02 -0.21858E+05
 0.15749998E+02 -0.21881E+05
 0.15799999E+02 -0.21918E+05
 0.15849998E+02 -0.21911E+05
 0.15900000E+02 -0.21911E+05
 0.15949999E+02 -0.21905E+05
 0.15999998E+02 -0.21906E+05
 0.16049999E+02 -0.21925E+05
 0.16099998E+02 -0.21891E+05
 0.16150000E+02 -0.21860E+05
 0.16199999E+02 -0.21825E+05
 0.16249998E+02 -0.21827E+05
 0.16299999E+02 -0.21846E+05
 0.16349998E+02 -0.21853E+05
 0.16400000E+02 -0.21897E+05
 0.16449999E+02 -0.21904E+05
 0.16499998E+02 -0.21918E+05
 0.16549999E+02 -0.21935E+05
 0.16599998E+02 -0.21924E+05
 0.16650000E+02 -0.21950E+05
 0.16699999E+02 -0.21962E+05
 0.16749998E+02 -0.21952E+05
 0.16799999E+02 -0.21930E+05
 0.16849998E+02 -0.21888E+05
 0.16900000E+02 -0.21863E+05
 0.16949999E+02 -0.21841E+05
 0.16999998E+02 -0.21828E+05
 0.17049999E+02 -0.21815E+05
 0.17099998E+02 -0.21803E+05
 0.17150000E+02 -0.21783E+05
 0.17199999E+02 -0.21767E+05
 0.17249998E+02 -0.21748E+05
 0.17299999E+02 -0.21751E+05
 0.17349998E+02 -0.21780E+05
 0.17400000E+02 -0.21796E+05
 0.17449999E+02 -0.21818E+05
 0.17499998E+02 -0.21823E+05
 0.17549999E+02 -0.21818E+05
 0.17599998E+02 -0.21825E+05
 0.17650000E+02 -0.21865E+05
 0.17699999E+02 -0.21898E+05
 0.17749998E+02 -0.21924E+05
 0.17799999E+02 -0.21902E+05
 0.17849998E+02 -0.21863E+05
 0.17900000E+02 -0.21829E+05
 0.17949999E+02 -0.21827E+05
 0.17999998E+02 -0.21847E+05
 0.18049999E+02 -0.21848E+05
 0.18099998E+02 -0.21874E+05
 0.18150000E+02 -0.21865E+05
 0.18199999E+02 -0.21850E+05
 0.18249998E+02 -0.21860E+05
 0.18299999E+02 -0.21857E+05
 0.18349998E+02 -0.21869E+05
 0.18400000E+02 -0.21876E+05
 0.18449999E+02 -0.21873E+05
 0.18499998E+02 -0.21866E+05
 0.18549999E+02 -0.21851E+05
 0.18599998E+02 -0.21848E+05
 0.18650000E+02 -0.21852E+05
 0.18699999E+02 -0.21854E+05
 0.18749998E+02 -0.21848E+05
 0.18799999E+02 -0.21830E+05
 0.18849998E+02 -0.21804E+05
 0.18900000E+02 -0.21797E+05
 0.18949999E+02 -0.21783E+05
 0.18999998E+02 -0.21814E+05
 0.19049999E+02 -0.21842E+05
 0.19099998E+02 -0.21865E+05
 0.19150000E+02 -0.21872E+05
 0.19199999E+02 -0.21877E+05
 0.19249998E+02 -0.21896E+05
 0.19299999E+02 -0.21910E+05
 0.19349998E+02 -0.21925E+05
 0.19400000E+02 -0.21949E+05
 0.19449999E+02 -0.21948E+05
 0.19499998E+02 -0.21923E+05
 0.19549999E+02 -0.21903E+05
 0.19599998E+02 -0.21859E+05
 0.19650000E+02 -0.21856E+05
 0.19699999E+02 -0.21838E+05
 0.19749998E+02 -0.21831E+05
 0.19799999E+02 -0.21826E+05
 0.19849998E+02 -0.21820E+05
 0.19900000E+02 -0.21830E+05
 0.19949999E+02 -0.21855E+05
 0.19999998E+02 -0.21868E+05
 0.20049999E+02 -0.21867E+05
 0.20099998E+02 -0.21880E+05
 0.20150000E+02 -0.21871E+05
 0.20199999E+02 -0.21861E+05
 0.20249998E+02 -0.21859E+05
 0.20299999E+02 -0.21859E+05
 0.20349998E+02 -0.21863E+05
 0.20399998E+02 -0.21861E+05
 0.20449999E+02 -0.21860E+05
 0.20499998E+02 -0.21854E+05
 0.20549999E+02 -0.21830E+05
 0.20599998E+02 -0.21822E+05
 0.20649998E+02 -0.21812E+05
 0.20699999E+02 -0.21803E+05
 0.20749998E+02 -0.21786E+05
 0.20799999E+02 -0.21787E+05
 0.20849998E+02 -0.21787E+05
 0.20899998E+02 -0.21787E+05
 0.20949999E+02 -0.21805E+05
 0.20999998E+02 -0.21806E+05
 0.21049999E+02 -0.21838E+05
 0.21099998E+02 -0.21845E+05
 0.21149998E+02 -0.21872E+05
 0.21199999E+02 -0.21884E+05
 0.21249998E+02 -0.21887E+05
 0.21299999E+02 -0.21904E+05
 0.21349998E+02 -0.21924E+05
 0.21399998E+02 -0.21914E+05
 0.21449999E+02 -0.21888E+05
 0.21499998E+02 -0.21868E+05
 0.21549999E+02 -0.21851E+05
 0.21599998E+02 -0.21835E+05
 0.21649998E+02 -0.21806E+05
 0.21699999E+02 -0.21815E+05
 0.21749998E+02 -0.21837E+05
 0.21799999E+02 -0.21850E+05
 0.21849998E+02 -0.21842E+05
 0.21899998E+02 -0.21855E+05
 0.21949999E+02 -0.21861E+05
 0.21999998E+02 -0.21859E+05
 0.22049999E+02 -0.21834E+05
 0.22099998E+02 -0.21822E+05
 0.22149998E+02 -0.21825E+05
 0.22199999E+02 -0.21882E+05
 0.22249998E+02 -0.21915E+05
 0.22299999E+02 -0.21901E+05
 0.22349998E+02 -0.21910E+05
 0.22399998E+02 -0.21833E+05
 0.22449999E+02 -0.21872E+05
 0.22499998E+02 -0.21882E+05
 0.22549999E+02 -0.21818E+05
 0.22599998E+02 -0.21806E+05
 0.22649998E+02 -0.21871E+05
 0.22699999E+02 -0.21873E+05
 0.22749998E+02 -0.21798E+05
 0.22799999E+02 -0.21824E+05
 0.22849998E+02 -0.21749E+05
 0.22899998E+02 -0.21685E+05
 0.22949999E+02 -0.21761E+05
 0.22999998E+02 -0.21869E+05
 0.23049999E+02 -0.21989E+05
 0.23099998E+02 -0.21896E+05
 0.23149998E+02 -0.21653E+05
 0.23199999E+02 -0.21645E+05
 0.23249998E+02 -0.21683E+05
 0.23299999E+02 -0.21914E+05
 0.23349998E+02 -0.22012E+05
 0.23399998E+02 -0.22099E+05
 0.23449999E+02 -0.21870E+05
 0.23499998E+02 -0.21625E+05
 0.23549999E+02 -0.21891E+05
 0.23599998E+02 -0.21851E+05
 0.23649998E+02 -0.21936E+05
 0.23699999E+02 -0.22081E+05
 0.23749998E+02 -0.22185E+05
 0.23799999E+02 -0.22109E+05
 0.23849998E+02 -0.21504E+05
 0.23899998E+02 -0.21478E+05
 0.23949999E+02 -0.21530E+05
 0.23999998E+02 -0.21899E+05
 0.24049999E+02 -0.22462E+05
 0.24099998E+02 -0.22147E+05
 0.24149998E+02 -0.21876E+05
 0.24199999E+02 -0.21548E+05
 0.24249998E+02 -0.21820E+05
 0.24299999E+02 -0.22107E+05
 0.24349998E+02 -0.22481E+05
 0.24399998E+02 -0.22310E+05
 0.24449999E+02 -0.21333E+05
 0.24499998E+02 -0.21567E+05
 0.24549999E+02 -0.21499E+05
 0.24599998E+02 -0.21391E+05
 0.24649998E+02 -0.22286E+05
 0.24699999E+02 -0.22133E+05
 0.24749998E+02 -0.21319E+05
 0.24799999E+02 -0.21372E+05
 0.24849998E+02 -0.22251E+05
 0.24899998E+02 -0.22112E+05
 0.24949999E+02 -0.22478E+05
 0.24999998E+02 -0.21764E+05
 0.25049999E+02 -0.21539E+05
 0.25099998E+02 -0.21750E+05
 0.25149998E+02 -0.21395E+05
 0.25199999E+02 -0.22197E+05
 0.25249998E+02 -0.21853E+05
 0.25299999E+02 -0.21619E+05
 0.25349998E+02 -0.21607E+05
 0.25399998E+02 -0.21495E+05
 0.25449999E+02 -0.21575E+05
 0.25499998E+02 -0.21791E+05
 0.25549999E+02 -0.21923E+05
 0.25599998E+02 -0.22400E+05
 0.25649998E+02 -0.22617E+05
 0.25699999E+02 -0.21939E+05
 0.25749998E+02 -0.21380E+05
 0.25799999E+02 -0.21158E+05
 0.25849998E+02 -0.20554E+05
 0.25899998E+02 -0.22606E+05
 0.25949999E+02 -0.23476E+05
 0.25999998E+02 -0.21210E+05
 0.26049999E+02 -0.21679E+05
 0.26099998E+02 -0.21623E+05
 0.26149998E+02 -0.21110E+05
 0.26199999E+02 -0.21495E+05
 0.26249998E+02 -0.22125E+05
 0.26299999E+02 -0.24343E+05
 0.26349998E+02 -0.23300E+05
 0.26399998E+02 -0.20434E+05
 0.26449999E+02 -0.20945E+05
 0.26499998E+02 -0.21630E+05
 0.26549999E+02 -0.22293E+05
 0.26599998E+02 -0.23056E+05
 0.26649998E+02 -0.20094E+05
 0.26699999E+02 -0.20656E+05
 0.26749998E+02 -0.21973E+05
 0.26799999E+02 -0.21201E+05
 0.26849998E+02 -0.23788E+05
 0.26899998E+02 -0.22658E+05
 0.26949999E+02 -0.21597E+05
 0.26999998E+02 -0.22257E+05
 0.27049997E+02 -0.20623E+05
 0.27099998E+02 -0.20663E+05
 0.27149998E+02 -0.21644E+05
 0.27199999E+02 -0.21590E+05
 0.27249998E+02 -0.24116E+05
 0.27299997E+02 -0.22974E+05
 0.27349998E+02 -0.21619E+05
 0.27399998E+02 -0.22263E+05
 0.27449999E+02 -0.20530E+05
 0.27499998E+02 -0.23088E+05
 0.27549997E+02 -0.22841E+05
 0.27599998E+02 -0.21723E+05
 0.27649998E+02 -0.22126E+05
 0.27699999E+02 -0.19844E+05
 0.27749998E+02 -0.18845E+05
 0.27799997E+02 -0.22346E+05
 0.27849998E+02 -0.23267E+05
 0.27899998E+02 -0.22261E+05
 0.27949999E+02 -0.23628E+05
 0.27999998E+02 -0.22089E+05
 0.28049997E+02 -0.20595E+05
 0.28099998E+02 -0.21998E+05
 0.28149998E+02 -0.22059E+05
 0.28199999E+02 -0.20905E+05
 0.28249998E+02 -0.19521E+05
 0.28299997E+02 -0.18889E+05
 0.28349998E+02 -0.22097E+05
 0.28399998E+02 -0.23236E+05
 0.28449999E+02 -0.23479E+05
 0.28499998E+02 -0.24734E+05
 0.28549997E+02 -0.22602E+05
 0.28599998E+02 -0.22273E+05
 0.28649998E+02 -0.23566E+05
 0.28699999E+02 -0.21619E+05
 0.28749998E+02 -0.20383E+05
 0.28799997E+02 -0.19985E+05
 0.28849998E+02 -0.20996E+05
 0.28899998E+02 -0.21748E+05
 0.28949999E+02 -0.22252E+05
 0.28999998E+02 -0.21615E+05
 0.29049997E+02 -0.20747E+05
 0.29099998E+02 -0.22798E+05
 0.29149998E+02 -0.22186E+05
 0.29199999E+02 -0.22611E+05
 0.29249998E+02 -0.23169E+05
 0.29299997E+02 -0.20835E+05
 0.29349998E+02 -0.20660E+05
 0.29399998E+02 -0.20211E+05
 0.29449999E+02 -0.21555E+05
 0.29499998E+02 -0.23528E+05
 0.29549997E+02 -0.20385E+05
 0.29599998E+02 -0.21054E+05
 0.29649998E+02 -0.23818E+05
 0.29699999E+02 -0.23605E+05
 0.29749998E+02 -0.21935E+05
 0.29799997E+02 -0.21325E+05
 0.29849998E+02 -0.22644E+05
 0.29899998E+02 -0.23696E+05
 0.29949999E+02 -0.23835E+05
 0.29999998E+02 -0.20256E+05
 0.30049999E+02 -0.18427E+05
 0.30099998E+02 -0.20683E+05
 0.30149998E+02 -0.20261E+05
 0.30199997E+02 -0.22141E+05
 0.30249996E+02 -0.22932E+05
 0.30299999E+02 -0.21324E+05
 0.30349998E+02 -0.23499E+05
 0.30399998E+02 -0.22583E+05
 0.30449997E+02 -0.22544E+05
 0.30499996E+02 -0.22000E+05
 0.30549999E+02 -0.22535E+05
 0.30599998E+02 -0.22814E+05
 0.30649998E+02 -0.18845E+05
 0.30699997E+02 -0.20257E+05
 0.30749996E+02 -0.19395E+05
 0.30799999E+02 -0.20532E+05
 0.30849998E+02 -0.23943E+05
 0.30899998E+02 -0.24179E+05
 0.30949997E+02 -0.26257E+05
 0.30999996E+02 -0.24188E+05
 0.31049999E+02 -0.22226E+05
 0.31099998E+02 -0.18483E+05
 0.31149998E+02 -0.17932E+05
 0.31199997E+02 -0.22285E+05
 0.31249996E+02 -0.22002E+05
 0.31299999E+02 -0.22316E+05
 0.31349998E+02 -0.21940E+05
 0.31399998E+02 -0.20476E+05
 0.31449997E+02 -0.21411E+05
 0.31499996E+02 -0.22028E+05
 0.31549999E+02 -0.22930E+05
 0.31599998E+02 -0.23554E+05
 0.31649998E+02 -0.22315E+05
 0.31699997E+02 -0.21204E+05
 0.31749996E+02 -0.21916E+05
 0.31799999E+02 -0.22413E+05
 0.31849998E+02 -0.21571E+05
 0.31899998E+02 -0.21953E+05
 0.31949997E+02 -0.20315E+05
 0.31999996E+02 -0.20965E+05
 0.32049999E+02 -0.21779E+05
 0.32099998E+02 -0.20859E+05
 0.32149998E+02 -0.21181E+05
 0.32199997E+02 -0.21196E+05
 0.32249996E+02 -0.24484E+05
 0.32299999E+02 -0.26070E+05
 0.32349998E+02 -0.24922E+05
 0.32399998E+02 -0.22232E+05
 0.32449997E+02 -0.17357E+05
 0.32499996E+02 -0.19124E+05
 0.32549999E+02 -0.22630E+05
 0.32599998E+02 -0.20456E+05
 0.32649998E+02 -0.21043E+05
 0.32699997E+02 -0.21672E+05
 0.32749996E+02 -0.21422E+05
 0.32799999E+02 -0.24890E+05
 0.32849998E+02 -0.25382E+05
 0.32899998E+02 -0.22762E+05
 0.32949997E+02 -0.19372E+05
 0.32999996E+02 -0.17433E+05
 0.33049999E+02 -0.19895E+05
 0.33099998E+02 -0.21722E+05
 0.33149998E+02 -0.21179E+05
 0.33199997E+02 -0.23402E+05
 0.33249996E+02 -0.24682E+05
 0.33299999E+02 -0.23536E+05
 0.33349998E+02 -0.23280E+05
 0.33399998E+02 -0.21614E+05
 0.33449997E+02 -0.21275E+05
 0.33499996E+02 -0.20829E+05
 0.33549999E+02 -0.20800E+05
 0.33599998E+02 -0.22146E+05
 0.33649998E+02 -0.22216E+05
 0.33699997E+02 -0.21836E+05
 0.33749996E+02 -0.20937E+05
 0.33799999E+02 -0.21554E+05
 0.33849998E+02 -0.23027E+05
 0.33899998E+02 -0.21801E+05
 0.33949997E+02 -0.21780E+05
 0.33999996E+02 -0.23057E+05
 0.34049999E+02 -0.22412E+05
 0.34099998E+02 -0.20492E+05
 0.34149998E+02 -0.21980E+05
 0.34199997E+02 -0.22514E+05
 0.34249996E+02 -0.21215E+05
 0.34299999E+02 -0.22008E+05
 0.34349998E+02 -0.18943E+05
 0.34399998E+02 -0.19592E+05
 0.34449997E+02 -0.21549E+05
 0.34499996E+02 -0.22742E+05
 0.34549999E+02 -0.23633E+05
 0.34599998E+02 -0.23713E+05
 0.34649998E+02 -0.23580E+05
 0.34699997E+02 -0.22441E+05
 0.34749996E+02 -0.21300E+05
 0.34799999E+02 -0.19875E+05
 0.34849998E+02 -0.21362E+05
 0.34899998E+02 -0.22371E+05
 0.34949997E+02 -0.22930E+05
 0.34999996E+02 -0.23836E+05
 0.35049999E+02 -0.21838E+05
 0.35099998E+02 -0.19119E+05
 0.35149998E+02 -0.20499E+05
 0.35199997E+02 -0.21151E+05
 0.35249996E+02 -0.22431E+05
 0.35299999E+02 -0.23254E+05
 0.35349998E+02 -0.22234E+05
 0.35399998E+02 -0.22823E+05
 0.35449997E+02 -0.22486E+05
 0.35499996E+02 -0.22731E+05
 0.35549999E+02 -0.22393E+05
 0.35599998E+02 -0.20420E+05
 0.35649998E+02 -0.20740E+05
 0.35699997E+02 -0.20693E+05
 0.35749996E+02 -0.21196E+05
 0.35799999E+02 -0.22184E+05
 0.35849998E+02 -0.21707E+05
 0.35899998E+02 -0.21310E+05
 0.35949997E+02 -0.22257E+05
 0.35999996E+02 -0.23677E+05
 0.36049999E+02 -0.22422E+05
 0.36099998E+02 -0.21212E+05
 0.36149998E+02 -0.21290E+05
 0.36199997E+02 -0.22125E+05
 0.36249996E+02 -0.22463E+05
 0.36299999E+02 -0.21307E+05
 0.36349998E+02 -0.20330E+05
 0.36399998E+02 -0.20703E+05
 0.36449997E+02 -0.22190E+05
 0.36499996E+02 -0.24003E+05
 0.36549999E+02 -0.23343E+05
 0.36599998E+02 -0.23188E+05
 0.36649998E+02 -0.27094E+05
 0.36699997E+02 -0.30980E+05
 0.36749996E+02 -0.29483E+05
 0.36799999E+02 -0.18003E+05
 0.36849998E+02 -0.53401E+04
 0.36899998E+02 -0.68802E+04
 0.36949997E+02 -0.20052E+05
 0.36999996E+02 -0.33559E+05
 0.37049999E+02 -0.35751E+05
 0.37099998E+02 -0.26663E+05
 0.37149998E+02 -0.17678E+05
 0.37199997E+02 -0.14575E+05
 0.37249996E+02 -0.15879E+05
 0.37299999E+02 -0.18326E+05
 0.37349998E+02 -0.21530E+05
 0.37399998E+02 -0.27937E+05
 0.37449997E+02 -0.27499E+05
 0.37499996E+02 -0.18307E+05
 0.37549999E+02 -0.13779E+05
 0.37599998E+02 -0.15175E+05
 0.37649998E+02 -0.18016E+05
 0.37699997E+02 -0.22122E+05
 0.37749996E+02 -0.25272E+05
 0.37799999E+02 -0.24800E+05
 0.37849998E+02 -0.24059E+05
 0.37899998E+02 -0.24823E+05
 0.37949997E+02 -0.23365E+05
 0.37999996E+02 -0.17843E+05
 0.38049999E+02 -0.19361E+05
 0.38099998E+02 -0.27920E+05
 0.38149998E+02 -0.29044E+05
 0.38199997E+02 -0.24667E+05
 0.38249996E+02 -0.18755E+05
 0.38299999E+02 -0.16801E+05
 0.38349998E+02 -0.19001E+05
 0.38399998E+02 -0.15429E+05
 0.38449997E+02 -0.15117E+05
 0.38499996E+02 -0.19733E+05
 0.38549999E+02 -0.26373E+05
 0.38599998E+02 -0.30281E+05
 0.38649998E+02 -0.24175E+05
 0.38699997E+02 -0.21891E+05
 0.38749996E+02 -0.31262E+05
 0.38799999E+02 -0.34899E+05
 0.38849998E+02 -0.25267E+05
 0.38899998E+02 -0.11657E+05
 0.38949997E+02 -0.11102E+05
 0.38999996E+02 -0.16665E+05
 0.39049999E+02 -0.15561E+05
 0.39099998E+02 -0.15532E+05
 0.39149998E+02 -0.14068E+05
 0.39199997E+02 -0.16123E+05
 0.39249996E+02 -0.25525E+05
 0.39299999E+02 -0.29018E+05
 0.39349998E+02 -0.21290E+05
 0.39399998E+02 -0.23642E+05
 0.39449997E+02 -0.31258E+05
 0.39499996E+02 -0.28629E+05
 0.39549999E+02 -0.25685E+05
 0.39599998E+02 -0.31406E+05
 0.39649998E+02 -0.36937E+05
 0.39699997E+02 -0.29983E+05
 0.39749996E+02 -0.17915E+05
 0.39799999E+02 -0.14173E+05
 0.39849998E+02 -0.13672E+05
 0.39899998E+02 -0.10619E+05
 0.39949997E+02 -0.18090E+05
 0.39999996E+02 -0.18161E+05
 0.40049999E+02 -0.11665E+05
 0.40099998E+02 -0.12089E+05
 0.40149998E+02 -0.20099E+05
 0.40199997E+02 -0.27977E+05
 0.40249996E+02 -0.26156E+05
 0.40299999E+02 -0.23585E+05
 0.40349998E+02 -0.25929E+05
 0.40399998E+02 -0.35842E+05
 0.40449997E+02 -0.35318E+05
 0.40499996E+02 -0.18594E+05
 0.40549999E+02 -0.80971E+04
 0.40599998E+02 -0.11928E+05
 0.40649998E+02 -0.19011E+05
 0.40699997E+02 -0.29060E+05
 0.40749996E+02 -0.30760E+05
 0.40799999E+02 -0.27001E+05
 0.40849998E+02 -0.25081E+05
 0.40899998E+02 -0.20199E+05
 0.40949997E+02 -0.18856E+05
 0.40999996E+02 -0.16622E+05
 0.41049999E+02 -0.16106E+05
 0.41099998E+02 -0.24011E+05
 0.41149998E+02 -0.30388E+05
 0.41199997E+02 -0.28740E+05
 0.41249996E+02 -0.14354E+05
 0.41299999E+02 -0.94366E+04
 0.41349998E+02 -0.24968E+05
 0.41399998E+02 -0.37719E+05
 0.41449997E+02 -0.36637E+05
 0.41499996E+02 -0.21313E+05
 0.41549999E+02 -0.12278E+05
 0.41599998E+02 -0.12683E+05
 0.41649998E+02 -0.16288E+05
 0.41699997E+02 -0.15701E+05
 0.41749996E+02 -0.14061E+05
 0.41799999E+02 -0.23306E+05
 0.41849998E+02 -0.28282E+05
 0.41899998E+02 -0.30899E+05
 0.41949997E+02 -0.30962E+05
 0.41999996E+02 -0.20669E+05
 0.42049999E+02 -0.18020E+05
 0.42099998E+02 -0.15020E+05
 0.42149998E+02 -0.72127E+04
 0.42199997E+02 -0.11674E+05
 0.42249996E+02 -0.14131E+05
 0.42299999E+02 -0.16344E+05
 0.42349998E+02 -0.25308E+05
 0.42399998E+02 -0.28178E+05
 0.42449997E+02 -0.32137E+05
 0.42499996E+02 -0.29193E+05
 0.42549999E+02 -0.16622E+05
 0.42599998E+02 -0.49976E+04
 0.42649998E+02 -0.98229E+04
 0.42699997E+02 -0.25848E+05
 0.42749996E+02 -0.27589E+05
 0.42799995E+02 -0.25393E+05
 0.42849998E+02 -0.28987E+05
 0.42899998E+02 -0.29920E+05
 0.42949997E+02 -0.22302E+05
 0.42999996E+02 -0.14384E+05
 0.43049995E+02 -0.15261E+05
 0.43099998E+02 -0.19684E+05
 0.43149998E+02 -0.25690E+05
 0.43199997E+02 -0.29084E+05
 0.43249996E+02 -0.28908E+05
 0.43299995E+02 -0.32143E+05
 0.43349998E+02 -0.27522E+05
 0.43399998E+02 -0.19094E+05
 0.43449997E+02 -0.15839E+05
 0.43499996E+02 -0.17714E+05
 0.43549995E+02 -0.21892E+05
 0.43599998E+02 -0.19961E+05
 0.43649998E+02 -0.19152E+05
 0.43699997E+02 -0.25665E+05
 0.43749996E+02 -0.26635E+05
 0.43799995E+02 -0.23830E+05
 0.43849998E+02 -0.24864E+05
 0.43899998E+02 -0.26139E+05
 0.43949997E+02 -0.20282E+05
 0.43999996E+02 -0.16570E+05
 0.44049995E+02 -0.22070E+05
 0.44099998E+02 -0.25540E+05
 0.44149998E+02 -0.26982E+05
 0.44199997E+02 -0.18853E+05
 0.44249996E+02 -0.29801E+04
 0.44299995E+02 -0.37697E+04
 0.44349998E+02 -0.16029E+05
 0.44399998E+02 -0.28561E+05
 0.44449997E+02 -0.33433E+05
 0.44499996E+02 -0.27158E+05
 0.44549995E+02 -0.24821E+05
 0.44599998E+02 -0.25433E+05
 0.44649998E+02 -0.21657E+05
 0.44699997E+02 -0.13160E+05
 0.44749996E+02 -0.11172E+05
 0.44799995E+02 -0.21265E+05
 0.44849998E+02 -0.32336E+05
 0.44899998E+02 -0.32219E+05
 0.44949997E+02 -0.26549E+05
 0.44999996E+02 -0.26238E+05
 0.45049995E+02 -0.26935E+05
 0.45099998E+02 -0.24275E+05
 0.45149998E+02 -0.21660E+05
 0.45199997E+02 -0.17611E+05
 0.45249996E+02 -0.24339E+05
 0.45299995E+02 -0.31759E+05
 0.45349998E+02 -0.30274E+05
 0.45399998E+02 -0.23913E+05
 0.45449997E+02 -0.13307E+05
 0.45499996E+02 -0.10863E+05
 0.45549995E+02 -0.13581E+05
 0.45599998E+02 -0.21526E+05
 0.45649998E+02 -0.25376E+05
 0.45699997E+02 -0.21191E+05
 0.45749996E+02 -0.22762E+05
 0.45799995E+02 -0.23585E+05
 0.45849998E+02 -0.14550E+05
 0.45899998E+02 -0.86517E+04
 0.45949997E+02 -0.16702E+05
 0.45999996E+02 -0.28354E+05
 0.46049995E+02 -0.32922E+05
 0.46099998E+02 -0.25957E+05
 0.46149998E+02 -0.12872E+05
 0.46199997E+02 -0.11256E+05
 0.46249996E+02 -0.22916E+05
 0.46299995E+02 -0.26485E+05
 0.46349998E+02 -0.27378E+05
 0.46399998E+02 -0.28994E+05
 0.46449997E+02 -0.24569E+05
 0.46499996E+02 -0.21791E+05
 0.46549995E+02 -0.15885E+05
 0.46599998E+02 -0.13778E+05
 0.46649998E+02 -0.16198E+05
 0.46699997E+02 -0.22382E+05
 0.46749996E+02 -0.27859E+05
 0.46799995E+02 -0.29339E+05
 0.46849998E+02 -0.25430E+05
 0.46899998E+02 -0.21161E+05
 0.46949997E+02 -0.21604E+05
 0.46999996E+02 -0.19835E+05
 0.47049995E+02 -0.21234E+05
 0.47099998E+02 -0.26307E+05
 0.47149998E+02 -0.25475E+05
 0.47199997E+02 -0.21237E+05
 0.47249996E+02 -0.19787E+05
 0.47299995E+02 -0.18418E+05
 0.47349998E+02 -0.19601E+05
 0.47399998E+02 -0.18984E+05
 0.47449997E+02 -0.17142E+05
 0.47499996E+02 -0.20281E+05
 0.47549995E+02 -0.24911E+05
 0.47599998E+02 -0.23660E+05
 0.47649998E+02 -0.20416E+05
 0.47699997E+02 -0.17162E+05
 0.47749996E+02 -0.17490E+05
 0.47799995E+02 -0.21424E+05
 0.47849998E+02 -0.26145E+05
 0.47899998E+02 -0.32295E+05
 0.47949997E+02 -0.32024E+05
 0.47999996E+02 -0.30217E+05
 0.48049995E+02 -0.25666E+05
 0.48099998E+02 -0.15685E+05
 0.48149998E+02 -0.14182E+05
 0.48199997E+02 -0.26715E+05
 0.48249996E+02 -0.35352E+05
 0.48299995E+02 -0.31546E+05
 0.48349998E+02 -0.25923E+05
 0.48399998E+02 -0.19300E+05
 0.48449997E+02 -0.16718E+05
 0.48499996E+02 -0.18076E+05
 0.48549995E+02 -0.14808E+05
 0.48599998E+02 -0.13021E+05
 0.48649998E+02 -0.14447E+05
 0.48699997E+02 -0.15506E+05
 0.48749996E+02 -0.16810E+05
 0.48799995E+02 -0.17795E+05
 0.48849998E+02 -0.22486E+05
 0.48899998E+02 -0.28044E+05
 0.48949997E+02 -0.26795E+05
 0.48999996E+02 -0.24479E+05
 0.49049995E+02 -0.22498E+05
 0.49099998E+02 -0.23798E+05
 0.49149998E+02 -0.24294E+05
 0.49199997E+02 -0.19615E+05
 0.49249996E+02 -0.18288E+05
 0.49299995E+02 -0.20829E+05
 0.49349998E+02 -0.18789E+05
 0.49399998E+02 -0.13185E+05
 0.49449997E+02 -0.12643E+05
 0.49499996E+02 -0.18772E+05
 0.49549995E+02 -0.24752E+05
 0.49599998E+02 -0.24488E+05
 0.49649998E+02 -0.25032E+05
 0.49699997E+02 -0.29293E+05
 0.49749996E+02 -0.32540E+05
 0.49799995E+02 -0.30178E+05
 0.49849998E+02 -0.26303E+05
 0.49899998E+02 -0.22789E+05
 0.49949997E+02 -0.20687E+05
 0.49999996E+02 -0.16504E+05
 0.50049995E+02 -0.11118E+05
 0.50099998E+02 -0.12387E+05
 0.50149998E+02 -0.13301E+05
 0.50199997E+02 -0.16856E+05
 0.50249996E+02 -0.24828E+05
 0.50299995E+02 -0.28709E+05
 0.50349998E+02 -0.30058E+05
 0.50399998E+02 -0.29941E+05
 0.50449997E+02 -0.23978E+05
 0.50499996E+02 -0.20855E+05
 0.50549995E+02 -0.21220E+05
 0.50599998E+02 -0.18896E+05
 0.50649998E+02 -0.20784E+05
 0.50699997E+02 -0.21048E+05
 0.50749996E+02 -0.17091E+05
 0.50799995E+02 -0.12719E+05
 0.50849998E+02 -0.12057E+05
 0.50899998E+02 -0.17725E+05
 0.50949997E+02 -0.23594E+05
 0.50999996E+02 -0.26817E+05
 0.51049995E+02 -0.29873E+05
 0.51099998E+02 -0.30265E+05
 0.51149998E+02 -0.27841E+05
 0.51199997E+02 -0.24178E+05
 0.51249996E+02 -0.16944E+05
 0.51299995E+02 -0.12360E+05
 0.51349998E+02 -0.14740E+05
 0.51399998E+02 -0.20531E+05
 0.51449997E+02 -0.25226E+05
 0.51499996E+02 -0.28266E+05
 0.51549995E+02 -0.28089E+05
 0.51599998E+02 -0.25475E+05
 0.51649998E+02 -0.21767E+05
 0.51699997E+02 -0.19672E+05
 0.51749996E+02 -0.20750E+05
 0.51799995E+02 -0.20512E+05
 0.51849998E+02 -0.22289E+05
 0.51899998E+02 -0.25401E+05
 0.51949997E+02 -0.27093E+05
 0.51999996E+02 -0.28038E+05
 0.52049995E+02 -0.27538E+05
 0.52099998E+02 -0.24674E+05
 0.52149998E+02 -0.21403E+05
 0.52199997E+02 -0.20565E+05
 0.52249996E+02 -0.19946E+05
 0.52299995E+02 -0.18163E+05
 0.52349998E+02 -0.15794E+05
 0.52399998E+02 -0.14359E+05
 0.52449997E+02 -0.16404E+05
 0.52499996E+02 -0.20890E+05
 0.52549995E+02 -0.26420E+05
 0.52599998E+02 -0.26187E+05
 0.52649998E+02 -0.19831E+05
 0.52699997E+02 -0.18006E+05
 0.52749996E+02 -0.18333E+05
 0.52799995E+02 -0.21245E+05
 0.52849998E+02 -0.25023E+05
 0.52899998E+02 -0.23785E+05
 0.52949997E+02 -0.23313E+05
 0.52999996E+02 -0.25365E+05
 0.53049995E+02 -0.25059E+05
 0.53099998E+02 -0.23714E+05
 0.53149998E+02 -0.20308E+05
 0.53199997E+02 -0.17074E+05
 0.53249996E+02 -0.20755E+05
 0.53299995E+02 -0.23575E+05
 0.53349998E+02 -0.21722E+05
 0.53399998E+02 -0.19693E+05
 0.53449997E+02 -0.18923E+05
 0.53499996E+02 -0.20510E+05
 0.53549995E+02 -0.21435E+05
 0.53599998E+02 -0.21644E+05
 0.53649998E+02 -0.24225E+05
 0.53699997E+02 -0.26187E+05
 0.53749996E+02 -0.26749E+05
 0.53799995E+02 -0.26337E+05
 0.53849998E+02 -0.21710E+05
 0.53899998E+02 -0.17293E+05
 0.53949997E+02 -0.18579E+05
 0.53999996E+02 -0.21716E+05
 0.54049995E+02 -0.23181E+05
 0.54099998E+02 -0.23419E+05
 0.54149998E+02 -0.24473E+05
 0.54199997E+02 -0.25660E+05
 0.54249996E+02 -0.24451E+05
 0.54299995E+02 -0.20716E+05
 0.54349998E+02 -0.18654E+05
 0.54399998E+02 -0.20889E+05
 0.54449997E+02 -0.22592E+05
 0.54499996E+02 -0.20047E+05
 0.54549995E+02 -0.16178E+05
 0.54599998E+02 -0.14061E+05
 0.54649998E+02 -0.15768E+05
 0.54699997E+02 -0.20616E+05
 0.54749996E+02 -0.23685E+05
 0.54799995E+02 -0.22292E+05
 0.54849998E+02 -0.20010E+05
 0.54899998E+02 -0.22238E+05
 0.54949997E+02 -0.24182E+05
 0.54999996E+02 -0.22358E+05
 0.55049995E+02 -0.21414E+05
 0.55099998E+02 -0.23414E+05
 0.55149998E+02 -0.25507E+05
 0.55199997E+02 -0.25429E+05
 0.55249996E+02 -0.24341E+05
 0.55299995E+02 -0.23007E+05
 0.55349998E+02 -0.20600E+05
 0.55399998E+02 -0.18445E+05
 0.55449997E+02 -0.18587E+05
 0.55499996E+02 -0.18156E+05
 0.55549995E+02 -0.17637E+05
 0.55599998E+02 -0.19624E+05
 0.55649998E+02 -0.22959E+05
 0.55699997E+02 -0.24769E+05
 0.55749996E+02 -0.25695E+05
 0.55799995E+02 -0.23692E+05
 0.55849995E+02 -0.20182E+05
 0.55899998E+02 -0.19430E+05
 0.55949997E+02 -0.19672E+05
 0.55999996E+02 -0.22217E+05
 0.56049995E+02 -0.24070E+05
 0.56099995E+02 -0.24130E+05
 0.56149998E+02 -0.22570E+05
 0.56199997E+02 -0.19683E+05
 0.56249996E+02 -0.18199E+05
 0.56299995E+02 -0.19464E+05
 0.56349995E+02 -0.22500E+05
 0.56399998E+02 -0.25543E+05
 0.56449997E+02 -0.27266E+05
 0.56499996E+02 -0.26830E+05
 0.56549995E+02 -0.27518E+05
 0.56599995E+02 -0.26386E+05
 0.56649998E+02 -0.21701E+05
 0.56699997E+02 -0.18170E+05
 0.56749996E+02 -0.20086E+05
 0.56799995E+02 -0.21197E+05
 0.56849995E+02 -0.19537E+05
 0.56899998E+02 -0.19220E+05
 0.56949997E+02 -0.18532E+05
 0.56999996E+02 -0.20064E+05
 0.57049995E+02 -0.23076E+05
 0.57099995E+02 -0.23922E+05
 0.57149998E+02 -0.22970E+05
 0.57199997E+02 -0.23312E+05
 0.57249996E+02 -0.24381E+05
 0.57299995E+02 -0.21711E+05
 0.57349995E+02 -0.18296E+05
 0.57399998E+02 -0.19523E+05
 0.57449997E+02 -0.21317E+05
 0.57499996E+02 -0.22418E+05
 0.57549995E+02 -0.23077E+05
 0.57599995E+02 -0.23363E+05
 0.57649998E+02 -0.24206E+05
 0.57699997E+02 -0.25304E+05
 0.57749996E+02 -0.25541E+05
 0.57799995E+02 -0.23535E+05
 0.57849995E+02 -0.20845E+05
 0.57899998E+02 -0.19253E+05
 0.57949997E+02 -0.18991E+05
 0.57999996E+02 -0.20534E+05
 0.58049995E+02 -0.23133E+05
 0.58099995E+02 -0.23357E+05
 0.58149998E+02 -0.21472E+05
 0.58199997E+02 -0.21033E+05
 0.58249996E+02 -0.23123E+05
 0.58299995E+02 -0.24581E+05
 0.58349995E+02 -0.24129E+05
 0.58399998E+02 -0.21363E+05
 0.58449997E+02 -0.20292E+05
 0.58499996E+02 -0.21883E+05
 0.58549995E+02 -0.21446E+05
 0.58599995E+02 -0.20582E+05
 0.58649998E+02 -0.21436E+05
 0.58699997E+02 -0.20795E+05
 0.58749996E+02 -0.18083E+05
 0.58799995E+02 -0.16996E+05
 0.58849995E+02 -0.17406E+05
 0.58899998E+02 -0.19588E+05
 0.58949997E+02 -0.22520E+05
 0.58999996E+02 -0.24089E+05
 0.59049995E+02 -0.24262E+05
 0.59099995E+02 -0.23299E+05
 0.59149998E+02 -0.22187E+05
 0.59199997E+02 -0.20516E+05
 0.59249996E+02 -0.19786E+05
 0.59299995E+02 -0.21319E+05
 0.59349995E+02 -0.24243E+05
 0.59399998E+02 -0.25026E+05
 0.59449997E+02 -0.23133E+05
 0.59499996E+02 -0.22619E+05
 0.59549995E+02 -0.22418E+05
 0.59599995E+02 -0.22289E+05
 0.59649998E+02 -0.23468E+05
 0.59699997E+02 -0.22733E+05
 0.59749996E+02 -0.21883E+05
 0.59799995E+02 -0.21945E+05
 0.59849995E+02 -0.21150E+05
 0.59899998E+02 -0.22394E+05
 0.59949997E+02 -0.23958E+05
 0.59999996E+02 -0.24351E+05
 0.60049995E+02 -0.23947E+05
 0.60099995E+02 -0.22159E+05
 0.60149998E+02 -0.20959E+05
 0.60199997E+02 -0.21507E+05
 0.60249996E+02 -0.20460E+05
 0.60299995E+02 -0.17256E+05
 0.60349995E+02 -0.16473E+05
 0.60399998E+02 -0.17144E+05
 0.60449997E+02 -0.18100E+05
 0.60499996E+02 -0.19798E+05
 0.60549995E+02 -0.21230E+05
 0.60599995E+02 -0.22691E+05
 0.60649998E+02 -0.22831E+05
 0.60699997E+02 -0.21135E+05
 0.60749996E+02 -0.20215E+05
 0.60799995E+02 -0.20984E+05
 0.60849995E+02 -0.23207E+05
 0.60899998E+02 -0.24400E+05
 0.60949997E+02 -0.24288E+05
 0.60999996E+02 -0.24156E+05
 0.61049995E+02 -0.23548E+05
 0.61099995E+02 -0.23565E+05
 0.61149998E+02 -0.23704E+05
 0.61199997E+02 -0.23674E+05
 0.61249996E+02 -0.24063E+05
 0.61299995E+02 -0.26277E+05
 0.61349995E+02 -0.27639E+05
 0.61399998E+02 -0.26021E+05
 0.61449997E+02 -0.22551E+05
 0.61499996E+02 -0.19131E+05
 0.61549995E+02 -0.17165E+05
 0.61599995E+02 -0.16680E+05
 0.61649998E+02 -0.16387E+05
 0.61699997E+02 -0.14326E+05
 0.61749996E+02 -0.13148E+05
 0.61799995E+02 -0.14289E+05
 0.61849995E+02 -0.16690E+05
 0.61899998E+02 -0.19857E+05
 0.61949997E+02 -0.23004E+05
 0.61999996E+02 -0.25300E+05
 0.62049995E+02 -0.26955E+05
 0.62099998E+02 -0.26319E+05
 0.62149994E+02 -0.24795E+05
 0.62199997E+02 -0.25039E+05
 0.62249992E+02 -0.25088E+05
 0.62299995E+02 -0.23694E+05
 0.62349998E+02 -0.21677E+05
 0.62399994E+02 -0.20889E+05
 0.62449997E+02 -0.21704E+05
 0.62499992E+02 -0.22497E+05
 0.62549995E+02 -0.22659E+05
 0.62599998E+02 -0.22645E+05
 0.62649994E+02 -0.22803E+05
 0.62699997E+02 -0.24185E+05
 0.62749992E+02 -0.25263E+05
 0.62799995E+02 -0.25491E+05
 0.62849998E+02 -0.25312E+05
 0.62899994E+02 -0.24798E+05
 0.62949997E+02 -0.25116E+05
 0.62999992E+02 -0.24790E+05
 0.63049995E+02 -0.22506E+05
 0.63099998E+02 -0.20117E+05
 0.63149994E+02 -0.19389E+05
 0.63199997E+02 -0.18999E+05
 0.63249992E+02 -0.18864E+05
 0.63299995E+02 -0.19404E+05
 0.63349998E+02 -0.21508E+05
 0.63399994E+02 -0.23008E+05
 0.63449997E+02 -0.22051E+05
 0.63499992E+02 -0.19135E+05
 0.63549995E+02 -0.16207E+05
 0.63599998E+02 -0.17029E+05
 0.63649994E+02 -0.19201E+05
 0.63699997E+02 -0.19828E+05
 0.63749992E+02 -0.20227E+05
 0.63799995E+02 -0.21172E+05
 0.63849998E+02 -0.21154E+05
 0.63899994E+02 -0.20726E+05
 0.63949997E+02 -0.20785E+05
 0.63999992E+02 -0.21156E+05
 0.64049995E+02 -0.23500E+05
 0.64099998E+02 -0.26144E+05
 0.64149994E+02 -0.28161E+05
 0.64199997E+02 -0.29837E+05
 0.64249992E+02 -0.28825E+05
 0.64299995E+02 -0.26554E+05
 0.64349998E+02 -0.23886E+05
 0.64399994E+02 -0.21229E+05
 0.64449997E+02 -0.18994E+05
 0.64499992E+02 -0.17941E+05
 0.64549995E+02 -0.17807E+05
 0.64599998E+02 -0.18610E+05
 0.64649994E+02 -0.19881E+05
 0.64699997E+02 -0.21298E+05
 0.64749992E+02 -0.22540E+05
 0.64799995E+02 -0.23351E+05
 0.64849998E+02 -0.23360E+05
 0.64899994E+02 -0.21630E+05
 0.64949997E+02 -0.19911E+05
 0.64999992E+02 -0.17951E+05
 0.65049995E+02 -0.16442E+05
 0.65099998E+02 -0.15777E+05
 0.65149994E+02 -0.16317E+05
 0.65199997E+02 -0.18504E+05
 0.65249992E+02 -0.22300E+05
 0.65299995E+02 -0.25489E+05
 0.65349998E+02 -0.25844E+05
 0.65399994E+02 -0.24885E+05
 0.65449997E+02 -0.24469E+05
 0.65499992E+02 -0.23430E+05
 0.65549995E+02 -0.22559E+05
 0.65599998E+02 -0.22599E+05
 0.65649994E+02 -0.23545E+05
 0.65699997E+02 -0.25484E+05
 0.65749992E+02 -0.26023E+05
 0.65799995E+02 -0.25022E+05
 0.65849998E+02 -0.22698E+05
 0.65899994E+02 -0.20281E+05
 0.65949997E+02 -0.19472E+05
 0.65999992E+02 -0.19233E+05
 0.66049995E+02 -0.18490E+05
 0.66099998E+02 -0.17837E+05
 0.66149994E+02 -0.18173E+05
 0.66199997E+02 -0.19532E+05
 0.66249992E+02 -0.22176E+05
 0.66299995E+02 -0.24764E+05
 0.66349998E+02 -0.24720E+05
 0.66399994E+02 -0.23678E+05
 0.66449997E+02 -0.22403E+05
 0.66499992E+02 -0.21054E+05
 0.66549995E+02 -0.20218E+05
 0.66599998E+02 -0.19808E+05
 0.66649994E+02 -0.20398E+05
 0.66699997E+02 -0.21754E+05
 0.66749992E+02 -0.23331E+05
 0.66799995E+02 -0.24934E+05
 0.66849998E+02 -0.25485E+05
 0.66899994E+02 -0.25506E+05
 0.66949997E+02 -0.25310E+05
 0.66999992E+02 -0.23679E+05
 0.67049995E+02 -0.21376E+05
 0.67099998E+02 -0.19789E+05
 0.67149994E+02 -0.20413E+05
 0.67199997E+02 -0.21949E+05
 0.67249992E+02 -0.21730E+05
 0.67299995E+02 -0.20174E+05
 0.67349998E+02 -0.19507E+05
 0.67399994E+02 -0.19874E+05
 0.67449997E+02 -0.20569E+05
 0.67499992E+02 -0.21450E+05
 0.67549995E+02 -0.22053E+05
 0.67599998E+02 -0.21952E+05
 0.67649994E+02 -0.20847E+05
 0.67699997E+02 -0.19941E+05
 0.67749992E+02 -0.19540E+05
 0.67799995E+02 -0.19813E+05
 0.67849998E+02 -0.21672E+05
 0.67899994E+02 -0.23456E+05
 0.67949997E+02 -0.23923E+05
 0.67999992E+02 -0.24460E+05
 0.68049995E+02 -0.24451E+05
 0.68099998E+02 -0.23461E+05
 0.68149994E+02 -0.22875E+05
 0.68199997E+02 -0.22423E+05
 0.68249992E+02 -0.23381E+05
 0.68299995E+02 -0.24553E+05
 0.68349998E+02 -0.23090E+05
 0.68399994E+02 -0.20605E+05
 0.68449997E+02 -0.19449E+05
 0.68499992E+02 -0.19602E+05
 0.68549995E+02 -0.21045E+05
 0.68599998E+02 -0.22001E+05
 0.68649994E+02 -0.22072E+05
 0.68699997E+02 -0.22776E+05
 0.68749992E+02 -0.23173E+05
 0.68799995E+02 -0.23562E+05
 0.68849998E+02 -0.24055E+05
 0.68899994E+02 -0.23472E+05
 0.68949997E+02 -0.22330E+05
 0.68999992E+02 -0.21644E+05
 0.69049995E+02 -0.20666E+05
 0.69099998E+02 -0.19573E+05
 0.69149994E+02 -0.18511E+05
 0.69199997E+02 -0.18316E+05
 0.69249992E+02 -0.19129E+05
 0.69299995E+02 -0.19926E+05
 0.69349998E+02 -0.20755E+05
 0.69399994E+02 -0.21900E+05
 0.69449997E+02 -0.22432E+05
 0.69499992E+02 -0.22209E+05
 0.69549995E+02 -0.22701E+05
 0.69599998E+02 -0.23070E+05
 0.69649994E+02 -0.23307E+05
 0.69699997E+02 -0.23693E+05
 0.69749992E+02 -0.23958E+05
 0.69799995E+02 -0.24561E+05
 0.69849998E+02 -0.24901E+05
 0.69899994E+02 -0.24328E+05
 0.69949997E+02 -0.23301E+05
 0.69999992E+02 -0.22163E+05
 0.70049995E+02 -0.20851E+05
 0.70099998E+02 -0.20207E+05
 0.70149994E+02 -0.20291E+05
 0.70199997E+02 -0.20477E+05
 0.70249992E+02 -0.20550E+05
 0.70299995E+02 -0.20938E+05
 0.70349998E+02 -0.21639E+05
 0.70399994E+02 -0.21301E+05
 0.70449997E+02 -0.20385E+05
 0.70499992E+02 -0.19411E+05
 0.70549995E+02 -0.18421E+05
 0.70599998E+02 -0.18315E+05
 0.70649994E+02 -0.19071E+05
 0.70699997E+02 -0.19927E+05
 0.70749992E+02 -0.20535E+05
 0.70799995E+02 -0.20873E+05
 0.70849998E+02 -0.20831E+05
 0.70899994E+02 -0.20971E+05
 0.70949997E+02 -0.21813E+05
 0.70999992E+02 -0.22940E+05
 0.71049995E+02 -0.24020E+05
 0.71099998E+02 -0.24079E+05
 0.71149994E+02 -0.22683E+05
 0.71199997E+02 -0.21651E+05
 0.71249992E+02 -0.21571E+05
 0.71299995E+02 -0.21852E+05
 0.71349998E+02 -0.22075E+05
 0.71399994E+02 -0.22290E+05
 0.71449997E+02 -0.22631E+05
 0.71499992E+02 -0.23029E+05
 0.71549995E+02 -0.23168E+05
 0.71599998E+02 -0.22937E+05
 0.71649994E+02 -0.22885E+05
 0.71699997E+02 -0.22768E+05
 0.71749992E+02 -0.22536E+05
 0.71799995E+02 -0.22602E+05
 0.71849998E+02 -0.22887E+05
 0.71899994E+02 -0.22725E+05
 0.71949997E+02 -0.22183E+05
 0.71999992E+02 -0.21941E+05
 0.72049995E+02 -0.22940E+05
 0.72099998E+02 -0.24215E+05
 0.72149994E+02 -0.25084E+05
 0.72199997E+02 -0.25834E+05
 0.72249992E+02 -0.26096E+05
 0.72299995E+02 -0.25500E+05
 0.72349998E+02 -0.23766E+05
 0.72399994E+02 -0.21514E+05
 0.72449997E+02 -0.19182E+05
 0.72499992E+02 -0.17775E+05
 0.72549995E+02 -0.17496E+05
 0.72599998E+02 -0.16758E+05
 0.72649994E+02 -0.15820E+05
 0.72699997E+02 -0.16701E+05
 0.72749992E+02 -0.18768E+05
 0.72799995E+02 -0.20205E+05
 0.72849998E+02 -0.20834E+05
 0.72899994E+02 -0.21574E+05
 0.72949997E+02 -0.23399E+05
 0.72999992E+02 -0.25218E+05
 0.73049995E+02 -0.25690E+05
 0.73099998E+02 -0.25418E+05
 0.73149994E+02 -0.24558E+05
 0.73199997E+02 -0.23679E+05
 0.73249992E+02 -0.23045E+05
 0.73299995E+02 -0.22024E+05
 0.73349998E+02 -0.20966E+05
 0.73399994E+02 -0.20981E+05
 0.73449997E+02 -0.21547E+05
 0.73499992E+02 -0.21011E+05
 0.73549995E+02 -0.19453E+05
 0.73599998E+02 -0.18356E+05
 0.73649994E+02 -0.18827E+05
 0.73699997E+02 -0.20542E+05
 0.73749992E+02 -0.22467E+05
 0.73799995E+02 -0.23597E+05
 0.73849998E+02 -0.24012E+05
 0.73899994E+02 -0.24143E+05
 0.73949997E+02 -0.23937E+05
 0.73999992E+02 -0.22946E+05
 0.74049995E+02 -0.21878E+05
 0.74099998E+02 -0.21761E+05
 0.74149994E+02 -0.22077E+05
 0.74199997E+02 -0.21894E+05
 0.74249992E+02 -0.20729E+05
 0.74299995E+02 -0.18709E+05
 0.74349998E+02 -0.16838E+05
 0.74399994E+02 -0.16128E+05
 0.74449997E+02 -0.16454E+05
 0.74499992E+02 -0.17430E+05
 0.74549995E+02 -0.19181E+05
 0.74599998E+02 -0.21363E+05
 0.74649994E+02 -0.23587E+05
 0.74699997E+02 -0.25554E+05
 0.74749992E+02 -0.26796E+05
 0.74799995E+02 -0.27707E+05
 0.74849998E+02 -0.27949E+05
 0.74899994E+02 -0.27481E+05
 0.74949997E+02 -0.26645E+05
 0.74999992E+02 -0.25073E+05
 0.75049995E+02 -0.23263E+05
 0.75099998E+02 -0.22124E+05
 0.75149994E+02 -0.21411E+05
 0.75199997E+02 -0.20777E+05
 0.75249992E+02 -0.20541E+05
 0.75299995E+02 -0.20815E+05
 0.75349998E+02 -0.21539E+05
 0.75399994E+02 -0.22382E+05
 0.75449997E+02 -0.22628E+05
 0.75499992E+02 -0.22271E+05
 0.75549995E+02 -0.22451E+05
 0.75599998E+02 -0.23066E+05
 0.75649994E+02 -0.22891E+05
 0.75699997E+02 -0.21927E+05
 0.75749992E+02 -0.21109E+05
 0.75799995E+02 -0.20530E+05
 0.75849998E+02 -0.20528E+05
 0.75899994E+02 -0.21024E+05
 0.75949997E+02 -0.21149E+05
 0.75999992E+02 -0.20342E+05
 0.76049995E+02 -0.19011E+05
 0.76099998E+02 -0.18488E+05
 0.76149994E+02 -0.18773E+05
 0.76199997E+02 -0.19672E+05
 0.76249992E+02 -0.20698E+05
 0.76299995E+02 -0.21562E+05
 0.76349998E+02 -0.22661E+05
 0.76399994E+02 -0.23733E+05
 0.76449997E+02 -0.24369E+05
 0.76499992E+02 -0.24299E+05
 0.76549995E+02 -0.23631E+05
 0.76599998E+02 -0.23108E+05
 0.76649994E+02 -0.22842E+05
 0.76699997E+02 -0.22135E+05
 0.76749992E+02 -0.21361E+05
 0.76799995E+02 -0.20801E+05
 0.76849998E+02 -0.20645E+05
 0.76899994E+02 -0.20693E+05
 0.76949997E+02 -0.20742E+05
 0.76999992E+02 -0.21529E+05
 0.77049995E+02 -0.22144E+05
 0.77099998E+02 -0.21937E+05
 0.77149994E+02 -0.21144E+05
 0.77199997E+02 -0.20007E+05
 0.77249992E+02 -0.18961E+05
 0.77299995E+02 -0.18293E+05
 0.77349998E+02 -0.18139E+05
 0.77399994E+02 -0.18794E+05
 0.77449997E+02 -0.20433E+05
 0.77499992E+02 -0.22268E+05
 0.77549995E+02 -0.23706E+05
 0.77599998E+02 -0.24886E+05
 0.77649994E+02 -0.26163E+05
 0.77699997E+02 -0.27100E+05
 0.77749992E+02 -0.26376E+05
 0.77799995E+02 -0.24527E+05
 0.77849998E+02 -0.23192E+05
 0.77899994E+02 -0.22031E+05
 0.77949997E+02 -0.20920E+05
 0.77999992E+02 -0.20001E+05
 0.78049995E+02 -0.19700E+05
 0.78099998E+02 -0.20005E+05
 0.78149994E+02 -0.20204E+05
 0.78199997E+02 -0.20038E+05
 0.78249992E+02 -0.19716E+05
 0.78299995E+02 -0.20543E+05
 0.78349998E+02 -0.21674E+05
 0.78399994E+02 -0.22457E+05
 0.78449997E+02 -0.23234E+05
 0.78499992E+02 -0.23343E+05
 0.78549995E+02 -0.23284E+05
 0.78599998E+02 -0.23375E+05
 0.78649994E+02 -0.23510E+05
 0.78699997E+02 -0.22873E+05
 0.78749992E+02 -0.21505E+05
 0.78799995E+02 -0.20078E+05
 0.78849998E+02 -0.19139E+05
 0.78899994E+02 -0.19439E+05
 0.78949997E+02 -0.20586E+05
 0.78999992E+02 -0.21515E+05
 0.79049995E+02 -0.21934E+05
 0.79099998E+02 -0.22565E+05
 0.79149994E+02 -0.23719E+05
 0.79199997E+02 -0.23967E+05
 0.79249992E+02 -0.22879E+05
 0.79299995E+02 -0.22115E+05
 0.79349998E+02 -0.22385E+05
 0.79399994E+02 -0.23087E+05
 0.79449997E+02 -0.23252E+05
 0.79499992E+02 -0.22600E+05
 0.79549995E+02 -0.21774E+05
 0.79599998E+02 -0.21925E+05
 0.79649994E+02 -0.22223E+05
 0.79699997E+02 -0.21728E+05
 0.79749992E+02 -0.20670E+05
 0.79799995E+02 -0.20527E+05
 0.79849998E+02 -0.21605E+05
 0.79899994E+02 -0.22198E+05
 0.79949997E+02 -0.21558E+05
 0.79999992E+02 -0.20150E+05
 0.80049995E+02 -0.19188E+05
 0.80099998E+02 -0.18776E+05
 0.80149994E+02 -0.18671E+05
 0.80199997E+02 -0.19454E+05
 0.80249992E+02 -0.21138E+05
 0.80299995E+02 -0.22937E+05
 0.80349998E+02 -0.24194E+05
 0.80399994E+02 -0.24499E+05
 0.80449997E+02 -0.24398E+05
 0.80499992E+02 -0.24472E+05
 0.80549995E+02 -0.24570E+05
 0.80599998E+02 -0.24836E+05
 0.80649994E+02 -0.25331E+05
 0.80699997E+02 -0.25267E+05
 0.80749992E+02 -0.24123E+05
 0.80799995E+02 -0.22970E+05
 0.80849998E+02 -0.21794E+05
 0.80899994E+02 -0.20227E+05
 0.80949997E+02 -0.19048E+05
 0.80999992E+02 -0.18589E+05
 0.81049995E+02 -0.18505E+05
 0.81099998E+02 -0.18346E+05
 0.81149994E+02 -0.18459E+05
 0.81199997E+02 -0.19266E+05
 0.81249992E+02 -0.20379E+05
 0.81299995E+02 -0.21354E+05
 0.81349998E+02 -0.21972E+05
 0.81399994E+02 -0.21992E+05
 0.81449997E+02 -0.21935E+05
 0.81499992E+02 -0.21744E+05
 0.81549995E+02 -0.21402E+05
 0.81599998E+02 -0.21304E+05
 0.81649994E+02 -0.21524E+05
 0.81699997E+02 -0.21738E+05
 0.81749992E+02 -0.22326E+05
 0.81799995E+02 -0.23449E+05
 0.81849998E+02 -0.24269E+05
 0.81899994E+02 -0.24653E+05
 0.81949997E+02 -0.24434E+05
 0.81999992E+02 -0.23659E+05
 0.82049995E+02 -0.22920E+05
 0.82099998E+02 -0.22159E+05
 0.82149994E+02 -0.21427E+05
 0.82199997E+02 -0.21329E+05
 0.82249992E+02 -0.21528E+05
 0.82299995E+02 -0.22126E+05
 0.82349998E+02 -0.22596E+05
 0.82399994E+02 -0.22323E+05
 0.82449997E+02 -0.22186E+05
 0.82499992E+02 -0.22039E+05
 0.82549995E+02 -0.21830E+05
 0.82599998E+02 -0.21912E+05
 0.82649994E+02 -0.21806E+05
 0.82699997E+02 -0.21907E+05
 0.82749992E+02 -0.22099E+05
 0.82799995E+02 -0.22064E+05
 0.82849998E+02 -0.22137E+05
 0.82899994E+02 -0.22147E+05
 0.82949997E+02 -0.22578E+05
 0.82999992E+02 -0.22731E+05
 0.83049995E+02 -0.21987E+05
 0.83099998E+02 -0.21476E+05
 0.83149994E+02 -0.21573E+05
 0.83199997E+02 -0.22062E+05
 0.83249992E+02 -0.22201E+05
 0.83299995E+02 -0.21676E+05
 0.83349998E+02 -0.21387E+05
 0.83399994E+02 -0.21450E+05
 0.83449997E+02 -0.21034E+05
 0.83499992E+02 -0.20217E+05
 0.83549995E+02 -0.19828E+05
 0.83599998E+02 -0.19830E+05
 0.83649994E+02 -0.20095E+05
 0.83699997E+02 -0.20423E+05
 0.83749992E+02 -0.20676E+05
 0.83799995E+02 -0.21285E+05
 0.83849998E+02 -0.21798E+05
 0.83899994E+02 -0.22072E+05
 0.83949997E+02 -0.22439E+05
 0.83999992E+02 -0.22531E+05
 0.84049995E+02 -0.22058E+05
 0.84099998E+02 -0.21404E+05
 0.84149994E+02 -0.21161E+05
 0.84199997E+02 -0.21302E+05
 0.84249992E+02 -0.21434E+05
 0.84299995E+02 -0.21471E+05
 0.84349998E+02 -0.21922E+05
 0.84399994E+02 -0.22653E+05
 0.84449997E+02 -0.23031E+05
 0.84499992E+02 -0.23175E+05
 0.84549995E+02 -0.22952E+05
 0.84599998E+02 -0.22469E+05
 0.84649994E+02 -0.22283E+05
 0.84699997E+02 -0.22290E+05
 0.84749992E+02 -0.22195E+05
 0.84799995E+02 -0.21978E+05
 0.84849998E+02 -0.21780E+05
 0.84899994E+02 -0.21529E+05
 0.84949997E+02 -0.21225E+05
 0.84999992E+02 -0.20725E+05
 0.85049995E+02 -0.20120E+05
 0.85099998E+02 -0.20121E+05
 0.85149994E+02 -0.20621E+05
 0.85199997E+02 -0.21180E+05
 0.85249992E+02 -0.22285E+05
 0.85299995E+02 -0.23550E+05
 0.85349998E+02 -0.24402E+05
 0.85399994E+02 -0.24798E+05
 0.85449997E+02 -0.24417E+05
 0.85499992E+02 -0.23716E+05
 0.85549995E+02 -0.23028E+05
 0.85599998E+02 -0.21940E+05
 0.85649994E+02 -0.20700E+05
 0.85699997E+02 -0.20020E+05
 0.85749992E+02 -0.20090E+05
 0.85799995E+02 -0.20255E+05
 0.85849998E+02 -0.20287E+05
 0.85899994E+02 -0.20628E+05
 0.85949997E+02 -0.21312E+05
 0.85999992E+02 -0.22127E+05
 0.86049995E+02 -0.22510E+05
 0.86099998E+02 -0.22419E+05
 0.86149994E+02 -0.22105E+05
 0.86199997E+02 -0.22053E+05
 0.86249992E+02 -0.22123E+05
 0.86299995E+02 -0.21511E+05
 0.86349998E+02 -0.20945E+05
 0.86399994E+02 -0.20982E+05
 0.86449997E+02 -0.21539E+05
 0.86499992E+02 -0.22135E+05
 0.86549995E+02 -0.22318E+05
 0.86599998E+02 -0.22663E+05
 0.86649994E+02 -0.23255E+05
 0.86699997E+02 -0.23593E+05
 0.86749992E+02 -0.23540E+05
 0.86799995E+02 -0.23149E+05
 0.86849998E+02 -0.22718E+05
 0.86899994E+02 -0.22403E+05
 0.86949997E+02 -0.21991E+05
 0.86999992E+02 -0.21483E+05
 0.87049995E+02 -0.20848E+05
 0.87099998E+02 -0.20221E+05
 0.87149994E+02 -0.19565E+05
 0.87199997E+02 -0.19106E+05
 0.87249992E+02 -0.19104E+05
 0.87299995E+02 -0.19418E+05
 0.87349998E+02 -0.19945E+05
 0.87399994E+02 -0.20731E+05
 0.87449997E+02 -0.21717E+05
 0.87499992E+02 -0.22464E+05
 0.87549995E+02 -0.22945E+05
 0.87599991E+02 -0.23131E+05
 0.87649994E+02 -0.23089E+05
 0.87699997E+02 -0.23184E+05
 0.87749992E+02 -0.23056E+05
 0.87799995E+02 -0.22611E+05
 0.87849991E+02 -0.22220E+05
 0.87899994E+02 -0.21583E+05
 0.87949997E+02 -0.20879E+05
 0.87999992E+02 -0.20730E+05
 0.88049995E+02 -0.21256E+05
 0.88099991E+02 -0.22380E+05
 0.88149994E+02 -0.23423E+05
 0.88199997E+02 -0.23867E+05
 0.88249992E+02 -0.24187E+05
 0.88299995E+02 -0.24333E+05
 0.88349991E+02 -0.24019E+05
 0.88399994E+02 -0.23430E+05
 0.88449997E+02 -0.22529E+05
 0.88499992E+02 -0.21591E+05
 0.88549995E+02 -0.21081E+05
 0.88599991E+02 -0.20794E+05
 0.88649994E+02 -0.20377E+05
 0.88699997E+02 -0.20118E+05
 0.88749992E+02 -0.20308E+05
 0.88799995E+02 -0.20597E+05
 0.88849991E+02 -0.21218E+05
 0.88899994E+02 -0.21706E+05
 0.88949997E+02 -0.21550E+05
 0.88999992E+02 -0.21642E+05
 0.89049995E+02 -0.21930E+05
 0.89099991E+02 -0.22004E+05
 0.89149994E+02 -0.21647E+05
 0.89199997E+02 -0.21118E+05
 0.89249992E+02 -0.21026E+05
 0.89299995E+02 -0.21359E+05
 0.89349991E+02 -0.21903E+05
 0.89399994E+02 -0.22518E+05
 0.89449997E+02 -0.23242E+05
 0.89499992E+02 -0.24103E+05
 0.89549995E+02 -0.24517E+05
 0.89599991E+02 -0.24056E+05
 0.89649994E+02 -0.23395E+05
 0.89699997E+02 -0.23140E+05
 0.89749992E+02 -0.23012E+05
 0.89799995E+02 -0.22474E+05
 0.89849991E+02 -0.21671E+05
 0.89899994E+02 -0.21191E+05
 0.89949997E+02 -0.21119E+05
 0.89999992E+02 -0.20841E+05
 0.90049995E+02 -0.20404E+05
 0.90099991E+02 -0.20060E+05
 0.90149994E+02 -0.19915E+05
 0.90199997E+02 -0.20298E+05
 0.90249992E+02 -0.20543E+05
 0.90299995E+02 -0.20564E+05
 0.90349991E+02 -0.20593E+05
 0.90399994E+02 -0.20692E+05
 0.90449997E+02 -0.21047E+05
 0.90499992E+02 -0.21302E+05
 0.90549995E+02 -0.21278E+05
 0.90599991E+02 -0.21087E+05
 0.90649994E+02 -0.21007E+05
 0.90699997E+02 -0.21468E+05
 0.90749992E+02 -0.22127E+05
 0.90799995E+02 -0.22175E+05
 0.90849991E+02 -0.21862E+05
 0.90899994E+02 -0.21620E+05
 0.90949997E+02 -0.21665E+05
 0.90999992E+02 -0.21879E+05
 0.91049995E+02 -0.22324E+05
 0.91099991E+02 -0.22962E+05
 0.91149994E+02 -0.23574E+05
 0.91199997E+02 -0.23961E+05
 0.91249992E+02 -0.24021E+05
 0.91299995E+02 -0.24079E+05
 0.91349991E+02 -0.24171E+05
 0.91399994E+02 -0.23946E+05
 0.91449997E+02 -0.23270E+05
 0.91499992E+02 -0.22693E+05
 0.91549995E+02 -0.22127E+05
 0.91599991E+02 -0.21487E+05
 0.91649994E+02 -0.21079E+05
 0.91699997E+02 -0.20728E+05
 0.91749992E+02 -0.20336E+05
 0.91799995E+02 -0.20459E+05
 0.91849991E+02 -0.21165E+05
 0.91899994E+02 -0.21779E+05
 0.91949997E+02 -0.21959E+05
 0.91999992E+02 -0.21881E+05
 0.92049995E+02 -0.22035E+05
 0.92099991E+02 -0.22373E+05
 0.92149994E+02 -0.22569E+05
 0.92199997E+02 -0.22426E+05
 0.92249992E+02 -0.21971E+05
 0.92299995E+02 -0.21373E+05
 0.92349991E+02 -0.20947E+05
 0.92399994E+02 -0.20511E+05
 0.92449997E+02 -0.20096E+05
 0.92499992E+02 -0.20132E+05
 0.92549995E+02 -0.20678E+05
 0.92599991E+02 -0.21514E+05
 0.92649994E+02 -0.22049E+05
 0.92699997E+02 -0.22627E+05
 0.92749992E+02 -0.23405E+05
 0.92799995E+02 -0.23760E+05
 0.92849991E+02 -0.23593E+05
 0.92899994E+02 -0.23279E+05
 0.92949997E+02 -0.22870E+05
 0.92999992E+02 -0.22356E+05
 0.93049995E+02 -0.21748E+05
 0.93099991E+02 -0.21012E+05
 0.93149994E+02 -0.20281E+05
 0.93199997E+02 -0.19609E+05
 0.93249992E+02 -0.19126E+05
 0.93299995E+02 -0.18789E+05
 0.93349991E+02 -0.18563E+05
 0.93399994E+02 -0.18970E+05
 0.93449997E+02 -0.19803E+05
 0.93499992E+02 -0.20534E+05
 0.93549995E+02 -0.21433E+05
 0.93599991E+02 -0.22218E+05
 0.93649994E+02 -0.22573E+05
 0.93699997E+02 -0.22594E+05
 0.93749992E+02 -0.22303E+05
 0.93799995E+02 -0.21818E+05
 0.93849991E+02 -0.21593E+05
 0.93899994E+02 -0.21833E+05
 0.93949997E+02 -0.22370E+05
 0.93999992E+02 -0.23011E+05
 0.94049995E+02 -0.23322E+05
 0.94099991E+02 -0.23202E+05
 0.94149994E+02 -0.22802E+05
 0.94199997E+02 -0.22278E+05
 0.94249992E+02 -0.21687E+05
 0.94299995E+02 -0.21247E+05
 0.94349991E+02 -0.21227E+05
 0.94399994E+02 -0.21533E+05
 0.94449997E+02 -0.21946E+05
 0.94499992E+02 -0.22488E+05
 0.94549995E+02 -0.23103E+05
 0.94599991E+02 -0.23625E+05
 0.94649994E+02 -0.24039E+05
 0.94699997E+02 -0.24252E+05
 0.94749992E+02 -0.24415E+05
 0.94799995E+02 -0.24571E+05
 0.94849991E+02 -0.24459E+05
 0.94899994E+02 -0.23691E+05
 0.94949997E+02 -0.22460E+05
 0.94999992E+02 -0.21259E+05
 0.95049995E+02 -0.20414E+05
 0.95099991E+02 -0.19872E+05
 0.95149994E+02 -0.19737E+05
 0.95199997E+02 -0.20122E+05
 0.95249992E+02 -0.20467E+05
 0.95299995E+02 -0.20892E+05
 0.95349991E+02 -0.21422E+05
 0.95399994E+02 -0.21598E+05
 0.95449997E+02 -0.21593E+05
 0.95499992E+02 -0.21799E+05
 0.95549995E+02 -0.22223E+05
 0.95599991E+02 -0.22698E+05
 0.95649994E+02 -0.22849E+05
 0.95699997E+02 -0.22787E+05
 0.95749992E+02 -0.22577E+05
 0.95799995E+02 -0.22406E+05
 0.95849991E+02 -0.22508E+05
 0.95899994E+02 -0.22319E+05
 0.95949997E+02 -0.21847E+05
 0.95999992E+02 -0.21364E+05
 0.96049995E+02 -0.20692E+05
 0.96099991E+02 -0.20061E+05
 0.96149994E+02 -0.19876E+05
 0.96199997E+02 -0.20306E+05
 0.96249992E+02 -0.20859E+05
 0.96299995E+02 -0.21187E+05
 0.96349991E+02 -0.21616E+05
 0.96399994E+02 -0.22054E+05
 0.96449997E+02 -0.22472E+05
 0.96499992E+02 -0.22672E+05
 0.96549995E+02 -0.22468E+05
 0.96599991E+02 -0.22291E+05
 0.96649994E+02 -0.22503E+05
 0.96699997E+02 -0.22639E+05
 0.96749992E+02 -0.22280E+05
 0.96799995E+02 -0.21835E+05
 0.96849991E+02 -0.21560E+05
 0.96899994E+02 -0.21332E+05
 0.96949997E+02 -0.21161E+05
 0.96999992E+02 -0.21138E+05
 0.97049995E+02 -0.21098E+05
 0.97099991E+02 -0.21056E+05
 0.97149994E+02 -0.21288E+05
 0.97199997E+02 -0.21624E+05
 0.97249992E+02 -0.21849E+05
 0.97299995E+02 -0.22108E+05
 0.97349991E+02 -0.22295E+05
 0.97399994E+02 -0.22253E+05
 0.97449997E+02 -0.22286E+05
 0.97499992E+02 -0.22453E+05
 0.97549995E+02 -0.22649E+05
 0.97599991E+02 -0.22790E+05
 0.97649994E+02 -0.22701E+05
 0.97699997E+02 -0.22113E+05
 0.97749992E+02 -0.21363E+05
 0.97799995E+02 -0.20952E+05
 0.97849991E+02 -0.20926E+05
 0.97899994E+02 -0.21109E+05
 0.97949997E+02 -0.21071E+05
 0.97999992E+02 -0.20862E+05
