-0.20000000E+01  0.29681E+04
-0.19500000E+01 -0.14670E+04
-0.19000000E+01 -0.56551E+04
-0.18500000E+01 -0.90650E+04
-0.18000000E+01 -0.12631E+05
-0.17500000E+01 -0.16262E+05
-0.17000000E+01 -0.18738E+05
-0.16500001E+01 -0.21153E+05
-0.16000000E+01 -0.24108E+05
-0.15500000E+01 -0.26722E+05
-0.15000000E+01 -0.29132E+05
-0.14500000E+01 -0.30487E+05
-0.14000001E+01 -0.31223E+05
-0.13500000E+01 -0.32487E+05
-0.13000001E+01 -0.33001E+05
-0.12500000E+01 -0.32006E+05
-0.12000000E+01 -0.30840E+05
-0.11500001E+01 -0.30947E+05
-0.11000000E+01 -0.30514E+05
-0.10500001E+01 -0.29010E+05
-0.10000000E+01 -0.27901E+05
-0.95000005E+00 -0.27310E+05
-0.90000010E+00 -0.27027E+05
-0.85000002E+00 -0.26445E+05
-0.80000007E+00 -0.25315E+05
-0.75000012E+00 -0.24986E+05
-0.70000005E+00 -0.24593E+05
-0.65000010E+00 -0.22737E+05
-0.60000014E+00 -0.20290E+05
-0.55000007E+00 -0.16954E+05
-0.50000012E+00 -0.12413E+05
-0.45000005E+00 -0.75816E+04
-0.40000010E+00 -0.36331E+04
-0.35000014E+00  0.74722E+03
-0.30000007E+00  0.48610E+04
-0.25000012E+00  0.81213E+04
-0.20000005E+00  0.11329E+05
-0.15000010E+00  0.13234E+05
-0.10000014E+00  0.14382E+05
-0.50000072E-01  0.15250E+05
-0.11920929E-06  0.16127E+05
 0.49999952E-01  0.16688E+05
 0.99999905E-01  0.16314E+05
 0.14999986E+00  0.14146E+05
 0.19999981E+00  0.10902E+05
 0.24999976E+00  0.82540E+04
 0.29999995E+00  0.52455E+04
 0.34999990E+00  0.18931E+04
 0.39999986E+00 -0.16389E+04
 0.44999981E+00 -0.53276E+04
 0.49999976E+00 -0.86607E+04
 0.54999995E+00 -0.11259E+05
 0.59999990E+00 -0.12533E+05
 0.64999986E+00 -0.13069E+05
 0.69999981E+00 -0.12980E+05
 0.74999976E+00 -0.11792E+05
 0.79999971E+00 -0.88186E+04
 0.84999990E+00 -0.53286E+04
 0.89999986E+00 -0.27404E+04
 0.94999981E+00 -0.12480E+03
 0.99999976E+00  0.23849E+04
 0.10499997E+01  0.50257E+04
 0.10999999E+01  0.83303E+04
 0.11499999E+01  0.12218E+05
 0.11999998E+01  0.16217E+05
 0.12499998E+01  0.20349E+05
 0.12999997E+01  0.23713E+05
 0.13499999E+01  0.26089E+05
 0.13999999E+01  0.28072E+05
 0.14499998E+01  0.29607E+05
 0.14999998E+01  0.30761E+05
 0.15499997E+01  0.30628E+05
 0.15999999E+01  0.29011E+05
 0.16499999E+01  0.25208E+05
 0.16999998E+01  0.20565E+05
 0.17499998E+01  0.15978E+05
 0.17999997E+01  0.10954E+05
 0.18499997E+01  0.58128E+04
 0.18999999E+01  0.12105E+04
 0.19499998E+01 -0.25500E+04
 0.19999998E+01 -0.72644E+04
 0.20499997E+01 -0.13071E+05
 0.20999999E+01 -0.19073E+05
 0.21499996E+01 -0.24678E+05
 0.21999998E+01 -0.29911E+05
 0.22499995E+01 -0.34847E+05
 0.22999997E+01 -0.39186E+05
 0.23499999E+01 -0.42448E+05
 0.23999996E+01 -0.45072E+05
 0.24499998E+01 -0.47609E+05
 0.24999995E+01 -0.50000E+05
 0.25499997E+01 -0.51701E+05
 0.25999999E+01 -0.53937E+05
 0.26499996E+01 -0.57863E+05
 0.26999998E+01 -0.61724E+05
 0.27499995E+01 -0.63918E+05
 0.27999997E+01 -0.64148E+05
 0.28499999E+01 -0.64102E+05
 0.28999996E+01 -0.63210E+05
 0.29499998E+01 -0.60297E+05
 0.29999995E+01 -0.55708E+05
 0.30499997E+01 -0.50018E+05
 0.30999999E+01 -0.43041E+05
 0.31499996E+01 -0.35496E+05
 0.31999998E+01 -0.27621E+05
 0.32499995E+01 -0.17900E+05
 0.32999997E+01 -0.79772E+04
 0.33499999E+01  0.97799E+03
 0.33999996E+01  0.95844E+04
 0.34499998E+01  0.18362E+05
 0.34999995E+01  0.27136E+05
 0.35499997E+01  0.36050E+05
 0.35999994E+01  0.43999E+05
 0.36499996E+01  0.49908E+05
 0.36999998E+01  0.55593E+05
 0.37499995E+01  0.60586E+05
 0.37999997E+01  0.64669E+05
 0.38499994E+01  0.67859E+05
 0.38999996E+01  0.70636E+05
 0.39499998E+01  0.73120E+05
 0.39999995E+01  0.73826E+05
 0.40499997E+01  0.72832E+05
 0.40999994E+01  0.70128E+05
 0.41499996E+01  0.66672E+05
 0.41999998E+01  0.62311E+05
 0.42499995E+01  0.57923E+05
 0.42999997E+01  0.53698E+05
 0.43499994E+01  0.48706E+05
 0.43999996E+01  0.43286E+05
 0.44499998E+01  0.37565E+05
 0.44999995E+01  0.32125E+05
 0.45499997E+01  0.26044E+05
 0.45999994E+01  0.19567E+05
 0.46499996E+01  0.13731E+05
 0.46999998E+01  0.85502E+04
 0.47499995E+01  0.27874E+04
 0.47999997E+01 -0.41852E+04
 0.48499994E+01 -0.11737E+05
 0.48999996E+01 -0.18973E+05
 0.49499998E+01 -0.25450E+05
 0.49999995E+01 -0.31098E+05
 0.50499997E+01 -0.35032E+05
 0.50999994E+01 -0.37260E+05
 0.51499996E+01 -0.39117E+05
 0.51999998E+01 -0.41531E+05
 0.52499995E+01 -0.43890E+05
 0.52999997E+01 -0.46103E+05
 0.53499994E+01 -0.47386E+05
 0.53999996E+01 -0.47431E+05
 0.54499993E+01 -0.46617E+05
 0.54999995E+01 -0.45148E+05
 0.55499997E+01 -0.43963E+05
 0.55999994E+01 -0.42545E+05
 0.56499996E+01 -0.40446E+05
 0.56999993E+01 -0.37226E+05
 0.57499995E+01 -0.34236E+05
 0.57999997E+01 -0.32281E+05
 0.58499994E+01 -0.29601E+05
 0.58999996E+01 -0.27280E+05
 0.59499993E+01 -0.26310E+05
 0.59999995E+01 -0.26282E+05
 0.60499992E+01 -0.25928E+05
 0.60999994E+01 -0.24505E+05
 0.61499996E+01 -0.22927E+05
 0.61999998E+01 -0.21015E+05
 0.62499990E+01 -0.19371E+05
 0.62999992E+01 -0.18614E+05
 0.63499994E+01 -0.17931E+05
 0.63999996E+01 -0.16221E+05
 0.64499998E+01 -0.12995E+05
 0.64999990E+01 -0.94869E+04
 0.65499992E+01 -0.66171E+04
 0.65999994E+01 -0.37171E+04
 0.66499996E+01 -0.18139E+03
 0.66999998E+01  0.40156E+04
 0.67499990E+01  0.79806E+04
 0.67999992E+01  0.11280E+05
 0.68499994E+01  0.14105E+05
 0.68999996E+01  0.15880E+05
 0.69499998E+01  0.16996E+05
 0.69999990E+01  0.18001E+05
 0.70499992E+01  0.18997E+05
 0.70999994E+01  0.20159E+05
 0.71499996E+01  0.21042E+05
 0.71999998E+01  0.21353E+05
 0.72499990E+01  0.21281E+05
 0.72999992E+01  0.21216E+05
 0.73499994E+01  0.21702E+05
 0.73999996E+01  0.22301E+05
 0.74499998E+01  0.22131E+05
 0.74999990E+01  0.21701E+05
 0.75499992E+01  0.21321E+05
 0.75999994E+01  0.21193E+05
 0.76499996E+01  0.20596E+05
 0.76999998E+01  0.19819E+05
 0.77499990E+01  0.20167E+05
 0.77999992E+01  0.21669E+05
 0.78499994E+01  0.24538E+05
 0.78999996E+01  0.26948E+05
 0.79499998E+01  0.28917E+05
 0.79999990E+01  0.31235E+05
 0.80499992E+01  0.33268E+05
 0.80999994E+01  0.34979E+05
 0.81499996E+01  0.36655E+05
 0.81999998E+01  0.37918E+05
 0.82499990E+01  0.38042E+05
 0.82999992E+01  0.38362E+05
 0.83499994E+01  0.39531E+05
 0.83999996E+01  0.41481E+05
 0.84499998E+01  0.43659E+05
 0.84999990E+01  0.44986E+05
 0.85499992E+01  0.44818E+05
 0.85999994E+01  0.44090E+05
 0.86499996E+01  0.43902E+05
 0.86999998E+01  0.43287E+05
 0.87499990E+01  0.41947E+05
 0.87999992E+01  0.40689E+05
 0.88499994E+01  0.39585E+05
 0.88999996E+01  0.39387E+05
 0.89499998E+01  0.39499E+05
 0.89999990E+01  0.38667E+05
 0.90499992E+01  0.37481E+05
 0.90999994E+01  0.36119E+05
 0.91499996E+01  0.34140E+05
 0.91999989E+01  0.31422E+05
 0.92499990E+01  0.28416E+05
 0.92999992E+01  0.24607E+05
 0.93499994E+01  0.20185E+05
 0.93999996E+01  0.15278E+05
 0.94499989E+01  0.90610E+04
 0.94999990E+01  0.17218E+04
 0.95499992E+01 -0.57772E+04
 0.95999994E+01 -0.13166E+05
 0.96499996E+01 -0.20661E+05
 0.96999989E+01 -0.28320E+05
 0.97499990E+01 -0.35443E+05
 0.97999992E+01 -0.41044E+05
 0.98499994E+01 -0.45533E+05
 0.98999996E+01 -0.49823E+05
 0.99499989E+01 -0.53962E+05
 0.99999990E+01 -0.57500E+05
 0.10049999E+02 -0.59883E+05
 0.10099999E+02 -0.60343E+05
 0.10150000E+02 -0.59805E+05
 0.10199999E+02 -0.59486E+05
 0.10249999E+02 -0.59544E+05
 0.10299999E+02 -0.59641E+05
 0.10349999E+02 -0.59018E+05
 0.10400000E+02 -0.58209E+05
 0.10449999E+02 -0.57700E+05
 0.10499999E+02 -0.56577E+05
 0.10549999E+02 -0.54903E+05
 0.10599999E+02 -0.52354E+05
 0.10650000E+02 -0.48412E+05
 0.10699999E+02 -0.43450E+05
 0.10749999E+02 -0.38702E+05
 0.10799999E+02 -0.34756E+05
 0.10849999E+02 -0.30422E+05
 0.10900000E+02 -0.25313E+05
 0.10949999E+02 -0.20035E+05
 0.10999999E+02 -0.14762E+05
 0.11049999E+02 -0.86181E+04
 0.11099999E+02 -0.13850E+04
 0.11150000E+02  0.63743E+04
 0.11199999E+02  0.13005E+05
 0.11249999E+02  0.18118E+05
 0.11299999E+02  0.22974E+05
 0.11349999E+02  0.27842E+05
 0.11400000E+02  0.32824E+05
 0.11449999E+02  0.37652E+05
 0.11499999E+02  0.41882E+05
 0.11549999E+02  0.44794E+05
 0.11599999E+02  0.47253E+05
 0.11650000E+02  0.50069E+05
 0.11699999E+02  0.52187E+05
 0.11749999E+02  0.53709E+05
 0.11799999E+02  0.53784E+05
 0.11849999E+02  0.51999E+05
 0.11900000E+02  0.49312E+05
 0.11949999E+02  0.45883E+05
 0.11999999E+02  0.41341E+05
 0.12049999E+02  0.36189E+05
 0.12099999E+02  0.30844E+05
 0.12150000E+02  0.25198E+05
 0.12199999E+02  0.19635E+05
 0.12249999E+02  0.13546E+05
 0.12299999E+02  0.66997E+04
 0.12349999E+02 -0.78127E+03
 0.12400000E+02 -0.78723E+04
 0.12449999E+02 -0.14991E+05
 0.12499999E+02 -0.22957E+05
 0.12549999E+02 -0.30931E+05
 0.12599999E+02 -0.38291E+05
 0.12649999E+02 -0.44499E+05
 0.12699999E+02 -0.49840E+05
 0.12749999E+02 -0.54497E+05
 0.12799999E+02 -0.58281E+05
 0.12849999E+02 -0.60663E+05
 0.12899999E+02 -0.61449E+05
 0.12949999E+02 -0.61038E+05
 0.12999999E+02 -0.59011E+05
 0.13049999E+02 -0.55775E+05
 0.13099999E+02 -0.52208E+05
 0.13149999E+02 -0.48311E+05
 0.13199999E+02 -0.43643E+05
 0.13249999E+02 -0.38434E+05
 0.13299999E+02 -0.33913E+05
 0.13349999E+02 -0.29714E+05
 0.13399999E+02 -0.24407E+05
 0.13449999E+02 -0.17977E+05
 0.13499999E+02 -0.11068E+05
 0.13549999E+02 -0.42692E+04
 0.13599999E+02  0.21488E+04
 0.13649999E+02  0.84055E+04
 0.13699999E+02  0.14131E+05
 0.13749999E+02  0.19810E+05
 0.13799999E+02  0.26286E+05
 0.13849999E+02  0.32690E+05
 0.13899999E+02  0.37434E+05
 0.13949999E+02  0.41224E+05
 0.13999999E+02  0.45270E+05
 0.14049999E+02  0.49539E+05
 0.14099998E+02  0.52343E+05
 0.14150000E+02  0.52740E+05
 0.14199999E+02  0.52026E+05
 0.14249998E+02  0.51055E+05
 0.14299999E+02  0.49815E+05
 0.14349998E+02  0.47037E+05
 0.14400000E+02  0.41823E+05
 0.14449999E+02  0.35779E+05
 0.14499998E+02  0.29194E+05
 0.14549999E+02  0.21397E+05
 0.14599998E+02  0.13640E+05
 0.14650000E+02  0.65616E+04
 0.14699999E+02 -0.15808E+03
 0.14749998E+02 -0.74560E+04
 0.14799999E+02 -0.14024E+05
 0.14849998E+02 -0.18555E+05
 0.14900000E+02 -0.21566E+05
 0.14949999E+02 -0.24574E+05
 0.14999998E+02 -0.26768E+05
 0.15049999E+02 -0.27025E+05
 0.15099998E+02 -0.26316E+05
 0.15150000E+02 -0.24733E+05
 0.15199999E+02 -0.23287E+05
 0.15249998E+02 -0.22228E+05
 0.15299999E+02 -0.21240E+05
 0.15349998E+02 -0.19259E+05
 0.15400000E+02 -0.16484E+05
 0.15449999E+02 -0.13708E+05
 0.15499998E+02 -0.10228E+05
 0.15549999E+02 -0.63435E+04
 0.15599998E+02 -0.31494E+04
 0.15650000E+02 -0.19044E+03
 0.15699999E+02  0.34444E+04
 0.15749998E+02  0.69188E+04
 0.15799999E+02  0.97676E+04
 0.15849998E+02  0.12455E+05
 0.15900000E+02  0.15753E+05
 0.15949999E+02  0.18808E+05
 0.15999998E+02  0.20264E+05
 0.16049999E+02  0.20803E+05
 0.16099998E+02  0.21562E+05
 0.16150000E+02  0.22101E+05
 0.16199999E+02  0.21999E+05
 0.16249998E+02  0.21154E+05
 0.16299999E+02  0.19948E+05
 0.16349998E+02  0.19010E+05
 0.16400000E+02  0.17240E+05
 0.16449999E+02  0.13867E+05
 0.16499998E+02  0.10233E+05
 0.16549999E+02  0.72167E+04
 0.16599998E+02  0.39455E+04
 0.16650000E+02 -0.82847E+02
 0.16699999E+02 -0.46836E+04
 0.16749998E+02 -0.92679E+04
 0.16799999E+02 -0.13722E+05
 0.16849998E+02 -0.17843E+05
 0.16900000E+02 -0.21541E+05
 0.16949999E+02 -0.24830E+05
 0.16999998E+02 -0.27758E+05
 0.17049999E+02 -0.30064E+05
 0.17099998E+02 -0.31335E+05
 0.17150000E+02 -0.32702E+05
 0.17199999E+02 -0.34284E+05
 0.17249998E+02 -0.36098E+05
 0.17299999E+02 -0.37684E+05
 0.17349998E+02 -0.37996E+05
 0.17400000E+02 -0.36857E+05
 0.17449999E+02 -0.34385E+05
 0.17499998E+02 -0.32318E+05
 0.17549999E+02 -0.30181E+05
 0.17599998E+02 -0.27040E+05
 0.17650000E+02 -0.23900E+05
 0.17699999E+02 -0.20040E+05
 0.17749998E+02 -0.15050E+05
 0.17799999E+02 -0.94248E+04
 0.17849998E+02 -0.31360E+04
 0.17900000E+02  0.42506E+04
 0.17949999E+02  0.12266E+05
 0.17999998E+02  0.20126E+05
 0.18049999E+02  0.27629E+05
 0.18099998E+02  0.34350E+05
 0.18150000E+02  0.40846E+05
 0.18199999E+02  0.47696E+05
 0.18249998E+02  0.54578E+05
 0.18299999E+02  0.60740E+05
 0.18349998E+02  0.65595E+05
 0.18400000E+02  0.69255E+05
 0.18449999E+02  0.71185E+05
 0.18499998E+02  0.70948E+05
 0.18549999E+02  0.69946E+05
 0.18599998E+02  0.67923E+05
 0.18650000E+02  0.64708E+05
 0.18699999E+02  0.60577E+05
 0.18749998E+02  0.54637E+05
 0.18799999E+02  0.47407E+05
 0.18849998E+02  0.39710E+05
 0.18900000E+02  0.31276E+05
 0.18949999E+02  0.21764E+05
 0.18999998E+02  0.12400E+05
 0.19049999E+02  0.36380E+04
 0.19099998E+02 -0.51772E+04
 0.19150000E+02 -0.13629E+05
 0.19199999E+02 -0.21078E+05
 0.19249998E+02 -0.27920E+05
 0.19299999E+02 -0.33876E+05
 0.19349998E+02 -0.38545E+05
 0.19400000E+02 -0.41915E+05
 0.19449999E+02 -0.43769E+05
 0.19499998E+02 -0.44641E+05
 0.19549999E+02 -0.44989E+05
 0.19599998E+02 -0.44070E+05
 0.19650000E+02 -0.41102E+05
 0.19699999E+02 -0.36698E+05
 0.19749998E+02 -0.32742E+05
 0.19799999E+02 -0.28825E+05
 0.19849998E+02 -0.23543E+05
 0.19900000E+02 -0.17465E+05
 0.19949999E+02 -0.10790E+05
 0.19999998E+02 -0.41058E+04
 0.20049999E+02  0.18038E+04
 0.20099998E+02  0.71847E+04
 0.20150000E+02  0.12405E+05
 0.20199999E+02  0.16943E+05
 0.20249998E+02  0.20546E+05
 0.20299999E+02  0.22940E+05
 0.20349998E+02  0.24640E+05
 0.20399998E+02  0.25946E+05
 0.20449999E+02  0.26377E+05
 0.20499998E+02  0.25845E+05
 0.20549999E+02  0.24234E+05
 0.20599998E+02  0.21275E+05
 0.20649998E+02  0.17599E+05
 0.20699999E+02  0.13765E+05
 0.20749998E+02  0.84118E+04
 0.20799999E+02  0.12399E+04
 0.20849998E+02 -0.66384E+04
 0.20899998E+02 -0.15386E+05
 0.20949999E+02 -0.24460E+05
 0.20999998E+02 -0.32907E+05
 0.21049999E+02 -0.39207E+05
 0.21099998E+02 -0.45682E+05
 0.21149998E+02 -0.52392E+05
 0.21199999E+02 -0.55579E+05
 0.21249998E+02 -0.58878E+05
 0.21299999E+02 -0.57278E+05
 0.21349998E+02 -0.53330E+05
 0.21399998E+02 -0.51185E+05
 0.21449999E+02 -0.44976E+05
 0.21499998E+02 -0.40366E+05
 0.21549999E+02 -0.34931E+05
 0.21599998E+02 -0.24948E+05
 0.21649998E+02 -0.17077E+05
 0.21699999E+02 -0.89393E+04
 0.21749998E+02  0.20478E+04
 0.21799999E+02  0.93991E+04
 0.21849998E+02  0.18809E+05
 0.21899998E+02  0.27711E+05
 0.21949999E+02  0.34340E+05
 0.21999998E+02  0.43413E+05
 0.22049999E+02  0.49762E+05
 0.22099998E+02  0.53861E+05
 0.22149998E+02  0.57684E+05
 0.22199999E+02  0.58730E+05
 0.22249998E+02  0.56214E+05
 0.22299999E+02  0.51861E+05
 0.22349998E+02  0.48062E+05
 0.22399998E+02  0.44914E+05
 0.22449999E+02  0.35733E+05
 0.22499998E+02  0.28098E+05
 0.22549999E+02  0.18724E+05
 0.22599998E+02  0.93683E+04
 0.22649998E+02  0.16871E+04
 0.22699999E+02 -0.48574E+04
 0.22749998E+02 -0.59207E+04
 0.22799999E+02 -0.74113E+04
 0.22849998E+02 -0.10809E+05
 0.22899998E+02 -0.10356E+05
 0.22949999E+02 -0.12527E+05
 0.22999998E+02 -0.11958E+05
 0.23049999E+02 -0.94245E+04
 0.23099998E+02 -0.89660E+04
 0.23149998E+02 -0.20103E+04
 0.23199999E+02 -0.54015E+03
 0.23249998E+02  0.49175E+04
 0.23299999E+02  0.13487E+05
 0.23349998E+02  0.19312E+05
 0.23399998E+02  0.21149E+05
 0.23449999E+02  0.27228E+05
 0.23499998E+02  0.33745E+05
 0.23549999E+02  0.39631E+05
 0.23599998E+02  0.47796E+05
 0.23649998E+02  0.49432E+05
 0.23699999E+02  0.48296E+05
 0.23749998E+02  0.51222E+05
 0.23799999E+02  0.58173E+05
 0.23849998E+02  0.59882E+05
 0.23899998E+02  0.63494E+05
 0.23949999E+02  0.60312E+05
 0.23999998E+02  0.57917E+05
 0.24049999E+02  0.56888E+05
 0.24099998E+02  0.51405E+05
 0.24149998E+02  0.51898E+05
 0.24199999E+02  0.46149E+05
 0.24249998E+02  0.40927E+05
 0.24299999E+02  0.39732E+05
 0.24349998E+02  0.36855E+05
 0.24399998E+02  0.36444E+05
 0.24449999E+02  0.36524E+05
 0.24499998E+02  0.31525E+05
 0.24549999E+02  0.30770E+05
 0.24599998E+02  0.27923E+05
 0.24649998E+02  0.22914E+05
 0.24699999E+02  0.27646E+05
 0.24749998E+02  0.24652E+05
 0.24799999E+02  0.29102E+05
 0.24849998E+02  0.22017E+05
 0.24899998E+02  0.93539E+04
 0.24949999E+02  0.17645E+05
 0.24999998E+02  0.13332E+05
 0.25049999E+02  0.73429E+04
 0.25099998E+02  0.22502E+04
 0.25149998E+02 -0.56875E+04
 0.25199999E+02 -0.12379E+05
 0.25249998E+02 -0.11453E+05
 0.25299999E+02 -0.81726E+04
 0.25349998E+02 -0.62597E+04
 0.25399998E+02 -0.99001E+04
 0.25449999E+02 -0.16532E+05
 0.25499998E+02 -0.19464E+05
 0.25549999E+02 -0.26644E+05
 0.25599998E+02 -0.33520E+05
 0.25649998E+02 -0.49717E+05
 0.25699999E+02 -0.53474E+05
 0.25749998E+02 -0.46560E+05
 0.25799999E+02 -0.53934E+05
 0.25849998E+02 -0.59441E+05
 0.25899998E+02 -0.61395E+05
 0.25949999E+02 -0.62068E+05
 0.25999998E+02 -0.52742E+05
 0.26049999E+02 -0.51092E+05
 0.26099998E+02 -0.51529E+05
 0.26149998E+02 -0.49391E+05
 0.26199999E+02 -0.48311E+05
 0.26249998E+02 -0.40398E+05
 0.26299999E+02 -0.43756E+05
 0.26349998E+02 -0.39613E+05
 0.26399998E+02 -0.33882E+05
 0.26449999E+02 -0.41951E+05
 0.26499998E+02 -0.31446E+05
 0.26549999E+02 -0.19324E+05
 0.26599998E+02 -0.14033E+05
 0.26649998E+02 -0.16215E+05
 0.26699999E+02 -0.46683E+04
 0.26749998E+02  0.12159E+05
 0.26799999E+02  0.11133E+05
 0.26849998E+02  0.14098E+05
 0.26899998E+02  0.11902E+05
 0.26949999E+02  0.14635E+05
 0.26999998E+02  0.15301E+05
 0.27049997E+02  0.11618E+05
 0.27099998E+02  0.15854E+05
 0.27149998E+02  0.21321E+05
 0.27199999E+02  0.18143E+05
 0.27249998E+02  0.11626E+05
 0.27299997E+02  0.18160E+05
 0.27349998E+02  0.19474E+05
 0.27399998E+02  0.81121E+04
 0.27449999E+02 -0.47478E+04
 0.27499998E+02 -0.14518E+05
 0.27549997E+02 -0.15402E+05
 0.27599998E+02 -0.15739E+05
 0.27649998E+02 -0.18471E+05
 0.27699999E+02 -0.34554E+05
 0.27749998E+02 -0.52261E+05
 0.27799997E+02 -0.66191E+05
 0.27849998E+02 -0.64824E+05
 0.27899998E+02 -0.48744E+05
 0.27949999E+02 -0.52104E+05
 0.27999998E+02 -0.53170E+05
 0.28049997E+02 -0.45065E+05
 0.28099998E+02 -0.42282E+05
 0.28149998E+02 -0.36243E+05
 0.28199999E+02 -0.41234E+05
 0.28249998E+02 -0.48807E+05
 0.28299997E+02 -0.36738E+05
 0.28349998E+02 -0.34444E+05
 0.28399998E+02 -0.30072E+05
 0.28449999E+02 -0.16440E+05
 0.28499998E+02 -0.34488E+04
 0.28549997E+02  0.17588E+05
 0.28599998E+02  0.19615E+05
 0.28649998E+02  0.82744E+04
 0.28699999E+02  0.17764E+05
 0.28749998E+02  0.10371E+05
 0.28799997E+02  0.40307E+04
 0.28849998E+02  0.26567E+05
 0.28899998E+02  0.17977E+05
 0.28949999E+02  0.44383E+04
 0.28999998E+02 -0.33765E+04
 0.29049997E+02 -0.23806E+05
 0.29099998E+02 -0.21274E+05
 0.29149998E+02 -0.14056E+05
 0.29199999E+02 -0.75795E+04
 0.29249998E+02  0.10803E+05
 0.29299997E+02  0.20769E+05
 0.29349998E+02  0.26352E+05
 0.29399998E+02  0.28484E+05
 0.29449999E+02  0.20875E+05
 0.29499998E+02  0.26567E+05
 0.29549997E+02  0.32447E+05
 0.29599998E+02  0.34504E+05
 0.29649998E+02  0.32668E+05
 0.29699999E+02  0.10600E+05
 0.29749998E+02  0.23663E+04
 0.29799997E+02  0.39104E+04
 0.29849998E+02  0.28689E+04
 0.29899998E+02 -0.53522E+04
 0.29949999E+02 -0.17177E+05
 0.29999998E+02 -0.30856E+05
 0.30049999E+02 -0.34218E+05
 0.30099998E+02 -0.34387E+05
 0.30149998E+02 -0.45086E+05
 0.30199997E+02 -0.37429E+05
 0.30249996E+02 -0.22473E+05
 0.30299999E+02 -0.16112E+05
 0.30349998E+02 -0.10945E+05
 0.30399998E+02 -0.17335E+05
 0.30449997E+02 -0.41194E+05
 0.30499996E+02 -0.53567E+05
 0.30549999E+02 -0.59352E+05
 0.30599998E+02 -0.48654E+05
 0.30649998E+02 -0.51164E+05
 0.30699997E+02 -0.77595E+05
 0.30749996E+02 -0.83942E+05
 0.30799999E+02 -0.84873E+05
 0.30849998E+02 -0.82239E+05
 0.30899998E+02 -0.82231E+05
 0.30949997E+02 -0.88076E+05
 0.30999996E+02 -0.76513E+05
 0.31049999E+02 -0.57257E+05
 0.31099998E+02 -0.50962E+05
 0.31149998E+02 -0.38268E+05
 0.31199997E+02 -0.42619E+05
 0.31249996E+02 -0.59064E+05
 0.31299999E+02 -0.44495E+05
 0.31349998E+02 -0.29958E+05
 0.31399998E+02 -0.25817E+05
 0.31449997E+02 -0.15488E+05
 0.31499996E+02 -0.76064E+04
 0.31549999E+02 -0.12262E+03
 0.31599998E+02  0.11136E+05
 0.31649998E+02  0.31198E+05
 0.31699997E+02  0.32853E+05
 0.31749996E+02  0.27543E+05
 0.31799999E+02  0.46621E+05
 0.31849998E+02  0.48820E+05
 0.31899998E+02  0.27158E+05
 0.31949997E+02  0.16959E+05
 0.31999996E+02  0.20574E+05
 0.32049999E+02  0.26949E+04
 0.32099998E+02 -0.45424E+04
 0.32149998E+02 -0.17295E+05
 0.32199997E+02 -0.30708E+05
 0.32249996E+02 -0.18723E+05
 0.32299999E+02 -0.23640E+05
 0.32349998E+02 -0.15449E+05
 0.32399998E+02 -0.14945E+05
 0.32449997E+02 -0.22325E+05
 0.32499996E+02 -0.16222E+05
 0.32549999E+02 -0.15480E+05
 0.32599998E+02 -0.13815E+05
 0.32649998E+02 -0.15439E+05
 0.32699997E+02  0.15294E+04
 0.32749996E+02  0.43352E+05
 0.32799999E+02  0.54294E+05
 0.32849998E+02  0.48064E+05
 0.32899998E+02  0.13584E+05
 0.32949997E+02 -0.25944E+05
 0.32999996E+02 -0.38795E+05
 0.33049999E+02 -0.40183E+05
 0.33099998E+02 -0.16432E+05
 0.33149998E+02 -0.18383E+05
 0.33199997E+02 -0.30610E+05
 0.33249996E+02 -0.48712E+05
 0.33299999E+02 -0.54280E+05
 0.33349998E+02 -0.36610E+05
 0.33399998E+02 -0.67782E+04
 0.33449997E+02  0.21996E+05
 0.33499996E+02  0.28536E+05
 0.33549999E+02  0.33735E+05
 0.33599998E+02  0.36293E+05
 0.33649998E+02  0.42828E+05
 0.33699997E+02  0.55744E+05
 0.33749996E+02  0.69294E+05
 0.33799999E+02  0.84736E+05
 0.33849998E+02  0.93229E+05
 0.33899998E+02  0.78134E+05
 0.33949997E+02  0.57424E+05
 0.33999996E+02  0.40939E+05
 0.34049999E+02  0.33998E+05
 0.34099998E+02  0.20599E+05
 0.34149998E+02  0.27280E+04
 0.34199997E+02 -0.86585E+04
 0.34249996E+02 -0.10248E+05
 0.34299999E+02  0.58995E+04
 0.34349998E+02  0.14297E+05
 0.34399998E+02  0.17835E+05
 0.34449997E+02  0.23479E+05
 0.34499996E+02  0.28508E+05
 0.34549999E+02  0.23841E+05
 0.34599998E+02  0.63731E+04
 0.34649998E+02 -0.58095E+03
 0.34699997E+02 -0.13939E+05
 0.34749996E+02 -0.28326E+05
 0.34799999E+02 -0.41667E+05
 0.34849998E+02 -0.66056E+05
 0.34899998E+02 -0.64768E+05
 0.34949997E+02 -0.54435E+05
 0.34999996E+02 -0.31014E+05
 0.35049999E+02 -0.11366E+05
 0.35099998E+02  0.13952E+04
 0.35149998E+02  0.10333E+05
 0.35199997E+02 -0.21044E+05
 0.35249996E+02 -0.49978E+05
 0.35299999E+02 -0.47677E+05
 0.35349998E+02 -0.44521E+05
 0.35399998E+02 -0.69499E+05
 0.35449997E+02 -0.76082E+05
 0.35499996E+02 -0.64644E+05
 0.35549999E+02 -0.52335E+05
 0.35599998E+02 -0.40330E+05
 0.35649998E+02 -0.34723E+05
 0.35699997E+02 -0.16602E+05
 0.35749996E+02  0.66791E+03
 0.35799999E+02 -0.17441E+05
 0.35849998E+02 -0.43377E+05
 0.35899998E+02 -0.31932E+05
 0.35949997E+02 -0.33598E+05
 0.35999996E+02 -0.53566E+05
 0.36049999E+02 -0.78652E+05
 0.36099998E+02 -0.11439E+06
 0.36149998E+02 -0.15657E+06
 0.36199997E+02 -0.16424E+06
 0.36249996E+02 -0.13494E+06
 0.36299999E+02 -0.83178E+05
 0.36349998E+02 -0.14590E+05
 0.36399998E+02  0.10423E+05
 0.36449997E+02 -0.15267E+05
 0.36499996E+02 -0.33201E+05
 0.36549999E+02 -0.22840E+05
 0.36599998E+02 -0.85354E+04
 0.36649998E+02  0.10995E+05
 0.36699997E+02  0.19286E+05
 0.36749996E+02 -0.67530E+04
 0.36799999E+02 -0.49168E+05
 0.36849998E+02 -0.47799E+05
 0.36899998E+02 -0.42193E+05
 0.36949997E+02 -0.17153E+05
 0.36999996E+02  0.44306E+05
 0.37049999E+02  0.10115E+06
 0.37099998E+02  0.15968E+06
 0.37149998E+02  0.17593E+06
 0.37199997E+02  0.17664E+06
 0.37249996E+02  0.19005E+06
 0.37299999E+02  0.22641E+06
 0.37349998E+02  0.24428E+06
 0.37399998E+02  0.24864E+06
 0.37449997E+02  0.22198E+06
 0.37499996E+02  0.18357E+06
 0.37549999E+02  0.19190E+06
 0.37599998E+02  0.18396E+06
 0.37649998E+02  0.17750E+06
 0.37699997E+02  0.19039E+06
 0.37749996E+02  0.18512E+06
 0.37799999E+02  0.20151E+06
 0.37849998E+02  0.23483E+06
 0.37899998E+02  0.23048E+06
 0.37949997E+02  0.18986E+06
 0.37999996E+02  0.86057E+05
 0.38049999E+02  0.17733E+05
 0.38099998E+02 -0.17260E+05
 0.38149998E+02 -0.11274E+05
 0.38199997E+02  0.12540E+05
 0.38249996E+02 -0.36904E+04
 0.38299999E+02 -0.13386E+05
 0.38349998E+02  0.19250E+04
 0.38399998E+02  0.21144E+05
 0.38449997E+02  0.44856E+04
 0.38499996E+02 -0.44690E+04
 0.38549999E+02 -0.33940E+05
 0.38599998E+02 -0.36007E+05
 0.38649998E+02  0.82783E+04
 0.38699997E+02  0.39373E+05
 0.38749996E+02  0.37194E+05
 0.38799999E+02  0.36228E+05
 0.38849998E+02  0.16299E+05
 0.38899998E+02  0.18884E+05
 0.38949997E+02  0.58169E+05
 0.38999996E+02  0.71355E+05
 0.39049999E+02  0.96587E+05
 0.39099998E+02  0.11647E+06
 0.39149998E+02  0.13502E+06
 0.39199997E+02  0.17028E+06
 0.39249996E+02  0.21914E+06
 0.39299999E+02  0.26114E+06
 0.39349998E+02  0.28482E+06
 0.39399998E+02  0.27786E+06
 0.39449997E+02  0.26190E+06
 0.39499996E+02  0.24335E+06
 0.39549999E+02  0.17672E+06
 0.39599998E+02  0.11265E+06
 0.39649998E+02  0.89116E+05
 0.39699997E+02  0.86973E+05
 0.39749996E+02  0.64907E+05
 0.39799999E+02  0.49661E+05
 0.39849998E+02  0.75376E+05
 0.39899998E+02  0.98785E+05
 0.39949997E+02  0.11189E+06
 0.39999996E+02  0.51926E+05
 0.40049999E+02 -0.13331E+05
 0.40099998E+02 -0.31607E+05
 0.40149998E+02 -0.63880E+05
 0.40199997E+02 -0.11521E+05
 0.40249996E+02  0.46853E+05
 0.40299999E+02  0.34569E+05
 0.40349998E+02  0.68069E+05
 0.40399998E+02  0.10403E+06
 0.40449997E+02  0.93317E+05
 0.40499996E+02  0.61932E+05
 0.40549999E+02  0.69786E+04
 0.40599998E+02 -0.33074E+05
 0.40649998E+02 -0.58649E+04
 0.40699997E+02 -0.23974E+04
 0.40749996E+02 -0.35052E+05
 0.40799999E+02 -0.45717E+05
 0.40849998E+02 -0.54859E+05
 0.40899998E+02 -0.68361E+05
 0.40949997E+02 -0.11418E+06
 0.40999996E+02 -0.20984E+06
 0.41049999E+02 -0.24671E+06
 0.41099998E+02 -0.20069E+06
 0.41149998E+02 -0.15642E+06
 0.41199997E+02 -0.12594E+06
 0.41249996E+02 -0.10433E+06
 0.41299999E+02 -0.66432E+05
 0.41349998E+02 -0.26378E+05
 0.41399998E+02  0.56497E+05
 0.41449997E+02  0.12734E+06
 0.41499996E+02  0.10115E+06
 0.41549999E+02  0.22759E+05
 0.41599998E+02  0.16360E+05
 0.41649998E+02  0.10644E+06
 0.41699997E+02  0.17663E+06
 0.41749996E+02  0.18695E+06
 0.41799999E+02  0.19011E+06
 0.41849998E+02  0.21843E+06
 0.41899998E+02  0.22648E+06
 0.41949997E+02  0.22663E+06
 0.41999996E+02  0.20940E+06
 0.42049999E+02  0.21327E+06
 0.42099998E+02  0.23035E+06
 0.42149998E+02  0.22278E+06
 0.42199997E+02  0.23576E+06
 0.42249996E+02  0.19427E+06
 0.42299999E+02  0.14625E+06
 0.42349998E+02  0.10520E+06
 0.42399998E+02  0.69858E+05
 0.42449997E+02  0.86531E+05
 0.42499996E+02  0.11756E+06
 0.42549999E+02  0.15391E+06
 0.42599998E+02  0.15115E+06
 0.42649998E+02  0.14731E+06
 0.42699997E+02  0.12570E+06
 0.42749996E+02  0.12795E+06
 0.42799995E+02  0.14057E+06
 0.42849998E+02  0.12723E+06
 0.42899998E+02  0.15537E+06
 0.42949997E+02  0.17171E+06
 0.42999996E+02  0.15308E+06
 0.43049995E+02  0.11879E+06
 0.43099998E+02  0.60069E+05
 0.43149998E+02  0.60160E+04
 0.43199997E+02 -0.24650E+05
 0.43249996E+02 -0.54532E+05
 0.43299995E+02 -0.95680E+05
 0.43349998E+02 -0.16424E+06
 0.43399998E+02 -0.22532E+06
 0.43449997E+02 -0.22810E+06
 0.43499996E+02 -0.15300E+06
 0.43549995E+02 -0.10750E+06
 0.43599998E+02 -0.14955E+06
 0.43649998E+02 -0.23680E+06
 0.43699997E+02 -0.30030E+06
 0.43749996E+02 -0.29974E+06
 0.43799995E+02 -0.26407E+06
 0.43849998E+02 -0.21789E+06
 0.43899998E+02 -0.18202E+06
 0.43949997E+02 -0.11638E+06
 0.43999996E+02 -0.63420E+05
 0.44049995E+02 -0.56456E+05
 0.44099998E+02 -0.25152E+05
 0.44149998E+02  0.16702E+05
 0.44199997E+02  0.39956E+05
 0.44249996E+02  0.66015E+05
 0.44299995E+02  0.52233E+05
 0.44349998E+02 -0.12805E+05
 0.44399998E+02 -0.71868E+05
 0.44449997E+02 -0.91712E+05
 0.44499996E+02 -0.83376E+05
 0.44549995E+02 -0.12591E+06
 0.44599998E+02 -0.20759E+06
 0.44649998E+02 -0.22328E+06
 0.44699997E+02 -0.15520E+06
 0.44749996E+02 -0.31597E+05
 0.44799995E+02  0.98625E+05
 0.44849998E+02  0.18879E+06
 0.44899998E+02  0.18414E+06
 0.44949997E+02  0.82482E+05
 0.44999996E+02 -0.72019E+05
 0.45049995E+02 -0.16224E+06
 0.45099998E+02 -0.13575E+06
 0.45149998E+02 -0.63343E+05
 0.45199997E+02  0.46699E+04
 0.45249996E+02  0.16674E+05
 0.45299995E+02 -0.34987E+04
 0.45349998E+02 -0.50647E+05
 0.45399998E+02 -0.70852E+05
 0.45449997E+02 -0.59263E+04
 0.45499996E+02  0.79138E+05
 0.45549995E+02  0.11714E+06
 0.45599998E+02  0.15325E+06
 0.45649998E+02  0.18510E+06
 0.45699997E+02  0.95073E+05
 0.45749996E+02 -0.75696E+05
 0.45799995E+02 -0.21718E+06
 0.45849998E+02 -0.25064E+06
 0.45899998E+02 -0.23485E+06
 0.45949997E+02 -0.23800E+06
 0.45999996E+02 -0.26797E+06
 0.46049995E+02 -0.29721E+06
 0.46099998E+02 -0.26842E+06
 0.46149998E+02 -0.25707E+06
 0.46199997E+02 -0.21076E+06
 0.46249996E+02 -0.18174E+06
 0.46299995E+02 -0.19552E+06
 0.46349998E+02 -0.19543E+06
 0.46399998E+02 -0.18932E+06
 0.46449997E+02 -0.21328E+06
 0.46499996E+02 -0.29870E+06
 0.46549995E+02 -0.37679E+06
 0.46599998E+02 -0.42539E+06
 0.46649998E+02 -0.43632E+06
 0.46699997E+02 -0.43540E+06
 0.46749996E+02 -0.43631E+06
 0.46799995E+02 -0.45835E+06
 0.46849998E+02 -0.47368E+06
 0.46899998E+02 -0.47278E+06
 0.46949997E+02 -0.46101E+06
 0.46999996E+02 -0.40033E+06
 0.47049995E+02 -0.27880E+06
 0.47099998E+02 -0.16556E+06
 0.47149998E+02 -0.14148E+06
 0.47199997E+02 -0.16893E+06
 0.47249996E+02 -0.22874E+06
 0.47299995E+02 -0.34139E+06
 0.47349998E+02 -0.44929E+06
 0.47399998E+02 -0.53633E+06
 0.47449997E+02 -0.59904E+06
 0.47499996E+02 -0.62973E+06
 0.47549995E+02 -0.57954E+06
 0.47599998E+02 -0.39428E+06
 0.47649998E+02 -0.17157E+06
 0.47699997E+02  0.45341E+05
 0.47749996E+02  0.20104E+06
 0.47799995E+02  0.24657E+06
 0.47849998E+02  0.20582E+06
 0.47899998E+02  0.13550E+06
 0.47949997E+02  0.11451E+06
 0.47999996E+02  0.14192E+06
 0.48049995E+02  0.18466E+06
 0.48099998E+02  0.16989E+06
 0.48149998E+02  0.17374E+06
 0.48199997E+02  0.21633E+06
 0.48249996E+02  0.31887E+06
 0.48299995E+02  0.44103E+06
 0.48349998E+02  0.49570E+06
 0.48399998E+02  0.49374E+06
 0.48449997E+02  0.41279E+06
 0.48499996E+02  0.36020E+06
 0.48549995E+02  0.34137E+06
 0.48599998E+02  0.35942E+06
 0.48649998E+02  0.39042E+06
 0.48699997E+02  0.38863E+06
 0.48749996E+02  0.29850E+06
 0.48799995E+02  0.15744E+06
 0.48849998E+02  0.73872E+05
 0.48899998E+02  0.43821E+05
 0.48949997E+02  0.52385E+05
 0.48999996E+02  0.81524E+05
 0.49049995E+02  0.70282E+05
 0.49099998E+02  0.63069E+05
 0.49149998E+02  0.95400E+05
 0.49199997E+02  0.10078E+06
 0.49249996E+02  0.95205E+05
 0.49299995E+02  0.61558E+05
 0.49349998E+02  0.20449E+05
 0.49399998E+02 -0.81573E+04
 0.49449997E+02  0.11793E+05
 0.49499996E+02  0.36006E+05
 0.49549995E+02 -0.40830E+05
 0.49599998E+02 -0.16029E+06
 0.49649998E+02 -0.24123E+06
 0.49699997E+02 -0.30314E+06
 0.49749996E+02 -0.39725E+06
 0.49799995E+02 -0.48337E+06
 0.49849998E+02 -0.49522E+06
 0.49899998E+02 -0.50757E+06
 0.49949997E+02 -0.55042E+06
 0.49999996E+02 -0.62578E+06
 0.50049995E+02 -0.69651E+06
 0.50099998E+02 -0.71439E+06
 0.50149998E+02 -0.72804E+06
 0.50199997E+02 -0.76807E+06
 0.50249996E+02 -0.83738E+06
 0.50299995E+02 -0.87256E+06
 0.50349998E+02 -0.81374E+06
 0.50399998E+02 -0.66978E+06
 0.50449997E+02 -0.54370E+06
 0.50499996E+02 -0.47264E+06
 0.50549995E+02 -0.42836E+06
 0.50599998E+02 -0.39394E+06
 0.50649998E+02 -0.36161E+06
 0.50699997E+02 -0.35321E+06
 0.50749996E+02 -0.40619E+06
 0.50799995E+02 -0.46348E+06
 0.50849998E+02 -0.46771E+06
 0.50899998E+02 -0.42700E+06
 0.50949997E+02 -0.32936E+06
 0.50999996E+02 -0.18756E+06
 0.51049995E+02 -0.72326E+04
 0.51099998E+02  0.20803E+06
 0.51149998E+02  0.42358E+06
 0.51199997E+02  0.56776E+06
 0.51249996E+02  0.61666E+06
 0.51299995E+02  0.62346E+06
 0.51349998E+02  0.61404E+06
 0.51399998E+02  0.62321E+06
 0.51449997E+02  0.67449E+06
 0.51499996E+02  0.69483E+06
 0.51549995E+02  0.68144E+06
 0.51599998E+02  0.63828E+06
 0.51649998E+02  0.56777E+06
 0.51699997E+02  0.51825E+06
 0.51749996E+02  0.51421E+06
 0.51799995E+02  0.58084E+06
 0.51849998E+02  0.69616E+06
 0.51899998E+02  0.78415E+06
 0.51949997E+02  0.76228E+06
 0.51999996E+02  0.69432E+06
 0.52049995E+02  0.63239E+06
 0.52099998E+02  0.52231E+06
 0.52149998E+02  0.38852E+06
 0.52199997E+02  0.27866E+06
 0.52249996E+02  0.19566E+06
 0.52299995E+02  0.11736E+06
 0.52349998E+02  0.55137E+05
 0.52399998E+02  0.58131E+05
 0.52449997E+02  0.11801E+06
 0.52499996E+02  0.14857E+06
 0.52549995E+02  0.11200E+06
 0.52599998E+02  0.30572E+05
 0.52649998E+02 -0.46975E+05
 0.52699997E+02 -0.10039E+06
 0.52749996E+02 -0.23649E+06
 0.52799995E+02 -0.43239E+06
 0.52849998E+02 -0.56559E+06
 0.52899998E+02 -0.66291E+06
 0.52949997E+02 -0.74014E+06
 0.52999996E+02 -0.77461E+06
 0.53049995E+02 -0.76920E+06
 0.53099998E+02 -0.76198E+06
 0.53149998E+02 -0.78891E+06
 0.53199997E+02 -0.76280E+06
 0.53249996E+02 -0.64310E+06
 0.53299995E+02 -0.50533E+06
 0.53349998E+02 -0.40223E+06
 0.53399998E+02 -0.30988E+06
 0.53449997E+02 -0.17531E+06
 0.53499996E+02 -0.48234E+05
 0.53549995E+02  0.74619E+04
 0.53599998E+02 -0.44848E+05
 0.53649998E+02 -0.14834E+06
 0.53699997E+02 -0.22652E+06
 0.53749996E+02 -0.27253E+06
 0.53799995E+02 -0.25439E+06
 0.53849998E+02 -0.17899E+06
 0.53899998E+02 -0.75696E+05
 0.53949997E+02  0.53161E+04
 0.53999996E+02  0.45274E+05
 0.54049995E+02  0.89815E+05
 0.54099998E+02  0.12552E+06
 0.54149998E+02  0.13506E+06
 0.54199997E+02  0.14758E+06
 0.54249996E+02  0.13779E+06
 0.54299995E+02  0.10247E+06
 0.54349998E+02  0.63654E+05
 0.54399998E+02  0.34032E+05
 0.54449997E+02  0.34190E+05
 0.54499996E+02  0.51006E+05
 0.54549995E+02  0.11169E+06
 0.54599998E+02  0.21322E+06
 0.54649998E+02  0.29785E+06
 0.54699997E+02  0.38245E+06
 0.54749996E+02  0.48303E+06
 0.54799995E+02  0.57007E+06
 0.54849998E+02  0.62400E+06
 0.54899998E+02  0.65716E+06
 0.54949997E+02  0.67387E+06
 0.54999996E+02  0.67243E+06
 0.55049995E+02  0.66717E+06
 0.55099998E+02  0.65021E+06
 0.55149998E+02  0.66434E+06
 0.55199997E+02  0.71444E+06
 0.55249996E+02  0.74837E+06
 0.55299995E+02  0.77184E+06
 0.55349998E+02  0.79904E+06
 0.55399998E+02  0.82582E+06
 0.55449997E+02  0.83270E+06
 0.55499996E+02  0.84366E+06
 0.55549995E+02  0.85116E+06
 0.55599998E+02  0.82082E+06
 0.55649998E+02  0.78221E+06
 0.55699997E+02  0.74858E+06
 0.55749996E+02  0.72375E+06
 0.55799995E+02  0.67692E+06
 0.55849995E+02  0.56713E+06
 0.55899998E+02  0.40486E+06
 0.55949997E+02  0.24466E+06
 0.55999996E+02  0.16311E+06
 0.56049995E+02  0.15986E+06
 0.56099995E+02  0.18675E+06
 0.56149998E+02  0.22356E+06
 0.56199997E+02  0.23712E+06
 0.56249996E+02  0.21675E+06
 0.56299995E+02  0.19478E+06
 0.56349995E+02  0.18112E+06
 0.56399998E+02  0.17663E+06
 0.56449997E+02  0.17839E+06
 0.56499996E+02  0.16984E+06
 0.56549995E+02  0.15118E+06
 0.56599995E+02  0.14977E+06
 0.56649998E+02  0.17313E+06
 0.56699997E+02  0.19923E+06
 0.56749996E+02  0.22454E+06
 0.56799995E+02  0.24024E+06
 0.56849995E+02  0.20054E+06
 0.56899998E+02  0.11701E+06
 0.56949997E+02  0.43850E+05
 0.56999996E+02 -0.45838E+05
 0.57049995E+02 -0.15082E+06
 0.57099995E+02 -0.25047E+06
 0.57149998E+02 -0.32418E+06
 0.57199997E+02 -0.35531E+06
 0.57249996E+02 -0.33538E+06
 0.57299995E+02 -0.27898E+06
 0.57349995E+02 -0.22415E+06
 0.57399998E+02 -0.16148E+06
 0.57449997E+02 -0.10686E+06
 0.57499996E+02 -0.37973E+05
 0.57549995E+02  0.53259E+05
 0.57599995E+02  0.14744E+06
 0.57649998E+02  0.21534E+06
 0.57699997E+02  0.20703E+06
 0.57749996E+02  0.15708E+06
 0.57799995E+02  0.10582E+06
 0.57849995E+02  0.63236E+05
 0.57899998E+02  0.53201E+05
 0.57949997E+02  0.55267E+05
 0.57999996E+02  0.87647E+04
 0.58049995E+02 -0.88005E+05
 0.58099995E+02 -0.17955E+06
 0.58149998E+02 -0.23206E+06
 0.58199997E+02 -0.22861E+06
 0.58249996E+02 -0.18816E+06
 0.58299995E+02 -0.14651E+06
 0.58349995E+02 -0.12819E+06
 0.58399998E+02 -0.15016E+06
 0.58449997E+02 -0.18719E+06
 0.58499996E+02 -0.22462E+06
 0.58549995E+02 -0.25280E+06
 0.58599995E+02 -0.25451E+06
 0.58649998E+02 -0.23934E+06
 0.58699997E+02 -0.22761E+06
 0.58749996E+02 -0.19777E+06
 0.58799995E+02 -0.13186E+06
 0.58849995E+02 -0.57968E+05
 0.58899998E+02 -0.91638E+04
 0.58949997E+02 -0.11938E+05
 0.58999996E+02 -0.63378E+05
 0.59049995E+02 -0.12033E+06
 0.59099995E+02 -0.16765E+06
 0.59149998E+02 -0.22580E+06
 0.59199997E+02 -0.26913E+06
 0.59249996E+02 -0.27101E+06
 0.59299995E+02 -0.20281E+06
 0.59349995E+02 -0.87401E+05
 0.59399998E+02  0.13506E+05
 0.59449997E+02  0.90216E+05
 0.59499996E+02  0.12203E+06
 0.59549995E+02  0.96356E+05
 0.59599995E+02  0.37270E+05
 0.59649998E+02 -0.14427E+05
 0.59699997E+02 -0.46730E+05
 0.59749996E+02 -0.48799E+05
 0.59799995E+02 -0.12178E+05
 0.59849995E+02  0.45380E+05
 0.59899998E+02  0.12143E+06
 0.59949997E+02  0.19936E+06
 0.59999996E+02  0.26540E+06
 0.60049995E+02  0.31533E+06
 0.60099995E+02  0.34831E+06
 0.60149998E+02  0.36535E+06
 0.60199997E+02  0.36871E+06
 0.60249996E+02  0.37320E+06
 0.60299995E+02  0.36872E+06
 0.60349995E+02  0.32195E+06
 0.60399998E+02  0.23743E+06
 0.60449997E+02  0.10782E+06
 0.60499996E+02 -0.62994E+05
 0.60549995E+02 -0.23033E+06
 0.60599995E+02 -0.37107E+06
 0.60649998E+02 -0.46534E+06
 0.60699997E+02 -0.50092E+06
 0.60749996E+02 -0.50138E+06
 0.60799995E+02 -0.47108E+06
 0.60849995E+02 -0.41427E+06
 0.60899998E+02 -0.41165E+06
 0.60949997E+02 -0.46360E+06
 0.60999996E+02 -0.52018E+06
 0.61049995E+02 -0.57695E+06
 0.61099995E+02 -0.59971E+06
 0.61149998E+02 -0.57637E+06
 0.61199997E+02 -0.52789E+06
 0.61249996E+02 -0.47800E+06
 0.61299995E+02 -0.42907E+06
 0.61349995E+02 -0.37005E+06
 0.61399998E+02 -0.32145E+06
 0.61449997E+02 -0.30411E+06
 0.61499996E+02 -0.31747E+06
 0.61549995E+02 -0.33757E+06
 0.61599995E+02 -0.36978E+06
 0.61649998E+02 -0.42270E+06
 0.61699997E+02 -0.48131E+06
 0.61749996E+02 -0.56208E+06
 0.61799995E+02 -0.64481E+06
 0.61849995E+02 -0.69610E+06
 0.61899998E+02 -0.71665E+06
 0.61949997E+02 -0.71350E+06
 0.61999996E+02 -0.70956E+06
 0.62049995E+02 -0.73307E+06
 0.62099998E+02 -0.78746E+06
 0.62149994E+02 -0.85447E+06
 0.62199997E+02 -0.91147E+06
 0.62249992E+02 -0.94597E+06
 0.62299995E+02 -0.95969E+06
 0.62349998E+02 -0.93264E+06
 0.62399994E+02 -0.87782E+06
 0.62449997E+02 -0.83168E+06
 0.62499992E+02 -0.79269E+06
 0.62549995E+02 -0.74798E+06
 0.62599998E+02 -0.68307E+06
 0.62649994E+02 -0.58218E+06
 0.62699997E+02 -0.44875E+06
 0.62749992E+02 -0.31670E+06
 0.62799995E+02 -0.21376E+06
 0.62849998E+02 -0.15615E+06
 0.62899994E+02 -0.13907E+06
 0.62949997E+02 -0.14519E+06
 0.62999992E+02 -0.14328E+06
 0.63049995E+02 -0.11726E+06
 0.63099998E+02 -0.73240E+05
 0.63149994E+02 -0.45555E+04
 0.63199997E+02  0.58002E+05
 0.63249992E+02  0.98786E+05
 0.63299995E+02  0.15241E+06
 0.63349998E+02  0.21877E+06
 0.63399994E+02  0.27905E+06
 0.63449997E+02  0.34257E+06
 0.63499992E+02  0.38720E+06
 0.63549995E+02  0.39727E+06
 0.63599998E+02  0.35839E+06
 0.63649994E+02  0.29200E+06
 0.63699997E+02  0.26506E+06
 0.63749992E+02  0.28140E+06
 0.63799995E+02  0.33086E+06
 0.63849998E+02  0.40013E+06
 0.63899994E+02  0.48140E+06
 0.63949997E+02  0.55022E+06
 0.63999992E+02  0.58875E+06
 0.64049995E+02  0.59846E+06
 0.64099998E+02  0.57103E+06
 0.64149994E+02  0.50518E+06
 0.64199997E+02  0.39905E+06
 0.64249992E+02  0.28169E+06
 0.64299995E+02  0.18252E+06
 0.64349998E+02  0.89601E+05
 0.64399994E+02 -0.32211E+04
 0.64449997E+02 -0.78581E+05
 0.64499992E+02 -0.13714E+06
 0.64549995E+02 -0.18327E+06
 0.64599998E+02 -0.21228E+06
 0.64649994E+02 -0.21264E+06
 0.64699997E+02 -0.17072E+06
 0.64749992E+02 -0.10872E+06
 0.64799995E+02 -0.54951E+05
 0.64849998E+02 -0.46959E+04
 0.64899994E+02  0.45289E+05
 0.64949997E+02  0.92709E+05
 0.64999992E+02  0.12880E+06
 0.65049995E+02  0.15429E+06
 0.65099998E+02  0.18204E+06
 0.65149994E+02  0.21747E+06
 0.65199997E+02  0.25855E+06
 0.65249992E+02  0.31071E+06
 0.65299995E+02  0.38232E+06
 0.65349998E+02  0.46310E+06
 0.65399994E+02  0.53375E+06
 0.65449997E+02  0.59117E+06
 0.65499992E+02  0.64699E+06
 0.65549995E+02  0.70564E+06
 0.65599998E+02  0.76956E+06
 0.65649994E+02  0.81680E+06
 0.65699997E+02  0.82679E+06
 0.65749992E+02  0.80590E+06
 0.65799995E+02  0.76363E+06
 0.65849998E+02  0.70580E+06
 0.65899994E+02  0.64341E+06
 0.65949997E+02  0.58687E+06
 0.65999992E+02  0.52856E+06
 0.66049995E+02  0.45271E+06
 0.66099998E+02  0.37721E+06
 0.66149994E+02  0.31655E+06
 0.66199997E+02  0.27144E+06
 0.66249992E+02  0.23888E+06
 0.66299995E+02  0.20916E+06
 0.66349998E+02  0.18236E+06
 0.66399994E+02  0.15870E+06
 0.66449997E+02  0.13971E+06
 0.66499992E+02  0.12771E+06
 0.66549995E+02  0.14268E+06
 0.66599998E+02  0.16931E+06
 0.66649994E+02  0.18734E+06
 0.66699997E+02  0.18357E+06
 0.66749992E+02  0.15103E+06
 0.66799995E+02  0.10688E+06
 0.66849998E+02  0.76599E+05
 0.66899994E+02  0.87524E+05
 0.66949997E+02  0.12851E+06
 0.66999992E+02  0.17376E+06
 0.67049995E+02  0.21595E+06
 0.67099998E+02  0.27116E+06
 0.67149994E+02  0.33030E+06
 0.67199997E+02  0.37753E+06
 0.67249992E+02  0.40170E+06
 0.67299995E+02  0.40504E+06
 0.67349998E+02  0.40000E+06
 0.67399994E+02  0.39114E+06
 0.67449997E+02  0.38955E+06
 0.67499992E+02  0.38715E+06
 0.67549995E+02  0.37635E+06
 0.67599998E+02  0.34997E+06
 0.67649994E+02  0.29625E+06
 0.67699997E+02  0.21623E+06
 0.67749992E+02  0.12834E+06
 0.67799995E+02  0.47983E+05
 0.67849998E+02 -0.18590E+05
 0.67899994E+02 -0.82267E+05
 0.67949997E+02 -0.15520E+06
 0.67999992E+02 -0.23416E+06
 0.68049995E+02 -0.29849E+06
 0.68099998E+02 -0.34388E+06
 0.68149994E+02 -0.38314E+06
 0.68199997E+02 -0.40381E+06
 0.68249992E+02 -0.40411E+06
 0.68299995E+02 -0.38300E+06
 0.68349998E+02 -0.35604E+06
 0.68399994E+02 -0.32660E+06
 0.68449997E+02 -0.27841E+06
 0.68499992E+02 -0.22151E+06
 0.68549995E+02 -0.15733E+06
 0.68599998E+02 -0.80834E+05
 0.68649994E+02 -0.88873E+03
 0.68699997E+02  0.68766E+05
 0.68749992E+02  0.11782E+06
 0.68799995E+02  0.15263E+06
 0.68849998E+02  0.17935E+06
 0.68899994E+02  0.20095E+06
 0.68949997E+02  0.24203E+06
 0.68999992E+02  0.29872E+06
 0.69049995E+02  0.35414E+06
 0.69099998E+02  0.40237E+06
 0.69149994E+02  0.43240E+06
 0.69199997E+02  0.44295E+06
 0.69249992E+02  0.42893E+06
 0.69299995E+02  0.39152E+06
 0.69349998E+02  0.33884E+06
 0.69399994E+02  0.28731E+06
 0.69449997E+02  0.24723E+06
 0.69499992E+02  0.22152E+06
 0.69549995E+02  0.19703E+06
 0.69599998E+02  0.15732E+06
 0.69649994E+02  0.11480E+06
 0.69699997E+02  0.62475E+05
 0.69749992E+02  0.50235E+04
 0.69799995E+02 -0.46481E+05
 0.69849998E+02 -0.92764E+05
 0.69899994E+02 -0.13204E+06
 0.69949997E+02 -0.15919E+06
 0.69999992E+02 -0.16459E+06
 0.70049995E+02 -0.16223E+06
 0.70099998E+02 -0.18193E+06
 0.70149994E+02 -0.22624E+06
 0.70199997E+02 -0.28524E+06
 0.70249992E+02 -0.37332E+06
 0.70299995E+02 -0.47380E+06
 0.70349998E+02 -0.54754E+06
 0.70399994E+02 -0.59281E+06
 0.70449997E+02 -0.61496E+06
 0.70499992E+02 -0.62574E+06
 0.70549995E+02 -0.64090E+06
 0.70599998E+02 -0.65129E+06
 0.70649994E+02 -0.65493E+06
 0.70699997E+02 -0.65979E+06
 0.70749992E+02 -0.65768E+06
 0.70799995E+02 -0.64728E+06
 0.70849998E+02 -0.64468E+06
 0.70899994E+02 -0.64930E+06
 0.70949997E+02 -0.66593E+06
 0.70999992E+02 -0.69418E+06
 0.71049995E+02 -0.71780E+06
 0.71099998E+02 -0.72378E+06
 0.71149994E+02 -0.69472E+06
 0.71199997E+02 -0.63256E+06
 0.71249992E+02 -0.55565E+06
 0.71299995E+02 -0.47792E+06
 0.71349998E+02 -0.39127E+06
 0.71399994E+02 -0.30373E+06
 0.71449997E+02 -0.22744E+06
 0.71499992E+02 -0.17063E+06
 0.71549995E+02 -0.15227E+06
 0.71599998E+02 -0.15615E+06
 0.71649994E+02 -0.17230E+06
 0.71699997E+02 -0.19408E+06
 0.71749992E+02 -0.22724E+06
 0.71799995E+02 -0.27193E+06
 0.71849998E+02 -0.29969E+06
 0.71899994E+02 -0.30666E+06
 0.71949997E+02 -0.29345E+06
 0.71999992E+02 -0.27163E+06
 0.72049995E+02 -0.22861E+06
 0.72099998E+02 -0.17197E+06
 0.72149994E+02 -0.12790E+06
 0.72199997E+02 -0.79265E+05
 0.72249992E+02 -0.17996E+05
 0.72299995E+02  0.56304E+05
 0.72349998E+02  0.12785E+06
 0.72399994E+02  0.18592E+06
 0.72449997E+02  0.23385E+06
 0.72499992E+02  0.27614E+06
 0.72549995E+02  0.30328E+06
 0.72599998E+02  0.31185E+06
 0.72649994E+02  0.32454E+06
 0.72699997E+02  0.34875E+06
 0.72749992E+02  0.37304E+06
 0.72799995E+02  0.38829E+06
 0.72849998E+02  0.40432E+06
 0.72899994E+02  0.42777E+06
 0.72949997E+02  0.45469E+06
 0.72999992E+02  0.48393E+06
 0.73049995E+02  0.51247E+06
 0.73099998E+02  0.53362E+06
 0.73149994E+02  0.52897E+06
 0.73199997E+02  0.49423E+06
 0.73249992E+02  0.44247E+06
 0.73299995E+02  0.38951E+06
 0.73349998E+02  0.34230E+06
 0.73399994E+02  0.29535E+06
 0.73449997E+02  0.24383E+06
 0.73499992E+02  0.19550E+06
 0.73549995E+02  0.16238E+06
 0.73599998E+02  0.13915E+06
 0.73649994E+02  0.12071E+06
 0.73699997E+02  0.96171E+05
 0.73749992E+02  0.60015E+05
 0.73799995E+02  0.27222E+05
 0.73849998E+02 -0.96073E+04
 0.73899994E+02 -0.58946E+05
 0.73949997E+02 -0.10102E+06
 0.73999992E+02 -0.13533E+06
 0.74049995E+02 -0.16167E+06
 0.74099998E+02 -0.18189E+06
 0.74149994E+02 -0.20741E+06
 0.74199997E+02 -0.23205E+06
 0.74249992E+02 -0.25896E+06
 0.74299995E+02 -0.27716E+06
 0.74349998E+02 -0.27390E+06
 0.74399994E+02 -0.27107E+06
 0.74449997E+02 -0.28134E+06
 0.74499992E+02 -0.29013E+06
 0.74549995E+02 -0.28864E+06
 0.74599998E+02 -0.27666E+06
 0.74649994E+02 -0.25513E+06
 0.74699997E+02 -0.21762E+06
 0.74749992E+02 -0.15309E+06
 0.74799995E+02 -0.85251E+05
 0.74849998E+02 -0.26312E+05
 0.74899994E+02  0.30376E+05
 0.74949997E+02  0.80126E+05
 0.74999992E+02  0.12671E+06
 0.75049995E+02  0.17439E+06
 0.75099998E+02  0.22352E+06
 0.75149994E+02  0.28253E+06
 0.75199997E+02  0.33862E+06
 0.75249992E+02  0.38068E+06
 0.75299995E+02  0.40771E+06
 0.75349998E+02  0.40994E+06
 0.75399994E+02  0.40108E+06
 0.75449997E+02  0.38356E+06
 0.75499992E+02  0.36396E+06
 0.75549995E+02  0.33685E+06
 0.75599998E+02  0.29689E+06
 0.75649994E+02  0.25534E+06
 0.75699997E+02  0.21751E+06
 0.75749992E+02  0.18945E+06
 0.75799995E+02  0.16543E+06
 0.75849998E+02  0.15130E+06
 0.75899994E+02  0.14348E+06
 0.75949997E+02  0.12008E+06
 0.75999992E+02  0.78596E+05
 0.76049995E+02  0.29422E+05
 0.76099998E+02 -0.31221E+05
 0.76149994E+02 -0.10954E+06
 0.76199997E+02 -0.19826E+06
 0.76249992E+02 -0.28285E+06
 0.76299995E+02 -0.36221E+06
 0.76349998E+02 -0.43982E+06
 0.76399994E+02 -0.50865E+06
 0.76449997E+02 -0.56721E+06
 0.76499992E+02 -0.61909E+06
 0.76549995E+02 -0.66148E+06
 0.76599998E+02 -0.68111E+06
 0.76649994E+02 -0.67432E+06
 0.76699997E+02 -0.64208E+06
 0.76749992E+02 -0.59100E+06
 0.76799995E+02 -0.52921E+06
 0.76849998E+02 -0.46475E+06
 0.76899994E+02 -0.40507E+06
 0.76949997E+02 -0.34223E+06
 0.76999992E+02 -0.27496E+06
 0.77049995E+02 -0.20554E+06
 0.77099998E+02 -0.14257E+06
 0.77149994E+02 -0.90965E+05
 0.77199997E+02 -0.48519E+05
 0.77249992E+02 -0.14316E+05
 0.77299995E+02  0.14150E+05
 0.77349998E+02  0.37617E+05
 0.77399994E+02  0.59157E+05
 0.77449997E+02  0.90326E+05
 0.77499992E+02  0.12464E+06
 0.77549995E+02  0.15592E+06
 0.77599998E+02  0.18982E+06
 0.77649994E+02  0.21801E+06
 0.77699997E+02  0.23779E+06
 0.77749992E+02  0.24801E+06
 0.77799995E+02  0.25107E+06
 0.77849998E+02  0.24605E+06
 0.77899994E+02  0.23519E+06
 0.77949997E+02  0.21472E+06
 0.77999992E+02  0.17828E+06
 0.78049995E+02  0.13937E+06
 0.78099998E+02  0.94066E+05
 0.78149994E+02  0.45921E+05
 0.78199997E+02  0.96229E+04
 0.78249992E+02 -0.73098E+03
 0.78299995E+02  0.80459E+04
 0.78349998E+02  0.15252E+05
 0.78399994E+02  0.37460E+05
 0.78449997E+02  0.81396E+05
 0.78499992E+02  0.13916E+06
 0.78549995E+02  0.20844E+06
 0.78599998E+02  0.28694E+06
 0.78649994E+02  0.37042E+06
 0.78699997E+02  0.44227E+06
 0.78749992E+02  0.50159E+06
 0.78799995E+02  0.54579E+06
 0.78849998E+02  0.56553E+06
 0.78899994E+02  0.57396E+06
 0.78949997E+02  0.58266E+06
 0.78999992E+02  0.60060E+06
 0.79049995E+02  0.61780E+06
 0.79099998E+02  0.62454E+06
 0.79149994E+02  0.63093E+06
 0.79199997E+02  0.64718E+06
 0.79249992E+02  0.66310E+06
 0.79299995E+02  0.66115E+06
 0.79349998E+02  0.63736E+06
 0.79399994E+02  0.58948E+06
 0.79449997E+02  0.52013E+06
 0.79499992E+02  0.43120E+06
 0.79549995E+02  0.33106E+06
 0.79599998E+02  0.22827E+06
 0.79649994E+02  0.12595E+06
 0.79699997E+02  0.19757E+05
 0.79749992E+02 -0.85898E+05
 0.79799995E+02 -0.18327E+06
 0.79849998E+02 -0.27624E+06
 0.79899994E+02 -0.35521E+06
 0.79949997E+02 -0.43215E+06
 0.79999992E+02 -0.52088E+06
 0.80049995E+02 -0.59533E+06
 0.80099998E+02 -0.65660E+06
 0.80149994E+02 -0.72784E+06
 0.80199997E+02 -0.79498E+06
 0.80249992E+02 -0.83978E+06
 0.80299995E+02 -0.87417E+06
 0.80349998E+02 -0.89424E+06
 0.80399994E+02 -0.87734E+06
 0.80449997E+02 -0.84005E+06
 0.80499992E+02 -0.79544E+06
 0.80549995E+02 -0.72743E+06
 0.80599998E+02 -0.63972E+06
 0.80649994E+02 -0.55577E+06
 0.80699997E+02 -0.47750E+06
 0.80749992E+02 -0.39379E+06
 0.80799995E+02 -0.32921E+06
 0.80849998E+02 -0.27786E+06
 0.80899994E+02 -0.21284E+06
 0.80949997E+02 -0.15205E+06
 0.80999992E+02 -0.10261E+06
 0.81049995E+02 -0.46031E+05
 0.81099998E+02  0.30762E+05
 0.81149994E+02  0.11126E+06
 0.81199997E+02  0.17485E+06
 0.81249992E+02  0.22930E+06
 0.81299995E+02  0.27881E+06
 0.81349998E+02  0.30687E+06
 0.81399994E+02  0.31349E+06
 0.81449997E+02  0.32390E+06
 0.81499992E+02  0.33906E+06
 0.81549995E+02  0.34866E+06
 0.81599998E+02  0.36643E+06
 0.81649994E+02  0.38719E+06
 0.81699997E+02  0.40814E+06
 0.81749992E+02  0.43709E+06
 0.81799995E+02  0.46166E+06
 0.81849998E+02  0.47015E+06
 0.81899994E+02  0.45404E+06
 0.81949997E+02  0.43461E+06
 0.81999992E+02  0.41812E+06
 0.82049995E+02  0.40172E+06
 0.82099998E+02  0.38575E+06
 0.82149994E+02  0.36283E+06
 0.82199997E+02  0.33794E+06
 0.82249992E+02  0.30674E+06
 0.82299995E+02  0.27184E+06
 0.82349998E+02  0.22996E+06
 0.82399994E+02  0.18926E+06
 0.82449997E+02  0.14314E+06
 0.82499992E+02  0.83278E+05
 0.82549995E+02  0.28490E+05
 0.82599998E+02 -0.96582E+04
 0.82649994E+02 -0.36652E+05
 0.82699997E+02 -0.60578E+05
 0.82749992E+02 -0.75532E+05
 0.82799995E+02 -0.64561E+05
 0.82849998E+02 -0.35823E+05
 0.82899994E+02 -0.16265E+05
 0.82949997E+02  0.88662E+04
 0.82999992E+02  0.42052E+05
 0.83049995E+02  0.75510E+05
 0.83099998E+02  0.11976E+06
 0.83149994E+02  0.17199E+06
 0.83199997E+02  0.21914E+06
 0.83249992E+02  0.25145E+06
 0.83299995E+02  0.27655E+06
 0.83349998E+02  0.30131E+06
 0.83399994E+02  0.30742E+06
 0.83449997E+02  0.28863E+06
 0.83499992E+02  0.25192E+06
 0.83549995E+02  0.19771E+06
 0.83599998E+02  0.12831E+06
 0.83649994E+02  0.62440E+05
 0.83699997E+02  0.31799E+04
 0.83749992E+02 -0.58556E+05
 0.83799995E+02 -0.11477E+06
 0.83849998E+02 -0.15822E+06
 0.83899994E+02 -0.20672E+06
 0.83949997E+02 -0.26565E+06
 0.83999992E+02 -0.30493E+06
 0.84049995E+02 -0.32667E+06
 0.84099998E+02 -0.34826E+06
 0.84149994E+02 -0.37741E+06
 0.84199997E+02 -0.40519E+06
 0.84249992E+02 -0.42247E+06
 0.84299995E+02 -0.43892E+06
 0.84349998E+02 -0.45291E+06
 0.84399994E+02 -0.46016E+06
 0.84449997E+02 -0.47342E+06
 0.84499992E+02 -0.48883E+06
 0.84549995E+02 -0.50297E+06
 0.84599998E+02 -0.52243E+06
 0.84649994E+02 -0.55275E+06
 0.84699997E+02 -0.58749E+06
 0.84749992E+02 -0.60801E+06
 0.84799995E+02 -0.61188E+06
 0.84849998E+02 -0.59239E+06
 0.84899994E+02 -0.55106E+06
 0.84949997E+02 -0.50025E+06
 0.84999992E+02 -0.44079E+06
 0.85049995E+02 -0.36402E+06
 0.85099998E+02 -0.28256E+06
 0.85149994E+02 -0.21727E+06
 0.85199997E+02 -0.15712E+06
 0.85249992E+02 -0.88339E+05
 0.85299995E+02 -0.21652E+05
 0.85349998E+02  0.40764E+05
 0.85399994E+02  0.10843E+06
 0.85449997E+02  0.17490E+06
 0.85499992E+02  0.24307E+06
 0.85549995E+02  0.31032E+06
 0.85599998E+02  0.36387E+06
 0.85649994E+02  0.40520E+06
 0.85699997E+02  0.43870E+06
 0.85749992E+02  0.46253E+06
 0.85799995E+02  0.46856E+06
 0.85849998E+02  0.45342E+06
 0.85899994E+02  0.41746E+06
 0.85949997E+02  0.36784E+06
 0.85999992E+02  0.31678E+06
 0.86049995E+02  0.27011E+06
 0.86099998E+02  0.22990E+06
 0.86149994E+02  0.20038E+06
 0.86199997E+02  0.17330E+06
 0.86249992E+02  0.14686E+06
 0.86299995E+02  0.12708E+06
 0.86349998E+02  0.10310E+06
 0.86399994E+02  0.85987E+05
 0.86449997E+02  0.86558E+05
 0.86499992E+02  0.90915E+05
 0.86549995E+02  0.93169E+05
 0.86599998E+02  0.10049E+06
 0.86649994E+02  0.11345E+06
 0.86699997E+02  0.11649E+06
 0.86749992E+02  0.10179E+06
 0.86799995E+02  0.87571E+05
 0.86849998E+02  0.86512E+05
 0.86899994E+02  0.83203E+05
 0.86949997E+02  0.71139E+05
 0.86999992E+02  0.60120E+05
 0.87049995E+02  0.55355E+05
 0.87099998E+02  0.61057E+05
 0.87149994E+02  0.60238E+05
 0.87199997E+02  0.56316E+05
 0.87249992E+02  0.67047E+05
 0.87299995E+02  0.74957E+05
 0.87349998E+02  0.68977E+05
 0.87399994E+02  0.46993E+05
 0.87449997E+02  0.19799E+05
 0.87499992E+02  0.28632E+04
 0.87549995E+02 -0.12512E+05
 0.87599991E+02 -0.34095E+05
 0.87649994E+02 -0.54089E+05
 0.87699997E+02 -0.74509E+05
 0.87749992E+02 -0.10878E+06
 0.87799995E+02 -0.14820E+06
 0.87849991E+02 -0.17186E+06
 0.87899994E+02 -0.18596E+06
 0.87949997E+02 -0.20058E+06
 0.87999992E+02 -0.21071E+06
 0.88049995E+02 -0.21616E+06
 0.88099991E+02 -0.22730E+06
 0.88149994E+02 -0.23074E+06
 0.88199997E+02 -0.21708E+06
 0.88249992E+02 -0.18885E+06
 0.88299995E+02 -0.14730E+06
 0.88349991E+02 -0.11518E+06
 0.88399994E+02 -0.94226E+05
 0.88449997E+02 -0.77011E+05
 0.88499992E+02 -0.73939E+05
 0.88549995E+02 -0.83526E+05
 0.88599991E+02 -0.97563E+05
 0.88649994E+02 -0.10819E+06
 0.88699997E+02 -0.11541E+06
 0.88749992E+02 -0.13543E+06
 0.88799995E+02 -0.15476E+06
 0.88849991E+02 -0.16163E+06
 0.88899994E+02 -0.16620E+06
 0.88949997E+02 -0.16978E+06
 0.88999992E+02 -0.17266E+06
 0.89049995E+02 -0.16891E+06
 0.89099991E+02 -0.16327E+06
 0.89149994E+02 -0.16818E+06
 0.89199997E+02 -0.17430E+06
 0.89249992E+02 -0.17133E+06
 0.89299995E+02 -0.16869E+06
 0.89349991E+02 -0.17186E+06
 0.89399994E+02 -0.17698E+06
 0.89449997E+02 -0.16607E+06
 0.89499992E+02 -0.13547E+06
 0.89549995E+02 -0.89887E+05
 0.89599991E+02 -0.31995E+05
 0.89649994E+02  0.30194E+05
 0.89699997E+02  0.92940E+05
 0.89749992E+02  0.14789E+06
 0.89799995E+02  0.20252E+06
 0.89849991E+02  0.26491E+06
 0.89899994E+02  0.32570E+06
 0.89949997E+02  0.37010E+06
 0.89999992E+02  0.40061E+06
 0.90049995E+02  0.43110E+06
 0.90099991E+02  0.45374E+06
 0.90149994E+02  0.45600E+06
 0.90199997E+02  0.43850E+06
 0.90249992E+02  0.41262E+06
 0.90299995E+02  0.39321E+06
 0.90349991E+02  0.37594E+06
 0.90399994E+02  0.35963E+06
 0.90449997E+02  0.34839E+06
 0.90499992E+02  0.34060E+06
 0.90549995E+02  0.32919E+06
 0.90599991E+02  0.31486E+06
 0.90649994E+02  0.30774E+06
 0.90699997E+02  0.30779E+06
 0.90749992E+02  0.30191E+06
 0.90799995E+02  0.28699E+06
 0.90849991E+02  0.27564E+06
 0.90899994E+02  0.26814E+06
 0.90949997E+02  0.26069E+06
 0.90999992E+02  0.25118E+06
 0.91049995E+02  0.24722E+06
 0.91099991E+02  0.23834E+06
 0.91149994E+02  0.22154E+06
 0.91199997E+02  0.20766E+06
 0.91249992E+02  0.18969E+06
 0.91299995E+02  0.17110E+06
 0.91349991E+02  0.15560E+06
 0.91399994E+02  0.14688E+06
 0.91449997E+02  0.15095E+06
 0.91499992E+02  0.16202E+06
 0.91549995E+02  0.17040E+06
 0.91599991E+02  0.17285E+06
 0.91649994E+02  0.16925E+06
 0.91699997E+02  0.15426E+06
 0.91749992E+02  0.11913E+06
 0.91799995E+02  0.68726E+05
 0.91849991E+02  0.73300E+04
 0.91899994E+02 -0.60337E+05
 0.91949997E+02 -0.12944E+06
 0.91999992E+02 -0.19516E+06
 0.92049995E+02 -0.24609E+06
 0.92099991E+02 -0.28655E+06
 0.92149994E+02 -0.31831E+06
 0.92199997E+02 -0.34196E+06
 0.92249992E+02 -0.36135E+06
 0.92299995E+02 -0.37672E+06
 0.92349991E+02 -0.39439E+06
 0.92399994E+02 -0.41910E+06
 0.92449997E+02 -0.44447E+06
 0.92499992E+02 -0.46285E+06
 0.92549995E+02 -0.47584E+06
 0.92599991E+02 -0.48954E+06
 0.92649994E+02 -0.49911E+06
 0.92699997E+02 -0.49959E+06
 0.92749992E+02 -0.49509E+06
 0.92799995E+02 -0.48357E+06
 0.92849991E+02 -0.47105E+06
 0.92899994E+02 -0.46013E+06
 0.92949997E+02 -0.44876E+06
 0.92999992E+02 -0.44270E+06
 0.93049995E+02 -0.44137E+06
 0.93099991E+02 -0.44081E+06
 0.93149994E+02 -0.43476E+06
 0.93199997E+02 -0.41941E+06
 0.93249992E+02 -0.39819E+06
 0.93299995E+02 -0.37144E+06
 0.93349991E+02 -0.34266E+06
 0.93399994E+02 -0.31462E+06
 0.93449997E+02 -0.28148E+06
 0.93499992E+02 -0.24360E+06
 0.93549995E+02 -0.20722E+06
 0.93599991E+02 -0.17300E+06
 0.93649994E+02 -0.13350E+06
 0.93699997E+02 -0.90194E+05
 0.93749992E+02 -0.47706E+05
 0.93799995E+02 -0.65242E+04
 0.93849991E+02  0.35116E+05
 0.93899994E+02  0.78472E+05
 0.93949997E+02  0.10962E+06
 0.93999992E+02  0.13076E+06
 0.94049995E+02  0.15587E+06
 0.94099991E+02  0.18503E+06
 0.94149994E+02  0.21339E+06
 0.94199997E+02  0.23767E+06
 0.94249992E+02  0.24748E+06
 0.94299995E+02  0.24261E+06
 0.94349991E+02  0.23963E+06
 0.94399994E+02  0.23534E+06
 0.94449997E+02  0.22297E+06
 0.94499992E+02  0.21026E+06
 0.94549995E+02  0.20055E+06
 0.94599991E+02  0.18532E+06
 0.94649994E+02  0.16539E+06
 0.94699997E+02  0.14568E+06
 0.94749992E+02  0.12530E+06
 0.94799995E+02  0.10721E+06
 0.94849991E+02  0.91512E+05
 0.94899994E+02  0.78880E+05
 0.94949997E+02  0.69580E+05
 0.94999992E+02  0.59914E+05
 0.95049995E+02  0.51305E+05
 0.95099991E+02  0.46079E+05
 0.95149994E+02  0.41374E+05
 0.95199997E+02  0.40208E+05
 0.95249992E+02  0.48765E+05
 0.95299995E+02  0.64136E+05
 0.95349991E+02  0.92612E+05
 0.95399994E+02  0.13363E+06
 0.95449997E+02  0.17278E+06
 0.95499992E+02  0.20831E+06
 0.95549995E+02  0.24027E+06
 0.95599991E+02  0.26181E+06
 0.95649994E+02  0.26797E+06
 0.95699997E+02  0.26772E+06
 0.95749992E+02  0.26451E+06
 0.95799995E+02  0.25261E+06
 0.95849991E+02  0.22900E+06
 0.95899994E+02  0.19745E+06
 0.95949997E+02  0.16304E+06
 0.95999992E+02  0.13080E+06
 0.96049995E+02  0.10442E+06
 0.96099991E+02  0.79948E+05
 0.96149994E+02  0.63852E+05
 0.96199997E+02  0.61024E+05
 0.96249992E+02  0.60370E+05
 0.96299995E+02  0.54988E+05
 0.96349991E+02  0.45392E+05
 0.96399994E+02  0.28060E+05
 0.96449997E+02  0.52562E+04
 0.96499992E+02 -0.13122E+05
 0.96549995E+02 -0.20833E+05
 0.96599991E+02 -0.15286E+05
 0.96649994E+02 -0.20400E+04
 0.96699997E+02  0.12206E+05
 0.96749992E+02  0.25021E+05
 0.96799995E+02  0.38630E+05
 0.96849991E+02  0.55606E+05
 0.96899994E+02  0.72689E+05
 0.96949997E+02  0.93287E+05
 0.96999992E+02  0.11639E+06
 0.97049995E+02  0.13638E+06
 0.97099991E+02  0.15218E+06
 0.97149994E+02  0.16650E+06
 0.97199997E+02  0.18275E+06
 0.97249992E+02  0.19748E+06
 0.97299995E+02  0.20814E+06
 0.97349991E+02  0.21552E+06
 0.97399994E+02  0.21762E+06
 0.97449997E+02  0.21727E+06
 0.97499992E+02  0.21410E+06
 0.97549995E+02  0.20145E+06
 0.97599991E+02  0.18854E+06
 0.97649994E+02  0.18513E+06
 0.97699997E+02  0.18214E+06
 0.97749992E+02  0.17527E+06
 0.97799995E+02  0.16802E+06
 0.97849991E+02  0.16305E+06
 0.97899994E+02  0.15757E+06
 0.97949997E+02  0.14690E+06
 0.97999992E+02  0.13424E+06
