-0.19969940E+01  0.26309E+04
-0.19469941E+01  0.26029E+04
-0.18969940E+01  0.25991E+04
-0.18469940E+01  0.25740E+04
-0.17969940E+01  0.25497E+04
-0.17469940E+01  0.25588E+04
-0.16969941E+01  0.25902E+04
-0.16469941E+01  0.26144E+04
-0.15969940E+01  0.26256E+04
-0.15469940E+01  0.26293E+04
-0.14969940E+01  0.26340E+04
-0.14469941E+01  0.26672E+04
-0.13969941E+01  0.26421E+04
-0.13469940E+01  0.26109E+04
-0.12969941E+01  0.25888E+04
-0.12469940E+01  0.25970E+04
-0.11969941E+01  0.26055E+04
-0.11469941E+01  0.26089E+04
-0.10969940E+01  0.25798E+04
-0.10469941E+01  0.25972E+04
-0.99699408E+00  0.25816E+04
-0.94699407E+00  0.25763E+04
-0.89699411E+00  0.26052E+04
-0.84699404E+00  0.26032E+04
-0.79699409E+00  0.26012E+04
-0.74699414E+00  0.26249E+04
-0.69699407E+00  0.26160E+04
-0.64699411E+00  0.25962E+04
-0.59699416E+00  0.26163E+04
-0.54699409E+00  0.25938E+04
-0.49699414E+00  0.25818E+04
-0.44699407E+00  0.25753E+04
-0.39699411E+00  0.25699E+04
-0.34699416E+00  0.25616E+04
-0.29699409E+00  0.25746E+04
-0.24699414E+00  0.26058E+04
-0.19699407E+00  0.26159E+04
-0.14699411E+00  0.26452E+04
-0.96994162E-01  0.26620E+04
-0.46994090E-01  0.26450E+04
 0.30058622E-02  0.26370E+04
 0.53005934E-01  0.26304E+04
 0.10300589E+00  0.26481E+04
 0.15300584E+00  0.26560E+04
 0.20300579E+00  0.26463E+04
 0.25300574E+00  0.26311E+04
 0.30300593E+00  0.26200E+04
 0.35300589E+00  0.26144E+04
 0.40300584E+00  0.26092E+04
 0.45300579E+00  0.26187E+04
 0.50300574E+00  0.26153E+04
 0.55300593E+00  0.26095E+04
 0.60300589E+00  0.26013E+04
 0.65300584E+00  0.25675E+04
 0.70300579E+00  0.25450E+04
 0.75300574E+00  0.25444E+04
 0.80300570E+00  0.25584E+04
 0.85300589E+00  0.25625E+04
 0.90300584E+00  0.25545E+04
 0.95300579E+00  0.25578E+04
 0.10030057E+01  0.25709E+04
 0.10530057E+01  0.25804E+04
 0.11030059E+01  0.25801E+04
 0.11530058E+01  0.25964E+04
 0.12030058E+01  0.26218E+04
 0.12530057E+01  0.26415E+04
 0.13030057E+01  0.26394E+04
 0.13530059E+01  0.26140E+04
 0.14030058E+01  0.26041E+04
 0.14530058E+01  0.26276E+04
 0.15030057E+01  0.26157E+04
 0.15530057E+01  0.25938E+04
 0.16030059E+01  0.25802E+04
 0.16530058E+01  0.25651E+04
 0.17030058E+01  0.25623E+04
 0.17530057E+01  0.25659E+04
 0.18030057E+01  0.25645E+04
 0.18530056E+01  0.25872E+04
 0.19030058E+01  0.26096E+04
 0.19530058E+01  0.26252E+04
 0.20030057E+01  0.26433E+04
 0.20530057E+01  0.26354E+04
 0.21030059E+01  0.26249E+04
 0.21530056E+01  0.25637E+04
 0.22030058E+01  0.25477E+04
 0.22530055E+01  0.25707E+04
 0.23030057E+01  0.25919E+04
 0.23530059E+01  0.26075E+04
 0.24030056E+01  0.26181E+04
 0.24530058E+01  0.26305E+04
 0.25030055E+01  0.26237E+04
 0.25530057E+01  0.26172E+04
 0.26030059E+01  0.26150E+04
 0.26530056E+01  0.26311E+04
 0.27030058E+01  0.26275E+04
 0.27530055E+01  0.26273E+04
 0.28030057E+01  0.26317E+04
 0.28530059E+01  0.26122E+04
 0.29030056E+01  0.26174E+04
 0.29530058E+01  0.26298E+04
 0.30030055E+01  0.25980E+04
 0.30530057E+01  0.26114E+04
 0.31030059E+01  0.26329E+04
 0.31530056E+01  0.26307E+04
 0.32030058E+01  0.26552E+04
 0.32530055E+01  0.26439E+04
 0.33030057E+01  0.26294E+04
 0.33530059E+01  0.26270E+04
 0.34030056E+01  0.26532E+04
 0.34530058E+01  0.26561E+04
 0.35030055E+01  0.26281E+04
 0.35530057E+01  0.26385E+04
 0.36030054E+01  0.26323E+04
 0.36530056E+01  0.26080E+04
 0.37030058E+01  0.25849E+04
 0.37530055E+01  0.25724E+04
 0.38030057E+01  0.26111E+04
 0.38530054E+01  0.26393E+04
 0.39030056E+01  0.26273E+04
 0.39530058E+01  0.26233E+04
 0.40030055E+01  0.26394E+04
 0.40530057E+01  0.26375E+04
 0.41030054E+01  0.26194E+04
 0.41530056E+01  0.26177E+04
 0.42030058E+01  0.25936E+04
 0.42530055E+01  0.25960E+04
 0.43030057E+01  0.25839E+04
 0.43530054E+01  0.25668E+04
 0.44030056E+01  0.25887E+04
 0.44530058E+01  0.25850E+04
 0.45030055E+01  0.25797E+04
 0.45530057E+01  0.25661E+04
 0.46030054E+01  0.25574E+04
 0.46530056E+01  0.25638E+04
 0.47030058E+01  0.25783E+04
 0.47530055E+01  0.25967E+04
 0.48030057E+01  0.25735E+04
 0.48530054E+01  0.25591E+04
 0.49030056E+01  0.25530E+04
 0.49530058E+01  0.25401E+04
 0.50030055E+01  0.25480E+04
 0.50530057E+01  0.25652E+04
 0.51030054E+01  0.25706E+04
 0.51530056E+01  0.25886E+04
 0.52030058E+01  0.25984E+04
 0.52530055E+01  0.25767E+04
 0.53030057E+01  0.25685E+04
 0.53530054E+01  0.25605E+04
 0.54030056E+01  0.25828E+04
 0.54530053E+01  0.26027E+04
 0.55030055E+01  0.26049E+04
 0.55530057E+01  0.26230E+04
 0.56030054E+01  0.26463E+04
 0.56530056E+01  0.26617E+04
 0.57030053E+01  0.26579E+04
 0.57530055E+01  0.26768E+04
 0.58030057E+01  0.26815E+04
 0.58530054E+01  0.26764E+04
 0.59030056E+01  0.26650E+04
 0.59530053E+01  0.26292E+04
 0.60030055E+01  0.26363E+04
 0.60530052E+01  0.26528E+04
 0.61030054E+01  0.26504E+04
 0.61530056E+01  0.26368E+04
 0.62030058E+01  0.26475E+04
 0.62530050E+01  0.26469E+04
 0.63030052E+01  0.26076E+04
 0.63530054E+01  0.25871E+04
 0.64030056E+01  0.25747E+04
 0.64530058E+01  0.25759E+04
 0.65030050E+01  0.26164E+04
 0.65530052E+01  0.26513E+04
 0.66030054E+01  0.26594E+04
 0.66530056E+01  0.26324E+04
 0.67030058E+01  0.26242E+04
 0.67530050E+01  0.26228E+04
 0.68030052E+01  0.25835E+04
 0.68530054E+01  0.25856E+04
 0.69030056E+01  0.26041E+04
 0.69530058E+01  0.26064E+04
 0.70030050E+01  0.25834E+04
 0.70530052E+01  0.25574E+04
 0.71030054E+01  0.25894E+04
 0.71530056E+01  0.26096E+04
 0.72030058E+01  0.26222E+04
 0.72530050E+01  0.26129E+04
 0.73030052E+01  0.25642E+04
 0.73530054E+01  0.25558E+04
 0.74030056E+01  0.25961E+04
 0.74530058E+01  0.26197E+04
 0.75030050E+01  0.26121E+04
 0.75530052E+01  0.26198E+04
 0.76030054E+01  0.26164E+04
 0.76530056E+01  0.26303E+04
 0.77030058E+01  0.26423E+04
 0.77530050E+01  0.26465E+04
 0.78030052E+01  0.26076E+04
 0.78530054E+01  0.25892E+04
 0.79030056E+01  0.26004E+04
 0.79530058E+01  0.26103E+04
 0.80030050E+01  0.26027E+04
 0.80530052E+01  0.25511E+04
 0.81030054E+01  0.25393E+04
 0.81530056E+01  0.25732E+04
 0.82030058E+01  0.25704E+04
 0.82530050E+01  0.25421E+04
 0.83030052E+01  0.25676E+04
 0.83530054E+01  0.25648E+04
 0.84030056E+01  0.25783E+04
 0.84530058E+01  0.26039E+04
 0.85030050E+01  0.26012E+04
 0.85530052E+01  0.25757E+04
 0.86030054E+01  0.25625E+04
 0.86530056E+01  0.25735E+04
 0.87030058E+01  0.26004E+04
 0.87530050E+01  0.26088E+04
 0.88030052E+01  0.26017E+04
 0.88530054E+01  0.26188E+04
 0.89030056E+01  0.26151E+04
 0.89530058E+01  0.26164E+04
 0.90030050E+01  0.26173E+04
 0.90530052E+01  0.25963E+04
 0.91030054E+01  0.25813E+04
 0.91530056E+01  0.26151E+04
 0.92030048E+01  0.26026E+04
 0.92530050E+01  0.26217E+04
 0.93030052E+01  0.26534E+04
 0.93530054E+01  0.26302E+04
 0.94030056E+01  0.26038E+04
 0.94530048E+01  0.25883E+04
 0.95030050E+01  0.26301E+04
 0.95530052E+01  0.26555E+04
 0.96030054E+01  0.26625E+04
 0.96530056E+01  0.26568E+04
 0.97030048E+01  0.26493E+04
 0.97530050E+01  0.26445E+04
 0.98030052E+01  0.26346E+04
 0.98530054E+01  0.26140E+04
 0.99030056E+01  0.25994E+04
 0.99530048E+01  0.25923E+04
 0.10003005E+02  0.25925E+04
 0.10053005E+02  0.26094E+04
 0.10103005E+02  0.26276E+04
 0.10153006E+02  0.26283E+04
 0.10203005E+02  0.26240E+04
 0.10253005E+02  0.26127E+04
 0.10303005E+02  0.25923E+04
 0.10353005E+02  0.26082E+04
 0.10403006E+02  0.26150E+04
 0.10453005E+02  0.26053E+04
 0.10503005E+02  0.26050E+04
 0.10553005E+02  0.26139E+04
 0.10603005E+02  0.26153E+04
 0.10653006E+02  0.26155E+04
 0.10703005E+02  0.25883E+04
 0.10753005E+02  0.25812E+04
 0.10803005E+02  0.25556E+04
 0.10853005E+02  0.25808E+04
 0.10903006E+02  0.25518E+04
 0.10953005E+02  0.25827E+04
 0.11003005E+02  0.26711E+04
 0.11053005E+02  0.27761E+04
 0.11103005E+02  0.28106E+04
 0.11153006E+02  0.27960E+04
 0.11203005E+02  0.26916E+04
 0.11253005E+02  0.26258E+04
 0.11303005E+02  0.25147E+04
 0.11353005E+02  0.20884E+04
 0.11403006E+02  0.19115E+04
 0.11453005E+02  0.16705E+04
 0.11503005E+02  0.21497E+04
 0.11553005E+02  0.25419E+04
 0.11603005E+02  0.33698E+04
 0.11653006E+02  0.36285E+04
 0.11703005E+02  0.39565E+04
 0.11753005E+02  0.41763E+04
 0.11803005E+02  0.33268E+04
 0.11853005E+02  0.26578E+04
 0.11903006E+02  0.12310E+04
 0.11953005E+02  0.19696E+04
 0.12003005E+02  0.10970E+04
 0.12053005E+02  0.25595E+04
 0.12103005E+02  0.27690E+04
 0.12153006E+02  0.37190E+04
 0.12203005E+02  0.44044E+04
 0.12253005E+02  0.15324E+04
 0.12303005E+02  0.26222E+03
 0.12353005E+02 -0.14228E+03
 0.12403006E+02  0.11593E+04
 0.12453005E+02 -0.15185E+04
 0.12503005E+02  0.19220E+04
 0.12553005E+02  0.72609E+04
 0.12603005E+02  0.59356E+04
 0.12653005E+02  0.69169E+04
 0.12703005E+02  0.65070E+04
 0.12753005E+02  0.25626E+03
 0.12803005E+02  0.96287E+03
 0.12853005E+02  0.34669E+04
 0.12903005E+02  0.72127E+03
 0.12953005E+02 -0.34437E+04
 0.13003005E+02  0.26809E+04
 0.13053005E+02  0.73888E+04
 0.13103005E+02  0.12211E+04
 0.13153005E+02 -0.10102E+04
 0.13203005E+02  0.19896E+04
 0.13253005E+02  0.45237E+04
 0.13303005E+02  0.11260E+04
 0.13353005E+02  0.47186E+04
 0.13403005E+02  0.60950E+04
 0.13453005E+02  0.31925E+04
 0.13503005E+02 -0.21129E+04
 0.13553005E+02  0.59431E+04
 0.13603005E+02  0.12510E+05
 0.13653005E+02 -0.16391E+04
 0.13703005E+02 -0.32683E+04
 0.13753005E+02  0.21847E+04
 0.13803005E+02  0.33498E+04
 0.13853005E+02 -0.25643E+04
 0.13903005E+02  0.19583E+04
 0.13953005E+02  0.40750E+04
 0.14003005E+02  0.16356E+04
 0.14053005E+02  0.63197E+04
 0.14103004E+02  0.70363E+04
 0.14153006E+02  0.74056E+04
 0.14203005E+02 -0.38114E+04
 0.14253004E+02 -0.81179E+04
 0.14303005E+02  0.19860E+04
 0.14353004E+02  0.41441E+04
 0.14403006E+02  0.53855E+04
 0.14453005E+02  0.83790E+04
 0.14503004E+02  0.13043E+05
 0.14553005E+02  0.14448E+04
 0.14603004E+02 -0.21939E+04
 0.14653006E+02 -0.20396E+02
 0.14703005E+02 -0.10497E+05
 0.14753004E+02  0.26954E+04
 0.14803005E+02  0.10301E+05
 0.14853004E+02  0.92880E+04
 0.14903006E+02  0.65095E+03
 0.14953005E+02 -0.88465E+04
 0.15003004E+02  0.65006E+04
 0.15053005E+02  0.11692E+05
 0.15103004E+02  0.67808E+04
 0.15153006E+02 -0.32852E+04
 0.15203005E+02 -0.13708E+04
 0.15253004E+02  0.55543E+04
 0.15303005E+02 -0.17010E+04
 0.15353004E+02  0.45128E+04
 0.15403006E+02  0.68016E+04
 0.15453005E+02 -0.24876E+03
 0.15503004E+02 -0.65127E+04
 0.15553005E+02  0.50496E+04
 0.15603004E+02  0.11923E+05
 0.15653006E+02  0.10276E+05
 0.15703005E+02 -0.34598E+04
 0.15753004E+02 -0.81366E+04
 0.15803005E+02  0.34350E+04
 0.15853004E+02  0.53187E+04
 0.15903006E+02  0.76710E+04
 0.15953005E+02  0.25420E+04
 0.16003004E+02 -0.24018E+04
 0.16053005E+02 -0.62255E+04
 0.16103004E+02  0.26806E+04
 0.16153006E+02  0.98809E+04
 0.16203005E+02  0.10990E+05
 0.16253004E+02  0.68053E+03
 0.16303005E+02  0.49533E+04
 0.16353004E+02  0.94175E+04
 0.16403006E+02  0.30331E+04
 0.16453005E+02 -0.58175E+04
 0.16503004E+02 -0.59482E+04
 0.16553005E+02  0.87378E+03
 0.16603004E+02 -0.46847E+04
 0.16653006E+02  0.97371E+04
 0.16703005E+02  0.56594E+04
 0.16753004E+02  0.84926E+04
 0.16803005E+02  0.29122E+04
 0.16853004E+02 -0.27336E+04
 0.16903006E+02  0.67836E+04
 0.16953005E+02  0.46906E+04
 0.17003004E+02  0.68213E+04
 0.17053005E+02 -0.13529E+03
 0.17103004E+02  0.34691E+04
 0.17153006E+02  0.48385E+04
 0.17203005E+02 -0.32222E+04
 0.17253004E+02  0.41932E+04
 0.17303005E+02  0.16755E+03
 0.17353004E+02 -0.57624E+04
 0.17403006E+02  0.51359E+03
 0.17453005E+02  0.75789E+04
 0.17503004E+02  0.10616E+05
 0.17553005E+02  0.24034E+04
 0.17603004E+02  0.34974E+04
 0.17653006E+02  0.17098E+04
 0.17703005E+02  0.67035E+04
 0.17753004E+02 -0.10210E+04
 0.17803005E+02 -0.60224E+04
 0.17853004E+02  0.30700E+04
 0.17903006E+02  0.23880E+04
 0.17953005E+02  0.76156E+04
 0.18003004E+02  0.72459E+04
 0.18053005E+02  0.18952E+04
 0.18103004E+02 -0.39300E+04
 0.18153006E+02  0.29551E+04
 0.18203005E+02  0.99914E+04
 0.18253004E+02  0.16711E+04
 0.18303005E+02 -0.74525E+04
 0.18353004E+02  0.51217E+04
 0.18403006E+02  0.13233E+05
 0.18453005E+02  0.32016E+04
 0.18503004E+02 -0.36598E+04
 0.18553005E+02 -0.26025E+04
 0.18603004E+02  0.14998E+04
 0.18653006E+02  0.44447E+04
 0.18703005E+02  0.70322E+04
 0.18753004E+02  0.28540E+04
 0.18803005E+02  0.95237E+04
 0.18853004E+02  0.56541E+04
 0.18903006E+02  0.51727E+04
 0.18953005E+02  0.96173E+02
 0.19003004E+02 -0.62330E+04
 0.19053005E+02 -0.18485E+03
 0.19103004E+02 -0.40237E+04
 0.19153006E+02  0.33849E+04
 0.19203005E+02  0.17728E+05
 0.19253004E+02  0.30808E+05
 0.19303005E+02  0.27683E+05
 0.19353004E+02  0.19278E+05
 0.19403006E+02 -0.14616E+05
 0.19453005E+02 -0.35018E+05
 0.19503004E+02 -0.39161E+05
 0.19553005E+02 -0.36390E+05
 0.19603004E+02 -0.23334E+03
 0.19653006E+02  0.22216E+05
 0.19703005E+02  0.31696E+05
 0.19753004E+02  0.37799E+05
 0.19803005E+02  0.33452E+05
 0.19853004E+02 -0.15795E+04
 0.19903006E+02 -0.33417E+05
 0.19953005E+02 -0.30408E+05
 0.20003004E+02 -0.10202E+05
 0.20053005E+02 -0.99239E+04
 0.20103004E+02  0.70283E+04
 0.20153006E+02  0.39681E+05
 0.20203005E+02  0.44990E+05
 0.20253004E+02  0.40210E+05
 0.20303005E+02 -0.93002E+04
 0.20353004E+02 -0.49975E+05
 0.20403004E+02 -0.45141E+05
 0.20453005E+02 -0.45262E+05
 0.20503004E+02  0.21689E+05
 0.20553005E+02  0.61529E+05
 0.20603004E+02  0.42889E+05
 0.20653004E+02  0.47178E+05
 0.20703005E+02 -0.29582E+05
 0.20753004E+02 -0.57790E+05
 0.20803005E+02 -0.16875E+05
 0.20853004E+02  0.12266E+05
 0.20903004E+02  0.99973E+03
 0.20953005E+02  0.79348E+04
 0.21003004E+02  0.57810E+05
 0.21053005E+02 -0.30617E+04
 0.21103004E+02 -0.83557E+04
 0.21153004E+02 -0.25074E+04
 0.21203005E+02  0.39275E+04
 0.21253004E+02  0.94496E+04
 0.21303005E+02 -0.19884E+05
 0.21353004E+02 -0.94399E+04
 0.21403004E+02 -0.13314E+05
 0.21453005E+02  0.10762E+05
 0.21503004E+02  0.13683E+05
 0.21553005E+02  0.24973E+05
 0.21603004E+02  0.46737E+04
 0.21653004E+02  0.49480E+04
 0.21703005E+02  0.41039E+04
 0.21753004E+02 -0.11614E+05
 0.21803005E+02 -0.14147E+05
 0.21853004E+02 -0.14704E+05
 0.21903004E+02  0.31948E+05
 0.21953005E+02  0.39119E+05
 0.22003004E+02  0.70057E+04
 0.22053005E+02 -0.34147E+05
 0.22103004E+02 -0.19275E+05
 0.22153004E+02 -0.10784E+05
 0.22203005E+02 -0.80675E+04
 0.22253004E+02  0.10131E+05
 0.22303005E+02  0.15302E+05
 0.22353004E+02  0.21710E+05
 0.22403004E+02  0.68882E+04
 0.22453005E+02 -0.22679E+03
 0.22503004E+02 -0.98717E+04
 0.22553005E+02 -0.67833E+03
 0.22603004E+02  0.15891E+05
 0.22653004E+02  0.14165E+05
 0.22703005E+02  0.16665E+05
 0.22753004E+02  0.18961E+05
 0.22803005E+02  0.11051E+05
 0.22853004E+02 -0.24877E+05
 0.22903004E+02 -0.41363E+05
 0.22953005E+02 -0.27573E+05
 0.23003004E+02  0.15285E+05
 0.23053005E+02  0.31620E+05
 0.23103004E+02  0.29093E+05
 0.23153004E+02  0.19494E+05
 0.23203005E+02 -0.13792E+05
 0.23253004E+02 -0.15047E+05
 0.23303005E+02 -0.32592E+05
 0.23353004E+02 -0.21393E+05
 0.23403004E+02  0.16798E+05
 0.23453005E+02  0.46524E+05
 0.23503004E+02  0.26197E+05
 0.23553005E+02  0.12460E+05
 0.23603004E+02  0.14216E+05
 0.23653004E+02 -0.24264E+05
 0.23703005E+02 -0.25140E+05
 0.23753004E+02 -0.21966E+04
 0.23803005E+02  0.88345E+04
 0.23853004E+02  0.51061E+04
 0.23903004E+02  0.18747E+05
 0.23953005E+02  0.15167E+05
 0.24003004E+02  0.54065E+04
 0.24053005E+02 -0.19043E+05
 0.24103004E+02  0.44267E+04
 0.24153004E+02  0.17262E+05
 0.24203005E+02 -0.14663E+05
 0.24253004E+02 -0.14695E+05
 0.24303005E+02 -0.11382E+05
 0.24353004E+02  0.10569E+05
 0.24403004E+02  0.82480E+04
 0.24453005E+02  0.12996E+05
 0.24503004E+02  0.58439E+04
 0.24553005E+02  0.36211E+04
 0.24603004E+02  0.86359E+04
 0.24653004E+02  0.48746E+04
 0.24703005E+02  0.31337E+04
 0.24753004E+02 -0.13517E+05
 0.24803005E+02 -0.33957E+04
 0.24853004E+02  0.93476E+04
 0.24903004E+02  0.10666E+05
 0.24953005E+02  0.11967E+05
 0.25003004E+02  0.25789E+04
 0.25053005E+02 -0.14942E+05
 0.25103004E+02 -0.10462E+05
 0.25153004E+02 -0.98524E+03
 0.25203005E+02 -0.21321E+04
 0.25253004E+02  0.12939E+05
 0.25303005E+02  0.24514E+05
 0.25353004E+02  0.18077E+05
 0.25403004E+02  0.45970E+04
 0.25453005E+02  0.65813E+03
 0.25503004E+02 -0.44337E+04
 0.25553005E+02 -0.27522E+04
 0.25603004E+02  0.31016E+04
 0.25653004E+02 -0.31872E+04
 0.25703005E+02 -0.46604E+03
 0.25753004E+02 -0.22819E+04
 0.25803005E+02 -0.98554E+04
 0.25853004E+02  0.85850E+04
 0.25903004E+02  0.16324E+05
 0.25953005E+02  0.13419E+05
 0.26003004E+02  0.44612E+04
 0.26053005E+02 -0.45455E+04
 0.26103004E+02 -0.48815E+04
 0.26153004E+02  0.32482E+04
 0.26203005E+02  0.14630E+05
 0.26253004E+02  0.15540E+05
 0.26303005E+02  0.10217E+05
 0.26353004E+02 -0.58142E+04
 0.26403004E+02 -0.66603E+04
 0.26453005E+02  0.12014E+04
 0.26503004E+02 -0.80084E+04
 0.26553005E+02 -0.20170E+05
 0.26603004E+02 -0.95428E+04
 0.26653004E+02 -0.39706E+03
 0.26703005E+02  0.25464E+05
 0.26753004E+02  0.33738E+05
 0.26803005E+02  0.11560E+05
 0.26853004E+02  0.13988E+04
 0.26903004E+02 -0.73462E+04
 0.26953005E+02 -0.12510E+05
 0.27003004E+02 -0.13104E+05
 0.27053003E+02  0.36525E+04
 0.27103004E+02  0.13792E+05
 0.27153004E+02  0.94627E+04
 0.27203005E+02  0.16445E+04
 0.27253004E+02 -0.60997E+03
 0.27303003E+02  0.56055E+03
 0.27353004E+02  0.12354E+05
 0.27403004E+02  0.13256E+05
 0.27453005E+02  0.69818E+04
 0.27503004E+02 -0.35904E+04
 0.27553003E+02 -0.11268E+05
 0.27603004E+02  0.17921E+04
 0.27653004E+02  0.28204E+04
 0.27703005E+02 -0.65125E+04
 0.27753004E+02 -0.46153E+04
 0.27803003E+02  0.78851E+03
 0.27853004E+02 -0.19676E+04
 0.27903004E+02  0.15724E+05
 0.27953005E+02  0.14704E+05
 0.28003004E+02  0.41497E+04
 0.28053003E+02 -0.15087E+04
 0.28103004E+02 -0.57064E+04
 0.28153004E+02 -0.43678E+04
 0.28203005E+02  0.16287E+04
 0.28253004E+02  0.66618E+04
 0.28303003E+02  0.10099E+05
 0.28353004E+02  0.10762E+05
 0.28403004E+02 -0.69668E+03
 0.28453005E+02 -0.53149E+04
 0.28503004E+02 -0.99093E+04
 0.28553003E+02  0.21404E+04
 0.28603004E+02  0.10460E+05
 0.28653004E+02  0.22002E+05
 0.28703005E+02  0.11566E+05
 0.28753004E+02  0.18821E+04
 0.28803003E+02 -0.41592E+04
 0.28853004E+02 -0.92496E+04
 0.28903004E+02  0.20749E+03
 0.28953005E+02  0.24903E+03
 0.29003004E+02  0.14010E+05
 0.29053003E+02  0.10627E+05
 0.29103004E+02 -0.59775E+03
 0.29153004E+02 -0.78105E+04
 0.29203005E+02 -0.20936E+04
 0.29253004E+02  0.22630E+04
 0.29303003E+02  0.71643E+04
 0.29353004E+02  0.68624E+04
 0.29403004E+02  0.53270E+04
 0.29453005E+02  0.50416E+04
 0.29503004E+02  0.66988E+04
 0.29553003E+02  0.97192E+04
 0.29603004E+02 -0.38562E+04
 0.29653004E+02 -0.10770E+05
 0.29703005E+02 -0.65555E+04
 0.29753004E+02  0.72995E+04
 0.29803003E+02  0.73233E+04
 0.29853004E+02  0.37043E+04
 0.29903004E+02  0.49921E+04
 0.29953005E+02  0.33043E+04
 0.30003004E+02 -0.38918E+04
 0.30053005E+02 -0.79484E+04
 0.30103004E+02  0.38996E+04
 0.30153004E+02  0.14097E+05
 0.30203003E+02  0.13368E+05
 0.30253002E+02  0.89722E+04
 0.30303005E+02 -0.10279E+04
 0.30353004E+02 -0.79598E+04
 0.30403004E+02 -0.44875E+04
 0.30453003E+02 -0.30203E+03
 0.30503002E+02  0.51664E+04
 0.30553005E+02  0.63817E+04
 0.30603004E+02  0.42590E+04
 0.30653004E+02  0.85529E+04
 0.30703003E+02  0.12674E+05
 0.30753002E+02  0.22918E+04
 0.30803005E+02 -0.35028E+04
 0.30853004E+02 -0.85095E+04
 0.30903004E+02 -0.13383E+05
 0.30953003E+02 -0.68437E+04
 0.31003002E+02  0.41121E+04
 0.31053005E+02  0.20023E+05
 0.31103004E+02  0.18391E+05
 0.31153004E+02  0.97462E+04
 0.31203003E+02  0.59947E+04
 0.31253002E+02  0.39809E+04
 0.31303005E+02 -0.31665E+04
 0.31353004E+02 -0.12242E+05
 0.31403004E+02 -0.48263E+04
 0.31453003E+02  0.32296E+04
 0.31503002E+02  0.84804E+04
 0.31553005E+02  0.11737E+05
 0.31603004E+02  0.97186E+04
 0.31653004E+02  0.48817E+04
 0.31703003E+02 -0.22263E+04
 0.31753002E+02 -0.73809E+04
 0.31803005E+02 -0.25122E+04
 0.31853004E+02  0.68642E+04
 0.31903004E+02  0.46779E+04
 0.31953003E+02 -0.10032E+03
 0.32003002E+02  0.53258E+04
 0.32053005E+02  0.35116E+04
 0.32103004E+02 -0.19504E+04
 0.32153004E+02  0.37283E+04
 0.32203003E+02  0.78122E+04
 0.32253002E+02  0.92758E+03
 0.32303005E+02 -0.23589E+04
 0.32353004E+02  0.58947E+04
 0.32403004E+02  0.94365E+04
 0.32453003E+02  0.55130E+04
 0.32503002E+02  0.21835E+04
 0.32553005E+02  0.95764E+03
 0.32603004E+02  0.50550E+04
 0.32653004E+02  0.98030E+04
 0.32703003E+02  0.73033E+03
 0.32753002E+02 -0.91157E+04
 0.32803005E+02 -0.11447E+05
 0.32853004E+02 -0.92038E+03
 0.32903004E+02  0.94488E+04
 0.32953003E+02  0.97525E+04
 0.33003002E+02  0.33444E+04
 0.33053005E+02 -0.90995E+04
 0.33103004E+02 -0.56731E+04
 0.33153004E+02  0.64489E+04
 0.33203003E+02  0.73479E+04
 0.33253002E+02  0.61206E+04
 0.33303005E+02  0.62852E+04
 0.33353004E+02 -0.72994E+03
 0.33403004E+02  0.10324E+04
 0.33453003E+02  0.59696E+04
 0.33503002E+02  0.41110E+04
 0.33553005E+02  0.38803E+04
 0.33603004E+02  0.97174E+04
 0.33653004E+02  0.90455E+04
 0.33703003E+02  0.16697E+04
 0.33753002E+02 -0.43454E+04
 0.33803005E+02 -0.19360E+04
 0.33853004E+02  0.75791E+04
 0.33903004E+02  0.52859E+04
 0.33953003E+02 -0.32036E+02
 0.34003002E+02 -0.15212E+04
 0.34053005E+02  0.13040E+04
 0.34103004E+02 -0.21155E+04
 0.34153004E+02 -0.49318E+04
 0.34203003E+02 -0.24990E+04
 0.34253002E+02  0.11090E+04
 0.34303005E+02  0.11195E+05
 0.34353004E+02  0.17777E+05
 0.34403004E+02  0.11868E+05
 0.34453003E+02  0.74253E+03
 0.34503002E+02 -0.45788E+04
 0.34553005E+02 -0.19278E+04
 0.34603004E+02  0.72096E+03
 0.34653004E+02 -0.48434E+03
 0.34703003E+02  0.79843E+04
 0.34753002E+02  0.15375E+05
 0.34803005E+02  0.42331E+04
 0.34853004E+02 -0.52869E+04
 0.34903004E+02 -0.54905E+04
 0.34953003E+02 -0.32157E+04
 0.35003002E+02 -0.45927E+04
 0.35053005E+02 -0.37729E+04
 0.35103004E+02  0.61105E+04
 0.35153004E+02  0.16043E+05
 0.35203003E+02  0.19386E+05
 0.35253002E+02  0.75547E+04
 0.35303005E+02 -0.30841E+04
 0.35353004E+02 -0.58861E+04
 0.35403004E+02 -0.48463E+04
 0.35453003E+02 -0.36578E+04
 0.35503002E+02 -0.18831E+04
 0.35553005E+02  0.36042E+04
 0.35603004E+02  0.73247E+04
 0.35653004E+02  0.11040E+05
 0.35703003E+02  0.83991E+04
 0.35753002E+02 -0.73243E+03
 0.35803005E+02 -0.26986E+04
 0.35853004E+02  0.22549E+03
 0.35903004E+02  0.19653E+04
 0.35953003E+02  0.45158E+04
 0.36003002E+02  0.29354E+04
 0.36053005E+02  0.35208E+04
 0.36103004E+02  0.56283E+04
 0.36153004E+02  0.82100E+04
 0.36203003E+02  0.11979E+05
 0.36253002E+02  0.81125E+04
 0.36303005E+02  0.67878E+04
 0.36353004E+02  0.86333E+03
 0.36403004E+02 -0.60327E+04
 0.36453003E+02 -0.48830E+04
 0.36503002E+02 -0.13886E+04
 0.36553005E+02  0.14615E+04
 0.36603004E+02 -0.34949E+04
 0.36653004E+02 -0.29728E+04
 0.36703003E+02  0.97656E+02
 0.36753002E+02  0.50833E+04
 0.36803005E+02  0.13050E+05
 0.36853004E+02  0.11206E+05
 0.36903004E+02  0.14015E+04
 0.36953003E+02 -0.34899E+04
 0.37003002E+02 -0.26121E+04
 0.37053005E+02  0.10158E+04
 0.37103004E+02  0.85907E+04
 0.37153004E+02  0.66243E+04
 0.37203003E+02 -0.75921E+03
 0.37253002E+02  0.38401E+04
 0.37303005E+02  0.89667E+04
 0.37353004E+02  0.73436E+04
 0.37403004E+02  0.95935E+03
 0.37453003E+02 -0.51699E+04
 0.37503002E+02 -0.17631E+04
 0.37553005E+02 -0.48596E+04
 0.37603004E+02 -0.61871E+04
 0.37653004E+02 -0.14666E+04
 0.37703003E+02  0.85777E+04
 0.37753002E+02  0.12058E+05
 0.37803005E+02  0.31304E+04
 0.37853004E+02 -0.61892E+03
 0.37903004E+02  0.20861E+04
 0.37953003E+02  0.74128E+04
 0.38003002E+02  0.83591E+04
 0.38053005E+02  0.72224E+04
 0.38103004E+02 -0.11666E+04
 0.38153004E+02 -0.24454E+04
 0.38203003E+02  0.24856E+04
 0.38253002E+02  0.58028E+04
 0.38303005E+02  0.20606E+04
 0.38353004E+02 -0.38576E+04
 0.38403004E+02  0.82211E+02
 0.38453003E+02  0.40943E+04
 0.38503002E+02  0.67721E+04
 0.38553005E+02  0.81492E+04
 0.38603004E+02  0.30596E+04
 0.38653004E+02 -0.33564E+04
 0.38703003E+02  0.17114E+04
 0.38753002E+02  0.62881E+04
 0.38803005E+02  0.62646E+04
 0.38853004E+02  0.50657E+04
 0.38903004E+02  0.45870E+04
 0.38953003E+02  0.26694E+04
 0.39003002E+02  0.35579E+03
 0.39053005E+02 -0.47705E+04
 0.39103004E+02 -0.60407E+04
 0.39153004E+02  0.23305E+04
 0.39203003E+02  0.83810E+04
 0.39253002E+02  0.57454E+04
 0.39303005E+02  0.25495E+04
 0.39353004E+02  0.29657E+04
 0.39403004E+02  0.45667E+03
 0.39453003E+02 -0.44162E+04
 0.39503002E+02 -0.56151E+04
 0.39553005E+02  0.38433E+04
 0.39603004E+02  0.84099E+04
 0.39653004E+02  0.12610E+05
 0.39703003E+02  0.10958E+05
 0.39753002E+02  0.48565E+04
 0.39803005E+02 -0.14201E+04
 0.39853004E+02 -0.57640E+04
 0.39903004E+02  0.11772E+04
 0.39953003E+02  0.40851E+04
 0.40003002E+02  0.33137E+04
 0.40053005E+02  0.27778E+04
 0.40103004E+02  0.36260E+04
 0.40153004E+02  0.40482E+04
 0.40203003E+02  0.45747E+04
 0.40253002E+02  0.57038E+04
 0.40303005E+02  0.60760E+04
 0.40353004E+02  0.74043E+04
 0.40403004E+02  0.43813E+04
 0.40453003E+02 -0.25661E+04
 0.40503002E+02 -0.56460E+04
 0.40553005E+02 -0.70685E+04
 0.40603004E+02 -0.23730E+04
 0.40653004E+02  0.36455E+04
 0.40703003E+02  0.69893E+04
 0.40753002E+02  0.74645E+04
 0.40803005E+02  0.54982E+04
 0.40853004E+02  0.33825E+04
 0.40903004E+02 -0.15007E+04
 0.40953003E+02 -0.35867E+04
 0.41003002E+02  0.91318E+03
 0.41053005E+02  0.75295E+04
 0.41103004E+02  0.90379E+04
 0.41153004E+02  0.71970E+04
 0.41203003E+02  0.35913E+04
 0.41253002E+02  0.11783E+03
 0.41303005E+02 -0.99403E+03
 0.41353004E+02  0.17694E+03
 0.41403004E+02  0.29758E+04
 0.41453003E+02  0.44005E+04
 0.41503002E+02  0.37424E+04
 0.41553005E+02  0.37508E+04
 0.41603004E+02  0.43625E+04
 0.41653004E+02  0.33935E+04
 0.41703003E+02  0.92359E+03
 0.41753002E+02  0.12520E+03
 0.41803005E+02  0.14207E+03
 0.41853004E+02  0.19019E+04
 0.41903004E+02  0.31177E+04
 0.41953003E+02  0.47109E+04
 0.42003002E+02  0.58625E+04
 0.42053005E+02  0.33427E+04
 0.42103004E+02  0.18219E+04
 0.42153004E+02  0.93565E+03
 0.42203003E+02  0.72752E+03
 0.42253002E+02  0.17895E+03
 0.42303005E+02  0.42153E+04
 0.42353004E+02  0.58900E+04
 0.42403004E+02  0.30777E+04
 0.42453003E+02  0.19345E+03
 0.42503002E+02 -0.66642E+03
 0.42553005E+02  0.24090E+04
 0.42603004E+02  0.45998E+04
 0.42653004E+02  0.50267E+04
 0.42703003E+02  0.44842E+04
 0.42753002E+02  0.58188E+04
 0.42803001E+02  0.52037E+04
 0.42853004E+02  0.29361E+04
 0.42903004E+02  0.21291E+04
 0.42953003E+02  0.23208E+04
 0.43003002E+02 -0.59204E+02
 0.43053001E+02  0.49578E+03
 0.43103004E+02  0.30276E+04
 0.43153004E+02  0.27695E+04
 0.43203003E+02  0.21927E+04
 0.43253002E+02  0.87141E+03
 0.43303001E+02  0.67755E+03
 0.43353004E+02  0.39552E+03
 0.43403004E+02 -0.26888E+03
 0.43453003E+02  0.12260E+04
 0.43503002E+02  0.37634E+04
 0.43553001E+02  0.35653E+04
 0.43603004E+02  0.25665E+04
 0.43653004E+02  0.18669E+04
 0.43703003E+02  0.16580E+04
 0.43753002E+02  0.22289E+04
 0.43803001E+02  0.51830E+04
 0.43853004E+02  0.67566E+04
 0.43903004E+02  0.56274E+04
 0.43953003E+02  0.35329E+04
 0.44003002E+02  0.73765E+03
 0.44053001E+02 -0.13313E+04
 0.44103004E+02 -0.16133E+04
 0.44153004E+02  0.30023E+04
 0.44203003E+02  0.55294E+04
 0.44253002E+02  0.38012E+04
 0.44303001E+02  0.18614E+04
 0.44353004E+02  0.13897E+04
 0.44403004E+02  0.26211E+04
 0.44453003E+02  0.33021E+04
 0.44503002E+02  0.32193E+04
 0.44553001E+02  0.54265E+04
 0.44603004E+02  0.59029E+04
 0.44653004E+02  0.38411E+04
 0.44703003E+02  0.15173E+04
 0.44753002E+02  0.14513E+03
 0.44803001E+02  0.19455E+04
 0.44853004E+02  0.32792E+04
 0.44903004E+02  0.31902E+04
 0.44953003E+02  0.49007E+04
 0.45003002E+02  0.37578E+04
 0.45053001E+02  0.20162E+04
 0.45103004E+02  0.16867E+04
 0.45153004E+02 -0.30175E+03
 0.45203003E+02 -0.41469E+03
 0.45253002E+02 -0.30323E+03
 0.45303001E+02  0.50633E+03
 0.45353004E+02  0.31950E+04
 0.45403004E+02  0.60152E+04
 0.45453003E+02  0.57449E+04
 0.45503002E+02  0.15981E+04
 0.45553001E+02 -0.10445E+04
 0.45603004E+02  0.13333E+04
 0.45653004E+02  0.38601E+04
 0.45703003E+02  0.49203E+04
 0.45753002E+02  0.47367E+04
 0.45803001E+02  0.28910E+04
 0.45853004E+02  0.27265E+04
 0.45903004E+02  0.29141E+04
 0.45953003E+02  0.20815E+04
 0.46003002E+02  0.22234E+04
 0.46053001E+02  0.30686E+04
 0.46103004E+02  0.27169E+04
 0.46153004E+02  0.16779E+04
 0.46203003E+02  0.32316E+04
 0.46253002E+02  0.44122E+04
 0.46303001E+02  0.38231E+04
 0.46353004E+02  0.40313E+04
 0.46403004E+02  0.19936E+04
 0.46453003E+02  0.18754E+02
 0.46503002E+02 -0.20681E+02
 0.46553001E+02  0.10538E+04
 0.46603004E+02  0.80681E+03
 0.46653004E+02  0.68770E+03
 0.46703003E+02  0.26556E+04
 0.46753002E+02  0.31211E+04
 0.46803001E+02  0.28146E+04
 0.46853004E+02  0.13458E+04
 0.46903004E+02  0.57825E+03
 0.46953003E+02  0.23432E+04
 0.47003002E+02  0.36580E+04
 0.47053001E+02  0.30863E+04
 0.47103004E+02  0.33965E+04
 0.47153004E+02  0.45855E+04
 0.47203003E+02  0.56864E+04
 0.47253002E+02  0.39484E+04
 0.47303001E+02  0.20072E+04
 0.47353004E+02  0.10905E+04
 0.47403004E+02  0.10797E+04
 0.47453003E+02  0.21047E+04
 0.47503002E+02  0.28209E+04
 0.47553001E+02  0.25095E+04
 0.47603004E+02  0.15091E+04
 0.47653004E+02  0.27344E+04
 0.47703003E+02  0.34720E+04
 0.47753002E+02  0.40723E+04
 0.47803001E+02  0.38494E+04
 0.47853004E+02  0.37972E+04
 0.47903004E+02  0.35746E+04
 0.47953003E+02  0.49305E+04
 0.48003002E+02  0.40172E+04
 0.48053001E+02  0.23729E+04
 0.48103004E+02  0.14965E+04
 0.48153004E+02  0.99720E+01
 0.48203003E+02  0.21896E+04
 0.48253002E+02  0.38945E+04
 0.48303001E+02  0.41124E+04
 0.48353004E+02  0.15692E+04
 0.48403004E+02 -0.61560E+03
 0.48453003E+02 -0.92781E+03
 0.48503002E+02  0.53919E+03
 0.48553001E+02  0.20478E+04
 0.48603004E+02  0.30972E+04
 0.48653004E+02  0.40377E+04
 0.48703003E+02  0.50584E+04
 0.48753002E+02  0.52646E+04
 0.48803001E+02  0.55421E+04
 0.48853004E+02  0.60274E+04
 0.48903004E+02  0.36867E+04
 0.48953003E+02  0.17984E+04
 0.49003002E+02  0.11230E+04
 0.49053001E+02  0.17640E+04
 0.49103004E+02  0.17387E+04
 0.49153004E+02  0.24399E+04
 0.49203003E+02  0.30933E+04
 0.49253002E+02  0.30989E+04
 0.49303001E+02  0.18160E+04
 0.49353004E+02  0.62024E+03
 0.49403004E+02  0.27764E+04
 0.49453003E+02  0.35887E+04
 0.49503002E+02  0.34836E+04
 0.49553001E+02  0.32220E+04
 0.49603004E+02  0.39647E+04
 0.49653004E+02  0.49279E+04
 0.49703003E+02  0.31419E+04
 0.49753002E+02  0.76246E+03
 0.49803001E+02  0.10881E+04
 0.49853004E+02  0.18342E+04
 0.49903004E+02  0.21136E+04
 0.49953003E+02  0.29648E+04
 0.50003002E+02  0.30781E+04
 0.50053001E+02  0.39021E+03
 0.50103004E+02 -0.27986E+04
 0.50153004E+02 -0.30316E+04
 0.50203003E+02 -0.26246E+03
 0.50253002E+02  0.35741E+04
 0.50303001E+02  0.57136E+04
 0.50353004E+02  0.53018E+04
 0.50403004E+02  0.48626E+04
 0.50453003E+02  0.53591E+04
 0.50503002E+02  0.30033E+04
 0.50553001E+02  0.92552E+03
 0.50603004E+02  0.11366E+04
 0.50653004E+02  0.18152E+04
 0.50703003E+02  0.28922E+04
 0.50753002E+02  0.34568E+04
 0.50803001E+02  0.26109E+04
 0.50853004E+02  0.20572E+04
 0.50903004E+02  0.22084E+04
 0.50953003E+02  0.38893E+04
 0.51003002E+02  0.41564E+04
 0.51053001E+02  0.24885E+04
 0.51103004E+02  0.20533E+04
 0.51153004E+02  0.15571E+04
 0.51203003E+02  0.53140E+03
 0.51253002E+02  0.25825E+04
 0.51303001E+02  0.44627E+04
 0.51353004E+02  0.36484E+04
 0.51403004E+02  0.32272E+04
 0.51453003E+02  0.29542E+04
 0.51503002E+02  0.34167E+04
 0.51553001E+02  0.22999E+04
 0.51603004E+02  0.19403E+04
 0.51653004E+02  0.22967E+04
 0.51703003E+02  0.32793E+04
 0.51753002E+02  0.44472E+04
 0.51803001E+02  0.48407E+04
 0.51853004E+02  0.48677E+04
 0.51903004E+02  0.39288E+04
 0.51953003E+02  0.33647E+04
 0.52003002E+02  0.29494E+04
 0.52053001E+02  0.21796E+04
 0.52103004E+02  0.11197E+04
 0.52153004E+02  0.11439E+04
 0.52203003E+02  0.65466E+03
 0.52253002E+02  0.12722E+04
 0.52303001E+02  0.34808E+04
 0.52353004E+02  0.37397E+04
 0.52403004E+02  0.46251E+04
 0.52453003E+02  0.46785E+04
 0.52503002E+02  0.21275E+04
 0.52553001E+02  0.63622E+03
 0.52603004E+02  0.76931E+03
 0.52653004E+02  0.96401E+03
 0.52703003E+02  0.95882E+03
 0.52753002E+02  0.12510E+04
 0.52803001E+02  0.12404E+04
 0.52853004E+02  0.15072E+04
 0.52903004E+02  0.18945E+04
 0.52953003E+02  0.33521E+04
 0.53003002E+02  0.41694E+04
 0.53053001E+02  0.35137E+04
 0.53103004E+02  0.24385E+04
 0.53153004E+02  0.22962E+04
 0.53203003E+02  0.38046E+04
 0.53253002E+02  0.24339E+04
 0.53303001E+02  0.24138E+04
 0.53353004E+02  0.35544E+04
 0.53403004E+02  0.22095E+04
 0.53453003E+02  0.13658E+04
 0.53503002E+02  0.17926E+04
 0.53553001E+02  0.26812E+04
 0.53603004E+02  0.40437E+04
 0.53653004E+02  0.40868E+04
 0.53703003E+02  0.14202E+04
 0.53753002E+02  0.92568E+03
 0.53803001E+02  0.81957E+03
 0.53853004E+02  0.65176E+03
 0.53903004E+02  0.18041E+04
 0.53953003E+02  0.16370E+04
 0.54003002E+02  0.20844E+04
 0.54053001E+02  0.38703E+04
 0.54103004E+02  0.44192E+04
 0.54153004E+02  0.27035E+04
 0.54203003E+02  0.89827E+03
 0.54253002E+02  0.23093E+04
 0.54303001E+02  0.47538E+04
 0.54353004E+02  0.50856E+04
 0.54403004E+02  0.45419E+04
 0.54453003E+02  0.44355E+04
 0.54503002E+02  0.43739E+04
 0.54553001E+02  0.45172E+04
 0.54603004E+02  0.38872E+04
 0.54653004E+02  0.27098E+04
 0.54703003E+02  0.24558E+04
 0.54753002E+02  0.28792E+04
 0.54803001E+02  0.29469E+04
 0.54853004E+02  0.17527E+04
 0.54903004E+02  0.10121E+04
 0.54953003E+02  0.16073E+04
 0.55003002E+02  0.29386E+04
 0.55053001E+02  0.37280E+04
 0.55103004E+02  0.32067E+04
 0.55153004E+02  0.15436E+04
 0.55203003E+02  0.89919E+03
 0.55253002E+02  0.20420E+04
 0.55303001E+02  0.20681E+04
 0.55353004E+02  0.11425E+04
 0.55403004E+02  0.22635E+04
 0.55453003E+02  0.39284E+04
 0.55503002E+02  0.34574E+04
 0.55553001E+02  0.26168E+04
 0.55603004E+02  0.26932E+04
 0.55653004E+02  0.21299E+04
 0.55703003E+02  0.19108E+04
 0.55753002E+02  0.19277E+04
 0.55803001E+02  0.18510E+04
 0.55853001E+02  0.19791E+04
 0.55903004E+02  0.25648E+04
 0.55953003E+02  0.17873E+04
 0.56003002E+02  0.38864E+03
 0.56053001E+02  0.15443E+04
 0.56103001E+02  0.27312E+04
 0.56153004E+02  0.33159E+04
 0.56203003E+02  0.25262E+04
 0.56253002E+02  0.21443E+04
 0.56303001E+02  0.22047E+04
 0.56353001E+02  0.17272E+04
 0.56403004E+02  0.16907E+04
 0.56453003E+02  0.20791E+04
 0.56503002E+02  0.33282E+04
 0.56553001E+02  0.41202E+04
 0.56603001E+02  0.45980E+04
 0.56653004E+02  0.49536E+04
 0.56703003E+02  0.45858E+04
 0.56753002E+02  0.35880E+04
 0.56803001E+02  0.33319E+04
 0.56853001E+02  0.36043E+04
 0.56903004E+02  0.31324E+04
 0.56953003E+02  0.22742E+04
 0.57003002E+02  0.21964E+04
 0.57053001E+02  0.22889E+04
 0.57103001E+02  0.22374E+04
 0.57153004E+02  0.25039E+04
 0.57203003E+02  0.27057E+04
 0.57253002E+02  0.27633E+04
 0.57303001E+02  0.29409E+04
 0.57353001E+02  0.27743E+04
 0.57403004E+02  0.25195E+04
 0.57453003E+02  0.27478E+04
 0.57503002E+02  0.22496E+04
 0.57553001E+02  0.16992E+04
 0.57603001E+02  0.14568E+04
 0.57653004E+02  0.14684E+04
 0.57703003E+02  0.16590E+04
 0.57753002E+02  0.12609E+04
 0.57803001E+02  0.17997E+04
 0.57853001E+02  0.31986E+04
 0.57903004E+02  0.42375E+04
 0.57953003E+02  0.42592E+04
 0.58003002E+02  0.33950E+04
 0.58053001E+02  0.34852E+04
 0.58103001E+02  0.34021E+04
 0.58153004E+02  0.27914E+04
 0.58203003E+02  0.28739E+04
 0.58253002E+02  0.21615E+04
 0.58303001E+02  0.10009E+04
 0.58353001E+02  0.13053E+04
 0.58403004E+02  0.18581E+04
 0.58453003E+02  0.22421E+04
 0.58503002E+02  0.18455E+04
 0.58553001E+02  0.11155E+04
 0.58603001E+02  0.10253E+04
 0.58653004E+02  0.13624E+04
 0.58703003E+02  0.26577E+04
 0.58753002E+02  0.30764E+04
 0.58803001E+02  0.34242E+04
 0.58853001E+02  0.28704E+04
 0.58903004E+02  0.23662E+04
 0.58953003E+02  0.27644E+04
 0.59003002E+02  0.21193E+04
 0.59053001E+02  0.26792E+04
 0.59103001E+02  0.31528E+04
 0.59153004E+02  0.32832E+04
 0.59203003E+02  0.32236E+04
 0.59253002E+02  0.29656E+04
 0.59303001E+02  0.33874E+04
 0.59353001E+02  0.32708E+04
 0.59403004E+02  0.27889E+04
 0.59453003E+02  0.24045E+04
 0.59503002E+02  0.19168E+04
 0.59553001E+02  0.27066E+04
 0.59603001E+02  0.31696E+04
 0.59653004E+02  0.26105E+04
 0.59703003E+02  0.31694E+04
 0.59753002E+02  0.38411E+04
 0.59803001E+02  0.44316E+04
 0.59853001E+02  0.41294E+04
 0.59903004E+02  0.31293E+04
 0.59953003E+02  0.16286E+04
 0.60003002E+02  0.71384E+03
 0.60053001E+02  0.20027E+04
 0.60103001E+02  0.33814E+04
 0.60153004E+02  0.33455E+04
 0.60203003E+02  0.22788E+04
 0.60253002E+02  0.91429E+03
 0.60303001E+02  0.19066E+03
 0.60353001E+02  0.41949E+03
 0.60403004E+02  0.17714E+04
 0.60453003E+02  0.28385E+04
 0.60503002E+02  0.36809E+04
 0.60553001E+02  0.41780E+04
 0.60603001E+02  0.37142E+04
 0.60653004E+02  0.29059E+04
 0.60703003E+02  0.25119E+04
 0.60753002E+02  0.30999E+04
 0.60803001E+02  0.40749E+04
 0.60853001E+02  0.47761E+04
 0.60903004E+02  0.37046E+04
 0.60953003E+02  0.20774E+04
 0.61003002E+02  0.12916E+04
 0.61053001E+02  0.23499E+04
 0.61103001E+02  0.33380E+04
 0.61153004E+02  0.36877E+04
 0.61203003E+02  0.34432E+04
 0.61253002E+02  0.26485E+04
 0.61303001E+02  0.18259E+04
 0.61353001E+02  0.11317E+04
 0.61403004E+02  0.14369E+04
 0.61453003E+02  0.20484E+04
 0.61503002E+02  0.28433E+04
 0.61553001E+02  0.24124E+04
 0.61603001E+02  0.11561E+04
 0.61653004E+02  0.61823E+03
 0.61703003E+02  0.89207E+03
 0.61753002E+02  0.17142E+04
 0.61803001E+02  0.29044E+04
 0.61853001E+02  0.30840E+04
 0.61903004E+02  0.33261E+04
 0.61953003E+02  0.37056E+04
 0.62003002E+02  0.34385E+04
 0.62053001E+02  0.28342E+04
 0.62103004E+02  0.21221E+04
 0.62153000E+02  0.24825E+04
 0.62203003E+02  0.33768E+04
 0.62252998E+02  0.26280E+04
 0.62303001E+02  0.14260E+04
 0.62353004E+02  0.11226E+04
 0.62403000E+02  0.12390E+04
 0.62453003E+02  0.23651E+04
 0.62502998E+02  0.38391E+04
 0.62553001E+02  0.47859E+04
 0.62603004E+02  0.44101E+04
 0.62653000E+02  0.37147E+04
 0.62703003E+02  0.28827E+04
 0.62752998E+02  0.32412E+04
 0.62803001E+02  0.39573E+04
 0.62853004E+02  0.35680E+04
 0.62903000E+02  0.28847E+04
 0.62953003E+02  0.23181E+04
 0.63002998E+02  0.24661E+04
 0.63053001E+02  0.19010E+04
 0.63103004E+02  0.13098E+04
 0.63153000E+02  0.14737E+04
 0.63203003E+02  0.21164E+04
 0.63252998E+02  0.30773E+04
 0.63303001E+02  0.40809E+04
 0.63353004E+02  0.43270E+04
 0.63403000E+02  0.34777E+04
 0.63453003E+02  0.22150E+04
 0.63502998E+02  0.10612E+04
 0.63553001E+02  0.34426E+03
 0.63603004E+02  0.88539E+03
 0.63653000E+02  0.16676E+04
 0.63703003E+02  0.21176E+04
 0.63752998E+02  0.27860E+04
 0.63803001E+02  0.36727E+04
 0.63853004E+02  0.40467E+04
 0.63903000E+02  0.36168E+04
 0.63953003E+02  0.32433E+04
 0.64002998E+02  0.29171E+04
 0.64053001E+02  0.21512E+04
 0.64103004E+02  0.12718E+04
 0.64153000E+02  0.16046E+04
 0.64203003E+02  0.21274E+04
 0.64252998E+02  0.24846E+04
 0.64303001E+02  0.22592E+04
 0.64353004E+02  0.15348E+04
 0.64403000E+02  0.10935E+04
 0.64453003E+02  0.13864E+04
 0.64502998E+02  0.13736E+04
 0.64553001E+02  0.64458E+03
 0.64603004E+02  0.14903E+04
 0.64653000E+02  0.30255E+04
 0.64703003E+02  0.41918E+04
 0.64752998E+02  0.43393E+04
 0.64803001E+02  0.39656E+04
 0.64853004E+02  0.33078E+04
 0.64903000E+02  0.26098E+04
 0.64953003E+02  0.30951E+04
 0.65002998E+02  0.32259E+04
 0.65053001E+02  0.30283E+04
 0.65103004E+02  0.32876E+04
 0.65153000E+02  0.30812E+04
 0.65203003E+02  0.23672E+04
 0.65252998E+02  0.20358E+04
 0.65303001E+02  0.24642E+04
 0.65353004E+02  0.37440E+04
 0.65403000E+02  0.40686E+04
 0.65453003E+02  0.34399E+04
 0.65502998E+02  0.33257E+04
 0.65553001E+02  0.32261E+04
 0.65603004E+02  0.30401E+04
 0.65653000E+02  0.21327E+04
 0.65703003E+02  0.18816E+04
 0.65752998E+02  0.21855E+04
 0.65803001E+02  0.20736E+04
 0.65853004E+02  0.24037E+04
 0.65903000E+02  0.30532E+04
 0.65953003E+02  0.32010E+04
 0.66002998E+02  0.27812E+04
 0.66053001E+02  0.23625E+04
 0.66103004E+02  0.21957E+04
 0.66153000E+02  0.25387E+04
 0.66203003E+02  0.24912E+04
 0.66252998E+02  0.25716E+04
 0.66303001E+02  0.31064E+04
 0.66353004E+02  0.36641E+04
 0.66403000E+02  0.32360E+04
 0.66453003E+02  0.27348E+04
 0.66502998E+02  0.31397E+04
 0.66553001E+02  0.31543E+04
 0.66603004E+02  0.24964E+04
 0.66653000E+02  0.17681E+04
 0.66703003E+02  0.11360E+04
 0.66752998E+02  0.85074E+03
 0.66803001E+02  0.20154E+04
 0.66853004E+02  0.26159E+04
 0.66903000E+02  0.19551E+04
 0.66953003E+02  0.15933E+04
 0.67002998E+02  0.18965E+04
 0.67053001E+02  0.24681E+04
 0.67103004E+02  0.30470E+04
 0.67153000E+02  0.34285E+04
 0.67203003E+02  0.33232E+04
 0.67252998E+02  0.33564E+04
 0.67303001E+02  0.32655E+04
 0.67353004E+02  0.26751E+04
 0.67403000E+02  0.17256E+04
 0.67453003E+02  0.12018E+04
 0.67502998E+02  0.18563E+04
 0.67553001E+02  0.27267E+04
 0.67603004E+02  0.30497E+04
 0.67653000E+02  0.32643E+04
 0.67703003E+02  0.34586E+04
 0.67752998E+02  0.36561E+04
 0.67803001E+02  0.38823E+04
 0.67853004E+02  0.38323E+04
 0.67903000E+02  0.31588E+04
 0.67953003E+02  0.26434E+04
 0.68002998E+02  0.28376E+04
 0.68053001E+02  0.27930E+04
 0.68103004E+02  0.22373E+04
 0.68153000E+02  0.17031E+04
 0.68203003E+02  0.16921E+04
 0.68252998E+02  0.21013E+04
 0.68303001E+02  0.27126E+04
 0.68353004E+02  0.32287E+04
 0.68403000E+02  0.28092E+04
 0.68453003E+02  0.18117E+04
 0.68502998E+02  0.87540E+03
 0.68553001E+02  0.61574E+03
 0.68603004E+02  0.11830E+04
 0.68653000E+02  0.17957E+04
 0.68703003E+02  0.20560E+04
 0.68752998E+02  0.25027E+04
 0.68803001E+02  0.27845E+04
 0.68853004E+02  0.28180E+04
 0.68903000E+02  0.31544E+04
 0.68953003E+02  0.32541E+04
 0.69002998E+02  0.30894E+04
 0.69053001E+02  0.25788E+04
 0.69103004E+02  0.25685E+04
 0.69153000E+02  0.25659E+04
 0.69203003E+02  0.25793E+04
 0.69252998E+02  0.27418E+04
 0.69303001E+02  0.28027E+04
 0.69353004E+02  0.27076E+04
 0.69403000E+02  0.22071E+04
 0.69453003E+02  0.21586E+04
 0.69502998E+02  0.24843E+04
 0.69553001E+02  0.28912E+04
 0.69603004E+02  0.31890E+04
 0.69653000E+02  0.31448E+04
 0.69703003E+02  0.26610E+04
 0.69752998E+02  0.22141E+04
 0.69803001E+02  0.19813E+04
 0.69853004E+02  0.23996E+04
 0.69903000E+02  0.28462E+04
 0.69953003E+02  0.29154E+04
 0.70002998E+02  0.29986E+04
 0.70053001E+02  0.29476E+04
 0.70103004E+02  0.30978E+04
 0.70153000E+02  0.30311E+04
 0.70203003E+02  0.29237E+04
 0.70252998E+02  0.27260E+04
 0.70303001E+02  0.25897E+04
 0.70353004E+02  0.27355E+04
 0.70403000E+02  0.26255E+04
 0.70453003E+02  0.26232E+04
 0.70502998E+02  0.29575E+04
 0.70553001E+02  0.31083E+04
 0.70603004E+02  0.29239E+04
 0.70653000E+02  0.24321E+04
 0.70703003E+02  0.19254E+04
 0.70752998E+02  0.21209E+04
 0.70803001E+02  0.28067E+04
 0.70853004E+02  0.29176E+04
 0.70903000E+02  0.27293E+04
 0.70953003E+02  0.27866E+04
 0.71002998E+02  0.28695E+04
 0.71053001E+02  0.33464E+04
 0.71103004E+02  0.36120E+04
 0.71153000E+02  0.32376E+04
 0.71203003E+02  0.25217E+04
 0.71252998E+02  0.21161E+04
 0.71303001E+02  0.17826E+04
 0.71353004E+02  0.19117E+04
 0.71403000E+02  0.24466E+04
 0.71453003E+02  0.25971E+04
 0.71502998E+02  0.21865E+04
 0.71553001E+02  0.14211E+04
 0.71603004E+02  0.13295E+04
 0.71653000E+02  0.18436E+04
 0.71703003E+02  0.26017E+04
 0.71752998E+02  0.30450E+04
 0.71803001E+02  0.36382E+04
 0.71853004E+02  0.39363E+04
 0.71903000E+02  0.37265E+04
 0.71953003E+02  0.29843E+04
 0.72002998E+02  0.23466E+04
 0.72053001E+02  0.23917E+04
 0.72103004E+02  0.25723E+04
 0.72153000E+02  0.28108E+04
 0.72203003E+02  0.26667E+04
 0.72252998E+02  0.21315E+04
 0.72303001E+02  0.15535E+04
 0.72353004E+02  0.13748E+04
 0.72403000E+02  0.13363E+04
 0.72453003E+02  0.19682E+04
 0.72502998E+02  0.30667E+04
 0.72553001E+02  0.34138E+04
 0.72603004E+02  0.28986E+04
 0.72653000E+02  0.25522E+04
 0.72703003E+02  0.27409E+04
 0.72752998E+02  0.26805E+04
 0.72803001E+02  0.27747E+04
 0.72853004E+02  0.28711E+04
 0.72903000E+02  0.27909E+04
 0.72953003E+02  0.29488E+04
 0.73002998E+02  0.28172E+04
 0.73053001E+02  0.24520E+04
 0.73103004E+02  0.22393E+04
 0.73153000E+02  0.24328E+04
 0.73203003E+02  0.29566E+04
 0.73252998E+02  0.32151E+04
 0.73303001E+02  0.32185E+04
 0.73353004E+02  0.32534E+04
 0.73403000E+02  0.31610E+04
 0.73453003E+02  0.29332E+04
 0.73502998E+02  0.24751E+04
 0.73553001E+02  0.23626E+04
 0.73603004E+02  0.26293E+04
 0.73653000E+02  0.28932E+04
 0.73703003E+02  0.31284E+04
 0.73752998E+02  0.29648E+04
 0.73803001E+02  0.22947E+04
 0.73853004E+02  0.19107E+04
 0.73903000E+02  0.20846E+04
 0.73953003E+02  0.24192E+04
 0.74002998E+02  0.27298E+04
 0.74053001E+02  0.28156E+04
 0.74103004E+02  0.31137E+04
 0.74153000E+02  0.30257E+04
 0.74203003E+02  0.21811E+04
 0.74252998E+02  0.16392E+04
 0.74303001E+02  0.13255E+04
 0.74353004E+02  0.15429E+04
 0.74403000E+02  0.22892E+04
 0.74453003E+02  0.29328E+04
 0.74502998E+02  0.34637E+04
 0.74553001E+02  0.34491E+04
 0.74603004E+02  0.34965E+04
 0.74653000E+02  0.35702E+04
 0.74703003E+02  0.33627E+04
 0.74752998E+02  0.30037E+04
 0.74803001E+02  0.28902E+04
 0.74853004E+02  0.27220E+04
 0.74903000E+02  0.23569E+04
 0.74953003E+02  0.22676E+04
 0.75002998E+02  0.19742E+04
 0.75053001E+02  0.15552E+04
 0.75103004E+02  0.13548E+04
 0.75153000E+02  0.14848E+04
 0.75203003E+02  0.16694E+04
 0.75252998E+02  0.19768E+04
 0.75303001E+02  0.27663E+04
 0.75353004E+02  0.35979E+04
 0.75403000E+02  0.37778E+04
 0.75453003E+02  0.33822E+04
 0.75502998E+02  0.31325E+04
 0.75553001E+02  0.30787E+04
 0.75603004E+02  0.30400E+04
 0.75653000E+02  0.26946E+04
 0.75703003E+02  0.21347E+04
 0.75752998E+02  0.18246E+04
 0.75803001E+02  0.18424E+04
 0.75853004E+02  0.23061E+04
 0.75903000E+02  0.26456E+04
 0.75953003E+02  0.28258E+04
 0.76002998E+02  0.31019E+04
 0.76053001E+02  0.31224E+04
 0.76103004E+02  0.28431E+04
 0.76153000E+02  0.25425E+04
 0.76203003E+02  0.22172E+04
 0.76252998E+02  0.23619E+04
 0.76303001E+02  0.24772E+04
 0.76353004E+02  0.24153E+04
 0.76403000E+02  0.27122E+04
 0.76453003E+02  0.31137E+04
 0.76502998E+02  0.30332E+04
 0.76553001E+02  0.28504E+04
 0.76603004E+02  0.27442E+04
 0.76653000E+02  0.21857E+04
 0.76703003E+02  0.20937E+04
 0.76752998E+02  0.24196E+04
 0.76803001E+02  0.25215E+04
 0.76853004E+02  0.23852E+04
 0.76903000E+02  0.23364E+04
 0.76953003E+02  0.22724E+04
 0.77002998E+02  0.24452E+04
 0.77053001E+02  0.31061E+04
 0.77103004E+02  0.36647E+04
 0.77153000E+02  0.37459E+04
 0.77203003E+02  0.32876E+04
 0.77252998E+02  0.27627E+04
 0.77303001E+02  0.23030E+04
 0.77353004E+02  0.17835E+04
 0.77403000E+02  0.15081E+04
 0.77453003E+02  0.17597E+04
 0.77502998E+02  0.20057E+04
 0.77553001E+02  0.24111E+04
 0.77603004E+02  0.27964E+04
 0.77653000E+02  0.28835E+04
 0.77703003E+02  0.26206E+04
 0.77752998E+02  0.19172E+04
 0.77803001E+02  0.17399E+04
 0.77853004E+02  0.18334E+04
 0.77903000E+02  0.21989E+04
 0.77953003E+02  0.26356E+04
 0.78002998E+02  0.30428E+04
 0.78053001E+02  0.35156E+04
 0.78103004E+02  0.31802E+04
 0.78153000E+02  0.23607E+04
 0.78203003E+02  0.19672E+04
 0.78252998E+02  0.22613E+04
 0.78303001E+02  0.25889E+04
 0.78353004E+02  0.24631E+04
 0.78403000E+02  0.24087E+04
 0.78453003E+02  0.27172E+04
 0.78502998E+02  0.29600E+04
 0.78553001E+02  0.26355E+04
 0.78603004E+02  0.27137E+04
 0.78653000E+02  0.32020E+04
 0.78703003E+02  0.32291E+04
 0.78752998E+02  0.32027E+04
 0.78803001E+02  0.31005E+04
 0.78853004E+02  0.27407E+04
 0.78903000E+02  0.25603E+04
 0.78953003E+02  0.27411E+04
 0.79002998E+02  0.29370E+04
 0.79053001E+02  0.29332E+04
 0.79103004E+02  0.29144E+04
 0.79153000E+02  0.27616E+04
 0.79203003E+02  0.22676E+04
 0.79252998E+02  0.23923E+04
 0.79303001E+02  0.28714E+04
 0.79353004E+02  0.30969E+04
 0.79403000E+02  0.29180E+04
 0.79453003E+02  0.25893E+04
 0.79502998E+02  0.22225E+04
 0.79553001E+02  0.19606E+04
 0.79603004E+02  0.20301E+04
 0.79653000E+02  0.22639E+04
 0.79703003E+02  0.29536E+04
 0.79752998E+02  0.33109E+04
 0.79803001E+02  0.28843E+04
 0.79853004E+02  0.22326E+04
 0.79903000E+02  0.19640E+04
 0.79953003E+02  0.24843E+04
 0.80002998E+02  0.31619E+04
 0.80053001E+02  0.32060E+04
 0.80103004E+02  0.29402E+04
 0.80153000E+02  0.25850E+04
 0.80203003E+02  0.22853E+04
 0.80252998E+02  0.20820E+04
 0.80303001E+02  0.19796E+04
 0.80353004E+02  0.19686E+04
 0.80403000E+02  0.21853E+04
 0.80453003E+02  0.22310E+04
 0.80502998E+02  0.20246E+04
 0.80553001E+02  0.22259E+04
 0.80603004E+02  0.25886E+04
 0.80653000E+02  0.28478E+04
 0.80703003E+02  0.29243E+04
 0.80752998E+02  0.28728E+04
 0.80803001E+02  0.27040E+04
 0.80853004E+02  0.26294E+04
 0.80903000E+02  0.24811E+04
 0.80953003E+02  0.20988E+04
 0.81002998E+02  0.18693E+04
 0.81053001E+02  0.19266E+04
 0.81103004E+02  0.23580E+04
 0.81153000E+02  0.26691E+04
 0.81203003E+02  0.26308E+04
 0.81252998E+02  0.26805E+04
 0.81303001E+02  0.27197E+04
 0.81353004E+02  0.26394E+04
 0.81403000E+02  0.26101E+04
 0.81453003E+02  0.29037E+04
 0.81502998E+02  0.34135E+04
 0.81553001E+02  0.37257E+04
 0.81603004E+02  0.34531E+04
 0.81653000E+02  0.29637E+04
 0.81703003E+02  0.28557E+04
 0.81752998E+02  0.28847E+04
 0.81803001E+02  0.30276E+04
 0.81853004E+02  0.27483E+04
 0.81903000E+02  0.20256E+04
 0.81953003E+02  0.15116E+04
 0.82002998E+02  0.14016E+04
 0.82053001E+02  0.19615E+04
 0.82103004E+02  0.26699E+04
 0.82153000E+02  0.30234E+04
 0.82203003E+02  0.30981E+04
 0.82252998E+02  0.32147E+04
 0.82303001E+02  0.33355E+04
 0.82353004E+02  0.34628E+04
 0.82403000E+02  0.34217E+04
 0.82453003E+02  0.28313E+04
 0.82502998E+02  0.23213E+04
 0.82553001E+02  0.22407E+04
 0.82603004E+02  0.24038E+04
 0.82653000E+02  0.25387E+04
 0.82703003E+02  0.23917E+04
 0.82752998E+02  0.22679E+04
 0.82803001E+02  0.22453E+04
 0.82853004E+02  0.21648E+04
 0.82903000E+02  0.20974E+04
 0.82953003E+02  0.17939E+04
 0.83002998E+02  0.19248E+04
 0.83053001E+02  0.23106E+04
 0.83103004E+02  0.23810E+04
 0.83153000E+02  0.26806E+04
 0.83203003E+02  0.31354E+04
 0.83252998E+02  0.34239E+04
 0.83303001E+02  0.34745E+04
 0.83353004E+02  0.32314E+04
 0.83403000E+02  0.27683E+04
 0.83453003E+02  0.24531E+04
 0.83502998E+02  0.24995E+04
 0.83553001E+02  0.29584E+04
 0.83603004E+02  0.30646E+04
 0.83653000E+02  0.28342E+04
 0.83703003E+02  0.28099E+04
 0.83752998E+02  0.27487E+04
 0.83803001E+02  0.28292E+04
 0.83853004E+02  0.27573E+04
 0.83903000E+02  0.27449E+04
 0.83953003E+02  0.31194E+04
 0.84002998E+02  0.33965E+04
 0.84053001E+02  0.33656E+04
 0.84103004E+02  0.30819E+04
 0.84153000E+02  0.26760E+04
 0.84203003E+02  0.23096E+04
 0.84252998E+02  0.21874E+04
 0.84303001E+02  0.24069E+04
 0.84353004E+02  0.26537E+04
 0.84403000E+02  0.27197E+04
 0.84453003E+02  0.27395E+04
 0.84502998E+02  0.24796E+04
 0.84553001E+02  0.19858E+04
 0.84603004E+02  0.13140E+04
 0.84653000E+02  0.11045E+04
 0.84703003E+02  0.16725E+04
 0.84752998E+02  0.24119E+04
 0.84803001E+02  0.27564E+04
 0.84853004E+02  0.26997E+04
 0.84903000E+02  0.25987E+04
 0.84953003E+02  0.24867E+04
 0.85002998E+02  0.23077E+04
 0.85053001E+02  0.22672E+04
 0.85103004E+02  0.24586E+04
 0.85153000E+02  0.27001E+04
 0.85203003E+02  0.29303E+04
 0.85252998E+02  0.25221E+04
 0.85303001E+02  0.18900E+04
 0.85353004E+02  0.17095E+04
 0.85403000E+02  0.18743E+04
 0.85453003E+02  0.24551E+04
 0.85502998E+02  0.30178E+04
 0.85553001E+02  0.32818E+04
 0.85603004E+02  0.32500E+04
 0.85653000E+02  0.29188E+04
 0.85703003E+02  0.26903E+04
 0.85752998E+02  0.26852E+04
 0.85803001E+02  0.28516E+04
 0.85853004E+02  0.31400E+04
 0.85903000E+02  0.30565E+04
 0.85953003E+02  0.27303E+04
 0.86002998E+02  0.22021E+04
 0.86053001E+02  0.18070E+04
 0.86103004E+02  0.22170E+04
 0.86153000E+02  0.27575E+04
 0.86203003E+02  0.28885E+04
 0.86252998E+02  0.26231E+04
 0.86303001E+02  0.21621E+04
 0.86353004E+02  0.18680E+04
 0.86403000E+02  0.19901E+04
 0.86453003E+02  0.24514E+04
 0.86502998E+02  0.28958E+04
 0.86553001E+02  0.30937E+04
 0.86603004E+02  0.32719E+04
 0.86653000E+02  0.31470E+04
 0.86703003E+02  0.28905E+04
 0.86752998E+02  0.27719E+04
 0.86803001E+02  0.27628E+04
 0.86853004E+02  0.28858E+04
 0.86903000E+02  0.27399E+04
 0.86953003E+02  0.25681E+04
 0.87002998E+02  0.25566E+04
 0.87053001E+02  0.26461E+04
 0.87103004E+02  0.27691E+04
 0.87153000E+02  0.27570E+04
 0.87203003E+02  0.24612E+04
 0.87252998E+02  0.21953E+04
 0.87303001E+02  0.22026E+04
 0.87353004E+02  0.23605E+04
 0.87403000E+02  0.26154E+04
 0.87453003E+02  0.28436E+04
 0.87502998E+02  0.30103E+04
 0.87553001E+02  0.32829E+04
 0.87602997E+02  0.34236E+04
 0.87653000E+02  0.33448E+04
 0.87703003E+02  0.32217E+04
 0.87752998E+02  0.29967E+04
 0.87803001E+02  0.24574E+04
 0.87852997E+02  0.20042E+04
 0.87903000E+02  0.20404E+04
 0.87953003E+02  0.22863E+04
 0.88002998E+02  0.23918E+04
 0.88053001E+02  0.26261E+04
 0.88102997E+02  0.28067E+04
 0.88153000E+02  0.25450E+04
 0.88203003E+02  0.24503E+04
 0.88252998E+02  0.23174E+04
 0.88303001E+02  0.22350E+04
 0.88352997E+02  0.23234E+04
 0.88403000E+02  0.23751E+04
 0.88453003E+02  0.23472E+04
 0.88502998E+02  0.22051E+04
 0.88553001E+02  0.23006E+04
 0.88602997E+02  0.25528E+04
 0.88653000E+02  0.27081E+04
 0.88703003E+02  0.28372E+04
 0.88752998E+02  0.29726E+04
 0.88803001E+02  0.31147E+04
 0.88852997E+02  0.31493E+04
 0.88903000E+02  0.30627E+04
 0.88953003E+02  0.29600E+04
 0.89002998E+02  0.27817E+04
 0.89053001E+02  0.25437E+04
 0.89102997E+02  0.23066E+04
 0.89153000E+02  0.22526E+04
 0.89203003E+02  0.25813E+04
 0.89252998E+02  0.29752E+04
 0.89303001E+02  0.30376E+04
 0.89352997E+02  0.29830E+04
 0.89403000E+02  0.28765E+04
 0.89453003E+02  0.26124E+04
 0.89502998E+02  0.22128E+04
 0.89553001E+02  0.18169E+04
 0.89602997E+02  0.18010E+04
 0.89653000E+02  0.20608E+04
 0.89703003E+02  0.22215E+04
 0.89752998E+02  0.23795E+04
 0.89803001E+02  0.24771E+04
 0.89852997E+02  0.24700E+04
 0.89903000E+02  0.24198E+04
 0.89953003E+02  0.25320E+04
 0.90002998E+02  0.27541E+04
 0.90053001E+02  0.27911E+04
 0.90102997E+02  0.26553E+04
 0.90153000E+02  0.24984E+04
 0.90203003E+02  0.24679E+04
 0.90252998E+02  0.25249E+04
 0.90303001E+02  0.26590E+04
 0.90352997E+02  0.26172E+04
 0.90403000E+02  0.25494E+04
 0.90453003E+02  0.26397E+04
 0.90502998E+02  0.28285E+04
 0.90553001E+02  0.30367E+04
 0.90602997E+02  0.32669E+04
 0.90653000E+02  0.33106E+04
 0.90703003E+02  0.30702E+04
 0.90752998E+02  0.28368E+04
 0.90803001E+02  0.26463E+04
 0.90852997E+02  0.25237E+04
 0.90903000E+02  0.22933E+04
 0.90953003E+02  0.21783E+04
 0.91002998E+02  0.24010E+04
 0.91053001E+02  0.26268E+04
 0.91102997E+02  0.26702E+04
 0.91153000E+02  0.26734E+04
 0.91203003E+02  0.28147E+04
 0.91252998E+02  0.31199E+04
 0.91303001E+02  0.31706E+04
 0.91352997E+02  0.29057E+04
 0.91403000E+02  0.26465E+04
 0.91453003E+02  0.24895E+04
 0.91502998E+02  0.23925E+04
 0.91553001E+02  0.23167E+04
 0.91602997E+02  0.21656E+04
 0.91653000E+02  0.19927E+04
 0.91703003E+02  0.19393E+04
 0.91752998E+02  0.17049E+04
 0.91803001E+02  0.15849E+04
 0.91852997E+02  0.17845E+04
 0.91903000E+02  0.21591E+04
 0.91953003E+02  0.25464E+04
 0.92002998E+02  0.28020E+04
 0.92053001E+02  0.29154E+04
 0.92102997E+02  0.29665E+04
 0.92153000E+02  0.29620E+04
 0.92203003E+02  0.28139E+04
 0.92252998E+02  0.26218E+04
 0.92303001E+02  0.24568E+04
 0.92352997E+02  0.26010E+04
 0.92403000E+02  0.28572E+04
 0.92453003E+02  0.28551E+04
 0.92502998E+02  0.26482E+04
 0.92553001E+02  0.26154E+04
 0.92602997E+02  0.28682E+04
 0.92653000E+02  0.30674E+04
 0.92703003E+02  0.29983E+04
 0.92752998E+02  0.29772E+04
 0.92803001E+02  0.28686E+04
 0.92852997E+02  0.26327E+04
 0.92903000E+02  0.27048E+04
 0.92953003E+02  0.27179E+04
 0.93002998E+02  0.27100E+04
 0.93053001E+02  0.28199E+04
 0.93102997E+02  0.28498E+04
 0.93153000E+02  0.27670E+04
 0.93203003E+02  0.26867E+04
 0.93252998E+02  0.26303E+04
 0.93303001E+02  0.26340E+04
 0.93352997E+02  0.27351E+04
 0.93403000E+02  0.29826E+04
 0.93453003E+02  0.30976E+04
 0.93502998E+02  0.29259E+04
 0.93553001E+02  0.27104E+04
 0.93602997E+02  0.25825E+04
 0.93653000E+02  0.27015E+04
 0.93703003E+02  0.28615E+04
 0.93752998E+02  0.28237E+04
 0.93803001E+02  0.25397E+04
 0.93852997E+02  0.22352E+04
 0.93903000E+02  0.19774E+04
 0.93953003E+02  0.18134E+04
 0.94002998E+02  0.18401E+04
 0.94053001E+02  0.22199E+04
 0.94102997E+02  0.26419E+04
 0.94153000E+02  0.28009E+04
 0.94203003E+02  0.28206E+04
 0.94252998E+02  0.28358E+04
 0.94303001E+02  0.29215E+04
 0.94352997E+02  0.29083E+04
 0.94403000E+02  0.25694E+04
 0.94453003E+02  0.21310E+04
 0.94502998E+02  0.20985E+04
 0.94553001E+02  0.22679E+04
 0.94602997E+02  0.23759E+04
 0.94653000E+02  0.23361E+04
 0.94703003E+02  0.22921E+04
 0.94752998E+02  0.23201E+04
 0.94803001E+02  0.25373E+04
 0.94852997E+02  0.27019E+04
 0.94903000E+02  0.26086E+04
 0.94953003E+02  0.25321E+04
 0.95002998E+02  0.26203E+04
 0.95053001E+02  0.29175E+04
 0.95102997E+02  0.30503E+04
 0.95153000E+02  0.28928E+04
 0.95203003E+02  0.25451E+04
 0.95252998E+02  0.22129E+04
 0.95303001E+02  0.21737E+04
 0.95352997E+02  0.24137E+04
 0.95403000E+02  0.26480E+04
 0.95453003E+02  0.27045E+04
 0.95502998E+02  0.27253E+04
 0.95553001E+02  0.27625E+04
 0.95602997E+02  0.27141E+04
 0.95653000E+02  0.25751E+04
 0.95703003E+02  0.26454E+04
 0.95752998E+02  0.27082E+04
 0.95803001E+02  0.27031E+04
 0.95852997E+02  0.27476E+04
 0.95903000E+02  0.26803E+04
 0.95953003E+02  0.24433E+04
 0.96002998E+02  0.21168E+04
 0.96053001E+02  0.20431E+04
 0.96102997E+02  0.22222E+04
 0.96153000E+02  0.24211E+04
 0.96203003E+02  0.24792E+04
 0.96252998E+02  0.25694E+04
 0.96303001E+02  0.25561E+04
 0.96352997E+02  0.24425E+04
 0.96403000E+02  0.23923E+04
 0.96453003E+02  0.24380E+04
 0.96502998E+02  0.25400E+04
 0.96553001E+02  0.25147E+04
 0.96602997E+02  0.24685E+04
 0.96653000E+02  0.23633E+04
 0.96703003E+02  0.23035E+04
 0.96752998E+02  0.24411E+04
 0.96803001E+02  0.27746E+04
 0.96852997E+02  0.30425E+04
 0.96903000E+02  0.31258E+04
 0.96953003E+02  0.31424E+04
 0.97002998E+02  0.29431E+04
 0.97053001E+02  0.25896E+04
 0.97102997E+02  0.23467E+04
 0.97153000E+02  0.25128E+04
 0.97203003E+02  0.28955E+04
 0.97252998E+02  0.30947E+04
 0.97303001E+02  0.30772E+04
 0.97352997E+02  0.29383E+04
 0.97403000E+02  0.28177E+04
 0.97453003E+02  0.27856E+04
 0.97502998E+02  0.27901E+04
 0.97553001E+02  0.27333E+04
 0.97602997E+02  0.26955E+04
 0.97653000E+02  0.25883E+04
 0.97703003E+02  0.24591E+04
 0.97752998E+02  0.24300E+04
 0.97803001E+02  0.25814E+04
 0.97852997E+02  0.28906E+04
 0.97903000E+02  0.31123E+04
 0.97953003E+02  0.31154E+04
 0.98002998E+02  0.30327E+04
