-0.20000000E+01  0.17936E+02
-0.19500000E+01  0.45653E+02
-0.19000000E+01  0.60072E+02
-0.18500000E+01  0.59636E+02
-0.18000000E+01  0.57286E+02
-0.17500000E+01  0.30408E+02
-0.17000000E+01  0.25376E+02
-0.16500001E+01  0.59234E+01
-0.16000000E+01  0.93180E+00
-0.15500000E+01  0.16855E+02
-0.15000000E+01  0.46181E+01
-0.14500000E+01  0.60175E+01
-0.14000001E+01  0.63867E+01
-0.13500000E+01  0.23548E+01
-0.13000001E+01 -0.94530E+01
-0.12500000E+01 -0.30037E+02
-0.12000000E+01 -0.42585E+02
-0.11500001E+01 -0.46377E+02
-0.11000000E+01 -0.47677E+02
-0.10500001E+01 -0.44288E+02
-0.10000000E+01 -0.34822E+02
-0.95000005E+00 -0.33082E+02
-0.90000010E+00 -0.24326E+02
-0.85000002E+00 -0.14807E+02
-0.80000007E+00 -0.24368E+01
-0.75000012E+00  0.92055E+01
-0.70000005E+00  0.40445E+02
-0.65000010E+00  0.60032E+02
-0.60000014E+00  0.42763E+02
-0.55000007E+00  0.40671E+01
-0.50000012E+00 -0.15165E+02
-0.45000005E+00 -0.19201E+02
-0.40000010E+00  0.10195E+02
-0.35000014E+00  0.22407E+02
-0.30000007E+00  0.10221E+02
-0.25000012E+00  0.10964E+02
-0.20000005E+00 -0.23113E+02
-0.15000010E+00 -0.11146E+02
-0.10000014E+00 -0.25258E+01
-0.50000072E-01 -0.13137E+02
-0.11920929E-06 -0.18040E+02
 0.49999952E-01 -0.28578E+02
 0.99999905E-01 -0.20147E+02
 0.14999986E+00 -0.17799E+02
 0.19999981E+00 -0.11807E+02
 0.24999976E+00  0.25185E+00
 0.29999995E+00 -0.13815E+02
 0.34999990E+00 -0.41473E+01
 0.39999986E+00  0.48712E+01
 0.44999981E+00  0.72843E+01
 0.49999976E+00  0.15731E+02
 0.54999995E+00 -0.14628E+01
 0.59999990E+00  0.30197E+01
 0.64999986E+00 -0.54894E+01
 0.69999981E+00 -0.11440E+02
 0.74999976E+00 -0.29236E+01
 0.79999971E+00 -0.52333E+00
 0.84999990E+00  0.51945E+00
 0.89999986E+00 -0.15369E+02
 0.94999981E+00 -0.39901E+01
 0.99999976E+00 -0.25979E+01
 0.10499997E+01  0.17285E+01
 0.10999999E+01  0.44649E+01
 0.11499999E+01  0.12991E+02
 0.11999998E+01  0.17273E+02
 0.12499998E+01  0.11541E+02
 0.12999997E+01  0.17769E+02
 0.13499999E+01  0.13884E+02
 0.13999999E+01  0.10579E+02
 0.14499998E+01  0.92678E+01
 0.14999998E+01  0.89838E+00
 0.15499997E+01  0.51620E+01
 0.15999999E+01 -0.60030E+01
 0.16499999E+01 -0.14366E+02
 0.16999998E+01 -0.28971E+02
 0.17499998E+01 -0.26347E+02
 0.17999997E+01 -0.50290E+02
 0.18499997E+01 -0.11361E+03
 0.18999999E+01 -0.35664E+02
 0.19499998E+01 -0.41859E+02
 0.19999998E+01 -0.10251E+03
 0.20499997E+01 -0.37461E+01
 0.20999999E+01 -0.96543E+01
 0.21499996E+01 -0.45690E+02
 0.21999998E+01  0.42277E+02
 0.22499995E+01 -0.10571E+02
 0.22999997E+01 -0.23703E+02
 0.23499999E+01  0.75580E+02
 0.23999996E+01 -0.53573E+01
 0.24499998E+01 -0.18815E+02
 0.24999995E+01  0.50213E+02
 0.25499997E+01 -0.46683E+02
 0.25999999E+01 -0.13556E+02
 0.26499996E+01  0.34553E+02
 0.26999998E+01 -0.53463E+02
 0.27499995E+01  0.15371E+02
 0.27999997E+01  0.47822E+02
 0.28499999E+01 -0.35383E+02
 0.28999996E+01  0.28418E+02
 0.29499998E+01  0.29358E+02
 0.29999995E+01 -0.41811E+02
 0.30499997E+01  0.40618E+02
 0.30999999E+01  0.89576E+01
 0.31499996E+01 -0.46895E+02
 0.31999998E+01  0.48281E+02
 0.32499995E+01 -0.10734E+02
 0.32999997E+01 -0.25853E+02
 0.33499999E+01  0.93931E+02
 0.33999996E+01 -0.16802E+02
 0.34499998E+01  0.12760E+02
 0.34999995E+01  0.10963E+03
 0.35499997E+01 -0.84716E+01
 0.35999994E+01  0.54058E+02
 0.36499996E+01  0.84328E+02
 0.36999998E+01 -0.13017E+02
 0.37499995E+01  0.72137E+02
 0.37999997E+01  0.52696E+02
 0.38499994E+01 -0.17687E+02
 0.38999996E+01  0.59120E+02
 0.39499998E+01  0.26291E+02
 0.39999995E+01 -0.12734E+02
 0.40499997E+01  0.40372E+02
 0.40999994E+01 -0.14496E+02
 0.41499996E+01 -0.41653E+02
 0.41999998E+01  0.23183E+02
 0.42499995E+01 -0.48858E+02
 0.42999997E+01 -0.73299E+02
 0.43499994E+01 -0.14463E+01
 0.43999996E+01 -0.78385E+02
 0.44499998E+01 -0.54033E+02
 0.44999995E+01 -0.27963E+02
 0.45499997E+01 -0.84150E+02
 0.45999994E+01 -0.45564E+02
 0.46499996E+01 -0.23142E+02
 0.46999998E+01 -0.62685E+02
 0.47499995E+01 -0.61514E+01
 0.47999997E+01  0.29635E+02
 0.48499994E+01 -0.55177E+02
 0.48999996E+01  0.85576E+01
 0.49499998E+01 -0.62883E+01
 0.49999995E+01 -0.31362E+02
 0.50499997E+01  0.87829E+01
 0.50999994E+01 -0.20399E+01
 0.51499996E+01 -0.63376E+02
 0.51999998E+01 -0.28525E+02
 0.52499995E+01 -0.12964E+01
 0.52999997E+01 -0.32389E+02
 0.53499994E+01  0.16653E+02
 0.53999996E+01  0.29045E+01
 0.54499993E+01 -0.21025E+02
 0.54999995E+01  0.16387E+02
 0.55499997E+01  0.42117E+02
 0.55999994E+01 -0.32521E+01
 0.56499996E+01  0.24265E+02
 0.56999993E+01  0.47223E+02
 0.57499995E+01 -0.52539E+01
 0.57999997E+01  0.17319E+02
 0.58499994E+01  0.43192E+02
 0.58999996E+01 -0.29424E+02
 0.59499993E+01 -0.24647E+02
 0.59999995E+01  0.12585E+02
 0.60499992E+01 -0.32651E+02
 0.60999994E+01 -0.19333E+02
 0.61499996E+01  0.15283E+02
 0.61999998E+01 -0.48172E+02
 0.62499990E+01 -0.51457E+02
 0.62999992E+01  0.12005E+02
 0.63499994E+01 -0.36573E+02
 0.63999996E+01 -0.25986E+02
 0.64499998E+01  0.29005E+02
 0.64999990E+01 -0.15197E+02
 0.65499992E+01 -0.18048E+02
 0.65999994E+01  0.53360E+02
 0.66499996E+01  0.37904E+02
 0.66999998E+01  0.20699E+02
 0.67499990E+01  0.76157E+02
 0.67999992E+01  0.55357E+02
 0.68499994E+01  0.20637E+02
 0.68999996E+01  0.73928E+02
 0.69499998E+01  0.54185E+02
 0.69999990E+01 -0.35037E+02
 0.70499992E+01  0.72772E-01
 0.70999994E+01 -0.54057E+01
 0.71499996E+01 -0.53571E+02
 0.71999998E+01 -0.25717E+02
 0.72499990E+01 -0.12516E+02
 0.72999992E+01 -0.63711E+02
 0.73499994E+01 -0.39540E+02
 0.73999996E+01 -0.16918E+02
 0.74499998E+01 -0.89343E+02
 0.74999990E+01 -0.53288E+02
 0.75499992E+01  0.10943E+02
 0.75999994E+01 -0.25234E+02
 0.76499996E+01 -0.21985E+02
 0.76999998E+01  0.33823E+02
 0.77499990E+01 -0.18280E+02
 0.77999992E+01 -0.44010E+02
 0.78499994E+01  0.94311E+01
 0.78999996E+01 -0.10222E+02
 0.79499998E+01 -0.37150E+02
 0.79999990E+01  0.17041E+02
 0.80499992E+01  0.12332E+02
 0.80999994E+01 -0.38403E+02
 0.81499996E+01  0.19548E+02
 0.81999998E+01  0.24313E+02
 0.82499990E+01 -0.24277E+02
 0.82999992E+01  0.15094E+02
 0.83499994E+01  0.51856E+02
 0.83999996E+01 -0.23926E+01
 0.84499998E+01 -0.32845E+01
 0.84999990E+01  0.41938E+02
 0.85499992E+01 -0.13610E+02
 0.85999994E+01 -0.65220E+01
 0.86499996E+01  0.21333E+02
 0.86999998E+01 -0.43945E+02
 0.87499990E+01 -0.61565E+02
 0.87999992E+01  0.66842E+01
 0.88499994E+01 -0.36866E+01
 0.88999996E+01 -0.57731E+02
 0.89499998E+01  0.83477E+01
 0.89999990E+01 -0.11584E+01
 0.90499992E+01 -0.40392E+02
 0.90999994E+01  0.13896E+02
 0.91499996E+01  0.23326E+02
 0.91999989E+01 -0.11624E+02
 0.92499990E+01  0.31866E+02
 0.92999992E+01  0.80076E+02
 0.93499994E+01  0.17000E+02
 0.93999996E+01  0.36881E+02
 0.94499989E+01  0.51769E+02
 0.94999990E+01  0.32597E+01
 0.95499992E+01 -0.22322E+02
 0.95999994E+01  0.29692E+02
 0.96499996E+01 -0.49175E+01
 0.96999989E+01 -0.31790E+02
 0.97499990E+01  0.21323E+02
 0.97999992E+01 -0.26485E+02
 0.98499994E+01 -0.41373E+02
 0.98999996E+01 -0.78469E+01
 0.99499989E+01  0.20200E+01
 0.99999990E+01 -0.27192E+02
 0.10049999E+02  0.19016E+02
 0.10099999E+02  0.48167E+02
 0.10150000E+02  0.15234E+02
 0.10199999E+02  0.14099E+02
 0.10249999E+02  0.22325E+02
 0.10299999E+02  0.10453E+02
 0.10349999E+02 -0.44938E+01
 0.10400000E+02  0.22818E+02
 0.10449999E+02  0.15595E+02
 0.10499999E+02 -0.15532E+02
 0.10549999E+02 -0.23670E+02
 0.10599999E+02  0.93761E+01
 0.10650000E+02  0.25877E+02
 0.10699999E+02  0.11684E+02
 0.10749999E+02  0.25559E+01
 0.10799999E+02  0.79722E+01
 0.10849999E+02 -0.12023E+02
 0.10900000E+02 -0.19352E+02
 0.10949999E+02  0.17969E+02
 0.10999999E+02 -0.85616E+01
 0.11049999E+02 -0.13307E+02
 0.11099999E+02 -0.25301E+02
 0.11150000E+02  0.27181E+01
 0.11199999E+02  0.24029E+02
 0.11249999E+02 -0.60146E+00
 0.11299999E+02  0.22100E+02
 0.11349999E+02  0.91542E+01
 0.11400000E+02  0.91537E+01
 0.11449999E+02 -0.30041E+02
 0.11499999E+02 -0.24888E+02
 0.11549999E+02 -0.25933E+02
 0.11599999E+02  0.17620E-01
 0.11650000E+02 -0.19425E+02
 0.11699999E+02 -0.17171E+02
 0.11749999E+02 -0.28048E+02
 0.11799999E+02 -0.34295E+02
 0.11849999E+02 -0.19716E+02
 0.11900000E+02 -0.35748E+02
 0.11949999E+02 -0.13487E+02
 0.11999999E+02 -0.55918E+02
 0.12049999E+02 -0.40142E+02
 0.12099999E+02 -0.67288E+02
 0.12150000E+02 -0.50291E+02
 0.12199999E+02 -0.20441E+02
 0.12249999E+02  0.14060E+02
 0.12299999E+02  0.10705E+02
 0.12349999E+02  0.95121E+01
 0.12400000E+02  0.18519E+02
 0.12449999E+02  0.20161E+02
 0.12499999E+02  0.11672E+02
 0.12549999E+02 -0.74800E+01
 0.12599999E+02  0.75976E+01
 0.12649999E+02  0.24567E+02
 0.12699999E+02  0.21017E+01
 0.12749999E+02 -0.37081E+02
 0.12799999E+02 -0.25141E+02
 0.12849999E+02  0.14075E+02
 0.12899999E+02  0.23196E+02
 0.12949999E+02 -0.38177E+01
 0.12999999E+02 -0.25732E+01
 0.13049999E+02 -0.15861E+01
 0.13099999E+02 -0.84476E+01
 0.13149999E+02 -0.14952E+02
 0.13199999E+02  0.19128E+02
 0.13249999E+02  0.19781E+02
 0.13299999E+02 -0.18745E+02
 0.13349999E+02 -0.34598E+02
 0.13399999E+02  0.34258E+01
 0.13449999E+02  0.24999E+02
 0.13499999E+02 -0.28346E+02
 0.13549999E+02 -0.30524E+02
 0.13599999E+02 -0.43178E+01
 0.13649999E+02 -0.33984E+02
 0.13699999E+02 -0.51709E+02
 0.13749999E+02  0.13808E+02
 0.13799999E+02  0.27582E+02
 0.13849999E+02 -0.69333E+01
 0.13899999E+02 -0.12952E+02
 0.13949999E+02  0.15029E+02
 0.13999999E+02  0.27131E+02
 0.14049999E+02  0.26677E+01
 0.14099998E+02  0.47215E+02
 0.14150000E+02  0.47618E+02
 0.14199999E+02  0.34000E+02
 0.14249998E+02  0.18902E+02
 0.14299999E+02  0.51810E+02
 0.14349998E+02  0.43424E+02
 0.14400000E+02  0.85841E+01
 0.14449999E+02  0.14571E+01
 0.14499998E+02  0.15793E+02
 0.14549999E+02  0.20822E+02
 0.14599998E+02 -0.19647E+02
 0.14650000E+02 -0.33501E+02
 0.14699999E+02 -0.28154E+02
 0.14749998E+02  0.13124E+02
 0.14799999E+02 -0.22553E+02
 0.14849998E+02 -0.33767E+02
 0.14900000E+02 -0.53831E+02
 0.14949999E+02 -0.43543E+02
 0.14999998E+02 -0.37927E+02
 0.15049999E+02 -0.50778E+02
 0.15099998E+02 -0.27690E+02
 0.15150000E+02 -0.44533E+02
 0.15199999E+02 -0.22716E+02
 0.15249998E+02 -0.41253E+02
 0.15299999E+02 -0.31114E+02
 0.15349998E+02 -0.16848E+02
 0.15400000E+02 -0.76168E+01
 0.15449999E+02  0.16268E+02
 0.15499998E+02 -0.90540E+01
 0.15549999E+02  0.29867E+01
 0.15599998E+02  0.47808E+01
 0.15650000E+02  0.36868E+02
 0.15699999E+02  0.36181E+02
 0.15749998E+02  0.19218E+02
 0.15799999E+02  0.17619E+02
 0.15849998E+02  0.17979E+02
 0.15900000E+02  0.29017E+02
 0.15949999E+02 -0.50040E+01
 0.15999998E+02  0.12946E+02
 0.16049999E+02  0.25575E+01
 0.16099998E+02  0.83204E+01
 0.16150000E+02  0.17747E+02
 0.16199999E+02  0.23818E+01
 0.16249998E+02  0.70276E+01
 0.16299999E+02 -0.71781E+01
 0.16349998E+02  0.57334E+01
 0.16400000E+02  0.22508E+01
 0.16449999E+02  0.13133E+02
 0.16499998E+02  0.21153E+02
 0.16549999E+02  0.90884E+01
 0.16599998E+02  0.27467E+02
 0.16650000E+02  0.19650E+02
 0.16699999E+02 -0.95335E+00
 0.16749998E+02 -0.87162E+01
 0.16799999E+02 -0.15679E+02
 0.16849998E+02 -0.74995E+01
 0.16900000E+02 -0.21075E+02
 0.16949999E+02 -0.17067E+02
 0.16999998E+02 -0.57737E+01
 0.17049999E+02 -0.16062E+01
 0.17099998E+02 -0.41867E+01
 0.17150000E+02 -0.15147E+02
 0.17199999E+02 -0.19243E+02
 0.17249998E+02 -0.47046E+01
 0.17299999E+02 -0.26773E+02
 0.17349998E+02 -0.40210E+02
 0.17400000E+02 -0.29694E+02
 0.17449999E+02 -0.32825E+02
 0.17499998E+02 -0.12938E+02
 0.17549999E+02 -0.36270E+02
 0.17599998E+02 -0.26530E+02
 0.17650000E+02 -0.15864E+02
 0.17699999E+02 -0.49791E+01
 0.17749998E+02  0.10138E+02
 0.17799999E+02  0.86391E+01
 0.17849998E+02  0.16916E+02
 0.17900000E+02  0.52444E+01
 0.17949999E+02  0.19158E+02
 0.17999998E+02  0.21959E+02
 0.18049999E+02  0.10979E+02
 0.18099998E+02  0.21479E+00
 0.18150000E+02 -0.14753E+02
 0.18199999E+02 -0.86262E+01
 0.18249998E+02 -0.83653E+01
 0.18299999E+02 -0.11951E+01
 0.18349998E+02 -0.11975E+02
 0.18400000E+02 -0.13895E+02
 0.18449999E+02 -0.69864E+01
 0.18499998E+02 -0.24741E+02
 0.18549999E+02 -0.19283E+02
 0.18599998E+02 -0.12891E+02
 0.18650000E+02  0.14143E+01
 0.18699999E+02  0.19531E+02
 0.18749998E+02  0.24848E+02
 0.18799999E+02  0.27656E+02
 0.18849998E+02  0.42494E+02
 0.18900000E+02  0.60415E+02
 0.18949999E+02  0.57624E+02
 0.18999998E+02  0.59326E+02
 0.19049999E+02  0.45854E+02
 0.19099998E+02  0.35608E+02
 0.19150000E+02  0.34785E+02
 0.19199999E+02  0.30771E+02
 0.19249998E+02  0.10972E+02
 0.19299999E+02 -0.92247E+01
 0.19349998E+02 -0.17707E+02
 0.19400000E+02 -0.25048E+02
 0.19449999E+02 -0.19037E+02
 0.19499998E+02 -0.28381E+02
 0.19549999E+02 -0.44063E+02
 0.19599998E+02 -0.65702E+02
 0.19650000E+02 -0.71616E+02
 0.19699999E+02 -0.55055E+02
 0.19749998E+02 -0.48311E+02
 0.19799999E+02 -0.53097E+02
 0.19849998E+02 -0.58019E+02
 0.19900000E+02 -0.55595E+02
 0.19949999E+02 -0.41621E+02
 0.19999998E+02 -0.38141E+02
 0.20049999E+02 -0.34512E+02
 0.20099998E+02 -0.21888E+02
 0.20150000E+02 -0.34318E+02
 0.20199999E+02 -0.30580E+02
 0.20249998E+02 -0.27466E+02
 0.20299999E+02  0.79980E+01
 0.20349998E+02  0.24864E+02
 0.20399998E+02  0.27848E+02
 0.20449999E+02  0.29014E+02
 0.20499998E+02  0.43145E+01
 0.20549999E+02  0.18152E+02
 0.20599998E+02  0.44346E+02
 0.20649998E+02  0.72146E+02
 0.20699999E+02  0.55512E+02
 0.20749998E+02  0.38292E+02
 0.20799999E+02  0.36122E+02
 0.20849998E+02  0.31322E+02
 0.20899998E+02  0.53845E+02
 0.20949999E+02  0.36880E+02
 0.20999998E+02  0.13318E+02
 0.21049999E+02 -0.67803E+01
 0.21099998E+02 -0.24413E+02
 0.21149998E+02  0.11922E+02
 0.21199999E+02 -0.19000E+02
 0.21249998E+02 -0.61233E+01
 0.21299999E+02  0.18444E+02
 0.21349998E+02 -0.70591E+02
 0.21399998E+02 -0.18588E+02
 0.21449999E+02 -0.75079E+01
 0.21499998E+02 -0.49072E+02
 0.21549999E+02  0.10390E+02
 0.21599998E+02 -0.19626E+02
 0.21649998E+02 -0.57703E+02
 0.21699999E+02 -0.68535E+01
 0.21749998E+02 -0.77270E+02
 0.21799999E+02 -0.35262E+02
 0.21849998E+02  0.47159E+02
 0.21899998E+02 -0.10384E+02
 0.21949999E+02  0.40770E+02
 0.21999998E+02  0.43586E+02
 0.22049999E+02 -0.56680E+02
 0.22099998E+02 -0.32945E+02
 0.22149998E+02  0.11523E+02
 0.22199999E+02  0.34263E+02
 0.22249998E+02  0.73969E+02
 0.22299999E+02  0.83720E+02
 0.22349998E+02  0.14779E+02
 0.22399998E+02  0.54658E+02
 0.22449999E+02 -0.15888E+03
 0.22499998E+02 -0.75489E+02
 0.22549999E+02  0.12543E+03
 0.22599998E+02 -0.10380E+03
 0.22649998E+02  0.14951E+03
 0.22699999E+02  0.13869E+03
 0.22749998E+02  0.14559E+03
 0.22799999E+02 -0.45194E+03
 0.22849998E+02 -0.23920E+03
 0.22899998E+02 -0.74478E+02
 0.22949999E+02  0.26842E+03
 0.22999998E+02  0.59860E+03
 0.23049999E+02  0.51746E+03
 0.23099998E+02  0.37593E+03
 0.23149998E+02 -0.84736E+03
 0.23199999E+02 -0.51504E+03
 0.23249998E+02 -0.16812E+03
 0.23299999E+02  0.63219E+03
 0.23349998E+02  0.71911E+03
 0.23399998E+02  0.32228E+02
 0.23449999E+02 -0.48441E+03
 0.23499998E+02 -0.10051E+04
 0.23549999E+02 -0.38882E+03
 0.23599998E+02  0.58179E+03
 0.23649998E+02  0.48824E+03
 0.23699999E+02 -0.17780E+03
 0.23749998E+02 -0.49360E+03
 0.23799999E+02 -0.48856E+02
 0.23849998E+02  0.98997E+02
 0.23899998E+02  0.15123E+03
 0.23949999E+02 -0.16416E+03
 0.23999998E+02  0.27178E+02
 0.24049999E+02 -0.38096E+03
 0.24099998E+02 -0.30382E+03
 0.24149998E+02 -0.10244E+02
 0.24199999E+02  0.16491E+03
 0.24249998E+02  0.42026E+03
 0.24299999E+02 -0.11326E+02
 0.24349998E+02 -0.42043E+03
 0.24399998E+02 -0.11431E+04
 0.24449999E+02 -0.29551E+02
 0.24499998E+02  0.10420E+04
 0.24549999E+02  0.15318E+04
 0.24599998E+02  0.25965E+03
 0.24649998E+02 -0.46314E+03
 0.24699999E+02 -0.13707E+04
 0.24749998E+02 -0.12836E+04
 0.24799999E+02 -0.59800E+01
 0.24849998E+02  0.71124E+03
 0.24899998E+02 -0.27049E+03
 0.24949999E+02  0.14816E+04
 0.24999998E+02 -0.29345E+03
 0.25049999E+02 -0.18654E+04
 0.25099998E+02 -0.23278E+03
 0.25149998E+02  0.26146E+03
 0.25199999E+02  0.20493E+04
 0.25249998E+02  0.47868E+03
 0.25299999E+02  0.76309E+03
 0.25349998E+02 -0.16651E+04
 0.25399998E+02 -0.19143E+02
 0.25449999E+02  0.17574E+04
 0.25499998E+02  0.21545E+03
 0.25549999E+02  0.65457E+03
 0.25599998E+02  0.98352E+03
 0.25649998E+02 -0.73922E+03
 0.25699999E+02 -0.33422E+04
 0.25749998E+02 -0.19713E+03
 0.25799999E+02  0.33650E+04
 0.25849998E+02 -0.11763E+04
 0.25899998E+02 -0.20453E+04
 0.25949999E+02  0.92121E+03
 0.25999998E+02  0.15395E+03
 0.26049999E+02  0.38091E+03
 0.26099998E+02  0.60675E+03
 0.26149998E+02  0.14848E+04
 0.26199999E+02 -0.46036E+03
 0.26249998E+02  0.36826E+03
 0.26299999E+02 -0.13359E+04
 0.26349998E+02  0.38662E+02
 0.26399998E+02  0.23036E+04
 0.26449999E+02 -0.13006E+04
 0.26499998E+02 -0.27108E+04
 0.26549999E+02  0.72591E+03
 0.26599998E+02  0.72002E+03
 0.26649998E+02 -0.72416E+03
 0.26699999E+02 -0.72584E+03
 0.26749998E+02  0.10976E+04
 0.26799999E+02 -0.94664E+03
 0.26849998E+02 -0.30966E+04
 0.26899998E+02  0.13310E+04
 0.26949999E+02  0.27704E+04
 0.26999998E+02  0.19914E+04
 0.27049997E+02 -0.40347E+04
 0.27099998E+02 -0.26925E+04
 0.27149998E+02  0.16859E+04
 0.27199999E+02  0.13798E+04
 0.27249998E+02  0.75237E+03
 0.27299997E+02  0.57852E+03
 0.27349998E+02 -0.45792E+03
 0.27399998E+02  0.16911E+04
 0.27449999E+02 -0.57008E+03
 0.27499998E+02 -0.24819E+04
 0.27549997E+02  0.22095E+02
 0.27599998E+02  0.11516E+04
 0.27649998E+02  0.16534E+04
 0.27699999E+02 -0.68405E+03
 0.27749998E+02  0.89981E+02
 0.27799997E+02 -0.23421E+04
 0.27849998E+02 -0.92279E+03
 0.27899998E+02  0.16141E+04
 0.27949999E+02  0.95230E+00
 0.27999998E+02  0.11666E+04
 0.28049997E+02  0.43992E+03
 0.28099998E+02  0.20118E+04
 0.28149998E+02  0.11260E+04
 0.28199999E+02 -0.37193E+03
 0.28249998E+02 -0.17539E+04
 0.28299997E+02 -0.26622E+04
 0.28349998E+02  0.14778E+04
 0.28399998E+02 -0.33882E+04
 0.28449999E+02 -0.52538E+03
 0.28499998E+02  0.29247E+04
 0.28549997E+02  0.79614E+03
 0.28599998E+02 -0.44719E+03
 0.28649998E+02 -0.20709E+04
 0.28699999E+02  0.35297E+04
 0.28749998E+02  0.40697E+03
 0.28799997E+02 -0.41789E+04
 0.28849998E+02 -0.43783E+02
 0.28899998E+02  0.44562E+04
 0.28949999E+02  0.73075E+03
 0.28999998E+02 -0.21187E+04
 0.29049997E+02 -0.18179E+04
 0.29099998E+02 -0.11823E+04
 0.29149998E+02 -0.45640E+03
 0.29199999E+02  0.21352E+04
 0.29249998E+02  0.23009E+04
 0.29299997E+02 -0.29750E+04
 0.29349998E+02 -0.44359E+02
 0.29399998E+02  0.45849E+04
 0.29449999E+02 -0.23818E+04
 0.29499998E+02 -0.29907E+04
 0.29549997E+02  0.32389E+04
 0.29599998E+02  0.32358E+03
 0.29649998E+02 -0.26051E+04
 0.29699999E+02  0.96710E+03
 0.29749998E+02  0.54082E+04
 0.29799997E+02 -0.16738E+04
 0.29849998E+02 -0.40277E+04
 0.29899998E+02  0.10709E+04
 0.29949999E+02  0.10481E+04
 0.29999998E+02 -0.20786E+04
 0.30049999E+02  0.14374E+04
 0.30099998E+02  0.13812E+04
 0.30149998E+02 -0.20938E+04
 0.30199997E+02 -0.78711E+03
 0.30249996E+02 -0.16252E+04
 0.30299999E+02 -0.18844E+04
 0.30349998E+02  0.59241E+03
 0.30399998E+02  0.31772E+04
 0.30449997E+02 -0.15822E+04
 0.30499996E+02 -0.13897E+04
 0.30549999E+02  0.47415E+03
 0.30599998E+02  0.23232E+04
 0.30649998E+02  0.13494E+04
 0.30699997E+02 -0.83013E+03
 0.30749996E+02  0.27756E+03
 0.30799999E+02 -0.31891E+04
 0.30849998E+02 -0.22739E+04
 0.30899998E+02  0.21524E+04
 0.30949997E+02  0.39267E+04
 0.30999996E+02  0.19997E+04
 0.31049999E+02 -0.14246E+04
 0.31099998E+02 -0.22452E+04
 0.31149998E+02  0.45839E+02
 0.31199997E+02  0.87949E+03
 0.31249996E+02 -0.13589E+04
 0.31299999E+02  0.74073E+03
 0.31349998E+02  0.24992E+04
 0.31399998E+02 -0.74255E+01
 0.31449997E+02 -0.59982E+03
 0.31499996E+02  0.22020E+03
 0.31549999E+02  0.15513E+04
 0.31599998E+02 -0.15894E+03
 0.31649998E+02 -0.20742E+04
 0.31699997E+02 -0.20023E+04
 0.31749996E+02  0.18422E+04
 0.31799999E+02  0.14037E+04
 0.31849998E+02 -0.30417E+04
 0.31899998E+02 -0.35039E+03
 0.31949997E+02  0.11048E+04
 0.31999996E+02 -0.70452E+03
 0.32049999E+02  0.20092E+04
 0.32099998E+02  0.13608E+04
 0.32149998E+02 -0.19804E+04
 0.32199997E+02 -0.23060E+04
 0.32249996E+02 -0.19717E+04
 0.32299999E+02 -0.14084E+04
 0.32349998E+02 -0.39700E+02
 0.32399998E+02  0.25901E+04
 0.32449997E+02  0.23650E+04
 0.32499996E+02  0.30588E+04
 0.32549999E+02  0.24126E+03
 0.32599998E+02 -0.15275E+04
 0.32649998E+02 -0.30945E+03
 0.32699997E+02  0.54423E+03
 0.32749996E+02  0.26713E+04
 0.32799999E+02  0.32632E+04
 0.32849998E+02 -0.16089E+04
 0.32899998E+02 -0.42477E+04
 0.32949997E+02 -0.25256E+04
 0.32999996E+02 -0.17092E+04
 0.33049999E+02 -0.39869E+03
 0.33099998E+02  0.69369E+03
 0.33149998E+02  0.14883E+04
 0.33199997E+02 -0.35838E+03
 0.33249996E+02 -0.22396E+04
 0.33299999E+02  0.42238E+02
 0.33349998E+02  0.96669E+03
 0.33399998E+02 -0.14585E+04
 0.33449997E+02 -0.11698E+03
 0.33499996E+02  0.33159E+04
 0.33549999E+02  0.36233E+04
 0.33599998E+02  0.86325E+03
 0.33649998E+02 -0.69472E+03
 0.33699997E+02 -0.61800E+03
 0.33749996E+02 -0.12725E+04
 0.33799999E+02 -0.34429E+04
 0.33849998E+02 -0.19385E+03
 0.33899998E+02  0.41950E+04
 0.33949997E+02  0.31451E+04
 0.33999996E+02 -0.30152E+04
 0.34049999E+02 -0.52948E+04
 0.34099998E+02 -0.15799E+04
 0.34149998E+02  0.12849E+03
 0.34199997E+02  0.17338E+04
 0.34249996E+02  0.23836E+04
 0.34299999E+02  0.16145E+04
 0.34349998E+02 -0.75276E+03
 0.34399998E+02 -0.92105E+03
 0.34449997E+02  0.23797E+02
 0.34499996E+02  0.23183E+03
 0.34549999E+02  0.15529E+04
 0.34599998E+02  0.11873E+04
 0.34649998E+02 -0.18756E+04
 0.34699997E+02 -0.23852E+04
 0.34749996E+02  0.92221E+03
 0.34799999E+02  0.18656E+04
 0.34849998E+02 -0.59473E+03
 0.34899998E+02 -0.26159E+04
 0.34949997E+02  0.97970E+03
 0.34999996E+02  0.28514E+04
 0.35049999E+02 -0.16789E+04
 0.35099998E+02 -0.44528E+04
 0.35149998E+02 -0.62779E+03
 0.35199997E+02  0.56785E+04
 0.35249996E+02  0.35317E+04
 0.35299999E+02 -0.30790E+03
 0.35349998E+02 -0.12156E+04
 0.35399998E+02 -0.31069E+04
 0.35449997E+02 -0.27561E+04
 0.35499996E+02  0.84251E+03
 0.35549999E+02  0.25761E+04
 0.35599998E+02  0.18216E+04
 0.35649998E+02  0.23904E+04
 0.35699997E+02  0.20516E+04
 0.35749996E+02 -0.47701E+03
 0.35799999E+02 -0.14731E+04
 0.35849998E+02 -0.14718E+04
 0.35899998E+02  0.24940E+03
 0.35949997E+02  0.56569E+03
 0.35999996E+02  0.74242E+03
 0.36049999E+02 -0.28461E+03
 0.36099998E+02 -0.30853E+04
 0.36149998E+02  0.23297E+03
 0.36199997E+02  0.39480E+04
 0.36249996E+02  0.65205E+03
 0.36299999E+02 -0.47813E+04
 0.36349998E+02 -0.24127E+04
 0.36399998E+02  0.23042E+04
 0.36449997E+02  0.35639E+04
 0.36499996E+02  0.26139E+04
 0.36549999E+02  0.15835E+04
 0.36599998E+02 -0.80515E+01
 0.36649998E+02 -0.26963E+04
 0.36699997E+02 -0.29903E+04
 0.36749996E+02 -0.15963E+04
 0.36799999E+02 -0.55123E+03
 0.36849998E+02  0.64969E+03
 0.36899998E+02 -0.25379E+03
 0.36949997E+02  0.22450E+04
 0.36999996E+02  0.55174E+04
 0.37049999E+02 -0.22528E+03
 0.37099998E+02 -0.59054E+04
 0.37149998E+02 -0.35756E+04
 0.37199997E+02  0.18987E+03
 0.37249996E+02 -0.16939E+04
 0.37299999E+02 -0.11132E+04
 0.37349998E+02  0.61768E+04
 0.37399998E+02  0.54933E+04
 0.37449997E+02 -0.44725E+03
 0.37499996E+02 -0.52835E+04
 0.37549999E+02 -0.65313E+04
 0.37599998E+02  0.39065E+03
 0.37649998E+02  0.58304E+04
 0.37699997E+02  0.54914E+04
 0.37749996E+02  0.48811E+04
 0.37799999E+02  0.46111E+04
 0.37849998E+02 -0.34292E+04
 0.37899998E+02 -0.92548E+04
 0.37949997E+02 -0.79571E+04
 0.37999996E+02 -0.35464E+04
 0.38049999E+02  0.41867E+04
 0.38099998E+02  0.53191E+04
 0.38149998E+02 -0.48089E+04
 0.38199997E+02 -0.13190E+05
 0.38249996E+02 -0.66767E+04
 0.38299999E+02  0.44707E+04
 0.38349998E+02  0.52190E+04
 0.38399998E+02  0.36465E+04
 0.38449997E+02  0.53620E+04
 0.38499996E+02  0.34969E+04
 0.38549999E+02 -0.44984E+03
 0.38599998E+02 -0.35952E+04
 0.38649998E+02  0.62586E+04
 0.38699997E+02  0.16753E+05
 0.38749996E+02  0.10280E+05
 0.38799999E+02 -0.84007E+04
 0.38849998E+02 -0.18592E+05
 0.38899998E+02 -0.39232E+04
 0.38949997E+02  0.37042E+04
 0.38999996E+02 -0.26099E+04
 0.39049999E+02 -0.21182E+03
 0.39099998E+02  0.79787E+04
 0.39149998E+02  0.52588E+04
 0.39199997E+02 -0.56167E+04
 0.39249996E+02 -0.81882E+04
 0.39299999E+02  0.10791E+04
 0.39349998E+02  0.94617E+04
 0.39399998E+02  0.55483E+04
 0.39449997E+02 -0.16621E+04
 0.39499996E+02 -0.36082E+04
 0.39549999E+02 -0.20610E+04
 0.39599998E+02 -0.79541E+04
 0.39649998E+02 -0.91589E+04
 0.39699997E+02  0.71137E+04
 0.39749996E+02  0.17884E+05
 0.39799999E+02  0.72513E+04
 0.39849998E+02  0.48515E+03
 0.39899998E+02  0.47849E+03
 0.39949997E+02 -0.63717E+04
 0.39999996E+02 -0.10115E+05
 0.40049999E+02 -0.87082E+04
 0.40099998E+02 -0.69481E+04
 0.40149998E+02 -0.52938E+04
 0.40199997E+02 -0.34951E+04
 0.40249996E+02 -0.43003E+04
 0.40299999E+02 -0.86724E+04
 0.40349998E+02  0.10499E+04
 0.40399998E+02  0.21316E+05
 0.40449997E+02  0.14779E+05
 0.40499996E+02 -0.50615E+04
 0.40549999E+02 -0.20414E+05
 0.40599998E+02 -0.16639E+05
 0.40649998E+02  0.68478E+04
 0.40699997E+02  0.29669E+05
 0.40749996E+02  0.35374E+05
 0.40799999E+02  0.49422E+04
 0.40849998E+02 -0.27485E+05
 0.40899998E+02 -0.28849E+05
 0.40949997E+02 -0.15714E+05
 0.40999996E+02  0.41946E+04
 0.41049999E+02  0.15809E+05
 0.41099998E+02  0.35534E+04
 0.41149998E+02  0.50946E+03
 0.41199997E+02  0.83582E+04
 0.41249996E+02  0.14808E+05
 0.41299999E+02  0.14528E+05
 0.41349998E+02 -0.48223E+04
 0.41399998E+02 -0.23691E+05
 0.41449997E+02 -0.92265E+04
 0.41499996E+02  0.24296E+05
 0.41549999E+02  0.13198E+05
 0.41599998E+02 -0.33642E+05
 0.41649998E+02 -0.36875E+05
 0.41699997E+02  0.39583E+04
 0.41749996E+02  0.18374E+05
 0.41799999E+02  0.18947E+05
 0.41849998E+02  0.13782E+05
 0.41899998E+02 -0.11006E+05
 0.41949997E+02 -0.23976E+05
 0.41999996E+02 -0.17352E+05
 0.42049999E+02  0.74254E+04
 0.42099998E+02  0.23128E+05
 0.42149998E+02  0.14512E+05
 0.42199997E+02  0.20792E+04
 0.42249996E+02 -0.10771E+04
 0.42299999E+02 -0.76840E+03
 0.42349998E+02  0.42597E+03
 0.42399998E+02 -0.10825E+05
 0.42449997E+02 -0.79827E+04
 0.42499996E+02  0.19723E+05
 0.42549999E+02  0.10540E+05
 0.42599998E+02 -0.11520E+05
 0.42649998E+02 -0.10892E+05
 0.42699997E+02 -0.66555E+04
 0.42749996E+02 -0.15177E+04
 0.42799995E+02  0.34676E+04
 0.42849998E+02  0.29851E+04
 0.42899998E+02  0.21063E+04
 0.42949997E+02 -0.16332E+04
 0.42999996E+02 -0.54348E+04
 0.43049995E+02  0.29015E+04
 0.43099998E+02  0.93142E+04
 0.43149998E+02  0.33113E+04
 0.43199997E+02 -0.46084E+04
 0.43249996E+02 -0.57744E+04
 0.43299995E+02 -0.85886E+04
 0.43349998E+02 -0.15598E+05
 0.43399998E+02 -0.69701E+04
 0.43449997E+02  0.18235E+05
 0.43499996E+02  0.21252E+05
 0.43549995E+02  0.25892E+04
 0.43599998E+02 -0.11499E+05
 0.43649998E+02 -0.16210E+05
 0.43699997E+02 -0.20131E+03
 0.43749996E+02  0.15135E+05
 0.43799995E+02  0.12239E+05
 0.43849998E+02  0.36643E+04
 0.43899998E+02 -0.29047E+04
 0.43949997E+02 -0.73438E+04
 0.43999996E+02 -0.50119E+04
 0.44049995E+02  0.60418E+03
 0.44099998E+02 -0.65992E+03
 0.44149998E+02 -0.57558E+02
 0.44199997E+02  0.26744E+04
 0.44249996E+02  0.49134E+04
 0.44299995E+02  0.58814E+04
 0.44349998E+02 -0.21742E+04
 0.44399998E+02 -0.16448E+05
 0.44449997E+02 -0.22818E+05
 0.44499996E+02 -0.83851E+04
 0.44549995E+02  0.15899E+05
 0.44599998E+02  0.23428E+05
 0.44649998E+02  0.11488E+05
 0.44699997E+02 -0.18550E+04
 0.44749996E+02 -0.76925E+04
 0.44799995E+02 -0.62581E+04
 0.44849998E+02 -0.23469E+04
 0.44899998E+02 -0.16660E+04
 0.44949997E+02 -0.11097E+05
 0.44999996E+02 -0.13493E+05
 0.45049995E+02 -0.34935E+04
 0.45099998E+02  0.14345E+05
 0.45149998E+02  0.24794E+05
 0.45199997E+02  0.10683E+05
 0.45249996E+02 -0.47760E+04
 0.45299995E+02 -0.10587E+05
 0.45349998E+02 -0.76875E+04
 0.45399998E+02 -0.15512E+04
 0.45449997E+02  0.77251E+04
 0.45499996E+02  0.57979E+04
 0.45549995E+02 -0.29541E+04
 0.45599998E+02  0.72057E+04
 0.45649998E+02  0.16231E+05
 0.45699997E+02  0.37412E+04
 0.45749996E+02 -0.12018E+05
 0.45799995E+02 -0.97461E+04
 0.45849998E+02  0.81859E+03
 0.45899998E+02  0.55094E+04
 0.45949997E+02  0.10410E+04
 0.45999996E+02 -0.64578E+04
 0.46049995E+02 -0.68290E+04
 0.46099998E+02 -0.15161E+04
 0.46149998E+02  0.39038E+04
 0.46199997E+02  0.16130E+04
 0.46249996E+02 -0.91980E+03
 0.46299995E+02  0.21261E+04
 0.46349998E+02  0.63802E+03
 0.46399998E+02 -0.58795E+04
 0.46449997E+02 -0.47219E+04
 0.46499996E+02  0.94696E+03
 0.46549995E+02  0.18327E+04
 0.46599998E+02  0.52290E+04
 0.46649998E+02  0.74464E+04
 0.46699997E+02  0.13118E+04
 0.46749996E+02 -0.50878E+04
 0.46799995E+02 -0.81405E+04
 0.46849998E+02 -0.91713E+04
 0.46899998E+02  0.84510E+03
 0.46949997E+02  0.78316E+04
 0.46999996E+02  0.56925E+04
 0.47049995E+02  0.23054E+04
 0.47099998E+02 -0.38863E+04
 0.47149998E+02 -0.38988E+04
 0.47199997E+02 -0.33482E+04
 0.47249996E+02  0.74896E+03
 0.47299995E+02  0.54603E+04
 0.47349998E+02 -0.14289E+04
 0.47399998E+02 -0.68285E+04
 0.47449997E+02 -0.44201E+04
 0.47499996E+02 -0.11397E+03
 0.47549995E+02  0.43839E+04
 0.47599998E+02  0.27592E+04
 0.47649998E+02  0.15249E+03
 0.47699997E+02  0.55020E+03
 0.47749996E+02  0.10590E+04
 0.47799995E+02  0.12092E+04
 0.47849998E+02  0.66500E+03
 0.47899998E+02  0.15318E+04
 0.47949997E+02  0.13562E+04
 0.47999996E+02  0.50656E+04
 0.48049995E+02  0.63753E+04
 0.48099998E+02  0.22291E+04
 0.48149998E+02 -0.18219E+03
 0.48199997E+02 -0.20484E+04
 0.48249996E+02 -0.34097E+04
 0.48299995E+02 -0.72777E+03
 0.48349998E+02  0.42522E+03
 0.48399998E+02 -0.61107E+03
 0.48449997E+02  0.18892E+04
 0.48499996E+02  0.40321E+04
 0.48549995E+02  0.83502E+03
 0.48599998E+02 -0.49472E+04
 0.48649998E+02 -0.56742E+04
 0.48699997E+02 -0.36524E+04
 0.48749996E+02 -0.16549E+04
 0.48799995E+02  0.20908E+04
 0.48849998E+02  0.45316E+04
 0.48899998E+02  0.24587E+04
 0.48949997E+02  0.32257E+03
 0.48999996E+02 -0.37861E+03
 0.49049995E+02 -0.30326E+03
 0.49099998E+02 -0.35657E+04
 0.49149998E+02 -0.86124E+04
 0.49199997E+02 -0.72418E+04
 0.49249996E+02 -0.15368E+04
 0.49299995E+02  0.25869E+04
 0.49349998E+02  0.96719E+03
 0.49399998E+02  0.72896E+03
 0.49449997E+02  0.26167E+04
 0.49499996E+02  0.42490E+04
 0.49549995E+02  0.61457E+04
 0.49599998E+02  0.64128E+04
 0.49649998E+02  0.63791E+04
 0.49699997E+02  0.13765E+04
 0.49749996E+02 -0.56784E+04
 0.49799995E+02 -0.77539E+04
 0.49849998E+02 -0.44346E+04
 0.49899998E+02  0.13149E+04
 0.49949997E+02  0.53297E+03
 0.49999996E+02 -0.40395E+04
 0.50049995E+02 -0.46904E+04
 0.50099998E+02 -0.37994E+04
 0.50149998E+02 -0.49975E+03
 0.50199997E+02  0.45601E+04
 0.50249996E+02  0.41592E+04
 0.50299995E+02  0.54161E+03
 0.50349998E+02  0.24261E+03
 0.50399998E+02  0.13805E+04
 0.50449997E+02  0.15288E+04
 0.50499996E+02  0.17183E+04
 0.50549995E+02  0.37459E+04
 0.50599998E+02  0.47204E+04
 0.50649998E+02  0.20453E+04
 0.50699997E+02 -0.69943E+03
 0.50749996E+02 -0.40329E+04
 0.50799995E+02 -0.56199E+04
 0.50849998E+02 -0.48595E+04
 0.50899998E+02 -0.43884E+04
 0.50949997E+02  0.73879E+03
 0.50999996E+02  0.67394E+04
 0.51049995E+02  0.28183E+04
 0.51099998E+02 -0.31900E+04
 0.51149998E+02 -0.26991E+04
 0.51199997E+02  0.22017E+03
 0.51249996E+02  0.27115E+04
 0.51299995E+02  0.23765E+04
 0.51349998E+02  0.47504E+03
 0.51399998E+02 -0.13695E+03
 0.51449997E+02  0.23118E+03
 0.51499996E+02  0.12051E+04
 0.51549995E+02  0.19675E+04
 0.51599998E+02 -0.24255E+04
 0.51649998E+02 -0.53358E+04
 0.51699997E+02 -0.26496E+04
 0.51749996E+02 -0.15627E+04
 0.51799995E+02 -0.24014E+04
 0.51849998E+02 -0.30790E+04
 0.51899998E+02  0.29360E+02
 0.51949997E+02  0.36729E+04
 0.51999996E+02  0.29041E+04
 0.52049995E+02  0.26569E+04
 0.52099998E+02  0.13328E+04
 0.52149998E+02 -0.22777E+04
 0.52199997E+02 -0.27627E+04
 0.52249996E+02 -0.16523E+04
 0.52299995E+02 -0.18877E+03
 0.52349998E+02  0.22697E+04
 0.52399998E+02  0.31336E+04
 0.52449997E+02  0.25296E+04
 0.52499996E+02  0.30170E+04
 0.52549995E+02  0.21267E+04
 0.52599998E+02 -0.17840E+04
 0.52649998E+02 -0.41784E+04
 0.52699997E+02 -0.40963E+04
 0.52749996E+02 -0.30605E+04
 0.52799995E+02 -0.10759E+04
 0.52849998E+02 -0.25844E+03
 0.52899998E+02 -0.75009E+03
 0.52949997E+02  0.32591E+03
 0.52999996E+02  0.34096E+04
 0.53049995E+02  0.44227E+04
 0.53099998E+02  0.16048E+04
 0.53149998E+02 -0.56908E+03
 0.53199997E+02 -0.11515E+04
 0.53249996E+02 -0.32706E+04
 0.53299995E+02 -0.23777E+04
 0.53349998E+02  0.11250E+04
 0.53399998E+02  0.17442E+04
 0.53449997E+02  0.30031E+04
 0.53499996E+02  0.33829E+04
 0.53549995E+02  0.31429E+04
 0.53599998E+02  0.16170E+04
 0.53649998E+02 -0.96458E+03
 0.53699997E+02 -0.13853E+04
 0.53749996E+02 -0.10639E+04
 0.53799995E+02  0.42423E+03
 0.53849998E+02  0.92809E+03
 0.53899998E+02  0.10122E+03
 0.53949997E+02 -0.14388E+04
 0.53999996E+02 -0.17818E+04
 0.54049995E+02 -0.15910E+04
 0.54099998E+02 -0.34791E+02
 0.54149998E+02  0.26478E+04
 0.54199997E+02  0.36319E+04
 0.54249996E+02  0.18306E+04
 0.54299995E+02 -0.84384E+03
 0.54349998E+02 -0.94594E+03
 0.54399998E+02 -0.40147E+03
 0.54449997E+02  0.26608E+02
 0.54499996E+02  0.51639E+03
 0.54549995E+02  0.64284E+03
 0.54599998E+02 -0.18541E+04
 0.54649998E+02 -0.42099E+04
 0.54699997E+02 -0.35148E+04
 0.54749996E+02 -0.42250E+04
 0.54799995E+02 -0.42171E+04
 0.54849998E+02 -0.31576E+04
 0.54899998E+02  0.22882E+03
 0.54949997E+02  0.52651E+04
 0.54999996E+02  0.33906E+04
 0.55049995E+02 -0.79367E+03
 0.55099998E+02 -0.95706E+03
 0.55149998E+02  0.17308E+04
 0.55199997E+02  0.23409E+04
 0.55249996E+02 -0.11316E+03
 0.55299995E+02 -0.10841E+04
 0.55349998E+02 -0.15466E+04
 0.55399998E+02 -0.16691E+04
 0.55449997E+02 -0.19525E+04
 0.55499996E+02 -0.24810E+04
 0.55549995E+02 -0.19099E+04
 0.55599998E+02 -0.20504E+03
 0.55649998E+02  0.11411E+04
 0.55699997E+02  0.31067E+03
 0.55749996E+02 -0.60789E+03
 0.55799995E+02 -0.42123E+03
 0.55849995E+02  0.18299E+04
 0.55899998E+02  0.25516E+04
 0.55949997E+02  0.31278E+03
 0.55999996E+02 -0.31946E+03
 0.56049995E+02 -0.90527E+02
 0.56099995E+02  0.95917E+03
 0.56149998E+02  0.29720E+04
 0.56199997E+02  0.33856E+04
 0.56249996E+02  0.37656E+04
 0.56299995E+02  0.26697E+04
 0.56349995E+02 -0.26099E+03
 0.56399998E+02 -0.13735E+04
 0.56449997E+02 -0.26504E+03
 0.56499996E+02  0.63042E+03
 0.56549995E+02  0.41831E+03
 0.56599995E+02 -0.34819E+03
 0.56649998E+02 -0.80978E+03
 0.56699997E+02 -0.90749E+03
 0.56749996E+02  0.30882E+03
 0.56799995E+02  0.18583E+04
 0.56849995E+02  0.93260E+03
 0.56899998E+02 -0.51634E+03
 0.56949997E+02 -0.87435E+03
 0.56999996E+02 -0.53118E+03
 0.57049995E+02 -0.25503E+03
 0.57099995E+02 -0.20785E+03
 0.57149998E+02 -0.26582E+04
 0.57199997E+02 -0.55346E+04
 0.57249996E+02 -0.46158E+04
 0.57299995E+02 -0.10091E+04
 0.57349995E+02  0.96452E+03
 0.57399998E+02  0.75723E+03
 0.57449997E+02  0.56180E+03
 0.57499996E+02  0.56453E+03
 0.57549995E+02  0.12707E+04
 0.57599995E+02  0.11650E+04
 0.57649998E+02  0.10271E+04
 0.57699997E+02  0.14728E+04
 0.57749996E+02  0.12280E+04
 0.57799995E+02  0.10260E+04
 0.57849995E+02  0.31248E+03
 0.57899998E+02 -0.71979E+03
 0.57949997E+02 -0.15139E+04
 0.57999996E+02 -0.16546E+04
 0.58049995E+02 -0.17086E+04
 0.58099995E+02 -0.16278E+04
 0.58149998E+02 -0.82982E+03
 0.58199997E+02 -0.77712E+02
 0.58249996E+02  0.41158E+02
 0.58299995E+02  0.13431E+03
 0.58349995E+02  0.13322E+04
 0.58399998E+02  0.20922E+04
 0.58449997E+02  0.25976E+04
 0.58499996E+02  0.24481E+04
 0.58549995E+02  0.84471E+03
 0.58599995E+02 -0.69178E+02
 0.58649998E+02 -0.30869E+03
 0.58699997E+02 -0.16453E+04
 0.58749996E+02 -0.26781E+04
 0.58799995E+02 -0.18629E+04
 0.58849995E+02 -0.15488E+04
 0.58899998E+02 -0.32131E+04
 0.58949997E+02 -0.38605E+04
 0.58999996E+02 -0.16340E+04
 0.59049995E+02  0.25107E+04
 0.59099995E+02  0.48135E+04
 0.59149998E+02  0.44330E+04
 0.59199997E+02  0.26214E+04
 0.59249996E+02  0.32676E+03
 0.59299995E+02  0.10382E+04
 0.59349995E+02  0.26509E+04
 0.59399998E+02  0.12419E+04
 0.59449997E+02 -0.30582E+03
 0.59499996E+02 -0.13553E+04
 0.59549995E+02 -0.16986E+04
 0.59599995E+02 -0.22567E+03
 0.59649998E+02  0.15547E+04
 0.59699997E+02  0.21780E+04
 0.59749996E+02  0.12502E+04
 0.59799995E+02  0.56133E+03
 0.59849995E+02 -0.41374E+03
 0.59899998E+02 -0.70198E+03
 0.59949997E+02 -0.95558E+03
 0.59999996E+02 -0.73644E+03
 0.60049995E+02  0.47328E+02
 0.60099995E+02 -0.59815E+03
 0.60149998E+02 -0.13523E+04
 0.60199997E+02 -0.21944E+04
 0.60249996E+02 -0.28331E+04
 0.60299995E+02 -0.26043E+04
 0.60349995E+02 -0.18945E+04
 0.60399998E+02 -0.13147E+04
 0.60449997E+02 -0.10466E+03
 0.60499996E+02  0.18186E+04
 0.60549995E+02  0.26347E+04
 0.60599995E+02  0.20644E+04
 0.60649998E+02  0.13722E+04
 0.60699997E+02  0.58850E+03
 0.60749996E+02  0.20084E+02
 0.60799995E+02  0.93096E+02
 0.60849995E+02 -0.44683E+03
 0.60899998E+02 -0.47606E+03
 0.60949997E+02  0.44871E+03
 0.60999996E+02  0.54114E+03
 0.61049995E+02 -0.38417E+03
 0.61099995E+02 -0.10453E+04
 0.61149998E+02 -0.10326E+03
 0.61199997E+02  0.19828E+04
 0.61249996E+02  0.13934E+04
 0.61299995E+02 -0.34827E+03
 0.61349995E+02 -0.11611E+04
 0.61399998E+02 -0.12367E+04
 0.61449997E+02  0.27165E+03
 0.61499996E+02  0.70284E+03
 0.61549995E+02 -0.29317E+03
 0.61599995E+02 -0.66007E+03
 0.61649998E+02  0.50484E+03
 0.61699997E+02  0.10732E+04
 0.61749996E+02  0.65008E+03
 0.61799995E+02  0.54414E+03
 0.61849995E+02  0.73874E+02
 0.61899998E+02 -0.15053E+04
 0.61949997E+02 -0.21044E+04
 0.61999996E+02 -0.16137E+04
 0.62049995E+02 -0.80765E+03
 0.62099998E+02  0.66040E+03
 0.62149994E+02  0.75030E+03
 0.62199997E+02 -0.53114E+03
 0.62249992E+02 -0.14470E+04
 0.62299995E+02 -0.93081E+03
 0.62349998E+02 -0.39890E+02
 0.62399994E+02  0.20282E+03
 0.62449997E+02  0.30346E+02
 0.62499992E+02  0.46811E+01
 0.62549995E+02  0.59669E+03
 0.62599998E+02  0.84207E+03
 0.62649994E+02  0.37177E+03
 0.62699997E+02 -0.43513E+03
 0.62749992E+02 -0.13785E+04
 0.62799995E+02 -0.13957E+04
 0.62849998E+02 -0.13489E+03
 0.62899994E+02  0.17450E+04
 0.62949997E+02  0.35957E+04
 0.62999992E+02  0.43523E+04
 0.63049995E+02  0.36549E+04
 0.63099998E+02  0.18054E+04
 0.63149994E+02 -0.60616E+03
 0.63199997E+02 -0.18454E+04
 0.63249992E+02 -0.19996E+04
 0.63299995E+02 -0.26537E+04
 0.63349998E+02 -0.29515E+04
 0.63399994E+02 -0.29398E+04
 0.63449997E+02 -0.25923E+04
 0.63499992E+02 -0.33338E+03
 0.63549995E+02  0.14162E+04
 0.63599998E+02  0.13515E+04
 0.63649994E+02  0.11824E+04
 0.63699997E+02  0.96060E+03
 0.63749992E+02 -0.38457E+03
 0.63799995E+02 -0.24504E+04
 0.63849998E+02 -0.28692E+04
 0.63899994E+02 -0.14457E+04
 0.63949997E+02 -0.12098E+03
 0.63999992E+02  0.80220E+03
 0.64049995E+02  0.69388E+03
 0.64099998E+02 -0.52932E+03
 0.64149994E+02 -0.12693E+04
 0.64199997E+02 -0.12938E+04
 0.64249992E+02 -0.92101E+03
 0.64299995E+02  0.98139E+02
 0.64349998E+02  0.15199E+04
 0.64399994E+02  0.23228E+04
 0.64449997E+02  0.23606E+04
 0.64499992E+02  0.21848E+04
 0.64549995E+02  0.18733E+04
 0.64599998E+02  0.19277E+04
 0.64649994E+02  0.15409E+04
 0.64699997E+02  0.21560E+03
 0.64749992E+02 -0.29612E+03
 0.64799995E+02  0.70713E+02
 0.64849998E+02  0.40610E+03
 0.64899994E+02  0.14500E+03
 0.64949997E+02  0.12961E+03
 0.64999992E+02 -0.26347E+03
 0.65049995E+02 -0.10627E+04
 0.65099998E+02 -0.62799E+03
 0.65149994E+02 -0.22234E+03
 0.65199997E+02 -0.65444E+03
 0.65249992E+02 -0.93803E+03
 0.65299995E+02 -0.24294E+03
 0.65349998E+02  0.39536E+03
 0.65399994E+02  0.52109E+03
 0.65449997E+02  0.71144E+03
 0.65499992E+02  0.10542E+04
 0.65549995E+02  0.72652E+03
 0.65599998E+02 -0.41201E+03
 0.65649994E+02 -0.16091E+04
 0.65699997E+02 -0.14814E+04
 0.65749992E+02  0.12812E+03
 0.65799995E+02  0.64180E+03
 0.65849998E+02  0.40645E+02
 0.65899994E+02 -0.63950E+03
 0.65949997E+02 -0.53938E+03
 0.65999992E+02 -0.32267E+03
 0.66049995E+02 -0.92223E+03
 0.66099998E+02 -0.94570E+03
 0.66149994E+02 -0.42339E+03
 0.66199997E+02 -0.21201E+03
 0.66249992E+02 -0.45727E+03
 0.66299995E+02 -0.65667E+03
 0.66349998E+02 -0.53402E+03
 0.66399994E+02 -0.15000E+02
 0.66449997E+02  0.30726E+03
 0.66499992E+02  0.58089E+03
 0.66549995E+02  0.33116E+03
 0.66599998E+02 -0.31277E+03
 0.66649994E+02  0.20654E+03
 0.66699997E+02  0.11023E+04
 0.66749992E+02  0.13094E+04
 0.66799995E+02  0.45983E+03
 0.66849998E+02  0.51705E+03
 0.66899994E+02  0.79546E+03
 0.66949997E+02  0.27200E+03
 0.66999992E+02 -0.48913E+03
 0.67049995E+02 -0.11193E+04
 0.67099998E+02 -0.18209E+03
 0.67149994E+02  0.55358E+03
 0.67199997E+02  0.93752E+03
 0.67249992E+02  0.13127E+04
 0.67299995E+02  0.10802E+04
 0.67349998E+02  0.11290E+04
 0.67399994E+02  0.10526E+04
 0.67449997E+02 -0.28946E+03
 0.67499992E+02 -0.20054E+04
 0.67549995E+02 -0.32249E+04
 0.67599998E+02 -0.35989E+04
 0.67649994E+02 -0.25543E+04
 0.67699997E+02 -0.14035E+04
 0.67749992E+02 -0.80835E+03
 0.67799995E+02 -0.25284E+03
 0.67849998E+02  0.32879E+03
 0.67899994E+02  0.98802E+03
 0.67949997E+02  0.18362E+04
 0.67999992E+02  0.19422E+04
 0.68049995E+02  0.17807E+04
 0.68099998E+02  0.97398E+03
 0.68149994E+02 -0.48972E+03
 0.68199997E+02 -0.71994E+03
 0.68249992E+02 -0.25837E+03
 0.68299995E+02  0.36763E+03
 0.68349998E+02  0.65820E+03
 0.68399994E+02  0.18508E+03
 0.68449997E+02 -0.15236E+02
 0.68499992E+02  0.74682E+03
 0.68549995E+02  0.12936E+04
 0.68599998E+02  0.10575E+04
 0.68649994E+02  0.60041E+03
 0.68699997E+02  0.57263E+03
 0.68749992E+02  0.81254E+03
 0.68799995E+02  0.28080E+03
 0.68849998E+02 -0.93208E+03
 0.68899994E+02 -0.15633E+04
 0.68949997E+02 -0.12305E+04
 0.68999992E+02 -0.90524E+03
 0.69049995E+02 -0.12383E+04
 0.69099998E+02 -0.15033E+04
 0.69149994E+02 -0.75446E+03
 0.69199997E+02 -0.44673E+02
 0.69249992E+02 -0.41246E+03
 0.69299995E+02 -0.11910E+04
 0.69349998E+02 -0.78451E+03
 0.69399994E+02  0.43173E+03
 0.69449997E+02  0.14656E+04
 0.69499992E+02  0.20185E+04
 0.69549995E+02  0.16162E+04
 0.69599998E+02  0.98874E+03
 0.69649994E+02  0.83440E+03
 0.69699997E+02  0.10198E+04
 0.69749992E+02  0.10478E+04
 0.69799995E+02  0.35802E+03
 0.69849998E+02 -0.49055E+03
 0.69899994E+02 -0.89359E+03
 0.69949997E+02 -0.14750E+04
 0.69999992E+02 -0.16494E+04
 0.70049995E+02 -0.15422E+04
 0.70099998E+02 -0.12285E+04
 0.70149994E+02 -0.64714E+03
 0.70199997E+02 -0.41373E+03
 0.70249992E+02  0.43717E+02
 0.70299995E+02  0.84374E+03
 0.70349998E+02  0.15432E+04
 0.70399994E+02  0.16413E+04
 0.70449997E+02  0.78050E+03
 0.70499992E+02  0.37161E+03
 0.70549995E+02  0.45336E+03
 0.70599998E+02  0.45479E+03
 0.70649994E+02  0.31155E+03
 0.70699997E+02  0.20232E+03
 0.70749992E+02  0.30859E+03
 0.70799995E+02  0.11185E+03
 0.70849998E+02  0.32657E+02
 0.70899994E+02 -0.17384E+03
 0.70949997E+02 -0.53689E+03
 0.70999992E+02 -0.99264E+03
 0.71049995E+02 -0.12013E+04
 0.71099998E+02 -0.13739E+04
 0.71149994E+02 -0.90409E+03
 0.71199997E+02  0.43678E+03
 0.71249992E+02  0.10882E+04
 0.71299995E+02  0.11371E+04
 0.71349998E+02  0.10914E+04
 0.71399994E+02  0.69934E+03
 0.71449997E+02  0.51564E+03
 0.71499992E+02  0.62394E+03
 0.71549995E+02  0.29955E+03
 0.71599998E+02 -0.41503E+03
 0.71649994E+02 -0.11538E+04
 0.71699997E+02 -0.16518E+04
 0.71749992E+02 -0.20679E+04
 0.71799995E+02 -0.19944E+04
 0.71849998E+02 -0.11831E+04
 0.71899994E+02 -0.50461E+03
 0.71949997E+02 -0.36950E+03
 0.71999992E+02 -0.81669E+02
 0.72049995E+02  0.12258E+03
 0.72099998E+02 -0.19834E+03
 0.72149994E+02 -0.35540E+03
 0.72199997E+02  0.17839E+03
 0.72249992E+02  0.11340E+04
 0.72299995E+02  0.12333E+04
 0.72349998E+02  0.40164E+03
 0.72399994E+02 -0.21101E+03
 0.72449997E+02 -0.37261E+02
 0.72499992E+02  0.10990E+03
 0.72549995E+02 -0.33839E+03
 0.72599998E+02 -0.50444E+03
 0.72649994E+02 -0.44661E+03
 0.72699997E+02 -0.71247E+02
 0.72749992E+02  0.78120E+03
 0.72799995E+02  0.16770E+04
 0.72849998E+02  0.24645E+04
 0.72899994E+02  0.18529E+04
 0.72949997E+02  0.54897E+03
 0.72999992E+02  0.12326E+03
 0.73049995E+02  0.28739E+03
 0.73099998E+02  0.46998E+03
 0.73149994E+02  0.19170E+02
 0.73199997E+02 -0.39578E+03
 0.73249992E+02 -0.20626E+03
 0.73299995E+02  0.76433E+02
 0.73349998E+02 -0.41596E+02
 0.73399994E+02 -0.30356E+02
 0.73449997E+02  0.43730E+03
 0.73499992E+02  0.71730E+03
 0.73549995E+02  0.51728E+03
 0.73599998E+02  0.40633E+03
 0.73649994E+02  0.40378E+03
 0.73699997E+02  0.50738E+02
 0.73749992E+02 -0.47880E+03
 0.73799995E+02 -0.10659E+04
 0.73849998E+02 -0.14850E+04
 0.73899994E+02 -0.15660E+04
 0.73949997E+02 -0.17613E+04
 0.73999992E+02 -0.16341E+04
 0.74049995E+02 -0.10107E+04
 0.74099998E+02 -0.86702E+03
 0.74149994E+02 -0.54055E+03
 0.74199997E+02 -0.39071E+03
 0.74249992E+02 -0.76532E+03
 0.74299995E+02 -0.72438E+03
 0.74349998E+02 -0.59523E+03
 0.74399994E+02 -0.72047E+03
 0.74449997E+02 -0.77899E+03
 0.74499992E+02 -0.53486E+03
 0.74549995E+02  0.22346E+02
 0.74599998E+02  0.62008E+03
 0.74649994E+02  0.96049E+03
 0.74699997E+02  0.13647E+04
 0.74749992E+02  0.12099E+04
 0.74799995E+02  0.59729E+03
 0.74849998E+02  0.37914E+03
 0.74899994E+02  0.39057E+03
 0.74949997E+02  0.61589E+03
 0.74999992E+02  0.79123E+03
 0.75049995E+02  0.65879E+03
 0.75099998E+02  0.33024E+03
 0.75149994E+02  0.53220E+02
 0.75199997E+02  0.92689E+02
 0.75249992E+02  0.19111E+03
 0.75299995E+02 -0.31834E+03
 0.75349998E+02 -0.43375E+03
 0.75399994E+02  0.40538E+03
 0.75449997E+02  0.93136E+03
 0.75499992E+02  0.10570E+04
 0.75549995E+02  0.94118E+03
 0.75599998E+02  0.59267E+03
 0.75649994E+02  0.12298E+03
 0.75699997E+02 -0.44593E+03
 0.75749992E+02 -0.95587E+03
 0.75799995E+02 -0.12317E+04
 0.75849998E+02 -0.14514E+04
 0.75899994E+02 -0.11754E+04
 0.75949997E+02 -0.53335E+03
 0.75999992E+02 -0.99490E+02
 0.76049995E+02  0.25125E+03
 0.76099998E+02  0.14747E+03
 0.76149994E+02 -0.31820E+03
 0.76199997E+02 -0.51710E+03
 0.76249992E+02 -0.82298E+02
 0.76299995E+02  0.16473E+03
 0.76349998E+02  0.17943E+03
 0.76399994E+02  0.62475E+03
 0.76449997E+02  0.11259E+04
 0.76499992E+02  0.78767E+03
 0.76549995E+02 -0.19581E+03
 0.76599998E+02 -0.67165E+03
 0.76649994E+02 -0.83589E+03
 0.76699997E+02 -0.79416E+03
 0.76749992E+02 -0.42324E+03
 0.76799995E+02 -0.29336E+02
 0.76849998E+02  0.45610E+03
 0.76899994E+02  0.83317E+03
 0.76949997E+02  0.62544E+03
 0.76999992E+02  0.48011E+02
 0.77049995E+02 -0.16484E+03
 0.77099998E+02 -0.31649E+02
 0.77149994E+02 -0.24868E+01
 0.77199997E+02  0.17092E+01
 0.77249992E+02  0.41063E+03
 0.77299995E+02  0.80797E+03
 0.77349998E+02  0.53811E+03
 0.77399994E+02 -0.27134E+03
 0.77449997E+02 -0.72838E+03
 0.77499992E+02 -0.77451E+03
 0.77549995E+02 -0.82297E+03
 0.77599998E+02 -0.72335E+03
 0.77649994E+02 -0.46896E+03
 0.77699997E+02 -0.15693E+03
 0.77749992E+02  0.48160E+03
 0.77799995E+02  0.87661E+03
 0.77849998E+02  0.75713E+03
 0.77899994E+02  0.78605E+03
 0.77949997E+02  0.82094E+03
 0.77999992E+02  0.72649E+03
 0.78049995E+02  0.29546E+03
 0.78099998E+02 -0.14856E+03
 0.78149994E+02 -0.44339E+03
 0.78199997E+02 -0.73961E+03
 0.78249992E+02 -0.87141E+03
 0.78299995E+02 -0.79166E+03
 0.78349998E+02 -0.66041E+03
 0.78399994E+02 -0.40186E+03
 0.78449997E+02  0.69854E+02
 0.78499992E+02  0.28819E+02
 0.78549995E+02 -0.33510E+03
 0.78599998E+02 -0.35213E+03
 0.78649994E+02 -0.13284E+03
 0.78699997E+02  0.42239E+03
 0.78749992E+02  0.87663E+03
 0.78799995E+02  0.74349E+03
 0.78849998E+02  0.39663E+03
 0.78899994E+02  0.18805E+03
 0.78949997E+02  0.34272E+03
 0.78999992E+02  0.52139E+03
 0.79049995E+02  0.60396E+03
 0.79099998E+02  0.61081E+03
 0.79149994E+02  0.34254E+03
 0.79199997E+02 -0.10216E+02
 0.79249992E+02 -0.33133E+03
 0.79299995E+02 -0.44871E+03
 0.79349998E+02 -0.53448E+03
 0.79399994E+02 -0.56193E+03
 0.79449997E+02 -0.39599E+03
 0.79499992E+02 -0.32175E+03
 0.79549995E+02 -0.34529E+03
 0.79599998E+02 -0.30842E+03
 0.79649994E+02 -0.24714E+03
 0.79699997E+02 -0.16476E+03
 0.79749992E+02 -0.28343E+03
 0.79799995E+02 -0.49919E+03
 0.79849998E+02 -0.52988E+03
 0.79899994E+02 -0.45885E+03
 0.79949997E+02 -0.43766E+03
 0.79999992E+02 -0.12656E+02
 0.80049995E+02  0.83058E+03
 0.80099998E+02  0.10970E+04
 0.80149994E+02  0.10165E+04
 0.80199997E+02  0.97374E+03
 0.80249992E+02  0.73612E+03
 0.80299995E+02  0.52714E+03
 0.80349998E+02  0.28660E+03
 0.80399994E+02 -0.23087E+03
 0.80449997E+02 -0.10058E+04
 0.80499992E+02 -0.16463E+04
 0.80549995E+02 -0.14509E+04
 0.80599998E+02 -0.72626E+03
 0.80649994E+02  0.87608E+02
 0.80699997E+02  0.59001E+03
 0.80749992E+02  0.65236E+03
 0.80799995E+02  0.69078E+03
 0.80849998E+02  0.59801E+03
 0.80899994E+02  0.36137E+03
 0.80949997E+02  0.11065E+03
 0.80999992E+02 -0.24813E+03
 0.81049995E+02 -0.57594E+03
 0.81099998E+02 -0.65904E+03
 0.81149994E+02 -0.73658E+03
 0.81199997E+02 -0.62404E+03
 0.81249992E+02 -0.33458E+03
 0.81299995E+02  0.81901E+02
 0.81349998E+02  0.74056E+03
 0.81399994E+02  0.10885E+04
 0.81449997E+02  0.85981E+03
 0.81499992E+02  0.16427E+03
 0.81549995E+02 -0.33024E+03
 0.81599998E+02 -0.30130E+03
 0.81649994E+02  0.38361E+02
 0.81699997E+02  0.41296E+03
 0.81749992E+02  0.67463E+03
 0.81799995E+02  0.81244E+03
 0.81849998E+02  0.51693E+03
 0.81899994E+02 -0.19757E+03
 0.81949997E+02 -0.96448E+03
 0.81999992E+02 -0.12432E+04
 0.82049995E+02 -0.96064E+03
 0.82099998E+02 -0.45841E+03
 0.82149994E+02 -0.29049E+03
 0.82199997E+02 -0.18668E+03
 0.82249992E+02  0.16255E+03
 0.82299995E+02  0.40004E+03
 0.82349998E+02  0.24544E+03
 0.82399994E+02 -0.15942E+03
 0.82449997E+02 -0.45642E+03
 0.82499992E+02 -0.50942E+03
 0.82549995E+02 -0.18156E+03
 0.82599998E+02  0.10209E+03
 0.82649994E+02  0.28012E+03
 0.82699997E+02  0.45432E+03
 0.82749992E+02  0.52459E+03
 0.82799995E+02  0.15592E+03
 0.82849998E+02 -0.17856E+03
 0.82899994E+02 -0.18084E+03
 0.82949997E+02 -0.25052E+03
 0.82999992E+02 -0.41421E+03
 0.83049995E+02 -0.51507E+03
 0.83099998E+02 -0.86631E+02
 0.83149994E+02  0.26501E+03
 0.83199997E+02  0.52125E+03
 0.83249992E+02  0.89019E+03
 0.83299995E+02  0.66462E+03
 0.83349998E+02  0.16445E+03
 0.83399994E+02 -0.81050E+02
 0.83449997E+02 -0.58009E+02
 0.83499992E+02  0.13838E+02
 0.83549995E+02  0.12458E+03
 0.83599998E+02  0.12875E+03
 0.83649994E+02 -0.40564E+03
 0.83699997E+02 -0.88198E+03
 0.83749992E+02 -0.92336E+03
 0.83799995E+02 -0.73251E+03
 0.83849998E+02 -0.71022E+03
 0.83899994E+02 -0.86614E+03
 0.83949997E+02 -0.91056E+03
 0.83999992E+02 -0.55199E+03
 0.84049995E+02  0.23605E+03
 0.84099998E+02  0.77660E+03
 0.84149994E+02  0.99612E+03
 0.84199997E+02  0.10822E+04
 0.84249992E+02  0.10551E+04
 0.84299995E+02  0.80852E+03
 0.84349998E+02  0.53446E+03
 0.84399994E+02  0.34220E+03
 0.84449997E+02  0.23398E+03
 0.84499992E+02  0.24110E+03
 0.84549995E+02  0.22479E+03
 0.84599998E+02  0.75402E+02
 0.84649994E+02 -0.28502E+03
 0.84699997E+02 -0.44452E+03
 0.84749992E+02 -0.13413E+03
 0.84799995E+02  0.35561E+03
 0.84849998E+02  0.41803E+03
 0.84899994E+02  0.49831E+02
 0.84949997E+02 -0.25282E+03
 0.84999992E+02 -0.33927E+03
 0.85049995E+02 -0.30382E+03
 0.85099998E+02 -0.16531E+03
 0.85149994E+02 -0.11632E+03
 0.85199997E+02 -0.21938E+03
 0.85249992E+02 -0.13233E+02
 0.85299995E+02  0.29479E+03
 0.85349998E+02  0.51602E+03
 0.85399994E+02  0.48127E+03
 0.85449997E+02  0.27186E+03
 0.85499992E+02  0.18936E+03
 0.85549995E+02 -0.15674E+03
 0.85599998E+02 -0.71777E+03
 0.85649994E+02 -0.88298E+03
 0.85699997E+02 -0.49279E+03
 0.85749992E+02 -0.13770E+03
 0.85799995E+02  0.30944E+02
 0.85849998E+02  0.91537E+02
 0.85899994E+02  0.34407E+03
 0.85949997E+02  0.68225E+03
 0.85999992E+02  0.87084E+03
 0.86049995E+02  0.76905E+03
 0.86099998E+02  0.25392E+03
 0.86149994E+02 -0.26105E+03
 0.86199997E+02 -0.45886E+03
 0.86249992E+02 -0.32308E+03
 0.86299995E+02 -0.23511E+03
 0.86349998E+02 -0.10912E+03
 0.86399994E+02  0.16263E+03
 0.86449997E+02  0.21719E+03
 0.86499992E+02 -0.22416E+03
 0.86549995E+02 -0.58926E+03
 0.86599998E+02 -0.73535E+03
 0.86649994E+02 -0.78603E+03
 0.86699997E+02 -0.53136E+03
 0.86749992E+02 -0.24496E+03
 0.86799995E+02 -0.18069E+02
 0.86849998E+02  0.11318E+03
 0.86899994E+02  0.29202E+03
 0.86949997E+02  0.58391E+03
 0.86999992E+02  0.67286E+03
 0.87049995E+02  0.57361E+03
 0.87099998E+02  0.42497E+03
 0.87149994E+02  0.26591E+03
 0.87199997E+02  0.14747E+03
 0.87249992E+02 -0.12910E+03
 0.87299995E+02 -0.49820E+03
 0.87349998E+02 -0.63996E+03
 0.87399994E+02 -0.68272E+03
 0.87449997E+02 -0.83283E+03
 0.87499992E+02 -0.90734E+03
 0.87549995E+02 -0.61337E+03
 0.87599991E+02 -0.25153E+03
 0.87649994E+02 -0.14987E+03
 0.87699997E+02  0.16174E+02
 0.87749992E+02  0.33479E+03
 0.87799995E+02  0.48806E+03
 0.87849991E+02  0.24560E+03
 0.87899994E+02 -0.68997E+02
 0.87949997E+02 -0.23933E+03
 0.87999992E+02 -0.42454E+03
 0.88049995E+02 -0.70565E+03
 0.88099991E+02 -0.91877E+03
 0.88149994E+02 -0.88901E+03
 0.88199997E+02 -0.55877E+03
 0.88249992E+02  0.23852E+02
 0.88299995E+02  0.57197E+03
 0.88349991E+02  0.10774E+04
 0.88399994E+02  0.15136E+04
 0.88449997E+02  0.17790E+04
 0.88499992E+02  0.19224E+04
 0.88549995E+02  0.17576E+04
 0.88599991E+02  0.12106E+04
 0.88649994E+02  0.44836E+03
 0.88699997E+02 -0.34713E+03
 0.88749992E+02 -0.76518E+03
 0.88799995E+02 -0.80783E+03
 0.88849991E+02 -0.92154E+03
 0.88899994E+02 -0.11358E+04
 0.88949997E+02 -0.13071E+04
 0.88999992E+02 -0.12806E+04
 0.89049995E+02 -0.10316E+04
 0.89099991E+02 -0.58354E+03
 0.89149994E+02 -0.23936E+03
 0.89199997E+02 -0.26945E+03
 0.89249992E+02  0.89376E+02
 0.89299995E+02  0.75585E+03
 0.89349991E+02  0.95617E+03
 0.89399994E+02  0.83178E+03
 0.89449997E+02  0.54426E+03
 0.89499992E+02  0.20930E+03
 0.89549995E+02  0.25169E+02
 0.89599991E+02  0.13502E+03
 0.89649994E+02  0.14920E+03
 0.89699997E+02 -0.16824E+03
 0.89749992E+02 -0.38546E+03
 0.89799995E+02 -0.32905E+03
 0.89849991E+02 -0.88228E+02
 0.89899994E+02  0.90623E+01
 0.89949997E+02  0.13755E+02
 0.89999992E+02  0.36299E+02
 0.90049995E+02  0.37161E+02
 0.90099991E+02  0.23841E+02
 0.90149994E+02 -0.61802E+02
 0.90199997E+02 -0.51651E+02
 0.90249992E+02 -0.43402E+01
 0.90299995E+02 -0.15491E+03
 0.90349991E+02 -0.13971E+03
 0.90399994E+02  0.16068E+03
 0.90449997E+02  0.29115E+03
 0.90499992E+02  0.91192E+01
 0.90549995E+02 -0.41220E+03
 0.90599991E+02 -0.58521E+03
 0.90649994E+02 -0.63544E+03
 0.90699997E+02 -0.54670E+03
 0.90749992E+02 -0.33754E+03
 0.90799995E+02 -0.27138E+03
 0.90849991E+02 -0.36969E+03
 0.90899994E+02 -0.33191E+03
 0.90949997E+02 -0.63895E+02
 0.90999992E+02  0.26194E+03
 0.91049995E+02  0.62676E+03
 0.91099991E+02  0.96165E+03
 0.91149994E+02  0.11807E+04
 0.91199997E+02  0.11796E+04
 0.91249992E+02  0.82611E+03
 0.91299995E+02  0.32501E+03
 0.91349991E+02 -0.57764E+02
 0.91399994E+02 -0.20900E+03
 0.91449997E+02 -0.24647E+03
 0.91499992E+02 -0.35194E+03
 0.91549995E+02 -0.60228E+03
 0.91599991E+02 -0.88771E+03
 0.91649994E+02 -0.84573E+03
 0.91699997E+02 -0.52650E+03
 0.91749992E+02 -0.27634E+03
 0.91799995E+02 -0.16277E+03
 0.91849991E+02  0.59924E+02
 0.91899994E+02  0.29669E+03
 0.91949997E+02  0.34459E+03
 0.91999992E+02  0.32093E+03
 0.92049995E+02  0.35004E+03
 0.92099991E+02  0.44806E+03
 0.92149994E+02  0.48632E+03
 0.92199997E+02  0.28918E+03
 0.92249992E+02 -0.46203E+02
 0.92299995E+02 -0.32175E+03
 0.92349991E+02 -0.44094E+03
 0.92399994E+02 -0.30186E+03
 0.92449997E+02 -0.10934E+03
 0.92499992E+02 -0.16391E+03
 0.92549995E+02 -0.47317E+03
 0.92599991E+02 -0.76250E+03
 0.92649994E+02 -0.83345E+03
 0.92699997E+02 -0.48326E+03
 0.92749992E+02 -0.27690E+02
 0.92799995E+02  0.26594E+03
 0.92849991E+02  0.47485E+03
 0.92899994E+02  0.56625E+03
 0.92949997E+02  0.58872E+03
 0.92999992E+02  0.32140E+03
 0.93049995E+02  0.40657E+00
 0.93099991E+02 -0.18209E+03
 0.93149994E+02 -0.27842E+03
 0.93199997E+02 -0.30141E+03
 0.93249992E+02 -0.22007E+03
 0.93299995E+02  0.10128E+02
 0.93349991E+02  0.22377E+03
 0.93399994E+02  0.27772E+03
 0.93449997E+02  0.10716E+03
 0.93499992E+02 -0.31779E+02
 0.93549995E+02  0.12172E+03
 0.93599991E+02  0.29101E+03
 0.93649994E+02  0.29267E+03
 0.93699997E+02  0.40803E+03
 0.93749992E+02  0.62704E+03
 0.93799995E+02  0.68011E+03
 0.93849991E+02  0.57495E+03
 0.93899994E+02  0.42020E+03
 0.93949997E+02  0.21279E+03
 0.93999992E+02  0.12881E+03
 0.94049995E+02  0.19219E+03
 0.94099991E+02  0.25697E+03
 0.94149994E+02  0.26521E+03
 0.94199997E+02 -0.89616E+01
 0.94249992E+02 -0.51460E+03
 0.94299995E+02 -0.67125E+03
 0.94349991E+02 -0.52585E+03
 0.94399994E+02 -0.33758E+03
 0.94449997E+02 -0.21446E+03
 0.94499992E+02 -0.21619E+03
 0.94549995E+02 -0.10803E+03
 0.94599991E+02  0.26646E+03
 0.94649994E+02  0.68466E+03
 0.94699997E+02  0.75151E+03
 0.94749992E+02  0.37222E+03
 0.94799995E+02 -0.14561E+03
 0.94849991E+02 -0.39303E+03
 0.94899994E+02 -0.46227E+03
 0.94949997E+02 -0.58441E+03
 0.94999992E+02 -0.76543E+03
 0.95049995E+02 -0.80692E+03
 0.95099991E+02 -0.69661E+03
 0.95149994E+02 -0.40703E+03
 0.95199997E+02 -0.26458E+02
 0.95249992E+02  0.32421E+03
 0.95299995E+02  0.57216E+03
 0.95349991E+02  0.41519E+03
 0.95399994E+02  0.11043E+03
 0.95449997E+02 -0.74751E+02
 0.95499992E+02 -0.61940E+02
 0.95549995E+02  0.29577E+02
 0.95599991E+02  0.32637E+02
 0.95649994E+02  0.81710E+02
 0.95699997E+02  0.25363E+03
 0.95749992E+02  0.45040E+03
 0.95799995E+02  0.47420E+03
 0.95849991E+02  0.32783E+03
 0.95899994E+02  0.67141E+02
 0.95949997E+02 -0.41721E+02
 0.95999992E+02 -0.24008E+02
 0.96049995E+02 -0.42587E+02
 0.96099991E+02 -0.20608E+03
 0.96149994E+02 -0.48256E+03
 0.96199997E+02 -0.53474E+03
 0.96249992E+02 -0.38124E+03
 0.96299995E+02 -0.32948E+03
 0.96349991E+02 -0.37487E+03
 0.96399994E+02 -0.35152E+03
 0.96449997E+02 -0.24458E+03
 0.96499992E+02  0.38705E+02
 0.96549995E+02  0.31330E+03
 0.96599991E+02  0.25789E+03
 0.96649994E+02  0.54450E+02
 0.96699997E+02  0.15728E+03
 0.96749992E+02  0.48790E+03
 0.96799995E+02  0.74245E+03
 0.96849991E+02  0.71506E+03
 0.96899994E+02  0.62078E+03
 0.96949997E+02  0.73670E+03
 0.96999992E+02  0.74961E+03
 0.97049995E+02  0.49311E+03
 0.97099991E+02  0.44226E+02
 0.97149994E+02 -0.33561E+03
 0.97199997E+02 -0.43277E+03
 0.97249992E+02 -0.47049E+03
 0.97299995E+02 -0.60586E+03
 0.97349991E+02 -0.73015E+03
 0.97399994E+02 -0.79060E+03
 0.97449997E+02 -0.76052E+03
 0.97499992E+02 -0.75998E+03
 0.97549995E+02 -0.85314E+03
 0.97599991E+02 -0.88387E+03
 0.97649994E+02 -0.76464E+03
 0.97699997E+02 -0.40426E+03
 0.97749992E+02 -0.20966E+02
 0.97799995E+02  0.14725E+03
 0.97849991E+02  0.17642E+03
 0.97899994E+02  0.28955E+03
 0.97949997E+02  0.43805E+03
 0.97999992E+02  0.43817E+03
