-0.20000000E+01  0.11620E+05
-0.19500000E+01  0.11546E+05
-0.19000000E+01  0.11586E+05
-0.18500000E+01  0.11577E+05
-0.18000000E+01  0.11580E+05
-0.17500000E+01  0.11585E+05
-0.17000000E+01  0.11583E+05
-0.16500001E+01  0.11578E+05
-0.16000000E+01  0.11563E+05
-0.15500000E+01  0.11559E+05
-0.15000000E+01  0.11579E+05
-0.14500000E+01  0.11598E+05
-0.14000001E+01  0.11594E+05
-0.13500000E+01  0.11595E+05
-0.13000001E+01  0.11604E+05
-0.12500000E+01  0.11607E+05
-0.12000000E+01  0.11610E+05
-0.11500001E+01  0.11612E+05
-0.11000000E+01  0.11615E+05
-0.10500001E+01  0.11612E+05
-0.10000000E+01  0.11612E+05
-0.95000005E+00  0.11599E+05
-0.90000010E+00  0.11594E+05
-0.85000002E+00  0.11598E+05
-0.80000007E+00  0.11603E+05
-0.75000012E+00  0.11610E+05
-0.70000005E+00  0.11608E+05
-0.65000010E+00  0.11600E+05
-0.60000014E+00  0.11581E+05
-0.55000007E+00  0.11568E+05
-0.50000012E+00  0.11553E+05
-0.45000005E+00  0.11543E+05
-0.40000010E+00  0.11538E+05
-0.35000014E+00  0.11539E+05
-0.30000007E+00  0.11542E+05
-0.25000012E+00  0.11549E+05
-0.20000005E+00  0.11555E+05
-0.15000010E+00  0.11558E+05
-0.10000014E+00  0.11557E+05
-0.50000072E-01  0.11546E+05
-0.11920929E-06  0.11545E+05
 0.49999952E-01  0.11552E+05
 0.99999905E-01  0.11565E+05
 0.14999986E+00  0.11576E+05
 0.19999981E+00  0.11577E+05
 0.24999976E+00  0.11579E+05
 0.29999995E+00  0.11585E+05
 0.34999990E+00  0.11583E+05
 0.39999986E+00  0.11592E+05
 0.44999981E+00  0.11594E+05
 0.49999976E+00  0.11584E+05
 0.54999995E+00  0.11576E+05
 0.59999990E+00  0.11566E+05
 0.64999986E+00  0.11567E+05
 0.69999981E+00  0.11577E+05
 0.74999976E+00  0.11583E+05
 0.79999971E+00  0.11587E+05
 0.84999990E+00  0.11594E+05
 0.89999986E+00  0.11600E+05
 0.94999981E+00  0.11607E+05
 0.99999976E+00  0.11606E+05
 0.10499997E+01  0.11603E+05
 0.10999999E+01  0.11592E+05
 0.11499999E+01  0.11585E+05
 0.11999998E+01  0.11592E+05
 0.12499998E+01  0.11592E+05
 0.12999997E+01  0.11603E+05
 0.13499999E+01  0.11618E+05
 0.13999999E+01  0.11620E+05
 0.14499998E+01  0.11612E+05
 0.14999998E+01  0.11594E+05
 0.15499997E+01  0.11576E+05
 0.15999999E+01  0.11564E+05
 0.16499999E+01  0.11555E+05
 0.16999998E+01  0.11554E+05
 0.17499998E+01  0.11563E+05
 0.17999997E+01  0.11558E+05
 0.18499997E+01  0.11552E+05
 0.18999999E+01  0.11545E+05
 0.19499998E+01  0.11536E+05
 0.19999998E+01  0.11529E+05
 0.20499997E+01  0.11532E+05
 0.20999999E+01  0.11543E+05
 0.21499996E+01  0.11550E+05
 0.21999998E+01  0.11565E+05
 0.22499995E+01  0.11578E+05
 0.22999997E+01  0.11594E+05
 0.23499999E+01  0.11595E+05
 0.23999996E+01  0.11595E+05
 0.24499998E+01  0.11601E+05
 0.24999995E+01  0.11609E+05
 0.25499997E+01  0.11613E+05
 0.25999999E+01  0.11612E+05
 0.26499996E+01  0.11610E+05
 0.26999998E+01  0.11609E+05
 0.27499995E+01  0.11617E+05
 0.27999997E+01  0.11612E+05
 0.28499999E+01  0.11604E+05
 0.28999996E+01  0.11594E+05
 0.29499998E+01  0.11580E+05
 0.29999995E+01  0.11576E+05
 0.30499997E+01  0.11579E+05
 0.30999999E+01  0.11572E+05
 0.31499996E+01  0.11568E+05
 0.31999998E+01  0.11580E+05
 0.32499995E+01  0.11582E+05
 0.32999997E+01  0.11571E+05
 0.33499999E+01  0.11558E+05
 0.33999996E+01  0.11551E+05
 0.34499998E+01  0.11550E+05
 0.34999995E+01  0.11557E+05
 0.35499997E+01  0.11580E+05
 0.35999994E+01  0.11597E+05
 0.36499996E+01  0.11598E+05
 0.36999998E+01  0.11584E+05
 0.37499995E+01  0.11577E+05
 0.37999997E+01  0.11579E+05
 0.38499994E+01  0.11583E+05
 0.38999996E+01  0.11588E+05
 0.39499998E+01  0.11593E+05
 0.39999995E+01  0.11598E+05
 0.40499997E+01  0.11594E+05
 0.40999994E+01  0.11584E+05
 0.41499996E+01  0.11575E+05
 0.41999998E+01  0.11566E+05
 0.42499995E+01  0.11568E+05
 0.42999997E+01  0.11566E+05
 0.43499994E+01  0.11559E+05
 0.43999996E+01  0.11568E+05
 0.44499998E+01  0.11581E+05
 0.44999995E+01  0.11587E+05
 0.45499997E+01  0.11587E+05
 0.45999994E+01  0.11585E+05
 0.46499996E+01  0.11577E+05
 0.46999998E+01  0.11566E+05
 0.47499995E+01  0.11572E+05
 0.47999997E+01  0.11580E+05
 0.48499994E+01  0.11583E+05
 0.48999996E+01  0.11586E+05
 0.49499998E+01  0.11586E+05
 0.49999995E+01  0.11593E+05
 0.50499997E+01  0.11593E+05
 0.50999994E+01  0.11599E+05
 0.51499996E+01  0.11600E+05
 0.51999998E+01  0.11606E+05
 0.52499995E+01  0.11612E+05
 0.52999997E+01  0.11609E+05
 0.53499994E+01  0.11607E+05
 0.53999996E+01  0.11596E+05
 0.54499993E+01  0.11590E+05
 0.54999995E+01  0.11584E+05
 0.55499997E+01  0.11587E+05
 0.55999994E+01  0.11591E+05
 0.56499996E+01  0.11589E+05
 0.56999993E+01  0.11576E+05
 0.57499995E+01  0.11570E+05
 0.57999997E+01  0.11569E+05
 0.58499994E+01  0.11566E+05
 0.58999996E+01  0.11575E+05
 0.59499993E+01  0.11576E+05
 0.59999995E+01  0.11576E+05
 0.60499992E+01  0.11571E+05
 0.60999994E+01  0.11567E+05
 0.61499996E+01  0.11562E+05
 0.61999998E+01  0.11554E+05
 0.62499990E+01  0.11554E+05
 0.62999992E+01  0.11562E+05
 0.63499994E+01  0.11562E+05
 0.63999996E+01  0.11557E+05
 0.64499998E+01  0.11568E+05
 0.64999990E+01  0.11577E+05
 0.65499992E+01  0.11594E+05
 0.65999994E+01  0.11605E+05
 0.66499996E+01  0.11607E+05
 0.66999998E+01  0.11610E+05
 0.67499990E+01  0.11614E+05
 0.67999992E+01  0.11612E+05
 0.68499994E+01  0.11607E+05
 0.68999996E+01  0.11598E+05
 0.69499998E+01  0.11581E+05
 0.69999990E+01  0.11589E+05
 0.70499992E+01  0.11570E+05
 0.70999994E+01  0.11583E+05
 0.71499996E+01  0.11580E+05
 0.71999998E+01  0.11577E+05
 0.72499990E+01  0.11580E+05
 0.72999992E+01  0.11563E+05
 0.73499994E+01  0.11573E+05
 0.73999996E+01  0.11581E+05
 0.74499998E+01  0.11599E+05
 0.74999990E+01  0.11594E+05
 0.75499992E+01  0.11587E+05
 0.75999994E+01  0.11577E+05
 0.76499996E+01  0.11582E+05
 0.76999998E+01  0.11601E+05
 0.77499990E+01  0.11568E+05
 0.77999992E+01  0.11576E+05
 0.78499994E+01  0.11624E+05
 0.78999996E+01  0.11598E+05
 0.79499998E+01  0.11652E+05
 0.79999990E+01  0.11581E+05
 0.80499992E+01  0.11585E+05
 0.80999994E+01  0.11636E+05
 0.81499996E+01  0.11613E+05
 0.81999998E+01  0.11557E+05
 0.82499990E+01  0.11594E+05
 0.82999992E+01  0.11697E+05
 0.83499994E+01  0.11638E+05
 0.83999996E+01  0.11665E+05
 0.84499998E+01  0.11661E+05
 0.84999990E+01  0.11626E+05
 0.85499992E+01  0.11634E+05
 0.85999994E+01  0.11941E+05
 0.86499996E+01  0.11525E+05
 0.86999998E+01  0.92743E+04
 0.87499990E+01  0.10793E+05
 0.87999992E+01  0.15149E+05
 0.88499994E+01  0.91894E+04
 0.88999996E+01  0.89392E+04
 0.89499998E+01  0.13741E+05
 0.89999990E+01  0.11357E+05
 0.90499992E+01  0.19020E+05
 0.90999994E+01  0.10826E+05
 0.91499996E+01  0.42299E+04
 0.91999989E+01  0.18300E+05
 0.92499990E+01  0.13078E+05
 0.92999992E+01  0.25161E+04
 0.93499994E+01  0.75463E+04
 0.93999996E+01  0.18827E+05
 0.94499989E+01  0.65483E+04
 0.94999990E+01  0.12570E+05
 0.95499992E+01  0.19751E+05
 0.95999994E+01  0.45736E+04
 0.96499996E+01  0.13300E+05
 0.96999989E+01  0.86236E+04
 0.97499990E+01  0.13338E+05
 0.97999992E+01  0.22703E+05
 0.98499994E+01  0.85407E+04
 0.98999996E+01  0.79132E+04
 0.99499989E+01  0.15243E+05
 0.99999990E+01 -0.17409E+04
 0.10049999E+02  0.10499E+05
 0.10099999E+02  0.81106E+04
 0.10150000E+02  0.72306E+04
 0.10199999E+02  0.27012E+05
 0.10249999E+02  0.26740E+05
 0.10299999E+02  0.16653E+05
 0.10349999E+02 -0.54240E+04
 0.10400000E+02 -0.14345E+04
 0.10449999E+02  0.12333E+05
 0.10499999E+02  0.32149E+05
 0.10549999E+02  0.18109E+04
 0.10599999E+02 -0.27894E+04
 0.10650000E+02  0.16761E+05
 0.10699999E+02  0.11922E+05
 0.10749999E+02  0.11096E+05
 0.10799999E+02 -0.13245E+04
 0.10849999E+02  0.28790E+05
 0.10900000E+02  0.35620E+05
 0.10949999E+02  0.11431E+05
 0.10999999E+02  0.10821E+05
 0.11049999E+02 -0.69032E+04
 0.11099999E+02  0.22838E+04
 0.11150000E+02 -0.15609E+04
 0.11199999E+02  0.49765E+04
 0.11249999E+02  0.41201E+05
 0.11299999E+02  0.22082E+05
 0.11349999E+02 -0.11198E+05
 0.11400000E+02  0.25538E+05
 0.11449999E+02  0.29445E+05
 0.11499999E+02  0.40601E+04
 0.11549999E+02  0.15709E+05
 0.11599999E+02 -0.98195E+04
 0.11650000E+02 -0.97914E+04
 0.11699999E+02  0.25301E+05
 0.11749999E+02  0.31010E+05
 0.11799999E+02  0.14494E+05
 0.11849999E+02  0.56048E+04
 0.11900000E+02 -0.91812E+04
 0.11949999E+02  0.15029E+05
 0.11999999E+02  0.26111E+05
 0.12049999E+02  0.99670E+04
 0.12099999E+02  0.17486E+05
 0.12150000E+02  0.17707E+05
 0.12199999E+02  0.40162E+04
 0.12249999E+02  0.18728E+05
 0.12299999E+02  0.82489E+04
 0.12349999E+02  0.20597E+04
 0.12400000E+02  0.17151E+05
 0.12449999E+02  0.18401E+04
 0.12499999E+02  0.17550E+05
 0.12549999E+02  0.20089E+05
 0.12599999E+02  0.55541E+04
 0.12649999E+02  0.48824E+04
 0.12699999E+02  0.16564E+05
 0.12749999E+02  0.16216E+05
 0.12799999E+02  0.12032E+05
 0.12849999E+02  0.10658E+05
 0.12899999E+02  0.54038E+04
 0.12949999E+02  0.16896E+05
 0.12999999E+02  0.17428E+05
 0.13049999E+02  0.68825E+04
 0.13099999E+02  0.86563E+04
 0.13149999E+02  0.18361E+05
 0.13199999E+02  0.52398E+04
 0.13249999E+02  0.10762E+05
 0.13299999E+02  0.23954E+05
 0.13349999E+02  0.12977E+05
 0.13399999E+02  0.12734E+05
 0.13449999E+02  0.12908E+05
 0.13499999E+02  0.62239E+04
 0.13549999E+02 -0.48515E+04
 0.13599999E+02  0.13194E+05
 0.13649999E+02  0.28841E+05
 0.13699999E+02  0.61569E+04
 0.13749999E+02  0.79184E+04
 0.13799999E+02  0.25751E+05
 0.13849999E+02  0.18899E+05
 0.13899999E+02 -0.54131E+04
 0.13949999E+02 -0.49719E+04
 0.13999999E+02  0.20399E+04
 0.14049999E+02  0.26072E+05
 0.14099998E+02  0.58214E+04
 0.14150000E+02 -0.93130E+03
 0.14199999E+02  0.14647E+05
 0.14249998E+02 -0.96638E+04
 0.14299999E+02  0.37118E+05
 0.14349998E+02  0.20522E+05
 0.14400000E+02  0.15200E+05
 0.14449999E+02  0.38951E+05
 0.14499998E+02  0.23426E+05
 0.14549999E+02 -0.20520E+05
 0.14599998E+02 -0.11871E+05
 0.14650000E+02  0.64675E+04
 0.14699999E+02  0.28361E+05
 0.14749998E+02 -0.28921E+05
 0.14799999E+02  0.31026E+03
 0.14849998E+02  0.72345E+05
 0.14900000E+02 -0.51331E+05
 0.14949999E+02  0.29172E+05
 0.14999998E+02  0.46737E+05
 0.15049999E+02  0.24109E+04
 0.15099998E+02  0.47252E+05
 0.15150000E+02  0.35774E+05
 0.15199999E+02  0.37373E+04
 0.15249998E+02  0.19433E+05
 0.15299999E+02 -0.35449E+05
 0.15349998E+02 -0.19956E+05
 0.15400000E+02 -0.10889E+05
 0.15449999E+02  0.17331E+05
 0.15499998E+02  0.48089E+05
 0.15549999E+02  0.85865E+04
 0.15599998E+02  0.64091E+05
 0.15650000E+02 -0.16778E+05
 0.15699999E+02  0.16214E+05
 0.15749998E+02  0.14808E+05
 0.15799999E+02 -0.75828E+04
 0.15849998E+02 -0.21817E+05
 0.15900000E+02 -0.94605E+04
 0.15949999E+02 -0.30040E+05
 0.15999998E+02  0.28410E+05
 0.16049999E+02  0.88286E+05
 0.16099998E+02 -0.84239E+04
 0.16150000E+02 -0.21376E+05
 0.16199999E+02  0.28957E+05
 0.16249998E+02  0.74333E+05
 0.16299999E+02  0.58186E+04
 0.16349998E+02  0.31311E+05
 0.16400000E+02  0.93945E+05
 0.16449999E+02 -0.12719E+05
 0.16499998E+02 -0.69987E+05
 0.16549999E+02 -0.23431E+04
 0.16599998E+02 -0.79240E+05
 0.16650000E+02 -0.33625E+05
 0.16699999E+02  0.51614E+05
 0.16749998E+02  0.48754E+05
 0.16799999E+02  0.24763E+05
 0.16849998E+02  0.33654E+03
 0.16900000E+02  0.22074E+05
 0.16949999E+02  0.45965E+05
 0.16999998E+02  0.10847E+05
 0.17049999E+02 -0.65574E+05
 0.17099998E+02  0.57281E+05
 0.17150000E+02  0.13854E+06
 0.17199999E+02  0.99588E+03
 0.17249998E+02 -0.90559E+04
 0.17299999E+02  0.17771E+05
 0.17349998E+02 -0.61590E+05
 0.17400000E+02 -0.34794E+05
 0.17449999E+02  0.23013E+05
 0.17499998E+02  0.34092E+05
 0.17549999E+02  0.81853E+05
 0.17599998E+02  0.58681E+05
 0.17650000E+02  0.30033E+05
 0.17699999E+02 -0.43619E+05
 0.17749998E+02 -0.59309E+05
 0.17799999E+02  0.57285E+05
 0.17849998E+02  0.19496E+05
 0.17900000E+02 -0.76110E+04
 0.17949999E+02  0.55673E+05
 0.17999998E+02  0.45056E+05
 0.18049999E+02 -0.46572E+05
 0.18099998E+02 -0.33181E+05
 0.18150000E+02 -0.65308E+04
 0.18199999E+02  0.10142E+05
 0.18249998E+02  0.43454E+05
 0.18299999E+02  0.55307E+05
 0.18349998E+02  0.62457E+05
 0.18400000E+02  0.12315E+05
 0.18449999E+02 -0.17635E+05
 0.18499998E+02 -0.21131E+05
 0.18549999E+02 -0.28315E+05
 0.18599998E+02 -0.20337E+04
 0.18650000E+02  0.30533E+05
 0.18699999E+02  0.27931E+05
 0.18749998E+02  0.14672E+05
 0.18799999E+02  0.18605E+05
 0.18849998E+02 -0.29470E+04
 0.18900000E+02 -0.26303E+05
 0.18949999E+02  0.47999E+04
 0.18999998E+02  0.25643E+05
 0.19049999E+02  0.35889E+05
 0.19099998E+02  0.20890E+05
 0.19150000E+02  0.24746E+05
 0.19199999E+02  0.24113E+05
 0.19249998E+02 -0.53416E+04
 0.19299999E+02 -0.26884E+05
 0.19349998E+02 -0.25380E+05
 0.19400000E+02  0.26788E+05
 0.19449999E+02  0.47194E+05
 0.19499998E+02  0.31596E+05
 0.19549999E+02  0.10529E+05
 0.19599998E+02 -0.38320E+05
 0.19650000E+02 -0.21910E+05
 0.19699999E+02  0.22217E+05
 0.19749998E+02  0.29574E+05
 0.19799999E+02  0.34927E+05
 0.19849998E+02  0.21880E+05
 0.19900000E+02 -0.14984E+05
 0.19949999E+02 -0.16212E+05
 0.19999998E+02  0.21335E+05
 0.20049999E+02  0.40635E+05
 0.20099998E+02  0.47450E+05
 0.20150000E+02  0.32293E+05
 0.20199999E+02 -0.45977E+04
 0.20249998E+02  0.13515E+04
 0.20299999E+02  0.22189E+05
 0.20349998E+02  0.10153E+04
 0.20399998E+02  0.22043E+05
 0.20449999E+02  0.49516E+05
 0.20499998E+02  0.25774E+04
 0.20549999E+02 -0.25957E+05
 0.20599998E+02 -0.64162E+04
 0.20649998E+02 -0.44085E+04
 0.20699999E+02  0.34951E+04
 0.20749998E+02  0.23417E+05
 0.20799999E+02  0.43388E+05
 0.20849998E+02  0.53697E+04
 0.20899998E+02 -0.11396E+05
 0.20949999E+02 -0.28927E+04
 0.20999998E+02 -0.11344E+05
 0.21049999E+02  0.43435E+05
 0.21099998E+02  0.61229E+05
 0.21149998E+02  0.21629E+05
 0.21199999E+02 -0.45037E+04
 0.21249998E+02  0.15192E+05
 0.21299999E+02  0.23031E+05
 0.21349998E+02 -0.14943E+04
 0.21399998E+02  0.17297E+05
 0.21449999E+02  0.17800E+05
 0.21499998E+02 -0.42395E+04
 0.21549999E+02  0.20343E+05
 0.21599998E+02  0.11258E+05
 0.21649998E+02 -0.30709E+05
 0.21699999E+02  0.37423E+04
 0.21749998E+02  0.19323E+05
 0.21799999E+02  0.26737E+05
 0.21849998E+02  0.30318E+05
 0.21899998E+02  0.33064E+04
 0.21949999E+02  0.10376E+04
 0.21999998E+02 -0.69258E+04
 0.22049999E+02  0.14252E+05
 0.22099998E+02  0.25345E+05
 0.22149998E+02  0.15661E+05
 0.22199999E+02  0.30462E+05
 0.22249998E+02  0.22011E+05
 0.22299999E+02 -0.18567E+04
 0.22349998E+02 -0.16786E+04
 0.22399998E+02  0.13280E+05
 0.22449999E+02  0.29454E+05
 0.22499998E+02  0.21712E+05
 0.22549999E+02  0.64635E+04
 0.22599998E+02 -0.14212E+05
 0.22649998E+02 -0.23991E+04
 0.22699999E+02  0.92455E+03
 0.22749998E+02 -0.96195E+04
 0.22799999E+02  0.23466E+05
 0.22849998E+02  0.29256E+05
 0.22899998E+02  0.24849E+05
 0.22949999E+02  0.28196E+05
 0.22999998E+02  0.10762E+05
 0.23049999E+02  0.12324E+05
 0.23099998E+02  0.21131E+05
 0.23149998E+02  0.21290E+05
 0.23199999E+02  0.10479E+05
 0.23249998E+02 -0.49990E+04
 0.23299999E+02 -0.14111E+05
 0.23349998E+02 -0.16230E+05
 0.23399998E+02  0.14734E+05
 0.23449999E+02  0.45593E+05
 0.23499998E+02  0.33654E+05
 0.23549999E+02  0.25681E+05
 0.23599998E+02  0.21391E+04
 0.23649998E+02 -0.24363E+05
 0.23699999E+02 -0.21004E+05
 0.23749998E+02 -0.50314E+04
 0.23799999E+02  0.34281E+05
 0.23849998E+02  0.32704E+05
 0.23899998E+02  0.25714E+05
 0.23949999E+02  0.24696E+05
 0.23999998E+02 -0.19744E+04
 0.24049999E+02 -0.55943E+04
 0.24099998E+02 -0.12892E+04
 0.24149998E+02  0.72329E+04
 0.24199999E+02  0.22066E+05
 0.24249998E+02  0.16743E+05
 0.24299999E+02  0.13710E+05
 0.24349998E+02  0.13412E+05
 0.24399998E+02  0.17309E+05
 0.24449999E+02  0.18797E+05
 0.24499998E+02  0.23362E+05
 0.24549999E+02  0.13981E+05
 0.24599998E+02 -0.10168E+05
 0.24649998E+02 -0.12662E+05
 0.24699999E+02  0.10966E+04
 0.24749998E+02  0.31767E+05
 0.24799999E+02  0.46324E+05
 0.24849998E+02  0.48591E+05
 0.24899998E+02  0.32852E+05
 0.24949999E+02 -0.42202E+04
 0.24999998E+02 -0.23337E+05
 0.25049999E+02 -0.26537E+05
 0.25099998E+02 -0.91616E+04
 0.25149998E+02  0.24600E+05
 0.25199999E+02  0.40213E+05
 0.25249998E+02  0.27268E+05
 0.25299999E+02  0.95119E+04
 0.25349998E+02  0.52611E+04
 0.25399998E+02  0.60563E+04
 0.25449999E+02  0.25062E+04
 0.25499998E+02  0.13724E+04
 0.25549999E+02  0.24871E+04
 0.25599998E+02  0.18099E+05
 0.25649998E+02  0.22684E+05
 0.25699999E+02  0.14761E+05
 0.25749998E+02  0.18091E+05
 0.25799999E+02  0.11067E+05
 0.25849998E+02  0.94357E+04
 0.25899998E+02  0.17979E+04
 0.25949999E+02  0.52513E+04
 0.25999998E+02  0.15963E+05
 0.26049999E+02  0.79741E+04
 0.26099998E+02  0.18578E+05
 0.26149998E+02  0.16729E+05
 0.26199999E+02  0.12258E+05
 0.26249998E+02  0.18629E+05
 0.26299999E+02  0.12426E+05
 0.26349998E+02  0.72246E+04
 0.26399998E+02  0.14526E+05
 0.26449999E+02  0.15333E+05
 0.26499998E+02  0.89578E+04
 0.26549999E+02  0.14164E+05
 0.26599998E+02  0.13078E+05
 0.26649998E+02  0.26913E+05
 0.26699999E+02  0.24151E+05
 0.26749998E+02  0.80228E+04
 0.26799999E+02  0.45613E+04
 0.26849998E+02  0.70409E+03
 0.26899998E+02  0.50747E+04
 0.26949999E+02  0.76739E+04
 0.26999998E+02  0.58550E+04
 0.27049997E+02  0.28311E+03
 0.27099998E+02  0.93387E+03
 0.27149998E+02 -0.41977E+04
 0.27199999E+02 -0.58497E+04
 0.27249998E+02  0.44072E+04
 0.27299997E+02  0.10543E+05
 0.27349998E+02  0.28815E+05
 0.27399998E+02  0.34080E+05
 0.27449999E+02  0.21745E+05
 0.27499998E+02  0.18493E+05
 0.27549997E+02  0.15456E+05
 0.27599998E+02  0.12216E+05
 0.27649998E+02  0.43685E+04
 0.27699999E+02  0.13360E+04
 0.27749998E+02  0.10944E+05
 0.27799997E+02  0.19737E+05
 0.27849998E+02  0.17967E+05
 0.27899998E+02  0.16891E+05
 0.27949999E+02  0.24371E+05
 0.27999998E+02  0.25743E+05
 0.28049997E+02  0.13163E+05
 0.28099998E+02  0.83681E+04
 0.28149998E+02  0.67979E+04
 0.28199999E+02 -0.36667E+04
 0.28249998E+02 -0.65217E+04
 0.28299997E+02  0.12829E+04
 0.28349998E+02  0.11564E+05
 0.28399998E+02  0.18932E+05
 0.28449999E+02  0.21911E+05
 0.28499998E+02  0.18332E+05
 0.28549997E+02  0.15572E+05
 0.28599998E+02  0.56533E+04
 0.28649998E+02  0.13353E+05
 0.28699999E+02  0.25675E+05
 0.28749998E+02  0.18489E+05
 0.28799997E+02  0.99142E+04
 0.28849998E+02  0.10974E+05
 0.28899998E+02  0.66628E+04
 0.28949999E+02 -0.12926E+04
 0.28999998E+02 -0.26459E+04
 0.29049997E+02 -0.55956E+04
 0.29099998E+02  0.41152E+04
 0.29149998E+02  0.16085E+05
 0.29199999E+02  0.21784E+05
 0.29249998E+02  0.14502E+05
 0.29299997E+02  0.23007E+05
 0.29349998E+02  0.27839E+05
 0.29399998E+02  0.20322E+05
 0.29449999E+02  0.16535E+05
 0.29499998E+02  0.11393E+05
 0.29549997E+02  0.12891E+05
 0.29599998E+02  0.10391E+05
 0.29649998E+02  0.39441E+04
 0.29699999E+02 -0.32323E+04
 0.29749998E+02  0.12905E+04
 0.29799997E+02  0.69996E+04
 0.29849998E+02  0.11691E+05
 0.29899998E+02  0.11825E+05
 0.29949999E+02  0.94330E+04
 0.29999998E+02  0.11324E+05
 0.30049999E+02  0.91647E+04
 0.30099998E+02  0.66336E+04
 0.30149998E+02  0.80165E+04
 0.30199997E+02  0.20508E+05
 0.30249996E+02  0.23008E+05
 0.30299999E+02  0.16612E+05
 0.30349998E+02  0.17157E+05
 0.30399998E+02  0.16687E+05
 0.30449997E+02  0.18428E+05
 0.30499996E+02  0.17905E+05
 0.30549999E+02  0.15318E+05
 0.30599998E+02  0.13659E+05
 0.30649998E+02  0.10076E+05
 0.30699997E+02  0.83073E+04
 0.30749996E+02  0.46452E+04
 0.30799999E+02  0.71437E+04
 0.30849998E+02  0.80303E+04
 0.30899998E+02  0.34230E+04
 0.30949997E+02  0.92304E+04
 0.30999996E+02  0.84867E+04
 0.31049999E+02  0.37782E+04
 0.31099998E+02  0.74071E+04
 0.31149998E+02  0.12395E+05
 0.31199997E+02  0.14130E+05
 0.31249996E+02  0.12785E+05
 0.31299999E+02  0.17715E+05
 0.31349998E+02  0.19567E+05
 0.31399998E+02  0.15422E+05
 0.31449997E+02  0.15592E+05
 0.31499996E+02  0.12367E+05
 0.31549999E+02  0.65931E+04
 0.31599998E+02 -0.19121E+03
 0.31649998E+02  0.33313E+04
 0.31699997E+02  0.64574E+04
 0.31749996E+02  0.11203E+05
 0.31799999E+02  0.24397E+05
 0.31849998E+02  0.27994E+05
 0.31899998E+02  0.27330E+05
 0.31949997E+02  0.20110E+05
 0.31999996E+02  0.11710E+05
 0.32049999E+02  0.57666E+04
 0.32099998E+02  0.34769E+04
 0.32149998E+02  0.10040E+04
 0.32199997E+02 -0.31826E+04
 0.32249996E+02  0.34450E+04
 0.32299999E+02  0.62463E+04
 0.32349998E+02  0.10498E+05
 0.32399998E+02  0.16538E+05
 0.32449997E+02  0.15925E+05
 0.32499996E+02  0.17730E+05
 0.32549999E+02  0.17076E+05
 0.32599998E+02  0.20647E+05
 0.32649998E+02  0.21071E+05
 0.32699997E+02  0.14626E+05
 0.32749996E+02  0.58988E+04
 0.32799999E+02  0.25329E+03
 0.32849998E+02  0.78203E+04
 0.32899998E+02  0.17646E+05
 0.32949997E+02  0.15498E+05
 0.32999996E+02  0.12293E+05
 0.33049999E+02  0.13036E+05
 0.33099998E+02  0.54273E+04
 0.33149998E+02  0.56862E+04
 0.33199997E+02  0.11123E+05
 0.33249996E+02  0.83153E+04
 0.33299999E+02  0.11012E+05
 0.33349998E+02  0.12224E+05
 0.33399998E+02  0.11509E+05
 0.33449997E+02  0.12182E+05
 0.33499996E+02  0.86988E+04
 0.33549999E+02  0.13467E+05
 0.33599998E+02  0.17048E+05
 0.33649998E+02  0.15030E+05
 0.33699997E+02  0.17925E+05
 0.33749996E+02  0.16276E+05
 0.33799999E+02  0.11843E+05
 0.33849998E+02  0.94939E+04
 0.33899998E+02  0.19482E+04
 0.33949997E+02  0.44839E+03
 0.33999996E+02  0.66359E+04
 0.34049999E+02  0.11607E+05
 0.34099998E+02  0.14048E+05
 0.34149998E+02  0.13594E+05
 0.34199997E+02  0.12782E+05
 0.34249996E+02  0.12509E+05
 0.34299999E+02  0.12931E+05
 0.34349998E+02  0.10484E+05
 0.34399998E+02  0.91712E+04
 0.34449997E+02  0.83278E+04
 0.34499996E+02  0.10186E+05
 0.34549999E+02  0.13574E+05
 0.34599998E+02  0.87462E+04
 0.34649998E+02  0.44094E+04
 0.34699997E+02  0.46307E+04
 0.34749996E+02  0.65017E+04
 0.34799999E+02  0.12706E+05
 0.34849998E+02  0.17651E+05
 0.34899998E+02  0.17928E+05
 0.34949997E+02  0.16451E+05
 0.34999996E+02  0.19334E+05
 0.35049999E+02  0.15972E+05
 0.35099998E+02  0.15100E+05
 0.35149998E+02  0.19739E+05
 0.35199997E+02  0.13420E+05
 0.35249996E+02  0.64403E+04
 0.35299999E+02  0.59514E+04
 0.35349998E+02  0.10451E+05
 0.35399998E+02  0.10028E+05
 0.35449997E+02  0.12270E+05
 0.35499996E+02  0.17097E+05
 0.35549999E+02  0.12864E+05
 0.35599998E+02  0.13220E+05
 0.35649998E+02  0.14499E+05
 0.35699997E+02  0.99665E+04
 0.35749996E+02  0.72594E+04
 0.35799999E+02  0.42609E+04
 0.35849998E+02  0.61784E+04
 0.35899998E+02  0.86055E+04
 0.35949997E+02  0.93974E+04
 0.35999996E+02  0.10975E+05
 0.36049999E+02  0.12730E+05
 0.36099998E+02  0.17580E+05
 0.36149998E+02  0.15499E+05
 0.36199997E+02  0.14168E+05
 0.36249996E+02  0.14895E+05
 0.36299999E+02  0.11883E+05
 0.36349998E+02  0.75181E+04
 0.36399998E+02  0.40740E+04
 0.36449997E+02  0.37366E+04
 0.36499996E+02  0.55847E+04
 0.36549999E+02  0.12008E+05
 0.36599998E+02  0.15348E+05
 0.36649998E+02  0.18157E+05
 0.36699997E+02  0.19816E+05
 0.36749996E+02  0.17715E+05
 0.36799999E+02  0.14685E+05
 0.36849998E+02  0.15138E+05
 0.36899998E+02  0.17255E+05
 0.36949997E+02  0.14027E+05
 0.36999996E+02  0.10708E+05
 0.37049999E+02  0.77605E+04
 0.37099998E+02  0.59877E+04
 0.37149998E+02  0.64901E+04
 0.37199997E+02  0.74979E+04
 0.37249996E+02  0.97176E+04
 0.37299999E+02  0.13538E+05
 0.37349998E+02  0.14805E+05
 0.37399998E+02  0.14360E+05
 0.37449997E+02  0.12877E+05
 0.37499996E+02  0.13975E+05
 0.37549999E+02  0.15037E+05
 0.37599998E+02  0.13950E+05
 0.37649998E+02  0.14316E+05
 0.37699997E+02  0.14204E+05
 0.37749996E+02  0.13494E+05
 0.37799999E+02  0.93300E+04
 0.37849998E+02  0.81072E+04
 0.37899998E+02  0.60034E+04
 0.37949997E+02  0.49455E+04
 0.37999996E+02  0.66147E+04
 0.38049999E+02  0.77201E+04
 0.38099998E+02  0.90060E+04
 0.38149998E+02  0.11648E+05
 0.38199997E+02  0.15602E+05
 0.38249996E+02  0.11637E+05
 0.38299999E+02  0.81552E+04
 0.38349998E+02  0.97421E+04
 0.38399998E+02  0.11087E+05
 0.38449997E+02  0.12748E+05
 0.38499996E+02  0.16987E+05
 0.38549999E+02  0.15735E+05
 0.38599998E+02  0.12609E+05
 0.38649998E+02  0.13628E+05
 0.38699997E+02  0.13791E+05
 0.38749996E+02  0.14495E+05
 0.38799999E+02  0.13829E+05
 0.38849998E+02  0.12995E+05
 0.38899998E+02  0.10432E+05
 0.38949997E+02  0.79945E+04
 0.38999996E+02  0.68021E+04
 0.39049999E+02  0.50031E+04
 0.39099998E+02  0.66944E+04
 0.39149998E+02  0.69379E+04
 0.39199997E+02  0.87050E+04
 0.39249996E+02  0.11139E+05
 0.39299999E+02  0.13959E+05
 0.39349998E+02  0.17573E+05
 0.39399998E+02  0.14719E+05
 0.39449997E+02  0.14839E+05
 0.39499996E+02  0.15414E+05
 0.39549999E+02  0.11603E+05
 0.39599998E+02  0.10353E+05
 0.39649998E+02  0.95537E+04
 0.39699997E+02  0.84578E+04
 0.39749996E+02  0.84738E+04
 0.39799999E+02  0.92770E+04
 0.39849998E+02  0.11054E+05
 0.39899998E+02  0.10074E+05
 0.39949997E+02  0.12927E+05
 0.39999996E+02  0.18878E+05
 0.40049999E+02  0.20314E+05
 0.40099998E+02  0.17389E+05
 0.40149998E+02  0.11721E+05
 0.40199997E+02  0.69220E+04
 0.40249996E+02  0.27081E+04
 0.40299999E+02  0.34726E+04
 0.40349998E+02  0.47228E+04
 0.40399998E+02  0.65908E+04
 0.40449997E+02  0.10009E+05
 0.40499996E+02  0.13784E+05
 0.40549999E+02  0.16142E+05
 0.40599998E+02  0.17608E+05
 0.40649998E+02  0.18493E+05
 0.40699997E+02  0.16892E+05
 0.40749996E+02  0.18957E+05
 0.40799999E+02  0.17540E+05
 0.40849998E+02  0.14211E+05
 0.40899998E+02  0.11510E+05
 0.40949997E+02  0.71480E+04
 0.40999996E+02  0.35821E+04
 0.41049999E+02  0.45954E+04
 0.41099998E+02  0.96093E+04
 0.41149998E+02  0.11857E+05
 0.41199997E+02  0.15656E+05
 0.41249996E+02  0.17562E+05
 0.41299999E+02  0.12785E+05
 0.41349998E+02  0.11197E+05
 0.41399998E+02  0.14256E+05
 0.41449997E+02  0.16159E+05
 0.41499996E+02  0.12508E+05
 0.41549999E+02  0.95497E+04
 0.41599998E+02  0.65881E+04
 0.41649998E+02  0.31131E+04
 0.41699997E+02  0.51875E+04
 0.41749996E+02  0.67878E+04
 0.41799999E+02  0.86812E+04
 0.41849998E+02  0.11219E+05
 0.41899998E+02  0.12307E+05
 0.41949997E+02  0.14442E+05
 0.41999996E+02  0.14315E+05
 0.42049999E+02  0.12939E+05
 0.42099998E+02  0.13509E+05
 0.42149998E+02  0.11825E+05
 0.42199997E+02  0.10722E+05
 0.42249996E+02  0.10341E+05
 0.42299999E+02  0.10891E+05
 0.42349998E+02  0.11695E+05
 0.42399998E+02  0.10153E+05
 0.42449997E+02  0.11852E+05
 0.42499996E+02  0.11119E+05
 0.42549999E+02  0.11467E+05
 0.42599998E+02  0.13540E+05
 0.42649998E+02  0.11914E+05
 0.42699997E+02  0.12550E+05
 0.42749996E+02  0.15030E+05
 0.42799995E+02  0.17849E+05
 0.42849998E+02  0.15921E+05
 0.42899998E+02  0.13470E+05
 0.42949997E+02  0.13281E+05
 0.42999996E+02  0.10189E+05
 0.43049995E+02  0.65652E+04
 0.43099998E+02  0.69511E+04
 0.43149998E+02  0.96801E+04
 0.43199997E+02  0.99942E+04
 0.43249996E+02  0.10302E+05
 0.43299995E+02  0.10886E+05
 0.43349998E+02  0.11668E+05
 0.43399998E+02  0.11965E+05
 0.43449997E+02  0.13210E+05
 0.43499996E+02  0.12684E+05
 0.43549995E+02  0.12033E+05
 0.43599998E+02  0.13346E+05
 0.43649998E+02  0.13676E+05
 0.43699997E+02  0.14291E+05
 0.43749996E+02  0.11654E+05
 0.43799995E+02  0.96037E+04
 0.43849998E+02  0.85453E+04
 0.43899998E+02  0.76231E+04
 0.43949997E+02  0.68322E+04
 0.43999996E+02  0.78035E+04
 0.44049995E+02  0.11855E+05
 0.44099998E+02  0.13567E+05
 0.44149998E+02  0.14885E+05
 0.44199997E+02  0.17002E+05
 0.44249996E+02  0.16809E+05
 0.44299995E+02  0.15177E+05
 0.44349998E+02  0.13226E+05
 0.44399998E+02  0.10820E+05
 0.44449997E+02  0.87615E+04
 0.44499996E+02  0.78042E+04
 0.44549995E+02  0.85812E+04
 0.44599998E+02  0.10324E+05
 0.44649998E+02  0.11902E+05
 0.44699997E+02  0.10136E+05
 0.44749996E+02  0.97842E+04
 0.44799995E+02  0.10405E+05
 0.44849998E+02  0.10927E+05
 0.44899998E+02  0.11277E+05
 0.44949997E+02  0.11675E+05
 0.44999996E+02  0.14705E+05
 0.45049995E+02  0.14647E+05
 0.45099998E+02  0.14269E+05
 0.45149998E+02  0.12344E+05
 0.45199997E+02  0.11251E+05
 0.45249996E+02  0.12633E+05
 0.45299995E+02  0.11903E+05
 0.45349998E+02  0.10767E+05
 0.45399998E+02  0.10442E+05
 0.45449997E+02  0.10073E+05
 0.45499996E+02  0.81235E+04
 0.45549995E+02  0.76329E+04
 0.45599998E+02  0.97785E+04
 0.45649998E+02  0.92997E+04
 0.45699997E+02  0.10819E+05
 0.45749996E+02  0.11104E+05
 0.45799995E+02  0.11206E+05
 0.45849998E+02  0.14700E+05
 0.45899998E+02  0.16113E+05
 0.45949997E+02  0.16509E+05
 0.45999996E+02  0.14521E+05
 0.46049995E+02  0.12848E+05
 0.46099998E+02  0.10761E+05
 0.46149998E+02  0.11423E+05
 0.46199997E+02  0.12972E+05
 0.46249996E+02  0.12160E+05
 0.46299995E+02  0.10742E+05
 0.46349998E+02  0.81455E+04
 0.46399998E+02  0.76592E+04
 0.46449997E+02  0.99934E+04
 0.46499996E+02  0.11303E+05
 0.46549995E+02  0.12186E+05
 0.46599998E+02  0.15045E+05
 0.46649998E+02  0.14923E+05
 0.46699997E+02  0.13522E+05
 0.46749996E+02  0.14760E+05
 0.46799995E+02  0.15337E+05
 0.46849998E+02  0.13257E+05
 0.46899998E+02  0.10551E+05
 0.46949997E+02  0.92482E+04
 0.46999996E+02  0.77623E+04
 0.47049995E+02  0.79002E+04
 0.47099998E+02  0.86433E+04
 0.47149998E+02  0.86744E+04
 0.47199997E+02  0.88814E+04
 0.47249996E+02  0.99265E+04
 0.47299995E+02  0.11916E+05
 0.47349998E+02  0.12776E+05
 0.47399998E+02  0.13003E+05
 0.47449997E+02  0.13366E+05
 0.47499996E+02  0.12203E+05
 0.47549995E+02  0.11595E+05
 0.47599998E+02  0.12324E+05
 0.47649998E+02  0.11492E+05
 0.47699997E+02  0.11876E+05
 0.47749996E+02  0.11365E+05
 0.47799995E+02  0.11941E+05
 0.47849998E+02  0.12605E+05
 0.47899998E+02  0.12287E+05
 0.47949997E+02  0.13051E+05
 0.47999996E+02  0.13796E+05
 0.48049995E+02  0.12466E+05
 0.48099998E+02  0.88646E+04
 0.48149998E+02  0.70804E+04
 0.48199997E+02  0.78391E+04
 0.48249996E+02  0.10131E+05
 0.48299995E+02  0.11271E+05
 0.48349998E+02  0.13078E+05
 0.48399998E+02  0.15300E+05
 0.48449997E+02  0.16670E+05
 0.48499996E+02  0.15880E+05
 0.48549995E+02  0.14250E+05
 0.48599998E+02  0.13341E+05
 0.48649998E+02  0.12136E+05
 0.48699997E+02  0.10671E+05
 0.48749996E+02  0.10318E+05
 0.48799995E+02  0.91149E+04
 0.48849998E+02  0.88174E+04
 0.48899998E+02  0.10386E+05
 0.48949997E+02  0.10594E+05
 0.48999996E+02  0.11559E+05
 0.49049995E+02  0.12810E+05
 0.49099998E+02  0.12384E+05
 0.49149998E+02  0.10991E+05
 0.49199997E+02  0.10677E+05
 0.49249996E+02  0.10232E+05
 0.49299995E+02  0.11120E+05
 0.49349998E+02  0.11646E+05
 0.49399998E+02  0.11115E+05
 0.49449997E+02  0.10054E+05
 0.49499996E+02  0.88105E+04
 0.49549995E+02  0.89164E+04
 0.49599998E+02  0.89560E+04
 0.49649998E+02  0.98195E+04
 0.49699997E+02  0.10859E+05
 0.49749996E+02  0.11652E+05
 0.49799995E+02  0.12252E+05
 0.49849998E+02  0.12251E+05
 0.49899998E+02  0.11717E+05
 0.49949997E+02  0.13308E+05
 0.49999996E+02  0.15039E+05
 0.50049995E+02  0.13277E+05
 0.50099998E+02  0.12930E+05
 0.50149998E+02  0.14058E+05
 0.50199997E+02  0.14189E+05
 0.50249996E+02  0.13498E+05
 0.50299995E+02  0.13589E+05
 0.50349998E+02  0.14020E+05
 0.50399998E+02  0.12641E+05
 0.50449997E+02  0.10361E+05
 0.50499996E+02  0.10330E+05
 0.50549995E+02  0.10433E+05
 0.50599998E+02  0.92751E+04
 0.50649998E+02  0.91900E+04
 0.50699997E+02  0.89383E+04
 0.50749996E+02  0.95433E+04
 0.50799995E+02  0.97427E+04
 0.50849998E+02  0.11560E+05
 0.50899998E+02  0.13337E+05
 0.50949997E+02  0.13173E+05
 0.50999996E+02  0.13711E+05
 0.51049995E+02  0.13130E+05
 0.51099998E+02  0.12956E+05
 0.51149998E+02  0.13209E+05
 0.51199997E+02  0.11510E+05
 0.51249996E+02  0.96963E+04
 0.51299995E+02  0.95611E+04
 0.51349998E+02  0.93122E+04
 0.51399998E+02  0.10372E+05
 0.51449997E+02  0.11536E+05
 0.51499996E+02  0.12102E+05
 0.51549995E+02  0.13616E+05
 0.51599998E+02  0.14206E+05
 0.51649998E+02  0.12751E+05
 0.51699997E+02  0.11862E+05
 0.51749996E+02  0.12135E+05
 0.51799995E+02  0.11147E+05
 0.51849998E+02  0.94229E+04
 0.51899998E+02  0.87864E+04
 0.51949997E+02  0.80037E+04
 0.51999996E+02  0.72759E+04
 0.52049995E+02  0.90441E+04
 0.52099998E+02  0.10504E+05
 0.52149998E+02  0.12235E+05
 0.52199997E+02  0.12470E+05
 0.52249996E+02  0.12544E+05
 0.52299995E+02  0.12724E+05
 0.52349998E+02  0.12101E+05
 0.52399998E+02  0.12612E+05
 0.52449997E+02  0.12005E+05
 0.52499996E+02  0.13051E+05
 0.52549995E+02  0.14246E+05
 0.52599998E+02  0.13817E+05
 0.52649998E+02  0.13910E+05
 0.52699997E+02  0.14206E+05
 0.52749996E+02  0.14100E+05
 0.52799995E+02  0.12501E+05
 0.52849998E+02  0.10705E+05
 0.52899998E+02  0.10881E+05
 0.52949997E+02  0.11140E+05
 0.52999996E+02  0.11017E+05
 0.53049995E+02  0.10951E+05
 0.53099998E+02  0.11550E+05
 0.53149998E+02  0.12094E+05
 0.53199997E+02  0.11671E+05
 0.53249996E+02  0.11347E+05
 0.53299995E+02  0.10139E+05
 0.53349998E+02  0.91773E+04
 0.53399998E+02  0.89839E+04
 0.53449997E+02  0.77883E+04
 0.53499996E+02  0.83328E+04
 0.53549995E+02  0.10224E+05
 0.53599998E+02  0.11434E+05
 0.53649998E+02  0.12553E+05
 0.53699997E+02  0.13075E+05
 0.53749996E+02  0.13799E+05
 0.53799995E+02  0.13579E+05
 0.53849998E+02  0.12877E+05
 0.53899998E+02  0.12184E+05
 0.53949997E+02  0.11020E+05
 0.53999996E+02  0.10631E+05
 0.54049995E+02  0.10295E+05
 0.54099998E+02  0.99874E+04
 0.54149998E+02  0.11248E+05
 0.54199997E+02  0.12052E+05
 0.54249996E+02  0.12907E+05
 0.54299995E+02  0.13949E+05
 0.54349998E+02  0.13723E+05
 0.54399998E+02  0.13811E+05
 0.54449997E+02  0.13533E+05
 0.54499996E+02  0.12157E+05
 0.54549995E+02  0.10502E+05
 0.54599998E+02  0.94782E+04
 0.54649998E+02  0.87197E+04
 0.54699997E+02  0.91733E+04
 0.54749996E+02  0.10544E+05
 0.54799995E+02  0.11532E+05
 0.54849998E+02  0.12434E+05
 0.54899998E+02  0.13292E+05
 0.54949997E+02  0.12886E+05
 0.54999996E+02  0.11341E+05
 0.55049995E+02  0.10555E+05
 0.55099998E+02  0.10669E+05
 0.55149998E+02  0.11516E+05
 0.55199997E+02  0.11933E+05
 0.55249996E+02  0.11785E+05
 0.55299995E+02  0.11966E+05
 0.55349998E+02  0.11910E+05
 0.55399998E+02  0.12065E+05
 0.55449997E+02  0.11762E+05
 0.55499996E+02  0.11439E+05
 0.55549995E+02  0.11605E+05
 0.55599998E+02  0.11552E+05
 0.55649998E+02  0.11818E+05
 0.55699997E+02  0.12656E+05
 0.55749996E+02  0.12838E+05
 0.55799995E+02  0.11622E+05
 0.55849995E+02  0.10852E+05
 0.55899998E+02  0.97216E+04
 0.55949997E+02  0.91443E+04
 0.55999996E+02  0.10309E+05
 0.56049995E+02  0.12160E+05
 0.56099995E+02  0.13516E+05
 0.56149998E+02  0.13387E+05
 0.56199997E+02  0.12524E+05
 0.56249996E+02  0.11615E+05
 0.56299995E+02  0.11407E+05
 0.56349995E+02  0.11865E+05
 0.56399998E+02  0.12264E+05
 0.56449997E+02  0.12491E+05
 0.56499996E+02  0.12111E+05
 0.56549995E+02  0.11141E+05
 0.56599995E+02  0.10773E+05
 0.56649998E+02  0.10675E+05
 0.56699997E+02  0.10373E+05
 0.56749996E+02  0.10478E+05
 0.56799995E+02  0.11000E+05
 0.56849995E+02  0.12233E+05
 0.56899998E+02  0.13472E+05
 0.56949997E+02  0.13671E+05
 0.56999996E+02  0.12447E+05
 0.57049995E+02  0.10856E+05
 0.57099995E+02  0.11006E+05
 0.57149998E+02  0.11832E+05
 0.57199997E+02  0.12211E+05
 0.57249996E+02  0.12491E+05
 0.57299995E+02  0.13180E+05
 0.57349995E+02  0.13177E+05
 0.57399998E+02  0.12625E+05
 0.57449997E+02  0.11944E+05
 0.57499996E+02  0.11058E+05
 0.57549995E+02  0.10652E+05
 0.57599995E+02  0.10030E+05
 0.57649998E+02  0.10194E+05
 0.57699997E+02  0.10079E+05
 0.57749996E+02  0.99754E+04
 0.57799995E+02  0.10144E+05
 0.57849995E+02  0.96930E+04
 0.57899998E+02  0.98154E+04
 0.57949997E+02  0.10323E+05
 0.57999996E+02  0.11186E+05
 0.58049995E+02  0.11238E+05
 0.58099995E+02  0.11348E+05
 0.58149998E+02  0.12033E+05
 0.58199997E+02  0.12772E+05
 0.58249996E+02  0.13192E+05
 0.58299995E+02  0.13188E+05
 0.58349995E+02  0.12419E+05
 0.58399998E+02  0.11568E+05
 0.58449997E+02  0.11892E+05
 0.58499996E+02  0.11681E+05
 0.58549995E+02  0.11710E+05
 0.58599995E+02  0.11681E+05
 0.58649998E+02  0.10937E+05
 0.58699997E+02  0.10287E+05
 0.58749996E+02  0.10368E+05
 0.58799995E+02  0.10704E+05
 0.58849995E+02  0.10978E+05
 0.58899998E+02  0.11588E+05
 0.58949997E+02  0.11766E+05
 0.58999996E+02  0.12801E+05
 0.59049995E+02  0.14327E+05
 0.59099995E+02  0.14071E+05
 0.59149998E+02  0.13197E+05
 0.59199997E+02  0.12848E+05
 0.59249996E+02  0.12125E+05
 0.59299995E+02  0.11113E+05
 0.59349995E+02  0.11079E+05
 0.59399998E+02  0.11980E+05
 0.59449997E+02  0.12604E+05
 0.59499996E+02  0.12370E+05
 0.59549995E+02  0.11412E+05
 0.59599995E+02  0.99901E+04
 0.59649998E+02  0.87915E+04
 0.59699997E+02  0.87347E+04
 0.59749996E+02  0.92333E+04
 0.59799995E+02  0.98145E+04
 0.59849995E+02  0.10340E+05
 0.59899998E+02  0.10105E+05
 0.59949997E+02  0.11024E+05
 0.59999996E+02  0.12284E+05
 0.60049995E+02  0.12613E+05
 0.60099995E+02  0.12984E+05
 0.60149998E+02  0.12656E+05
 0.60199997E+02  0.12422E+05
 0.60249996E+02  0.12141E+05
 0.60299995E+02  0.12000E+05
 0.60349995E+02  0.12168E+05
 0.60399998E+02  0.12046E+05
 0.60449997E+02  0.12323E+05
 0.60499996E+02  0.12474E+05
 0.60549995E+02  0.11777E+05
 0.60599995E+02  0.10674E+05
 0.60649998E+02  0.10190E+05
 0.60699997E+02  0.10304E+05
 0.60749996E+02  0.10420E+05
 0.60799995E+02  0.11512E+05
 0.60849995E+02  0.12689E+05
 0.60899998E+02  0.12775E+05
 0.60949997E+02  0.12037E+05
 0.60999996E+02  0.11348E+05
 0.61049995E+02  0.11695E+05
 0.61099995E+02  0.12184E+05
 0.61149998E+02  0.12196E+05
 0.61199997E+02  0.12114E+05
 0.61249996E+02  0.12047E+05
 0.61299995E+02  0.11817E+05
 0.61349995E+02  0.11781E+05
 0.61399998E+02  0.11754E+05
 0.61449997E+02  0.12162E+05
 0.61499996E+02  0.12912E+05
 0.61549995E+02  0.12643E+05
 0.61599995E+02  0.11575E+05
 0.61649998E+02  0.10527E+05
 0.61699997E+02  0.10074E+05
 0.61749996E+02  0.10170E+05
 0.61799995E+02  0.10518E+05
 0.61849995E+02  0.11267E+05
 0.61899998E+02  0.11605E+05
 0.61949997E+02  0.11614E+05
 0.61999996E+02  0.12339E+05
 0.62049995E+02  0.12701E+05
 0.62099998E+02  0.12907E+05
 0.62149994E+02  0.13567E+05
 0.62199997E+02  0.13695E+05
 0.62249992E+02  0.13572E+05
 0.62299995E+02  0.13210E+05
 0.62349998E+02  0.12409E+05
 0.62399994E+02  0.11709E+05
 0.62449997E+02  0.11193E+05
 0.62499992E+02  0.10714E+05
 0.62549995E+02  0.10401E+05
 0.62599998E+02  0.10227E+05
 0.62649994E+02  0.99391E+04
 0.62699997E+02  0.97544E+04
 0.62749992E+02  0.93174E+04
 0.62799995E+02  0.87032E+04
 0.62849998E+02  0.86512E+04
 0.62899994E+02  0.92612E+04
 0.62949997E+02  0.10005E+05
 0.62999992E+02  0.11109E+05
 0.63049995E+02  0.12034E+05
 0.63099998E+02  0.12249E+05
 0.63149994E+02  0.12607E+05
 0.63199997E+02  0.12540E+05
 0.63249992E+02  0.12364E+05
 0.63299995E+02  0.12195E+05
 0.63349998E+02  0.12654E+05
 0.63399994E+02  0.12716E+05
 0.63449997E+02  0.11876E+05
 0.63499992E+02  0.11613E+05
 0.63549995E+02  0.11528E+05
 0.63599998E+02  0.11916E+05
 0.63649994E+02  0.12509E+05
 0.63699997E+02  0.12816E+05
 0.63749992E+02  0.13116E+05
 0.63799995E+02  0.12992E+05
 0.63849998E+02  0.12178E+05
 0.63899994E+02  0.11517E+05
 0.63949997E+02  0.11183E+05
 0.63999992E+02  0.11065E+05
 0.64049995E+02  0.10633E+05
 0.64099998E+02  0.10281E+05
 0.64149994E+02  0.10277E+05
 0.64199997E+02  0.10334E+05
 0.64249992E+02  0.10601E+05
 0.64299995E+02  0.11008E+05
 0.64349998E+02  0.11897E+05
 0.64399994E+02  0.11999E+05
 0.64449997E+02  0.11333E+05
 0.64499992E+02  0.11350E+05
 0.64549995E+02  0.11796E+05
 0.64599998E+02  0.11995E+05
 0.64649994E+02  0.12167E+05
 0.64699997E+02  0.12868E+05
 0.64749992E+02  0.13257E+05
 0.64799995E+02  0.12933E+05
 0.64849998E+02  0.12562E+05
 0.64899994E+02  0.12428E+05
 0.64949997E+02  0.12321E+05
 0.64999992E+02  0.12408E+05
 0.65049995E+02  0.12266E+05
 0.65099998E+02  0.11637E+05
 0.65149994E+02  0.10992E+05
 0.65199997E+02  0.10618E+05
 0.65249992E+02  0.10441E+05
 0.65299995E+02  0.99906E+04
 0.65349998E+02  0.98167E+04
 0.65399994E+02  0.10278E+05
 0.65449997E+02  0.10599E+05
 0.65499992E+02  0.10410E+05
 0.65549995E+02  0.10710E+05
 0.65599998E+02  0.11403E+05
 0.65649994E+02  0.11782E+05
 0.65699997E+02  0.11420E+05
 0.65749992E+02  0.10845E+05
 0.65799995E+02  0.10500E+05
 0.65849998E+02  0.10370E+05
 0.65899994E+02  0.10503E+05
 0.65949997E+02  0.11133E+05
 0.65999992E+02  0.12495E+05
 0.66049995E+02  0.13069E+05
 0.66099998E+02  0.12860E+05
 0.66149994E+02  0.12705E+05
 0.66199997E+02  0.12711E+05
 0.66249992E+02  0.12503E+05
 0.66299995E+02  0.12374E+05
 0.66349998E+02  0.12104E+05
 0.66399994E+02  0.11794E+05
 0.66449997E+02  0.11579E+05
 0.66499992E+02  0.11479E+05
 0.66549995E+02  0.11410E+05
 0.66599998E+02  0.10895E+05
 0.66649994E+02  0.10408E+05
 0.66699997E+02  0.99974E+04
 0.66749992E+02  0.10528E+05
 0.66799995E+02  0.11299E+05
 0.66849998E+02  0.11853E+05
 0.66899994E+02  0.12302E+05
 0.66949997E+02  0.12711E+05
 0.66999992E+02  0.12980E+05
 0.67049995E+02  0.13035E+05
 0.67099998E+02  0.13352E+05
 0.67149994E+02  0.13242E+05
 0.67199997E+02  0.12670E+05
 0.67249992E+02  0.11937E+05
 0.67299995E+02  0.11646E+05
 0.67349998E+02  0.11717E+05
 0.67399994E+02  0.11866E+05
 0.67449997E+02  0.11765E+05
 0.67499992E+02  0.11369E+05
 0.67549995E+02  0.11230E+05
 0.67599998E+02  0.11368E+05
 0.67649994E+02  0.11258E+05
 0.67699997E+02  0.11616E+05
 0.67749992E+02  0.12464E+05
 0.67799995E+02  0.12592E+05
 0.67849998E+02  0.12147E+05
 0.67899994E+02  0.11833E+05
 0.67949997E+02  0.12141E+05
 0.67999992E+02  0.11805E+05
 0.68049995E+02  0.11054E+05
 0.68099998E+02  0.10473E+05
 0.68149994E+02  0.99182E+04
 0.68199997E+02  0.96546E+04
 0.68249992E+02  0.98750E+04
 0.68299995E+02  0.10525E+05
 0.68349998E+02  0.10837E+05
 0.68399994E+02  0.11064E+05
 0.68449997E+02  0.11687E+05
 0.68499992E+02  0.12057E+05
 0.68549995E+02  0.11789E+05
 0.68599998E+02  0.11469E+05
 0.68649994E+02  0.11455E+05
 0.68699997E+02  0.11132E+05
 0.68749992E+02  0.10770E+05
 0.68799995E+02  0.10504E+05
 0.68849998E+02  0.10322E+05
 0.68899994E+02  0.10629E+05
 0.68949997E+02  0.10598E+05
 0.68999992E+02  0.10775E+05
 0.69049995E+02  0.11268E+05
 0.69099998E+02  0.11830E+05
 0.69149994E+02  0.12246E+05
 0.69199997E+02  0.11923E+05
 0.69249992E+02  0.11850E+05
 0.69299995E+02  0.12503E+05
 0.69349998E+02  0.13264E+05
 0.69399994E+02  0.13735E+05
 0.69449997E+02  0.13732E+05
 0.69499992E+02  0.13414E+05
 0.69549995E+02  0.12835E+05
 0.69599998E+02  0.12007E+05
 0.69649994E+02  0.11430E+05
 0.69699997E+02  0.11228E+05
 0.69749992E+02  0.11087E+05
 0.69799995E+02  0.10867E+05
 0.69849998E+02  0.10782E+05
 0.69899994E+02  0.11172E+05
 0.69949997E+02  0.11553E+05
 0.69999992E+02  0.11685E+05
 0.70049995E+02  0.11816E+05
 0.70099998E+02  0.11524E+05
 0.70149994E+02  0.11248E+05
 0.70199997E+02  0.10812E+05
 0.70249992E+02  0.10814E+05
 0.70299995E+02  0.11316E+05
 0.70349998E+02  0.11522E+05
 0.70399994E+02  0.11744E+05
 0.70449997E+02  0.11747E+05
 0.70499992E+02  0.11481E+05
 0.70549995E+02  0.11269E+05
 0.70599998E+02  0.11652E+05
 0.70649994E+02  0.12151E+05
 0.70699997E+02  0.12307E+05
 0.70749992E+02  0.12485E+05
 0.70799995E+02  0.12734E+05
 0.70849998E+02  0.12427E+05
 0.70899994E+02  0.11952E+05
 0.70949997E+02  0.11877E+05
 0.70999992E+02  0.11793E+05
 0.71049995E+02  0.11524E+05
 0.71099998E+02  0.11368E+05
 0.71149994E+02  0.11363E+05
 0.71199997E+02  0.11473E+05
 0.71249992E+02  0.11353E+05
 0.71299995E+02  0.11052E+05
 0.71349998E+02  0.11224E+05
 0.71399994E+02  0.11344E+05
 0.71449997E+02  0.11245E+05
 0.71499992E+02  0.11058E+05
 0.71549995E+02  0.10787E+05
 0.71599998E+02  0.10689E+05
 0.71649994E+02  0.10866E+05
 0.71699997E+02  0.10863E+05
 0.71749992E+02  0.10783E+05
 0.71799995E+02  0.11150E+05
 0.71849998E+02  0.11656E+05
 0.71899994E+02  0.12093E+05
 0.71949997E+02  0.11811E+05
 0.71999992E+02  0.11256E+05
 0.72049995E+02  0.11359E+05
 0.72099998E+02  0.11746E+05
 0.72149994E+02  0.11613E+05
 0.72199997E+02  0.11109E+05
 0.72249992E+02  0.10914E+05
 0.72299995E+02  0.11259E+05
 0.72349998E+02  0.11590E+05
 0.72399994E+02  0.11840E+05
 0.72449997E+02  0.12371E+05
 0.72499992E+02  0.12648E+05
 0.72549995E+02  0.12771E+05
 0.72599998E+02  0.12538E+05
 0.72649994E+02  0.12310E+05
 0.72699997E+02  0.11826E+05
 0.72749992E+02  0.11334E+05
 0.72799995E+02  0.11270E+05
 0.72849998E+02  0.11371E+05
 0.72899994E+02  0.11819E+05
 0.72949997E+02  0.11824E+05
 0.72999992E+02  0.11469E+05
 0.73049995E+02  0.11394E+05
 0.73099998E+02  0.11396E+05
 0.73149994E+02  0.11354E+05
 0.73199997E+02  0.11499E+05
 0.73249992E+02  0.11562E+05
 0.73299995E+02  0.11728E+05
 0.73349998E+02  0.12103E+05
 0.73399994E+02  0.12245E+05
 0.73449997E+02  0.12044E+05
 0.73499992E+02  0.11868E+05
 0.73549995E+02  0.11866E+05
 0.73599998E+02  0.11944E+05
 0.73649994E+02  0.11965E+05
 0.73699997E+02  0.11942E+05
 0.73749992E+02  0.11852E+05
 0.73799995E+02  0.11575E+05
 0.73849998E+02  0.11365E+05
 0.73899994E+02  0.11389E+05
 0.73949997E+02  0.11756E+05
 0.73999992E+02  0.12134E+05
 0.74049995E+02  0.12175E+05
 0.74099998E+02  0.11807E+05
 0.74149994E+02  0.11421E+05
 0.74199997E+02  0.10992E+05
 0.74249992E+02  0.10807E+05
 0.74299995E+02  0.11135E+05
 0.74349998E+02  0.11268E+05
 0.74399994E+02  0.11284E+05
 0.74449997E+02  0.11176E+05
 0.74499992E+02  0.10979E+05
 0.74549995E+02  0.10778E+05
 0.74599998E+02  0.10791E+05
 0.74649994E+02  0.11104E+05
 0.74699997E+02  0.11339E+05
 0.74749992E+02  0.11550E+05
 0.74799995E+02  0.11451E+05
 0.74849998E+02  0.11233E+05
 0.74899994E+02  0.11324E+05
 0.74949997E+02  0.11438E+05
 0.74999992E+02  0.11514E+05
 0.75049995E+02  0.11756E+05
 0.75099998E+02  0.11983E+05
 0.75149994E+02  0.12357E+05
 0.75199997E+02  0.12544E+05
 0.75249992E+02  0.12265E+05
 0.75299995E+02  0.12133E+05
 0.75349998E+02  0.11965E+05
 0.75399994E+02  0.12051E+05
 0.75449997E+02  0.12149E+05
 0.75499992E+02  0.11846E+05
 0.75549995E+02  0.11664E+05
 0.75599998E+02  0.11550E+05
 0.75649994E+02  0.11201E+05
 0.75699997E+02  0.11001E+05
 0.75749992E+02  0.11154E+05
 0.75799995E+02  0.11119E+05
 0.75849998E+02  0.10870E+05
 0.75899994E+02  0.10620E+05
 0.75949997E+02  0.10703E+05
 0.75999992E+02  0.11096E+05
 0.76049995E+02  0.11447E+05
 0.76099998E+02  0.11535E+05
 0.76149994E+02  0.11754E+05
 0.76199997E+02  0.12131E+05
 0.76249992E+02  0.12008E+05
 0.76299995E+02  0.11728E+05
 0.76349998E+02  0.11466E+05
 0.76399994E+02  0.11130E+05
 0.76449997E+02  0.11012E+05
 0.76499992E+02  0.11265E+05
 0.76549995E+02  0.11543E+05
 0.76599998E+02  0.11773E+05
 0.76649994E+02  0.11742E+05
 0.76699997E+02  0.11412E+05
 0.76749992E+02  0.11443E+05
 0.76799995E+02  0.11821E+05
 0.76849998E+02  0.12409E+05
 0.76899994E+02  0.12807E+05
 0.76949997E+02  0.12617E+05
 0.76999992E+02  0.12080E+05
 0.77049995E+02  0.11538E+05
 0.77099998E+02  0.11405E+05
 0.77149994E+02  0.11461E+05
 0.77199997E+02  0.11343E+05
 0.77249992E+02  0.11493E+05
 0.77299995E+02  0.11957E+05
 0.77349998E+02  0.12337E+05
 0.77399994E+02  0.12192E+05
 0.77449997E+02  0.11737E+05
 0.77499992E+02  0.11498E+05
 0.77549995E+02  0.11143E+05
 0.77599998E+02  0.10421E+05
 0.77649994E+02  0.98844E+04
 0.77699997E+02  0.10065E+05
 0.77749992E+02  0.10796E+05
 0.77799995E+02  0.11606E+05
 0.77849998E+02  0.12111E+05
 0.77899994E+02  0.12264E+05
 0.77949997E+02  0.12246E+05
 0.77999992E+02  0.12399E+05
 0.78049995E+02  0.12506E+05
 0.78099998E+02  0.12223E+05
 0.78149994E+02  0.11960E+05
 0.78199997E+02  0.11891E+05
 0.78249992E+02  0.11837E+05
 0.78299995E+02  0.11887E+05
 0.78349998E+02  0.11863E+05
 0.78399994E+02  0.11904E+05
 0.78449997E+02  0.11824E+05
 0.78499992E+02  0.11626E+05
 0.78549995E+02  0.11398E+05
 0.78599998E+02  0.11117E+05
 0.78649994E+02  0.11234E+05
 0.78699997E+02  0.11386E+05
 0.78749992E+02  0.11484E+05
 0.78799995E+02  0.11471E+05
 0.78849998E+02  0.11402E+05
 0.78899994E+02  0.11251E+05
 0.78949997E+02  0.11055E+05
 0.78999992E+02  0.10783E+05
 0.79049995E+02  0.10706E+05
 0.79099998E+02  0.10966E+05
 0.79149994E+02  0.11348E+05
 0.79199997E+02  0.11934E+05
 0.79249992E+02  0.12317E+05
 0.79299995E+02  0.12171E+05
 0.79349998E+02  0.11843E+05
 0.79399994E+02  0.11777E+05
 0.79449997E+02  0.11763E+05
 0.79499992E+02  0.11611E+05
 0.79549995E+02  0.11501E+05
 0.79599998E+02  0.11479E+05
 0.79649994E+02  0.11363E+05
 0.79699997E+02  0.11541E+05
 0.79749992E+02  0.11723E+05
 0.79799995E+02  0.11805E+05
 0.79849998E+02  0.11672E+05
 0.79899994E+02  0.11365E+05
 0.79949997E+02  0.11362E+05
 0.79999992E+02  0.11458E+05
 0.80049995E+02  0.11634E+05
 0.80099998E+02  0.11704E+05
 0.80149994E+02  0.11548E+05
 0.80199997E+02  0.11291E+05
 0.80249992E+02  0.11112E+05
 0.80299995E+02  0.10971E+05
 0.80349998E+02  0.11078E+05
 0.80399994E+02  0.11418E+05
 0.80449997E+02  0.11785E+05
 0.80499992E+02  0.12175E+05
 0.80549995E+02  0.12399E+05
 0.80599998E+02  0.12331E+05
 0.80649994E+02  0.12123E+05
 0.80699997E+02  0.12107E+05
 0.80749992E+02  0.12058E+05
 0.80799995E+02  0.11757E+05
 0.80849998E+02  0.11520E+05
 0.80899994E+02  0.11321E+05
 0.80949997E+02  0.11014E+05
 0.80999992E+02  0.10560E+05
 0.81049995E+02  0.10325E+05
 0.81099998E+02  0.10647E+05
 0.81149994E+02  0.11062E+05
 0.81199997E+02  0.11383E+05
 0.81249992E+02  0.11633E+05
 0.81299995E+02  0.11700E+05
 0.81349998E+02  0.11604E+05
 0.81399994E+02  0.11690E+05
 0.81449997E+02  0.11859E+05
 0.81499992E+02  0.11880E+05
 0.81549995E+02  0.11914E+05
 0.81599998E+02  0.11824E+05
 0.81649994E+02  0.11646E+05
 0.81699997E+02  0.11449E+05
 0.81749992E+02  0.11466E+05
 0.81799995E+02  0.11509E+05
 0.81849998E+02  0.11564E+05
 0.81899994E+02  0.11726E+05
 0.81949997E+02  0.11630E+05
 0.81999992E+02  0.11866E+05
 0.82049995E+02  0.12276E+05
 0.82099998E+02  0.12352E+05
 0.82149994E+02  0.12130E+05
 0.82199997E+02  0.11897E+05
 0.82249992E+02  0.11998E+05
 0.82299995E+02  0.11993E+05
 0.82349998E+02  0.12125E+05
 0.82399994E+02  0.12301E+05
 0.82449997E+02  0.12018E+05
 0.82499992E+02  0.11549E+05
 0.82549995E+02  0.11205E+05
 0.82599998E+02  0.11088E+05
 0.82649994E+02  0.11134E+05
 0.82699997E+02  0.11280E+05
 0.82749992E+02  0.11390E+05
 0.82799995E+02  0.11328E+05
 0.82849998E+02  0.11163E+05
 0.82899994E+02  0.10969E+05
 0.82949997E+02  0.10883E+05
 0.82999992E+02  0.10769E+05
 0.83049995E+02  0.10714E+05
 0.83099998E+02  0.10988E+05
 0.83149994E+02  0.11273E+05
 0.83199997E+02  0.11688E+05
 0.83249992E+02  0.12001E+05
 0.83299995E+02  0.12125E+05
 0.83349998E+02  0.12193E+05
 0.83399994E+02  0.11979E+05
 0.83449997E+02  0.11705E+05
 0.83499992E+02  0.11460E+05
 0.83549995E+02  0.11370E+05
 0.83599998E+02  0.11444E+05
 0.83649994E+02  0.11615E+05
 0.83699997E+02  0.11740E+05
 0.83749992E+02  0.11816E+05
 0.83799995E+02  0.12016E+05
 0.83849998E+02  0.12154E+05
 0.83899994E+02  0.12242E+05
 0.83949997E+02  0.12277E+05
 0.83999992E+02  0.12106E+05
 0.84049995E+02  0.11916E+05
 0.84099998E+02  0.11770E+05
 0.84149994E+02  0.11489E+05
 0.84199997E+02  0.11146E+05
 0.84249992E+02  0.11062E+05
 0.84299995E+02  0.11330E+05
 0.84349998E+02  0.11584E+05
 0.84399994E+02  0.11768E+05
 0.84449997E+02  0.11810E+05
 0.84499992E+02  0.11579E+05
 0.84549995E+02  0.11450E+05
 0.84599998E+02  0.11521E+05
 0.84649994E+02  0.11611E+05
 0.84699997E+02  0.11672E+05
 0.84749992E+02  0.11838E+05
 0.84799995E+02  0.12040E+05
 0.84849998E+02  0.12031E+05
 0.84899994E+02  0.11977E+05
 0.84949997E+02  0.11838E+05
 0.84999992E+02  0.11576E+05
 0.85049995E+02  0.11257E+05
 0.85099998E+02  0.11189E+05
 0.85149994E+02  0.11228E+05
 0.85199997E+02  0.11128E+05
 0.85249992E+02  0.11225E+05
 0.85299995E+02  0.11184E+05
 0.85349998E+02  0.11138E+05
 0.85399994E+02  0.11199E+05
 0.85449997E+02  0.11184E+05
 0.85499992E+02  0.11368E+05
 0.85549995E+02  0.11725E+05
 0.85599998E+02  0.11916E+05
 0.85649994E+02  0.11761E+05
 0.85699997E+02  0.11508E+05
 0.85749992E+02  0.11219E+05
 0.85799995E+02  0.11003E+05
 0.85849998E+02  0.11089E+05
 0.85899994E+02  0.11280E+05
 0.85949997E+02  0.11488E+05
 0.85999992E+02  0.11645E+05
 0.86049995E+02  0.11732E+05
 0.86099998E+02  0.11739E+05
 0.86149994E+02  0.11760E+05
 0.86199997E+02  0.11833E+05
 0.86249992E+02  0.11658E+05
 0.86299995E+02  0.11258E+05
 0.86349998E+02  0.11024E+05
 0.86399994E+02  0.11311E+05
 0.86449997E+02  0.11792E+05
 0.86499992E+02  0.12248E+05
 0.86549995E+02  0.12490E+05
 0.86599998E+02  0.12565E+05
 0.86649994E+02  0.12677E+05
 0.86699997E+02  0.12560E+05
 0.86749992E+02  0.12288E+05
 0.86799995E+02  0.11894E+05
 0.86849998E+02  0.11582E+05
 0.86899994E+02  0.11349E+05
 0.86949997E+02  0.11182E+05
 0.86999992E+02  0.11248E+05
 0.87049995E+02  0.11299E+05
 0.87099998E+02  0.11278E+05
 0.87149994E+02  0.11391E+05
 0.87199997E+02  0.11365E+05
 0.87249992E+02  0.11285E+05
 0.87299995E+02  0.11438E+05
 0.87349998E+02  0.11628E+05
 0.87399994E+02  0.11782E+05
 0.87449997E+02  0.11794E+05
 0.87499992E+02  0.11825E+05
 0.87549995E+02  0.11919E+05
 0.87599991E+02  0.11994E+05
 0.87649994E+02  0.12178E+05
 0.87699997E+02  0.12224E+05
 0.87749992E+02  0.11888E+05
 0.87799995E+02  0.11194E+05
 0.87849991E+02  0.10529E+05
 0.87899994E+02  0.10301E+05
 0.87949997E+02  0.10455E+05
 0.87999992E+02  0.10843E+05
 0.88049995E+02  0.11139E+05
 0.88099991E+02  0.11401E+05
 0.88149994E+02  0.11674E+05
 0.88199997E+02  0.11632E+05
 0.88249992E+02  0.11333E+05
 0.88299995E+02  0.11087E+05
 0.88349991E+02  0.11088E+05
 0.88399994E+02  0.11327E+05
 0.88449997E+02  0.11688E+05
 0.88499992E+02  0.11972E+05
 0.88549995E+02  0.12011E+05
 0.88599991E+02  0.11820E+05
 0.88649994E+02  0.11516E+05
 0.88699997E+02  0.11270E+05
 0.88749992E+02  0.11167E+05
 0.88799995E+02  0.11114E+05
 0.88849991E+02  0.11144E+05
 0.88899994E+02  0.11171E+05
 0.88949997E+02  0.11240E+05
 0.88999992E+02  0.11513E+05
 0.89049995E+02  0.11705E+05
 0.89099991E+02  0.11695E+05
 0.89149994E+02  0.11473E+05
 0.89199997E+02  0.11278E+05
 0.89249992E+02  0.11321E+05
 0.89299995E+02  0.11363E+05
 0.89349991E+02  0.11436E+05
 0.89399994E+02  0.11677E+05
 0.89449997E+02  0.11780E+05
 0.89499992E+02  0.11753E+05
 0.89549995E+02  0.11709E+05
 0.89599991E+02  0.11510E+05
 0.89649994E+02  0.11413E+05
 0.89699997E+02  0.11476E+05
 0.89749992E+02  0.11687E+05
 0.89799995E+02  0.11890E+05
 0.89849991E+02  0.12030E+05
 0.89899994E+02  0.12163E+05
 0.89949997E+02  0.12312E+05
 0.89999992E+02  0.12407E+05
 0.90049995E+02  0.12408E+05
 0.90099991E+02  0.12351E+05
 0.90149994E+02  0.12149E+05
 0.90199997E+02  0.11964E+05
 0.90249992E+02  0.11825E+05
 0.90299995E+02  0.11770E+05
 0.90349991E+02  0.11647E+05
 0.90399994E+02  0.11492E+05
 0.90449997E+02  0.11357E+05
 0.90499992E+02  0.11396E+05
 0.90549995E+02  0.11543E+05
 0.90599991E+02  0.11779E+05
 0.90649994E+02  0.12160E+05
 0.90699997E+02  0.12278E+05
 0.90749992E+02  0.12288E+05
 0.90799995E+02  0.12089E+05
 0.90849991E+02  0.11716E+05
 0.90899994E+02  0.11355E+05
 0.90949997E+02  0.11150E+05
 0.90999992E+02  0.11305E+05
 0.91049995E+02  0.11538E+05
 0.91099991E+02  0.11790E+05
 0.91149994E+02  0.11838E+05
 0.91199997E+02  0.11651E+05
 0.91249992E+02  0.11398E+05
 0.91299995E+02  0.11187E+05
 0.91349991E+02  0.11184E+05
 0.91399994E+02  0.11192E+05
 0.91449997E+02  0.11180E+05
 0.91499992E+02  0.11165E+05
 0.91549995E+02  0.11160E+05
 0.91599991E+02  0.11157E+05
 0.91649994E+02  0.11169E+05
 0.91699997E+02  0.11056E+05
 0.91749992E+02  0.10899E+05
 0.91799995E+02  0.10895E+05
 0.91849991E+02  0.10914E+05
 0.91899994E+02  0.10982E+05
 0.91949997E+02  0.11142E+05
 0.91999992E+02  0.11347E+05
 0.92049995E+02  0.11450E+05
 0.92099991E+02  0.11500E+05
 0.92149994E+02  0.11469E+05
 0.92199997E+02  0.11511E+05
 0.92249992E+02  0.11667E+05
 0.92299995E+02  0.11847E+05
 0.92349991E+02  0.12017E+05
 0.92399994E+02  0.12064E+05
 0.92449997E+02  0.12131E+05
 0.92499992E+02  0.12040E+05
 0.92549995E+02  0.11995E+05
 0.92599991E+02  0.12005E+05
 0.92649994E+02  0.11972E+05
 0.92699997E+02  0.11968E+05
 0.92749992E+02  0.11910E+05
 0.92799995E+02  0.11935E+05
 0.92849991E+02  0.12020E+05
 0.92899994E+02  0.12157E+05
 0.92949997E+02  0.12076E+05
 0.92999992E+02  0.11845E+05
 0.93049995E+02  0.11842E+05
 0.93099991E+02  0.12006E+05
 0.93149994E+02  0.12108E+05
 0.93199997E+02  0.12073E+05
 0.93249992E+02  0.11980E+05
 0.93299995E+02  0.11774E+05
 0.93349991E+02  0.11455E+05
 0.93399994E+02  0.11226E+05
 0.93449997E+02  0.11145E+05
 0.93499992E+02  0.11058E+05
 0.93549995E+02  0.11117E+05
 0.93599991E+02  0.11375E+05
 0.93649994E+02  0.11590E+05
 0.93699997E+02  0.11628E+05
 0.93749992E+02  0.11446E+05
 0.93799995E+02  0.11192E+05
 0.93849991E+02  0.11030E+05
 0.93899994E+02  0.11129E+05
 0.93949997E+02  0.11445E+05
 0.93999992E+02  0.11811E+05
 0.94049995E+02  0.11978E+05
 0.94099991E+02  0.11707E+05
 0.94149994E+02  0.11370E+05
 0.94199997E+02  0.11101E+05
 0.94249992E+02  0.10948E+05
 0.94299995E+02  0.11028E+05
 0.94349991E+02  0.11249E+05
 0.94399994E+02  0.11529E+05
 0.94449997E+02  0.11672E+05
 0.94499992E+02  0.11666E+05
 0.94549995E+02  0.11539E+05
 0.94599991E+02  0.11484E+05
 0.94649994E+02  0.11495E+05
 0.94699997E+02  0.11492E+05
 0.94749992E+02  0.11556E+05
 0.94799995E+02  0.11780E+05
 0.94849991E+02  0.12108E+05
 0.94899994E+02  0.12318E+05
 0.94949997E+02  0.12214E+05
 0.94999992E+02  0.11871E+05
 0.95049995E+02  0.11587E+05
 0.95099991E+02  0.11434E+05
 0.95149994E+02  0.11409E+05
 0.95199997E+02  0.11487E+05
 0.95249992E+02  0.11665E+05
 0.95299995E+02  0.11716E+05
 0.95349991E+02  0.11570E+05
 0.95399994E+02  0.11447E+05
 0.95449997E+02  0.11559E+05
 0.95499992E+02  0.11824E+05
 0.95549995E+02  0.11930E+05
 0.95599991E+02  0.11919E+05
 0.95649994E+02  0.11833E+05
 0.95699997E+02  0.11685E+05
 0.95749992E+02  0.11644E+05
 0.95799995E+02  0.11536E+05
 0.95849991E+02  0.11455E+05
 0.95899994E+02  0.11549E+05
 0.95949997E+02  0.11665E+05
 0.95999992E+02  0.11834E+05
 0.96049995E+02  0.11781E+05
 0.96099991E+02  0.11572E+05
 0.96149994E+02  0.11452E+05
 0.96199997E+02  0.11316E+05
 0.96249992E+02  0.11222E+05
 0.96299995E+02  0.11181E+05
 0.96349991E+02  0.11275E+05
 0.96399994E+02  0.11478E+05
 0.96449997E+02  0.11581E+05
 0.96499992E+02  0.11516E+05
 0.96549995E+02  0.11341E+05
 0.96599991E+02  0.11322E+05
 0.96649994E+02  0.11436E+05
 0.96699997E+02  0.11441E+05
 0.96749992E+02  0.11437E+05
 0.96799995E+02  0.11569E+05
 0.96849991E+02  0.11673E+05
 0.96899994E+02  0.11650E+05
 0.96949997E+02  0.11585E+05
 0.96999992E+02  0.11485E+05
 0.97049995E+02  0.11496E+05
 0.97099991E+02  0.11609E+05
 0.97149994E+02  0.11702E+05
 0.97199997E+02  0.11727E+05
 0.97249992E+02  0.11620E+05
 0.97299995E+02  0.11452E+05
 0.97349991E+02  0.11249E+05
 0.97399994E+02  0.11123E+05
 0.97449997E+02  0.11194E+05
 0.97499992E+02  0.11451E+05
 0.97549995E+02  0.11753E+05
 0.97599991E+02  0.11865E+05
 0.97649994E+02  0.11778E+05
 0.97699997E+02  0.11732E+05
 0.97749992E+02  0.11670E+05
 0.97799995E+02  0.11625E+05
 0.97849991E+02  0.11718E+05
 0.97899994E+02  0.11741E+05
 0.97949997E+02  0.11624E+05
 0.97999992E+02  0.11562E+05
