-0.20000000E+01 -0.33812E+05
-0.19500000E+01 -0.33592E+05
-0.19000000E+01 -0.33711E+05
-0.18500000E+01 -0.33757E+05
-0.18000000E+01 -0.33645E+05
-0.17500000E+01 -0.33718E+05
-0.17000000E+01 -0.33724E+05
-0.16500001E+01 -0.33653E+05
-0.16000000E+01 -0.33714E+05
-0.15500000E+01 -0.33720E+05
-0.15000000E+01 -0.33639E+05
-0.14500000E+01 -0.33779E+05
-0.14000001E+01 -0.33755E+05
-0.13500000E+01 -0.33676E+05
-0.13000001E+01 -0.33833E+05
-0.12500000E+01 -0.33723E+05
-0.12000000E+01 -0.33760E+05
-0.11500001E+01 -0.33812E+05
-0.11000000E+01 -0.33813E+05
-0.10500001E+01 -0.33851E+05
-0.10000000E+01 -0.33740E+05
-0.95000005E+00 -0.33833E+05
-0.90000010E+00 -0.33869E+05
-0.85000002E+00 -0.33764E+05
-0.80000007E+00 -0.33811E+05
-0.75000012E+00 -0.33815E+05
-0.70000005E+00 -0.33820E+05
-0.65000010E+00 -0.33744E+05
-0.60000014E+00 -0.33744E+05
-0.55000007E+00 -0.33856E+05
-0.50000012E+00 -0.33799E+05
-0.45000005E+00 -0.33739E+05
-0.40000010E+00 -0.33808E+05
-0.35000014E+00 -0.33818E+05
-0.30000007E+00 -0.33763E+05
-0.25000012E+00 -0.33761E+05
-0.20000005E+00 -0.33764E+05
-0.15000010E+00 -0.33752E+05
-0.10000014E+00 -0.33720E+05
-0.50000072E-01 -0.33653E+05
-0.11920929E-06 -0.33636E+05
 0.49999952E-01 -0.33624E+05
 0.99999905E-01 -0.33636E+05
 0.14999986E+00 -0.33690E+05
 0.19999981E+00 -0.33674E+05
 0.24999976E+00 -0.33692E+05
 0.29999995E+00 -0.33724E+05
 0.34999990E+00 -0.33716E+05
 0.39999986E+00 -0.33753E+05
 0.44999981E+00 -0.33783E+05
 0.49999976E+00 -0.33743E+05
 0.54999995E+00 -0.33822E+05
 0.59999990E+00 -0.33770E+05
 0.64999986E+00 -0.33788E+05
 0.69999981E+00 -0.33862E+05
 0.74999976E+00 -0.33817E+05
 0.79999971E+00 -0.33824E+05
 0.84999990E+00 -0.33797E+05
 0.89999986E+00 -0.33760E+05
 0.94999981E+00 -0.33760E+05
 0.99999976E+00 -0.33755E+05
 0.10499997E+01 -0.33722E+05
 0.10999999E+01 -0.33726E+05
 0.11499999E+01 -0.33666E+05
 0.11999998E+01 -0.33675E+05
 0.12499998E+01 -0.33796E+05
 0.12999997E+01 -0.33704E+05
 0.13499999E+01 -0.33670E+05
 0.13999999E+01 -0.33803E+05
 0.14499998E+01 -0.33706E+05
 0.14999998E+01 -0.33681E+05
 0.15499997E+01 -0.33831E+05
 0.15999999E+01 -0.33777E+05
 0.16499999E+01 -0.33735E+05
 0.16999998E+01 -0.33824E+05
 0.17499998E+01 -0.33735E+05
 0.17999997E+01 -0.33773E+05
 0.18499997E+01 -0.33809E+05
 0.18999999E+01 -0.33795E+05
 0.19499998E+01 -0.33761E+05
 0.19999998E+01 -0.33741E+05
 0.20499997E+01 -0.33736E+05
 0.20999999E+01 -0.33760E+05
 0.21499996E+01 -0.33805E+05
 0.21999998E+01 -0.33741E+05
 0.22499995E+01 -0.33707E+05
 0.22999997E+01 -0.33729E+05
 0.23499999E+01 -0.33747E+05
 0.23999996E+01 -0.33754E+05
 0.24499998E+01 -0.33820E+05
 0.24999995E+01 -0.33807E+05
 0.25499997E+01 -0.33767E+05
 0.25999999E+01 -0.33732E+05
 0.26499996E+01 -0.33749E+05
 0.26999998E+01 -0.33733E+05
 0.27499995E+01 -0.33826E+05
 0.27999997E+01 -0.33747E+05
 0.28499999E+01 -0.33688E+05
 0.28999996E+01 -0.33836E+05
 0.29499998E+01 -0.33676E+05
 0.29999995E+01 -0.33790E+05
 0.30499997E+01 -0.33826E+05
 0.30999999E+01 -0.33788E+05
 0.31499996E+01 -0.33789E+05
 0.31999998E+01 -0.33779E+05
 0.32499995E+01 -0.33789E+05
 0.32999997E+01 -0.33751E+05
 0.33499999E+01 -0.33846E+05
 0.33999996E+01 -0.33699E+05
 0.34499998E+01 -0.33767E+05
 0.34999995E+01 -0.33742E+05
 0.35499997E+01 -0.33718E+05
 0.35999994E+01 -0.33808E+05
 0.36499996E+01 -0.33728E+05
 0.36999998E+01 -0.33689E+05
 0.37499995E+01 -0.33766E+05
 0.37999997E+01 -0.33697E+05
 0.38499994E+01 -0.33691E+05
 0.38999996E+01 -0.33775E+05
 0.39499998E+01 -0.33646E+05
 0.39999995E+01 -0.33739E+05
 0.40499997E+01 -0.33730E+05
 0.40999994E+01 -0.33719E+05
 0.41499996E+01 -0.33715E+05
 0.41999998E+01 -0.33707E+05
 0.42499995E+01 -0.33742E+05
 0.42999997E+01 -0.33773E+05
 0.43499994E+01 -0.33694E+05
 0.43999996E+01 -0.33725E+05
 0.44499998E+01 -0.33822E+05
 0.44999995E+01 -0.33700E+05
 0.45499997E+01 -0.33781E+05
 0.45999994E+01 -0.33776E+05
 0.46499996E+01 -0.33712E+05
 0.46999998E+01 -0.33799E+05
 0.47499995E+01 -0.33813E+05
 0.47999997E+01 -0.33788E+05
 0.48499994E+01 -0.33788E+05
 0.48999996E+01 -0.33804E+05
 0.49499998E+01 -0.33797E+05
 0.49999995E+01 -0.33846E+05
 0.50499997E+01 -0.33857E+05
 0.50999994E+01 -0.33757E+05
 0.51499996E+01 -0.33834E+05
 0.51999998E+01 -0.33820E+05
 0.52499995E+01 -0.33816E+05
 0.52999997E+01 -0.33754E+05
 0.53499994E+01 -0.33734E+05
 0.53999996E+01 -0.33742E+05
 0.54499993E+01 -0.33703E+05
 0.54999995E+01 -0.33674E+05
 0.55499997E+01 -0.33656E+05
 0.55999994E+01 -0.33705E+05
 0.56499996E+01 -0.33642E+05
 0.56999993E+01 -0.33664E+05
 0.57499995E+01 -0.33673E+05
 0.57999997E+01 -0.33650E+05
 0.58499994E+01 -0.33673E+05
 0.58999996E+01 -0.33753E+05
 0.59499993E+01 -0.33647E+05
 0.59999995E+01 -0.33681E+05
 0.60499992E+01 -0.33763E+05
 0.60999994E+01 -0.33683E+05
 0.61499996E+01 -0.33749E+05
 0.61999998E+01 -0.33766E+05
 0.62499990E+01 -0.33723E+05
 0.62999992E+01 -0.33773E+05
 0.63499994E+01 -0.33806E+05
 0.63999996E+01 -0.33817E+05
 0.64499998E+01 -0.33797E+05
 0.64999990E+01 -0.33810E+05
 0.65499992E+01 -0.33786E+05
 0.65999994E+01 -0.33735E+05
 0.66499996E+01 -0.33778E+05
 0.66999998E+01 -0.33787E+05
 0.67499990E+01 -0.33738E+05
 0.67999992E+01 -0.33762E+05
 0.68499994E+01 -0.33804E+05
 0.68999996E+01 -0.33751E+05
 0.69499998E+01 -0.33809E+05
 0.69999990E+01 -0.33803E+05
 0.70499992E+01 -0.33747E+05
 0.70999994E+01 -0.33775E+05
 0.71499996E+01 -0.33789E+05
 0.71999998E+01 -0.33768E+05
 0.72499990E+01 -0.33766E+05
 0.72999992E+01 -0.33727E+05
 0.73499994E+01 -0.33765E+05
 0.73999996E+01 -0.33791E+05
 0.74499998E+01 -0.33735E+05
 0.74999990E+01 -0.33729E+05
 0.75499992E+01 -0.33760E+05
 0.75999994E+01 -0.33755E+05
 0.76499996E+01 -0.33700E+05
 0.76999998E+01 -0.33718E+05
 0.77499990E+01 -0.33761E+05
 0.77999992E+01 -0.33698E+05
 0.78499994E+01 -0.33740E+05
 0.78999996E+01 -0.33808E+05
 0.79499998E+01 -0.33741E+05
 0.79999990E+01 -0.33755E+05
 0.80499992E+01 -0.33745E+05
 0.80999994E+01 -0.33772E+05
 0.81499996E+01 -0.33791E+05
 0.81999998E+01 -0.33731E+05
 0.82499990E+01 -0.33783E+05
 0.82999992E+01 -0.33778E+05
 0.83499994E+01 -0.33711E+05
 0.83999996E+01 -0.33745E+05
 0.84499998E+01 -0.33792E+05
 0.84999990E+01 -0.33712E+05
 0.85499992E+01 -0.33761E+05
 0.85999994E+01 -0.33868E+05
 0.86499996E+01 -0.33754E+05
 0.86999998E+01 -0.33746E+05
 0.87499990E+01 -0.33819E+05
 0.87999992E+01 -0.33804E+05
 0.88499994E+01 -0.33744E+05
 0.88999996E+01 -0.33764E+05
 0.89499998E+01 -0.33849E+05
 0.89999990E+01 -0.33710E+05
 0.90499992E+01 -0.33740E+05
 0.90999994E+01 -0.33810E+05
 0.91499996E+01 -0.33740E+05
 0.91999989E+01 -0.33726E+05
 0.92499990E+01 -0.33725E+05
 0.92999992E+01 -0.33728E+05
 0.93499994E+01 -0.33689E+05
 0.93999996E+01 -0.33811E+05
 0.94499989E+01 -0.33731E+05
 0.94999990E+01 -0.33643E+05
 0.95499992E+01 -0.33760E+05
 0.95999994E+01 -0.33769E+05
 0.96499996E+01 -0.33726E+05
 0.96999989E+01 -0.33806E+05
 0.97499990E+01 -0.33698E+05
 0.97999992E+01 -0.33600E+05
 0.98499994E+01 -0.33803E+05
 0.98999996E+01 -0.33787E+05
 0.99499989E+01 -0.33669E+05
 0.99999990E+01 -0.33741E+05
 0.10049999E+02 -0.33826E+05
 0.10099999E+02 -0.33694E+05
 0.10150000E+02 -0.33587E+05
 0.10199999E+02 -0.33777E+05
 0.10249999E+02 -0.33951E+05
 0.10299999E+02 -0.33605E+05
 0.10349999E+02 -0.33554E+05
 0.10400000E+02 -0.34012E+05
 0.10449999E+02 -0.33866E+05
 0.10499999E+02 -0.33627E+05
 0.10549999E+02 -0.33900E+05
 0.10599999E+02 -0.33862E+05
 0.10650000E+02 -0.33728E+05
 0.10699999E+02 -0.33886E+05
 0.10749999E+02 -0.33736E+05
 0.10799999E+02 -0.33758E+05
 0.10849999E+02 -0.33784E+05
 0.10900000E+02 -0.33754E+05
 0.10949999E+02 -0.33710E+05
 0.10999999E+02 -0.33737E+05
 0.11049999E+02 -0.33778E+05
 0.11099999E+02 -0.33624E+05
 0.11150000E+02 -0.33641E+05
 0.11199999E+02 -0.33693E+05
 0.11249999E+02 -0.33807E+05
 0.11299999E+02 -0.33652E+05
 0.11349999E+02 -0.33585E+05
 0.11400000E+02 -0.33772E+05
 0.11449999E+02 -0.33714E+05
 0.11499999E+02 -0.33694E+05
 0.11549999E+02 -0.33763E+05
 0.11599999E+02 -0.33722E+05
 0.11650000E+02 -0.33790E+05
 0.11699999E+02 -0.33831E+05
 0.11749999E+02 -0.33752E+05
 0.11799999E+02 -0.33725E+05
 0.11849999E+02 -0.33864E+05
 0.11900000E+02 -0.33924E+05
 0.11949999E+02 -0.33733E+05
 0.11999999E+02 -0.33794E+05
 0.12049999E+02 -0.33865E+05
 0.12099999E+02 -0.33748E+05
 0.12150000E+02 -0.33812E+05
 0.12199999E+02 -0.33850E+05
 0.12249999E+02 -0.33820E+05
 0.12299999E+02 -0.33790E+05
 0.12349999E+02 -0.33756E+05
 0.12400000E+02 -0.33762E+05
 0.12449999E+02 -0.33868E+05
 0.12499999E+02 -0.33761E+05
 0.12549999E+02 -0.33706E+05
 0.12599999E+02 -0.33759E+05
 0.12649999E+02 -0.33720E+05
 0.12699999E+02 -0.33759E+05
 0.12749999E+02 -0.33644E+05
 0.12799999E+02 -0.33748E+05
 0.12849999E+02 -0.33777E+05
 0.12899999E+02 -0.33646E+05
 0.12949999E+02 -0.33733E+05
 0.12999999E+02 -0.33761E+05
 0.13049999E+02 -0.33700E+05
 0.13099999E+02 -0.33696E+05
 0.13149999E+02 -0.33786E+05
 0.13199999E+02 -0.33721E+05
 0.13249999E+02 -0.33652E+05
 0.13299999E+02 -0.33739E+05
 0.13349999E+02 -0.33816E+05
 0.13399999E+02 -0.33679E+05
 0.13449999E+02 -0.33657E+05
 0.13499999E+02 -0.33826E+05
 0.13549999E+02 -0.33703E+05
 0.13599999E+02 -0.33755E+05
 0.13649999E+02 -0.33713E+05
 0.13699999E+02 -0.33695E+05
 0.13749999E+02 -0.33781E+05
 0.13799999E+02 -0.33719E+05
 0.13849999E+02 -0.33806E+05
 0.13899999E+02 -0.33754E+05
 0.13949999E+02 -0.33782E+05
 0.13999999E+02 -0.33817E+05
 0.14049999E+02 -0.33767E+05
 0.14099998E+02 -0.33820E+05
 0.14150000E+02 -0.33819E+05
 0.14199999E+02 -0.33824E+05
 0.14249998E+02 -0.33727E+05
 0.14299999E+02 -0.33780E+05
 0.14349998E+02 -0.33857E+05
 0.14400000E+02 -0.33724E+05
 0.14449999E+02 -0.33738E+05
 0.14499998E+02 -0.33765E+05
 0.14549999E+02 -0.33679E+05
 0.14599998E+02 -0.33650E+05
 0.14650000E+02 -0.33742E+05
 0.14699999E+02 -0.33703E+05
 0.14749998E+02 -0.33614E+05
 0.14799999E+02 -0.33621E+05
 0.14849998E+02 -0.33664E+05
 0.14900000E+02 -0.33692E+05
 0.14949999E+02 -0.33747E+05
 0.14999998E+02 -0.33715E+05
 0.15049999E+02 -0.33678E+05
 0.15099998E+02 -0.33758E+05
 0.15150000E+02 -0.33773E+05
 0.15199999E+02 -0.33801E+05
 0.15249998E+02 -0.33795E+05
 0.15299999E+02 -0.33780E+05
 0.15349998E+02 -0.33791E+05
 0.15400000E+02 -0.33846E+05
 0.15449999E+02 -0.33833E+05
 0.15499998E+02 -0.33881E+05
 0.15549999E+02 -0.33910E+05
 0.15599998E+02 -0.33802E+05
 0.15650000E+02 -0.33818E+05
 0.15699999E+02 -0.33915E+05
 0.15749998E+02 -0.33831E+05
 0.15799999E+02 -0.33847E+05
 0.15849998E+02 -0.33851E+05
 0.15900000E+02 -0.33726E+05
 0.15949999E+02 -0.33785E+05
 0.15999998E+02 -0.33760E+05
 0.16049999E+02 -0.33716E+05
 0.16099998E+02 -0.33722E+05
 0.16150000E+02 -0.33720E+05
 0.16199999E+02 -0.33650E+05
 0.16249998E+02 -0.33681E+05
 0.16299999E+02 -0.33700E+05
 0.16349998E+02 -0.33672E+05
 0.16400000E+02 -0.33665E+05
 0.16449999E+02 -0.33650E+05
 0.16499998E+02 -0.33703E+05
 0.16549999E+02 -0.33701E+05
 0.16599998E+02 -0.33702E+05
 0.16650000E+02 -0.33697E+05
 0.16699999E+02 -0.33740E+05
 0.16749998E+02 -0.33755E+05
 0.16799999E+02 -0.33716E+05
 0.16849998E+02 -0.33763E+05
 0.16900000E+02 -0.33784E+05
 0.16949999E+02 -0.33749E+05
 0.16999998E+02 -0.33782E+05
 0.17049999E+02 -0.33779E+05
 0.17099998E+02 -0.33743E+05
 0.17150000E+02 -0.33783E+05
 0.17199999E+02 -0.33773E+05
 0.17249998E+02 -0.33771E+05
 0.17299999E+02 -0.33763E+05
 0.17349998E+02 -0.33812E+05
 0.17400000E+02 -0.33792E+05
 0.17449999E+02 -0.33733E+05
 0.17499998E+02 -0.33806E+05
 0.17549999E+02 -0.33816E+05
 0.17599998E+02 -0.33775E+05
 0.17650000E+02 -0.33709E+05
 0.17699999E+02 -0.33706E+05
 0.17749998E+02 -0.33745E+05
 0.17799999E+02 -0.33730E+05
 0.17849998E+02 -0.33720E+05
 0.17900000E+02 -0.33701E+05
 0.17949999E+02 -0.33666E+05
 0.17999998E+02 -0.33683E+05
 0.18049999E+02 -0.33718E+05
 0.18099998E+02 -0.33648E+05
 0.18150000E+02 -0.33706E+05
 0.18199999E+02 -0.33719E+05
 0.18249998E+02 -0.33695E+05
 0.18299999E+02 -0.33703E+05
 0.18349998E+02 -0.33729E+05
 0.18400000E+02 -0.33739E+05
 0.18449999E+02 -0.33742E+05
 0.18499998E+02 -0.33843E+05
 0.18549999E+02 -0.33842E+05
 0.18599998E+02 -0.33836E+05
 0.18650000E+02 -0.33816E+05
 0.18699999E+02 -0.33892E+05
 0.18749998E+02 -0.33847E+05
 0.18799999E+02 -0.33922E+05
 0.18849998E+02 -0.33901E+05
 0.18900000E+02 -0.33802E+05
 0.18949999E+02 -0.33815E+05
 0.18999998E+02 -0.33815E+05
 0.19049999E+02 -0.33813E+05
 0.19099998E+02 -0.33810E+05
 0.19150000E+02 -0.33853E+05
 0.19199999E+02 -0.33779E+05
 0.19249998E+02 -0.33708E+05
 0.19299999E+02 -0.33687E+05
 0.19349998E+02 -0.33707E+05
 0.19400000E+02 -0.33658E+05
 0.19449999E+02 -0.33698E+05
 0.19499998E+02 -0.33723E+05
 0.19549999E+02 -0.33619E+05
 0.19599998E+02 -0.33576E+05
 0.19650000E+02 -0.33611E+05
 0.19699999E+02 -0.33634E+05
 0.19749998E+02 -0.33666E+05
 0.19799999E+02 -0.33728E+05
 0.19849998E+02 -0.33692E+05
 0.19900000E+02 -0.33675E+05
 0.19949999E+02 -0.33763E+05
 0.19999998E+02 -0.33778E+05
 0.20049999E+02 -0.33806E+05
 0.20099998E+02 -0.33772E+05
 0.20150000E+02 -0.33838E+05
 0.20199999E+02 -0.33765E+05
 0.20249998E+02 -0.33812E+05
 0.20299999E+02 -0.33923E+05
 0.20349998E+02 -0.33872E+05
 0.20399998E+02 -0.33780E+05
 0.20449999E+02 -0.33832E+05
 0.20499998E+02 -0.33823E+05
 0.20549999E+02 -0.33672E+05
 0.20599998E+02 -0.33749E+05
 0.20649998E+02 -0.33700E+05
 0.20699999E+02 -0.33802E+05
 0.20749998E+02 -0.33663E+05
 0.20799999E+02 -0.33612E+05
 0.20849998E+02 -0.33609E+05
 0.20899998E+02 -0.33746E+05
 0.20949999E+02 -0.33767E+05
 0.20999998E+02 -0.33663E+05
 0.21049999E+02 -0.33650E+05
 0.21099998E+02 -0.33628E+05
 0.21149998E+02 -0.33738E+05
 0.21199999E+02 -0.33713E+05
 0.21249998E+02 -0.33807E+05
 0.21299999E+02 -0.33762E+05
 0.21349998E+02 -0.33747E+05
 0.21399998E+02 -0.33730E+05
 0.21449999E+02 -0.33739E+05
 0.21499998E+02 -0.33775E+05
 0.21549999E+02 -0.33838E+05
 0.21599998E+02 -0.33928E+05
 0.21649998E+02 -0.33886E+05
 0.21699999E+02 -0.33825E+05
 0.21749998E+02 -0.33839E+05
 0.21799999E+02 -0.33857E+05
 0.21849998E+02 -0.34003E+05
 0.21899998E+02 -0.34004E+05
 0.21949999E+02 -0.33721E+05
 0.21999998E+02 -0.33748E+05
 0.22049999E+02 -0.33805E+05
 0.22099998E+02 -0.33972E+05
 0.22149998E+02 -0.33822E+05
 0.22199999E+02 -0.33702E+05
 0.22249998E+02 -0.33715E+05
 0.22299999E+02 -0.33654E+05
 0.22349998E+02 -0.33759E+05
 0.22399998E+02 -0.33674E+05
 0.22449999E+02 -0.33700E+05
 0.22499998E+02 -0.33501E+05
 0.22549999E+02 -0.33625E+05
 0.22599998E+02 -0.33594E+05
 0.22649998E+02 -0.33557E+05
 0.22699999E+02 -0.33758E+05
 0.22749998E+02 -0.33662E+05
 0.22799999E+02 -0.33606E+05
 0.22849998E+02 -0.33445E+05
 0.22899998E+02 -0.33605E+05
 0.22949999E+02 -0.33995E+05
 0.22999998E+02 -0.33948E+05
 0.23049999E+02 -0.33666E+05
 0.23099998E+02 -0.33588E+05
 0.23149998E+02 -0.33676E+05
 0.23199999E+02 -0.33776E+05
 0.23249998E+02 -0.33956E+05
 0.23299999E+02 -0.34165E+05
 0.23349998E+02 -0.33904E+05
 0.23399998E+02 -0.33388E+05
 0.23449999E+02 -0.33542E+05
 0.23499998E+02 -0.33645E+05
 0.23549999E+02 -0.33702E+05
 0.23599998E+02 -0.34003E+05
 0.23649998E+02 -0.34060E+05
 0.23699999E+02 -0.33830E+05
 0.23749998E+02 -0.33941E+05
 0.23799999E+02 -0.33993E+05
 0.23849998E+02 -0.33777E+05
 0.23899998E+02 -0.34323E+05
 0.23949999E+02 -0.33829E+05
 0.23999998E+02 -0.33869E+05
 0.24049999E+02 -0.33854E+05
 0.24099998E+02 -0.33656E+05
 0.24149998E+02 -0.33689E+05
 0.24199999E+02 -0.33298E+05
 0.24249998E+02 -0.33224E+05
 0.24299999E+02 -0.33141E+05
 0.24349998E+02 -0.33996E+05
 0.24399998E+02 -0.34578E+05
 0.24449999E+02 -0.34397E+05
 0.24499998E+02 -0.33886E+05
 0.24549999E+02 -0.33425E+05
 0.24599998E+02 -0.33144E+05
 0.24649998E+02 -0.33194E+05
 0.24699999E+02 -0.33639E+05
 0.24749998E+02 -0.33570E+05
 0.24799999E+02 -0.33155E+05
 0.24849998E+02 -0.33859E+05
 0.24899998E+02 -0.33858E+05
 0.24949999E+02 -0.33947E+05
 0.24999998E+02 -0.33764E+05
 0.25049999E+02 -0.33666E+05
 0.25099998E+02 -0.34183E+05
 0.25149998E+02 -0.34103E+05
 0.25199999E+02 -0.33782E+05
 0.25249998E+02 -0.34067E+05
 0.25299999E+02 -0.33924E+05
 0.25349998E+02 -0.33400E+05
 0.25399998E+02 -0.34135E+05
 0.25449999E+02 -0.33489E+05
 0.25499998E+02 -0.34025E+05
 0.25549999E+02 -0.34348E+05
 0.25599998E+02 -0.34159E+05
 0.25649998E+02 -0.33758E+05
 0.25699999E+02 -0.33436E+05
 0.25749998E+02 -0.33794E+05
 0.25799999E+02 -0.33006E+05
 0.25849998E+02 -0.33087E+05
 0.25899998E+02 -0.33598E+05
 0.25949999E+02 -0.33821E+05
 0.25999998E+02 -0.33257E+05
 0.26049999E+02 -0.34172E+05
 0.26099998E+02 -0.34359E+05
 0.26149998E+02 -0.33721E+05
 0.26199999E+02 -0.34544E+05
 0.26249998E+02 -0.34479E+05
 0.26299999E+02 -0.33658E+05
 0.26349998E+02 -0.32410E+05
 0.26399998E+02 -0.32713E+05
 0.26449999E+02 -0.33208E+05
 0.26499998E+02 -0.33311E+05
 0.26549999E+02 -0.34407E+05
 0.26599998E+02 -0.34495E+05
 0.26649998E+02 -0.33976E+05
 0.26699999E+02 -0.34230E+05
 0.26749998E+02 -0.34196E+05
 0.26799999E+02 -0.33426E+05
 0.26849998E+02 -0.33398E+05
 0.26899998E+02 -0.33902E+05
 0.26949999E+02 -0.34004E+05
 0.26999998E+02 -0.33735E+05
 0.27049997E+02 -0.33388E+05
 0.27099998E+02 -0.33754E+05
 0.27149998E+02 -0.33277E+05
 0.27199999E+02 -0.33752E+05
 0.27249998E+02 -0.34555E+05
 0.27299997E+02 -0.34689E+05
 0.27349998E+02 -0.34175E+05
 0.27399998E+02 -0.33657E+05
 0.27449999E+02 -0.33476E+05
 0.27499998E+02 -0.32983E+05
 0.27549997E+02 -0.32757E+05
 0.27599998E+02 -0.33365E+05
 0.27649998E+02 -0.34698E+05
 0.27699999E+02 -0.33821E+05
 0.27749998E+02 -0.33337E+05
 0.27799997E+02 -0.33656E+05
 0.27849998E+02 -0.33946E+05
 0.27899998E+02 -0.33368E+05
 0.27949999E+02 -0.33440E+05
 0.27999998E+02 -0.33198E+05
 0.28049997E+02 -0.32010E+05
 0.28099998E+02 -0.32857E+05
 0.28149998E+02 -0.34132E+05
 0.28199999E+02 -0.34288E+05
 0.28249998E+02 -0.33669E+05
 0.28299997E+02 -0.34635E+05
 0.28349998E+02 -0.35158E+05
 0.28399998E+02 -0.33824E+05
 0.28449999E+02 -0.33924E+05
 0.28499998E+02 -0.33895E+05
 0.28549997E+02 -0.34001E+05
 0.28599998E+02 -0.33872E+05
 0.28649998E+02 -0.34057E+05
 0.28699999E+02 -0.33025E+05
 0.28749998E+02 -0.32776E+05
 0.28799997E+02 -0.34825E+05
 0.28849998E+02 -0.35080E+05
 0.28899998E+02 -0.35173E+05
 0.28949999E+02 -0.33685E+05
 0.28999998E+02 -0.33409E+05
 0.29049997E+02 -0.33207E+05
 0.29099998E+02 -0.33273E+05
 0.29149998E+02 -0.33659E+05
 0.29199999E+02 -0.33578E+05
 0.29249998E+02 -0.34595E+05
 0.29299997E+02 -0.33417E+05
 0.29349998E+02 -0.33099E+05
 0.29399998E+02 -0.33528E+05
 0.29449999E+02 -0.33874E+05
 0.29499998E+02 -0.34517E+05
 0.29549997E+02 -0.33952E+05
 0.29599998E+02 -0.32780E+05
 0.29649998E+02 -0.32385E+05
 0.29699999E+02 -0.32895E+05
 0.29749998E+02 -0.31795E+05
 0.29799997E+02 -0.32202E+05
 0.29849998E+02 -0.34507E+05
 0.29899998E+02 -0.34282E+05
 0.29949999E+02 -0.33920E+05
 0.29999998E+02 -0.33907E+05
 0.30049999E+02 -0.35087E+05
 0.30099998E+02 -0.35793E+05
 0.30149998E+02 -0.34340E+05
 0.30199997E+02 -0.33714E+05
 0.30249996E+02 -0.32834E+05
 0.30299999E+02 -0.33322E+05
 0.30349998E+02 -0.33944E+05
 0.30399998E+02 -0.34239E+05
 0.30449997E+02 -0.33747E+05
 0.30499996E+02 -0.33261E+05
 0.30549999E+02 -0.33928E+05
 0.30599998E+02 -0.33878E+05
 0.30649998E+02 -0.34399E+05
 0.30699997E+02 -0.34549E+05
 0.30749996E+02 -0.34044E+05
 0.30799999E+02 -0.32503E+05
 0.30849998E+02 -0.33118E+05
 0.30899998E+02 -0.33800E+05
 0.30949997E+02 -0.33448E+05
 0.30999996E+02 -0.34236E+05
 0.31049999E+02 -0.34645E+05
 0.31099998E+02 -0.34900E+05
 0.31149998E+02 -0.35551E+05
 0.31199997E+02 -0.34271E+05
 0.31249996E+02 -0.31983E+05
 0.31299999E+02 -0.33540E+05
 0.31349998E+02 -0.33749E+05
 0.31399998E+02 -0.32145E+05
 0.31449997E+02 -0.32116E+05
 0.31499996E+02 -0.33984E+05
 0.31549999E+02 -0.33803E+05
 0.31599998E+02 -0.32454E+05
 0.31649998E+02 -0.34153E+05
 0.31699997E+02 -0.33701E+05
 0.31749996E+02 -0.32982E+05
 0.31799999E+02 -0.33368E+05
 0.31849998E+02 -0.34170E+05
 0.31899998E+02 -0.34703E+05
 0.31949997E+02 -0.33273E+05
 0.31999996E+02 -0.33474E+05
 0.32049999E+02 -0.34304E+05
 0.32099998E+02 -0.33979E+05
 0.32149998E+02 -0.34054E+05
 0.32199997E+02 -0.35121E+05
 0.32249996E+02 -0.35966E+05
 0.32299999E+02 -0.34224E+05
 0.32349998E+02 -0.32601E+05
 0.32399998E+02 -0.33298E+05
 0.32449997E+02 -0.33365E+05
 0.32499996E+02 -0.33651E+05
 0.32549999E+02 -0.34359E+05
 0.32599998E+02 -0.34739E+05
 0.32649998E+02 -0.35188E+05
 0.32699997E+02 -0.34331E+05
 0.32749996E+02 -0.32665E+05
 0.32799999E+02 -0.33450E+05
 0.32849998E+02 -0.33470E+05
 0.32899998E+02 -0.32229E+05
 0.32949997E+02 -0.32558E+05
 0.32999996E+02 -0.33296E+05
 0.33049999E+02 -0.34130E+05
 0.33099998E+02 -0.34408E+05
 0.33149998E+02 -0.34827E+05
 0.33199997E+02 -0.33258E+05
 0.33249996E+02 -0.31296E+05
 0.33299999E+02 -0.32693E+05
 0.33349998E+02 -0.33588E+05
 0.33399998E+02 -0.34148E+05
 0.33449997E+02 -0.34659E+05
 0.33499996E+02 -0.34073E+05
 0.33549999E+02 -0.33926E+05
 0.33599998E+02 -0.34081E+05
 0.33649998E+02 -0.34583E+05
 0.33699997E+02 -0.34735E+05
 0.33749996E+02 -0.34853E+05
 0.33799999E+02 -0.34501E+05
 0.33849998E+02 -0.33558E+05
 0.33899998E+02 -0.32851E+05
 0.33949997E+02 -0.32751E+05
 0.33999996E+02 -0.33304E+05
 0.34049999E+02 -0.33497E+05
 0.34099998E+02 -0.32159E+05
 0.34149998E+02 -0.32304E+05
 0.34199997E+02 -0.33782E+05
 0.34249996E+02 -0.33772E+05
 0.34299999E+02 -0.34004E+05
 0.34349998E+02 -0.34091E+05
 0.34399998E+02 -0.33448E+05
 0.34449997E+02 -0.32629E+05
 0.34499996E+02 -0.32745E+05
 0.34549999E+02 -0.33128E+05
 0.34599998E+02 -0.32608E+05
 0.34649998E+02 -0.33805E+05
 0.34699997E+02 -0.34753E+05
 0.34749996E+02 -0.35148E+05
 0.34799999E+02 -0.34948E+05
 0.34849998E+02 -0.32975E+05
 0.34899998E+02 -0.32755E+05
 0.34949997E+02 -0.34307E+05
 0.34999996E+02 -0.35452E+05
 0.35049999E+02 -0.34381E+05
 0.35099998E+02 -0.34420E+05
 0.35149998E+02 -0.35578E+05
 0.35199997E+02 -0.33979E+05
 0.35249996E+02 -0.31956E+05
 0.35299999E+02 -0.32086E+05
 0.35349998E+02 -0.33077E+05
 0.35399998E+02 -0.33550E+05
 0.35449997E+02 -0.35604E+05
 0.35499996E+02 -0.37590E+05
 0.35549999E+02 -0.37586E+05
 0.35599998E+02 -0.36259E+05
 0.35649998E+02 -0.33584E+05
 0.35699997E+02 -0.32627E+05
 0.35749996E+02 -0.32872E+05
 0.35799999E+02 -0.32823E+05
 0.35849998E+02 -0.32933E+05
 0.35899998E+02 -0.30972E+05
 0.35949997E+02 -0.30742E+05
 0.35999996E+02 -0.32346E+05
 0.36049999E+02 -0.33858E+05
 0.36099998E+02 -0.34945E+05
 0.36149998E+02 -0.35151E+05
 0.36199997E+02 -0.33341E+05
 0.36249996E+02 -0.32101E+05
 0.36299999E+02 -0.33396E+05
 0.36349998E+02 -0.31899E+05
 0.36399998E+02 -0.31085E+05
 0.36449997E+02 -0.33749E+05
 0.36499996E+02 -0.37742E+05
 0.36549999E+02 -0.39205E+05
 0.36599998E+02 -0.34844E+05
 0.36649998E+02 -0.28676E+05
 0.36699997E+02 -0.27805E+05
 0.36749996E+02 -0.31888E+05
 0.36799999E+02 -0.35482E+05
 0.36849998E+02 -0.36846E+05
 0.36899998E+02 -0.35637E+05
 0.36949997E+02 -0.31806E+05
 0.36999996E+02 -0.30612E+05
 0.37049999E+02 -0.35422E+05
 0.37099998E+02 -0.37496E+05
 0.37149998E+02 -0.37275E+05
 0.37199997E+02 -0.36746E+05
 0.37249996E+02 -0.31366E+05
 0.37299999E+02 -0.28693E+05
 0.37349998E+02 -0.30681E+05
 0.37399998E+02 -0.32999E+05
 0.37449997E+02 -0.33396E+05
 0.37499996E+02 -0.33787E+05
 0.37549999E+02 -0.33815E+05
 0.37599998E+02 -0.34788E+05
 0.37649998E+02 -0.35318E+05
 0.37699997E+02 -0.35897E+05
 0.37749996E+02 -0.35030E+05
 0.37799999E+02 -0.35129E+05
 0.37849998E+02 -0.36753E+05
 0.37899998E+02 -0.35960E+05
 0.37949997E+02 -0.35388E+05
 0.37999996E+02 -0.32609E+05
 0.38049999E+02 -0.31724E+05
 0.38099998E+02 -0.28743E+05
 0.38149998E+02 -0.28561E+05
 0.38199997E+02 -0.32134E+05
 0.38249996E+02 -0.35199E+05
 0.38299999E+02 -0.36829E+05
 0.38349998E+02 -0.37885E+05
 0.38399998E+02 -0.36276E+05
 0.38449997E+02 -0.31892E+05
 0.38499996E+02 -0.34217E+05
 0.38549999E+02 -0.35230E+05
 0.38599998E+02 -0.34959E+05
 0.38649998E+02 -0.37160E+05
 0.38699997E+02 -0.35368E+05
 0.38749996E+02 -0.31648E+05
 0.38799999E+02 -0.33170E+05
 0.38849998E+02 -0.32734E+05
 0.38899998E+02 -0.30255E+05
 0.38949997E+02 -0.30117E+05
 0.38999996E+02 -0.32229E+05
 0.39049999E+02 -0.34297E+05
 0.39099998E+02 -0.33168E+05
 0.39149998E+02 -0.35987E+05
 0.39199997E+02 -0.37456E+05
 0.39249996E+02 -0.36000E+05
 0.39299999E+02 -0.34368E+05
 0.39349998E+02 -0.31033E+05
 0.39399998E+02 -0.28326E+05
 0.39449997E+02 -0.30234E+05
 0.39499996E+02 -0.33709E+05
 0.39549999E+02 -0.34609E+05
 0.39599998E+02 -0.36573E+05
 0.39649998E+02 -0.37135E+05
 0.39699997E+02 -0.35680E+05
 0.39749996E+02 -0.33661E+05
 0.39799999E+02 -0.34176E+05
 0.39849998E+02 -0.34352E+05
 0.39899998E+02 -0.33164E+05
 0.39949997E+02 -0.35213E+05
 0.39999996E+02 -0.37513E+05
 0.40049999E+02 -0.33363E+05
 0.40099998E+02 -0.27285E+05
 0.40149998E+02 -0.26614E+05
 0.40199997E+02 -0.29111E+05
 0.40249996E+02 -0.31584E+05
 0.40299999E+02 -0.31884E+05
 0.40349998E+02 -0.33933E+05
 0.40399998E+02 -0.37099E+05
 0.40449997E+02 -0.38049E+05
 0.40499996E+02 -0.35010E+05
 0.40549999E+02 -0.34477E+05
 0.40599998E+02 -0.39744E+05
 0.40649998E+02 -0.42113E+05
 0.40699997E+02 -0.38142E+05
 0.40749996E+02 -0.29548E+05
 0.40799999E+02 -0.23622E+05
 0.40849998E+02 -0.29137E+05
 0.40899998E+02 -0.36853E+05
 0.40949997E+02 -0.37462E+05
 0.40999996E+02 -0.34279E+05
 0.41049999E+02 -0.32160E+05
 0.41099998E+02 -0.32085E+05
 0.41149998E+02 -0.33716E+05
 0.41199997E+02 -0.36853E+05
 0.41249996E+02 -0.37019E+05
 0.41299999E+02 -0.34628E+05
 0.41349998E+02 -0.32526E+05
 0.41399998E+02 -0.35662E+05
 0.41449997E+02 -0.39199E+05
 0.41499996E+02 -0.35402E+05
 0.41549999E+02 -0.31431E+05
 0.41599998E+02 -0.28099E+05
 0.41649998E+02 -0.24822E+05
 0.41699997E+02 -0.26808E+05
 0.41749996E+02 -0.31048E+05
 0.41799999E+02 -0.34909E+05
 0.41849998E+02 -0.35688E+05
 0.41899998E+02 -0.35187E+05
 0.41949997E+02 -0.36797E+05
 0.41999996E+02 -0.36264E+05
 0.42049999E+02 -0.35277E+05
 0.42099998E+02 -0.36388E+05
 0.42149998E+02 -0.34238E+05
 0.42199997E+02 -0.31141E+05
 0.42249996E+02 -0.32582E+05
 0.42299999E+02 -0.33006E+05
 0.42349998E+02 -0.31741E+05
 0.42399998E+02 -0.31245E+05
 0.42449997E+02 -0.30539E+05
 0.42499996E+02 -0.33010E+05
 0.42549999E+02 -0.38661E+05
 0.42599998E+02 -0.40704E+05
 0.42649998E+02 -0.38275E+05
 0.42699997E+02 -0.35692E+05
 0.42749996E+02 -0.35879E+05
 0.42799995E+02 -0.36101E+05
 0.42849998E+02 -0.33682E+05
 0.42899998E+02 -0.30156E+05
 0.42949997E+02 -0.27184E+05
 0.42999996E+02 -0.31269E+05
 0.43049995E+02 -0.36339E+05
 0.43099998E+02 -0.35459E+05
 0.43149998E+02 -0.32303E+05
 0.43199997E+02 -0.29113E+05
 0.43249996E+02 -0.28919E+05
 0.43299995E+02 -0.31566E+05
 0.43349998E+02 -0.33093E+05
 0.43399998E+02 -0.34221E+05
 0.43449997E+02 -0.35506E+05
 0.43499996E+02 -0.34796E+05
 0.43549995E+02 -0.35051E+05
 0.43599998E+02 -0.37292E+05
 0.43649998E+02 -0.38840E+05
 0.43699997E+02 -0.37648E+05
 0.43749996E+02 -0.36142E+05
 0.43799995E+02 -0.32341E+05
 0.43849998E+02 -0.28578E+05
 0.43899998E+02 -0.32489E+05
 0.43949997E+02 -0.34737E+05
 0.43999996E+02 -0.34702E+05
 0.44049995E+02 -0.36446E+05
 0.44099998E+02 -0.34362E+05
 0.44149998E+02 -0.30592E+05
 0.44199997E+02 -0.29384E+05
 0.44249996E+02 -0.31447E+05
 0.44299995E+02 -0.32234E+05
 0.44349998E+02 -0.31193E+05
 0.44399998E+02 -0.31040E+05
 0.44449997E+02 -0.30814E+05
 0.44499996E+02 -0.32646E+05
 0.44549995E+02 -0.35792E+05
 0.44599998E+02 -0.35109E+05
 0.44649998E+02 -0.34354E+05
 0.44699997E+02 -0.36647E+05
 0.44749996E+02 -0.38351E+05
 0.44799995E+02 -0.39038E+05
 0.44849998E+02 -0.37524E+05
 0.44899998E+02 -0.32254E+05
 0.44949997E+02 -0.28717E+05
 0.44999996E+02 -0.31190E+05
 0.45049995E+02 -0.34060E+05
 0.45099998E+02 -0.33667E+05
 0.45149998E+02 -0.33839E+05
 0.45199997E+02 -0.34960E+05
 0.45249996E+02 -0.33459E+05
 0.45299995E+02 -0.34001E+05
 0.45349998E+02 -0.37128E+05
 0.45399998E+02 -0.36240E+05
 0.45449997E+02 -0.31378E+05
 0.45499996E+02 -0.29048E+05
 0.45549995E+02 -0.32100E+05
 0.45599998E+02 -0.35509E+05
 0.45649998E+02 -0.35889E+05
 0.45699997E+02 -0.35474E+05
 0.45749996E+02 -0.35390E+05
 0.45799995E+02 -0.33233E+05
 0.45849998E+02 -0.32635E+05
 0.45899998E+02 -0.34019E+05
 0.45949997E+02 -0.30879E+05
 0.45999996E+02 -0.26190E+05
 0.46049995E+02 -0.29418E+05
 0.46099998E+02 -0.36757E+05
 0.46149998E+02 -0.39182E+05
 0.46199997E+02 -0.37969E+05
 0.46249996E+02 -0.35793E+05
 0.46299995E+02 -0.33470E+05
 0.46349998E+02 -0.33197E+05
 0.46399998E+02 -0.33746E+05
 0.46449997E+02 -0.33694E+05
 0.46499996E+02 -0.32588E+05
 0.46549995E+02 -0.33051E+05
 0.46599998E+02 -0.35540E+05
 0.46649998E+02 -0.38078E+05
 0.46699997E+02 -0.39091E+05
 0.46749996E+02 -0.35252E+05
 0.46799995E+02 -0.32614E+05
 0.46849998E+02 -0.32511E+05
 0.46899998E+02 -0.32151E+05
 0.46949997E+02 -0.30818E+05
 0.46999996E+02 -0.29463E+05
 0.47049995E+02 -0.29446E+05
 0.47099998E+02 -0.30401E+05
 0.47149998E+02 -0.33867E+05
 0.47199997E+02 -0.36662E+05
 0.47249996E+02 -0.36189E+05
 0.47299995E+02 -0.34060E+05
 0.47349998E+02 -0.33106E+05
 0.47399998E+02 -0.32828E+05
 0.47449997E+02 -0.31853E+05
 0.47499996E+02 -0.32114E+05
 0.47549995E+02 -0.32647E+05
 0.47599998E+02 -0.32822E+05
 0.47649998E+02 -0.33592E+05
 0.47699997E+02 -0.35421E+05
 0.47749996E+02 -0.36140E+05
 0.47799995E+02 -0.34101E+05
 0.47849998E+02 -0.33501E+05
 0.47899998E+02 -0.33680E+05
 0.47949997E+02 -0.35114E+05
 0.47999996E+02 -0.37875E+05
 0.48049995E+02 -0.38172E+05
 0.48099998E+02 -0.35328E+05
 0.48149998E+02 -0.33309E+05
 0.48199997E+02 -0.33438E+05
 0.48249996E+02 -0.33024E+05
 0.48299995E+02 -0.33306E+05
 0.48349998E+02 -0.33604E+05
 0.48399998E+02 -0.31467E+05
 0.48449997E+02 -0.29910E+05
 0.48499996E+02 -0.33294E+05
 0.48549995E+02 -0.36241E+05
 0.48599998E+02 -0.34913E+05
 0.48649998E+02 -0.32449E+05
 0.48699997E+02 -0.31980E+05
 0.48749996E+02 -0.30767E+05
 0.48799995E+02 -0.29966E+05
 0.48849998E+02 -0.33336E+05
 0.48899998E+02 -0.36730E+05
 0.48949997E+02 -0.39278E+05
 0.48999996E+02 -0.40394E+05
 0.49049995E+02 -0.36321E+05
 0.49099998E+02 -0.31595E+05
 0.49149998E+02 -0.31525E+05
 0.49199997E+02 -0.31349E+05
 0.49249996E+02 -0.30317E+05
 0.49299995E+02 -0.31017E+05
 0.49349998E+02 -0.32694E+05
 0.49399998E+02 -0.33468E+05
 0.49449997E+02 -0.34158E+05
 0.49499996E+02 -0.35147E+05
 0.49549995E+02 -0.35679E+05
 0.49599998E+02 -0.34886E+05
 0.49649998E+02 -0.33483E+05
 0.49699997E+02 -0.33873E+05
 0.49749996E+02 -0.34155E+05
 0.49799995E+02 -0.33535E+05
 0.49849998E+02 -0.33381E+05
 0.49899998E+02 -0.33597E+05
 0.49949997E+02 -0.33542E+05
 0.49999996E+02 -0.33384E+05
 0.50049995E+02 -0.32757E+05
 0.50099998E+02 -0.32121E+05
 0.50149998E+02 -0.34055E+05
 0.50199997E+02 -0.35933E+05
 0.50249996E+02 -0.35489E+05
 0.50299995E+02 -0.34202E+05
 0.50349998E+02 -0.31623E+05
 0.50399998E+02 -0.31814E+05
 0.50449997E+02 -0.33162E+05
 0.50499996E+02 -0.32418E+05
 0.50549995E+02 -0.31787E+05
 0.50599998E+02 -0.31754E+05
 0.50649998E+02 -0.33835E+05
 0.50699997E+02 -0.35938E+05
 0.50749996E+02 -0.35027E+05
 0.50799995E+02 -0.33331E+05
 0.50849998E+02 -0.33529E+05
 0.50899998E+02 -0.33961E+05
 0.50949997E+02 -0.34268E+05
 0.50999996E+02 -0.35223E+05
 0.51049995E+02 -0.35706E+05
 0.51099998E+02 -0.35118E+05
 0.51149998E+02 -0.34379E+05
 0.51199997E+02 -0.33946E+05
 0.51249996E+02 -0.33875E+05
 0.51299995E+02 -0.33909E+05
 0.51349998E+02 -0.33374E+05
 0.51399998E+02 -0.32279E+05
 0.51449997E+02 -0.31810E+05
 0.51499996E+02 -0.32424E+05
 0.51549995E+02 -0.33404E+05
 0.51599998E+02 -0.34185E+05
 0.51649998E+02 -0.34925E+05
 0.51699997E+02 -0.34304E+05
 0.51749996E+02 -0.33443E+05
 0.51799995E+02 -0.34575E+05
 0.51849998E+02 -0.34385E+05
 0.51899998E+02 -0.32542E+05
 0.51949997E+02 -0.32277E+05
 0.51999996E+02 -0.35297E+05
 0.52049995E+02 -0.36810E+05
 0.52099998E+02 -0.35302E+05
 0.52149998E+02 -0.33619E+05
 0.52199997E+02 -0.32036E+05
 0.52249996E+02 -0.32426E+05
 0.52299995E+02 -0.33793E+05
 0.52349998E+02 -0.35526E+05
 0.52399998E+02 -0.35467E+05
 0.52449997E+02 -0.33535E+05
 0.52499996E+02 -0.33189E+05
 0.52549995E+02 -0.33921E+05
 0.52599998E+02 -0.33966E+05
 0.52649998E+02 -0.32904E+05
 0.52699997E+02 -0.33132E+05
 0.52749996E+02 -0.33861E+05
 0.52799995E+02 -0.34002E+05
 0.52849998E+02 -0.34820E+05
 0.52899998E+02 -0.34913E+05
 0.52949997E+02 -0.33661E+05
 0.52999996E+02 -0.33119E+05
 0.53049995E+02 -0.33119E+05
 0.53099998E+02 -0.32359E+05
 0.53149998E+02 -0.32208E+05
 0.53199997E+02 -0.32760E+05
 0.53249996E+02 -0.33137E+05
 0.53299995E+02 -0.34069E+05
 0.53349998E+02 -0.35255E+05
 0.53399998E+02 -0.35176E+05
 0.53449997E+02 -0.34652E+05
 0.53499996E+02 -0.33849E+05
 0.53549995E+02 -0.33121E+05
 0.53599998E+02 -0.34184E+05
 0.53649998E+02 -0.35403E+05
 0.53699997E+02 -0.35343E+05
 0.53749996E+02 -0.34767E+05
 0.53799995E+02 -0.33981E+05
 0.53849998E+02 -0.33313E+05
 0.53899998E+02 -0.32733E+05
 0.53949997E+02 -0.32064E+05
 0.53999996E+02 -0.30900E+05
 0.54049995E+02 -0.30839E+05
 0.54099998E+02 -0.31886E+05
 0.54149998E+02 -0.32670E+05
 0.54199997E+02 -0.33458E+05
 0.54249996E+02 -0.33072E+05
 0.54299995E+02 -0.32616E+05
 0.54349998E+02 -0.33674E+05
 0.54399998E+02 -0.34816E+05
 0.54449997E+02 -0.34268E+05
 0.54499996E+02 -0.33499E+05
 0.54549995E+02 -0.33238E+05
 0.54599998E+02 -0.33194E+05
 0.54649998E+02 -0.33410E+05
 0.54699997E+02 -0.33794E+05
 0.54749996E+02 -0.34622E+05
 0.54799995E+02 -0.36122E+05
 0.54849998E+02 -0.36964E+05
 0.54899998E+02 -0.35997E+05
 0.54949997E+02 -0.34890E+05
 0.54999996E+02 -0.33595E+05
 0.55049995E+02 -0.33324E+05
 0.55099998E+02 -0.34159E+05
 0.55149998E+02 -0.34531E+05
 0.55199997E+02 -0.34896E+05
 0.55249996E+02 -0.35390E+05
 0.55299995E+02 -0.35211E+05
 0.55349998E+02 -0.34683E+05
 0.55399998E+02 -0.34776E+05
 0.55449997E+02 -0.34702E+05
 0.55499996E+02 -0.34114E+05
 0.55549995E+02 -0.33421E+05
 0.55599998E+02 -0.32473E+05
 0.55649998E+02 -0.31570E+05
 0.55699997E+02 -0.31165E+05
 0.55749996E+02 -0.31482E+05
 0.55799995E+02 -0.32315E+05
 0.55849995E+02 -0.32879E+05
 0.55899998E+02 -0.33030E+05
 0.55949997E+02 -0.32591E+05
 0.55999996E+02 -0.32284E+05
 0.56049995E+02 -0.32398E+05
 0.56099995E+02 -0.33125E+05
 0.56149998E+02 -0.33362E+05
 0.56199997E+02 -0.33557E+05
 0.56249996E+02 -0.34232E+05
 0.56299995E+02 -0.33960E+05
 0.56349995E+02 -0.34035E+05
 0.56399998E+02 -0.34363E+05
 0.56449997E+02 -0.34426E+05
 0.56499996E+02 -0.34914E+05
 0.56549995E+02 -0.36148E+05
 0.56599995E+02 -0.36816E+05
 0.56649998E+02 -0.36214E+05
 0.56699997E+02 -0.35050E+05
 0.56749996E+02 -0.33850E+05
 0.56799995E+02 -0.32768E+05
 0.56849995E+02 -0.32678E+05
 0.56899998E+02 -0.32916E+05
 0.56949997E+02 -0.32181E+05
 0.56999996E+02 -0.31955E+05
 0.57049995E+02 -0.31842E+05
 0.57099995E+02 -0.32262E+05
 0.57149998E+02 -0.33873E+05
 0.57199997E+02 -0.35065E+05
 0.57249996E+02 -0.35391E+05
 0.57299995E+02 -0.35424E+05
 0.57349995E+02 -0.34494E+05
 0.57399998E+02 -0.32750E+05
 0.57449997E+02 -0.32162E+05
 0.57499996E+02 -0.32107E+05
 0.57549995E+02 -0.32435E+05
 0.57599995E+02 -0.32887E+05
 0.57649998E+02 -0.32966E+05
 0.57699997E+02 -0.33290E+05
 0.57749996E+02 -0.33513E+05
 0.57799995E+02 -0.34059E+05
 0.57849995E+02 -0.34450E+05
 0.57899998E+02 -0.34085E+05
 0.57949997E+02 -0.33920E+05
 0.57999996E+02 -0.34594E+05
 0.58049995E+02 -0.36001E+05
 0.58099995E+02 -0.37274E+05
 0.58149998E+02 -0.37610E+05
 0.58199997E+02 -0.37159E+05
 0.58249996E+02 -0.36461E+05
 0.58299995E+02 -0.35609E+05
 0.58349995E+02 -0.34864E+05
 0.58399998E+02 -0.34242E+05
 0.58449997E+02 -0.33065E+05
 0.58499996E+02 -0.31635E+05
 0.58549995E+02 -0.31245E+05
 0.58599995E+02 -0.31723E+05
 0.58649998E+02 -0.32054E+05
 0.58699997E+02 -0.31857E+05
 0.58749996E+02 -0.31329E+05
 0.58799995E+02 -0.31086E+05
 0.58849995E+02 -0.30787E+05
 0.58899998E+02 -0.30832E+05
 0.58949997E+02 -0.31281E+05
 0.58999996E+02 -0.31959E+05
 0.59049995E+02 -0.32720E+05
 0.59099995E+02 -0.33490E+05
 0.59149998E+02 -0.33860E+05
 0.59199997E+02 -0.34178E+05
 0.59249996E+02 -0.35606E+05
 0.59299995E+02 -0.36789E+05
 0.59349995E+02 -0.36478E+05
 0.59399998E+02 -0.35132E+05
 0.59449997E+02 -0.34120E+05
 0.59499996E+02 -0.34133E+05
 0.59549995E+02 -0.34792E+05
 0.59599995E+02 -0.35223E+05
 0.59649998E+02 -0.35523E+05
 0.59699997E+02 -0.35323E+05
 0.59749996E+02 -0.34652E+05
 0.59799995E+02 -0.34508E+05
 0.59849995E+02 -0.34284E+05
 0.59899998E+02 -0.33960E+05
 0.59949997E+02 -0.33837E+05
 0.59999996E+02 -0.33420E+05
 0.60049995E+02 -0.32850E+05
 0.60099995E+02 -0.32278E+05
 0.60149998E+02 -0.31678E+05
 0.60199997E+02 -0.31659E+05
 0.60249996E+02 -0.32270E+05
 0.60299995E+02 -0.32628E+05
 0.60349995E+02 -0.32736E+05
 0.60399998E+02 -0.33692E+05
 0.60449997E+02 -0.34757E+05
 0.60499996E+02 -0.34837E+05
 0.60549995E+02 -0.34624E+05
 0.60599995E+02 -0.34392E+05
 0.60649998E+02 -0.33805E+05
 0.60699997E+02 -0.33531E+05
 0.60749996E+02 -0.33753E+05
 0.60799995E+02 -0.33839E+05
 0.60849995E+02 -0.33896E+05
 0.60899998E+02 -0.34056E+05
 0.60949997E+02 -0.34502E+05
 0.60999996E+02 -0.34598E+05
 0.61049995E+02 -0.34087E+05
 0.61099995E+02 -0.34034E+05
 0.61149998E+02 -0.33979E+05
 0.61199997E+02 -0.33512E+05
 0.61249996E+02 -0.33144E+05
 0.61299995E+02 -0.32977E+05
 0.61349995E+02 -0.33923E+05
 0.61399998E+02 -0.34841E+05
 0.61449997E+02 -0.34879E+05
 0.61499996E+02 -0.33863E+05
 0.61549995E+02 -0.32820E+05
 0.61599995E+02 -0.33279E+05
 0.61649998E+02 -0.33777E+05
 0.61699997E+02 -0.34036E+05
 0.61749996E+02 -0.33693E+05
 0.61799995E+02 -0.32973E+05
 0.61849995E+02 -0.32289E+05
 0.61899998E+02 -0.32530E+05
 0.61949997E+02 -0.33259E+05
 0.61999996E+02 -0.33816E+05
 0.62049995E+02 -0.34083E+05
 0.62099998E+02 -0.33792E+05
 0.62149994E+02 -0.33373E+05
 0.62199997E+02 -0.32753E+05
 0.62249992E+02 -0.32808E+05
 0.62299995E+02 -0.32528E+05
 0.62349998E+02 -0.32422E+05
 0.62399994E+02 -0.32852E+05
 0.62449997E+02 -0.33612E+05
 0.62499992E+02 -0.34512E+05
 0.62549995E+02 -0.34749E+05
 0.62599998E+02 -0.35055E+05
 0.62649994E+02 -0.35921E+05
 0.62699997E+02 -0.36548E+05
 0.62749992E+02 -0.36639E+05
 0.62799995E+02 -0.36339E+05
 0.62849998E+02 -0.35136E+05
 0.62899994E+02 -0.34297E+05
 0.62949997E+02 -0.34127E+05
 0.62999992E+02 -0.34379E+05
 0.63049995E+02 -0.33739E+05
 0.63099998E+02 -0.31737E+05
 0.63149994E+02 -0.30585E+05
 0.63199997E+02 -0.30861E+05
 0.63249992E+02 -0.32071E+05
 0.63299995E+02 -0.33253E+05
 0.63349998E+02 -0.33408E+05
 0.63399994E+02 -0.33484E+05
 0.63449997E+02 -0.33945E+05
 0.63499992E+02 -0.33930E+05
 0.63549995E+02 -0.33417E+05
 0.63599998E+02 -0.32809E+05
 0.63649994E+02 -0.32886E+05
 0.63699997E+02 -0.33408E+05
 0.63749992E+02 -0.33924E+05
 0.63799995E+02 -0.34535E+05
 0.63849998E+02 -0.35153E+05
 0.63899994E+02 -0.35514E+05
 0.63949997E+02 -0.35470E+05
 0.63999992E+02 -0.35252E+05
 0.64049995E+02 -0.34658E+05
 0.64099998E+02 -0.34053E+05
 0.64149994E+02 -0.33663E+05
 0.64199997E+02 -0.33231E+05
 0.64249992E+02 -0.32967E+05
 0.64299995E+02 -0.32695E+05
 0.64349998E+02 -0.32956E+05
 0.64399994E+02 -0.33180E+05
 0.64449997E+02 -0.33172E+05
 0.64499992E+02 -0.33309E+05
 0.64549995E+02 -0.33330E+05
 0.64599998E+02 -0.33370E+05
 0.64649994E+02 -0.33736E+05
 0.64699997E+02 -0.34490E+05
 0.64749992E+02 -0.34319E+05
 0.64799995E+02 -0.33737E+05
 0.64849998E+02 -0.33592E+05
 0.64899994E+02 -0.33739E+05
 0.64949997E+02 -0.33905E+05
 0.64999992E+02 -0.33463E+05
 0.65049995E+02 -0.32878E+05
 0.65099998E+02 -0.32587E+05
 0.65149994E+02 -0.32849E+05
 0.65199997E+02 -0.33438E+05
 0.65249992E+02 -0.33921E+05
 0.65299995E+02 -0.34735E+05
 0.65349998E+02 -0.35221E+05
 0.65399994E+02 -0.34605E+05
 0.65449997E+02 -0.33770E+05
 0.65499992E+02 -0.33608E+05
 0.65549995E+02 -0.34291E+05
 0.65599998E+02 -0.34672E+05
 0.65649994E+02 -0.34419E+05
 0.65699997E+02 -0.34159E+05
 0.65749992E+02 -0.33381E+05
 0.65799995E+02 -0.32722E+05
 0.65849998E+02 -0.32490E+05
 0.65899994E+02 -0.32328E+05
 0.65949997E+02 -0.32534E+05
 0.65999992E+02 -0.32495E+05
 0.66049995E+02 -0.32722E+05
 0.66099998E+02 -0.33446E+05
 0.66149994E+02 -0.33891E+05
 0.66199997E+02 -0.34313E+05
 0.66249992E+02 -0.34497E+05
 0.66299995E+02 -0.34614E+05
 0.66349998E+02 -0.34421E+05
 0.66399994E+02 -0.33785E+05
 0.66449997E+02 -0.33641E+05
 0.66499992E+02 -0.33907E+05
 0.66549995E+02 -0.34025E+05
 0.66599998E+02 -0.34392E+05
 0.66649994E+02 -0.34812E+05
 0.66699997E+02 -0.35100E+05
 0.66749992E+02 -0.35058E+05
 0.66799995E+02 -0.34914E+05
 0.66849998E+02 -0.34906E+05
 0.66899994E+02 -0.34981E+05
 0.66949997E+02 -0.34943E+05
 0.66999992E+02 -0.34310E+05
 0.67049995E+02 -0.33611E+05
 0.67099998E+02 -0.33272E+05
 0.67149994E+02 -0.32996E+05
 0.67199997E+02 -0.32873E+05
 0.67249992E+02 -0.33035E+05
 0.67299995E+02 -0.32667E+05
 0.67349998E+02 -0.32724E+05
 0.67399994E+02 -0.32834E+05
 0.67449997E+02 -0.32835E+05
 0.67499992E+02 -0.33003E+05
 0.67549995E+02 -0.32581E+05
 0.67599998E+02 -0.32167E+05
 0.67649994E+02 -0.32456E+05
 0.67699997E+02 -0.32955E+05
 0.67749992E+02 -0.33071E+05
 0.67799995E+02 -0.32985E+05
 0.67849998E+02 -0.33012E+05
 0.67899994E+02 -0.33417E+05
 0.67949997E+02 -0.33940E+05
 0.67999992E+02 -0.34125E+05
 0.68049995E+02 -0.34546E+05
 0.68099998E+02 -0.34883E+05
 0.68149994E+02 -0.35027E+05
 0.68199997E+02 -0.35466E+05
 0.68249992E+02 -0.35840E+05
 0.68299995E+02 -0.35772E+05
 0.68349998E+02 -0.35017E+05
 0.68399994E+02 -0.34418E+05
 0.68449997E+02 -0.33685E+05
 0.68499992E+02 -0.33045E+05
 0.68549995E+02 -0.32574E+05
 0.68599998E+02 -0.32592E+05
 0.68649994E+02 -0.33061E+05
 0.68699997E+02 -0.33322E+05
 0.68749992E+02 -0.33880E+05
 0.68799995E+02 -0.34291E+05
 0.68849998E+02 -0.34181E+05
 0.68899994E+02 -0.34280E+05
 0.68949997E+02 -0.34470E+05
 0.68999992E+02 -0.34015E+05
 0.69049995E+02 -0.33217E+05
 0.69099998E+02 -0.32941E+05
 0.69149994E+02 -0.33295E+05
 0.69199997E+02 -0.33715E+05
 0.69249992E+02 -0.33717E+05
 0.69299995E+02 -0.33095E+05
 0.69349998E+02 -0.32495E+05
 0.69399994E+02 -0.32313E+05
 0.69449997E+02 -0.32509E+05
 0.69499992E+02 -0.32797E+05
 0.69549995E+02 -0.33382E+05
 0.69599998E+02 -0.34432E+05
 0.69649994E+02 -0.35677E+05
 0.69699997E+02 -0.36053E+05
 0.69749992E+02 -0.35791E+05
 0.69799995E+02 -0.35740E+05
 0.69849998E+02 -0.35412E+05
 0.69899994E+02 -0.34822E+05
 0.69949997E+02 -0.34209E+05
 0.69999992E+02 -0.33638E+05
 0.70049995E+02 -0.33013E+05
 0.70099998E+02 -0.32831E+05
 0.70149994E+02 -0.32839E+05
 0.70199997E+02 -0.33013E+05
 0.70249992E+02 -0.33184E+05
 0.70299995E+02 -0.33288E+05
 0.70349998E+02 -0.33261E+05
 0.70399994E+02 -0.33088E+05
 0.70449997E+02 -0.33011E+05
 0.70499992E+02 -0.32727E+05
 0.70549995E+02 -0.32461E+05
 0.70599998E+02 -0.32223E+05
 0.70649994E+02 -0.32221E+05
 0.70699997E+02 -0.32615E+05
 0.70749992E+02 -0.33231E+05
 0.70799995E+02 -0.33969E+05
 0.70849998E+02 -0.34687E+05
 0.70899994E+02 -0.35013E+05
 0.70949997E+02 -0.34854E+05
 0.70999992E+02 -0.34649E+05
 0.71049995E+02 -0.34831E+05
 0.71099998E+02 -0.35200E+05
 0.71149994E+02 -0.35163E+05
 0.71199997E+02 -0.34566E+05
 0.71249992E+02 -0.34075E+05
 0.71299995E+02 -0.33787E+05
 0.71349998E+02 -0.33619E+05
 0.71399994E+02 -0.33680E+05
 0.71449997E+02 -0.33640E+05
 0.71499992E+02 -0.33765E+05
 0.71549995E+02 -0.34122E+05
 0.71599998E+02 -0.34379E+05
 0.71649994E+02 -0.34262E+05
 0.71699997E+02 -0.33767E+05
 0.71749992E+02 -0.33198E+05
 0.71799995E+02 -0.32758E+05
 0.71849998E+02 -0.32575E+05
 0.71899994E+02 -0.32780E+05
 0.71949997E+02 -0.33471E+05
 0.71999992E+02 -0.34149E+05
 0.72049995E+02 -0.34640E+05
 0.72099998E+02 -0.34844E+05
 0.72149994E+02 -0.34690E+05
 0.72199997E+02 -0.34557E+05
 0.72249992E+02 -0.34153E+05
 0.72299995E+02 -0.33729E+05
 0.72349998E+02 -0.33718E+05
 0.72399994E+02 -0.33944E+05
 0.72449997E+02 -0.34004E+05
 0.72499992E+02 -0.33732E+05
 0.72549995E+02 -0.33616E+05
 0.72599998E+02 -0.33684E+05
 0.72649994E+02 -0.33545E+05
 0.72699997E+02 -0.33497E+05
 0.72749992E+02 -0.32904E+05
 0.72799995E+02 -0.31996E+05
 0.72849998E+02 -0.31757E+05
 0.72899994E+02 -0.31879E+05
 0.72949997E+02 -0.32028E+05
 0.72999992E+02 -0.31726E+05
 0.73049995E+02 -0.31906E+05
 0.73099998E+02 -0.32876E+05
 0.73149994E+02 -0.33410E+05
 0.73199997E+02 -0.33909E+05
 0.73249992E+02 -0.34505E+05
 0.73299995E+02 -0.34539E+05
 0.73349998E+02 -0.34653E+05
 0.73399994E+02 -0.34635E+05
 0.73449997E+02 -0.34557E+05
 0.73499992E+02 -0.34661E+05
 0.73549995E+02 -0.34688E+05
 0.73599998E+02 -0.34978E+05
 0.73649994E+02 -0.35229E+05
 0.73699997E+02 -0.35470E+05
 0.73749992E+02 -0.35826E+05
 0.73799995E+02 -0.35884E+05
 0.73849998E+02 -0.35549E+05
 0.73899994E+02 -0.35097E+05
 0.73949997E+02 -0.34447E+05
 0.73999992E+02 -0.33953E+05
 0.74049995E+02 -0.33418E+05
 0.74099998E+02 -0.33102E+05
 0.74149994E+02 -0.33196E+05
 0.74199997E+02 -0.33099E+05
 0.74249992E+02 -0.32956E+05
 0.74299995E+02 -0.32809E+05
 0.74349998E+02 -0.32805E+05
 0.74399994E+02 -0.32594E+05
 0.74449997E+02 -0.32293E+05
 0.74499992E+02 -0.31907E+05
 0.74549995E+02 -0.31760E+05
 0.74599998E+02 -0.32004E+05
 0.74649994E+02 -0.32486E+05
 0.74699997E+02 -0.32990E+05
 0.74749992E+02 -0.33165E+05
 0.74799995E+02 -0.33460E+05
 0.74849998E+02 -0.33919E+05
 0.74899994E+02 -0.34225E+05
 0.74949997E+02 -0.34291E+05
 0.74999992E+02 -0.34246E+05
 0.75049995E+02 -0.34029E+05
 0.75099998E+02 -0.33788E+05
 0.75149994E+02 -0.33639E+05
 0.75199997E+02 -0.33877E+05
 0.75249992E+02 -0.34390E+05
 0.75299995E+02 -0.34713E+05
 0.75349998E+02 -0.34914E+05
 0.75399994E+02 -0.34892E+05
 0.75449997E+02 -0.34693E+05
 0.75499992E+02 -0.34395E+05
 0.75549995E+02 -0.34088E+05
 0.75599998E+02 -0.34114E+05
 0.75649994E+02 -0.34193E+05
 0.75699997E+02 -0.34176E+05
 0.75749992E+02 -0.34208E+05
 0.75799995E+02 -0.34285E+05
 0.75849998E+02 -0.34212E+05
 0.75899994E+02 -0.34210E+05
 0.75949997E+02 -0.34137E+05
 0.75999992E+02 -0.33839E+05
 0.76049995E+02 -0.33358E+05
 0.76099998E+02 -0.32841E+05
 0.76149994E+02 -0.32564E+05
 0.76199997E+02 -0.32282E+05
 0.76249992E+02 -0.32057E+05
 0.76299995E+02 -0.31981E+05
 0.76349998E+02 -0.32069E+05
 0.76399994E+02 -0.32386E+05
 0.76449997E+02 -0.32898E+05
 0.76499992E+02 -0.33558E+05
 0.76549995E+02 -0.34167E+05
 0.76599998E+02 -0.34488E+05
 0.76649994E+02 -0.34627E+05
 0.76699997E+02 -0.34662E+05
 0.76749992E+02 -0.34740E+05
 0.76799995E+02 -0.34702E+05
 0.76849998E+02 -0.34456E+05
 0.76899994E+02 -0.34414E+05
 0.76949997E+02 -0.34648E+05
 0.76999992E+02 -0.34589E+05
 0.77049995E+02 -0.34286E+05
 0.77099998E+02 -0.34198E+05
 0.77149994E+02 -0.34011E+05
 0.77199997E+02 -0.33843E+05
 0.77249992E+02 -0.33844E+05
 0.77299995E+02 -0.33699E+05
 0.77349998E+02 -0.33443E+05
 0.77399994E+02 -0.33370E+05
 0.77449997E+02 -0.33452E+05
 0.77499992E+02 -0.33544E+05
 0.77549995E+02 -0.33605E+05
 0.77599998E+02 -0.33461E+05
 0.77649994E+02 -0.33303E+05
 0.77699997E+02 -0.33449E+05
 0.77749992E+02 -0.33932E+05
 0.77799995E+02 -0.34007E+05
 0.77849998E+02 -0.33659E+05
 0.77899994E+02 -0.33422E+05
 0.77949997E+02 -0.33222E+05
 0.77999992E+02 -0.33322E+05
 0.78049995E+02 -0.33519E+05
 0.78099998E+02 -0.33421E+05
 0.78149994E+02 -0.33447E+05
 0.78199997E+02 -0.33584E+05
 0.78249992E+02 -0.33780E+05
 0.78299995E+02 -0.34016E+05
 0.78349998E+02 -0.33908E+05
 0.78399994E+02 -0.33364E+05
 0.78449997E+02 -0.32993E+05
 0.78499992E+02 -0.33048E+05
 0.78549995E+02 -0.33045E+05
 0.78599998E+02 -0.33132E+05
 0.78649994E+02 -0.33450E+05
 0.78699997E+02 -0.34087E+05
 0.78749992E+02 -0.34603E+05
 0.78799995E+02 -0.34694E+05
 0.78849998E+02 -0.34734E+05
 0.78899994E+02 -0.34777E+05
 0.78949997E+02 -0.34818E+05
 0.78999992E+02 -0.34861E+05
 0.79049995E+02 -0.34701E+05
 0.79099998E+02 -0.34452E+05
 0.79149994E+02 -0.34195E+05
 0.79199997E+02 -0.34132E+05
 0.79249992E+02 -0.34131E+05
 0.79299995E+02 -0.33908E+05
 0.79349998E+02 -0.33719E+05
 0.79399994E+02 -0.33458E+05
 0.79449997E+02 -0.33300E+05
 0.79499992E+02 -0.33466E+05
 0.79549995E+02 -0.33589E+05
 0.79599998E+02 -0.33936E+05
 0.79649994E+02 -0.34167E+05
 0.79699997E+02 -0.34216E+05
 0.79749992E+02 -0.34188E+05
 0.79799995E+02 -0.33962E+05
 0.79849998E+02 -0.33669E+05
 0.79899994E+02 -0.33056E+05
 0.79949997E+02 -0.32534E+05
 0.79999992E+02 -0.32156E+05
 0.80049995E+02 -0.32253E+05
 0.80099998E+02 -0.32227E+05
 0.80149994E+02 -0.32108E+05
 0.80199997E+02 -0.32578E+05
 0.80249992E+02 -0.33124E+05
 0.80299995E+02 -0.33455E+05
 0.80349998E+02 -0.33878E+05
 0.80399994E+02 -0.34278E+05
 0.80449997E+02 -0.34031E+05
 0.80499992E+02 -0.34388E+05
 0.80549995E+02 -0.34890E+05
 0.80599998E+02 -0.34337E+05
 0.80649994E+02 -0.34026E+05
 0.80699997E+02 -0.34222E+05
 0.80749992E+02 -0.34266E+05
 0.80799995E+02 -0.34405E+05
 0.80849998E+02 -0.34698E+05
 0.80899994E+02 -0.34701E+05
 0.80949997E+02 -0.34631E+05
 0.80999992E+02 -0.34514E+05
 0.81049995E+02 -0.34147E+05
 0.81099998E+02 -0.33765E+05
 0.81149994E+02 -0.33123E+05
 0.81199997E+02 -0.32733E+05
 0.81249992E+02 -0.32790E+05
 0.81299995E+02 -0.32789E+05
 0.81349998E+02 -0.33129E+05
 0.81399994E+02 -0.33301E+05
 0.81449997E+02 -0.33189E+05
 0.81499992E+02 -0.33188E+05
 0.81549995E+02 -0.33364E+05
 0.81599998E+02 -0.33537E+05
 0.81649994E+02 -0.33652E+05
 0.81699997E+02 -0.33700E+05
 0.81749992E+02 -0.33588E+05
 0.81799995E+02 -0.33928E+05
 0.81849998E+02 -0.34288E+05
 0.81899994E+02 -0.34311E+05
 0.81949997E+02 -0.34647E+05
 0.81999992E+02 -0.34714E+05
 0.82049995E+02 -0.34468E+05
 0.82099998E+02 -0.34413E+05
 0.82149994E+02 -0.34247E+05
 0.82199997E+02 -0.34254E+05
 0.82249992E+02 -0.34431E+05
 0.82299995E+02 -0.34542E+05
 0.82349998E+02 -0.34548E+05
 0.82399994E+02 -0.34237E+05
 0.82449997E+02 -0.34085E+05
 0.82499992E+02 -0.33823E+05
 0.82549995E+02 -0.33350E+05
 0.82599998E+02 -0.33052E+05
 0.82649994E+02 -0.33002E+05
 0.82699997E+02 -0.33006E+05
 0.82749992E+02 -0.32807E+05
 0.82799995E+02 -0.33170E+05
 0.82849998E+02 -0.33321E+05
 0.82899994E+02 -0.33186E+05
 0.82949997E+02 -0.33139E+05
 0.82999992E+02 -0.33305E+05
 0.83049995E+02 -0.33231E+05
 0.83099998E+02 -0.33092E+05
 0.83149994E+02 -0.33385E+05
 0.83199997E+02 -0.33488E+05
 0.83249992E+02 -0.33693E+05
 0.83299995E+02 -0.33966E+05
 0.83349998E+02 -0.33976E+05
 0.83399994E+02 -0.33804E+05
 0.83449997E+02 -0.33970E+05
 0.83499992E+02 -0.34135E+05
 0.83549995E+02 -0.34227E+05
 0.83599998E+02 -0.33991E+05
 0.83649994E+02 -0.33970E+05
 0.83699997E+02 -0.34037E+05
 0.83749992E+02 -0.33999E+05
 0.83799995E+02 -0.34351E+05
 0.83849998E+02 -0.34019E+05
 0.83899994E+02 -0.33874E+05
 0.83949997E+02 -0.33903E+05
 0.83999992E+02 -0.33861E+05
 0.84049995E+02 -0.33783E+05
 0.84099998E+02 -0.33628E+05
 0.84149994E+02 -0.33948E+05
 0.84199997E+02 -0.33850E+05
 0.84249992E+02 -0.33721E+05
 0.84299995E+02 -0.33629E+05
 0.84349998E+02 -0.33479E+05
 0.84399994E+02 -0.33621E+05
 0.84449997E+02 -0.33580E+05
 0.84499992E+02 -0.33284E+05
 0.84549995E+02 -0.32917E+05
 0.84599998E+02 -0.32852E+05
 0.84649994E+02 -0.33072E+05
 0.84699997E+02 -0.33275E+05
 0.84749992E+02 -0.33266E+05
 0.84799995E+02 -0.33418E+05
 0.84849998E+02 -0.33720E+05
 0.84899994E+02 -0.33970E+05
 0.84949997E+02 -0.34180E+05
 0.84999992E+02 -0.34258E+05
 0.85049995E+02 -0.34269E+05
 0.85099998E+02 -0.34296E+05
 0.85149994E+02 -0.34566E+05
 0.85199997E+02 -0.34247E+05
 0.85249992E+02 -0.33860E+05
 0.85299995E+02 -0.33963E+05
 0.85349998E+02 -0.34069E+05
 0.85399994E+02 -0.34204E+05
 0.85449997E+02 -0.34268E+05
 0.85499992E+02 -0.34099E+05
 0.85549995E+02 -0.33691E+05
 0.85599998E+02 -0.33751E+05
 0.85649994E+02 -0.33957E+05
 0.85699997E+02 -0.33969E+05
 0.85749992E+02 -0.33984E+05
 0.85799995E+02 -0.33833E+05
 0.85849998E+02 -0.33619E+05
 0.85899994E+02 -0.33497E+05
 0.85949997E+02 -0.33411E+05
 0.85999992E+02 -0.33316E+05
 0.86049995E+02 -0.33434E+05
 0.86099998E+02 -0.33483E+05
 0.86149994E+02 -0.33329E+05
 0.86199997E+02 -0.33302E+05
 0.86249992E+02 -0.33217E+05
 0.86299995E+02 -0.33137E+05
 0.86349998E+02 -0.33101E+05
 0.86399994E+02 -0.33181E+05
 0.86449997E+02 -0.33128E+05
 0.86499992E+02 -0.33136E+05
 0.86549995E+02 -0.33569E+05
 0.86599998E+02 -0.33773E+05
 0.86649994E+02 -0.33802E+05
 0.86699997E+02 -0.33891E+05
 0.86749992E+02 -0.34316E+05
 0.86799995E+02 -0.34748E+05
 0.86849998E+02 -0.34938E+05
 0.86899994E+02 -0.35142E+05
 0.86949997E+02 -0.35188E+05
 0.86999992E+02 -0.35006E+05
 0.87049995E+02 -0.34671E+05
 0.87099998E+02 -0.34374E+05
 0.87149994E+02 -0.34136E+05
 0.87199997E+02 -0.33847E+05
 0.87249992E+02 -0.33613E+05
 0.87299995E+02 -0.33494E+05
 0.87349998E+02 -0.33340E+05
 0.87399994E+02 -0.33255E+05
 0.87449997E+02 -0.33113E+05
 0.87499992E+02 -0.33158E+05
 0.87549995E+02 -0.33259E+05
 0.87599991E+02 -0.33093E+05
 0.87649994E+02 -0.33055E+05
 0.87699997E+02 -0.32838E+05
 0.87749992E+02 -0.32586E+05
 0.87799995E+02 -0.32627E+05
 0.87849991E+02 -0.32663E+05
 0.87899994E+02 -0.32938E+05
 0.87949997E+02 -0.33338E+05
 0.87999992E+02 -0.33499E+05
 0.88049995E+02 -0.33659E+05
 0.88099991E+02 -0.34018E+05
 0.88149994E+02 -0.34379E+05
 0.88199997E+02 -0.34593E+05
 0.88249992E+02 -0.34825E+05
 0.88299995E+02 -0.35022E+05
 0.88349991E+02 -0.34822E+05
 0.88399994E+02 -0.34733E+05
 0.88449997E+02 -0.34662E+05
 0.88499992E+02 -0.34521E+05
 0.88549995E+02 -0.34411E+05
 0.88599991E+02 -0.34235E+05
 0.88649994E+02 -0.34219E+05
 0.88699997E+02 -0.34052E+05
 0.88749992E+02 -0.33945E+05
 0.88799995E+02 -0.33615E+05
 0.88849991E+02 -0.33381E+05
 0.88899994E+02 -0.33222E+05
 0.88949997E+02 -0.33012E+05
 0.88999992E+02 -0.32992E+05
 0.89049995E+02 -0.33055E+05
 0.89099991E+02 -0.33122E+05
 0.89149994E+02 -0.32980E+05
 0.89199997E+02 -0.32925E+05
 0.89249992E+02 -0.32805E+05
 0.89299995E+02 -0.32766E+05
 0.89349991E+02 -0.32920E+05
 0.89399994E+02 -0.33071E+05
 0.89449997E+02 -0.33417E+05
 0.89499992E+02 -0.33781E+05
 0.89549995E+02 -0.34071E+05
 0.89599991E+02 -0.34215E+05
 0.89649994E+02 -0.34140E+05
 0.89699997E+02 -0.34137E+05
 0.89749992E+02 -0.34141E+05
 0.89799995E+02 -0.34031E+05
 0.89849991E+02 -0.34149E+05
 0.89899994E+02 -0.34347E+05
 0.89949997E+02 -0.34453E+05
 0.89999992E+02 -0.34408E+05
 0.90049995E+02 -0.34433E+05
 0.90099991E+02 -0.34563E+05
 0.90149994E+02 -0.34353E+05
 0.90199997E+02 -0.34097E+05
 0.90249992E+02 -0.33738E+05
 0.90299995E+02 -0.33400E+05
 0.90349991E+02 -0.33381E+05
 0.90399994E+02 -0.33533E+05
 0.90449997E+02 -0.33680E+05
 0.90499992E+02 -0.33810E+05
 0.90549995E+02 -0.33877E+05
 0.90599991E+02 -0.34070E+05
 0.90649994E+02 -0.34001E+05
 0.90699997E+02 -0.33597E+05
 0.90749992E+02 -0.33426E+05
 0.90799995E+02 -0.33317E+05
 0.90849991E+02 -0.33265E+05
 0.90899994E+02 -0.33110E+05
 0.90949997E+02 -0.33121E+05
 0.90999992E+02 -0.33126E+05
 0.91049995E+02 -0.33071E+05
 0.91099991E+02 -0.33182E+05
 0.91149994E+02 -0.33092E+05
 0.91199997E+02 -0.33148E+05
 0.91249992E+02 -0.33329E+05
 0.91299995E+02 -0.33341E+05
 0.91349991E+02 -0.33696E+05
 0.91399994E+02 -0.34049E+05
 0.91449997E+02 -0.34275E+05
 0.91499992E+02 -0.34550E+05
 0.91549995E+02 -0.34439E+05
 0.91599991E+02 -0.34497E+05
 0.91649994E+02 -0.34517E+05
 0.91699997E+02 -0.34385E+05
 0.91749992E+02 -0.34443E+05
 0.91799995E+02 -0.34395E+05
 0.91849991E+02 -0.34255E+05
 0.91899994E+02 -0.34061E+05
 0.91949997E+02 -0.34026E+05
 0.91999992E+02 -0.34085E+05
 0.92049995E+02 -0.33776E+05
 0.92099991E+02 -0.33530E+05
 0.92149994E+02 -0.33217E+05
 0.92199997E+02 -0.32777E+05
 0.92249992E+02 -0.32727E+05
 0.92299995E+02 -0.32861E+05
 0.92349991E+02 -0.33272E+05
 0.92399994E+02 -0.33517E+05
 0.92449997E+02 -0.33853E+05
 0.92499992E+02 -0.34045E+05
 0.92549995E+02 -0.34090E+05
 0.92599991E+02 -0.34078E+05
 0.92649994E+02 -0.33851E+05
 0.92699997E+02 -0.33892E+05
 0.92749992E+02 -0.33904E+05
 0.92799995E+02 -0.33841E+05
 0.92849991E+02 -0.33807E+05
 0.92899994E+02 -0.33998E+05
 0.92949997E+02 -0.34213E+05
 0.92999992E+02 -0.34235E+05
 0.93049995E+02 -0.34193E+05
 0.93099991E+02 -0.34090E+05
 0.93149994E+02 -0.33827E+05
 0.93199997E+02 -0.33769E+05
 0.93249992E+02 -0.33833E+05
 0.93299995E+02 -0.33856E+05
 0.93349991E+02 -0.33784E+05
 0.93399994E+02 -0.33695E+05
 0.93449997E+02 -0.33637E+05
 0.93499992E+02 -0.33430E+05
 0.93549995E+02 -0.33239E+05
 0.93599991E+02 -0.33157E+05
 0.93649994E+02 -0.33089E+05
 0.93699997E+02 -0.33075E+05
 0.93749992E+02 -0.33303E+05
 0.93799995E+02 -0.33622E+05
 0.93849991E+02 -0.33873E+05
 0.93899994E+02 -0.34176E+05
 0.93949997E+02 -0.34545E+05
 0.93999992E+02 -0.34608E+05
 0.94049995E+02 -0.34616E+05
 0.94099991E+02 -0.34523E+05
 0.94149994E+02 -0.34040E+05
 0.94199997E+02 -0.33921E+05
 0.94249992E+02 -0.33912E+05
 0.94299995E+02 -0.33551E+05
 0.94349991E+02 -0.33382E+05
 0.94399994E+02 -0.33355E+05
 0.94449997E+02 -0.33127E+05
 0.94499992E+02 -0.33016E+05
 0.94549995E+02 -0.33201E+05
 0.94599991E+02 -0.33283E+05
 0.94649994E+02 -0.33288E+05
 0.94699997E+02 -0.33492E+05
 0.94749992E+02 -0.33763E+05
 0.94799995E+02 -0.33982E+05
 0.94849991E+02 -0.34022E+05
 0.94899994E+02 -0.33863E+05
 0.94949997E+02 -0.33636E+05
 0.94999992E+02 -0.33573E+05
 0.95049995E+02 -0.33564E+05
 0.95099991E+02 -0.33456E+05
 0.95149994E+02 -0.33228E+05
 0.95199997E+02 -0.33364E+05
 0.95249992E+02 -0.33337E+05
 0.95299995E+02 -0.33484E+05
 0.95349991E+02 -0.34196E+05
 0.95399994E+02 -0.34175E+05
 0.95449997E+02 -0.34367E+05
 0.95499992E+02 -0.34558E+05
 0.95549995E+02 -0.34382E+05
 0.95599991E+02 -0.34495E+05
 0.95649994E+02 -0.34172E+05
 0.95699997E+02 -0.33795E+05
 0.95749992E+02 -0.33865E+05
 0.95799995E+02 -0.33759E+05
 0.95849991E+02 -0.33536E+05
 0.95899994E+02 -0.33639E+05
 0.95949997E+02 -0.33588E+05
 0.95999992E+02 -0.33451E+05
 0.96049995E+02 -0.33652E+05
 0.96099991E+02 -0.33675E+05
 0.96149994E+02 -0.33538E+05
 0.96199997E+02 -0.33601E+05
 0.96249992E+02 -0.33507E+05
 0.96299995E+02 -0.33532E+05
 0.96349991E+02 -0.33885E+05
 0.96399994E+02 -0.33742E+05
 0.96449997E+02 -0.33604E+05
 0.96499992E+02 -0.34010E+05
 0.96549995E+02 -0.33979E+05
 0.96599991E+02 -0.33709E+05
 0.96649994E+02 -0.33898E+05
 0.96699997E+02 -0.33945E+05
 0.96749992E+02 -0.33952E+05
 0.96799995E+02 -0.34362E+05
 0.96849991E+02 -0.34492E+05
 0.96899994E+02 -0.34346E+05
 0.96949997E+02 -0.34566E+05
 0.96999992E+02 -0.34397E+05
 0.97049995E+02 -0.34403E+05
 0.97099991E+02 -0.34227E+05
 0.97149994E+02 -0.33627E+05
 0.97199997E+02 -0.33772E+05
 0.97249992E+02 -0.33544E+05
 0.97299995E+02 -0.33185E+05
 0.97349991E+02 -0.33337E+05
 0.97399994E+02 -0.33182E+05
 0.97449997E+02 -0.32998E+05
 0.97499992E+02 -0.33192E+05
 0.97549995E+02 -0.33171E+05
 0.97599991E+02 -0.33163E+05
 0.97649994E+02 -0.33154E+05
 0.97699997E+02 -0.33005E+05
 0.97749992E+02 -0.33091E+05
 0.97799995E+02 -0.33229E+05
 0.97849991E+02 -0.33178E+05
 0.97899994E+02 -0.33215E+05
 0.97949997E+02 -0.33192E+05
 0.97999992E+02 -0.33286E+05
