-0.20000000E+01  0.35378E+02
-0.19500000E+01  0.35211E+02
-0.19000000E+01  0.33889E+02
-0.18500000E+01  0.34269E+02
-0.18000000E+01  0.34450E+02
-0.17500000E+01  0.35326E+02
-0.17000000E+01  0.33871E+02
-0.16500001E+01  0.33645E+02
-0.16000000E+01  0.35599E+02
-0.15500000E+01  0.35458E+02
-0.15000000E+01  0.34915E+02
-0.14500000E+01  0.35841E+02
-0.14000001E+01  0.34607E+02
-0.13500000E+01  0.33291E+02
-0.13000001E+01  0.35043E+02
-0.12500000E+01  0.35571E+02
-0.12000000E+01  0.34760E+02
-0.11500001E+01  0.33576E+02
-0.11000000E+01  0.34629E+02
-0.10500001E+01  0.34012E+02
-0.10000000E+01  0.33991E+02
-0.95000005E+00  0.34518E+02
-0.90000010E+00  0.34486E+02
-0.85000002E+00  0.34752E+02
-0.80000007E+00  0.33184E+02
-0.75000012E+00  0.33011E+02
-0.70000005E+00  0.35438E+02
-0.65000010E+00  0.33731E+02
-0.60000014E+00  0.33620E+02
-0.55000007E+00  0.34733E+02
-0.50000012E+00  0.35126E+02
-0.45000005E+00  0.35898E+02
-0.40000010E+00  0.35162E+02
-0.35000014E+00  0.34357E+02
-0.30000007E+00  0.34736E+02
-0.25000012E+00  0.35092E+02
-0.20000005E+00  0.33494E+02
-0.15000010E+00  0.34606E+02
-0.10000014E+00  0.35941E+02
-0.50000072E-01  0.34902E+02
-0.11920929E-06  0.33899E+02
 0.49999952E-01  0.33783E+02
 0.99999905E-01  0.34771E+02
 0.14999986E+00  0.35240E+02
 0.19999981E+00  0.33885E+02
 0.24999976E+00  0.33894E+02
 0.29999995E+00  0.34018E+02
 0.34999990E+00  0.35247E+02
 0.39999986E+00  0.34187E+02
 0.44999981E+00  0.34729E+02
 0.49999976E+00  0.35190E+02
 0.54999995E+00  0.34602E+02
 0.59999990E+00  0.35362E+02
 0.64999986E+00  0.34774E+02
 0.69999981E+00  0.35221E+02
 0.74999976E+00  0.34096E+02
 0.79999971E+00  0.34630E+02
 0.84999990E+00  0.34240E+02
 0.89999986E+00  0.33907E+02
 0.94999981E+00  0.35236E+02
 0.99999976E+00  0.34428E+02
 0.10499997E+01  0.34038E+02
 0.10999999E+01  0.35004E+02
 0.11499999E+01  0.33978E+02
 0.11999998E+01  0.34178E+02
 0.12499998E+01  0.35196E+02
 0.12999997E+01  0.34693E+02
 0.13499999E+01  0.34152E+02
 0.13999999E+01  0.33762E+02
 0.14499998E+01  0.35976E+02
 0.14999998E+01  0.35766E+02
 0.15499997E+01  0.33380E+02
 0.15999999E+01  0.34711E+02
 0.16499999E+01  0.35454E+02
 0.16999998E+01  0.35178E+02
 0.17499998E+01  0.34751E+02
 0.17999997E+01  0.34547E+02
 0.18499997E+01  0.35563E+02
 0.18999999E+01  0.33738E+02
 0.19499998E+01  0.34309E+02
 0.19999998E+01  0.36276E+02
 0.20499997E+01  0.35291E+02
 0.20999999E+01  0.35170E+02
 0.21499996E+01  0.34623E+02
 0.21999998E+01  0.34437E+02
 0.22499995E+01  0.35306E+02
 0.22999997E+01  0.34335E+02
 0.23499999E+01  0.34835E+02
 0.23999996E+01  0.34674E+02
 0.24499998E+01  0.34383E+02
 0.24999995E+01  0.34897E+02
 0.25499997E+01  0.33609E+02
 0.25999999E+01  0.34118E+02
 0.26499996E+01  0.35252E+02
 0.26999998E+01  0.35361E+02
 0.27499995E+01  0.34610E+02
 0.27999997E+01  0.35305E+02
 0.28499999E+01  0.35079E+02
 0.28999996E+01  0.34021E+02
 0.29499998E+01  0.33642E+02
 0.29999995E+01  0.34252E+02
 0.30499997E+01  0.34525E+02
 0.30999999E+01  0.35332E+02
 0.31499996E+01  0.35317E+02
 0.31999998E+01  0.35040E+02
 0.32499995E+01  0.35232E+02
 0.32999997E+01  0.34122E+02
 0.33499999E+01  0.35240E+02
 0.33999996E+01  0.34411E+02
 0.34499998E+01  0.36362E+02
 0.34999995E+01  0.36374E+02
 0.35499997E+01  0.33510E+02
 0.35999994E+01  0.34883E+02
 0.36499996E+01  0.35105E+02
 0.36999998E+01  0.34978E+02
 0.37499995E+01  0.35610E+02
 0.37999997E+01  0.34634E+02
 0.38499994E+01  0.35097E+02
 0.38999996E+01  0.34407E+02
 0.39499998E+01  0.35436E+02
 0.39999995E+01  0.35042E+02
 0.40499997E+01  0.33696E+02
 0.40999994E+01  0.34700E+02
 0.41499996E+01  0.33569E+02
 0.41999998E+01  0.34513E+02
 0.42499995E+01  0.34398E+02
 0.42999997E+01  0.33877E+02
 0.43499994E+01  0.34194E+02
 0.43999996E+01  0.33817E+02
 0.44499998E+01  0.35181E+02
 0.44999995E+01  0.35612E+02
 0.45499997E+01  0.34423E+02
 0.45999994E+01  0.34354E+02
 0.46499996E+01  0.34723E+02
 0.46999998E+01  0.35238E+02
 0.47499995E+01  0.35098E+02
 0.47999997E+01  0.34169E+02
 0.48499994E+01  0.33572E+02
 0.48999996E+01  0.34111E+02
 0.49499998E+01  0.34658E+02
 0.49999995E+01  0.34399E+02
 0.50499997E+01  0.34658E+02
 0.50999994E+01  0.35660E+02
 0.51499996E+01  0.34032E+02
 0.51999998E+01  0.34041E+02
 0.52499995E+01  0.35650E+02
 0.52999997E+01  0.35733E+02
 0.53499994E+01  0.34734E+02
 0.53999996E+01  0.33788E+02
 0.54499993E+01  0.32971E+02
 0.54999995E+01  0.34087E+02
 0.55499997E+01  0.34340E+02
 0.55999994E+01  0.34073E+02
 0.56499996E+01  0.35227E+02
 0.56999993E+01  0.34232E+02
 0.57499995E+01  0.34601E+02
 0.57999997E+01  0.35036E+02
 0.58499994E+01  0.34866E+02
 0.58999996E+01  0.35195E+02
 0.59499993E+01  0.36026E+02
 0.59999995E+01  0.36055E+02
 0.60499992E+01  0.34768E+02
 0.60999994E+01  0.34456E+02
 0.61499996E+01  0.34495E+02
 0.61999998E+01  0.33721E+02
 0.62499990E+01  0.33831E+02
 0.62999992E+01  0.34132E+02
 0.63499994E+01  0.33723E+02
 0.63999996E+01  0.32981E+02
 0.64499998E+01  0.33340E+02
 0.64999990E+01  0.34132E+02
 0.65499992E+01  0.33484E+02
 0.65999994E+01  0.33752E+02
 0.66499996E+01  0.34294E+02
 0.66999998E+01  0.34472E+02
 0.67499990E+01  0.34863E+02
 0.67999992E+01  0.33713E+02
 0.68499994E+01  0.33940E+02
 0.68999996E+01  0.32821E+02
 0.69499998E+01  0.33841E+02
 0.69999990E+01  0.34048E+02
 0.70499992E+01  0.34048E+02
 0.70999994E+01  0.35377E+02
 0.71499996E+01  0.32633E+02
 0.71999998E+01  0.33898E+02
 0.72499990E+01  0.32599E+02
 0.72999992E+01  0.32397E+02
 0.73499994E+01  0.32427E+02
 0.73999996E+01  0.33457E+02
 0.74499998E+01  0.34857E+02
 0.74999990E+01  0.32373E+02
 0.75499992E+01  0.33982E+02
 0.75999994E+01  0.33170E+02
 0.76499996E+01  0.33507E+02
 0.76999998E+01  0.33579E+02
 0.77499990E+01  0.32031E+02
 0.77999992E+01  0.34066E+02
 0.78499994E+01  0.34968E+02
 0.78999996E+01  0.33353E+02
 0.79499998E+01  0.33163E+02
 0.79999990E+01  0.33254E+02
 0.80499992E+01  0.33183E+02
 0.80999994E+01  0.34155E+02
 0.81499996E+01  0.32746E+02
 0.81999998E+01  0.33574E+02
 0.82499990E+01  0.33401E+02
 0.82999992E+01  0.33464E+02
 0.83499994E+01  0.34302E+02
 0.83999996E+01  0.34054E+02
 0.84499998E+01  0.34368E+02
 0.84999990E+01  0.34116E+02
 0.85499992E+01  0.34702E+02
 0.85999994E+01  0.33145E+02
 0.86499996E+01  0.34550E+02
 0.86999998E+01  0.35106E+02
 0.87499990E+01  0.33996E+02
 0.87999992E+01  0.33986E+02
 0.88499994E+01  0.34210E+02
 0.88999996E+01  0.33813E+02
 0.89499998E+01  0.33606E+02
 0.89999990E+01  0.34634E+02
 0.90499992E+01  0.34616E+02
 0.90999994E+01  0.34793E+02
 0.91499996E+01  0.34401E+02
 0.91999989E+01  0.34474E+02
 0.92499990E+01  0.34308E+02
 0.92999992E+01  0.35652E+02
 0.93499994E+01  0.34388E+02
 0.93999996E+01  0.33448E+02
 0.94499989E+01  0.34247E+02
 0.94999990E+01  0.33509E+02
 0.95499992E+01  0.32490E+02
 0.95999994E+01  0.33272E+02
 0.96499996E+01  0.34323E+02
 0.96999989E+01  0.34322E+02
 0.97499990E+01  0.34304E+02
 0.97999992E+01  0.35195E+02
 0.98499994E+01  0.35685E+02
 0.98999996E+01  0.34807E+02
 0.99499989E+01  0.35018E+02
 0.99999990E+01  0.34795E+02
 0.10049999E+02  0.35323E+02
 0.10099999E+02  0.34586E+02
 0.10150000E+02  0.34194E+02
 0.10199999E+02  0.34543E+02
 0.10249999E+02  0.34697E+02
 0.10299999E+02  0.34893E+02
 0.10349999E+02  0.34144E+02
 0.10400000E+02  0.34006E+02
 0.10449999E+02  0.34778E+02
 0.10499999E+02  0.33976E+02
 0.10549999E+02  0.32889E+02
 0.10599999E+02  0.33246E+02
 0.10650000E+02  0.34003E+02
 0.10699999E+02  0.33405E+02
 0.10749999E+02  0.32586E+02
 0.10799999E+02  0.33310E+02
 0.10849999E+02  0.35489E+02
 0.10900000E+02  0.34082E+02
 0.10949999E+02  0.32992E+02
 0.10999999E+02  0.33867E+02
 0.11049999E+02  0.33762E+02
 0.11099999E+02  0.33839E+02
 0.11150000E+02  0.33390E+02
 0.11199999E+02  0.34571E+02
 0.11249999E+02  0.34662E+02
 0.11299999E+02  0.34861E+02
 0.11349999E+02  0.34130E+02
 0.11400000E+02  0.34157E+02
 0.11449999E+02  0.34031E+02
 0.11499999E+02  0.33448E+02
 0.11549999E+02  0.34144E+02
 0.11599999E+02  0.33964E+02
 0.11650000E+02  0.34546E+02
 0.11699999E+02  0.32849E+02
 0.11749999E+02  0.34807E+02
 0.11799999E+02  0.34703E+02
 0.11849999E+02  0.33428E+02
 0.11900000E+02  0.34964E+02
 0.11949999E+02  0.33655E+02
 0.11999999E+02  0.34113E+02
 0.12049999E+02  0.34172E+02
 0.12099999E+02  0.34313E+02
 0.12150000E+02  0.34201E+02
 0.12199999E+02  0.34898E+02
 0.12249999E+02  0.35238E+02
 0.12299999E+02  0.34080E+02
 0.12349999E+02  0.34152E+02
 0.12400000E+02  0.34160E+02
 0.12449999E+02  0.34423E+02
 0.12499999E+02  0.35832E+02
 0.12549999E+02  0.34986E+02
 0.12599999E+02  0.33810E+02
 0.12649999E+02  0.33880E+02
 0.12699999E+02  0.34088E+02
 0.12749999E+02  0.35137E+02
 0.12799999E+02  0.33365E+02
 0.12849999E+02  0.33753E+02
 0.12899999E+02  0.34137E+02
 0.12949999E+02  0.33364E+02
 0.12999999E+02  0.35295E+02
 0.13049999E+02  0.34247E+02
 0.13099999E+02  0.33800E+02
 0.13149999E+02  0.34507E+02
 0.13199999E+02  0.35199E+02
 0.13249999E+02  0.34426E+02
 0.13299999E+02  0.33732E+02
 0.13349999E+02  0.34710E+02
 0.13399999E+02  0.33910E+02
 0.13449999E+02  0.34196E+02
 0.13499999E+02  0.34345E+02
 0.13549999E+02  0.33905E+02
 0.13599999E+02  0.33910E+02
 0.13649999E+02  0.33887E+02
 0.13699999E+02  0.34546E+02
 0.13749999E+02  0.34400E+02
 0.13799999E+02  0.34695E+02
 0.13849999E+02  0.34736E+02
 0.13899999E+02  0.33502E+02
 0.13949999E+02  0.32893E+02
 0.13999999E+02  0.33624E+02
 0.14049999E+02  0.34071E+02
 0.14099998E+02  0.33231E+02
 0.14150000E+02  0.33913E+02
 0.14199999E+02  0.34674E+02
 0.14249998E+02  0.34498E+02
 0.14299999E+02  0.33237E+02
 0.14349998E+02  0.33938E+02
 0.14400000E+02  0.35239E+02
 0.14449999E+02  0.34165E+02
 0.14499998E+02  0.34646E+02
 0.14549999E+02  0.34346E+02
 0.14599998E+02  0.34220E+02
 0.14650000E+02  0.34637E+02
 0.14699999E+02  0.34851E+02
 0.14749998E+02  0.34935E+02
 0.14799999E+02  0.33991E+02
 0.14849998E+02  0.34417E+02
 0.14900000E+02  0.34971E+02
 0.14949999E+02  0.34824E+02
 0.14999998E+02  0.34163E+02
 0.15049999E+02  0.34521E+02
 0.15099998E+02  0.34657E+02
 0.15150000E+02  0.35347E+02
 0.15199999E+02  0.35273E+02
 0.15249998E+02  0.35720E+02
 0.15299999E+02  0.35840E+02
 0.15349998E+02  0.34562E+02
 0.15400000E+02  0.35285E+02
 0.15449999E+02  0.35012E+02
 0.15499998E+02  0.33747E+02
 0.15549999E+02  0.32944E+02
 0.15599998E+02  0.33865E+02
 0.15650000E+02  0.32823E+02
 0.15699999E+02  0.31747E+02
 0.15749998E+02  0.32632E+02
 0.15799999E+02  0.32957E+02
 0.15849998E+02  0.34148E+02
 0.15900000E+02  0.35230E+02
 0.15949999E+02  0.34523E+02
 0.15999998E+02  0.34893E+02
 0.16049999E+02  0.34834E+02
 0.16099998E+02  0.33985E+02
 0.16150000E+02  0.35439E+02
 0.16199999E+02  0.35297E+02
 0.16249998E+02  0.35637E+02
 0.16299999E+02  0.34610E+02
 0.16349998E+02  0.34837E+02
 0.16400000E+02  0.35025E+02
 0.16449999E+02  0.33903E+02
 0.16499998E+02  0.34524E+02
 0.16549999E+02  0.35627E+02
 0.16599998E+02  0.34876E+02
 0.16650000E+02  0.32820E+02
 0.16699999E+02  0.35333E+02
 0.16749998E+02  0.34836E+02
 0.16799999E+02  0.33309E+02
 0.16849998E+02  0.34615E+02
 0.16900000E+02  0.36041E+02
 0.16949999E+02  0.36087E+02
 0.16999998E+02  0.34012E+02
 0.17049999E+02  0.33685E+02
 0.17099998E+02  0.35326E+02
 0.17150000E+02  0.34375E+02
 0.17199999E+02  0.34546E+02
 0.17249998E+02  0.34255E+02
 0.17299999E+02  0.35712E+02
 0.17349998E+02  0.34693E+02
 0.17400000E+02  0.34171E+02
 0.17449999E+02  0.35029E+02
 0.17499998E+02  0.34075E+02
 0.17549999E+02  0.34931E+02
 0.17599998E+02  0.34779E+02
 0.17650000E+02  0.35581E+02
 0.17699999E+02  0.33835E+02
 0.17749998E+02  0.34810E+02
 0.17799999E+02  0.35775E+02
 0.17849998E+02  0.35400E+02
 0.17900000E+02  0.34328E+02
 0.17949999E+02  0.36167E+02
 0.17999998E+02  0.35828E+02
 0.18049999E+02  0.34261E+02
 0.18099998E+02  0.35905E+02
 0.18150000E+02  0.35035E+02
 0.18199999E+02  0.34974E+02
 0.18249998E+02  0.35397E+02
 0.18299999E+02  0.34693E+02
 0.18349998E+02  0.33264E+02
 0.18400000E+02  0.34488E+02
 0.18449999E+02  0.34788E+02
 0.18499998E+02  0.33575E+02
 0.18549999E+02  0.34754E+02
 0.18599998E+02  0.34672E+02
 0.18650000E+02  0.34273E+02
 0.18699999E+02  0.34987E+02
 0.18749998E+02  0.33914E+02
 0.18799999E+02  0.34216E+02
 0.18849998E+02  0.34660E+02
 0.18900000E+02  0.34817E+02
 0.18949999E+02  0.34865E+02
 0.18999998E+02  0.33906E+02
 0.19049999E+02  0.35158E+02
 0.19099998E+02  0.34297E+02
 0.19150000E+02  0.34617E+02
 0.19199999E+02  0.35184E+02
 0.19249998E+02  0.34683E+02
 0.19299999E+02  0.34676E+02
 0.19349998E+02  0.34158E+02
 0.19400000E+02  0.35037E+02
 0.19449999E+02  0.36562E+02
 0.19499998E+02  0.35666E+02
 0.19549999E+02  0.34837E+02
 0.19599998E+02  0.34225E+02
 0.19650000E+02  0.33746E+02
 0.19699999E+02  0.35932E+02
 0.19749998E+02  0.34650E+02
 0.19799999E+02  0.34091E+02
 0.19849998E+02  0.34445E+02
 0.19900000E+02  0.35652E+02
 0.19949999E+02  0.34959E+02
 0.19999998E+02  0.34647E+02
 0.20049999E+02  0.35500E+02
 0.20099998E+02  0.35290E+02
 0.20150000E+02  0.36289E+02
 0.20199999E+02  0.34677E+02
 0.20249998E+02  0.34793E+02
 0.20299999E+02  0.34061E+02
 0.20349998E+02  0.34264E+02
 0.20399998E+02  0.35109E+02
 0.20449999E+02  0.35208E+02
 0.20499998E+02  0.34900E+02
 0.20549999E+02  0.34192E+02
 0.20599998E+02  0.34247E+02
 0.20649998E+02  0.34352E+02
 0.20699999E+02  0.34674E+02
 0.20749998E+02  0.33746E+02
 0.20799999E+02  0.34156E+02
 0.20849998E+02  0.33175E+02
 0.20899998E+02  0.33403E+02
 0.20949999E+02  0.34632E+02
 0.20999998E+02  0.34225E+02
 0.21049999E+02  0.35080E+02
 0.21099998E+02  0.35717E+02
 0.21149998E+02  0.33901E+02
 0.21199999E+02  0.33054E+02
 0.21249998E+02  0.34554E+02
 0.21299999E+02  0.34443E+02
 0.21349998E+02  0.34547E+02
 0.21399998E+02  0.34737E+02
 0.21449999E+02  0.34303E+02
 0.21499998E+02  0.34301E+02
 0.21549999E+02  0.34396E+02
 0.21599998E+02  0.34142E+02
 0.21649998E+02  0.35208E+02
 0.21699999E+02  0.35559E+02
 0.21749998E+02  0.34013E+02
 0.21799999E+02  0.35219E+02
 0.21849998E+02  0.35660E+02
 0.21899998E+02  0.34763E+02
 0.21949999E+02  0.36323E+02
 0.21999998E+02  0.35767E+02
 0.22049999E+02  0.35497E+02
 0.22099998E+02  0.35633E+02
 0.22149998E+02  0.35007E+02
 0.22199999E+02  0.35201E+02
 0.22249998E+02  0.34976E+02
 0.22299999E+02  0.35450E+02
 0.22349998E+02  0.34229E+02
 0.22399998E+02  0.33898E+02
 0.22449999E+02  0.34108E+02
 0.22499998E+02  0.34154E+02
 0.22549999E+02  0.35690E+02
 0.22599998E+02  0.35415E+02
 0.22649998E+02  0.35279E+02
 0.22699999E+02  0.35328E+02
 0.22749998E+02  0.33743E+02
 0.22799999E+02  0.34242E+02
 0.22849998E+02  0.33504E+02
 0.22899998E+02  0.33526E+02
 0.22949999E+02  0.34805E+02
 0.22999998E+02  0.34972E+02
 0.23049999E+02  0.35362E+02
 0.23099998E+02  0.34997E+02
 0.23149998E+02  0.35708E+02
 0.23199999E+02  0.35751E+02
 0.23249998E+02  0.34654E+02
 0.23299999E+02  0.34992E+02
 0.23349998E+02  0.33708E+02
 0.23399998E+02  0.33498E+02
 0.23449999E+02  0.34784E+02
 0.23499998E+02  0.34730E+02
 0.23549999E+02  0.35525E+02
 0.23599998E+02  0.35070E+02
 0.23649998E+02  0.34172E+02
 0.23699999E+02  0.34144E+02
 0.23749998E+02  0.34459E+02
 0.23799999E+02  0.34514E+02
 0.23849998E+02  0.33627E+02
 0.23899998E+02  0.34327E+02
 0.23949999E+02  0.33606E+02
 0.23999998E+02  0.34320E+02
 0.24049999E+02  0.34736E+02
 0.24099998E+02  0.34025E+02
 0.24149998E+02  0.34899E+02
 0.24199999E+02  0.34029E+02
 0.24249998E+02  0.33787E+02
 0.24299999E+02  0.33234E+02
 0.24349998E+02  0.34625E+02
 0.24399998E+02  0.34425E+02
 0.24449999E+02  0.34424E+02
 0.24499998E+02  0.34055E+02
 0.24549999E+02  0.34965E+02
 0.24599998E+02  0.34069E+02
 0.24649998E+02  0.35107E+02
 0.24699999E+02  0.35672E+02
 0.24749998E+02  0.33449E+02
 0.24799999E+02  0.34291E+02
 0.24849998E+02  0.34046E+02
 0.24899998E+02  0.35421E+02
 0.24949999E+02  0.34751E+02
 0.24999998E+02  0.36414E+02
 0.25049999E+02  0.34518E+02
 0.25099998E+02  0.35030E+02
 0.25149998E+02  0.35236E+02
 0.25199999E+02  0.34181E+02
 0.25249998E+02  0.35944E+02
 0.25299999E+02  0.34539E+02
 0.25349998E+02  0.33182E+02
 0.25399998E+02  0.33179E+02
 0.25449999E+02  0.34818E+02
 0.25499998E+02  0.33499E+02
 0.25549999E+02  0.34232E+02
 0.25599998E+02  0.34547E+02
 0.25649998E+02  0.33909E+02
 0.25699999E+02  0.35312E+02
 0.25749998E+02  0.33733E+02
 0.25799999E+02  0.34532E+02
 0.25849998E+02  0.34638E+02
 0.25899998E+02  0.33935E+02
 0.25949999E+02  0.35241E+02
 0.25999998E+02  0.35221E+02
 0.26049999E+02  0.35679E+02
 0.26099998E+02  0.35361E+02
 0.26149998E+02  0.35358E+02
 0.26199999E+02  0.33861E+02
 0.26249998E+02  0.33797E+02
 0.26299999E+02  0.32923E+02
 0.26349998E+02  0.33053E+02
 0.26399998E+02  0.34890E+02
 0.26449999E+02  0.34471E+02
 0.26499998E+02  0.33993E+02
 0.26549999E+02  0.33648E+02
 0.26599998E+02  0.34009E+02
 0.26649998E+02  0.33759E+02
 0.26699999E+02  0.34644E+02
 0.26749998E+02  0.35161E+02
 0.26799999E+02  0.34178E+02
 0.26849998E+02  0.34782E+02
 0.26899998E+02  0.34467E+02
 0.26949999E+02  0.34691E+02
 0.26999998E+02  0.35146E+02
 0.27049997E+02  0.34807E+02
 0.27099998E+02  0.35277E+02
 0.27149998E+02  0.34273E+02
 0.27199999E+02  0.33686E+02
 0.27249998E+02  0.33677E+02
 0.27299997E+02  0.33834E+02
 0.27349998E+02  0.33352E+02
 0.27399998E+02  0.32966E+02
 0.27449999E+02  0.33886E+02
 0.27499998E+02  0.33751E+02
 0.27549997E+02  0.34183E+02
 0.27599998E+02  0.33643E+02
 0.27649998E+02  0.34436E+02
 0.27699999E+02  0.34299E+02
 0.27749998E+02  0.33711E+02
 0.27799997E+02  0.33778E+02
 0.27849998E+02  0.33438E+02
 0.27899998E+02  0.34623E+02
 0.27949999E+02  0.33288E+02
 0.27999998E+02  0.33077E+02
 0.28049997E+02  0.33142E+02
 0.28099998E+02  0.32694E+02
 0.28149998E+02  0.33779E+02
 0.28199999E+02  0.35299E+02
 0.28249998E+02  0.34344E+02
 0.28299997E+02  0.33015E+02
 0.28349998E+02  0.34931E+02
 0.28399998E+02  0.33678E+02
 0.28449999E+02  0.33401E+02
 0.28499998E+02  0.33829E+02
 0.28549997E+02  0.34069E+02
 0.28599998E+02  0.35361E+02
 0.28649998E+02  0.33851E+02
 0.28699999E+02  0.33871E+02
 0.28749998E+02  0.33843E+02
 0.28799997E+02  0.33254E+02
 0.28849998E+02  0.33948E+02
 0.28899998E+02  0.34546E+02
 0.28949999E+02  0.34203E+02
 0.28999998E+02  0.34336E+02
 0.29049997E+02  0.33167E+02
 0.29099998E+02  0.34090E+02
 0.29149998E+02  0.34579E+02
 0.29199999E+02  0.33216E+02
 0.29249998E+02  0.32692E+02
 0.29299997E+02  0.32935E+02
 0.29349998E+02  0.34543E+02
 0.29399998E+02  0.34075E+02
 0.29449999E+02  0.33735E+02
 0.29499998E+02  0.34060E+02
 0.29549997E+02  0.33950E+02
 0.29599998E+02  0.33824E+02
 0.29649998E+02  0.33200E+02
 0.29699999E+02  0.33636E+02
 0.29749998E+02  0.32737E+02
 0.29799997E+02  0.33297E+02
 0.29849998E+02  0.33855E+02
 0.29899998E+02  0.33727E+02
 0.29949999E+02  0.34336E+02
 0.29999998E+02  0.33286E+02
 0.30049999E+02  0.34338E+02
 0.30099998E+02  0.34160E+02
 0.30149998E+02  0.33764E+02
 0.30199997E+02  0.33615E+02
 0.30249996E+02  0.34280E+02
 0.30299999E+02  0.34912E+02
 0.30349998E+02  0.34891E+02
 0.30399998E+02  0.35118E+02
 0.30449997E+02  0.35081E+02
 0.30499996E+02  0.33846E+02
 0.30549999E+02  0.32943E+02
 0.30599998E+02  0.34029E+02
 0.30649998E+02  0.34940E+02
 0.30699997E+02  0.34440E+02
 0.30749996E+02  0.33714E+02
 0.30799999E+02  0.34339E+02
 0.30849998E+02  0.33685E+02
 0.30899998E+02  0.33955E+02
 0.30949997E+02  0.32774E+02
 0.30999996E+02  0.34517E+02
 0.31049999E+02  0.34764E+02
 0.31099998E+02  0.33882E+02
 0.31149998E+02  0.34606E+02
 0.31199997E+02  0.34426E+02
 0.31249996E+02  0.34933E+02
 0.31299999E+02  0.34040E+02
 0.31349998E+02  0.34088E+02
 0.31399998E+02  0.34089E+02
 0.31449997E+02  0.34534E+02
 0.31499996E+02  0.34076E+02
 0.31549999E+02  0.34383E+02
 0.31599998E+02  0.32689E+02
 0.31649998E+02  0.33916E+02
 0.31699997E+02  0.35907E+02
 0.31749996E+02  0.33876E+02
 0.31799999E+02  0.33656E+02
 0.31849998E+02  0.34375E+02
 0.31899998E+02  0.34080E+02
 0.31949997E+02  0.33304E+02
 0.31999996E+02  0.33671E+02
 0.32049999E+02  0.33371E+02
 0.32099998E+02  0.33821E+02
 0.32149998E+02  0.34047E+02
 0.32199997E+02  0.34724E+02
 0.32249996E+02  0.34044E+02
 0.32299999E+02  0.33306E+02
 0.32349998E+02  0.33621E+02
 0.32399998E+02  0.34667E+02
 0.32449997E+02  0.35035E+02
 0.32499996E+02  0.33899E+02
 0.32549999E+02  0.34620E+02
 0.32599998E+02  0.34008E+02
 0.32649998E+02  0.34831E+02
 0.32699997E+02  0.34426E+02
 0.32749996E+02  0.34166E+02
 0.32799999E+02  0.34102E+02
 0.32849998E+02  0.34265E+02
 0.32899998E+02  0.34914E+02
 0.32949997E+02  0.34502E+02
 0.32999996E+02  0.34252E+02
 0.33049999E+02  0.33315E+02
 0.33099998E+02  0.34923E+02
 0.33149998E+02  0.35415E+02
 0.33199997E+02  0.34624E+02
 0.33249996E+02  0.33871E+02
 0.33299999E+02  0.35003E+02
 0.33349998E+02  0.34708E+02
 0.33399998E+02  0.33875E+02
 0.33449997E+02  0.34870E+02
 0.33499996E+02  0.34092E+02
 0.33549999E+02  0.34302E+02
 0.33599998E+02  0.33864E+02
 0.33649998E+02  0.33588E+02
 0.33699997E+02  0.34368E+02
 0.33749996E+02  0.34770E+02
 0.33799999E+02  0.33937E+02
 0.33849998E+02  0.34254E+02
 0.33899998E+02  0.34023E+02
 0.33949997E+02  0.33939E+02
 0.33999996E+02  0.35015E+02
 0.34049999E+02  0.35313E+02
 0.34099998E+02  0.35225E+02
 0.34149998E+02  0.32914E+02
 0.34199997E+02  0.33473E+02
 0.34249996E+02  0.34097E+02
 0.34299999E+02  0.34194E+02
 0.34349998E+02  0.34576E+02
 0.34399998E+02  0.33500E+02
 0.34449997E+02  0.33864E+02
 0.34499996E+02  0.33901E+02
 0.34549999E+02  0.35286E+02
 0.34599998E+02  0.35970E+02
 0.34649998E+02  0.34720E+02
 0.34699997E+02  0.35371E+02
 0.34749996E+02  0.35209E+02
 0.34799999E+02  0.33704E+02
 0.34849998E+02  0.34445E+02
 0.34899998E+02  0.34590E+02
 0.34949997E+02  0.33927E+02
 0.34999996E+02  0.35107E+02
 0.35049999E+02  0.33884E+02
 0.35099998E+02  0.33953E+02
 0.35149998E+02  0.35248E+02
 0.35199997E+02  0.34868E+02
 0.35249996E+02  0.35299E+02
 0.35299999E+02  0.34995E+02
 0.35349998E+02  0.33980E+02
 0.35399998E+02  0.34532E+02
 0.35449997E+02  0.34320E+02
 0.35499996E+02  0.33840E+02
 0.35549999E+02  0.33585E+02
 0.35599998E+02  0.34261E+02
 0.35649998E+02  0.35587E+02
 0.35699997E+02  0.34212E+02
 0.35749996E+02  0.34798E+02
 0.35799999E+02  0.35481E+02
 0.35849998E+02  0.34418E+02
 0.35899998E+02  0.34958E+02
 0.35949997E+02  0.33687E+02
 0.35999996E+02  0.33554E+02
 0.36049999E+02  0.34214E+02
 0.36099998E+02  0.35020E+02
 0.36149998E+02  0.34211E+02
 0.36199997E+02  0.33393E+02
 0.36249996E+02  0.34819E+02
 0.36299999E+02  0.32931E+02
 0.36349998E+02  0.33664E+02
 0.36399998E+02  0.33498E+02
 0.36449997E+02  0.32780E+02
 0.36499996E+02  0.33761E+02
 0.36549999E+02  0.34139E+02
 0.36599998E+02  0.35275E+02
 0.36649998E+02  0.33926E+02
 0.36699997E+02  0.32965E+02
 0.36749996E+02  0.32858E+02
 0.36799999E+02  0.34146E+02
 0.36849998E+02  0.34941E+02
 0.36899998E+02  0.33784E+02
 0.36949997E+02  0.33579E+02
 0.36999996E+02  0.33590E+02
 0.37049999E+02  0.33614E+02
 0.37099998E+02  0.33211E+02
 0.37149998E+02  0.34166E+02
 0.37199997E+02  0.33750E+02
 0.37249996E+02  0.33099E+02
 0.37299999E+02  0.33132E+02
 0.37349998E+02  0.32078E+02
 0.37399998E+02  0.33377E+02
 0.37449997E+02  0.34886E+02
 0.37499996E+02  0.33433E+02
 0.37549999E+02  0.34411E+02
 0.37599998E+02  0.34996E+02
 0.37649998E+02  0.33851E+02
 0.37699997E+02  0.34158E+02
 0.37749996E+02  0.34445E+02
 0.37799999E+02  0.34583E+02
 0.37849998E+02  0.34788E+02
 0.37899998E+02  0.33676E+02
 0.37949997E+02  0.32939E+02
 0.37999996E+02  0.34584E+02
 0.38049999E+02  0.34928E+02
 0.38099998E+02  0.35214E+02
 0.38149998E+02  0.34530E+02
 0.38199997E+02  0.33939E+02
 0.38249996E+02  0.34635E+02
 0.38299999E+02  0.34415E+02
 0.38349998E+02  0.34973E+02
 0.38399998E+02  0.35000E+02
 0.38449997E+02  0.34308E+02
 0.38499996E+02  0.33731E+02
 0.38549999E+02  0.33883E+02
 0.38599998E+02  0.35212E+02
 0.38649998E+02  0.33734E+02
 0.38699997E+02  0.34186E+02
 0.38749996E+02  0.34924E+02
 0.38799999E+02  0.34373E+02
 0.38849998E+02  0.33524E+02
 0.38899998E+02  0.35210E+02
 0.38949997E+02  0.35525E+02
 0.38999996E+02  0.32709E+02
 0.39049999E+02  0.34223E+02
 0.39099998E+02  0.34969E+02
 0.39149998E+02  0.35031E+02
 0.39199997E+02  0.33124E+02
 0.39249996E+02  0.33264E+02
 0.39299999E+02  0.34198E+02
 0.39349998E+02  0.34197E+02
 0.39399998E+02  0.33941E+02
 0.39449997E+02  0.34373E+02
 0.39499996E+02  0.35242E+02
 0.39549999E+02  0.34227E+02
 0.39599998E+02  0.34073E+02
 0.39649998E+02  0.33428E+02
 0.39699997E+02  0.34795E+02
 0.39749996E+02  0.35075E+02
 0.39799999E+02  0.35421E+02
 0.39849998E+02  0.34749E+02
 0.39899998E+02  0.33480E+02
 0.39949997E+02  0.34893E+02
 0.39999996E+02  0.34389E+02
 0.40049999E+02  0.34107E+02
 0.40099998E+02  0.35467E+02
 0.40149998E+02  0.34017E+02
 0.40199997E+02  0.33392E+02
 0.40249996E+02  0.34116E+02
 0.40299999E+02  0.34209E+02
 0.40349998E+02  0.33812E+02
 0.40399998E+02  0.34175E+02
 0.40449997E+02  0.33311E+02
 0.40499996E+02  0.33958E+02
 0.40549999E+02  0.35029E+02
 0.40599998E+02  0.33750E+02
 0.40649998E+02  0.35476E+02
 0.40699997E+02  0.33448E+02
 0.40749996E+02  0.33815E+02
 0.40799999E+02  0.34463E+02
 0.40849998E+02  0.33883E+02
 0.40899998E+02  0.33885E+02
 0.40949997E+02  0.33392E+02
 0.40999996E+02  0.33779E+02
 0.41049999E+02  0.33606E+02
 0.41099998E+02  0.33277E+02
 0.41149998E+02  0.34758E+02
 0.41199997E+02  0.34015E+02
 0.41249996E+02  0.32392E+02
 0.41299999E+02  0.34207E+02
 0.41349998E+02  0.35278E+02
 0.41399998E+02  0.35349E+02
 0.41449997E+02  0.34672E+02
 0.41499996E+02  0.34496E+02
 0.41549999E+02  0.33033E+02
 0.41599998E+02  0.34643E+02
 0.41649998E+02  0.33875E+02
 0.41699997E+02  0.33777E+02
 0.41749996E+02  0.33657E+02
 0.41799999E+02  0.32990E+02
 0.41849998E+02  0.34577E+02
 0.41899998E+02  0.35133E+02
 0.41949997E+02  0.35211E+02
 0.41999996E+02  0.33338E+02
 0.42049999E+02  0.34730E+02
 0.42099998E+02  0.35114E+02
 0.42149998E+02  0.35721E+02
 0.42199997E+02  0.35187E+02
 0.42249996E+02  0.34754E+02
 0.42299999E+02  0.34211E+02
 0.42349998E+02  0.34083E+02
 0.42399998E+02  0.34245E+02
 0.42449997E+02  0.33658E+02
 0.42499996E+02  0.34728E+02
 0.42549999E+02  0.34394E+02
 0.42599998E+02  0.35130E+02
 0.42649998E+02  0.35005E+02
 0.42699997E+02  0.35727E+02
 0.42749996E+02  0.33846E+02
 0.42799995E+02  0.34783E+02
 0.42849998E+02  0.34662E+02
 0.42899998E+02  0.33414E+02
 0.42949997E+02  0.34154E+02
 0.42999996E+02  0.34015E+02
 0.43049995E+02  0.33784E+02
 0.43099998E+02  0.33403E+02
 0.43149998E+02  0.34209E+02
 0.43199997E+02  0.32777E+02
 0.43249996E+02  0.33072E+02
 0.43299995E+02  0.32466E+02
 0.43349998E+02  0.34120E+02
 0.43399998E+02  0.35678E+02
 0.43449997E+02  0.34562E+02
 0.43499996E+02  0.34221E+02
 0.43549995E+02  0.34445E+02
 0.43599998E+02  0.34793E+02
 0.43649998E+02  0.35009E+02
 0.43699997E+02  0.35029E+02
 0.43749996E+02  0.34642E+02
 0.43799995E+02  0.34327E+02
 0.43849998E+02  0.34336E+02
 0.43899998E+02  0.33988E+02
 0.43949997E+02  0.34155E+02
 0.43999996E+02  0.34792E+02
 0.44049995E+02  0.34323E+02
 0.44099998E+02  0.34165E+02
 0.44149998E+02  0.33786E+02
 0.44199997E+02  0.33582E+02
 0.44249996E+02  0.34006E+02
 0.44299995E+02  0.34408E+02
 0.44349998E+02  0.32972E+02
 0.44399998E+02  0.33938E+02
 0.44449997E+02  0.34686E+02
 0.44499996E+02  0.33374E+02
 0.44549995E+02  0.33904E+02
 0.44599998E+02  0.33386E+02
 0.44649998E+02  0.33993E+02
 0.44699997E+02  0.34296E+02
 0.44749996E+02  0.32661E+02
 0.44799995E+02  0.33724E+02
 0.44849998E+02  0.32793E+02
 0.44899998E+02  0.34069E+02
 0.44949997E+02  0.34610E+02
 0.44999996E+02  0.33399E+02
 0.45049995E+02  0.34468E+02
 0.45099998E+02  0.34102E+02
 0.45149998E+02  0.33460E+02
 0.45199997E+02  0.33162E+02
 0.45249996E+02  0.34976E+02
 0.45299995E+02  0.34321E+02
 0.45349998E+02  0.33508E+02
 0.45399998E+02  0.34028E+02
 0.45449997E+02  0.33911E+02
 0.45499996E+02  0.34342E+02
 0.45549995E+02  0.34254E+02
 0.45599998E+02  0.33916E+02
 0.45649998E+02  0.34250E+02
 0.45699997E+02  0.33882E+02
 0.45749996E+02  0.33727E+02
 0.45799995E+02  0.33821E+02
 0.45849998E+02  0.34355E+02
 0.45899998E+02  0.34269E+02
 0.45949997E+02  0.34707E+02
 0.45999996E+02  0.34152E+02
 0.46049995E+02  0.34443E+02
 0.46099998E+02  0.35450E+02
 0.46149998E+02  0.34828E+02
 0.46199997E+02  0.35441E+02
 0.46249996E+02  0.34015E+02
 0.46299995E+02  0.32545E+02
 0.46349998E+02  0.34254E+02
 0.46399998E+02  0.34225E+02
 0.46449997E+02  0.33820E+02
 0.46499996E+02  0.33545E+02
 0.46549995E+02  0.33811E+02
 0.46599998E+02  0.34157E+02
 0.46649998E+02  0.33061E+02
 0.46699997E+02  0.34422E+02
 0.46749996E+02  0.34238E+02
 0.46799995E+02  0.34080E+02
 0.46849998E+02  0.33662E+02
 0.46899998E+02  0.34040E+02
 0.46949997E+02  0.34650E+02
 0.46999996E+02  0.34904E+02
 0.47049995E+02  0.35824E+02
 0.47099998E+02  0.34172E+02
 0.47149998E+02  0.34221E+02
 0.47199997E+02  0.34963E+02
 0.47249996E+02  0.34282E+02
 0.47299995E+02  0.34400E+02
 0.47349998E+02  0.34502E+02
 0.47399998E+02  0.35482E+02
 0.47449997E+02  0.34753E+02
 0.47499996E+02  0.34515E+02
 0.47549995E+02  0.34126E+02
 0.47599998E+02  0.33813E+02
 0.47649998E+02  0.34440E+02
 0.47699997E+02  0.33695E+02
 0.47749996E+02  0.34424E+02
 0.47799995E+02  0.34590E+02
 0.47849998E+02  0.34727E+02
 0.47899998E+02  0.34184E+02
 0.47949997E+02  0.33962E+02
 0.47999996E+02  0.34251E+02
 0.48049995E+02  0.34796E+02
 0.48099998E+02  0.34811E+02
 0.48149998E+02  0.35448E+02
 0.48199997E+02  0.35010E+02
 0.48249996E+02  0.33597E+02
 0.48299995E+02  0.33714E+02
 0.48349998E+02  0.33581E+02
 0.48399998E+02  0.34265E+02
 0.48449997E+02  0.33421E+02
 0.48499996E+02  0.33940E+02
 0.48549995E+02  0.33149E+02
 0.48599998E+02  0.33965E+02
 0.48649998E+02  0.34332E+02
 0.48699997E+02  0.34172E+02
 0.48749996E+02  0.35055E+02
 0.48799995E+02  0.34329E+02
 0.48849998E+02  0.34326E+02
 0.48899998E+02  0.34429E+02
 0.48949997E+02  0.35726E+02
 0.48999996E+02  0.34697E+02
 0.49049995E+02  0.35324E+02
 0.49099998E+02  0.35301E+02
 0.49149998E+02  0.35306E+02
 0.49199997E+02  0.34211E+02
 0.49249996E+02  0.33253E+02
 0.49299995E+02  0.33037E+02
 0.49349998E+02  0.33878E+02
 0.49399998E+02  0.34087E+02
 0.49449997E+02  0.34042E+02
 0.49499996E+02  0.36097E+02
 0.49549995E+02  0.33827E+02
 0.49599998E+02  0.33152E+02
 0.49649998E+02  0.34248E+02
 0.49699997E+02  0.34421E+02
 0.49749996E+02  0.34424E+02
 0.49799995E+02  0.33995E+02
 0.49849998E+02  0.33161E+02
 0.49899998E+02  0.33015E+02
 0.49949997E+02  0.33957E+02
 0.49999996E+02  0.34208E+02
 0.50049995E+02  0.33318E+02
 0.50099998E+02  0.33995E+02
 0.50149998E+02  0.34913E+02
 0.50199997E+02  0.34383E+02
 0.50249996E+02  0.33696E+02
 0.50299995E+02  0.33232E+02
 0.50349998E+02  0.35034E+02
 0.50399998E+02  0.34499E+02
 0.50449997E+02  0.32667E+02
 0.50499996E+02  0.33963E+02
 0.50549995E+02  0.34090E+02
 0.50599998E+02  0.35960E+02
 0.50649998E+02  0.35784E+02
 0.50699997E+02  0.34208E+02
 0.50749996E+02  0.34263E+02
 0.50799995E+02  0.34329E+02
 0.50849998E+02  0.34604E+02
 0.50899998E+02  0.33598E+02
 0.50949997E+02  0.34555E+02
 0.50999996E+02  0.35111E+02
 0.51049995E+02  0.35542E+02
 0.51099998E+02  0.35745E+02
 0.51149998E+02  0.34010E+02
 0.51199997E+02  0.34309E+02
 0.51249996E+02  0.34866E+02
 0.51299995E+02  0.33785E+02
 0.51349998E+02  0.34302E+02
 0.51399998E+02  0.34414E+02
 0.51449997E+02  0.34482E+02
 0.51499996E+02  0.34778E+02
 0.51549995E+02  0.34230E+02
 0.51599998E+02  0.33788E+02
 0.51649998E+02  0.33957E+02
 0.51699997E+02  0.34277E+02
 0.51749996E+02  0.33971E+02
 0.51799995E+02  0.34964E+02
 0.51849998E+02  0.34766E+02
 0.51899998E+02  0.34475E+02
 0.51949997E+02  0.35312E+02
 0.51999996E+02  0.34582E+02
 0.52049995E+02  0.35209E+02
 0.52099998E+02  0.33400E+02
 0.52149998E+02  0.33358E+02
 0.52199997E+02  0.35245E+02
 0.52249996E+02  0.34640E+02
 0.52299995E+02  0.35074E+02
 0.52349998E+02  0.33767E+02
 0.52399998E+02  0.34237E+02
 0.52449997E+02  0.34470E+02
 0.52499996E+02  0.33899E+02
 0.52549995E+02  0.33638E+02
 0.52599998E+02  0.34204E+02
 0.52649998E+02  0.34253E+02
 0.52699997E+02  0.34604E+02
 0.52749996E+02  0.35047E+02
 0.52799995E+02  0.34181E+02
 0.52849998E+02  0.35409E+02
 0.52899998E+02  0.34872E+02
 0.52949997E+02  0.34586E+02
 0.52999996E+02  0.34743E+02
 0.53049995E+02  0.34866E+02
 0.53099998E+02  0.34968E+02
 0.53149998E+02  0.33681E+02
 0.53199997E+02  0.34046E+02
 0.53249996E+02  0.34437E+02
 0.53299995E+02  0.34078E+02
 0.53349998E+02  0.33557E+02
 0.53399998E+02  0.34771E+02
 0.53449997E+02  0.34705E+02
 0.53499996E+02  0.34627E+02
 0.53549995E+02  0.35040E+02
 0.53599998E+02  0.34141E+02
 0.53649998E+02  0.34946E+02
 0.53699997E+02  0.33834E+02
 0.53749996E+02  0.33976E+02
 0.53799995E+02  0.33485E+02
 0.53849998E+02  0.34964E+02
 0.53899998E+02  0.35676E+02
 0.53949997E+02  0.34268E+02
 0.53999996E+02  0.35161E+02
 0.54049995E+02  0.34268E+02
 0.54099998E+02  0.34275E+02
 0.54149998E+02  0.34808E+02
 0.54199997E+02  0.34140E+02
 0.54249996E+02  0.34065E+02
 0.54299995E+02  0.34450E+02
 0.54349998E+02  0.34255E+02
 0.54399998E+02  0.34800E+02
 0.54449997E+02  0.34676E+02
 0.54499996E+02  0.34641E+02
 0.54549995E+02  0.34858E+02
 0.54599998E+02  0.34067E+02
 0.54649998E+02  0.34432E+02
 0.54699997E+02  0.35001E+02
 0.54749996E+02  0.33392E+02
 0.54799995E+02  0.35063E+02
 0.54849998E+02  0.35928E+02
 0.54899998E+02  0.34382E+02
 0.54949997E+02  0.34622E+02
 0.54999996E+02  0.33804E+02
 0.55049995E+02  0.34877E+02
 0.55099998E+02  0.35419E+02
 0.55149998E+02  0.33816E+02
 0.55199997E+02  0.34406E+02
 0.55249996E+02  0.34691E+02
 0.55299995E+02  0.34131E+02
 0.55349998E+02  0.35187E+02
 0.55399998E+02  0.34925E+02
 0.55449997E+02  0.34775E+02
 0.55499996E+02  0.34574E+02
 0.55549995E+02  0.32905E+02
 0.55599998E+02  0.34297E+02
 0.55649998E+02  0.34021E+02
 0.55699997E+02  0.33944E+02
 0.55749996E+02  0.35207E+02
 0.55799995E+02  0.34695E+02
 0.55849995E+02  0.34162E+02
 0.55899998E+02  0.34122E+02
 0.55949997E+02  0.34481E+02
 0.55999996E+02  0.34405E+02
 0.56049995E+02  0.33601E+02
 0.56099995E+02  0.33583E+02
 0.56149998E+02  0.34448E+02
 0.56199997E+02  0.33542E+02
 0.56249996E+02  0.33598E+02
 0.56299995E+02  0.33997E+02
 0.56349995E+02  0.35155E+02
 0.56399998E+02  0.34652E+02
 0.56449997E+02  0.34527E+02
 0.56499996E+02  0.34040E+02
 0.56549995E+02  0.34605E+02
 0.56599995E+02  0.35559E+02
 0.56649998E+02  0.34713E+02
 0.56699997E+02  0.33715E+02
 0.56749996E+02  0.34225E+02
 0.56799995E+02  0.33761E+02
 0.56849995E+02  0.33876E+02
 0.56899998E+02  0.32982E+02
 0.56949997E+02  0.33803E+02
 0.56999996E+02  0.35555E+02
 0.57049995E+02  0.32731E+02
 0.57099995E+02  0.35320E+02
 0.57149998E+02  0.32915E+02
 0.57199997E+02  0.33695E+02
 0.57249996E+02  0.34454E+02
 0.57299995E+02  0.33844E+02
 0.57349995E+02  0.35146E+02
 0.57399998E+02  0.33794E+02
 0.57449997E+02  0.35282E+02
 0.57499996E+02  0.35447E+02
 0.57549995E+02  0.35021E+02
 0.57599995E+02  0.34739E+02
 0.57649998E+02  0.35278E+02
 0.57699997E+02  0.33681E+02
 0.57749996E+02  0.34875E+02
 0.57799995E+02  0.34337E+02
 0.57849995E+02  0.33904E+02
 0.57899998E+02  0.35006E+02
 0.57949997E+02  0.33333E+02
 0.57999996E+02  0.34997E+02
 0.58049995E+02  0.35305E+02
 0.58099995E+02  0.34634E+02
 0.58149998E+02  0.34170E+02
 0.58199997E+02  0.33838E+02
 0.58249996E+02  0.33634E+02
 0.58299995E+02  0.34562E+02
 0.58349995E+02  0.34044E+02
 0.58399998E+02  0.34421E+02
 0.58449997E+02  0.34984E+02
 0.58499996E+02  0.33907E+02
 0.58549995E+02  0.34342E+02
 0.58599995E+02  0.34424E+02
 0.58649998E+02  0.34310E+02
 0.58699997E+02  0.35017E+02
 0.58749996E+02  0.34493E+02
 0.58799995E+02  0.33534E+02
 0.58849995E+02  0.34912E+02
 0.58899998E+02  0.33260E+02
 0.58949997E+02  0.34722E+02
 0.58999996E+02  0.35285E+02
 0.59049995E+02  0.34880E+02
 0.59099995E+02  0.35488E+02
 0.59149998E+02  0.35194E+02
 0.59199997E+02  0.34947E+02
 0.59249996E+02  0.34165E+02
 0.59299995E+02  0.35874E+02
 0.59349995E+02  0.33836E+02
 0.59399998E+02  0.35202E+02
 0.59449997E+02  0.35423E+02
 0.59499996E+02  0.33984E+02
 0.59549995E+02  0.35767E+02
 0.59599995E+02  0.34539E+02
 0.59649998E+02  0.34243E+02
 0.59699997E+02  0.34609E+02
 0.59749996E+02  0.34688E+02
 0.59799995E+02  0.34733E+02
 0.59849995E+02  0.35643E+02
 0.59899998E+02  0.35503E+02
 0.59949997E+02  0.34479E+02
 0.59999996E+02  0.35216E+02
 0.60049995E+02  0.34483E+02
 0.60099995E+02  0.35137E+02
 0.60149998E+02  0.35201E+02
 0.60199997E+02  0.34231E+02
 0.60249996E+02  0.34519E+02
 0.60299995E+02  0.33953E+02
 0.60349995E+02  0.33694E+02
 0.60399998E+02  0.34713E+02
 0.60449997E+02  0.34042E+02
 0.60499996E+02  0.34092E+02
 0.60549995E+02  0.35604E+02
 0.60599995E+02  0.34026E+02
 0.60649998E+02  0.34944E+02
 0.60699997E+02  0.34878E+02
 0.60749996E+02  0.34233E+02
 0.60799995E+02  0.33321E+02
 0.60849995E+02  0.34568E+02
 0.60899998E+02  0.35291E+02
 0.60949997E+02  0.32906E+02
 0.60999996E+02  0.34825E+02
 0.61049995E+02  0.35296E+02
 0.61099995E+02  0.33936E+02
 0.61149998E+02  0.32601E+02
 0.61199997E+02  0.33372E+02
 0.61249996E+02  0.34148E+02
 0.61299995E+02  0.33142E+02
 0.61349995E+02  0.34283E+02
 0.61399998E+02  0.34752E+02
 0.61449997E+02  0.34085E+02
 0.61499996E+02  0.34478E+02
 0.61549995E+02  0.33951E+02
 0.61599995E+02  0.33625E+02
 0.61649998E+02  0.33568E+02
 0.61699997E+02  0.34152E+02
 0.61749996E+02  0.33121E+02
 0.61799995E+02  0.33158E+02
 0.61849995E+02  0.35064E+02
 0.61899998E+02  0.34035E+02
 0.61949997E+02  0.34151E+02
 0.61999996E+02  0.35214E+02
 0.62049995E+02  0.34306E+02
 0.62099998E+02  0.34543E+02
 0.62149994E+02  0.35673E+02
 0.62199997E+02  0.34303E+02
 0.62249992E+02  0.34432E+02
 0.62299995E+02  0.35484E+02
 0.62349998E+02  0.34592E+02
 0.62399994E+02  0.35008E+02
 0.62449997E+02  0.35027E+02
 0.62499992E+02  0.34808E+02
 0.62549995E+02  0.34377E+02
 0.62599998E+02  0.34914E+02
 0.62649994E+02  0.35468E+02
 0.62699997E+02  0.33997E+02
 0.62749992E+02  0.34798E+02
 0.62799995E+02  0.35095E+02
 0.62849998E+02  0.35174E+02
 0.62899994E+02  0.34790E+02
 0.62949997E+02  0.35389E+02
 0.62999992E+02  0.34599E+02
 0.63049995E+02  0.33644E+02
 0.63099998E+02  0.34459E+02
 0.63149994E+02  0.35763E+02
 0.63199997E+02  0.35732E+02
 0.63249992E+02  0.34711E+02
 0.63299995E+02  0.35338E+02
 0.63349998E+02  0.34876E+02
 0.63399994E+02  0.34883E+02
 0.63449997E+02  0.34180E+02
 0.63499992E+02  0.34944E+02
 0.63549995E+02  0.34295E+02
 0.63599998E+02  0.35160E+02
 0.63649994E+02  0.34277E+02
 0.63699997E+02  0.33764E+02
 0.63749992E+02  0.34827E+02
 0.63799995E+02  0.34637E+02
 0.63849998E+02  0.35587E+02
 0.63899994E+02  0.33578E+02
 0.63949997E+02  0.34893E+02
 0.63999992E+02  0.35724E+02
 0.64049995E+02  0.34029E+02
 0.64099998E+02  0.34989E+02
 0.64149994E+02  0.33784E+02
 0.64199997E+02  0.34678E+02
 0.64249992E+02  0.34280E+02
 0.64299995E+02  0.33729E+02
 0.64349998E+02  0.35350E+02
 0.64399994E+02  0.33221E+02
 0.64449997E+02  0.35002E+02
 0.64499992E+02  0.34935E+02
 0.64549995E+02  0.34150E+02
 0.64599998E+02  0.34657E+02
 0.64649994E+02  0.34768E+02
 0.64699997E+02  0.33076E+02
 0.64749992E+02  0.33073E+02
 0.64799995E+02  0.34081E+02
 0.64849998E+02  0.34744E+02
 0.64899994E+02  0.35209E+02
 0.64949997E+02  0.35433E+02
 0.64999992E+02  0.36068E+02
 0.65049995E+02  0.34695E+02
 0.65099998E+02  0.34814E+02
 0.65149994E+02  0.33894E+02
 0.65199997E+02  0.34144E+02
 0.65249992E+02  0.34359E+02
 0.65299995E+02  0.35004E+02
 0.65349998E+02  0.33896E+02
 0.65399994E+02  0.33725E+02
 0.65449997E+02  0.36296E+02
 0.65499992E+02  0.34947E+02
 0.65549995E+02  0.34318E+02
 0.65599998E+02  0.34593E+02
 0.65649994E+02  0.35125E+02
 0.65699997E+02  0.35193E+02
 0.65749992E+02  0.35094E+02
 0.65799995E+02  0.35322E+02
 0.65849998E+02  0.34347E+02
 0.65899994E+02  0.33296E+02
 0.65949997E+02  0.33990E+02
 0.65999992E+02  0.35686E+02
 0.66049995E+02  0.35246E+02
 0.66099998E+02  0.34099E+02
 0.66149994E+02  0.34085E+02
 0.66199997E+02  0.35163E+02
 0.66249992E+02  0.35353E+02
 0.66299995E+02  0.34997E+02
 0.66349998E+02  0.35036E+02
 0.66399994E+02  0.35430E+02
 0.66449997E+02  0.35208E+02
 0.66499992E+02  0.34469E+02
 0.66549995E+02  0.34102E+02
 0.66599998E+02  0.34834E+02
 0.66649994E+02  0.34489E+02
 0.66699997E+02  0.34843E+02
 0.66749992E+02  0.35102E+02
 0.66799995E+02  0.33924E+02
 0.66849998E+02  0.35543E+02
 0.66899994E+02  0.35485E+02
 0.66949997E+02  0.36019E+02
 0.66999992E+02  0.35158E+02
 0.67049995E+02  0.33964E+02
 0.67099998E+02  0.34919E+02
 0.67149994E+02  0.33978E+02
 0.67199997E+02  0.34372E+02
 0.67249992E+02  0.34666E+02
 0.67299995E+02  0.34314E+02
 0.67349998E+02  0.34130E+02
 0.67399994E+02  0.34586E+02
 0.67449997E+02  0.35605E+02
 0.67499992E+02  0.35299E+02
 0.67549995E+02  0.35191E+02
 0.67599998E+02  0.35660E+02
 0.67649994E+02  0.35536E+02
 0.67699997E+02  0.35376E+02
 0.67749992E+02  0.34839E+02
 0.67799995E+02  0.33722E+02
 0.67849998E+02  0.34440E+02
 0.67899994E+02  0.34781E+02
 0.67949997E+02  0.33490E+02
 0.67999992E+02  0.33182E+02
 0.68049995E+02  0.35025E+02
 0.68099998E+02  0.34791E+02
 0.68149994E+02  0.34633E+02
 0.68199997E+02  0.35351E+02
 0.68249992E+02  0.33425E+02
 0.68299995E+02  0.34132E+02
 0.68349998E+02  0.33076E+02
 0.68399994E+02  0.33651E+02
 0.68449997E+02  0.34426E+02
 0.68499992E+02  0.33555E+02
 0.68549995E+02  0.35513E+02
 0.68599998E+02  0.35466E+02
 0.68649994E+02  0.34098E+02
 0.68699997E+02  0.34062E+02
 0.68749992E+02  0.34632E+02
 0.68799995E+02  0.34950E+02
 0.68849998E+02  0.35295E+02
 0.68899994E+02  0.33579E+02
 0.68949997E+02  0.33321E+02
 0.68999992E+02  0.35390E+02
 0.69049995E+02  0.34809E+02
 0.69099998E+02  0.34708E+02
 0.69149994E+02  0.34370E+02
 0.69199997E+02  0.34598E+02
 0.69249992E+02  0.34672E+02
 0.69299995E+02  0.33622E+02
 0.69349998E+02  0.35004E+02
 0.69399994E+02  0.32939E+02
 0.69449997E+02  0.33403E+02
 0.69499992E+02  0.33878E+02
 0.69549995E+02  0.33656E+02
 0.69599998E+02  0.34020E+02
 0.69649994E+02  0.34361E+02
 0.69699997E+02  0.34646E+02
 0.69749992E+02  0.32839E+02
 0.69799995E+02  0.34080E+02
 0.69849998E+02  0.34695E+02
 0.69899994E+02  0.34656E+02
 0.69949997E+02  0.34500E+02
 0.69999992E+02  0.33392E+02
 0.70049995E+02  0.34878E+02
 0.70099998E+02  0.34339E+02
 0.70149994E+02  0.33584E+02
 0.70199997E+02  0.34577E+02
 0.70249992E+02  0.34374E+02
 0.70299995E+02  0.34023E+02
 0.70349998E+02  0.32940E+02
 0.70399994E+02  0.34109E+02
 0.70449997E+02  0.33469E+02
 0.70499992E+02  0.34378E+02
 0.70549995E+02  0.33271E+02
 0.70599998E+02  0.33923E+02
 0.70649994E+02  0.34594E+02
 0.70699997E+02  0.32635E+02
 0.70749992E+02  0.35097E+02
 0.70799995E+02  0.33864E+02
 0.70849998E+02  0.33395E+02
 0.70899994E+02  0.34543E+02
 0.70949997E+02  0.33251E+02
 0.70999992E+02  0.34048E+02
 0.71049995E+02  0.34789E+02
 0.71099998E+02  0.34056E+02
 0.71149994E+02  0.34341E+02
 0.71199997E+02  0.35200E+02
 0.71249992E+02  0.34478E+02
 0.71299995E+02  0.33319E+02
 0.71349998E+02  0.34801E+02
 0.71399994E+02  0.34438E+02
 0.71449997E+02  0.34082E+02
 0.71499992E+02  0.33870E+02
 0.71549995E+02  0.34810E+02
 0.71599998E+02  0.33770E+02
 0.71649994E+02  0.33708E+02
 0.71699997E+02  0.35362E+02
 0.71749992E+02  0.33948E+02
 0.71799995E+02  0.34847E+02
 0.71849998E+02  0.34804E+02
 0.71899994E+02  0.33653E+02
 0.71949997E+02  0.33697E+02
 0.71999992E+02  0.35070E+02
 0.72049995E+02  0.34288E+02
 0.72099998E+02  0.33843E+02
 0.72149994E+02  0.34050E+02
 0.72199997E+02  0.34888E+02
 0.72249992E+02  0.34254E+02
 0.72299995E+02  0.33459E+02
 0.72349998E+02  0.34680E+02
 0.72399994E+02  0.34197E+02
 0.72449997E+02  0.34700E+02
 0.72499992E+02  0.35129E+02
 0.72549995E+02  0.34970E+02
 0.72599998E+02  0.33154E+02
 0.72649994E+02  0.33260E+02
 0.72699997E+02  0.34004E+02
 0.72749992E+02  0.34361E+02
 0.72799995E+02  0.33949E+02
 0.72849998E+02  0.33994E+02
 0.72899994E+02  0.34033E+02
 0.72949997E+02  0.34354E+02
 0.72999992E+02  0.34133E+02
 0.73049995E+02  0.34277E+02
 0.73099998E+02  0.35562E+02
 0.73149994E+02  0.34592E+02
 0.73199997E+02  0.33512E+02
 0.73249992E+02  0.33718E+02
 0.73299995E+02  0.35086E+02
 0.73349998E+02  0.33955E+02
 0.73399994E+02  0.34130E+02
 0.73449997E+02  0.33515E+02
 0.73499992E+02  0.33480E+02
 0.73549995E+02  0.34086E+02
 0.73599998E+02  0.35994E+02
 0.73649994E+02  0.34999E+02
 0.73699997E+02  0.33618E+02
 0.73749992E+02  0.33824E+02
 0.73799995E+02  0.33091E+02
 0.73849998E+02  0.33851E+02
 0.73899994E+02  0.33689E+02
 0.73949997E+02  0.35224E+02
 0.73999992E+02  0.34100E+02
 0.74049995E+02  0.33997E+02
 0.74099998E+02  0.33325E+02
 0.74149994E+02  0.33875E+02
 0.74199997E+02  0.34601E+02
 0.74249992E+02  0.34784E+02
 0.74299995E+02  0.34340E+02
 0.74349998E+02  0.34236E+02
 0.74399994E+02  0.34629E+02
 0.74449997E+02  0.34730E+02
 0.74499992E+02  0.34972E+02
 0.74549995E+02  0.32958E+02
 0.74599998E+02  0.34933E+02
 0.74649994E+02  0.33633E+02
 0.74699997E+02  0.34884E+02
 0.74749992E+02  0.33479E+02
 0.74799995E+02  0.33388E+02
 0.74849998E+02  0.35021E+02
 0.74899994E+02  0.34934E+02
 0.74949997E+02  0.35225E+02
 0.74999992E+02  0.33667E+02
 0.75049995E+02  0.35280E+02
 0.75099998E+02  0.34543E+02
 0.75149994E+02  0.34975E+02
 0.75199997E+02  0.33932E+02
 0.75249992E+02  0.34708E+02
 0.75299995E+02  0.33885E+02
 0.75349998E+02  0.34251E+02
 0.75399994E+02  0.34336E+02
 0.75449997E+02  0.33624E+02
 0.75499992E+02  0.34344E+02
 0.75549995E+02  0.33902E+02
 0.75599998E+02  0.34832E+02
 0.75649994E+02  0.33936E+02
 0.75699997E+02  0.34079E+02
 0.75749992E+02  0.33799E+02
 0.75799995E+02  0.35307E+02
 0.75849998E+02  0.35174E+02
 0.75899994E+02  0.33483E+02
 0.75949997E+02  0.33948E+02
 0.75999992E+02  0.33741E+02
 0.76049995E+02  0.33452E+02
 0.76099998E+02  0.34591E+02
 0.76149994E+02  0.35456E+02
 0.76199997E+02  0.35075E+02
 0.76249992E+02  0.33585E+02
 0.76299995E+02  0.33209E+02
 0.76349998E+02  0.33851E+02
 0.76399994E+02  0.33706E+02
 0.76449997E+02  0.34857E+02
 0.76499992E+02  0.34287E+02
 0.76549995E+02  0.34421E+02
 0.76599998E+02  0.34739E+02
 0.76649994E+02  0.33762E+02
 0.76699997E+02  0.35102E+02
 0.76749992E+02  0.33535E+02
 0.76799995E+02  0.33494E+02
 0.76849998E+02  0.34171E+02
 0.76899994E+02  0.34296E+02
 0.76949997E+02  0.33297E+02
 0.76999992E+02  0.33776E+02
 0.77049995E+02  0.34668E+02
 0.77099998E+02  0.33645E+02
 0.77149994E+02  0.34546E+02
 0.77199997E+02  0.34757E+02
 0.77249992E+02  0.34304E+02
 0.77299995E+02  0.34336E+02
 0.77349998E+02  0.34302E+02
 0.77399994E+02  0.33036E+02
 0.77449997E+02  0.34340E+02
 0.77499992E+02  0.33871E+02
 0.77549995E+02  0.33536E+02
 0.77599998E+02  0.32948E+02
 0.77649994E+02  0.33515E+02
 0.77699997E+02  0.35326E+02
 0.77749992E+02  0.33196E+02
 0.77799995E+02  0.33004E+02
 0.77849998E+02  0.35027E+02
 0.77899994E+02  0.33052E+02
 0.77949997E+02  0.33626E+02
 0.77999992E+02  0.34806E+02
 0.78049995E+02  0.35083E+02
 0.78099998E+02  0.35621E+02
 0.78149994E+02  0.34283E+02
 0.78199997E+02  0.36039E+02
 0.78249992E+02  0.34597E+02
 0.78299995E+02  0.34345E+02
 0.78349998E+02  0.34358E+02
 0.78399994E+02  0.33917E+02
 0.78449997E+02  0.34918E+02
 0.78499992E+02  0.33358E+02
 0.78549995E+02  0.35646E+02
 0.78599998E+02  0.35841E+02
 0.78649994E+02  0.35330E+02
 0.78699997E+02  0.35611E+02
 0.78749992E+02  0.35135E+02
 0.78799995E+02  0.35958E+02
 0.78849998E+02  0.33525E+02
 0.78899994E+02  0.33351E+02
 0.78949997E+02  0.35345E+02
 0.78999992E+02  0.34637E+02
 0.79049995E+02  0.34901E+02
 0.79099998E+02  0.35164E+02
 0.79149994E+02  0.33617E+02
 0.79199997E+02  0.34753E+02
 0.79249992E+02  0.34713E+02
 0.79299995E+02  0.34034E+02
 0.79349998E+02  0.33039E+02
 0.79399994E+02  0.33549E+02
 0.79449997E+02  0.34393E+02
 0.79499992E+02  0.33163E+02
 0.79549995E+02  0.34711E+02
 0.79599998E+02  0.34458E+02
 0.79649994E+02  0.32757E+02
 0.79699997E+02  0.33014E+02
 0.79749992E+02  0.33938E+02
 0.79799995E+02  0.33815E+02
 0.79849998E+02  0.33643E+02
 0.79899994E+02  0.33639E+02
 0.79949997E+02  0.34063E+02
 0.79999992E+02  0.33627E+02
 0.80049995E+02  0.33726E+02
 0.80099998E+02  0.35194E+02
 0.80149994E+02  0.33858E+02
 0.80199997E+02  0.35000E+02
 0.80249992E+02  0.35244E+02
 0.80299995E+02  0.34312E+02
 0.80349998E+02  0.35672E+02
 0.80399994E+02  0.33856E+02
 0.80449997E+02  0.33717E+02
 0.80499992E+02  0.34665E+02
 0.80549995E+02  0.34144E+02
 0.80599998E+02  0.34469E+02
 0.80649994E+02  0.34714E+02
 0.80699997E+02  0.34903E+02
 0.80749992E+02  0.33804E+02
 0.80799995E+02  0.35173E+02
 0.80849998E+02  0.34686E+02
 0.80899994E+02  0.33977E+02
 0.80949997E+02  0.34753E+02
 0.80999992E+02  0.34043E+02
 0.81049995E+02  0.34523E+02
 0.81099998E+02  0.33918E+02
 0.81149994E+02  0.34405E+02
 0.81199997E+02  0.33534E+02
 0.81249992E+02  0.34661E+02
 0.81299995E+02  0.33686E+02
 0.81349998E+02  0.33825E+02
 0.81399994E+02  0.34354E+02
 0.81449997E+02  0.33665E+02
 0.81499992E+02  0.34908E+02
 0.81549995E+02  0.34199E+02
 0.81599998E+02  0.34246E+02
 0.81649994E+02  0.33553E+02
 0.81699997E+02  0.33351E+02
 0.81749992E+02  0.32714E+02
 0.81799995E+02  0.33577E+02
 0.81849998E+02  0.33953E+02
 0.81899994E+02  0.34231E+02
 0.81949997E+02  0.33838E+02
 0.81999992E+02  0.33704E+02
 0.82049995E+02  0.34080E+02
 0.82099998E+02  0.34840E+02
 0.82149994E+02  0.34456E+02
 0.82199997E+02  0.33654E+02
 0.82249992E+02  0.34490E+02
 0.82299995E+02  0.33304E+02
 0.82349998E+02  0.34047E+02
 0.82399994E+02  0.34101E+02
 0.82449997E+02  0.33285E+02
 0.82499992E+02  0.33233E+02
 0.82549995E+02  0.33899E+02
 0.82599998E+02  0.33720E+02
 0.82649994E+02  0.33466E+02
 0.82699997E+02  0.34369E+02
 0.82749992E+02  0.33741E+02
 0.82799995E+02  0.34296E+02
 0.82849998E+02  0.33015E+02
 0.82899994E+02  0.33738E+02
 0.82949997E+02  0.33743E+02
 0.82999992E+02  0.33668E+02
 0.83049995E+02  0.34488E+02
 0.83099998E+02  0.33819E+02
 0.83149994E+02  0.34725E+02
 0.83199997E+02  0.35165E+02
 0.83249992E+02  0.35134E+02
 0.83299995E+02  0.33946E+02
 0.83349998E+02  0.33543E+02
 0.83399994E+02  0.33032E+02
 0.83449997E+02  0.34409E+02
 0.83499992E+02  0.33703E+02
 0.83549995E+02  0.34104E+02
 0.83599998E+02  0.34151E+02
 0.83649994E+02  0.32885E+02
 0.83699997E+02  0.33651E+02
 0.83749992E+02  0.33911E+02
 0.83799995E+02  0.34202E+02
 0.83849998E+02  0.33834E+02
 0.83899994E+02  0.33946E+02
 0.83949997E+02  0.32428E+02
 0.83999992E+02  0.34644E+02
 0.84049995E+02  0.34380E+02
 0.84099998E+02  0.33144E+02
 0.84149994E+02  0.34158E+02
 0.84199997E+02  0.32578E+02
 0.84249992E+02  0.32741E+02
 0.84299995E+02  0.32074E+02
 0.84349998E+02  0.33663E+02
 0.84399994E+02  0.34133E+02
 0.84449997E+02  0.34187E+02
 0.84499992E+02  0.33682E+02
 0.84549995E+02  0.33416E+02
 0.84599998E+02  0.34147E+02
 0.84649994E+02  0.34059E+02
 0.84699997E+02  0.33647E+02
 0.84749992E+02  0.34729E+02
 0.84799995E+02  0.34491E+02
 0.84849998E+02  0.33089E+02
 0.84899994E+02  0.33985E+02
 0.84949997E+02  0.34400E+02
 0.84999992E+02  0.34725E+02
 0.85049995E+02  0.33480E+02
 0.85099998E+02  0.32895E+02
 0.85149994E+02  0.34275E+02
 0.85199997E+02  0.34123E+02
 0.85249992E+02  0.33259E+02
 0.85299995E+02  0.33883E+02
 0.85349998E+02  0.33967E+02
 0.85399994E+02  0.33971E+02
 0.85449997E+02  0.34092E+02
 0.85499992E+02  0.34492E+02
 0.85549995E+02  0.32614E+02
 0.85599998E+02  0.32392E+02
 0.85649994E+02  0.33244E+02
 0.85699997E+02  0.33850E+02
 0.85749992E+02  0.34109E+02
 0.85799995E+02  0.34664E+02
 0.85849998E+02  0.34140E+02
 0.85899994E+02  0.32684E+02
 0.85949997E+02  0.33381E+02
 0.85999992E+02  0.33976E+02
 0.86049995E+02  0.35019E+02
 0.86099998E+02  0.34474E+02
 0.86149994E+02  0.34333E+02
 0.86199997E+02  0.33879E+02
 0.86249992E+02  0.34015E+02
 0.86299995E+02  0.34239E+02
 0.86349998E+02  0.33662E+02
 0.86399994E+02  0.34066E+02
 0.86449997E+02  0.33482E+02
 0.86499992E+02  0.33808E+02
 0.86549995E+02  0.34477E+02
 0.86599998E+02  0.34215E+02
 0.86649994E+02  0.34999E+02
 0.86699997E+02  0.33921E+02
 0.86749992E+02  0.34292E+02
 0.86799995E+02  0.34699E+02
 0.86849998E+02  0.34298E+02
 0.86899994E+02  0.35310E+02
 0.86949997E+02  0.34118E+02
 0.86999992E+02  0.34766E+02
 0.87049995E+02  0.34918E+02
 0.87099998E+02  0.34422E+02
 0.87149994E+02  0.34567E+02
 0.87199997E+02  0.34221E+02
 0.87249992E+02  0.33857E+02
 0.87299995E+02  0.33278E+02
 0.87349998E+02  0.33554E+02
 0.87399994E+02  0.35185E+02
 0.87449997E+02  0.34671E+02
 0.87499992E+02  0.33186E+02
 0.87549995E+02  0.34354E+02
 0.87599991E+02  0.33686E+02
 0.87649994E+02  0.34212E+02
 0.87699997E+02  0.34889E+02
 0.87749992E+02  0.34010E+02
 0.87799995E+02  0.34643E+02
 0.87849991E+02  0.33892E+02
 0.87899994E+02  0.34013E+02
 0.87949997E+02  0.33586E+02
 0.87999992E+02  0.34112E+02
 0.88049995E+02  0.33315E+02
 0.88099991E+02  0.33373E+02
 0.88149994E+02  0.34801E+02
 0.88199997E+02  0.34553E+02
 0.88249992E+02  0.35207E+02
 0.88299995E+02  0.34458E+02
 0.88349991E+02  0.34576E+02
 0.88399994E+02  0.33519E+02
 0.88449997E+02  0.35167E+02
 0.88499992E+02  0.34788E+02
 0.88549995E+02  0.34720E+02
 0.88599991E+02  0.34671E+02
 0.88649994E+02  0.33006E+02
 0.88699997E+02  0.33621E+02
 0.88749992E+02  0.34118E+02
 0.88799995E+02  0.34296E+02
 0.88849991E+02  0.33818E+02
 0.88899994E+02  0.34097E+02
 0.88949997E+02  0.33949E+02
 0.88999992E+02  0.34477E+02
 0.89049995E+02  0.33945E+02
 0.89099991E+02  0.33424E+02
 0.89149994E+02  0.33761E+02
 0.89199997E+02  0.34612E+02
 0.89249992E+02  0.34199E+02
 0.89299995E+02  0.33872E+02
 0.89349991E+02  0.33385E+02
 0.89399994E+02  0.33988E+02
 0.89449997E+02  0.34351E+02
 0.89499992E+02  0.34398E+02
 0.89549995E+02  0.34293E+02
 0.89599991E+02  0.34167E+02
 0.89649994E+02  0.35248E+02
 0.89699997E+02  0.34178E+02
 0.89749992E+02  0.35399E+02
 0.89799995E+02  0.34568E+02
 0.89849991E+02  0.33814E+02
 0.89899994E+02  0.34600E+02
 0.89949997E+02  0.34093E+02
 0.89999992E+02  0.34722E+02
 0.90049995E+02  0.33599E+02
 0.90099991E+02  0.33303E+02
 0.90149994E+02  0.33760E+02
 0.90199997E+02  0.33827E+02
 0.90249992E+02  0.33200E+02
 0.90299995E+02  0.32665E+02
 0.90349991E+02  0.34989E+02
 0.90399994E+02  0.35858E+02
 0.90449997E+02  0.34455E+02
 0.90499992E+02  0.34793E+02
 0.90549995E+02  0.33886E+02
 0.90599991E+02  0.33909E+02
 0.90649994E+02  0.33011E+02
 0.90699997E+02  0.33278E+02
 0.90749992E+02  0.34638E+02
 0.90799995E+02  0.33816E+02
 0.90849991E+02  0.34020E+02
 0.90899994E+02  0.33350E+02
 0.90949997E+02  0.35735E+02
 0.90999992E+02  0.35207E+02
 0.91049995E+02  0.33874E+02
 0.91099991E+02  0.34670E+02
 0.91149994E+02  0.34210E+02
 0.91199997E+02  0.34335E+02
 0.91249992E+02  0.34783E+02
 0.91299995E+02  0.34663E+02
 0.91349991E+02  0.34056E+02
 0.91399994E+02  0.34503E+02
 0.91449997E+02  0.33741E+02
 0.91499992E+02  0.34717E+02
 0.91549995E+02  0.34596E+02
 0.91599991E+02  0.33706E+02
 0.91649994E+02  0.34736E+02
 0.91699997E+02  0.33681E+02
 0.91749992E+02  0.33930E+02
 0.91799995E+02  0.32927E+02
 0.91849991E+02  0.32078E+02
 0.91899994E+02  0.34236E+02
 0.91949997E+02  0.34114E+02
 0.91999992E+02  0.34216E+02
 0.92049995E+02  0.36258E+02
 0.92099991E+02  0.34596E+02
 0.92149994E+02  0.34035E+02
 0.92199997E+02  0.34940E+02
 0.92249992E+02  0.33245E+02
 0.92299995E+02  0.33979E+02
 0.92349991E+02  0.34118E+02
 0.92399994E+02  0.33820E+02
 0.92449997E+02  0.33755E+02
 0.92499992E+02  0.33595E+02
 0.92549995E+02  0.36206E+02
 0.92599991E+02  0.36273E+02
 0.92649994E+02  0.34878E+02
 0.92699997E+02  0.33669E+02
 0.92749992E+02  0.34348E+02
 0.92799995E+02  0.35441E+02
 0.92849991E+02  0.34905E+02
 0.92899994E+02  0.33432E+02
 0.92949997E+02  0.34068E+02
 0.92999992E+02  0.34538E+02
 0.93049995E+02  0.34213E+02
 0.93099991E+02  0.35509E+02
 0.93149994E+02  0.34089E+02
 0.93199997E+02  0.34418E+02
 0.93249992E+02  0.34082E+02
 0.93299995E+02  0.34102E+02
 0.93349991E+02  0.35408E+02
 0.93399994E+02  0.34244E+02
 0.93449997E+02  0.34986E+02
 0.93499992E+02  0.35838E+02
 0.93549995E+02  0.33192E+02
 0.93599991E+02  0.35054E+02
 0.93649994E+02  0.35467E+02
 0.93699997E+02  0.34981E+02
 0.93749992E+02  0.34542E+02
 0.93799995E+02  0.33720E+02
 0.93849991E+02  0.34991E+02
 0.93899994E+02  0.35127E+02
 0.93949997E+02  0.33913E+02
 0.93999992E+02  0.34754E+02
 0.94049995E+02  0.34591E+02
 0.94099991E+02  0.34996E+02
 0.94149994E+02  0.35792E+02
 0.94199997E+02  0.34220E+02
 0.94249992E+02  0.35465E+02
 0.94299995E+02  0.33884E+02
 0.94349991E+02  0.34031E+02
 0.94399994E+02  0.34919E+02
 0.94449997E+02  0.34350E+02
 0.94499992E+02  0.34459E+02
 0.94549995E+02  0.35241E+02
 0.94599991E+02  0.33518E+02
 0.94649994E+02  0.33011E+02
 0.94699997E+02  0.33965E+02
 0.94749992E+02  0.34505E+02
 0.94799995E+02  0.33351E+02
 0.94849991E+02  0.32636E+02
 0.94899994E+02  0.34445E+02
 0.94949997E+02  0.34433E+02
 0.94999992E+02  0.33944E+02
 0.95049995E+02  0.34672E+02
 0.95099991E+02  0.35311E+02
 0.95149994E+02  0.33670E+02
 0.95199997E+02  0.35009E+02
 0.95249992E+02  0.34206E+02
 0.95299995E+02  0.33485E+02
 0.95349991E+02  0.35671E+02
 0.95399994E+02  0.34750E+02
 0.95449997E+02  0.33870E+02
 0.95499992E+02  0.34215E+02
 0.95549995E+02  0.34567E+02
 0.95599991E+02  0.34927E+02
 0.95649994E+02  0.33959E+02
 0.95699997E+02  0.35645E+02
 0.95749992E+02  0.35003E+02
 0.95799995E+02  0.34249E+02
 0.95849991E+02  0.34292E+02
 0.95899994E+02  0.33335E+02
 0.95949997E+02  0.34526E+02
 0.95999992E+02  0.34594E+02
 0.96049995E+02  0.34598E+02
 0.96099991E+02  0.33574E+02
 0.96149994E+02  0.33989E+02
 0.96199997E+02  0.33828E+02
 0.96249992E+02  0.33279E+02
 0.96299995E+02  0.32943E+02
 0.96349991E+02  0.34183E+02
 0.96399994E+02  0.34096E+02
 0.96449997E+02  0.33187E+02
 0.96499992E+02  0.34148E+02
 0.96549995E+02  0.33963E+02
 0.96599991E+02  0.34760E+02
 0.96649994E+02  0.35133E+02
 0.96699997E+02  0.35263E+02
 0.96749992E+02  0.34632E+02
 0.96799995E+02  0.33527E+02
 0.96849991E+02  0.34713E+02
 0.96899994E+02  0.34063E+02
 0.96949997E+02  0.34265E+02
 0.96999992E+02  0.34830E+02
 0.97049995E+02  0.34956E+02
 0.97099991E+02  0.34867E+02
 0.97149994E+02  0.33435E+02
 0.97199997E+02  0.35231E+02
 0.97249992E+02  0.35691E+02
 0.97299995E+02  0.33374E+02
 0.97349991E+02  0.34164E+02
 0.97399994E+02  0.34391E+02
 0.97449997E+02  0.33900E+02
 0.97499992E+02  0.34383E+02
 0.97549995E+02  0.34266E+02
 0.97599991E+02  0.34523E+02
 0.97649994E+02  0.34591E+02
 0.97699997E+02  0.33402E+02
 0.97749992E+02  0.33303E+02
 0.97799995E+02  0.34548E+02
 0.97849991E+02  0.34367E+02
 0.97899994E+02  0.34020E+02
 0.97949997E+02  0.34375E+02
 0.97999992E+02  0.33708E+02
