-0.19969940E+01 -0.14908E+05
-0.19469941E+01 -0.14867E+05
-0.18969940E+01 -0.14967E+05
-0.18469940E+01 -0.14980E+05
-0.17969940E+01 -0.15009E+05
-0.17469940E+01 -0.14993E+05
-0.16969941E+01 -0.15010E+05
-0.16469941E+01 -0.15000E+05
-0.15969940E+01 -0.14994E+05
-0.15469940E+01 -0.14986E+05
-0.14969940E+01 -0.14994E+05
-0.14469941E+01 -0.14999E+05
-0.13969941E+01 -0.15005E+05
-0.13469940E+01 -0.15001E+05
-0.12969941E+01 -0.15016E+05
-0.12469940E+01 -0.15034E+05
-0.11969941E+01 -0.15048E+05
-0.11469941E+01 -0.15010E+05
-0.10969940E+01 -0.14994E+05
-0.10469941E+01 -0.14972E+05
-0.99699408E+00 -0.14942E+05
-0.94699407E+00 -0.14929E+05
-0.89699411E+00 -0.14920E+05
-0.84699404E+00 -0.14895E+05
-0.79699409E+00 -0.14909E+05
-0.74699414E+00 -0.14930E+05
-0.69699407E+00 -0.14974E+05
-0.64699411E+00 -0.14997E+05
-0.59699416E+00 -0.14929E+05
-0.54699409E+00 -0.14917E+05
-0.49699414E+00 -0.14900E+05
-0.44699407E+00 -0.14935E+05
-0.39699411E+00 -0.14932E+05
-0.34699416E+00 -0.14917E+05
-0.29699409E+00 -0.14920E+05
-0.24699414E+00 -0.14931E+05
-0.19699407E+00 -0.14948E+05
-0.14699411E+00 -0.14958E+05
-0.96994162E-01 -0.14953E+05
-0.46994090E-01 -0.14967E+05
 0.30058622E-02 -0.15052E+05
 0.53005934E-01 -0.15076E+05
 0.10300589E+00 -0.15109E+05
 0.15300584E+00 -0.15078E+05
 0.20300579E+00 -0.15055E+05
 0.25300574E+00 -0.15079E+05
 0.30300593E+00 -0.15090E+05
 0.35300589E+00 -0.15090E+05
 0.40300584E+00 -0.15074E+05
 0.45300579E+00 -0.15024E+05
 0.50300574E+00 -0.14949E+05
 0.55300593E+00 -0.14901E+05
 0.60300589E+00 -0.14883E+05
 0.65300584E+00 -0.14856E+05
 0.70300579E+00 -0.14803E+05
 0.75300574E+00 -0.14766E+05
 0.80300570E+00 -0.14760E+05
 0.85300589E+00 -0.14787E+05
 0.90300584E+00 -0.14800E+05
 0.95300579E+00 -0.14806E+05
 0.10030057E+01 -0.14822E+05
 0.10530057E+01 -0.14840E+05
 0.11030059E+01 -0.14832E+05
 0.11530058E+01 -0.14848E+05
 0.12030058E+01 -0.14854E+05
 0.12530057E+01 -0.14855E+05
 0.13030057E+01 -0.14861E+05
 0.13530059E+01 -0.14870E+05
 0.14030058E+01 -0.14861E+05
 0.14530058E+01 -0.14873E+05
 0.15030057E+01 -0.14915E+05
 0.15530057E+01 -0.14966E+05
 0.16030059E+01 -0.15005E+05
 0.16530058E+01 -0.15007E+05
 0.17030058E+01 -0.15028E+05
 0.17530057E+01 -0.15097E+05
 0.18030057E+01 -0.15108E+05
 0.18530056E+01 -0.15143E+05
 0.19030058E+01 -0.15166E+05
 0.19530058E+01 -0.15180E+05
 0.20030057E+01 -0.15171E+05
 0.20530057E+01 -0.15127E+05
 0.21030059E+01 -0.15121E+05
 0.21530056E+01 -0.15062E+05
 0.22030058E+01 -0.15063E+05
 0.22530055E+01 -0.15059E+05
 0.23030057E+01 -0.15064E+05
 0.23530059E+01 -0.15056E+05
 0.24030056E+01 -0.15059E+05
 0.24530058E+01 -0.15065E+05
 0.25030055E+01 -0.15047E+05
 0.25530057E+01 -0.15048E+05
 0.26030059E+01 -0.15058E+05
 0.26530056E+01 -0.15067E+05
 0.27030058E+01 -0.15056E+05
 0.27530055E+01 -0.15032E+05
 0.28030057E+01 -0.14997E+05
 0.28530059E+01 -0.14944E+05
 0.29030056E+01 -0.14912E+05
 0.29530058E+01 -0.14883E+05
 0.30030055E+01 -0.14827E+05
 0.30530057E+01 -0.14797E+05
 0.31030059E+01 -0.14780E+05
 0.31530056E+01 -0.14746E+05
 0.32030058E+01 -0.14717E+05
 0.32530055E+01 -0.14697E+05
 0.33030057E+01 -0.14675E+05
 0.33530059E+01 -0.14714E+05
 0.34030056E+01 -0.14800E+05
 0.34530058E+01 -0.14867E+05
 0.35030055E+01 -0.14901E+05
 0.35530057E+01 -0.14926E+05
 0.36030054E+01 -0.14935E+05
 0.36530056E+01 -0.14921E+05
 0.37030058E+01 -0.14918E+05
 0.37530055E+01 -0.14911E+05
 0.38030057E+01 -0.14887E+05
 0.38530054E+01 -0.14897E+05
 0.39030056E+01 -0.14908E+05
 0.39530058E+01 -0.14946E+05
 0.40030055E+01 -0.14994E+05
 0.40530057E+01 -0.15036E+05
 0.41030054E+01 -0.15056E+05
 0.41530056E+01 -0.15056E+05
 0.42030058E+01 -0.15074E+05
 0.42530055E+01 -0.15073E+05
 0.43030057E+01 -0.15069E+05
 0.43530054E+01 -0.15074E+05
 0.44030056E+01 -0.15065E+05
 0.44530058E+01 -0.15056E+05
 0.45030055E+01 -0.15038E+05
 0.45530057E+01 -0.15028E+05
 0.46030054E+01 -0.15010E+05
 0.46530056E+01 -0.14969E+05
 0.47030058E+01 -0.14940E+05
 0.47530055E+01 -0.14922E+05
 0.48030057E+01 -0.14932E+05
 0.48530054E+01 -0.14945E+05
 0.49030056E+01 -0.14969E+05
 0.49530058E+01 -0.14987E+05
 0.50030055E+01 -0.14966E+05
 0.50530057E+01 -0.14970E+05
 0.51030054E+01 -0.14954E+05
 0.51530056E+01 -0.14934E+05
 0.52030058E+01 -0.14935E+05
 0.52530055E+01 -0.14933E+05
 0.53030057E+01 -0.14938E+05
 0.53530054E+01 -0.14937E+05
 0.54030056E+01 -0.14919E+05
 0.54530053E+01 -0.14913E+05
 0.55030055E+01 -0.14971E+05
 0.55530057E+01 -0.14988E+05
 0.56030054E+01 -0.14978E+05
 0.56530056E+01 -0.15012E+05
 0.57030053E+01 -0.15025E+05
 0.57530055E+01 -0.15002E+05
 0.58030057E+01 -0.14998E+05
 0.58530054E+01 -0.14979E+05
 0.59030056E+01 -0.14959E+05
 0.59530053E+01 -0.14948E+05
 0.60030055E+01 -0.14950E+05
 0.60530052E+01 -0.14943E+05
 0.61030054E+01 -0.14931E+05
 0.61530056E+01 -0.14915E+05
 0.62030058E+01 -0.14896E+05
 0.62530050E+01 -0.14904E+05
 0.63030052E+01 -0.14903E+05
 0.63530054E+01 -0.14908E+05
 0.64030056E+01 -0.14932E+05
 0.64530058E+01 -0.14986E+05
 0.65030050E+01 -0.15033E+05
 0.65530052E+01 -0.15029E+05
 0.66030054E+01 -0.15002E+05
 0.66530056E+01 -0.15012E+05
 0.67030058E+01 -0.15054E+05
 0.67530050E+01 -0.15083E+05
 0.68030052E+01 -0.15087E+05
 0.68530054E+01 -0.15055E+05
 0.69030056E+01 -0.15027E+05
 0.69530058E+01 -0.15010E+05
 0.70030050E+01 -0.15036E+05
 0.70530052E+01 -0.15050E+05
 0.71030054E+01 -0.15058E+05
 0.71530056E+01 -0.15070E+05
 0.72030058E+01 -0.15039E+05
 0.72530050E+01 -0.15048E+05
 0.73030052E+01 -0.15004E+05
 0.73530054E+01 -0.14972E+05
 0.74030056E+01 -0.14914E+05
 0.74530058E+01 -0.14880E+05
 0.75030050E+01 -0.14866E+05
 0.75530052E+01 -0.14817E+05
 0.76030054E+01 -0.14772E+05
 0.76530056E+01 -0.14759E+05
 0.77030058E+01 -0.14741E+05
 0.77530050E+01 -0.14713E+05
 0.78030052E+01 -0.14733E+05
 0.78530054E+01 -0.14701E+05
 0.79030056E+01 -0.14741E+05
 0.79530058E+01 -0.14746E+05
 0.80030050E+01 -0.14765E+05
 0.80530052E+01 -0.14779E+05
 0.81030054E+01 -0.14805E+05
 0.81530056E+01 -0.14883E+05
 0.82030058E+01 -0.14944E+05
 0.82530050E+01 -0.14984E+05
 0.83030052E+01 -0.15002E+05
 0.83530054E+01 -0.15009E+05
 0.84030056E+01 -0.15034E+05
 0.84530058E+01 -0.15093E+05
 0.85030050E+01 -0.15148E+05
 0.85530052E+01 -0.15163E+05
 0.86030054E+01 -0.15138E+05
 0.86530056E+01 -0.15141E+05
 0.87030058E+01 -0.15143E+05
 0.87530050E+01 -0.15152E+05
 0.88030052E+01 -0.15117E+05
 0.88530054E+01 -0.15087E+05
 0.89030056E+01 -0.15072E+05
 0.89530058E+01 -0.15060E+05
 0.90030050E+01 -0.15047E+05
 0.90530052E+01 -0.15033E+05
 0.91030054E+01 -0.14991E+05
 0.91530056E+01 -0.14955E+05
 0.92030048E+01 -0.14925E+05
 0.92530050E+01 -0.14919E+05
 0.93030052E+01 -0.14945E+05
 0.93530054E+01 -0.14939E+05
 0.94030056E+01 -0.14901E+05
 0.94530048E+01 -0.14920E+05
 0.95030050E+01 -0.14937E+05
 0.95530052E+01 -0.14984E+05
 0.96030054E+01 -0.14978E+05
 0.96530056E+01 -0.14934E+05
 0.97030048E+01 -0.14961E+05
 0.97530050E+01 -0.14933E+05
 0.98030052E+01 -0.14957E+05
 0.98530054E+01 -0.14952E+05
 0.99030056E+01 -0.14932E+05
 0.99530048E+01 -0.14936E+05
 0.10003005E+02 -0.14930E+05
 0.10053005E+02 -0.14935E+05
 0.10103005E+02 -0.14981E+05
 0.10153006E+02 -0.14993E+05
 0.10203005E+02 -0.15007E+05
 0.10253005E+02 -0.14997E+05
 0.10303005E+02 -0.14982E+05
 0.10353005E+02 -0.15003E+05
 0.10403006E+02 -0.14994E+05
 0.10453005E+02 -0.15006E+05
 0.10503005E+02 -0.14977E+05
 0.10553005E+02 -0.14964E+05
 0.10603005E+02 -0.14940E+05
 0.10653006E+02 -0.14923E+05
 0.10703005E+02 -0.14904E+05
 0.10753005E+02 -0.14868E+05
 0.10803005E+02 -0.14885E+05
 0.10853005E+02 -0.14885E+05
 0.10903006E+02 -0.14883E+05
 0.10953005E+02 -0.14865E+05
 0.11003005E+02 -0.14832E+05
 0.11053005E+02 -0.14865E+05
 0.11103005E+02 -0.14857E+05
 0.11153006E+02 -0.14870E+05
 0.11203005E+02 -0.14913E+05
 0.11253005E+02 -0.14905E+05
 0.11303005E+02 -0.14922E+05
 0.11353005E+02 -0.14898E+05
 0.11403006E+02 -0.14926E+05
 0.11453005E+02 -0.14919E+05
 0.11503005E+02 -0.14905E+05
 0.11553005E+02 -0.14917E+05
 0.11603005E+02 -0.14933E+05
 0.11653006E+02 -0.14917E+05
 0.11703005E+02 -0.14899E+05
 0.11753005E+02 -0.14915E+05
 0.11803005E+02 -0.14916E+05
 0.11853005E+02 -0.14958E+05
 0.11903006E+02 -0.14942E+05
 0.11953005E+02 -0.14966E+05
 0.12003005E+02 -0.14998E+05
 0.12053005E+02 -0.14988E+05
 0.12103005E+02 -0.14996E+05
 0.12153006E+02 -0.15060E+05
 0.12203005E+02 -0.15100E+05
 0.12253005E+02 -0.15150E+05
 0.12303005E+02 -0.15151E+05
 0.12353005E+02 -0.15137E+05
 0.12403006E+02 -0.15153E+05
 0.12453005E+02 -0.15157E+05
 0.12503005E+02 -0.15161E+05
 0.12553005E+02 -0.15136E+05
 0.12603005E+02 -0.15115E+05
 0.12653005E+02 -0.15071E+05
 0.12703005E+02 -0.15053E+05
 0.12753005E+02 -0.15031E+05
 0.12803005E+02 -0.14998E+05
 0.12853005E+02 -0.14973E+05
 0.12903005E+02 -0.14934E+05
 0.12953005E+02 -0.14925E+05
 0.13003005E+02 -0.14912E+05
 0.13053005E+02 -0.14917E+05
 0.13103005E+02 -0.14886E+05
 0.13153005E+02 -0.14871E+05
 0.13203005E+02 -0.14890E+05
 0.13253005E+02 -0.14884E+05
 0.13303005E+02 -0.14881E+05
 0.13353005E+02 -0.14868E+05
 0.13403005E+02 -0.14857E+05
 0.13453005E+02 -0.14836E+05
 0.13503005E+02 -0.14873E+05
 0.13553005E+02 -0.14869E+05
 0.13603005E+02 -0.14868E+05
 0.13653005E+02 -0.14903E+05
 0.13703005E+02 -0.14902E+05
 0.13753005E+02 -0.14915E+05
 0.13803005E+02 -0.14908E+05
 0.13853005E+02 -0.14945E+05
 0.13903005E+02 -0.14971E+05
 0.13953005E+02 -0.14984E+05
 0.14003005E+02 -0.14991E+05
 0.14053005E+02 -0.14996E+05
 0.14103004E+02 -0.14990E+05
 0.14153006E+02 -0.14986E+05
 0.14203005E+02 -0.15003E+05
 0.14253004E+02 -0.14992E+05
 0.14303005E+02 -0.15013E+05
 0.14353004E+02 -0.14973E+05
 0.14403006E+02 -0.14966E+05
 0.14453005E+02 -0.14959E+05
 0.14503004E+02 -0.14973E+05
 0.14553005E+02 -0.14940E+05
 0.14603004E+02 -0.14896E+05
 0.14653006E+02 -0.14935E+05
 0.14703005E+02 -0.14932E+05
 0.14753004E+02 -0.14926E+05
 0.14803005E+02 -0.14927E+05
 0.14853004E+02 -0.14902E+05
 0.14903006E+02 -0.14902E+05
 0.14953005E+02 -0.14936E+05
 0.15003004E+02 -0.14945E+05
 0.15053005E+02 -0.14973E+05
 0.15103004E+02 -0.14959E+05
 0.15153006E+02 -0.14958E+05
 0.15203005E+02 -0.14915E+05
 0.15253004E+02 -0.14902E+05
 0.15303005E+02 -0.14906E+05
 0.15353004E+02 -0.14928E+05
 0.15403006E+02 -0.14938E+05
 0.15453005E+02 -0.14912E+05
 0.15503004E+02 -0.14892E+05
 0.15553005E+02 -0.14891E+05
 0.15603004E+02 -0.14948E+05
 0.15653006E+02 -0.14971E+05
 0.15703005E+02 -0.14961E+05
 0.15753004E+02 -0.14937E+05
 0.15803005E+02 -0.14957E+05
 0.15853004E+02 -0.14994E+05
 0.15903006E+02 -0.14992E+05
 0.15953005E+02 -0.15019E+05
 0.16003004E+02 -0.15050E+05
 0.16053005E+02 -0.15065E+05
 0.16103004E+02 -0.15088E+05
 0.16153006E+02 -0.15048E+05
 0.16203005E+02 -0.15030E+05
 0.16253004E+02 -0.15025E+05
 0.16303005E+02 -0.15001E+05
 0.16353004E+02 -0.14993E+05
 0.16403006E+02 -0.14957E+05
 0.16453005E+02 -0.14950E+05
 0.16503004E+02 -0.14964E+05
 0.16553005E+02 -0.14919E+05
 0.16603004E+02 -0.14918E+05
 0.16653006E+02 -0.14917E+05
 0.16703005E+02 -0.14894E+05
 0.16753004E+02 -0.14885E+05
 0.16803005E+02 -0.14870E+05
 0.16853004E+02 -0.14879E+05
 0.16903006E+02 -0.14876E+05
 0.16953005E+02 -0.14877E+05
 0.17003004E+02 -0.14870E+05
 0.17053005E+02 -0.14865E+05
 0.17103004E+02 -0.14879E+05
 0.17153006E+02 -0.14878E+05
 0.17203005E+02 -0.14899E+05
 0.17253004E+02 -0.14910E+05
 0.17303005E+02 -0.14903E+05
 0.17353004E+02 -0.14915E+05
 0.17403006E+02 -0.14929E+05
 0.17453005E+02 -0.14936E+05
 0.17503004E+02 -0.14955E+05
 0.17553005E+02 -0.14974E+05
 0.17603004E+02 -0.15003E+05
 0.17653006E+02 -0.15042E+05
 0.17703005E+02 -0.15054E+05
 0.17753004E+02 -0.15052E+05
 0.17803005E+02 -0.15099E+05
 0.17853004E+02 -0.15143E+05
 0.17903006E+02 -0.15147E+05
 0.17953005E+02 -0.15128E+05
 0.18003004E+02 -0.15101E+05
 0.18053005E+02 -0.15072E+05
 0.18103004E+02 -0.15056E+05
 0.18153006E+02 -0.15047E+05
 0.18203005E+02 -0.15010E+05
 0.18253004E+02 -0.14980E+05
 0.18303005E+02 -0.14975E+05
 0.18353004E+02 -0.14943E+05
 0.18403006E+02 -0.14921E+05
 0.18453005E+02 -0.14931E+05
 0.18503004E+02 -0.14930E+05
 0.18553005E+02 -0.14949E+05
 0.18603004E+02 -0.14941E+05
 0.18653006E+02 -0.14991E+05
 0.18703005E+02 -0.14959E+05
 0.18753004E+02 -0.14972E+05
 0.18803005E+02 -0.14920E+05
 0.18853004E+02 -0.14836E+05
 0.18903006E+02 -0.14722E+05
 0.18953005E+02 -0.14808E+05
 0.19003004E+02 -0.15067E+05
 0.19053005E+02 -0.15117E+05
 0.19103004E+02 -0.15164E+05
 0.19153006E+02 -0.14770E+05
 0.19203005E+02 -0.14695E+05
 0.19253004E+02 -0.14583E+05
 0.19303005E+02 -0.15043E+05
 0.19353004E+02 -0.14703E+05
 0.19403006E+02 -0.14766E+05
 0.19453005E+02 -0.13801E+05
 0.19503004E+02 -0.13965E+05
 0.19553005E+02 -0.15109E+05
 0.19603004E+02 -0.15433E+05
 0.19653006E+02 -0.14631E+05
 0.19703005E+02 -0.14783E+05
 0.19753004E+02 -0.14511E+05
 0.19803005E+02 -0.13547E+05
 0.19853004E+02 -0.18365E+05
 0.19903006E+02 -0.13054E+05
 0.19953005E+02 -0.16732E+05
 0.20003004E+02 -0.13192E+05
 0.20053005E+02 -0.12757E+05
 0.20103004E+02 -0.18345E+05
 0.20153006E+02 -0.16518E+05
 0.20203005E+02 -0.14510E+05
 0.20253004E+02 -0.15324E+05
 0.20303005E+02 -0.14761E+05
 0.20353004E+02 -0.12751E+05
 0.20403004E+02 -0.19945E+05
 0.20453005E+02 -0.11557E+05
 0.20503004E+02 -0.15834E+05
 0.20553005E+02 -0.10590E+05
 0.20603004E+02 -0.14457E+05
 0.20653004E+02 -0.18847E+05
 0.20703005E+02 -0.20637E+05
 0.20753004E+02 -0.14279E+05
 0.20803005E+02 -0.10356E+05
 0.20853004E+02 -0.16654E+05
 0.20903004E+02 -0.12136E+05
 0.20953005E+02 -0.19196E+05
 0.21003004E+02 -0.14665E+05
 0.21053005E+02 -0.11765E+05
 0.21103004E+02 -0.10674E+05
 0.21153004E+02 -0.16651E+05
 0.21203005E+02 -0.18470E+05
 0.21253004E+02 -0.20950E+05
 0.21303005E+02 -0.97308E+04
 0.21353004E+02 -0.10182E+05
 0.21403004E+02 -0.11766E+05
 0.21453005E+02 -0.17971E+05
 0.21503004E+02 -0.17937E+05
 0.21553005E+02 -0.19990E+05
 0.21603004E+02 -0.13976E+05
 0.21653004E+02 -0.91345E+04
 0.21703005E+02 -0.20022E+05
 0.21753004E+02 -0.80720E+04
 0.21803005E+02 -0.21038E+05
 0.21853004E+02 -0.16327E+05
 0.21903004E+02 -0.11512E+05
 0.21953005E+02 -0.10096E+05
 0.22003004E+02 -0.22577E+05
 0.22053005E+02 -0.15988E+05
 0.22103004E+02 -0.15459E+05
 0.22153004E+02 -0.11264E+05
 0.22203005E+02 -0.12694E+05
 0.22253004E+02 -0.22771E+05
 0.22303005E+02 -0.10266E+05
 0.22353004E+02 -0.20306E+05
 0.22403004E+02 -0.80128E+04
 0.22453005E+02 -0.13473E+05
 0.22503004E+02 -0.14360E+05
 0.22553005E+02 -0.20973E+05
 0.22603004E+02 -0.15705E+05
 0.22653004E+02 -0.79528E+04
 0.22703005E+02 -0.17266E+05
 0.22753004E+02 -0.14785E+05
 0.22803005E+02 -0.16650E+05
 0.22853004E+02 -0.19484E+05
 0.22903004E+02 -0.17902E+05
 0.22953005E+02 -0.32173E+04
 0.23003004E+02 -0.45649E+04
 0.23053005E+02 -0.26660E+05
 0.23103004E+02 -0.16377E+05
 0.23153004E+02 -0.81317E+04
 0.23203005E+02 -0.19583E+05
 0.23253004E+02 -0.24201E+05
 0.23303005E+02 -0.16469E+05
 0.23353004E+02 -0.63515E+04
 0.23403004E+02 -0.25308E+05
 0.23453005E+02 -0.16747E+05
 0.23503004E+02 -0.52402E+04
 0.23553005E+02 -0.13988E+05
 0.23603004E+02 -0.12154E+05
 0.23653004E+02 -0.18376E+05
 0.23703005E+02 -0.16592E+05
 0.23753004E+02 -0.14165E+05
 0.23803005E+02 -0.13513E+05
 0.23853004E+02 -0.14567E+05
 0.23903004E+02 -0.20863E+05
 0.23953005E+02 -0.89039E+04
 0.24003004E+02 -0.11639E+05
 0.24053005E+02 -0.15127E+05
 0.24103004E+02 -0.15481E+05
 0.24153004E+02 -0.13005E+05
 0.24203005E+02 -0.11627E+05
 0.24253004E+02 -0.10013E+05
 0.24303005E+02 -0.17007E+05
 0.24353004E+02 -0.23631E+05
 0.24403004E+02 -0.16917E+05
 0.24453005E+02 -0.19822E+05
 0.24503004E+02 -0.16988E+05
 0.24553005E+02 -0.12867E+05
 0.24603004E+02 -0.10897E+05
 0.24653004E+02 -0.12979E+05
 0.24703005E+02 -0.15532E+05
 0.24753004E+02 -0.17464E+05
 0.24803005E+02 -0.14612E+05
 0.24853004E+02 -0.71029E+04
 0.24903004E+02 -0.72504E+04
 0.24953005E+02 -0.16047E+05
 0.25003004E+02 -0.28169E+05
 0.25053005E+02 -0.12353E+05
 0.25103004E+02 -0.13613E+05
 0.25153004E+02 -0.21951E+05
 0.25203005E+02 -0.13235E+05
 0.25253004E+02 -0.14621E+05
 0.25303005E+02 -0.93836E+04
 0.25353004E+02 -0.17502E+05
 0.25403004E+02 -0.18929E+05
 0.25453005E+02 -0.13902E+05
 0.25503004E+02 -0.15291E+05
 0.25553005E+02 -0.16650E+05
 0.25603004E+02 -0.93226E+04
 0.25653004E+02 -0.73774E+04
 0.25703005E+02 -0.16228E+05
 0.25753004E+02 -0.16602E+05
 0.25803005E+02 -0.17385E+05
 0.25853004E+02 -0.21668E+05
 0.25903004E+02 -0.20095E+05
 0.25953005E+02 -0.18908E+05
 0.26003004E+02 -0.12122E+05
 0.26053005E+02 -0.15115E+05
 0.26103004E+02 -0.13610E+05
 0.26153004E+02 -0.90539E+04
 0.26203005E+02 -0.15895E+05
 0.26253004E+02 -0.16041E+05
 0.26303005E+02 -0.18212E+04
 0.26353004E+02 -0.29609E+04
 0.26403004E+02 -0.29714E+05
 0.26453005E+02 -0.20341E+05
 0.26503004E+02 -0.23495E+05
 0.26553005E+02 -0.14858E+05
 0.26603004E+02 -0.75048E+04
 0.26653004E+02 -0.69828E+04
 0.26703005E+02 -0.19179E+05
 0.26753004E+02 -0.20055E+05
 0.26803005E+02 -0.12994E+05
 0.26853004E+02 -0.25142E+05
 0.26903004E+02 -0.18547E+05
 0.26953005E+02 -0.14507E+05
 0.27003004E+02 -0.40829E+04
 0.27053003E+02 -0.10614E+05
 0.27103004E+02 -0.14036E+05
 0.27153004E+02 -0.18375E+05
 0.27203005E+02 -0.17369E+05
 0.27253004E+02 -0.28758E+05
 0.27303003E+02 -0.23769E+05
 0.27353004E+02 -0.55881E+04
 0.27403004E+02  0.16013E+04
 0.27453005E+02 -0.54221E+04
 0.27503004E+02 -0.29751E+05
 0.27553003E+02 -0.23249E+05
 0.27603004E+02 -0.16933E+05
 0.27653004E+02 -0.44225E+04
 0.27703005E+02 -0.14745E+05
 0.27753004E+02 -0.16556E+05
 0.27803003E+02 -0.14446E+05
 0.27853004E+02 -0.12817E+05
 0.27903004E+02 -0.14323E+05
 0.27953005E+02 -0.13788E+05
 0.28003004E+02 -0.11848E+05
 0.28053003E+02 -0.18208E+05
 0.28103004E+02 -0.10923E+05
 0.28153004E+02 -0.29652E+05
 0.28203005E+02 -0.20209E+05
 0.28253004E+02 -0.10331E+05
 0.28303003E+02 -0.35462E+04
 0.28353004E+02 -0.88303E+04
 0.28403004E+02 -0.17213E+05
 0.28453005E+02 -0.22363E+05
 0.28503004E+02 -0.21788E+05
 0.28553003E+02 -0.30187E+04
 0.28603004E+02 -0.21450E+05
 0.28653004E+02 -0.22458E+05
 0.28703005E+02 -0.44310E+04
 0.28753004E+02 -0.10244E+05
 0.28803003E+02 -0.16688E+05
 0.28853004E+02 -0.11036E+05
 0.28903004E+02 -0.15319E+05
 0.28953005E+02 -0.17719E+05
 0.29003004E+02 -0.16990E+05
 0.29053003E+02 -0.23993E+05
 0.29103004E+02 -0.16769E+05
 0.29153004E+02 -0.89480E+04
 0.29203005E+02 -0.78454E+04
 0.29253004E+02 -0.60542E+04
 0.29303003E+02 -0.10065E+05
 0.29353004E+02 -0.22196E+05
 0.29403004E+02 -0.14687E+05
 0.29453005E+02 -0.18494E+05
 0.29503004E+02 -0.22039E+05
 0.29553003E+02 -0.16930E+05
 0.29603004E+02 -0.27700E+05
 0.29653004E+02 -0.13270E+05
 0.29703005E+02 -0.11714E+05
 0.29753004E+02 -0.11929E+05
 0.29803003E+02 -0.11357E+05
 0.29853004E+02 -0.19010E+05
 0.29903004E+02 -0.19183E+04
 0.29953005E+02 -0.89488E+04
 0.30003004E+02 -0.23561E+05
 0.30053005E+02 -0.22860E+05
 0.30103004E+02 -0.91451E+04
 0.30153004E+02 -0.94913E+04
 0.30203003E+02 -0.25526E+05
 0.30253002E+02 -0.18264E+05
 0.30303005E+02 -0.97334E+04
 0.30353004E+02 -0.67912E+04
 0.30403004E+02 -0.27238E+05
 0.30453003E+02 -0.16400E+05
 0.30503002E+02  0.59895E+04
 0.30553005E+02 -0.51602E+04
 0.30603004E+02 -0.14531E+05
 0.30653004E+02 -0.27152E+05
 0.30703003E+02 -0.27036E+05
 0.30753002E+02 -0.21162E+05
 0.30803005E+02 -0.84169E+04
 0.30853004E+02 -0.93592E+04
 0.30903004E+02 -0.13120E+05
 0.30953003E+02 -0.20953E+05
 0.31003002E+02 -0.15154E+05
 0.31053005E+02 -0.82367E+04
 0.31103004E+02 -0.11313E+05
 0.31153004E+02 -0.15410E+05
 0.31203003E+02 -0.15884E+05
 0.31253002E+02 -0.16812E+05
 0.31303005E+02 -0.26995E+05
 0.31353004E+02 -0.13077E+05
 0.31403004E+02 -0.48996E+04
 0.31453003E+02 -0.48696E+04
 0.31503002E+02 -0.91209E+04
 0.31553005E+02 -0.17055E+05
 0.31603004E+02 -0.22066E+05
 0.31653004E+02 -0.11818E+05
 0.31703003E+02 -0.27277E+05
 0.31753002E+02 -0.30351E+05
 0.31803005E+02 -0.15812E+05
 0.31853004E+02 -0.17493E+05
 0.31903004E+02 -0.11983E+05
 0.31953003E+02 -0.14192E+05
 0.32003002E+02 -0.85662E+04
 0.32053005E+02 -0.10071E+05
 0.32103004E+02 -0.26417E+05
 0.32153004E+02 -0.22310E+05
 0.32203003E+02 -0.18206E+05
 0.32253002E+02 -0.11742E+05
 0.32303005E+02 -0.11135E+05
 0.32353004E+02 -0.18281E+05
 0.32403004E+02 -0.10070E+05
 0.32453003E+02 -0.25544E+05
 0.32503002E+02 -0.26310E+05
 0.32553005E+02 -0.28155E+05
 0.32603004E+02 -0.23209E+05
 0.32653004E+02  0.69180E+04
 0.32703003E+02  0.83444E+04
 0.32753002E+02 -0.19149E+04
 0.32803005E+02 -0.11444E+05
 0.32853004E+02 -0.26861E+05
 0.32903004E+02 -0.28872E+05
 0.32953003E+02 -0.41936E+04
 0.33003002E+02 -0.17596E+04
 0.33053005E+02 -0.41579E+05
 0.33103004E+02 -0.27562E+05
 0.33153004E+02 -0.69286E+04
 0.33203003E+02  0.75667E+04
 0.33253002E+02  0.41284E+05
 0.33303005E+02  0.65104E+04
 0.33353004E+02 -0.45690E+05
 0.33403004E+02 -0.41626E+05
 0.33453003E+02  0.11296E+04
 0.33503002E+02 -0.42278E+05
 0.33553005E+02 -0.34774E+05
 0.33603004E+02  0.32970E+05
 0.33653004E+02  0.19017E+05
 0.33703003E+02 -0.32677E+05
 0.33753002E+02 -0.64864E+05
 0.33803005E+02 -0.17882E+05
 0.33853004E+02 -0.20343E+05
 0.33903004E+02 -0.38669E+05
 0.33953003E+02 -0.35289E+05
 0.34003002E+02  0.90609E+03
 0.34053005E+02  0.35409E+05
 0.34103004E+02 -0.75876E+04
 0.34153004E+02 -0.42882E+05
 0.34203003E+02 -0.71685E+04
 0.34253002E+02  0.27352E+05
 0.34303005E+02 -0.35088E+05
 0.34353004E+02 -0.53028E+05
 0.34403004E+02 -0.20778E+05
 0.34453003E+02 -0.23466E+05
 0.34503002E+02 -0.28781E+05
 0.34553005E+02 -0.19530E+04
 0.34603004E+02  0.22165E+05
 0.34653004E+02 -0.91736E+04
 0.34703003E+02 -0.30981E+05
 0.34753002E+02 -0.21499E+05
 0.34803005E+02 -0.87447E+04
 0.34853004E+02 -0.26518E+05
 0.34903004E+02 -0.37643E+05
 0.34953003E+02 -0.14105E+05
 0.35003002E+02 -0.15943E+04
 0.35053005E+02 -0.14216E+05
 0.35103004E+02  0.13101E+05
 0.35153004E+02  0.15935E+05
 0.35203003E+02 -0.17653E+05
 0.35253002E+02 -0.38708E+05
 0.35303005E+02 -0.19038E+05
 0.35353004E+02  0.82852E+04
 0.35403004E+02 -0.26139E+05
 0.35453003E+02 -0.39002E+05
 0.35503002E+02 -0.46197E+05
 0.35553005E+02 -0.31980E+04
 0.35603004E+02  0.61614E+04
 0.35653004E+02  0.45217E+05
 0.35703003E+02  0.30355E+05
 0.35753002E+02 -0.77400E+05
 0.35803005E+02 -0.11648E+06
 0.35853004E+02 -0.35749E+05
 0.35903004E+02  0.67120E+05
 0.35953003E+02  0.51440E+05
 0.36003002E+02 -0.90507E+04
 0.36053005E+02 -0.34073E+05
 0.36103004E+02 -0.31117E+05
 0.36153004E+02 -0.56327E+05
 0.36203003E+02 -0.33554E+04
 0.36253002E+02 -0.11752E+05
 0.36303005E+02 -0.36520E+05
 0.36353004E+02 -0.62997E+04
 0.36403004E+02  0.24850E+05
 0.36453003E+02  0.22424E+05
 0.36503002E+02 -0.48317E+05
 0.36553005E+02 -0.64075E+05
 0.36603004E+02 -0.57751E+05
 0.36653004E+02  0.13096E+05
 0.36703003E+02  0.19693E+05
 0.36753002E+02 -0.12714E+05
 0.36803005E+02 -0.41042E+05
 0.36853004E+02 -0.59745E+05
 0.36903004E+02  0.13195E+05
 0.36953003E+02  0.63639E+04
 0.37003002E+02  0.17512E+05
 0.37053005E+02 -0.28183E+05
 0.37103004E+02 -0.84416E+05
 0.37153004E+02 -0.95432E+03
 0.37203003E+02  0.32348E+05
 0.37253002E+02  0.75155E+04
 0.37303005E+02 -0.26414E+05
 0.37353004E+02 -0.28127E+05
 0.37403004E+02  0.10418E+05
 0.37453003E+02 -0.26725E+05
 0.37503002E+02 -0.46787E+05
 0.37553005E+02 -0.60159E+05
 0.37603004E+02 -0.24319E+05
 0.37653004E+02  0.22389E+05
 0.37703003E+02  0.93098E+04
 0.37753002E+02  0.79573E+04
 0.37803005E+02 -0.11739E+05
 0.37853004E+02 -0.25900E+05
 0.37903004E+02 -0.27996E+05
 0.37953003E+02  0.62118E+03
 0.38003002E+02 -0.20359E+05
 0.38053005E+02 -0.32850E+05
 0.38103004E+02 -0.37795E+05
 0.38153004E+02 -0.50790E+04
 0.38203003E+02  0.17572E+05
 0.38253002E+02  0.42365E+04
 0.38303005E+02 -0.16928E+05
 0.38353004E+02 -0.48979E+05
 0.38403004E+02 -0.25133E+05
 0.38453003E+02  0.51091E+04
 0.38503002E+02  0.46676E+02
 0.38553005E+02 -0.27522E+05
 0.38603004E+02 -0.75540E+04
 0.38653004E+02  0.99498E+03
 0.38703003E+02 -0.80868E+04
 0.38753002E+02 -0.31081E+05
 0.38803005E+02 -0.42042E+05
 0.38853004E+02 -0.36437E+05
 0.38903004E+02  0.48169E+04
 0.38953003E+02  0.35126E+05
 0.39003002E+02 -0.14291E+05
 0.39053005E+02 -0.45663E+05
 0.39103004E+02 -0.30773E+05
 0.39153004E+02  0.11901E+05
 0.39203003E+02  0.22771E+05
 0.39253002E+02  0.21132E+05
 0.39303005E+02 -0.25518E+05
 0.39353004E+02 -0.35402E+05
 0.39403004E+02 -0.14882E+05
 0.39453003E+02 -0.21685E+05
 0.39503002E+02 -0.41090E+05
 0.39553005E+02 -0.27669E+05
 0.39603004E+02 -0.12113E+05
 0.39653004E+02 -0.36770E+05
 0.39703003E+02 -0.20999E+05
 0.39753002E+02 -0.13453E+05
 0.39803005E+02 -0.72620E+04
 0.39853004E+02  0.33518E+04
 0.39903004E+02 -0.34916E+04
 0.39953003E+02 -0.31755E+05
 0.40003002E+02 -0.24148E+05
 0.40053005E+02 -0.11407E+05
 0.40103004E+02 -0.14524E+05
 0.40153004E+02 -0.85697E+04
 0.40203003E+02 -0.54470E+04
 0.40253002E+02 -0.14018E+05
 0.40303005E+02 -0.10119E+05
 0.40353004E+02 -0.20975E+05
 0.40403004E+02 -0.41098E+05
 0.40453003E+02 -0.36158E+05
 0.40503002E+02 -0.13760E+05
 0.40553005E+02 -0.43528E+04
 0.40603004E+02  0.15953E+03
 0.40653004E+02 -0.18322E+05
 0.40703003E+02 -0.31354E+05
 0.40753002E+02 -0.18718E+05
 0.40803005E+02 -0.26107E+05
 0.40853004E+02 -0.23918E+05
 0.40903004E+02 -0.23115E+05
 0.40953003E+02  0.16344E+04
 0.41003002E+02 -0.75011E+03
 0.41053005E+02 -0.28455E+05
 0.41103004E+02 -0.17656E+05
 0.41153004E+02  0.16699E+04
 0.41203003E+02  0.44553E+04
 0.41253002E+02  0.19361E+05
 0.41303005E+02  0.75510E+04
 0.41353004E+02 -0.23468E+05
 0.41403004E+02 -0.26730E+05
 0.41453003E+02 -0.23670E+05
 0.41503002E+02 -0.14191E+05
 0.41553005E+02  0.85305E+04
 0.41603004E+02  0.54782E+04
 0.41653004E+02 -0.17519E+05
 0.41703003E+02 -0.36584E+05
 0.41753002E+02 -0.30464E+05
 0.41803005E+02  0.69187E+04
 0.41853004E+02 -0.72528E+04
 0.41903004E+02 -0.30006E+05
 0.41953003E+02 -0.16399E+05
 0.42003002E+02 -0.14701E+05
 0.42053005E+02 -0.35013E+05
 0.42103004E+02 -0.41320E+05
 0.42153004E+02 -0.22199E+05
 0.42203003E+02 -0.53173E+03
 0.42253002E+02 -0.85674E+04
 0.42303005E+02 -0.13696E+05
 0.42353004E+02 -0.57620E+04
 0.42403004E+02 -0.13915E+05
 0.42453003E+02 -0.24842E+05
 0.42503002E+02 -0.41358E+05
 0.42553005E+02 -0.50368E+05
 0.42603004E+02 -0.35031E+05
 0.42653004E+02 -0.10809E+05
 0.42703003E+02 -0.56990E+04
 0.42753002E+02  0.42985E+03
 0.42803001E+02 -0.16465E+04
 0.42853004E+02 -0.21958E+04
 0.42903004E+02 -0.76399E+04
 0.42953003E+02 -0.17552E+05
 0.43003002E+02 -0.26667E+05
 0.43053001E+02 -0.39569E+05
 0.43103004E+02 -0.29788E+05
 0.43153004E+02 -0.46319E+04
 0.43203003E+02  0.21078E+05
 0.43253002E+02  0.15733E+05
 0.43303001E+02 -0.89425E+04
 0.43353004E+02 -0.24967E+05
 0.43403004E+02 -0.31668E+05
 0.43453003E+02 -0.28771E+05
 0.43503002E+02 -0.15726E+04
 0.43553001E+02  0.74474E+04
 0.43603004E+02 -0.22067E+03
 0.43653004E+02 -0.15332E+05
 0.43703003E+02 -0.23404E+05
 0.43753002E+02 -0.25635E+05
 0.43803001E+02 -0.28503E+05
 0.43853004E+02 -0.93922E+04
 0.43903004E+02 -0.73255E+04
 0.43953003E+02  0.10755E+05
 0.44003002E+02 -0.40014E+04
 0.44053001E+02 -0.42728E+04
 0.44103004E+02  0.26739E+04
 0.44153004E+02 -0.47124E+04
 0.44203003E+02 -0.89068E+04
 0.44253002E+02 -0.26190E+05
 0.44303001E+02 -0.14511E+05
 0.44353004E+02 -0.19231E+05
 0.44403004E+02 -0.15310E+05
 0.44453003E+02 -0.15807E+05
 0.44503002E+02 -0.10466E+05
 0.44553001E+02 -0.33850E+05
 0.44603004E+02 -0.63350E+05
 0.44653004E+02 -0.66710E+05
 0.44703003E+02 -0.48784E+05
 0.44753002E+02 -0.26438E+05
 0.44803001E+02 -0.33597E+05
 0.44853004E+02 -0.24847E+05
 0.44903004E+02 -0.88123E+04
 0.44953003E+02  0.40500E+04
 0.45003002E+02 -0.15592E+04
 0.45053001E+02 -0.11299E+05
 0.45103004E+02 -0.71085E+04
 0.45153004E+02 -0.13621E+05
 0.45203003E+02 -0.12433E+05
 0.45253002E+02  0.52272E+04
 0.45303001E+02  0.87956E+04
 0.45353004E+02  0.44906E+02
 0.45403004E+02 -0.72556E+04
 0.45453003E+02 -0.18352E+05
 0.45503002E+02 -0.29595E+05
 0.45553001E+02 -0.24834E+05
 0.45603004E+02 -0.45468E+04
 0.45653004E+02  0.57421E+04
 0.45703003E+02 -0.35307E+04
 0.45753002E+02 -0.25446E+05
 0.45803001E+02 -0.30391E+05
 0.45853004E+02 -0.23638E+05
 0.45903004E+02 -0.19640E+05
 0.45953003E+02 -0.16382E+05
 0.46003002E+02 -0.24659E+05
 0.46053001E+02 -0.20698E+05
 0.46103004E+02 -0.11818E+05
 0.46153004E+02 -0.53617E+04
 0.46203003E+02 -0.68201E+04
 0.46253002E+02 -0.15897E+05
 0.46303001E+02 -0.23392E+05
 0.46353004E+02 -0.11973E+05
 0.46403004E+02 -0.65676E+04
 0.46453003E+02 -0.13492E+05
 0.46503002E+02 -0.18815E+05
 0.46553001E+02 -0.20239E+05
 0.46603004E+02 -0.18989E+05
 0.46653004E+02 -0.25963E+05
 0.46703003E+02 -0.29748E+05
 0.46753002E+02 -0.28164E+05
 0.46803001E+02 -0.11658E+05
 0.46853004E+02 -0.25608E+04
 0.46903004E+02 -0.15331E+05
 0.46953003E+02 -0.19586E+05
 0.47003002E+02 -0.22100E+05
 0.47053001E+02 -0.20064E+05
 0.47103004E+02 -0.10438E+05
 0.47153004E+02 -0.34024E+04
 0.47203003E+02  0.53656E+04
 0.47253002E+02  0.83382E+04
 0.47303001E+02 -0.55131E+04
 0.47353004E+02 -0.16933E+05
 0.47403004E+02 -0.19231E+05
 0.47453003E+02 -0.17104E+05
 0.47503002E+02  0.15021E+04
 0.47553001E+02  0.23119E+04
 0.47603004E+02 -0.78409E+04
 0.47653004E+02 -0.13686E+05
 0.47703003E+02 -0.75985E+04
 0.47753002E+02 -0.13368E+05
 0.47803001E+02 -0.35133E+05
 0.47853004E+02 -0.40144E+05
 0.47903004E+02 -0.27205E+05
 0.47953003E+02 -0.13120E+05
 0.48003002E+02 -0.91212E+04
 0.48053001E+02 -0.11268E+05
 0.48103004E+02 -0.13062E+05
 0.48153004E+02 -0.16510E+05
 0.48203003E+02 -0.66869E+04
 0.48253002E+02  0.25249E+04
 0.48303001E+02 -0.48744E+03
 0.48353004E+02 -0.10174E+04
 0.48403004E+02 -0.13443E+05
 0.48453003E+02 -0.20806E+05
 0.48503002E+02 -0.18818E+05
 0.48553001E+02 -0.31474E+05
 0.48603004E+02 -0.49333E+05
 0.48653004E+02 -0.45129E+05
 0.48703003E+02 -0.33105E+05
 0.48753002E+02 -0.22303E+05
 0.48803001E+02 -0.10493E+05
 0.48853004E+02 -0.63527E+04
 0.48903004E+02 -0.28688E+04
 0.48953003E+02  0.78999E+04
 0.49003002E+02  0.85591E+04
 0.49053001E+02 -0.86922E+04
 0.49103004E+02 -0.20542E+05
 0.49153004E+02 -0.25545E+05
 0.49203003E+02 -0.27163E+05
 0.49253002E+02 -0.19669E+05
 0.49303001E+02 -0.12703E+05
 0.49353004E+02 -0.17449E+04
 0.49403004E+02  0.69701E+04
 0.49453003E+02  0.16606E+05
 0.49503002E+02  0.12160E+05
 0.49553001E+02 -0.11498E+05
 0.49603004E+02 -0.24147E+05
 0.49653004E+02 -0.29183E+05
 0.49703003E+02 -0.30049E+05
 0.49753002E+02 -0.26320E+05
 0.49803001E+02 -0.20656E+05
 0.49853004E+02 -0.12126E+05
 0.49903004E+02 -0.16186E+05
 0.49953003E+02 -0.21534E+05
 0.50003002E+02 -0.22268E+05
 0.50053001E+02 -0.29988E+05
 0.50103004E+02 -0.21016E+05
 0.50153004E+02 -0.15274E+05
 0.50203003E+02 -0.12543E+05
 0.50253002E+02 -0.10206E+05
 0.50303001E+02 -0.83234E+04
 0.50353004E+02 -0.51332E+04
 0.50403004E+02 -0.10912E+05
 0.50453003E+02 -0.12844E+05
 0.50503002E+02 -0.17116E+05
 0.50553001E+02 -0.19525E+05
 0.50603004E+02 -0.25873E+05
 0.50653004E+02 -0.27127E+05
 0.50703003E+02 -0.21240E+05
 0.50753002E+02 -0.14060E+05
 0.50803001E+02 -0.15149E+05
 0.50853004E+02 -0.10768E+05
 0.50903004E+02 -0.32550E+04
 0.50953003E+02 -0.39927E+02
 0.51003002E+02 -0.54859E+03
 0.51053001E+02 -0.12228E+05
 0.51103004E+02 -0.32073E+05
 0.51153004E+02 -0.38198E+05
 0.51203003E+02 -0.32087E+05
 0.51253002E+02 -0.34754E+05
 0.51303001E+02 -0.33209E+05
 0.51353004E+02 -0.27691E+05
 0.51403004E+02 -0.14199E+05
 0.51453003E+02 -0.13504E+05
 0.51503002E+02 -0.11887E+05
 0.51553001E+02 -0.21111E+04
 0.51603004E+02 -0.29396E+04
 0.51653004E+02 -0.10258E+05
 0.51703003E+02 -0.15590E+05
 0.51753002E+02 -0.15927E+05
 0.51803001E+02 -0.14282E+05
 0.51853004E+02 -0.15293E+05
 0.51903004E+02 -0.97588E+04
 0.51953003E+02  0.27470E+04
 0.52003002E+02  0.71548E+04
 0.52053001E+02  0.31766E+04
 0.52103004E+02 -0.22100E+04
 0.52153004E+02 -0.95984E+04
 0.52203003E+02 -0.14506E+05
 0.52253002E+02 -0.16798E+05
 0.52303001E+02 -0.19941E+05
 0.52353004E+02 -0.19304E+05
 0.52403004E+02 -0.22076E+05
 0.52453003E+02 -0.30449E+05
 0.52503002E+02 -0.36812E+05
 0.52553001E+02 -0.25094E+05
 0.52603004E+02 -0.23369E+05
 0.52653004E+02 -0.29483E+05
 0.52703003E+02 -0.15100E+05
 0.52753002E+02 -0.28610E+04
 0.52803001E+02 -0.60886E+04
 0.52853004E+02 -0.93222E+04
 0.52903004E+02 -0.83364E+04
 0.52953003E+02 -0.98820E+04
 0.53003002E+02 -0.15756E+05
 0.53053001E+02 -0.17345E+05
 0.53103004E+02 -0.12713E+05
 0.53153004E+02 -0.14343E+05
 0.53203003E+02 -0.13323E+05
 0.53253002E+02 -0.16751E+05
 0.53303001E+02 -0.19515E+05
 0.53353004E+02 -0.17105E+05
 0.53403004E+02 -0.16538E+05
 0.53453003E+02 -0.19831E+05
 0.53503002E+02 -0.17898E+05
 0.53553001E+02 -0.12352E+05
 0.53603004E+02 -0.14474E+05
 0.53653004E+02 -0.14185E+05
 0.53703003E+02 -0.11424E+05
 0.53753002E+02 -0.85168E+04
 0.53803001E+02 -0.12857E+05
 0.53853004E+02 -0.18714E+05
 0.53903004E+02 -0.17651E+05
 0.53953003E+02 -0.13752E+05
 0.54003002E+02 -0.10138E+05
 0.54053001E+02 -0.74541E+04
 0.54103004E+02 -0.69287E+04
 0.54153004E+02 -0.10905E+05
 0.54203003E+02 -0.19124E+05
 0.54253002E+02 -0.20260E+05
 0.54303001E+02 -0.24815E+05
 0.54353004E+02 -0.22338E+05
 0.54403004E+02 -0.18871E+05
 0.54453003E+02 -0.14100E+05
 0.54503002E+02 -0.74065E+04
 0.54553001E+02 -0.22641E+04
 0.54603004E+02  0.94604E+03
 0.54653004E+02 -0.67573E+04
 0.54703003E+02 -0.78396E+04
 0.54753002E+02 -0.15625E+05
 0.54803001E+02 -0.25722E+05
 0.54853004E+02 -0.29760E+05
 0.54903004E+02 -0.26302E+05
 0.54953003E+02 -0.19108E+05
 0.55003002E+02 -0.11187E+05
 0.55053001E+02 -0.17847E+04
 0.55103004E+02  0.96639E+03
 0.55153004E+02 -0.56359E+04
 0.55203003E+02 -0.12642E+05
 0.55253002E+02 -0.17184E+05
 0.55303001E+02 -0.18090E+05
 0.55353004E+02 -0.17179E+05
 0.55403004E+02 -0.16200E+05
 0.55453003E+02 -0.18650E+05
 0.55503002E+02 -0.22826E+05
 0.55553001E+02 -0.23041E+05
 0.55603004E+02 -0.26466E+05
 0.55653004E+02 -0.25771E+05
 0.55703003E+02 -0.23578E+05
 0.55753002E+02 -0.21819E+05
 0.55803001E+02 -0.16463E+05
 0.55853001E+02 -0.66677E+04
 0.55903004E+02 -0.22345E+04
 0.55953003E+02 -0.52106E+04
 0.56003002E+02 -0.82057E+04
 0.56053001E+02 -0.11359E+05
 0.56103001E+02 -0.13705E+05
 0.56153004E+02 -0.19410E+05
 0.56203003E+02 -0.26667E+05
 0.56253002E+02 -0.31706E+05
 0.56303001E+02 -0.28111E+05
 0.56353001E+02 -0.18924E+05
 0.56403004E+02 -0.97523E+04
 0.56453003E+02 -0.45540E+04
 0.56503002E+02 -0.44150E+04
 0.56553001E+02 -0.10666E+05
 0.56603001E+02 -0.13314E+05
 0.56653004E+02 -0.10683E+05
 0.56703003E+02 -0.10932E+05
 0.56753002E+02 -0.13731E+05
 0.56803001E+02 -0.16804E+05
 0.56853001E+02 -0.15030E+05
 0.56903004E+02 -0.86847E+04
 0.56953003E+02 -0.43441E+04
 0.57003002E+02 -0.39791E+04
 0.57053001E+02 -0.49039E+04
 0.57103001E+02 -0.65303E+04
 0.57153004E+02 -0.12961E+05
 0.57203003E+02 -0.23624E+05
 0.57253002E+02 -0.23478E+05
 0.57303001E+02 -0.23568E+05
 0.57353001E+02 -0.28434E+05
 0.57403004E+02 -0.24975E+05
 0.57453003E+02 -0.14390E+05
 0.57503002E+02 -0.14250E+05
 0.57553001E+02 -0.17986E+05
 0.57603001E+02 -0.21933E+05
 0.57653004E+02 -0.21799E+05
 0.57703003E+02 -0.15795E+05
 0.57753002E+02 -0.15402E+05
 0.57803001E+02 -0.11173E+05
 0.57853001E+02 -0.71327E+04
 0.57903004E+02 -0.64974E+04
 0.57953003E+02 -0.13774E+05
 0.58003002E+02 -0.21148E+05
 0.58053001E+02 -0.23608E+05
 0.58103001E+02 -0.20876E+05
 0.58153004E+02 -0.18768E+05
 0.58203003E+02 -0.19477E+05
 0.58253002E+02 -0.16242E+05
 0.58303001E+02 -0.17217E+05
 0.58353001E+02 -0.17442E+05
 0.58403004E+02 -0.17691E+05
 0.58453003E+02 -0.16723E+05
 0.58503002E+02 -0.11645E+05
 0.58553001E+02 -0.89904E+04
 0.58603001E+02 -0.79884E+04
 0.58653004E+02 -0.97131E+04
 0.58703003E+02 -0.14816E+05
 0.58753002E+02 -0.15929E+05
 0.58803001E+02 -0.16670E+05
 0.58853001E+02 -0.19070E+05
 0.58903004E+02 -0.13688E+05
 0.58953003E+02 -0.86128E+04
 0.59003002E+02 -0.88740E+04
 0.59053001E+02 -0.11899E+05
 0.59103001E+02 -0.11738E+05
 0.59153004E+02 -0.11838E+05
 0.59203003E+02 -0.11415E+05
 0.59253002E+02 -0.11404E+05
 0.59303001E+02 -0.13150E+05
 0.59353001E+02 -0.12907E+05
 0.59403004E+02 -0.13754E+05
 0.59453003E+02 -0.89467E+04
 0.59503002E+02 -0.98039E+04
 0.59553001E+02 -0.16194E+05
 0.59603001E+02 -0.19282E+05
 0.59653004E+02 -0.18640E+05
 0.59703003E+02 -0.19123E+05
 0.59753002E+02 -0.20537E+05
 0.59803001E+02 -0.19028E+05
 0.59853001E+02 -0.16500E+05
 0.59903004E+02 -0.17584E+05
 0.59953003E+02 -0.20459E+05
 0.60003002E+02 -0.22580E+05
 0.60053001E+02 -0.21805E+05
 0.60103001E+02 -0.20592E+05
 0.60153004E+02 -0.21765E+05
 0.60203003E+02 -0.13543E+05
 0.60253002E+02 -0.45147E+04
 0.60303001E+02 -0.10841E+04
 0.60353001E+02 -0.82964E+04
 0.60403004E+02 -0.15162E+05
 0.60453003E+02 -0.15404E+05
 0.60503002E+02 -0.16955E+05
 0.60553001E+02 -0.19614E+05
 0.60603001E+02 -0.18787E+05
 0.60653004E+02 -0.16970E+05
 0.60703003E+02 -0.14466E+05
 0.60753002E+02 -0.10101E+05
 0.60803001E+02 -0.89971E+04
 0.60853001E+02 -0.10625E+05
 0.60903004E+02 -0.15823E+05
 0.60953003E+02 -0.17334E+05
 0.61003002E+02 -0.19834E+05
 0.61053001E+02 -0.18432E+05
 0.61103001E+02 -0.15105E+05
 0.61153004E+02 -0.16459E+05
 0.61203003E+02 -0.17638E+05
 0.61253002E+02 -0.17381E+05
 0.61303001E+02 -0.13766E+05
 0.61353001E+02 -0.12151E+05
 0.61403004E+02 -0.12464E+05
 0.61453003E+02 -0.12379E+05
 0.61503002E+02 -0.11233E+05
 0.61553001E+02 -0.10855E+05
 0.61603001E+02 -0.93355E+04
 0.61653004E+02 -0.72140E+04
 0.61703003E+02 -0.73502E+04
 0.61753002E+02 -0.11050E+05
 0.61803001E+02 -0.18507E+05
 0.61853001E+02 -0.23515E+05
 0.61903004E+02 -0.20909E+05
 0.61953003E+02 -0.13646E+05
 0.62003002E+02 -0.86671E+04
 0.62053001E+02 -0.77452E+04
 0.62103004E+02 -0.90120E+04
 0.62153000E+02 -0.12928E+05
 0.62203003E+02 -0.21624E+05
 0.62252998E+02 -0.22889E+05
 0.62303001E+02 -0.19899E+05
 0.62353004E+02 -0.18935E+05
 0.62403000E+02 -0.19024E+05
 0.62453003E+02 -0.18848E+05
 0.62502998E+02 -0.14784E+05
 0.62553001E+02 -0.90203E+04
 0.62603004E+02 -0.82860E+04
 0.62653000E+02 -0.10686E+05
 0.62703003E+02 -0.12667E+05
 0.62752998E+02 -0.15671E+05
 0.62803001E+02 -0.18719E+05
 0.62853004E+02 -0.18443E+05
 0.62903000E+02 -0.15603E+05
 0.62953003E+02 -0.16305E+05
 0.63002998E+02 -0.14038E+05
 0.63053001E+02 -0.18530E+05
 0.63103004E+02 -0.22984E+05
 0.63153000E+02 -0.22125E+05
 0.63203003E+02 -0.21831E+05
 0.63252998E+02 -0.18716E+05
 0.63303001E+02 -0.17324E+05
 0.63353004E+02 -0.16571E+05
 0.63403000E+02 -0.19064E+05
 0.63453003E+02 -0.19580E+05
 0.63502998E+02 -0.17191E+05
 0.63553001E+02 -0.16486E+05
 0.63603004E+02 -0.18891E+05
 0.63653000E+02 -0.16869E+05
 0.63703003E+02 -0.10166E+05
 0.63752998E+02 -0.83734E+04
 0.63803001E+02 -0.58704E+04
 0.63853004E+02 -0.61701E+04
 0.63903000E+02 -0.13035E+05
 0.63953003E+02 -0.18146E+05
 0.64002998E+02 -0.18065E+05
 0.64053001E+02 -0.16424E+05
 0.64103004E+02 -0.16232E+05
 0.64153000E+02 -0.15035E+05
 0.64203003E+02 -0.13942E+05
 0.64252998E+02 -0.13347E+05
 0.64303001E+02 -0.13301E+05
 0.64353004E+02 -0.13179E+05
 0.64403000E+02 -0.93392E+04
 0.64453003E+02 -0.83318E+04
 0.64502998E+02 -0.10969E+05
 0.64553001E+02 -0.12656E+05
 0.64603004E+02 -0.12061E+05
 0.64653000E+02 -0.10815E+05
 0.64703003E+02 -0.89862E+04
 0.64752998E+02 -0.73183E+04
 0.64803001E+02 -0.74617E+04
 0.64853004E+02 -0.83475E+04
 0.64903000E+02 -0.11367E+05
 0.64953003E+02 -0.15949E+05
 0.65002998E+02 -0.15894E+05
 0.65053001E+02 -0.17654E+05
 0.65103004E+02 -0.19545E+05
 0.65153000E+02 -0.17587E+05
 0.65203003E+02 -0.17080E+05
 0.65252998E+02 -0.19398E+05
 0.65303001E+02 -0.20095E+05
 0.65353004E+02 -0.17362E+05
 0.65403000E+02 -0.20201E+05
 0.65453003E+02 -0.22299E+05
 0.65502998E+02 -0.22190E+05
 0.65553001E+02 -0.20035E+05
 0.65603004E+02 -0.18120E+05
 0.65653000E+02 -0.18511E+05
 0.65703003E+02 -0.16862E+05
 0.65752998E+02 -0.16196E+05
 0.65803001E+02 -0.14549E+05
 0.65853004E+02 -0.15832E+05
 0.65903000E+02 -0.17578E+05
 0.65953003E+02 -0.16259E+05
 0.66002998E+02 -0.13384E+05
 0.66053001E+02 -0.10746E+05
 0.66103004E+02 -0.12452E+05
 0.66153000E+02 -0.13168E+05
 0.66203003E+02 -0.13949E+05
 0.66252998E+02 -0.16939E+05
 0.66303001E+02 -0.15193E+05
 0.66353004E+02 -0.10717E+05
 0.66403000E+02 -0.85428E+04
 0.66453003E+02 -0.68063E+04
 0.66502998E+02 -0.66842E+04
 0.66553001E+02 -0.81445E+04
 0.66603004E+02 -0.10774E+05
 0.66653000E+02 -0.13459E+05
 0.66703003E+02 -0.13832E+05
 0.66752998E+02 -0.11981E+05
 0.66803001E+02 -0.12742E+05
 0.66853004E+02 -0.15542E+05
 0.66903000E+02 -0.18162E+05
 0.66953003E+02 -0.17298E+05
 0.67002998E+02 -0.17514E+05
 0.67053001E+02 -0.19872E+05
 0.67103004E+02 -0.18292E+05
 0.67153000E+02 -0.15644E+05
 0.67203003E+02 -0.15171E+05
 0.67252998E+02 -0.14376E+05
 0.67303001E+02 -0.14616E+05
 0.67353004E+02 -0.18621E+05
 0.67403000E+02 -0.20434E+05
 0.67453003E+02 -0.23019E+05
 0.67502998E+02 -0.24785E+05
 0.67553001E+02 -0.25198E+05
 0.67603004E+02 -0.24639E+05
 0.67653000E+02 -0.21425E+05
 0.67703003E+02 -0.18516E+05
 0.67752998E+02 -0.16970E+05
 0.67803001E+02 -0.17145E+05
 0.67853004E+02 -0.16062E+05
 0.67903000E+02 -0.14012E+05
 0.67953003E+02 -0.14699E+05
 0.68002998E+02 -0.14885E+05
 0.68053001E+02 -0.13407E+05
 0.68103004E+02 -0.10785E+05
 0.68153000E+02 -0.77516E+04
 0.68203003E+02 -0.67705E+04
 0.68252998E+02 -0.48589E+04
 0.68303001E+02 -0.20720E+04
 0.68353004E+02 -0.38198E+04
 0.68403000E+02 -0.86728E+04
 0.68453003E+02 -0.10582E+05
 0.68502998E+02 -0.12403E+05
 0.68553001E+02 -0.15085E+05
 0.68603004E+02 -0.16108E+05
 0.68653000E+02 -0.17143E+05
 0.68703003E+02 -0.16546E+05
 0.68752998E+02 -0.15333E+05
 0.68803001E+02 -0.15806E+05
 0.68853004E+02 -0.16753E+05
 0.68903000E+02 -0.17852E+05
 0.68953003E+02 -0.17659E+05
 0.69002998E+02 -0.17542E+05
 0.69053001E+02 -0.19062E+05
 0.69103004E+02 -0.16756E+05
 0.69153000E+02 -0.14427E+05
 0.69203003E+02 -0.15121E+05
 0.69252998E+02 -0.14114E+05
 0.69303001E+02 -0.13869E+05
 0.69353004E+02 -0.13738E+05
 0.69403000E+02 -0.14581E+05
 0.69453003E+02 -0.16251E+05
 0.69502998E+02 -0.16648E+05
 0.69553001E+02 -0.17389E+05
 0.69603004E+02 -0.17638E+05
 0.69653000E+02 -0.16367E+05
 0.69703003E+02 -0.15502E+05
 0.69752998E+02 -0.14043E+05
 0.69803001E+02 -0.13100E+05
 0.69853004E+02 -0.13271E+05
 0.69903000E+02 -0.13678E+05
 0.69953003E+02 -0.14644E+05
 0.70002998E+02 -0.15438E+05
 0.70053001E+02 -0.16295E+05
 0.70103004E+02 -0.16011E+05
 0.70153000E+02 -0.17123E+05
 0.70203003E+02 -0.16522E+05
 0.70252998E+02 -0.14818E+05
 0.70303001E+02 -0.15658E+05
 0.70353004E+02 -0.16176E+05
 0.70403000E+02 -0.14436E+05
 0.70453003E+02 -0.11310E+05
 0.70502998E+02 -0.94065E+04
 0.70553001E+02 -0.92497E+04
 0.70603004E+02 -0.11907E+05
 0.70653000E+02 -0.13206E+05
 0.70703003E+02 -0.13806E+05
 0.70752998E+02 -0.14685E+05
 0.70803001E+02 -0.14140E+05
 0.70853004E+02 -0.14945E+05
 0.70903000E+02 -0.15293E+05
 0.70953003E+02 -0.15146E+05
 0.71002998E+02 -0.14993E+05
 0.71053001E+02 -0.14562E+05
 0.71103004E+02 -0.16140E+05
 0.71153000E+02 -0.17756E+05
 0.71203003E+02 -0.18709E+05
 0.71252998E+02 -0.17663E+05
 0.71303001E+02 -0.18966E+05
 0.71353004E+02 -0.21050E+05
 0.71403000E+02 -0.18388E+05
 0.71453003E+02 -0.15943E+05
 0.71502998E+02 -0.14626E+05
 0.71553001E+02 -0.14188E+05
 0.71603004E+02 -0.13948E+05
 0.71653000E+02 -0.14848E+05
 0.71703003E+02 -0.15982E+05
 0.71752998E+02 -0.14595E+05
 0.71803001E+02 -0.15247E+05
 0.71853004E+02 -0.15998E+05
 0.71903000E+02 -0.16442E+05
 0.71953003E+02 -0.16987E+05
 0.72002998E+02 -0.15551E+05
 0.72053001E+02 -0.14625E+05
 0.72103004E+02 -0.14524E+05
 0.72153000E+02 -0.15754E+05
 0.72203003E+02 -0.14368E+05
 0.72252998E+02 -0.13866E+05
 0.72303001E+02 -0.13186E+05
 0.72353004E+02 -0.11770E+05
 0.72403000E+02 -0.97311E+04
 0.72453003E+02 -0.89551E+04
 0.72502998E+02 -0.11900E+05
 0.72553001E+02 -0.16201E+05
 0.72603004E+02 -0.17150E+05
 0.72653000E+02 -0.14441E+05
 0.72703003E+02 -0.13807E+05
 0.72752998E+02 -0.13309E+05
 0.72803001E+02 -0.12795E+05
 0.72853004E+02 -0.12006E+05
 0.72903000E+02 -0.11965E+05
 0.72953003E+02 -0.12169E+05
 0.73002998E+02 -0.14415E+05
 0.73053001E+02 -0.16244E+05
 0.73103004E+02 -0.15538E+05
 0.73153000E+02 -0.13548E+05
 0.73203003E+02 -0.14361E+05
 0.73252998E+02 -0.16120E+05
 0.73303001E+02 -0.16437E+05
 0.73353004E+02 -0.16253E+05
 0.73403000E+02 -0.16122E+05
 0.73453003E+02 -0.17584E+05
 0.73502998E+02 -0.17645E+05
 0.73553001E+02 -0.17859E+05
 0.73603004E+02 -0.17894E+05
 0.73653000E+02 -0.18034E+05
 0.73703003E+02 -0.17182E+05
 0.73752998E+02 -0.17552E+05
 0.73803001E+02 -0.17622E+05
 0.73853004E+02 -0.16742E+05
 0.73903000E+02 -0.16914E+05
 0.73953003E+02 -0.15323E+05
 0.74002998E+02 -0.13500E+05
 0.74053001E+02 -0.11575E+05
 0.74103004E+02 -0.11018E+05
 0.74153000E+02 -0.11967E+05
 0.74203003E+02 -0.14600E+05
 0.74252998E+02 -0.16213E+05
 0.74303001E+02 -0.18253E+05
 0.74353004E+02 -0.18928E+05
 0.74403000E+02 -0.16233E+05
 0.74453003E+02 -0.16268E+05
 0.74502998E+02 -0.16991E+05
 0.74553001E+02 -0.16755E+05
 0.74603004E+02 -0.14096E+05
 0.74653000E+02 -0.11859E+05
 0.74703003E+02 -0.10418E+05
 0.74752998E+02 -0.10220E+05
 0.74803001E+02 -0.11737E+05
 0.74853004E+02 -0.13604E+05
 0.74903000E+02 -0.15035E+05
 0.74953003E+02 -0.15658E+05
 0.75002998E+02 -0.15909E+05
 0.75053001E+02 -0.15369E+05
 0.75103004E+02 -0.14354E+05
 0.75153000E+02 -0.12835E+05
 0.75203003E+02 -0.12316E+05
 0.75252998E+02 -0.11707E+05
 0.75303001E+02 -0.12592E+05
 0.75353004E+02 -0.13579E+05
 0.75403000E+02 -0.14876E+05
 0.75453003E+02 -0.16325E+05
 0.75502998E+02 -0.17271E+05
 0.75553001E+02 -0.17944E+05
 0.75603004E+02 -0.15745E+05
 0.75653000E+02 -0.14819E+05
 0.75703003E+02 -0.15917E+05
 0.75752998E+02 -0.16414E+05
 0.75803001E+02 -0.15560E+05
 0.75853004E+02 -0.14461E+05
 0.75903000E+02 -0.13482E+05
 0.75953003E+02 -0.14395E+05
 0.76002998E+02 -0.16352E+05
 0.76053001E+02 -0.15958E+05
 0.76103004E+02 -0.16645E+05
 0.76153000E+02 -0.17644E+05
 0.76203003E+02 -0.17495E+05
 0.76252998E+02 -0.16436E+05
 0.76303001E+02 -0.15921E+05
 0.76353004E+02 -0.13885E+05
 0.76403000E+02 -0.11800E+05
 0.76453003E+02 -0.11940E+05
 0.76502998E+02 -0.12468E+05
 0.76553001E+02 -0.13410E+05
 0.76603004E+02 -0.14273E+05
 0.76653000E+02 -0.15654E+05
 0.76703003E+02 -0.16078E+05
 0.76752998E+02 -0.16677E+05
 0.76803001E+02 -0.15713E+05
 0.76853004E+02 -0.16148E+05
 0.76903000E+02 -0.16830E+05
 0.76953003E+02 -0.15549E+05
 0.77002998E+02 -0.15212E+05
 0.77053001E+02 -0.13982E+05
 0.77103004E+02 -0.14407E+05
 0.77153000E+02 -0.14149E+05
 0.77203003E+02 -0.13282E+05
 0.77252998E+02 -0.13549E+05
 0.77303001E+02 -0.13620E+05
 0.77353004E+02 -0.13821E+05
 0.77403000E+02 -0.13631E+05
 0.77453003E+02 -0.13931E+05
 0.77502998E+02 -0.14116E+05
 0.77553001E+02 -0.14024E+05
 0.77603004E+02 -0.12847E+05
 0.77653000E+02 -0.13586E+05
 0.77703003E+02 -0.17177E+05
 0.77752998E+02 -0.20344E+05
 0.77803001E+02 -0.21634E+05
 0.77853004E+02 -0.20392E+05
 0.77903000E+02 -0.18584E+05
 0.77953003E+02 -0.16592E+05
 0.78002998E+02 -0.14321E+05
 0.78053001E+02 -0.13149E+05
 0.78103004E+02 -0.13345E+05
 0.78153000E+02 -0.12652E+05
 0.78203003E+02 -0.12610E+05
 0.78252998E+02 -0.13826E+05
 0.78303001E+02 -0.14749E+05
 0.78353004E+02 -0.14984E+05
 0.78403000E+02 -0.15768E+05
 0.78453003E+02 -0.15343E+05
 0.78502998E+02 -0.13460E+05
 0.78553001E+02 -0.13122E+05
 0.78603004E+02 -0.14625E+05
 0.78653000E+02 -0.16825E+05
 0.78703003E+02 -0.18261E+05
 0.78752998E+02 -0.18570E+05
 0.78803001E+02 -0.17259E+05
 0.78853004E+02 -0.15347E+05
 0.78903000E+02 -0.12773E+05
 0.78953003E+02 -0.11434E+05
 0.79002998E+02 -0.12268E+05
 0.79053001E+02 -0.13701E+05
 0.79103004E+02 -0.14921E+05
 0.79153000E+02 -0.16259E+05
 0.79203003E+02 -0.15615E+05
 0.79252998E+02 -0.13378E+05
 0.79303001E+02 -0.12513E+05
 0.79353004E+02 -0.12140E+05
 0.79403000E+02 -0.12355E+05
 0.79453003E+02 -0.13101E+05
 0.79502998E+02 -0.12951E+05
 0.79553001E+02 -0.13020E+05
 0.79603004E+02 -0.14398E+05
 0.79653000E+02 -0.15166E+05
 0.79703003E+02 -0.15030E+05
 0.79752998E+02 -0.14389E+05
 0.79803001E+02 -0.14119E+05
 0.79853004E+02 -0.13963E+05
 0.79903000E+02 -0.13672E+05
 0.79953003E+02 -0.14579E+05
 0.80002998E+02 -0.15260E+05
 0.80053001E+02 -0.15501E+05
 0.80103004E+02 -0.15712E+05
 0.80153000E+02 -0.15549E+05
 0.80203003E+02 -0.15860E+05
 0.80252998E+02 -0.17620E+05
 0.80303001E+02 -0.18575E+05
 0.80353004E+02 -0.18421E+05
 0.80403000E+02 -0.18348E+05
 0.80453003E+02 -0.18005E+05
 0.80502998E+02 -0.18381E+05
 0.80553001E+02 -0.17421E+05
 0.80603004E+02 -0.16407E+05
 0.80653000E+02 -0.15978E+05
 0.80703003E+02 -0.15776E+05
 0.80752998E+02 -0.15581E+05
 0.80803001E+02 -0.13880E+05
 0.80853004E+02 -0.12941E+05
 0.80903000E+02 -0.12560E+05
 0.80953003E+02 -0.12137E+05
 0.81002998E+02 -0.12277E+05
 0.81053001E+02 -0.12331E+05
 0.81103004E+02 -0.12339E+05
 0.81153000E+02 -0.12307E+05
 0.81203003E+02 -0.12308E+05
 0.81252998E+02 -0.11767E+05
 0.81303001E+02 -0.11336E+05
 0.81353004E+02 -0.11683E+05
 0.81403000E+02 -0.12112E+05
 0.81453003E+02 -0.13198E+05
 0.81502998E+02 -0.14151E+05
 0.81553001E+02 -0.14585E+05
 0.81603004E+02 -0.15657E+05
 0.81653000E+02 -0.17949E+05
 0.81703003E+02 -0.18961E+05
 0.81752998E+02 -0.18859E+05
 0.81803001E+02 -0.18505E+05
 0.81853004E+02 -0.17376E+05
 0.81903000E+02 -0.16567E+05
 0.81953003E+02 -0.16407E+05
 0.82002998E+02 -0.16480E+05
 0.82053001E+02 -0.16911E+05
 0.82103004E+02 -0.17517E+05
 0.82153000E+02 -0.17275E+05
 0.82203003E+02 -0.16523E+05
 0.82252998E+02 -0.15786E+05
 0.82303001E+02 -0.15074E+05
 0.82353004E+02 -0.14272E+05
 0.82403000E+02 -0.14326E+05
 0.82453003E+02 -0.13835E+05
 0.82502998E+02 -0.13155E+05
 0.82553001E+02 -0.13147E+05
 0.82603004E+02 -0.13089E+05
 0.82653000E+02 -0.12815E+05
 0.82703003E+02 -0.13208E+05
 0.82752998E+02 -0.13230E+05
 0.82803001E+02 -0.12209E+05
 0.82853004E+02 -0.11969E+05
 0.82903000E+02 -0.13513E+05
 0.82953003E+02 -0.16154E+05
 0.83002998E+02 -0.17951E+05
 0.83053001E+02 -0.18605E+05
 0.83103004E+02 -0.18546E+05
 0.83153000E+02 -0.17837E+05
 0.83203003E+02 -0.16138E+05
 0.83252998E+02 -0.14675E+05
 0.83303001E+02 -0.14322E+05
 0.83353004E+02 -0.14385E+05
 0.83403000E+02 -0.14656E+05
 0.83453003E+02 -0.14864E+05
 0.83502998E+02 -0.14340E+05
 0.83553001E+02 -0.14096E+05
 0.83603004E+02 -0.14321E+05
 0.83653000E+02 -0.14486E+05
 0.83703003E+02 -0.14040E+05
 0.83752998E+02 -0.13330E+05
 0.83803001E+02 -0.13185E+05
 0.83853004E+02 -0.14900E+05
 0.83903000E+02 -0.17295E+05
 0.83953003E+02 -0.18175E+05
 0.84002998E+02 -0.17405E+05
 0.84053001E+02 -0.16020E+05
 0.84103004E+02 -0.16216E+05
 0.84153000E+02 -0.17570E+05
 0.84203003E+02 -0.17869E+05
 0.84252998E+02 -0.16921E+05
 0.84303001E+02 -0.15487E+05
 0.84353004E+02 -0.14336E+05
 0.84403000E+02 -0.13764E+05
 0.84453003E+02 -0.13755E+05
 0.84502998E+02 -0.14393E+05
 0.84553001E+02 -0.15015E+05
 0.84603004E+02 -0.16095E+05
 0.84653000E+02 -0.17184E+05
 0.84703003E+02 -0.16573E+05
 0.84752998E+02 -0.14562E+05
 0.84803001E+02 -0.13292E+05
 0.84853004E+02 -0.12266E+05
 0.84903000E+02 -0.11588E+05
 0.84953003E+02 -0.12021E+05
 0.85002998E+02 -0.12126E+05
 0.85053001E+02 -0.12567E+05
 0.85103004E+02 -0.12886E+05
 0.85153000E+02 -0.13053E+05
 0.85203003E+02 -0.13332E+05
 0.85252998E+02 -0.13747E+05
 0.85303001E+02 -0.14320E+05
 0.85353004E+02 -0.13983E+05
 0.85403000E+02 -0.13826E+05
 0.85453003E+02 -0.14200E+05
 0.85502998E+02 -0.15191E+05
 0.85553001E+02 -0.15752E+05
 0.85603004E+02 -0.16446E+05
 0.85653000E+02 -0.17395E+05
 0.85703003E+02 -0.16993E+05
 0.85752998E+02 -0.15574E+05
 0.85803001E+02 -0.13594E+05
 0.85853004E+02 -0.12599E+05
 0.85903000E+02 -0.13624E+05
 0.85953003E+02 -0.15163E+05
 0.86002998E+02 -0.16222E+05
 0.86053001E+02 -0.16725E+05
 0.86103004E+02 -0.16584E+05
 0.86153000E+02 -0.16405E+05
 0.86203003E+02 -0.16286E+05
 0.86252998E+02 -0.16206E+05
 0.86303001E+02 -0.15410E+05
 0.86353004E+02 -0.15902E+05
 0.86403000E+02 -0.16629E+05
 0.86453003E+02 -0.16653E+05
 0.86502998E+02 -0.16071E+05
 0.86553001E+02 -0.14732E+05
 0.86603004E+02 -0.14554E+05
 0.86653000E+02 -0.14497E+05
 0.86703003E+02 -0.14144E+05
 0.86752998E+02 -0.13600E+05
 0.86803001E+02 -0.13479E+05
 0.86853004E+02 -0.12827E+05
 0.86903000E+02 -0.13689E+05
 0.86953003E+02 -0.15334E+05
 0.87002998E+02 -0.15620E+05
 0.87053001E+02 -0.15448E+05
 0.87103004E+02 -0.15383E+05
 0.87153000E+02 -0.15233E+05
 0.87203003E+02 -0.14815E+05
 0.87252998E+02 -0.14873E+05
 0.87303001E+02 -0.14613E+05
 0.87353004E+02 -0.14983E+05
 0.87403000E+02 -0.15775E+05
 0.87453003E+02 -0.15836E+05
 0.87502998E+02 -0.15724E+05
 0.87553001E+02 -0.15851E+05
 0.87602997E+02 -0.15725E+05
 0.87653000E+02 -0.15613E+05
 0.87703003E+02 -0.16110E+05
 0.87752998E+02 -0.16183E+05
 0.87803001E+02 -0.16188E+05
 0.87852997E+02 -0.15885E+05
 0.87903000E+02 -0.14862E+05
 0.87953003E+02 -0.14431E+05
 0.88002998E+02 -0.13928E+05
 0.88053001E+02 -0.14457E+05
 0.88102997E+02 -0.14414E+05
 0.88153000E+02 -0.13168E+05
 0.88203003E+02 -0.12510E+05
 0.88252998E+02 -0.12046E+05
 0.88303001E+02 -0.12662E+05
 0.88352997E+02 -0.13428E+05
 0.88403000E+02 -0.13396E+05
 0.88453003E+02 -0.13479E+05
 0.88502998E+02 -0.14040E+05
 0.88553001E+02 -0.14875E+05
 0.88602997E+02 -0.15083E+05
 0.88653000E+02 -0.15172E+05
 0.88703003E+02 -0.15462E+05
 0.88752998E+02 -0.16037E+05
 0.88803001E+02 -0.16543E+05
 0.88852997E+02 -0.16721E+05
 0.88903000E+02 -0.16919E+05
 0.88953003E+02 -0.16314E+05
 0.89002998E+02 -0.15288E+05
 0.89053001E+02 -0.14829E+05
 0.89102997E+02 -0.15231E+05
 0.89153000E+02 -0.15360E+05
 0.89203003E+02 -0.14964E+05
 0.89252998E+02 -0.13610E+05
 0.89303001E+02 -0.12826E+05
 0.89352997E+02 -0.13476E+05
 0.89403000E+02 -0.14370E+05
 0.89453003E+02 -0.15385E+05
 0.89502998E+02 -0.15741E+05
 0.89553001E+02 -0.15756E+05
 0.89602997E+02 -0.15446E+05
 0.89653000E+02 -0.14130E+05
 0.89703003E+02 -0.12643E+05
 0.89752998E+02 -0.12593E+05
 0.89803001E+02 -0.12674E+05
 0.89852997E+02 -0.12600E+05
 0.89903000E+02 -0.13703E+05
 0.89953003E+02 -0.14755E+05
 0.90002998E+02 -0.15173E+05
 0.90053001E+02 -0.15146E+05
 0.90102997E+02 -0.15017E+05
 0.90153000E+02 -0.15363E+05
 0.90203003E+02 -0.16328E+05
 0.90252998E+02 -0.17205E+05
 0.90303001E+02 -0.17672E+05
 0.90352997E+02 -0.17806E+05
 0.90403000E+02 -0.17888E+05
 0.90453003E+02 -0.17404E+05
 0.90502998E+02 -0.17011E+05
 0.90553001E+02 -0.16696E+05
 0.90602997E+02 -0.15643E+05
 0.90653000E+02 -0.15452E+05
 0.90703003E+02 -0.15962E+05
 0.90752998E+02 -0.15761E+05
 0.90803001E+02 -0.15056E+05
 0.90852997E+02 -0.14547E+05
 0.90903000E+02 -0.14746E+05
 0.90953003E+02 -0.15163E+05
 0.91002998E+02 -0.14074E+05
 0.91053001E+02 -0.13239E+05
 0.91102997E+02 -0.13510E+05
 0.91153000E+02 -0.13383E+05
 0.91203003E+02 -0.13179E+05
 0.91252998E+02 -0.13454E+05
 0.91303001E+02 -0.13987E+05
 0.91352997E+02 -0.14638E+05
 0.91403000E+02 -0.15023E+05
 0.91453003E+02 -0.15165E+05
 0.91502998E+02 -0.15653E+05
 0.91553001E+02 -0.15755E+05
 0.91602997E+02 -0.15515E+05
 0.91653000E+02 -0.15180E+05
 0.91703003E+02 -0.14957E+05
 0.91752998E+02 -0.14881E+05
 0.91803001E+02 -0.14880E+05
 0.91852997E+02 -0.14734E+05
 0.91903000E+02 -0.14025E+05
 0.91953003E+02 -0.13483E+05
 0.92002998E+02 -0.13325E+05
 0.92053001E+02 -0.13056E+05
 0.92102997E+02 -0.12534E+05
 0.92153000E+02 -0.12625E+05
 0.92203003E+02 -0.13778E+05
 0.92252998E+02 -0.14864E+05
 0.92303001E+02 -0.15576E+05
 0.92352997E+02 -0.16758E+05
 0.92403000E+02 -0.17503E+05
 0.92453003E+02 -0.17455E+05
 0.92502998E+02 -0.17116E+05
 0.92553001E+02 -0.17050E+05
 0.92602997E+02 -0.16658E+05
 0.92653000E+02 -0.16190E+05
 0.92703003E+02 -0.15927E+05
 0.92752998E+02 -0.15377E+05
 0.92803001E+02 -0.15255E+05
 0.92852997E+02 -0.14833E+05
 0.92903000E+02 -0.14924E+05
 0.92953003E+02 -0.15379E+05
 0.93002998E+02 -0.15037E+05
 0.93053001E+02 -0.13977E+05
 0.93102997E+02 -0.13845E+05
 0.93153000E+02 -0.15309E+05
 0.93203003E+02 -0.15602E+05
 0.93252998E+02 -0.14814E+05
 0.93303001E+02 -0.14646E+05
 0.93352997E+02 -0.15032E+05
 0.93403000E+02 -0.15349E+05
 0.93453003E+02 -0.14890E+05
 0.93502998E+02 -0.14452E+05
 0.93553001E+02 -0.14047E+05
 0.93602997E+02 -0.13430E+05
 0.93653000E+02 -0.12766E+05
 0.93703003E+02 -0.12851E+05
 0.93752998E+02 -0.13720E+05
 0.93803001E+02 -0.14134E+05
 0.93852997E+02 -0.14564E+05
 0.93903000E+02 -0.15452E+05
 0.93953003E+02 -0.16579E+05
 0.94002998E+02 -0.17074E+05
 0.94053001E+02 -0.16633E+05
 0.94102997E+02 -0.15662E+05
 0.94153000E+02 -0.16017E+05
 0.94203003E+02 -0.16861E+05
 0.94252998E+02 -0.16904E+05
 0.94303001E+02 -0.16260E+05
 0.94352997E+02 -0.14706E+05
 0.94403000E+02 -0.13415E+05
 0.94453003E+02 -0.12835E+05
 0.94502998E+02 -0.13258E+05
 0.94553001E+02 -0.13778E+05
 0.94602997E+02 -0.14020E+05
 0.94653000E+02 -0.13961E+05
 0.94703003E+02 -0.13529E+05
 0.94752998E+02 -0.13912E+05
 0.94803001E+02 -0.14328E+05
 0.94852997E+02 -0.14101E+05
 0.94903000E+02 -0.13315E+05
 0.94953003E+02 -0.12992E+05
 0.95002998E+02 -0.13444E+05
 0.95053001E+02 -0.13939E+05
 0.95102997E+02 -0.14944E+05
 0.95153000E+02 -0.15892E+05
 0.95203003E+02 -0.16021E+05
 0.95252998E+02 -0.15966E+05
 0.95303001E+02 -0.15832E+05
 0.95352997E+02 -0.15757E+05
 0.95403000E+02 -0.16036E+05
 0.95453003E+02 -0.15969E+05
 0.95502998E+02 -0.16089E+05
 0.95553001E+02 -0.16160E+05
 0.95602997E+02 -0.15964E+05
 0.95653000E+02 -0.15627E+05
 0.95703003E+02 -0.15826E+05
 0.95752998E+02 -0.16285E+05
 0.95803001E+02 -0.16275E+05
 0.95852997E+02 -0.16349E+05
 0.95903000E+02 -0.16145E+05
 0.95953003E+02 -0.14793E+05
 0.96002998E+02 -0.13283E+05
 0.96053001E+02 -0.12777E+05
 0.96102997E+02 -0.12963E+05
 0.96153000E+02 -0.13156E+05
 0.96203003E+02 -0.13324E+05
 0.96252998E+02 -0.13634E+05
 0.96303001E+02 -0.14341E+05
 0.96352997E+02 -0.14586E+05
 0.96403000E+02 -0.14068E+05
 0.96453003E+02 -0.14374E+05
 0.96502998E+02 -0.15039E+05
 0.96553001E+02 -0.15678E+05
 0.96602997E+02 -0.16064E+05
 0.96653000E+02 -0.17090E+05
 0.96703003E+02 -0.17791E+05
 0.96752998E+02 -0.17494E+05
 0.96803001E+02 -0.17052E+05
 0.96852997E+02 -0.16342E+05
 0.96903000E+02 -0.15577E+05
 0.96953003E+02 -0.14246E+05
 0.97002998E+02 -0.13669E+05
 0.97053001E+02 -0.13869E+05
 0.97102997E+02 -0.14020E+05
 0.97153000E+02 -0.14400E+05
 0.97203003E+02 -0.15052E+05
 0.97252998E+02 -0.15569E+05
 0.97303001E+02 -0.15748E+05
 0.97352997E+02 -0.15160E+05
 0.97403000E+02 -0.13976E+05
 0.97453003E+02 -0.13238E+05
 0.97502998E+02 -0.13180E+05
 0.97553001E+02 -0.13445E+05
 0.97602997E+02 -0.13385E+05
 0.97653000E+02 -0.13953E+05
 0.97703003E+02 -0.14831E+05
 0.97752998E+02 -0.15447E+05
 0.97803001E+02 -0.15874E+05
 0.97852997E+02 -0.15679E+05
 0.97903000E+02 -0.15156E+05
 0.97953003E+02 -0.14825E+05
 0.98002998E+02 -0.14992E+05
