-0.29800000E+01  0.48614E+05
-0.29300001E+01  0.48475E+05
-0.28800001E+01  0.48557E+05
-0.28299999E+01  0.47388E+05
-0.27800000E+01  0.45184E+05
-0.27300000E+01  0.42535E+05
-0.26800001E+01  0.38077E+05
-0.26300001E+01  0.30787E+05
-0.25799999E+01  0.19876E+05
-0.25300000E+01  0.60510E+04
-0.24800000E+01 -0.81710E+04
-0.24300001E+01 -0.21340E+05
-0.23800001E+01 -0.32164E+05
-0.23299999E+01 -0.40686E+05
-0.22800000E+01 -0.48722E+05
-0.22300000E+01 -0.57106E+05
-0.21800001E+01 -0.66155E+05
-0.21300001E+01 -0.75748E+05
-0.20799999E+01 -0.84394E+05
-0.20300000E+01 -0.90658E+05
-0.19800000E+01 -0.93571E+05
-0.19299999E+01 -0.93267E+05
-0.18800000E+01 -0.91221E+05
-0.18300000E+01 -0.89316E+05
-0.17800000E+01 -0.88878E+05
-0.17300000E+01 -0.89931E+05
-0.16799999E+01 -0.92135E+05
-0.16300000E+01 -0.93482E+05
-0.15800000E+01 -0.92930E+05
-0.15300000E+01 -0.91279E+05
-0.14800000E+01 -0.87253E+05
-0.14299999E+01 -0.80907E+05
-0.13800000E+01 -0.73038E+05
-0.13300000E+01 -0.63195E+05
-0.12800000E+01 -0.51903E+05
-0.12300000E+01 -0.39237E+05
-0.11799999E+01 -0.24832E+05
-0.11300000E+01 -0.88500E+04
-0.10800000E+01  0.82970E+04
-0.10300000E+01  0.25679E+05
-0.98000002E+00  0.41658E+05
-0.93000007E+00  0.54842E+05
-0.87999988E+00  0.65753E+05
-0.82999992E+00  0.75745E+05
-0.77999997E+00  0.84949E+05
-0.73000002E+00  0.93190E+05
-0.68000007E+00  0.99125E+05
-0.62999988E+00  0.10128E+06
-0.57999992E+00  0.10107E+06
-0.52999997E+00  0.98673E+05
-0.48000002E+00  0.94743E+05
-0.43000007E+00  0.91414E+05
-0.37999988E+00  0.87163E+05
-0.32999992E+00  0.81935E+05
-0.27999997E+00  0.77756E+05
-0.23000002E+00  0.74757E+05
-0.18000007E+00  0.72853E+05
-0.12999988E+00  0.71379E+05
-0.79999924E-01  0.69502E+05
-0.29999971E-01  0.67005E+05
 0.19999981E-01  0.62766E+05
 0.69999933E-01  0.56704E+05
 0.12000012E+00  0.51133E+05
 0.17000008E+00  0.47786E+05
 0.22000003E+00  0.46871E+05
 0.26999998E+00  0.47604E+05
 0.31999993E+00  0.48015E+05
 0.37000012E+00  0.46025E+05
 0.42000008E+00  0.41538E+05
 0.47000003E+00  0.35411E+05
 0.51999998E+00  0.29249E+05
 0.56999993E+00  0.24182E+05
 0.62000012E+00  0.19170E+05
 0.67000008E+00  0.14291E+05
 0.72000003E+00  0.93400E+04
 0.76999998E+00  0.39010E+04
 0.81999993E+00 -0.16570E+04
 0.87000012E+00 -0.69000E+04
 0.92000008E+00 -0.10555E+05
 0.97000003E+00 -0.14564E+05
 0.10200000E+01 -0.21717E+05
 0.10700002E+01 -0.31040E+05
 0.11199999E+01 -0.40181E+05
 0.11700001E+01 -0.47225E+05
 0.12200003E+01 -0.51404E+05
 0.12700000E+01 -0.53195E+05
 0.13200002E+01 -0.53284E+05
 0.13699999E+01 -0.52386E+05
 0.14200001E+01 -0.51438E+05
 0.14700003E+01 -0.49937E+05
 0.15200000E+01 -0.47654E+05
 0.15700002E+01 -0.46776E+05
 0.16199999E+01 -0.48210E+05
 0.16700001E+01 -0.50622E+05
 0.17200003E+01 -0.52322E+05
 0.17700000E+01 -0.52206E+05
 0.18200002E+01 -0.50321E+05
 0.18699999E+01 -0.47074E+05
 0.19200001E+01 -0.43644E+05
 0.19700003E+01 -0.41275E+05
 0.20200000E+01 -0.40384E+05
 0.20700002E+01 -0.40754E+05
 0.21199999E+01 -0.41933E+05
 0.21700001E+01 -0.43881E+05
 0.22200003E+01 -0.46146E+05
 0.22700000E+01 -0.49263E+05
 0.23200002E+01 -0.54774E+05
 0.23699999E+01 -0.62425E+05
 0.24200001E+01 -0.70242E+05
 0.24700003E+01 -0.75859E+05
 0.25200000E+01 -0.77479E+05
 0.25700002E+01 -0.74922E+05
 0.26199999E+01 -0.69462E+05
 0.26700001E+01 -0.61746E+05
 0.27200003E+01 -0.52186E+05
 0.27700000E+01 -0.41251E+05
 0.28200002E+01 -0.28647E+05
 0.28699999E+01 -0.15385E+05
 0.29200001E+01 -0.21650E+04
 0.29700003E+01  0.98280E+04
 0.30200000E+01  0.18069E+05
 0.30700002E+01  0.23304E+05
 0.31199999E+01  0.28124E+05
 0.31700001E+01  0.35306E+05
 0.32200003E+01  0.45615E+05
 0.32700000E+01  0.57462E+05
 0.33200002E+01  0.69592E+05
 0.33699999E+01  0.79477E+05
 0.34200001E+01  0.86938E+05
 0.34700003E+01  0.94616E+05
 0.35200000E+01  0.10391E+06
 0.35700002E+01  0.11472E+06
 0.36199999E+01  0.12576E+06
 0.36700001E+01  0.13560E+06
 0.37200003E+01  0.14353E+06
 0.37700000E+01  0.14895E+06
 0.38200002E+01  0.15141E+06
 0.38699999E+01  0.15214E+06
 0.39200001E+01  0.14970E+06
 0.39700003E+01  0.14110E+06
 0.40200000E+01  0.12727E+06
 0.40700002E+01  0.11038E+06
 0.41199999E+01  0.91729E+05
 0.41700001E+01  0.70836E+05
 0.42200003E+01  0.47728E+05
 0.42700000E+01  0.24449E+05
 0.43200002E+01  0.26770E+04
 0.43699999E+01 -0.17105E+05
 0.44200001E+01 -0.35850E+05
 0.44700003E+01 -0.54559E+05
 0.45200000E+01 -0.73192E+05
 0.45700002E+01 -0.91407E+05
 0.46199999E+01 -0.10802E+06
 0.46700001E+01 -0.12141E+06
 0.47200003E+01 -0.13138E+06
 0.47700000E+01 -0.13822E+06
 0.48200002E+01 -0.14189E+06
 0.48699999E+01 -0.14186E+06
 0.49200001E+01 -0.13888E+06
 0.49700003E+01 -0.13405E+06
 0.50200000E+01 -0.12646E+06
 0.50700002E+01 -0.11585E+06
 0.51200004E+01 -0.10333E+06
 0.51700006E+01 -0.91030E+05
 0.52199998E+01 -0.79011E+05
 0.52700000E+01 -0.66993E+05
 0.53200002E+01 -0.56954E+05
 0.53700004E+01 -0.48214E+05
 0.54200006E+01 -0.38691E+05
 0.54699998E+01 -0.27511E+05
 0.55200000E+01 -0.15380E+05
 0.55700002E+01 -0.52780E+04
 0.56200004E+01  0.15380E+04
 0.56700006E+01  0.62920E+04
 0.57199998E+01  0.94440E+04
 0.57700000E+01  0.11584E+05
 0.58200002E+01  0.13467E+05
 0.58700004E+01  0.15276E+05
 0.59200006E+01  0.16965E+05
 0.59699998E+01  0.18173E+05
 0.60200000E+01  0.20261E+05
 0.60700002E+01  0.24687E+05
 0.61200004E+01  0.29089E+05
 0.61700006E+01  0.30558E+05
 0.62199998E+01  0.29751E+05
 0.62700000E+01  0.29121E+05
 0.63200002E+01  0.29713E+05
 0.63700004E+01  0.31559E+05
 0.64200006E+01  0.35069E+05
 0.64699998E+01  0.40346E+05
 0.65200000E+01  0.46674E+05
 0.65700002E+01  0.53058E+05
 0.66200004E+01  0.58426E+05
 0.66700006E+01  0.61519E+05
 0.67199998E+01  0.62965E+05
 0.67700000E+01  0.64470E+05
 0.68200002E+01  0.66581E+05
 0.68700004E+01  0.68940E+05
 0.69200006E+01  0.71693E+05
 0.69699998E+01  0.76492E+05
 0.70200000E+01  0.83106E+05
 0.70700002E+01  0.88760E+05
 0.71200004E+01  0.91458E+05
 0.71700006E+01  0.90178E+05
 0.72199998E+01  0.85341E+05
 0.72700000E+01  0.78855E+05
 0.73200002E+01  0.71996E+05
 0.73700004E+01  0.65575E+05
 0.74200006E+01  0.59760E+05
 0.74699998E+01  0.53627E+05
 0.75200000E+01  0.45892E+05
 0.75700002E+01  0.36416E+05
 0.76200004E+01  0.26855E+05
 0.76700006E+01  0.17693E+05
 0.77199998E+01  0.77140E+04
 0.77700000E+01 -0.32270E+04
 0.78200002E+01 -0.14020E+05
 0.78700004E+01 -0.23538E+05
 0.79200006E+01 -0.31432E+05
 0.79699998E+01 -0.38189E+05
 0.80200005E+01 -0.44603E+05
 0.80699997E+01 -0.51975E+05
 0.81200008E+01 -0.59955E+05
 0.81700001E+01 -0.66281E+05
 0.82199993E+01 -0.70596E+05
 0.82700005E+01 -0.73698E+05
 0.83199997E+01 -0.75576E+05
 0.83700008E+01 -0.76358E+05
 0.84200001E+01 -0.75616E+05
 0.84699993E+01 -0.72175E+05
 0.85200005E+01 -0.66526E+05
 0.85699997E+01 -0.59949E+05
 0.86200008E+01 -0.52709E+05
 0.86700001E+01 -0.44463E+05
 0.87199993E+01 -0.34716E+05
 0.87700005E+01 -0.24149E+05
 0.88199997E+01 -0.14161E+05
 0.88700008E+01 -0.44440E+04
 0.89200001E+01  0.61060E+04
 0.89699993E+01  0.16995E+05
 0.90200005E+01  0.28325E+05
 0.90699997E+01  0.40663E+05
 0.91200008E+01  0.53357E+05
 0.91700001E+01  0.65289E+05
 0.92199993E+01  0.75647E+05
 0.92700005E+01  0.84449E+05
 0.93199997E+01  0.91457E+05
 0.93700008E+01  0.96618E+05
 0.94200001E+01  0.99687E+05
 0.94699993E+01  0.10052E+06
 0.95200005E+01  0.10046E+06
 0.95699997E+01  0.10096E+06
 0.96200008E+01  0.10170E+06
 0.96700001E+01  0.10197E+06
 0.97199993E+01  0.10075E+06
 0.97700005E+01  0.96388E+05
 0.98199997E+01  0.88820E+05
 0.98700008E+01  0.78437E+05
 0.99200001E+01  0.66441E+05
 0.99699993E+01  0.53655E+05
 0.10020000E+02  0.39912E+05
 0.10070000E+02  0.26891E+05
 0.10120001E+02  0.15775E+05
 0.10170000E+02  0.62290E+04
 0.10219999E+02 -0.35830E+04
 0.10270000E+02 -0.15650E+05
 0.10320000E+02 -0.29108E+05
 0.10370001E+02 -0.42539E+05
 0.10420000E+02 -0.55256E+05
 0.10469999E+02 -0.66457E+05
 0.10520000E+02 -0.76802E+05
 0.10570000E+02 -0.87322E+05
 0.10620001E+02 -0.97293E+05
 0.10670000E+02 -0.10497E+06
 0.10719999E+02 -0.10957E+06
 0.10770000E+02 -0.11132E+06
 0.10820000E+02 -0.10995E+06
 0.10870001E+02 -0.10611E+06
 0.10920000E+02 -0.10091E+06
 0.10969999E+02 -0.94124E+05
 0.11020000E+02 -0.86561E+05
 0.11070000E+02 -0.79145E+05
 0.11120001E+02 -0.70763E+05
 0.11170000E+02 -0.60605E+05
 0.11219999E+02 -0.48963E+05
 0.11270000E+02 -0.37683E+05
 0.11320000E+02 -0.29049E+05
 0.11370001E+02 -0.23312E+05
 0.11420000E+02 -0.18983E+05
 0.11469999E+02 -0.14312E+05
 0.11520000E+02 -0.90990E+04
 0.11570000E+02 -0.31420E+04
 0.11620001E+02  0.26990E+04
 0.11670000E+02  0.67490E+04
 0.11719999E+02  0.82040E+04
 0.11770000E+02  0.66160E+04
 0.11820000E+02  0.30970E+04
 0.11870001E+02 -0.25310E+04
 0.11920000E+02 -0.10034E+05
 0.11969999E+02 -0.17619E+05
 0.12020000E+02 -0.24219E+05
 0.12070000E+02 -0.29536E+05
 0.12120001E+02 -0.33934E+05
 0.12170000E+02 -0.36256E+05
 0.12219999E+02 -0.36600E+05
 0.12270000E+02 -0.36168E+05
 0.12320000E+02 -0.34474E+05
 0.12370001E+02 -0.31766E+05
 0.12420000E+02 -0.29044E+05
 0.12469999E+02 -0.27283E+05
 0.12520000E+02 -0.26371E+05
 0.12570000E+02 -0.24027E+05
 0.12620001E+02 -0.19513E+05
 0.12670000E+02 -0.15007E+05
 0.12719999E+02 -0.11150E+05
 0.12770000E+02 -0.75330E+04
 0.12820000E+02 -0.52430E+04
 0.12870001E+02 -0.45590E+04
 0.12920000E+02 -0.48070E+04
 0.12969999E+02 -0.51220E+04
 0.13020000E+02 -0.53010E+04
 0.13070002E+02 -0.60200E+04
 0.13120001E+02 -0.66650E+04
 0.13170000E+02 -0.69880E+04
 0.13220001E+02 -0.79790E+04
 0.13270000E+02 -0.97210E+04
 0.13320002E+02 -0.11996E+05
 0.13370001E+02 -0.14086E+05
 0.13420000E+02 -0.14989E+05
 0.13470001E+02 -0.15299E+05
 0.13520000E+02 -0.15668E+05
 0.13570002E+02 -0.15706E+05
 0.13620001E+02 -0.15067E+05
 0.13670000E+02 -0.13574E+05
 0.13720001E+02 -0.11264E+05
 0.13770000E+02 -0.84800E+04
 0.13820002E+02 -0.53530E+04
 0.13870001E+02 -0.21230E+04
 0.13920000E+02  0.12600E+04
 0.13970001E+02  0.41150E+04
 0.14020000E+02  0.55600E+04
 0.14070002E+02  0.60790E+04
 0.14120001E+02  0.61240E+04
 0.14170000E+02  0.63280E+04
 0.14220001E+02  0.62340E+04
 0.14270000E+02  0.57450E+04
 0.14320002E+02  0.52010E+04
 0.14370001E+02  0.40590E+04
 0.14420000E+02  0.31140E+04
 0.14470001E+02  0.22280E+04
 0.14520000E+02  0.37000E+02
 0.14570002E+02 -0.44500E+04
 0.14620001E+02 -0.10849E+05
 0.14670000E+02 -0.17908E+05
 0.14720001E+02 -0.25280E+05
 0.14770000E+02 -0.31520E+05
 0.14820002E+02 -0.35169E+05
 0.14870001E+02 -0.36734E+05
 0.14920000E+02 -0.37653E+05
 0.14970001E+02 -0.38432E+05
 0.15020000E+02 -0.38599E+05
 0.15070002E+02 -0.38339E+05
 0.15120001E+02 -0.37402E+05
 0.15170000E+02 -0.33999E+05
 0.15220001E+02 -0.26488E+05
 0.15270000E+02 -0.15634E+05
 0.15320002E+02 -0.30460E+04
 0.15370001E+02  0.95050E+04
 0.15420000E+02  0.19471E+05
 0.15470001E+02  0.25688E+05
 0.15520000E+02  0.28460E+05
 0.15570002E+02  0.28602E+05
 0.15620001E+02  0.26164E+05
 0.15670000E+02  0.20800E+05
 0.15720001E+02  0.14232E+05
 0.15770000E+02  0.76030E+04
 0.15820002E+02  0.12340E+04
 0.15870001E+02 -0.39150E+04
 0.15920000E+02 -0.86170E+04
 0.15970001E+02 -0.13185E+05
 0.16020000E+02 -0.17634E+05
 0.16070002E+02 -0.22429E+05
 0.16120001E+02 -0.27393E+05
 0.16170000E+02 -0.32645E+05
 0.16220001E+02 -0.37592E+05
 0.16270000E+02 -0.41294E+05
 0.16320002E+02 -0.42853E+05
 0.16370001E+02 -0.42429E+05
 0.16420000E+02 -0.41702E+05
 0.16470001E+02 -0.41149E+05
 0.16520000E+02 -0.39528E+05
 0.16570002E+02 -0.36278E+05
 0.16620001E+02 -0.31828E+05
 0.16670000E+02 -0.27362E+05
 0.16720001E+02 -0.24166E+05
 0.16770000E+02 -0.21997E+05
 0.16820002E+02 -0.20702E+05
 0.16870001E+02 -0.19697E+05
 0.16920000E+02 -0.17274E+05
 0.16970001E+02 -0.14067E+05
 0.17020000E+02 -0.12476E+05
 0.17070002E+02 -0.12675E+05
 0.17120001E+02 -0.13649E+05
 0.17170000E+02 -0.14615E+05
 0.17220001E+02 -0.14482E+05
 0.17270000E+02 -0.12788E+05
 0.17320002E+02 -0.97410E+04
 0.17370001E+02 -0.66700E+04
 0.17420000E+02 -0.39340E+04
 0.17470001E+02  0.72200E+03
 0.17520000E+02  0.86630E+04
 0.17570002E+02  0.18541E+05
 0.17620001E+02  0.28638E+05
 0.17670000E+02  0.37839E+05
 0.17720001E+02  0.45841E+05
 0.17770000E+02  0.53963E+05
 0.17820002E+02  0.63402E+05
 0.17870001E+02  0.75160E+05
 0.17920000E+02  0.88714E+05
 0.17970001E+02  0.10094E+06
 0.18020000E+02  0.11035E+06
 0.18070002E+02  0.11774E+06
 0.18120001E+02  0.12336E+06
 0.18170000E+02  0.12728E+06
 0.18220001E+02  0.12970E+06
 0.18270000E+02  0.13018E+06
 0.18320002E+02  0.12811E+06
 0.18370001E+02  0.12391E+06
 0.18420000E+02  0.11882E+06
 0.18470001E+02  0.11374E+06
 0.18520000E+02  0.10938E+06
 0.18570002E+02  0.10528E+06
 0.18620001E+02  0.10126E+06
 0.18670000E+02  0.97215E+05
 0.18720001E+02  0.91390E+05
 0.18770000E+02  0.84015E+05
 0.18820002E+02  0.77498E+05
 0.18870001E+02  0.73269E+05
 0.18920000E+02  0.71014E+05
 0.18970001E+02  0.68214E+05
 0.19020000E+02  0.63530E+05
 0.19070002E+02  0.58365E+05
 0.19120001E+02  0.54111E+05
 0.19170000E+02  0.51998E+05
 0.19220001E+02  0.49350E+05
 0.19270000E+02  0.44726E+05
 0.19320002E+02  0.35957E+05
 0.19370001E+02  0.22180E+05
 0.19420000E+02  0.11513E+05
 0.19470001E+02 -0.10160E+04
 0.19520000E+02 -0.13768E+05
 0.19570002E+02 -0.21170E+05
 0.19620001E+02 -0.30766E+05
 0.19670000E+02 -0.37613E+05
 0.19720001E+02 -0.49770E+05
 0.19770000E+02 -0.66775E+05
 0.19820002E+02 -0.77276E+05
 0.19870001E+02 -0.81023E+05
 0.19920000E+02 -0.82490E+05
 0.19970001E+02 -0.88441E+05
 0.20020000E+02 -0.93638E+05
 0.20070002E+02 -0.99682E+05
 0.20120001E+02 -0.91851E+05
 0.20170000E+02 -0.75637E+05
 0.20220001E+02 -0.64445E+05
 0.20270000E+02 -0.44395E+05
 0.20320002E+02 -0.27524E+05
 0.20370001E+02 -0.15870E+05
 0.20420000E+02 -0.15220E+04
 0.20470001E+02  0.14807E+05
 0.20520000E+02  0.36698E+05
 0.20570002E+02  0.61085E+05
 0.20620001E+02  0.87166E+05
 0.20670000E+02  0.11242E+06
 0.20720001E+02  0.12969E+06
 0.20770000E+02  0.13487E+06
 0.20820002E+02  0.14352E+06
 0.20870001E+02  0.16526E+06
 0.20920000E+02  0.18378E+06
 0.20970001E+02  0.18864E+06
 0.21020000E+02  0.18957E+06
 0.21070002E+02  0.19276E+06
 0.21120001E+02  0.18705E+06
 0.21170000E+02  0.18476E+06
 0.21220001E+02  0.17872E+06
 0.21270000E+02  0.18227E+06
 0.21320002E+02  0.19764E+06
 0.21370001E+02  0.19736E+06
 0.21420000E+02  0.18452E+06
 0.21470001E+02  0.15989E+06
 0.21520000E+02  0.14759E+06
 0.21570002E+02  0.13893E+06
 0.21620001E+02  0.13264E+06
 0.21670000E+02  0.11712E+06
 0.21720001E+02  0.86182E+05
 0.21770000E+02  0.56963E+05
 0.21820002E+02  0.25233E+05
 0.21870001E+02  0.27027E+05
 0.21920000E+02  0.43198E+05
 0.21970001E+02  0.48422E+05
 0.22020000E+02  0.52617E+05
 0.22070002E+02  0.30895E+05
 0.22120001E+02 -0.32150E+04
 0.22170000E+02 -0.16987E+05
 0.22220001E+02 -0.18959E+05
 0.22270000E+02 -0.30300E+05
 0.22320002E+02 -0.68964E+05
 0.22370001E+02 -0.12903E+06
 0.22420000E+02 -0.13167E+06
 0.22470001E+02 -0.12639E+06
 0.22520000E+02 -0.22856E+06
 0.22570002E+02 -0.30355E+06
 0.22620001E+02 -0.22813E+06
 0.22670000E+02 -0.12988E+06
 0.22720001E+02 -0.10442E+06
 0.22770000E+02 -0.10447E+06
 0.22820002E+02 -0.86309E+05
 0.22870001E+02 -0.67386E+05
 0.22920000E+02 -0.15758E+06
 0.22970001E+02 -0.23759E+06
 0.23020000E+02 -0.21218E+06
 0.23070002E+02 -0.20168E+06
 0.23120001E+02 -0.15247E+06
 0.23170000E+02 -0.10128E+06
 0.23220001E+02 -0.10728E+06
 0.23270000E+02 -0.10293E+06
 0.23320002E+02 -0.15783E+06
 0.23370001E+02 -0.25554E+06
 0.23420000E+02 -0.20085E+06
 0.23470001E+02 -0.14131E+06
 0.23520000E+02 -0.24653E+06
 0.23570002E+02 -0.33042E+06
 0.23620001E+02 -0.35505E+06
 0.23670000E+02 -0.45878E+06
 0.23720001E+02 -0.67755E+06
 0.23770000E+02 -0.71096E+06
 0.23820002E+02 -0.35456E+06
 0.23870001E+02 -0.89214E+05
 0.23920000E+02 -0.18338E+06
 0.23970001E+02 -0.26192E+06
 0.24020000E+02 -0.23256E+06
 0.24070002E+02 -0.27390E+06
 0.24120001E+02 -0.42142E+06
 0.24170000E+02 -0.40799E+06
 0.24220001E+02 -0.31009E+05
 0.24270000E+02 -0.11829E+05
 0.24320002E+02 -0.23118E+06
 0.24370001E+02 -0.29957E+05
 0.24420000E+02 -0.15166E+05
 0.24470001E+02 -0.22929E+06
 0.24520000E+02 -0.39604E+06
 0.24570002E+02 -0.33619E+06
 0.24620001E+02 -0.10214E+06
 0.24670000E+02 -0.12357E+05
 0.24720001E+02  0.81404E+05
 0.24770000E+02 -0.16285E+06
 0.24820002E+02 -0.42730E+06
 0.24870001E+02 -0.43602E+06
 0.24920000E+02 -0.29506E+06
 0.24970001E+02 -0.32707E+05
 0.25020000E+02 -0.34270E+06
 0.25070002E+02 -0.54886E+06
 0.25120001E+02 -0.50755E+06
 0.25170000E+02 -0.69952E+06
 0.25220001E+02 -0.59934E+06
 0.25270000E+02 -0.30721E+06
 0.25320002E+02 -0.43792E+06
 0.25370001E+02 -0.65076E+06
 0.25420000E+02 -0.16811E+06
 0.25470001E+02  0.18213E+05
 0.25520000E+02 -0.15594E+06
 0.25570002E+02 -0.15275E+06
 0.25620001E+02 -0.80208E+05
 0.25670000E+02 -0.79800E+03
 0.25720001E+02 -0.20150E+06
 0.25770000E+02 -0.89880E+05
 0.25820002E+02  0.77075E+05
 0.25870001E+02  0.18574E+06
 0.25920000E+02  0.46305E+06
 0.25970001E+02  0.88202E+06
 0.26020000E+02  0.10334E+07
 0.26070002E+02  0.41777E+06
 0.26120001E+02  0.12216E+06
 0.26170000E+02  0.96186E+05
 0.26220001E+02 -0.21179E+06
 0.26270000E+02 -0.33090E+06
 0.26320002E+02 -0.17095E+06
 0.26370001E+02  0.26621E+06
 0.26420000E+02  0.48807E+06
 0.26470001E+02  0.22287E+06
 0.26520000E+02  0.31901E+06
 0.26570002E+02  0.55886E+06
 0.26620001E+02  0.24807E+06
 0.26670000E+02  0.29093E+05
 0.26720001E+02  0.30416E+06
 0.26770000E+02  0.58030E+06
 0.26820002E+02  0.72984E+06
 0.26870001E+02  0.89974E+06
 0.26920000E+02  0.65897E+06
 0.26970001E+02  0.35703E+06
 0.27020000E+02  0.40553E+06
 0.27070002E+02  0.53978E+06
 0.27120001E+02  0.61887E+06
 0.27170000E+02  0.29842E+06
 0.27220001E+02  0.44242E+05
 0.27270000E+02  0.72464E+05
 0.27320002E+02  0.68906E+05
 0.27370001E+02  0.87659E+05
 0.27420000E+02  0.16814E+06
 0.27470001E+02  0.37235E+06
 0.27520000E+02  0.69436E+06
 0.27570002E+02  0.78718E+06
 0.27620001E+02  0.59162E+06
 0.27670000E+02  0.61206E+06
 0.27720001E+02  0.33549E+06
 0.27770000E+02 -0.25993E+06
 0.27820002E+02 -0.22559E+06
 0.27870001E+02  0.14912E+06
 0.27920000E+02  0.28934E+05
 0.27970001E+02 -0.12768E+06
 0.28020000E+02  0.95456E+05
 0.28070002E+02  0.12450E+06
 0.28120001E+02 -0.12048E+06
 0.28170000E+02 -0.29416E+06
 0.28220001E+02 -0.42396E+06
 0.28270000E+02 -0.66752E+06
 0.28320002E+02 -0.39341E+06
 0.28370001E+02  0.25208E+06
 0.28420000E+02  0.68765E+06
 0.28470001E+02  0.97914E+06
 0.28520000E+02  0.83907E+06
 0.28570002E+02  0.46069E+06
 0.28620001E+02  0.62360E+05
 0.28670000E+02 -0.90327E+05
 0.28720001E+02  0.79300E+05
 0.28770000E+02  0.24886E+06
 0.28820002E+02  0.59678E+06
 0.28870001E+02  0.62514E+06
 0.28920000E+02  0.10083E+06
 0.28970001E+02 -0.59304E+06
 0.29020000E+02 -0.10631E+07
 0.29070000E+02 -0.10136E+07
 0.29120003E+02 -0.60212E+06
 0.29170002E+02 -0.58487E+05
 0.29220001E+02  0.12957E+06
 0.29270000E+02 -0.35634E+06
 0.29320000E+02 -0.12351E+07
 0.29370003E+02 -0.14466E+07
 0.29420002E+02 -0.10126E+07
 0.29470001E+02 -0.69782E+06
 0.29520000E+02 -0.56196E+06
 0.29570000E+02 -0.35045E+06
 0.29620003E+02 -0.55276E+05
 0.29670002E+02 -0.33698E+06
 0.29720001E+02 -0.69831E+06
 0.29770000E+02 -0.42959E+06
 0.29820000E+02 -0.99782E+05
 0.29870003E+02 -0.27309E+05
 0.29920002E+02  0.55256E+05
 0.29970001E+02 -0.89629E+05
 0.30020000E+02 -0.42160E+06
 0.30070000E+02 -0.58909E+06
 0.30120003E+02 -0.50762E+06
 0.30170002E+02 -0.55596E+06
 0.30220001E+02 -0.84304E+06
 0.30270000E+02 -0.63884E+06
 0.30320000E+02 -0.43047E+06
 0.30370003E+02 -0.26270E+06
 0.30420002E+02  0.23173E+05
 0.30470001E+02  0.53171E+05
 0.30520000E+02  0.11777E+06
 0.30570000E+02  0.16687E+06
 0.30620003E+02  0.24513E+06
 0.30670002E+02  0.11235E+05
 0.30720001E+02 -0.27646E+06
 0.30770000E+02 -0.34563E+06
 0.30820000E+02 -0.68390E+06
 0.30870003E+02 -0.76702E+06
 0.30920002E+02 -0.63030E+06
 0.30970001E+02 -0.30262E+06
 0.31020000E+02  0.15144E+06
 0.31070000E+02  0.80109E+05
 0.31120003E+02  0.35745E+05
 0.31170002E+02 -0.38065E+05
 0.31220001E+02 -0.21982E+06
 0.31270000E+02  0.37300E+05
 0.31320000E+02  0.17862E+06
 0.31370003E+02  0.11493E+06
 0.31420002E+02  0.18431E+06
 0.31470001E+02  0.15198E+06
 0.31520000E+02  0.14580E+05
 0.31570000E+02  0.15899E+06
 0.31620003E+02  0.19725E+06
 0.31670002E+02 -0.10595E+06
 0.31720001E+02  0.23829E+05
 0.31770000E+02  0.49344E+06
 0.31820000E+02  0.91573E+06
 0.31870003E+02  0.87087E+06
 0.31920002E+02  0.28177E+06
 0.31970001E+02 -0.13785E+06
 0.32020000E+02 -0.39679E+06
 0.32070000E+02 -0.81655E+06
 0.32120003E+02 -0.10931E+07
 0.32170002E+02 -0.92865E+06
 0.32220001E+02 -0.64670E+06
 0.32270000E+02 -0.15720E+06
 0.32320000E+02  0.21268E+06
 0.32370003E+02  0.16096E+06
 0.32420002E+02  0.23643E+06
 0.32470001E+02  0.31276E+06
 0.32520000E+02  0.47631E+06
 0.32570000E+02  0.52193E+06
 0.32620003E+02  0.15377E+06
 0.32670002E+02 -0.13880E+06
 0.32720001E+02 -0.11460E+06
 0.32770000E+02  0.18370E+06
 0.32820000E+02  0.25356E+06
 0.32870003E+02 -0.40416E+05
 0.32920002E+02 -0.34316E+06
 0.32970001E+02 -0.50741E+06
 0.33020000E+02 -0.61089E+06
 0.33070000E+02 -0.57795E+06
 0.33120003E+02  0.11801E+05
 0.33170002E+02  0.59226E+06
 0.33220001E+02  0.33527E+06
 0.33270000E+02 -0.47865E+06
 0.33320000E+02 -0.10371E+07
 0.33370003E+02 -0.11842E+07
 0.33420002E+02 -0.95533E+06
 0.33470001E+02 -0.21876E+06
 0.33520000E+02  0.25876E+06
 0.33570000E+02  0.32744E+06
 0.33620003E+02  0.31961E+06
 0.33670002E+02  0.13020E+06
 0.33720001E+02 -0.16530E+06
 0.33770000E+02 -0.66829E+06
 0.33820000E+02 -0.67170E+06
 0.33870003E+02  0.53378E+05
 0.33920002E+02  0.47725E+06
 0.33970001E+02  0.69389E+06
 0.34020000E+02  0.96998E+06
 0.34070000E+02  0.10125E+07
 0.34120003E+02  0.80965E+06
 0.34170002E+02  0.51580E+06
 0.34220001E+02  0.27537E+06
 0.34270000E+02  0.16441E+06
 0.34320000E+02  0.46968E+06
 0.34370003E+02  0.11246E+07
 0.34420002E+02  0.14308E+07
 0.34470001E+02  0.12931E+07
 0.34520000E+02  0.87582E+06
 0.34570000E+02  0.24846E+06
 0.34620003E+02  0.25088E+05
 0.34670002E+02 -0.68305E+05
 0.34720001E+02 -0.26013E+05
 0.34770000E+02  0.33755E+06
 0.34820000E+02  0.12757E+06
 0.34870003E+02 -0.14384E+06
 0.34920002E+02 -0.15933E+05
 0.34970001E+02 -0.27743E+05
 0.35020000E+02 -0.15930E+04
 0.35070000E+02  0.19534E+06
 0.35120003E+02  0.41775E+06
 0.35170002E+02  0.65173E+06
 0.35220001E+02  0.70994E+06
 0.35270000E+02  0.42773E+06
 0.35320000E+02  0.28561E+06
 0.35370003E+02  0.47834E+06
 0.35420002E+02  0.63361E+06
 0.35470001E+02  0.59092E+06
 0.35520000E+02  0.66472E+06
 0.35570000E+02  0.11496E+07
 0.35620003E+02  0.13535E+07
 0.35670002E+02  0.10716E+07
 0.35720001E+02  0.62434E+06
 0.35770000E+02  0.28489E+05
 0.35820000E+02 -0.38436E+06
 0.35870003E+02 -0.32330E+06
 0.35920002E+02  0.11514E+06
 0.35970001E+02  0.67417E+06
 0.36020000E+02  0.10881E+07
 0.36070000E+02  0.10179E+07
 0.36120003E+02  0.57950E+06
 0.36170002E+02 -0.20540E+06
 0.36220001E+02 -0.73851E+06
 0.36270000E+02 -0.49418E+06
 0.36320000E+02 -0.23886E+06
 0.36370003E+02 -0.86992E+05
 0.36420002E+02 -0.11564E+06
 0.36470001E+02 -0.19521E+06
 0.36520000E+02  0.56519E+05
 0.36570000E+02  0.39606E+06
 0.36620003E+02  0.58401E+06
 0.36670002E+02  0.51895E+06
 0.36720001E+02  0.44868E+06
 0.36770000E+02  0.16347E+06
 0.36820000E+02 -0.26601E+06
 0.36870003E+02 -0.46537E+06
 0.36920002E+02 -0.55755E+06
 0.36970001E+02 -0.27457E+06
 0.37020000E+02  0.11479E+06
 0.37070000E+02  0.44493E+06
 0.37120003E+02  0.74463E+06
 0.37170002E+02  0.47392E+06
 0.37220001E+02  0.13414E+06
 0.37270000E+02 -0.18444E+06
 0.37320000E+02 -0.46631E+06
 0.37370003E+02 -0.46196E+06
 0.37420002E+02 -0.83039E+06
 0.37470001E+02 -0.99458E+06
 0.37520000E+02 -0.65996E+06
 0.37570000E+02 -0.41746E+06
 0.37620003E+02  0.24094E+05
 0.37670002E+02  0.29690E+06
 0.37720001E+02  0.82477E+05
 0.37770000E+02 -0.22923E+06
 0.37820000E+02 -0.30779E+06
 0.37870003E+02 -0.18751E+06
 0.37920002E+02 -0.52976E+06
 0.37970001E+02 -0.34266E+06
 0.38020000E+02  0.46708E+06
 0.38070000E+02  0.54599E+06
 0.38120003E+02  0.19603E+06
 0.38170002E+02 -0.13373E+06
 0.38220001E+02  0.18422E+05
 0.38270000E+02  0.17829E+06
 0.38320000E+02 -0.27799E+06
 0.38370003E+02 -0.57441E+06
 0.38420002E+02 -0.66253E+06
 0.38470001E+02 -0.83433E+06
 0.38520000E+02 -0.88598E+06
 0.38570000E+02 -0.76208E+06
 0.38620003E+02 -0.23100E+06
 0.38670002E+02  0.44347E+06
 0.38720001E+02  0.91063E+06
 0.38770000E+02  0.90228E+06
 0.38820000E+02  0.31810E+06
 0.38870003E+02  0.84975E+05
 0.38920002E+02  0.53642E+06
 0.38970001E+02  0.12532E+07
 0.39020000E+02  0.14354E+07
 0.39070000E+02  0.10290E+07
 0.39120003E+02  0.55466E+06
 0.39170002E+02 -0.12389E+06
 0.39220001E+02 -0.29874E+06
 0.39270000E+02 -0.12587E+06
 0.39320000E+02 -0.41654E+06
 0.39370003E+02 -0.44707E+06
 0.39420002E+02 -0.13025E+06
 0.39470001E+02 -0.49526E+05
 0.39520000E+02  0.11990E+06
 0.39570000E+02  0.30145E+06
 0.39620003E+02  0.91386E+05
 0.39670002E+02 -0.35436E+06
 0.39720001E+02 -0.10373E+07
 0.39770000E+02 -0.12320E+07
 0.39820000E+02 -0.12219E+06
 0.39870003E+02  0.10504E+07
 0.39920002E+02  0.89673E+06
 0.39970001E+02  0.54997E+06
 0.40020000E+02  0.88774E+06
 0.40070000E+02  0.10896E+07
 0.40120003E+02  0.11329E+07
 0.40170002E+02  0.59724E+06
 0.40220001E+02 -0.48748E+06
 0.40270000E+02 -0.95472E+06
 0.40320000E+02 -0.10740E+07
 0.40370003E+02 -0.11333E+07
 0.40420002E+02 -0.56557E+06
 0.40470001E+02  0.23680E+04
 0.40520000E+02  0.18668E+06
 0.40570000E+02  0.90379E+06
 0.40620003E+02  0.72160E+06
 0.40670002E+02 -0.10338E+07
 0.40720001E+02 -0.19811E+07
 0.40770000E+02 -0.17313E+07
 0.40820000E+02 -0.12840E+07
 0.40870003E+02 -0.73505E+06
 0.40920002E+02 -0.12902E+06
 0.40970001E+02  0.18197E+06
 0.41020000E+02  0.93913E+06
 0.41070000E+02  0.17844E+07
 0.41120003E+02  0.13569E+07
 0.41170002E+02  0.44764E+06
 0.41220001E+02 -0.70029E+06
 0.41270000E+02 -0.14495E+07
 0.41320000E+02 -0.11835E+07
 0.41370003E+02 -0.76380E+06
 0.41420002E+02 -0.46502E+06
 0.41470001E+02 -0.60275E+06
 0.41520000E+02 -0.62840E+06
 0.41570000E+02 -0.16303E+06
 0.41620003E+02  0.85323E+06
 0.41670002E+02  0.25035E+07
 0.41720001E+02  0.32504E+07
 0.41770000E+02  0.20796E+07
 0.41820000E+02 -0.21770E+06
 0.41870003E+02 -0.16182E+07
 0.41920002E+02 -0.14180E+07
 0.41970001E+02 -0.11922E+07
 0.42020000E+02 -0.15200E+07
 0.42070000E+02 -0.18242E+07
 0.42120003E+02 -0.13720E+07
 0.42170002E+02 -0.47856E+06
 0.42220001E+02 -0.15204E+06
 0.42270000E+02 -0.43064E+06
 0.42320000E+02 -0.13062E+07
 0.42370003E+02 -0.15514E+07
 0.42420002E+02 -0.25947E+06
 0.42470001E+02  0.14794E+07
 0.42520000E+02  0.22726E+07
 0.42570000E+02  0.15120E+07
 0.42620003E+02  0.62565E+06
 0.42670002E+02  0.27399E+06
 0.42720001E+02  0.10087E+06
 0.42770000E+02  0.20999E+06
 0.42820000E+02 -0.23819E+06
 0.42870003E+02 -0.11237E+07
 0.42920002E+02 -0.11274E+07
 0.42970001E+02 -0.33283E+06
 0.43020000E+02  0.42618E+06
 0.43070000E+02  0.12686E+07
 0.43120003E+02  0.14447E+07
 0.43170002E+02  0.62142E+06
 0.43220001E+02  0.31512E+06
 0.43270000E+02  0.63789E+06
 0.43320000E+02  0.10127E+07
 0.43370003E+02  0.10235E+07
 0.43420002E+02  0.45064E+06
 0.43470001E+02 -0.13287E+06
 0.43520000E+02 -0.31657E+06
 0.43570000E+02  0.48629E+05
 0.43620003E+02 -0.67594E+05
 0.43670002E+02 -0.13430E+07
 0.43720001E+02 -0.24033E+07
 0.43770000E+02 -0.25779E+07
 0.43820000E+02 -0.23236E+07
 0.43870003E+02 -0.18614E+07
 0.43920002E+02 -0.12016E+07
 0.43970001E+02 -0.42628E+06
 0.44020000E+02  0.34274E+05
 0.44070000E+02 -0.16407E+06
 0.44120003E+02 -0.37024E+06
 0.44170002E+02 -0.13161E+06
 0.44220001E+02  0.12046E+06
 0.44270000E+02  0.38863E+06
 0.44320000E+02  0.35493E+06
 0.44370003E+02  0.23474E+06
 0.44420002E+02  0.15903E+06
 0.44470001E+02 -0.23550E+04
 0.44520000E+02  0.84384E+06
 0.44570000E+02  0.22215E+07
 0.44620003E+02  0.27539E+07
 0.44670002E+02  0.24951E+07
 0.44720001E+02  0.19255E+07
 0.44770000E+02  0.11966E+07
 0.44820000E+02  0.85199E+06
 0.44870003E+02  0.82324E+06
 0.44920002E+02  0.10149E+07
 0.44970001E+02  0.15749E+07
 0.45020000E+02  0.16164E+07
 0.45070000E+02  0.15308E+07
 0.45120003E+02  0.11606E+07
 0.45170002E+02  0.60757E+06
 0.45220001E+02  0.10508E+07
 0.45270000E+02  0.12631E+07
 0.45320000E+02  0.87574E+06
 0.45370003E+02  0.76399E+06
 0.45420002E+02  0.83089E+06
 0.45470001E+02  0.98686E+06
 0.45520000E+02  0.99821E+06
 0.45570000E+02  0.87222E+06
 0.45620003E+02  0.95606E+06
 0.45670002E+02  0.11227E+07
 0.45720001E+02  0.86740E+06
 0.45770000E+02  0.21418E+06
 0.45820000E+02 -0.84394E+05
 0.45870003E+02  0.39510E+06
 0.45920002E+02  0.12583E+07
 0.45970001E+02  0.20578E+07
 0.46020000E+02  0.27172E+07
 0.46070000E+02  0.29539E+07
 0.46120003E+02  0.26386E+07
 0.46170002E+02  0.19206E+07
 0.46220001E+02  0.98126E+06
 0.46270000E+02  0.23577E+06
 0.46320000E+02 -0.52727E+06
 0.46370003E+02 -0.11995E+07
 0.46420002E+02 -0.67120E+06
 0.46470001E+02  0.57380E+06
 0.46520000E+02  0.87870E+06
 0.46570000E+02  0.26518E+06
 0.46620003E+02 -0.39009E+06
 0.46670002E+02 -0.62700E+06
 0.46720001E+02 -0.56667E+06
 0.46770000E+02 -0.52535E+06
 0.46820000E+02 -0.17166E+06
 0.46870003E+02  0.70403E+05
 0.46920002E+02 -0.46090E+06
 0.46970001E+02 -0.11554E+07
 0.47020000E+02 -0.13597E+07
 0.47070000E+02 -0.10524E+07
 0.47120003E+02 -0.49111E+06
 0.47170002E+02  0.77628E+05
 0.47220001E+02  0.10530E+06
 0.47270000E+02 -0.73929E+06
 0.47320000E+02 -0.15794E+07
 0.47370003E+02 -0.13080E+07
 0.47420002E+02 -0.18938E+06
 0.47470001E+02  0.30918E+06
 0.47520000E+02 -0.29212E+06
 0.47570000E+02 -0.10906E+07
 0.47620003E+02 -0.14299E+07
 0.47670002E+02 -0.12540E+07
 0.47720001E+02 -0.10933E+07
 0.47770000E+02 -0.13982E+07
 0.47820000E+02 -0.23286E+07
 0.47870003E+02 -0.36386E+07
 0.47920002E+02 -0.43065E+07
 0.47970001E+02 -0.39197E+07
 0.48020000E+02 -0.28046E+07
 0.48070000E+02 -0.14646E+07
 0.48120003E+02 -0.32796E+06
 0.48170002E+02  0.24911E+06
 0.48220001E+02  0.33666E+06
 0.48270000E+02  0.58084E+06
 0.48320000E+02  0.88582E+06
 0.48370003E+02  0.88380E+06
 0.48420002E+02  0.76822E+06
 0.48470001E+02  0.72539E+06
 0.48520000E+02  0.65366E+06
 0.48570000E+02  0.75314E+06
 0.48620003E+02  0.64742E+06
 0.48670002E+02 -0.49609E+05
 0.48720001E+02 -0.69708E+06
 0.48770000E+02 -0.15449E+07
 0.48820000E+02 -0.26763E+07
 0.48870003E+02 -0.34802E+07
 0.48920002E+02 -0.38882E+07
 0.48970001E+02 -0.39172E+07
 0.49020000E+02 -0.34001E+07
 0.49070000E+02 -0.24499E+07
 0.49120003E+02 -0.15101E+07
 0.49170002E+02 -0.74149E+06
 0.49220001E+02 -0.71339E+06
 0.49270000E+02 -0.14908E+07
 0.49320000E+02 -0.24088E+07
 0.49370003E+02 -0.31234E+07
 0.49420002E+02 -0.31149E+07
 0.49470001E+02 -0.22823E+07
 0.49520000E+02 -0.10019E+07
 0.49570000E+02  0.60063E+06
 0.49620003E+02  0.21625E+07
 0.49670002E+02  0.23893E+07
 0.49720001E+02  0.14392E+07
 0.49770000E+02  0.54860E+06
 0.49820000E+02 -0.89300E+05
 0.49870003E+02 -0.22278E+06
 0.49920002E+02 -0.10611E+06
 0.49970001E+02  0.98734E+05
 0.50020000E+02  0.46879E+06
 0.50070000E+02  0.52254E+06
 0.50120003E+02  0.13991E+06
 0.50170002E+02 -0.29804E+06
 0.50220001E+02 -0.66223E+06
 0.50270000E+02 -0.96248E+06
 0.50320000E+02 -0.74368E+06
 0.50370003E+02 -0.12871E+06
 0.50420002E+02  0.21103E+06
 0.50470001E+02  0.12865E+06
 0.50520000E+02 -0.84003E+05
 0.50570000E+02 -0.23404E+06
 0.50620003E+02 -0.48366E+06
 0.50670002E+02 -0.82998E+06
 0.50720001E+02 -0.12247E+07
 0.50770000E+02 -0.18575E+07
 0.50820000E+02 -0.22784E+07
 0.50870003E+02 -0.20838E+07
 0.50920002E+02 -0.15842E+07
 0.50970001E+02 -0.84820E+06
 0.51020000E+02  0.39128E+05
 0.51070000E+02  0.78038E+06
 0.51120003E+02  0.94439E+06
 0.51170002E+02  0.67254E+06
 0.51220001E+02  0.67647E+06
 0.51270000E+02  0.81429E+06
 0.51320000E+02  0.94081E+06
 0.51370003E+02  0.13322E+07
 0.51420002E+02  0.20097E+07
 0.51470001E+02  0.30434E+07
 0.51520000E+02  0.36920E+07
 0.51570000E+02  0.32282E+07
 0.51620003E+02  0.23412E+07
 0.51670002E+02  0.14450E+07
 0.51720001E+02  0.60125E+06
 0.51770000E+02 -0.91475E+05
 0.51820000E+02 -0.75303E+06
 0.51870003E+02 -0.10988E+07
 0.51920002E+02 -0.65480E+06
 0.51970001E+02  0.58964E+06
 0.52020000E+02  0.17573E+07
 0.52070000E+02  0.22272E+07
 0.52120003E+02  0.23421E+07
 0.52170002E+02  0.23897E+07
 0.52220001E+02  0.21935E+07
 0.52270000E+02  0.16358E+07
 0.52320000E+02  0.94554E+06
 0.52370003E+02  0.25180E+06
 0.52420002E+02 -0.28729E+06
 0.52470001E+02 -0.55096E+06
 0.52520000E+02 -0.74023E+06
 0.52570000E+02 -0.90797E+06
 0.52620003E+02 -0.11821E+07
 0.52670002E+02 -0.13004E+07
 0.52720001E+02 -0.94667E+06
 0.52770000E+02 -0.52156E+06
 0.52820000E+02 -0.20030E+06
 0.52870003E+02 -0.39923E+06
 0.52920002E+02 -0.11323E+07
 0.52970001E+02 -0.14721E+07
 0.53020000E+02 -0.12014E+07
 0.53070000E+02 -0.57496E+06
 0.53120003E+02 -0.14467E+06
 0.53170002E+02 -0.45461E+06
 0.53220001E+02 -0.88486E+06
 0.53270000E+02 -0.11316E+07
 0.53320000E+02 -0.14004E+07
 0.53370003E+02 -0.13785E+07
 0.53420002E+02 -0.12022E+07
 0.53470001E+02 -0.10443E+07
 0.53520000E+02 -0.98384E+06
 0.53570000E+02 -0.13588E+07
 0.53620003E+02 -0.19419E+07
 0.53670002E+02 -0.22116E+07
 0.53720001E+02 -0.20462E+07
 0.53770000E+02 -0.15653E+07
 0.53820000E+02 -0.82827E+06
 0.53870003E+02  0.16104E+06
 0.53920002E+02  0.11746E+07
 0.53970001E+02  0.18636E+07
 0.54020000E+02  0.20604E+07
 0.54070000E+02  0.17346E+07
 0.54120003E+02  0.11740E+07
 0.54170002E+02  0.70059E+06
 0.54220001E+02  0.44591E+06
 0.54270000E+02  0.51288E+06
 0.54320000E+02  0.80586E+06
 0.54370003E+02  0.10244E+07
 0.54420002E+02  0.89941E+06
 0.54470001E+02  0.76984E+06
 0.54520000E+02  0.10779E+07
 0.54570000E+02  0.16341E+07
 0.54620003E+02  0.20807E+07
 0.54670002E+02  0.21114E+07
 0.54720001E+02  0.17067E+07
 0.54770000E+02  0.12205E+07
 0.54820000E+02  0.85725E+06
 0.54870003E+02  0.70904E+06
 0.54920002E+02  0.83864E+06
 0.54970001E+02  0.10265E+07
 0.55020000E+02  0.10901E+07
 0.55070000E+02  0.10484E+07
 0.55120003E+02  0.11835E+07
 0.55170002E+02  0.15252E+07
 0.55220001E+02  0.16194E+07
 0.55270000E+02  0.13793E+07
 0.55320000E+02  0.96502E+06
 0.55370003E+02  0.71611E+06
 0.55420002E+02  0.89778E+06
 0.55470001E+02  0.12497E+07
 0.55520000E+02  0.14868E+07
 0.55570000E+02  0.15774E+07
 0.55620003E+02  0.16530E+07
 0.55670002E+02  0.17279E+07
 0.55720001E+02  0.17122E+07
 0.55770000E+02  0.15287E+07
 0.55820000E+02  0.12203E+07
 0.55870003E+02  0.82487E+06
 0.55920002E+02  0.35463E+06
 0.55970001E+02  0.12016E+06
 0.56020000E+02  0.16472E+06
 0.56070000E+02  0.19316E+06
 0.56120003E+02  0.66308E+05
 0.56170002E+02 -0.16449E+06
 0.56220001E+02 -0.30465E+06
 0.56270000E+02 -0.26682E+06
 0.56320000E+02 -0.11831E+06
 0.56370003E+02 -0.11058E+05
 0.56420002E+02 -0.11707E+06
 0.56470001E+02 -0.48796E+06
 0.56520000E+02 -0.82427E+06
 0.56570000E+02 -0.82998E+06
 0.56620003E+02 -0.83729E+06
 0.56670002E+02 -0.10362E+07
 0.56720001E+02 -0.11769E+07
 0.56770000E+02 -0.10936E+07
 0.56820000E+02 -0.67402E+06
 0.56870003E+02 -0.10714E+06
 0.56920002E+02  0.36118E+06
 0.56970001E+02  0.58206E+06
 0.57020000E+02  0.13980E+06
 0.57070000E+02 -0.84616E+06
 0.57120003E+02 -0.15242E+07
 0.57170002E+02 -0.17116E+07
 0.57220001E+02 -0.17394E+07
 0.57270000E+02 -0.15909E+07
 0.57320000E+02 -0.12565E+07
 0.57370003E+02 -0.57547E+06
 0.57420002E+02  0.57408E+06
 0.57470001E+02  0.18813E+07
 0.57520000E+02  0.28345E+07
 0.57570000E+02  0.29938E+07
 0.57620003E+02  0.24875E+07
 0.57670002E+02  0.16598E+07
 0.57720001E+02  0.81708E+06
 0.57770000E+02  0.21655E+06
 0.57820000E+02 -0.12185E+06
 0.57870003E+02 -0.84016E+05
 0.57920002E+02  0.36446E+06
 0.57970001E+02  0.95177E+06
 0.58020000E+02  0.13426E+07
 0.58070000E+02  0.14325E+07
 0.58120003E+02  0.12907E+07
 0.58170002E+02  0.90326E+06
 0.58220001E+02  0.37639E+06
 0.58270000E+02 -0.19350E+06
 0.58320000E+02 -0.65160E+06
 0.58370003E+02 -0.81005E+06
 0.58420002E+02 -0.84183E+06
 0.58470001E+02 -0.67551E+06
 0.58520000E+02 -0.24683E+06
 0.58570000E+02  0.16953E+06
 0.58620003E+02  0.49026E+06
 0.58670002E+02  0.65839E+06
 0.58720001E+02  0.68170E+06
 0.58770000E+02  0.65842E+06
 0.58820000E+02  0.59000E+06
 0.58870003E+02  0.43047E+06
 0.58920002E+02  0.24968E+06
 0.58970001E+02  0.24536E+06
 0.59020000E+02  0.48249E+06
 0.59070000E+02  0.77106E+06
 0.59120003E+02  0.88268E+06
 0.59170002E+02  0.84368E+06
 0.59220001E+02  0.73337E+06
 0.59270000E+02  0.62940E+06
 0.59320000E+02  0.58576E+06
 0.59370003E+02  0.46212E+06
 0.59420002E+02  0.25137E+06
 0.59470001E+02  0.97257E+05
 0.59520000E+02  0.67370E+04
 0.59570000E+02 -0.20350E+06
 0.59620003E+02 -0.43788E+06
 0.59670002E+02 -0.29080E+06
 0.59720001E+02  0.77341E+05
 0.59770000E+02  0.38334E+06
 0.59820000E+02  0.60691E+06
 0.59870003E+02  0.52373E+06
 0.59920002E+02  0.27912E+06
 0.59970001E+02  0.16904E+06
 0.60020000E+02  0.80985E+05
 0.60070000E+02 -0.10497E+06
 0.60120003E+02 -0.38539E+06
 0.60170002E+02 -0.74441E+06
 0.60220001E+02 -0.12317E+07
 0.60270000E+02 -0.17261E+07
 0.60320000E+02 -0.19447E+07
 0.60370003E+02 -0.18069E+07
 0.60420002E+02 -0.15839E+07
 0.60470001E+02 -0.15120E+07
 0.60520000E+02 -0.15365E+07
 0.60570000E+02 -0.17154E+07
 0.60620003E+02 -0.20371E+07
 0.60670002E+02 -0.23952E+07
 0.60720001E+02 -0.28419E+07
 0.60770000E+02 -0.33111E+07
 0.60820000E+02 -0.36235E+07
 0.60870003E+02 -0.36107E+07
 0.60920002E+02 -0.32435E+07
 0.60970001E+02 -0.27537E+07
 0.61020000E+02 -0.23502E+07
 0.61070004E+02 -0.20948E+07
 0.61119999E+02 -0.18748E+07
 0.61170002E+02 -0.14715E+07
 0.61220005E+02 -0.81328E+06
 0.61270000E+02  0.12809E+05
 0.61320004E+02  0.72884E+06
 0.61369999E+02  0.11613E+07
 0.61420002E+02  0.12605E+07
 0.61470005E+02  0.95312E+06
 0.61520000E+02  0.50705E+06
 0.61570004E+02  0.24768E+06
 0.61619999E+02  0.22630E+06
 0.61670002E+02  0.26238E+06
 0.61720005E+02  0.24364E+06
 0.61770000E+02  0.31870E+06
 0.61820004E+02  0.41890E+06
 0.61869999E+02  0.42942E+06
 0.61920002E+02  0.39912E+06
 0.61970005E+02  0.33361E+06
 0.62020000E+02  0.12685E+06
 0.62070004E+02 -0.35363E+06
 0.62119999E+02 -0.93720E+06
 0.62170002E+02 -0.13921E+07
 0.62220005E+02 -0.15405E+07
 0.62270000E+02 -0.12487E+07
 0.62320004E+02 -0.63671E+06
 0.62369999E+02  0.77527E+05
 0.62420002E+02  0.76798E+06
 0.62470005E+02  0.13968E+07
 0.62520000E+02  0.18413E+07
 0.62570004E+02  0.19455E+07
 0.62619999E+02  0.16392E+07
 0.62670002E+02  0.10618E+07
 0.62720005E+02  0.46300E+06
 0.62770000E+02 -0.86986E+05
 0.62820004E+02 -0.48179E+06
 0.62869999E+02 -0.65771E+06
 0.62920002E+02 -0.70477E+06
 0.62970005E+02 -0.58501E+06
 0.63020000E+02 -0.44130E+06
 0.63070004E+02 -0.41636E+06
 0.63119999E+02 -0.38330E+06
 0.63170002E+02 -0.37295E+06
 0.63220005E+02 -0.40613E+06
 0.63270000E+02 -0.48904E+06
 0.63320004E+02 -0.65488E+06
 0.63369999E+02 -0.86505E+06
 0.63420002E+02 -0.98579E+06
 0.63470005E+02 -0.78092E+06
 0.63520000E+02 -0.41088E+06
 0.63570004E+02 -0.15812E+06
 0.63619999E+02 -0.13971E+06
 0.63670002E+02 -0.41988E+06
 0.63720005E+02 -0.69456E+06
 0.63770000E+02 -0.84033E+06
 0.63820004E+02 -0.11335E+07
 0.63869999E+02 -0.15604E+07
 0.63920002E+02 -0.18793E+07
 0.63970005E+02 -0.18815E+07
 0.64019997E+02 -0.15105E+07
 0.64070000E+02 -0.96917E+06
 0.64119995E+02 -0.43462E+06
 0.64169998E+02  0.40542E+05
 0.64220001E+02  0.35559E+06
 0.64269997E+02  0.53366E+06
 0.64320000E+02  0.71397E+06
 0.64369995E+02  0.93774E+06
 0.64419998E+02  0.11844E+07
 0.64470001E+02  0.13729E+07
 0.64519997E+02  0.14397E+07
 0.64570000E+02  0.13750E+07
 0.64619995E+02  0.12838E+07
 0.64669998E+02  0.13150E+07
 0.64720001E+02  0.14664E+07
 0.64769997E+02  0.16253E+07
 0.64820000E+02  0.16725E+07
 0.64869995E+02  0.16404E+07
 0.64919998E+02  0.15743E+07
 0.64970001E+02  0.15373E+07
 0.65019997E+02  0.16480E+07
 0.65070000E+02  0.17605E+07
 0.65119995E+02  0.16758E+07
 0.65169998E+02  0.14461E+07
 0.65220001E+02  0.12466E+07
 0.65269997E+02  0.11958E+07
 0.65320000E+02  0.12371E+07
 0.65369995E+02  0.13226E+07
 0.65419998E+02  0.15184E+07
 0.65470001E+02  0.17430E+07
 0.65519997E+02  0.18025E+07
 0.65570000E+02  0.15426E+07
 0.65619995E+02  0.96100E+06
 0.65669998E+02  0.33535E+06
 0.65720001E+02 -0.81901E+05
 0.65769997E+02 -0.32560E+06
 0.65820000E+02 -0.55195E+06
 0.65869995E+02 -0.71420E+06
 0.65919998E+02 -0.67322E+06
 0.65970001E+02 -0.53684E+06
 0.66019997E+02 -0.47923E+06
 0.66070000E+02 -0.49596E+06
 0.66119995E+02 -0.44855E+06
 0.66169998E+02 -0.27450E+06
 0.66220001E+02 -0.41448E+05
 0.66269997E+02  0.14425E+06
 0.66320000E+02  0.12631E+06
 0.66369995E+02 -0.12392E+06
 0.66419998E+02 -0.55954E+06
 0.66470001E+02 -0.11924E+07
 0.66519997E+02 -0.19115E+07
 0.66570000E+02 -0.25282E+07
 0.66619995E+02 -0.29023E+07
 0.66669998E+02 -0.30050E+07
 0.66720001E+02 -0.28119E+07
 0.66769997E+02 -0.23605E+07
 0.66820000E+02 -0.18610E+07
 0.66869995E+02 -0.14105E+07
 0.66919998E+02 -0.98781E+06
 0.66970001E+02 -0.65166E+06
 0.67019997E+02 -0.54977E+06
 0.67070000E+02 -0.68658E+06
 0.67119995E+02 -0.85671E+06
 0.67169998E+02 -0.84739E+06
 0.67220001E+02 -0.56869E+06
 0.67269997E+02 -0.93615E+05
 0.67320000E+02  0.43186E+06
 0.67369995E+02  0.81377E+06
 0.67419998E+02  0.94286E+06
 0.67470001E+02  0.86508E+06
 0.67519997E+02  0.60577E+06
 0.67570000E+02  0.24958E+06
 0.67619995E+02 -0.31918E+05
 0.67669998E+02 -0.18453E+06
 0.67720001E+02 -0.23900E+06
 0.67769997E+02 -0.24477E+06
 0.67820000E+02 -0.28294E+06
 0.67869995E+02 -0.26436E+06
 0.67919998E+02 -0.61805E+05
 0.67970001E+02  0.21582E+06
 0.68019997E+02  0.54305E+06
 0.68070000E+02  0.96773E+06
 0.68119995E+02  0.13721E+07
 0.68169998E+02  0.16789E+07
 0.68220001E+02  0.19108E+07
 0.68269997E+02  0.21286E+07
 0.68320000E+02  0.23601E+07
 0.68369995E+02  0.25312E+07
 0.68419998E+02  0.25419E+07
 0.68470001E+02  0.23342E+07
 0.68519997E+02  0.19600E+07
 0.68570000E+02  0.15543E+07
 0.68619995E+02  0.11697E+07
 0.68669998E+02  0.85888E+06
 0.68720001E+02  0.66296E+06
 0.68769997E+02  0.49184E+06
 0.68820000E+02  0.36013E+06
 0.68869995E+02  0.26844E+06
 0.68919998E+02  0.11325E+06
 0.68970001E+02 -0.93518E+05
 0.69019997E+02 -0.30454E+06
 0.69070000E+02 -0.51058E+06
 0.69119995E+02 -0.72939E+06
 0.69169998E+02 -0.96767E+06
 0.69220001E+02 -0.11831E+07
 0.69269997E+02 -0.13210E+07
 0.69320000E+02 -0.14097E+07
 0.69369995E+02 -0.14656E+07
 0.69419998E+02 -0.14452E+07
 0.69470001E+02 -0.14277E+07
 0.69519997E+02 -0.15013E+07
 0.69570000E+02 -0.16719E+07
 0.69619995E+02 -0.18717E+07
 0.69669998E+02 -0.19488E+07
 0.69720001E+02 -0.18330E+07
 0.69769997E+02 -0.15275E+07
 0.69820000E+02 -0.10664E+07
 0.69869995E+02 -0.51655E+06
 0.69919998E+02  0.83353E+05
 0.69970001E+02  0.69798E+06
 0.70019997E+02  0.12830E+07
 0.70070000E+02  0.17359E+07
 0.70119995E+02  0.19940E+07
 0.70169998E+02  0.20786E+07
 0.70220001E+02  0.19687E+07
 0.70269997E+02  0.16964E+07
 0.70320000E+02  0.13496E+07
 0.70369995E+02  0.98374E+06
 0.70419998E+02  0.62032E+06
 0.70470001E+02  0.22652E+06
 0.70519997E+02 -0.13614E+06
 0.70570000E+02 -0.35433E+06
 0.70619995E+02 -0.43103E+06
 0.70669998E+02 -0.35668E+06
 0.70720001E+02 -0.17072E+06
 0.70769997E+02  0.36913E+05
 0.70820000E+02  0.19123E+06
 0.70869995E+02  0.17144E+06
 0.70919998E+02  0.79950E+05
 0.70970001E+02  0.82991E+05
 0.71019997E+02  0.15280E+06
 0.71070000E+02  0.21870E+06
 0.71119995E+02  0.14882E+06
 0.71169998E+02 -0.53683E+05
 0.71220001E+02 -0.32934E+06
 0.71269997E+02 -0.64315E+06
 0.71320000E+02 -0.79516E+06
 0.71369995E+02 -0.72474E+06
 0.71419998E+02 -0.51874E+06
 0.71470001E+02 -0.28463E+06
 0.71519997E+02 -0.15157E+06
 0.71570000E+02 -0.12365E+06
 0.71619995E+02 -0.15583E+06
 0.71669998E+02 -0.19805E+06
 0.71720001E+02 -0.21851E+06
 0.71769997E+02 -0.24746E+06
 0.71820000E+02 -0.26357E+06
 0.71869995E+02 -0.23187E+06
 0.71919998E+02 -0.16750E+06
 0.71970001E+02 -0.64596E+05
 0.72019997E+02  0.82562E+05
 0.72070000E+02  0.23292E+06
 0.72119995E+02  0.32539E+06
 0.72169998E+02  0.43873E+06
 0.72220001E+02  0.65485E+06
 0.72269997E+02  0.92796E+06
 0.72320000E+02  0.11979E+07
 0.72369995E+02  0.13547E+07
 0.72419998E+02  0.13491E+07
 0.72470001E+02  0.11728E+07
 0.72519997E+02  0.85472E+06
 0.72570000E+02  0.50637E+06
 0.72619995E+02  0.25906E+06
 0.72669998E+02  0.18090E+06
 0.72720001E+02  0.18653E+06
 0.72769997E+02  0.19382E+06
 0.72820000E+02  0.16369E+06
 0.72869995E+02  0.90296E+05
 0.72919998E+02  0.10593E+05
 0.72970001E+02 -0.67753E+05
 0.73019997E+02 -0.16214E+06
 0.73070000E+02 -0.32905E+06
 0.73119995E+02 -0.60327E+06
 0.73169998E+02 -0.92485E+06
 0.73220001E+02 -0.12243E+07
 0.73269997E+02 -0.14770E+07
 0.73320000E+02 -0.16192E+07
 0.73369995E+02 -0.16020E+07
 0.73419998E+02 -0.14836E+07
 0.73470001E+02 -0.13092E+07
 0.73519997E+02 -0.11172E+07
 0.73570000E+02 -0.94597E+06
 0.73619995E+02 -0.78075E+06
 0.73669998E+02 -0.62600E+06
 0.73720001E+02 -0.46310E+06
 0.73769997E+02 -0.26872E+06
 0.73820000E+02 -0.34103E+05
 0.73869995E+02  0.23401E+06
 0.73919998E+02  0.49989E+06
 0.73970001E+02  0.74294E+06
 0.74019997E+02  0.90516E+06
 0.74070000E+02  0.97304E+06
 0.74119995E+02  0.10048E+07
 0.74169998E+02  0.10268E+07
 0.74220001E+02  0.10617E+07
 0.74269997E+02  0.11089E+07
 0.74320000E+02  0.11465E+07
 0.74369995E+02  0.11684E+07
 0.74419998E+02  0.11299E+07
 0.74470001E+02  0.98806E+06
 0.74519997E+02  0.75814E+06
 0.74570000E+02  0.52658E+06
 0.74619995E+02  0.36561E+06
 0.74669998E+02  0.28281E+06
 0.74720001E+02  0.28578E+06
 0.74769997E+02  0.30347E+06
 0.74820000E+02  0.27066E+06
 0.74869995E+02  0.18512E+06
 0.74919998E+02  0.22390E+05
 0.74970001E+02 -0.20250E+06
 0.75019997E+02 -0.43241E+06
 0.75070000E+02 -0.62120E+06
 0.75119995E+02 -0.80889E+06
 0.75169998E+02 -0.10196E+07
 0.75220001E+02 -0.11935E+07
 0.75269997E+02 -0.13171E+07
 0.75320000E+02 -0.14006E+07
 0.75369995E+02 -0.14331E+07
 0.75419998E+02 -0.13709E+07
 0.75470001E+02 -0.12111E+07
 0.75519997E+02 -0.10563E+07
 0.75570000E+02 -0.94981E+06
 0.75619995E+02 -0.82806E+06
 0.75669998E+02 -0.67082E+06
 0.75720001E+02 -0.46828E+06
 0.75769997E+02 -0.21636E+06
 0.75820000E+02  0.42136E+05
 0.75869995E+02  0.30638E+06
 0.75919998E+02  0.52254E+06
 0.75970001E+02  0.60549E+06
 0.76019997E+02  0.55246E+06
 0.76070000E+02  0.41427E+06
 0.76119995E+02  0.28443E+06
 0.76169998E+02  0.21236E+06
 0.76220001E+02  0.17712E+06
 0.76269997E+02  0.13728E+06
 0.76320000E+02  0.94172E+05
 0.76369995E+02  0.97907E+05
 0.76419998E+02  0.17501E+06
 0.76470001E+02  0.31016E+06
 0.76519997E+02  0.44104E+06
 0.76570000E+02  0.48182E+06
 0.76619995E+02  0.41660E+06
 0.76669998E+02  0.29888E+06
 0.76720001E+02  0.19111E+06
 0.76769997E+02  0.14935E+06
 0.76820000E+02  0.22004E+06
 0.76869995E+02  0.43026E+06
 0.76919998E+02  0.68440E+06
 0.76970001E+02  0.85610E+06
 0.77019997E+02  0.92903E+06
 0.77070000E+02  0.92088E+06
 0.77119995E+02  0.87621E+06
 0.77169998E+02  0.84032E+06
 0.77220001E+02  0.84103E+06
 0.77269997E+02  0.88203E+06
 0.77320000E+02  0.87384E+06
 0.77369995E+02  0.77257E+06
 0.77419998E+02  0.63492E+06
 0.77470001E+02  0.45785E+06
 0.77519997E+02  0.24275E+06
 0.77570000E+02  0.43026E+05
 0.77619995E+02 -0.11468E+06
 0.77669998E+02 -0.20932E+06
 0.77720001E+02 -0.24081E+06
 0.77769997E+02 -0.22215E+06
 0.77820000E+02 -0.16450E+06
 0.77869995E+02 -0.14355E+06
 0.77919998E+02 -0.19412E+06
 0.77970001E+02 -0.26081E+06
 0.78019997E+02 -0.34715E+06
 0.78070000E+02 -0.46882E+06
 0.78119995E+02 -0.57749E+06
 0.78169998E+02 -0.61776E+06
 0.78220001E+02 -0.57648E+06
 0.78269997E+02 -0.49990E+06
 0.78320000E+02 -0.44573E+06
 0.78369995E+02 -0.41656E+06
 0.78419998E+02 -0.38124E+06
 0.78470001E+02 -0.31748E+06
 0.78519997E+02 -0.23315E+06
 0.78570000E+02 -0.16688E+06
 0.78619995E+02 -0.73172E+05
 0.78669998E+02  0.12187E+06
 0.78720001E+02  0.35932E+06
 0.78769997E+02  0.51912E+06
 0.78820000E+02  0.52975E+06
 0.78869995E+02  0.41753E+06
 0.78919998E+02  0.28995E+06
 0.78970001E+02  0.20964E+06
 0.79019997E+02  0.13428E+06
 0.79070000E+02  0.39106E+05
 0.79119995E+02 -0.64039E+05
 0.79169998E+02 -0.16541E+06
 0.79220001E+02 -0.23694E+06
 0.79269997E+02 -0.30378E+06
 0.79320000E+02 -0.40337E+06
 0.79369995E+02 -0.53915E+06
 0.79419998E+02 -0.66725E+06
 0.79470001E+02 -0.73912E+06
 0.79519997E+02 -0.79923E+06
 0.79570000E+02 -0.84910E+06
 0.79619995E+02 -0.86129E+06
 0.79669998E+02 -0.88324E+06
 0.79720001E+02 -0.93766E+06
 0.79769997E+02 -0.10216E+07
 0.79820000E+02 -0.11339E+07
 0.79869995E+02 -0.12316E+07
 0.79919998E+02 -0.12508E+07
 0.79970001E+02 -0.11865E+07
 0.80019997E+02 -0.10703E+07
 0.80070000E+02 -0.90924E+06
 0.80119995E+02 -0.73459E+06
 0.80169998E+02 -0.60501E+06
 0.80220001E+02 -0.54872E+06
 0.80269997E+02 -0.53829E+06
 0.80320000E+02 -0.53131E+06
 0.80369995E+02 -0.52230E+06
 0.80419998E+02 -0.53088E+06
 0.80470001E+02 -0.56462E+06
 0.80519997E+02 -0.57751E+06
 0.80570000E+02 -0.52538E+06
 0.80619995E+02 -0.38498E+06
 0.80669998E+02 -0.15067E+06
 0.80720001E+02  0.11141E+06
 0.80769997E+02  0.34941E+06
 0.80820000E+02  0.54658E+06
 0.80869995E+02  0.69872E+06
 0.80919998E+02  0.80101E+06
 0.80970001E+02  0.82882E+06
 0.81019997E+02  0.78975E+06
 0.81070000E+02  0.68620E+06
 0.81119995E+02  0.56980E+06
 0.81169998E+02  0.51375E+06
 0.81220001E+02  0.50099E+06
 0.81269997E+02  0.51225E+06
 0.81320000E+02  0.54216E+06
 0.81369995E+02  0.57472E+06
 0.81419998E+02  0.60237E+06
 0.81470001E+02  0.61730E+06
 0.81519997E+02  0.60536E+06
 0.81570000E+02  0.56741E+06
 0.81619995E+02  0.53491E+06
 0.81669998E+02  0.52174E+06
 0.81720001E+02  0.48956E+06
 0.81769997E+02  0.40014E+06
 0.81820000E+02  0.23770E+06
 0.81869995E+02 -0.23456E+05
 0.81919998E+02 -0.35281E+06
 0.81970001E+02 -0.66363E+06
 0.82019997E+02 -0.90108E+06
 0.82070000E+02 -0.10264E+07
 0.82119995E+02 -0.10351E+07
 0.82169998E+02 -0.97642E+06
 0.82220001E+02 -0.88124E+06
 0.82269997E+02 -0.77099E+06
 0.82320000E+02 -0.67224E+06
 0.82369995E+02 -0.59227E+06
 0.82419998E+02 -0.53927E+06
 0.82470001E+02 -0.49108E+06
 0.82519997E+02 -0.43885E+06
 0.82570000E+02 -0.39754E+06
 0.82619995E+02 -0.33041E+06
 0.82669998E+02 -0.24471E+06
 0.82720001E+02 -0.16144E+06
 0.82769997E+02 -0.62959E+05
 0.82820000E+02  0.43936E+05
 0.82869995E+02  0.18399E+06
 0.82919998E+02  0.40221E+06
 0.82970001E+02  0.71889E+06
 0.83019997E+02  0.10825E+07
 0.83070000E+02  0.14073E+07
 0.83119995E+02  0.16779E+07
 0.83169998E+02  0.18914E+07
 0.83220001E+02  0.20229E+07
 0.83269997E+02  0.20493E+07
 0.83320000E+02  0.19500E+07
 0.83369995E+02  0.17387E+07
 0.83419998E+02  0.14674E+07
 0.83470001E+02  0.11763E+07
 0.83519997E+02  0.90780E+06
 0.83570000E+02  0.68670E+06
 0.83619995E+02  0.51709E+06
 0.83669998E+02  0.45603E+06
 0.83720001E+02  0.48551E+06
 0.83769997E+02  0.51869E+06
 0.83820000E+02  0.51960E+06
 0.83869995E+02  0.44992E+06
 0.83919998E+02  0.32638E+06
 0.83970001E+02  0.18866E+06
 0.84019997E+02  0.14160E+05
 0.84070000E+02 -0.19036E+06
 0.84119995E+02 -0.38632E+06
 0.84169998E+02 -0.55181E+06
 0.84220001E+02 -0.66309E+06
 0.84269997E+02 -0.69526E+06
 0.84320000E+02 -0.65520E+06
 0.84369995E+02 -0.57473E+06
 0.84419998E+02 -0.48847E+06
 0.84470001E+02 -0.43244E+06
 0.84519997E+02 -0.41425E+06
 0.84570000E+02 -0.40360E+06
 0.84619995E+02 -0.34821E+06
 0.84669998E+02 -0.21592E+06
 0.84720001E+02 -0.22136E+05
 0.84769997E+02  0.17050E+06
 0.84820000E+02  0.26567E+06
 0.84869995E+02  0.20452E+06
 0.84919998E+02  0.30690E+04
 0.84970001E+02 -0.26258E+06
 0.85019997E+02 -0.52204E+06
 0.85070000E+02 -0.76590E+06
 0.85119995E+02 -0.98255E+06
 0.85169998E+02 -0.11319E+07
 0.85220001E+02 -0.11826E+07
 0.85269997E+02 -0.11190E+07
 0.85320000E+02 -0.96380E+06
 0.85369995E+02 -0.76590E+06
 0.85419998E+02 -0.56686E+06
 0.85470001E+02 -0.40249E+06
 0.85519997E+02 -0.29614E+06
 0.85570000E+02 -0.24618E+06
 0.85619995E+02 -0.23655E+06
 0.85669998E+02 -0.24565E+06
 0.85720001E+02 -0.24895E+06
 0.85769997E+02 -0.22685E+06
 0.85820000E+02 -0.16722E+06
 0.85869995E+02 -0.68762E+05
 0.85919998E+02  0.76663E+05
 0.85970001E+02  0.27017E+06
 0.86019997E+02  0.45732E+06
 0.86070000E+02  0.56506E+06
 0.86119995E+02  0.58934E+06
 0.86169998E+02  0.57074E+06
 0.86220001E+02  0.52079E+06
 0.86269997E+02  0.45736E+06
 0.86320000E+02  0.42306E+06
 0.86369995E+02  0.43447E+06
 0.86419998E+02  0.47850E+06
 0.86470001E+02  0.52814E+06
 0.86519997E+02  0.54500E+06
 0.86570000E+02  0.48662E+06
 0.86619995E+02  0.33670E+06
 0.86669998E+02  0.12828E+06
 0.86720001E+02 -0.78330E+05
 0.86769997E+02 -0.22229E+06
 0.86820000E+02 -0.28512E+06
 0.86869995E+02 -0.30265E+06
 0.86919998E+02 -0.30984E+06
 0.86970001E+02 -0.32895E+06
 0.87019997E+02 -0.35927E+06
 0.87070000E+02 -0.35236E+06
 0.87119995E+02 -0.27161E+06
 0.87169998E+02 -0.11523E+06
 0.87220001E+02  0.11219E+06
 0.87269997E+02  0.40266E+06
 0.87320000E+02  0.72323E+06
 0.87369995E+02  0.99461E+06
 0.87419998E+02  0.11631E+07
 0.87470001E+02  0.12247E+07
 0.87519997E+02  0.11933E+07
 0.87570000E+02  0.11101E+07
 0.87619995E+02  0.10222E+07
 0.87669998E+02  0.94934E+06
 0.87720001E+02  0.87676E+06
 0.87769997E+02  0.77608E+06
 0.87820000E+02  0.62113E+06
 0.87869995E+02  0.41686E+06
 0.87919998E+02  0.21843E+06
 0.87970001E+02  0.64580E+05
 0.88019997E+02 -0.50057E+05
 0.88070000E+02 -0.14598E+06
 0.88119995E+02 -0.23219E+06
 0.88169998E+02 -0.30284E+06
 0.88220001E+02 -0.36937E+06
 0.88269997E+02 -0.41808E+06
 0.88320000E+02 -0.38986E+06
 0.88369995E+02 -0.26714E+06
 0.88419998E+02 -0.11579E+06
 0.88470001E+02 -0.12361E+05
 0.88519997E+02  0.14671E+05
 0.88570000E+02 -0.30343E+05
 0.88619995E+02 -0.11132E+06
 0.88669998E+02 -0.15298E+06
 0.88720001E+02 -0.99331E+05
 0.88769997E+02  0.21750E+04
 0.88820000E+02  0.83213E+05
 0.88869995E+02  0.12675E+06
 0.88919998E+02  0.12071E+06
 0.88970001E+02  0.59689E+05
 0.89019997E+02 -0.46937E+05
 0.89070000E+02 -0.16053E+06
 0.89119995E+02 -0.25712E+06
 0.89169998E+02 -0.32816E+06
 0.89220001E+02 -0.35270E+06
 0.89269997E+02 -0.34050E+06
 0.89320000E+02 -0.29872E+06
 0.89369995E+02 -0.26049E+06
 0.89419998E+02 -0.27234E+06
 0.89470001E+02 -0.31239E+06
 0.89519997E+02 -0.36330E+06
 0.89570000E+02 -0.43216E+06
 0.89619995E+02 -0.50153E+06
 0.89669998E+02 -0.53110E+06
 0.89720001E+02 -0.48784E+06
 0.89769997E+02 -0.36808E+06
 0.89820000E+02 -0.21434E+06
 0.89869995E+02 -0.90286E+05
 0.89919998E+02 -0.27650E+04
 0.89970001E+02  0.65641E+05
 0.90019997E+02  0.12574E+06
 0.90070000E+02  0.18506E+06
 0.90119995E+02  0.22482E+06
 0.90169998E+02  0.23407E+06
 0.90220001E+02  0.22642E+06
 0.90269997E+02  0.21277E+06
 0.90320000E+02  0.19257E+06
 0.90369995E+02  0.17243E+06
 0.90419998E+02  0.15551E+06
 0.90470001E+02  0.14636E+06
 0.90519997E+02  0.17243E+06
 0.90570000E+02  0.24139E+06
 0.90619995E+02  0.33198E+06
 0.90669998E+02  0.41171E+06
 0.90720001E+02  0.45317E+06
 0.90769997E+02  0.45953E+06
 0.90820000E+02  0.43918E+06
 0.90869995E+02  0.39947E+06
 0.90919998E+02  0.34279E+06
 0.90970001E+02  0.25487E+06
 0.91019997E+02  0.12992E+06
 0.91070000E+02 -0.37469E+05
 0.91119995E+02 -0.24920E+06
 0.91169998E+02 -0.47560E+06
 0.91220001E+02 -0.67409E+06
 0.91269997E+02 -0.81327E+06
 0.91320000E+02 -0.88974E+06
 0.91369995E+02 -0.91356E+06
 0.91419998E+02 -0.89322E+06
 0.91470001E+02 -0.86896E+06
 0.91519997E+02 -0.89047E+06
 0.91570000E+02 -0.96326E+06
 0.91619995E+02 -0.10572E+07
 0.91669998E+02 -0.11551E+07
 0.91720001E+02 -0.12367E+07
 0.91769997E+02 -0.12756E+07
 0.91820000E+02 -0.12590E+07
 0.91869995E+02 -0.11657E+07
 0.91919998E+02 -0.99772E+06
 0.91970001E+02 -0.76022E+06
 0.92019997E+02 -0.48199E+06
 0.92070000E+02 -0.23386E+06
 0.92119995E+02 -0.42509E+05
 0.92169998E+02  0.93360E+05
 0.92220001E+02  0.18567E+06
 0.92269997E+02  0.25675E+06
 0.92320000E+02  0.31693E+06
 0.92369995E+02  0.37165E+06
 0.92419998E+02  0.43609E+06
 0.92470001E+02  0.50493E+06
 0.92519997E+02  0.54445E+06
 0.92570000E+02  0.55738E+06
 0.92619995E+02  0.54708E+06
 0.92669998E+02  0.49529E+06
 0.92720001E+02  0.42417E+06
 0.92769997E+02  0.35870E+06
 0.92820000E+02  0.28508E+06
 0.92869995E+02  0.18418E+06
 0.92919998E+02  0.46442E+05
 0.92970001E+02 -0.11024E+06
 0.93019997E+02 -0.25270E+06
 0.93070000E+02 -0.36024E+06
 0.93119995E+02 -0.39452E+06
 0.93169998E+02 -0.34877E+06
 0.93220001E+02 -0.26127E+06
 0.93269997E+02 -0.14657E+06
 0.93320000E+02 -0.21866E+05
 0.93369995E+02  0.96794E+05
 0.93419998E+02  0.21199E+06
 0.93470001E+02  0.34181E+06
 0.93519997E+02  0.49223E+06
 0.93570000E+02  0.63824E+06
 0.93619995E+02  0.79390E+06
 0.93669998E+02  0.97792E+06
 0.93720001E+02  0.11727E+07
 0.93769997E+02  0.13593E+07
 0.93820000E+02  0.15004E+07
 0.93869995E+02  0.15762E+07
 0.93919998E+02  0.16019E+07
 0.93970001E+02  0.15886E+07
 0.94019997E+02  0.15606E+07
 0.94070000E+02  0.15257E+07
 0.94119995E+02  0.14598E+07
 0.94169998E+02  0.13599E+07
 0.94220001E+02  0.12338E+07
 0.94269997E+02  0.10627E+07
 0.94320000E+02  0.82112E+06
 0.94369995E+02  0.52748E+06
 0.94419998E+02  0.24133E+06
 0.94470001E+02  0.83040E+04
 0.94519997E+02 -0.15903E+06
 0.94570000E+02 -0.25088E+06
 0.94619995E+02 -0.27366E+06
 0.94669998E+02 -0.26103E+06
 0.94720001E+02 -0.23259E+06
 0.94769997E+02 -0.20453E+06
 0.94820000E+02 -0.21597E+06
 0.94869995E+02 -0.30597E+06
 0.94919998E+02 -0.45467E+06
 0.94970001E+02 -0.58801E+06
 0.95019997E+02 -0.66642E+06
 0.95070000E+02 -0.70124E+06
 0.95119995E+02 -0.71204E+06
 0.95169998E+02 -0.70693E+06
 0.95220001E+02 -0.69805E+06
 0.95269997E+02 -0.70432E+06
 0.95320000E+02 -0.73082E+06
 0.95369995E+02 -0.77788E+06
 0.95419998E+02 -0.83935E+06
 0.95470001E+02 -0.90581E+06
 0.95519997E+02 -0.96613E+06
 0.95570000E+02 -0.99702E+06
 0.95619995E+02 -0.98053E+06
 0.95669998E+02 -0.91695E+06
 0.95720001E+02 -0.83920E+06
 0.95769997E+02 -0.79839E+06
 0.95820000E+02 -0.81097E+06
 0.95869995E+02 -0.85959E+06
 0.95919998E+02 -0.91929E+06
 0.95970001E+02 -0.95534E+06
 0.96019997E+02 -0.94706E+06
 0.96070000E+02 -0.90710E+06
 0.96119995E+02 -0.86198E+06
 0.96169998E+02 -0.83141E+06
 0.96220001E+02 -0.82267E+06
 0.96269997E+02 -0.83125E+06
 0.96320000E+02 -0.82822E+06
 0.96369995E+02 -0.77960E+06
 0.96419998E+02 -0.67115E+06
 0.96470001E+02 -0.51918E+06
 0.96519997E+02 -0.38596E+06
 0.96570000E+02 -0.32210E+06
 0.96619995E+02 -0.31909E+06
 0.96669998E+02 -0.34142E+06
 0.96720001E+02 -0.35219E+06
 0.96769997E+02 -0.33361E+06
 0.96820000E+02 -0.28872E+06
 0.96869995E+02 -0.21601E+06
 0.96919998E+02 -0.10867E+06
 0.96970001E+02  0.22021E+05
 0.97019997E+02  0.13966E+06
 0.97070000E+02  0.22815E+06
 0.97119995E+02  0.32063E+06
 0.97169998E+02  0.44670E+06
 0.97220001E+02  0.58114E+06
 0.97269997E+02  0.66927E+06
 0.97320000E+02  0.69160E+06
 0.97369995E+02  0.66499E+06
 0.97419998E+02  0.60606E+06
 0.97470001E+02  0.52857E+06
 0.97519997E+02  0.44953E+06
 0.97570000E+02  0.38783E+06
 0.97619995E+02  0.35524E+06
 0.97669998E+02  0.35146E+06
 0.97720001E+02  0.35974E+06
 0.97769997E+02  0.36054E+06
 0.97820000E+02  0.35452E+06
 0.97869995E+02  0.34361E+06
 0.97919998E+02  0.33874E+06
 0.97970001E+02  0.36567E+06
 0.98019997E+02  0.42042E+06
 0.98070000E+02  0.49006E+06
 0.98119995E+02  0.55449E+06
 0.98169998E+02  0.59017E+06
 0.98220001E+02  0.61068E+06
 0.98269997E+02  0.62042E+06
 0.98320000E+02  0.62143E+06
 0.98369995E+02  0.63296E+06
 0.98419998E+02  0.67683E+06
 0.98470001E+02  0.75691E+06
 0.98519997E+02  0.82891E+06
 0.98570000E+02  0.88043E+06
 0.98619995E+02  0.92916E+06
 0.98669998E+02  0.96848E+06
 0.98720001E+02  0.99134E+06
 0.98769997E+02  0.96499E+06
 0.98820000E+02  0.85651E+06
 0.98869995E+02  0.68874E+06
 0.98919998E+02  0.51160E+06
 0.98970001E+02  0.36846E+06
 0.99019997E+02  0.29359E+06
 0.99070000E+02  0.28814E+06
 0.99119995E+02  0.31108E+06
 0.99169998E+02  0.31104E+06
 0.99220001E+02  0.25068E+06
 0.99269997E+02  0.12924E+06
 0.99320000E+02 -0.14177E+05
 0.99369995E+02 -0.13727E+06
 0.99419998E+02 -0.22108E+06
 0.99470001E+02 -0.25454E+06
 0.99519997E+02 -0.23915E+06
 0.99570000E+02 -0.19295E+06
 0.99619995E+02 -0.12943E+06
 0.99669998E+02 -0.64843E+05
 0.99720001E+02 -0.21005E+05
 0.99769997E+02 -0.13415E+05
 0.99820000E+02 -0.37673E+05
 0.99869995E+02 -0.82896E+05
 0.99919998E+02 -0.13008E+06
 0.99970001E+02 -0.14760E+06
 0.10002000E+03 -0.12898E+06
 0.10007000E+03 -0.86496E+05
 0.10012000E+03 -0.38039E+05
 0.10017000E+03  0.77810E+04
 0.10022000E+03  0.43976E+05
 0.10027000E+03  0.43194E+05
 0.10032000E+03 -0.13080E+04
 0.10037000E+03 -0.70267E+05
 0.10042000E+03 -0.14189E+06
 0.10047000E+03 -0.19363E+06
 0.10052000E+03 -0.21656E+06
 0.10057000E+03 -0.21836E+06
 0.10062000E+03 -0.22613E+06
 0.10067000E+03 -0.27932E+06
 0.10072000E+03 -0.37665E+06
 0.10077000E+03 -0.48226E+06
 0.10082000E+03 -0.56423E+06
 0.10087000E+03 -0.59925E+06
 0.10092000E+03 -0.59114E+06
 0.10097000E+03 -0.55574E+06
 0.10102000E+03 -0.50621E+06
 0.10107000E+03 -0.44531E+06
 0.10112000E+03 -0.36974E+06
 0.10117000E+03 -0.30327E+06
 0.10122000E+03 -0.26049E+06
 0.10127000E+03 -0.23029E+06
 0.10132000E+03 -0.20320E+06
 0.10137000E+03 -0.16236E+06
 0.10142000E+03 -0.10744E+06
 0.10147000E+03 -0.57111E+05
 0.10152000E+03 -0.22157E+05
 0.10157000E+03 -0.13325E+05
 0.10162000E+03 -0.36053E+05
 0.10167000E+03 -0.84829E+05
 0.10172000E+03 -0.14289E+06
 0.10177000E+03 -0.18882E+06
 0.10182000E+03 -0.20921E+06
 0.10187000E+03 -0.18812E+06
 0.10192000E+03 -0.10948E+06
 0.10197000E+03  0.62430E+04
 0.10202000E+03  0.10396E+06
 0.10207000E+03  0.14334E+06
 0.10212000E+03  0.11361E+06
 0.10217000E+03  0.25525E+05
 0.10222000E+03 -0.91670E+05
 0.10227000E+03 -0.20975E+06
 0.10232000E+03 -0.31076E+06
 0.10237000E+03 -0.38615E+06
 0.10242000E+03 -0.44865E+06
 0.10247000E+03 -0.50780E+06
 0.10252000E+03 -0.55416E+06
 0.10257000E+03 -0.57384E+06
 0.10262000E+03 -0.54744E+06
 0.10267000E+03 -0.46843E+06
 0.10272000E+03 -0.34780E+06
 0.10277000E+03 -0.21730E+06
 0.10282000E+03 -0.11293E+06
 0.10287000E+03 -0.41096E+05
 0.10292000E+03  0.78300E+03
 0.10297000E+03  0.19162E+05
 0.10302000E+03  0.20313E+05
 0.10307000E+03  0.25797E+05
 0.10312000E+03  0.61670E+05
 0.10317000E+03  0.10586E+06
 0.10322000E+03  0.13058E+06
 0.10327000E+03  0.12896E+06
 0.10332000E+03  0.96526E+05
 0.10337000E+03  0.37330E+05
 0.10342000E+03 -0.32123E+05
 0.10347000E+03 -0.92499E+05
 0.10352000E+03 -0.13676E+06
 0.10357000E+03 -0.16968E+06
 0.10362000E+03 -0.18248E+06
 0.10367000E+03 -0.15048E+06
 0.10372000E+03 -0.66653E+05
 0.10377000E+03  0.63780E+05
 0.10382000E+03  0.22746E+06
 0.10387000E+03  0.40362E+06
 0.10392000E+03  0.57940E+06
 0.10397000E+03  0.74900E+06
 0.10402000E+03  0.91038E+06
 0.10407000E+03  0.10541E+07
 0.10412000E+03  0.11554E+07
 0.10417000E+03  0.11910E+07
 0.10422000E+03  0.11724E+07
 0.10427000E+03  0.11259E+07
 0.10432000E+03  0.10556E+07
 0.10437000E+03  0.95216E+06
 0.10442000E+03  0.81543E+06
 0.10447000E+03  0.67359E+06
 0.10452000E+03  0.57007E+06
 0.10457000E+03  0.51381E+06
 0.10462000E+03  0.46460E+06
 0.10467000E+03  0.38223E+06
 0.10472000E+03  0.26004E+06
 0.10477000E+03  0.12199E+06
 0.10482000E+03  0.86720E+04
 0.10487000E+03 -0.58263E+05
 0.10492000E+03 -0.90704E+05
 0.10497000E+03 -0.10897E+06
 0.10502000E+03 -0.12263E+06
 0.10507000E+03 -0.14306E+06
 0.10512000E+03 -0.19156E+06
 0.10517000E+03 -0.28757E+06
 0.10522000E+03 -0.43507E+06
 0.10527000E+03 -0.61740E+06
 0.10532000E+03 -0.80077E+06
 0.10537000E+03 -0.94247E+06
 0.10542000E+03 -0.10042E+07
 0.10547000E+03 -0.96434E+06
 0.10552000E+03 -0.84203E+06
 0.10557000E+03 -0.68187E+06
 0.10562000E+03 -0.52485E+06
 0.10567000E+03 -0.41026E+06
 0.10572000E+03 -0.35374E+06
 0.10577000E+03 -0.34737E+06
 0.10582000E+03 -0.37443E+06
 0.10587000E+03 -0.41162E+06
 0.10592000E+03 -0.43809E+06
 0.10597000E+03 -0.43527E+06
 0.10602000E+03 -0.40461E+06
 0.10607000E+03 -0.36947E+06
 0.10612000E+03 -0.34974E+06
 0.10617000E+03 -0.35260E+06
 0.10622000E+03 -0.36263E+06
 0.10627000E+03 -0.36061E+06
 0.10632000E+03 -0.34161E+06
 0.10637000E+03 -0.30268E+06
 0.10642000E+03 -0.24642E+06
 0.10647000E+03 -0.17435E+06
 0.10652000E+03 -0.80399E+05
 0.10657000E+03  0.32666E+05
 0.10662000E+03  0.14049E+06
 0.10667000E+03  0.21763E+06
 0.10672000E+03  0.26072E+06
 0.10677000E+03  0.28557E+06
 0.10682000E+03  0.30806E+06
 0.10687000E+03  0.32266E+06
 0.10692000E+03  0.32113E+06
 0.10697000E+03  0.30715E+06
 0.10702000E+03  0.28650E+06
 0.10707000E+03  0.26300E+06
 0.10712000E+03  0.23264E+06
 0.10717000E+03  0.18577E+06
 0.10722000E+03  0.11013E+06
 0.10727000E+03 -0.73660E+04
 0.10732000E+03 -0.16872E+06
 0.10737000E+03 -0.34455E+06
 0.10742000E+03 -0.48144E+06
 0.10747000E+03 -0.54599E+06
 0.10752000E+03 -0.53564E+06
 0.10757000E+03 -0.46652E+06
 0.10762000E+03 -0.37659E+06
 0.10767000E+03 -0.30247E+06
 0.10772000E+03 -0.25439E+06
 0.10777000E+03 -0.21841E+06
 0.10782000E+03 -0.17472E+06
 0.10787000E+03 -0.11152E+06
 0.10792000E+03 -0.26912E+05
 0.10797000E+03  0.59465E+05
 0.10802000E+03  0.12584E+06
 0.10807000E+03  0.17405E+06
 0.10812000E+03  0.20995E+06
 0.10817000E+03  0.22311E+06
 0.10822000E+03  0.19711E+06
 0.10827000E+03  0.13312E+06
 0.10832000E+03  0.47829E+05
 0.10837000E+03 -0.32910E+05
 0.10842000E+03 -0.81471E+05
 0.10847000E+03 -0.93425E+05
 0.10852000E+03 -0.71926E+05
 0.10857000E+03 -0.20679E+05
 0.10862000E+03  0.41059E+05
 0.10867000E+03  0.97044E+05
 0.10872000E+03  0.13561E+06
 0.10877000E+03  0.15224E+06
 0.10882000E+03  0.16450E+06
 0.10887000E+03  0.19041E+06
 0.10892000E+03  0.23451E+06
 0.10897000E+03  0.30463E+06
 0.10902000E+03  0.39908E+06
 0.10907000E+03  0.48954E+06
 0.10912000E+03  0.54355E+06
 0.10917000E+03  0.54990E+06
 0.10922000E+03  0.52145E+06
 0.10927000E+03  0.48051E+06
 0.10932000E+03  0.44116E+06
 0.10937000E+03  0.40687E+06
 0.10942000E+03  0.37195E+06
 0.10947000E+03  0.31598E+06
 0.10952000E+03  0.23853E+06
 0.10957000E+03  0.16566E+06
 0.10962000E+03  0.11026E+06
 0.10967000E+03  0.68003E+05
 0.10972000E+03  0.16903E+05
 0.10977000E+03 -0.55971E+05
 0.10982000E+03 -0.14031E+06
 0.10987000E+03 -0.22579E+06
 0.10992000E+03 -0.30354E+06
 0.10997000E+03 -0.36191E+06
 0.11002000E+03 -0.38206E+06
 0.11007000E+03 -0.35507E+06
 0.11012000E+03 -0.29084E+06
 0.11017000E+03 -0.21362E+06
 0.11022000E+03 -0.15758E+06
 0.11027000E+03 -0.14306E+06
 0.11032000E+03 -0.16704E+06
 0.11037000E+03 -0.20693E+06
 0.11042000E+03 -0.23680E+06
 0.11047000E+03 -0.23942E+06
 0.11052000E+03 -0.20716E+06
 0.11057000E+03 -0.14964E+06
 0.11062000E+03 -0.82877E+05
 0.11067000E+03 -0.17502E+05
 0.11072000E+03  0.39858E+05
 0.11077000E+03  0.88122E+05
 0.11082000E+03  0.13862E+06
 0.11087000E+03  0.21165E+06
 0.11092000E+03  0.31080E+06
 0.11097000E+03  0.41750E+06
 0.11102000E+03  0.51048E+06
 0.11107000E+03  0.57742E+06
 0.11112000E+03  0.60813E+06
 0.11117000E+03  0.59163E+06
 0.11122000E+03  0.53287E+06
 0.11127000E+03  0.44882E+06
 0.11132000E+03  0.35695E+06
 0.11137000E+03  0.27098E+06
 0.11142000E+03  0.19465E+06
 0.11147000E+03  0.13382E+06
 0.11152000E+03  0.10202E+06
 0.11157000E+03  0.10354E+06
 0.11162000E+03  0.11134E+06
 0.11167000E+03  0.89513E+05
 0.11172000E+03  0.38009E+05
 0.11177000E+03 -0.26164E+05
 0.11182000E+03 -0.91166E+05
 0.11187000E+03 -0.15086E+06
 0.11192000E+03 -0.20588E+06
 0.11197000E+03 -0.26029E+06
 0.11202000E+03 -0.31973E+06
 0.11207000E+03 -0.37538E+06
 0.11212000E+03 -0.41189E+06
 0.11217000E+03 -0.41032E+06
 0.11222000E+03 -0.35367E+06
 0.11227000E+03 -0.25320E+06
 0.11232000E+03 -0.13125E+06
 0.11237000E+03 -0.54400E+04
 0.11242000E+03  0.10775E+06
 0.11247000E+03  0.18676E+06
 0.11252000E+03  0.20939E+06
 0.11257000E+03  0.17838E+06
 0.11262000E+03  0.11948E+06
 0.11267000E+03  0.67428E+05
 0.11272000E+03  0.48329E+05
 0.11277000E+03  0.61754E+05
 0.11282000E+03  0.91652E+05
 0.11287000E+03  0.11967E+06
 0.11292000E+03  0.13947E+06
 0.11297000E+03  0.14753E+06
 0.11302000E+03  0.13765E+06
 0.11307000E+03  0.11585E+06
 0.11312000E+03  0.84482E+05
 0.11317000E+03  0.47160E+05
 0.11322000E+03  0.12930E+05
 0.11327000E+03 -0.14611E+05
 0.11332000E+03 -0.37936E+05
 0.11337000E+03 -0.69278E+05
 0.11342000E+03 -0.11094E+06
 0.11347000E+03 -0.15063E+06
 0.11352000E+03 -0.17896E+06
 0.11357000E+03 -0.18816E+06
 0.11362000E+03 -0.16637E+06
 0.11367000E+03 -0.11204E+06
 0.11372000E+03 -0.39801E+05
 0.11377000E+03  0.37847E+05
 0.11382000E+03  0.11649E+06
 0.11387000E+03  0.19535E+06
 0.11392000E+03  0.26802E+06
 0.11397000E+03  0.32839E+06
 0.11402000E+03  0.37608E+06
 0.11407000E+03  0.40612E+06
 0.11412000E+03  0.41662E+06
 0.11417000E+03  0.40930E+06
 0.11422000E+03  0.38410E+06
 0.11427000E+03  0.34309E+06
 0.11432000E+03  0.29102E+06
 0.11437000E+03  0.23323E+06
 0.11442000E+03  0.18000E+06
 0.11447000E+03  0.13957E+06
 0.11452000E+03  0.10367E+06
 0.11457000E+03  0.63651E+05
 0.11462000E+03  0.18883E+05
 0.11467000E+03 -0.30575E+05
 0.11472000E+03 -0.81861E+05
 0.11477000E+03 -0.12062E+06
 0.11482000E+03 -0.12829E+06
 0.11487000E+03 -0.10642E+06
 0.11492000E+03 -0.68606E+05
 0.11497000E+03 -0.28619E+05
 0.11502000E+03 -0.27400E+03
 0.11507000E+03  0.11482E+05
 0.11512000E+03  0.13638E+05
 0.11517000E+03  0.17167E+05
 0.11522000E+03  0.24236E+05
 0.11527000E+03  0.27783E+05
 0.11532000E+03  0.14095E+05
 0.11537000E+03 -0.31018E+05
 0.11542000E+03 -0.11136E+06
 0.11547000E+03 -0.21997E+06
 0.11552000E+03 -0.34404E+06
 0.11557000E+03 -0.47383E+06
 0.11562000E+03 -0.60714E+06
 0.11567000E+03 -0.73966E+06
 0.11572000E+03 -0.85647E+06
 0.11577000E+03 -0.93639E+06
 0.11582000E+03 -0.96770E+06
 0.11587000E+03 -0.95925E+06
 0.11592000E+03 -0.92543E+06
 0.11597000E+03 -0.87124E+06
 0.11602000E+03 -0.79867E+06
 0.11607000E+03 -0.71033E+06
 0.11612000E+03 -0.60907E+06
 0.11617000E+03 -0.49533E+06
 0.11622000E+03 -0.37710E+06
 0.11627000E+03 -0.27537E+06
 0.11632000E+03 -0.20324E+06
 0.11637000E+03 -0.15973E+06
 0.11642000E+03 -0.13297E+06
 0.11647000E+03 -0.11336E+06
 0.11652000E+03 -0.95878E+05
 0.11657000E+03 -0.65403E+05
 0.11662000E+03 -0.14723E+05
 0.11667000E+03  0.52697E+05
 0.11672000E+03  0.13026E+06
 0.11677000E+03  0.20778E+06
 0.11682000E+03  0.28166E+06
 0.11687000E+03  0.35275E+06
 0.11692000E+03  0.42745E+06
 0.11697000E+03  0.50526E+06
 0.11702000E+03  0.57811E+06
 0.11707000E+03  0.64415E+06
 0.11712000E+03  0.69595E+06
 0.11717000E+03  0.71736E+06
 0.11722000E+03  0.69800E+06
 0.11727000E+03  0.64400E+06
 0.11732000E+03  0.56673E+06
 0.11737000E+03  0.48163E+06
 0.11742000E+03  0.40084E+06
 0.11747000E+03  0.32225E+06
 0.11752000E+03  0.24484E+06
 0.11757000E+03  0.17086E+06
 0.11762000E+03  0.10278E+06
 0.11767000E+03  0.42664E+05
 0.11772000E+03 -0.60390E+04
 0.11777000E+03 -0.42025E+05
 0.11782000E+03 -0.69387E+05
 0.11787000E+03 -0.90640E+05
 0.11792000E+03 -0.10322E+06
 0.11797000E+03 -0.10540E+06
 0.11802000E+03 -0.10574E+06
 0.11807000E+03 -0.11549E+06
 0.11812000E+03 -0.13893E+06
 0.11817000E+03 -0.17066E+06
 0.11822000E+03 -0.20340E+06
 0.11827000E+03 -0.23137E+06
 0.11832000E+03 -0.24249E+06
 0.11837000E+03 -0.22762E+06
 0.11842000E+03 -0.19148E+06
 0.11847000E+03 -0.14380E+06
 0.11852000E+03 -0.87856E+05
 0.11857000E+03 -0.24578E+05
 0.11862000E+03  0.47479E+05
 0.11867000E+03  0.13045E+06
 0.11872000E+03  0.21391E+06
 0.11877000E+03  0.28609E+06
 0.11882000E+03  0.34590E+06
 0.11887000E+03  0.39456E+06
 0.11892000E+03  0.43796E+06
 0.11897000E+03  0.48204E+06
 0.11902000E+03  0.51363E+06
 0.11907000E+03  0.51237E+06
 0.11912000E+03  0.47975E+06
 0.11917000E+03  0.43282E+06
 0.11922000E+03  0.38835E+06
 0.11927000E+03  0.35073E+06
 0.11932000E+03  0.30303E+06
 0.11937000E+03  0.23116E+06
 0.11942000E+03  0.13793E+06
 0.11947000E+03  0.31164E+05
 0.11952000E+03 -0.76684E+05
 0.11957000E+03 -0.16564E+06
 0.11962000E+03 -0.22022E+06
 0.11967000E+03 -0.24142E+06
 0.11972000E+03 -0.24644E+06
 0.11977000E+03 -0.25650E+06
 0.11982000E+03 -0.28386E+06
 0.11987000E+03 -0.33329E+06
 0.11992000E+03 -0.40036E+06
 0.11997000E+03 -0.47759E+06
 0.12002000E+03 -0.55388E+06
 0.12007000E+03 -0.61221E+06
 0.12012000E+03 -0.64942E+06
 0.12017000E+03 -0.66841E+06
 0.12022000E+03 -0.66815E+06
 0.12027000E+03 -0.64858E+06
 0.12032000E+03 -0.61428E+06
 0.12037000E+03 -0.57161E+06
 0.12042000E+03 -0.52922E+06
 0.12047000E+03 -0.50670E+06
 0.12052000E+03 -0.51267E+06
 0.12057000E+03 -0.53655E+06
 0.12062000E+03 -0.56078E+06
 0.12067000E+03 -0.56770E+06
 0.12072000E+03 -0.54825E+06
 0.12077000E+03 -0.50077E+06
 0.12082000E+03 -0.42988E+06
 0.12087000E+03 -0.34330E+06
 0.12092000E+03 -0.24844E+06
 0.12097000E+03 -0.15135E+06
 0.12102000E+03 -0.56319E+05
 0.12107000E+03  0.35175E+05
 0.12112000E+03  0.11890E+06
 0.12117000E+03  0.18330E+06
 0.12122000E+03  0.22032E+06
 0.12127000E+03  0.22649E+06
 0.12132000E+03  0.20487E+06
 0.12137000E+03  0.16960E+06
 0.12142000E+03  0.13308E+06
 0.12147000E+03  0.10056E+06
 0.12152000E+03  0.76161E+05
 0.12157000E+03  0.61534E+05
 0.12162000E+03  0.56670E+05
 0.12167000E+03  0.64804E+05
 0.12172000E+03  0.89811E+05
 0.12177000E+03  0.13272E+06
 0.12182000E+03  0.18947E+06
 0.12187000E+03  0.25224E+06
 0.12192000E+03  0.31125E+06
 0.12197000E+03  0.35955E+06
 0.12202000E+03  0.39774E+06
 0.12207000E+03  0.43045E+06
 0.12212000E+03  0.46739E+06
 0.12217000E+03  0.51430E+06
 0.12222000E+03  0.56472E+06
 0.12227000E+03  0.60975E+06
 0.12232000E+03  0.63945E+06
 0.12237000E+03  0.64308E+06
 0.12242000E+03  0.62284E+06
 0.12247000E+03  0.58779E+06
 0.12252000E+03  0.53994E+06
 0.12257000E+03  0.48050E+06
 0.12262000E+03  0.41687E+06
 0.12267000E+03  0.36340E+06
 0.12272000E+03  0.33065E+06
 0.12277000E+03  0.32084E+06
 0.12282000E+03  0.33177E+06
 0.12287000E+03  0.35754E+06
 0.12292000E+03  0.39000E+06
 0.12297000E+03  0.41762E+06
 0.12302000E+03  0.42985E+06
 0.12307000E+03  0.42196E+06
 0.12312000E+03  0.39653E+06
 0.12317000E+03  0.36263E+06
 0.12322000E+03  0.32975E+06
 0.12327000E+03  0.30696E+06
 0.12332000E+03  0.30275E+06
 0.12337000E+03  0.31357E+06
 0.12342000E+03  0.32410E+06
 0.12347000E+03  0.31332E+06
 0.12352000E+03  0.26590E+06
 0.12357000E+03  0.18979E+06
 0.12362000E+03  0.10628E+06
 0.12367000E+03  0.29495E+05
 0.12372000E+03 -0.40629E+05
 0.12377000E+03 -0.10477E+06
 0.12382000E+03 -0.15255E+06
 0.12387000E+03 -0.17443E+06
 0.12392000E+03 -0.17284E+06
 0.12397000E+03 -0.15901E+06
 0.12402000E+03 -0.14148E+06
 0.12407000E+03 -0.12258E+06
 0.12412000E+03 -0.10114E+06
 0.12417000E+03 -0.76154E+05
 0.12422000E+03 -0.52857E+05
 0.12427000E+03 -0.38214E+05
 0.12432000E+03 -0.36755E+05
 0.12437000E+03 -0.47003E+05
 0.12442000E+03 -0.63253E+05
 0.12447000E+03 -0.79194E+05
 0.12452000E+03 -0.85658E+05
 0.12457000E+03 -0.84493E+05
 0.12462000E+03 -0.83506E+05
 0.12467000E+03 -0.83779E+05
 0.12472000E+03 -0.86388E+05
 0.12477000E+03 -0.90622E+05
 0.12482000E+03 -0.95184E+05
 0.12487000E+03 -0.10237E+06
 0.12492000E+03 -0.11717E+06
 0.12497000E+03 -0.14074E+06
 0.12502000E+03 -0.16993E+06
 0.12507000E+03 -0.20333E+06
 0.12512000E+03 -0.23703E+06
 0.12517001E+03 -0.26475E+06
 0.12521999E+03 -0.28167E+06
 0.12527000E+03 -0.28637E+06
 0.12532000E+03 -0.28306E+06
 0.12537000E+03 -0.27539E+06
 0.12542001E+03 -0.26690E+06
 0.12546999E+03 -0.26305E+06
 0.12552000E+03 -0.26652E+06
 0.12557000E+03 -0.27850E+06
 0.12562000E+03 -0.29526E+06
 0.12567001E+03 -0.31093E+06
 0.12571999E+03 -0.32579E+06
 0.12577000E+03 -0.34490E+06
 0.12582000E+03 -0.37365E+06
 0.12587000E+03 -0.41086E+06
 0.12592001E+03 -0.45217E+06
 0.12596999E+03 -0.49053E+06
 0.12602000E+03 -0.51155E+06
 0.12607000E+03 -0.50668E+06
 0.12612000E+03 -0.47778E+06
 0.12617001E+03 -0.43276E+06
 0.12621999E+03 -0.38082E+06
 0.12627000E+03 -0.32299E+06
 0.12632000E+03 -0.26178E+06
 0.12637000E+03 -0.20193E+06
 0.12642001E+03 -0.14331E+06
 0.12646999E+03 -0.88551E+05
 0.12652000E+03 -0.42615E+05
 0.12657000E+03 -0.96620E+04
 0.12662000E+03  0.10429E+05
 0.12667001E+03  0.24788E+05
 0.12671999E+03  0.40367E+05
 0.12677000E+03  0.57538E+05
 0.12682000E+03  0.74695E+05
 0.12687000E+03  0.92305E+05
 0.12692001E+03  0.11032E+06
 0.12696999E+03  0.12636E+06
 0.12702000E+03  0.13720E+06
 0.12707000E+03  0.14060E+06
 0.12712000E+03  0.13940E+06
 0.12717001E+03  0.14396E+06
 0.12721999E+03  0.15772E+06
 0.12727000E+03  0.17401E+06
 0.12732000E+03  0.18541E+06
 0.12737000E+03  0.18464E+06
 0.12742001E+03  0.17213E+06
 0.12746999E+03  0.14888E+06
 0.12752000E+03  0.11370E+06
 0.12757000E+03  0.68399E+05
 0.12762000E+03  0.10979E+05
 0.12767001E+03 -0.56322E+05
 0.12771999E+03 -0.12611E+06
 0.12777000E+03 -0.18928E+06
 0.12782000E+03 -0.23964E+06
 0.12787000E+03 -0.28016E+06
 0.12792001E+03 -0.31254E+06
 0.12796999E+03 -0.33432E+06
 0.12802000E+03 -0.34084E+06
 0.12807001E+03 -0.32524E+06
 0.12812001E+03 -0.28579E+06
 0.12817001E+03 -0.23134E+06
 0.12822000E+03 -0.17497E+06
 0.12827000E+03 -0.12730E+06
 0.12832001E+03 -0.89676E+05
 0.12837001E+03 -0.55994E+05
 0.12842001E+03 -0.21278E+05
 0.12847000E+03  0.19706E+05
 0.12852000E+03  0.67529E+05
 0.12857001E+03  0.11699E+06
 0.12862001E+03  0.16070E+06
 0.12867001E+03  0.19368E+06
 0.12872000E+03  0.21601E+06
 0.12877000E+03  0.22949E+06
 0.12882001E+03  0.23722E+06
 0.12887001E+03  0.24326E+06
 0.12892001E+03  0.24977E+06
 0.12897000E+03  0.24911E+06
 0.12902000E+03  0.23491E+06
 0.12907001E+03  0.20930E+06
 0.12912001E+03  0.17398E+06
 0.12917001E+03  0.13179E+06
 0.12922000E+03  0.85156E+05
 0.12927000E+03  0.37162E+05
 0.12932001E+03 -0.74890E+04
 0.12937001E+03 -0.42343E+05
 0.12942001E+03 -0.58454E+05
 0.12947000E+03 -0.52261E+05
 0.12952000E+03 -0.31170E+05
 0.12957001E+03 -0.82690E+04
 0.12962001E+03  0.85900E+04
 0.12967001E+03  0.17657E+05
 0.12972000E+03  0.20359E+05
 0.12977000E+03  0.20692E+05
 0.12982001E+03  0.21500E+05
 0.12987001E+03  0.23513E+05
 0.12992001E+03  0.30630E+05
 0.12997000E+03  0.50836E+05
 0.13002000E+03  0.81642E+05
 0.13007001E+03  0.11408E+06
 0.13012001E+03  0.14562E+06
 0.13017001E+03  0.17805E+06
 0.13022000E+03  0.21996E+06
 0.13027000E+03  0.27662E+06
 0.13032001E+03  0.34180E+06
 0.13037001E+03  0.40678E+06
 0.13042001E+03  0.46346E+06
 0.13047000E+03  0.49904E+06
 0.13052000E+03  0.50412E+06
 0.13057001E+03  0.48090E+06
 0.13062001E+03  0.43346E+06
 0.13067001E+03  0.37057E+06
 0.13072000E+03  0.30530E+06
 0.13077000E+03  0.24668E+06
 0.13082001E+03  0.19858E+06
 0.13087001E+03  0.16037E+06
 0.13092001E+03  0.12749E+06
 0.13097000E+03  0.93491E+05
 0.13102000E+03  0.55386E+05
 0.13107001E+03  0.90930E+04
 0.13112001E+03 -0.47283E+05
 0.13117001E+03 -0.10714E+06
 0.13122000E+03 -0.16328E+06
 0.13127000E+03 -0.21031E+06
 0.13132001E+03 -0.24758E+06
 0.13137001E+03 -0.27940E+06
 0.13142001E+03 -0.30721E+06
 0.13147000E+03 -0.32930E+06
 0.13152000E+03 -0.34464E+06
 0.13157001E+03 -0.35227E+06
 0.13162001E+03 -0.34611E+06
 0.13167001E+03 -0.31904E+06
 0.13172000E+03 -0.27226E+06
 0.13177000E+03 -0.21262E+06
 0.13182001E+03 -0.15009E+06
 0.13187001E+03 -0.94789E+05
 0.13192001E+03 -0.49353E+05
 0.13197000E+03 -0.11439E+05
 0.13202000E+03  0.25296E+05
 0.13207001E+03  0.67747E+05
 0.13212001E+03  0.11760E+06
 0.13217001E+03  0.17216E+06
 0.13222000E+03  0.22400E+06
 0.13227000E+03  0.26258E+06
 0.13232001E+03  0.28025E+06
 0.13237001E+03  0.27821E+06
 0.13242001E+03  0.26008E+06
 0.13247000E+03  0.23136E+06
 0.13252000E+03  0.19744E+06
 0.13257001E+03  0.15940E+06
 0.13262001E+03  0.12329E+06
 0.13267001E+03  0.92424E+05
 0.13272000E+03  0.67945E+05
 0.13277000E+03  0.50786E+05
 0.13282001E+03  0.36039E+05
 0.13287001E+03  0.20692E+05
 0.13292001E+03 -0.11170E+04
 0.13297000E+03 -0.34104E+05
 0.13302000E+03 -0.74596E+05
 0.13307001E+03 -0.11693E+06
 0.13312001E+03 -0.15620E+06
 0.13317001E+03 -0.18976E+06
 0.13322000E+03 -0.21473E+06
 0.13327000E+03 -0.23042E+06
 0.13332001E+03 -0.24236E+06
 0.13337001E+03 -0.25781E+06
 0.13342001E+03 -0.27616E+06
 0.13347000E+03 -0.29003E+06
 0.13352000E+03 -0.29643E+06
 0.13357001E+03 -0.29592E+06
 0.13362001E+03 -0.29416E+06
 0.13367001E+03 -0.29739E+06
 0.13372000E+03 -0.30172E+06
 0.13377000E+03 -0.30082E+06
 0.13382001E+03 -0.28972E+06
 0.13387001E+03 -0.26613E+06
 0.13392001E+03 -0.23287E+06
 0.13397000E+03 -0.19044E+06
 0.13402000E+03 -0.13899E+06
 0.13407001E+03 -0.81209E+05
 0.13412001E+03 -0.20138E+05
 0.13417001E+03  0.38384E+05
 0.13422000E+03  0.90510E+05
 0.13427000E+03  0.13558E+06
 0.13432001E+03  0.17337E+06
 0.13437001E+03  0.20755E+06
 0.13442001E+03  0.24004E+06
 0.13447000E+03  0.26861E+06
 0.13452000E+03  0.29347E+06
 0.13457001E+03  0.31552E+06
 0.13462001E+03  0.33325E+06
 0.13467001E+03  0.34686E+06
 0.13472000E+03  0.35794E+06
 0.13477000E+03  0.37056E+06
 0.13482001E+03  0.39056E+06
 0.13487001E+03  0.41849E+06
 0.13492001E+03  0.44972E+06
 0.13497000E+03  0.47585E+06
 0.13502000E+03  0.49065E+06
 0.13507001E+03  0.49221E+06
 0.13512001E+03  0.48154E+06
 0.13517001E+03  0.46370E+06
 0.13522000E+03  0.44146E+06
 0.13527000E+03  0.41693E+06
 0.13532001E+03  0.39433E+06
 0.13537001E+03  0.37625E+06
 0.13542001E+03  0.36140E+06
 0.13547000E+03  0.34645E+06
 0.13552000E+03  0.32739E+06
 0.13557001E+03  0.29744E+06
 0.13562001E+03  0.25346E+06
 0.13567001E+03  0.19601E+06
 0.13572000E+03  0.12882E+06
 0.13577000E+03  0.60295E+05
 0.13582001E+03 -0.35280E+04
 0.13587001E+03 -0.59588E+05
 0.13592001E+03 -0.10998E+06
 0.13597000E+03 -0.16148E+06
 0.13602000E+03 -0.21751E+06
 0.13607001E+03 -0.27447E+06
 0.13612001E+03 -0.32778E+06
 0.13617001E+03 -0.37386E+06
 0.13622000E+03 -0.40698E+06
 0.13627000E+03 -0.42358E+06
 0.13632001E+03 -0.42619E+06
 0.13637001E+03 -0.42637E+06
 0.13642001E+03 -0.43592E+06
 0.13647000E+03 -0.45962E+06
 0.13652000E+03 -0.49639E+06
 0.13657001E+03 -0.53690E+06
 0.13662001E+03 -0.56782E+06
 0.13667001E+03 -0.57615E+06
 0.13672000E+03 -0.55927E+06
 0.13677000E+03 -0.52818E+06
 0.13682001E+03 -0.49197E+06
 0.13687001E+03 -0.45531E+06
 0.13692001E+03 -0.42371E+06
 0.13697000E+03 -0.40163E+06
 0.13702000E+03 -0.38821E+06
 0.13707001E+03 -0.37402E+06
 0.13712001E+03 -0.35039E+06
 0.13717001E+03 -0.31857E+06
 0.13722000E+03 -0.28466E+06
 0.13727000E+03 -0.25417E+06
 0.13732001E+03 -0.23069E+06
 0.13737001E+03 -0.20969E+06
 0.13742001E+03 -0.18195E+06
 0.13747000E+03 -0.14734E+06
 0.13752000E+03 -0.11201E+06
 0.13757001E+03 -0.81865E+05
 0.13762001E+03 -0.61431E+05
 0.13767001E+03 -0.46889E+05
 0.13772000E+03 -0.30221E+05
 0.13777000E+03 -0.73820E+04
 0.13782001E+03  0.24064E+05
 0.13787001E+03  0.63736E+05
 0.13792001E+03  0.10915E+06
 0.13797000E+03  0.15870E+06
 0.13802000E+03  0.20992E+06
 0.13807001E+03  0.25866E+06
 0.13812001E+03  0.30212E+06
 0.13817001E+03  0.34057E+06
 0.13822000E+03  0.37246E+06
 0.13827000E+03  0.39751E+06
 0.13832001E+03  0.41923E+06
 0.13837001E+03  0.43793E+06
 0.13842001E+03  0.45204E+06
 0.13847000E+03  0.45788E+06
 0.13852000E+03  0.45014E+06
 0.13857001E+03  0.42861E+06
 0.13862001E+03  0.39541E+06
 0.13867001E+03  0.35428E+06
 0.13872000E+03  0.31166E+06
 0.13877000E+03  0.27040E+06
 0.13882001E+03  0.22990E+06
 0.13887001E+03  0.19187E+06
 0.13892001E+03  0.15958E+06
 0.13897000E+03  0.13121E+06
 0.13902000E+03  0.95755E+05
 0.13907001E+03  0.42221E+05
 0.13912001E+03 -0.29065E+05
 0.13917001E+03 -0.11165E+06
 0.13922000E+03 -0.19580E+06
 0.13927000E+03 -0.26922E+06
 0.13932001E+03 -0.32752E+06
 0.13937001E+03 -0.37646E+06
 0.13942001E+03 -0.42350E+06
 0.13947000E+03 -0.46794E+06
 0.13952000E+03 -0.50311E+06
 0.13957001E+03 -0.52802E+06
 0.13962001E+03 -0.54394E+06
 0.13967001E+03 -0.54922E+06
 0.13972000E+03 -0.54211E+06
 0.13977000E+03 -0.52360E+06
 0.13982001E+03 -0.49802E+06
 0.13987001E+03 -0.46762E+06
 0.13992001E+03 -0.43501E+06
 0.13997000E+03 -0.40338E+06
 0.14002000E+03 -0.37552E+06
 0.14007001E+03 -0.35225E+06
 0.14012001E+03 -0.32419E+06
 0.14017001E+03 -0.28380E+06
 0.14022000E+03 -0.23216E+06
 0.14027000E+03 -0.17094E+06
 0.14032001E+03 -0.10504E+06
 0.14037001E+03 -0.40262E+05
 0.14042001E+03  0.18656E+05
 0.14047000E+03  0.66225E+05
 0.14052000E+03  0.99874E+05
 0.14057001E+03  0.12271E+06
 0.14062001E+03  0.14230E+06
 0.14067001E+03  0.16646E+06
 0.14072000E+03  0.19923E+06
 0.14077000E+03  0.23687E+06
 0.14082001E+03  0.27153E+06
 0.14087001E+03  0.29805E+06
 0.14092001E+03  0.31328E+06
 0.14097000E+03  0.31229E+06
 0.14102000E+03  0.29448E+06
 0.14107001E+03  0.26918E+06
 0.14112001E+03  0.24707E+06
 0.14117001E+03  0.23545E+06
 0.14122000E+03  0.23359E+06
 0.14127000E+03  0.23372E+06
 0.14132001E+03  0.22990E+06
 0.14137001E+03  0.21859E+06
 0.14142001E+03  0.19983E+06
 0.14147000E+03  0.17754E+06
 0.14152000E+03  0.15635E+06
 0.14157001E+03  0.14153E+06
 0.14162001E+03  0.13446E+06
 0.14167001E+03  0.12964E+06
 0.14172000E+03  0.11971E+06
 0.14177000E+03  0.97881E+05
 0.14182001E+03  0.64460E+05
 0.14187001E+03  0.30029E+05
 0.14192001E+03  0.59040E+04
 0.14197000E+03 -0.28090E+04
 0.14202000E+03  0.46490E+04
 0.14207001E+03  0.23481E+05
 0.14212001E+03  0.43503E+05
 0.14217001E+03  0.55532E+05
 0.14222000E+03  0.53111E+05
 0.14227000E+03  0.36062E+05
 0.14232001E+03  0.12611E+05
 0.14237001E+03 -0.72180E+04
 0.14242001E+03 -0.20551E+05
 0.14247000E+03 -0.29953E+05
 0.14252000E+03 -0.39548E+05
 0.14257001E+03 -0.54734E+05
 0.14262001E+03 -0.73212E+05
 0.14267001E+03 -0.86128E+05
 0.14272000E+03 -0.87046E+05
 0.14277000E+03 -0.77633E+05
 0.14282001E+03 -0.64424E+05
 0.14287001E+03 -0.49932E+05
 0.14292001E+03 -0.33931E+05
 0.14297000E+03 -0.16613E+05
 0.14302000E+03 -0.32490E+04
 0.14307001E+03 -0.66600E+03
 0.14312001E+03 -0.10200E+05
 0.14317001E+03 -0.27709E+05
 0.14322000E+03 -0.44717E+05
 0.14327000E+03 -0.56388E+05
 0.14332001E+03 -0.63301E+05
 0.14337001E+03 -0.64175E+05
 0.14342001E+03 -0.57843E+05
 0.14347000E+03 -0.45355E+05
 0.14352000E+03 -0.26322E+05
 0.14357001E+03 -0.19230E+04
 0.14362001E+03  0.26551E+05
 0.14367001E+03  0.56356E+05
 0.14372000E+03  0.80764E+05
 0.14377000E+03  0.98966E+05
 0.14382001E+03  0.11431E+06
 0.14387001E+03  0.12784E+06
 0.14392001E+03  0.13847E+06
 0.14397000E+03  0.14458E+06
 0.14402000E+03  0.14672E+06
 0.14407001E+03  0.14707E+06
 0.14412001E+03  0.14791E+06
 0.14417001E+03  0.15107E+06
 0.14422000E+03  0.15834E+06
 0.14427000E+03  0.16795E+06
 0.14432001E+03  0.17556E+06
 0.14437001E+03  0.18032E+06
 0.14442001E+03  0.18162E+06
 0.14447000E+03  0.17540E+06
 0.14452000E+03  0.16261E+06
 0.14457001E+03  0.14995E+06
 0.14462001E+03  0.14281E+06
 0.14467001E+03  0.14524E+06
 0.14472000E+03  0.15735E+06
 0.14477000E+03  0.17698E+06
 0.14482001E+03  0.19968E+06
 0.14487001E+03  0.21686E+06
 0.14492001E+03  0.22305E+06
 0.14497000E+03  0.21948E+06
 0.14502000E+03  0.21169E+06
 0.14507001E+03  0.20547E+06
 0.14512001E+03  0.20362E+06
 0.14517001E+03  0.20757E+06
 0.14522000E+03  0.21688E+06
 0.14527000E+03  0.22519E+06
 0.14532001E+03  0.22793E+06
 0.14537001E+03  0.22780E+06
 0.14542001E+03  0.22761E+06
 0.14547000E+03  0.22410E+06
 0.14552000E+03  0.21083E+06
 0.14557001E+03  0.18636E+06
 0.14562001E+03  0.15598E+06
 0.14567001E+03  0.13055E+06
 0.14572000E+03  0.11782E+06
 0.14577000E+03  0.11681E+06
 0.14582001E+03  0.11944E+06
 0.14587001E+03  0.11306E+06
 0.14592001E+03  0.94441E+05
 0.14597000E+03  0.71405E+05
 0.14602000E+03  0.51031E+05
 0.14607001E+03  0.36038E+05
 0.14612001E+03  0.26217E+05
 0.14617001E+03  0.23481E+05
 0.14622000E+03  0.30029E+05
 0.14627000E+03  0.41966E+05
 0.14632001E+03  0.53715E+05
 0.14637001E+03  0.64670E+05
 0.14642001E+03  0.77152E+05
 0.14647000E+03  0.93391E+05
 0.14652000E+03  0.11350E+06
 0.14657001E+03  0.13431E+06
 0.14662001E+03  0.15322E+06
 0.14667001E+03  0.16850E+06
 0.14672000E+03  0.17918E+06
 0.14677000E+03  0.18512E+06
 0.14682001E+03  0.18468E+06
 0.14687001E+03  0.18013E+06
 0.14692001E+03  0.17473E+06
 0.14697000E+03  0.16577E+06
 0.14702000E+03  0.15093E+06
 0.14707001E+03  0.12882E+06
 0.14712001E+03  0.10180E+06
 0.14717001E+03  0.77409E+05
 0.14722000E+03  0.56270E+05
 0.14727000E+03  0.34968E+05
 0.14732001E+03  0.10615E+05
 0.14737001E+03 -0.20104E+05
 0.14742001E+03 -0.55965E+05
 0.14747000E+03 -0.95983E+05
 0.14752000E+03 -0.14138E+06
 0.14757001E+03 -0.19000E+06
 0.14762001E+03 -0.23768E+06
 0.14767001E+03 -0.28535E+06
 0.14772000E+03 -0.33548E+06
 0.14777000E+03 -0.38474E+06
 0.14782001E+03 -0.42978E+06
 0.14787001E+03 -0.46890E+06
 0.14792001E+03 -0.49938E+06
 0.14797000E+03 -0.51930E+06
 0.14802000E+03 -0.53126E+06
 0.14807001E+03 -0.54116E+06
 0.14812001E+03 -0.55232E+06
 0.14817001E+03 -0.56624E+06
 0.14822000E+03 -0.58146E+06
 0.14827000E+03 -0.59258E+06
 0.14832001E+03 -0.59473E+06
 0.14837001E+03 -0.58741E+06
 0.14842001E+03 -0.57516E+06
 0.14847000E+03 -0.56266E+06
 0.14852000E+03 -0.55138E+06
 0.14857001E+03 -0.53940E+06
 0.14862001E+03 -0.52166E+06
 0.14867001E+03 -0.49414E+06
 0.14872000E+03 -0.45579E+06
 0.14877000E+03 -0.40806E+06
 0.14882001E+03 -0.35816E+06
 0.14887001E+03 -0.31520E+06
 0.14892001E+03 -0.28077E+06
 0.14897000E+03 -0.24993E+06
 0.14902000E+03 -0.21775E+06
 0.14907001E+03 -0.18378E+06
 0.14912001E+03 -0.15084E+06
 0.14917001E+03 -0.11901E+06
 0.14922000E+03 -0.86708E+05
 0.14927000E+03 -0.54854E+05
 0.14932001E+03 -0.24779E+05
 0.14937001E+03  0.45750E+04
 0.14942001E+03  0.34647E+05
 0.14947000E+03  0.65895E+05
 0.14952000E+03  0.99072E+05
 0.14957001E+03  0.13475E+06
 0.14962001E+03  0.17206E+06
 0.14967001E+03  0.20847E+06
 0.14972000E+03  0.24066E+06
 0.14977000E+03  0.26623E+06
 0.14982001E+03  0.28088E+06
 0.14987001E+03  0.27669E+06
 0.14992001E+03  0.25429E+06
 0.14997000E+03  0.22266E+06
