-0.29800000E+01  0.51945E+05
-0.29300001E+01  0.52242E+05
-0.28800001E+01  0.53213E+05
-0.28299999E+01  0.54709E+05
-0.27800000E+01  0.56191E+05
-0.27300000E+01  0.56930E+05
-0.26800001E+01  0.57353E+05
-0.26300001E+01  0.57196E+05
-0.25799999E+01  0.55900E+05
-0.25300000E+01  0.53614E+05
-0.24800000E+01  0.49598E+05
-0.24300001E+01  0.43167E+05
-0.23800001E+01  0.34361E+05
-0.23299999E+01  0.22913E+05
-0.22800000E+01  0.87060E+04
-0.22300000E+01 -0.67620E+04
-0.21800001E+01 -0.22513E+05
-0.21300001E+01 -0.39078E+05
-0.20799999E+01 -0.56327E+05
-0.20300000E+01 -0.74614E+05
-0.19800000E+01 -0.94065E+05
-0.19299999E+01 -0.11336E+06
-0.18800000E+01 -0.13161E+06
-0.18300000E+01 -0.14856E+06
-0.17800000E+01 -0.16374E+06
-0.17300000E+01 -0.17606E+06
-0.16799999E+01 -0.18491E+06
-0.16300000E+01 -0.19049E+06
-0.15800000E+01 -0.19293E+06
-0.15300000E+01 -0.19234E+06
-0.14800000E+01 -0.18859E+06
-0.14299999E+01 -0.18166E+06
-0.13800000E+01 -0.17217E+06
-0.13300000E+01 -0.16052E+06
-0.12800000E+01 -0.14681E+06
-0.12300000E+01 -0.13142E+06
-0.11799999E+01 -0.11472E+06
-0.11300000E+01 -0.97537E+05
-0.10800000E+01 -0.80435E+05
-0.10300000E+01 -0.63298E+05
-0.98000002E+00 -0.46663E+05
-0.93000007E+00 -0.31591E+05
-0.87999988E+00 -0.18509E+05
-0.82999992E+00 -0.73150E+04
-0.77999997E+00  0.15470E+04
-0.73000002E+00  0.77040E+04
-0.68000007E+00  0.11255E+05
-0.62999988E+00  0.11904E+05
-0.57999992E+00  0.96040E+04
-0.52999997E+00  0.49440E+04
-0.48000002E+00 -0.17170E+04
-0.43000007E+00 -0.99910E+04
-0.37999988E+00 -0.19584E+05
-0.32999992E+00 -0.29789E+05
-0.27999997E+00 -0.39785E+05
-0.23000002E+00 -0.48843E+05
-0.18000007E+00 -0.55597E+05
-0.12999988E+00 -0.59464E+05
-0.79999924E-01 -0.59888E+05
-0.29999971E-01 -0.55935E+05
 0.19999981E-01 -0.47327E+05
 0.69999933E-01 -0.34249E+05
 0.12000012E+00 -0.17217E+05
 0.17000008E+00  0.29980E+04
 0.22000003E+00  0.25469E+05
 0.26999998E+00  0.48997E+05
 0.31999993E+00  0.71904E+05
 0.37000012E+00  0.92760E+05
 0.42000008E+00  0.11067E+06
 0.47000003E+00  0.12538E+06
 0.51999998E+00  0.13699E+06
 0.56999993E+00  0.14544E+06
 0.62000012E+00  0.15117E+06
 0.67000008E+00  0.15444E+06
 0.72000003E+00  0.15499E+06
 0.76999998E+00  0.15314E+06
 0.81999993E+00  0.14902E+06
 0.87000012E+00  0.14284E+06
 0.92000008E+00  0.13469E+06
 0.97000003E+00  0.12455E+06
 0.10200000E+01  0.11301E+06
 0.10700002E+01  0.10024E+06
 0.11199999E+01  0.86778E+05
 0.11700001E+01  0.72611E+05
 0.12200003E+01  0.58106E+05
 0.12700000E+01  0.44081E+05
 0.13200002E+01  0.30525E+05
 0.13699999E+01  0.17798E+05
 0.14200001E+01  0.61780E+04
 0.14700003E+01 -0.38070E+04
 0.15200000E+01 -0.12111E+05
 0.15700002E+01 -0.18859E+05
 0.16199999E+01 -0.24161E+05
 0.16700001E+01 -0.28176E+05
 0.17200003E+01 -0.30765E+05
 0.17700000E+01 -0.33040E+05
 0.18200002E+01 -0.35681E+05
 0.18699999E+01 -0.38997E+05
 0.19200001E+01 -0.42911E+05
 0.19700003E+01 -0.47650E+05
 0.20200000E+01 -0.54443E+05
 0.20700002E+01 -0.63212E+05
 0.21199999E+01 -0.73824E+05
 0.21700001E+01 -0.85513E+05
 0.22200003E+01 -0.97420E+05
 0.22700000E+01 -0.10943E+06
 0.23200002E+01 -0.12087E+06
 0.23699999E+01 -0.13122E+06
 0.24200001E+01 -0.13991E+06
 0.24700003E+01 -0.14617E+06
 0.25200000E+01 -0.14909E+06
 0.25700002E+01 -0.14846E+06
 0.26199999E+01 -0.14433E+06
 0.26700001E+01 -0.13693E+06
 0.27200003E+01 -0.12663E+06
 0.27700000E+01 -0.11359E+06
 0.28200002E+01 -0.98141E+05
 0.28699999E+01 -0.79674E+05
 0.29200001E+01 -0.58412E+05
 0.29700003E+01 -0.35845E+05
 0.30200000E+01 -0.12901E+05
 0.30700002E+01  0.91630E+04
 0.31199999E+01  0.29182E+05
 0.31700001E+01  0.46464E+05
 0.32200003E+01  0.60736E+05
 0.32700000E+01  0.71857E+05
 0.33200002E+01  0.79509E+05
 0.33699999E+01  0.84033E+05
 0.34200001E+01  0.85795E+05
 0.34700003E+01  0.84889E+05
 0.35200000E+01  0.81612E+05
 0.35700002E+01  0.76189E+05
 0.36199999E+01  0.68830E+05
 0.36700001E+01  0.60043E+05
 0.37200003E+01  0.50447E+05
 0.37700000E+01  0.40198E+05
 0.38200002E+01  0.29207E+05
 0.38699999E+01  0.18081E+05
 0.39200001E+01  0.76570E+04
 0.39700003E+01 -0.21580E+04
 0.40200000E+01 -0.11403E+05
 0.40700002E+01 -0.20010E+05
 0.41199999E+01 -0.27712E+05
 0.41700001E+01 -0.33704E+05
 0.42200003E+01 -0.37902E+05
 0.42700000E+01 -0.41105E+05
 0.43200002E+01 -0.43861E+05
 0.43699999E+01 -0.46137E+05
 0.44200001E+01 -0.47728E+05
 0.44700003E+01 -0.48548E+05
 0.45200000E+01 -0.48652E+05
 0.45700002E+01 -0.47788E+05
 0.46199999E+01 -0.46316E+05
 0.46700001E+01 -0.44804E+05
 0.47200003E+01 -0.43942E+05
 0.47700000E+01 -0.44323E+05
 0.48200002E+01 -0.45885E+05
 0.48699999E+01 -0.48956E+05
 0.49200001E+01 -0.53070E+05
 0.49700003E+01 -0.57657E+05
 0.50200000E+01 -0.62547E+05
 0.50700002E+01 -0.67374E+05
 0.51200004E+01 -0.71990E+05
 0.51700006E+01 -0.76136E+05
 0.52199998E+01 -0.79855E+05
 0.52700000E+01 -0.82583E+05
 0.53200002E+01 -0.83840E+05
 0.53700004E+01 -0.83971E+05
 0.54200006E+01 -0.83363E+05
 0.54699998E+01 -0.82855E+05
 0.55200000E+01 -0.82593E+05
 0.55700002E+01 -0.82442E+05
 0.56200004E+01 -0.82363E+05
 0.56700006E+01 -0.81781E+05
 0.57199998E+01 -0.80109E+05
 0.57700000E+01 -0.76737E+05
 0.58200002E+01 -0.71738E+05
 0.58700004E+01 -0.65160E+05
 0.59200006E+01 -0.56677E+05
 0.59699998E+01 -0.46515E+05
 0.60200000E+01 -0.34790E+05
 0.60700002E+01 -0.21500E+05
 0.61200004E+01 -0.66420E+04
 0.61700006E+01  0.95900E+04
 0.62199998E+01  0.26814E+05
 0.62700000E+01  0.44560E+05
 0.63200002E+01  0.61728E+05
 0.63700004E+01  0.77833E+05
 0.64200006E+01  0.92977E+05
 0.64699998E+01  0.10686E+06
 0.65200000E+01  0.11936E+06
 0.65700002E+01  0.13077E+06
 0.66200004E+01  0.14139E+06
 0.66700006E+01  0.15107E+06
 0.67199998E+01  0.15962E+06
 0.67700000E+01  0.16712E+06
 0.68200002E+01  0.17330E+06
 0.68700004E+01  0.17794E+06
 0.69200006E+01  0.18097E+06
 0.69699998E+01  0.18248E+06
 0.70200000E+01  0.18241E+06
 0.70700002E+01  0.18036E+06
 0.71200004E+01  0.17582E+06
 0.71700006E+01  0.16835E+06
 0.72199998E+01  0.15804E+06
 0.72700000E+01  0.14554E+06
 0.73200002E+01  0.13150E+06
 0.73700004E+01  0.11655E+06
 0.74200006E+01  0.10138E+06
 0.74699998E+01  0.85980E+05
 0.75200000E+01  0.70439E+05
 0.75700002E+01  0.55661E+05
 0.76200004E+01  0.41766E+05
 0.76700006E+01  0.28702E+05
 0.77199998E+01  0.16871E+05
 0.77700000E+01  0.65720E+04
 0.78200002E+01 -0.16430E+04
 0.78700004E+01 -0.75230E+04
 0.79200006E+01 -0.11135E+05
 0.79699998E+01 -0.12673E+05
 0.80200005E+01 -0.12402E+05
 0.80699997E+01 -0.10122E+05
 0.81200008E+01 -0.60780E+04
 0.81700001E+01 -0.90700E+03
 0.82199993E+01  0.50590E+04
 0.82700005E+01  0.11540E+05
 0.83199997E+01  0.18402E+05
 0.83700008E+01  0.25603E+05
 0.84200001E+01  0.32912E+05
 0.84699993E+01  0.39697E+05
 0.85200005E+01  0.45465E+05
 0.85699997E+01  0.50252E+05
 0.86200008E+01  0.53749E+05
 0.86700001E+01  0.55221E+05
 0.87199993E+01  0.54533E+05
 0.87700005E+01  0.51654E+05
 0.88199997E+01  0.46283E+05
 0.88700008E+01  0.38524E+05
 0.89200001E+01  0.28510E+05
 0.89699993E+01  0.16556E+05
 0.90200005E+01  0.37570E+04
 0.90699997E+01 -0.90560E+04
 0.91200008E+01 -0.21618E+05
 0.91700001E+01 -0.33931E+05
 0.92199993E+01 -0.45796E+05
 0.92700005E+01 -0.56224E+05
 0.93199997E+01 -0.64665E+05
 0.93700008E+01 -0.70798E+05
 0.94200001E+01 -0.74521E+05
 0.94699993E+01 -0.76059E+05
 0.95200005E+01 -0.75085E+05
 0.95699997E+01 -0.71504E+05
 0.96200008E+01 -0.65414E+05
 0.96700001E+01 -0.57221E+05
 0.97199993E+01 -0.47745E+05
 0.97700005E+01 -0.37391E+05
 0.98199997E+01 -0.26705E+05
 0.98700008E+01 -0.16256E+05
 0.99200001E+01 -0.60320E+04
 0.99699993E+01  0.42700E+04
 0.10020000E+02  0.14673E+05
 0.10070000E+02  0.24674E+05
 0.10120001E+02  0.34200E+05
 0.10170000E+02  0.43038E+05
 0.10219999E+02  0.50907E+05
 0.10270000E+02  0.58354E+05
 0.10320000E+02  0.65590E+05
 0.10370001E+02  0.72585E+05
 0.10420000E+02  0.79452E+05
 0.10469999E+02  0.86273E+05
 0.10520000E+02  0.92723E+05
 0.10570000E+02  0.98270E+05
 0.10620001E+02  0.10256E+06
 0.10670000E+02  0.10495E+06
 0.10719999E+02  0.10556E+06
 0.10770000E+02  0.10435E+06
 0.10820000E+02  0.10086E+06
 0.10870001E+02  0.95132E+05
 0.10920000E+02  0.87015E+05
 0.10969999E+02  0.76967E+05
 0.11020000E+02  0.65279E+05
 0.11070000E+02  0.52160E+05
 0.11120001E+02  0.38190E+05
 0.11170000E+02  0.23423E+05
 0.11219999E+02  0.80360E+04
 0.11270000E+02 -0.73040E+04
 0.11320000E+02 -0.23157E+05
 0.11370001E+02 -0.41013E+05
 0.11420000E+02 -0.58965E+05
 0.11469999E+02 -0.74938E+05
 0.11520000E+02 -0.90463E+05
 0.11570000E+02 -0.10595E+06
 0.11620001E+02 -0.12047E+06
 0.11670000E+02 -0.13365E+06
 0.11719999E+02 -0.14462E+06
 0.11770000E+02 -0.15342E+06
 0.11820000E+02 -0.16023E+06
 0.11870001E+02 -0.16471E+06
 0.11920000E+02 -0.16620E+06
 0.11969999E+02 -0.16460E+06
 0.12020000E+02 -0.16153E+06
 0.12070000E+02 -0.15732E+06
 0.12120001E+02 -0.15102E+06
 0.12170000E+02 -0.14166E+06
 0.12219999E+02 -0.12976E+06
 0.12270000E+02 -0.11672E+06
 0.12320000E+02 -0.10210E+06
 0.12370001E+02 -0.86597E+05
 0.12420000E+02 -0.70079E+05
 0.12469999E+02 -0.51180E+05
 0.12520000E+02 -0.31500E+05
 0.12570000E+02 -0.11956E+05
 0.12620001E+02  0.79370E+04
 0.12670000E+02  0.27745E+05
 0.12719999E+02  0.46788E+05
 0.12770000E+02  0.64368E+05
 0.12820000E+02  0.79969E+05
 0.12870001E+02  0.93210E+05
 0.12920000E+02  0.10415E+06
 0.12969999E+02  0.11260E+06
 0.13020000E+02  0.11746E+06
 0.13070002E+02  0.12016E+06
 0.13120001E+02  0.12135E+06
 0.13170000E+02  0.11959E+06
 0.13220001E+02  0.11551E+06
 0.13270000E+02  0.10879E+06
 0.13320002E+02  0.99844E+05
 0.13370001E+02  0.89126E+05
 0.13420000E+02  0.76293E+05
 0.13470001E+02  0.62783E+05
 0.13520000E+02  0.49378E+05
 0.13570002E+02  0.36968E+05
 0.13620001E+02  0.25879E+05
 0.13670000E+02  0.15995E+05
 0.13720001E+02  0.82690E+04
 0.13770000E+02  0.32340E+04
 0.13820002E+02  0.80300E+03
 0.13870001E+02  0.33000E+03
 0.13920000E+02  0.11390E+04
 0.13970001E+02  0.30470E+04
 0.14020000E+02  0.53880E+04
 0.14070002E+02  0.75370E+04
 0.14120001E+02  0.99430E+04
 0.14170000E+02  0.12673E+05
 0.14220001E+02  0.14965E+05
 0.14270000E+02  0.16263E+05
 0.14320002E+02  0.16399E+05
 0.14370001E+02  0.15549E+05
 0.14420000E+02  0.13996E+05
 0.14470001E+02  0.11635E+05
 0.14520000E+02  0.79630E+04
 0.14570002E+02  0.27520E+04
 0.14620001E+02 -0.43310E+04
 0.14670000E+02 -0.13527E+05
 0.14720001E+02 -0.24506E+05
 0.14770000E+02 -0.36880E+05
 0.14820002E+02 -0.49646E+05
 0.14870001E+02 -0.62157E+05
 0.14920000E+02 -0.74453E+05
 0.14970001E+02 -0.86481E+05
 0.15020000E+02 -0.98295E+05
 0.15070002E+02 -0.10988E+06
 0.15120001E+02 -0.12111E+06
 0.15170000E+02 -0.13162E+06
 0.15220001E+02 -0.14148E+06
 0.15270000E+02 -0.15001E+06
 0.15320002E+02 -0.15600E+06
 0.15370001E+02 -0.15932E+06
 0.15420000E+02 -0.16021E+06
 0.15470001E+02 -0.15884E+06
 0.15520000E+02 -0.15568E+06
 0.15570002E+02 -0.15078E+06
 0.15620001E+02 -0.14360E+06
 0.15670000E+02 -0.13440E+06
 0.15720001E+02 -0.12383E+06
 0.15770000E+02 -0.11285E+06
 0.15820002E+02 -0.10212E+06
 0.15870001E+02 -0.91635E+05
 0.15920000E+02 -0.81582E+05
 0.15970001E+02 -0.72097E+05
 0.16020000E+02 -0.63645E+05
 0.16070002E+02 -0.56605E+05
 0.16120001E+02 -0.51517E+05
 0.16170000E+02 -0.48738E+05
 0.16220001E+02 -0.48143E+05
 0.16270000E+02 -0.49518E+05
 0.16320002E+02 -0.52431E+05
 0.16370001E+02 -0.56419E+05
 0.16420000E+02 -0.61126E+05
 0.16470001E+02 -0.66239E+05
 0.16520000E+02 -0.70600E+05
 0.16570002E+02 -0.73658E+05
 0.16620001E+02 -0.75548E+05
 0.16670000E+02 -0.75954E+05
 0.16720001E+02 -0.74809E+05
 0.16770000E+02 -0.71672E+05
 0.16820002E+02 -0.66149E+05
 0.16870001E+02 -0.58583E+05
 0.16920000E+02 -0.49866E+05
 0.16970001E+02 -0.40945E+05
 0.17020000E+02 -0.31900E+05
 0.17070002E+02 -0.22435E+05
 0.17120001E+02 -0.12671E+05
 0.17170000E+02 -0.29050E+04
 0.17220001E+02  0.61880E+04
 0.17270000E+02  0.14440E+05
 0.17320002E+02  0.22019E+05
 0.17370001E+02  0.28478E+05
 0.17420000E+02  0.34034E+05
 0.17470001E+02  0.38874E+05
 0.17520000E+02  0.43032E+05
 0.17570002E+02  0.46593E+05
 0.17620001E+02  0.49323E+05
 0.17670000E+02  0.51411E+05
 0.17720001E+02  0.53449E+05
 0.17770000E+02  0.55895E+05
 0.17820002E+02  0.58894E+05
 0.17870001E+02  0.62646E+05
 0.17920000E+02  0.67125E+05
 0.17970001E+02  0.72148E+05
 0.18020000E+02  0.77130E+05
 0.18070002E+02  0.81824E+05
 0.18120001E+02  0.86923E+05
 0.18170000E+02  0.92780E+05
 0.18220001E+02  0.99492E+05
 0.18270000E+02  0.10742E+06
 0.18320002E+02  0.11635E+06
 0.18370001E+02  0.12564E+06
 0.18420000E+02  0.13535E+06
 0.18470001E+02  0.14538E+06
 0.18520000E+02  0.15490E+06
 0.18570002E+02  0.16296E+06
 0.18620001E+02  0.16945E+06
 0.18670000E+02  0.17461E+06
 0.18720001E+02  0.17841E+06
 0.18770000E+02  0.18084E+06
 0.18820002E+02  0.18206E+06
 0.18870001E+02  0.18229E+06
 0.18920000E+02  0.18158E+06
 0.18970001E+02  0.17985E+06
 0.19020000E+02  0.17699E+06
 0.19070002E+02  0.17339E+06
 0.19120001E+02  0.16920E+06
 0.19170000E+02  0.16429E+06
 0.19220001E+02  0.15891E+06
 0.19270000E+02  0.15297E+06
 0.19320002E+02  0.14614E+06
 0.19370001E+02  0.13806E+06
 0.19420000E+02  0.12890E+06
 0.19470001E+02  0.11872E+06
 0.19520000E+02  0.10752E+06
 0.19570002E+02  0.95655E+05
 0.19620001E+02  0.83259E+05
 0.19670000E+02  0.70417E+05
 0.19720001E+02  0.56882E+05
 0.19770000E+02  0.42369E+05
 0.19820002E+02  0.26950E+05
 0.19870001E+02  0.10692E+05
 0.19920000E+02 -0.58170E+04
 0.19970001E+02 -0.21663E+05
 0.20020000E+02 -0.36703E+05
 0.20070002E+02 -0.50279E+05
 0.20120001E+02 -0.61943E+05
 0.20170000E+02 -0.71993E+05
 0.20220001E+02 -0.80126E+05
 0.20270000E+02 -0.86083E+05
 0.20320002E+02 -0.90089E+05
 0.20370001E+02 -0.92782E+05
 0.20420000E+02 -0.94245E+05
 0.20470001E+02 -0.94261E+05
 0.20520000E+02 -0.92884E+05
 0.20570002E+02 -0.90017E+05
 0.20620001E+02 -0.85843E+05
 0.20670000E+02 -0.81156E+05
 0.20720001E+02 -0.77129E+05
 0.20770000E+02 -0.74593E+05
 0.20820002E+02 -0.73184E+05
 0.20870001E+02 -0.72572E+05
 0.20920000E+02 -0.73131E+05
 0.20970001E+02 -0.74386E+05
 0.21020000E+02 -0.75729E+05
 0.21070002E+02 -0.76474E+05
 0.21120001E+02 -0.75671E+05
 0.21170000E+02 -0.73132E+05
 0.21220001E+02 -0.68350E+05
 0.21270000E+02 -0.60935E+05
 0.21320002E+02 -0.51617E+05
 0.21370001E+02 -0.40582E+05
 0.21420000E+02 -0.27945E+05
 0.21470001E+02 -0.14567E+05
 0.21520000E+02 -0.13220E+04
 0.21570002E+02  0.10926E+05
 0.21620001E+02  0.21908E+05
 0.21670000E+02  0.31460E+05
 0.21720001E+02  0.39445E+05
 0.21770000E+02  0.45808E+05
 0.21820002E+02  0.50227E+05
 0.21870001E+02  0.52001E+05
 0.21920000E+02  0.50491E+05
 0.21970001E+02  0.46083E+05
 0.22020000E+02  0.39313E+05
 0.22070002E+02  0.30500E+05
 0.22120001E+02  0.19828E+05
 0.22170000E+02  0.78120E+04
 0.22220001E+02 -0.47280E+04
 0.22270000E+02 -0.16958E+05
 0.22320002E+02 -0.28269E+05
 0.22370001E+02 -0.38181E+05
 0.22420000E+02 -0.45865E+05
 0.22470001E+02 -0.50979E+05
 0.22520000E+02 -0.53461E+05
 0.22570002E+02 -0.53576E+05
 0.22620001E+02 -0.51621E+05
 0.22670000E+02 -0.47948E+05
 0.22720001E+02 -0.43015E+05
 0.22770000E+02 -0.37227E+05
 0.22820002E+02 -0.31080E+05
 0.22870001E+02 -0.24841E+05
 0.22920000E+02 -0.19410E+05
 0.22970001E+02 -0.15458E+05
 0.23020000E+02 -0.12934E+05
 0.23070002E+02 -0.11280E+05
 0.23120001E+02 -0.10149E+05
 0.23170000E+02 -0.97830E+04
 0.23220001E+02 -0.96620E+04
 0.23270000E+02 -0.91050E+04
 0.23320002E+02 -0.75690E+04
 0.23370001E+02 -0.49590E+04
 0.23420000E+02 -0.10410E+04
 0.23470001E+02  0.39960E+04
 0.23520000E+02  0.91130E+04
 0.23570002E+02  0.13907E+05
 0.23620001E+02  0.18364E+05
 0.23670000E+02  0.22925E+05
 0.23720001E+02  0.27352E+05
 0.23770000E+02  0.31168E+05
 0.23820002E+02  0.34169E+05
 0.23870001E+02  0.35960E+05
 0.23920000E+02  0.36626E+05
 0.23970001E+02  0.35952E+05
 0.24020000E+02  0.33391E+05
 0.24070002E+02  0.28837E+05
 0.24120001E+02  0.22416E+05
 0.24170000E+02  0.14573E+05
 0.24220001E+02  0.61260E+04
 0.24270000E+02 -0.26460E+04
 0.24320002E+02 -0.11630E+05
 0.24370001E+02 -0.20472E+05
 0.24420000E+02 -0.28399E+05
 0.24470001E+02 -0.34391E+05
 0.24520000E+02 -0.38023E+05
 0.24570002E+02 -0.39247E+05
 0.24620001E+02 -0.38753E+05
 0.24670000E+02 -0.36334E+05
 0.24720001E+02 -0.31788E+05
 0.24770000E+02 -0.26180E+05
 0.24820002E+02 -0.18920E+05
 0.24870001E+02 -0.10361E+05
 0.24920000E+02 -0.15740E+04
 0.24970001E+02  0.77180E+04
 0.25020000E+02  0.17391E+05
 0.25070002E+02  0.26985E+05
 0.25120001E+02  0.35329E+05
 0.25170000E+02  0.41984E+05
 0.25220001E+02  0.46938E+05
 0.25270000E+02  0.49774E+05
 0.25320002E+02  0.50656E+05
 0.25370001E+02  0.49153E+05
 0.25420000E+02  0.45778E+05
 0.25470001E+02  0.41417E+05
 0.25520000E+02  0.35423E+05
 0.25570002E+02  0.28180E+05
 0.25620001E+02  0.20400E+05
 0.25670000E+02  0.12535E+05
 0.25720001E+02  0.52290E+04
 0.25770000E+02 -0.18130E+04
 0.25820002E+02 -0.89060E+04
 0.25870001E+02 -0.16334E+05
 0.25920000E+02 -0.23819E+05
 0.25970001E+02 -0.31110E+05
 0.26020000E+02 -0.38678E+05
 0.26070002E+02 -0.45759E+05
 0.26120001E+02 -0.52161E+05
 0.26170000E+02 -0.58350E+05
 0.26220001E+02 -0.64518E+05
 0.26270000E+02 -0.71018E+05
 0.26320002E+02 -0.77292E+05
 0.26370001E+02 -0.83380E+05
 0.26420000E+02 -0.89144E+05
 0.26470001E+02 -0.94250E+05
 0.26520000E+02 -0.99185E+05
 0.26570002E+02 -0.10324E+06
 0.26620001E+02 -0.10598E+06
 0.26670000E+02 -0.10765E+06
 0.26720001E+02 -0.10785E+06
 0.26770000E+02 -0.10678E+06
 0.26820002E+02 -0.10459E+06
 0.26870001E+02 -0.10113E+06
 0.26920000E+02 -0.96471E+05
 0.26970001E+02 -0.90624E+05
 0.27020000E+02 -0.83934E+05
 0.27070002E+02 -0.76446E+05
 0.27120001E+02 -0.68448E+05
 0.27170000E+02 -0.60849E+05
 0.27220001E+02 -0.53549E+05
 0.27270000E+02 -0.46321E+05
 0.27320002E+02 -0.39440E+05
 0.27370001E+02 -0.32997E+05
 0.27420000E+02 -0.27082E+05
 0.27470001E+02 -0.21689E+05
 0.27520000E+02 -0.16826E+05
 0.27570002E+02 -0.11554E+05
 0.27620001E+02 -0.51880E+04
 0.27670000E+02  0.16010E+04
 0.27720001E+02  0.83510E+04
 0.27770000E+02  0.14288E+05
 0.27820002E+02  0.19357E+05
 0.27870001E+02  0.23747E+05
 0.27920000E+02  0.26666E+05
 0.27970001E+02  0.28200E+05
 0.28020000E+02  0.28133E+05
 0.28070002E+02  0.26132E+05
 0.28120001E+02  0.22542E+05
 0.28170000E+02  0.17245E+05
 0.28220001E+02  0.10742E+05
 0.28270000E+02  0.34740E+04
 0.28320002E+02 -0.41880E+04
 0.28370001E+02 -0.11820E+05
 0.28420000E+02 -0.19453E+05
 0.28470001E+02 -0.26123E+05
 0.28520000E+02 -0.31412E+05
 0.28570002E+02 -0.35176E+05
 0.28620001E+02 -0.36338E+05
 0.28670000E+02 -0.34904E+05
 0.28720001E+02 -0.31166E+05
 0.28770000E+02 -0.24852E+05
 0.28820002E+02 -0.16671E+05
 0.28870001E+02 -0.71160E+04
 0.28920000E+02  0.39900E+04
 0.28970001E+02  0.15776E+05
 0.29020000E+02  0.27621E+05
 0.29070000E+02  0.39184E+05
 0.29120003E+02  0.49948E+05
 0.29170002E+02  0.59869E+05
 0.29220001E+02  0.68724E+05
 0.29270000E+02  0.75937E+05
 0.29320000E+02  0.81111E+05
 0.29370003E+02  0.84798E+05
 0.29420002E+02  0.87009E+05
 0.29470001E+02  0.87625E+05
 0.29520000E+02  0.86361E+05
 0.29570000E+02  0.82676E+05
 0.29620003E+02  0.77434E+05
 0.29670002E+02  0.70852E+05
 0.29720001E+02  0.63131E+05
 0.29770000E+02  0.54408E+05
 0.29820000E+02  0.44702E+05
 0.29870003E+02  0.34308E+05
 0.29920002E+02  0.23336E+05
 0.29970001E+02  0.12580E+05
 0.30020000E+02  0.23130E+04
 0.30070000E+02 -0.65970E+04
 0.30120003E+02 -0.13838E+05
 0.30170002E+02 -0.19568E+05
 0.30220001E+02 -0.23797E+05
 0.30270000E+02 -0.27085E+05
 0.30320000E+02 -0.29054E+05
 0.30370003E+02 -0.30087E+05
 0.30420002E+02 -0.29846E+05
 0.30470001E+02 -0.28270E+05
 0.30520000E+02 -0.26414E+05
 0.30570000E+02 -0.23636E+05
 0.30620003E+02 -0.19681E+05
 0.30670002E+02 -0.15042E+05
 0.30720001E+02 -0.99190E+04
 0.30770000E+02 -0.43810E+04
 0.30820000E+02  0.11460E+04
 0.30870003E+02  0.69510E+04
 0.30920002E+02  0.13723E+05
 0.30970001E+02  0.21490E+05
 0.31020000E+02  0.30155E+05
 0.31070000E+02  0.38872E+05
 0.31120003E+02  0.47087E+05
 0.31170002E+02  0.54338E+05
 0.31220001E+02  0.60911E+05
 0.31270000E+02  0.67020E+05
 0.31320000E+02  0.72230E+05
 0.31370003E+02  0.76999E+05
 0.31420002E+02  0.80931E+05
 0.31470001E+02  0.83478E+05
 0.31520000E+02  0.84584E+05
 0.31570000E+02  0.84355E+05
 0.31620003E+02  0.83299E+05
 0.31670002E+02  0.81586E+05
 0.31720001E+02  0.79205E+05
 0.31770000E+02  0.76347E+05
 0.31820000E+02  0.72839E+05
 0.31870003E+02  0.68730E+05
 0.31920002E+02  0.64480E+05
 0.31970001E+02  0.59941E+05
 0.32020000E+02  0.55135E+05
 0.32070000E+02  0.50225E+05
 0.32120003E+02  0.45022E+05
 0.32170002E+02  0.39562E+05
 0.32220001E+02  0.33914E+05
 0.32270000E+02  0.28216E+05
 0.32320000E+02  0.22639E+05
 0.32370003E+02  0.17065E+05
 0.32420002E+02  0.11822E+05
 0.32470001E+02  0.73600E+04
 0.32520000E+02  0.39340E+04
 0.32570000E+02  0.17320E+04
 0.32620003E+02  0.24900E+03
 0.32670002E+02 -0.10270E+04
 0.32720001E+02 -0.17470E+04
 0.32770000E+02 -0.17250E+04
 0.32820000E+02 -0.12010E+04
 0.32870003E+02  0.32600E+03
 0.32920002E+02  0.28430E+04
 0.32970001E+02  0.56340E+04
 0.33020000E+02  0.82660E+04
 0.33070000E+02  0.10146E+05
 0.33120003E+02  0.11090E+05
 0.33170002E+02  0.11453E+05
 0.33220001E+02  0.10770E+05
 0.33270000E+02  0.88200E+04
 0.33320000E+02  0.64890E+04
 0.33370003E+02  0.40550E+04
 0.33420002E+02  0.15110E+04
 0.33470001E+02 -0.12450E+04
 0.33520000E+02 -0.38840E+04
 0.33570000E+02 -0.59070E+04
 0.33620003E+02 -0.74460E+04
 0.33670002E+02 -0.86820E+04
 0.33720001E+02 -0.97710E+04
 0.33770000E+02 -0.10927E+05
 0.33820000E+02 -0.12199E+05
 0.33870003E+02 -0.13033E+05
 0.33920002E+02 -0.13070E+05
 0.33970001E+02 -0.12452E+05
 0.34020000E+02 -0.11755E+05
 0.34070000E+02 -0.10980E+05
 0.34120003E+02 -0.98120E+04
 0.34170002E+02 -0.93370E+04
 0.34220001E+02 -0.10408E+05
 0.34270000E+02 -0.12743E+05
 0.34320000E+02 -0.16224E+05
 0.34370003E+02 -0.20281E+05
 0.34420002E+02 -0.24418E+05
 0.34470001E+02 -0.28596E+05
 0.34520000E+02 -0.31983E+05
 0.34570000E+02 -0.34583E+05
 0.34620003E+02 -0.36573E+05
 0.34670002E+02 -0.37704E+05
 0.34720001E+02 -0.38194E+05
 0.34770000E+02 -0.38148E+05
 0.34820000E+02 -0.37612E+05
 0.34870003E+02 -0.36296E+05
 0.34920002E+02 -0.34818E+05
 0.34970001E+02 -0.33688E+05
 0.35020000E+02 -0.32454E+05
 0.35070000E+02 -0.31273E+05
 0.35120003E+02 -0.30815E+05
 0.35170002E+02 -0.31302E+05
 0.35220001E+02 -0.31935E+05
 0.35270000E+02 -0.32263E+05
 0.35320000E+02 -0.32877E+05
 0.35370003E+02 -0.33914E+05
 0.35420002E+02 -0.35188E+05
 0.35470001E+02 -0.36169E+05
 0.35520000E+02 -0.36385E+05
 0.35570000E+02 -0.36592E+05
 0.35620003E+02 -0.36339E+05
 0.35670002E+02 -0.34032E+05
 0.35720001E+02 -0.29152E+05
 0.35770000E+02 -0.22884E+05
 0.35820000E+02 -0.15801E+05
 0.35870003E+02 -0.71390E+04
 0.35920002E+02  0.23070E+04
 0.35970001E+02  0.12435E+05
 0.36020000E+02  0.23009E+05
 0.36070000E+02  0.32295E+05
 0.36120003E+02  0.40704E+05
 0.36170002E+02  0.47280E+05
 0.36220001E+02  0.52153E+05
 0.36270000E+02  0.56290E+05
 0.36320000E+02  0.57879E+05
 0.36370003E+02  0.59538E+05
 0.36420002E+02  0.63527E+05
 0.36470001E+02  0.68872E+05
 0.36520000E+02  0.73925E+05
 0.36570000E+02  0.77637E+05
 0.36620003E+02  0.81679E+05
 0.36670002E+02  0.86354E+05
 0.36720001E+02  0.91279E+05
 0.36770000E+02  0.96548E+05
 0.36820000E+02  0.10314E+06
 0.36870003E+02  0.11062E+06
 0.36920002E+02  0.11422E+06
 0.36970001E+02  0.11452E+06
 0.37020000E+02  0.11412E+06
 0.37070000E+02  0.11149E+06
 0.37120003E+02  0.11189E+06
 0.37170002E+02  0.11798E+06
 0.37220001E+02  0.12157E+06
 0.37270000E+02  0.11835E+06
 0.37320000E+02  0.11360E+06
 0.37370003E+02  0.11232E+06
 0.37420002E+02  0.11293E+06
 0.37470001E+02  0.11270E+06
 0.37520000E+02  0.11125E+06
 0.37570000E+02  0.10800E+06
 0.37620003E+02  0.10171E+06
 0.37670002E+02  0.95151E+05
 0.37720001E+02  0.91437E+05
 0.37770000E+02  0.86366E+05
 0.37820000E+02  0.77724E+05
 0.37870003E+02  0.68772E+05
 0.37920002E+02  0.57469E+05
 0.37970001E+02  0.41669E+05
 0.38020000E+02  0.24693E+05
 0.38070000E+02  0.10644E+05
 0.38120003E+02  0.28080E+04
 0.38170002E+02 -0.21390E+04
 0.38220001E+02 -0.83640E+04
 0.38270000E+02 -0.12051E+05
 0.38320000E+02 -0.12998E+05
 0.38370003E+02 -0.17534E+05
 0.38420002E+02 -0.21524E+05
 0.38470001E+02 -0.21995E+05
 0.38520000E+02 -0.20746E+05
 0.38570000E+02 -0.15370E+05
 0.38620003E+02 -0.10712E+05
 0.38670002E+02 -0.92980E+04
 0.38720001E+02 -0.10177E+05
 0.38770000E+02 -0.11047E+05
 0.38820000E+02 -0.11189E+05
 0.38870003E+02 -0.11678E+05
 0.38920002E+02 -0.14518E+05
 0.38970001E+02 -0.23078E+05
 0.39020000E+02 -0.32749E+05
 0.39070000E+02 -0.38789E+05
 0.39120003E+02 -0.39502E+05
 0.39170002E+02 -0.40097E+05
 0.39220001E+02 -0.40692E+05
 0.39270000E+02 -0.35163E+05
 0.39320000E+02 -0.28017E+05
 0.39370003E+02 -0.19188E+05
 0.39420002E+02 -0.91480E+04
 0.39470001E+02 -0.33560E+04
 0.39520000E+02  0.14290E+04
 0.39570000E+02  0.10790E+05
 0.39620003E+02  0.19385E+05
 0.39670002E+02  0.11408E+05
 0.39720001E+02 -0.77990E+04
 0.39770000E+02 -0.20367E+05
 0.39820000E+02 -0.22329E+05
 0.39870003E+02 -0.15918E+05
 0.39920002E+02 -0.90730E+04
 0.39970001E+02 -0.85800E+03
 0.40020000E+02  0.88960E+04
 0.40070000E+02  0.15833E+05
 0.40120003E+02  0.31873E+05
 0.40170002E+02  0.52788E+05
 0.40220001E+02  0.55993E+05
 0.40270000E+02  0.48247E+05
 0.40320000E+02  0.42080E+05
 0.40370003E+02  0.25195E+05
 0.40420002E+02 -0.16400E+04
 0.40470001E+02 -0.27394E+05
 0.40520000E+02 -0.43278E+05
 0.40570000E+02 -0.48782E+05
 0.40620003E+02 -0.55734E+05
 0.40670002E+02 -0.58004E+05
 0.40720001E+02 -0.41594E+05
 0.40770000E+02 -0.15697E+05
 0.40820000E+02  0.18040E+04
 0.40870003E+02  0.13247E+05
 0.40920002E+02  0.12678E+05
 0.40970001E+02  0.48480E+04
 0.41020000E+02  0.48030E+04
 0.41070000E+02  0.30780E+04
 0.41120003E+02 -0.18734E+05
 0.41170002E+02 -0.67205E+05
 0.41220001E+02 -0.10034E+06
 0.41270000E+02 -0.10295E+06
 0.41320000E+02 -0.10326E+06
 0.41370003E+02 -0.98690E+05
 0.41420002E+02 -0.80451E+05
 0.41470001E+02 -0.59757E+05
 0.41520000E+02 -0.50268E+05
 0.41570000E+02 -0.54901E+05
 0.41620003E+02 -0.66508E+05
 0.41670002E+02 -0.79509E+05
 0.41720001E+02 -0.95729E+05
 0.41770000E+02 -0.10758E+06
 0.41820000E+02 -0.12051E+06
 0.41870003E+02 -0.13497E+06
 0.41920002E+02 -0.13991E+06
 0.41970001E+02 -0.13021E+06
 0.42020000E+02 -0.10661E+06
 0.42070000E+02 -0.94959E+05
 0.42120003E+02 -0.88042E+05
 0.42170002E+02 -0.62078E+05
 0.42220001E+02 -0.42984E+05
 0.42270000E+02 -0.53421E+05
 0.42320000E+02 -0.78181E+05
 0.42370003E+02 -0.10809E+06
 0.42420002E+02 -0.13183E+06
 0.42470001E+02 -0.13386E+06
 0.42520000E+02 -0.12221E+06
 0.42570000E+02 -0.11136E+06
 0.42620003E+02 -0.10939E+06
 0.42670002E+02 -0.10624E+06
 0.42720001E+02 -0.84976E+05
 0.42770000E+02 -0.38733E+05
 0.42820000E+02  0.23926E+05
 0.42870003E+02  0.73511E+05
 0.42920002E+02  0.64624E+05
 0.42970001E+02 -0.39900E+04
 0.43020000E+02 -0.67847E+05
 0.43070000E+02 -0.85371E+05
 0.43120003E+02 -0.70967E+05
 0.43170002E+02 -0.43371E+05
 0.43220001E+02 -0.24779E+05
 0.43270000E+02 -0.38415E+05
 0.43320000E+02 -0.63530E+05
 0.43370003E+02 -0.89910E+05
 0.43420002E+02 -0.11429E+06
 0.43470001E+02 -0.11390E+06
 0.43520000E+02 -0.98081E+05
 0.43570000E+02 -0.70885E+05
 0.43620003E+02 -0.33569E+05
 0.43670002E+02 -0.25036E+05
 0.43720001E+02 -0.44550E+05
 0.43770000E+02 -0.51567E+05
 0.43820000E+02 -0.64126E+05
 0.43870003E+02 -0.85175E+05
 0.43920002E+02 -0.65743E+05
 0.43970001E+02 -0.33938E+05
 0.44020000E+02 -0.41425E+05
 0.44070000E+02 -0.72592E+05
 0.44120003E+02 -0.11529E+06
 0.44170002E+02 -0.15441E+06
 0.44220001E+02 -0.15592E+06
 0.44270000E+02 -0.12280E+06
 0.44320000E+02 -0.65196E+05
 0.44370003E+02  0.31872E+05
 0.44420002E+02  0.11984E+06
 0.44470001E+02  0.15310E+06
 0.44520000E+02  0.16698E+06
 0.44570000E+02  0.17335E+06
 0.44620003E+02  0.16789E+06
 0.44670002E+02  0.14715E+06
 0.44720001E+02  0.10698E+06
 0.44770000E+02  0.38623E+05
 0.44820000E+02 -0.52700E+05
 0.44870003E+02 -0.13256E+06
 0.44920002E+02 -0.17872E+06
 0.44970001E+02 -0.18845E+06
 0.45020000E+02 -0.21992E+06
 0.45070000E+02 -0.28386E+06
 0.45120003E+02 -0.32457E+06
 0.45170002E+02 -0.34851E+06
 0.45220001E+02 -0.32858E+06
 0.45270000E+02 -0.24034E+06
 0.45320000E+02 -0.12311E+06
 0.45370003E+02  0.14910E+04
 0.45420002E+02  0.10694E+06
 0.45470001E+02  0.15617E+06
 0.45520000E+02  0.16247E+06
 0.45570000E+02  0.13956E+06
 0.45620003E+02  0.64176E+05
 0.45670002E+02  0.10119E+05
 0.45720001E+02  0.13203E+05
 0.45770000E+02  0.19716E+05
 0.45820000E+02  0.47106E+05
 0.45870003E+02  0.85028E+05
 0.45920002E+02  0.95472E+05
 0.45970001E+02  0.72411E+05
 0.46020000E+02  0.32177E+05
 0.46070000E+02 -0.18808E+05
 0.46120003E+02 -0.87364E+05
 0.46170002E+02 -0.15700E+06
 0.46220001E+02 -0.20381E+06
 0.46270000E+02 -0.20990E+06
 0.46320000E+02 -0.20525E+06
 0.46370003E+02 -0.16802E+06
 0.46420002E+02 -0.55012E+05
 0.46470001E+02  0.88446E+05
 0.46520000E+02  0.21058E+06
 0.46570000E+02  0.25283E+06
 0.46620003E+02  0.19640E+06
 0.46670002E+02  0.72591E+05
 0.46720001E+02 -0.66443E+05
 0.46770000E+02 -0.15274E+06
 0.46820000E+02 -0.14215E+06
 0.46870003E+02 -0.47952E+05
 0.46920002E+02  0.66106E+05
 0.46970001E+02  0.18633E+06
 0.47020000E+02  0.27910E+06
 0.47070000E+02  0.28974E+06
 0.47120003E+02  0.25918E+06
 0.47170002E+02  0.23162E+06
 0.47220001E+02  0.18417E+06
 0.47270000E+02  0.99957E+05
 0.47320000E+02  0.19956E+05
 0.47370003E+02 -0.10022E+05
 0.47420002E+02  0.16098E+05
 0.47470001E+02  0.38629E+05
 0.47520000E+02  0.23678E+05
 0.47570000E+02  0.24031E+05
 0.47620003E+02  0.53103E+05
 0.47670002E+02  0.79751E+05
 0.47720001E+02  0.72733E+05
 0.47770000E+02  0.10277E+05
 0.47820000E+02 -0.89204E+05
 0.47870003E+02 -0.18784E+06
 0.47920002E+02 -0.25760E+06
 0.47970001E+02 -0.30974E+06
 0.48020000E+02 -0.35339E+06
 0.48070000E+02 -0.37230E+06
 0.48120003E+02 -0.38606E+06
 0.48170002E+02 -0.37564E+06
 0.48220001E+02 -0.32736E+06
 0.48270000E+02 -0.28318E+06
 0.48320000E+02 -0.22544E+06
 0.48370003E+02 -0.11386E+06
 0.48420002E+02  0.52582E+05
 0.48470001E+02  0.20988E+06
 0.48520000E+02  0.27734E+06
 0.48570000E+02  0.24814E+06
 0.48620003E+02  0.17494E+06
 0.48670002E+02  0.99118E+05
 0.48720001E+02  0.20343E+05
 0.48770000E+02 -0.37061E+05
 0.48820000E+02 -0.54510E+05
 0.48870003E+02 -0.64839E+05
 0.48920002E+02 -0.46157E+05
 0.48970001E+02  0.48543E+05
 0.49020000E+02  0.17804E+06
 0.49070000E+02  0.25532E+06
 0.49120003E+02  0.26119E+06
 0.49170002E+02  0.21911E+06
 0.49220001E+02  0.13981E+06
 0.49270000E+02  0.28515E+05
 0.49320000E+02 -0.14174E+06
 0.49370003E+02 -0.35163E+06
 0.49420002E+02 -0.56860E+06
 0.49470001E+02 -0.78301E+06
 0.49520000E+02 -0.94292E+06
 0.49570000E+02 -0.99506E+06
 0.49620003E+02 -0.91281E+06
 0.49670002E+02 -0.74654E+06
 0.49720001E+02 -0.54688E+06
 0.49770000E+02 -0.33375E+06
 0.49820000E+02 -0.15714E+06
 0.49870003E+02 -0.27288E+05
 0.49920002E+02  0.52758E+05
 0.49970001E+02  0.78785E+05
 0.50020000E+02  0.91218E+05
 0.50070000E+02  0.14291E+06
 0.50120003E+02  0.21973E+06
 0.50170002E+02  0.24486E+06
 0.50220001E+02  0.23870E+06
 0.50270000E+02  0.24682E+06
 0.50320000E+02  0.24470E+06
 0.50370003E+02  0.24770E+06
 0.50420002E+02  0.26906E+06
 0.50470001E+02  0.27970E+06
 0.50520000E+02  0.25873E+06
 0.50570000E+02  0.20046E+06
 0.50620003E+02  0.12119E+06
 0.50670002E+02  0.54976E+05
 0.50720001E+02  0.64290E+04
 0.50770000E+02 -0.39079E+05
 0.50820000E+02 -0.60204E+05
 0.50870003E+02 -0.42393E+05
 0.50920002E+02 -0.33550E+04
 0.50970001E+02  0.39467E+05
 0.51020000E+02  0.70461E+05
 0.51070000E+02  0.47796E+05
 0.51120003E+02 -0.51798E+05
 0.51170002E+02 -0.18218E+06
 0.51220001E+02 -0.29097E+06
 0.51270000E+02 -0.35894E+06
 0.51320000E+02 -0.38664E+06
 0.51370003E+02 -0.35985E+06
 0.51420002E+02 -0.29016E+06
 0.51470001E+02 -0.22486E+06
 0.51520000E+02 -0.14772E+06
 0.51570000E+02 -0.36087E+05
 0.51620003E+02  0.58965E+05
 0.51670002E+02  0.91748E+05
 0.51720001E+02  0.72089E+05
 0.51770000E+02  0.31407E+05
 0.51820000E+02 -0.11572E+05
 0.51870003E+02 -0.45832E+05
 0.51920002E+02 -0.44247E+05
 0.51970001E+02  0.69120E+04
 0.52020000E+02  0.90079E+05
 0.52070000E+02  0.16203E+06
 0.52120003E+02  0.18112E+06
 0.52170002E+02  0.15151E+06
 0.52220001E+02  0.86585E+05
 0.52270000E+02  0.97540E+04
 0.52320000E+02 -0.47247E+05
 0.52370003E+02 -0.65994E+05
 0.52420002E+02 -0.34113E+05
 0.52470001E+02  0.65860E+04
 0.52520000E+02  0.35407E+05
 0.52570000E+02  0.86887E+05
 0.52620003E+02  0.15874E+06
 0.52670002E+02  0.22774E+06
 0.52720001E+02  0.25618E+06
 0.52770000E+02  0.22676E+06
 0.52820000E+02  0.17980E+06
 0.52870003E+02  0.14687E+06
 0.52920002E+02  0.13739E+06
 0.52970001E+02  0.14055E+06
 0.53020000E+02  0.12784E+06
 0.53070000E+02  0.99812E+05
 0.53120003E+02  0.47617E+05
 0.53170002E+02 -0.43210E+05
 0.53220001E+02 -0.14288E+06
 0.53270000E+02 -0.20995E+06
 0.53320000E+02 -0.19926E+06
 0.53370003E+02 -0.81148E+05
 0.53420002E+02  0.11557E+06
 0.53470001E+02  0.32637E+06
 0.53520000E+02  0.49364E+06
 0.53570000E+02  0.57436E+06
 0.53620003E+02  0.57856E+06
 0.53670002E+02  0.54736E+06
 0.53720001E+02  0.47937E+06
 0.53770000E+02  0.38671E+06
 0.53820000E+02  0.31410E+06
 0.53870003E+02  0.26543E+06
 0.53920002E+02  0.23024E+06
 0.53970001E+02  0.21481E+06
 0.54020000E+02  0.19126E+06
 0.54070000E+02  0.13797E+06
 0.54120003E+02  0.69698E+05
 0.54170002E+02 -0.19440E+04
 0.54220001E+02 -0.57534E+05
 0.54270000E+02 -0.94555E+05
 0.54320000E+02 -0.12411E+06
 0.54370003E+02 -0.16221E+06
 0.54420002E+02 -0.22296E+06
 0.54470001E+02 -0.29070E+06
 0.54520000E+02 -0.35767E+06
 0.54570000E+02 -0.43086E+06
 0.54620003E+02 -0.50671E+06
 0.54670002E+02 -0.55191E+06
 0.54720001E+02 -0.53175E+06
 0.54770000E+02 -0.44392E+06
 0.54820000E+02 -0.31055E+06
 0.54870003E+02 -0.15870E+06
 0.54920002E+02 -0.21349E+05
 0.54970001E+02  0.65778E+05
 0.55020000E+02  0.11337E+06
 0.55070000E+02  0.11654E+06
 0.55120003E+02  0.68801E+05
 0.55170002E+02  0.32779E+05
 0.55220001E+02  0.46020E+05
 0.55270000E+02  0.10730E+06
 0.55320000E+02  0.18016E+06
 0.55370003E+02  0.21488E+06
 0.55420002E+02  0.21971E+06
 0.55470001E+02  0.20766E+06
 0.55520000E+02  0.18416E+06
 0.55570000E+02  0.16294E+06
 0.55620003E+02  0.15480E+06
 0.55670002E+02  0.16111E+06
 0.55720001E+02  0.14895E+06
 0.55770000E+02  0.10776E+06
 0.55820000E+02  0.68726E+05
 0.55870003E+02  0.47121E+05
 0.55920002E+02  0.38098E+05
 0.55970001E+02  0.30345E+05
 0.56020000E+02  0.17622E+05
 0.56070000E+02  0.59290E+04
 0.56120003E+02 -0.28900E+04
 0.56170002E+02 -0.22329E+05
 0.56220001E+02 -0.46088E+05
 0.56270000E+02 -0.43898E+05
 0.56320000E+02 -0.23704E+05
 0.56370003E+02 -0.15719E+05
 0.56420002E+02 -0.12115E+05
 0.56470001E+02  0.13979E+05
 0.56520000E+02  0.66742E+05
 0.56570000E+02  0.13269E+06
 0.56620003E+02  0.18300E+06
 0.56670002E+02  0.17950E+06
 0.56720001E+02  0.14232E+06
 0.56770000E+02  0.12120E+06
 0.56820000E+02  0.13212E+06
 0.56870003E+02  0.17476E+06
 0.56920002E+02  0.22230E+06
 0.56970001E+02  0.24039E+06
 0.57020000E+02  0.22308E+06
 0.57070000E+02  0.19951E+06
 0.57120003E+02  0.19891E+06
 0.57170002E+02  0.22860E+06
 0.57220001E+02  0.25835E+06
 0.57270000E+02  0.26826E+06
 0.57320000E+02  0.30256E+06
 0.57370003E+02  0.36058E+06
 0.57420002E+02  0.43051E+06
 0.57470001E+02  0.50599E+06
 0.57520000E+02  0.52300E+06
 0.57570000E+02  0.45434E+06
 0.57620003E+02  0.32512E+06
 0.57670002E+02  0.17812E+06
 0.57720001E+02  0.40558E+05
 0.57770000E+02 -0.59322E+05
 0.57820000E+02 -0.89816E+05
 0.57870003E+02 -0.78191E+05
 0.57920002E+02 -0.56504E+05
 0.57970001E+02 -0.27191E+05
 0.58020000E+02 -0.74870E+04
 0.58070000E+02 -0.23345E+05
 0.58120003E+02 -0.61944E+05
 0.58170002E+02 -0.87203E+05
 0.58220001E+02 -0.82049E+05
 0.58270000E+02 -0.60670E+05
 0.58320000E+02 -0.24144E+05
 0.58370003E+02  0.49752E+05
 0.58420002E+02  0.12861E+06
 0.58470001E+02  0.16735E+06
 0.58520000E+02  0.17327E+06
 0.58570000E+02  0.17294E+06
 0.58620003E+02  0.18323E+06
 0.58670002E+02  0.21526E+06
 0.58720001E+02  0.25001E+06
 0.58770000E+02  0.25293E+06
 0.58820000E+02  0.23821E+06
 0.58870003E+02  0.23739E+06
 0.58920002E+02  0.28212E+06
 0.58970001E+02  0.36934E+06
 0.59020000E+02  0.44340E+06
 0.59070000E+02  0.46794E+06
 0.59120003E+02  0.44963E+06
 0.59170002E+02  0.41755E+06
 0.59220001E+02  0.37775E+06
 0.59270000E+02  0.33707E+06
 0.59320000E+02  0.29262E+06
 0.59370003E+02  0.21599E+06
 0.59420002E+02  0.12706E+06
 0.59470001E+02  0.52675E+05
 0.59520000E+02  0.71170E+04
 0.59570000E+02 -0.39920E+04
 0.59620003E+02 -0.16966E+05
 0.59670002E+02 -0.32176E+05
 0.59720001E+02 -0.11535E+05
 0.59770000E+02  0.52483E+05
 0.59820000E+02  0.13776E+06
 0.59870003E+02  0.21460E+06
 0.59920002E+02  0.26880E+06
 0.59970001E+02  0.29453E+06
 0.60020000E+02  0.31547E+06
 0.60070000E+02  0.34107E+06
 0.60120003E+02  0.33713E+06
 0.60170002E+02  0.31595E+06
 0.60220001E+02  0.29654E+06
 0.60270000E+02  0.27332E+06
 0.60320000E+02  0.25823E+06
 0.60370003E+02  0.25666E+06
 0.60420002E+02  0.27328E+06
 0.60470001E+02  0.29440E+06
 0.60520000E+02  0.29302E+06
 0.60570000E+02  0.27533E+06
 0.60620003E+02  0.24081E+06
 0.60670002E+02  0.19330E+06
 0.60720001E+02  0.14154E+06
 0.60770000E+02  0.86140E+05
 0.60820000E+02  0.42237E+05
 0.60870003E+02 -0.19500E+03
 0.60920002E+02 -0.51240E+05
 0.60970001E+02 -0.12438E+06
 0.61020000E+02 -0.21353E+06
 0.61070004E+02 -0.26430E+06
 0.61119999E+02 -0.26014E+06
 0.61170002E+02 -0.23222E+06
 0.61220005E+02 -0.21212E+06
 0.61270000E+02 -0.18742E+06
 0.61320004E+02 -0.15271E+06
 0.61369999E+02 -0.12810E+06
 0.61420002E+02 -0.98474E+05
 0.61470005E+02 -0.65345E+05
 0.61520000E+02 -0.52191E+05
 0.61570004E+02 -0.65213E+05
 0.61619999E+02 -0.80677E+05
 0.61670002E+02 -0.91554E+05
 0.61720005E+02 -0.14508E+06
 0.61770000E+02 -0.22556E+06
 0.61820004E+02 -0.27885E+06
 0.61869999E+02 -0.29387E+06
 0.61920002E+02 -0.26053E+06
 0.61970005E+02 -0.19163E+06
 0.62020000E+02 -0.10843E+06
 0.62070004E+02 -0.31525E+05
 0.62119999E+02  0.21665E+05
 0.62170002E+02  0.59510E+05
 0.62220005E+02  0.76356E+05
 0.62270000E+02  0.63880E+05
 0.62320004E+02  0.22233E+05
 0.62369999E+02 -0.22572E+05
 0.62420002E+02 -0.39937E+05
 0.62470005E+02 -0.40957E+05
 0.62520000E+02 -0.18199E+05
 0.62570004E+02  0.44436E+05
 0.62619999E+02  0.10731E+06
 0.62670002E+02  0.12991E+06
 0.62720005E+02  0.14405E+06
 0.62770000E+02  0.17669E+06
 0.62820004E+02  0.17990E+06
 0.62869999E+02  0.11032E+06
 0.62920002E+02 -0.23105E+05
 0.62970005E+02 -0.17922E+06
 0.63020000E+02 -0.31043E+06
 0.63070004E+02 -0.41252E+06
 0.63119999E+02 -0.48766E+06
 0.63170002E+02 -0.53355E+06
 0.63220005E+02 -0.58001E+06
 0.63270000E+02 -0.62146E+06
 0.63320004E+02 -0.67643E+06
 0.63369999E+02 -0.76016E+06
 0.63420002E+02 -0.78964E+06
 0.63470005E+02 -0.74019E+06
 0.63520000E+02 -0.63479E+06
 0.63570004E+02 -0.46736E+06
 0.63619999E+02 -0.25453E+06
 0.63670002E+02 -0.18395E+05
 0.63720005E+02  0.20935E+06
 0.63770000E+02  0.40190E+06
 0.63820004E+02  0.54913E+06
 0.63869999E+02  0.64366E+06
 0.63920002E+02  0.67736E+06
 0.63970005E+02  0.65356E+06
 0.64019997E+02  0.59088E+06
 0.64070000E+02  0.47299E+06
 0.64119995E+02  0.28021E+06
 0.64169998E+02  0.53146E+05
 0.64220001E+02 -0.14073E+06
 0.64269997E+02 -0.27587E+06
 0.64320000E+02 -0.37223E+06
 0.64369995E+02 -0.45721E+06
 0.64419998E+02 -0.55186E+06
 0.64470001E+02 -0.62853E+06
 0.64519997E+02 -0.64046E+06
 0.64570000E+02 -0.59961E+06
 0.64619995E+02 -0.54076E+06
 0.64669998E+02 -0.48291E+06
 0.64720001E+02 -0.41788E+06
 0.64769997E+02 -0.35303E+06
 0.64820000E+02 -0.31560E+06
 0.64869995E+02 -0.30347E+06
 0.64919998E+02 -0.28529E+06
 0.64970001E+02 -0.25251E+06
 0.65019997E+02 -0.22311E+06
 0.65070000E+02 -0.17070E+06
 0.65119995E+02 -0.92360E+05
 0.65169998E+02  0.71780E+04
 0.65220001E+02  0.11318E+06
 0.65269997E+02  0.17240E+06
 0.65320000E+02  0.17995E+06
 0.65369995E+02  0.13334E+06
 0.65419998E+02  0.39281E+05
 0.65470001E+02 -0.70146E+05
 0.65519997E+02 -0.15064E+06
 0.65570000E+02 -0.18544E+06
 0.65619995E+02 -0.21690E+06
 0.65669998E+02 -0.24114E+06
 0.65720001E+02 -0.22925E+06
 0.65769997E+02 -0.18011E+06
 0.65820000E+02 -0.12798E+06
 0.65869995E+02 -0.10638E+06
 0.65919998E+02 -0.10478E+06
 0.65970001E+02 -0.10809E+06
 0.66019997E+02 -0.72525E+05
 0.66070000E+02 -0.56290E+04
 0.66119995E+02  0.50813E+05
 0.66169998E+02  0.10946E+06
 0.66220001E+02  0.15224E+06
 0.66269997E+02  0.14627E+06
 0.66320000E+02  0.79665E+05
 0.66369995E+02 -0.97090E+04
 0.66419998E+02 -0.76207E+05
 0.66470001E+02 -0.12212E+06
 0.66519997E+02 -0.13129E+06
 0.66570000E+02 -0.12367E+06
 0.66619995E+02 -0.14205E+06
 0.66669998E+02 -0.18338E+06
 0.66720001E+02 -0.24910E+06
 0.66769997E+02 -0.31017E+06
 0.66820000E+02 -0.34528E+06
 0.66869995E+02 -0.37319E+06
 0.66919998E+02 -0.36433E+06
 0.66970001E+02 -0.32421E+06
 0.67019997E+02 -0.29933E+06
 0.67070000E+02 -0.25902E+06
 0.67119995E+02 -0.17464E+06
 0.67169998E+02 -0.88021E+05
 0.67220001E+02 -0.24409E+05
 0.67269997E+02  0.23682E+05
 0.67320000E+02  0.77050E+05
 0.67369995E+02  0.18000E+06
 0.67419998E+02  0.31719E+06
 0.67470001E+02  0.41928E+06
 0.67519997E+02  0.47808E+06
 0.67570000E+02  0.50322E+06
 0.67619995E+02  0.47446E+06
 0.67669998E+02  0.42316E+06
 0.67720001E+02  0.36968E+06
 0.67769997E+02  0.30243E+06
 0.67820000E+02  0.23114E+06
 0.67869995E+02  0.13756E+06
 0.67919998E+02  0.27230E+05
 0.67970001E+02 -0.78967E+05
 0.68019997E+02 -0.16790E+06
 0.68070000E+02 -0.23071E+06
 0.68119995E+02 -0.27713E+06
 0.68169998E+02 -0.28209E+06
 0.68220001E+02 -0.25082E+06
 0.68269997E+02 -0.20877E+06
 0.68320000E+02 -0.13419E+06
 0.68369995E+02 -0.39110E+05
 0.68419998E+02  0.47903E+05
 0.68470001E+02  0.12419E+06
 0.68519997E+02  0.14714E+06
 0.68570000E+02  0.12266E+06
 0.68619995E+02  0.12849E+06
 0.68669998E+02  0.16740E+06
 0.68720001E+02  0.22317E+06
 0.68769997E+02  0.26416E+06
 0.68820000E+02  0.23793E+06
 0.68869995E+02  0.18236E+06
 0.68919998E+02  0.15328E+06
 0.68970001E+02  0.13243E+06
 0.69019997E+02  0.61324E+05
 0.69070000E+02 -0.52257E+05
 0.69119995E+02 -0.13401E+06
 0.69169998E+02 -0.16429E+06
 0.69220001E+02 -0.18909E+06
 0.69269997E+02 -0.23845E+06
 0.69320000E+02 -0.28305E+06
 0.69369995E+02 -0.27586E+06
 0.69419998E+02 -0.21418E+06
 0.69470001E+02 -0.15451E+06
 0.69519997E+02 -0.13816E+06
 0.69570000E+02 -0.13850E+06
 0.69619995E+02 -0.10943E+06
 0.69669998E+02 -0.44205E+05
 0.69720001E+02  0.36682E+05
 0.69769997E+02  0.13805E+06
 0.69820000E+02  0.25197E+06
 0.69869995E+02  0.35615E+06
 0.69919998E+02  0.40672E+06
 0.69970001E+02  0.36160E+06
 0.70019997E+02  0.25793E+06
 0.70070000E+02  0.12488E+06
 0.70119995E+02 -0.19596E+05
 0.70169998E+02 -0.14047E+06
 0.70220001E+02 -0.24049E+06
 0.70269997E+02 -0.32507E+06
 0.70320000E+02 -0.37505E+06
 0.70369995E+02 -0.36855E+06
 0.70419998E+02 -0.28285E+06
 0.70470001E+02 -0.13956E+06
 0.70519997E+02 -0.17199E+05
 0.70570000E+02  0.52488E+05
 0.70619995E+02  0.88484E+05
 0.70669998E+02  0.98355E+05
 0.70720001E+02  0.83505E+05
 0.70769997E+02  0.81325E+05
 0.70820000E+02  0.13186E+06
 0.70869995E+02  0.24134E+06
 0.70919998E+02  0.40107E+06
 0.70970001E+02  0.52224E+06
 0.71019997E+02  0.53875E+06
 0.71070000E+02  0.47197E+06
 0.71119995E+02  0.34888E+06
 0.71169998E+02  0.24760E+06
 0.71220001E+02  0.19471E+06
 0.71269997E+02  0.15561E+06
 0.71320000E+02  0.17692E+06
 0.71369995E+02  0.31665E+06
 0.71419998E+02  0.54234E+06
 0.71470001E+02  0.75880E+06
 0.71519997E+02  0.88692E+06
 0.71570000E+02  0.89671E+06
 0.71619995E+02  0.81563E+06
 0.71669998E+02  0.68808E+06
 0.71720001E+02  0.53511E+06
 0.71769997E+02  0.36382E+06
 0.71820000E+02  0.21098E+06
 0.71869995E+02  0.14780E+06
 0.71919998E+02  0.19253E+06
 0.71970001E+02  0.28875E+06
 0.72019997E+02  0.36345E+06
 0.72070000E+02  0.38428E+06
 0.72119995E+02  0.34386E+06
 0.72169998E+02  0.23413E+06
 0.72220001E+02  0.44229E+05
 0.72269997E+02 -0.21330E+06
 0.72320000E+02 -0.45717E+06
 0.72369995E+02 -0.60467E+06
 0.72419998E+02 -0.64309E+06
 0.72470001E+02 -0.63995E+06
 0.72519997E+02 -0.63796E+06
 0.72570000E+02 -0.63068E+06
 0.72619995E+02 -0.66323E+06
 0.72669998E+02 -0.74561E+06
 0.72720001E+02 -0.85207E+06
 0.72769997E+02 -0.95192E+06
 0.72820000E+02 -0.98560E+06
 0.72869995E+02 -0.97398E+06
 0.72919998E+02 -0.94135E+06
 0.72970001E+02 -0.82327E+06
 0.73019997E+02 -0.61931E+06
 0.73070000E+02 -0.39701E+06
 0.73119995E+02 -0.15544E+06
 0.73169998E+02  0.10448E+06
 0.73220001E+02  0.31488E+06
 0.73269997E+02  0.43801E+06
 0.73320000E+02  0.49761E+06
 0.73369995E+02  0.52573E+06
 0.73419998E+02  0.53457E+06
 0.73470001E+02  0.53399E+06
 0.73519997E+02  0.51891E+06
 0.73570000E+02  0.45757E+06
 0.73619995E+02  0.31863E+06
 0.73669998E+02  0.96119E+05
 0.73720001E+02 -0.19038E+06
 0.73769997E+02 -0.49448E+06
 0.73820000E+02 -0.75726E+06
 0.73869995E+02 -0.95989E+06
 0.73919998E+02 -0.10800E+07
 0.73970001E+02 -0.11150E+07
 0.74019997E+02 -0.11269E+07
 0.74070000E+02 -0.11527E+07
 0.74119995E+02 -0.12063E+07
 0.74169998E+02 -0.12744E+07
 0.74220001E+02 -0.13236E+07
 0.74269997E+02 -0.13339E+07
 0.74320000E+02 -0.12838E+07
 0.74369995E+02 -0.11457E+07
 0.74419998E+02 -0.86592E+06
 0.74470001E+02 -0.45360E+06
 0.74519997E+02 -0.20851E+05
 0.74570000E+02  0.32731E+06
 0.74619995E+02  0.57729E+06
 0.74669998E+02  0.76508E+06
 0.74720001E+02  0.89034E+06
 0.74769997E+02  0.94920E+06
 0.74820000E+02  0.93627E+06
 0.74869995E+02  0.83358E+06
 0.74919998E+02  0.63821E+06
 0.74970001E+02  0.36456E+06
 0.75019997E+02  0.70280E+05
 0.75070000E+02 -0.15097E+06
 0.75119995E+02 -0.22240E+06
 0.75169998E+02 -0.15566E+06
 0.75220001E+02 -0.96060E+04
 0.75269997E+02  0.21027E+06
 0.75320000E+02  0.48845E+06
 0.75369995E+02  0.75095E+06
 0.75419998E+02  0.93045E+06
 0.75470001E+02  0.98342E+06
 0.75519997E+02  0.88263E+06
 0.75570000E+02  0.64907E+06
 0.75619995E+02  0.33973E+06
 0.75669998E+02  0.17385E+05
 0.75720001E+02 -0.24975E+06
 0.75769997E+02 -0.43350E+06
 0.75820000E+02 -0.55338E+06
 0.75869995E+02 -0.62834E+06
 0.75919998E+02 -0.64473E+06
 0.75970001E+02 -0.56783E+06
 0.76019997E+02 -0.41895E+06
 0.76070000E+02 -0.28061E+06
 0.76119995E+02 -0.22601E+06
 0.76169998E+02 -0.29128E+06
 0.76220001E+02 -0.45767E+06
 0.76269997E+02 -0.65455E+06
 0.76320000E+02 -0.82169E+06
 0.76369995E+02 -0.92912E+06
 0.76419998E+02 -0.94996E+06
 0.76470001E+02 -0.86625E+06
 0.76519997E+02 -0.68879E+06
 0.76570000E+02 -0.46822E+06
 0.76619995E+02 -0.23448E+06
 0.76669998E+02  0.37521E+05
 0.76720001E+02  0.36835E+06
 0.76769997E+02  0.71958E+06
 0.76820000E+02  0.10027E+07
 0.76869995E+02  0.11704E+07
 0.76919998E+02  0.12282E+07
 0.76970001E+02  0.11888E+07
 0.77019997E+02  0.10586E+07
 0.77070000E+02  0.85060E+06
 0.77119995E+02  0.62171E+06
 0.77169998E+02  0.44621E+06
 0.77220001E+02  0.37217E+06
 0.77269997E+02  0.40750E+06
 0.77320000E+02  0.50754E+06
 0.77369995E+02  0.60453E+06
 0.77419998E+02  0.69258E+06
 0.77470001E+02  0.80672E+06
 0.77519997E+02  0.93113E+06
 0.77570000E+02  0.10206E+07
 0.77619995E+02  0.10499E+07
 0.77669998E+02  0.10329E+07
 0.77720001E+02  0.99621E+06
 0.77769997E+02  0.92011E+06
 0.77820000E+02  0.74573E+06
 0.77869995E+02  0.47418E+06
 0.77919998E+02  0.17470E+06
 0.77970001E+02 -0.11845E+06
 0.78019997E+02 -0.40844E+06
 0.78070000E+02 -0.68880E+06
 0.78119995E+02 -0.94516E+06
 0.78169998E+02 -0.11515E+07
 0.78220001E+02 -0.12725E+07
 0.78269997E+02 -0.13017E+07
 0.78320000E+02 -0.12701E+07
 0.78369995E+02 -0.12143E+07
 0.78419998E+02 -0.11502E+07
 0.78470001E+02 -0.10730E+07
 0.78519997E+02 -0.97973E+06
 0.78570000E+02 -0.86478E+06
 0.78619995E+02 -0.71605E+06
 0.78669998E+02 -0.52969E+06
 0.78720001E+02 -0.32441E+06
 0.78769997E+02 -0.12258E+06
 0.78820000E+02  0.73593E+05
 0.78869995E+02  0.26677E+06
 0.78919998E+02  0.45279E+06
 0.78970001E+02  0.62371E+06
 0.79019997E+02  0.75707E+06
 0.79070000E+02  0.81114E+06
 0.79119995E+02  0.77200E+06
 0.79169998E+02  0.66803E+06
 0.79220001E+02  0.54603E+06
 0.79269997E+02  0.43600E+06
 0.79320000E+02  0.32574E+06
 0.79369995E+02  0.22503E+06
 0.79419998E+02  0.17364E+06
 0.79470001E+02  0.18907E+06
 0.79519997E+02  0.26428E+06
 0.79570000E+02  0.37327E+06
 0.79619995E+02  0.49673E+06
 0.79669998E+02  0.63292E+06
 0.79720001E+02  0.75922E+06
 0.79769997E+02  0.84074E+06
 0.79820000E+02  0.87626E+06
 0.79869995E+02  0.89510E+06
 0.79919998E+02  0.94547E+06
 0.79970001E+02  0.10702E+07
 0.80019997E+02  0.12582E+07
 0.80070000E+02  0.14625E+07
 0.80119995E+02  0.16695E+07
 0.80169998E+02  0.18736E+07
 0.80220001E+02  0.20237E+07
 0.80269997E+02  0.20627E+07
 0.80320000E+02  0.19611E+07
 0.80369995E+02  0.17286E+07
 0.80419998E+02  0.14212E+07
 0.80470001E+02  0.11068E+07
 0.80519997E+02  0.84220E+06
 0.80570000E+02  0.65201E+06
 0.80619995E+02  0.50716E+06
 0.80669998E+02  0.35523E+06
 0.80720001E+02  0.16572E+06
 0.80769997E+02 -0.58749E+05
 0.80820000E+02 -0.30870E+06
 0.80869995E+02 -0.57963E+06
 0.80919998E+02 -0.86875E+06
 0.80970001E+02 -0.11680E+07
 0.81019997E+02 -0.14476E+07
 0.81070000E+02 -0.16563E+07
 0.81119995E+02 -0.17546E+07
 0.81169998E+02 -0.17490E+07
 0.81220001E+02 -0.16880E+07
 0.81269997E+02 -0.16231E+07
 0.81320000E+02 -0.15620E+07
 0.81369995E+02 -0.14854E+07
 0.81419998E+02 -0.13831E+07
 0.81470001E+02 -0.12357E+07
 0.81519997E+02 -0.10085E+07
 0.81570000E+02 -0.67618E+06
 0.81619995E+02 -0.26458E+06
 0.81669998E+02  0.15668E+06
 0.81720001E+02  0.51438E+06
 0.81769997E+02  0.76143E+06
 0.81820000E+02  0.91652E+06
 0.81869995E+02  0.10119E+07
 0.81919998E+02  0.10633E+07
 0.81970001E+02  0.10989E+07
 0.82019997E+02  0.11209E+07
 0.82070000E+02  0.11220E+07
 0.82119995E+02  0.11041E+07
 0.82169998E+02  0.10693E+07
 0.82220001E+02  0.10246E+07
 0.82269997E+02  0.96026E+06
 0.82320000E+02  0.88533E+06
 0.82369995E+02  0.83554E+06
 0.82419998E+02  0.83381E+06
 0.82470001E+02  0.89364E+06
 0.82519997E+02  0.10038E+07
 0.82570000E+02  0.11212E+07
 0.82619995E+02  0.12044E+07
 0.82669998E+02  0.12298E+07
 0.82720001E+02  0.11924E+07
 0.82769997E+02  0.11244E+07
 0.82820000E+02  0.10651E+07
 0.82869995E+02  0.99958E+06
 0.82919998E+02  0.88366E+06
 0.82970001E+02  0.68093E+06
 0.83019997E+02  0.38587E+06
 0.83070000E+02  0.14953E+05
 0.83119995E+02 -0.43369E+06
 0.83169998E+02 -0.94798E+06
 0.83220001E+02 -0.14662E+07
 0.83269997E+02 -0.19274E+07
 0.83320000E+02 -0.23248E+07
 0.83369995E+02 -0.26634E+07
 0.83419998E+02 -0.29405E+07
 0.83470001E+02 -0.31553E+07
 0.83519997E+02 -0.33057E+07
 0.83570000E+02 -0.34184E+07
 0.83619995E+02 -0.35158E+07
 0.83669998E+02 -0.35866E+07
 0.83720001E+02 -0.36022E+07
 0.83769997E+02 -0.35368E+07
 0.83820000E+02 -0.33907E+07
 0.83869995E+02 -0.31769E+07
 0.83919998E+02 -0.29152E+07
 0.83970001E+02 -0.26322E+07
 0.84019997E+02 -0.23605E+07
 0.84070000E+02 -0.21225E+07
 0.84119995E+02 -0.19156E+07
 0.84169998E+02 -0.17177E+07
 0.84220001E+02 -0.14798E+07
 0.84269997E+02 -0.11670E+07
 0.84320000E+02 -0.78015E+06
 0.84369995E+02 -0.33584E+06
 0.84419998E+02  0.13925E+06
 0.84470001E+02  0.62004E+06
 0.84519997E+02  0.10821E+07
 0.84570000E+02  0.14968E+07
 0.84619995E+02  0.18335E+07
 0.84669998E+02  0.20614E+07
 0.84720001E+02  0.21542E+07
 0.84769997E+02  0.21112E+07
 0.84820000E+02  0.19739E+07
 0.84869995E+02  0.18035E+07
 0.84919998E+02  0.16528E+07
 0.84970001E+02  0.15507E+07
 0.85019997E+02  0.14965E+07
 0.85070000E+02  0.14803E+07
 0.85119995E+02  0.14811E+07
 0.85169998E+02  0.14617E+07
 0.85220001E+02  0.13874E+07
 0.85269997E+02  0.12350E+07
 0.85320000E+02  0.99946E+06
 0.85369995E+02  0.69782E+06
 0.85419998E+02  0.36673E+06
 0.85470001E+02  0.37126E+05
 0.85519997E+02 -0.25761E+06
 0.85570000E+02 -0.47599E+06
 0.85619995E+02 -0.61147E+06
 0.85669998E+02 -0.69334E+06
 0.85720001E+02 -0.75024E+06
 0.85769997E+02 -0.79412E+06
 0.85820000E+02 -0.83182E+06
 0.85869995E+02 -0.85455E+06
 0.85919998E+02 -0.85209E+06
 0.85970001E+02 -0.83162E+06
 0.86019997E+02 -0.79798E+06
 0.86070000E+02 -0.76485E+06
 0.86119995E+02 -0.75171E+06
 0.86169998E+02 -0.76877E+06
 0.86220001E+02 -0.81511E+06
 0.86269997E+02 -0.87329E+06
 0.86320000E+02 -0.92049E+06
 0.86369995E+02 -0.93664E+06
 0.86419998E+02 -0.90406E+06
 0.86470001E+02 -0.81224E+06
 0.86519997E+02 -0.65958E+06
 0.86570000E+02 -0.45340E+06
 0.86619995E+02 -0.21290E+06
 0.86669998E+02  0.40193E+05
 0.86720001E+02  0.28690E+06
 0.86769997E+02  0.50204E+06
 0.86820000E+02  0.66367E+06
 0.86869995E+02  0.76554E+06
 0.86919998E+02  0.81310E+06
 0.86970001E+02  0.82474E+06
 0.87019997E+02  0.82200E+06
 0.87070000E+02  0.81323E+06
 0.87119995E+02  0.79110E+06
 0.87169998E+02  0.73945E+06
 0.87220001E+02  0.65113E+06
 0.87269997E+02  0.53439E+06
 0.87320000E+02  0.41554E+06
 0.87369995E+02  0.32956E+06
 0.87419998E+02  0.30414E+06
 0.87470001E+02  0.36027E+06
 0.87519997E+02  0.49440E+06
 0.87570000E+02  0.69338E+06
 0.87619995E+02  0.95225E+06
 0.87669998E+02  0.12327E+07
 0.87720001E+02  0.14647E+07
 0.87769997E+02  0.15988E+07
 0.87820000E+02  0.16304E+07
 0.87869995E+02  0.15772E+07
 0.87919998E+02  0.14584E+07
 0.87970001E+02  0.12864E+07
 0.88019997E+02  0.10647E+07
 0.88070000E+02  0.81059E+06
 0.88119995E+02  0.55404E+06
 0.88169998E+02  0.32650E+06
 0.88220001E+02  0.15507E+06
 0.88269997E+02  0.42934E+05
 0.88320000E+02 -0.24079E+05
 0.88369995E+02 -0.49933E+05
 0.88419998E+02 -0.19979E+05
 0.88470001E+02  0.79721E+05
 0.88519997E+02  0.24112E+06
 0.88570000E+02  0.43935E+06
 0.88619995E+02  0.64151E+06
 0.88669998E+02  0.80942E+06
 0.88720001E+02  0.92141E+06
 0.88769997E+02  0.97522E+06
 0.88820000E+02  0.96520E+06
 0.88869995E+02  0.88615E+06
 0.88919998E+02  0.74192E+06
 0.88970001E+02  0.54581E+06
 0.89019997E+02  0.31584E+06
 0.89070000E+02  0.66394E+05
 0.89119995E+02 -0.19072E+06
 0.89169998E+02 -0.45116E+06
 0.89220001E+02 -0.70818E+06
 0.89269997E+02 -0.95494E+06
 0.89320000E+02 -0.11907E+07
 0.89369995E+02 -0.13981E+07
 0.89419998E+02 -0.15541E+07
 0.89470001E+02 -0.16504E+07
 0.89519997E+02 -0.16939E+07
 0.89570000E+02 -0.17060E+07
 0.89619995E+02 -0.17106E+07
 0.89669998E+02 -0.17214E+07
 0.89720001E+02 -0.17425E+07
 0.89769997E+02 -0.17666E+07
 0.89820000E+02 -0.17718E+07
 0.89869995E+02 -0.17308E+07
 0.89919998E+02 -0.16202E+07
 0.89970001E+02 -0.14418E+07
 0.90019997E+02 -0.12213E+07
 0.90070000E+02 -0.98120E+06
 0.90119995E+02 -0.73869E+06
 0.90169998E+02 -0.50580E+06
 0.90220001E+02 -0.28428E+06
 0.90269997E+02 -0.67844E+05
 0.90320000E+02  0.13505E+06
 0.90369995E+02  0.29276E+06
 0.90419998E+02  0.37643E+06
 0.90470001E+02  0.37158E+06
 0.90519997E+02  0.27936E+06
 0.90570000E+02  0.11846E+06
 0.90619995E+02 -0.89767E+05
 0.90669998E+02 -0.31902E+06
 0.90720001E+02 -0.53264E+06
 0.90769997E+02 -0.69351E+06
 0.90820000E+02 -0.76474E+06
 0.90869995E+02 -0.72850E+06
 0.90919998E+02 -0.59538E+06
 0.90970001E+02 -0.38354E+06
 0.91019997E+02 -0.11247E+06
 0.91070000E+02  0.18719E+06
 0.91119995E+02  0.48099E+06
 0.91169998E+02  0.74149E+06
 0.91220001E+02  0.94296E+06
 0.91269997E+02  0.10691E+07
 0.91320000E+02  0.11217E+07
 0.91369995E+02  0.11137E+07
 0.91419998E+02  0.10534E+07
 0.91470001E+02  0.94272E+06
 0.91519997E+02  0.78826E+06
 0.91570000E+02  0.59978E+06
 0.91619995E+02  0.39548E+06
 0.91669998E+02  0.20576E+06
 0.91720001E+02  0.69281E+05
 0.91769997E+02  0.66980E+04
 0.91820000E+02  0.74570E+04
 0.91869995E+02  0.52820E+05
 0.91919998E+02  0.12196E+06
 0.91970001E+02  0.19212E+06
 0.92019997E+02  0.24788E+06
 0.92070000E+02  0.27977E+06
 0.92119995E+02  0.28462E+06
 0.92169998E+02  0.26761E+06
 0.92220001E+02  0.23562E+06
 0.92269997E+02  0.20098E+06
 0.92320000E+02  0.17132E+06
 0.92369995E+02  0.13146E+06
 0.92419998E+02  0.66140E+05
 0.92470001E+02 -0.18858E+05
 0.92519997E+02 -0.11023E+06
 0.92570000E+02 -0.19548E+06
 0.92619995E+02 -0.26532E+06
 0.92669998E+02 -0.30757E+06
 0.92720001E+02 -0.29798E+06
 0.92769997E+02 -0.22502E+06
 0.92820000E+02 -0.10286E+06
 0.92869995E+02  0.38286E+05
 0.92919998E+02  0.17032E+06
 0.92970001E+02  0.28893E+06
 0.93019997E+02  0.39912E+06
 0.93070000E+02  0.49344E+06
 0.93119995E+02  0.56426E+06
 0.93169998E+02  0.62213E+06
 0.93220001E+02  0.68584E+06
 0.93269997E+02  0.76998E+06
 0.93320000E+02  0.88416E+06
 0.93369995E+02  0.10339E+07
 0.93419998E+02  0.12168E+07
 0.93470001E+02  0.14157E+07
 0.93519997E+02  0.16025E+07
 0.93570000E+02  0.17432E+07
 0.93619995E+02  0.18109E+07
 0.93669998E+02  0.17990E+07
 0.93720001E+02  0.17090E+07
 0.93769997E+02  0.15405E+07
 0.93820000E+02  0.13043E+07
 0.93869995E+02  0.10267E+07
 0.93919998E+02  0.74066E+06
 0.93970001E+02  0.47268E+06
 0.94019997E+02  0.23903E+06
 0.94070000E+02  0.50568E+05
 0.94119995E+02 -0.93298E+05
 0.94169998E+02 -0.19920E+06
 0.94220001E+02 -0.26994E+06
 0.94269997E+02 -0.30784E+06
 0.94320000E+02 -0.31727E+06
 0.94369995E+02 -0.31035E+06
 0.94419998E+02 -0.29924E+06
 0.94470001E+02 -0.28065E+06
 0.94519997E+02 -0.24560E+06
 0.94570000E+02 -0.19488E+06
 0.94619995E+02 -0.13903E+06
 0.94669998E+02 -0.97128E+05
 0.94720001E+02 -0.91902E+05
 0.94769997E+02 -0.13160E+06
 0.94820000E+02 -0.21264E+06
 0.94869995E+02 -0.32873E+06
 0.94919998E+02 -0.46234E+06
 0.94970001E+02 -0.59275E+06
 0.95019997E+02 -0.71016E+06
 0.95070000E+02 -0.81272E+06
 0.95119995E+02 -0.89774E+06
 0.95169998E+02 -0.96069E+06
 0.95220001E+02 -0.98868E+06
 0.95269997E+02 -0.95827E+06
 0.95320000E+02 -0.85724E+06
 0.95369995E+02 -0.69008E+06
 0.95419998E+02 -0.47488E+06
 0.95470001E+02 -0.24567E+06
 0.95519997E+02 -0.39336E+05
 0.95570000E+02  0.11231E+06
 0.95619995E+02  0.19120E+06
 0.95669998E+02  0.19556E+06
 0.95720001E+02  0.12955E+06
 0.95769997E+02  0.38680E+04
 0.95820000E+02 -0.15726E+06
 0.95869995E+02 -0.31823E+06
 0.95919998E+02 -0.44575E+06
 0.95970001E+02 -0.51955E+06
 0.96019997E+02 -0.53338E+06
 0.96070000E+02 -0.49197E+06
 0.96119995E+02 -0.40890E+06
 0.96169998E+02 -0.30622E+06
 0.96220001E+02 -0.21045E+06
 0.96269997E+02 -0.14922E+06
 0.96320000E+02 -0.14743E+06
 0.96369995E+02 -0.21324E+06
 0.96419998E+02 -0.33170E+06
 0.96470001E+02 -0.47599E+06
 0.96519997E+02 -0.61650E+06
 0.96570000E+02 -0.72730E+06
 0.96619995E+02 -0.78965E+06
 0.96669998E+02 -0.78818E+06
 0.96720001E+02 -0.71453E+06
 0.96769997E+02 -0.57192E+06
 0.96820000E+02 -0.37988E+06
 0.96869995E+02 -0.17367E+06
 0.96919998E+02  0.17481E+05
 0.96970001E+02  0.17675E+06
 0.97019997E+02  0.28772E+06
 0.97070000E+02  0.33467E+06
 0.97119995E+02  0.30564E+06
 0.97169998E+02  0.20015E+06
 0.97220001E+02  0.39376E+05
 0.97269997E+02 -0.13942E+06
 0.97320000E+02 -0.30000E+06
 0.97369995E+02 -0.42074E+06
 0.97419998E+02 -0.49767E+06
 0.97470001E+02 -0.53873E+06
 0.97519997E+02 -0.55327E+06
 0.97570000E+02 -0.54646E+06
 0.97619995E+02 -0.52020E+06
 0.97669998E+02 -0.47396E+06
 0.97720001E+02 -0.40284E+06
 0.97769997E+02 -0.30369E+06
 0.97820000E+02 -0.18048E+06
 0.97869995E+02 -0.36365E+05
 0.97919998E+02  0.12181E+06
 0.97970001E+02  0.27754E+06
 0.98019997E+02  0.41522E+06
 0.98070000E+02  0.52479E+06
 0.98119995E+02  0.59518E+06
 0.98169998E+02  0.62368E+06
 0.98220001E+02  0.62560E+06
 0.98269997E+02  0.61191E+06
 0.98320000E+02  0.58678E+06
 0.98369995E+02  0.55927E+06
 0.98419998E+02  0.52748E+06
 0.98470001E+02  0.47838E+06
 0.98519997E+02  0.40683E+06
 0.98570000E+02  0.32121E+06
 0.98619995E+02  0.23653E+06
 0.98669998E+02  0.16817E+06
 0.98720001E+02  0.12724E+06
 0.98769997E+02  0.12153E+06
 0.98820000E+02  0.16228E+06
 0.98869995E+02  0.25208E+06
 0.98919998E+02  0.37151E+06
 0.98970001E+02  0.49408E+06
 0.99019997E+02  0.60195E+06
 0.99070000E+02  0.68611E+06
 0.99119995E+02  0.74347E+06
 0.99169998E+02  0.77474E+06
 0.99220001E+02  0.78418E+06
 0.99269997E+02  0.77566E+06
 0.99320000E+02  0.75146E+06
 0.99369995E+02  0.71125E+06
 0.99419998E+02  0.64541E+06
 0.99470001E+02  0.54634E+06
 0.99519997E+02  0.41826E+06
 0.99570000E+02  0.26956E+06
 0.99619995E+02  0.11150E+06
 0.99669998E+02 -0.41504E+05
 0.99720001E+02 -0.17772E+06
 0.99769997E+02 -0.29361E+06
 0.99820000E+02 -0.38501E+06
 0.99869995E+02 -0.44124E+06
 0.99919998E+02 -0.45885E+06
 0.99970001E+02 -0.44658E+06
 0.10002000E+03 -0.42106E+06
 0.10007000E+03 -0.39360E+06
 0.10012000E+03 -0.36703E+06
 0.10017000E+03 -0.34981E+06
 0.10022000E+03 -0.35316E+06
 0.10027000E+03 -0.38304E+06
 0.10032000E+03 -0.43457E+06
 0.10037000E+03 -0.49687E+06
 0.10042000E+03 -0.55828E+06
 0.10047000E+03 -0.60713E+06
 0.10052000E+03 -0.64077E+06
 0.10057000E+03 -0.65264E+06
 0.10062000E+03 -0.63045E+06
 0.10067000E+03 -0.57622E+06
 0.10072000E+03 -0.50204E+06
 0.10077000E+03 -0.41504E+06
 0.10082000E+03 -0.31752E+06
 0.10087000E+03 -0.21146E+06
 0.10092000E+03 -0.95374E+05
 0.10097000E+03  0.27788E+05
 0.10102000E+03  0.14363E+06
 0.10107000E+03  0.23711E+06
 0.10112000E+03  0.29805E+06
 0.10117000E+03  0.31851E+06
 0.10122000E+03  0.29556E+06
 0.10127000E+03  0.23589E+06
 0.10132000E+03  0.15305E+06
 0.10137000E+03  0.65096E+05
 0.10142000E+03 -0.12040E+05
 0.10147000E+03 -0.70836E+05
 0.10152000E+03 -0.11024E+06
 0.10157000E+03 -0.13500E+06
 0.10162000E+03 -0.14948E+06
 0.10167000E+03 -0.15435E+06
 0.10172000E+03 -0.15036E+06
 0.10177000E+03 -0.14004E+06
 0.10182000E+03 -0.12431E+06
 0.10187000E+03 -0.99870E+05
 0.10192000E+03 -0.63193E+05
 0.10197000E+03 -0.16167E+05
 0.10202000E+03  0.32600E+05
 0.10207000E+03  0.77406E+05
 0.10212000E+03  0.11908E+06
 0.10217000E+03  0.15589E+06
 0.10222000E+03  0.18615E+06
 0.10227000E+03  0.21223E+06
 0.10232000E+03  0.23433E+06
 0.10237000E+03  0.25448E+06
 0.10242000E+03  0.27468E+06
 0.10247000E+03  0.28754E+06
 0.10252000E+03  0.28047E+06
 0.10257000E+03  0.24224E+06
 0.10262000E+03  0.16714E+06
 0.10267000E+03  0.61272E+05
 0.10272000E+03 -0.56524E+05
 0.10277000E+03 -0.16586E+06
 0.10282000E+03 -0.25513E+06
 0.10287000E+03 -0.32374E+06
 0.10292000E+03 -0.37390E+06
 0.10297000E+03 -0.40439E+06
 0.10302000E+03 -0.41153E+06
 0.10307000E+03 -0.38711E+06
 0.10312000E+03 -0.32555E+06
 0.10317000E+03 -0.22772E+06
 0.10322000E+03 -0.98843E+05
 0.10327000E+03  0.49368E+05
 0.10332000E+03  0.20176E+06
 0.10337000E+03  0.34262E+06
 0.10342000E+03  0.45792E+06
 0.10347000E+03  0.53841E+06
 0.10352000E+03  0.58302E+06
 0.10357000E+03  0.59786E+06
 0.10362000E+03  0.58839E+06
 0.10367000E+03  0.55920E+06
 0.10372000E+03  0.51584E+06
 0.10377000E+03  0.46294E+06
 0.10382000E+03  0.40584E+06
 0.10387000E+03  0.34874E+06
 0.10392000E+03  0.29730E+06
 0.10397000E+03  0.25974E+06
 0.10402000E+03  0.24018E+06
 0.10407000E+03  0.23810E+06
 0.10412000E+03  0.25167E+06
 0.10417000E+03  0.28009E+06
 0.10422000E+03  0.31501E+06
 0.10427000E+03  0.33601E+06
 0.10432000E+03  0.31998E+06
 0.10437000E+03  0.25219E+06
 0.10442000E+03  0.13473E+06
 0.10447000E+03 -0.12017E+05
 0.10452000E+03 -0.16012E+06
 0.10457000E+03 -0.29128E+06
 0.10462000E+03 -0.39686E+06
 0.10467000E+03 -0.47570E+06
 0.10472000E+03 -0.53751E+06
 0.10477000E+03 -0.59716E+06
 0.10482000E+03 -0.66311E+06
 0.10487000E+03 -0.73147E+06
 0.10492000E+03 -0.79544E+06
 0.10497000E+03 -0.85041E+06
 0.10502000E+03 -0.89410E+06
 0.10507000E+03 -0.92791E+06
 0.10512000E+03 -0.95198E+06
 0.10517000E+03 -0.96560E+06
 0.10522000E+03 -0.96974E+06
 0.10527000E+03 -0.96456E+06
 0.10532000E+03 -0.95076E+06
 0.10537000E+03 -0.92735E+06
 0.10542000E+03 -0.88945E+06
 0.10547000E+03 -0.83253E+06
 0.10552000E+03 -0.75126E+06
 0.10557000E+03 -0.64041E+06
 0.10562000E+03 -0.49840E+06
 0.10567000E+03 -0.32911E+06
 0.10572000E+03 -0.14289E+06
 0.10577000E+03  0.47983E+05
 0.10582000E+03  0.23598E+06
 0.10587000E+03  0.42020E+06
 0.10592000E+03  0.59989E+06
 0.10597000E+03  0.77315E+06
 0.10602000E+03  0.94150E+06
 0.10607000E+03  0.11036E+07
 0.10612000E+03  0.12522E+07
 0.10617000E+03  0.13835E+07
 0.10622000E+03  0.14958E+07
 0.10627000E+03  0.15856E+07
 0.10632000E+03  0.16489E+07
 0.10637000E+03  0.16796E+07
 0.10642000E+03  0.16692E+07
 0.10647000E+03  0.16104E+07
 0.10652000E+03  0.15034E+07
 0.10657000E+03  0.13551E+07
 0.10662000E+03  0.11747E+07
 0.10667000E+03  0.97430E+06
 0.10672000E+03  0.76756E+06
 0.10677000E+03  0.56234E+06
 0.10682000E+03  0.36138E+06
 0.10687000E+03  0.16400E+06
 0.10692000E+03 -0.32396E+05
 0.10697000E+03 -0.22397E+06
 0.10702000E+03 -0.39811E+06
 0.10707000E+03 -0.54168E+06
 0.10712000E+03 -0.64914E+06
 0.10717000E+03 -0.71998E+06
 0.10722000E+03 -0.75305E+06
 0.10727000E+03 -0.75258E+06
 0.10732000E+03 -0.73154E+06
 0.10737000E+03 -0.70655E+06
 0.10742000E+03 -0.68747E+06
 0.10747000E+03 -0.67305E+06
 0.10752000E+03 -0.66215E+06
 0.10757000E+03 -0.65660E+06
 0.10762000E+03 -0.65635E+06
 0.10767000E+03 -0.66009E+06
 0.10772000E+03 -0.66779E+06
 0.10777000E+03 -0.67854E+06
 0.10782000E+03 -0.68702E+06
 0.10787000E+03 -0.68409E+06
 0.10792000E+03 -0.65684E+06
 0.10797000E+03 -0.59511E+06
 0.10802000E+03 -0.49647E+06
 0.10807000E+03 -0.36615E+06
 0.10812000E+03 -0.21598E+06
 0.10817000E+03 -0.58764E+05
 0.10822000E+03  0.91492E+05
 0.10827000E+03  0.22182E+06
 0.10832000E+03  0.31961E+06
 0.10837000E+03  0.36903E+06
 0.10842000E+03  0.36178E+06
 0.10847000E+03  0.30140E+06
 0.10852000E+03  0.19525E+06
 0.10857000E+03  0.55842E+05
 0.10862000E+03 -0.10036E+06
 0.10867000E+03 -0.26029E+06
 0.10872000E+03 -0.41025E+06
 0.10877000E+03 -0.53436E+06
 0.10882000E+03 -0.62107E+06
 0.10887000E+03 -0.67211E+06
 0.10892000E+03 -0.69442E+06
 0.10897000E+03 -0.68688E+06
 0.10902000E+03 -0.65168E+06
 0.10907000E+03 -0.59846E+06
 0.10912000E+03 -0.53851E+06
 0.10917000E+03 -0.48099E+06
 0.10922000E+03 -0.42568E+06
 0.10927000E+03 -0.36637E+06
 0.10932000E+03 -0.29838E+06
 0.10937000E+03 -0.22035E+06
 0.10942000E+03 -0.13238E+06
 0.10947000E+03 -0.36463E+05
 0.10952000E+03  0.63968E+05
 0.10957000E+03  0.16847E+06
 0.10962000E+03  0.27500E+06
 0.10967000E+03  0.37933E+06
 0.10972000E+03  0.48159E+06
 0.10977000E+03  0.58287E+06
 0.10982000E+03  0.68156E+06
 0.10987000E+03  0.77674E+06
 0.10992000E+03  0.86680E+06
 0.10997000E+03  0.94420E+06
 0.11002000E+03  0.99936E+06
 0.11007000E+03  0.10278E+07
 0.11012000E+03  0.10298E+07
 0.11017000E+03  0.10024E+07
 0.11022000E+03  0.93562E+06
 0.11027000E+03  0.82326E+06
 0.11032000E+03  0.67265E+06
 0.11037000E+03  0.49896E+06
 0.11042000E+03  0.31180E+06
 0.11047000E+03  0.11636E+06
 0.11052000E+03 -0.77674E+05
 0.11057000E+03 -0.25769E+06
 0.11062000E+03 -0.41189E+06
 0.11067000E+03 -0.52978E+06
 0.11072000E+03 -0.60761E+06
 0.11077000E+03 -0.65002E+06
 0.11082000E+03 -0.66422E+06
 0.11087000E+03 -0.65942E+06
 0.11092000E+03 -0.64525E+06
 0.11097000E+03 -0.63121E+06
 0.11102000E+03 -0.62249E+06
 0.11107000E+03 -0.61379E+06
 0.11112000E+03 -0.59839E+06
 0.11117000E+03 -0.57177E+06
 0.11122000E+03 -0.52736E+06
 0.11127000E+03 -0.45921E+06
 0.11132000E+03 -0.36528E+06
 0.11137000E+03 -0.24994E+06
 0.11142000E+03 -0.12267E+06
 0.11147000E+03  0.72550E+04
 0.11152000E+03  0.13366E+06
 0.11157000E+03  0.25412E+06
 0.11162000E+03  0.36778E+06
 0.11167000E+03  0.47065E+06
 0.11172000E+03  0.55410E+06
 0.11177000E+03  0.60746E+06
 0.11182000E+03  0.62324E+06
 0.11187000E+03  0.60004E+06
 0.11192000E+03  0.53954E+06
 0.11197000E+03  0.44582E+06
 0.11202000E+03  0.32430E+06
 0.11207000E+03  0.18170E+06
 0.11212000E+03  0.30641E+05
 0.11217000E+03 -0.11415E+06
 0.11222000E+03 -0.23986E+06
 0.11227000E+03 -0.34045E+06
 0.11232000E+03 -0.42083E+06
 0.11237000E+03 -0.48840E+06
 0.11242000E+03 -0.54924E+06
 0.11247000E+03 -0.60861E+06
 0.11252000E+03 -0.66824E+06
 0.11257000E+03 -0.73004E+06
 0.11262000E+03 -0.79208E+06
 0.11267000E+03 -0.84408E+06
 0.11272000E+03 -0.87516E+06
 0.11277000E+03 -0.87741E+06
 0.11282000E+03 -0.84790E+06
 0.11287000E+03 -0.78794E+06
 0.11292000E+03 -0.70067E+06
 0.11297000E+03 -0.59349E+06
 0.11302000E+03 -0.47530E+06
 0.11307000E+03 -0.35519E+06
 0.11312000E+03 -0.24314E+06
 0.11317000E+03 -0.14514E+06
 0.11322000E+03 -0.62843E+05
 0.11327000E+03  0.67820E+04
 0.11332000E+03  0.69659E+05
 0.11337000E+03  0.12856E+06
 0.11342000E+03  0.18646E+06
 0.11347000E+03  0.24423E+06
 0.11352000E+03  0.29676E+06
 0.11357000E+03  0.33722E+06
 0.11362000E+03  0.35728E+06
 0.11367000E+03  0.35225E+06
 0.11372000E+03  0.32604E+06
 0.11377000E+03  0.28546E+06
 0.11382000E+03  0.23641E+06
 0.11387000E+03  0.18387E+06
 0.11392000E+03  0.13123E+06
 0.11397000E+03  0.81363E+05
 0.11402000E+03  0.37660E+05
 0.11407000E+03  0.28300E+04
 0.11412000E+03 -0.20639E+05
 0.11417000E+03 -0.27266E+05
 0.11422000E+03 -0.12974E+05
 0.11427000E+03  0.17820E+05
 0.11432000E+03  0.56313E+05
 0.11437000E+03  0.94647E+05
 0.11442000E+03  0.12981E+06
 0.11447000E+03  0.16300E+06
 0.11452000E+03  0.19153E+06
 0.11457000E+03  0.21217E+06
 0.11462000E+03  0.22714E+06
 0.11467000E+03  0.24108E+06
 0.11472000E+03  0.25623E+06
 0.11477000E+03  0.26997E+06
 0.11482000E+03  0.28017E+06
 0.11487000E+03  0.28820E+06
 0.11492000E+03  0.29664E+06
 0.11497000E+03  0.30695E+06
 0.11502000E+03  0.31980E+06
 0.11507000E+03  0.33524E+06
 0.11512000E+03  0.34871E+06
 0.11517000E+03  0.35530E+06
 0.11522000E+03  0.35178E+06
 0.11527000E+03  0.33620E+06
 0.11532000E+03  0.31163E+06
 0.11537000E+03  0.28146E+06
 0.11542000E+03  0.24650E+06
 0.11547000E+03  0.20528E+06
 0.11552000E+03  0.15756E+06
 0.11557000E+03  0.10644E+06
 0.11562000E+03  0.56304E+05
 0.11567000E+03  0.14857E+05
 0.11572000E+03 -0.12264E+05
 0.11577000E+03 -0.22592E+05
 0.11582000E+03 -0.13997E+05
 0.11587000E+03  0.10240E+05
 0.11592000E+03  0.41830E+05
 0.11597000E+03  0.69627E+05
 0.11602000E+03  0.86025E+05
 0.11607000E+03  0.90364E+05
 0.11612000E+03  0.84288E+05
 0.11617000E+03  0.74961E+05
 0.11622000E+03  0.71971E+05
 0.11627000E+03  0.78596E+05
 0.11632000E+03  0.94764E+05
 0.11637000E+03  0.12030E+06
 0.11642000E+03  0.15527E+06
 0.11647000E+03  0.20052E+06
 0.11652000E+03  0.25509E+06
 0.11657000E+03  0.31221E+06
 0.11662000E+03  0.35834E+06
 0.11667000E+03  0.38307E+06
 0.11672000E+03  0.38377E+06
 0.11677000E+03  0.35874E+06
 0.11682000E+03  0.31005E+06
 0.11687000E+03  0.24727E+06
 0.11692000E+03  0.18337E+06
 0.11697000E+03  0.12951E+06
 0.11702000E+03  0.90205E+05
 0.11707000E+03  0.63546E+05
 0.11712000E+03  0.45567E+05
 0.11717000E+03  0.33581E+05
 0.11722000E+03  0.26308E+05
 0.11727000E+03  0.22584E+05
 0.11732000E+03  0.22592E+05
 0.11737000E+03  0.27072E+05
 0.11742000E+03  0.37526E+05
 0.11747000E+03  0.56670E+05
 0.11752000E+03  0.82751E+05
 0.11757000E+03  0.11071E+06
 0.11762000E+03  0.13610E+06
 0.11767000E+03  0.15211E+06
 0.11772000E+03  0.15207E+06
 0.11777000E+03  0.13400E+06
 0.11782000E+03  0.10044E+06
 0.11787000E+03  0.56994E+05
 0.11792000E+03  0.10964E+05
 0.11797000E+03 -0.31404E+05
 0.11802000E+03 -0.67684E+05
 0.11807000E+03 -0.93445E+05
 0.11812000E+03 -0.10048E+06
 0.11817000E+03 -0.84384E+05
 0.11822000E+03 -0.43947E+05
 0.11827000E+03  0.21858E+05
 0.11832000E+03  0.10974E+06
 0.11837000E+03  0.20926E+06
 0.11842000E+03  0.30726E+06
 0.11847000E+03  0.39270E+06
 0.11852000E+03  0.45721E+06
 0.11857000E+03  0.49503E+06
 0.11862000E+03  0.50197E+06
 0.11867000E+03  0.47656E+06
 0.11872000E+03  0.42396E+06
 0.11877000E+03  0.35423E+06
 0.11882000E+03  0.27740E+06
 0.11887000E+03  0.20292E+06
 0.11892000E+03  0.13776E+06
 0.11897000E+03  0.83522E+05
 0.11902000E+03  0.36137E+05
 0.11907000E+03 -0.12412E+05
 0.11912000E+03 -0.67950E+05
 0.11917000E+03 -0.12899E+06
 0.11922000E+03 -0.18934E+06
 0.11927000E+03 -0.24206E+06
 0.11932000E+03 -0.27914E+06
 0.11937000E+03 -0.29386E+06
 0.11942000E+03 -0.28438E+06
 0.11947000E+03 -0.25235E+06
 0.11952000E+03 -0.20197E+06
 0.11957000E+03 -0.14307E+06
 0.11962000E+03 -0.88730E+05
 0.11967000E+03 -0.46541E+05
 0.11972000E+03 -0.16388E+05
 0.11977000E+03  0.66720E+04
 0.11982000E+03  0.28505E+05
 0.11987000E+03  0.53008E+05
 0.11992000E+03  0.82854E+05
 0.11997000E+03  0.11989E+06
 0.12002000E+03  0.16508E+06
 0.12007000E+03  0.21867E+06
 0.12012000E+03  0.27715E+06
 0.12017000E+03  0.33490E+06
 0.12022000E+03  0.38960E+06
 0.12027000E+03  0.43757E+06
 0.12032000E+03  0.47470E+06
 0.12037000E+03  0.49987E+06
 0.12042000E+03  0.51168E+06
 0.12047000E+03  0.50999E+06
 0.12052000E+03  0.49699E+06
 0.12057000E+03  0.47790E+06
 0.12062000E+03  0.46118E+06
 0.12067000E+03  0.45713E+06
 0.12072000E+03  0.47167E+06
 0.12077000E+03  0.50166E+06
 0.12082000E+03  0.54116E+06
 0.12087000E+03  0.58526E+06
 0.12092000E+03  0.62853E+06
 0.12097000E+03  0.66476E+06
 0.12102000E+03  0.68619E+06
 0.12107000E+03  0.68601E+06
 0.12112000E+03  0.66084E+06
 0.12117000E+03  0.61179E+06
 0.12122000E+03  0.54448E+06
 0.12127000E+03  0.46353E+06
 0.12132000E+03  0.37127E+06
 0.12137000E+03  0.26991E+06
 0.12142000E+03  0.16436E+06
 0.12147000E+03  0.63044E+05
 0.12152000E+03 -0.26452E+05
 0.12157000E+03 -0.99539E+05
 0.12162000E+03 -0.15466E+06
 0.12167000E+03 -0.19265E+06
 0.12172000E+03 -0.21527E+06
 0.12177000E+03 -0.22749E+06
 0.12182000E+03 -0.23726E+06
 0.12187000E+03 -0.25239E+06
 0.12192000E+03 -0.27970E+06
 0.12197000E+03 -0.32244E+06
 0.12202000E+03 -0.37885E+06
 0.12207000E+03 -0.44460E+06
 0.12212000E+03 -0.51446E+06
 0.12217000E+03 -0.57992E+06
 0.12222000E+03 -0.63128E+06
 0.12227000E+03 -0.66031E+06
 0.12232000E+03 -0.66135E+06
 0.12237000E+03 -0.63623E+06
 0.12242000E+03 -0.59100E+06
 0.12247000E+03 -0.53252E+06
 0.12252000E+03 -0.46955E+06
 0.12257000E+03 -0.40930E+06
 0.12262000E+03 -0.35789E+06
 0.12267000E+03 -0.31910E+06
 0.12272000E+03 -0.29112E+06
 0.12277000E+03 -0.26821E+06
 0.12282000E+03 -0.24429E+06
 0.12287000E+03 -0.21694E+06
 0.12292000E+03 -0.18608E+06
 0.12297000E+03 -0.15354E+06
 0.12302000E+03 -0.12399E+06
 0.12307000E+03 -0.10220E+06
 0.12312000E+03 -0.93451E+05
 0.12317000E+03 -0.10060E+06
 0.12322000E+03 -0.11852E+06
 0.12327000E+03 -0.13753E+06
 0.12332000E+03 -0.14886E+06
 0.12337000E+03 -0.14663E+06
 0.12342000E+03 -0.12855E+06
 0.12347000E+03 -0.96965E+05
 0.12352000E+03 -0.57145E+05
 0.12357000E+03 -0.13389E+05
 0.12362000E+03  0.31369E+05
 0.12367000E+03  0.75336E+05
 0.12372000E+03  0.11590E+06
 0.12377000E+03  0.14809E+06
 0.12382000E+03  0.16657E+06
 0.12387000E+03  0.16819E+06
 0.12392000E+03  0.15431E+06
 0.12397000E+03  0.12918E+06
 0.12402000E+03  0.96490E+05
 0.12407000E+03  0.58011E+05
 0.12412000E+03  0.15299E+05
 0.12417000E+03 -0.29145E+05
 0.12422000E+03 -0.74742E+05
 0.12427000E+03 -0.12233E+06
 0.12432000E+03 -0.17222E+06
 0.12437000E+03 -0.22407E+06
 0.12442000E+03 -0.27698E+06
 0.12447000E+03 -0.33020E+06
 0.12452000E+03 -0.38282E+06
 0.12457000E+03 -0.43129E+06
 0.12462000E+03 -0.46953E+06
 0.12467000E+03 -0.49464E+06
 0.12472000E+03 -0.50849E+06
 0.12477000E+03 -0.51481E+06
 0.12482000E+03 -0.51542E+06
 0.12487000E+03 -0.50940E+06
 0.12492000E+03 -0.49636E+06
 0.12497000E+03 -0.47582E+06
 0.12502000E+03 -0.44624E+06
 0.12507000E+03 -0.40836E+06
 0.12512000E+03 -0.36514E+06
 0.12517001E+03 -0.31781E+06
 0.12521999E+03 -0.26720E+06
 0.12527000E+03 -0.21376E+06
 0.12532000E+03 -0.16039E+06
 0.12537000E+03 -0.11378E+06
 0.12542001E+03 -0.78234E+05
 0.12546999E+03 -0.56905E+05
 0.12552000E+03 -0.50614E+05
 0.12557000E+03 -0.58848E+05
 0.12562000E+03 -0.83455E+05
 0.12567001E+03 -0.12589E+06
 0.12571999E+03 -0.18773E+06
 0.12577000E+03 -0.26898E+06
 0.12582000E+03 -0.36537E+06
 0.12587000E+03 -0.46895E+06
 0.12592001E+03 -0.56903E+06
 0.12596999E+03 -0.65620E+06
 0.12602000E+03 -0.72453E+06
 0.12607000E+03 -0.77050E+06
 0.12612000E+03 -0.79285E+06
 0.12617001E+03 -0.79266E+06
 0.12621999E+03 -0.77401E+06
 0.12627000E+03 -0.74224E+06
 0.12632000E+03 -0.70423E+06
 0.12637000E+03 -0.66964E+06
 0.12642001E+03 -0.64607E+06
 0.12646999E+03 -0.63535E+06
 0.12652000E+03 -0.63335E+06
 0.12657000E+03 -0.63366E+06
 0.12662000E+03 -0.63108E+06
 0.12667001E+03 -0.62184E+06
 0.12671999E+03 -0.60435E+06
 0.12677000E+03 -0.57613E+06
 0.12682000E+03 -0.53331E+06
 0.12687000E+03 -0.47599E+06
 0.12692001E+03 -0.40803E+06
 0.12696999E+03 -0.33528E+06
 0.12702000E+03 -0.26630E+06
 0.12707000E+03 -0.21102E+06
 0.12712000E+03 -0.17866E+06
 0.12717001E+03 -0.17373E+06
 0.12721999E+03 -0.19225E+06
 0.12727000E+03 -0.22365E+06
 0.12732000E+03 -0.25770E+06
 0.12737000E+03 -0.28728E+06
 0.12742001E+03 -0.30671E+06
 0.12746999E+03 -0.31260E+06
 0.12752000E+03 -0.30442E+06
 0.12757000E+03 -0.28486E+06
 0.12762000E+03 -0.25780E+06
 0.12767001E+03 -0.22634E+06
 0.12771999E+03 -0.19367E+06
 0.12777000E+03 -0.16376E+06
 0.12782000E+03 -0.14019E+06
 0.12787000E+03 -0.12420E+06
 0.12792001E+03 -0.11538E+06
 0.12796999E+03 -0.11201E+06
 0.12802000E+03 -0.11092E+06
 0.12807001E+03 -0.10962E+06
 0.12812001E+03 -0.10713E+06
 0.12817001E+03 -0.10239E+06
 0.12822000E+03 -0.93073E+05
 0.12827000E+03 -0.76903E+05
 0.12832001E+03 -0.51815E+05
 0.12837001E+03 -0.16818E+05
 0.12842001E+03  0.26959E+05
 0.12847000E+03  0.76899E+05
 0.12852000E+03  0.12947E+06
 0.12857001E+03  0.18137E+06
 0.12862001E+03  0.22916E+06
 0.12867001E+03  0.27233E+06
 0.12872000E+03  0.31478E+06
 0.12877000E+03  0.36185E+06
 0.12882001E+03  0.41830E+06
 0.12887001E+03  0.48538E+06
 0.12892001E+03  0.55995E+06
 0.12897000E+03  0.63575E+06
 0.12902000E+03  0.70801E+06
 0.12907001E+03  0.77438E+06
 0.12912001E+03  0.83057E+06
 0.12917001E+03  0.87122E+06
 0.12922000E+03  0.89082E+06
 0.12927000E+03  0.88593E+06
 0.12932001E+03  0.85733E+06
 0.12937001E+03  0.80927E+06
 0.12942001E+03  0.74813E+06
 0.12947000E+03  0.67922E+06
 0.12952000E+03  0.60524E+06
 0.12957001E+03  0.52761E+06
 0.12962001E+03  0.44769E+06
 0.12967001E+03  0.36624E+06
 0.12972000E+03  0.28671E+06
 0.12977000E+03  0.21582E+06
 0.12982001E+03  0.16008E+06
 0.12987001E+03  0.12578E+06
 0.12992001E+03  0.11691E+06
 0.12997000E+03  0.13410E+06
 0.13002000E+03  0.17438E+06
 0.13007001E+03  0.23058E+06
 0.13012001E+03  0.29375E+06
 0.13017001E+03  0.35514E+06
 0.13022000E+03  0.40639E+06
 0.13027000E+03  0.44178E+06
 0.13032001E+03  0.45821E+06
 0.13037001E+03  0.45459E+06
 0.13042001E+03  0.43469E+06
 0.13047000E+03  0.40491E+06
 0.13052000E+03  0.37284E+06
 0.13057001E+03  0.34607E+06
 0.13062001E+03  0.32946E+06
 0.13067001E+03  0.32544E+06
 0.13072000E+03  0.33294E+06
 0.13077000E+03  0.34802E+06
 0.13082001E+03  0.36524E+06
 0.13087001E+03  0.37830E+06
 0.13092001E+03  0.38150E+06
 0.13097000E+03  0.37275E+06
 0.13102000E+03  0.35280E+06
 0.13107001E+03  0.32198E+06
 0.13112001E+03  0.28180E+06
 0.13117001E+03  0.23548E+06
 0.13122000E+03  0.18708E+06
 0.13127000E+03  0.13831E+06
 0.13132001E+03  0.87212E+05
 0.13137001E+03  0.32519E+05
 0.13142001E+03 -0.24744E+05
 0.13147000E+03 -0.82117E+05
 0.13152000E+03 -0.13662E+06
 0.13157001E+03 -0.18276E+06
 0.13162001E+03 -0.21319E+06
 0.13167001E+03 -0.22150E+06
 0.13172000E+03 -0.20476E+06
 0.13177000E+03 -0.16616E+06
 0.13182001E+03 -0.11362E+06
 0.13187001E+03 -0.56787E+05
 0.13192001E+03 -0.33380E+04
 0.13197000E+03  0.41915E+05
 0.13202000E+03  0.75533E+05
 0.13207001E+03  0.94881E+05
 0.13212001E+03  0.10096E+06
 0.13217001E+03  0.97241E+05
 0.13222000E+03  0.86463E+05
 0.13227000E+03  0.72766E+05
 0.13232001E+03  0.58201E+05
 0.13237001E+03  0.42837E+05
 0.13242001E+03  0.27360E+05
 0.13247000E+03  0.12481E+05
 0.13252000E+03  0.52500E+03
 0.13257001E+03 -0.74060E+04
 0.13262001E+03 -0.11594E+05
 0.13267001E+03 -0.12762E+05
 0.13272000E+03 -0.10718E+05
 0.13277000E+03 -0.51160E+04
 0.13282001E+03  0.24240E+04
 0.13287001E+03  0.11778E+05
 0.13292001E+03  0.22574E+05
 0.13297000E+03  0.33831E+05
 0.13302000E+03  0.45989E+05
 0.13307001E+03  0.57543E+05
 0.13312001E+03  0.64265E+05
 0.13317001E+03  0.63831E+05
 0.13322000E+03  0.56749E+05
 0.13327000E+03  0.43198E+05
 0.13332001E+03  0.21854E+05
 0.13337001E+03 -0.94760E+04
 0.13342001E+03 -0.50619E+05
 0.13347000E+03 -0.95579E+05
 0.13352000E+03 -0.13654E+06
 0.13357001E+03 -0.16696E+06
 0.13362001E+03 -0.17982E+06
 0.13367001E+03 -0.17264E+06
 0.13372000E+03 -0.14685E+06
 0.13377000E+03 -0.10647E+06
 0.13382001E+03 -0.59109E+05
 0.13387001E+03 -0.11599E+05
 0.13392001E+03  0.29198E+05
 0.13397000E+03  0.57693E+05
 0.13402000E+03  0.70725E+05
 0.13407001E+03  0.66531E+05
 0.13412001E+03  0.46428E+05
 0.13417001E+03  0.14985E+05
 0.13422000E+03 -0.21775E+05
 0.13427000E+03 -0.59117E+05
 0.13432001E+03 -0.94892E+05
 0.13437001E+03 -0.12854E+06
 0.13442001E+03 -0.15905E+06
 0.13447000E+03 -0.18592E+06
 0.13452000E+03 -0.20897E+06
 0.13457001E+03 -0.22839E+06
 0.13462001E+03 -0.24500E+06
 0.13467001E+03 -0.25766E+06
 0.13472000E+03 -0.26420E+06
 0.13477000E+03 -0.26203E+06
 0.13482001E+03 -0.24864E+06
 0.13487001E+03 -0.22183E+06
 0.13492001E+03 -0.18070E+06
 0.13497000E+03 -0.12635E+06
 0.13502000E+03 -0.62307E+05
 0.13507001E+03  0.45070E+04
 0.13512001E+03  0.66863E+05
 0.13517001E+03  0.11828E+06
 0.13522000E+03  0.15310E+06
 0.13527000E+03  0.16961E+06
 0.13532001E+03  0.17042E+06
 0.13537001E+03  0.16117E+06
 0.13542001E+03  0.14800E+06
 0.13547000E+03  0.13585E+06
 0.13552000E+03  0.12883E+06
 0.13557001E+03  0.12940E+06
 0.13562001E+03  0.13937E+06
 0.13567001E+03  0.16034E+06
 0.13572000E+03  0.19410E+06
 0.13577000E+03  0.24229E+06
 0.13582001E+03  0.30310E+06
 0.13587001E+03  0.37077E+06
 0.13592001E+03  0.43770E+06
 0.13597000E+03  0.49698E+06
 0.13602000E+03  0.54331E+06
 0.13607001E+03  0.57448E+06
 0.13612001E+03  0.58891E+06
 0.13617001E+03  0.58491E+06
 0.13622000E+03  0.56369E+06
 0.13627000E+03  0.52698E+06
 0.13632001E+03  0.47835E+06
 0.13637001E+03  0.42176E+06
 0.13642001E+03  0.36030E+06
 0.13647000E+03  0.29802E+06
 0.13652000E+03  0.23585E+06
 0.13657001E+03  0.17306E+06
 0.13662001E+03  0.10972E+06
 0.13667001E+03  0.47550E+05
 0.13672000E+03 -0.11638E+05
 0.13677000E+03 -0.67523E+05
 0.13682001E+03 -0.12034E+06
 0.13687001E+03 -0.17181E+06
 0.13692001E+03 -0.22444E+06
 0.13697000E+03 -0.27903E+06
 0.13702000E+03 -0.33340E+06
 0.13707001E+03 -0.38528E+06
 0.13712001E+03 -0.43313E+06
 0.13717001E+03 -0.47561E+06
 0.13722000E+03 -0.51139E+06
 0.13727000E+03 -0.54057E+06
 0.13732001E+03 -0.56422E+06
 0.13737001E+03 -0.58181E+06
 0.13742001E+03 -0.59302E+06
 0.13747000E+03 -0.59523E+06
 0.13752000E+03 -0.58482E+06
 0.13757001E+03 -0.55958E+06
 0.13762001E+03 -0.51839E+06
 0.13767001E+03 -0.46314E+06
 0.13772000E+03 -0.39633E+06
 0.13777000E+03 -0.32208E+06
 0.13782001E+03 -0.24640E+06
 0.13787001E+03 -0.17512E+06
 0.13792001E+03 -0.11357E+06
 0.13797000E+03 -0.63972E+05
 0.13802000E+03 -0.25477E+05
 0.13807001E+03  0.48550E+04
 0.13812001E+03  0.30627E+05
 0.13817001E+03  0.54428E+05
 0.13822000E+03  0.77657E+05
 0.13827000E+03  0.10065E+06
 0.13832001E+03  0.12123E+06
 0.13837001E+03  0.13479E+06
 0.13842001E+03  0.13890E+06
 0.13847000E+03  0.13352E+06
 0.13852000E+03  0.11932E+06
 0.13857001E+03  0.98204E+05
 0.13862001E+03  0.72637E+05
 0.13867001E+03  0.46523E+05
 0.13872000E+03  0.24213E+05
 0.13877000E+03  0.77490E+04
 0.13882001E+03 -0.24350E+04
 0.13887001E+03 -0.50130E+04
 0.13892001E+03  0.18480E+04
 0.13897000E+03  0.19990E+05
 0.13902000E+03  0.51644E+05
 0.13907001E+03  0.98087E+05
 0.13912001E+03  0.15852E+06
 0.13917001E+03  0.22897E+06
 0.13922000E+03  0.30255E+06
 0.13927000E+03  0.37255E+06
 0.13932001E+03  0.43420E+06
 0.13937001E+03  0.48373E+06
 0.13942001E+03  0.51824E+06
 0.13947000E+03  0.53631E+06
 0.13952000E+03  0.53888E+06
 0.13957001E+03  0.52809E+06
 0.13962001E+03  0.50701E+06
 0.13967001E+03  0.47797E+06
 0.13972000E+03  0.44162E+06
 0.13977000E+03  0.39890E+06
 0.13982001E+03  0.34899E+06
 0.13987001E+03  0.29117E+06
 0.13992001E+03  0.22575E+06
 0.13997000E+03  0.15295E+06
 0.14002000E+03  0.75106E+05
 0.14007001E+03 -0.32950E+04
 0.14012001E+03 -0.77241E+05
 0.14017001E+03 -0.14303E+06
 0.14022000E+03 -0.20039E+06
 0.14027000E+03 -0.25035E+06
 0.14032001E+03 -0.29337E+06
 0.14037001E+03 -0.33079E+06
 0.14042001E+03 -0.36203E+06
 0.14047000E+03 -0.38480E+06
 0.14052000E+03 -0.39844E+06
 0.14057001E+03 -0.40448E+06
 0.14062001E+03 -0.40567E+06
 0.14067001E+03 -0.40363E+06
 0.14072000E+03 -0.39954E+06
 0.14077000E+03 -0.39543E+06
 0.14082001E+03 -0.39315E+06
 0.14087001E+03 -0.39382E+06
 0.14092001E+03 -0.39840E+06
 0.14097000E+03 -0.40746E+06
 0.14102000E+03 -0.42160E+06
 0.14107001E+03 -0.44108E+06
 0.14112001E+03 -0.46498E+06
 0.14117001E+03 -0.49156E+06
 0.14122000E+03 -0.51712E+06
 0.14127000E+03 -0.53667E+06
 0.14132001E+03 -0.54620E+06
 0.14137001E+03 -0.54274E+06
 0.14142001E+03 -0.52644E+06
 0.14147000E+03 -0.50057E+06
 0.14152000E+03 -0.46790E+06
 0.14157001E+03 -0.42853E+06
 0.14162001E+03 -0.38082E+06
 0.14167001E+03 -0.32604E+06
 0.14172000E+03 -0.26716E+06
 0.14177000E+03 -0.20704E+06
 0.14182001E+03 -0.14803E+06
 0.14187001E+03 -0.89457E+05
 0.14192001E+03 -0.29355E+05
 0.14197000E+03  0.33576E+05
 0.14202000E+03  0.97497E+05
 0.14207001E+03  0.15745E+06
 0.14212001E+03  0.20953E+06
 0.14217001E+03  0.25221E+06
 0.14222000E+03  0.28373E+06
 0.14227000E+03  0.30180E+06
 0.14232001E+03  0.30537E+06
 0.14237001E+03  0.29449E+06
 0.14242001E+03  0.26978E+06
 0.14247000E+03  0.23308E+06
 0.14252000E+03  0.18869E+06
 0.14257001E+03  0.14100E+06
 0.14262001E+03  0.91779E+05
 0.14267001E+03  0.40589E+05
 0.14272000E+03 -0.12519E+05
 0.14277000E+03 -0.65500E+05
 0.14282001E+03 -0.11769E+06
 0.14287001E+03 -0.16964E+06
 0.14292001E+03 -0.21746E+06
 0.14297000E+03 -0.25422E+06
 0.14302000E+03 -0.27558E+06
 0.14307001E+03 -0.28109E+06
 0.14312001E+03 -0.27350E+06
 0.14317001E+03 -0.25675E+06
 0.14322000E+03 -0.23361E+06
 0.14327000E+03 -0.20480E+06
 0.14332001E+03 -0.16939E+06
 0.14337001E+03 -0.12620E+06
 0.14342001E+03 -0.75895E+05
 0.14347000E+03 -0.20300E+05
 0.14352000E+03  0.38196E+05
 0.14357001E+03  0.97174E+05
 0.14362001E+03  0.15591E+06
 0.14367001E+03  0.21280E+06
 0.14372000E+03  0.26496E+06
 0.14377000E+03  0.31059E+06
 0.14382001E+03  0.34878E+06
 0.14387001E+03  0.37990E+06
 0.14392001E+03  0.40566E+06
 0.14397000E+03  0.42925E+06
 0.14402000E+03  0.45567E+06
 0.14407001E+03  0.48865E+06
 0.14412001E+03  0.52968E+06
 0.14417001E+03  0.57828E+06
 0.14422000E+03  0.63161E+06
 0.14427000E+03  0.68592E+06
 0.14432001E+03  0.73761E+06
 0.14437001E+03  0.78384E+06
 0.14442001E+03  0.82209E+06
 0.14447000E+03  0.85082E+06
 0.14452000E+03  0.86881E+06
 0.14457001E+03  0.87525E+06
 0.14462001E+03  0.87087E+06
 0.14467001E+03  0.85592E+06
 0.14472000E+03  0.82968E+06
 0.14477000E+03  0.79115E+06
 0.14482001E+03  0.74100E+06
 0.14487001E+03  0.68210E+06
 0.14492001E+03  0.61650E+06
 0.14497000E+03  0.54501E+06
 0.14502000E+03  0.46995E+06
 0.14507001E+03  0.39544E+06
 0.14512001E+03  0.32510E+06
 0.14517001E+03  0.26298E+06
 0.14522000E+03  0.21317E+06
 0.14527000E+03  0.17696E+06
 0.14532001E+03  0.15403E+06
 0.14537001E+03  0.14226E+06
 0.14542001E+03  0.13757E+06
 0.14547000E+03  0.13660E+06
 0.14552000E+03  0.13603E+06
 0.14557001E+03  0.13287E+06
 0.14562001E+03  0.12567E+06
 0.14567001E+03  0.11434E+06
 0.14572000E+03  0.99250E+05
 0.14577000E+03  0.79673E+05
 0.14582001E+03  0.56173E+05
 0.14587001E+03  0.31321E+05
 0.14592001E+03  0.68200E+04
 0.14597000E+03 -0.17683E+05
 0.14602000E+03 -0.43205E+05
 0.14607001E+03 -0.72137E+05
 0.14612001E+03 -0.10590E+06
 0.14617001E+03 -0.14382E+06
 0.14622000E+03 -0.18612E+06
 0.14627000E+03 -0.23050E+06
 0.14632001E+03 -0.27512E+06
 0.14637001E+03 -0.31807E+06
 0.14642001E+03 -0.35535E+06
 0.14647000E+03 -0.38628E+06
 0.14652000E+03 -0.40950E+06
 0.14657001E+03 -0.42232E+06
 0.14662001E+03 -0.42302E+06
 0.14667001E+03 -0.41102E+06
 0.14672000E+03 -0.38644E+06
 0.14677000E+03 -0.34998E+06
 0.14682001E+03 -0.30480E+06
 0.14687001E+03 -0.25484E+06
 0.14692001E+03 -0.20450E+06
 0.14697000E+03 -0.15812E+06
 0.14702000E+03 -0.11728E+06
 0.14707001E+03 -0.81851E+05
 0.14712001E+03 -0.52357E+05
 0.14717001E+03 -0.28123E+05
 0.14722000E+03 -0.92770E+04
 0.14727000E+03  0.41460E+04
 0.14732001E+03  0.15236E+05
 0.14737001E+03  0.25095E+05
 0.14742001E+03  0.33696E+05
 0.14747000E+03  0.39796E+05
 0.14752000E+03  0.42056E+05
 0.14757001E+03  0.39983E+05
 0.14762001E+03  0.32140E+05
 0.14767001E+03  0.18478E+05
 0.14772000E+03 -0.13600E+04
 0.14777000E+03 -0.29537E+05
 0.14782001E+03 -0.68776E+05
 0.14787001E+03 -0.11753E+06
 0.14792001E+03 -0.17269E+06
 0.14797000E+03 -0.23257E+06
 0.14802000E+03 -0.29376E+06
 0.14807001E+03 -0.35318E+06
 0.14812001E+03 -0.40719E+06
 0.14817001E+03 -0.45187E+06
 0.14822000E+03 -0.48292E+06
 0.14827000E+03 -0.49740E+06
 0.14832001E+03 -0.49593E+06
 0.14837001E+03 -0.48091E+06
 0.14842001E+03 -0.45554E+06
 0.14847000E+03 -0.42317E+06
 0.14852000E+03 -0.38920E+06
 0.14857001E+03 -0.35864E+06
 0.14862001E+03 -0.33456E+06
 0.14867001E+03 -0.31958E+06
 0.14872000E+03 -0.31589E+06
 0.14877000E+03 -0.32477E+06
 0.14882001E+03 -0.34478E+06
 0.14887001E+03 -0.37409E+06
 0.14892001E+03 -0.41126E+06
 0.14897000E+03 -0.45227E+06
 0.14902000E+03 -0.49260E+06
 0.14907001E+03 -0.52935E+06
 0.14912001E+03 -0.56061E+06
 0.14917001E+03 -0.58472E+06
 0.14922000E+03 -0.60008E+06
 0.14927000E+03 -0.60783E+06
 0.14932001E+03 -0.61043E+06
 0.14937001E+03 -0.60930E+06
 0.14942001E+03 -0.60625E+06
 0.14947000E+03 -0.60492E+06
 0.14952000E+03 -0.60770E+06
 0.14957001E+03 -0.61324E+06
 0.14962001E+03 -0.61914E+06
 0.14967001E+03 -0.62279E+06
 0.14972000E+03 -0.62255E+06
 0.14977000E+03 -0.61772E+06
 0.14982001E+03 -0.60768E+06
 0.14987001E+03 -0.59285E+06
 0.14992001E+03 -0.57444E+06
 0.14997000E+03 -0.55426E+06
