-0.30000000E+01 -0.40944E+05
-0.29500000E+01 -0.28020E+05
-0.29000001E+01 -0.13519E+05
-0.28499999E+01  0.21240E+04
-0.28000000E+01  0.18751E+05
-0.27500000E+01  0.35972E+05
-0.27000000E+01  0.53296E+05
-0.26500001E+01  0.70709E+05
-0.25999999E+01  0.88417E+05
-0.25500000E+01  0.10630E+06
-0.25000000E+01  0.12364E+06
-0.24500000E+01  0.14014E+06
-0.24000001E+01  0.15564E+06
-0.23499999E+01  0.16960E+06
-0.23000000E+01  0.18134E+06
-0.22500000E+01  0.18985E+06
-0.22000000E+01  0.19490E+06
-0.21500001E+01  0.19662E+06
-0.20999999E+01  0.19476E+06
-0.20500000E+01  0.18946E+06
-0.20000000E+01  0.18057E+06
-0.19499999E+01  0.16835E+06
-0.19000000E+01  0.15349E+06
-0.18500000E+01  0.13546E+06
-0.18000000E+01  0.11442E+06
-0.17500000E+01  0.91116E+05
-0.16999999E+01  0.66190E+05
-0.16500000E+01  0.40895E+05
-0.16000000E+01  0.15922E+05
-0.15500000E+01 -0.85510E+04
-0.15000000E+01 -0.31914E+05
-0.14499999E+01 -0.53518E+05
-0.14000000E+01 -0.72908E+05
-0.13500000E+01 -0.89502E+05
-0.13000000E+01 -0.10338E+06
-0.12500000E+01 -0.11484E+06
-0.11999999E+01 -0.12442E+06
-0.11500000E+01 -0.13246E+06
-0.11000000E+01 -0.13904E+06
-0.10500000E+01 -0.14477E+06
-0.10000000E+01 -0.14919E+06
-0.95000005E+00 -0.15169E+06
-0.89999986E+00 -0.15216E+06
-0.84999990E+00 -0.15054E+06
-0.79999995E+00 -0.14696E+06
-0.75000000E+00 -0.14114E+06
-0.70000005E+00 -0.13313E+06
-0.64999986E+00 -0.12299E+06
-0.59999990E+00 -0.11141E+06
-0.54999995E+00 -0.99681E+05
-0.50000000E+00 -0.88128E+05
-0.45000005E+00 -0.76999E+05
-0.39999986E+00 -0.66938E+05
-0.34999990E+00 -0.58349E+05
-0.29999995E+00 -0.51006E+05
-0.25000000E+00 -0.44191E+05
-0.20000005E+00 -0.37439E+05
-0.14999986E+00 -0.30548E+05
-0.99999905E-01 -0.23878E+05
-0.49999952E-01 -0.17207E+05
 0.00000000E+00 -0.10366E+05
 0.49999952E-01 -0.38730E+04
 0.10000014E+00  0.25550E+04
 0.15000010E+00  0.82680E+04
 0.20000005E+00  0.13335E+05
 0.25000000E+00  0.19056E+05
 0.29999995E+00  0.24981E+05
 0.35000014E+00  0.31047E+05
 0.40000010E+00  0.37539E+05
 0.45000005E+00  0.43240E+05
 0.50000000E+00  0.47689E+05
 0.54999995E+00  0.51320E+05
 0.60000014E+00  0.53540E+05
 0.65000010E+00  0.54243E+05
 0.70000005E+00  0.53824E+05
 0.75000000E+00  0.52037E+05
 0.79999995E+00  0.48980E+05
 0.85000014E+00  0.44744E+05
 0.90000010E+00  0.40114E+05
 0.95000005E+00  0.35897E+05
 0.10000000E+01  0.31967E+05
 0.10500002E+01  0.28174E+05
 0.10999999E+01  0.24324E+05
 0.11500001E+01  0.20482E+05
 0.12000003E+01  0.16237E+05
 0.12500000E+01  0.11945E+05
 0.13000002E+01  0.77890E+04
 0.13499999E+01  0.35160E+04
 0.14000001E+01  0.11000E+03
 0.14500003E+01 -0.16400E+04
 0.15000000E+01 -0.13480E+04
 0.15500002E+01  0.98700E+03
 0.15999999E+01  0.55150E+04
 0.16500001E+01  0.11999E+05
 0.17000003E+01  0.20213E+05
 0.17500000E+01  0.29604E+05
 0.18000002E+01  0.39607E+05
 0.18499999E+01  0.49844E+05
 0.19000001E+01  0.59456E+05
 0.19500003E+01  0.68380E+05
 0.20000000E+01  0.76162E+05
 0.20500002E+01  0.82335E+05
 0.20999999E+01  0.86838E+05
 0.21500001E+01  0.89899E+05
 0.22000003E+01  0.91403E+05
 0.22500000E+01  0.91547E+05
 0.23000002E+01  0.90558E+05
 0.23499999E+01  0.87853E+05
 0.24000001E+01  0.83995E+05
 0.24500003E+01  0.79011E+05
 0.25000000E+01  0.72670E+05
 0.25500002E+01  0.65371E+05
 0.25999999E+01  0.57253E+05
 0.26500001E+01  0.48163E+05
 0.27000003E+01  0.37732E+05
 0.27500000E+01  0.26034E+05
 0.28000002E+01  0.13112E+05
 0.28499999E+01 -0.22000E+03
 0.29000001E+01 -0.12970E+05
 0.29500003E+01 -0.25506E+05
 0.30000000E+01 -0.37951E+05
 0.30500002E+01 -0.50004E+05
 0.30999999E+01 -0.61014E+05
 0.31500001E+01 -0.71114E+05
 0.32000003E+01 -0.81118E+05
 0.32500000E+01 -0.89950E+05
 0.33000002E+01 -0.96872E+05
 0.33499999E+01 -0.10233E+06
 0.34000001E+01 -0.10589E+06
 0.34500003E+01 -0.10741E+06
 0.35000000E+01 -0.10759E+06
 0.35500002E+01 -0.10578E+06
 0.35999999E+01 -0.10196E+06
 0.36500001E+01 -0.96946E+05
 0.37000003E+01 -0.90204E+05
 0.37500000E+01 -0.81907E+05
 0.38000002E+01 -0.72516E+05
 0.38499999E+01 -0.61904E+05
 0.39000001E+01 -0.50172E+05
 0.39500003E+01 -0.38436E+05
 0.40000000E+01 -0.27038E+05
 0.40500002E+01 -0.15788E+05
 0.40999999E+01 -0.48930E+04
 0.41500001E+01  0.60060E+04
 0.42000003E+01  0.16441E+05
 0.42500000E+01  0.25925E+05
 0.43000002E+01  0.34836E+05
 0.43499999E+01  0.43326E+05
 0.44000001E+01  0.51585E+05
 0.44500003E+01  0.60199E+05
 0.45000000E+01  0.68856E+05
 0.45500002E+01  0.77648E+05
 0.45999999E+01  0.86856E+05
 0.46500001E+01  0.95617E+05
 0.47000003E+01  0.10317E+06
 0.47500000E+01  0.10924E+06
 0.48000002E+01  0.11335E+06
 0.48499999E+01  0.11498E+06
 0.49000001E+01  0.11439E+06
 0.49500003E+01  0.11138E+06
 0.50000000E+01  0.10670E+06
 0.50500002E+01  0.10068E+06
 0.51000004E+01  0.92919E+05
 0.51500006E+01  0.84274E+05
 0.51999998E+01  0.74641E+05
 0.52500000E+01  0.63964E+05
 0.53000002E+01  0.52383E+05
 0.53500004E+01  0.39940E+05
 0.54000006E+01  0.26674E+05
 0.54499998E+01  0.12482E+05
 0.55000000E+01 -0.20030E+04
 0.55500002E+01 -0.17301E+05
 0.56000004E+01 -0.32957E+05
 0.56500006E+01 -0.48031E+05
 0.56999998E+01 -0.62461E+05
 0.57500000E+01 -0.75219E+05
 0.58000002E+01 -0.86548E+05
 0.58500004E+01 -0.96138E+05
 0.59000006E+01 -0.10374E+06
 0.59499998E+01 -0.11013E+06
 0.60000000E+01 -0.11538E+06
 0.60500002E+01 -0.11959E+06
 0.61000004E+01 -0.12292E+06
 0.61500006E+01 -0.12585E+06
 0.61999998E+01 -0.12819E+06
 0.62500000E+01 -0.12987E+06
 0.63000002E+01 -0.13045E+06
 0.63500004E+01 -0.12949E+06
 0.64000006E+01 -0.12678E+06
 0.64499998E+01 -0.12160E+06
 0.65000000E+01 -0.11440E+06
 0.65500002E+01 -0.10505E+06
 0.66000004E+01 -0.93552E+05
 0.66500006E+01 -0.80894E+05
 0.66999998E+01 -0.67175E+05
 0.67500000E+01 -0.53248E+05
 0.68000002E+01 -0.40574E+05
 0.68500004E+01 -0.28773E+05
 0.69000006E+01 -0.18082E+05
 0.69499998E+01 -0.90840E+04
 0.70000000E+01 -0.62500E+03
 0.70500002E+01  0.77010E+04
 0.71000004E+01  0.15339E+05
 0.71500006E+01  0.22242E+05
 0.71999998E+01  0.28964E+05
 0.72500000E+01  0.34660E+05
 0.73000002E+01  0.39114E+05
 0.73500004E+01  0.42840E+05
 0.74000006E+01  0.45048E+05
 0.74499998E+01  0.45378E+05
 0.75000000E+01  0.43213E+05
 0.75500002E+01  0.38866E+05
 0.76000004E+01  0.32742E+05
 0.76500006E+01  0.25804E+05
 0.76999998E+01  0.19146E+05
 0.77500000E+01  0.12566E+05
 0.78000002E+01  0.70520E+04
 0.78500004E+01  0.28530E+04
 0.79000006E+01 -0.97100E+03
 0.79499998E+01 -0.37150E+04
 0.80000000E+01 -0.49650E+04
 0.80500002E+01 -0.61590E+04
 0.81000004E+01 -0.64220E+04
 0.81500006E+01 -0.59280E+04
 0.81999998E+01 -0.59780E+04
 0.82500000E+01 -0.48220E+04
 0.83000002E+01 -0.18200E+04
 0.83500004E+01  0.18870E+04
 0.84000006E+01  0.66250E+04
 0.84499998E+01  0.12650E+05
 0.85000000E+01  0.19377E+05
 0.85500002E+01  0.27460E+05
 0.86000004E+01  0.35652E+05
 0.86500006E+01  0.43714E+05
 0.86999998E+01  0.52128E+05
 0.87500000E+01  0.59721E+05
 0.88000002E+01  0.65960E+05
 0.88500004E+01  0.70362E+05
 0.89000006E+01  0.72808E+05
 0.89499998E+01  0.72693E+05
 0.90000000E+01  0.70081E+05
 0.90500002E+01  0.64403E+05
 0.91000004E+01  0.56102E+05
 0.91500006E+01  0.45159E+05
 0.91999998E+01  0.31515E+05
 0.92500000E+01  0.16933E+05
 0.93000002E+01  0.99400E+03
 0.93500004E+01 -0.14747E+05
 0.94000006E+01 -0.29376E+05
 0.94499998E+01 -0.43125E+05
 0.95000000E+01 -0.54643E+05
 0.95500002E+01 -0.64458E+05
 0.96000004E+01 -0.72947E+05
 0.96500006E+01 -0.79778E+05
 0.96999998E+01 -0.84583E+05
 0.97500000E+01 -0.87261E+05
 0.98000002E+01 -0.88222E+05
 0.98500004E+01 -0.86826E+05
 0.99000006E+01 -0.82867E+05
 0.99499998E+01 -0.77042E+05
 0.10000000E+02 -0.69643E+05
 0.10050000E+02 -0.60123E+05
 0.10100000E+02 -0.48911E+05
 0.10150001E+02 -0.36916E+05
 0.10200000E+02 -0.24496E+05
 0.10250000E+02 -0.13504E+05
 0.10300000E+02 -0.36280E+04
 0.10350000E+02  0.55700E+04
 0.10400001E+02  0.13517E+05
 0.10450000E+02  0.21445E+05
 0.10500000E+02  0.29424E+05
 0.10550000E+02  0.37389E+05
 0.10600000E+02  0.46019E+05
 0.10650001E+02  0.55344E+05
 0.10700000E+02  0.64618E+05
 0.10750000E+02  0.74070E+05
 0.10800000E+02  0.83654E+05
 0.10850000E+02  0.92363E+05
 0.10900001E+02  0.99685E+05
 0.10950000E+02  0.10557E+06
 0.11000000E+02  0.11018E+06
 0.11050000E+02  0.11368E+06
 0.11100000E+02  0.11689E+06
 0.11150001E+02  0.11980E+06
 0.11200000E+02  0.12236E+06
 0.11250000E+02  0.12444E+06
 0.11300000E+02  0.12612E+06
 0.11350000E+02  0.12779E+06
 0.11400001E+02  0.12879E+06
 0.11450000E+02  0.12885E+06
 0.11500000E+02  0.12802E+06
 0.11550000E+02  0.12564E+06
 0.11600000E+02  0.12105E+06
 0.11650001E+02  0.11461E+06
 0.11700000E+02  0.10598E+06
 0.11750000E+02  0.95257E+05
 0.11800000E+02  0.82955E+05
 0.11850000E+02  0.68439E+05
 0.11900001E+02  0.52327E+05
 0.11950000E+02  0.35161E+05
 0.12000000E+02  0.17264E+05
 0.12050000E+02  0.25000E+02
 0.12100000E+02 -0.16212E+05
 0.12150001E+02 -0.31402E+05
 0.12200000E+02 -0.45711E+05
 0.12250000E+02 -0.59069E+05
 0.12300000E+02 -0.71321E+05
 0.12350000E+02 -0.82497E+05
 0.12400001E+02 -0.91853E+05
 0.12450000E+02 -0.99497E+05
 0.12500000E+02 -0.10518E+06
 0.12550000E+02 -0.10916E+06
 0.12600000E+02 -0.11114E+06
 0.12650001E+02 -0.11122E+06
 0.12700000E+02 -0.10923E+06
 0.12750000E+02 -0.10460E+06
 0.12800000E+02 -0.98182E+05
 0.12850000E+02 -0.89939E+05
 0.12900001E+02 -0.80420E+05
 0.12950000E+02 -0.69436E+05
 0.13000000E+02 -0.58061E+05
 0.13050001E+02 -0.46598E+05
 0.13100000E+02 -0.35692E+05
 0.13150000E+02 -0.26405E+05
 0.13200001E+02 -0.18103E+05
 0.13250000E+02 -0.11992E+05
 0.13300001E+02 -0.77540E+04
 0.13350000E+02 -0.58440E+04
 0.13400000E+02 -0.63360E+04
 0.13450001E+02 -0.81710E+04
 0.13500000E+02 -0.11555E+05
 0.13550001E+02 -0.15851E+05
 0.13600000E+02 -0.20678E+05
 0.13650000E+02 -0.26295E+05
 0.13700001E+02 -0.32149E+05
 0.13750000E+02 -0.38485E+05
 0.13800001E+02 -0.45397E+05
 0.13850000E+02 -0.51565E+05
 0.13900000E+02 -0.57018E+05
 0.13950001E+02 -0.61797E+05
 0.14000000E+02 -0.65840E+05
 0.14050001E+02 -0.69095E+05
 0.14100000E+02 -0.71510E+05
 0.14150000E+02 -0.73368E+05
 0.14200001E+02 -0.74494E+05
 0.14250000E+02 -0.74240E+05
 0.14300001E+02 -0.71788E+05
 0.14350000E+02 -0.67727E+05
 0.14400000E+02 -0.62569E+05
 0.14450001E+02 -0.56232E+05
 0.14500000E+02 -0.49158E+05
 0.14550001E+02 -0.41739E+05
 0.14600000E+02 -0.33677E+05
 0.14650000E+02 -0.24254E+05
 0.14700001E+02 -0.13430E+05
 0.14750000E+02 -0.18830E+04
 0.14800001E+02  0.93860E+04
 0.14850000E+02  0.20127E+05
 0.14900000E+02  0.30717E+05
 0.14950001E+02  0.41217E+05
 0.15000000E+02  0.51497E+05
 0.15050001E+02  0.61251E+05
 0.15100000E+02  0.70070E+05
 0.15150000E+02  0.77203E+05
 0.15200001E+02  0.82173E+05
 0.15250000E+02  0.84387E+05
 0.15300001E+02  0.83611E+05
 0.15350000E+02  0.81119E+05
 0.15400000E+02  0.77513E+05
 0.15450001E+02  0.72579E+05
 0.15500000E+02  0.66564E+05
 0.15550001E+02  0.59335E+05
 0.15600000E+02  0.50967E+05
 0.15650000E+02  0.42261E+05
 0.15700001E+02  0.34047E+05
 0.15750000E+02  0.26704E+05
 0.15800001E+02  0.19911E+05
 0.15850000E+02  0.13478E+05
 0.15900000E+02  0.69830E+04
 0.15950001E+02  0.64800E+03
 0.16000000E+02 -0.46750E+04
 0.16050001E+02 -0.84730E+04
 0.16100000E+02 -0.10442E+05
 0.16150000E+02 -0.10916E+05
 0.16200001E+02 -0.10036E+05
 0.16250000E+02 -0.79560E+04
 0.16300001E+02 -0.44380E+04
 0.16350000E+02  0.34800E+03
 0.16400000E+02  0.59420E+04
 0.16450001E+02  0.11860E+05
 0.16500000E+02  0.16962E+05
 0.16550001E+02  0.20916E+05
 0.16600000E+02  0.23191E+05
 0.16650000E+02  0.23995E+05
 0.16700001E+02  0.23811E+05
 0.16750000E+02  0.22374E+05
 0.16800001E+02  0.20031E+05
 0.16850000E+02  0.16536E+05
 0.16900000E+02  0.12182E+05
 0.16950001E+02  0.71470E+04
 0.17000000E+02  0.91200E+03
 0.17050001E+02 -0.62440E+04
 0.17100000E+02 -0.14198E+05
 0.17150000E+02 -0.22751E+05
 0.17200001E+02 -0.31556E+05
 0.17250000E+02 -0.40348E+05
 0.17300001E+02 -0.48987E+05
 0.17350000E+02 -0.56950E+05
 0.17400000E+02 -0.63643E+05
 0.17450001E+02 -0.68954E+05
 0.17500000E+02 -0.72670E+05
 0.17550001E+02 -0.74910E+05
 0.17600000E+02 -0.75725E+05
 0.17650000E+02 -0.75325E+05
 0.17700001E+02 -0.73873E+05
 0.17750000E+02 -0.70988E+05
 0.17800001E+02 -0.66937E+05
 0.17850000E+02 -0.61226E+05
 0.17900000E+02 -0.53940E+05
 0.17950001E+02 -0.45306E+05
 0.18000000E+02 -0.34851E+05
 0.18050001E+02 -0.23527E+05
 0.18100000E+02 -0.11423E+05
 0.18150000E+02  0.47900E+03
 0.18200001E+02  0.12020E+05
 0.18250000E+02  0.23032E+05
 0.18300001E+02  0.33130E+05
 0.18350000E+02  0.42652E+05
 0.18400000E+02  0.50464E+05
 0.18450001E+02  0.57361E+05
 0.18500000E+02  0.62965E+05
 0.18550001E+02  0.67220E+05
 0.18600000E+02  0.69628E+05
 0.18650000E+02  0.70319E+05
 0.18700001E+02  0.69883E+05
 0.18750000E+02  0.67584E+05
 0.18800001E+02  0.64757E+05
 0.18850000E+02  0.60888E+05
 0.18900000E+02  0.56607E+05
 0.18950001E+02  0.51912E+05
 0.19000000E+02  0.46582E+05
 0.19050001E+02  0.41429E+05
 0.19100000E+02  0.36209E+05
 0.19150000E+02  0.31695E+05
 0.19200001E+02  0.27353E+05
 0.19250000E+02  0.23554E+05
 0.19300001E+02  0.20737E+05
 0.19350000E+02  0.18453E+05
 0.19400000E+02  0.17217E+05
 0.19450001E+02  0.16614E+05
 0.19500000E+02  0.16736E+05
 0.19550001E+02  0.18330E+05
 0.19600000E+02  0.20816E+05
 0.19650000E+02  0.23518E+05
 0.19700001E+02  0.26470E+05
 0.19750000E+02  0.29762E+05
 0.19800001E+02  0.32965E+05
 0.19850000E+02  0.35692E+05
 0.19900000E+02  0.37730E+05
 0.19950001E+02  0.38866E+05
 0.20000000E+02  0.38451E+05
 0.20050001E+02  0.36121E+05
 0.20100000E+02  0.31582E+05
 0.20150000E+02  0.24320E+05
 0.20200001E+02  0.15583E+05
 0.20250000E+02  0.58340E+04
 0.20300001E+02 -0.47080E+04
 0.20350000E+02 -0.15049E+05
 0.20400000E+02 -0.25406E+05
 0.20450001E+02 -0.35048E+05
 0.20500000E+02 -0.43300E+05
 0.20550001E+02 -0.50813E+05
 0.20600000E+02 -0.57435E+05
 0.20650000E+02 -0.63326E+05
 0.20700001E+02 -0.68384E+05
 0.20750000E+02 -0.72006E+05
 0.20800001E+02 -0.75031E+05
 0.20850000E+02 -0.76996E+05
 0.20900000E+02 -0.77418E+05
 0.20950001E+02 -0.77735E+05
 0.21000000E+02 -0.76556E+05
 0.21050001E+02 -0.72148E+05
 0.21100000E+02 -0.65564E+05
 0.21150000E+02 -0.59824E+05
 0.21200001E+02 -0.56362E+05
 0.21250000E+02 -0.54882E+05
 0.21300001E+02 -0.55643E+05
 0.21350000E+02 -0.51976E+05
 0.21400000E+02 -0.33698E+05
 0.21450001E+02 -0.93390E+04
 0.21500000E+02  0.66340E+04
 0.21550001E+02  0.25423E+05
 0.21600000E+02  0.31058E+05
 0.21650000E+02  0.18646E+05
 0.21700001E+02  0.35504E+05
 0.21750000E+02  0.64175E+05
 0.21800001E+02  0.90491E+05
 0.21850000E+02  0.88962E+05
 0.21900000E+02  0.81990E+04
 0.21950001E+02 -0.81470E+04
 0.22000000E+02  0.65785E+05
 0.22050001E+02  0.78394E+05
 0.22100000E+02  0.10576E+06
 0.22150000E+02  0.18678E+06
 0.22200001E+02  0.16309E+06
 0.22250000E+02  0.40663E+05
 0.22300001E+02  0.39339E+05
 0.22350000E+02  0.10029E+06
 0.22400000E+02  0.72651E+05
 0.22450001E+02  0.90309E+05
 0.22500000E+02  0.14141E+06
 0.22550001E+02  0.11322E+06
 0.22600000E+02  0.52207E+05
 0.22650000E+02  0.29062E+05
 0.22700001E+02  0.66392E+05
 0.22750000E+02  0.10166E+06
 0.22800001E+02  0.85489E+05
 0.22850000E+02  0.89625E+05
 0.22900000E+02  0.79424E+05
 0.22950001E+02  0.45823E+05
 0.23000000E+02  0.64384E+05
 0.23050001E+02  0.10729E+06
 0.23100000E+02  0.19649E+06
 0.23150000E+02  0.22850E+06
 0.23200001E+02  0.20502E+06
 0.23250000E+02  0.21070E+06
 0.23300001E+02  0.13902E+06
 0.23350000E+02  0.19481E+06
 0.23400000E+02  0.18451E+06
 0.23450001E+02  0.34845E+05
 0.23500000E+02  0.98860E+05
 0.23550001E+02  0.85184E+05
 0.23600000E+02  0.73173E+05
 0.23650000E+02  0.11031E+06
 0.23700001E+02  0.73547E+05
 0.23750000E+02  0.19718E+05
 0.23800001E+02  0.65606E+05
 0.23850000E+02  0.13688E+06
 0.23900000E+02 -0.27151E+05
 0.23950001E+02 -0.53416E+05
 0.24000000E+02  0.38424E+05
 0.24050001E+02  0.59241E+05
 0.24100000E+02 -0.41871E+05
 0.24150000E+02 -0.11713E+06
 0.24200001E+02 -0.10783E+06
 0.24250000E+02 -0.15386E+06
 0.24300001E+02 -0.16089E+06
 0.24350000E+02 -0.19369E+06
 0.24400000E+02 -0.14536E+06
 0.24450001E+02 -0.95540E+05
 0.24500000E+02  0.57087E+05
 0.24550001E+02  0.91939E+05
 0.24600000E+02 -0.11258E+06
 0.24650000E+02 -0.11435E+06
 0.24700001E+02 -0.95572E+05
 0.24750000E+02 -0.12115E+06
 0.24800001E+02 -0.14397E+06
 0.24850000E+02 -0.13043E+06
 0.24900000E+02 -0.13600E+06
 0.24950001E+02 -0.16081E+06
 0.25000000E+02  0.12929E+05
 0.25050001E+02  0.13765E+06
 0.25100000E+02  0.16589E+06
 0.25150000E+02  0.29122E+06
 0.25200001E+02  0.34498E+06
 0.25250000E+02  0.19247E+06
 0.25300001E+02  0.25340E+04
 0.25350000E+02 -0.19465E+05
 0.25400000E+02 -0.56334E+05
 0.25450001E+02 -0.15474E+06
 0.25500000E+02 -0.92470E+05
 0.25550001E+02 -0.91354E+05
 0.25600000E+02 -0.12579E+06
 0.25650000E+02 -0.54755E+05
 0.25700001E+02 -0.97332E+05
 0.25750000E+02 -0.35977E+05
 0.25800001E+02  0.64177E+05
 0.25850000E+02  0.52826E+05
 0.25900000E+02  0.47875E+05
 0.25950001E+02 -0.72270E+05
 0.26000000E+02 -0.10011E+06
 0.26050001E+02 -0.14416E+06
 0.26100000E+02 -0.25980E+06
 0.26150000E+02 -0.18310E+06
 0.26200001E+02 -0.20512E+06
 0.26250000E+02 -0.29024E+06
 0.26300001E+02 -0.19644E+06
 0.26350000E+02 -0.23082E+06
 0.26400000E+02 -0.26654E+06
 0.26450001E+02 -0.16484E+06
 0.26500000E+02 -0.93596E+05
 0.26550001E+02  0.32616E+05
 0.26600000E+02 -0.38458E+05
 0.26650000E+02 -0.97803E+05
 0.26700001E+02 -0.67698E+05
 0.26750000E+02 -0.10665E+06
 0.26800001E+02  0.20694E+05
 0.26850000E+02  0.39159E+05
 0.26900000E+02 -0.62968E+05
 0.26950001E+02 -0.34690E+05
 0.27000000E+02  0.89590E+05
 0.27050001E+02  0.82586E+05
 0.27100000E+02  0.64400E+05
 0.27150000E+02  0.24656E+06
 0.27200001E+02  0.39104E+06
 0.27250000E+02  0.36784E+06
 0.27300001E+02  0.23696E+06
 0.27350000E+02  0.19467E+06
 0.27400000E+02  0.11721E+06
 0.27450001E+02  0.29433E+05
 0.27500000E+02  0.30752E+05
 0.27550001E+02  0.20847E+05
 0.27600000E+02  0.11419E+06
 0.27650000E+02  0.16203E+06
 0.27700001E+02  0.22115E+06
 0.27750000E+02  0.24079E+06
 0.27800001E+02  0.20705E+06
 0.27850000E+02  0.31226E+06
 0.27900000E+02  0.28811E+06
 0.27950001E+02  0.19613E+06
 0.28000000E+02  0.18706E+06
 0.28050001E+02  0.15292E+06
 0.28100000E+02  0.15375E+05
 0.28150000E+02 -0.10666E+06
 0.28200001E+02 -0.11487E+06
 0.28250000E+02 -0.12476E+06
 0.28300001E+02 -0.77004E+05
 0.28350000E+02 -0.38022E+05
 0.28400000E+02 -0.14340E+05
 0.28450001E+02 -0.97800E+03
 0.28500000E+02 -0.35541E+05
 0.28550001E+02 -0.33038E+05
 0.28600000E+02 -0.68498E+05
 0.28650000E+02 -0.32592E+05
 0.28700001E+02  0.66188E+05
 0.28750000E+02  0.56971E+05
 0.28800001E+02 -0.74069E+05
 0.28850000E+02 -0.17830E+06
 0.28900000E+02 -0.26590E+06
 0.28950001E+02 -0.35787E+06
 0.29000000E+02 -0.28052E+06
 0.29049999E+02 -0.21409E+06
 0.29100002E+02 -0.10179E+06
 0.29150002E+02  0.48657E+05
 0.29200001E+02  0.93887E+05
 0.29250000E+02  0.14663E+06
 0.29299999E+02  0.15973E+06
 0.29350002E+02  0.15600E+06
 0.29400002E+02  0.15156E+06
 0.29450001E+02  0.12244E+06
 0.29500000E+02  0.48790E+05
 0.29549999E+02 -0.52166E+05
 0.29600002E+02 -0.11649E+06
 0.29650002E+02 -0.52742E+05
 0.29700001E+02  0.33042E+05
 0.29750000E+02 -0.25875E+05
 0.29799999E+02 -0.82350E+04
 0.29850002E+02  0.78956E+05
 0.29900002E+02  0.80303E+05
 0.29950001E+02  0.83774E+05
 0.30000000E+02 -0.17246E+05
 0.30049999E+02 -0.16209E+06
 0.30100002E+02 -0.28206E+06
 0.30150002E+02 -0.33569E+06
 0.30200001E+02 -0.22388E+06
 0.30250000E+02 -0.17290E+06
 0.30299999E+02 -0.11050E+06
 0.30350002E+02 -0.13702E+06
 0.30400002E+02 -0.24755E+06
 0.30450001E+02 -0.27841E+06
 0.30500000E+02 -0.26886E+06
 0.30549999E+02 -0.19331E+06
 0.30600002E+02 -0.20068E+06
 0.30650002E+02 -0.15265E+06
 0.30700001E+02 -0.16284E+06
 0.30750000E+02 -0.18112E+06
 0.30799999E+02 -0.19835E+06
 0.30850002E+02 -0.30109E+06
 0.30900002E+02 -0.29248E+06
 0.30950001E+02 -0.23416E+06
 0.31000000E+02 -0.71595E+05
 0.31049999E+02 -0.10243E+06
 0.31100002E+02 -0.17705E+06
 0.31150002E+02 -0.99158E+05
 0.31200001E+02 -0.32730E+04
 0.31250000E+02  0.11843E+06
 0.31299999E+02  0.64806E+05
 0.31350002E+02 -0.79900E+03
 0.31400002E+02 -0.31064E+05
 0.31450001E+02 -0.42407E+05
 0.31500000E+02 -0.99405E+05
 0.31549999E+02 -0.21301E+06
 0.31600002E+02 -0.25538E+06
 0.31650002E+02 -0.16425E+06
 0.31700001E+02  0.15939E+05
 0.31750000E+02  0.12230E+05
 0.31799999E+02  0.35561E+05
 0.31850002E+02  0.77933E+05
 0.31900002E+02  0.85291E+05
 0.31950001E+02  0.14570E+06
 0.32000000E+02  0.10563E+06
 0.32049999E+02  0.99376E+05
 0.32100002E+02  0.10550E+05
 0.32150002E+02 -0.58130E+05
 0.32200001E+02 -0.40527E+05
 0.32250000E+02 -0.80803E+05
 0.32299999E+02  0.15536E+05
 0.32350002E+02  0.10397E+06
 0.32400002E+02  0.92711E+05
 0.32450001E+02  0.94432E+05
 0.32500000E+02  0.89926E+05
 0.32549999E+02  0.71534E+05
 0.32600002E+02  0.11326E+06
 0.32650002E+02  0.15467E+06
 0.32700001E+02  0.67150E+05
 0.32750000E+02 -0.87565E+05
 0.32799999E+02 -0.15287E+06
 0.32850002E+02 -0.72614E+05
 0.32900002E+02 -0.88214E+05
 0.32950001E+02 -0.17764E+06
 0.33000000E+02 -0.18856E+06
 0.33049999E+02 -0.20336E+06
 0.33100002E+02 -0.16207E+06
 0.33150002E+02 -0.13883E+06
 0.33200001E+02 -0.14629E+06
 0.33250000E+02 -0.19547E+05
 0.33299999E+02  0.12222E+06
 0.33350002E+02  0.20251E+06
 0.33400002E+02  0.25337E+06
 0.33450001E+02  0.21458E+06
 0.33500000E+02  0.91047E+05
 0.33549999E+02 -0.21725E+05
 0.33600002E+02 -0.91927E+05
 0.33650002E+02 -0.16355E+06
 0.33700001E+02 -0.17015E+06
 0.33750000E+02 -0.73841E+05
 0.33799999E+02 -0.74110E+04
 0.33850002E+02 -0.98865E+05
 0.33900002E+02 -0.12611E+06
 0.33950001E+02  0.37157E+05
 0.34000000E+02  0.16992E+06
 0.34049999E+02  0.18043E+06
 0.34100002E+02  0.86833E+05
 0.34150002E+02 -0.10160E+04
 0.34200001E+02 -0.20521E+05
 0.34250000E+02  0.54864E+05
 0.34299999E+02  0.12838E+05
 0.34350002E+02 -0.19170E+06
 0.34400002E+02 -0.24350E+06
 0.34450001E+02 -0.14291E+06
 0.34500000E+02 -0.24578E+05
 0.34549999E+02 -0.15177E+05
 0.34600002E+02 -0.78560E+04
 0.34650002E+02 -0.10263E+05
 0.34700001E+02 -0.14468E+06
 0.34750000E+02 -0.13846E+06
 0.34799999E+02  0.23051E+05
 0.34850002E+02  0.10066E+06
 0.34900002E+02  0.20303E+06
 0.34950001E+02  0.36955E+06
 0.35000000E+02  0.42620E+06
 0.35049999E+02  0.45418E+06
 0.35100002E+02  0.53823E+06
 0.35150002E+02  0.61155E+06
 0.35200001E+02  0.54530E+06
 0.35250000E+02  0.26009E+06
 0.35299999E+02  0.10364E+06
 0.35350002E+02  0.26231E+06
 0.35400002E+02  0.44765E+06
 0.35450001E+02  0.63074E+06
 0.35500000E+02  0.59372E+06
 0.35549999E+02  0.33990E+06
 0.35600002E+02  0.20833E+06
 0.35650002E+02  0.28537E+05
 0.35700001E+02 -0.65059E+05
 0.35750000E+02  0.28954E+05
 0.35799999E+02  0.15587E+06
 0.35850002E+02  0.26293E+06
 0.35900002E+02  0.35695E+06
 0.35950001E+02  0.46677E+06
 0.36000000E+02  0.36777E+06
 0.36049999E+02  0.15502E+06
 0.36100002E+02 -0.22792E+05
 0.36150002E+02 -0.25124E+06
 0.36200001E+02 -0.48388E+06
 0.36250000E+02 -0.48307E+06
 0.36299999E+02 -0.20389E+06
 0.36350002E+02  0.16043E+06
 0.36400002E+02  0.10836E+07
 0.36450001E+02  0.18493E+07
 0.36500000E+02  0.10292E+07
 0.36549999E+02 -0.29184E+06
 0.36600002E+02 -0.10392E+07
 0.36650002E+02 -0.17759E+07
 0.36700001E+02 -0.23379E+07
 0.36750000E+02 -0.15130E+07
 0.36799999E+02  0.51796E+06
 0.36850002E+02  0.20171E+07
 0.36900002E+02  0.18266E+07
 0.36950001E+02 -0.97569E+05
 0.37000000E+02 -0.17834E+07
 0.37049999E+02 -0.17665E+07
 0.37100002E+02 -0.75160E+06
 0.37150002E+02  0.57540E+06
 0.37200001E+02  0.10230E+07
 0.37250000E+02  0.49653E+06
 0.37299999E+02 -0.11451E+06
 0.37350002E+02 -0.71470E+06
 0.37400002E+02 -0.99879E+06
 0.37450001E+02 -0.74952E+06
 0.37500000E+02  0.46358E+06
 0.37549999E+02  0.19524E+07
 0.37600002E+02  0.20132E+07
 0.37650002E+02  0.61248E+06
 0.37700001E+02 -0.54828E+06
 0.37750000E+02 -0.10865E+07
 0.37799999E+02 -0.16041E+07
 0.37850002E+02 -0.96868E+06
 0.37900002E+02  0.25443E+06
 0.37950001E+02  0.10276E+07
 0.38000000E+02  0.12681E+07
 0.38049999E+02  0.84293E+06
 0.38100002E+02  0.42962E+06
 0.38150002E+02 -0.28184E+06
 0.38200001E+02 -0.32149E+06
 0.38250000E+02  0.56050E+06
 0.38299999E+02  0.68021E+06
 0.38350002E+02  0.34849E+06
 0.38400002E+02  0.15377E+06
 0.38450001E+02 -0.31348E+06
 0.38500000E+02 -0.96780E+06
 0.38549999E+02 -0.91155E+06
 0.38600002E+02 -0.70082E+06
 0.38650002E+02 -0.11565E+07
 0.38700001E+02 -0.14936E+07
 0.38750000E+02 -0.11290E+07
 0.38799999E+02 -0.73348E+06
 0.38850002E+02 -0.80151E+06
 0.38900002E+02 -0.47347E+06
 0.38950001E+02 -0.29313E+06
 0.39000000E+02 -0.54960E+06
 0.39049999E+02 -0.39298E+06
 0.39100002E+02 -0.56402E+06
 0.39150002E+02 -0.10500E+07
 0.39200001E+02 -0.86060E+06
 0.39250000E+02 -0.31262E+06
 0.39299999E+02 -0.32222E+06
 0.39350002E+02 -0.91668E+06
 0.39400002E+02 -0.15525E+07
 0.39450001E+02 -0.17995E+07
 0.39500000E+02 -0.19577E+07
 0.39549999E+02 -0.19024E+07
 0.39600002E+02 -0.11964E+07
 0.39650002E+02 -0.26341E+06
 0.39700001E+02  0.45514E+06
 0.39750000E+02  0.22120E+06
 0.39799999E+02 -0.34816E+06
 0.39850002E+02 -0.37446E+06
 0.39900002E+02 -0.89681E+05
 0.39950001E+02  0.59735E+06
 0.40000000E+02  0.10426E+07
 0.40049999E+02  0.81629E+06
 0.40100002E+02  0.44243E+06
 0.40150002E+02  0.16136E+05
 0.40200001E+02 -0.19898E+06
 0.40250000E+02 -0.21578E+06
 0.40299999E+02 -0.53088E+06
 0.40350002E+02 -0.43321E+05
 0.40400002E+02  0.71615E+06
 0.40450001E+02  0.25137E+06
 0.40500000E+02 -0.46542E+05
 0.40549999E+02  0.80753E+05
 0.40600002E+02 -0.16154E+06
 0.40650002E+02 -0.33232E+06
 0.40700001E+02 -0.53702E+05
 0.40750000E+02  0.59675E+06
 0.40799999E+02  0.11288E+07
 0.40850002E+02  0.10903E+07
 0.40900002E+02  0.64585E+06
 0.40950001E+02  0.98984E+05
 0.41000000E+02 -0.62284E+06
 0.41049999E+02 -0.99650E+06
 0.41100002E+02 -0.76276E+06
 0.41150002E+02 -0.47030E+06
 0.41200001E+02 -0.31151E+06
 0.41250000E+02 -0.45411E+06
 0.41299999E+02 -0.28434E+06
 0.41350002E+02  0.36593E+06
 0.41400002E+02  0.68182E+06
 0.41450001E+02  0.63294E+06
 0.41500000E+02  0.45061E+06
 0.41549999E+02  0.71430E+06
 0.41600002E+02  0.11439E+07
 0.41650002E+02  0.11270E+07
 0.41700001E+02  0.82517E+06
 0.41750000E+02  0.46058E+06
 0.41799999E+02  0.45056E+06
 0.41850002E+02  0.55464E+06
 0.41900002E+02  0.41118E+06
 0.41950001E+02  0.91977E+05
 0.42000000E+02  0.28891E+06
 0.42049999E+02  0.72587E+06
 0.42100002E+02  0.38427E+06
 0.42150002E+02  0.12166E+06
 0.42200001E+02  0.35351E+06
 0.42250000E+02  0.53554E+06
 0.42299999E+02  0.73848E+06
 0.42350002E+02  0.90975E+06
 0.42400002E+02  0.86561E+06
 0.42450001E+02  0.54805E+06
 0.42500000E+02  0.34200E+05
 0.42549999E+02 -0.17213E+06
 0.42600002E+02 -0.17997E+06
 0.42650002E+02 -0.38229E+06
 0.42700001E+02 -0.13465E+06
 0.42750000E+02  0.28406E+06
 0.42799999E+02  0.30567E+05
 0.42850002E+02 -0.34339E+06
 0.42900002E+02 -0.31611E+06
 0.42950001E+02 -0.34940E+06
 0.43000000E+02 -0.48580E+06
 0.43049999E+02 -0.39839E+06
 0.43100002E+02 -0.43262E+06
 0.43150002E+02 -0.53200E+06
 0.43200001E+02 -0.48920E+06
 0.43250000E+02 -0.33045E+06
 0.43299999E+02 -0.30220E+05
 0.43350002E+02  0.15355E+06
 0.43400002E+02  0.32225E+06
 0.43450001E+02  0.68393E+06
 0.43500000E+02  0.80366E+06
 0.43549999E+02  0.29759E+06
 0.43600002E+02 -0.21443E+06
 0.43650002E+02 -0.60668E+06
 0.43700001E+02 -0.10757E+07
 0.43750000E+02 -0.10362E+07
 0.43799999E+02 -0.78559E+06
 0.43850002E+02 -0.52912E+06
 0.43900002E+02 -0.16132E+06
 0.43950001E+02 -0.12236E+06
 0.44000000E+02 -0.59802E+05
 0.44049999E+02  0.58948E+05
 0.44100002E+02  0.13244E+06
 0.44150002E+02  0.60521E+06
 0.44200001E+02  0.85034E+06
 0.44250000E+02  0.50729E+06
 0.44299999E+02  0.11885E+06
 0.44350002E+02 -0.45352E+05
 0.44400002E+02 -0.13991E+06
 0.44450001E+02 -0.67248E+05
 0.44500000E+02  0.28798E+06
 0.44549999E+02  0.64024E+06
 0.44600002E+02  0.10274E+07
 0.44650002E+02  0.10809E+07
 0.44700001E+02  0.87766E+06
 0.44750000E+02  0.67579E+06
 0.44799999E+02  0.49203E+06
 0.44850002E+02  0.72375E+06
 0.44900002E+02  0.10489E+07
 0.44950001E+02  0.12117E+07
 0.45000000E+02  0.13324E+07
 0.45049999E+02  0.13803E+07
 0.45100002E+02  0.10137E+07
 0.45150002E+02  0.57054E+06
 0.45200001E+02  0.59799E+06
 0.45250000E+02  0.81228E+06
 0.45299999E+02  0.95432E+06
 0.45350002E+02  0.86135E+06
 0.45400002E+02  0.82657E+06
 0.45450001E+02  0.72430E+06
 0.45500000E+02  0.37688E+06
 0.45549999E+02  0.29922E+06
 0.45600002E+02  0.42101E+06
 0.45650002E+02  0.42860E+06
 0.45700001E+02  0.39298E+06
 0.45750000E+02  0.35620E+06
 0.45799999E+02  0.26017E+06
 0.45850002E+02  0.31208E+06
 0.45900002E+02  0.41728E+06
 0.45950001E+02  0.30476E+06
 0.46000000E+02  0.20672E+06
 0.46049999E+02  0.39499E+06
 0.46100002E+02  0.68701E+06
 0.46150002E+02  0.76503E+06
 0.46200001E+02  0.65331E+06
 0.46250000E+02  0.42787E+06
 0.46299999E+02  0.64092E+05
 0.46350002E+02 -0.44293E+06
 0.46400002E+02 -0.70130E+06
 0.46450001E+02 -0.64169E+06
 0.46500000E+02 -0.57453E+06
 0.46549999E+02 -0.50578E+06
 0.46600002E+02 -0.61623E+06
 0.46650002E+02 -0.85361E+06
 0.46700001E+02 -0.10615E+07
 0.46750000E+02 -0.97834E+06
 0.46799999E+02 -0.68726E+06
 0.46850002E+02 -0.53274E+06
 0.46900002E+02 -0.39219E+06
 0.46950001E+02 -0.50952E+06
 0.47000000E+02 -0.96035E+06
 0.47049999E+02 -0.14110E+07
 0.47100002E+02 -0.15559E+07
 0.47150002E+02 -0.13647E+07
 0.47200001E+02 -0.96964E+06
 0.47250000E+02 -0.41338E+06
 0.47299999E+02 -0.18240E+05
 0.47350002E+02 -0.28190E+04
 0.47400002E+02 -0.19344E+06
 0.47450001E+02 -0.18359E+06
 0.47500000E+02  0.18403E+06
 0.47549999E+02  0.67305E+06
 0.47600002E+02  0.89420E+06
 0.47650002E+02  0.71284E+06
 0.47700001E+02  0.57351E+06
 0.47750000E+02  0.70285E+06
 0.47799999E+02  0.89709E+06
 0.47850002E+02  0.11090E+07
 0.47900002E+02  0.13629E+07
 0.47950001E+02  0.15232E+07
 0.48000000E+02  0.14639E+07
 0.48049999E+02  0.12500E+07
 0.48100002E+02  0.10275E+07
 0.48150002E+02  0.87446E+06
 0.48200001E+02  0.87321E+06
 0.48250000E+02  0.10061E+07
 0.48299999E+02  0.11581E+07
 0.48350002E+02  0.12804E+07
 0.48400002E+02  0.13012E+07
 0.48450001E+02  0.12243E+07
 0.48500000E+02  0.99348E+06
 0.48549999E+02  0.61705E+06
 0.48600002E+02  0.41548E+06
 0.48650002E+02  0.45379E+06
 0.48700001E+02  0.41158E+06
 0.48750000E+02  0.25111E+06
 0.48799999E+02  0.20318E+06
 0.48850002E+02  0.15673E+06
 0.48900002E+02  0.79750E+05
 0.48950001E+02  0.13125E+06
 0.49000000E+02  0.28065E+06
 0.49049999E+02  0.47720E+06
 0.49100002E+02  0.57066E+06
 0.49150002E+02  0.52346E+06
 0.49200001E+02  0.39554E+06
 0.49250000E+02  0.19542E+06
 0.49299999E+02 -0.72769E+05
 0.49350002E+02 -0.45156E+06
 0.49400002E+02 -0.75253E+06
 0.49450001E+02 -0.78704E+06
 0.49500000E+02 -0.66101E+06
 0.49549999E+02 -0.37540E+06
 0.49600002E+02 -0.81884E+05
 0.49650002E+02 -0.39791E+05
 0.49700001E+02 -0.25374E+05
 0.49750000E+02 -0.49133E+05
 0.49799999E+02 -0.11898E+06
 0.49850002E+02 -0.10524E+06
 0.49900002E+02 -0.17651E+06
 0.49950001E+02 -0.33592E+06
 0.50000000E+02 -0.53960E+06
 0.50049999E+02 -0.69394E+06
 0.50100002E+02 -0.76750E+06
 0.50150002E+02 -0.68914E+06
 0.50200001E+02 -0.51996E+06
 0.50250000E+02 -0.39662E+06
 0.50299999E+02 -0.37594E+06
 0.50350002E+02 -0.38789E+06
 0.50400002E+02 -0.27508E+06
 0.50450001E+02 -0.40819E+06
 0.50500000E+02 -0.66670E+06
 0.50549999E+02 -0.88866E+06
 0.50600002E+02 -0.11306E+07
 0.50650002E+02 -0.11248E+07
 0.50700001E+02 -0.11074E+07
 0.50750000E+02 -0.12018E+07
 0.50799999E+02 -0.13005E+07
 0.50850002E+02 -0.13090E+07
 0.50900002E+02 -0.12105E+07
 0.50950001E+02 -0.11327E+07
 0.51000000E+02 -0.10727E+07
 0.51049999E+02 -0.97655E+06
 0.51100002E+02 -0.88903E+06
 0.51150002E+02 -0.10062E+07
 0.51200001E+02 -0.12417E+07
 0.51250000E+02 -0.15049E+07
 0.51299999E+02 -0.18317E+07
 0.51350002E+02 -0.20905E+07
 0.51400002E+02 -0.21713E+07
 0.51450001E+02 -0.20931E+07
 0.51500000E+02 -0.20191E+07
 0.51549999E+02 -0.19028E+07
 0.51600002E+02 -0.16903E+07
 0.51650002E+02 -0.14833E+07
 0.51700001E+02 -0.13275E+07
 0.51750000E+02 -0.12608E+07
 0.51799999E+02 -0.12486E+07
 0.51850002E+02 -0.12632E+07
 0.51900002E+02 -0.12873E+07
 0.51950001E+02 -0.13945E+07
 0.52000000E+02 -0.16441E+07
 0.52049999E+02 -0.17895E+07
 0.52100002E+02 -0.17055E+07
 0.52150002E+02 -0.15611E+07
 0.52200001E+02 -0.13751E+07
 0.52250000E+02 -0.11337E+07
 0.52299999E+02 -0.84756E+06
 0.52350002E+02 -0.47024E+06
 0.52400002E+02 -0.94148E+05
 0.52450001E+02  0.15060E+06
 0.52500000E+02  0.31508E+06
 0.52549999E+02  0.32302E+06
 0.52600002E+02  0.58311E+05
 0.52650002E+02 -0.26978E+06
 0.52700001E+02 -0.56928E+06
 0.52750000E+02 -0.73473E+06
 0.52799999E+02 -0.58616E+06
 0.52850002E+02 -0.24126E+06
 0.52900002E+02  0.37581E+05
 0.52950001E+02  0.19134E+06
 0.53000000E+02  0.28590E+06
 0.53049999E+02  0.25915E+06
 0.53100002E+02  0.19722E+06
 0.53150002E+02  0.23780E+06
 0.53200001E+02  0.34437E+06
 0.53250000E+02  0.35928E+06
 0.53299999E+02  0.33270E+06
 0.53350002E+02  0.36991E+06
 0.53400002E+02  0.22241E+06
 0.53450001E+02 -0.12200E+06
 0.53500000E+02 -0.41325E+06
 0.53549999E+02 -0.56082E+06
 0.53600002E+02 -0.49518E+06
 0.53650002E+02 -0.28257E+06
 0.53700001E+02 -0.96467E+05
 0.53750000E+02 -0.19350E+05
 0.53799999E+02  0.18361E+05
 0.53850002E+02  0.13474E+06
 0.53900002E+02  0.16470E+06
 0.53950001E+02  0.13043E+06
 0.54000000E+02  0.24013E+06
 0.54049999E+02  0.35390E+06
 0.54100002E+02  0.37154E+06
 0.54150002E+02  0.34573E+06
 0.54200001E+02  0.20621E+06
 0.54250000E+02 -0.38110E+04
 0.54299999E+02  0.41842E+05
 0.54350002E+02  0.29277E+06
 0.54400002E+02  0.53108E+06
 0.54450001E+02  0.80128E+06
 0.54500000E+02  0.99906E+06
 0.54549999E+02  0.10493E+07
 0.54600002E+02  0.90627E+06
 0.54650002E+02  0.58835E+06
 0.54700001E+02  0.30281E+06
 0.54750000E+02  0.23898E+06
 0.54799999E+02  0.56699E+06
 0.54850002E+02  0.11082E+07
 0.54900002E+02  0.14796E+07
 0.54950001E+02  0.16504E+07
 0.55000000E+02  0.15962E+07
 0.55049999E+02  0.13671E+07
 0.55100002E+02  0.12492E+07
 0.55150002E+02  0.12333E+07
 0.55200001E+02  0.12093E+07
 0.55250000E+02  0.12201E+07
 0.55299999E+02  0.12457E+07
 0.55350002E+02  0.11711E+07
 0.55400002E+02  0.10472E+07
 0.55450001E+02  0.10877E+07
 0.55500000E+02  0.13504E+07
 0.55549999E+02  0.17291E+07
 0.55600002E+02  0.20645E+07
 0.55650002E+02  0.22143E+07
 0.55700001E+02  0.21605E+07
 0.55750000E+02  0.20762E+07
 0.55799999E+02  0.20042E+07
 0.55850002E+02  0.18217E+07
 0.55900002E+02  0.15432E+07
 0.55950001E+02  0.12210E+07
 0.56000000E+02  0.91767E+06
 0.56049999E+02  0.69802E+06
 0.56100002E+02  0.61688E+06
 0.56150002E+02  0.67958E+06
 0.56200001E+02  0.77336E+06
 0.56250000E+02  0.84312E+06
 0.56299999E+02  0.83395E+06
 0.56350002E+02  0.70758E+06
 0.56400002E+02  0.60803E+06
 0.56450001E+02  0.61367E+06
 0.56500000E+02  0.61563E+06
 0.56549999E+02  0.55116E+06
 0.56600002E+02  0.42160E+06
 0.56650002E+02  0.20996E+06
 0.56700001E+02 -0.59630E+05
 0.56750000E+02 -0.29154E+06
 0.56799999E+02 -0.33916E+06
 0.56850002E+02 -0.20573E+06
 0.56900002E+02 -0.28247E+05
 0.56950001E+02  0.37790E+05
 0.57000000E+02 -0.62010E+05
 0.57049999E+02 -0.21699E+06
 0.57100002E+02 -0.43013E+06
 0.57150002E+02 -0.59949E+06
 0.57200001E+02 -0.51733E+06
 0.57250000E+02 -0.17070E+06
 0.57299999E+02  0.31822E+06
 0.57350002E+02  0.68341E+06
 0.57400002E+02  0.76149E+06
 0.57450001E+02  0.65221E+06
 0.57500000E+02  0.50834E+06
 0.57549999E+02  0.39944E+06
 0.57600002E+02  0.29942E+06
 0.57650002E+02  0.13408E+06
 0.57700001E+02 -0.82432E+05
 0.57750000E+02 -0.27916E+06
 0.57799999E+02 -0.45471E+06
 0.57850002E+02 -0.51046E+06
 0.57900002E+02 -0.30963E+06
 0.57950001E+02  0.10077E+06
 0.58000000E+02  0.66656E+06
 0.58049999E+02  0.12330E+07
 0.58100002E+02  0.15707E+07
 0.58150002E+02  0.17256E+07
 0.58200001E+02  0.17705E+07
 0.58250000E+02  0.16515E+07
 0.58299999E+02  0.13366E+07
 0.58350002E+02  0.92057E+06
 0.58400002E+02  0.57928E+06
 0.58450001E+02  0.37762E+06
 0.58500000E+02  0.29116E+06
 0.58549999E+02  0.27539E+06
 0.58600002E+02  0.33739E+06
 0.58650002E+02  0.46121E+06
 0.58700001E+02  0.59580E+06
 0.58750000E+02  0.65944E+06
 0.58799999E+02  0.57400E+06
 0.58850002E+02  0.43201E+06
 0.58900002E+02  0.26837E+06
 0.58950001E+02  0.52050E+04
 0.59000000E+02 -0.47967E+06
 0.59049999E+02 -0.12158E+07
 0.59100002E+02 -0.20373E+07
 0.59150002E+02 -0.27566E+07
 0.59200001E+02 -0.32106E+07
 0.59250000E+02 -0.34054E+07
 0.59299999E+02 -0.33866E+07
 0.59350002E+02 -0.32614E+07
 0.59400002E+02 -0.32201E+07
 0.59450001E+02 -0.32851E+07
 0.59500000E+02 -0.33779E+07
 0.59549999E+02 -0.34115E+07
 0.59600002E+02 -0.33155E+07
 0.59650002E+02 -0.30453E+07
 0.59700001E+02 -0.27437E+07
 0.59750000E+02 -0.25148E+07
 0.59799999E+02 -0.23277E+07
 0.59850002E+02 -0.21601E+07
 0.59900002E+02 -0.19113E+07
 0.59950001E+02 -0.15392E+07
 0.60000000E+02 -0.10171E+07
 0.60049999E+02 -0.38301E+06
 0.60100002E+02  0.24302E+06
 0.60150002E+02  0.74912E+06
 0.60200001E+02  0.10964E+07
 0.60250000E+02  0.13005E+07
 0.60299999E+02  0.13518E+07
 0.60350002E+02  0.13229E+07
 0.60400002E+02  0.12541E+07
 0.60450001E+02  0.12172E+07
 0.60500000E+02  0.12234E+07
 0.60549999E+02  0.11762E+07
 0.60600002E+02  0.11364E+07
 0.60650002E+02  0.10986E+07
 0.60700001E+02  0.10294E+07
 0.60750000E+02  0.10149E+07
 0.60799999E+02  0.96428E+06
 0.60850002E+02  0.67412E+06
 0.60900002E+02  0.10287E+06
 0.60950001E+02 -0.64292E+06
 0.61000000E+02 -0.13857E+07
 0.61050003E+02 -0.20071E+07
 0.61099998E+02 -0.24356E+07
 0.61150002E+02 -0.25975E+07
 0.61200005E+02 -0.25469E+07
 0.61250000E+02 -0.23593E+07
 0.61300003E+02 -0.20554E+07
 0.61349998E+02 -0.17614E+07
 0.61400002E+02 -0.16021E+07
 0.61450005E+02 -0.15462E+07
 0.61500000E+02 -0.16137E+07
 0.61550003E+02 -0.18354E+07
 0.61599998E+02 -0.20985E+07
 0.61650002E+02 -0.22961E+07
 0.61700005E+02 -0.23154E+07
 0.61750000E+02 -0.20951E+07
 0.61800003E+02 -0.16237E+07
 0.61849998E+02 -0.95831E+06
 0.61900002E+02 -0.28817E+06
 0.61950005E+02  0.32706E+06
 0.62000000E+02  0.84556E+06
 0.62050003E+02  0.11934E+07
 0.62099998E+02  0.14068E+07
 0.62150002E+02  0.15612E+07
 0.62200005E+02  0.16468E+07
 0.62250000E+02  0.15963E+07
 0.62300003E+02  0.14740E+07
 0.62349998E+02  0.12883E+07
 0.62400002E+02  0.10829E+07
 0.62450005E+02  0.98077E+06
 0.62500000E+02  0.97066E+06
 0.62550003E+02  0.99112E+06
 0.62599998E+02  0.98551E+06
 0.62650002E+02  0.97918E+06
 0.62700005E+02  0.95531E+06
 0.62750000E+02  0.92766E+06
 0.62800003E+02  0.96928E+06
 0.62849998E+02  0.10350E+07
 0.62900002E+02  0.10464E+07
 0.62950005E+02  0.99423E+06
 0.63000000E+02  0.94892E+06
 0.63050003E+02  0.90662E+06
 0.63099998E+02  0.90361E+06
 0.63150002E+02  0.10223E+07
 0.63200005E+02  0.12167E+07
 0.63250000E+02  0.14232E+07
 0.63300003E+02  0.16585E+07
 0.63349998E+02  0.19504E+07
 0.63400002E+02  0.22007E+07
 0.63450005E+02  0.24300E+07
 0.63500000E+02  0.27667E+07
 0.63550003E+02  0.31581E+07
 0.63599998E+02  0.34900E+07
 0.63650002E+02  0.36959E+07
 0.63700005E+02  0.37993E+07
 0.63750000E+02  0.37948E+07
 0.63800003E+02  0.36776E+07
 0.63849998E+02  0.35353E+07
 0.63900002E+02  0.33882E+07
 0.63950005E+02  0.32163E+07
 0.64000000E+02  0.29824E+07
 0.64050003E+02  0.26692E+07
 0.64099998E+02  0.22800E+07
 0.64150002E+02  0.18684E+07
 0.64200005E+02  0.15492E+07
 0.64250000E+02  0.13046E+07
 0.64300003E+02  0.10072E+07
 0.64349998E+02  0.56058E+06
 0.64400002E+02 -0.13501E+05
 0.64450005E+02 -0.64259E+06
 0.64500000E+02 -0.12435E+07
 0.64550003E+02 -0.17274E+07
 0.64599998E+02 -0.20767E+07
 0.64650002E+02 -0.22711E+07
 0.64700005E+02 -0.23121E+07
 0.64750000E+02 -0.22823E+07
 0.64800003E+02 -0.22768E+07
 0.64849998E+02 -0.23036E+07
 0.64900002E+02 -0.22994E+07
 0.64950005E+02 -0.22255E+07
 0.65000000E+02 -0.21056E+07
 0.65050003E+02 -0.19791E+07
 0.65099998E+02 -0.18629E+07
 0.65150002E+02 -0.17938E+07
 0.65200005E+02 -0.17617E+07
 0.65250000E+02 -0.17123E+07
 0.65300003E+02 -0.16207E+07
 0.65349998E+02 -0.14692E+07
 0.65400002E+02 -0.12812E+07
 0.65450005E+02 -0.10754E+07
 0.65500000E+02 -0.83712E+06
 0.65550003E+02 -0.60774E+06
 0.65599998E+02 -0.41272E+06
 0.65650002E+02 -0.21943E+06
 0.65700005E+02 -0.37663E+05
 0.65750000E+02  0.68456E+05
 0.65800003E+02  0.66221E+05
 0.65849998E+02 -0.86820E+04
 0.65900002E+02 -0.11234E+06
 0.65950005E+02 -0.22749E+06
 0.66000000E+02 -0.33699E+06
 0.66050003E+02 -0.44452E+06
 0.66099998E+02 -0.59451E+06
 0.66150002E+02 -0.75334E+06
 0.66200005E+02 -0.85120E+06
 0.66250000E+02 -0.90440E+06
 0.66300003E+02 -0.94725E+06
 0.66349998E+02 -0.10122E+07
 0.66400002E+02 -0.11461E+07
 0.66450005E+02 -0.13381E+07
 0.66500000E+02 -0.15176E+07
 0.66550003E+02 -0.16666E+07
 0.66599998E+02 -0.18299E+07
 0.66650002E+02 -0.20399E+07
 0.66700005E+02 -0.22905E+07
 0.66750000E+02 -0.25507E+07
 0.66800003E+02 -0.27801E+07
 0.66849998E+02 -0.29441E+07
 0.66900002E+02 -0.30024E+07
 0.66950005E+02 -0.29382E+07
 0.67000000E+02 -0.27669E+07
 0.67050003E+02 -0.25130E+07
 0.67099998E+02 -0.22278E+07
 0.67150002E+02 -0.19399E+07
 0.67200005E+02 -0.16400E+07
 0.67250000E+02 -0.13348E+07
 0.67300003E+02 -0.10657E+07
 0.67349998E+02 -0.81231E+06
 0.67400002E+02 -0.52895E+06
 0.67450005E+02 -0.21325E+06
 0.67500000E+02  0.16043E+06
 0.67550003E+02  0.58040E+06
 0.67599998E+02  0.10180E+07
 0.67650002E+02  0.14428E+07
 0.67700005E+02  0.18005E+07
 0.67750000E+02  0.20997E+07
 0.67800003E+02  0.23687E+07
 0.67849998E+02  0.26041E+07
 0.67900002E+02  0.28207E+07
 0.67950005E+02  0.30348E+07
 0.68000000E+02  0.32184E+07
 0.68050003E+02  0.33277E+07
 0.68099998E+02  0.33374E+07
 0.68150002E+02  0.32763E+07
 0.68200005E+02  0.31776E+07
 0.68250000E+02  0.30129E+07
 0.68300003E+02  0.27496E+07
 0.68349998E+02  0.23821E+07
 0.68400002E+02  0.19748E+07
 0.68450005E+02  0.16146E+07
 0.68500000E+02  0.13146E+07
 0.68550003E+02  0.10604E+07
 0.68599998E+02  0.81877E+06
 0.68650002E+02  0.55911E+06
 0.68700005E+02  0.29184E+06
 0.68750000E+02  0.40079E+05
 0.68800003E+02 -0.17658E+06
 0.68849998E+02 -0.36544E+06
 0.68900002E+02 -0.54277E+06
 0.68950005E+02 -0.70053E+06
 0.69000000E+02 -0.84097E+06
 0.69050003E+02 -0.95033E+06
 0.69099998E+02 -0.96673E+06
 0.69150002E+02 -0.87511E+06
 0.69200005E+02 -0.69245E+06
 0.69250000E+02 -0.40049E+06
 0.69300003E+02 -0.15652E+05
 0.69349998E+02  0.40747E+06
 0.69400002E+02  0.80964E+06
 0.69450005E+02  0.11457E+07
 0.69500000E+02  0.14173E+07
 0.69550003E+02  0.16308E+07
 0.69599998E+02  0.18407E+07
 0.69650002E+02  0.21078E+07
 0.69700005E+02  0.23682E+07
 0.69750000E+02  0.25687E+07
 0.69800003E+02  0.26831E+07
 0.69849998E+02  0.26866E+07
 0.69900002E+02  0.26206E+07
 0.69950005E+02  0.24872E+07
 0.70000000E+02  0.22986E+07
 0.70050003E+02  0.20628E+07
 0.70099998E+02  0.17515E+07
 0.70150002E+02  0.13879E+07
 0.70200005E+02  0.94014E+06
 0.70250000E+02  0.39639E+06
 0.70300003E+02 -0.16532E+06
 0.70349998E+02 -0.70203E+06
 0.70400002E+02 -0.12112E+07
 0.70450005E+02 -0.16876E+07
 0.70500000E+02 -0.21408E+07
 0.70550003E+02 -0.26130E+07
 0.70599998E+02 -0.31053E+07
 0.70650002E+02 -0.35966E+07
 0.70700005E+02 -0.40511E+07
 0.70750000E+02 -0.44065E+07
 0.70800003E+02 -0.46166E+07
 0.70849998E+02 -0.46810E+07
 0.70900002E+02 -0.46403E+07
 0.70950005E+02 -0.45152E+07
 0.71000000E+02 -0.43588E+07
 0.71050003E+02 -0.41907E+07
 0.71099998E+02 -0.39538E+07
 0.71150002E+02 -0.36400E+07
 0.71200005E+02 -0.32867E+07
 0.71250000E+02 -0.29269E+07
 0.71300003E+02 -0.25396E+07
 0.71349998E+02 -0.20975E+07
 0.71400002E+02 -0.16125E+07
 0.71450005E+02 -0.10778E+07
 0.71500000E+02 -0.50835E+06
 0.71550003E+02  0.42467E+05
 0.71599998E+02  0.53921E+06
 0.71650002E+02  0.94227E+06
 0.71700005E+02  0.12235E+07
 0.71750000E+02  0.14196E+07
 0.71800003E+02  0.16021E+07
 0.71849998E+02  0.17860E+07
 0.71900002E+02  0.19321E+07
 0.71950005E+02  0.20250E+07
 0.72000000E+02  0.20594E+07
 0.72050003E+02  0.19988E+07
 0.72099998E+02  0.18346E+07
 0.72150002E+02  0.16407E+07
 0.72200005E+02  0.14843E+07
 0.72250000E+02  0.13871E+07
 0.72300003E+02  0.12925E+07
 0.72349998E+02  0.11509E+07
 0.72400002E+02  0.10114E+07
 0.72450005E+02  0.90533E+06
 0.72500000E+02  0.83536E+06
 0.72550003E+02  0.75466E+06
 0.72599998E+02  0.62630E+06
 0.72650002E+02  0.45672E+06
 0.72700005E+02  0.24284E+06
 0.72750000E+02  0.77770E+04
 0.72800003E+02 -0.19173E+06
 0.72849998E+02 -0.28259E+06
 0.72900002E+02 -0.21094E+06
 0.72950005E+02  0.33073E+05
 0.73000000E+02  0.35136E+06
 0.73050003E+02  0.70223E+06
 0.73099998E+02  0.11063E+07
 0.73150002E+02  0.15037E+07
 0.73200005E+02  0.18640E+07
 0.73250000E+02  0.21297E+07
 0.73300003E+02  0.22670E+07
 0.73349998E+02  0.22996E+07
 0.73400002E+02  0.22414E+07
 0.73450005E+02  0.21461E+07
 0.73500000E+02  0.20617E+07
 0.73550003E+02  0.20082E+07
 0.73599998E+02  0.19986E+07
 0.73650002E+02  0.20083E+07
 0.73700005E+02  0.19848E+07
 0.73750000E+02  0.19216E+07
 0.73800003E+02  0.17985E+07
 0.73849998E+02  0.15642E+07
 0.73900002E+02  0.12122E+07
 0.73950005E+02  0.76990E+06
 0.74000000E+02  0.29123E+06
 0.74050003E+02 -0.16736E+06
 0.74099998E+02 -0.58030E+06
 0.74150002E+02 -0.92988E+06
 0.74200005E+02 -0.11831E+07
 0.74250000E+02 -0.13850E+07
 0.74300003E+02 -0.15884E+07
 0.74349998E+02 -0.17451E+07
 0.74400002E+02 -0.18440E+07
 0.74450005E+02 -0.19160E+07
 0.74500000E+02 -0.19740E+07
 0.74550003E+02 -0.20234E+07
 0.74599998E+02 -0.20199E+07
 0.74650002E+02 -0.19191E+07
 0.74700005E+02 -0.17353E+07
 0.74750000E+02 -0.14927E+07
 0.74800003E+02 -0.12192E+07
 0.74849998E+02 -0.94358E+06
 0.74900002E+02 -0.68938E+06
 0.74950005E+02 -0.49540E+06
 0.75000000E+02 -0.35965E+06
 0.75050003E+02 -0.23898E+06
 0.75099998E+02 -0.13060E+06
 0.75150002E+02 -0.31496E+05
 0.75200005E+02  0.64450E+05
 0.75250000E+02  0.11212E+06
 0.75300003E+02  0.10669E+06
 0.75349998E+02  0.89805E+05
 0.75400002E+02  0.81954E+05
 0.75450005E+02  0.98033E+05
 0.75500000E+02  0.11826E+06
 0.75550003E+02  0.89142E+05
 0.75599998E+02 -0.31673E+05
 0.75650002E+02 -0.24594E+06
 0.75700005E+02 -0.50862E+06
 0.75750000E+02 -0.76466E+06
 0.75800003E+02 -0.97319E+06
 0.75849998E+02 -0.11033E+07
 0.75900002E+02 -0.11595E+07
 0.75950005E+02 -0.11645E+07
 0.76000000E+02 -0.11097E+07
 0.76050003E+02 -0.10041E+07
 0.76099998E+02 -0.86064E+06
 0.76150002E+02 -0.69640E+06
 0.76200005E+02 -0.55790E+06
 0.76250000E+02 -0.48319E+06
 0.76300003E+02 -0.47267E+06
 0.76349998E+02 -0.48747E+06
 0.76400002E+02 -0.52682E+06
 0.76450005E+02 -0.57977E+06
 0.76500000E+02 -0.59355E+06
 0.76550003E+02 -0.52646E+06
 0.76599998E+02 -0.37855E+06
 0.76650002E+02 -0.18718E+06
 0.76700005E+02  0.55537E+05
 0.76750000E+02  0.34012E+06
 0.76800003E+02  0.63345E+06
 0.76849998E+02  0.91469E+06
 0.76900002E+02  0.11462E+07
 0.76950005E+02  0.13119E+07
 0.77000000E+02  0.14081E+07
 0.77050003E+02  0.14311E+07
 0.77099998E+02  0.13850E+07
 0.77150002E+02  0.13222E+07
 0.77200005E+02  0.12984E+07
 0.77250000E+02  0.13156E+07
 0.77300003E+02  0.13750E+07
 0.77349998E+02  0.14735E+07
 0.77400002E+02  0.15774E+07
 0.77450005E+02  0.16293E+07
 0.77500000E+02  0.16285E+07
 0.77550003E+02  0.16018E+07
 0.77599998E+02  0.15458E+07
 0.77650002E+02  0.14751E+07
 0.77700005E+02  0.13866E+07
 0.77750000E+02  0.12631E+07
 0.77800003E+02  0.10926E+07
 0.77849998E+02  0.89702E+06
 0.77900002E+02  0.68826E+06
 0.77950005E+02  0.44136E+06
 0.78000000E+02  0.17984E+06
 0.78050003E+02 -0.89830E+05
 0.78099998E+02 -0.38694E+06
 0.78150002E+02 -0.70302E+06
 0.78200005E+02 -0.10012E+07
 0.78250000E+02 -0.12332E+07
 0.78300003E+02 -0.13928E+07
 0.78349998E+02 -0.14882E+07
 0.78400002E+02 -0.15294E+07
 0.78450005E+02 -0.15542E+07
 0.78500000E+02 -0.15922E+07
 0.78550003E+02 -0.16463E+07
 0.78599998E+02 -0.17004E+07
 0.78650002E+02 -0.17259E+07
 0.78700005E+02 -0.17065E+07
 0.78750000E+02 -0.16486E+07
 0.78800003E+02 -0.15608E+07
 0.78849998E+02 -0.14431E+07
 0.78900002E+02 -0.13043E+07
 0.78950005E+02 -0.11412E+07
 0.79000000E+02 -0.94122E+06
 0.79050003E+02 -0.71891E+06
 0.79099998E+02 -0.51000E+06
 0.79150002E+02 -0.35370E+06
 0.79200005E+02 -0.24988E+06
 0.79250000E+02 -0.18254E+06
 0.79300003E+02 -0.15528E+06
 0.79349998E+02 -0.17114E+06
 0.79400002E+02 -0.22143E+06
 0.79450005E+02 -0.28164E+06
 0.79500000E+02 -0.34393E+06
 0.79550003E+02 -0.41010E+06
 0.79599998E+02 -0.47416E+06
 0.79650002E+02 -0.50723E+06
 0.79700005E+02 -0.48398E+06
 0.79750000E+02 -0.41878E+06
 0.79800003E+02 -0.31204E+06
 0.79849998E+02 -0.16535E+06
 0.79900002E+02  0.19610E+05
 0.79950005E+02  0.23837E+06
 0.80000000E+02  0.45772E+06
 0.80050003E+02  0.67388E+06
 0.80099998E+02  0.87974E+06
 0.80150002E+02  0.10487E+07
 0.80200005E+02  0.11806E+07
 0.80250000E+02  0.12943E+07
 0.80300003E+02  0.14239E+07
 0.80349998E+02  0.15662E+07
 0.80400002E+02  0.16803E+07
 0.80450005E+02  0.17521E+07
 0.80500000E+02  0.17819E+07
 0.80550003E+02  0.17551E+07
 0.80599998E+02  0.16708E+07
 0.80650002E+02  0.15666E+07
 0.80700005E+02  0.14591E+07
 0.80750000E+02  0.13344E+07
 0.80800003E+02  0.11854E+07
 0.80849998E+02  0.10192E+07
 0.80900002E+02  0.85277E+06
 0.80950005E+02  0.70336E+06
 0.81000000E+02  0.57652E+06
 0.81050003E+02  0.43273E+06
 0.81099998E+02  0.24283E+06
 0.81150002E+02  0.32316E+05
 0.81200005E+02 -0.17444E+06
 0.81250000E+02 -0.37690E+06
 0.81300003E+02 -0.56254E+06
 0.81349998E+02 -0.69840E+06
 0.81400002E+02 -0.77209E+06
 0.81450005E+02 -0.80206E+06
 0.81500000E+02 -0.80502E+06
 0.81550003E+02 -0.77532E+06
 0.81599998E+02 -0.71146E+06
 0.81650002E+02 -0.62572E+06
 0.81700005E+02 -0.52887E+06
 0.81750000E+02 -0.43072E+06
 0.81800003E+02 -0.35963E+06
 0.81849998E+02 -0.34395E+06
 0.81900002E+02 -0.36697E+06
 0.81950005E+02 -0.39561E+06
 0.82000000E+02 -0.41742E+06
 0.82050003E+02 -0.43017E+06
 0.82099998E+02 -0.42024E+06
 0.82150002E+02 -0.38229E+06
 0.82200005E+02 -0.33145E+06
 0.82250000E+02 -0.27804E+06
 0.82300003E+02 -0.24269E+06
 0.82349998E+02 -0.24120E+06
 0.82400002E+02 -0.26602E+06
 0.82450005E+02 -0.31152E+06
 0.82500000E+02 -0.37581E+06
 0.82550003E+02 -0.44617E+06
 0.82599998E+02 -0.48069E+06
 0.82650002E+02 -0.45973E+06
 0.82700005E+02 -0.41099E+06
 0.82750000E+02 -0.36659E+06
 0.82800003E+02 -0.35441E+06
 0.82849998E+02 -0.38102E+06
 0.82900002E+02 -0.44074E+06
 0.82950005E+02 -0.52845E+06
 0.83000000E+02 -0.62562E+06
 0.83050003E+02 -0.71213E+06
 0.83099998E+02 -0.78690E+06
 0.83150002E+02 -0.84118E+06
 0.83200005E+02 -0.83630E+06
 0.83250000E+02 -0.75804E+06
 0.83300003E+02 -0.63432E+06
 0.83349998E+02 -0.47853E+06
 0.83400002E+02 -0.29520E+06
 0.83450005E+02 -0.12990E+06
 0.83500000E+02 -0.29926E+05
 0.83550003E+02  0.52220E+04
 0.83599998E+02 -0.39420E+04
 0.83650002E+02 -0.41777E+05
 0.83700005E+02 -0.82613E+05
 0.83750000E+02 -0.10385E+06
 0.83800003E+02 -0.10282E+06
 0.83849998E+02 -0.66211E+05
 0.83900002E+02  0.21973E+05
 0.83950005E+02  0.14752E+06
 0.84000000E+02  0.30358E+06
 0.84050003E+02  0.50859E+06
 0.84099998E+02  0.74474E+06
 0.84150002E+02  0.96562E+06
 0.84200005E+02  0.11557E+07
 0.84250000E+02  0.13206E+07
 0.84300003E+02  0.14420E+07
 0.84349998E+02  0.14987E+07
 0.84400002E+02  0.15016E+07
 0.84450005E+02  0.14507E+07
 0.84500000E+02  0.13470E+07
 0.84550003E+02  0.12231E+07
 0.84599998E+02  0.11063E+07
 0.84650002E+02  0.10091E+07
 0.84700005E+02  0.92843E+06
 0.84750000E+02  0.85389E+06
 0.84800003E+02  0.77556E+06
 0.84849998E+02  0.69002E+06
 0.84900002E+02  0.58998E+06
 0.84950005E+02  0.45698E+06
 0.85000000E+02  0.28860E+06
 0.85050003E+02  0.11099E+06
 0.85099998E+02 -0.35079E+05
 0.85150002E+02 -0.14317E+06
 0.85200005E+02 -0.21651E+06
 0.85250000E+02 -0.25179E+06
 0.85300003E+02 -0.26222E+06
 0.85349998E+02 -0.24855E+06
 0.85400002E+02 -0.21337E+06
 0.85450005E+02 -0.15236E+06
 0.85500000E+02 -0.60250E+05
 0.85550003E+02  0.49868E+05
 0.85599998E+02  0.14477E+06
 0.85650002E+02  0.18398E+06
 0.85700005E+02  0.16736E+06
 0.85750000E+02  0.12715E+06
 0.85800003E+02  0.86926E+05
 0.85849998E+02  0.44900E+05
 0.85900002E+02  0.22390E+04
 0.85950005E+02 -0.40145E+05
 0.86000000E+02 -0.94356E+05
 0.86050003E+02 -0.19140E+06
 0.86099998E+02 -0.35561E+06
 0.86150002E+02 -0.54171E+06
 0.86200005E+02 -0.68364E+06
 0.86250000E+02 -0.76460E+06
 0.86300003E+02 -0.79680E+06
 0.86349998E+02 -0.78862E+06
 0.86400002E+02 -0.75958E+06
 0.86450005E+02 -0.73438E+06
 0.86500000E+02 -0.72115E+06
 0.86550003E+02 -0.72218E+06
 0.86599998E+02 -0.73619E+06
 0.86650002E+02 -0.76033E+06
 0.86700005E+02 -0.80162E+06
 0.86750000E+02 -0.86818E+06
 0.86800003E+02 -0.95179E+06
 0.86849998E+02 -0.10268E+07
 0.86900002E+02 -0.10633E+07
 0.86950005E+02 -0.10563E+07
 0.87000000E+02 -0.10147E+07
 0.87050003E+02 -0.93116E+06
 0.87099998E+02 -0.79992E+06
 0.87150002E+02 -0.64908E+06
 0.87200005E+02 -0.50792E+06
 0.87250000E+02 -0.37515E+06
 0.87300003E+02 -0.24630E+06
 0.87349998E+02 -0.11282E+06
 0.87400002E+02  0.26052E+05
 0.87450005E+02  0.16094E+06
 0.87500000E+02  0.29843E+06
 0.87550003E+02  0.44678E+06
 0.87599998E+02  0.60709E+06
 0.87650002E+02  0.76036E+06
 0.87700005E+02  0.87418E+06
 0.87750000E+02  0.94486E+06
 0.87800003E+02  0.98852E+06
 0.87849998E+02  0.10195E+07
 0.87900002E+02  0.10480E+07
 0.87950005E+02  0.10760E+07
 0.88000000E+02  0.10947E+07
 0.88050003E+02  0.11042E+07
 0.88099998E+02  0.11199E+07
 0.88150002E+02  0.11272E+07
 0.88200005E+02  0.11091E+07
 0.88250000E+02  0.10804E+07
 0.88300003E+02  0.10590E+07
 0.88349998E+02  0.10414E+07
 0.88400002E+02  0.10130E+07
 0.88450005E+02  0.97316E+06
 0.88500000E+02  0.92771E+06
 0.88550003E+02  0.87266E+06
 0.88599998E+02  0.79138E+06
 0.88650002E+02  0.69476E+06
 0.88700005E+02  0.61991E+06
 0.88750000E+02  0.58552E+06
 0.88800003E+02  0.59286E+06
 0.88849998E+02  0.62200E+06
 0.88900002E+02  0.63930E+06
 0.88950005E+02  0.62160E+06
 0.89000000E+02  0.55305E+06
 0.89050003E+02  0.42658E+06
 0.89099998E+02  0.25440E+06
 0.89150002E+02  0.53153E+05
 0.89200005E+02 -0.16302E+06
 0.89250000E+02 -0.37756E+06
 0.89300003E+02 -0.57712E+06
 0.89349998E+02 -0.75544E+06
 0.89400002E+02 -0.90329E+06
 0.89450005E+02 -0.10101E+07
 0.89500000E+02 -0.10770E+07
 0.89550003E+02 -0.11143E+07
 0.89599998E+02 -0.11368E+07
 0.89650002E+02 -0.11599E+07
 0.89700005E+02 -0.11991E+07
 0.89750000E+02 -0.12530E+07
 0.89800003E+02 -0.13037E+07
 0.89849998E+02 -0.13475E+07
 0.89900002E+02 -0.13688E+07
 0.89950005E+02 -0.13488E+07
 0.90000000E+02 -0.13068E+07
 0.90050003E+02 -0.12740E+07
 0.90099998E+02 -0.12661E+07
 0.90150002E+02 -0.12859E+07
 0.90200005E+02 -0.13375E+07
 0.90250000E+02 -0.14052E+07
 0.90300003E+02 -0.14584E+07
 0.90349998E+02 -0.14812E+07
 0.90400002E+02 -0.14651E+07
 0.90450005E+02 -0.14044E+07
 0.90500000E+02 -0.12896E+07
 0.90550003E+02 -0.11313E+07
 0.90599998E+02 -0.93698E+06
 0.90650002E+02 -0.72074E+06
 0.90700005E+02 -0.51251E+06
 0.90750000E+02 -0.31798E+06
 0.90800003E+02 -0.13699E+06
 0.90849998E+02  0.43555E+05
 0.90900002E+02  0.21584E+06
 0.90950005E+02  0.36164E+06
 0.91000000E+02  0.48614E+06
 0.91050003E+02  0.58958E+06
 0.91099998E+02  0.67106E+06
 0.91150002E+02  0.72821E+06
 0.91200005E+02  0.77499E+06
 0.91250000E+02  0.83172E+06
 0.91300003E+02  0.91202E+06
 0.91349998E+02  0.10149E+07
 0.91400002E+02  0.11225E+07
 0.91450005E+02  0.12239E+07
 0.91500000E+02  0.13042E+07
 0.91550003E+02  0.13494E+07
 0.91599998E+02  0.13593E+07
 0.91650002E+02  0.13515E+07
 0.91700005E+02  0.13394E+07
 0.91750000E+02  0.13109E+07
 0.91800003E+02  0.12609E+07
 0.91849998E+02  0.11977E+07
 0.91900002E+02  0.11202E+07
 0.91950005E+02  0.10168E+07
 0.92000000E+02  0.88826E+06
 0.92050003E+02  0.75159E+06
 0.92099998E+02  0.62117E+06
 0.92150002E+02  0.50101E+06
 0.92200005E+02  0.38453E+06
 0.92250000E+02  0.25978E+06
 0.92300003E+02  0.12948E+06
 0.92349998E+02  0.28510E+04
 0.92400002E+02 -0.11590E+06
 0.92450005E+02 -0.22260E+06
 0.92500000E+02 -0.32038E+06
 0.92550003E+02 -0.40270E+06
 0.92599998E+02 -0.46157E+06
 0.92650002E+02 -0.50521E+06
 0.92700005E+02 -0.53393E+06
 0.92750000E+02 -0.53989E+06
 0.92800003E+02 -0.52014E+06
 0.92849998E+02 -0.47684E+06
 0.92900002E+02 -0.41775E+06
 0.92950005E+02 -0.35141E+06
 0.93000000E+02 -0.28590E+06
 0.93050003E+02 -0.22441E+06
 0.93099998E+02 -0.15575E+06
 0.93150002E+02 -0.80750E+05
 0.93200005E+02 -0.51490E+04
 0.93250000E+02  0.83101E+05
 0.93300003E+02  0.18812E+06
 0.93349998E+02  0.30171E+06
 0.93400002E+02  0.39816E+06
 0.93450005E+02  0.45877E+06
 0.93500000E+02  0.49063E+06
 0.93550003E+02  0.50458E+06
 0.93599998E+02  0.50977E+06
 0.93650002E+02  0.50468E+06
 0.93700005E+02  0.48638E+06
 0.93750000E+02  0.46058E+06
 0.93800003E+02  0.43530E+06
 0.93849998E+02  0.40813E+06
 0.93900002E+02  0.37016E+06
 0.93950005E+02  0.30762E+06
 0.94000000E+02  0.21890E+06
 0.94050003E+02  0.12206E+06
 0.94099998E+02  0.22603E+05
 0.94150002E+02 -0.81363E+05
 0.94200005E+02 -0.19590E+06
 0.94250000E+02 -0.31353E+06
 0.94300003E+02 -0.42144E+06
 0.94349998E+02 -0.51896E+06
 0.94400002E+02 -0.60212E+06
 0.94450005E+02 -0.67587E+06
 0.94500000E+02 -0.74527E+06
 0.94550003E+02 -0.80902E+06
 0.94599998E+02 -0.86123E+06
 0.94650002E+02 -0.89598E+06
 0.94700005E+02 -0.90464E+06
 0.94750000E+02 -0.87645E+06
 0.94800003E+02 -0.81172E+06
 0.94849998E+02 -0.71098E+06
 0.94900002E+02 -0.58720E+06
 0.94950005E+02 -0.46792E+06
 0.95000000E+02 -0.36240E+06
 0.95050003E+02 -0.25898E+06
 0.95099998E+02 -0.15335E+06
 0.95150002E+02 -0.56376E+05
 0.95200005E+02  0.18218E+05
 0.95250000E+02  0.65384E+05
 0.95300003E+02  0.99618E+05
 0.95349998E+02  0.13873E+06
 0.95400002E+02  0.18332E+06
 0.95450005E+02  0.22874E+06
 0.95500000E+02  0.28077E+06
 0.95550003E+02  0.35440E+06
 0.95599998E+02  0.44649E+06
 0.95650002E+02  0.52875E+06
 0.95700005E+02  0.59571E+06
 0.95750000E+02  0.65969E+06
 0.95800003E+02  0.70926E+06
 0.95849998E+02  0.73034E+06
 0.95900002E+02  0.71624E+06
 0.95950005E+02  0.66105E+06
 0.96000000E+02  0.57274E+06
 0.96050003E+02  0.46661E+06
 0.96099998E+02  0.35736E+06
 0.96150002E+02  0.25579E+06
 0.96200005E+02  0.17196E+06
 0.96250000E+02  0.12303E+06
 0.96300003E+02  0.11036E+06
 0.96349998E+02  0.11334E+06
 0.96400002E+02  0.12883E+06
 0.96450005E+02  0.15264E+06
 0.96500000E+02  0.15819E+06
 0.96550003E+02  0.13523E+06
 0.96599998E+02  0.82585E+05
 0.96650002E+02  0.38200E+04
 0.96700005E+02 -0.83865E+05
 0.96750000E+02 -0.15349E+06
 0.96800003E+02 -0.18626E+06
 0.96849998E+02 -0.18677E+06
 0.96900002E+02 -0.16049E+06
 0.96950005E+02 -0.11636E+06
 0.97000000E+02 -0.60590E+05
 0.97050003E+02  0.51700E+04
 0.97099998E+02  0.69569E+05
 0.97150002E+02  0.11439E+06
 0.97200005E+02  0.13102E+06
 0.97250000E+02  0.12618E+06
 0.97300003E+02  0.10141E+06
 0.97349998E+02  0.65020E+05
 0.97400002E+02  0.32136E+05
 0.97450005E+02  0.13607E+05
 0.97500000E+02  0.11328E+05
 0.97550003E+02  0.12783E+05
 0.97599998E+02  0.58160E+04
 0.97650002E+02 -0.20171E+05
 0.97700005E+02 -0.65888E+05
 0.97750000E+02 -0.12545E+06
 0.97800003E+02 -0.21066E+06
 0.97849998E+02 -0.32697E+06
 0.97900002E+02 -0.44928E+06
 0.97950005E+02 -0.56027E+06
 0.98000000E+02 -0.66162E+06
 0.98050003E+02 -0.75139E+06
 0.98099998E+02 -0.81680E+06
 0.98150002E+02 -0.85239E+06
 0.98200005E+02 -0.87512E+06
 0.98250000E+02 -0.88616E+06
 0.98300003E+02 -0.87804E+06
 0.98349998E+02 -0.85338E+06
 0.98400002E+02 -0.81375E+06
 0.98450005E+02 -0.76542E+06
 0.98500000E+02 -0.70889E+06
 0.98550003E+02 -0.64318E+06
 0.98599998E+02 -0.56774E+06
 0.98650002E+02 -0.49028E+06
 0.98700005E+02 -0.41520E+06
 0.98750000E+02 -0.32572E+06
 0.98800003E+02 -0.21117E+06
 0.98849998E+02 -0.84516E+05
 0.98900002E+02  0.31087E+05
 0.98950005E+02  0.13675E+06
 0.99000000E+02  0.23956E+06
 0.99050003E+02  0.33515E+06
 0.99099998E+02  0.42255E+06
 0.99150002E+02  0.50698E+06
 0.99200005E+02  0.59176E+06
 0.99250000E+02  0.66334E+06
 0.99300003E+02  0.71940E+06
 0.99349998E+02  0.75735E+06
 0.99400002E+02  0.77541E+06
 0.99450005E+02  0.79060E+06
 0.99500000E+02  0.80498E+06
 0.99550003E+02  0.81479E+06
 0.99599998E+02  0.81481E+06
 0.99650002E+02  0.79893E+06
 0.99700005E+02  0.76640E+06
 0.99750000E+02  0.71803E+06
 0.99800003E+02  0.65624E+06
 0.99849998E+02  0.58907E+06
 0.99900002E+02  0.52212E+06
 0.99950005E+02  0.44462E+06
 0.10000000E+03  0.35867E+06
 0.10005000E+03  0.27416E+06
 0.10010000E+03  0.19565E+06
 0.10015000E+03  0.13416E+06
 0.10020000E+03  0.10105E+06
 0.10025000E+03  0.10104E+06
 0.10030000E+03  0.12213E+06
 0.10035000E+03  0.14013E+06
 0.10040000E+03  0.13614E+06
 0.10045000E+03  0.96355E+05
 0.10050000E+03  0.17110E+05
 0.10055000E+03 -0.78933E+05
 0.10060000E+03 -0.17715E+06
 0.10065000E+03 -0.27718E+06
 0.10070000E+03 -0.36953E+06
 0.10075000E+03 -0.45211E+06
 0.10080000E+03 -0.51957E+06
 0.10085000E+03 -0.56053E+06
 0.10090000E+03 -0.57641E+06
 0.10095000E+03 -0.58008E+06
 0.10100000E+03 -0.58124E+06
 0.10105000E+03 -0.58192E+06
 0.10110000E+03 -0.58328E+06
 0.10115000E+03 -0.58858E+06
 0.10120000E+03 -0.60593E+06
 0.10125000E+03 -0.63591E+06
 0.10130000E+03 -0.66014E+06
 0.10135000E+03 -0.65580E+06
 0.10140000E+03 -0.62057E+06
 0.10145000E+03 -0.56459E+06
 0.10150000E+03 -0.49173E+06
 0.10155000E+03 -0.40961E+06
 0.10160000E+03 -0.33530E+06
 0.10165000E+03 -0.28162E+06
 0.10170000E+03 -0.25057E+06
 0.10175000E+03 -0.23972E+06
 0.10180000E+03 -0.24118E+06
 0.10185000E+03 -0.23982E+06
 0.10190000E+03 -0.22500E+06
 0.10195000E+03 -0.19036E+06
 0.10200000E+03 -0.12834E+06
 0.10205000E+03 -0.41920E+05
 0.10210000E+03  0.60644E+05
 0.10215000E+03  0.16972E+06
 0.10220000E+03  0.27990E+06
 0.10225000E+03  0.39520E+06
 0.10230000E+03  0.51750E+06
 0.10235000E+03  0.64447E+06
 0.10240000E+03  0.75959E+06
 0.10245000E+03  0.84656E+06
 0.10250000E+03  0.89840E+06
 0.10255000E+03  0.91599E+06
 0.10260000E+03  0.91498E+06
 0.10265000E+03  0.90944E+06
 0.10270000E+03  0.90641E+06
 0.10275000E+03  0.90317E+06
 0.10280000E+03  0.89356E+06
 0.10285000E+03  0.86913E+06
 0.10290000E+03  0.81976E+06
 0.10295000E+03  0.75535E+06
 0.10300000E+03  0.69701E+06
 0.10305000E+03  0.65445E+06
 0.10310000E+03  0.61932E+06
 0.10315000E+03  0.57778E+06
 0.10320000E+03  0.52023E+06
 0.10325000E+03  0.44155E+06
 0.10330000E+03  0.34486E+06
 0.10335000E+03  0.24288E+06
 0.10340000E+03  0.15216E+06
 0.10345000E+03  0.75158E+05
 0.10350000E+03  0.99770E+04
 0.10355000E+03 -0.48099E+05
 0.10360000E+03 -0.10862E+06
 0.10365000E+03 -0.17394E+06
 0.10370000E+03 -0.24516E+06
 0.10375000E+03 -0.31766E+06
 0.10380000E+03 -0.38948E+06
 0.10385000E+03 -0.46059E+06
 0.10390000E+03 -0.52555E+06
 0.10395000E+03 -0.58059E+06
 0.10400000E+03 -0.62198E+06
 0.10405000E+03 -0.64200E+06
 0.10410000E+03 -0.63712E+06
 0.10415000E+03 -0.61696E+06
 0.10420000E+03 -0.59048E+06
 0.10425000E+03 -0.55649E+06
 0.10430000E+03 -0.50462E+06
 0.10435000E+03 -0.43144E+06
 0.10440000E+03 -0.34600E+06
 0.10445000E+03 -0.26220E+06
 0.10450000E+03 -0.18671E+06
 0.10455000E+03 -0.11361E+06
 0.10460000E+03 -0.42742E+05
 0.10465000E+03  0.19703E+05
 0.10470000E+03  0.67981E+05
 0.10475000E+03  0.10164E+06
 0.10480000E+03  0.10829E+06
 0.10485000E+03  0.74255E+05
 0.10490000E+03  0.10466E+05
 0.10495000E+03 -0.64330E+05
 0.10500000E+03 -0.12895E+06
 0.10505000E+03 -0.16853E+06
 0.10510000E+03 -0.18322E+06
 0.10515000E+03 -0.18165E+06
 0.10520000E+03 -0.16734E+06
 0.10525000E+03 -0.15036E+06
 0.10530000E+03 -0.14666E+06
 0.10535000E+03 -0.15611E+06
 0.10540000E+03 -0.17746E+06
 0.10545000E+03 -0.21445E+06
 0.10550000E+03 -0.27163E+06
 0.10555000E+03 -0.34273E+06
 0.10560000E+03 -0.41706E+06
 0.10565000E+03 -0.49065E+06
 0.10570000E+03 -0.54718E+06
 0.10575000E+03 -0.56594E+06
 0.10580000E+03 -0.54788E+06
 0.10585000E+03 -0.50733E+06
 0.10590000E+03 -0.45742E+06
 0.10595000E+03 -0.41317E+06
 0.10600000E+03 -0.37901E+06
 0.10605000E+03 -0.34988E+06
 0.10610000E+03 -0.32432E+06
 0.10615000E+03 -0.29895E+06
 0.10620000E+03 -0.25807E+06
 0.10625000E+03 -0.19111E+06
 0.10630000E+03 -0.10631E+06
 0.10635000E+03 -0.10484E+05
 0.10640000E+03  0.95621E+05
 0.10645000E+03  0.21506E+06
 0.10650000E+03  0.34738E+06
 0.10655000E+03  0.48274E+06
 0.10660000E+03  0.60170E+06
 0.10665000E+03  0.68844E+06
 0.10670000E+03  0.74264E+06
 0.10675000E+03  0.76895E+06
 0.10680000E+03  0.77686E+06
 0.10685000E+03  0.77653E+06
 0.10690000E+03  0.78133E+06
 0.10695000E+03  0.79770E+06
 0.10700000E+03  0.81317E+06
 0.10705000E+03  0.81662E+06
 0.10710000E+03  0.80489E+06
 0.10715000E+03  0.77606E+06
 0.10720000E+03  0.72869E+06
 0.10725000E+03  0.66941E+06
 0.10730000E+03  0.60153E+06
 0.10735000E+03  0.51991E+06
 0.10740000E+03  0.42909E+06
 0.10745000E+03  0.34116E+06
 0.10750000E+03  0.26380E+06
 0.10755000E+03  0.19679E+06
 0.10760000E+03  0.14244E+06
 0.10765000E+03  0.10225E+06
 0.10770000E+03  0.75064E+05
 0.10775000E+03  0.66548E+05
 0.10780000E+03  0.73413E+05
 0.10785000E+03  0.75767E+05
 0.10790000E+03  0.58659E+05
 0.10795000E+03  0.24656E+05
 0.10800000E+03 -0.22306E+05
 0.10805000E+03 -0.78747E+05
 0.10810000E+03 -0.13184E+06
 0.10815000E+03 -0.17228E+06
 0.10820000E+03 -0.19948E+06
 0.10825000E+03 -0.21929E+06
 0.10830000E+03 -0.24276E+06
 0.10835000E+03 -0.27335E+06
 0.10840000E+03 -0.30685E+06
 0.10845000E+03 -0.33409E+06
 0.10850000E+03 -0.34769E+06
 0.10855000E+03 -0.35428E+06
 0.10860000E+03 -0.36010E+06
 0.10865000E+03 -0.36163E+06
 0.10870000E+03 -0.35130E+06
 0.10875000E+03 -0.32643E+06
 0.10880000E+03 -0.29126E+06
 0.10885000E+03 -0.24982E+06
 0.10890000E+03 -0.20210E+06
 0.10895000E+03 -0.15809E+06
 0.10900000E+03 -0.13672E+06
 0.10905000E+03 -0.13881E+06
 0.10910000E+03 -0.15705E+06
 0.10915000E+03 -0.17860E+06
 0.10920000E+03 -0.18899E+06
 0.10925000E+03 -0.19060E+06
 0.10930000E+03 -0.19136E+06
 0.10935000E+03 -0.19886E+06
 0.10940000E+03 -0.21649E+06
 0.10945000E+03 -0.24644E+06
 0.10950000E+03 -0.29189E+06
 0.10955000E+03 -0.34270E+06
 0.10960000E+03 -0.38183E+06
 0.10965000E+03 -0.40596E+06
 0.10970000E+03 -0.41709E+06
 0.10975000E+03 -0.41210E+06
 0.10980000E+03 -0.39600E+06
 0.10985000E+03 -0.37338E+06
 0.10990000E+03 -0.34087E+06
 0.10995000E+03 -0.30048E+06
 0.11000000E+03 -0.26139E+06
 0.11005000E+03 -0.23167E+06
 0.11010000E+03 -0.21292E+06
 0.11015000E+03 -0.20916E+06
 0.11020000E+03 -0.22178E+06
 0.11025000E+03 -0.24076E+06
 0.11030000E+03 -0.26007E+06
 0.11035000E+03 -0.27593E+06
 0.11040000E+03 -0.28134E+06
 0.11045000E+03 -0.27300E+06
 0.11050000E+03 -0.25424E+06
 0.11055000E+03 -0.23489E+06
 0.11060000E+03 -0.21697E+06
 0.11065000E+03 -0.19182E+06
 0.11070000E+03 -0.15625E+06
 0.11075000E+03 -0.11862E+06
 0.11080000E+03 -0.87672E+05
 0.11085000E+03 -0.67556E+05
 0.11090000E+03 -0.58611E+05
 0.11095000E+03 -0.55899E+05
 0.11100000E+03 -0.58073E+05
 0.11105000E+03 -0.58385E+05
 0.11110000E+03 -0.48403E+05
 0.11115000E+03 -0.29882E+05
 0.11120000E+03 -0.53460E+04
 0.11125000E+03  0.13171E+05
 0.11130000E+03  0.15778E+05
 0.11135000E+03  0.81770E+04
 0.11140000E+03 -0.19740E+04
 0.11145000E+03 -0.10540E+05
 0.11150000E+03 -0.16910E+05
 0.11155000E+03 -0.16867E+05
 0.11160000E+03 -0.25760E+04
 0.11165000E+03  0.29793E+05
 0.11170000E+03  0.77081E+05
 0.11175000E+03  0.13432E+06
 0.11180000E+03  0.19715E+06
 0.11185000E+03  0.26188E+06
 0.11190000E+03  0.32643E+06
 0.11195000E+03  0.38377E+06
 0.11200000E+03  0.42874E+06
 0.11205000E+03  0.46218E+06
 0.11210000E+03  0.49146E+06
 0.11215000E+03  0.52021E+06
 0.11220000E+03  0.54194E+06
 0.11225000E+03  0.55812E+06
 0.11230000E+03  0.56976E+06
 0.11235000E+03  0.57772E+06
 0.11240000E+03  0.58318E+06
 0.11245000E+03  0.58012E+06
 0.11250000E+03  0.56830E+06
 0.11255000E+03  0.54961E+06
 0.11260000E+03  0.52424E+06
 0.11265000E+03  0.48949E+06
 0.11270000E+03  0.44165E+06
 0.11275000E+03  0.38378E+06
 0.11280000E+03  0.32224E+06
 0.11285000E+03  0.25558E+06
 0.11290000E+03  0.17994E+06
 0.11295000E+03  0.10230E+06
 0.11300000E+03  0.34472E+05
 0.11305000E+03 -0.14844E+05
 0.11310000E+03 -0.42798E+05
 0.11315000E+03 -0.47815E+05
 0.11320000E+03 -0.28383E+05
 0.11325000E+03  0.10658E+05
 0.11330000E+03  0.54159E+05
 0.11335000E+03  0.93302E+05
 0.11340000E+03  0.13151E+06
 0.11345000E+03  0.16430E+06
 0.11350000E+03  0.18834E+06
 0.11355000E+03  0.20520E+06
 0.11360000E+03  0.21627E+06
 0.11365000E+03  0.22573E+06
 0.11370000E+03  0.23501E+06
 0.11375000E+03  0.24574E+06
 0.11380000E+03  0.25752E+06
 0.11385000E+03  0.26465E+06
 0.11390000E+03  0.26409E+06
 0.11395000E+03  0.25460E+06
 0.11400000E+03  0.23259E+06
 0.11405000E+03  0.19628E+06
 0.11410000E+03  0.14497E+06
 0.11415000E+03  0.79922E+05
 0.11420000E+03  0.49600E+04
 0.11425000E+03 -0.73746E+05
 0.11430000E+03 -0.14828E+06
 0.11435000E+03 -0.21776E+06
 0.11440000E+03 -0.28128E+06
 0.11445000E+03 -0.33445E+06
 0.11450000E+03 -0.37650E+06
 0.11455000E+03 -0.40398E+06
 0.11460000E+03 -0.41101E+06
 0.11465000E+03 -0.40062E+06
 0.11470000E+03 -0.38158E+06
 0.11475000E+03 -0.35861E+06
 0.11480000E+03 -0.33271E+06
 0.11485000E+03 -0.30288E+06
 0.11490000E+03 -0.26952E+06
 0.11495000E+03 -0.23282E+06
 0.11500000E+03 -0.19306E+06
 0.11505000E+03 -0.15170E+06
 0.11510000E+03 -0.10952E+06
 0.11515000E+03 -0.68539E+05
 0.11520000E+03 -0.27770E+05
 0.11525000E+03  0.15365E+05
 0.11530000E+03  0.58224E+05
 0.11535000E+03  0.98385E+05
 0.11540000E+03  0.13518E+06
 0.11545000E+03  0.16673E+06
 0.11550000E+03  0.19562E+06
 0.11555000E+03  0.22408E+06
 0.11560000E+03  0.25389E+06
 0.11565000E+03  0.28399E+06
 0.11570000E+03  0.30511E+06
 0.11575000E+03  0.31287E+06
 0.11580000E+03  0.30556E+06
 0.11585000E+03  0.28282E+06
 0.11590000E+03  0.24904E+06
 0.11595000E+03  0.20511E+06
 0.11600000E+03  0.14927E+06
 0.11605000E+03  0.86409E+05
 0.11610000E+03  0.24522E+05
 0.11615000E+03 -0.32780E+05
 0.11620000E+03 -0.81056E+05
 0.11625000E+03 -0.11772E+06
 0.11630000E+03 -0.14184E+06
 0.11635000E+03 -0.15354E+06
 0.11640000E+03 -0.15636E+06
 0.11645000E+03 -0.15086E+06
 0.11650000E+03 -0.13993E+06
 0.11655000E+03 -0.12913E+06
 0.11660000E+03 -0.12511E+06
 0.11665000E+03 -0.13308E+06
 0.11670000E+03 -0.15290E+06
 0.11675000E+03 -0.18099E+06
 0.11680000E+03 -0.20986E+06
 0.11685000E+03 -0.23875E+06
 0.11690000E+03 -0.27026E+06
 0.11695000E+03 -0.30186E+06
 0.11700000E+03 -0.32834E+06
 0.11705000E+03 -0.34613E+06
 0.11710000E+03 -0.35504E+06
 0.11715000E+03 -0.35078E+06
 0.11720000E+03 -0.33621E+06
 0.11725000E+03 -0.32121E+06
 0.11730000E+03 -0.30534E+06
 0.11735000E+03 -0.28509E+06
 0.11740000E+03 -0.26442E+06
 0.11745000E+03 -0.24501E+06
 0.11750000E+03 -0.22218E+06
 0.11755000E+03 -0.19614E+06
 0.11760000E+03 -0.17015E+06
 0.11765000E+03 -0.14595E+06
 0.11770000E+03 -0.12388E+06
 0.11775000E+03 -0.10117E+06
 0.11780000E+03 -0.79442E+05
 0.11785000E+03 -0.62562E+05
 0.11790000E+03 -0.50076E+05
 0.11795000E+03 -0.37616E+05
 0.11800000E+03 -0.18196E+05
 0.11805000E+03  0.74690E+04
 0.11810000E+03  0.31069E+05
 0.11815000E+03  0.46654E+05
 0.11820000E+03  0.52671E+05
 0.11825000E+03  0.48935E+05
 0.11830000E+03  0.35419E+05
 0.11835000E+03  0.14830E+05
 0.11840000E+03 -0.70260E+04
 0.11845000E+03 -0.26676E+05
 0.11850000E+03 -0.48952E+05
 0.11855000E+03 -0.74680E+05
 0.11860000E+03 -0.94022E+05
 0.11865000E+03 -0.99842E+05
 0.11870000E+03 -0.92109E+05
 0.11875000E+03 -0.75574E+05
 0.11880000E+03 -0.55065E+05
 0.11885000E+03 -0.36549E+05
 0.11890000E+03 -0.29945E+05
 0.11895000E+03 -0.37331E+05
 0.11900000E+03 -0.54922E+05
 0.11905000E+03 -0.78478E+05
 0.11910000E+03 -0.99828E+05
 0.11915000E+03 -0.11630E+06
 0.11920000E+03 -0.12707E+06
 0.11925000E+03 -0.12592E+06
 0.11930000E+03 -0.10798E+06
 0.11935000E+03 -0.73824E+05
 0.11940000E+03 -0.30203E+05
 0.11945000E+03  0.14418E+05
 0.11950000E+03  0.55377E+05
 0.11955000E+03  0.85277E+05
 0.11960000E+03  0.93670E+05
 0.11965000E+03  0.81335E+05
 0.11970000E+03  0.55899E+05
 0.11975000E+03  0.25744E+05
 0.11980000E+03 -0.32830E+04
 0.11985000E+03 -0.32768E+05
 0.11990000E+03 -0.63827E+05
 0.11995000E+03 -0.93648E+05
 0.12000000E+03 -0.11755E+06
 0.12005000E+03 -0.13649E+06
 0.12010000E+03 -0.15319E+06
 0.12015000E+03 -0.16487E+06
 0.12020000E+03 -0.17192E+06
 0.12025000E+03 -0.17775E+06
 0.12030000E+03 -0.18477E+06
 0.12035000E+03 -0.19200E+06
 0.12040000E+03 -0.19226E+06
 0.12045000E+03 -0.18064E+06
 0.12050000E+03 -0.15767E+06
 0.12055000E+03 -0.12629E+06
 0.12060000E+03 -0.91335E+05
 0.12065000E+03 -0.53662E+05
 0.12070000E+03 -0.11500E+05
 0.12075000E+03  0.33606E+05
 0.12080000E+03  0.79390E+05
 0.12085000E+03  0.12640E+06
 0.12090000E+03  0.17705E+06
 0.12095000E+03  0.23577E+06
 0.12100000E+03  0.30480E+06
 0.12105000E+03  0.38184E+06
 0.12110000E+03  0.46632E+06
 0.12115000E+03  0.55342E+06
 0.12120000E+03  0.63546E+06
 0.12125000E+03  0.70666E+06
 0.12130000E+03  0.76002E+06
 0.12135000E+03  0.79002E+06
 0.12140000E+03  0.79318E+06
 0.12145000E+03  0.77153E+06
 0.12150000E+03  0.72971E+06
 0.12155000E+03  0.67677E+06
 0.12160000E+03  0.62306E+06
 0.12165000E+03  0.57195E+06
 0.12170000E+03  0.52359E+06
 0.12175000E+03  0.47800E+06
 0.12180000E+03  0.43703E+06
 0.12185000E+03  0.39604E+06
 0.12190000E+03  0.34985E+06
 0.12195000E+03  0.29826E+06
 0.12200000E+03  0.23975E+06
 0.12205000E+03  0.17269E+06
 0.12210000E+03  0.93549E+05
 0.12215000E+03  0.41940E+04
 0.12220000E+03 -0.89207E+05
 0.12225000E+03 -0.17936E+06
 0.12230000E+03 -0.25728E+06
 0.12235000E+03 -0.31866E+06
 0.12240000E+03 -0.35999E+06
 0.12245000E+03 -0.38093E+06
 0.12250000E+03 -0.38785E+06
 0.12255000E+03 -0.38687E+06
 0.12260000E+03 -0.38025E+06
 0.12265000E+03 -0.36808E+06
 0.12270000E+03 -0.34973E+06
 0.12275000E+03 -0.32372E+06
 0.12280000E+03 -0.28836E+06
 0.12285000E+03 -0.24310E+06
 0.12290000E+03 -0.18908E+06
 0.12295000E+03 -0.12924E+06
 0.12300000E+03 -0.67951E+05
 0.12305000E+03 -0.73520E+04
 0.12310000E+03  0.51244E+05
 0.12315000E+03  0.10196E+06
 0.12320000E+03  0.13911E+06
 0.12325000E+03  0.16370E+06
 0.12330000E+03  0.18264E+06
 0.12335000E+03  0.20112E+06
 0.12340000E+03  0.22097E+06
 0.12345000E+03  0.24428E+06
 0.12350000E+03  0.27006E+06
 0.12355000E+03  0.29634E+06
 0.12360000E+03  0.32203E+06
 0.12365000E+03  0.34225E+06
 0.12370000E+03  0.34956E+06
 0.12375000E+03  0.34033E+06
 0.12380000E+03  0.31709E+06
 0.12385000E+03  0.28409E+06
 0.12390000E+03  0.24971E+06
 0.12395000E+03  0.22417E+06
 0.12400000E+03  0.20729E+06
 0.12405000E+03  0.19041E+06
 0.12410000E+03  0.16783E+06
 0.12415000E+03  0.13874E+06
 0.12420000E+03  0.10228E+06
 0.12425000E+03  0.59104E+05
 0.12430000E+03  0.93050E+04
 0.12435000E+03 -0.48811E+05
 0.12440000E+03 -0.11280E+06
 0.12445000E+03 -0.17860E+06
 0.12450000E+03 -0.24272E+06
 0.12455000E+03 -0.30165E+06
 0.12460000E+03 -0.34952E+06
 0.12465000E+03 -0.38416E+06
 0.12470000E+03 -0.41241E+06
 0.12475000E+03 -0.43981E+06
 0.12480000E+03 -0.46882E+06
 0.12485000E+03 -0.49979E+06
 0.12490000E+03 -0.52986E+06
 0.12495000E+03 -0.55625E+06
 0.12500000E+03 -0.57892E+06
 0.12505000E+03 -0.59993E+06
 0.12510001E+03 -0.61672E+06
 0.12515001E+03 -0.62422E+06
 0.12520000E+03 -0.62316E+06
 0.12525000E+03 -0.61605E+06
 0.12530000E+03 -0.60428E+06
 0.12535001E+03 -0.59144E+06
 0.12540001E+03 -0.58014E+06
 0.12545000E+03 -0.56882E+06
 0.12550000E+03 -0.55570E+06
 0.12555000E+03 -0.54128E+06
 0.12560001E+03 -0.52766E+06
 0.12565001E+03 -0.51538E+06
 0.12570000E+03 -0.50426E+06
 0.12575000E+03 -0.49397E+06
 0.12580000E+03 -0.47624E+06
 0.12585001E+03 -0.44425E+06
 0.12590001E+03 -0.39863E+06
 0.12595000E+03 -0.34096E+06
 0.12600000E+03 -0.27434E+06
 0.12605000E+03 -0.20200E+06
 0.12610001E+03 -0.12986E+06
 0.12615001E+03 -0.63950E+05
 0.12620000E+03 -0.75260E+04
 0.12625000E+03  0.38893E+05
 0.12630000E+03  0.76271E+05
 0.12635001E+03  0.10733E+06
 0.12640001E+03  0.13479E+06
 0.12645000E+03  0.16056E+06
 0.12650000E+03  0.18989E+06
 0.12655000E+03  0.22307E+06
 0.12660001E+03  0.25658E+06
 0.12665001E+03  0.28721E+06
 0.12670000E+03  0.31429E+06
 0.12675000E+03  0.33835E+06
 0.12680000E+03  0.35341E+06
 0.12685001E+03  0.35389E+06
 0.12690001E+03  0.33778E+06
 0.12695000E+03  0.30558E+06
 0.12700000E+03  0.26271E+06
 0.12705000E+03  0.21798E+06
 0.12710001E+03  0.17936E+06
 0.12715001E+03  0.15221E+06
 0.12720000E+03  0.13902E+06
 0.12725000E+03  0.13672E+06
 0.12730000E+03  0.14040E+06
 0.12735001E+03  0.14725E+06
 0.12740001E+03  0.15292E+06
 0.12745000E+03  0.15299E+06
 0.12750000E+03  0.14646E+06
 0.12755000E+03  0.13417E+06
 0.12760001E+03  0.11976E+06
 0.12765001E+03  0.10766E+06
 0.12770000E+03  0.10149E+06
 0.12775000E+03  0.10695E+06
 0.12780000E+03  0.13040E+06
 0.12785001E+03  0.17250E+06
 0.12790001E+03  0.22604E+06
 0.12795000E+03  0.28189E+06
 0.12800000E+03  0.33313E+06
 0.12805000E+03  0.37619E+06
 0.12810001E+03  0.40496E+06
 0.12815001E+03  0.41374E+06
 0.12820000E+03  0.40729E+06
 0.12825000E+03  0.39375E+06
 0.12830000E+03  0.37843E+06
 0.12835001E+03  0.36645E+06
 0.12840001E+03  0.36233E+06
 0.12845000E+03  0.36860E+06
 0.12850000E+03  0.38714E+06
 0.12855000E+03  0.41638E+06
 0.12860001E+03  0.44975E+06
 0.12865001E+03  0.48016E+06
 0.12870000E+03  0.50221E+06
 0.12875000E+03  0.51408E+06
 0.12880000E+03  0.51587E+06
 0.12885001E+03  0.50566E+06
 0.12890001E+03  0.48336E+06
 0.12895000E+03  0.45367E+06
 0.12900000E+03  0.42084E+06
 0.12905000E+03  0.38878E+06
 0.12910001E+03  0.35836E+06
 0.12915001E+03  0.32838E+06
 0.12920000E+03  0.30104E+06
 0.12925000E+03  0.27662E+06
 0.12930000E+03  0.25225E+06
 0.12935001E+03  0.22434E+06
 0.12940001E+03  0.18736E+06
 0.12945000E+03  0.13569E+06
 0.12950000E+03  0.70429E+05
 0.12955000E+03 -0.31150E+04
 0.12960001E+03 -0.79892E+05
 0.12965001E+03 -0.15729E+06
 0.12970000E+03 -0.23661E+06
 0.12975000E+03 -0.31771E+06
 0.12980000E+03 -0.39925E+06
 0.12985001E+03 -0.47735E+06
 0.12990001E+03 -0.54624E+06
 0.12995000E+03 -0.60347E+06
 0.13000000E+03 -0.64836E+06
 0.13005000E+03 -0.67944E+06
 0.13010001E+03 -0.69977E+06
 0.13015001E+03 -0.71554E+06
 0.13020000E+03 -0.72614E+06
 0.13025000E+03 -0.72920E+06
 0.13030000E+03 -0.72459E+06
 0.13035001E+03 -0.71477E+06
 0.13040001E+03 -0.70295E+06
 0.13045000E+03 -0.68826E+06
 0.13050000E+03 -0.66940E+06
 0.13055000E+03 -0.64500E+06
 0.13060001E+03 -0.61305E+06
 0.13065001E+03 -0.57292E+06
 0.13070000E+03 -0.52386E+06
 0.13075000E+03 -0.46471E+06
 0.13080000E+03 -0.39880E+06
 0.13085001E+03 -0.33125E+06
 0.13090001E+03 -0.26483E+06
 0.13095000E+03 -0.20309E+06
 0.13100000E+03 -0.14996E+06
 0.13105000E+03 -0.10792E+06
 0.13110001E+03 -0.75862E+05
 0.13115001E+03 -0.51364E+05
 0.13120000E+03 -0.34228E+05
 0.13125000E+03 -0.22732E+05
 0.13130000E+03 -0.12723E+05
 0.13135001E+03  0.31100E+03
 0.13140001E+03  0.20546E+05
 0.13145000E+03  0.49630E+05
 0.13150000E+03  0.84832E+05
 0.13155000E+03  0.12153E+06
 0.13160001E+03  0.15415E+06
 0.13165001E+03  0.17827E+06
 0.13170000E+03  0.19293E+06
 0.13175000E+03  0.19596E+06
 0.13180000E+03  0.18630E+06
 0.13185001E+03  0.16797E+06
 0.13190001E+03  0.14714E+06
 0.13195000E+03  0.13035E+06
 0.13200000E+03  0.12363E+06
 0.13205000E+03  0.13246E+06
 0.13210001E+03  0.16030E+06
 0.13215001E+03  0.20624E+06
 0.13220000E+03  0.26594E+06
 0.13225000E+03  0.33300E+06
 0.13230000E+03  0.40057E+06
 0.13235001E+03  0.46328E+06
 0.13240001E+03  0.51938E+06
 0.13245000E+03  0.56796E+06
 0.13250000E+03  0.60789E+06
 0.13255000E+03  0.63960E+06
 0.13260001E+03  0.66236E+06
 0.13265001E+03  0.67728E+06
 0.13270000E+03  0.68628E+06
 0.13275000E+03  0.69034E+06
 0.13280000E+03  0.68980E+06
 0.13285001E+03  0.68131E+06
 0.13290001E+03  0.66035E+06
 0.13295000E+03  0.62600E+06
 0.13300000E+03  0.58147E+06
 0.13305000E+03  0.52918E+06
 0.13310001E+03  0.47267E+06
 0.13315001E+03  0.41548E+06
 0.13320000E+03  0.35495E+06
 0.13325000E+03  0.28569E+06
 0.13330000E+03  0.20573E+06
 0.13335001E+03  0.11565E+06
 0.13340001E+03  0.18003E+05
 0.13345000E+03 -0.80772E+05
 0.13350000E+03 -0.17813E+06
 0.13355000E+03 -0.27410E+06
 0.13360001E+03 -0.36720E+06
 0.13365001E+03 -0.45524E+06
 0.13370000E+03 -0.53542E+06
 0.13375000E+03 -0.60596E+06
 0.13380000E+03 -0.66324E+06
 0.13385001E+03 -0.70518E+06
 0.13390001E+03 -0.73489E+06
 0.13395000E+03 -0.75576E+06
 0.13400000E+03 -0.76602E+06
 0.13405000E+03 -0.76224E+06
 0.13410001E+03 -0.74161E+06
 0.13415001E+03 -0.70378E+06
 0.13420000E+03 -0.65452E+06
 0.13425000E+03 -0.59930E+06
 0.13430000E+03 -0.54262E+06
 0.13435001E+03 -0.48839E+06
 0.13440001E+03 -0.43542E+06
 0.13445000E+03 -0.38035E+06
 0.13450000E+03 -0.32280E+06
 0.13455000E+03 -0.26572E+06
 0.13460001E+03 -0.21385E+06
 0.13465001E+03 -0.17095E+06
 0.13470000E+03 -0.13480E+06
 0.13475000E+03 -0.99074E+05
 0.13480000E+03 -0.58074E+05
 0.13485001E+03 -0.88190E+04
 0.13490001E+03  0.49189E+05
 0.13495000E+03  0.11178E+06
 0.13500000E+03  0.16991E+06
 0.13505000E+03  0.21780E+06
 0.13510001E+03  0.25506E+06
 0.13515001E+03  0.28594E+06
 0.13520000E+03  0.31391E+06
 0.13525000E+03  0.34004E+06
 0.13530000E+03  0.36363E+06
 0.13535001E+03  0.38055E+06
 0.13540001E+03  0.39034E+06
 0.13545000E+03  0.39429E+06
 0.13550000E+03  0.39411E+06
 0.13555000E+03  0.38791E+06
 0.13560001E+03  0.37173E+06
 0.13565001E+03  0.34583E+06
 0.13570000E+03  0.31028E+06
 0.13575000E+03  0.26619E+06
 0.13580000E+03  0.21384E+06
 0.13585001E+03  0.15855E+06
 0.13590001E+03  0.10850E+06
 0.13595000E+03  0.63816E+05
 0.13600000E+03  0.21960E+05
 0.13605000E+03 -0.17632E+05
 0.13610001E+03 -0.56212E+05
 0.13615001E+03 -0.97142E+05
 0.13620000E+03 -0.14330E+06
 0.13625000E+03 -0.19520E+06
 0.13630000E+03 -0.24954E+06
 0.13635001E+03 -0.30242E+06
 0.13640001E+03 -0.34862E+06
 0.13645000E+03 -0.38428E+06
 0.13650000E+03 -0.40835E+06
 0.13655000E+03 -0.41762E+06
 0.13660001E+03 -0.41158E+06
 0.13665001E+03 -0.39137E+06
 0.13670000E+03 -0.35882E+06
 0.13675000E+03 -0.31530E+06
 0.13680000E+03 -0.26402E+06
 0.13685001E+03 -0.21226E+06
 0.13690001E+03 -0.16189E+06
 0.13695000E+03 -0.11290E+06
 0.13700000E+03 -0.65324E+05
 0.13705000E+03 -0.17639E+05
 0.13710001E+03  0.31791E+05
 0.13715001E+03  0.85260E+05
 0.13720000E+03  0.14061E+06
 0.13725000E+03  0.19420E+06
 0.13730000E+03  0.24172E+06
 0.13735001E+03  0.27923E+06
 0.13740001E+03  0.30765E+06
 0.13745000E+03  0.32687E+06
 0.13750000E+03  0.33504E+06
 0.13755000E+03  0.32913E+06
 0.13760001E+03  0.30993E+06
 0.13765001E+03  0.28062E+06
 0.13770000E+03  0.24158E+06
 0.13775000E+03  0.19648E+06
 0.13780000E+03  0.14928E+06
 0.13785001E+03  0.10454E+06
 0.13790001E+03  0.65192E+05
 0.13795000E+03  0.31011E+05
 0.13800000E+03 -0.74200E+03
 0.13805000E+03 -0.34949E+05
 0.13810001E+03 -0.70182E+05
 0.13815001E+03 -0.10640E+06
 0.13820000E+03 -0.14246E+06
 0.13825000E+03 -0.17445E+06
 0.13830000E+03 -0.20276E+06
 0.13835001E+03 -0.22274E+06
 0.13840001E+03 -0.23246E+06
 0.13845000E+03 -0.23337E+06
 0.13850000E+03 -0.22377E+06
 0.13855000E+03 -0.20325E+06
 0.13860001E+03 -0.17179E+06
 0.13865001E+03 -0.13322E+06
 0.13870000E+03 -0.94248E+05
 0.13875000E+03 -0.60398E+05
 0.13880000E+03 -0.32877E+05
 0.13885001E+03 -0.96440E+04
 0.13890001E+03  0.11271E+05
 0.13895000E+03  0.32927E+05
 0.13900000E+03  0.58135E+05
 0.13905000E+03  0.89293E+05
 0.13910001E+03  0.12680E+06
 0.13915001E+03  0.16778E+06
 0.13920000E+03  0.20991E+06
 0.13925000E+03  0.25164E+06
 0.13930000E+03  0.29046E+06
 0.13935001E+03  0.32388E+06
 0.13940001E+03  0.34771E+06
 0.13945000E+03  0.35951E+06
 0.13950000E+03  0.36042E+06
 0.13955000E+03  0.35092E+06
 0.13960001E+03  0.33420E+06
 0.13965001E+03  0.31288E+06
 0.13970000E+03  0.28619E+06
 0.13975000E+03  0.25365E+06
 0.13980000E+03  0.21565E+06
 0.13985001E+03  0.17514E+06
 0.13990001E+03  0.13399E+06
 0.13995000E+03  0.91213E+05
 0.14000000E+03  0.47430E+05
 0.14005000E+03  0.40510E+04
 0.14010001E+03 -0.40012E+05
 0.14015001E+03 -0.86057E+05
 0.14020000E+03 -0.13513E+06
 0.14025000E+03 -0.18866E+06
 0.14030000E+03 -0.24701E+06
 0.14035001E+03 -0.30832E+06
 0.14040001E+03 -0.37076E+06
 0.14045000E+03 -0.43361E+06
 0.14050000E+03 -0.49355E+06
 0.14055000E+03 -0.54619E+06
 0.14060001E+03 -0.58820E+06
 0.14065001E+03 -0.61860E+06
 0.14070000E+03 -0.63835E+06
 0.14075000E+03 -0.64861E+06
 0.14080000E+03 -0.65028E+06
 0.14085001E+03 -0.64536E+06
 0.14090001E+03 -0.63670E+06
 0.14095000E+03 -0.62678E+06
 0.14100000E+03 -0.61598E+06
 0.14105000E+03 -0.59847E+06
 0.14110001E+03 -0.57082E+06
 0.14115001E+03 -0.53384E+06
 0.14120000E+03 -0.48623E+06
 0.14125000E+03 -0.42564E+06
 0.14130000E+03 -0.35040E+06
 0.14135001E+03 -0.26266E+06
 0.14140001E+03 -0.16617E+06
 0.14145000E+03 -0.66073E+05
 0.14150000E+03  0.32119E+05
 0.14155000E+03  0.12472E+06
 0.14160001E+03  0.20730E+06
 0.14165001E+03  0.27687E+06
 0.14170000E+03  0.33469E+06
 0.14175000E+03  0.38288E+06
 0.14180000E+03  0.42285E+06
 0.14185001E+03  0.45726E+06
 0.14190001E+03  0.48832E+06
 0.14195000E+03  0.51555E+06
 0.14200000E+03  0.53664E+06
 0.14205000E+03  0.55144E+06
 0.14210001E+03  0.56030E+06
 0.14215001E+03  0.56225E+06
 0.14220000E+03  0.55719E+06
 0.14225000E+03  0.54543E+06
 0.14230000E+03  0.52962E+06
 0.14235001E+03  0.51219E+06
 0.14240001E+03  0.49171E+06
 0.14245000E+03  0.46758E+06
 0.14250000E+03  0.44247E+06
 0.14255000E+03  0.41767E+06
 0.14260001E+03  0.39009E+06
 0.14265001E+03  0.35482E+06
 0.14270000E+03  0.31167E+06
 0.14275000E+03  0.26446E+06
 0.14280000E+03  0.21688E+06
 0.14285001E+03  0.17268E+06
 0.14290001E+03  0.13425E+06
 0.14295000E+03  0.10309E+06
 0.14300000E+03  0.79666E+05
 0.14305000E+03  0.63744E+05
 0.14310001E+03  0.52723E+05
 0.14315001E+03  0.43587E+05
 0.14320000E+03  0.35638E+05
 0.14325000E+03  0.28854E+05
 0.14330000E+03  0.21820E+05
 0.14335001E+03  0.11848E+05
 0.14340001E+03  0.13390E+04
 0.14345000E+03 -0.64960E+04
 0.14350000E+03 -0.87130E+04
 0.14355000E+03 -0.22900E+04
 0.14360001E+03  0.11555E+05
 0.14365001E+03  0.31281E+05
 0.14370000E+03  0.54486E+05
 0.14375000E+03  0.79082E+05
 0.14380000E+03  0.10300E+06
 0.14385001E+03  0.12271E+06
 0.14390001E+03  0.13690E+06
 0.14395000E+03  0.14739E+06
 0.14400000E+03  0.15712E+06
 0.14405000E+03  0.17005E+06
 0.14410001E+03  0.18918E+06
 0.14415001E+03  0.21460E+06
 0.14420000E+03  0.24665E+06
 0.14425000E+03  0.28393E+06
 0.14430000E+03  0.32201E+06
 0.14435001E+03  0.35446E+06
 0.14440001E+03  0.37712E+06
 0.14445000E+03  0.38861E+06
 0.14450000E+03  0.38762E+06
 0.14455000E+03  0.37628E+06
 0.14460001E+03  0.35539E+06
 0.14465001E+03  0.32650E+06
 0.14470000E+03  0.29413E+06
 0.14475000E+03  0.26091E+06
 0.14480000E+03  0.22834E+06
 0.14485001E+03  0.19372E+06
 0.14490001E+03  0.15381E+06
 0.14495000E+03  0.10767E+06
 0.14500000E+03  0.54593E+05
 0.14505000E+03 -0.38240E+04
 0.14510001E+03 -0.67343E+05
 0.14515001E+03 -0.13689E+06
 0.14520000E+03 -0.21059E+06
 0.14525000E+03 -0.28439E+06
 0.14530000E+03 -0.35531E+06
 0.14535001E+03 -0.42157E+06
 0.14540001E+03 -0.47908E+06
 0.14545000E+03 -0.52527E+06
 0.14550000E+03 -0.56162E+06
 0.14555000E+03 -0.58989E+06
 0.14560001E+03 -0.61035E+06
 0.14565001E+03 -0.62212E+06
 0.14570000E+03 -0.62312E+06
 0.14575000E+03 -0.61176E+06
 0.14580000E+03 -0.59115E+06
 0.14585001E+03 -0.56684E+06
 0.14590001E+03 -0.54348E+06
 0.14595000E+03 -0.52238E+06
 0.14600000E+03 -0.50196E+06
 0.14605000E+03 -0.47968E+06
 0.14610001E+03 -0.45113E+06
 0.14615001E+03 -0.41336E+06
 0.14620000E+03 -0.36418E+06
 0.14625000E+03 -0.30268E+06
 0.14630000E+03 -0.23289E+06
 0.14635001E+03 -0.16078E+06
 0.14640001E+03 -0.91601E+05
 0.14645000E+03 -0.30856E+05
 0.14650000E+03  0.17080E+05
 0.14655000E+03  0.51071E+05
 0.14660001E+03  0.71185E+05
 0.14665001E+03  0.80331E+05
 0.14670000E+03  0.83137E+05
 0.14675000E+03  0.83987E+05
 0.14680000E+03  0.87051E+05
 0.14685001E+03  0.93142E+05
 0.14690001E+03  0.10000E+06
 0.14695000E+03  0.10449E+06
 0.14700000E+03  0.10279E+06
 0.14705000E+03  0.90179E+05
 0.14710001E+03  0.64022E+05
 0.14715001E+03  0.24505E+05
 0.14720000E+03 -0.25522E+05
 0.14725000E+03 -0.81502E+05
 0.14730000E+03 -0.13826E+06
 0.14735001E+03 -0.18996E+06
 0.14740001E+03 -0.23367E+06
 0.14745000E+03 -0.26834E+06
 0.14750000E+03 -0.29307E+06
 0.14755000E+03 -0.30775E+06
 0.14760001E+03 -0.31406E+06
 0.14765001E+03 -0.31418E+06
 0.14770000E+03 -0.30942E+06
 0.14775000E+03 -0.30213E+06
 0.14780000E+03 -0.29353E+06
 0.14785001E+03 -0.28229E+06
 0.14790001E+03 -0.26645E+06
 0.14795000E+03 -0.24433E+06
 0.14800000E+03 -0.21474E+06
 0.14805000E+03 -0.18048E+06
 0.14810001E+03 -0.14663E+06
 0.14815001E+03 -0.11549E+06
 0.14820000E+03 -0.88266E+05
 0.14825000E+03 -0.66403E+05
 0.14830000E+03 -0.51032E+05
 0.14835001E+03 -0.41340E+05
 0.14840001E+03 -0.35127E+05
 0.14845000E+03 -0.29362E+05
 0.14850000E+03 -0.21145E+05
 0.14855000E+03 -0.89700E+04
 0.14860001E+03  0.97580E+04
 0.14865001E+03  0.37328E+05
 0.14870000E+03  0.72205E+05
 0.14875000E+03  0.10940E+06
 0.14880000E+03  0.14380E+06
 0.14885001E+03  0.17264E+06
 0.14890001E+03  0.19600E+06
 0.14895000E+03  0.21454E+06
 0.14900000E+03  0.22869E+06
 0.14905000E+03  0.23996E+06
 0.14910001E+03  0.24847E+06
 0.14915001E+03  0.25386E+06
 0.14920000E+03  0.25651E+06
 0.14925000E+03  0.25697E+06
 0.14930000E+03  0.25824E+06
 0.14935001E+03  0.26220E+06
 0.14940001E+03  0.26603E+06
 0.14945000E+03  0.26783E+06
 0.14950000E+03  0.26774E+06
 0.14955000E+03  0.26460E+06
 0.14960001E+03  0.25733E+06
 0.14965001E+03  0.24589E+06
 0.14970000E+03  0.23180E+06
 0.14975000E+03  0.21760E+06
 0.14980000E+03  0.20438E+06
 0.14985001E+03  0.19255E+06
 0.14990001E+03  0.18312E+06
 0.14995000E+03  0.17662E+06
