-0.29800000E+01  0.23458E+05
-0.29300001E+01  0.21265E+05
-0.28800001E+01  0.17548E+05
-0.28299999E+01  0.12549E+05
-0.27800000E+01  0.73980E+04
-0.27300000E+01  0.27790E+04
-0.26800001E+01 -0.78000E+03
-0.26300001E+01 -0.33180E+04
-0.25799999E+01 -0.60500E+04
-0.25300000E+01 -0.98010E+04
-0.24800000E+01 -0.13746E+05
-0.24300001E+01 -0.16783E+05
-0.23800001E+01 -0.18873E+05
-0.23299999E+01 -0.20926E+05
-0.22800000E+01 -0.23408E+05
-0.22300000E+01 -0.25880E+05
-0.21800001E+01 -0.27648E+05
-0.21300001E+01 -0.28576E+05
-0.20799999E+01 -0.29081E+05
-0.20300000E+01 -0.28683E+05
-0.19800000E+01 -0.26174E+05
-0.19299999E+01 -0.20967E+05
-0.18800000E+01 -0.13976E+05
-0.18300000E+01 -0.75960E+04
-0.17800000E+01 -0.43460E+04
-0.17300000E+01 -0.47570E+04
-0.16799999E+01 -0.72470E+04
-0.16300000E+01 -0.10897E+05
-0.15800000E+01 -0.15866E+05
-0.15300000E+01 -0.22117E+05
-0.14800000E+01 -0.29418E+05
-0.14299999E+01 -0.36978E+05
-0.13800000E+01 -0.43428E+05
-0.13300000E+01 -0.47250E+05
-0.12800000E+01 -0.48256E+05
-0.12300000E+01 -0.48159E+05
-0.11799999E+01 -0.47818E+05
-0.11300000E+01 -0.46399E+05
-0.10800000E+01 -0.43196E+05
-0.10300000E+01 -0.37998E+05
-0.98000002E+00 -0.30731E+05
-0.93000007E+00 -0.21942E+05
-0.87999988E+00 -0.12883E+05
-0.82999992E+00 -0.44840E+04
-0.77999997E+00  0.33290E+04
-0.73000002E+00  0.10884E+05
-0.68000007E+00  0.17750E+05
-0.62999988E+00  0.23036E+05
-0.57999992E+00  0.26586E+05
-0.52999997E+00  0.29198E+05
-0.48000002E+00  0.30821E+05
-0.43000007E+00  0.30596E+05
-0.37999988E+00  0.28378E+05
-0.32999992E+00  0.24389E+05
-0.27999997E+00  0.19350E+05
-0.23000002E+00  0.14218E+05
-0.18000007E+00  0.10037E+05
-0.12999988E+00  0.69880E+04
-0.79999924E-01  0.38810E+04
-0.29999971E-01  0.37400E+03
 0.19999981E-01 -0.33410E+04
 0.69999933E-01 -0.65480E+04
 0.12000012E+00 -0.85200E+04
 0.17000008E+00 -0.98270E+04
 0.22000003E+00 -0.11145E+05
 0.26999998E+00 -0.12713E+05
 0.31999993E+00 -0.13791E+05
 0.37000012E+00 -0.13756E+05
 0.42000008E+00 -0.13304E+05
 0.47000003E+00 -0.13674E+05
 0.51999998E+00 -0.15348E+05
 0.56999993E+00 -0.17899E+05
 0.62000012E+00 -0.21525E+05
 0.67000008E+00 -0.26300E+05
 0.72000003E+00 -0.31651E+05
 0.76999998E+00 -0.37180E+05
 0.81999993E+00 -0.42332E+05
 0.87000012E+00 -0.46977E+05
 0.92000008E+00 -0.51050E+05
 0.97000003E+00 -0.54000E+05
 0.10200000E+01 -0.55807E+05
 0.10700002E+01 -0.56577E+05
 0.11199999E+01 -0.56293E+05
 0.11700001E+01 -0.55316E+05
 0.12200003E+01 -0.53864E+05
 0.12700000E+01 -0.52005E+05
 0.13200002E+01 -0.49899E+05
 0.13699999E+01 -0.47718E+05
 0.14200001E+01 -0.45692E+05
 0.14700003E+01 -0.43433E+05
 0.15200000E+01 -0.40482E+05
 0.15700002E+01 -0.36814E+05
 0.16199999E+01 -0.32669E+05
 0.16700001E+01 -0.29397E+05
 0.17200003E+01 -0.27657E+05
 0.17700000E+01 -0.26746E+05
 0.18200002E+01 -0.26201E+05
 0.18699999E+01 -0.25185E+05
 0.19200001E+01 -0.22932E+05
 0.19700003E+01 -0.19479E+05
 0.20200000E+01 -0.14381E+05
 0.20700002E+01 -0.70350E+04
 0.21199999E+01  0.20780E+04
 0.21700001E+01  0.12031E+05
 0.22200003E+01  0.21552E+05
 0.22700000E+01  0.29699E+05
 0.23200002E+01  0.36805E+05
 0.23699999E+01  0.43077E+05
 0.24200001E+01  0.48061E+05
 0.24700003E+01  0.51856E+05
 0.25200000E+01  0.55314E+05
 0.25700002E+01  0.58541E+05
 0.26199999E+01  0.61020E+05
 0.26700001E+01  0.62817E+05
 0.27200003E+01  0.63873E+05
 0.27700000E+01  0.63665E+05
 0.28200002E+01  0.62618E+05
 0.28699999E+01  0.61970E+05
 0.29200001E+01  0.61519E+05
 0.29700003E+01  0.59750E+05
 0.30200000E+01  0.55888E+05
 0.30700002E+01  0.50195E+05
 0.31199999E+01  0.43228E+05
 0.31700001E+01  0.35583E+05
 0.32200003E+01  0.27915E+05
 0.32700000E+01  0.20227E+05
 0.33200002E+01  0.11820E+05
 0.33699999E+01  0.26120E+04
 0.34200001E+01 -0.65770E+04
 0.34700003E+01 -0.14286E+05
 0.35200000E+01 -0.19315E+05
 0.35700002E+01 -0.21798E+05
 0.36199999E+01 -0.22962E+05
 0.36700001E+01 -0.24186E+05
 0.37200003E+01 -0.26197E+05
 0.37700000E+01 -0.29000E+05
 0.38200002E+01 -0.31372E+05
 0.38699999E+01 -0.31317E+05
 0.39200001E+01 -0.28172E+05
 0.39700003E+01 -0.23595E+05
 0.40200000E+01 -0.19324E+05
 0.40700002E+01 -0.15634E+05
 0.41199999E+01 -0.12860E+05
 0.41700001E+01 -0.11075E+05
 0.42200003E+01 -0.10356E+05
 0.42700000E+01 -0.10938E+05
 0.43200002E+01 -0.12288E+05
 0.43699999E+01 -0.14153E+05
 0.44200001E+01 -0.15917E+05
 0.44700003E+01 -0.16870E+05
 0.45200000E+01 -0.16870E+05
 0.45700002E+01 -0.14987E+05
 0.46199999E+01 -0.10467E+05
 0.46700001E+01 -0.31460E+04
 0.47200003E+01  0.69980E+04
 0.47700000E+01  0.18795E+05
 0.48200002E+01  0.30524E+05
 0.48699999E+01  0.40750E+05
 0.49200001E+01  0.48002E+05
 0.49700003E+01  0.51919E+05
 0.50200000E+01  0.53594E+05
 0.50700002E+01  0.53649E+05
 0.51200004E+01  0.51559E+05
 0.51700006E+01  0.46790E+05
 0.52199998E+01  0.39516E+05
 0.52700000E+01  0.30362E+05
 0.53200002E+01  0.20272E+05
 0.53700004E+01  0.98490E+04
 0.54200006E+01 -0.22000E+03
 0.54699998E+01 -0.81260E+04
 0.55200000E+01 -0.13213E+05
 0.55700002E+01 -0.15963E+05
 0.56200004E+01 -0.16329E+05
 0.56700006E+01 -0.15174E+05
 0.57199998E+01 -0.13598E+05
 0.57700000E+01 -0.11767E+05
 0.58200002E+01 -0.99170E+04
 0.58700004E+01 -0.78750E+04
 0.59200006E+01 -0.44340E+04
 0.59699998E+01  0.92200E+03
 0.60200000E+01  0.74270E+04
 0.60700002E+01  0.14101E+05
 0.61200004E+01  0.19686E+05
 0.61700006E+01  0.23237E+05
 0.62199998E+01  0.24641E+05
 0.62700000E+01  0.24946E+05
 0.63200002E+01  0.26731E+05
 0.63700004E+01  0.31180E+05
 0.64200006E+01  0.36640E+05
 0.64699998E+01  0.40983E+05
 0.65200000E+01  0.43259E+05
 0.65700002E+01  0.43764E+05
 0.66200004E+01  0.43297E+05
 0.66700006E+01  0.42739E+05
 0.67199998E+01  0.42589E+05
 0.67700000E+01  0.42461E+05
 0.68200002E+01  0.41174E+05
 0.68700004E+01  0.37808E+05
 0.69200006E+01  0.32571E+05
 0.69699998E+01  0.25766E+05
 0.70200000E+01  0.17896E+05
 0.70700002E+01  0.10120E+05
 0.71200004E+01  0.24580E+04
 0.71700006E+01 -0.53960E+04
 0.72199998E+01 -0.12966E+05
 0.72700000E+01 -0.20516E+05
 0.73200002E+01 -0.28282E+05
 0.73700004E+01 -0.35660E+05
 0.74200006E+01 -0.41930E+05
 0.74699998E+01 -0.46598E+05
 0.75200000E+01 -0.49137E+05
 0.75700002E+01 -0.49384E+05
 0.76200004E+01 -0.48091E+05
 0.76700006E+01 -0.45851E+05
 0.77199998E+01 -0.42726E+05
 0.77700000E+01 -0.38539E+05
 0.78200002E+01 -0.33222E+05
 0.78700004E+01 -0.26921E+05
 0.79200006E+01 -0.19860E+05
 0.79699998E+01 -0.12440E+05
 0.80200005E+01 -0.48020E+04
 0.80699997E+01  0.25680E+04
 0.81200008E+01  0.85370E+04
 0.81700001E+01  0.12390E+05
 0.82199993E+01  0.14194E+05
 0.82700005E+01  0.14193E+05
 0.83199997E+01  0.12818E+05
 0.83700008E+01  0.11015E+05
 0.84200001E+01  0.93400E+04
 0.84699993E+01  0.73290E+04
 0.85200005E+01  0.42940E+04
 0.85699997E+01  0.53200E+03
 0.86200008E+01 -0.28710E+04
 0.86700001E+01 -0.48200E+04
 0.87199993E+01 -0.51680E+04
 0.87700005E+01 -0.52930E+04
 0.88199997E+01 -0.65780E+04
 0.88700008E+01 -0.90250E+04
 0.89200001E+01 -0.11413E+05
 0.89699993E+01 -0.12494E+05
 0.90200005E+01 -0.11601E+05
 0.90699997E+01 -0.91400E+04
 0.91200008E+01 -0.68740E+04
 0.91700001E+01 -0.54250E+04
 0.92199993E+01 -0.38830E+04
 0.92700005E+01 -0.22440E+04
 0.93199997E+01 -0.88200E+03
 0.93700008E+01 -0.52000E+02
 0.94200001E+01 -0.20300E+03
 0.94699993E+01 -0.80200E+03
 0.95200005E+01 -0.11920E+04
 0.95699997E+01 -0.16110E+04
 0.96200008E+01 -0.18940E+04
 0.96700001E+01 -0.19250E+04
 0.97199993E+01 -0.23220E+04
 0.97700005E+01 -0.27690E+04
 0.98199997E+01 -0.25390E+04
 0.98700008E+01 -0.19420E+04
 0.99200001E+01 -0.20710E+04
 0.99699993E+01 -0.42720E+04
 0.10020000E+02 -0.88060E+04
 0.10070000E+02 -0.14412E+05
 0.10120001E+02 -0.19631E+05
 0.10170000E+02 -0.24026E+05
 0.10219999E+02 -0.27664E+05
 0.10270000E+02 -0.30738E+05
 0.10320000E+02 -0.33349E+05
 0.10370001E+02 -0.34899E+05
 0.10420000E+02 -0.35060E+05
 0.10469999E+02 -0.33552E+05
 0.10520000E+02 -0.29853E+05
 0.10570000E+02 -0.24057E+05
 0.10620001E+02 -0.17026E+05
 0.10670000E+02 -0.10109E+05
 0.10719999E+02 -0.41030E+04
 0.10770000E+02  0.13790E+04
 0.10820000E+02  0.71030E+04
 0.10870001E+02  0.12922E+05
 0.10920000E+02  0.18160E+05
 0.10969999E+02  0.22509E+05
 0.11020000E+02  0.25639E+05
 0.11070000E+02  0.27405E+05
 0.11120001E+02  0.28164E+05
 0.11170000E+02  0.28498E+05
 0.11219999E+02  0.29319E+05
 0.11270000E+02  0.31446E+05
 0.11320000E+02  0.34604E+05
 0.11370001E+02  0.37832E+05
 0.11420000E+02  0.40304E+05
 0.11469999E+02  0.41282E+05
 0.11520000E+02  0.40204E+05
 0.11570000E+02  0.36966E+05
 0.11620001E+02  0.31746E+05
 0.11670000E+02  0.25040E+05
 0.11719999E+02  0.17965E+05
 0.11770000E+02  0.11166E+05
 0.11820000E+02  0.45250E+04
 0.11870001E+02 -0.17470E+04
 0.11920000E+02 -0.69600E+04
 0.11969999E+02 -0.10717E+05
 0.12020000E+02 -0.13255E+05
 0.12070000E+02 -0.14743E+05
 0.12120001E+02 -0.15352E+05
 0.12170000E+02 -0.15167E+05
 0.12219999E+02 -0.13820E+05
 0.12270000E+02 -0.11448E+05
 0.12320000E+02 -0.85820E+04
 0.12370001E+02 -0.52750E+04
 0.12420000E+02 -0.10020E+04
 0.12469999E+02  0.45960E+04
 0.12520000E+02  0.10471E+05
 0.12570000E+02  0.15080E+05
 0.12620001E+02  0.17742E+05
 0.12670000E+02  0.18616E+05
 0.12719999E+02  0.18385E+05
 0.12770000E+02  0.17405E+05
 0.12820000E+02  0.15520E+05
 0.12870001E+02  0.12548E+05
 0.12920000E+02  0.87950E+04
 0.12969999E+02  0.52070E+04
 0.13020000E+02  0.23840E+04
 0.13070002E+02 -0.97000E+02
 0.13120001E+02 -0.33670E+04
 0.13170000E+02 -0.85220E+04
 0.13220001E+02 -0.15029E+05
 0.13270000E+02 -0.21015E+05
 0.13320002E+02 -0.25929E+05
 0.13370001E+02 -0.30072E+05
 0.13420000E+02 -0.33569E+05
 0.13470001E+02 -0.36712E+05
 0.13520000E+02 -0.38866E+05
 0.13570002E+02 -0.39855E+05
 0.13620001E+02 -0.40961E+05
 0.13670000E+02 -0.42383E+05
 0.13720001E+02 -0.43441E+05
 0.13770000E+02 -0.43854E+05
 0.13820002E+02 -0.43568E+05
 0.13870001E+02 -0.43468E+05
 0.13920000E+02 -0.43724E+05
 0.13970001E+02 -0.43165E+05
 0.14020000E+02 -0.41436E+05
 0.14070002E+02 -0.38898E+05
 0.14120001E+02 -0.36199E+05
 0.14170000E+02 -0.33478E+05
 0.14220001E+02 -0.30655E+05
 0.14270000E+02 -0.28457E+05
 0.14320002E+02 -0.27256E+05
 0.14370001E+02 -0.26794E+05
 0.14420000E+02 -0.26165E+05
 0.14470001E+02 -0.24168E+05
 0.14520000E+02 -0.20870E+05
 0.14570002E+02 -0.16871E+05
 0.14620001E+02 -0.12238E+05
 0.14670000E+02 -0.69050E+04
 0.14720001E+02 -0.69200E+03
 0.14770000E+02  0.61870E+04
 0.14820002E+02  0.13272E+05
 0.14870001E+02  0.20391E+05
 0.14920000E+02  0.27104E+05
 0.14970001E+02  0.33329E+05
 0.15020000E+02  0.39642E+05
 0.15070002E+02  0.45855E+05
 0.15120001E+02  0.51025E+05
 0.15170000E+02  0.54730E+05
 0.15220001E+02  0.56922E+05
 0.15270000E+02  0.57569E+05
 0.15320002E+02  0.56986E+05
 0.15370001E+02  0.54847E+05
 0.15420000E+02  0.50548E+05
 0.15470001E+02  0.44336E+05
 0.15520000E+02  0.37257E+05
 0.15570002E+02  0.30843E+05
 0.15620001E+02  0.25824E+05
 0.15670000E+02  0.22178E+05
 0.15720001E+02  0.19760E+05
 0.15770000E+02  0.18442E+05
 0.15820002E+02  0.17981E+05
 0.15870001E+02  0.17513E+05
 0.15920000E+02  0.16318E+05
 0.15970001E+02  0.14909E+05
 0.16020000E+02  0.14123E+05
 0.16070002E+02  0.13886E+05
 0.16120001E+02  0.14093E+05
 0.16170000E+02  0.14630E+05
 0.16220001E+02  0.15247E+05
 0.16270000E+02  0.15999E+05
 0.16320002E+02  0.16814E+05
 0.16370001E+02  0.17530E+05
 0.16420000E+02  0.17962E+05
 0.16470001E+02  0.18453E+05
 0.16520000E+02  0.19536E+05
 0.16570002E+02  0.20788E+05
 0.16620001E+02  0.21312E+05
 0.16670000E+02  0.20578E+05
 0.16720001E+02  0.18620E+05
 0.16770000E+02  0.16057E+05
 0.16820002E+02  0.13817E+05
 0.16870001E+02  0.11937E+05
 0.16920000E+02  0.95820E+04
 0.16970001E+02  0.66160E+04
 0.17020000E+02  0.36820E+04
 0.17070002E+02  0.12300E+04
 0.17120001E+02 -0.11210E+04
 0.17170000E+02 -0.39250E+04
 0.17220001E+02 -0.65990E+04
 0.17270000E+02 -0.82360E+04
 0.17320002E+02 -0.86520E+04
 0.17370001E+02 -0.79780E+04
 0.17420000E+02 -0.67060E+04
 0.17470001E+02 -0.53840E+04
 0.17520000E+02 -0.39050E+04
 0.17570002E+02 -0.18260E+04
 0.17620001E+02  0.13420E+04
 0.17670000E+02  0.59660E+04
 0.17720001E+02  0.11394E+05
 0.17770000E+02  0.16399E+05
 0.17820002E+02  0.20323E+05
 0.17870001E+02  0.22428E+05
 0.17920000E+02  0.22441E+05
 0.17970001E+02  0.20917E+05
 0.18020000E+02  0.17529E+05
 0.18070002E+02  0.12050E+05
 0.18120001E+02  0.53500E+04
 0.18170000E+02 -0.22340E+04
 0.18220001E+02 -0.10373E+05
 0.18270000E+02 -0.18287E+05
 0.18320002E+02 -0.26145E+05
 0.18370001E+02 -0.34401E+05
 0.18420000E+02 -0.42981E+05
 0.18470001E+02 -0.51382E+05
 0.18520000E+02 -0.58809E+05
 0.18570002E+02 -0.65240E+05
 0.18620001E+02 -0.70423E+05
 0.18670000E+02 -0.73526E+05
 0.18720001E+02 -0.74111E+05
 0.18770000E+02 -0.71997E+05
 0.18820002E+02 -0.67776E+05
 0.18870001E+02 -0.61828E+05
 0.18920000E+02 -0.54719E+05
 0.18970001E+02 -0.46821E+05
 0.19020000E+02 -0.36903E+05
 0.19070002E+02 -0.22628E+05
 0.19120001E+02 -0.10070E+04
 0.19170000E+02  0.30734E+05
 0.19220001E+02  0.69482E+05
 0.19270000E+02  0.10847E+06
 0.19320002E+02  0.14104E+06
 0.19370001E+02  0.15542E+06
 0.19420000E+02  0.14887E+06
 0.19470001E+02  0.11536E+06
 0.19520000E+02  0.47731E+05
 0.19570002E+02 -0.35202E+05
 0.19620001E+02 -0.96564E+05
 0.19670000E+02 -0.10332E+06
 0.19720001E+02 -0.72637E+05
 0.19770000E+02 -0.29415E+05
 0.19820002E+02  0.11074E+05
 0.19870001E+02  0.64610E+04
 0.19920000E+02  0.78240E+04
 0.19970001E+02  0.89906E+05
 0.20020000E+02  0.13091E+06
 0.20070002E+02  0.16778E+06
 0.20120001E+02  0.40056E+06
 0.20170000E+02  0.61286E+06
 0.20220001E+02  0.69468E+06
 0.20270000E+02  0.61186E+06
 0.20320002E+02  0.13781E+06
 0.20370001E+02 -0.37081E+06
 0.20420000E+02 -0.64456E+06
 0.20470001E+02 -0.80610E+06
 0.20520000E+02 -0.94651E+06
 0.20570002E+02 -0.12463E+07
 0.20620001E+02 -0.15016E+07
 0.20670000E+02 -0.14090E+07
 0.20720001E+02 -0.11072E+07
 0.20770000E+02 -0.87540E+06
 0.20820002E+02 -0.71641E+06
 0.20870001E+02 -0.52621E+06
 0.20920000E+02 -0.73082E+05
 0.20970001E+02  0.74573E+06
 0.21020000E+02  0.11610E+07
 0.21070002E+02  0.13556E+07
 0.21120001E+02  0.15069E+07
 0.21170000E+02  0.10484E+07
 0.21220001E+02  0.99587E+06
 0.21270000E+02  0.81605E+06
 0.21320002E+02  0.98923E+05
 0.21370001E+02  0.39900E+04
 0.21420000E+02 -0.10882E+06
 0.21470001E+02  0.34925E+05
 0.21520000E+02  0.15714E+06
 0.21570002E+02 -0.25784E+06
 0.21620001E+02 -0.90874E+05
 0.21670000E+02  0.83389E+05
 0.21720001E+02  0.44251E+06
 0.21770000E+02  0.11165E+07
 0.21820002E+02  0.90710E+06
 0.21870001E+02  0.45972E+06
 0.21920000E+02  0.21836E+06
 0.21970001E+02 -0.71211E+05
 0.22020000E+02 -0.19018E+06
 0.22070002E+02 -0.34483E+06
 0.22120001E+02 -0.66298E+06
 0.22170000E+02 -0.11122E+07
 0.22220001E+02 -0.17415E+07
 0.22270000E+02 -0.19988E+07
 0.22320002E+02 -0.17189E+07
 0.22370001E+02 -0.12046E+07
 0.22420000E+02 -0.54265E+06
 0.22470001E+02 -0.11332E+06
 0.22520000E+02 -0.23632E+06
 0.22570002E+02 -0.51516E+06
 0.22620001E+02 -0.30127E+06
 0.22670000E+02 -0.42540E+04
 0.22720001E+02  0.34161E+06
 0.22770000E+02  0.43036E+06
 0.22820002E+02  0.15388E+05
 0.22870001E+02  0.23453E+06
 0.22920000E+02  0.46802E+06
 0.22970001E+02  0.27074E+06
 0.23020000E+02  0.19092E+06
 0.23070002E+02  0.27601E+06
 0.23120001E+02  0.25814E+06
 0.23170000E+02  0.13312E+06
 0.23220001E+02  0.15515E+06
 0.23270000E+02 -0.38657E+05
 0.23320002E+02  0.59893E+06
 0.23370001E+02  0.15319E+07
 0.23420000E+02  0.14337E+07
 0.23470001E+02  0.11875E+07
 0.23520000E+02  0.65301E+06
 0.23570002E+02  0.32442E+06
 0.23620001E+02  0.59138E+06
 0.23670000E+02  0.32196E+05
 0.23720001E+02 -0.11235E+07
 0.23770000E+02 -0.16046E+07
 0.23820002E+02 -0.18549E+07
 0.23870001E+02 -0.17951E+07
 0.23920000E+02 -0.15123E+07
 0.23970001E+02 -0.14173E+07
 0.24020000E+02  0.71938E+06
 0.24070002E+02  0.16516E+07
 0.24120001E+02  0.12904E+05
 0.24170000E+02  0.77754E+06
 0.24220001E+02  0.95102E+06
 0.24270000E+02  0.32559E+06
 0.24320002E+02  0.11004E+07
 0.24370001E+02  0.33951E+06
 0.24420000E+02 -0.18974E+06
 0.24470001E+02  0.37600E+06
 0.24520000E+02 -0.22568E+06
 0.24570002E+02 -0.10907E+07
 0.24620001E+02 -0.81526E+06
 0.24670000E+02 -0.17759E+05
 0.24720001E+02 -0.30271E+06
 0.24770000E+02 -0.11128E+07
 0.24820002E+02 -0.69793E+06
 0.24870001E+02 -0.17986E+06
 0.24920000E+02  0.80838E+06
 0.24970001E+02  0.24250E+07
 0.25020000E+02  0.14967E+07
 0.25070002E+02 -0.94185E+06
 0.25120001E+02 -0.20111E+07
 0.25170000E+02 -0.22763E+07
 0.25220001E+02 -0.17507E+07
 0.25270000E+02  0.21216E+05
 0.25320002E+02  0.69584E+06
 0.25370001E+02 -0.20761E+06
 0.25420000E+02 -0.80493E+06
 0.25470001E+02 -0.61067E+06
 0.25520000E+02  0.34043E+06
 0.25570002E+02  0.98986E+06
 0.25620001E+02  0.92638E+06
 0.25670000E+02  0.20800E+06
 0.25720001E+02 -0.44318E+06
 0.25770000E+02  0.41817E+06
 0.25820002E+02  0.15426E+07
 0.25870001E+02  0.24087E+07
 0.25920000E+02  0.33075E+07
 0.25970001E+02  0.22375E+07
 0.26020000E+02  0.38068E+06
 0.26070002E+02 -0.39739E+06
 0.26120001E+02 -0.12859E+07
 0.26170000E+02 -0.16424E+07
 0.26220001E+02 -0.15535E+07
 0.26270000E+02 -0.14126E+07
 0.26320002E+02 -0.14398E+07
 0.26370001E+02 -0.18631E+07
 0.26420000E+02 -0.90423E+06
 0.26470001E+02  0.28560E+05
 0.26520000E+02 -0.82414E+05
 0.26570002E+02  0.34282E+06
 0.26620001E+02  0.49376E+06
 0.26670000E+02  0.21795E+06
 0.26720001E+02  0.16842E+06
 0.26770000E+02 -0.41483E+05
 0.26820002E+02 -0.74580E+04
 0.26870001E+02  0.25057E+06
 0.26920000E+02  0.57797E+06
 0.26970001E+02  0.14053E+07
 0.27020000E+02  0.23279E+07
 0.27070002E+02  0.25991E+07
 0.27120001E+02  0.24446E+07
 0.27170000E+02  0.24390E+07
 0.27220001E+02  0.24289E+07
 0.27270000E+02  0.23763E+07
 0.27320002E+02  0.18750E+07
 0.27370001E+02  0.11170E+07
 0.27420000E+02  0.72916E+06
 0.27470001E+02  0.71632E+06
 0.27520000E+02  0.78205E+06
 0.27570002E+02  0.44556E+05
 0.27620001E+02 -0.41780E+06
 0.27670000E+02  0.64932E+05
 0.27720001E+02  0.21159E+06
 0.27770000E+02 -0.44162E+05
 0.27820002E+02 -0.43868E+06
 0.27870001E+02 -0.56757E+06
 0.27920000E+02 -0.65081E+06
 0.27970001E+02 -0.13756E+07
 0.28020000E+02 -0.16991E+07
 0.28070002E+02 -0.12029E+07
 0.28120001E+02 -0.28860E+06
 0.28170000E+02  0.83594E+06
 0.28220001E+02  0.14391E+07
 0.28270000E+02  0.16712E+07
 0.28320002E+02  0.15797E+07
 0.28370001E+02  0.11299E+07
 0.28420000E+02  0.78949E+06
 0.28470001E+02  0.49856E+06
 0.28520000E+02  0.76091E+05
 0.28570002E+02 -0.39046E+06
 0.28620001E+02 -0.65687E+06
 0.28670000E+02 -0.10525E+07
 0.28720001E+02 -0.88159E+06
 0.28770000E+02  0.35600E+06
 0.28820002E+02  0.97782E+06
 0.28870001E+02  0.76584E+06
 0.28920000E+02  0.49496E+06
 0.28970001E+02  0.25174E+06
 0.29020000E+02  0.65731E+06
 0.29070000E+02  0.11642E+07
 0.29120003E+02  0.96071E+06
 0.29170002E+02  0.75293E+06
 0.29220001E+02  0.55110E+06
 0.29270000E+02  0.70454E+06
 0.29320000E+02  0.16676E+07
 0.29370003E+02  0.25500E+07
 0.29420002E+02  0.26797E+07
 0.29470001E+02  0.17777E+07
 0.29520000E+02  0.41139E+06
 0.29570000E+02 -0.69613E+06
 0.29620003E+02 -0.10296E+07
 0.29670002E+02 -0.77651E+06
 0.29720001E+02 -0.65783E+06
 0.29770000E+02 -0.67731E+06
 0.29820000E+02 -0.11307E+07
 0.29870003E+02 -0.15427E+07
 0.29920002E+02 -0.13469E+07
 0.29970001E+02 -0.58399E+06
 0.30020000E+02  0.35371E+06
 0.30070000E+02  0.33878E+06
 0.30120003E+02  0.38271E+05
 0.30170002E+02  0.15822E+06
 0.30220001E+02  0.37494E+06
 0.30270000E+02  0.66149E+06
 0.30320000E+02  0.29179E+06
 0.30370003E+02 -0.88552E+06
 0.30420002E+02 -0.20349E+07
 0.30470001E+02 -0.25978E+07
 0.30520000E+02 -0.23197E+07
 0.30570000E+02 -0.14118E+07
 0.30620003E+02 -0.66295E+06
 0.30670002E+02 -0.45337E+05
 0.30720001E+02  0.49459E+06
 0.30770000E+02  0.64465E+06
 0.30820000E+02  0.58487E+06
 0.30870003E+02  0.14776E+06
 0.30920002E+02 -0.55598E+06
 0.30970001E+02 -0.10727E+07
 0.31020000E+02 -0.11982E+07
 0.31070000E+02 -0.11840E+07
 0.31120003E+02 -0.11174E+07
 0.31170002E+02 -0.79379E+06
 0.31220001E+02 -0.63155E+06
 0.31270000E+02 -0.72993E+06
 0.31320000E+02 -0.86642E+06
 0.31370003E+02 -0.11364E+07
 0.31420002E+02 -0.13004E+07
 0.31470001E+02 -0.88176E+06
 0.31520000E+02 -0.45970E+06
 0.31570000E+02 -0.52528E+06
 0.31620003E+02 -0.27910E+06
 0.31670002E+02 -0.11054E+06
 0.31720001E+02 -0.24571E+06
 0.31770000E+02 -0.15654E+06
 0.31820000E+02 -0.57864E+06
 0.31870003E+02 -0.96957E+06
 0.31920002E+02 -0.66700E+06
 0.31970001E+02 -0.70197E+06
 0.32020000E+02 -0.92726E+06
 0.32070000E+02 -0.97416E+06
 0.32120003E+02 -0.14210E+07
 0.32170002E+02 -0.14310E+07
 0.32220001E+02 -0.29438E+06
 0.32270000E+02  0.14360E+07
 0.32320000E+02  0.35060E+07
 0.32370003E+02  0.49828E+07
 0.32420002E+02  0.53102E+07
 0.32470001E+02  0.45500E+07
 0.32520000E+02  0.28500E+07
 0.32570000E+02  0.14847E+07
 0.32620003E+02  0.36834E+06
 0.32670002E+02 -0.14095E+07
 0.32720001E+02 -0.31894E+07
 0.32770000E+02 -0.46862E+07
 0.32820000E+02 -0.62613E+07
 0.32870003E+02 -0.70724E+07
 0.32920002E+02 -0.63817E+07
 0.32970001E+02 -0.44846E+07
 0.33020000E+02 -0.10761E+07
 0.33070000E+02  0.28110E+07
 0.33120003E+02  0.42478E+07
 0.33170002E+02  0.24152E+07
 0.33220001E+02 -0.95852E+06
 0.33270000E+02 -0.46705E+07
 0.33320000E+02 -0.74873E+07
 0.33370003E+02 -0.81168E+07
 0.33420002E+02 -0.72768E+07
 0.33470001E+02 -0.56562E+07
 0.33520000E+02 -0.41337E+07
 0.33570000E+02 -0.32520E+07
 0.33620003E+02 -0.14275E+07
 0.33670002E+02  0.17315E+07
 0.33720001E+02  0.52422E+07
 0.33770000E+02  0.87451E+07
 0.33820000E+02  0.11509E+08
 0.33870003E+02  0.12100E+08
 0.33920002E+02  0.10278E+08
 0.33970001E+02  0.77725E+07
 0.34020000E+02  0.57060E+07
 0.34070000E+02  0.45455E+07
 0.34120003E+02  0.48486E+07
 0.34170002E+02  0.48336E+07
 0.34220001E+02  0.28707E+07
 0.34270000E+02  0.69973E+06
 0.34320000E+02 -0.31252E+06
 0.34370003E+02 -0.18895E+07
 0.34420002E+02 -0.50320E+07
 0.34470001E+02 -0.84051E+07
 0.34520000E+02 -0.10655E+08
 0.34570000E+02 -0.11308E+08
 0.34620003E+02 -0.10942E+08
 0.34670002E+02 -0.90270E+07
 0.34720001E+02 -0.53918E+07
 0.34770000E+02 -0.21625E+07
 0.34820000E+02 -0.52840E+06
 0.34870003E+02 -0.44893E+06
 0.34920002E+02 -0.14096E+07
 0.34970001E+02 -0.17850E+07
 0.35020000E+02 -0.21306E+06
 0.35070000E+02  0.19767E+07
 0.35120003E+02  0.30713E+07
 0.35170002E+02  0.35279E+07
 0.35220001E+02  0.33305E+07
 0.35270000E+02  0.19707E+07
 0.35320000E+02  0.41583E+06
 0.35370003E+02  0.10432E+07
 0.35420002E+02  0.45619E+07
 0.35470001E+02  0.76326E+07
 0.35520000E+02  0.78274E+07
 0.35570000E+02  0.58221E+07
 0.35620003E+02  0.23408E+07
 0.35670002E+02 -0.17990E+07
 0.35720001E+02 -0.45487E+07
 0.35770000E+02 -0.43974E+07
 0.35820000E+02 -0.28761E+07
 0.35870003E+02 -0.14970E+07
 0.35920002E+02 -0.39283E+06
 0.35970001E+02 -0.17435E+06
 0.36020000E+02 -0.79275E+06
 0.36070000E+02 -0.17914E+07
 0.36120003E+02 -0.26667E+07
 0.36170002E+02 -0.30025E+07
 0.36220001E+02 -0.32888E+07
 0.36270000E+02 -0.36767E+07
 0.36320000E+02 -0.37578E+07
 0.36370003E+02 -0.39883E+07
 0.36420002E+02 -0.42716E+07
 0.36470001E+02 -0.37341E+07
 0.36520000E+02 -0.30656E+07
 0.36570000E+02 -0.26837E+07
 0.36620003E+02 -0.18683E+07
 0.36670002E+02 -0.90471E+06
 0.36720001E+02  0.24119E+06
 0.36770000E+02  0.20072E+07
 0.36820000E+02  0.37347E+07
 0.36870003E+02  0.47805E+07
 0.36920002E+02  0.46659E+07
 0.36970001E+02  0.36359E+07
 0.37020000E+02  0.30088E+07
 0.37070000E+02  0.30463E+07
 0.37120003E+02  0.31649E+07
 0.37170002E+02  0.30638E+07
 0.37220001E+02  0.24978E+07
 0.37270000E+02  0.10118E+07
 0.37320000E+02 -0.18816E+07
 0.37370003E+02 -0.51578E+07
 0.37420002E+02 -0.67918E+07
 0.37470001E+02 -0.59777E+07
 0.37520000E+02 -0.35615E+07
 0.37570000E+02 -0.13547E+07
 0.37620003E+02 -0.38701E+06
 0.37670002E+02 -0.26114E+06
 0.37720001E+02 -0.66510E+06
 0.37770000E+02 -0.15954E+07
 0.37820000E+02 -0.24399E+07
 0.37870003E+02 -0.20367E+07
 0.37920002E+02 -0.38582E+06
 0.37970001E+02  0.12647E+07
 0.38020000E+02  0.28389E+07
 0.38070000E+02  0.45024E+07
 0.38120003E+02  0.52843E+07
 0.38170002E+02  0.48683E+07
 0.38220001E+02  0.40517E+07
 0.38270000E+02  0.33309E+07
 0.38320000E+02  0.24655E+07
 0.38370003E+02  0.14957E+07
 0.38420002E+02  0.89484E+06
 0.38470001E+02  0.52901E+06
 0.38520000E+02  0.54138E+05
 0.38570000E+02 -0.34824E+06
 0.38620003E+02 -0.84648E+06
 0.38670002E+02 -0.18469E+07
 0.38720001E+02 -0.33062E+07
 0.38770000E+02 -0.46104E+07
 0.38820000E+02 -0.46677E+07
 0.38870003E+02 -0.32001E+07
 0.38920002E+02 -0.10960E+07
 0.38970001E+02  0.53541E+06
 0.39020000E+02  0.13120E+07
 0.39070000E+02  0.16017E+07
 0.39120003E+02  0.18037E+07
 0.39170002E+02  0.23294E+07
 0.39220001E+02  0.29735E+07
 0.39270000E+02  0.30747E+07
 0.39320000E+02  0.25447E+07
 0.39370003E+02  0.13840E+07
 0.39420002E+02  0.14961E+06
 0.39470001E+02 -0.49688E+06
 0.39520000E+02 -0.10230E+07
 0.39570000E+02 -0.16510E+07
 0.39620003E+02 -0.25688E+07
 0.39670002E+02 -0.38095E+07
 0.39720001E+02 -0.42776E+07
 0.39770000E+02 -0.33968E+07
 0.39820000E+02 -0.16020E+07
 0.39870003E+02  0.60185E+06
 0.39920002E+02  0.28191E+07
 0.39970001E+02  0.47187E+07
 0.40020000E+02  0.60282E+07
 0.40070000E+02  0.63864E+07
 0.40120003E+02  0.58239E+07
 0.40170002E+02  0.46848E+07
 0.40220001E+02  0.32569E+07
 0.40270000E+02  0.20844E+07
 0.40320000E+02  0.12960E+07
 0.40370003E+02  0.51512E+06
 0.40420002E+02 -0.74468E+06
 0.40470001E+02 -0.23203E+07
 0.40520000E+02 -0.30949E+07
 0.40570000E+02 -0.24321E+07
 0.40620003E+02 -0.20307E+06
 0.40670002E+02  0.27495E+07
 0.40720001E+02  0.45898E+07
 0.40770000E+02  0.49839E+07
 0.40820000E+02  0.48273E+07
 0.40870003E+02  0.43540E+07
 0.40920002E+02  0.35652E+07
 0.40970001E+02  0.27530E+07
 0.41020000E+02  0.18967E+07
 0.41070000E+02  0.67731E+06
 0.41120003E+02 -0.90779E+06
 0.41170002E+02 -0.24123E+07
 0.41220001E+02 -0.34029E+07
 0.41270000E+02 -0.33806E+07
 0.41320000E+02 -0.15162E+07
 0.41370003E+02  0.18004E+07
 0.41420002E+02  0.44060E+07
 0.41470001E+02  0.48222E+07
 0.41520000E+02  0.35246E+07
 0.41570000E+02  0.17109E+07
 0.41620003E+02  0.28315E+06
 0.41670002E+02 -0.30032E+06
 0.41720001E+02 -0.29700E+06
 0.41770000E+02 -0.63720E+06
 0.41820000E+02 -0.16352E+07
 0.41870003E+02 -0.23490E+07
 0.41920002E+02 -0.17917E+07
 0.41970001E+02 -0.14435E+06
 0.42020000E+02  0.17509E+07
 0.42070000E+02  0.33811E+07
 0.42120003E+02  0.44631E+07
 0.42170002E+02  0.48859E+07
 0.42220001E+02  0.47977E+07
 0.42270000E+02  0.45364E+07
 0.42320000E+02  0.42284E+07
 0.42370003E+02  0.33509E+07
 0.42420002E+02  0.16343E+07
 0.42470001E+02 -0.19999E+06
 0.42520000E+02 -0.14508E+07
 0.42570000E+02 -0.18728E+07
 0.42620003E+02 -0.16010E+07
 0.42670002E+02 -0.14629E+07
 0.42720001E+02 -0.17018E+07
 0.42770000E+02 -0.18023E+07
 0.42820000E+02 -0.16640E+07
 0.42870003E+02 -0.96623E+06
 0.42920002E+02  0.47013E+06
 0.42970001E+02  0.14955E+07
 0.43020000E+02  0.10102E+07
 0.43070000E+02 -0.19180E+06
 0.43120003E+02 -0.36677E+06
 0.43170002E+02  0.85059E+06
 0.43220001E+02  0.23209E+07
 0.43270000E+02  0.30766E+07
 0.43320000E+02  0.27194E+07
 0.43370003E+02  0.12168E+07
 0.43420002E+02 -0.63672E+06
 0.43470001E+02 -0.17010E+07
 0.43520000E+02 -0.17210E+07
 0.43570000E+02 -0.11418E+07
 0.43620003E+02 -0.26512E+06
 0.43670002E+02  0.63557E+06
 0.43720001E+02  0.14874E+07
 0.43770000E+02  0.23586E+07
 0.43820000E+02  0.26814E+07
 0.43870003E+02  0.20179E+07
 0.43920002E+02  0.78876E+06
 0.43970001E+02 -0.36144E+06
 0.44020000E+02 -0.10402E+07
 0.44070000E+02 -0.14604E+07
 0.44120003E+02 -0.20009E+07
 0.44170002E+02 -0.27298E+07
 0.44220001E+02 -0.36396E+07
 0.44270000E+02 -0.44526E+07
 0.44320000E+02 -0.46823E+07
 0.44370003E+02 -0.42828E+07
 0.44420002E+02 -0.36327E+07
 0.44470001E+02 -0.29933E+07
 0.44520000E+02 -0.25188E+07
 0.44570000E+02 -0.22355E+07
 0.44620003E+02 -0.20122E+07
 0.44670002E+02 -0.17611E+07
 0.44720001E+02 -0.13783E+07
 0.44770000E+02 -0.83707E+06
 0.44820000E+02 -0.17948E+06
 0.44870003E+02  0.38099E+06
 0.44920002E+02  0.35095E+06
 0.44970001E+02 -0.35598E+06
 0.45020000E+02 -0.13849E+07
 0.45070000E+02 -0.22335E+07
 0.45120003E+02 -0.24222E+07
 0.45170002E+02 -0.23472E+07
 0.45220001E+02 -0.26221E+07
 0.45270000E+02 -0.32329E+07
 0.45320000E+02 -0.38614E+07
 0.45370003E+02 -0.39055E+07
 0.45420002E+02 -0.31024E+07
 0.45470001E+02 -0.17557E+07
 0.45520000E+02 -0.20313E+06
 0.45570000E+02  0.10326E+07
 0.45620003E+02  0.13710E+07
 0.45670002E+02  0.10074E+07
 0.45720001E+02  0.57729E+06
 0.45770000E+02  0.30903E+06
 0.45820000E+02  0.21813E+06
 0.45870003E+02  0.27929E+06
 0.45920002E+02  0.45850E+06
 0.45970001E+02  0.55695E+06
 0.46020000E+02  0.43247E+06
 0.46070000E+02  0.36261E+06
 0.46120003E+02  0.45160E+06
 0.46170002E+02  0.71193E+06
 0.46220001E+02  0.11900E+07
 0.46270000E+02  0.16736E+07
 0.46320000E+02  0.19701E+07
 0.46370003E+02  0.19203E+07
 0.46420002E+02  0.13811E+07
 0.46470001E+02  0.45331E+06
 0.46520000E+02 -0.55182E+06
 0.46570000E+02 -0.13521E+07
 0.46620003E+02 -0.18769E+07
 0.46670002E+02 -0.22978E+07
 0.46720001E+02 -0.28331E+07
 0.46770000E+02 -0.36413E+07
 0.46820000E+02 -0.44718E+07
 0.46870003E+02 -0.47403E+07
 0.46920002E+02 -0.43314E+07
 0.46970001E+02 -0.34790E+07
 0.47020000E+02 -0.25263E+07
 0.47070000E+02 -0.17775E+07
 0.47120003E+02 -0.11999E+07
 0.47170002E+02 -0.73998E+06
 0.47220001E+02 -0.29707E+06
 0.47270000E+02  0.30979E+05
 0.47320000E+02 -0.13078E+06
 0.47370003E+02 -0.64739E+06
 0.47420002E+02 -0.13004E+07
 0.47470001E+02 -0.20461E+07
 0.47520000E+02 -0.25556E+07
 0.47570000E+02 -0.25737E+07
 0.47620003E+02 -0.22328E+07
 0.47670002E+02 -0.16802E+07
 0.47720001E+02 -0.71281E+06
 0.47770000E+02  0.55034E+06
 0.47820000E+02  0.16353E+07
 0.47870003E+02  0.23569E+07
 0.47920002E+02  0.26628E+07
 0.47970001E+02  0.26287E+07
 0.48020000E+02  0.22749E+07
 0.48070000E+02  0.16037E+07
 0.48120003E+02  0.92718E+06
 0.48170002E+02  0.52360E+06
 0.48220001E+02  0.32631E+06
 0.48270000E+02  0.25164E+06
 0.48320000E+02  0.38460E+06
 0.48370003E+02  0.60564E+06
 0.48420002E+02  0.71918E+06
 0.48470001E+02  0.69246E+06
 0.48520000E+02  0.59624E+06
 0.48570000E+02  0.58436E+06
 0.48620003E+02  0.62029E+06
 0.48670002E+02  0.59781E+06
 0.48720001E+02  0.57469E+06
 0.48770000E+02  0.51695E+06
 0.48820000E+02  0.44991E+06
 0.48870003E+02  0.55575E+06
 0.48920002E+02  0.91943E+06
 0.48970001E+02  0.13758E+07
 0.49020000E+02  0.15300E+07
 0.49070000E+02  0.12516E+07
 0.49120003E+02  0.75320E+06
 0.49170002E+02  0.26552E+06
 0.49220001E+02 -0.33646E+05
 0.49270000E+02 -0.27387E+06
 0.49320000E+02 -0.57287E+06
 0.49370003E+02 -0.69484E+06
 0.49420002E+02 -0.61838E+06
 0.49470001E+02 -0.36886E+06
 0.49520000E+02 -0.64795E+05
 0.49570000E+02 -0.96440E+05
 0.49620003E+02 -0.44580E+06
 0.49670002E+02 -0.89507E+06
 0.49720001E+02 -0.13081E+07
 0.49770000E+02 -0.14751E+07
 0.49820000E+02 -0.13794E+07
 0.49870003E+02 -0.12891E+07
 0.49920002E+02 -0.13032E+07
 0.49970001E+02 -0.12304E+07
 0.50020000E+02 -0.88620E+06
 0.50070000E+02 -0.22426E+06
 0.50120003E+02  0.64229E+06
 0.50170002E+02  0.14305E+07
 0.50220001E+02  0.18653E+07
 0.50270000E+02  0.19907E+07
 0.50320000E+02  0.19968E+07
 0.50370003E+02  0.19652E+07
 0.50420002E+02  0.17879E+07
 0.50470001E+02  0.14301E+07
 0.50520000E+02  0.10209E+07
 0.50570000E+02  0.46779E+06
 0.50620003E+02 -0.97203E+05
 0.50670002E+02 -0.40276E+06
 0.50720001E+02 -0.64055E+06
 0.50770000E+02 -0.96581E+06
 0.50820000E+02 -0.13119E+07
 0.50870003E+02 -0.15492E+07
 0.50920002E+02 -0.14162E+07
 0.50970001E+02 -0.90888E+06
 0.51020000E+02 -0.26339E+06
 0.51070000E+02  0.42198E+06
 0.51120003E+02  0.99712E+06
 0.51170002E+02  0.13811E+07
 0.51220001E+02  0.16369E+07
 0.51270000E+02  0.17554E+07
 0.51320000E+02  0.16190E+07
 0.51370003E+02  0.10375E+07
 0.51420002E+02  0.21400E+06
 0.51470001E+02 -0.46828E+06
 0.51520000E+02 -0.88792E+06
 0.51570000E+02 -0.11059E+07
 0.51620003E+02 -0.12488E+07
 0.51670002E+02 -0.12592E+07
 0.51720001E+02 -0.11866E+07
 0.51770000E+02 -0.11172E+07
 0.51820000E+02 -0.94895E+06
 0.51870003E+02 -0.73913E+06
 0.51920002E+02 -0.59355E+06
 0.51970001E+02 -0.32519E+06
 0.52020000E+02  0.29070E+06
 0.52070000E+02  0.10484E+07
 0.52120003E+02  0.15773E+07
 0.52170002E+02  0.16810E+07
 0.52220001E+02  0.15179E+07
 0.52270000E+02  0.13434E+07
 0.52320000E+02  0.12124E+07
 0.52370003E+02  0.11788E+07
 0.52420002E+02  0.10434E+07
 0.52470001E+02  0.64437E+06
 0.52520000E+02  0.23554E+06
 0.52570000E+02  0.30266E+05
 0.52620003E+02  0.79182E+05
 0.52670002E+02  0.36942E+06
 0.52720001E+02  0.72561E+06
 0.52770000E+02  0.10077E+07
 0.52820000E+02  0.12620E+07
 0.52870003E+02  0.15344E+07
 0.52920002E+02  0.17713E+07
 0.52970001E+02  0.19525E+07
 0.53020000E+02  0.21457E+07
 0.53070000E+02  0.22359E+07
 0.53120003E+02  0.21613E+07
 0.53170002E+02  0.19857E+07
 0.53220001E+02  0.16658E+07
 0.53270000E+02  0.13304E+07
 0.53320000E+02  0.10604E+07
 0.53370003E+02  0.82849E+06
 0.53420002E+02  0.62861E+06
 0.53470001E+02  0.34370E+06
 0.53520000E+02  0.15394E+05
 0.53570000E+02 -0.33146E+06
 0.53620003E+02 -0.79464E+06
 0.53670002E+02 -0.13113E+07
 0.53720001E+02 -0.17575E+07
 0.53770000E+02 -0.21065E+07
 0.53820000E+02 -0.23422E+07
 0.53870003E+02 -0.23424E+07
 0.53920002E+02 -0.20503E+07
 0.53970001E+02 -0.15366E+07
 0.54020000E+02 -0.10083E+07
 0.54070000E+02 -0.69850E+06
 0.54120003E+02 -0.67178E+06
 0.54170002E+02 -0.83336E+06
 0.54220001E+02 -0.97451E+06
 0.54270000E+02 -0.11112E+07
 0.54320000E+02 -0.12482E+07
 0.54370003E+02 -0.12071E+07
 0.54420002E+02 -0.11088E+07
 0.54470001E+02 -0.90686E+06
 0.54520000E+02 -0.44022E+06
 0.54570000E+02  0.10379E+06
 0.54620003E+02  0.64548E+06
 0.54670002E+02  0.10947E+07
 0.54720001E+02  0.13083E+07
 0.54770000E+02  0.13726E+07
 0.54820000E+02  0.14831E+07
 0.54870003E+02  0.17220E+07
 0.54920002E+02  0.19776E+07
 0.54970001E+02  0.20966E+07
 0.55020000E+02  0.20003E+07
 0.55070000E+02  0.17930E+07
 0.55120003E+02  0.15676E+07
 0.55170002E+02  0.13187E+07
 0.55220001E+02  0.10219E+07
 0.55270000E+02  0.60894E+06
 0.55320000E+02  0.16068E+06
 0.55370003E+02 -0.17030E+06
 0.55420002E+02 -0.36339E+06
 0.55470001E+02 -0.42949E+06
 0.55520000E+02 -0.28603E+06
 0.55570000E+02  0.11832E+05
 0.55620003E+02  0.27496E+06
 0.55670002E+02  0.39793E+06
 0.55720001E+02  0.36293E+06
 0.55770000E+02  0.24129E+06
 0.55820000E+02 -0.36280E+04
 0.55870003E+02 -0.25172E+06
 0.55920002E+02 -0.27295E+06
 0.55970001E+02 -0.13267E+06
 0.56020000E+02  0.79785E+05
 0.56070000E+02  0.22256E+06
 0.56120003E+02  0.12568E+06
 0.56170002E+02 -0.15390E+06
 0.56220001E+02 -0.43021E+06
 0.56270000E+02 -0.53875E+06
 0.56320000E+02 -0.44296E+06
 0.56370003E+02 -0.30705E+06
 0.56420002E+02 -0.27106E+06
 0.56470001E+02 -0.34538E+06
 0.56520000E+02 -0.55190E+06
 0.56570000E+02 -0.74217E+06
 0.56620003E+02 -0.74662E+06
 0.56670002E+02 -0.57558E+06
 0.56720001E+02 -0.28268E+06
 0.56770000E+02  0.50868E+05
 0.56820000E+02  0.38366E+06
 0.56870003E+02  0.67461E+06
 0.56920002E+02  0.88126E+06
 0.56970001E+02  0.99833E+06
 0.57020000E+02  0.10323E+07
 0.57070000E+02  0.10126E+07
 0.57120003E+02  0.97545E+06
 0.57170002E+02  0.97779E+06
 0.57220001E+02  0.10025E+07
 0.57270000E+02  0.94636E+06
 0.57320000E+02  0.76299E+06
 0.57370003E+02  0.45502E+06
 0.57420002E+02  0.56563E+05
 0.57470001E+02 -0.29128E+06
 0.57520000E+02 -0.54748E+06
 0.57570000E+02 -0.81313E+06
 0.57620003E+02 -0.10252E+07
 0.57670002E+02 -0.11304E+07
 0.57720001E+02 -0.11805E+07
 0.57770000E+02 -0.12084E+07
 0.57820000E+02 -0.12699E+07
 0.57870003E+02 -0.13034E+07
 0.57920002E+02 -0.11982E+07
 0.57970001E+02 -0.97646E+06
 0.58020000E+02 -0.74113E+06
 0.58070000E+02 -0.58468E+06
 0.58120003E+02 -0.57215E+06
 0.58170002E+02 -0.62517E+06
 0.58220001E+02 -0.55367E+06
 0.58270000E+02 -0.33893E+06
 0.58320000E+02 -0.34291E+05
 0.58370003E+02  0.32574E+06
 0.58420002E+02  0.63473E+06
 0.58470001E+02  0.77890E+06
 0.58520000E+02  0.74132E+06
 0.58570000E+02  0.65700E+06
 0.58620003E+02  0.65974E+06
 0.58670002E+02  0.79159E+06
 0.58720001E+02  0.96874E+06
 0.58770000E+02  0.10344E+07
 0.58820000E+02  0.94834E+06
 0.58870003E+02  0.76288E+06
 0.58920002E+02  0.58769E+06
 0.58970001E+02  0.44607E+06
 0.59020000E+02  0.27008E+06
 0.59070000E+02 -0.18980E+04
 0.59120003E+02 -0.40954E+06
 0.59170002E+02 -0.79053E+06
 0.59220001E+02 -0.10110E+07
 0.59270000E+02 -0.11010E+07
 0.59320000E+02 -0.10705E+07
 0.59370003E+02 -0.99411E+06
 0.59420002E+02 -0.96514E+06
 0.59470001E+02 -0.93909E+06
 0.59520000E+02 -0.80401E+06
 0.59570000E+02 -0.54636E+06
 0.59620003E+02 -0.27701E+06
 0.59670002E+02 -0.35346E+05
 0.59720001E+02  0.18193E+06
 0.59770000E+02  0.26164E+06
 0.59820000E+02  0.18508E+06
 0.59870003E+02  0.43986E+05
 0.59920002E+02 -0.12539E+06
 0.59970001E+02 -0.31002E+06
 0.60020000E+02 -0.55084E+06
 0.60070000E+02 -0.85596E+06
 0.60120003E+02 -0.11785E+07
 0.60170002E+02 -0.15466E+07
 0.60220001E+02 -0.18717E+07
 0.60270000E+02 -0.19849E+07
 0.60320000E+02 -0.18441E+07
 0.60370003E+02 -0.14555E+07
 0.60420002E+02 -0.96037E+06
 0.60470001E+02 -0.58008E+06
 0.60520000E+02 -0.39808E+06
 0.60570000E+02 -0.29387E+06
 0.60620003E+02 -0.16114E+06
 0.60670002E+02 -0.61532E+05
 0.60720001E+02  0.22226E+05
 0.60770000E+02  0.12121E+06
 0.60820000E+02  0.20956E+06
 0.60870003E+02  0.27928E+06
 0.60920002E+02  0.33334E+06
 0.60970001E+02  0.44382E+06
 0.61020000E+02  0.61091E+06
 0.61070004E+02  0.73120E+06
 0.61119999E+02  0.75649E+06
 0.61170002E+02  0.73170E+06
 0.61220005E+02  0.68062E+06
 0.61270000E+02  0.57308E+06
 0.61320004E+02  0.38871E+06
 0.61369999E+02  0.14179E+06
 0.61420002E+02 -0.56459E+05
 0.61470005E+02 -0.11538E+06
 0.61520000E+02 -0.68770E+05
 0.61570004E+02  0.19243E+05
 0.61619999E+02  0.15502E+06
 0.61670002E+02  0.36946E+06
 0.61720005E+02  0.55133E+06
 0.61770000E+02  0.57545E+06
 0.61820004E+02  0.45838E+06
 0.61869999E+02  0.29405E+06
 0.61920002E+02  0.18963E+06
 0.61970005E+02  0.21006E+06
 0.62020000E+02  0.36390E+06
 0.62070004E+02  0.61165E+06
 0.62119999E+02  0.87533E+06
 0.62170002E+02  0.10381E+07
 0.62220005E+02  0.10869E+07
 0.62270000E+02  0.11081E+07
 0.62320004E+02  0.10794E+07
 0.62369999E+02  0.88809E+06
 0.62420002E+02  0.45645E+06
 0.62470005E+02 -0.11578E+06
 0.62520000E+02 -0.66153E+06
 0.62570004E+02 -0.10617E+07
 0.62619999E+02 -0.11411E+07
 0.62670002E+02 -0.87928E+06
 0.62720005E+02 -0.47217E+06
 0.62770000E+02 -0.12285E+06
 0.62820004E+02  0.56039E+05
 0.62869999E+02  0.14481E+06
 0.62920002E+02  0.25337E+06
 0.62970005E+02  0.36375E+06
 0.63020000E+02  0.40788E+06
 0.63070004E+02  0.35298E+06
 0.63119999E+02  0.24959E+06
 0.63170002E+02  0.96609E+05
 0.63220005E+02 -0.68123E+05
 0.63270000E+02 -0.13143E+06
 0.63320004E+02 -0.12334E+06
 0.63369999E+02 -0.72556E+05
 0.63420002E+02  0.13326E+05
 0.63470005E+02  0.10529E+06
 0.63520000E+02  0.26354E+06
 0.63570004E+02  0.46779E+06
 0.63619999E+02  0.61108E+06
 0.63670002E+02  0.68690E+06
 0.63720005E+02  0.71584E+06
 0.63770000E+02  0.65939E+06
 0.63820004E+02  0.52845E+06
 0.63869999E+02  0.35645E+06
 0.63920002E+02  0.13252E+06
 0.63970005E+02 -0.78882E+05
 0.64019997E+02 -0.21216E+06
 0.64070000E+02 -0.26284E+06
 0.64119995E+02 -0.19074E+06
 0.64169998E+02 -0.53286E+05
 0.64220001E+02  0.58086E+05
 0.64269997E+02  0.15454E+06
 0.64320000E+02  0.19637E+06
 0.64369995E+02  0.16120E+06
 0.64419998E+02  0.68520E+05
 0.64470001E+02 -0.52602E+05
 0.64519997E+02 -0.11766E+06
 0.64570000E+02 -0.96146E+05
 0.64619995E+02  0.97290E+04
 0.64669998E+02  0.13974E+06
 0.64720001E+02  0.20047E+06
 0.64769997E+02  0.18507E+06
 0.64820000E+02  0.13924E+06
 0.64869995E+02  0.13338E+06
 0.64919998E+02  0.15655E+06
 0.64970001E+02  0.13580E+06
 0.65019997E+02  0.37567E+05
 0.65070000E+02 -0.15422E+06
 0.65119995E+02 -0.40909E+06
 0.65169998E+02 -0.67808E+06
 0.65220001E+02 -0.91333E+06
 0.65269997E+02 -0.10403E+07
 0.65320000E+02 -0.10339E+07
 0.65369995E+02 -0.94645E+06
 0.65419998E+02 -0.78179E+06
 0.65470001E+02 -0.54058E+06
 0.65519997E+02 -0.29425E+06
 0.65570000E+02 -0.38087E+05
 0.65619995E+02  0.20177E+06
 0.65669998E+02  0.33373E+06
 0.65720001E+02  0.36800E+06
 0.65769997E+02  0.34260E+06
 0.65820000E+02  0.27351E+06
 0.65869995E+02  0.13992E+06
 0.65919998E+02 -0.57911E+05
 0.65970001E+02 -0.22383E+06
 0.66019997E+02 -0.30508E+06
 0.66070000E+02 -0.33392E+06
 0.66119995E+02 -0.33241E+06
 0.66169998E+02 -0.33703E+06
 0.66220001E+02 -0.37688E+06
 0.66269997E+02 -0.36991E+06
 0.66320000E+02 -0.24047E+06
 0.66369995E+02 -0.60969E+05
 0.66419998E+02  0.47988E+05
 0.66470001E+02  0.39115E+05
 0.66519997E+02 -0.61036E+05
 0.66570000E+02 -0.23173E+06
 0.66619995E+02 -0.45757E+06
 0.66669998E+02 -0.68678E+06
 0.66720001E+02 -0.85979E+06
 0.66769997E+02 -0.92773E+06
 0.66820000E+02 -0.89903E+06
 0.66869995E+02 -0.78408E+06
 0.66919998E+02 -0.56679E+06
 0.66970001E+02 -0.27167E+06
 0.67019997E+02  0.44560E+05
 0.67070000E+02  0.31548E+06
 0.67119995E+02  0.54436E+06
 0.67169998E+02  0.75824E+06
 0.67220001E+02  0.95329E+06
 0.67269997E+02  0.11033E+07
 0.67320000E+02  0.11781E+07
 0.67369995E+02  0.11956E+07
 0.67419998E+02  0.11661E+07
 0.67470001E+02  0.10950E+07
 0.67519997E+02  0.97425E+06
 0.67570000E+02  0.80279E+06
 0.67619995E+02  0.61908E+06
 0.67669998E+02  0.45318E+06
 0.67720001E+02  0.35326E+06
 0.67769997E+02  0.31351E+06
 0.67820000E+02  0.26185E+06
 0.67869995E+02  0.20803E+06
 0.67919998E+02  0.17113E+06
 0.67970001E+02  0.14217E+06
 0.68019997E+02  0.16879E+06
 0.68070000E+02  0.24907E+06
 0.68119995E+02  0.31795E+06
 0.68169998E+02  0.33336E+06
 0.68220001E+02  0.29302E+06
 0.68269997E+02  0.18428E+06
 0.68320000E+02 -0.95900E+03
 0.68369995E+02 -0.22378E+06
 0.68419998E+02 -0.47984E+06
 0.68470001E+02 -0.78726E+06
 0.68519997E+02 -0.11045E+07
 0.68570000E+02 -0.13200E+07
 0.68619995E+02 -0.13873E+07
 0.68669998E+02 -0.13023E+07
 0.68720001E+02 -0.10581E+07
 0.68769997E+02 -0.76972E+06
 0.68820000E+02 -0.52474E+06
 0.68869995E+02 -0.34752E+06
 0.68919998E+02 -0.26271E+06
 0.68970001E+02 -0.24264E+06
 0.69019997E+02 -0.27596E+06
 0.69070000E+02 -0.30333E+06
 0.69119995E+02 -0.27513E+06
 0.69169998E+02 -0.24466E+06
 0.69220001E+02 -0.19794E+06
 0.69269997E+02 -0.72615E+05
 0.69320000E+02  0.11786E+06
 0.69369995E+02  0.27540E+06
 0.69419998E+02  0.29735E+06
 0.69470001E+02  0.17123E+06
 0.69519997E+02 -0.48179E+05
 0.69570000E+02 -0.27664E+06
 0.69619995E+02 -0.43106E+06
 0.69669998E+02 -0.48165E+06
 0.69720001E+02 -0.43575E+06
 0.69769997E+02 -0.27649E+06
 0.69820000E+02 -0.69480E+04
 0.69869995E+02  0.33965E+06
 0.69919998E+02  0.70143E+06
 0.69970001E+02  0.96182E+06
 0.70019997E+02  0.10790E+07
 0.70070000E+02  0.10885E+07
 0.70119995E+02  0.10125E+07
 0.70169998E+02  0.87450E+06
 0.70220001E+02  0.72277E+06
 0.70269997E+02  0.59031E+06
 0.70320000E+02  0.46410E+06
 0.70369995E+02  0.36134E+06
 0.70419998E+02  0.28392E+06
 0.70470001E+02  0.19597E+06
 0.70519997E+02  0.85656E+05
 0.70570000E+02 -0.55833E+05
 0.70619995E+02 -0.19413E+06
 0.70669998E+02 -0.30378E+06
 0.70720001E+02 -0.39912E+06
 0.70769997E+02 -0.46180E+06
 0.70820000E+02 -0.49172E+06
 0.70869995E+02 -0.50261E+06
 0.70919998E+02 -0.49135E+06
 0.70970001E+02 -0.46502E+06
 0.71019997E+02 -0.44664E+06
 0.71070000E+02 -0.44376E+06
 0.71119995E+02 -0.41866E+06
 0.71169998E+02 -0.34662E+06
 0.71220001E+02 -0.25436E+06
 0.71269997E+02 -0.19500E+06
 0.71320000E+02 -0.18326E+06
 0.71369995E+02 -0.16990E+06
 0.71419998E+02 -0.98996E+05
 0.71470001E+02  0.56487E+05
 0.71519997E+02  0.26640E+06
 0.71570000E+02  0.47063E+06
 0.71619995E+02  0.63607E+06
 0.71669998E+02  0.73592E+06
 0.71720001E+02  0.76000E+06
 0.71769997E+02  0.74314E+06
 0.71820000E+02  0.71852E+06
 0.71869995E+02  0.68902E+06
 0.71919998E+02  0.64187E+06
 0.71970001E+02  0.56703E+06
 0.72019997E+02  0.44854E+06
 0.72070000E+02  0.28045E+06
 0.72119995E+02  0.98910E+05
 0.72169998E+02 -0.95843E+05
 0.72220001E+02 -0.30225E+06
 0.72269997E+02 -0.46370E+06
 0.72320000E+02 -0.56066E+06
 0.72369995E+02 -0.59749E+06
 0.72419998E+02 -0.59629E+06
 0.72470001E+02 -0.57704E+06
 0.72519997E+02 -0.51540E+06
 0.72570000E+02 -0.39960E+06
 0.72619995E+02 -0.26085E+06
 0.72669998E+02 -0.16226E+06
 0.72720001E+02 -0.14446E+06
 0.72769997E+02 -0.18152E+06
 0.72820000E+02 -0.22488E+06
 0.72869995E+02 -0.24655E+06
 0.72919998E+02 -0.24100E+06
 0.72970001E+02 -0.19866E+06
 0.73019997E+02 -0.10273E+06
 0.73070000E+02  0.21493E+05
 0.73119995E+02  0.12422E+06
 0.73169998E+02  0.17940E+06
 0.73220001E+02  0.17841E+06
 0.73269997E+02  0.14221E+06
 0.73320000E+02  0.12376E+06
 0.73369995E+02  0.16615E+06
 0.73419998E+02  0.25850E+06
 0.73470001E+02  0.34089E+06
 0.73519997E+02  0.37622E+06
 0.73570000E+02  0.36075E+06
 0.73619995E+02  0.29858E+06
 0.73669998E+02  0.20732E+06
 0.73720001E+02  0.83329E+05
 0.73769997E+02 -0.56544E+05
 0.73820000E+02 -0.13168E+06
 0.73869995E+02 -0.10590E+06
 0.73919998E+02 -0.47539E+05
 0.73970001E+02 -0.32316E+05
 0.74019997E+02 -0.57116E+05
 0.74070000E+02 -0.63093E+05
 0.74119995E+02  0.17237E+05
 0.74169998E+02  0.18678E+06
 0.74220001E+02  0.37738E+06
 0.74269997E+02  0.53896E+06
 0.74320000E+02  0.63091E+06
 0.74369995E+02  0.60887E+06
 0.74419998E+02  0.48576E+06
 0.74470001E+02  0.30207E+06
 0.74519997E+02  0.67707E+05
 0.74570000E+02 -0.18953E+06
 0.74619995E+02 -0.43724E+06
 0.74669998E+02 -0.64300E+06
 0.74720001E+02 -0.73476E+06
 0.74769997E+02 -0.72177E+06
 0.74820000E+02 -0.65797E+06
 0.74869995E+02 -0.56867E+06
 0.74919998E+02 -0.50934E+06
 0.74970001E+02 -0.45571E+06
 0.75019997E+02 -0.35626E+06
 0.75070000E+02 -0.21632E+06
 0.75119995E+02 -0.37306E+05
 0.75169998E+02  0.12500E+06
 0.75220001E+02  0.21678E+06
 0.75269997E+02  0.21858E+06
 0.75320000E+02  0.11258E+06
 0.75369995E+02 -0.48615E+05
 0.75419998E+02 -0.19010E+06
 0.75470001E+02 -0.26038E+06
 0.75519997E+02 -0.21630E+06
 0.75570000E+02 -0.76649E+05
 0.75619995E+02  0.12467E+06
 0.75669998E+02  0.36917E+06
 0.75720001E+02  0.60616E+06
 0.75769997E+02  0.80416E+06
 0.75820000E+02  0.92738E+06
 0.75869995E+02  0.95466E+06
 0.75919998E+02  0.92500E+06
 0.75970001E+02  0.85014E+06
 0.76019997E+02  0.72633E+06
 0.76070000E+02  0.57844E+06
 0.76119995E+02  0.44171E+06
 0.76169998E+02  0.31506E+06
 0.76220001E+02  0.18354E+06
 0.76269997E+02  0.70733E+05
 0.76320000E+02 -0.22564E+05
 0.76369995E+02 -0.13403E+06
 0.76419998E+02 -0.27944E+06
 0.76470001E+02 -0.44188E+06
 0.76519997E+02 -0.60259E+06
 0.76570000E+02 -0.74185E+06
 0.76619995E+02 -0.84273E+06
 0.76669998E+02 -0.89756E+06
 0.76720001E+02 -0.91393E+06
 0.76769997E+02 -0.90441E+06
 0.76820000E+02 -0.84004E+06
 0.76869995E+02 -0.70437E+06
 0.76919998E+02 -0.53543E+06
 0.76970001E+02 -0.38170E+06
 0.77019997E+02 -0.27289E+06
 0.77070000E+02 -0.17419E+06
 0.77119995E+02 -0.43613E+05
 0.77169998E+02  0.91052E+05
 0.77220001E+02  0.18935E+06
 0.77269997E+02  0.23449E+06
 0.77320000E+02  0.24895E+06
 0.77369995E+02  0.25778E+06
 0.77419998E+02  0.27937E+06
 0.77470001E+02  0.34134E+06
 0.77519997E+02  0.41108E+06
 0.77570000E+02  0.47313E+06
 0.77619995E+02  0.54941E+06
 0.77669998E+02  0.62666E+06
 0.77720001E+02  0.67210E+06
 0.77769997E+02  0.62377E+06
 0.77820000E+02  0.44853E+06
 0.77869995E+02  0.19418E+06
 0.77919998E+02 -0.36874E+05
 0.77970001E+02 -0.18915E+06
 0.78019997E+02 -0.28191E+06
 0.78070000E+02 -0.36080E+06
 0.78119995E+02 -0.49204E+06
 0.78169998E+02 -0.65825E+06
 0.78220001E+02 -0.78058E+06
 0.78269997E+02 -0.85128E+06
 0.78320000E+02 -0.89152E+06
 0.78369995E+02 -0.88730E+06
 0.78419998E+02 -0.86060E+06
 0.78470001E+02 -0.85279E+06
 0.78519997E+02 -0.83498E+06
 0.78570000E+02 -0.76333E+06
 0.78619995E+02 -0.61824E+06
 0.78669998E+02 -0.43209E+06
 0.78720001E+02 -0.27135E+06
 0.78769997E+02 -0.14478E+06
 0.78820000E+02 -0.31570E+05
 0.78869995E+02  0.73889E+05
 0.78919998E+02  0.17582E+06
 0.78970001E+02  0.27497E+06
 0.79019997E+02  0.36570E+06
 0.79070000E+02  0.44330E+06
 0.79119995E+02  0.49905E+06
 0.79169998E+02  0.52556E+06
 0.79220001E+02  0.52545E+06
 0.79269997E+02  0.47710E+06
 0.79320000E+02  0.35518E+06
 0.79369995E+02  0.19020E+06
 0.79419998E+02  0.20372E+05
 0.79470001E+02 -0.12795E+06
 0.79519997E+02 -0.21185E+06
 0.79570000E+02 -0.21272E+06
 0.79619995E+02 -0.16143E+06
 0.79669998E+02 -0.12226E+06
 0.79720001E+02 -0.13614E+06
 0.79769997E+02 -0.17175E+06
 0.79820000E+02 -0.16662E+06
 0.79869995E+02 -0.10277E+06
 0.79919998E+02 -0.11256E+05
 0.79970001E+02  0.87865E+05
 0.80019997E+02  0.18853E+06
 0.80070000E+02  0.28315E+06
 0.80119995E+02  0.36420E+06
 0.80169998E+02  0.41333E+06
 0.80220001E+02  0.42849E+06
 0.80269997E+02  0.40341E+06
 0.80320000E+02  0.36106E+06
 0.80369995E+02  0.36783E+06
 0.80419998E+02  0.41876E+06
 0.80470001E+02  0.49351E+06
 0.80519997E+02  0.57578E+06
 0.80570000E+02  0.59884E+06
 0.80619995E+02  0.54578E+06
 0.80669998E+02  0.44688E+06
 0.80720001E+02  0.31124E+06
 0.80769997E+02  0.14930E+06
 0.80820000E+02 -0.16565E+05
 0.80869995E+02 -0.14976E+06
 0.80919998E+02 -0.22613E+06
 0.80970001E+02 -0.24725E+06
 0.81019997E+02 -0.21647E+06
 0.81070000E+02 -0.17403E+06
 0.81119995E+02 -0.17210E+06
 0.81169998E+02 -0.23310E+06
 0.81220001E+02 -0.34557E+06
 0.81269997E+02 -0.44593E+06
 0.81320000E+02 -0.47837E+06
 0.81369995E+02 -0.43149E+06
 0.81419998E+02 -0.31207E+06
 0.81470001E+02 -0.15074E+06
 0.81519997E+02 -0.76000E+02
 0.81570000E+02  0.12142E+06
 0.81619995E+02  0.22464E+06
 0.81669998E+02  0.29538E+06
 0.81720001E+02  0.31552E+06
 0.81769997E+02  0.29020E+06
 0.81820000E+02  0.24437E+06
 0.81869995E+02  0.21706E+06
 0.81919998E+02  0.24316E+06
 0.81970001E+02  0.30940E+06
 0.82019997E+02  0.36802E+06
 0.82070000E+02  0.40046E+06
 0.82119995E+02  0.41270E+06
 0.82169998E+02  0.41151E+06
 0.82220001E+02  0.39544E+06
 0.82269997E+02  0.37244E+06
 0.82320000E+02  0.37238E+06
 0.82369995E+02  0.40557E+06
 0.82419998E+02  0.47907E+06
 0.82470001E+02  0.60414E+06
 0.82519997E+02  0.73682E+06
 0.82570000E+02  0.81329E+06
 0.82619995E+02  0.81337E+06
 0.82669998E+02  0.74982E+06
 0.82720001E+02  0.64785E+06
 0.82769997E+02  0.53633E+06
 0.82820000E+02  0.45043E+06
 0.82869995E+02  0.40082E+06
 0.82919998E+02  0.35283E+06
 0.82970001E+02  0.29741E+06
 0.83019997E+02  0.26298E+06
 0.83070000E+02  0.25675E+06
 0.83119995E+02  0.25072E+06
 0.83169998E+02  0.19097E+06
 0.83220001E+02  0.67844E+05
 0.83269997E+02 -0.67409E+05
 0.83320000E+02 -0.18891E+06
 0.83369995E+02 -0.29317E+06
 0.83419998E+02 -0.36997E+06
 0.83470001E+02 -0.41974E+06
 0.83519997E+02 -0.45874E+06
 0.83570000E+02 -0.51075E+06
 0.83619995E+02 -0.57186E+06
 0.83669998E+02 -0.62506E+06
 0.83720001E+02 -0.67150E+06
 0.83769997E+02 -0.71992E+06
 0.83820000E+02 -0.78112E+06
 0.83869995E+02 -0.83996E+06
 0.83919998E+02 -0.86964E+06
 0.83970001E+02 -0.86313E+06
 0.84019997E+02 -0.82310E+06
 0.84070000E+02 -0.75703E+06
 0.84119995E+02 -0.67126E+06
 0.84169998E+02 -0.56407E+06
 0.84220001E+02 -0.43004E+06
 0.84269997E+02 -0.27735E+06
 0.84320000E+02 -0.12250E+06
 0.84369995E+02  0.29050E+04
 0.84419998E+02  0.72832E+05
 0.84470001E+02  0.99917E+05
 0.84519997E+02  0.96261E+05
 0.84570000E+02  0.67163E+05
 0.84619995E+02  0.19113E+05
 0.84669998E+02 -0.32348E+05
 0.84720001E+02 -0.51377E+05
 0.84769997E+02 -0.21706E+05
 0.84820000E+02  0.33321E+05
 0.84869995E+02  0.77391E+05
 0.84919998E+02  0.91049E+05
 0.84970001E+02  0.83723E+05
 0.85019997E+02  0.78608E+05
 0.85070000E+02  0.97480E+05
 0.85119995E+02  0.14175E+06
 0.85169998E+02  0.17402E+06
 0.85220001E+02  0.16584E+06
 0.85269997E+02  0.13358E+06
 0.85320000E+02  0.11762E+06
 0.85369995E+02  0.14568E+06
 0.85419998E+02  0.19378E+06
 0.85470001E+02  0.22426E+06
 0.85519997E+02  0.22869E+06
 0.85570000E+02  0.19826E+06
 0.85619995E+02  0.12913E+06
 0.85669998E+02  0.43351E+05
 0.85720001E+02 -0.35468E+05
 0.85769997E+02 -0.84705E+05
 0.85820000E+02 -0.10052E+06
 0.85869995E+02 -0.12494E+06
 0.85919998E+02 -0.19013E+06
 0.85970001E+02 -0.28472E+06
 0.86019997E+02 -0.38914E+06
 0.86070000E+02 -0.48868E+06
 0.86119995E+02 -0.57399E+06
 0.86169998E+02 -0.64550E+06
 0.86220001E+02 -0.68086E+06
 0.86269997E+02 -0.64477E+06
 0.86320000E+02 -0.54337E+06
 0.86369995E+02 -0.40485E+06
 0.86419998E+02 -0.26235E+06
 0.86470001E+02 -0.13364E+06
 0.86519997E+02 -0.84750E+04
 0.86570000E+02  0.10627E+06
 0.86619995E+02  0.19203E+06
 0.86669998E+02  0.23878E+06
 0.86720001E+02  0.23948E+06
 0.86769997E+02  0.21240E+06
 0.86820000E+02  0.21116E+06
 0.86869995E+02  0.25071E+06
 0.86919998E+02  0.28436E+06
 0.86970001E+02  0.27324E+06
 0.87019997E+02  0.22077E+06
 0.87070000E+02  0.15478E+06
 0.87119995E+02  0.86045E+05
 0.87169998E+02  0.89650E+04
 0.87220001E+02 -0.82609E+05
 0.87269997E+02 -0.17060E+06
 0.87320000E+02 -0.22749E+06
 0.87369995E+02 -0.27443E+06
 0.87419998E+02 -0.34767E+06
 0.87470001E+02 -0.44979E+06
 0.87519997E+02 -0.56038E+06
 0.87570000E+02 -0.64735E+06
 0.87619995E+02 -0.68763E+06
 0.87669998E+02 -0.70056E+06
 0.87720001E+02 -0.71335E+06
 0.87769997E+02 -0.70996E+06
 0.87820000E+02 -0.65793E+06
 0.87869995E+02 -0.55729E+06
 0.87919998E+02 -0.43954E+06
 0.87970001E+02 -0.33252E+06
 0.88019997E+02 -0.24149E+06
 0.88070000E+02 -0.14399E+06
 0.88119995E+02 -0.21663E+05
 0.88169998E+02  0.11723E+06
 0.88220001E+02  0.26295E+06
 0.88269997E+02  0.38968E+06
 0.88320000E+02  0.46091E+06
 0.88369995E+02  0.48827E+06
 0.88419998E+02  0.50776E+06
 0.88470001E+02  0.51691E+06
 0.88519997E+02  0.48980E+06
 0.88570000E+02  0.40998E+06
 0.88619995E+02  0.28933E+06
 0.88669998E+02  0.16293E+06
 0.88720001E+02  0.45584E+05
 0.88769997E+02 -0.53899E+05
 0.88820000E+02 -0.11179E+06
 0.88869995E+02 -0.12627E+06
 0.88919998E+02 -0.11413E+06
 0.88970001E+02 -0.78650E+05
 0.89019997E+02 -0.20077E+05
 0.89070000E+02  0.37179E+05
 0.89119995E+02  0.82424E+05
 0.89169998E+02  0.12470E+06
 0.89220001E+02  0.16818E+06
 0.89269997E+02  0.23331E+06
 0.89320000E+02  0.31584E+06
 0.89369995E+02  0.38300E+06
 0.89419998E+02  0.41699E+06
 0.89470001E+02  0.40971E+06
 0.89519997E+02  0.36310E+06
 0.89570000E+02  0.28032E+06
 0.89619995E+02  0.15551E+06
 0.89669998E+02 -0.10000E+03
 0.89720001E+02 -0.14153E+06
 0.89769997E+02 -0.24478E+06
 0.89820000E+02 -0.32422E+06
 0.89869995E+02 -0.38770E+06
 0.89919998E+02 -0.43984E+06
 0.89970001E+02 -0.46001E+06
 0.90019997E+02 -0.41507E+06
 0.90070000E+02 -0.31834E+06
 0.90119995E+02 -0.19385E+06
 0.90169998E+02 -0.55617E+05
 0.90220001E+02  0.80155E+05
 0.90269997E+02  0.19955E+06
 0.90320000E+02  0.28523E+06
 0.90369995E+02  0.33133E+06
 0.90419998E+02  0.34279E+06
 0.90470001E+02  0.32073E+06
 0.90519997E+02  0.26815E+06
 0.90570000E+02  0.20256E+06
 0.90619995E+02  0.15526E+06
 0.90669998E+02  0.14504E+06
 0.90720001E+02  0.17353E+06
 0.90769997E+02  0.22299E+06
 0.90820000E+02  0.25286E+06
 0.90869995E+02  0.25166E+06
 0.90919998E+02  0.24646E+06
 0.90970001E+02  0.25388E+06
 0.91019997E+02  0.27431E+06
 0.91070000E+02  0.29371E+06
 0.91119995E+02  0.30422E+06
 0.91169998E+02  0.32112E+06
 0.91220001E+02  0.33921E+06
 0.91269997E+02  0.34838E+06
 0.91320000E+02  0.35902E+06
 0.91369995E+02  0.36975E+06
 0.91419998E+02  0.37209E+06
 0.91470001E+02  0.37593E+06
 0.91519997E+02  0.39846E+06
 0.91570000E+02  0.42277E+06
 0.91619995E+02  0.42246E+06
 0.91669998E+02  0.40372E+06
 0.91720001E+02  0.37495E+06
 0.91769997E+02  0.32902E+06
 0.91820000E+02  0.24759E+06
 0.91869995E+02  0.11570E+06
 0.91919998E+02 -0.39106E+05
 0.91970001E+02 -0.15396E+06
 0.92019997E+02 -0.19355E+06
 0.92070000E+02 -0.16635E+06
 0.92119995E+02 -0.98519E+05
 0.92169998E+02 -0.26246E+05
 0.92220001E+02  0.37244E+05
 0.92269997E+02  0.99509E+05
 0.92320000E+02  0.14583E+06
 0.92369995E+02  0.16427E+06
 0.92419998E+02  0.16341E+06
 0.92470001E+02  0.17116E+06
 0.92519997E+02  0.22281E+06
 0.92570000E+02  0.32450E+06
 0.92619995E+02  0.44838E+06
 0.92669998E+02  0.54102E+06
 0.92720001E+02  0.56518E+06
 0.92769997E+02  0.51854E+06
 0.92820000E+02  0.40928E+06
 0.92869995E+02  0.26268E+06
 0.92919998E+02  0.11433E+06
 0.92970001E+02 -0.15387E+05
 0.93019997E+02 -0.11670E+06
 0.93070000E+02 -0.18457E+06
 0.93119995E+02 -0.22894E+06
 0.93169998E+02 -0.26103E+06
 0.93220001E+02 -0.28969E+06
 0.93269997E+02 -0.31592E+06
 0.93320000E+02 -0.32673E+06
 0.93369995E+02 -0.32055E+06
 0.93419998E+02 -0.29406E+06
 0.93470001E+02 -0.24566E+06
 0.93519997E+02 -0.19652E+06
 0.93570000E+02 -0.15931E+06
 0.93619995E+02 -0.13552E+06
 0.93669998E+02 -0.13192E+06
 0.93720001E+02 -0.14839E+06
 0.93769997E+02 -0.17352E+06
 0.93820000E+02 -0.18725E+06
 0.93869995E+02 -0.16218E+06
 0.93919998E+02 -0.88232E+05
 0.93970001E+02  0.92020E+04
 0.94019997E+02  0.10221E+06
 0.94070000E+02  0.17305E+06
 0.94119995E+02  0.20768E+06
 0.94169998E+02  0.21301E+06
 0.94220001E+02  0.19781E+06
 0.94269997E+02  0.16396E+06
 0.94320000E+02  0.11694E+06
 0.94369995E+02  0.60907E+05
 0.94419998E+02  0.28550E+04
 0.94470001E+02 -0.57565E+05
 0.94519997E+02 -0.11360E+06
 0.94570000E+02 -0.15125E+06
 0.94619995E+02 -0.17286E+06
 0.94669998E+02 -0.17625E+06
 0.94720001E+02 -0.16301E+06
 0.94769997E+02 -0.14352E+06
 0.94820000E+02 -0.11303E+06
 0.94869995E+02 -0.62429E+05
 0.94919998E+02  0.47990E+04
 0.94970001E+02  0.65999E+05
 0.95019997E+02  0.98007E+05
 0.95070000E+02  0.85729E+05
 0.95119995E+02  0.16457E+05
 0.95169998E+02 -0.92841E+05
 0.95220001E+02 -0.20738E+06
 0.95269997E+02 -0.30747E+06
 0.95320000E+02 -0.37740E+06
 0.95369995E+02 -0.41346E+06
 0.95419998E+02 -0.42518E+06
 0.95470001E+02 -0.40864E+06
 0.95519997E+02 -0.36806E+06
 0.95570000E+02 -0.31924E+06
 0.95619995E+02 -0.25495E+06
 0.95669998E+02 -0.15931E+06
 0.95720001E+02 -0.48658E+05
 0.95769997E+02  0.35342E+05
 0.95820000E+02  0.76229E+05
 0.95869995E+02  0.74245E+05
 0.95919998E+02  0.38418E+05
 0.95970001E+02  0.20000E+01
 0.96019997E+02 -0.31894E+05
 0.96070000E+02 -0.64106E+05
 0.96119995E+02 -0.92649E+05
 0.96169998E+02 -0.11262E+06
 0.96220001E+02 -0.11465E+06
 0.96269997E+02 -0.98714E+05
 0.96320000E+02 -0.81601E+05
 0.96369995E+02 -0.75058E+05
 0.96419998E+02 -0.80457E+05
 0.96470001E+02 -0.88971E+05
 0.96519997E+02 -0.81302E+05
 0.96570000E+02 -0.63243E+05
 0.96619995E+02 -0.60041E+05
 0.96669998E+02 -0.79848E+05
 0.96720001E+02 -0.12293E+06
 0.96769997E+02 -0.16771E+06
 0.96820000E+02 -0.17771E+06
 0.96869995E+02 -0.14390E+06
 0.96919998E+02 -0.83799E+05
 0.96970001E+02 -0.28131E+05
 0.97019997E+02 -0.25050E+04
 0.97070000E+02 -0.66670E+04
 0.97119995E+02 -0.22908E+05
 0.97169998E+02 -0.42920E+05
 0.97220001E+02 -0.73355E+05
 0.97269997E+02 -0.12380E+06
 0.97320000E+02 -0.18840E+06
 0.97369995E+02 -0.24189E+06
 0.97419998E+02 -0.25931E+06
 0.97470001E+02 -0.23716E+06
 0.97519997E+02 -0.20043E+06
 0.97570000E+02 -0.16197E+06
 0.97619995E+02 -0.12051E+06
 0.97669998E+02 -0.92907E+05
 0.97720001E+02 -0.94609E+05
 0.97769997E+02 -0.12814E+06
 0.97820000E+02 -0.18890E+06
 0.97869995E+02 -0.25912E+06
 0.97919998E+02 -0.31563E+06
 0.97970001E+02 -0.34621E+06
 0.98019997E+02 -0.34203E+06
 0.98070000E+02 -0.31211E+06
 0.98119995E+02 -0.28728E+06
 0.98169998E+02 -0.27887E+06
 0.98220001E+02 -0.26762E+06
 0.98269997E+02 -0.23418E+06
 0.98320000E+02 -0.18903E+06
 0.98369995E+02 -0.14918E+06
 0.98419998E+02 -0.11769E+06
 0.98470001E+02 -0.93529E+05
 0.98519997E+02 -0.65526E+05
 0.98570000E+02 -0.15891E+05
 0.98619995E+02  0.59927E+05
 0.98669998E+02  0.14814E+06
 0.98720001E+02  0.23426E+06
 0.98769997E+02  0.30892E+06
 0.98820000E+02  0.37024E+06
 0.98869995E+02  0.41619E+06
 0.98919998E+02  0.43312E+06
 0.98970001E+02  0.41692E+06
 0.99019997E+02  0.37483E+06
 0.99070000E+02  0.31835E+06
 0.99119995E+02  0.25440E+06
 0.99169998E+02  0.17176E+06
 0.99220001E+02  0.72870E+05
 0.99269997E+02 -0.11589E+05
 0.99320000E+02 -0.55933E+05
 0.99369995E+02 -0.59452E+05
 0.99419998E+02 -0.39802E+05
 0.99470001E+02 -0.96400E+04
 0.99519997E+02  0.32033E+05
 0.99570000E+02  0.76672E+05
 0.99619995E+02  0.11135E+06
 0.99669998E+02  0.13510E+06
 0.99720001E+02  0.14455E+06
 0.99769997E+02  0.14264E+06
 0.99820000E+02  0.14414E+06
 0.99869995E+02  0.15501E+06
 0.99919998E+02  0.16780E+06
 0.99970001E+02  0.17968E+06
 0.10002000E+03  0.19499E+06
 0.10007000E+03  0.21617E+06
 0.10012000E+03  0.24252E+06
 0.10017000E+03  0.25660E+06
 0.10022000E+03  0.24548E+06
 0.10027000E+03  0.21829E+06
 0.10032000E+03  0.19751E+06
 0.10037000E+03  0.21267E+06
 0.10042000E+03  0.27032E+06
 0.10047000E+03  0.35547E+06
 0.10052000E+03  0.45107E+06
 0.10057000E+03  0.53830E+06
 0.10062000E+03  0.60497E+06
 0.10067000E+03  0.64587E+06
 0.10072000E+03  0.66127E+06
 0.10077000E+03  0.65572E+06
 0.10082000E+03  0.63113E+06
 0.10087000E+03  0.59392E+06
 0.10092000E+03  0.55758E+06
 0.10097000E+03  0.53091E+06
 0.10102000E+03  0.50855E+06
 0.10107000E+03  0.47582E+06
 0.10112000E+03  0.43259E+06
 0.10117000E+03  0.39408E+06
 0.10122000E+03  0.35770E+06
 0.10127000E+03  0.31442E+06
 0.10132000E+03  0.26995E+06
 0.10137000E+03  0.21529E+06
 0.10142000E+03  0.13503E+06
 0.10147000E+03  0.40558E+05
 0.10152000E+03 -0.41222E+05
 0.10157000E+03 -0.96492E+05
 0.10162000E+03 -0.13410E+06
 0.10167000E+03 -0.16811E+06
 0.10172000E+03 -0.20953E+06
 0.10177000E+03 -0.26277E+06
 0.10182000E+03 -0.30776E+06
 0.10187000E+03 -0.32531E+06
 0.10192000E+03 -0.33699E+06
 0.10197000E+03 -0.38030E+06
 0.10202000E+03 -0.47412E+06
 0.10207000E+03 -0.60672E+06
 0.10212000E+03 -0.74454E+06
 0.10217000E+03 -0.85682E+06
 0.10222000E+03 -0.92497E+06
 0.10227000E+03 -0.95697E+06
 0.10232000E+03 -0.97161E+06
 0.10237000E+03 -0.97099E+06
 0.10242000E+03 -0.94215E+06
 0.10247000E+03 -0.87272E+06
 0.10252000E+03 -0.77229E+06
 0.10257000E+03 -0.65719E+06
 0.10262000E+03 -0.53825E+06
 0.10267000E+03 -0.42012E+06
 0.10272000E+03 -0.30320E+06
 0.10277000E+03 -0.19469E+06
 0.10282000E+03 -0.97147E+05
 0.10287000E+03 -0.10833E+05
 0.10292000E+03  0.60265E+05
 0.10297000E+03  0.11169E+06
 0.10302000E+03  0.13814E+06
 0.10307000E+03  0.14216E+06
 0.10312000E+03  0.13512E+06
 0.10317000E+03  0.13199E+06
 0.10322000E+03  0.13633E+06
 0.10327000E+03  0.13104E+06
 0.10332000E+03  0.10402E+06
 0.10337000E+03  0.63250E+05
 0.10342000E+03  0.23999E+05
 0.10347000E+03 -0.43670E+04
 0.10352000E+03 -0.21644E+05
 0.10357000E+03 -0.24872E+05
 0.10362000E+03 -0.11699E+05
 0.10367000E+03  0.16462E+05
 0.10372000E+03  0.61342E+05
 0.10377000E+03  0.11400E+06
 0.10382000E+03  0.16368E+06
 0.10387000E+03  0.20680E+06
 0.10392000E+03  0.23306E+06
 0.10397000E+03  0.22815E+06
 0.10402000E+03  0.18810E+06
 0.10407000E+03  0.12697E+06
 0.10412000E+03  0.59356E+05
 0.10417000E+03 -0.10390E+05
 0.10422000E+03 -0.87713E+05
 0.10427000E+03 -0.17868E+06
 0.10432000E+03 -0.27273E+06
 0.10437000E+03 -0.35143E+06
 0.10442000E+03 -0.39827E+06
 0.10447000E+03 -0.40041E+06
 0.10452000E+03 -0.35894E+06
 0.10457000E+03 -0.29136E+06
 0.10462000E+03 -0.22149E+06
 0.10467000E+03 -0.17065E+06
 0.10472000E+03 -0.14499E+06
 0.10477000E+03 -0.13491E+06
 0.10482000E+03 -0.12572E+06
 0.10487000E+03 -0.10673E+06
 0.10492000E+03 -0.88642E+05
 0.10497000E+03 -0.83547E+05
 0.10502000E+03 -0.83682E+05
 0.10507000E+03 -0.78855E+05
 0.10512000E+03 -0.63883E+05
 0.10517000E+03 -0.44839E+05
 0.10522000E+03 -0.38425E+05
 0.10527000E+03 -0.51882E+05
 0.10532000E+03 -0.71575E+05
 0.10537000E+03 -0.81912E+05
 0.10542000E+03 -0.85692E+05
 0.10547000E+03 -0.10114E+06
 0.10552000E+03 -0.14293E+06
 0.10557000E+03 -0.20311E+06
 0.10562000E+03 -0.26152E+06
 0.10567000E+03 -0.30053E+06
 0.10572000E+03 -0.31231E+06
 0.10577000E+03 -0.30166E+06
 0.10582000E+03 -0.27163E+06
 0.10587000E+03 -0.21464E+06
 0.10592000E+03 -0.12701E+06
 0.10597000E+03 -0.25805E+05
 0.10602000E+03  0.58641E+05
 0.10607000E+03  0.11805E+06
 0.10612000E+03  0.17348E+06
 0.10617000E+03  0.24071E+06
 0.10622000E+03  0.32236E+06
 0.10627000E+03  0.40671E+06
 0.10632000E+03  0.47743E+06
 0.10637000E+03  0.53456E+06
 0.10642000E+03  0.57900E+06
 0.10647000E+03  0.60374E+06
 0.10652000E+03  0.61066E+06
 0.10657000E+03  0.61240E+06
 0.10662000E+03  0.61540E+06
 0.10667000E+03  0.62380E+06
 0.10672000E+03  0.63001E+06
 0.10677000E+03  0.60768E+06
 0.10682000E+03  0.54790E+06
 0.10687000E+03  0.46757E+06
 0.10692000E+03  0.38958E+06
 0.10697000E+03  0.32604E+06
 0.10702000E+03  0.27831E+06
 0.10707000E+03  0.24721E+06
 0.10712000E+03  0.22791E+06
 0.10717000E+03  0.21280E+06
 0.10722000E+03  0.20132E+06
 0.10727000E+03  0.19204E+06
 0.10732000E+03  0.17568E+06
 0.10737000E+03  0.14586E+06
 0.10742000E+03  0.10629E+06
 0.10747000E+03  0.68180E+05
 0.10752000E+03  0.36839E+05
 0.10757000E+03  0.50200E+04
 0.10762000E+03 -0.33519E+05
 0.10767000E+03 -0.78262E+05
 0.10772000E+03 -0.11460E+06
 0.10777000E+03 -0.12007E+06
 0.10782000E+03 -0.89098E+05
 0.10787000E+03 -0.29709E+05
 0.10792000E+03  0.40618E+05
 0.10797000E+03  0.99868E+05
 0.10802000E+03  0.13560E+06
 0.10807000E+03  0.14490E+06
 0.10812000E+03  0.13887E+06
 0.10817000E+03  0.13174E+06
 0.10822000E+03  0.11788E+06
 0.10827000E+03  0.80753E+05
 0.10832000E+03  0.12786E+05
 0.10837000E+03 -0.79876E+05
 0.10842000E+03 -0.17353E+06
 0.10847000E+03 -0.24437E+06
 0.10852000E+03 -0.28359E+06
 0.10857000E+03 -0.28581E+06
 0.10862000E+03 -0.25824E+06
 0.10867000E+03 -0.21452E+06
 0.10872000E+03 -0.15351E+06
 0.10877000E+03 -0.76066E+05
 0.10882000E+03  0.57460E+04
 0.10887000E+03  0.79430E+05
 0.10892000E+03  0.13076E+06
 0.10897000E+03  0.15124E+06
 0.10902000E+03  0.14196E+06
 0.10907000E+03  0.10167E+06
 0.10912000E+03  0.31606E+05
 0.10917000E+03 -0.55004E+05
 0.10922000E+03 -0.13970E+06
 0.10927000E+03 -0.20655E+06
 0.10932000E+03 -0.24252E+06
 0.10937000E+03 -0.24031E+06
 0.10942000E+03 -0.20149E+06
 0.10947000E+03 -0.13550E+06
 0.10952000E+03 -0.58794E+05
 0.10957000E+03  0.81240E+04
 0.10962000E+03  0.50894E+05
 0.10967000E+03  0.66197E+05
 0.10972000E+03  0.61377E+05
 0.10977000E+03  0.51384E+05
 0.10982000E+03  0.40794E+05
 0.10987000E+03  0.29670E+05
 0.10992000E+03  0.24427E+05
 0.10997000E+03  0.20958E+05
 0.11002000E+03  0.15504E+05
 0.11007000E+03  0.91070E+04
 0.11012000E+03 -0.20950E+04
 0.11017000E+03 -0.12292E+05
 0.11022000E+03 -0.16276E+05
 0.11027000E+03 -0.17005E+05
 0.11032000E+03 -0.96250E+04
 0.11037000E+03  0.10998E+05
 0.11042000E+03  0.33092E+05
 0.11047000E+03  0.41755E+05
 0.11052000E+03  0.36037E+05
 0.11057000E+03  0.12446E+05
 0.11062000E+03 -0.27456E+05
 0.11067000E+03 -0.71732E+05
 0.11072000E+03 -0.11937E+06
 0.11077000E+03 -0.16908E+06
 0.11082000E+03 -0.21529E+06
 0.11087000E+03 -0.25034E+06
 0.11092000E+03 -0.26840E+06
 0.11097000E+03 -0.27347E+06
 0.11102000E+03 -0.26406E+06
 0.11107000E+03 -0.23704E+06
 0.11112000E+03 -0.19676E+06
 0.11117000E+03 -0.15138E+06
 0.11122000E+03 -0.10761E+06
 0.11127000E+03 -0.70474E+05
 0.11132000E+03 -0.48862E+05
 0.11137000E+03 -0.45018E+05
 0.11142000E+03 -0.54564E+05
 0.11147000E+03 -0.68957E+05
 0.11152000E+03 -0.73231E+05
 0.11157000E+03 -0.63016E+05
 0.11162000E+03 -0.42354E+05
 0.11167000E+03 -0.10943E+05
 0.11172000E+03  0.22801E+05
 0.11177000E+03  0.42344E+05
 0.11182000E+03  0.42579E+05
 0.11187000E+03  0.26350E+05
 0.11192000E+03  0.14350E+04
 0.11197000E+03 -0.17691E+05
 0.11202000E+03 -0.23688E+05
 0.11207000E+03 -0.19652E+05
 0.11212000E+03 -0.84830E+04
 0.11217000E+03  0.63330E+04
 0.11222000E+03  0.18943E+05
 0.11227000E+03  0.28054E+05
 0.11232000E+03  0.24983E+05
 0.11237000E+03  0.31490E+04
 0.11242000E+03 -0.33943E+05
 0.11247000E+03 -0.86994E+05
 0.11252000E+03 -0.14070E+06
 0.11257000E+03 -0.17811E+06
 0.11262000E+03 -0.20059E+06
 0.11267000E+03 -0.20550E+06
 0.11272000E+03 -0.19211E+06
 0.11277000E+03 -0.16568E+06
 0.11282000E+03 -0.12719E+06
 0.11287000E+03 -0.86854E+05
 0.11292000E+03 -0.55754E+05
 0.11297000E+03 -0.23793E+05
 0.11302000E+03  0.17115E+05
 0.11307000E+03  0.62625E+05
 0.11312000E+03  0.10905E+06
 0.11317000E+03  0.15461E+06
 0.11322000E+03  0.20176E+06
 0.11327000E+03  0.25775E+06
 0.11332000E+03  0.32864E+06
 0.11337000E+03  0.40350E+06
 0.11342000E+03  0.46558E+06
 0.11347000E+03  0.50614E+06
 0.11352000E+03  0.52314E+06
 0.11357000E+03  0.52494E+06
 0.11362000E+03  0.51945E+06
 0.11367000E+03  0.50970E+06
 0.11372000E+03  0.49383E+06
 0.11377000E+03  0.46548E+06
 0.11382000E+03  0.42222E+06
 0.11387000E+03  0.37821E+06
 0.11392000E+03  0.35728E+06
 0.11397000E+03  0.36591E+06
 0.11402000E+03  0.39690E+06
 0.11407000E+03  0.43524E+06
 0.11412000E+03  0.46064E+06
 0.11417000E+03  0.46508E+06
 0.11422000E+03  0.44248E+06
 0.11427000E+03  0.38129E+06
 0.11432000E+03  0.29002E+06
 0.11437000E+03  0.19241E+06
 0.11442000E+03  0.99413E+05
 0.11447000E+03  0.21098E+05
 0.11452000E+03 -0.34091E+05
 0.11457000E+03 -0.76594E+05
 0.11462000E+03 -0.10875E+06
 0.11467000E+03 -0.11960E+06
 0.11472000E+03 -0.10861E+06
 0.11477000E+03 -0.81218E+05
 0.11482000E+03 -0.42936E+05
 0.11487000E+03 -0.53340E+04
 0.11492000E+03  0.21178E+05
 0.11497000E+03  0.32881E+05
 0.11502000E+03  0.22202E+05
 0.11507000E+03 -0.15915E+05
 0.11512000E+03 -0.70123E+05
 0.11517000E+03 -0.12346E+06
 0.11522000E+03 -0.16893E+06
 0.11527000E+03 -0.20836E+06
 0.11532000E+03 -0.24707E+06
 0.11537000E+03 -0.28963E+06
 0.11542000E+03 -0.33307E+06
 0.11547000E+03 -0.36745E+06
 0.11552000E+03 -0.38406E+06
 0.11557000E+03 -0.38391E+06
 0.11562000E+03 -0.37936E+06
 0.11567000E+03 -0.38358E+06
 0.11572000E+03 -0.39769E+06
 0.11577000E+03 -0.41604E+06
 0.11582000E+03 -0.43291E+06
 0.11587000E+03 -0.44099E+06
 0.11592000E+03 -0.43691E+06
 0.11597000E+03 -0.42224E+06
 0.11602000E+03 -0.40488E+06
 0.11607000E+03 -0.38864E+06
 0.11612000E+03 -0.36823E+06
 0.11617000E+03 -0.34838E+06
 0.11622000E+03 -0.33625E+06
 0.11627000E+03 -0.32903E+06
 0.11632000E+03 -0.32268E+06
 0.11637000E+03 -0.31710E+06
 0.11642000E+03 -0.31228E+06
 0.11647000E+03 -0.30312E+06
 0.11652000E+03 -0.28640E+06
 0.11657000E+03 -0.26126E+06
 0.11662000E+03 -0.22487E+06
 0.11667000E+03 -0.17791E+06
 0.11672000E+03 -0.12676E+06
 0.11677000E+03 -0.85726E+05
 0.11682000E+03 -0.68634E+05
 0.11687000E+03 -0.76314E+05
 0.11692000E+03 -0.96643E+05
 0.11697000E+03 -0.11030E+06
 0.11702000E+03 -0.10184E+06
 0.11707000E+03 -0.70947E+05
 0.11712000E+03 -0.35460E+05
 0.11717000E+03 -0.15029E+05
 0.11722000E+03 -0.15894E+05
 0.11727000E+03 -0.37093E+05
 0.11732000E+03 -0.71811E+05
 0.11737000E+03 -0.11164E+06
 0.11742000E+03 -0.14821E+06
 0.11747000E+03 -0.16172E+06
 0.11752000E+03 -0.14029E+06
 0.11757000E+03 -0.92463E+05
 0.11762000E+03 -0.28532E+05
 0.11767000E+03  0.34454E+05
 0.11772000E+03  0.79950E+05
 0.11777000E+03  0.11164E+06
 0.11782000E+03  0.14091E+06
 0.11787000E+03  0.17234E+06
 0.11792000E+03  0.20290E+06
 0.11797000E+03  0.22570E+06
 0.11802000E+03  0.23275E+06
 0.11807000E+03  0.22065E+06
 0.11812000E+03  0.19611E+06
 0.11817000E+03  0.16866E+06
 0.11822000E+03  0.13967E+06
 0.11827000E+03  0.10744E+06
 0.11832000E+03  0.73538E+05
 0.11837000E+03  0.34724E+05
 0.11842000E+03 -0.11446E+05
 0.11847000E+03 -0.52491E+05
 0.11852000E+03 -0.74247E+05
 0.11857000E+03 -0.78018E+05
 0.11862000E+03 -0.72393E+05
 0.11867000E+03 -0.71882E+05
 0.11872000E+03 -0.89807E+05
 0.11877000E+03 -0.12399E+06
 0.11882000E+03 -0.16784E+06
 0.11887000E+03 -0.21725E+06
 0.11892000E+03 -0.26353E+06
 0.11897000E+03 -0.28898E+06
 0.11902000E+03 -0.27844E+06
 0.11907000E+03 -0.23375E+06
 0.11912000E+03 -0.16955E+06
 0.11917000E+03 -0.10302E+06
 0.11922000E+03 -0.49859E+05
 0.11927000E+03 -0.15843E+05
 0.11932000E+03  0.77140E+04
 0.11937000E+03  0.28455E+05
 0.11942000E+03  0.47782E+05
 0.11947000E+03  0.64539E+05
 0.11952000E+03  0.77465E+05
 0.11957000E+03  0.96705E+05
 0.11962000E+03  0.13254E+06
 0.11967000E+03  0.18153E+06
 0.11972000E+03  0.23967E+06
 0.11977000E+03  0.29878E+06
 0.11982000E+03  0.34682E+06
 0.11987000E+03  0.38335E+06
 0.11992000E+03  0.40964E+06
 0.11997000E+03  0.42082E+06
 0.12002000E+03  0.40980E+06
 0.12007000E+03  0.37614E+06
 0.12012000E+03  0.33042E+06
 0.12017000E+03  0.28014E+06
 0.12022000E+03  0.22760E+06
 0.12027000E+03  0.17192E+06
 0.12032000E+03  0.11338E+06
 0.12037000E+03  0.64511E+05
 0.12042000E+03  0.33875E+05
 0.12047000E+03  0.19962E+05
 0.12052000E+03  0.25529E+05
 0.12057000E+03  0.47546E+05
 0.12062000E+03  0.70003E+05
 0.12067000E+03  0.80154E+05
 0.12072000E+03  0.77629E+05
 0.12077000E+03  0.68928E+05
 0.12082000E+03  0.62331E+05
 0.12087000E+03  0.63709E+05
 0.12092000E+03  0.77518E+05
 0.12097000E+03  0.10962E+06
 0.12102000E+03  0.15534E+06
 0.12107000E+03  0.19403E+06
 0.12112000E+03  0.21059E+06
 0.12117000E+03  0.19811E+06
 0.12122000E+03  0.15543E+06
 0.12127000E+03  0.10288E+06
 0.12132000E+03  0.61580E+05
 0.12137000E+03  0.38505E+05
 0.12142000E+03  0.35942E+05
 0.12147000E+03  0.43483E+05
 0.12152000E+03  0.48487E+05
 0.12157000E+03  0.55539E+05
 0.12162000E+03  0.72098E+05
 0.12167000E+03  0.90869E+05
 0.12172000E+03  0.10315E+06
 0.12177000E+03  0.10737E+06
 0.12182000E+03  0.10403E+06
 0.12187000E+03  0.10002E+06
 0.12192000E+03  0.97448E+05
 0.12197000E+03  0.87167E+05
 0.12202000E+03  0.64669E+05
 0.12207000E+03  0.34010E+05
 0.12212000E+03  0.75200E+03
 0.12217000E+03 -0.31087E+05
 0.12222000E+03 -0.63335E+05
 0.12227000E+03 -0.10150E+06
 0.12232000E+03 -0.14407E+06
 0.12237000E+03 -0.18340E+06
 0.12242000E+03 -0.21098E+06
 0.12247000E+03 -0.22530E+06
 0.12252000E+03 -0.23379E+06
 0.12257000E+03 -0.24485E+06
 0.12262000E+03 -0.26407E+06
 0.12267000E+03 -0.28895E+06
 0.12272000E+03 -0.31340E+06
 0.12277000E+03 -0.33238E+06
 0.12282000E+03 -0.34440E+06
 0.12287000E+03 -0.35463E+06
 0.12292000E+03 -0.36492E+06
 0.12297000E+03 -0.37120E+06
 0.12302000E+03 -0.37106E+06
 0.12307000E+03 -0.36252E+06
 0.12312000E+03 -0.34339E+06
 0.12317000E+03 -0.31545E+06
 0.12322000E+03 -0.27770E+06
 0.12327000E+03 -0.22891E+06
 0.12332000E+03 -0.18025E+06
 0.12337000E+03 -0.14696E+06
 0.12342000E+03 -0.13835E+06
 0.12347000E+03 -0.15099E+06
 0.12352000E+03 -0.16512E+06
 0.12357000E+03 -0.15800E+06
 0.12362000E+03 -0.11833E+06
 0.12367000E+03 -0.51717E+05
 0.12372000E+03  0.23275E+05
 0.12377000E+03  0.88279E+05
 0.12382000E+03  0.14114E+06
 0.12387000E+03  0.18710E+06
 0.12392000E+03  0.22127E+06
 0.12397000E+03  0.23807E+06
 0.12402000E+03  0.23702E+06
 0.12407000E+03  0.22448E+06
 0.12412000E+03  0.21086E+06
 0.12417000E+03  0.19910E+06
 0.12422000E+03  0.18851E+06
 0.12427000E+03  0.17807E+06
 0.12432000E+03  0.17055E+06
 0.12437000E+03  0.17542E+06
 0.12442000E+03  0.19991E+06
 0.12447000E+03  0.24297E+06
 0.12452000E+03  0.29339E+06
 0.12457000E+03  0.33517E+06
 0.12462000E+03  0.35555E+06
 0.12467000E+03  0.34737E+06
 0.12472000E+03  0.31404E+06
 0.12477000E+03  0.26558E+06
 0.12482000E+03  0.21111E+06
 0.12487000E+03  0.16134E+06
 0.12492000E+03  0.12055E+06
 0.12497000E+03  0.85928E+05
 0.12502000E+03  0.56412E+05
 0.12507000E+03  0.34046E+05
 0.12512000E+03  0.26167E+05
 0.12517001E+03  0.37487E+05
 0.12521999E+03  0.61551E+05
 0.12527000E+03  0.87515E+05
 0.12532000E+03  0.10760E+06
 0.12537000E+03  0.11352E+06
 0.12542001E+03  0.10073E+06
 0.12546999E+03  0.77690E+05
 0.12552000E+03  0.60746E+05
 0.12557000E+03  0.63552E+05
 0.12562000E+03  0.84578E+05
 0.12567001E+03  0.11164E+06
 0.12571999E+03  0.13865E+06
 0.12577000E+03  0.16597E+06
 0.12582000E+03  0.19394E+06
 0.12587000E+03  0.22090E+06
 0.12592001E+03  0.24086E+06
 0.12596999E+03  0.24373E+06
 0.12602000E+03  0.22450E+06
 0.12607000E+03  0.18388E+06
 0.12612000E+03  0.12543E+06
 0.12617001E+03  0.62694E+05
 0.12621999E+03  0.97880E+04
 0.12627000E+03 -0.29194E+05
 0.12632000E+03 -0.50658E+05
 0.12637000E+03 -0.53473E+05
 0.12642001E+03 -0.41013E+05
 0.12646999E+03 -0.12280E+05
 0.12652000E+03  0.27333E+05
 0.12657000E+03  0.63923E+05
 0.12662000E+03  0.90676E+05
 0.12667001E+03  0.10118E+06
 0.12671999E+03  0.90808E+05
 0.12677000E+03  0.66002E+05
 0.12682000E+03  0.30507E+05
 0.12687000E+03 -0.13397E+05
 0.12692001E+03 -0.61832E+05
 0.12696999E+03 -0.11634E+06
 0.12702000E+03 -0.17509E+06
 0.12707000E+03 -0.23208E+06
 0.12712000E+03 -0.28310E+06
 0.12717001E+03 -0.31965E+06
 0.12721999E+03 -0.32579E+06
 0.12727000E+03 -0.29250E+06
 0.12732000E+03 -0.22822E+06
 0.12737000E+03 -0.15146E+06
 0.12742001E+03 -0.79837E+05
 0.12746999E+03 -0.25695E+05
 0.12752000E+03 -0.17200E+03
 0.12757000E+03 -0.12710E+05
 0.12762000E+03 -0.64375E+05
 0.12767001E+03 -0.14626E+06
 0.12771999E+03 -0.24272E+06
 0.12777000E+03 -0.32806E+06
 0.12782000E+03 -0.37509E+06
 0.12787000E+03 -0.37733E+06
 0.12792001E+03 -0.34382E+06
 0.12796999E+03 -0.28916E+06
 0.12802000E+03 -0.23562E+06
 0.12807001E+03 -0.19659E+06
 0.12812001E+03 -0.17008E+06
 0.12817001E+03 -0.14734E+06
 0.12822000E+03 -0.11758E+06
 0.12827000E+03 -0.81010E+05
 0.12832001E+03 -0.45565E+05
 0.12837001E+03 -0.18352E+05
 0.12842001E+03 -0.47790E+04
 0.12847000E+03 -0.27510E+04
 0.12852000E+03 -0.41930E+04
 0.12857001E+03 -0.13700E+04
 0.12862001E+03  0.34980E+04
 0.12867001E+03  0.33500E+03
 0.12872000E+03 -0.17976E+05
 0.12877000E+03 -0.51379E+05
 0.12882001E+03 -0.93436E+05
 0.12887001E+03 -0.13773E+06
 0.12892001E+03 -0.17764E+06
 0.12897000E+03 -0.20575E+06
 0.12902000E+03 -0.21986E+06
 0.12907001E+03 -0.22365E+06
 0.12912001E+03 -0.22028E+06
 0.12917001E+03 -0.21112E+06
 0.12922000E+03 -0.19823E+06
 0.12927000E+03 -0.18255E+06
 0.12932001E+03 -0.16375E+06
 0.12937001E+03 -0.13851E+06
 0.12942001E+03 -0.10469E+06
 0.12947000E+03 -0.66738E+05
 0.12952000E+03 -0.29713E+05
 0.12957001E+03  0.39040E+04
 0.12962001E+03  0.34730E+05
 0.12967001E+03  0.65435E+05
 0.12972000E+03  0.97472E+05
 0.12977000E+03  0.12833E+06
 0.12982001E+03  0.15082E+06
 0.12987001E+03  0.15832E+06
 0.12992001E+03  0.14631E+06
 0.12997000E+03  0.11726E+06
 0.13002000E+03  0.82152E+05
 0.13007001E+03  0.50237E+05
 0.13012001E+03  0.27270E+05
 0.13017001E+03  0.15113E+05
 0.13022000E+03  0.76800E+04
 0.13027000E+03 -0.38940E+04
 0.13032001E+03 -0.20648E+05
 0.13037001E+03 -0.37205E+05
 0.13042001E+03 -0.48305E+05
 0.13047000E+03 -0.47869E+05
 0.13052000E+03 -0.33140E+05
 0.13057001E+03 -0.74940E+04
 0.13062001E+03  0.24427E+05
 0.13067001E+03  0.60699E+05
 0.13072000E+03  0.97577E+05
 0.13077000E+03  0.13149E+06
 0.13082001E+03  0.16475E+06
 0.13087001E+03  0.19520E+06
 0.13092001E+03  0.21949E+06
 0.13097000E+03  0.23731E+06
 0.13102000E+03  0.24739E+06
 0.13107001E+03  0.25150E+06
 0.13112001E+03  0.24994E+06
 0.13117001E+03  0.24188E+06
 0.13122000E+03  0.22852E+06
 0.13127000E+03  0.21201E+06
 0.13132001E+03  0.19356E+06
 0.13137001E+03  0.17234E+06
 0.13142001E+03  0.14830E+06
 0.13147000E+03  0.11694E+06
 0.13152000E+03  0.73519E+05
 0.13157001E+03  0.21458E+05
 0.13162001E+03 -0.34256E+05
 0.13167001E+03 -0.90881E+05
 0.13172000E+03 -0.14431E+06
 0.13177000E+03 -0.18634E+06
 0.13182001E+03 -0.20925E+06
 0.13187001E+03 -0.20975E+06
 0.13192001E+03 -0.18498E+06
 0.13197000E+03 -0.13770E+06
 0.13202000E+03 -0.80327E+05
 0.13207001E+03 -0.25659E+05
 0.13212001E+03  0.21151E+05
 0.13217001E+03  0.61081E+05
 0.13222000E+03  0.92845E+05
 0.13227000E+03  0.11239E+06
 0.13232001E+03  0.11826E+06
 0.13237001E+03  0.11583E+06
 0.13242001E+03  0.11535E+06
 0.13247000E+03  0.12511E+06
 0.13252000E+03  0.15039E+06
 0.13257001E+03  0.18769E+06
 0.13262001E+03  0.22734E+06
 0.13267001E+03  0.26473E+06
 0.13272000E+03  0.29503E+06
 0.13277000E+03  0.31220E+06
 0.13282001E+03  0.31514E+06
 0.13287001E+03  0.30583E+06
 0.13292001E+03  0.28948E+06
 0.13297000E+03  0.27159E+06
 0.13302000E+03  0.25349E+06
 0.13307001E+03  0.23439E+06
 0.13312001E+03  0.21357E+06
 0.13317001E+03  0.19405E+06
 0.13322000E+03  0.17952E+06
 0.13327000E+03  0.17026E+06
 0.13332001E+03  0.16330E+06
 0.13337001E+03  0.15145E+06
 0.13342001E+03  0.13312E+06
 0.13347000E+03  0.11023E+06
 0.13352000E+03  0.80439E+05
 0.13357001E+03  0.46514E+05
 0.13362001E+03  0.14660E+05
 0.13367001E+03 -0.12214E+05
 0.13372000E+03 -0.33738E+05
 0.13377000E+03 -0.51098E+05
 0.13382001E+03 -0.64853E+05
 0.13387001E+03 -0.77032E+05
 0.13392001E+03 -0.89526E+05
 0.13397000E+03 -0.99151E+05
 0.13402000E+03 -0.99848E+05
 0.13407001E+03 -0.85950E+05
 0.13412001E+03 -0.60491E+05
 0.13417001E+03 -0.36099E+05
 0.13422000E+03 -0.21747E+05
 0.13427000E+03 -0.17816E+05
 0.13432001E+03 -0.21492E+05
 0.13437001E+03 -0.31562E+05
 0.13442001E+03 -0.44266E+05
 0.13447000E+03 -0.51725E+05
 0.13452000E+03 -0.46387E+05
 0.13457001E+03 -0.29392E+05
 0.13462001E+03 -0.14794E+05
 0.13467001E+03 -0.13073E+05
 0.13472000E+03 -0.23585E+05
 0.13477000E+03 -0.42638E+05
 0.13482001E+03 -0.64520E+05
 0.13487001E+03 -0.85764E+05
 0.13492001E+03 -0.10583E+06
 0.13497000E+03 -0.12369E+06
 0.13502000E+03 -0.14150E+06
 0.13507001E+03 -0.16203E+06
 0.13512001E+03 -0.18676E+06
 0.13517001E+03 -0.21376E+06
 0.13522000E+03 -0.23875E+06
 0.13527000E+03 -0.25962E+06
 0.13532001E+03 -0.27076E+06
 0.13537001E+03 -0.27184E+06
 0.13542001E+03 -0.27215E+06
 0.13547000E+03 -0.27750E+06
 0.13552000E+03 -0.29039E+06
 0.13557001E+03 -0.31154E+06
 0.13562001E+03 -0.33775E+06
 0.13567001E+03 -0.36660E+06
 0.13572000E+03 -0.39606E+06
 0.13577000E+03 -0.41956E+06
 0.13582001E+03 -0.42987E+06
 0.13587001E+03 -0.42042E+06
 0.13592001E+03 -0.38387E+06
 0.13597000E+03 -0.31978E+06
 0.13602000E+03 -0.23644E+06
 0.13607001E+03 -0.14674E+06
 0.13612001E+03 -0.64493E+05
 0.13617001E+03  0.50300E+03
 0.13622000E+03  0.45187E+05
 0.13627000E+03  0.73907E+05
 0.13632001E+03  0.93676E+05
 0.13637001E+03  0.10742E+06
 0.13642001E+03  0.11304E+06
 0.13647000E+03  0.10872E+06
 0.13652000E+03  0.98753E+05
 0.13657001E+03  0.92640E+05
 0.13662001E+03  0.97239E+05
 0.13667001E+03  0.11126E+06
 0.13672000E+03  0.12863E+06
 0.13677000E+03  0.14366E+06
 0.13682001E+03  0.15273E+06
 0.13687001E+03  0.15044E+06
 0.13692001E+03  0.13067E+06
 0.13697000E+03  0.94658E+05
 0.13702000E+03  0.48670E+05
 0.13707001E+03 -0.15000E+04
 0.13712001E+03 -0.49815E+05
 0.13717001E+03 -0.89817E+05
 0.13722000E+03 -0.11841E+06
 0.13727000E+03 -0.13542E+06
 0.13732001E+03 -0.13944E+06
 0.13737001E+03 -0.13552E+06
 0.13742001E+03 -0.13242E+06
 0.13747000E+03 -0.13093E+06
 0.13752000E+03 -0.12669E+06
 0.13757001E+03 -0.11596E+06
 0.13762001E+03 -0.10334E+06
 0.13767001E+03 -0.99131E+05
 0.13772000E+03 -0.10674E+06
 0.13777000E+03 -0.12030E+06
 0.13782001E+03 -0.13090E+06
 0.13787001E+03 -0.13067E+06
 0.13792001E+03 -0.11384E+06
 0.13797000E+03 -0.82713E+05
 0.13802000E+03 -0.44039E+05
 0.13807001E+03 -0.25520E+04
 0.13812001E+03  0.37738E+05
 0.13817001E+03  0.72425E+05
 0.13822000E+03  0.99726E+05
 0.13827000E+03  0.12172E+06
 0.13832001E+03  0.13582E+06
 0.13837001E+03  0.14053E+06
 0.13842001E+03  0.13864E+06
 0.13847000E+03  0.13190E+06
 0.13852000E+03  0.12697E+06
 0.13857001E+03  0.12801E+06
 0.13862001E+03  0.13073E+06
 0.13867001E+03  0.12844E+06
 0.13872000E+03  0.11526E+06
 0.13877000E+03  0.89094E+05
 0.13882001E+03  0.52551E+05
 0.13887001E+03  0.13358E+05
 0.13892001E+03 -0.22065E+05
 0.13897000E+03 -0.51854E+05
 0.13902000E+03 -0.74285E+05
 0.13907001E+03 -0.88763E+05
 0.13912001E+03 -0.94447E+05
 0.13917001E+03 -0.90036E+05
 0.13922000E+03 -0.75716E+05
 0.13927000E+03 -0.52084E+05
 0.13932001E+03 -0.19613E+05
 0.13937001E+03  0.21288E+05
 0.13942001E+03  0.67509E+05
 0.13947000E+03  0.11222E+06
 0.13952000E+03  0.15146E+06
 0.13957001E+03  0.18675E+06
 0.13962001E+03  0.21941E+06
 0.13967001E+03  0.24584E+06
 0.13972000E+03  0.25953E+06
 0.13977000E+03  0.25569E+06
 0.13982001E+03  0.23344E+06
 0.13987001E+03  0.19999E+06
 0.13992001E+03  0.16605E+06
 0.13997000E+03  0.13770E+06
 0.14002000E+03  0.11668E+06
 0.14007001E+03  0.10148E+06
 0.14012001E+03  0.92975E+05
 0.14017001E+03  0.95256E+05
 0.14022000E+03  0.11028E+06
 0.14027000E+03  0.14025E+06
 0.14032001E+03  0.18208E+06
 0.14037001E+03  0.22365E+06
 0.14042001E+03  0.25621E+06
 0.14047000E+03  0.27644E+06
 0.14052000E+03  0.28097E+06
 0.14057001E+03  0.27082E+06
 0.14062001E+03  0.24841E+06
 0.14067001E+03  0.21060E+06
 0.14072000E+03  0.15902E+06
 0.14077000E+03  0.10655E+06
 0.14082001E+03  0.65617E+05
 0.14087001E+03  0.40692E+05
 0.14092001E+03  0.27884E+05
 0.14097000E+03  0.18373E+05
 0.14102000E+03  0.66520E+04
 0.14107001E+03 -0.85020E+04
 0.14112001E+03 -0.24666E+05
 0.14117001E+03 -0.35391E+05
 0.14122000E+03 -0.38716E+05
 0.14127000E+03 -0.38276E+05
 0.14132001E+03 -0.34767E+05
 0.14137001E+03 -0.26800E+05
 0.14142001E+03 -0.18273E+05
 0.14147000E+03 -0.14654E+05
 0.14152000E+03 -0.13985E+05
 0.14157001E+03 -0.10333E+05
 0.14162001E+03  0.27000E+02
 0.14167001E+03  0.17787E+05
 0.14172000E+03  0.39237E+05
 0.14177000E+03  0.59186E+05
 0.14182001E+03  0.75609E+05
 0.14187001E+03  0.89376E+05
 0.14192001E+03  0.99939E+05
 0.14197000E+03  0.10305E+06
 0.14202000E+03  0.98144E+05
 0.14207001E+03  0.89668E+05
 0.14212001E+03  0.80529E+05
 0.14217001E+03  0.71906E+05
 0.14222000E+03  0.66731E+05
 0.14227000E+03  0.69812E+05
 0.14232001E+03  0.81858E+05
 0.14237001E+03  0.99641E+05
 0.14242001E+03  0.11941E+06
 0.14247000E+03  0.13624E+06
 0.14252000E+03  0.14838E+06
 0.14257001E+03  0.15646E+06
 0.14262001E+03  0.15886E+06
 0.14267001E+03  0.15221E+06
 0.14272000E+03  0.13235E+06
 0.14277000E+03  0.10340E+06
 0.14282001E+03  0.75771E+05
 0.14287001E+03  0.52908E+05
 0.14292001E+03  0.33831E+05
 0.14297000E+03  0.16870E+05
 0.14302000E+03  0.26600E+03
 0.14307001E+03 -0.15443E+05
 0.14312001E+03 -0.31687E+05
 0.14317001E+03 -0.53596E+05
 0.14322000E+03 -0.84086E+05
 0.14327000E+03 -0.11700E+06
 0.14332001E+03 -0.14000E+06
 0.14337001E+03 -0.14637E+06
 0.14342001E+03 -0.13718E+06
 0.14347000E+03 -0.11629E+06
 0.14352000E+03 -0.88829E+05
 0.14357001E+03 -0.61003E+05
 0.14362001E+03 -0.39939E+05
 0.14367001E+03 -0.31830E+05
 0.14372000E+03 -0.37917E+05
 0.14377000E+03 -0.53812E+05
 0.14382001E+03 -0.75890E+05
 0.14387001E+03 -0.10464E+06
 0.14392001E+03 -0.14013E+06
 0.14397000E+03 -0.17952E+06
 0.14402000E+03 -0.21812E+06
 0.14407001E+03 -0.24869E+06
 0.14412001E+03 -0.26316E+06
 0.14417001E+03 -0.25574E+06
 0.14422000E+03 -0.22510E+06
 0.14427000E+03 -0.17791E+06
 0.14432001E+03 -0.12832E+06
 0.14437001E+03 -0.91362E+05
 0.14442001E+03 -0.74152E+05
 0.14447000E+03 -0.74795E+05
 0.14452000E+03 -0.89200E+05
 0.14457001E+03 -0.11276E+06
 0.14462001E+03 -0.13902E+06
 0.14467001E+03 -0.16085E+06
 0.14472000E+03 -0.17367E+06
 0.14477000E+03 -0.17809E+06
 0.14482001E+03 -0.17763E+06
 0.14487001E+03 -0.17391E+06
 0.14492001E+03 -0.16600E+06
 0.14497000E+03 -0.15678E+06
 0.14502000E+03 -0.15349E+06
 0.14507001E+03 -0.15867E+06
 0.14512001E+03 -0.16845E+06
 0.14517001E+03 -0.17682E+06
 0.14522000E+03 -0.18007E+06
 0.14527000E+03 -0.18000E+06
 0.14532001E+03 -0.17956E+06
 0.14537001E+03 -0.17922E+06
 0.14542001E+03 -0.17780E+06
 0.14547000E+03 -0.17394E+06
 0.14552000E+03 -0.16904E+06
 0.14557001E+03 -0.16643E+06
 0.14562001E+03 -0.16832E+06
 0.14567001E+03 -0.17502E+06
 0.14572000E+03 -0.18433E+06
 0.14577000E+03 -0.19481E+06
 0.14582001E+03 -0.20772E+06
 0.14587001E+03 -0.22138E+06
 0.14592001E+03 -0.23230E+06
 0.14597000E+03 -0.24019E+06
 0.14602000E+03 -0.24563E+06
 0.14607001E+03 -0.24875E+06
 0.14612001E+03 -0.25248E+06
 0.14617001E+03 -0.25997E+06
 0.14622000E+03 -0.26750E+06
 0.14627000E+03 -0.26670E+06
 0.14632001E+03 -0.25061E+06
 0.14637001E+03 -0.21674E+06
 0.14642001E+03 -0.16967E+06
 0.14647000E+03 -0.11661E+06
 0.14652000E+03 -0.62330E+05
 0.14657001E+03 -0.99890E+04
 0.14662001E+03  0.38721E+05
 0.14667001E+03  0.82936E+05
 0.14672000E+03  0.12147E+06
 0.14677000E+03  0.15391E+06
 0.14682001E+03  0.18046E+06
 0.14687001E+03  0.19933E+06
 0.14692001E+03  0.20822E+06
 0.14697000E+03  0.20498E+06
 0.14702000E+03  0.18490E+06
 0.14707001E+03  0.14603E+06
 0.14712001E+03  0.93541E+05
 0.14717001E+03  0.36521E+05
 0.14722000E+03 -0.13962E+05
 0.14727000E+03 -0.51898E+05
 0.14732001E+03 -0.80314E+05
 0.14737001E+03 -0.10190E+06
 0.14742001E+03 -0.11648E+06
 0.14747000E+03 -0.12295E+06
 0.14752000E+03 -0.11940E+06
 0.14757001E+03 -0.10692E+06
 0.14762001E+03 -0.88211E+05
 0.14767001E+03 -0.65324E+05
 0.14772000E+03 -0.39800E+05
 0.14777000E+03 -0.11855E+05
 0.14782001E+03  0.20467E+05
 0.14787001E+03  0.60076E+05
 0.14792001E+03  0.10681E+06
 0.14797000E+03  0.15732E+06
 0.14802000E+03  0.20786E+06
 0.14807001E+03  0.25515E+06
 0.14812001E+03  0.29380E+06
 0.14817001E+03  0.32022E+06
 0.14822000E+03  0.33561E+06
 0.14827000E+03  0.33991E+06
 0.14832001E+03  0.33450E+06
 0.14837001E+03  0.32378E+06
 0.14842001E+03  0.31040E+06
 0.14847000E+03  0.29571E+06
 0.14852000E+03  0.28088E+06
 0.14857001E+03  0.26590E+06
 0.14862001E+03  0.24900E+06
 0.14867001E+03  0.23036E+06
 0.14872000E+03  0.21242E+06
 0.14877000E+03  0.19706E+06
 0.14882001E+03  0.18300E+06
 0.14887001E+03  0.16587E+06
 0.14892001E+03  0.14403E+06
 0.14897000E+03  0.11831E+06
 0.14902000E+03  0.89680E+05
 0.14907001E+03  0.61119E+05
 0.14912001E+03  0.37270E+05
 0.14917001E+03  0.22161E+05
 0.14922000E+03  0.16884E+05
 0.14927000E+03  0.20713E+05
 0.14932001E+03  0.30668E+05
 0.14937001E+03  0.39779E+05
 0.14942001E+03  0.43827E+05
 0.14947000E+03  0.43110E+05
 0.14952000E+03  0.37001E+05
 0.14957001E+03  0.26131E+05
 0.14962001E+03  0.12479E+05
 0.14967001E+03 -0.13690E+04
 0.14972000E+03 -0.10439E+05
 0.14977000E+03 -0.10462E+05
 0.14982001E+03 -0.41000E+03
 0.14987001E+03  0.15827E+05
 0.14992001E+03  0.32367E+05
 0.14997000E+03  0.46554E+05
