-0.29800000E+01 -0.32959E+05
-0.29300001E+01 -0.37928E+05
-0.28800001E+01 -0.42423E+05
-0.28299999E+01 -0.46694E+05
-0.27800000E+01 -0.51504E+05
-0.27300000E+01 -0.56561E+05
-0.26800001E+01 -0.61289E+05
-0.26300001E+01 -0.66273E+05
-0.25799999E+01 -0.71593E+05
-0.25300000E+01 -0.76624E+05
-0.24800000E+01 -0.81067E+05
-0.24300001E+01 -0.85365E+05
-0.23800001E+01 -0.90022E+05
-0.23299999E+01 -0.93999E+05
-0.22800000E+01 -0.96587E+05
-0.22300000E+01 -0.98550E+05
-0.21800001E+01 -0.10050E+06
-0.21300001E+01 -0.10215E+06
-0.20799999E+01 -0.10211E+06
-0.20300000E+01 -0.99611E+05
-0.19800000E+01 -0.95432E+05
-0.19299999E+01 -0.90138E+05
-0.18800000E+01 -0.83179E+05
-0.18300000E+01 -0.74188E+05
-0.17800000E+01 -0.64264E+05
-0.17300000E+01 -0.54477E+05
-0.16799999E+01 -0.44737E+05
-0.16300000E+01 -0.35200E+05
-0.15800000E+01 -0.26434E+05
-0.15300000E+01 -0.18067E+05
-0.14800000E+01 -0.93210E+04
-0.14299999E+01  0.18900E+03
-0.13800000E+01  0.10230E+05
-0.13300000E+01  0.19998E+05
-0.12800000E+01  0.28910E+05
-0.12300000E+01  0.36876E+05
-0.11799999E+01  0.44405E+05
-0.11300000E+01  0.51791E+05
-0.10800000E+01  0.58567E+05
-0.10300000E+01  0.64482E+05
-0.98000002E+00  0.69495E+05
-0.93000007E+00  0.73108E+05
-0.87999988E+00  0.74909E+05
-0.82999992E+00  0.75149E+05
-0.77999997E+00  0.74616E+05
-0.73000002E+00  0.73862E+05
-0.68000007E+00  0.72555E+05
-0.62999988E+00  0.69880E+05
-0.57999992E+00  0.65397E+05
-0.52999997E+00  0.59283E+05
-0.48000002E+00  0.51670E+05
-0.43000007E+00  0.43180E+05
-0.37999988E+00  0.35119E+05
-0.32999992E+00  0.28220E+05
-0.27999997E+00  0.22186E+05
-0.23000002E+00  0.16761E+05
-0.18000007E+00  0.12324E+05
-0.12999988E+00  0.83370E+04
-0.79999924E-01  0.37740E+04
-0.29999971E-01 -0.14660E+04
 0.19999981E-01 -0.63900E+04
 0.69999933E-01 -0.96120E+04
 0.12000012E+00 -0.10714E+05
 0.17000008E+00 -0.98650E+04
 0.22000003E+00 -0.72990E+04
 0.26999998E+00 -0.32250E+04
 0.31999993E+00  0.16510E+04
 0.37000012E+00  0.65760E+04
 0.42000008E+00  0.11831E+05
 0.47000003E+00  0.17262E+05
 0.51999998E+00  0.21737E+05
 0.56999993E+00  0.24549E+05
 0.62000012E+00  0.26360E+05
 0.67000008E+00  0.28325E+05
 0.72000003E+00  0.30428E+05
 0.76999998E+00  0.31835E+05
 0.81999993E+00  0.32425E+05
 0.87000012E+00  0.32720E+05
 0.92000008E+00  0.32317E+05
 0.97000003E+00  0.30424E+05
 0.10200000E+01  0.27314E+05
 0.10700002E+01  0.23456E+05
 0.11199999E+01  0.18939E+05
 0.11700001E+01  0.13946E+05
 0.12200003E+01  0.89260E+04
 0.12700000E+01  0.44870E+04
 0.13200002E+01  0.84900E+03
 0.13699999E+01 -0.21180E+04
 0.14200001E+01 -0.43930E+04
 0.14700003E+01 -0.56790E+04
 0.15200000E+01 -0.54510E+04
 0.15700002E+01 -0.32680E+04
 0.16199999E+01  0.55800E+03
 0.16700001E+01  0.52280E+04
 0.17200003E+01  0.96980E+04
 0.17700000E+01  0.12844E+05
 0.18200002E+01  0.14461E+05
 0.18699999E+01  0.15300E+05
 0.19200001E+01  0.16597E+05
 0.19700003E+01  0.19283E+05
 0.20200000E+01  0.23381E+05
 0.20700002E+01  0.28243E+05
 0.21199999E+01  0.33127E+05
 0.21700001E+01  0.37658E+05
 0.22200003E+01  0.41596E+05
 0.22700000E+01  0.44785E+05
 0.23200002E+01  0.47115E+05
 0.23699999E+01  0.48413E+05
 0.24200001E+01  0.48927E+05
 0.24700003E+01  0.49160E+05
 0.25200000E+01  0.48794E+05
 0.25700002E+01  0.47140E+05
 0.26199999E+01  0.43921E+05
 0.26700001E+01  0.39533E+05
 0.27200003E+01  0.34861E+05
 0.27700000E+01  0.30099E+05
 0.28200002E+01  0.24940E+05
 0.28699999E+01  0.19093E+05
 0.29200001E+01  0.12552E+05
 0.29700003E+01  0.59130E+04
 0.30200000E+01 -0.42000E+03
 0.30700002E+01 -0.67390E+04
 0.31199999E+01 -0.13215E+05
 0.31700001E+01 -0.19053E+05
 0.32200003E+01 -0.23572E+05
 0.32700000E+01 -0.27076E+05
 0.33200002E+01 -0.30277E+05
 0.33699999E+01 -0.34121E+05
 0.34200001E+01 -0.38795E+05
 0.34700003E+01 -0.43392E+05
 0.35200000E+01 -0.47202E+05
 0.35700002E+01 -0.50094E+05
 0.36199999E+01 -0.52133E+05
 0.36700001E+01 -0.52892E+05
 0.37200003E+01 -0.51829E+05
 0.37700000E+01 -0.49326E+05
 0.38200002E+01 -0.46184E+05
 0.38699999E+01 -0.42820E+05
 0.39200001E+01 -0.39425E+05
 0.39700003E+01 -0.36080E+05
 0.40200000E+01 -0.32998E+05
 0.40700002E+01 -0.30911E+05
 0.41199999E+01 -0.30413E+05
 0.41700001E+01 -0.31456E+05
 0.42200003E+01 -0.33312E+05
 0.42700000E+01 -0.34750E+05
 0.43200002E+01 -0.34496E+05
 0.43699999E+01 -0.31683E+05
 0.44200001E+01 -0.26856E+05
 0.44700003E+01 -0.21503E+05
 0.45200000E+01 -0.16283E+05
 0.45700002E+01 -0.10848E+05
 0.46199999E+01 -0.50070E+04
 0.46700001E+01  0.40600E+03
 0.47200003E+01  0.48470E+04
 0.47700000E+01  0.85750E+04
 0.48200002E+01  0.11493E+05
 0.48699999E+01  0.13220E+05
 0.49200001E+01  0.13921E+05
 0.49700003E+01  0.14552E+05
 0.50200000E+01  0.15593E+05
 0.50700002E+01  0.17090E+05
 0.51200004E+01  0.18912E+05
 0.51700006E+01  0.20540E+05
 0.52199998E+01  0.21840E+05
 0.52700000E+01  0.22956E+05
 0.53200002E+01  0.24074E+05
 0.53700004E+01  0.24956E+05
 0.54200006E+01  0.25637E+05
 0.54699998E+01  0.26638E+05
 0.55200000E+01  0.28039E+05
 0.55700002E+01  0.29965E+05
 0.56200004E+01  0.32292E+05
 0.56700006E+01  0.34245E+05
 0.57199998E+01  0.34842E+05
 0.57700000E+01  0.33860E+05
 0.58200002E+01  0.32355E+05
 0.58700004E+01  0.31517E+05
 0.59200006E+01  0.31194E+05
 0.59699998E+01  0.29832E+05
 0.60200000E+01  0.26807E+05
 0.60700002E+01  0.23166E+05
 0.61200004E+01  0.19879E+05
 0.61700006E+01  0.16945E+05
 0.62199998E+01  0.13919E+05
 0.62700000E+01  0.10959E+05
 0.63200002E+01  0.82090E+04
 0.63700004E+01  0.57240E+04
 0.64200006E+01  0.35530E+04
 0.64699998E+01  0.15080E+04
 0.65200000E+01 -0.14800E+03
 0.65700002E+01 -0.10420E+04
 0.66200004E+01 -0.95400E+03
 0.66700006E+01 -0.30400E+03
 0.67199998E+01  0.23000E+03
 0.67700000E+01  0.78400E+03
 0.68200002E+01  0.19960E+04
 0.68700004E+01  0.36520E+04
 0.69200006E+01  0.42650E+04
 0.69699998E+01  0.32010E+04
 0.70200000E+01  0.12160E+04
 0.70700002E+01 -0.99200E+03
 0.71200004E+01 -0.32320E+04
 0.71700006E+01 -0.53970E+04
 0.72199998E+01 -0.64840E+04
 0.72700000E+01 -0.57890E+04
 0.73200002E+01 -0.44250E+04
 0.73700004E+01 -0.37780E+04
 0.74200006E+01 -0.37910E+04
 0.74699998E+01 -0.33580E+04
 0.75200000E+01 -0.24570E+04
 0.75700002E+01 -0.22400E+04
 0.76200004E+01 -0.31350E+04
 0.76700006E+01 -0.47000E+04
 0.77199998E+01 -0.67000E+04
 0.77700000E+01 -0.93210E+04
 0.78200002E+01 -0.12014E+05
 0.78700004E+01 -0.14281E+05
 0.79200006E+01 -0.16533E+05
 0.79699998E+01 -0.18822E+05
 0.80200005E+01 -0.20763E+05
 0.80699997E+01 -0.22050E+05
 0.81200008E+01 -0.22999E+05
 0.81700001E+01 -0.24468E+05
 0.82199993E+01 -0.26880E+05
 0.82700005E+01 -0.30052E+05
 0.83199997E+01 -0.33660E+05
 0.83700008E+01 -0.37497E+05
 0.84200001E+01 -0.40882E+05
 0.84699993E+01 -0.43070E+05
 0.85200005E+01 -0.44412E+05
 0.85699997E+01 -0.45559E+05
 0.86200008E+01 -0.46429E+05
 0.86700001E+01 -0.46680E+05
 0.87199993E+01 -0.46395E+05
 0.87700005E+01 -0.46325E+05
 0.88199997E+01 -0.46913E+05
 0.88700008E+01 -0.47335E+05
 0.89200001E+01 -0.46441E+05
 0.89699993E+01 -0.43746E+05
 0.90200005E+01 -0.39623E+05
 0.90699997E+01 -0.34395E+05
 0.91200008E+01 -0.27816E+05
 0.91700001E+01 -0.19870E+05
 0.92199993E+01 -0.11047E+05
 0.92700005E+01 -0.20080E+04
 0.93199997E+01  0.67490E+04
 0.93700008E+01  0.14860E+05
 0.94200001E+01  0.22325E+05
 0.94699993E+01  0.29478E+05
 0.95200005E+01  0.36476E+05
 0.95699997E+01  0.42910E+05
 0.96200008E+01  0.48193E+05
 0.96700001E+01  0.52317E+05
 0.97199993E+01  0.55600E+05
 0.97700005E+01  0.57901E+05
 0.98199997E+01  0.58581E+05
 0.98700008E+01  0.57608E+05
 0.99200001E+01  0.55683E+05
 0.99699993E+01  0.53146E+05
 0.10020000E+02  0.49409E+05
 0.10070000E+02  0.43882E+05
 0.10120001E+02  0.37099E+05
 0.10170000E+02  0.29966E+05
 0.10219999E+02  0.23073E+05
 0.10270000E+02  0.17007E+05
 0.10320000E+02  0.12282E+05
 0.10370001E+02  0.90570E+04
 0.10420000E+02  0.69410E+04
 0.10469999E+02  0.52350E+04
 0.10520000E+02  0.36610E+04
 0.10570000E+02  0.25010E+04
 0.10620001E+02  0.16270E+04
 0.10670000E+02  0.30100E+03
 0.10719999E+02 -0.16090E+04
 0.10770000E+02 -0.34760E+04
 0.10820000E+02 -0.50110E+04
 0.10870001E+02 -0.66840E+04
 0.10920000E+02 -0.86830E+04
 0.10969999E+02 -0.10580E+05
 0.11020000E+02 -0.11849E+05
 0.11070000E+02 -0.12032E+05
 0.11120001E+02 -0.11252E+05
 0.11170000E+02 -0.96920E+04
 0.11219999E+02 -0.74830E+04
 0.11270000E+02 -0.49370E+04
 0.11320000E+02 -0.21700E+04
 0.11370001E+02  0.52800E+03
 0.11420000E+02  0.31620E+04
 0.11469999E+02  0.58070E+04
 0.11520000E+02  0.79980E+04
 0.11570000E+02  0.95880E+04
 0.11620001E+02  0.10419E+05
 0.11670000E+02  0.10168E+05
 0.11719999E+02  0.91820E+04
 0.11770000E+02  0.81360E+04
 0.11820000E+02  0.71270E+04
 0.11870001E+02  0.60310E+04
 0.11920000E+02  0.49390E+04
 0.11969999E+02  0.38500E+04
 0.12020000E+02  0.25160E+04
 0.12070000E+02  0.59800E+03
 0.12120001E+02 -0.16840E+04
 0.12170000E+02 -0.39630E+04
 0.12219999E+02 -0.63280E+04
 0.12270000E+02 -0.90400E+04
 0.12320000E+02 -0.12154E+05
 0.12370001E+02 -0.15354E+05
 0.12420000E+02 -0.18480E+05
 0.12469999E+02 -0.21830E+05
 0.12520000E+02 -0.25284E+05
 0.12570000E+02 -0.28190E+05
 0.12620001E+02 -0.30478E+05
 0.12670000E+02 -0.32731E+05
 0.12719999E+02 -0.35210E+05
 0.12770000E+02 -0.37419E+05
 0.12820000E+02 -0.39336E+05
 0.12870001E+02 -0.41530E+05
 0.12920000E+02 -0.44081E+05
 0.12969999E+02 -0.46793E+05
 0.13020000E+02 -0.49347E+05
 0.13070002E+02 -0.51576E+05
 0.13120001E+02 -0.53332E+05
 0.13170000E+02 -0.54002E+05
 0.13220001E+02 -0.53056E+05
 0.13270000E+02 -0.50599E+05
 0.13320002E+02 -0.46835E+05
 0.13370001E+02 -0.41510E+05
 0.13420000E+02 -0.34325E+05
 0.13470001E+02 -0.25473E+05
 0.13520000E+02 -0.15530E+05
 0.13570002E+02 -0.49450E+04
 0.13620001E+02  0.58000E+04
 0.13670000E+02  0.16370E+05
 0.13720001E+02  0.26912E+05
 0.13770000E+02  0.37173E+05
 0.13820002E+02  0.46477E+05
 0.13870001E+02  0.54536E+05
 0.13920000E+02  0.61762E+05
 0.13970001E+02  0.68558E+05
 0.14020000E+02  0.74629E+05
 0.14070002E+02  0.79661E+05
 0.14120001E+02  0.83857E+05
 0.14170000E+02  0.87463E+05
 0.14220001E+02  0.90492E+05
 0.14270000E+02  0.92802E+05
 0.14320002E+02  0.94004E+05
 0.14370001E+02  0.93846E+05
 0.14420000E+02  0.92345E+05
 0.14470001E+02  0.89410E+05
 0.14520000E+02  0.84718E+05
 0.14570002E+02  0.78344E+05
 0.14620001E+02  0.71059E+05
 0.14670000E+02  0.63563E+05
 0.14720001E+02  0.55789E+05
 0.14770000E+02  0.47378E+05
 0.14820002E+02  0.38781E+05
 0.14870001E+02  0.30683E+05
 0.14920000E+02  0.23144E+05
 0.14970001E+02  0.15829E+05
 0.15020000E+02  0.87190E+04
 0.15070002E+02  0.24140E+04
 0.15120001E+02 -0.27210E+04
 0.15170000E+02 -0.69970E+04
 0.15220001E+02 -0.10819E+05
 0.15270000E+02 -0.14145E+05
 0.15320002E+02 -0.16644E+05
 0.15370001E+02 -0.18203E+05
 0.15420000E+02 -0.19167E+05
 0.15470001E+02 -0.19888E+05
 0.15520000E+02 -0.20394E+05
 0.15570002E+02 -0.21003E+05
 0.15620001E+02 -0.22656E+05
 0.15670000E+02 -0.25670E+05
 0.15720001E+02 -0.29610E+05
 0.15770000E+02 -0.34438E+05
 0.15820002E+02 -0.40190E+05
 0.15870001E+02 -0.46322E+05
 0.15920000E+02 -0.51775E+05
 0.15970001E+02 -0.55760E+05
 0.16020000E+02 -0.58727E+05
 0.16070002E+02 -0.61491E+05
 0.16120001E+02 -0.63859E+05
 0.16170000E+02 -0.65470E+05
 0.16220001E+02 -0.66850E+05
 0.16270000E+02 -0.68656E+05
 0.16320002E+02 -0.70259E+05
 0.16370001E+02 -0.70257E+05
 0.16420000E+02 -0.68383E+05
 0.16470001E+02 -0.65354E+05
 0.16520000E+02 -0.61446E+05
 0.16570002E+02 -0.56426E+05
 0.16620001E+02 -0.50323E+05
 0.16670000E+02 -0.43843E+05
 0.16720001E+02 -0.38020E+05
 0.16770000E+02 -0.33157E+05
 0.16820002E+02 -0.28914E+05
 0.16870001E+02 -0.24954E+05
 0.16920000E+02 -0.21482E+05
 0.16970001E+02 -0.19033E+05
 0.17020000E+02 -0.17392E+05
 0.17070002E+02 -0.16202E+05
 0.17120001E+02 -0.15155E+05
 0.17170000E+02 -0.13830E+05
 0.17220001E+02 -0.12376E+05
 0.17270000E+02 -0.11004E+05
 0.17320002E+02 -0.99660E+04
 0.17370001E+02 -0.94010E+04
 0.17420000E+02 -0.91500E+04
 0.17470001E+02 -0.91090E+04
 0.17520000E+02 -0.94730E+04
 0.17570002E+02 -0.10894E+05
 0.17620001E+02 -0.13754E+05
 0.17670000E+02 -0.17694E+05
 0.17720001E+02 -0.20925E+05
 0.17770000E+02 -0.20752E+05
 0.17820002E+02 -0.14797E+05
 0.17870001E+02 -0.37670E+04
 0.17920000E+02  0.74160E+04
 0.17970001E+02  0.14716E+05
 0.18020000E+02  0.16645E+05
 0.18070002E+02  0.13283E+05
 0.18120001E+02  0.95950E+04
 0.18170000E+02  0.98510E+04
 0.18220001E+02  0.94300E+04
 0.18270000E+02  0.50200E+04
 0.18320002E+02  0.48530E+04
 0.18370001E+02  0.12698E+05
 0.18420000E+02  0.19137E+05
 0.18470001E+02  0.18163E+05
 0.18520000E+02  0.61770E+04
 0.18570002E+02 -0.18725E+05
 0.18620001E+02 -0.36223E+05
 0.18670000E+02 -0.21195E+05
 0.18720001E+02  0.41530E+04
 0.18770000E+02  0.24090E+04
 0.18820002E+02 -0.14829E+05
 0.18870001E+02 -0.10277E+05
 0.18920000E+02  0.24083E+05
 0.18970001E+02  0.52691E+05
 0.19020000E+02  0.51619E+05
 0.19070002E+02  0.56380E+04
 0.19120001E+02 -0.65246E+05
 0.19170000E+02 -0.71409E+05
 0.19220001E+02 -0.75020E+04
 0.19270000E+02  0.34741E+05
 0.19320002E+02 -0.10272E+05
 0.19370001E+02 -0.90529E+05
 0.19420000E+02 -0.13113E+06
 0.19470001E+02 -0.12375E+06
 0.19520000E+02 -0.88673E+05
 0.19570002E+02 -0.50720E+05
 0.19620001E+02 -0.38216E+05
 0.19670000E+02 -0.10057E+06
 0.19720001E+02 -0.10627E+06
 0.19770000E+02 -0.40643E+05
 0.19820002E+02  0.57700E+03
 0.19870001E+02  0.10702E+06
 0.19920000E+02  0.20980E+06
 0.19970001E+02  0.10899E+06
 0.20020000E+02 -0.82191E+05
 0.20070002E+02 -0.53318E+05
 0.20120001E+02  0.18996E+06
 0.20170000E+02  0.35513E+06
 0.20220001E+02  0.15352E+06
 0.20270000E+02 -0.13901E+06
 0.20320002E+02 -0.23827E+06
 0.20370001E+02 -0.14242E+06
 0.20420000E+02  0.20181E+06
 0.20470001E+02  0.26196E+06
 0.20520000E+02 -0.20550E+05
 0.20570002E+02 -0.14699E+06
 0.20620001E+02 -0.99475E+05
 0.20670000E+02  0.39475E+05
 0.20720001E+02  0.44911E+05
 0.20770000E+02 -0.98863E+05
 0.20820002E+02 -0.49144E+05
 0.20870001E+02  0.18672E+06
 0.20920000E+02  0.75944E+05
 0.20970001E+02 -0.38993E+06
 0.21020000E+02 -0.58502E+06
 0.21070002E+02 -0.45174E+06
 0.21120001E+02 -0.28307E+06
 0.21170000E+02 -0.39032E+06
 0.21220001E+02 -0.57655E+06
 0.21270000E+02 -0.46530E+06
 0.21320002E+02 -0.23662E+06
 0.21370001E+02  0.12469E+06
 0.21420000E+02  0.32425E+06
 0.21470001E+02  0.18121E+06
 0.21520000E+02  0.21249E+06
 0.21570002E+02  0.50126E+06
 0.21620001E+02  0.71053E+06
 0.21670000E+02  0.43390E+06
 0.21720001E+02  0.42373E+05
 0.21770000E+02  0.98339E+05
 0.21820002E+02  0.26398E+06
 0.21870001E+02  0.24221E+06
 0.21920000E+02 -0.78390E+04
 0.21970001E+02 -0.27358E+06
 0.22020000E+02 -0.24186E+06
 0.22070002E+02 -0.85138E+05
 0.22120001E+02 -0.16626E+06
 0.22170000E+02 -0.24506E+06
 0.22220001E+02 -0.10822E+06
 0.22270000E+02  0.88371E+05
 0.22320002E+02  0.38222E+06
 0.22370001E+02  0.49447E+06
 0.22420000E+02  0.23068E+06
 0.22470001E+02 -0.32539E+05
 0.22520000E+02  0.14358E+06
 0.22570002E+02  0.62288E+06
 0.22620001E+02  0.58160E+06
 0.22670000E+02 -0.39449E+05
 0.22720001E+02 -0.44116E+06
 0.22770000E+02 -0.49285E+06
 0.22820002E+02 -0.60563E+06
 0.22870001E+02 -0.82190E+06
 0.22920000E+02 -0.68018E+06
 0.22970001E+02 -0.15571E+06
 0.23020000E+02  0.17560E+06
 0.23070002E+02  0.17567E+06
 0.23120001E+02  0.11147E+06
 0.23170000E+02  0.16522E+06
 0.23220001E+02  0.35686E+06
 0.23270000E+02  0.28145E+06
 0.23320002E+02 -0.24914E+06
 0.23370001E+02 -0.85328E+06
 0.23420000E+02 -0.11146E+07
 0.23470001E+02 -0.80432E+06
 0.23520000E+02 -0.26688E+06
 0.23570002E+02  0.25103E+05
 0.23620001E+02  0.85184E+05
 0.23670000E+02 -0.11417E+05
 0.23720001E+02  0.18799E+05
 0.23770000E+02  0.46527E+06
 0.23820002E+02  0.57846E+06
 0.23870001E+02  0.47675E+06
 0.23920000E+02  0.72917E+06
 0.23970001E+02  0.84843E+06
 0.24020000E+02  0.83787E+06
 0.24070002E+02  0.74628E+06
 0.24120001E+02  0.64207E+06
 0.24170000E+02  0.50071E+06
 0.24220001E+02 -0.38221E+05
 0.24270000E+02 -0.60156E+06
 0.24320002E+02 -0.61819E+06
 0.24370001E+02 -0.30408E+06
 0.24420000E+02 -0.22956E+06
 0.24470001E+02 -0.47789E+06
 0.24520000E+02 -0.69873E+06
 0.24570002E+02 -0.47122E+06
 0.24620001E+02  0.36028E+05
 0.24670000E+02  0.18113E+06
 0.24720001E+02  0.16849E+06
 0.24770000E+02  0.46557E+06
 0.24820002E+02  0.88746E+06
 0.24870001E+02  0.59022E+06
 0.24920000E+02 -0.45930E+06
 0.24970001E+02 -0.84185E+06
 0.25020000E+02 -0.20397E+06
 0.25070002E+02  0.26050E+06
 0.25120001E+02 -0.36269E+05
 0.25170000E+02 -0.30819E+06
 0.25220001E+02 -0.22045E+06
 0.25270000E+02 -0.62088E+05
 0.25320002E+02 -0.59976E+05
 0.25370001E+02 -0.38704E+06
 0.25420000E+02 -0.44409E+06
 0.25470001E+02 -0.30228E+06
 0.25520000E+02 -0.29230E+06
 0.25570002E+02 -0.13616E+06
 0.25620001E+02  0.19174E+05
 0.25670000E+02  0.35589E+05
 0.25720001E+02 -0.91000E+04
 0.25770000E+02  0.85600E+05
 0.25820002E+02 -0.92072E+05
 0.25870001E+02 -0.29708E+06
 0.25920000E+02 -0.19428E+05
 0.25970001E+02  0.22436E+06
 0.26020000E+02  0.37182E+06
 0.26070002E+02  0.24616E+06
 0.26120001E+02 -0.22140E+06
 0.26170000E+02 -0.44811E+06
 0.26220001E+02 -0.27432E+06
 0.26270000E+02  0.13424E+06
 0.26320002E+02  0.68089E+06
 0.26370001E+02  0.66503E+06
 0.26420000E+02 -0.67090E+05
 0.26470001E+02 -0.67256E+06
 0.26520000E+02 -0.75560E+06
 0.26570002E+02 -0.52804E+06
 0.26620001E+02 -0.36732E+06
 0.26670000E+02 -0.29342E+06
 0.26720001E+02 -0.32596E+05
 0.26770000E+02  0.43426E+06
 0.26820002E+02  0.34606E+06
 0.26870001E+02 -0.15646E+06
 0.26920000E+02 -0.38311E+06
 0.26970001E+02 -0.28423E+06
 0.27020000E+02 -0.16298E+05
 0.27070002E+02 -0.44562E+06
 0.27120001E+02 -0.10999E+07
 0.27170000E+02 -0.11310E+07
 0.27220001E+02 -0.65706E+06
 0.27270000E+02 -0.15581E+06
 0.27320002E+02 -0.34509E+06
 0.27370001E+02 -0.46969E+06
 0.27420000E+02 -0.12831E+06
 0.27470001E+02 -0.90224E+05
 0.27520000E+02 -0.38830E+06
 0.27570002E+02 -0.70255E+06
 0.27620001E+02 -0.77260E+06
 0.27670000E+02 -0.61466E+06
 0.27720001E+02 -0.56844E+06
 0.27770000E+02 -0.51193E+06
 0.27820002E+02 -0.45730E+06
 0.27870001E+02 -0.32409E+06
 0.27920000E+02  0.12410E+06
 0.27970001E+02  0.30643E+06
 0.28020000E+02  0.40636E+05
 0.28070002E+02 -0.27391E+06
 0.28120001E+02 -0.28898E+06
 0.28170000E+02  0.20244E+06
 0.28220001E+02  0.56648E+06
 0.28270000E+02  0.36198E+06
 0.28320002E+02 -0.50273E+05
 0.28370001E+02 -0.39788E+06
 0.28420000E+02 -0.23619E+06
 0.28470001E+02  0.10778E+06
 0.28520000E+02  0.79190E+04
 0.28570002E+02 -0.36178E+06
 0.28620001E+02 -0.50898E+06
 0.28670000E+02 -0.35336E+06
 0.28720001E+02 -0.42964E+06
 0.28770000E+02 -0.65727E+06
 0.28820002E+02 -0.96756E+06
 0.28870001E+02 -0.10995E+07
 0.28920000E+02 -0.73027E+06
 0.28970001E+02 -0.37279E+06
 0.29020000E+02 -0.35870E+06
 0.29070000E+02 -0.48422E+06
 0.29120003E+02 -0.33112E+06
 0.29170002E+02  0.14093E+06
 0.29220001E+02  0.66772E+06
 0.29270000E+02  0.59474E+06
 0.29320000E+02  0.16474E+06
 0.29370003E+02  0.25975E+06
 0.29420002E+02  0.43378E+06
 0.29470001E+02  0.46949E+06
 0.29520000E+02  0.49483E+06
 0.29570000E+02  0.40758E+06
 0.29620003E+02  0.32359E+06
 0.29670002E+02  0.58254E+06
 0.29720001E+02  0.94586E+06
 0.29770000E+02  0.10057E+07
 0.29820000E+02  0.11605E+07
 0.29870003E+02  0.14913E+07
 0.29920002E+02  0.18039E+07
 0.29970001E+02  0.15970E+07
 0.30020000E+02  0.11897E+07
 0.30070000E+02  0.14860E+07
 0.30120003E+02  0.22259E+07
 0.30170002E+02  0.29447E+07
 0.30220001E+02  0.32314E+07
 0.30270000E+02  0.32045E+07
 0.30320000E+02  0.32041E+07
 0.30370003E+02  0.29121E+07
 0.30420002E+02  0.24790E+07
 0.30470001E+02  0.18393E+07
 0.30520000E+02  0.75144E+06
 0.30570000E+02 -0.23759E+06
 0.30620003E+02 -0.84010E+06
 0.30670002E+02 -0.11424E+07
 0.30720001E+02 -0.11475E+07
 0.30770000E+02 -0.75880E+06
 0.30820000E+02 -0.32785E+06
 0.30870003E+02 -0.63356E+05
 0.30920002E+02  0.81029E+06
 0.30970001E+02  0.24875E+07
 0.31020000E+02  0.39366E+07
 0.31070000E+02  0.47889E+07
 0.31120003E+02  0.47199E+07
 0.31170002E+02  0.34765E+07
 0.31220001E+02  0.16123E+07
 0.31270000E+02 -0.49106E+06
 0.31320000E+02 -0.17400E+07
 0.31370003E+02 -0.23150E+07
 0.31420002E+02 -0.29756E+07
 0.31470001E+02 -0.34495E+07
 0.31520000E+02 -0.36090E+07
 0.31570000E+02 -0.24043E+07
 0.31620003E+02 -0.25238E+06
 0.31670002E+02  0.15372E+07
 0.31720001E+02  0.21357E+07
 0.31770000E+02  0.89349E+06
 0.31820000E+02 -0.48136E+06
 0.31870003E+02 -0.10176E+07
 0.31920002E+02 -0.60428E+06
 0.31970001E+02  0.57843E+06
 0.32020000E+02  0.13933E+07
 0.32070000E+02  0.21700E+07
 0.32120003E+02  0.28371E+07
 0.32170002E+02  0.31262E+07
 0.32220001E+02  0.28668E+07
 0.32270000E+02  0.14222E+07
 0.32320000E+02 -0.30816E+06
 0.32370003E+02 -0.47859E+06
 0.32420002E+02  0.89888E+06
 0.32470001E+02  0.17532E+07
 0.32520000E+02  0.13361E+07
 0.32570000E+02  0.90570E+06
 0.32620003E+02  0.89140E+06
 0.32670002E+02  0.73640E+06
 0.32720001E+02  0.38804E+06
 0.32770000E+02  0.37041E+06
 0.32820000E+02  0.13992E+07
 0.32870003E+02  0.28318E+07
 0.32920002E+02  0.35696E+07
 0.32970001E+02  0.35083E+07
 0.33020000E+02  0.34882E+07
 0.33070000E+02  0.39381E+07
 0.33120003E+02  0.40588E+07
 0.33170002E+02  0.33939E+07
 0.33220001E+02  0.21169E+07
 0.33270000E+02  0.11549E+07
 0.33320000E+02  0.48849E+06
 0.33370003E+02 -0.26351E+06
 0.33420002E+02 -0.53329E+06
 0.33470001E+02 -0.54926E+06
 0.33520000E+02 -0.80209E+06
 0.33570000E+02 -0.16742E+07
 0.33620003E+02 -0.28100E+07
 0.33670002E+02 -0.29273E+07
 0.33720001E+02 -0.19783E+07
 0.33770000E+02 -0.82349E+06
 0.33820000E+02  0.54119E+06
 0.33870003E+02  0.17871E+07
 0.33920002E+02  0.18944E+07
 0.33970001E+02  0.10922E+07
 0.34020000E+02  0.59061E+05
 0.34070000E+02 -0.11363E+07
 0.34120003E+02 -0.21675E+07
 0.34170002E+02 -0.21650E+07
 0.34220001E+02 -0.87627E+06
 0.34270000E+02  0.27660E+06
 0.34320000E+02  0.13244E+06
 0.34370003E+02 -0.69672E+06
 0.34420002E+02 -0.14893E+07
 0.34470001E+02 -0.24431E+07
 0.34520000E+02 -0.28890E+07
 0.34570000E+02 -0.26742E+07
 0.34620003E+02 -0.31265E+07
 0.34670002E+02 -0.34765E+07
 0.34720001E+02 -0.31507E+07
 0.34770000E+02 -0.22447E+07
 0.34820000E+02 -0.55662E+06
 0.34870003E+02  0.46373E+06
 0.34920002E+02  0.80497E+06
 0.34970001E+02  0.11395E+07
 0.35020000E+02  0.13895E+07
 0.35070000E+02  0.18793E+07
 0.35120003E+02  0.23301E+07
 0.35170002E+02  0.20684E+07
 0.35220001E+02  0.11899E+07
 0.35270000E+02  0.50658E+06
 0.35320000E+02  0.25586E+06
 0.35370003E+02 -0.35923E+05
 0.35420002E+02 -0.96406E+06
 0.35470001E+02 -0.17122E+07
 0.35520000E+02 -0.11188E+07
 0.35570000E+02  0.39030E+04
 0.35620003E+02  0.51274E+06
 0.35670002E+02  0.51617E+06
 0.35720001E+02  0.68402E+06
 0.35770000E+02  0.11522E+07
 0.35820000E+02  0.11924E+07
 0.35870003E+02  0.37302E+06
 0.35920002E+02 -0.28313E+06
 0.35970001E+02 -0.18049E+06
 0.36020000E+02 -0.27518E+06
 0.36070000E+02 -0.13438E+07
 0.36120003E+02 -0.28013E+07
 0.36170002E+02 -0.37182E+07
 0.36220001E+02 -0.40294E+07
 0.36270000E+02 -0.41998E+07
 0.36320000E+02 -0.43330E+07
 0.36370003E+02 -0.37392E+07
 0.36420002E+02 -0.28098E+07
 0.36470001E+02 -0.28194E+07
 0.36520000E+02 -0.34068E+07
 0.36570000E+02 -0.30572E+07
 0.36620003E+02 -0.16519E+07
 0.36670002E+02 -0.75774E+06
 0.36720001E+02 -0.10946E+07
 0.36770000E+02 -0.15664E+07
 0.36820000E+02 -0.62544E+06
 0.36870003E+02  0.96214E+06
 0.36920002E+02  0.13281E+07
 0.36970001E+02  0.48898E+06
 0.37020000E+02 -0.14165E+06
 0.37070000E+02  0.22212E+06
 0.37120003E+02  0.35707E+06
 0.37170002E+02 -0.35462E+05
 0.37220001E+02 -0.17261E+06
 0.37270000E+02 -0.78813E+05
 0.37320000E+02 -0.30520E+06
 0.37370003E+02 -0.12735E+07
 0.37420002E+02 -0.21637E+07
 0.37470001E+02 -0.23392E+07
 0.37520000E+02 -0.18347E+07
 0.37570000E+02 -0.15154E+07
 0.37620003E+02 -0.18039E+07
 0.37670002E+02 -0.18780E+07
 0.37720001E+02 -0.14170E+07
 0.37770000E+02 -0.47650E+06
 0.37820000E+02  0.71976E+05
 0.37870003E+02  0.87548E+05
 0.37920002E+02  0.80638E+05
 0.37970001E+02 -0.93167E+05
 0.38020000E+02 -0.46780E+06
 0.38070000E+02 -0.95566E+06
 0.38120003E+02 -0.84988E+06
 0.38170002E+02 -0.49861E+06
 0.38220001E+02 -0.69909E+06
 0.38270000E+02 -0.11617E+07
 0.38320000E+02 -0.15496E+07
 0.38370003E+02 -0.16082E+07
 0.38420002E+02 -0.17320E+07
 0.38470001E+02 -0.19761E+07
 0.38520000E+02 -0.19884E+07
 0.38570000E+02 -0.18557E+07
 0.38620003E+02 -0.18091E+07
 0.38670002E+02 -0.19239E+07
 0.38720001E+02 -0.20645E+07
 0.38770000E+02 -0.24859E+07
 0.38820000E+02 -0.25245E+07
 0.38870003E+02 -0.15824E+07
 0.38920002E+02 -0.39812E+06
 0.38970001E+02  0.32096E+06
 0.39020000E+02  0.37420E+06
 0.39070000E+02  0.42377E+06
 0.39120003E+02  0.65085E+06
 0.39170002E+02  0.47077E+06
 0.39220001E+02  0.11312E+06
 0.39270000E+02 -0.83978E+05
 0.39320000E+02 -0.16719E+06
 0.39370003E+02 -0.37179E+06
 0.39420002E+02 -0.11282E+07
 0.39470001E+02 -0.19260E+07
 0.39520000E+02 -0.20754E+07
 0.39570000E+02 -0.16946E+07
 0.39620003E+02 -0.10071E+07
 0.39670002E+02 -0.35877E+06
 0.39720001E+02  0.28606E+06
 0.39770000E+02  0.95394E+06
 0.39820000E+02  0.11701E+07
 0.39870003E+02  0.92844E+06
 0.39920002E+02  0.30018E+06
 0.39970001E+02 -0.34461E+06
 0.40020000E+02 -0.70749E+06
 0.40070000E+02 -0.11430E+07
 0.40120003E+02 -0.14425E+07
 0.40170002E+02 -0.13025E+07
 0.40220001E+02 -0.74947E+06
 0.40270000E+02 -0.28216E+06
 0.40320000E+02 -0.40331E+06
 0.40370003E+02 -0.80373E+06
 0.40420002E+02 -0.84301E+06
 0.40470001E+02 -0.46005E+06
 0.40520000E+02 -0.13076E+06
 0.40570000E+02  0.12322E+06
 0.40620003E+02  0.31337E+06
 0.40670002E+02  0.94899E+06
 0.40720001E+02  0.19250E+07
 0.40770000E+02  0.24004E+07
 0.40820000E+02  0.28320E+07
 0.40870003E+02  0.31332E+07
 0.40920002E+02  0.31696E+07
 0.40970001E+02  0.27721E+07
 0.41020000E+02  0.17961E+07
 0.41070000E+02  0.11595E+07
 0.41120003E+02  0.83953E+06
 0.41170002E+02  0.75000E+06
 0.41220001E+02  0.70946E+06
 0.41270000E+02  0.71240E+06
 0.41320000E+02  0.99226E+06
 0.41370003E+02  0.99401E+06
 0.41420002E+02  0.66242E+06
 0.41470001E+02  0.31967E+06
 0.41520000E+02  0.32249E+06
 0.41570000E+02  0.51979E+06
 0.41620003E+02  0.42978E+06
 0.41670002E+02 -0.10633E+06
 0.41720001E+02 -0.67024E+06
 0.41770000E+02 -0.75032E+06
 0.41820000E+02 -0.50044E+06
 0.41870003E+02 -0.26736E+06
 0.41920002E+02 -0.22379E+06
 0.41970001E+02 -0.49588E+05
 0.42020000E+02  0.33918E+06
 0.42070000E+02  0.75747E+06
 0.42120003E+02  0.12077E+07
 0.42170002E+02  0.16329E+07
 0.42220001E+02  0.18866E+07
 0.42270000E+02  0.17224E+07
 0.42320000E+02  0.12396E+07
 0.42370003E+02  0.84628E+06
 0.42420002E+02  0.71300E+06
 0.42470001E+02  0.42460E+06
 0.42520000E+02  0.79042E+05
 0.42570000E+02  0.18989E+06
 0.42620003E+02  0.52434E+06
 0.42670002E+02  0.73370E+06
 0.42720001E+02  0.60236E+06
 0.42770000E+02  0.32402E+06
 0.42820000E+02  0.19850E+06
 0.42870003E+02  0.16679E+06
 0.42920002E+02  0.45223E+05
 0.42970001E+02  0.10081E+06
 0.43020000E+02  0.63315E+06
 0.43070000E+02  0.10692E+07
 0.43120003E+02  0.12134E+07
 0.43170002E+02  0.11959E+07
 0.43220001E+02  0.11947E+07
 0.43270000E+02  0.12607E+07
 0.43320000E+02  0.11512E+07
 0.43370003E+02  0.10211E+07
 0.43420002E+02  0.76812E+06
 0.43470001E+02  0.40017E+06
 0.43520000E+02  0.28074E+06
 0.43570000E+02  0.34914E+06
 0.43620003E+02  0.16845E+06
 0.43670002E+02 -0.16941E+05
 0.43720001E+02  0.18734E+06
 0.43770000E+02  0.48424E+05
 0.43820000E+02 -0.71977E+06
 0.43870003E+02 -0.13008E+07
 0.43920002E+02 -0.13350E+07
 0.43970001E+02 -0.14176E+07
 0.44020000E+02 -0.18281E+07
 0.44070000E+02 -0.21680E+07
 0.44120003E+02 -0.23453E+07
 0.44170002E+02 -0.24589E+07
 0.44220001E+02 -0.25730E+07
 0.44270000E+02 -0.25622E+07
 0.44320000E+02 -0.22779E+07
 0.44370003E+02 -0.21940E+07
 0.44420002E+02 -0.23919E+07
 0.44470001E+02 -0.23197E+07
 0.44520000E+02 -0.17683E+07
 0.44570000E+02 -0.10493E+07
 0.44620003E+02 -0.75210E+06
 0.44670002E+02 -0.66324E+06
 0.44720001E+02 -0.84399E+05
 0.44770000E+02  0.86324E+06
 0.44820000E+02  0.16351E+07
 0.44870003E+02  0.21231E+07
 0.44920002E+02  0.23767E+07
 0.44970001E+02  0.24044E+07
 0.45020000E+02  0.23028E+07
 0.45070000E+02  0.20103E+07
 0.45120003E+02  0.16404E+07
 0.45170002E+02  0.14508E+07
 0.45220001E+02  0.14747E+07
 0.45270000E+02  0.16725E+07
 0.45320000E+02  0.20449E+07
 0.45370003E+02  0.23169E+07
 0.45420002E+02  0.21198E+07
 0.45470001E+02  0.15215E+07
 0.45520000E+02  0.77956E+06
 0.45570000E+02  0.91636E+05
 0.45620003E+02 -0.45067E+06
 0.45670002E+02 -0.68267E+06
 0.45720001E+02 -0.51628E+06
 0.45770000E+02 -0.17642E+06
 0.45820000E+02  0.29660E+04
 0.45870003E+02 -0.33763E+06
 0.45920002E+02 -0.95719E+06
 0.45970001E+02 -0.13209E+07
 0.46020000E+02 -0.15640E+07
 0.46070000E+02 -0.18897E+07
 0.46120003E+02 -0.20559E+07
 0.46170002E+02 -0.19418E+07
 0.46220001E+02 -0.16507E+07
 0.46270000E+02 -0.11200E+07
 0.46320000E+02 -0.52209E+06
 0.46370003E+02 -0.94004E+05
 0.46420002E+02  0.22489E+06
 0.46470001E+02  0.55002E+06
 0.46520000E+02  0.11566E+07
 0.46570000E+02  0.17705E+07
 0.46620003E+02  0.17366E+07
 0.46670002E+02  0.11072E+07
 0.46720001E+02  0.38652E+06
 0.46770000E+02  0.19188E+05
 0.46820000E+02 -0.92210E+04
 0.46870003E+02 -0.20883E+05
 0.46920002E+02 -0.14960E+06
 0.46970001E+02 -0.12230E+06
 0.47020000E+02  0.33119E+06
 0.47070000E+02  0.80660E+06
 0.47120003E+02  0.99817E+06
 0.47170002E+02  0.82911E+06
 0.47220001E+02  0.43935E+06
 0.47270000E+02  0.25519E+06
 0.47320000E+02  0.17112E+06
 0.47370003E+02  0.63174E+05
 0.47420002E+02 -0.36300E+04
 0.47470001E+02 -0.50580E+05
 0.47520000E+02 -0.15495E+06
 0.47570000E+02 -0.19925E+06
 0.47620003E+02  0.39936E+05
 0.47670002E+02  0.44231E+06
 0.47720001E+02  0.78035E+06
 0.47770000E+02  0.82561E+06
 0.47820000E+02  0.64947E+06
 0.47870003E+02  0.52056E+06
 0.47920002E+02  0.45151E+06
 0.47970001E+02  0.48798E+06
 0.48020000E+02  0.59860E+06
 0.48070000E+02  0.45408E+06
 0.48120003E+02 -0.27752E+05
 0.48170002E+02 -0.56287E+06
 0.48220001E+02 -0.95753E+06
 0.48270000E+02 -0.11941E+07
 0.48320000E+02 -0.12448E+07
 0.48370003E+02 -0.12324E+07
 0.48420002E+02 -0.12248E+07
 0.48470001E+02 -0.11995E+07
 0.48520000E+02 -0.13386E+07
 0.48570000E+02 -0.15089E+07
 0.48620003E+02 -0.14039E+07
 0.48670002E+02 -0.96601E+06
 0.48720001E+02 -0.27175E+06
 0.48770000E+02  0.42693E+06
 0.48820000E+02  0.93707E+06
 0.48870003E+02  0.13372E+07
 0.48920002E+02  0.16225E+07
 0.48970001E+02  0.17522E+07
 0.49020000E+02  0.17459E+07
 0.49070000E+02  0.15486E+07
 0.49120003E+02  0.13959E+07
 0.49170002E+02  0.14339E+07
 0.49220001E+02  0.14259E+07
 0.49270000E+02  0.12418E+07
 0.49320000E+02  0.90201E+06
 0.49370003E+02  0.59247E+06
 0.49420002E+02  0.49359E+06
 0.49470001E+02  0.48884E+06
 0.49520000E+02  0.41291E+06
 0.49570000E+02  0.27729E+06
 0.49620003E+02  0.24725E+06
 0.49670002E+02  0.33922E+06
 0.49720001E+02  0.30883E+06
 0.49770000E+02  0.10632E+06
 0.49820000E+02 -0.12244E+06
 0.49870003E+02 -0.26053E+06
 0.49920002E+02 -0.31334E+06
 0.49970001E+02 -0.44530E+06
 0.50020000E+02 -0.69312E+06
 0.50070000E+02 -0.96877E+06
 0.50120003E+02 -0.12331E+07
 0.50170002E+02 -0.15632E+07
 0.50220001E+02 -0.19866E+07
 0.50270000E+02 -0.23210E+07
 0.50320000E+02 -0.24386E+07
 0.50370003E+02 -0.24347E+07
 0.50420002E+02 -0.24258E+07
 0.50470001E+02 -0.23322E+07
 0.50520000E+02 -0.21397E+07
 0.50570000E+02 -0.18769E+07
 0.50620003E+02 -0.16375E+07
 0.50670002E+02 -0.14604E+07
 0.50720001E+02 -0.11548E+07
 0.50770000E+02 -0.69307E+06
 0.50820000E+02 -0.11815E+06
 0.50870003E+02  0.46776E+06
 0.50920002E+02  0.97389E+06
 0.50970001E+02  0.13554E+07
 0.51020000E+02  0.15358E+07
 0.51070000E+02  0.15380E+07
 0.51120003E+02  0.14174E+07
 0.51170002E+02  0.12088E+07
 0.51220001E+02  0.10649E+07
 0.51270000E+02  0.10890E+07
 0.51320000E+02  0.12082E+07
 0.51370003E+02  0.14152E+07
 0.51420002E+02  0.15764E+07
 0.51470001E+02  0.15535E+07
 0.51520000E+02  0.13948E+07
 0.51570000E+02  0.12198E+07
 0.51620003E+02  0.11329E+07
 0.51670002E+02  0.10912E+07
 0.51720001E+02  0.10425E+07
 0.51770000E+02  0.10582E+07
 0.51820000E+02  0.10981E+07
 0.51870003E+02  0.10362E+07
 0.51920002E+02  0.94565E+06
 0.51970001E+02  0.89639E+06
 0.52020000E+02  0.88363E+06
 0.52070000E+02  0.75106E+06
 0.52120003E+02  0.33947E+06
 0.52170002E+02 -0.22289E+06
 0.52220001E+02 -0.76789E+06
 0.52270000E+02 -0.11529E+07
 0.52320000E+02 -0.13577E+07
 0.52370003E+02 -0.14806E+07
 0.52420002E+02 -0.14816E+07
 0.52470001E+02 -0.14013E+07
 0.52520000E+02 -0.13047E+07
 0.52570000E+02 -0.11467E+07
 0.52620003E+02 -0.10120E+07
 0.52670002E+02 -0.86066E+06
 0.52720001E+02 -0.73601E+06
 0.52770000E+02 -0.69335E+06
 0.52820000E+02 -0.61237E+06
 0.52870003E+02 -0.55345E+06
 0.52920002E+02 -0.46952E+06
 0.52970001E+02 -0.37714E+06
 0.53020000E+02 -0.34032E+06
 0.53070000E+02 -0.29848E+06
 0.53120003E+02 -0.22850E+06
 0.53170002E+02 -0.57043E+05
 0.53220001E+02  0.18772E+06
 0.53270000E+02  0.41550E+06
 0.53320000E+02  0.57250E+06
 0.53370003E+02  0.66902E+06
 0.53420002E+02  0.78826E+06
 0.53470001E+02  0.96953E+06
 0.53520000E+02  0.10752E+07
 0.53570000E+02  0.10213E+07
 0.53620003E+02  0.10343E+07
 0.53670002E+02  0.11591E+07
 0.53720001E+02  0.12749E+07
 0.53770000E+02  0.12653E+07
 0.53820000E+02  0.11186E+07
 0.53870003E+02  0.10276E+07
 0.53920002E+02  0.91216E+06
 0.53970001E+02  0.68066E+06
 0.54020000E+02  0.42134E+06
 0.54070000E+02  0.34923E+06
 0.54120003E+02  0.51135E+06
 0.54170002E+02  0.57176E+06
 0.54220001E+02  0.47696E+06
 0.54270000E+02  0.46156E+06
 0.54320000E+02  0.58817E+06
 0.54370003E+02  0.71053E+06
 0.54420002E+02  0.80577E+06
 0.54470001E+02  0.86132E+06
 0.54520000E+02  0.81021E+06
 0.54570000E+02  0.74030E+06
 0.54620003E+02  0.58184E+06
 0.54670002E+02  0.28354E+06
 0.54720001E+02  0.88170E+04
 0.54770000E+02 -0.14661E+06
 0.54820000E+02 -0.19422E+06
 0.54870003E+02 -0.27477E+06
 0.54920002E+02 -0.45028E+06
 0.54970001E+02 -0.62674E+06
 0.55020000E+02 -0.81868E+06
 0.55070000E+02 -0.10602E+07
 0.55120003E+02 -0.13646E+07
 0.55170002E+02 -0.16962E+07
 0.55220001E+02 -0.19681E+07
 0.55270000E+02 -0.21224E+07
 0.55320000E+02 -0.20853E+07
 0.55370003E+02 -0.19412E+07
 0.55420002E+02 -0.18229E+07
 0.55470001E+02 -0.17344E+07
 0.55520000E+02 -0.16373E+07
 0.55570000E+02 -0.14320E+07
 0.55620003E+02 -0.11326E+07
 0.55670002E+02 -0.87943E+06
 0.55720001E+02 -0.66266E+06
 0.55770000E+02 -0.44372E+06
 0.55820000E+02 -0.23415E+06
 0.55870003E+02 -0.18102E+05
 0.55920002E+02  0.17584E+06
 0.55970001E+02  0.31088E+06
 0.56020000E+02  0.34130E+06
 0.56070000E+02  0.29878E+06
 0.56120003E+02  0.25727E+06
 0.56170002E+02  0.30914E+06
 0.56220001E+02  0.56402E+06
 0.56270000E+02  0.87932E+06
 0.56320000E+02  0.11044E+07
 0.56370003E+02  0.12844E+07
 0.56420002E+02  0.13953E+07
 0.56470001E+02  0.13744E+07
 0.56520000E+02  0.13152E+07
 0.56570000E+02  0.12638E+07
 0.56620003E+02  0.11119E+07
 0.56670002E+02  0.94328E+06
 0.56720001E+02  0.86062E+06
 0.56770000E+02  0.80220E+06
 0.56820000E+02  0.69633E+06
 0.56870003E+02  0.50547E+06
 0.56920002E+02  0.35642E+06
 0.56970001E+02  0.36772E+06
 0.57020000E+02  0.45997E+06
 0.57070000E+02  0.47859E+06
 0.57120003E+02  0.34785E+06
 0.57170002E+02  0.11112E+06
 0.57220001E+02 -0.12192E+06
 0.57270000E+02 -0.34326E+06
 0.57320000E+02 -0.57181E+06
 0.57370003E+02 -0.74303E+06
 0.57420002E+02 -0.84594E+06
 0.57470001E+02 -0.79634E+06
 0.57520000E+02 -0.61530E+06
 0.57570000E+02 -0.44766E+06
 0.57620003E+02 -0.31593E+06
 0.57670002E+02 -0.18376E+06
 0.57720001E+02 -0.47588E+05
 0.57770000E+02 -0.30130E+05
 0.57820000E+02 -0.11085E+06
 0.57870003E+02 -0.10771E+06
 0.57920002E+02  0.50228E+05
 0.57970001E+02  0.26642E+06
 0.58020000E+02  0.34905E+06
 0.58070000E+02  0.25849E+06
 0.58120003E+02  0.11124E+06
 0.58170002E+02 -0.28098E+05
 0.58220001E+02 -0.19433E+06
 0.58270000E+02 -0.42815E+06
 0.58320000E+02 -0.66536E+06
 0.58370003E+02 -0.84377E+06
 0.58420002E+02 -0.10259E+07
 0.58470001E+02 -0.12131E+07
 0.58520000E+02 -0.13096E+07
 0.58570000E+02 -0.12613E+07
 0.58620003E+02 -0.10957E+07
 0.58670002E+02 -0.93998E+06
 0.58720001E+02 -0.84478E+06
 0.58770000E+02 -0.74984E+06
 0.58820000E+02 -0.63280E+06
 0.58870003E+02 -0.44998E+06
 0.58920002E+02 -0.23701E+06
 0.58970001E+02 -0.56840E+05
 0.59020000E+02  0.14588E+06
 0.59070000E+02  0.38430E+06
 0.59120003E+02  0.59248E+06
 0.59170002E+02  0.70518E+06
 0.59220001E+02  0.74085E+06
 0.59270000E+02  0.74637E+06
 0.59320000E+02  0.70481E+06
 0.59370003E+02  0.63345E+06
 0.59420002E+02  0.63070E+06
 0.59470001E+02  0.73974E+06
 0.59520000E+02  0.89980E+06
 0.59570000E+02  0.10169E+07
 0.59620003E+02  0.10800E+07
 0.59670002E+02  0.11722E+07
 0.59720001E+02  0.12611E+07
 0.59770000E+02  0.12108E+07
 0.59820000E+02  0.10278E+07
 0.59870003E+02  0.81340E+06
 0.59920002E+02  0.58039E+06
 0.59970001E+02  0.30840E+06
 0.60020000E+02  0.36619E+05
 0.60070000E+02 -0.17256E+06
 0.60120003E+02 -0.37154E+06
 0.60170002E+02 -0.65303E+06
 0.60220001E+02 -0.98497E+06
 0.60270000E+02 -0.12427E+07
 0.60320000E+02 -0.13300E+07
 0.60370003E+02 -0.12851E+07
 0.60420002E+02 -0.12130E+07
 0.60470001E+02 -0.11571E+07
 0.60520000E+02 -0.10966E+07
 0.60570000E+02 -0.10317E+07
 0.60620003E+02 -0.94784E+06
 0.60670002E+02 -0.83685E+06
 0.60720001E+02 -0.72417E+06
 0.60770000E+02 -0.59278E+06
 0.60820000E+02 -0.40350E+06
 0.60870003E+02 -0.13845E+06
 0.60920002E+02  0.16321E+06
 0.60970001E+02  0.45080E+06
 0.61020000E+02  0.67639E+06
 0.61070004E+02  0.79577E+06
 0.61119999E+02  0.82794E+06
 0.61170002E+02  0.79380E+06
 0.61220005E+02  0.66842E+06
 0.61270000E+02  0.47293E+06
 0.61320004E+02  0.25602E+06
 0.61369999E+02  0.37886E+05
 0.61420002E+02 -0.12919E+06
 0.61470005E+02 -0.23841E+06
 0.61520000E+02 -0.32268E+06
 0.61570004E+02 -0.39833E+06
 0.61619999E+02 -0.49802E+06
 0.61670002E+02 -0.58400E+06
 0.61720005E+02 -0.64321E+06
 0.61770000E+02 -0.68588E+06
 0.61820004E+02 -0.67713E+06
 0.61869999E+02 -0.63843E+06
 0.61920002E+02 -0.55185E+06
 0.61970005E+02 -0.38407E+06
 0.62020000E+02 -0.20013E+06
 0.62070004E+02 -0.63632E+05
 0.62119999E+02  0.44870E+05
 0.62170002E+02  0.11037E+06
 0.62220005E+02  0.98634E+05
 0.62270000E+02  0.62032E+05
 0.62320004E+02 -0.12050E+04
 0.62369999E+02 -0.99773E+05
 0.62420002E+02 -0.16503E+06
 0.62470005E+02 -0.21351E+06
 0.62520000E+02 -0.26438E+06
 0.62570004E+02 -0.22583E+06
 0.62619999E+02 -0.59247E+05
 0.62670002E+02  0.14946E+06
 0.62720005E+02  0.25764E+06
 0.62770000E+02  0.25912E+06
 0.62820004E+02  0.29350E+06
 0.62869999E+02  0.33700E+06
 0.62920002E+02  0.26762E+06
 0.62970005E+02  0.70349E+05
 0.63020000E+02 -0.18141E+06
 0.63070004E+02 -0.40170E+06
 0.63119999E+02 -0.53175E+06
 0.63170002E+02 -0.52700E+06
 0.63220005E+02 -0.38772E+06
 0.63270000E+02 -0.17046E+06
 0.63320004E+02  0.30352E+05
 0.63369999E+02  0.18102E+06
 0.63420002E+02  0.26428E+06
 0.63470005E+02  0.30905E+06
 0.63520000E+02  0.41168E+06
 0.63570004E+02  0.55114E+06
 0.63619999E+02  0.66022E+06
 0.63670002E+02  0.70758E+06
 0.63720005E+02  0.71557E+06
 0.63770000E+02  0.75772E+06
 0.63820004E+02  0.84380E+06
 0.63869999E+02  0.89658E+06
 0.63920002E+02  0.87690E+06
 0.63970005E+02  0.86343E+06
 0.64019997E+02  0.92232E+06
 0.64070000E+02  0.10154E+07
 0.64119995E+02  0.10724E+07
 0.64169998E+02  0.10793E+07
 0.64220001E+02  0.10764E+07
 0.64269997E+02  0.10851E+07
 0.64320000E+02  0.10605E+07
 0.64369995E+02  0.95125E+06
 0.64419998E+02  0.82163E+06
 0.64470001E+02  0.69886E+06
 0.64519997E+02  0.52903E+06
 0.64570000E+02  0.32618E+06
 0.64619995E+02  0.14087E+06
 0.64669998E+02  0.32279E+05
 0.64720001E+02 -0.31494E+05
 0.64769997E+02 -0.99573E+05
 0.64820000E+02 -0.15806E+06
 0.64869995E+02 -0.19522E+06
 0.64919998E+02 -0.19437E+06
 0.64970001E+02 -0.19540E+06
 0.65019997E+02 -0.22976E+06
 0.65070000E+02 -0.28008E+06
 0.65119995E+02 -0.32566E+06
 0.65169998E+02 -0.37210E+06
 0.65220001E+02 -0.47004E+06
 0.65269997E+02 -0.62106E+06
 0.65320000E+02 -0.76942E+06
 0.65369995E+02 -0.84990E+06
 0.65419998E+02 -0.87314E+06
 0.65470001E+02 -0.90790E+06
 0.65519997E+02 -0.97430E+06
 0.65570000E+02 -0.10719E+07
 0.65619995E+02 -0.11443E+07
 0.65669998E+02 -0.11389E+07
 0.65720001E+02 -0.10861E+07
 0.65769997E+02 -0.10185E+07
 0.65820000E+02 -0.92807E+06
 0.65869995E+02 -0.80225E+06
 0.65919998E+02 -0.68038E+06
 0.65970001E+02 -0.58226E+06
 0.66019997E+02 -0.47502E+06
 0.66070000E+02 -0.34230E+06
 0.66119995E+02 -0.17371E+06
 0.66169998E+02  0.51761E+05
 0.66220001E+02  0.30385E+06
 0.66269997E+02  0.51463E+06
 0.66320000E+02  0.68650E+06
 0.66369995E+02  0.82997E+06
 0.66419998E+02  0.93906E+06
 0.66470001E+02  0.10165E+07
 0.66519997E+02  0.10877E+07
 0.66570000E+02  0.12094E+07
 0.66619995E+02  0.13467E+07
 0.66669998E+02  0.14561E+07
 0.66720001E+02  0.15190E+07
 0.66769997E+02  0.14866E+07
 0.66820000E+02  0.12953E+07
 0.66869995E+02  0.94307E+06
 0.66919998E+02  0.59413E+06
 0.66970001E+02  0.35507E+06
 0.67019997E+02  0.20288E+06
 0.67070000E+02  0.10495E+06
 0.67119995E+02  0.42263E+05
 0.67169998E+02  0.62865E+05
 0.67220001E+02  0.17178E+06
 0.67269997E+02  0.28555E+06
 0.67320000E+02  0.34188E+06
 0.67369995E+02  0.33796E+06
 0.67419998E+02  0.30005E+06
 0.67470001E+02  0.20739E+06
 0.67519997E+02  0.16911E+05
 0.67570000E+02 -0.22170E+06
 0.67619995E+02 -0.40861E+06
 0.67669998E+02 -0.51150E+06
 0.67720001E+02 -0.57965E+06
 0.67769997E+02 -0.64944E+06
 0.67820000E+02 -0.67273E+06
 0.67869995E+02 -0.61938E+06
 0.67919998E+02 -0.51453E+06
 0.67970001E+02 -0.42576E+06
 0.68019997E+02 -0.37151E+06
 0.68070000E+02 -0.28478E+06
 0.68119995E+02 -0.18303E+06
 0.68169998E+02 -0.11981E+06
 0.68220001E+02 -0.93477E+05
 0.68269997E+02 -0.61688E+05
 0.68320000E+02 -0.96850E+04
 0.68369995E+02  0.41946E+05
 0.68419998E+02  0.81288E+05
 0.68470001E+02  0.82912E+05
 0.68519997E+02  0.68028E+05
 0.68570000E+02  0.61251E+05
 0.68619995E+02  0.58807E+05
 0.68669998E+02  0.57454E+05
 0.68720001E+02  0.81997E+05
 0.68769997E+02  0.16958E+06
 0.68820000E+02  0.26877E+06
 0.68869995E+02  0.34656E+06
 0.68919998E+02  0.39058E+06
 0.68970001E+02  0.35076E+06
 0.69019997E+02  0.23600E+06
 0.69070000E+02  0.63823E+05
 0.69119995E+02 -0.14881E+06
 0.69169998E+02 -0.36238E+06
 0.69220001E+02 -0.55626E+06
 0.69269997E+02 -0.69743E+06
 0.69320000E+02 -0.74184E+06
 0.69369995E+02 -0.67461E+06
 0.69419998E+02 -0.54270E+06
 0.69470001E+02 -0.41314E+06
 0.69519997E+02 -0.31532E+06
 0.69570000E+02 -0.23273E+06
 0.69619995E+02 -0.13454E+06
 0.69669998E+02 -0.36260E+04
 0.69720001E+02  0.18589E+06
 0.69769997E+02  0.41432E+06
 0.69820000E+02  0.63657E+06
 0.69869995E+02  0.79079E+06
 0.69919998E+02  0.83561E+06
 0.69970001E+02  0.82559E+06
 0.70019997E+02  0.77564E+06
 0.70070000E+02  0.66338E+06
 0.70119995E+02  0.50450E+06
 0.70169998E+02  0.33705E+06
 0.70220001E+02  0.21026E+06
 0.70269997E+02  0.11113E+06
 0.70320000E+02  0.82570E+04
 0.70369995E+02 -0.11052E+06
 0.70419998E+02 -0.25947E+06
 0.70470001E+02 -0.40718E+06
 0.70519997E+02 -0.53123E+06
 0.70570000E+02 -0.63914E+06
 0.70619995E+02 -0.73671E+06
 0.70669998E+02 -0.82372E+06
 0.70720001E+02 -0.88135E+06
 0.70769997E+02 -0.92165E+06
 0.70820000E+02 -0.95904E+06
 0.70869995E+02 -0.95446E+06
 0.70919998E+02 -0.89200E+06
 0.70970001E+02 -0.80786E+06
 0.71019997E+02 -0.71942E+06
 0.71070000E+02 -0.61039E+06
 0.71119995E+02 -0.47650E+06
 0.71169998E+02 -0.34391E+06
 0.71220001E+02 -0.27152E+06
 0.71269997E+02 -0.27618E+06
 0.71320000E+02 -0.28883E+06
 0.71369995E+02 -0.27060E+06
 0.71419998E+02 -0.22979E+06
 0.71470001E+02 -0.16460E+06
 0.71519997E+02 -0.42530E+05
 0.71570000E+02  0.15350E+06
 0.71619995E+02  0.37503E+06
 0.71669998E+02  0.58108E+06
 0.71720001E+02  0.76062E+06
 0.71769997E+02  0.92086E+06
 0.71820000E+02  0.10567E+07
 0.71869995E+02  0.11442E+07
 0.71919998E+02  0.11971E+07
 0.71970001E+02  0.12118E+07
 0.72019997E+02  0.11581E+07
 0.72070000E+02  0.10409E+07
 0.72119995E+02  0.91325E+06
 0.72169998E+02  0.82073E+06
 0.72220001E+02  0.73267E+06
 0.72269997E+02  0.59744E+06
 0.72320000E+02  0.43839E+06
 0.72369995E+02  0.32407E+06
 0.72419998E+02  0.25132E+06
 0.72470001E+02  0.17452E+06
 0.72519997E+02  0.72426E+05
 0.72570000E+02 -0.36934E+05
 0.72619995E+02 -0.12092E+06
 0.72669998E+02 -0.19288E+06
 0.72720001E+02 -0.25700E+06
 0.72769997E+02 -0.31662E+06
 0.72820000E+02 -0.41137E+06
 0.72869995E+02 -0.54585E+06
 0.72919998E+02 -0.70674E+06
 0.72970001E+02 -0.89540E+06
 0.73019997E+02 -0.10724E+07
 0.73070000E+02 -0.11738E+07
 0.73119995E+02 -0.12006E+07
 0.73169998E+02 -0.11789E+07
 0.73220001E+02 -0.11032E+07
 0.73269997E+02 -0.97364E+06
 0.73320000E+02 -0.79987E+06
 0.73369995E+02 -0.61841E+06
 0.73419998E+02 -0.47576E+06
 0.73470001E+02 -0.37880E+06
 0.73519997E+02 -0.32173E+06
 0.73570000E+02 -0.29328E+06
 0.73619995E+02 -0.27028E+06
 0.73669998E+02 -0.25749E+06
 0.73720001E+02 -0.26676E+06
 0.73769997E+02 -0.29652E+06
 0.73820000E+02 -0.32972E+06
 0.73869995E+02 -0.33771E+06
 0.73919998E+02 -0.33866E+06
 0.73970001E+02 -0.34411E+06
 0.74019997E+02 -0.31451E+06
 0.74070000E+02 -0.22898E+06
 0.74119995E+02 -0.10288E+06
 0.74169998E+02  0.36213E+05
 0.74220001E+02  0.14658E+06
 0.74269997E+02  0.20278E+06
 0.74320000E+02  0.22925E+06
 0.74369995E+02  0.26942E+06
 0.74419998E+02  0.36025E+06
 0.74470001E+02  0.48852E+06
 0.74519997E+02  0.59583E+06
 0.74570000E+02  0.66496E+06
 0.74619995E+02  0.72468E+06
 0.74669998E+02  0.79080E+06
 0.74720001E+02  0.85975E+06
 0.74769997E+02  0.91230E+06
 0.74820000E+02  0.92372E+06
 0.74869995E+02  0.89945E+06
 0.74919998E+02  0.86380E+06
 0.74970001E+02  0.82012E+06
 0.75019997E+02  0.75010E+06
 0.75070000E+02  0.65767E+06
 0.75119995E+02  0.56907E+06
 0.75169998E+02  0.48275E+06
 0.75220001E+02  0.36554E+06
 0.75269997E+02  0.22831E+06
 0.75320000E+02  0.10864E+06
 0.75369995E+02 -0.41040E+04
 0.75419998E+02 -0.12981E+06
 0.75470001E+02 -0.26396E+06
 0.75519997E+02 -0.37888E+06
 0.75570000E+02 -0.45550E+06
 0.75619995E+02 -0.50614E+06
 0.75669998E+02 -0.53065E+06
 0.75720001E+02 -0.50246E+06
 0.75769997E+02 -0.43819E+06
 0.75820000E+02 -0.39246E+06
 0.75869995E+02 -0.36214E+06
 0.75919998E+02 -0.31499E+06
 0.75970001E+02 -0.26281E+06
 0.76019997E+02 -0.24078E+06
 0.76070000E+02 -0.24114E+06
 0.76119995E+02 -0.21915E+06
 0.76169998E+02 -0.16330E+06
 0.76220001E+02 -0.78940E+05
 0.76269997E+02  0.25053E+05
 0.76320000E+02  0.12167E+06
 0.76369995E+02  0.19663E+06
 0.76419998E+02  0.26979E+06
 0.76470001E+02  0.35115E+06
 0.76519997E+02  0.40749E+06
 0.76570000E+02  0.43185E+06
 0.76619995E+02  0.43306E+06
 0.76669998E+02  0.39374E+06
 0.76720001E+02  0.30085E+06
 0.76769997E+02  0.15984E+06
 0.76820000E+02  0.56650E+04
 0.76869995E+02 -0.13545E+06
 0.76919998E+02 -0.27392E+06
 0.76970001E+02 -0.41469E+06
 0.77019997E+02 -0.52314E+06
 0.77070000E+02 -0.57351E+06
 0.77119995E+02 -0.59188E+06
 0.77169998E+02 -0.59678E+06
 0.77220001E+02 -0.58363E+06
 0.77269997E+02 -0.55157E+06
 0.77320000E+02 -0.52563E+06
 0.77369995E+02 -0.53345E+06
 0.77419998E+02 -0.54718E+06
 0.77470001E+02 -0.53480E+06
 0.77519997E+02 -0.49656E+06
 0.77570000E+02 -0.42919E+06
 0.77619995E+02 -0.35620E+06
 0.77669998E+02 -0.31382E+06
 0.77720001E+02 -0.27131E+06
 0.77769997E+02 -0.20637E+06
 0.77820000E+02 -0.13863E+06
 0.77869995E+02 -0.80315E+05
 0.77919998E+02 -0.36719E+05
 0.77970001E+02  0.14030E+05
 0.78019997E+02  0.68236E+05
 0.78070000E+02  0.99254E+05
 0.78119995E+02  0.11873E+06
 0.78169998E+02  0.15988E+06
 0.78220001E+02  0.22867E+06
 0.78269997E+02  0.28568E+06
 0.78320000E+02  0.28520E+06
 0.78369995E+02  0.22846E+06
 0.78419998E+02  0.16084E+06
 0.78470001E+02  0.93840E+05
 0.78519997E+02  0.97380E+04
 0.78570000E+02 -0.82781E+05
 0.78619995E+02 -0.14708E+06
 0.78669998E+02 -0.15823E+06
 0.78720001E+02 -0.12263E+06
 0.78769997E+02 -0.49080E+05
 0.78820000E+02  0.31944E+05
 0.78869995E+02  0.89551E+05
 0.78919998E+02  0.11420E+06
 0.78970001E+02  0.11401E+06
 0.79019997E+02  0.12342E+06
 0.79070000E+02  0.15678E+06
 0.79119995E+02  0.20285E+06
 0.79169998E+02  0.24526E+06
 0.79220001E+02  0.27013E+06
 0.79269997E+02  0.27052E+06
 0.79320000E+02  0.25137E+06
 0.79369995E+02  0.22926E+06
 0.79419998E+02  0.21262E+06
 0.79470001E+02  0.20587E+06
 0.79519997E+02  0.21176E+06
 0.79570000E+02  0.22720E+06
 0.79619995E+02  0.24767E+06
 0.79669998E+02  0.26618E+06
 0.79720001E+02  0.27245E+06
 0.79769997E+02  0.24927E+06
 0.79820000E+02  0.19359E+06
 0.79869995E+02  0.12110E+06
 0.79919998E+02  0.48255E+05
 0.79970001E+02  0.66800E+03
 0.80019997E+02 -0.49520E+04
 0.80070000E+02  0.21036E+05
 0.80119995E+02  0.57183E+05
 0.80169998E+02  0.94645E+05
 0.80220001E+02  0.14365E+06
 0.80269997E+02  0.21625E+06
 0.80320000E+02  0.29999E+06
 0.80369995E+02  0.37368E+06
 0.80419998E+02  0.43187E+06
 0.80470001E+02  0.46980E+06
 0.80519997E+02  0.49256E+06
 0.80570000E+02  0.50323E+06
 0.80619995E+02  0.49490E+06
 0.80669998E+02  0.46968E+06
 0.80720001E+02  0.42738E+06
 0.80769997E+02  0.37712E+06
 0.80820000E+02  0.35239E+06
 0.80869995E+02  0.37031E+06
 0.80919998E+02  0.41617E+06
 0.80970001E+02  0.47492E+06
 0.81019997E+02  0.51570E+06
 0.81070000E+02  0.49280E+06
 0.81119995E+02  0.40400E+06
 0.81169998E+02  0.27567E+06
 0.81220001E+02  0.13301E+06
 0.81269997E+02  0.13520E+05
 0.81320000E+02 -0.61323E+05
 0.81369995E+02 -0.11112E+06
 0.81419998E+02 -0.16682E+06
 0.81470001E+02 -0.23661E+06
 0.81519997E+02 -0.32415E+06
 0.81570000E+02 -0.42362E+06
 0.81619995E+02 -0.52481E+06
 0.81669998E+02 -0.61444E+06
 0.81720001E+02 -0.65269E+06
 0.81769997E+02 -0.62089E+06
 0.81820000E+02 -0.54314E+06
 0.81869995E+02 -0.46680E+06
 0.81919998E+02 -0.41856E+06
 0.81970001E+02 -0.39379E+06
 0.82019997E+02 -0.37765E+06
 0.82070000E+02 -0.35394E+06
 0.82119995E+02 -0.33263E+06
 0.82169998E+02 -0.32873E+06
 0.82220001E+02 -0.33206E+06
 0.82269997E+02 -0.32968E+06
 0.82320000E+02 -0.31595E+06
 0.82369995E+02 -0.27886E+06
 0.82419998E+02 -0.20284E+06
 0.82470001E+02 -0.71803E+05
 0.82519997E+02  0.97631E+05
 0.82570000E+02  0.26720E+06
 0.82619995E+02  0.41959E+06
 0.82669998E+02  0.54410E+06
 0.82720001E+02  0.63910E+06
 0.82769997E+02  0.69729E+06
 0.82820000E+02  0.70526E+06
 0.82869995E+02  0.67887E+06
 0.82919998E+02  0.64623E+06
 0.82970001E+02  0.63622E+06
 0.83019997E+02  0.67124E+06
 0.83070000E+02  0.72616E+06
 0.83119995E+02  0.75695E+06
 0.83169998E+02  0.74199E+06
 0.83220001E+02  0.68559E+06
 0.83269997E+02  0.60054E+06
 0.83320000E+02  0.47521E+06
 0.83369995E+02  0.31162E+06
 0.83419998E+02  0.14351E+06
 0.83470001E+02  0.15600E+03
 0.83519997E+02 -0.12137E+06
 0.83570000E+02 -0.24472E+06
 0.83619995E+02 -0.36174E+06
 0.83669998E+02 -0.43832E+06
 0.83720001E+02 -0.47641E+06
 0.83769997E+02 -0.50587E+06
 0.83820000E+02 -0.53641E+06
 0.83869995E+02 -0.55874E+06
 0.83919998E+02 -0.56924E+06
 0.83970001E+02 -0.58528E+06
 0.84019997E+02 -0.59934E+06
 0.84070000E+02 -0.57948E+06
 0.84119995E+02 -0.53192E+06
 0.84169998E+02 -0.48998E+06
 0.84220001E+02 -0.46523E+06
 0.84269997E+02 -0.44267E+06
 0.84320000E+02 -0.41110E+06
 0.84369995E+02 -0.38754E+06
 0.84419998E+02 -0.39761E+06
 0.84470001E+02 -0.41259E+06
 0.84519997E+02 -0.39946E+06
 0.84570000E+02 -0.36903E+06
 0.84619995E+02 -0.33291E+06
 0.84669998E+02 -0.29704E+06
 0.84720001E+02 -0.26262E+06
 0.84769997E+02 -0.24066E+06
 0.84820000E+02 -0.23238E+06
 0.84869995E+02 -0.21988E+06
 0.84919998E+02 -0.18100E+06
 0.84970001E+02 -0.10694E+06
 0.85019997E+02 -0.27723E+05
 0.85070000E+02  0.27090E+05
 0.85119995E+02  0.57843E+05
 0.85169998E+02  0.80010E+05
 0.85220001E+02  0.84131E+05
 0.85269997E+02  0.45947E+05
 0.85320000E+02 -0.21469E+05
 0.85369995E+02 -0.83382E+05
 0.85419998E+02 -0.11751E+06
 0.85470001E+02 -0.13265E+06
 0.85519997E+02 -0.14604E+06
 0.85570000E+02 -0.15106E+06
 0.85619995E+02 -0.13193E+06
 0.85669998E+02 -0.96522E+05
 0.85720001E+02 -0.83379E+05
 0.85769997E+02 -0.11143E+06
 0.85820000E+02 -0.17453E+06
 0.85869995E+02 -0.25712E+06
 0.85919998E+02 -0.33998E+06
 0.85970001E+02 -0.41535E+06
 0.86019997E+02 -0.46760E+06
 0.86070000E+02 -0.48675E+06
 0.86119995E+02 -0.46656E+06
 0.86169998E+02 -0.41056E+06
 0.86220001E+02 -0.34182E+06
 0.86269997E+02 -0.27786E+06
 0.86320000E+02 -0.22675E+06
 0.86369995E+02 -0.19786E+06
 0.86419998E+02 -0.19614E+06
 0.86470001E+02 -0.19574E+06
 0.86519997E+02 -0.18932E+06
 0.86570000E+02 -0.20212E+06
 0.86619995E+02 -0.25055E+06
 0.86669998E+02 -0.32664E+06
 0.86720001E+02 -0.40532E+06
 0.86769997E+02 -0.47601E+06
 0.86820000E+02 -0.53582E+06
 0.86869995E+02 -0.57301E+06
 0.86919998E+02 -0.55435E+06
 0.86970001E+02 -0.46487E+06
 0.87019997E+02 -0.33305E+06
 0.87070000E+02 -0.19118E+06
 0.87119995E+02 -0.55284E+05
 0.87169998E+02  0.70802E+05
 0.87220001E+02  0.18456E+06
 0.87269997E+02  0.26813E+06
 0.87320000E+02  0.29201E+06
 0.87369995E+02  0.26150E+06
 0.87419998E+02  0.21081E+06
 0.87470001E+02  0.17734E+06
 0.87519997E+02  0.18762E+06
 0.87570000E+02  0.23895E+06
 0.87619995E+02  0.31134E+06
 0.87669998E+02  0.39352E+06
 0.87720001E+02  0.49290E+06
 0.87769997E+02  0.61363E+06
 0.87820000E+02  0.73730E+06
 0.87869995E+02  0.82798E+06
 0.87919998E+02  0.88072E+06
 0.87970001E+02  0.91877E+06
 0.88019997E+02  0.94653E+06
 0.88070000E+02  0.94904E+06
 0.88119995E+02  0.92102E+06
 0.88169998E+02  0.86845E+06
 0.88220001E+02  0.77991E+06
 0.88269997E+02  0.65737E+06
 0.88320000E+02  0.52835E+06
 0.88369995E+02  0.42453E+06
 0.88419998E+02  0.36145E+06
 0.88470001E+02  0.31993E+06
 0.88519997E+02  0.27737E+06
 0.88570000E+02  0.23943E+06
 0.88619995E+02  0.22376E+06
 0.88669998E+02  0.21671E+06
 0.88720001E+02  0.19621E+06
 0.88769997E+02  0.17297E+06
 0.88820000E+02  0.17725E+06
 0.88869995E+02  0.22037E+06
 0.88919998E+02  0.26838E+06
 0.88970001E+02  0.28902E+06
 0.89019997E+02  0.28046E+06
 0.89070000E+02  0.26859E+06
 0.89119995E+02  0.28545E+06
 0.89169998E+02  0.31725E+06
 0.89220001E+02  0.34304E+06
 0.89269997E+02  0.36893E+06
 0.89320000E+02  0.40410E+06
 0.89369995E+02  0.44918E+06
 0.89419998E+02  0.47871E+06
 0.89470001E+02  0.47106E+06
 0.89519997E+02  0.43331E+06
 0.89570000E+02  0.37846E+06
 0.89619995E+02  0.31903E+06
 0.89669998E+02  0.26614E+06
 0.89720001E+02  0.23328E+06
 0.89769997E+02  0.22756E+06
 0.89820000E+02  0.23400E+06
 0.89869995E+02  0.23382E+06
 0.89919998E+02  0.21418E+06
 0.89970001E+02  0.16493E+06
 0.90019997E+02  0.84468E+05
 0.90070000E+02 -0.17420E+05
 0.90119995E+02 -0.12581E+06
 0.90169998E+02 -0.23028E+06
 0.90220001E+02 -0.31109E+06
 0.90269997E+02 -0.35438E+06
 0.90320000E+02 -0.37438E+06
 0.90369995E+02 -0.38091E+06
 0.90419998E+02 -0.37429E+06
 0.90470001E+02 -0.36465E+06
 0.90519997E+02 -0.35390E+06
 0.90570000E+02 -0.32869E+06
 0.90619995E+02 -0.28496E+06
 0.90669998E+02 -0.22967E+06
 0.90720001E+02 -0.16541E+06
 0.90769997E+02 -0.93459E+05
 0.90820000E+02 -0.15038E+05
 0.90869995E+02  0.72520E+05
 0.90919998E+02  0.15994E+06
 0.90970001E+02  0.23064E+06
 0.91019997E+02  0.28536E+06
 0.91070000E+02  0.33210E+06
 0.91119995E+02  0.37283E+06
 0.91169998E+02  0.40017E+06
 0.91220001E+02  0.39847E+06
 0.91269997E+02  0.36383E+06
 0.91320000E+02  0.30269E+06
 0.91369995E+02  0.22334E+06
 0.91419998E+02  0.14376E+06
 0.91470001E+02  0.73898E+05
 0.91519997E+02  0.51730E+04
 0.91570000E+02 -0.72583E+05
 0.91619995E+02 -0.15685E+06
 0.91669998E+02 -0.23204E+06
 0.91720001E+02 -0.29185E+06
 0.91769997E+02 -0.35222E+06
 0.91820000E+02 -0.42050E+06
 0.91869995E+02 -0.46656E+06
 0.91919998E+02 -0.47449E+06
 0.91970001E+02 -0.47136E+06
 0.92019997E+02 -0.47285E+06
 0.92070000E+02 -0.46019E+06
 0.92119995E+02 -0.41371E+06
 0.92169998E+02 -0.35374E+06
 0.92220001E+02 -0.31006E+06
 0.92269997E+02 -0.27633E+06
 0.92320000E+02 -0.23908E+06
 0.92369995E+02 -0.20287E+06
 0.92419998E+02 -0.18241E+06
 0.92470001E+02 -0.18352E+06
 0.92519997E+02 -0.18840E+06
 0.92570000E+02 -0.18770E+06
 0.92619995E+02 -0.19992E+06
 0.92669998E+02 -0.23240E+06
 0.92720001E+02 -0.26479E+06
 0.92769997E+02 -0.28219E+06
 0.92820000E+02 -0.28816E+06
 0.92869995E+02 -0.29085E+06
 0.92919998E+02 -0.29672E+06
 0.92970001E+02 -0.30978E+06
 0.93019997E+02 -0.33354E+06
 0.93070000E+02 -0.36704E+06
 0.93119995E+02 -0.40131E+06
 0.93169998E+02 -0.42310E+06
 0.93220001E+02 -0.45011E+06
 0.93269997E+02 -0.51178E+06
 0.93320000E+02 -0.57920E+06
 0.93369995E+02 -0.60418E+06
 0.93419998E+02 -0.58431E+06
 0.93470001E+02 -0.55415E+06
 0.93519997E+02 -0.53623E+06
 0.93570000E+02 -0.51824E+06
 0.93619995E+02 -0.48515E+06
 0.93669998E+02 -0.44593E+06
 0.93720001E+02 -0.41324E+06
 0.93769997E+02 -0.37363E+06
 0.93820000E+02 -0.31453E+06
 0.93869995E+02 -0.24278E+06
 0.93919998E+02 -0.16953E+06
 0.93970001E+02 -0.90083E+05
 0.94019997E+02  0.82790E+04
 0.94070000E+02  0.10942E+06
 0.94119995E+02  0.18960E+06
 0.94169998E+02  0.24805E+06
 0.94220001E+02  0.30062E+06
 0.94269997E+02  0.34662E+06
 0.94320000E+02  0.36455E+06
 0.94369995E+02  0.35423E+06
 0.94419998E+02  0.33851E+06
 0.94470001E+02  0.33754E+06
 0.94519997E+02  0.35114E+06
 0.94570000E+02  0.37549E+06
 0.94619995E+02  0.41460E+06
 0.94669998E+02  0.45766E+06
 0.94720001E+02  0.48662E+06
 0.94769997E+02  0.50041E+06
 0.94820000E+02  0.50705E+06
 0.94869995E+02  0.50271E+06
 0.94919998E+02  0.47930E+06
 0.94970001E+02  0.44734E+06
 0.95019997E+02  0.42736E+06
 0.95070000E+02  0.42721E+06
 0.95119995E+02  0.44582E+06
 0.95169998E+02  0.47416E+06
 0.95220001E+02  0.50234E+06
 0.95269997E+02  0.52296E+06
 0.95320000E+02  0.52968E+06
 0.95369995E+02  0.52233E+06
 0.95419998E+02  0.49366E+06
 0.95470001E+02  0.44401E+06
 0.95519997E+02  0.38506E+06
 0.95570000E+02  0.32063E+06
 0.95619995E+02  0.24274E+06
 0.95669998E+02  0.14450E+06
 0.95720001E+02  0.31077E+05
 0.95769997E+02 -0.96465E+05
 0.95820000E+02 -0.23064E+06
 0.95869995E+02 -0.36315E+06
 0.95919998E+02 -0.48691E+06
 0.95970001E+02 -0.58412E+06
 0.96019997E+02 -0.65121E+06
 0.96070000E+02 -0.68814E+06
 0.96119995E+02 -0.69303E+06
 0.96169998E+02 -0.66627E+06
 0.96220001E+02 -0.61219E+06
 0.96269997E+02 -0.53984E+06
 0.96320000E+02 -0.45452E+06
 0.96369995E+02 -0.37569E+06
 0.96419998E+02 -0.30647E+06
 0.96470001E+02 -0.23385E+06
 0.96519997E+02 -0.16039E+06
 0.96570000E+02 -0.91052E+05
 0.96619995E+02 -0.29153E+05
 0.96669998E+02  0.24495E+05
 0.96720001E+02  0.63623E+05
 0.96769997E+02  0.95519E+05
 0.96820000E+02  0.13839E+06
 0.96869995E+02  0.20062E+06
 0.96919998E+02  0.27556E+06
 0.96970001E+02  0.33414E+06
 0.97019997E+02  0.36289E+06
 0.97070000E+02  0.37769E+06
 0.97119995E+02  0.39965E+06
 0.97169998E+02  0.42946E+06
 0.97220001E+02  0.45170E+06
 0.97269997E+02  0.45918E+06
 0.97320000E+02  0.44455E+06
 0.97369995E+02  0.40350E+06
 0.97419998E+02  0.33866E+06
 0.97470001E+02  0.25917E+06
 0.97519997E+02  0.18660E+06
 0.97570000E+02  0.13968E+06
 0.97619995E+02  0.11960E+06
 0.97669998E+02  0.11139E+06
 0.97720001E+02  0.99636E+05
 0.97769997E+02  0.76644E+05
 0.97820000E+02  0.35707E+05
 0.97869995E+02 -0.24669E+05
 0.97919998E+02 -0.95764E+05
 0.97970001E+02 -0.16323E+06
 0.98019997E+02 -0.22139E+06
 0.98070000E+02 -0.27132E+06
 0.98119995E+02 -0.30640E+06
 0.98169998E+02 -0.32069E+06
 0.98220001E+02 -0.31291E+06
 0.98269997E+02 -0.29202E+06
 0.98320000E+02 -0.26901E+06
 0.98369995E+02 -0.23924E+06
 0.98419998E+02 -0.20384E+06
 0.98470001E+02 -0.17279E+06
 0.98519997E+02 -0.14816E+06
 0.98570000E+02 -0.12493E+06
 0.98619995E+02 -0.10477E+06
 0.98669998E+02 -0.99377E+05
 0.98720001E+02 -0.11274E+06
 0.98769997E+02 -0.13522E+06
 0.98820000E+02 -0.15440E+06
 0.98869995E+02 -0.17262E+06
 0.98919998E+02 -0.19104E+06
 0.98970001E+02 -0.19696E+06
 0.99019997E+02 -0.18084E+06
 0.99070000E+02 -0.15817E+06
 0.99119995E+02 -0.15955E+06
 0.99169998E+02 -0.18588E+06
 0.99220001E+02 -0.21650E+06
 0.99269997E+02 -0.23844E+06
 0.99320000E+02 -0.26018E+06
 0.99369995E+02 -0.28610E+06
 0.99419998E+02 -0.28980E+06
 0.99470001E+02 -0.25453E+06
 0.99519997E+02 -0.20090E+06
 0.99570000E+02 -0.15533E+06
 0.99619995E+02 -0.11586E+06
 0.99669998E+02 -0.72669E+05
 0.99720001E+02 -0.26946E+05
 0.99769997E+02  0.15509E+05
 0.99820000E+02  0.49419E+05
 0.99869995E+02  0.81837E+05
 0.99919998E+02  0.12015E+06
 0.99970001E+02  0.15209E+06
 0.10002000E+03  0.15416E+06
 0.10007000E+03  0.12118E+06
 0.10012000E+03  0.74938E+05
 0.10017000E+03  0.31940E+05
 0.10022000E+03 -0.54070E+04
 0.10027000E+03 -0.29946E+05
 0.10032000E+03 -0.30168E+05
 0.10037000E+03 -0.42200E+03
 0.10042000E+03  0.55723E+05
 0.10047000E+03  0.12571E+06
 0.10052000E+03  0.19123E+06
 0.10057000E+03  0.23983E+06
 0.10062000E+03  0.26897E+06
 0.10067000E+03  0.27846E+06
 0.10072000E+03  0.26596E+06
 0.10077000E+03  0.23298E+06
 0.10082000E+03  0.19428E+06
 0.10087000E+03  0.16674E+06
 0.10092000E+03  0.15399E+06
 0.10097000E+03  0.14656E+06
 0.10102000E+03  0.13925E+06
 0.10107000E+03  0.13910E+06
 0.10112000E+03  0.14258E+06
 0.10117000E+03  0.13720E+06
 0.10122000E+03  0.12534E+06
 0.10127000E+03  0.12478E+06
 0.10132000E+03  0.14050E+06
 0.10137000E+03  0.15939E+06
 0.10142000E+03  0.16662E+06
 0.10147000E+03  0.15168E+06
 0.10152000E+03  0.12252E+06
 0.10157000E+03  0.93247E+05
 0.10162000E+03  0.68149E+05
 0.10167000E+03  0.49529E+05
 0.10172000E+03  0.49742E+05
 0.10177000E+03  0.76440E+05
 0.10182000E+03  0.12061E+06
 0.10187000E+03  0.17689E+06
 0.10192000E+03  0.23784E+06
 0.10197000E+03  0.28631E+06
 0.10202000E+03  0.30290E+06
 0.10207000E+03  0.27921E+06
 0.10212000E+03  0.23205E+06
 0.10217000E+03  0.18371E+06
 0.10222000E+03  0.13960E+06
 0.10227000E+03  0.10298E+06
 0.10232000E+03  0.84200E+05
 0.10237000E+03  0.87207E+05
 0.10242000E+03  0.10312E+06
 0.10247000E+03  0.12015E+06
 0.10252000E+03  0.13224E+06
 0.10257000E+03  0.13172E+06
 0.10262000E+03  0.11417E+06
 0.10267000E+03  0.82559E+05
 0.10272000E+03  0.42646E+05
 0.10277000E+03  0.40340E+04
 0.10282000E+03 -0.20446E+05
 0.10287000E+03 -0.21570E+05
 0.10292000E+03 -0.68460E+04
 0.10297000E+03  0.87910E+04
 0.10302000E+03  0.21164E+05
 0.10307000E+03  0.32560E+05
 0.10312000E+03  0.40152E+05
 0.10317000E+03  0.34780E+05
 0.10322000E+03  0.11801E+05
 0.10327000E+03 -0.16527E+05
 0.10332000E+03 -0.34392E+05
 0.10337000E+03 -0.42876E+05
 0.10342000E+03 -0.48287E+05
 0.10347000E+03 -0.44430E+05
 0.10352000E+03 -0.24895E+05
 0.10357000E+03  0.68570E+04
 0.10362000E+03  0.47536E+05
 0.10367000E+03  0.87863E+05
 0.10372000E+03  0.11982E+06
 0.10377000E+03  0.14122E+06
 0.10382000E+03  0.14629E+06
 0.10387000E+03  0.13439E+06
 0.10392000E+03  0.11029E+06
 0.10397000E+03  0.81702E+05
 0.10402000E+03  0.56586E+05
 0.10407000E+03  0.38627E+05
 0.10412000E+03  0.19766E+05
 0.10417000E+03 -0.69340E+04
 0.10422000E+03 -0.32994E+05
 0.10427000E+03 -0.54978E+05
 0.10432000E+03 -0.77288E+05
 0.10437000E+03 -0.96979E+05
 0.10442000E+03 -0.97818E+05
 0.10447000E+03 -0.69062E+05
 0.10452000E+03 -0.27119E+05
 0.10457000E+03  0.88820E+04
 0.10462000E+03  0.34236E+05
 0.10467000E+03  0.46210E+05
 0.10472000E+03  0.35953E+05
 0.10477000E+03  0.12300E+04
 0.10482000E+03 -0.41867E+05
 0.10487000E+03 -0.80744E+05
 0.10492000E+03 -0.11081E+06
 0.10497000E+03 -0.13255E+06
 0.10502000E+03 -0.15184E+06
 0.10507000E+03 -0.16720E+06
 0.10512000E+03 -0.17234E+06
 0.10517000E+03 -0.16600E+06
 0.10522000E+03 -0.15526E+06
 0.10527000E+03 -0.15124E+06
 0.10532000E+03 -0.16432E+06
 0.10537000E+03 -0.19072E+06
 0.10542000E+03 -0.21658E+06
 0.10547000E+03 -0.23840E+06
 0.10552000E+03 -0.25837E+06
 0.10557000E+03 -0.27898E+06
 0.10562000E+03 -0.30015E+06
 0.10567000E+03 -0.32412E+06
 0.10572000E+03 -0.35349E+06
 0.10577000E+03 -0.37982E+06
 0.10582000E+03 -0.39806E+06
 0.10587000E+03 -0.40879E+06
 0.10592000E+03 -0.41549E+06
 0.10597000E+03 -0.42040E+06
 0.10602000E+03 -0.41827E+06
 0.10607000E+03 -0.40393E+06
 0.10612000E+03 -0.38677E+06
 0.10617000E+03 -0.39102E+06
 0.10622000E+03 -0.42115E+06
 0.10627000E+03 -0.45982E+06
 0.10632000E+03 -0.48453E+06
 0.10637000E+03 -0.48275E+06
 0.10642000E+03 -0.46081E+06
 0.10647000E+03 -0.43048E+06
 0.10652000E+03 -0.40097E+06
 0.10657000E+03 -0.36766E+06
 0.10662000E+03 -0.33051E+06
 0.10667000E+03 -0.30414E+06
 0.10672000E+03 -0.29239E+06
 0.10677000E+03 -0.28694E+06
 0.10682000E+03 -0.28330E+06
 0.10687000E+03 -0.28288E+06
 0.10692000E+03 -0.28856E+06
 0.10697000E+03 -0.29800E+06
 0.10702000E+03 -0.30593E+06
 0.10707000E+03 -0.31447E+06
 0.10712000E+03 -0.31854E+06
 0.10717000E+03 -0.30727E+06
 0.10722000E+03 -0.27634E+06
 0.10727000E+03 -0.22763E+06
 0.10732000E+03 -0.16901E+06
 0.10737000E+03 -0.10616E+06
 0.10742000E+03 -0.47117E+05
 0.10747000E+03 -0.66540E+04
 0.10752000E+03  0.65040E+04
 0.10757000E+03 -0.31280E+04
 0.10762000E+03 -0.25736E+05
 0.10767000E+03 -0.46152E+05
 0.10772000E+03 -0.51273E+05
 0.10777000E+03 -0.41204E+05
 0.10782000E+03 -0.19094E+05
 0.10787000E+03  0.11699E+05
 0.10792000E+03  0.43829E+05
 0.10797000E+03  0.70703E+05
 0.10802000E+03  0.96849E+05
 0.10807000E+03  0.13103E+06
 0.10812000E+03  0.17334E+06
 0.10817000E+03  0.22050E+06
 0.10822000E+03  0.26524E+06
 0.10827000E+03  0.30346E+06
 0.10832000E+03  0.34824E+06
 0.10837000E+03  0.41730E+06
 0.10842000E+03  0.51251E+06
 0.10847000E+03  0.61864E+06
 0.10852000E+03  0.71692E+06
 0.10857000E+03  0.79872E+06
 0.10862000E+03  0.86720E+06
 0.10867000E+03  0.92163E+06
 0.10872000E+03  0.95239E+06
 0.10877000E+03  0.95986E+06
 0.10882000E+03  0.95578E+06
 0.10887000E+03  0.94986E+06
 0.10892000E+03  0.94916E+06
 0.10897000E+03  0.95685E+06
 0.10902000E+03  0.96848E+06
 0.10907000E+03  0.97918E+06
 0.10912000E+03  0.98604E+06
 0.10917000E+03  0.98282E+06
 0.10922000E+03  0.96823E+06
 0.10927000E+03  0.94832E+06
 0.10932000E+03  0.92380E+06
 0.10937000E+03  0.88549E+06
 0.10942000E+03  0.82356E+06
 0.10947000E+03  0.73888E+06
 0.10952000E+03  0.63764E+06
 0.10957000E+03  0.52669E+06
 0.10962000E+03  0.41646E+06
 0.10967000E+03  0.31911E+06
 0.10972000E+03  0.24270E+06
 0.10977000E+03  0.18372E+06
 0.10982000E+03  0.13214E+06
 0.10987000E+03  0.78575E+05
 0.10992000E+03  0.20309E+05
 0.10997000E+03 -0.36799E+05
 0.11002000E+03 -0.83502E+05
 0.11007000E+03 -0.11243E+06
 0.11012000E+03 -0.12420E+06
 0.11017000E+03 -0.12334E+06
 0.11022000E+03 -0.11406E+06
 0.11027000E+03 -0.98730E+05
 0.11032000E+03 -0.80438E+05
 0.11037000E+03 -0.68831E+05
 0.11042000E+03 -0.74943E+05
 0.11047000E+03 -0.10165E+06
 0.11052000E+03 -0.14231E+06
 0.11057000E+03 -0.19355E+06
 0.11062000E+03 -0.25128E+06
 0.11067000E+03 -0.30290E+06
 0.11072000E+03 -0.34382E+06
 0.11077000E+03 -0.37709E+06
 0.11082000E+03 -0.40126E+06
 0.11087000E+03 -0.41101E+06
 0.11092000E+03 -0.40006E+06
 0.11097000E+03 -0.36580E+06
 0.11102000E+03 -0.31519E+06
 0.11107000E+03 -0.25510E+06
 0.11112000E+03 -0.18782E+06
 0.11117000E+03 -0.11891E+06
 0.11122000E+03 -0.58854E+05
 0.11127000E+03 -0.22124E+05
 0.11132000E+03 -0.11754E+05
 0.11137000E+03 -0.23848E+05
 0.11142000E+03 -0.58318E+05
 0.11147000E+03 -0.10738E+06
 0.11152000E+03 -0.15833E+06
 0.11157000E+03 -0.20442E+06
 0.11162000E+03 -0.25021E+06
 0.11167000E+03 -0.29970E+06
 0.11172000E+03 -0.34886E+06
 0.11177000E+03 -0.39186E+06
 0.11182000E+03 -0.42342E+06
 0.11187000E+03 -0.44209E+06
 0.11192000E+03 -0.44317E+06
 0.11197000E+03 -0.41794E+06
 0.11202000E+03 -0.37282E+06
 0.11207000E+03 -0.32684E+06
 0.11212000E+03 -0.28724E+06
 0.11217000E+03 -0.24415E+06
 0.11222000E+03 -0.19325E+06
 0.11227000E+03 -0.14463E+06
 0.11232000E+03 -0.10610E+06
 0.11237000E+03 -0.78740E+05
 0.11242000E+03 -0.57839E+05
 0.11247000E+03 -0.37442E+05
 0.11252000E+03 -0.15606E+05
 0.11257000E+03  0.20740E+04
 0.11262000E+03  0.23930E+04
 0.11267000E+03 -0.22310E+05
 0.11272000E+03 -0.68105E+05
 0.11277000E+03 -0.12223E+06
 0.11282000E+03 -0.17666E+06
 0.11287000E+03 -0.22541E+06
 0.11292000E+03 -0.25811E+06
 0.11297000E+03 -0.27330E+06
 0.11302000E+03 -0.27873E+06
 0.11307000E+03 -0.28734E+06
 0.11312000E+03 -0.30378E+06
 0.11317000E+03 -0.32412E+06
 0.11322000E+03 -0.34957E+06
 0.11327000E+03 -0.38230E+06
 0.11332000E+03 -0.42022E+06
 0.11337000E+03 -0.45404E+06
 0.11342000E+03 -0.47546E+06
 0.11347000E+03 -0.48438E+06
 0.11352000E+03 -0.48536E+06
 0.11357000E+03 -0.47523E+06
 0.11362000E+03 -0.43919E+06
 0.11367000E+03 -0.37367E+06
 0.11372000E+03 -0.29467E+06
 0.11377000E+03 -0.22166E+06
 0.11382000E+03 -0.16366E+06
 0.11387000E+03 -0.11694E+06
 0.11392000E+03 -0.72883E+05
 0.11397000E+03 -0.25234E+05
 0.11402000E+03  0.26176E+05
 0.11407000E+03  0.71577E+05
 0.11412000E+03  0.10312E+06
 0.11417000E+03  0.12301E+06
 0.11422000E+03  0.13433E+06
 0.11427000E+03  0.13687E+06
 0.11432000E+03  0.12566E+06
 0.11437000E+03  0.98748E+05
 0.11442000E+03  0.64826E+05
 0.11447000E+03  0.29798E+05
 0.11452000E+03 -0.94790E+04
 0.11457000E+03 -0.52022E+05
 0.11462000E+03 -0.91529E+05
 0.11467000E+03 -0.11706E+06
 0.11472000E+03 -0.11487E+06
 0.11477000E+03 -0.81835E+05
 0.11482000E+03 -0.27775E+05
 0.11487000E+03  0.32512E+05
 0.11492000E+03  0.89023E+05
 0.11497000E+03  0.13731E+06
 0.11502000E+03  0.17494E+06
 0.11507000E+03  0.20236E+06
 0.11512000E+03  0.21751E+06
 0.11517000E+03  0.21960E+06
 0.11522000E+03  0.22271E+06
 0.11527000E+03  0.24490E+06
 0.11532000E+03  0.28242E+06
 0.11537000E+03  0.32081E+06
 0.11542000E+03  0.35476E+06
 0.11547000E+03  0.38298E+06
 0.11552000E+03  0.40235E+06
 0.11557000E+03  0.40493E+06
 0.11562000E+03  0.39304E+06
 0.11567000E+03  0.37724E+06
 0.11572000E+03  0.36152E+06
 0.11577000E+03  0.34752E+06
 0.11582000E+03  0.33387E+06
 0.11587000E+03  0.31930E+06
 0.11592000E+03  0.30301E+06
 0.11597000E+03  0.28681E+06
 0.11602000E+03  0.26924E+06
 0.11607000E+03  0.24427E+06
 0.11612000E+03  0.21246E+06
 0.11617000E+03  0.17737E+06
 0.11622000E+03  0.14646E+06
 0.11627000E+03  0.11979E+06
 0.11632000E+03  0.84965E+05
 0.11637000E+03  0.38715E+05
 0.11642000E+03 -0.10046E+05
 0.11647000E+03 -0.54820E+05
 0.11652000E+03 -0.95684E+05
 0.11657000E+03 -0.13403E+06
 0.11662000E+03 -0.16642E+06
 0.11667000E+03 -0.18751E+06
 0.11672000E+03 -0.20112E+06
 0.11677000E+03 -0.22208E+06
 0.11682000E+03 -0.26080E+06
 0.11687000E+03 -0.30839E+06
 0.11692000E+03 -0.35009E+06
 0.11697000E+03 -0.37700E+06
 0.11702000E+03 -0.38565E+06
 0.11707000E+03 -0.38108E+06
 0.11712000E+03 -0.36466E+06
 0.11717000E+03 -0.33274E+06
 0.11722000E+03 -0.29159E+06
 0.11727000E+03 -0.25378E+06
 0.11732000E+03 -0.22445E+06
 0.11737000E+03 -0.20051E+06
 0.11742000E+03 -0.17941E+06
 0.11747000E+03 -0.16096E+06
 0.11752000E+03 -0.14318E+06
 0.11757000E+03 -0.12380E+06
 0.11762000E+03 -0.10087E+06
 0.11767000E+03 -0.65943E+05
 0.11772000E+03 -0.12379E+05
 0.11777000E+03  0.53168E+05
 0.11782000E+03  0.11679E+06
 0.11787000E+03  0.16310E+06
 0.11792000E+03  0.18860E+06
 0.11797000E+03  0.20667E+06
 0.11802000E+03  0.22814E+06
 0.11807000E+03  0.25399E+06
 0.11812000E+03  0.28295E+06
 0.11817000E+03  0.31219E+06
 0.11822000E+03  0.33368E+06
 0.11827000E+03  0.34045E+06
 0.11832000E+03  0.33428E+06
 0.11837000E+03  0.32225E+06
 0.11842000E+03  0.30722E+06
 0.11847000E+03  0.28869E+06
 0.11852000E+03  0.27448E+06
 0.11857000E+03  0.27472E+06
 0.11862000E+03  0.28808E+06
 0.11867000E+03  0.30374E+06
 0.11872000E+03  0.31361E+06
 0.11877000E+03  0.31853E+06
 0.11882000E+03  0.31646E+06
 0.11887000E+03  0.29645E+06
 0.11892000E+03  0.25421E+06
 0.11897000E+03  0.19922E+06
 0.11902000E+03  0.14298E+06
 0.11907000E+03  0.90830E+05
 0.11912000E+03  0.45402E+05
 0.11917000E+03  0.13130E+05
 0.11922000E+03  0.38650E+04
 0.11927000E+03  0.16990E+05
 0.11932000E+03  0.36493E+05
 0.11937000E+03  0.46609E+05
 0.11942000E+03  0.43868E+05
 0.11947000E+03  0.34915E+05
 0.11952000E+03  0.22819E+05
 0.11957000E+03  0.82080E+04
 0.11962000E+03 -0.27730E+04
 0.11967000E+03 -0.52570E+04
 0.11972000E+03  0.35420E+04
 0.11977000E+03  0.21879E+05
 0.11982000E+03  0.43084E+05
 0.11987000E+03  0.64903E+05
 0.11992000E+03  0.87444E+05
 0.11997000E+03  0.10512E+06
 0.12002000E+03  0.11510E+06
 0.12007000E+03  0.12206E+06
 0.12012000E+03  0.12850E+06
 0.12017000E+03  0.13213E+06
 0.12022000E+03  0.13089E+06
 0.12027000E+03  0.13248E+06
 0.12032000E+03  0.14421E+06
 0.12037000E+03  0.15946E+06
 0.12042000E+03  0.16682E+06
 0.12047000E+03  0.16110E+06
 0.12052000E+03  0.14551E+06
 0.12057000E+03  0.11946E+06
 0.12062000E+03  0.80490E+05
 0.12067000E+03  0.33809E+05
 0.12072000E+03 -0.14953E+05
 0.12077000E+03 -0.62227E+05
 0.12082000E+03 -0.10653E+06
 0.12087000E+03 -0.14808E+06
 0.12092000E+03 -0.18292E+06
 0.12097000E+03 -0.20843E+06
 0.12102000E+03 -0.22928E+06
 0.12107000E+03 -0.25057E+06
 0.12112000E+03 -0.27676E+06
 0.12117000E+03 -0.30935E+06
 0.12122000E+03 -0.34612E+06
 0.12127000E+03 -0.38781E+06
 0.12132000E+03 -0.43549E+06
 0.12137000E+03 -0.48537E+06
 0.12142000E+03 -0.53222E+06
 0.12147000E+03 -0.57147E+06
 0.12152000E+03 -0.59743E+06
 0.12157000E+03 -0.60310E+06
 0.12162000E+03 -0.58414E+06
 0.12167000E+03 -0.54844E+06
 0.12172000E+03 -0.50776E+06
 0.12177000E+03 -0.46684E+06
 0.12182000E+03 -0.42932E+06
 0.12187000E+03 -0.39961E+06
 0.12192000E+03 -0.38239E+06
 0.12197000E+03 -0.37551E+06
 0.12202000E+03 -0.37000E+06
 0.12207000E+03 -0.36029E+06
 0.12212000E+03 -0.34758E+06
 0.12217000E+03 -0.33538E+06
 0.12222000E+03 -0.31788E+06
 0.12227000E+03 -0.28636E+06
 0.12232000E+03 -0.24468E+06
 0.12237000E+03 -0.20481E+06
 0.12242000E+03 -0.16915E+06
 0.12247000E+03 -0.12848E+06
 0.12252000E+03 -0.79194E+05
 0.12257000E+03 -0.26750E+05
 0.12262000E+03  0.19577E+05
 0.12267000E+03  0.52848E+05
 0.12272000E+03  0.73369E+05
 0.12277000E+03  0.81546E+05
 0.12282000E+03  0.76051E+05
 0.12287000E+03  0.60533E+05
 0.12292000E+03  0.42533E+05
 0.12297000E+03  0.28852E+05
 0.12302000E+03  0.24154E+05
 0.12307000E+03  0.26505E+05
 0.12312000E+03  0.30622E+05
 0.12317000E+03  0.35528E+05
 0.12322000E+03  0.43748E+05
 0.12327000E+03  0.55994E+05
 0.12332000E+03  0.69518E+05
 0.12337000E+03  0.82543E+05
 0.12342000E+03  0.91647E+05
 0.12347000E+03  0.98158E+05
 0.12352000E+03  0.10729E+06
 0.12357000E+03  0.11828E+06
 0.12362000E+03  0.13447E+06
 0.12367000E+03  0.16026E+06
 0.12372000E+03  0.19651E+06
 0.12377000E+03  0.24215E+06
 0.12382000E+03  0.29080E+06
 0.12387000E+03  0.33628E+06
 0.12392000E+03  0.37436E+06
 0.12397000E+03  0.40218E+06
 0.12402000E+03  0.41731E+06
 0.12407000E+03  0.42211E+06
 0.12412000E+03  0.42560E+06
 0.12417000E+03  0.43142E+06
 0.12422000E+03  0.43593E+06
 0.12427000E+03  0.43816E+06
 0.12432000E+03  0.44412E+06
 0.12437000E+03  0.45658E+06
 0.12442000E+03  0.47297E+06
 0.12447000E+03  0.49218E+06
 0.12452000E+03  0.50637E+06
 0.12457000E+03  0.50714E+06
 0.12462000E+03  0.49336E+06
 0.12467000E+03  0.46430E+06
 0.12472000E+03  0.42107E+06
 0.12477000E+03  0.36589E+06
 0.12482000E+03  0.30528E+06
 0.12487000E+03  0.24970E+06
 0.12492000E+03  0.20248E+06
 0.12497000E+03  0.15781E+06
 0.12502000E+03  0.10541E+06
 0.12507000E+03  0.41912E+05
 0.12512000E+03 -0.23957E+05
 0.12517001E+03 -0.81904E+05
 0.12521999E+03 -0.13056E+06
 0.12527000E+03 -0.17559E+06
 0.12532000E+03 -0.21634E+06
 0.12537000E+03 -0.24858E+06
 0.12542001E+03 -0.27574E+06
 0.12546999E+03 -0.30266E+06
 0.12552000E+03 -0.32679E+06
 0.12557000E+03 -0.34075E+06
 0.12562000E+03 -0.34481E+06
 0.12567001E+03 -0.34608E+06
 0.12571999E+03 -0.34647E+06
 0.12577000E+03 -0.34490E+06
 0.12582000E+03 -0.34174E+06
 0.12587000E+03 -0.33833E+06
 0.12592001E+03 -0.33364E+06
 0.12596999E+03 -0.32013E+06
 0.12602000E+03 -0.29234E+06
 0.12607000E+03 -0.25628E+06
 0.12612000E+03 -0.22030E+06
 0.12617001E+03 -0.18404E+06
 0.12621999E+03 -0.14568E+06
 0.12627000E+03 -0.10804E+06
 0.12632000E+03 -0.71480E+05
 0.12637000E+03 -0.31846E+05
 0.12642001E+03  0.13488E+05
 0.12646999E+03  0.61750E+05
 0.12652000E+03  0.10740E+06
 0.12657000E+03  0.14914E+06
 0.12662000E+03  0.18772E+06
 0.12667001E+03  0.22035E+06
 0.12671999E+03  0.24427E+06
 0.12677000E+03  0.26029E+06
 0.12682000E+03  0.27238E+06
 0.12687000E+03  0.28611E+06
 0.12692001E+03  0.30079E+06
 0.12696999E+03  0.30864E+06
 0.12702000E+03  0.30609E+06
 0.12707000E+03  0.29707E+06
 0.12712000E+03  0.28464E+06
 0.12717001E+03  0.26422E+06
 0.12721999E+03  0.22875E+06
 0.12727000E+03  0.17744E+06
 0.12732000E+03  0.11844E+06
 0.12737000E+03  0.61542E+05
 0.12742001E+03  0.10098E+05
 0.12746999E+03 -0.36641E+05
 0.12752000E+03 -0.76576E+05
 0.12757000E+03 -0.10671E+06
 0.12762000E+03 -0.13037E+06
 0.12767001E+03 -0.15060E+06
 0.12771999E+03 -0.16632E+06
 0.12777000E+03 -0.17654E+06
 0.12782000E+03 -0.17887E+06
 0.12787000E+03 -0.17653E+06
 0.12792001E+03 -0.18054E+06
 0.12796999E+03 -0.19672E+06
 0.12802000E+03 -0.22156E+06
 0.12807001E+03 -0.24679E+06
 0.12812001E+03 -0.26649E+06
 0.12817001E+03 -0.28274E+06
 0.12822000E+03 -0.29652E+06
 0.12827000E+03 -0.30276E+06
 0.12832001E+03 -0.30101E+06
 0.12837001E+03 -0.30091E+06
 0.12842001E+03 -0.31129E+06
 0.12847000E+03 -0.32913E+06
 0.12852000E+03 -0.34460E+06
 0.12857001E+03 -0.35203E+06
 0.12862001E+03 -0.35419E+06
 0.12867001E+03 -0.35072E+06
 0.12872000E+03 -0.33596E+06
 0.12877000E+03 -0.30845E+06
 0.12882001E+03 -0.27145E+06
 0.12887001E+03 -0.23121E+06
 0.12892001E+03 -0.19288E+06
 0.12897000E+03 -0.15961E+06
 0.12902000E+03 -0.13429E+06
 0.12907001E+03 -0.11678E+06
 0.12912001E+03 -0.98533E+05
 0.12917001E+03 -0.71665E+05
 0.12922000E+03 -0.37068E+05
 0.12927000E+03  0.20940E+04
 0.12932001E+03  0.40421E+05
 0.12937001E+03  0.75115E+05
 0.12942001E+03  0.10627E+06
 0.12947000E+03  0.13170E+06
 0.12952000E+03  0.14970E+06
 0.12957001E+03  0.16091E+06
 0.12962001E+03  0.17047E+06
 0.12967001E+03  0.18312E+06
 0.12972000E+03  0.20020E+06
 0.12977000E+03  0.22352E+06
 0.12982001E+03  0.25248E+06
 0.12987001E+03  0.28107E+06
 0.12992001E+03  0.30329E+06
 0.12997000E+03  0.31955E+06
 0.13002000E+03  0.33466E+06
 0.13007001E+03  0.34983E+06
 0.13012001E+03  0.35772E+06
 0.13017001E+03  0.34941E+06
 0.13022000E+03  0.32317E+06
 0.13027000E+03  0.28573E+06
 0.13032001E+03  0.24496E+06
 0.13037001E+03  0.20127E+06
 0.13042001E+03  0.15384E+06
 0.13047000E+03  0.10641E+06
 0.13052000E+03  0.61551E+05
 0.13057001E+03  0.19772E+05
 0.13062001E+03 -0.14279E+05
 0.13067001E+03 -0.35942E+05
 0.13072000E+03 -0.49451E+05
 0.13077000E+03 -0.63345E+05
 0.13082001E+03 -0.80355E+05
 0.13087001E+03 -0.94695E+05
 0.13092001E+03 -0.10007E+06
 0.13097000E+03 -0.99855E+05
 0.13102000E+03 -0.10007E+06
 0.13107001E+03 -0.10005E+06
 0.13112001E+03 -0.98656E+05
 0.13117001E+03 -0.96458E+05
 0.13122000E+03 -0.93543E+05
 0.13127000E+03 -0.86086E+05
 0.13132001E+03 -0.71477E+05
 0.13137001E+03 -0.54954E+05
 0.13142001E+03 -0.38056E+05
 0.13147000E+03 -0.16412E+05
 0.13152000E+03  0.12212E+05
 0.13157001E+03  0.44361E+05
 0.13162001E+03  0.75702E+05
 0.13167001E+03  0.10888E+06
 0.13172000E+03  0.14809E+06
 0.13177000E+03  0.19058E+06
 0.13182001E+03  0.22902E+06
 0.13187001E+03  0.25976E+06
 0.13192001E+03  0.28230E+06
 0.13197000E+03  0.29635E+06
 0.13202000E+03  0.30258E+06
 0.13207001E+03  0.30353E+06
 0.13212001E+03  0.30307E+06
 0.13217001E+03  0.30133E+06
 0.13222000E+03  0.29626E+06
 0.13227000E+03  0.28518E+06
 0.13232001E+03  0.26749E+06
 0.13237001E+03  0.24558E+06
 0.13242001E+03  0.22103E+06
 0.13247000E+03  0.19849E+06
 0.13252000E+03  0.18365E+06
 0.13257001E+03  0.17912E+06
 0.13262001E+03  0.18028E+06
 0.13267001E+03  0.17957E+06
 0.13272000E+03  0.17581E+06
 0.13277000E+03  0.17051E+06
 0.13282001E+03  0.16602E+06
 0.13287001E+03  0.16069E+06
 0.13292001E+03  0.14768E+06
 0.13297000E+03  0.12301E+06
 0.13302000E+03  0.87758E+05
 0.13307001E+03  0.46288E+05
 0.13312001E+03  0.36060E+04
 0.13317001E+03 -0.35596E+05
 0.13322000E+03 -0.66863E+05
 0.13327000E+03 -0.86131E+05
 0.13332001E+03 -0.91972E+05
 0.13337001E+03 -0.90360E+05
 0.13342001E+03 -0.91961E+05
 0.13347000E+03 -0.99924E+05
 0.13352000E+03 -0.10993E+06
 0.13357001E+03 -0.11976E+06
 0.13362001E+03 -0.13197E+06
 0.13367001E+03 -0.15142E+06
 0.13372000E+03 -0.17786E+06
 0.13377000E+03 -0.20645E+06
 0.13382001E+03 -0.23520E+06
 0.13387001E+03 -0.26196E+06
 0.13392001E+03 -0.28169E+06
 0.13397000E+03 -0.29182E+06
 0.13402000E+03 -0.29433E+06
 0.13407001E+03 -0.29425E+06
 0.13412001E+03 -0.29485E+06
 0.13417001E+03 -0.29534E+06
 0.13422000E+03 -0.29472E+06
 0.13427000E+03 -0.29284E+06
 0.13432001E+03 -0.28905E+06
 0.13437001E+03 -0.28275E+06
 0.13442001E+03 -0.27666E+06
 0.13447000E+03 -0.27470E+06
 0.13452000E+03 -0.27754E+06
 0.13457001E+03 -0.28315E+06
 0.13462001E+03 -0.28877E+06
 0.13467001E+03 -0.28904E+06
 0.13472000E+03 -0.27564E+06
 0.13477000E+03 -0.24608E+06
 0.13482001E+03 -0.20717E+06
 0.13487001E+03 -0.16594E+06
 0.13492001E+03 -0.12230E+06
 0.13497000E+03 -0.75460E+05
 0.13502000E+03 -0.31036E+05
 0.13507001E+03  0.43470E+04
 0.13512001E+03  0.31229E+05
 0.13517001E+03  0.56723E+05
 0.13522000E+03  0.82541E+05
 0.13527000E+03  0.10352E+06
 0.13532001E+03  0.11776E+06
 0.13537001E+03  0.12667E+06
 0.13542001E+03  0.13060E+06
 0.13547000E+03  0.12770E+06
 0.13552000E+03  0.11682E+06
 0.13557001E+03  0.10010E+06
 0.13562001E+03  0.81115E+05
 0.13567001E+03  0.62351E+05
 0.13572000E+03  0.44110E+05
 0.13577000E+03  0.25977E+05
 0.13582001E+03  0.64260E+04
 0.13587001E+03 -0.14592E+05
 0.13592001E+03 -0.30513E+05
 0.13597000E+03 -0.35370E+05
 0.13602000E+03 -0.32823E+05
 0.13607001E+03 -0.30762E+05
 0.13612001E+03 -0.29278E+05
 0.13617001E+03 -0.23210E+05
 0.13622000E+03 -0.12984E+05
 0.13627000E+03 -0.17940E+04
 0.13632001E+03  0.94740E+04
 0.13637001E+03  0.20760E+05
 0.13642001E+03  0.29200E+05
 0.13647000E+03  0.32148E+05
 0.13652000E+03  0.32758E+05
 0.13657001E+03  0.36396E+05
 0.13662001E+03  0.44770E+05
 0.13667001E+03  0.54587E+05
 0.13672000E+03  0.61733E+05
 0.13677000E+03  0.65921E+05
 0.13682001E+03  0.70692E+05
 0.13687001E+03  0.76968E+05
 0.13692001E+03  0.82673E+05
 0.13697000E+03  0.88798E+05
 0.13702000E+03  0.97387E+05
 0.13707001E+03  0.10527E+06
 0.13712001E+03  0.10544E+06
 0.13717001E+03  0.97063E+05
 0.13722000E+03  0.86354E+05
 0.13727000E+03  0.78848E+05
 0.13732001E+03  0.76536E+05
 0.13737001E+03  0.80395E+05
 0.13742001E+03  0.91833E+05
 0.13747000E+03  0.10896E+06
 0.13752000E+03  0.12827E+06
 0.13757001E+03  0.14849E+06
 0.13762001E+03  0.16931E+06
 0.13767001E+03  0.18897E+06
 0.13772000E+03  0.20449E+06
 0.13777000E+03  0.21457E+06
 0.13782001E+03  0.22045E+06
 0.13787001E+03  0.22362E+06
 0.13792001E+03  0.22520E+06
 0.13797000E+03  0.22666E+06
 0.13802000E+03  0.22696E+06
 0.13807001E+03  0.22180E+06
 0.13812001E+03  0.20792E+06
 0.13817001E+03  0.18509E+06
 0.13822000E+03  0.15585E+06
 0.13827000E+03  0.12522E+06
 0.13832001E+03  0.98034E+05
 0.13837001E+03  0.77574E+05
 0.13842001E+03  0.65110E+05
 0.13847000E+03  0.57034E+05
 0.13852000E+03  0.48996E+05
 0.13857001E+03  0.40201E+05
 0.13862001E+03  0.31467E+05
 0.13867001E+03  0.22670E+05
 0.13872000E+03  0.12083E+05
 0.13877000E+03  0.15150E+04
 0.13882001E+03 -0.64530E+04
 0.13887001E+03 -0.13222E+05
 0.13892001E+03 -0.19328E+05
 0.13897000E+03 -0.24865E+05
 0.13902000E+03 -0.30878E+05
 0.13907001E+03 -0.39457E+05
 0.13912001E+03 -0.55527E+05
 0.13917001E+03 -0.82213E+05
 0.13922000E+03 -0.11537E+06
 0.13927000E+03 -0.14775E+06
 0.13932001E+03 -0.17506E+06
 0.13937001E+03 -0.19658E+06
 0.13942001E+03 -0.21467E+06
 0.13947000E+03 -0.23221E+06
 0.13952000E+03 -0.25038E+06
 0.13957001E+03 -0.26846E+06
 0.13962001E+03 -0.28437E+06
 0.13967001E+03 -0.29628E+06
 0.13972000E+03 -0.30189E+06
 0.13977000E+03 -0.30149E+06
 0.13982001E+03 -0.29738E+06
 0.13987001E+03 -0.28789E+06
 0.13992001E+03 -0.27248E+06
 0.13997000E+03 -0.25808E+06
 0.14002000E+03 -0.25365E+06
 0.14007001E+03 -0.25983E+06
 0.14012001E+03 -0.26939E+06
 0.14017001E+03 -0.27495E+06
 0.14022000E+03 -0.27317E+06
 0.14027000E+03 -0.26249E+06
 0.14032001E+03 -0.24079E+06
 0.14037001E+03 -0.20952E+06
 0.14042001E+03 -0.17313E+06
 0.14047000E+03 -0.13504E+06
 0.14052000E+03 -0.95597E+05
 0.14057001E+03 -0.53376E+05
 0.14062001E+03 -0.10614E+05
 0.14067001E+03  0.28190E+05
 0.14072000E+03  0.60540E+05
 0.14077000E+03  0.86047E+05
 0.14082001E+03  0.10573E+06
 0.14087001E+03  0.12056E+06
 0.14092001E+03  0.13239E+06
 0.14097000E+03  0.14237E+06
 0.14102000E+03  0.15029E+06
 0.14107001E+03  0.15683E+06
 0.14112001E+03  0.16319E+06
 0.14117001E+03  0.17243E+06
 0.14122000E+03  0.18630E+06
 0.14127000E+03  0.20210E+06
 0.14132001E+03  0.21350E+06
 0.14137001E+03  0.21387E+06
 0.14142001E+03  0.20280E+06
 0.14147000E+03  0.18463E+06
 0.14152000E+03  0.16331E+06
 0.14157001E+03  0.14266E+06
 0.14162001E+03  0.12481E+06
 0.14167001E+03  0.10696E+06
 0.14172000E+03  0.87483E+05
 0.14177000E+03  0.68637E+05
 0.14182001E+03  0.52570E+05
 0.14187001E+03  0.38521E+05
 0.14192001E+03  0.21798E+05
 0.14197000E+03  0.33640E+04
 0.14202000E+03 -0.12620E+05
 0.14207001E+03 -0.25757E+05
 0.14212001E+03 -0.35274E+05
 0.14217001E+03 -0.42428E+05
 0.14222000E+03 -0.47356E+05
 0.14227000E+03 -0.49737E+05
 0.14232001E+03 -0.55450E+05
 0.14237001E+03 -0.68979E+05
 0.14242001E+03 -0.86725E+05
 0.14247000E+03 -0.10340E+06
 0.14252000E+03 -0.11778E+06
 0.14257001E+03 -0.13106E+06
 0.14262001E+03 -0.14544E+06
 0.14267001E+03 -0.16172E+06
 0.14272000E+03 -0.17869E+06
 0.14277000E+03 -0.19404E+06
 0.14282001E+03 -0.20637E+06
 0.14287001E+03 -0.21699E+06
 0.14292001E+03 -0.22599E+06
 0.14297000E+03 -0.23062E+06
 0.14302000E+03 -0.22527E+06
 0.14307001E+03 -0.20744E+06
 0.14312001E+03 -0.18238E+06
 0.14317001E+03 -0.15638E+06
 0.14322000E+03 -0.13254E+06
 0.14327000E+03 -0.10840E+06
 0.14332001E+03 -0.79462E+05
 0.14337001E+03 -0.45321E+05
 0.14342001E+03 -0.68500E+04
 0.14347000E+03  0.35901E+05
 0.14352000E+03  0.82967E+05
 0.14357001E+03  0.13276E+06
 0.14362001E+03  0.17940E+06
 0.14367001E+03  0.21593E+06
 0.14372000E+03  0.24055E+06
 0.14377000E+03  0.25504E+06
 0.14382001E+03  0.26148E+06
 0.14387001E+03  0.26318E+06
 0.14392001E+03  0.26466E+06
 0.14397000E+03  0.26917E+06
 0.14402000E+03  0.27543E+06
 0.14407001E+03  0.27966E+06
 0.14412001E+03  0.28045E+06
 0.14417001E+03  0.27785E+06
 0.14422000E+03  0.26876E+06
 0.14427000E+03  0.24820E+06
 0.14432001E+03  0.21656E+06
 0.14437001E+03  0.17876E+06
 0.14442001E+03  0.13872E+06
 0.14447000E+03  0.97006E+05
 0.14452000E+03  0.52365E+05
 0.14457001E+03  0.56270E+04
 0.14462001E+03 -0.40763E+05
 0.14467001E+03 -0.83047E+05
 0.14472000E+03 -0.11823E+06
 0.14477000E+03 -0.14389E+06
 0.14482001E+03 -0.15863E+06
 0.14487001E+03 -0.16739E+06
 0.14492001E+03 -0.17531E+06
 0.14497000E+03 -0.18088E+06
 0.14502000E+03 -0.18194E+06
 0.14507001E+03 -0.18102E+06
 0.14512001E+03 -0.18200E+06
 0.14517001E+03 -0.18467E+06
 0.14522000E+03 -0.18399E+06
 0.14527000E+03 -0.17740E+06
 0.14532001E+03 -0.16498E+06
 0.14537001E+03 -0.14389E+06
 0.14542001E+03 -0.11250E+06
 0.14547000E+03 -0.73510E+05
 0.14552000E+03 -0.31329E+05
 0.14557001E+03  0.11654E+05
 0.14562001E+03  0.55112E+05
 0.14567001E+03  0.96380E+05
 0.14572000E+03  0.13236E+06
 0.14577000E+03  0.16179E+06
 0.14582001E+03  0.18417E+06
 0.14587001E+03  0.19872E+06
 0.14592001E+03  0.20317E+06
 0.14597000E+03  0.19827E+06
 0.14602000E+03  0.19067E+06
 0.14607001E+03  0.18841E+06
 0.14612001E+03  0.19322E+06
 0.14617001E+03  0.19767E+06
 0.14622000E+03  0.19442E+06
 0.14627000E+03  0.18402E+06
 0.14632001E+03  0.17116E+06
 0.14637001E+03  0.15939E+06
 0.14642001E+03  0.14918E+06
 0.14647000E+03  0.13956E+06
 0.14652000E+03  0.12914E+06
 0.14657001E+03  0.11624E+06
 0.14662001E+03  0.10280E+06
 0.14667001E+03  0.92783E+05
 0.14672000E+03  0.87750E+05
 0.14677000E+03  0.84531E+05
 0.14682001E+03  0.77520E+05
 0.14687001E+03  0.64864E+05
 0.14692001E+03  0.49587E+05
 0.14697000E+03  0.37011E+05
 0.14702000E+03  0.28703E+05
 0.14707001E+03  0.20999E+05
 0.14712001E+03  0.12030E+05
 0.14717001E+03  0.52840E+04
 0.14722000E+03  0.45850E+04
 0.14727000E+03  0.94950E+04
 0.14732001E+03  0.16753E+05
 0.14737001E+03  0.24111E+05
 0.14742001E+03  0.33448E+05
 0.14747000E+03  0.46913E+05
 0.14752000E+03  0.63015E+05
 0.14757001E+03  0.77665E+05
 0.14762001E+03  0.86483E+05
 0.14767001E+03  0.86543E+05
 0.14772000E+03  0.77433E+05
 0.14777000E+03  0.62460E+05
 0.14782001E+03  0.45682E+05
 0.14787001E+03  0.30773E+05
 0.14792001E+03  0.17865E+05
 0.14797000E+03  0.19610E+04
 0.14802000E+03 -0.19707E+05
 0.14807001E+03 -0.44671E+05
 0.14812001E+03 -0.68215E+05
 0.14817001E+03 -0.88288E+05
 0.14822000E+03 -0.10524E+06
 0.14827000E+03 -0.11879E+06
 0.14832001E+03 -0.12832E+06
 0.14837001E+03 -0.13449E+06
 0.14842001E+03 -0.13851E+06
 0.14847000E+03 -0.14096E+06
 0.14852000E+03 -0.14466E+06
 0.14857001E+03 -0.15308E+06
 0.14862001E+03 -0.16643E+06
 0.14867001E+03 -0.18130E+06
 0.14872000E+03 -0.19329E+06
 0.14877000E+03 -0.20062E+06
 0.14882001E+03 -0.20316E+06
 0.14887001E+03 -0.20029E+06
 0.14892001E+03 -0.19196E+06
 0.14897000E+03 -0.17944E+06
 0.14902000E+03 -0.16356E+06
 0.14907001E+03 -0.14599E+06
 0.14912001E+03 -0.12979E+06
 0.14917001E+03 -0.11730E+06
 0.14922000E+03 -0.10856E+06
 0.14927000E+03 -0.10132E+06
 0.14932001E+03 -0.95187E+05
 0.14937001E+03 -0.91386E+05
 0.14942001E+03 -0.88560E+05
 0.14947000E+03 -0.84047E+05
 0.14952000E+03 -0.78759E+05
 0.14957001E+03 -0.75163E+05
 0.14962001E+03 -0.71973E+05
 0.14967001E+03 -0.65886E+05
 0.14972000E+03 -0.56069E+05
 0.14977000E+03 -0.44864E+05
 0.14982001E+03 -0.33049E+05
 0.14987001E+03 -0.19359E+05
 0.14992001E+03 -0.39970E+04
 0.14997000E+03  0.11280E+05
