-0.29800000E+01 -0.27855E+05
-0.29300001E+01 -0.20989E+05
-0.28800001E+01 -0.12564E+05
-0.28299999E+01 -0.36670E+04
-0.27800000E+01  0.48080E+04
-0.27300000E+01  0.13054E+05
-0.26800001E+01  0.21463E+05
-0.26300001E+01  0.29776E+05
-0.25799999E+01  0.37390E+05
-0.25300000E+01  0.43999E+05
-0.24800000E+01  0.49279E+05
-0.24300001E+01  0.52610E+05
-0.23800001E+01  0.53537E+05
-0.23299999E+01  0.52180E+05
-0.22800000E+01  0.48999E+05
-0.22300000E+01  0.44497E+05
-0.21800001E+01  0.39092E+05
-0.21300001E+01  0.33325E+05
-0.20799999E+01  0.27517E+05
-0.20300000E+01  0.21046E+05
-0.19800000E+01  0.13239E+05
-0.19299999E+01  0.44960E+04
-0.18800000E+01 -0.42250E+04
-0.18300000E+01 -0.12338E+05
-0.17800000E+01 -0.19496E+05
-0.17300000E+01 -0.25272E+05
-0.16799999E+01 -0.29554E+05
-0.16300000E+01 -0.32618E+05
-0.15800000E+01 -0.34519E+05
-0.15300000E+01 -0.35238E+05
-0.14800000E+01 -0.35027E+05
-0.14299999E+01 -0.33895E+05
-0.13800000E+01 -0.31842E+05
-0.13300000E+01 -0.29392E+05
-0.12800000E+01 -0.27169E+05
-0.12300000E+01 -0.25338E+05
-0.11799999E+01 -0.23427E+05
-0.11300000E+01 -0.21001E+05
-0.10800000E+01 -0.17922E+05
-0.10300000E+01 -0.13849E+05
-0.98000002E+00 -0.86800E+04
-0.93000007E+00 -0.23750E+04
-0.87999988E+00  0.51640E+04
-0.82999992E+00  0.13474E+05
-0.77999997E+00  0.21766E+05
-0.73000002E+00  0.29240E+05
-0.68000007E+00  0.35405E+05
-0.62999988E+00  0.40181E+05
-0.57999992E+00  0.43632E+05
-0.52999997E+00  0.45931E+05
-0.48000002E+00  0.47453E+05
-0.43000007E+00  0.48862E+05
-0.37999988E+00  0.50513E+05
-0.32999992E+00  0.51788E+05
-0.27999997E+00  0.51630E+05
-0.23000002E+00  0.49351E+05
-0.18000007E+00  0.44567E+05
-0.12999988E+00  0.37129E+05
-0.79999924E-01  0.27798E+05
-0.29999971E-01  0.17862E+05
 0.19999981E-01  0.77510E+04
 0.69999933E-01 -0.29810E+04
 0.12000012E+00 -0.14764E+05
 0.17000008E+00 -0.27393E+05
 0.22000003E+00 -0.39927E+05
 0.26999998E+00 -0.51606E+05
 0.31999993E+00 -0.62490E+05
 0.37000012E+00 -0.72461E+05
 0.42000008E+00 -0.80869E+05
 0.47000003E+00 -0.87267E+05
 0.51999998E+00 -0.91516E+05
 0.56999993E+00 -0.93453E+05
 0.62000012E+00 -0.92815E+05
 0.67000008E+00 -0.89837E+05
 0.72000003E+00 -0.85176E+05
 0.76999998E+00 -0.78945E+05
 0.81999993E+00 -0.71019E+05
 0.87000012E+00 -0.61605E+05
 0.92000008E+00 -0.51162E+05
 0.97000003E+00 -0.40005E+05
 0.10200000E+01 -0.28217E+05
 0.10700002E+01 -0.15631E+05
 0.11199999E+01 -0.21880E+04
 0.11700001E+01  0.11386E+05
 0.12200003E+01  0.24646E+05
 0.12700000E+01  0.37752E+05
 0.13200002E+01  0.50678E+05
 0.13699999E+01  0.62889E+05
 0.14200001E+01  0.73640E+05
 0.14700003E+01  0.82627E+05
 0.15200000E+01  0.89614E+05
 0.15700002E+01  0.94374E+05
 0.16199999E+01  0.96940E+05
 0.16700001E+01  0.97758E+05
 0.17200003E+01  0.97619E+05
 0.17700000E+01  0.97015E+05
 0.18200002E+01  0.96000E+05
 0.18699999E+01  0.94415E+05
 0.19200001E+01  0.92244E+05
 0.19700003E+01  0.89406E+05
 0.20200000E+01  0.85200E+05
 0.20700002E+01  0.78909E+05
 0.21199999E+01  0.70655E+05
 0.21700001E+01  0.61369E+05
 0.22200003E+01  0.51980E+05
 0.22700000E+01  0.42905E+05
 0.23200002E+01  0.34291E+05
 0.23699999E+01  0.25826E+05
 0.24200001E+01  0.16913E+05
 0.24700003E+01  0.77070E+04
 0.25200000E+01 -0.12390E+04
 0.25700002E+01 -0.10078E+05
 0.26199999E+01 -0.19223E+05
 0.26700001E+01 -0.28234E+05
 0.27200003E+01 -0.36023E+05
 0.27700000E+01 -0.42143E+05
 0.28200002E+01 -0.47055E+05
 0.28699999E+01 -0.51030E+05
 0.29200001E+01 -0.54007E+05
 0.29700003E+01 -0.56112E+05
 0.30200000E+01 -0.56970E+05
 0.30700002E+01 -0.55798E+05
 0.31199999E+01 -0.52409E+05
 0.31700001E+01 -0.47193E+05
 0.32200003E+01 -0.40866E+05
 0.32700000E+01 -0.34178E+05
 0.33200002E+01 -0.27745E+05
 0.33699999E+01 -0.21893E+05
 0.34200001E+01 -0.16852E+05
 0.34700003E+01 -0.13147E+05
 0.35200000E+01 -0.11018E+05
 0.35700002E+01 -0.10360E+05
 0.36199999E+01 -0.10811E+05
 0.36700001E+01 -0.11890E+05
 0.37200003E+01 -0.13252E+05
 0.37700000E+01 -0.14384E+05
 0.38200002E+01 -0.15214E+05
 0.38699999E+01 -0.16013E+05
 0.39200001E+01 -0.16596E+05
 0.39700003E+01 -0.16569E+05
 0.40200000E+01 -0.15808E+05
 0.40700002E+01 -0.14795E+05
 0.41199999E+01 -0.14111E+05
 0.41700001E+01 -0.14120E+05
 0.42200003E+01 -0.14822E+05
 0.42700000E+01 -0.15543E+05
 0.43200002E+01 -0.15593E+05
 0.43699999E+01 -0.14920E+05
 0.44200001E+01 -0.13974E+05
 0.44700003E+01 -0.13070E+05
 0.45200000E+01 -0.12181E+05
 0.45700002E+01 -0.11195E+05
 0.46199999E+01 -0.10069E+05
 0.46700001E+01 -0.84300E+04
 0.47200003E+01 -0.59860E+04
 0.47700000E+01 -0.33970E+04
 0.48200002E+01 -0.12720E+04
 0.48699999E+01  0.51600E+03
 0.49200001E+01  0.23480E+04
 0.49700003E+01  0.43750E+04
 0.50200000E+01  0.67310E+04
 0.50700002E+01  0.98130E+04
 0.51200004E+01  0.13371E+05
 0.51700006E+01  0.16360E+05
 0.52199998E+01  0.18135E+05
 0.52700000E+01  0.18740E+05
 0.53200002E+01  0.18364E+05
 0.53700004E+01  0.17181E+05
 0.54200006E+01  0.15636E+05
 0.54699998E+01  0.14372E+05
 0.55200000E+01  0.13612E+05
 0.55700002E+01  0.13218E+05
 0.56200004E+01  0.13051E+05
 0.56700006E+01  0.12865E+05
 0.57199998E+01  0.12228E+05
 0.57700000E+01  0.11088E+05
 0.58200002E+01  0.10080E+05
 0.58700004E+01  0.97320E+04
 0.59200006E+01  0.98570E+04
 0.59699998E+01  0.98120E+04
 0.60200000E+01  0.93550E+04
 0.60700002E+01  0.84200E+04
 0.61200004E+01  0.68830E+04
 0.61700006E+01  0.47760E+04
 0.62199998E+01  0.16030E+04
 0.62700000E+01 -0.32620E+04
 0.63200002E+01 -0.96470E+04
 0.63700004E+01 -0.16699E+05
 0.64200006E+01 -0.23675E+05
 0.64699998E+01 -0.30220E+05
 0.65200000E+01 -0.35917E+05
 0.65700002E+01 -0.40167E+05
 0.66200004E+01 -0.42785E+05
 0.66700006E+01 -0.44278E+05
 0.67199998E+01 -0.45000E+05
 0.67700000E+01 -0.44856E+05
 0.68200002E+01 -0.43638E+05
 0.68700004E+01 -0.41226E+05
 0.69200006E+01 -0.37838E+05
 0.69699998E+01 -0.33664E+05
 0.70200000E+01 -0.28256E+05
 0.70700002E+01 -0.21408E+05
 0.71200004E+01 -0.13628E+05
 0.71700006E+01 -0.52450E+04
 0.72199998E+01  0.38430E+04
 0.72700000E+01  0.13393E+05
 0.73200002E+01  0.22470E+05
 0.73700004E+01  0.30282E+05
 0.74200006E+01  0.36770E+05
 0.74699998E+01  0.42464E+05
 0.75200000E+01  0.47316E+05
 0.75700002E+01  0.50915E+05
 0.76200004E+01  0.53356E+05
 0.76700006E+01  0.54835E+05
 0.77199998E+01  0.55228E+05
 0.77700000E+01  0.53711E+05
 0.78200002E+01  0.50277E+05
 0.78700004E+01  0.45886E+05
 0.79200006E+01  0.41089E+05
 0.79699998E+01  0.36106E+05
 0.80200005E+01  0.30872E+05
 0.80699997E+01  0.25309E+05
 0.81200008E+01  0.19279E+05
 0.81700001E+01  0.12862E+05
 0.82199993E+01  0.64000E+04
 0.82700005E+01 -0.85000E+02
 0.83199997E+01 -0.65430E+04
 0.83700008E+01 -0.12904E+05
 0.84200001E+01 -0.19307E+05
 0.84699993E+01 -0.25616E+05
 0.85200005E+01 -0.31272E+05
 0.85699997E+01 -0.35663E+05
 0.86200008E+01 -0.38785E+05
 0.86700001E+01 -0.41238E+05
 0.87199993E+01 -0.43537E+05
 0.87700005E+01 -0.46014E+05
 0.88199997E+01 -0.48604E+05
 0.88700008E+01 -0.50636E+05
 0.89200001E+01 -0.51340E+05
 0.89699993E+01 -0.50407E+05
 0.90200005E+01 -0.47957E+05
 0.90699997E+01 -0.44194E+05
 0.91200008E+01 -0.39289E+05
 0.91700001E+01 -0.33501E+05
 0.92199993E+01 -0.26661E+05
 0.92700005E+01 -0.18382E+05
 0.93199997E+01 -0.91190E+04
 0.93700008E+01  0.23000E+03
 0.94200001E+01  0.89760E+04
 0.94699993E+01  0.16794E+05
 0.95200005E+01  0.23636E+05
 0.95699997E+01  0.29681E+05
 0.96200008E+01  0.35327E+05
 0.96700001E+01  0.40869E+05
 0.97199993E+01  0.46325E+05
 0.97700005E+01  0.51185E+05
 0.98199997E+01  0.54517E+05
 0.98700008E+01  0.55612E+05
 0.99200001E+01  0.54728E+05
 0.99699993E+01  0.52869E+05
 0.10020000E+02  0.50708E+05
 0.10070000E+02  0.48318E+05
 0.10120001E+02  0.45718E+05
 0.10170000E+02  0.43386E+05
 0.10219999E+02  0.41615E+05
 0.10270000E+02  0.40071E+05
 0.10320000E+02  0.38704E+05
 0.10370001E+02  0.37701E+05
 0.10420000E+02  0.37211E+05
 0.10469999E+02  0.37358E+05
 0.10520000E+02  0.38179E+05
 0.10570000E+02  0.39931E+05
 0.10620001E+02  0.42636E+05
 0.10670000E+02  0.45892E+05
 0.10719999E+02  0.48925E+05
 0.10770000E+02  0.51020E+05
 0.10820000E+02  0.52079E+05
 0.10870001E+02  0.51987E+05
 0.10920000E+02  0.50406E+05
 0.10969999E+02  0.47416E+05
 0.11020000E+02  0.43792E+05
 0.11070000E+02  0.40136E+05
 0.11120001E+02  0.36868E+05
 0.11170000E+02  0.34286E+05
 0.11219999E+02  0.31804E+05
 0.11270000E+02  0.28474E+05
 0.11320000E+02  0.24143E+05
 0.11370001E+02  0.19498E+05
 0.11420000E+02  0.14843E+05
 0.11469999E+02  0.10036E+05
 0.11520000E+02  0.51410E+04
 0.11570000E+02  0.33500E+03
 0.11620001E+02 -0.45900E+04
 0.11670000E+02 -0.96120E+04
 0.11719999E+02 -0.13924E+05
 0.11770000E+02 -0.17300E+05
 0.11820000E+02 -0.20145E+05
 0.11870001E+02 -0.22420E+05
 0.11920000E+02 -0.23990E+05
 0.11969999E+02 -0.25352E+05
 0.12020000E+02 -0.27025E+05
 0.12070000E+02 -0.28673E+05
 0.12120001E+02 -0.29281E+05
 0.12170000E+02 -0.28390E+05
 0.12219999E+02 -0.26725E+05
 0.12270000E+02 -0.24995E+05
 0.12320000E+02 -0.23536E+05
 0.12370001E+02 -0.22877E+05
 0.12420000E+02 -0.23520E+05
 0.12469999E+02 -0.25446E+05
 0.12520000E+02 -0.28050E+05
 0.12570000E+02 -0.30854E+05
 0.12620001E+02 -0.33872E+05
 0.12670000E+02 -0.36950E+05
 0.12719999E+02 -0.39582E+05
 0.12770000E+02 -0.41688E+05
 0.12820000E+02 -0.43761E+05
 0.12870001E+02 -0.46008E+05
 0.12920000E+02 -0.48293E+05
 0.12969999E+02 -0.50663E+05
 0.13020000E+02 -0.53026E+05
 0.13070002E+02 -0.54903E+05
 0.13120001E+02 -0.55838E+05
 0.13170000E+02 -0.55802E+05
 0.13220001E+02 -0.54804E+05
 0.13270000E+02 -0.52588E+05
 0.13320002E+02 -0.49326E+05
 0.13370001E+02 -0.45346E+05
 0.13420000E+02 -0.40908E+05
 0.13470001E+02 -0.36725E+05
 0.13520000E+02 -0.33430E+05
 0.13570002E+02 -0.30957E+05
 0.13620001E+02 -0.28890E+05
 0.13670000E+02 -0.27104E+05
 0.13720001E+02 -0.25561E+05
 0.13770000E+02 -0.24144E+05
 0.13820002E+02 -0.22725E+05
 0.13870001E+02 -0.21243E+05
 0.13920000E+02 -0.19842E+05
 0.13970001E+02 -0.18359E+05
 0.14020000E+02 -0.16562E+05
 0.14070002E+02 -0.14729E+05
 0.14120001E+02 -0.13375E+05
 0.14170000E+02 -0.12757E+05
 0.14220001E+02 -0.12707E+05
 0.14270000E+02 -0.12927E+05
 0.14320002E+02 -0.13362E+05
 0.14370001E+02 -0.13843E+05
 0.14420000E+02 -0.13994E+05
 0.14470001E+02 -0.13903E+05
 0.14520000E+02 -0.14121E+05
 0.14570002E+02 -0.14819E+05
 0.14620001E+02 -0.15572E+05
 0.14670000E+02 -0.16190E+05
 0.14720001E+02 -0.16784E+05
 0.14770000E+02 -0.17391E+05
 0.14820002E+02 -0.17792E+05
 0.14870001E+02 -0.17533E+05
 0.14920000E+02 -0.16276E+05
 0.14970001E+02 -0.14300E+05
 0.15020000E+02 -0.12481E+05
 0.15070002E+02 -0.11164E+05
 0.15120001E+02 -0.10159E+05
 0.15170000E+02 -0.97000E+04
 0.15220001E+02 -0.10338E+05
 0.15270000E+02 -0.12114E+05
 0.15320002E+02 -0.14262E+05
 0.15370001E+02 -0.15957E+05
 0.15420000E+02 -0.16969E+05
 0.15470001E+02 -0.17184E+05
 0.15520000E+02 -0.16631E+05
 0.15570002E+02 -0.15639E+05
 0.15620001E+02 -0.14349E+05
 0.15670000E+02 -0.12995E+05
 0.15720001E+02 -0.11852E+05
 0.15770000E+02 -0.11102E+05
 0.15820002E+02 -0.10726E+05
 0.15870001E+02 -0.10413E+05
 0.15920000E+02 -0.97090E+04
 0.15970001E+02 -0.80730E+04
 0.16020000E+02 -0.55460E+04
 0.16070002E+02 -0.25850E+04
 0.16120001E+02  0.49900E+03
 0.16170000E+02  0.36400E+04
 0.16220001E+02  0.69180E+04
 0.16270000E+02  0.10317E+05
 0.16320002E+02  0.13472E+05
 0.16370001E+02  0.15922E+05
 0.16420000E+02  0.17799E+05
 0.16470001E+02  0.19697E+05
 0.16520000E+02  0.22104E+05
 0.16570002E+02  0.24858E+05
 0.16620001E+02  0.27563E+05
 0.16670000E+02  0.30037E+05
 0.16720001E+02  0.32037E+05
 0.16770000E+02  0.33496E+05
 0.16820002E+02  0.34291E+05
 0.16870001E+02  0.34263E+05
 0.16920000E+02  0.33621E+05
 0.16970001E+02  0.32973E+05
 0.17020000E+02  0.32673E+05
 0.17070002E+02  0.32389E+05
 0.17120001E+02  0.31920E+05
 0.17170000E+02  0.31373E+05
 0.17220001E+02  0.30861E+05
 0.17270000E+02  0.30392E+05
 0.17320002E+02  0.30024E+05
 0.17370001E+02  0.29805E+05
 0.17420000E+02  0.29463E+05
 0.17470001E+02  0.29269E+05
 0.17520000E+02  0.30605E+05
 0.17570002E+02  0.35488E+05
 0.17620001E+02  0.45122E+05
 0.17670000E+02  0.58681E+05
 0.17720001E+02  0.74361E+05
 0.17770000E+02  0.86711E+05
 0.17820002E+02  0.87846E+05
 0.17870001E+02  0.76200E+05
 0.17920000E+02  0.57333E+05
 0.17970001E+02  0.41259E+05
 0.18020000E+02  0.40814E+05
 0.18070002E+02  0.58699E+05
 0.18120001E+02  0.79962E+05
 0.18170000E+02  0.91921E+05
 0.18220001E+02  0.94860E+05
 0.18270000E+02  0.94022E+05
 0.18320002E+02  0.91369E+05
 0.18370001E+02  0.89893E+05
 0.18420000E+02  0.97581E+05
 0.18470001E+02  0.11171E+06
 0.18520000E+02  0.13889E+06
 0.18570002E+02  0.19030E+06
 0.18620001E+02  0.25185E+06
 0.18670000E+02  0.28476E+06
 0.18720001E+02  0.28162E+06
 0.18770000E+02  0.28924E+06
 0.18820002E+02  0.29938E+06
 0.18870001E+02  0.27441E+06
 0.18920000E+02  0.19717E+06
 0.18970001E+02  0.87831E+05
 0.19020000E+02 -0.19964E+05
 0.19070002E+02 -0.11676E+06
 0.19120001E+02 -0.15805E+06
 0.19170000E+02 -0.20021E+06
 0.19220001E+02 -0.35119E+06
 0.19270000E+02 -0.59982E+06
 0.19320002E+02 -0.83890E+06
 0.19370001E+02 -0.95554E+06
 0.19420000E+02 -0.89454E+06
 0.19470001E+02 -0.69469E+06
 0.19520000E+02 -0.56546E+06
 0.19570002E+02 -0.60893E+06
 0.19620001E+02 -0.68754E+06
 0.19670000E+02 -0.59204E+06
 0.19720001E+02 -0.28105E+06
 0.19770000E+02  0.45899E+05
 0.19820002E+02  0.26463E+06
 0.19870001E+02  0.31142E+06
 0.19920000E+02  0.23115E+06
 0.19970001E+02  0.28217E+06
 0.20020000E+02  0.57206E+06
 0.20070002E+02  0.74780E+06
 0.20120001E+02  0.62008E+06
 0.20170000E+02  0.38901E+06
 0.20220001E+02  0.19767E+06
 0.20270000E+02  0.14181E+06
 0.20320002E+02  0.95636E+05
 0.20370001E+02  0.95244E+05
 0.20420000E+02  0.14217E+06
 0.20470001E+02 -0.51243E+05
 0.20520000E+02 -0.26991E+06
 0.20570002E+02 -0.22402E+06
 0.20620001E+02 -0.13691E+06
 0.20670000E+02 -0.13484E+06
 0.20720001E+02 -0.22858E+06
 0.20770000E+02 -0.43644E+06
 0.20820002E+02 -0.57200E+06
 0.20870001E+02 -0.75399E+06
 0.20920000E+02 -0.89459E+06
 0.20970001E+02 -0.81015E+06
 0.21020000E+02 -0.90667E+06
 0.21070002E+02 -0.10768E+07
 0.21120001E+02 -0.92427E+06
 0.21170000E+02 -0.55905E+06
 0.21220001E+02 -0.28422E+06
 0.21270000E+02 -0.23381E+06
 0.21320002E+02 -0.68023E+05
 0.21370001E+02  0.22160E+06
 0.21420000E+02  0.19474E+06
 0.21470001E+02  0.10741E+06
 0.21520000E+02  0.20221E+06
 0.21570002E+02  0.16695E+06
 0.21620001E+02  0.13691E+05
 0.21670000E+02  0.29669E+05
 0.21720001E+02  0.13873E+06
 0.21770000E+02 -0.10502E+06
 0.21820002E+02 -0.49954E+06
 0.21870001E+02 -0.47814E+06
 0.21920000E+02 -0.23517E+06
 0.21970001E+02 -0.32918E+06
 0.22020000E+02 -0.67306E+06
 0.22070002E+02 -0.80765E+06
 0.22120001E+02 -0.73242E+06
 0.22170000E+02 -0.47464E+06
 0.22220001E+02 -0.12196E+06
 0.22270000E+02  0.18790E+06
 0.22320002E+02  0.28723E+06
 0.22370001E+02 -0.30773E+05
 0.22420000E+02 -0.28940E+06
 0.22470001E+02 -0.25950E+06
 0.22520000E+02 -0.21914E+06
 0.22570002E+02 -0.21658E+06
 0.22620001E+02 -0.54443E+06
 0.22670000E+02 -0.95274E+06
 0.22720001E+02 -0.10217E+07
 0.22770000E+02 -0.85761E+06
 0.22820002E+02 -0.48440E+06
 0.22870001E+02 -0.94869E+05
 0.22920000E+02  0.20405E+06
 0.22970001E+02  0.20066E+06
 0.23020000E+02 -0.43403E+05
 0.23070002E+02 -0.35553E+06
 0.23120001E+02 -0.77249E+06
 0.23170000E+02 -0.11152E+07
 0.23220001E+02 -0.12892E+07
 0.23270000E+02 -0.10840E+07
 0.23320002E+02 -0.72724E+06
 0.23370001E+02 -0.52709E+06
 0.23420000E+02 -0.41933E+06
 0.23470001E+02 -0.42728E+06
 0.23520000E+02 -0.43014E+06
 0.23570002E+02 -0.52133E+06
 0.23620001E+02 -0.64309E+06
 0.23670000E+02 -0.56049E+06
 0.23720001E+02 -0.19366E+06
 0.23770000E+02  0.25488E+06
 0.23820002E+02  0.28260E+06
 0.23870001E+02  0.94523E+05
 0.23920000E+02  0.95162E+05
 0.23970001E+02  0.10232E+06
 0.24020000E+02 -0.25857E+06
 0.24070002E+02 -0.55461E+06
 0.24120001E+02 -0.36516E+06
 0.24170000E+02 -0.15944E+06
 0.24220001E+02 -0.25162E+06
 0.24270000E+02 -0.56042E+06
 0.24320002E+02 -0.51462E+06
 0.24370001E+02  0.76490E+04
 0.24420000E+02  0.13543E+06
 0.24470001E+02 -0.15087E+06
 0.24520000E+02  0.16249E+05
 0.24570002E+02  0.47281E+06
 0.24620001E+02  0.54990E+06
 0.24670000E+02  0.19937E+06
 0.24720001E+02 -0.19827E+06
 0.24770000E+02 -0.56057E+06
 0.24820002E+02 -0.84375E+06
 0.24870001E+02 -0.10253E+07
 0.24920000E+02 -0.94713E+06
 0.24970001E+02 -0.49070E+06
 0.25020000E+02 -0.48547E+06
 0.25070002E+02 -0.55016E+06
 0.25120001E+02 -0.15452E+06
 0.25170000E+02 -0.52417E+05
 0.25220001E+02 -0.28554E+06
 0.25270000E+02 -0.39490E+06
 0.25320002E+02 -0.17509E+06
 0.25370001E+02  0.60299E+05
 0.25420000E+02  0.74266E+05
 0.25470001E+02  0.15318E+06
 0.25520000E+02  0.37334E+06
 0.25570002E+02  0.55477E+06
 0.25620001E+02  0.70480E+06
 0.25670000E+02  0.76104E+06
 0.25720001E+02  0.55337E+06
 0.25770000E+02  0.13642E+06
 0.25820002E+02 -0.43589E+05
 0.25870001E+02  0.21342E+06
 0.25920000E+02  0.66707E+06
 0.25970001E+02  0.10469E+07
 0.26020000E+02  0.97902E+06
 0.26070002E+02  0.66992E+06
 0.26120001E+02  0.30604E+06
 0.26170000E+02  0.46443E+05
 0.26220001E+02  0.37712E+05
 0.26270000E+02 -0.18903E+06
 0.26320002E+02 -0.49528E+06
 0.26370001E+02 -0.56880E+06
 0.26420000E+02 -0.40056E+06
 0.26470001E+02 -0.17161E+06
 0.26520000E+02  0.54377E+05
 0.26570002E+02  0.42253E+06
 0.26620001E+02  0.71266E+06
 0.26670000E+02  0.93832E+06
 0.26720001E+02  0.11150E+07
 0.26770000E+02  0.12742E+07
 0.26820002E+02  0.13968E+07
 0.26870001E+02  0.12399E+07
 0.26920000E+02  0.10893E+07
 0.26970001E+02  0.12034E+07
 0.27020000E+02  0.11645E+07
 0.27070002E+02  0.87479E+06
 0.27120001E+02  0.61460E+06
 0.27170000E+02  0.43309E+06
 0.27220001E+02  0.47759E+06
 0.27270000E+02  0.57569E+06
 0.27320002E+02  0.81026E+06
 0.27370001E+02  0.12694E+07
 0.27420000E+02  0.16043E+07
 0.27470001E+02  0.18770E+07
 0.27520000E+02  0.20054E+07
 0.27570002E+02  0.18698E+07
 0.27620001E+02  0.16509E+07
 0.27670000E+02  0.14829E+07
 0.27720001E+02  0.13855E+07
 0.27770000E+02  0.12197E+07
 0.27820002E+02  0.10494E+07
 0.27870001E+02  0.10442E+07
 0.27920000E+02  0.81174E+06
 0.27970001E+02  0.39517E+06
 0.28020000E+02  0.23322E+06
 0.28070002E+02  0.23964E+06
 0.28120001E+02  0.15789E+06
 0.28170000E+02 -0.30138E+05
 0.28220001E+02 -0.84856E+05
 0.28270000E+02 -0.93000E+03
 0.28320002E+02  0.69407E+05
 0.28370001E+02 -0.37155E+05
 0.28420000E+02 -0.60847E+05
 0.28470001E+02  0.24954E+06
 0.28520000E+02  0.73270E+06
 0.28570002E+02  0.11455E+07
 0.28620001E+02  0.12724E+07
 0.28670000E+02  0.10795E+07
 0.28720001E+02  0.81606E+06
 0.28770000E+02  0.83375E+06
 0.28820002E+02  0.86271E+06
 0.28870001E+02  0.76234E+06
 0.28920000E+02  0.64168E+06
 0.28970001E+02  0.40690E+06
 0.29020000E+02  0.24216E+06
 0.29070000E+02  0.36589E+06
 0.29120003E+02  0.66982E+06
 0.29170002E+02  0.72670E+06
 0.29220001E+02  0.33147E+06
 0.29270000E+02 -0.24261E+06
 0.29320000E+02 -0.59202E+06
 0.29370003E+02 -0.59113E+06
 0.29420002E+02 -0.46488E+06
 0.29470001E+02 -0.25936E+06
 0.29520000E+02 -0.19226E+06
 0.29570000E+02 -0.20034E+06
 0.29620003E+02  0.18689E+06
 0.29670002E+02  0.70091E+06
 0.29720001E+02  0.10723E+07
 0.29770000E+02  0.12968E+07
 0.29820000E+02  0.14792E+07
 0.29870003E+02  0.14181E+07
 0.29920002E+02  0.86552E+06
 0.29970001E+02  0.25588E+06
 0.30020000E+02 -0.60716E+06
 0.30070000E+02 -0.18834E+07
 0.30120003E+02 -0.28680E+07
 0.30170002E+02 -0.32626E+07
 0.30220001E+02 -0.31705E+07
 0.30270000E+02 -0.30259E+07
 0.30320000E+02 -0.27851E+07
 0.30370003E+02 -0.19144E+07
 0.30420002E+02 -0.89535E+06
 0.30470001E+02  0.59496E+05
 0.30520000E+02  0.84825E+06
 0.30570000E+02  0.13346E+07
 0.30620003E+02  0.21259E+07
 0.30670002E+02  0.26454E+07
 0.30720001E+02  0.22994E+07
 0.30770000E+02  0.15563E+07
 0.30820000E+02  0.56944E+06
 0.30870003E+02 -0.25542E+06
 0.30920002E+02 -0.68965E+06
 0.30970001E+02 -0.10457E+07
 0.31020000E+02 -0.14817E+07
 0.31070000E+02 -0.18514E+07
 0.31120003E+02 -0.17406E+07
 0.31170002E+02 -0.12809E+07
 0.31220001E+02 -0.23425E+06
 0.31270000E+02  0.11460E+07
 0.31320000E+02  0.16980E+07
 0.31370003E+02  0.15533E+07
 0.31420002E+02  0.59738E+06
 0.31470001E+02 -0.33910E+06
 0.31520000E+02 -0.34680E+06
 0.31570000E+02 -0.43966E+06
 0.31620003E+02 -0.53177E+06
 0.31670002E+02 -0.60063E+06
 0.31720001E+02 -0.78236E+06
 0.31770000E+02 -0.93891E+06
 0.31820000E+02 -0.13649E+07
 0.31870003E+02 -0.18418E+07
 0.31920002E+02 -0.19514E+07
 0.31970001E+02 -0.15148E+07
 0.32020000E+02 -0.83587E+06
 0.32070000E+02 -0.50324E+06
 0.32120003E+02 -0.72174E+06
 0.32170002E+02 -0.57096E+06
 0.32220001E+02 -0.13033E+05
 0.32270000E+02  0.16430E+05
 0.32320000E+02 -0.72471E+06
 0.32370003E+02 -0.14879E+07
 0.32420002E+02 -0.13073E+07
 0.32470001E+02 -0.78614E+06
 0.32520000E+02 -0.34483E+06
 0.32570000E+02 -0.85618E+05
 0.32620003E+02 -0.74081E+05
 0.32670002E+02 -0.32664E+06
 0.32720001E+02 -0.73907E+06
 0.32770000E+02 -0.39954E+06
 0.32820000E+02  0.26359E+06
 0.32870003E+02  0.24086E+06
 0.32920002E+02 -0.22930E+06
 0.32970001E+02 -0.13639E+06
 0.33020000E+02  0.82444E+06
 0.33070000E+02  0.13411E+07
 0.33120003E+02  0.53648E+06
 0.33170002E+02 -0.25409E+06
 0.33220001E+02 -0.13409E+05
 0.33270000E+02  0.79736E+06
 0.33320000E+02  0.12905E+07
 0.33370003E+02  0.11218E+07
 0.33420002E+02  0.13470E+07
 0.33470001E+02  0.14940E+07
 0.33520000E+02  0.60798E+06
 0.33570000E+02  0.21094E+06
 0.33620003E+02  0.11260E+07
 0.33670002E+02  0.21000E+07
 0.33720001E+02  0.23131E+07
 0.33770000E+02  0.22420E+07
 0.33820000E+02  0.24483E+07
 0.33870003E+02  0.18968E+07
 0.33920002E+02  0.14294E+06
 0.33970001E+02 -0.85578E+06
 0.34020000E+02 -0.97153E+06
 0.34070000E+02 -0.14408E+07
 0.34120003E+02 -0.20338E+07
 0.34170002E+02 -0.21800E+07
 0.34220001E+02 -0.19196E+07
 0.34270000E+02 -0.12280E+07
 0.34320000E+02  0.37180E+04
 0.34370003E+02  0.63876E+06
 0.34420002E+02  0.37947E+06
 0.34470001E+02 -0.41792E+05
 0.34520000E+02 -0.34975E+06
 0.34570000E+02 -0.78800E+06
 0.34620003E+02 -0.16438E+07
 0.34670002E+02 -0.20054E+07
 0.34720001E+02 -0.12982E+07
 0.34770000E+02 -0.67087E+06
 0.34820000E+02 -0.82879E+06
 0.34870003E+02 -0.61924E+06
 0.34920002E+02 -0.43398E+06
 0.34970001E+02 -0.73911E+06
 0.35020000E+02 -0.74316E+06
 0.35070000E+02 -0.93028E+06
 0.35120003E+02 -0.13852E+07
 0.35170002E+02 -0.20124E+07
 0.35220001E+02 -0.22541E+07
 0.35270000E+02 -0.13377E+07
 0.35320000E+02  0.13342E+06
 0.35370003E+02  0.10127E+07
 0.35420002E+02  0.12737E+07
 0.35470001E+02  0.16469E+07
 0.35520000E+02  0.22601E+07
 0.35570000E+02  0.29534E+07
 0.35620003E+02  0.30321E+07
 0.35670002E+02  0.23702E+07
 0.35720001E+02  0.13814E+07
 0.35770000E+02  0.45704E+06
 0.35820000E+02  0.15520E+06
 0.35870003E+02  0.41126E+06
 0.35920002E+02  0.73018E+06
 0.35970001E+02  0.71525E+06
 0.36020000E+02  0.57184E+06
 0.36070000E+02  0.47711E+06
 0.36120003E+02  0.51848E+06
 0.36170002E+02  0.12674E+07
 0.36220001E+02  0.24615E+07
 0.36270000E+02  0.28248E+07
 0.36320000E+02  0.23813E+07
 0.36370003E+02  0.22154E+07
 0.36420002E+02  0.25224E+07
 0.36470001E+02  0.27827E+07
 0.36520000E+02  0.27065E+07
 0.36570000E+02  0.25834E+07
 0.36620003E+02  0.23303E+07
 0.36670002E+02  0.13952E+07
 0.36720001E+02  0.63552E+05
 0.36770000E+02 -0.48522E+06
 0.36820000E+02 -0.23104E+06
 0.36870003E+02 -0.25671E+06
 0.36920002E+02 -0.49114E+06
 0.36970001E+02 -0.37178E+06
 0.37020000E+02  0.15054E+06
 0.37070000E+02  0.85132E+06
 0.37120003E+02  0.11911E+07
 0.37170002E+02  0.89051E+06
 0.37220001E+02  0.40554E+06
 0.37270000E+02  0.37489E+06
 0.37320000E+02  0.87827E+06
 0.37370003E+02  0.13296E+07
 0.37420002E+02  0.12623E+07
 0.37470001E+02  0.77604E+06
 0.37520000E+02 -0.26375E+05
 0.37570000E+02 -0.81203E+06
 0.37620003E+02 -0.12090E+07
 0.37670002E+02 -0.13014E+07
 0.37720001E+02 -0.88773E+06
 0.37770000E+02 -0.14619E+06
 0.37820000E+02  0.15000E+06
 0.37870003E+02 -0.64972E+05
 0.37920002E+02 -0.49592E+06
 0.37970001E+02 -0.97910E+06
 0.38020000E+02 -0.14345E+07
 0.38070000E+02 -0.19011E+07
 0.38120003E+02 -0.21609E+07
 0.38170002E+02 -0.20939E+07
 0.38220001E+02 -0.19519E+07
 0.38270000E+02 -0.17041E+07
 0.38320000E+02 -0.10256E+07
 0.38370003E+02 -0.69250E+05
 0.38420002E+02  0.50877E+06
 0.38470001E+02  0.71682E+06
 0.38520000E+02  0.10276E+07
 0.38570000E+02  0.14201E+07
 0.38620003E+02  0.17889E+07
 0.38670002E+02  0.19716E+07
 0.38720001E+02  0.18214E+07
 0.38770000E+02  0.14586E+07
 0.38820000E+02  0.13379E+07
 0.38870003E+02  0.18115E+07
 0.38920002E+02  0.22792E+07
 0.38970001E+02  0.22457E+07
 0.39020000E+02  0.21362E+07
 0.39070000E+02  0.20701E+07
 0.39120003E+02  0.16911E+07
 0.39170002E+02  0.10786E+07
 0.39220001E+02  0.46340E+06
 0.39270000E+02 -0.12448E+06
 0.39320000E+02 -0.57180E+06
 0.39370003E+02 -0.90668E+06
 0.39420002E+02 -0.12255E+07
 0.39470001E+02 -0.13518E+07
 0.39520000E+02 -0.14122E+07
 0.39570000E+02 -0.14634E+07
 0.39620003E+02 -0.13104E+07
 0.39670002E+02 -0.11178E+07
 0.39720001E+02 -0.10287E+07
 0.39770000E+02 -0.10599E+07
 0.39820000E+02 -0.11061E+07
 0.39870003E+02 -0.11555E+07
 0.39920002E+02 -0.10620E+07
 0.39970001E+02 -0.68713E+06
 0.40020000E+02 -0.36205E+06
 0.40070000E+02 -0.50811E+06
 0.40120003E+02 -0.12617E+07
 0.40170002E+02 -0.19771E+07
 0.40220001E+02 -0.21503E+07
 0.40270000E+02 -0.18812E+07
 0.40320000E+02 -0.14021E+07
 0.40370003E+02 -0.11148E+07
 0.40420002E+02 -0.10563E+07
 0.40470001E+02 -0.96095E+06
 0.40520000E+02 -0.84056E+06
 0.40570000E+02 -0.86699E+06
 0.40620003E+02 -0.10033E+07
 0.40670002E+02 -0.10063E+07
 0.40720001E+02 -0.85504E+06
 0.40770000E+02 -0.87352E+06
 0.40820000E+02 -0.88959E+06
 0.40870003E+02 -0.57160E+06
 0.40920002E+02 -0.19078E+06
 0.40970001E+02  0.15258E+05
 0.41020000E+02  0.11932E+06
 0.41070000E+02  0.33774E+06
 0.41120003E+02  0.44803E+06
 0.41170002E+02  0.67979E+05
 0.41220001E+02 -0.46941E+06
 0.41270000E+02 -0.87318E+06
 0.41320000E+02 -0.10214E+07
 0.41370003E+02 -0.81032E+06
 0.41420002E+02 -0.71818E+06
 0.41470001E+02 -0.99266E+06
 0.41520000E+02 -0.14647E+07
 0.41570000E+02 -0.17873E+07
 0.41620003E+02 -0.15929E+07
 0.41670002E+02 -0.11715E+07
 0.41720001E+02 -0.78067E+06
 0.41770000E+02 -0.48576E+06
 0.41820000E+02 -0.40625E+06
 0.41870003E+02 -0.55500E+06
 0.41920002E+02 -0.92561E+06
 0.41970001E+02 -0.13409E+07
 0.42020000E+02 -0.16030E+07
 0.42070000E+02 -0.17785E+07
 0.42120003E+02 -0.20741E+07
 0.42170002E+02 -0.23188E+07
 0.42220001E+02 -0.22879E+07
 0.42270000E+02 -0.20182E+07
 0.42320000E+02 -0.16720E+07
 0.42370003E+02 -0.14598E+07
 0.42420002E+02 -0.14985E+07
 0.42470001E+02 -0.17454E+07
 0.42520000E+02 -0.18076E+07
 0.42570000E+02 -0.13656E+07
 0.42620003E+02 -0.55369E+06
 0.42670002E+02  0.13820E+06
 0.42720001E+02  0.32370E+06
 0.42770000E+02 -0.64902E+05
 0.42820000E+02 -0.75142E+06
 0.42870003E+02 -0.12182E+07
 0.42920002E+02 -0.13111E+07
 0.42970001E+02 -0.13749E+07
 0.43020000E+02 -0.17926E+07
 0.43070000E+02 -0.22862E+07
 0.43120003E+02 -0.22836E+07
 0.43170002E+02 -0.18695E+07
 0.43220001E+02 -0.16071E+07
 0.43270000E+02 -0.16229E+07
 0.43320000E+02 -0.14958E+07
 0.43370003E+02 -0.12173E+07
 0.43420002E+02 -0.10517E+07
 0.43470001E+02 -0.64317E+06
 0.43520000E+02  0.19142E+06
 0.43570000E+02  0.79168E+06
 0.43620003E+02  0.86742E+06
 0.43670002E+02  0.80064E+06
 0.43720001E+02  0.69424E+06
 0.43770000E+02  0.43784E+06
 0.43820000E+02  0.20882E+06
 0.43870003E+02  0.33365E+06
 0.43920002E+02  0.66850E+06
 0.43970001E+02  0.90164E+06
 0.44020000E+02  0.13213E+07
 0.44070000E+02  0.19784E+07
 0.44120003E+02  0.24754E+07
 0.44170002E+02  0.27477E+07
 0.44220001E+02  0.29258E+07
 0.44270000E+02  0.30339E+07
 0.44320000E+02  0.30381E+07
 0.44370003E+02  0.30061E+07
 0.44420002E+02  0.29725E+07
 0.44470001E+02  0.28525E+07
 0.44520000E+02  0.26035E+07
 0.44570000E+02  0.22752E+07
 0.44620003E+02  0.18368E+07
 0.44670002E+02  0.12099E+07
 0.44720001E+02  0.60816E+06
 0.44770000E+02  0.29640E+06
 0.44820000E+02  0.11037E+06
 0.44870003E+02 -0.20937E+06
 0.44920002E+02 -0.68280E+06
 0.44970001E+02 -0.10178E+07
 0.45020000E+02 -0.93222E+06
 0.45070000E+02 -0.54152E+06
 0.45120003E+02 -0.52408E+05
 0.45170002E+02  0.39923E+06
 0.45220001E+02  0.87771E+06
 0.45270000E+02  0.14212E+07
 0.45320000E+02  0.19131E+07
 0.45370003E+02  0.22222E+07
 0.45420002E+02  0.21846E+07
 0.45470001E+02  0.19593E+07
 0.45520000E+02  0.17922E+07
 0.45570000E+02  0.16638E+07
 0.45620003E+02  0.15227E+07
 0.45670002E+02  0.14250E+07
 0.45720001E+02  0.14299E+07
 0.45770000E+02  0.14090E+07
 0.45820000E+02  0.12020E+07
 0.45870003E+02  0.93349E+06
 0.45920002E+02  0.76715E+06
 0.45970001E+02  0.59597E+06
 0.46020000E+02  0.39804E+06
 0.46070000E+02  0.31839E+06
 0.46120003E+02  0.35072E+06
 0.46170002E+02  0.29631E+06
 0.46220001E+02 -0.27169E+05
 0.46270000E+02 -0.44420E+06
 0.46320000E+02 -0.69316E+06
 0.46370003E+02 -0.74213E+06
 0.46420002E+02 -0.72186E+06
 0.46470001E+02 -0.85820E+06
 0.46520000E+02 -0.10205E+07
 0.46570000E+02 -0.10280E+07
 0.46620003E+02 -0.88655E+06
 0.46670002E+02 -0.65834E+06
 0.46720001E+02 -0.54461E+06
 0.46770000E+02 -0.40942E+06
 0.46820000E+02 -0.26021E+06
 0.46870003E+02 -0.32880E+06
 0.46920002E+02 -0.49077E+06
 0.46970001E+02 -0.52898E+06
 0.47020000E+02 -0.34072E+06
 0.47070000E+02 -0.16849E+06
 0.47120003E+02 -0.21565E+06
 0.47170002E+02 -0.29070E+06
 0.47220001E+02 -0.15316E+06
 0.47270000E+02  0.21050E+06
 0.47320000E+02  0.66696E+06
 0.47370003E+02  0.11087E+07
 0.47420002E+02  0.13848E+07
 0.47470001E+02  0.14489E+07
 0.47520000E+02  0.14060E+07
 0.47570000E+02  0.14130E+07
 0.47620003E+02  0.13896E+07
 0.47670002E+02  0.11837E+07
 0.47720001E+02  0.93124E+06
 0.47770000E+02  0.71938E+06
 0.47820000E+02  0.71045E+06
 0.47870003E+02  0.88619E+06
 0.47920002E+02  0.95112E+06
 0.47970001E+02  0.91739E+06
 0.48020000E+02  0.86404E+06
 0.48070000E+02  0.81029E+06
 0.48120003E+02  0.74858E+06
 0.48170002E+02  0.60888E+06
 0.48220001E+02  0.31907E+06
 0.48270000E+02 -0.18025E+06
 0.48320000E+02 -0.68478E+06
 0.48370003E+02 -0.90200E+06
 0.48420002E+02 -0.83897E+06
 0.48470001E+02 -0.65942E+06
 0.48520000E+02 -0.47796E+06
 0.48570000E+02 -0.33616E+06
 0.48620003E+02 -0.24940E+06
 0.48670002E+02 -0.29475E+06
 0.48720001E+02 -0.40365E+06
 0.48770000E+02 -0.47132E+06
 0.48820000E+02 -0.57311E+06
 0.48870003E+02 -0.72616E+06
 0.48920002E+02 -0.95086E+06
 0.48970001E+02 -0.11606E+07
 0.49020000E+02 -0.12243E+07
 0.49070000E+02 -0.12163E+07
 0.49120003E+02 -0.11661E+07
 0.49170002E+02 -0.10805E+07
 0.49220001E+02 -0.10061E+07
 0.49270000E+02 -0.93937E+06
 0.49320000E+02 -0.92238E+06
 0.49370003E+02 -0.94137E+06
 0.49420002E+02 -0.77082E+06
 0.49470001E+02 -0.37929E+06
 0.49520000E+02  0.18214E+05
 0.49570000E+02  0.29521E+06
 0.49620003E+02  0.47169E+06
 0.49670002E+02  0.72243E+06
 0.49720001E+02  0.98427E+06
 0.49770000E+02  0.10042E+07
 0.49820000E+02  0.80779E+06
 0.49870003E+02  0.52773E+06
 0.49920002E+02  0.24022E+06
 0.49970001E+02  0.20939E+05
 0.50020000E+02 -0.40511E+05
 0.50070000E+02  0.58633E+05
 0.50120003E+02  0.15170E+06
 0.50170002E+02  0.13486E+06
 0.50220001E+02 -0.33874E+05
 0.50270000E+02 -0.31753E+06
 0.50320000E+02 -0.52386E+06
 0.50370003E+02 -0.44141E+06
 0.50420002E+02 -0.32889E+05
 0.50470001E+02  0.37174E+06
 0.50520000E+02  0.52596E+06
 0.50570000E+02  0.46892E+06
 0.50620003E+02  0.30284E+06
 0.50670002E+02  0.18726E+06
 0.50720001E+02  0.11126E+06
 0.50770000E+02 -0.80824E+05
 0.50820000E+02 -0.34801E+06
 0.50870003E+02 -0.59168E+06
 0.50920002E+02 -0.95468E+06
 0.50970001E+02 -0.13233E+07
 0.51020000E+02 -0.14381E+07
 0.51070000E+02 -0.13208E+07
 0.51120003E+02 -0.10548E+07
 0.51170002E+02 -0.83332E+06
 0.51220001E+02 -0.72123E+06
 0.51270000E+02 -0.70971E+06
 0.51320000E+02 -0.74674E+06
 0.51370003E+02 -0.78569E+06
 0.51420002E+02 -0.89124E+06
 0.51470001E+02 -0.10323E+07
 0.51520000E+02 -0.11480E+07
 0.51570000E+02 -0.11407E+07
 0.51620003E+02 -0.10463E+07
 0.51670002E+02 -0.93853E+06
 0.51720001E+02 -0.81241E+06
 0.51770000E+02 -0.69343E+06
 0.51820000E+02 -0.69056E+06
 0.51870003E+02 -0.82301E+06
 0.51920002E+02 -0.99232E+06
 0.51970001E+02 -0.11009E+07
 0.52020000E+02 -0.10501E+07
 0.52070000E+02 -0.10047E+07
 0.52120003E+02 -0.10379E+07
 0.52170002E+02 -0.10322E+07
 0.52220001E+02 -0.96137E+06
 0.52270000E+02 -0.76687E+06
 0.52320000E+02 -0.47585E+06
 0.52370003E+02 -0.13902E+06
 0.52420002E+02  0.20473E+06
 0.52470001E+02  0.51080E+06
 0.52520000E+02  0.79577E+06
 0.52570000E+02  0.10898E+07
 0.52620003E+02  0.14194E+07
 0.52670002E+02  0.17117E+07
 0.52720001E+02  0.19336E+07
 0.52770000E+02  0.21310E+07
 0.52820000E+02  0.23222E+07
 0.52870003E+02  0.23995E+07
 0.52920002E+02  0.22841E+07
 0.52970001E+02  0.21155E+07
 0.53020000E+02  0.19427E+07
 0.53070000E+02  0.17230E+07
 0.53120003E+02  0.14252E+07
 0.53170002E+02  0.10992E+07
 0.53220001E+02  0.83464E+06
 0.53270000E+02  0.63787E+06
 0.53320000E+02  0.57116E+06
 0.53370003E+02  0.63540E+06
 0.53420002E+02  0.69460E+06
 0.53470001E+02  0.67275E+06
 0.53520000E+02  0.61536E+06
 0.53570000E+02  0.58809E+06
 0.53620003E+02  0.68251E+06
 0.53670002E+02  0.86115E+06
 0.53720001E+02  0.94317E+06
 0.53770000E+02  0.94482E+06
 0.53820000E+02  0.96952E+06
 0.53870003E+02  0.10911E+07
 0.53920002E+02  0.12612E+07
 0.53970001E+02  0.13479E+07
 0.54020000E+02  0.13556E+07
 0.54070000E+02  0.11900E+07
 0.54120003E+02  0.80701E+06
 0.54170002E+02  0.34873E+06
 0.54220001E+02 -0.15249E+06
 0.54270000E+02 -0.68174E+06
 0.54320000E+02 -0.11545E+07
 0.54370003E+02 -0.15393E+07
 0.54420002E+02 -0.18381E+07
 0.54470001E+02 -0.20547E+07
 0.54520000E+02 -0.21640E+07
 0.54570000E+02 -0.21701E+07
 0.54620003E+02 -0.21661E+07
 0.54670002E+02 -0.21385E+07
 0.54720001E+02 -0.20470E+07
 0.54770000E+02 -0.19662E+07
 0.54820000E+02 -0.18648E+07
 0.54870003E+02 -0.16634E+07
 0.54920002E+02 -0.13892E+07
 0.54970001E+02 -0.10991E+07
 0.55020000E+02 -0.79198E+06
 0.55070000E+02 -0.47248E+06
 0.55120003E+02 -0.19040E+06
 0.55170002E+02  0.10266E+06
 0.55220001E+02  0.38771E+06
 0.55270000E+02  0.60878E+06
 0.55320000E+02  0.76162E+06
 0.55370003E+02  0.81780E+06
 0.55420002E+02  0.75279E+06
 0.55470001E+02  0.55081E+06
 0.55520000E+02  0.33849E+06
 0.55570000E+02  0.12938E+06
 0.55620003E+02 -0.11558E+06
 0.55670002E+02 -0.37630E+06
 0.55720001E+02 -0.69392E+06
 0.55770000E+02 -0.97072E+06
 0.55820000E+02 -0.11140E+07
 0.55870003E+02 -0.10927E+07
 0.55920002E+02 -0.93856E+06
 0.55970001E+02 -0.70386E+06
 0.56020000E+02 -0.34264E+06
 0.56070000E+02  0.12446E+06
 0.56120003E+02  0.58871E+06
 0.56170002E+02  0.91409E+06
 0.56220001E+02  0.10172E+07
 0.56270000E+02  0.97414E+06
 0.56320000E+02  0.91135E+06
 0.56370003E+02  0.82321E+06
 0.56420002E+02  0.61857E+06
 0.56470001E+02  0.35279E+06
 0.56520000E+02  0.16885E+06
 0.56570000E+02  0.78151E+05
 0.56620003E+02  0.32289E+05
 0.56670002E+02  0.15560E+05
 0.56720001E+02  0.63694E+05
 0.56770000E+02  0.21060E+06
 0.56820000E+02  0.45095E+06
 0.56870003E+02  0.71762E+06
 0.56920002E+02  0.87898E+06
 0.56970001E+02  0.89609E+06
 0.57020000E+02  0.80668E+06
 0.57070000E+02  0.68301E+06
 0.57120003E+02  0.54772E+06
 0.57170002E+02  0.38608E+06
 0.57220001E+02  0.23556E+06
 0.57270000E+02  0.16004E+06
 0.57320000E+02  0.21930E+06
 0.57370003E+02  0.30414E+06
 0.57420002E+02  0.33506E+06
 0.57470001E+02  0.35202E+06
 0.57520000E+02  0.36841E+06
 0.57570000E+02  0.35765E+06
 0.57620003E+02  0.30443E+06
 0.57670002E+02  0.24564E+06
 0.57720001E+02  0.15472E+06
 0.57770000E+02  0.89953E+05
 0.57820000E+02  0.94572E+05
 0.57870003E+02  0.11238E+06
 0.57920002E+02  0.12650E+06
 0.57970001E+02  0.97282E+05
 0.58020000E+02 -0.20495E+05
 0.58070000E+02 -0.27014E+06
 0.58120003E+02 -0.56194E+06
 0.58170002E+02 -0.76862E+06
 0.58220001E+02 -0.90470E+06
 0.58270000E+02 -0.96729E+06
 0.58320000E+02 -0.90487E+06
 0.58370003E+02 -0.71838E+06
 0.58420002E+02 -0.48208E+06
 0.58470001E+02 -0.27038E+06
 0.58520000E+02 -0.81836E+05
 0.58570000E+02  0.10641E+06
 0.58620003E+02  0.30882E+06
 0.58670002E+02  0.47117E+06
 0.58720001E+02  0.48620E+06
 0.58770000E+02  0.37777E+06
 0.58820000E+02  0.19646E+06
 0.58870003E+02 -0.32700E+05
 0.58920002E+02 -0.22193E+06
 0.58970001E+02 -0.26816E+06
 0.59020000E+02 -0.13762E+06
 0.59070000E+02  0.84421E+05
 0.59120003E+02  0.30072E+06
 0.59170002E+02  0.46377E+06
 0.59220001E+02  0.55434E+06
 0.59270000E+02  0.56854E+06
 0.59320000E+02  0.54856E+06
 0.59370003E+02  0.55604E+06
 0.59420002E+02  0.56202E+06
 0.59470001E+02  0.50678E+06
 0.59520000E+02  0.43316E+06
 0.59570000E+02  0.37921E+06
 0.59620003E+02  0.30958E+06
 0.59670002E+02  0.20418E+06
 0.59720001E+02  0.76684E+05
 0.59770000E+02 -0.44319E+05
 0.59820000E+02 -0.19623E+06
 0.59870003E+02 -0.35816E+06
 0.59920002E+02 -0.40121E+06
 0.59970001E+02 -0.32095E+06
 0.60020000E+02 -0.19992E+06
 0.60070000E+02 -0.65193E+05
 0.60120003E+02  0.77952E+05
 0.60170002E+02  0.18455E+06
 0.60220001E+02  0.19977E+06
 0.60270000E+02  0.14932E+06
 0.60320000E+02  0.96924E+05
 0.60370003E+02  0.16254E+05
 0.60420002E+02 -0.12119E+06
 0.60470001E+02 -0.24333E+06
 0.60520000E+02 -0.30029E+06
 0.60570000E+02 -0.27806E+06
 0.60620003E+02 -0.17305E+06
 0.60670002E+02 -0.22268E+05
 0.60720001E+02  0.12829E+06
 0.60770000E+02  0.23036E+06
 0.60820000E+02  0.28493E+06
 0.60870003E+02  0.30250E+06
 0.60920002E+02  0.24066E+06
 0.60970001E+02  0.11130E+06
 0.61020000E+02 -0.30095E+05
 0.61070004E+02 -0.15251E+06
 0.61119999E+02 -0.23034E+06
 0.61170002E+02 -0.22757E+06
 0.61220005E+02 -0.15218E+06
 0.61270000E+02 -0.11454E+06
 0.61320004E+02 -0.19226E+06
 0.61369999E+02 -0.36402E+06
 0.61420002E+02 -0.55078E+06
 0.61470005E+02 -0.67556E+06
 0.61520000E+02 -0.70575E+06
 0.61570004E+02 -0.64406E+06
 0.61619999E+02 -0.56589E+06
 0.61670002E+02 -0.51757E+06
 0.61720005E+02 -0.49817E+06
 0.61770000E+02 -0.48252E+06
 0.61820004E+02 -0.41377E+06
 0.61869999E+02 -0.31212E+06
 0.61920002E+02 -0.21790E+06
 0.61970005E+02 -0.13897E+06
 0.62020000E+02 -0.94069E+05
 0.62070004E+02 -0.11235E+06
 0.62119999E+02 -0.19583E+06
 0.62170002E+02 -0.27182E+06
 0.62220005E+02 -0.27182E+06
 0.62270000E+02 -0.23294E+06
 0.62320004E+02 -0.21311E+06
 0.62369999E+02 -0.18527E+06
 0.62420002E+02 -0.12463E+06
 0.62470005E+02 -0.55381E+05
 0.62520000E+02  0.18387E+05
 0.62570004E+02  0.89360E+05
 0.62619999E+02  0.13183E+06
 0.62670002E+02  0.13052E+06
 0.62720005E+02  0.12016E+06
 0.62770000E+02  0.16700E+06
 0.62820004E+02  0.20567E+06
 0.62869999E+02  0.17934E+06
 0.62920002E+02  0.12868E+06
 0.62970005E+02  0.21577E+05
 0.63020000E+02 -0.11065E+06
 0.63070004E+02 -0.20511E+06
 0.63119999E+02 -0.28225E+06
 0.63170002E+02 -0.35146E+06
 0.63220005E+02 -0.41229E+06
 0.63270000E+02 -0.43401E+06
 0.63320004E+02 -0.38603E+06
 0.63369999E+02 -0.31993E+06
 0.63420002E+02 -0.25099E+06
 0.63470005E+02 -0.13928E+06
 0.63520000E+02 -0.87260E+04
 0.63570004E+02  0.12334E+06
 0.63619999E+02  0.24901E+06
 0.63670002E+02  0.34164E+06
 0.63720005E+02  0.38311E+06
 0.63770000E+02  0.33823E+06
 0.63820004E+02  0.17411E+06
 0.63869999E+02 -0.93217E+05
 0.63920002E+02 -0.39099E+06
 0.63970005E+02 -0.62516E+06
 0.64019997E+02 -0.72402E+06
 0.64070000E+02 -0.71225E+06
 0.64119995E+02 -0.63650E+06
 0.64169998E+02 -0.52072E+06
 0.64220001E+02 -0.38683E+06
 0.64269997E+02 -0.21796E+06
 0.64320000E+02 -0.54787E+05
 0.64369995E+02  0.46021E+05
 0.64419998E+02  0.93519E+05
 0.64470001E+02  0.12524E+06
 0.64519997E+02  0.15447E+06
 0.64570000E+02  0.15904E+06
 0.64619995E+02  0.14849E+06
 0.64669998E+02  0.17179E+06
 0.64720001E+02  0.27296E+06
 0.64769997E+02  0.42176E+06
 0.64820000E+02  0.54216E+06
 0.64869995E+02  0.61721E+06
 0.64919998E+02  0.69298E+06
 0.64970001E+02  0.78055E+06
 0.65019997E+02  0.84596E+06
 0.65070000E+02  0.89246E+06
 0.65119995E+02  0.92617E+06
 0.65169998E+02  0.96044E+06
 0.65220001E+02  0.10041E+07
 0.65269997E+02  0.10248E+07
 0.65320000E+02  0.10222E+07
 0.65369995E+02  0.99120E+06
 0.65419998E+02  0.92315E+06
 0.65470001E+02  0.81633E+06
 0.65519997E+02  0.68811E+06
 0.65570000E+02  0.59999E+06
 0.65619995E+02  0.55092E+06
 0.65669998E+02  0.47755E+06
 0.65720001E+02  0.34823E+06
 0.65769997E+02  0.21090E+06
 0.65820000E+02  0.10552E+06
 0.65869995E+02  0.35622E+05
 0.65919998E+02 -0.38568E+05
 0.65970001E+02 -0.16972E+06
 0.66019997E+02 -0.34982E+06
 0.66070000E+02 -0.56199E+06
 0.66119995E+02 -0.74911E+06
 0.66169998E+02 -0.90159E+06
 0.66220001E+02 -0.10335E+07
 0.66269997E+02 -0.10872E+07
 0.66320000E+02 -0.10570E+07
 0.66369995E+02 -0.10002E+07
 0.66419998E+02 -0.96643E+06
 0.66470001E+02 -0.94884E+06
 0.66519997E+02 -0.90862E+06
 0.66570000E+02 -0.81723E+06
 0.66619995E+02 -0.67467E+06
 0.66669998E+02 -0.51233E+06
 0.66720001E+02 -0.35473E+06
 0.66769997E+02 -0.23939E+06
 0.66820000E+02 -0.18975E+06
 0.66869995E+02 -0.15476E+06
 0.66919998E+02 -0.89574E+05
 0.66970001E+02  0.10677E+05
 0.67019997E+02  0.14496E+06
 0.67070000E+02  0.28968E+06
 0.67119995E+02  0.41828E+06
 0.67169998E+02  0.51472E+06
 0.67220001E+02  0.57172E+06
 0.67269997E+02  0.59526E+06
 0.67320000E+02  0.59298E+06
 0.67369995E+02  0.58630E+06
 0.67419998E+02  0.60565E+06
 0.67470001E+02  0.63974E+06
 0.67519997E+02  0.66282E+06
 0.67570000E+02  0.68162E+06
 0.67619995E+02  0.72981E+06
 0.67669998E+02  0.81304E+06
 0.67720001E+02  0.86791E+06
 0.67769997E+02  0.87719E+06
 0.67820000E+02  0.89135E+06
 0.67869995E+02  0.92239E+06
 0.67919998E+02  0.93247E+06
 0.67970001E+02  0.90439E+06
 0.68019997E+02  0.87861E+06
 0.68070000E+02  0.87446E+06
 0.68119995E+02  0.84853E+06
 0.68169998E+02  0.73807E+06
 0.68220001E+02  0.51226E+06
 0.68269997E+02  0.19003E+06
 0.68320000E+02 -0.14689E+06
 0.68369995E+02 -0.39584E+06
 0.68419998E+02 -0.54791E+06
 0.68470001E+02 -0.64708E+06
 0.68519997E+02 -0.71968E+06
 0.68570000E+02 -0.76480E+06
 0.68619995E+02 -0.75075E+06
 0.68669998E+02 -0.68764E+06
 0.68720001E+02 -0.61026E+06
 0.68769997E+02 -0.56064E+06
 0.68820000E+02 -0.56675E+06
 0.68869995E+02 -0.56750E+06
 0.68919998E+02 -0.51665E+06
 0.68970001E+02 -0.44925E+06
 0.69019997E+02 -0.38734E+06
 0.69070000E+02 -0.30248E+06
 0.69119995E+02 -0.17651E+06
 0.69169998E+02 -0.28869E+05
 0.69220001E+02  0.82605E+05
 0.69269997E+02  0.10322E+06
 0.69320000E+02  0.56930E+05
 0.69369995E+02 -0.79850E+04
 0.69419998E+02 -0.74937E+05
 0.69470001E+02 -0.15692E+06
 0.69519997E+02 -0.23999E+06
 0.69570000E+02 -0.28495E+06
 0.69619995E+02 -0.31494E+06
 0.69669998E+02 -0.34654E+06
 0.69720001E+02 -0.35987E+06
 0.69769997E+02 -0.35385E+06
 0.69820000E+02 -0.36416E+06
 0.69869995E+02 -0.41818E+06
 0.69919998E+02 -0.47598E+06
 0.69970001E+02 -0.50745E+06
 0.70019997E+02 -0.50022E+06
 0.70070000E+02 -0.46108E+06
 0.70119995E+02 -0.41439E+06
 0.70169998E+02 -0.34897E+06
 0.70220001E+02 -0.25376E+06
 0.70269997E+02 -0.13336E+06
 0.70320000E+02 -0.24574E+05
 0.70369995E+02  0.50846E+05
 0.70419998E+02  0.12910E+06
 0.70470001E+02  0.21671E+06
 0.70519997E+02  0.27432E+06
 0.70570000E+02  0.30282E+06
 0.70619995E+02  0.34007E+06
 0.70669998E+02  0.39561E+06
 0.70720001E+02  0.44452E+06
 0.70769997E+02  0.47038E+06
 0.70820000E+02  0.48908E+06
 0.70869995E+02  0.49898E+06
 0.70919998E+02  0.46780E+06
 0.70970001E+02  0.38548E+06
 0.71019997E+02  0.28242E+06
 0.71070000E+02  0.20221E+06
 0.71119995E+02  0.16206E+06
 0.71169998E+02  0.15133E+06
 0.71220001E+02  0.14742E+06
 0.71269997E+02  0.13115E+06
 0.71320000E+02  0.98324E+05
 0.71369995E+02  0.45847E+05
 0.71419998E+02 -0.18098E+05
 0.71470001E+02 -0.79969E+05
 0.71519997E+02 -0.12748E+06
 0.71570000E+02 -0.14992E+06
 0.71619995E+02 -0.15544E+06
 0.71669998E+02 -0.13527E+06
 0.71720001E+02 -0.79879E+05
 0.71769997E+02 -0.31230E+04
 0.71820000E+02  0.87934E+05
 0.71869995E+02  0.19287E+06
 0.71919998E+02  0.30301E+06
 0.71970001E+02  0.38985E+06
 0.72019997E+02  0.42731E+06
 0.72070000E+02  0.40618E+06
 0.72119995E+02  0.33066E+06
 0.72169998E+02  0.21825E+06
 0.72220001E+02  0.10026E+06
 0.72269997E+02  0.15375E+05
 0.72320000E+02 -0.34522E+05
 0.72369995E+02 -0.73857E+05
 0.72419998E+02 -0.83744E+05
 0.72470001E+02 -0.36940E+05
 0.72519997E+02  0.42340E+05
 0.72570000E+02  0.11324E+06
 0.72619995E+02  0.16309E+06
 0.72669998E+02  0.20584E+06
 0.72720001E+02  0.23820E+06
 0.72769997E+02  0.23968E+06
 0.72820000E+02  0.20935E+06
 0.72869995E+02  0.14980E+06
 0.72919998E+02  0.72634E+05
 0.72970001E+02  0.69500E+04
 0.73019997E+02 -0.41760E+05
 0.73070000E+02 -0.94135E+05
 0.73119995E+02 -0.16217E+06
 0.73169998E+02 -0.22120E+06
 0.73220001E+02 -0.25065E+06
 0.73269997E+02 -0.26706E+06
 0.73320000E+02 -0.27584E+06
 0.73369995E+02 -0.25641E+06
 0.73419998E+02 -0.19102E+06
 0.73470001E+02 -0.10854E+06
 0.73519997E+02 -0.56460E+05
 0.73570000E+02 -0.32881E+05
 0.73619995E+02 -0.22440E+05
 0.73669998E+02 -0.19702E+05
 0.73720001E+02 -0.20626E+05
 0.73769997E+02 -0.27753E+05
 0.73820000E+02 -0.40484E+05
 0.73869995E+02 -0.56822E+05
 0.73919998E+02 -0.51228E+05
 0.73970001E+02 -0.12359E+05
 0.74019997E+02  0.20571E+05
 0.74070000E+02  0.27065E+05
 0.74119995E+02  0.23704E+05
 0.74169998E+02  0.18411E+05
 0.74220001E+02  0.19070E+04
 0.74269997E+02 -0.15636E+05
 0.74320000E+02 -0.56940E+04
 0.74369995E+02  0.29825E+05
 0.74419998E+02  0.72935E+05
 0.74470001E+02  0.11864E+06
 0.74519997E+02  0.14704E+06
 0.74570000E+02  0.13228E+06
 0.74619995E+02  0.77478E+05
 0.74669998E+02  0.13382E+05
 0.74720001E+02 -0.37980E+05
 0.74769997E+02 -0.90569E+05
 0.74820000E+02 -0.14573E+06
 0.74869995E+02 -0.18025E+06
 0.74919998E+02 -0.18987E+06
 0.74970001E+02 -0.19291E+06
 0.75019997E+02 -0.21894E+06
 0.75070000E+02 -0.26820E+06
 0.75119995E+02 -0.32266E+06
 0.75169998E+02 -0.39020E+06
 0.75220001E+02 -0.46324E+06
 0.75269997E+02 -0.50327E+06
 0.75320000E+02 -0.50000E+06
 0.75369995E+02 -0.48542E+06
 0.75419998E+02 -0.47747E+06
 0.75470001E+02 -0.46122E+06
 0.75519997E+02 -0.43992E+06
 0.75570000E+02 -0.44131E+06
 0.75619995E+02 -0.45861E+06
 0.75669998E+02 -0.46393E+06
 0.75720001E+02 -0.45510E+06
 0.75769997E+02 -0.43379E+06
 0.75820000E+02 -0.38480E+06
 0.75869995E+02 -0.29829E+06
 0.75919998E+02 -0.21396E+06
 0.75970001E+02 -0.18100E+06
 0.76019997E+02 -0.18840E+06
 0.76070000E+02 -0.21092E+06
 0.76119995E+02 -0.24933E+06
 0.76169998E+02 -0.29608E+06
 0.76220001E+02 -0.31410E+06
 0.76269997E+02 -0.29002E+06
 0.76320000E+02 -0.25172E+06
 0.76369995E+02 -0.20956E+06
 0.76419998E+02 -0.16329E+06
 0.76470001E+02 -0.13196E+06
 0.76519997E+02 -0.12677E+06
 0.76570000E+02 -0.14056E+06
 0.76619995E+02 -0.15810E+06
 0.76669998E+02 -0.17378E+06
 0.76720001E+02 -0.19412E+06
 0.76769997E+02 -0.20866E+06
 0.76820000E+02 -0.20324E+06
 0.76869995E+02 -0.16713E+06
 0.76919998E+02 -0.10949E+06
 0.76970001E+02 -0.56097E+05
 0.77019997E+02 -0.25348E+05
 0.77070000E+02 -0.22079E+05
 0.77119995E+02 -0.18296E+05
 0.77169998E+02  0.13014E+05
 0.77220001E+02  0.86343E+05
 0.77269997E+02  0.19290E+06
 0.77320000E+02  0.32040E+06
 0.77369995E+02  0.45536E+06
 0.77419998E+02  0.55847E+06
 0.77470001E+02  0.62155E+06
 0.77519997E+02  0.66145E+06
 0.77570000E+02  0.68895E+06
 0.77619995E+02  0.69483E+06
 0.77669998E+02  0.67838E+06
 0.77720001E+02  0.65882E+06
 0.77769997E+02  0.64340E+06
 0.77820000E+02  0.63699E+06
 0.77869995E+02  0.64139E+06
 0.77919998E+02  0.64947E+06
 0.77970001E+02  0.65050E+06
 0.78019997E+02  0.64674E+06
 0.78070000E+02  0.62623E+06
 0.78119995E+02  0.57028E+06
 0.78169998E+02  0.48582E+06
 0.78220001E+02  0.38160E+06
 0.78269997E+02  0.27220E+06
 0.78320000E+02  0.18151E+06
 0.78369995E+02  0.13285E+06
 0.78419998E+02  0.12727E+06
 0.78470001E+02  0.14391E+06
 0.78519997E+02  0.17511E+06
 0.78570000E+02  0.22188E+06
 0.78619995E+02  0.28726E+06
 0.78669998E+02  0.37046E+06
 0.78720001E+02  0.44238E+06
 0.78769997E+02  0.47616E+06
 0.78820000E+02  0.47296E+06
 0.78869995E+02  0.43932E+06
 0.78919998E+02  0.39137E+06
 0.78970001E+02  0.35432E+06
 0.79019997E+02  0.34661E+06
 0.79070000E+02  0.36277E+06
 0.79119995E+02  0.38103E+06
 0.79169998E+02  0.38967E+06
 0.79220001E+02  0.38434E+06
 0.79269997E+02  0.36285E+06
 0.79320000E+02  0.32583E+06
 0.79369995E+02  0.28904E+06
 0.79419998E+02  0.26539E+06
 0.79470001E+02  0.24256E+06
 0.79519997E+02  0.20429E+06
 0.79570000E+02  0.13810E+06
 0.79619995E+02  0.49774E+05
 0.79669998E+02 -0.39124E+05
 0.79720001E+02 -0.11363E+06
 0.79769997E+02 -0.17080E+06
 0.79820000E+02 -0.21609E+06
 0.79869995E+02 -0.25557E+06
 0.79919998E+02 -0.29672E+06
 0.79970001E+02 -0.33786E+06
 0.80019997E+02 -0.36509E+06
 0.80070000E+02 -0.35921E+06
 0.80119995E+02 -0.31951E+06
 0.80169998E+02 -0.26561E+06
 0.80220001E+02 -0.21014E+06
 0.80269997E+02 -0.17240E+06
 0.80320000E+02 -0.16076E+06
 0.80369995E+02 -0.15299E+06
 0.80419998E+02 -0.13632E+06
 0.80470001E+02 -0.11451E+06
 0.80519997E+02 -0.80078E+05
 0.80570000E+02 -0.14450E+05
 0.80619995E+02  0.67081E+05
 0.80669998E+02  0.12785E+06
 0.80720001E+02  0.15940E+06
 0.80769997E+02  0.14783E+06
 0.80820000E+02  0.79456E+05
 0.80869995E+02 -0.31317E+05
 0.80919998E+02 -0.15056E+06
 0.80970001E+02 -0.25055E+06
 0.81019997E+02 -0.33784E+06
 0.81070000E+02 -0.41426E+06
 0.81119995E+02 -0.46955E+06
 0.81169998E+02 -0.50438E+06
 0.81220001E+02 -0.51570E+06
 0.81269997E+02 -0.48407E+06
 0.81320000E+02 -0.40693E+06
 0.81369995E+02 -0.32019E+06
 0.81419998E+02 -0.25832E+06
 0.81470001E+02 -0.23591E+06
 0.81519997E+02 -0.23704E+06
 0.81570000E+02 -0.24451E+06
 0.81619995E+02 -0.26804E+06
 0.81669998E+02 -0.30596E+06
 0.81720001E+02 -0.34139E+06
 0.81769997E+02 -0.35561E+06
 0.81820000E+02 -0.34399E+06
 0.81869995E+02 -0.31800E+06
 0.81919998E+02 -0.29343E+06
 0.81970001E+02 -0.28864E+06
 0.82019997E+02 -0.31173E+06
 0.82070000E+02 -0.36428E+06
 0.82119995E+02 -0.44117E+06
 0.82169998E+02 -0.51426E+06
 0.82220001E+02 -0.54730E+06
 0.82269997E+02 -0.53328E+06
 0.82320000E+02 -0.48799E+06
 0.82369995E+02 -0.42731E+06
 0.82419998E+02 -0.35558E+06
 0.82470001E+02 -0.25945E+06
 0.82519997E+02 -0.12827E+06
 0.82570000E+02  0.28460E+05
 0.82619995E+02  0.17918E+06
 0.82669998E+02  0.29990E+06
 0.82720001E+02  0.38563E+06
 0.82769997E+02  0.42521E+06
 0.82820000E+02  0.40488E+06
 0.82869995E+02  0.32460E+06
 0.82919998E+02  0.21474E+06
 0.82970001E+02  0.10369E+06
 0.83019997E+02  0.70580E+04
 0.83070000E+02 -0.59414E+05
 0.83119995E+02 -0.10141E+06
 0.83169998E+02 -0.11879E+06
 0.83220001E+02 -0.10728E+06
 0.83269997E+02 -0.64119E+05
 0.83320000E+02  0.13627E+05
 0.83369995E+02  0.10463E+06
 0.83419998E+02  0.18039E+06
 0.83470001E+02  0.22510E+06
 0.83519997E+02  0.25112E+06
 0.83570000E+02  0.28073E+06
 0.83619995E+02  0.31257E+06
 0.83669998E+02  0.33465E+06
 0.83720001E+02  0.33744E+06
 0.83769997E+02  0.31593E+06
 0.83820000E+02  0.26759E+06
 0.83869995E+02  0.19005E+06
 0.83919998E+02  0.88388E+05
 0.83970001E+02 -0.25527E+05
 0.84019997E+02 -0.12997E+06
 0.84070000E+02 -0.20340E+06
 0.84119995E+02 -0.24207E+06
 0.84169998E+02 -0.25271E+06
 0.84220001E+02 -0.24494E+06
 0.84269997E+02 -0.22247E+06
 0.84320000E+02 -0.18142E+06
 0.84369995E+02 -0.12704E+06
 0.84419998E+02 -0.73854E+05
 0.84470001E+02 -0.22283E+05
 0.84519997E+02  0.40734E+05
 0.84570000E+02  0.11083E+06
 0.84619995E+02  0.16817E+06
 0.84669998E+02  0.19629E+06
 0.84720001E+02  0.19382E+06
 0.84769997E+02  0.18069E+06
 0.84820000E+02  0.17029E+06
 0.84869995E+02  0.16461E+06
 0.84919998E+02  0.16441E+06
 0.84970001E+02  0.15807E+06
 0.85019997E+02  0.12959E+06
 0.85070000E+02  0.77522E+05
 0.85119995E+02  0.26189E+05
 0.85169998E+02 -0.12067E+05
 0.85220001E+02 -0.59889E+05
 0.85269997E+02 -0.12832E+06
 0.85320000E+02 -0.19436E+06
 0.85369995E+02 -0.23008E+06
 0.85419998E+02 -0.23182E+06
 0.85470001E+02 -0.20877E+06
 0.85519997E+02 -0.16498E+06
 0.85570000E+02 -0.10524E+06
 0.85619995E+02 -0.34736E+05
 0.85669998E+02  0.50433E+05
 0.85720001E+02  0.14476E+06
 0.85769997E+02  0.21877E+06
 0.85820000E+02  0.25316E+06
 0.85869995E+02  0.26233E+06
 0.85919998E+02  0.25773E+06
 0.85970001E+02  0.23054E+06
 0.86019997E+02  0.19063E+06
 0.86070000E+02  0.16210E+06
 0.86119995E+02  0.14657E+06
 0.86169998E+02  0.13270E+06
 0.86220001E+02  0.13234E+06
 0.86269997E+02  0.16507E+06
 0.86320000E+02  0.21780E+06
 0.86369995E+02  0.26845E+06
 0.86419998E+02  0.32041E+06
 0.86470001E+02  0.38679E+06
 0.86519997E+02  0.46386E+06
 0.86570000E+02  0.54083E+06
 0.86619995E+02  0.60682E+06
 0.86669998E+02  0.63651E+06
 0.86720001E+02  0.62180E+06
 0.86769997E+02  0.58003E+06
 0.86820000E+02  0.51513E+06
 0.86869995E+02  0.42733E+06
 0.86919998E+02  0.32530E+06
 0.86970001E+02  0.22178E+06
 0.87019997E+02  0.12519E+06
 0.87070000E+02  0.40356E+05
 0.87119995E+02 -0.27294E+05
 0.87169998E+02 -0.75530E+05
 0.87220001E+02 -0.10053E+06
 0.87269997E+02 -0.10361E+06
 0.87320000E+02 -0.85268E+05
 0.87369995E+02 -0.55446E+05
 0.87419998E+02 -0.25751E+05
 0.87470001E+02  0.32620E+04
 0.87519997E+02  0.24616E+05
 0.87570000E+02  0.28956E+05
 0.87619995E+02  0.23910E+04
 0.87669998E+02 -0.55862E+05
 0.87720001E+02 -0.12551E+06
 0.87769997E+02 -0.18809E+06
 0.87820000E+02 -0.24805E+06
 0.87869995E+02 -0.31356E+06
 0.87919998E+02 -0.36916E+06
 0.87970001E+02 -0.40156E+06
 0.88019997E+02 -0.40580E+06
 0.88070000E+02 -0.38634E+06
 0.88119995E+02 -0.35556E+06
 0.88169998E+02 -0.31736E+06
 0.88220001E+02 -0.27259E+06
 0.88269997E+02 -0.22459E+06
 0.88320000E+02 -0.17355E+06
 0.88369995E+02 -0.12280E+06
 0.88419998E+02 -0.87327E+05
 0.88470001E+02 -0.70252E+05
 0.88519997E+02 -0.59280E+05
 0.88570000E+02 -0.49119E+05
 0.88619995E+02 -0.45341E+05
 0.88669998E+02 -0.51338E+05
 0.88720001E+02 -0.51868E+05
 0.88769997E+02 -0.37703E+05
 0.88820000E+02 -0.24183E+05
 0.88869995E+02 -0.18832E+05
 0.88919998E+02 -0.16455E+05
 0.88970001E+02 -0.22284E+05
 0.89019997E+02 -0.41027E+05
 0.89070000E+02 -0.59442E+05
 0.89119995E+02 -0.61558E+05
 0.89169998E+02 -0.39144E+05
 0.89220001E+02  0.60410E+04
 0.89269997E+02  0.63683E+05
 0.89320000E+02  0.12294E+06
 0.89369995E+02  0.16825E+06
 0.89419998E+02  0.18337E+06
 0.89470001E+02  0.15344E+06
 0.89519997E+02  0.74871E+05
 0.89570000E+02 -0.18681E+05
 0.89619995E+02 -0.84637E+05
 0.89669998E+02 -0.11304E+06
 0.89720001E+02 -0.11530E+06
 0.89769997E+02 -0.10098E+06
 0.89820000E+02 -0.67246E+05
 0.89869995E+02 -0.15614E+05
 0.89919998E+02  0.41661E+05
 0.89970001E+02  0.91794E+05
 0.90019997E+02  0.11955E+06
 0.90070000E+02  0.11114E+06
 0.90119995E+02  0.65937E+05
 0.90169998E+02  0.15990E+05
 0.90220001E+02 -0.33210E+04
 0.90269997E+02  0.19590E+04
 0.90320000E+02  0.61070E+04
 0.90369995E+02 -0.88700E+04
 0.90419998E+02 -0.40680E+05
 0.90470001E+02 -0.74346E+05
 0.90519997E+02 -0.10164E+06
 0.90570000E+02 -0.11540E+06
 0.90619995E+02 -0.10948E+06
 0.90669998E+02 -0.82488E+05
 0.90720001E+02 -0.43253E+05
 0.90769997E+02 -0.55500E+03
 0.90820000E+02  0.48595E+05
 0.90869995E+02  0.10455E+06
 0.90919998E+02  0.16945E+06
 0.90970001E+02  0.23822E+06
 0.91019997E+02  0.29308E+06
 0.91070000E+02  0.31422E+06
 0.91119995E+02  0.28352E+06
 0.91169998E+02  0.20766E+06
 0.91220001E+02  0.11575E+06
 0.91269997E+02  0.31418E+05
 0.91320000E+02 -0.32187E+05
 0.91369995E+02 -0.66064E+05
 0.91419998E+02 -0.71438E+05
 0.91470001E+02 -0.50359E+05
 0.91519997E+02 -0.13246E+05
 0.91570000E+02  0.18357E+05
 0.91619995E+02  0.42371E+05
 0.91669998E+02  0.68805E+05
 0.91720001E+02  0.99512E+05
 0.91769997E+02  0.12211E+06
 0.91820000E+02  0.13016E+06
 0.91869995E+02  0.13755E+06
 0.91919998E+02  0.15399E+06
 0.91970001E+02  0.16488E+06
 0.92019997E+02  0.15927E+06
 0.92070000E+02  0.14602E+06
 0.92119995E+02  0.12519E+06
 0.92169998E+02  0.87927E+05
 0.92220001E+02  0.36728E+05
 0.92269997E+02 -0.58690E+04
 0.92320000E+02 -0.23286E+05
 0.92369995E+02 -0.18141E+05
 0.92419998E+02  0.43980E+04
 0.92470001E+02  0.42559E+05
 0.92519997E+02  0.94173E+05
 0.92570000E+02  0.14137E+06
 0.92619995E+02  0.16614E+06
 0.92669998E+02  0.17130E+06
 0.92720001E+02  0.16982E+06
 0.92769997E+02  0.16203E+06
 0.92820000E+02  0.13660E+06
 0.92869995E+02  0.93632E+05
 0.92919998E+02  0.42724E+05
 0.92970001E+02 -0.60580E+04
 0.93019997E+02 -0.55973E+05
 0.93070000E+02 -0.11423E+06
 0.93119995E+02 -0.17243E+06
 0.93169998E+02 -0.22131E+06
 0.93220001E+02 -0.25228E+06
 0.93269997E+02 -0.25071E+06
 0.93320000E+02 -0.20589E+06
 0.93369995E+02 -0.13354E+06
 0.93419998E+02 -0.64334E+05
 0.93470001E+02 -0.93300E+04
 0.93519997E+02  0.33515E+05
 0.93570000E+02  0.67845E+05
 0.93619995E+02  0.95613E+05
 0.93669998E+02  0.10964E+06
 0.93720001E+02  0.10245E+06
 0.93769997E+02  0.81657E+05
 0.93820000E+02  0.67914E+05
 0.93869995E+02  0.72014E+05
 0.93919998E+02  0.84227E+05
 0.93970001E+02  0.98330E+05
 0.94019997E+02  0.11102E+06
 0.94070000E+02  0.11122E+06
 0.94119995E+02  0.10128E+06
 0.94169998E+02  0.92233E+05
 0.94220001E+02  0.80494E+05
 0.94269997E+02  0.57801E+05
 0.94320000E+02  0.32319E+05
 0.94369995E+02  0.16072E+05
 0.94419998E+02  0.69050E+04
 0.94470001E+02 -0.14718E+05
 0.94519997E+02 -0.65016E+05
 0.94570000E+02 -0.13128E+06
 0.94619995E+02 -0.18742E+06
 0.94669998E+02 -0.22591E+06
 0.94720001E+02 -0.26031E+06
 0.94769997E+02 -0.29392E+06
 0.94820000E+02 -0.31348E+06
 0.94869995E+02 -0.31062E+06
 0.94919998E+02 -0.29132E+06
 0.94970001E+02 -0.25917E+06
 0.95019997E+02 -0.20547E+06
 0.95070000E+02 -0.13030E+06
 0.95119995E+02 -0.42824E+05
 0.95169998E+02  0.48704E+05
 0.95220001E+02  0.13292E+06
 0.95269997E+02  0.19819E+06
 0.95320000E+02  0.23896E+06
 0.95369995E+02  0.25965E+06
 0.95419998E+02  0.26717E+06
 0.95470001E+02  0.25961E+06
 0.95519997E+02  0.23494E+06
 0.95570000E+02  0.19513E+06
 0.95619995E+02  0.14605E+06
 0.95669998E+02  0.10137E+06
 0.95720001E+02  0.68217E+05
 0.95769997E+02  0.44708E+05
 0.95820000E+02  0.25623E+05
 0.95869995E+02  0.58800E+04
 0.95919998E+02 -0.16539E+05
 0.95970001E+02 -0.46270E+05
 0.96019997E+02 -0.80295E+05
 0.96070000E+02 -0.11070E+06
 0.96119995E+02 -0.13187E+06
 0.96169998E+02 -0.14654E+06
 0.96220001E+02 -0.16448E+06
 0.96269997E+02 -0.18148E+06
 0.96320000E+02 -0.19253E+06
 0.96369995E+02 -0.20246E+06
 0.96419998E+02 -0.21687E+06
 0.96470001E+02 -0.23312E+06
 0.96519997E+02 -0.24753E+06
 0.96570000E+02 -0.26274E+06
 0.96619995E+02 -0.27717E+06
 0.96669998E+02 -0.29207E+06
 0.96720001E+02 -0.30831E+06
 0.96769997E+02 -0.32457E+06
 0.96820000E+02 -0.34139E+06
 0.96869995E+02 -0.36284E+06
 0.96919998E+02 -0.40313E+06
 0.96970001E+02 -0.46597E+06
 0.97019997E+02 -0.53818E+06
 0.97070000E+02 -0.60203E+06
 0.97119995E+02 -0.64120E+06
 0.97169998E+02 -0.65360E+06
 0.97220001E+02 -0.64703E+06
 0.97269997E+02 -0.63039E+06
 0.97320000E+02 -0.60952E+06
 0.97369995E+02 -0.58795E+06
 0.97419998E+02 -0.56490E+06
 0.97470001E+02 -0.52696E+06
 0.97519997E+02 -0.46313E+06
 0.97570000E+02 -0.37435E+06
 0.97619995E+02 -0.26774E+06
 0.97669998E+02 -0.15319E+06
 0.97720001E+02 -0.42363E+05
 0.97769997E+02  0.48470E+05
 0.97820000E+02  0.11177E+06
 0.97869995E+02  0.15563E+06
 0.97919998E+02  0.19084E+06
 0.97970001E+02  0.22563E+06
 0.98019997E+02  0.25966E+06
 0.98070000E+02  0.29002E+06
 0.98119995E+02  0.31552E+06
 0.98169998E+02  0.33245E+06
 0.98220001E+02  0.33797E+06
 0.98269997E+02  0.32760E+06
 0.98320000E+02  0.30498E+06
 0.98369995E+02  0.28194E+06
 0.98419998E+02  0.25946E+06
 0.98470001E+02  0.23024E+06
 0.98519997E+02  0.19301E+06
 0.98570000E+02  0.14586E+06
 0.98619995E+02  0.84657E+05
 0.98669998E+02  0.18304E+05
 0.98720001E+02 -0.38635E+05
 0.98769997E+02 -0.75732E+05
 0.98820000E+02 -0.88930E+05
 0.98869995E+02 -0.84311E+05
 0.98919998E+02 -0.65642E+05
 0.98970001E+02 -0.34428E+05
 0.99019997E+02  0.19820E+04
 0.99070000E+02  0.36820E+05
 0.99119995E+02  0.64150E+05
 0.99169998E+02  0.88062E+05
 0.99220001E+02  0.11334E+06
 0.99269997E+02  0.13762E+06
 0.99320000E+02  0.16878E+06
 0.99369995E+02  0.20421E+06
 0.99419998E+02  0.23204E+06
 0.99470001E+02  0.24774E+06
 0.99519997E+02  0.25199E+06
 0.99570000E+02  0.25166E+06
 0.99619995E+02  0.24691E+06
 0.99669998E+02  0.23864E+06
 0.99720001E+02  0.23399E+06
 0.99769997E+02  0.23366E+06
 0.99820000E+02  0.23728E+06
 0.99869995E+02  0.25080E+06
 0.99919998E+02  0.27575E+06
 0.99970001E+02  0.30190E+06
 0.10002000E+03  0.31542E+06
 0.10007000E+03  0.30835E+06
 0.10012000E+03  0.27907E+06
 0.10017000E+03  0.23329E+06
 0.10022000E+03  0.18172E+06
 0.10027000E+03  0.13739E+06
 0.10032000E+03  0.10938E+06
 0.10037000E+03  0.92898E+05
 0.10042000E+03  0.88132E+05
 0.10047000E+03  0.98856E+05
 0.10052000E+03  0.11738E+06
 0.10057000E+03  0.13558E+06
 0.10062000E+03  0.14689E+06
 0.10067000E+03  0.14746E+06
 0.10072000E+03  0.14020E+06
 0.10077000E+03  0.12732E+06
 0.10082000E+03  0.10711E+06
 0.10087000E+03  0.81584E+05
 0.10092000E+03  0.55875E+05
 0.10097000E+03  0.34213E+05
 0.10102000E+03  0.19431E+05
 0.10107000E+03  0.12249E+05
 0.10112000E+03  0.12143E+05
 0.10117000E+03  0.12892E+05
 0.10122000E+03  0.47450E+04
 0.10127000E+03 -0.10000E+05
 0.10132000E+03 -0.22273E+05
 0.10137000E+03 -0.35738E+05
 0.10142000E+03 -0.58080E+05
 0.10147000E+03 -0.91794E+05
 0.10152000E+03 -0.13354E+06
 0.10157000E+03 -0.17893E+06
 0.10162000E+03 -0.22814E+06
 0.10167000E+03 -0.27310E+06
 0.10172000E+03 -0.30402E+06
 0.10177000E+03 -0.32002E+06
 0.10182000E+03 -0.32392E+06
 0.10187000E+03 -0.31376E+06
 0.10192000E+03 -0.28583E+06
 0.10197000E+03 -0.24840E+06
 0.10202000E+03 -0.20987E+06
 0.10207000E+03 -0.17080E+06
 0.10212000E+03 -0.13336E+06
 0.10217000E+03 -0.10298E+06
 0.10222000E+03 -0.84311E+05
 0.10227000E+03 -0.78237E+05
 0.10232000E+03 -0.78411E+05
 0.10237000E+03 -0.71323E+05
 0.10242000E+03 -0.51220E+05
 0.10247000E+03 -0.27822E+05
 0.10252000E+03 -0.13298E+05
 0.10257000E+03 -0.87220E+04
 0.10262000E+03 -0.48230E+04
 0.10267000E+03  0.45130E+04
 0.10272000E+03  0.17354E+05
 0.10277000E+03  0.31535E+05
 0.10282000E+03  0.50873E+05
 0.10287000E+03  0.77688E+05
 0.10292000E+03  0.10256E+06
 0.10297000E+03  0.12078E+06
 0.10302000E+03  0.14398E+06
 0.10307000E+03  0.18113E+06
 0.10312000E+03  0.22466E+06
 0.10317000E+03  0.26104E+06
 0.10322000E+03  0.28400E+06
 0.10327000E+03  0.29709E+06
 0.10332000E+03  0.31010E+06
 0.10337000E+03  0.32634E+06
 0.10342000E+03  0.34438E+06
 0.10347000E+03  0.36053E+06
 0.10352000E+03  0.36892E+06
 0.10357000E+03  0.37137E+06
 0.10362000E+03  0.37048E+06
 0.10367000E+03  0.36708E+06
 0.10372000E+03  0.35881E+06
 0.10377000E+03  0.34330E+06
 0.10382000E+03  0.32589E+06
 0.10387000E+03  0.30775E+06
 0.10392000E+03  0.28310E+06
 0.10397000E+03  0.25320E+06
 0.10402000E+03  0.23240E+06
 0.10407000E+03  0.22740E+06
 0.10412000E+03  0.23102E+06
 0.10417000E+03  0.24049E+06
 0.10422000E+03  0.25438E+06
 0.10427000E+03  0.26825E+06
 0.10432000E+03  0.27590E+06
 0.10437000E+03  0.27268E+06
 0.10442000E+03  0.26454E+06
 0.10447000E+03  0.25850E+06
 0.10452000E+03  0.25425E+06
 0.10457000E+03  0.24692E+06
 0.10462000E+03  0.23299E+06
 0.10467000E+03  0.21876E+06
 0.10472000E+03  0.20932E+06
 0.10477000E+03  0.20417E+06
 0.10482000E+03  0.20036E+06
 0.10487000E+03  0.19026E+06
 0.10492000E+03  0.17228E+06
 0.10497000E+03  0.15142E+06
 0.10502000E+03  0.13177E+06
 0.10507000E+03  0.11233E+06
 0.10512000E+03  0.94552E+05
 0.10517000E+03  0.83854E+05
 0.10522000E+03  0.71005E+05
 0.10527000E+03  0.42850E+05
 0.10532000E+03  0.21160E+04
 0.10537000E+03 -0.40659E+05
 0.10542000E+03 -0.85396E+05
 0.10547000E+03 -0.13918E+06
 0.10552000E+03 -0.19498E+06
 0.10557000E+03 -0.23886E+06
 0.10562000E+03 -0.27246E+06
 0.10567000E+03 -0.30371E+06
 0.10572000E+03 -0.33235E+06
 0.10577000E+03 -0.36185E+06
 0.10582000E+03 -0.39718E+06
 0.10587000E+03 -0.43240E+06
 0.10592000E+03 -0.45725E+06
 0.10597000E+03 -0.47199E+06
 0.10602000E+03 -0.48328E+06
 0.10607000E+03 -0.48875E+06
 0.10612000E+03 -0.48546E+06
 0.10617000E+03 -0.46963E+06
 0.10622000E+03 -0.43496E+06
 0.10627000E+03 -0.38570E+06
 0.10632000E+03 -0.33043E+06
 0.10637000E+03 -0.27357E+06
 0.10642000E+03 -0.21545E+06
 0.10647000E+03 -0.16051E+06
 0.10652000E+03 -0.11828E+06
 0.10657000E+03 -0.88736E+05
 0.10662000E+03 -0.62786E+05
 0.10667000E+03 -0.36876E+05
 0.10672000E+03 -0.17014E+05
 0.10677000E+03 -0.68270E+04
 0.10682000E+03  0.43000E+02
 0.10687000E+03  0.14534E+05
 0.10692000E+03  0.37143E+05
 0.10697000E+03  0.57410E+05
 0.10702000E+03  0.70849E+05
 0.10707000E+03  0.79558E+05
 0.10712000E+03  0.82675E+05
 0.10717000E+03  0.80333E+05
 0.10722000E+03  0.77983E+05
 0.10727000E+03  0.82038E+05
 0.10732000E+03  0.95663E+05
 0.10737000E+03  0.11232E+06
 0.10742000E+03  0.12749E+06
 0.10747000E+03  0.14543E+06
 0.10752000E+03  0.16615E+06
 0.10757000E+03  0.18485E+06
 0.10762000E+03  0.19682E+06
 0.10767000E+03  0.20077E+06
 0.10772000E+03  0.19722E+06
 0.10777000E+03  0.18779E+06
 0.10782000E+03  0.17901E+06
 0.10787000E+03  0.17839E+06
 0.10792000E+03  0.18506E+06
 0.10797000E+03  0.19200E+06
 0.10802000E+03  0.19456E+06
 0.10807000E+03  0.18981E+06
 0.10812000E+03  0.17828E+06
 0.10817000E+03  0.16813E+06
 0.10822000E+03  0.16473E+06
 0.10827000E+03  0.15898E+06
 0.10832000E+03  0.13768E+06
 0.10837000E+03  0.95287E+05
 0.10842000E+03  0.35980E+05
 0.10847000E+03 -0.28490E+05
 0.10852000E+03 -0.90660E+05
 0.10857000E+03 -0.15013E+06
 0.10862000E+03 -0.20494E+06
 0.10867000E+03 -0.25243E+06
 0.10872000E+03 -0.29408E+06
 0.10877000E+03 -0.33736E+06
 0.10882000E+03 -0.38534E+06
 0.10887000E+03 -0.42881E+06
 0.10892000E+03 -0.46682E+06
 0.10897000E+03 -0.50920E+06
 0.10902000E+03 -0.55498E+06
 0.10907000E+03 -0.58985E+06
 0.10912000E+03 -0.60227E+06
 0.10917000E+03 -0.59572E+06
 0.10922000E+03 -0.57502E+06
 0.10927000E+03 -0.53721E+06
 0.10932000E+03 -0.48755E+06
 0.10937000E+03 -0.44008E+06
 0.10942000E+03 -0.40030E+06
 0.10947000E+03 -0.36465E+06
 0.10952000E+03 -0.32850E+06
 0.10957000E+03 -0.28624E+06
 0.10962000E+03 -0.23228E+06
 0.10967000E+03 -0.16422E+06
 0.10972000E+03 -0.82496E+05
 0.10977000E+03  0.10831E+05
 0.10982000E+03  0.10640E+06
 0.10987000E+03  0.19089E+06
 0.10992000E+03  0.25655E+06
 0.10997000E+03  0.30169E+06
 0.11002000E+03  0.33122E+06
 0.11007000E+03  0.35265E+06
 0.11012000E+03  0.37318E+06
 0.11017000E+03  0.39764E+06
 0.11022000E+03  0.42116E+06
 0.11027000E+03  0.43808E+06
 0.11032000E+03  0.45070E+06
 0.11037000E+03  0.46232E+06
 0.11042000E+03  0.47694E+06
 0.11047000E+03  0.49665E+06
 0.11052000E+03  0.51456E+06
 0.11057000E+03  0.52095E+06
 0.11062000E+03  0.51351E+06
 0.11067000E+03  0.49455E+06
 0.11072000E+03  0.46588E+06
 0.11077000E+03  0.42780E+06
 0.11082000E+03  0.37862E+06
 0.11087000E+03  0.31776E+06
 0.11092000E+03  0.24493E+06
 0.11097000E+03  0.16312E+06
 0.11102000E+03  0.79668E+05
 0.11107000E+03 -0.36520E+04
 0.11112000E+03 -0.89881E+05
 0.11117000E+03 -0.17776E+06
 0.11122000E+03 -0.26250E+06
 0.11127000E+03 -0.34179E+06
 0.11132000E+03 -0.41651E+06
 0.11137000E+03 -0.47906E+06
 0.11142000E+03 -0.51271E+06
 0.11147000E+03 -0.51298E+06
 0.11152000E+03 -0.48911E+06
 0.11157000E+03 -0.45526E+06
 0.11162000E+03 -0.42158E+06
 0.11167000E+03 -0.38970E+06
 0.11172000E+03 -0.35843E+06
 0.11177000E+03 -0.32432E+06
 0.11182000E+03 -0.28986E+06
 0.11187000E+03 -0.25774E+06
 0.11192000E+03 -0.22469E+06
 0.11197000E+03 -0.18824E+06
 0.11202000E+03 -0.14983E+06
 0.11207000E+03 -0.11429E+06
 0.11212000E+03 -0.83918E+05
 0.11217000E+03 -0.60500E+05
 0.11222000E+03 -0.46300E+05
 0.11227000E+03 -0.43796E+05
 0.11232000E+03 -0.51887E+05
 0.11237000E+03 -0.64445E+05
 0.11242000E+03 -0.76308E+05
 0.11247000E+03 -0.85241E+05
 0.11252000E+03 -0.91679E+05
 0.11257000E+03 -0.94220E+05
 0.11262000E+03 -0.91495E+05
 0.11267000E+03 -0.86047E+05
 0.11272000E+03 -0.78092E+05
 0.11277000E+03 -0.64488E+05
 0.11282000E+03 -0.48205E+05
 0.11287000E+03 -0.40342E+05
 0.11292000E+03 -0.49253E+05
 0.11297000E+03 -0.70608E+05
 0.11302000E+03 -0.93665E+05
 0.11307000E+03 -0.11316E+06
 0.11312000E+03 -0.13102E+06
 0.11317000E+03 -0.14570E+06
 0.11322000E+03 -0.14857E+06
 0.11327000E+03 -0.14060E+06
 0.11332000E+03 -0.13140E+06
 0.11337000E+03 -0.12627E+06
 0.11342000E+03 -0.12816E+06
 0.11347000E+03 -0.14070E+06
 0.11352000E+03 -0.16300E+06
 0.11357000E+03 -0.18579E+06
 0.11362000E+03 -0.20118E+06
 0.11367000E+03 -0.20744E+06
 0.11372000E+03 -0.20295E+06
 0.11377000E+03 -0.18634E+06
 0.11382000E+03 -0.15979E+06
 0.11387000E+03 -0.13102E+06
 0.11392000E+03 -0.10653E+06
 0.11397000E+03 -0.84547E+05
 0.11402000E+03 -0.60990E+05
 0.11407000E+03 -0.33981E+05
 0.11412000E+03 -0.72940E+04
 0.11417000E+03  0.11596E+05
 0.11422000E+03  0.24480E+05
 0.11427000E+03  0.40447E+05
 0.11432000E+03  0.65284E+05
 0.11437000E+03  0.10113E+06
 0.11442000E+03  0.14791E+06
 0.11447000E+03  0.20325E+06
 0.11452000E+03  0.26136E+06
 0.11457000E+03  0.31746E+06
 0.11462000E+03  0.37020E+06
 0.11467000E+03  0.41383E+06
 0.11472000E+03  0.43808E+06
 0.11477000E+03  0.44144E+06
 0.11482000E+03  0.43527E+06
 0.11487000E+03  0.42836E+06
 0.11492000E+03  0.41840E+06
 0.11497000E+03  0.40214E+06
 0.11502000E+03  0.38156E+06
 0.11507000E+03  0.35426E+06
 0.11512000E+03  0.31588E+06
 0.11517000E+03  0.27211E+06
 0.11522000E+03  0.23548E+06
 0.11527000E+03  0.21591E+06
 0.11532000E+03  0.21086E+06
 0.11537000E+03  0.21128E+06
 0.11542000E+03  0.21028E+06
 0.11547000E+03  0.20216E+06
 0.11552000E+03  0.18551E+06
 0.11557000E+03  0.16101E+06
 0.11562000E+03  0.12794E+06
 0.11567000E+03  0.90781E+05
 0.11572000E+03  0.59978E+05
 0.11577000E+03  0.42102E+05
 0.11582000E+03  0.39005E+05
 0.11587000E+03  0.49161E+05
 0.11592000E+03  0.66215E+05
 0.11597000E+03  0.85510E+05
 0.11602000E+03  0.10926E+06
 0.11607000E+03  0.14199E+06
 0.11612000E+03  0.18145E+06
 0.11617000E+03  0.21993E+06
 0.11622000E+03  0.24958E+06
 0.11627000E+03  0.26888E+06
 0.11632000E+03  0.28348E+06
 0.11637000E+03  0.29384E+06
 0.11642000E+03  0.29812E+06
 0.11647000E+03  0.29592E+06
 0.11652000E+03  0.28809E+06
 0.11657000E+03  0.27729E+06
 0.11662000E+03  0.26557E+06
 0.11667000E+03  0.25723E+06
 0.11672000E+03  0.25407E+06
 0.11677000E+03  0.25459E+06
 0.11682000E+03  0.25381E+06
 0.11687000E+03  0.24466E+06
 0.11692000E+03  0.22549E+06
 0.11697000E+03  0.20071E+06
 0.11702000E+03  0.17818E+06
 0.11707000E+03  0.16020E+06
 0.11712000E+03  0.14320E+06
 0.11717000E+03  0.12457E+06
 0.11722000E+03  0.10264E+06
 0.11727000E+03  0.77826E+05
 0.11732000E+03  0.49985E+05
 0.11737000E+03  0.17521E+05
 0.11742000E+03 -0.16716E+05
 0.11747000E+03 -0.47780E+05
 0.11752000E+03 -0.75799E+05
 0.11757000E+03 -0.10507E+06
 0.11762000E+03 -0.14165E+06
 0.11767000E+03 -0.19261E+06
 0.11772000E+03 -0.25709E+06
 0.11777000E+03 -0.32420E+06
 0.11782000E+03 -0.38370E+06
 0.11787000E+03 -0.42923E+06
 0.11792000E+03 -0.45763E+06
 0.11797000E+03 -0.46990E+06
 0.11802000E+03 -0.47356E+06
 0.11807000E+03 -0.47989E+06
 0.11812000E+03 -0.49192E+06
 0.11817000E+03 -0.50489E+06
 0.11822000E+03 -0.51756E+06
 0.11827000E+03 -0.52960E+06
 0.11832000E+03 -0.53264E+06
 0.11837000E+03 -0.51986E+06
 0.11842000E+03 -0.49783E+06
 0.11847000E+03 -0.47741E+06
 0.11852000E+03 -0.46249E+06
 0.11857000E+03 -0.44656E+06
 0.11862000E+03 -0.42188E+06
 0.11867000E+03 -0.38953E+06
 0.11872000E+03 -0.35041E+06
 0.11877000E+03 -0.30170E+06
 0.11882000E+03 -0.24352E+06
 0.11887000E+03 -0.18006E+06
 0.11892000E+03 -0.11973E+06
 0.11897000E+03 -0.67501E+05
 0.11902000E+03 -0.22193E+05
 0.11907000E+03  0.19405E+05
 0.11912000E+03  0.61498E+05
 0.11917000E+03  0.10211E+06
 0.11922000E+03  0.13488E+06
 0.11927000E+03  0.15640E+06
 0.11932000E+03  0.16731E+06
 0.11937000E+03  0.16948E+06
 0.11942000E+03  0.16488E+06
 0.11947000E+03  0.15664E+06
 0.11952000E+03  0.14482E+06
 0.11957000E+03  0.12760E+06
 0.11962000E+03  0.10668E+06
 0.11967000E+03  0.85064E+05
 0.11972000E+03  0.59781E+05
 0.11977000E+03  0.28068E+05
 0.11982000E+03 -0.32780E+04
 0.11987000E+03 -0.27178E+05
 0.11992000E+03 -0.44541E+05
 0.11997000E+03 -0.59574E+05
 0.12002000E+03 -0.71076E+05
 0.12007000E+03 -0.74843E+05
 0.12012000E+03 -0.72818E+05
 0.12017000E+03 -0.71143E+05
 0.12022000E+03 -0.73473E+05
 0.12027000E+03 -0.77838E+05
 0.12032000E+03 -0.82187E+05
 0.12037000E+03 -0.92487E+05
 0.12042000E+03 -0.11528E+06
 0.12047000E+03 -0.14333E+06
 0.12052000E+03 -0.16220E+06
 0.12057000E+03 -0.16848E+06
 0.12062000E+03 -0.16863E+06
 0.12067000E+03 -0.16588E+06
 0.12072000E+03 -0.15554E+06
 0.12077000E+03 -0.13475E+06
 0.12082000E+03 -0.10743E+06
 0.12087000E+03 -0.75948E+05
 0.12092000E+03 -0.41706E+05
 0.12097000E+03 -0.11092E+05
 0.12102000E+03  0.69590E+04
 0.12107000E+03  0.12137E+05
 0.12112000E+03  0.13688E+05
 0.12117000E+03  0.18655E+05
 0.12122000E+03  0.29004E+05
 0.12127000E+03  0.43110E+05
 0.12132000E+03  0.55757E+05
 0.12137000E+03  0.61463E+05
 0.12142000E+03  0.60732E+05
 0.12147000E+03  0.62571E+05
 0.12152000E+03  0.74639E+05
 0.12157000E+03  0.95023E+05
 0.12162000E+03  0.11763E+06
 0.12167000E+03  0.13878E+06
 0.12172000E+03  0.15800E+06
 0.12177000E+03  0.17470E+06
 0.12182000E+03  0.18716E+06
 0.12187000E+03  0.19240E+06
 0.12192000E+03  0.18441E+06
 0.12197000E+03  0.15822E+06
 0.12202000E+03  0.11818E+06
 0.12207000E+03  0.77068E+05
 0.12212000E+03  0.44044E+05
 0.12217000E+03  0.21381E+05
 0.12222000E+03  0.89860E+04
 0.12227000E+03  0.49040E+04
 0.12232000E+03  0.45800E+04
 0.12237000E+03  0.36840E+04
 0.12242000E+03  0.41620E+04
 0.12247000E+03  0.13490E+05
 0.12252000E+03  0.33255E+05
 0.12257000E+03  0.56681E+05
 0.12262000E+03  0.77667E+05
 0.12267000E+03  0.93246E+05
 0.12272000E+03  0.10205E+06
 0.12277000E+03  0.10316E+06
 0.12282000E+03  0.97311E+05
 0.12287000E+03  0.92679E+05
 0.12292000E+03  0.10036E+06
 0.12297000E+03  0.12334E+06
 0.12302000E+03  0.15672E+06
 0.12307000E+03  0.19389E+06
 0.12312000E+03  0.23116E+06
 0.12317000E+03  0.26481E+06
 0.12322000E+03  0.29166E+06
 0.12327000E+03  0.31353E+06
 0.12332000E+03  0.33441E+06
 0.12337000E+03  0.35912E+06
 0.12342000E+03  0.38852E+06
 0.12347000E+03  0.41902E+06
 0.12352000E+03  0.44398E+06
 0.12357000E+03  0.45704E+06
 0.12362000E+03  0.46048E+06
 0.12367000E+03  0.45973E+06
 0.12372000E+03  0.45460E+06
 0.12377000E+03  0.44255E+06
 0.12382000E+03  0.42516E+06
 0.12387000E+03  0.40438E+06
 0.12392000E+03  0.37832E+06
 0.12397000E+03  0.34358E+06
 0.12402000E+03  0.29958E+06
 0.12407000E+03  0.25112E+06
 0.12412000E+03  0.20323E+06
 0.12417000E+03  0.15632E+06
 0.12422000E+03  0.10708E+06
 0.12427000E+03  0.53196E+05
 0.12432000E+03 -0.54050E+04
 0.12437000E+03 -0.65963E+05
 0.12442000E+03 -0.12233E+06
 0.12447000E+03 -0.16853E+06
 0.12452000E+03 -0.20096E+06
 0.12457000E+03 -0.22140E+06
 0.12462000E+03 -0.23445E+06
 0.12467000E+03 -0.23988E+06
 0.12472000E+03 -0.23520E+06
 0.12477000E+03 -0.22503E+06
 0.12482000E+03 -0.21541E+06
 0.12487000E+03 -0.20194E+06
 0.12492000E+03 -0.17639E+06
 0.12497000E+03 -0.13940E+06
 0.12502000E+03 -0.97952E+05
 0.12507000E+03 -0.54998E+05
 0.12512000E+03 -0.92990E+04
 0.12517001E+03  0.37588E+05
 0.12521999E+03  0.79346E+05
 0.12527000E+03  0.10839E+06
 0.12532000E+03  0.11881E+06
 0.12537000E+03  0.11203E+06
 0.12542001E+03  0.96514E+05
 0.12546999E+03  0.80109E+05
 0.12552000E+03  0.67183E+05
 0.12557000E+03  0.56978E+05
 0.12562000E+03  0.47186E+05
 0.12567001E+03  0.35759E+05
 0.12571999E+03  0.22358E+05
 0.12577000E+03  0.88820E+04
 0.12582000E+03 -0.82920E+04
 0.12587000E+03 -0.33301E+05
 0.12592001E+03 -0.62735E+05
 0.12596999E+03 -0.90212E+05
 0.12602000E+03 -0.11186E+06
 0.12607000E+03 -0.12864E+06
 0.12612000E+03 -0.14420E+06
 0.12617001E+03 -0.16070E+06
 0.12621999E+03 -0.17876E+06
 0.12627000E+03 -0.19842E+06
 0.12632000E+03 -0.21800E+06
 0.12637000E+03 -0.23571E+06
 0.12642001E+03 -0.25089E+06
 0.12646999E+03 -0.26310E+06
 0.12652000E+03 -0.27413E+06
 0.12657000E+03 -0.28788E+06
 0.12662000E+03 -0.30524E+06
 0.12667001E+03 -0.32348E+06
 0.12671999E+03 -0.34053E+06
 0.12677000E+03 -0.35348E+06
 0.12682000E+03 -0.35728E+06
 0.12687000E+03 -0.34905E+06
 0.12692001E+03 -0.32993E+06
 0.12696999E+03 -0.30424E+06
 0.12702000E+03 -0.27827E+06
 0.12707000E+03 -0.25673E+06
 0.12712000E+03 -0.24300E+06
 0.12717001E+03 -0.23845E+06
 0.12721999E+03 -0.24034E+06
 0.12727000E+03 -0.24465E+06
 0.12732000E+03 -0.24635E+06
 0.12737000E+03 -0.24306E+06
 0.12742001E+03 -0.23696E+06
 0.12746999E+03 -0.22815E+06
 0.12752000E+03 -0.21217E+06
 0.12757000E+03 -0.18505E+06
 0.12762000E+03 -0.14571E+06
 0.12767001E+03 -0.95105E+05
 0.12771999E+03 -0.38722E+05
 0.12777000E+03  0.17119E+05
 0.12782000E+03  0.69561E+05
 0.12787000E+03  0.11831E+06
 0.12792001E+03  0.16277E+06
 0.12796999E+03  0.19890E+06
 0.12802000E+03  0.22220E+06
 0.12807001E+03  0.23217E+06
 0.12812001E+03  0.23232E+06
 0.12817001E+03  0.22577E+06
 0.12822000E+03  0.21632E+06
 0.12827000E+03  0.20910E+06
 0.12832001E+03  0.20482E+06
 0.12837001E+03  0.19720E+06
 0.12842001E+03  0.17929E+06
 0.12847000E+03  0.15179E+06
 0.12852000E+03  0.11959E+06
 0.12857001E+03  0.84913E+05
 0.12862001E+03  0.50129E+05
 0.12867001E+03  0.21944E+05
 0.12872000E+03  0.39360E+04
 0.12877000E+03 -0.76300E+04
 0.12882001E+03 -0.16745E+05
 0.12887001E+03 -0.25643E+05
 0.12892001E+03 -0.35783E+05
 0.12897000E+03 -0.49354E+05
 0.12902000E+03 -0.65009E+05
 0.12907001E+03 -0.77706E+05
 0.12912001E+03 -0.85990E+05
 0.12917001E+03 -0.90147E+05
 0.12922000E+03 -0.90638E+05
 0.12927000E+03 -0.86997E+05
 0.12932001E+03 -0.79873E+05
 0.12937001E+03 -0.74032E+05
 0.12942001E+03 -0.73316E+05
 0.12947000E+03 -0.78104E+05
 0.12952000E+03 -0.87247E+05
 0.12957001E+03 -0.99897E+05
 0.12962001E+03 -0.11407E+06
 0.12967001E+03 -0.12488E+06
 0.12972000E+03 -0.12844E+06
 0.12977000E+03 -0.12509E+06
 0.12982001E+03 -0.11462E+06
 0.12987001E+03 -0.94883E+05
 0.12992001E+03 -0.66091E+05
 0.12997000E+03 -0.31209E+05
 0.13002000E+03  0.65380E+04
 0.13007001E+03  0.44627E+05
 0.13012001E+03  0.78152E+05
 0.13017001E+03  0.10122E+06
 0.13022000E+03  0.11268E+06
 0.13027000E+03  0.11524E+06
 0.13032001E+03  0.11088E+06
 0.13037001E+03  0.10248E+06
 0.13042001E+03  0.95966E+05
 0.13047000E+03  0.95977E+05
 0.13052000E+03  0.10168E+06
 0.13057001E+03  0.10552E+06
 0.13062001E+03  0.10189E+06
 0.13067001E+03  0.92189E+05
 0.13072000E+03  0.76891E+05
 0.13077000E+03  0.54906E+05
 0.13082001E+03  0.28195E+05
 0.13087001E+03  0.15210E+04
 0.13092001E+03 -0.22479E+05
 0.13097000E+03 -0.43885E+05
 0.13102000E+03 -0.62991E+05
 0.13107001E+03 -0.78330E+05
 0.13112001E+03 -0.87695E+05
 0.13117001E+03 -0.91674E+05
 0.13122000E+03 -0.88314E+05
 0.13127000E+03 -0.75973E+05
 0.13132001E+03 -0.58738E+05
 0.13137001E+03 -0.40887E+05
 0.13142001E+03 -0.25176E+05
 0.13147000E+03 -0.12432E+05
 0.13152000E+03 -0.37820E+04
 0.13157001E+03 -0.12170E+04
 0.13162001E+03 -0.28660E+04
 0.13167001E+03 -0.53010E+04
 0.13172000E+03 -0.72090E+04
 0.13177000E+03 -0.79900E+04
 0.13182001E+03 -0.63170E+04
 0.13187001E+03  0.35000E+02
 0.13192001E+03  0.13396E+05
 0.13197000E+03  0.32658E+05
 0.13202000E+03  0.52270E+05
 0.13207001E+03  0.68212E+05
 0.13212001E+03  0.80589E+05
 0.13217001E+03  0.90339E+05
 0.13222000E+03  0.97418E+05
 0.13227000E+03  0.10221E+06
 0.13232001E+03  0.10631E+06
 0.13237001E+03  0.11020E+06
 0.13242001E+03  0.11103E+06
 0.13247000E+03  0.10622E+06
 0.13252000E+03  0.96463E+05
 0.13257001E+03  0.83020E+05
 0.13262001E+03  0.70011E+05
 0.13267001E+03  0.62428E+05
 0.13272000E+03  0.62041E+05
 0.13277000E+03  0.69744E+05
 0.13282001E+03  0.82921E+05
 0.13287001E+03  0.94934E+05
 0.13292001E+03  0.10017E+06
 0.13297000E+03  0.96057E+05
 0.13302000E+03  0.82052E+05
 0.13307001E+03  0.60766E+05
 0.13312001E+03  0.40267E+05
 0.13317001E+03  0.27463E+05
 0.13322000E+03  0.19242E+05
 0.13327000E+03  0.79900E+04
 0.13332001E+03 -0.10247E+05
 0.13337001E+03 -0.36576E+05
 0.13342001E+03 -0.70252E+05
 0.13347000E+03 -0.10798E+06
 0.13352000E+03 -0.14386E+06
 0.13357001E+03 -0.17291E+06
 0.13362001E+03 -0.19385E+06
 0.13367001E+03 -0.20656E+06
 0.13372000E+03 -0.20862E+06
 0.13377000E+03 -0.19667E+06
 0.13382001E+03 -0.17326E+06
 0.13387001E+03 -0.14736E+06
 0.13392001E+03 -0.12494E+06
 0.13397000E+03 -0.10571E+06
 0.13402000E+03 -0.88468E+05
 0.13407001E+03 -0.70940E+05
 0.13412001E+03 -0.51082E+05
 0.13417001E+03 -0.31824E+05
 0.13422000E+03 -0.17507E+05
 0.13427000E+03 -0.78780E+04
 0.13432001E+03  0.77400E+03
 0.13437001E+03  0.91780E+04
 0.13442001E+03  0.17188E+05
 0.13447000E+03  0.28415E+05
 0.13452000E+03  0.45531E+05
 0.13457001E+03  0.67557E+05
 0.13462001E+03  0.91367E+05
 0.13467001E+03  0.11476E+06
 0.13472000E+03  0.13795E+06
 0.13477000E+03  0.16072E+06
 0.13482001E+03  0.18108E+06
 0.13487001E+03  0.19764E+06
 0.13492001E+03  0.21191E+06
 0.13497000E+03  0.22614E+06
 0.13502000E+03  0.24039E+06
 0.13507001E+03  0.25180E+06
 0.13512001E+03  0.25946E+06
 0.13517001E+03  0.26587E+06
 0.13522000E+03  0.27093E+06
 0.13527000E+03  0.27293E+06
 0.13532001E+03  0.27192E+06
 0.13537001E+03  0.27046E+06
 0.13542001E+03  0.27039E+06
 0.13547000E+03  0.27243E+06
 0.13552000E+03  0.27793E+06
 0.13557001E+03  0.28468E+06
 0.13562001E+03  0.28785E+06
 0.13567001E+03  0.28590E+06
 0.13572000E+03  0.28108E+06
 0.13577000E+03  0.27260E+06
 0.13582001E+03  0.25574E+06
 0.13587001E+03  0.22890E+06
 0.13592001E+03  0.19698E+06
 0.13597000E+03  0.16746E+06
 0.13602000E+03  0.14406E+06
 0.13607001E+03  0.12626E+06
 0.13612001E+03  0.11005E+06
 0.13617001E+03  0.91251E+05
 0.13622000E+03  0.69892E+05
 0.13627000E+03  0.46077E+05
 0.13632001E+03  0.17801E+05
 0.13637001E+03 -0.14493E+05
 0.13642001E+03 -0.48779E+05
 0.13647000E+03 -0.84529E+05
 0.13652000E+03 -0.11832E+06
 0.13657001E+03 -0.14462E+06
 0.13662001E+03 -0.16075E+06
 0.13667001E+03 -0.16868E+06
 0.13672000E+03 -0.17362E+06
 0.13677000E+03 -0.17756E+06
 0.13682001E+03 -0.18000E+06
 0.13687001E+03 -0.18227E+06
 0.13692001E+03 -0.18478E+06
 0.13697000E+03 -0.18550E+06
 0.13702000E+03 -0.18326E+06
 0.13707001E+03 -0.17848E+06
 0.13712001E+03 -0.17401E+06
 0.13717001E+03 -0.17401E+06
 0.13722000E+03 -0.17878E+06
 0.13727000E+03 -0.18615E+06
 0.13732001E+03 -0.19397E+06
 0.13737001E+03 -0.19946E+06
 0.13742001E+03 -0.20121E+06
 0.13747000E+03 -0.20123E+06
 0.13752000E+03 -0.20309E+06
 0.13757001E+03 -0.20871E+06
 0.13762001E+03 -0.21898E+06
 0.13767001E+03 -0.23382E+06
 0.13772000E+03 -0.24995E+06
 0.13777000E+03 -0.26284E+06
 0.13782001E+03 -0.27093E+06
 0.13787001E+03 -0.27550E+06
 0.13792001E+03 -0.27630E+06
 0.13797000E+03 -0.27107E+06
 0.13802000E+03 -0.26008E+06
 0.13807001E+03 -0.24605E+06
 0.13812001E+03 -0.23180E+06
 0.13817001E+03 -0.21909E+06
 0.13822000E+03 -0.20790E+06
 0.13827000E+03 -0.19770E+06
 0.13832001E+03 -0.18873E+06
 0.13837001E+03 -0.17981E+06
 0.13842001E+03 -0.16798E+06
 0.13847000E+03 -0.15137E+06
 0.13852000E+03 -0.13229E+06
 0.13857001E+03 -0.11775E+06
 0.13862001E+03 -0.11094E+06
 0.13867001E+03 -0.10900E+06
 0.13872000E+03 -0.10967E+06
 0.13877000E+03 -0.11186E+06
 0.13882001E+03 -0.11338E+06
 0.13887001E+03 -0.11062E+06
 0.13892001E+03 -0.10261E+06
 0.13897000E+03 -0.90538E+05
 0.13902000E+03 -0.74731E+05
 0.13907001E+03 -0.57191E+05
 0.13912001E+03 -0.40566E+05
 0.13917001E+03 -0.26195E+05
 0.13922000E+03 -0.12937E+05
 0.13927000E+03  0.21440E+04
 0.13932001E+03  0.19650E+05
 0.13937001E+03  0.37541E+05
 0.13942001E+03  0.53823E+05
 0.13947000E+03  0.68286E+05
 0.13952000E+03  0.81392E+05
 0.13957001E+03  0.91761E+05
 0.13962001E+03  0.97623E+05
 0.13967001E+03  0.10257E+06
 0.13972000E+03  0.11307E+06
 0.13977000E+03  0.12900E+06
 0.13982001E+03  0.14616E+06
 0.13987001E+03  0.16300E+06
 0.13992001E+03  0.18046E+06
 0.13997000E+03  0.19864E+06
 0.14002000E+03  0.21780E+06
 0.14007001E+03  0.24061E+06
 0.14012001E+03  0.26759E+06
 0.14017001E+03  0.29658E+06
 0.14022000E+03  0.32448E+06
 0.14027000E+03  0.34724E+06
 0.14032001E+03  0.36150E+06
 0.14037001E+03  0.36551E+06
 0.14042001E+03  0.35957E+06
 0.14047000E+03  0.34420E+06
 0.14052000E+03  0.32060E+06
 0.14057001E+03  0.29305E+06
 0.14062001E+03  0.26700E+06
 0.14067001E+03  0.24456E+06
 0.14072000E+03  0.22377E+06
 0.14077000E+03  0.20341E+06
 0.14082001E+03  0.18184E+06
 0.14087001E+03  0.15577E+06
 0.14092001E+03  0.12397E+06
 0.14097000E+03  0.88151E+05
 0.14102000E+03  0.50471E+05
 0.14107001E+03  0.11062E+05
 0.14112001E+03 -0.27923E+05
 0.14117001E+03 -0.62591E+05
 0.14122000E+03 -0.92807E+05
 0.14127000E+03 -0.12092E+06
 0.14132001E+03 -0.14796E+06
 0.14137001E+03 -0.17428E+06
 0.14142001E+03 -0.20174E+06
 0.14147000E+03 -0.23096E+06
 0.14152000E+03 -0.26043E+06
 0.14157001E+03 -0.28861E+06
 0.14162001E+03 -0.31296E+06
 0.14167001E+03 -0.33131E+06
 0.14172000E+03 -0.34306E+06
 0.14177000E+03 -0.34834E+06
 0.14182001E+03 -0.34661E+06
 0.14187001E+03 -0.33820E+06
 0.14192001E+03 -0.32735E+06
 0.14197000E+03 -0.31567E+06
 0.14202000E+03 -0.29904E+06
 0.14207001E+03 -0.27487E+06
 0.14212001E+03 -0.24419E+06
 0.14217001E+03 -0.20703E+06
 0.14222000E+03 -0.16317E+06
 0.14227000E+03 -0.11629E+06
 0.14232001E+03 -0.71769E+05
 0.14237001E+03 -0.32928E+05
 0.14242001E+03  0.14800E+03
 0.14247000E+03  0.27932E+05
 0.14252000E+03  0.51475E+05
 0.14257001E+03  0.74223E+05
 0.14262001E+03  0.99472E+05
 0.14267001E+03  0.12831E+06
 0.14272000E+03  0.15756E+06
 0.14277000E+03  0.18193E+06
 0.14282001E+03  0.19863E+06
 0.14287001E+03  0.20948E+06
 0.14292001E+03  0.21753E+06
 0.14297000E+03  0.22243E+06
 0.14302000E+03  0.22363E+06
 0.14307001E+03  0.22187E+06
 0.14312001E+03  0.21573E+06
 0.14317001E+03  0.20148E+06
 0.14322000E+03  0.17714E+06
 0.14327000E+03  0.14327E+06
 0.14332001E+03  0.10128E+06
 0.14337001E+03  0.53709E+05
 0.14342001E+03  0.50140E+04
 0.14347000E+03 -0.38720E+05
 0.14352000E+03 -0.75740E+05
 0.14357001E+03 -0.10802E+06
 0.14362001E+03 -0.13481E+06
 0.14367001E+03 -0.15418E+06
 0.14372000E+03 -0.16517E+06
 0.14377000E+03 -0.16906E+06
 0.14382001E+03 -0.16773E+06
 0.14387001E+03 -0.16166E+06
 0.14392001E+03 -0.15302E+06
 0.14397000E+03 -0.14387E+06
 0.14402000E+03 -0.13401E+06
 0.14407001E+03 -0.12425E+06
 0.14412001E+03 -0.11652E+06
 0.14417001E+03 -0.11246E+06
 0.14422000E+03 -0.11220E+06
 0.14427000E+03 -0.11242E+06
 0.14432001E+03 -0.10883E+06
 0.14437001E+03 -0.99638E+05
 0.14442001E+03 -0.85515E+05
 0.14447000E+03 -0.69402E+05
 0.14452000E+03 -0.53872E+05
 0.14457001E+03 -0.38126E+05
 0.14462001E+03 -0.20778E+05
 0.14467001E+03 -0.26910E+04
 0.14472000E+03  0.15134E+05
 0.14477000E+03  0.33302E+05
 0.14482001E+03  0.51345E+05
 0.14487001E+03  0.67917E+05
 0.14492001E+03  0.85276E+05
 0.14497000E+03  0.10760E+06
 0.14502000E+03  0.13366E+06
 0.14507001E+03  0.15812E+06
 0.14512001E+03  0.17972E+06
 0.14517001E+03  0.20164E+06
 0.14522000E+03  0.22749E+06
 0.14527000E+03  0.25797E+06
 0.14532001E+03  0.29052E+06
 0.14537001E+03  0.32180E+06
 0.14542001E+03  0.34828E+06
 0.14547000E+03  0.36685E+06
 0.14552000E+03  0.37507E+06
 0.14557001E+03  0.37228E+06
 0.14562001E+03  0.36239E+06
 0.14567001E+03  0.35133E+06
 0.14572000E+03  0.34183E+06
 0.14577000E+03  0.33318E+06
 0.14582001E+03  0.32418E+06
 0.14587001E+03  0.31390E+06
 0.14592001E+03  0.30078E+06
 0.14597000E+03  0.28428E+06
 0.14602000E+03  0.26506E+06
 0.14607001E+03  0.24213E+06
 0.14612001E+03  0.21404E+06
 0.14617001E+03  0.18270E+06
 0.14622000E+03  0.15396E+06
 0.14627000E+03  0.13278E+06
 0.14632001E+03  0.11814E+06
 0.14637001E+03  0.10441E+06
 0.14642001E+03  0.87964E+05
 0.14647000E+03  0.70668E+05
 0.14652000E+03  0.56000E+05
 0.14657001E+03  0.43763E+05
 0.14662001E+03  0.31757E+05
 0.14667001E+03  0.19605E+05
 0.14672000E+03  0.74370E+04
 0.14677000E+03 -0.58260E+04
 0.14682001E+03 -0.23571E+05
 0.14687001E+03 -0.49826E+05
 0.14692001E+03 -0.85126E+05
 0.14697000E+03 -0.12506E+06
 0.14702000E+03 -0.16472E+06
 0.14707001E+03 -0.20325E+06
 0.14712001E+03 -0.24068E+06
 0.14717001E+03 -0.27436E+06
 0.14722000E+03 -0.30083E+06
 0.14727000E+03 -0.31844E+06
 0.14732001E+03 -0.32637E+06
 0.14737001E+03 -0.32568E+06
 0.14742001E+03 -0.31971E+06
 0.14747000E+03 -0.31215E+06
 0.14752000E+03 -0.30514E+06
 0.14757001E+03 -0.29832E+06
 0.14762001E+03 -0.29148E+06
 0.14767001E+03 -0.28334E+06
 0.14772000E+03 -0.27166E+06
 0.14777000E+03 -0.25533E+06
 0.14782001E+03 -0.23462E+06
 0.14787001E+03 -0.20980E+06
 0.14792001E+03 -0.18067E+06
 0.14797000E+03 -0.14938E+06
 0.14802000E+03 -0.11845E+06
 0.14807001E+03 -0.88957E+05
 0.14812001E+03 -0.61607E+05
 0.14817001E+03 -0.37842E+05
 0.14822000E+03 -0.18233E+05
 0.14827000E+03 -0.10270E+04
 0.14832001E+03  0.15150E+05
 0.14837001E+03  0.30680E+05
 0.14842001E+03  0.46094E+05
 0.14847000E+03  0.62338E+05
 0.14852000E+03  0.79858E+05
 0.14857001E+03  0.97529E+05
 0.14862001E+03  0.11284E+06
 0.14867001E+03  0.12396E+06
 0.14872000E+03  0.13108E+06
 0.14877000E+03  0.13479E+06
 0.14882001E+03  0.13587E+06
 0.14887001E+03  0.13612E+06
 0.14892001E+03  0.13724E+06
 0.14897000E+03  0.13968E+06
 0.14902000E+03  0.14250E+06
 0.14907001E+03  0.14431E+06
 0.14912001E+03  0.14347E+06
 0.14917001E+03  0.13914E+06
 0.14922000E+03  0.13323E+06
 0.14927000E+03  0.12755E+06
 0.14932001E+03  0.12191E+06
 0.14937001E+03  0.11469E+06
 0.14942001E+03  0.10446E+06
 0.14947000E+03  0.91202E+05
 0.14952000E+03  0.75399E+05
 0.14957001E+03  0.59104E+05
 0.14962001E+03  0.46149E+05
 0.14967001E+03  0.40564E+05
 0.14972000E+03  0.43337E+05
 0.14977000E+03  0.51122E+05
 0.14982001E+03  0.59483E+05
 0.14987001E+03  0.64403E+05
 0.14992001E+03  0.62438E+05
 0.14997000E+03  0.52504E+05
