-0.29800000E+01  0.22381E+05
-0.29300001E+01  0.24458E+05
-0.28800001E+01  0.25874E+05
-0.28299999E+01  0.26715E+05
-0.27800000E+01  0.27671E+05
-0.27300000E+01  0.28655E+05
-0.26800001E+01  0.28962E+05
-0.26300001E+01  0.28590E+05
-0.25799999E+01  0.27736E+05
-0.25300000E+01  0.25857E+05
-0.24800000E+01  0.22376E+05
-0.24300001E+01  0.17907E+05
-0.23800001E+01  0.12905E+05
-0.23299999E+01  0.83660E+04
-0.22800000E+01  0.45760E+04
-0.22300000E+01  0.99900E+03
-0.21800001E+01 -0.18090E+04
-0.21300001E+01 -0.46860E+04
-0.20799999E+01 -0.79520E+04
-0.20300000E+01 -0.11350E+05
-0.19800000E+01 -0.13794E+05
-0.19299999E+01 -0.14286E+05
-0.18800000E+01 -0.14159E+05
-0.18300000E+01 -0.14058E+05
-0.17800000E+01 -0.14305E+05
-0.17300000E+01 -0.14223E+05
-0.16799999E+01 -0.14409E+05
-0.16300000E+01 -0.15121E+05
-0.15800000E+01 -0.15493E+05
-0.15300000E+01 -0.14990E+05
-0.14800000E+01 -0.14056E+05
-0.14299999E+01 -0.14237E+05
-0.13800000E+01 -0.14798E+05
-0.13300000E+01 -0.16258E+05
-0.12800000E+01 -0.17387E+05
-0.12300000E+01 -0.17184E+05
-0.11799999E+01 -0.16599E+05
-0.11300000E+01 -0.14722E+05
-0.10800000E+01 -0.11354E+05
-0.10300000E+01 -0.70950E+04
-0.98000002E+00 -0.30510E+04
-0.93000007E+00 -0.43800E+03
-0.87999988E+00 -0.14100E+03
-0.82999992E+00 -0.14920E+04
-0.77999997E+00 -0.37580E+04
-0.73000002E+00 -0.62280E+04
-0.68000007E+00 -0.82720E+04
-0.62999988E+00 -0.10574E+05
-0.57999992E+00 -0.13137E+05
-0.52999997E+00 -0.15790E+05
-0.48000002E+00 -0.18957E+05
-0.43000007E+00 -0.22665E+05
-0.37999988E+00 -0.26876E+05
-0.32999992E+00 -0.31395E+05
-0.27999997E+00 -0.35347E+05
-0.23000002E+00 -0.38491E+05
-0.18000007E+00 -0.41009E+05
-0.12999988E+00 -0.42473E+05
-0.79999924E-01 -0.43281E+05
-0.29999971E-01 -0.43799E+05
 0.19999981E-01 -0.43705E+05
 0.69999933E-01 -0.43137E+05
 0.12000012E+00 -0.41752E+05
 0.17000008E+00 -0.40380E+05
 0.22000003E+00 -0.39189E+05
 0.26999998E+00 -0.37227E+05
 0.31999993E+00 -0.35247E+05
 0.37000012E+00 -0.33235E+05
 0.42000008E+00 -0.31331E+05
 0.47000003E+00 -0.29922E+05
 0.51999998E+00 -0.29097E+05
 0.56999993E+00 -0.28260E+05
 0.62000012E+00 -0.26346E+05
 0.67000008E+00 -0.23760E+05
 0.72000003E+00 -0.20964E+05
 0.76999998E+00 -0.18123E+05
 0.81999993E+00 -0.14771E+05
 0.87000012E+00 -0.10399E+05
 0.92000008E+00 -0.48340E+04
 0.97000003E+00  0.14510E+04
 0.10200000E+01  0.79110E+04
 0.10700002E+01  0.14431E+05
 0.11199999E+01  0.20799E+05
 0.11700001E+01  0.27134E+05
 0.12200003E+01  0.33168E+05
 0.12700000E+01  0.38830E+05
 0.13200002E+01  0.43186E+05
 0.13699999E+01  0.45590E+05
 0.14200001E+01  0.46144E+05
 0.14700003E+01  0.44578E+05
 0.15200000E+01  0.41856E+05
 0.15700002E+01  0.38010E+05
 0.16199999E+01  0.32631E+05
 0.16700001E+01  0.25858E+05
 0.17200003E+01  0.17852E+05
 0.17700000E+01  0.98940E+04
 0.18200002E+01  0.23900E+04
 0.18699999E+01 -0.41550E+04
 0.19200001E+01 -0.92130E+04
 0.19700003E+01 -0.14307E+05
 0.20200000E+01 -0.19593E+05
 0.20700002E+01 -0.24653E+05
 0.21199999E+01 -0.29703E+05
 0.21700001E+01 -0.34535E+05
 0.22200003E+01 -0.39414E+05
 0.22700000E+01 -0.43141E+05
 0.23200002E+01 -0.44668E+05
 0.23699999E+01 -0.43837E+05
 0.24200001E+01 -0.40788E+05
 0.24700003E+01 -0.36773E+05
 0.25200000E+01 -0.31712E+05
 0.25700002E+01 -0.25428E+05
 0.26199999E+01 -0.18380E+05
 0.26700001E+01 -0.11003E+05
 0.27200003E+01 -0.40510E+04
 0.27700000E+01  0.26110E+04
 0.28200002E+01  0.90070E+04
 0.28699999E+01  0.14874E+05
 0.29200001E+01  0.20759E+05
 0.29700003E+01  0.27337E+05
 0.30200000E+01  0.33495E+05
 0.30700002E+01  0.37753E+05
 0.31199999E+01  0.41013E+05
 0.31700001E+01  0.43637E+05
 0.32200003E+01  0.45244E+05
 0.32700000E+01  0.46108E+05
 0.33200002E+01  0.46306E+05
 0.33699999E+01  0.45710E+05
 0.34200001E+01  0.43325E+05
 0.34700003E+01  0.39689E+05
 0.35200000E+01  0.35931E+05
 0.35700002E+01  0.31690E+05
 0.36199999E+01  0.27521E+05
 0.36700001E+01  0.23950E+05
 0.37200003E+01  0.21119E+05
 0.37700000E+01  0.19222E+05
 0.38200002E+01  0.17931E+05
 0.38699999E+01  0.16877E+05
 0.39200001E+01  0.15688E+05
 0.39700003E+01  0.14483E+05
 0.40200000E+01  0.12484E+05
 0.40700002E+01  0.90750E+04
 0.41199999E+01  0.52280E+04
 0.41700001E+01  0.14080E+04
 0.42200003E+01 -0.17950E+04
 0.42700000E+01 -0.37540E+04
 0.43200002E+01 -0.48890E+04
 0.43699999E+01 -0.58230E+04
 0.44200001E+01 -0.62900E+04
 0.44700003E+01 -0.64450E+04
 0.45200000E+01 -0.75300E+04
 0.45700002E+01 -0.92940E+04
 0.46199999E+01 -0.11056E+05
 0.46700001E+01 -0.13592E+05
 0.47200003E+01 -0.16900E+05
 0.47700000E+01 -0.19740E+05
 0.48200002E+01 -0.22066E+05
 0.48699999E+01 -0.23610E+05
 0.49200001E+01 -0.24115E+05
 0.49700003E+01 -0.24146E+05
 0.50200000E+01 -0.22916E+05
 0.50700002E+01 -0.20302E+05
 0.51200004E+01 -0.16809E+05
 0.51700006E+01 -0.12510E+05
 0.52199998E+01 -0.71800E+04
 0.52700000E+01 -0.15910E+04
 0.53200002E+01  0.29360E+04
 0.53700004E+01  0.68680E+04
 0.54200006E+01  0.11013E+05
 0.54699998E+01  0.15653E+05
 0.55200000E+01  0.20120E+05
 0.55700002E+01  0.24004E+05
 0.56200004E+01  0.26598E+05
 0.56700006E+01  0.27316E+05
 0.57199998E+01  0.26457E+05
 0.57700000E+01  0.24109E+05
 0.58200002E+01  0.20217E+05
 0.58700004E+01  0.15050E+05
 0.59200006E+01  0.10121E+05
 0.59699998E+01  0.55590E+04
 0.60200000E+01  0.18570E+04
 0.60700002E+01 -0.69200E+03
 0.61200004E+01 -0.34840E+04
 0.61700006E+01 -0.61330E+04
 0.62199998E+01 -0.86470E+04
 0.62700000E+01 -0.11415E+05
 0.63200002E+01 -0.13729E+05
 0.63700004E+01 -0.15055E+05
 0.64200006E+01 -0.15427E+05
 0.64699998E+01 -0.14945E+05
 0.65200000E+01 -0.13763E+05
 0.65700002E+01 -0.12051E+05
 0.66200004E+01 -0.99670E+04
 0.66700006E+01 -0.75140E+04
 0.67199998E+01 -0.44520E+04
 0.67700000E+01 -0.10750E+04
 0.68200002E+01  0.24230E+04
 0.68700004E+01  0.55490E+04
 0.69200006E+01  0.82540E+04
 0.69699998E+01  0.10107E+05
 0.70200000E+01  0.99430E+04
 0.70700002E+01  0.83560E+04
 0.71200004E+01  0.51700E+04
 0.71700006E+01  0.11570E+04
 0.72199998E+01 -0.24920E+04
 0.72700000E+01 -0.63330E+04
 0.73200002E+01 -0.10167E+05
 0.73700004E+01 -0.14082E+05
 0.74200006E+01 -0.17461E+05
 0.74699998E+01 -0.20281E+05
 0.75200000E+01 -0.22552E+05
 0.75700002E+01 -0.23870E+05
 0.76200004E+01 -0.24205E+05
 0.76700006E+01 -0.22648E+05
 0.77199998E+01 -0.19622E+05
 0.77700000E+01 -0.15316E+05
 0.78200002E+01 -0.10028E+05
 0.78700004E+01 -0.38610E+04
 0.79200006E+01  0.40190E+04
 0.79699998E+01  0.13120E+05
 0.80200005E+01  0.23290E+05
 0.80699997E+01  0.34070E+05
 0.81200008E+01  0.44258E+05
 0.81700001E+01  0.53268E+05
 0.82199993E+01  0.61285E+05
 0.82700005E+01  0.68617E+05
 0.83199997E+01  0.74037E+05
 0.83700008E+01  0.77109E+05
 0.84200001E+01  0.78503E+05
 0.84699993E+01  0.78261E+05
 0.85200005E+01  0.76777E+05
 0.85699997E+01  0.73592E+05
 0.86200008E+01  0.68366E+05
 0.86700001E+01  0.62257E+05
 0.87199993E+01  0.56091E+05
 0.87700005E+01  0.50009E+05
 0.88199997E+01  0.43921E+05
 0.88700008E+01  0.37155E+05
 0.89200001E+01  0.29683E+05
 0.89699993E+01  0.21966E+05
 0.90200005E+01  0.14427E+05
 0.90699997E+01  0.78080E+04
 0.91200008E+01  0.28210E+04
 0.91700001E+01 -0.63000E+02
 0.92199993E+01 -0.16050E+04
 0.92700005E+01 -0.31440E+04
 0.93199997E+01 -0.61130E+04
 0.93700008E+01 -0.99040E+04
 0.94200001E+01 -0.13700E+05
 0.94699993E+01 -0.17781E+05
 0.95200005E+01 -0.21961E+05
 0.95699997E+01 -0.26502E+05
 0.96200008E+01 -0.30807E+05
 0.96700001E+01 -0.34223E+05
 0.97199993E+01 -0.36178E+05
 0.97700005E+01 -0.36667E+05
 0.98199997E+01 -0.36183E+05
 0.98700008E+01 -0.34865E+05
 0.99200001E+01 -0.32288E+05
 0.99699993E+01 -0.28361E+05
 0.10020000E+02 -0.23827E+05
 0.10070000E+02 -0.18806E+05
 0.10120001E+02 -0.13500E+05
 0.10170000E+02 -0.80250E+04
 0.10219999E+02 -0.33860E+04
 0.10270000E+02 -0.17200E+03
 0.10320000E+02  0.19460E+04
 0.10370001E+02  0.27070E+04
 0.10420000E+02  0.25940E+04
 0.10469999E+02  0.21170E+04
 0.10520000E+02  0.67200E+03
 0.10570000E+02 -0.19840E+04
 0.10620001E+02 -0.51710E+04
 0.10670000E+02 -0.88290E+04
 0.10719999E+02 -0.12488E+05
 0.10770000E+02 -0.15389E+05
 0.10820000E+02 -0.17188E+05
 0.10870001E+02 -0.18293E+05
 0.10920000E+02 -0.19103E+05
 0.10969999E+02 -0.20275E+05
 0.11020000E+02 -0.22178E+05
 0.11070000E+02 -0.22698E+05
 0.11120001E+02 -0.22474E+05
 0.11170000E+02 -0.23065E+05
 0.11219999E+02 -0.23955E+05
 0.11270000E+02 -0.25531E+05
 0.11320000E+02 -0.27136E+05
 0.11370001E+02 -0.28534E+05
 0.11420000E+02 -0.31237E+05
 0.11469999E+02 -0.34279E+05
 0.11520000E+02 -0.36407E+05
 0.11570000E+02 -0.37819E+05
 0.11620001E+02 -0.38744E+05
 0.11670000E+02 -0.39713E+05
 0.11719999E+02 -0.40692E+05
 0.11770000E+02 -0.42614E+05
 0.11820000E+02 -0.43971E+05
 0.11870001E+02 -0.46545E+05
 0.11920000E+02 -0.45049E+05
 0.11969999E+02 -0.43598E+05
 0.12020000E+02 -0.39051E+05
 0.12070000E+02 -0.34054E+05
 0.12120001E+02 -0.27239E+05
 0.12170000E+02 -0.17443E+05
 0.12219999E+02 -0.14459E+05
 0.12270000E+02 -0.37190E+04
 0.12320000E+02 -0.15694E+05
 0.12370001E+02 -0.21920E+04
 0.12420000E+02 -0.84339E+05
 0.12469999E+02 -0.32468E+06
 0.12520000E+02 -0.60613E+06
 0.12570000E+02 -0.86510E+06
 0.12620001E+02 -0.87964E+06
 0.12670000E+02 -0.61448E+06
 0.12719999E+02 -0.19227E+06
 0.12770000E+02  0.27330E+06
 0.12820000E+02  0.39970E+06
 0.12870001E+02 -0.14061E+06
 0.12920000E+02 -0.49664E+06
 0.12969999E+02 -0.34736E+06
 0.13020000E+02 -0.78615E+06
 0.13070002E+02 -0.13585E+07
 0.13120001E+02 -0.97923E+06
 0.13170000E+02 -0.81107E+06
 0.13220001E+02 -0.98103E+06
 0.13270000E+02 -0.17073E+07
 0.13320002E+02 -0.44111E+07
 0.13370001E+02 -0.51112E+07
 0.13420000E+02 -0.19435E+07
 0.13470001E+02  0.19001E+06
 0.13520000E+02 -0.11564E+07
 0.13570002E+02 -0.24295E+07
 0.13620001E+02 -0.15975E+07
 0.13670000E+02 -0.94200E+06
 0.13720001E+02  0.11598E+07
 0.13770000E+02  0.17448E+07
 0.13820002E+02 -0.11925E+07
 0.13870001E+02 -0.10621E+07
 0.13920000E+02  0.21997E+06
 0.13970001E+02  0.22801E+06
 0.14020000E+02  0.98681E+05
 0.14070002E+02 -0.54390E+06
 0.14120001E+02  0.51090E+06
 0.14170000E+02  0.20517E+07
 0.14220001E+02  0.13493E+07
 0.14270000E+02  0.23902E+05
 0.14320002E+02  0.82116E+06
 0.14370001E+02  0.17197E+07
 0.14420000E+02  0.10277E+07
 0.14470001E+02  0.26649E+05
 0.14520000E+02 -0.48075E+06
 0.14570002E+02  0.64854E+06
 0.14620001E+02 -0.41131E+06
 0.14670000E+02 -0.18801E+07
 0.14720001E+02 -0.62505E+06
 0.14770000E+02 -0.18120E+07
 0.14820002E+02 -0.30609E+07
 0.14870001E+02 -0.26172E+07
 0.14920000E+02 -0.14633E+07
 0.14970001E+02 -0.16516E+07
 0.15020000E+02 -0.21013E+07
 0.15070002E+02 -0.79732E+06
 0.15120001E+02 -0.19679E+07
 0.15170000E+02 -0.22910E+07
 0.15220001E+02 -0.20290E+07
 0.15270000E+02 -0.19664E+07
 0.15320002E+02 -0.15203E+07
 0.15370001E+02 -0.52377E+06
 0.15420000E+02  0.18989E+07
 0.15470001E+02  0.58905E+06
 0.15520000E+02 -0.93499E+06
 0.15570002E+02 -0.11023E+07
 0.15620001E+02 -0.16515E+07
 0.15670000E+02 -0.52338E+06
 0.15720001E+02  0.44011E+06
 0.15770000E+02  0.69224E+06
 0.15820002E+02  0.51580E+06
 0.15870001E+02 -0.55564E+06
 0.15920000E+02 -0.12335E+07
 0.15970001E+02  0.11196E+06
 0.16020000E+02  0.33064E+06
 0.16070002E+02 -0.41181E+06
 0.16120001E+02 -0.83006E+06
 0.16170000E+02 -0.72801E+06
 0.16220001E+02  0.15976E+07
 0.16270000E+02  0.17597E+07
 0.16320002E+02  0.10751E+06
 0.16370001E+02 -0.42188E+05
 0.16420000E+02  0.46800E+06
 0.16470001E+02  0.98126E+05
 0.16520000E+02  0.68042E+06
 0.16570002E+02  0.21983E+06
 0.16620001E+02 -0.19156E+07
 0.16670000E+02 -0.90430E+05
 0.16720001E+02 -0.35998E+06
 0.16770000E+02 -0.15208E+07
 0.16820002E+02 -0.18952E+06
 0.16870001E+02 -0.10679E+07
 0.16920000E+02 -0.73830E+06
 0.16970001E+02  0.10079E+06
 0.17020000E+02 -0.51401E+06
 0.17070002E+02 -0.10757E+07
 0.17120001E+02 -0.15051E+07
 0.17170000E+02 -0.38760E+06
 0.17220001E+02 -0.36885E+06
 0.17270000E+02 -0.20234E+07
 0.17320002E+02 -0.17071E+07
 0.17370001E+02 -0.24440E+07
 0.17420000E+02 -0.16548E+07
 0.17470001E+02  0.11751E+06
 0.17520000E+02 -0.14587E+07
 0.17570002E+02 -0.73530E+06
 0.17620001E+02 -0.23698E+06
 0.17670000E+02 -0.46859E+06
 0.17720001E+02  0.29259E+06
 0.17770000E+02  0.21643E+06
 0.17820002E+02  0.40668E+06
 0.17870001E+02 -0.13268E+06
 0.17920000E+02  0.85216E+06
 0.17970001E+02  0.10015E+07
 0.18020000E+02  0.19143E+06
 0.18070002E+02  0.93602E+06
 0.18120001E+02 -0.44277E+06
 0.18170000E+02 -0.14974E+07
 0.18220001E+02 -0.12380E+07
 0.18270000E+02 -0.12285E+07
 0.18320002E+02 -0.19776E+07
 0.18370001E+02 -0.28260E+07
 0.18420000E+02 -0.10116E+07
 0.18470001E+02 -0.29582E+06
 0.18520000E+02 -0.93303E+06
 0.18570002E+02 -0.56337E+06
 0.18620001E+02 -0.31812E+06
 0.18670000E+02  0.12802E+06
 0.18720001E+02  0.93521E+05
 0.18770000E+02 -0.46050E+06
 0.18820002E+02 -0.86082E+06
 0.18870001E+02 -0.83315E+06
 0.18920000E+02 -0.11896E+07
 0.18970001E+02 -0.98597E+06
 0.19020000E+02 -0.89130E+06
 0.19070002E+02 -0.15036E+07
 0.19120001E+02 -0.11483E+07
 0.19170000E+02 -0.94067E+06
 0.19220001E+02 -0.41822E+06
 0.19270000E+02  0.30582E+06
 0.19320002E+02 -0.30280E+06
 0.19370001E+02 -0.18782E+06
 0.19420000E+02  0.15239E+07
 0.19470001E+02  0.83630E+06
 0.19520000E+02  0.51741E+06
 0.19570002E+02  0.23241E+07
 0.19620001E+02  0.24627E+07
 0.19670000E+02  0.18345E+07
 0.19720001E+02  0.12877E+07
 0.19770000E+02  0.20787E+07
 0.19820002E+02  0.13452E+07
 0.19870001E+02 -0.15305E+05
 0.19920000E+02  0.85845E+06
 0.19970001E+02  0.10242E+07
 0.20020000E+02  0.13471E+07
 0.20070002E+02  0.14462E+07
 0.20120001E+02  0.10359E+07
 0.20170000E+02 -0.86034E+06
 0.20220001E+02 -0.14005E+07
 0.20270000E+02  0.16798E+07
 0.20320002E+02  0.20897E+07
 0.20370001E+02  0.21214E+07
 0.20420000E+02  0.40892E+07
 0.20470001E+02  0.47362E+07
 0.20520000E+02  0.59478E+07
 0.20570002E+02  0.49718E+07
 0.20620001E+02  0.39495E+06
 0.20670000E+02 -0.26456E+07
 0.20720001E+02 -0.38924E+07
 0.20770000E+02 -0.56871E+07
 0.20820002E+02 -0.81856E+07
 0.20870001E+02 -0.99187E+07
 0.20920000E+02 -0.48914E+07
 0.20970001E+02  0.13251E+07
 0.21020000E+02 -0.35295E+07
 0.21070002E+02 -0.50041E+07
 0.21120001E+02  0.66270E+06
 0.21170000E+02  0.50673E+07
 0.21220001E+02  0.84464E+07
 0.21270000E+02  0.10737E+08
 0.21320002E+02  0.11490E+08
 0.21370001E+02  0.11567E+08
 0.21420000E+02  0.12676E+08
 0.21470001E+02  0.91970E+06
 0.21520000E+02 -0.46191E+07
 0.21570002E+02 -0.66567E+06
 0.21620001E+02 -0.45458E+07
 0.21670000E+02  0.16833E+07
 0.21720001E+02  0.61356E+06
 0.21770000E+02 -0.44451E+07
 0.21820002E+02 -0.33592E+06
 0.21870001E+02 -0.28025E+07
 0.21920000E+02  0.13777E+07
 0.21970001E+02 -0.18171E+07
 0.22020000E+02 -0.35447E+07
 0.22070002E+02  0.58049E+07
 0.22120001E+02 -0.66929E+06
 0.22170000E+02  0.99954E+06
 0.22220001E+02  0.84850E+07
 0.22270000E+02  0.83963E+07
 0.22320002E+02  0.34660E+07
 0.22370001E+02 -0.26934E+07
 0.22420000E+02  0.20608E+07
 0.22470001E+02  0.71137E+07
 0.22520000E+02  0.59838E+07
 0.22570002E+02  0.23065E+07
 0.22620001E+02  0.34004E+07
 0.22670000E+02  0.27142E+07
 0.22720001E+02  0.74083E+06
 0.22770000E+02  0.38861E+06
 0.22820002E+02 -0.27870E+07
 0.22870001E+02 -0.45478E+07
 0.22920000E+02 -0.65736E+07
 0.22970001E+02 -0.35564E+07
 0.23020000E+02  0.27751E+06
 0.23070002E+02  0.16553E+06
 0.23120001E+02 -0.74220E+06
 0.23170000E+02 -0.23740E+07
 0.23220001E+02 -0.13150E+06
 0.23270000E+02  0.37522E+07
 0.23320002E+02  0.76575E+07
 0.23370001E+02  0.60449E+07
 0.23420000E+02 -0.20258E+07
 0.23470001E+02 -0.57249E+07
 0.23520000E+02 -0.74448E+07
 0.23570002E+02 -0.90700E+07
 0.23620001E+02 -0.84923E+07
 0.23670000E+02 -0.62893E+07
 0.23720001E+02 -0.66348E+07
 0.23770000E+02 -0.82742E+07
 0.23820002E+02 -0.24621E+07
 0.23870001E+02  0.21307E+07
 0.23920000E+02  0.20615E+07
 0.23970001E+02  0.45240E+07
 0.24020000E+02  0.92455E+07
 0.24070002E+02  0.11140E+08
 0.24120001E+02  0.94511E+07
 0.24170000E+02  0.11364E+08
 0.24220001E+02  0.11640E+08
 0.24270000E+02  0.89720E+07
 0.24320002E+02  0.90518E+07
 0.24370001E+02  0.60499E+07
 0.24420000E+02  0.30516E+07
 0.24470001E+02  0.81907E+06
 0.24520000E+02 -0.19229E+07
 0.24570002E+02  0.48702E+06
 0.24620001E+02 -0.18921E+07
 0.24670000E+02 -0.37015E+07
 0.24720001E+02  0.53802E+06
 0.24770000E+02 -0.98622E+06
 0.24820002E+02 -0.17753E+07
 0.24870001E+02 -0.19089E+07
 0.24920000E+02 -0.11500E+07
 0.24970001E+02  0.61845E+06
 0.25020000E+02  0.62002E+06
 0.25070002E+02  0.51213E+07
 0.25120001E+02  0.40035E+07
 0.25170000E+02 -0.21560E+06
 0.25220001E+02  0.21697E+07
 0.25270000E+02  0.13941E+06
 0.25320002E+02 -0.38766E+07
 0.25370001E+02 -0.16816E+07
 0.25420000E+02 -0.20127E+07
 0.25470001E+02 -0.38960E+07
 0.25520000E+02 -0.21994E+07
 0.25570002E+02 -0.88491E+06
 0.25620001E+02 -0.62938E+06
 0.25670000E+02 -0.16502E+07
 0.25720001E+02 -0.25928E+07
 0.25770000E+02 -0.28205E+07
 0.25820002E+02 -0.13195E+07
 0.25870001E+02  0.87785E+06
 0.25920000E+02  0.24314E+07
 0.25970001E+02  0.37669E+07
 0.26020000E+02  0.31650E+07
 0.26070002E+02  0.29157E+07
 0.26120001E+02  0.42443E+07
 0.26170000E+02  0.38129E+07
 0.26220001E+02  0.19030E+07
 0.26270000E+02  0.20801E+07
 0.26320002E+02  0.14192E+07
 0.26370001E+02  0.13258E+07
 0.26420000E+02  0.38835E+07
 0.26470001E+02  0.27305E+07
 0.26520000E+02  0.75808E+06
 0.26570002E+02  0.10531E+07
 0.26620001E+02  0.70777E+05
 0.26670000E+02 -0.19706E+07
 0.26720001E+02 -0.32088E+07
 0.26770000E+02 -0.33959E+07
 0.26820002E+02 -0.33417E+07
 0.26870001E+02 -0.16430E+07
 0.26920000E+02 -0.34515E+06
 0.26970001E+02 -0.19202E+07
 0.27020000E+02 -0.36838E+07
 0.27070002E+02 -0.40934E+07
 0.27120001E+02 -0.28533E+07
 0.27170000E+02 -0.21310E+07
 0.27220001E+02 -0.24655E+07
 0.27270000E+02 -0.24281E+07
 0.27320002E+02 -0.36243E+07
 0.27370001E+02 -0.41451E+07
 0.27420000E+02 -0.30645E+07
 0.27470001E+02 -0.28148E+07
 0.27520000E+02 -0.20085E+07
 0.27570002E+02 -0.27736E+06
 0.27620001E+02  0.10317E+07
 0.27670000E+02  0.28603E+07
 0.27720001E+02  0.50458E+07
 0.27770000E+02  0.47426E+07
 0.27820002E+02  0.34064E+07
 0.27870001E+02  0.22423E+07
 0.27920000E+02  0.44549E+06
 0.27970001E+02 -0.98262E+05
 0.28020000E+02  0.68587E+05
 0.28070002E+02 -0.37778E+06
 0.28120001E+02 -0.17793E+07
 0.28170000E+02 -0.27789E+07
 0.28220001E+02 -0.22377E+07
 0.28270000E+02 -0.24604E+06
 0.28320002E+02 -0.83099E+06
 0.28370001E+02 -0.38244E+07
 0.28420000E+02 -0.35534E+07
 0.28470001E+02 -0.21579E+07
 0.28520000E+02 -0.20115E+07
 0.28570002E+02 -0.22465E+07
 0.28620001E+02 -0.96234E+06
 0.28670000E+02 -0.26370E+05
 0.28720001E+02 -0.84570E+05
 0.28770000E+02  0.19355E+07
 0.28820002E+02  0.19024E+07
 0.28870001E+02 -0.37975E+06
 0.28920000E+02 -0.16267E+07
 0.28970001E+02 -0.37263E+07
 0.29020000E+02 -0.42623E+07
 0.29070000E+02 -0.19410E+07
 0.29120003E+02 -0.11932E+07
 0.29170002E+02 -0.13525E+07
 0.29220001E+02 -0.14402E+07
 0.29270000E+02 -0.18064E+07
 0.29320000E+02 -0.36886E+06
 0.29370003E+02  0.83028E+06
 0.29420002E+02 -0.58102E+05
 0.29470001E+02 -0.14386E+07
 0.29520000E+02 -0.28428E+07
 0.29570000E+02 -0.35517E+07
 0.29620003E+02 -0.29740E+07
 0.29670002E+02 -0.22498E+07
 0.29720001E+02 -0.14477E+07
 0.29770000E+02 -0.21793E+07
 0.29820000E+02 -0.41815E+07
 0.29870003E+02 -0.46929E+07
 0.29920002E+02 -0.47602E+07
 0.29970001E+02 -0.35230E+07
 0.30020000E+02 -0.12899E+07
 0.30070000E+02 -0.11947E+06
 0.30120003E+02  0.44630E+06
 0.30170002E+02  0.48615E+06
 0.30220001E+02  0.91733E+06
 0.30270000E+02  0.19935E+07
 0.30320000E+02  0.24258E+07
 0.30370003E+02  0.15109E+07
 0.30420002E+02 -0.40632E+06
 0.30470001E+02 -0.16683E+07
 0.30520000E+02 -0.16047E+07
 0.30570000E+02 -0.13640E+07
 0.30620003E+02 -0.87250E+06
 0.30670002E+02 -0.23933E+06
 0.30720001E+02  0.23343E+06
 0.30770000E+02  0.13034E+07
 0.30820000E+02  0.23977E+07
 0.30870003E+02  0.35855E+07
 0.30920002E+02  0.44723E+07
 0.30970001E+02  0.45757E+07
 0.31020000E+02  0.53795E+07
 0.31070000E+02  0.48465E+07
 0.31120003E+02  0.30506E+07
 0.31170002E+02  0.26502E+07
 0.31220001E+02  0.17898E+07
 0.31270000E+02  0.11905E+07
 0.31320000E+02  0.20318E+07
 0.31370003E+02  0.20780E+07
 0.31420002E+02  0.20693E+07
 0.31470001E+02  0.18532E+07
 0.31520000E+02  0.97867E+06
 0.31570000E+02  0.76426E+06
 0.31620003E+02 -0.10448E+06
 0.31670002E+02 -0.95394E+06
 0.31720001E+02 -0.16979E+07
 0.31770000E+02 -0.23773E+07
 0.31820000E+02 -0.26947E+07
 0.31870003E+02 -0.37866E+07
 0.31920002E+02 -0.37545E+07
 0.31970001E+02 -0.28016E+07
 0.32020000E+02 -0.21591E+07
 0.32070000E+02 -0.27099E+07
 0.32120003E+02 -0.33354E+07
 0.32170002E+02 -0.25581E+07
 0.32220001E+02 -0.23663E+07
 0.32270000E+02 -0.25723E+07
 0.32320000E+02 -0.28751E+07
 0.32370003E+02 -0.27520E+07
 0.32420002E+02 -0.18177E+07
 0.32470001E+02 -0.10816E+07
 0.32520000E+02 -0.76229E+06
 0.32570000E+02 -0.82841E+06
 0.32620003E+02 -0.11015E+07
 0.32670002E+02 -0.12731E+07
 0.32720001E+02  0.56844E+05
 0.32770000E+02  0.13155E+07
 0.32820000E+02  0.15356E+07
 0.32870003E+02  0.28066E+07
 0.32920002E+02  0.33749E+07
 0.32970001E+02  0.27360E+07
 0.33020000E+02  0.26604E+07
 0.33070000E+02  0.30169E+07
 0.33120003E+02  0.36346E+07
 0.33170002E+02  0.40196E+07
 0.33220001E+02  0.41932E+07
 0.33270000E+02  0.43313E+07
 0.33320000E+02  0.28668E+07
 0.33370003E+02  0.13980E+07
 0.33420002E+02  0.18485E+07
 0.33470001E+02  0.15626E+07
 0.33520000E+02  0.84666E+06
 0.33570000E+02  0.31158E+06
 0.33620003E+02 -0.73846E+06
 0.33670002E+02 -0.70521E+06
 0.33720001E+02 -0.20826E+06
 0.33770000E+02  0.51380E+06
 0.33820000E+02  0.12598E+07
 0.33870003E+02  0.94512E+06
 0.33920002E+02  0.42799E+06
 0.33970001E+02  0.27881E+06
 0.34020000E+02  0.47591E+06
 0.34070000E+02  0.27071E+06
 0.34120003E+02  0.51683E+05
 0.34170002E+02  0.25241E+05
 0.34220001E+02 -0.30103E+06
 0.34270000E+02 -0.48407E+06
 0.34320000E+02 -0.93788E+06
 0.34370003E+02 -0.14624E+07
 0.34420002E+02 -0.17994E+07
 0.34470001E+02 -0.17302E+07
 0.34520000E+02 -0.89565E+06
 0.34570000E+02 -0.19211E+06
 0.34620003E+02 -0.42227E+06
 0.34670002E+02 -0.13978E+07
 0.34720001E+02 -0.17700E+07
 0.34770000E+02 -0.17292E+07
 0.34820000E+02 -0.19978E+07
 0.34870003E+02 -0.11400E+07
 0.34920002E+02 -0.86365E+06
 0.34970001E+02 -0.16036E+07
 0.35020000E+02 -0.97753E+06
 0.35070000E+02 -0.81548E+06
 0.35120003E+02 -0.69282E+06
 0.35170002E+02  0.63980E+04
 0.35220001E+02 -0.31292E+05
 0.35270000E+02  0.77715E+06
 0.35320000E+02  0.17525E+07
 0.35370003E+02  0.21188E+07
 0.35420002E+02  0.22951E+07
 0.35470001E+02  0.19134E+07
 0.35520000E+02  0.17170E+07
 0.35570000E+02  0.16713E+07
 0.35620003E+02  0.20192E+07
 0.35670002E+02  0.32287E+07
 0.35720001E+02  0.37376E+07
 0.35770000E+02  0.36225E+07
 0.35820000E+02  0.35801E+07
 0.35870003E+02  0.32415E+07
 0.35920002E+02  0.33764E+07
 0.35970001E+02  0.27524E+07
 0.36020000E+02  0.19399E+07
 0.36070000E+02  0.18923E+07
 0.36120003E+02  0.86833E+06
 0.36170002E+02 -0.66903E+05
 0.36220001E+02 -0.94402E+06
 0.36270000E+02 -0.16070E+07
 0.36320000E+02 -0.13483E+07
 0.36370003E+02 -0.11113E+07
 0.36420002E+02 -0.42120E+06
 0.36470001E+02  0.34300E+06
 0.36520000E+02  0.46696E+06
 0.36570000E+02  0.37843E+06
 0.36620003E+02  0.24630E+06
 0.36670002E+02 -0.31810E+06
 0.36720001E+02 -0.54391E+06
 0.36770000E+02 -0.34666E+06
 0.36820000E+02 -0.26670E+06
 0.36870003E+02 -0.26944E+06
 0.36920002E+02 -0.10205E+07
 0.36970001E+02 -0.15594E+07
 0.37020000E+02 -0.17701E+07
 0.37070000E+02 -0.21645E+07
 0.37120003E+02 -0.16698E+07
 0.37170002E+02 -0.78592E+06
 0.37220001E+02 -0.65253E+06
 0.37270000E+02 -0.87188E+05
 0.37320000E+02  0.48424E+06
 0.37370003E+02  0.40530E+04
 0.37420002E+02 -0.12803E+06
 0.37470001E+02 -0.30154E+06
 0.37520000E+02 -0.49932E+06
 0.37570000E+02 -0.59845E+06
 0.37620003E+02 -0.13012E+07
 0.37670002E+02 -0.22153E+07
 0.37720001E+02 -0.28844E+07
 0.37770000E+02 -0.25498E+07
 0.37820000E+02 -0.19033E+07
 0.37870003E+02 -0.12782E+07
 0.37920002E+02 -0.36845E+06
 0.37970001E+02  0.70181E+05
 0.38020000E+02  0.70597E+06
 0.38070000E+02  0.17060E+07
 0.38120003E+02  0.23719E+07
 0.38170002E+02  0.26391E+07
 0.38220001E+02  0.27668E+07
 0.38270000E+02  0.29237E+07
 0.38320000E+02  0.26663E+07
 0.38370003E+02  0.25315E+07
 0.38420002E+02  0.24604E+07
 0.38470001E+02  0.23020E+07
 0.38520000E+02  0.20899E+07
 0.38570000E+02  0.22932E+07
 0.38620003E+02  0.26954E+07
 0.38670002E+02  0.19093E+07
 0.38720001E+02  0.14646E+07
 0.38770000E+02  0.14335E+07
 0.38820000E+02  0.13651E+07
 0.38870003E+02  0.13355E+07
 0.38920002E+02  0.83960E+06
 0.38970001E+02  0.91640E+06
 0.39020000E+02  0.72432E+06
 0.39070000E+02  0.41633E+06
 0.39120003E+02  0.75419E+06
 0.39170002E+02  0.69568E+06
 0.39220001E+02  0.65510E+06
 0.39270000E+02  0.52445E+06
 0.39320000E+02  0.40070E+06
 0.39370003E+02  0.89688E+06
 0.39420002E+02  0.91432E+06
 0.39470001E+02  0.63585E+06
 0.39520000E+02  0.55692E+06
 0.39570000E+02  0.17162E+05
 0.39620003E+02 -0.51258E+06
 0.39670002E+02 -0.89656E+06
 0.39720001E+02 -0.14710E+07
 0.39770000E+02 -0.16517E+07
 0.39820000E+02 -0.14987E+07
 0.39870003E+02 -0.15345E+07
 0.39920002E+02 -0.18192E+07
 0.39970001E+02 -0.18333E+07
 0.40020000E+02 -0.14694E+07
 0.40070000E+02 -0.15148E+07
 0.40120003E+02 -0.16976E+07
 0.40170002E+02 -0.15602E+07
 0.40220001E+02 -0.14564E+07
 0.40270000E+02 -0.14828E+07
 0.40320000E+02 -0.13854E+07
 0.40370003E+02 -0.98902E+06
 0.40420002E+02 -0.66454E+06
 0.40470001E+02 -0.66259E+06
 0.40520000E+02 -0.66758E+06
 0.40570000E+02 -0.60472E+06
 0.40620003E+02 -0.89450E+06
 0.40670002E+02 -0.13575E+07
 0.40720001E+02 -0.13310E+07
 0.40770000E+02 -0.11107E+07
 0.40820000E+02 -0.11070E+07
 0.40870003E+02 -0.10575E+07
 0.40920002E+02 -0.86558E+06
 0.40970001E+02 -0.94863E+06
 0.41020000E+02 -0.10270E+07
 0.41070000E+02 -0.87014E+06
 0.41120003E+02 -0.65071E+06
 0.41170002E+02 -0.10186E+06
 0.41220001E+02  0.26161E+06
 0.41270000E+02  0.53045E+06
 0.41320000E+02  0.92488E+06
 0.41370003E+02  0.13957E+07
 0.41420002E+02  0.18559E+07
 0.41470001E+02  0.19524E+07
 0.41520000E+02  0.20441E+07
 0.41570000E+02  0.17904E+07
 0.41620003E+02  0.14897E+07
 0.41670002E+02  0.13051E+07
 0.41720001E+02  0.85385E+06
 0.41770000E+02  0.68509E+06
 0.41820000E+02  0.70507E+06
 0.41870003E+02  0.86400E+06
 0.41920002E+02  0.84798E+06
 0.41970001E+02  0.84771E+06
 0.42020000E+02  0.94482E+06
 0.42070000E+02  0.52980E+06
 0.42120003E+02  0.31885E+06
 0.42170002E+02  0.18108E+06
 0.42220001E+02 -0.65698E+05
 0.42270000E+02 -0.27073E+06
 0.42320000E+02 -0.48979E+06
 0.42370003E+02 -0.57276E+06
 0.42420002E+02 -0.10351E+07
 0.42470001E+02 -0.14005E+07
 0.42520000E+02 -0.14981E+07
 0.42570000E+02 -0.15846E+07
 0.42620003E+02 -0.14792E+07
 0.42670002E+02 -0.14570E+07
 0.42720001E+02 -0.15617E+07
 0.42770000E+02 -0.18975E+07
 0.42820000E+02 -0.22480E+07
 0.42870003E+02 -0.23779E+07
 0.42920002E+02 -0.25646E+07
 0.42970001E+02 -0.27547E+07
 0.43020000E+02 -0.29190E+07
 0.43070000E+02 -0.31731E+07
 0.43120003E+02 -0.31349E+07
 0.43170002E+02 -0.28266E+07
 0.43220001E+02 -0.26883E+07
 0.43270000E+02 -0.27151E+07
 0.43320000E+02 -0.24200E+07
 0.43370003E+02 -0.16526E+07
 0.43420002E+02 -0.81573E+06
 0.43470001E+02  0.18824E+06
 0.43520000E+02  0.10359E+07
 0.43570000E+02  0.13686E+07
 0.43620003E+02  0.16881E+07
 0.43670002E+02  0.21903E+07
 0.43720001E+02  0.25269E+07
 0.43770000E+02  0.28485E+07
 0.43820000E+02  0.29559E+07
 0.43870003E+02  0.26806E+07
 0.43920002E+02  0.26055E+07
 0.43970001E+02  0.23622E+07
 0.44020000E+02  0.20590E+07
 0.44070000E+02  0.15490E+07
 0.44120003E+02  0.66889E+06
 0.44170002E+02  0.39847E+06
 0.44220001E+02  0.24075E+06
 0.44270000E+02  0.25362E+05
 0.44320000E+02  0.13751E+06
 0.44370003E+02  0.36644E+06
 0.44420002E+02  0.10602E+07
 0.44470001E+02  0.14878E+07
 0.44520000E+02  0.15742E+07
 0.44570000E+02  0.19820E+07
 0.44620003E+02  0.21610E+07
 0.44670002E+02  0.21697E+07
 0.44720001E+02  0.18800E+07
 0.44770000E+02  0.15293E+07
 0.44820000E+02  0.12526E+07
 0.44870003E+02  0.87080E+06
 0.44920002E+02  0.95379E+06
 0.44970001E+02  0.99581E+06
 0.45020000E+02  0.68514E+06
 0.45070000E+02  0.88124E+05
 0.45120003E+02 -0.67322E+06
 0.45170002E+02 -0.11140E+07
 0.45220001E+02 -0.14804E+07
 0.45270000E+02 -0.17478E+07
 0.45320000E+02 -0.19034E+07
 0.45370003E+02 -0.22781E+07
 0.45420002E+02 -0.22502E+07
 0.45470001E+02 -0.17495E+07
 0.45520000E+02 -0.14015E+07
 0.45570000E+02 -0.99004E+06
 0.45620003E+02 -0.80779E+06
 0.45670002E+02 -0.97787E+06
 0.45720001E+02 -0.10260E+07
 0.45770000E+02 -0.10891E+07
 0.45820000E+02 -0.96392E+06
 0.45870003E+02 -0.82490E+06
 0.45920002E+02 -0.88407E+06
 0.45970001E+02 -0.64138E+06
 0.46020000E+02 -0.29710E+06
 0.46070000E+02 -0.11068E+06
 0.46120003E+02  0.11688E+06
 0.46170002E+02  0.48529E+06
 0.46220001E+02  0.76242E+06
 0.46270000E+02  0.81840E+06
 0.46320000E+02  0.82453E+06
 0.46370003E+02  0.83422E+06
 0.46420002E+02  0.89996E+06
 0.46470001E+02  0.91082E+06
 0.46520000E+02  0.75489E+06
 0.46570000E+02  0.54758E+06
 0.46620003E+02  0.49647E+06
 0.46670002E+02  0.49724E+06
 0.46720001E+02  0.52280E+06
 0.46770000E+02  0.60158E+06
 0.46820000E+02  0.56565E+06
 0.46870003E+02  0.54280E+06
 0.46920002E+02  0.28524E+06
 0.46970001E+02 -0.57041E+05
 0.47020000E+02 -0.28321E+06
 0.47070000E+02 -0.55708E+06
 0.47120003E+02 -0.75410E+06
 0.47170002E+02 -0.11848E+07
 0.47220001E+02 -0.14648E+07
 0.47270000E+02 -0.12614E+07
 0.47320000E+02 -0.10397E+07
 0.47370003E+02 -0.89300E+06
 0.47420002E+02 -0.78380E+06
 0.47470001E+02 -0.68022E+06
 0.47520000E+02 -0.72640E+06
 0.47570000E+02 -0.62936E+06
 0.47620003E+02 -0.41810E+06
 0.47670002E+02 -0.45425E+06
 0.47720001E+02 -0.12462E+06
 0.47770000E+02  0.64046E+06
 0.47820000E+02  0.12503E+07
 0.47870003E+02  0.16121E+07
 0.47920002E+02  0.18289E+07
 0.47970001E+02  0.17321E+07
 0.48020000E+02  0.15143E+07
 0.48070000E+02  0.13283E+07
 0.48120003E+02  0.99945E+06
 0.48170002E+02  0.83577E+06
 0.48220001E+02  0.82268E+06
 0.48270000E+02  0.97547E+06
 0.48320000E+02  0.11598E+07
 0.48370003E+02  0.11305E+07
 0.48420002E+02  0.10545E+07
 0.48470001E+02  0.80300E+06
 0.48520000E+02  0.58045E+06
 0.48570000E+02  0.33652E+06
 0.48620003E+02 -0.44736E+05
 0.48670002E+02 -0.32813E+06
 0.48720001E+02 -0.61387E+06
 0.48770000E+02 -0.88398E+06
 0.48820000E+02 -0.12277E+07
 0.48870003E+02 -0.16939E+07
 0.48920002E+02 -0.19436E+07
 0.48970001E+02 -0.18921E+07
 0.49020000E+02 -0.18584E+07
 0.49070000E+02 -0.19100E+07
 0.49120003E+02 -0.18280E+07
 0.49170002E+02 -0.14388E+07
 0.49220001E+02 -0.96701E+06
 0.49270000E+02 -0.57865E+06
 0.49320000E+02 -0.21101E+06
 0.49370003E+02 -0.13058E+06
 0.49420002E+02 -0.26521E+06
 0.49470001E+02 -0.44386E+06
 0.49520000E+02 -0.69220E+06
 0.49570000E+02 -0.90513E+06
 0.49620003E+02 -0.10119E+07
 0.49670002E+02 -0.11439E+07
 0.49720001E+02 -0.12168E+07
 0.49770000E+02 -0.10794E+07
 0.49820000E+02 -0.93612E+06
 0.49870003E+02 -0.69791E+06
 0.49920002E+02 -0.42688E+06
 0.49970001E+02 -0.95901E+05
 0.50020000E+02  0.21422E+06
 0.50070000E+02  0.41185E+06
 0.50120003E+02  0.90483E+06
 0.50170002E+02  0.13017E+07
 0.50220001E+02  0.15642E+07
 0.50270000E+02  0.17895E+07
 0.50320000E+02  0.15706E+07
 0.50370003E+02  0.13672E+07
 0.50420002E+02  0.13493E+07
 0.50470001E+02  0.11302E+07
 0.50520000E+02  0.81301E+06
 0.50570000E+02  0.59034E+06
 0.50620003E+02  0.48556E+06
 0.50670002E+02  0.55164E+06
 0.50720001E+02  0.72629E+06
 0.50770000E+02  0.63614E+06
 0.50820000E+02  0.35521E+06
 0.50870003E+02  0.32262E+06
 0.50920002E+02  0.22004E+06
 0.50970001E+02  0.23321E+05
 0.51020000E+02  0.15624E+06
 0.51070000E+02  0.34813E+06
 0.51120003E+02  0.38678E+06
 0.51170002E+02  0.35955E+06
 0.51220001E+02  0.29304E+06
 0.51270000E+02  0.20015E+06
 0.51320000E+02  0.66868E+05
 0.51370003E+02  0.31444E+05
 0.51420002E+02  0.42791E+05
 0.51470001E+02 -0.10857E+06
 0.51520000E+02 -0.22679E+06
 0.51570000E+02 -0.26978E+06
 0.51620003E+02 -0.27261E+06
 0.51670002E+02 -0.70300E+05
 0.51720001E+02  0.11068E+06
 0.51770000E+02  0.22144E+06
 0.51820000E+02  0.32670E+06
 0.51870003E+02  0.31935E+06
 0.51920002E+02  0.39310E+06
 0.51970001E+02  0.42482E+06
 0.52020000E+02  0.23369E+06
 0.52070000E+02  0.87810E+05
 0.52120003E+02  0.12238E+06
 0.52170002E+02  0.20578E+06
 0.52220001E+02  0.13880E+06
 0.52270000E+02  0.22385E+05
 0.52320000E+02 -0.21208E+05
 0.52370003E+02 -0.10992E+06
 0.52420002E+02 -0.19475E+06
 0.52470001E+02 -0.27999E+06
 0.52520000E+02 -0.36569E+06
 0.52570000E+02 -0.45576E+06
 0.52620003E+02 -0.64122E+06
 0.52670002E+02 -0.89873E+06
 0.52720001E+02 -0.12667E+07
 0.52770000E+02 -0.13222E+07
 0.52820000E+02 -0.10899E+07
 0.52870003E+02 -0.10931E+07
 0.52920002E+02 -0.10371E+07
 0.52970001E+02 -0.84502E+06
 0.53020000E+02 -0.63510E+06
 0.53070000E+02 -0.38233E+06
 0.53120003E+02 -0.20662E+06
 0.53170002E+02 -0.22987E+06
 0.53220001E+02 -0.36096E+06
 0.53270000E+02 -0.47207E+06
 0.53320000E+02 -0.54742E+06
 0.53370003E+02 -0.50204E+06
 0.53420002E+02 -0.57508E+06
 0.53470001E+02 -0.66082E+06
 0.53520000E+02 -0.66124E+06
 0.53570000E+02 -0.64563E+06
 0.53620003E+02 -0.44673E+06
 0.53670002E+02 -0.32718E+06
 0.53720001E+02 -0.30024E+06
 0.53770000E+02 -0.22951E+06
 0.53820000E+02 -0.23733E+06
 0.53870003E+02 -0.31507E+06
 0.53920002E+02 -0.39315E+06
 0.53970001E+02 -0.46316E+06
 0.54020000E+02 -0.39704E+06
 0.54070000E+02 -0.14671E+06
 0.54120003E+02  0.16533E+06
 0.54170002E+02  0.50781E+06
 0.54220001E+02  0.87170E+06
 0.54270000E+02  0.12794E+07
 0.54320000E+02  0.15109E+07
 0.54370003E+02  0.15999E+07
 0.54420002E+02  0.15680E+07
 0.54470001E+02  0.12760E+07
 0.54520000E+02  0.10516E+07
 0.54570000E+02  0.97135E+06
 0.54620003E+02  0.83710E+06
 0.54670002E+02  0.70575E+06
 0.54720001E+02  0.75065E+06
 0.54770000E+02  0.82045E+06
 0.54820000E+02  0.79514E+06
 0.54870003E+02  0.65611E+06
 0.54920002E+02  0.45416E+06
 0.54970001E+02  0.38321E+06
 0.55020000E+02  0.33135E+06
 0.55070000E+02  0.27982E+06
 0.55120003E+02  0.24714E+06
 0.55170002E+02  0.19007E+06
 0.55220001E+02  0.23528E+06
 0.55270000E+02  0.30602E+06
 0.55320000E+02  0.27730E+06
 0.55370003E+02  0.26415E+06
 0.55420002E+02  0.18692E+06
 0.55470001E+02  0.38751E+05
 0.55520000E+02 -0.34190E+04
 0.55570000E+02 -0.32765E+05
 0.55620003E+02 -0.77081E+05
 0.55670002E+02 -0.16144E+06
 0.55720001E+02 -0.25220E+06
 0.55770000E+02 -0.37613E+06
 0.55820000E+02 -0.50940E+06
 0.55870003E+02 -0.46381E+06
 0.55920002E+02 -0.45639E+06
 0.55970001E+02 -0.52089E+06
 0.56020000E+02 -0.49842E+06
 0.56070000E+02 -0.45775E+06
 0.56120003E+02 -0.38582E+06
 0.56170002E+02 -0.24965E+06
 0.56220001E+02 -0.16507E+06
 0.56270000E+02 -0.26543E+05
 0.56320000E+02  0.25224E+06
 0.56370003E+02  0.56720E+06
 0.56420002E+02  0.83625E+06
 0.56470001E+02  0.79143E+06
 0.56520000E+02  0.54898E+06
 0.56570000E+02  0.32804E+06
 0.56620003E+02  0.13119E+06
 0.56670002E+02 -0.92460E+04
 0.56720001E+02 -0.16935E+06
 0.56770000E+02 -0.24762E+06
 0.56820000E+02 -0.26770E+06
 0.56870003E+02 -0.37507E+06
 0.56920002E+02 -0.41708E+06
 0.56970001E+02 -0.39190E+06
 0.57020000E+02 -0.42668E+06
 0.57070000E+02 -0.41604E+06
 0.57120003E+02 -0.36094E+06
 0.57170002E+02 -0.26904E+06
 0.57220001E+02 -0.98285E+05
 0.57270000E+02  0.62669E+05
 0.57320000E+02  0.22577E+06
 0.57370003E+02  0.35220E+06
 0.57420002E+02  0.36655E+06
 0.57470001E+02  0.40872E+06
 0.57520000E+02  0.55313E+06
 0.57570000E+02  0.68096E+06
 0.57620003E+02  0.84024E+06
 0.57670002E+02  0.10118E+07
 0.57720001E+02  0.10826E+07
 0.57770000E+02  0.11439E+07
 0.57820000E+02  0.10836E+07
 0.57870003E+02  0.82623E+06
 0.57920002E+02  0.52536E+06
 0.57970001E+02  0.26138E+06
 0.58020000E+02  0.12277E+06
 0.58070000E+02 -0.21626E+05
 0.58120003E+02 -0.33588E+06
 0.58170002E+02 -0.60972E+06
 0.58220001E+02 -0.76100E+06
 0.58270000E+02 -0.88658E+06
 0.58320000E+02 -0.95337E+06
 0.58370003E+02 -0.95954E+06
 0.58420002E+02 -0.93550E+06
 0.58470001E+02 -0.91865E+06
 0.58520000E+02 -0.84188E+06
 0.58570000E+02 -0.61654E+06
 0.58620003E+02 -0.37925E+06
 0.58670002E+02 -0.25863E+06
 0.58720001E+02 -0.23484E+06
 0.58770000E+02 -0.30231E+06
 0.58820000E+02 -0.44364E+06
 0.58870003E+02 -0.56023E+06
 0.58920002E+02 -0.57204E+06
 0.58970001E+02 -0.57832E+06
 0.59020000E+02 -0.62843E+06
 0.59070000E+02 -0.63752E+06
 0.59120003E+02 -0.67372E+06
 0.59170002E+02 -0.74545E+06
 0.59220001E+02 -0.79982E+06
 0.59270000E+02 -0.90026E+06
 0.59320000E+02 -0.99495E+06
 0.59370003E+02 -0.96445E+06
 0.59420002E+02 -0.87682E+06
 0.59470001E+02 -0.80492E+06
 0.59520000E+02 -0.71213E+06
 0.59570000E+02 -0.53337E+06
 0.59620003E+02 -0.23645E+06
 0.59670002E+02  0.99518E+05
 0.59720001E+02  0.45324E+06
 0.59770000E+02  0.71005E+06
 0.59820000E+02  0.89140E+06
 0.59870003E+02  0.11408E+07
 0.59920002E+02  0.13246E+07
 0.59970001E+02  0.14386E+07
 0.60020000E+02  0.15906E+07
 0.60070000E+02  0.18037E+07
 0.60120003E+02  0.19069E+07
 0.60170002E+02  0.18517E+07
 0.60220001E+02  0.17187E+07
 0.60270000E+02  0.15067E+07
 0.60320000E+02  0.13523E+07
 0.60370003E+02  0.12041E+07
 0.60420002E+02  0.10634E+07
 0.60470001E+02  0.91968E+06
 0.60520000E+02  0.74616E+06
 0.60570000E+02  0.56745E+06
 0.60620003E+02  0.28892E+06
 0.60670002E+02  0.52297E+05
 0.60720001E+02 -0.14149E+06
 0.60770000E+02 -0.31869E+06
 0.60820000E+02 -0.42615E+06
 0.60870003E+02 -0.53172E+06
 0.60920002E+02 -0.61067E+06
 0.60970001E+02 -0.66765E+06
 0.61020000E+02 -0.71819E+06
 0.61070004E+02 -0.78996E+06
 0.61119999E+02 -0.88776E+06
 0.61170002E+02 -0.97305E+06
 0.61220005E+02 -0.10513E+07
 0.61270000E+02 -0.11446E+07
 0.61320004E+02 -0.12308E+07
 0.61369999E+02 -0.12189E+07
 0.61420002E+02 -0.11410E+07
 0.61470005E+02 -0.99697E+06
 0.61520000E+02 -0.74882E+06
 0.61570004E+02 -0.48598E+06
 0.61619999E+02 -0.27818E+06
 0.61670002E+02 -0.14867E+06
 0.61720005E+02 -0.58544E+05
 0.61770000E+02 -0.78600E+03
 0.61820004E+02  0.33430E+04
 0.61869999E+02 -0.26830E+05
 0.61920002E+02 -0.18785E+05
 0.61970005E+02  0.55237E+05
 0.62020000E+02  0.11061E+06
 0.62070004E+02  0.82030E+05
 0.62119999E+02  0.31784E+05
 0.62170002E+02  0.38950E+04
 0.62220005E+02 -0.32442E+05
 0.62270000E+02  0.34114E+05
 0.62320004E+02  0.17433E+06
 0.62369999E+02  0.21966E+06
 0.62420002E+02  0.21867E+06
 0.62470005E+02  0.25789E+06
 0.62520000E+02  0.34630E+06
 0.62570004E+02  0.48182E+06
 0.62619999E+02  0.64542E+06
 0.62670002E+02  0.78492E+06
 0.62720005E+02  0.85736E+06
 0.62770000E+02  0.86438E+06
 0.62820004E+02  0.79416E+06
 0.62869999E+02  0.65848E+06
 0.62920002E+02  0.47235E+06
 0.62970005E+02  0.29336E+06
 0.63020000E+02  0.16774E+06
 0.63070004E+02  0.10014E+06
 0.63119999E+02  0.12992E+06
 0.63170002E+02  0.19474E+06
 0.63220005E+02  0.22335E+06
 0.63270000E+02  0.17689E+06
 0.63320004E+02  0.11005E+06
 0.63369999E+02  0.94436E+05
 0.63420002E+02  0.12946E+06
 0.63470005E+02  0.19682E+06
 0.63520000E+02  0.25676E+06
 0.63570004E+02  0.30967E+06
 0.63619999E+02  0.35864E+06
 0.63670002E+02  0.37740E+06
 0.63720005E+02  0.29898E+06
 0.63770000E+02  0.15938E+06
 0.63820004E+02 -0.19244E+05
 0.63869999E+02 -0.23349E+06
 0.63920002E+02 -0.49159E+06
 0.63970005E+02 -0.73252E+06
 0.64019997E+02 -0.82174E+06
 0.64070000E+02 -0.85254E+06
 0.64119995E+02 -0.85998E+06
 0.64169998E+02 -0.83276E+06
 0.64220001E+02 -0.85061E+06
 0.64269997E+02 -0.88868E+06
 0.64320000E+02 -0.87695E+06
 0.64369995E+02 -0.81868E+06
 0.64419998E+02 -0.66388E+06
 0.64470001E+02 -0.44644E+06
 0.64519997E+02 -0.25749E+06
 0.64570000E+02 -0.10970E+06
 0.64619995E+02 -0.14731E+06
 0.64669998E+02 -0.27677E+06
 0.64720001E+02 -0.35219E+06
 0.64769997E+02 -0.41920E+06
 0.64820000E+02 -0.38377E+06
 0.64869995E+02 -0.25625E+06
 0.64919998E+02 -0.93511E+05
 0.64970001E+02  0.57990E+05
 0.65019997E+02  0.12637E+06
 0.65070000E+02  0.17870E+06
 0.65119995E+02  0.24919E+06
 0.65169998E+02  0.29096E+06
 0.65220001E+02  0.35595E+06
 0.65269997E+02  0.45508E+06
 0.65320000E+02  0.46502E+06
 0.65369995E+02  0.49824E+06
 0.65419998E+02  0.67277E+06
 0.65470001E+02  0.85351E+06
 0.65519997E+02  0.96748E+06
 0.65570000E+02  0.10601E+07
 0.65619995E+02  0.11437E+07
 0.65669998E+02  0.11615E+07
 0.65720001E+02  0.11230E+07
 0.65769997E+02  0.10785E+07
 0.65820000E+02  0.10323E+07
 0.65869995E+02  0.94418E+06
 0.65919998E+02  0.87006E+06
 0.65970001E+02  0.83058E+06
 0.66019997E+02  0.76596E+06
 0.66070000E+02  0.67804E+06
 0.66119995E+02  0.53206E+06
 0.66169998E+02  0.34124E+06
 0.66220001E+02  0.13915E+06
 0.66269997E+02 -0.13397E+05
 0.66320000E+02 -0.15316E+06
 0.66369995E+02 -0.33953E+06
 0.66419998E+02 -0.46608E+06
 0.66470001E+02 -0.50501E+06
 0.66519997E+02 -0.53626E+06
 0.66570000E+02 -0.57451E+06
 0.66619995E+02 -0.61050E+06
 0.66669998E+02 -0.69883E+06
 0.66720001E+02 -0.68904E+06
 0.66769997E+02 -0.56602E+06
 0.66820000E+02 -0.46864E+06
 0.66869995E+02 -0.36860E+06
 0.66919998E+02 -0.36794E+06
 0.66970001E+02 -0.44511E+06
 0.67019997E+02 -0.50929E+06
 0.67070000E+02 -0.55457E+06
 0.67119995E+02 -0.57694E+06
 0.67169998E+02 -0.63722E+06
 0.67220001E+02 -0.69559E+06
 0.67269997E+02 -0.71323E+06
 0.67320000E+02 -0.69938E+06
 0.67369995E+02 -0.63005E+06
 0.67419998E+02 -0.53778E+06
 0.67470001E+02 -0.39335E+06
 0.67519997E+02 -0.21122E+06
 0.67570000E+02 -0.12044E+06
 0.67619995E+02 -0.81565E+05
 0.67669998E+02 -0.33787E+05
 0.67720001E+02  0.21827E+05
 0.67769997E+02  0.73685E+05
 0.67820000E+02  0.90936E+05
 0.67869995E+02  0.10476E+06
 0.67919998E+02  0.11282E+06
 0.67970001E+02  0.10479E+06
 0.68019997E+02  0.13059E+06
 0.68070000E+02  0.18233E+06
 0.68119995E+02  0.19794E+06
 0.68169998E+02  0.19885E+06
 0.68220001E+02  0.19999E+06
 0.68269997E+02  0.21364E+06
 0.68320000E+02  0.27918E+06
 0.68369995E+02  0.35906E+06
 0.68419998E+02  0.39858E+06
 0.68470001E+02  0.34969E+06
 0.68519997E+02  0.26936E+06
 0.68570000E+02  0.23498E+06
 0.68619995E+02  0.24100E+06
 0.68669998E+02  0.24483E+06
 0.68720001E+02  0.19159E+06
 0.68769997E+02  0.17930E+06
 0.68820000E+02  0.19697E+06
 0.68869995E+02  0.12526E+06
 0.68919998E+02  0.14385E+05
 0.68970001E+02 -0.97816E+05
 0.69019997E+02 -0.17139E+06
 0.69070000E+02 -0.14665E+06
 0.69119995E+02 -0.24032E+05
 0.69169998E+02  0.12090E+06
 0.69220001E+02  0.21793E+06
 0.69269997E+02  0.26349E+06
 0.69320000E+02  0.27398E+06
 0.69369995E+02  0.26475E+06
 0.69419998E+02  0.20530E+06
 0.69470001E+02  0.98865E+05
 0.69519997E+02 -0.35880E+04
 0.69570000E+02 -0.89198E+05
 0.69619995E+02 -0.20709E+06
 0.69669998E+02 -0.35014E+06
 0.69720001E+02 -0.51051E+06
 0.69769997E+02 -0.67123E+06
 0.69820000E+02 -0.72411E+06
 0.69869995E+02 -0.69018E+06
 0.69919998E+02 -0.61809E+06
 0.69970001E+02 -0.49557E+06
 0.70019997E+02 -0.31655E+06
 0.70070000E+02 -0.13025E+06
 0.70119995E+02  0.47709E+05
 0.70169998E+02  0.21806E+06
 0.70220001E+02  0.24663E+06
 0.70269997E+02  0.17338E+06
 0.70320000E+02  0.77998E+05
 0.70369995E+02 -0.74115E+05
 0.70419998E+02 -0.21826E+06
 0.70470001E+02 -0.31444E+06
 0.70519997E+02 -0.34684E+06
 0.70570000E+02 -0.32940E+06
 0.70619995E+02 -0.35403E+06
 0.70669998E+02 -0.38158E+06
 0.70720001E+02 -0.36007E+06
 0.70769997E+02 -0.31453E+06
 0.70820000E+02 -0.22569E+06
 0.70869995E+02 -0.10138E+06
 0.70919998E+02  0.10138E+06
 0.70970001E+02  0.34762E+06
 0.71019997E+02  0.57116E+06
 0.71070000E+02  0.78876E+06
 0.71119995E+02  0.94808E+06
 0.71169998E+02  0.99911E+06
 0.71220001E+02  0.96469E+06
 0.71269997E+02  0.88389E+06
 0.71320000E+02  0.75697E+06
 0.71369995E+02  0.61740E+06
 0.71419998E+02  0.45001E+06
 0.71470001E+02  0.24703E+06
 0.71519997E+02  0.23533E+05
 0.71570000E+02 -0.18676E+06
 0.71619995E+02 -0.29638E+06
 0.71669998E+02 -0.35048E+06
 0.71720001E+02 -0.37311E+06
 0.71769997E+02 -0.36541E+06
 0.71820000E+02 -0.32209E+06
 0.71869995E+02 -0.24064E+06
 0.71919998E+02 -0.22376E+06
 0.71970001E+02 -0.23957E+06
 0.72019997E+02 -0.24446E+06
 0.72070000E+02 -0.26203E+06
 0.72119995E+02 -0.28624E+06
 0.72169998E+02 -0.31796E+06
 0.72220001E+02 -0.32751E+06
 0.72269997E+02 -0.36340E+06
 0.72320000E+02 -0.38965E+06
 0.72369995E+02 -0.32629E+06
 0.72419998E+02 -0.19807E+06
 0.72470001E+02 -0.52048E+05
 0.72519997E+02  0.74466E+05
 0.72570000E+02  0.23520E+06
 0.72619995E+02  0.36764E+06
 0.72669998E+02  0.40222E+06
 0.72720001E+02  0.41862E+06
 0.72769997E+02  0.40199E+06
 0.72820000E+02  0.29168E+06
 0.72869995E+02  0.17860E+06
 0.72919998E+02  0.13840E+06
 0.72970001E+02  0.10976E+06
 0.73019997E+02  0.88220E+05
 0.73070000E+02  0.64189E+05
 0.73119995E+02  0.16089E+05
 0.73169998E+02 -0.27791E+05
 0.73220001E+02 -0.61805E+05
 0.73269997E+02 -0.96878E+05
 0.73320000E+02 -0.13968E+06
 0.73369995E+02 -0.16060E+06
 0.73419998E+02 -0.17544E+06
 0.73470001E+02 -0.18107E+06
 0.73519997E+02 -0.14214E+06
 0.73570000E+02 -0.12676E+06
 0.73619995E+02 -0.14230E+06
 0.73669998E+02 -0.12388E+06
 0.73720001E+02 -0.72934E+05
 0.73769997E+02 -0.38106E+05
 0.73820000E+02 -0.12094E+05
 0.73869995E+02  0.53006E+05
 0.73919998E+02  0.14959E+06
 0.73970001E+02  0.23360E+06
 0.74019997E+02  0.25548E+06
 0.74070000E+02  0.24524E+06
 0.74119995E+02  0.23156E+06
 0.74169998E+02  0.20948E+06
 0.74220001E+02  0.19916E+06
 0.74269997E+02  0.19959E+06
 0.74320000E+02  0.21342E+06
 0.74369995E+02  0.21984E+06
 0.74419998E+02  0.18199E+06
 0.74470001E+02  0.98233E+05
 0.74519997E+02 -0.28347E+05
 0.74570000E+02 -0.12186E+06
 0.74619995E+02 -0.11876E+06
 0.74669998E+02 -0.10282E+06
 0.74720001E+02 -0.98280E+05
 0.74769997E+02 -0.91509E+05
 0.74820000E+02 -0.83400E+05
 0.74869995E+02 -0.37424E+05
 0.74919998E+02 -0.19810E+04
 0.74970001E+02  0.36080E+04
 0.75019997E+02  0.17017E+05
 0.75070000E+02  0.48123E+05
 0.75119995E+02  0.10088E+06
 0.75169998E+02  0.13302E+06
 0.75220001E+02  0.11692E+06
 0.75269997E+02  0.66833E+05
 0.75320000E+02  0.38699E+05
 0.75369995E+02  0.59384E+05
 0.75419998E+02  0.78212E+05
 0.75470001E+02  0.68080E+05
 0.75519997E+02  0.21164E+05
 0.75570000E+02 -0.12593E+05
 0.75619995E+02 -0.81960E+04
 0.75669998E+02  0.15090E+05
 0.75720001E+02  0.49861E+05
 0.75769997E+02  0.62978E+05
 0.75820000E+02  0.78222E+05
 0.75869995E+02  0.83954E+05
 0.75919998E+02  0.73206E+05
 0.75970001E+02  0.66264E+05
 0.76019997E+02  0.37255E+05
 0.76070000E+02  0.10120E+04
 0.76119995E+02 -0.36106E+05
 0.76169998E+02 -0.45570E+05
 0.76220001E+02 -0.10759E+05
 0.76269997E+02  0.53183E+05
 0.76320000E+02  0.14016E+06
 0.76369995E+02  0.23795E+06
 0.76419998E+02  0.38107E+06
 0.76470001E+02  0.56047E+06
 0.76519997E+02  0.71483E+06
 0.76570000E+02  0.81369E+06
 0.76619995E+02  0.86719E+06
 0.76669998E+02  0.86438E+06
 0.76720001E+02  0.80660E+06
 0.76769997E+02  0.72373E+06
 0.76820000E+02  0.55916E+06
 0.76869995E+02  0.34085E+06
 0.76919998E+02  0.15221E+06
 0.76970001E+02 -0.14810E+04
 0.77019997E+02 -0.10165E+06
 0.77070000E+02 -0.18180E+06
 0.77119995E+02 -0.27034E+06
 0.77169998E+02 -0.31568E+06
 0.77220001E+02 -0.27841E+06
 0.77269997E+02 -0.20775E+06
 0.77320000E+02 -0.16592E+06
 0.77369995E+02 -0.11268E+06
 0.77419998E+02 -0.37747E+05
 0.77470001E+02  0.90490E+04
 0.77519997E+02  0.16746E+05
 0.77570000E+02 -0.24573E+05
 0.77619995E+02 -0.97853E+05
 0.77669998E+02 -0.17672E+06
 0.77720001E+02 -0.25560E+06
 0.77769997E+02 -0.31888E+06
 0.77820000E+02 -0.37634E+06
 0.77869995E+02 -0.44874E+06
 0.77919998E+02 -0.54136E+06
 0.77970001E+02 -0.62374E+06
 0.78019997E+02 -0.68096E+06
 0.78070000E+02 -0.73670E+06
 0.78119995E+02 -0.75099E+06
 0.78169998E+02 -0.71357E+06
 0.78220001E+02 -0.65497E+06
 0.78269997E+02 -0.56690E+06
 0.78320000E+02 -0.48743E+06
 0.78369995E+02 -0.41828E+06
 0.78419998E+02 -0.33305E+06
 0.78470001E+02 -0.23361E+06
 0.78519997E+02 -0.11323E+06
 0.78570000E+02  0.10420E+05
 0.78619995E+02  0.12997E+06
 0.78669998E+02  0.21706E+06
 0.78720001E+02  0.26974E+06
 0.78769997E+02  0.32497E+06
 0.78820000E+02  0.33848E+06
 0.78869995E+02  0.27434E+06
 0.78919998E+02  0.18125E+06
 0.78970001E+02  0.84394E+05
 0.79019997E+02 -0.14619E+05
 0.79070000E+02 -0.86904E+05
 0.79119995E+02 -0.14223E+06
 0.79169998E+02 -0.20226E+06
 0.79220001E+02 -0.25762E+06
 0.79269997E+02 -0.28490E+06
 0.79320000E+02 -0.27176E+06
 0.79369995E+02 -0.22755E+06
 0.79419998E+02 -0.17699E+06
 0.79470001E+02 -0.13709E+06
 0.79519997E+02 -0.10291E+06
 0.79570000E+02 -0.89745E+05
 0.79619995E+02 -0.87613E+05
 0.79669998E+02 -0.92670E+05
 0.79720001E+02 -0.10680E+06
 0.79769997E+02 -0.84226E+05
 0.79820000E+02 -0.18783E+05
 0.79869995E+02  0.34674E+05
 0.79919998E+02  0.35966E+05
 0.79970001E+02 -0.18360E+05
 0.80019997E+02 -0.10301E+06
 0.80070000E+02 -0.17168E+06
 0.80119995E+02 -0.22596E+06
 0.80169998E+02 -0.25997E+06
 0.80220001E+02 -0.25330E+06
 0.80269997E+02 -0.20469E+06
 0.80320000E+02 -0.12382E+06
 0.80369995E+02 -0.59317E+05
 0.80419998E+02 -0.16754E+05
 0.80470001E+02  0.13684E+05
 0.80519997E+02  0.30290E+05
 0.80570000E+02  0.47416E+05
 0.80619995E+02  0.61134E+05
 0.80669998E+02  0.71500E+05
 0.80720001E+02  0.92811E+05
 0.80769997E+02  0.93845E+05
 0.80820000E+02  0.69660E+05
 0.80869995E+02  0.58781E+05
 0.80919998E+02  0.33876E+05
 0.80970001E+02  0.52160E+04
 0.81019997E+02 -0.32952E+05
 0.81070000E+02 -0.93659E+05
 0.81119995E+02 -0.11172E+06
 0.81169998E+02 -0.90588E+05
 0.81220001E+02 -0.53536E+05
 0.81269997E+02  0.83270E+04
 0.81320000E+02  0.86109E+05
 0.81369995E+02  0.14695E+06
 0.81419998E+02  0.18032E+06
 0.81470001E+02  0.21161E+06
 0.81519997E+02  0.23306E+06
 0.81570000E+02  0.24439E+06
 0.81619995E+02  0.26211E+06
 0.81669998E+02  0.28382E+06
 0.81720001E+02  0.29709E+06
 0.81769997E+02  0.27039E+06
 0.81820000E+02  0.20081E+06
 0.81869995E+02  0.10374E+06
 0.81919998E+02 -0.42690E+04
 0.81970001E+02 -0.77514E+05
 0.82019997E+02 -0.12318E+06
 0.82070000E+02 -0.17643E+06
 0.82119995E+02 -0.21318E+06
 0.82169998E+02 -0.23228E+06
 0.82220001E+02 -0.24391E+06
 0.82269997E+02 -0.23814E+06
 0.82320000E+02 -0.23550E+06
 0.82369995E+02 -0.24426E+06
 0.82419998E+02 -0.23039E+06
 0.82470001E+02 -0.18424E+06
 0.82519997E+02 -0.14917E+06
 0.82570000E+02 -0.13438E+06
 0.82619995E+02 -0.12026E+06
 0.82669998E+02 -0.86793E+05
 0.82720001E+02 -0.37422E+05
 0.82769997E+02  0.65330E+04
 0.82820000E+02  0.54604E+05
 0.82869995E+02  0.96588E+05
 0.82919998E+02  0.13327E+06
 0.82970001E+02  0.15949E+06
 0.83019997E+02  0.16648E+06
 0.83070000E+02  0.18676E+06
 0.83119995E+02  0.21242E+06
 0.83169998E+02  0.21102E+06
 0.83220001E+02  0.17686E+06
 0.83269997E+02  0.13793E+06
 0.83320000E+02  0.11376E+06
 0.83369995E+02  0.86788E+05
 0.83419998E+02  0.46638E+05
 0.83470001E+02  0.34530E+04
 0.83519997E+02 -0.12027E+05
 0.83570000E+02  0.29954E+05
 0.83619995E+02  0.96485E+05
 0.83669998E+02  0.13226E+06
 0.83720001E+02  0.14562E+06
 0.83769997E+02  0.13176E+06
 0.83820000E+02  0.86780E+05
 0.83869995E+02  0.59068E+05
 0.83919998E+02  0.66673E+05
 0.83970001E+02  0.11278E+06
 0.84019997E+02  0.18601E+06
 0.84070000E+02  0.24593E+06
 0.84119995E+02  0.28238E+06
 0.84169998E+02  0.28904E+06
 0.84220001E+02  0.25597E+06
 0.84269997E+02  0.21309E+06
 0.84320000E+02  0.18336E+06
 0.84369995E+02  0.16630E+06
 0.84419998E+02  0.15942E+06
 0.84470001E+02  0.14007E+06
 0.84519997E+02  0.10260E+06
 0.84570000E+02  0.47087E+05
 0.84619995E+02 -0.27137E+05
 0.84669998E+02 -0.77111E+05
 0.84720001E+02 -0.10549E+06
 0.84769997E+02 -0.11076E+06
 0.84820000E+02 -0.71074E+05
 0.84869995E+02 -0.49240E+04
 0.84919998E+02  0.80947E+05
 0.84970001E+02  0.15899E+06
 0.85019997E+02  0.21634E+06
 0.85070000E+02  0.25217E+06
 0.85119995E+02  0.26294E+06
 0.85169998E+02  0.25467E+06
 0.85220001E+02  0.24290E+06
 0.85269997E+02  0.21836E+06
 0.85320000E+02  0.16422E+06
 0.85369995E+02  0.12724E+06
 0.85419998E+02  0.10028E+06
 0.85470001E+02  0.59345E+05
 0.85519997E+02  0.30895E+05
 0.85570000E+02  0.32076E+05
 0.85619995E+02  0.57626E+05
 0.85669998E+02  0.87879E+05
 0.85720001E+02  0.13757E+06
 0.85769997E+02  0.19906E+06
 0.85820000E+02  0.25094E+06
 0.85869995E+02  0.29416E+06
 0.85919998E+02  0.31192E+06
 0.85970001E+02  0.32510E+06
 0.86019997E+02  0.32919E+06
 0.86070000E+02  0.28300E+06
 0.86119995E+02  0.20499E+06
 0.86169998E+02  0.11749E+06
 0.86220001E+02  0.42559E+05
 0.86269997E+02  0.52410E+04
 0.86320000E+02 -0.22582E+05
 0.86369995E+02 -0.63647E+05
 0.86419998E+02 -0.97989E+05
 0.86470001E+02 -0.12273E+06
 0.86519997E+02 -0.14818E+06
 0.86570000E+02 -0.16752E+06
 0.86619995E+02 -0.18894E+06
 0.86669998E+02 -0.22445E+06
 0.86720001E+02 -0.26686E+06
 0.86769997E+02 -0.29587E+06
 0.86820000E+02 -0.28463E+06
 0.86869995E+02 -0.26100E+06
 0.86919998E+02 -0.25030E+06
 0.86970001E+02 -0.25473E+06
 0.87019997E+02 -0.27936E+06
 0.87070000E+02 -0.28932E+06
 0.87119995E+02 -0.27437E+06
 0.87169998E+02 -0.25606E+06
 0.87220001E+02 -0.25452E+06
 0.87269997E+02 -0.26319E+06
 0.87320000E+02 -0.28396E+06
 0.87369995E+02 -0.31126E+06
 0.87419998E+02 -0.33296E+06
 0.87470001E+02 -0.36535E+06
 0.87519997E+02 -0.38789E+06
 0.87570000E+02 -0.39738E+06
 0.87619995E+02 -0.39076E+06
 0.87669998E+02 -0.35419E+06
 0.87720001E+02 -0.28771E+06
 0.87769997E+02 -0.21083E+06
 0.87820000E+02 -0.14860E+06
 0.87869995E+02 -0.97260E+05
 0.87919998E+02 -0.59757E+05
 0.87970001E+02 -0.24402E+05
 0.88019997E+02  0.93580E+04
 0.88070000E+02  0.41061E+05
 0.88119995E+02  0.70046E+05
 0.88169998E+02  0.70669E+05
 0.88220001E+02  0.58863E+05
 0.88269997E+02  0.58775E+05
 0.88320000E+02  0.70441E+05
 0.88369995E+02  0.10006E+06
 0.88419998E+02  0.13525E+06
 0.88470001E+02  0.16083E+06
 0.88519997E+02  0.17831E+06
 0.88570000E+02  0.18175E+06
 0.88619995E+02  0.16815E+06
 0.88669998E+02  0.15454E+06
 0.88720001E+02  0.14678E+06
 0.88769997E+02  0.13678E+06
 0.88820000E+02  0.14799E+06
 0.88869995E+02  0.20025E+06
 0.88919998E+02  0.27266E+06
 0.88970001E+02  0.31529E+06
 0.89019997E+02  0.30188E+06
 0.89070000E+02  0.25151E+06
 0.89119995E+02  0.18500E+06
 0.89169998E+02  0.12819E+06
 0.89220001E+02  0.81171E+05
 0.89269997E+02  0.27588E+05
 0.89320000E+02 -0.19645E+05
 0.89369995E+02 -0.60519E+05
 0.89419998E+02 -0.98433E+05
 0.89470001E+02 -0.11630E+06
 0.89519997E+02 -0.12965E+06
 0.89570000E+02 -0.15084E+06
 0.89619995E+02 -0.15458E+06
 0.89669998E+02 -0.15759E+06
 0.89720001E+02 -0.19310E+06
 0.89769997E+02 -0.24268E+06
 0.89820000E+02 -0.29130E+06
 0.89869995E+02 -0.35304E+06
 0.89919998E+02 -0.41090E+06
 0.89970001E+02 -0.45050E+06
 0.90019997E+02 -0.47724E+06
 0.90070000E+02 -0.48671E+06
 0.90119995E+02 -0.48381E+06
 0.90169998E+02 -0.45758E+06
 0.90220001E+02 -0.40631E+06
 0.90269997E+02 -0.34418E+06
 0.90320000E+02 -0.27195E+06
 0.90369995E+02 -0.19056E+06
 0.90419998E+02 -0.99733E+05
 0.90470001E+02  0.13480E+04
 0.90519997E+02  0.10023E+06
 0.90570000E+02  0.18100E+06
 0.90619995E+02  0.26879E+06
 0.90669998E+02  0.37388E+06
 0.90720001E+02  0.46956E+06
 0.90769997E+02  0.54621E+06
 0.90820000E+02  0.59493E+06
 0.90869995E+02  0.62239E+06
 0.90919998E+02  0.64911E+06
 0.90970001E+02  0.66064E+06
 0.91019997E+02  0.64940E+06
 0.91070000E+02  0.64336E+06
 0.91119995E+02  0.64183E+06
 0.91169998E+02  0.63501E+06
 0.91220001E+02  0.62616E+06
 0.91269997E+02  0.61866E+06
 0.91320000E+02  0.59913E+06
 0.91369995E+02  0.54498E+06
 0.91419998E+02  0.46959E+06
 0.91470001E+02  0.37241E+06
 0.91519997E+02  0.25317E+06
 0.91570000E+02  0.13669E+06
 0.91619995E+02  0.29218E+05
 0.91669998E+02 -0.66064E+05
 0.91720001E+02 -0.14272E+06
 0.91769997E+02 -0.21229E+06
 0.91820000E+02 -0.29065E+06
 0.91869995E+02 -0.34999E+06
 0.91919998E+02 -0.37117E+06
 0.91970001E+02 -0.37764E+06
 0.92019997E+02 -0.37048E+06
 0.92070000E+02 -0.35145E+06
 0.92119995E+02 -0.32748E+06
 0.92169998E+02 -0.29783E+06
 0.92220001E+02 -0.25527E+06
 0.92269997E+02 -0.18172E+06
 0.92320000E+02 -0.97333E+05
 0.92369995E+02 -0.36789E+05
 0.92419998E+02 -0.14230E+04
 0.92470001E+02  0.14899E+05
 0.92519997E+02  0.23949E+05
 0.92570000E+02  0.27605E+05
 0.92619995E+02 -0.46500E+04
 0.92669998E+02 -0.63648E+05
 0.92720001E+02 -0.11420E+06
 0.92769997E+02 -0.15201E+06
 0.92820000E+02 -0.18225E+06
 0.92869995E+02 -0.21142E+06
 0.92919998E+02 -0.23240E+06
 0.92970001E+02 -0.23703E+06
 0.93019997E+02 -0.22842E+06
 0.93070000E+02 -0.20853E+06
 0.93119995E+02 -0.18790E+06
 0.93169998E+02 -0.17659E+06
 0.93220001E+02 -0.16097E+06
 0.93269997E+02 -0.12956E+06
 0.93320000E+02 -0.89471E+05
 0.93369995E+02 -0.35517E+05
 0.93419998E+02  0.40492E+05
 0.93470001E+02  0.11027E+06
 0.93519997E+02  0.13126E+06
 0.93570000E+02  0.10569E+06
 0.93619995E+02  0.50009E+05
 0.93669998E+02 -0.42351E+05
 0.93720001E+02 -0.15064E+06
 0.93769997E+02 -0.23708E+06
 0.93820000E+02 -0.29716E+06
 0.93869995E+02 -0.34188E+06
 0.93919998E+02 -0.37117E+06
 0.93970001E+02 -0.39241E+06
 0.94019997E+02 -0.42280E+06
 0.94070000E+02 -0.46858E+06
 0.94119995E+02 -0.51867E+06
 0.94169998E+02 -0.55256E+06
 0.94220001E+02 -0.55774E+06
 0.94269997E+02 -0.52823E+06
 0.94320000E+02 -0.46276E+06
 0.94369995E+02 -0.37324E+06
 0.94419998E+02 -0.28696E+06
 0.94470001E+02 -0.21653E+06
 0.94519997E+02 -0.15630E+06
 0.94570000E+02 -0.94766E+05
 0.94619995E+02 -0.22913E+05
 0.94669998E+02  0.43852E+05
 0.94720001E+02  0.97567E+05
 0.94769997E+02  0.14738E+06
 0.94820000E+02  0.19476E+06
 0.94869995E+02  0.22934E+06
 0.94919998E+02  0.23121E+06
 0.94970001E+02  0.21228E+06
 0.95019997E+02  0.19624E+06
 0.95070000E+02  0.17587E+06
 0.95119995E+02  0.16285E+06
 0.95169998E+02  0.15406E+06
 0.95220001E+02  0.13709E+06
 0.95269997E+02  0.12222E+06
 0.95320000E+02  0.91542E+05
 0.95369995E+02  0.44055E+05
 0.95419998E+02 -0.58210E+04
 0.95470001E+02 -0.49086E+05
 0.95519997E+02 -0.88389E+05
 0.95570000E+02 -0.13090E+06
 0.95619995E+02 -0.15698E+06
 0.95669998E+02 -0.17170E+06
 0.95720001E+02 -0.17453E+06
 0.95769997E+02 -0.14304E+06
 0.95820000E+02 -0.85549E+05
 0.95869995E+02 -0.14291E+05
 0.95919998E+02  0.53764E+05
 0.95970001E+02  0.10110E+06
 0.96019997E+02  0.14132E+06
 0.96070000E+02  0.19098E+06
 0.96119995E+02  0.24786E+06
 0.96169998E+02  0.30117E+06
 0.96220001E+02  0.35361E+06
 0.96269997E+02  0.41322E+06
 0.96320000E+02  0.47312E+06
 0.96369995E+02  0.52956E+06
 0.96419998E+02  0.58266E+06
 0.96470001E+02  0.60851E+06
 0.96519997E+02  0.58884E+06
 0.96570000E+02  0.54066E+06
 0.96619995E+02  0.48071E+06
 0.96669998E+02  0.43526E+06
 0.96720001E+02  0.41209E+06
 0.96769997E+02  0.38793E+06
 0.96820000E+02  0.35341E+06
 0.96869995E+02  0.29928E+06
 0.96919998E+02  0.23320E+06
 0.96970001E+02  0.17119E+06
 0.97019997E+02  0.11403E+06
 0.97070000E+02  0.58508E+05
 0.97119995E+02  0.42520E+04
 0.97169998E+02 -0.42448E+05
 0.97220001E+02 -0.78398E+05
 0.97269997E+02 -0.10411E+06
 0.97320000E+02 -0.11961E+06
 0.97369995E+02 -0.12193E+06
 0.97419998E+02 -0.11550E+06
 0.97470001E+02 -0.11047E+06
 0.97519997E+02 -0.11455E+06
 0.97570000E+02 -0.12701E+06
 0.97619995E+02 -0.14753E+06
 0.97669998E+02 -0.17918E+06
 0.97720001E+02 -0.21362E+06
 0.97769997E+02 -0.24640E+06
 0.97820000E+02 -0.27124E+06
 0.97869995E+02 -0.28167E+06
 0.97919998E+02 -0.27844E+06
 0.97970001E+02 -0.25538E+06
 0.98019997E+02 -0.21179E+06
 0.98070000E+02 -0.16313E+06
 0.98119995E+02 -0.13282E+06
 0.98169998E+02 -0.11890E+06
 0.98220001E+02 -0.10476E+06
 0.98269997E+02 -0.97151E+05
 0.98320000E+02 -0.10429E+06
 0.98369995E+02 -0.12056E+06
 0.98419998E+02 -0.13117E+06
 0.98470001E+02 -0.13767E+06
 0.98519997E+02 -0.15320E+06
 0.98570000E+02 -0.17524E+06
 0.98619995E+02 -0.19239E+06
 0.98669998E+02 -0.19790E+06
 0.98720001E+02 -0.19269E+06
 0.98769997E+02 -0.18611E+06
 0.98820000E+02 -0.18578E+06
 0.98869995E+02 -0.18308E+06
 0.98919998E+02 -0.17034E+06
 0.98970001E+02 -0.14197E+06
 0.99019997E+02 -0.11511E+06
 0.99070000E+02 -0.10836E+06
 0.99119995E+02 -0.11019E+06
 0.99169998E+02 -0.10490E+06
 0.99220001E+02 -0.82951E+05
 0.99269997E+02 -0.39519E+05
 0.99320000E+02  0.22000E+05
 0.99369995E+02  0.79136E+05
 0.99419998E+02  0.12657E+06
 0.99470001E+02  0.16902E+06
 0.99519997E+02  0.20423E+06
 0.99570000E+02  0.22885E+06
 0.99619995E+02  0.23378E+06
 0.99669998E+02  0.23640E+06
 0.99720001E+02  0.23984E+06
 0.99769997E+02  0.22509E+06
 0.99820000E+02  0.19695E+06
 0.99869995E+02  0.16078E+06
 0.99919998E+02  0.12218E+06
 0.99970001E+02  0.85777E+05
 0.10002000E+03  0.53654E+05
 0.10007000E+03  0.26252E+05
 0.10012000E+03  0.39540E+04
 0.10017000E+03  0.46080E+04
 0.10022000E+03  0.23481E+05
 0.10027000E+03  0.36818E+05
 0.10032000E+03  0.45386E+05
 0.10037000E+03  0.57030E+05
 0.10042000E+03  0.68902E+05
 0.10047000E+03  0.79197E+05
 0.10052000E+03  0.95665E+05
 0.10057000E+03  0.11418E+06
 0.10062000E+03  0.12703E+06
 0.10067000E+03  0.14017E+06
 0.10072000E+03  0.14694E+06
 0.10077000E+03  0.14665E+06
 0.10082000E+03  0.15020E+06
 0.10087000E+03  0.14706E+06
 0.10092000E+03  0.13020E+06
 0.10097000E+03  0.10794E+06
 0.10102000E+03  0.88433E+05
 0.10107000E+03  0.84685E+05
 0.10112000E+03  0.99282E+05
 0.10117000E+03  0.12657E+06
 0.10122000E+03  0.15598E+06
 0.10127000E+03  0.17281E+06
 0.10132000E+03  0.17780E+06
 0.10137000E+03  0.17687E+06
 0.10142000E+03  0.17689E+06
 0.10147000E+03  0.17020E+06
 0.10152000E+03  0.14646E+06
 0.10157000E+03  0.11235E+06
 0.10162000E+03  0.77713E+05
 0.10167000E+03  0.50765E+05
 0.10172000E+03  0.17651E+05
 0.10177000E+03 -0.14564E+05
 0.10182000E+03 -0.25982E+05
 0.10187000E+03 -0.29964E+05
 0.10192000E+03 -0.31237E+05
 0.10197000E+03 -0.30019E+05
 0.10202000E+03 -0.26470E+05
 0.10207000E+03 -0.21683E+05
 0.10212000E+03 -0.19192E+05
 0.10217000E+03 -0.22660E+05
 0.10222000E+03 -0.43284E+05
 0.10227000E+03 -0.67895E+05
 0.10232000E+03 -0.77378E+05
 0.10237000E+03 -0.72615E+05
 0.10242000E+03 -0.67595E+05
 0.10247000E+03 -0.69670E+05
 0.10252000E+03 -0.72465E+05
 0.10257000E+03 -0.73389E+05
 0.10262000E+03 -0.66300E+05
 0.10267000E+03 -0.49498E+05
 0.10272000E+03 -0.29173E+05
 0.10277000E+03 -0.87070E+04
 0.10282000E+03  0.18006E+05
 0.10287000E+03  0.51649E+05
 0.10292000E+03  0.79479E+05
 0.10297000E+03  0.88893E+05
 0.10302000E+03  0.72369E+05
 0.10307000E+03  0.50299E+05
 0.10312000E+03  0.30904E+05
 0.10317000E+03  0.14902E+05
 0.10322000E+03  0.16573E+05
 0.10327000E+03  0.23280E+05
 0.10332000E+03  0.29748E+05
 0.10337000E+03  0.30993E+05
 0.10342000E+03  0.22917E+05
 0.10347000E+03  0.12559E+05
 0.10352000E+03  0.40300E+03
 0.10357000E+03 -0.16348E+05
 0.10362000E+03 -0.36951E+05
 0.10367000E+03 -0.49325E+05
 0.10372000E+03 -0.54374E+05
 0.10377000E+03 -0.56056E+05
 0.10382000E+03 -0.62981E+05
 0.10387000E+03 -0.77210E+05
 0.10392000E+03 -0.85285E+05
 0.10397000E+03 -0.82361E+05
 0.10402000E+03 -0.74796E+05
 0.10407000E+03 -0.76051E+05
 0.10412000E+03 -0.92639E+05
 0.10417000E+03 -0.12327E+06
 0.10422000E+03 -0.15518E+06
 0.10427000E+03 -0.18584E+06
 0.10432000E+03 -0.22172E+06
 0.10437000E+03 -0.26548E+06
 0.10442000E+03 -0.31242E+06
 0.10447000E+03 -0.34217E+06
 0.10452000E+03 -0.35199E+06
 0.10457000E+03 -0.34485E+06
 0.10462000E+03 -0.32716E+06
 0.10467000E+03 -0.30010E+06
 0.10472000E+03 -0.25519E+06
 0.10477000E+03 -0.20339E+06
 0.10482000E+03 -0.14735E+06
 0.10487000E+03 -0.90828E+05
 0.10492000E+03 -0.37413E+05
 0.10497000E+03  0.14490E+05
 0.10502000E+03  0.49497E+05
 0.10507000E+03  0.60752E+05
 0.10512000E+03  0.64450E+05
 0.10517000E+03  0.69959E+05
 0.10522000E+03  0.70605E+05
 0.10527000E+03  0.65937E+05
 0.10532000E+03  0.63698E+05
 0.10537000E+03  0.66345E+05
 0.10542000E+03  0.63657E+05
 0.10547000E+03  0.45733E+05
 0.10552000E+03  0.14859E+05
 0.10557000E+03 -0.14681E+05
 0.10562000E+03 -0.35324E+05
 0.10567000E+03 -0.54480E+05
 0.10572000E+03 -0.77164E+05
 0.10577000E+03 -0.10305E+06
 0.10582000E+03 -0.12952E+06
 0.10587000E+03 -0.14884E+06
 0.10592000E+03 -0.15045E+06
 0.10597000E+03 -0.12636E+06
 0.10602000E+03 -0.72043E+05
 0.10607000E+03  0.57040E+04
 0.10612000E+03  0.91798E+05
 0.10617000E+03  0.16741E+06
 0.10622000E+03  0.21675E+06
 0.10627000E+03  0.24928E+06
 0.10632000E+03  0.26935E+06
 0.10637000E+03  0.28158E+06
 0.10642000E+03  0.29706E+06
 0.10647000E+03  0.30145E+06
 0.10652000E+03  0.30085E+06
 0.10657000E+03  0.30244E+06
 0.10662000E+03  0.29372E+06
 0.10667000E+03  0.27141E+06
 0.10672000E+03  0.23139E+06
 0.10677000E+03  0.18194E+06
 0.10682000E+03  0.12490E+06
 0.10687000E+03  0.52293E+05
 0.10692000E+03 -0.25472E+05
 0.10697000E+03 -0.98684E+05
 0.10702000E+03 -0.16112E+06
 0.10707000E+03 -0.21037E+06
 0.10712000E+03 -0.24761E+06
 0.10717000E+03 -0.27676E+06
 0.10722000E+03 -0.29336E+06
 0.10727000E+03 -0.28837E+06
 0.10732000E+03 -0.28575E+06
 0.10737000E+03 -0.29429E+06
 0.10742000E+03 -0.30521E+06
 0.10747000E+03 -0.32168E+06
 0.10752000E+03 -0.34348E+06
 0.10757000E+03 -0.37284E+06
 0.10762000E+03 -0.39719E+06
 0.10767000E+03 -0.40886E+06
 0.10772000E+03 -0.41611E+06
 0.10777000E+03 -0.42036E+06
 0.10782000E+03 -0.41928E+06
 0.10787000E+03 -0.40413E+06
 0.10792000E+03 -0.36506E+06
 0.10797000E+03 -0.30662E+06
 0.10802000E+03 -0.24179E+06
 0.10807000E+03 -0.18130E+06
 0.10812000E+03 -0.13151E+06
 0.10817000E+03 -0.94362E+05
 0.10822000E+03 -0.68495E+05
 0.10827000E+03 -0.51711E+05
 0.10832000E+03 -0.41104E+05
 0.10837000E+03 -0.33500E+05
 0.10842000E+03 -0.30175E+05
 0.10847000E+03 -0.29493E+05
 0.10852000E+03 -0.21988E+05
 0.10857000E+03 -0.61200E+03
 0.10862000E+03  0.31832E+05
 0.10867000E+03  0.68722E+05
 0.10872000E+03  0.10910E+06
 0.10877000E+03  0.14987E+06
 0.10882000E+03  0.18991E+06
 0.10887000E+03  0.23174E+06
 0.10892000E+03  0.26872E+06
 0.10897000E+03  0.29783E+06
 0.10902000E+03  0.32386E+06
 0.10907000E+03  0.35237E+06
 0.10912000E+03  0.37880E+06
 0.10917000E+03  0.40809E+06
 0.10922000E+03  0.44552E+06
 0.10927000E+03  0.47936E+06
 0.10932000E+03  0.51693E+06
 0.10937000E+03  0.55002E+06
 0.10942000E+03  0.56533E+06
 0.10947000E+03  0.57636E+06
 0.10952000E+03  0.58840E+06
 0.10957000E+03  0.60199E+06
 0.10962000E+03  0.61573E+06
 0.10967000E+03  0.62177E+06
 0.10972000E+03  0.61393E+06
 0.10977000E+03  0.58465E+06
 0.10982000E+03  0.52941E+06
 0.10987000E+03  0.44812E+06
 0.10992000E+03  0.34767E+06
 0.10997000E+03  0.24620E+06
 0.11002000E+03  0.15496E+06
 0.11007000E+03  0.76362E+05
 0.11012000E+03  0.10534E+05
 0.11017000E+03 -0.44547E+05
 0.11022000E+03 -0.93001E+05
 0.11027000E+03 -0.13286E+06
 0.11032000E+03 -0.16336E+06
 0.11037000E+03 -0.18408E+06
 0.11042000E+03 -0.18692E+06
 0.11047000E+03 -0.17943E+06
 0.11052000E+03 -0.17804E+06
 0.11057000E+03 -0.18939E+06
 0.11062000E+03 -0.20049E+06
 0.11067000E+03 -0.20793E+06
 0.11072000E+03 -0.22084E+06
 0.11077000E+03 -0.23682E+06
 0.11082000E+03 -0.25955E+06
 0.11087000E+03 -0.27866E+06
 0.11092000E+03 -0.28019E+06
 0.11097000E+03 -0.25065E+06
 0.11102000E+03 -0.18751E+06
 0.11107000E+03 -0.11893E+06
 0.11112000E+03 -0.55753E+05
 0.11117000E+03 -0.53980E+04
 0.11122000E+03  0.17777E+05
 0.11127000E+03  0.22745E+05
 0.11132000E+03  0.20365E+05
 0.11137000E+03  0.60790E+04
 0.11142000E+03 -0.53440E+04
 0.11147000E+03 -0.82750E+04
 0.11152000E+03 -0.11305E+05
 0.11157000E+03 -0.24360E+04
 0.11162000E+03 -0.27820E+04
 0.11167000E+03 -0.18490E+05
 0.11172000E+03 -0.39102E+05
 0.11177000E+03 -0.74563E+05
 0.11182000E+03 -0.11397E+06
 0.11187000E+03 -0.15628E+06
 0.11192000E+03 -0.20346E+06
 0.11197000E+03 -0.24978E+06
 0.11202000E+03 -0.28995E+06
 0.11207000E+03 -0.31778E+06
 0.11212000E+03 -0.34538E+06
 0.11217000E+03 -0.37977E+06
 0.11222000E+03 -0.41489E+06
 0.11227000E+03 -0.45275E+06
 0.11232000E+03 -0.47777E+06
 0.11237000E+03 -0.48478E+06
 0.11242000E+03 -0.47969E+06
 0.11247000E+03 -0.45456E+06
 0.11252000E+03 -0.42422E+06
 0.11257000E+03 -0.39359E+06
 0.11262000E+03 -0.36045E+06
 0.11267000E+03 -0.33110E+06
 0.11272000E+03 -0.31096E+06
 0.11277000E+03 -0.29045E+06
 0.11282000E+03 -0.25025E+06
 0.11287000E+03 -0.20065E+06
 0.11292000E+03 -0.14978E+06
 0.11297000E+03 -0.94562E+05
 0.11302000E+03 -0.32679E+05
 0.11307000E+03  0.33810E+05
 0.11312000E+03  0.10319E+06
 0.11317000E+03  0.16540E+06
 0.11322000E+03  0.20862E+06
 0.11327000E+03  0.24819E+06
 0.11332000E+03  0.28874E+06
 0.11337000E+03  0.32664E+06
 0.11342000E+03  0.36293E+06
 0.11347000E+03  0.39433E+06
 0.11352000E+03  0.41411E+06
 0.11357000E+03  0.42315E+06
 0.11362000E+03  0.43248E+06
 0.11367000E+03  0.44325E+06
 0.11372000E+03  0.44910E+06
 0.11377000E+03  0.44636E+06
 0.11382000E+03  0.43806E+06
 0.11387000E+03  0.42348E+06
 0.11392000E+03  0.40991E+06
 0.11397000E+03  0.39443E+06
 0.11402000E+03  0.36935E+06
 0.11407000E+03  0.34029E+06
 0.11412000E+03  0.30378E+06
 0.11417000E+03  0.26120E+06
 0.11422000E+03  0.21050E+06
 0.11427000E+03  0.15170E+06
 0.11432000E+03  0.91995E+05
 0.11437000E+03  0.37442E+05
 0.11442000E+03 -0.11812E+05
 0.11447000E+03 -0.56464E+05
 0.11452000E+03 -0.88773E+05
 0.11457000E+03 -0.10723E+06
 0.11462000E+03 -0.11686E+06
 0.11467000E+03 -0.12353E+06
 0.11472000E+03 -0.12982E+06
 0.11477000E+03 -0.13540E+06
 0.11482000E+03 -0.13795E+06
 0.11487000E+03 -0.14367E+06
 0.11492000E+03 -0.15757E+06
 0.11497000E+03 -0.17820E+06
 0.11502000E+03 -0.19950E+06
 0.11507000E+03 -0.21697E+06
 0.11512000E+03 -0.23936E+06
 0.11517000E+03 -0.26103E+06
 0.11522000E+03 -0.27726E+06
 0.11527000E+03 -0.29737E+06
 0.11532000E+03 -0.32429E+06
 0.11537000E+03 -0.35168E+06
 0.11542000E+03 -0.36492E+06
 0.11547000E+03 -0.35855E+06
 0.11552000E+03 -0.34192E+06
 0.11557000E+03 -0.32247E+06
 0.11562000E+03 -0.30045E+06
 0.11567000E+03 -0.28069E+06
 0.11572000E+03 -0.26722E+06
 0.11577000E+03 -0.25670E+06
 0.11582000E+03 -0.24192E+06
 0.11587000E+03 -0.21503E+06
 0.11592000E+03 -0.17584E+06
 0.11597000E+03 -0.13430E+06
 0.11602000E+03 -0.10563E+06
 0.11607000E+03 -0.87608E+05
 0.11612000E+03 -0.74553E+05
 0.11617000E+03 -0.71905E+05
 0.11622000E+03 -0.74455E+05
 0.11627000E+03 -0.72505E+05
 0.11632000E+03 -0.61822E+05
 0.11637000E+03 -0.42840E+05
 0.11642000E+03 -0.21797E+05
 0.11647000E+03 -0.59000E+04
 0.11652000E+03  0.11144E+05
 0.11657000E+03  0.36533E+05
 0.11662000E+03  0.67660E+05
 0.11667000E+03  0.10337E+06
 0.11672000E+03  0.13900E+06
 0.11677000E+03  0.16916E+06
 0.11682000E+03  0.19452E+06
 0.11687000E+03  0.21267E+06
 0.11692000E+03  0.21917E+06
 0.11697000E+03  0.21970E+06
 0.11702000E+03  0.21557E+06
 0.11707000E+03  0.20966E+06
 0.11712000E+03  0.21157E+06
 0.11717000E+03  0.21523E+06
 0.11722000E+03  0.22112E+06
 0.11727000E+03  0.23405E+06
 0.11732000E+03  0.24653E+06
 0.11737000E+03  0.25987E+06
 0.11742000E+03  0.26767E+06
 0.11747000E+03  0.26171E+06
 0.11752000E+03  0.24533E+06
 0.11757000E+03  0.21764E+06
 0.11762000E+03  0.18916E+06
 0.11767000E+03  0.16478E+06
 0.11772000E+03  0.13892E+06
 0.11777000E+03  0.11219E+06
 0.11782000E+03  0.86776E+05
 0.11787000E+03  0.62660E+05
 0.11792000E+03  0.33354E+05
 0.11797000E+03  0.95900E+03
 0.11802000E+03 -0.29386E+05
 0.11807000E+03 -0.56490E+05
 0.11812000E+03 -0.77425E+05
 0.11817000E+03 -0.92581E+05
 0.11822000E+03 -0.10859E+06
 0.11827000E+03 -0.12991E+06
 0.11832000E+03 -0.14697E+06
 0.11837000E+03 -0.14820E+06
 0.11842000E+03 -0.13509E+06
 0.11847000E+03 -0.11678E+06
 0.11852000E+03 -0.10319E+06
 0.11857000E+03 -0.99443E+05
 0.11862000E+03 -0.10702E+06
 0.11867000E+03 -0.12866E+06
 0.11872000E+03 -0.16083E+06
 0.11877000E+03 -0.19364E+06
 0.11882000E+03 -0.21788E+06
 0.11887000E+03 -0.23452E+06
 0.11892000E+03 -0.24796E+06
 0.11897000E+03 -0.25772E+06
 0.11902000E+03 -0.26626E+06
 0.11907000E+03 -0.27647E+06
 0.11912000E+03 -0.28457E+06
 0.11917000E+03 -0.28113E+06
 0.11922000E+03 -0.25535E+06
 0.11927000E+03 -0.20670E+06
 0.11932000E+03 -0.15455E+06
 0.11937000E+03 -0.11114E+06
 0.11942000E+03 -0.81564E+05
 0.11947000E+03 -0.69299E+05
 0.11952000E+03 -0.62929E+05
 0.11957000E+03 -0.54236E+05
 0.11962000E+03 -0.35151E+05
 0.11967000E+03 -0.52600E+03
 0.11972000E+03  0.45463E+05
 0.11977000E+03  0.96783E+05
 0.11982000E+03  0.15040E+06
 0.11987000E+03  0.20574E+06
 0.11992000E+03  0.25367E+06
 0.11997000E+03  0.29488E+06
 0.12002000E+03  0.33086E+06
 0.12007000E+03  0.35896E+06
 0.12012000E+03  0.38653E+06
 0.12017000E+03  0.41044E+06
 0.12022000E+03  0.42571E+06
 0.12027000E+03  0.43336E+06
 0.12032000E+03  0.43592E+06
 0.12037000E+03  0.43474E+06
 0.12042000E+03  0.42817E+06
 0.12047000E+03  0.41602E+06
 0.12052000E+03  0.39478E+06
 0.12057000E+03  0.36347E+06
 0.12062000E+03  0.32725E+06
 0.12067000E+03  0.29490E+06
 0.12072000E+03  0.27498E+06
 0.12077000E+03  0.26811E+06
 0.12082000E+03  0.26711E+06
 0.12087000E+03  0.26162E+06
 0.12092000E+03  0.24419E+06
 0.12097000E+03  0.22083E+06
 0.12102000E+03  0.19781E+06
 0.12107000E+03  0.17025E+06
 0.12112000E+03  0.13230E+06
 0.12117000E+03  0.80247E+05
 0.12122000E+03  0.21947E+05
 0.12127000E+03 -0.28336E+05
 0.12132000E+03 -0.67927E+05
 0.12137000E+03 -0.97717E+05
 0.12142000E+03 -0.11824E+06
 0.12147000E+03 -0.13206E+06
 0.12152000E+03 -0.13424E+06
 0.12157000E+03 -0.12512E+06
 0.12162000E+03 -0.11180E+06
 0.12167000E+03 -0.98806E+05
 0.12172000E+03 -0.95653E+05
 0.12177000E+03 -0.10581E+06
 0.12182000E+03 -0.12294E+06
 0.12187000E+03 -0.14228E+06
 0.12192000E+03 -0.16172E+06
 0.12197000E+03 -0.18503E+06
 0.12202000E+03 -0.21596E+06
 0.12207000E+03 -0.24457E+06
 0.12212000E+03 -0.26648E+06
 0.12217000E+03 -0.28068E+06
 0.12222000E+03 -0.27799E+06
 0.12227000E+03 -0.26088E+06
 0.12232000E+03 -0.23095E+06
 0.12237000E+03 -0.19162E+06
 0.12242000E+03 -0.15439E+06
 0.12247000E+03 -0.11928E+06
 0.12252000E+03 -0.82114E+05
 0.12257000E+03 -0.43771E+05
 0.12262000E+03 -0.99080E+04
 0.12267000E+03  0.14961E+05
 0.12272000E+03  0.34145E+05
 0.12277000E+03  0.47564E+05
 0.12282000E+03  0.50013E+05
 0.12287000E+03  0.45089E+05
 0.12292000E+03  0.36176E+05
 0.12297000E+03  0.19581E+05
 0.12302000E+03 -0.49930E+04
 0.12307000E+03 -0.29512E+05
 0.12312000E+03 -0.44601E+05
 0.12317000E+03 -0.46133E+05
 0.12322000E+03 -0.35349E+05
 0.12327000E+03 -0.16878E+05
 0.12332000E+03  0.89130E+04
 0.12337000E+03  0.42006E+05
 0.12342000E+03  0.77363E+05
 0.12347000E+03  0.10730E+06
 0.12352000E+03  0.13068E+06
 0.12357000E+03  0.15482E+06
 0.12362000E+03  0.17697E+06
 0.12367000E+03  0.18691E+06
 0.12372000E+03  0.18223E+06
 0.12377000E+03  0.16507E+06
 0.12382000E+03  0.14043E+06
 0.12387000E+03  0.10942E+06
 0.12392000E+03  0.71634E+05
 0.12397000E+03  0.38511E+05
 0.12402000E+03  0.16541E+05
 0.12407000E+03  0.48680E+04
 0.12412000E+03 -0.57800E+03
 0.12417000E+03 -0.11568E+05
 0.12422000E+03 -0.29463E+05
 0.12427000E+03 -0.49049E+05
 0.12432000E+03 -0.70123E+05
 0.12437000E+03 -0.97097E+05
 0.12442000E+03 -0.13307E+06
 0.12447000E+03 -0.17211E+06
 0.12452000E+03 -0.20697E+06
 0.12457000E+03 -0.23545E+06
 0.12462000E+03 -0.26319E+06
 0.12467000E+03 -0.29526E+06
 0.12472000E+03 -0.32342E+06
 0.12477000E+03 -0.33537E+06
 0.12482000E+03 -0.33066E+06
 0.12487000E+03 -0.31310E+06
 0.12492000E+03 -0.29032E+06
 0.12497000E+03 -0.27421E+06
 0.12502000E+03 -0.26090E+06
 0.12507000E+03 -0.24618E+06
 0.12512000E+03 -0.23134E+06
 0.12517001E+03 -0.21055E+06
 0.12521999E+03 -0.18328E+06
 0.12527000E+03 -0.15392E+06
 0.12532000E+03 -0.12898E+06
 0.12537000E+03 -0.11250E+06
 0.12542001E+03 -0.10009E+06
 0.12546999E+03 -0.88671E+05
 0.12552000E+03 -0.79541E+05
 0.12557000E+03 -0.73180E+05
 0.12562000E+03 -0.67509E+05
 0.12567001E+03 -0.63749E+05
 0.12571999E+03 -0.65601E+05
 0.12577000E+03 -0.76787E+05
 0.12582000E+03 -0.10121E+06
 0.12587000E+03 -0.13491E+06
 0.12592001E+03 -0.16727E+06
 0.12596999E+03 -0.18758E+06
 0.12602000E+03 -0.18981E+06
 0.12607000E+03 -0.17418E+06
 0.12612000E+03 -0.14344E+06
 0.12617001E+03 -0.10395E+06
 0.12621999E+03 -0.65218E+05
 0.12627000E+03 -0.30723E+05
 0.12632000E+03  0.51350E+04
 0.12637000E+03  0.50477E+05
 0.12642001E+03  0.10381E+06
 0.12646999E+03  0.15766E+06
 0.12652000E+03  0.20847E+06
 0.12657000E+03  0.25042E+06
 0.12662000E+03  0.28251E+06
 0.12667001E+03  0.30520E+06
 0.12671999E+03  0.31693E+06
 0.12677000E+03  0.32684E+06
 0.12682000E+03  0.33844E+06
 0.12687000E+03  0.34824E+06
 0.12692001E+03  0.35614E+06
 0.12696999E+03  0.35534E+06
 0.12702000E+03  0.33966E+06
 0.12707000E+03  0.30882E+06
 0.12712000E+03  0.26450E+06
 0.12717001E+03  0.21084E+06
 0.12721999E+03  0.15748E+06
 0.12727000E+03  0.11374E+06
 0.12732000E+03  0.83006E+05
 0.12737000E+03  0.70414E+05
 0.12742001E+03  0.73592E+05
 0.12746999E+03  0.82840E+05
 0.12752000E+03  0.91594E+05
 0.12757000E+03  0.92580E+05
 0.12762000E+03  0.79807E+05
 0.12767001E+03  0.53208E+05
 0.12771999E+03  0.17734E+05
 0.12777000E+03 -0.18646E+05
 0.12782000E+03 -0.49020E+05
 0.12787000E+03 -0.72701E+05
 0.12792001E+03 -0.95363E+05
 0.12796999E+03 -0.12100E+06
 0.12802000E+03 -0.14536E+06
 0.12807001E+03 -0.16583E+06
 0.12812001E+03 -0.18219E+06
 0.12817001E+03 -0.19611E+06
 0.12822000E+03 -0.20963E+06
 0.12827000E+03 -0.21901E+06
 0.12832001E+03 -0.22168E+06
 0.12837001E+03 -0.21465E+06
 0.12842001E+03 -0.19995E+06
 0.12847000E+03 -0.18313E+06
 0.12852000E+03 -0.16418E+06
 0.12857001E+03 -0.14494E+06
 0.12862001E+03 -0.13033E+06
 0.12867001E+03 -0.12255E+06
 0.12872000E+03 -0.11873E+06
 0.12877000E+03 -0.11380E+06
 0.12882001E+03 -0.10492E+06
 0.12887001E+03 -0.91202E+05
 0.12892001E+03 -0.71589E+05
 0.12897000E+03 -0.50096E+05
 0.12902000E+03 -0.30092E+05
 0.12907001E+03 -0.61950E+04
 0.12912001E+03  0.26116E+05
 0.12917001E+03  0.65721E+05
 0.12922000E+03  0.10635E+06
 0.12927000E+03  0.14508E+06
 0.12932001E+03  0.18258E+06
 0.12937001E+03  0.21736E+06
 0.12942001E+03  0.24801E+06
 0.12947000E+03  0.26651E+06
 0.12952000E+03  0.26788E+06
 0.12957001E+03  0.25607E+06
 0.12962001E+03  0.24114E+06
 0.12967001E+03  0.23070E+06
 0.12972000E+03  0.22388E+06
 0.12977000E+03  0.22456E+06
 0.12982001E+03  0.23195E+06
 0.12987001E+03  0.24057E+06
 0.12992001E+03  0.24720E+06
 0.12997000E+03  0.25189E+06
 0.13002000E+03  0.25735E+06
 0.13007001E+03  0.26075E+06
 0.13012001E+03  0.25893E+06
 0.13017001E+03  0.24944E+06
 0.13022000E+03  0.23183E+06
 0.13027000E+03  0.20441E+06
 0.13032001E+03  0.16766E+06
 0.13037001E+03  0.12612E+06
 0.13042001E+03  0.82581E+05
 0.13047000E+03  0.43478E+05
 0.13052000E+03  0.10193E+05
 0.13057001E+03 -0.17503E+05
 0.13062001E+03 -0.38272E+05
 0.13067001E+03 -0.53749E+05
 0.13072000E+03 -0.61952E+05
 0.13077000E+03 -0.67563E+05
 0.13082001E+03 -0.77588E+05
 0.13087001E+03 -0.91761E+05
 0.13092001E+03 -0.11054E+06
 0.13097000E+03 -0.13394E+06
 0.13102000E+03 -0.16058E+06
 0.13107001E+03 -0.18726E+06
 0.13112001E+03 -0.21141E+06
 0.13117001E+03 -0.22806E+06
 0.13122000E+03 -0.23506E+06
 0.13127000E+03 -0.23690E+06
 0.13132001E+03 -0.23074E+06
 0.13137001E+03 -0.21677E+06
 0.13142001E+03 -0.19962E+06
 0.13147000E+03 -0.18444E+06
 0.13152000E+03 -0.17412E+06
 0.13157001E+03 -0.16263E+06
 0.13162001E+03 -0.15327E+06
 0.13167001E+03 -0.15278E+06
 0.13172000E+03 -0.15910E+06
 0.13177000E+03 -0.16817E+06
 0.13182001E+03 -0.17508E+06
 0.13187001E+03 -0.17849E+06
 0.13192001E+03 -0.18056E+06
 0.13197000E+03 -0.17924E+06
 0.13202000E+03 -0.17037E+06
 0.13207001E+03 -0.15513E+06
 0.13212001E+03 -0.13508E+06
 0.13217001E+03 -0.11333E+06
 0.13222000E+03 -0.87329E+05
 0.13227000E+03 -0.55331E+05
 0.13232001E+03 -0.28378E+05
 0.13237001E+03 -0.71830E+04
 0.13242001E+03  0.10419E+05
 0.13247000E+03  0.28840E+05
 0.13252000E+03  0.54854E+05
 0.13257001E+03  0.88187E+05
 0.13262001E+03  0.12682E+06
 0.13267001E+03  0.16047E+06
 0.13272000E+03  0.18838E+06
 0.13277000E+03  0.21243E+06
 0.13282001E+03  0.22646E+06
 0.13287001E+03  0.22965E+06
 0.13292001E+03  0.22248E+06
 0.13297000E+03  0.20668E+06
 0.13302000E+03  0.18574E+06
 0.13307001E+03  0.16158E+06
 0.13312001E+03  0.13392E+06
 0.13317001E+03  0.10816E+06
 0.13322000E+03  0.88054E+05
 0.13327000E+03  0.65955E+05
 0.13332001E+03  0.38466E+05
 0.13337001E+03  0.10787E+05
 0.13342001E+03 -0.16042E+05
 0.13347000E+03 -0.46387E+05
 0.13352000E+03 -0.79644E+05
 0.13357001E+03 -0.11202E+06
 0.13362001E+03 -0.14166E+06
 0.13367001E+03 -0.16645E+06
 0.13372000E+03 -0.18493E+06
 0.13377000E+03 -0.19790E+06
 0.13382001E+03 -0.20490E+06
 0.13387001E+03 -0.20519E+06
 0.13392001E+03 -0.20244E+06
 0.13397000E+03 -0.20040E+06
 0.13402000E+03 -0.19974E+06
 0.13407001E+03 -0.20022E+06
 0.13412001E+03 -0.19923E+06
 0.13417001E+03 -0.18999E+06
 0.13422000E+03 -0.16770E+06
 0.13427000E+03 -0.13256E+06
 0.13432001E+03 -0.89937E+05
 0.13437001E+03 -0.48197E+05
 0.13442001E+03 -0.13307E+05
 0.13447000E+03  0.12265E+05
 0.13452000E+03  0.28704E+05
 0.13457001E+03  0.41188E+05
 0.13462001E+03  0.53906E+05
 0.13467001E+03  0.65085E+05
 0.13472000E+03  0.75877E+05
 0.13477000E+03  0.84329E+05
 0.13482001E+03  0.87477E+05
 0.13487001E+03  0.85562E+05
 0.13492001E+03  0.73975E+05
 0.13497000E+03  0.54819E+05
 0.13502000E+03  0.32964E+05
 0.13507001E+03  0.95570E+04
 0.13512001E+03 -0.98080E+04
 0.13517001E+03 -0.22640E+05
 0.13522000E+03 -0.32389E+05
 0.13527000E+03 -0.45168E+05
 0.13532001E+03 -0.65325E+05
 0.13537001E+03 -0.90525E+05
 0.13542001E+03 -0.11674E+06
 0.13547000E+03 -0.14125E+06
 0.13552000E+03 -0.15828E+06
 0.13557001E+03 -0.16535E+06
 0.13562001E+03 -0.16516E+06
 0.13567001E+03 -0.15747E+06
 0.13572000E+03 -0.14704E+06
 0.13577000E+03 -0.13856E+06
 0.13582001E+03 -0.13165E+06
 0.13587001E+03 -0.12595E+06
 0.13592001E+03 -0.12011E+06
 0.13597000E+03 -0.11490E+06
 0.13602000E+03 -0.10618E+06
 0.13607001E+03 -0.93099E+05
 0.13612001E+03 -0.81446E+05
 0.13617001E+03 -0.69272E+05
 0.13622000E+03 -0.53732E+05
 0.13627000E+03 -0.33523E+05
 0.13632001E+03 -0.71600E+04
 0.13637001E+03  0.26550E+05
 0.13642001E+03  0.66677E+05
 0.13647000E+03  0.11006E+06
 0.13652000E+03  0.15522E+06
 0.13657001E+03  0.19341E+06
 0.13662001E+03  0.21843E+06
 0.13667001E+03  0.23125E+06
 0.13672000E+03  0.23445E+06
 0.13677000E+03  0.23252E+06
 0.13682001E+03  0.22588E+06
 0.13687001E+03  0.22101E+06
 0.13692001E+03  0.22125E+06
 0.13697000E+03  0.22093E+06
 0.13702000E+03  0.21597E+06
 0.13707001E+03  0.20456E+06
 0.13712001E+03  0.19019E+06
 0.13717001E+03  0.17328E+06
 0.13722000E+03  0.14831E+06
 0.13727000E+03  0.11391E+06
 0.13732001E+03  0.75788E+05
 0.13737001E+03  0.40496E+05
 0.13742001E+03  0.12196E+05
 0.13747000E+03 -0.11584E+05
 0.13752000E+03 -0.35272E+05
 0.13757001E+03 -0.59741E+05
 0.13762001E+03 -0.85023E+05
 0.13767001E+03 -0.10690E+06
 0.13772000E+03 -0.12424E+06
 0.13777000E+03 -0.13692E+06
 0.13782001E+03 -0.14621E+06
 0.13787001E+03 -0.15565E+06
 0.13792001E+03 -0.16218E+06
 0.13797000E+03 -0.16875E+06
 0.13802000E+03 -0.17938E+06
 0.13807001E+03 -0.19230E+06
 0.13812001E+03 -0.20591E+06
 0.13817001E+03 -0.21538E+06
 0.13822000E+03 -0.21816E+06
 0.13827000E+03 -0.21629E+06
 0.13832001E+03 -0.21191E+06
 0.13837001E+03 -0.20668E+06
 0.13842001E+03 -0.20078E+06
 0.13847000E+03 -0.19131E+06
 0.13852000E+03 -0.17794E+06
 0.13857001E+03 -0.16238E+06
 0.13862001E+03 -0.14623E+06
 0.13867001E+03 -0.13253E+06
 0.13872000E+03 -0.12218E+06
 0.13877000E+03 -0.11295E+06
 0.13882001E+03 -0.10212E+06
 0.13887001E+03 -0.90308E+05
 0.13892001E+03 -0.76408E+05
 0.13897000E+03 -0.57416E+05
 0.13902000E+03 -0.35653E+05
 0.13907001E+03 -0.14026E+05
 0.13912001E+03  0.78480E+04
 0.13917001E+03  0.27537E+05
 0.13922000E+03  0.40672E+05
 0.13927000E+03  0.49203E+05
 0.13932001E+03  0.55534E+05
 0.13937001E+03  0.62004E+05
 0.13942001E+03  0.72456E+05
 0.13947000E+03  0.86353E+05
 0.13952000E+03  0.10375E+06
 0.13957001E+03  0.12494E+06
 0.13962001E+03  0.14850E+06
 0.13967001E+03  0.17456E+06
 0.13972000E+03  0.19967E+06
 0.13977000E+03  0.21873E+06
 0.13982001E+03  0.23479E+06
 0.13987001E+03  0.24946E+06
 0.13992001E+03  0.26265E+06
 0.13997000E+03  0.27575E+06
 0.14002000E+03  0.28497E+06
 0.14007001E+03  0.28776E+06
 0.14012001E+03  0.28202E+06
 0.14017001E+03  0.26630E+06
 0.14022000E+03  0.24010E+06
 0.14027000E+03  0.20833E+06
 0.14032001E+03  0.17843E+06
 0.14037001E+03  0.15075E+06
 0.14042001E+03  0.12737E+06
 0.14047000E+03  0.10808E+06
 0.14052000E+03  0.89932E+05
 0.14057001E+03  0.73748E+05
 0.14062001E+03  0.57993E+05
 0.14067001E+03  0.39845E+05
 0.14072000E+03  0.17213E+05
 0.14077000E+03 -0.87520E+04
 0.14082001E+03 -0.31795E+05
 0.14087001E+03 -0.46088E+05
 0.14092001E+03 -0.50643E+05
 0.14097000E+03 -0.51292E+05
 0.14102000E+03 -0.53204E+05
 0.14107001E+03 -0.55999E+05
 0.14112001E+03 -0.57555E+05
 0.14117001E+03 -0.54468E+05
 0.14122000E+03 -0.46188E+05
 0.14127000E+03 -0.37787E+05
 0.14132001E+03 -0.30759E+05
 0.14137001E+03 -0.23934E+05
 0.14142001E+03 -0.17938E+05
 0.14147000E+03 -0.11159E+05
 0.14152000E+03 -0.51920E+04
 0.14157001E+03 -0.14180E+04
 0.14162001E+03  0.16040E+04
 0.14167001E+03  0.32540E+04
 0.14172000E+03  0.22530E+04
 0.14177000E+03 -0.24540E+04
 0.14182001E+03 -0.84640E+04
 0.14187001E+03 -0.14306E+05
 0.14192001E+03 -0.23949E+05
 0.14197000E+03 -0.38090E+05
 0.14202000E+03 -0.50570E+05
 0.14207001E+03 -0.59432E+05
 0.14212001E+03 -0.68107E+05
 0.14217001E+03 -0.76662E+05
 0.14222000E+03 -0.84606E+05
 0.14227000E+03 -0.92173E+05
 0.14232001E+03 -0.97097E+05
 0.14237001E+03 -0.97044E+05
 0.14242001E+03 -0.91018E+05
 0.14247000E+03 -0.78635E+05
 0.14252000E+03 -0.58653E+05
 0.14257001E+03 -0.30959E+05
 0.14262001E+03 -0.15800E+03
 0.14267001E+03  0.29371E+05
 0.14272000E+03  0.57820E+05
 0.14277000E+03  0.87808E+05
 0.14282001E+03  0.11731E+06
 0.14287001E+03  0.14414E+06
 0.14292001E+03  0.16978E+06
 0.14297000E+03  0.19271E+06
 0.14302000E+03  0.21498E+06
 0.14307001E+03  0.23667E+06
 0.14312001E+03  0.25494E+06
 0.14317001E+03  0.27132E+06
 0.14322000E+03  0.28609E+06
 0.14327000E+03  0.29865E+06
 0.14332001E+03  0.30562E+06
 0.14337001E+03  0.30469E+06
 0.14342001E+03  0.29428E+06
 0.14347000E+03  0.27278E+06
 0.14352000E+03  0.24463E+06
 0.14357001E+03  0.21087E+06
 0.14362001E+03  0.17221E+06
 0.14367001E+03  0.13435E+06
 0.14372000E+03  0.96598E+05
 0.14377000E+03  0.57988E+05
 0.14382001E+03  0.23063E+05
 0.14387001E+03 -0.84250E+04
 0.14392001E+03 -0.40367E+05
 0.14397000E+03 -0.73623E+05
 0.14402000E+03 -0.10906E+06
 0.14407001E+03 -0.14382E+06
 0.14412001E+03 -0.16981E+06
 0.14417001E+03 -0.18486E+06
 0.14422000E+03 -0.18890E+06
 0.14427000E+03 -0.18219E+06
 0.14432001E+03 -0.16806E+06
 0.14437001E+03 -0.15026E+06
 0.14442001E+03 -0.13545E+06
 0.14447000E+03 -0.12453E+06
 0.14452000E+03 -0.11748E+06
 0.14457001E+03 -0.11528E+06
 0.14462001E+03 -0.11119E+06
 0.14467001E+03 -0.10272E+06
 0.14472000E+03 -0.90792E+05
 0.14477000E+03 -0.75039E+05
 0.14482001E+03 -0.57228E+05
 0.14487001E+03 -0.38697E+05
 0.14492001E+03 -0.22898E+05
 0.14497000E+03 -0.15986E+05
 0.14502000E+03 -0.19531E+05
 0.14507001E+03 -0.28017E+05
 0.14512001E+03 -0.36729E+05
 0.14517001E+03 -0.43705E+05
 0.14522000E+03 -0.48432E+05
 0.14527000E+03 -0.52322E+05
 0.14532001E+03 -0.54753E+05
 0.14537001E+03 -0.53368E+05
 0.14542001E+03 -0.46399E+05
 0.14547000E+03 -0.33807E+05
 0.14552000E+03 -0.15150E+05
 0.14557001E+03  0.84210E+04
 0.14562001E+03  0.30996E+05
 0.14567001E+03  0.46712E+05
 0.14572000E+03  0.55856E+05
 0.14577000E+03  0.63286E+05
 0.14582001E+03  0.70448E+05
 0.14587001E+03  0.77121E+05
 0.14592001E+03  0.83994E+05
 0.14597000E+03  0.90933E+05
 0.14602000E+03  0.96615E+05
 0.14607001E+03  0.10040E+06
 0.14612001E+03  0.10244E+06
 0.14617001E+03  0.10188E+06
 0.14622000E+03  0.99034E+05
 0.14627000E+03  0.95392E+05
 0.14632001E+03  0.92522E+05
 0.14637001E+03  0.90011E+05
 0.14642001E+03  0.85825E+05
 0.14647000E+03  0.78849E+05
 0.14652000E+03  0.68384E+05
 0.14657001E+03  0.53368E+05
 0.14662001E+03  0.34292E+05
 0.14667001E+03  0.11301E+05
 0.14672000E+03 -0.19051E+05
 0.14677000E+03 -0.56994E+05
 0.14682001E+03 -0.99732E+05
 0.14687001E+03 -0.14342E+06
 0.14692001E+03 -0.18241E+06
 0.14697000E+03 -0.21500E+06
 0.14702000E+03 -0.24145E+06
 0.14707001E+03 -0.26370E+06
 0.14712001E+03 -0.28387E+06
 0.14717001E+03 -0.30015E+06
 0.14722000E+03 -0.31327E+06
 0.14727000E+03 -0.32559E+06
 0.14732001E+03 -0.33521E+06
 0.14737001E+03 -0.33917E+06
 0.14742001E+03 -0.33650E+06
 0.14747000E+03 -0.32826E+06
 0.14752000E+03 -0.31704E+06
 0.14757001E+03 -0.30536E+06
 0.14762001E+03 -0.29416E+06
 0.14767001E+03 -0.28243E+06
 0.14772000E+03 -0.27111E+06
 0.14777000E+03 -0.26480E+06
 0.14782001E+03 -0.26395E+06
 0.14787001E+03 -0.26326E+06
 0.14792001E+03 -0.25870E+06
 0.14797000E+03 -0.24925E+06
 0.14802000E+03 -0.23583E+06
 0.14807001E+03 -0.22014E+06
 0.14812001E+03 -0.20121E+06
 0.14817001E+03 -0.17876E+06
 0.14822000E+03 -0.15405E+06
 0.14827000E+03 -0.12770E+06
 0.14832001E+03 -0.10397E+06
 0.14837001E+03 -0.85539E+05
 0.14842001E+03 -0.71572E+05
 0.14847000E+03 -0.60065E+05
 0.14852000E+03 -0.48186E+05
 0.14857001E+03 -0.34839E+05
 0.14862001E+03 -0.17743E+05
 0.14867001E+03  0.41260E+04
 0.14872000E+03  0.30430E+05
 0.14877000E+03  0.59322E+05
 0.14882001E+03  0.86491E+05
 0.14887001E+03  0.10975E+06
 0.14892001E+03  0.12870E+06
 0.14897000E+03  0.14462E+06
 0.14902000E+03  0.15868E+06
 0.14907001E+03  0.17249E+06
 0.14912001E+03  0.18652E+06
 0.14917001E+03  0.19948E+06
 0.14922000E+03  0.20995E+06
 0.14927000E+03  0.21674E+06
 0.14932001E+03  0.22103E+06
 0.14937001E+03  0.22340E+06
 0.14942001E+03  0.22280E+06
 0.14947000E+03  0.21792E+06
 0.14952000E+03  0.21059E+06
 0.14957001E+03  0.20240E+06
 0.14962001E+03  0.19287E+06
 0.14967001E+03  0.18355E+06
 0.14972000E+03  0.17452E+06
 0.14977000E+03  0.16460E+06
 0.14982001E+03  0.15401E+06
 0.14987001E+03  0.14344E+06
 0.14992001E+03  0.13139E+06
 0.14997000E+03  0.11670E+06
