-0.29800000E+01  0.27216E+05
-0.29300001E+01  0.25486E+05
-0.28800001E+01  0.23773E+05
-0.28299999E+01  0.22930E+05
-0.27800000E+01  0.19877E+05
-0.27300000E+01  0.13948E+05
-0.26800001E+01  0.87840E+04
-0.26300001E+01  0.18930E+04
-0.25799999E+01 -0.60230E+04
-0.25300000E+01 -0.10287E+05
-0.24800000E+01 -0.12296E+05
-0.24300001E+01 -0.12854E+05
-0.23800001E+01 -0.94840E+04
-0.23299999E+01 -0.19510E+04
-0.22800000E+01  0.71030E+04
-0.22300000E+01  0.15274E+05
-0.21800001E+01  0.22848E+05
-0.21300001E+01  0.27977E+05
-0.20799999E+01  0.29752E+05
-0.20300000E+01  0.31780E+05
-0.19800000E+01  0.34327E+05
-0.19299999E+01  0.35501E+05
-0.18800000E+01  0.35830E+05
-0.18300000E+01  0.37685E+05
-0.17800000E+01  0.40406E+05
-0.17300000E+01  0.42516E+05
-0.16799999E+01  0.45167E+05
-0.16300000E+01  0.47089E+05
-0.15800000E+01  0.46429E+05
-0.15300000E+01  0.44162E+05
-0.14800000E+01  0.42507E+05
-0.14299999E+01  0.40741E+05
-0.13800000E+01  0.37949E+05
-0.13300000E+01  0.36227E+05
-0.12800000E+01  0.34280E+05
-0.12300000E+01  0.29547E+05
-0.11799999E+01  0.23040E+05
-0.11300000E+01  0.16244E+05
-0.10800000E+01  0.94280E+04
-0.10300000E+01  0.37310E+04
-0.98000002E+00  0.52600E+03
-0.93000007E+00 -0.22630E+04
-0.87999988E+00 -0.61240E+04
-0.82999992E+00 -0.10243E+05
-0.77999997E+00 -0.15949E+05
-0.73000002E+00 -0.24270E+05
-0.68000007E+00 -0.33017E+05
-0.62999988E+00 -0.39759E+05
-0.57999992E+00 -0.44885E+05
-0.52999997E+00 -0.47518E+05
-0.48000002E+00 -0.46197E+05
-0.43000007E+00 -0.42930E+05
-0.37999988E+00 -0.38892E+05
-0.32999992E+00 -0.33593E+05
-0.27999997E+00 -0.26930E+05
-0.23000002E+00 -0.22548E+05
-0.18000007E+00 -0.21092E+05
-0.12999988E+00 -0.18656E+05
-0.79999924E-01 -0.17909E+05
-0.29999971E-01 -0.19204E+05
 0.19999981E-01 -0.18545E+05
 0.69999933E-01 -0.17253E+05
 0.12000012E+00 -0.17272E+05
 0.17000008E+00 -0.15919E+05
 0.22000003E+00 -0.12566E+05
 0.26999998E+00 -0.10936E+05
 0.31999993E+00 -0.98080E+04
 0.37000012E+00 -0.63730E+04
 0.42000008E+00 -0.50270E+04
 0.47000003E+00 -0.69620E+04
 0.51999998E+00 -0.71190E+04
 0.56999993E+00 -0.64810E+04
 0.62000012E+00 -0.86830E+04
 0.67000008E+00 -0.11423E+05
 0.72000003E+00 -0.12408E+05
 0.76999998E+00 -0.15793E+05
 0.81999993E+00 -0.18191E+05
 0.87000012E+00 -0.14801E+05
 0.92000008E+00 -0.11573E+05
 0.97000003E+00 -0.87740E+04
 0.10200000E+01 -0.36930E+04
 0.10700002E+01  0.18480E+04
 0.11199999E+01  0.47240E+04
 0.11700001E+01  0.70650E+04
 0.12200003E+01  0.10999E+05
 0.12700000E+01  0.10895E+05
 0.13200002E+01  0.96030E+04
 0.13699999E+01  0.10945E+05
 0.14200001E+01  0.10744E+05
 0.14700003E+01  0.95260E+04
 0.15200000E+01  0.11084E+05
 0.15700002E+01  0.14732E+05
 0.16199999E+01  0.14847E+05
 0.16700001E+01  0.13533E+05
 0.17200003E+01  0.13562E+05
 0.17700000E+01  0.87640E+04
 0.18200002E+01  0.15270E+04
 0.18699999E+01 -0.25360E+04
 0.19200001E+01 -0.51770E+04
 0.19700003E+01 -0.78730E+04
 0.20200000E+01 -0.91760E+04
 0.20700002E+01 -0.83430E+04
 0.21199999E+01 -0.97230E+04
 0.21700001E+01 -0.11837E+05
 0.22200003E+01 -0.12240E+05
 0.22700000E+01 -0.16394E+05
 0.23200002E+01 -0.20790E+05
 0.23699999E+01 -0.22541E+05
 0.24200001E+01 -0.24970E+05
 0.24700003E+01 -0.26959E+05
 0.25200000E+01 -0.25937E+05
 0.25700002E+01 -0.20431E+05
 0.26199999E+01 -0.14537E+05
 0.26700001E+01 -0.70590E+04
 0.27200003E+01  0.39720E+04
 0.27700000E+01  0.13567E+05
 0.28200002E+01  0.20717E+05
 0.28699999E+01  0.26982E+05
 0.29200001E+01  0.31087E+05
 0.29700003E+01  0.29032E+05
 0.30200000E+01  0.24971E+05
 0.30700002E+01  0.21131E+05
 0.31199999E+01  0.14713E+05
 0.31700001E+01  0.90890E+04
 0.32200003E+01  0.55710E+04
 0.32700000E+01  0.27860E+04
 0.33200002E+01 -0.31000E+02
 0.33699999E+01 -0.12320E+04
 0.34200001E+01 -0.89600E+03
 0.34700003E+01 -0.21520E+04
 0.35200000E+01 -0.24600E+04
 0.35700002E+01 -0.16340E+04
 0.36199999E+01 -0.34920E+04
 0.36700001E+01 -0.64160E+04
 0.37200003E+01 -0.10136E+05
 0.37700000E+01 -0.14666E+05
 0.38200002E+01 -0.20533E+05
 0.38699999E+01 -0.26758E+05
 0.39200001E+01 -0.29694E+05
 0.39700003E+01 -0.30865E+05
 0.40200000E+01 -0.28068E+05
 0.40700002E+01 -0.20045E+05
 0.41199999E+01 -0.10878E+05
 0.41700001E+01 -0.16850E+04
 0.42200003E+01  0.70700E+04
 0.42700000E+01  0.13737E+05
 0.43200002E+01  0.17442E+05
 0.43699999E+01  0.19428E+05
 0.44200001E+01  0.20924E+05
 0.44700003E+01  0.21794E+05
 0.45200000E+01  0.23490E+05
 0.45700002E+01  0.25881E+05
 0.46199999E+01  0.27415E+05
 0.46700001E+01  0.29965E+05
 0.47200003E+01  0.32451E+05
 0.47700000E+01  0.33480E+05
 0.48200002E+01  0.33211E+05
 0.48699999E+01  0.31325E+05
 0.49200001E+01  0.27890E+05
 0.49700003E+01  0.21945E+05
 0.50200000E+01  0.15644E+05
 0.50700002E+01  0.96510E+04
 0.51200004E+01  0.27960E+04
 0.51700006E+01 -0.40760E+04
 0.52199998E+01 -0.10540E+05
 0.52700000E+01 -0.17498E+05
 0.53200002E+01 -0.24692E+05
 0.53700004E+01 -0.29410E+05
 0.54200006E+01 -0.31360E+05
 0.54699998E+01 -0.30125E+05
 0.55200000E+01 -0.24877E+05
 0.55700002E+01 -0.18222E+05
 0.56200004E+01 -0.10456E+05
 0.56700006E+01 -0.16250E+04
 0.57199998E+01  0.54850E+04
 0.57700000E+01  0.11733E+05
 0.58200002E+01  0.17294E+05
 0.58700004E+01  0.19905E+05
 0.59200006E+01  0.19670E+05
 0.59699998E+01  0.18088E+05
 0.60200000E+01  0.16348E+05
 0.60700002E+01  0.14509E+05
 0.61200004E+01  0.14038E+05
 0.61700006E+01  0.14399E+05
 0.62199998E+01  0.13637E+05
 0.62700000E+01  0.13282E+05
 0.63200002E+01  0.13136E+05
 0.63700004E+01  0.11623E+05
 0.64200006E+01  0.92830E+04
 0.64699998E+01  0.63190E+04
 0.65200000E+01  0.14910E+04
 0.65700002E+01 -0.40030E+04
 0.66200004E+01 -0.73660E+04
 0.66700006E+01 -0.90260E+04
 0.67199998E+01 -0.88070E+04
 0.67700000E+01 -0.54850E+04
 0.68200002E+01 -0.18280E+04
 0.68700004E+01  0.29400E+03
 0.69200006E+01  0.21310E+04
 0.69699998E+01  0.32740E+04
 0.70200000E+01  0.25930E+04
 0.70700002E+01  0.90000E+03
 0.71200004E+01 -0.16500E+03
 0.71700006E+01 -0.24460E+04
 0.72199998E+01 -0.58490E+04
 0.72700000E+01 -0.74750E+04
 0.73200002E+01 -0.86170E+04
 0.73700004E+01 -0.94260E+04
 0.74200006E+01 -0.82940E+04
 0.74699998E+01 -0.53240E+04
 0.75200000E+01 -0.30990E+04
 0.75700002E+01 -0.11670E+04
 0.76200004E+01  0.27890E+04
 0.76700006E+01  0.48050E+04
 0.77199998E+01  0.55980E+04
 0.77700000E+01  0.65140E+04
 0.78200002E+01  0.50100E+04
 0.78700004E+01 -0.13800E+03
 0.79200006E+01 -0.54030E+04
 0.79699998E+01 -0.68840E+04
 0.80200005E+01 -0.92480E+04
 0.80699997E+01 -0.90910E+04
 0.81200008E+01 -0.49900E+04
 0.81700001E+01 -0.14020E+04
 0.82199993E+01  0.64900E+03
 0.82700005E+01  0.33730E+04
 0.83199997E+01  0.80230E+04
 0.83700008E+01  0.10159E+05
 0.84200001E+01  0.12960E+05
 0.84699993E+01  0.16386E+05
 0.85200005E+01  0.17402E+05
 0.85699997E+01  0.16647E+05
 0.86200008E+01  0.16096E+05
 0.86700001E+01  0.13887E+05
 0.87199993E+01  0.89900E+04
 0.87700005E+01  0.65410E+04
 0.88199997E+01  0.41340E+04
 0.88700008E+01  0.90600E+03
 0.89200001E+01 -0.26900E+03
 0.89699993E+01  0.73200E+03
 0.90200005E+01  0.24360E+04
 0.90699997E+01  0.36880E+04
 0.91200008E+01  0.52630E+04
 0.91700001E+01  0.70940E+04
 0.92199993E+01  0.76080E+04
 0.92700005E+01  0.77700E+04
 0.93199997E+01  0.90950E+04
 0.93700008E+01  0.10787E+05
 0.94200001E+01  0.12245E+05
 0.94699993E+01  0.13043E+05
 0.95200005E+01  0.13845E+05
 0.95699997E+01  0.13159E+05
 0.96200008E+01  0.11939E+05
 0.96700001E+01  0.11286E+05
 0.97199993E+01  0.10224E+05
 0.97700005E+01  0.91110E+04
 0.98199997E+01  0.95080E+04
 0.98700008E+01  0.10490E+05
 0.99200001E+01  0.83370E+04
 0.99699993E+01  0.66250E+04
 0.10020000E+02  0.66140E+04
 0.10070000E+02  0.57390E+04
 0.10120001E+02  0.45640E+04
 0.10170000E+02  0.54820E+04
 0.10219999E+02  0.60580E+04
 0.10270000E+02  0.30480E+04
 0.10320000E+02 -0.19200E+03
 0.10370001E+02 -0.40020E+04
 0.10420000E+02 -0.99250E+04
 0.10469999E+02 -0.16526E+05
 0.10520000E+02 -0.21958E+05
 0.10570000E+02 -0.26875E+05
 0.10620001E+02 -0.30373E+05
 0.10670000E+02 -0.29425E+05
 0.10719999E+02 -0.26256E+05
 0.10770000E+02 -0.21393E+05
 0.10820000E+02 -0.13602E+05
 0.10870001E+02 -0.68060E+04
 0.10920000E+02 -0.28890E+04
 0.10969999E+02  0.82800E+03
 0.11020000E+02  0.32920E+04
 0.11070000E+02  0.22810E+04
 0.11120001E+02  0.13080E+04
 0.11170000E+02  0.16670E+04
 0.11219999E+02  0.70600E+03
 0.11270000E+02 -0.14100E+03
 0.11320000E+02  0.66500E+03
 0.11370001E+02 -0.70000E+02
 0.11420000E+02 -0.26030E+04
 0.11469999E+02 -0.30500E+04
 0.11520000E+02 -0.42840E+04
 0.11570000E+02 -0.78430E+04
 0.11620001E+02 -0.94260E+04
 0.11670000E+02 -0.10690E+05
 0.11719999E+02 -0.13906E+05
 0.11770000E+02 -0.16174E+05
 0.11820000E+02 -0.16929E+05
 0.11870001E+02 -0.19020E+05
 0.11920000E+02 -0.21444E+05
 0.11969999E+02 -0.22548E+05
 0.12020000E+02 -0.24914E+05
 0.12070000E+02 -0.27850E+05
 0.12120001E+02 -0.27320E+05
 0.12170000E+02 -0.25689E+05
 0.12219999E+02 -0.25296E+05
 0.12270000E+02 -0.23189E+05
 0.12320000E+02 -0.21757E+05
 0.12370001E+02 -0.23155E+05
 0.12420000E+02 -0.23761E+05
 0.12469999E+02 -0.23509E+05
 0.12520000E+02 -0.24190E+05
 0.12570000E+02 -0.23966E+05
 0.12620001E+02 -0.20731E+05
 0.12670000E+02 -0.16061E+05
 0.12719999E+02 -0.11074E+05
 0.12770000E+02 -0.38670E+04
 0.12820000E+02  0.40270E+04
 0.12870001E+02  0.10291E+05
 0.12920000E+02  0.16755E+05
 0.12969999E+02  0.22895E+05
 0.13020000E+02  0.26612E+05
 0.13070002E+02  0.29394E+05
 0.13120001E+02  0.33244E+05
 0.13170000E+02  0.37029E+05
 0.13220001E+02  0.41135E+05
 0.13270000E+02  0.47051E+05
 0.13320002E+02  0.51315E+05
 0.13370001E+02  0.53962E+05
 0.13420000E+02  0.56443E+05
 0.13470001E+02  0.56520E+05
 0.13520000E+02  0.54352E+05
 0.13570002E+02  0.51124E+05
 0.13620001E+02  0.47468E+05
 0.13670000E+02  0.42259E+05
 0.13720001E+02  0.36808E+05
 0.13770000E+02  0.32993E+05
 0.13820002E+02  0.28796E+05
 0.13870001E+02  0.24329E+05
 0.13920000E+02  0.20119E+05
 0.13970001E+02  0.14939E+05
 0.14020000E+02  0.78390E+04
 0.14070002E+02 -0.10430E+04
 0.14120001E+02 -0.93410E+04
 0.14170000E+02 -0.16435E+05
 0.14220001E+02 -0.22119E+05
 0.14270000E+02 -0.25518E+05
 0.14320002E+02 -0.27608E+05
 0.14370001E+02 -0.28444E+05
 0.14420000E+02 -0.28260E+05
 0.14470001E+02 -0.25647E+05
 0.14520000E+02 -0.22445E+05
 0.14570002E+02 -0.20902E+05
 0.14620001E+02 -0.18031E+05
 0.14670000E+02 -0.15710E+05
 0.14720001E+02 -0.12712E+05
 0.14770000E+02 -0.67720E+04
 0.14820002E+02 -0.11600E+03
 0.14870001E+02  0.59240E+04
 0.14920000E+02  0.10780E+05
 0.14970001E+02  0.15342E+05
 0.15020000E+02  0.17570E+05
 0.15070002E+02  0.19009E+05
 0.15120001E+02  0.21009E+05
 0.15170000E+02  0.21758E+05
 0.15220001E+02  0.21783E+05
 0.15270000E+02  0.20129E+05
 0.15320002E+02  0.17767E+05
 0.15370001E+02  0.15110E+05
 0.15420000E+02  0.13016E+05
 0.15470001E+02  0.12619E+05
 0.15520000E+02  0.11739E+05
 0.15570002E+02  0.95330E+04
 0.15620001E+02  0.60090E+04
 0.15670000E+02  0.15990E+04
 0.15720001E+02 -0.43340E+04
 0.15770000E+02 -0.11161E+05
 0.15820002E+02 -0.15913E+05
 0.15870001E+02 -0.20378E+05
 0.15920000E+02 -0.26054E+05
 0.15970001E+02 -0.29398E+05
 0.16020000E+02 -0.31047E+05
 0.16070002E+02 -0.34021E+05
 0.16120001E+02 -0.36204E+05
 0.16170000E+02 -0.36689E+05
 0.16220001E+02 -0.37650E+05
 0.16270000E+02 -0.38261E+05
 0.16320002E+02 -0.37117E+05
 0.16370001E+02 -0.36940E+05
 0.16420000E+02 -0.37948E+05
 0.16470001E+02 -0.36302E+05
 0.16520000E+02 -0.34027E+05
 0.16570002E+02 -0.34634E+05
 0.16620001E+02 -0.34362E+05
 0.16670000E+02 -0.32836E+05
 0.16720001E+02 -0.33914E+05
 0.16770000E+02 -0.33198E+05
 0.16820002E+02 -0.29390E+05
 0.16870001E+02 -0.27198E+05
 0.16920000E+02 -0.23774E+05
 0.16970001E+02 -0.18371E+05
 0.17020000E+02 -0.15361E+05
 0.17070002E+02 -0.13356E+05
 0.17120001E+02 -0.96050E+04
 0.17170000E+02 -0.56430E+04
 0.17220001E+02 -0.34780E+04
 0.17270000E+02  0.20400E+03
 0.17320002E+02  0.50190E+04
 0.17370001E+02  0.71000E+04
 0.17420000E+02  0.11277E+05
 0.17470001E+02  0.16778E+05
 0.17520000E+02  0.19766E+05
 0.17570002E+02  0.23106E+05
 0.17620001E+02  0.25838E+05
 0.17670000E+02  0.26762E+05
 0.17720001E+02  0.27696E+05
 0.17770000E+02  0.29420E+05
 0.17820002E+02  0.29519E+05
 0.17870001E+02  0.29255E+05
 0.17920000E+02  0.31489E+05
 0.17970001E+02  0.32514E+05
 0.18020000E+02  0.32629E+05
 0.18070002E+02  0.33891E+05
 0.18120001E+02  0.33115E+05
 0.18170000E+02  0.28244E+05
 0.18220001E+02  0.22657E+05
 0.18270000E+02  0.18003E+05
 0.18320002E+02  0.11679E+05
 0.18370001E+02  0.80100E+04
 0.18420000E+02  0.89580E+04
 0.18470001E+02  0.10178E+05
 0.18520000E+02  0.12887E+05
 0.18570002E+02  0.17453E+05
 0.18620001E+02  0.20138E+05
 0.18670000E+02  0.21566E+05
 0.18720001E+02  0.23384E+05
 0.18770000E+02  0.23606E+05
 0.18820002E+02  0.22629E+05
 0.18870001E+02  0.21617E+05
 0.18920000E+02  0.19883E+05
 0.18970001E+02  0.16469E+05
 0.19020000E+02  0.12313E+05
 0.19070002E+02  0.82400E+04
 0.19120001E+02  0.34940E+04
 0.19170000E+02  0.49900E+03
 0.19220001E+02 -0.37700E+03
 0.19270000E+02 -0.98700E+03
 0.19320002E+02 -0.48000E+03
 0.19370001E+02  0.66100E+03
 0.19420000E+02  0.12020E+04
 0.19470001E+02  0.15220E+04
 0.19520000E+02  0.13920E+04
 0.19570002E+02 -0.22700E+03
 0.19620001E+02 -0.28520E+04
 0.19670000E+02 -0.55900E+04
 0.19720001E+02 -0.10353E+05
 0.19770000E+02 -0.16078E+05
 0.19820002E+02 -0.20066E+05
 0.19870001E+02 -0.23610E+05
 0.19920000E+02 -0.25554E+05
 0.19970001E+02 -0.24609E+05
 0.20020000E+02 -0.22069E+05
 0.20070002E+02 -0.18632E+05
 0.20120001E+02 -0.14386E+05
 0.20170000E+02 -0.10221E+05
 0.20220001E+02 -0.68150E+04
 0.20270000E+02 -0.26980E+04
 0.20320002E+02  0.10780E+04
 0.20370001E+02  0.32180E+04
 0.20420000E+02  0.55170E+04
 0.20470001E+02  0.71730E+04
 0.20520000E+02  0.60840E+04
 0.20570002E+02  0.42950E+04
 0.20620001E+02  0.29030E+04
 0.20670000E+02 -0.89800E+03
 0.20720001E+02 -0.65040E+04
 0.20770000E+02 -0.11391E+05
 0.20820002E+02 -0.17084E+05
 0.20870001E+02 -0.23241E+05
 0.20920000E+02 -0.26370E+05
 0.20970001E+02 -0.27781E+05
 0.21020000E+02 -0.29293E+05
 0.21070002E+02 -0.29152E+05
 0.21120001E+02 -0.26946E+05
 0.21170000E+02 -0.25583E+05
 0.21220001E+02 -0.24818E+05
 0.21270000E+02 -0.22485E+05
 0.21320002E+02 -0.20975E+05
 0.21370001E+02 -0.18751E+05
 0.21420000E+02 -0.15048E+05
 0.21470001E+02 -0.11312E+05
 0.21520000E+02 -0.66760E+04
 0.21570002E+02 -0.17190E+04
 0.21620001E+02  0.37120E+04
 0.21670000E+02  0.83880E+04
 0.21720001E+02  0.12764E+05
 0.21770000E+02  0.16230E+05
 0.21820002E+02  0.18262E+05
 0.21870001E+02  0.21088E+05
 0.21920000E+02  0.24204E+05
 0.21970001E+02  0.27373E+05
 0.22020000E+02  0.31300E+05
 0.22070002E+02  0.35322E+05
 0.22120001E+02  0.36920E+05
 0.22170000E+02  0.37598E+05
 0.22220001E+02  0.37523E+05
 0.22270000E+02  0.34697E+05
 0.22320002E+02  0.31028E+05
 0.22370001E+02  0.26614E+05
 0.22420000E+02  0.20792E+05
 0.22470001E+02  0.15499E+05
 0.22520000E+02  0.11241E+05
 0.22570002E+02  0.60010E+04
 0.22620001E+02  0.12870E+04
 0.22670000E+02 -0.26220E+04
 0.22720001E+02 -0.72580E+04
 0.22770000E+02 -0.11827E+05
 0.22820002E+02 -0.14273E+05
 0.22870001E+02 -0.15174E+05
 0.22920000E+02 -0.15901E+05
 0.22970001E+02 -0.13878E+05
 0.23020000E+02 -0.98490E+04
 0.23070002E+02 -0.50900E+04
 0.23120001E+02 -0.36300E+03
 0.23170000E+02  0.25770E+04
 0.23220001E+02  0.51250E+04
 0.23270000E+02  0.82260E+04
 0.23320002E+02  0.91280E+04
 0.23370001E+02  0.73000E+04
 0.23420000E+02  0.60900E+04
 0.23470001E+02  0.58640E+04
 0.23520000E+02  0.53310E+04
 0.23570002E+02  0.64410E+04
 0.23620001E+02  0.10767E+05
 0.23670000E+02  0.14561E+05
 0.23720001E+02  0.14485E+05
 0.23770000E+02  0.14099E+05
 0.23820002E+02  0.14026E+05
 0.23870001E+02  0.11840E+05
 0.23920000E+02  0.13303E+05
 0.23970001E+02  0.17258E+05
 0.24020000E+02  0.22281E+05
 0.24070002E+02  0.32020E+05
 0.24120001E+02  0.42526E+05
 0.24170000E+02  0.52848E+05
 0.24220001E+02  0.64790E+05
 0.24270000E+02  0.77575E+05
 0.24320002E+02  0.91145E+05
 0.24370001E+02  0.10982E+06
 0.24420000E+02  0.12488E+06
 0.24470001E+02  0.13436E+06
 0.24520000E+02  0.14020E+06
 0.24570002E+02  0.13377E+06
 0.24620001E+02  0.12846E+06
 0.24670000E+02  0.12200E+06
 0.24720001E+02  0.10068E+06
 0.24770000E+02  0.82250E+05
 0.24820002E+02  0.74667E+05
 0.24870001E+02  0.61354E+05
 0.24920000E+02  0.51243E+05
 0.24970001E+02  0.47215E+05
 0.25020000E+02  0.37405E+05
 0.25070002E+02  0.32085E+05
 0.25120001E+02  0.46297E+05
 0.25170000E+02  0.70354E+05
 0.25220001E+02  0.67904E+05
 0.25270000E+02  0.57184E+05
 0.25320002E+02  0.71443E+05
 0.25370001E+02  0.77740E+05
 0.25420000E+02  0.52372E+05
 0.25470001E+02  0.38172E+05
 0.25520000E+02  0.41828E+05
 0.25570002E+02  0.14035E+05
 0.25620001E+02 -0.34622E+05
 0.25670000E+02 -0.85762E+05
 0.25720001E+02 -0.15802E+06
 0.25770000E+02 -0.22424E+06
 0.25820002E+02 -0.23792E+06
 0.25870001E+02 -0.23455E+06
 0.25920000E+02 -0.24793E+06
 0.25970001E+02 -0.22350E+06
 0.26020000E+02 -0.16757E+06
 0.26070002E+02 -0.16726E+06
 0.26120001E+02 -0.22373E+06
 0.26170000E+02 -0.22114E+06
 0.26220001E+02 -0.14443E+06
 0.26270000E+02 -0.10498E+06
 0.26320002E+02 -0.58785E+05
 0.26370001E+02  0.86450E+04
 0.26420000E+02  0.23250E+05
 0.26470001E+02  0.11215E+05
 0.26520000E+02 -0.25473E+05
 0.26570002E+02 -0.23607E+05
 0.26620001E+02 -0.12959E+05
 0.26670000E+02 -0.61214E+05
 0.26720001E+02 -0.17886E+05
 0.26770000E+02  0.43990E+05
 0.26820002E+02 -0.63262E+05
 0.26870001E+02 -0.18033E+06
 0.26920000E+02 -0.15647E+06
 0.26970001E+02 -0.85022E+05
 0.27020000E+02 -0.82078E+05
 0.27070002E+02 -0.14101E+06
 0.27120001E+02 -0.83470E+05
 0.27170000E+02  0.90975E+05
 0.27220001E+02  0.18313E+06
 0.27270000E+02  0.24414E+06
 0.27320002E+02  0.34331E+06
 0.27370001E+02  0.39300E+06
 0.27420000E+02  0.39031E+06
 0.27470001E+02  0.32939E+06
 0.27520000E+02  0.19956E+06
 0.27570002E+02  0.15089E+06
 0.27620001E+02  0.19602E+06
 0.27670000E+02  0.17116E+06
 0.27720001E+02  0.44563E+05
 0.27770000E+02 -0.14645E+06
 0.27820002E+02 -0.27096E+06
 0.27870001E+02 -0.34493E+06
 0.27920000E+02 -0.49015E+06
 0.27970001E+02 -0.55724E+06
 0.28020000E+02 -0.46170E+06
 0.28070002E+02 -0.30626E+06
 0.28120001E+02 -0.24585E+06
 0.28170000E+02 -0.29061E+06
 0.28220001E+02 -0.20556E+06
 0.28270000E+02 -0.24453E+05
 0.28320002E+02  0.28859E+05
 0.28370001E+02  0.31970E+05
 0.28420000E+02  0.95083E+05
 0.28470001E+02  0.19119E+06
 0.28520000E+02  0.27402E+06
 0.28570002E+02  0.21800E+06
 0.28620001E+02  0.90950E+04
 0.28670000E+02 -0.16738E+06
 0.28720001E+02 -0.20243E+06
 0.28770000E+02 -0.11457E+06
 0.28820002E+02 -0.31467E+05
 0.28870001E+02 -0.70167E+05
 0.28920000E+02 -0.97025E+05
 0.28970001E+02 -0.11707E+06
 0.29020000E+02 -0.31283E+06
 0.29070000E+02 -0.53116E+06
 0.29120003E+02 -0.56780E+06
 0.29170002E+02 -0.51531E+06
 0.29220001E+02 -0.42386E+06
 0.29270000E+02 -0.29555E+06
 0.29320000E+02 -0.26381E+06
 0.29370003E+02 -0.22708E+06
 0.29420002E+02 -0.11591E+06
 0.29470001E+02 -0.50736E+05
 0.29520000E+02 -0.39696E+05
 0.29570000E+02 -0.18309E+06
 0.29620003E+02 -0.38328E+06
 0.29670002E+02 -0.26508E+06
 0.29720001E+02  0.31900E+03
 0.29770000E+02  0.88719E+05
 0.29820000E+02  0.10881E+06
 0.29870003E+02  0.56609E+05
 0.29920002E+02  0.11288E+06
 0.29970001E+02  0.23626E+06
 0.30020000E+02  0.97450E+05
 0.30070000E+02 -0.69439E+05
 0.30120003E+02 -0.39545E+05
 0.30170002E+02  0.87000E+04
 0.30220001E+02 -0.10459E+06
 0.30270000E+02 -0.28331E+06
 0.30320000E+02 -0.52876E+06
 0.30370003E+02 -0.64895E+06
 0.30420002E+02 -0.40579E+06
 0.30470001E+02 -0.10980E+06
 0.30520000E+02  0.55531E+05
 0.30570000E+02  0.12568E+06
 0.30620003E+02  0.20223E+06
 0.30670002E+02  0.23815E+06
 0.30720001E+02  0.72545E+05
 0.30770000E+02 -0.12122E+06
 0.30820000E+02 -0.13014E+06
 0.30870003E+02  0.94061E+05
 0.30920002E+02  0.39427E+06
 0.30970001E+02  0.53505E+06
 0.31020000E+02  0.54655E+06
 0.31070000E+02  0.41067E+06
 0.31120003E+02  0.16522E+05
 0.31170002E+02 -0.34909E+06
 0.31220001E+02 -0.35774E+06
 0.31270000E+02 -0.12281E+06
 0.31320000E+02  0.49246E+05
 0.31370003E+02 -0.53500E+04
 0.31420002E+02 -0.16631E+06
 0.31470001E+02 -0.16189E+06
 0.31520000E+02 -0.15543E+06
 0.31570000E+02 -0.20432E+06
 0.31620003E+02 -0.50281E+05
 0.31670002E+02  0.26319E+05
 0.31720001E+02 -0.13482E+05
 0.31770000E+02  0.79335E+05
 0.31820000E+02  0.18745E+06
 0.31870003E+02  0.22781E+06
 0.31920002E+02  0.25717E+06
 0.31970001E+02  0.17823E+06
 0.32020000E+02  0.32890E+04
 0.32070000E+02 -0.32580E+05
 0.32120003E+02  0.11604E+06
 0.32170002E+02  0.48934E+06
 0.32220001E+02  0.87230E+06
 0.32270000E+02  0.92024E+06
 0.32320000E+02  0.62604E+06
 0.32370003E+02  0.93737E+05
 0.32420002E+02 -0.54298E+06
 0.32470001E+02 -0.11140E+07
 0.32520000E+02 -0.13259E+07
 0.32570000E+02 -0.97590E+06
 0.32620003E+02 -0.40878E+06
 0.32670002E+02 -0.64657E+05
 0.32720001E+02  0.18062E+06
 0.32770000E+02  0.40430E+06
 0.32820000E+02  0.64386E+06
 0.32870003E+02  0.83640E+06
 0.32920002E+02  0.69610E+06
 0.32970001E+02  0.56565E+06
 0.33020000E+02  0.59186E+06
 0.33070000E+02  0.42753E+06
 0.33120003E+02  0.15652E+06
 0.33170002E+02  0.45196E+05
 0.33220001E+02  0.37572E+05
 0.33270000E+02 -0.68446E+05
 0.33320000E+02 -0.10459E+06
 0.33370003E+02  0.10075E+06
 0.33420002E+02  0.43546E+06
 0.33470001E+02  0.73307E+06
 0.33520000E+02  0.71152E+06
 0.33570000E+02  0.53616E+06
 0.33620003E+02  0.38416E+06
 0.33670002E+02  0.86610E+05
 0.33720001E+02 -0.15628E+06
 0.33770000E+02 -0.70962E+05
 0.33820000E+02  0.27960E+06
 0.33870003E+02  0.40579E+06
 0.33920002E+02  0.31097E+06
 0.33970001E+02  0.41165E+06
 0.34020000E+02  0.63222E+06
 0.34070000E+02  0.81848E+06
 0.34120003E+02  0.77712E+06
 0.34170002E+02  0.56191E+06
 0.34220001E+02  0.42314E+06
 0.34270000E+02  0.40326E+06
 0.34320000E+02  0.47185E+06
 0.34370003E+02  0.51371E+06
 0.34420002E+02  0.34995E+06
 0.34470001E+02 -0.11981E+06
 0.34520000E+02 -0.55554E+06
 0.34570000E+02 -0.64208E+06
 0.34620003E+02 -0.56608E+06
 0.34670002E+02 -0.53166E+06
 0.34720001E+02 -0.55347E+06
 0.34770000E+02 -0.50312E+06
 0.34820000E+02 -0.31407E+06
 0.34870003E+02  0.32577E+05
 0.34920002E+02  0.35050E+06
 0.34970001E+02  0.29998E+06
 0.35020000E+02  0.21760E+06
 0.35070000E+02  0.50745E+06
 0.35120003E+02  0.88612E+06
 0.35170002E+02  0.91522E+06
 0.35220001E+02  0.53847E+06
 0.35270000E+02  0.57090E+04
 0.35320000E+02 -0.50495E+06
 0.35370003E+02 -0.72140E+06
 0.35420002E+02 -0.70824E+06
 0.35470001E+02 -0.56405E+06
 0.35520000E+02 -0.13944E+06
 0.35570000E+02  0.27470E+06
 0.35620003E+02  0.43876E+06
 0.35670002E+02  0.17960E+06
 0.35720001E+02 -0.25390E+06
 0.35770000E+02 -0.35633E+06
 0.35820000E+02 -0.15902E+06
 0.35870003E+02  0.27524E+06
 0.35920002E+02  0.59464E+06
 0.35970001E+02  0.58599E+06
 0.36020000E+02  0.50077E+06
 0.36070000E+02  0.32232E+06
 0.36120003E+02  0.11203E+06
 0.36170002E+02 -0.22627E+05
 0.36220001E+02 -0.23135E+06
 0.36270000E+02 -0.41745E+06
 0.36320000E+02 -0.33338E+06
 0.36370003E+02 -0.19164E+06
 0.36420002E+02 -0.16575E+06
 0.36470001E+02 -0.19386E+06
 0.36520000E+02 -0.34244E+06
 0.36570000E+02 -0.42951E+06
 0.36620003E+02 -0.44326E+06
 0.36670002E+02 -0.47466E+06
 0.36720001E+02 -0.14556E+06
 0.36770000E+02  0.47320E+06
 0.36820000E+02  0.83621E+06
 0.36870003E+02  0.86468E+06
 0.36920002E+02  0.84341E+06
 0.36970001E+02  0.96268E+06
 0.37020000E+02  0.10180E+07
 0.37070000E+02  0.57860E+06
 0.37120003E+02 -0.26827E+06
 0.37170002E+02 -0.88153E+06
 0.37220001E+02 -0.10564E+07
 0.37270000E+02 -0.10365E+07
 0.37320000E+02 -0.84511E+06
 0.37370003E+02 -0.55284E+06
 0.37420002E+02 -0.19936E+06
 0.37470001E+02  0.11922E+06
 0.37520000E+02  0.22078E+06
 0.37570000E+02  0.19201E+06
 0.37620003E+02  0.15066E+05
 0.37670002E+02 -0.20156E+06
 0.37720001E+02 -0.32746E+06
 0.37770000E+02 -0.55436E+06
 0.37820000E+02 -0.79027E+06
 0.37870003E+02 -0.74459E+06
 0.37920002E+02 -0.58315E+06
 0.37970001E+02 -0.54282E+06
 0.38020000E+02 -0.50510E+06
 0.38070000E+02 -0.39558E+06
 0.38120003E+02 -0.99855E+05
 0.38170002E+02  0.24565E+06
 0.38220001E+02  0.37677E+06
 0.38270000E+02  0.35362E+06
 0.38320000E+02  0.89831E+05
 0.38370003E+02 -0.33779E+06
 0.38420002E+02 -0.74839E+06
 0.38470001E+02 -0.94774E+06
 0.38520000E+02 -0.78316E+06
 0.38570000E+02 -0.47358E+06
 0.38620003E+02 -0.82256E+05
 0.38670002E+02  0.31277E+06
 0.38720001E+02  0.55981E+06
 0.38770000E+02  0.60702E+06
 0.38820000E+02  0.37036E+06
 0.38870003E+02  0.35705E+05
 0.38920002E+02 -0.13820E+06
 0.38970001E+02 -0.25437E+06
 0.39020000E+02 -0.41919E+06
 0.39070000E+02 -0.38860E+06
 0.39120003E+02 -0.16616E+06
 0.39170002E+02 -0.86633E+05
 0.39220001E+02 -0.21146E+06
 0.39270000E+02 -0.43696E+06
 0.39320000E+02 -0.69563E+06
 0.39370003E+02 -0.84504E+06
 0.39420002E+02 -0.72767E+06
 0.39470001E+02 -0.38699E+06
 0.39520000E+02 -0.30503E+05
 0.39570000E+02  0.18599E+06
 0.39620003E+02  0.26679E+06
 0.39670002E+02  0.32945E+06
 0.39720001E+02  0.39121E+06
 0.39770000E+02  0.42295E+06
 0.39820000E+02  0.45751E+06
 0.39870003E+02  0.45651E+06
 0.39920002E+02  0.43684E+06
 0.39970001E+02  0.47264E+06
 0.40020000E+02  0.40607E+06
 0.40070000E+02  0.88049E+05
 0.40120003E+02 -0.34472E+06
 0.40170002E+02 -0.65435E+06
 0.40220001E+02 -0.64578E+06
 0.40270000E+02 -0.42097E+06
 0.40320000E+02 -0.30380E+06
 0.40370003E+02 -0.29359E+06
 0.40420002E+02 -0.19588E+06
 0.40470001E+02 -0.11622E+06
 0.40520000E+02 -0.11198E+06
 0.40570000E+02 -0.20366E+05
 0.40620003E+02  0.91470E+05
 0.40670002E+02  0.42384E+05
 0.40720001E+02 -0.14610E+06
 0.40770000E+02 -0.22122E+06
 0.40820000E+02 -0.22747E+06
 0.40870003E+02 -0.42541E+06
 0.40920002E+02 -0.62672E+06
 0.40970001E+02 -0.61704E+06
 0.41020000E+02 -0.45745E+06
 0.41070000E+02 -0.26109E+06
 0.41120003E+02  0.11690E+04
 0.41170002E+02  0.44838E+06
 0.41220001E+02  0.11492E+07
 0.41270000E+02  0.19766E+07
 0.41320000E+02  0.22997E+07
 0.41370003E+02  0.17447E+07
 0.41420002E+02  0.78994E+06
 0.41470001E+02 -0.85634E+05
 0.41520000E+02 -0.83421E+06
 0.41570000E+02 -0.15161E+07
 0.41620003E+02 -0.20228E+07
 0.41670002E+02 -0.19387E+07
 0.41720001E+02 -0.10591E+07
 0.41770000E+02  0.14751E+06
 0.41820000E+02  0.11853E+07
 0.41870003E+02  0.18645E+07
 0.41920002E+02  0.21805E+07
 0.41970001E+02  0.23788E+07
 0.42020000E+02  0.25031E+07
 0.42070000E+02  0.21234E+07
 0.42120003E+02  0.87992E+06
 0.42170002E+02 -0.93021E+06
 0.42220001E+02 -0.27997E+07
 0.42270000E+02 -0.42046E+07
 0.42320000E+02 -0.45827E+07
 0.42370003E+02 -0.39735E+07
 0.42420002E+02 -0.24774E+07
 0.42470001E+02 -0.18095E+06
 0.42520000E+02  0.25671E+07
 0.42570000E+02  0.52286E+07
 0.42620003E+02  0.67546E+07
 0.42670002E+02  0.65820E+07
 0.42720001E+02  0.46539E+07
 0.42770000E+02  0.12831E+07
 0.42820000E+02 -0.23927E+07
 0.42870003E+02 -0.52303E+07
 0.42920002E+02 -0.62834E+07
 0.42970001E+02 -0.54718E+07
 0.43020000E+02 -0.35254E+07
 0.43070000E+02 -0.11817E+07
 0.43120003E+02  0.85587E+06
 0.43170002E+02  0.25920E+07
 0.43220001E+02  0.38363E+07
 0.43270000E+02  0.38604E+07
 0.43320000E+02  0.26932E+07
 0.43370003E+02  0.76912E+06
 0.43420002E+02 -0.12853E+07
 0.43470001E+02 -0.27493E+07
 0.43520000E+02 -0.34185E+07
 0.43570000E+02 -0.34655E+07
 0.43620003E+02 -0.29829E+07
 0.43670002E+02 -0.19998E+07
 0.43720001E+02 -0.78836E+06
 0.43770000E+02  0.46465E+06
 0.43820000E+02  0.15670E+07
 0.43870003E+02  0.22552E+07
 0.43920002E+02  0.26623E+07
 0.43970001E+02  0.30615E+07
 0.44020000E+02  0.33883E+07
 0.44070000E+02  0.31727E+07
 0.44120003E+02  0.20300E+07
 0.44170002E+02 -0.12144E+06
 0.44220001E+02 -0.27052E+07
 0.44270000E+02 -0.44469E+07
 0.44320000E+02 -0.47554E+07
 0.44370003E+02 -0.41347E+07
 0.44420002E+02 -0.33244E+07
 0.44470001E+02 -0.25057E+07
 0.44520000E+02 -0.11710E+07
 0.44570000E+02  0.11720E+07
 0.44620003E+02  0.42886E+07
 0.44670002E+02  0.65316E+07
 0.44720001E+02  0.64837E+07
 0.44770000E+02  0.47752E+07
 0.44820000E+02  0.25280E+07
 0.44870003E+02  0.36753E+06
 0.44920002E+02 -0.17536E+07
 0.44970001E+02 -0.39073E+07
 0.45020000E+02 -0.52919E+07
 0.45070000E+02 -0.52848E+07
 0.45120003E+02 -0.37221E+07
 0.45170002E+02 -0.10126E+07
 0.45220001E+02  0.17697E+07
 0.45270000E+02  0.36416E+07
 0.45320000E+02  0.42466E+07
 0.45370003E+02  0.39333E+07
 0.45420002E+02  0.26651E+07
 0.45470001E+02  0.12673E+06
 0.45520000E+02 -0.27777E+07
 0.45570000E+02 -0.45953E+07
 0.45620003E+02 -0.47911E+07
 0.45670002E+02 -0.34965E+07
 0.45720001E+02 -0.12121E+07
 0.45770000E+02  0.14174E+07
 0.45820000E+02  0.36855E+07
 0.45870003E+02  0.46923E+07
 0.45920002E+02  0.42671E+07
 0.45970001E+02  0.27805E+07
 0.46020000E+02  0.69791E+06
 0.46070000E+02 -0.11887E+07
 0.46120003E+02 -0.23880E+07
 0.46170002E+02 -0.28259E+07
 0.46220001E+02 -0.25291E+07
 0.46270000E+02 -0.16727E+07
 0.46320000E+02 -0.62861E+06
 0.46370003E+02  0.17554E+06
 0.46420002E+02  0.53266E+06
 0.46470001E+02  0.41422E+06
 0.46520000E+02 -0.48588E+05
 0.46570000E+02 -0.38408E+06
 0.46620003E+02 -0.35079E+06
 0.46670002E+02 -0.61484E+05
 0.46720001E+02  0.37887E+06
 0.46770000E+02  0.61578E+06
 0.46820000E+02  0.60820E+06
 0.46870003E+02  0.71875E+06
 0.46920002E+02  0.99735E+06
 0.46970001E+02  0.12029E+07
 0.47020000E+02  0.10700E+07
 0.47070000E+02  0.62726E+06
 0.47120003E+02  0.65917E+05
 0.47170002E+02 -0.67552E+06
 0.47220001E+02 -0.16291E+07
 0.47270000E+02 -0.21998E+07
 0.47320000E+02 -0.20001E+07
 0.47370003E+02 -0.13057E+07
 0.47420002E+02 -0.32076E+06
 0.47470001E+02  0.44468E+06
 0.47520000E+02  0.75721E+06
 0.47570000E+02  0.11070E+07
 0.47620003E+02  0.15461E+07
 0.47670002E+02  0.16203E+07
 0.47720001E+02  0.91572E+06
 0.47770000E+02 -0.49677E+06
 0.47820000E+02 -0.20385E+07
 0.47870003E+02 -0.30294E+07
 0.47920002E+02 -0.30093E+07
 0.47970001E+02 -0.20465E+07
 0.48020000E+02 -0.47279E+06
 0.48070000E+02  0.13306E+07
 0.48120003E+02  0.28175E+07
 0.48170002E+02  0.35324E+07
 0.48220001E+02  0.32699E+07
 0.48270000E+02  0.22941E+07
 0.48320000E+02  0.12952E+07
 0.48370003E+02  0.49944E+06
 0.48420002E+02 -0.44216E+06
 0.48470001E+02 -0.16294E+07
 0.48520000E+02 -0.24284E+07
 0.48570000E+02 -0.22626E+07
 0.48620003E+02 -0.12213E+07
 0.48670002E+02  0.48694E+06
 0.48720001E+02  0.21930E+07
 0.48770000E+02  0.32024E+07
 0.48820000E+02  0.35011E+07
 0.48870003E+02  0.32338E+07
 0.48920002E+02  0.25460E+07
 0.48970001E+02  0.12844E+07
 0.49020000E+02 -0.56134E+06
 0.49070000E+02 -0.23374E+07
 0.49120003E+02 -0.33911E+07
 0.49170002E+02 -0.34191E+07
 0.49220001E+02 -0.23530E+07
 0.49270000E+02 -0.70504E+06
 0.49320000E+02  0.65314E+06
 0.49370003E+02  0.14665E+07
 0.49420002E+02  0.18115E+07
 0.49470001E+02  0.17253E+07
 0.49520000E+02  0.11435E+07
 0.49570000E+02 -0.66132E+05
 0.49620003E+02 -0.15199E+07
 0.49670002E+02 -0.26791E+07
 0.49720001E+02 -0.32377E+07
 0.49770000E+02 -0.28833E+07
 0.49820000E+02 -0.13218E+07
 0.49870003E+02  0.10066E+07
 0.49920002E+02  0.30902E+07
 0.49970001E+02  0.45455E+07
 0.50020000E+02  0.52903E+07
 0.50070000E+02  0.52189E+07
 0.50120003E+02  0.42744E+07
 0.50170002E+02  0.25816E+07
 0.50220001E+02  0.66512E+06
 0.50270000E+02 -0.10818E+07
 0.50320000E+02 -0.23115E+07
 0.50370003E+02 -0.28222E+07
 0.50420002E+02 -0.27357E+07
 0.50470001E+02 -0.22380E+07
 0.50520000E+02 -0.15976E+07
 0.50570000E+02 -0.76451E+06
 0.50620003E+02  0.48949E+06
 0.50670002E+02  0.18240E+07
 0.50720001E+02  0.26874E+07
 0.50770000E+02  0.28369E+07
 0.50820000E+02  0.22223E+07
 0.50870003E+02  0.11107E+07
 0.50920002E+02 -0.84148E+05
 0.50970001E+02 -0.10714E+07
 0.51020000E+02 -0.16230E+07
 0.51070000E+02 -0.16907E+07
 0.51120003E+02 -0.14175E+07
 0.51170002E+02 -0.79222E+06
 0.51220001E+02  0.15217E+06
 0.51270000E+02  0.91405E+06
 0.51320000E+02  0.13105E+07
 0.51370003E+02  0.14977E+07
 0.51420002E+02  0.15077E+07
 0.51470001E+02  0.14604E+07
 0.51520000E+02  0.11461E+07
 0.51570000E+02  0.39140E+06
 0.51620003E+02 -0.57857E+06
 0.51670002E+02 -0.14974E+07
 0.51720001E+02 -0.20646E+07
 0.51770000E+02 -0.21237E+07
 0.51820000E+02 -0.17584E+07
 0.51870003E+02 -0.10993E+07
 0.51920002E+02 -0.19044E+06
 0.51970001E+02  0.74618E+06
 0.52020000E+02  0.14072E+07
 0.52070000E+02  0.17131E+07
 0.52120003E+02  0.16098E+07
 0.52170002E+02  0.12224E+07
 0.52220001E+02  0.74121E+06
 0.52270000E+02  0.91960E+05
 0.52320000E+02 -0.60289E+06
 0.52370003E+02 -0.92977E+06
 0.52420002E+02 -0.59696E+06
 0.52470001E+02  0.29294E+06
 0.52520000E+02  0.10204E+07
 0.52570000E+02  0.80948E+06
 0.52620003E+02 -0.22848E+06
 0.52670002E+02 -0.14101E+07
 0.52720001E+02 -0.22578E+07
 0.52770000E+02 -0.24783E+07
 0.52820000E+02 -0.20718E+07
 0.52870003E+02 -0.12717E+07
 0.52920002E+02 -0.31247E+06
 0.52970001E+02  0.45677E+06
 0.53020000E+02  0.83734E+06
 0.53070000E+02  0.91960E+06
 0.53120003E+02  0.86588E+06
 0.53170002E+02  0.76351E+06
 0.53220001E+02  0.57624E+06
 0.53270000E+02  0.15335E+06
 0.53320000E+02 -0.65232E+06
 0.53370003E+02 -0.17148E+07
 0.53420002E+02 -0.25541E+07
 0.53470001E+02 -0.28147E+07
 0.53520000E+02 -0.26554E+07
 0.53570000E+02 -0.22688E+07
 0.53620003E+02 -0.16642E+07
 0.53670002E+02 -0.96517E+06
 0.53720001E+02 -0.28782E+06
 0.53770000E+02  0.32491E+06
 0.53820000E+02  0.70815E+06
 0.53870003E+02  0.68466E+06
 0.53920002E+02  0.32673E+06
 0.53970001E+02 -0.22170E+06
 0.54020000E+02 -0.77258E+06
 0.54070000E+02 -0.10240E+07
 0.54120003E+02 -0.91618E+06
 0.54170002E+02 -0.58009E+06
 0.54220001E+02 -0.29060E+06
 0.54270000E+02 -0.27493E+06
 0.54320000E+02 -0.37048E+06
 0.54370003E+02 -0.43651E+06
 0.54420002E+02 -0.50320E+06
 0.54470001E+02 -0.62179E+06
 0.54520000E+02 -0.82187E+06
 0.54570000E+02 -0.99239E+06
 0.54620003E+02 -0.92310E+06
 0.54670002E+02 -0.52457E+06
 0.54720001E+02  0.38042E+05
 0.54770000E+02  0.60137E+06
 0.54820000E+02  0.10317E+07
 0.54870003E+02  0.11185E+07
 0.54920002E+02  0.75380E+06
 0.54970001E+02  0.12204E+05
 0.55020000E+02 -0.84626E+06
 0.55070000E+02 -0.15770E+07
 0.55120003E+02 -0.19807E+07
 0.55170002E+02 -0.19249E+07
 0.55220001E+02 -0.15276E+07
 0.55270000E+02 -0.93274E+06
 0.55320000E+02 -0.27708E+06
 0.55370003E+02  0.42874E+06
 0.55420002E+02  0.12611E+07
 0.55470001E+02  0.19215E+07
 0.55520000E+02  0.19724E+07
 0.55570000E+02  0.12426E+07
 0.55620003E+02 -0.19160E+05
 0.55670002E+02 -0.12537E+07
 0.55720001E+02 -0.19157E+07
 0.55770000E+02 -0.18089E+07
 0.55820000E+02 -0.12034E+07
 0.55870003E+02 -0.50601E+06
 0.55920002E+02  0.17844E+05
 0.55970001E+02  0.39767E+06
 0.56020000E+02  0.78677E+06
 0.56070000E+02  0.11705E+07
 0.56120003E+02  0.13993E+07
 0.56170002E+02  0.13440E+07
 0.56220001E+02  0.97882E+06
 0.56270000E+02  0.43588E+06
 0.56320000E+02 -0.32809E+05
 0.56370003E+02 -0.23095E+06
 0.56420002E+02 -0.17206E+06
 0.56470001E+02 -0.48607E+05
 0.56520000E+02  0.56570E+05
 0.56570000E+02  0.14656E+06
 0.56620003E+02  0.14415E+06
 0.56670002E+02 -0.75286E+05
 0.56720001E+02 -0.48513E+06
 0.56770000E+02 -0.90284E+06
 0.56820000E+02 -0.12394E+07
 0.56870003E+02 -0.13943E+07
 0.56920002E+02 -0.13884E+07
 0.56970001E+02 -0.13675E+07
 0.57020000E+02 -0.12817E+07
 0.57070000E+02 -0.99443E+06
 0.57120003E+02 -0.44570E+06
 0.57170002E+02  0.24025E+06
 0.57220001E+02  0.77682E+06
 0.57270000E+02  0.93541E+06
 0.57320000E+02  0.67538E+06
 0.57370003E+02  0.99988E+05
 0.57420002E+02 -0.55880E+06
 0.57470001E+02 -0.95334E+06
 0.57520000E+02 -0.84308E+06
 0.57570000E+02 -0.18063E+06
 0.57620003E+02  0.86075E+06
 0.57670002E+02  0.18630E+07
 0.57720001E+02  0.24377E+07
 0.57770000E+02  0.24473E+07
 0.57820000E+02  0.20141E+07
 0.57870003E+02  0.13197E+07
 0.57920002E+02  0.51981E+06
 0.57970001E+02 -0.16166E+06
 0.58020000E+02 -0.56944E+06
 0.58070000E+02 -0.71651E+06
 0.58120003E+02 -0.62108E+06
 0.58170002E+02 -0.25455E+06
 0.58220001E+02  0.26493E+06
 0.58270000E+02  0.78882E+06
 0.58320000E+02  0.13085E+07
 0.58370003E+02  0.18105E+07
 0.58420002E+02  0.21887E+07
 0.58470001E+02  0.22989E+07
 0.58520000E+02  0.20665E+07
 0.58570000E+02  0.15273E+07
 0.58620003E+02  0.83981E+06
 0.58670002E+02  0.17618E+06
 0.58720001E+02 -0.33264E+06
 0.58770000E+02 -0.58474E+06
 0.58820000E+02 -0.59742E+06
 0.58870003E+02 -0.33378E+06
 0.58920002E+02  0.28646E+06
 0.58970001E+02  0.11453E+07
 0.59020000E+02  0.19670E+07
 0.59070000E+02  0.24548E+07
 0.59120003E+02  0.24874E+07
 0.59170002E+02  0.20948E+07
 0.59220001E+02  0.13516E+07
 0.59270000E+02  0.46296E+06
 0.59320000E+02 -0.33089E+06
 0.59370003E+02 -0.87441E+06
 0.59420002E+02 -0.11200E+07
 0.59470001E+02 -0.11476E+07
 0.59520000E+02 -0.10058E+07
 0.59570000E+02 -0.65560E+06
 0.59620003E+02 -0.18908E+06
 0.59670002E+02  0.17673E+06
 0.59720001E+02  0.33257E+06
 0.59770000E+02  0.28206E+06
 0.59820000E+02  0.39273E+05
 0.59870003E+02 -0.33112E+06
 0.59920002E+02 -0.66310E+06
 0.59970001E+02 -0.77906E+06
 0.60020000E+02 -0.64234E+06
 0.60070000E+02 -0.38472E+06
 0.60120003E+02 -0.18669E+06
 0.60170002E+02 -0.12514E+06
 0.60220001E+02 -0.13458E+06
 0.60270000E+02 -0.11166E+06
 0.60320000E+02 -0.59068E+05
 0.60370003E+02 -0.16516E+05
 0.60420002E+02  0.40252E+05
 0.60470001E+02  0.81795E+05
 0.60520000E+02  0.79705E+05
 0.60570000E+02  0.32588E+05
 0.60620003E+02  0.77700E+03
 0.60670002E+02  0.15944E+06
 0.60720001E+02  0.53997E+06
 0.60770000E+02  0.10037E+07
 0.60820000E+02  0.13370E+07
 0.60870003E+02  0.13480E+07
 0.60920002E+02  0.10195E+07
 0.60970001E+02  0.48936E+06
 0.61020000E+02 -0.50440E+05
 0.61070004E+02 -0.52680E+06
 0.61119999E+02 -0.96722E+06
 0.61170002E+02 -0.13251E+07
 0.61220005E+02 -0.14658E+07
 0.61270000E+02 -0.13414E+07
 0.61320004E+02 -0.10649E+07
 0.61369999E+02 -0.80173E+06
 0.61420002E+02 -0.69132E+06
 0.61470005E+02 -0.74222E+06
 0.61520000E+02 -0.87841E+06
 0.61570004E+02 -0.10189E+07
 0.61619999E+02 -0.10188E+07
 0.61670002E+02 -0.81902E+06
 0.61720005E+02 -0.51200E+06
 0.61770000E+02 -0.20478E+06
 0.61820004E+02  0.14599E+05
 0.61869999E+02  0.85358E+05
 0.61920002E+02 -0.47430E+05
 0.61970005E+02 -0.39585E+06
 0.62020000E+02 -0.84815E+06
 0.62070004E+02 -0.11811E+07
 0.62119999E+02 -0.12615E+07
 0.62170002E+02 -0.11485E+07
 0.62220005E+02 -0.90045E+06
 0.62270000E+02 -0.52314E+06
 0.62320004E+02 -0.36956E+05
 0.62369999E+02  0.47311E+06
 0.62420002E+02  0.87068E+06
 0.62470005E+02  0.10365E+07
 0.62520000E+02  0.91721E+06
 0.62570004E+02  0.57609E+06
 0.62619999E+02  0.18843E+06
 0.62670002E+02 -0.17956E+05
 0.62720005E+02  0.98944E+05
 0.62770000E+02  0.53190E+06
 0.62820004E+02  0.11572E+07
 0.62869999E+02  0.17384E+07
 0.62920002E+02  0.20165E+07
 0.62970005E+02  0.18532E+07
 0.63020000E+02  0.12831E+07
 0.63070004E+02  0.49668E+06
 0.63119999E+02 -0.23671E+06
 0.63170002E+02 -0.74622E+06
 0.63220005E+02 -0.10424E+07
 0.63270000E+02 -0.11567E+07
 0.63320004E+02 -0.10724E+07
 0.63369999E+02 -0.84996E+06
 0.63420002E+02 -0.60397E+06
 0.63470005E+02 -0.43618E+06
 0.63520000E+02 -0.41624E+06
 0.63570004E+02 -0.49994E+06
 0.63619999E+02 -0.55697E+06
 0.63670002E+02 -0.47010E+06
 0.63720005E+02 -0.22326E+06
 0.63770000E+02  0.11795E+06
 0.63820004E+02  0.50028E+06
 0.63869999E+02  0.84610E+06
 0.63920002E+02  0.10451E+07
 0.63970005E+02  0.10289E+07
 0.64019997E+02  0.87027E+06
 0.64070000E+02  0.72130E+06
 0.64119995E+02  0.66097E+06
 0.64169998E+02  0.71313E+06
 0.64220001E+02  0.86777E+06
 0.64269997E+02  0.10405E+07
 0.64320000E+02  0.11032E+07
 0.64369995E+02  0.97902E+06
 0.64419998E+02  0.67706E+06
 0.64470001E+02  0.27870E+06
 0.64519997E+02 -0.12835E+06
 0.64570000E+02 -0.46024E+06
 0.64619995E+02 -0.64695E+06
 0.64669998E+02 -0.68688E+06
 0.64720001E+02 -0.57646E+06
 0.64769997E+02 -0.33260E+06
 0.64820000E+02 -0.48941E+05
 0.64869995E+02  0.16028E+06
 0.64919998E+02  0.21234E+06
 0.64970001E+02  0.93664E+05
 0.65019997E+02 -0.12161E+06
 0.65070000E+02 -0.28978E+06
 0.65119995E+02 -0.29087E+06
 0.65169998E+02 -0.10985E+06
 0.65220001E+02  0.18400E+06
 0.65269997E+02  0.45212E+06
 0.65320000E+02  0.51891E+06
 0.65369995E+02  0.29913E+06
 0.65419998E+02 -0.14960E+06
 0.65470001E+02 -0.69619E+06
 0.65519997E+02 -0.11421E+07
 0.65570000E+02 -0.13166E+07
 0.65619995E+02 -0.11991E+07
 0.65669998E+02 -0.82298E+06
 0.65720001E+02 -0.29257E+06
 0.65769997E+02  0.23214E+06
 0.65820000E+02  0.63849E+06
 0.65869995E+02  0.83009E+06
 0.65919998E+02  0.75733E+06
 0.65970001E+02  0.41843E+06
 0.66019997E+02 -0.12558E+06
 0.66070000E+02 -0.72489E+06
 0.66119995E+02 -0.11799E+07
 0.66169998E+02 -0.13214E+07
 0.66220001E+02 -0.11667E+07
 0.66269997E+02 -0.86390E+06
 0.66320000E+02 -0.54313E+06
 0.66369995E+02 -0.31454E+06
 0.66419998E+02 -0.22338E+06
 0.66470001E+02 -0.23652E+06
 0.66519997E+02 -0.28842E+06
 0.66570000E+02 -0.28443E+06
 0.66619995E+02 -0.17686E+06
 0.66669998E+02 -0.11480E+05
 0.66720001E+02  0.10870E+06
 0.66769997E+02  0.89604E+05
 0.66820000E+02 -0.70001E+05
 0.66869995E+02 -0.32264E+06
 0.66919998E+02 -0.57082E+06
 0.66970001E+02 -0.67908E+06
 0.67019997E+02 -0.65439E+06
 0.67070000E+02 -0.62110E+06
 0.67119995E+02 -0.63837E+06
 0.67169998E+02 -0.68273E+06
 0.67220001E+02 -0.71445E+06
 0.67269997E+02 -0.69229E+06
 0.67320000E+02 -0.57599E+06
 0.67369995E+02 -0.33560E+06
 0.67419998E+02  0.19660E+05
 0.67470001E+02  0.40113E+06
 0.67519997E+02  0.68924E+06
 0.67570000E+02  0.81749E+06
 0.67619995E+02  0.79462E+06
 0.67669998E+02  0.68622E+06
 0.67720001E+02  0.58961E+06
 0.67769997E+02  0.57642E+06
 0.67820000E+02  0.61042E+06
 0.67869995E+02  0.57540E+06
 0.67919998E+02  0.41968E+06
 0.67970001E+02  0.21714E+06
 0.68019997E+02  0.87420E+05
 0.68070000E+02  0.88439E+05
 0.68119995E+02  0.17960E+06
 0.68169998E+02  0.30448E+06
 0.68220001E+02  0.44680E+06
 0.68269997E+02  0.59878E+06
 0.68320000E+02  0.72876E+06
 0.68369995E+02  0.78596E+06
 0.68419998E+02  0.75007E+06
 0.68470001E+02  0.59533E+06
 0.68519997E+02  0.29136E+06
 0.68570000E+02 -0.10838E+06
 0.68619995E+02 -0.48618E+06
 0.68669998E+02 -0.71678E+06
 0.68720001E+02 -0.74954E+06
 0.68769997E+02 -0.61702E+06
 0.68820000E+02 -0.38143E+06
 0.68869995E+02 -0.14941E+06
 0.68919998E+02 -0.11156E+05
 0.68970001E+02  0.26539E+05
 0.69019997E+02  0.24975E+05
 0.69070000E+02  0.30400E+04
 0.69119995E+02 -0.77498E+05
 0.69169998E+02 -0.20291E+06
 0.69220001E+02 -0.32144E+06
 0.69269997E+02 -0.36052E+06
 0.69320000E+02 -0.26876E+06
 0.69369995E+02 -0.33900E+05
 0.69419998E+02  0.32014E+06
 0.69470001E+02  0.67120E+06
 0.69519997E+02  0.87642E+06
 0.69570000E+02  0.90187E+06
 0.69619995E+02  0.80043E+06
 0.69669998E+02  0.61604E+06
 0.69720001E+02  0.38258E+06
 0.69769997E+02  0.15508E+06
 0.69820000E+02 -0.10851E+05
 0.69869995E+02 -0.10422E+06
 0.69919998E+02 -0.19148E+06
 0.69970001E+02 -0.34910E+06
 0.70019997E+02 -0.53867E+06
 0.70070000E+02 -0.65738E+06
 0.70119995E+02 -0.69572E+06
 0.70169998E+02 -0.69648E+06
 0.70220001E+02 -0.67976E+06
 0.70269997E+02 -0.64849E+06
 0.70320000E+02 -0.60390E+06
 0.70369995E+02 -0.58784E+06
 0.70419998E+02 -0.63031E+06
 0.70470001E+02 -0.71460E+06
 0.70519997E+02 -0.79460E+06
 0.70570000E+02 -0.80114E+06
 0.70619995E+02 -0.68228E+06
 0.70669998E+02 -0.42123E+06
 0.70720001E+02 -0.72359E+05
 0.70769997E+02  0.28707E+06
 0.70820000E+02  0.59710E+06
 0.70869995E+02  0.78508E+06
 0.70919998E+02  0.82449E+06
 0.70970001E+02  0.71805E+06
 0.71019997E+02  0.48417E+06
 0.71070000E+02  0.18329E+06
 0.71119995E+02 -0.11450E+06
 0.71169998E+02 -0.34580E+06
 0.71220001E+02 -0.44984E+06
 0.71269997E+02 -0.36342E+06
 0.71320000E+02 -0.97177E+05
 0.71369995E+02  0.24307E+06
 0.71419998E+02  0.52014E+06
 0.71470001E+02  0.63218E+06
 0.71519997E+02  0.57987E+06
 0.71570000E+02  0.42637E+06
 0.71619995E+02  0.24363E+06
 0.71669998E+02  0.84650E+05
 0.71720001E+02 -0.19281E+05
 0.71769997E+02 -0.43798E+05
 0.71820000E+02  0.13183E+05
 0.71869995E+02  0.15869E+06
 0.71919998E+02  0.39714E+06
 0.71970001E+02  0.67946E+06
 0.72019997E+02  0.93128E+06
 0.72070000E+02  0.10976E+07
 0.72119995E+02  0.11544E+07
 0.72169998E+02  0.11040E+07
 0.72220001E+02  0.95843E+06
 0.72269997E+02  0.75924E+06
 0.72320000E+02  0.56869E+06
 0.72369995E+02  0.44137E+06
 0.72419998E+02  0.41875E+06
 0.72470001E+02  0.50040E+06
 0.72519997E+02  0.64910E+06
 0.72570000E+02  0.82578E+06
 0.72619995E+02  0.99123E+06
 0.72669998E+02  0.10718E+07
 0.72720001E+02  0.10024E+07
 0.72769997E+02  0.77127E+06
 0.72820000E+02  0.40803E+06
 0.72869995E+02  0.21540E+04
 0.72919998E+02 -0.35451E+06
 0.72970001E+02 -0.61773E+06
 0.73019997E+02 -0.78480E+06
 0.73070000E+02 -0.88579E+06
 0.73119995E+02 -0.94297E+06
 0.73169998E+02 -0.97876E+06
 0.73220001E+02 -0.10014E+07
 0.73269997E+02 -0.10022E+07
 0.73320000E+02 -0.10239E+07
 0.73369995E+02 -0.11314E+07
 0.73419998E+02 -0.13294E+07
 0.73470001E+02 -0.15451E+07
 0.73519997E+02 -0.16871E+07
 0.73570000E+02 -0.17060E+07
 0.73619995E+02 -0.15874E+07
 0.73669998E+02 -0.13438E+07
 0.73720001E+02 -0.10277E+07
 0.73769997E+02 -0.71567E+06
 0.73820000E+02 -0.45482E+06
 0.73869995E+02 -0.25250E+06
 0.73919998E+02 -0.98029E+05
 0.73970001E+02  0.23599E+05
 0.74019997E+02  0.12094E+06
 0.74070000E+02  0.20384E+06
 0.74119995E+02  0.28394E+06
 0.74169998E+02  0.37408E+06
 0.74220001E+02  0.47741E+06
 0.74269997E+02  0.58190E+06
 0.74320000E+02  0.67490E+06
 0.74369995E+02  0.72715E+06
 0.74419998E+02  0.68572E+06
 0.74470001E+02  0.52996E+06
 0.74519997E+02  0.30147E+06
 0.74570000E+02  0.66009E+05
 0.74619995E+02 -0.12777E+06
 0.74669998E+02 -0.26413E+06
 0.74720001E+02 -0.32422E+06
 0.74769997E+02 -0.27186E+06
 0.74820000E+02 -0.11873E+06
 0.74869995E+02  0.70797E+05
 0.74919998E+02  0.24284E+06
 0.74970001E+02  0.37237E+06
 0.75019997E+02  0.47066E+06
 0.75070000E+02  0.55652E+06
 0.75119995E+02  0.62316E+06
 0.75169998E+02  0.65645E+06
 0.75220001E+02  0.65167E+06
 0.75269997E+02  0.63181E+06
 0.75320000E+02  0.61104E+06
 0.75369995E+02  0.57904E+06
 0.75419998E+02  0.53193E+06
 0.75470001E+02  0.46708E+06
 0.75519997E+02  0.38083E+06
 0.75570000E+02  0.26081E+06
 0.75619995E+02  0.10446E+06
 0.75669998E+02 -0.69514E+05
 0.75720001E+02 -0.23780E+06
 0.75769997E+02 -0.36895E+06
 0.75820000E+02 -0.43629E+06
 0.75869995E+02 -0.43446E+06
 0.75919998E+02 -0.37084E+06
 0.75970001E+02 -0.26012E+06
 0.76019997E+02 -0.13775E+06
 0.76070000E+02 -0.52227E+05
 0.76119995E+02 -0.34952E+05
 0.76169998E+02 -0.75358E+05
 0.76220001E+02 -0.14006E+06
 0.76269997E+02 -0.20909E+06
 0.76320000E+02 -0.26888E+06
 0.76369995E+02 -0.31338E+06
 0.76419998E+02 -0.34317E+06
 0.76470001E+02 -0.36582E+06
 0.76519997E+02 -0.40151E+06
 0.76570000E+02 -0.44914E+06
 0.76619995E+02 -0.47551E+06
 0.76669998E+02 -0.47124E+06
 0.76720001E+02 -0.46234E+06
 0.76769997E+02 -0.46404E+06
 0.76820000E+02 -0.46543E+06
 0.76869995E+02 -0.43527E+06
 0.76919998E+02 -0.35209E+06
 0.76970001E+02 -0.20805E+06
 0.77019997E+02 -0.12584E+05
 0.77070000E+02  0.18457E+06
 0.77119995E+02  0.32586E+06
 0.77169998E+02  0.37896E+06
 0.77220001E+02  0.34535E+06
 0.77269997E+02  0.27298E+06
 0.77320000E+02  0.24296E+06
 0.77369995E+02  0.30132E+06
 0.77419998E+02  0.42060E+06
 0.77470001E+02  0.55512E+06
 0.77519997E+02  0.67602E+06
 0.77570000E+02  0.76204E+06
 0.77619995E+02  0.80279E+06
 0.77669998E+02  0.79328E+06
 0.77720001E+02  0.74167E+06
 0.77769997E+02  0.66664E+06
 0.77820000E+02  0.58093E+06
 0.77869995E+02  0.50224E+06
 0.77919998E+02  0.45295E+06
 0.77970001E+02  0.44648E+06
 0.78019997E+02  0.46920E+06
 0.78070000E+02  0.47849E+06
 0.78119995E+02  0.44061E+06
 0.78169998E+02  0.32998E+06
 0.78220001E+02  0.11080E+06
 0.78269997E+02 -0.21215E+06
 0.78320000E+02 -0.56190E+06
 0.78369995E+02 -0.83292E+06
 0.78419998E+02 -0.95974E+06
 0.78470001E+02 -0.94173E+06
 0.78519997E+02 -0.81202E+06
 0.78570000E+02 -0.62809E+06
 0.78619995E+02 -0.46033E+06
 0.78669998E+02 -0.36349E+06
 0.78720001E+02 -0.36179E+06
 0.78769997E+02 -0.43423E+06
 0.78820000E+02 -0.52289E+06
 0.78869995E+02 -0.55558E+06
 0.78919998E+02 -0.48724E+06
 0.78970001E+02 -0.32389E+06
 0.79019997E+02 -0.93265E+05
 0.79070000E+02  0.17952E+06
 0.79119995E+02  0.47014E+06
 0.79169998E+02  0.72889E+06
 0.79220001E+02  0.88830E+06
 0.79269997E+02  0.91065E+06
 0.79320000E+02  0.79852E+06
 0.79369995E+02  0.57019E+06
 0.79419998E+02  0.26259E+06
 0.79470001E+02 -0.65476E+05
 0.79519997E+02 -0.35719E+06
 0.79570000E+02 -0.55336E+06
 0.79619995E+02 -0.60882E+06
 0.79669998E+02 -0.52641E+06
 0.79720001E+02 -0.35572E+06
 0.79769997E+02 -0.16880E+06
 0.79820000E+02 -0.24191E+05
 0.79869995E+02  0.47346E+05
 0.79919998E+02  0.36434E+05
 0.79970001E+02 -0.43087E+05
 0.80019997E+02 -0.15326E+06
 0.80070000E+02 -0.24151E+06
 0.80119995E+02 -0.24458E+06
 0.80169998E+02 -0.12974E+06
 0.80220001E+02  0.70938E+05
 0.80269997E+02  0.29058E+06
 0.80320000E+02  0.45656E+06
 0.80369995E+02  0.51452E+06
 0.80419998E+02  0.44470E+06
 0.80470001E+02  0.27883E+06
 0.80519997E+02  0.85412E+05
 0.80570000E+02 -0.79174E+05
 0.80619995E+02 -0.18235E+06
 0.80669998E+02 -0.21328E+06
 0.80720001E+02 -0.17659E+06
 0.80769997E+02 -0.99137E+05
 0.80820000E+02 -0.25802E+05
 0.80869995E+02  0.12145E+05
 0.80919998E+02  0.10195E+05
 0.80970001E+02 -0.16007E+05
 0.81019997E+02 -0.67315E+05
 0.81070000E+02 -0.15953E+06
 0.81119995E+02 -0.28500E+06
 0.81169998E+02 -0.40777E+06
 0.81220001E+02 -0.48675E+06
 0.81269997E+02 -0.50979E+06
 0.81320000E+02 -0.47931E+06
 0.81369995E+02 -0.38565E+06
 0.81419998E+02 -0.21985E+06
 0.81470001E+02  0.40250E+04
 0.81519997E+02  0.25176E+06
 0.81570000E+02  0.47068E+06
 0.81619995E+02  0.58443E+06
 0.81669998E+02  0.54039E+06
 0.81720001E+02  0.34091E+06
 0.81769997E+02  0.42333E+05
 0.81820000E+02 -0.24995E+06
 0.81869995E+02 -0.42421E+06
 0.81919998E+02 -0.42953E+06
 0.81970001E+02 -0.28435E+06
 0.82019997E+02 -0.45690E+05
 0.82070000E+02  0.19524E+06
 0.82119995E+02  0.35966E+06
 0.82169998E+02  0.42332E+06
 0.82220001E+02  0.40702E+06
 0.82269997E+02  0.33426E+06
 0.82320000E+02  0.20718E+06
 0.82369995E+02  0.35697E+05
 0.82419998E+02 -0.13794E+06
 0.82470001E+02 -0.24251E+06
 0.82519997E+02 -0.23918E+06
 0.82570000E+02 -0.14455E+06
 0.82619995E+02 -0.10329E+05
 0.82669998E+02  0.98630E+05
 0.82720001E+02  0.15416E+06
 0.82769997E+02  0.15078E+06
 0.82820000E+02  0.84550E+05
 0.82869995E+02 -0.30553E+05
 0.82919998E+02 -0.15956E+06
 0.82970001E+02 -0.26600E+06
 0.83019997E+02 -0.33595E+06
 0.83070000E+02 -0.36740E+06
 0.83119995E+02 -0.35489E+06
 0.83169998E+02 -0.29355E+06
 0.83220001E+02 -0.19839E+06
 0.83269997E+02 -0.10615E+06
 0.83320000E+02 -0.51993E+05
 0.83369995E+02 -0.47581E+05
 0.83419998E+02 -0.76621E+05
 0.83470001E+02 -0.11560E+06
 0.83519997E+02 -0.14503E+06
 0.83570000E+02 -0.14784E+06
 0.83619995E+02 -0.12213E+06
 0.83669998E+02 -0.84804E+05
 0.83720001E+02 -0.48792E+05
 0.83769997E+02 -0.10986E+05
 0.83820000E+02  0.43868E+05
 0.83869995E+02  0.13192E+06
 0.83919998E+02  0.25758E+06
 0.83970001E+02  0.40813E+06
 0.84019997E+02  0.54557E+06
 0.84070000E+02  0.61932E+06
 0.84119995E+02  0.59838E+06
 0.84169998E+02  0.49046E+06
 0.84220001E+02  0.32841E+06
 0.84269997E+02  0.14447E+06
 0.84320000E+02 -0.37362E+05
 0.84369995E+02 -0.19884E+06
 0.84419998E+02 -0.32669E+06
 0.84470001E+02 -0.42341E+06
 0.84519997E+02 -0.49414E+06
 0.84570000E+02 -0.53194E+06
 0.84619995E+02 -0.54021E+06
 0.84669998E+02 -0.52503E+06
 0.84720001E+02 -0.47615E+06
 0.84769997E+02 -0.38399E+06
 0.84820000E+02 -0.24967E+06
 0.84869995E+02 -0.82188E+05
 0.84919998E+02  0.10457E+06
 0.84970001E+02  0.28187E+06
 0.85019997E+02  0.40826E+06
 0.85070000E+02  0.46255E+06
 0.85119995E+02  0.44114E+06
 0.85169998E+02  0.35532E+06
 0.85220001E+02  0.24548E+06
 0.85269997E+02  0.16156E+06
 0.85320000E+02  0.13462E+06
 0.85369995E+02  0.16859E+06
 0.85419998E+02  0.23855E+06
 0.85470001E+02  0.28950E+06
 0.85519997E+02  0.28095E+06
 0.85570000E+02  0.20870E+06
 0.85619995E+02  0.91039E+05
 0.85669998E+02 -0.32885E+05
 0.85720001E+02 -0.12133E+06
 0.85769997E+02 -0.14408E+06
 0.85820000E+02 -0.97680E+05
 0.85869995E+02 -0.34180E+04
 0.85919998E+02  0.10187E+06
 0.85970001E+02  0.17033E+06
 0.86019997E+02  0.17972E+06
 0.86070000E+02  0.13985E+06
 0.86119995E+02  0.66441E+05
 0.86169998E+02 -0.14782E+05
 0.86220001E+02 -0.66352E+05
 0.86269997E+02 -0.54061E+05
 0.86320000E+02  0.28168E+05
 0.86369995E+02  0.15978E+06
 0.86419998E+02  0.32143E+06
 0.86470001E+02  0.47126E+06
 0.86519997E+02  0.54813E+06
 0.86570000E+02  0.52385E+06
 0.86619995E+02  0.39677E+06
 0.86669998E+02  0.17986E+06
 0.86720001E+02 -0.74154E+05
 0.86769997E+02 -0.28322E+06
 0.86820000E+02 -0.39310E+06
 0.86869995E+02 -0.40386E+06
 0.86919998E+02 -0.35214E+06
 0.86970001E+02 -0.26833E+06
 0.87019997E+02 -0.15992E+06
 0.87070000E+02 -0.41939E+05
 0.87119995E+02  0.64987E+05
 0.87169998E+02  0.14424E+06
 0.87220001E+02  0.18605E+06
 0.87269997E+02  0.18369E+06
 0.87320000E+02  0.13017E+06
 0.87369995E+02  0.26430E+05
 0.87419998E+02 -0.11084E+06
 0.87470001E+02 -0.24422E+06
 0.87519997E+02 -0.33832E+06
 0.87570000E+02 -0.36795E+06
 0.87619995E+02 -0.32282E+06
 0.87669998E+02 -0.22007E+06
 0.87720001E+02 -0.93123E+05
 0.87769997E+02  0.17226E+05
 0.87820000E+02  0.71135E+05
 0.87869995E+02  0.59569E+05
 0.87919998E+02  0.12329E+05
 0.87970001E+02 -0.42313E+05
 0.88019997E+02 -0.96203E+05
 0.88070000E+02 -0.14826E+06
 0.88119995E+02 -0.18612E+06
 0.88169998E+02 -0.18403E+06
 0.88220001E+02 -0.14030E+06
 0.88269997E+02 -0.82707E+05
 0.88320000E+02 -0.49162E+05
 0.88369995E+02 -0.60551E+05
 0.88419998E+02 -0.10078E+06
 0.88470001E+02 -0.14983E+06
 0.88519997E+02 -0.18610E+06
 0.88570000E+02 -0.18010E+06
 0.88619995E+02 -0.11488E+06
 0.88669998E+02 -0.42040E+04
 0.88720001E+02  0.10266E+06
 0.88769997E+02  0.16052E+06
 0.88820000E+02  0.15639E+06
 0.88869995E+02  0.10547E+06
 0.88919998E+02  0.43534E+05
 0.88970001E+02 -0.34900E+04
 0.89019997E+02 -0.29754E+05
 0.89070000E+02 -0.35050E+05
 0.89119995E+02 -0.34661E+05
 0.89169998E+02 -0.48445E+05
 0.89220001E+02 -0.80149E+05
 0.89269997E+02 -0.10968E+06
 0.89320000E+02 -0.11100E+06
 0.89369995E+02 -0.89127E+05
 0.89419998E+02 -0.65305E+05
 0.89470001E+02 -0.65123E+05
 0.89519997E+02 -0.10709E+06
 0.89570000E+02 -0.17738E+06
 0.89619995E+02 -0.25635E+06
 0.89669998E+02 -0.33098E+06
 0.89720001E+02 -0.38835E+06
 0.89769997E+02 -0.41772E+06
 0.89820000E+02 -0.40140E+06
 0.89869995E+02 -0.31674E+06
 0.89919998E+02 -0.15641E+06
 0.89970001E+02  0.51516E+05
 0.90019997E+02  0.27136E+06
 0.90070000E+02  0.48759E+06
 0.90119995E+02  0.68092E+06
 0.90169998E+02  0.81900E+06
 0.90220001E+02  0.87865E+06
 0.90269997E+02  0.86209E+06
 0.90320000E+02  0.79390E+06
 0.90369995E+02  0.70008E+06
 0.90419998E+02  0.59264E+06
 0.90470001E+02  0.47315E+06
 0.90519997E+02  0.34860E+06
 0.90570000E+02  0.23253E+06
 0.90619995E+02  0.12776E+06
 0.90669998E+02  0.44258E+05
 0.90720001E+02  0.46020E+04
 0.90769997E+02  0.13705E+05
 0.90820000E+02  0.44374E+05
 0.90869995E+02  0.48984E+05
 0.90919998E+02 -0.32700E+04
 0.90970001E+02 -0.11228E+06
 0.91019997E+02 -0.25432E+06
 0.91070000E+02 -0.39736E+06
 0.91119995E+02 -0.51049E+06
 0.91169998E+02 -0.56663E+06
 0.91220001E+02 -0.56034E+06
 0.91269997E+02 -0.50397E+06
 0.91320000E+02 -0.41309E+06
 0.91369995E+02 -0.29184E+06
 0.91419998E+02 -0.14576E+06
 0.91470001E+02 -0.67900E+04
 0.91519997E+02  0.96639E+05
 0.91570000E+02  0.15692E+06
 0.91619995E+02  0.17605E+06
 0.91669998E+02  0.16540E+06
 0.91720001E+02  0.14048E+06
 0.91769997E+02  0.11650E+06
 0.91820000E+02  0.10292E+06
 0.91869995E+02  0.98559E+05
 0.91919998E+02  0.96373E+05
 0.91970001E+02  0.93442E+05
 0.92019997E+02  0.85765E+05
 0.92070000E+02  0.61122E+05
 0.92119995E+02  0.14334E+05
 0.92169998E+02 -0.46558E+05
 0.92220001E+02 -0.11066E+06
 0.92269997E+02 -0.17106E+06
 0.92320000E+02 -0.21650E+06
 0.92369995E+02 -0.23671E+06
 0.92419998E+02 -0.24383E+06
 0.92470001E+02 -0.25738E+06
 0.92519997E+02 -0.28496E+06
 0.92570000E+02 -0.32139E+06
 0.92619995E+02 -0.34763E+06
 0.92669998E+02 -0.34655E+06
 0.92720001E+02 -0.31920E+06
 0.92769997E+02 -0.27791E+06
 0.92820000E+02 -0.22901E+06
 0.92869995E+02 -0.17109E+06
 0.92919998E+02 -0.10517E+06
 0.92970001E+02 -0.33682E+05
 0.93019997E+02  0.38823E+05
 0.93070000E+02  0.10188E+06
 0.93119995E+02  0.14417E+06
 0.93169998E+02  0.15668E+06
 0.93220001E+02  0.13322E+06
 0.93269997E+02  0.77606E+05
 0.93320000E+02  0.10223E+05
 0.93369995E+02 -0.39446E+05
 0.93419998E+02 -0.50912E+05
 0.93470001E+02 -0.26342E+05
 0.93519997E+02  0.14077E+05
 0.93570000E+02  0.51352E+05
 0.93619995E+02  0.75454E+05
 0.93669998E+02  0.81184E+05
 0.93720001E+02  0.71431E+05
 0.93769997E+02  0.57309E+05
 0.93820000E+02  0.55990E+05
 0.93869995E+02  0.86806E+05
 0.93919998E+02  0.15304E+06
 0.93970001E+02  0.23677E+06
 0.94019997E+02  0.31430E+06
 0.94070000E+02  0.36625E+06
 0.94119995E+02  0.38272E+06
 0.94169998E+02  0.36263E+06
 0.94220001E+02  0.30915E+06
 0.94269997E+02  0.22942E+06
 0.94320000E+02  0.13340E+06
 0.94369995E+02  0.30523E+05
 0.94419998E+02 -0.75642E+05
 0.94470001E+02 -0.18226E+06
 0.94519997E+02 -0.28050E+06
 0.94570000E+02 -0.36147E+06
 0.94619995E+02 -0.41610E+06
 0.94669998E+02 -0.43639E+06
 0.94720001E+02 -0.42985E+06
 0.94769997E+02 -0.41212E+06
 0.94820000E+02 -0.37672E+06
 0.94869995E+02 -0.30987E+06
 0.94919998E+02 -0.22074E+06
 0.94970001E+02 -0.12599E+06
 0.95019997E+02 -0.34054E+05
 0.95070000E+02  0.53369E+05
 0.95119995E+02  0.14181E+06
 0.95169998E+02  0.23797E+06
 0.95220001E+02  0.32930E+06
 0.95269997E+02  0.39055E+06
 0.95320000E+02  0.41114E+06
 0.95369995E+02  0.38170E+06
 0.95419998E+02  0.28843E+06
 0.95470001E+02  0.14103E+06
 0.95519997E+02 -0.19743E+05
 0.95570000E+02 -0.14435E+06
 0.95619995E+02 -0.19702E+06
 0.95669998E+02 -0.16264E+06
 0.95720001E+02 -0.55872E+05
 0.95769997E+02  0.81905E+05
 0.95820000E+02  0.20596E+06
 0.95869995E+02  0.28330E+06
 0.95919998E+02  0.29502E+06
 0.95970001E+02  0.24370E+06
 0.96019997E+02  0.15136E+06
 0.96070000E+02  0.42863E+05
 0.96119995E+02 -0.49804E+05
 0.96169998E+02 -0.97110E+05
 0.96220001E+02 -0.98546E+05
 0.96269997E+02 -0.76113E+05
 0.96320000E+02 -0.54283E+05
 0.96369995E+02 -0.42934E+05
 0.96419998E+02 -0.32318E+05
 0.96470001E+02 -0.14408E+05
 0.96519997E+02 -0.39350E+04
 0.96570000E+02 -0.20244E+05
 0.96619995E+02 -0.57146E+05
 0.96669998E+02 -0.99505E+05
 0.96720001E+02 -0.14815E+06
 0.96769997E+02 -0.20152E+06
 0.96820000E+02 -0.24289E+06
 0.96869995E+02 -0.25864E+06
 0.96919998E+02 -0.25072E+06
 0.96970001E+02 -0.22890E+06
 0.97019997E+02 -0.20427E+06
 0.97070000E+02 -0.18866E+06
 0.97119995E+02 -0.18398E+06
 0.97169998E+02 -0.18457E+06
 0.97220001E+02 -0.18578E+06
 0.97269997E+02 -0.17917E+06
 0.97320000E+02 -0.15896E+06
 0.97369995E+02 -0.13085E+06
 0.97419998E+02 -0.10976E+06
 0.97470001E+02 -0.11046E+06
 0.97519997E+02 -0.13238E+06
 0.97570000E+02 -0.15409E+06
 0.97619995E+02 -0.15278E+06
 0.97669998E+02 -0.12128E+06
 0.97720001E+02 -0.57356E+05
 0.97769997E+02  0.35009E+05
 0.97820000E+02  0.13989E+06
 0.97869995E+02  0.24487E+06
 0.97919998E+02  0.34356E+06
 0.97970001E+02  0.42495E+06
 0.98019997E+02  0.47685E+06
 0.98070000E+02  0.50008E+06
 0.98119995E+02  0.50259E+06
 0.98169998E+02  0.48970E+06
 0.98220001E+02  0.46760E+06
 0.98269997E+02  0.43924E+06
 0.98320000E+02  0.40317E+06
 0.98369995E+02  0.35824E+06
 0.98419998E+02  0.30714E+06
 0.98470001E+02  0.24968E+06
 0.98519997E+02  0.17424E+06
 0.98570000E+02  0.75900E+05
 0.98619995E+02 -0.36668E+05
 0.98669998E+02 -0.15323E+06
 0.98720001E+02 -0.25329E+06
 0.98769997E+02 -0.31595E+06
 0.98820000E+02 -0.33476E+06
 0.98869995E+02 -0.31248E+06
 0.98919998E+02 -0.25890E+06
 0.98970001E+02 -0.18498E+06
 0.99019997E+02 -0.10972E+06
 0.99070000E+02 -0.60179E+05
 0.99119995E+02 -0.59108E+05
 0.99169998E+02 -0.11026E+06
 0.99220001E+02 -0.18812E+06
 0.99269997E+02 -0.24694E+06
 0.99320000E+02 -0.24390E+06
 0.99369995E+02 -0.16833E+06
 0.99419998E+02 -0.35590E+05
 0.99470001E+02  0.12424E+06
 0.99519997E+02  0.27130E+06
 0.99570000E+02  0.36953E+06
 0.99619995E+02  0.39546E+06
 0.99669998E+02  0.34722E+06
 0.99720001E+02  0.23370E+06
 0.99769997E+02  0.79283E+05
 0.99820000E+02 -0.69761E+05
 0.99869995E+02 -0.16765E+06
 0.99919998E+02 -0.19855E+06
 0.99970001E+02 -0.18495E+06
 0.10002000E+03 -0.15633E+06
 0.10007000E+03 -0.13206E+06
 0.10012000E+03 -0.12365E+06
 0.10017000E+03 -0.13443E+06
 0.10022000E+03 -0.16293E+06
 0.10027000E+03 -0.20822E+06
 0.10032000E+03 -0.26984E+06
 0.10037000E+03 -0.32863E+06
 0.10042000E+03 -0.35202E+06
 0.10047000E+03 -0.32078E+06
 0.10052000E+03 -0.23781E+06
 0.10057000E+03 -0.12807E+06
 0.10062000E+03 -0.18751E+05
 0.10067000E+03  0.77253E+05
 0.10072000E+03  0.15465E+06
 0.10077000E+03  0.20894E+06
 0.10082000E+03  0.24419E+06
 0.10087000E+03  0.27305E+06
 0.10092000E+03  0.29864E+06
 0.10097000E+03  0.30798E+06
 0.10102000E+03  0.28540E+06
 0.10107000E+03  0.22841E+06
 0.10112000E+03  0.14875E+06
 0.10117000E+03  0.69049E+05
 0.10122000E+03  0.13809E+05
 0.10127000E+03 -0.13490E+04
 0.10132000E+03  0.29139E+05
 0.10137000E+03  0.10133E+06
 0.10142000E+03  0.20405E+06
 0.10147000E+03  0.31868E+06
 0.10152000E+03  0.41286E+06
 0.10157000E+03  0.45064E+06
 0.10162000E+03  0.41676E+06
 0.10167000E+03  0.31787E+06
 0.10172000E+03  0.17452E+06
 0.10177000E+03  0.19127E+05
 0.10182000E+03 -0.11579E+06
 0.10187000E+03 -0.21421E+06
 0.10192000E+03 -0.27722E+06
 0.10197000E+03 -0.31142E+06
 0.10202000E+03 -0.32571E+06
 0.10207000E+03 -0.33376E+06
 0.10212000E+03 -0.34459E+06
 0.10217000E+03 -0.35190E+06
 0.10222000E+03 -0.34192E+06
 0.10227000E+03 -0.30662E+06
 0.10232000E+03 -0.24287E+06
 0.10237000E+03 -0.15010E+06
 0.10242000E+03 -0.38695E+05
 0.10247000E+03  0.73271E+05
 0.10252000E+03  0.16816E+06
 0.10257000E+03  0.23399E+06
 0.10262000E+03  0.26112E+06
 0.10267000E+03  0.24051E+06
 0.10272000E+03  0.17768E+06
 0.10277000E+03  0.84971E+05
 0.10282000E+03 -0.30186E+05
 0.10287000E+03 -0.16220E+06
 0.10292000E+03 -0.29506E+06
 0.10297000E+03 -0.40217E+06
 0.10302000E+03 -0.46472E+06
 0.10307000E+03 -0.47043E+06
 0.10312000E+03 -0.41703E+06
 0.10317000E+03 -0.31986E+06
 0.10322000E+03 -0.20384E+06
 0.10327000E+03 -0.94307E+05
 0.10332000E+03 -0.86480E+04
 0.10337000E+03  0.50529E+05
 0.10342000E+03  0.99558E+05
 0.10347000E+03  0.15156E+06
 0.10352000E+03  0.19869E+06
 0.10357000E+03  0.22868E+06
 0.10362000E+03  0.23520E+06
 0.10367000E+03  0.21990E+06
 0.10372000E+03  0.18997E+06
 0.10377000E+03  0.15720E+06
 0.10382000E+03  0.13173E+06
 0.10387000E+03  0.11220E+06
 0.10392000E+03  0.96372E+05
 0.10397000E+03  0.90654E+05
 0.10402000E+03  0.11141E+06
 0.10407000E+03  0.16801E+06
 0.10412000E+03  0.24673E+06
 0.10417000E+03  0.32002E+06
 0.10422000E+03  0.36082E+06
 0.10427000E+03  0.35255E+06
 0.10432000E+03  0.29392E+06
 0.10437000E+03  0.20290E+06
 0.10442000E+03  0.10401E+06
 0.10447000E+03  0.16718E+05
 0.10452000E+03 -0.47539E+05
 0.10457000E+03 -0.91719E+05
 0.10462000E+03 -0.12707E+06
 0.10467000E+03 -0.16259E+06
 0.10472000E+03 -0.19764E+06
 0.10477000E+03 -0.22226E+06
 0.10482000E+03 -0.22562E+06
 0.10487000E+03 -0.20690E+06
 0.10492000E+03 -0.17328E+06
 0.10497000E+03 -0.13888E+06
 0.10502000E+03 -0.12280E+06
 0.10507000E+03 -0.12756E+06
 0.10512000E+03 -0.13972E+06
 0.10517000E+03 -0.14338E+06
 0.10522000E+03 -0.12853E+06
 0.10527000E+03 -0.94303E+05
 0.10532000E+03 -0.49531E+05
 0.10537000E+03 -0.75690E+04
 0.10542000E+03  0.30721E+05
 0.10547000E+03  0.64356E+05
 0.10552000E+03  0.84273E+05
 0.10557000E+03  0.90023E+05
 0.10562000E+03  0.83016E+05
 0.10567000E+03  0.55883E+05
 0.10572000E+03  0.39680E+04
 0.10577000E+03 -0.65735E+05
 0.10582000E+03 -0.14222E+06
 0.10587000E+03 -0.20969E+06
 0.10592000E+03 -0.24550E+06
 0.10597000E+03 -0.24102E+06
 0.10602000E+03 -0.20828E+06
 0.10607000E+03 -0.15651E+06
 0.10612000E+03 -0.86509E+05
 0.10617000E+03 -0.90380E+04
 0.10622000E+03  0.62433E+05
 0.10627000E+03  0.12765E+06
 0.10632000E+03  0.18273E+06
 0.10637000E+03  0.21653E+06
 0.10642000E+03  0.22766E+06
 0.10647000E+03  0.22234E+06
 0.10652000E+03  0.20686E+06
 0.10657000E+03  0.18815E+06
 0.10662000E+03  0.16404E+06
 0.10667000E+03  0.12211E+06
 0.10672000E+03  0.62465E+05
 0.10677000E+03 -0.83020E+04
 0.10682000E+03 -0.91130E+05
 0.10687000E+03 -0.17901E+06
 0.10692000E+03 -0.25636E+06
 0.10697000E+03 -0.31414E+06
 0.10702000E+03 -0.34887E+06
 0.10707000E+03 -0.35353E+06
 0.10712000E+03 -0.32493E+06
 0.10717000E+03 -0.27078E+06
 0.10722000E+03 -0.20073E+06
 0.10727000E+03 -0.12504E+06
 0.10732000E+03 -0.61187E+05
 0.10737000E+03 -0.22945E+05
 0.10742000E+03 -0.61330E+04
 0.10747000E+03  0.35180E+04
 0.10752000E+03  0.18937E+05
 0.10757000E+03  0.47170E+05
 0.10762000E+03  0.88069E+05
 0.10767000E+03  0.13425E+06
 0.10772000E+03  0.17044E+06
 0.10777000E+03  0.18279E+06
 0.10782000E+03  0.16759E+06
 0.10787000E+03  0.12974E+06
 0.10792000E+03  0.82140E+05
 0.10797000E+03  0.37527E+05
 0.10802000E+03  0.88700E+03
 0.10807000E+03 -0.22479E+05
 0.10812000E+03 -0.26626E+05
 0.10817000E+03 -0.12655E+05
 0.10822000E+03  0.11925E+05
 0.10827000E+03  0.37908E+05
 0.10832000E+03  0.57772E+05
 0.10837000E+03  0.68169E+05
 0.10842000E+03  0.67959E+05
 0.10847000E+03  0.55298E+05
 0.10852000E+03  0.32237E+05
 0.10857000E+03  0.65460E+04
 0.10862000E+03 -0.10110E+05
 0.10867000E+03 -0.72930E+04
 0.10872000E+03  0.18630E+05
 0.10877000E+03  0.61711E+05
 0.10882000E+03  0.10788E+06
 0.10887000E+03  0.14209E+06
 0.10892000E+03  0.15637E+06
 0.10897000E+03  0.15506E+06
 0.10902000E+03  0.14315E+06
 0.10907000E+03  0.12489E+06
 0.10912000E+03  0.10552E+06
 0.10917000E+03  0.83145E+05
 0.10922000E+03  0.60081E+05
 0.10927000E+03  0.41675E+05
 0.10932000E+03  0.28694E+05
 0.10937000E+03  0.22662E+05
 0.10942000E+03  0.24742E+05
 0.10947000E+03  0.36387E+05
 0.10952000E+03  0.55217E+05
 0.10957000E+03  0.71674E+05
 0.10962000E+03  0.73594E+05
 0.10967000E+03  0.50968E+05
 0.10972000E+03  0.10446E+05
 0.10977000E+03 -0.29783E+05
 0.10982000E+03 -0.53958E+05
 0.10987000E+03 -0.47394E+05
 0.10992000E+03 -0.64630E+04
 0.10997000E+03  0.57344E+05
 0.11002000E+03  0.12478E+06
 0.11007000E+03  0.17940E+06
 0.11012000E+03  0.20458E+06
 0.11017000E+03  0.18545E+06
 0.11022000E+03  0.12676E+06
 0.11027000E+03  0.43248E+05
 0.11032000E+03 -0.45935E+05
 0.11037000E+03 -0.11978E+06
 0.11042000E+03 -0.16333E+06
 0.11047000E+03 -0.17084E+06
 0.11052000E+03 -0.15274E+06
 0.11057000E+03 -0.12120E+06
 0.11062000E+03 -0.84552E+05
 0.11067000E+03 -0.50384E+05
 0.11072000E+03 -0.19688E+05
 0.11077000E+03  0.42060E+04
 0.11082000E+03  0.20116E+05
 0.11087000E+03  0.37550E+05
 0.11092000E+03  0.64051E+05
 0.11097000E+03  0.98889E+05
 0.11102000E+03  0.13742E+06
 0.11107000E+03  0.17255E+06
 0.11112000E+03  0.19317E+06
 0.11117000E+03  0.19335E+06
 0.11122000E+03  0.17967E+06
 0.11127000E+03  0.15673E+06
 0.11132000E+03  0.11868E+06
 0.11137000E+03  0.59222E+05
 0.11142000E+03 -0.16006E+05
 0.11147000E+03 -0.90913E+05
 0.11152000E+03 -0.14601E+06
 0.11157000E+03 -0.16302E+06
 0.11162000E+03 -0.13918E+06
 0.11167000E+03 -0.84346E+05
 0.11172000E+03 -0.14110E+05
 0.11177000E+03  0.49297E+05
 0.11182000E+03  0.90445E+05
 0.11187000E+03  0.10663E+06
 0.11192000E+03  0.10042E+06
 0.11197000E+03  0.71629E+05
 0.11202000E+03  0.26945E+05
 0.11207000E+03 -0.20045E+05
 0.11212000E+03 -0.64726E+05
 0.11217000E+03 -0.10555E+06
 0.11222000E+03 -0.13845E+06
 0.11227000E+03 -0.15967E+06
 0.11232000E+03 -0.16799E+06
 0.11237000E+03 -0.16614E+06
 0.11242000E+03 -0.16728E+06
 0.11247000E+03 -0.18882E+06
 0.11252000E+03 -0.22980E+06
 0.11257000E+03 -0.27571E+06
 0.11262000E+03 -0.30691E+06
 0.11267000E+03 -0.30520E+06
 0.11272000E+03 -0.26856E+06
 0.11277000E+03 -0.20804E+06
 0.11282000E+03 -0.14202E+06
 0.11287000E+03 -0.84562E+05
 0.11292000E+03 -0.36341E+05
 0.11297000E+03  0.97420E+04
 0.11302000E+03  0.60845E+05
 0.11307000E+03  0.11165E+06
 0.11312000E+03  0.14920E+06
 0.11317000E+03  0.16606E+06
 0.11322000E+03  0.15782E+06
 0.11327000E+03  0.12480E+06
 0.11332000E+03  0.71858E+05
 0.11337000E+03  0.17200E+04
 0.11342000E+03 -0.83000E+05
 0.11347000E+03 -0.17099E+06
 0.11352000E+03 -0.24108E+06
 0.11357000E+03 -0.27799E+06
 0.11362000E+03 -0.28222E+06
 0.11367000E+03 -0.25717E+06
 0.11372000E+03 -0.20607E+06
 0.11377000E+03 -0.13772E+06
 0.11382000E+03 -0.60940E+05
 0.11387000E+03  0.14700E+05
 0.11392000E+03  0.81694E+05
 0.11397000E+03  0.13754E+06
 0.11402000E+03  0.18271E+06
 0.11407000E+03  0.22043E+06
 0.11412000E+03  0.25547E+06
 0.11417000E+03  0.29099E+06
 0.11422000E+03  0.32233E+06
 0.11427000E+03  0.34147E+06
 0.11432000E+03  0.33990E+06
 0.11437000E+03  0.31101E+06
 0.11442000E+03  0.25386E+06
 0.11447000E+03  0.17215E+06
 0.11452000E+03  0.78946E+05
 0.11457000E+03 -0.10015E+05
 0.11462000E+03 -0.77949E+05
 0.11467000E+03 -0.10745E+06
 0.11472000E+03 -0.95532E+05
 0.11477000E+03 -0.50774E+05
 0.11482000E+03  0.10783E+05
 0.11487000E+03  0.68830E+05
 0.11492000E+03  0.10853E+06
 0.11497000E+03  0.12248E+06
 0.11502000E+03  0.11067E+06
 0.11507000E+03  0.77757E+05
 0.11512000E+03  0.37500E+05
 0.11517000E+03  0.11772E+05
 0.11522000E+03  0.15894E+05
 0.11527000E+03  0.51244E+05
 0.11532000E+03  0.10584E+06
 0.11537000E+03  0.15839E+06
 0.11542000E+03  0.18424E+06
 0.11547000E+03  0.16798E+06
 0.11552000E+03  0.11340E+06
 0.11557000E+03  0.38501E+05
 0.11562000E+03 -0.39223E+05
 0.11567000E+03 -0.10976E+06
 0.11572000E+03 -0.16566E+06
 0.11577000E+03 -0.20777E+06
 0.11582000E+03 -0.23882E+06
 0.11587000E+03 -0.25312E+06
 0.11592000E+03 -0.25240E+06
 0.11597000E+03 -0.24588E+06
 0.11602000E+03 -0.23938E+06
 0.11607000E+03 -0.23550E+06
 0.11612000E+03 -0.23835E+06
 0.11617000E+03 -0.24968E+06
 0.11622000E+03 -0.26122E+06
 0.11627000E+03 -0.26146E+06
 0.11632000E+03 -0.24034E+06
 0.11637000E+03 -0.19804E+06
 0.11642000E+03 -0.14789E+06
 0.11647000E+03 -0.10449E+06
 0.11652000E+03 -0.74580E+05
 0.11657000E+03 -0.58306E+05
 0.11662000E+03 -0.55103E+05
 0.11667000E+03 -0.57784E+05
 0.11672000E+03 -0.53619E+05
 0.11677000E+03 -0.38741E+05
 0.11682000E+03 -0.20269E+05
 0.11687000E+03 -0.11030E+04
 0.11692000E+03  0.16811E+05
 0.11697000E+03  0.23163E+05
 0.11702000E+03  0.17427E+05
 0.11707000E+03  0.94860E+04
 0.11712000E+03  0.67570E+04
 0.11717000E+03  0.17762E+05
 0.11722000E+03  0.49592E+05
 0.11727000E+03  0.98656E+05
 0.11732000E+03  0.15373E+06
 0.11737000E+03  0.20825E+06
 0.11742000E+03  0.25351E+06
 0.11747000E+03  0.27408E+06
 0.11752000E+03  0.26726E+06
 0.11757000E+03  0.24578E+06
 0.11762000E+03  0.21952E+06
 0.11767000E+03  0.18800E+06
 0.11772000E+03  0.14896E+06
 0.11777000E+03  0.10171E+06
 0.11782000E+03  0.50564E+05
 0.11787000E+03  0.62130E+04
 0.11792000E+03 -0.28374E+05
 0.11797000E+03 -0.56173E+05
 0.11802000E+03 -0.74315E+05
 0.11807000E+03 -0.80176E+05
 0.11812000E+03 -0.74877E+05
 0.11817000E+03 -0.56938E+05
 0.11822000E+03 -0.27087E+05
 0.11827000E+03  0.62950E+04
 0.11832000E+03  0.34567E+05
 0.11837000E+03  0.51951E+05
 0.11842000E+03  0.48686E+05
 0.11847000E+03  0.17485E+05
 0.11852000E+03 -0.34307E+05
 0.11857000E+03 -0.93440E+05
 0.11862000E+03 -0.14916E+06
 0.11867000E+03 -0.19243E+06
 0.11872000E+03 -0.21854E+06
 0.11877000E+03 -0.22981E+06
 0.11882000E+03 -0.23061E+06
 0.11887000E+03 -0.22157E+06
 0.11892000E+03 -0.20402E+06
 0.11897000E+03 -0.18131E+06
 0.11902000E+03 -0.15723E+06
 0.11907000E+03 -0.13447E+06
 0.11912000E+03 -0.11192E+06
 0.11917000E+03 -0.91725E+05
 0.11922000E+03 -0.80871E+05
 0.11927000E+03 -0.81744E+05
 0.11932000E+03 -0.91897E+05
 0.11937000E+03 -0.10765E+06
 0.11942000E+03 -0.12281E+06
 0.11947000E+03 -0.12636E+06
 0.11952000E+03 -0.10898E+06
 0.11957000E+03 -0.75050E+05
 0.11962000E+03 -0.36551E+05
 0.11967000E+03 -0.43850E+04
 0.11972000E+03  0.13837E+05
 0.11977000E+03  0.20537E+05
 0.11982000E+03  0.21727E+05
 0.11987000E+03  0.22850E+05
 0.11992000E+03  0.32126E+05
 0.11997000E+03  0.56822E+05
 0.12002000E+03  0.96559E+05
 0.12007000E+03  0.13895E+06
 0.12012000E+03  0.17037E+06
 0.12017000E+03  0.17913E+06
 0.12022000E+03  0.15628E+06
 0.12027000E+03  0.10543E+06
 0.12032000E+03  0.34853E+05
 0.12037000E+03 -0.44011E+05
 0.12042000E+03 -0.11070E+06
 0.12047000E+03 -0.14828E+06
 0.12052000E+03 -0.15266E+06
 0.12057000E+03 -0.12702E+06
 0.12062000E+03 -0.80079E+05
 0.12067000E+03 -0.28807E+05
 0.12072000E+03  0.71700E+04
 0.12077000E+03  0.17661E+05
 0.12082000E+03  0.26820E+04
 0.12087000E+03 -0.29679E+05
 0.12092000E+03 -0.55403E+05
 0.12097000E+03 -0.50981E+05
 0.12102000E+03 -0.13497E+05
 0.12107000E+03  0.45433E+05
 0.12112000E+03  0.10836E+06
 0.12117000E+03  0.16199E+06
 0.12122000E+03  0.19694E+06
 0.12127000E+03  0.20897E+06
 0.12132000E+03  0.20424E+06
 0.12137000E+03  0.19127E+06
 0.12142000E+03  0.17990E+06
 0.12147000E+03  0.17700E+06
 0.12152000E+03  0.18073E+06
 0.12157000E+03  0.18318E+06
 0.12162000E+03  0.17583E+06
 0.12167000E+03  0.15476E+06
 0.12172000E+03  0.11886E+06
 0.12177000E+03  0.73213E+05
 0.12182000E+03  0.28389E+05
 0.12187000E+03 -0.50370E+04
 0.12192000E+03 -0.16422E+05
 0.12197000E+03 -0.14020E+04
 0.12202000E+03  0.30547E+05
 0.12207000E+03  0.61695E+05
 0.12212000E+03  0.78492E+05
 0.12217000E+03  0.74970E+05
 0.12222000E+03  0.54125E+05
 0.12227000E+03  0.32940E+05
 0.12232000E+03  0.31687E+05
 0.12237000E+03  0.55025E+05
 0.12242000E+03  0.98743E+05
 0.12247000E+03  0.15421E+06
 0.12252000E+03  0.20184E+06
 0.12257000E+03  0.22293E+06
 0.12262000E+03  0.21185E+06
 0.12267000E+03  0.17315E+06
 0.12272000E+03  0.11276E+06
 0.12277000E+03  0.40269E+05
 0.12282000E+03 -0.35735E+05
 0.12287000E+03 -0.11043E+06
 0.12292000E+03 -0.16989E+06
 0.12297000E+03 -0.20246E+06
 0.12302000E+03 -0.20965E+06
 0.12307000E+03 -0.19870E+06
 0.12312000E+03 -0.17715E+06
 0.12317000E+03 -0.15230E+06
 0.12322000E+03 -0.13360E+06
 0.12327000E+03 -0.12450E+06
 0.12332000E+03 -0.12514E+06
 0.12337000E+03 -0.13497E+06
 0.12342000E+03 -0.14378E+06
 0.12347000E+03 -0.14388E+06
 0.12352000E+03 -0.13780E+06
 0.12357000E+03 -0.12995E+06
 0.12362000E+03 -0.12115E+06
 0.12367000E+03 -0.11070E+06
 0.12372000E+03 -0.96046E+05
 0.12377000E+03 -0.71788E+05
 0.12382000E+03 -0.38351E+05
 0.12387000E+03  0.25690E+04
 0.12392000E+03  0.48238E+05
 0.12397000E+03  0.89819E+05
 0.12402000E+03  0.11966E+06
 0.12407000E+03  0.13689E+06
 0.12412000E+03  0.14488E+06
 0.12417000E+03  0.14870E+06
 0.12422000E+03  0.16317E+06
 0.12427000E+03  0.20013E+06
 0.12432000E+03  0.25714E+06
 0.12437000E+03  0.32609E+06
 0.12442000E+03  0.39266E+06
 0.12447000E+03  0.43916E+06
 0.12452000E+03  0.45326E+06
 0.12457000E+03  0.43187E+06
 0.12462000E+03  0.37544E+06
 0.12467000E+03  0.29335E+06
 0.12472000E+03  0.20578E+06
 0.12477000E+03  0.12638E+06
 0.12482000E+03  0.60475E+05
 0.12487000E+03  0.80990E+04
 0.12492000E+03 -0.33903E+05
 0.12497000E+03 -0.66792E+05
 0.12502000E+03 -0.88853E+05
 0.12507000E+03 -0.10020E+06
 0.12512000E+03 -0.10815E+06
 0.12517001E+03 -0.11381E+06
 0.12521999E+03 -0.11291E+06
 0.12527000E+03 -0.10652E+06
 0.12532000E+03 -0.93552E+05
 0.12537000E+03 -0.75309E+05
 0.12542001E+03 -0.57843E+05
 0.12546999E+03 -0.44139E+05
 0.12552000E+03 -0.35157E+05
 0.12557000E+03 -0.33409E+05
 0.12562000E+03 -0.41510E+05
 0.12567001E+03 -0.53920E+05
 0.12571999E+03 -0.63565E+05
 0.12577000E+03 -0.70584E+05
 0.12582000E+03 -0.77495E+05
 0.12587000E+03 -0.89612E+05
 0.12592001E+03 -0.11132E+06
 0.12596999E+03 -0.14020E+06
 0.12602000E+03 -0.16452E+06
 0.12607000E+03 -0.16910E+06
 0.12612000E+03 -0.14622E+06
 0.12617001E+03 -0.99852E+05
 0.12621999E+03 -0.46249E+05
 0.12627000E+03 -0.41270E+04
 0.12632000E+03  0.15410E+05
 0.12637000E+03  0.15041E+05
 0.12642001E+03  0.62060E+04
 0.12646999E+03 -0.14910E+04
 0.12652000E+03 -0.16260E+04
 0.12657000E+03  0.66220E+04
 0.12662000E+03  0.21926E+05
 0.12667001E+03  0.38992E+05
 0.12671999E+03  0.48694E+05
 0.12677000E+03  0.49049E+05
 0.12682000E+03  0.44303E+05
 0.12687000E+03  0.39487E+05
 0.12692001E+03  0.38296E+05
 0.12696999E+03  0.43785E+05
 0.12702000E+03  0.57709E+05
 0.12707000E+03  0.80606E+05
 0.12712000E+03  0.11043E+06
 0.12717001E+03  0.13732E+06
 0.12721999E+03  0.14869E+06
 0.12727000E+03  0.13864E+06
 0.12732000E+03  0.10651E+06
 0.12737000E+03  0.52884E+05
 0.12742001E+03 -0.14653E+05
 0.12746999E+03 -0.82258E+05
 0.12752000E+03 -0.13908E+06
 0.12757000E+03 -0.17868E+06
 0.12762000E+03 -0.19760E+06
 0.12767001E+03 -0.19744E+06
 0.12771999E+03 -0.18216E+06
 0.12777000E+03 -0.15468E+06
 0.12782000E+03 -0.12256E+06
 0.12787000E+03 -0.98539E+05
 0.12792001E+03 -0.92230E+05
 0.12796999E+03 -0.10750E+06
 0.12802000E+03 -0.14400E+06
 0.12807001E+03 -0.19379E+06
 0.12812001E+03 -0.24580E+06
 0.12817001E+03 -0.29310E+06
 0.12822000E+03 -0.32729E+06
 0.12827000E+03 -0.34107E+06
 0.12832001E+03 -0.33640E+06
 0.12837001E+03 -0.32235E+06
 0.12842001E+03 -0.30735E+06
 0.12847000E+03 -0.29836E+06
 0.12852000E+03 -0.29261E+06
 0.12857001E+03 -0.27628E+06
 0.12862001E+03 -0.24588E+06
 0.12867001E+03 -0.20862E+06
 0.12872000E+03 -0.17142E+06
 0.12877000E+03 -0.13657E+06
 0.12882001E+03 -0.10689E+06
 0.12887001E+03 -0.85366E+05
 0.12892001E+03 -0.68134E+05
 0.12897000E+03 -0.50830E+05
 0.12902000E+03 -0.25689E+05
 0.12907001E+03  0.14523E+05
 0.12912001E+03  0.70432E+05
 0.12917001E+03  0.13714E+06
 0.12922000E+03  0.20388E+06
 0.12927000E+03  0.26004E+06
 0.12932001E+03  0.29471E+06
 0.12937001E+03  0.30175E+06
 0.12942001E+03  0.28633E+06
 0.12947000E+03  0.26156E+06
 0.12952000E+03  0.24027E+06
 0.12957001E+03  0.22934E+06
 0.12962001E+03  0.22999E+06
 0.12967001E+03  0.23693E+06
 0.12972000E+03  0.24187E+06
 0.12977000E+03  0.23757E+06
 0.12982001E+03  0.21968E+06
 0.12987001E+03  0.19090E+06
 0.12992001E+03  0.15914E+06
 0.12997000E+03  0.13046E+06
 0.13002000E+03  0.10846E+06
 0.13007001E+03  0.94539E+05
 0.13012001E+03  0.88888E+05
 0.13017001E+03  0.91152E+05
 0.13022000E+03  0.98251E+05
 0.13027000E+03  0.10679E+06
 0.13032001E+03  0.11376E+06
 0.13037001E+03  0.11578E+06
 0.13042001E+03  0.11454E+06
 0.13047000E+03  0.11692E+06
 0.13052000E+03  0.12494E+06
 0.13057001E+03  0.13106E+06
 0.13062001E+03  0.12577E+06
 0.13067001E+03  0.10462E+06
 0.13072000E+03  0.68695E+05
 0.13077000E+03  0.26852E+05
 0.13082001E+03 -0.60260E+04
 0.13087001E+03 -0.19060E+05
 0.13092001E+03 -0.11594E+05
 0.13097000E+03  0.86230E+04
 0.13102000E+03  0.32896E+05
 0.13107001E+03  0.56973E+05
 0.13112001E+03  0.74352E+05
 0.13117001E+03  0.74500E+05
 0.13122000E+03  0.52174E+05
 0.13127000E+03  0.13408E+05
 0.13132001E+03 -0.27833E+05
 0.13137001E+03 -0.62147E+05
 0.13142001E+03 -0.86629E+05
 0.13147000E+03 -0.99919E+05
 0.13152000E+03 -0.10535E+06
 0.13157001E+03 -0.10827E+06
 0.13162001E+03 -0.10810E+06
 0.13167001E+03 -0.10152E+06
 0.13172000E+03 -0.92753E+05
 0.13177000E+03 -0.85850E+05
 0.13182001E+03 -0.76684E+05
 0.13187001E+03 -0.63065E+05
 0.13192001E+03 -0.44840E+05
 0.13197000E+03 -0.22100E+05
 0.13202000E+03 -0.15090E+04
 0.13207001E+03  0.87010E+04
 0.13212001E+03  0.89770E+04
 0.13217001E+03  0.37040E+04
 0.13222000E+03 -0.58130E+04
 0.13227000E+03 -0.18933E+05
 0.13232001E+03 -0.40799E+05
 0.13237001E+03 -0.79793E+05
 0.13242001E+03 -0.13137E+06
 0.13247000E+03 -0.17930E+06
 0.13252000E+03 -0.21150E+06
 0.13257001E+03 -0.22344E+06
 0.13262001E+03 -0.21328E+06
 0.13267001E+03 -0.18478E+06
 0.13272000E+03 -0.14504E+06
 0.13277000E+03 -0.97213E+05
 0.13282001E+03 -0.44519E+05
 0.13287001E+03  0.50140E+04
 0.13292001E+03  0.44866E+05
 0.13297000E+03  0.74446E+05
 0.13302000E+03  0.92116E+05
 0.13307001E+03  0.95484E+05
 0.13312001E+03  0.85743E+05
 0.13317001E+03  0.63132E+05
 0.13322000E+03  0.31236E+05
 0.13327000E+03 -0.69500E+03
 0.13332001E+03 -0.24479E+05
 0.13337001E+03 -0.35828E+05
 0.13342001E+03 -0.33724E+05
 0.13347000E+03 -0.18137E+05
 0.13352000E+03  0.53940E+04
 0.13357001E+03  0.29182E+05
 0.13362001E+03  0.47931E+05
 0.13367001E+03  0.54489E+05
 0.13372000E+03  0.45331E+05
 0.13377000E+03  0.27292E+05
 0.13382001E+03  0.11773E+05
 0.13387001E+03  0.36610E+04
 0.13392001E+03  0.25880E+04
 0.13397000E+03  0.58190E+04
 0.13402000E+03  0.10713E+05
 0.13407001E+03  0.14418E+05
 0.13412001E+03  0.12413E+05
 0.13417001E+03  0.32990E+04
 0.13422000E+03 -0.12006E+05
 0.13427000E+03 -0.29810E+05
 0.13432001E+03 -0.47233E+05
 0.13437001E+03 -0.61449E+05
 0.13442001E+03 -0.68864E+05
 0.13447000E+03 -0.70888E+05
 0.13452000E+03 -0.70773E+05
 0.13457001E+03 -0.67432E+05
 0.13462001E+03 -0.54183E+05
 0.13467001E+03 -0.28880E+05
 0.13472000E+03  0.36340E+04
 0.13477000E+03  0.37821E+05
 0.13482001E+03  0.67053E+05
 0.13487001E+03  0.84538E+05
 0.13492001E+03  0.86755E+05
 0.13497000E+03  0.76719E+05
 0.13502000E+03  0.61275E+05
 0.13507001E+03  0.48036E+05
 0.13512001E+03  0.45292E+05
 0.13517001E+03  0.56919E+05
 0.13522000E+03  0.77082E+05
 0.13527000E+03  0.91597E+05
 0.13532001E+03  0.89898E+05
 0.13537001E+03  0.74882E+05
 0.13542001E+03  0.53800E+05
 0.13547000E+03  0.28448E+05
 0.13552000E+03 -0.13240E+04
 0.13557001E+03 -0.32404E+05
 0.13562001E+03 -0.61659E+05
 0.13567001E+03 -0.87809E+05
 0.13572000E+03 -0.10339E+06
 0.13577000E+03 -0.10234E+06
 0.13582001E+03 -0.86387E+05
 0.13587001E+03 -0.58144E+05
 0.13592001E+03 -0.24348E+05
 0.13597000E+03  0.40620E+04
 0.13602000E+03  0.17868E+05
 0.13607001E+03  0.16374E+05
 0.13612001E+03  0.26420E+04
 0.13617001E+03 -0.21037E+05
 0.13622000E+03 -0.48199E+05
 0.13627000E+03 -0.72696E+05
 0.13632001E+03 -0.87460E+05
 0.13637001E+03 -0.81700E+05
 0.13642001E+03 -0.51426E+05
 0.13647000E+03 -0.44390E+04
 0.13652000E+03  0.49133E+05
 0.13657001E+03  0.10121E+06
 0.13662001E+03  0.14024E+06
 0.13667001E+03  0.15478E+06
 0.13672000E+03  0.14422E+06
 0.13677000E+03  0.11322E+06
 0.13682001E+03  0.71036E+05
 0.13687001E+03  0.34909E+05
 0.13692001E+03  0.15068E+05
 0.13697000E+03  0.10370E+05
 0.13702000E+03  0.11415E+05
 0.13707001E+03  0.88050E+04
 0.13712001E+03 -0.62850E+04
 0.13717001E+03 -0.41229E+05
 0.13722000E+03 -0.90540E+05
 0.13727000E+03 -0.14416E+06
 0.13732001E+03 -0.18954E+06
 0.13737001E+03 -0.21424E+06
 0.13742001E+03 -0.21397E+06
 0.13747000E+03 -0.19380E+06
 0.13752000E+03 -0.16310E+06
 0.13757001E+03 -0.12720E+06
 0.13762001E+03 -0.97888E+05
 0.13767001E+03 -0.87383E+05
 0.13772000E+03 -0.95528E+05
 0.13777000E+03 -0.11913E+06
 0.13782001E+03 -0.14831E+06
 0.13787001E+03 -0.16615E+06
 0.13792001E+03 -0.16216E+06
 0.13797000E+03 -0.13778E+06
 0.13802000E+03 -0.10026E+06
 0.13807001E+03 -0.54758E+05
 0.13812001E+03 -0.11232E+05
 0.13817001E+03  0.22328E+05
 0.13822000E+03  0.46777E+05
 0.13827000E+03  0.60195E+05
 0.13832001E+03  0.60071E+05
 0.13837001E+03  0.46846E+05
 0.13842001E+03  0.23766E+05
 0.13847000E+03 -0.39030E+04
 0.13852000E+03 -0.25112E+05
 0.13857001E+03 -0.26453E+05
 0.13862001E+03 -0.84600E+04
 0.13867001E+03  0.19856E+05
 0.13872000E+03  0.49357E+05
 0.13877000E+03  0.69456E+05
 0.13882001E+03  0.72276E+05
 0.13887001E+03  0.56560E+05
 0.13892001E+03  0.23342E+05
 0.13897000E+03 -0.24242E+05
 0.13902000E+03 -0.72536E+05
 0.13907001E+03 -0.10524E+06
 0.13912001E+03 -0.11714E+06
 0.13917001E+03 -0.11294E+06
 0.13922000E+03 -0.97689E+05
 0.13927000E+03 -0.76715E+05
 0.13932001E+03 -0.56545E+05
 0.13937001E+03 -0.39767E+05
 0.13942001E+03 -0.26573E+05
 0.13947000E+03 -0.20019E+05
 0.13952000E+03 -0.23816E+05
 0.13957001E+03 -0.33972E+05
 0.13962001E+03 -0.44377E+05
 0.13967001E+03 -0.50018E+05
 0.13972000E+03 -0.47464E+05
 0.13977000E+03 -0.36607E+05
 0.13982001E+03 -0.16775E+05
 0.13987001E+03  0.10687E+05
 0.13992001E+03  0.44684E+05
 0.13997000E+03  0.82893E+05
 0.14002000E+03  0.12126E+06
 0.14007001E+03  0.15432E+06
 0.14012001E+03  0.17822E+06
 0.14017001E+03  0.19691E+06
 0.14022000E+03  0.21170E+06
 0.14027000E+03  0.22151E+06
 0.14032001E+03  0.22350E+06
 0.14037001E+03  0.21203E+06
 0.14042001E+03  0.18750E+06
 0.14047000E+03  0.15272E+06
 0.14052000E+03  0.11128E+06
 0.14057001E+03  0.71092E+05
 0.14062001E+03  0.44541E+05
 0.14067001E+03  0.38968E+05
 0.14072000E+03  0.53229E+05
 0.14077000E+03  0.88683E+05
 0.14082001E+03  0.14168E+06
 0.14087001E+03  0.19781E+06
 0.14092001E+03  0.24332E+06
 0.14097000E+03  0.26639E+06
 0.14102000E+03  0.26001E+06
 0.14107001E+03  0.22673E+06
 0.14112001E+03  0.17689E+06
 0.14117001E+03  0.12668E+06
 0.14122000E+03  0.90412E+05
 0.14127000E+03  0.73213E+05
 0.14132001E+03  0.70553E+05
 0.14137001E+03  0.74869E+05
 0.14142001E+03  0.79816E+05
 0.14147000E+03  0.79429E+05
 0.14152000E+03  0.70336E+05
 0.14157001E+03  0.54357E+05
 0.14162001E+03  0.38969E+05
 0.14167001E+03  0.30398E+05
 0.14172000E+03  0.28170E+05
 0.14177000E+03  0.30393E+05
 0.14182001E+03  0.36090E+05
 0.14187001E+03  0.42167E+05
 0.14192001E+03  0.46587E+05
 0.14197000E+03  0.48337E+05
 0.14202000E+03  0.45515E+05
 0.14207001E+03  0.35986E+05
 0.14212001E+03  0.19136E+05
 0.14217001E+03 -0.15050E+04
 0.14222000E+03 -0.21791E+05
 0.14227000E+03 -0.36566E+05
 0.14232001E+03 -0.44850E+05
 0.14237001E+03 -0.52140E+05
 0.14242001E+03 -0.61898E+05
 0.14247000E+03 -0.76090E+05
 0.14252000E+03 -0.94655E+05
 0.14257001E+03 -0.11161E+06
 0.14262001E+03 -0.11501E+06
 0.14267001E+03 -0.96587E+05
 0.14272000E+03 -0.59526E+05
 0.14277000E+03 -0.12815E+05
 0.14282001E+03  0.33817E+05
 0.14287001E+03  0.72744E+05
 0.14292001E+03  0.10023E+06
 0.14297000E+03  0.11452E+06
 0.14302000E+03  0.11497E+06
 0.14307001E+03  0.10480E+06
 0.14312001E+03  0.91184E+05
 0.14317001E+03  0.81486E+05
 0.14322000E+03  0.81391E+05
 0.14327000E+03  0.93493E+05
 0.14332001E+03  0.11496E+06
 0.14337001E+03  0.13917E+06
 0.14342001E+03  0.15649E+06
 0.14347000E+03  0.15719E+06
 0.14352000E+03  0.13876E+06
 0.14357001E+03  0.10442E+06
 0.14362001E+03  0.58806E+05
 0.14367001E+03  0.10024E+05
 0.14372000E+03 -0.30773E+05
 0.14377000E+03 -0.57116E+05
 0.14382001E+03 -0.68707E+05
 0.14387001E+03 -0.68557E+05
 0.14392001E+03 -0.65981E+05
 0.14397000E+03 -0.69940E+05
 0.14402000E+03 -0.78948E+05
 0.14407001E+03 -0.86080E+05
 0.14412001E+03 -0.86125E+05
 0.14417001E+03 -0.74710E+05
 0.14422000E+03 -0.52379E+05
 0.14427000E+03 -0.29731E+05
 0.14432001E+03 -0.18820E+05
 0.14437001E+03 -0.25590E+05
 0.14442001E+03 -0.53591E+05
 0.14447000E+03 -0.10091E+06
 0.14452000E+03 -0.15467E+06
 0.14457001E+03 -0.20182E+06
 0.14462001E+03 -0.23746E+06
 0.14467001E+03 -0.25814E+06
 0.14472000E+03 -0.26243E+06
 0.14477000E+03 -0.25322E+06
 0.14482001E+03 -0.22905E+06
 0.14487001E+03 -0.18849E+06
 0.14492001E+03 -0.14254E+06
 0.14497000E+03 -0.10580E+06
 0.14502000E+03 -0.83088E+05
 0.14507001E+03 -0.76268E+05
 0.14512001E+03 -0.85704E+05
 0.14517001E+03 -0.10213E+06
 0.14522000E+03 -0.11694E+06
 0.14527000E+03 -0.12715E+06
 0.14532001E+03 -0.12643E+06
 0.14537001E+03 -0.11070E+06
 0.14542001E+03 -0.87206E+05
 0.14547000E+03 -0.65032E+05
 0.14552000E+03 -0.48466E+05
 0.14557001E+03 -0.45069E+05
 0.14562001E+03 -0.59116E+05
 0.14567001E+03 -0.83664E+05
 0.14572000E+03 -0.11259E+06
 0.14577000E+03 -0.14097E+06
 0.14582001E+03 -0.15652E+06
 0.14587001E+03 -0.15134E+06
 0.14592001E+03 -0.12795E+06
 0.14597000E+03 -0.89202E+05
 0.14602000E+03 -0.40877E+05
 0.14607001E+03  0.33780E+04
 0.14612001E+03  0.34044E+05
 0.14617001E+03  0.50636E+05
 0.14622000E+03  0.52496E+05
 0.14627000E+03  0.42376E+05
 0.14632001E+03  0.28671E+05
 0.14637001E+03  0.16724E+05
 0.14642001E+03  0.94570E+04
 0.14647000E+03  0.11459E+05
 0.14652000E+03  0.26474E+05
 0.14657001E+03  0.54051E+05
 0.14662001E+03  0.90117E+05
 0.14667001E+03  0.12757E+06
 0.14672000E+03  0.15553E+06
 0.14677000E+03  0.16389E+06
 0.14682001E+03  0.14903E+06
 0.14687001E+03  0.11455E+06
 0.14692001E+03  0.70351E+05
 0.14697000E+03  0.26809E+05
 0.14702000E+03 -0.11077E+05
 0.14707001E+03 -0.43850E+05
 0.14712001E+03 -0.73917E+05
 0.14717001E+03 -0.99076E+05
 0.14722000E+03 -0.11559E+06
 0.14727000E+03 -0.12439E+06
 0.14732001E+03 -0.12670E+06
 0.14737001E+03 -0.12236E+06
 0.14742001E+03 -0.11156E+06
 0.14747000E+03 -0.93243E+05
 0.14752000E+03 -0.67942E+05
 0.14757001E+03 -0.39652E+05
 0.14762001E+03 -0.13113E+05
 0.14767001E+03  0.69600E+04
 0.14772000E+03  0.17242E+05
 0.14777000E+03  0.17745E+05
 0.14782001E+03  0.10330E+05
 0.14787001E+03 -0.42940E+04
 0.14792001E+03 -0.23232E+05
 0.14797000E+03 -0.38140E+05
 0.14802000E+03 -0.42140E+05
 0.14807001E+03 -0.33767E+05
 0.14812001E+03 -0.15772E+05
 0.14817001E+03  0.50080E+04
 0.14822000E+03  0.22688E+05
 0.14827000E+03  0.37112E+05
 0.14832001E+03  0.50780E+05
 0.14837001E+03  0.67233E+05
 0.14842001E+03  0.89492E+05
 0.14847000E+03  0.11409E+06
 0.14852000E+03  0.13549E+06
 0.14857001E+03  0.15238E+06
 0.14862001E+03  0.16354E+06
 0.14867001E+03  0.16542E+06
 0.14872000E+03  0.15562E+06
 0.14877000E+03  0.13520E+06
 0.14882001E+03  0.10565E+06
 0.14887001E+03  0.69239E+05
 0.14892001E+03  0.33231E+05
 0.14897000E+03  0.52890E+04
 0.14902000E+03 -0.11307E+05
 0.14907001E+03 -0.14131E+05
 0.14912001E+03 -0.29020E+04
 0.14917001E+03  0.17163E+05
 0.14922000E+03  0.39755E+05
 0.14927000E+03  0.59882E+05
 0.14932001E+03  0.69972E+05
 0.14937001E+03  0.64098E+05
 0.14942001E+03  0.43063E+05
 0.14947000E+03  0.10202E+05
 0.14952000E+03 -0.29086E+05
 0.14957001E+03 -0.65992E+05
 0.14962001E+03 -0.92541E+05
 0.14967001E+03 -0.10764E+06
 0.14972000E+03 -0.11015E+06
 0.14977000E+03 -0.98589E+05
 0.14982001E+03 -0.81048E+05
 0.14987001E+03 -0.66478E+05
 0.14992001E+03 -0.57051E+05
 0.14997000E+03 -0.52830E+05
