-0.29800000E+01  0.87013E+05
-0.29300001E+01  0.10536E+06
-0.28800001E+01  0.11997E+06
-0.28299999E+01  0.13071E+06
-0.27800000E+01  0.13689E+06
-0.27300000E+01  0.13882E+06
-0.26800001E+01  0.13754E+06
-0.26300001E+01  0.13446E+06
-0.25799999E+01  0.13017E+06
-0.25300000E+01  0.12361E+06
-0.24800000E+01  0.11424E+06
-0.24300001E+01  0.10323E+06
-0.23800001E+01  0.91354E+05
-0.23299999E+01  0.79322E+05
-0.22800000E+01  0.68742E+05
-0.22300000E+01  0.59517E+05
-0.21800001E+01  0.50835E+05
-0.21300001E+01  0.42772E+05
-0.20799999E+01  0.34593E+05
-0.20300000E+01  0.25579E+05
-0.19800000E+01  0.15847E+05
-0.19299999E+01  0.60110E+04
-0.18800000E+01 -0.30990E+04
-0.18300000E+01 -0.10929E+05
-0.17800000E+01 -0.17518E+05
-0.17300000E+01 -0.23916E+05
-0.16799999E+01 -0.31120E+05
-0.16300000E+01 -0.40018E+05
-0.15800000E+01 -0.50904E+05
-0.15300000E+01 -0.61717E+05
-0.14800000E+01 -0.69864E+05
-0.14299999E+01 -0.74023E+05
-0.13800000E+01 -0.73630E+05
-0.13300000E+01 -0.69462E+05
-0.12800000E+01 -0.64489E+05
-0.12300000E+01 -0.61763E+05
-0.11799999E+01 -0.62064E+05
-0.11300000E+01 -0.65029E+05
-0.10800000E+01 -0.70137E+05
-0.10300000E+01 -0.76106E+05
-0.98000002E+00 -0.80705E+05
-0.93000007E+00 -0.82194E+05
-0.87999988E+00 -0.80454E+05
-0.82999992E+00 -0.75647E+05
-0.77999997E+00 -0.67486E+05
-0.73000002E+00 -0.55399E+05
-0.68000007E+00 -0.39577E+05
-0.62999988E+00 -0.22304E+05
-0.57999992E+00 -0.62710E+04
-0.52999997E+00  0.70470E+04
-0.48000002E+00  0.16681E+05
-0.43000007E+00  0.23156E+05
-0.37999988E+00  0.28519E+05
-0.32999992E+00  0.33404E+05
-0.27999997E+00  0.37416E+05
-0.23000002E+00  0.40749E+05
-0.18000007E+00  0.42405E+05
-0.12999988E+00  0.39730E+05
-0.79999924E-01  0.31756E+05
-0.29999971E-01  0.19879E+05
 0.19999981E-01  0.62760E+04
 0.69999933E-01 -0.68150E+04
 0.12000012E+00 -0.18740E+05
 0.17000008E+00 -0.29001E+05
 0.22000003E+00 -0.36315E+05
 0.26999998E+00 -0.40646E+05
 0.31999993E+00 -0.43386E+05
 0.37000012E+00 -0.45794E+05
 0.42000008E+00 -0.47034E+05
 0.47000003E+00 -0.46473E+05
 0.51999998E+00 -0.45405E+05
 0.56999993E+00 -0.43885E+05
 0.62000012E+00 -0.41151E+05
 0.67000008E+00 -0.37708E+05
 0.72000003E+00 -0.34229E+05
 0.76999998E+00 -0.30082E+05
 0.81999993E+00 -0.23454E+05
 0.87000012E+00 -0.13101E+05
 0.92000008E+00  0.82800E+03
 0.97000003E+00  0.17470E+05
 0.10200000E+01  0.35027E+05
 0.10700002E+01  0.51107E+05
 0.11199999E+01  0.64227E+05
 0.11700001E+01  0.74473E+05
 0.12200003E+01  0.82832E+05
 0.12700000E+01  0.89570E+05
 0.13200002E+01  0.93445E+05
 0.13699999E+01  0.92981E+05
 0.14200001E+01  0.87673E+05
 0.14700003E+01  0.76965E+05
 0.15200000E+01  0.60761E+05
 0.15700002E+01  0.41081E+05
 0.16199999E+01  0.20437E+05
 0.16700001E+01  0.76300E+03
 0.17200003E+01 -0.15189E+05
 0.17700000E+01 -0.25466E+05
 0.18200002E+01 -0.31184E+05
 0.18699999E+01 -0.33665E+05
 0.19200001E+01 -0.33778E+05
 0.19700003E+01 -0.32384E+05
 0.20200000E+01 -0.28636E+05
 0.20700002E+01 -0.22679E+05
 0.21199999E+01 -0.16299E+05
 0.21700001E+01 -0.10609E+05
 0.22200003E+01 -0.68560E+04
 0.22700000E+01 -0.65630E+04
 0.23200002E+01 -0.98960E+04
 0.23699999E+01 -0.15269E+05
 0.24200001E+01 -0.21012E+05
 0.24700003E+01 -0.26638E+05
 0.25200000E+01 -0.30979E+05
 0.25700002E+01 -0.32052E+05
 0.26199999E+01 -0.29961E+05
 0.26700001E+01 -0.25568E+05
 0.27200003E+01 -0.19196E+05
 0.27700000E+01 -0.13115E+05
 0.28200002E+01 -0.10178E+05
 0.28699999E+01 -0.11274E+05
 0.29200001E+01 -0.15294E+05
 0.29700003E+01 -0.20679E+05
 0.30200000E+01 -0.27807E+05
 0.30700002E+01 -0.36233E+05
 0.31199999E+01 -0.44209E+05
 0.31700001E+01 -0.51311E+05
 0.32200003E+01 -0.56672E+05
 0.32700000E+01 -0.59681E+05
 0.33200002E+01 -0.59537E+05
 0.33699999E+01 -0.54837E+05
 0.34200001E+01 -0.46607E+05
 0.34700003E+01 -0.36824E+05
 0.35200000E+01 -0.26199E+05
 0.35700002E+01 -0.15357E+05
 0.36199999E+01 -0.50420E+04
 0.36700001E+01  0.53850E+04
 0.37200003E+01  0.16438E+05
 0.37700000E+01  0.26732E+05
 0.38200002E+01  0.35284E+05
 0.38699999E+01  0.41556E+05
 0.39200001E+01  0.44374E+05
 0.39700003E+01  0.44068E+05
 0.40200000E+01  0.42266E+05
 0.40700002E+01  0.40028E+05
 0.41199999E+01  0.38090E+05
 0.41700001E+01  0.36918E+05
 0.42200003E+01  0.36388E+05
 0.42700000E+01  0.36302E+05
 0.43200002E+01  0.36645E+05
 0.43699999E+01  0.36963E+05
 0.44200001E+01  0.36068E+05
 0.44700003E+01  0.33281E+05
 0.45200000E+01  0.29574E+05
 0.45700002E+01  0.26753E+05
 0.46199999E+01  0.25621E+05
 0.46700001E+01  0.24961E+05
 0.47200003E+01  0.23544E+05
 0.47700000E+01  0.21733E+05
 0.48200002E+01  0.20461E+05
 0.48699999E+01  0.21217E+05
 0.49200001E+01  0.25123E+05
 0.49700003E+01  0.31533E+05
 0.50200000E+01  0.39340E+05
 0.50700002E+01  0.47931E+05
 0.51200004E+01  0.55691E+05
 0.51700006E+01  0.60349E+05
 0.52199998E+01  0.62201E+05
 0.52700000E+01  0.63239E+05
 0.53200002E+01  0.64066E+05
 0.53700004E+01  0.64484E+05
 0.54200006E+01  0.64400E+05
 0.54699998E+01  0.62967E+05
 0.55200000E+01  0.58833E+05
 0.55700002E+01  0.52114E+05
 0.56200004E+01  0.43826E+05
 0.56700006E+01  0.34074E+05
 0.57199998E+01  0.23086E+05
 0.57700000E+01  0.11829E+05
 0.58200002E+01  0.77500E+03
 0.58700004E+01 -0.10346E+05
 0.59200006E+01 -0.20968E+05
 0.59699998E+01 -0.29668E+05
 0.60200000E+01 -0.36404E+05
 0.60700002E+01 -0.42323E+05
 0.61200004E+01 -0.47889E+05
 0.61700006E+01 -0.52346E+05
 0.62199998E+01 -0.54615E+05
 0.62700000E+01 -0.54331E+05
 0.63200002E+01 -0.51101E+05
 0.63700004E+01 -0.44927E+05
 0.64200006E+01 -0.37274E+05
 0.64699998E+01 -0.29919E+05
 0.65200000E+01 -0.23240E+05
 0.65700002E+01 -0.15703E+05
 0.66200004E+01 -0.64240E+04
 0.66700006E+01  0.33150E+04
 0.67199998E+01  0.12090E+05
 0.67700000E+01  0.19234E+05
 0.68200002E+01  0.24126E+05
 0.68700004E+01  0.27559E+05
 0.69200006E+01  0.31543E+05
 0.69699998E+01  0.36157E+05
 0.70200000E+01  0.40109E+05
 0.70700002E+01  0.42154E+05
 0.71200004E+01  0.41842E+05
 0.71700006E+01  0.38878E+05
 0.72199998E+01  0.32486E+05
 0.72700000E+01  0.23882E+05
 0.73200002E+01  0.14583E+05
 0.73700004E+01  0.52650E+04
 0.74200006E+01 -0.27900E+04
 0.74699998E+01 -0.89600E+04
 0.75200000E+01 -0.13219E+05
 0.75700002E+01 -0.15335E+05
 0.76200004E+01 -0.14649E+05
 0.76700006E+01 -0.11461E+05
 0.77199998E+01 -0.68950E+04
 0.77700000E+01 -0.74500E+03
 0.78200002E+01  0.73880E+04
 0.78700004E+01  0.16116E+05
 0.79200006E+01  0.22733E+05
 0.79699998E+01  0.26657E+05
 0.80200005E+01  0.28367E+05
 0.80699997E+01  0.27387E+05
 0.81200008E+01  0.24356E+05
 0.81700001E+01  0.19846E+05
 0.82199993E+01  0.13870E+05
 0.82700005E+01  0.69890E+04
 0.83199997E+01  0.78000E+02
 0.83700008E+01 -0.69070E+04
 0.84200001E+01 -0.14044E+05
 0.84699993E+01 -0.19720E+05
 0.85200005E+01 -0.22891E+05
 0.85699997E+01 -0.23344E+05
 0.86200008E+01 -0.20702E+05
 0.86700001E+01 -0.15500E+05
 0.87199993E+01 -0.82630E+04
 0.87700005E+01  0.62600E+03
 0.88199997E+01  0.97140E+04
 0.88700008E+01  0.17072E+05
 0.89200001E+01  0.22275E+05
 0.89699993E+01  0.26319E+05
 0.90200005E+01  0.28616E+05
 0.90699997E+01  0.28371E+05
 0.91200008E+01  0.26101E+05
 0.91700001E+01  0.21908E+05
 0.92199993E+01  0.15566E+05
 0.92700005E+01  0.77210E+04
 0.93199997E+01  0.51000E+02
 0.93700008E+01 -0.67380E+04
 0.94200001E+01 -0.12353E+05
 0.94699993E+01 -0.16287E+05
 0.95200005E+01 -0.19742E+05
 0.95699997E+01 -0.25249E+05
 0.96200008E+01 -0.33870E+05
 0.96700001E+01 -0.44241E+05
 0.97199993E+01 -0.55126E+05
 0.97700005E+01 -0.66037E+05
 0.98199997E+01 -0.76117E+05
 0.98700008E+01 -0.83859E+05
 0.99200001E+01 -0.88408E+05
 0.99699993E+01 -0.89808E+05
 0.10020000E+02 -0.87384E+05
 0.10070000E+02 -0.81036E+05
 0.10120001E+02 -0.71512E+05
 0.10170000E+02 -0.59842E+05
 0.10219999E+02 -0.48053E+05
 0.10270000E+02 -0.36866E+05
 0.10320000E+02 -0.24075E+05
 0.10370001E+02 -0.94870E+04
 0.10420000E+02  0.37990E+04
 0.10469999E+02  0.14374E+05
 0.10520000E+02  0.22201E+05
 0.10570000E+02  0.27051E+05
 0.10620001E+02  0.29801E+05
 0.10670000E+02  0.32148E+05
 0.10719999E+02  0.34602E+05
 0.10770000E+02  0.37070E+05
 0.10820000E+02  0.40316E+05
 0.10870001E+02  0.45000E+05
 0.10920000E+02  0.51172E+05
 0.10969999E+02  0.58060E+05
 0.11020000E+02  0.64260E+05
 0.11070000E+02  0.68674E+05
 0.11120001E+02  0.70920E+05
 0.11170000E+02  0.70550E+05
 0.11219999E+02  0.67248E+05
 0.11270000E+02  0.61644E+05
 0.11320000E+02  0.54666E+05
 0.11370001E+02  0.46584E+05
 0.11420000E+02  0.36686E+05
 0.11469999E+02  0.24513E+05
 0.11520000E+02  0.10312E+05
 0.11570000E+02 -0.50870E+04
 0.11620001E+02 -0.20128E+05
 0.11670000E+02 -0.33503E+05
 0.11719999E+02 -0.44701E+05
 0.11770000E+02 -0.53445E+05
 0.11820000E+02 -0.59175E+05
 0.11870001E+02 -0.62112E+05
 0.11920000E+02 -0.64184E+05
 0.11969999E+02 -0.67238E+05
 0.12020000E+02 -0.71563E+05
 0.12070000E+02 -0.76893E+05
 0.12120001E+02 -0.83096E+05
 0.12170000E+02 -0.89463E+05
 0.12219999E+02 -0.94944E+05
 0.12270000E+02 -0.98786E+05
 0.12320000E+02 -0.10012E+06
 0.12370001E+02 -0.98248E+05
 0.12420000E+02 -0.93006E+05
 0.12469999E+02 -0.84622E+05
 0.12520000E+02 -0.73904E+05
 0.12570000E+02 -0.61753E+05
 0.12620001E+02 -0.49107E+05
 0.12670000E+02 -0.36929E+05
 0.12719999E+02 -0.25095E+05
 0.12770000E+02 -0.12681E+05
 0.12820000E+02  0.64300E+03
 0.12870001E+02  0.15311E+05
 0.12920000E+02  0.32083E+05
 0.12969999E+02  0.50076E+05
 0.13020000E+02  0.67318E+05
 0.13070002E+02  0.81991E+05
 0.13120001E+02  0.93315E+05
 0.13170000E+02  0.10170E+06
 0.13220001E+02  0.10704E+06
 0.13270000E+02  0.10961E+06
 0.13320002E+02  0.10987E+06
 0.13370001E+02  0.10755E+06
 0.13420000E+02  0.10323E+06
 0.13470001E+02  0.97514E+05
 0.13520000E+02  0.90203E+05
 0.13570002E+02  0.81252E+05
 0.13620001E+02  0.68972E+05
 0.13670000E+02  0.54728E+05
 0.13720001E+02  0.41254E+05
 0.13770000E+02  0.31343E+05
 0.13820002E+02  0.27786E+05
 0.13870001E+02  0.38595E+05
 0.13920000E+02  0.76995E+05
 0.13970001E+02  0.16977E+06
 0.14020000E+02  0.32781E+06
 0.14070002E+02  0.49465E+06
 0.14120001E+02  0.55977E+06
 0.14170000E+02  0.42392E+06
 0.14220001E+02  0.76212E+05
 0.14270000E+02 -0.41943E+06
 0.14320002E+02 -0.86767E+06
 0.14370001E+02 -0.11677E+07
 0.14420000E+02 -0.13132E+07
 0.14470001E+02 -0.11690E+07
 0.14520000E+02 -0.56831E+06
 0.14570002E+02  0.32186E+06
 0.14620001E+02  0.92260E+06
 0.14670000E+02  0.11634E+07
 0.14720001E+02  0.11352E+07
 0.14770000E+02  0.85659E+06
 0.14820002E+02  0.53476E+06
 0.14870001E+02  0.48766E+06
 0.14920000E+02  0.77097E+06
 0.14970001E+02  0.45735E+06
 0.15020000E+02 -0.62018E+06
 0.15070002E+02 -0.15637E+07
 0.15120001E+02 -0.20702E+07
 0.15170000E+02 -0.29921E+07
 0.15220001E+02 -0.41675E+07
 0.15270000E+02 -0.37629E+07
 0.15320002E+02 -0.24701E+07
 0.15370001E+02 -0.27296E+07
 0.15420000E+02 -0.37410E+07
 0.15470001E+02 -0.26805E+07
 0.15520000E+02 -0.37745E+05
 0.15570002E+02  0.15134E+07
 0.15620001E+02  0.16650E+07
 0.15670000E+02  0.23521E+07
 0.15720001E+02  0.34337E+07
 0.15770000E+02  0.24869E+07
 0.15820002E+02  0.91534E+06
 0.15870001E+02  0.13489E+07
 0.15920000E+02  0.19826E+07
 0.15970001E+02  0.63368E+06
 0.16020000E+02 -0.67487E+06
 0.16070002E+02  0.10012E+06
 0.16120001E+02  0.41146E+06
 0.16170000E+02 -0.30360E+06
 0.16220001E+02 -0.32966E+06
 0.16270000E+02 -0.34984E+06
 0.16320002E+02 -0.51469E+06
 0.16370001E+02 -0.67469E+06
 0.16420000E+02  0.23444E+06
 0.16470001E+02  0.17542E+07
 0.16520000E+02  0.97652E+06
 0.16570002E+02 -0.14077E+07
 0.16620001E+02 -0.25387E+07
 0.16670000E+02 -0.18801E+07
 0.16720001E+02 -0.15842E+07
 0.16770000E+02 -0.22413E+07
 0.16820002E+02 -0.31931E+07
 0.16870001E+02 -0.41817E+07
 0.16920000E+02 -0.43541E+07
 0.16970001E+02 -0.40540E+07
 0.17020000E+02 -0.32501E+07
 0.17070002E+02 -0.23784E+07
 0.17120001E+02 -0.15903E+07
 0.17170000E+02 -0.58382E+06
 0.17220001E+02  0.30921E+06
 0.17270000E+02  0.16727E+07
 0.17320002E+02  0.33992E+07
 0.17370001E+02  0.48613E+07
 0.17420000E+02  0.49794E+07
 0.17470001E+02  0.40246E+07
 0.17520000E+02  0.30574E+07
 0.17570002E+02  0.16939E+07
 0.17620001E+02 -0.35004E+06
 0.17670000E+02 -0.14251E+07
 0.17720001E+02 -0.11278E+07
 0.17770000E+02 -0.23430E+07
 0.17820002E+02 -0.36984E+07
 0.17870001E+02 -0.20049E+07
 0.17920000E+02  0.16020E+06
 0.17970001E+02 -0.16109E+06
 0.18020000E+02 -0.23818E+06
 0.18070002E+02  0.13079E+07
 0.18120001E+02  0.14946E+07
 0.18170000E+02  0.41713E+06
 0.18220001E+02 -0.81700E+05
 0.18270000E+02 -0.42581E+06
 0.18320002E+02 -0.16523E+07
 0.18370001E+02 -0.22999E+07
 0.18420000E+02 -0.16289E+07
 0.18470001E+02 -0.11891E+07
 0.18520000E+02 -0.17880E+07
 0.18570002E+02 -0.30720E+07
 0.18620001E+02 -0.32907E+07
 0.18670000E+02 -0.19407E+07
 0.18720001E+02 -0.56946E+06
 0.18770000E+02  0.89181E+05
 0.18820002E+02  0.10637E+07
 0.18870001E+02  0.22252E+07
 0.18920000E+02  0.30190E+07
 0.18970001E+02  0.41914E+07
 0.19020000E+02  0.49314E+07
 0.19070002E+02  0.30240E+07
 0.19120001E+02 -0.77910E+06
 0.19170000E+02 -0.29807E+07
 0.19220001E+02 -0.36009E+07
 0.19270000E+02 -0.48820E+07
 0.19320002E+02 -0.61679E+07
 0.19370001E+02 -0.51754E+07
 0.19420000E+02 -0.32513E+07
 0.19470001E+02 -0.27263E+07
 0.19520000E+02 -0.15787E+07
 0.19570002E+02  0.77075E+06
 0.19620001E+02  0.19175E+07
 0.19670000E+02  0.13210E+07
 0.19720001E+02  0.10557E+07
 0.19770000E+02  0.13317E+07
 0.19820002E+02  0.49102E+06
 0.19870001E+02  0.40765E+06
 0.19920000E+02  0.94855E+06
 0.19970001E+02  0.11204E+07
 0.20020000E+02  0.24614E+07
 0.20070002E+02  0.26679E+07
 0.20120001E+02  0.17655E+07
 0.20170000E+02  0.13797E+07
 0.20220001E+02  0.41567E+06
 0.20270000E+02 -0.45864E+06
 0.20320002E+02 -0.43380E+06
 0.20370001E+02 -0.35439E+06
 0.20420000E+02 -0.10393E+07
 0.20470001E+02 -0.45019E+06
 0.20520000E+02  0.10816E+07
 0.20570002E+02  0.14310E+07
 0.20620001E+02  0.17525E+07
 0.20670000E+02  0.20297E+07
 0.20720001E+02  0.74996E+06
 0.20770000E+02 -0.12806E+07
 0.20820002E+02 -0.13850E+07
 0.20870001E+02 -0.50358E+06
 0.20920000E+02 -0.37600E+04
 0.20970001E+02 -0.28636E+05
 0.21020000E+02 -0.12365E+07
 0.21070002E+02 -0.11269E+07
 0.21120001E+02  0.38443E+06
 0.21170000E+02  0.14804E+07
 0.21220001E+02  0.30895E+07
 0.21270000E+02  0.47848E+07
 0.21320002E+02  0.41589E+07
 0.21370001E+02  0.14179E+07
 0.21420000E+02  0.46065E+05
 0.21470001E+02  0.73752E+06
 0.21520000E+02  0.10560E+07
 0.21570002E+02  0.25757E+06
 0.21620001E+02 -0.70956E+05
 0.21670000E+02 -0.29127E+06
 0.21720001E+02 -0.16018E+07
 0.21770000E+02 -0.17465E+07
 0.21820002E+02 -0.45812E+06
 0.21870001E+02  0.12931E+06
 0.21920000E+02  0.45187E+06
 0.21970001E+02  0.15389E+07
 0.22020000E+02  0.35482E+07
 0.22070002E+02  0.52055E+07
 0.22120001E+02  0.51982E+07
 0.22170000E+02  0.48001E+07
 0.22220001E+02  0.38878E+07
 0.22270000E+02  0.19137E+07
 0.22320002E+02  0.47222E+06
 0.22370001E+02  0.13555E+06
 0.22420000E+02  0.25932E+06
 0.22470001E+02 -0.48337E+06
 0.22520000E+02 -0.17072E+07
 0.22570002E+02 -0.24183E+07
 0.22620001E+02 -0.21289E+07
 0.22670000E+02 -0.77676E+06
 0.22720001E+02  0.34746E+06
 0.22770000E+02  0.15580E+07
 0.22820002E+02  0.25785E+07
 0.22870001E+02  0.26242E+07
 0.22920000E+02  0.24943E+07
 0.22970001E+02  0.24115E+07
 0.23020000E+02  0.21418E+07
 0.23070002E+02  0.22324E+07
 0.23120001E+02  0.24818E+07
 0.23170000E+02  0.14041E+07
 0.23220001E+02  0.74808E+06
 0.23270000E+02  0.20841E+07
 0.23320002E+02  0.22963E+07
 0.23370001E+02  0.19133E+06
 0.23420000E+02 -0.12232E+07
 0.23470001E+02 -0.90184E+06
 0.23520000E+02 -0.11389E+07
 0.23570002E+02 -0.18660E+07
 0.23620001E+02 -0.92010E+06
 0.23670000E+02 -0.62326E+06
 0.23720001E+02 -0.29182E+07
 0.23770000E+02 -0.47999E+07
 0.23820002E+02 -0.64456E+07
 0.23870001E+02 -0.88577E+07
 0.23920000E+02 -0.10674E+08
 0.23970001E+02 -0.11151E+08
 0.24020000E+02 -0.10583E+08
 0.24070002E+02 -0.94453E+07
 0.24120001E+02 -0.47118E+07
 0.24170000E+02 -0.68799E+06
 0.24220001E+02  0.42953E+07
 0.24270000E+02  0.12158E+08
 0.24320002E+02  0.16347E+08
 0.24370001E+02  0.26231E+08
 0.24420000E+02  0.30396E+08
 0.24470001E+02  0.21368E+08
 0.24520000E+02  0.12986E+08
 0.24570002E+02  0.29714E+07
 0.24620001E+02 -0.12165E+08
 0.24670000E+02 -0.20708E+08
 0.24720001E+02 -0.10544E+08
 0.24770000E+02 -0.51160E+07
 0.24820002E+02 -0.71266E+07
 0.24870001E+02 -0.17270E+07
 0.24920000E+02  0.25012E+07
 0.24970001E+02  0.74285E+07
 0.25020000E+02  0.14050E+08
 0.25070002E+02  0.19055E+08
 0.25120001E+02  0.21359E+08
 0.25170000E+02  0.23872E+08
 0.25220001E+02  0.26794E+08
 0.25270000E+02  0.29263E+08
 0.25320002E+02  0.31819E+08
 0.25370001E+02  0.29676E+08
 0.25420000E+02  0.22515E+08
 0.25470001E+02  0.10303E+08
 0.25520000E+02 -0.27618E+06
 0.25570002E+02 -0.62375E+07
 0.25620001E+02 -0.11602E+08
 0.25670000E+02 -0.46312E+07
 0.25720001E+02  0.54960E+07
 0.25770000E+02  0.24986E+07
 0.25820002E+02 -0.10676E+07
 0.25870001E+02 -0.24395E+07
 0.25920000E+02 -0.17027E+06
 0.25970001E+02  0.88677E+07
 0.26020000E+02  0.13255E+08
 0.26070002E+02  0.90783E+07
 0.26120001E+02  0.24799E+07
 0.26170000E+02  0.52868E+06
 0.26220001E+02  0.22577E+07
 0.26270000E+02  0.31253E+07
 0.26320002E+02  0.51151E+07
 0.26370001E+02  0.72478E+07
 0.26420000E+02  0.72560E+07
 0.26470001E+02  0.72296E+07
 0.26520000E+02  0.56907E+07
 0.26570002E+02 -0.69624E+06
 0.26620001E+02 -0.68725E+07
 0.26670000E+02 -0.55039E+07
 0.26720001E+02 -0.59173E+06
 0.26770000E+02  0.59156E+06
 0.26820002E+02  0.15213E+07
 0.26870001E+02  0.48216E+07
 0.26920000E+02  0.56079E+07
 0.26970001E+02  0.59229E+07
 0.27020000E+02  0.97848E+07
 0.27070002E+02  0.15204E+08
 0.27120001E+02  0.19108E+08
 0.27170000E+02  0.19818E+08
 0.27220001E+02  0.17504E+08
 0.27270000E+02  0.12662E+08
 0.27320002E+02  0.82057E+07
 0.27370001E+02  0.43792E+07
 0.27420000E+02 -0.12102E+06
 0.27470001E+02  0.35508E+05
 0.27520000E+02  0.61952E+07
 0.27570002E+02  0.12603E+08
 0.27620001E+02  0.17475E+08
 0.27670000E+02  0.21559E+08
 0.27720001E+02  0.22904E+08
 0.27770000E+02  0.20101E+08
 0.27820002E+02  0.15816E+08
 0.27870001E+02  0.12061E+08
 0.27920000E+02  0.86129E+07
 0.27970001E+02  0.77401E+07
 0.28020000E+02  0.99293E+07
 0.28070002E+02  0.12026E+08
 0.28120001E+02  0.11573E+08
 0.28170000E+02  0.79718E+07
 0.28220001E+02  0.29757E+07
 0.28270000E+02 -0.26558E+07
 0.28320002E+02 -0.99552E+07
 0.28370001E+02 -0.16017E+08
 0.28420000E+02 -0.18064E+08
 0.28470001E+02 -0.18403E+08
 0.28520000E+02 -0.17115E+08
 0.28570002E+02 -0.14383E+08
 0.28620001E+02 -0.12968E+08
 0.28670000E+02 -0.98351E+07
 0.28720001E+02 -0.22058E+07
 0.28770000E+02  0.57566E+07
 0.28820002E+02  0.10270E+08
 0.28870001E+02  0.12046E+08
 0.28920000E+02  0.13256E+08
 0.28970001E+02  0.14750E+08
 0.29020000E+02  0.16510E+08
 0.29070000E+02  0.17000E+08
 0.29120003E+02  0.14992E+08
 0.29170002E+02  0.12667E+08
 0.29220001E+02  0.11204E+08
 0.29270000E+02  0.90920E+07
 0.29320000E+02  0.58258E+07
 0.29370003E+02  0.74256E+06
 0.29420002E+02 -0.47071E+07
 0.29470001E+02 -0.67770E+07
 0.29520000E+02 -0.48193E+07
 0.29570000E+02 -0.51364E+06
 0.29620003E+02  0.34209E+07
 0.29670002E+02  0.60055E+07
 0.29720001E+02  0.87669E+07
 0.29770000E+02  0.12065E+08
 0.29820000E+02  0.13684E+08
 0.29870003E+02  0.12526E+08
 0.29920002E+02  0.10685E+08
 0.29970001E+02  0.77555E+07
 0.30020000E+02  0.32254E+07
 0.30070000E+02  0.34600E+06
 0.30120003E+02 -0.34462E+06
 0.30170002E+02 -0.12132E+07
 0.30220001E+02 -0.23808E+07
 0.30270000E+02 -0.28842E+07
 0.30320000E+02 -0.23759E+07
 0.30370003E+02  0.87976E+05
 0.30420002E+02  0.43916E+07
 0.30470001E+02  0.77695E+07
 0.30520000E+02  0.89030E+07
 0.30570000E+02  0.99339E+07
 0.30620003E+02  0.11262E+08
 0.30670002E+02  0.11787E+08
 0.30720001E+02  0.11047E+08
 0.30770000E+02  0.85074E+07
 0.30820000E+02  0.64681E+07
 0.30870003E+02  0.56976E+07
 0.30920002E+02  0.46702E+07
 0.30970001E+02  0.31972E+07
 0.31020000E+02  0.71365E+06
 0.31070000E+02 -0.15060E+07
 0.31120003E+02 -0.20437E+07
 0.31170002E+02 -0.12411E+07
 0.31220001E+02  0.45557E+05
 0.31270000E+02  0.39521E+06
 0.31320000E+02  0.61073E+05
 0.31370003E+02  0.40622E+06
 0.31420002E+02  0.69443E+06
 0.31470001E+02 -0.81017E+06
 0.31520000E+02 -0.29906E+07
 0.31570000E+02 -0.43206E+07
 0.31620003E+02 -0.56825E+07
 0.31670002E+02 -0.62681E+07
 0.31720001E+02 -0.43349E+07
 0.31770000E+02 -0.93733E+06
 0.31820000E+02  0.26722E+07
 0.31870003E+02  0.57244E+07
 0.31920002E+02  0.63858E+07
 0.31970001E+02  0.50821E+07
 0.32020000E+02  0.36944E+07
 0.32070000E+02  0.31004E+07
 0.32120003E+02  0.37240E+07
 0.32170002E+02  0.45599E+07
 0.32220001E+02  0.44627E+07
 0.32270000E+02  0.26454E+07
 0.32320000E+02 -0.75520E+04
 0.32370003E+02 -0.13467E+07
 0.32420002E+02 -0.12867E+07
 0.32470001E+02 -0.75952E+06
 0.32520000E+02 -0.13483E+07
 0.32570000E+02 -0.32585E+07
 0.32620003E+02 -0.43156E+07
 0.32670002E+02 -0.31960E+07
 0.32720001E+02  0.15489E+06
 0.32770000E+02  0.34913E+07
 0.32820000E+02  0.51082E+07
 0.32870003E+02  0.54764E+07
 0.32920002E+02  0.40527E+07
 0.32970001E+02  0.19534E+07
 0.33020000E+02  0.65610E+06
 0.33070000E+02 -0.69921E+06
 0.33120003E+02 -0.21831E+07
 0.33170002E+02 -0.32165E+07
 0.33220001E+02 -0.37189E+07
 0.33270000E+02 -0.36977E+07
 0.33320000E+02 -0.29696E+07
 0.33370003E+02 -0.89055E+06
 0.33420002E+02  0.13523E+07
 0.33470001E+02  0.20095E+07
 0.33520000E+02  0.21148E+07
 0.33570000E+02  0.25937E+07
 0.33620003E+02  0.20312E+07
 0.33670002E+02  0.28307E+06
 0.33720001E+02  0.54261E+06
 0.33770000E+02  0.26697E+07
 0.33820000E+02  0.41386E+07
 0.33870003E+02  0.55874E+07
 0.33920002E+02  0.55329E+07
 0.33970001E+02  0.31017E+07
 0.34020000E+02  0.73216E+06
 0.34070000E+02 -0.97231E+06
 0.34120003E+02 -0.14725E+07
 0.34170002E+02 -0.67198E+06
 0.34220001E+02 -0.33070E+06
 0.34270000E+02 -0.75040E+06
 0.34320000E+02 -0.26327E+06
 0.34370003E+02  0.17300E+07
 0.34420002E+02  0.38336E+07
 0.34470001E+02  0.50226E+07
 0.34520000E+02  0.52567E+07
 0.34570000E+02  0.48856E+07
 0.34620003E+02  0.41578E+07
 0.34670002E+02  0.35515E+07
 0.34720001E+02  0.38875E+07
 0.34770000E+02  0.47834E+07
 0.34820000E+02  0.52311E+07
 0.34870003E+02  0.44633E+07
 0.34920002E+02  0.22095E+07
 0.34970001E+02 -0.59806E+06
 0.35020000E+02 -0.23903E+07
 0.35070000E+02 -0.25447E+07
 0.35120003E+02 -0.27412E+07
 0.35170002E+02 -0.45605E+07
 0.35220001E+02 -0.54408E+07
 0.35270000E+02 -0.29109E+07
 0.35320000E+02  0.10736E+07
 0.35370003E+02  0.46470E+07
 0.35420002E+02  0.75926E+07
 0.35470001E+02  0.98293E+07
 0.35520000E+02  0.11688E+08
 0.35570000E+02  0.13808E+08
 0.35620003E+02  0.15775E+08
 0.35670002E+02  0.16284E+08
 0.35720001E+02  0.14976E+08
 0.35770000E+02  0.11504E+08
 0.35820000E+02  0.70526E+07
 0.35870003E+02  0.39693E+07
 0.35920002E+02  0.15691E+07
 0.35970001E+02 -0.57077E+06
 0.36020000E+02 -0.11254E+07
 0.36070000E+02 -0.89746E+06
 0.36120003E+02 -0.78092E+06
 0.36170002E+02 -0.29054E+06
 0.36220001E+02 -0.33240E+06
 0.36270000E+02 -0.15599E+07
 0.36320000E+02 -0.25342E+07
 0.36370003E+02 -0.25274E+07
 0.36420002E+02 -0.22262E+07
 0.36470001E+02 -0.19524E+07
 0.36520000E+02 -0.12000E+07
 0.36570000E+02 -0.40119E+06
 0.36620003E+02 -0.52685E+06
 0.36670002E+02 -0.35874E+06
 0.36720001E+02  0.55497E+06
 0.36770000E+02  0.77055E+06
 0.36820000E+02  0.34790E+06
 0.36870003E+02  0.15318E+06
 0.36920002E+02  0.70323E+06
 0.36970001E+02  0.18388E+07
 0.37020000E+02  0.29214E+07
 0.37070000E+02  0.33732E+07
 0.37120003E+02  0.34192E+07
 0.37170002E+02  0.40103E+07
 0.37220001E+02  0.45719E+07
 0.37270000E+02  0.45852E+07
 0.37320000E+02  0.45538E+07
 0.37370003E+02  0.46169E+07
 0.37420002E+02  0.48091E+07
 0.37470001E+02  0.46444E+07
 0.37520000E+02  0.43110E+07
 0.37570000E+02  0.39405E+07
 0.37620003E+02  0.24143E+07
 0.37670002E+02  0.34644E+06
 0.37720001E+02 -0.82513E+06
 0.37770000E+02 -0.11808E+07
 0.37820000E+02 -0.12411E+07
 0.37870003E+02 -0.14546E+07
 0.37920002E+02 -0.17572E+07
 0.37970001E+02 -0.20536E+07
 0.38020000E+02 -0.23704E+07
 0.38070000E+02 -0.25517E+07
 0.38120003E+02 -0.25204E+07
 0.38170002E+02 -0.16776E+07
 0.38220001E+02 -0.62307E+05
 0.38270000E+02  0.12829E+07
 0.38320000E+02  0.16538E+07
 0.38370003E+02  0.16851E+07
 0.38420002E+02  0.22857E+07
 0.38470001E+02  0.28360E+07
 0.38520000E+02  0.29348E+07
 0.38570000E+02  0.28528E+07
 0.38620003E+02  0.28598E+07
 0.38670002E+02  0.32050E+07
 0.38720001E+02  0.32046E+07
 0.38770000E+02  0.28170E+07
 0.38820000E+02  0.27441E+07
 0.38870003E+02  0.27042E+07
 0.38920002E+02  0.28291E+07
 0.38970001E+02  0.33221E+07
 0.39020000E+02  0.34415E+07
 0.39070000E+02  0.25502E+07
 0.39120003E+02  0.86195E+06
 0.39170002E+02 -0.13129E+06
 0.39220001E+02 -0.53263E+05
 0.39270000E+02 -0.31454E+06
 0.39320000E+02 -0.79641E+06
 0.39370003E+02 -0.45561E+06
 0.39420002E+02  0.30562E+06
 0.39470001E+02  0.64587E+06
 0.39520000E+02  0.61021E+06
 0.39570000E+02  0.51979E+06
 0.39620003E+02  0.15194E+06
 0.39670002E+02  0.93843E+05
 0.39720001E+02  0.12715E+07
 0.39770000E+02  0.29318E+07
 0.39820000E+02  0.41551E+07
 0.39870003E+02  0.50604E+07
 0.39920002E+02  0.61220E+07
 0.39970001E+02  0.74437E+07
 0.40020000E+02  0.83749E+07
 0.40070000E+02  0.82247E+07
 0.40120003E+02  0.72341E+07
 0.40170002E+02  0.56518E+07
 0.40220001E+02  0.34238E+07
 0.40270000E+02  0.16024E+07
 0.40320000E+02  0.71489E+06
 0.40370003E+02  0.33448E+06
 0.40420002E+02  0.63857E+06
 0.40470001E+02  0.12580E+07
 0.40520000E+02  0.11545E+07
 0.40570000E+02  0.20248E+06
 0.40620003E+02 -0.29053E+06
 0.40670002E+02 -0.17139E+05
 0.40720001E+02 -0.32074E+06
 0.40770000E+02 -0.10569E+07
 0.40820000E+02 -0.13134E+07
 0.40870003E+02 -0.12877E+07
 0.40920002E+02 -0.15058E+07
 0.40970001E+02 -0.19993E+07
 0.41020000E+02 -0.21616E+07
 0.41070000E+02 -0.17085E+07
 0.41120003E+02 -0.10704E+07
 0.41170002E+02 -0.41243E+06
 0.41220001E+02  0.57675E+06
 0.41270000E+02  0.16841E+07
 0.41320000E+02  0.23488E+07
 0.41370003E+02  0.25605E+07
 0.41420002E+02  0.25905E+07
 0.41470001E+02  0.23490E+07
 0.41520000E+02  0.15299E+07
 0.41570000E+02  0.23536E+06
 0.41620003E+02 -0.11386E+07
 0.41670002E+02 -0.21929E+07
 0.41720001E+02 -0.29979E+07
 0.41770000E+02 -0.38287E+07
 0.41820000E+02 -0.41630E+07
 0.41870003E+02 -0.37897E+07
 0.41920002E+02 -0.32708E+07
 0.41970001E+02 -0.28440E+07
 0.42020000E+02 -0.26479E+07
 0.42070000E+02 -0.26600E+07
 0.42120003E+02 -0.23725E+07
 0.42170002E+02 -0.15322E+07
 0.42220001E+02 -0.51144E+06
 0.42270000E+02  0.29919E+06
 0.42320000E+02  0.11074E+07
 0.42370003E+02  0.23359E+07
 0.42420002E+02  0.36390E+07
 0.42470001E+02  0.45736E+07
 0.42520000E+02  0.53582E+07
 0.42570000E+02  0.57517E+07
 0.42620003E+02  0.51675E+07
 0.42670002E+02  0.37417E+07
 0.42720001E+02  0.21286E+07
 0.42770000E+02  0.49785E+06
 0.42820000E+02 -0.14851E+07
 0.42870003E+02 -0.33411E+07
 0.42920002E+02 -0.43517E+07
 0.42970001E+02 -0.47965E+07
 0.43020000E+02 -0.44968E+07
 0.43070000E+02 -0.32917E+07
 0.43120003E+02 -0.21284E+07
 0.43170002E+02 -0.10541E+07
 0.43220001E+02  0.33167E+06
 0.43270000E+02  0.17530E+07
 0.43320000E+02  0.27921E+07
 0.43370003E+02  0.32518E+07
 0.43420002E+02  0.31205E+07
 0.43470001E+02  0.23160E+07
 0.43520000E+02  0.14547E+07
 0.43570000E+02  0.88820E+06
 0.43620003E+02  0.93570E+05
 0.43670002E+02 -0.81431E+06
 0.43720001E+02 -0.13712E+07
 0.43770000E+02 -0.14846E+07
 0.43820000E+02 -0.10693E+07
 0.43870003E+02 -0.18486E+06
 0.43920002E+02  0.61877E+06
 0.43970001E+02  0.13581E+07
 0.44020000E+02  0.21954E+07
 0.44070000E+02  0.24833E+07
 0.44120003E+02  0.21929E+07
 0.44170002E+02  0.17109E+07
 0.44220001E+02  0.87192E+06
 0.44270000E+02 -0.36947E+06
 0.44320000E+02 -0.14024E+07
 0.44370003E+02 -0.20153E+07
 0.44420002E+02 -0.26791E+07
 0.44470001E+02 -0.30342E+07
 0.44520000E+02 -0.27799E+07
 0.44570000E+02 -0.25744E+07
 0.44620003E+02 -0.26495E+07
 0.44670002E+02 -0.26861E+07
 0.44720001E+02 -0.24765E+07
 0.44770000E+02 -0.21705E+07
 0.44820000E+02 -0.18424E+07
 0.44870003E+02 -0.14503E+07
 0.44920002E+02 -0.14436E+07
 0.44970001E+02 -0.15691E+07
 0.45020000E+02 -0.10004E+07
 0.45070000E+02  0.17905E+06
 0.45120003E+02  0.14870E+07
 0.45170002E+02  0.25479E+07
 0.45220001E+02  0.30810E+07
 0.45270000E+02  0.31377E+07
 0.45320000E+02  0.32410E+07
 0.45370003E+02  0.36582E+07
 0.45420002E+02  0.40236E+07
 0.45470001E+02  0.36998E+07
 0.45520000E+02  0.24323E+07
 0.45570000E+02  0.10777E+07
 0.45620003E+02  0.35513E+06
 0.45670002E+02  0.12330E+06
 0.45720001E+02  0.19047E+06
 0.45770000E+02  0.10388E+06
 0.45820000E+02 -0.65327E+06
 0.45870003E+02 -0.16999E+07
 0.45920002E+02 -0.23269E+07
 0.45970001E+02 -0.24866E+07
 0.46020000E+02 -0.24406E+07
 0.46070000E+02 -0.23539E+07
 0.46120003E+02 -0.22255E+07
 0.46170002E+02 -0.19511E+07
 0.46220001E+02 -0.14626E+07
 0.46270000E+02 -0.92534E+06
 0.46320000E+02 -0.77382E+06
 0.46370003E+02 -0.11639E+07
 0.46420002E+02 -0.16508E+07
 0.46470001E+02 -0.17513E+07
 0.46520000E+02 -0.16360E+07
 0.46570000E+02 -0.17808E+07
 0.46620003E+02 -0.21590E+07
 0.46670002E+02 -0.22163E+07
 0.46720001E+02 -0.18424E+07
 0.46770000E+02 -0.13272E+07
 0.46820000E+02 -0.60272E+06
 0.46870003E+02  0.13220E+06
 0.46920002E+02  0.61126E+06
 0.46970001E+02  0.10827E+07
 0.47020000E+02  0.13654E+07
 0.47070000E+02  0.10797E+07
 0.47120003E+02  0.71107E+06
 0.47170002E+02  0.65320E+06
 0.47220001E+02  0.80170E+06
 0.47270000E+02  0.12993E+07
 0.47320000E+02  0.20409E+07
 0.47370003E+02  0.25665E+07
 0.47420002E+02  0.28033E+07
 0.47470001E+02  0.30657E+07
 0.47520000E+02  0.33922E+07
 0.47570000E+02  0.36254E+07
 0.47620003E+02  0.37153E+07
 0.47670002E+02  0.34470E+07
 0.47720001E+02  0.28537E+07
 0.47770000E+02  0.21639E+07
 0.47820000E+02  0.14538E+07
 0.47870003E+02  0.98206E+06
 0.47920002E+02  0.49915E+06
 0.47970001E+02 -0.41483E+06
 0.48020000E+02 -0.12017E+07
 0.48070000E+02 -0.14688E+07
 0.48120003E+02 -0.15396E+07
 0.48170002E+02 -0.16148E+07
 0.48220001E+02 -0.16823E+07
 0.48270000E+02 -0.17746E+07
 0.48320000E+02 -0.19353E+07
 0.48370003E+02 -0.18845E+07
 0.48420002E+02 -0.15356E+07
 0.48470001E+02 -0.11540E+07
 0.48520000E+02 -0.74119E+06
 0.48570000E+02 -0.38933E+06
 0.48620003E+02 -0.24543E+06
 0.48670002E+02 -0.15198E+06
 0.48720001E+02 -0.86282E+05
 0.48770000E+02 -0.21352E+06
 0.48820000E+02 -0.48888E+06
 0.48870003E+02 -0.64968E+06
 0.48920002E+02 -0.47202E+06
 0.48970001E+02 -0.28850E+05
 0.49020000E+02  0.35222E+06
 0.49070000E+02  0.27307E+06
 0.49120003E+02 -0.35178E+06
 0.49170002E+02 -0.88399E+06
 0.49220001E+02 -0.80790E+06
 0.49270000E+02 -0.43431E+06
 0.49320000E+02 -0.29004E+06
 0.49370003E+02 -0.60552E+06
 0.49420002E+02 -0.12059E+07
 0.49470001E+02 -0.18546E+07
 0.49520000E+02 -0.23507E+07
 0.49570000E+02 -0.23739E+07
 0.49620003E+02 -0.19819E+07
 0.49670002E+02 -0.15779E+07
 0.49720001E+02 -0.13087E+07
 0.49770000E+02 -0.10675E+07
 0.49820000E+02 -0.79321E+06
 0.49870003E+02 -0.67148E+06
 0.49920002E+02 -0.86756E+06
 0.49970001E+02 -0.11691E+07
 0.50020000E+02 -0.12263E+07
 0.50070000E+02 -0.98782E+06
 0.50120003E+02 -0.46845E+06
 0.50170002E+02  0.48427E+06
 0.50220001E+02  0.15182E+07
 0.50270000E+02  0.21028E+07
 0.50320000E+02  0.22080E+07
 0.50370003E+02  0.18617E+07
 0.50420002E+02  0.10781E+07
 0.50470001E+02  0.14346E+06
 0.50520000E+02 -0.64579E+06
 0.50570000E+02 -0.14600E+07
 0.50620003E+02 -0.23617E+07
 0.50670002E+02 -0.28479E+07
 0.50720001E+02 -0.27826E+07
 0.50770000E+02 -0.25121E+07
 0.50820000E+02 -0.21329E+07
 0.50870003E+02 -0.15411E+07
 0.50920002E+02 -0.62044E+06
 0.50970001E+02  0.49542E+06
 0.51020000E+02  0.14694E+07
 0.51070000E+02  0.21993E+07
 0.51120003E+02  0.24247E+07
 0.51170002E+02  0.19906E+07
 0.51220001E+02  0.14414E+07
 0.51270000E+02  0.11414E+07
 0.51320000E+02  0.86108E+06
 0.51370003E+02  0.47192E+06
 0.51420002E+02  0.11460E+06
 0.51470001E+02 -0.26454E+06
 0.51520000E+02 -0.70163E+06
 0.51570000E+02 -0.79067E+06
 0.51620003E+02 -0.50721E+06
 0.51670002E+02 -0.48818E+06
 0.51720001E+02 -0.76648E+06
 0.51770000E+02 -0.74014E+06
 0.51820000E+02 -0.50104E+06
 0.51870003E+02 -0.52165E+06
 0.51920002E+02 -0.70235E+06
 0.51970001E+02 -0.79019E+06
 0.52020000E+02 -0.88598E+06
 0.52070000E+02 -0.11307E+07
 0.52120003E+02 -0.13476E+07
 0.52170002E+02 -0.16063E+07
 0.52220001E+02 -0.21823E+07
 0.52270000E+02 -0.28302E+07
 0.52320000E+02 -0.32194E+07
 0.52370003E+02 -0.33486E+07
 0.52420002E+02 -0.32386E+07
 0.52470001E+02 -0.29516E+07
 0.52520000E+02 -0.27090E+07
 0.52570000E+02 -0.24076E+07
 0.52620003E+02 -0.18831E+07
 0.52670002E+02 -0.15077E+07
 0.52720001E+02 -0.13365E+07
 0.52770000E+02 -0.10312E+07
 0.52820000E+02 -0.56009E+06
 0.52870003E+02 -0.55328E+05
 0.52920002E+02  0.35118E+06
 0.52970001E+02  0.57373E+06
 0.53020000E+02  0.56159E+06
 0.53070000E+02  0.48204E+06
 0.53120003E+02  0.44306E+06
 0.53170002E+02  0.40028E+06
 0.53220001E+02  0.36690E+06
 0.53270000E+02  0.15036E+06
 0.53320000E+02 -0.35061E+06
 0.53370003E+02 -0.10494E+07
 0.53420002E+02 -0.17443E+07
 0.53470001E+02 -0.23334E+07
 0.53520000E+02 -0.29366E+07
 0.53570000E+02 -0.33362E+07
 0.53620003E+02 -0.32797E+07
 0.53670002E+02 -0.29162E+07
 0.53720001E+02 -0.24922E+07
 0.53770000E+02 -0.20224E+07
 0.53820000E+02 -0.15110E+07
 0.53870003E+02 -0.12204E+07
 0.53920002E+02 -0.10603E+07
 0.53970001E+02 -0.70217E+06
 0.54020000E+02 -0.16516E+06
 0.54070000E+02  0.34191E+06
 0.54120003E+02  0.69946E+06
 0.54170002E+02  0.10070E+07
 0.54220001E+02  0.12716E+07
 0.54270000E+02  0.15227E+07
 0.54320000E+02  0.18152E+07
 0.54370003E+02  0.19034E+07
 0.54420002E+02  0.16673E+07
 0.54470001E+02  0.12689E+07
 0.54520000E+02  0.93874E+06
 0.54570000E+02  0.76685E+06
 0.54620003E+02  0.52207E+06
 0.54670002E+02 -0.15043E+05
 0.54720001E+02 -0.69899E+06
 0.54770000E+02 -0.13356E+07
 0.54820000E+02 -0.18982E+07
 0.54870003E+02 -0.23811E+07
 0.54920002E+02 -0.28395E+07
 0.54970001E+02 -0.33575E+07
 0.55020000E+02 -0.38578E+07
 0.55070000E+02 -0.40673E+07
 0.55120003E+02 -0.38841E+07
 0.55170002E+02 -0.36126E+07
 0.55220001E+02 -0.35244E+07
 0.55270000E+02 -0.35370E+07
 0.55320000E+02 -0.34905E+07
 0.55370003E+02 -0.33341E+07
 0.55420002E+02 -0.30596E+07
 0.55470001E+02 -0.27885E+07
 0.55520000E+02 -0.26577E+07
 0.55570000E+02 -0.25940E+07
 0.55620003E+02 -0.25843E+07
 0.55670002E+02 -0.25687E+07
 0.55720001E+02 -0.22434E+07
 0.55770000E+02 -0.15790E+07
 0.55820000E+02 -0.86736E+06
 0.55870003E+02 -0.23586E+06
 0.55920002E+02  0.31480E+06
 0.55970001E+02  0.61446E+06
 0.56020000E+02  0.64100E+06
 0.56070000E+02  0.67903E+06
 0.56120003E+02  0.79049E+06
 0.56170002E+02  0.79094E+06
 0.56220001E+02  0.74904E+06
 0.56270000E+02  0.83290E+06
 0.56320000E+02  0.89009E+06
 0.56370003E+02  0.83670E+06
 0.56420002E+02  0.81324E+06
 0.56470001E+02  0.74916E+06
 0.56520000E+02  0.58556E+06
 0.56570000E+02  0.50669E+06
 0.56620003E+02  0.54629E+06
 0.56670002E+02  0.42502E+06
 0.56720001E+02  0.93046E+05
 0.56770000E+02 -0.59967E+05
 0.56820000E+02  0.17787E+05
 0.56870003E+02 -0.32853E+05
 0.56920002E+02 -0.29837E+06
 0.56970001E+02 -0.64096E+06
 0.57020000E+02 -0.97530E+06
 0.57070000E+02 -0.12037E+07
 0.57120003E+02 -0.12530E+07
 0.57170002E+02 -0.12095E+07
 0.57220001E+02 -0.12001E+07
 0.57270000E+02 -0.12633E+07
 0.57320000E+02 -0.13171E+07
 0.57370003E+02 -0.13367E+07
 0.57420002E+02 -0.14802E+07
 0.57470001E+02 -0.17445E+07
 0.57520000E+02 -0.20012E+07
 0.57570000E+02 -0.22378E+07
 0.57620003E+02 -0.23073E+07
 0.57670002E+02 -0.18716E+07
 0.57720001E+02 -0.10348E+07
 0.57770000E+02 -0.40925E+06
 0.57820000E+02 -0.12630E+06
 0.57870003E+02  0.19482E+06
 0.57920002E+02  0.68176E+06
 0.57970001E+02  0.12395E+07
 0.58020000E+02  0.17359E+07
 0.58070000E+02  0.20211E+07
 0.58120003E+02  0.20450E+07
 0.58170002E+02  0.18987E+07
 0.58220001E+02  0.17445E+07
 0.58270000E+02  0.16323E+07
 0.58320000E+02  0.15298E+07
 0.58370003E+02  0.13597E+07
 0.58420002E+02  0.10051E+07
 0.58470001E+02  0.50939E+06
 0.58520000E+02 -0.79503E+05
 0.58570000E+02 -0.81064E+06
 0.58620003E+02 -0.15139E+07
 0.58670002E+02 -0.19650E+07
 0.58720001E+02 -0.22491E+07
 0.58770000E+02 -0.24709E+07
 0.58820000E+02 -0.25362E+07
 0.58870003E+02 -0.24323E+07
 0.58920002E+02 -0.22701E+07
 0.58970001E+02 -0.21109E+07
 0.59020000E+02 -0.19872E+07
 0.59070000E+02 -0.19000E+07
 0.59120003E+02 -0.18719E+07
 0.59170002E+02 -0.19331E+07
 0.59220001E+02 -0.19832E+07
 0.59270000E+02 -0.20112E+07
 0.59320000E+02 -0.20448E+07
 0.59370003E+02 -0.19297E+07
 0.59420002E+02 -0.17199E+07
 0.59470001E+02 -0.16553E+07
 0.59520000E+02 -0.17056E+07
 0.59570000E+02 -0.17808E+07
 0.59620003E+02 -0.18859E+07
 0.59670002E+02 -0.18767E+07
 0.59720001E+02 -0.16630E+07
 0.59770000E+02 -0.13685E+07
 0.59820000E+02 -0.10807E+07
 0.59870003E+02 -0.84154E+06
 0.59920002E+02 -0.67410E+06
 0.59970001E+02 -0.53423E+06
 0.60020000E+02 -0.46963E+06
 0.60070000E+02 -0.62640E+06
 0.60120003E+02 -0.10209E+07
 0.60170002E+02 -0.15079E+07
 0.60220001E+02 -0.19479E+07
 0.60270000E+02 -0.22664E+07
 0.60320000E+02 -0.24798E+07
 0.60370003E+02 -0.26445E+07
 0.60420002E+02 -0.26543E+07
 0.60470001E+02 -0.23069E+07
 0.60520000E+02 -0.15406E+07
 0.60570000E+02 -0.47399E+06
 0.60620003E+02  0.66074E+06
 0.60670002E+02  0.15519E+07
 0.60720001E+02  0.19283E+07
 0.60770000E+02  0.17750E+07
 0.60820000E+02  0.12620E+07
 0.60870003E+02  0.48246E+06
 0.60920002E+02 -0.51116E+06
 0.60970001E+02 -0.14641E+07
 0.61020000E+02 -0.21344E+07
 0.61070004E+02 -0.25145E+07
 0.61119999E+02 -0.25782E+07
 0.61170002E+02 -0.23074E+07
 0.61220005E+02 -0.18574E+07
 0.61270000E+02 -0.13783E+07
 0.61320004E+02 -0.87028E+06
 0.61369999E+02 -0.31907E+06
 0.61420002E+02  0.16227E+06
 0.61470005E+02  0.34183E+06
 0.61520000E+02  0.18586E+06
 0.61570004E+02 -0.72264E+05
 0.61619999E+02 -0.34785E+06
 0.61670002E+02 -0.67764E+06
 0.61720005E+02 -0.10529E+07
 0.61770000E+02 -0.14656E+07
 0.61820004E+02 -0.18242E+07
 0.61869999E+02 -0.19626E+07
 0.61920002E+02 -0.18566E+07
 0.61970005E+02 -0.16739E+07
 0.62020000E+02 -0.15457E+07
 0.62070004E+02 -0.14633E+07
 0.62119999E+02 -0.13614E+07
 0.62170002E+02 -0.12803E+07
 0.62220005E+02 -0.12860E+07
 0.62270000E+02 -0.12800E+07
 0.62320004E+02 -0.12571E+07
 0.62369999E+02 -0.13635E+07
 0.62420002E+02 -0.15817E+07
 0.62470005E+02 -0.17572E+07
 0.62520000E+02 -0.18933E+07
 0.62570004E+02 -0.20664E+07
 0.62619999E+02 -0.22042E+07
 0.62670002E+02 -0.22720E+07
 0.62720005E+02 -0.22752E+07
 0.62770000E+02 -0.22101E+07
 0.62820004E+02 -0.21598E+07
 0.62869999E+02 -0.20930E+07
 0.62920002E+02 -0.18734E+07
 0.62970005E+02 -0.15458E+07
 0.63020000E+02 -0.11907E+07
 0.63070004E+02 -0.75833E+06
 0.63119999E+02 -0.31196E+06
 0.63170002E+02  0.24267E+05
 0.63220005E+02  0.26390E+06
 0.63270000E+02  0.39485E+06
 0.63320004E+02  0.31844E+06
 0.63369999E+02  0.15180E+05
 0.63420002E+02 -0.44702E+06
 0.63470005E+02 -0.98680E+06
 0.63520000E+02 -0.14573E+07
 0.63570004E+02 -0.17575E+07
 0.63619999E+02 -0.19001E+07
 0.63670002E+02 -0.18865E+07
 0.63720005E+02 -0.17775E+07
 0.63770000E+02 -0.16281E+07
 0.63820004E+02 -0.14346E+07
 0.63869999E+02 -0.12566E+07
 0.63920002E+02 -0.11030E+07
 0.63970005E+02 -0.90022E+06
 0.64019997E+02 -0.67261E+06
 0.64070000E+02 -0.46327E+06
 0.64119995E+02 -0.25290E+06
 0.64169998E+02 -0.14626E+06
 0.64220001E+02 -0.20464E+06
 0.64269997E+02 -0.32949E+06
 0.64320000E+02 -0.52032E+06
 0.64369995E+02 -0.78732E+06
 0.64419998E+02 -0.99078E+06
 0.64470001E+02 -0.10479E+07
 0.64519997E+02 -0.10455E+07
 0.64570000E+02 -0.10564E+07
 0.64619995E+02 -0.10275E+07
 0.64669998E+02 -0.90993E+06
 0.64720001E+02 -0.75733E+06
 0.64769997E+02 -0.65566E+06
 0.64820000E+02 -0.73543E+06
 0.64869995E+02 -0.96700E+06
 0.64919998E+02 -0.11113E+07
 0.64970001E+02 -0.11620E+07
 0.65019997E+02 -0.12345E+07
 0.65070000E+02 -0.12824E+07
 0.65119995E+02 -0.12836E+07
 0.65169998E+02 -0.13204E+07
 0.65220001E+02 -0.13867E+07
 0.65269997E+02 -0.13932E+07
 0.65320000E+02 -0.14195E+07
 0.65369995E+02 -0.15340E+07
 0.65419998E+02 -0.16193E+07
 0.65470001E+02 -0.16514E+07
 0.65519997E+02 -0.16523E+07
 0.65570000E+02 -0.16023E+07
 0.65619995E+02 -0.15743E+07
 0.65669998E+02 -0.15359E+07
 0.65720001E+02 -0.14016E+07
 0.65769997E+02 -0.12601E+07
 0.65820000E+02 -0.11385E+07
 0.65869995E+02 -0.10012E+07
 0.65919998E+02 -0.90563E+06
 0.65970001E+02 -0.83321E+06
 0.66019997E+02 -0.71727E+06
 0.66070000E+02 -0.62313E+06
 0.66119995E+02 -0.58042E+06
 0.66169998E+02 -0.52809E+06
 0.66220001E+02 -0.47624E+06
 0.66269997E+02 -0.37951E+06
 0.66320000E+02 -0.17769E+06
 0.66369995E+02  0.69978E+05
 0.66419998E+02  0.33664E+06
 0.66470001E+02  0.57800E+06
 0.66519997E+02  0.59986E+06
 0.66570000E+02  0.23185E+06
 0.66619995E+02 -0.48978E+06
 0.66669998E+02 -0.13796E+07
 0.66720001E+02 -0.21808E+07
 0.66769997E+02 -0.26232E+07
 0.66820000E+02 -0.25942E+07
 0.66869995E+02 -0.22396E+07
 0.66919998E+02 -0.17928E+07
 0.66970001E+02 -0.13475E+07
 0.67019997E+02 -0.93534E+06
 0.67070000E+02 -0.68401E+06
 0.67119995E+02 -0.72156E+06
 0.67169998E+02 -0.98471E+06
 0.67220001E+02 -0.13312E+07
 0.67269997E+02 -0.17186E+07
 0.67320000E+02 -0.19745E+07
 0.67369995E+02 -0.19035E+07
 0.67419998E+02 -0.16454E+07
 0.67470001E+02 -0.14171E+07
 0.67519997E+02 -0.12699E+07
 0.67570000E+02 -0.11791E+07
 0.67619995E+02 -0.11067E+07
 0.67669998E+02 -0.10220E+07
 0.67720001E+02 -0.92276E+06
 0.67769997E+02 -0.87994E+06
 0.67820000E+02 -0.88543E+06
 0.67869995E+02 -0.80611E+06
 0.67919998E+02 -0.65861E+06
 0.67970001E+02 -0.55613E+06
 0.68019997E+02 -0.45321E+06
 0.68070000E+02 -0.31544E+06
 0.68119995E+02 -0.22842E+06
 0.68169998E+02 -0.25967E+06
 0.68220001E+02 -0.44948E+06
 0.68269997E+02 -0.75542E+06
 0.68320000E+02 -0.10510E+07
 0.68369995E+02 -0.12298E+07
 0.68419998E+02 -0.12665E+07
 0.68470001E+02 -0.12742E+07
 0.68519997E+02 -0.13781E+07
 0.68570000E+02 -0.14657E+07
 0.68619995E+02 -0.14281E+07
 0.68669998E+02 -0.14413E+07
 0.68720001E+02 -0.16059E+07
 0.68769997E+02 -0.17877E+07
 0.68820000E+02 -0.18621E+07
 0.68869995E+02 -0.17712E+07
 0.68919998E+02 -0.15313E+07
 0.68970001E+02 -0.12499E+07
 0.69019997E+02 -0.98012E+06
 0.69070000E+02 -0.68926E+06
 0.69119995E+02 -0.38346E+06
 0.69169998E+02 -0.11703E+06
 0.69220001E+02  0.81209E+05
 0.69269997E+02  0.21958E+06
 0.69320000E+02  0.28723E+06
 0.69369995E+02  0.29732E+06
 0.69419998E+02  0.30045E+06
 0.69470001E+02  0.34509E+06
 0.69519997E+02  0.43142E+06
 0.69570000E+02  0.44198E+06
 0.69619995E+02  0.24558E+06
 0.69669998E+02 -0.15669E+06
 0.69720001E+02 -0.65069E+06
 0.69769997E+02 -0.11389E+07
 0.69820000E+02 -0.15247E+07
 0.69869995E+02 -0.17423E+07
 0.69919998E+02 -0.18430E+07
 0.69970001E+02 -0.18877E+07
 0.70019997E+02 -0.19355E+07
 0.70070000E+02 -0.20143E+07
 0.70119995E+02 -0.20806E+07
 0.70169998E+02 -0.21398E+07
 0.70220001E+02 -0.22219E+07
 0.70269997E+02 -0.22734E+07
 0.70320000E+02 -0.22187E+07
 0.70369995E+02 -0.20509E+07
 0.70419998E+02 -0.17984E+07
 0.70470001E+02 -0.14839E+07
 0.70519997E+02 -0.11839E+07
 0.70570000E+02 -0.93119E+06
 0.70619995E+02 -0.66944E+06
 0.70669998E+02 -0.42889E+06
 0.70720001E+02 -0.26422E+06
 0.70769997E+02 -0.22094E+06
 0.70820000E+02 -0.35093E+06
 0.70869995E+02 -0.60537E+06
 0.70919998E+02 -0.87497E+06
 0.70970001E+02 -0.10827E+07
 0.71019997E+02 -0.12137E+07
 0.71070000E+02 -0.12649E+07
 0.71119995E+02 -0.12547E+07
 0.71169998E+02 -0.12403E+07
 0.71220001E+02 -0.12487E+07
 0.71269997E+02 -0.12793E+07
 0.71320000E+02 -0.13241E+07
 0.71369995E+02 -0.13917E+07
 0.71419998E+02 -0.15078E+07
 0.71470001E+02 -0.17143E+07
 0.71519997E+02 -0.20761E+07
 0.71570000E+02 -0.25554E+07
 0.71619995E+02 -0.30526E+07
 0.71669998E+02 -0.35456E+07
 0.71720001E+02 -0.39371E+07
 0.71769997E+02 -0.40917E+07
 0.71820000E+02 -0.39999E+07
 0.71869995E+02 -0.36782E+07
 0.71919998E+02 -0.31758E+07
 0.71970001E+02 -0.26067E+07
 0.72019997E+02 -0.20319E+07
 0.72070000E+02 -0.14530E+07
 0.72119995E+02 -0.86856E+06
 0.72169998E+02 -0.29146E+06
 0.72220001E+02  0.23476E+06
 0.72269997E+02  0.65552E+06
 0.72320000E+02  0.92707E+06
 0.72369995E+02  0.10625E+07
 0.72419998E+02  0.10756E+07
 0.72470001E+02  0.93609E+06
 0.72519997E+02  0.68205E+06
 0.72570000E+02  0.42408E+06
 0.72619995E+02  0.22996E+06
 0.72669998E+02  0.44330E+05
 0.72720001E+02 -0.17310E+06
 0.72769997E+02 -0.32672E+06
 0.72820000E+02 -0.35263E+06
 0.72869995E+02 -0.26275E+06
 0.72919998E+02 -0.74036E+05
 0.72970001E+02  0.10080E+06
 0.73019997E+02  0.10598E+06
 0.73070000E+02 -0.96944E+05
 0.73119995E+02 -0.46018E+06
 0.73169998E+02 -0.89672E+06
 0.73220001E+02 -0.13089E+07
 0.73269997E+02 -0.16698E+07
 0.73320000E+02 -0.19913E+07
 0.73369995E+02 -0.22431E+07
 0.73419998E+02 -0.23522E+07
 0.73470001E+02 -0.22571E+07
 0.73519997E+02 -0.20160E+07
 0.73570000E+02 -0.17890E+07
 0.73619995E+02 -0.16395E+07
 0.73669998E+02 -0.15389E+07
 0.73720001E+02 -0.15042E+07
 0.73769997E+02 -0.15021E+07
 0.73820000E+02 -0.14693E+07
 0.73869995E+02 -0.14899E+07
 0.73919998E+02 -0.16469E+07
 0.73970001E+02 -0.18288E+07
 0.74019997E+02 -0.19002E+07
 0.74070000E+02 -0.18674E+07
 0.74119995E+02 -0.17877E+07
 0.74169998E+02 -0.17142E+07
 0.74220001E+02 -0.16698E+07
 0.74269997E+02 -0.15704E+07
 0.74320000E+02 -0.13434E+07
 0.74369995E+02 -0.10750E+07
 0.74419998E+02 -0.88591E+06
 0.74470001E+02 -0.82896E+06
 0.74519997E+02 -0.91287E+06
 0.74570000E+02 -0.10473E+07
 0.74619995E+02 -0.10946E+07
 0.74669998E+02 -0.10390E+07
 0.74720001E+02 -0.95775E+06
 0.74769997E+02 -0.84613E+06
 0.74820000E+02 -0.68552E+06
 0.74869995E+02 -0.54460E+06
 0.74919998E+02 -0.45326E+06
 0.74970001E+02 -0.41907E+06
 0.75019997E+02 -0.47597E+06
 0.75070000E+02 -0.63045E+06
 0.75119995E+02 -0.85227E+06
 0.75169998E+02 -0.11036E+07
 0.75220001E+02 -0.13458E+07
 0.75269997E+02 -0.15105E+07
 0.75320000E+02 -0.15858E+07
 0.75369995E+02 -0.16016E+07
 0.75419998E+02 -0.15387E+07
 0.75470001E+02 -0.13727E+07
 0.75519997E+02 -0.10869E+07
 0.75570000E+02 -0.72483E+06
 0.75619995E+02 -0.36393E+06
 0.75669998E+02 -0.22430E+04
 0.75720001E+02  0.36319E+06
 0.75769997E+02  0.63396E+06
 0.75820000E+02  0.73494E+06
 0.75869995E+02  0.73077E+06
 0.75919998E+02  0.65867E+06
 0.75970001E+02  0.53841E+06
 0.76019997E+02  0.48286E+06
 0.76070000E+02  0.48200E+06
 0.76119995E+02  0.43833E+06
 0.76169998E+02  0.37442E+06
 0.76220001E+02  0.32244E+06
 0.76269997E+02  0.25385E+06
 0.76320000E+02  0.17834E+06
 0.76369995E+02  0.13279E+06
 0.76419998E+02  0.72278E+05
 0.76470001E+02 -0.86540E+05
 0.76519997E+02 -0.36620E+06
 0.76570000E+02 -0.76518E+06
 0.76619995E+02 -0.12461E+07
 0.76669998E+02 -0.16975E+07
 0.76720001E+02 -0.20226E+07
 0.76769997E+02 -0.21867E+07
 0.76820000E+02 -0.21804E+07
 0.76869995E+02 -0.20378E+07
 0.76919998E+02 -0.18469E+07
 0.76970001E+02 -0.16539E+07
 0.77019997E+02 -0.14444E+07
 0.77070000E+02 -0.12522E+07
 0.77119995E+02 -0.11279E+07
 0.77169998E+02 -0.10460E+07
 0.77220001E+02 -0.97157E+06
 0.77269997E+02 -0.91492E+06
 0.77320000E+02 -0.87988E+06
 0.77369995E+02 -0.88069E+06
 0.77419998E+02 -0.95608E+06
 0.77470001E+02 -0.10428E+07
 0.77519997E+02 -0.10593E+07
 0.77570000E+02 -0.10837E+07
 0.77619995E+02 -0.11473E+07
 0.77669998E+02 -0.11726E+07
 0.77720001E+02 -0.11906E+07
 0.77769997E+02 -0.12195E+07
 0.77820000E+02 -0.11691E+07
 0.77869995E+02 -0.10436E+07
 0.77919998E+02 -0.91968E+06
 0.77970001E+02 -0.82846E+06
 0.78019997E+02 -0.78452E+06
 0.78070000E+02 -0.76995E+06
 0.78119995E+02 -0.76687E+06
 0.78169998E+02 -0.79357E+06
 0.78220001E+02 -0.86027E+06
 0.78269997E+02 -0.97105E+06
 0.78320000E+02 -0.11154E+07
 0.78369995E+02 -0.12525E+07
 0.78419998E+02 -0.13610E+07
 0.78470001E+02 -0.14828E+07
 0.78519997E+02 -0.16390E+07
 0.78570000E+02 -0.17726E+07
 0.78619995E+02 -0.18341E+07
 0.78669998E+02 -0.17971E+07
 0.78720001E+02 -0.16495E+07
 0.78769997E+02 -0.14165E+07
 0.78820000E+02 -0.11492E+07
 0.78869995E+02 -0.90907E+06
 0.78919998E+02 -0.70464E+06
 0.78970001E+02 -0.52892E+06
 0.79019997E+02 -0.43059E+06
 0.79070000E+02 -0.42736E+06
 0.79119995E+02 -0.47611E+06
 0.79169998E+02 -0.56083E+06
 0.79220001E+02 -0.66769E+06
 0.79269997E+02 -0.73249E+06
 0.79320000E+02 -0.75871E+06
 0.79369995E+02 -0.79547E+06
 0.79419998E+02 -0.81269E+06
 0.79470001E+02 -0.75714E+06
 0.79519997E+02 -0.59990E+06
 0.79570000E+02 -0.37294E+06
 0.79619995E+02 -0.17310E+06
 0.79669998E+02 -0.57022E+05
 0.79720001E+02 -0.11412E+05
 0.79769997E+02 -0.14786E+05
 0.79820000E+02 -0.94573E+05
 0.79869995E+02 -0.27844E+06
 0.79919998E+02 -0.51577E+06
 0.79970001E+02 -0.74409E+06
 0.80019997E+02 -0.93445E+06
 0.80070000E+02 -0.10996E+07
 0.80119995E+02 -0.12883E+07
 0.80169998E+02 -0.14866E+07
 0.80220001E+02 -0.16260E+07
 0.80269997E+02 -0.16890E+07
 0.80320000E+02 -0.16973E+07
 0.80369995E+02 -0.16444E+07
 0.80419998E+02 -0.15248E+07
 0.80470001E+02 -0.13624E+07
 0.80519997E+02 -0.11760E+07
 0.80570000E+02 -0.97972E+06
 0.80619995E+02 -0.81585E+06
 0.80669998E+02 -0.71274E+06
 0.80720001E+02 -0.65675E+06
 0.80769997E+02 -0.64520E+06
 0.80820000E+02 -0.64893E+06
 0.80869995E+02 -0.61649E+06
 0.80919998E+02 -0.55823E+06
 0.80970001E+02 -0.51537E+06
 0.81019997E+02 -0.50665E+06
 0.81070000E+02 -0.53244E+06
 0.81119995E+02 -0.61286E+06
 0.81169998E+02 -0.77337E+06
 0.81220001E+02 -0.99898E+06
 0.81269997E+02 -0.12316E+07
 0.81320000E+02 -0.14078E+07
 0.81369995E+02 -0.15048E+07
 0.81419998E+02 -0.15223E+07
 0.81470001E+02 -0.14811E+07
 0.81519997E+02 -0.14145E+07
 0.81570000E+02 -0.13194E+07
 0.81619995E+02 -0.11953E+07
 0.81669998E+02 -0.10908E+07
 0.81720001E+02 -0.10287E+07
 0.81769997E+02 -0.99922E+06
 0.81820000E+02 -0.10295E+07
 0.81869995E+02 -0.11254E+07
 0.81919998E+02 -0.12515E+07
 0.81970001E+02 -0.14076E+07
 0.82019997E+02 -0.16080E+07
 0.82070000E+02 -0.17920E+07
 0.82119995E+02 -0.18669E+07
 0.82169998E+02 -0.18212E+07
 0.82220001E+02 -0.16788E+07
 0.82269997E+02 -0.14615E+07
 0.82320000E+02 -0.12275E+07
 0.82369995E+02 -0.10117E+07
 0.82419998E+02 -0.80345E+06
 0.82470001E+02 -0.58667E+06
 0.82519997E+02 -0.36649E+06
 0.82570000E+02 -0.16294E+06
 0.82619995E+02  0.32243E+05
 0.82669998E+02  0.19505E+06
 0.82720001E+02  0.28449E+06
 0.82769997E+02  0.31630E+06
 0.82820000E+02  0.28634E+06
 0.82869995E+02  0.18384E+06
 0.82919998E+02  0.30268E+05
 0.82970001E+02 -0.16822E+06
 0.83019997E+02 -0.40681E+06
 0.83070000E+02 -0.66885E+06
 0.83119995E+02 -0.94808E+06
 0.83169998E+02 -0.12451E+07
 0.83220001E+02 -0.15405E+07
 0.83269997E+02 -0.17992E+07
 0.83320000E+02 -0.19880E+07
 0.83369995E+02 -0.20785E+07
 0.83419998E+02 -0.20672E+07
 0.83470001E+02 -0.20013E+07
 0.83519997E+02 -0.19251E+07
 0.83570000E+02 -0.18288E+07
 0.83619995E+02 -0.17077E+07
 0.83669998E+02 -0.15813E+07
 0.83720001E+02 -0.14707E+07
 0.83769997E+02 -0.13687E+07
 0.83820000E+02 -0.12451E+07
 0.83869995E+02 -0.10979E+07
 0.83919998E+02 -0.93984E+06
 0.83970001E+02 -0.78330E+06
 0.84019997E+02 -0.61592E+06
 0.84070000E+02 -0.41684E+06
 0.84119995E+02 -0.21040E+06
 0.84169998E+02 -0.24256E+05
 0.84220001E+02  0.11284E+06
 0.84269997E+02  0.16777E+06
 0.84320000E+02  0.16834E+06
 0.84369995E+02  0.15203E+06
 0.84419998E+02  0.74644E+05
 0.84470001E+02 -0.10560E+06
 0.84519997E+02 -0.34498E+06
 0.84570000E+02 -0.58510E+06
 0.84619995E+02 -0.78663E+06
 0.84669998E+02 -0.91139E+06
 0.84720001E+02 -0.96840E+06
 0.84769997E+02 -0.97410E+06
 0.84820000E+02 -0.88634E+06
 0.84869995E+02 -0.70069E+06
 0.84919998E+02 -0.49275E+06
 0.84970001E+02 -0.36355E+06
 0.85019997E+02 -0.38301E+06
 0.85070000E+02 -0.51208E+06
 0.85119995E+02 -0.65107E+06
 0.85169998E+02 -0.74332E+06
 0.85220001E+02 -0.76353E+06
 0.85269997E+02 -0.70275E+06
 0.85320000E+02 -0.59190E+06
 0.85369995E+02 -0.48426E+06
 0.85419998E+02 -0.42269E+06
 0.85470001E+02 -0.42383E+06
 0.85519997E+02 -0.47126E+06
 0.85570000E+02 -0.55992E+06
 0.85619995E+02 -0.69754E+06
 0.85669998E+02 -0.83352E+06
 0.85720001E+02 -0.92088E+06
 0.85769997E+02 -0.95494E+06
 0.85820000E+02 -0.94294E+06
 0.85869995E+02 -0.92930E+06
 0.85919998E+02 -0.95774E+06
 0.85970001E+02 -0.10271E+07
 0.86019997E+02 -0.10876E+07
 0.86070000E+02 -0.10989E+07
 0.86119995E+02 -0.10434E+07
 0.86169998E+02 -0.90103E+06
 0.86220001E+02 -0.70946E+06
 0.86269997E+02 -0.51624E+06
 0.86320000E+02 -0.31417E+06
 0.86369995E+02 -0.13167E+06
 0.86419998E+02 -0.28006E+05
 0.86470001E+02 -0.15734E+05
 0.86519997E+02 -0.10142E+06
 0.86570000E+02 -0.25125E+06
 0.86619995E+02 -0.37818E+06
 0.86669998E+02 -0.45378E+06
 0.86720001E+02 -0.47298E+06
 0.86769997E+02 -0.41618E+06
 0.86820000E+02 -0.31956E+06
 0.86869995E+02 -0.24115E+06
 0.86919998E+02 -0.21417E+06
 0.86970001E+02 -0.26189E+06
 0.87019997E+02 -0.37073E+06
 0.87070000E+02 -0.46518E+06
 0.87119995E+02 -0.47398E+06
 0.87169998E+02 -0.41115E+06
 0.87220001E+02 -0.32732E+06
 0.87269997E+02 -0.25318E+06
 0.87320000E+02 -0.20778E+06
 0.87369995E+02 -0.17947E+06
 0.87419998E+02 -0.15059E+06
 0.87470001E+02 -0.14212E+06
 0.87519997E+02 -0.18926E+06
 0.87570000E+02 -0.30108E+06
 0.87619995E+02 -0.44948E+06
 0.87669998E+02 -0.58758E+06
 0.87720001E+02 -0.69770E+06
 0.87769997E+02 -0.79643E+06
 0.87820000E+02 -0.88208E+06
 0.87869995E+02 -0.93352E+06
 0.87919998E+02 -0.93824E+06
 0.87970001E+02 -0.90792E+06
 0.88019997E+02 -0.87387E+06
 0.88070000E+02 -0.86206E+06
 0.88119995E+02 -0.89215E+06
 0.88169998E+02 -0.95540E+06
 0.88220001E+02 -0.10224E+07
 0.88269997E+02 -0.10793E+07
 0.88320000E+02 -0.11188E+07
 0.88369995E+02 -0.11496E+07
 0.88419998E+02 -0.11753E+07
 0.88470001E+02 -0.11750E+07
 0.88519997E+02 -0.11351E+07
 0.88570000E+02 -0.10477E+07
 0.88619995E+02 -0.93706E+06
 0.88669998E+02 -0.87161E+06
 0.88720001E+02 -0.88715E+06
 0.88769997E+02 -0.98036E+06
 0.88820000E+02 -0.11286E+07
 0.88869995E+02 -0.12773E+07
 0.88919998E+02 -0.13802E+07
 0.88970001E+02 -0.14354E+07
 0.89019997E+02 -0.14600E+07
 0.89070000E+02 -0.14503E+07
 0.89119995E+02 -0.13929E+07
 0.89169998E+02 -0.12964E+07
 0.89220001E+02 -0.11861E+07
 0.89269997E+02 -0.10696E+07
 0.89320000E+02 -0.94880E+06
 0.89369995E+02 -0.84852E+06
 0.89419998E+02 -0.77108E+06
 0.89470001E+02 -0.68868E+06
 0.89519997E+02 -0.59065E+06
 0.89570000E+02 -0.48435E+06
 0.89619995E+02 -0.37574E+06
 0.89669998E+02 -0.24345E+06
 0.89720001E+02 -0.60252E+05
 0.89769997E+02  0.14403E+06
 0.89820000E+02  0.29962E+06
 0.89869995E+02  0.34930E+06
 0.89919998E+02  0.30148E+06
 0.89970001E+02  0.23181E+06
 0.90019997E+02  0.17759E+06
 0.90070000E+02  0.13077E+06
 0.90119995E+02  0.92346E+05
 0.90169998E+02  0.50000E+05
 0.90220001E+02 -0.13793E+05
 0.90269997E+02 -0.88296E+05
 0.90320000E+02 -0.15978E+06
 0.90369995E+02 -0.26826E+06
 0.90419998E+02 -0.44601E+06
 0.90470001E+02 -0.63746E+06
 0.90519997E+02 -0.78061E+06
 0.90570000E+02 -0.86643E+06
 0.90619995E+02 -0.91023E+06
 0.90669998E+02 -0.93718E+06
 0.90720001E+02 -0.96386E+06
 0.90769997E+02 -0.97400E+06
 0.90820000E+02 -0.94166E+06
 0.90869995E+02 -0.86968E+06
 0.90919998E+02 -0.77007E+06
 0.90970001E+02 -0.65813E+06
 0.91019997E+02 -0.56112E+06
 0.91070000E+02 -0.48590E+06
 0.91119995E+02 -0.42173E+06
 0.91169998E+02 -0.37169E+06
 0.91220001E+02 -0.33559E+06
 0.91269997E+02 -0.30887E+06
 0.91320000E+02 -0.30376E+06
 0.91369995E+02 -0.32266E+06
 0.91419998E+02 -0.34901E+06
 0.91470001E+02 -0.36398E+06
 0.91519997E+02 -0.36148E+06
 0.91570000E+02 -0.35388E+06
 0.91619995E+02 -0.35842E+06
 0.91669998E+02 -0.39334E+06
 0.91720001E+02 -0.47251E+06
 0.91769997E+02 -0.60182E+06
 0.91820000E+02 -0.79461E+06
 0.91869995E+02 -0.10625E+07
 0.91919998E+02 -0.13603E+07
 0.91970001E+02 -0.16087E+07
 0.92019997E+02 -0.17714E+07
 0.92070000E+02 -0.18455E+07
 0.92119995E+02 -0.18462E+07
 0.92169998E+02 -0.17872E+07
 0.92220001E+02 -0.16763E+07
 0.92269997E+02 -0.15531E+07
 0.92320000E+02 -0.14352E+07
 0.92369995E+02 -0.12957E+07
 0.92419998E+02 -0.11343E+07
 0.92470001E+02 -0.97081E+06
 0.92519997E+02 -0.82438E+06
 0.92570000E+02 -0.71815E+06
 0.92619995E+02 -0.64619E+06
 0.92669998E+02 -0.59353E+06
 0.92720001E+02 -0.57101E+06
 0.92769997E+02 -0.58054E+06
 0.92820000E+02 -0.58655E+06
 0.92869995E+02 -0.54434E+06
 0.92919998E+02 -0.45286E+06
 0.92970001E+02 -0.35462E+06
 0.93019997E+02 -0.29406E+06
 0.93070000E+02 -0.29471E+06
 0.93119995E+02 -0.35660E+06
 0.93169998E+02 -0.46492E+06
 0.93220001E+02 -0.58232E+06
 0.93269997E+02 -0.66618E+06
 0.93320000E+02 -0.70864E+06
 0.93369995E+02 -0.71508E+06
 0.93419998E+02 -0.68624E+06
 0.93470001E+02 -0.62914E+06
 0.93519997E+02 -0.56212E+06
 0.93570000E+02 -0.51597E+06
 0.93619995E+02 -0.48859E+06
 0.93669998E+02 -0.46105E+06
 0.93720001E+02 -0.45556E+06
 0.93769997E+02 -0.47546E+06
 0.93820000E+02 -0.49477E+06
 0.93869995E+02 -0.52545E+06
 0.93919998E+02 -0.58396E+06
 0.93970001E+02 -0.63985E+06
 0.94019997E+02 -0.66407E+06
 0.94070000E+02 -0.67566E+06
 0.94119995E+02 -0.68762E+06
 0.94169998E+02 -0.69101E+06
 0.94220001E+02 -0.68591E+06
 0.94269997E+02 -0.66209E+06
 0.94320000E+02 -0.60493E+06
 0.94369995E+02 -0.51458E+06
 0.94419998E+02 -0.39542E+06
 0.94470001E+02 -0.25039E+06
 0.94519997E+02 -0.10530E+06
 0.94570000E+02 -0.98150E+04
 0.94619995E+02  0.19200E+05
 0.94669998E+02 -0.17500E+04
 0.94720001E+02 -0.65250E+05
 0.94769997E+02 -0.15642E+06
 0.94820000E+02 -0.25488E+06
 0.94869995E+02 -0.35885E+06
 0.94919998E+02 -0.47590E+06
 0.94970001E+02 -0.60293E+06
 0.95019997E+02 -0.70478E+06
 0.95070000E+02 -0.74241E+06
 0.95119995E+02 -0.70468E+06
 0.95169998E+02 -0.61312E+06
 0.95220001E+02 -0.52349E+06
 0.95269997E+02 -0.47600E+06
 0.95320000E+02 -0.47133E+06
 0.95369995E+02 -0.49636E+06
 0.95419998E+02 -0.53190E+06
 0.95470001E+02 -0.55645E+06
 0.95519997E+02 -0.54876E+06
 0.95570000E+02 -0.50438E+06
 0.95619995E+02 -0.46117E+06
 0.95669998E+02 -0.45688E+06
 0.95720001E+02 -0.48486E+06
 0.95769997E+02 -0.52926E+06
 0.95820000E+02 -0.57841E+06
 0.95869995E+02 -0.62645E+06
 0.95919998E+02 -0.67836E+06
 0.95970001E+02 -0.72595E+06
 0.96019997E+02 -0.75596E+06
 0.96070000E+02 -0.76354E+06
 0.96119995E+02 -0.74663E+06
 0.96169998E+02 -0.70887E+06
 0.96220001E+02 -0.66064E+06
 0.96269997E+02 -0.60932E+06
 0.96320000E+02 -0.55924E+06
 0.96369995E+02 -0.51061E+06
 0.96419998E+02 -0.45127E+06
 0.96470001E+02 -0.38188E+06
 0.96519997E+02 -0.31005E+06
 0.96570000E+02 -0.22472E+06
 0.96619995E+02 -0.14062E+06
 0.96669998E+02 -0.88482E+05
 0.96720001E+02 -0.61046E+05
 0.96769997E+02 -0.43400E+05
 0.96820000E+02 -0.26808E+05
 0.96869995E+02  0.39290E+04
 0.96919998E+02  0.41037E+05
 0.96970001E+02  0.57481E+05
 0.97019997E+02  0.48374E+05
 0.97070000E+02  0.32530E+05
 0.97119995E+02  0.24548E+05
 0.97169998E+02  0.40290E+05
 0.97220001E+02  0.92057E+05
 0.97269997E+02  0.16846E+06
 0.97320000E+02  0.25548E+06
 0.97369995E+02  0.32680E+06
 0.97419998E+02  0.35777E+06
 0.97470001E+02  0.36423E+06
 0.97519997E+02  0.35737E+06
 0.97570000E+02  0.32191E+06
 0.97619995E+02  0.24475E+06
 0.97669998E+02  0.13204E+06
 0.97720001E+02  0.38250E+04
 0.97769997E+02 -0.12438E+06
 0.97820000E+02 -0.24450E+06
 0.97869995E+02 -0.35830E+06
 0.97919998E+02 -0.46771E+06
 0.97970001E+02 -0.56718E+06
 0.98019997E+02 -0.65970E+06
 0.98070000E+02 -0.74853E+06
 0.98119995E+02 -0.82114E+06
 0.98169998E+02 -0.86631E+06
 0.98220001E+02 -0.88327E+06
 0.98269997E+02 -0.87013E+06
 0.98320000E+02 -0.83354E+06
 0.98369995E+02 -0.79012E+06
 0.98419998E+02 -0.74528E+06
 0.98470001E+02 -0.69238E+06
 0.98519997E+02 -0.63074E+06
 0.98570000E+02 -0.58093E+06
 0.98619995E+02 -0.56790E+06
 0.98669998E+02 -0.58881E+06
 0.98720001E+02 -0.60998E+06
 0.98769997E+02 -0.60738E+06
 0.98820000E+02 -0.60816E+06
 0.98869995E+02 -0.64495E+06
 0.98919998E+02 -0.69835E+06
 0.98970001E+02 -0.73822E+06
 0.99019997E+02 -0.75250E+06
 0.99070000E+02 -0.73748E+06
 0.99119995E+02 -0.70720E+06
 0.99169998E+02 -0.67210E+06
 0.99220001E+02 -0.62550E+06
 0.99269997E+02 -0.56535E+06
 0.99320000E+02 -0.49849E+06
 0.99369995E+02 -0.42744E+06
 0.99419998E+02 -0.36265E+06
 0.99470001E+02 -0.32906E+06
 0.99519997E+02 -0.32957E+06
 0.99570000E+02 -0.34325E+06
 0.99619995E+02 -0.35903E+06
 0.99669998E+02 -0.37409E+06
 0.99720001E+02 -0.38880E+06
 0.99769997E+02 -0.42310E+06
 0.99820000E+02 -0.49202E+06
 0.99869995E+02 -0.57700E+06
 0.99919998E+02 -0.65484E+06
 0.99970001E+02 -0.72135E+06
 0.10002000E+03 -0.76963E+06
 0.10007000E+03 -0.79049E+06
 0.10012000E+03 -0.79733E+06
 0.10017000E+03 -0.79976E+06
 0.10022000E+03 -0.79090E+06
 0.10027000E+03 -0.76691E+06
 0.10032000E+03 -0.72151E+06
 0.10037000E+03 -0.65515E+06
 0.10042000E+03 -0.59496E+06
 0.10047000E+03 -0.57076E+06
 0.10052000E+03 -0.57841E+06
 0.10057000E+03 -0.59307E+06
 0.10062000E+03 -0.58321E+06
 0.10067000E+03 -0.52408E+06
 0.10072000E+03 -0.43751E+06
 0.10077000E+03 -0.36952E+06
 0.10082000E+03 -0.31866E+06
 0.10087000E+03 -0.25438E+06
 0.10092000E+03 -0.18199E+06
 0.10097000E+03 -0.11916E+06
 0.10102000E+03 -0.72946E+05
 0.10107000E+03 -0.52634E+05
 0.10112000E+03 -0.50006E+05
 0.10117000E+03 -0.33265E+05
 0.10122000E+03  0.11249E+05
 0.10127000E+03  0.57105E+05
 0.10132000E+03  0.88456E+05
 0.10137000E+03  0.11701E+06
 0.10142000E+03  0.14948E+06
 0.10147000E+03  0.17568E+06
 0.10152000E+03  0.16000E+06
 0.10157000E+03  0.79448E+05
 0.10162000E+03 -0.34715E+05
 0.10167000E+03 -0.15212E+06
 0.10172000E+03 -0.27530E+06
 0.10177000E+03 -0.40772E+06
 0.10182000E+03 -0.56079E+06
 0.10187000E+03 -0.74020E+06
 0.10192000E+03 -0.92297E+06
 0.10197000E+03 -0.10906E+07
 0.10202000E+03 -0.12342E+07
 0.10207000E+03 -0.13299E+07
 0.10212000E+03 -0.13514E+07
 0.10217000E+03 -0.12923E+07
 0.10222000E+03 -0.11691E+07
 0.10227000E+03 -0.10073E+07
 0.10232000E+03 -0.82439E+06
 0.10237000E+03 -0.62695E+06
 0.10242000E+03 -0.41681E+06
 0.10247000E+03 -0.20423E+06
 0.10252000E+03 -0.36910E+04
 0.10257000E+03  0.17469E+06
 0.10262000E+03  0.31005E+06
 0.10267000E+03  0.38225E+06
 0.10272000E+03  0.38820E+06
 0.10277000E+03  0.34912E+06
 0.10282000E+03  0.30522E+06
 0.10287000E+03  0.29022E+06
 0.10292000E+03  0.31408E+06
 0.10297000E+03  0.34988E+06
 0.10302000E+03  0.36346E+06
 0.10307000E+03  0.34985E+06
 0.10312000E+03  0.31810E+06
 0.10317000E+03  0.27312E+06
 0.10322000E+03  0.21399E+06
 0.10327000E+03  0.12746E+06
 0.10332000E+03 -0.76760E+04
 0.10337000E+03 -0.18336E+06
 0.10342000E+03 -0.35779E+06
 0.10347000E+03 -0.50479E+06
 0.10352000E+03 -0.62922E+06
 0.10357000E+03 -0.73768E+06
 0.10362000E+03 -0.82820E+06
 0.10367000E+03 -0.89622E+06
 0.10372000E+03 -0.93207E+06
 0.10377000E+03 -0.93687E+06
 0.10382000E+03 -0.93299E+06
 0.10387000E+03 -0.93693E+06
 0.10392000E+03 -0.94193E+06
 0.10397000E+03 -0.92257E+06
 0.10402000E+03 -0.84918E+06
 0.10407000E+03 -0.71408E+06
 0.10412000E+03 -0.53776E+06
 0.10417000E+03 -0.34153E+06
 0.10422000E+03 -0.13345E+06
 0.10427000E+03  0.61057E+05
 0.10432000E+03  0.19560E+06
 0.10437000E+03  0.23956E+06
 0.10442000E+03  0.20147E+06
 0.10447000E+03  0.13664E+06
 0.10452000E+03  0.91630E+05
 0.10457000E+03  0.60163E+05
 0.10462000E+03  0.30791E+05
 0.10467000E+03  0.66180E+04
 0.10472000E+03 -0.17696E+05
 0.10477000E+03 -0.45439E+05
 0.10482000E+03 -0.62897E+05
 0.10487000E+03 -0.64644E+05
 0.10492000E+03 -0.74121E+05
 0.10497000E+03 -0.11764E+06
 0.10502000E+03 -0.19350E+06
 0.10507000E+03 -0.27735E+06
 0.10512000E+03 -0.35140E+06
 0.10517000E+03 -0.41402E+06
 0.10522000E+03 -0.46958E+06
 0.10527000E+03 -0.52315E+06
 0.10532000E+03 -0.57540E+06
 0.10537000E+03 -0.62543E+06
 0.10542000E+03 -0.68009E+06
 0.10547000E+03 -0.73936E+06
 0.10552000E+03 -0.78315E+06
 0.10557000E+03 -0.79230E+06
 0.10562000E+03 -0.76202E+06
 0.10567000E+03 -0.70691E+06
 0.10572000E+03 -0.64893E+06
 0.10577000E+03 -0.58702E+06
 0.10582000E+03 -0.50537E+06
 0.10587000E+03 -0.40434E+06
 0.10592000E+03 -0.30539E+06
 0.10597000E+03 -0.23260E+06
 0.10602000E+03 -0.20002E+06
 0.10607000E+03 -0.19336E+06
 0.10612000E+03 -0.18440E+06
 0.10617000E+03 -0.17549E+06
 0.10622000E+03 -0.19375E+06
 0.10627000E+03 -0.25670E+06
 0.10632000E+03 -0.35584E+06
 0.10637000E+03 -0.47621E+06
 0.10642000E+03 -0.60229E+06
 0.10647000E+03 -0.70642E+06
 0.10652000E+03 -0.75702E+06
 0.10657000E+03 -0.73471E+06
 0.10662000E+03 -0.64910E+06
 0.10667000E+03 -0.52378E+06
 0.10672000E+03 -0.37886E+06
 0.10677000E+03 -0.22950E+06
 0.10682000E+03 -0.80626E+05
 0.10687000E+03  0.71931E+05
 0.10692000E+03  0.23193E+06
 0.10697000E+03  0.38251E+06
 0.10702000E+03  0.48132E+06
 0.10707000E+03  0.50423E+06
 0.10712000E+03  0.47085E+06
 0.10717000E+03  0.40251E+06
 0.10722000E+03  0.31646E+06
 0.10727000E+03  0.23460E+06
 0.10732000E+03  0.15838E+06
 0.10737000E+03  0.82991E+05
 0.10742000E+03  0.18041E+05
 0.10747000E+03 -0.11897E+05
 0.10752000E+03  0.14126E+05
 0.10757000E+03  0.83432E+05
 0.10762000E+03  0.15618E+06
 0.10767000E+03  0.19749E+06
 0.10772000E+03  0.20052E+06
 0.10777000E+03  0.17652E+06
 0.10782000E+03  0.12900E+06
 0.10787000E+03  0.52050E+05
 0.10792000E+03 -0.52389E+05
 0.10797000E+03 -0.17482E+06
 0.10802000E+03 -0.31102E+06
 0.10807000E+03 -0.45352E+06
 0.10812000E+03 -0.58756E+06
 0.10817000E+03 -0.71167E+06
 0.10822000E+03 -0.83752E+06
 0.10827000E+03 -0.95861E+06
 0.10832000E+03 -0.10500E+07
 0.10837000E+03 -0.10970E+07
 0.10842000E+03 -0.11066E+07
 0.10847000E+03 -0.10893E+07
 0.10852000E+03 -0.10456E+07
 0.10857000E+03 -0.97815E+06
 0.10862000E+03 -0.88969E+06
 0.10867000E+03 -0.77987E+06
 0.10872000E+03 -0.65119E+06
 0.10877000E+03 -0.51470E+06
 0.10882000E+03 -0.37676E+06
 0.10887000E+03 -0.23802E+06
 0.10892000E+03 -0.11442E+06
 0.10897000E+03 -0.24625E+05
 0.10902000E+03  0.14596E+05
 0.10907000E+03 -0.25090E+04
 0.10912000E+03 -0.51515E+05
 0.10917000E+03 -0.10840E+06
 0.10922000E+03 -0.16520E+06
 0.10927000E+03 -0.21969E+06
 0.10932000E+03 -0.27761E+06
 0.10937000E+03 -0.33736E+06
 0.10942000E+03 -0.38740E+06
 0.10947000E+03 -0.42625E+06
 0.10952000E+03 -0.46793E+06
 0.10957000E+03 -0.52562E+06
 0.10962000E+03 -0.59143E+06
 0.10967000E+03 -0.64980E+06
 0.10972000E+03 -0.67904E+06
 0.10977000E+03 -0.65178E+06
 0.10982000E+03 -0.57123E+06
 0.10987000E+03 -0.45892E+06
 0.10992000E+03 -0.33363E+06
 0.10997000E+03 -0.23198E+06
 0.11002000E+03 -0.19013E+06
 0.11007000E+03 -0.20727E+06
 0.11012000E+03 -0.26004E+06
 0.11017000E+03 -0.32825E+06
 0.11022000E+03 -0.39964E+06
 0.11027000E+03 -0.46397E+06
 0.11032000E+03 -0.50802E+06
 0.11037000E+03 -0.52572E+06
 0.11042000E+03 -0.52005E+06
 0.11047000E+03 -0.49681E+06
 0.11052000E+03 -0.45581E+06
 0.11057000E+03 -0.38774E+06
 0.11062000E+03 -0.28859E+06
 0.11067000E+03 -0.16677E+06
 0.11072000E+03 -0.44641E+05
 0.11077000E+03  0.61084E+05
 0.11082000E+03  0.15484E+06
 0.11087000E+03  0.24716E+06
 0.11092000E+03  0.33836E+06
 0.11097000E+03  0.40957E+06
 0.11102000E+03  0.45238E+06
 0.11107000E+03  0.48301E+06
 0.11112000E+03  0.50884E+06
 0.11117000E+03  0.52603E+06
 0.11122000E+03  0.53465E+06
 0.11127000E+03  0.53720E+06
 0.11132000E+03  0.52912E+06
 0.11137000E+03  0.50290E+06
 0.11142000E+03  0.45756E+06
 0.11147000E+03  0.38411E+06
 0.11152000E+03  0.27666E+06
 0.11157000E+03  0.15147E+06
 0.11162000E+03  0.28361E+05
 0.11167000E+03 -0.85412E+05
 0.11172000E+03 -0.18538E+06
 0.11177000E+03 -0.25534E+06
 0.11182000E+03 -0.28735E+06
 0.11187000E+03 -0.29668E+06
 0.11192000E+03 -0.29790E+06
 0.11197000E+03 -0.28941E+06
 0.11202000E+03 -0.26804E+06
 0.11207000E+03 -0.24632E+06
 0.11212000E+03 -0.23630E+06
 0.11217000E+03 -0.23210E+06
 0.11222000E+03 -0.21998E+06
 0.11227000E+03 -0.18935E+06
 0.11232000E+03 -0.14073E+06
 0.11237000E+03 -0.87551E+05
 0.11242000E+03 -0.45042E+05
 0.11247000E+03 -0.16930E+05
 0.11252000E+03  0.75520E+04
 0.11257000E+03  0.38961E+05
 0.11262000E+03  0.78220E+05
 0.11267000E+03  0.13327E+06
 0.11272000E+03  0.21440E+06
 0.11277000E+03  0.30442E+06
 0.11282000E+03  0.38121E+06
 0.11287000E+03  0.44630E+06
 0.11292000E+03  0.50265E+06
 0.11297000E+03  0.54623E+06
 0.11302000E+03  0.57751E+06
 0.11307000E+03  0.59172E+06
 0.11312000E+03  0.56588E+06
 0.11317000E+03  0.48443E+06
 0.11322000E+03  0.35759E+06
 0.11327000E+03  0.21096E+06
 0.11332000E+03  0.75606E+05
 0.11337000E+03 -0.36448E+05
 0.11342000E+03 -0.13913E+06
 0.11347000E+03 -0.24713E+06
 0.11352000E+03 -0.35352E+06
 0.11357000E+03 -0.43835E+06
 0.11362000E+03 -0.49455E+06
 0.11367000E+03 -0.52759E+06
 0.11372000E+03 -0.53658E+06
 0.11377000E+03 -0.51954E+06
 0.11382000E+03 -0.48330E+06
 0.11387000E+03 -0.43638E+06
 0.11392000E+03 -0.39259E+06
 0.11397000E+03 -0.36072E+06
 0.11402000E+03 -0.33830E+06
 0.11407000E+03 -0.32816E+06
 0.11412000E+03 -0.33633E+06
 0.11417000E+03 -0.35894E+06
 0.11422000E+03 -0.38472E+06
 0.11427000E+03 -0.40746E+06
 0.11432000E+03 -0.41642E+06
 0.11437000E+03 -0.39982E+06
 0.11442000E+03 -0.36468E+06
 0.11447000E+03 -0.31418E+06
 0.11452000E+03 -0.23693E+06
 0.11457000E+03 -0.14541E+06
 0.11462000E+03 -0.76496E+05
 0.11467000E+03 -0.45918E+05
 0.11472000E+03 -0.48328E+05
 0.11477000E+03 -0.76810E+05
 0.11482000E+03 -0.11668E+06
 0.11487000E+03 -0.15210E+06
 0.11492000E+03 -0.17871E+06
 0.11497000E+03 -0.19794E+06
 0.11502000E+03 -0.20752E+06
 0.11507000E+03 -0.20728E+06
 0.11512000E+03 -0.20125E+06
 0.11517000E+03 -0.19232E+06
 0.11522000E+03 -0.18678E+06
 0.11527000E+03 -0.19886E+06
 0.11532000E+03 -0.23607E+06
 0.11537000E+03 -0.29137E+06
 0.11542000E+03 -0.36652E+06
 0.11547000E+03 -0.46571E+06
 0.11552000E+03 -0.57047E+06
 0.11557000E+03 -0.65607E+06
 0.11562000E+03 -0.71962E+06
 0.11567000E+03 -0.77862E+06
 0.11572000E+03 -0.84448E+06
 0.11577000E+03 -0.90698E+06
 0.11582000E+03 -0.94924E+06
 0.11587000E+03 -0.96392E+06
 0.11592000E+03 -0.95397E+06
 0.11597000E+03 -0.94379E+06
 0.11602000E+03 -0.96453E+06
 0.11607000E+03 -0.10109E+07
 0.11612000E+03 -0.10454E+07
 0.11617000E+03 -0.10360E+07
 0.11622000E+03 -0.97258E+06
 0.11627000E+03 -0.86353E+06
 0.11632000E+03 -0.73238E+06
 0.11637000E+03 -0.60241E+06
 0.11642000E+03 -0.47971E+06
 0.11647000E+03 -0.35616E+06
 0.11652000E+03 -0.23180E+06
 0.11657000E+03 -0.12085E+06
 0.11662000E+03 -0.34782E+05
 0.11667000E+03  0.24199E+05
 0.11672000E+03  0.58107E+05
 0.11677000E+03  0.62733E+05
 0.11682000E+03  0.32007E+05
 0.11687000E+03 -0.32473E+05
 0.11692000E+03 -0.12406E+06
 0.11697000E+03 -0.23422E+06
 0.11702000E+03 -0.34846E+06
 0.11707000E+03 -0.44584E+06
 0.11712000E+03 -0.51348E+06
 0.11717000E+03 -0.54628E+06
 0.11722000E+03 -0.54355E+06
 0.11727000E+03 -0.51127E+06
 0.11732000E+03 -0.45252E+06
 0.11737000E+03 -0.36530E+06
 0.11742000E+03 -0.25761E+06
 0.11747000E+03 -0.14750E+06
 0.11752000E+03 -0.43017E+05
 0.11757000E+03  0.51545E+05
 0.11762000E+03  0.13257E+06
 0.11767000E+03  0.20093E+06
 0.11772000E+03  0.25467E+06
 0.11777000E+03  0.29601E+06
 0.11782000E+03  0.32736E+06
 0.11787000E+03  0.34827E+06
 0.11792000E+03  0.35586E+06
 0.11797000E+03  0.34256E+06
 0.11802000E+03  0.32176E+06
 0.11807000E+03  0.32311E+06
 0.11812000E+03  0.34962E+06
 0.11817000E+03  0.38350E+06
 0.11822000E+03  0.40913E+06
 0.11827000E+03  0.41693E+06
 0.11832000E+03  0.40855E+06
 0.11837000E+03  0.38398E+06
 0.11842000E+03  0.33692E+06
 0.11847000E+03  0.27318E+06
 0.11852000E+03  0.21073E+06
 0.11857000E+03  0.16918E+06
 0.11862000E+03  0.16262E+06
 0.11867000E+03  0.18868E+06
 0.11872000E+03  0.23354E+06
 0.11877000E+03  0.28343E+06
 0.11882000E+03  0.32784E+06
 0.11887000E+03  0.36420E+06
 0.11892000E+03  0.39424E+06
 0.11897000E+03  0.42305E+06
 0.11902000E+03  0.45878E+06
 0.11907000E+03  0.50071E+06
 0.11912000E+03  0.53778E+06
 0.11917000E+03  0.56200E+06
 0.11922000E+03  0.56867E+06
 0.11927000E+03  0.55019E+06
 0.11932000E+03  0.50420E+06
 0.11937000E+03  0.43496E+06
 0.11942000E+03  0.35439E+06
 0.11947000E+03  0.27910E+06
 0.11952000E+03  0.21252E+06
 0.11957000E+03  0.14674E+06
 0.11962000E+03  0.78692E+05
 0.11967000E+03  0.11553E+05
 0.11972000E+03 -0.51890E+05
 0.11977000E+03 -0.10510E+06
 0.11982000E+03 -0.13974E+06
 0.11987000E+03 -0.15746E+06
 0.11992000E+03 -0.16402E+06
 0.11997000E+03 -0.15968E+06
 0.12002000E+03 -0.14106E+06
 0.12007000E+03 -0.10274E+06
 0.12012000E+03 -0.38147E+05
 0.12017000E+03  0.53241E+05
 0.12022000E+03  0.15603E+06
 0.12027000E+03  0.23942E+06
 0.12032000E+03  0.27636E+06
 0.12037000E+03  0.25947E+06
 0.12042000E+03  0.19805E+06
 0.12047000E+03  0.11710E+06
 0.12052000E+03  0.43665E+05
 0.12057000E+03 -0.16267E+05
 0.12062000E+03 -0.68028E+05
 0.12067000E+03 -0.11340E+06
 0.12072000E+03 -0.14876E+06
 0.12077000E+03 -0.16367E+06
 0.12082000E+03 -0.15327E+06
 0.12087000E+03 -0.12018E+06
 0.12092000E+03 -0.65737E+05
 0.12097000E+03  0.66470E+04
 0.12102000E+03  0.83959E+05
 0.12107000E+03  0.14557E+06
 0.12112000E+03  0.17810E+06
 0.12117000E+03  0.18215E+06
 0.12122000E+03  0.17014E+06
 0.12127000E+03  0.15341E+06
 0.12132000E+03  0.13373E+06
 0.12137000E+03  0.10750E+06
 0.12142000E+03  0.68264E+05
 0.12147000E+03  0.16270E+05
 0.12152000E+03 -0.43070E+05
 0.12157000E+03 -0.10801E+06
 0.12162000E+03 -0.18181E+06
 0.12167000E+03 -0.26218E+06
 0.12172000E+03 -0.33224E+06
 0.12177000E+03 -0.37480E+06
 0.12182000E+03 -0.38563E+06
 0.12187000E+03 -0.37446E+06
 0.12192000E+03 -0.35556E+06
 0.12197000E+03 -0.33418E+06
 0.12202000E+03 -0.30970E+06
 0.12207000E+03 -0.27854E+06
 0.12212000E+03 -0.23662E+06
 0.12217000E+03 -0.19467E+06
 0.12222000E+03 -0.16459E+06
 0.12227000E+03 -0.13984E+06
 0.12232000E+03 -0.11083E+06
 0.12237000E+03 -0.71331E+05
 0.12242000E+03 -0.10960E+05
 0.12247000E+03  0.68733E+05
 0.12252000E+03  0.14097E+06
 0.12257000E+03  0.18197E+06
 0.12262000E+03  0.18456E+06
 0.12267000E+03  0.14306E+06
 0.12272000E+03  0.59071E+05
 0.12277000E+03 -0.59174E+05
 0.12282000E+03 -0.19945E+06
 0.12287000E+03 -0.33303E+06
 0.12292000E+03 -0.42662E+06
 0.12297000E+03 -0.46468E+06
 0.12302000E+03 -0.45540E+06
 0.12307000E+03 -0.42534E+06
 0.12312000E+03 -0.39900E+06
 0.12317000E+03 -0.38517E+06
 0.12322000E+03 -0.38399E+06
 0.12327000E+03 -0.38648E+06
 0.12332000E+03 -0.37838E+06
 0.12337000E+03 -0.36335E+06
 0.12342000E+03 -0.36232E+06
 0.12347000E+03 -0.38062E+06
 0.12352000E+03 -0.40069E+06
 0.12357000E+03 -0.40505E+06
 0.12362000E+03 -0.38831E+06
 0.12367000E+03 -0.36216E+06
 0.12372000E+03 -0.34153E+06
 0.12377000E+03 -0.32637E+06
 0.12382000E+03 -0.31267E+06
 0.12387000E+03 -0.29475E+06
 0.12392000E+03 -0.26378E+06
 0.12397000E+03 -0.21859E+06
 0.12402000E+03 -0.16726E+06
 0.12407000E+03 -0.11666E+06
 0.12412000E+03 -0.67380E+05
 0.12417000E+03 -0.27164E+05
 0.12422000E+03 -0.59410E+04
 0.12427000E+03 -0.51530E+04
 0.12432000E+03 -0.28647E+05
 0.12437000E+03 -0.79977E+05
 0.12442000E+03 -0.15413E+06
 0.12447000E+03 -0.24281E+06
 0.12452000E+03 -0.33681E+06
 0.12457000E+03 -0.42432E+06
 0.12462000E+03 -0.50066E+06
 0.12467000E+03 -0.56831E+06
 0.12472000E+03 -0.62732E+06
 0.12477000E+03 -0.67916E+06
 0.12482000E+03 -0.71875E+06
 0.12487000E+03 -0.73404E+06
 0.12492000E+03 -0.72657E+06
 0.12497000E+03 -0.71138E+06
 0.12502000E+03 -0.69433E+06
 0.12507000E+03 -0.66544E+06
 0.12512000E+03 -0.61751E+06
 0.12517001E+03 -0.55116E+06
 0.12521999E+03 -0.47103E+06
 0.12527000E+03 -0.38511E+06
 0.12532000E+03 -0.29953E+06
 0.12537000E+03 -0.21579E+06
 0.12542001E+03 -0.12827E+06
 0.12546999E+03 -0.33975E+05
 0.12552000E+03  0.65065E+05
 0.12557000E+03  0.17477E+06
 0.12562000E+03  0.29759E+06
 0.12567001E+03  0.42348E+06
 0.12571999E+03  0.54095E+06
 0.12577000E+03  0.64007E+06
 0.12582000E+03  0.71452E+06
 0.12587000E+03  0.76478E+06
 0.12592001E+03  0.79544E+06
 0.12596999E+03  0.80630E+06
 0.12602000E+03  0.79395E+06
 0.12607000E+03  0.76580E+06
 0.12612000E+03  0.73481E+06
 0.12617001E+03  0.70670E+06
 0.12621999E+03  0.68046E+06
 0.12627000E+03  0.65233E+06
 0.12632000E+03  0.61749E+06
 0.12637000E+03  0.57576E+06
 0.12642001E+03  0.53680E+06
 0.12646999E+03  0.50498E+06
 0.12652000E+03  0.47129E+06
 0.12657000E+03  0.43366E+06
 0.12662000E+03  0.39881E+06
 0.12667001E+03  0.36772E+06
 0.12671999E+03  0.34154E+06
 0.12677000E+03  0.32576E+06
 0.12682000E+03  0.32232E+06
 0.12687000E+03  0.32716E+06
 0.12692001E+03  0.33435E+06
 0.12696999E+03  0.34086E+06
 0.12702000E+03  0.34365E+06
 0.12707000E+03  0.33416E+06
 0.12712000E+03  0.30344E+06
 0.12717001E+03  0.25663E+06
 0.12721999E+03  0.20891E+06
 0.12727000E+03  0.16302E+06
 0.12732000E+03  0.11231E+06
 0.12737000E+03  0.54107E+05
 0.12742001E+03 -0.15250E+05
 0.12746999E+03 -0.97232E+05
 0.12752000E+03 -0.18564E+06
 0.12757000E+03 -0.26955E+06
 0.12762000E+03 -0.33897E+06
 0.12767001E+03 -0.39064E+06
 0.12771999E+03 -0.42259E+06
 0.12777000E+03 -0.43745E+06
 0.12782000E+03 -0.44452E+06
 0.12787000E+03 -0.44608E+06
 0.12792001E+03 -0.43919E+06
 0.12796999E+03 -0.42376E+06
 0.12802000E+03 -0.39799E+06
 0.12807001E+03 -0.35719E+06
 0.12812001E+03 -0.30226E+06
 0.12817001E+03 -0.24209E+06
 0.12822000E+03 -0.18287E+06
 0.12827000E+03 -0.12808E+06
 0.12832001E+03 -0.87468E+05
 0.12837001E+03 -0.63653E+05
 0.12842001E+03 -0.48516E+05
 0.12847000E+03 -0.38358E+05
 0.12852000E+03 -0.31677E+05
 0.12857001E+03 -0.21307E+05
 0.12862001E+03  0.10359E+05
 0.12867001E+03  0.73721E+05
 0.12872000E+03  0.15324E+06
 0.12877000E+03  0.22529E+06
 0.12882001E+03  0.27316E+06
 0.12887001E+03  0.28800E+06
 0.12892001E+03  0.27077E+06
 0.12897000E+03  0.22775E+06
 0.12902000E+03  0.16177E+06
 0.12907001E+03  0.70678E+05
 0.12912001E+03 -0.44585E+05
 0.12917001E+03 -0.17400E+06
 0.12922000E+03 -0.29849E+06
 0.12927000E+03 -0.40066E+06
 0.12932001E+03 -0.47301E+06
 0.12937001E+03 -0.51200E+06
 0.12942001E+03 -0.52020E+06
 0.12947000E+03 -0.50695E+06
 0.12952000E+03 -0.47762E+06
 0.12957001E+03 -0.43498E+06
 0.12962001E+03 -0.38606E+06
 0.12967001E+03 -0.33679E+06
 0.12972000E+03 -0.28740E+06
 0.12977000E+03 -0.23937E+06
 0.12982001E+03 -0.19940E+06
 0.12987001E+03 -0.16862E+06
 0.12992001E+03 -0.13680E+06
 0.12997000E+03 -0.96803E+05
 0.13002000E+03 -0.51492E+05
 0.13007001E+03 -0.52830E+04
 0.13012001E+03  0.37859E+05
 0.13017001E+03  0.78769E+05
 0.13022000E+03  0.12872E+06
 0.13027000E+03  0.19662E+06
 0.13032001E+03  0.27654E+06
 0.13037001E+03  0.35094E+06
 0.13042001E+03  0.40294E+06
 0.13047000E+03  0.42735E+06
 0.13052000E+03  0.42780E+06
 0.13057001E+03  0.40946E+06
 0.13062001E+03  0.37751E+06
 0.13067001E+03  0.33727E+06
 0.13072000E+03  0.29292E+06
 0.13077000E+03  0.25036E+06
 0.13082001E+03  0.22042E+06
 0.13087001E+03  0.21209E+06
 0.13092001E+03  0.22404E+06
 0.13097000E+03  0.24496E+06
 0.13102000E+03  0.26565E+06
 0.13107001E+03  0.28378E+06
 0.13112001E+03  0.29604E+06
 0.13117001E+03  0.29823E+06
 0.13122000E+03  0.28436E+06
 0.13127000E+03  0.24841E+06
 0.13132001E+03  0.19250E+06
 0.13137001E+03  0.12586E+06
 0.13142001E+03  0.57862E+05
 0.13147000E+03 -0.84460E+04
 0.13152000E+03 -0.76704E+05
 0.13157001E+03 -0.15082E+06
 0.13162001E+03 -0.22485E+06
 0.13167001E+03 -0.28832E+06
 0.13172000E+03 -0.33570E+06
 0.13177000E+03 -0.36060E+06
 0.13182001E+03 -0.36432E+06
 0.13187001E+03 -0.35979E+06
 0.13192001E+03 -0.35353E+06
 0.13197000E+03 -0.34772E+06
 0.13202000E+03 -0.34853E+06
 0.13207001E+03 -0.35402E+06
 0.13212001E+03 -0.35645E+06
 0.13217001E+03 -0.35491E+06
 0.13222000E+03 -0.35314E+06
 0.13227000E+03 -0.35695E+06
 0.13232001E+03 -0.36994E+06
 0.13237001E+03 -0.38717E+06
 0.13242001E+03 -0.40116E+06
 0.13247000E+03 -0.40715E+06
 0.13252000E+03 -0.39888E+06
 0.13257001E+03 -0.36913E+06
 0.13262001E+03 -0.31931E+06
 0.13267001E+03 -0.26004E+06
 0.13272000E+03 -0.19763E+06
 0.13277000E+03 -0.13422E+06
 0.13282001E+03 -0.76772E+05
 0.13287001E+03 -0.31165E+05
 0.13292001E+03  0.22510E+04
 0.13297000E+03  0.23735E+05
 0.13302000E+03  0.34139E+05
 0.13307001E+03  0.38140E+05
 0.13312001E+03  0.41175E+05
 0.13317001E+03  0.46016E+05
 0.13322000E+03  0.50631E+05
 0.13327000E+03  0.49064E+05
 0.13332001E+03  0.38520E+05
 0.13337001E+03  0.16485E+05
 0.13342001E+03 -0.20573E+05
 0.13347000E+03 -0.67666E+05
 0.13352000E+03 -0.11534E+06
 0.13357001E+03 -0.15979E+06
 0.13362001E+03 -0.19837E+06
 0.13367001E+03 -0.22515E+06
 0.13372000E+03 -0.23826E+06
 0.13377000E+03 -0.23985E+06
 0.13382001E+03 -0.23061E+06
 0.13387001E+03 -0.20975E+06
 0.13392001E+03 -0.17870E+06
 0.13397000E+03 -0.14388E+06
 0.13402000E+03 -0.11302E+06
 0.13407001E+03 -0.91609E+05
 0.13412001E+03 -0.78923E+05
 0.13417001E+03 -0.67964E+05
 0.13422000E+03 -0.51800E+05
 0.13427000E+03 -0.25516E+05
 0.13432001E+03  0.12897E+05
 0.13437001E+03  0.58792E+05
 0.13442001E+03  0.10133E+06
 0.13447000E+03  0.13066E+06
 0.13452000E+03  0.14360E+06
 0.13457001E+03  0.14222E+06
 0.13462001E+03  0.12893E+06
 0.13467001E+03  0.10736E+06
 0.13472000E+03  0.86773E+05
 0.13477000E+03  0.75662E+05
 0.13482001E+03  0.70789E+05
 0.13487001E+03  0.63919E+05
 0.13492001E+03  0.54764E+05
 0.13497000E+03  0.47663E+05
 0.13502000E+03  0.44818E+05
 0.13507001E+03  0.48312E+05
 0.13512001E+03  0.60636E+05
 0.13517001E+03  0.79680E+05
 0.13522000E+03  0.10265E+06
 0.13527000E+03  0.12840E+06
 0.13532001E+03  0.15212E+06
 0.13537001E+03  0.17039E+06
 0.13542001E+03  0.18259E+06
 0.13547000E+03  0.18555E+06
 0.13552000E+03  0.17658E+06
 0.13557001E+03  0.15893E+06
 0.13562001E+03  0.14174E+06
 0.13567001E+03  0.13397E+06
 0.13572000E+03  0.14318E+06
 0.13577000E+03  0.17924E+06
 0.13582001E+03  0.24822E+06
 0.13587001E+03  0.34328E+06
 0.13592001E+03  0.44290E+06
 0.13597000E+03  0.52398E+06
 0.13602000E+03  0.57641E+06
 0.13607001E+03  0.59924E+06
 0.13612001E+03  0.60140E+06
 0.13617001E+03  0.59678E+06
 0.13622000E+03  0.58792E+06
 0.13627000E+03  0.57441E+06
 0.13632001E+03  0.56322E+06
 0.13637001E+03  0.56126E+06
 0.13642001E+03  0.56736E+06
 0.13647000E+03  0.57368E+06
 0.13652000E+03  0.57146E+06
 0.13657001E+03  0.55128E+06
 0.13662001E+03  0.51099E+06
 0.13667001E+03  0.45733E+06
 0.13672000E+03  0.39829E+06
 0.13677000E+03  0.34045E+06
 0.13682001E+03  0.28207E+06
 0.13687001E+03  0.21977E+06
 0.13692001E+03  0.16143E+06
 0.13697000E+03  0.11548E+06
 0.13702000E+03  0.81970E+05
 0.13707001E+03  0.60987E+05
 0.13712001E+03  0.51071E+05
 0.13717001E+03  0.43586E+05
 0.13722000E+03  0.32263E+05
 0.13727000E+03  0.21667E+05
 0.13732001E+03  0.17620E+05
 0.13737001E+03  0.17947E+05
 0.13742001E+03  0.19765E+05
 0.13747000E+03  0.22758E+05
 0.13752000E+03  0.25302E+05
 0.13757001E+03  0.24835E+05
 0.13762001E+03  0.15820E+05
 0.13767001E+03 -0.93180E+04
 0.13772000E+03 -0.51169E+05
 0.13777000E+03 -0.10123E+06
 0.13782001E+03 -0.15126E+06
 0.13787001E+03 -0.19948E+06
 0.13792001E+03 -0.24788E+06
 0.13797000E+03 -0.29856E+06
 0.13802000E+03 -0.35513E+06
 0.13807001E+03 -0.41837E+06
 0.13812001E+03 -0.47965E+06
 0.13817001E+03 -0.53044E+06
 0.13822000E+03 -0.56777E+06
 0.13827000E+03 -0.59087E+06
 0.13832001E+03 -0.60046E+06
 0.13837001E+03 -0.59694E+06
 0.13842001E+03 -0.58099E+06
 0.13847000E+03 -0.55393E+06
 0.13852000E+03 -0.51668E+06
 0.13857001E+03 -0.46546E+06
 0.13862001E+03 -0.39932E+06
 0.13867001E+03 -0.33238E+06
 0.13872000E+03 -0.27877E+06
 0.13877000E+03 -0.23986E+06
 0.13882001E+03 -0.21190E+06
 0.13887001E+03 -0.18879E+06
 0.13892001E+03 -0.16102E+06
 0.13897000E+03 -0.11745E+06
 0.13902000E+03 -0.53642E+05
 0.13907001E+03  0.21347E+05
 0.13912001E+03  0.96374E+05
 0.13917001E+03  0.16497E+06
 0.13922000E+03  0.21972E+06
 0.13927000E+03  0.25338E+06
 0.13932001E+03  0.25899E+06
 0.13937001E+03  0.23658E+06
 0.13942001E+03  0.20045E+06
 0.13947000E+03  0.16635E+06
 0.13952000E+03  0.14320E+06
 0.13957001E+03  0.13564E+06
 0.13962001E+03  0.14282E+06
 0.13967001E+03  0.15774E+06
 0.13972000E+03  0.17497E+06
 0.13977000E+03  0.19554E+06
 0.13982001E+03  0.22196E+06
 0.13987001E+03  0.25759E+06
 0.13992001E+03  0.30225E+06
 0.13997000E+03  0.34691E+06
 0.14002000E+03  0.38141E+06
 0.14007001E+03  0.40017E+06
 0.14012001E+03  0.39962E+06
 0.14017001E+03  0.37736E+06
 0.14022000E+03  0.33468E+06
 0.14027000E+03  0.27811E+06
 0.14032001E+03  0.21975E+06
 0.14037001E+03  0.17209E+06
 0.14042001E+03  0.14295E+06
 0.14047000E+03  0.13388E+06
 0.14052000E+03  0.13645E+06
 0.14057001E+03  0.13763E+06
 0.14062001E+03  0.12877E+06
 0.14067001E+03  0.10732E+06
 0.14072000E+03  0.76669E+05
 0.14077000E+03  0.41101E+05
 0.14082001E+03  0.47680E+04
 0.14087001E+03 -0.27664E+05
 0.14092001E+03 -0.56618E+05
 0.14097000E+03 -0.81935E+05
 0.14102000E+03 -0.10224E+06
 0.14107001E+03 -0.11811E+06
 0.14112001E+03 -0.12356E+06
 0.14117001E+03 -0.11229E+06
 0.14122000E+03 -0.85807E+05
 0.14127000E+03 -0.49107E+05
 0.14132001E+03 -0.11991E+05
 0.14137001E+03  0.14354E+05
 0.14142001E+03  0.27501E+05
 0.14147000E+03  0.31292E+05
 0.14152000E+03  0.29319E+05
 0.14157001E+03  0.26689E+05
 0.14162001E+03  0.28078E+05
 0.14167001E+03  0.30669E+05
 0.14172000E+03  0.28964E+05
 0.14177000E+03  0.24163E+05
 0.14182001E+03  0.18885E+05
 0.14187001E+03  0.12714E+05
 0.14192001E+03  0.74020E+04
 0.14197000E+03  0.38640E+04
 0.14202000E+03 -0.14020E+04
 0.14207001E+03 -0.97750E+04
 0.14212001E+03 -0.19315E+05
 0.14217001E+03 -0.31469E+05
 0.14222000E+03 -0.51299E+05
 0.14227000E+03 -0.77614E+05
 0.14232001E+03 -0.10173E+06
 0.14237001E+03 -0.11824E+06
 0.14242001E+03 -0.12838E+06
 0.14247000E+03 -0.13502E+06
 0.14252000E+03 -0.13682E+06
 0.14257001E+03 -0.12932E+06
 0.14262001E+03 -0.11077E+06
 0.14267001E+03 -0.82419E+05
 0.14272000E+03 -0.47098E+05
 0.14277000E+03 -0.86500E+04
 0.14282001E+03  0.29562E+05
 0.14287001E+03  0.62045E+05
 0.14292001E+03  0.82205E+05
 0.14297000E+03  0.89173E+05
 0.14302000E+03  0.86063E+05
 0.14307001E+03  0.78777E+05
 0.14312001E+03  0.75973E+05
 0.14317001E+03  0.83232E+05
 0.14322000E+03  0.10254E+06
 0.14327000E+03  0.13106E+06
 0.14332001E+03  0.16054E+06
 0.14337001E+03  0.18159E+06
 0.14342001E+03  0.18691E+06
 0.14347000E+03  0.17456E+06
 0.14352000E+03  0.14708E+06
 0.14357001E+03  0.10832E+06
 0.14362001E+03  0.63642E+05
 0.14367001E+03  0.21111E+05
 0.14372000E+03 -0.12747E+05
 0.14377000E+03 -0.39587E+05
 0.14382001E+03 -0.66116E+05
 0.14387001E+03 -0.94779E+05
 0.14392001E+03 -0.12232E+06
 0.14397000E+03 -0.14402E+06
 0.14402000E+03 -0.15756E+06
 0.14407001E+03 -0.16441E+06
 0.14412001E+03 -0.16475E+06
 0.14417001E+03 -0.15614E+06
 0.14422000E+03 -0.13534E+06
 0.14427000E+03 -0.99602E+05
 0.14432001E+03 -0.53298E+05
 0.14437001E+03 -0.55560E+04
 0.14442001E+03  0.39774E+05
 0.14447000E+03  0.80464E+05
 0.14452000E+03  0.11134E+06
 0.14457001E+03  0.13069E+06
 0.14462001E+03  0.14123E+06
 0.14467001E+03  0.14619E+06
 0.14472000E+03  0.14724E+06
 0.14477000E+03  0.14181E+06
 0.14482001E+03  0.12729E+06
 0.14487001E+03  0.11021E+06
 0.14492001E+03  0.10088E+06
 0.14497000E+03  0.10158E+06
 0.14502000E+03  0.11149E+06
 0.14507001E+03  0.12905E+06
 0.14512001E+03  0.14333E+06
 0.14517001E+03  0.14108E+06
 0.14522000E+03  0.11734E+06
 0.14527000E+03  0.74364E+05
 0.14532001E+03  0.20914E+05
 0.14537001E+03 -0.30250E+05
 0.14542001E+03 -0.69388E+05
 0.14547000E+03 -0.91382E+05
 0.14552000E+03 -0.93219E+05
 0.14557001E+03 -0.73619E+05
 0.14562001E+03 -0.34885E+05
 0.14567001E+03  0.20207E+05
 0.14572000E+03  0.91239E+05
 0.14577000E+03  0.17157E+06
 0.14582001E+03  0.24903E+06
 0.14587001E+03  0.31091E+06
 0.14592001E+03  0.34426E+06
 0.14597000E+03  0.34763E+06
 0.14602000E+03  0.33126E+06
 0.14607001E+03  0.30788E+06
 0.14612001E+03  0.28982E+06
 0.14617001E+03  0.27920E+06
 0.14622000E+03  0.26709E+06
 0.14627000E+03  0.24821E+06
 0.14632001E+03  0.22524E+06
 0.14637001E+03  0.19876E+06
 0.14642001E+03  0.16545E+06
 0.14647000E+03  0.12514E+06
 0.14652000E+03  0.80293E+05
 0.14657001E+03  0.37239E+05
 0.14662001E+03  0.49120E+04
 0.14667001E+03 -0.17236E+05
 0.14672000E+03 -0.41665E+05
 0.14677000E+03 -0.78807E+05
 0.14682001E+03 -0.12855E+06
 0.14687001E+03 -0.18388E+06
 0.14692001E+03 -0.23435E+06
 0.14697000E+03 -0.27107E+06
 0.14702000E+03 -0.29281E+06
 0.14707001E+03 -0.30507E+06
 0.14712001E+03 -0.31145E+06
 0.14717001E+03 -0.31026E+06
 0.14722000E+03 -0.30190E+06
 0.14727000E+03 -0.28979E+06
 0.14732001E+03 -0.27756E+06
 0.14737001E+03 -0.26912E+06
 0.14742001E+03 -0.26442E+06
 0.14747000E+03 -0.25952E+06
 0.14752000E+03 -0.25227E+06
 0.14757001E+03 -0.23976E+06
 0.14762001E+03 -0.21927E+06
 0.14767001E+03 -0.19316E+06
 0.14772000E+03 -0.16554E+06
 0.14777000E+03 -0.13961E+06
 0.14782001E+03 -0.11742E+06
 0.14787001E+03 -0.10129E+06
 0.14792001E+03 -0.89759E+05
 0.14797000E+03 -0.75085E+05
 0.14802000E+03 -0.52914E+05
 0.14807001E+03 -0.24307E+05
 0.14812001E+03  0.78630E+04
 0.14817001E+03  0.39278E+05
 0.14822000E+03  0.67205E+05
 0.14827000E+03  0.91875E+05
 0.14832001E+03  0.11673E+06
 0.14837001E+03  0.14615E+06
 0.14842001E+03  0.18106E+06
 0.14847000E+03  0.21917E+06
 0.14852000E+03  0.25804E+06
 0.14857001E+03  0.29707E+06
 0.14862001E+03  0.33489E+06
 0.14867001E+03  0.36631E+06
 0.14872000E+03  0.38728E+06
 0.14877000E+03  0.39868E+06
 0.14882001E+03  0.40353E+06
 0.14887001E+03  0.40622E+06
 0.14892001E+03  0.40961E+06
 0.14897000E+03  0.41138E+06
 0.14902000E+03  0.40725E+06
 0.14907001E+03  0.39496E+06
 0.14912001E+03  0.37499E+06
 0.14917001E+03  0.34990E+06
 0.14922000E+03  0.32266E+06
 0.14927000E+03  0.29310E+06
 0.14932001E+03  0.25918E+06
 0.14937001E+03  0.22227E+06
 0.14942001E+03  0.18608E+06
 0.14947000E+03  0.15281E+06
 0.14952000E+03  0.12231E+06
 0.14957001E+03  0.91638E+05
 0.14962001E+03  0.58856E+05
 0.14967001E+03  0.29366E+05
 0.14972000E+03  0.77800E+04
 0.14977000E+03 -0.77640E+04
 0.14982001E+03 -0.18711E+05
 0.14987001E+03 -0.31658E+05
 0.14992001E+03 -0.56372E+05
 0.14997000E+03 -0.91883E+05
