-0.29800000E+01 -0.12430E+05
-0.29300001E+01 -0.14599E+05
-0.28800001E+01 -0.14662E+05
-0.28299999E+01 -0.12783E+05
-0.27800000E+01 -0.96360E+04
-0.27300000E+01 -0.68950E+04
-0.26800001E+01 -0.43910E+04
-0.26300001E+01 -0.95100E+03
-0.25799999E+01  0.93200E+03
-0.25300000E+01  0.20700E+04
-0.24800000E+01  0.30440E+04
-0.24300001E+01  0.23580E+04
-0.23800001E+01  0.22090E+04
-0.23299999E+01  0.32190E+04
-0.22800000E+01  0.49970E+04
-0.22300000E+01  0.66720E+04
-0.21800001E+01  0.60330E+04
-0.21300001E+01  0.38300E+04
-0.20799999E+01 -0.48900E+03
-0.20300000E+01 -0.68360E+04
-0.19800000E+01 -0.12802E+05
-0.19299999E+01 -0.17049E+05
-0.18800000E+01 -0.18538E+05
-0.18300000E+01 -0.17478E+05
-0.17800000E+01 -0.13972E+05
-0.17300000E+01 -0.10601E+05
-0.16799999E+01 -0.81400E+04
-0.16300000E+01 -0.44910E+04
-0.15800000E+01 -0.15360E+04
-0.15300000E+01  0.12720E+04
-0.14800000E+01  0.46280E+04
-0.14299999E+01  0.75230E+04
-0.13800000E+01  0.11122E+05
-0.13300000E+01  0.16665E+05
-0.12800000E+01  0.25398E+05
-0.12300000E+01  0.35454E+05
-0.11799999E+01  0.45455E+05
-0.11300000E+01  0.54457E+05
-0.10800000E+01  0.59541E+05
-0.10300000E+01  0.61346E+05
-0.98000002E+00  0.61540E+05
-0.93000007E+00  0.60388E+05
-0.87999988E+00  0.59035E+05
-0.82999992E+00  0.57804E+05
-0.77999997E+00  0.56236E+05
-0.73000002E+00  0.53664E+05
-0.68000007E+00  0.49355E+05
-0.62999988E+00  0.44308E+05
-0.57999992E+00  0.38140E+05
-0.52999997E+00  0.30313E+05
-0.48000002E+00  0.23022E+05
-0.43000007E+00  0.17492E+05
-0.37999988E+00  0.12745E+05
-0.32999992E+00  0.89650E+04
-0.27999997E+00  0.67980E+04
-0.23000002E+00  0.46190E+04
-0.18000007E+00  0.16640E+04
-0.12999988E+00 -0.28400E+03
-0.79999924E-01 -0.20610E+04
-0.29999971E-01 -0.56740E+04
 0.19999981E-01 -0.87030E+04
 0.69999933E-01 -0.10459E+05
 0.12000012E+00 -0.12560E+05
 0.17000008E+00 -0.13046E+05
 0.22000003E+00 -0.11190E+05
 0.26999998E+00 -0.99220E+04
 0.31999993E+00 -0.10066E+05
 0.37000012E+00 -0.10781E+05
 0.42000008E+00 -0.12577E+05
 0.47000003E+00 -0.15212E+05
 0.51999998E+00 -0.15812E+05
 0.56999993E+00 -0.13745E+05
 0.62000012E+00 -0.10597E+05
 0.67000008E+00 -0.58950E+04
 0.72000003E+00  0.25800E+03
 0.76999998E+00  0.53410E+04
 0.81999993E+00  0.75660E+04
 0.87000012E+00  0.82150E+04
 0.92000008E+00  0.66540E+04
 0.97000003E+00  0.36260E+04
 0.10200000E+01  0.21480E+04
 0.10700002E+01  0.17620E+04
 0.11199999E+01  0.20080E+04
 0.11700001E+01  0.19320E+04
 0.12200003E+01  0.13160E+04
 0.12700000E+01 -0.41200E+03
 0.13200002E+01 -0.44890E+04
 0.13699999E+01 -0.95650E+04
 0.14200001E+01 -0.17213E+05
 0.14700003E+01 -0.26330E+05
 0.15200000E+01 -0.34586E+05
 0.15700002E+01 -0.41149E+05
 0.16199999E+01 -0.43779E+05
 0.16700001E+01 -0.44274E+05
 0.17200003E+01 -0.42090E+05
 0.17700000E+01 -0.38267E+05
 0.18200002E+01 -0.35508E+05
 0.18699999E+01 -0.31097E+05
 0.19200001E+01 -0.25935E+05
 0.19700003E+01 -0.20553E+05
 0.20200000E+01 -0.13979E+05
 0.20700002E+01 -0.68760E+04
 0.21199999E+01  0.32800E+03
 0.21700001E+01  0.61840E+04
 0.22200003E+01  0.12487E+05
 0.22700000E+01  0.17554E+05
 0.23200002E+01  0.20567E+05
 0.23699999E+01  0.23301E+05
 0.24200001E+01  0.22732E+05
 0.24700003E+01  0.19702E+05
 0.25200000E+01  0.14463E+05
 0.25700002E+01  0.74740E+04
 0.26199999E+01  0.12400E+04
 0.26700001E+01 -0.39810E+04
 0.27200003E+01 -0.83120E+04
 0.27700000E+01 -0.12682E+05
 0.28200002E+01 -0.16934E+05
 0.28699999E+01 -0.21808E+05
 0.29200001E+01 -0.25188E+05
 0.29700003E+01 -0.26511E+05
 0.30200000E+01 -0.27623E+05
 0.30700002E+01 -0.27002E+05
 0.31199999E+01 -0.25732E+05
 0.31700001E+01 -0.23668E+05
 0.32200003E+01 -0.20790E+05
 0.32700000E+01 -0.17407E+05
 0.33200002E+01 -0.13733E+05
 0.33699999E+01 -0.12194E+05
 0.34200001E+01 -0.11423E+05
 0.34700003E+01 -0.11465E+05
 0.35200000E+01 -0.11886E+05
 0.35700002E+01 -0.10237E+05
 0.36199999E+01 -0.75110E+04
 0.36700001E+01 -0.28480E+04
 0.37200003E+01  0.19550E+04
 0.37700000E+01  0.63760E+04
 0.38200002E+01  0.11685E+05
 0.38699999E+01  0.14892E+05
 0.39200001E+01  0.17702E+05
 0.39700003E+01  0.20810E+05
 0.40200000E+01  0.22747E+05
 0.40700002E+01  0.24483E+05
 0.41199999E+01  0.25832E+05
 0.41700001E+01  0.26391E+05
 0.42200003E+01  0.26239E+05
 0.42700000E+01  0.25589E+05
 0.43200002E+01  0.25047E+05
 0.43699999E+01  0.23588E+05
 0.44200001E+01  0.20823E+05
 0.44700003E+01  0.18398E+05
 0.45200000E+01  0.15239E+05
 0.45700002E+01  0.11191E+05
 0.46199999E+01  0.56770E+04
 0.46700001E+01 -0.10230E+04
 0.47200003E+01 -0.79050E+04
 0.47700000E+01 -0.14368E+05
 0.48200002E+01 -0.17169E+05
 0.48699999E+01 -0.17980E+05
 0.49200001E+01 -0.17096E+05
 0.49700003E+01 -0.13944E+05
 0.50200000E+01 -0.10813E+05
 0.50700002E+01 -0.80200E+04
 0.51200004E+01 -0.49130E+04
 0.51700006E+01 -0.59400E+03
 0.52199998E+01  0.44390E+04
 0.52700000E+01  0.11056E+05
 0.53200002E+01  0.18952E+05
 0.53700004E+01  0.26367E+05
 0.54200006E+01  0.32110E+05
 0.54699998E+01  0.35327E+05
 0.55200000E+01  0.36565E+05
 0.55700002E+01  0.36729E+05
 0.56200004E+01  0.36714E+05
 0.56700006E+01  0.36498E+05
 0.57199998E+01  0.36042E+05
 0.57700000E+01  0.35445E+05
 0.58200002E+01  0.34514E+05
 0.58700004E+01  0.32603E+05
 0.59200006E+01  0.30432E+05
 0.59699998E+01  0.28372E+05
 0.60200000E+01  0.24926E+05
 0.60700002E+01  0.21200E+05
 0.61200004E+01  0.17926E+05
 0.61700006E+01  0.13689E+05
 0.62199998E+01  0.82060E+04
 0.62700000E+01  0.19810E+04
 0.63200002E+01 -0.36550E+04
 0.63700004E+01 -0.77790E+04
 0.64200006E+01 -0.97870E+04
 0.64699998E+01 -0.93080E+04
 0.65200000E+01 -0.92160E+04
 0.65700002E+01 -0.10691E+05
 0.66200004E+01 -0.12356E+05
 0.66700006E+01 -0.14574E+05
 0.67199998E+01 -0.16378E+05
 0.67700000E+01 -0.16389E+05
 0.68200002E+01 -0.14279E+05
 0.68700004E+01 -0.11801E+05
 0.69200006E+01 -0.96490E+04
 0.69699998E+01 -0.66810E+04
 0.70200000E+01 -0.44790E+04
 0.70700002E+01 -0.25850E+04
 0.71200004E+01 -0.16000E+03
 0.71700006E+01  0.21080E+04
 0.72199998E+01  0.40430E+04
 0.72700000E+01  0.60990E+04
 0.73200002E+01  0.87750E+04
 0.73700004E+01  0.10349E+05
 0.74200006E+01  0.11335E+05
 0.74699998E+01  0.11607E+05
 0.75200000E+01  0.10791E+05
 0.75700002E+01  0.98750E+04
 0.76200004E+01  0.94820E+04
 0.76700006E+01  0.10134E+05
 0.77199998E+01  0.10161E+05
 0.77700000E+01  0.11666E+05
 0.78200002E+01  0.14476E+05
 0.78700004E+01  0.16718E+05
 0.79200006E+01  0.18377E+05
 0.79699998E+01  0.19840E+05
 0.80200005E+01  0.20616E+05
 0.80699997E+01  0.19922E+05
 0.81200008E+01  0.19958E+05
 0.81700001E+01  0.18531E+05
 0.82199993E+01  0.15807E+05
 0.82700005E+01  0.12053E+05
 0.83199997E+01  0.76190E+04
 0.83700008E+01  0.37610E+04
 0.84200001E+01 -0.33200E+03
 0.84699993E+01 -0.29290E+04
 0.85200005E+01 -0.55460E+04
 0.85699997E+01 -0.92200E+04
 0.86200008E+01 -0.10976E+05
 0.86700001E+01 -0.11194E+05
 0.87199993E+01 -0.10942E+05
 0.87700005E+01 -0.82750E+04
 0.88199997E+01 -0.63040E+04
 0.88700008E+01 -0.65060E+04
 0.89200001E+01 -0.75440E+04
 0.89699993E+01 -0.93550E+04
 0.90200005E+01 -0.10632E+05
 0.90699997E+01 -0.10543E+05
 0.91200008E+01 -0.95690E+04
 0.91700001E+01 -0.96540E+04
 0.92199993E+01 -0.11251E+05
 0.92700005E+01 -0.14151E+05
 0.93199997E+01 -0.17001E+05
 0.93700008E+01 -0.18981E+05
 0.94200001E+01 -0.20038E+05
 0.94699993E+01 -0.19592E+05
 0.95200005E+01 -0.17978E+05
 0.95699997E+01 -0.16442E+05
 0.96200008E+01 -0.14455E+05
 0.96700001E+01 -0.12678E+05
 0.97199993E+01 -0.12317E+05
 0.97700005E+01 -0.11695E+05
 0.98199997E+01 -0.11256E+05
 0.98700008E+01 -0.11121E+05
 0.99200001E+01 -0.12291E+05
 0.99699993E+01 -0.14260E+05
 0.10020000E+02 -0.16483E+05
 0.10070000E+02 -0.19556E+05
 0.10120001E+02 -0.22352E+05
 0.10170000E+02 -0.25779E+05
 0.10219999E+02 -0.29131E+05
 0.10270000E+02 -0.31827E+05
 0.10320000E+02 -0.32762E+05
 0.10370001E+02 -0.31213E+05
 0.10420000E+02 -0.28683E+05
 0.10469999E+02 -0.25054E+05
 0.10520000E+02 -0.21115E+05
 0.10570000E+02 -0.18313E+05
 0.10620001E+02 -0.16490E+05
 0.10670000E+02 -0.15277E+05
 0.10719999E+02 -0.15060E+05
 0.10770000E+02 -0.15342E+05
 0.10820000E+02 -0.14385E+05
 0.10870001E+02 -0.13304E+05
 0.10920000E+02 -0.12695E+05
 0.10969999E+02 -0.11029E+05
 0.11020000E+02 -0.91470E+04
 0.11070000E+02 -0.70000E+04
 0.11120001E+02 -0.36760E+04
 0.11170000E+02 -0.50200E+03
 0.11219999E+02  0.10730E+04
 0.11270000E+02  0.23030E+04
 0.11320000E+02  0.36350E+04
 0.11370001E+02  0.51200E+04
 0.11420000E+02  0.84940E+04
 0.11469999E+02  0.13423E+05
 0.11520000E+02  0.17475E+05
 0.11570000E+02  0.20217E+05
 0.11620001E+02  0.22105E+05
 0.11670000E+02  0.21792E+05
 0.11719999E+02  0.20953E+05
 0.11770000E+02  0.21391E+05
 0.11820000E+02  0.22008E+05
 0.11870001E+02  0.22717E+05
 0.11920000E+02  0.24512E+05
 0.11969999E+02  0.26736E+05
 0.12020000E+02  0.27998E+05
 0.12070000E+02  0.29041E+05
 0.12120001E+02  0.29407E+05
 0.12170000E+02  0.28857E+05
 0.12219999E+02  0.28961E+05
 0.12270000E+02  0.29363E+05
 0.12320000E+02  0.29255E+05
 0.12370001E+02  0.28695E+05
 0.12420000E+02  0.27517E+05
 0.12469999E+02  0.25288E+05
 0.12520000E+02  0.22522E+05
 0.12570000E+02  0.20044E+05
 0.12620001E+02  0.17396E+05
 0.12670000E+02  0.14659E+05
 0.12719999E+02  0.11360E+05
 0.12770000E+02  0.67070E+04
 0.12820000E+02  0.12570E+04
 0.12870001E+02 -0.44690E+04
 0.12920000E+02 -0.97250E+04
 0.12969999E+02 -0.15102E+05
 0.13020000E+02 -0.19992E+05
 0.13070002E+02 -0.22310E+05
 0.13120001E+02 -0.23566E+05
 0.13170000E+02 -0.24205E+05
 0.13220001E+02 -0.24768E+05
 0.13270000E+02 -0.26079E+05
 0.13320002E+02 -0.27404E+05
 0.13370001E+02 -0.29440E+05
 0.13420000E+02 -0.30107E+05
 0.13470001E+02 -0.30164E+05
 0.13520000E+02 -0.29342E+05
 0.13570002E+02 -0.26765E+05
 0.13620001E+02 -0.25383E+05
 0.13670000E+02 -0.22956E+05
 0.13720001E+02 -0.19830E+05
 0.13770000E+02 -0.17269E+05
 0.13820002E+02 -0.14048E+05
 0.13870001E+02 -0.10768E+05
 0.13920000E+02 -0.68260E+04
 0.13970001E+02 -0.22330E+04
 0.14020000E+02  0.29010E+04
 0.14070002E+02  0.86010E+04
 0.14120001E+02  0.14697E+05
 0.14170000E+02  0.20971E+05
 0.14220001E+02  0.25744E+05
 0.14270000E+02  0.29953E+05
 0.14320002E+02  0.32680E+05
 0.14370001E+02  0.33096E+05
 0.14420000E+02  0.33718E+05
 0.14470001E+02  0.33013E+05
 0.14520000E+02  0.32749E+05
 0.14570002E+02  0.32463E+05
 0.14620001E+02  0.30105E+05
 0.14670000E+02  0.27171E+05
 0.14720001E+02  0.22415E+05
 0.14770000E+02  0.17583E+05
 0.14820002E+02  0.12669E+05
 0.14870001E+02  0.84190E+04
 0.14920000E+02  0.57220E+04
 0.14970001E+02  0.31220E+04
 0.15020000E+02  0.10670E+04
 0.15070002E+02 -0.14920E+04
 0.15120001E+02 -0.36780E+04
 0.15170000E+02 -0.55150E+04
 0.15220001E+02 -0.70400E+04
 0.15270000E+02 -0.76520E+04
 0.15320002E+02 -0.79550E+04
 0.15370001E+02 -0.82180E+04
 0.15420000E+02 -0.86780E+04
 0.15470001E+02 -0.79410E+04
 0.15520000E+02 -0.73550E+04
 0.15570002E+02 -0.71210E+04
 0.15620001E+02 -0.58750E+04
 0.15670000E+02 -0.52820E+04
 0.15720001E+02 -0.44510E+04
 0.15770000E+02 -0.27230E+04
 0.15820002E+02 -0.93400E+03
 0.15870001E+02  0.15240E+04
 0.15920000E+02  0.36490E+04
 0.15970001E+02  0.50510E+04
 0.16020000E+02  0.66950E+04
 0.16070002E+02  0.77410E+04
 0.16120001E+02  0.85370E+04
 0.16170000E+02  0.10440E+05
 0.16220001E+02  0.12228E+05
 0.16270000E+02  0.13059E+05
 0.16320002E+02  0.14123E+05
 0.16370001E+02  0.14042E+05
 0.16420000E+02  0.12801E+05
 0.16470001E+02  0.12504E+05
 0.16520000E+02  0.12099E+05
 0.16570002E+02  0.11990E+05
 0.16620001E+02  0.11766E+05
 0.16670000E+02  0.10469E+05
 0.16720001E+02  0.80120E+04
 0.16770000E+02  0.45280E+04
 0.16820002E+02  0.20650E+04
 0.16870001E+02 -0.18700E+03
 0.16920000E+02 -0.66700E+03
 0.16970001E+02  0.71300E+03
 0.17020000E+02  0.94400E+03
 0.17070002E+02  0.17700E+04
 0.17120001E+02  0.22320E+04
 0.17170000E+02  0.17830E+04
 0.17220001E+02  0.85400E+03
 0.17270000E+02 -0.10130E+04
 0.17320002E+02 -0.31380E+04
 0.17370001E+02 -0.66430E+04
 0.17420000E+02 -0.95260E+04
 0.17470001E+02 -0.11882E+05
 0.17520000E+02 -0.14697E+05
 0.17570002E+02 -0.16305E+05
 0.17620001E+02 -0.18284E+05
 0.17670000E+02 -0.20218E+05
 0.17720001E+02 -0.20230E+05
 0.17770000E+02 -0.19041E+05
 0.17820002E+02 -0.18006E+05
 0.17870001E+02 -0.17311E+05
 0.17920000E+02 -0.17216E+05
 0.17970001E+02 -0.17716E+05
 0.18020000E+02 -0.17323E+05
 0.18070002E+02 -0.15013E+05
 0.18120001E+02 -0.10975E+05
 0.18170000E+02 -0.63180E+04
 0.18220001E+02 -0.92300E+03
 0.18270000E+02  0.35120E+04
 0.18320002E+02  0.57760E+04
 0.18370001E+02  0.68510E+04
 0.18420000E+02  0.53650E+04
 0.18470001E+02  0.29550E+04
 0.18520000E+02  0.42400E+03
 0.18570002E+02 -0.21190E+04
 0.18620001E+02 -0.31710E+04
 0.18670000E+02 -0.35310E+04
 0.18720001E+02 -0.34290E+04
 0.18770000E+02 -0.36900E+04
 0.18820002E+02 -0.33220E+04
 0.18870001E+02 -0.25570E+04
 0.18920000E+02 -0.12310E+04
 0.18970001E+02  0.18130E+04
 0.19020000E+02  0.45960E+04
 0.19070002E+02  0.69810E+04
 0.19120001E+02  0.92190E+04
 0.19170000E+02  0.11333E+05
 0.19220001E+02  0.12529E+05
 0.19270000E+02  0.12759E+05
 0.19320002E+02  0.12587E+05
 0.19370001E+02  0.11346E+05
 0.19420000E+02  0.99440E+04
 0.19470001E+02  0.87200E+04
 0.19520000E+02  0.68870E+04
 0.19570002E+02  0.50670E+04
 0.19620001E+02  0.39840E+04
 0.19670000E+02  0.35860E+04
 0.19720001E+02  0.43030E+04
 0.19770000E+02  0.62120E+04
 0.19820002E+02  0.91780E+04
 0.19870001E+02  0.12307E+05
 0.19920000E+02  0.15161E+05
 0.19970001E+02  0.18283E+05
 0.20020000E+02  0.20308E+05
 0.20070002E+02  0.20582E+05
 0.20120001E+02  0.19772E+05
 0.20170000E+02  0.16993E+05
 0.20220001E+02  0.12780E+05
 0.20270000E+02  0.85670E+04
 0.20320002E+02  0.47730E+04
 0.20370001E+02  0.18180E+04
 0.20420000E+02 -0.83300E+03
 0.20470001E+02 -0.32190E+04
 0.20520000E+02 -0.56220E+04
 0.20570002E+02 -0.76050E+04
 0.20620001E+02 -0.88550E+04
 0.20670000E+02 -0.97500E+04
 0.20720001E+02 -0.99280E+04
 0.20770000E+02 -0.97250E+04
 0.20820002E+02 -0.82690E+04
 0.20870001E+02 -0.65440E+04
 0.20920000E+02 -0.42720E+04
 0.20970001E+02 -0.14280E+04
 0.21020000E+02 -0.42000E+02
 0.21070002E+02  0.91300E+03
 0.21120001E+02  0.85100E+03
 0.21170000E+02  0.75500E+03
 0.21220001E+02  0.57900E+03
 0.21270000E+02  0.31000E+02
 0.21320002E+02 -0.51900E+03
 0.21370001E+02 -0.20590E+04
 0.21420000E+02 -0.32670E+04
 0.21470001E+02 -0.60580E+04
 0.21520000E+02 -0.86020E+04
 0.21570002E+02 -0.98630E+04
 0.21620001E+02 -0.11763E+05
 0.21670000E+02 -0.13096E+05
 0.21720001E+02 -0.14236E+05
 0.21770000E+02 -0.14514E+05
 0.21820002E+02 -0.14494E+05
 0.21870001E+02 -0.13654E+05
 0.21920000E+02 -0.11991E+05
 0.21970001E+02 -0.10278E+05
 0.22020000E+02 -0.76030E+04
 0.22070002E+02 -0.48400E+04
 0.22120001E+02 -0.34750E+04
 0.22170000E+02 -0.32640E+04
 0.22220001E+02 -0.38830E+04
 0.22270000E+02 -0.63390E+04
 0.22320002E+02 -0.85220E+04
 0.22370001E+02 -0.96880E+04
 0.22420000E+02 -0.11129E+05
 0.22470001E+02 -0.12586E+05
 0.22520000E+02 -0.13129E+05
 0.22570002E+02 -0.14196E+05
 0.22620001E+02 -0.15450E+05
 0.22670000E+02 -0.15041E+05
 0.22720001E+02 -0.15032E+05
 0.22770000E+02 -0.14457E+05
 0.22820002E+02 -0.13219E+05
 0.22870001E+02 -0.12213E+05
 0.22920000E+02 -0.11937E+05
 0.22970001E+02 -0.11612E+05
 0.23020000E+02 -0.11045E+05
 0.23070002E+02 -0.10902E+05
 0.23120001E+02 -0.82680E+04
 0.23170000E+02 -0.63550E+04
 0.23220001E+02 -0.45130E+04
 0.23270000E+02 -0.60400E+03
 0.23320002E+02  0.18530E+04
 0.23370001E+02  0.35040E+04
 0.23420000E+02  0.32160E+04
 0.23470001E+02  0.10040E+04
 0.23520000E+02 -0.27440E+04
 0.23570002E+02 -0.58900E+04
 0.23620001E+02 -0.47380E+04
 0.23670000E+02 -0.59800E+03
 0.23720001E+02  0.69680E+04
 0.23770000E+02  0.13527E+05
 0.23820002E+02  0.17519E+05
 0.23870001E+02  0.19677E+05
 0.23920000E+02  0.19831E+05
 0.23970001E+02  0.22753E+05
 0.24020000E+02  0.28023E+05
 0.24070002E+02  0.34563E+05
 0.24120001E+02  0.38469E+05
 0.24170000E+02  0.40328E+05
 0.24220001E+02  0.35799E+05
 0.24270000E+02  0.26183E+05
 0.24320002E+02  0.20310E+05
 0.24370001E+02  0.15691E+05
 0.24420000E+02  0.17501E+05
 0.24470001E+02  0.16259E+05
 0.24520000E+02  0.52400E+04
 0.24570002E+02 -0.12877E+05
 0.24620001E+02 -0.29101E+05
 0.24670000E+02 -0.32253E+05
 0.24720001E+02 -0.15222E+05
 0.24770000E+02  0.19257E+05
 0.24820002E+02  0.33984E+05
 0.24870001E+02  0.27499E+05
 0.24920000E+02  0.23670E+04
 0.24970001E+02 -0.24002E+05
 0.25020000E+02 -0.16032E+05
 0.25070002E+02 -0.33590E+04
 0.25120001E+02  0.15498E+05
 0.25170000E+02  0.42773E+05
 0.25220001E+02  0.36461E+05
 0.25270000E+02  0.49920E+04
 0.25320002E+02 -0.65460E+04
 0.25370001E+02  0.20613E+05
 0.25420000E+02  0.18428E+05
 0.25470001E+02 -0.41308E+05
 0.25520000E+02 -0.77282E+05
 0.25570002E+02 -0.86197E+05
 0.25620001E+02 -0.79559E+05
 0.25670000E+02 -0.12357E+05
 0.25720001E+02  0.61122E+05
 0.25770000E+02  0.56537E+05
 0.25820002E+02  0.14960E+04
 0.25870001E+02 -0.52104E+05
 0.25920000E+02 -0.94139E+05
 0.25970001E+02 -0.10920E+06
 0.26020000E+02 -0.28415E+05
 0.26070002E+02  0.93014E+05
 0.26120001E+02  0.10457E+06
 0.26170000E+02  0.52803E+05
 0.26220001E+02  0.31740E+04
 0.26270000E+02 -0.69207E+05
 0.26320002E+02 -0.15054E+06
 0.26370001E+02 -0.96358E+05
 0.26420000E+02  0.72648E+05
 0.26470001E+02  0.13702E+06
 0.26520000E+02  0.14842E+06
 0.26570002E+02  0.99367E+05
 0.26620001E+02 -0.35464E+05
 0.26670000E+02 -0.12754E+06
 0.26720001E+02 -0.12056E+06
 0.26770000E+02 -0.17300E+04
 0.26820002E+02  0.79415E+05
 0.26870001E+02  0.85002E+05
 0.26920000E+02  0.10663E+06
 0.26970001E+02  0.13745E+06
 0.27020000E+02  0.83558E+05
 0.27070002E+02 -0.30268E+05
 0.27120001E+02 -0.38496E+05
 0.27170000E+02 -0.32307E+05
 0.27220001E+02 -0.35176E+05
 0.27270000E+02  0.25430E+05
 0.27320002E+02  0.60816E+05
 0.27370001E+02  0.11070E+06
 0.27420000E+02  0.81335E+05
 0.27470001E+02 -0.58227E+05
 0.27520000E+02 -0.85470E+05
 0.27570002E+02 -0.63957E+05
 0.27620001E+02 -0.60897E+05
 0.27670000E+02 -0.90253E+05
 0.27720001E+02 -0.14829E+06
 0.27770000E+02 -0.11522E+06
 0.27820002E+02 -0.78914E+05
 0.27870001E+02 -0.48179E+05
 0.27920000E+02 -0.65243E+05
 0.27970001E+02 -0.23269E+06
 0.28020000E+02 -0.24722E+06
 0.28070002E+02 -0.97707E+05
 0.28120001E+02 -0.36172E+05
 0.28170000E+02  0.29086E+05
 0.28220001E+02  0.45700E+05
 0.28270000E+02  0.50668E+05
 0.28320002E+02  0.57699E+05
 0.28370001E+02 -0.15745E+06
 0.28420000E+02 -0.31152E+06
 0.28470001E+02 -0.21687E+06
 0.28520000E+02  0.46100E+04
 0.28570002E+02  0.23715E+06
 0.28620001E+02  0.27435E+06
 0.28670000E+02  0.19014E+06
 0.28720001E+02  0.30520E+04
 0.28770000E+02 -0.20706E+06
 0.28820002E+02 -0.33933E+06
 0.28870001E+02 -0.36373E+06
 0.28920000E+02 -0.68305E+05
 0.28970001E+02  0.24713E+06
 0.29020000E+02  0.33404E+06
 0.29070000E+02  0.18980E+06
 0.29120003E+02 -0.23357E+06
 0.29170002E+02 -0.39090E+06
 0.29220001E+02 -0.18507E+06
 0.29270000E+02 -0.66686E+05
 0.29320000E+02  0.21198E+05
 0.29370003E+02  0.67299E+05
 0.29420002E+02  0.29842E+05
 0.29470001E+02  0.24217E+05
 0.29520000E+02 -0.51653E+05
 0.29570000E+02 -0.14685E+06
 0.29620003E+02 -0.11489E+06
 0.29670002E+02  0.94775E+05
 0.29720001E+02  0.38034E+06
 0.29770000E+02  0.49340E+06
 0.29820000E+02  0.32934E+06
 0.29870003E+02 -0.15772E+06
 0.29920002E+02 -0.58573E+06
 0.29970001E+02 -0.64194E+06
 0.30020000E+02 -0.41579E+06
 0.30070000E+02  0.73940E+04
 0.30120003E+02  0.18067E+06
 0.30170002E+02  0.10699E+06
 0.30220001E+02  0.52565E+05
 0.30270000E+02  0.76700E+05
 0.30320000E+02  0.36146E+06
 0.30370003E+02  0.46143E+06
 0.30420002E+02  0.13232E+06
 0.30470001E+02 -0.34434E+06
 0.30520000E+02 -0.70938E+06
 0.30570000E+02 -0.60664E+06
 0.30620003E+02 -0.13191E+05
 0.30670002E+02  0.70705E+06
 0.30720001E+02  0.89774E+06
 0.30770000E+02  0.39222E+06
 0.30820000E+02 -0.20433E+06
 0.30870003E+02 -0.59088E+06
 0.30920002E+02 -0.87609E+06
 0.30970001E+02 -0.77680E+06
 0.31020000E+02 -0.27224E+06
 0.31070000E+02  0.11048E+06
 0.31120003E+02  0.38444E+06
 0.31170002E+02  0.49657E+06
 0.31220001E+02  0.18274E+06
 0.31270000E+02 -0.25288E+06
 0.31320000E+02 -0.50750E+06
 0.31370003E+02 -0.51933E+06
 0.31420002E+02 -0.19391E+06
 0.31470001E+02  0.20730E+06
 0.31520000E+02  0.30387E+06
 0.31570000E+02  0.24989E+06
 0.31620003E+02  0.16971E+06
 0.31670002E+02  0.83039E+05
 0.31720001E+02 -0.71878E+05
 0.31770000E+02 -0.38490E+06
 0.31820000E+02 -0.40817E+06
 0.31870003E+02 -0.13007E+06
 0.31920002E+02  0.19090E+06
 0.31970001E+02  0.44694E+06
 0.32020000E+02  0.32310E+06
 0.32070000E+02 -0.65494E+05
 0.32120003E+02 -0.46983E+06
 0.32170002E+02 -0.60290E+06
 0.32220001E+02 -0.39339E+06
 0.32270000E+02 -0.16810E+06
 0.32320000E+02  0.92626E+05
 0.32370003E+02  0.49655E+06
 0.32420002E+02  0.74040E+06
 0.32470001E+02  0.61811E+06
 0.32520000E+02  0.27738E+06
 0.32570000E+02 -0.17634E+06
 0.32620003E+02 -0.45519E+06
 0.32670002E+02 -0.43092E+06
 0.32720001E+02 -0.18402E+06
 0.32770000E+02  0.26898E+06
 0.32820000E+02  0.59165E+06
 0.32870003E+02  0.51083E+06
 0.32920002E+02  0.95795E+05
 0.32970001E+02 -0.34455E+06
 0.33020000E+02 -0.53952E+06
 0.33070000E+02 -0.49723E+06
 0.33120003E+02 -0.32268E+06
 0.33170002E+02  0.14466E+05
 0.33220001E+02  0.59354E+06
 0.33270000E+02  0.11125E+07
 0.33320000E+02  0.10965E+07
 0.33370003E+02  0.49417E+06
 0.33420002E+02 -0.27316E+06
 0.33470001E+02 -0.80097E+06
 0.33520000E+02 -0.92215E+06
 0.33570000E+02 -0.39740E+06
 0.33620003E+02  0.44629E+06
 0.33670002E+02  0.83944E+06
 0.33720001E+02  0.65691E+06
 0.33770000E+02  0.25110E+06
 0.33820000E+02  0.63298E+05
 0.33870003E+02  0.98640E+04
 0.33920002E+02 -0.54340E+05
 0.33970001E+02 -0.33630E+04
 0.34020000E+02  0.18154E+05
 0.34070000E+02 -0.20657E+05
 0.34120003E+02 -0.75818E+05
 0.34170002E+02 -0.11181E+06
 0.34220001E+02 -0.33730E+06
 0.34270000E+02 -0.65324E+06
 0.34320000E+02 -0.49152E+06
 0.34370003E+02 -0.11355E+05
 0.34420002E+02  0.27426E+06
 0.34470001E+02  0.14842E+06
 0.34520000E+02 -0.18212E+06
 0.34570000E+02 -0.31359E+06
 0.34620003E+02 -0.13738E+06
 0.34670002E+02  0.16205E+06
 0.34720001E+02  0.24235E+06
 0.34770000E+02  0.20666E+06
 0.34820000E+02  0.21173E+06
 0.34870003E+02  0.93766E+05
 0.34920002E+02  0.16629E+06
 0.34970001E+02  0.33106E+06
 0.35020000E+02  0.11966E+06
 0.35070000E+02 -0.24955E+06
 0.35120003E+02 -0.47204E+06
 0.35170002E+02 -0.49495E+06
 0.35220001E+02 -0.26802E+06
 0.35270000E+02  0.30045E+06
 0.35320000E+02  0.76794E+06
 0.35370003E+02  0.65880E+06
 0.35420002E+02  0.21835E+06
 0.35470001E+02 -0.14670E+06
 0.35520000E+02 -0.16434E+06
 0.35570000E+02  0.10226E+06
 0.35620003E+02  0.26935E+06
 0.35670002E+02  0.12767E+06
 0.35720001E+02  0.54900E+03
 0.35770000E+02  0.71501E+05
 0.35820000E+02  0.92116E+05
 0.35870003E+02  0.18574E+05
 0.35920002E+02 -0.20671E+06
 0.35970001E+02 -0.38769E+06
 0.36020000E+02 -0.17681E+06
 0.36070000E+02  0.21433E+06
 0.36120003E+02  0.47990E+06
 0.36170002E+02  0.40073E+06
 0.36220001E+02  0.49748E+05
 0.36270000E+02 -0.32853E+06
 0.36320000E+02 -0.61772E+06
 0.36370003E+02 -0.52296E+06
 0.36420002E+02 -0.25323E+06
 0.36470001E+02 -0.90339E+05
 0.36520000E+02  0.18497E+06
 0.36570000E+02  0.43199E+06
 0.36620003E+02  0.58389E+06
 0.36670002E+02  0.64536E+06
 0.36720001E+02  0.44186E+06
 0.36770000E+02  0.18199E+06
 0.36820000E+02 -0.50730E+04
 0.36870003E+02 -0.18329E+06
 0.36920002E+02 -0.29362E+06
 0.36970001E+02 -0.28992E+06
 0.37020000E+02 -0.16646E+06
 0.37070000E+02 -0.44188E+05
 0.37120003E+02  0.96260E+05
 0.37170002E+02  0.39339E+06
 0.37220001E+02  0.55600E+06
 0.37270000E+02  0.26381E+06
 0.37320000E+02 -0.24152E+06
 0.37370003E+02 -0.63512E+06
 0.37420002E+02 -0.74971E+06
 0.37470001E+02 -0.50854E+06
 0.37520000E+02 -0.16071E+06
 0.37570000E+02  0.49901E+05
 0.37620003E+02  0.31340E+05
 0.37670002E+02 -0.95792E+05
 0.37720001E+02 -0.10216E+06
 0.37770000E+02 -0.24436E+05
 0.37820000E+02  0.35800E+03
 0.37870003E+02 -0.76105E+05
 0.37920002E+02 -0.15599E+05
 0.37970001E+02  0.18509E+06
 0.38020000E+02  0.21880E+06
 0.38070000E+02  0.13308E+06
 0.38120003E+02  0.73473E+05
 0.38170002E+02  0.10414E+05
 0.38220001E+02 -0.36556E+05
 0.38270000E+02  0.20533E+05
 0.38320000E+02  0.11746E+06
 0.38370003E+02  0.18087E+06
 0.38420002E+02  0.12520E+06
 0.38470001E+02  0.86230E+04
 0.38520000E+02 -0.12135E+06
 0.38570000E+02 -0.35136E+06
 0.38620003E+02 -0.50499E+06
 0.38670002E+02 -0.49991E+06
 0.38720001E+02 -0.22825E+06
 0.38770000E+02  0.11878E+06
 0.38820000E+02  0.25511E+06
 0.38870003E+02  0.35345E+06
 0.38920002E+02  0.19070E+06
 0.38970001E+02 -0.14449E+06
 0.39020000E+02 -0.33819E+06
 0.39070000E+02 -0.60115E+06
 0.39120003E+02 -0.69093E+06
 0.39170002E+02 -0.38961E+06
 0.39220001E+02  0.50936E+05
 0.39270000E+02  0.54616E+06
 0.39320000E+02  0.80109E+06
 0.39370003E+02  0.48835E+06
 0.39420002E+02 -0.11792E+06
 0.39470001E+02 -0.58403E+06
 0.39520000E+02 -0.62891E+06
 0.39570000E+02 -0.32997E+06
 0.39620003E+02  0.23660E+04
 0.39670002E+02  0.29450E+06
 0.39720001E+02  0.42044E+06
 0.39770000E+02  0.41328E+06
 0.39820000E+02  0.43577E+06
 0.39870003E+02  0.35527E+06
 0.39920002E+02  0.16708E+06
 0.39970001E+02  0.31810E+04
 0.40020000E+02 -0.11816E+06
 0.40070000E+02 -0.15570E+06
 0.40120003E+02 -0.10739E+06
 0.40170002E+02 -0.97497E+05
 0.40220001E+02 -0.25929E+05
 0.40270000E+02  0.24158E+06
 0.40320000E+02  0.59776E+06
 0.40370003E+02  0.99849E+06
 0.40420002E+02  0.13453E+07
 0.40470001E+02  0.14255E+07
 0.40520000E+02  0.11536E+07
 0.40570000E+02  0.69009E+06
 0.40620003E+02  0.20485E+06
 0.40670002E+02 -0.19479E+06
 0.40720001E+02 -0.38953E+06
 0.40770000E+02 -0.31966E+06
 0.40820000E+02 -0.86236E+05
 0.40870003E+02  0.50430E+05
 0.40920002E+02  0.43026E+05
 0.40970001E+02 -0.34093E+05
 0.41020000E+02 -0.63964E+05
 0.41070000E+02  0.64739E+05
 0.41120003E+02  0.21950E+06
 0.41170002E+02  0.28174E+06
 0.41220001E+02  0.36949E+06
 0.41270000E+02  0.62989E+06
 0.41320000E+02  0.93564E+06
 0.41370003E+02  0.97497E+06
 0.41420002E+02  0.63553E+06
 0.41470001E+02  0.82942E+05
 0.41520000E+02 -0.44397E+06
 0.41570000E+02 -0.76882E+06
 0.41620003E+02 -0.91343E+06
 0.41670002E+02 -0.11483E+07
 0.41720001E+02 -0.15964E+07
 0.41770000E+02 -0.17950E+07
 0.41820000E+02 -0.12826E+07
 0.41870003E+02 -0.13862E+06
 0.41920002E+02  0.11412E+07
 0.41970001E+02  0.17848E+07
 0.42020000E+02  0.14052E+07
 0.42070000E+02  0.43857E+06
 0.42120003E+02 -0.39021E+06
 0.42170002E+02 -0.73612E+06
 0.42220001E+02 -0.77298E+06
 0.42270000E+02 -0.68865E+06
 0.42320000E+02 -0.30261E+06
 0.42370003E+02  0.53520E+06
 0.42420002E+02  0.16232E+07
 0.42470001E+02  0.25469E+07
 0.42520000E+02  0.25528E+07
 0.42570000E+02  0.10648E+07
 0.42620003E+02 -0.10551E+07
 0.42670002E+02 -0.22796E+07
 0.42720001E+02 -0.19404E+07
 0.42770000E+02 -0.36061E+06
 0.42820000E+02  0.15484E+07
 0.42870003E+02  0.27259E+07
 0.42920002E+02  0.27651E+07
 0.42970001E+02  0.20363E+07
 0.43020000E+02  0.10107E+07
 0.43070000E+02  0.30292E+06
 0.43120003E+02 -0.21770E+06
 0.43170002E+02 -0.85566E+06
 0.43220001E+02 -0.11542E+07
 0.43270000E+02 -0.87234E+06
 0.43320000E+02 -0.33112E+05
 0.43370003E+02  0.92066E+06
 0.43420002E+02  0.15653E+07
 0.43470001E+02  0.16864E+07
 0.43520000E+02  0.13705E+07
 0.43570000E+02  0.12185E+07
 0.43620003E+02  0.11833E+07
 0.43670002E+02  0.76124E+06
 0.43720001E+02 -0.22358E+06
 0.43770000E+02 -0.14690E+07
 0.43820000E+02 -0.22744E+07
 0.43870003E+02 -0.21718E+07
 0.43920002E+02 -0.15188E+07
 0.43970001E+02 -0.10807E+07
 0.44020000E+02 -0.11015E+07
 0.44070000E+02 -0.13269E+07
 0.44120003E+02 -0.99755E+06
 0.44170002E+02  0.26467E+06
 0.44220001E+02  0.15016E+07
 0.44270000E+02  0.17681E+07
 0.44320000E+02  0.11801E+07
 0.44370003E+02  0.62122E+06
 0.44420002E+02  0.68436E+06
 0.44470001E+02  0.11446E+07
 0.44520000E+02  0.13592E+07
 0.44570000E+02  0.49076E+06
 0.44620003E+02 -0.13011E+07
 0.44670002E+02 -0.26727E+07
 0.44720001E+02 -0.29191E+07
 0.44770000E+02 -0.23281E+07
 0.44820000E+02 -0.12879E+07
 0.44870003E+02 -0.30132E+06
 0.44920002E+02  0.23722E+06
 0.44970001E+02  0.46896E+06
 0.45020000E+02  0.36599E+06
 0.45070000E+02 -0.18724E+06
 0.45120003E+02 -0.92083E+06
 0.45170002E+02 -0.14031E+07
 0.45220001E+02 -0.11625E+07
 0.45270000E+02 -0.27496E+06
 0.45320000E+02  0.63351E+06
 0.45370003E+02  0.92445E+06
 0.45420002E+02  0.34361E+06
 0.45470001E+02 -0.57957E+06
 0.45520000E+02 -0.10147E+07
 0.45570000E+02 -0.71760E+06
 0.45620003E+02 -0.20273E+06
 0.45670002E+02  0.14382E+06
 0.45720001E+02  0.67728E+06
 0.45770000E+02  0.15235E+07
 0.45820000E+02  0.23377E+07
 0.45870003E+02  0.30769E+07
 0.45920002E+02  0.31204E+07
 0.45970001E+02  0.18229E+07
 0.46020000E+02 -0.78364E+05
 0.46070000E+02 -0.15732E+07
 0.46120003E+02 -0.23570E+07
 0.46170002E+02 -0.27051E+07
 0.46220001E+02 -0.23798E+07
 0.46270000E+02 -0.10302E+07
 0.46320000E+02  0.71278E+06
 0.46370003E+02  0.19462E+07
 0.46420002E+02  0.20856E+07
 0.46470001E+02  0.12950E+07
 0.46520000E+02 -0.11474E+06
 0.46570000E+02 -0.16036E+07
 0.46620003E+02 -0.21454E+07
 0.46670002E+02 -0.15972E+07
 0.46720001E+02 -0.42020E+06
 0.46770000E+02  0.76384E+06
 0.46820000E+02  0.13473E+07
 0.46870003E+02  0.12843E+07
 0.46920002E+02  0.62043E+06
 0.46970001E+02 -0.55896E+06
 0.47020000E+02 -0.18085E+07
 0.47070000E+02 -0.26703E+07
 0.47120003E+02 -0.29599E+07
 0.47170002E+02 -0.25391E+07
 0.47220001E+02 -0.14335E+07
 0.47270000E+02 -0.51678E+05
 0.47320000E+02  0.92021E+06
 0.47370003E+02  0.10230E+07
 0.47420002E+02  0.40568E+06
 0.47470001E+02 -0.43692E+06
 0.47520000E+02 -0.10452E+07
 0.47570000E+02 -0.12345E+07
 0.47620003E+02 -0.11502E+07
 0.47670002E+02 -0.11046E+07
 0.47720001E+02 -0.10699E+07
 0.47770000E+02 -0.58167E+06
 0.47820000E+02  0.56751E+06
 0.47870003E+02  0.15021E+07
 0.47920002E+02  0.13248E+07
 0.47970001E+02  0.27921E+06
 0.48020000E+02 -0.11252E+07
 0.48070000E+02 -0.22949E+07
 0.48120003E+02 -0.25967E+07
 0.48170002E+02 -0.19764E+07
 0.48220001E+02 -0.11606E+07
 0.48270000E+02 -0.84586E+06
 0.48320000E+02 -0.66794E+06
 0.48370003E+02 -0.34458E+05
 0.48420002E+02  0.10996E+07
 0.48470001E+02  0.22952E+07
 0.48520000E+02  0.30071E+07
 0.48570000E+02  0.30302E+07
 0.48620003E+02  0.21897E+07
 0.48670002E+02  0.65524E+06
 0.48720001E+02 -0.87434E+06
 0.48770000E+02 -0.15397E+07
 0.48820000E+02 -0.11881E+07
 0.48870003E+02 -0.46036E+06
 0.48920002E+02  0.30261E+06
 0.48970001E+02  0.88144E+06
 0.49020000E+02  0.11621E+07
 0.49070000E+02  0.12154E+07
 0.49120003E+02  0.11253E+07
 0.49170002E+02  0.89454E+06
 0.49220001E+02  0.33736E+06
 0.49270000E+02 -0.51226E+06
 0.49320000E+02 -0.13799E+07
 0.49370003E+02 -0.19239E+07
 0.49420002E+02 -0.19583E+07
 0.49470001E+02 -0.15044E+07
 0.49520000E+02 -0.66392E+06
 0.49570000E+02  0.37628E+06
 0.49620003E+02  0.12308E+07
 0.49670002E+02  0.13975E+07
 0.49720001E+02  0.79804E+06
 0.49770000E+02 -0.14802E+06
 0.49820000E+02 -0.88917E+06
 0.49870003E+02 -0.10479E+07
 0.49920002E+02 -0.54434E+06
 0.49970001E+02  0.23265E+06
 0.50020000E+02  0.51568E+06
 0.50070000E+02  0.42583E+05
 0.50120003E+02 -0.83234E+06
 0.50170002E+02 -0.15306E+07
 0.50220001E+02 -0.15288E+07
 0.50270000E+02 -0.84322E+06
 0.50320000E+02  0.39887E+05
 0.50370003E+02  0.60029E+06
 0.50420002E+02  0.83764E+06
 0.50470001E+02  0.10317E+07
 0.50520000E+02  0.12178E+07
 0.50570000E+02  0.12219E+07
 0.50620003E+02  0.10501E+07
 0.50670002E+02  0.77523E+06
 0.50720001E+02  0.54291E+05
 0.50770000E+02 -0.10108E+07
 0.50820000E+02 -0.18090E+07
 0.50870003E+02 -0.21146E+07
 0.50920002E+02 -0.20504E+07
 0.50970001E+02 -0.18492E+07
 0.51020000E+02 -0.14821E+07
 0.51070000E+02 -0.75574E+06
 0.51120003E+02  0.23122E+05
 0.51170002E+02  0.46605E+06
 0.51220001E+02  0.65067E+06
 0.51270000E+02  0.65222E+06
 0.51320000E+02  0.47812E+06
 0.51370003E+02  0.14525E+06
 0.51420002E+02 -0.28402E+06
 0.51470001E+02 -0.59282E+06
 0.51520000E+02 -0.61580E+06
 0.51570000E+02 -0.35464E+06
 0.51620003E+02  0.54238E+05
 0.51670002E+02  0.56742E+06
 0.51720001E+02  0.11373E+07
 0.51770000E+02  0.15041E+07
 0.51820000E+02  0.13423E+07
 0.51870003E+02  0.62618E+06
 0.51920002E+02 -0.11284E+06
 0.51970001E+02 -0.42432E+06
 0.52020000E+02 -0.35966E+06
 0.52070000E+02 -0.24503E+05
 0.52120003E+02  0.36011E+06
 0.52170002E+02  0.46156E+06
 0.52220001E+02  0.35724E+06
 0.52270000E+02  0.35085E+06
 0.52320000E+02  0.50137E+06
 0.52370003E+02  0.53979E+06
 0.52420002E+02  0.23774E+06
 0.52470001E+02 -0.28043E+06
 0.52520000E+02 -0.60108E+06
 0.52570000E+02 -0.30889E+06
 0.52620003E+02  0.45826E+06
 0.52670002E+02  0.12159E+07
 0.52720001E+02  0.15367E+07
 0.52770000E+02  0.12162E+07
 0.52820000E+02  0.39132E+06
 0.52870003E+02 -0.66222E+06
 0.52920002E+02 -0.15445E+07
 0.52970001E+02 -0.19998E+07
 0.53020000E+02 -0.20238E+07
 0.53070000E+02 -0.16409E+07
 0.53120003E+02 -0.10844E+07
 0.53170002E+02 -0.72994E+06
 0.53220001E+02 -0.66397E+06
 0.53270000E+02 -0.63801E+06
 0.53320000E+02 -0.37848E+06
 0.53370003E+02  0.10233E+06
 0.53420002E+02  0.60295E+06
 0.53470001E+02  0.96909E+06
 0.53520000E+02  0.11567E+07
 0.53570000E+02  0.12078E+07
 0.53620003E+02  0.11330E+07
 0.53670002E+02  0.96978E+06
 0.53720001E+02  0.63580E+06
 0.53770000E+02  0.11888E+06
 0.53820000E+02 -0.28805E+06
 0.53870003E+02 -0.40945E+06
 0.53920002E+02 -0.15382E+06
 0.53970001E+02  0.37456E+06
 0.54020000E+02  0.77571E+06
 0.54070000E+02  0.78742E+06
 0.54120003E+02  0.37550E+06
 0.54170002E+02 -0.23772E+06
 0.54220001E+02 -0.71175E+06
 0.54270000E+02 -0.84221E+06
 0.54320000E+02 -0.68379E+06
 0.54370003E+02 -0.47418E+06
 0.54420002E+02 -0.29244E+06
 0.54470001E+02 -0.26603E+05
 0.54520000E+02  0.31814E+06
 0.54570000E+02  0.51022E+06
 0.54620003E+02  0.40224E+06
 0.54670002E+02  0.96145E+05
 0.54720001E+02 -0.16258E+06
 0.54770000E+02 -0.15752E+06
 0.54820000E+02  0.43028E+05
 0.54870003E+02  0.10488E+06
 0.54920002E+02 -0.14545E+06
 0.54970001E+02 -0.47357E+06
 0.55020000E+02 -0.52070E+06
 0.55070000E+02 -0.15137E+06
 0.55120003E+02  0.25675E+06
 0.55170002E+02  0.20179E+06
 0.55220001E+02 -0.27858E+06
 0.55270000E+02 -0.77974E+06
 0.55320000E+02 -0.93938E+06
 0.55370003E+02 -0.76906E+06
 0.55420002E+02 -0.53476E+06
 0.55470001E+02 -0.37441E+06
 0.55520000E+02 -0.21325E+06
 0.55570000E+02  0.74000E+05
 0.55620003E+02  0.56835E+06
 0.55670002E+02  0.11788E+07
 0.55720001E+02  0.14437E+07
 0.55770000E+02  0.10857E+07
 0.55820000E+02  0.35963E+06
 0.55870003E+02 -0.29702E+06
 0.55920002E+02 -0.64999E+06
 0.55970001E+02 -0.79281E+06
 0.56020000E+02 -0.76219E+06
 0.56070000E+02 -0.49892E+06
 0.56120003E+02 -0.94318E+05
 0.56170002E+02  0.38125E+06
 0.56220001E+02  0.83134E+06
 0.56270000E+02  0.95304E+06
 0.56320000E+02  0.60167E+06
 0.56370003E+02 -0.44830E+04
 0.56420002E+02 -0.52920E+06
 0.56470001E+02 -0.79689E+06
 0.56520000E+02 -0.79153E+06
 0.56570000E+02 -0.50711E+06
 0.56620003E+02 -0.71810E+04
 0.56670002E+02  0.54927E+06
 0.56720001E+02  0.10414E+07
 0.56770000E+02  0.14168E+07
 0.56820000E+02  0.15383E+07
 0.56870003E+02  0.12889E+07
 0.56920002E+02  0.71160E+06
 0.56970001E+02  0.72430E+04
 0.57020000E+02 -0.55722E+06
 0.57070000E+02 -0.80619E+06
 0.57120003E+02 -0.66201E+06
 0.57170002E+02 -0.24322E+06
 0.57220001E+02  0.24198E+06
 0.57270000E+02  0.69403E+06
 0.57320000E+02  0.10102E+07
 0.57370003E+02  0.10263E+07
 0.57420002E+02  0.73060E+06
 0.57470001E+02  0.32142E+06
 0.57520000E+02 -0.12768E+06
 0.57570000E+02 -0.60140E+06
 0.57620003E+02 -0.90549E+06
 0.57670002E+02 -0.89276E+06
 0.57720001E+02 -0.55155E+06
 0.57770000E+02 -0.63532E+05
 0.57820000E+02  0.26006E+06
 0.57870003E+02  0.31151E+06
 0.57920002E+02  0.27184E+06
 0.57970001E+02  0.34292E+06
 0.58020000E+02  0.46852E+06
 0.58070000E+02  0.56096E+06
 0.58120003E+02  0.58339E+06
 0.58170002E+02  0.48809E+06
 0.58220001E+02  0.38137E+06
 0.58270000E+02  0.36610E+06
 0.58320000E+02  0.34678E+06
 0.58370003E+02  0.82705E+05
 0.58420002E+02 -0.50539E+06
 0.58470001E+02 -0.11456E+07
 0.58520000E+02 -0.14793E+07
 0.58570000E+02 -0.12939E+07
 0.58620003E+02 -0.68092E+06
 0.58670002E+02  0.13696E+05
 0.58720001E+02  0.52096E+06
 0.58770000E+02  0.78903E+06
 0.58820000E+02  0.90578E+06
 0.58870003E+02  0.95785E+06
 0.58920002E+02  0.96910E+06
 0.58970001E+02  0.92723E+06
 0.59020000E+02  0.80510E+06
 0.59070000E+02  0.50200E+06
 0.59120003E+02  0.65890E+04
 0.59170002E+02 -0.44746E+06
 0.59220001E+02 -0.65830E+06
 0.59270000E+02 -0.55947E+06
 0.59320000E+02 -0.18526E+06
 0.59370003E+02  0.23807E+06
 0.59420002E+02  0.42617E+06
 0.59470001E+02  0.27251E+06
 0.59520000E+02 -0.10338E+06
 0.59570000E+02 -0.46675E+06
 0.59620003E+02 -0.65275E+06
 0.59670002E+02 -0.58768E+06
 0.59720001E+02 -0.32434E+06
 0.59770000E+02 -0.86036E+05
 0.59820000E+02 -0.85110E+04
 0.59870003E+02 -0.57275E+05
 0.59920002E+02 -0.10710E+06
 0.59970001E+02 -0.30965E+05
 0.60020000E+02  0.12393E+06
 0.60070000E+02  0.21385E+06
 0.60120003E+02  0.19807E+06
 0.60170002E+02  0.18971E+06
 0.60220001E+02  0.26562E+06
 0.60270000E+02  0.37263E+06
 0.60320000E+02  0.52217E+06
 0.60370003E+02  0.69948E+06
 0.60420002E+02  0.76141E+06
 0.60470001E+02  0.62370E+06
 0.60520000E+02  0.34246E+06
 0.60570000E+02  0.80532E+05
 0.60620003E+02 -0.81487E+05
 0.60670002E+02 -0.23496E+06
 0.60720001E+02 -0.42970E+06
 0.60770000E+02 -0.63099E+06
 0.60820000E+02 -0.83234E+06
 0.60870003E+02 -0.96080E+06
 0.60920002E+02 -0.87045E+06
 0.60970001E+02 -0.54052E+06
 0.61020000E+02 -0.83627E+05
 0.61070004E+02  0.34358E+06
 0.61119999E+02  0.55957E+06
 0.61170002E+02  0.48410E+06
 0.61220005E+02  0.19017E+06
 0.61270000E+02 -0.21717E+06
 0.61320004E+02 -0.64379E+06
 0.61369999E+02 -0.10185E+07
 0.61420002E+02 -0.12803E+07
 0.61470005E+02 -0.13961E+07
 0.61520000E+02 -0.13773E+07
 0.61570004E+02 -0.12217E+07
 0.61619999E+02 -0.94626E+06
 0.61670002E+02 -0.62088E+06
 0.61720005E+02 -0.32957E+06
 0.61770000E+02 -0.12057E+06
 0.61820004E+02  0.54840E+04
 0.61869999E+02  0.11269E+06
 0.61920002E+02  0.28193E+06
 0.61970005E+02  0.52603E+06
 0.62020000E+02  0.78805E+06
 0.62070004E+02  0.98481E+06
 0.62119999E+02  0.10328E+07
 0.62170002E+02  0.88536E+06
 0.62220005E+02  0.60442E+06
 0.62270000E+02  0.30370E+06
 0.62320004E+02  0.84211E+05
 0.62369999E+02 -0.19827E+05
 0.62420002E+02 -0.43425E+05
 0.62470005E+02 -0.61006E+05
 0.62520000E+02 -0.12229E+06
 0.62570004E+02 -0.23311E+06
 0.62619999E+02 -0.43053E+06
 0.62670002E+02 -0.65086E+06
 0.62720005E+02 -0.84128E+06
 0.62770000E+02 -0.10008E+07
 0.62820004E+02 -0.10271E+07
 0.62869999E+02 -0.88679E+06
 0.62920002E+02 -0.60577E+06
 0.62970005E+02 -0.20482E+06
 0.63020000E+02  0.26678E+06
 0.63070004E+02  0.72713E+06
 0.63119999E+02  0.10154E+07
 0.63170002E+02  0.97325E+06
 0.63220005E+02  0.60608E+06
 0.63270000E+02  0.13090E+06
 0.63320004E+02 -0.19766E+06
 0.63369999E+02 -0.26099E+06
 0.63420002E+02 -0.82797E+05
 0.63470005E+02  0.24221E+06
 0.63520000E+02  0.56822E+06
 0.63570004E+02  0.75089E+06
 0.63619999E+02  0.75676E+06
 0.63670002E+02  0.60553E+06
 0.63720005E+02  0.34990E+06
 0.63770000E+02  0.10725E+06
 0.63820004E+02 -0.12870E+04
 0.63869999E+02  0.55056E+05
 0.63920002E+02  0.20300E+06
 0.63970005E+02  0.35282E+06
 0.64019997E+02  0.45104E+06
 0.64070000E+02  0.46778E+06
 0.64119995E+02  0.36135E+06
 0.64169998E+02  0.13987E+06
 0.64220001E+02 -0.13404E+06
 0.64269997E+02 -0.40826E+06
 0.64320000E+02 -0.63535E+06
 0.64369995E+02 -0.79330E+06
 0.64419998E+02 -0.88808E+06
 0.64470001E+02 -0.90488E+06
 0.64519997E+02 -0.82997E+06
 0.64570000E+02 -0.71607E+06
 0.64619995E+02 -0.63246E+06
 0.64669998E+02 -0.58928E+06
 0.64720001E+02 -0.55643E+06
 0.64769997E+02 -0.47521E+06
 0.64820000E+02 -0.31356E+06
 0.64869995E+02 -0.16292E+06
 0.64919998E+02 -0.13403E+06
 0.64970001E+02 -0.22994E+06
 0.65019997E+02 -0.35512E+06
 0.65070000E+02 -0.39084E+06
 0.65119995E+02 -0.31753E+06
 0.65169998E+02 -0.20628E+06
 0.65220001E+02 -0.13107E+06
 0.65269997E+02 -0.90356E+05
 0.65320000E+02 -0.11731E+05
 0.65369995E+02  0.14527E+06
 0.65419998E+02  0.36852E+06
 0.65470001E+02  0.61268E+06
 0.65519997E+02  0.79344E+06
 0.65570000E+02  0.83910E+06
 0.65619995E+02  0.73410E+06
 0.65669998E+02  0.49800E+06
 0.65720001E+02  0.21181E+06
 0.65769997E+02 -0.25579E+05
 0.65820000E+02 -0.16121E+06
 0.65869995E+02 -0.16432E+06
 0.65919998E+02 -0.70537E+05
 0.65970001E+02  0.38475E+05
 0.66019997E+02  0.12840E+06
 0.66070000E+02  0.17923E+06
 0.66119995E+02  0.15611E+06
 0.66169998E+02  0.88935E+05
 0.66220001E+02  0.32215E+05
 0.66269997E+02  0.11683E+05
 0.66320000E+02  0.35444E+05
 0.66369995E+02  0.34896E+05
 0.66419998E+02 -0.46188E+05
 0.66470001E+02 -0.16430E+06
 0.66519997E+02 -0.26803E+06
 0.66570000E+02 -0.30729E+06
 0.66619995E+02 -0.24436E+06
 0.66669998E+02 -0.13131E+06
 0.66720001E+02 -0.22744E+05
 0.66769997E+02  0.11083E+06
 0.66820000E+02  0.29577E+06
 0.66869995E+02  0.50008E+06
 0.66919998E+02  0.67755E+06
 0.66970001E+02  0.78760E+06
 0.67019997E+02  0.79032E+06
 0.67070000E+02  0.68452E+06
 0.67119995E+02  0.54671E+06
 0.67169998E+02  0.45043E+06
 0.67220001E+02  0.38243E+06
 0.67269997E+02  0.31228E+06
 0.67320000E+02  0.25190E+06
 0.67369995E+02  0.23013E+06
 0.67419998E+02  0.23934E+06
 0.67470001E+02  0.22776E+06
 0.67519997E+02  0.17833E+06
 0.67570000E+02  0.13430E+06
 0.67619995E+02  0.11701E+06
 0.67669998E+02  0.97167E+05
 0.67720001E+02  0.27552E+05
 0.67769997E+02 -0.12381E+06
 0.67820000E+02 -0.29224E+06
 0.67869995E+02 -0.39066E+06
 0.67919998E+02 -0.43498E+06
 0.67970001E+02 -0.43964E+06
 0.68019997E+02 -0.39597E+06
 0.68070000E+02 -0.32431E+06
 0.68119995E+02 -0.24081E+06
 0.68169998E+02 -0.17909E+06
 0.68220001E+02 -0.19096E+06
 0.68269997E+02 -0.30429E+06
 0.68320000E+02 -0.47486E+06
 0.68369995E+02 -0.62628E+06
 0.68419998E+02 -0.71509E+06
 0.68470001E+02 -0.71846E+06
 0.68519997E+02 -0.64973E+06
 0.68570000E+02 -0.53866E+06
 0.68619995E+02 -0.40034E+06
 0.68669998E+02 -0.24577E+06
 0.68720001E+02 -0.12683E+06
 0.68769997E+02 -0.11202E+06
 0.68820000E+02 -0.18745E+06
 0.68869995E+02 -0.28440E+06
 0.68919998E+02 -0.34296E+06
 0.68970001E+02 -0.32885E+06
 0.69019997E+02 -0.23584E+06
 0.69070000E+02 -0.91120E+05
 0.69119995E+02  0.36601E+05
 0.69169998E+02  0.94911E+05
 0.69220001E+02  0.10941E+06
 0.69269997E+02  0.13136E+06
 0.69320000E+02  0.17463E+06
 0.69369995E+02  0.25670E+06
 0.69419998E+02  0.37810E+06
 0.69470001E+02  0.47324E+06
 0.69519997E+02  0.47256E+06
 0.69570000E+02  0.36010E+06
 0.69619995E+02  0.16938E+06
 0.69669998E+02 -0.52121E+05
 0.69720001E+02 -0.25334E+06
 0.69769997E+02 -0.39744E+06
 0.69820000E+02 -0.50971E+06
 0.69869995E+02 -0.63062E+06
 0.69919998E+02 -0.74991E+06
 0.69970001E+02 -0.83558E+06
 0.70019997E+02 -0.88791E+06
 0.70070000E+02 -0.92655E+06
 0.70119995E+02 -0.93634E+06
 0.70169998E+02 -0.86650E+06
 0.70220001E+02 -0.66778E+06
 0.70269997E+02 -0.35557E+06
 0.70320000E+02 -0.10432E+05
 0.70369995E+02  0.28647E+06
 0.70419998E+02  0.48547E+06
 0.70470001E+02  0.57499E+06
 0.70519997E+02  0.55139E+06
 0.70570000E+02  0.44254E+06
 0.70619995E+02  0.29615E+06
 0.70669998E+02  0.13820E+06
 0.70720001E+02  0.23357E+05
 0.70769997E+02 -0.22945E+05
 0.70820000E+02 -0.34138E+05
 0.70869995E+02 -0.15685E+05
 0.70919998E+02  0.43413E+05
 0.70970001E+02  0.11800E+06
 0.71019997E+02  0.14974E+06
 0.71070000E+02  0.82220E+05
 0.71119995E+02 -0.70121E+05
 0.71169998E+02 -0.19263E+06
 0.71220001E+02 -0.21000E+06
 0.71269997E+02 -0.14019E+06
 0.71320000E+02 -0.23897E+05
 0.71369995E+02  0.97433E+05
 0.71419998E+02  0.21069E+06
 0.71470001E+02  0.31020E+06
 0.71519997E+02  0.37394E+06
 0.71570000E+02  0.37070E+06
 0.71619995E+02  0.28932E+06
 0.71669998E+02  0.17079E+06
 0.71720001E+02  0.10558E+06
 0.71769997E+02  0.16241E+06
 0.71820000E+02  0.32265E+06
 0.71869995E+02  0.49480E+06
 0.71919998E+02  0.58007E+06
 0.71970001E+02  0.56275E+06
 0.72019997E+02  0.48130E+06
 0.72070000E+02  0.37745E+06
 0.72119995E+02  0.28824E+06
 0.72169998E+02  0.23430E+06
 0.72220001E+02  0.23771E+06
 0.72269997E+02  0.31929E+06
 0.72320000E+02  0.46932E+06
 0.72369995E+02  0.61735E+06
 0.72419998E+02  0.66082E+06
 0.72470001E+02  0.52494E+06
 0.72519997E+02  0.20676E+06
 0.72570000E+02 -0.21756E+06
 0.72619995E+02 -0.62421E+06
 0.72669998E+02 -0.89374E+06
 0.72720001E+02 -0.95919E+06
 0.72769997E+02 -0.82571E+06
 0.72820000E+02 -0.58491E+06
 0.72869995E+02 -0.35318E+06
 0.72919998E+02 -0.18121E+06
 0.72970001E+02 -0.57273E+05
 0.73019997E+02  0.32059E+05
 0.73070000E+02  0.75450E+05
 0.73119995E+02  0.72573E+05
 0.73169998E+02  0.60103E+05
 0.73220001E+02  0.86332E+05
 0.73269997E+02  0.18265E+06
 0.73320000E+02  0.33094E+06
 0.73369995E+02  0.44710E+06
 0.73419998E+02  0.46231E+06
 0.73470001E+02  0.37446E+06
 0.73519997E+02  0.21731E+06
 0.73570000E+02  0.41804E+05
 0.73619995E+02 -0.99776E+05
 0.73669998E+02 -0.16825E+06
 0.73720001E+02 -0.13945E+06
 0.73769997E+02 -0.13169E+05
 0.73820000E+02  0.18004E+06
 0.73869995E+02  0.39204E+06
 0.73919998E+02  0.53830E+06
 0.73970001E+02  0.51870E+06
 0.74019997E+02  0.31541E+06
 0.74070000E+02  0.20706E+05
 0.74119995E+02 -0.24585E+06
 0.74169998E+02 -0.42506E+06
 0.74220001E+02 -0.51415E+06
 0.74269997E+02 -0.51393E+06
 0.74320000E+02 -0.44850E+06
 0.74369995E+02 -0.36716E+06
 0.74419998E+02 -0.29926E+06
 0.74470001E+02 -0.26234E+06
 0.74519997E+02 -0.24894E+06
 0.74570000E+02 -0.22776E+06
 0.74619995E+02 -0.15839E+06
 0.74669998E+02 -0.15627E+05
 0.74720001E+02  0.17839E+06
 0.74769997E+02  0.38834E+06
 0.74820000E+02  0.56728E+06
 0.74869995E+02  0.65970E+06
 0.74919998E+02  0.67040E+06
 0.74970001E+02  0.64466E+06
 0.75019997E+02  0.59364E+06
 0.75070000E+02  0.50362E+06
 0.75119995E+02  0.36797E+06
 0.75169998E+02  0.21008E+06
 0.75220001E+02  0.55792E+05
 0.75269997E+02 -0.86973E+05
 0.75320000E+02 -0.20561E+06
 0.75369995E+02 -0.29121E+06
 0.75419998E+02 -0.34317E+06
 0.75470001E+02 -0.35868E+06
 0.75519997E+02 -0.32477E+06
 0.75570000E+02 -0.24724E+06
 0.75619995E+02 -0.15675E+06
 0.75669998E+02 -0.80815E+05
 0.75720001E+02 -0.31275E+05
 0.75769997E+02  0.35530E+04
 0.75820000E+02  0.46346E+05
 0.75869995E+02  0.11807E+06
 0.75919998E+02  0.22836E+06
 0.75970001E+02  0.33971E+06
 0.76019997E+02  0.39002E+06
 0.76070000E+02  0.37136E+06
 0.76119995E+02  0.30814E+06
 0.76169998E+02  0.21220E+06
 0.76220001E+02  0.91692E+05
 0.76269997E+02 -0.50406E+05
 0.76320000E+02 -0.20196E+06
 0.76369995E+02 -0.32885E+06
 0.76419998E+02 -0.38313E+06
 0.76470001E+02 -0.34434E+06
 0.76519997E+02 -0.23689E+06
 0.76570000E+02 -0.88244E+05
 0.76619995E+02  0.73456E+05
 0.76669998E+02  0.20304E+06
 0.76720001E+02  0.24838E+06
 0.76769997E+02  0.19010E+06
 0.76820000E+02  0.61226E+05
 0.76869995E+02 -0.71339E+05
 0.76919998E+02 -0.14355E+06
 0.76970001E+02 -0.13127E+06
 0.77019997E+02 -0.53222E+05
 0.77070000E+02  0.31522E+05
 0.77119995E+02  0.70475E+05
 0.77169998E+02  0.73525E+05
 0.77220001E+02  0.69740E+05
 0.77269997E+02  0.64694E+05
 0.77320000E+02  0.50436E+05
 0.77369995E+02  0.66600E+04
 0.77419998E+02 -0.72826E+05
 0.77470001E+02 -0.16964E+06
 0.77519997E+02 -0.25914E+06
 0.77570000E+02 -0.31931E+06
 0.77619995E+02 -0.34021E+06
 0.77669998E+02 -0.33348E+06
 0.77720001E+02 -0.31884E+06
 0.77769997E+02 -0.30914E+06
 0.77820000E+02 -0.33653E+06
 0.77869995E+02 -0.43326E+06
 0.77919998E+02 -0.59078E+06
 0.77970001E+02 -0.76761E+06
 0.78019997E+02 -0.89958E+06
 0.78070000E+02 -0.92866E+06
 0.78119995E+02 -0.83637E+06
 0.78169998E+02 -0.64786E+06
 0.78220001E+02 -0.41622E+06
 0.78269997E+02 -0.18614E+06
 0.78320000E+02  0.16154E+05
 0.78369995E+02  0.18556E+06
 0.78419998E+02  0.32952E+06
 0.78470001E+02  0.44319E+06
 0.78519997E+02  0.52720E+06
 0.78570000E+02  0.60448E+06
 0.78619995E+02  0.70099E+06
 0.78669998E+02  0.79605E+06
 0.78720001E+02  0.82736E+06
 0.78769997E+02  0.76356E+06
 0.78820000E+02  0.62414E+06
 0.78869995E+02  0.45705E+06
 0.78919998E+02  0.31773E+06
 0.78970001E+02  0.23722E+06
 0.79019997E+02  0.19420E+06
 0.79070000E+02  0.13678E+06
 0.79119995E+02  0.46370E+05
 0.79169998E+02 -0.52181E+05
 0.79220001E+02 -0.13571E+06
 0.79269997E+02 -0.19343E+06
 0.79320000E+02 -0.20918E+06
 0.79369995E+02 -0.18001E+06
 0.79419998E+02 -0.13069E+06
 0.79470001E+02 -0.90192E+05
 0.79519997E+02 -0.81496E+05
 0.79570000E+02 -0.11473E+06
 0.79619995E+02 -0.19253E+06
 0.79669998E+02 -0.30098E+06
 0.79720001E+02 -0.39809E+06
 0.79769997E+02 -0.45883E+06
 0.79820000E+02 -0.48929E+06
 0.79869995E+02 -0.49758E+06
 0.79919998E+02 -0.50190E+06
 0.79970001E+02 -0.53283E+06
 0.80019997E+02 -0.60530E+06
 0.80070000E+02 -0.72093E+06
 0.80119995E+02 -0.86006E+06
 0.80169998E+02 -0.99792E+06
 0.80220001E+02 -0.11200E+07
 0.80269997E+02 -0.11897E+07
 0.80320000E+02 -0.11719E+07
 0.80369995E+02 -0.10614E+07
 0.80419998E+02 -0.89538E+06
 0.80470001E+02 -0.73166E+06
 0.80519997E+02 -0.59918E+06
 0.80570000E+02 -0.49839E+06
 0.80619995E+02 -0.40773E+06
 0.80669998E+02 -0.28748E+06
 0.80720001E+02 -0.11466E+06
 0.80769997E+02  0.96246E+05
 0.80820000E+02  0.32081E+06
 0.80869995E+02  0.53896E+06
 0.80919998E+02  0.72959E+06
 0.80970001E+02  0.86741E+06
 0.81019997E+02  0.92358E+06
 0.81070000E+02  0.90113E+06
 0.81119995E+02  0.83859E+06
 0.81169998E+02  0.77728E+06
 0.81220001E+02  0.75571E+06
 0.81269997E+02  0.77716E+06
 0.81320000E+02  0.79962E+06
 0.81369995E+02  0.77365E+06
 0.81419998E+02  0.66065E+06
 0.81470001E+02  0.46215E+06
 0.81519997E+02  0.22922E+06
 0.81570000E+02  0.34216E+05
 0.81619995E+02 -0.72897E+05
 0.81669998E+02 -0.96752E+05
 0.81720001E+02 -0.75388E+05
 0.81769997E+02 -0.51015E+05
 0.81820000E+02 -0.52942E+05
 0.81869995E+02 -0.97058E+05
 0.81919998E+02 -0.19015E+06
 0.81970001E+02 -0.31238E+06
 0.82019997E+02 -0.42199E+06
 0.82070000E+02 -0.48270E+06
 0.82119995E+02 -0.47609E+06
 0.82169998E+02 -0.40004E+06
 0.82220001E+02 -0.26051E+06
 0.82269997E+02 -0.83378E+05
 0.82320000E+02  0.84191E+05
 0.82369995E+02  0.21101E+06
 0.82419998E+02  0.27976E+06
 0.82470001E+02  0.28170E+06
 0.82519997E+02  0.22800E+06
 0.82570000E+02  0.14738E+06
 0.82619995E+02  0.83811E+05
 0.82669998E+02  0.58153E+05
 0.82720001E+02  0.74333E+05
 0.82769997E+02  0.13408E+06
 0.82820000E+02  0.22136E+06
 0.82869995E+02  0.33278E+06
 0.82919998E+02  0.46382E+06
 0.82970001E+02  0.58408E+06
 0.83019997E+02  0.66515E+06
 0.83070000E+02  0.69095E+06
 0.83119995E+02  0.65872E+06
 0.83169998E+02  0.58597E+06
 0.83220001E+02  0.49036E+06
 0.83269997E+02  0.37923E+06
 0.83320000E+02  0.26316E+06
 0.83369995E+02  0.15871E+06
 0.83419998E+02  0.79602E+05
 0.83470001E+02  0.18720E+05
 0.83519997E+02 -0.33558E+05
 0.83570000E+02 -0.81141E+05
 0.83619995E+02 -0.13891E+06
 0.83669998E+02 -0.20650E+06
 0.83720001E+02 -0.26932E+06
 0.83769997E+02 -0.32258E+06
 0.83820000E+02 -0.36866E+06
 0.83869995E+02 -0.41422E+06
 0.83919998E+02 -0.46154E+06
 0.83970001E+02 -0.50096E+06
 0.84019997E+02 -0.50403E+06
 0.84070000E+02 -0.43618E+06
 0.84119995E+02 -0.29832E+06
 0.84169998E+02 -0.13209E+06
 0.84220001E+02  0.17320E+05
 0.84269997E+02  0.12595E+06
 0.84320000E+02  0.19165E+06
 0.84369995E+02  0.23261E+06
 0.84419998E+02  0.26993E+06
 0.84470001E+02  0.30455E+06
 0.84519997E+02  0.32492E+06
 0.84570000E+02  0.33349E+06
 0.84619995E+02  0.33940E+06
 0.84669998E+02  0.33162E+06
 0.84720001E+02  0.29851E+06
 0.84769997E+02  0.23666E+06
 0.84820000E+02  0.14338E+06
 0.84869995E+02  0.27058E+05
 0.84919998E+02 -0.94337E+05
 0.84970001E+02 -0.19429E+06
 0.85019997E+02 -0.26100E+06
 0.85070000E+02 -0.30366E+06
 0.85119995E+02 -0.32827E+06
 0.85169998E+02 -0.33631E+06
 0.85220001E+02 -0.32685E+06
 0.85269997E+02 -0.31570E+06
 0.85320000E+02 -0.33022E+06
 0.85369995E+02 -0.36816E+06
 0.85419998E+02 -0.39612E+06
 0.85470001E+02 -0.37827E+06
 0.85519997E+02 -0.30354E+06
 0.85570000E+02 -0.19729E+06
 0.85619995E+02 -0.99661E+05
 0.85669998E+02 -0.26820E+05
 0.85720001E+02  0.32812E+05
 0.85769997E+02  0.87109E+05
 0.85820000E+02  0.12562E+06
 0.85869995E+02  0.13442E+06
 0.85919998E+02  0.11253E+06
 0.85970001E+02  0.69865E+05
 0.86019997E+02  0.23361E+05
 0.86070000E+02 -0.81020E+04
 0.86119995E+02 -0.19952E+05
 0.86169998E+02 -0.19611E+05
 0.86220001E+02 -0.18858E+05
 0.86269997E+02 -0.25396E+05
 0.86320000E+02 -0.41816E+05
 0.86369995E+02 -0.65680E+05
 0.86419998E+02 -0.78843E+05
 0.86470001E+02 -0.59955E+05
 0.86519997E+02 -0.97090E+04
 0.86570000E+02  0.53847E+05
 0.86619995E+02  0.12125E+06
 0.86669998E+02  0.18096E+06
 0.86720001E+02  0.22218E+06
 0.86769997E+02  0.24693E+06
 0.86820000E+02  0.26065E+06
 0.86869995E+02  0.27984E+06
 0.86919998E+02  0.31774E+06
 0.86970001E+02  0.36477E+06
 0.87019997E+02  0.39803E+06
 0.87070000E+02  0.38788E+06
 0.87119995E+02  0.32652E+06
 0.87169998E+02  0.23974E+06
 0.87220001E+02  0.16054E+06
 0.87269997E+02  0.10054E+06
 0.87320000E+02  0.41172E+05
 0.87369995E+02 -0.29923E+05
 0.87419998E+02 -0.11835E+06
 0.87470001E+02 -0.21490E+06
 0.87519997E+02 -0.29618E+06
 0.87570000E+02 -0.36420E+06
 0.87619995E+02 -0.42105E+06
 0.87669998E+02 -0.45070E+06
 0.87720001E+02 -0.43383E+06
 0.87769997E+02 -0.36880E+06
 0.87820000E+02 -0.28402E+06
 0.87869995E+02 -0.21557E+06
 0.87919998E+02 -0.18192E+06
 0.87970001E+02 -0.17901E+06
 0.88019997E+02 -0.19564E+06
 0.88070000E+02 -0.21836E+06
 0.88119995E+02 -0.24235E+06
 0.88169998E+02 -0.26850E+06
 0.88220001E+02 -0.28945E+06
 0.88269997E+02 -0.30568E+06
 0.88320000E+02 -0.32143E+06
 0.88369995E+02 -0.33827E+06
 0.88419998E+02 -0.34362E+06
 0.88470001E+02 -0.30927E+06
 0.88519997E+02 -0.21533E+06
 0.88570000E+02 -0.68808E+05
 0.88619995E+02  0.87773E+05
 0.88669998E+02  0.20619E+06
 0.88720001E+02  0.25372E+06
 0.88769997E+02  0.23659E+06
 0.88820000E+02  0.20151E+06
 0.88869995E+02  0.18303E+06
 0.88919998E+02  0.19757E+06
 0.88970001E+02  0.23748E+06
 0.89019997E+02  0.26534E+06
 0.89070000E+02  0.26157E+06
 0.89119995E+02  0.23142E+06
 0.89169998E+02  0.19079E+06
 0.89220001E+02  0.14643E+06
 0.89269997E+02  0.79432E+05
 0.89320000E+02 -0.18833E+05
 0.89369995E+02 -0.14032E+06
 0.89419998E+02 -0.26095E+06
 0.89470001E+02 -0.34036E+06
 0.89519997E+02 -0.35465E+06
 0.89570000E+02 -0.30115E+06
 0.89619995E+02 -0.20178E+06
 0.89669998E+02 -0.85024E+05
 0.89720001E+02  0.28820E+05
 0.89769997E+02  0.11054E+06
 0.89820000E+02  0.14662E+06
 0.89869995E+02  0.14800E+06
 0.89919998E+02  0.14482E+06
 0.89970001E+02  0.16989E+06
 0.90019997E+02  0.22344E+06
 0.90070000E+02  0.28866E+06
 0.90119995E+02  0.34590E+06
 0.90169998E+02  0.37924E+06
 0.90220001E+02  0.38779E+06
 0.90269997E+02  0.38382E+06
 0.90320000E+02  0.38380E+06
 0.90369995E+02  0.37830E+06
 0.90419998E+02  0.33854E+06
 0.90470001E+02  0.26327E+06
 0.90519997E+02  0.18032E+06
 0.90570000E+02  0.10661E+06
 0.90619995E+02  0.38092E+05
 0.90669998E+02 -0.24069E+05
 0.90720001E+02 -0.67969E+05
 0.90769997E+02 -0.85406E+05
 0.90820000E+02 -0.71914E+05
 0.90869995E+02 -0.29669E+05
 0.90919998E+02  0.24717E+05
 0.90970001E+02  0.59172E+05
 0.91019997E+02  0.47848E+05
 0.91070000E+02  0.20440E+04
 0.91119995E+02 -0.47666E+05
 0.91169998E+02 -0.82256E+05
 0.91220001E+02 -0.92532E+05
 0.91269997E+02 -0.74698E+05
 0.91320000E+02 -0.41456E+05
 0.91369995E+02 -0.23050E+05
 0.91419998E+02 -0.39583E+05
 0.91470001E+02 -0.90814E+05
 0.91519997E+02 -0.16726E+06
 0.91570000E+02 -0.25265E+06
 0.91619995E+02 -0.32972E+06
 0.91669998E+02 -0.39433E+06
 0.91720001E+02 -0.45130E+06
 0.91769997E+02 -0.49367E+06
 0.91820000E+02 -0.50526E+06
 0.91869995E+02 -0.46952E+06
 0.91919998E+02 -0.38437E+06
 0.91970001E+02 -0.27181E+06
 0.92019997E+02 -0.16097E+06
 0.92070000E+02 -0.72831E+05
 0.92119995E+02 -0.70360E+04
 0.92169998E+02  0.47507E+05
 0.92220001E+02  0.97249E+05
 0.92269997E+02  0.14001E+06
 0.92320000E+02  0.16688E+06
 0.92369995E+02  0.18276E+06
 0.92419998E+02  0.19871E+06
 0.92470001E+02  0.21332E+06
 0.92519997E+02  0.22018E+06
 0.92570000E+02  0.20960E+06
 0.92619995E+02  0.16919E+06
 0.92669998E+02  0.10538E+06
 0.92720001E+02  0.47406E+05
 0.92769997E+02  0.20329E+05
 0.92820000E+02  0.26543E+05
 0.92869995E+02  0.43354E+05
 0.92919998E+02  0.41621E+05
 0.92970001E+02  0.86570E+04
 0.93019997E+02 -0.51370E+05
 0.93070000E+02 -0.12428E+06
 0.93119995E+02 -0.19281E+06
 0.93169998E+02 -0.24982E+06
 0.93220001E+02 -0.30020E+06
 0.93269997E+02 -0.34472E+06
 0.93320000E+02 -0.37797E+06
 0.93369995E+02 -0.39440E+06
 0.93419998E+02 -0.38970E+06
 0.93470001E+02 -0.36667E+06
 0.93519997E+02 -0.32876E+06
 0.93570000E+02 -0.27687E+06
 0.93619995E+02 -0.21670E+06
 0.93669998E+02 -0.15365E+06
 0.93720001E+02 -0.94351E+05
 0.93769997E+02 -0.49403E+05
 0.93820000E+02 -0.23576E+05
 0.93869995E+02 -0.15996E+05
 0.93919998E+02 -0.22054E+05
 0.93970001E+02 -0.37168E+05
 0.94019997E+02 -0.56842E+05
 0.94070000E+02 -0.73952E+05
 0.94119995E+02 -0.84176E+05
 0.94169998E+02 -0.82386E+05
 0.94220001E+02 -0.60362E+05
 0.94269997E+02 -0.16041E+05
 0.94320000E+02  0.35837E+05
 0.94369995E+02  0.70578E+05
 0.94419998E+02  0.79854E+05
 0.94470001E+02  0.84193E+05
 0.94519997E+02  0.10783E+06
 0.94570000E+02  0.15141E+06
 0.94619995E+02  0.19189E+06
 0.94669998E+02  0.19795E+06
 0.94720001E+02  0.15158E+06
 0.94769997E+02  0.62726E+05
 0.94820000E+02 -0.31444E+05
 0.94869995E+02 -0.97701E+05
 0.94919998E+02 -0.13015E+06
 0.94970001E+02 -0.13731E+06
 0.95019997E+02 -0.12933E+06
 0.95070000E+02 -0.10862E+06
 0.95119995E+02 -0.66711E+05
 0.95169998E+02  0.18340E+04
 0.95220001E+02  0.86025E+05
 0.95269997E+02  0.16283E+06
 0.95320000E+02  0.21471E+06
 0.95369995E+02  0.24233E+06
 0.95419998E+02  0.26399E+06
 0.95470001E+02  0.29662E+06
 0.95519997E+02  0.33436E+06
 0.95570000E+02  0.35336E+06
 0.95619995E+02  0.33455E+06
 0.95669998E+02  0.27637E+06
 0.95720001E+02  0.18875E+06
 0.95769997E+02  0.90072E+05
 0.95820000E+02 -0.53700E+04
 0.95869995E+02 -0.92268E+05
 0.95919998E+02 -0.15834E+06
 0.95970001E+02 -0.19071E+06
 0.96019997E+02 -0.18950E+06
 0.96070000E+02 -0.17676E+06
 0.96119995E+02 -0.18320E+06
 0.96169998E+02 -0.22487E+06
 0.96220001E+02 -0.29462E+06
 0.96269997E+02 -0.36135E+06
 0.96320000E+02 -0.39943E+06
 0.96369995E+02 -0.40789E+06
 0.96419998E+02 -0.39022E+06
 0.96470001E+02 -0.34572E+06
 0.96519997E+02 -0.27775E+06
 0.96570000E+02 -0.19529E+06
 0.96619995E+02 -0.10790E+06
 0.96669998E+02 -0.17302E+05
 0.96720001E+02  0.76928E+05
 0.96769997E+02  0.17320E+06
 0.96820000E+02  0.27400E+06
 0.96869995E+02  0.37582E+06
 0.96919998E+02  0.46308E+06
 0.96970001E+02  0.51774E+06
 0.97019997E+02  0.53455E+06
 0.97070000E+02  0.52404E+06
 0.97119995E+02  0.48904E+06
 0.97169998E+02  0.42613E+06
 0.97220001E+02  0.34994E+06
 0.97269997E+02  0.28231E+06
 0.97320000E+02  0.23476E+06
 0.97369995E+02  0.21352E+06
 0.97419998E+02  0.22366E+06
 0.97470001E+02  0.25656E+06
 0.97519997E+02  0.29416E+06
 0.97570000E+02  0.32810E+06
 0.97619995E+02  0.35259E+06
 0.97669998E+02  0.36049E+06
 0.97720001E+02  0.34470E+06
 0.97769997E+02  0.30183E+06
 0.97820000E+02  0.23598E+06
 0.97869995E+02  0.14708E+06
 0.97919998E+02  0.40821E+05
 0.97970001E+02 -0.60404E+05
 0.98019997E+02 -0.13065E+06
 0.98070000E+02 -0.15914E+06
 0.98119995E+02 -0.15619E+06
 0.98169998E+02 -0.13968E+06
 0.98220001E+02 -0.12708E+06
 0.98269997E+02 -0.13016E+06
 0.98320000E+02 -0.14469E+06
 0.98369995E+02 -0.15304E+06
 0.98419998E+02 -0.14312E+06
 0.98470001E+02 -0.11495E+06
 0.98519997E+02 -0.71990E+05
 0.98570000E+02 -0.16099E+05
 0.98619995E+02  0.54114E+05
 0.98669998E+02  0.12666E+06
 0.98720001E+02  0.18208E+06
 0.98769997E+02  0.21775E+06
 0.98820000E+02  0.23603E+06
 0.98869995E+02  0.23701E+06
 0.98919998E+02  0.22657E+06
 0.98970001E+02  0.21791E+06
 0.99019997E+02  0.22260E+06
 0.99070000E+02  0.24021E+06
 0.99119995E+02  0.25827E+06
 0.99169998E+02  0.26493E+06
 0.99220001E+02  0.25745E+06
 0.99269997E+02  0.22886E+06
 0.99320000E+02  0.17033E+06
 0.99369995E+02  0.86532E+05
 0.99419998E+02 -0.46810E+04
 0.99470001E+02 -0.89346E+05
 0.99519997E+02 -0.16791E+06
 0.99570000E+02 -0.24334E+06
 0.99619995E+02 -0.30639E+06
 0.99669998E+02 -0.34065E+06
 0.99720001E+02 -0.33722E+06
 0.99769997E+02 -0.29935E+06
 0.99820000E+02 -0.24401E+06
 0.99869995E+02 -0.19151E+06
 0.99919998E+02 -0.14863E+06
 0.99970001E+02 -0.10712E+06
 0.10002000E+03 -0.59513E+05
 0.10007000E+03 -0.65980E+04
 0.10012000E+03  0.44414E+05
 0.10017000E+03  0.82736E+05
 0.10022000E+03  0.10411E+06
 0.10027000E+03  0.11310E+06
 0.10032000E+03  0.11252E+06
 0.10037000E+03  0.98132E+05
 0.10042000E+03  0.69752E+05
 0.10047000E+03  0.33361E+05
 0.10052000E+03 -0.74730E+04
 0.10057000E+03 -0.49259E+05
 0.10062000E+03 -0.86003E+05
 0.10067000E+03 -0.11327E+06
 0.10072000E+03 -0.13185E+06
 0.10077000E+03 -0.14360E+06
 0.10082000E+03 -0.14917E+06
 0.10087000E+03 -0.15772E+06
 0.10092000E+03 -0.17716E+06
 0.10097000E+03 -0.20247E+06
 0.10102000E+03 -0.22439E+06
 0.10107000E+03 -0.23237E+06
 0.10112000E+03 -0.22618E+06
 0.10117000E+03 -0.21824E+06
 0.10122000E+03 -0.21136E+06
 0.10127000E+03 -0.20177E+06
 0.10132000E+03 -0.19116E+06
 0.10137000E+03 -0.17751E+06
 0.10142000E+03 -0.15916E+06
 0.10147000E+03 -0.13729E+06
 0.10152000E+03 -0.11688E+06
 0.10157000E+03 -0.10340E+06
 0.10162000E+03 -0.93912E+05
 0.10167000E+03 -0.85630E+05
 0.10172000E+03 -0.71219E+05
 0.10177000E+03 -0.47108E+05
 0.10182000E+03 -0.23101E+05
 0.10187000E+03 -0.12883E+05
 0.10192000E+03 -0.23225E+05
 0.10197000E+03 -0.43789E+05
 0.10202000E+03 -0.59268E+05
 0.10207000E+03 -0.57474E+05
 0.10212000E+03 -0.37488E+05
 0.10217000E+03 -0.14384E+05
 0.10222000E+03 -0.21780E+04
 0.10227000E+03 -0.86200E+03
 0.10232000E+03 -0.41510E+04
 0.10237000E+03 -0.11357E+05
 0.10242000E+03 -0.19218E+05
 0.10247000E+03 -0.22242E+05
 0.10252000E+03 -0.19030E+05
 0.10257000E+03 -0.98880E+04
 0.10262000E+03  0.27700E+04
 0.10267000E+03  0.17814E+05
 0.10272000E+03  0.35204E+05
 0.10277000E+03  0.50255E+05
 0.10282000E+03  0.52777E+05
 0.10287000E+03  0.30455E+05
 0.10292000E+03 -0.24988E+05
 0.10297000E+03 -0.10668E+06
 0.10302000E+03 -0.19610E+06
 0.10307000E+03 -0.27932E+06
 0.10312000E+03 -0.34466E+06
 0.10317000E+03 -0.38192E+06
 0.10322000E+03 -0.38616E+06
 0.10327000E+03 -0.35627E+06
 0.10332000E+03 -0.30258E+06
 0.10337000E+03 -0.24333E+06
 0.10342000E+03 -0.19206E+06
 0.10347000E+03 -0.14919E+06
 0.10352000E+03 -0.10469E+06
 0.10357000E+03 -0.54141E+05
 0.10362000E+03 -0.58920E+04
 0.10367000E+03  0.31869E+05
 0.10372000E+03  0.58966E+05
 0.10377000E+03  0.78457E+05
 0.10382000E+03  0.94677E+05
 0.10387000E+03  0.10369E+06
 0.10392000E+03  0.96786E+05
 0.10397000E+03  0.71483E+05
 0.10402000E+03  0.38490E+05
 0.10407000E+03  0.13553E+05
 0.10412000E+03  0.30290E+04
 0.10417000E+03  0.80830E+04
 0.10422000E+03  0.23759E+05
 0.10427000E+03  0.47234E+05
 0.10432000E+03  0.70674E+05
 0.10437000E+03  0.80158E+05
 0.10442000E+03  0.78315E+05
 0.10447000E+03  0.76625E+05
 0.10452000E+03  0.81908E+05
 0.10457000E+03  0.92559E+05
 0.10462000E+03  0.10556E+06
 0.10467000E+03  0.11972E+06
 0.10472000E+03  0.12728E+06
 0.10477000E+03  0.12072E+06
 0.10482000E+03  0.10540E+06
 0.10487000E+03  0.93735E+05
 0.10492000E+03  0.87565E+05
 0.10497000E+03  0.82443E+05
 0.10502000E+03  0.82167E+05
 0.10507000E+03  0.87406E+05
 0.10512000E+03  0.89240E+05
 0.10517000E+03  0.75931E+05
 0.10522000E+03  0.38709E+05
 0.10527000E+03 -0.16266E+05
 0.10532000E+03 -0.73630E+05
 0.10537000E+03 -0.11459E+06
 0.10542000E+03 -0.12295E+06
 0.10547000E+03 -0.96701E+05
 0.10552000E+03 -0.47740E+05
 0.10557000E+03  0.59680E+04
 0.10562000E+03  0.51029E+05
 0.10567000E+03  0.75720E+05
 0.10572000E+03  0.76113E+05
 0.10577000E+03  0.56793E+05
 0.10582000E+03  0.15542E+05
 0.10587000E+03 -0.49060E+05
 0.10592000E+03 -0.12843E+06
 0.10597000E+03 -0.20787E+06
 0.10602000E+03 -0.26408E+06
 0.10607000E+03 -0.28159E+06
 0.10612000E+03 -0.26918E+06
 0.10617000E+03 -0.24110E+06
 0.10622000E+03 -0.20985E+06
 0.10627000E+03 -0.18143E+06
 0.10632000E+03 -0.15491E+06
 0.10637000E+03 -0.12961E+06
 0.10642000E+03 -0.10133E+06
 0.10647000E+03 -0.74750E+05
 0.10652000E+03 -0.54301E+05
 0.10657000E+03 -0.33728E+05
 0.10662000E+03 -0.73990E+04
 0.10667000E+03  0.28057E+05
 0.10672000E+03  0.66441E+05
 0.10677000E+03  0.94339E+05
 0.10682000E+03  0.10213E+06
 0.10687000E+03  0.90316E+05
 0.10692000E+03  0.68319E+05
 0.10697000E+03  0.48922E+05
 0.10702000E+03  0.47771E+05
 0.10707000E+03  0.71788E+05
 0.10712000E+03  0.11338E+06
 0.10717000E+03  0.15964E+06
 0.10722000E+03  0.19346E+06
 0.10727000E+03  0.19825E+06
 0.10732000E+03  0.17370E+06
 0.10737000E+03  0.13647E+06
 0.10742000E+03  0.10305E+06
 0.10747000E+03  0.81228E+05
 0.10752000E+03  0.68571E+05
 0.10757000E+03  0.53687E+05
 0.10762000E+03  0.29917E+05
 0.10767000E+03  0.38050E+04
 0.10772000E+03 -0.12557E+05
 0.10777000E+03 -0.13378E+05
 0.10782000E+03 -0.34860E+04
 0.10787000E+03  0.45350E+04
 0.10792000E+03  0.25470E+04
 0.10797000E+03 -0.56000E+03
 0.10802000E+03  0.10936E+05
 0.10807000E+03  0.43411E+05
 0.10812000E+03  0.87222E+05
 0.10817000E+03  0.12315E+06
 0.10822000E+03  0.13833E+06
 0.10827000E+03  0.13457E+06
 0.10832000E+03  0.12722E+06
 0.10837000E+03  0.12957E+06
 0.10842000E+03  0.13683E+06
 0.10847000E+03  0.13264E+06
 0.10852000E+03  0.11103E+06
 0.10857000E+03  0.79359E+05
 0.10862000E+03  0.49305E+05
 0.10867000E+03  0.29563E+05
 0.10872000E+03  0.17106E+05
 0.10877000E+03  0.81720E+04
 0.10882000E+03  0.48970E+04
 0.10887000E+03  0.91060E+04
 0.10892000E+03  0.13866E+05
 0.10897000E+03  0.81990E+04
 0.10902000E+03 -0.79180E+04
 0.10907000E+03 -0.26234E+05
 0.10912000E+03 -0.36731E+05
 0.10917000E+03 -0.34786E+05
 0.10922000E+03 -0.20215E+05
 0.10927000E+03  0.58680E+04
 0.10932000E+03  0.38591E+05
 0.10937000E+03  0.75333E+05
 0.10942000E+03  0.11370E+06
 0.10947000E+03  0.14171E+06
 0.10952000E+03  0.14415E+06
 0.10957000E+03  0.11950E+06
 0.10962000E+03  0.83225E+05
 0.10967000E+03  0.51034E+05
 0.10972000E+03  0.25366E+05
 0.10977000E+03 -0.95000E+03
 0.10982000E+03 -0.35414E+05
 0.10987000E+03 -0.79728E+05
 0.10992000E+03 -0.13066E+06
 0.10997000E+03 -0.18418E+06
 0.11002000E+03 -0.23672E+06
 0.11007000E+03 -0.27962E+06
 0.11012000E+03 -0.30156E+06
 0.11017000E+03 -0.29701E+06
 0.11022000E+03 -0.26675E+06
 0.11027000E+03 -0.21912E+06
 0.11032000E+03 -0.16181E+06
 0.11037000E+03 -0.96880E+05
 0.11042000E+03 -0.27747E+05
 0.11047000E+03  0.38649E+05
 0.11052000E+03  0.94903E+05
 0.11057000E+03  0.13394E+06
 0.11062000E+03  0.14530E+06
 0.11067000E+03  0.12466E+06
 0.11072000E+03  0.81416E+05
 0.11077000E+03  0.34014E+05
 0.11082000E+03  0.64200E+03
 0.11087000E+03 -0.95570E+04
 0.11092000E+03  0.34520E+04
 0.11097000E+03  0.31235E+05
 0.11102000E+03  0.62563E+05
 0.11107000E+03  0.84931E+05
 0.11112000E+03  0.90212E+05
 0.11117000E+03  0.76138E+05
 0.11122000E+03  0.41881E+05
 0.11127000E+03 -0.63960E+04
 0.11132000E+03 -0.56629E+05
 0.11137000E+03 -0.91670E+05
 0.11142000E+03 -0.10163E+06
 0.11147000E+03 -0.91948E+05
 0.11152000E+03 -0.72555E+05
 0.11157000E+03 -0.54836E+05
 0.11162000E+03 -0.42981E+05
 0.11167000E+03 -0.33546E+05
 0.11172000E+03 -0.29002E+05
 0.11177000E+03 -0.36068E+05
 0.11182000E+03 -0.56072E+05
 0.11187000E+03 -0.83101E+05
 0.11192000E+03 -0.11108E+06
 0.11197000E+03 -0.12857E+06
 0.11202000E+03 -0.12414E+06
 0.11207000E+03 -0.97798E+05
 0.11212000E+03 -0.55911E+05
 0.11217000E+03 -0.10715E+05
 0.11222000E+03  0.29582E+05
 0.11227000E+03  0.59727E+05
 0.11232000E+03  0.72074E+05
 0.11237000E+03  0.65730E+05
 0.11242000E+03  0.50707E+05
 0.11247000E+03  0.44185E+05
 0.11252000E+03  0.53474E+05
 0.11257000E+03  0.67993E+05
 0.11262000E+03  0.74545E+05
 0.11267000E+03  0.69225E+05
 0.11272000E+03  0.56305E+05
 0.11277000E+03  0.42596E+05
 0.11282000E+03  0.33312E+05
 0.11287000E+03  0.30835E+05
 0.11292000E+03  0.27370E+05
 0.11297000E+03  0.13603E+05
 0.11302000E+03 -0.11110E+05
 0.11307000E+03 -0.40321E+05
 0.11312000E+03 -0.60391E+05
 0.11317000E+03 -0.64022E+05
 0.11322000E+03 -0.51118E+05
 0.11327000E+03 -0.22921E+05
 0.11332000E+03  0.19898E+05
 0.11337000E+03  0.75573E+05
 0.11342000E+03  0.13328E+06
 0.11347000E+03  0.18121E+06
 0.11352000E+03  0.21103E+06
 0.11357000E+03  0.21500E+06
 0.11362000E+03  0.19375E+06
 0.11367000E+03  0.16174E+06
 0.11372000E+03  0.13656E+06
 0.11377000E+03  0.12582E+06
 0.11382000E+03  0.12536E+06
 0.11387000E+03  0.12546E+06
 0.11392000E+03  0.12081E+06
 0.11397000E+03  0.11427E+06
 0.11402000E+03  0.10868E+06
 0.11407000E+03  0.10211E+06
 0.11412000E+03  0.88961E+05
 0.11417000E+03  0.66099E+05
 0.11422000E+03  0.39261E+05
 0.11427000E+03  0.19195E+05
 0.11432000E+03  0.15473E+05
 0.11437000E+03  0.25179E+05
 0.11442000E+03  0.39595E+05
 0.11447000E+03  0.59864E+05
 0.11452000E+03  0.89437E+05
 0.11457000E+03  0.12354E+06
 0.11462000E+03  0.15004E+06
 0.11467000E+03  0.15728E+06
 0.11472000E+03  0.13886E+06
 0.11477000E+03  0.99713E+05
 0.11482000E+03  0.54205E+05
 0.11487000E+03  0.17048E+05
 0.11492000E+03 -0.55030E+04
 0.11497000E+03 -0.17528E+05
 0.11502000E+03 -0.21830E+05
 0.11507000E+03 -0.22783E+05
 0.11512000E+03 -0.27488E+05
 0.11517000E+03 -0.45982E+05
 0.11522000E+03 -0.87131E+05
 0.11527000E+03 -0.14532E+06
 0.11532000E+03 -0.20698E+06
 0.11537000E+03 -0.25405E+06
 0.11542000E+03 -0.27293E+06
 0.11547000E+03 -0.26451E+06
 0.11552000E+03 -0.23890E+06
 0.11557000E+03 -0.20797E+06
 0.11562000E+03 -0.18090E+06
 0.11567000E+03 -0.15900E+06
 0.11572000E+03 -0.13096E+06
 0.11577000E+03 -0.86033E+05
 0.11582000E+03 -0.23088E+05
 0.11587000E+03  0.50082E+05
 0.11592000E+03  0.12122E+06
 0.11597000E+03  0.17991E+06
 0.11602000E+03  0.22013E+06
 0.11607000E+03  0.24273E+06
 0.11612000E+03  0.24826E+06
 0.11617000E+03  0.23720E+06
 0.11622000E+03  0.21168E+06
 0.11627000E+03  0.17763E+06
 0.11632000E+03  0.14721E+06
 0.11637000E+03  0.12740E+06
 0.11642000E+03  0.12018E+06
 0.11647000E+03  0.11987E+06
 0.11652000E+03  0.11700E+06
 0.11657000E+03  0.11013E+06
 0.11662000E+03  0.98926E+05
 0.11667000E+03  0.84293E+05
 0.11672000E+03  0.66023E+05
 0.11677000E+03  0.44528E+05
 0.11682000E+03  0.28499E+05
 0.11687000E+03  0.22927E+05
 0.11692000E+03  0.22410E+05
 0.11697000E+03  0.18384E+05
 0.11702000E+03  0.27740E+04
 0.11707000E+03 -0.27564E+05
 0.11712000E+03 -0.66922E+05
 0.11717000E+03 -0.10640E+06
 0.11722000E+03 -0.13984E+06
 0.11727000E+03 -0.16512E+06
 0.11732000E+03 -0.17707E+06
 0.11737000E+03 -0.16838E+06
 0.11742000E+03 -0.14387E+06
 0.11747000E+03 -0.11646E+06
 0.11752000E+03 -0.93128E+05
 0.11757000E+03 -0.78615E+05
 0.11762000E+03 -0.78565E+05
 0.11767000E+03 -0.93930E+05
 0.11772000E+03 -0.12015E+06
 0.11777000E+03 -0.14766E+06
 0.11782000E+03 -0.16674E+06
 0.11787000E+03 -0.17254E+06
 0.11792000E+03 -0.16688E+06
 0.11797000E+03 -0.15372E+06
 0.11802000E+03 -0.13264E+06
 0.11807000E+03 -0.10342E+06
 0.11812000E+03 -0.70530E+05
 0.11817000E+03 -0.42178E+05
 0.11822000E+03 -0.28234E+05
 0.11827000E+03 -0.34368E+05
 0.11832000E+03 -0.56811E+05
 0.11837000E+03 -0.85798E+05
 0.11842000E+03 -0.10677E+06
 0.11847000E+03 -0.10244E+06
 0.11852000E+03 -0.69920E+05
 0.11857000E+03 -0.20794E+05
 0.11862000E+03  0.31855E+05
 0.11867000E+03  0.72369E+05
 0.11872000E+03  0.92582E+05
 0.11877000E+03  0.98690E+05
 0.11882000E+03  0.10116E+06
 0.11887000E+03  0.10302E+06
 0.11892000E+03  0.98050E+05
 0.11897000E+03  0.85398E+05
 0.11902000E+03  0.72674E+05
 0.11907000E+03  0.67564E+05
 0.11912000E+03  0.72472E+05
 0.11917000E+03  0.77241E+05
 0.11922000E+03  0.66362E+05
 0.11927000E+03  0.37165E+05
 0.11932000E+03 -0.20900E+04
 0.11937000E+03 -0.43132E+05
 0.11942000E+03 -0.78733E+05
 0.11947000E+03 -0.10842E+06
 0.11952000E+03 -0.13679E+06
 0.11957000E+03 -0.16764E+06
 0.11962000E+03 -0.20535E+06
 0.11967000E+03 -0.24755E+06
 0.11972000E+03 -0.28434E+06
 0.11977000E+03 -0.30457E+06
 0.11982000E+03 -0.30560E+06
 0.11987000E+03 -0.29537E+06
 0.11992000E+03 -0.28126E+06
 0.11997000E+03 -0.26782E+06
 0.12002000E+03 -0.25903E+06
 0.12007000E+03 -0.26063E+06
 0.12012000E+03 -0.27007E+06
 0.12017000E+03 -0.27195E+06
 0.12022000E+03 -0.25131E+06
 0.12027000E+03 -0.20144E+06
 0.12032000E+03 -0.13250E+06
 0.12037000E+03 -0.66417E+05
 0.12042000E+03 -0.21423E+05
 0.12047000E+03 -0.38230E+04
 0.12052000E+03 -0.33060E+04
 0.12057000E+03 -0.34580E+04
 0.12062000E+03  0.20620E+04
 0.12067000E+03  0.77550E+04
 0.12072000E+03  0.92610E+04
 0.12077000E+03  0.13149E+05
 0.12082000E+03  0.26993E+05
 0.12087000E+03  0.48838E+05
 0.12092000E+03  0.71300E+05
 0.12097000E+03  0.87253E+05
 0.12102000E+03  0.93713E+05
 0.12107000E+03  0.91140E+05
 0.12112000E+03  0.79975E+05
 0.12117000E+03  0.63756E+05
 0.12122000E+03  0.48267E+05
 0.12127000E+03  0.38088E+05
 0.12132000E+03  0.34393E+05
 0.12137000E+03  0.30762E+05
 0.12142000E+03  0.22281E+05
 0.12147000E+03  0.10518E+05
 0.12152000E+03  0.54700E+03
 0.12157000E+03  0.22700E+04
 0.12162000E+03  0.20250E+05
 0.12167000E+03  0.50452E+05
 0.12172000E+03  0.82718E+05
 0.12177000E+03  0.10687E+06
 0.12182000E+03  0.12023E+06
 0.12187000E+03  0.12258E+06
 0.12192000E+03  0.12082E+06
 0.12197000E+03  0.12335E+06
 0.12202000E+03  0.13088E+06
 0.12207000E+03  0.14571E+06
 0.12212000E+03  0.16740E+06
 0.12217000E+03  0.18588E+06
 0.12222000E+03  0.18826E+06
 0.12227000E+03  0.16842E+06
 0.12232000E+03  0.13247E+06
 0.12237000E+03  0.88717E+05
 0.12242000E+03  0.44047E+05
 0.12247000E+03  0.80340E+04
 0.12252000E+03 -0.11985E+05
 0.12257000E+03 -0.13427E+05
 0.12262000E+03  0.45100E+03
 0.12267000E+03  0.24051E+05
 0.12272000E+03  0.50963E+05
 0.12277000E+03  0.72024E+05
 0.12282000E+03  0.77517E+05
 0.12287000E+03  0.63502E+05
 0.12292000E+03  0.33250E+05
 0.12297000E+03 -0.59080E+04
 0.12302000E+03 -0.41358E+05
 0.12307000E+03 -0.61268E+05
 0.12312000E+03 -0.61327E+05
 0.12317000E+03 -0.46137E+05
 0.12322000E+03 -0.23661E+05
 0.12327000E+03 -0.32950E+04
 0.12332000E+03  0.76830E+04
 0.12337000E+03  0.11794E+05
 0.12342000E+03  0.13796E+05
 0.12347000E+03  0.16628E+05
 0.12352000E+03  0.22719E+05
 0.12357000E+03  0.33890E+05
 0.12362000E+03  0.48934E+05
 0.12367000E+03  0.61320E+05
 0.12372000E+03  0.66178E+05
 0.12377000E+03  0.65318E+05
 0.12382000E+03  0.65210E+05
 0.12387000E+03  0.70082E+05
 0.12392000E+03  0.77237E+05
 0.12397000E+03  0.81351E+05
 0.12402000E+03  0.77821E+05
 0.12407000E+03  0.63559E+05
 0.12412000E+03  0.37591E+05
 0.12417000E+03 -0.11330E+04
 0.12422000E+03 -0.53758E+05
 0.12427000E+03 -0.11712E+06
 0.12432000E+03 -0.17882E+06
 0.12437000E+03 -0.22801E+06
 0.12442000E+03 -0.26179E+06
 0.12447000E+03 -0.28021E+06
 0.12452000E+03 -0.29201E+06
 0.12457000E+03 -0.30534E+06
 0.12462000E+03 -0.31567E+06
 0.12467000E+03 -0.30994E+06
 0.12472000E+03 -0.27950E+06
 0.12477000E+03 -0.22788E+06
 0.12482000E+03 -0.16091E+06
 0.12487000E+03 -0.86177E+05
 0.12492000E+03 -0.12888E+05
 0.12497000E+03  0.54433E+05
 0.12502000E+03  0.11322E+06
 0.12507000E+03  0.15998E+06
 0.12512000E+03  0.19318E+06
 0.12517001E+03  0.21520E+06
 0.12521999E+03  0.22977E+06
 0.12527000E+03  0.23914E+06
 0.12532000E+03  0.24468E+06
 0.12537000E+03  0.24994E+06
 0.12542001E+03  0.25655E+06
 0.12546999E+03  0.26299E+06
 0.12552000E+03  0.26587E+06
 0.12557000E+03  0.26453E+06
 0.12562000E+03  0.26316E+06
 0.12567001E+03  0.26322E+06
 0.12571999E+03  0.26342E+06
 0.12577000E+03  0.25750E+06
 0.12582000E+03  0.23784E+06
 0.12587000E+03  0.20328E+06
 0.12592001E+03  0.15968E+06
 0.12596999E+03  0.12073E+06
 0.12602000E+03  0.97041E+05
 0.12607000E+03  0.90110E+05
 0.12612000E+03  0.96936E+05
 0.12617001E+03  0.10868E+06
 0.12621999E+03  0.11544E+06
 0.12627000E+03  0.11140E+06
 0.12632000E+03  0.97125E+05
 0.12637000E+03  0.79376E+05
 0.12642001E+03  0.64638E+05
 0.12646999E+03  0.55895E+05
 0.12652000E+03  0.49769E+05
 0.12657000E+03  0.39757E+05
 0.12662000E+03  0.21210E+05
 0.12667001E+03 -0.44270E+04
 0.12671999E+03 -0.27278E+05
 0.12677000E+03 -0.36560E+05
 0.12682000E+03 -0.28582E+05
 0.12687000E+03 -0.10649E+05
 0.12692001E+03  0.53510E+04
 0.12696999E+03  0.10105E+05
 0.12702000E+03 -0.67800E+03
 0.12707000E+03 -0.26797E+05
 0.12712000E+03 -0.64814E+05
 0.12717001E+03 -0.10410E+06
 0.12721999E+03 -0.13328E+06
 0.12727000E+03 -0.14435E+06
 0.12732000E+03 -0.13520E+06
 0.12737000E+03 -0.11554E+06
 0.12742001E+03 -0.95955E+05
 0.12746999E+03 -0.81638E+05
 0.12752000E+03 -0.74627E+05
 0.12757000E+03 -0.77297E+05
 0.12762000E+03 -0.89502E+05
 0.12767001E+03 -0.10498E+06
 0.12771999E+03 -0.11870E+06
 0.12777000E+03 -0.12740E+06
 0.12782000E+03 -0.13156E+06
 0.12787000E+03 -0.13174E+06
 0.12792001E+03 -0.12766E+06
 0.12796999E+03 -0.12349E+06
 0.12802000E+03 -0.12277E+06
 0.12807001E+03 -0.12424E+06
 0.12812001E+03 -0.12223E+06
 0.12817001E+03 -0.11375E+06
 0.12822000E+03 -0.97310E+05
 0.12827000E+03 -0.73015E+05
 0.12832001E+03 -0.43670E+05
 0.12837001E+03 -0.10731E+05
 0.12842001E+03  0.20786E+05
 0.12847000E+03  0.44142E+05
 0.12852000E+03  0.54557E+05
 0.12857001E+03  0.53573E+05
 0.12862001E+03  0.46257E+05
 0.12867001E+03  0.36680E+05
 0.12872000E+03  0.30095E+05
 0.12877000E+03  0.29605E+05
 0.12882001E+03  0.36095E+05
 0.12887001E+03  0.46819E+05
 0.12892001E+03  0.54395E+05
 0.12897000E+03  0.48091E+05
 0.12902000E+03  0.22944E+05
 0.12907001E+03 -0.16951E+05
 0.12912001E+03 -0.60674E+05
 0.12917001E+03 -0.91818E+05
 0.12922000E+03 -0.10158E+06
 0.12927000E+03 -0.91756E+05
 0.12932001E+03 -0.72470E+05
 0.12937001E+03 -0.57460E+05
 0.12942001E+03 -0.56782E+05
 0.12947000E+03 -0.70943E+05
 0.12952000E+03 -0.92495E+05
 0.12957001E+03 -0.11753E+06
 0.12962001E+03 -0.14338E+06
 0.12967001E+03 -0.16614E+06
 0.12972000E+03 -0.18012E+06
 0.12977000E+03 -0.17661E+06
 0.12982001E+03 -0.15247E+06
 0.12987001E+03 -0.11196E+06
 0.12992001E+03 -0.64715E+05
 0.12997000E+03 -0.24144E+05
 0.13002000E+03 -0.11080E+04
 0.13007001E+03  0.11820E+04
 0.13012001E+03 -0.10480E+05
 0.13017001E+03 -0.23788E+05
 0.13022000E+03 -0.29275E+05
 0.13027000E+03 -0.24347E+05
 0.13032001E+03 -0.12213E+05
 0.13037001E+03  0.12900E+04
 0.13042001E+03  0.11216E+05
 0.13047000E+03  0.15376E+05
 0.13052000E+03  0.14998E+05
 0.13057001E+03  0.14722E+05
 0.13062001E+03  0.19524E+05
 0.13067001E+03  0.29235E+05
 0.13072000E+03  0.38675E+05
 0.13077000E+03  0.42988E+05
 0.13082001E+03  0.39580E+05
 0.13087001E+03  0.30240E+05
 0.13092001E+03  0.21774E+05
 0.13097000E+03  0.17919E+05
 0.13102000E+03  0.14227E+05
 0.13107001E+03  0.62170E+04
 0.13112001E+03 -0.31810E+04
 0.13117001E+03 -0.45550E+04
 0.13122000E+03  0.11490E+05
 0.13127000E+03  0.47638E+05
 0.13132001E+03  0.96822E+05
 0.13137001E+03  0.14403E+06
 0.13142001E+03  0.17690E+06
 0.13147000E+03  0.19278E+06
 0.13152000E+03  0.19620E+06
 0.13157001E+03  0.19279E+06
 0.13162001E+03  0.18719E+06
 0.13167001E+03  0.18357E+06
 0.13172000E+03  0.18445E+06
 0.13177000E+03  0.19306E+06
 0.13182001E+03  0.20948E+06
 0.13187001E+03  0.22436E+06
 0.13192001E+03  0.22473E+06
 0.13197000E+03  0.20437E+06
 0.13202000E+03  0.16700E+06
 0.13207001E+03  0.12451E+06
 0.13212001E+03  0.89804E+05
 0.13217001E+03  0.69083E+05
 0.13222000E+03  0.62825E+05
 0.13227000E+03  0.67431E+05
 0.13232001E+03  0.75866E+05
 0.13237001E+03  0.82466E+05
 0.13242001E+03  0.84623E+05
 0.13247000E+03  0.80391E+05
 0.13252000E+03  0.70063E+05
 0.13257001E+03  0.55980E+05
 0.13262001E+03  0.38012E+05
 0.13267001E+03  0.13559E+05
 0.13272000E+03 -0.17605E+05
 0.13277000E+03 -0.50881E+05
 0.13282001E+03 -0.79893E+05
 0.13287001E+03 -0.99305E+05
 0.13292001E+03 -0.11077E+06
 0.13297000E+03 -0.12180E+06
 0.13302000E+03 -0.13649E+06
 0.13307001E+03 -0.15431E+06
 0.13312001E+03 -0.17042E+06
 0.13317001E+03 -0.17941E+06
 0.13322000E+03 -0.17575E+06
 0.13327000E+03 -0.15752E+06
 0.13332001E+03 -0.13069E+06
 0.13337001E+03 -0.10128E+06
 0.13342001E+03 -0.76842E+05
 0.13347000E+03 -0.62398E+05
 0.13352000E+03 -0.54628E+05
 0.13357001E+03 -0.46351E+05
 0.13362001E+03 -0.32389E+05
 0.13367001E+03 -0.14962E+05
 0.13372000E+03  0.30260E+04
 0.13377000E+03  0.21707E+05
 0.13382001E+03  0.43849E+05
 0.13387001E+03  0.73609E+05
 0.13392001E+03  0.10765E+06
 0.13397000E+03  0.13515E+06
 0.13402000E+03  0.14821E+06
 0.13407001E+03  0.14728E+06
 0.13412001E+03  0.14047E+06
 0.13417001E+03  0.13987E+06
 0.13422000E+03  0.15194E+06
 0.13427000E+03  0.17472E+06
 0.13432001E+03  0.20136E+06
 0.13437001E+03  0.22259E+06
 0.13442001E+03  0.23225E+06
 0.13447000E+03  0.22785E+06
 0.13452000E+03  0.20840E+06
 0.13457001E+03  0.17540E+06
 0.13462001E+03  0.13447E+06
 0.13467001E+03  0.92523E+05
 0.13472000E+03  0.56125E+05
 0.13477000E+03  0.30713E+05
 0.13482001E+03  0.16553E+05
 0.13487001E+03  0.14557E+05
 0.13492001E+03  0.26019E+05
 0.13497000E+03  0.43729E+05
 0.13502000E+03  0.55482E+05
 0.13507001E+03  0.49560E+05
 0.13512001E+03  0.18715E+05
 0.13517001E+03 -0.33277E+05
 0.13522000E+03 -0.92074E+05
 0.13527000E+03 -0.14317E+06
 0.13532001E+03 -0.17932E+06
 0.13537001E+03 -0.19932E+06
 0.13542001E+03 -0.20579E+06
 0.13547000E+03 -0.20214E+06
 0.13552000E+03 -0.18864E+06
 0.13557001E+03 -0.16665E+06
 0.13562001E+03 -0.14294E+06
 0.13567001E+03 -0.12495E+06
 0.13572000E+03 -0.11588E+06
 0.13577000E+03 -0.11330E+06
 0.13582001E+03 -0.11649E+06
 0.13587001E+03 -0.12668E+06
 0.13592001E+03 -0.14250E+06
 0.13597000E+03 -0.16200E+06
 0.13602000E+03 -0.17978E+06
 0.13607001E+03 -0.19059E+06
 0.13612001E+03 -0.19427E+06
 0.13617001E+03 -0.19194E+06
 0.13622000E+03 -0.18742E+06
 0.13627000E+03 -0.18525E+06
 0.13632001E+03 -0.18514E+06
 0.13637001E+03 -0.18394E+06
 0.13642001E+03 -0.17980E+06
 0.13647000E+03 -0.17535E+06
 0.13652000E+03 -0.17156E+06
 0.13657001E+03 -0.16573E+06
 0.13662001E+03 -0.15418E+06
 0.13667001E+03 -0.13390E+06
 0.13672000E+03 -0.10656E+06
 0.13677000E+03 -0.76897E+05
 0.13682001E+03 -0.51190E+05
 0.13687001E+03 -0.29695E+05
 0.13692001E+03 -0.10677E+05
 0.13697000E+03  0.45560E+04
 0.13702000E+03  0.15617E+05
 0.13707001E+03  0.20528E+05
 0.13712001E+03  0.20573E+05
 0.13717001E+03  0.19507E+05
 0.13722000E+03  0.20639E+05
 0.13727000E+03  0.23492E+05
 0.13732001E+03  0.24959E+05
 0.13737001E+03  0.26893E+05
 0.13742001E+03  0.30634E+05
 0.13747000E+03  0.33902E+05
 0.13752000E+03  0.35737E+05
 0.13757001E+03  0.35517E+05
 0.13762001E+03  0.31899E+05
 0.13767001E+03  0.24316E+05
 0.13772000E+03  0.14349E+05
 0.13777000E+03  0.40770E+04
 0.13782001E+03 -0.68420E+04
 0.13787001E+03 -0.15473E+05
 0.13792001E+03 -0.19686E+05
 0.13797000E+03 -0.21885E+05
 0.13802000E+03 -0.22980E+05
 0.13807001E+03 -0.23654E+05
 0.13812001E+03 -0.23231E+05
 0.13817001E+03 -0.19170E+05
 0.13822000E+03 -0.10122E+05
 0.13827000E+03  0.31040E+04
 0.13832001E+03  0.18373E+05
 0.13837001E+03  0.31440E+05
 0.13842001E+03  0.37030E+05
 0.13847000E+03  0.32971E+05
 0.13852000E+03  0.19601E+05
 0.13857001E+03 -0.71500E+03
 0.13862001E+03 -0.22227E+05
 0.13867001E+03 -0.39858E+05
 0.13872000E+03 -0.52591E+05
 0.13877000E+03 -0.62361E+05
 0.13882001E+03 -0.72926E+05
 0.13887001E+03 -0.83446E+05
 0.13892001E+03 -0.88610E+05
 0.13897000E+03 -0.84818E+05
 0.13902000E+03 -0.70070E+05
 0.13907001E+03 -0.48286E+05
 0.13912001E+03 -0.28251E+05
 0.13917001E+03 -0.17330E+05
 0.13922000E+03 -0.14702E+05
 0.13927000E+03 -0.14541E+05
 0.13932001E+03 -0.14432E+05
 0.13937001E+03 -0.14111E+05
 0.13942001E+03 -0.17905E+05
 0.13947000E+03 -0.26968E+05
 0.13952000E+03 -0.40086E+05
 0.13957001E+03 -0.52833E+05
 0.13962001E+03 -0.56378E+05
 0.13967001E+03 -0.50478E+05
 0.13972000E+03 -0.37847E+05
 0.13977000E+03 -0.23531E+05
 0.13982001E+03 -0.12235E+05
 0.13987001E+03 -0.63270E+04
 0.13992001E+03 -0.75630E+04
 0.13997000E+03 -0.14522E+05
 0.14002000E+03 -0.24337E+05
 0.14007001E+03 -0.31192E+05
 0.14012001E+03 -0.33195E+05
 0.14017001E+03 -0.29002E+05
 0.14022000E+03 -0.18660E+05
 0.14027000E+03 -0.58990E+04
 0.14032001E+03  0.10552E+05
 0.14037001E+03  0.30839E+05
 0.14042001E+03  0.53708E+05
 0.14047000E+03  0.76513E+05
 0.14052000E+03  0.95329E+05
 0.14057001E+03  0.10748E+06
 0.14062001E+03  0.11122E+06
 0.14067001E+03  0.10988E+06
 0.14072000E+03  0.10669E+06
 0.14077000E+03  0.10461E+06
 0.14082001E+03  0.10605E+06
 0.14087001E+03  0.10710E+06
 0.14092001E+03  0.10628E+06
 0.14097000E+03  0.10591E+06
 0.14102000E+03  0.10645E+06
 0.14107001E+03  0.10834E+06
 0.14112001E+03  0.10868E+06
 0.14117001E+03  0.10288E+06
 0.14122000E+03  0.90299E+05
 0.14127000E+03  0.74393E+05
 0.14132001E+03  0.60000E+05
 0.14137001E+03  0.49132E+05
 0.14142001E+03  0.42587E+05
 0.14147000E+03  0.40074E+05
 0.14152000E+03  0.40929E+05
 0.14157001E+03  0.43078E+05
 0.14162001E+03  0.43878E+05
 0.14167001E+03  0.45642E+05
 0.14172000E+03  0.48935E+05
 0.14177000E+03  0.52074E+05
 0.14182001E+03  0.55339E+05
 0.14187001E+03  0.57722E+05
 0.14192001E+03  0.57954E+05
 0.14197000E+03  0.56770E+05
 0.14202000E+03  0.58748E+05
 0.14207001E+03  0.66046E+05
 0.14212001E+03  0.73933E+05
 0.14217001E+03  0.79865E+05
 0.14222000E+03  0.82620E+05
 0.14227000E+03  0.82924E+05
 0.14232001E+03  0.85525E+05
 0.14237001E+03  0.92643E+05
 0.14242001E+03  0.10496E+06
 0.14247000E+03  0.11859E+06
 0.14252000E+03  0.12736E+06
 0.14257001E+03  0.12773E+06
 0.14262001E+03  0.11838E+06
 0.14267001E+03  0.10253E+06
 0.14272000E+03  0.83913E+05
 0.14277000E+03  0.66005E+05
 0.14282001E+03  0.53426E+05
 0.14287001E+03  0.48125E+05
 0.14292001E+03  0.48106E+05
 0.14297000E+03  0.51040E+05
 0.14302000E+03  0.55751E+05
 0.14307001E+03  0.61533E+05
 0.14312001E+03  0.68945E+05
 0.14317001E+03  0.79279E+05
 0.14322000E+03  0.91260E+05
 0.14327000E+03  0.10075E+06
 0.14332001E+03  0.10491E+06
 0.14337001E+03  0.10207E+06
 0.14342001E+03  0.92085E+05
 0.14347000E+03  0.78306E+05
 0.14352000E+03  0.66802E+05
 0.14357001E+03  0.62955E+05
 0.14362001E+03  0.65833E+05
 0.14367001E+03  0.71398E+05
 0.14372000E+03  0.76254E+05
 0.14377000E+03  0.75545E+05
 0.14382001E+03  0.67888E+05
 0.14387001E+03  0.56760E+05
 0.14392001E+03  0.43207E+05
 0.14397000E+03  0.26992E+05
 0.14402000E+03  0.10251E+05
 0.14407001E+03 -0.75910E+04
 0.14412001E+03 -0.29568E+05
 0.14417001E+03 -0.55477E+05
 0.14422000E+03 -0.84641E+05
 0.14427000E+03 -0.11622E+06
 0.14432001E+03 -0.14409E+06
 0.14437001E+03 -0.16187E+06
 0.14442001E+03 -0.16858E+06
 0.14447000E+03 -0.16651E+06
 0.14452000E+03 -0.15721E+06
 0.14457001E+03 -0.14162E+06
 0.14462001E+03 -0.12243E+06
 0.14467001E+03 -0.10151E+06
 0.14472000E+03 -0.82603E+05
 0.14477000E+03 -0.70716E+05
 0.14482001E+03 -0.64943E+05
 0.14487001E+03 -0.61001E+05
 0.14492001E+03 -0.57117E+05
 0.14497000E+03 -0.53545E+05
 0.14502000E+03 -0.49362E+05
 0.14507001E+03 -0.44634E+05
 0.14512001E+03 -0.39737E+05
 0.14517001E+03 -0.34192E+05
 0.14522000E+03 -0.30890E+05
 0.14527000E+03 -0.31898E+05
 0.14532001E+03 -0.37279E+05
 0.14537001E+03 -0.46122E+05
 0.14542001E+03 -0.54698E+05
 0.14547000E+03 -0.59395E+05
 0.14552000E+03 -0.57217E+05
 0.14557001E+03 -0.48149E+05
 0.14562001E+03 -0.34835E+05
 0.14567001E+03 -0.19396E+05
 0.14572000E+03 -0.48130E+04
 0.14577000E+03  0.68870E+04
 0.14582001E+03  0.16082E+05
 0.14587001E+03  0.20875E+05
 0.14592001E+03  0.19459E+05
 0.14597000E+03  0.14183E+05
 0.14602000E+03  0.65080E+04
 0.14607001E+03 -0.24060E+04
 0.14612001E+03 -0.12176E+05
 0.14617001E+03 -0.25861E+05
 0.14622000E+03 -0.43264E+05
 0.14627000E+03 -0.58818E+05
 0.14632001E+03 -0.67546E+05
 0.14637001E+03 -0.66785E+05
 0.14642001E+03 -0.56361E+05
 0.14647000E+03 -0.43321E+05
 0.14652000E+03 -0.35698E+05
 0.14657001E+03 -0.32701E+05
 0.14662001E+03 -0.32299E+05
 0.14667001E+03 -0.33013E+05
 0.14672000E+03 -0.30886E+05
 0.14677000E+03 -0.24552E+05
 0.14682001E+03 -0.14613E+05
 0.14687001E+03 -0.19250E+04
 0.14692001E+03  0.11664E+05
 0.14697000E+03  0.24904E+05
 0.14702000E+03  0.39328E+05
 0.14707001E+03  0.57740E+05
 0.14712001E+03  0.80197E+05
 0.14717001E+03  0.10005E+06
 0.14722000E+03  0.10702E+06
 0.14727000E+03  0.98590E+05
 0.14732001E+03  0.81576E+05
 0.14737001E+03  0.62030E+05
 0.14742001E+03  0.42111E+05
 0.14747000E+03  0.22079E+05
 0.14752000E+03  0.11400E+03
 0.14757001E+03 -0.23712E+05
 0.14762001E+03 -0.44575E+05
 0.14767001E+03 -0.56869E+05
 0.14772000E+03 -0.56665E+05
 0.14777000E+03 -0.43726E+05
 0.14782001E+03 -0.23878E+05
 0.14787001E+03 -0.36570E+04
 0.14792001E+03  0.13225E+05
 0.14797000E+03  0.23694E+05
 0.14802000E+03  0.26893E+05
 0.14807001E+03  0.26237E+05
 0.14812001E+03  0.24136E+05
 0.14817001E+03  0.19391E+05
 0.14822000E+03  0.10747E+05
 0.14827000E+03 -0.40590E+04
 0.14832001E+03 -0.26028E+05
 0.14837001E+03 -0.50290E+05
 0.14842001E+03 -0.68278E+05
 0.14847000E+03 -0.76208E+05
 0.14852000E+03 -0.77329E+05
 0.14857001E+03 -0.73473E+05
 0.14862001E+03 -0.65532E+05
 0.14867001E+03 -0.55408E+05
 0.14872000E+03 -0.43640E+05
 0.14877000E+03 -0.32149E+05
 0.14882001E+03 -0.23255E+05
 0.14887001E+03 -0.17131E+05
 0.14892001E+03 -0.12795E+05
 0.14897000E+03 -0.10544E+05
 0.14902000E+03 -0.12237E+05
 0.14907001E+03 -0.18446E+05
 0.14912001E+03 -0.28896E+05
 0.14917001E+03 -0.43440E+05
 0.14922000E+03 -0.60722E+05
 0.14927000E+03 -0.77973E+05
 0.14932001E+03 -0.92282E+05
 0.14937001E+03 -0.10084E+06
 0.14942001E+03 -0.99311E+05
 0.14947000E+03 -0.87438E+05
 0.14952000E+03 -0.71064E+05
 0.14957001E+03 -0.53152E+05
 0.14962001E+03 -0.34884E+05
 0.14967001E+03 -0.18697E+05
 0.14972000E+03 -0.67640E+04
 0.14977000E+03 -0.16360E+04
 0.14982001E+03 -0.36180E+04
 0.14987001E+03 -0.10934E+05
 0.14992001E+03 -0.21778E+05
 0.14997000E+03 -0.32755E+05
