-0.29800000E+01  0.17073E+06
-0.29300001E+01  0.17108E+06
-0.28800001E+01  0.16972E+06
-0.28299999E+01  0.16426E+06
-0.27800000E+01  0.14999E+06
-0.27300000E+01  0.12430E+06
-0.26800001E+01  0.87424E+05
-0.26300001E+01  0.43659E+05
-0.25799999E+01 -0.17990E+04
-0.25300000E+01 -0.48027E+05
-0.24800000E+01 -0.94602E+05
-0.24300001E+01 -0.13714E+06
-0.23800001E+01 -0.17418E+06
-0.23299999E+01 -0.20558E+06
-0.22800000E+01 -0.23056E+06
-0.22300000E+01 -0.25326E+06
-0.21800001E+01 -0.27412E+06
-0.21300001E+01 -0.29255E+06
-0.20799999E+01 -0.30675E+06
-0.20300000E+01 -0.31360E+06
-0.19800000E+01 -0.31752E+06
-0.19299999E+01 -0.32055E+06
-0.18800000E+01 -0.32282E+06
-0.18300000E+01 -0.32340E+06
-0.17800000E+01 -0.31970E+06
-0.17300000E+01 -0.31303E+06
-0.16799999E+01 -0.30423E+06
-0.16300000E+01 -0.29502E+06
-0.15800000E+01 -0.28525E+06
-0.15300000E+01 -0.27175E+06
-0.14800000E+01 -0.25256E+06
-0.14299999E+01 -0.22697E+06
-0.13800000E+01 -0.19896E+06
-0.13300000E+01 -0.17453E+06
-0.12800000E+01 -0.15527E+06
-0.12300000E+01 -0.13988E+06
-0.11799999E+01 -0.12644E+06
-0.11300000E+01 -0.11239E+06
-0.10800000E+01 -0.96027E+05
-0.10300000E+01 -0.76530E+05
-0.98000002E+00 -0.55290E+05
-0.93000007E+00 -0.32838E+05
-0.87999988E+00 -0.74180E+04
-0.82999992E+00  0.18742E+05
-0.77999997E+00  0.42985E+05
-0.73000002E+00  0.65036E+05
-0.68000007E+00  0.87455E+05
-0.62999988E+00  0.11288E+06
-0.57999992E+00  0.14035E+06
-0.52999997E+00  0.17216E+06
-0.48000002E+00  0.21067E+06
-0.43000007E+00  0.25400E+06
-0.37999988E+00  0.29821E+06
-0.32999992E+00  0.34015E+06
-0.27999997E+00  0.37945E+06
-0.23000002E+00  0.41364E+06
-0.18000007E+00  0.44106E+06
-0.12999988E+00  0.46130E+06
-0.79999924E-01  0.47288E+06
-0.29999971E-01  0.47657E+06
 0.19999981E-01  0.46971E+06
 0.69999933E-01  0.45114E+06
 0.12000012E+00  0.42238E+06
 0.17000008E+00  0.38401E+06
 0.22000003E+00  0.33935E+06
 0.26999998E+00  0.28876E+06
 0.31999993E+00  0.23519E+06
 0.37000012E+00  0.18335E+06
 0.42000008E+00  0.13351E+06
 0.47000003E+00  0.84899E+05
 0.51999998E+00  0.35863E+05
 0.56999993E+00 -0.12941E+05
 0.62000012E+00 -0.59270E+05
 0.67000008E+00 -0.10187E+06
 0.72000003E+00 -0.14267E+06
 0.76999998E+00 -0.18287E+06
 0.81999993E+00 -0.22013E+06
 0.87000012E+00 -0.25214E+06
 0.92000008E+00 -0.27680E+06
 0.97000003E+00 -0.29483E+06
 0.10200000E+01 -0.30874E+06
 0.10700002E+01 -0.32063E+06
 0.11199999E+01 -0.32824E+06
 0.11700001E+01 -0.32906E+06
 0.12200003E+01 -0.32423E+06
 0.12700000E+01 -0.31276E+06
 0.13200002E+01 -0.29489E+06
 0.13699999E+01 -0.27080E+06
 0.14200001E+01 -0.24245E+06
 0.14700003E+01 -0.21310E+06
 0.15200000E+01 -0.18246E+06
 0.15700002E+01 -0.15161E+06
 0.16199999E+01 -0.12009E+06
 0.16700001E+01 -0.87632E+05
 0.17200003E+01 -0.55905E+05
 0.17700000E+01 -0.26864E+05
 0.18200002E+01 -0.37390E+04
 0.18699999E+01  0.11786E+05
 0.19200001E+01  0.18839E+05
 0.19700003E+01  0.18678E+05
 0.20200000E+01  0.13713E+05
 0.20700002E+01  0.64260E+04
 0.21199999E+01 -0.74400E+03
 0.21700001E+01 -0.74090E+04
 0.22200003E+01 -0.12761E+05
 0.22700000E+01 -0.16676E+05
 0.23200002E+01 -0.15898E+05
 0.23699999E+01 -0.59600E+04
 0.24200001E+01  0.90950E+04
 0.24700003E+01  0.24760E+05
 0.25200000E+01  0.41455E+05
 0.25700002E+01  0.57701E+05
 0.26199999E+01  0.69109E+05
 0.26700001E+01  0.74644E+05
 0.27200003E+01  0.76873E+05
 0.27700000E+01  0.77645E+05
 0.28200002E+01  0.78413E+05
 0.28699999E+01  0.78788E+05
 0.29200001E+01  0.80306E+05
 0.29700003E+01  0.85244E+05
 0.30200000E+01  0.91297E+05
 0.30700002E+01  0.97549E+05
 0.31199999E+01  0.10480E+06
 0.31700001E+01  0.11203E+06
 0.32200003E+01  0.11771E+06
 0.32700000E+01  0.12084E+06
 0.33200002E+01  0.12058E+06
 0.33699999E+01  0.11532E+06
 0.34200001E+01  0.10401E+06
 0.34700003E+01  0.86376E+05
 0.35200000E+01  0.64277E+05
 0.35700002E+01  0.41339E+05
 0.36199999E+01  0.19445E+05
 0.36700001E+01 -0.15200E+03
 0.37200003E+01 -0.16643E+05
 0.37700000E+01 -0.29648E+05
 0.38200002E+01 -0.39153E+05
 0.38699999E+01 -0.45394E+05
 0.39200001E+01 -0.49013E+05
 0.39700003E+01 -0.52380E+05
 0.40200000E+01 -0.58425E+05
 0.40700002E+01 -0.67277E+05
 0.41199999E+01 -0.77572E+05
 0.41700001E+01 -0.89723E+05
 0.42200003E+01 -0.10148E+06
 0.42700000E+01 -0.11167E+06
 0.43200002E+01 -0.12255E+06
 0.43699999E+01 -0.13612E+06
 0.44200001E+01 -0.15515E+06
 0.44700003E+01 -0.17658E+06
 0.45200000E+01 -0.19354E+06
 0.45700002E+01 -0.20356E+06
 0.46199999E+01 -0.20518E+06
 0.46700001E+01 -0.19784E+06
 0.47200003E+01 -0.18135E+06
 0.47700000E+01 -0.15341E+06
 0.48200002E+01 -0.11575E+06
 0.48699999E+01 -0.71485E+05
 0.49200001E+01 -0.21704E+05
 0.49700003E+01  0.29356E+05
 0.50200000E+01  0.78002E+05
 0.50700002E+01  0.12365E+06
 0.51200004E+01  0.16564E+06
 0.51700006E+01  0.20247E+06
 0.52199998E+01  0.23178E+06
 0.52700000E+01  0.25225E+06
 0.53200002E+01  0.26647E+06
 0.53700004E+01  0.27632E+06
 0.54200006E+01  0.28152E+06
 0.54699998E+01  0.28154E+06
 0.55200000E+01  0.27346E+06
 0.55700002E+01  0.25768E+06
 0.56200004E+01  0.23567E+06
 0.56700006E+01  0.20558E+06
 0.57199998E+01  0.16747E+06
 0.57700000E+01  0.12162E+06
 0.58200002E+01  0.70535E+05
 0.58700004E+01  0.18387E+05
 0.59200006E+01 -0.33534E+05
 0.59699998E+01 -0.81108E+05
 0.60200000E+01 -0.12219E+06
 0.60700002E+01 -0.15941E+06
 0.61200004E+01 -0.19352E+06
 0.61700006E+01 -0.22307E+06
 0.62199998E+01 -0.24475E+06
 0.62700000E+01 -0.25817E+06
 0.63200002E+01 -0.26470E+06
 0.63700004E+01 -0.26489E+06
 0.64200006E+01 -0.25846E+06
 0.64699998E+01 -0.24400E+06
 0.65200000E+01 -0.22227E+06
 0.65700002E+01 -0.19293E+06
 0.66200004E+01 -0.15643E+06
 0.66700006E+01 -0.11483E+06
 0.67199998E+01 -0.69971E+05
 0.67700000E+01 -0.26453E+05
 0.68200002E+01  0.14665E+05
 0.68700004E+01  0.55860E+05
 0.69200006E+01  0.96692E+05
 0.69699998E+01  0.13497E+06
 0.70200000E+01  0.16961E+06
 0.70700002E+01  0.20103E+06
 0.71200004E+01  0.22618E+06
 0.71700006E+01  0.24494E+06
 0.72199998E+01  0.25942E+06
 0.72700000E+01  0.26552E+06
 0.73200002E+01  0.26312E+06
 0.73700004E+01  0.25322E+06
 0.74200006E+01  0.23541E+06
 0.74699998E+01  0.21333E+06
 0.75200000E+01  0.19085E+06
 0.75700002E+01  0.16961E+06
 0.76200004E+01  0.14968E+06
 0.76700006E+01  0.13191E+06
 0.77199998E+01  0.11675E+06
 0.77700000E+01  0.10490E+06
 0.78200002E+01  0.96674E+05
 0.78700004E+01  0.89677E+05
 0.79200006E+01  0.82353E+05
 0.79699998E+01  0.73922E+05
 0.80200005E+01  0.61592E+05
 0.80699997E+01  0.45347E+05
 0.81200008E+01  0.26160E+05
 0.81700001E+01  0.28610E+04
 0.82199993E+01 -0.23325E+05
 0.82700005E+01 -0.50759E+05
 0.83199997E+01 -0.77637E+05
 0.83700008E+01 -0.10406E+06
 0.84200001E+01 -0.13177E+06
 0.84699993E+01 -0.15881E+06
 0.85200005E+01 -0.18239E+06
 0.85699997E+01 -0.20126E+06
 0.86200008E+01 -0.21322E+06
 0.86700001E+01 -0.21605E+06
 0.87199993E+01 -0.20948E+06
 0.87700005E+01 -0.19511E+06
 0.88199997E+01 -0.17513E+06
 0.88700008E+01 -0.14919E+06
 0.89200001E+01 -0.11746E+06
 0.89699993E+01 -0.82294E+05
 0.90200005E+01 -0.45760E+05
 0.90699997E+01 -0.11386E+05
 0.91200008E+01  0.18683E+05
 0.91700001E+01  0.42354E+05
 0.92199993E+01  0.55622E+05
 0.92700005E+01  0.57849E+05
 0.93199997E+01  0.50705E+05
 0.93700008E+01  0.37230E+05
 0.94200001E+01  0.21102E+05
 0.94699993E+01  0.50640E+04
 0.95200005E+01 -0.91570E+04
 0.95699997E+01 -0.21575E+05
 0.96200008E+01 -0.30246E+05
 0.96700001E+01 -0.34425E+05
 0.97199993E+01 -0.35641E+05
 0.97700005E+01 -0.31694E+05
 0.98199997E+01 -0.22889E+05
 0.98700008E+01 -0.11588E+05
 0.99200001E+01  0.12170E+04
 0.99699993E+01  0.13047E+05
 0.10020000E+02  0.22887E+05
 0.10070000E+02  0.28623E+05
 0.10120001E+02  0.28189E+05
 0.10170000E+02  0.22332E+05
 0.10219999E+02  0.10329E+05
 0.10270000E+02 -0.91520E+04
 0.10320000E+02 -0.34930E+05
 0.10370001E+02 -0.64225E+05
 0.10420000E+02 -0.93232E+05
 0.10469999E+02 -0.11703E+06
 0.10520000E+02 -0.13249E+06
 0.10570000E+02 -0.13798E+06
 0.10620001E+02 -0.13280E+06
 0.10670000E+02 -0.12047E+06
 0.10719999E+02 -0.10472E+06
 0.10770000E+02 -0.87304E+05
 0.10820000E+02 -0.69901E+05
 0.10870001E+02 -0.52533E+05
 0.10920000E+02 -0.36757E+05
 0.10969999E+02 -0.23692E+05
 0.11020000E+02 -0.12667E+05
 0.11070000E+02 -0.51170E+04
 0.11120001E+02 -0.38850E+04
 0.11170000E+02 -0.11018E+05
 0.11219999E+02 -0.24892E+05
 0.11270000E+02 -0.42982E+05
 0.11320000E+02 -0.63481E+05
 0.11370001E+02 -0.85016E+05
 0.11420000E+02 -0.10780E+06
 0.11469999E+02 -0.12886E+06
 0.11520000E+02 -0.14381E+06
 0.11570000E+02 -0.15255E+06
 0.11620001E+02 -0.15544E+06
 0.11670000E+02 -0.15242E+06
 0.11719999E+02 -0.14252E+06
 0.11770000E+02 -0.12583E+06
 0.11820000E+02 -0.10620E+06
 0.11870001E+02 -0.85806E+05
 0.11920000E+02 -0.66301E+05
 0.11969999E+02 -0.49510E+05
 0.12020000E+02 -0.33427E+05
 0.12070000E+02 -0.15000E+05
 0.12120001E+02  0.50380E+04
 0.12170000E+02  0.27192E+05
 0.12219999E+02  0.54244E+05
 0.12270000E+02  0.86610E+05
 0.12320000E+02  0.12357E+06
 0.12370001E+02  0.16203E+06
 0.12420000E+02  0.19829E+06
 0.12469999E+02  0.22821E+06
 0.12520000E+02  0.24920E+06
 0.12570000E+02  0.26128E+06
 0.12620001E+02  0.26351E+06
 0.12670000E+02  0.25835E+06
 0.12719999E+02  0.24962E+06
 0.12770000E+02  0.23798E+06
 0.12820000E+02  0.22284E+06
 0.12870001E+02  0.20374E+06
 0.12920000E+02  0.17977E+06
 0.12969999E+02  0.15005E+06
 0.13020000E+02  0.11697E+06
 0.13070002E+02  0.81891E+05
 0.13120001E+02  0.43998E+05
 0.13170000E+02  0.52490E+04
 0.13220001E+02 -0.31485E+05
 0.13270000E+02 -0.64243E+05
 0.13320002E+02 -0.91279E+05
 0.13370001E+02 -0.11113E+06
 0.13420000E+02 -0.12299E+06
 0.13470001E+02 -0.12573E+06
 0.13520000E+02 -0.11956E+06
 0.13570002E+02 -0.10787E+06
 0.13620001E+02 -0.94991E+05
 0.13670000E+02 -0.81704E+05
 0.13720001E+02 -0.67379E+05
 0.13770000E+02 -0.53606E+05
 0.13820002E+02 -0.42155E+05
 0.13870001E+02 -0.34006E+05
 0.13920000E+02 -0.27023E+05
 0.13970001E+02 -0.21268E+05
 0.14020000E+02 -0.19706E+05
 0.14070002E+02 -0.20727E+05
 0.14120001E+02 -0.21525E+05
 0.14170000E+02 -0.19732E+05
 0.14220001E+02 -0.15085E+05
 0.14270000E+02 -0.11309E+05
 0.14320002E+02 -0.78560E+04
 0.14370001E+02 -0.26890E+04
 0.14420000E+02  0.32010E+04
 0.14470001E+02  0.97340E+04
 0.14520000E+02  0.15405E+05
 0.14570002E+02  0.20838E+05
 0.14620001E+02  0.29299E+05
 0.14670000E+02  0.41406E+05
 0.14720001E+02  0.56734E+05
 0.14770000E+02  0.72514E+05
 0.14820002E+02  0.86182E+05
 0.14870001E+02  0.97816E+05
 0.14920000E+02  0.10613E+06
 0.14970001E+02  0.11003E+06
 0.15020000E+02  0.10862E+06
 0.15070002E+02  0.10061E+06
 0.15120001E+02  0.87087E+05
 0.15170000E+02  0.69243E+05
 0.15220001E+02  0.47701E+05
 0.15270000E+02  0.24662E+05
 0.15320002E+02  0.17270E+04
 0.15370001E+02 -0.20376E+05
 0.15420000E+02 -0.40653E+05
 0.15470001E+02 -0.58363E+05
 0.15520000E+02 -0.71818E+05
 0.15570002E+02 -0.77958E+05
 0.15620001E+02 -0.75788E+05
 0.15670000E+02 -0.66776E+05
 0.15720001E+02 -0.51515E+05
 0.15770000E+02 -0.31453E+05
 0.15820002E+02 -0.73620E+04
 0.15870001E+02  0.21691E+05
 0.15920000E+02  0.55168E+05
 0.15970001E+02  0.90059E+05
 0.16020000E+02  0.12157E+06
 0.16070002E+02  0.14692E+06
 0.16120001E+02  0.16663E+06
 0.16170000E+02  0.18248E+06
 0.16220001E+02  0.19355E+06
 0.16270000E+02  0.19811E+06
 0.16320002E+02  0.19545E+06
 0.16370001E+02  0.18512E+06
 0.16420000E+02  0.16763E+06
 0.16470001E+02  0.14339E+06
 0.16520000E+02  0.11399E+06
 0.16570002E+02  0.80472E+05
 0.16620001E+02  0.42953E+05
 0.16670000E+02  0.25700E+04
 0.16720001E+02 -0.38556E+05
 0.16770000E+02 -0.78398E+05
 0.16820002E+02 -0.11525E+06
 0.16870001E+02 -0.14681E+06
 0.16920000E+02 -0.17264E+06
 0.16970001E+02 -0.19390E+06
 0.17020000E+02 -0.20966E+06
 0.17070002E+02 -0.22152E+06
 0.17120001E+02 -0.23389E+06
 0.17170000E+02 -0.24634E+06
 0.17220001E+02 -0.25762E+06
 0.17270000E+02 -0.26955E+06
 0.17320002E+02 -0.28292E+06
 0.17370001E+02 -0.29488E+06
 0.17420000E+02 -0.30290E+06
 0.17470001E+02 -0.30676E+06
 0.17520000E+02 -0.30396E+06
 0.17570002E+02 -0.29254E+06
 0.17620001E+02 -0.27177E+06
 0.17670000E+02 -0.24213E+06
 0.17720001E+02 -0.20644E+06
 0.17770000E+02 -0.16560E+06
 0.17820002E+02 -0.12279E+06
 0.17870001E+02 -0.81180E+05
 0.17920000E+02 -0.40713E+05
 0.17970001E+02 -0.33400E+04
 0.18020000E+02  0.29933E+05
 0.18070002E+02  0.58849E+05
 0.18120001E+02  0.84020E+05
 0.18170000E+02  0.10644E+06
 0.18220001E+02  0.12681E+06
 0.18270000E+02  0.14712E+06
 0.18320002E+02  0.16863E+06
 0.18370001E+02  0.19192E+06
 0.18420000E+02  0.21420E+06
 0.18470001E+02  0.23175E+06
 0.18520000E+02  0.24217E+06
 0.18570002E+02  0.24350E+06
 0.18620001E+02  0.23561E+06
 0.18670000E+02  0.21793E+06
 0.18720001E+02  0.19108E+06
 0.18770000E+02  0.15663E+06
 0.18820002E+02  0.11674E+06
 0.18870001E+02  0.74924E+05
 0.18920000E+02  0.34278E+05
 0.18970001E+02 -0.38100E+04
 0.19020000E+02 -0.38535E+05
 0.19070002E+02 -0.68489E+05
 0.19120001E+02 -0.91791E+05
 0.19170000E+02 -0.10900E+06
 0.19220001E+02 -0.12258E+06
 0.19270000E+02 -0.13026E+06
 0.19320002E+02 -0.13036E+06
 0.19370001E+02 -0.12212E+06
 0.19420000E+02 -0.10435E+06
 0.19470001E+02 -0.82499E+05
 0.19520000E+02 -0.61044E+05
 0.19570002E+02 -0.40403E+05
 0.19620001E+02 -0.22695E+05
 0.19670000E+02 -0.74990E+04
 0.19720001E+02  0.58760E+04
 0.19770000E+02  0.15882E+05
 0.19820002E+02  0.23355E+05
 0.19870001E+02  0.27846E+05
 0.19920000E+02  0.29688E+05
 0.19970001E+02  0.30050E+05
 0.20020000E+02  0.29477E+05
 0.20070002E+02  0.30563E+05
 0.20120001E+02  0.33775E+05
 0.20170000E+02  0.41286E+05
 0.20220001E+02  0.53233E+05
 0.20270000E+02  0.67626E+05
 0.20320002E+02  0.86751E+05
 0.20370001E+02  0.10711E+06
 0.20420000E+02  0.12446E+06
 0.20470001E+02  0.13802E+06
 0.20520000E+02  0.14674E+06
 0.20570002E+02  0.15265E+06
 0.20620001E+02  0.15671E+06
 0.20670000E+02  0.15847E+06
 0.20720001E+02  0.15883E+06
 0.20770000E+02  0.15766E+06
 0.20820002E+02  0.15319E+06
 0.20870001E+02  0.14566E+06
 0.20920000E+02  0.13628E+06
 0.20970001E+02  0.12325E+06
 0.21020000E+02  0.10560E+06
 0.21070002E+02  0.85172E+05
 0.21120001E+02  0.63796E+05
 0.21170000E+02  0.40838E+05
 0.21220001E+02  0.15655E+05
 0.21270000E+02 -0.93000E+04
 0.21320002E+02 -0.34442E+05
 0.21370001E+02 -0.62180E+05
 0.21420000E+02 -0.92255E+05
 0.21470001E+02 -0.12284E+06
 0.21520000E+02 -0.15163E+06
 0.21570002E+02 -0.17879E+06
 0.21620001E+02 -0.20477E+06
 0.21670000E+02 -0.22791E+06
 0.21720001E+02 -0.24632E+06
 0.21770000E+02 -0.26101E+06
 0.21820002E+02 -0.27287E+06
 0.21870001E+02 -0.28254E+06
 0.21920000E+02 -0.29308E+06
 0.21970001E+02 -0.30856E+06
 0.22020000E+02 -0.33778E+06
 0.22070002E+02 -0.39228E+06
 0.22120001E+02 -0.46828E+06
 0.22170000E+02 -0.52679E+06
 0.22220001E+02 -0.51227E+06
 0.22270000E+02 -0.40513E+06
 0.22320002E+02 -0.24487E+06
 0.22370001E+02 -0.10403E+06
 0.22420000E+02 -0.49210E+05
 0.22470001E+02 -0.69948E+05
 0.22520000E+02 -0.13011E+06
 0.22570002E+02 -0.27968E+06
 0.22620001E+02 -0.50432E+06
 0.22670000E+02 -0.74669E+06
 0.22720001E+02 -0.10715E+07
 0.22770000E+02 -0.13992E+07
 0.22820002E+02 -0.15012E+07
 0.22870001E+02 -0.13669E+07
 0.22920000E+02 -0.10286E+07
 0.22970001E+02 -0.68928E+06
 0.23020000E+02 -0.62796E+06
 0.23070002E+02 -0.35078E+06
 0.23120001E+02  0.14543E+06
 0.23170000E+02  0.13814E+06
 0.23220001E+02  0.11932E+06
 0.23270000E+02  0.21202E+06
 0.23320002E+02 -0.13100E+06
 0.23370001E+02 -0.92051E+05
 0.23420000E+02  0.23021E+06
 0.23470001E+02 -0.55967E+05
 0.23520000E+02 -0.90342E+05
 0.23570002E+02  0.26702E+06
 0.23620001E+02  0.13747E+06
 0.23670000E+02 -0.17367E+06
 0.23720001E+02 -0.78086E+05
 0.23770000E+02  0.14804E+06
 0.23820002E+02 -0.21782E+06
 0.23870001E+02 -0.83183E+06
 0.23920000E+02 -0.71054E+06
 0.23970001E+02 -0.24626E+06
 0.24020000E+02 -0.34181E+06
 0.24070002E+02 -0.32526E+06
 0.24120001E+02  0.15329E+06
 0.24170000E+02  0.45148E+06
 0.24220001E+02  0.65648E+06
 0.24270000E+02  0.27930E+06
 0.24320002E+02 -0.46561E+05
 0.24370001E+02  0.60334E+06
 0.24420000E+02  0.40105E+06
 0.24470001E+02 -0.88556E+06
 0.24520000E+02 -0.12595E+07
 0.24570002E+02 -0.31859E+06
 0.24620001E+02  0.15276E+06
 0.24670000E+02 -0.53803E+06
 0.24720001E+02 -0.89416E+06
 0.24770000E+02 -0.55204E+06
 0.24820002E+02 -0.24812E+06
 0.24870001E+02 -0.48974E+05
 0.24920000E+02  0.39610E+06
 0.24970001E+02  0.13787E+06
 0.25020000E+02 -0.56528E+06
 0.25070002E+02 -0.37580E+06
 0.25120001E+02  0.13097E+06
 0.25170000E+02  0.79248E+06
 0.25220001E+02  0.78972E+06
 0.25270000E+02 -0.59927E+06
 0.25320002E+02 -0.17156E+07
 0.25370001E+02 -0.15082E+07
 0.25420000E+02 -0.82802E+06
 0.25470001E+02 -0.60368E+06
 0.25520000E+02 -0.93381E+06
 0.25570002E+02 -0.12448E+07
 0.25620001E+02 -0.42730E+06
 0.25670000E+02  0.10196E+07
 0.25720001E+02  0.92927E+06
 0.25770000E+02 -0.38395E+06
 0.25820002E+02 -0.51085E+06
 0.25870001E+02  0.26504E+06
 0.25920000E+02  0.30167E+06
 0.25970001E+02 -0.37372E+06
 0.26020000E+02 -0.10725E+07
 0.26070002E+02 -0.12416E+07
 0.26120001E+02 -0.14526E+07
 0.26170000E+02 -0.16494E+07
 0.26220001E+02 -0.10386E+07
 0.26270000E+02 -0.27906E+06
 0.26320002E+02  0.75478E+05
 0.26370001E+02  0.18204E+06
 0.26420000E+02  0.56771E+06
 0.26470001E+02  0.94733E+06
 0.26520000E+02  0.10282E+07
 0.26570002E+02  0.98352E+06
 0.26620001E+02  0.40173E+06
 0.26670000E+02 -0.87272E+05
 0.26720001E+02 -0.10590E+06
 0.26770000E+02 -0.15354E+06
 0.26820002E+02 -0.56584E+06
 0.26870001E+02 -0.99212E+06
 0.26920000E+02 -0.94354E+06
 0.26970001E+02 -0.68731E+06
 0.27020000E+02 -0.10864E+06
 0.27070002E+02  0.62824E+06
 0.27120001E+02  0.13903E+07
 0.27170000E+02  0.15134E+07
 0.27220001E+02  0.73449E+06
 0.27270000E+02  0.81818E+06
 0.27320002E+02  0.14959E+07
 0.27370001E+02  0.14616E+07
 0.27420000E+02  0.43026E+06
 0.27470001E+02 -0.11083E+07
 0.27520000E+02 -0.13624E+07
 0.27570002E+02 -0.47754E+06
 0.27620001E+02 -0.22890E+06
 0.27670000E+02 -0.11453E+07
 0.27720001E+02 -0.20500E+07
 0.27770000E+02 -0.17418E+07
 0.27820002E+02 -0.10616E+07
 0.27870001E+02 -0.13768E+07
 0.27920000E+02 -0.23515E+07
 0.27970001E+02 -0.25920E+07
 0.28020000E+02 -0.22782E+07
 0.28070002E+02 -0.20954E+07
 0.28120001E+02 -0.17417E+07
 0.28170000E+02 -0.14759E+07
 0.28220001E+02 -0.13081E+07
 0.28270000E+02 -0.80873E+06
 0.28320002E+02 -0.37337E+06
 0.28370001E+02 -0.21046E+06
 0.28420000E+02  0.34600E+06
 0.28470001E+02  0.12417E+07
 0.28520000E+02  0.15482E+07
 0.28570002E+02  0.11762E+07
 0.28620001E+02  0.90914E+06
 0.28670000E+02  0.86980E+06
 0.28720001E+02  0.58491E+06
 0.28770000E+02  0.47163E+06
 0.28820002E+02  0.67823E+06
 0.28870001E+02  0.54828E+06
 0.28920000E+02  0.33078E+06
 0.28970001E+02 -0.95644E+05
 0.29020000E+02 -0.78872E+06
 0.29070000E+02 -0.10418E+07
 0.29120003E+02 -0.13723E+07
 0.29170002E+02 -0.18593E+07
 0.29220001E+02 -0.24311E+07
 0.29270000E+02 -0.33026E+07
 0.29320000E+02 -0.33424E+07
 0.29370003E+02 -0.21993E+07
 0.29420002E+02 -0.84885E+06
 0.29470001E+02 -0.19152E+05
 0.29520000E+02  0.42832E+06
 0.29570000E+02  0.10253E+07
 0.29620003E+02  0.16050E+07
 0.29670002E+02  0.17839E+07
 0.29720001E+02  0.17154E+07
 0.29770000E+02  0.15399E+07
 0.29820000E+02  0.13019E+07
 0.29870003E+02  0.10318E+07
 0.29920002E+02  0.38032E+06
 0.29970001E+02  0.54758E+05
 0.30020000E+02  0.53360E+06
 0.30070000E+02  0.54742E+06
 0.30120003E+02  0.32809E+05
 0.30170002E+02 -0.20096E+06
 0.30220001E+02  0.38867E+06
 0.30270000E+02  0.10999E+07
 0.30320000E+02  0.90628E+06
 0.30370003E+02  0.89665E+06
 0.30420002E+02  0.15708E+07
 0.30470001E+02  0.19491E+07
 0.30520000E+02  0.17741E+07
 0.30570000E+02  0.17499E+07
 0.30620003E+02  0.15641E+07
 0.30670002E+02  0.97026E+06
 0.30720001E+02  0.85309E+06
 0.30770000E+02  0.14167E+07
 0.30820000E+02  0.18139E+07
 0.30870003E+02  0.13727E+07
 0.30920002E+02  0.83645E+06
 0.30970001E+02  0.46791E+06
 0.31020000E+02  0.48374E+06
 0.31070000E+02  0.11911E+07
 0.31120003E+02  0.16038E+07
 0.31170002E+02  0.11265E+07
 0.31220001E+02  0.95639E+05
 0.31270000E+02 -0.11469E+06
 0.31320000E+02  0.71406E+06
 0.31370003E+02  0.70512E+06
 0.31420002E+02 -0.27046E+06
 0.31470001E+02 -0.76712E+06
 0.31520000E+02 -0.37480E+06
 0.31570000E+02  0.41389E+06
 0.31620003E+02  0.93014E+06
 0.31670002E+02  0.12058E+07
 0.31720001E+02  0.18262E+07
 0.31770000E+02  0.26979E+07
 0.31820000E+02  0.28173E+07
 0.31870003E+02  0.23219E+07
 0.31920002E+02  0.21119E+07
 0.31970001E+02  0.17462E+07
 0.32020000E+02  0.12209E+07
 0.32070000E+02  0.11759E+07
 0.32120003E+02  0.15406E+07
 0.32170002E+02  0.18599E+07
 0.32220001E+02  0.16899E+07
 0.32270000E+02  0.12175E+07
 0.32320000E+02  0.11319E+07
 0.32370003E+02  0.14314E+07
 0.32420002E+02  0.16401E+07
 0.32470001E+02  0.16387E+07
 0.32520000E+02  0.16745E+07
 0.32570000E+02  0.20120E+07
 0.32620003E+02  0.22789E+07
 0.32670002E+02  0.22153E+07
 0.32720001E+02  0.20364E+07
 0.32770000E+02  0.17566E+07
 0.32820000E+02  0.15623E+07
 0.32870003E+02  0.15000E+07
 0.32920002E+02  0.12754E+07
 0.32970001E+02  0.11175E+07
 0.33020000E+02  0.11233E+07
 0.33070000E+02  0.12261E+07
 0.33120003E+02  0.13078E+07
 0.33170002E+02  0.77080E+06
 0.33220001E+02  0.38392E+06
 0.33270000E+02  0.88669E+06
 0.33320000E+02  0.10744E+07
 0.33370003E+02  0.56765E+06
 0.33420002E+02  0.22467E+06
 0.33470001E+02  0.18087E+06
 0.33520000E+02 -0.20761E+06
 0.33570000E+02 -0.10090E+07
 0.33620003E+02 -0.17553E+07
 0.33670002E+02 -0.19699E+07
 0.33720001E+02 -0.15385E+07
 0.33770000E+02 -0.11525E+07
 0.33820000E+02 -0.88458E+06
 0.33870003E+02 -0.82319E+06
 0.33920002E+02 -0.13020E+07
 0.33970001E+02 -0.19052E+07
 0.34020000E+02 -0.25476E+07
 0.34070000E+02 -0.28980E+07
 0.34120003E+02 -0.27858E+07
 0.34170002E+02 -0.26938E+07
 0.34220001E+02 -0.25584E+07
 0.34270000E+02 -0.26648E+07
 0.34320000E+02 -0.28872E+07
 0.34370003E+02 -0.28000E+07
 0.34420002E+02 -0.29738E+07
 0.34470001E+02 -0.31094E+07
 0.34520000E+02 -0.27376E+07
 0.34570000E+02 -0.18747E+07
 0.34620003E+02 -0.76885E+06
 0.34670002E+02 -0.30287E+06
 0.34720001E+02  0.48332E+05
 0.34770000E+02  0.80524E+06
 0.34820000E+02  0.12427E+07
 0.34870003E+02  0.14810E+07
 0.34920002E+02  0.15238E+07
 0.34970001E+02  0.11739E+07
 0.35020000E+02  0.79712E+06
 0.35070000E+02  0.34620E+06
 0.35120003E+02 -0.85510E+05
 0.35170002E+02  0.15410E+06
 0.35220001E+02  0.73805E+06
 0.35270000E+02  0.57313E+06
 0.35320000E+02 -0.11470E+04
 0.35370003E+02 -0.24902E+06
 0.35420002E+02 -0.24931E+06
 0.35470001E+02 -0.31770E+06
 0.35520000E+02 -0.92769E+06
 0.35570000E+02 -0.15999E+07
 0.35620003E+02 -0.20030E+07
 0.35670002E+02 -0.25700E+07
 0.35720001E+02 -0.30381E+07
 0.35770000E+02 -0.33608E+07
 0.35820000E+02 -0.36319E+07
 0.35870003E+02 -0.35410E+07
 0.35920002E+02 -0.29921E+07
 0.35970001E+02 -0.24739E+07
 0.36020000E+02 -0.22603E+07
 0.36070000E+02 -0.17601E+07
 0.36120003E+02 -0.88576E+06
 0.36170002E+02  0.14150E+06
 0.36220001E+02  0.86674E+06
 0.36270000E+02  0.88406E+06
 0.36320000E+02  0.67104E+06
 0.36370003E+02  0.33066E+06
 0.36420002E+02  0.39424E+05
 0.36470001E+02  0.19605E+06
 0.36520000E+02  0.13701E+06
 0.36570000E+02 -0.77558E+06
 0.36620003E+02 -0.18008E+07
 0.36670002E+02 -0.21466E+07
 0.36720001E+02 -0.22360E+07
 0.36770000E+02 -0.25921E+07
 0.36820000E+02 -0.28913E+07
 0.36870003E+02 -0.28462E+07
 0.36920002E+02 -0.25944E+07
 0.36970001E+02 -0.22663E+07
 0.37020000E+02 -0.19479E+07
 0.37070000E+02 -0.14962E+07
 0.37120003E+02 -0.75084E+06
 0.37170002E+02  0.57290E+06
 0.37220001E+02  0.23304E+07
 0.37270000E+02  0.36806E+07
 0.37320000E+02  0.48866E+07
 0.37370003E+02  0.64641E+07
 0.37420002E+02  0.75231E+07
 0.37470001E+02  0.74464E+07
 0.37520000E+02  0.65951E+07
 0.37570000E+02  0.53112E+07
 0.37620003E+02  0.40675E+07
 0.37670002E+02  0.33191E+07
 0.37720001E+02  0.29998E+07
 0.37770000E+02  0.29716E+07
 0.37820000E+02  0.31732E+07
 0.37870003E+02  0.39222E+07
 0.37920002E+02  0.56543E+07
 0.37970001E+02  0.80461E+07
 0.38020000E+02  0.10590E+08
 0.38070000E+02  0.12566E+08
 0.38120003E+02  0.13401E+08
 0.38170002E+02  0.13393E+08
 0.38220001E+02  0.12691E+08
 0.38270000E+02  0.11181E+08
 0.38320000E+02  0.89830E+07
 0.38370003E+02  0.65303E+07
 0.38420002E+02  0.45586E+07
 0.38470001E+02  0.34537E+07
 0.38520000E+02  0.33936E+07
 0.38570000E+02  0.42061E+07
 0.38620003E+02  0.49780E+07
 0.38670002E+02  0.49309E+07
 0.38720001E+02  0.35662E+07
 0.38770000E+02  0.10119E+07
 0.38820000E+02 -0.21633E+07
 0.38870003E+02 -0.54725E+07
 0.38920002E+02 -0.86726E+07
 0.38970001E+02 -0.11824E+08
 0.39020000E+02 -0.14545E+08
 0.39070000E+02 -0.16684E+08
 0.39120003E+02 -0.18190E+08
 0.39170002E+02 -0.19398E+08
 0.39220001E+02 -0.21202E+08
 0.39270000E+02 -0.23594E+08
 0.39320000E+02 -0.25866E+08
 0.39370003E+02 -0.26848E+08
 0.39420002E+02 -0.25511E+08
 0.39470001E+02 -0.21957E+08
 0.39520000E+02 -0.17032E+08
 0.39570000E+02 -0.11105E+08
 0.39620003E+02 -0.43753E+07
 0.39670002E+02  0.24300E+07
 0.39720001E+02  0.84217E+07
 0.39770000E+02  0.12664E+08
 0.39820000E+02  0.14679E+08
 0.39870003E+02  0.14674E+08
 0.39920002E+02  0.13131E+08
 0.39970001E+02  0.11003E+08
 0.40020000E+02  0.95255E+07
 0.40070000E+02  0.85911E+07
 0.40120003E+02  0.72379E+07
 0.40170002E+02  0.56518E+07
 0.40220001E+02  0.50739E+07
 0.40270000E+02  0.56277E+07
 0.40320000E+02  0.56058E+07
 0.40370003E+02  0.47104E+07
 0.40420002E+02  0.48858E+07
 0.40470001E+02  0.60907E+07
 0.40520000E+02  0.57736E+07
 0.40570000E+02  0.41281E+07
 0.40620003E+02  0.32354E+07
 0.40670002E+02  0.22951E+07
 0.40720001E+02  0.46953E+06
 0.40770000E+02 -0.11498E+06
 0.40820000E+02  0.11475E+07
 0.40870003E+02  0.22034E+07
 0.40920002E+02  0.29825E+07
 0.40970001E+02  0.48606E+07
 0.41020000E+02  0.73186E+07
 0.41070000E+02  0.82373E+07
 0.41120003E+02  0.79272E+07
 0.41170002E+02  0.78377E+07
 0.41220001E+02  0.64405E+07
 0.41270000E+02  0.31321E+07
 0.41320000E+02 -0.40881E+06
 0.41370003E+02 -0.29864E+07
 0.41420002E+02 -0.41585E+07
 0.41470001E+02 -0.35375E+07
 0.41520000E+02 -0.14553E+07
 0.41570000E+02  0.29399E+06
 0.41620003E+02  0.55414E+06
 0.41670002E+02  0.15736E+06
 0.41720001E+02  0.69150E+06
 0.41770000E+02  0.18808E+07
 0.41820000E+02  0.26025E+07
 0.41870003E+02  0.29142E+07
 0.41920002E+02  0.23108E+07
 0.41970001E+02  0.50451E+05
 0.42020000E+02 -0.31854E+07
 0.42070000E+02 -0.59251E+07
 0.42120003E+02 -0.82714E+07
 0.42170002E+02 -0.11322E+08
 0.42220001E+02 -0.14206E+08
 0.42270000E+02 -0.15695E+08
 0.42320000E+02 -0.15670E+08
 0.42370003E+02 -0.14295E+08
 0.42420002E+02 -0.12470E+08
 0.42470001E+02 -0.10747E+08
 0.42520000E+02 -0.87193E+07
 0.42570000E+02 -0.63550E+07
 0.42620003E+02 -0.37730E+07
 0.42670002E+02 -0.93178E+06
 0.42720001E+02  0.11370E+07
 0.42770000E+02  0.18219E+07
 0.42820000E+02  0.21176E+07
 0.42870003E+02  0.24315E+07
 0.42920002E+02  0.37916E+07
 0.42970001E+02  0.73483E+07
 0.43020000E+02  0.11536E+08
 0.43070000E+02  0.14114E+08
 0.43120003E+02  0.14373E+08
 0.43170002E+02  0.13295E+08
 0.43220001E+02  0.11599E+08
 0.43270000E+02  0.89344E+07
 0.43320000E+02  0.56747E+07
 0.43370003E+02  0.22593E+07
 0.43420002E+02 -0.86327E+06
 0.43470001E+02 -0.22588E+07
 0.43520000E+02 -0.14497E+07
 0.43570000E+02 -0.36719E+06
 0.43620003E+02 -0.84972E+06
 0.43670002E+02 -0.22790E+07
 0.43720001E+02 -0.33038E+07
 0.43770000E+02 -0.35720E+07
 0.43820000E+02 -0.26987E+07
 0.43870003E+02 -0.56604E+06
 0.43920002E+02  0.15429E+07
 0.43970001E+02  0.27862E+07
 0.44020000E+02  0.42015E+07
 0.44070000E+02  0.64550E+07
 0.44120003E+02  0.77896E+07
 0.44170002E+02  0.65904E+07
 0.44220001E+02  0.40009E+07
 0.44270000E+02  0.16290E+07
 0.44320000E+02 -0.12779E+06
 0.44370003E+02 -0.10301E+07
 0.44420002E+02 -0.10836E+07
 0.44470001E+02 -0.86556E+06
 0.44520000E+02 -0.81947E+06
 0.44570000E+02 -0.11417E+07
 0.44620003E+02 -0.20567E+07
 0.44670002E+02 -0.33043E+07
 0.44720001E+02 -0.41056E+07
 0.44770000E+02 -0.42571E+07
 0.44820000E+02 -0.45389E+07
 0.44870003E+02 -0.55518E+07
 0.44920002E+02 -0.62666E+07
 0.44970001E+02 -0.53077E+07
 0.45020000E+02 -0.34321E+07
 0.45070000E+02 -0.20537E+07
 0.45120003E+02 -0.15049E+07
 0.45170002E+02 -0.15559E+07
 0.45220001E+02 -0.13405E+07
 0.45270000E+02 -0.30562E+06
 0.45320000E+02  0.12765E+07
 0.45370003E+02  0.32190E+07
 0.45420002E+02  0.48402E+07
 0.45470001E+02  0.49521E+07
 0.45520000E+02  0.38670E+07
 0.45570000E+02  0.30409E+07
 0.45620003E+02  0.24977E+07
 0.45670002E+02  0.13134E+07
 0.45720001E+02 -0.41747E+06
 0.45770000E+02 -0.18740E+07
 0.45820000E+02 -0.26363E+07
 0.45870003E+02 -0.31087E+07
 0.45920002E+02 -0.37103E+07
 0.45970001E+02 -0.43101E+07
 0.46020000E+02 -0.44609E+07
 0.46070000E+02 -0.35890E+07
 0.46120003E+02 -0.19911E+07
 0.46170002E+02 -0.86227E+06
 0.46220001E+02 -0.87039E+06
 0.46270000E+02 -0.17047E+07
 0.46320000E+02 -0.34949E+07
 0.46370003E+02 -0.65711E+07
 0.46420002E+02 -0.94259E+07
 0.46470001E+02 -0.10713E+08
 0.46520000E+02 -0.11452E+08
 0.46570000E+02 -0.12777E+08
 0.46620003E+02 -0.13935E+08
 0.46670002E+02 -0.13327E+08
 0.46720001E+02 -0.10502E+08
 0.46770000E+02 -0.68922E+07
 0.46820000E+02 -0.43340E+07
 0.46870003E+02 -0.31612E+07
 0.46920002E+02 -0.23683E+07
 0.46970001E+02 -0.12895E+07
 0.47020000E+02 -0.31812E+06
 0.47070000E+02  0.79164E+06
 0.47120003E+02  0.28904E+07
 0.47170002E+02  0.56932E+07
 0.47220001E+02  0.81253E+07
 0.47270000E+02  0.93619E+07
 0.47320000E+02  0.96690E+07
 0.47370003E+02  0.10029E+08
 0.47420002E+02  0.10615E+08
 0.47470001E+02  0.10497E+08
 0.47520000E+02  0.86782E+07
 0.47570000E+02  0.51510E+07
 0.47620003E+02  0.15051E+07
 0.47670002E+02 -0.44416E+06
 0.47720001E+02 -0.63734E+06
 0.47770000E+02 -0.92574E+05
 0.47820000E+02  0.34634E+06
 0.47870003E+02  0.67578E+06
 0.47920002E+02  0.10408E+07
 0.47970001E+02  0.60885E+06
 0.48020000E+02 -0.84052E+06
 0.48070000E+02 -0.26252E+07
 0.48120003E+02 -0.47863E+07
 0.48170002E+02 -0.69701E+07
 0.48220001E+02 -0.79397E+07
 0.48270000E+02 -0.77001E+07
 0.48320000E+02 -0.69560E+07
 0.48370003E+02 -0.60424E+07
 0.48420002E+02 -0.53353E+07
 0.48470001E+02 -0.42368E+07
 0.48520000E+02 -0.22228E+07
 0.48570000E+02  0.11103E+06
 0.48620003E+02  0.21504E+07
 0.48670002E+02  0.35909E+07
 0.48720001E+02  0.46300E+07
 0.48770000E+02  0.52441E+07
 0.48820000E+02  0.54906E+07
 0.48870003E+02  0.55271E+07
 0.48920002E+02  0.49157E+07
 0.48970001E+02  0.34491E+07
 0.49020000E+02  0.12759E+07
 0.49070000E+02 -0.10155E+07
 0.49120003E+02 -0.26765E+07
 0.49170002E+02 -0.28848E+07
 0.49220001E+02 -0.17339E+07
 0.49270000E+02 -0.68246E+06
 0.49320000E+02 -0.82866E+05
 0.49370003E+02  0.74810E+06
 0.49420002E+02  0.17989E+07
 0.49470001E+02  0.24770E+07
 0.49520000E+02  0.22804E+07
 0.49570000E+02  0.12190E+07
 0.49620003E+02 -0.22205E+06
 0.49670002E+02 -0.17383E+07
 0.49720001E+02 -0.31876E+07
 0.49770000E+02 -0.44326E+07
 0.49820000E+02 -0.54276E+07
 0.49870003E+02 -0.57364E+07
 0.49920002E+02 -0.50284E+07
 0.49970001E+02 -0.34383E+07
 0.50020000E+02 -0.12253E+07
 0.50070000E+02  0.11763E+07
 0.50120003E+02  0.33942E+07
 0.50170002E+02  0.49221E+07
 0.50220001E+02  0.52518E+07
 0.50270000E+02  0.47788E+07
 0.50320000E+02  0.40148E+07
 0.50370003E+02  0.31167E+07
 0.50420002E+02  0.21913E+07
 0.50470001E+02  0.13866E+07
 0.50520000E+02  0.12343E+07
 0.50570000E+02  0.16731E+07
 0.50620003E+02  0.22608E+07
 0.50670002E+02  0.27249E+07
 0.50720001E+02  0.29210E+07
 0.50770000E+02  0.33489E+07
 0.50820000E+02  0.41748E+07
 0.50870003E+02  0.49897E+07
 0.50920002E+02  0.55336E+07
 0.50970001E+02  0.53361E+07
 0.51020000E+02  0.40482E+07
 0.51070000E+02  0.21904E+07
 0.51120003E+02  0.46670E+06
 0.51170002E+02 -0.85983E+06
 0.51220001E+02 -0.19419E+07
 0.51270000E+02 -0.28564E+07
 0.51320000E+02 -0.31571E+07
 0.51370003E+02 -0.22702E+07
 0.51420002E+02 -0.22211E+06
 0.51470001E+02  0.18524E+07
 0.51520000E+02  0.28905E+07
 0.51570000E+02  0.28408E+07
 0.51620003E+02  0.21684E+07
 0.51670002E+02  0.12660E+07
 0.51720001E+02  0.28014E+06
 0.51770000E+02 -0.60686E+06
 0.51820000E+02 -0.13186E+07
 0.51870003E+02 -0.17054E+07
 0.51920002E+02 -0.16176E+07
 0.51970001E+02 -0.11614E+07
 0.52020000E+02 -0.43174E+06
 0.52070000E+02  0.18263E+06
 0.52120003E+02  0.36647E+06
 0.52170002E+02  0.63834E+06
 0.52220001E+02  0.15830E+07
 0.52270000E+02  0.29121E+07
 0.52320000E+02  0.40802E+07
 0.52370003E+02  0.48833E+07
 0.52420002E+02  0.52639E+07
 0.52470001E+02  0.55599E+07
 0.52520000E+02  0.56139E+07
 0.52570000E+02  0.44693E+07
 0.52620003E+02  0.21775E+07
 0.52670002E+02 -0.44784E+06
 0.52720001E+02 -0.27856E+07
 0.52770000E+02 -0.43113E+07
 0.52820000E+02 -0.51101E+07
 0.52870003E+02 -0.56127E+07
 0.52920002E+02 -0.59808E+07
 0.52970001E+02 -0.60205E+07
 0.53020000E+02 -0.52457E+07
 0.53070000E+02 -0.34662E+07
 0.53120003E+02 -0.98256E+06
 0.53170002E+02  0.14654E+07
 0.53220001E+02  0.31470E+07
 0.53270000E+02  0.38681E+07
 0.53320000E+02  0.36902E+07
 0.53370003E+02  0.28871E+07
 0.53420002E+02  0.18764E+07
 0.53470001E+02  0.11622E+07
 0.53520000E+02  0.99469E+06
 0.53570000E+02  0.10954E+07
 0.53620003E+02  0.14374E+07
 0.53670002E+02  0.21713E+07
 0.53720001E+02  0.29434E+07
 0.53770000E+02  0.34545E+07
 0.53820000E+02  0.36984E+07
 0.53870003E+02  0.33455E+07
 0.53920002E+02  0.22328E+07
 0.53970001E+02  0.70978E+06
 0.54020000E+02 -0.82320E+06
 0.54070000E+02 -0.19532E+07
 0.54120003E+02 -0.25672E+07
 0.54170002E+02 -0.28440E+07
 0.54220001E+02 -0.29263E+07
 0.54270000E+02 -0.30067E+07
 0.54320000E+02 -0.31551E+07
 0.54370003E+02 -0.34401E+07
 0.54420002E+02 -0.38237E+07
 0.54470001E+02 -0.38566E+07
 0.54520000E+02 -0.35220E+07
 0.54570000E+02 -0.32410E+07
 0.54620003E+02 -0.30357E+07
 0.54670002E+02 -0.28569E+07
 0.54720001E+02 -0.27750E+07
 0.54770000E+02 -0.22715E+07
 0.54820000E+02 -0.62196E+06
 0.54870003E+02  0.20024E+07
 0.54920002E+02  0.48970E+07
 0.54970001E+02  0.74299E+07
 0.55020000E+02  0.91039E+07
 0.55070000E+02  0.97811E+07
 0.55120003E+02  0.97290E+07
 0.55170002E+02  0.93100E+07
 0.55220001E+02  0.85936E+07
 0.55270000E+02  0.73786E+07
 0.55320000E+02  0.55592E+07
 0.55370003E+02  0.37249E+07
 0.55420002E+02  0.27453E+07
 0.55470001E+02  0.23426E+07
 0.55520000E+02  0.16986E+07
 0.55570000E+02  0.74300E+06
 0.55620003E+02 -0.13520E+06
 0.55670002E+02 -0.69583E+06
 0.55720001E+02 -0.11803E+07
 0.55770000E+02 -0.17776E+07
 0.55820000E+02 -0.24398E+07
 0.55870003E+02 -0.33080E+07
 0.55920002E+02 -0.42200E+07
 0.55970001E+02 -0.48449E+07
 0.56020000E+02 -0.51861E+07
 0.56070000E+02 -0.52243E+07
 0.56120003E+02 -0.50916E+07
 0.56170002E+02 -0.52419E+07
 0.56220001E+02 -0.57409E+07
 0.56270000E+02 -0.61010E+07
 0.56320000E+02 -0.60318E+07
 0.56370003E+02 -0.57241E+07
 0.56420002E+02 -0.52751E+07
 0.56470001E+02 -0.42572E+07
 0.56520000E+02 -0.23805E+07
 0.56570000E+02 -0.17194E+05
 0.56620003E+02  0.22207E+07
 0.56670002E+02  0.36987E+07
 0.56720001E+02  0.40082E+07
 0.56770000E+02  0.31018E+07
 0.56820000E+02  0.14009E+07
 0.56870003E+02 -0.39477E+06
 0.56920002E+02 -0.19163E+07
 0.56970001E+02 -0.29933E+07
 0.57020000E+02 -0.34450E+07
 0.57070000E+02 -0.31780E+07
 0.57120003E+02 -0.22211E+07
 0.57170002E+02 -0.74559E+06
 0.57220001E+02  0.81302E+06
 0.57270000E+02  0.20360E+07
 0.57320000E+02  0.28071E+07
 0.57370003E+02  0.31453E+07
 0.57420002E+02  0.31970E+07
 0.57470001E+02  0.30950E+07
 0.57520000E+02  0.28995E+07
 0.57570000E+02  0.25893E+07
 0.57620003E+02  0.21467E+07
 0.57670002E+02  0.16653E+07
 0.57720001E+02  0.11735E+07
 0.57770000E+02  0.73025E+06
 0.57820000E+02  0.59471E+06
 0.57870003E+02  0.82542E+06
 0.57920002E+02  0.10066E+07
 0.57970001E+02  0.85856E+06
 0.58020000E+02  0.32419E+06
 0.58070000E+02 -0.55369E+06
 0.58120003E+02 -0.14191E+07
 0.58170002E+02 -0.19042E+07
 0.58220001E+02 -0.19689E+07
 0.58270000E+02 -0.18632E+07
 0.58320000E+02 -0.17356E+07
 0.58370003E+02 -0.15515E+07
 0.58420002E+02 -0.12686E+07
 0.58470001E+02 -0.94565E+06
 0.58520000E+02 -0.51992E+06
 0.58570000E+02 -0.71093E+05
 0.58620003E+02 -0.29602E+06
 0.58670002E+02 -0.15102E+07
 0.58720001E+02 -0.33158E+07
 0.58770000E+02 -0.50118E+07
 0.58820000E+02 -0.59225E+07
 0.58870003E+02 -0.58174E+07
 0.58920002E+02 -0.46963E+07
 0.58970001E+02 -0.28239E+07
 0.59020000E+02 -0.72259E+06
 0.59070000E+02  0.10155E+07
 0.59120003E+02  0.20904E+07
 0.59170002E+02  0.26362E+07
 0.59220001E+02  0.28502E+07
 0.59270000E+02  0.27871E+07
 0.59320000E+02  0.23075E+07
 0.59370003E+02  0.14247E+07
 0.59420002E+02  0.43443E+06
 0.59470001E+02 -0.31893E+06
 0.59520000E+02 -0.57381E+06
 0.59570000E+02 -0.35851E+06
 0.59620003E+02 -0.13887E+06
 0.59670002E+02 -0.39450E+06
 0.59720001E+02 -0.11181E+07
 0.59770000E+02 -0.20280E+07
 0.59820000E+02 -0.29759E+07
 0.59870003E+02 -0.39545E+07
 0.59920002E+02 -0.49088E+07
 0.59970001E+02 -0.58502E+07
 0.60020000E+02 -0.67139E+07
 0.60070000E+02 -0.72008E+07
 0.60120003E+02 -0.71272E+07
 0.60170002E+02 -0.64553E+07
 0.60220001E+02 -0.53229E+07
 0.60270000E+02 -0.38949E+07
 0.60320000E+02 -0.21700E+07
 0.60370003E+02 -0.27152E+06
 0.60420002E+02  0.15628E+07
 0.60470001E+02  0.31337E+07
 0.60520000E+02  0.43059E+07
 0.60570000E+02  0.50840E+07
 0.60620003E+02  0.55888E+07
 0.60670002E+02  0.56901E+07
 0.60720001E+02  0.51869E+07
 0.60770000E+02  0.42608E+07
 0.60820000E+02  0.33283E+07
 0.60870003E+02  0.27944E+07
 0.60920002E+02  0.27117E+07
 0.60970001E+02  0.28322E+07
 0.61020000E+02  0.30333E+07
 0.61070004E+02  0.34169E+07
 0.61119999E+02  0.41601E+07
 0.61170002E+02  0.53017E+07
 0.61220005E+02  0.63611E+07
 0.61270000E+02  0.67489E+07
 0.61320004E+02  0.64742E+07
 0.61369999E+02  0.57050E+07
 0.61420002E+02  0.46390E+07
 0.61470005E+02  0.36487E+07
 0.61520000E+02  0.28705E+07
 0.61570004E+02  0.21596E+07
 0.61619999E+02  0.13982E+07
 0.61670002E+02  0.65249E+06
 0.61720005E+02  0.39940E+04
 0.61770000E+02 -0.45397E+06
 0.61820004E+02 -0.56928E+06
 0.61869999E+02 -0.36808E+06
 0.61920002E+02 -0.16775E+06
 0.61970005E+02 -0.30112E+06
 0.62020000E+02 -0.66558E+06
 0.62070004E+02 -0.11663E+07
 0.62119999E+02 -0.19386E+07
 0.62170002E+02 -0.28624E+07
 0.62220005E+02 -0.38240E+07
 0.62270000E+02 -0.47324E+07
 0.62320004E+02 -0.53843E+07
 0.62369999E+02 -0.57017E+07
 0.62420002E+02 -0.55142E+07
 0.62470005E+02 -0.46216E+07
 0.62520000E+02 -0.31855E+07
 0.62570004E+02 -0.16364E+07
 0.62619999E+02 -0.35658E+06
 0.62670002E+02  0.47036E+06
 0.62720005E+02  0.77586E+06
 0.62770000E+02  0.65682E+06
 0.62820004E+02  0.32698E+06
 0.62869999E+02 -0.11058E+06
 0.62920002E+02 -0.53132E+06
 0.62970005E+02 -0.74332E+06
 0.63020000E+02 -0.66640E+06
 0.63070004E+02 -0.38390E+06
 0.63119999E+02 -0.10658E+06
 0.63170002E+02 -0.50871E+05
 0.63220005E+02 -0.32933E+06
 0.63270000E+02 -0.10490E+07
 0.63320004E+02 -0.22170E+07
 0.63369999E+02 -0.34107E+07
 0.63420002E+02 -0.41252E+07
 0.63470005E+02 -0.42447E+07
 0.63520000E+02 -0.38679E+07
 0.63570004E+02 -0.30713E+07
 0.63619999E+02 -0.19308E+07
 0.63670002E+02 -0.52128E+06
 0.63720005E+02  0.10641E+07
 0.63770000E+02  0.25451E+07
 0.63820004E+02  0.36326E+07
 0.63869999E+02  0.42264E+07
 0.63920002E+02  0.44583E+07
 0.63970005E+02  0.46009E+07
 0.64019997E+02  0.46190E+07
 0.64070000E+02  0.41052E+07
 0.64119995E+02  0.28901E+07
 0.64169998E+02  0.12720E+07
 0.64220001E+02 -0.45932E+06
 0.64269997E+02 -0.21541E+07
 0.64320000E+02 -0.36971E+07
 0.64369995E+02 -0.50517E+07
 0.64419998E+02 -0.60979E+07
 0.64470001E+02 -0.65723E+07
 0.64519997E+02 -0.64350E+07
 0.64570000E+02 -0.58291E+07
 0.64619995E+02 -0.47214E+07
 0.64669998E+02 -0.31972E+07
 0.64720001E+02 -0.15656E+07
 0.64769997E+02  0.22813E+05
 0.64820000E+02  0.15842E+07
 0.64869995E+02  0.30433E+07
 0.64919998E+02  0.42739E+07
 0.64970001E+02  0.52999E+07
 0.65019997E+02  0.61685E+07
 0.65070000E+02  0.66832E+07
 0.65119995E+02  0.65528E+07
 0.65169998E+02  0.58442E+07
 0.65220001E+02  0.48640E+07
 0.65269997E+02  0.37515E+07
 0.65320000E+02  0.24833E+07
 0.65369995E+02  0.10581E+07
 0.65419998E+02 -0.31968E+06
 0.65470001E+02 -0.12919E+07
 0.65519997E+02 -0.16388E+07
 0.65570000E+02 -0.15146E+07
 0.65619995E+02 -0.12166E+07
 0.65669998E+02 -0.85015E+06
 0.65720001E+02 -0.46336E+06
 0.65769997E+02 -0.43550E+05
 0.65820000E+02  0.48936E+06
 0.65869995E+02  0.10833E+07
 0.65919998E+02  0.15809E+07
 0.65970001E+02  0.18314E+07
 0.66019997E+02  0.18099E+07
 0.66070000E+02  0.16255E+07
 0.66119995E+02  0.13814E+07
 0.66169998E+02  0.95543E+06
 0.66220001E+02  0.18994E+06
 0.66269997E+02 -0.63475E+06
 0.66320000E+02 -0.11940E+07
 0.66369995E+02 -0.15610E+07
 0.66419998E+02 -0.18764E+07
 0.66470001E+02 -0.21263E+07
 0.66519997E+02 -0.21111E+07
 0.66570000E+02 -0.15970E+07
 0.66619995E+02 -0.61489E+06
 0.66669998E+02  0.51968E+06
 0.66720001E+02  0.14149E+07
 0.66769997E+02  0.19049E+07
 0.66820000E+02  0.20801E+07
 0.66869995E+02  0.21192E+07
 0.66919998E+02  0.22132E+07
 0.66970001E+02  0.23649E+07
 0.67019997E+02  0.24973E+07
 0.67070000E+02  0.27168E+07
 0.67119995E+02  0.29933E+07
 0.67169998E+02  0.30873E+07
 0.67220001E+02  0.29525E+07
 0.67269997E+02  0.26843E+07
 0.67320000E+02  0.21193E+07
 0.67369995E+02  0.10155E+07
 0.67419998E+02 -0.31316E+06
 0.67470001E+02 -0.13093E+07
 0.67519997E+02 -0.17760E+07
 0.67570000E+02 -0.17678E+07
 0.67619995E+02 -0.13268E+07
 0.67669998E+02 -0.41721E+06
 0.67720001E+02  0.71522E+06
 0.67769997E+02  0.16762E+07
 0.67820000E+02  0.22991E+07
 0.67869995E+02  0.24827E+07
 0.67919998E+02  0.22299E+07
 0.67970001E+02  0.16374E+07
 0.68019997E+02  0.81120E+06
 0.68070000E+02 -0.16468E+06
 0.68119995E+02 -0.13350E+07
 0.68169998E+02 -0.26736E+07
 0.68220001E+02 -0.39938E+07
 0.68269997E+02 -0.51046E+07
 0.68320000E+02 -0.58646E+07
 0.68369995E+02 -0.62508E+07
 0.68419998E+02 -0.63251E+07
 0.68470001E+02 -0.60859E+07
 0.68519997E+02 -0.54264E+07
 0.68570000E+02 -0.42629E+07
 0.68619995E+02 -0.27498E+07
 0.68669998E+02 -0.11801E+07
 0.68720001E+02  0.30338E+06
 0.68769997E+02  0.16658E+07
 0.68820000E+02  0.28637E+07
 0.68869995E+02  0.38024E+07
 0.68919998E+02  0.43293E+07
 0.68970001E+02  0.44231E+07
 0.69019997E+02  0.42940E+07
 0.69070000E+02  0.41991E+07
 0.69119995E+02  0.41628E+07
 0.69169998E+02  0.39212E+07
 0.69220001E+02  0.32195E+07
 0.69269997E+02  0.21076E+07
 0.69320000E+02  0.77731E+06
 0.69369995E+02 -0.69758E+06
 0.69419998E+02 -0.22518E+07
 0.69470001E+02 -0.37786E+07
 0.69519997E+02 -0.52390E+07
 0.69570000E+02 -0.65536E+07
 0.69619995E+02 -0.75199E+07
 0.69669998E+02 -0.79861E+07
 0.69720001E+02 -0.79891E+07
 0.69769997E+02 -0.77190E+07
 0.69820000E+02 -0.73103E+07
 0.69869995E+02 -0.66826E+07
 0.69919998E+02 -0.57054E+07
 0.69970001E+02 -0.44217E+07
 0.70019997E+02 -0.29565E+07
 0.70070000E+02 -0.13582E+07
 0.70119995E+02  0.26015E+06
 0.70169998E+02  0.16651E+07
 0.70220001E+02  0.27226E+07
 0.70269997E+02  0.34498E+07
 0.70320000E+02  0.38517E+07
 0.70369995E+02  0.39425E+07
 0.70419998E+02  0.39010E+07
 0.70470001E+02  0.39027E+07
 0.70519997E+02  0.39499E+07
 0.70570000E+02  0.40113E+07
 0.70619995E+02  0.40765E+07
 0.70669998E+02  0.41129E+07
 0.70720001E+02  0.41569E+07
 0.70769997E+02  0.41903E+07
 0.70820000E+02  0.40026E+07
 0.70869995E+02  0.35055E+07
 0.70919998E+02  0.28787E+07
 0.70970001E+02  0.23651E+07
 0.71019997E+02  0.20032E+07
 0.71070000E+02  0.16360E+07
 0.71119995E+02  0.12685E+07
 0.71169998E+02  0.11132E+07
 0.71220001E+02  0.12421E+07
 0.71269997E+02  0.14264E+07
 0.71320000E+02  0.14581E+07
 0.71369995E+02  0.13061E+07
 0.71419998E+02  0.86650E+06
 0.71470001E+02 -0.10628E+05
 0.71519997E+02 -0.13439E+07
 0.71570000E+02 -0.31151E+07
 0.71619995E+02 -0.52361E+07
 0.71669998E+02 -0.73066E+07
 0.71720001E+02 -0.88197E+07
 0.71769997E+02 -0.95476E+07
 0.71820000E+02 -0.94967E+07
 0.71869995E+02 -0.87169E+07
 0.71919998E+02 -0.72756E+07
 0.71970001E+02 -0.53765E+07
 0.72019997E+02 -0.32900E+07
 0.72070000E+02 -0.11648E+07
 0.72119995E+02  0.86838E+06
 0.72169998E+02  0.25940E+07
 0.72220001E+02  0.39354E+07
 0.72269997E+02  0.50293E+07
 0.72320000E+02  0.58270E+07
 0.72369995E+02  0.61237E+07
 0.72419998E+02  0.59451E+07
 0.72470001E+02  0.54417E+07
 0.72519997E+02  0.47503E+07
 0.72570000E+02  0.38916E+07
 0.72619995E+02  0.28854E+07
 0.72669998E+02  0.19514E+07
 0.72720001E+02  0.12666E+07
 0.72769997E+02  0.92602E+06
 0.72820000E+02  0.93800E+06
 0.72869995E+02  0.12105E+07
 0.72919998E+02  0.16904E+07
 0.72970001E+02  0.22954E+07
 0.73019997E+02  0.29410E+07
 0.73070000E+02  0.35700E+07
 0.73119995E+02  0.39986E+07
 0.73169998E+02  0.39503E+07
 0.73220001E+02  0.33944E+07
 0.73269997E+02  0.25846E+07
 0.73320000E+02  0.17312E+07
 0.73369995E+02  0.93148E+06
 0.73419998E+02  0.26584E+06
 0.73470001E+02 -0.20072E+06
 0.73519997E+02 -0.50411E+06
 0.73570000E+02 -0.73044E+06
 0.73619995E+02 -0.93415E+06
 0.73669998E+02 -0.12065E+07
 0.73720001E+02 -0.15158E+07
 0.73769997E+02 -0.17305E+07
 0.73820000E+02 -0.18812E+07
 0.73869995E+02 -0.20293E+07
 0.73919998E+02 -0.21375E+07
 0.73970001E+02 -0.21440E+07
 0.74019997E+02 -0.20465E+07
 0.74070000E+02 -0.19062E+07
 0.74119995E+02 -0.17118E+07
 0.74169998E+02 -0.13856E+07
 0.74220001E+02 -0.88857E+06
 0.74269997E+02 -0.28081E+06
 0.74320000E+02  0.23865E+06
 0.74369995E+02  0.46626E+06
 0.74419998E+02  0.35821E+06
 0.74470001E+02  0.12890E+04
 0.74519997E+02 -0.48160E+06
 0.74570000E+02 -0.94067E+06
 0.74619995E+02 -0.12303E+07
 0.74669998E+02 -0.13564E+07
 0.74720001E+02 -0.13428E+07
 0.74769997E+02 -0.11230E+07
 0.74820000E+02 -0.80322E+06
 0.74869995E+02 -0.57029E+06
 0.74919998E+02 -0.51541E+06
 0.74970001E+02 -0.67016E+06
 0.75019997E+02 -0.10467E+07
 0.75070000E+02 -0.16480E+07
 0.75119995E+02 -0.23894E+07
 0.75169998E+02 -0.32457E+07
 0.75220001E+02 -0.42157E+07
 0.75269997E+02 -0.51313E+07
 0.75320000E+02 -0.57917E+07
 0.75369995E+02 -0.61087E+07
 0.75419998E+02 -0.61571E+07
 0.75470001E+02 -0.60305E+07
 0.75519997E+02 -0.57031E+07
 0.75570000E+02 -0.52158E+07
 0.75619995E+02 -0.46783E+07
 0.75669998E+02 -0.39997E+07
 0.75720001E+02 -0.30291E+07
 0.75769997E+02 -0.18037E+07
 0.75820000E+02 -0.40180E+06
 0.75869995E+02  0.11332E+07
 0.75919998E+02  0.27541E+07
 0.75970001E+02  0.43689E+07
 0.76019997E+02  0.58400E+07
 0.76070000E+02  0.70860E+07
 0.76119995E+02  0.79978E+07
 0.76169998E+02  0.85141E+07
 0.76220001E+02  0.86985E+07
 0.76269997E+02  0.85051E+07
 0.76320000E+02  0.78335E+07
 0.76369995E+02  0.67294E+07
 0.76419998E+02  0.53891E+07
 0.76470001E+02  0.39563E+07
 0.76519997E+02  0.24856E+07
 0.76570000E+02  0.11058E+07
 0.76619995E+02 -0.95221E+05
 0.76669998E+02 -0.11013E+07
 0.76720001E+02 -0.19179E+07
 0.76769997E+02 -0.25603E+07
 0.76820000E+02 -0.29831E+07
 0.76869995E+02 -0.31303E+07
 0.76919998E+02 -0.30381E+07
 0.76970001E+02 -0.28130E+07
 0.77019997E+02 -0.24683E+07
 0.77070000E+02 -0.19863E+07
 0.77119995E+02 -0.14293E+07
 0.77169998E+02 -0.85328E+06
 0.77220001E+02 -0.33224E+06
 0.77269997E+02  0.37198E+05
 0.77320000E+02  0.22880E+06
 0.77369995E+02  0.28763E+06
 0.77419998E+02  0.30511E+06
 0.77470001E+02  0.38168E+06
 0.77519997E+02  0.53104E+06
 0.77570000E+02  0.70344E+06
 0.77619995E+02  0.86170E+06
 0.77669998E+02  0.97997E+06
 0.77720001E+02  0.10002E+07
 0.77769997E+02  0.83246E+06
 0.77820000E+02  0.52773E+06
 0.77869995E+02  0.30135E+06
 0.77919998E+02  0.28469E+06
 0.77970001E+02  0.45302E+06
 0.78019997E+02  0.72774E+06
 0.78070000E+02  0.10423E+07
 0.78119995E+02  0.14514E+07
 0.78169998E+02  0.20211E+07
 0.78220001E+02  0.26452E+07
 0.78269997E+02  0.31355E+07
 0.78320000E+02  0.33597E+07
 0.78369995E+02  0.33444E+07
 0.78419998E+02  0.31390E+07
 0.78470001E+02  0.26929E+07
 0.78519997E+02  0.20335E+07
 0.78570000E+02  0.13098E+07
 0.78619995E+02  0.64762E+06
 0.78669998E+02  0.10831E+06
 0.78720001E+02 -0.26978E+06
 0.78769997E+02 -0.52009E+06
 0.78820000E+02 -0.70995E+06
 0.78869995E+02 -0.86080E+06
 0.78919998E+02 -0.99164E+06
 0.78970001E+02 -0.11071E+07
 0.79019997E+02 -0.12345E+07
 0.79070000E+02 -0.14421E+07
 0.79119995E+02 -0.17254E+07
 0.79169998E+02 -0.20135E+07
 0.79220001E+02 -0.22290E+07
 0.79269997E+02 -0.23383E+07
 0.79320000E+02 -0.24079E+07
 0.79369995E+02 -0.25183E+07
 0.79419998E+02 -0.25966E+07
 0.79470001E+02 -0.24557E+07
 0.79519997E+02 -0.20536E+07
 0.79570000E+02 -0.14690E+07
 0.79619995E+02 -0.71395E+06
 0.79669998E+02  0.19491E+06
 0.79720001E+02  0.11630E+07
 0.79769997E+02  0.20818E+07
 0.79820000E+02  0.28809E+07
 0.79869995E+02  0.34625E+07
 0.79919998E+02  0.36468E+07
 0.79970001E+02  0.32768E+07
 0.80019997E+02  0.23694E+07
 0.80070000E+02  0.11632E+07
 0.80119995E+02 -0.55865E+05
 0.80169998E+02 -0.11462E+07
 0.80220001E+02 -0.20350E+07
 0.80269997E+02 -0.26215E+07
 0.80320000E+02 -0.28440E+07
 0.80369995E+02 -0.27133E+07
 0.80419998E+02 -0.22871E+07
 0.80470001E+02 -0.17449E+07
 0.80519997E+02 -0.13008E+07
 0.80570000E+02 -0.99329E+06
 0.80619995E+02 -0.77533E+06
 0.80669998E+02 -0.63309E+06
 0.80720001E+02 -0.55227E+06
 0.80769997E+02 -0.51268E+06
 0.80820000E+02 -0.54665E+06
 0.80869995E+02 -0.69028E+06
 0.80919998E+02 -0.90262E+06
 0.80970001E+02 -0.10926E+07
 0.81019997E+02 -0.11459E+07
 0.81070000E+02 -0.10386E+07
 0.81119995E+02 -0.82482E+06
 0.81169998E+02 -0.52806E+06
 0.81220001E+02 -0.18330E+06
 0.81269997E+02  0.22596E+06
 0.81320000E+02  0.83570E+06
 0.81369995E+02  0.16653E+07
 0.81419998E+02  0.24886E+07
 0.81470001E+02  0.31157E+07
 0.81519997E+02  0.34985E+07
 0.81570000E+02  0.36474E+07
 0.81619995E+02  0.36498E+07
 0.81669998E+02  0.35905E+07
 0.81720001E+02  0.35015E+07
 0.81769997E+02  0.33523E+07
 0.81820000E+02  0.31242E+07
 0.81869995E+02  0.28982E+07
 0.81919998E+02  0.26943E+07
 0.81970001E+02  0.23974E+07
 0.82019997E+02  0.19269E+07
 0.82070000E+02  0.13186E+07
 0.82119995E+02  0.60889E+06
 0.82169998E+02 -0.21958E+06
 0.82220001E+02 -0.11328E+07
 0.82269997E+02 -0.20046E+07
 0.82320000E+02 -0.27333E+07
 0.82369995E+02 -0.32993E+07
 0.82419998E+02 -0.37097E+07
 0.82470001E+02 -0.39765E+07
 0.82519997E+02 -0.41271E+07
 0.82570000E+02 -0.41815E+07
 0.82619995E+02 -0.40795E+07
 0.82669998E+02 -0.37715E+07
 0.82720001E+02 -0.33220E+07
 0.82769997E+02 -0.27782E+07
 0.82820000E+02 -0.21161E+07
 0.82869995E+02 -0.13004E+07
 0.82919998E+02 -0.35693E+06
 0.82970001E+02  0.58691E+06
 0.83019997E+02  0.13903E+07
 0.83070000E+02  0.19814E+07
 0.83119995E+02  0.23578E+07
 0.83169998E+02  0.25418E+07
 0.83220001E+02  0.25301E+07
 0.83269997E+02  0.23341E+07
 0.83320000E+02  0.20546E+07
 0.83369995E+02  0.18194E+07
 0.83419998E+02  0.16734E+07
 0.83470001E+02  0.16004E+07
 0.83519997E+02  0.15798E+07
 0.83570000E+02  0.15722E+07
 0.83619995E+02  0.14724E+07
 0.83669998E+02  0.12166E+07
 0.83720001E+02  0.88234E+06
 0.83769997E+02  0.50995E+06
 0.83820000E+02  0.42519E+05
 0.83869995E+02 -0.48191E+06
 0.83919998E+02 -0.87033E+06
 0.83970001E+02 -0.10061E+07
 0.84019997E+02 -0.10006E+07
 0.84070000E+02 -0.99342E+06
 0.84119995E+02 -0.98098E+06
 0.84169998E+02 -0.92367E+06
 0.84220001E+02 -0.87818E+06
 0.84269997E+02 -0.91785E+06
 0.84320000E+02 -0.10219E+07
 0.84369995E+02 -0.10963E+07
 0.84419998E+02 -0.10737E+07
 0.84470001E+02 -0.98235E+06
 0.84519997E+02 -0.89138E+06
 0.84570000E+02 -0.85705E+06
 0.84619995E+02 -0.95545E+06
 0.84669998E+02 -0.12637E+07
 0.84720001E+02 -0.17296E+07
 0.84769997E+02 -0.22007E+07
 0.84820000E+02 -0.26179E+07
 0.84869995E+02 -0.30522E+07
 0.84919998E+02 -0.35399E+07
 0.84970001E+02 -0.39802E+07
 0.85019997E+02 -0.42430E+07
 0.85070000E+02 -0.42820E+07
 0.85119995E+02 -0.41139E+07
 0.85169998E+02 -0.37488E+07
 0.85220001E+02 -0.32094E+07
 0.85269997E+02 -0.25532E+07
 0.85320000E+02 -0.18191E+07
 0.85369995E+02 -0.10389E+07
 0.85419998E+02 -0.26811E+06
 0.85470001E+02  0.44037E+06
 0.85519997E+02  0.10523E+07
 0.85570000E+02  0.15565E+07
 0.85619995E+02  0.19554E+07
 0.85669998E+02  0.22158E+07
 0.85720001E+02  0.22755E+07
 0.85769997E+02  0.21332E+07
 0.85820000E+02  0.19084E+07
 0.85869995E+02  0.17311E+07
 0.85919998E+02  0.16452E+07
 0.85970001E+02  0.16764E+07
 0.86019997E+02  0.18288E+07
 0.86070000E+02  0.20249E+07
 0.86119995E+02  0.21423E+07
 0.86169998E+02  0.20758E+07
 0.86220001E+02  0.17837E+07
 0.86269997E+02  0.13321E+07
 0.86320000E+02  0.81446E+06
 0.86369995E+02  0.27900E+06
 0.86419998E+02 -0.20803E+06
 0.86470001E+02 -0.58594E+06
 0.86519997E+02 -0.84516E+06
 0.86570000E+02 -0.97917E+06
 0.86619995E+02 -0.91064E+06
 0.86669998E+02 -0.57480E+06
 0.86720001E+02 -0.69209E+05
 0.86769997E+02  0.45314E+06
 0.86820000E+02  0.92379E+06
 0.86869995E+02  0.13485E+07
 0.86919998E+02  0.17116E+07
 0.86970001E+02  0.19253E+07
 0.87019997E+02  0.19585E+07
 0.87070000E+02  0.18564E+07
 0.87119995E+02  0.16546E+07
 0.87169998E+02  0.13661E+07
 0.87220001E+02  0.10078E+07
 0.87269997E+02  0.68633E+06
 0.87320000E+02  0.54327E+06
 0.87369995E+02  0.59880E+06
 0.87419998E+02  0.76964E+06
 0.87470001E+02  0.96293E+06
 0.87519997E+02  0.11180E+07
 0.87570000E+02  0.12077E+07
 0.87619995E+02  0.12074E+07
 0.87669998E+02  0.11252E+07
 0.87720001E+02  0.10246E+07
 0.87769997E+02  0.90512E+06
 0.87820000E+02  0.71110E+06
 0.87869995E+02  0.45426E+06
 0.87919998E+02  0.18665E+06
 0.87970001E+02 -0.52847E+05
 0.88019997E+02 -0.27691E+06
 0.88070000E+02 -0.51627E+06
 0.88119995E+02 -0.76576E+06
 0.88169998E+02 -0.10044E+07
 0.88220001E+02 -0.11943E+07
 0.88269997E+02 -0.13263E+07
 0.88320000E+02 -0.13998E+07
 0.88369995E+02 -0.13949E+07
 0.88419998E+02 -0.13009E+07
 0.88470001E+02 -0.11312E+07
 0.88519997E+02 -0.96215E+06
 0.88570000E+02 -0.86236E+06
 0.88619995E+02 -0.82489E+06
 0.88669998E+02 -0.81478E+06
 0.88720001E+02 -0.84355E+06
 0.88769997E+02 -0.91890E+06
 0.88820000E+02 -0.92851E+06
 0.88869995E+02 -0.75266E+06
 0.88919998E+02 -0.38891E+06
 0.88970001E+02  0.13548E+06
 0.89019997E+02  0.77887E+06
 0.89070000E+02  0.14592E+07
 0.89119995E+02  0.21258E+07
 0.89169998E+02  0.27270E+07
 0.89220001E+02  0.31604E+07
 0.89269997E+02  0.33168E+07
 0.89320000E+02  0.31272E+07
 0.89369995E+02  0.25885E+07
 0.89419998E+02  0.17915E+07
 0.89470001E+02  0.90191E+06
 0.89519997E+02  0.30544E+05
 0.89570000E+02 -0.78329E+06
 0.89619995E+02 -0.14762E+07
 0.89669998E+02 -0.19890E+07
 0.89720001E+02 -0.22905E+07
 0.89769997E+02 -0.23650E+07
 0.89820000E+02 -0.22616E+07
 0.89869995E+02 -0.20662E+07
 0.89919998E+02 -0.18646E+07
 0.89970001E+02 -0.17579E+07
 0.90019997E+02 -0.17879E+07
 0.90070000E+02 -0.18960E+07
 0.90119995E+02 -0.20100E+07
 0.90169998E+02 -0.20969E+07
 0.90220001E+02 -0.21012E+07
 0.90269997E+02 -0.19694E+07
 0.90320000E+02 -0.17452E+07
 0.90369995E+02 -0.15052E+07
 0.90419998E+02 -0.12389E+07
 0.90470001E+02 -0.84976E+06
 0.90519997E+02 -0.28901E+06
 0.90570000E+02  0.34979E+06
 0.90619995E+02  0.94155E+06
 0.90669998E+02  0.14628E+07
 0.90720001E+02  0.19549E+07
 0.90769997E+02  0.23783E+07
 0.90820000E+02  0.25881E+07
 0.90869995E+02  0.25188E+07
 0.90919998E+02  0.22340E+07
 0.90970001E+02  0.18028E+07
 0.91019997E+02  0.13067E+07
 0.91070000E+02  0.83808E+06
 0.91119995E+02  0.42067E+06
 0.91169998E+02  0.51176E+05
 0.91220001E+02 -0.24701E+06
 0.91269997E+02 -0.46234E+06
 0.91320000E+02 -0.58198E+06
 0.91369995E+02 -0.56630E+06
 0.91419998E+02 -0.43286E+06
 0.91470001E+02 -0.29065E+06
 0.91519997E+02 -0.24134E+06
 0.91570000E+02 -0.29656E+06
 0.91619995E+02 -0.39490E+06
 0.91669998E+02 -0.50929E+06
 0.91720001E+02 -0.65074E+06
 0.91769997E+02 -0.76077E+06
 0.91820000E+02 -0.73344E+06
 0.91869995E+02 -0.55135E+06
 0.91919998E+02 -0.31012E+06
 0.91970001E+02 -0.70267E+05
 0.92019997E+02  0.16822E+06
 0.92070000E+02  0.37146E+06
 0.92119995E+02  0.50900E+06
 0.92169998E+02  0.60158E+06
 0.92220001E+02  0.69783E+06
 0.92269997E+02  0.83336E+06
 0.92320000E+02  0.10086E+07
 0.92369995E+02  0.11919E+07
 0.92419998E+02  0.13133E+07
 0.92470001E+02  0.12746E+07
 0.92519997E+02  0.10250E+07
 0.92570000E+02  0.60266E+06
 0.92619995E+02  0.52181E+05
 0.92669998E+02 -0.57296E+06
 0.92720001E+02 -0.11864E+07
 0.92769997E+02 -0.17377E+07
 0.92820000E+02 -0.22281E+07
 0.92869995E+02 -0.26600E+07
 0.92919998E+02 -0.29676E+07
 0.92970001E+02 -0.30672E+07
 0.93019997E+02 -0.29414E+07
 0.93070000E+02 -0.26167E+07
 0.93119995E+02 -0.21568E+07
 0.93169998E+02 -0.16502E+07
 0.93220001E+02 -0.11191E+07
 0.93269997E+02 -0.50957E+06
 0.93320000E+02  0.19389E+06
 0.93369995E+02  0.92535E+06
 0.93419998E+02  0.15839E+07
 0.93470001E+02  0.20923E+07
 0.93519997E+02  0.24171E+07
 0.93570000E+02  0.25619E+07
 0.93619995E+02  0.25898E+07
 0.93669998E+02  0.25772E+07
 0.93720001E+02  0.25260E+07
 0.93769997E+02  0.23907E+07
 0.93820000E+02  0.21827E+07
 0.93869995E+02  0.19763E+07
 0.93919998E+02  0.18142E+07
 0.93970001E+02  0.17057E+07
 0.94019997E+02  0.16559E+07
 0.94070000E+02  0.16471E+07
 0.94119995E+02  0.16718E+07
 0.94169998E+02  0.17270E+07
 0.94220001E+02  0.17748E+07
 0.94269997E+02  0.17498E+07
 0.94320000E+02  0.15720E+07
 0.94369995E+02  0.12079E+07
 0.94419998E+02  0.68961E+06
 0.94470001E+02  0.90127E+05
 0.94519997E+02 -0.50471E+06
 0.94570000E+02 -0.10630E+07
 0.94619995E+02 -0.15956E+07
 0.94669998E+02 -0.20915E+07
 0.94720001E+02 -0.24982E+07
 0.94769997E+02 -0.27562E+07
 0.94820000E+02 -0.28560E+07
 0.94869995E+02 -0.28355E+07
 0.94919998E+02 -0.27135E+07
 0.94970001E+02 -0.24516E+07
 0.95019997E+02 -0.20203E+07
 0.95070000E+02 -0.14584E+07
 0.95119995E+02 -0.80647E+06
 0.95169998E+02 -0.10143E+06
 0.95220001E+02  0.56520E+06
 0.95269997E+02  0.11038E+07
 0.95320000E+02  0.14697E+07
 0.95369995E+02  0.16335E+07
 0.95419998E+02  0.16036E+07
 0.95470001E+02  0.14265E+07
 0.95519997E+02  0.11232E+07
 0.95570000E+02  0.73018E+06
 0.95619995E+02  0.33358E+06
 0.95669998E+02 -0.49000E+03
 0.95720001E+02 -0.23522E+06
 0.95769997E+02 -0.32590E+06
 0.95820000E+02 -0.25865E+06
 0.95869995E+02 -0.10272E+06
 0.95919998E+02  0.57685E+05
 0.95970001E+02  0.17697E+06
 0.96019997E+02  0.21157E+06
 0.96070000E+02  0.13957E+06
 0.96119995E+02 -0.12639E+05
 0.96169998E+02 -0.22365E+06
 0.96220001E+02 -0.47814E+06
 0.96269997E+02 -0.72389E+06
 0.96320000E+02 -0.91873E+06
 0.96369995E+02 -0.10541E+07
 0.96419998E+02 -0.11029E+07
 0.96470001E+02 -0.10201E+07
 0.96519997E+02 -0.81405E+06
 0.96570000E+02 -0.55712E+06
 0.96619995E+02 -0.31661E+06
 0.96669998E+02 -0.10255E+06
 0.96720001E+02  0.12049E+06
 0.96769997E+02  0.36623E+06
 0.96820000E+02  0.60760E+06
 0.96869995E+02  0.80242E+06
 0.96919998E+02  0.92364E+06
 0.96970001E+02  0.99254E+06
 0.97019997E+02  0.10499E+07
 0.97070000E+02  0.11024E+07
 0.97119995E+02  0.11228E+07
 0.97169998E+02  0.10686E+07
 0.97220001E+02  0.89775E+06
 0.97269997E+02  0.59841E+06
 0.97320000E+02  0.19757E+06
 0.97369995E+02 -0.23860E+06
 0.97419998E+02 -0.65108E+06
 0.97470001E+02 -0.10039E+07
 0.97519997E+02 -0.12347E+07
 0.97570000E+02 -0.12886E+07
 0.97619995E+02 -0.11937E+07
 0.97669998E+02 -0.10600E+07
 0.97720001E+02 -0.94979E+06
 0.97769997E+02 -0.83340E+06
 0.97820000E+02 -0.68384E+06
 0.97869995E+02 -0.49635E+06
 0.97919998E+02 -0.29032E+06
 0.97970001E+02 -0.13289E+06
 0.98019997E+02 -0.94443E+05
 0.98070000E+02 -0.17726E+06
 0.98119995E+02 -0.33728E+06
 0.98169998E+02 -0.54116E+06
 0.98220001E+02 -0.75057E+06
 0.98269997E+02 -0.91058E+06
 0.98320000E+02 -0.96775E+06
 0.98369995E+02 -0.87393E+06
 0.98419998E+02 -0.62936E+06
 0.98470001E+02 -0.30151E+06
 0.98519997E+02  0.49712E+05
 0.98570000E+02  0.40003E+06
 0.98619995E+02  0.73126E+06
 0.98669998E+02  0.10122E+07
 0.98720001E+02  0.11987E+07
 0.98769997E+02  0.12503E+07
 0.98820000E+02  0.11773E+07
 0.98869995E+02  0.10462E+07
 0.98919998E+02  0.90758E+06
 0.98970001E+02  0.79466E+06
 0.99019997E+02  0.73820E+06
 0.99070000E+02  0.74511E+06
 0.99119995E+02  0.80551E+06
 0.99169998E+02  0.89842E+06
 0.99220001E+02  0.97558E+06
 0.99269997E+02  0.96643E+06
 0.99320000E+02  0.83126E+06
 0.99369995E+02  0.58975E+06
 0.99419998E+02  0.28375E+06
 0.99470001E+02 -0.59982E+05
 0.99519997E+02 -0.38978E+06
 0.99570000E+02 -0.64586E+06
 0.99619995E+02 -0.82283E+06
 0.99669998E+02 -0.91709E+06
 0.99720001E+02 -0.92774E+06
 0.99769997E+02 -0.90732E+06
 0.99820000E+02 -0.94272E+06
 0.99869995E+02 -0.10877E+07
 0.99919998E+02 -0.12871E+07
 0.99970001E+02 -0.14461E+07
 0.10002000E+03 -0.15311E+07
 0.10007000E+03 -0.15527E+07
 0.10012000E+03 -0.15143E+07
 0.10017000E+03 -0.14093E+07
 0.10022000E+03 -0.12814E+07
 0.10027000E+03 -0.11856E+07
 0.10032000E+03 -0.11257E+07
 0.10037000E+03 -0.10678E+07
 0.10042000E+03 -0.96317E+06
 0.10047000E+03 -0.78752E+06
 0.10052000E+03 -0.53221E+06
 0.10057000E+03 -0.21015E+06
 0.10062000E+03  0.12938E+06
 0.10067000E+03  0.45526E+06
 0.10072000E+03  0.73731E+06
 0.10077000E+03  0.92044E+06
 0.10082000E+03  0.96616E+06
 0.10087000E+03  0.86460E+06
 0.10092000E+03  0.64718E+06
 0.10097000E+03  0.35199E+06
 0.10102000E+03  0.18463E+05
 0.10107000E+03 -0.30325E+06
 0.10112000E+03 -0.59673E+06
 0.10117000E+03 -0.84200E+06
 0.10122000E+03 -0.10087E+07
 0.10127000E+03 -0.10664E+07
 0.10132000E+03 -0.97917E+06
 0.10137000E+03 -0.73094E+06
 0.10142000E+03 -0.32431E+06
 0.10147000E+03  0.20130E+06
 0.10152000E+03  0.76017E+06
 0.10157000E+03  0.12704E+07
 0.10162000E+03  0.16952E+07
 0.10167000E+03  0.20183E+07
 0.10172000E+03  0.22266E+07
 0.10177000E+03  0.23349E+07
 0.10182000E+03  0.23744E+07
 0.10187000E+03  0.23571E+07
 0.10192000E+03  0.22849E+07
 0.10197000E+03  0.21822E+07
 0.10202000E+03  0.20807E+07
 0.10207000E+03  0.19525E+07
 0.10212000E+03  0.17333E+07
 0.10217000E+03  0.14228E+07
 0.10222000E+03  0.10741E+07
 0.10227000E+03  0.71337E+06
 0.10232000E+03  0.35164E+06
 0.10237000E+03  0.34666E+05
 0.10242000E+03 -0.20651E+06
 0.10247000E+03 -0.38790E+06
 0.10252000E+03 -0.52275E+06
 0.10257000E+03 -0.59166E+06
 0.10262000E+03 -0.57130E+06
 0.10267000E+03 -0.48152E+06
 0.10272000E+03 -0.35830E+06
 0.10277000E+03 -0.21190E+06
 0.10282000E+03 -0.47617E+05
 0.10287000E+03  0.11878E+06
 0.10292000E+03  0.28074E+06
 0.10297000E+03  0.42383E+06
 0.10302000E+03  0.50081E+06
 0.10307000E+03  0.45865E+06
 0.10312000E+03  0.27690E+06
 0.10317000E+03 -0.93490E+04
 0.10322000E+03 -0.33448E+06
 0.10327000E+03 -0.65443E+06
 0.10332000E+03 -0.94768E+06
 0.10337000E+03 -0.11735E+07
 0.10342000E+03 -0.12831E+07
 0.10347000E+03 -0.12648E+07
 0.10352000E+03 -0.11268E+07
 0.10357000E+03 -0.88179E+06
 0.10362000E+03 -0.56872E+06
 0.10367000E+03 -0.23422E+06
 0.10372000E+03  0.73975E+05
 0.10377000E+03  0.30731E+06
 0.10382000E+03  0.46193E+06
 0.10387000E+03  0.56472E+06
 0.10392000E+03  0.61997E+06
 0.10397000E+03  0.63084E+06
 0.10402000E+03  0.62076E+06
 0.10407000E+03  0.59448E+06
 0.10412000E+03  0.55520E+06
 0.10417000E+03  0.53264E+06
 0.10422000E+03  0.54860E+06
 0.10427000E+03  0.60679E+06
 0.10432000E+03  0.69091E+06
 0.10437000E+03  0.76222E+06
 0.10442000E+03  0.80345E+06
 0.10447000E+03  0.85756E+06
 0.10452000E+03  0.95179E+06
 0.10457000E+03  0.10357E+07
 0.10462000E+03  0.10601E+07
 0.10467000E+03  0.10106E+07
 0.10472000E+03  0.86758E+06
 0.10477000E+03  0.63176E+06
 0.10482000E+03  0.33923E+06
 0.10487000E+03  0.90900E+03
 0.10492000E+03 -0.38293E+06
 0.10497000E+03 -0.77072E+06
 0.10502000E+03 -0.11192E+07
 0.10507000E+03 -0.14158E+07
 0.10512000E+03 -0.16580E+07
 0.10517000E+03 -0.18494E+07
 0.10522000E+03 -0.20064E+07
 0.10527000E+03 -0.21245E+07
 0.10532000E+03 -0.21575E+07
 0.10537000E+03 -0.20614E+07
 0.10542000E+03 -0.18653E+07
 0.10547000E+03 -0.16517E+07
 0.10552000E+03 -0.14705E+07
 0.10557000E+03 -0.13511E+07
 0.10562000E+03 -0.13108E+07
 0.10567000E+03 -0.13101E+07
 0.10572000E+03 -0.12788E+07
 0.10577000E+03 -0.11724E+07
 0.10582000E+03 -0.97865E+06
 0.10587000E+03 -0.70079E+06
 0.10592000E+03 -0.37411E+06
 0.10597000E+03 -0.66964E+05
 0.10602000E+03  0.18024E+06
 0.10607000E+03  0.37624E+06
 0.10612000E+03  0.52403E+06
 0.10617000E+03  0.62805E+06
 0.10622000E+03  0.71480E+06
 0.10627000E+03  0.79237E+06
 0.10632000E+03  0.83640E+06
 0.10637000E+03  0.81123E+06
 0.10642000E+03  0.70653E+06
 0.10647000E+03  0.52972E+06
 0.10652000E+03  0.30228E+06
 0.10657000E+03  0.65714E+05
 0.10662000E+03 -0.14410E+06
 0.10667000E+03 -0.30147E+06
 0.10672000E+03 -0.38314E+06
 0.10677000E+03 -0.36436E+06
 0.10682000E+03 -0.24886E+06
 0.10687000E+03 -0.56535E+05
 0.10692000E+03  0.20111E+06
 0.10697000E+03  0.50154E+06
 0.10702000E+03  0.81927E+06
 0.10707000E+03  0.11310E+07
 0.10712000E+03  0.14183E+07
 0.10717000E+03  0.16577E+07
 0.10722000E+03  0.18236E+07
 0.10727000E+03  0.19047E+07
 0.10732000E+03  0.18888E+07
 0.10737000E+03  0.17642E+07
 0.10742000E+03  0.15159E+07
 0.10747000E+03  0.11286E+07
 0.10752000E+03  0.62336E+06
 0.10757000E+03  0.87712E+05
 0.10762000E+03 -0.36202E+06
 0.10767000E+03 -0.67681E+06
 0.10772000E+03 -0.86456E+06
 0.10777000E+03 -0.93069E+06
 0.10782000E+03 -0.91254E+06
 0.10787000E+03 -0.87159E+06
 0.10792000E+03 -0.82453E+06
 0.10797000E+03 -0.73886E+06
 0.10802000E+03 -0.60424E+06
 0.10807000E+03 -0.46798E+06
 0.10812000E+03 -0.36218E+06
 0.10817000E+03 -0.26889E+06
 0.10822000E+03 -0.17211E+06
 0.10827000E+03 -0.69118E+05
 0.10832000E+03  0.42861E+05
 0.10837000E+03  0.14954E+06
 0.10842000E+03  0.21714E+06
 0.10847000E+03  0.21124E+06
 0.10852000E+03  0.12856E+06
 0.10857000E+03  0.10410E+04
 0.10862000E+03 -0.14422E+06
 0.10867000E+03 -0.28270E+06
 0.10872000E+03 -0.38294E+06
 0.10877000E+03 -0.42292E+06
 0.10882000E+03 -0.39797E+06
 0.10887000E+03 -0.32790E+06
 0.10892000E+03 -0.24535E+06
 0.10897000E+03 -0.16950E+06
 0.10902000E+03 -0.11146E+06
 0.10907000E+03 -0.92945E+05
 0.10912000E+03 -0.13699E+06
 0.10917000E+03 -0.25507E+06
 0.10922000E+03 -0.43011E+06
 0.10927000E+03 -0.61330E+06
 0.10932000E+03 -0.76448E+06
 0.10937000E+03 -0.88574E+06
 0.10942000E+03 -0.99909E+06
 0.10947000E+03 -0.11047E+07
 0.10952000E+03 -0.11713E+07
 0.10957000E+03 -0.11516E+07
 0.10962000E+03 -0.10222E+07
 0.10967000E+03 -0.80575E+06
 0.10972000E+03 -0.54292E+06
 0.10977000E+03 -0.27093E+06
 0.10982000E+03 -0.20046E+05
 0.10987000E+03  0.19843E+06
 0.10992000E+03  0.39997E+06
 0.10997000E+03  0.59614E+06
 0.11002000E+03  0.75668E+06
 0.11007000E+03  0.83989E+06
 0.11012000E+03  0.82214E+06
 0.11017000E+03  0.69720E+06
 0.11022000E+03  0.48404E+06
 0.11027000E+03  0.21074E+06
 0.11032000E+03 -0.74600E+05
 0.11037000E+03 -0.30697E+06
 0.11042000E+03 -0.45919E+06
 0.11047000E+03 -0.53333E+06
 0.11052000E+03 -0.52787E+06
 0.11057000E+03 -0.44102E+06
 0.11062000E+03 -0.27901E+06
 0.11067000E+03 -0.68454E+05
 0.11072000E+03  0.15089E+06
 0.11077000E+03  0.34457E+06
 0.11082000E+03  0.48144E+06
 0.11087000E+03  0.53564E+06
 0.11092000E+03  0.48656E+06
 0.11097000E+03  0.32396E+06
 0.11102000E+03  0.73668E+05
 0.11107000E+03 -0.22446E+06
 0.11112000E+03 -0.53436E+06
 0.11117000E+03 -0.79294E+06
 0.11122000E+03 -0.93775E+06
 0.11127000E+03 -0.93542E+06
 0.11132000E+03 -0.77153E+06
 0.11137000E+03 -0.46538E+06
 0.11142000E+03 -0.79350E+05
 0.11147000E+03  0.31241E+06
 0.11152000E+03  0.65436E+06
 0.11157000E+03  0.89847E+06
 0.11162000E+03  0.10096E+07
 0.11167000E+03  0.98414E+06
 0.11172000E+03  0.85984E+06
 0.11177000E+03  0.70546E+06
 0.11182000E+03  0.56491E+06
 0.11187000E+03  0.45528E+06
 0.11192000E+03  0.39458E+06
 0.11197000E+03  0.37467E+06
 0.11202000E+03  0.37513E+06
 0.11207000E+03  0.38908E+06
 0.11212000E+03  0.39823E+06
 0.11217000E+03  0.38258E+06
 0.11222000E+03  0.35205E+06
 0.11227000E+03  0.34562E+06
 0.11232000E+03  0.38907E+06
 0.11237000E+03  0.46755E+06
 0.11242000E+03  0.55600E+06
 0.11247000E+03  0.64193E+06
 0.11252000E+03  0.71206E+06
 0.11257000E+03  0.74658E+06
 0.11262000E+03  0.74494E+06
 0.11267000E+03  0.72088E+06
 0.11272000E+03  0.67456E+06
 0.11277000E+03  0.61006E+06
 0.11282000E+03  0.53778E+06
 0.11287000E+03  0.45301E+06
 0.11292000E+03  0.35042E+06
 0.11297000E+03  0.23660E+06
 0.11302000E+03  0.12699E+06
 0.11307000E+03  0.35343E+05
 0.11312000E+03 -0.36418E+05
 0.11317000E+03 -0.89645E+05
 0.11322000E+03 -0.13762E+06
 0.11327000E+03 -0.19931E+06
 0.11332000E+03 -0.27581E+06
 0.11337000E+03 -0.36030E+06
 0.11342000E+03 -0.44511E+06
 0.11347000E+03 -0.52324E+06
 0.11352000E+03 -0.58379E+06
 0.11357000E+03 -0.60417E+06
 0.11362000E+03 -0.57165E+06
 0.11367000E+03 -0.50719E+06
 0.11372000E+03 -0.44265E+06
 0.11377000E+03 -0.38977E+06
 0.11382000E+03 -0.34470E+06
 0.11387000E+03 -0.28294E+06
 0.11392000E+03 -0.16640E+06
 0.11397000E+03  0.25196E+05
 0.11402000E+03  0.26853E+06
 0.11407000E+03  0.51507E+06
 0.11412000E+03  0.74091E+06
 0.11417000E+03  0.93082E+06
 0.11422000E+03  0.10560E+07
 0.11427000E+03  0.11136E+07
 0.11432000E+03  0.11364E+07
 0.11437000E+03  0.11411E+07
 0.11442000E+03  0.11071E+07
 0.11447000E+03  0.10168E+07
 0.11452000E+03  0.87644E+06
 0.11457000E+03  0.69069E+06
 0.11462000E+03  0.45112E+06
 0.11467000E+03  0.15318E+06
 0.11472000E+03 -0.18733E+06
 0.11477000E+03 -0.52997E+06
 0.11482000E+03 -0.83813E+06
 0.11487000E+03 -0.10932E+07
 0.11492000E+03 -0.12803E+07
 0.11497000E+03 -0.13894E+07
 0.11502000E+03 -0.14195E+07
 0.11507000E+03 -0.13795E+07
 0.11512000E+03 -0.12854E+07
 0.11517000E+03 -0.11572E+07
 0.11522000E+03 -0.10077E+07
 0.11527000E+03 -0.83903E+06
 0.11532000E+03 -0.65843E+06
 0.11537000E+03 -0.47445E+06
 0.11542000E+03 -0.30138E+06
 0.11547000E+03 -0.17253E+06
 0.11552000E+03 -0.10956E+06
 0.11557000E+03 -0.99948E+05
 0.11562000E+03 -0.12221E+06
 0.11567000E+03 -0.16991E+06
 0.11572000E+03 -0.24376E+06
 0.11577000E+03 -0.33499E+06
 0.11582000E+03 -0.44188E+06
 0.11587000E+03 -0.58293E+06
 0.11592000E+03 -0.77528E+06
 0.11597000E+03 -0.10169E+07
 0.11602000E+03 -0.12908E+07
 0.11607000E+03 -0.15714E+07
 0.11612000E+03 -0.18151E+07
 0.11617000E+03 -0.19637E+07
 0.11622000E+03 -0.19865E+07
 0.11627000E+03 -0.19022E+07
 0.11632000E+03 -0.17412E+07
 0.11637000E+03 -0.15344E+07
 0.11642000E+03 -0.13270E+07
 0.11647000E+03 -0.11500E+07
 0.11652000E+03 -0.99695E+06
 0.11657000E+03 -0.84166E+06
 0.11662000E+03 -0.67386E+06
 0.11667000E+03 -0.50400E+06
 0.11672000E+03 -0.34042E+06
 0.11677000E+03 -0.17725E+06
 0.11682000E+03 -0.87000E+04
 0.11687000E+03  0.16609E+06
 0.11692000E+03  0.36986E+06
 0.11697000E+03  0.63105E+06
 0.11702000E+03  0.96537E+06
 0.11707000E+03  0.13706E+07
 0.11712000E+03  0.18099E+07
 0.11717000E+03  0.22341E+07
 0.11722000E+03  0.26019E+07
 0.11727000E+03  0.28930E+07
 0.11732000E+03  0.31099E+07
 0.11737000E+03  0.32407E+07
 0.11742000E+03  0.32570E+07
 0.11747000E+03  0.31546E+07
 0.11752000E+03  0.29587E+07
 0.11757000E+03  0.26973E+07
 0.11762000E+03  0.24000E+07
 0.11767000E+03  0.21028E+07
 0.11772000E+03  0.18289E+07
 0.11777000E+03  0.15682E+07
 0.11782000E+03  0.12982E+07
 0.11787000E+03  0.10212E+07
 0.11792000E+03  0.76112E+06
 0.11797000E+03  0.52088E+06
 0.11802000E+03  0.26550E+06
 0.11807000E+03 -0.38196E+05
 0.11812000E+03 -0.38330E+06
 0.11817000E+03 -0.72840E+06
 0.11822000E+03 -0.10274E+07
 0.11827000E+03 -0.12377E+07
 0.11832000E+03 -0.13372E+07
 0.11837000E+03 -0.13467E+07
 0.11842000E+03 -0.12958E+07
 0.11847000E+03 -0.11979E+07
 0.11852000E+03 -0.10763E+07
 0.11857000E+03 -0.96180E+06
 0.11862000E+03 -0.86697E+06
 0.11867000E+03 -0.80379E+06
 0.11872000E+03 -0.77688E+06
 0.11877000E+03 -0.75699E+06
 0.11882000E+03 -0.71187E+06
 0.11887000E+03 -0.62958E+06
 0.11892000E+03 -0.50837E+06
 0.11897000E+03 -0.33948E+06
 0.11902000E+03 -0.12158E+06
 0.11907000E+03  0.10864E+06
 0.11912000E+03  0.30983E+06
 0.11917000E+03  0.46261E+06
 0.11922000E+03  0.54519E+06
 0.11927000E+03  0.53030E+06
 0.11932000E+03  0.40785E+06
 0.11937000E+03  0.20397E+06
 0.11942000E+03 -0.29012E+05
 0.11947000E+03 -0.24822E+06
 0.11952000E+03 -0.42891E+06
 0.11957000E+03 -0.54644E+06
 0.11962000E+03 -0.57736E+06
 0.11967000E+03 -0.51702E+06
 0.11972000E+03 -0.38900E+06
 0.11977000E+03 -0.23222E+06
 0.11982000E+03 -0.86977E+05
 0.11987000E+03  0.12125E+05
 0.11992000E+03  0.57521E+05
 0.11997000E+03  0.72628E+05
 0.12002000E+03  0.78559E+05
 0.12007000E+03  0.75312E+05
 0.12012000E+03  0.52785E+05
 0.12017000E+03  0.18242E+05
 0.12022000E+03 -0.36950E+04
 0.12027000E+03 -0.10585E+05
 0.12032000E+03 -0.15098E+05
 0.12037000E+03 -0.88150E+04
 0.12042000E+03  0.23500E+05
 0.12047000E+03  0.67866E+05
 0.12052000E+03  0.97975E+05
 0.12057000E+03  0.10874E+06
 0.12062000E+03  0.11281E+06
 0.12067000E+03  0.12670E+06
 0.12072000E+03  0.15235E+06
 0.12077000E+03  0.17219E+06
 0.12082000E+03  0.17995E+06
 0.12087000E+03  0.19503E+06
 0.12092000E+03  0.24268E+06
 0.12097000E+03  0.33567E+06
 0.12102000E+03  0.45722E+06
 0.12107000E+03  0.56941E+06
 0.12112000E+03  0.64361E+06
 0.12117000E+03  0.67178E+06
 0.12122000E+03  0.65746E+06
 0.12127000E+03  0.60127E+06
 0.12132000E+03  0.49188E+06
 0.12137000E+03  0.32386E+06
 0.12142000E+03  0.10344E+06
 0.12147000E+03 -0.16125E+06
 0.12152000E+03 -0.43738E+06
 0.12157000E+03 -0.67298E+06
 0.12162000E+03 -0.83554E+06
 0.12167000E+03 -0.91990E+06
 0.12172000E+03 -0.93611E+06
 0.12177000E+03 -0.91414E+06
 0.12182000E+03 -0.89090E+06
 0.12187000E+03 -0.89039E+06
 0.12192000E+03 -0.92269E+06
 0.12197000E+03 -0.97641E+06
 0.12202000E+03 -0.10389E+07
 0.12207000E+03 -0.11032E+07
 0.12212000E+03 -0.11513E+07
 0.12217000E+03 -0.11487E+07
 0.12222000E+03 -0.10625E+07
 0.12227000E+03 -0.89468E+06
 0.12232000E+03 -0.67140E+06
 0.12237000E+03 -0.41855E+06
 0.12242000E+03 -0.16093E+06
 0.12247000E+03  0.65439E+05
 0.12252000E+03  0.23810E+06
 0.12257000E+03  0.38252E+06
 0.12262000E+03  0.52874E+06
 0.12267000E+03  0.67036E+06
 0.12272000E+03  0.78358E+06
 0.12277000E+03  0.86355E+06
 0.12282000E+03  0.93251E+06
 0.12287000E+03  0.10130E+07
 0.12292000E+03  0.11050E+07
 0.12297000E+03  0.11851E+07
 0.12302000E+03  0.12273E+07
 0.12307000E+03  0.12146E+07
 0.12312000E+03  0.11368E+07
 0.12317000E+03  0.10031E+07
 0.12322000E+03  0.84496E+06
 0.12327000E+03  0.68612E+06
 0.12332000E+03  0.52821E+06
 0.12337000E+03  0.37257E+06
 0.12342000E+03  0.24155E+06
 0.12347000E+03  0.17001E+06
 0.12352000E+03  0.16810E+06
 0.12357000E+03  0.21260E+06
 0.12362000E+03  0.27564E+06
 0.12367000E+03  0.34353E+06
 0.12372000E+03  0.41057E+06
 0.12377000E+03  0.46093E+06
 0.12382000E+03  0.47635E+06
 0.12387000E+03  0.45272E+06
 0.12392000E+03  0.38088E+06
 0.12397000E+03  0.24944E+06
 0.12402000E+03  0.76719E+05
 0.12407000E+03 -0.99203E+05
 0.12412000E+03 -0.24533E+06
 0.12417000E+03 -0.34565E+06
 0.12422000E+03 -0.40442E+06
 0.12427000E+03 -0.43940E+06
 0.12432000E+03 -0.48080E+06
 0.12437000E+03 -0.55540E+06
 0.12442000E+03 -0.66721E+06
 0.12447000E+03 -0.80585E+06
 0.12452000E+03 -0.95287E+06
 0.12457000E+03 -0.10841E+07
 0.12462000E+03 -0.11856E+07
 0.12467000E+03 -0.12612E+07
 0.12472000E+03 -0.13228E+07
 0.12477000E+03 -0.13844E+07
 0.12482000E+03 -0.14555E+07
 0.12487000E+03 -0.15326E+07
 0.12492000E+03 -0.16097E+07
 0.12497000E+03 -0.16745E+07
 0.12502000E+03 -0.16940E+07
 0.12507000E+03 -0.16413E+07
 0.12512000E+03 -0.15121E+07
 0.12517001E+03 -0.13123E+07
 0.12521999E+03 -0.10631E+07
 0.12527000E+03 -0.78689E+06
 0.12532000E+03 -0.49170E+06
 0.12537000E+03 -0.19392E+06
 0.12542001E+03  0.84675E+05
 0.12546999E+03  0.33436E+06
 0.12552000E+03  0.53971E+06
 0.12557000E+03  0.67681E+06
 0.12562000E+03  0.73391E+06
 0.12567001E+03  0.71007E+06
 0.12571999E+03  0.61630E+06
 0.12577000E+03  0.47512E+06
 0.12582000E+03  0.30303E+06
 0.12587000E+03  0.10874E+06
 0.12592001E+03 -0.91862E+05
 0.12596999E+03 -0.27384E+06
 0.12602000E+03 -0.42524E+06
 0.12607000E+03 -0.54919E+06
 0.12612000E+03 -0.64995E+06
 0.12617001E+03 -0.73853E+06
 0.12621999E+03 -0.82274E+06
 0.12627000E+03 -0.88458E+06
 0.12632000E+03 -0.89194E+06
 0.12637000E+03 -0.83611E+06
 0.12642001E+03 -0.73972E+06
 0.12646999E+03 -0.62166E+06
 0.12652000E+03 -0.47767E+06
 0.12657000E+03 -0.29807E+06
 0.12662000E+03 -0.82678E+05
 0.12667001E+03  0.15766E+06
 0.12671999E+03  0.40643E+06
 0.12677000E+03  0.65540E+06
 0.12682000E+03  0.90475E+06
 0.12687000E+03  0.11503E+07
 0.12692001E+03  0.13747E+07
 0.12696999E+03  0.15514E+07
 0.12702000E+03  0.16671E+07
 0.12707000E+03  0.17301E+07
 0.12712000E+03  0.17551E+07
 0.12717001E+03  0.17533E+07
 0.12721999E+03  0.17346E+07
 0.12727000E+03  0.17115E+07
 0.12732000E+03  0.16918E+07
 0.12737000E+03  0.16608E+07
 0.12742001E+03  0.15852E+07
 0.12746999E+03  0.14476E+07
 0.12752000E+03  0.12662E+07
 0.12757000E+03  0.10771E+07
 0.12762000E+03  0.90257E+06
 0.12767001E+03  0.75253E+06
 0.12771999E+03  0.63227E+06
 0.12777000E+03  0.53117E+06
 0.12782000E+03  0.42376E+06
 0.12787000E+03  0.28809E+06
 0.12792001E+03  0.12928E+06
 0.12796999E+03 -0.27161E+05
 0.12802000E+03 -0.16081E+06
 0.12807001E+03 -0.25947E+06
 0.12812001E+03 -0.31055E+06
 0.12817001E+03 -0.30735E+06
 0.12822000E+03 -0.26580E+06
 0.12827000E+03 -0.20754E+06
 0.12832001E+03 -0.15188E+06
 0.12837001E+03 -0.12184E+06
 0.12842001E+03 -0.12016E+06
 0.12847000E+03 -0.14161E+06
 0.12852000E+03 -0.19259E+06
 0.12857001E+03 -0.26828E+06
 0.12862001E+03 -0.34804E+06
 0.12867001E+03 -0.41422E+06
 0.12872000E+03 -0.46901E+06
 0.12877000E+03 -0.52013E+06
 0.12882001E+03 -0.54981E+06
 0.12887001E+03 -0.52592E+06
 0.12892001E+03 -0.43131E+06
 0.12897000E+03 -0.27098E+06
 0.12902000E+03 -0.58575E+05
 0.12907001E+03  0.18768E+06
 0.12912001E+03  0.43244E+06
 0.12917001E+03  0.63044E+06
 0.12922000E+03  0.74711E+06
 0.12927000E+03  0.76957E+06
 0.12932001E+03  0.70080E+06
 0.12937001E+03  0.55796E+06
 0.12942001E+03  0.37199E+06
 0.12947000E+03  0.15920E+06
 0.12952000E+03 -0.70186E+05
 0.12957001E+03 -0.28800E+06
 0.12962001E+03 -0.46730E+06
 0.12967001E+03 -0.59354E+06
 0.12972000E+03 -0.67032E+06
 0.12977000E+03 -0.71175E+06
 0.12982001E+03 -0.72415E+06
 0.12987001E+03 -0.71890E+06
 0.12992001E+03 -0.71853E+06
 0.12997000E+03 -0.73606E+06
 0.13002000E+03 -0.75976E+06
 0.13007001E+03 -0.76576E+06
 0.13012001E+03 -0.75240E+06
 0.13017001E+03 -0.73877E+06
 0.13022000E+03 -0.72756E+06
 0.13027000E+03 -0.70657E+06
 0.13032001E+03 -0.67384E+06
 0.13037001E+03 -0.63330E+06
 0.13042001E+03 -0.58233E+06
 0.13047000E+03 -0.52076E+06
 0.13052000E+03 -0.46170E+06
 0.13057001E+03 -0.41451E+06
 0.13062001E+03 -0.37277E+06
 0.13067001E+03 -0.32223E+06
 0.13072000E+03 -0.25186E+06
 0.13077000E+03 -0.15906E+06
 0.13082001E+03 -0.36692E+05
 0.13087001E+03  0.11473E+06
 0.13092001E+03  0.28136E+06
 0.13097000E+03  0.45377E+06
 0.13102000E+03  0.61672E+06
 0.13107001E+03  0.75202E+06
 0.13112001E+03  0.85315E+06
 0.13117001E+03  0.91720E+06
 0.13122000E+03  0.93628E+06
 0.13127000E+03  0.90502E+06
 0.13132001E+03  0.82970E+06
 0.13137001E+03  0.72229E+06
 0.13142001E+03  0.58550E+06
 0.13147000E+03  0.41229E+06
 0.13152000E+03  0.20714E+06
 0.13157001E+03 -0.63640E+04
 0.13162001E+03 -0.20813E+06
 0.13167001E+03 -0.38227E+06
 0.13172000E+03 -0.50484E+06
 0.13177000E+03 -0.55435E+06
 0.13182001E+03 -0.52354E+06
 0.13187001E+03 -0.43064E+06
 0.13192001E+03 -0.31049E+06
 0.13197000E+03 -0.19132E+06
 0.13202000E+03 -0.86801E+05
 0.13207001E+03 -0.46010E+04
 0.13212001E+03  0.53625E+05
 0.13217001E+03  0.10216E+06
 0.13222000E+03  0.16219E+06
 0.13227000E+03  0.24644E+06
 0.13232001E+03  0.33898E+06
 0.13237001E+03  0.40374E+06
 0.13242001E+03  0.41954E+06
 0.13247000E+03  0.38672E+06
 0.13252000E+03  0.31729E+06
 0.13257001E+03  0.22861E+06
 0.13262001E+03  0.13670E+06
 0.13267001E+03  0.54318E+05
 0.13272000E+03 -0.23690E+04
 0.13277000E+03 -0.18723E+05
 0.13282001E+03  0.88710E+04
 0.13287001E+03  0.69392E+05
 0.13292001E+03  0.14097E+06
 0.13297000E+03  0.20507E+06
 0.13302000E+03  0.25641E+06
 0.13307001E+03  0.29565E+06
 0.13312001E+03  0.31692E+06
 0.13317001E+03  0.31810E+06
 0.13322000E+03  0.30845E+06
 0.13327000E+03  0.29473E+06
 0.13332001E+03  0.27516E+06
 0.13337001E+03  0.25134E+06
 0.13342001E+03  0.23064E+06
 0.13347000E+03  0.21472E+06
 0.13352000E+03  0.19416E+06
 0.13357001E+03  0.15450E+06
 0.13362001E+03  0.89605E+05
 0.13367001E+03  0.30680E+04
 0.13372000E+03 -0.96763E+05
 0.13377000E+03 -0.19382E+06
 0.13382001E+03 -0.26281E+06
 0.13387001E+03 -0.28160E+06
 0.13392001E+03 -0.25521E+06
 0.13397000E+03 -0.21355E+06
 0.13402000E+03 -0.17949E+06
 0.13407001E+03 -0.16374E+06
 0.13412001E+03 -0.17682E+06
 0.13417001E+03 -0.22602E+06
 0.13422000E+03 -0.30891E+06
 0.13427000E+03 -0.41637E+06
 0.13432001E+03 -0.54543E+06
 0.13437001E+03 -0.69305E+06
 0.13442001E+03 -0.84408E+06
 0.13447000E+03 -0.97505E+06
 0.13452000E+03 -0.10663E+07
 0.13457001E+03 -0.11130E+07
 0.13462001E+03 -0.11203E+07
 0.13467001E+03 -0.10946E+07
 0.13472000E+03 -0.10438E+07
 0.13477000E+03 -0.97970E+06
 0.13482001E+03 -0.91234E+06
 0.13487001E+03 -0.84770E+06
 0.13492001E+03 -0.79248E+06
 0.13497000E+03 -0.75315E+06
 0.13502000E+03 -0.72684E+06
 0.13507001E+03 -0.69997E+06
 0.13512001E+03 -0.65468E+06
 0.13517001E+03 -0.57662E+06
 0.13522000E+03 -0.45611E+06
 0.13527000E+03 -0.29205E+06
 0.13532001E+03 -0.96674E+05
 0.13537001E+03  0.11542E+06
 0.13542001E+03  0.32645E+06
 0.13547000E+03  0.51952E+06
 0.13552000E+03  0.69767E+06
 0.13557001E+03  0.87636E+06
 0.13562001E+03  0.10614E+07
 0.13567001E+03  0.12476E+07
 0.13572000E+03  0.14328E+07
 0.13577000E+03  0.16148E+07
 0.13582001E+03  0.17821E+07
 0.13587001E+03  0.19126E+07
 0.13592001E+03  0.19782E+07
 0.13597000E+03  0.19629E+07
 0.13602000E+03  0.18736E+07
 0.13607001E+03  0.17322E+07
 0.13612001E+03  0.15546E+07
 0.13617001E+03  0.13485E+07
 0.13622000E+03  0.11252E+07
 0.13627000E+03  0.89288E+06
 0.13632001E+03  0.65235E+06
 0.13637001E+03  0.40436E+06
 0.13642001E+03  0.15326E+06
 0.13647000E+03 -0.87174E+05
 0.13652000E+03 -0.30070E+06
 0.13657001E+03 -0.47822E+06
 0.13662001E+03 -0.62050E+06
 0.13667001E+03 -0.73449E+06
 0.13672000E+03 -0.81825E+06
 0.13677000E+03 -0.86186E+06
 0.13682001E+03 -0.86183E+06
 0.13687001E+03 -0.82900E+06
 0.13692001E+03 -0.78081E+06
 0.13697000E+03 -0.72555E+06
 0.13702000E+03 -0.66580E+06
 0.13707001E+03 -0.61134E+06
 0.13712001E+03 -0.56913E+06
 0.13717001E+03 -0.53436E+06
 0.13722000E+03 -0.49942E+06
 0.13727000E+03 -0.46271E+06
 0.13732001E+03 -0.42431E+06
 0.13737001E+03 -0.37433E+06
 0.13742001E+03 -0.30136E+06
 0.13747000E+03 -0.20344E+06
 0.13752000E+03 -0.93051E+05
 0.13757001E+03  0.96500E+04
 0.13762001E+03  0.89313E+05
 0.13767001E+03  0.13970E+06
 0.13772000E+03  0.16426E+06
 0.13777000E+03  0.16264E+06
 0.13782001E+03  0.13943E+06
 0.13787001E+03  0.11028E+06
 0.13792001E+03  0.82804E+05
 0.13797000E+03  0.54750E+05
 0.13802000E+03  0.23064E+05
 0.13807001E+03 -0.11754E+05
 0.13812001E+03 -0.49963E+05
 0.13817001E+03 -0.89360E+05
 0.13822000E+03 -0.13126E+06
 0.13827000E+03 -0.18951E+06
 0.13832001E+03 -0.27157E+06
 0.13837001E+03 -0.36726E+06
 0.13842001E+03 -0.46600E+06
 0.13847000E+03 -0.56810E+06
 0.13852000E+03 -0.67494E+06
 0.13857001E+03 -0.79004E+06
 0.13862001E+03 -0.91073E+06
 0.13867001E+03 -0.10190E+07
 0.13872000E+03 -0.10969E+07
 0.13877000E+03 -0.11320E+07
 0.13882001E+03 -0.11154E+07
 0.13887001E+03 -0.10412E+07
 0.13892001E+03 -0.91279E+06
 0.13897000E+03 -0.73985E+06
 0.13902000E+03 -0.53273E+06
 0.13907001E+03 -0.30771E+06
 0.13912001E+03 -0.75972E+05
 0.13917001E+03  0.15219E+06
 0.13922000E+03  0.36195E+06
 0.13927000E+03  0.54591E+06
 0.13932001E+03  0.70424E+06
 0.13937001E+03  0.83816E+06
 0.13942001E+03  0.94587E+06
 0.13947000E+03  0.10275E+07
 0.13952000E+03  0.10885E+07
 0.13957001E+03  0.11294E+07
 0.13962001E+03  0.11441E+07
 0.13967001E+03  0.11287E+07
 0.13972000E+03  0.10759E+07
 0.13977000E+03  0.98110E+06
 0.13982001E+03  0.85294E+06
 0.13987001E+03  0.70491E+06
 0.13992001E+03  0.55050E+06
 0.13997000E+03  0.40213E+06
 0.14002000E+03  0.26568E+06
 0.14007001E+03  0.14155E+06
 0.14012001E+03  0.29020E+05
 0.14017001E+03 -0.75704E+05
 0.14022000E+03 -0.17595E+06
 0.14027000E+03 -0.27182E+06
 0.14032001E+03 -0.37132E+06
 0.14037001E+03 -0.48411E+06
 0.14042001E+03 -0.60225E+06
 0.14047000E+03 -0.70829E+06
 0.14052000E+03 -0.78324E+06
 0.14057001E+03 -0.81028E+06
 0.14062001E+03 -0.78655E+06
 0.14067001E+03 -0.71784E+06
 0.14072000E+03 -0.61041E+06
 0.14077000E+03 -0.47430E+06
 0.14082001E+03 -0.32978E+06
 0.14087001E+03 -0.20142E+06
 0.14092001E+03 -0.95459E+05
 0.14097000E+03 -0.27950E+04
 0.14102000E+03  0.81951E+05
 0.14107001E+03  0.16535E+06
 0.14112001E+03  0.25508E+06
 0.14117001E+03  0.35354E+06
 0.14122000E+03  0.45686E+06
 0.14127000E+03  0.55317E+06
 0.14132001E+03  0.62242E+06
 0.14137001E+03  0.64399E+06
 0.14142001E+03  0.61106E+06
 0.14147000E+03  0.53111E+06
 0.14152000E+03  0.41888E+06
 0.14157001E+03  0.28538E+06
 0.14162001E+03  0.13916E+06
 0.14167001E+03 -0.28530E+04
 0.14172000E+03 -0.12211E+06
 0.14177000E+03 -0.20916E+06
 0.14182001E+03 -0.26316E+06
 0.14187001E+03 -0.28522E+06
 0.14192001E+03 -0.27842E+06
 0.14197000E+03 -0.24196E+06
 0.14202000E+03 -0.17017E+06
 0.14207001E+03 -0.67346E+05
 0.14212001E+03  0.56953E+05
 0.14217001E+03  0.19749E+06
 0.14222000E+03  0.34485E+06
 0.14227000E+03  0.48568E+06
 0.14232001E+03  0.61383E+06
 0.14237001E+03  0.73117E+06
 0.14242001E+03  0.83257E+06
 0.14247000E+03  0.90135E+06
 0.14252000E+03  0.92521E+06
 0.14257001E+03  0.90347E+06
 0.14262001E+03  0.84274E+06
 0.14267001E+03  0.74968E+06
 0.14272000E+03  0.63096E+06
 0.14277000E+03  0.49765E+06
 0.14282001E+03  0.35920E+06
 0.14287001E+03  0.22126E+06
 0.14292001E+03  0.96538E+05
 0.14297000E+03  0.25690E+04
 0.14302000E+03 -0.52773E+05
 0.14307001E+03 -0.71410E+05
 0.14312001E+03 -0.56441E+05
 0.14317001E+03 -0.13875E+05
 0.14322000E+03  0.49610E+05
 0.14327000E+03  0.13113E+06
 0.14332001E+03  0.22497E+06
 0.14337001E+03  0.31592E+06
 0.14342001E+03  0.38496E+06
 0.14347000E+03  0.42405E+06
 0.14352000E+03  0.43018E+06
 0.14357001E+03  0.40632E+06
 0.14362001E+03  0.36642E+06
 0.14367001E+03  0.31956E+06
 0.14372000E+03  0.26634E+06
 0.14377000E+03  0.20496E+06
 0.14382001E+03  0.13864E+06
 0.14387001E+03  0.66088E+05
 0.14392001E+03 -0.21056E+05
 0.14397000E+03 -0.12778E+06
 0.14402000E+03 -0.25813E+06
 0.14407001E+03 -0.40980E+06
 0.14412001E+03 -0.57348E+06
 0.14417001E+03 -0.73594E+06
 0.14422000E+03 -0.88557E+06
 0.14427000E+03 -0.10132E+07
 0.14432001E+03 -0.11045E+07
 0.14437001E+03 -0.11458E+07
 0.14442001E+03 -0.11369E+07
 0.14447000E+03 -0.10912E+07
 0.14452000E+03 -0.10267E+07
 0.14457001E+03 -0.95792E+06
 0.14462001E+03 -0.89275E+06
 0.14467001E+03 -0.83427E+06
 0.14472000E+03 -0.78450E+06
 0.14477000E+03 -0.74087E+06
 0.14482001E+03 -0.69620E+06
 0.14487001E+03 -0.64507E+06
 0.14492001E+03 -0.58762E+06
 0.14497000E+03 -0.53149E+06
 0.14502000E+03 -0.47566E+06
 0.14507001E+03 -0.41313E+06
 0.14512001E+03 -0.34113E+06
 0.14517001E+03 -0.25662E+06
 0.14522000E+03 -0.15928E+06
 0.14527000E+03 -0.52719E+05
 0.14532001E+03  0.47385E+05
 0.14537001E+03  0.12343E+06
 0.14542001E+03  0.16833E+06
 0.14547000E+03  0.18203E+06
 0.14552000E+03  0.17150E+06
 0.14557001E+03  0.14858E+06
 0.14562001E+03  0.11863E+06
 0.14567001E+03  0.75978E+05
 0.14572000E+03  0.17475E+05
 0.14577000E+03 -0.54801E+05
 0.14582001E+03 -0.13590E+06
 0.14587001E+03 -0.22059E+06
 0.14592001E+03 -0.29960E+06
 0.14597000E+03 -0.35512E+06
 0.14602000E+03 -0.37117E+06
 0.14607001E+03 -0.34469E+06
 0.14612001E+03 -0.28501E+06
 0.14617001E+03 -0.20472E+06
 0.14622000E+03 -0.11437E+06
 0.14627000E+03 -0.24000E+05
 0.14632001E+03  0.53173E+05
 0.14637001E+03  0.10396E+06
 0.14642001E+03  0.11802E+06
 0.14647000E+03  0.91876E+05
 0.14652000E+03  0.30630E+05
 0.14657001E+03 -0.50757E+05
 0.14662001E+03 -0.13591E+06
 0.14667001E+03 -0.21555E+06
 0.14672000E+03 -0.27901E+06
 0.14677000E+03 -0.32458E+06
 0.14682001E+03 -0.35893E+06
 0.14687001E+03 -0.38676E+06
 0.14692001E+03 -0.40947E+06
 0.14697000E+03 -0.41386E+06
 0.14702000E+03 -0.38184E+06
 0.14707001E+03 -0.31048E+06
 0.14712001E+03 -0.21058E+06
 0.14717001E+03 -0.90892E+05
 0.14722000E+03  0.43277E+05
 0.14727000E+03  0.17716E+06
 0.14732001E+03  0.29327E+06
 0.14737001E+03  0.38152E+06
 0.14742001E+03  0.43630E+06
 0.14747000E+03  0.45650E+06
 0.14752000E+03  0.44829E+06
 0.14757001E+03  0.41982E+06
 0.14762001E+03  0.37767E+06
 0.14767001E+03  0.33352E+06
 0.14772000E+03  0.30388E+06
 0.14777000E+03  0.30372E+06
 0.14782001E+03  0.33894E+06
 0.14787001E+03  0.40094E+06
 0.14792001E+03  0.47096E+06
 0.14797000E+03  0.53447E+06
 0.14802000E+03  0.59128E+06
 0.14807001E+03  0.64274E+06
 0.14812001E+03  0.67921E+06
 0.14817001E+03  0.68966E+06
 0.14822000E+03  0.67430E+06
 0.14827000E+03  0.64592E+06
 0.14832001E+03  0.61598E+06
 0.14837001E+03  0.59188E+06
 0.14842001E+03  0.58297E+06
 0.14847000E+03  0.59171E+06
 0.14852000E+03  0.61198E+06
 0.14857001E+03  0.63496E+06
 0.14862001E+03  0.66002E+06
 0.14867001E+03  0.69384E+06
 0.14872000E+03  0.73762E+06
 0.14877000E+03  0.78953E+06
 0.14882001E+03  0.85439E+06
 0.14887001E+03  0.94060E+06
 0.14892001E+03  0.10447E+07
 0.14897000E+03  0.11501E+07
 0.14902000E+03  0.12306E+07
 0.14907001E+03  0.12592E+07
 0.14912001E+03  0.12267E+07
 0.14917001E+03  0.11411E+07
 0.14922000E+03  0.10104E+07
 0.14927000E+03  0.84120E+06
 0.14932001E+03  0.64254E+06
 0.14937001E+03  0.42638E+06
 0.14942001E+03  0.21270E+06
 0.14947000E+03  0.21604E+05
 0.14952000E+03 -0.13232E+06
 0.14957001E+03 -0.24644E+06
 0.14962001E+03 -0.32507E+06
 0.14967001E+03 -0.36920E+06
 0.14972000E+03 -0.38569E+06
 0.14977000E+03 -0.38313E+06
 0.14982001E+03 -0.37712E+06
 0.14987001E+03 -0.39835E+06
 0.14992001E+03 -0.46576E+06
 0.14997000E+03 -0.56916E+06
