-0.29800000E+01 -0.17832E+05
-0.29300001E+01 -0.23410E+05
-0.28800001E+01 -0.28579E+05
-0.28299999E+01 -0.33062E+05
-0.27800000E+01 -0.36615E+05
-0.27300000E+01 -0.39309E+05
-0.26800001E+01 -0.41669E+05
-0.26300001E+01 -0.44439E+05
-0.25799999E+01 -0.47927E+05
-0.25300000E+01 -0.51520E+05
-0.24800000E+01 -0.52724E+05
-0.24300001E+01 -0.50908E+05
-0.23800001E+01 -0.47793E+05
-0.23299999E+01 -0.45253E+05
-0.22800000E+01 -0.44097E+05
-0.22300000E+01 -0.42847E+05
-0.21800001E+01 -0.40679E+05
-0.21300001E+01 -0.37513E+05
-0.20799999E+01 -0.33356E+05
-0.20300000E+01 -0.27984E+05
-0.19800000E+01 -0.20805E+05
-0.19299999E+01 -0.12569E+05
-0.18800000E+01 -0.51990E+04
-0.18300000E+01 -0.75600E+03
-0.17800000E+01  0.37900E+03
-0.17300000E+01 -0.13830E+04
-0.16799999E+01 -0.46200E+04
-0.16300000E+01 -0.76900E+04
-0.15800000E+01 -0.11524E+05
-0.15300000E+01 -0.16349E+05
-0.14800000E+01 -0.21745E+05
-0.14299999E+01 -0.27673E+05
-0.13800000E+01 -0.33381E+05
-0.13300000E+01 -0.38758E+05
-0.12800000E+01 -0.43696E+05
-0.12300000E+01 -0.48232E+05
-0.11799999E+01 -0.52172E+05
-0.11300000E+01 -0.54766E+05
-0.10800000E+01 -0.55952E+05
-0.10300000E+01 -0.56361E+05
-0.98000002E+00 -0.56932E+05
-0.93000007E+00 -0.57305E+05
-0.87999988E+00 -0.56738E+05
-0.82999992E+00 -0.55482E+05
-0.77999997E+00 -0.53582E+05
-0.73000002E+00 -0.50380E+05
-0.68000007E+00 -0.45587E+05
-0.62999988E+00 -0.40155E+05
-0.57999992E+00 -0.34072E+05
-0.52999997E+00 -0.26182E+05
-0.48000002E+00 -0.16895E+05
-0.43000007E+00 -0.73630E+04
-0.37999988E+00  0.25060E+04
-0.32999992E+00  0.12899E+05
-0.27999997E+00  0.23434E+05
-0.23000002E+00  0.33413E+05
-0.18000007E+00  0.42157E+05
-0.12999988E+00  0.49918E+05
-0.79999924E-01  0.56281E+05
-0.29999971E-01  0.60845E+05
 0.19999981E-01  0.65144E+05
 0.69999933E-01  0.69985E+05
 0.12000012E+00  0.75126E+05
 0.17000008E+00  0.80038E+05
 0.22000003E+00  0.82897E+05
 0.26999998E+00  0.82805E+05
 0.31999993E+00  0.80285E+05
 0.37000012E+00  0.76119E+05
 0.42000008E+00  0.71286E+05
 0.47000003E+00  0.65564E+05
 0.51999998E+00  0.58885E+05
 0.56999993E+00  0.52811E+05
 0.62000012E+00  0.48153E+05
 0.67000008E+00  0.43266E+05
 0.72000003E+00  0.36551E+05
 0.76999998E+00  0.28259E+05
 0.81999993E+00  0.18741E+05
 0.87000012E+00  0.86530E+04
 0.92000008E+00 -0.12040E+04
 0.97000003E+00 -0.10631E+05
 0.10200000E+01 -0.18710E+05
 0.10700002E+01 -0.24680E+05
 0.11199999E+01 -0.28692E+05
 0.11700001E+01 -0.31546E+05
 0.12200003E+01 -0.34779E+05
 0.12700000E+01 -0.37908E+05
 0.13200002E+01 -0.39227E+05
 0.13699999E+01 -0.38702E+05
 0.14200001E+01 -0.36190E+05
 0.14700003E+01 -0.31559E+05
 0.15200000E+01 -0.25331E+05
 0.15700002E+01 -0.17302E+05
 0.16199999E+01 -0.75760E+04
 0.16700001E+01  0.19540E+04
 0.17200003E+01  0.94410E+04
 0.17700000E+01  0.15394E+05
 0.18200002E+01  0.21144E+05
 0.18699999E+01  0.26450E+05
 0.19200001E+01  0.30669E+05
 0.19700003E+01  0.33675E+05
 0.20200000E+01  0.34569E+05
 0.20700002E+01  0.32223E+05
 0.21199999E+01  0.27169E+05
 0.21700001E+01  0.21295E+05
 0.22200003E+01  0.16377E+05
 0.22700000E+01  0.13094E+05
 0.23200002E+01  0.11274E+05
 0.23699999E+01  0.10402E+05
 0.24200001E+01  0.87580E+04
 0.24700003E+01  0.54960E+04
 0.25200000E+01  0.12660E+04
 0.25700002E+01 -0.36170E+04
 0.26199999E+01 -0.84230E+04
 0.26700001E+01 -0.12091E+05
 0.27200003E+01 -0.14164E+05
 0.27700000E+01 -0.15174E+05
 0.28200002E+01 -0.16047E+05
 0.28699999E+01 -0.18029E+05
 0.29200001E+01 -0.21632E+05
 0.29700003E+01 -0.26135E+05
 0.30200000E+01 -0.30641E+05
 0.30700002E+01 -0.34658E+05
 0.31199999E+01 -0.38173E+05
 0.31700001E+01 -0.41116E+05
 0.32200003E+01 -0.43542E+05
 0.32700000E+01 -0.44459E+05
 0.33200002E+01 -0.43372E+05
 0.33699999E+01 -0.41007E+05
 0.34200001E+01 -0.38211E+05
 0.34700003E+01 -0.35570E+05
 0.35200000E+01 -0.32996E+05
 0.35700002E+01 -0.31586E+05
 0.36199999E+01 -0.31268E+05
 0.36700001E+01 -0.29900E+05
 0.37200003E+01 -0.26624E+05
 0.37700000E+01 -0.21872E+05
 0.38200002E+01 -0.16017E+05
 0.38699999E+01 -0.96340E+04
 0.39200001E+01 -0.36690E+04
 0.39700003E+01  0.21660E+04
 0.40200000E+01  0.86500E+04
 0.40700002E+01  0.15183E+05
 0.41199999E+01  0.21010E+05
 0.41700001E+01  0.24915E+05
 0.42200003E+01  0.26470E+05
 0.42700000E+01  0.26841E+05
 0.43200002E+01  0.25906E+05
 0.43699999E+01  0.24224E+05
 0.44200001E+01  0.23440E+05
 0.44700003E+01  0.23228E+05
 0.45200000E+01  0.22878E+05
 0.45700002E+01  0.21762E+05
 0.46199999E+01  0.19499E+05
 0.46700001E+01  0.16711E+05
 0.47200003E+01  0.12968E+05
 0.47700000E+01  0.78770E+04
 0.48200002E+01  0.86600E+03
 0.48699999E+01 -0.76110E+04
 0.49200001E+01 -0.15557E+05
 0.49700003E+01 -0.23062E+05
 0.50200000E+01 -0.29685E+05
 0.50700002E+01 -0.34289E+05
 0.51200004E+01 -0.37275E+05
 0.51700006E+01 -0.38922E+05
 0.52199998E+01 -0.39123E+05
 0.52700000E+01 -0.39097E+05
 0.53200002E+01 -0.40267E+05
 0.53700004E+01 -0.40710E+05
 0.54200006E+01 -0.39338E+05
 0.54699998E+01 -0.36329E+05
 0.55200000E+01 -0.31671E+05
 0.55700002E+01 -0.27529E+05
 0.56200004E+01 -0.24146E+05
 0.56700006E+01 -0.21059E+05
 0.57199998E+01 -0.18689E+05
 0.57700000E+01 -0.16604E+05
 0.58200002E+01 -0.14076E+05
 0.58700004E+01 -0.10995E+05
 0.59200006E+01 -0.81860E+04
 0.59699998E+01 -0.53720E+04
 0.60200000E+01 -0.17300E+04
 0.60700002E+01  0.26060E+04
 0.61200004E+01  0.69550E+04
 0.61700006E+01  0.10988E+05
 0.62199998E+01  0.14372E+05
 0.62700000E+01  0.15656E+05
 0.63200002E+01  0.15474E+05
 0.63700004E+01  0.16012E+05
 0.64200006E+01  0.17240E+05
 0.64699998E+01  0.18276E+05
 0.65200000E+01  0.18901E+05
 0.65700002E+01  0.19652E+05
 0.66200004E+01  0.20227E+05
 0.66700006E+01  0.19446E+05
 0.67199998E+01  0.17224E+05
 0.67700000E+01  0.13880E+05
 0.68200002E+01  0.97480E+04
 0.68700004E+01  0.61970E+04
 0.69200006E+01  0.30210E+04
 0.69699998E+01 -0.19600E+03
 0.70200000E+01 -0.34500E+04
 0.70700002E+01 -0.77610E+04
 0.71200004E+01 -0.11717E+05
 0.71700006E+01 -0.15297E+05
 0.72199998E+01 -0.17775E+05
 0.72700000E+01 -0.18141E+05
 0.73200002E+01 -0.16694E+05
 0.73700004E+01 -0.13770E+05
 0.74200006E+01 -0.11409E+05
 0.74699998E+01 -0.65730E+04
 0.75200000E+01 -0.36220E+04
 0.75700002E+01  0.29260E+04
 0.76200004E+01  0.84420E+04
 0.76700006E+01  0.27659E+05
 0.77199998E+01  0.71644E+05
 0.77700000E+01  0.10938E+06
 0.78200002E+01  0.14094E+06
 0.78700004E+01  0.93935E+05
 0.79200006E+01 -0.46108E+05
 0.79699998E+01 -0.18636E+06
 0.80200005E+01 -0.24962E+06
 0.80699997E+01 -0.32094E+06
 0.81200008E+01 -0.36677E+06
 0.81700001E+01 -0.18791E+06
 0.82199993E+01  0.53562E+05
 0.82700005E+01  0.34934E+06
 0.83199997E+01  0.47917E+06
 0.83700008E+01  0.26725E+06
 0.84200001E+01 -0.79592E+05
 0.84699993E+01 -0.53011E+06
 0.85200005E+01 -0.59643E+06
 0.85699997E+01 -0.40122E+06
 0.86200008E+01 -0.14803E+06
 0.86700001E+01  0.22410E+06
 0.87199993E+01  0.30367E+06
 0.87700005E+01  0.43568E+06
 0.88199997E+01  0.29880E+06
 0.88700008E+01 -0.34872E+06
 0.89200001E+01 -0.11143E+07
 0.89699993E+01 -0.19603E+07
 0.90200005E+01 -0.15845E+07
 0.90699997E+01 -0.40781E+06
 0.91200008E+01 -0.35791E+06
 0.91700001E+01 -0.11643E+07
 0.92199993E+01 -0.13285E+07
 0.92700005E+01 -0.72592E+06
 0.93199997E+01 -0.10064E+07
 0.93700008E+01 -0.12145E+07
 0.94200001E+01 -0.76942E+06
 0.94699993E+01 -0.55737E+06
 0.95200005E+01 -0.28345E+05
 0.95699997E+01 -0.65778E+06
 0.96200008E+01 -0.12782E+07
 0.96700001E+01 -0.61412E+06
 0.97199993E+01 -0.97948E+06
 0.97700005E+01 -0.14546E+07
 0.98199997E+01 -0.13840E+07
 0.98700008E+01 -0.65390E+06
 0.99200001E+01  0.57129E+06
 0.99699993E+01  0.19716E+06
 0.10020000E+02 -0.47151E+06
 0.10070000E+02 -0.95459E+06
 0.10120001E+02 -0.15229E+07
 0.10170000E+02 -0.95640E+06
 0.10219999E+02 -0.34056E+06
 0.10270000E+02  0.97584E+05
 0.10320000E+02 -0.32454E+06
 0.10370001E+02 -0.13808E+07
 0.10420000E+02 -0.12796E+07
 0.10469999E+02 -0.14736E+07
 0.10520000E+02 -0.19246E+07
 0.10570000E+02 -0.13075E+07
 0.10620001E+02 -0.92150E+06
 0.10670000E+02 -0.78893E+06
 0.10719999E+02 -0.69286E+06
 0.10770000E+02 -0.11399E+07
 0.10820000E+02 -0.10320E+07
 0.10870001E+02 -0.81108E+06
 0.10920000E+02 -0.12012E+07
 0.10969999E+02 -0.17974E+07
 0.11020000E+02 -0.19359E+07
 0.11070000E+02 -0.12511E+07
 0.11120001E+02 -0.99606E+06
 0.11170000E+02 -0.57917E+06
 0.11219999E+02  0.55573E+05
 0.11270000E+02 -0.22282E+06
 0.11320000E+02 -0.48920E+06
 0.11370001E+02 -0.11911E+07
 0.11420000E+02 -0.19806E+07
 0.11469999E+02 -0.24432E+07
 0.11520000E+02 -0.29437E+07
 0.11570000E+02 -0.23119E+07
 0.11620001E+02 -0.15906E+07
 0.11670000E+02 -0.95390E+06
 0.11719999E+02 -0.76546E+06
 0.11770000E+02 -0.12821E+07
 0.11820000E+02 -0.13115E+07
 0.11870001E+02 -0.20959E+07
 0.11920000E+02 -0.20838E+07
 0.11969999E+02 -0.10630E+07
 0.12020000E+02 -0.39904E+06
 0.12070000E+02 -0.23380E+06
 0.12120001E+02 -0.14332E+07
 0.12170000E+02 -0.19895E+07
 0.12219999E+02 -0.15862E+07
 0.12270000E+02 -0.19362E+06
 0.12320000E+02  0.63630E+06
 0.12370001E+02  0.56475E+06
 0.12420000E+02  0.11576E+07
 0.12469999E+02 -0.36450E+06
 0.12520000E+02 -0.73591E+06
 0.12570000E+02  0.31933E+06
 0.12620001E+02 -0.77383E+05
 0.12670000E+02  0.27340E+06
 0.12719999E+02 -0.90269E+06
 0.12770000E+02 -0.18488E+07
 0.12820000E+02 -0.85409E+06
 0.12870001E+02 -0.17910E+06
 0.12920000E+02  0.13440E+07
 0.12969999E+02  0.33356E+07
 0.13020000E+02  0.58275E+07
 0.13070002E+02  0.62299E+07
 0.13120001E+02  0.54943E+07
 0.13170000E+02  0.66411E+07
 0.13220001E+02  0.47917E+07
 0.13270000E+02  0.24303E+07
 0.13320002E+02  0.47159E+07
 0.13370001E+02  0.92642E+07
 0.13420000E+02  0.14353E+08
 0.13470001E+02  0.15316E+08
 0.13520000E+02  0.12812E+08
 0.13570002E+02  0.11934E+08
 0.13620001E+02  0.54102E+07
 0.13670000E+02 -0.49530E+07
 0.13720001E+02 -0.48922E+07
 0.13770000E+02  0.17719E+07
 0.13820002E+02  0.19220E+07
 0.13870001E+02 -0.38402E+06
 0.13920000E+02 -0.18906E+06
 0.13970001E+02 -0.61512E+06
 0.14020000E+02 -0.30075E+07
 0.14070002E+02 -0.40447E+07
 0.14120001E+02 -0.11626E+07
 0.14170000E+02  0.14411E+07
 0.14220001E+02  0.30254E+07
 0.14270000E+02  0.36473E+06
 0.14320002E+02 -0.29001E+07
 0.14370001E+02 -0.47408E+07
 0.14420000E+02 -0.53811E+07
 0.14470001E+02  0.12251E+07
 0.14520000E+02  0.63210E+07
 0.14570002E+02  0.95202E+07
 0.14620001E+02  0.13342E+08
 0.14670000E+02  0.11781E+08
 0.14720001E+02  0.76059E+07
 0.14770000E+02  0.41178E+07
 0.14820002E+02  0.18284E+07
 0.14870001E+02  0.26319E+05
 0.14920000E+02 -0.20878E+07
 0.14970001E+02 -0.47401E+07
 0.15020000E+02 -0.42888E+07
 0.15070002E+02  0.74079E+06
 0.15120001E+02  0.45327E+07
 0.15170000E+02  0.75462E+07
 0.15220001E+02  0.93539E+07
 0.15270000E+02  0.74391E+07
 0.15320002E+02  0.44844E+07
 0.15370001E+02  0.18282E+07
 0.15420000E+02  0.34770E+07
 0.15470001E+02  0.54638E+07
 0.15520000E+02  0.37993E+07
 0.15570002E+02  0.12198E+07
 0.15620001E+02 -0.19367E+07
 0.15670000E+02  0.32536E+06
 0.15720001E+02  0.49773E+07
 0.15770000E+02  0.68421E+07
 0.15820002E+02  0.76406E+07
 0.15870001E+02  0.65248E+07
 0.15920000E+02  0.53066E+07
 0.15970001E+02  0.47778E+07
 0.16020000E+02  0.41524E+07
 0.16070002E+02  0.29653E+07
 0.16120001E+02  0.22230E+07
 0.16170000E+02  0.11626E+07
 0.16220001E+02 -0.19717E+07
 0.16270000E+02 -0.43988E+07
 0.16320002E+02 -0.46524E+07
 0.16370001E+02 -0.33269E+07
 0.16420000E+02 -0.81548E+06
 0.16470001E+02  0.40447E+06
 0.16520000E+02  0.32071E+06
 0.16570002E+02  0.36429E+07
 0.16620001E+02  0.64801E+07
 0.16670000E+02  0.54045E+07
 0.16720001E+02  0.62912E+07
 0.16770000E+02  0.55303E+07
 0.16820002E+02 -0.16329E+07
 0.16870001E+02 -0.92644E+07
 0.16920000E+02 -0.11104E+08
 0.16970001E+02 -0.63449E+07
 0.17020000E+02  0.60806E+06
 0.17070002E+02  0.40723E+07
 0.17120001E+02  0.31889E+07
 0.17170000E+02 -0.19090E+06
 0.17220001E+02 -0.38375E+07
 0.17270000E+02 -0.49483E+07
 0.17320002E+02 -0.46857E+07
 0.17370001E+02 -0.12104E+07
 0.17420000E+02  0.13715E+07
 0.17470001E+02 -0.21925E+07
 0.17520000E+02 -0.47946E+07
 0.17570002E+02 -0.57943E+07
 0.17620001E+02 -0.46703E+07
 0.17670000E+02 -0.37309E+07
 0.17720001E+02 -0.61607E+07
 0.17770000E+02 -0.65687E+07
 0.17820002E+02 -0.46734E+07
 0.17870001E+02 -0.64082E+06
 0.17920000E+02  0.12446E+07
 0.17970001E+02 -0.20357E+07
 0.18020000E+02 -0.68494E+07
 0.18070002E+02 -0.95468E+07
 0.18120001E+02 -0.76353E+07
 0.18170000E+02 -0.38767E+07
 0.18220001E+02  0.75794E+06
 0.18270000E+02  0.30675E+07
 0.18320002E+02  0.66565E+06
 0.18370001E+02 -0.35248E+07
 0.18420000E+02 -0.73875E+07
 0.18470001E+02 -0.85032E+07
 0.18520000E+02 -0.78375E+07
 0.18570002E+02 -0.69273E+07
 0.18620001E+02 -0.71385E+07
 0.18670000E+02 -0.68767E+07
 0.18720001E+02 -0.49202E+07
 0.18770000E+02 -0.42641E+07
 0.18820002E+02 -0.39139E+07
 0.18870001E+02 -0.34177E+07
 0.18920000E+02 -0.46432E+07
 0.18970001E+02 -0.48572E+07
 0.19020000E+02  0.32627E+05
 0.19070002E+02  0.49602E+07
 0.19120001E+02  0.54581E+07
 0.19170000E+02  0.47395E+07
 0.19220001E+02  0.36560E+07
 0.19270000E+02  0.22306E+07
 0.19320002E+02  0.10781E+07
 0.19370001E+02  0.54740E+06
 0.19420000E+02  0.18769E+07
 0.19470001E+02  0.32756E+07
 0.19520000E+02  0.22776E+07
 0.19570002E+02  0.79041E+06
 0.19620001E+02  0.49261E+06
 0.19670000E+02  0.60656E+06
 0.19720001E+02 -0.70712E+06
 0.19770000E+02 -0.28446E+07
 0.19820002E+02 -0.36659E+07
 0.19870001E+02 -0.24161E+07
 0.19920000E+02  0.67331E+06
 0.19970001E+02  0.28376E+07
 0.20020000E+02  0.28112E+07
 0.20070002E+02  0.11367E+07
 0.20120001E+02 -0.29586E+06
 0.20170000E+02 -0.12209E+07
 0.20220001E+02 -0.20492E+07
 0.20270000E+02 -0.74050E+06
 0.20320002E+02 -0.56726E+06
 0.20370001E+02 -0.23475E+07
 0.20420000E+02 -0.25819E+07
 0.20470001E+02 -0.13861E+07
 0.20520000E+02  0.78287E+06
 0.20570002E+02  0.22944E+07
 0.20620001E+02  0.18793E+07
 0.20670000E+02  0.47587E+06
 0.20720001E+02 -0.12772E+07
 0.20770000E+02 -0.28957E+07
 0.20820002E+02 -0.33023E+07
 0.20870001E+02 -0.21947E+07
 0.20920000E+02 -0.76763E+06
 0.20970001E+02 -0.83230E+06
 0.21020000E+02 -0.29023E+07
 0.21070002E+02 -0.52269E+07
 0.21120001E+02 -0.58775E+07
 0.21170000E+02 -0.57867E+07
 0.21220001E+02 -0.56302E+07
 0.21270000E+02 -0.31037E+07
 0.21320002E+02  0.13961E+06
 0.21370001E+02  0.10293E+07
 0.21420000E+02 -0.35658E+06
 0.21470001E+02 -0.20105E+07
 0.21520000E+02 -0.12820E+07
 0.21570002E+02  0.47440E+06
 0.21620001E+02  0.14660E+07
 0.21670000E+02  0.21975E+07
 0.21720001E+02  0.21401E+07
 0.21770000E+02  0.92678E+06
 0.21820002E+02 -0.13138E+06
 0.21870001E+02  0.15864E+06
 0.21920000E+02  0.40892E+06
 0.21970001E+02 -0.19030E+06
 0.22020000E+02 -0.26408E+06
 0.22070002E+02  0.21851E+06
 0.22120001E+02  0.12285E+07
 0.22170000E+02  0.14858E+07
 0.22220001E+02  0.11568E+07
 0.22270000E+02  0.15281E+07
 0.22320002E+02  0.64175E+06
 0.22370001E+02 -0.57418E+06
 0.22420000E+02 -0.93695E+06
 0.22470001E+02 -0.12196E+07
 0.22520000E+02 -0.91440E+06
 0.22570002E+02 -0.27408E+05
 0.22620001E+02  0.71559E+06
 0.22670000E+02  0.16283E+07
 0.22720001E+02  0.17276E+07
 0.22770000E+02 -0.33052E+06
 0.22820002E+02 -0.17119E+07
 0.22870001E+02 -0.23317E+07
 0.22920000E+02 -0.30591E+07
 0.22970001E+02 -0.28514E+07
 0.23020000E+02 -0.23354E+07
 0.23070002E+02 -0.14100E+07
 0.23120001E+02 -0.38537E+06
 0.23170000E+02  0.43357E+06
 0.23220001E+02  0.12361E+07
 0.23270000E+02  0.23684E+07
 0.23320002E+02  0.30323E+07
 0.23370001E+02  0.33598E+07
 0.23420000E+02  0.37779E+07
 0.23470001E+02  0.26714E+07
 0.23520000E+02  0.92893E+06
 0.23570002E+02 -0.25027E+05
 0.23620001E+02 -0.10473E+07
 0.23670000E+02 -0.21799E+07
 0.23720001E+02 -0.30022E+07
 0.23770000E+02 -0.39189E+07
 0.23820002E+02 -0.37249E+07
 0.23870001E+02 -0.24464E+07
 0.23920000E+02 -0.10157E+07
 0.23970001E+02  0.99356E+06
 0.24020000E+02  0.21179E+07
 0.24070002E+02  0.15578E+07
 0.24120001E+02 -0.58640E+05
 0.24170000E+02 -0.21543E+07
 0.24220001E+02 -0.21314E+07
 0.24270000E+02  0.16638E+06
 0.24320002E+02  0.21286E+07
 0.24370001E+02  0.32471E+07
 0.24420000E+02  0.23495E+07
 0.24470001E+02  0.15360E+06
 0.24520000E+02 -0.14971E+06
 0.24570002E+02  0.24966E+06
 0.24620001E+02  0.29649E+06
 0.24670000E+02  0.13540E+07
 0.24720001E+02  0.25674E+07
 0.24770000E+02  0.29776E+07
 0.24820002E+02  0.18387E+07
 0.24870001E+02  0.16473E+06
 0.24920000E+02 -0.60256E+06
 0.24970001E+02 -0.16629E+07
 0.25020000E+02 -0.24156E+07
 0.25070002E+02 -0.22308E+07
 0.25120001E+02 -0.16066E+07
 0.25170000E+02 -0.29529E+06
 0.25220001E+02  0.10391E+07
 0.25270000E+02  0.15187E+07
 0.25320002E+02  0.84824E+06
 0.25370001E+02  0.51212E+06
 0.25420000E+02  0.14463E+07
 0.25470001E+02  0.23594E+07
 0.25520000E+02  0.31514E+07
 0.25570002E+02  0.36699E+07
 0.25620001E+02  0.31675E+07
 0.25670000E+02  0.19750E+07
 0.25720001E+02  0.30178E+06
 0.25770000E+02 -0.18775E+07
 0.25820002E+02 -0.27547E+07
 0.25870001E+02 -0.17572E+07
 0.25920000E+02 -0.10576E+07
 0.25970001E+02 -0.17742E+06
 0.26020000E+02  0.94109E+06
 0.26070002E+02  0.92883E+06
 0.26120001E+02  0.54678E+06
 0.26170000E+02  0.60644E+06
 0.26220001E+02  0.11842E+07
 0.26270000E+02  0.73148E+06
 0.26320002E+02 -0.39336E+06
 0.26370001E+02 -0.78262E+06
 0.26420000E+02 -0.13682E+07
 0.26470001E+02 -0.17208E+07
 0.26520000E+02 -0.12657E+07
 0.26570002E+02  0.14596E+06
 0.26620001E+02  0.20098E+07
 0.26670000E+02  0.29166E+07
 0.26720001E+02  0.25597E+07
 0.26770000E+02  0.13040E+07
 0.26820002E+02  0.13200E+06
 0.26870001E+02 -0.16927E+06
 0.26920000E+02 -0.12010E+06
 0.26970001E+02 -0.61601E+06
 0.27020000E+02 -0.96320E+06
 0.27070002E+02 -0.66257E+06
 0.27120001E+02 -0.90027E+06
 0.27170000E+02 -0.15269E+07
 0.27220001E+02 -0.13398E+07
 0.27270000E+02 -0.53997E+06
 0.27320002E+02  0.16615E+06
 0.27370001E+02  0.48620E+06
 0.27420000E+02  0.27985E+06
 0.27470001E+02 -0.19288E+06
 0.27520000E+02 -0.41954E+06
 0.27570002E+02 -0.93366E+05
 0.27620001E+02  0.10176E+07
 0.27670000E+02  0.26228E+07
 0.27720001E+02  0.32554E+07
 0.27770000E+02  0.24601E+07
 0.27820002E+02  0.18140E+07
 0.27870001E+02  0.17548E+07
 0.27920000E+02  0.10669E+07
 0.27970001E+02  0.49790E+06
 0.28020000E+02  0.11687E+07
 0.28070002E+02  0.20655E+07
 0.28120001E+02  0.26760E+07
 0.28170000E+02  0.31078E+07
 0.28220001E+02  0.29704E+07
 0.28270000E+02  0.21645E+07
 0.28320002E+02  0.11619E+07
 0.28370001E+02  0.23557E+06
 0.28420000E+02 -0.88989E+05
 0.28470001E+02 -0.67361E+05
 0.28520000E+02 -0.55443E+06
 0.28570002E+02 -0.12309E+07
 0.28620001E+02 -0.17317E+07
 0.28670000E+02 -0.21326E+07
 0.28720001E+02 -0.28569E+07
 0.28770000E+02 -0.31448E+07
 0.28820002E+02 -0.21987E+07
 0.28870001E+02 -0.94572E+06
 0.28920000E+02 -0.17493E+06
 0.28970001E+02 -0.28846E+06
 0.29020000E+02 -0.10516E+07
 0.29070000E+02 -0.17189E+07
 0.29120003E+02 -0.21422E+07
 0.29170002E+02 -0.19855E+07
 0.29220001E+02 -0.89745E+06
 0.29270000E+02  0.66279E+06
 0.29320000E+02  0.17792E+07
 0.29370003E+02  0.23169E+07
 0.29420002E+02  0.26061E+07
 0.29470001E+02  0.23054E+07
 0.29520000E+02  0.20088E+07
 0.29570000E+02  0.22476E+07
 0.29620003E+02  0.28165E+07
 0.29670002E+02  0.38093E+07
 0.29720001E+02  0.42276E+07
 0.29770000E+02  0.30367E+07
 0.29820000E+02  0.13584E+07
 0.29870003E+02  0.23896E+06
 0.29920002E+02 -0.48403E+06
 0.29970001E+02 -0.94988E+06
 0.30020000E+02 -0.13979E+07
 0.30070000E+02 -0.14490E+07
 0.30120003E+02 -0.14436E+07
 0.30170002E+02 -0.16893E+07
 0.30220001E+02 -0.18613E+07
 0.30270000E+02 -0.22361E+07
 0.30320000E+02 -0.28190E+07
 0.30370003E+02 -0.37057E+07
 0.30420002E+02 -0.37152E+07
 0.30470001E+02 -0.27303E+07
 0.30520000E+02 -0.17380E+07
 0.30570000E+02 -0.67673E+06
 0.30620003E+02 -0.67197E+06
 0.30670002E+02 -0.10513E+07
 0.30720001E+02 -0.71159E+06
 0.30770000E+02 -0.46979E+06
 0.30820000E+02 -0.27423E+06
 0.30870003E+02 -0.67130E+05
 0.30920002E+02 -0.34796E+06
 0.30970001E+02 -0.10420E+07
 0.31020000E+02 -0.11972E+07
 0.31070000E+02 -0.59965E+06
 0.31120003E+02  0.49700E+06
 0.31170002E+02  0.13661E+07
 0.31220001E+02  0.10491E+07
 0.31270000E+02  0.31252E+06
 0.31320000E+02 -0.45731E+06
 0.31370003E+02 -0.12869E+07
 0.31420002E+02 -0.17362E+07
 0.31470001E+02 -0.17676E+07
 0.31520000E+02 -0.16970E+07
 0.31570000E+02 -0.17805E+07
 0.31620003E+02 -0.17414E+07
 0.31670002E+02 -0.17119E+07
 0.31720001E+02 -0.17646E+07
 0.31770000E+02 -0.18947E+07
 0.31820000E+02 -0.22352E+07
 0.31870003E+02 -0.23793E+07
 0.31920002E+02 -0.23357E+07
 0.31970001E+02 -0.19101E+07
 0.32020000E+02 -0.13023E+07
 0.32070000E+02 -0.10296E+07
 0.32120003E+02 -0.63696E+06
 0.32170002E+02 -0.27440E+06
 0.32220001E+02  0.69554E+05
 0.32270000E+02  0.29248E+06
 0.32320000E+02 -0.12758E+06
 0.32370003E+02 -0.45075E+06
 0.32420002E+02 -0.22200E+06
 0.32470001E+02  0.29769E+06
 0.32520000E+02  0.72953E+06
 0.32570000E+02  0.31797E+06
 0.32620003E+02 -0.72454E+06
 0.32670002E+02 -0.13330E+07
 0.32720001E+02 -0.11831E+07
 0.32770000E+02 -0.56714E+06
 0.32820000E+02  0.45183E+05
 0.32870003E+02 -0.17484E+05
 0.32920002E+02 -0.74277E+06
 0.32970001E+02 -0.12072E+07
 0.33020000E+02 -0.99873E+06
 0.33070000E+02 -0.77010E+06
 0.33120003E+02 -0.98314E+06
 0.33170002E+02 -0.12182E+07
 0.33220001E+02 -0.12007E+07
 0.33270000E+02 -0.66984E+06
 0.33320000E+02  0.51256E+06
 0.33370003E+02  0.14716E+07
 0.33420002E+02  0.13755E+07
 0.33470001E+02  0.76259E+06
 0.33520000E+02  0.50765E+06
 0.33570000E+02  0.55239E+06
 0.33620003E+02  0.43244E+06
 0.33670002E+02  0.10630E+05
 0.33720001E+02 -0.12049E+06
 0.33770000E+02  0.11000E+06
 0.33820000E+02  0.58063E+06
 0.33870003E+02  0.14073E+07
 0.33920002E+02  0.18048E+07
 0.33970001E+02  0.14945E+07
 0.34020000E+02  0.10519E+07
 0.34070000E+02  0.86839E+06
 0.34120003E+02  0.10283E+07
 0.34170002E+02  0.10872E+07
 0.34220001E+02  0.96164E+06
 0.34270000E+02  0.10003E+07
 0.34320000E+02  0.83342E+06
 0.34370003E+02  0.71702E+06
 0.34420002E+02  0.11245E+07
 0.34470001E+02  0.12113E+07
 0.34520000E+02  0.48803E+06
 0.34570000E+02 -0.54665E+06
 0.34620003E+02 -0.96057E+06
 0.34670002E+02 -0.32811E+06
 0.34720001E+02  0.45617E+06
 0.34770000E+02  0.96089E+06
 0.34820000E+02  0.10998E+07
 0.34870003E+02  0.53524E+06
 0.34920002E+02 -0.13475E+06
 0.34970001E+02 -0.16355E+06
 0.35020000E+02  0.38367E+06
 0.35070000E+02  0.46598E+06
 0.35120003E+02  0.25675E+06
 0.35170002E+02  0.57726E+06
 0.35220001E+02  0.92896E+06
 0.35270000E+02  0.14766E+07
 0.35320000E+02  0.20231E+07
 0.35370003E+02  0.20042E+07
 0.35420002E+02  0.17361E+07
 0.35470001E+02  0.13899E+07
 0.35520000E+02  0.12485E+07
 0.35570000E+02  0.13751E+07
 0.35620003E+02  0.14662E+07
 0.35670002E+02  0.14796E+07
 0.35720001E+02  0.14610E+07
 0.35770000E+02  0.12857E+07
 0.35820000E+02  0.10851E+07
 0.35870003E+02  0.12126E+07
 0.35920002E+02  0.12691E+07
 0.35970001E+02  0.97962E+06
 0.36020000E+02  0.77644E+06
 0.36070000E+02  0.61501E+06
 0.36120003E+02  0.29199E+06
 0.36170002E+02 -0.28829E+06
 0.36220001E+02 -0.12222E+07
 0.36270000E+02 -0.22039E+07
 0.36320000E+02 -0.30527E+07
 0.36370003E+02 -0.39513E+07
 0.36420002E+02 -0.45075E+07
 0.36470001E+02 -0.42594E+07
 0.36520000E+02 -0.37962E+07
 0.36570000E+02 -0.37855E+07
 0.36620003E+02 -0.41322E+07
 0.36670002E+02 -0.42542E+07
 0.36720001E+02 -0.40633E+07
 0.36770000E+02 -0.39567E+07
 0.36820000E+02 -0.34450E+07
 0.36870003E+02 -0.22194E+07
 0.36920002E+02 -0.10688E+07
 0.36970001E+02 -0.46582E+06
 0.37020000E+02 -0.44839E+05
 0.37070000E+02  0.39396E+06
 0.37120003E+02  0.71236E+06
 0.37170002E+02  0.12016E+07
 0.37220001E+02  0.17836E+07
 0.37270000E+02  0.21240E+07
 0.37320000E+02  0.22316E+07
 0.37370003E+02  0.22793E+07
 0.37420002E+02  0.23151E+07
 0.37470001E+02  0.21711E+07
 0.37520000E+02  0.22387E+07
 0.37570000E+02  0.24344E+07
 0.37620003E+02  0.21582E+07
 0.37670002E+02  0.16042E+07
 0.37720001E+02  0.11735E+07
 0.37770000E+02  0.99860E+06
 0.37820000E+02  0.11216E+07
 0.37870003E+02  0.13804E+07
 0.37920002E+02  0.15288E+07
 0.37970001E+02  0.15148E+07
 0.38020000E+02  0.11019E+07
 0.38070000E+02  0.28460E+06
 0.38120003E+02 -0.25507E+06
 0.38170002E+02 -0.25675E+06
 0.38220001E+02 -0.56420E+05
 0.38270000E+02  0.14374E+06
 0.38320000E+02  0.16704E+06
 0.38370003E+02 -0.11363E+06
 0.38420002E+02 -0.51024E+06
 0.38470001E+02 -0.79312E+06
 0.38520000E+02 -0.98047E+06
 0.38570000E+02 -0.10053E+07
 0.38620003E+02 -0.65609E+06
 0.38670002E+02 -0.67663E+05
 0.38720001E+02  0.45648E+06
 0.38770000E+02  0.96860E+06
 0.38820000E+02  0.13665E+07
 0.38870003E+02  0.14571E+07
 0.38920002E+02  0.16326E+07
 0.38970001E+02  0.20120E+07
 0.39020000E+02  0.23717E+07
 0.39070000E+02  0.26800E+07
 0.39120003E+02  0.27615E+07
 0.39170002E+02  0.23184E+07
 0.39220001E+02  0.13103E+07
 0.39270000E+02  0.38225E+06
 0.39320000E+02  0.10239E+06
 0.39370003E+02  0.23807E+06
 0.39420002E+02  0.63987E+06
 0.39470001E+02  0.10595E+07
 0.39520000E+02  0.10209E+07
 0.39570000E+02  0.63451E+06
 0.39620003E+02  0.21250E+06
 0.39670002E+02 -0.98673E+05
 0.39720001E+02 -0.37018E+06
 0.39770000E+02 -0.56252E+06
 0.39820000E+02 -0.60203E+06
 0.39870003E+02 -0.43885E+06
 0.39920002E+02 -0.10958E+06
 0.39970001E+02  0.42626E+05
 0.40020000E+02 -0.17615E+06
 0.40070000E+02 -0.95382E+06
 0.40120003E+02 -0.19174E+07
 0.40170002E+02 -0.25702E+07
 0.40220001E+02 -0.28490E+07
 0.40270000E+02 -0.27419E+07
 0.40320000E+02 -0.23817E+07
 0.40370003E+02 -0.18677E+07
 0.40420002E+02 -0.14476E+07
 0.40470001E+02 -0.10136E+07
 0.40520000E+02 -0.27564E+06
 0.40570000E+02  0.52443E+06
 0.40620003E+02  0.94309E+06
 0.40670002E+02  0.95563E+06
 0.40720001E+02  0.78871E+06
 0.40770000E+02  0.64928E+06
 0.40820000E+02  0.82585E+06
 0.40870003E+02  0.10455E+07
 0.40920002E+02  0.11764E+07
 0.40970001E+02  0.12472E+07
 0.41020000E+02  0.11519E+07
 0.41070000E+02  0.12528E+07
 0.41120003E+02  0.14958E+07
 0.41170002E+02  0.15642E+07
 0.41220001E+02  0.11290E+07
 0.41270000E+02  0.38693E+06
 0.41320000E+02  0.12216E+05
 0.41370003E+02  0.12924E+06
 0.41420002E+02  0.68712E+06
 0.41470001E+02  0.10821E+07
 0.41520000E+02  0.93922E+06
 0.41570000E+02  0.56327E+06
 0.41620003E+02  0.91819E+05
 0.41670002E+02 -0.33688E+06
 0.41720001E+02 -0.57634E+06
 0.41770000E+02 -0.57417E+06
 0.41820000E+02 -0.55539E+06
 0.41870003E+02 -0.59729E+06
 0.41920002E+02 -0.85303E+06
 0.41970001E+02 -0.13959E+07
 0.42020000E+02 -0.18874E+07
 0.42070000E+02 -0.22084E+07
 0.42120003E+02 -0.20980E+07
 0.42170002E+02 -0.16955E+07
 0.42220001E+02 -0.13941E+07
 0.42270000E+02 -0.12572E+07
 0.42320000E+02 -0.11809E+07
 0.42370003E+02 -0.84328E+06
 0.42420002E+02 -0.40302E+06
 0.42470001E+02 -0.17327E+06
 0.42520000E+02 -0.30318E+06
 0.42570000E+02 -0.64619E+06
 0.42620003E+02 -0.75478E+06
 0.42670002E+02 -0.61617E+06
 0.42720001E+02 -0.46765E+06
 0.42770000E+02 -0.45873E+06
 0.42820000E+02 -0.42182E+06
 0.42870003E+02 -0.30691E+06
 0.42920002E+02 -0.22026E+06
 0.42970001E+02 -0.52711E+05
 0.43020000E+02  0.10965E+06
 0.43070000E+02  0.40576E+06
 0.43120003E+02  0.84912E+06
 0.43170002E+02  0.11865E+07
 0.43220001E+02  0.14313E+07
 0.43270000E+02  0.14551E+07
 0.43320000E+02  0.13714E+07
 0.43370003E+02  0.13541E+07
 0.43420002E+02  0.12978E+07
 0.43470001E+02  0.13466E+07
 0.43520000E+02  0.14304E+07
 0.43570000E+02  0.12158E+07
 0.43620003E+02  0.89656E+06
 0.43670002E+02  0.81269E+06
 0.43720001E+02  0.84181E+06
 0.43770000E+02  0.76057E+06
 0.43820000E+02  0.61368E+06
 0.43870003E+02  0.46066E+06
 0.43920002E+02  0.13116E+06
 0.43970001E+02 -0.37552E+06
 0.44020000E+02 -0.74385E+06
 0.44070000E+02 -0.94068E+06
 0.44120003E+02 -0.11857E+07
 0.44170002E+02 -0.13245E+07
 0.44220001E+02 -0.11173E+07
 0.44270000E+02 -0.75443E+06
 0.44320000E+02 -0.52354E+06
 0.44370003E+02 -0.37014E+06
 0.44420002E+02 -0.31232E+06
 0.44470001E+02 -0.36790E+06
 0.44520000E+02 -0.43868E+06
 0.44570000E+02 -0.53794E+06
 0.44620003E+02 -0.46033E+06
 0.44670002E+02 -0.33895E+06
 0.44720001E+02 -0.10394E+06
 0.44770000E+02  0.55530E+06
 0.44820000E+02  0.11840E+07
 0.44870003E+02  0.15412E+07
 0.44920002E+02  0.16137E+07
 0.44970001E+02  0.12850E+07
 0.45020000E+02  0.61954E+06
 0.45070000E+02 -0.25386E+06
 0.45120003E+02 -0.93444E+06
 0.45170002E+02 -0.12271E+07
 0.45220001E+02 -0.12405E+07
 0.45270000E+02 -0.96341E+06
 0.45320000E+02 -0.55155E+06
 0.45370003E+02 -0.42076E+06
 0.45420002E+02 -0.75657E+06
 0.45470001E+02 -0.10347E+07
 0.45520000E+02 -0.97282E+06
 0.45570000E+02 -0.75291E+06
 0.45620003E+02 -0.34126E+06
 0.45670002E+02  0.90044E+05
 0.45720001E+02  0.30076E+06
 0.45770000E+02  0.22639E+06
 0.45820000E+02  0.49238E+05
 0.45870003E+02  0.67771E+05
 0.45920002E+02  0.47502E+06
 0.45970001E+02  0.12464E+07
 0.46020000E+02  0.20391E+07
 0.46070000E+02  0.25806E+07
 0.46120003E+02  0.27973E+07
 0.46170002E+02  0.27865E+07
 0.46220001E+02  0.25457E+07
 0.46270000E+02  0.22483E+07
 0.46320000E+02  0.21642E+07
 0.46370003E+02  0.19980E+07
 0.46420002E+02  0.16376E+07
 0.46470001E+02  0.11049E+07
 0.46520000E+02  0.34101E+06
 0.46570000E+02 -0.41246E+06
 0.46620003E+02 -0.10232E+07
 0.46670002E+02 -0.15387E+07
 0.46720001E+02 -0.20625E+07
 0.46770000E+02 -0.25362E+07
 0.46820000E+02 -0.27668E+07
 0.46870003E+02 -0.27884E+07
 0.46920002E+02 -0.26776E+07
 0.46970001E+02 -0.24001E+07
 0.47020000E+02 -0.20438E+07
 0.47070000E+02 -0.16371E+07
 0.47120003E+02 -0.10104E+07
 0.47170002E+02 -0.21010E+06
 0.47220001E+02  0.44122E+06
 0.47270000E+02  0.77772E+06
 0.47320000E+02  0.83857E+06
 0.47370003E+02  0.67169E+06
 0.47420002E+02  0.48606E+06
 0.47470001E+02  0.52812E+06
 0.47520000E+02  0.69877E+06
 0.47570000E+02  0.69389E+06
 0.47620003E+02  0.55471E+06
 0.47670002E+02  0.52267E+06
 0.47720001E+02  0.64037E+06
 0.47770000E+02  0.76167E+06
 0.47820000E+02  0.73668E+06
 0.47870003E+02  0.62351E+06
 0.47920002E+02  0.39895E+06
 0.47970001E+02  0.48481E+05
 0.48020000E+02 -0.32381E+06
 0.48070000E+02 -0.60874E+06
 0.48120003E+02 -0.71932E+06
 0.48170002E+02 -0.80993E+06
 0.48220001E+02 -0.96140E+06
 0.48270000E+02 -0.10663E+07
 0.48320000E+02 -0.99142E+06
 0.48370003E+02 -0.68515E+06
 0.48420002E+02 -0.31010E+06
 0.48470001E+02 -0.75130E+05
 0.48520000E+02 -0.18421E+06
 0.48570000E+02 -0.62614E+06
 0.48620003E+02 -0.11481E+07
 0.48670002E+02 -0.14754E+07
 0.48720001E+02 -0.14438E+07
 0.48770000E+02 -0.12624E+07
 0.48820000E+02 -0.10937E+07
 0.48870003E+02 -0.10006E+07
 0.48920002E+02 -0.11632E+07
 0.48970001E+02 -0.14970E+07
 0.49020000E+02 -0.17794E+07
 0.49070000E+02 -0.18898E+07
 0.49120003E+02 -0.17985E+07
 0.49170002E+02 -0.15215E+07
 0.49220001E+02 -0.12322E+07
 0.49270000E+02 -0.95088E+06
 0.49320000E+02 -0.45977E+06
 0.49370003E+02  0.21856E+06
 0.49420002E+02  0.96471E+06
 0.49470001E+02  0.16164E+07
 0.49520000E+02  0.20171E+07
 0.49570000E+02  0.21527E+07
 0.49620003E+02  0.21821E+07
 0.49670002E+02  0.22315E+07
 0.49720001E+02  0.22947E+07
 0.49770000E+02  0.23983E+07
 0.49820000E+02  0.24377E+07
 0.49870003E+02  0.23511E+07
 0.49920002E+02  0.22051E+07
 0.49970001E+02  0.21325E+07
 0.50020000E+02  0.21303E+07
 0.50070000E+02  0.20655E+07
 0.50120003E+02  0.19222E+07
 0.50170002E+02  0.16442E+07
 0.50220001E+02  0.12461E+07
 0.50270000E+02  0.86925E+06
 0.50320000E+02  0.67360E+06
 0.50370003E+02  0.57995E+06
 0.50420002E+02  0.40773E+06
 0.50470001E+02  0.16408E+06
 0.50520000E+02 -0.62703E+05
 0.50570000E+02 -0.30862E+06
 0.50620003E+02 -0.66148E+06
 0.50670002E+02 -0.95234E+06
 0.50720001E+02 -0.11593E+07
 0.50770000E+02 -0.13335E+07
 0.50820000E+02 -0.13359E+07
 0.50870003E+02 -0.12242E+07
 0.50920002E+02 -0.11030E+07
 0.50970001E+02 -0.10061E+07
 0.51020000E+02 -0.94564E+06
 0.51070000E+02 -0.84265E+06
 0.51120003E+02 -0.76832E+06
 0.51170002E+02 -0.75806E+06
 0.51220001E+02 -0.79186E+06
 0.51270000E+02 -0.84229E+06
 0.51320000E+02 -0.77933E+06
 0.51370003E+02 -0.66402E+06
 0.51420002E+02 -0.46571E+06
 0.51470001E+02 -0.22602E+06
 0.51520000E+02 -0.13255E+06
 0.51570000E+02 -0.12623E+06
 0.51620003E+02 -0.13729E+06
 0.51670002E+02 -0.10254E+06
 0.51720001E+02  0.33760E+04
 0.51770000E+02  0.97720E+05
 0.51820000E+02  0.19347E+06
 0.51870003E+02  0.31892E+06
 0.51920002E+02  0.34926E+06
 0.51970001E+02  0.24836E+06
 0.52020000E+02  0.18916E+06
 0.52070000E+02  0.22529E+06
 0.52120003E+02  0.29281E+06
 0.52170002E+02  0.42466E+06
 0.52220001E+02  0.56152E+06
 0.52270000E+02  0.57396E+06
 0.52320000E+02  0.39242E+06
 0.52370003E+02  0.62835E+05
 0.52420002E+02 -0.18749E+06
 0.52470001E+02 -0.28196E+06
 0.52520000E+02 -0.36670E+06
 0.52570000E+02 -0.54814E+06
 0.52620003E+02 -0.82410E+06
 0.52670002E+02 -0.11018E+07
 0.52720001E+02 -0.12978E+07
 0.52770000E+02 -0.13382E+07
 0.52820000E+02 -0.11798E+07
 0.52870003E+02 -0.96581E+06
 0.52920002E+02 -0.78158E+06
 0.52970001E+02 -0.54100E+06
 0.53020000E+02 -0.29960E+06
 0.53070000E+02 -0.11032E+06
 0.53120003E+02  0.47345E+05
 0.53170002E+02  0.30391E+05
 0.53220001E+02 -0.17130E+06
 0.53270000E+02 -0.39494E+06
 0.53320000E+02 -0.56990E+06
 0.53370003E+02 -0.55932E+06
 0.53420002E+02 -0.29822E+06
 0.53470001E+02  0.13961E+05
 0.53520000E+02  0.23765E+06
 0.53570000E+02  0.42144E+06
 0.53620003E+02  0.53574E+06
 0.53670002E+02  0.56237E+06
 0.53720001E+02  0.59478E+06
 0.53770000E+02  0.68576E+06
 0.53820000E+02  0.87079E+06
 0.53870003E+02  0.10797E+07
 0.53920002E+02  0.12531E+07
 0.53970001E+02  0.14391E+07
 0.54020000E+02  0.16567E+07
 0.54070000E+02  0.19359E+07
 0.54120003E+02  0.22623E+07
 0.54170002E+02  0.25361E+07
 0.54220001E+02  0.26419E+07
 0.54270000E+02  0.25550E+07
 0.54320000E+02  0.23940E+07
 0.54370003E+02  0.22649E+07
 0.54420002E+02  0.20997E+07
 0.54470001E+02  0.17929E+07
 0.54520000E+02  0.13884E+07
 0.54570000E+02  0.10279E+07
 0.54620003E+02  0.74568E+06
 0.54670002E+02  0.48633E+06
 0.54720001E+02  0.29091E+06
 0.54770000E+02  0.12526E+06
 0.54820000E+02 -0.47278E+05
 0.54870003E+02 -0.15584E+06
 0.54920002E+02 -0.22610E+06
 0.54970001E+02 -0.28079E+06
 0.55020000E+02 -0.33246E+06
 0.55070000E+02 -0.44918E+06
 0.55120003E+02 -0.58649E+06
 0.55170002E+02 -0.60161E+06
 0.55220001E+02 -0.53617E+06
 0.55270000E+02 -0.53469E+06
 0.55320000E+02 -0.58742E+06
 0.55370003E+02 -0.64987E+06
 0.55420002E+02 -0.74922E+06
 0.55470001E+02 -0.88429E+06
 0.55520000E+02 -0.95244E+06
 0.55570000E+02 -0.87699E+06
 0.55620003E+02 -0.67113E+06
 0.55670002E+02 -0.43854E+06
 0.55720001E+02 -0.25120E+06
 0.55770000E+02 -0.11889E+06
 0.55820000E+02 -0.72320E+05
 0.55870003E+02 -0.13790E+05
 0.55920002E+02  0.65613E+05
 0.55970001E+02  0.86898E+05
 0.56020000E+02  0.75820E+05
 0.56070000E+02  0.14202E+05
 0.56120003E+02 -0.77439E+05
 0.56170002E+02 -0.13090E+06
 0.56220001E+02 -0.13098E+06
 0.56270000E+02 -0.11323E+06
 0.56320000E+02 -0.11799E+06
 0.56370003E+02 -0.17319E+06
 0.56420002E+02 -0.24702E+06
 0.56470001E+02 -0.28462E+06
 0.56520000E+02 -0.30374E+06
 0.56570000E+02 -0.31349E+06
 0.56620003E+02 -0.34491E+06
 0.56670002E+02 -0.38344E+06
 0.56720001E+02 -0.36743E+06
 0.56770000E+02 -0.27571E+06
 0.56820000E+02 -0.13364E+06
 0.56870003E+02 -0.94193E+05
 0.56920002E+02 -0.20957E+06
 0.56970001E+02 -0.41577E+06
 0.57020000E+02 -0.63979E+06
 0.57070000E+02 -0.72810E+06
 0.57120003E+02 -0.67434E+06
 0.57170002E+02 -0.55590E+06
 0.57220001E+02 -0.40746E+06
 0.57270000E+02 -0.30885E+06
 0.57320000E+02 -0.31862E+06
 0.57370003E+02 -0.40100E+06
 0.57420002E+02 -0.47370E+06
 0.57470001E+02 -0.55435E+06
 0.57520000E+02 -0.57114E+06
 0.57570000E+02 -0.39109E+06
 0.57620003E+02 -0.62182E+05
 0.57670002E+02  0.24407E+06
 0.57720001E+02  0.33741E+06
 0.57770000E+02  0.22938E+06
 0.57820000E+02  0.62253E+05
 0.57870003E+02 -0.78010E+04
 0.57920002E+02  0.14531E+06
 0.57970001E+02  0.43108E+06
 0.58020000E+02  0.63478E+06
 0.58070000E+02  0.69401E+06
 0.58120003E+02  0.68997E+06
 0.58170002E+02  0.64134E+06
 0.58220001E+02  0.52789E+06
 0.58270000E+02  0.34719E+06
 0.58320000E+02  0.13733E+06
 0.58370003E+02 -0.67950E+05
 0.58420002E+02 -0.22159E+06
 0.58470001E+02 -0.21611E+06
 0.58520000E+02 -0.80376E+05
 0.58570000E+02  0.62067E+05
 0.58620003E+02  0.82075E+05
 0.58670002E+02 -0.10689E+06
 0.58720001E+02 -0.42823E+06
 0.58770000E+02 -0.72291E+06
 0.58820000E+02 -0.90421E+06
 0.58870003E+02 -0.10472E+07
 0.58920002E+02 -0.11882E+07
 0.58970001E+02 -0.12744E+07
 0.59020000E+02 -0.13397E+07
 0.59070000E+02 -0.14219E+07
 0.59120003E+02 -0.14811E+07
 0.59170002E+02 -0.15652E+07
 0.59220001E+02 -0.17567E+07
 0.59270000E+02 -0.19111E+07
 0.59320000E+02 -0.18983E+07
 0.59370003E+02 -0.17296E+07
 0.59420002E+02 -0.14138E+07
 0.59470001E+02 -0.10582E+07
 0.59520000E+02 -0.73487E+06
 0.59570000E+02 -0.45747E+06
 0.59620003E+02 -0.33662E+06
 0.59670002E+02 -0.28734E+06
 0.59720001E+02 -0.18102E+06
 0.59770000E+02 -0.15956E+06
 0.59820000E+02 -0.26002E+06
 0.59870003E+02 -0.35696E+06
 0.59920002E+02 -0.36145E+06
 0.59970001E+02 -0.24184E+06
 0.60020000E+02 -0.14607E+05
 0.60070000E+02  0.26796E+06
 0.60120003E+02  0.54348E+06
 0.60170002E+02  0.82399E+06
 0.60220001E+02  0.11105E+07
 0.60270000E+02  0.13550E+07
 0.60320000E+02  0.15390E+07
 0.60370003E+02  0.16732E+07
 0.60420002E+02  0.17429E+07
 0.60470001E+02  0.16847E+07
 0.60520000E+02  0.15233E+07
 0.60570000E+02  0.13517E+07
 0.60620003E+02  0.11643E+07
 0.60670002E+02  0.95450E+06
 0.60720001E+02  0.77803E+06
 0.60770000E+02  0.65042E+06
 0.60820000E+02  0.55887E+06
 0.60870003E+02  0.47097E+06
 0.60920002E+02  0.33796E+06
 0.60970001E+02  0.17618E+06
 0.61020000E+02  0.73596E+05
 0.61070004E+02  0.95258E+05
 0.61119999E+02  0.23470E+06
 0.61170002E+02  0.33166E+06
 0.61220005E+02  0.23075E+06
 0.61270000E+02  0.55824E+05
 0.61320004E+02 -0.75494E+05
 0.61369999E+02 -0.14299E+06
 0.61420002E+02 -0.12871E+06
 0.61470005E+02 -0.14467E+06
 0.61520000E+02 -0.24930E+06
 0.61570004E+02 -0.38238E+06
 0.61619999E+02 -0.42652E+06
 0.61670002E+02 -0.29165E+06
 0.61720005E+02 -0.67548E+05
 0.61770000E+02  0.10304E+06
 0.61820004E+02  0.16620E+06
 0.61869999E+02  0.97075E+05
 0.61920002E+02 -0.73007E+05
 0.61970005E+02 -0.19540E+06
 0.62020000E+02 -0.24108E+06
 0.62070004E+02 -0.29387E+06
 0.62119999E+02 -0.35948E+06
 0.62170002E+02 -0.42257E+06
 0.62220005E+02 -0.44008E+06
 0.62270000E+02 -0.37278E+06
 0.62320004E+02 -0.21054E+06
 0.62369999E+02 -0.27007E+05
 0.62420002E+02  0.70706E+05
 0.62470005E+02  0.11180E+06
 0.62520000E+02  0.15737E+06
 0.62570004E+02  0.23779E+06
 0.62619999E+02  0.28973E+06
 0.62670002E+02  0.21228E+06
 0.62720005E+02  0.41139E+05
 0.62770000E+02 -0.17363E+06
 0.62820004E+02 -0.36042E+06
 0.62869999E+02 -0.40499E+06
 0.62920002E+02 -0.34155E+06
 0.62970005E+02 -0.28490E+06
 0.63020000E+02 -0.26672E+06
 0.63070004E+02 -0.25348E+06
 0.63119999E+02 -0.21606E+06
 0.63170002E+02 -0.17776E+06
 0.63220005E+02 -0.10563E+06
 0.63270000E+02  0.62458E+05
 0.63320004E+02  0.28500E+06
 0.63369999E+02  0.55711E+06
 0.63420002E+02  0.89783E+06
 0.63470005E+02  0.12108E+07
 0.63520000E+02  0.13851E+07
 0.63570004E+02  0.13699E+07
 0.63619999E+02  0.12198E+07
 0.63670002E+02  0.10829E+07
 0.63720005E+02  0.10252E+07
 0.63770000E+02  0.10109E+07
 0.63820004E+02  0.95350E+06
 0.63869999E+02  0.78174E+06
 0.63920002E+02  0.53650E+06
 0.63970005E+02  0.27925E+06
 0.64019997E+02  0.53173E+05
 0.64070000E+02 -0.10980E+06
 0.64119995E+02 -0.22945E+06
 0.64169998E+02 -0.34670E+06
 0.64220001E+02 -0.48823E+06
 0.64269997E+02 -0.64531E+06
 0.64320000E+02 -0.80432E+06
 0.64369995E+02 -0.95954E+06
 0.64419998E+02 -0.10991E+07
 0.64470001E+02 -0.11902E+07
 0.64519997E+02 -0.12042E+07
 0.64570000E+02 -0.11729E+07
 0.64619995E+02 -0.11330E+07
 0.64669998E+02 -0.10916E+07
 0.64720001E+02 -0.10005E+07
 0.64769997E+02 -0.82348E+06
 0.64820000E+02 -0.61608E+06
 0.64869995E+02 -0.41301E+06
 0.64919998E+02 -0.22447E+06
 0.64970001E+02 -0.45572E+05
 0.65019997E+02  0.11484E+06
 0.65070000E+02  0.19443E+06
 0.65119995E+02  0.17176E+06
 0.65169998E+02  0.70435E+05
 0.65220001E+02 -0.40753E+05
 0.65269997E+02 -0.11799E+06
 0.65320000E+02 -0.20568E+06
 0.65369995E+02 -0.29644E+06
 0.65419998E+02 -0.35754E+06
 0.65470001E+02 -0.40149E+06
 0.65519997E+02 -0.43930E+06
 0.65570000E+02 -0.45189E+06
 0.65619995E+02 -0.39527E+06
 0.65669998E+02 -0.30846E+06
 0.65720001E+02 -0.23188E+06
 0.65769997E+02 -0.12534E+06
 0.65820000E+02  0.22935E+05
 0.65869995E+02  0.19196E+06
 0.65919998E+02  0.36345E+06
 0.65970001E+02  0.54393E+06
 0.66019997E+02  0.71956E+06
 0.66070000E+02  0.84589E+06
 0.66119995E+02  0.93442E+06
 0.66169998E+02  0.10006E+07
 0.66220001E+02  0.10416E+07
 0.66269997E+02  0.10690E+07
 0.66320000E+02  0.10555E+07
 0.66369995E+02  0.98413E+06
 0.66419998E+02  0.85109E+06
 0.66470001E+02  0.67883E+06
 0.66519997E+02  0.51693E+06
 0.66570000E+02  0.37010E+06
 0.66619995E+02  0.23827E+06
 0.66669998E+02  0.11049E+06
 0.66720001E+02  0.69900E+04
 0.66769997E+02 -0.52900E+05
 0.66820000E+02 -0.86423E+05
 0.66869995E+02 -0.95541E+05
 0.66919998E+02 -0.11893E+06
 0.66970001E+02 -0.13996E+06
 0.67019997E+02 -0.89793E+05
 0.67070000E+02  0.30752E+05
 0.67119995E+02  0.13788E+06
 0.67169998E+02  0.97910E+05
 0.67220001E+02 -0.79817E+05
 0.67269997E+02 -0.26623E+06
 0.67320000E+02 -0.40153E+06
 0.67369995E+02 -0.47962E+06
 0.67419998E+02 -0.51608E+06
 0.67470001E+02 -0.52142E+06
 0.67519997E+02 -0.52923E+06
 0.67570000E+02 -0.56264E+06
 0.67619995E+02 -0.59072E+06
 0.67669998E+02 -0.60232E+06
 0.67720001E+02 -0.57855E+06
 0.67769997E+02 -0.53144E+06
 0.67820000E+02 -0.46601E+06
 0.67869995E+02 -0.36878E+06
 0.67919998E+02 -0.29528E+06
 0.67970001E+02 -0.24130E+06
 0.68019997E+02 -0.17609E+06
 0.68070000E+02 -0.79732E+05
 0.68119995E+02  0.87069E+05
 0.68169998E+02  0.29243E+06
 0.68220001E+02  0.48515E+06
 0.68269997E+02  0.64487E+06
 0.68320000E+02  0.75399E+06
 0.68369995E+02  0.83355E+06
 0.68419998E+02  0.89067E+06
 0.68470001E+02  0.89556E+06
 0.68519997E+02  0.90640E+06
 0.68570000E+02  0.94629E+06
 0.68619995E+02  0.92089E+06
 0.68669998E+02  0.79352E+06
 0.68720001E+02  0.59643E+06
 0.68769997E+02  0.36464E+06
 0.68820000E+02  0.13292E+06
 0.68869995E+02 -0.46326E+05
 0.68919998E+02 -0.12953E+06
 0.68970001E+02 -0.13392E+06
 0.69019997E+02 -0.10930E+06
 0.69070000E+02 -0.11285E+06
 0.69119995E+02 -0.17548E+06
 0.69169998E+02 -0.27083E+06
 0.69220001E+02 -0.40010E+06
 0.69269997E+02 -0.55344E+06
 0.69320000E+02 -0.62395E+06
 0.69369995E+02 -0.52455E+06
 0.69419998E+02 -0.28091E+06
 0.69470001E+02 -0.55570E+04
 0.69519997E+02  0.22061E+06
 0.69570000E+02  0.38028E+06
 0.69619995E+02  0.47420E+06
 0.69669998E+02  0.51390E+06
 0.69720001E+02  0.52519E+06
 0.69769997E+02  0.55056E+06
 0.69820000E+02  0.57949E+06
 0.69869995E+02  0.58535E+06
 0.69919998E+02  0.59512E+06
 0.69970001E+02  0.62785E+06
 0.70019997E+02  0.64671E+06
 0.70070000E+02  0.62578E+06
 0.70119995E+02  0.57378E+06
 0.70169998E+02  0.49405E+06
 0.70220001E+02  0.40852E+06
 0.70269997E+02  0.31133E+06
 0.70320000E+02  0.17087E+06
 0.70369995E+02  0.11104E+05
 0.70419998E+02 -0.11832E+06
 0.70470001E+02 -0.17409E+06
 0.70519997E+02 -0.12872E+06
 0.70570000E+02 -0.13784E+05
 0.70619995E+02  0.95551E+05
 0.70669998E+02  0.11572E+06
 0.70720001E+02  0.57000E+03
 0.70769997E+02 -0.19361E+06
 0.70820000E+02 -0.40780E+06
 0.70869995E+02 -0.63204E+06
 0.70919998E+02 -0.84247E+06
 0.70970001E+02 -0.10265E+07
 0.71019997E+02 -0.11720E+07
 0.71070000E+02 -0.12904E+07
 0.71119995E+02 -0.14103E+07
 0.71169998E+02 -0.15126E+07
 0.71220001E+02 -0.15648E+07
 0.71269997E+02 -0.15599E+07
 0.71320000E+02 -0.15013E+07
 0.71369995E+02 -0.14152E+07
 0.71419998E+02 -0.13468E+07
 0.71470001E+02 -0.13050E+07
 0.71519997E+02 -0.12742E+07
 0.71570000E+02 -0.12257E+07
 0.71619995E+02 -0.11450E+07
 0.71669998E+02 -0.10467E+07
 0.71720001E+02 -0.94025E+06
 0.71769997E+02 -0.85155E+06
 0.71820000E+02 -0.77085E+06
 0.71869995E+02 -0.63509E+06
 0.71919998E+02 -0.47333E+06
 0.71970001E+02 -0.36216E+06
 0.72019997E+02 -0.29514E+06
 0.72070000E+02 -0.25020E+06
 0.72119995E+02 -0.21399E+06
 0.72169998E+02 -0.13123E+06
 0.72220001E+02  0.33630E+05
 0.72269997E+02  0.24408E+06
 0.72320000E+02  0.45623E+06
 0.72369995E+02  0.63826E+06
 0.72419998E+02  0.76703E+06
 0.72470001E+02  0.85857E+06
 0.72519997E+02  0.92689E+06
 0.72570000E+02  0.97128E+06
 0.72619995E+02  0.10055E+07
 0.72669998E+02  0.10567E+07
 0.72720001E+02  0.11406E+07
 0.72769997E+02  0.12111E+07
 0.72820000E+02  0.12319E+07
 0.72869995E+02  0.12097E+07
 0.72919998E+02  0.11486E+07
 0.72970001E+02  0.10853E+07
 0.73019997E+02  0.10174E+07
 0.73070000E+02  0.87811E+06
 0.73119995E+02  0.64548E+06
 0.73169998E+02  0.40132E+06
 0.73220001E+02  0.23919E+06
 0.73269997E+02  0.16470E+06
 0.73320000E+02  0.15197E+06
 0.73369995E+02  0.17776E+06
 0.73419998E+02  0.21143E+06
 0.73470001E+02  0.20634E+06
 0.73519997E+02  0.14528E+06
 0.73570000E+02  0.34845E+05
 0.73619995E+02 -0.14137E+06
 0.73669998E+02 -0.35805E+06
 0.73720001E+02 -0.53850E+06
 0.73769997E+02 -0.60119E+06
 0.73820000E+02 -0.52285E+06
 0.73869995E+02 -0.38060E+06
 0.73919998E+02 -0.26903E+06
 0.73970001E+02 -0.20092E+06
 0.74019997E+02 -0.14698E+06
 0.74070000E+02 -0.82999E+05
 0.74119995E+02 -0.17697E+05
 0.74169998E+02  0.10460E+05
 0.74220001E+02 -0.50240E+04
 0.74269997E+02 -0.61831E+05
 0.74320000E+02 -0.13358E+06
 0.74369995E+02 -0.19252E+06
 0.74419998E+02 -0.23170E+06
 0.74470001E+02 -0.24101E+06
 0.74519997E+02 -0.22677E+06
 0.74570000E+02 -0.19154E+06
 0.74619995E+02 -0.16464E+06
 0.74669998E+02 -0.16470E+06
 0.74720001E+02 -0.16563E+06
 0.74769997E+02 -0.16397E+06
 0.74820000E+02 -0.18228E+06
 0.74869995E+02 -0.22900E+06
 0.74919998E+02 -0.28014E+06
 0.74970001E+02 -0.30158E+06
 0.75019997E+02 -0.27478E+06
 0.75070000E+02 -0.21588E+06
 0.75119995E+02 -0.14690E+06
 0.75169998E+02 -0.73427E+05
 0.75220001E+02 -0.16338E+05
 0.75269997E+02 -0.19040E+04
 0.75320000E+02 -0.17812E+05
 0.75369995E+02 -0.37654E+05
 0.75419998E+02 -0.52437E+05
 0.75470001E+02 -0.74062E+05
 0.75519997E+02 -0.12686E+06
 0.75570000E+02 -0.18650E+06
 0.75619995E+02 -0.24059E+06
 0.75669998E+02 -0.27995E+06
 0.75720001E+02 -0.25872E+06
 0.75769997E+02 -0.19417E+06
 0.75820000E+02 -0.12856E+06
 0.75869995E+02 -0.83323E+05
 0.75919998E+02 -0.28544E+05
 0.75970001E+02  0.70098E+05
 0.76019997E+02  0.18679E+06
 0.76070000E+02  0.30928E+06
 0.76119995E+02  0.43390E+06
 0.76169998E+02  0.55095E+06
 0.76220001E+02  0.63958E+06
 0.76269997E+02  0.70933E+06
 0.76320000E+02  0.79847E+06
 0.76369995E+02  0.89674E+06
 0.76419998E+02  0.98518E+06
 0.76470001E+02  0.10397E+07
 0.76519997E+02  0.10565E+07
 0.76570000E+02  0.10465E+07
 0.76619995E+02  0.99656E+06
 0.76669998E+02  0.93009E+06
 0.76720001E+02  0.87386E+06
 0.76769997E+02  0.81656E+06
 0.76820000E+02  0.72621E+06
 0.76869995E+02  0.61500E+06
 0.76919998E+02  0.53318E+06
 0.76970001E+02  0.49705E+06
 0.77019997E+02  0.52729E+06
 0.77070000E+02  0.63219E+06
 0.77119995E+02  0.75682E+06
 0.77169998E+02  0.82702E+06
 0.77220001E+02  0.83542E+06
 0.77269997E+02  0.79701E+06
 0.77320000E+02  0.71352E+06
 0.77369995E+02  0.60890E+06
 0.77419998E+02  0.47842E+06
 0.77470001E+02  0.33359E+06
 0.77519997E+02  0.21177E+06
 0.77570000E+02  0.13695E+06
 0.77619995E+02  0.11392E+06
 0.77669998E+02  0.91728E+05
 0.77720001E+02  0.13996E+05
 0.77769997E+02 -0.15263E+06
 0.77820000E+02 -0.39541E+06
 0.77869995E+02 -0.64168E+06
 0.77919998E+02 -0.81989E+06
 0.77970001E+02 -0.88862E+06
 0.78019997E+02 -0.85914E+06
 0.78070000E+02 -0.78755E+06
 0.78119995E+02 -0.73073E+06
 0.78169998E+02 -0.70626E+06
 0.78220001E+02 -0.69828E+06
 0.78269997E+02 -0.69557E+06
 0.78320000E+02 -0.68374E+06
 0.78369995E+02 -0.63068E+06
 0.78419998E+02 -0.50862E+06
 0.78470001E+02 -0.34617E+06
 0.78519997E+02 -0.21508E+06
 0.78570000E+02 -0.16670E+06
 0.78619995E+02 -0.19263E+06
 0.78669998E+02 -0.23097E+06
 0.78720001E+02 -0.21482E+06
 0.78769997E+02 -0.12291E+06
 0.78820000E+02  0.14100E+05
 0.78869995E+02  0.17432E+06
 0.78919998E+02  0.33714E+06
 0.78970001E+02  0.46500E+06
 0.79019997E+02  0.54772E+06
 0.79070000E+02  0.61262E+06
 0.79119995E+02  0.70015E+06
 0.79169998E+02  0.81223E+06
 0.79220001E+02  0.89967E+06
 0.79269997E+02  0.92673E+06
 0.79320000E+02  0.91427E+06
 0.79369995E+02  0.88512E+06
 0.79419998E+02  0.84488E+06
 0.79470001E+02  0.80792E+06
 0.79519997E+02  0.77117E+06
 0.79570000E+02  0.71856E+06
 0.79619995E+02  0.64366E+06
 0.79669998E+02  0.56064E+06
 0.79720001E+02  0.47702E+06
 0.79769997E+02  0.38572E+06
 0.79820000E+02  0.31616E+06
 0.79869995E+02  0.28612E+06
 0.79919998E+02  0.27215E+06
 0.79970001E+02  0.24665E+06
 0.80019997E+02  0.19798E+06
 0.80070000E+02  0.13450E+06
 0.80119995E+02  0.34985E+05
 0.80169998E+02 -0.11397E+06
 0.80220001E+02 -0.29039E+06
 0.80269997E+02 -0.46031E+06
 0.80320000E+02 -0.59077E+06
 0.80369995E+02 -0.67856E+06
 0.80419998E+02 -0.72534E+06
 0.80470001E+02 -0.74273E+06
 0.80519997E+02 -0.73981E+06
 0.80570000E+02 -0.73278E+06
 0.80619995E+02 -0.75045E+06
 0.80669998E+02 -0.76317E+06
 0.80720001E+02 -0.74388E+06
 0.80769997E+02 -0.73190E+06
 0.80820000E+02 -0.73620E+06
 0.80869995E+02 -0.70161E+06
 0.80919998E+02 -0.60442E+06
 0.80970001E+02 -0.48181E+06
 0.81019997E+02 -0.38292E+06
 0.81070000E+02 -0.33677E+06
 0.81119995E+02 -0.35799E+06
 0.81169998E+02 -0.43728E+06
 0.81220001E+02 -0.52364E+06
 0.81269997E+02 -0.58221E+06
 0.81320000E+02 -0.61556E+06
 0.81369995E+02 -0.62134E+06
 0.81419998E+02 -0.58454E+06
 0.81470001E+02 -0.49380E+06
 0.81519997E+02 -0.36777E+06
 0.81570000E+02 -0.24900E+06
 0.81619995E+02 -0.16669E+06
 0.81669998E+02 -0.14884E+06
 0.81720001E+02 -0.21398E+06
 0.81769997E+02 -0.32975E+06
 0.81820000E+02 -0.44390E+06
 0.81869995E+02 -0.51589E+06
 0.81919998E+02 -0.52454E+06
 0.81970001E+02 -0.48167E+06
 0.82019997E+02 -0.42998E+06
 0.82070000E+02 -0.40530E+06
 0.82119995E+02 -0.40647E+06
 0.82169998E+02 -0.41459E+06
 0.82220001E+02 -0.41568E+06
 0.82269997E+02 -0.40394E+06
 0.82320000E+02 -0.39437E+06
 0.82369995E+02 -0.41159E+06
 0.82419998E+02 -0.44974E+06
 0.82470001E+02 -0.48782E+06
 0.82519997E+02 -0.50106E+06
 0.82570000E+02 -0.48617E+06
 0.82619995E+02 -0.45249E+06
 0.82669998E+02 -0.39828E+06
 0.82720001E+02 -0.35427E+06
 0.82769997E+02 -0.34438E+06
 0.82820000E+02 -0.34091E+06
 0.82869995E+02 -0.30825E+06
 0.82919998E+02 -0.26038E+06
 0.82970001E+02 -0.22182E+06
 0.83019997E+02 -0.18109E+06
 0.83070000E+02 -0.12467E+06
 0.83119995E+02 -0.48520E+05
 0.83169998E+02  0.37080E+05
 0.83220001E+02  0.11850E+06
 0.83269997E+02  0.19726E+06
 0.83320000E+02  0.28152E+06
 0.83369995E+02  0.36585E+06
 0.83419998E+02  0.42494E+06
 0.83470001E+02  0.45153E+06
 0.83519997E+02  0.45369E+06
 0.83570000E+02  0.42200E+06
 0.83619995E+02  0.35476E+06
 0.83669998E+02  0.25713E+06
 0.83720001E+02  0.13163E+06
 0.83769997E+02 -0.35790E+04
 0.83820000E+02 -0.12209E+06
 0.83869995E+02 -0.19866E+06
 0.83919998E+02 -0.23019E+06
 0.83970001E+02 -0.22294E+06
 0.84019997E+02 -0.17960E+06
 0.84070000E+02 -0.13482E+06
 0.84119995E+02 -0.13761E+06
 0.84169998E+02 -0.20570E+06
 0.84220001E+02 -0.30119E+06
 0.84269997E+02 -0.35365E+06
 0.84320000E+02 -0.32450E+06
 0.84369995E+02 -0.22580E+06
 0.84419998E+02 -0.98087E+05
 0.84470001E+02  0.11528E+05
 0.84519997E+02  0.74394E+05
 0.84570000E+02  0.86186E+05
 0.84619995E+02  0.69430E+05
 0.84669998E+02  0.60235E+05
 0.84720001E+02  0.75473E+05
 0.84769997E+02  0.11287E+06
 0.84820000E+02  0.18041E+06
 0.84869995E+02  0.28844E+06
 0.84919998E+02  0.39255E+06
 0.84970001E+02  0.45092E+06
 0.85019997E+02  0.46841E+06
 0.85070000E+02  0.46044E+06
 0.85119995E+02  0.46740E+06
 0.85169998E+02  0.50262E+06
 0.85220001E+02  0.54085E+06
 0.85269997E+02  0.54858E+06
 0.85320000E+02  0.48750E+06
 0.85369995E+02  0.36145E+06
 0.85419998E+02  0.20013E+06
 0.85470001E+02  0.42748E+05
 0.85519997E+02 -0.68086E+05
 0.85570000E+02 -0.13533E+06
 0.85619995E+02 -0.18305E+06
 0.85669998E+02 -0.21972E+06
 0.85720001E+02 -0.25270E+06
 0.85769997E+02 -0.28716E+06
 0.85820000E+02 -0.31652E+06
 0.85869995E+02 -0.31943E+06
 0.85919998E+02 -0.26549E+06
 0.85970001E+02 -0.15658E+06
 0.86019997E+02 -0.22976E+05
 0.86070000E+02  0.11715E+06
 0.86119995E+02  0.24649E+06
 0.86169998E+02  0.36173E+06
 0.86220001E+02  0.47006E+06
 0.86269997E+02  0.56686E+06
 0.86320000E+02  0.65254E+06
 0.86369995E+02  0.72608E+06
 0.86419998E+02  0.80109E+06
 0.86470001E+02  0.89595E+06
 0.86519997E+02  0.98641E+06
 0.86570000E+02  0.10349E+07
 0.86619995E+02  0.10219E+07
 0.86669998E+02  0.94499E+06
 0.86720001E+02  0.81770E+06
 0.86769997E+02  0.67179E+06
 0.86820000E+02  0.54977E+06
 0.86869995E+02  0.47011E+06
 0.86919998E+02  0.40932E+06
 0.86970001E+02  0.32450E+06
 0.87019997E+02  0.20787E+06
 0.87070000E+02  0.73251E+05
 0.87119995E+02 -0.65461E+05
 0.87169998E+02 -0.16312E+06
 0.87220001E+02 -0.19565E+06
 0.87269997E+02 -0.19922E+06
 0.87320000E+02 -0.21756E+06
 0.87369995E+02 -0.24808E+06
 0.87419998E+02 -0.28896E+06
 0.87470001E+02 -0.35366E+06
 0.87519997E+02 -0.42134E+06
 0.87570000E+02 -0.48051E+06
 0.87619995E+02 -0.53379E+06
 0.87669998E+02 -0.58815E+06
 0.87720001E+02 -0.64498E+06
 0.87769997E+02 -0.67116E+06
 0.87820000E+02 -0.64750E+06
 0.87869995E+02 -0.59428E+06
 0.87919998E+02 -0.52949E+06
 0.87970001E+02 -0.46459E+06
 0.88019997E+02 -0.41316E+06
 0.88070000E+02 -0.36030E+06
 0.88119995E+02 -0.29695E+06
 0.88169998E+02 -0.23213E+06
 0.88220001E+02 -0.16598E+06
 0.88269997E+02 -0.93081E+05
 0.88320000E+02 -0.45190E+04
 0.88369995E+02  0.83063E+05
 0.88419998E+02  0.16539E+06
 0.88470001E+02  0.24910E+06
 0.88519997E+02  0.31813E+06
 0.88570000E+02  0.36424E+06
 0.88619995E+02  0.38723E+06
 0.88669998E+02  0.40294E+06
 0.88720001E+02  0.41398E+06
 0.88769997E+02  0.42377E+06
 0.88820000E+02  0.45030E+06
 0.88869995E+02  0.47628E+06
 0.88919998E+02  0.48554E+06
 0.88970001E+02  0.47788E+06
 0.89019997E+02  0.45746E+06
 0.89070000E+02  0.43320E+06
 0.89119995E+02  0.39845E+06
 0.89169998E+02  0.34108E+06
 0.89220001E+02  0.24733E+06
 0.89269997E+02  0.12025E+06
 0.89320000E+02 -0.10130E+04
 0.89369995E+02 -0.73716E+05
 0.89419998E+02 -0.82721E+05
 0.89470001E+02 -0.64833E+05
 0.89519997E+02 -0.62141E+05
 0.89570000E+02 -0.52009E+05
 0.89619995E+02 -0.12112E+05
 0.89669998E+02  0.42114E+05
 0.89720001E+02  0.98022E+05
 0.89769997E+02  0.13677E+06
 0.89820000E+02  0.15098E+06
 0.89869995E+02  0.15386E+06
 0.89919998E+02  0.15564E+06
 0.89970001E+02  0.15300E+06
 0.90019997E+02  0.13533E+06
 0.90070000E+02  0.10946E+06
 0.90119995E+02  0.90731E+05
 0.90169998E+02  0.84862E+05
 0.90220001E+02  0.80618E+05
 0.90269997E+02  0.82766E+05
 0.90320000E+02  0.99442E+05
 0.90369995E+02  0.97130E+05
 0.90419998E+02  0.60569E+05
 0.90470001E+02  0.55830E+04
 0.90519997E+02 -0.46903E+05
 0.90570000E+02 -0.78493E+05
 0.90619995E+02 -0.81492E+05
 0.90669998E+02 -0.53968E+05
 0.90720001E+02 -0.14710E+05
 0.90769997E+02  0.18451E+05
 0.90820000E+02  0.31250E+05
 0.90869995E+02  0.33961E+05
 0.90919998E+02  0.50229E+05
 0.90970001E+02  0.67051E+05
 0.91019997E+02  0.81595E+05
 0.91070000E+02  0.98664E+05
 0.91119995E+02  0.11217E+06
 0.91169998E+02  0.10895E+06
 0.91220001E+02  0.77379E+05
 0.91269997E+02  0.25222E+05
 0.91320000E+02 -0.41668E+05
 0.91369995E+02 -0.11523E+06
 0.91419998E+02 -0.18405E+06
 0.91470001E+02 -0.23236E+06
 0.91519997E+02 -0.25679E+06
 0.91570000E+02 -0.27975E+06
 0.91619995E+02 -0.31069E+06
 0.91669998E+02 -0.33858E+06
 0.91720001E+02 -0.35346E+06
 0.91769997E+02 -0.35330E+06
 0.91820000E+02 -0.33194E+06
 0.91869995E+02 -0.29504E+06
 0.91919998E+02 -0.26307E+06
 0.91970001E+02 -0.24136E+06
 0.92019997E+02 -0.22206E+06
 0.92070000E+02 -0.20619E+06
 0.92119995E+02 -0.19960E+06
 0.92169998E+02 -0.18827E+06
 0.92220001E+02 -0.17098E+06
 0.92269997E+02 -0.16068E+06
 0.92320000E+02 -0.15306E+06
 0.92369995E+02 -0.15376E+06
 0.92419998E+02 -0.17552E+06
 0.92470001E+02 -0.20858E+06
 0.92519997E+02 -0.22576E+06
 0.92570000E+02 -0.21419E+06
 0.92619995E+02 -0.18388E+06
 0.92669998E+02 -0.14391E+06
 0.92720001E+02 -0.93022E+05
 0.92769997E+02 -0.38545E+05
 0.92820000E+02 -0.96200E+03
 0.92869995E+02  0.22239E+05
 0.92919998E+02  0.51444E+05
 0.92970001E+02  0.86970E+05
 0.93019997E+02  0.11876E+06
 0.93070000E+02  0.13851E+06
 0.93119995E+02  0.14160E+06
 0.93169998E+02  0.12532E+06
 0.93220001E+02  0.98992E+05
 0.93269997E+02  0.83742E+05
 0.93320000E+02  0.79332E+05
 0.93369995E+02  0.90076E+05
 0.93419998E+02  0.12627E+06
 0.93470001E+02  0.18105E+06
 0.93519997E+02  0.25258E+06
 0.93570000E+02  0.33430E+06
 0.93619995E+02  0.41528E+06
 0.93669998E+02  0.47570E+06
 0.93720001E+02  0.49331E+06
 0.93769997E+02  0.47974E+06
 0.93820000E+02  0.46072E+06
 0.93869995E+02  0.44286E+06
 0.93919998E+02  0.42681E+06
 0.93970001E+02  0.42751E+06
 0.94019997E+02  0.44536E+06
 0.94070000E+02  0.46607E+06
 0.94119995E+02  0.48039E+06
 0.94169998E+02  0.47106E+06
 0.94220001E+02  0.43042E+06
 0.94269997E+02  0.35884E+06
 0.94320000E+02  0.26165E+06
 0.94369995E+02  0.15529E+06
 0.94419998E+02  0.51802E+05
 0.94470001E+02 -0.45969E+05
 0.94519997E+02 -0.14356E+06
 0.94570000E+02 -0.23526E+06
 0.94619995E+02 -0.31751E+06
 0.94669998E+02 -0.39477E+06
 0.94720001E+02 -0.46615E+06
 0.94769997E+02 -0.54040E+06
 0.94820000E+02 -0.61937E+06
 0.94869995E+02 -0.68730E+06
 0.94919998E+02 -0.71862E+06
 0.94970001E+02 -0.70343E+06
 0.95019997E+02 -0.65556E+06
 0.95070000E+02 -0.58813E+06
 0.95119995E+02 -0.52020E+06
 0.95169998E+02 -0.46709E+06
 0.95220001E+02 -0.42160E+06
 0.95269997E+02 -0.36851E+06
 0.95320000E+02 -0.30776E+06
 0.95369995E+02 -0.25456E+06
 0.95419998E+02 -0.20953E+06
 0.95470001E+02 -0.15796E+06
 0.95519997E+02 -0.10710E+06
 0.95570000E+02 -0.66506E+05
 0.95619995E+02 -0.28665E+05
 0.95669998E+02  0.11263E+05
 0.95720001E+02  0.60799E+05
 0.95769997E+02  0.11925E+06
 0.95820000E+02  0.18466E+06
 0.95869995E+02  0.25495E+06
 0.95919998E+02  0.31459E+06
 0.95970001E+02  0.34771E+06
 0.96019997E+02  0.34698E+06
 0.96070000E+02  0.31136E+06
 0.96119995E+02  0.24468E+06
 0.96169998E+02  0.16590E+06
 0.96220001E+02  0.89722E+05
 0.96269997E+02  0.21250E+05
 0.96320000E+02 -0.31396E+05
 0.96369995E+02 -0.73650E+05
 0.96419998E+02 -0.12559E+06
 0.96470001E+02 -0.18051E+06
 0.96519997E+02 -0.21151E+06
 0.96570000E+02 -0.21693E+06
 0.96619995E+02 -0.20418E+06
 0.96669998E+02 -0.18304E+06
 0.96720001E+02 -0.16658E+06
 0.96769997E+02 -0.16578E+06
 0.96820000E+02 -0.19446E+06
 0.96869995E+02 -0.24988E+06
 0.96919998E+02 -0.31410E+06
 0.96970001E+02 -0.36709E+06
 0.97019997E+02 -0.39400E+06
 0.97070000E+02 -0.38398E+06
 0.97119995E+02 -0.33296E+06
 0.97169998E+02 -0.26506E+06
 0.97220001E+02 -0.21251E+06
 0.97269997E+02 -0.17887E+06
 0.97320000E+02 -0.13641E+06
 0.97369995E+02 -0.66581E+05
 0.97419998E+02  0.21196E+05
 0.97470001E+02  0.11329E+06
 0.97519997E+02  0.19997E+06
 0.97570000E+02  0.28127E+06
 0.97619995E+02  0.35239E+06
 0.97669998E+02  0.40844E+06
 0.97720001E+02  0.45656E+06
 0.97769997E+02  0.49650E+06
 0.97820000E+02  0.52914E+06
 0.97869995E+02  0.56122E+06
 0.97919998E+02  0.58290E+06
 0.97970001E+02  0.57126E+06
 0.98019997E+02  0.52208E+06
 0.98070000E+02  0.45049E+06
 0.98119995E+02  0.37215E+06
 0.98169998E+02  0.29151E+06
 0.98220001E+02  0.20382E+06
 0.98269997E+02  0.11358E+06
 0.98320000E+02  0.34915E+05
 0.98369995E+02 -0.29011E+05
 0.98419998E+02 -0.92907E+05
 0.98470001E+02 -0.17345E+06
 0.98519997E+02 -0.27894E+06
 0.98570000E+02 -0.39723E+06
 0.98619995E+02 -0.50871E+06
 0.98669998E+02 -0.60119E+06
 0.98720001E+02 -0.66860E+06
 0.98769997E+02 -0.71632E+06
 0.98820000E+02 -0.74312E+06
 0.98869995E+02 -0.74210E+06
 0.98919998E+02 -0.71695E+06
 0.98970001E+02 -0.67964E+06
 0.99019997E+02 -0.63686E+06
 0.99070000E+02 -0.59306E+06
 0.99119995E+02 -0.55125E+06
 0.99169998E+02 -0.50433E+06
 0.99220001E+02 -0.45794E+06
 0.99269997E+02 -0.41835E+06
 0.99320000E+02 -0.37114E+06
 0.99369995E+02 -0.30083E+06
 0.99419998E+02 -0.20027E+06
 0.99470001E+02 -0.76668E+05
 0.99519997E+02  0.49164E+05
 0.99570000E+02  0.16002E+06
 0.99619995E+02  0.25632E+06
 0.99669998E+02  0.34729E+06
 0.99720001E+02  0.43294E+06
 0.99769997E+02  0.51408E+06
 0.99820000E+02  0.59784E+06
 0.99869995E+02  0.68235E+06
 0.99919998E+02  0.75553E+06
 0.99970001E+02  0.79579E+06
 0.10002000E+03  0.78600E+06
 0.10007000E+03  0.74046E+06
 0.10012000E+03  0.68178E+06
 0.10017000E+03  0.61696E+06
 0.10022000E+03  0.54766E+06
 0.10027000E+03  0.47657E+06
 0.10032000E+03  0.40622E+06
 0.10037000E+03  0.33747E+06
 0.10042000E+03  0.27832E+06
 0.10047000E+03  0.23495E+06
 0.10052000E+03  0.20058E+06
 0.10057000E+03  0.16532E+06
 0.10062000E+03  0.13188E+06
 0.10067000E+03  0.11051E+06
 0.10072000E+03  0.92774E+05
 0.10077000E+03  0.59025E+05
 0.10082000E+03  0.20870E+04
 0.10087000E+03 -0.73585E+05
 0.10092000E+03 -0.15049E+06
 0.10097000E+03 -0.20180E+06
 0.10102000E+03 -0.21218E+06
 0.10107000E+03 -0.18403E+06
 0.10112000E+03 -0.14036E+06
 0.10117000E+03 -0.10677E+06
 0.10122000E+03 -0.83173E+05
 0.10127000E+03 -0.59337E+05
 0.10132000E+03 -0.33120E+05
 0.10137000E+03 -0.12803E+05
 0.10142000E+03 -0.34050E+04
 0.10147000E+03  0.56990E+04
 0.10152000E+03  0.19276E+05
 0.10157000E+03  0.31652E+05
 0.10162000E+03  0.37351E+05
 0.10167000E+03  0.35612E+05
 0.10172000E+03  0.33606E+05
 0.10177000E+03  0.43433E+05
 0.10182000E+03  0.75535E+05
 0.10187000E+03  0.11927E+06
 0.10192000E+03  0.15268E+06
 0.10197000E+03  0.16098E+06
 0.10202000E+03  0.12395E+06
 0.10207000E+03  0.35222E+05
 0.10212000E+03 -0.80726E+05
 0.10217000E+03 -0.19113E+06
 0.10222000E+03 -0.27092E+06
 0.10227000E+03 -0.31744E+06
 0.10232000E+03 -0.34424E+06
 0.10237000E+03 -0.36763E+06
 0.10242000E+03 -0.39763E+06
 0.10247000E+03 -0.42325E+06
 0.10252000E+03 -0.43237E+06
 0.10257000E+03 -0.42068E+06
 0.10262000E+03 -0.39043E+06
 0.10267000E+03 -0.35874E+06
 0.10272000E+03 -0.33833E+06
 0.10277000E+03 -0.32251E+06
 0.10282000E+03 -0.29337E+06
 0.10287000E+03 -0.24098E+06
 0.10292000E+03 -0.17015E+06
 0.10297000E+03 -0.95853E+05
 0.10302000E+03 -0.47590E+05
 0.10307000E+03 -0.44708E+05
 0.10312000E+03 -0.71144E+05
 0.10317000E+03 -0.95919E+05
 0.10322000E+03 -0.92932E+05
 0.10327000E+03 -0.47432E+05
 0.10332000E+03  0.39558E+05
 0.10337000E+03  0.13871E+06
 0.10342000E+03  0.21162E+06
 0.10347000E+03  0.25455E+06
 0.10352000E+03  0.27362E+06
 0.10357000E+03  0.26523E+06
 0.10362000E+03  0.23657E+06
 0.10367000E+03  0.21419E+06
 0.10372000E+03  0.22508E+06
 0.10377000E+03  0.26078E+06
 0.10382000E+03  0.29896E+06
 0.10387000E+03  0.33093E+06
 0.10392000E+03  0.35707E+06
 0.10397000E+03  0.38624E+06
 0.10402000E+03  0.42074E+06
 0.10407000E+03  0.44770E+06
 0.10412000E+03  0.45698E+06
 0.10417000E+03  0.45180E+06
 0.10422000E+03  0.44716E+06
 0.10427000E+03  0.45594E+06
 0.10432000E+03  0.46846E+06
 0.10437000E+03  0.46875E+06
 0.10442000E+03  0.44873E+06
 0.10447000E+03  0.40665E+06
 0.10452000E+03  0.34935E+06
 0.10457000E+03  0.28675E+06
 0.10462000E+03  0.23386E+06
 0.10467000E+03  0.19922E+06
 0.10472000E+03  0.17880E+06
 0.10477000E+03  0.17239E+06
 0.10482000E+03  0.17536E+06
 0.10487000E+03  0.17107E+06
 0.10492000E+03  0.15167E+06
 0.10497000E+03  0.12194E+06
 0.10502000E+03  0.88965E+05
 0.10507000E+03  0.67464E+05
 0.10512000E+03  0.70595E+05
 0.10517000E+03  0.97090E+05
 0.10522000E+03  0.13868E+06
 0.10527000E+03  0.18127E+06
 0.10532000E+03  0.20993E+06
 0.10537000E+03  0.21451E+06
 0.10542000E+03  0.19082E+06
 0.10547000E+03  0.14717E+06
 0.10552000E+03  0.97848E+05
 0.10557000E+03  0.53645E+05
 0.10562000E+03  0.16495E+05
 0.10567000E+03 -0.20279E+05
 0.10572000E+03 -0.57303E+05
 0.10577000E+03 -0.92537E+05
 0.10582000E+03 -0.12832E+06
 0.10587000E+03 -0.16504E+06
 0.10592000E+03 -0.19904E+06
 0.10597000E+03 -0.21790E+06
 0.10602000E+03 -0.21407E+06
 0.10607000E+03 -0.18862E+06
 0.10612000E+03 -0.15259E+06
 0.10617000E+03 -0.13254E+06
 0.10622000E+03 -0.14626E+06
 0.10627000E+03 -0.19857E+06
 0.10632000E+03 -0.27657E+06
 0.10637000E+03 -0.35372E+06
 0.10642000E+03 -0.41595E+06
 0.10647000E+03 -0.46309E+06
 0.10652000E+03 -0.49810E+06
 0.10657000E+03 -0.51447E+06
 0.10662000E+03 -0.50780E+06
 0.10667000E+03 -0.48032E+06
 0.10672000E+03 -0.43092E+06
 0.10677000E+03 -0.35722E+06
 0.10682000E+03 -0.26793E+06
 0.10687000E+03 -0.18851E+06
 0.10692000E+03 -0.13784E+06
 0.10697000E+03 -0.12252E+06
 0.10702000E+03 -0.13290E+06
 0.10707000E+03 -0.14843E+06
 0.10712000E+03 -0.15635E+06
 0.10717000E+03 -0.15133E+06
 0.10722000E+03 -0.14564E+06
 0.10727000E+03 -0.14736E+06
 0.10732000E+03 -0.14499E+06
 0.10737000E+03 -0.13939E+06
 0.10742000E+03 -0.14165E+06
 0.10747000E+03 -0.15580E+06
 0.10752000E+03 -0.17958E+06
 0.10757000E+03 -0.20276E+06
 0.10762000E+03 -0.21521E+06
 0.10767000E+03 -0.21654E+06
 0.10772000E+03 -0.21200E+06
 0.10777000E+03 -0.20439E+06
 0.10782000E+03 -0.19548E+06
 0.10787000E+03 -0.19089E+06
 0.10792000E+03 -0.19350E+06
 0.10797000E+03 -0.20209E+06
 0.10802000E+03 -0.21338E+06
 0.10807000E+03 -0.21910E+06
 0.10812000E+03 -0.21332E+06
 0.10817000E+03 -0.19998E+06
 0.10822000E+03 -0.18350E+06
 0.10827000E+03 -0.16321E+06
 0.10832000E+03 -0.13753E+06
 0.10837000E+03 -0.11468E+06
 0.10842000E+03 -0.10524E+06
 0.10847000E+03 -0.10552E+06
 0.10852000E+03 -0.10971E+06
 0.10857000E+03 -0.11576E+06
 0.10862000E+03 -0.12816E+06
 0.10867000E+03 -0.15277E+06
 0.10872000E+03 -0.18496E+06
 0.10877000E+03 -0.21434E+06
 0.10882000E+03 -0.22981E+06
 0.10887000E+03 -0.22127E+06
 0.10892000E+03 -0.18650E+06
 0.10897000E+03 -0.14008E+06
 0.10902000E+03 -0.94188E+05
 0.10907000E+03 -0.44118E+05
 0.10912000E+03  0.14757E+05
 0.10917000E+03  0.71347E+05
 0.10922000E+03  0.10794E+06
 0.10927000E+03  0.11900E+06
 0.10932000E+03  0.10866E+06
 0.10937000E+03  0.97372E+05
 0.10942000E+03  0.11222E+06
 0.10947000E+03  0.15034E+06
 0.10952000E+03  0.18767E+06
 0.10957000E+03  0.20253E+06
 0.10962000E+03  0.18665E+06
 0.10967000E+03  0.15020E+06
 0.10972000E+03  0.11311E+06
 0.10977000E+03  0.97220E+05
 0.10982000E+03  0.10755E+06
 0.10987000E+03  0.13310E+06
 0.10992000E+03  0.16284E+06
 0.10997000E+03  0.18691E+06
 0.11002000E+03  0.19255E+06
 0.11007000E+03  0.16963E+06
 0.11012000E+03  0.12801E+06
 0.11017000E+03  0.84399E+05
 0.11022000E+03  0.58263E+05
 0.11027000E+03  0.60276E+05
 0.11032000E+03  0.78647E+05
 0.11037000E+03  0.98583E+05
 0.11042000E+03  0.10838E+06
 0.11047000E+03  0.11084E+06
 0.11052000E+03  0.11183E+06
 0.11057000E+03  0.11484E+06
 0.11062000E+03  0.12732E+06
 0.11067000E+03  0.14732E+06
 0.11072000E+03  0.16949E+06
 0.11077000E+03  0.19266E+06
 0.11082000E+03  0.21647E+06
 0.11087000E+03  0.23956E+06
 0.11092000E+03  0.26565E+06
 0.11097000E+03  0.29556E+06
 0.11102000E+03  0.32591E+06
 0.11107000E+03  0.35616E+06
 0.11112000E+03  0.38215E+06
 0.11117000E+03  0.40175E+06
 0.11122000E+03  0.41556E+06
 0.11127000E+03  0.41836E+06
 0.11132000E+03  0.40296E+06
 0.11137000E+03  0.37712E+06
 0.11142000E+03  0.35474E+06
 0.11147000E+03  0.33788E+06
 0.11152000E+03  0.32621E+06
 0.11157000E+03  0.31567E+06
 0.11162000E+03  0.29830E+06
 0.11167000E+03  0.27121E+06
 0.11172000E+03  0.23732E+06
 0.11177000E+03  0.19631E+06
 0.11182000E+03  0.14414E+06
 0.11187000E+03  0.79145E+05
 0.11192000E+03  0.45660E+04
 0.11197000E+03 -0.65816E+05
 0.11202000E+03 -0.12468E+06
 0.11207000E+03 -0.16949E+06
 0.11212000E+03 -0.20014E+06
 0.11217000E+03 -0.22610E+06
 0.11222000E+03 -0.25156E+06
 0.11227000E+03 -0.27805E+06
 0.11232000E+03 -0.30179E+06
 0.11237000E+03 -0.31595E+06
 0.11242000E+03 -0.32072E+06
 0.11247000E+03 -0.32480E+06
 0.11252000E+03 -0.33302E+06
 0.11257000E+03 -0.34067E+06
 0.11262000E+03 -0.34974E+06
 0.11267000E+03 -0.36044E+06
 0.11272000E+03 -0.37175E+06
 0.11277000E+03 -0.38600E+06
 0.11282000E+03 -0.39759E+06
 0.11287000E+03 -0.39210E+06
 0.11292000E+03 -0.35959E+06
 0.11297000E+03 -0.30180E+06
 0.11302000E+03 -0.23371E+06
 0.11307000E+03 -0.17606E+06
 0.11312000E+03 -0.13088E+06
 0.11317000E+03 -0.93183E+05
 0.11322000E+03 -0.57669E+05
 0.11327000E+03 -0.19207E+05
 0.11332000E+03  0.15765E+05
 0.11337000E+03  0.41593E+05
 0.11342000E+03  0.52632E+05
 0.11347000E+03  0.45214E+05
 0.11352000E+03  0.28585E+05
 0.11357000E+03  0.12287E+05
 0.11362000E+03 -0.26710E+04
 0.11367000E+03 -0.17298E+05
 0.11372000E+03 -0.33994E+05
 0.11377000E+03 -0.48828E+05
 0.11382000E+03 -0.51817E+05
 0.11387000E+03 -0.42017E+05
 0.11392000E+03 -0.28657E+05
 0.11397000E+03 -0.24280E+05
 0.11402000E+03 -0.33272E+05
 0.11407000E+03 -0.47526E+05
 0.11412000E+03 -0.56985E+05
 0.11417000E+03 -0.59970E+05
 0.11422000E+03 -0.66740E+05
 0.11427000E+03 -0.87413E+05
 0.11432000E+03 -0.11635E+06
 0.11437000E+03 -0.14421E+06
 0.11442000E+03 -0.16996E+06
 0.11447000E+03 -0.19383E+06
 0.11452000E+03 -0.21666E+06
 0.11457000E+03 -0.23789E+06
 0.11462000E+03 -0.25092E+06
 0.11467000E+03 -0.24749E+06
 0.11472000E+03 -0.23001E+06
 0.11477000E+03 -0.21178E+06
 0.11482000E+03 -0.19936E+06
 0.11487000E+03 -0.18964E+06
 0.11492000E+03 -0.18264E+06
 0.11497000E+03 -0.17749E+06
 0.11502000E+03 -0.17243E+06
 0.11507000E+03 -0.17139E+06
 0.11512000E+03 -0.16734E+06
 0.11517000E+03 -0.14782E+06
 0.11522000E+03 -0.11362E+06
 0.11527000E+03 -0.76244E+05
 0.11532000E+03 -0.48507E+05
 0.11537000E+03 -0.31746E+05
 0.11542000E+03 -0.19501E+05
 0.11547000E+03 -0.59750E+04
 0.11552000E+03  0.12170E+05
 0.11557000E+03  0.29779E+05
 0.11562000E+03  0.33754E+05
 0.11567000E+03  0.19538E+05
 0.11572000E+03  0.27520E+04
 0.11577000E+03 -0.57380E+04
 0.11582000E+03 -0.70980E+04
 0.11587000E+03 -0.86000E+02
 0.11592000E+03  0.11098E+05
 0.11597000E+03  0.18604E+05
 0.11602000E+03  0.18100E+05
 0.11607000E+03  0.12411E+05
 0.11612000E+03  0.87200E+04
 0.11617000E+03  0.19376E+05
 0.11622000E+03  0.55672E+05
 0.11627000E+03  0.11782E+06
 0.11632000E+03  0.20321E+06
 0.11637000E+03  0.30227E+06
 0.11642000E+03  0.40059E+06
 0.11647000E+03  0.48698E+06
 0.11652000E+03  0.55492E+06
 0.11657000E+03  0.59583E+06
 0.11662000E+03  0.60139E+06
 0.11667000E+03  0.58081E+06
 0.11672000E+03  0.54885E+06
 0.11677000E+03  0.52196E+06
 0.11682000E+03  0.50952E+06
 0.11687000E+03  0.49961E+06
 0.11692000E+03  0.47652E+06
 0.11697000E+03  0.43238E+06
 0.11702000E+03  0.37101E+06
 0.11707000E+03  0.29741E+06
 0.11712000E+03  0.21917E+06
 0.11717000E+03  0.14657E+06
 0.11722000E+03  0.82533E+05
 0.11727000E+03  0.33943E+05
 0.11732000E+03  0.82000E+03
 0.11737000E+03 -0.30079E+05
 0.11742000E+03 -0.67743E+05
 0.11747000E+03 -0.10589E+06
 0.11752000E+03 -0.13048E+06
 0.11757000E+03 -0.14043E+06
 0.11762000E+03 -0.14798E+06
 0.11767000E+03 -0.16452E+06
 0.11772000E+03 -0.19157E+06
 0.11777000E+03 -0.21948E+06
 0.11782000E+03 -0.24022E+06
 0.11787000E+03 -0.25386E+06
 0.11792000E+03 -0.25683E+06
 0.11797000E+03 -0.24652E+06
 0.11802000E+03 -0.23120E+06
 0.11807000E+03 -0.21485E+06
 0.11812000E+03 -0.19293E+06
 0.11817000E+03 -0.16894E+06
 0.11822000E+03 -0.14987E+06
 0.11827000E+03 -0.13226E+06
 0.11832000E+03 -0.11119E+06
 0.11837000E+03 -0.90898E+05
 0.11842000E+03 -0.73045E+05
 0.11847000E+03 -0.46873E+05
 0.11852000E+03 -0.28150E+04
 0.11857000E+03  0.58158E+05
 0.11862000E+03  0.12887E+06
 0.11867000E+03  0.20119E+06
 0.11872000E+03  0.27238E+06
 0.11877000E+03  0.34088E+06
 0.11882000E+03  0.40470E+06
 0.11887000E+03  0.46607E+06
 0.11892000E+03  0.52383E+06
 0.11897000E+03  0.57089E+06
 0.11902000E+03  0.60514E+06
 0.11907000E+03  0.63240E+06
 0.11912000E+03  0.65407E+06
 0.11917000E+03  0.66150E+06
 0.11922000E+03  0.64670E+06
 0.11927000E+03  0.61364E+06
 0.11932000E+03  0.57109E+06
 0.11937000E+03  0.52495E+06
 0.11942000E+03  0.48148E+06
 0.11947000E+03  0.43924E+06
 0.11952000E+03  0.38994E+06
 0.11957000E+03  0.32998E+06
 0.11962000E+03  0.26242E+06
 0.11967000E+03  0.19520E+06
 0.11972000E+03  0.14003E+06
 0.11977000E+03  0.10537E+06
 0.11982000E+03  0.90275E+05
 0.11987000E+03  0.89660E+05
 0.11992000E+03  0.98239E+05
 0.11997000E+03  0.11226E+06
 0.12002000E+03  0.13054E+06
 0.12007000E+03  0.15122E+06
 0.12012000E+03  0.16775E+06
 0.12017000E+03  0.17171E+06
 0.12022000E+03  0.16626E+06
 0.12027000E+03  0.16258E+06
 0.12032000E+03  0.16590E+06
 0.12037000E+03  0.17959E+06
 0.12042000E+03  0.20212E+06
 0.12047000E+03  0.22470E+06
 0.12052000E+03  0.23624E+06
 0.12057000E+03  0.22825E+06
 0.12062000E+03  0.20436E+06
 0.12067000E+03  0.17765E+06
 0.12072000E+03  0.16173E+06
 0.12077000E+03  0.15853E+06
 0.12082000E+03  0.16098E+06
 0.12087000E+03  0.16141E+06
 0.12092000E+03  0.14833E+06
 0.12097000E+03  0.11450E+06
 0.12102000E+03  0.63454E+05
 0.12107000E+03  0.42420E+04
 0.12112000E+03 -0.56702E+05
 0.12117000E+03 -0.11502E+06
 0.12122000E+03 -0.17037E+06
 0.12127000E+03 -0.22704E+06
 0.12132000E+03 -0.28381E+06
 0.12137000E+03 -0.33781E+06
 0.12142000E+03 -0.38690E+06
 0.12147000E+03 -0.42721E+06
 0.12152000E+03 -0.46119E+06
 0.12157000E+03 -0.49363E+06
 0.12162000E+03 -0.52398E+06
 0.12167000E+03 -0.54998E+06
 0.12172000E+03 -0.56852E+06
 0.12177000E+03 -0.57756E+06
 0.12182000E+03 -0.58299E+06
 0.12187000E+03 -0.59195E+06
 0.12192000E+03 -0.59855E+06
 0.12197000E+03 -0.59521E+06
 0.12202000E+03 -0.58472E+06
 0.12207000E+03 -0.57262E+06
 0.12212000E+03 -0.56254E+06
 0.12217000E+03 -0.55093E+06
 0.12222000E+03 -0.53287E+06
 0.12227000E+03 -0.51030E+06
 0.12232000E+03 -0.48477E+06
 0.12237000E+03 -0.45516E+06
 0.12242000E+03 -0.42203E+06
 0.12247000E+03 -0.38730E+06
 0.12252000E+03 -0.34956E+06
 0.12257000E+03 -0.30744E+06
 0.12262000E+03 -0.26850E+06
 0.12267000E+03 -0.24336E+06
 0.12272000E+03 -0.23089E+06
 0.12277000E+03 -0.22447E+06
 0.12282000E+03 -0.22439E+06
 0.12287000E+03 -0.22775E+06
 0.12292000E+03 -0.22797E+06
 0.12297000E+03 -0.22596E+06
 0.12302000E+03 -0.22362E+06
 0.12307000E+03 -0.21655E+06
 0.12312000E+03 -0.19805E+06
 0.12317000E+03 -0.16868E+06
 0.12322000E+03 -0.13529E+06
 0.12327000E+03 -0.10173E+06
 0.12332000E+03 -0.73676E+05
 0.12337000E+03 -0.54764E+05
 0.12342000E+03 -0.43243E+05
 0.12347000E+03 -0.37537E+05
 0.12352000E+03 -0.37373E+05
 0.12357000E+03 -0.42680E+05
 0.12362000E+03 -0.47320E+05
 0.12367000E+03 -0.51083E+05
 0.12372000E+03 -0.59967E+05
 0.12377000E+03 -0.73472E+05
 0.12382000E+03 -0.84991E+05
 0.12387000E+03 -0.89827E+05
 0.12392000E+03 -0.91960E+05
 0.12397000E+03 -0.94831E+05
 0.12402000E+03 -0.10392E+06
 0.12407000E+03 -0.12629E+06
 0.12412000E+03 -0.15913E+06
 0.12417000E+03 -0.19473E+06
 0.12422000E+03 -0.22855E+06
 0.12427000E+03 -0.25978E+06
 0.12432000E+03 -0.28902E+06
 0.12437000E+03 -0.31509E+06
 0.12442000E+03 -0.33713E+06
 0.12447000E+03 -0.34987E+06
 0.12452000E+03 -0.34312E+06
 0.12457000E+03 -0.32059E+06
 0.12462000E+03 -0.29496E+06
 0.12467000E+03 -0.27096E+06
 0.12472000E+03 -0.24381E+06
 0.12477000E+03 -0.20487E+06
 0.12482000E+03 -0.14615E+06
 0.12487000E+03 -0.68985E+05
 0.12492000E+03  0.89160E+04
 0.12497000E+03  0.73750E+05
 0.12502000E+03  0.12343E+06
 0.12507000E+03  0.15707E+06
 0.12512000E+03  0.17604E+06
 0.12517001E+03  0.18680E+06
 0.12521999E+03  0.19792E+06
 0.12527000E+03  0.20848E+06
 0.12532000E+03  0.21503E+06
 0.12537000E+03  0.22101E+06
 0.12542001E+03  0.22680E+06
 0.12546999E+03  0.23122E+06
 0.12552000E+03  0.23511E+06
 0.12557000E+03  0.23784E+06
 0.12562000E+03  0.23630E+06
 0.12567001E+03  0.22867E+06
 0.12571999E+03  0.21392E+06
 0.12577000E+03  0.19345E+06
 0.12582000E+03  0.17317E+06
 0.12587000E+03  0.15649E+06
 0.12592001E+03  0.14660E+06
 0.12596999E+03  0.13913E+06
 0.12602000E+03  0.12374E+06
 0.12607000E+03  0.98168E+05
 0.12612000E+03  0.59857E+05
 0.12617001E+03  0.87040E+04
 0.12621999E+03 -0.42269E+05
 0.12627000E+03 -0.75668E+05
 0.12632000E+03 -0.85660E+05
 0.12637000E+03 -0.76661E+05
 0.12642001E+03 -0.50278E+05
 0.12646999E+03 -0.94590E+04
 0.12652000E+03  0.37088E+05
 0.12657000E+03  0.76523E+05
 0.12662000E+03  0.94081E+05
 0.12667001E+03  0.90437E+05
 0.12671999E+03  0.86235E+05
 0.12677000E+03  0.10206E+06
 0.12682000E+03  0.13955E+06
 0.12687000E+03  0.18326E+06
 0.12692001E+03  0.21976E+06
 0.12696999E+03  0.24462E+06
 0.12702000E+03  0.26056E+06
 0.12707000E+03  0.27306E+06
 0.12712000E+03  0.28404E+06
 0.12717001E+03  0.29175E+06
 0.12721999E+03  0.29104E+06
 0.12727000E+03  0.28015E+06
 0.12732000E+03  0.26653E+06
 0.12737000E+03  0.25747E+06
 0.12742001E+03  0.25266E+06
 0.12746999E+03  0.25019E+06
 0.12752000E+03  0.25184E+06
 0.12757000E+03  0.25787E+06
 0.12762000E+03  0.26394E+06
 0.12767001E+03  0.26348E+06
 0.12771999E+03  0.24982E+06
 0.12777000E+03  0.22769E+06
 0.12782000E+03  0.20858E+06
 0.12787000E+03  0.19585E+06
 0.12792001E+03  0.18619E+06
 0.12796999E+03  0.16897E+06
 0.12802000E+03  0.13446E+06
 0.12807001E+03  0.83023E+05
 0.12812001E+03  0.25227E+05
 0.12817001E+03 -0.23929E+05
 0.12822000E+03 -0.59085E+05
 0.12827000E+03 -0.87097E+05
 0.12832001E+03 -0.11837E+06
 0.12837001E+03 -0.15462E+06
 0.12842001E+03 -0.18833E+06
 0.12847000E+03 -0.21090E+06
 0.12852000E+03 -0.21689E+06
 0.12857001E+03 -0.21164E+06
 0.12862001E+03 -0.20749E+06
 0.12867001E+03 -0.21048E+06
 0.12872000E+03 -0.21786E+06
 0.12877000E+03 -0.22754E+06
 0.12882001E+03 -0.23881E+06
 0.12887001E+03 -0.24268E+06
 0.12892001E+03 -0.23104E+06
 0.12897000E+03 -0.20657E+06
 0.12902000E+03 -0.17507E+06
 0.12907001E+03 -0.13945E+06
 0.12912001E+03 -0.95493E+05
 0.12917001E+03 -0.36701E+05
 0.12922000E+03  0.34942E+05
 0.12927000E+03  0.11276E+06
 0.12932001E+03  0.19337E+06
 0.12937001E+03  0.27459E+06
 0.12942001E+03  0.35345E+06
 0.12947000E+03  0.42866E+06
 0.12952000E+03  0.50000E+06
 0.12957001E+03  0.56263E+06
 0.12962001E+03  0.61028E+06
 0.12967001E+03  0.64552E+06
 0.12972000E+03  0.66907E+06
 0.12977000E+03  0.67583E+06
 0.12982001E+03  0.66559E+06
 0.12987001E+03  0.64411E+06
 0.12992001E+03  0.62088E+06
 0.12997000E+03  0.59718E+06
 0.13002000E+03  0.56501E+06
 0.13007001E+03  0.52137E+06
 0.13012001E+03  0.47152E+06
 0.13017001E+03  0.41948E+06
 0.13022000E+03  0.36502E+06
 0.13027000E+03  0.30972E+06
 0.13032001E+03  0.25628E+06
 0.13037001E+03  0.20805E+06
 0.13042001E+03  0.16477E+06
 0.13047000E+03  0.12077E+06
 0.13052000E+03  0.71967E+05
 0.13057001E+03  0.19014E+05
 0.13062001E+03 -0.35815E+05
 0.13067001E+03 -0.90811E+05
 0.13072000E+03 -0.14137E+06
 0.13077000E+03 -0.18531E+06
 0.13082001E+03 -0.22298E+06
 0.13087001E+03 -0.25556E+06
 0.13092001E+03 -0.28318E+06
 0.13097000E+03 -0.29860E+06
 0.13102000E+03 -0.30260E+06
 0.13107001E+03 -0.30682E+06
 0.13112001E+03 -0.31900E+06
 0.13117001E+03 -0.33841E+06
 0.13122000E+03 -0.35758E+06
 0.13127000E+03 -0.36997E+06
 0.13132001E+03 -0.37084E+06
 0.13137001E+03 -0.36116E+06
 0.13142001E+03 -0.35070E+06
 0.13147000E+03 -0.34613E+06
 0.13152000E+03 -0.34647E+06
 0.13157001E+03 -0.34507E+06
 0.13162001E+03 -0.33913E+06
 0.13167001E+03 -0.33458E+06
 0.13172000E+03 -0.33425E+06
 0.13177000E+03 -0.33786E+06
 0.13182001E+03 -0.34436E+06
 0.13187001E+03 -0.34843E+06
 0.13192001E+03 -0.34283E+06
 0.13197000E+03 -0.32577E+06
 0.13202000E+03 -0.30381E+06
 0.13207001E+03 -0.28028E+06
 0.13212001E+03 -0.25603E+06
 0.13217001E+03 -0.23352E+06
 0.13222000E+03 -0.21205E+06
 0.13227000E+03 -0.19364E+06
 0.13232001E+03 -0.17920E+06
 0.13237001E+03 -0.16366E+06
 0.13242001E+03 -0.14624E+06
 0.13247000E+03 -0.13048E+06
 0.13252000E+03 -0.11708E+06
 0.13257001E+03 -0.10632E+06
 0.13262001E+03 -0.97895E+05
 0.13267001E+03 -0.84826E+05
 0.13272000E+03 -0.59239E+05
 0.13277000E+03 -0.20330E+05
 0.13282001E+03  0.31108E+05
 0.13287001E+03  0.93932E+05
 0.13292001E+03  0.16090E+06
 0.13297000E+03  0.22291E+06
 0.13302000E+03  0.27509E+06
 0.13307001E+03  0.31522E+06
 0.13312001E+03  0.34278E+06
 0.13317001E+03  0.36008E+06
 0.13322000E+03  0.37099E+06
 0.13327000E+03  0.37610E+06
 0.13332001E+03  0.37164E+06
 0.13337001E+03  0.35468E+06
 0.13342001E+03  0.32612E+06
 0.13347000E+03  0.29090E+06
 0.13352000E+03  0.25277E+06
 0.13357001E+03  0.21014E+06
 0.13362001E+03  0.16210E+06
 0.13367001E+03  0.11411E+06
 0.13372000E+03  0.76887E+05
 0.13377000E+03  0.55209E+05
 0.13382001E+03  0.38983E+05
 0.13387001E+03  0.17790E+05
 0.13392001E+03 -0.81740E+04
 0.13397000E+03 -0.39473E+05
 0.13402000E+03 -0.78502E+05
 0.13407001E+03 -0.12134E+06
 0.13412001E+03 -0.16310E+06
 0.13417001E+03 -0.20538E+06
 0.13422000E+03 -0.24851E+06
 0.13427000E+03 -0.28769E+06
 0.13432001E+03 -0.32157E+06
 0.13437001E+03 -0.35258E+06
 0.13442001E+03 -0.38053E+06
 0.13447000E+03 -0.40167E+06
 0.13452000E+03 -0.41722E+06
 0.13457001E+03 -0.42930E+06
 0.13462001E+03 -0.43157E+06
 0.13467001E+03 -0.42028E+06
 0.13472000E+03 -0.39668E+06
 0.13477000E+03 -0.36416E+06
 0.13482001E+03 -0.32934E+06
 0.13487001E+03 -0.29812E+06
 0.13492001E+03 -0.27090E+06
 0.13497000E+03 -0.24061E+06
 0.13502000E+03 -0.19984E+06
 0.13507001E+03 -0.14548E+06
 0.13512001E+03 -0.87119E+05
 0.13517001E+03 -0.42552E+05
 0.13522000E+03 -0.15668E+05
 0.13527000E+03  0.37630E+04
 0.13532001E+03  0.24572E+05
 0.13537001E+03  0.49664E+05
 0.13542001E+03  0.79666E+05
 0.13547000E+03  0.11022E+06
 0.13552000E+03  0.13378E+06
 0.13557001E+03  0.14802E+06
 0.13562001E+03  0.15739E+06
 0.13567001E+03  0.17052E+06
 0.13572000E+03  0.18962E+06
 0.13577000E+03  0.20784E+06
 0.13582001E+03  0.22284E+06
 0.13587001E+03  0.23780E+06
 0.13592001E+03  0.25288E+06
 0.13597000E+03  0.26398E+06
 0.13602000E+03  0.26486E+06
 0.13607001E+03  0.25342E+06
 0.13612001E+03  0.23324E+06
 0.13617001E+03  0.20584E+06
 0.13622000E+03  0.17299E+06
 0.13627000E+03  0.13937E+06
 0.13632001E+03  0.11066E+06
 0.13637001E+03  0.91321E+05
 0.13642001E+03  0.77980E+05
 0.13647000E+03  0.62147E+05
 0.13652000E+03  0.37553E+05
 0.13657001E+03  0.40200E+04
 0.13662001E+03 -0.35261E+05
 0.13667001E+03 -0.75169E+05
 0.13672000E+03 -0.11233E+06
 0.13677000E+03 -0.14909E+06
 0.13682001E+03 -0.18289E+06
 0.13687001E+03 -0.20599E+06
 0.13692001E+03 -0.21198E+06
 0.13697000E+03 -0.19995E+06
 0.13702000E+03 -0.17587E+06
 0.13707001E+03 -0.14904E+06
 0.13712001E+03 -0.12948E+06
 0.13717001E+03 -0.12425E+06
 0.13722000E+03 -0.13627E+06
 0.13727000E+03 -0.15721E+06
 0.13732001E+03 -0.17663E+06
 0.13737001E+03 -0.19050E+06
 0.13742001E+03 -0.19125E+06
 0.13747000E+03 -0.17737E+06
 0.13752000E+03 -0.15894E+06
 0.13757001E+03 -0.14808E+06
 0.13762001E+03 -0.14952E+06
 0.13767001E+03 -0.15939E+06
 0.13772000E+03 -0.17272E+06
 0.13777000E+03 -0.18701E+06
 0.13782001E+03 -0.20185E+06
 0.13787001E+03 -0.21283E+06
 0.13792001E+03 -0.21715E+06
 0.13797000E+03 -0.21927E+06
 0.13802000E+03 -0.22096E+06
 0.13807001E+03 -0.22005E+06
 0.13812001E+03 -0.21652E+06
 0.13817001E+03 -0.21268E+06
 0.13822000E+03 -0.20886E+06
 0.13827000E+03 -0.20216E+06
 0.13832001E+03 -0.18920E+06
 0.13837001E+03 -0.17070E+06
 0.13842001E+03 -0.15018E+06
 0.13847000E+03 -0.12882E+06
 0.13852000E+03 -0.10527E+06
 0.13857001E+03 -0.75093E+05
 0.13862001E+03 -0.36614E+05
 0.13867001E+03  0.70210E+04
 0.13872000E+03  0.53036E+05
 0.13877000E+03  0.99065E+05
 0.13882001E+03  0.14560E+06
 0.13887001E+03  0.19574E+06
 0.13892001E+03  0.25291E+06
 0.13897000E+03  0.31498E+06
 0.13902000E+03  0.37129E+06
 0.13907001E+03  0.41395E+06
 0.13912001E+03  0.44277E+06
 0.13917001E+03  0.46176E+06
 0.13922000E+03  0.47755E+06
 0.13927000E+03  0.49396E+06
 0.13932001E+03  0.50804E+06
 0.13937001E+03  0.51771E+06
 0.13942001E+03  0.52278E+06
 0.13947000E+03  0.52244E+06
 0.13952000E+03  0.52108E+06
 0.13957001E+03  0.51975E+06
 0.13962001E+03  0.51445E+06
 0.13967001E+03  0.50335E+06
 0.13972000E+03  0.48451E+06
 0.13977000E+03  0.46170E+06
 0.13982001E+03  0.44068E+06
 0.13987001E+03  0.42291E+06
 0.13992001E+03  0.40890E+06
 0.13997000E+03  0.39730E+06
 0.14002000E+03  0.38437E+06
 0.14007001E+03  0.36344E+06
 0.14012001E+03  0.33096E+06
 0.14017001E+03  0.28957E+06
 0.14022000E+03  0.24446E+06
 0.14027000E+03  0.20267E+06
 0.14032001E+03  0.16668E+06
 0.14037001E+03  0.13126E+06
 0.14042001E+03  0.90184E+05
 0.14047000E+03  0.42580E+05
 0.14052000E+03 -0.45970E+04
 0.14057001E+03 -0.42971E+05
 0.14062001E+03 -0.72700E+05
 0.14067001E+03 -0.99930E+05
 0.14072000E+03 -0.12989E+06
 0.14077000E+03 -0.16360E+06
 0.14082001E+03 -0.19865E+06
 0.14087001E+03 -0.22816E+06
 0.14092001E+03 -0.24573E+06
 0.14097000E+03 -0.25551E+06
 0.14102000E+03 -0.26286E+06
 0.14107001E+03 -0.26931E+06
 0.14112001E+03 -0.27815E+06
 0.14117001E+03 -0.29245E+06
 0.14122000E+03 -0.30927E+06
 0.14127000E+03 -0.32208E+06
 0.14132001E+03 -0.32990E+06
 0.14137001E+03 -0.33166E+06
 0.14142001E+03 -0.32468E+06
 0.14147000E+03 -0.31008E+06
 0.14152000E+03 -0.29146E+06
 0.14157001E+03 -0.27457E+06
 0.14162001E+03 -0.26163E+06
 0.14167001E+03 -0.25208E+06
 0.14172000E+03 -0.24624E+06
 0.14177000E+03 -0.24255E+06
 0.14182001E+03 -0.24045E+06
 0.14187001E+03 -0.23828E+06
 0.14192001E+03 -0.23189E+06
 0.14197000E+03 -0.21543E+06
 0.14202000E+03 -0.18546E+06
 0.14207001E+03 -0.14924E+06
 0.14212001E+03 -0.11499E+06
 0.14217001E+03 -0.85617E+05
 0.14222000E+03 -0.63570E+05
 0.14227000E+03 -0.46773E+05
 0.14232001E+03 -0.31981E+05
 0.14237001E+03 -0.20162E+05
 0.14242001E+03 -0.11109E+05
 0.14247000E+03 -0.52220E+04
 0.14252000E+03 -0.43330E+04
 0.14257001E+03 -0.87610E+04
 0.14262001E+03 -0.20883E+05
 0.14267001E+03 -0.42398E+05
 0.14272000E+03 -0.73075E+05
 0.14277000E+03 -0.11148E+06
 0.14282001E+03 -0.15032E+06
 0.14287001E+03 -0.18340E+06
 0.14292001E+03 -0.21156E+06
 0.14297000E+03 -0.23525E+06
 0.14302000E+03 -0.25260E+06
 0.14307001E+03 -0.26306E+06
 0.14312001E+03 -0.26871E+06
 0.14317001E+03 -0.27265E+06
 0.14322000E+03 -0.27580E+06
 0.14327000E+03 -0.27615E+06
 0.14332001E+03 -0.26983E+06
 0.14337001E+03 -0.25254E+06
 0.14342001E+03 -0.22427E+06
 0.14347000E+03 -0.19126E+06
 0.14352000E+03 -0.15937E+06
 0.14357001E+03 -0.12996E+06
 0.14362001E+03 -0.10174E+06
 0.14367001E+03 -0.72925E+05
 0.14372000E+03 -0.42775E+05
 0.14377000E+03 -0.13680E+05
 0.14382001E+03  0.13238E+05
 0.14387001E+03  0.41465E+05
 0.14392001E+03  0.71413E+05
 0.14397000E+03  0.10018E+06
 0.14402000E+03  0.12646E+06
 0.14407001E+03  0.14721E+06
 0.14412001E+03  0.16132E+06
 0.14417001E+03  0.17294E+06
 0.14422000E+03  0.18456E+06
 0.14427000E+03  0.19629E+06
 0.14432001E+03  0.20812E+06
 0.14437001E+03  0.21915E+06
 0.14442001E+03  0.22743E+06
 0.14447000E+03  0.23286E+06
 0.14452000E+03  0.24092E+06
 0.14457001E+03  0.25616E+06
 0.14462001E+03  0.27525E+06
 0.14467001E+03  0.29235E+06
 0.14472000E+03  0.30419E+06
 0.14477000E+03  0.31022E+06
 0.14482001E+03  0.31150E+06
 0.14487001E+03  0.30831E+06
 0.14492001E+03  0.30374E+06
 0.14497000E+03  0.29952E+06
 0.14502000E+03  0.29020E+06
 0.14507001E+03  0.27256E+06
 0.14512001E+03  0.24780E+06
 0.14517001E+03  0.22010E+06
 0.14522000E+03  0.19605E+06
 0.14527000E+03  0.17877E+06
 0.14532001E+03  0.16974E+06
 0.14537001E+03  0.16970E+06
 0.14542001E+03  0.17535E+06
 0.14547000E+03  0.18122E+06
 0.14552000E+03  0.18696E+06
 0.14557001E+03  0.19644E+06
 0.14562001E+03  0.20591E+06
 0.14567001E+03  0.20955E+06
 0.14572000E+03  0.20889E+06
 0.14577000E+03  0.20272E+06
 0.14582001E+03  0.18947E+06
 0.14587001E+03  0.17436E+06
 0.14592001E+03  0.16266E+06
 0.14597000E+03  0.15670E+06
 0.14602000E+03  0.15372E+06
 0.14607001E+03  0.14696E+06
 0.14612001E+03  0.13319E+06
 0.14617001E+03  0.11490E+06
 0.14622000E+03  0.95523E+05
 0.14627000E+03  0.76288E+05
 0.14632001E+03  0.56961E+05
 0.14637001E+03  0.36392E+05
 0.14642001E+03  0.11401E+05
 0.14647000E+03 -0.17794E+05
 0.14652000E+03 -0.42957E+05
 0.14657001E+03 -0.60171E+05
 0.14662001E+03 -0.74172E+05
 0.14667001E+03 -0.90054E+05
 0.14672000E+03 -0.11077E+06
 0.14677000E+03 -0.13555E+06
 0.14682001E+03 -0.15814E+06
 0.14687001E+03 -0.16944E+06
 0.14692001E+03 -0.16797E+06
 0.14697000E+03 -0.16136E+06
 0.14702000E+03 -0.15824E+06
 0.14707001E+03 -0.16085E+06
 0.14712001E+03 -0.16092E+06
 0.14717001E+03 -0.14955E+06
 0.14722000E+03 -0.12555E+06
 0.14727000E+03 -0.96470E+05
 0.14732001E+03 -0.72730E+05
 0.14737001E+03 -0.59485E+05
 0.14742001E+03 -0.55295E+05
 0.14747000E+03 -0.51410E+05
 0.14752000E+03 -0.40479E+05
 0.14757001E+03 -0.23373E+05
 0.14762001E+03 -0.41480E+04
 0.14767001E+03  0.13446E+05
 0.14772000E+03  0.29520E+05
 0.14777000E+03  0.49260E+05
 0.14782001E+03  0.76398E+05
 0.14787001E+03  0.10880E+06
 0.14792001E+03  0.14140E+06
 0.14797000E+03  0.17099E+06
 0.14802000E+03  0.19493E+06
 0.14807001E+03  0.21056E+06
 0.14812001E+03  0.22032E+06
 0.14817001E+03  0.22854E+06
 0.14822000E+03  0.23545E+06
 0.14827000E+03  0.23862E+06
 0.14832001E+03  0.23383E+06
 0.14837001E+03  0.21414E+06
 0.14842001E+03  0.17826E+06
 0.14847000E+03  0.13414E+06
 0.14852000E+03  0.89687E+05
 0.14857001E+03  0.45957E+05
 0.14862001E+03  0.22760E+04
 0.14867001E+03 -0.36616E+05
 0.14872000E+03 -0.70126E+05
 0.14877000E+03 -0.10098E+06
 0.14882001E+03 -0.13037E+06
 0.14887001E+03 -0.16341E+06
 0.14892001E+03 -0.20234E+06
 0.14897000E+03 -0.24242E+06
 0.14902000E+03 -0.27681E+06
 0.14907001E+03 -0.30085E+06
 0.14912001E+03 -0.31307E+06
 0.14917001E+03 -0.31773E+06
 0.14922000E+03 -0.32511E+06
 0.14927000E+03 -0.33981E+06
 0.14932001E+03 -0.35680E+06
 0.14937001E+03 -0.36754E+06
 0.14942001E+03 -0.36716E+06
 0.14947000E+03 -0.35713E+06
 0.14952000E+03 -0.34073E+06
 0.14957001E+03 -0.32303E+06
 0.14962001E+03 -0.30559E+06
 0.14967001E+03 -0.28231E+06
 0.14972000E+03 -0.24742E+06
 0.14977000E+03 -0.20098E+06
 0.14982001E+03 -0.14703E+06
 0.14987001E+03 -0.86802E+05
 0.14992001E+03 -0.20741E+05
 0.14997000E+03  0.46927E+05
