-0.29800000E+01  0.31287E+05
-0.29300001E+01  0.23988E+05
-0.28800001E+01  0.19944E+05
-0.28299999E+01  0.18388E+05
-0.27800000E+01  0.15027E+05
-0.27300000E+01  0.13845E+05
-0.26800001E+01  0.15099E+05
-0.26300001E+01  0.15739E+05
-0.25799999E+01  0.17181E+05
-0.25300000E+01  0.17729E+05
-0.24800000E+01  0.16437E+05
-0.24300001E+01  0.15221E+05
-0.23800001E+01  0.16529E+05
-0.23299999E+01  0.18483E+05
-0.22800000E+01  0.16836E+05
-0.22300000E+01  0.17228E+05
-0.21800001E+01  0.22537E+05
-0.21300001E+01  0.29221E+05
-0.20799999E+01  0.33516E+05
-0.20300000E+01  0.32397E+05
-0.19800000E+01  0.29920E+05
-0.19299999E+01  0.29999E+05
-0.18800000E+01  0.33592E+05
-0.18300000E+01  0.39270E+05
-0.17800000E+01  0.44093E+05
-0.17300000E+01  0.46876E+05
-0.16799999E+01  0.50095E+05
-0.16300000E+01  0.56327E+05
-0.15800000E+01  0.63484E+05
-0.15300000E+01  0.67626E+05
-0.14800000E+01  0.66408E+05
-0.14299999E+01  0.63752E+05
-0.13800000E+01  0.64995E+05
-0.13300000E+01  0.67254E+05
-0.12800000E+01  0.68148E+05
-0.12300000E+01  0.70512E+05
-0.11799999E+01  0.70621E+05
-0.11300000E+01  0.68527E+05
-0.10800000E+01  0.67298E+05
-0.10300000E+01  0.65569E+05
-0.98000002E+00  0.66570E+05
-0.93000007E+00  0.66018E+05
-0.87999988E+00  0.60542E+05
-0.82999992E+00  0.52615E+05
-0.77999997E+00  0.40918E+05
-0.73000002E+00  0.28165E+05
-0.68000007E+00  0.14741E+05
-0.62999988E+00  0.17750E+04
-0.57999992E+00 -0.10205E+05
-0.52999997E+00 -0.22295E+05
-0.48000002E+00 -0.30329E+05
-0.43000007E+00 -0.36016E+05
-0.37999988E+00 -0.43225E+05
-0.32999992E+00 -0.50912E+05
-0.27999997E+00 -0.58623E+05
-0.23000002E+00 -0.67317E+05
-0.18000007E+00 -0.75236E+05
-0.12999988E+00 -0.80169E+05
-0.79999924E-01 -0.80169E+05
-0.29999971E-01 -0.75805E+05
 0.19999981E-01 -0.70247E+05
 0.69999933E-01 -0.62050E+05
 0.12000012E+00 -0.50405E+05
 0.17000008E+00 -0.37996E+05
 0.22000003E+00 -0.27826E+05
 0.26999998E+00 -0.21351E+05
 0.31999993E+00 -0.17191E+05
 0.37000012E+00 -0.12409E+05
 0.42000008E+00 -0.65680E+04
 0.47000003E+00 -0.15700E+04
 0.51999998E+00 -0.90000E+03
 0.56999993E+00 -0.49490E+04
 0.62000012E+00 -0.81230E+04
 0.67000008E+00 -0.81080E+04
 0.72000003E+00 -0.71090E+04
 0.76999998E+00 -0.91620E+04
 0.81999993E+00 -0.11779E+05
 0.87000012E+00 -0.10000E+05
 0.92000008E+00 -0.45940E+04
 0.97000003E+00  0.10900E+04
 0.10200000E+01  0.15480E+04
 0.10700002E+01  0.26200E+03
 0.11199999E+01  0.36370E+04
 0.11700001E+01  0.90470E+04
 0.12200003E+01  0.14528E+05
 0.12700000E+01  0.19363E+05
 0.13200002E+01  0.22440E+05
 0.13699999E+01  0.26859E+05
 0.14200001E+01  0.33300E+05
 0.14700003E+01  0.38812E+05
 0.15200000E+01  0.40107E+05
 0.15700002E+01  0.35310E+05
 0.16199999E+01  0.30584E+05
 0.16700001E+01  0.28998E+05
 0.17200003E+01  0.27078E+05
 0.17700000E+01  0.24659E+05
 0.18200002E+01  0.21736E+05
 0.18699999E+01  0.21850E+05
 0.19200001E+01  0.21821E+05
 0.19700003E+01  0.15939E+05
 0.20200000E+01  0.70480E+04
 0.20700002E+01 -0.44250E+04
 0.21199999E+01 -0.13568E+05
 0.21700001E+01 -0.20742E+05
 0.22200003E+01 -0.28207E+05
 0.22700000E+01 -0.32674E+05
 0.23200002E+01 -0.34587E+05
 0.23699999E+01 -0.36262E+05
 0.24200001E+01 -0.41437E+05
 0.24700003E+01 -0.47271E+05
 0.25200000E+01 -0.50061E+05
 0.25700002E+01 -0.50141E+05
 0.26199999E+01 -0.51975E+05
 0.26700001E+01 -0.55545E+05
 0.27200003E+01 -0.56350E+05
 0.27700000E+01 -0.56113E+05
 0.28200002E+01 -0.54565E+05
 0.28699999E+01 -0.54096E+05
 0.29200001E+01 -0.56418E+05
 0.29700003E+01 -0.58861E+05
 0.30200000E+01 -0.61021E+05
 0.30700002E+01 -0.62090E+05
 0.31199999E+01 -0.62989E+05
 0.31700001E+01 -0.63699E+05
 0.32200003E+01 -0.61051E+05
 0.32700000E+01 -0.54140E+05
 0.33200002E+01 -0.44365E+05
 0.33699999E+01 -0.31745E+05
 0.34200001E+01 -0.17683E+05
 0.34700003E+01 -0.43950E+04
 0.35200000E+01  0.80860E+04
 0.35700002E+01  0.19040E+05
 0.36199999E+01  0.27514E+05
 0.36700001E+01  0.31970E+05
 0.37200003E+01  0.30849E+05
 0.37700000E+01  0.26686E+05
 0.38200002E+01  0.23001E+05
 0.38699999E+01  0.18821E+05
 0.39200001E+01  0.13115E+05
 0.39700003E+01  0.58440E+04
 0.40200000E+01 -0.39490E+04
 0.40700002E+01 -0.14653E+05
 0.41199999E+01 -0.23836E+05
 0.41700001E+01 -0.29068E+05
 0.42200003E+01 -0.29206E+05
 0.42700000E+01 -0.26072E+05
 0.43200002E+01 -0.22699E+05
 0.43699999E+01 -0.19881E+05
 0.44200001E+01 -0.17290E+05
 0.44700003E+01 -0.16104E+05
 0.45200000E+01 -0.17375E+05
 0.45700002E+01 -0.20472E+05
 0.46199999E+01 -0.22752E+05
 0.46700001E+01 -0.25649E+05
 0.47200003E+01 -0.27453E+05
 0.47700000E+01 -0.28565E+05
 0.48200002E+01 -0.31337E+05
 0.48699999E+01 -0.32346E+05
 0.49200001E+01 -0.33446E+05
 0.49700003E+01 -0.34522E+05
 0.50200000E+01 -0.36061E+05
 0.50700002E+01 -0.35879E+05
 0.51200004E+01 -0.30499E+05
 0.51700006E+01 -0.22649E+05
 0.52199998E+01 -0.13028E+05
 0.52700000E+01 -0.31410E+04
 0.53200002E+01  0.62480E+04
 0.53700004E+01  0.15404E+05
 0.54200006E+01  0.25721E+05
 0.54699998E+01  0.38104E+05
 0.55200000E+01  0.49110E+05
 0.55700002E+01  0.57684E+05
 0.56200004E+01  0.65461E+05
 0.56700006E+01  0.70745E+05
 0.57199998E+01  0.71518E+05
 0.57700000E+01  0.68834E+05
 0.58200002E+01  0.66380E+05
 0.58700004E+01  0.65708E+05
 0.59200006E+01  0.63853E+05
 0.59699998E+01  0.59858E+05
 0.60200000E+01  0.54222E+05
 0.60700002E+01  0.46364E+05
 0.61200004E+01  0.39527E+05
 0.61700006E+01  0.36873E+05
 0.62199998E+01  0.34989E+05
 0.62700000E+01  0.31522E+05
 0.63200002E+01  0.28436E+05
 0.63700004E+01  0.25956E+05
 0.64200006E+01  0.23996E+05
 0.64699998E+01  0.23136E+05
 0.65200000E+01  0.22024E+05
 0.65700002E+01  0.20868E+05
 0.66200004E+01  0.21243E+05
 0.66700006E+01  0.21047E+05
 0.67199998E+01  0.19194E+05
 0.67700000E+01  0.17705E+05
 0.68200002E+01  0.14922E+05
 0.68700004E+01  0.90090E+04
 0.69200006E+01  0.27220E+04
 0.69699998E+01 -0.91400E+03
 0.70200000E+01 -0.16930E+04
 0.70700002E+01 -0.10100E+04
 0.71200004E+01  0.51300E+03
 0.71700006E+01  0.24210E+04
 0.72199998E+01  0.23500E+04
 0.72700000E+01  0.10490E+04
 0.73200002E+01  0.13100E+04
 0.73700004E+01  0.33490E+04
 0.74200006E+01  0.80090E+04
 0.74699998E+01  0.12212E+05
 0.75200000E+01  0.14562E+05
 0.75700002E+01  0.17850E+05
 0.76200004E+01  0.18084E+05
 0.76700006E+01  0.14295E+05
 0.77199998E+01  0.10488E+05
 0.77700000E+01  0.65710E+04
 0.78200002E+01  0.12200E+04
 0.78700004E+01 -0.58110E+04
 0.79200006E+01 -0.12536E+05
 0.79699998E+01 -0.19224E+05
 0.80200005E+01 -0.26501E+05
 0.80699997E+01 -0.32007E+05
 0.81200008E+01 -0.36911E+05
 0.81700001E+01 -0.42326E+05
 0.82199993E+01 -0.47238E+05
 0.82700005E+01 -0.50808E+05
 0.83199997E+01 -0.52693E+05
 0.83700008E+01 -0.55194E+05
 0.84200001E+01 -0.57858E+05
 0.84699993E+01 -0.58498E+05
 0.85200005E+01 -0.56547E+05
 0.85699997E+01 -0.54900E+05
 0.86200008E+01 -0.57400E+05
 0.86700001E+01 -0.60320E+05
 0.87199993E+01 -0.61224E+05
 0.87700005E+01 -0.61803E+05
 0.88199997E+01 -0.64677E+05
 0.88700008E+01 -0.71410E+05
 0.89200001E+01 -0.77212E+05
 0.89699993E+01 -0.78650E+05
 0.90200005E+01 -0.76495E+05
 0.90699997E+01 -0.71047E+05
 0.91200008E+01 -0.64718E+05
 0.91700001E+01 -0.59991E+05
 0.92199993E+01 -0.56027E+05
 0.92700005E+01 -0.52584E+05
 0.93199997E+01 -0.50620E+05
 0.93700008E+01 -0.50059E+05
 0.94200001E+01 -0.49435E+05
 0.94699993E+01 -0.47918E+05
 0.95200005E+01 -0.46216E+05
 0.95699997E+01 -0.46386E+05
 0.96200008E+01 -0.45389E+05
 0.96700001E+01 -0.40693E+05
 0.97199993E+01 -0.33938E+05
 0.97700005E+01 -0.24675E+05
 0.98199997E+01 -0.17683E+05
 0.98700008E+01 -0.12150E+05
 0.99200001E+01 -0.48030E+04
 0.99699993E+01  0.13200E+04
 0.10020000E+02  0.75180E+04
 0.10070000E+02  0.12375E+05
 0.10120001E+02  0.13408E+05
 0.10170000E+02  0.13414E+05
 0.10219999E+02  0.16067E+05
 0.10270000E+02  0.23175E+05
 0.10320000E+02  0.33390E+05
 0.10370001E+02  0.42776E+05
 0.10420000E+02  0.49458E+05
 0.10469999E+02  0.58650E+05
 0.10520000E+02  0.69289E+05
 0.10570000E+02  0.74985E+05
 0.10620001E+02  0.77128E+05
 0.10670000E+02  0.75840E+05
 0.10719999E+02  0.72977E+05
 0.10770000E+02  0.69572E+05
 0.10820000E+02  0.64218E+05
 0.10870001E+02  0.60375E+05
 0.10920000E+02  0.58078E+05
 0.10969999E+02  0.54943E+05
 0.11020000E+02  0.50124E+05
 0.11070000E+02  0.46078E+05
 0.11120001E+02  0.44345E+05
 0.11170000E+02  0.41849E+05
 0.11219999E+02  0.38256E+05
 0.11270000E+02  0.36986E+05
 0.11320000E+02  0.37082E+05
 0.11370001E+02  0.35778E+05
 0.11420000E+02  0.33953E+05
 0.11469999E+02  0.30972E+05
 0.11520000E+02  0.26916E+05
 0.11570000E+02  0.23363E+05
 0.11620001E+02  0.21248E+05
 0.11670000E+02  0.19467E+05
 0.11719999E+02  0.16719E+05
 0.11770000E+02  0.13201E+05
 0.11820000E+02  0.70240E+04
 0.11870001E+02 -0.19160E+04
 0.11920000E+02 -0.12892E+05
 0.11969999E+02 -0.24483E+05
 0.12020000E+02 -0.35703E+05
 0.12070000E+02 -0.47448E+05
 0.12120001E+02 -0.56366E+05
 0.12170000E+02 -0.60971E+05
 0.12219999E+02 -0.64082E+05
 0.12270000E+02 -0.66189E+05
 0.12320000E+02 -0.67396E+05
 0.12370001E+02 -0.68071E+05
 0.12420000E+02 -0.66863E+05
 0.12469999E+02 -0.64279E+05
 0.12520000E+02 -0.60099E+05
 0.12570000E+02 -0.57126E+05
 0.12620001E+02 -0.60131E+05
 0.12670000E+02 -0.65584E+05
 0.12719999E+02 -0.68877E+05
 0.12770000E+02 -0.69051E+05
 0.12820000E+02 -0.67171E+05
 0.12870001E+02 -0.63635E+05
 0.12920000E+02 -0.60584E+05
 0.12969999E+02 -0.59286E+05
 0.13020000E+02 -0.55555E+05
 0.13070002E+02 -0.47710E+05
 0.13120001E+02 -0.37378E+05
 0.13170000E+02 -0.26287E+05
 0.13220001E+02 -0.13505E+05
 0.13270000E+02  0.17370E+04
 0.13320002E+02  0.15728E+05
 0.13370001E+02  0.26726E+05
 0.13420000E+02  0.35538E+05
 0.13470001E+02  0.42444E+05
 0.13520000E+02  0.48863E+05
 0.13570002E+02  0.55575E+05
 0.13620001E+02  0.62585E+05
 0.13670000E+02  0.69029E+05
 0.13720001E+02  0.75096E+05
 0.13770000E+02  0.80694E+05
 0.13820002E+02  0.85573E+05
 0.13870001E+02  0.91487E+05
 0.13920000E+02  0.96126E+05
 0.13970001E+02  0.98277E+05
 0.14020000E+02  0.99733E+05
 0.14070002E+02  0.10077E+06
 0.14120001E+02  0.10172E+06
 0.14170000E+02  0.10147E+06
 0.14220001E+02  0.99085E+05
 0.14270000E+02  0.93701E+05
 0.14320002E+02  0.83520E+05
 0.14370001E+02  0.73099E+05
 0.14420000E+02  0.65092E+05
 0.14470001E+02  0.56667E+05
 0.14520000E+02  0.49009E+05
 0.14570002E+02  0.41178E+05
 0.14620001E+02  0.33671E+05
 0.14670000E+02  0.27405E+05
 0.14720001E+02  0.21708E+05
 0.14770000E+02  0.17557E+05
 0.14820002E+02  0.13297E+05
 0.14870001E+02  0.99610E+04
 0.14920000E+02  0.85630E+04
 0.14970001E+02  0.63950E+04
 0.15020000E+02  0.34140E+04
 0.15070002E+02  0.18300E+04
 0.15120001E+02  0.20900E+03
 0.15170000E+02 -0.13120E+04
 0.15220001E+02 -0.22030E+04
 0.15270000E+02 -0.68700E+04
 0.15320002E+02 -0.15247E+05
 0.15370001E+02 -0.21896E+05
 0.15420000E+02 -0.25140E+05
 0.15470001E+02 -0.25719E+05
 0.15520000E+02 -0.24807E+05
 0.15570002E+02 -0.25384E+05
 0.15620001E+02 -0.24165E+05
 0.15670000E+02 -0.22403E+05
 0.15720001E+02 -0.25208E+05
 0.15770000E+02 -0.28511E+05
 0.15820002E+02 -0.30367E+05
 0.15870001E+02 -0.30950E+05
 0.15920000E+02 -0.31636E+05
 0.15970001E+02 -0.34322E+05
 0.16020000E+02 -0.35424E+05
 0.16070002E+02 -0.32669E+05
 0.16120001E+02 -0.29973E+05
 0.16170000E+02 -0.30133E+05
 0.16220001E+02 -0.32736E+05
 0.16270000E+02 -0.34932E+05
 0.16320002E+02 -0.33643E+05
 0.16370001E+02 -0.32182E+05
 0.16420000E+02 -0.31506E+05
 0.16470001E+02 -0.30491E+05
 0.16520000E+02 -0.30029E+05
 0.16570002E+02 -0.28038E+05
 0.16620001E+02 -0.26433E+05
 0.16670000E+02 -0.27934E+05
 0.16720001E+02 -0.32228E+05
 0.16770000E+02 -0.38730E+05
 0.16820002E+02 -0.44854E+05
 0.16870001E+02 -0.51119E+05
 0.16920000E+02 -0.59115E+05
 0.16970001E+02 -0.66163E+05
 0.17020000E+02 -0.71348E+05
 0.17070002E+02 -0.77003E+05
 0.17120001E+02 -0.82907E+05
 0.17170000E+02 -0.85234E+05
 0.17220001E+02 -0.80030E+05
 0.17270000E+02 -0.69447E+05
 0.17320002E+02 -0.57254E+05
 0.17370001E+02 -0.45565E+05
 0.17420000E+02 -0.38133E+05
 0.17470001E+02 -0.34018E+05
 0.17520000E+02 -0.30565E+05
 0.17570002E+02 -0.26799E+05
 0.17620001E+02 -0.21388E+05
 0.17670000E+02 -0.14978E+05
 0.17720001E+02 -0.94980E+04
 0.17770000E+02 -0.56380E+04
 0.17820002E+02 -0.40400E+04
 0.17870001E+02 -0.67020E+04
 0.17920000E+02 -0.13075E+05
 0.17970001E+02 -0.20084E+05
 0.18020000E+02 -0.26166E+05
 0.18070002E+02 -0.31770E+05
 0.18120001E+02 -0.35679E+05
 0.18170000E+02 -0.37404E+05
 0.18220001E+02 -0.39877E+05
 0.18270000E+02 -0.44101E+05
 0.18320002E+02 -0.48308E+05
 0.18370001E+02 -0.51627E+05
 0.18420000E+02 -0.53277E+05
 0.18470001E+02 -0.51547E+05
 0.18520000E+02 -0.47230E+05
 0.18570002E+02 -0.42219E+05
 0.18620001E+02 -0.37764E+05
 0.18670000E+02 -0.32987E+05
 0.18720001E+02 -0.27420E+05
 0.18770000E+02 -0.22367E+05
 0.18820002E+02 -0.16684E+05
 0.18870001E+02 -0.11470E+05
 0.18920000E+02 -0.69240E+04
 0.18970001E+02 -0.27120E+04
 0.19020000E+02 -0.49000E+02
 0.19070002E+02  0.30250E+04
 0.19120001E+02  0.62160E+04
 0.19170000E+02  0.11286E+05
 0.19220001E+02  0.20519E+05
 0.19270000E+02  0.28882E+05
 0.19320002E+02  0.33344E+05
 0.19370001E+02  0.35004E+05
 0.19420000E+02  0.34315E+05
 0.19470001E+02  0.32696E+05
 0.19520000E+02  0.32263E+05
 0.19570002E+02  0.33142E+05
 0.19620001E+02  0.34265E+05
 0.19670000E+02  0.36396E+05
 0.19720001E+02  0.38435E+05
 0.19770000E+02  0.39571E+05
 0.19820002E+02  0.40211E+05
 0.19870001E+02  0.36865E+05
 0.19920000E+02  0.30532E+05
 0.19970001E+02  0.25388E+05
 0.20020000E+02  0.21895E+05
 0.20070002E+02  0.19781E+05
 0.20120001E+02  0.17906E+05
 0.20170000E+02  0.15153E+05
 0.20220001E+02  0.12318E+05
 0.20270000E+02  0.89220E+04
 0.20320002E+02  0.38420E+04
 0.20370001E+02 -0.16900E+03
 0.20420000E+02 -0.23780E+04
 0.20470001E+02 -0.54220E+04
 0.20520000E+02 -0.89040E+04
 0.20570002E+02 -0.13267E+05
 0.20620001E+02 -0.18862E+05
 0.20670000E+02 -0.25040E+05
 0.20720001E+02 -0.30758E+05
 0.20770000E+02 -0.33385E+05
 0.20820002E+02 -0.33866E+05
 0.20870001E+02 -0.32274E+05
 0.20920000E+02 -0.28995E+05
 0.20970001E+02 -0.25381E+05
 0.21020000E+02 -0.20879E+05
 0.21070002E+02 -0.16921E+05
 0.21120001E+02 -0.12168E+05
 0.21170000E+02 -0.45720E+04
 0.21220001E+02  0.38880E+04
 0.21270000E+02  0.10450E+05
 0.21320002E+02  0.16649E+05
 0.21370001E+02  0.23379E+05
 0.21420000E+02  0.26609E+05
 0.21470001E+02  0.27954E+05
 0.21520000E+02  0.29133E+05
 0.21570002E+02  0.30567E+05
 0.21620001E+02  0.36469E+05
 0.21670000E+02  0.44521E+05
 0.21720001E+02  0.49071E+05
 0.21770000E+02  0.50552E+05
 0.21820002E+02  0.52754E+05
 0.21870001E+02  0.53400E+05
 0.21920000E+02  0.52353E+05
 0.21970001E+02  0.53426E+05
 0.22020000E+02  0.53688E+05
 0.22070002E+02  0.52906E+05
 0.22120001E+02  0.51961E+05
 0.22170000E+02  0.51000E+05
 0.22220001E+02  0.50920E+05
 0.22270000E+02  0.47869E+05
 0.22320002E+02  0.40569E+05
 0.22370001E+02  0.31871E+05
 0.22420000E+02  0.23503E+05
 0.22470001E+02  0.16570E+05
 0.22520000E+02  0.12950E+05
 0.22570002E+02  0.12114E+05
 0.22620001E+02  0.13346E+05
 0.22670000E+02  0.15655E+05
 0.22720001E+02  0.15049E+05
 0.22770000E+02  0.12297E+05
 0.22820002E+02  0.80700E+04
 0.22870001E+02  0.18380E+04
 0.22920000E+02 -0.33070E+04
 0.22970001E+02 -0.70420E+04
 0.23020000E+02 -0.92650E+04
 0.23070002E+02 -0.93930E+04
 0.23120001E+02 -0.93510E+04
 0.23170000E+02 -0.94440E+04
 0.23220001E+02 -0.93440E+04
 0.23270000E+02 -0.10046E+05
 0.23320002E+02 -0.10054E+05
 0.23370001E+02 -0.73370E+04
 0.23420000E+02 -0.42650E+04
 0.23470001E+02 -0.22470E+04
 0.23520000E+02  0.10970E+04
 0.23570002E+02  0.57920E+04
 0.23620001E+02  0.10607E+05
 0.23670000E+02  0.13623E+05
 0.23720001E+02  0.14030E+05
 0.23770000E+02  0.12834E+05
 0.23820002E+02  0.95310E+04
 0.23870001E+02  0.56610E+04
 0.23920000E+02  0.30440E+04
 0.23970001E+02  0.19560E+04
 0.24020000E+02  0.17770E+04
 0.24070002E+02  0.19870E+04
 0.24120001E+02  0.20350E+04
 0.24170000E+02  0.19760E+04
 0.24220001E+02  0.32130E+04
 0.24270000E+02  0.61740E+04
 0.24320002E+02  0.10541E+05
 0.24370001E+02  0.14284E+05
 0.24420000E+02  0.17799E+05
 0.24470001E+02  0.21634E+05
 0.24520000E+02  0.23056E+05
 0.24570002E+02  0.22423E+05
 0.24620001E+02  0.22722E+05
 0.24670000E+02  0.24988E+05
 0.24720001E+02  0.27072E+05
 0.24770000E+02  0.27027E+05
 0.24820002E+02  0.26093E+05
 0.24870001E+02  0.24814E+05
 0.24920000E+02  0.24681E+05
 0.24970001E+02  0.25595E+05
 0.25020000E+02  0.23611E+05
 0.25070002E+02  0.19738E+05
 0.25120001E+02  0.13874E+05
 0.25170000E+02  0.60760E+04
 0.25220001E+02  0.23500E+03
 0.25270000E+02 -0.28500E+04
 0.25320002E+02 -0.37040E+04
 0.25370001E+02 -0.27100E+04
 0.25420000E+02 -0.21770E+04
 0.25470001E+02 -0.38820E+04
 0.25520000E+02 -0.51930E+04
 0.25570002E+02 -0.34530E+04
 0.25620001E+02  0.76400E+03
 0.25670000E+02  0.45030E+04
 0.25720001E+02  0.59790E+04
 0.25770000E+02  0.42830E+04
 0.25820002E+02  0.58500E+03
 0.25870001E+02 -0.39830E+04
 0.25920000E+02 -0.10622E+05
 0.25970001E+02 -0.15637E+05
 0.26020000E+02 -0.18126E+05
 0.26070002E+02 -0.20101E+05
 0.26120001E+02 -0.21152E+05
 0.26170000E+02 -0.22585E+05
 0.26220001E+02 -0.23171E+05
 0.26270000E+02 -0.21782E+05
 0.26320002E+02 -0.21121E+05
 0.26370001E+02 -0.19069E+05
 0.26420000E+02 -0.14214E+05
 0.26470001E+02 -0.13244E+05
 0.26520000E+02 -0.14520E+05
 0.26570002E+02 -0.13147E+05
 0.26620001E+02 -0.10201E+05
 0.26670000E+02 -0.73670E+04
 0.26720001E+02 -0.82500E+04
 0.26770000E+02 -0.10245E+05
 0.26820002E+02 -0.11433E+05
 0.26870001E+02 -0.12252E+05
 0.26920000E+02 -0.11552E+05
 0.26970001E+02 -0.11908E+05
 0.27020000E+02 -0.14093E+05
 0.27070002E+02 -0.18103E+05
 0.27120001E+02 -0.24857E+05
 0.27170000E+02 -0.35138E+05
 0.27220001E+02 -0.46835E+05
 0.27270000E+02 -0.56971E+05
 0.27320002E+02 -0.64718E+05
 0.27370001E+02 -0.69759E+05
 0.27420000E+02 -0.72507E+05
 0.27470001E+02 -0.74277E+05
 0.27520000E+02 -0.76443E+05
 0.27570002E+02 -0.77787E+05
 0.27620001E+02 -0.77528E+05
 0.27670000E+02 -0.75294E+05
 0.27720001E+02 -0.70534E+05
 0.27770000E+02 -0.64230E+05
 0.27820002E+02 -0.58369E+05
 0.27870001E+02 -0.54282E+05
 0.27920000E+02 -0.51683E+05
 0.27970001E+02 -0.50223E+05
 0.28020000E+02 -0.49119E+05
 0.28070002E+02 -0.50417E+05
 0.28120001E+02 -0.55629E+05
 0.28170000E+02 -0.62663E+05
 0.28220001E+02 -0.70520E+05
 0.28270000E+02 -0.76240E+05
 0.28320002E+02 -0.80325E+05
 0.28370001E+02 -0.87074E+05
 0.28420000E+02 -0.92972E+05
 0.28470001E+02 -0.94407E+05
 0.28520000E+02 -0.93696E+05
 0.28570002E+02 -0.93319E+05
 0.28620001E+02 -0.93682E+05
 0.28670000E+02 -0.93465E+05
 0.28720001E+02 -0.94962E+05
 0.28770000E+02 -0.98021E+05
 0.28820002E+02 -0.98282E+05
 0.28870001E+02 -0.97678E+05
 0.28920000E+02 -0.95551E+05
 0.28970001E+02 -0.90359E+05
 0.29020000E+02 -0.85835E+05
 0.29070000E+02 -0.82886E+05
 0.29120003E+02 -0.80688E+05
 0.29170002E+02 -0.75657E+05
 0.29220001E+02 -0.69171E+05
 0.29270000E+02 -0.65103E+05
 0.29320000E+02 -0.60398E+05
 0.29370003E+02 -0.54539E+05
 0.29420002E+02 -0.50340E+05
 0.29470001E+02 -0.47116E+05
 0.29520000E+02 -0.40906E+05
 0.29570000E+02 -0.32262E+05
 0.29620003E+02 -0.22896E+05
 0.29670002E+02 -0.14928E+05
 0.29720001E+02 -0.11289E+05
 0.29770000E+02 -0.10308E+05
 0.29820000E+02 -0.11137E+05
 0.29870003E+02 -0.10651E+05
 0.29920002E+02 -0.58040E+04
 0.29970001E+02 -0.10490E+04
 0.30020000E+02  0.23390E+04
 0.30070000E+02  0.81780E+04
 0.30120003E+02  0.18142E+05
 0.30170002E+02  0.28887E+05
 0.30220001E+02  0.37201E+05
 0.30270000E+02  0.47633E+05
 0.30320000E+02  0.57383E+05
 0.30370003E+02  0.63612E+05
 0.30420002E+02  0.69707E+05
 0.30470001E+02  0.71228E+05
 0.30520000E+02  0.74247E+05
 0.30570000E+02  0.82528E+05
 0.30620003E+02  0.86661E+05
 0.30670002E+02  0.89712E+05
 0.30720001E+02  0.94798E+05
 0.30770000E+02  0.98288E+05
 0.30820000E+02  0.10464E+06
 0.30870003E+02  0.11120E+06
 0.30920002E+02  0.11144E+06
 0.30970001E+02  0.10913E+06
 0.31020000E+02  0.10555E+06
 0.31070000E+02  0.99617E+05
 0.31120003E+02  0.95509E+05
 0.31170002E+02  0.10134E+06
 0.31220001E+02  0.10153E+06
 0.31270000E+02  0.90640E+05
 0.31320000E+02  0.86014E+05
 0.31370003E+02  0.84118E+05
 0.31420002E+02  0.87247E+05
 0.31470001E+02  0.84752E+05
 0.31520000E+02  0.69021E+05
 0.31570000E+02  0.63737E+05
 0.31620003E+02  0.64588E+05
 0.31670002E+02  0.57854E+05
 0.31720001E+02  0.61127E+05
 0.31770000E+02  0.66614E+05
 0.31820000E+02  0.60778E+05
 0.31870003E+02  0.60901E+05
 0.31920002E+02  0.59673E+05
 0.31970001E+02  0.54180E+05
 0.32020000E+02  0.48292E+05
 0.32070000E+02  0.31559E+05
 0.32120003E+02  0.22599E+05
 0.32170002E+02  0.30713E+05
 0.32220001E+02  0.33543E+05
 0.32270000E+02  0.34702E+05
 0.32320000E+02  0.36581E+05
 0.32370003E+02  0.32436E+05
 0.32420002E+02  0.30681E+05
 0.32470001E+02  0.30073E+05
 0.32520000E+02  0.33692E+05
 0.32570000E+02  0.38642E+05
 0.32620003E+02  0.40269E+05
 0.32670002E+02  0.37245E+05
 0.32720001E+02  0.25525E+05
 0.32770000E+02  0.15471E+05
 0.32820000E+02  0.11592E+05
 0.32870003E+02  0.81130E+04
 0.32920002E+02  0.11401E+05
 0.32970001E+02  0.23028E+05
 0.33020000E+02  0.22231E+05
 0.33070000E+02  0.20532E+05
 0.33120003E+02  0.27005E+05
 0.33170002E+02  0.20483E+05
 0.33220001E+02  0.17673E+05
 0.33270000E+02  0.28512E+05
 0.33320000E+02  0.27883E+05
 0.33370003E+02  0.66830E+04
 0.33420002E+02 -0.15308E+05
 0.33470001E+02 -0.26975E+05
 0.33520000E+02 -0.25583E+05
 0.33570000E+02 -0.21958E+05
 0.33620003E+02 -0.33497E+05
 0.33670002E+02 -0.32532E+05
 0.33720001E+02 -0.16506E+05
 0.33770000E+02 -0.98340E+04
 0.33820000E+02 -0.10101E+05
 0.33870003E+02 -0.12050E+05
 0.33920002E+02 -0.10504E+05
 0.33970001E+02 -0.64570E+04
 0.34020000E+02  0.10281E+05
 0.34070000E+02  0.22927E+05
 0.34120003E+02  0.21520E+04
 0.34170002E+02 -0.95340E+04
 0.34220001E+02 -0.52540E+04
 0.34270000E+02 -0.66090E+04
 0.34320000E+02  0.10245E+05
 0.34370003E+02  0.26830E+04
 0.34420002E+02 -0.33988E+05
 0.34470001E+02 -0.32074E+05
 0.34520000E+02 -0.11958E+05
 0.34570000E+02 -0.60380E+04
 0.34620003E+02 -0.10680E+04
 0.34670002E+02  0.30610E+04
 0.34720001E+02  0.95010E+04
 0.34770000E+02  0.20273E+05
 0.34820000E+02  0.19483E+05
 0.34870003E+02  0.11907E+05
 0.34920002E+02  0.10649E+05
 0.34970001E+02  0.21227E+05
 0.35020000E+02  0.26518E+05
 0.35070000E+02  0.85700E+04
 0.35120003E+02 -0.18780E+05
 0.35170002E+02 -0.30908E+05
 0.35220001E+02 -0.52510E+04
 0.35270000E+02  0.10986E+05
 0.35320000E+02 -0.66390E+04
 0.35370003E+02 -0.87590E+04
 0.35420002E+02 -0.20150E+04
 0.35470001E+02 -0.33300E+03
 0.35520000E+02 -0.95770E+04
 0.35570000E+02 -0.39039E+05
 0.35620003E+02 -0.48908E+05
 0.35670002E+02 -0.33357E+05
 0.35720001E+02 -0.25938E+05
 0.35770000E+02 -0.29733E+05
 0.35820000E+02 -0.46672E+05
 0.35870003E+02 -0.67350E+05
 0.35920002E+02 -0.77948E+05
 0.35970001E+02 -0.78386E+05
 0.36020000E+02 -0.70676E+05
 0.36070000E+02 -0.64339E+05
 0.36120003E+02 -0.33375E+05
 0.36170002E+02  0.54960E+04
 0.36220001E+02  0.10673E+05
 0.36270000E+02  0.21392E+05
 0.36320000E+02  0.30325E+05
 0.36370003E+02  0.10980E+05
 0.36420002E+02  0.11790E+05
 0.36470001E+02  0.31025E+05
 0.36520000E+02  0.26698E+05
 0.36570000E+02  0.20527E+05
 0.36620003E+02  0.21968E+05
 0.36670002E+02  0.12901E+05
 0.36720001E+02  0.13947E+05
 0.36770000E+02  0.42395E+05
 0.36820000E+02  0.61023E+05
 0.36870003E+02  0.35864E+05
 0.36920002E+02  0.13837E+05
 0.36970001E+02  0.26808E+05
 0.37020000E+02  0.51114E+05
 0.37070000E+02  0.73121E+05
 0.37120003E+02  0.62774E+05
 0.37170002E+02  0.48043E+05
 0.37220001E+02  0.71645E+05
 0.37270000E+02  0.88755E+05
 0.37320000E+02  0.76914E+05
 0.37370003E+02  0.54973E+05
 0.37420002E+02  0.43781E+05
 0.37470001E+02  0.43960E+05
 0.37520000E+02  0.56676E+05
 0.37570000E+02  0.55943E+05
 0.37620003E+02  0.16325E+05
 0.37670002E+02 -0.10158E+05
 0.37720001E+02 -0.11777E+05
 0.37770000E+02  0.63800E+03
 0.37820000E+02  0.40880E+04
 0.37870003E+02 -0.34371E+05
 0.37920002E+02 -0.66074E+05
 0.37970001E+02 -0.46450E+05
 0.38020000E+02 -0.14337E+05
 0.38070000E+02 -0.22370E+04
 0.38120003E+02  0.70320E+04
 0.38170002E+02  0.23531E+05
 0.38220001E+02  0.27770E+05
 0.38270000E+02 -0.11281E+05
 0.38320000E+02 -0.41179E+05
 0.38370003E+02 -0.42955E+05
 0.38420002E+02 -0.50424E+05
 0.38470001E+02 -0.36048E+05
 0.38520000E+02 -0.19224E+05
 0.38570000E+02 -0.28317E+05
 0.38620003E+02 -0.53359E+05
 0.38670002E+02 -0.53845E+05
 0.38720001E+02 -0.22552E+05
 0.38770000E+02 -0.85260E+04
 0.38820000E+02 -0.20173E+05
 0.38870003E+02 -0.53559E+05
 0.38920002E+02 -0.78982E+05
 0.38970001E+02 -0.71289E+05
 0.39020000E+02 -0.66331E+05
 0.39070000E+02 -0.73439E+05
 0.39120003E+02 -0.68125E+05
 0.39170002E+02 -0.51650E+05
 0.39220001E+02 -0.43693E+05
 0.39270000E+02 -0.37076E+05
 0.39320000E+02 -0.23685E+05
 0.39370003E+02 -0.11146E+05
 0.39420002E+02  0.12677E+05
 0.39470001E+02  0.37595E+05
 0.39520000E+02  0.48911E+05
 0.39570000E+02  0.50932E+05
 0.39620003E+02  0.69485E+05
 0.39670002E+02  0.86479E+05
 0.39720001E+02  0.60825E+05
 0.39770000E+02  0.51221E+05
 0.39820000E+02  0.20565E+05
 0.39870003E+02 -0.54690E+05
 0.39920002E+02 -0.81791E+05
 0.39970001E+02 -0.73564E+05
 0.40020000E+02 -0.61721E+05
 0.40070000E+02 -0.57057E+05
 0.40120003E+02 -0.44219E+05
 0.40170002E+02 -0.19855E+05
 0.40220001E+02 -0.22504E+05
 0.40270000E+02 -0.34547E+05
 0.40320000E+02 -0.56048E+05
 0.40370003E+02 -0.73015E+05
 0.40420002E+02 -0.34419E+05
 0.40470001E+02 -0.10927E+05
 0.40520000E+02 -0.28546E+05
 0.40570000E+02 -0.30866E+05
 0.40620003E+02 -0.33734E+05
 0.40670002E+02 -0.44474E+05
 0.40720001E+02 -0.38640E+05
 0.40770000E+02 -0.18585E+05
 0.40820000E+02 -0.44058E+05
 0.40870003E+02 -0.69090E+05
 0.40920002E+02 -0.57840E+05
 0.40970001E+02 -0.85465E+05
 0.41020000E+02 -0.12094E+06
 0.41070000E+02 -0.12117E+06
 0.41120003E+02 -0.93050E+05
 0.41170002E+02 -0.49306E+05
 0.41220001E+02 -0.10710E+05
 0.41270000E+02  0.16685E+05
 0.41320000E+02  0.35926E+05
 0.41370003E+02  0.43489E+05
 0.41420002E+02  0.57839E+05
 0.41470001E+02  0.89802E+05
 0.41520000E+02  0.98802E+05
 0.41570000E+02  0.99885E+05
 0.41620003E+02  0.11963E+06
 0.41670002E+02  0.10025E+06
 0.41720001E+02  0.48502E+05
 0.41770000E+02  0.25548E+05
 0.41820000E+02  0.12139E+05
 0.41870003E+02  0.80360E+04
 0.41920002E+02  0.24962E+05
 0.41970001E+02  0.31265E+05
 0.42020000E+02  0.62370E+04
 0.42070000E+02 -0.28883E+05
 0.42120003E+02 -0.29076E+05
 0.42170002E+02 -0.19900E+05
 0.42220001E+02 -0.21924E+05
 0.42270000E+02 -0.19173E+05
 0.42320000E+02 -0.24358E+05
 0.42370003E+02 -0.22809E+05
 0.42420002E+02 -0.22122E+05
 0.42470001E+02 -0.17421E+05
 0.42520000E+02  0.34980E+04
 0.42570000E+02 -0.79590E+04
 0.42620003E+02 -0.86410E+04
 0.42670002E+02  0.39472E+05
 0.42720001E+02  0.68528E+05
 0.42770000E+02  0.78141E+05
 0.42820000E+02  0.90776E+05
 0.42870003E+02  0.66705E+05
 0.42920002E+02  0.33407E+05
 0.42970001E+02  0.50245E+05
 0.43020000E+02  0.58873E+05
 0.43070000E+02  0.42068E+05
 0.43120003E+02  0.57508E+05
 0.43170002E+02  0.59797E+05
 0.43220001E+02  0.28899E+05
 0.43270000E+02  0.96440E+04
 0.43320000E+02  0.17365E+05
 0.43370003E+02  0.51006E+05
 0.43420002E+02  0.60743E+05
 0.43470001E+02  0.44373E+05
 0.43520000E+02  0.18451E+05
 0.43570000E+02 -0.39811E+05
 0.43620003E+02 -0.76391E+05
 0.43670002E+02 -0.62321E+05
 0.43720001E+02 -0.35647E+05
 0.43770000E+02 -0.99420E+04
 0.43820000E+02  0.21353E+05
 0.43870003E+02  0.31044E+05
 0.43920002E+02 -0.25350E+04
 0.43970001E+02 -0.57013E+05
 0.44020000E+02 -0.94774E+05
 0.44070000E+02 -0.79520E+05
 0.44120003E+02 -0.71377E+05
 0.44170002E+02 -0.73425E+05
 0.44220001E+02 -0.57490E+05
 0.44270000E+02 -0.56244E+05
 0.44320000E+02 -0.39631E+05
 0.44370003E+02 -0.27638E+05
 0.44420002E+02 -0.40859E+05
 0.44470001E+02 -0.26002E+05
 0.44520000E+02  0.36157E+05
 0.44570000E+02  0.11961E+06
 0.44620003E+02  0.17987E+06
 0.44670002E+02  0.18310E+06
 0.44720001E+02  0.14446E+06
 0.44770000E+02  0.66578E+05
 0.44820000E+02  0.11612E+05
 0.44870003E+02 -0.35650E+04
 0.44920002E+02 -0.53175E+05
 0.44970001E+02 -0.60738E+05
 0.45020000E+02 -0.16486E+05
 0.45070000E+02  0.17496E+05
 0.45120003E+02  0.52603E+05
 0.45170002E+02  0.60329E+05
 0.45220001E+02  0.41796E+05
 0.45270000E+02  0.19313E+05
 0.45320000E+02 -0.10389E+05
 0.45370003E+02 -0.47287E+05
 0.45420002E+02 -0.63465E+05
 0.45470001E+02 -0.59716E+05
 0.45520000E+02 -0.57051E+05
 0.45570000E+02 -0.21972E+05
 0.45620003E+02 -0.32300E+03
 0.45670002E+02  0.15950E+04
 0.45720001E+02  0.10450E+05
 0.45770000E+02 -0.27776E+05
 0.45820000E+02 -0.75300E+05
 0.45870003E+02 -0.12312E+06
 0.45920002E+02 -0.15824E+06
 0.45970001E+02 -0.15289E+06
 0.46020000E+02 -0.13929E+06
 0.46070000E+02 -0.89508E+05
 0.46120003E+02 -0.38495E+05
 0.46170002E+02 -0.63280E+04
 0.46220001E+02  0.19508E+05
 0.46270000E+02 -0.34470E+04
 0.46320000E+02 -0.10746E+05
 0.46370003E+02 -0.12680E+04
 0.46420002E+02 -0.23280E+05
 0.46470001E+02 -0.42586E+05
 0.46520000E+02 -0.78013E+05
 0.46570000E+02 -0.11783E+06
 0.46620003E+02 -0.12516E+06
 0.46670002E+02 -0.11467E+06
 0.46720001E+02 -0.94869E+05
 0.46770000E+02 -0.81030E+05
 0.46820000E+02 -0.10280E+06
 0.46870003E+02 -0.15512E+06
 0.46920002E+02 -0.22650E+06
 0.46970001E+02 -0.25161E+06
 0.47020000E+02 -0.20464E+06
 0.47070000E+02 -0.14913E+06
 0.47120003E+02 -0.83640E+05
 0.47170002E+02 -0.65285E+05
 0.47220001E+02 -0.69777E+05
 0.47270000E+02 -0.20217E+05
 0.47320000E+02 -0.45280E+04
 0.47370003E+02 -0.16897E+05
 0.47420002E+02 -0.11472E+05
 0.47470001E+02 -0.19030E+04
 0.47520000E+02  0.15645E+05
 0.47570000E+02  0.38489E+05
 0.47620003E+02  0.36741E+05
 0.47670002E+02  0.12048E+05
 0.47720001E+02  0.21644E+05
 0.47770000E+02  0.39188E+05
 0.47820000E+02  0.42499E+05
 0.47870003E+02  0.41774E+05
 0.47920002E+02  0.34826E+05
 0.47970001E+02  0.33781E+05
 0.48020000E+02  0.21688E+05
 0.48070000E+02  0.48210E+04
 0.48120003E+02  0.86490E+04
 0.48170002E+02  0.34950E+04
 0.48220001E+02 -0.10661E+05
 0.48270000E+02  0.22051E+05
 0.48320000E+02  0.54861E+05
 0.48370003E+02  0.56372E+05
 0.48420002E+02  0.64118E+05
 0.48470001E+02  0.64366E+05
 0.48520000E+02  0.36980E+05
 0.48570000E+02  0.10020E+04
 0.48620003E+02  0.68550E+04
 0.48670002E+02  0.23540E+05
 0.48720001E+02 -0.13450E+04
 0.48770000E+02 -0.31153E+05
 0.48820000E+02 -0.25917E+05
 0.48870003E+02  0.29290E+04
 0.48920002E+02  0.20700E+05
 0.48970001E+02  0.13136E+05
 0.49020000E+02  0.92740E+04
 0.49070000E+02  0.30465E+05
 0.49120003E+02  0.50433E+05
 0.49170002E+02  0.65776E+05
 0.49220001E+02  0.66216E+05
 0.49270000E+02  0.23439E+05
 0.49320000E+02 -0.25170E+04
 0.49370003E+02  0.64740E+04
 0.49420002E+02 -0.15809E+05
 0.49470001E+02 -0.38060E+05
 0.49520000E+02 -0.47558E+05
 0.49570000E+02 -0.39274E+05
 0.49620003E+02 -0.46950E+04
 0.49670002E+02  0.34318E+05
 0.49720001E+02  0.95534E+05
 0.49770000E+02  0.92915E+05
 0.49820000E+02  0.33190E+05
 0.49870003E+02 -0.19680E+04
 0.49920002E+02 -0.89940E+04
 0.49970001E+02  0.90400E+04
 0.50020000E+02  0.59570E+04
 0.50070000E+02  0.25236E+05
 0.50120003E+02  0.62604E+05
 0.50170002E+02  0.42217E+05
 0.50220001E+02  0.87260E+04
 0.50270000E+02  0.43830E+04
 0.50320000E+02  0.50400E+04
 0.50370003E+02  0.26170E+05
 0.50420002E+02  0.89593E+05
 0.50470001E+02  0.14067E+06
 0.50520000E+02  0.15205E+06
 0.50570000E+02  0.13638E+06
 0.50620003E+02  0.12781E+06
 0.50670002E+02  0.14374E+06
 0.50720001E+02  0.16463E+06
 0.50770000E+02  0.19740E+06
 0.50820000E+02  0.23628E+06
 0.50870003E+02  0.22621E+06
 0.50920002E+02  0.16408E+06
 0.50970001E+02  0.11869E+06
 0.51020000E+02  0.89580E+05
 0.51070000E+02  0.87985E+05
 0.51120003E+02  0.12039E+06
 0.51170002E+02  0.12363E+06
 0.51220001E+02  0.11385E+06
 0.51270000E+02  0.12153E+06
 0.51320000E+02  0.12574E+06
 0.51370003E+02  0.11608E+06
 0.51420002E+02  0.10577E+06
 0.51470001E+02  0.98198E+05
 0.51520000E+02  0.77838E+05
 0.51570000E+02  0.70025E+05
 0.51620003E+02  0.44997E+05
 0.51670002E+02  0.88340E+04
 0.51720001E+02  0.12101E+05
 0.51770000E+02 -0.87210E+04
 0.51820000E+02 -0.53219E+05
 0.51870003E+02 -0.11810E+06
 0.51920002E+02 -0.16898E+06
 0.51970001E+02 -0.15371E+06
 0.52020000E+02 -0.15145E+06
 0.52070000E+02 -0.17271E+06
 0.52120003E+02 -0.19324E+06
 0.52170002E+02 -0.17288E+06
 0.52220001E+02 -0.10313E+06
 0.52270000E+02 -0.73076E+05
 0.52320000E+02 -0.75404E+05
 0.52370003E+02 -0.72827E+05
 0.52420002E+02 -0.32911E+05
 0.52470001E+02  0.50529E+05
 0.52520000E+02  0.82728E+05
 0.52570000E+02  0.59491E+05
 0.52620003E+02  0.44920E+05
 0.52670002E+02  0.63842E+05
 0.52720001E+02  0.96412E+05
 0.52770000E+02  0.96275E+05
 0.52820000E+02  0.56989E+05
 0.52870003E+02  0.76350E+04
 0.52920002E+02 -0.34372E+05
 0.52970001E+02 -0.66633E+05
 0.53020000E+02 -0.65752E+05
 0.53070000E+02 -0.81344E+05
 0.53120003E+02 -0.84627E+05
 0.53170002E+02 -0.64633E+05
 0.53220001E+02 -0.16326E+06
 0.53270000E+02 -0.26987E+06
 0.53320000E+02 -0.31150E+06
 0.53370003E+02 -0.36057E+06
 0.53420002E+02 -0.37916E+06
 0.53470001E+02 -0.41080E+06
 0.53520000E+02 -0.42382E+06
 0.53570000E+02 -0.41363E+06
 0.53620003E+02 -0.38840E+06
 0.53670002E+02 -0.31146E+06
 0.53720001E+02 -0.26600E+06
 0.53770000E+02 -0.23412E+06
 0.53820000E+02 -0.22709E+06
 0.53870003E+02 -0.21251E+06
 0.53920002E+02 -0.14219E+06
 0.53970001E+02 -0.11037E+06
 0.54020000E+02 -0.13815E+06
 0.54070000E+02 -0.14959E+06
 0.54120003E+02 -0.94533E+05
 0.54170002E+02 -0.36500E+05
 0.54220001E+02  0.13822E+05
 0.54270000E+02 -0.96330E+04
 0.54320000E+02 -0.61404E+05
 0.54370003E+02 -0.53797E+05
 0.54420002E+02 -0.85352E+05
 0.54470001E+02 -0.43319E+05
 0.54520000E+02 -0.11553E+05
 0.54570000E+02 -0.96614E+05
 0.54620003E+02 -0.15753E+06
 0.54670002E+02 -0.22324E+06
 0.54720001E+02 -0.20682E+06
 0.54770000E+02 -0.13610E+06
 0.54820000E+02 -0.13672E+06
 0.54870003E+02 -0.13266E+06
 0.54920002E+02 -0.11957E+06
 0.54970001E+02 -0.78766E+05
 0.55020000E+02 -0.22711E+05
 0.55070000E+02  0.94100E+04
 0.55120003E+02 -0.45160E+04
 0.55170002E+02 -0.90259E+05
 0.55220001E+02 -0.18266E+06
 0.55270000E+02 -0.29575E+06
 0.55320000E+02 -0.37215E+06
 0.55370003E+02 -0.35776E+06
 0.55420002E+02 -0.31887E+06
 0.55470001E+02 -0.23429E+06
 0.55520000E+02 -0.16412E+06
 0.55570000E+02 -0.10525E+06
 0.55620003E+02 -0.24762E+05
 0.55670002E+02  0.23225E+05
 0.55720001E+02  0.78106E+05
 0.55770000E+02  0.59411E+05
 0.55820000E+02 -0.29780E+05
 0.55870003E+02 -0.75795E+05
 0.55920002E+02 -0.13357E+06
 0.55970001E+02 -0.18895E+06
 0.56020000E+02 -0.19579E+06
 0.56070000E+02 -0.16737E+06
 0.56120003E+02 -0.11130E+06
 0.56170002E+02 -0.12351E+05
 0.56220001E+02  0.12755E+06
 0.56270000E+02  0.23354E+06
 0.56320000E+02  0.26104E+06
 0.56370003E+02  0.17445E+06
 0.56420002E+02 -0.33020E+04
 0.56470001E+02 -0.13475E+06
 0.56520000E+02 -0.16758E+06
 0.56570000E+02 -0.18766E+06
 0.56620003E+02 -0.23190E+06
 0.56670002E+02 -0.21550E+06
 0.56720001E+02 -0.21473E+06
 0.56770000E+02 -0.27774E+06
 0.56820000E+02 -0.26783E+06
 0.56870003E+02 -0.25995E+06
 0.56920002E+02 -0.28232E+06
 0.56970001E+02 -0.32938E+06
 0.57020000E+02 -0.45928E+06
 0.57070000E+02 -0.53766E+06
 0.57120003E+02 -0.51696E+06
 0.57170002E+02 -0.45939E+06
 0.57220001E+02 -0.42926E+06
 0.57270000E+02 -0.44004E+06
 0.57320000E+02 -0.45173E+06
 0.57370003E+02 -0.53546E+06
 0.57420002E+02 -0.63296E+06
 0.57470001E+02 -0.58503E+06
 0.57520000E+02 -0.54065E+06
 0.57570000E+02 -0.60092E+06
 0.57620003E+02 -0.52019E+06
 0.57670002E+02 -0.31084E+06
 0.57720001E+02 -0.18177E+06
 0.57770000E+02 -0.13016E+06
 0.57820000E+02 -0.11725E+06
 0.57870003E+02 -0.13264E+06
 0.57920002E+02 -0.15401E+06
 0.57970001E+02 -0.14898E+06
 0.58020000E+02 -0.87101E+05
 0.58070000E+02  0.44539E+05
 0.58120003E+02  0.19358E+06
 0.58170002E+02  0.36725E+06
 0.58220001E+02  0.48962E+06
 0.58270000E+02  0.44742E+06
 0.58320000E+02  0.35212E+06
 0.58370003E+02  0.27152E+06
 0.58420002E+02  0.22412E+06
 0.58470001E+02  0.14767E+06
 0.58520000E+02  0.54965E+05
 0.58570000E+02  0.66997E+05
 0.58620003E+02  0.11661E+06
 0.58670002E+02  0.17312E+06
 0.58720001E+02  0.18772E+06
 0.58770000E+02  0.11077E+06
 0.58820000E+02  0.69485E+05
 0.58870003E+02  0.48616E+05
 0.58920002E+02 -0.78258E+05
 0.58970001E+02 -0.24487E+06
 0.59020000E+02 -0.37746E+06
 0.59070000E+02 -0.45675E+06
 0.59120003E+02 -0.50024E+06
 0.59170002E+02 -0.57883E+06
 0.59220001E+02 -0.63200E+06
 0.59270000E+02 -0.59181E+06
 0.59320000E+02 -0.53287E+06
 0.59370003E+02 -0.53329E+06
 0.59420002E+02 -0.49665E+06
 0.59470001E+02 -0.41454E+06
 0.59520000E+02 -0.36000E+06
 0.59570000E+02 -0.29324E+06
 0.59620003E+02 -0.16644E+06
 0.59670002E+02  0.21676E+05
 0.59720001E+02  0.15057E+06
 0.59770000E+02  0.23437E+06
 0.59820000E+02  0.30364E+06
 0.59870003E+02  0.30836E+06
 0.59920002E+02  0.26271E+06
 0.59970001E+02  0.19436E+06
 0.60020000E+02  0.18570E+06
 0.60070000E+02  0.21898E+06
 0.60120003E+02  0.23032E+06
 0.60170002E+02  0.20994E+06
 0.60220001E+02  0.15267E+06
 0.60270000E+02  0.73549E+05
 0.60320000E+02 -0.21760E+04
 0.60370003E+02 -0.26531E+05
 0.60420002E+02 -0.30168E+05
 0.60470001E+02 -0.82905E+05
 0.60520000E+02 -0.13916E+06
 0.60570000E+02 -0.12262E+06
 0.60620003E+02 -0.62388E+05
 0.60670002E+02 -0.21920E+04
 0.60720001E+02  0.71583E+05
 0.60770000E+02  0.11249E+06
 0.60820000E+02  0.14145E+06
 0.60870003E+02  0.14572E+06
 0.60920002E+02  0.44889E+05
 0.60970001E+02 -0.61143E+05
 0.61020000E+02 -0.11461E+06
 0.61070004E+02 -0.13442E+06
 0.61119999E+02 -0.88285E+05
 0.61170002E+02 -0.76682E+05
 0.61220005E+02 -0.16196E+06
 0.61270000E+02 -0.20886E+06
 0.61320004E+02 -0.19863E+06
 0.61369999E+02 -0.13130E+06
 0.61420002E+02 -0.24285E+05
 0.61470005E+02  0.36678E+05
 0.61520000E+02  0.87364E+05
 0.61570004E+02  0.12396E+06
 0.61619999E+02  0.12050E+06
 0.61670002E+02  0.11023E+06
 0.61720005E+02  0.12846E+06
 0.61770000E+02  0.15500E+06
 0.61820004E+02  0.17013E+06
 0.61869999E+02  0.21398E+06
 0.61920002E+02  0.27649E+06
 0.61970005E+02  0.30388E+06
 0.62020000E+02  0.27029E+06
 0.62070004E+02  0.18674E+06
 0.62119999E+02  0.12353E+06
 0.62170002E+02  0.93780E+05
 0.62220005E+02  0.23433E+05
 0.62270000E+02 -0.39000E+05
 0.62320004E+02  0.32880E+04
 0.62369999E+02  0.14811E+06
 0.62420002E+02  0.27726E+06
 0.62470005E+02  0.31758E+06
 0.62520000E+02  0.32074E+06
 0.62570004E+02  0.30631E+06
 0.62619999E+02  0.25786E+06
 0.62670002E+02  0.18585E+06
 0.62720005E+02  0.15007E+06
 0.62770000E+02  0.18076E+06
 0.62820004E+02  0.22397E+06
 0.62869999E+02  0.20573E+06
 0.62920002E+02  0.12927E+06
 0.62970005E+02  0.21214E+05
 0.63020000E+02 -0.48468E+05
 0.63070004E+02 -0.37421E+05
 0.63119999E+02  0.81040E+04
 0.63170002E+02  0.77622E+05
 0.63220005E+02  0.12358E+06
 0.63270000E+02  0.17776E+06
 0.63320004E+02  0.26040E+06
 0.63369999E+02  0.26792E+06
 0.63420002E+02  0.22998E+06
 0.63470005E+02  0.25062E+06
 0.63520000E+02  0.34078E+06
 0.63570004E+02  0.42781E+06
 0.63619999E+02  0.42817E+06
 0.63670002E+02  0.37514E+06
 0.63720005E+02  0.33020E+06
 0.63770000E+02  0.30044E+06
 0.63820004E+02  0.31489E+06
 0.63869999E+02  0.30806E+06
 0.63920002E+02  0.29160E+06
 0.63970005E+02  0.33398E+06
 0.64019997E+02  0.34253E+06
 0.64070000E+02  0.27356E+06
 0.64119995E+02  0.14380E+06
 0.64169998E+02  0.49945E+05
 0.64220001E+02  0.29828E+05
 0.64269997E+02  0.23689E+05
 0.64320000E+02  0.47227E+05
 0.64369995E+02  0.63551E+05
 0.64419998E+02  0.10125E+06
 0.64470001E+02  0.20274E+06
 0.64519997E+02  0.29188E+06
 0.64570000E+02  0.35196E+06
 0.64619995E+02  0.37137E+06
 0.64669998E+02  0.34556E+06
 0.64720001E+02  0.36960E+06
 0.64769997E+02  0.45495E+06
 0.64820000E+02  0.48343E+06
 0.64869995E+02  0.41895E+06
 0.64919998E+02  0.37617E+06
 0.64970001E+02  0.41949E+06
 0.65019997E+02  0.45558E+06
 0.65070000E+02  0.40600E+06
 0.65119995E+02  0.34929E+06
 0.65169998E+02  0.38679E+06
 0.65220001E+02  0.47397E+06
 0.65269997E+02  0.58457E+06
 0.65320000E+02  0.72142E+06
 0.65369995E+02  0.81449E+06
 0.65419998E+02  0.84028E+06
 0.65470001E+02  0.82904E+06
 0.65519997E+02  0.80901E+06
 0.65570000E+02  0.76573E+06
 0.65619995E+02  0.66844E+06
 0.65669998E+02  0.55042E+06
 0.65720001E+02  0.44074E+06
 0.65769997E+02  0.31559E+06
 0.65820000E+02  0.17643E+06
 0.65869995E+02  0.47524E+05
 0.65919998E+02  0.14515E+05
 0.65970001E+02  0.53715E+05
 0.66019997E+02  0.36464E+05
 0.66070000E+02  0.20044E+05
 0.66119995E+02  0.25573E+05
 0.66169998E+02  0.14512E+05
 0.66220001E+02  0.41341E+05
 0.66269997E+02  0.15878E+06
 0.66320000E+02  0.29508E+06
 0.66369995E+02  0.34712E+06
 0.66419998E+02  0.37415E+06
 0.66470001E+02  0.36824E+06
 0.66519997E+02  0.32921E+06
 0.66570000E+02  0.33402E+06
 0.66619995E+02  0.29620E+06
 0.66669998E+02  0.19764E+06
 0.66720001E+02  0.17614E+06
 0.66769997E+02  0.23618E+06
 0.66820000E+02  0.30535E+06
 0.66869995E+02  0.36729E+06
 0.66919998E+02  0.41940E+06
 0.66970001E+02  0.49484E+06
 0.67019997E+02  0.57158E+06
 0.67070000E+02  0.63929E+06
 0.67119995E+02  0.71399E+06
 0.67169998E+02  0.78490E+06
 0.67220001E+02  0.81919E+06
 0.67269997E+02  0.73932E+06
 0.67320000E+02  0.58768E+06
 0.67369995E+02  0.45030E+06
 0.67419998E+02  0.37306E+06
 0.67470001E+02  0.33860E+06
 0.67519997E+02  0.31448E+06
 0.67570000E+02  0.28607E+06
 0.67619995E+02  0.22541E+06
 0.67669998E+02  0.16307E+06
 0.67720001E+02  0.10910E+06
 0.67769997E+02  0.90383E+05
 0.67820000E+02  0.10568E+06
 0.67869995E+02  0.11982E+06
 0.67919998E+02  0.18963E+06
 0.67970001E+02  0.34054E+06
 0.68019997E+02  0.47964E+06
 0.68070000E+02  0.52931E+06
 0.68119995E+02  0.50501E+06
 0.68169998E+02  0.46739E+06
 0.68220001E+02  0.43067E+06
 0.68269997E+02  0.34632E+06
 0.68320000E+02  0.25519E+06
 0.68369995E+02  0.21541E+06
 0.68419998E+02  0.15841E+06
 0.68470001E+02  0.11253E+06
 0.68519997E+02  0.18250E+06
 0.68570000E+02  0.29023E+06
 0.68619995E+02  0.37971E+06
 0.68669998E+02  0.45455E+06
 0.68720001E+02  0.51945E+06
 0.68769997E+02  0.62718E+06
 0.68820000E+02  0.71377E+06
 0.68869995E+02  0.74766E+06
 0.68919998E+02  0.75334E+06
 0.68970001E+02  0.70386E+06
 0.69019997E+02  0.63987E+06
 0.69070000E+02  0.59671E+06
 0.69119995E+02  0.53785E+06
 0.69169998E+02  0.46243E+06
 0.69220001E+02  0.39530E+06
 0.69269997E+02  0.33082E+06
 0.69320000E+02  0.29327E+06
 0.69369995E+02  0.25983E+06
 0.69419998E+02  0.22642E+06
 0.69470001E+02  0.23819E+06
 0.69519997E+02  0.21555E+06
 0.69570000E+02  0.16339E+06
 0.69619995E+02  0.16454E+06
 0.69669998E+02  0.22100E+06
 0.69720001E+02  0.31056E+06
 0.69769997E+02  0.38289E+06
 0.69820000E+02  0.43581E+06
 0.69869995E+02  0.46486E+06
 0.69919998E+02  0.45898E+06
 0.69970001E+02  0.44680E+06
 0.70019997E+02  0.40663E+06
 0.70070000E+02  0.28439E+06
 0.70119995E+02  0.18059E+06
 0.70169998E+02  0.18940E+06
 0.70220001E+02  0.21041E+06
 0.70269997E+02  0.22097E+06
 0.70320000E+02  0.20725E+06
 0.70369995E+02  0.15979E+06
 0.70419998E+02  0.10447E+06
 0.70470001E+02  0.19641E+05
 0.70519997E+02 -0.71068E+05
 0.70570000E+02 -0.17865E+06
 0.70619995E+02 -0.28543E+06
 0.70669998E+02 -0.37377E+06
 0.70720001E+02 -0.44112E+06
 0.70769997E+02 -0.49898E+06
 0.70820000E+02 -0.56281E+06
 0.70869995E+02 -0.54914E+06
 0.70919998E+02 -0.50481E+06
 0.70970001E+02 -0.50170E+06
 0.71019997E+02 -0.48057E+06
 0.71070000E+02 -0.40072E+06
 0.71119995E+02 -0.28458E+06
 0.71169998E+02 -0.22839E+06
 0.71220001E+02 -0.22210E+06
 0.71269997E+02 -0.23792E+06
 0.71320000E+02 -0.31755E+06
 0.71369995E+02 -0.41231E+06
 0.71419998E+02 -0.47702E+06
 0.71470001E+02 -0.51098E+06
 0.71519997E+02 -0.51351E+06
 0.71570000E+02 -0.47405E+06
 0.71619995E+02 -0.42281E+06
 0.71669998E+02 -0.38465E+06
 0.71720001E+02 -0.38756E+06
 0.71769997E+02 -0.43805E+06
 0.71820000E+02 -0.46768E+06
 0.71869995E+02 -0.49862E+06
 0.71919998E+02 -0.52996E+06
 0.71970001E+02 -0.52956E+06
 0.72019997E+02 -0.52151E+06
 0.72070000E+02 -0.52460E+06
 0.72119995E+02 -0.51077E+06
 0.72169998E+02 -0.46707E+06
 0.72220001E+02 -0.48507E+06
 0.72269997E+02 -0.51850E+06
 0.72320000E+02 -0.48982E+06
 0.72369995E+02 -0.46480E+06
 0.72419998E+02 -0.43576E+06
 0.72470001E+02 -0.38171E+06
 0.72519997E+02 -0.33879E+06
 0.72570000E+02 -0.31422E+06
 0.72619995E+02 -0.29400E+06
 0.72669998E+02 -0.28341E+06
 0.72720001E+02 -0.31988E+06
 0.72769997E+02 -0.38182E+06
 0.72820000E+02 -0.43115E+06
 0.72869995E+02 -0.49881E+06
 0.72919998E+02 -0.58580E+06
 0.72970001E+02 -0.66284E+06
 0.73019997E+02 -0.71786E+06
 0.73070000E+02 -0.74050E+06
 0.73119995E+02 -0.71879E+06
 0.73169998E+02 -0.67604E+06
 0.73220001E+02 -0.63525E+06
 0.73269997E+02 -0.62430E+06
 0.73320000E+02 -0.69001E+06
 0.73369995E+02 -0.79220E+06
 0.73419998E+02 -0.91053E+06
 0.73470001E+02 -0.10673E+07
 0.73519997E+02 -0.12063E+07
 0.73570000E+02 -0.13029E+07
 0.73619995E+02 -0.13649E+07
 0.73669998E+02 -0.13729E+07
 0.73720001E+02 -0.13485E+07
 0.73769997E+02 -0.13042E+07
 0.73820000E+02 -0.12367E+07
 0.73869995E+02 -0.11494E+07
 0.73919998E+02 -0.10187E+07
 0.73970001E+02 -0.87823E+06
 0.74019997E+02 -0.76293E+06
 0.74070000E+02 -0.67302E+06
 0.74119995E+02 -0.64651E+06
 0.74169998E+02 -0.65095E+06
 0.74220001E+02 -0.67594E+06
 0.74269997E+02 -0.73607E+06
 0.74320000E+02 -0.76776E+06
 0.74369995E+02 -0.79671E+06
 0.74419998E+02 -0.85933E+06
 0.74470001E+02 -0.92835E+06
 0.74519997E+02 -0.98868E+06
 0.74570000E+02 -0.10209E+07
 0.74619995E+02 -0.10329E+07
 0.74669998E+02 -0.10443E+07
 0.74720001E+02 -0.10367E+07
 0.74769997E+02 -0.10069E+07
 0.74820000E+02 -0.98744E+06
 0.74869995E+02 -0.97259E+06
 0.74919998E+02 -0.96045E+06
 0.74970001E+02 -0.94584E+06
 0.75019997E+02 -0.90311E+06
 0.75070000E+02 -0.82758E+06
 0.75119995E+02 -0.71954E+06
 0.75169998E+02 -0.61972E+06
 0.75220001E+02 -0.53929E+06
 0.75269997E+02 -0.45292E+06
 0.75320000E+02 -0.37593E+06
 0.75369995E+02 -0.32840E+06
 0.75419998E+02 -0.31231E+06
 0.75470001E+02 -0.31618E+06
 0.75519997E+02 -0.32459E+06
 0.75570000E+02 -0.34779E+06
 0.75619995E+02 -0.42090E+06
 0.75669998E+02 -0.52232E+06
 0.75720001E+02 -0.60438E+06
 0.75769997E+02 -0.65956E+06
 0.75820000E+02 -0.69478E+06
 0.75869995E+02 -0.72766E+06
 0.75919998E+02 -0.75684E+06
 0.75970001E+02 -0.74055E+06
 0.76019997E+02 -0.68115E+06
 0.76070000E+02 -0.61070E+06
 0.76119995E+02 -0.52286E+06
 0.76169998E+02 -0.41951E+06
 0.76220001E+02 -0.30029E+06
 0.76269997E+02 -0.18600E+06
 0.76320000E+02 -0.10061E+06
 0.76369995E+02 -0.41701E+05
 0.76419998E+02 -0.17680E+05
 0.76470001E+02 -0.30169E+05
 0.76519997E+02 -0.71935E+05
 0.76570000E+02 -0.12372E+06
 0.76619995E+02 -0.17559E+06
 0.76669998E+02 -0.22386E+06
 0.76720001E+02 -0.26018E+06
 0.76769997E+02 -0.27169E+06
 0.76820000E+02 -0.24066E+06
 0.76869995E+02 -0.18832E+06
 0.76919998E+02 -0.13698E+06
 0.76970001E+02 -0.67627E+05
 0.77019997E+02  0.13889E+05
 0.77070000E+02  0.56958E+05
 0.77119995E+02  0.54567E+05
 0.77169998E+02  0.66028E+05
 0.77220001E+02  0.10103E+06
 0.77269997E+02  0.14409E+06
 0.77320000E+02  0.20478E+06
 0.77369995E+02  0.26316E+06
 0.77419998E+02  0.31307E+06
 0.77470001E+02  0.36202E+06
 0.77519997E+02  0.39097E+06
 0.77570000E+02  0.37745E+06
 0.77619995E+02  0.34127E+06
 0.77669998E+02  0.30597E+06
 0.77720001E+02  0.27437E+06
 0.77769997E+02  0.25309E+06
 0.77820000E+02  0.21166E+06
 0.77869995E+02  0.15406E+06
 0.77919998E+02  0.10303E+06
 0.77970001E+02  0.58175E+05
 0.78019997E+02  0.59177E+05
 0.78070000E+02  0.75423E+05
 0.78119995E+02  0.68812E+05
 0.78169998E+02  0.65560E+05
 0.78220001E+02  0.59134E+05
 0.78269997E+02  0.71236E+05
 0.78320000E+02  0.11583E+06
 0.78369995E+02  0.18703E+06
 0.78419998E+02  0.30469E+06
 0.78470001E+02  0.43700E+06
 0.78519997E+02  0.54530E+06
 0.78570000E+02  0.64085E+06
 0.78619995E+02  0.71280E+06
 0.78669998E+02  0.75111E+06
 0.78720001E+02  0.79322E+06
 0.78769997E+02  0.85654E+06
 0.78820000E+02  0.94510E+06
 0.78869995E+02  0.10441E+07
 0.78919998E+02  0.10962E+07
 0.78970001E+02  0.11052E+07
 0.79019997E+02  0.11029E+07
 0.79070000E+02  0.10804E+07
 0.79119995E+02  0.10508E+07
 0.79169998E+02  0.10311E+07
 0.79220001E+02  0.10112E+07
 0.79269997E+02  0.97740E+06
 0.79320000E+02  0.93754E+06
 0.79369995E+02  0.91250E+06
 0.79419998E+02  0.90820E+06
 0.79470001E+02  0.92342E+06
 0.79519997E+02  0.96354E+06
 0.79570000E+02  0.10293E+07
 0.79619995E+02  0.11041E+07
 0.79669998E+02  0.11842E+07
 0.79720001E+02  0.12534E+07
 0.79769997E+02  0.12707E+07
 0.79820000E+02  0.12288E+07
 0.79869995E+02  0.11544E+07
 0.79919998E+02  0.10888E+07
 0.79970001E+02  0.10536E+07
 0.80019997E+02  0.10483E+07
 0.80070000E+02  0.10524E+07
 0.80119995E+02  0.10594E+07
 0.80169998E+02  0.11009E+07
 0.80220001E+02  0.11455E+07
 0.80269997E+02  0.11460E+07
 0.80320000E+02  0.11197E+07
 0.80369995E+02  0.11005E+07
 0.80419998E+02  0.10932E+07
 0.80470001E+02  0.10891E+07
 0.80519997E+02  0.10977E+07
 0.80570000E+02  0.11064E+07
 0.80619995E+02  0.11047E+07
 0.80669998E+02  0.10969E+07
 0.80720001E+02  0.10854E+07
 0.80769997E+02  0.10733E+07
 0.80820000E+02  0.10493E+07
 0.80869995E+02  0.10196E+07
 0.80919998E+02  0.99203E+06
 0.80970001E+02  0.96095E+06
 0.81019997E+02  0.93431E+06
 0.81070000E+02  0.89774E+06
 0.81119995E+02  0.83502E+06
 0.81169998E+02  0.75544E+06
 0.81220001E+02  0.66664E+06
 0.81269997E+02  0.58299E+06
 0.81320000E+02  0.51174E+06
 0.81369995E+02  0.44196E+06
 0.81419998E+02  0.38327E+06
 0.81470001E+02  0.34377E+06
 0.81519997E+02  0.30722E+06
 0.81570000E+02  0.27769E+06
 0.81619995E+02  0.28081E+06
 0.81669998E+02  0.32156E+06
 0.81720001E+02  0.37710E+06
 0.81769997E+02  0.44629E+06
 0.81820000E+02  0.54806E+06
 0.81869995E+02  0.68472E+06
 0.81919998E+02  0.83568E+06
 0.81970001E+02  0.96899E+06
 0.82019997E+02  0.10629E+07
 0.82070000E+02  0.10984E+07
 0.82119995E+02  0.10692E+07
 0.82169998E+02  0.10147E+07
 0.82220001E+02  0.96867E+06
 0.82269997E+02  0.92303E+06
 0.82320000E+02  0.87061E+06
 0.82369995E+02  0.79893E+06
 0.82419998E+02  0.72145E+06
 0.82470001E+02  0.66261E+06
 0.82519997E+02  0.62594E+06
 0.82570000E+02  0.61852E+06
 0.82619995E+02  0.61897E+06
 0.82669998E+02  0.60044E+06
 0.82720001E+02  0.53809E+06
 0.82769997E+02  0.43150E+06
 0.82820000E+02  0.31803E+06
 0.82869995E+02  0.21210E+06
 0.82919998E+02  0.11305E+06
 0.82970001E+02  0.21488E+05
 0.83019997E+02 -0.66982E+05
 0.83070000E+02 -0.17762E+06
 0.83119995E+02 -0.31801E+06
 0.83169998E+02 -0.46505E+06
 0.83220001E+02 -0.59696E+06
 0.83269997E+02 -0.67689E+06
 0.83320000E+02 -0.71717E+06
 0.83369995E+02 -0.74266E+06
 0.83419998E+02 -0.73659E+06
 0.83470001E+02 -0.71625E+06
 0.83519997E+02 -0.68844E+06
 0.83570000E+02 -0.63440E+06
 0.83619995E+02 -0.55134E+06
 0.83669998E+02 -0.45227E+06
 0.83720001E+02 -0.34870E+06
 0.83769997E+02 -0.26974E+06
 0.83820000E+02 -0.26350E+06
 0.83869995E+02 -0.30870E+06
 0.83919998E+02 -0.34961E+06
 0.83970001E+02 -0.36722E+06
 0.84019997E+02 -0.39214E+06
 0.84070000E+02 -0.45172E+06
 0.84119995E+02 -0.54367E+06
 0.84169998E+02 -0.65375E+06
 0.84220001E+02 -0.74172E+06
 0.84269997E+02 -0.79670E+06
 0.84320000E+02 -0.82098E+06
 0.84369995E+02 -0.84139E+06
 0.84419998E+02 -0.88984E+06
 0.84470001E+02 -0.94810E+06
 0.84519997E+02 -0.10134E+07
 0.84570000E+02 -0.10599E+07
 0.84619995E+02 -0.10686E+07
 0.84669998E+02 -0.10761E+07
 0.84720001E+02 -0.10975E+07
 0.84769997E+02 -0.11306E+07
 0.84820000E+02 -0.11728E+07
 0.84869995E+02 -0.12254E+07
 0.84919998E+02 -0.12764E+07
 0.84970001E+02 -0.13235E+07
 0.85019997E+02 -0.13930E+07
 0.85070000E+02 -0.14665E+07
 0.85119995E+02 -0.15241E+07
 0.85169998E+02 -0.15624E+07
 0.85220001E+02 -0.15758E+07
 0.85269997E+02 -0.15724E+07
 0.85320000E+02 -0.15535E+07
 0.85369995E+02 -0.15339E+07
 0.85419998E+02 -0.15070E+07
 0.85470001E+02 -0.14624E+07
 0.85519997E+02 -0.14111E+07
 0.85570000E+02 -0.13589E+07
 0.85619995E+02 -0.13295E+07
 0.85669998E+02 -0.13483E+07
 0.85720001E+02 -0.14023E+07
 0.85769997E+02 -0.14404E+07
 0.85820000E+02 -0.14381E+07
 0.85869995E+02 -0.13935E+07
 0.85919998E+02 -0.13142E+07
 0.85970001E+02 -0.12268E+07
 0.86019997E+02 -0.11416E+07
 0.86070000E+02 -0.10615E+07
 0.86119995E+02 -0.97738E+06
 0.86169998E+02 -0.89328E+06
 0.86220001E+02 -0.85924E+06
 0.86269997E+02 -0.88693E+06
 0.86320000E+02 -0.94060E+06
 0.86369995E+02 -0.98880E+06
 0.86419998E+02 -0.99388E+06
 0.86470001E+02 -0.97511E+06
 0.86519997E+02 -0.96183E+06
 0.86570000E+02 -0.94853E+06
 0.86619995E+02 -0.93598E+06
 0.86669998E+02 -0.90814E+06
 0.86720001E+02 -0.86859E+06
 0.86769997E+02 -0.81450E+06
 0.86820000E+02 -0.75351E+06
 0.86869995E+02 -0.71389E+06
 0.86919998E+02 -0.68805E+06
 0.86970001E+02 -0.66508E+06
 0.87019997E+02 -0.64351E+06
 0.87070000E+02 -0.61119E+06
 0.87119995E+02 -0.54346E+06
 0.87169998E+02 -0.45547E+06
 0.87220001E+02 -0.38762E+06
 0.87269997E+02 -0.35171E+06
 0.87320000E+02 -0.33912E+06
 0.87369995E+02 -0.33846E+06
 0.87419998E+02 -0.33976E+06
 0.87470001E+02 -0.33687E+06
 0.87519997E+02 -0.31959E+06
 0.87570000E+02 -0.28216E+06
 0.87619995E+02 -0.25330E+06
 0.87669998E+02 -0.23707E+06
 0.87720001E+02 -0.23266E+06
 0.87769997E+02 -0.25692E+06
 0.87820000E+02 -0.28841E+06
 0.87869995E+02 -0.30830E+06
 0.87919998E+02 -0.30625E+06
 0.87970001E+02 -0.28700E+06
 0.88019997E+02 -0.27224E+06
 0.88070000E+02 -0.26170E+06
 0.88119995E+02 -0.24325E+06
 0.88169998E+02 -0.21617E+06
 0.88220001E+02 -0.18270E+06
 0.88269997E+02 -0.14673E+06
 0.88320000E+02 -0.12680E+06
 0.88369995E+02 -0.12434E+06
 0.88419998E+02 -0.12433E+06
 0.88470001E+02 -0.12175E+06
 0.88519997E+02 -0.11323E+06
 0.88570000E+02 -0.92760E+05
 0.88619995E+02 -0.64059E+05
 0.88669998E+02 -0.43205E+05
 0.88720001E+02 -0.24815E+05
 0.88769997E+02  0.19873E+05
 0.88820000E+02  0.84313E+05
 0.88869995E+02  0.15364E+06
 0.88919998E+02  0.22158E+06
 0.88970001E+02  0.26434E+06
 0.89019997E+02  0.29844E+06
 0.89070000E+02  0.34627E+06
 0.89119995E+02  0.39759E+06
 0.89169998E+02  0.46327E+06
 0.89220001E+02  0.55196E+06
 0.89269997E+02  0.63949E+06
 0.89320000E+02  0.71293E+06
 0.89369995E+02  0.77808E+06
 0.89419998E+02  0.83581E+06
 0.89470001E+02  0.87495E+06
 0.89519997E+02  0.87549E+06
 0.89570000E+02  0.85264E+06
 0.89619995E+02  0.81828E+06
 0.89669998E+02  0.75932E+06
 0.89720001E+02  0.70587E+06
 0.89769997E+02  0.68835E+06
 0.89820000E+02  0.71198E+06
 0.89869995E+02  0.77107E+06
 0.89919998E+02  0.84516E+06
 0.89970001E+02  0.92866E+06
 0.90019997E+02  0.10078E+07
 0.90070000E+02  0.10803E+07
 0.90119995E+02  0.11515E+07
 0.90169998E+02  0.11988E+07
 0.90220001E+02  0.12249E+07
 0.90269997E+02  0.12486E+07
 0.90320000E+02  0.12784E+07
 0.90369995E+02  0.13110E+07
 0.90419998E+02  0.13351E+07
 0.90470001E+02  0.13507E+07
 0.90519997E+02  0.13548E+07
 0.90570000E+02  0.13547E+07
 0.90619995E+02  0.13738E+07
 0.90669998E+02  0.14188E+07
 0.90720001E+02  0.14810E+07
 0.90769997E+02  0.15477E+07
 0.90820000E+02  0.16038E+07
 0.90869995E+02  0.16430E+07
 0.90919998E+02  0.16575E+07
 0.90970001E+02  0.16522E+07
 0.91019997E+02  0.16409E+07
 0.91070000E+02  0.16153E+07
 0.91119995E+02  0.15825E+07
 0.91169998E+02  0.15608E+07
 0.91220001E+02  0.15472E+07
 0.91269997E+02  0.15396E+07
 0.91320000E+02  0.15328E+07
 0.91369995E+02  0.15198E+07
 0.91419998E+02  0.14993E+07
 0.91470001E+02  0.14602E+07
 0.91519997E+02  0.14020E+07
 0.91570000E+02  0.13283E+07
 0.91619995E+02  0.12506E+07
 0.91669998E+02  0.11954E+07
 0.91720001E+02  0.11564E+07
 0.91769997E+02  0.11253E+07
 0.91820000E+02  0.10941E+07
 0.91869995E+02  0.10435E+07
 0.91919998E+02  0.97967E+06
 0.91970001E+02  0.91447E+06
 0.92019997E+02  0.85646E+06
 0.92070000E+02  0.80872E+06
 0.92119995E+02  0.77281E+06
 0.92169998E+02  0.75214E+06
 0.92220001E+02  0.73887E+06
 0.92269997E+02  0.73858E+06
 0.92320000E+02  0.74534E+06
 0.92369995E+02  0.72856E+06
 0.92419998E+02  0.69303E+06
 0.92470001E+02  0.65879E+06
 0.92519997E+02  0.63014E+06
 0.92570000E+02  0.60578E+06
 0.92619995E+02  0.56900E+06
 0.92669998E+02  0.51389E+06
 0.92720001E+02  0.45507E+06
 0.92769997E+02  0.39990E+06
 0.92820000E+02  0.34790E+06
 0.92869995E+02  0.29653E+06
 0.92919998E+02  0.24594E+06
 0.92970001E+02  0.19859E+06
 0.93019997E+02  0.15114E+06
 0.93070000E+02  0.11218E+06
 0.93119995E+02  0.90337E+05
 0.93169998E+02  0.66773E+05
 0.93220001E+02  0.41047E+05
 0.93269997E+02  0.22568E+05
 0.93320000E+02  0.10888E+05
 0.93369995E+02  0.13454E+05
 0.93419998E+02  0.11074E+05
 0.93470001E+02 -0.46090E+04
 0.93519997E+02 -0.22812E+05
 0.93570000E+02 -0.43411E+05
 0.93619995E+02 -0.62823E+05
 0.93669998E+02 -0.88864E+05
 0.93720001E+02 -0.12986E+06
 0.93769997E+02 -0.18067E+06
 0.93820000E+02 -0.23159E+06
 0.93869995E+02 -0.28048E+06
 0.93919998E+02 -0.32777E+06
 0.93970001E+02 -0.37418E+06
 0.94019997E+02 -0.41721E+06
 0.94070000E+02 -0.45686E+06
 0.94119995E+02 -0.50235E+06
 0.94169998E+02 -0.55561E+06
 0.94220001E+02 -0.62040E+06
 0.94269997E+02 -0.69431E+06
 0.94320000E+02 -0.76744E+06
 0.94369995E+02 -0.83377E+06
 0.94419998E+02 -0.89000E+06
 0.94470001E+02 -0.93115E+06
 0.94519997E+02 -0.94532E+06
 0.94570000E+02 -0.93211E+06
 0.94619995E+02 -0.90595E+06
 0.94669998E+02 -0.88229E+06
 0.94720001E+02 -0.86314E+06
 0.94769997E+02 -0.84951E+06
 0.94820000E+02 -0.84887E+06
 0.94869995E+02 -0.86623E+06
 0.94919998E+02 -0.91690E+06
 0.94970001E+02 -0.10038E+07
 0.95019997E+02 -0.11151E+07
 0.95070000E+02 -0.12411E+07
 0.95119995E+02 -0.13701E+07
 0.95169998E+02 -0.14916E+07
 0.95220001E+02 -0.15931E+07
 0.95269997E+02 -0.16672E+07
 0.95320000E+02 -0.17200E+07
 0.95369995E+02 -0.17671E+07
 0.95419998E+02 -0.18086E+07
 0.95470001E+02 -0.18246E+07
 0.95519997E+02 -0.18017E+07
 0.95570000E+02 -0.17544E+07
 0.95619995E+02 -0.17047E+07
 0.95669998E+02 -0.16554E+07
 0.95720001E+02 -0.15982E+07
 0.95769997E+02 -0.15344E+07
 0.95820000E+02 -0.14686E+07
 0.95869995E+02 -0.13960E+07
 0.95919998E+02 -0.13287E+07
 0.95970001E+02 -0.12706E+07
 0.96019997E+02 -0.12081E+07
 0.96070000E+02 -0.11379E+07
 0.96119995E+02 -0.10503E+07
 0.96169998E+02 -0.95244E+06
 0.96220001E+02 -0.86356E+06
 0.96269997E+02 -0.77818E+06
 0.96320000E+02 -0.69173E+06
 0.96369995E+02 -0.60902E+06
 0.96419998E+02 -0.53381E+06
 0.96470001E+02 -0.47301E+06
 0.96519997E+02 -0.42215E+06
 0.96570000E+02 -0.38391E+06
 0.96619995E+02 -0.37476E+06
 0.96669998E+02 -0.37667E+06
 0.96720001E+02 -0.36144E+06
 0.96769997E+02 -0.33102E+06
 0.96820000E+02 -0.28553E+06
 0.96869995E+02 -0.23096E+06
 0.96919998E+02 -0.19408E+06
 0.96970001E+02 -0.17541E+06
 0.97019997E+02 -0.16817E+06
 0.97070000E+02 -0.17543E+06
 0.97119995E+02 -0.18566E+06
 0.97169998E+02 -0.19492E+06
 0.97220001E+02 -0.20703E+06
 0.97269997E+02 -0.20993E+06
 0.97320000E+02 -0.18731E+06
 0.97369995E+02 -0.14835E+06
 0.97419998E+02 -0.97953E+05
 0.97470001E+02 -0.40384E+05
 0.97519997E+02  0.10090E+04
 0.97570000E+02  0.30287E+05
 0.97619995E+02  0.56077E+05
 0.97669998E+02  0.71110E+05
 0.97720001E+02  0.85590E+05
 0.97769997E+02  0.10084E+06
 0.97820000E+02  0.10237E+06
 0.97869995E+02  0.97526E+05
 0.97919998E+02  0.95824E+05
 0.97970001E+02  0.10314E+06
 0.98019997E+02  0.11227E+06
 0.98070000E+02  0.11501E+06
 0.98119995E+02  0.11936E+06
 0.98169998E+02  0.11748E+06
 0.98220001E+02  0.11734E+06
 0.98269997E+02  0.11694E+06
 0.98320000E+02  0.10703E+06
 0.98369995E+02  0.10513E+06
 0.98419998E+02  0.11660E+06
 0.98470001E+02  0.13941E+06
 0.98519997E+02  0.16281E+06
 0.98570000E+02  0.18760E+06
 0.98619995E+02  0.22266E+06
 0.98669998E+02  0.26100E+06
 0.98720001E+02  0.30017E+06
 0.98769997E+02  0.34326E+06
 0.98820000E+02  0.39104E+06
 0.98869995E+02  0.44304E+06
 0.98919998E+02  0.49863E+06
 0.98970001E+02  0.55466E+06
 0.99019997E+02  0.61664E+06
 0.99070000E+02  0.67748E+06
 0.99119995E+02  0.72529E+06
 0.99169998E+02  0.76941E+06
 0.99220001E+02  0.80532E+06
 0.99269997E+02  0.83680E+06
 0.99320000E+02  0.87923E+06
 0.99369995E+02  0.93261E+06
 0.99419998E+02  0.99432E+06
 0.99470001E+02  0.10478E+07
 0.99519997E+02  0.10869E+07
 0.99570000E+02  0.11162E+07
 0.99619995E+02  0.11236E+07
 0.99669998E+02  0.11134E+07
 0.99720001E+02  0.11030E+07
 0.99769997E+02  0.10913E+07
 0.99820000E+02  0.10677E+07
 0.99869995E+02  0.10321E+07
 0.99919998E+02  0.99010E+06
 0.99970001E+02  0.94082E+06
 0.10002000E+03  0.89247E+06
 0.10007000E+03  0.85607E+06
 0.10012000E+03  0.82406E+06
 0.10017000E+03  0.78288E+06
 0.10022000E+03  0.73228E+06
 0.10027000E+03  0.68999E+06
 0.10032000E+03  0.65678E+06
 0.10037000E+03  0.62065E+06
 0.10042000E+03  0.58074E+06
 0.10047000E+03  0.52711E+06
 0.10052000E+03  0.46483E+06
 0.10057000E+03  0.41264E+06
 0.10062000E+03  0.38455E+06
 0.10067000E+03  0.38504E+06
 0.10072000E+03  0.39651E+06
 0.10077000E+03  0.40776E+06
 0.10082000E+03  0.41300E+06
 0.10087000E+03  0.40364E+06
 0.10092000E+03  0.37346E+06
 0.10097000E+03  0.32103E+06
 0.10102000E+03  0.25914E+06
 0.10107000E+03  0.19233E+06
 0.10112000E+03  0.11744E+06
 0.10117000E+03  0.45675E+05
 0.10122000E+03 -0.12265E+05
 0.10127000E+03 -0.55793E+05
 0.10132000E+03 -0.84127E+05
 0.10137000E+03 -0.10548E+06
 0.10142000E+03 -0.12052E+06
 0.10147000E+03 -0.12832E+06
 0.10152000E+03 -0.14395E+06
 0.10157000E+03 -0.16193E+06
 0.10162000E+03 -0.17857E+06
 0.10167000E+03 -0.19413E+06
 0.10172000E+03 -0.20917E+06
 0.10177000E+03 -0.23413E+06
 0.10182000E+03 -0.26543E+06
 0.10187000E+03 -0.31046E+06
 0.10192000E+03 -0.36631E+06
 0.10197000E+03 -0.41899E+06
 0.10202000E+03 -0.47111E+06
 0.10207000E+03 -0.51342E+06
 0.10212000E+03 -0.54281E+06
 0.10217000E+03 -0.56845E+06
 0.10222000E+03 -0.58777E+06
 0.10227000E+03 -0.60170E+06
 0.10232000E+03 -0.60259E+06
 0.10237000E+03 -0.58173E+06
 0.10242000E+03 -0.55701E+06
 0.10247000E+03 -0.52858E+06
 0.10252000E+03 -0.49282E+06
 0.10257000E+03 -0.45609E+06
 0.10262000E+03 -0.40486E+06
 0.10267000E+03 -0.34484E+06
 0.10272000E+03 -0.29883E+06
 0.10277000E+03 -0.27178E+06
 0.10282000E+03 -0.25388E+06
 0.10287000E+03 -0.24118E+06
 0.10292000E+03 -0.23391E+06
 0.10297000E+03 -0.23226E+06
 0.10302000E+03 -0.24129E+06
 0.10307000E+03 -0.25456E+06
 0.10312000E+03 -0.26365E+06
 0.10317000E+03 -0.26915E+06
 0.10322000E+03 -0.28342E+06
 0.10327000E+03 -0.31955E+06
 0.10332000E+03 -0.37537E+06
 0.10337000E+03 -0.44421E+06
 0.10342000E+03 -0.51513E+06
 0.10347000E+03 -0.57103E+06
 0.10352000E+03 -0.60169E+06
 0.10357000E+03 -0.61226E+06
 0.10362000E+03 -0.62071E+06
 0.10367000E+03 -0.63187E+06
 0.10372000E+03 -0.62617E+06
 0.10377000E+03 -0.60695E+06
 0.10382000E+03 -0.58381E+06
 0.10387000E+03 -0.55590E+06
 0.10392000E+03 -0.53099E+06
 0.10397000E+03 -0.50312E+06
 0.10402000E+03 -0.47282E+06
 0.10407000E+03 -0.44613E+06
 0.10412000E+03 -0.42904E+06
 0.10417000E+03 -0.42085E+06
 0.10422000E+03 -0.40871E+06
 0.10427000E+03 -0.39610E+06
 0.10432000E+03 -0.39345E+06
 0.10437000E+03 -0.39746E+06
 0.10442000E+03 -0.39613E+06
 0.10447000E+03 -0.38336E+06
 0.10452000E+03 -0.36065E+06
 0.10457000E+03 -0.33756E+06
 0.10462000E+03 -0.32191E+06
 0.10467000E+03 -0.31412E+06
 0.10472000E+03 -0.30672E+06
 0.10477000E+03 -0.29980E+06
 0.10482000E+03 -0.29726E+06
 0.10487000E+03 -0.29901E+06
 0.10492000E+03 -0.31772E+06
 0.10497000E+03 -0.34497E+06
 0.10502000E+03 -0.36208E+06
 0.10507000E+03 -0.37462E+06
 0.10512000E+03 -0.38794E+06
 0.10517000E+03 -0.39752E+06
 0.10522000E+03 -0.39881E+06
 0.10527000E+03 -0.39585E+06
 0.10532000E+03 -0.38946E+06
 0.10537000E+03 -0.37007E+06
 0.10542000E+03 -0.34044E+06
 0.10547000E+03 -0.30643E+06
 0.10552000E+03 -0.26455E+06
 0.10557000E+03 -0.21616E+06
 0.10562000E+03 -0.16190E+06
 0.10567000E+03 -0.93777E+05
 0.10572000E+03 -0.16608E+05
 0.10577000E+03  0.59388E+05
 0.10582000E+03  0.13410E+06
 0.10587000E+03  0.19974E+06
 0.10592000E+03  0.25850E+06
 0.10597000E+03  0.30994E+06
 0.10602000E+03  0.34380E+06
 0.10607000E+03  0.36225E+06
 0.10612000E+03  0.36808E+06
 0.10617000E+03  0.37884E+06
 0.10622000E+03  0.40258E+06
 0.10627000E+03  0.42619E+06
 0.10632000E+03  0.44839E+06
 0.10637000E+03  0.46691E+06
 0.10642000E+03  0.47778E+06
 0.10647000E+03  0.48010E+06
 0.10652000E+03  0.47126E+06
 0.10657000E+03  0.45454E+06
 0.10662000E+03  0.43391E+06
 0.10667000E+03  0.41828E+06
 0.10672000E+03  0.42268E+06
 0.10677000E+03  0.43301E+06
 0.10682000E+03  0.43467E+06
 0.10687000E+03  0.44564E+06
 0.10692000E+03  0.47525E+06
 0.10697000E+03  0.51756E+06
 0.10702000E+03  0.56229E+06
 0.10707000E+03  0.60188E+06
 0.10712000E+03  0.62758E+06
 0.10717000E+03  0.63081E+06
 0.10722000E+03  0.61609E+06
 0.10727000E+03  0.59341E+06
 0.10732000E+03  0.57118E+06
 0.10737000E+03  0.54992E+06
 0.10742000E+03  0.53133E+06
 0.10747000E+03  0.51302E+06
 0.10752000E+03  0.48908E+06
 0.10757000E+03  0.46446E+06
 0.10762000E+03  0.44387E+06
 0.10767000E+03  0.42706E+06
 0.10772000E+03  0.41305E+06
 0.10777000E+03  0.40464E+06
 0.10782000E+03  0.40333E+06
 0.10787000E+03  0.40293E+06
 0.10792000E+03  0.39666E+06
 0.10797000E+03  0.39047E+06
 0.10802000E+03  0.39255E+06
 0.10807000E+03  0.39693E+06
 0.10812000E+03  0.39984E+06
 0.10817000E+03  0.40855E+06
 0.10822000E+03  0.42466E+06
 0.10827000E+03  0.44502E+06
 0.10832000E+03  0.46536E+06
 0.10837000E+03  0.47644E+06
 0.10842000E+03  0.47580E+06
 0.10847000E+03  0.46369E+06
 0.10852000E+03  0.44124E+06
 0.10857000E+03  0.40971E+06
 0.10862000E+03  0.37213E+06
 0.10867000E+03  0.33655E+06
 0.10872000E+03  0.30781E+06
 0.10877000E+03  0.28521E+06
 0.10882000E+03  0.26015E+06
 0.10887000E+03  0.23495E+06
 0.10892000E+03  0.21558E+06
 0.10897000E+03  0.20005E+06
 0.10902000E+03  0.19053E+06
 0.10907000E+03  0.18059E+06
 0.10912000E+03  0.16311E+06
 0.10917000E+03  0.14675E+06
 0.10922000E+03  0.14012E+06
 0.10927000E+03  0.13952E+06
 0.10932000E+03  0.14036E+06
 0.10937000E+03  0.14236E+06
 0.10942000E+03  0.14870E+06
 0.10947000E+03  0.16098E+06
 0.10952000E+03  0.17337E+06
 0.10957000E+03  0.18473E+06
 0.10962000E+03  0.20096E+06
 0.10967000E+03  0.22395E+06
 0.10972000E+03  0.24546E+06
 0.10977000E+03  0.25460E+06
 0.10982000E+03  0.24779E+06
 0.10987000E+03  0.22596E+06
 0.10992000E+03  0.19284E+06
 0.10997000E+03  0.15544E+06
 0.11002000E+03  0.11244E+06
 0.11007000E+03  0.57524E+05
 0.11012000E+03 -0.79970E+04
 0.11017000E+03 -0.77161E+05
 0.11022000E+03 -0.14378E+06
 0.11027000E+03 -0.20484E+06
 0.11032000E+03 -0.25890E+06
 0.11037000E+03 -0.30951E+06
 0.11042000E+03 -0.35919E+06
 0.11047000E+03 -0.40520E+06
 0.11052000E+03 -0.44390E+06
 0.11057000E+03 -0.46968E+06
 0.11062000E+03 -0.48352E+06
 0.11067000E+03 -0.49040E+06
 0.11072000E+03 -0.48750E+06
 0.11077000E+03 -0.47537E+06
 0.11082000E+03 -0.46043E+06
 0.11087000E+03 -0.44893E+06
 0.11092000E+03 -0.43874E+06
 0.11097000E+03 -0.42244E+06
 0.11102000E+03 -0.40571E+06
 0.11107000E+03 -0.39854E+06
 0.11112000E+03 -0.40011E+06
 0.11117000E+03 -0.40589E+06
 0.11122000E+03 -0.41672E+06
 0.11127000E+03 -0.42651E+06
 0.11132000E+03 -0.43255E+06
 0.11137000E+03 -0.43822E+06
 0.11142000E+03 -0.44232E+06
 0.11147000E+03 -0.45035E+06
 0.11152000E+03 -0.45939E+06
 0.11157000E+03 -0.46550E+06
 0.11162000E+03 -0.47280E+06
 0.11167000E+03 -0.48116E+06
 0.11172000E+03 -0.48837E+06
 0.11177000E+03 -0.49085E+06
 0.11182000E+03 -0.49226E+06
 0.11187000E+03 -0.49359E+06
 0.11192000E+03 -0.49448E+06
 0.11197000E+03 -0.49838E+06
 0.11202000E+03 -0.50457E+06
 0.11207000E+03 -0.52028E+06
 0.11212000E+03 -0.54250E+06
 0.11217000E+03 -0.55652E+06
 0.11222000E+03 -0.55852E+06
 0.11227000E+03 -0.55128E+06
 0.11232000E+03 -0.54146E+06
 0.11237000E+03 -0.52665E+06
 0.11242000E+03 -0.49866E+06
 0.11247000E+03 -0.45661E+06
 0.11252000E+03 -0.40221E+06
 0.11257000E+03 -0.33470E+06
 0.11262000E+03 -0.25227E+06
 0.11267000E+03 -0.15984E+06
 0.11272000E+03 -0.68679E+05
 0.11277000E+03  0.96930E+04
 0.11282000E+03  0.71723E+05
 0.11287000E+03  0.12390E+06
 0.11292000E+03  0.17331E+06
 0.11297000E+03  0.22677E+06
 0.11302000E+03  0.29106E+06
 0.11307000E+03  0.36271E+06
 0.11312000E+03  0.43234E+06
 0.11317000E+03  0.49152E+06
 0.11322000E+03  0.53717E+06
 0.11327000E+03  0.56636E+06
 0.11332000E+03  0.57312E+06
 0.11337000E+03  0.56622E+06
 0.11342000E+03  0.55992E+06
 0.11347000E+03  0.55999E+06
 0.11352000E+03  0.56545E+06
 0.11357000E+03  0.57146E+06
 0.11362000E+03  0.56994E+06
 0.11367000E+03  0.55342E+06
 0.11372000E+03  0.52818E+06
 0.11377000E+03  0.49757E+06
 0.11382000E+03  0.45980E+06
 0.11387000E+03  0.42506E+06
 0.11392000E+03  0.39313E+06
 0.11397000E+03  0.36113E+06
 0.11402000E+03  0.33898E+06
 0.11407000E+03  0.32709E+06
 0.11412000E+03  0.32096E+06
 0.11417000E+03  0.31374E+06
 0.11422000E+03  0.29736E+06
 0.11427000E+03  0.27228E+06
 0.11432000E+03  0.23804E+06
 0.11437000E+03  0.19830E+06
 0.11442000E+03  0.16209E+06
 0.11447000E+03  0.13042E+06
 0.11452000E+03  0.10330E+06
 0.11457000E+03  0.83672E+05
 0.11462000E+03  0.71978E+05
 0.11467000E+03  0.67728E+05
 0.11472000E+03  0.64450E+05
 0.11477000E+03  0.57926E+05
 0.11482000E+03  0.46622E+05
 0.11487000E+03  0.29833E+05
 0.11492000E+03  0.14503E+05
 0.11497000E+03 -0.16200E+03
 0.11502000E+03 -0.15046E+05
 0.11507000E+03 -0.20402E+05
 0.11512000E+03 -0.13667E+05
 0.11517000E+03 -0.20070E+04
 0.11522000E+03  0.10200E+05
 0.11527000E+03  0.16919E+05
 0.11532000E+03  0.18269E+05
 0.11537000E+03  0.19007E+05
 0.11542000E+03  0.14205E+05
 0.11547000E+03  0.73150E+04
 0.11552000E+03 -0.37700E+03
 0.11557000E+03 -0.14011E+05
 0.11562000E+03 -0.33331E+05
 0.11567000E+03 -0.62135E+05
 0.11572000E+03 -0.99232E+05
 0.11577000E+03 -0.13570E+06
 0.11582000E+03 -0.16725E+06
 0.11587000E+03 -0.19560E+06
 0.11592000E+03 -0.22405E+06
 0.11597000E+03 -0.25408E+06
 0.11602000E+03 -0.28158E+06
 0.11607000E+03 -0.30132E+06
 0.11612000E+03 -0.31444E+06
 0.11617000E+03 -0.32573E+06
 0.11622000E+03 -0.33549E+06
 0.11627000E+03 -0.33768E+06
 0.11632000E+03 -0.32944E+06
 0.11637000E+03 -0.31715E+06
 0.11642000E+03 -0.30610E+06
 0.11647000E+03 -0.29255E+06
 0.11652000E+03 -0.27563E+06
 0.11657000E+03 -0.26282E+06
 0.11662000E+03 -0.25381E+06
 0.11667000E+03 -0.24396E+06
 0.11672000E+03 -0.23639E+06
 0.11677000E+03 -0.23190E+06
 0.11682000E+03 -0.22691E+06
 0.11687000E+03 -0.21928E+06
 0.11692000E+03 -0.20962E+06
 0.11697000E+03 -0.19383E+06
 0.11702000E+03 -0.16741E+06
 0.11707000E+03 -0.13772E+06
 0.11712000E+03 -0.10509E+06
 0.11717000E+03 -0.64393E+05
 0.11722000E+03 -0.19812E+05
 0.11727000E+03  0.23936E+05
 0.11732000E+03  0.62175E+05
 0.11737000E+03  0.99417E+05
 0.11742000E+03  0.13974E+06
 0.11747000E+03  0.17498E+06
 0.11752000E+03  0.20525E+06
 0.11757000E+03  0.23612E+06
 0.11762000E+03  0.26239E+06
 0.11767000E+03  0.27614E+06
 0.11772000E+03  0.28276E+06
 0.11777000E+03  0.28306E+06
 0.11782000E+03  0.27292E+06
 0.11787000E+03  0.25721E+06
 0.11792000E+03  0.23606E+06
 0.11797000E+03  0.21493E+06
 0.11802000E+03  0.19605E+06
 0.11807000E+03  0.17804E+06
 0.11812000E+03  0.16716E+06
 0.11817000E+03  0.15434E+06
 0.11822000E+03  0.13637E+06
 0.11827000E+03  0.12518E+06
 0.11832000E+03  0.12506E+06
 0.11837000E+03  0.13708E+06
 0.11842000E+03  0.15380E+06
 0.11847000E+03  0.16956E+06
 0.11852000E+03  0.18850E+06
 0.11857000E+03  0.20955E+06
 0.11862000E+03  0.22964E+06
 0.11867000E+03  0.24090E+06
 0.11872000E+03  0.23735E+06
 0.11877000E+03  0.23001E+06
 0.11882000E+03  0.22284E+06
 0.11887000E+03  0.21120E+06
 0.11892000E+03  0.20321E+06
 0.11897000E+03  0.20123E+06
 0.11902000E+03  0.20132E+06
 0.11907000E+03  0.20468E+06
 0.11912000E+03  0.21188E+06
 0.11917000E+03  0.21751E+06
 0.11922000E+03  0.21378E+06
 0.11927000E+03  0.19903E+06
 0.11932000E+03  0.16968E+06
 0.11937000E+03  0.12421E+06
 0.11942000E+03  0.72375E+05
 0.11947000E+03  0.26110E+05
 0.11952000E+03 -0.10562E+05
 0.11957000E+03 -0.38881E+05
 0.11962000E+03 -0.62962E+05
 0.11967000E+03 -0.89173E+05
 0.11972000E+03 -0.11463E+06
 0.11977000E+03 -0.13348E+06
 0.11982000E+03 -0.15116E+06
 0.11987000E+03 -0.17487E+06
 0.11992000E+03 -0.20441E+06
 0.11997000E+03 -0.23104E+06
 0.12002000E+03 -0.25176E+06
 0.12007000E+03 -0.27212E+06
 0.12012000E+03 -0.28647E+06
 0.12017000E+03 -0.29919E+06
 0.12022000E+03 -0.31548E+06
 0.12027000E+03 -0.32151E+06
 0.12032000E+03 -0.31996E+06
 0.12037000E+03 -0.31719E+06
 0.12042000E+03 -0.31011E+06
 0.12047000E+03 -0.30208E+06
 0.12052000E+03 -0.29573E+06
 0.12057000E+03 -0.29406E+06
 0.12062000E+03 -0.29521E+06
 0.12067000E+03 -0.29407E+06
 0.12072000E+03 -0.28730E+06
 0.12077000E+03 -0.27147E+06
 0.12082000E+03 -0.25066E+06
 0.12087000E+03 -0.23016E+06
 0.12092000E+03 -0.21205E+06
 0.12097000E+03 -0.19559E+06
 0.12102000E+03 -0.17902E+06
 0.12107000E+03 -0.15944E+06
 0.12112000E+03 -0.13345E+06
 0.12117000E+03 -0.10524E+06
 0.12122000E+03 -0.80732E+05
 0.12127000E+03 -0.63402E+05
 0.12132000E+03 -0.49758E+05
 0.12137000E+03 -0.32866E+05
 0.12142000E+03 -0.15652E+05
 0.12147000E+03 -0.45770E+04
 0.12152000E+03  0.12600E+04
 0.12157000E+03  0.11431E+05
 0.12162000E+03  0.30410E+05
 0.12167000E+03  0.51035E+05
 0.12172000E+03  0.70734E+05
 0.12177000E+03  0.91138E+05
 0.12182000E+03  0.11273E+06
 0.12187000E+03  0.13294E+06
 0.12192000E+03  0.14960E+06
 0.12197000E+03  0.16945E+06
 0.12202000E+03  0.19334E+06
 0.12207000E+03  0.21439E+06
 0.12212000E+03  0.22680E+06
 0.12217000E+03  0.22824E+06
 0.12222000E+03  0.22288E+06
 0.12227000E+03  0.21393E+06
 0.12232000E+03  0.20599E+06
 0.12237000E+03  0.20823E+06
 0.12242000E+03  0.21816E+06
 0.12247000E+03  0.22674E+06
 0.12252000E+03  0.23469E+06
 0.12257000E+03  0.24081E+06
 0.12262000E+03  0.23812E+06
 0.12267000E+03  0.22287E+06
 0.12272000E+03  0.19977E+06
 0.12277000E+03  0.17817E+06
 0.12282000E+03  0.15989E+06
 0.12287000E+03  0.14638E+06
 0.12292000E+03  0.13884E+06
 0.12297000E+03  0.13170E+06
 0.12302000E+03  0.12247E+06
 0.12307000E+03  0.11170E+06
 0.12312000E+03  0.10528E+06
 0.12317000E+03  0.10974E+06
 0.12322000E+03  0.12079E+06
 0.12327000E+03  0.13614E+06
 0.12332000E+03  0.15502E+06
 0.12337000E+03  0.17237E+06
 0.12342000E+03  0.18827E+06
 0.12347000E+03  0.20513E+06
 0.12352000E+03  0.21603E+06
 0.12357000E+03  0.21314E+06
 0.12362000E+03  0.20825E+06
 0.12367000E+03  0.21024E+06
 0.12372000E+03  0.21412E+06
 0.12377000E+03  0.21425E+06
 0.12382000E+03  0.20223E+06
 0.12387000E+03  0.18341E+06
 0.12392000E+03  0.15925E+06
 0.12397000E+03  0.12615E+06
 0.12402000E+03  0.99002E+05
 0.12407000E+03  0.79679E+05
 0.12412000E+03  0.61511E+05
 0.12417000E+03  0.46028E+05
 0.12422000E+03  0.37144E+05
 0.12427000E+03  0.34000E+05
 0.12432000E+03  0.22732E+05
 0.12437000E+03  0.72400E+03
 0.12442000E+03 -0.23101E+05
 0.12447000E+03 -0.43829E+05
 0.12452000E+03 -0.62966E+05
 0.12457000E+03 -0.80108E+05
 0.12462000E+03 -0.94669E+05
 0.12467000E+03 -0.11339E+06
 0.12472000E+03 -0.13122E+06
 0.12477000E+03 -0.14675E+06
 0.12482000E+03 -0.16575E+06
 0.12487000E+03 -0.18350E+06
 0.12492000E+03 -0.19709E+06
 0.12497000E+03 -0.20685E+06
 0.12502000E+03 -0.21403E+06
 0.12507000E+03 -0.21924E+06
 0.12512000E+03 -0.22125E+06
 0.12517001E+03 -0.22084E+06
 0.12521999E+03 -0.22001E+06
 0.12527000E+03 -0.21946E+06
 0.12532000E+03 -0.21869E+06
 0.12537000E+03 -0.21218E+06
 0.12542001E+03 -0.19650E+06
 0.12546999E+03 -0.18286E+06
 0.12552000E+03 -0.17201E+06
 0.12557000E+03 -0.15791E+06
 0.12562000E+03 -0.15115E+06
 0.12567001E+03 -0.15005E+06
 0.12571999E+03 -0.14978E+06
 0.12577000E+03 -0.15523E+06
 0.12582000E+03 -0.16529E+06
 0.12587000E+03 -0.17967E+06
 0.12592001E+03 -0.19192E+06
 0.12596999E+03 -0.20267E+06
 0.12602000E+03 -0.21564E+06
 0.12607000E+03 -0.22516E+06
 0.12612000E+03 -0.23462E+06
 0.12617001E+03 -0.24075E+06
 0.12621999E+03 -0.23806E+06
 0.12627000E+03 -0.23111E+06
 0.12632000E+03 -0.21949E+06
 0.12637000E+03 -0.20494E+06
 0.12642001E+03 -0.19827E+06
 0.12646999E+03 -0.19967E+06
 0.12652000E+03 -0.20049E+06
 0.12657000E+03 -0.20369E+06
 0.12662000E+03 -0.20702E+06
 0.12667001E+03 -0.20606E+06
 0.12671999E+03 -0.20207E+06
 0.12677000E+03 -0.19694E+06
 0.12682000E+03 -0.19442E+06
 0.12687000E+03 -0.19170E+06
 0.12692001E+03 -0.19314E+06
 0.12696999E+03 -0.19751E+06
 0.12702000E+03 -0.20058E+06
 0.12707000E+03 -0.20478E+06
 0.12712000E+03 -0.20551E+06
 0.12717001E+03 -0.20316E+06
 0.12721999E+03 -0.19429E+06
 0.12727000E+03 -0.18114E+06
 0.12732000E+03 -0.17005E+06
 0.12737000E+03 -0.15328E+06
 0.12742001E+03 -0.13507E+06
 0.12746999E+03 -0.12082E+06
 0.12752000E+03 -0.10559E+06
 0.12757000E+03 -0.98311E+05
 0.12762000E+03 -0.10165E+06
 0.12767001E+03 -0.10368E+06
 0.12771999E+03 -0.97284E+05
 0.12777000E+03 -0.79073E+05
 0.12782000E+03 -0.60715E+05
 0.12787000E+03 -0.50241E+05
 0.12792001E+03 -0.40048E+05
 0.12796999E+03 -0.31872E+05
 0.12802000E+03 -0.22941E+05
 0.12807001E+03 -0.12033E+05
 0.12812001E+03 -0.73400E+04
 0.12817001E+03 -0.10450E+05
 0.12822000E+03 -0.20208E+05
 0.12827000E+03 -0.29640E+05
 0.12832001E+03 -0.33763E+05
 0.12837001E+03 -0.35510E+05
 0.12842001E+03 -0.31044E+05
 0.12847000E+03 -0.14901E+05
 0.12852000E+03  0.31340E+04
 0.12857001E+03  0.15617E+05
 0.12862001E+03  0.29152E+05
 0.12867001E+03  0.43642E+05
 0.12872000E+03  0.56172E+05
 0.12877000E+03  0.67652E+05
 0.12882001E+03  0.75340E+05
 0.12887001E+03  0.76122E+05
 0.12892001E+03  0.72954E+05
 0.12897000E+03  0.71983E+05
 0.12902000E+03  0.69963E+05
 0.12907001E+03  0.66651E+05
 0.12912001E+03  0.70603E+05
 0.12917001E+03  0.79232E+05
 0.12922000E+03  0.88417E+05
 0.12927000E+03  0.94439E+05
 0.12932001E+03  0.93388E+05
 0.12937001E+03  0.93620E+05
 0.12942001E+03  0.96214E+05
 0.12947000E+03  0.97941E+05
 0.12952000E+03  0.10156E+06
 0.12957001E+03  0.10106E+06
 0.12962001E+03  0.95203E+05
 0.12967001E+03  0.92270E+05
 0.12972000E+03  0.98076E+05
 0.12977000E+03  0.10726E+06
 0.12982001E+03  0.11285E+06
 0.12987001E+03  0.12199E+06
 0.12992001E+03  0.13185E+06
 0.12997000E+03  0.14072E+06
 0.13002000E+03  0.15674E+06
 0.13007001E+03  0.17143E+06
 0.13012001E+03  0.18036E+06
 0.13017001E+03  0.19230E+06
 0.13022000E+03  0.20638E+06
 0.13027000E+03  0.21746E+06
 0.13032001E+03  0.22853E+06
 0.13037001E+03  0.23748E+06
 0.13042001E+03  0.24138E+06
 0.13047000E+03  0.24332E+06
 0.13052000E+03  0.24467E+06
 0.13057001E+03  0.25208E+06
 0.13062001E+03  0.26435E+06
 0.13067001E+03  0.27445E+06
 0.13072000E+03  0.28119E+06
 0.13077000E+03  0.28121E+06
 0.13082001E+03  0.28032E+06
 0.13087001E+03  0.27968E+06
 0.13092001E+03  0.27071E+06
 0.13097000E+03  0.25632E+06
 0.13102000E+03  0.24333E+06
 0.13107001E+03  0.23298E+06
 0.13112001E+03  0.22383E+06
 0.13117001E+03  0.21633E+06
 0.13122000E+03  0.20441E+06
 0.13127000E+03  0.18612E+06
 0.13132001E+03  0.16935E+06
 0.13137001E+03  0.15804E+06
 0.13142001E+03  0.15823E+06
 0.13147000E+03  0.16909E+06
 0.13152000E+03  0.18314E+06
 0.13157001E+03  0.19368E+06
 0.13162001E+03  0.19782E+06
 0.13167001E+03  0.19975E+06
 0.13172000E+03  0.19872E+06
 0.13177000E+03  0.19378E+06
 0.13182001E+03  0.18846E+06
 0.13187001E+03  0.18058E+06
 0.13192001E+03  0.16683E+06
 0.13197000E+03  0.15289E+06
 0.13202000E+03  0.14127E+06
 0.13207001E+03  0.13315E+06
 0.13212001E+03  0.12686E+06
 0.13217001E+03  0.11636E+06
 0.13222000E+03  0.10899E+06
 0.13227000E+03  0.10655E+06
 0.13232001E+03  0.10379E+06
 0.13237001E+03  0.99188E+05
 0.13242001E+03  0.91352E+05
 0.13247000E+03  0.84154E+05
 0.13252000E+03  0.81910E+05
 0.13257001E+03  0.87198E+05
 0.13262001E+03  0.94512E+05
 0.13267001E+03  0.97685E+05
 0.13272000E+03  0.99149E+05
 0.13277000E+03  0.99791E+05
 0.13282001E+03  0.99738E+05
 0.13287001E+03  0.98538E+05
 0.13292001E+03  0.94527E+05
 0.13297000E+03  0.86841E+05
 0.13302000E+03  0.75146E+05
 0.13307001E+03  0.57405E+05
 0.13312001E+03  0.32450E+05
 0.13317001E+03  0.47120E+04
 0.13322000E+03 -0.26645E+05
 0.13327000E+03 -0.62055E+05
 0.13332001E+03 -0.97707E+05
 0.13337001E+03 -0.13524E+06
 0.13342001E+03 -0.17251E+06
 0.13347000E+03 -0.20556E+06
 0.13352000E+03 -0.23373E+06
 0.13357001E+03 -0.25631E+06
 0.13362001E+03 -0.27212E+06
 0.13367001E+03 -0.28066E+06
 0.13372000E+03 -0.28506E+06
 0.13377000E+03 -0.28678E+06
 0.13382001E+03 -0.28605E+06
 0.13387001E+03 -0.28446E+06
 0.13392001E+03 -0.28021E+06
 0.13397000E+03 -0.27059E+06
 0.13402000E+03 -0.25944E+06
 0.13407001E+03 -0.25028E+06
 0.13412001E+03 -0.24598E+06
 0.13417001E+03 -0.24761E+06
 0.13422000E+03 -0.24932E+06
 0.13427000E+03 -0.25198E+06
 0.13432001E+03 -0.25117E+06
 0.13437001E+03 -0.24568E+06
 0.13442001E+03 -0.24365E+06
 0.13447000E+03 -0.23737E+06
 0.13452000E+03 -0.22517E+06
 0.13457001E+03 -0.20978E+06
 0.13462001E+03 -0.18778E+06
 0.13467001E+03 -0.16402E+06
 0.13472000E+03 -0.13873E+06
 0.13477000E+03 -0.11314E+06
 0.13482001E+03 -0.91884E+05
 0.13487001E+03 -0.69536E+05
 0.13492001E+03 -0.45086E+05
 0.13497000E+03 -0.22945E+05
 0.13502000E+03 -0.63800E+04
 0.13507001E+03  0.44630E+04
 0.13512001E+03  0.14412E+05
 0.13517001E+03  0.22869E+05
 0.13522000E+03  0.29838E+05
 0.13527000E+03  0.38188E+05
 0.13532001E+03  0.50946E+05
 0.13537001E+03  0.66183E+05
 0.13542001E+03  0.76993E+05
 0.13547000E+03  0.86062E+05
 0.13552000E+03  0.91833E+05
 0.13557001E+03  0.85840E+05
 0.13562001E+03  0.73369E+05
 0.13567001E+03  0.66619E+05
 0.13572000E+03  0.64528E+05
 0.13577000E+03  0.59754E+05
 0.13582001E+03  0.54844E+05
 0.13587001E+03  0.53728E+05
 0.13592001E+03  0.56891E+05
 0.13597000E+03  0.67109E+05
 0.13602000E+03  0.84928E+05
 0.13607001E+03  0.10643E+06
 0.13612001E+03  0.13175E+06
 0.13617001E+03  0.15999E+06
 0.13622000E+03  0.18576E+06
 0.13627000E+03  0.21242E+06
 0.13632001E+03  0.23824E+06
 0.13637001E+03  0.25518E+06
 0.13642001E+03  0.26643E+06
 0.13647000E+03  0.27519E+06
 0.13652000E+03  0.28229E+06
 0.13657001E+03  0.28775E+06
 0.13662001E+03  0.28828E+06
 0.13667001E+03  0.28484E+06
 0.13672000E+03  0.28147E+06
 0.13677000E+03  0.27467E+06
 0.13682001E+03  0.26375E+06
 0.13687001E+03  0.25380E+06
 0.13692001E+03  0.24065E+06
 0.13697000E+03  0.21935E+06
 0.13702000E+03  0.19109E+06
 0.13707001E+03  0.15703E+06
 0.13712001E+03  0.11477E+06
 0.13717001E+03  0.67558E+05
 0.13722000E+03  0.18568E+05
 0.13727000E+03 -0.31442E+05
 0.13732001E+03 -0.74229E+05
 0.13737001E+03 -0.11105E+06
 0.13742001E+03 -0.14515E+06
 0.13747000E+03 -0.17367E+06
 0.13752000E+03 -0.19962E+06
 0.13757001E+03 -0.22438E+06
 0.13762001E+03 -0.24720E+06
 0.13767001E+03 -0.26471E+06
 0.13772000E+03 -0.27388E+06
 0.13777000E+03 -0.27701E+06
 0.13782001E+03 -0.27166E+06
 0.13787001E+03 -0.26269E+06
 0.13792001E+03 -0.26096E+06
 0.13797000E+03 -0.26575E+06
 0.13802000E+03 -0.27548E+06
 0.13807001E+03 -0.28820E+06
 0.13812001E+03 -0.30210E+06
 0.13817001E+03 -0.31753E+06
 0.13822000E+03 -0.33193E+06
 0.13827000E+03 -0.34630E+06
 0.13832001E+03 -0.35938E+06
 0.13837001E+03 -0.36733E+06
 0.13842001E+03 -0.37139E+06
 0.13847000E+03 -0.37455E+06
 0.13852000E+03 -0.37636E+06
 0.13857001E+03 -0.37264E+06
 0.13862001E+03 -0.36434E+06
 0.13867001E+03 -0.35664E+06
 0.13872000E+03 -0.35031E+06
 0.13877000E+03 -0.34446E+06
 0.13882001E+03 -0.34227E+06
 0.13887001E+03 -0.34353E+06
 0.13892001E+03 -0.34285E+06
 0.13897000E+03 -0.33935E+06
 0.13902000E+03 -0.33414E+06
 0.13907001E+03 -0.32505E+06
 0.13912001E+03 -0.31254E+06
 0.13917001E+03 -0.29594E+06
 0.13922000E+03 -0.27248E+06
 0.13927000E+03 -0.24655E+06
 0.13932001E+03 -0.22256E+06
 0.13937001E+03 -0.19948E+06
 0.13942001E+03 -0.17707E+06
 0.13947000E+03 -0.15659E+06
 0.13952000E+03 -0.13531E+06
 0.13957001E+03 -0.11126E+06
 0.13962001E+03 -0.89857E+05
 0.13967001E+03 -0.74909E+05
 0.13972000E+03 -0.63008E+05
 0.13977000E+03 -0.50884E+05
 0.13982001E+03 -0.36052E+05
 0.13987001E+03 -0.15436E+05
 0.13992001E+03  0.12407E+05
 0.13997000E+03  0.48476E+05
 0.14002000E+03  0.93012E+05
 0.14007001E+03  0.14294E+06
 0.14012001E+03  0.19219E+06
 0.14017001E+03  0.23977E+06
 0.14022000E+03  0.28522E+06
 0.14027000E+03  0.32875E+06
 0.14032001E+03  0.37138E+06
 0.14037001E+03  0.40531E+06
 0.14042001E+03  0.42866E+06
 0.14047000E+03  0.44241E+06
 0.14052000E+03  0.44718E+06
 0.14057001E+03  0.44692E+06
 0.14062001E+03  0.43913E+06
 0.14067001E+03  0.42548E+06
 0.14072000E+03  0.40879E+06
 0.14077000E+03  0.38704E+06
 0.14082001E+03  0.36210E+06
 0.14087001E+03  0.33693E+06
 0.14092001E+03  0.31298E+06
 0.14097000E+03  0.29042E+06
 0.14102000E+03  0.26795E+06
 0.14107001E+03  0.24780E+06
 0.14112001E+03  0.23248E+06
 0.14117001E+03  0.21972E+06
 0.14122000E+03  0.20902E+06
 0.14127000E+03  0.19996E+06
 0.14132001E+03  0.19478E+06
 0.14137001E+03  0.19220E+06
 0.14142001E+03  0.18673E+06
 0.14147000E+03  0.18442E+06
 0.14152000E+03  0.18578E+06
 0.14157001E+03  0.18738E+06
 0.14162001E+03  0.19169E+06
 0.14167001E+03  0.19588E+06
 0.14172000E+03  0.19907E+06
 0.14177000E+03  0.19980E+06
 0.14182001E+03  0.20193E+06
 0.14187001E+03  0.21123E+06
 0.14192001E+03  0.22170E+06
 0.14197000E+03  0.23305E+06
 0.14202000E+03  0.24604E+06
 0.14207001E+03  0.25659E+06
 0.14212001E+03  0.26669E+06
 0.14217001E+03  0.27752E+06
 0.14222000E+03  0.28604E+06
 0.14227000E+03  0.28829E+06
 0.14232001E+03  0.28062E+06
 0.14237001E+03  0.26575E+06
 0.14242001E+03  0.24812E+06
 0.14247000E+03  0.22776E+06
 0.14252000E+03  0.20548E+06
 0.14257001E+03  0.18140E+06
 0.14262001E+03  0.15603E+06
 0.14267001E+03  0.13228E+06
 0.14272000E+03  0.11581E+06
 0.14277000E+03  0.10545E+06
 0.14282001E+03  0.93002E+05
 0.14287001E+03  0.78679E+05
 0.14292001E+03  0.64902E+05
 0.14297000E+03  0.54503E+05
 0.14302000E+03  0.44516E+05
 0.14307001E+03  0.32881E+05
 0.14312001E+03  0.26104E+05
 0.14317001E+03  0.18989E+05
 0.14322000E+03  0.80540E+04
 0.14327000E+03 -0.48790E+04
 0.14332001E+03 -0.17669E+05
 0.14337001E+03 -0.24878E+05
 0.14342001E+03 -0.31138E+05
 0.14347000E+03 -0.42338E+05
 0.14352000E+03 -0.56642E+05
 0.14357001E+03 -0.70280E+05
 0.14362001E+03 -0.82015E+05
 0.14367001E+03 -0.91016E+05
 0.14372000E+03 -0.96705E+05
 0.14377000E+03 -0.96620E+05
 0.14382001E+03 -0.89102E+05
 0.14387001E+03 -0.79479E+05
 0.14392001E+03 -0.69783E+05
 0.14397000E+03 -0.57367E+05
 0.14402000E+03 -0.41410E+05
 0.14407001E+03 -0.27226E+05
 0.14412001E+03 -0.17451E+05
 0.14417001E+03 -0.10129E+05
 0.14422000E+03 -0.77800E+04
 0.14427000E+03 -0.10340E+05
 0.14432001E+03 -0.18004E+05
 0.14437001E+03 -0.28623E+05
 0.14442001E+03 -0.38739E+05
 0.14447000E+03 -0.47301E+05
 0.14452000E+03 -0.47227E+05
 0.14457001E+03 -0.41239E+05
 0.14462001E+03 -0.38059E+05
 0.14467001E+03 -0.37483E+05
 0.14472000E+03 -0.40270E+05
 0.14477000E+03 -0.43568E+05
 0.14482001E+03 -0.46526E+05
 0.14487001E+03 -0.52975E+05
 0.14492001E+03 -0.60013E+05
 0.14497000E+03 -0.66891E+05
 0.14502000E+03 -0.72947E+05
 0.14507001E+03 -0.75666E+05
 0.14512001E+03 -0.76488E+05
 0.14517001E+03 -0.78311E+05
 0.14522000E+03 -0.79701E+05
 0.14527000E+03 -0.76671E+05
 0.14532001E+03 -0.72249E+05
 0.14537001E+03 -0.70162E+05
 0.14542001E+03 -0.68611E+05
 0.14547000E+03 -0.66634E+05
 0.14552000E+03 -0.64159E+05
 0.14557001E+03 -0.60876E+05
 0.14562001E+03 -0.62135E+05
 0.14567001E+03 -0.67999E+05
 0.14572000E+03 -0.73927E+05
 0.14577000E+03 -0.83308E+05
 0.14582001E+03 -0.94466E+05
 0.14587001E+03 -0.10198E+06
 0.14592001E+03 -0.10666E+06
 0.14597000E+03 -0.11007E+06
 0.14602000E+03 -0.11100E+06
 0.14607001E+03 -0.10991E+06
 0.14612001E+03 -0.10962E+06
 0.14617001E+03 -0.10951E+06
 0.14622000E+03 -0.11228E+06
 0.14627000E+03 -0.12311E+06
 0.14632001E+03 -0.13865E+06
 0.14637001E+03 -0.15380E+06
 0.14642001E+03 -0.16815E+06
 0.14647000E+03 -0.18369E+06
 0.14652000E+03 -0.20098E+06
 0.14657001E+03 -0.21610E+06
 0.14662001E+03 -0.22786E+06
 0.14667001E+03 -0.23753E+06
 0.14672000E+03 -0.24377E+06
 0.14677000E+03 -0.25018E+06
 0.14682001E+03 -0.26176E+06
 0.14687001E+03 -0.27915E+06
 0.14692001E+03 -0.29663E+06
 0.14697000E+03 -0.30802E+06
 0.14702000E+03 -0.31718E+06
 0.14707001E+03 -0.32756E+06
 0.14712001E+03 -0.33846E+06
 0.14717001E+03 -0.34435E+06
 0.14722000E+03 -0.34540E+06
 0.14727000E+03 -0.34991E+06
 0.14732001E+03 -0.35543E+06
 0.14737001E+03 -0.36075E+06
 0.14742001E+03 -0.36645E+06
 0.14747000E+03 -0.37179E+06
 0.14752000E+03 -0.37838E+06
 0.14757001E+03 -0.38183E+06
 0.14762001E+03 -0.38001E+06
 0.14767001E+03 -0.37260E+06
 0.14772000E+03 -0.35703E+06
 0.14777000E+03 -0.33455E+06
 0.14782001E+03 -0.30964E+06
 0.14787001E+03 -0.28422E+06
 0.14792001E+03 -0.25954E+06
 0.14797000E+03 -0.23514E+06
 0.14802000E+03 -0.20900E+06
 0.14807001E+03 -0.18185E+06
 0.14812001E+03 -0.15252E+06
 0.14817001E+03 -0.12103E+06
 0.14822000E+03 -0.84092E+05
 0.14827000E+03 -0.40808E+05
 0.14832001E+03  0.78700E+03
 0.14837001E+03  0.42328E+05
 0.14842001E+03  0.84744E+05
 0.14847000E+03  0.12249E+06
 0.14852000E+03  0.15556E+06
 0.14857001E+03  0.18557E+06
 0.14862001E+03  0.21315E+06
 0.14867001E+03  0.23818E+06
 0.14872000E+03  0.26272E+06
 0.14877000E+03  0.28479E+06
 0.14882001E+03  0.30219E+06
 0.14887001E+03  0.31587E+06
 0.14892001E+03  0.32474E+06
 0.14897000E+03  0.33252E+06
 0.14902000E+03  0.33907E+06
 0.14907001E+03  0.34098E+06
 0.14912001E+03  0.33735E+06
 0.14917001E+03  0.33194E+06
 0.14922000E+03  0.32990E+06
 0.14927000E+03  0.32508E+06
 0.14932001E+03  0.31440E+06
 0.14937001E+03  0.29987E+06
 0.14942001E+03  0.27852E+06
 0.14947000E+03  0.25060E+06
 0.14952000E+03  0.22010E+06
 0.14957001E+03  0.18726E+06
 0.14962001E+03  0.15388E+06
 0.14967001E+03  0.12450E+06
 0.14972000E+03  0.98674E+05
 0.14977000E+03  0.76784E+05
 0.14982001E+03  0.61349E+05
 0.14987001E+03  0.54029E+05
 0.14992001E+03  0.53571E+05
 0.14997000E+03  0.54574E+05
