-0.29800000E+01 -0.26509E+05
-0.29300001E+01 -0.24647E+05
-0.28800001E+01 -0.23200E+05
-0.28299999E+01 -0.21281E+05
-0.27800000E+01 -0.19253E+05
-0.27300000E+01 -0.17915E+05
-0.26800001E+01 -0.17224E+05
-0.26300001E+01 -0.17409E+05
-0.25799999E+01 -0.18573E+05
-0.25300000E+01 -0.20177E+05
-0.24800000E+01 -0.21731E+05
-0.24300001E+01 -0.23120E+05
-0.23800001E+01 -0.24156E+05
-0.23299999E+01 -0.24086E+05
-0.22800000E+01 -0.22684E+05
-0.22300000E+01 -0.20403E+05
-0.21800001E+01 -0.17861E+05
-0.21300001E+01 -0.15745E+05
-0.20799999E+01 -0.14580E+05
-0.20300000E+01 -0.14151E+05
-0.19800000E+01 -0.13590E+05
-0.19299999E+01 -0.12832E+05
-0.18800000E+01 -0.12298E+05
-0.18300000E+01 -0.12010E+05
-0.17800000E+01 -0.11819E+05
-0.17300000E+01 -0.11571E+05
-0.16799999E+01 -0.12213E+05
-0.16300000E+01 -0.14935E+05
-0.15800000E+01 -0.19030E+05
-0.15300000E+01 -0.23269E+05
-0.14800000E+01 -0.27106E+05
-0.14299999E+01 -0.29762E+05
-0.13800000E+01 -0.29898E+05
-0.13300000E+01 -0.27123E+05
-0.12800000E+01 -0.22667E+05
-0.12300000E+01 -0.17227E+05
-0.11799999E+01 -0.10547E+05
-0.11300000E+01 -0.27700E+04
-0.10800000E+01  0.55990E+04
-0.10300000E+01  0.14818E+05
-0.98000002E+00  0.25419E+05
-0.93000007E+00  0.36991E+05
-0.87999988E+00  0.48830E+05
-0.82999992E+00  0.60045E+05
-0.77999997E+00  0.69879E+05
-0.73000002E+00  0.78208E+05
-0.68000007E+00  0.85195E+05
-0.62999988E+00  0.91003E+05
-0.57999992E+00  0.95536E+05
-0.52999997E+00  0.99023E+05
-0.48000002E+00  0.10164E+06
-0.43000007E+00  0.10291E+06
-0.37999988E+00  0.10201E+06
-0.32999992E+00  0.98901E+05
-0.27999997E+00  0.95078E+05
-0.23000002E+00  0.91887E+05
-0.18000007E+00  0.89601E+05
-0.12999988E+00  0.87931E+05
-0.79999924E-01  0.86878E+05
-0.29999971E-01  0.86094E+05
 0.19999981E-01  0.84420E+05
 0.69999933E-01  0.81295E+05
 0.12000012E+00  0.77515E+05
 0.17000008E+00  0.74058E+05
 0.22000003E+00  0.70726E+05
 0.26999998E+00  0.66615E+05
 0.31999993E+00  0.61268E+05
 0.37000012E+00  0.54550E+05
 0.42000008E+00  0.46289E+05
 0.47000003E+00  0.36865E+05
 0.51999998E+00  0.26746E+05
 0.56999993E+00  0.16414E+05
 0.62000012E+00  0.67880E+04
 0.67000008E+00 -0.17920E+04
 0.72000003E+00 -0.90720E+04
 0.76999998E+00 -0.14287E+05
 0.81999993E+00 -0.16865E+05
 0.87000012E+00 -0.16736E+05
 0.92000008E+00 -0.14443E+05
 0.97000003E+00 -0.10554E+05
 0.10200000E+01 -0.54990E+04
 0.10700002E+01  0.42900E+03
 0.11199999E+01  0.66830E+04
 0.11700001E+01  0.12515E+05
 0.12200003E+01  0.17968E+05
 0.12700000E+01  0.23302E+05
 0.13200002E+01  0.28737E+05
 0.13699999E+01  0.33921E+05
 0.14200001E+01  0.37917E+05
 0.14700003E+01  0.40286E+05
 0.15200000E+01  0.40506E+05
 0.15700002E+01  0.38415E+05
 0.16199999E+01  0.34772E+05
 0.16700001E+01  0.30232E+05
 0.17200003E+01  0.25380E+05
 0.17700000E+01  0.20953E+05
 0.18200002E+01  0.17583E+05
 0.18699999E+01  0.15792E+05
 0.19200001E+01  0.15410E+05
 0.19700003E+01  0.15519E+05
 0.20200000E+01  0.15067E+05
 0.20700002E+01  0.13475E+05
 0.21199999E+01  0.11139E+05
 0.21700001E+01  0.87000E+04
 0.22200003E+01  0.62880E+04
 0.22700000E+01  0.37780E+04
 0.23200002E+01  0.13980E+04
 0.23699999E+01 -0.43000E+03
 0.24200001E+01 -0.21420E+04
 0.24700003E+01 -0.42000E+04
 0.25200000E+01 -0.64120E+04
 0.25700002E+01 -0.86070E+04
 0.26199999E+01 -0.10834E+05
 0.26700001E+01 -0.13201E+05
 0.27200003E+01 -0.15158E+05
 0.27700000E+01 -0.16270E+05
 0.28200002E+01 -0.16513E+05
 0.28699999E+01 -0.15561E+05
 0.29200001E+01 -0.13634E+05
 0.29700003E+01 -0.11830E+05
 0.30200000E+01 -0.10787E+05
 0.30700002E+01 -0.10509E+05
 0.31199999E+01 -0.11631E+05
 0.31700001E+01 -0.14406E+05
 0.32200003E+01 -0.18163E+05
 0.32700000E+01 -0.22394E+05
 0.33200002E+01 -0.26371E+05
 0.33699999E+01 -0.29519E+05
 0.34200001E+01 -0.32020E+05
 0.34700003E+01 -0.33940E+05
 0.35200000E+01 -0.35135E+05
 0.35700002E+01 -0.35666E+05
 0.36199999E+01 -0.35755E+05
 0.36700001E+01 -0.35664E+05
 0.37200003E+01 -0.35380E+05
 0.37700000E+01 -0.34756E+05
 0.38200002E+01 -0.33305E+05
 0.38699999E+01 -0.30533E+05
 0.39200001E+01 -0.27081E+05
 0.39700003E+01 -0.24101E+05
 0.40200000E+01 -0.22108E+05
 0.40700002E+01 -0.20403E+05
 0.41199999E+01 -0.18235E+05
 0.41700001E+01 -0.15784E+05
 0.42200003E+01 -0.13279E+05
 0.42700000E+01 -0.10368E+05
 0.43200002E+01 -0.62010E+04
 0.43699999E+01 -0.56800E+03
 0.44200001E+01  0.62110E+04
 0.44700003E+01  0.13729E+05
 0.45200000E+01  0.21357E+05
 0.45700002E+01  0.29010E+05
 0.46199999E+01  0.37092E+05
 0.46700001E+01  0.45719E+05
 0.47200003E+01  0.54328E+05
 0.47700000E+01  0.62453E+05
 0.48200002E+01  0.69925E+05
 0.48699999E+01  0.76207E+05
 0.49200001E+01  0.81382E+05
 0.49700003E+01  0.86168E+05
 0.50200000E+01  0.90366E+05
 0.50700002E+01  0.93291E+05
 0.51200004E+01  0.94837E+05
 0.51700006E+01  0.95081E+05
 0.52199998E+01  0.94176E+05
 0.52700000E+01  0.92590E+05
 0.53200002E+01  0.90312E+05
 0.53700004E+01  0.86666E+05
 0.54200006E+01  0.81244E+05
 0.54699998E+01  0.74448E+05
 0.55200000E+01  0.67172E+05
 0.55700002E+01  0.60101E+05
 0.56200004E+01  0.53788E+05
 0.56700006E+01  0.48925E+05
 0.57199998E+01  0.45691E+05
 0.57700000E+01  0.43477E+05
 0.58200002E+01  0.41701E+05
 0.58700004E+01  0.40424E+05
 0.59200006E+01  0.39642E+05
 0.59699998E+01  0.38803E+05
 0.60200000E+01  0.37375E+05
 0.60700002E+01  0.35572E+05
 0.61200004E+01  0.34186E+05
 0.61700006E+01  0.33172E+05
 0.62199998E+01  0.31728E+05
 0.62700000E+01  0.29728E+05
 0.63200002E+01  0.27641E+05
 0.63700004E+01  0.25341E+05
 0.64200006E+01  0.22021E+05
 0.64699998E+01  0.17057E+05
 0.65200000E+01  0.10601E+05
 0.65700002E+01  0.36720E+04
 0.66200004E+01 -0.34270E+04
 0.66700006E+01 -0.11081E+05
 0.67199998E+01 -0.18582E+05
 0.67700000E+01 -0.25460E+05
 0.68200002E+01 -0.32179E+05
 0.68700004E+01 -0.39084E+05
 0.69200006E+01 -0.46059E+05
 0.69699998E+01 -0.52680E+05
 0.70200000E+01 -0.58914E+05
 0.70700002E+01 -0.64621E+05
 0.71200004E+01 -0.69072E+05
 0.71700006E+01 -0.71792E+05
 0.72199998E+01 -0.73303E+05
 0.72700000E+01 -0.74269E+05
 0.73200002E+01 -0.74559E+05
 0.73700004E+01 -0.74389E+05
 0.74200006E+01 -0.74414E+05
 0.74699998E+01 -0.74703E+05
 0.75200000E+01 -0.75250E+05
 0.75700002E+01 -0.76097E+05
 0.76200004E+01 -0.76844E+05
 0.76700006E+01 -0.77228E+05
 0.77199998E+01 -0.77398E+05
 0.77700000E+01 -0.77501E+05
 0.78200002E+01 -0.77283E+05
 0.78700004E+01 -0.76401E+05
 0.79200006E+01 -0.75305E+05
 0.79699998E+01 -0.74110E+05
 0.80200005E+01 -0.71992E+05
 0.80699997E+01 -0.68696E+05
 0.81200008E+01 -0.64366E+05
 0.81700001E+01 -0.59010E+05
 0.82199993E+01 -0.52488E+05
 0.82700005E+01 -0.44870E+05
 0.83199997E+01 -0.36183E+05
 0.83700008E+01 -0.25693E+05
 0.84200001E+01 -0.13248E+05
 0.84699993E+01  0.80700E+03
 0.85200005E+01  0.16161E+05
 0.85699997E+01  0.31666E+05
 0.86200008E+01  0.45851E+05
 0.86700001E+01  0.57881E+05
 0.87199993E+01  0.67959E+05
 0.87700005E+01  0.76252E+05
 0.88199997E+01  0.82281E+05
 0.88700008E+01  0.85920E+05
 0.89200001E+01  0.86888E+05
 0.89699993E+01  0.84625E+05
 0.90200005E+01  0.79111E+05
 0.90699997E+01  0.70212E+05
 0.91200008E+01  0.57744E+05
 0.91700001E+01  0.42403E+05
 0.92199993E+01  0.25308E+05
 0.92700005E+01  0.73260E+04
 0.93199997E+01 -0.10909E+05
 0.93700008E+01 -0.28701E+05
 0.94200001E+01 -0.45015E+05
 0.94699993E+01 -0.59122E+05
 0.95200005E+01 -0.70670E+05
 0.95699997E+01 -0.79578E+05
 0.96200008E+01 -0.86013E+05
 0.96700001E+01 -0.89392E+05
 0.97199993E+01 -0.89078E+05
 0.97700005E+01 -0.85057E+05
 0.98199997E+01 -0.77797E+05
 0.98700008E+01 -0.67949E+05
 0.99200001E+01 -0.55980E+05
 0.99699993E+01 -0.43012E+05
 0.10020000E+02 -0.29995E+05
 0.10070000E+02 -0.17134E+05
 0.10120001E+02 -0.49860E+04
 0.10170000E+02  0.58920E+04
 0.10219999E+02  0.15451E+05
 0.10270000E+02  0.23823E+05
 0.10320000E+02  0.31093E+05
 0.10370001E+02  0.37358E+05
 0.10420000E+02  0.42526E+05
 0.10469999E+02  0.46059E+05
 0.10520000E+02  0.47589E+05
 0.10570000E+02  0.47251E+05
 0.10620001E+02  0.45572E+05
 0.10670000E+02  0.43269E+05
 0.10719999E+02  0.40337E+05
 0.10770000E+02  0.36604E+05
 0.10820000E+02  0.32209E+05
 0.10870001E+02  0.26748E+05
 0.10920000E+02  0.20220E+05
 0.10969999E+02  0.13299E+05
 0.11020000E+02  0.63140E+04
 0.11070000E+02 -0.30300E+03
 0.11120001E+02 -0.60900E+04
 0.11170000E+02 -0.11121E+05
 0.11219999E+02 -0.15566E+05
 0.11270000E+02 -0.19542E+05
 0.11320000E+02 -0.22898E+05
 0.11370001E+02 -0.25095E+05
 0.11420000E+02 -0.25942E+05
 0.11469999E+02 -0.25664E+05
 0.11520000E+02 -0.24448E+05
 0.11570000E+02 -0.22068E+05
 0.11620001E+02 -0.18417E+05
 0.11670000E+02 -0.14411E+05
 0.11719999E+02 -0.11051E+05
 0.11770000E+02 -0.84860E+04
 0.11820000E+02 -0.61650E+04
 0.11870001E+02 -0.36800E+04
 0.11920000E+02 -0.13710E+04
 0.11969999E+02  0.52100E+03
 0.12020000E+02  0.18450E+04
 0.12070000E+02  0.24790E+04
 0.12120001E+02  0.27030E+04
 0.12170000E+02  0.25430E+04
 0.12219999E+02  0.15300E+04
 0.12270000E+02 -0.10870E+04
 0.12320000E+02 -0.51910E+04
 0.12370001E+02 -0.93570E+04
 0.12420000E+02 -0.12963E+05
 0.12469999E+02 -0.16428E+05
 0.12520000E+02 -0.20008E+05
 0.12570000E+02 -0.23399E+05
 0.12620001E+02 -0.25997E+05
 0.12670000E+02 -0.27960E+05
 0.12719999E+02 -0.29548E+05
 0.12770000E+02 -0.30623E+05
 0.12820000E+02 -0.31010E+05
 0.12870001E+02 -0.30376E+05
 0.12920000E+02 -0.28399E+05
 0.12969999E+02 -0.25628E+05
 0.13020000E+02 -0.23478E+05
 0.13070002E+02 -0.22685E+05
 0.13120001E+02 -0.23349E+05
 0.13170000E+02 -0.25167E+05
 0.13220001E+02 -0.27656E+05
 0.13270000E+02 -0.30542E+05
 0.13320002E+02 -0.33429E+05
 0.13370001E+02 -0.35974E+05
 0.13420000E+02 -0.37528E+05
 0.13470001E+02 -0.37737E+05
 0.13520000E+02 -0.36899E+05
 0.13570002E+02 -0.35264E+05
 0.13620001E+02 -0.33315E+05
 0.13670000E+02 -0.31381E+05
 0.13720001E+02 -0.29263E+05
 0.13770000E+02 -0.26742E+05
 0.13820002E+02 -0.23700E+05
 0.13870001E+02 -0.20508E+05
 0.13920000E+02 -0.17684E+05
 0.13970001E+02 -0.15352E+05
 0.14020000E+02 -0.13719E+05
 0.14070002E+02 -0.12543E+05
 0.14120001E+02 -0.11362E+05
 0.14170000E+02 -0.10027E+05
 0.14220001E+02 -0.81160E+04
 0.14270000E+02 -0.51540E+04
 0.14320002E+02 -0.91200E+03
 0.14370001E+02  0.43050E+04
 0.14420000E+02  0.10134E+05
 0.14470001E+02  0.16512E+05
 0.14520000E+02  0.23086E+05
 0.14570002E+02  0.29706E+05
 0.14620001E+02  0.36453E+05
 0.14670000E+02  0.42953E+05
 0.14720001E+02  0.48959E+05
 0.14770000E+02  0.54391E+05
 0.14820002E+02  0.58757E+05
 0.14870001E+02  0.61480E+05
 0.14920000E+02  0.62628E+05
 0.14970001E+02  0.63055E+05
 0.15020000E+02  0.63644E+05
 0.15070002E+02  0.64995E+05
 0.15120001E+02  0.67391E+05
 0.15170000E+02  0.71057E+05
 0.15220001E+02  0.76183E+05
 0.15270000E+02  0.82212E+05
 0.15320002E+02  0.88375E+05
 0.15370001E+02  0.94239E+05
 0.15420000E+02  0.99534E+05
 0.15470001E+02  0.10435E+06
 0.15520000E+02  0.10847E+06
 0.15570002E+02  0.11148E+06
 0.15620001E+02  0.11363E+06
 0.15670000E+02  0.11477E+06
 0.15720001E+02  0.11436E+06
 0.15770000E+02  0.11245E+06
 0.15820002E+02  0.10946E+06
 0.15870001E+02  0.10566E+06
 0.15920000E+02  0.10058E+06
 0.15970001E+02  0.93473E+05
 0.16020000E+02  0.84299E+05
 0.16070002E+02  0.73571E+05
 0.16120001E+02  0.61872E+05
 0.16170000E+02  0.49722E+05
 0.16220001E+02  0.37717E+05
 0.16270000E+02  0.26628E+05
 0.16320002E+02  0.17056E+05
 0.16370001E+02  0.93110E+04
 0.16420000E+02  0.30140E+04
 0.16470001E+02 -0.19960E+04
 0.16520000E+02 -0.54380E+04
 0.16570002E+02 -0.78220E+04
 0.16620001E+02 -0.95280E+04
 0.16670000E+02 -0.10340E+05
 0.16720001E+02 -0.99790E+04
 0.16770000E+02 -0.84530E+04
 0.16820002E+02 -0.61120E+04
 0.16870001E+02 -0.30990E+04
 0.16920000E+02  0.17400E+03
 0.16970001E+02  0.31070E+04
 0.17020000E+02  0.50010E+04
 0.17070002E+02  0.51130E+04
 0.17120001E+02  0.35080E+04
 0.17170000E+02  0.31800E+03
 0.17220001E+02 -0.41570E+04
 0.17270000E+02 -0.92770E+04
 0.17320002E+02 -0.15070E+05
 0.17370001E+02 -0.21588E+05
 0.17420000E+02 -0.28453E+05
 0.17470001E+02 -0.35335E+05
 0.17520000E+02 -0.42039E+05
 0.17570002E+02 -0.48399E+05
 0.17620001E+02 -0.54178E+05
 0.17670000E+02 -0.59311E+05
 0.17720001E+02 -0.64268E+05
 0.17770000E+02 -0.69467E+05
 0.17820002E+02 -0.74597E+05
 0.17870001E+02 -0.79214E+05
 0.17920000E+02 -0.83554E+05
 0.17970001E+02 -0.88292E+05
 0.18020000E+02 -0.93384E+05
 0.18070002E+02 -0.98111E+05
 0.18120001E+02 -0.10221E+06
 0.18170000E+02 -0.10615E+06
 0.18220001E+02 -0.11039E+06
 0.18270000E+02 -0.11492E+06
 0.18320002E+02 -0.11918E+06
 0.18370001E+02 -0.12249E+06
 0.18420000E+02 -0.12492E+06
 0.18470001E+02 -0.12625E+06
 0.18520000E+02 -0.12564E+06
 0.18570002E+02 -0.12275E+06
 0.18620001E+02 -0.11829E+06
 0.18670000E+02 -0.11312E+06
 0.18720001E+02 -0.10660E+06
 0.18770000E+02 -0.98138E+05
 0.18820002E+02 -0.88421E+05
 0.18870001E+02 -0.77925E+05
 0.18920000E+02 -0.66172E+05
 0.18970001E+02 -0.52888E+05
 0.19020000E+02 -0.38923E+05
 0.19070002E+02 -0.25217E+05
 0.19120001E+02 -0.12190E+05
 0.19170000E+02  0.12600E+03
 0.19220001E+02  0.11796E+05
 0.19270000E+02  0.22791E+05
 0.19320002E+02  0.33199E+05
 0.19370001E+02  0.42476E+05
 0.19420000E+02  0.50368E+05
 0.19470001E+02  0.57592E+05
 0.19520000E+02  0.64080E+05
 0.19570002E+02  0.69672E+05
 0.19620001E+02  0.75052E+05
 0.19670000E+02  0.80311E+05
 0.19720001E+02  0.84562E+05
 0.19770000E+02  0.87277E+05
 0.19820002E+02  0.88906E+05
 0.19870001E+02  0.89815E+05
 0.19920000E+02  0.89441E+05
 0.19970001E+02  0.87565E+05
 0.20020000E+02  0.84850E+05
 0.20070002E+02  0.81355E+05
 0.20120001E+02  0.77021E+05
 0.20170000E+02  0.72395E+05
 0.20220001E+02  0.67771E+05
 0.20270000E+02  0.62928E+05
 0.20320002E+02  0.57604E+05
 0.20370001E+02  0.52121E+05
 0.20420000E+02  0.46901E+05
 0.20470001E+02  0.41984E+05
 0.20520000E+02  0.37280E+05
 0.20570002E+02  0.32097E+05
 0.20620001E+02  0.25738E+05
 0.20670000E+02  0.18278E+05
 0.20720001E+02  0.10210E+05
 0.20770000E+02  0.20840E+04
 0.20820002E+02 -0.58860E+04
 0.20870001E+02 -0.13563E+05
 0.20920000E+02 -0.21058E+05
 0.20970001E+02 -0.28637E+05
 0.21020000E+02 -0.36054E+05
 0.21070002E+02 -0.42705E+05
 0.21120001E+02 -0.48281E+05
 0.21170000E+02 -0.52958E+05
 0.21220001E+02 -0.56816E+05
 0.21270000E+02 -0.59706E+05
 0.21320002E+02 -0.61389E+05
 0.21370001E+02 -0.61770E+05
 0.21420000E+02 -0.61107E+05
 0.21470001E+02 -0.59766E+05
 0.21520000E+02 -0.58104E+05
 0.21570002E+02 -0.56497E+05
 0.21620001E+02 -0.55126E+05
 0.21670000E+02 -0.53854E+05
 0.21720001E+02 -0.52501E+05
 0.21770000E+02 -0.50830E+05
 0.21820002E+02 -0.48663E+05
 0.21870001E+02 -0.45950E+05
 0.21920000E+02 -0.42757E+05
 0.21970001E+02 -0.39581E+05
 0.22020000E+02 -0.36669E+05
 0.22070002E+02 -0.33775E+05
 0.22120001E+02 -0.30663E+05
 0.22170000E+02 -0.26983E+05
 0.22220001E+02 -0.22603E+05
 0.22270000E+02 -0.17498E+05
 0.22320002E+02 -0.11438E+05
 0.22370001E+02 -0.41880E+04
 0.22420000E+02  0.42440E+04
 0.22470001E+02  0.13579E+05
 0.22520000E+02  0.23344E+05
 0.22570002E+02  0.32994E+05
 0.22620001E+02  0.42049E+05
 0.22670000E+02  0.50139E+05
 0.22720001E+02  0.57618E+05
 0.22770000E+02  0.64855E+05
 0.22820002E+02  0.71709E+05
 0.22870001E+02  0.77970E+05
 0.22920000E+02  0.83631E+05
 0.22970001E+02  0.89116E+05
 0.23020000E+02  0.94407E+05
 0.23070002E+02  0.98931E+05
 0.23120001E+02  0.10176E+06
 0.23170000E+02  0.10264E+06
 0.23220001E+02  0.10240E+06
 0.23270000E+02  0.10118E+06
 0.23320002E+02  0.98756E+05
 0.23370001E+02  0.95444E+05
 0.23420000E+02  0.91695E+05
 0.23470001E+02  0.87634E+05
 0.23520000E+02  0.83422E+05
 0.23570002E+02  0.79052E+05
 0.23620001E+02  0.73899E+05
 0.23670000E+02  0.67789E+05
 0.23720001E+02  0.61180E+05
 0.23770000E+02  0.54360E+05
 0.23820002E+02  0.47217E+05
 0.23870001E+02  0.39906E+05
 0.23920000E+02  0.32851E+05
 0.23970001E+02  0.25885E+05
 0.24020000E+02  0.18764E+05
 0.24070002E+02  0.11803E+05
 0.24120001E+02  0.53770E+04
 0.24170000E+02 -0.28200E+03
 0.24220001E+02 -0.50940E+04
 0.24270000E+02 -0.94010E+04
 0.24320002E+02 -0.13129E+05
 0.24370001E+02 -0.15844E+05
 0.24420000E+02 -0.17423E+05
 0.24470001E+02 -0.17796E+05
 0.24520000E+02 -0.17491E+05
 0.24570002E+02 -0.17032E+05
 0.24620001E+02 -0.15894E+05
 0.24670000E+02 -0.13384E+05
 0.24720001E+02 -0.96780E+04
 0.24770000E+02 -0.51700E+04
 0.24820002E+02  0.41300E+03
 0.24870001E+02  0.70130E+04
 0.24920000E+02  0.14325E+05
 0.24970001E+02  0.22348E+05
 0.25020000E+02  0.30798E+05
 0.25070002E+02  0.39430E+05
 0.25120001E+02  0.47593E+05
 0.25170000E+02  0.54600E+05
 0.25220001E+02  0.60323E+05
 0.25270000E+02  0.64638E+05
 0.25320002E+02  0.67352E+05
 0.25370001E+02  0.68020E+05
 0.25420000E+02  0.66650E+05
 0.25470001E+02  0.63499E+05
 0.25520000E+02  0.58770E+05
 0.25570002E+02  0.52895E+05
 0.25620001E+02  0.46166E+05
 0.25670000E+02  0.39283E+05
 0.25720001E+02  0.32836E+05
 0.25770000E+02  0.26956E+05
 0.25820002E+02  0.21022E+05
 0.25870001E+02  0.14717E+05
 0.25920000E+02  0.84970E+04
 0.25970001E+02  0.24660E+04
 0.26020000E+02 -0.35200E+04
 0.26070002E+02 -0.93140E+04
 0.26120001E+02 -0.13225E+05
 0.26170000E+02 -0.15391E+05
 0.26220001E+02 -0.17117E+05
 0.26270000E+02 -0.17992E+05
 0.26320002E+02 -0.17946E+05
 0.26370001E+02 -0.18326E+05
 0.26420000E+02 -0.18995E+05
 0.26470001E+02 -0.20264E+05
 0.26520000E+02 -0.24340E+05
 0.26570002E+02 -0.28676E+05
 0.26620001E+02 -0.31906E+05
 0.26670000E+02 -0.36986E+05
 0.26720001E+02 -0.43675E+05
 0.26770000E+02 -0.49354E+05
 0.26820002E+02 -0.53145E+05
 0.26870001E+02 -0.53658E+05
 0.26920000E+02 -0.53318E+05
 0.26970001E+02 -0.57325E+05
 0.27020000E+02 -0.61489E+05
 0.27070002E+02 -0.58393E+05
 0.27120001E+02 -0.46762E+05
 0.27170000E+02 -0.33354E+05
 0.27220001E+02 -0.26988E+05
 0.27270000E+02 -0.17009E+05
 0.27320002E+02  0.54460E+04
 0.27370001E+02  0.24797E+05
 0.27420000E+02  0.36754E+05
 0.27470001E+02  0.48324E+05
 0.27520000E+02  0.65698E+05
 0.27570002E+02  0.88742E+05
 0.27620001E+02  0.10102E+06
 0.27670000E+02  0.10148E+06
 0.27720001E+02  0.10958E+06
 0.27770000E+02  0.12914E+06
 0.27820002E+02  0.15248E+06
 0.27870001E+02  0.17134E+06
 0.27920000E+02  0.17830E+06
 0.27970001E+02  0.18438E+06
 0.28020000E+02  0.19347E+06
 0.28070002E+02  0.19756E+06
 0.28120001E+02  0.19460E+06
 0.28170000E+02  0.18206E+06
 0.28220001E+02  0.16116E+06
 0.28270000E+02  0.14062E+06
 0.28320002E+02  0.12162E+06
 0.28370001E+02  0.95887E+05
 0.28420000E+02  0.78625E+05
 0.28470001E+02  0.74938E+05
 0.28520000E+02  0.76114E+05
 0.28570002E+02  0.68144E+05
 0.28620001E+02  0.31835E+05
 0.28670000E+02  0.84610E+04
 0.28720001E+02  0.22144E+05
 0.28770000E+02  0.21900E+05
 0.28820002E+02 -0.13494E+05
 0.28870001E+02 -0.66516E+05
 0.28920000E+02 -0.12398E+06
 0.28970001E+02 -0.14262E+06
 0.29020000E+02 -0.12899E+06
 0.29070000E+02 -0.13103E+06
 0.29120003E+02 -0.96017E+05
 0.29170002E+02 -0.28057E+05
 0.29220001E+02 -0.17881E+05
 0.29270000E+02 -0.34909E+05
 0.29320000E+02 -0.45234E+05
 0.29370003E+02 -0.58681E+05
 0.29420002E+02 -0.10134E+06
 0.29470001E+02 -0.19694E+06
 0.29520000E+02 -0.24386E+06
 0.29570000E+02 -0.27569E+06
 0.29620003E+02 -0.35039E+06
 0.29670002E+02 -0.35582E+06
 0.29720001E+02 -0.25567E+06
 0.29770000E+02 -0.98214E+05
 0.29820000E+02 -0.94120E+04
 0.29870003E+02 -0.39663E+05
 0.29920002E+02 -0.70216E+05
 0.29970001E+02 -0.48249E+05
 0.30020000E+02 -0.49151E+05
 0.30070000E+02 -0.79602E+05
 0.30120003E+02 -0.13200E+06
 0.30170002E+02 -0.22413E+06
 0.30220001E+02 -0.23878E+06
 0.30270000E+02 -0.13730E+06
 0.30320000E+02 -0.12846E+06
 0.30370003E+02 -0.22194E+06
 0.30420002E+02 -0.21823E+06
 0.30470001E+02 -0.13255E+06
 0.30520000E+02 -0.60296E+05
 0.30570000E+02 -0.59141E+05
 0.30620003E+02 -0.67836E+05
 0.30670002E+02 -0.11742E+05
 0.30720001E+02  0.37857E+05
 0.30770000E+02  0.35700E+05
 0.30820000E+02  0.31150E+05
 0.30870003E+02 -0.22100E+05
 0.30920002E+02 -0.15426E+06
 0.30970001E+02 -0.15149E+06
 0.31020000E+02 -0.27207E+05
 0.31070000E+02 -0.39427E+05
 0.31120003E+02 -0.13831E+06
 0.31170002E+02 -0.17852E+06
 0.31220001E+02 -0.15901E+06
 0.31270000E+02 -0.11602E+06
 0.31320000E+02 -0.96537E+05
 0.31370003E+02 -0.36611E+05
 0.31420002E+02 -0.57870E+04
 0.31470001E+02 -0.57588E+05
 0.31520000E+02 -0.37244E+05
 0.31570000E+02 -0.14407E+06
 0.31620003E+02 -0.30368E+06
 0.31670002E+02 -0.22952E+06
 0.31720001E+02 -0.17816E+06
 0.31770000E+02 -0.18786E+06
 0.31820000E+02 -0.24268E+06
 0.31870003E+02 -0.27981E+06
 0.31920002E+02 -0.20702E+06
 0.31970001E+02 -0.13799E+06
 0.32020000E+02 -0.13282E+06
 0.32070000E+02 -0.23334E+06
 0.32120003E+02 -0.63951E+05
 0.32170002E+02  0.18221E+06
 0.32220001E+02 -0.20804E+05
 0.32270000E+02 -0.22739E+06
 0.32320000E+02 -0.11470E+06
 0.32370003E+02  0.94500E+04
 0.32420002E+02 -0.11018E+06
 0.32470001E+02 -0.38035E+06
 0.32520000E+02 -0.43876E+06
 0.32570000E+02 -0.26280E+06
 0.32620003E+02 -0.11481E+06
 0.32670002E+02 -0.55904E+05
 0.32720001E+02 -0.17604E+06
 0.32770000E+02 -0.14066E+06
 0.32820000E+02  0.21086E+06
 0.32870003E+02  0.42925E+06
 0.32920002E+02  0.41118E+06
 0.32970001E+02  0.15879E+06
 0.33020000E+02 -0.48522E+05
 0.33070000E+02 -0.76944E+05
 0.33120003E+02 -0.89471E+05
 0.33170002E+02 -0.12278E+06
 0.33220001E+02 -0.25490E+06
 0.33270000E+02 -0.27481E+06
 0.33320000E+02 -0.11332E+06
 0.33370003E+02  0.75072E+05
 0.33420002E+02  0.22956E+06
 0.33470001E+02  0.36921E+06
 0.33520000E+02  0.25616E+06
 0.33570000E+02  0.59268E+05
 0.33620003E+02  0.25572E+06
 0.33670002E+02  0.46179E+06
 0.33720001E+02  0.47424E+06
 0.33770000E+02  0.24251E+06
 0.33820000E+02  0.25516E+05
 0.33870003E+02  0.21195E+06
 0.33920002E+02  0.43832E+06
 0.33970001E+02  0.47338E+06
 0.34020000E+02  0.48750E+06
 0.34070000E+02  0.66278E+06
 0.34120003E+02  0.69597E+06
 0.34170002E+02  0.56482E+06
 0.34220001E+02  0.50359E+06
 0.34270000E+02  0.52140E+06
 0.34320000E+02  0.59520E+06
 0.34370003E+02  0.60481E+06
 0.34420002E+02  0.45855E+06
 0.34470001E+02  0.34744E+06
 0.34520000E+02  0.47478E+06
 0.34570000E+02  0.54047E+06
 0.34620003E+02  0.29597E+06
 0.34670002E+02  0.11374E+05
 0.34720001E+02  0.21336E+06
 0.34770000E+02  0.40674E+06
 0.34820000E+02  0.32707E+06
 0.34870003E+02  0.28953E+06
 0.34920002E+02  0.18436E+06
 0.34970001E+02  0.21315E+06
 0.35020000E+02  0.28510E+06
 0.35070000E+02  0.31675E+06
 0.35120003E+02  0.46358E+06
 0.35170002E+02  0.64066E+06
 0.35220001E+02  0.60407E+06
 0.35270000E+02  0.44204E+06
 0.35320000E+02  0.38366E+06
 0.35370003E+02  0.28561E+06
 0.35420002E+02  0.51482E+05
 0.35470001E+02 -0.86692E+05
 0.35520000E+02 -0.65876E+05
 0.35570000E+02  0.45800E+03
 0.35620003E+02 -0.19092E+06
 0.35670002E+02 -0.78755E+06
 0.35720001E+02 -0.10721E+07
 0.35770000E+02 -0.86246E+06
 0.35820000E+02 -0.63756E+06
 0.35870003E+02 -0.54218E+06
 0.35920002E+02 -0.59587E+06
 0.35970001E+02 -0.88647E+06
 0.36020000E+02 -0.10268E+07
 0.36070000E+02 -0.78100E+06
 0.36120003E+02 -0.55994E+06
 0.36170002E+02 -0.25273E+06
 0.36220001E+02  0.90651E+05
 0.36270000E+02  0.10794E+06
 0.36320000E+02  0.12668E+06
 0.36370003E+02  0.55664E+06
 0.36420002E+02  0.88752E+06
 0.36470001E+02  0.63252E+06
 0.36520000E+02  0.18467E+06
 0.36570000E+02 -0.21206E+06
 0.36620003E+02 -0.39015E+06
 0.36670002E+02 -0.35880E+06
 0.36720001E+02 -0.42952E+06
 0.36770000E+02 -0.31114E+06
 0.36820000E+02 -0.18926E+05
 0.36870003E+02  0.64378E+05
 0.36920002E+02  0.26969E+05
 0.36970001E+02 -0.23684E+06
 0.37020000E+02 -0.42465E+06
 0.37070000E+02 -0.25166E+06
 0.37120003E+02 -0.17075E+06
 0.37170002E+02 -0.29290E+06
 0.37220001E+02 -0.45592E+06
 0.37270000E+02 -0.50465E+06
 0.37320000E+02 -0.43890E+06
 0.37370003E+02 -0.18967E+06
 0.37420002E+02  0.12170E+06
 0.37470001E+02  0.18476E+06
 0.37520000E+02  0.17589E+06
 0.37570000E+02  0.18360E+06
 0.37620003E+02  0.29463E+06
 0.37670002E+02  0.35911E+06
 0.37720001E+02  0.92573E+05
 0.37770000E+02 -0.97681E+05
 0.37820000E+02  0.31694E+05
 0.37870003E+02  0.17015E+06
 0.37920002E+02  0.41398E+05
 0.37970001E+02 -0.21494E+06
 0.38020000E+02 -0.29314E+06
 0.38070000E+02 -0.19067E+06
 0.38120003E+02 -0.39231E+05
 0.38170002E+02  0.13357E+06
 0.38220001E+02  0.26067E+06
 0.38270000E+02  0.27897E+06
 0.38320000E+02  0.47263E+06
 0.38370003E+02  0.62605E+06
 0.38420002E+02  0.39662E+06
 0.38470001E+02  0.20892E+06
 0.38520000E+02  0.11441E+06
 0.38570000E+02 -0.91470E+04
 0.38620003E+02 -0.22227E+06
 0.38670002E+02 -0.63394E+06
 0.38720001E+02 -0.81105E+06
 0.38770000E+02 -0.60887E+06
 0.38820000E+02 -0.24553E+06
 0.38870003E+02  0.27277E+05
 0.38920002E+02 -0.10052E+06
 0.38970001E+02 -0.30911E+06
 0.39020000E+02 -0.31068E+06
 0.39070000E+02 -0.24071E+06
 0.39120003E+02 -0.24636E+06
 0.39170002E+02 -0.25691E+06
 0.39220001E+02 -0.11696E+06
 0.39270000E+02 -0.17481E+05
 0.39320000E+02 -0.71290E+04
 0.39370003E+02 -0.52355E+05
 0.39420002E+02 -0.13357E+06
 0.39470001E+02 -0.72232E+05
 0.39520000E+02  0.54850E+04
 0.39570000E+02  0.67610E+05
 0.39620003E+02  0.34996E+06
 0.39670002E+02  0.45516E+06
 0.39720001E+02  0.13911E+06
 0.39770000E+02 -0.26323E+05
 0.39820000E+02 -0.50040E+04
 0.39870003E+02 -0.41024E+05
 0.39920002E+02 -0.71896E+05
 0.39970001E+02 -0.19881E+06
 0.40020000E+02 -0.29431E+06
 0.40070000E+02 -0.27944E+06
 0.40120003E+02 -0.26086E+06
 0.40170002E+02 -0.17342E+06
 0.40220001E+02 -0.72264E+05
 0.40270000E+02 -0.22468E+05
 0.40320000E+02 -0.10999E+06
 0.40370003E+02 -0.30545E+06
 0.40420002E+02 -0.42020E+06
 0.40470001E+02 -0.40887E+06
 0.40520000E+02 -0.28187E+06
 0.40570000E+02 -0.14666E+06
 0.40620003E+02 -0.13605E+06
 0.40670002E+02 -0.20914E+06
 0.40720001E+02 -0.23203E+06
 0.40770000E+02 -0.24072E+06
 0.40820000E+02 -0.22966E+06
 0.40870003E+02 -0.61044E+05
 0.40920002E+02  0.90504E+05
 0.40970001E+02  0.14822E+06
 0.41020000E+02  0.23677E+06
 0.41070000E+02  0.26372E+06
 0.41120003E+02  0.28786E+06
 0.41170002E+02  0.37682E+06
 0.41220001E+02  0.32809E+06
 0.41270000E+02  0.25089E+06
 0.41320000E+02  0.27299E+06
 0.41370003E+02  0.23351E+06
 0.41420002E+02  0.13978E+06
 0.41470001E+02  0.59180E+05
 0.41520000E+02  0.52620E+05
 0.41570000E+02  0.24930E+05
 0.41620003E+02 -0.14017E+06
 0.41670002E+02 -0.32797E+06
 0.41720001E+02 -0.37520E+06
 0.41770000E+02 -0.27494E+06
 0.41820000E+02 -0.18858E+06
 0.41870003E+02 -0.16853E+06
 0.41920002E+02 -0.15597E+06
 0.41970001E+02 -0.48183E+05
 0.42020000E+02  0.18599E+06
 0.42070000E+02  0.37918E+06
 0.42120003E+02  0.37835E+06
 0.42170002E+02  0.19356E+06
 0.42220001E+02  0.46149E+05
 0.42270000E+02  0.18901E+06
 0.42320000E+02  0.38027E+06
 0.42370003E+02  0.39146E+06
 0.42420002E+02  0.36726E+06
 0.42470001E+02  0.29481E+06
 0.42520000E+02  0.26852E+06
 0.42570000E+02  0.25270E+06
 0.42620003E+02  0.26414E+05
 0.42670002E+02 -0.30735E+06
 0.42720001E+02 -0.49637E+06
 0.42770000E+02 -0.42281E+06
 0.42820000E+02 -0.32054E+06
 0.42870003E+02 -0.42845E+06
 0.42920002E+02 -0.69885E+06
 0.42970001E+02 -0.87751E+06
 0.43020000E+02 -0.87170E+06
 0.43070000E+02 -0.84235E+06
 0.43120003E+02 -0.76372E+06
 0.43170002E+02 -0.64461E+06
 0.43220001E+02 -0.58618E+06
 0.43270000E+02 -0.46056E+06
 0.43320000E+02 -0.21793E+06
 0.43370003E+02 -0.11421E+06
 0.43420002E+02 -0.15821E+06
 0.43470001E+02 -0.13784E+06
 0.43520000E+02 -0.22146E+06
 0.43570000E+02 -0.36815E+06
 0.43620003E+02 -0.40903E+06
 0.43670002E+02 -0.48011E+06
 0.43720001E+02 -0.59917E+06
 0.43770000E+02 -0.71566E+06
 0.43820000E+02 -0.66548E+06
 0.43870003E+02 -0.48038E+06
 0.43920002E+02 -0.38906E+06
 0.43970001E+02 -0.38050E+06
 0.44020000E+02 -0.22773E+06
 0.44070000E+02  0.13550E+04
 0.44120003E+02  0.79360E+04
 0.44170002E+02 -0.12575E+06
 0.44220001E+02 -0.19434E+06
 0.44270000E+02 -0.10344E+06
 0.44320000E+02  0.19344E+05
 0.44370003E+02 -0.53400E+04
 0.44420002E+02 -0.96441E+05
 0.44470001E+02 -0.22619E+05
 0.44520000E+02  0.19881E+06
 0.44570000E+02  0.38136E+06
 0.44620003E+02  0.51746E+06
 0.44670002E+02  0.51384E+06
 0.44720001E+02  0.39768E+06
 0.44770000E+02  0.24167E+06
 0.44820000E+02 -0.35632E+05
 0.44870003E+02 -0.28234E+06
 0.44920002E+02 -0.47268E+06
 0.44970001E+02 -0.60661E+06
 0.45020000E+02 -0.60668E+06
 0.45070000E+02 -0.52467E+06
 0.45120003E+02 -0.35524E+06
 0.45170002E+02 -0.19269E+06
 0.45220001E+02 -0.42543E+05
 0.45270000E+02  0.10467E+06
 0.45320000E+02  0.29037E+06
 0.45370003E+02  0.55572E+06
 0.45420002E+02  0.70186E+06
 0.45470001E+02  0.75971E+06
 0.45520000E+02  0.77565E+06
 0.45570000E+02  0.60284E+06
 0.45620003E+02  0.37937E+06
 0.45670002E+02  0.20050E+06
 0.45720001E+02  0.48409E+05
 0.45770000E+02  0.49993E+05
 0.45820000E+02  0.11139E+06
 0.45870003E+02  0.16090E+06
 0.45920002E+02  0.19453E+06
 0.45970001E+02  0.12906E+06
 0.46020000E+02 -0.34090E+04
 0.46070000E+02 -0.60556E+05
 0.46120003E+02  0.10122E+06
 0.46170002E+02  0.34868E+06
 0.46220001E+02  0.49573E+06
 0.46270000E+02  0.52313E+06
 0.46320000E+02  0.54992E+06
 0.46370003E+02  0.64352E+06
 0.46420002E+02  0.63590E+06
 0.46470001E+02  0.57992E+06
 0.46520000E+02  0.57696E+06
 0.46570000E+02  0.49556E+06
 0.46620003E+02  0.34414E+06
 0.46670002E+02  0.22911E+06
 0.46720001E+02  0.22310E+06
 0.46770000E+02  0.30278E+06
 0.46820000E+02  0.36854E+06
 0.46870003E+02  0.32188E+06
 0.46920002E+02  0.25660E+06
 0.46970001E+02  0.37293E+06
 0.47020000E+02  0.56597E+06
 0.47070000E+02  0.66022E+06
 0.47120003E+02  0.57148E+06
 0.47170002E+02  0.35906E+06
 0.47220001E+02  0.27882E+06
 0.47270000E+02  0.31320E+06
 0.47320000E+02  0.24346E+06
 0.47370003E+02  0.13216E+06
 0.47420002E+02  0.90762E+05
 0.47470001E+02  0.12588E+06
 0.47520000E+02  0.21688E+06
 0.47570000E+02  0.31533E+06
 0.47620003E+02  0.45998E+06
 0.47670002E+02  0.63622E+06
 0.47720001E+02  0.73622E+06
 0.47770000E+02  0.65293E+06
 0.47820000E+02  0.48284E+06
 0.47870003E+02  0.29638E+06
 0.47920002E+02  0.42228E+05
 0.47970001E+02 -0.86897E+05
 0.48020000E+02 -0.46659E+05
 0.48070000E+02  0.86789E+05
 0.48120003E+02  0.21632E+06
 0.48170002E+02  0.26132E+06
 0.48220001E+02  0.28362E+06
 0.48270000E+02  0.17092E+06
 0.48320000E+02 -0.10721E+05
 0.48370003E+02 -0.86840E+05
 0.48420002E+02 -0.72501E+05
 0.48470001E+02 -0.12441E+05
 0.48520000E+02  0.25639E+05
 0.48570000E+02  0.63452E+05
 0.48620003E+02 -0.60309E+05
 0.48670002E+02 -0.40351E+06
 0.48720001E+02 -0.59121E+06
 0.48770000E+02 -0.65605E+06
 0.48820000E+02 -0.82598E+06
 0.48870003E+02 -0.98368E+06
 0.48920002E+02 -0.11180E+07
 0.48970001E+02 -0.12982E+07
 0.49020000E+02 -0.15798E+07
 0.49070000E+02 -0.19805E+07
 0.49120003E+02 -0.22404E+07
 0.49170002E+02 -0.22460E+07
 0.49220001E+02 -0.21864E+07
 0.49270000E+02 -0.19093E+07
 0.49320000E+02 -0.14975E+07
 0.49370003E+02 -0.13271E+07
 0.49420002E+02 -0.13522E+07
 0.49470001E+02 -0.14485E+07
 0.49520000E+02 -0.13926E+07
 0.49570000E+02 -0.11846E+07
 0.49620003E+02 -0.10131E+07
 0.49670002E+02 -0.90219E+06
 0.49720001E+02 -0.60453E+06
 0.49770000E+02 -0.41166E+05
 0.49820000E+02  0.36927E+06
 0.49870003E+02  0.61919E+06
 0.49920002E+02  0.70649E+06
 0.49970001E+02  0.57678E+06
 0.50020000E+02  0.35027E+06
 0.50070000E+02  0.79345E+05
 0.50120003E+02 -0.80811E+05
 0.50170002E+02 -0.24018E+06
 0.50220001E+02 -0.39713E+06
 0.50270000E+02 -0.36771E+06
 0.50320000E+02 -0.21166E+06
 0.50370003E+02 -0.15935E+06
 0.50420002E+02 -0.49022E+06
 0.50470001E+02 -0.10600E+07
 0.50520000E+02 -0.14302E+07
 0.50570000E+02 -0.14960E+07
 0.50620003E+02 -0.13881E+07
 0.50670002E+02 -0.11969E+07
 0.50720001E+02 -0.94372E+06
 0.50770000E+02 -0.77426E+06
 0.50820000E+02 -0.76169E+06
 0.50870003E+02 -0.84995E+06
 0.50920002E+02 -0.10207E+07
 0.50970001E+02 -0.98480E+06
 0.51020000E+02 -0.66358E+06
 0.51070000E+02 -0.26085E+06
 0.51120003E+02  0.15900E+06
 0.51170002E+02  0.59444E+06
 0.51220001E+02  0.10670E+07
 0.51270000E+02  0.14462E+07
 0.51320000E+02  0.15906E+07
 0.51370003E+02  0.14891E+07
 0.51420002E+02  0.13325E+07
 0.51470001E+02  0.13507E+07
 0.51520000E+02  0.12518E+07
 0.51570000E+02  0.88110E+06
 0.51620003E+02  0.64369E+06
 0.51670002E+02  0.43680E+06
 0.51720001E+02 -0.28834E+05
 0.51770000E+02 -0.43683E+06
 0.51820000E+02 -0.65232E+06
 0.51870003E+02 -0.87742E+06
 0.51920002E+02 -0.11024E+07
 0.51970001E+02 -0.11996E+07
 0.52020000E+02 -0.10483E+07
 0.52070000E+02 -0.94794E+06
 0.52120003E+02 -0.12718E+07
 0.52170002E+02 -0.16615E+07
 0.52220001E+02 -0.16645E+07
 0.52270000E+02 -0.11640E+07
 0.52320000E+02 -0.48149E+06
 0.52370003E+02  0.56210E+04
 0.52420002E+02  0.36704E+06
 0.52470001E+02  0.65332E+06
 0.52520000E+02  0.83388E+06
 0.52570000E+02  0.68214E+06
 0.52620003E+02  0.28476E+06
 0.52670002E+02 -0.11736E+06
 0.52720001E+02 -0.44448E+06
 0.52770000E+02 -0.30011E+06
 0.52820000E+02  0.12754E+06
 0.52870003E+02  0.56834E+06
 0.52920002E+02  0.88659E+06
 0.52970001E+02  0.61112E+06
 0.53020000E+02 -0.18565E+06
 0.53070000E+02 -0.11838E+07
 0.53120003E+02 -0.18468E+07
 0.53170002E+02 -0.16838E+07
 0.53220001E+02 -0.99975E+06
 0.53270000E+02 -0.32402E+06
 0.53320000E+02 -0.16201E+06
 0.53370003E+02 -0.52130E+06
 0.53420002E+02 -0.73624E+06
 0.53470001E+02 -0.67264E+06
 0.53520000E+02 -0.86163E+06
 0.53570000E+02 -0.14599E+07
 0.53620003E+02 -0.19550E+07
 0.53670002E+02 -0.17403E+07
 0.53720001E+02 -0.98936E+06
 0.53770000E+02 -0.40803E+06
 0.53820000E+02 -0.39665E+06
 0.53870003E+02 -0.72623E+06
 0.53920002E+02 -0.50488E+06
 0.53970001E+02  0.24552E+06
 0.54020000E+02  0.58688E+06
 0.54070000E+02  0.49968E+06
 0.54120003E+02  0.27615E+06
 0.54170002E+02  0.37957E+05
 0.54220001E+02  0.55530E+04
 0.54270000E+02  0.86945E+05
 0.54320000E+02  0.17405E+06
 0.54370003E+02  0.38636E+06
 0.54420002E+02  0.83180E+06
 0.54470001E+02  0.15041E+07
 0.54520000E+02  0.21981E+07
 0.54570000E+02  0.25161E+07
 0.54620003E+02  0.24886E+07
 0.54670002E+02  0.25717E+07
 0.54720001E+02  0.26262E+07
 0.54770000E+02  0.23270E+07
 0.54820000E+02  0.18132E+07
 0.54870003E+02  0.12047E+07
 0.54920002E+02  0.61020E+06
 0.54970001E+02  0.92361E+05
 0.55020000E+02 -0.20143E+06
 0.55070000E+02 -0.10947E+06
 0.55120003E+02  0.13726E+05
 0.55170002E+02 -0.37893E+05
 0.55220001E+02 -0.18609E+06
 0.55270000E+02 -0.25740E+06
 0.55320000E+02 -0.34908E+05
 0.55370003E+02  0.28935E+06
 0.55420002E+02  0.61807E+06
 0.55470001E+02  0.10068E+07
 0.55520000E+02  0.13704E+07
 0.55570000E+02  0.18191E+07
 0.55620003E+02  0.22700E+07
 0.55670002E+02  0.23444E+07
 0.55720001E+02  0.20740E+07
 0.55770000E+02  0.15420E+07
 0.55820000E+02  0.61115E+06
 0.55870003E+02 -0.27728E+06
 0.55920002E+02 -0.53337E+06
 0.55970001E+02 -0.27910E+06
 0.56020000E+02  0.11600E+06
 0.56070000E+02  0.37405E+06
 0.56120003E+02  0.45480E+06
 0.56170002E+02  0.46272E+06
 0.56220001E+02  0.42302E+06
 0.56270000E+02  0.35918E+06
 0.56320000E+02  0.19790E+06
 0.56370003E+02 -0.65570E+04
 0.56420002E+02 -0.18322E+06
 0.56470001E+02 -0.42194E+06
 0.56520000E+02 -0.67974E+06
 0.56570000E+02 -0.77787E+06
 0.56620003E+02 -0.67064E+06
 0.56670002E+02 -0.41402E+06
 0.56720001E+02  0.51277E+05
 0.56770000E+02  0.48182E+06
 0.56820000E+02  0.65937E+06
 0.56870003E+02  0.71780E+06
 0.56920002E+02  0.59148E+06
 0.56970001E+02  0.51116E+06
 0.57020000E+02  0.85852E+06
 0.57070000E+02  0.14085E+07
 0.57120003E+02  0.17775E+07
 0.57170002E+02  0.18331E+07
 0.57220001E+02  0.16353E+07
 0.57270000E+02  0.13877E+07
 0.57320000E+02  0.14020E+07
 0.57370003E+02  0.16204E+07
 0.57420002E+02  0.15712E+07
 0.57470001E+02  0.13660E+07
 0.57520000E+02  0.13963E+07
 0.57570000E+02  0.15891E+07
 0.57620003E+02  0.17382E+07
 0.57670002E+02  0.16849E+07
 0.57720001E+02  0.13457E+07
 0.57770000E+02  0.94726E+06
 0.57820000E+02  0.98376E+06
 0.57870003E+02  0.13460E+07
 0.57920002E+02  0.15930E+07
 0.57970001E+02  0.17478E+07
 0.58020000E+02  0.20729E+07
 0.58070000E+02  0.27077E+07
 0.58120003E+02  0.31468E+07
 0.58170002E+02  0.29980E+07
 0.58220001E+02  0.25182E+07
 0.58270000E+02  0.19324E+07
 0.58320000E+02  0.16380E+07
 0.58370003E+02  0.18001E+07
 0.58420002E+02  0.22940E+07
 0.58470001E+02  0.31212E+07
 0.58520000E+02  0.38099E+07
 0.58570000E+02  0.38594E+07
 0.58620003E+02  0.32197E+07
 0.58670002E+02  0.22320E+07
 0.58720001E+02  0.13705E+07
 0.58770000E+02  0.94259E+06
 0.58820000E+02  0.12044E+07
 0.58870003E+02  0.19913E+07
 0.58920002E+02  0.27734E+07
 0.58970001E+02  0.31636E+07
 0.59020000E+02  0.31369E+07
 0.59070000E+02  0.28919E+07
 0.59120003E+02  0.27660E+07
 0.59170002E+02  0.29465E+07
 0.59220001E+02  0.31319E+07
 0.59270000E+02  0.31686E+07
 0.59320000E+02  0.30163E+07
 0.59370003E+02  0.27308E+07
 0.59420002E+02  0.25414E+07
 0.59470001E+02  0.22965E+07
 0.59520000E+02  0.20308E+07
 0.59570000E+02  0.19467E+07
 0.59620003E+02  0.18739E+07
 0.59670002E+02  0.17232E+07
 0.59720001E+02  0.15517E+07
 0.59770000E+02  0.13370E+07
 0.59820000E+02  0.11983E+07
 0.59870003E+02  0.11503E+07
 0.59920002E+02  0.11234E+07
 0.59970001E+02  0.12635E+07
 0.60020000E+02  0.14381E+07
 0.60070000E+02  0.14018E+07
 0.60120003E+02  0.10721E+07
 0.60170002E+02  0.48660E+06
 0.60220001E+02 -0.15421E+06
 0.60270000E+02 -0.72565E+06
 0.60320000E+02 -0.11654E+07
 0.60370003E+02 -0.14789E+07
 0.60420002E+02 -0.17869E+07
 0.60470001E+02 -0.20785E+07
 0.60520000E+02 -0.21399E+07
 0.60570000E+02 -0.18760E+07
 0.60620003E+02 -0.14671E+07
 0.60670002E+02 -0.12075E+07
 0.60720001E+02 -0.14199E+07
 0.60770000E+02 -0.21621E+07
 0.60820000E+02 -0.30228E+07
 0.60870003E+02 -0.36597E+07
 0.60920002E+02 -0.39089E+07
 0.60970001E+02 -0.38275E+07
 0.61020000E+02 -0.36903E+07
 0.61070004E+02 -0.35857E+07
 0.61119999E+02 -0.35990E+07
 0.61170002E+02 -0.36290E+07
 0.61220005E+02 -0.35230E+07
 0.61270000E+02 -0.33963E+07
 0.61320004E+02 -0.33350E+07
 0.61369999E+02 -0.33062E+07
 0.61420002E+02 -0.31175E+07
 0.61470005E+02 -0.27175E+07
 0.61520000E+02 -0.23228E+07
 0.61570004E+02 -0.21104E+07
 0.61619999E+02 -0.20917E+07
 0.61670002E+02 -0.22289E+07
 0.61720005E+02 -0.24312E+07
 0.61770000E+02 -0.24599E+07
 0.61820004E+02 -0.22664E+07
 0.61869999E+02 -0.18620E+07
 0.61920002E+02 -0.12145E+07
 0.61970005E+02 -0.58226E+06
 0.62020000E+02 -0.21436E+06
 0.62070004E+02 -0.20619E+06
 0.62119999E+02 -0.43908E+06
 0.62170002E+02 -0.63556E+06
 0.62220005E+02 -0.66052E+06
 0.62270000E+02 -0.54167E+06
 0.62320004E+02 -0.48941E+06
 0.62369999E+02 -0.55511E+06
 0.62420002E+02 -0.65468E+06
 0.62470005E+02 -0.88432E+06
 0.62520000E+02 -0.12204E+07
 0.62570004E+02 -0.15471E+07
 0.62619999E+02 -0.18598E+07
 0.62670002E+02 -0.21134E+07
 0.62720005E+02 -0.21412E+07
 0.62770000E+02 -0.18789E+07
 0.62820004E+02 -0.14220E+07
 0.62869999E+02 -0.90382E+06
 0.62920002E+02 -0.59777E+06
 0.62970005E+02 -0.53809E+06
 0.63020000E+02 -0.45917E+06
 0.63070004E+02 -0.32859E+06
 0.63119999E+02 -0.25469E+06
 0.63170002E+02 -0.25032E+06
 0.63220005E+02 -0.25492E+06
 0.63270000E+02 -0.28531E+06
 0.63320004E+02 -0.38484E+06
 0.63369999E+02 -0.47684E+06
 0.63420002E+02 -0.48771E+06
 0.63470005E+02 -0.29510E+06
 0.63520000E+02  0.11365E+06
 0.63570004E+02  0.41555E+06
 0.63619999E+02  0.43275E+06
 0.63670002E+02  0.36154E+06
 0.63720005E+02  0.36639E+06
 0.63770000E+02  0.42489E+06
 0.63820004E+02  0.44114E+06
 0.63869999E+02  0.33695E+06
 0.63920002E+02  0.10739E+06
 0.63970005E+02 -0.16354E+06
 0.64019997E+02 -0.29704E+06
 0.64070000E+02 -0.27270E+06
 0.64119995E+02 -0.23784E+06
 0.64169998E+02 -0.22534E+06
 0.64220001E+02 -0.26416E+06
 0.64269997E+02 -0.27216E+06
 0.64320000E+02 -0.11523E+06
 0.64369995E+02  0.66174E+05
 0.64419998E+02  0.19984E+06
 0.64470001E+02  0.34298E+06
 0.64519997E+02  0.47952E+06
 0.64570000E+02  0.62143E+06
 0.64619995E+02  0.68902E+06
 0.64669998E+02  0.65074E+06
 0.64720001E+02  0.60619E+06
 0.64769997E+02  0.55474E+06
 0.64820000E+02  0.43341E+06
 0.64869995E+02  0.20076E+06
 0.64919998E+02 -0.91230E+05
 0.64970001E+02 -0.22812E+06
 0.65019997E+02 -0.58416E+05
 0.65070000E+02  0.32214E+06
 0.65119995E+02  0.66092E+06
 0.65169998E+02  0.71014E+06
 0.65220001E+02  0.56003E+06
 0.65269997E+02  0.37204E+06
 0.65320000E+02  0.11140E+06
 0.65369995E+02 -0.14912E+06
 0.65419998E+02 -0.28564E+06
 0.65470001E+02 -0.19090E+06
 0.65519997E+02  0.95697E+05
 0.65570000E+02  0.42896E+06
 0.65619995E+02  0.69162E+06
 0.65669998E+02  0.71831E+06
 0.65720001E+02  0.56795E+06
 0.65769997E+02  0.43009E+06
 0.65820000E+02  0.32795E+06
 0.65869995E+02  0.29144E+06
 0.65919998E+02  0.33630E+06
 0.65970001E+02  0.31137E+06
 0.66019997E+02  0.97136E+05
 0.66070000E+02 -0.29153E+06
 0.66119995E+02 -0.81531E+06
 0.66169998E+02 -0.13258E+07
 0.66220001E+02 -0.16906E+07
 0.66269997E+02 -0.19709E+07
 0.66320000E+02 -0.22549E+07
 0.66369995E+02 -0.25257E+07
 0.66419998E+02 -0.26442E+07
 0.66470001E+02 -0.24707E+07
 0.66519997E+02 -0.21253E+07
 0.66570000E+02 -0.18736E+07
 0.66619995E+02 -0.17631E+07
 0.66669998E+02 -0.16783E+07
 0.66720001E+02 -0.14383E+07
 0.66769997E+02 -0.10379E+07
 0.66820000E+02 -0.70527E+06
 0.66869995E+02 -0.49774E+06
 0.66919998E+02 -0.36588E+06
 0.66970001E+02 -0.22280E+06
 0.67019997E+02 -0.24010E+04
 0.67070000E+02  0.15417E+06
 0.67119995E+02  0.16548E+06
 0.67169998E+02  0.40339E+05
 0.67220001E+02 -0.20763E+06
 0.67269997E+02 -0.50871E+06
 0.67320000E+02 -0.83980E+06
 0.67369995E+02 -0.11840E+07
 0.67419998E+02 -0.15593E+07
 0.67470001E+02 -0.19441E+07
 0.67519997E+02 -0.22362E+07
 0.67570000E+02 -0.23748E+07
 0.67619995E+02 -0.22969E+07
 0.67669998E+02 -0.20189E+07
 0.67720001E+02 -0.16008E+07
 0.67769997E+02 -0.10916E+07
 0.67820000E+02 -0.68356E+06
 0.67869995E+02 -0.45737E+06
 0.67919998E+02 -0.25944E+06
 0.67970001E+02 -0.43832E+05
 0.68019997E+02  0.15655E+06
 0.68070000E+02  0.33912E+06
 0.68119995E+02  0.50185E+06
 0.68169998E+02  0.62269E+06
 0.68220001E+02  0.64915E+06
 0.68269997E+02  0.58532E+06
 0.68320000E+02  0.44481E+06
 0.68369995E+02  0.24074E+06
 0.68419998E+02  0.85360E+04
 0.68470001E+02 -0.24782E+06
 0.68519997E+02 -0.52364E+06
 0.68570000E+02 -0.77395E+06
 0.68619995E+02 -0.88627E+06
 0.68669998E+02 -0.81539E+06
 0.68720001E+02 -0.66237E+06
 0.68769997E+02 -0.49808E+06
 0.68820000E+02 -0.37710E+06
 0.68869995E+02 -0.32134E+06
 0.68919998E+02 -0.28416E+06
 0.68970001E+02 -0.29848E+06
 0.69019997E+02 -0.38245E+06
 0.69070000E+02 -0.51211E+06
 0.69119995E+02 -0.67964E+06
 0.69169998E+02 -0.83958E+06
 0.69220001E+02 -0.94095E+06
 0.69269997E+02 -0.97192E+06
 0.69320000E+02 -0.95605E+06
 0.69369995E+02 -0.89901E+06
 0.69419998E+02 -0.80235E+06
 0.69470001E+02 -0.65203E+06
 0.69519997E+02 -0.45455E+06
 0.69570000E+02 -0.29650E+06
 0.69619995E+02 -0.24644E+06
 0.69669998E+02 -0.23418E+06
 0.69720001E+02 -0.75141E+05
 0.69769997E+02  0.27551E+06
 0.69820000E+02  0.69052E+06
 0.69869995E+02  0.10800E+07
 0.69919998E+02  0.14236E+07
 0.69970001E+02  0.16755E+07
 0.70019997E+02  0.17484E+07
 0.70070000E+02  0.16668E+07
 0.70119995E+02  0.15650E+07
 0.70169998E+02  0.15059E+07
 0.70220001E+02  0.14522E+07
 0.70269997E+02  0.13477E+07
 0.70320000E+02  0.11980E+07
 0.70369995E+02  0.10468E+07
 0.70419998E+02  0.91352E+06
 0.70470001E+02  0.82211E+06
 0.70519997E+02  0.78067E+06
 0.70570000E+02  0.76563E+06
 0.70619995E+02  0.77561E+06
 0.70669998E+02  0.89425E+06
 0.70720001E+02  0.11268E+07
 0.70769997E+02  0.13571E+07
 0.70820000E+02  0.15236E+07
 0.70869995E+02  0.15484E+07
 0.70919998E+02  0.14444E+07
 0.70970001E+02  0.13357E+07
 0.71019997E+02  0.12870E+07
 0.71070000E+02  0.13237E+07
 0.71119995E+02  0.14479E+07
 0.71169998E+02  0.16312E+07
 0.71220001E+02  0.17712E+07
 0.71269997E+02  0.17941E+07
 0.71320000E+02  0.17154E+07
 0.71369995E+02  0.16067E+07
 0.71419998E+02  0.15976E+07
 0.71470001E+02  0.16964E+07
 0.71519997E+02  0.17997E+07
 0.71570000E+02  0.18540E+07
 0.71619995E+02  0.18430E+07
 0.71669998E+02  0.17495E+07
 0.71720001E+02  0.15114E+07
 0.71769997E+02  0.11085E+07
 0.71820000E+02  0.68395E+06
 0.71869995E+02  0.37426E+06
 0.71919998E+02  0.20232E+06
 0.71970001E+02  0.10710E+06
 0.72019997E+02 -0.23100E+05
 0.72070000E+02 -0.20166E+06
 0.72119995E+02 -0.39430E+06
 0.72169998E+02 -0.59524E+06
 0.72220001E+02 -0.75221E+06
 0.72269997E+02 -0.81298E+06
 0.72320000E+02 -0.79148E+06
 0.72369995E+02 -0.69663E+06
 0.72419998E+02 -0.58174E+06
 0.72470001E+02 -0.53588E+06
 0.72519997E+02 -0.53682E+06
 0.72570000E+02 -0.58322E+06
 0.72619995E+02 -0.73754E+06
 0.72669998E+02 -0.10364E+07
 0.72720001E+02 -0.13934E+07
 0.72769997E+02 -0.16274E+07
 0.72820000E+02 -0.17043E+07
 0.72869995E+02 -0.16874E+07
 0.72919998E+02 -0.15958E+07
 0.72970001E+02 -0.14605E+07
 0.73019997E+02 -0.13353E+07
 0.73070000E+02 -0.12123E+07
 0.73119995E+02 -0.10507E+07
 0.73169998E+02 -0.82915E+06
 0.73220001E+02 -0.55781E+06
 0.73269997E+02 -0.31725E+06
 0.73320000E+02 -0.15923E+06
 0.73369995E+02 -0.55080E+05
 0.73419998E+02  0.37719E+05
 0.73470001E+02  0.10462E+06
 0.73519997E+02  0.12771E+06
 0.73570000E+02  0.18389E+06
 0.73619995E+02  0.32956E+06
 0.73669998E+02  0.52694E+06
 0.73720001E+02  0.71842E+06
 0.73769997E+02  0.86160E+06
 0.73820000E+02  0.90972E+06
 0.73869995E+02  0.83892E+06
 0.73919998E+02  0.65545E+06
 0.73970001E+02  0.42034E+06
 0.74019997E+02  0.21815E+06
 0.74070000E+02  0.74330E+05
 0.74119995E+02  0.14074E+05
 0.74169998E+02  0.33586E+05
 0.74220001E+02  0.81658E+05
 0.74269997E+02  0.80793E+05
 0.74320000E+02 -0.28739E+05
 0.74369995E+02 -0.23023E+06
 0.74419998E+02 -0.45660E+06
 0.74470001E+02 -0.60050E+06
 0.74519997E+02 -0.60820E+06
 0.74570000E+02 -0.51344E+06
 0.74619995E+02 -0.39382E+06
 0.74669998E+02 -0.30908E+06
 0.74720001E+02 -0.28961E+06
 0.74769997E+02 -0.38050E+06
 0.74820000E+02 -0.56547E+06
 0.74869995E+02 -0.78605E+06
 0.74919998E+02 -0.98342E+06
 0.74970001E+02 -0.10804E+07
 0.75019997E+02 -0.10305E+07
 0.75070000E+02 -0.83728E+06
 0.75119995E+02 -0.56193E+06
 0.75169998E+02 -0.31260E+06
 0.75220001E+02 -0.13891E+06
 0.75269997E+02 -0.18344E+05
 0.75320000E+02  0.60757E+05
 0.75369995E+02  0.13363E+06
 0.75419998E+02  0.22749E+06
 0.75470001E+02  0.33616E+06
 0.75519997E+02  0.44375E+06
 0.75570000E+02  0.52446E+06
 0.75619995E+02  0.62263E+06
 0.75669998E+02  0.75558E+06
 0.75720001E+02  0.89391E+06
 0.75769997E+02  0.10434E+07
 0.75820000E+02  0.11957E+07
 0.75869995E+02  0.13652E+07
 0.75919998E+02  0.15344E+07
 0.75970001E+02  0.16240E+07
 0.76019997E+02  0.16068E+07
 0.76070000E+02  0.15274E+07
 0.76119995E+02  0.14356E+07
 0.76169998E+02  0.13672E+07
 0.76220001E+02  0.13433E+07
 0.76269997E+02  0.13488E+07
 0.76320000E+02  0.13603E+07
 0.76369995E+02  0.13372E+07
 0.76419998E+02  0.12450E+07
 0.76470001E+02  0.11051E+07
 0.76519997E+02  0.92697E+06
 0.76570000E+02  0.67869E+06
 0.76619995E+02  0.35277E+06
 0.76669998E+02  0.22792E+05
 0.76720001E+02 -0.20716E+06
 0.76769997E+02 -0.32664E+06
 0.76820000E+02 -0.37616E+06
 0.76869995E+02 -0.40528E+06
 0.76919998E+02 -0.43377E+06
 0.76970001E+02 -0.42691E+06
 0.77019997E+02 -0.41864E+06
 0.77070000E+02 -0.43177E+06
 0.77119995E+02 -0.43999E+06
 0.77169998E+02 -0.46779E+06
 0.77220001E+02 -0.52593E+06
 0.77269997E+02 -0.62586E+06
 0.77320000E+02 -0.81088E+06
 0.77369995E+02 -0.10577E+07
 0.77419998E+02 -0.12948E+07
 0.77470001E+02 -0.14704E+07
 0.77519997E+02 -0.15769E+07
 0.77570000E+02 -0.16554E+07
 0.77619995E+02 -0.17458E+07
 0.77669998E+02 -0.18446E+07
 0.77720001E+02 -0.19086E+07
 0.77769997E+02 -0.19080E+07
 0.77820000E+02 -0.18355E+07
 0.77869995E+02 -0.16719E+07
 0.77919998E+02 -0.13900E+07
 0.77970001E+02 -0.98176E+06
 0.78019997E+02 -0.50348E+06
 0.78070000E+02 -0.47298E+05
 0.78119995E+02  0.32928E+06
 0.78169998E+02  0.61318E+06
 0.78220001E+02  0.82092E+06
 0.78269997E+02  0.95011E+06
 0.78320000E+02  0.10089E+07
 0.78369995E+02  0.10180E+07
 0.78419998E+02  0.96692E+06
 0.78470001E+02  0.85183E+06
 0.78519997E+02  0.65745E+06
 0.78570000E+02  0.38337E+06
 0.78619995E+02  0.91314E+05
 0.78669998E+02 -0.13982E+06
 0.78720001E+02 -0.28849E+06
 0.78769997E+02 -0.35025E+06
 0.78820000E+02 -0.31107E+06
 0.78869995E+02 -0.22072E+06
 0.78919998E+02 -0.14559E+06
 0.78970001E+02 -0.13348E+06
 0.79019997E+02 -0.18843E+06
 0.79070000E+02 -0.25463E+06
 0.79119995E+02 -0.29903E+06
 0.79169998E+02 -0.31974E+06
 0.79220001E+02 -0.27825E+06
 0.79269997E+02 -0.13577E+06
 0.79320000E+02  0.78004E+05
 0.79369995E+02  0.28433E+06
 0.79419998E+02  0.41461E+06
 0.79470001E+02  0.47401E+06
 0.79519997E+02  0.49234E+06
 0.79570000E+02  0.47716E+06
 0.79619995E+02  0.42269E+06
 0.79669998E+02  0.32356E+06
 0.79720001E+02  0.21562E+06
 0.79769997E+02  0.11634E+06
 0.79820000E+02  0.97340E+04
 0.79869995E+02 -0.88388E+05
 0.79919998E+02 -0.16365E+06
 0.79970001E+02 -0.22653E+06
 0.80019997E+02 -0.26988E+06
 0.80070000E+02 -0.28040E+06
 0.80119995E+02 -0.24040E+06
 0.80169998E+02 -0.12233E+06
 0.80220001E+02  0.43099E+05
 0.80269997E+02  0.19085E+06
 0.80320000E+02  0.31574E+06
 0.80369995E+02  0.44405E+06
 0.80419998E+02  0.57296E+06
 0.80470001E+02  0.68939E+06
 0.80519997E+02  0.78276E+06
 0.80570000E+02  0.84482E+06
 0.80619995E+02  0.85772E+06
 0.80669998E+02  0.82692E+06
 0.80720001E+02  0.79609E+06
 0.80769997E+02  0.75675E+06
 0.80820000E+02  0.67717E+06
 0.80869995E+02  0.55730E+06
 0.80919998E+02  0.43392E+06
 0.80970001E+02  0.36524E+06
 0.81019997E+02  0.34042E+06
 0.81070000E+02  0.30620E+06
 0.81119995E+02  0.22474E+06
 0.81169998E+02  0.79851E+05
 0.81220001E+02 -0.10229E+06
 0.81269997E+02 -0.28679E+06
 0.81320000E+02 -0.44520E+06
 0.81369995E+02 -0.58056E+06
 0.81419998E+02 -0.72396E+06
 0.81470001E+02 -0.85730E+06
 0.81519997E+02 -0.94686E+06
 0.81570000E+02 -0.99170E+06
 0.81619995E+02 -0.99929E+06
 0.81669998E+02 -0.97966E+06
 0.81720001E+02 -0.93784E+06
 0.81769997E+02 -0.86932E+06
 0.81820000E+02 -0.77571E+06
 0.81869995E+02 -0.66225E+06
 0.81919998E+02 -0.51537E+06
 0.81970001E+02 -0.33118E+06
 0.82019997E+02 -0.14876E+06
 0.82070000E+02 -0.74370E+04
 0.82119995E+02  0.78650E+05
 0.82169998E+02  0.93342E+05
 0.82220001E+02  0.32678E+05
 0.82269997E+02 -0.84435E+05
 0.82320000E+02 -0.22130E+06
 0.82369995E+02 -0.32106E+06
 0.82419998E+02 -0.36048E+06
 0.82470001E+02 -0.37071E+06
 0.82519997E+02 -0.38389E+06
 0.82570000E+02 -0.40368E+06
 0.82619995E+02 -0.40916E+06
 0.82669998E+02 -0.36134E+06
 0.82720001E+02 -0.25947E+06
 0.82769997E+02 -0.14026E+06
 0.82820000E+02 -0.85120E+04
 0.82869995E+02  0.13769E+06
 0.82919998E+02  0.26862E+06
 0.82970001E+02  0.37709E+06
 0.83019997E+02  0.49820E+06
 0.83070000E+02  0.63814E+06
 0.83119995E+02  0.78793E+06
 0.83169998E+02  0.94743E+06
 0.83220001E+02  0.10815E+07
 0.83269997E+02  0.11469E+07
 0.83320000E+02  0.11389E+07
 0.83369995E+02  0.10672E+07
 0.83419998E+02  0.93635E+06
 0.83470001E+02  0.77740E+06
 0.83519997E+02  0.63852E+06
 0.83570000E+02  0.53132E+06
 0.83619995E+02  0.44679E+06
 0.83669998E+02  0.39012E+06
 0.83720001E+02  0.35980E+06
 0.83769997E+02  0.33152E+06
 0.83820000E+02  0.27083E+06
 0.83869995E+02  0.17537E+06
 0.83919998E+02  0.79653E+05
 0.83970001E+02  0.16359E+05
 0.84019997E+02 -0.30920E+04
 0.84070000E+02 -0.53350E+04
 0.84119995E+02 -0.30170E+05
 0.84169998E+02 -0.82465E+05
 0.84220001E+02 -0.13285E+06
 0.84269997E+02 -0.14248E+06
 0.84320000E+02 -0.94216E+05
 0.84369995E+02 -0.47050E+04
 0.84419998E+02  0.10678E+06
 0.84470001E+02  0.21725E+06
 0.84519997E+02  0.29709E+06
 0.84570000E+02  0.34508E+06
 0.84619995E+02  0.37384E+06
 0.84669998E+02  0.37713E+06
 0.84720001E+02  0.33961E+06
 0.84769997E+02  0.26122E+06
 0.84820000E+02  0.18419E+06
 0.84869995E+02  0.17818E+06
 0.84919998E+02  0.24580E+06
 0.84970001E+02  0.32632E+06
 0.85019997E+02  0.39872E+06
 0.85070000E+02  0.47442E+06
 0.85119995E+02  0.56189E+06
 0.85169998E+02  0.64544E+06
 0.85220001E+02  0.69093E+06
 0.85269997E+02  0.70171E+06
 0.85320000E+02  0.71164E+06
 0.85369995E+02  0.74484E+06
 0.85419998E+02  0.79515E+06
 0.85470001E+02  0.85365E+06
 0.85519997E+02  0.92863E+06
 0.85570000E+02  0.10123E+07
 0.85619995E+02  0.10762E+07
 0.85669998E+02  0.10851E+07
 0.85720001E+02  0.10291E+07
 0.85769997E+02  0.94464E+06
 0.85820000E+02  0.87266E+06
 0.85869995E+02  0.80163E+06
 0.85919998E+02  0.66580E+06
 0.85970001E+02  0.44606E+06
 0.86019997E+02  0.20873E+06
 0.86070000E+02  0.19805E+05
 0.86119995E+02 -0.11501E+06
 0.86169998E+02 -0.23446E+06
 0.86220001E+02 -0.36594E+06
 0.86269997E+02 -0.49416E+06
 0.86320000E+02 -0.60777E+06
 0.86369995E+02 -0.72583E+06
 0.86419998E+02 -0.84862E+06
 0.86470001E+02 -0.98488E+06
 0.86519997E+02 -0.11389E+07
 0.86570000E+02 -0.12684E+07
 0.86619995E+02 -0.13238E+07
 0.86669998E+02 -0.12639E+07
 0.86720001E+02 -0.10868E+07
 0.86769997E+02 -0.84026E+06
 0.86820000E+02 -0.58418E+06
 0.86869995E+02 -0.36149E+06
 0.86919998E+02 -0.20590E+06
 0.86970001E+02 -0.12576E+06
 0.87019997E+02 -0.87735E+05
 0.87070000E+02 -0.65933E+05
 0.87119995E+02 -0.46354E+05
 0.87169998E+02 -0.80630E+04
 0.87220001E+02  0.56454E+05
 0.87269997E+02  0.12941E+06
 0.87320000E+02  0.19241E+06
 0.87369995E+02  0.23272E+06
 0.87419998E+02  0.23929E+06
 0.87470001E+02  0.22523E+06
 0.87519997E+02  0.21584E+06
 0.87570000E+02  0.20914E+06
 0.87619995E+02  0.18457E+06
 0.87669998E+02  0.12062E+06
 0.87720001E+02  0.15302E+05
 0.87769997E+02 -0.97128E+05
 0.87820000E+02 -0.20192E+06
 0.87869995E+02 -0.31033E+06
 0.87919998E+02 -0.41854E+06
 0.87970001E+02 -0.50258E+06
 0.88019997E+02 -0.53742E+06
 0.88070000E+02 -0.52661E+06
 0.88119995E+02 -0.47743E+06
 0.88169998E+02 -0.38755E+06
 0.88220001E+02 -0.25899E+06
 0.88269997E+02 -0.11316E+06
 0.88320000E+02 -0.13860E+04
 0.88369995E+02  0.50592E+05
 0.88419998E+02  0.59159E+05
 0.88470001E+02  0.35096E+05
 0.88519997E+02 -0.23852E+05
 0.88570000E+02 -0.11590E+06
 0.88619995E+02 -0.23201E+06
 0.88669998E+02 -0.36256E+06
 0.88720001E+02 -0.49912E+06
 0.88769997E+02 -0.63291E+06
 0.88820000E+02 -0.74986E+06
 0.88869995E+02 -0.82583E+06
 0.88919998E+02 -0.83440E+06
 0.88970001E+02 -0.76392E+06
 0.89019997E+02 -0.62903E+06
 0.89070000E+02 -0.45507E+06
 0.89119995E+02 -0.26359E+06
 0.89169998E+02 -0.88394E+05
 0.89220001E+02  0.36628E+05
 0.89269997E+02  0.10132E+06
 0.89320000E+02  0.11787E+06
 0.89369995E+02  0.11829E+06
 0.89419998E+02  0.12861E+06
 0.89470001E+02  0.15042E+06
 0.89519997E+02  0.16162E+06
 0.89570000E+02  0.14594E+06
 0.89619995E+02  0.11696E+06
 0.89669998E+02  0.85365E+05
 0.89720001E+02  0.51557E+05
 0.89769997E+02  0.15173E+05
 0.89820000E+02 -0.29387E+05
 0.89869995E+02 -0.86958E+05
 0.89919998E+02 -0.15893E+06
 0.89970001E+02 -0.23339E+06
 0.90019997E+02 -0.28452E+06
 0.90070000E+02 -0.30675E+06
 0.90119995E+02 -0.31212E+06
 0.90169998E+02 -0.30819E+06
 0.90220001E+02 -0.29397E+06
 0.90269997E+02 -0.25568E+06
 0.90320000E+02 -0.19059E+06
 0.90369995E+02 -0.12614E+06
 0.90419998E+02 -0.96757E+05
 0.90470001E+02 -0.86799E+05
 0.90519997E+02 -0.53818E+05
 0.90570000E+02  0.72080E+04
 0.90619995E+02  0.84235E+05
 0.90669998E+02  0.15971E+06
 0.90720001E+02  0.21877E+06
 0.90769997E+02  0.26379E+06
 0.90820000E+02  0.29182E+06
 0.90869995E+02  0.29803E+06
 0.90919998E+02  0.29295E+06
 0.90970001E+02  0.30130E+06
 0.91019997E+02  0.33281E+06
 0.91070000E+02  0.36387E+06
 0.91119995E+02  0.37846E+06
 0.91169998E+02  0.37027E+06
 0.91220001E+02  0.33505E+06
 0.91269997E+02  0.27385E+06
 0.91320000E+02  0.19107E+06
 0.91369995E+02  0.11025E+06
 0.91419998E+02  0.36523E+05
 0.91470001E+02 -0.45319E+05
 0.91519997E+02 -0.14422E+06
 0.91570000E+02 -0.26048E+06
 0.91619995E+02 -0.36601E+06
 0.91669998E+02 -0.43735E+06
 0.91720001E+02 -0.48060E+06
 0.91769997E+02 -0.49985E+06
 0.91820000E+02 -0.49151E+06
 0.91869995E+02 -0.45353E+06
 0.91919998E+02 -0.40114E+06
 0.91970001E+02 -0.36833E+06
 0.92019997E+02 -0.36701E+06
 0.92070000E+02 -0.38122E+06
 0.92119995E+02 -0.39839E+06
 0.92169998E+02 -0.40287E+06
 0.92220001E+02 -0.37148E+06
 0.92269997E+02 -0.30402E+06
 0.92320000E+02 -0.21453E+06
 0.92369995E+02 -0.10934E+06
 0.92419998E+02  0.89450E+04
 0.92470001E+02  0.15480E+06
 0.92519997E+02  0.34492E+06
 0.92570000E+02  0.57120E+06
 0.92619995E+02  0.79590E+06
 0.92669998E+02  0.96598E+06
 0.92720001E+02  0.10621E+07
 0.92769997E+02  0.10987E+07
 0.92820000E+02  0.10838E+07
 0.92869995E+02  0.10228E+07
 0.92919998E+02  0.92756E+06
 0.92970001E+02  0.79939E+06
 0.93019997E+02  0.65079E+06
 0.93070000E+02  0.50665E+06
 0.93119995E+02  0.36762E+06
 0.93169998E+02  0.22040E+06
 0.93220001E+02  0.66183E+05
 0.93269997E+02 -0.61352E+05
 0.93320000E+02 -0.12653E+06
 0.93369995E+02 -0.15094E+06
 0.93419998E+02 -0.19164E+06
 0.93470001E+02 -0.27735E+06
 0.93519997E+02 -0.40358E+06
 0.93570000E+02 -0.54876E+06
 0.93619995E+02 -0.68064E+06
 0.93669998E+02 -0.76690E+06
 0.93720001E+02 -0.79501E+06
 0.93769997E+02 -0.79574E+06
 0.93820000E+02 -0.82008E+06
 0.93869995E+02 -0.88512E+06
 0.93919998E+02 -0.95272E+06
 0.93970001E+02 -0.98074E+06
 0.94019997E+02 -0.95797E+06
 0.94070000E+02 -0.88972E+06
 0.94119995E+02 -0.79711E+06
 0.94169998E+02 -0.69540E+06
 0.94220001E+02 -0.60798E+06
 0.94269997E+02 -0.56197E+06
 0.94320000E+02 -0.54963E+06
 0.94369995E+02 -0.57411E+06
 0.94419998E+02 -0.63332E+06
 0.94470001E+02 -0.68579E+06
 0.94519997E+02 -0.70037E+06
 0.94570000E+02 -0.66519E+06
 0.94619995E+02 -0.59836E+06
 0.94669998E+02 -0.53379E+06
 0.94720001E+02 -0.47971E+06
 0.94769997E+02 -0.43613E+06
 0.94820000E+02 -0.39621E+06
 0.94869995E+02 -0.34227E+06
 0.94919998E+02 -0.25747E+06
 0.94970001E+02 -0.13579E+06
 0.95019997E+02  0.91310E+04
 0.95070000E+02  0.17149E+06
 0.95119995E+02  0.36342E+06
 0.95169998E+02  0.57996E+06
 0.95220001E+02  0.79098E+06
 0.95269997E+02  0.96639E+06
 0.95320000E+02  0.10836E+07
 0.95369995E+02  0.11280E+07
 0.95419998E+02  0.11067E+07
 0.95470001E+02  0.10402E+07
 0.95519997E+02  0.95828E+06
 0.95570000E+02  0.88691E+06
 0.95619995E+02  0.83147E+06
 0.95669998E+02  0.78748E+06
 0.95720001E+02  0.72746E+06
 0.95769997E+02  0.63473E+06
 0.95820000E+02  0.53921E+06
 0.95869995E+02  0.46286E+06
 0.95919998E+02  0.40114E+06
 0.95970001E+02  0.35224E+06
 0.96019997E+02  0.31331E+06
 0.96070000E+02  0.27458E+06
 0.96119995E+02  0.23434E+06
 0.96169998E+02  0.19953E+06
 0.96220001E+02  0.17768E+06
 0.96269997E+02  0.17842E+06
 0.96320000E+02  0.19703E+06
 0.96369995E+02  0.20390E+06
 0.96419998E+02  0.17677E+06
 0.96470001E+02  0.11832E+06
 0.96519997E+02  0.52223E+05
 0.96570000E+02 -0.31620E+04
 0.96619995E+02 -0.63606E+05
 0.96669998E+02 -0.14668E+06
 0.96720001E+02 -0.23473E+06
 0.96769997E+02 -0.29487E+06
 0.96820000E+02 -0.31243E+06
 0.96869995E+02 -0.29125E+06
 0.96919998E+02 -0.24948E+06
 0.96970001E+02 -0.20436E+06
 0.97019997E+02 -0.15238E+06
 0.97070000E+02 -0.85657E+05
 0.97119995E+02  0.13400E+03
 0.97169998E+02  0.10927E+06
 0.97220001E+02  0.23013E+06
 0.97269997E+02  0.34135E+06
 0.97320000E+02  0.44275E+06
 0.97369995E+02  0.55053E+06
 0.97419998E+02  0.66651E+06
 0.97470001E+02  0.77288E+06
 0.97519997E+02  0.85823E+06
 0.97570000E+02  0.92943E+06
 0.97619995E+02  0.99438E+06
 0.97669998E+02  0.10549E+07
 0.97720001E+02  0.10995E+07
 0.97769997E+02  0.11061E+07
 0.97820000E+02  0.10741E+07
 0.97869995E+02  0.10311E+07
 0.97919998E+02  0.10028E+07
 0.97970001E+02  0.99410E+06
 0.98019997E+02  0.99014E+06
 0.98070000E+02  0.97486E+06
 0.98119995E+02  0.95052E+06
 0.98169998E+02  0.92428E+06
 0.98220001E+02  0.89417E+06
 0.98269997E+02  0.85356E+06
 0.98320000E+02  0.79782E+06
 0.98369995E+02  0.71227E+06
 0.98419998E+02  0.56936E+06
 0.98470001E+02  0.36877E+06
 0.98519997E+02  0.13054E+06
 0.98570000E+02 -0.13017E+06
 0.98619995E+02 -0.39178E+06
 0.98669998E+02 -0.63532E+06
 0.98720001E+02 -0.84016E+06
 0.98769997E+02 -0.99015E+06
 0.98820000E+02 -0.10948E+07
 0.98869995E+02 -0.11676E+07
 0.98919998E+02 -0.12110E+07
 0.98970001E+02 -0.12169E+07
 0.99019997E+02 -0.11836E+07
 0.99070000E+02 -0.11217E+07
 0.99119995E+02 -0.10389E+07
 0.99169998E+02 -0.95465E+06
 0.99220001E+02 -0.88881E+06
 0.99269997E+02 -0.83714E+06
 0.99320000E+02 -0.78464E+06
 0.99369995E+02 -0.72622E+06
 0.99419998E+02 -0.67268E+06
 0.99470001E+02 -0.63046E+06
 0.99519997E+02 -0.59991E+06
 0.99570000E+02 -0.57733E+06
 0.99619995E+02 -0.55314E+06
 0.99669998E+02 -0.52731E+06
 0.99720001E+02 -0.50435E+06
 0.99769997E+02 -0.48395E+06
 0.99820000E+02 -0.47124E+06
 0.99869995E+02 -0.47465E+06
 0.99919998E+02 -0.49853E+06
 0.99970001E+02 -0.53897E+06
 0.10002000E+03 -0.56791E+06
 0.10007000E+03 -0.55136E+06
 0.10012000E+03 -0.48816E+06
 0.10017000E+03 -0.41370E+06
 0.10022000E+03 -0.35871E+06
 0.10027000E+03 -0.31116E+06
 0.10032000E+03 -0.24445E+06
 0.10037000E+03 -0.15538E+06
 0.10042000E+03 -0.52986E+05
 0.10047000E+03  0.63423E+05
 0.10052000E+03  0.19912E+06
 0.10057000E+03  0.35486E+06
 0.10062000E+03  0.52359E+06
 0.10067000E+03  0.68477E+06
 0.10072000E+03  0.81294E+06
 0.10077000E+03  0.89503E+06
 0.10082000E+03  0.94077E+06
 0.10087000E+03  0.96870E+06
 0.10092000E+03  0.99160E+06
 0.10097000E+03  0.10195E+07
 0.10102000E+03  0.10526E+07
 0.10107000E+03  0.10835E+07
 0.10112000E+03  0.11088E+07
 0.10117000E+03  0.11320E+07
 0.10122000E+03  0.11572E+07
 0.10127000E+03  0.11771E+07
 0.10132000E+03  0.11778E+07
 0.10137000E+03  0.11487E+07
 0.10142000E+03  0.10830E+07
 0.10147000E+03  0.98678E+06
 0.10152000E+03  0.86874E+06
 0.10157000E+03  0.73729E+06
 0.10162000E+03  0.60945E+06
 0.10167000E+03  0.49537E+06
 0.10172000E+03  0.38883E+06
 0.10177000E+03  0.26854E+06
 0.10182000E+03  0.12288E+06
 0.10187000E+03 -0.38484E+05
 0.10192000E+03 -0.20132E+06
 0.10197000E+03 -0.35874E+06
 0.10202000E+03 -0.50534E+06
 0.10207000E+03 -0.62532E+06
 0.10212000E+03 -0.71874E+06
 0.10217000E+03 -0.79722E+06
 0.10222000E+03 -0.86456E+06
 0.10227000E+03 -0.92650E+06
 0.10232000E+03 -0.97501E+06
 0.10237000E+03 -0.98436E+06
 0.10242000E+03 -0.93156E+06
 0.10247000E+03 -0.81909E+06
 0.10252000E+03 -0.67201E+06
 0.10257000E+03 -0.51508E+06
 0.10262000E+03 -0.37587E+06
 0.10267000E+03 -0.27653E+06
 0.10272000E+03 -0.22925E+06
 0.10277000E+03 -0.23212E+06
 0.10282000E+03 -0.26082E+06
 0.10287000E+03 -0.29055E+06
 0.10292000E+03 -0.30722E+06
 0.10297000E+03 -0.31094E+06
 0.10302000E+03 -0.31168E+06
 0.10307000E+03 -0.31824E+06
 0.10312000E+03 -0.32947E+06
 0.10317000E+03 -0.33956E+06
 0.10322000E+03 -0.35012E+06
 0.10327000E+03 -0.35956E+06
 0.10332000E+03 -0.37021E+06
 0.10337000E+03 -0.38906E+06
 0.10342000E+03 -0.41486E+06
 0.10347000E+03 -0.44182E+06
 0.10352000E+03 -0.46080E+06
 0.10357000E+03 -0.46892E+06
 0.10362000E+03 -0.46998E+06
 0.10367000E+03 -0.46178E+06
 0.10372000E+03 -0.43823E+06
 0.10377000E+03 -0.40333E+06
 0.10382000E+03 -0.37969E+06
 0.10387000E+03 -0.39284E+06
 0.10392000E+03 -0.44069E+06
 0.10397000E+03 -0.49857E+06
 0.10402000E+03 -0.54815E+06
 0.10407000E+03 -0.58032E+06
 0.10412000E+03 -0.58945E+06
 0.10417000E+03 -0.57731E+06
 0.10422000E+03 -0.55912E+06
 0.10427000E+03 -0.54457E+06
 0.10432000E+03 -0.52114E+06
 0.10437000E+03 -0.47426E+06
 0.10442000E+03 -0.40542E+06
 0.10447000E+03 -0.32983E+06
 0.10452000E+03 -0.26094E+06
 0.10457000E+03 -0.19483E+06
 0.10462000E+03 -0.12037E+06
 0.10467000E+03 -0.43405E+05
 0.10472000E+03  0.27961E+05
 0.10477000E+03  0.95633E+05
 0.10482000E+03  0.15439E+06
 0.10487000E+03  0.19370E+06
 0.10492000E+03  0.20751E+06
 0.10497000E+03  0.19454E+06
 0.10502000E+03  0.15478E+06
 0.10507000E+03  0.97924E+05
 0.10512000E+03  0.40065E+05
 0.10517000E+03 -0.53070E+04
 0.10522000E+03 -0.19575E+05
 0.10527000E+03  0.79930E+04
 0.10532000E+03  0.72475E+05
 0.10537000E+03  0.16274E+06
 0.10542000E+03  0.26294E+06
 0.10547000E+03  0.36030E+06
 0.10552000E+03  0.44787E+06
 0.10557000E+03  0.52565E+06
 0.10562000E+03  0.60262E+06
 0.10567000E+03  0.68053E+06
 0.10572000E+03  0.74930E+06
 0.10577000E+03  0.79514E+06
 0.10582000E+03  0.80226E+06
 0.10587000E+03  0.76360E+06
 0.10592000E+03  0.68836E+06
 0.10597000E+03  0.59567E+06
 0.10602000E+03  0.50482E+06
 0.10607000E+03  0.42316E+06
 0.10612000E+03  0.34559E+06
 0.10617000E+03  0.27356E+06
 0.10622000E+03  0.21361E+06
 0.10627000E+03  0.16349E+06
 0.10632000E+03  0.11456E+06
 0.10637000E+03  0.60560E+05
 0.10642000E+03  0.36210E+04
 0.10647000E+03 -0.55335E+05
 0.10652000E+03 -0.12043E+06
 0.10657000E+03 -0.19137E+06
 0.10662000E+03 -0.25672E+06
 0.10667000E+03 -0.30673E+06
 0.10672000E+03 -0.34090E+06
 0.10677000E+03 -0.35708E+06
 0.10682000E+03 -0.35232E+06
 0.10687000E+03 -0.32287E+06
 0.10692000E+03 -0.26953E+06
 0.10697000E+03 -0.20450E+06
 0.10702000E+03 -0.14268E+06
 0.10707000E+03 -0.87540E+05
 0.10712000E+03 -0.32256E+05
 0.10717000E+03  0.28343E+05
 0.10722000E+03  0.93453E+05
 0.10727000E+03  0.15108E+06
 0.10732000E+03  0.19036E+06
 0.10737000E+03  0.21844E+06
 0.10742000E+03  0.24285E+06
 0.10747000E+03  0.25765E+06
 0.10752000E+03  0.25223E+06
 0.10757000E+03  0.22264E+06
 0.10762000E+03  0.18054E+06
 0.10767000E+03  0.14236E+06
 0.10772000E+03  0.11528E+06
 0.10777000E+03  0.99870E+05
 0.10782000E+03  0.94590E+05
 0.10787000E+03  0.97644E+05
 0.10792000E+03  0.10764E+06
 0.10797000E+03  0.11527E+06
 0.10802000E+03  0.11136E+06
 0.10807000E+03  0.10041E+06
 0.10812000E+03  0.90416E+05
 0.10817000E+03  0.86940E+05
 0.10822000E+03  0.91430E+05
 0.10827000E+03  0.10591E+06
 0.10832000E+03  0.13132E+06
 0.10837000E+03  0.15732E+06
 0.10842000E+03  0.17411E+06
 0.10847000E+03  0.18210E+06
 0.10852000E+03  0.18588E+06
 0.10857000E+03  0.18775E+06
 0.10862000E+03  0.18782E+06
 0.10867000E+03  0.18586E+06
 0.10872000E+03  0.18226E+06
 0.10877000E+03  0.17648E+06
 0.10882000E+03  0.15657E+06
 0.10887000E+03  0.11013E+06
 0.10892000E+03  0.45318E+05
 0.10897000E+03 -0.18668E+05
 0.10902000E+03 -0.64328E+05
 0.10907000E+03 -0.82948E+05
 0.10912000E+03 -0.79229E+05
 0.10917000E+03 -0.63663E+05
 0.10922000E+03 -0.46545E+05
 0.10927000E+03 -0.37200E+05
 0.10932000E+03 -0.38806E+05
 0.10937000E+03 -0.51843E+05
 0.10942000E+03 -0.80549E+05
 0.10947000E+03 -0.12822E+06
 0.10952000E+03 -0.19892E+06
 0.10957000E+03 -0.29275E+06
 0.10962000E+03 -0.39829E+06
 0.10967000E+03 -0.50246E+06
 0.10972000E+03 -0.59912E+06
 0.10977000E+03 -0.68728E+06
 0.10982000E+03 -0.76255E+06
 0.10987000E+03 -0.81054E+06
 0.10992000E+03 -0.81818E+06
 0.10997000E+03 -0.78996E+06
 0.11002000E+03 -0.74112E+06
 0.11007000E+03 -0.67832E+06
 0.11012000E+03 -0.59895E+06
 0.11017000E+03 -0.50660E+06
 0.11022000E+03 -0.41411E+06
 0.11027000E+03 -0.33366E+06
 0.11032000E+03 -0.26730E+06
 0.11037000E+03 -0.20729E+06
 0.11042000E+03 -0.14985E+06
 0.11047000E+03 -0.94604E+05
 0.11052000E+03 -0.40411E+05
 0.11057000E+03  0.83280E+04
 0.11062000E+03  0.48544E+05
 0.11067000E+03  0.82167E+05
 0.11072000E+03  0.11165E+06
 0.11077000E+03  0.13240E+06
 0.11082000E+03  0.13110E+06
 0.11087000E+03  0.10426E+06
 0.11092000E+03  0.58524E+05
 0.11097000E+03  0.21850E+04
 0.11102000E+03 -0.52087E+05
 0.11107000E+03 -0.93950E+05
 0.11112000E+03 -0.12278E+06
 0.11117000E+03 -0.14630E+06
 0.11122000E+03 -0.16627E+06
 0.11127000E+03 -0.17495E+06
 0.11132000E+03 -0.16184E+06
 0.11137000E+03 -0.11927E+06
 0.11142000E+03 -0.55105E+05
 0.11147000E+03  0.12684E+05
 0.11152000E+03  0.69485E+05
 0.11157000E+03  0.11190E+06
 0.11162000E+03  0.14600E+06
 0.11167000E+03  0.17648E+06
 0.11172000E+03  0.20124E+06
 0.11177000E+03  0.21340E+06
 0.11182000E+03  0.20808E+06
 0.11187000E+03  0.18966E+06
 0.11192000E+03  0.16594E+06
 0.11197000E+03  0.13424E+06
 0.11202000E+03  0.91443E+05
 0.11207000E+03  0.50245E+05
 0.11212000E+03  0.30368E+05
 0.11217000E+03  0.41653E+05
 0.11222000E+03  0.78076E+05
 0.11227000E+03  0.12500E+06
 0.11232000E+03  0.17405E+06
 0.11237000E+03  0.22514E+06
 0.11242000E+03  0.27868E+06
 0.11247000E+03  0.33256E+06
 0.11252000E+03  0.38670E+06
 0.11257000E+03  0.44875E+06
 0.11262000E+03  0.51954E+06
 0.11267000E+03  0.58282E+06
 0.11272000E+03  0.62351E+06
 0.11277000E+03  0.63821E+06
 0.11282000E+03  0.62965E+06
 0.11287000E+03  0.60399E+06
 0.11292000E+03  0.57008E+06
 0.11297000E+03  0.53344E+06
 0.11302000E+03  0.49459E+06
 0.11307000E+03  0.45382E+06
 0.11312000E+03  0.40395E+06
 0.11317000E+03  0.33752E+06
 0.11322000E+03  0.26259E+06
 0.11327000E+03  0.19056E+06
 0.11332000E+03  0.12100E+06
 0.11337000E+03  0.46902E+05
 0.11342000E+03 -0.32387E+05
 0.11347000E+03 -0.10465E+06
 0.11352000E+03 -0.15577E+06
 0.11357000E+03 -0.18233E+06
 0.11362000E+03 -0.19288E+06
 0.11367000E+03 -0.20058E+06
 0.11372000E+03 -0.20911E+06
 0.11377000E+03 -0.21518E+06
 0.11382000E+03 -0.21618E+06
 0.11387000E+03 -0.21210E+06
 0.11392000E+03 -0.20633E+06
 0.11397000E+03 -0.20296E+06
 0.11402000E+03 -0.20409E+06
 0.11407000E+03 -0.20777E+06
 0.11412000E+03 -0.21258E+06
 0.11417000E+03 -0.22002E+06
 0.11422000E+03 -0.23092E+06
 0.11427000E+03 -0.24232E+06
 0.11432000E+03 -0.24975E+06
 0.11437000E+03 -0.24991E+06
 0.11442000E+03 -0.24484E+06
 0.11447000E+03 -0.24158E+06
 0.11452000E+03 -0.24021E+06
 0.11457000E+03 -0.23447E+06
 0.11462000E+03 -0.22674E+06
 0.11467000E+03 -0.22240E+06
 0.11472000E+03 -0.22025E+06
 0.11477000E+03 -0.21431E+06
 0.11482000E+03 -0.19422E+06
 0.11487000E+03 -0.16064E+06
 0.11492000E+03 -0.12115E+06
 0.11497000E+03 -0.77241E+05
 0.11502000E+03 -0.31722E+05
 0.11507000E+03  0.75060E+04
 0.11512000E+03  0.28384E+05
 0.11517000E+03  0.27512E+05
 0.11522000E+03  0.17362E+05
 0.11527000E+03  0.18920E+05
 0.11532000E+03  0.42659E+05
 0.11537000E+03  0.81272E+05
 0.11542000E+03  0.12892E+06
 0.11547000E+03  0.18450E+06
 0.11552000E+03  0.24569E+06
 0.11557000E+03  0.30993E+06
 0.11562000E+03  0.37466E+06
 0.11567000E+03  0.43954E+06
 0.11572000E+03  0.50059E+06
 0.11577000E+03  0.55067E+06
 0.11582000E+03  0.59014E+06
 0.11587000E+03  0.62014E+06
 0.11592000E+03  0.63525E+06
 0.11597000E+03  0.63596E+06
 0.11602000E+03  0.63165E+06
 0.11607000E+03  0.63080E+06
 0.11612000E+03  0.63495E+06
 0.11617000E+03  0.63984E+06
 0.11622000E+03  0.63867E+06
 0.11627000E+03  0.62339E+06
 0.11632000E+03  0.59620E+06
 0.11637000E+03  0.57020E+06
 0.11642000E+03  0.55412E+06
 0.11647000E+03  0.55124E+06
 0.11652000E+03  0.56211E+06
 0.11657000E+03  0.58116E+06
 0.11662000E+03  0.60163E+06
 0.11667000E+03  0.61485E+06
 0.11672000E+03  0.61096E+06
 0.11677000E+03  0.59034E+06
 0.11682000E+03  0.55964E+06
 0.11687000E+03  0.52672E+06
 0.11692000E+03  0.49969E+06
 0.11697000E+03  0.47649E+06
 0.11702000E+03  0.44632E+06
 0.11707000E+03  0.40794E+06
 0.11712000E+03  0.37551E+06
 0.11717000E+03  0.35986E+06
 0.11722000E+03  0.35801E+06
 0.11727000E+03  0.36273E+06
 0.11732000E+03  0.36770E+06
 0.11737000E+03  0.36880E+06
 0.11742000E+03  0.36122E+06
 0.11747000E+03  0.33188E+06
 0.11752000E+03  0.27188E+06
 0.11757000E+03  0.18758E+06
 0.11762000E+03  0.91747E+05
 0.11767000E+03 -0.83900E+03
 0.11772000E+03 -0.80200E+05
 0.11777000E+03 -0.14541E+06
 0.11782000E+03 -0.20405E+06
 0.11787000E+03 -0.26589E+06
 0.11792000E+03 -0.32769E+06
 0.11797000E+03 -0.38401E+06
 0.11802000E+03 -0.43636E+06
 0.11807000E+03 -0.48637E+06
 0.11812000E+03 -0.53713E+06
 0.11817000E+03 -0.59141E+06
 0.11822000E+03 -0.65230E+06
 0.11827000E+03 -0.72013E+06
 0.11832000E+03 -0.78787E+06
 0.11837000E+03 -0.84365E+06
 0.11842000E+03 -0.87685E+06
 0.11847000E+03 -0.88582E+06
 0.11852000E+03 -0.87221E+06
 0.11857000E+03 -0.83451E+06
 0.11862000E+03 -0.77314E+06
 0.11867000E+03 -0.69640E+06
 0.11872000E+03 -0.61839E+06
 0.11877000E+03 -0.54786E+06
 0.11882000E+03 -0.48504E+06
 0.11887000E+03 -0.42930E+06
 0.11892000E+03 -0.37944E+06
 0.11897000E+03 -0.33394E+06
 0.11902000E+03 -0.29431E+06
 0.11907000E+03 -0.26349E+06
 0.11912000E+03 -0.24379E+06
 0.11917000E+03 -0.23464E+06
 0.11922000E+03 -0.23470E+06
 0.11927000E+03 -0.24277E+06
 0.11932000E+03 -0.25283E+06
 0.11937000E+03 -0.25864E+06
 0.11942000E+03 -0.26144E+06
 0.11947000E+03 -0.26340E+06
 0.11952000E+03 -0.26632E+06
 0.11957000E+03 -0.27713E+06
 0.11962000E+03 -0.30284E+06
 0.11967000E+03 -0.34372E+06
 0.11972000E+03 -0.39248E+06
 0.11977000E+03 -0.44333E+06
 0.11982000E+03 -0.49585E+06
 0.11987000E+03 -0.54707E+06
 0.11992000E+03 -0.58840E+06
 0.11997000E+03 -0.60776E+06
 0.12002000E+03 -0.59773E+06
 0.12007000E+03 -0.56363E+06
 0.12012000E+03 -0.51394E+06
 0.12017000E+03 -0.45101E+06
 0.12022000E+03 -0.37387E+06
 0.12027000E+03 -0.28011E+06
 0.12032000E+03 -0.16942E+06
 0.12037000E+03 -0.44943E+05
 0.12042000E+03  0.86793E+05
 0.12047000E+03  0.21358E+06
 0.12052000E+03  0.32402E+06
 0.12057000E+03  0.41588E+06
 0.12062000E+03  0.49416E+06
 0.12067000E+03  0.56578E+06
 0.12072000E+03  0.63451E+06
 0.12077000E+03  0.69913E+06
 0.12082000E+03  0.75462E+06
 0.12087000E+03  0.79138E+06
 0.12092000E+03  0.79934E+06
 0.12097000E+03  0.77653E+06
 0.12102000E+03  0.73131E+06
 0.12107000E+03  0.67773E+06
 0.12112000E+03  0.62484E+06
 0.12117000E+03  0.57400E+06
 0.12122000E+03  0.52889E+06
 0.12127000E+03  0.49398E+06
 0.12132000E+03  0.46566E+06
 0.12137000E+03  0.43367E+06
 0.12142000E+03  0.38999E+06
 0.12147000E+03  0.33363E+06
 0.12152000E+03  0.26862E+06
 0.12157000E+03  0.20357E+06
 0.12162000E+03  0.14846E+06
 0.12167000E+03  0.10784E+06
 0.12172000E+03  0.78367E+05
 0.12177000E+03  0.50442E+05
 0.12182000E+03  0.18526E+05
 0.12187000E+03 -0.11851E+05
 0.12192000E+03 -0.33360E+05
 0.12197000E+03 -0.42295E+05
 0.12202000E+03 -0.35691E+05
 0.12207000E+03 -0.14755E+05
 0.12212000E+03  0.95430E+04
 0.12217000E+03  0.23065E+05
 0.12222000E+03  0.19454E+05
 0.12227000E+03  0.18760E+04
 0.12232000E+03 -0.19851E+05
 0.12237000E+03 -0.37357E+05
 0.12242000E+03 -0.51302E+05
 0.12247000E+03 -0.62708E+05
 0.12252000E+03 -0.67086E+05
 0.12257000E+03 -0.63365E+05
 0.12262000E+03 -0.55743E+05
 0.12267000E+03 -0.49488E+05
 0.12272000E+03 -0.49018E+05
 0.12277000E+03 -0.58447E+05
 0.12282000E+03 -0.79472E+05
 0.12287000E+03 -0.10846E+06
 0.12292000E+03 -0.14321E+06
 0.12297000E+03 -0.18376E+06
 0.12302000E+03 -0.22632E+06
 0.12307000E+03 -0.26567E+06
 0.12312000E+03 -0.30054E+06
 0.12317000E+03 -0.33433E+06
 0.12322000E+03 -0.37029E+06
 0.12327000E+03 -0.40654E+06
 0.12332000E+03 -0.43741E+06
 0.12337000E+03 -0.45739E+06
 0.12342000E+03 -0.46180E+06
 0.12347000E+03 -0.45248E+06
 0.12352000E+03 -0.43687E+06
 0.12357000E+03 -0.41758E+06
 0.12362000E+03 -0.39138E+06
 0.12367000E+03 -0.35538E+06
 0.12372000E+03 -0.31146E+06
 0.12377000E+03 -0.26407E+06
 0.12382000E+03 -0.21618E+06
 0.12387000E+03 -0.16684E+06
 0.12392000E+03 -0.11573E+06
 0.12397000E+03 -0.68036E+05
 0.12402000E+03 -0.28877E+05
 0.12407000E+03  0.31150E+04
 0.12412000E+03  0.35280E+05
 0.12417000E+03  0.70824E+05
 0.12422000E+03  0.10912E+06
 0.12427000E+03  0.15444E+06
 0.12432000E+03  0.21039E+06
 0.12437000E+03  0.27510E+06
 0.12442000E+03  0.33701E+06
 0.12447000E+03  0.38123E+06
 0.12452000E+03  0.40423E+06
 0.12457000E+03  0.40644E+06
 0.12462000E+03  0.38793E+06
 0.12467000E+03  0.35438E+06
 0.12472000E+03  0.31392E+06
 0.12477000E+03  0.27162E+06
 0.12482000E+03  0.22584E+06
 0.12487000E+03  0.17323E+06
 0.12492000E+03  0.11646E+06
 0.12497000E+03  0.60475E+05
 0.12502000E+03  0.11362E+05
 0.12507000E+03 -0.26086E+05
 0.12512000E+03 -0.52655E+05
 0.12517001E+03 -0.69985E+05
 0.12521999E+03 -0.81212E+05
 0.12527000E+03 -0.91020E+05
 0.12532000E+03 -0.10349E+06
 0.12537000E+03 -0.12221E+06
 0.12542001E+03 -0.14835E+06
 0.12546999E+03 -0.18146E+06
 0.12552000E+03 -0.21955E+06
 0.12557000E+03 -0.26007E+06
 0.12562000E+03 -0.30135E+06
 0.12567001E+03 -0.33830E+06
 0.12571999E+03 -0.36750E+06
 0.12577000E+03 -0.39178E+06
 0.12582000E+03 -0.41418E+06
 0.12587000E+03 -0.43982E+06
 0.12592001E+03 -0.47270E+06
 0.12596999E+03 -0.50861E+06
 0.12602000E+03 -0.54231E+06
 0.12607000E+03 -0.57129E+06
 0.12612000E+03 -0.59121E+06
 0.12617001E+03 -0.59754E+06
 0.12621999E+03 -0.58824E+06
 0.12627000E+03 -0.56574E+06
 0.12632000E+03 -0.53622E+06
 0.12637000E+03 -0.49993E+06
 0.12642001E+03 -0.45327E+06
 0.12646999E+03 -0.39808E+06
 0.12652000E+03 -0.33953E+06
 0.12657000E+03 -0.27998E+06
 0.12662000E+03 -0.21735E+06
 0.12667001E+03 -0.15274E+06
 0.12671999E+03 -0.93351E+05
 0.12677000E+03 -0.44171E+05
 0.12682000E+03 -0.28700E+04
 0.12687000E+03  0.38357E+05
 0.12692001E+03  0.83785E+05
 0.12696999E+03  0.12666E+06
 0.12702000E+03  0.15748E+06
 0.12707000E+03  0.17450E+06
 0.12712000E+03  0.18315E+06
 0.12717001E+03  0.19022E+06
 0.12721999E+03  0.19750E+06
 0.12727000E+03  0.20345E+06
 0.12732000E+03  0.20526E+06
 0.12737000E+03  0.19852E+06
 0.12742001E+03  0.18389E+06
 0.12746999E+03  0.16521E+06
 0.12752000E+03  0.14419E+06
 0.12757000E+03  0.12306E+06
 0.12762000E+03  0.10333E+06
 0.12767001E+03  0.88388E+05
 0.12771999E+03  0.81790E+05
 0.12777000E+03  0.79733E+05
 0.12782000E+03  0.76322E+05
 0.12787000E+03  0.69604E+05
 0.12792001E+03  0.63402E+05
 0.12796999E+03  0.66614E+05
 0.12802000E+03  0.82756E+05
 0.12807001E+03  0.10758E+06
 0.12812001E+03  0.13612E+06
 0.12817001E+03  0.16336E+06
 0.12822000E+03  0.18930E+06
 0.12827000E+03  0.21795E+06
 0.12832001E+03  0.25294E+06
 0.12837001E+03  0.29800E+06
 0.12842001E+03  0.35134E+06
 0.12847000E+03  0.40346E+06
 0.12852000E+03  0.44530E+06
 0.12857001E+03  0.47896E+06
 0.12862001E+03  0.51094E+06
 0.12867001E+03  0.54390E+06
 0.12872000E+03  0.57970E+06
 0.12877000E+03  0.61814E+06
 0.12882001E+03  0.65663E+06
 0.12887001E+03  0.69164E+06
 0.12892001E+03  0.71548E+06
 0.12897000E+03  0.71971E+06
 0.12902000E+03  0.70481E+06
 0.12907001E+03  0.67742E+06
 0.12912001E+03  0.64161E+06
 0.12917001E+03  0.59498E+06
 0.12922000E+03  0.53334E+06
 0.12927000E+03  0.45913E+06
 0.12932001E+03  0.37771E+06
 0.12937001E+03  0.29011E+06
 0.12942001E+03  0.19572E+06
 0.12947000E+03  0.97171E+05
 0.12952000E+03 -0.85800E+03
 0.12957001E+03 -0.95088E+05
 0.12962001E+03 -0.18447E+06
 0.12967001E+03 -0.26758E+06
 0.12972000E+03 -0.34076E+06
 0.12977000E+03 -0.40062E+06
 0.12982001E+03 -0.44649E+06
 0.12987001E+03 -0.47987E+06
 0.12992001E+03 -0.50114E+06
 0.12997000E+03 -0.50939E+06
 0.13002000E+03 -0.50690E+06
 0.13007001E+03 -0.49858E+06
 0.13012001E+03 -0.48760E+06
 0.13017001E+03 -0.47518E+06
 0.13022000E+03 -0.46266E+06
 0.13027000E+03 -0.45148E+06
 0.13032001E+03 -0.44131E+06
 0.13037001E+03 -0.43146E+06
 0.13042001E+03 -0.42187E+06
 0.13047000E+03 -0.41070E+06
 0.13052000E+03 -0.39481E+06
 0.13057001E+03 -0.37304E+06
 0.13062001E+03 -0.34583E+06
 0.13067001E+03 -0.31370E+06
 0.13072000E+03 -0.27547E+06
 0.13077000E+03 -0.23140E+06
 0.13082001E+03 -0.18719E+06
 0.13087001E+03 -0.14748E+06
 0.13092001E+03 -0.11452E+06
 0.13097000E+03 -0.91014E+05
 0.13102000E+03 -0.78306E+05
 0.13107001E+03 -0.73500E+05
 0.13112001E+03 -0.69914E+05
 0.13117001E+03 -0.63969E+05
 0.13122000E+03 -0.57688E+05
 0.13127000E+03 -0.54380E+05
 0.13132001E+03 -0.53475E+05
 0.13137001E+03 -0.51155E+05
 0.13142001E+03 -0.43496E+05
 0.13147000E+03 -0.27784E+05
 0.13152000E+03 -0.45490E+04
 0.13157001E+03  0.21047E+05
 0.13162001E+03  0.42808E+05
 0.13167001E+03  0.60276E+05
 0.13172000E+03  0.76726E+05
 0.13177000E+03  0.94120E+05
 0.13182001E+03  0.11259E+06
 0.13187001E+03  0.13246E+06
 0.13192001E+03  0.15350E+06
 0.13197000E+03  0.16945E+06
 0.13202000E+03  0.17529E+06
 0.13207001E+03  0.17366E+06
 0.13212001E+03  0.16835E+06
 0.13217001E+03  0.16402E+06
 0.13222000E+03  0.16672E+06
 0.13227000E+03  0.17841E+06
 0.13232001E+03  0.19434E+06
 0.13237001E+03  0.20832E+06
 0.13242001E+03  0.21782E+06
 0.13247000E+03  0.22451E+06
 0.13252000E+03  0.23422E+06
 0.13257001E+03  0.25049E+06
 0.13262001E+03  0.27024E+06
 0.13267001E+03  0.28740E+06
 0.13272000E+03  0.29648E+06
 0.13277000E+03  0.29663E+06
 0.13282001E+03  0.29132E+06
 0.13287001E+03  0.28491E+06
 0.13292001E+03  0.28054E+06
 0.13297000E+03  0.27746E+06
 0.13302000E+03  0.27318E+06
 0.13307001E+03  0.26799E+06
 0.13312001E+03  0.26493E+06
 0.13317001E+03  0.26732E+06
 0.13322000E+03  0.27589E+06
 0.13327000E+03  0.28709E+06
 0.13332001E+03  0.29768E+06
 0.13337001E+03  0.30803E+06
 0.13342001E+03  0.32041E+06
 0.13347000E+03  0.33639E+06
 0.13352000E+03  0.35319E+06
 0.13357001E+03  0.36441E+06
 0.13362001E+03  0.36507E+06
 0.13367001E+03  0.35698E+06
 0.13372000E+03  0.34669E+06
 0.13377000E+03  0.33854E+06
 0.13382001E+03  0.33324E+06
 0.13387001E+03  0.32861E+06
 0.13392001E+03  0.32373E+06
 0.13397000E+03  0.32068E+06
 0.13402000E+03  0.32066E+06
 0.13407001E+03  0.32219E+06
 0.13412001E+03  0.32337E+06
 0.13417001E+03  0.32341E+06
 0.13422000E+03  0.31900E+06
 0.13427000E+03  0.30585E+06
 0.13432001E+03  0.28455E+06
 0.13437001E+03  0.25711E+06
 0.13442001E+03  0.22429E+06
 0.13447000E+03  0.18814E+06
 0.13452000E+03  0.15032E+06
 0.13457001E+03  0.11341E+06
 0.13462001E+03  0.80051E+05
 0.13467001E+03  0.49065E+05
 0.13472000E+03  0.15612E+05
 0.13477000E+03 -0.25854E+05
 0.13482001E+03 -0.75497E+05
 0.13487001E+03 -0.12951E+06
 0.13492001E+03 -0.18348E+06
 0.13497000E+03 -0.23280E+06
 0.13502000E+03 -0.27465E+06
 0.13507001E+03 -0.30750E+06
 0.13512001E+03 -0.33006E+06
 0.13517001E+03 -0.34100E+06
 0.13522000E+03 -0.34002E+06
 0.13527000E+03 -0.32765E+06
 0.13532001E+03 -0.30678E+06
 0.13537001E+03 -0.28474E+06
 0.13542001E+03 -0.26810E+06
 0.13547000E+03 -0.25904E+06
 0.13552000E+03 -0.25537E+06
 0.13557001E+03 -0.25302E+06
 0.13562001E+03 -0.24796E+06
 0.13567001E+03 -0.23907E+06
 0.13572000E+03 -0.23098E+06
 0.13577000E+03 -0.22755E+06
 0.13582001E+03 -0.22990E+06
 0.13587001E+03 -0.23918E+06
 0.13592001E+03 -0.25435E+06
 0.13597000E+03 -0.27189E+06
 0.13602000E+03 -0.28833E+06
 0.13607001E+03 -0.30126E+06
 0.13612001E+03 -0.30873E+06
 0.13617001E+03 -0.31150E+06
 0.13622000E+03 -0.31034E+06
 0.13627000E+03 -0.30314E+06
 0.13632001E+03 -0.29024E+06
 0.13637001E+03 -0.27558E+06
 0.13642001E+03 -0.26351E+06
 0.13647000E+03 -0.25646E+06
 0.13652000E+03 -0.25438E+06
 0.13657001E+03 -0.25689E+06
 0.13662001E+03 -0.26199E+06
 0.13667001E+03 -0.26357E+06
 0.13672000E+03 -0.25715E+06
 0.13677000E+03 -0.24265E+06
 0.13682001E+03 -0.22066E+06
 0.13687001E+03 -0.19354E+06
 0.13692001E+03 -0.16392E+06
 0.13697000E+03 -0.13273E+06
 0.13702000E+03 -0.10087E+06
 0.13707001E+03 -0.68168E+05
 0.13712001E+03 -0.33611E+05
 0.13717001E+03  0.23730E+04
 0.13722000E+03  0.38623E+05
 0.13727000E+03  0.73781E+05
 0.13732001E+03  0.10465E+06
 0.13737001E+03  0.12855E+06
 0.13742001E+03  0.14638E+06
 0.13747000E+03  0.16070E+06
 0.13752000E+03  0.17442E+06
 0.13757001E+03  0.18609E+06
 0.13762001E+03  0.18845E+06
 0.13767001E+03  0.17758E+06
 0.13772000E+03  0.15429E+06
 0.13777000E+03  0.12266E+06
 0.13782001E+03  0.90150E+05
 0.13787001E+03  0.63252E+05
 0.13792001E+03  0.45894E+05
 0.13797000E+03  0.39368E+05
 0.13802000E+03  0.43128E+05
 0.13807001E+03  0.55403E+05
 0.13812001E+03  0.73585E+05
 0.13817001E+03  0.96542E+05
 0.13822000E+03  0.12503E+06
 0.13827000E+03  0.15792E+06
 0.13832001E+03  0.19140E+06
 0.13837001E+03  0.22137E+06
 0.13842001E+03  0.24482E+06
 0.13847000E+03  0.25982E+06
 0.13852000E+03  0.26433E+06
 0.13857001E+03  0.25961E+06
 0.13862001E+03  0.24867E+06
 0.13867001E+03  0.23220E+06
 0.13872000E+03  0.21136E+06
 0.13877000E+03  0.18729E+06
 0.13882001E+03  0.16104E+06
 0.13887001E+03  0.13429E+06
 0.13892001E+03  0.10957E+06
 0.13897000E+03  0.89743E+05
 0.13902000E+03  0.76345E+05
 0.13907001E+03  0.70591E+05
 0.13912001E+03  0.73361E+05
 0.13917001E+03  0.84373E+05
 0.13922000E+03  0.10169E+06
 0.13927000E+03  0.12217E+06
 0.13932001E+03  0.14246E+06
 0.13937001E+03  0.16046E+06
 0.13942001E+03  0.17526E+06
 0.13947000E+03  0.18559E+06
 0.13952000E+03  0.19065E+06
 0.13957001E+03  0.18833E+06
 0.13962001E+03  0.17595E+06
 0.13967001E+03  0.15312E+06
 0.13972000E+03  0.12215E+06
 0.13977000E+03  0.88966E+05
 0.13982001E+03  0.58284E+05
 0.13987001E+03  0.31143E+05
 0.13992001E+03  0.78160E+04
 0.13997000E+03 -0.12850E+05
 0.14002000E+03 -0.31276E+05
 0.14007001E+03 -0.45394E+05
 0.14012001E+03 -0.53734E+05
 0.14017001E+03 -0.56733E+05
 0.14022000E+03 -0.55900E+05
 0.14027000E+03 -0.53925E+05
 0.14032001E+03 -0.54297E+05
 0.14037001E+03 -0.58357E+05
 0.14042001E+03 -0.65066E+05
 0.14047000E+03 -0.73012E+05
 0.14052000E+03 -0.82208E+05
 0.14057001E+03 -0.95412E+05
 0.14062001E+03 -0.11576E+06
 0.14067001E+03 -0.14383E+06
 0.14072000E+03 -0.17622E+06
 0.14077000E+03 -0.20714E+06
 0.14082001E+03 -0.23268E+06
 0.14087001E+03 -0.25097E+06
 0.14092001E+03 -0.26069E+06
 0.14097000E+03 -0.26120E+06
 0.14102000E+03 -0.25268E+06
 0.14107001E+03 -0.23545E+06
 0.14112001E+03 -0.20856E+06
 0.14117001E+03 -0.17154E+06
 0.14122000E+03 -0.12605E+06
 0.14127000E+03 -0.73990E+05
 0.14132001E+03 -0.18195E+05
 0.14137001E+03  0.37918E+05
 0.14142001E+03  0.92931E+05
 0.14147000E+03  0.14606E+06
 0.14152000E+03  0.19660E+06
 0.14157001E+03  0.24440E+06
 0.14162001E+03  0.28803E+06
 0.14167001E+03  0.32572E+06
 0.14172000E+03  0.35529E+06
 0.14177000E+03  0.37401E+06
 0.14182001E+03  0.37975E+06
 0.14187001E+03  0.36912E+06
 0.14192001E+03  0.34107E+06
 0.14197000E+03  0.29855E+06
 0.14202000E+03  0.24662E+06
 0.14207001E+03  0.19155E+06
 0.14212001E+03  0.13592E+06
 0.14217001E+03  0.81144E+05
 0.14222000E+03  0.28162E+05
 0.14227000E+03 -0.25032E+05
 0.14232001E+03 -0.79210E+05
 0.14237001E+03 -0.13378E+06
 0.14242001E+03 -0.18804E+06
 0.14247000E+03 -0.24036E+06
 0.14252000E+03 -0.28881E+06
 0.14257001E+03 -0.33204E+06
 0.14262001E+03 -0.36785E+06
 0.14267001E+03 -0.39481E+06
 0.14272000E+03 -0.41558E+06
 0.14277000E+03 -0.43319E+06
 0.14282001E+03 -0.44664E+06
 0.14287001E+03 -0.45335E+06
 0.14292001E+03 -0.45322E+06
 0.14297000E+03 -0.44810E+06
 0.14302000E+03 -0.43833E+06
 0.14307001E+03 -0.42145E+06
 0.14312001E+03 -0.39860E+06
 0.14317001E+03 -0.37691E+06
 0.14322000E+03 -0.36186E+06
 0.14327000E+03 -0.35401E+06
 0.14332001E+03 -0.35092E+06
 0.14337001E+03 -0.34899E+06
 0.14342001E+03 -0.34558E+06
 0.14347000E+03 -0.33908E+06
 0.14352000E+03 -0.32899E+06
 0.14357001E+03 -0.31658E+06
 0.14362001E+03 -0.30348E+06
 0.14367001E+03 -0.29114E+06
 0.14372000E+03 -0.28097E+06
 0.14377000E+03 -0.27428E+06
 0.14382001E+03 -0.27188E+06
 0.14387001E+03 -0.27298E+06
 0.14392001E+03 -0.27484E+06
 0.14397000E+03 -0.27702E+06
 0.14402000E+03 -0.28275E+06
 0.14407001E+03 -0.29315E+06
 0.14412001E+03 -0.30537E+06
 0.14417001E+03 -0.31594E+06
 0.14422000E+03 -0.32344E+06
 0.14427000E+03 -0.32740E+06
 0.14432001E+03 -0.32671E+06
 0.14437001E+03 -0.32023E+06
 0.14442001E+03 -0.30853E+06
 0.14447000E+03 -0.29319E+06
 0.14452000E+03 -0.27281E+06
 0.14457001E+03 -0.24466E+06
 0.14462001E+03 -0.20755E+06
 0.14467001E+03 -0.16190E+06
 0.14472000E+03 -0.10993E+06
 0.14477000E+03 -0.55654E+05
 0.14482001E+03 -0.24370E+04
 0.14487001E+03  0.48274E+05
 0.14492001E+03  0.92972E+05
 0.14497000E+03  0.12873E+06
 0.14502000E+03  0.15611E+06
 0.14507001E+03  0.17669E+06
 0.14512001E+03  0.19214E+06
 0.14517001E+03  0.20432E+06
 0.14522000E+03  0.21451E+06
 0.14527000E+03  0.22273E+06
 0.14532001E+03  0.22950E+06
 0.14537001E+03  0.23579E+06
 0.14542001E+03  0.24292E+06
 0.14547000E+03  0.25186E+06
 0.14552000E+03  0.26185E+06
 0.14557001E+03  0.26941E+06
 0.14562001E+03  0.27046E+06
 0.14567001E+03  0.26555E+06
 0.14572000E+03  0.25721E+06
 0.14577000E+03  0.24744E+06
 0.14582001E+03  0.23865E+06
 0.14587001E+03  0.23334E+06
 0.14592001E+03  0.23276E+06
 0.14597000E+03  0.23638E+06
 0.14602000E+03  0.24325E+06
 0.14607001E+03  0.25083E+06
 0.14612001E+03  0.25656E+06
 0.14617001E+03  0.25972E+06
 0.14622000E+03  0.26130E+06
 0.14627000E+03  0.26355E+06
 0.14632001E+03  0.26662E+06
 0.14637001E+03  0.26684E+06
 0.14642001E+03  0.26125E+06
 0.14647000E+03  0.25245E+06
 0.14652000E+03  0.24703E+06
 0.14657001E+03  0.25057E+06
 0.14662001E+03  0.26347E+06
 0.14667001E+03  0.28466E+06
 0.14672000E+03  0.31422E+06
 0.14677000E+03  0.34962E+06
 0.14682001E+03  0.38662E+06
 0.14687001E+03  0.42127E+06
 0.14692001E+03  0.45139E+06
 0.14697000E+03  0.47706E+06
 0.14702000E+03  0.49948E+06
 0.14707001E+03  0.51955E+06
 0.14712001E+03  0.53650E+06
 0.14717001E+03  0.54724E+06
 0.14722000E+03  0.54636E+06
 0.14727000E+03  0.53058E+06
 0.14732001E+03  0.50186E+06
 0.14737001E+03  0.46397E+06
 0.14742001E+03  0.41983E+06
 0.14747000E+03  0.37060E+06
 0.14752000E+03  0.31695E+06
 0.14757001E+03  0.26095E+06
 0.14762001E+03  0.20376E+06
 0.14767001E+03  0.14487E+06
 0.14772000E+03  0.85184E+05
 0.14777000E+03  0.27402E+05
 0.14782001E+03 -0.26038E+05
 0.14787001E+03 -0.74596E+05
 0.14792001E+03 -0.11923E+06
 0.14797000E+03 -0.16103E+06
 0.14802000E+03 -0.20075E+06
 0.14807001E+03 -0.23748E+06
 0.14812001E+03 -0.26959E+06
 0.14817001E+03 -0.29590E+06
 0.14822000E+03 -0.31489E+06
 0.14827000E+03 -0.32558E+06
 0.14832001E+03 -0.32810E+06
 0.14837001E+03 -0.32418E+06
 0.14842001E+03 -0.31559E+06
 0.14847000E+03 -0.30238E+06
 0.14852000E+03 -0.28476E+06
 0.14857001E+03 -0.26254E+06
 0.14862001E+03 -0.23584E+06
 0.14867001E+03 -0.20576E+06
 0.14872000E+03 -0.17319E+06
 0.14877000E+03 -0.14048E+06
 0.14882001E+03 -0.10954E+06
 0.14887001E+03 -0.79973E+05
 0.14892001E+03 -0.51089E+05
 0.14897000E+03 -0.22766E+05
 0.14902000E+03  0.47090E+04
 0.14907001E+03  0.30917E+05
 0.14912001E+03  0.55300E+05
 0.14917001E+03  0.77469E+05
 0.14922000E+03  0.97207E+05
 0.14927000E+03  0.11452E+06
 0.14932001E+03  0.12903E+06
 0.14937001E+03  0.14036E+06
 0.14942001E+03  0.14998E+06
 0.14947000E+03  0.16003E+06
 0.14952000E+03  0.17156E+06
 0.14957001E+03  0.18370E+06
 0.14962001E+03  0.19334E+06
 0.14967001E+03  0.19768E+06
 0.14972000E+03  0.19776E+06
 0.14977000E+03  0.19670E+06
 0.14982001E+03  0.19521E+06
 0.14987001E+03  0.19136E+06
 0.14992001E+03  0.18379E+06
 0.14997000E+03  0.17264E+06
