-0.29800000E+01  0.57718E+05
-0.29300001E+01  0.39923E+05
-0.28800001E+01  0.22667E+05
-0.28299999E+01  0.62230E+04
-0.27800000E+01 -0.99000E+04
-0.27300000E+01 -0.26015E+05
-0.26800001E+01 -0.41626E+05
-0.26300001E+01 -0.56217E+05
-0.25799999E+01 -0.69321E+05
-0.25300000E+01 -0.80503E+05
-0.24800000E+01 -0.89344E+05
-0.24300001E+01 -0.95926E+05
-0.23800001E+01 -0.10127E+06
-0.23299999E+01 -0.10608E+06
-0.22800000E+01 -0.11079E+06
-0.22300000E+01 -0.11536E+06
-0.21800001E+01 -0.11912E+06
-0.21300001E+01 -0.12168E+06
-0.20799999E+01 -0.12274E+06
-0.20300000E+01 -0.12223E+06
-0.19800000E+01 -0.12044E+06
-0.19299999E+01 -0.11754E+06
-0.18800000E+01 -0.11330E+06
-0.18300000E+01 -0.10774E+06
-0.17800000E+01 -0.10138E+06
-0.17300000E+01 -0.94442E+05
-0.16799999E+01 -0.86763E+05
-0.16300000E+01 -0.78007E+05
-0.15800000E+01 -0.68411E+05
-0.15300000E+01 -0.58868E+05
-0.14800000E+01 -0.49886E+05
-0.14299999E+01 -0.41725E+05
-0.13800000E+01 -0.34298E+05
-0.13300000E+01 -0.27725E+05
-0.12800000E+01 -0.22172E+05
-0.12300000E+01 -0.16964E+05
-0.11799999E+01 -0.12028E+05
-0.11300000E+01 -0.74470E+04
-0.10800000E+01 -0.32340E+04
-0.10300000E+01  0.31900E+03
-0.98000002E+00  0.37330E+04
-0.93000007E+00  0.72890E+04
-0.87999988E+00  0.10825E+05
-0.82999992E+00  0.14239E+05
-0.77999997E+00  0.17211E+05
-0.73000002E+00  0.19407E+05
-0.68000007E+00  0.20372E+05
-0.62999988E+00  0.19666E+05
-0.57999992E+00  0.17444E+05
-0.52999997E+00  0.14281E+05
-0.48000002E+00  0.10926E+05
-0.43000007E+00  0.83170E+04
-0.37999988E+00  0.69150E+04
-0.32999992E+00  0.66950E+04
-0.27999997E+00  0.74150E+04
-0.23000002E+00  0.88750E+04
-0.18000007E+00  0.10676E+05
-0.12999988E+00  0.12367E+05
-0.79999924E-01  0.14281E+05
-0.29999971E-01  0.16734E+05
 0.19999981E-01  0.19239E+05
 0.69999933E-01  0.20997E+05
 0.12000012E+00  0.22098E+05
 0.17000008E+00  0.22834E+05
 0.22000003E+00  0.22448E+05
 0.26999998E+00  0.20426E+05
 0.31999993E+00  0.17362E+05
 0.37000012E+00  0.13950E+05
 0.42000008E+00  0.10558E+05
 0.47000003E+00  0.74590E+04
 0.51999998E+00  0.47320E+04
 0.56999993E+00  0.27330E+04
 0.62000012E+00  0.18320E+04
 0.67000008E+00  0.19880E+04
 0.72000003E+00  0.31400E+04
 0.76999998E+00  0.49770E+04
 0.81999993E+00  0.70970E+04
 0.87000012E+00  0.96760E+04
 0.92000008E+00  0.12889E+05
 0.97000003E+00  0.16092E+05
 0.10200000E+01  0.18389E+05
 0.10700002E+01  0.19464E+05
 0.11199999E+01  0.19661E+05
 0.11700001E+01  0.19190E+05
 0.12200003E+01  0.18282E+05
 0.12700000E+01  0.17642E+05
 0.13200002E+01  0.17516E+05
 0.13699999E+01  0.17655E+05
 0.14200001E+01  0.17924E+05
 0.14700003E+01  0.18799E+05
 0.15200000E+01  0.20548E+05
 0.15700002E+01  0.22804E+05
 0.16199999E+01  0.25185E+05
 0.16700001E+01  0.27108E+05
 0.17200003E+01  0.28184E+05
 0.17700000E+01  0.28087E+05
 0.18200002E+01  0.26972E+05
 0.18699999E+01  0.25097E+05
 0.19200001E+01  0.22012E+05
 0.19700003E+01  0.17361E+05
 0.20200000E+01  0.11012E+05
 0.20700002E+01  0.32090E+04
 0.21199999E+01 -0.59790E+04
 0.21700001E+01 -0.16614E+05
 0.22200003E+01 -0.27404E+05
 0.22700000E+01 -0.36915E+05
 0.23200002E+01 -0.45184E+05
 0.23699999E+01 -0.52252E+05
 0.24200001E+01 -0.58045E+05
 0.24700003E+01 -0.62801E+05
 0.25200000E+01 -0.66246E+05
 0.25700002E+01 -0.68269E+05
 0.26199999E+01 -0.68545E+05
 0.26700001E+01 -0.66659E+05
 0.27200003E+01 -0.63050E+05
 0.27700000E+01 -0.57897E+05
 0.28200002E+01 -0.51282E+05
 0.28699999E+01 -0.44144E+05
 0.29200001E+01 -0.37460E+05
 0.29700003E+01 -0.31583E+05
 0.30200000E+01 -0.26398E+05
 0.30700002E+01 -0.21808E+05
 0.31199999E+01 -0.17725E+05
 0.31700001E+01 -0.13989E+05
 0.32200003E+01 -0.10667E+05
 0.32700000E+01 -0.79720E+04
 0.33200002E+01 -0.61270E+04
 0.33699999E+01 -0.50940E+04
 0.34200001E+01 -0.47200E+04
 0.34700003E+01 -0.46020E+04
 0.35200000E+01 -0.44060E+04
 0.35700002E+01 -0.40600E+04
 0.36199999E+01 -0.34600E+04
 0.36700001E+01 -0.21250E+04
 0.37200003E+01  0.59700E+03
 0.37700000E+01  0.39810E+04
 0.38200002E+01  0.69410E+04
 0.38699999E+01  0.90100E+04
 0.39200001E+01  0.10170E+05
 0.39700003E+01  0.10567E+05
 0.40200000E+01  0.10308E+05
 0.40700002E+01  0.99990E+04
 0.41199999E+01  0.96450E+04
 0.41700001E+01  0.85980E+04
 0.42200003E+01  0.68760E+04
 0.42700000E+01  0.55050E+04
 0.43200002E+01  0.49140E+04
 0.43699999E+01  0.41800E+04
 0.44200001E+01  0.27960E+04
 0.44700003E+01  0.89600E+03
 0.45200000E+01 -0.12720E+04
 0.45700002E+01 -0.36130E+04
 0.46199999E+01 -0.65150E+04
 0.46700001E+01 -0.10554E+05
 0.47200003E+01 -0.16042E+05
 0.47700000E+01 -0.22723E+05
 0.48200002E+01 -0.29960E+05
 0.48699999E+01 -0.37056E+05
 0.49200001E+01 -0.43401E+05
 0.49700003E+01 -0.48347E+05
 0.50200000E+01 -0.51355E+05
 0.50700002E+01 -0.52352E+05
 0.51200004E+01 -0.51417E+05
 0.51700006E+01 -0.48519E+05
 0.52199998E+01 -0.43876E+05
 0.52700000E+01 -0.37990E+05
 0.53200002E+01 -0.31115E+05
 0.53700004E+01 -0.23539E+05
 0.54200006E+01 -0.15486E+05
 0.54699998E+01 -0.68310E+04
 0.55200000E+01  0.23040E+04
 0.55700002E+01  0.11645E+05
 0.56200004E+01  0.20651E+05
 0.56700006E+01  0.28734E+05
 0.57199998E+01  0.35414E+05
 0.57700000E+01  0.40425E+05
 0.58200002E+01  0.44540E+05
 0.58700004E+01  0.48467E+05
 0.59200006E+01  0.52329E+05
 0.59699998E+01  0.55862E+05
 0.60200000E+01  0.58732E+05
 0.60700002E+01  0.61170E+05
 0.61200004E+01  0.63047E+05
 0.61700006E+01  0.64105E+05
 0.62199998E+01  0.64658E+05
 0.62700000E+01  0.65514E+05
 0.63200002E+01  0.67125E+05
 0.63700004E+01  0.69103E+05
 0.64200006E+01  0.71049E+05
 0.64699998E+01  0.73033E+05
 0.65200000E+01  0.75341E+05
 0.65700002E+01  0.77418E+05
 0.66200004E+01  0.78626E+05
 0.66700006E+01  0.78676E+05
 0.67199998E+01  0.76841E+05
 0.67700000E+01  0.72625E+05
 0.68200002E+01  0.66232E+05
 0.68700004E+01  0.58308E+05
 0.69200006E+01  0.49465E+05
 0.69699998E+01  0.40155E+05
 0.70200000E+01  0.30483E+05
 0.70700002E+01  0.20550E+05
 0.71200004E+01  0.10446E+05
 0.71700006E+01 -0.11800E+03
 0.72199998E+01 -0.10888E+05
 0.72700000E+01 -0.21340E+05
 0.73200002E+01 -0.31584E+05
 0.73700004E+01 -0.41526E+05
 0.74200006E+01 -0.50136E+05
 0.74699998E+01 -0.56485E+05
 0.75200000E+01 -0.60563E+05
 0.75700002E+01 -0.62735E+05
 0.76200004E+01 -0.63312E+05
 0.76700006E+01 -0.62478E+05
 0.77199998E+01 -0.60278E+05
 0.77700000E+01 -0.56799E+05
 0.78200002E+01 -0.52298E+05
 0.78700004E+01 -0.46847E+05
 0.79200006E+01 -0.40577E+05
 0.79699998E+01 -0.34153E+05
 0.80200005E+01 -0.28156E+05
 0.80699997E+01 -0.22773E+05
 0.81200008E+01 -0.18131E+05
 0.81700001E+01 -0.14378E+05
 0.82199993E+01 -0.11288E+05
 0.82700005E+01 -0.87040E+04
 0.83199997E+01 -0.68930E+04
 0.83700008E+01 -0.59190E+04
 0.84200001E+01 -0.59480E+04
 0.84699993E+01 -0.68630E+04
 0.85200005E+01 -0.84090E+04
 0.85699997E+01 -0.10895E+05
 0.86200008E+01 -0.14407E+05
 0.86700001E+01 -0.19081E+05
 0.87199993E+01 -0.24589E+05
 0.87700005E+01 -0.29921E+05
 0.88199997E+01 -0.34703E+05
 0.88700008E+01 -0.38766E+05
 0.89200001E+01 -0.41885E+05
 0.89699993E+01 -0.44089E+05
 0.90200005E+01 -0.45348E+05
 0.90699997E+01 -0.45390E+05
 0.91200008E+01 -0.43975E+05
 0.91700001E+01 -0.41175E+05
 0.92199993E+01 -0.36830E+05
 0.92700005E+01 -0.30781E+05
 0.93199997E+01 -0.23503E+05
 0.93700008E+01 -0.15455E+05
 0.94200001E+01 -0.70590E+04
 0.94699993E+01  0.11130E+04
 0.95200005E+01  0.83210E+04
 0.95699997E+01  0.14027E+05
 0.96200008E+01  0.18579E+05
 0.96700001E+01  0.22271E+05
 0.97199993E+01  0.24636E+05
 0.97700005E+01  0.25018E+05
 0.98199997E+01  0.23165E+05
 0.98700008E+01  0.19416E+05
 0.99200001E+01  0.13983E+05
 0.99699993E+01  0.69240E+04
 0.10020000E+02 -0.63700E+03
 0.10070000E+02 -0.72750E+04
 0.10120001E+02 -0.12667E+05
 0.10170000E+02 -0.16961E+05
 0.10219999E+02 -0.19963E+05
 0.10270000E+02 -0.21286E+05
 0.10320000E+02 -0.20888E+05
 0.10370001E+02 -0.19129E+05
 0.10420000E+02 -0.16266E+05
 0.10469999E+02 -0.12279E+05
 0.10520000E+02 -0.74140E+04
 0.10570000E+02 -0.18700E+04
 0.10620001E+02  0.42510E+04
 0.10670000E+02  0.10178E+05
 0.10719999E+02  0.15404E+05
 0.10770000E+02  0.20009E+05
 0.10820000E+02  0.23753E+05
 0.10870001E+02  0.26426E+05
 0.10920000E+02  0.27721E+05
 0.10969999E+02  0.27102E+05
 0.11020000E+02  0.24500E+05
 0.11070000E+02  0.20069E+05
 0.11120001E+02  0.13963E+05
 0.11170000E+02  0.68830E+04
 0.11219999E+02 -0.63500E+03
 0.11270000E+02 -0.85020E+04
 0.11320000E+02 -0.16241E+05
 0.11370001E+02 -0.23499E+05
 0.11420000E+02 -0.30335E+05
 0.11469999E+02 -0.36667E+05
 0.11520000E+02 -0.42494E+05
 0.11570000E+02 -0.47997E+05
 0.11620001E+02 -0.53334E+05
 0.11670000E+02 -0.58860E+05
 0.11719999E+02 -0.64679E+05
 0.11770000E+02 -0.70595E+05
 0.11820000E+02 -0.76414E+05
 0.11870001E+02 -0.81744E+05
 0.11920000E+02 -0.85909E+05
 0.11969999E+02 -0.88287E+05
 0.12020000E+02 -0.89037E+05
 0.12070000E+02 -0.88786E+05
 0.12120001E+02 -0.87886E+05
 0.12170000E+02 -0.86531E+05
 0.12219999E+02 -0.84819E+05
 0.12270000E+02 -0.82663E+05
 0.12320000E+02 -0.79722E+05
 0.12370001E+02 -0.75185E+05
 0.12420000E+02 -0.68823E+05
 0.12469999E+02 -0.61286E+05
 0.12520000E+02 -0.53264E+05
 0.12570000E+02 -0.45048E+05
 0.12620001E+02 -0.36910E+05
 0.12670000E+02 -0.29258E+05
 0.12719999E+02 -0.21740E+05
 0.12770000E+02 -0.13998E+05
 0.12820000E+02 -0.60870E+04
 0.12870001E+02  0.17550E+04
 0.12920000E+02  0.92920E+04
 0.12969999E+02  0.16628E+05
 0.13020000E+02  0.23786E+05
 0.13070002E+02  0.30796E+05
 0.13120001E+02  0.37898E+05
 0.13170000E+02  0.45624E+05
 0.13220001E+02  0.54161E+05
 0.13270000E+02  0.63419E+05
 0.13320002E+02  0.73153E+05
 0.13370001E+02  0.82772E+05
 0.13420000E+02  0.92070E+05
 0.13470001E+02  0.10082E+06
 0.13520000E+02  0.10871E+06
 0.13570002E+02  0.11563E+06
 0.13620001E+02  0.12141E+06
 0.13670000E+02  0.12605E+06
 0.13720001E+02  0.12985E+06
 0.13770000E+02  0.13315E+06
 0.13820002E+02  0.13590E+06
 0.13870001E+02  0.13769E+06
 0.13920000E+02  0.13830E+06
 0.13970001E+02  0.13776E+06
 0.14020000E+02  0.13614E+06
 0.14070002E+02  0.13380E+06
 0.14120001E+02  0.13118E+06
 0.14170000E+02  0.12872E+06
 0.14220001E+02  0.12682E+06
 0.14270000E+02  0.12505E+06
 0.14320002E+02  0.12284E+06
 0.14370001E+02  0.11990E+06
 0.14420000E+02  0.11601E+06
 0.14470001E+02  0.11145E+06
 0.14520000E+02  0.10616E+06
 0.14570002E+02  0.99935E+05
 0.14620001E+02  0.92866E+05
 0.14670000E+02  0.85352E+05
 0.14720001E+02  0.78248E+05
 0.14770000E+02  0.71801E+05
 0.14820002E+02  0.65971E+05
 0.14870001E+02  0.60483E+05
 0.14920000E+02  0.54884E+05
 0.14970001E+02  0.48959E+05
 0.15020000E+02  0.42347E+05
 0.15070002E+02  0.35009E+05
 0.15120001E+02  0.26977E+05
 0.15170000E+02  0.18187E+05
 0.15220001E+02  0.86550E+04
 0.15270000E+02 -0.18350E+04
 0.15320002E+02 -0.13110E+05
 0.15370001E+02 -0.24815E+05
 0.15420000E+02 -0.36649E+05
 0.15470001E+02 -0.48135E+05
 0.15520000E+02 -0.59344E+05
 0.15570002E+02 -0.70607E+05
 0.15620001E+02 -0.81827E+05
 0.15670000E+02 -0.92734E+05
 0.15720001E+02 -0.10288E+06
 0.15770000E+02 -0.11219E+06
 0.15820002E+02 -0.12085E+06
 0.15870001E+02 -0.12856E+06
 0.15920000E+02 -0.13523E+06
 0.15970001E+02 -0.14090E+06
 0.16020000E+02 -0.14504E+06
 0.16070002E+02 -0.14685E+06
 0.16120001E+02 -0.14598E+06
 0.16170000E+02 -0.14296E+06
 0.16220001E+02 -0.13834E+06
 0.16270000E+02 -0.13220E+06
 0.16320002E+02 -0.12478E+06
 0.16370001E+02 -0.11625E+06
 0.16420000E+02 -0.10661E+06
 0.16470001E+02 -0.96266E+05
 0.16520000E+02 -0.85958E+05
 0.16570002E+02 -0.75962E+05
 0.16620001E+02 -0.66204E+05
 0.16670000E+02 -0.56875E+05
 0.16720001E+02 -0.47887E+05
 0.16770000E+02 -0.39231E+05
 0.16820002E+02 -0.30907E+05
 0.16870001E+02 -0.22728E+05
 0.16920000E+02 -0.14915E+05
 0.16970001E+02 -0.75990E+04
 0.17020000E+02 -0.81900E+03
 0.17070002E+02  0.56340E+04
 0.17120001E+02  0.11968E+05
 0.17170000E+02  0.17976E+05
 0.17220001E+02  0.23266E+05
 0.17270000E+02  0.27601E+05
 0.17320002E+02  0.30976E+05
 0.17370001E+02  0.33246E+05
 0.17420000E+02  0.34390E+05
 0.17470001E+02  0.34649E+05
 0.17520000E+02  0.34519E+05
 0.17570002E+02  0.34181E+05
 0.17620001E+02  0.33581E+05
 0.17670000E+02  0.32875E+05
 0.17720001E+02  0.32038E+05
 0.17770000E+02  0.31326E+05
 0.17820002E+02  0.30944E+05
 0.17870001E+02  0.30785E+05
 0.17920000E+02  0.31070E+05
 0.17970001E+02  0.31975E+05
 0.18020000E+02  0.33658E+05
 0.18070002E+02  0.36058E+05
 0.18120001E+02  0.38785E+05
 0.18170000E+02  0.42009E+05
 0.18220001E+02  0.46172E+05
 0.18270000E+02  0.51169E+05
 0.18320002E+02  0.56488E+05
 0.18370001E+02  0.61905E+05
 0.18420000E+02  0.67108E+05
 0.18470001E+02  0.71559E+05
 0.18520000E+02  0.74693E+05
 0.18570002E+02  0.76116E+05
 0.18620001E+02  0.76098E+05
 0.18670000E+02  0.74815E+05
 0.18720001E+02  0.72273E+05
 0.18770000E+02  0.68450E+05
 0.18820002E+02  0.63126E+05
 0.18870001E+02  0.55951E+05
 0.18920000E+02  0.46788E+05
 0.18970001E+02  0.35892E+05
 0.19020000E+02  0.23903E+05
 0.19070002E+02  0.11677E+05
 0.19120001E+02 -0.40000E+03
 0.19170000E+02 -0.11764E+05
 0.19220001E+02 -0.21929E+05
 0.19270000E+02 -0.30744E+05
 0.19320002E+02 -0.38277E+05
 0.19370001E+02 -0.45201E+05
 0.19420000E+02 -0.51509E+05
 0.19470001E+02 -0.56800E+05
 0.19520000E+02 -0.61309E+05
 0.19570002E+02 -0.65301E+05
 0.19620001E+02 -0.68815E+05
 0.19670000E+02 -0.71648E+05
 0.19720001E+02 -0.73612E+05
 0.19770000E+02 -0.74947E+05
 0.19820002E+02 -0.76040E+05
 0.19870001E+02 -0.77291E+05
 0.19920000E+02 -0.78707E+05
 0.19970001E+02 -0.79463E+05
 0.20020000E+02 -0.78676E+05
 0.20070002E+02 -0.76459E+05
 0.20120001E+02 -0.73560E+05
 0.20170000E+02 -0.70345E+05
 0.20220001E+02 -0.66916E+05
 0.20270000E+02 -0.63218E+05
 0.20320002E+02 -0.59365E+05
 0.20370001E+02 -0.55662E+05
 0.20420000E+02 -0.52483E+05
 0.20470001E+02 -0.50193E+05
 0.20520000E+02 -0.48459E+05
 0.20570002E+02 -0.46780E+05
 0.20620001E+02 -0.44965E+05
 0.20670000E+02 -0.43017E+05
 0.20720001E+02 -0.40858E+05
 0.20770000E+02 -0.38063E+05
 0.20820002E+02 -0.34673E+05
 0.20870001E+02 -0.31101E+05
 0.20920000E+02 -0.27164E+05
 0.20970001E+02 -0.22590E+05
 0.21020000E+02 -0.17426E+05
 0.21070002E+02 -0.12176E+05
 0.21120001E+02 -0.75650E+04
 0.21170000E+02 -0.36330E+04
 0.21220001E+02 -0.20600E+03
 0.21270000E+02  0.25600E+04
 0.21320002E+02  0.44230E+04
 0.21370001E+02  0.50570E+04
 0.21420000E+02  0.40370E+04
 0.21470001E+02  0.13010E+04
 0.21520000E+02 -0.29290E+04
 0.21570002E+02 -0.84440E+04
 0.21620001E+02 -0.14726E+05
 0.21670000E+02 -0.21031E+05
 0.21720001E+02 -0.26797E+05
 0.21770000E+02 -0.31846E+05
 0.21820002E+02 -0.36018E+05
 0.21870001E+02 -0.39130E+05
 0.21920000E+02 -0.41320E+05
 0.21970001E+02 -0.42708E+05
 0.22020000E+02 -0.43103E+05
 0.22070002E+02 -0.42253E+05
 0.22120001E+02 -0.40226E+05
 0.22170000E+02 -0.36891E+05
 0.22220001E+02 -0.32168E+05
 0.22270000E+02 -0.26330E+05
 0.22320002E+02 -0.19367E+05
 0.22370001E+02 -0.11690E+05
 0.22420000E+02 -0.38780E+04
 0.22470001E+02  0.41570E+04
 0.22520000E+02  0.12582E+05
 0.22570002E+02  0.21313E+05
 0.22620001E+02  0.30351E+05
 0.22670000E+02  0.39963E+05
 0.22720001E+02  0.50097E+05
 0.22770000E+02  0.60246E+05
 0.22820002E+02  0.70031E+05
 0.22870001E+02  0.79374E+05
 0.22920000E+02  0.88138E+05
 0.22970001E+02  0.95842E+05
 0.23020000E+02  0.10226E+06
 0.23070002E+02  0.10766E+06
 0.23120001E+02  0.11202E+06
 0.23170000E+02  0.11529E+06
 0.23220001E+02  0.11788E+06
 0.23270000E+02  0.12017E+06
 0.23320002E+02  0.12209E+06
 0.23370001E+02  0.12336E+06
 0.23420000E+02  0.12388E+06
 0.23470001E+02  0.12349E+06
 0.23520000E+02  0.12191E+06
 0.23570002E+02  0.11892E+06
 0.23620001E+02  0.11439E+06
 0.23670000E+02  0.10847E+06
 0.23720001E+02  0.10120E+06
 0.23770000E+02  0.92848E+05
 0.23820002E+02  0.83657E+05
 0.23870001E+02  0.73581E+05
 0.23920000E+02  0.63257E+05
 0.23970001E+02  0.53394E+05
 0.24020000E+02  0.44104E+05
 0.24070002E+02  0.35270E+05
 0.24120001E+02  0.27009E+05
 0.24170000E+02  0.19370E+05
 0.24220001E+02  0.12030E+05
 0.24270000E+02  0.51540E+04
 0.24320002E+02 -0.12320E+04
 0.24370001E+02 -0.75740E+04
 0.24420000E+02 -0.13961E+05
 0.24470001E+02 -0.20369E+05
 0.24520000E+02 -0.26938E+05
 0.24570002E+02 -0.33637E+05
 0.24620001E+02 -0.40294E+05
 0.24670000E+02 -0.46761E+05
 0.24720001E+02 -0.52696E+05
 0.24770000E+02 -0.57978E+05
 0.24820002E+02 -0.62599E+05
 0.24870001E+02 -0.66424E+05
 0.24920000E+02 -0.69668E+05
 0.24970001E+02 -0.72820E+05
 0.25020000E+02 -0.76111E+05
 0.25070002E+02 -0.79399E+05
 0.25120001E+02 -0.82290E+05
 0.25170000E+02 -0.83985E+05
 0.25220001E+02 -0.83858E+05
 0.25270000E+02 -0.81724E+05
 0.25320002E+02 -0.77739E+05
 0.25370001E+02 -0.72118E+05
 0.25420000E+02 -0.64924E+05
 0.25470001E+02 -0.56714E+05
 0.25520000E+02 -0.48129E+05
 0.25570002E+02 -0.39424E+05
 0.25620001E+02 -0.30610E+05
 0.25670000E+02 -0.21163E+05
 0.25720001E+02 -0.10914E+05
 0.25770000E+02 -0.19200E+03
 0.25820002E+02  0.10543E+05
 0.25870001E+02  0.21125E+05
 0.25920000E+02  0.31656E+05
 0.25970001E+02  0.41727E+05
 0.26020000E+02  0.50971E+05
 0.26070002E+02  0.59423E+05
 0.26120001E+02  0.68069E+05
 0.26170000E+02  0.76244E+05
 0.26220001E+02  0.82726E+05
 0.26270000E+02  0.88222E+05
 0.26320002E+02  0.92643E+05
 0.26370001E+02  0.95667E+05
 0.26420000E+02  0.97562E+05
 0.26470001E+02  0.98010E+05
 0.26520000E+02  0.96016E+05
 0.26570002E+02  0.92855E+05
 0.26620001E+02  0.89476E+05
 0.26670000E+02  0.84092E+05
 0.26720001E+02  0.77197E+05
 0.26770000E+02  0.69318E+05
 0.26820002E+02  0.60375E+05
 0.26870001E+02  0.53045E+05
 0.26920000E+02  0.46413E+05
 0.26970001E+02  0.37207E+05
 0.27020000E+02  0.27515E+05
 0.27070002E+02  0.20825E+05
 0.27120001E+02  0.18920E+05
 0.27170000E+02  0.18541E+05
 0.27220001E+02  0.14860E+05
 0.27270000E+02  0.14639E+05
 0.27320002E+02  0.19943E+05
 0.27370001E+02  0.22276E+05
 0.27420000E+02  0.21695E+05
 0.27470001E+02  0.20259E+05
 0.27520000E+02  0.23236E+05
 0.27570002E+02  0.30175E+05
 0.27620001E+02  0.27940E+05
 0.27670000E+02  0.20773E+05
 0.27720001E+02  0.20542E+05
 0.27770000E+02  0.25378E+05
 0.27820002E+02  0.34797E+05
 0.27870001E+02  0.46930E+05
 0.27920000E+02  0.56189E+05
 0.27970001E+02  0.63886E+05
 0.28020000E+02  0.66249E+05
 0.28070002E+02  0.66002E+05
 0.28120001E+02  0.68809E+05
 0.28170000E+02  0.63449E+05
 0.28220001E+02  0.51741E+05
 0.28270000E+02  0.42824E+05
 0.28320002E+02  0.29320E+05
 0.28370001E+02  0.47130E+04
 0.28420000E+02 -0.12269E+05
 0.28470001E+02 -0.89030E+04
 0.28520000E+02  0.53800E+04
 0.28570002E+02  0.72710E+04
 0.28620001E+02 -0.19654E+05
 0.28670000E+02 -0.32284E+05
 0.28720001E+02 -0.20634E+05
 0.28770000E+02 -0.24416E+05
 0.28820002E+02 -0.46675E+05
 0.28870001E+02 -0.77799E+05
 0.28920000E+02 -0.11026E+06
 0.28970001E+02 -0.12898E+06
 0.29020000E+02 -0.12451E+06
 0.29070000E+02 -0.10883E+06
 0.29120003E+02 -0.53048E+05
 0.29170002E+02  0.21394E+05
 0.29220001E+02  0.31124E+05
 0.29270000E+02  0.84820E+04
 0.29320000E+02 -0.34166E+05
 0.29370003E+02 -0.91984E+05
 0.29420002E+02 -0.14385E+06
 0.29470001E+02 -0.20226E+06
 0.29520000E+02 -0.22434E+06
 0.29570000E+02 -0.26805E+06
 0.29620003E+02 -0.32438E+06
 0.29670002E+02 -0.29875E+06
 0.29720001E+02 -0.21886E+06
 0.29770000E+02 -0.10621E+06
 0.29820000E+02 -0.27210E+05
 0.29870003E+02 -0.42210E+05
 0.29920002E+02 -0.82414E+05
 0.29970001E+02 -0.11967E+06
 0.30020000E+02 -0.19459E+06
 0.30070000E+02 -0.24553E+06
 0.30120003E+02 -0.29276E+06
 0.30170002E+02 -0.36481E+06
 0.30220001E+02 -0.33674E+06
 0.30270000E+02 -0.25042E+06
 0.30320000E+02 -0.22242E+06
 0.30370003E+02 -0.25463E+06
 0.30420002E+02 -0.32234E+06
 0.30470001E+02 -0.34916E+06
 0.30520000E+02 -0.28241E+06
 0.30570000E+02 -0.21573E+06
 0.30620003E+02 -0.15418E+06
 0.30670002E+02 -0.68726E+05
 0.30720001E+02 -0.13987E+06
 0.30770000E+02 -0.29204E+06
 0.30820000E+02 -0.29666E+06
 0.30870003E+02 -0.29361E+06
 0.30920002E+02 -0.31523E+06
 0.30970001E+02 -0.27035E+06
 0.31020000E+02 -0.22987E+06
 0.31070000E+02 -0.26192E+06
 0.31120003E+02 -0.37944E+06
 0.31170002E+02 -0.45909E+06
 0.31220001E+02 -0.47731E+06
 0.31270000E+02 -0.41822E+06
 0.31320000E+02 -0.34079E+06
 0.31370003E+02 -0.32558E+06
 0.31420002E+02 -0.23844E+06
 0.31470001E+02 -0.13970E+06
 0.31520000E+02 -0.12710E+06
 0.31570000E+02 -0.29758E+06
 0.31620003E+02 -0.42867E+06
 0.31670002E+02 -0.36084E+06
 0.31720001E+02 -0.40646E+06
 0.31770000E+02 -0.38577E+06
 0.31820000E+02 -0.31511E+06
 0.31870003E+02 -0.37527E+06
 0.31920002E+02 -0.30940E+06
 0.31970001E+02 -0.25701E+06
 0.32020000E+02 -0.36441E+06
 0.32070000E+02 -0.42020E+06
 0.32120003E+02 -0.21339E+06
 0.32170002E+02  0.75280E+04
 0.32220001E+02 -0.19482E+06
 0.32270000E+02 -0.40061E+06
 0.32320000E+02 -0.29042E+06
 0.32370003E+02 -0.19396E+06
 0.32420002E+02 -0.21581E+06
 0.32470001E+02 -0.33581E+06
 0.32520000E+02 -0.36408E+06
 0.32570000E+02 -0.12269E+06
 0.32620003E+02  0.60564E+05
 0.32670002E+02 -0.78039E+05
 0.32720001E+02 -0.22721E+06
 0.32770000E+02 -0.96093E+05
 0.32820000E+02  0.13689E+06
 0.32870003E+02  0.41764E+06
 0.32920002E+02  0.64298E+06
 0.32970001E+02  0.44670E+06
 0.33020000E+02  0.21120E+06
 0.33070000E+02  0.22796E+06
 0.33120003E+02  0.77644E+05
 0.33170002E+02 -0.21736E+06
 0.33220001E+02 -0.33065E+06
 0.33270000E+02 -0.14434E+06
 0.33320000E+02  0.86871E+05
 0.33370003E+02  0.75013E+05
 0.33420002E+02  0.45112E+05
 0.33470001E+02  0.28093E+06
 0.33520000E+02  0.38305E+06
 0.33570000E+02  0.18979E+06
 0.33620003E+02  0.25785E+06
 0.33670002E+02  0.48832E+06
 0.33720001E+02  0.62076E+06
 0.33770000E+02  0.40562E+06
 0.33820000E+02  0.12620E+05
 0.33870003E+02  0.74624E+05
 0.33920002E+02  0.11895E+06
 0.33970001E+02  0.10528E+06
 0.34020000E+02  0.44326E+06
 0.34070000E+02  0.75515E+06
 0.34120003E+02  0.75973E+06
 0.34170002E+02  0.56753E+06
 0.34220001E+02  0.46836E+06
 0.34270000E+02  0.61895E+06
 0.34320000E+02  0.79292E+06
 0.34370003E+02  0.78271E+06
 0.34420002E+02  0.75671E+06
 0.34470001E+02  0.75689E+06
 0.34520000E+02  0.61219E+06
 0.34570000E+02  0.43180E+06
 0.34620003E+02  0.36945E+06
 0.34670002E+02  0.37977E+06
 0.34720001E+02  0.48758E+06
 0.34770000E+02  0.44337E+06
 0.34820000E+02  0.36689E+06
 0.34870003E+02  0.51846E+06
 0.34920002E+02  0.43936E+06
 0.34970001E+02  0.30632E+06
 0.35020000E+02  0.42002E+06
 0.35070000E+02  0.57452E+06
 0.35120003E+02  0.68585E+06
 0.35170002E+02  0.69782E+06
 0.35220001E+02  0.66836E+06
 0.35270000E+02  0.53080E+06
 0.35320000E+02  0.47022E+06
 0.35370003E+02  0.53246E+06
 0.35420002E+02  0.31076E+06
 0.35470001E+02  0.98214E+05
 0.35520000E+02  0.16198E+06
 0.35570000E+02  0.15406E+06
 0.35620003E+02 -0.52733E+05
 0.35670002E+02 -0.31614E+06
 0.35720001E+02 -0.64358E+06
 0.35770000E+02 -0.97019E+06
 0.35820000E+02 -0.11009E+07
 0.35870003E+02 -0.10438E+07
 0.35920002E+02 -0.87647E+06
 0.35970001E+02 -0.92903E+06
 0.36020000E+02 -0.99747E+06
 0.36070000E+02 -0.71757E+06
 0.36120003E+02 -0.58484E+06
 0.36170002E+02 -0.58338E+06
 0.36220001E+02 -0.52428E+06
 0.36270000E+02 -0.50171E+06
 0.36320000E+02 -0.32117E+06
 0.36370003E+02 -0.58245E+05
 0.36420002E+02 -0.30710E+05
 0.36470001E+02 -0.24850E+06
 0.36520000E+02 -0.49073E+06
 0.36570000E+02 -0.76742E+06
 0.36620003E+02 -0.83760E+06
 0.36670002E+02 -0.57801E+06
 0.36720001E+02 -0.44858E+06
 0.36770000E+02 -0.40921E+06
 0.36820000E+02 -0.24689E+06
 0.36870003E+02 -0.21633E+05
 0.36920002E+02  0.66081E+05
 0.36970001E+02 -0.17685E+06
 0.37020000E+02 -0.30503E+06
 0.37070000E+02 -0.19751E+06
 0.37120003E+02 -0.24234E+06
 0.37170002E+02 -0.36757E+06
 0.37220001E+02 -0.43718E+06
 0.37270000E+02 -0.35603E+06
 0.37320000E+02 -0.27694E+06
 0.37370003E+02 -0.20842E+06
 0.37420002E+02  0.26193E+05
 0.37470001E+02  0.79894E+05
 0.37520000E+02 -0.49775E+05
 0.37570000E+02 -0.16259E+06
 0.37620003E+02 -0.23650E+06
 0.37670002E+02 -0.23408E+06
 0.37720001E+02 -0.28612E+06
 0.37770000E+02 -0.40677E+06
 0.37820000E+02 -0.42245E+06
 0.37870003E+02 -0.40650E+06
 0.37920002E+02 -0.72093E+06
 0.37970001E+02 -0.10768E+07
 0.38020000E+02 -0.10189E+07
 0.38070000E+02 -0.67753E+06
 0.38120003E+02 -0.31409E+06
 0.38170002E+02 -0.50670E+04
 0.38220001E+02  0.24191E+06
 0.38270000E+02  0.29501E+06
 0.38320000E+02  0.40046E+06
 0.38370003E+02  0.52415E+06
 0.38420002E+02  0.45516E+06
 0.38470001E+02  0.41524E+06
 0.38520000E+02  0.38000E+06
 0.38570000E+02  0.39622E+06
 0.38620003E+02  0.51786E+06
 0.38670002E+02  0.58047E+06
 0.38720001E+02  0.48876E+06
 0.38770000E+02  0.36248E+06
 0.38820000E+02  0.40987E+06
 0.38870003E+02  0.40476E+06
 0.38920002E+02  0.29187E+06
 0.38970001E+02  0.28141E+06
 0.39020000E+02  0.31405E+06
 0.39070000E+02  0.28527E+06
 0.39120003E+02  0.25086E+06
 0.39170002E+02  0.32245E+06
 0.39220001E+02  0.35517E+06
 0.39270000E+02  0.30658E+06
 0.39320000E+02  0.10328E+06
 0.39370003E+02 -0.11901E+06
 0.39420002E+02 -0.49690E+05
 0.39470001E+02  0.83121E+05
 0.39520000E+02  0.12260E+06
 0.39570000E+02  0.34135E+05
 0.39620003E+02 -0.46616E+05
 0.39670002E+02  0.21685E+05
 0.39720001E+02 -0.92400E+04
 0.39770000E+02 -0.12257E+05
 0.39820000E+02  0.11326E+06
 0.39870003E+02  0.18764E+06
 0.39920002E+02  0.19503E+06
 0.39970001E+02  0.72059E+05
 0.40020000E+02 -0.85136E+05
 0.40070000E+02 -0.24911E+06
 0.40120003E+02 -0.27025E+06
 0.40170002E+02 -0.12003E+06
 0.40220001E+02 -0.80738E+05
 0.40270000E+02 -0.32962E+05
 0.40320000E+02 -0.36305E+05
 0.40370003E+02 -0.45920E+05
 0.40420002E+02  0.53169E+05
 0.40470001E+02  0.75950E+04
 0.40520000E+02 -0.17150E+06
 0.40570000E+02 -0.24173E+06
 0.40620003E+02 -0.23514E+06
 0.40670002E+02 -0.35250E+06
 0.40720001E+02 -0.37068E+06
 0.40770000E+02 -0.35057E+06
 0.40820000E+02 -0.30074E+06
 0.40870003E+02  0.32190E+04
 0.40920002E+02  0.17578E+06
 0.40970001E+02  0.90955E+05
 0.41020000E+02  0.78800E+03
 0.41070000E+02  0.55438E+05
 0.41120003E+02  0.19581E+06
 0.41170002E+02  0.23385E+06
 0.41220001E+02  0.13794E+06
 0.41270000E+02  0.18356E+06
 0.41320000E+02  0.31017E+06
 0.41370003E+02  0.13610E+06
 0.41420002E+02 -0.40779E+05
 0.41470001E+02  0.94460E+04
 0.41520000E+02  0.74028E+05
 0.41570000E+02  0.39660E+05
 0.41620003E+02  0.82460E+04
 0.41670002E+02  0.50359E+05
 0.41720001E+02 -0.50177E+05
 0.41770000E+02 -0.19579E+06
 0.41820000E+02 -0.15524E+06
 0.41870003E+02 -0.23978E+05
 0.41920002E+02  0.15960E+04
 0.41970001E+02 -0.91547E+05
 0.42020000E+02 -0.17516E+06
 0.42070000E+02 -0.26023E+06
 0.42120003E+02 -0.25533E+06
 0.42170002E+02 -0.18123E+06
 0.42220001E+02 -0.23364E+06
 0.42270000E+02 -0.31254E+06
 0.42320000E+02 -0.32428E+06
 0.42370003E+02 -0.29760E+06
 0.42420002E+02 -0.71631E+05
 0.42470001E+02  0.23073E+06
 0.42520000E+02  0.24338E+06
 0.42570000E+02  0.90001E+05
 0.42620003E+02  0.17461E+05
 0.42670002E+02 -0.35816E+05
 0.42720001E+02 -0.13872E+06
 0.42770000E+02 -0.20859E+06
 0.42820000E+02 -0.25046E+06
 0.42870003E+02 -0.26928E+06
 0.42920002E+02 -0.23946E+06
 0.42970001E+02 -0.27427E+06
 0.43020000E+02 -0.36293E+06
 0.43070000E+02 -0.39588E+06
 0.43120003E+02 -0.30891E+06
 0.43170002E+02 -0.25283E+06
 0.43220001E+02 -0.33230E+06
 0.43270000E+02 -0.36420E+06
 0.43320000E+02 -0.21294E+06
 0.43370003E+02  0.53300E+05
 0.43420002E+02  0.22026E+06
 0.43470001E+02  0.26091E+06
 0.43520000E+02  0.23517E+06
 0.43570000E+02  0.20925E+06
 0.43620003E+02  0.15724E+06
 0.43670002E+02  0.96650E+04
 0.43720001E+02 -0.71033E+05
 0.43770000E+02 -0.83222E+05
 0.43820000E+02 -0.12043E+05
 0.43870003E+02  0.23067E+06
 0.43920002E+02  0.38390E+06
 0.43970001E+02  0.37830E+06
 0.44020000E+02  0.33864E+06
 0.44070000E+02  0.24986E+06
 0.44120003E+02  0.21928E+06
 0.44170002E+02  0.17677E+06
 0.44220001E+02  0.60867E+05
 0.44270000E+02  0.40288E+05
 0.44320000E+02  0.85360E+05
 0.44370003E+02  0.11856E+06
 0.44420002E+02  0.18446E+06
 0.44470001E+02  0.33690E+06
 0.44520000E+02  0.51342E+06
 0.44570000E+02  0.46149E+06
 0.44620003E+02  0.16972E+06
 0.44670002E+02 -0.54266E+05
 0.44720001E+02 -0.17636E+06
 0.44770000E+02 -0.32698E+06
 0.44820000E+02 -0.37883E+06
 0.44870003E+02 -0.33972E+06
 0.44920002E+02 -0.38013E+06
 0.44970001E+02 -0.36012E+06
 0.45020000E+02 -0.28041E+06
 0.45070000E+02 -0.19472E+06
 0.45120003E+02  0.29887E+05
 0.45170002E+02  0.19407E+06
 0.45220001E+02  0.28505E+06
 0.45270000E+02  0.51018E+06
 0.45320000E+02  0.76471E+06
 0.45370003E+02  0.83422E+06
 0.45420002E+02  0.70941E+06
 0.45470001E+02  0.65124E+06
 0.45520000E+02  0.60338E+06
 0.45570000E+02  0.45444E+06
 0.45620003E+02  0.34624E+06
 0.45670002E+02  0.25503E+06
 0.45720001E+02  0.19290E+06
 0.45770000E+02  0.15894E+06
 0.45820000E+02  0.97290E+04
 0.45870003E+02 -0.21216E+06
 0.45920002E+02 -0.26732E+06
 0.45970001E+02 -0.21212E+06
 0.46020000E+02 -0.19683E+06
 0.46070000E+02 -0.11691E+06
 0.46120003E+02  0.33900E+05
 0.46170002E+02  0.18887E+06
 0.46220001E+02  0.26956E+06
 0.46270000E+02  0.25261E+06
 0.46320000E+02  0.21131E+06
 0.46370003E+02  0.10878E+06
 0.46420002E+02 -0.90287E+05
 0.46470001E+02 -0.26085E+06
 0.46520000E+02 -0.32672E+06
 0.46570000E+02 -0.31926E+06
 0.46620003E+02 -0.20614E+06
 0.46670002E+02 -0.10162E+06
 0.46720001E+02 -0.12861E+06
 0.46770000E+02 -0.13700E+06
 0.46820000E+02 -0.87106E+05
 0.46870003E+02 -0.75334E+05
 0.46920002E+02  0.81152E+05
 0.46970001E+02  0.29712E+06
 0.47020000E+02  0.27753E+06
 0.47070000E+02  0.18289E+06
 0.47120003E+02  0.68398E+05
 0.47170002E+02 -0.11929E+06
 0.47220001E+02 -0.27244E+06
 0.47270000E+02 -0.33423E+06
 0.47320000E+02 -0.37842E+06
 0.47370003E+02 -0.41125E+06
 0.47420002E+02 -0.39382E+06
 0.47470001E+02 -0.35455E+06
 0.47520000E+02 -0.21521E+06
 0.47570000E+02 -0.73187E+05
 0.47620003E+02 -0.33442E+05
 0.47670002E+02 -0.11108E+05
 0.47720001E+02  0.76823E+05
 0.47770000E+02  0.18098E+06
 0.47820000E+02  0.23212E+06
 0.47870003E+02  0.30836E+06
 0.47920002E+02  0.33462E+06
 0.47970001E+02  0.28947E+06
 0.48020000E+02  0.11648E+06
 0.48070000E+02 -0.28315E+06
 0.48120003E+02 -0.72686E+06
 0.48170002E+02 -0.10750E+07
 0.48220001E+02 -0.11580E+07
 0.48270000E+02 -0.10154E+07
 0.48320000E+02 -0.83031E+06
 0.48370003E+02 -0.45640E+06
 0.48420002E+02  0.83578E+05
 0.48470001E+02  0.50117E+06
 0.48520000E+02  0.72201E+06
 0.48570000E+02  0.86120E+06
 0.48620003E+02  0.86009E+06
 0.48670002E+02  0.64626E+06
 0.48720001E+02  0.41656E+06
 0.48770000E+02  0.42634E+06
 0.48820000E+02  0.70817E+06
 0.48870003E+02  0.99549E+06
 0.48920002E+02  0.11350E+07
 0.48970001E+02  0.11246E+07
 0.49020000E+02  0.94055E+06
 0.49070000E+02  0.64120E+06
 0.49120003E+02  0.26485E+06
 0.49170002E+02  0.27977E+05
 0.49220001E+02  0.18229E+06
 0.49270000E+02  0.62133E+06
 0.49320000E+02  0.10332E+07
 0.49370003E+02  0.12294E+07
 0.49420002E+02  0.11553E+07
 0.49470001E+02  0.99610E+06
 0.49520000E+02  0.92680E+06
 0.49570000E+02  0.82303E+06
 0.49620003E+02  0.73745E+06
 0.49670002E+02  0.61244E+06
 0.49720001E+02  0.43386E+06
 0.49770000E+02  0.40446E+06
 0.49820000E+02  0.43514E+06
 0.49870003E+02  0.39909E+06
 0.49920002E+02  0.33766E+06
 0.49970001E+02  0.43034E+06
 0.50020000E+02  0.67118E+06
 0.50070000E+02  0.85874E+06
 0.50120003E+02  0.10707E+07
 0.50170002E+02  0.13667E+07
 0.50220001E+02  0.15888E+07
 0.50270000E+02  0.17243E+07
 0.50320000E+02  0.18246E+07
 0.50370003E+02  0.18008E+07
 0.50420002E+02  0.16050E+07
 0.50470001E+02  0.15965E+07
 0.50520000E+02  0.18859E+07
 0.50570000E+02  0.19265E+07
 0.50620003E+02  0.16547E+07
 0.50670002E+02  0.14162E+07
 0.50720001E+02  0.12494E+07
 0.50770000E+02  0.10836E+07
 0.50820000E+02  0.77134E+06
 0.50870003E+02  0.48219E+06
 0.50920002E+02  0.45928E+06
 0.50970001E+02  0.45019E+06
 0.51020000E+02  0.24884E+06
 0.51070000E+02 -0.82577E+05
 0.51120003E+02 -0.35154E+06
 0.51170002E+02 -0.45720E+06
 0.51220001E+02 -0.31656E+06
 0.51270000E+02  0.23601E+05
 0.51320000E+02  0.34260E+06
 0.51370003E+02  0.63520E+06
 0.51420002E+02  0.72381E+06
 0.51470001E+02  0.47650E+06
 0.51520000E+02  0.22240E+06
 0.51570000E+02  0.57637E+05
 0.51620003E+02 -0.20724E+06
 0.51670002E+02 -0.22292E+06
 0.51720001E+02  0.40468E+06
 0.51770000E+02  0.12498E+07
 0.51820000E+02  0.17994E+07
 0.51870003E+02  0.19853E+07
 0.51920002E+02  0.18109E+07
 0.51970001E+02  0.12334E+07
 0.52020000E+02  0.52321E+06
 0.52070000E+02  0.21445E+06
 0.52120003E+02  0.37165E+06
 0.52170002E+02  0.48129E+06
 0.52220001E+02  0.14710E+06
 0.52270000E+02 -0.50323E+06
 0.52320000E+02 -0.10993E+07
 0.52370003E+02 -0.13906E+07
 0.52420002E+02 -0.16402E+07
 0.52470001E+02 -0.20223E+07
 0.52520000E+02 -0.22967E+07
 0.52570000E+02 -0.26271E+07
 0.52620003E+02 -0.29061E+07
 0.52670002E+02 -0.28405E+07
 0.52720001E+02 -0.26131E+07
 0.52770000E+02 -0.23909E+07
 0.52820000E+02 -0.23052E+07
 0.52870003E+02 -0.22658E+07
 0.52920002E+02 -0.19663E+07
 0.52970001E+02 -0.13991E+07
 0.53020000E+02 -0.78608E+06
 0.53070000E+02 -0.36816E+06
 0.53120003E+02 -0.49638E+06
 0.53170002E+02 -0.10751E+07
 0.53220001E+02 -0.14284E+07
 0.53270000E+02 -0.13024E+07
 0.53320000E+02 -0.10384E+07
 0.53370003E+02 -0.84369E+06
 0.53420002E+02 -0.82045E+06
 0.53470001E+02 -0.10440E+07
 0.53520000E+02 -0.11215E+07
 0.53570000E+02 -0.11369E+07
 0.53620003E+02 -0.14860E+07
 0.53670002E+02 -0.18408E+07
 0.53720001E+02 -0.20840E+07
 0.53770000E+02 -0.21797E+07
 0.53820000E+02 -0.17483E+07
 0.53870003E+02 -0.97755E+06
 0.53920002E+02 -0.60760E+06
 0.53970001E+02 -0.74934E+06
 0.54020000E+02 -0.85807E+06
 0.54070000E+02 -0.67211E+06
 0.54120003E+02 -0.16967E+06
 0.54170002E+02  0.28059E+06
 0.54220001E+02  0.13118E+06
 0.54270000E+02 -0.17097E+06
 0.54320000E+02  0.21720E+04
 0.54370003E+02  0.38759E+06
 0.54420002E+02  0.52458E+06
 0.54470001E+02  0.16177E+06
 0.54520000E+02 -0.21591E+06
 0.54570000E+02  0.77390E+05
 0.54620003E+02  0.66212E+06
 0.54670002E+02  0.84217E+06
 0.54720001E+02  0.63826E+06
 0.54770000E+02  0.45329E+06
 0.54820000E+02  0.49476E+06
 0.54870003E+02  0.72193E+06
 0.54920002E+02  0.86369E+06
 0.54970001E+02  0.76002E+06
 0.55020000E+02  0.46654E+06
 0.55070000E+02 -0.52087E+05
 0.55120003E+02 -0.55124E+06
 0.55170002E+02 -0.65803E+06
 0.55220001E+02 -0.58942E+06
 0.55270000E+02 -0.75252E+06
 0.55320000E+02 -0.10931E+07
 0.55370003E+02 -0.12063E+07
 0.55420002E+02 -0.90333E+06
 0.55470001E+02 -0.47118E+06
 0.55520000E+02 -0.99003E+05
 0.55570000E+02  0.28040E+06
 0.55620003E+02  0.63622E+06
 0.55670002E+02  0.82914E+06
 0.55720001E+02  0.83017E+06
 0.55770000E+02  0.83283E+06
 0.55820000E+02  0.10519E+07
 0.55870003E+02  0.13498E+07
 0.55920002E+02  0.12565E+07
 0.55970001E+02  0.84925E+06
 0.56020000E+02  0.53132E+06
 0.56070000E+02  0.23823E+06
 0.56120003E+02  0.67950E+05
 0.56170002E+02  0.41636E+06
 0.56220001E+02  0.13336E+07
 0.56270000E+02  0.22366E+07
 0.56320000E+02  0.25717E+07
 0.56370003E+02  0.25260E+07
 0.56420002E+02  0.23312E+07
 0.56470001E+02  0.20446E+07
 0.56520000E+02  0.16895E+07
 0.56570000E+02  0.12547E+07
 0.56620003E+02  0.98859E+06
 0.56670002E+02  0.10536E+07
 0.56720001E+02  0.13175E+07
 0.56770000E+02  0.14609E+07
 0.56820000E+02  0.13685E+07
 0.56870003E+02  0.11308E+07
 0.56920002E+02  0.71703E+06
 0.56970001E+02  0.24710E+06
 0.57020000E+02 -0.96485E+05
 0.57070000E+02 -0.33046E+06
 0.57120003E+02 -0.51270E+06
 0.57170002E+02 -0.60102E+06
 0.57220001E+02 -0.55622E+06
 0.57270000E+02 -0.57339E+06
 0.57320000E+02 -0.92883E+06
 0.57370003E+02 -0.14303E+07
 0.57420002E+02 -0.16497E+07
 0.57470001E+02 -0.15433E+07
 0.57520000E+02 -0.12928E+07
 0.57570000E+02 -0.97130E+06
 0.57620003E+02 -0.58474E+06
 0.57670002E+02 -0.17846E+06
 0.57720001E+02  0.13583E+06
 0.57770000E+02  0.15766E+06
 0.57820000E+02 -0.20331E+05
 0.57870003E+02 -0.92245E+05
 0.57920002E+02  0.22066E+05
 0.57970001E+02  0.21859E+06
 0.58020000E+02  0.17272E+06
 0.58070000E+02 -0.18431E+06
 0.58120003E+02 -0.60054E+06
 0.58170002E+02 -0.80022E+06
 0.58220001E+02 -0.68631E+06
 0.58270000E+02 -0.52852E+06
 0.58320000E+02 -0.49465E+06
 0.58370003E+02 -0.49890E+06
 0.58420002E+02 -0.25371E+06
 0.58470001E+02  0.19076E+06
 0.58520000E+02  0.46010E+06
 0.58570000E+02  0.58061E+06
 0.58620003E+02  0.62645E+06
 0.58670002E+02  0.60325E+06
 0.58720001E+02  0.65100E+06
 0.58770000E+02  0.84410E+06
 0.58820000E+02  0.11041E+07
 0.58870003E+02  0.11895E+07
 0.58920002E+02  0.99912E+06
 0.58970001E+02  0.71570E+06
 0.59020000E+02  0.43852E+06
 0.59070000E+02  0.17836E+06
 0.59120003E+02 -0.59597E+05
 0.59170002E+02 -0.29904E+06
 0.59220001E+02 -0.30744E+06
 0.59270000E+02 -0.54030E+05
 0.59320000E+02  0.83150E+04
 0.59370003E+02 -0.12973E+06
 0.59420002E+02 -0.12853E+06
 0.59470001E+02 -0.37221E+05
 0.59520000E+02  0.26779E+05
 0.59570000E+02  0.21925E+06
 0.59620003E+02  0.49537E+06
 0.59670002E+02  0.55297E+06
 0.59720001E+02  0.34975E+06
 0.59770000E+02  0.75155E+05
 0.59820000E+02 -0.17739E+06
 0.59870003E+02 -0.45479E+06
 0.59920002E+02 -0.59189E+06
 0.59970001E+02 -0.41792E+06
 0.60020000E+02 -0.54714E+05
 0.60070000E+02  0.38859E+06
 0.60120003E+02  0.76502E+06
 0.60170002E+02  0.80489E+06
 0.60220001E+02  0.44495E+06
 0.60270000E+02 -0.17916E+05
 0.60320000E+02 -0.34441E+06
 0.60370003E+02 -0.49558E+06
 0.60420002E+02 -0.40249E+06
 0.60470001E+02 -0.53487E+05
 0.60520000E+02  0.50827E+06
 0.60570000E+02  0.10154E+07
 0.60620003E+02  0.10756E+07
 0.60670002E+02  0.89755E+06
 0.60720001E+02  0.87225E+06
 0.60770000E+02  0.10065E+07
 0.60820000E+02  0.12092E+07
 0.60870003E+02  0.12960E+07
 0.60920002E+02  0.12509E+07
 0.60970001E+02  0.11170E+07
 0.61020000E+02  0.83718E+06
 0.61070004E+02  0.63600E+06
 0.61119999E+02  0.64100E+06
 0.61170002E+02  0.64955E+06
 0.61220005E+02  0.54479E+06
 0.61270000E+02  0.51728E+06
 0.61320004E+02  0.70264E+06
 0.61369999E+02  0.93834E+06
 0.61420002E+02  0.10459E+07
 0.61470005E+02  0.91472E+06
 0.61520000E+02  0.62061E+06
 0.61570004E+02  0.29525E+06
 0.61619999E+02 -0.18481E+05
 0.61670002E+02 -0.20900E+06
 0.61720005E+02 -0.33264E+06
 0.61770000E+02 -0.56398E+06
 0.61820004E+02 -0.86136E+06
 0.61869999E+02 -0.11080E+07
 0.61920002E+02 -0.12895E+07
 0.61970005E+02 -0.14997E+07
 0.62020000E+02 -0.16800E+07
 0.62070004E+02 -0.16150E+07
 0.62119999E+02 -0.13773E+07
 0.62170002E+02 -0.11622E+07
 0.62220005E+02 -0.10654E+07
 0.62270000E+02 -0.11073E+07
 0.62320004E+02 -0.11588E+07
 0.62369999E+02 -0.11927E+07
 0.62420002E+02 -0.13110E+07
 0.62470005E+02 -0.15167E+07
 0.62520000E+02 -0.17356E+07
 0.62570004E+02 -0.18804E+07
 0.62619999E+02 -0.19026E+07
 0.62670002E+02 -0.18543E+07
 0.62720005E+02 -0.17928E+07
 0.62770000E+02 -0.17071E+07
 0.62820004E+02 -0.16459E+07
 0.62869999E+02 -0.15956E+07
 0.62920002E+02 -0.14808E+07
 0.62970005E+02 -0.12988E+07
 0.63020000E+02 -0.10646E+07
 0.63070004E+02 -0.91460E+06
 0.63119999E+02 -0.88358E+06
 0.63170002E+02 -0.82066E+06
 0.63220005E+02 -0.73348E+06
 0.63270000E+02 -0.73400E+06
 0.63320004E+02 -0.84174E+06
 0.63369999E+02 -0.10299E+07
 0.63420002E+02 -0.13105E+07
 0.63470005E+02 -0.16771E+07
 0.63520000E+02 -0.20083E+07
 0.63570004E+02 -0.21561E+07
 0.63619999E+02 -0.21525E+07
 0.63670002E+02 -0.20895E+07
 0.63720005E+02 -0.19885E+07
 0.63770000E+02 -0.18545E+07
 0.63820004E+02 -0.16459E+07
 0.63869999E+02 -0.14404E+07
 0.63920002E+02 -0.13784E+07
 0.63970005E+02 -0.14388E+07
 0.64019997E+02 -0.15676E+07
 0.64070000E+02 -0.16870E+07
 0.64119995E+02 -0.16957E+07
 0.64169998E+02 -0.16216E+07
 0.64220001E+02 -0.15411E+07
 0.64269997E+02 -0.15147E+07
 0.64320000E+02 -0.15412E+07
 0.64369995E+02 -0.14729E+07
 0.64419998E+02 -0.12249E+07
 0.64470001E+02 -0.89298E+06
 0.64519997E+02 -0.63579E+06
 0.64570000E+02 -0.56323E+06
 0.64619995E+02 -0.57540E+06
 0.64669998E+02 -0.46128E+06
 0.64720001E+02 -0.23571E+06
 0.64769997E+02 -0.38621E+05
 0.64820000E+02  0.19964E+06
 0.64869995E+02  0.52936E+06
 0.64919998E+02  0.80361E+06
 0.64970001E+02  0.93694E+06
 0.65019997E+02  0.95990E+06
 0.65070000E+02  0.90876E+06
 0.65119995E+02  0.82373E+06
 0.65169998E+02  0.78938E+06
 0.65220001E+02  0.85284E+06
 0.65269997E+02  0.10240E+07
 0.65320000E+02  0.12409E+07
 0.65369995E+02  0.13737E+07
 0.65419998E+02  0.13935E+07
 0.65470001E+02  0.13412E+07
 0.65519997E+02  0.12780E+07
 0.65570000E+02  0.12189E+07
 0.65619995E+02  0.11316E+07
 0.65669998E+02  0.10242E+07
 0.65720001E+02  0.90362E+06
 0.65769997E+02  0.76881E+06
 0.65820000E+02  0.63038E+06
 0.65869995E+02  0.46197E+06
 0.65919998E+02  0.28020E+06
 0.65970001E+02  0.21097E+06
 0.66019997E+02  0.25431E+06
 0.66070000E+02  0.29848E+06
 0.66119995E+02  0.29424E+06
 0.66169998E+02  0.20424E+06
 0.66220001E+02  0.52594E+05
 0.66269997E+02 -0.82305E+05
 0.66320000E+02 -0.14977E+06
 0.66369995E+02 -0.11592E+06
 0.66419998E+02 -0.32276E+05
 0.66470001E+02 -0.80160E+04
 0.66519997E+02 -0.27356E+05
 0.66570000E+02 -0.18780E+05
 0.66619995E+02  0.10955E+05
 0.66669998E+02  0.19798E+05
 0.66720001E+02 -0.16198E+05
 0.66769997E+02 -0.55205E+05
 0.66820000E+02 -0.37328E+05
 0.66869995E+02  0.60498E+05
 0.66919998E+02  0.18124E+06
 0.66970001E+02  0.22710E+06
 0.67019997E+02  0.21582E+06
 0.67070000E+02  0.22363E+06
 0.67119995E+02  0.31709E+06
 0.67169998E+02  0.54730E+06
 0.67220001E+02  0.85308E+06
 0.67269997E+02  0.10883E+07
 0.67320000E+02  0.11888E+07
 0.67369995E+02  0.12534E+07
 0.67419998E+02  0.13425E+07
 0.67470001E+02  0.13680E+07
 0.67519997E+02  0.12676E+07
 0.67570000E+02  0.10744E+07
 0.67619995E+02  0.86577E+06
 0.67669998E+02  0.67193E+06
 0.67720001E+02  0.41431E+06
 0.67769997E+02  0.28198E+05
 0.67820000E+02 -0.42373E+06
 0.67869995E+02 -0.83563E+06
 0.67919998E+02 -0.11020E+07
 0.67970001E+02 -0.12085E+07
 0.68019997E+02 -0.12500E+07
 0.68070000E+02 -0.12455E+07
 0.68119995E+02 -0.11337E+07
 0.68169998E+02 -0.87882E+06
 0.68220001E+02 -0.50602E+06
 0.68269997E+02 -0.83868E+05
 0.68320000E+02  0.30683E+06
 0.68369995E+02  0.64326E+06
 0.68419998E+02  0.89936E+06
 0.68470001E+02  0.10731E+07
 0.68519997E+02  0.12639E+07
 0.68570000E+02  0.15021E+07
 0.68619995E+02  0.17206E+07
 0.68669998E+02  0.17828E+07
 0.68720001E+02  0.16157E+07
 0.68769997E+02  0.13015E+07
 0.68820000E+02  0.99610E+06
 0.68869995E+02  0.82162E+06
 0.68919998E+02  0.69829E+06
 0.68970001E+02  0.55938E+06
 0.69019997E+02  0.44899E+06
 0.69070000E+02  0.35378E+06
 0.69119995E+02  0.26001E+06
 0.69169998E+02  0.16347E+06
 0.69220001E+02  0.60466E+05
 0.69269997E+02 -0.55492E+05
 0.69320000E+02 -0.15923E+06
 0.69369995E+02 -0.20624E+06
 0.69419998E+02 -0.21352E+06
 0.69470001E+02 -0.22392E+06
 0.69519997E+02 -0.27056E+06
 0.69570000E+02 -0.30442E+06
 0.69619995E+02 -0.25579E+06
 0.69669998E+02 -0.15785E+06
 0.69720001E+02 -0.10218E+06
 0.69769997E+02 -0.15600E+06
 0.69820000E+02 -0.24342E+06
 0.69869995E+02 -0.22884E+06
 0.69919998E+02 -0.78905E+05
 0.69970001E+02  0.13875E+06
 0.70019997E+02  0.31852E+06
 0.70070000E+02  0.39299E+06
 0.70119995E+02  0.38442E+06
 0.70169998E+02  0.36141E+06
 0.70220001E+02  0.31046E+06
 0.70269997E+02  0.24535E+06
 0.70320000E+02  0.23300E+06
 0.70369995E+02  0.23164E+06
 0.70419998E+02  0.18689E+06
 0.70470001E+02  0.97208E+05
 0.70519997E+02 -0.91420E+04
 0.70570000E+02 -0.88126E+05
 0.70619995E+02 -0.13105E+06
 0.70669998E+02 -0.12790E+06
 0.70720001E+02 -0.65238E+05
 0.70769997E+02  0.46393E+05
 0.70820000E+02  0.14766E+06
 0.70869995E+02  0.16642E+06
 0.70919998E+02  0.12332E+06
 0.70970001E+02  0.90431E+05
 0.71019997E+02  0.77266E+05
 0.71070000E+02  0.20695E+05
 0.71119995E+02 -0.95554E+05
 0.71169998E+02 -0.24036E+06
 0.71220001E+02 -0.40639E+06
 0.71269997E+02 -0.52348E+06
 0.71320000E+02 -0.54304E+06
 0.71369995E+02 -0.58522E+06
 0.71419998E+02 -0.75968E+06
 0.71470001E+02 -0.10086E+07
 0.71519997E+02 -0.12026E+07
 0.71570000E+02 -0.12936E+07
 0.71619995E+02 -0.13315E+07
 0.71669998E+02 -0.13358E+07
 0.71720001E+02 -0.12841E+07
 0.71769997E+02 -0.11925E+07
 0.71820000E+02 -0.10960E+07
 0.71869995E+02 -0.99160E+06
 0.71919998E+02 -0.87288E+06
 0.71970001E+02 -0.74781E+06
 0.72019997E+02 -0.58741E+06
 0.72070000E+02 -0.36461E+06
 0.72119995E+02 -0.11034E+06
 0.72169998E+02  0.15277E+06
 0.72220001E+02  0.44264E+06
 0.72269997E+02  0.72730E+06
 0.72320000E+02  0.95401E+06
 0.72369995E+02  0.11037E+07
 0.72419998E+02  0.11961E+07
 0.72470001E+02  0.12652E+07
 0.72519997E+02  0.12969E+07
 0.72570000E+02  0.13290E+07
 0.72619995E+02  0.14056E+07
 0.72669998E+02  0.14804E+07
 0.72720001E+02  0.15407E+07
 0.72769997E+02  0.15773E+07
 0.72820000E+02  0.15626E+07
 0.72869995E+02  0.15252E+07
 0.72919998E+02  0.14696E+07
 0.72970001E+02  0.14114E+07
 0.73019997E+02  0.13991E+07
 0.73070000E+02  0.13896E+07
 0.73119995E+02  0.13462E+07
 0.73169998E+02  0.12945E+07
 0.73220001E+02  0.12159E+07
 0.73269997E+02  0.10871E+07
 0.73320000E+02  0.96750E+06
 0.73369995E+02  0.92189E+06
 0.73419998E+02  0.92720E+06
 0.73470001E+02  0.92232E+06
 0.73519997E+02  0.83494E+06
 0.73570000E+02  0.65358E+06
 0.73619995E+02  0.45018E+06
 0.73669998E+02  0.29770E+06
 0.73720001E+02  0.22452E+06
 0.73769997E+02  0.15928E+06
 0.73820000E+02  0.39549E+05
 0.73869995E+02 -0.10822E+06
 0.73919998E+02 -0.21388E+06
 0.73970001E+02 -0.23516E+06
 0.74019997E+02 -0.23330E+06
 0.74070000E+02 -0.24923E+06
 0.74119995E+02 -0.26626E+06
 0.74169998E+02 -0.27658E+06
 0.74220001E+02 -0.25272E+06
 0.74269997E+02 -0.17278E+06
 0.74320000E+02 -0.44156E+05
 0.74369995E+02  0.74671E+05
 0.74419998E+02  0.12442E+06
 0.74470001E+02  0.11427E+06
 0.74519997E+02  0.56176E+05
 0.74570000E+02 -0.32443E+05
 0.74619995E+02 -0.13221E+06
 0.74669998E+02 -0.23174E+06
 0.74720001E+02 -0.27629E+06
 0.74769997E+02 -0.23998E+06
 0.74820000E+02 -0.14578E+06
 0.74869995E+02 -0.33191E+05
 0.74919998E+02  0.66670E+05
 0.74970001E+02  0.19326E+06
 0.75019997E+02  0.37592E+06
 0.75070000E+02  0.57671E+06
 0.75119995E+02  0.76074E+06
 0.75169998E+02  0.91413E+06
 0.75220001E+02  0.10178E+07
 0.75269997E+02  0.10460E+07
 0.75320000E+02  0.97595E+06
 0.75369995E+02  0.82584E+06
 0.75419998E+02  0.64672E+06
 0.75470001E+02  0.45125E+06
 0.75519997E+02  0.26600E+06
 0.75570000E+02  0.10572E+06
 0.75619995E+02 -0.82800E+05
 0.75669998E+02 -0.28983E+06
 0.75720001E+02 -0.47668E+06
 0.75769997E+02 -0.67240E+06
 0.75820000E+02 -0.89846E+06
 0.75869995E+02 -0.11482E+07
 0.75919998E+02 -0.14055E+07
 0.75970001E+02 -0.16182E+07
 0.76019997E+02 -0.17364E+07
 0.76070000E+02 -0.17568E+07
 0.76119995E+02 -0.17109E+07
 0.76169998E+02 -0.16395E+07
 0.76220001E+02 -0.15207E+07
 0.76269997E+02 -0.13204E+07
 0.76320000E+02 -0.10723E+07
 0.76369995E+02 -0.80086E+06
 0.76419998E+02 -0.51395E+06
 0.76470001E+02 -0.22704E+06
 0.76519997E+02  0.59428E+05
 0.76570000E+02  0.33456E+06
 0.76619995E+02  0.57142E+06
 0.76669998E+02  0.73926E+06
 0.76720001E+02  0.79552E+06
 0.76769997E+02  0.73266E+06
 0.76820000E+02  0.58094E+06
 0.76869995E+02  0.33544E+06
 0.76919998E+02  0.30510E+05
 0.76970001E+02 -0.24564E+06
 0.77019997E+02 -0.47692E+06
 0.77070000E+02 -0.66881E+06
 0.77119995E+02 -0.83825E+06
 0.77169998E+02 -0.10072E+07
 0.77220001E+02 -0.11190E+07
 0.77269997E+02 -0.11263E+07
 0.77320000E+02 -0.10190E+07
 0.77369995E+02 -0.83443E+06
 0.77419998E+02 -0.65160E+06
 0.77470001E+02 -0.48282E+06
 0.77519997E+02 -0.32196E+06
 0.77570000E+02 -0.18181E+06
 0.77619995E+02 -0.72263E+05
 0.77669998E+02 -0.53990E+04
 0.77720001E+02  0.21701E+05
 0.77769997E+02  0.34103E+05
 0.77820000E+02  0.80893E+05
 0.77869995E+02  0.18078E+06
 0.77919998E+02  0.29025E+06
 0.77970001E+02  0.35032E+06
 0.78019997E+02  0.34291E+06
 0.78070000E+02  0.30204E+06
 0.78119995E+02  0.24130E+06
 0.78169998E+02  0.15836E+06
 0.78220001E+02  0.67140E+05
 0.78269997E+02 -0.45173E+05
 0.78320000E+02 -0.18355E+06
 0.78369995E+02 -0.31948E+06
 0.78419998E+02 -0.43030E+06
 0.78470001E+02 -0.52823E+06
 0.78519997E+02 -0.62968E+06
 0.78570000E+02 -0.72524E+06
 0.78619995E+02 -0.81295E+06
 0.78669998E+02 -0.86376E+06
 0.78720001E+02 -0.84576E+06
 0.78769997E+02 -0.79468E+06
 0.78820000E+02 -0.75028E+06
 0.78869995E+02 -0.73719E+06
 0.78919998E+02 -0.75444E+06
 0.78970001E+02 -0.75511E+06
 0.79019997E+02 -0.72142E+06
 0.79070000E+02 -0.64492E+06
 0.79119995E+02 -0.50644E+06
 0.79169998E+02 -0.34741E+06
 0.79220001E+02 -0.20147E+06
 0.79269997E+02 -0.29882E+05
 0.79320000E+02  0.17299E+06
 0.79369995E+02  0.35255E+06
 0.79419998E+02  0.46316E+06
 0.79470001E+02  0.51140E+06
 0.79519997E+02  0.52968E+06
 0.79570000E+02  0.52821E+06
 0.79619995E+02  0.51044E+06
 0.79669998E+02  0.46411E+06
 0.79720001E+02  0.39252E+06
 0.79769997E+02  0.32195E+06
 0.79820000E+02  0.27349E+06
 0.79869995E+02  0.26587E+06
 0.79919998E+02  0.27986E+06
 0.79970001E+02  0.30502E+06
 0.80019997E+02  0.36439E+06
 0.80070000E+02  0.45032E+06
 0.80119995E+02  0.52697E+06
 0.80169998E+02  0.58394E+06
 0.80220001E+02  0.63313E+06
 0.80269997E+02  0.67097E+06
 0.80320000E+02  0.68721E+06
 0.80369995E+02  0.67573E+06
 0.80419998E+02  0.64540E+06
 0.80470001E+02  0.60059E+06
 0.80519997E+02  0.52536E+06
 0.80570000E+02  0.43942E+06
 0.80619995E+02  0.38016E+06
 0.80669998E+02  0.34672E+06
 0.80720001E+02  0.34788E+06
 0.80769997E+02  0.41726E+06
 0.80820000E+02  0.56495E+06
 0.80869995E+02  0.74252E+06
 0.80919998E+02  0.88202E+06
 0.80970001E+02  0.98273E+06
 0.81019997E+02  0.10784E+07
 0.81070000E+02  0.12057E+07
 0.81119995E+02  0.13826E+07
 0.81169998E+02  0.15883E+07
 0.81220001E+02  0.18060E+07
 0.81269997E+02  0.19914E+07
 0.81320000E+02  0.20953E+07
 0.81369995E+02  0.21199E+07
 0.81419998E+02  0.20773E+07
 0.81470001E+02  0.19810E+07
 0.81519997E+02  0.18462E+07
 0.81570000E+02  0.16726E+07
 0.81619995E+02  0.14597E+07
 0.81669998E+02  0.11998E+07
 0.81720001E+02  0.89200E+06
 0.81769997E+02  0.58111E+06
 0.81820000E+02  0.31132E+06
 0.81869995E+02  0.85434E+05
 0.81919998E+02 -0.91609E+05
 0.81970001E+02 -0.21977E+06
 0.82019997E+02 -0.32080E+06
 0.82070000E+02 -0.39858E+06
 0.82119995E+02 -0.45336E+06
 0.82169998E+02 -0.49908E+06
 0.82220001E+02 -0.54556E+06
 0.82269997E+02 -0.58800E+06
 0.82320000E+02 -0.60371E+06
 0.82369995E+02 -0.59063E+06
 0.82419998E+02 -0.57876E+06
 0.82470001E+02 -0.58868E+06
 0.82519997E+02 -0.61697E+06
 0.82570000E+02 -0.66217E+06
 0.82619995E+02 -0.73094E+06
 0.82669998E+02 -0.83123E+06
 0.82720001E+02 -0.97494E+06
 0.82769997E+02 -0.11511E+07
 0.82820000E+02 -0.13243E+07
 0.82869995E+02 -0.14610E+07
 0.82919998E+02 -0.15394E+07
 0.82970001E+02 -0.15771E+07
 0.83019997E+02 -0.16281E+07
 0.83070000E+02 -0.17284E+07
 0.83119995E+02 -0.18767E+07
 0.83169998E+02 -0.20627E+07
 0.83220001E+02 -0.22612E+07
 0.83269997E+02 -0.24329E+07
 0.83320000E+02 -0.25628E+07
 0.83369995E+02 -0.26241E+07
 0.83419998E+02 -0.25884E+07
 0.83470001E+02 -0.24794E+07
 0.83519997E+02 -0.23401E+07
 0.83570000E+02 -0.22128E+07
 0.83619995E+02 -0.21089E+07
 0.83669998E+02 -0.19979E+07
 0.83720001E+02 -0.18539E+07
 0.83769997E+02 -0.16822E+07
 0.83820000E+02 -0.14943E+07
 0.83869995E+02 -0.13001E+07
 0.83919998E+02 -0.11185E+07
 0.83970001E+02 -0.96466E+06
 0.84019997E+02 -0.83972E+06
 0.84070000E+02 -0.72074E+06
 0.84119995E+02 -0.56320E+06
 0.84169998E+02 -0.32184E+06
 0.84220001E+02 -0.11192E+05
 0.84269997E+02  0.30894E+06
 0.84320000E+02  0.60669E+06
 0.84369995E+02  0.86110E+06
 0.84419998E+02  0.10553E+07
 0.84470001E+02  0.11758E+07
 0.84519997E+02  0.12260E+07
 0.84570000E+02  0.12472E+07
 0.84619995E+02  0.12744E+07
 0.84669998E+02  0.13213E+07
 0.84720001E+02  0.13862E+07
 0.84769997E+02  0.14405E+07
 0.84820000E+02  0.14452E+07
 0.84869995E+02  0.13984E+07
 0.84919998E+02  0.13284E+07
 0.84970001E+02  0.12535E+07
 0.85019997E+02  0.11854E+07
 0.85070000E+02  0.11123E+07
 0.85119995E+02  0.10306E+07
 0.85169998E+02  0.95959E+06
 0.85220001E+02  0.90002E+06
 0.85269997E+02  0.83338E+06
 0.85320000E+02  0.74012E+06
 0.85369995E+02  0.62204E+06
 0.85419998E+02  0.49104E+06
 0.85470001E+02  0.36696E+06
 0.85519997E+02  0.27191E+06
 0.85570000E+02  0.19322E+06
 0.85619995E+02  0.10466E+06
 0.85669998E+02  0.15416E+05
 0.85720001E+02 -0.47984E+05
 0.85769997E+02 -0.83358E+05
 0.85820000E+02 -0.93926E+05
 0.85869995E+02 -0.79935E+05
 0.85919998E+02 -0.45586E+05
 0.85970001E+02 -0.44200E+04
 0.86019997E+02  0.14271E+05
 0.86070000E+02  0.97000E+02
 0.86119995E+02 -0.51846E+05
 0.86169998E+02 -0.15002E+06
 0.86220001E+02 -0.27544E+06
 0.86269997E+02 -0.39489E+06
 0.86320000E+02 -0.47769E+06
 0.86369995E+02 -0.53242E+06
 0.86419998E+02 -0.57843E+06
 0.86470001E+02 -0.58533E+06
 0.86519997E+02 -0.54126E+06
 0.86570000E+02 -0.47204E+06
 0.86619995E+02 -0.38612E+06
 0.86669998E+02 -0.28686E+06
 0.86720001E+02 -0.17938E+06
 0.86769997E+02 -0.63866E+05
 0.86820000E+02  0.55960E+05
 0.86869995E+02  0.17131E+06
 0.86919998E+02  0.26878E+06
 0.86970001E+02  0.34066E+06
 0.87019997E+02  0.37839E+06
 0.87070000E+02  0.37675E+06
 0.87119995E+02  0.35714E+06
 0.87169998E+02  0.32462E+06
 0.87220001E+02  0.25028E+06
 0.87269997E+02  0.10976E+06
 0.87320000E+02 -0.91312E+05
 0.87369995E+02 -0.30145E+06
 0.87419998E+02 -0.47608E+06
 0.87470001E+02 -0.59475E+06
 0.87519997E+02 -0.64928E+06
 0.87570000E+02 -0.65958E+06
 0.87619995E+02 -0.62798E+06
 0.87669998E+02 -0.54912E+06
 0.87720001E+02 -0.45356E+06
 0.87769997E+02 -0.37595E+06
 0.87820000E+02 -0.32814E+06
 0.87869995E+02 -0.30214E+06
 0.87919998E+02 -0.27370E+06
 0.87970001E+02 -0.22667E+06
 0.88019997E+02 -0.16962E+06
 0.88070000E+02 -0.10507E+06
 0.88119995E+02 -0.29792E+05
 0.88169998E+02  0.22969E+05
 0.88220001E+02  0.12807E+05
 0.88269997E+02 -0.59894E+05
 0.88320000E+02 -0.15974E+06
 0.88369995E+02 -0.22431E+06
 0.88419998E+02 -0.22963E+06
 0.88470001E+02 -0.20958E+06
 0.88519997E+02 -0.18095E+06
 0.88570000E+02 -0.15045E+06
 0.88619995E+02 -0.13054E+06
 0.88669998E+02 -0.12427E+06
 0.88720001E+02 -0.12740E+06
 0.88769997E+02 -0.12021E+06
 0.88820000E+02 -0.70817E+05
 0.88869995E+02  0.37067E+05
 0.88919998E+02  0.18166E+06
 0.88970001E+02  0.33232E+06
 0.89019997E+02  0.46390E+06
 0.89070000E+02  0.54949E+06
 0.89119995E+02  0.59083E+06
 0.89169998E+02  0.61228E+06
 0.89220001E+02  0.63114E+06
 0.89269997E+02  0.66326E+06
 0.89320000E+02  0.71937E+06
 0.89369995E+02  0.77893E+06
 0.89419998E+02  0.81752E+06
 0.89470001E+02  0.83157E+06
 0.89519997E+02  0.79979E+06
 0.89570000E+02  0.70117E+06
 0.89619995E+02  0.54120E+06
 0.89669998E+02  0.34461E+06
 0.89720001E+02  0.16037E+06
 0.89769997E+02  0.29315E+05
 0.89820000E+02 -0.40250E+05
 0.89869995E+02 -0.51047E+05
 0.89919998E+02 -0.11385E+05
 0.89970001E+02  0.60763E+05
 0.90019997E+02  0.12887E+06
 0.90070000E+02  0.15269E+06
 0.90119995E+02  0.13729E+06
 0.90169998E+02  0.10523E+06
 0.90220001E+02  0.75295E+05
 0.90269997E+02  0.63665E+05
 0.90320000E+02  0.65490E+05
 0.90369995E+02  0.92964E+05
 0.90419998E+02  0.16410E+06
 0.90470001E+02  0.27680E+06
 0.90519997E+02  0.40888E+06
 0.90570000E+02  0.52053E+06
 0.90619995E+02  0.60701E+06
 0.90669998E+02  0.69050E+06
 0.90720001E+02  0.78382E+06
 0.90769997E+02  0.88583E+06
 0.90820000E+02  0.97095E+06
 0.90869995E+02  0.10048E+07
 0.90919998E+02  0.97445E+06
 0.90970001E+02  0.89731E+06
 0.91019997E+02  0.78949E+06
 0.91070000E+02  0.65780E+06
 0.91119995E+02  0.51602E+06
 0.91169998E+02  0.36960E+06
 0.91220001E+02  0.21049E+06
 0.91269997E+02  0.42346E+05
 0.91320000E+02 -0.11276E+06
 0.91369995E+02 -0.23876E+06
 0.91419998E+02 -0.33289E+06
 0.91470001E+02 -0.38823E+06
 0.91519997E+02 -0.40085E+06
 0.91570000E+02 -0.37441E+06
 0.91619995E+02 -0.32105E+06
 0.91669998E+02 -0.26492E+06
 0.91720001E+02 -0.21829E+06
 0.91769997E+02 -0.19661E+06
 0.91820000E+02 -0.21254E+06
 0.91869995E+02 -0.25426E+06
 0.91919998E+02 -0.31313E+06
 0.91970001E+02 -0.37535E+06
 0.92019997E+02 -0.41874E+06
 0.92070000E+02 -0.44401E+06
 0.92119995E+02 -0.46631E+06
 0.92169998E+02 -0.48278E+06
 0.92220001E+02 -0.46395E+06
 0.92269997E+02 -0.37391E+06
 0.92320000E+02 -0.21988E+06
 0.92369995E+02 -0.40442E+05
 0.92419998E+02  0.13818E+06
 0.92470001E+02  0.29869E+06
 0.92519997E+02  0.43550E+06
 0.92570000E+02  0.55091E+06
 0.92619995E+02  0.65392E+06
 0.92669998E+02  0.74160E+06
 0.92720001E+02  0.80024E+06
 0.92769997E+02  0.84233E+06
 0.92820000E+02  0.88159E+06
 0.92869995E+02  0.91526E+06
 0.92919998E+02  0.94024E+06
 0.92970001E+02  0.94914E+06
 0.93019997E+02  0.93820E+06
 0.93070000E+02  0.92398E+06
 0.93119995E+02  0.92657E+06
 0.93169998E+02  0.95339E+06
 0.93220001E+02  0.99118E+06
 0.93269997E+02  0.10056E+07
 0.93320000E+02  0.97981E+06
 0.93369995E+02  0.91980E+06
 0.93419998E+02  0.83796E+06
 0.93470001E+02  0.74463E+06
 0.93519997E+02  0.64541E+06
 0.93570000E+02  0.55062E+06
 0.93619995E+02  0.46240E+06
 0.93669998E+02  0.38112E+06
 0.93720001E+02  0.31437E+06
 0.93769997E+02  0.26550E+06
 0.93820000E+02  0.24294E+06
 0.93869995E+02  0.24929E+06
 0.93919998E+02  0.26814E+06
 0.93970001E+02  0.27906E+06
 0.94019997E+02  0.26090E+06
 0.94070000E+02  0.19910E+06
 0.94119995E+02  0.95052E+05
 0.94169998E+02 -0.25954E+05
 0.94220001E+02 -0.12532E+06
 0.94269997E+02 -0.19975E+06
 0.94320000E+02 -0.28064E+06
 0.94369995E+02 -0.39246E+06
 0.94419998E+02 -0.53848E+06
 0.94470001E+02 -0.69773E+06
 0.94519997E+02 -0.84093E+06
 0.94570000E+02 -0.96228E+06
 0.94619995E+02 -0.10655E+07
 0.94669998E+02 -0.11332E+07
 0.94720001E+02 -0.11504E+07
 0.94769997E+02 -0.11272E+07
 0.94820000E+02 -0.10862E+07
 0.94869995E+02 -0.10480E+07
 0.94919998E+02 -0.10325E+07
 0.94970001E+02 -0.10441E+07
 0.95019997E+02 -0.10673E+07
 0.95070000E+02 -0.10943E+07
 0.95119995E+02 -0.11266E+07
 0.95169998E+02 -0.11734E+07
 0.95220001E+02 -0.12414E+07
 0.95269997E+02 -0.13203E+07
 0.95320000E+02 -0.13845E+07
 0.95369995E+02 -0.14181E+07
 0.95419998E+02 -0.14298E+07
 0.95470001E+02 -0.14186E+07
 0.95519997E+02 -0.13694E+07
 0.95570000E+02 -0.12695E+07
 0.95619995E+02 -0.11215E+07
 0.95669998E+02 -0.94994E+06
 0.95720001E+02 -0.78615E+06
 0.95769997E+02 -0.65190E+06
 0.95820000E+02 -0.54202E+06
 0.95869995E+02 -0.43937E+06
 0.95919998E+02 -0.34019E+06
 0.95970001E+02 -0.25148E+06
 0.96019997E+02 -0.17904E+06
 0.96070000E+02 -0.11703E+06
 0.96119995E+02 -0.55395E+05
 0.96169998E+02  0.94560E+04
 0.96220001E+02  0.68429E+05
 0.96269997E+02  0.10750E+06
 0.96320000E+02  0.13296E+06
 0.96369995E+02  0.16088E+06
 0.96419998E+02  0.19178E+06
 0.96470001E+02  0.20812E+06
 0.96519997E+02  0.18975E+06
 0.96570000E+02  0.13752E+06
 0.96619995E+02  0.65760E+05
 0.96669998E+02 -0.13990E+05
 0.96720001E+02 -0.95962E+05
 0.96769997E+02 -0.17793E+06
 0.96820000E+02 -0.25247E+06
 0.96869995E+02 -0.30492E+06
 0.96919998E+02 -0.32639E+06
 0.96970001E+02 -0.32199E+06
 0.97019997E+02 -0.30062E+06
 0.97070000E+02 -0.26884E+06
 0.97119995E+02 -0.23184E+06
 0.97169998E+02 -0.18937E+06
 0.97220001E+02 -0.13338E+06
 0.97269997E+02 -0.61053E+05
 0.97320000E+02  0.23668E+05
 0.97369995E+02  0.12134E+06
 0.97419998E+02  0.22974E+06
 0.97470001E+02  0.33517E+06
 0.97519997E+02  0.41881E+06
 0.97570000E+02  0.46823E+06
 0.97619995E+02  0.48045E+06
 0.97669998E+02  0.45863E+06
 0.97720001E+02  0.41435E+06
 0.97769997E+02  0.36704E+06
 0.97820000E+02  0.32529E+06
 0.97869995E+02  0.27732E+06
 0.97919998E+02  0.21412E+06
 0.97970001E+02  0.13565E+06
 0.98019997E+02  0.39575E+05
 0.98070000E+02 -0.60964E+05
 0.98119995E+02 -0.14296E+06
 0.98169998E+02 -0.19724E+06
 0.98220001E+02 -0.23074E+06
 0.98269997E+02 -0.25836E+06
 0.98320000E+02 -0.28669E+06
 0.98369995E+02 -0.31385E+06
 0.98419998E+02 -0.33162E+06
 0.98470001E+02 -0.33292E+06
 0.98519997E+02 -0.32162E+06
 0.98570000E+02 -0.30919E+06
 0.98619995E+02 -0.31138E+06
 0.98669998E+02 -0.33450E+06
 0.98720001E+02 -0.36570E+06
 0.98769997E+02 -0.38371E+06
 0.98820000E+02 -0.37605E+06
 0.98869995E+02 -0.34166E+06
 0.98919998E+02 -0.28721E+06
 0.98970001E+02 -0.21404E+06
 0.99019997E+02 -0.11942E+06
 0.99070000E+02 -0.75760E+04
 0.99119995E+02  0.12187E+06
 0.99169998E+02  0.25702E+06
 0.99220001E+02  0.37972E+06
 0.99269997E+02  0.47879E+06
 0.99320000E+02  0.53977E+06
 0.99369995E+02  0.56439E+06
 0.99419998E+02  0.56042E+06
 0.99470001E+02  0.53347E+06
 0.99519997E+02  0.48971E+06
 0.99570000E+02  0.42857E+06
 0.99619995E+02  0.35825E+06
 0.99669998E+02  0.29669E+06
 0.99720001E+02  0.25451E+06
 0.99769997E+02  0.22574E+06
 0.99820000E+02  0.19939E+06
 0.99869995E+02  0.17185E+06
 0.99919998E+02  0.14351E+06
 0.99970001E+02  0.10818E+06
 0.10002000E+03  0.48321E+05
 0.10007000E+03 -0.47646E+05
 0.10012000E+03 -0.16841E+06
 0.10017000E+03 -0.28351E+06
 0.10022000E+03 -0.36880E+06
 0.10027000E+03 -0.42038E+06
 0.10032000E+03 -0.44527E+06
 0.10037000E+03 -0.45411E+06
 0.10042000E+03 -0.44115E+06
 0.10047000E+03 -0.39027E+06
 0.10052000E+03 -0.30433E+06
 0.10057000E+03 -0.20069E+06
 0.10062000E+03 -0.95647E+05
 0.10067000E+03  0.43130E+04
 0.10072000E+03  0.99001E+05
 0.10077000E+03  0.18689E+06
 0.10082000E+03  0.25935E+06
 0.10087000E+03  0.30653E+06
 0.10092000E+03  0.33746E+06
 0.10097000E+03  0.36509E+06
 0.10102000E+03  0.38826E+06
 0.10107000E+03  0.39929E+06
 0.10112000E+03  0.39306E+06
 0.10117000E+03  0.37793E+06
 0.10122000E+03  0.37004E+06
 0.10127000E+03  0.37703E+06
 0.10132000E+03  0.39215E+06
 0.10137000E+03  0.40320E+06
 0.10142000E+03  0.40261E+06
 0.10147000E+03  0.39423E+06
 0.10152000E+03  0.39220E+06
 0.10157000E+03  0.40721E+06
 0.10162000E+03  0.43577E+06
 0.10167000E+03  0.46501E+06
 0.10172000E+03  0.48448E+06
 0.10177000E+03  0.49178E+06
 0.10182000E+03  0.48794E+06
 0.10187000E+03  0.46533E+06
 0.10192000E+03  0.42652E+06
 0.10197000E+03  0.38959E+06
 0.10202000E+03  0.36352E+06
 0.10207000E+03  0.34293E+06
 0.10212000E+03  0.30333E+06
 0.10217000E+03  0.22907E+06
 0.10222000E+03  0.13448E+06
 0.10227000E+03  0.41314E+05
 0.10232000E+03 -0.28413E+05
 0.10237000E+03 -0.63175E+05
 0.10242000E+03 -0.68203E+05
 0.10247000E+03 -0.48813E+05
 0.10252000E+03 -0.53050E+04
 0.10257000E+03  0.58639E+05
 0.10262000E+03  0.12978E+06
 0.10267000E+03  0.19415E+06
 0.10272000E+03  0.24525E+06
 0.10277000E+03  0.28399E+06
 0.10282000E+03  0.31565E+06
 0.10287000E+03  0.33798E+06
 0.10292000E+03  0.34774E+06
 0.10297000E+03  0.34773E+06
 0.10302000E+03  0.34146E+06
 0.10307000E+03  0.33042E+06
 0.10312000E+03  0.31081E+06
 0.10317000E+03  0.28915E+06
 0.10322000E+03  0.28069E+06
 0.10327000E+03  0.28584E+06
 0.10332000E+03  0.29744E+06
 0.10337000E+03  0.31244E+06
 0.10342000E+03  0.32187E+06
 0.10347000E+03  0.30980E+06
 0.10352000E+03  0.26533E+06
 0.10357000E+03  0.19329E+06
 0.10362000E+03  0.11603E+06
 0.10367000E+03  0.58750E+05
 0.10372000E+03  0.33018E+05
 0.10377000E+03  0.31197E+05
 0.10382000E+03  0.38375E+05
 0.10387000E+03  0.45674E+05
 0.10392000E+03  0.51185E+05
 0.10397000E+03  0.53145E+05
 0.10402000E+03  0.43173E+05
 0.10407000E+03  0.17117E+05
 0.10412000E+03 -0.19081E+05
 0.10417000E+03 -0.49823E+05
 0.10422000E+03 -0.60758E+05
 0.10427000E+03 -0.58703E+05
 0.10432000E+03 -0.59522E+05
 0.10437000E+03 -0.75189E+05
 0.10442000E+03 -0.10750E+06
 0.10447000E+03 -0.14543E+06
 0.10452000E+03 -0.18153E+06
 0.10457000E+03 -0.21278E+06
 0.10462000E+03 -0.23618E+06
 0.10467000E+03 -0.25490E+06
 0.10472000E+03 -0.27352E+06
 0.10477000E+03 -0.29470E+06
 0.10482000E+03 -0.32161E+06
 0.10487000E+03 -0.35785E+06
 0.10492000E+03 -0.40012E+06
 0.10497000E+03 -0.43405E+06
 0.10502000E+03 -0.45082E+06
 0.10507000E+03 -0.45011E+06
 0.10512000E+03 -0.43549E+06
 0.10517000E+03 -0.41904E+06
 0.10522000E+03 -0.41380E+06
 0.10527000E+03 -0.42138E+06
 0.10532000E+03 -0.42795E+06
 0.10537000E+03 -0.42199E+06
 0.10542000E+03 -0.39978E+06
 0.10547000E+03 -0.35872E+06
 0.10552000E+03 -0.30794E+06
 0.10557000E+03 -0.26258E+06
 0.10562000E+03 -0.23019E+06
 0.10567000E+03 -0.21160E+06
 0.10572000E+03 -0.20113E+06
 0.10577000E+03 -0.18893E+06
 0.10582000E+03 -0.17136E+06
 0.10587000E+03 -0.14921E+06
 0.10592000E+03 -0.12499E+06
 0.10597000E+03 -0.10545E+06
 0.10602000E+03 -0.91314E+05
 0.10607000E+03 -0.77661E+05
 0.10612000E+03 -0.59728E+05
 0.10617000E+03 -0.39402E+05
 0.10622000E+03 -0.27101E+05
 0.10627000E+03 -0.27293E+05
 0.10632000E+03 -0.34126E+05
 0.10637000E+03 -0.36863E+05
 0.10642000E+03 -0.30509E+05
 0.10647000E+03 -0.17262E+05
 0.10652000E+03 -0.23500E+03
 0.10657000E+03  0.94790E+04
 0.10662000E+03  0.32990E+04
 0.10667000E+03 -0.10904E+05
 0.10672000E+03 -0.20219E+05
 0.10677000E+03 -0.17669E+05
 0.10682000E+03 -0.51030E+04
 0.10687000E+03  0.14129E+05
 0.10692000E+03  0.40648E+05
 0.10697000E+03  0.73689E+05
 0.10702000E+03  0.11034E+06
 0.10707000E+03  0.14530E+06
 0.10712000E+03  0.17669E+06
 0.10717000E+03  0.20390E+06
 0.10722000E+03  0.22052E+06
 0.10727000E+03  0.23029E+06
 0.10732000E+03  0.24315E+06
 0.10737000E+03  0.25947E+06
 0.10742000E+03  0.27669E+06
 0.10747000E+03  0.29132E+06
 0.10752000E+03  0.30187E+06
 0.10757000E+03  0.31149E+06
 0.10762000E+03  0.32482E+06
 0.10767000E+03  0.34251E+06
 0.10772000E+03  0.35728E+06
 0.10777000E+03  0.35851E+06
 0.10782000E+03  0.33425E+06
 0.10787000E+03  0.28024E+06
 0.10792000E+03  0.20438E+06
 0.10797000E+03  0.11696E+06
 0.10802000E+03  0.28713E+05
 0.10807000E+03 -0.49580E+05
 0.10812000E+03 -0.11316E+06
 0.10817000E+03 -0.16374E+06
 0.10822000E+03 -0.20596E+06
 0.10827000E+03 -0.24483E+06
 0.10832000E+03 -0.28303E+06
 0.10837000E+03 -0.31813E+06
 0.10842000E+03 -0.34457E+06
 0.10847000E+03 -0.36360E+06
 0.10852000E+03 -0.38040E+06
 0.10857000E+03 -0.39392E+06
 0.10862000E+03 -0.40140E+06
 0.10867000E+03 -0.40321E+06
 0.10872000E+03 -0.40284E+06
 0.10877000E+03 -0.40430E+06
 0.10882000E+03 -0.40564E+06
 0.10887000E+03 -0.39757E+06
 0.10892000E+03 -0.36846E+06
 0.10897000E+03 -0.31413E+06
 0.10902000E+03 -0.24416E+06
 0.10907000E+03 -0.17238E+06
 0.10912000E+03 -0.10456E+06
 0.10917000E+03 -0.39653E+05
 0.10922000E+03  0.24323E+05
 0.10927000E+03  0.86127E+05
 0.10932000E+03  0.14391E+06
 0.10937000E+03  0.20006E+06
 0.10942000E+03  0.25440E+06
 0.10947000E+03  0.30643E+06
 0.10952000E+03  0.35997E+06
 0.10957000E+03  0.42175E+06
 0.10962000E+03  0.49317E+06
 0.10967000E+03  0.56208E+06
 0.10972000E+03  0.62104E+06
 0.10977000E+03  0.67067E+06
 0.10982000E+03  0.70711E+06
 0.10987000E+03  0.72420E+06
 0.10992000E+03  0.71784E+06
 0.10997000E+03  0.69128E+06
 0.11002000E+03  0.64962E+06
 0.11007000E+03  0.59424E+06
 0.11012000E+03  0.52556E+06
 0.11017000E+03  0.44201E+06
 0.11022000E+03  0.35044E+06
 0.11027000E+03  0.26632E+06
 0.11032000E+03  0.19722E+06
 0.11037000E+03  0.14758E+06
 0.11042000E+03  0.12137E+06
 0.11047000E+03  0.11818E+06
 0.11052000E+03  0.13741E+06
 0.11057000E+03  0.17507E+06
 0.11062000E+03  0.22750E+06
 0.11067000E+03  0.29530E+06
 0.11072000E+03  0.37243E+06
 0.11077000E+03  0.44312E+06
 0.11082000E+03  0.49228E+06
 0.11087000E+03  0.51187E+06
 0.11092000E+03  0.50290E+06
 0.11097000E+03  0.47557E+06
 0.11102000E+03  0.43998E+06
 0.11107000E+03  0.40070E+06
 0.11112000E+03  0.35462E+06
 0.11117000E+03  0.29580E+06
 0.11122000E+03  0.22859E+06
 0.11127000E+03  0.16080E+06
 0.11132000E+03  0.95938E+05
 0.11137000E+03  0.30251E+05
 0.11142000E+03 -0.46590E+05
 0.11147000E+03 -0.13717E+06
 0.11152000E+03 -0.23761E+06
 0.11157000E+03 -0.34436E+06
 0.11162000E+03 -0.45578E+06
 0.11167000E+03 -0.57182E+06
 0.11172000E+03 -0.68675E+06
 0.11177000E+03 -0.79262E+06
 0.11182000E+03 -0.88167E+06
 0.11187000E+03 -0.94710E+06
 0.11192000E+03 -0.98788E+06
 0.11197000E+03 -0.10041E+07
 0.11202000E+03 -0.99916E+06
 0.11207000E+03 -0.98207E+06
 0.11212000E+03 -0.96419E+06
 0.11217000E+03 -0.95471E+06
 0.11222000E+03 -0.95249E+06
 0.11227000E+03 -0.95062E+06
 0.11232000E+03 -0.94208E+06
 0.11237000E+03 -0.92187E+06
 0.11242000E+03 -0.88891E+06
 0.11247000E+03 -0.84403E+06
 0.11252000E+03 -0.79272E+06
 0.11257000E+03 -0.73762E+06
 0.11262000E+03 -0.67610E+06
 0.11267000E+03 -0.60788E+06
 0.11272000E+03 -0.53477E+06
 0.11277000E+03 -0.45958E+06
 0.11282000E+03 -0.37999E+06
 0.11287000E+03 -0.29457E+06
 0.11292000E+03 -0.20517E+06
 0.11297000E+03 -0.10880E+06
 0.11302000E+03 -0.72530E+04
 0.11307000E+03  0.91957E+05
 0.11312000E+03  0.18186E+06
 0.11317000E+03  0.25513E+06
 0.11322000E+03  0.31097E+06
 0.11327000E+03  0.35558E+06
 0.11332000E+03  0.39535E+06
 0.11337000E+03  0.43276E+06
 0.11342000E+03  0.46388E+06
 0.11347000E+03  0.48332E+06
 0.11352000E+03  0.48441E+06
 0.11357000E+03  0.46283E+06
 0.11362000E+03  0.42717E+06
 0.11367000E+03  0.39410E+06
 0.11372000E+03  0.37296E+06
 0.11377000E+03  0.36019E+06
 0.11382000E+03  0.35170E+06
 0.11387000E+03  0.34660E+06
 0.11392000E+03  0.34097E+06
 0.11397000E+03  0.32876E+06
 0.11402000E+03  0.30482E+06
 0.11407000E+03  0.27223E+06
 0.11412000E+03  0.23994E+06
 0.11417000E+03  0.21588E+06
 0.11422000E+03  0.20398E+06
 0.11427000E+03  0.20215E+06
 0.11432000E+03  0.20248E+06
 0.11437000E+03  0.19448E+06
 0.11442000E+03  0.17582E+06
 0.11447000E+03  0.15130E+06
 0.11452000E+03  0.12756E+06
 0.11457000E+03  0.10488E+06
 0.11462000E+03  0.77491E+05
 0.11467000E+03  0.45682E+05
 0.11472000E+03  0.78540E+04
 0.11477000E+03 -0.41454E+05
 0.11482000E+03 -0.11046E+06
 0.11487000E+03 -0.20192E+06
 0.11492000E+03 -0.29619E+06
 0.11497000E+03 -0.37025E+06
 0.11502000E+03 -0.41696E+06
 0.11507000E+03 -0.43818E+06
 0.11512000E+03 -0.43578E+06
 0.11517000E+03 -0.41156E+06
 0.11522000E+03 -0.37639E+06
 0.11527000E+03 -0.34731E+06
 0.11532000E+03 -0.33164E+06
 0.11537000E+03 -0.32182E+06
 0.11542000E+03 -0.30936E+06
 0.11547000E+03 -0.29333E+06
 0.11552000E+03 -0.27401E+06
 0.11557000E+03 -0.25207E+06
 0.11562000E+03 -0.23138E+06
 0.11567000E+03 -0.21888E+06
 0.11572000E+03 -0.21696E+06
 0.11577000E+03 -0.21777E+06
 0.11582000E+03 -0.21566E+06
 0.11587000E+03 -0.21252E+06
 0.11592000E+03 -0.20589E+06
 0.11597000E+03 -0.19195E+06
 0.11602000E+03 -0.17551E+06
 0.11607000E+03 -0.16644E+06
 0.11612000E+03 -0.17068E+06
 0.11617000E+03 -0.18372E+06
 0.11622000E+03 -0.19775E+06
 0.11627000E+03 -0.20854E+06
 0.11632000E+03 -0.21020E+06
 0.11637000E+03 -0.19724E+06
 0.11642000E+03 -0.16723E+06
 0.11647000E+03 -0.11962E+06
 0.11652000E+03 -0.57204E+05
 0.11657000E+03  0.17155E+05
 0.11662000E+03  0.98380E+05
 0.11667000E+03  0.17659E+06
 0.11672000E+03  0.24708E+06
 0.11677000E+03  0.31532E+06
 0.11682000E+03  0.38579E+06
 0.11687000E+03  0.45746E+06
 0.11692000E+03  0.53219E+06
 0.11697000E+03  0.61084E+06
 0.11702000E+03  0.68897E+06
 0.11707000E+03  0.75606E+06
 0.11712000E+03  0.79721E+06
 0.11717000E+03  0.80854E+06
 0.11722000E+03  0.79854E+06
 0.11727000E+03  0.77877E+06
 0.11732000E+03  0.75560E+06
 0.11737000E+03  0.72475E+06
 0.11742000E+03  0.68098E+06
 0.11747000E+03  0.62359E+06
 0.11752000E+03  0.55484E+06
 0.11757000E+03  0.47479E+06
 0.11762000E+03  0.38076E+06
 0.11767000E+03  0.27408E+06
 0.11772000E+03  0.15672E+06
 0.11777000E+03  0.33493E+05
 0.11782000E+03 -0.85332E+05
 0.11787000E+03 -0.18966E+06
 0.11792000E+03 -0.27346E+06
 0.11797000E+03 -0.33953E+06
 0.11802000E+03 -0.39430E+06
 0.11807000E+03 -0.44237E+06
 0.11812000E+03 -0.48670E+06
 0.11817000E+03 -0.52385E+06
 0.11822000E+03 -0.54611E+06
 0.11827000E+03 -0.54631E+06
 0.11832000E+03 -0.51962E+06
 0.11837000E+03 -0.46357E+06
 0.11842000E+03 -0.37985E+06
 0.11847000E+03 -0.27890E+06
 0.11852000E+03 -0.17528E+06
 0.11857000E+03 -0.78507E+05
 0.11862000E+03  0.10693E+05
 0.11867000E+03  0.90170E+05
 0.11872000E+03  0.15512E+06
 0.11877000E+03  0.20724E+06
 0.11882000E+03  0.25223E+06
 0.11887000E+03  0.29755E+06
 0.11892000E+03  0.34702E+06
 0.11897000E+03  0.40261E+06
 0.11902000E+03  0.46468E+06
 0.11907000E+03  0.52697E+06
 0.11912000E+03  0.58171E+06
 0.11917000E+03  0.62062E+06
 0.11922000E+03  0.63920E+06
 0.11927000E+03  0.64257E+06
 0.11932000E+03  0.63810E+06
 0.11937000E+03  0.62578E+06
 0.11942000E+03  0.60272E+06
 0.11947000E+03  0.56880E+06
 0.11952000E+03  0.52520E+06
 0.11957000E+03  0.47475E+06
 0.11962000E+03  0.41985E+06
 0.11967000E+03  0.36456E+06
 0.11972000E+03  0.31343E+06
 0.11977000E+03  0.26734E+06
 0.11982000E+03  0.22654E+06
 0.11987000E+03  0.19163E+06
 0.11992000E+03  0.16056E+06
 0.11997000E+03  0.12826E+06
 0.12002000E+03  0.90375E+05
 0.12007000E+03  0.49717E+05
 0.12012000E+03  0.15636E+05
 0.12017000E+03 -0.77320E+04
 0.12022000E+03 -0.24919E+05
 0.12027000E+03 -0.42118E+05
 0.12032000E+03 -0.62026E+05
 0.12037000E+03 -0.84150E+05
 0.12042000E+03 -0.10703E+06
 0.12047000E+03 -0.12952E+06
 0.12052000E+03 -0.15085E+06
 0.12057000E+03 -0.16938E+06
 0.12062000E+03 -0.18544E+06
 0.12067000E+03 -0.20371E+06
 0.12072000E+03 -0.22932E+06
 0.12077000E+03 -0.26292E+06
 0.12082000E+03 -0.30105E+06
 0.12087000E+03 -0.33953E+06
 0.12092000E+03 -0.37411E+06
 0.12097000E+03 -0.40058E+06
 0.12102000E+03 -0.41618E+06
 0.12107000E+03 -0.42213E+06
 0.12112000E+03 -0.42280E+06
 0.12117000E+03 -0.42189E+06
 0.12122000E+03 -0.42534E+06
 0.12127000E+03 -0.43914E+06
 0.12132000E+03 -0.46360E+06
 0.12137000E+03 -0.49637E+06
 0.12142000E+03 -0.53376E+06
 0.12147000E+03 -0.57028E+06
 0.12152000E+03 -0.60144E+06
 0.12157000E+03 -0.62607E+06
 0.12162000E+03 -0.64539E+06
 0.12167000E+03 -0.65798E+06
 0.12172000E+03 -0.65800E+06
 0.12177000E+03 -0.64014E+06
 0.12182000E+03 -0.60260E+06
 0.12187000E+03 -0.54886E+06
 0.12192000E+03 -0.48712E+06
 0.12197000E+03 -0.42600E+06
 0.12202000E+03 -0.37166E+06
 0.12207000E+03 -0.32730E+06
 0.12212000E+03 -0.29734E+06
 0.12217000E+03 -0.28882E+06
 0.12222000E+03 -0.30482E+06
 0.12227000E+03 -0.33859E+06
 0.12232000E+03 -0.37443E+06
 0.12237000E+03 -0.39729E+06
 0.12242000E+03 -0.40093E+06
 0.12247000E+03 -0.38410E+06
 0.12252000E+03 -0.34836E+06
 0.12257000E+03 -0.30242E+06
 0.12262000E+03 -0.25665E+06
 0.12267000E+03 -0.21557E+06
 0.12272000E+03 -0.17869E+06
 0.12277000E+03 -0.14157E+06
 0.12282000E+03 -0.10088E+06
 0.12287000E+03 -0.59130E+05
 0.12292000E+03 -0.20483E+05
 0.12297000E+03  0.12689E+05
 0.12302000E+03  0.39001E+05
 0.12307000E+03  0.57062E+05
 0.12312000E+03  0.64458E+05
 0.12317000E+03  0.60273E+05
 0.12322000E+03  0.47859E+05
 0.12327000E+03  0.30850E+05
 0.12332000E+03  0.12215E+05
 0.12337000E+03 -0.37990E+04
 0.12342000E+03 -0.14620E+05
 0.12347000E+03 -0.19990E+05
 0.12352000E+03 -0.23778E+05
 0.12357000E+03 -0.35242E+05
 0.12362000E+03 -0.59293E+05
 0.12367000E+03 -0.94264E+05
 0.12372000E+03 -0.13704E+06
 0.12377000E+03 -0.17796E+06
 0.12382000E+03 -0.20250E+06
 0.12387000E+03 -0.19991E+06
 0.12392000E+03 -0.17037E+06
 0.12397000E+03 -0.12468E+06
 0.12402000E+03 -0.69730E+05
 0.12407000E+03 -0.61910E+04
 0.12412000E+03  0.65394E+05
 0.12417000E+03  0.14442E+06
 0.12422000E+03  0.23117E+06
 0.12427000E+03  0.32755E+06
 0.12432000E+03  0.43128E+06
 0.12437000E+03  0.53638E+06
 0.12442000E+03  0.63712E+06
 0.12447000E+03  0.73004E+06
 0.12452000E+03  0.81636E+06
 0.12457000E+03  0.89694E+06
 0.12462000E+03  0.96830E+06
 0.12467000E+03  0.10232E+07
 0.12472000E+03  0.10538E+07
 0.12477000E+03  0.10579E+07
 0.12482000E+03  0.10388E+07
 0.12487000E+03  0.10027E+07
 0.12492000E+03  0.95564E+06
 0.12497000E+03  0.90462E+06
 0.12502000E+03  0.85881E+06
 0.12507000E+03  0.82201E+06
 0.12512000E+03  0.79124E+06
 0.12517001E+03  0.76058E+06
 0.12521999E+03  0.72536E+06
 0.12527000E+03  0.68680E+06
 0.12532000E+03  0.64809E+06
 0.12537000E+03  0.61187E+06
 0.12542001E+03  0.58483E+06
 0.12546999E+03  0.57289E+06
 0.12552000E+03  0.57590E+06
 0.12557000E+03  0.59002E+06
 0.12562000E+03  0.60691E+06
 0.12567001E+03  0.61905E+06
 0.12571999E+03  0.62287E+06
 0.12577000E+03  0.61478E+06
 0.12582000E+03  0.59203E+06
 0.12587000E+03  0.55427E+06
 0.12592001E+03  0.50578E+06
 0.12596999E+03  0.45132E+06
 0.12602000E+03  0.39310E+06
 0.12607000E+03  0.33104E+06
 0.12612000E+03  0.26151E+06
 0.12617001E+03  0.18187E+06
 0.12621999E+03  0.90500E+05
 0.12627000E+03 -0.12800E+05
 0.12632000E+03 -0.12482E+06
 0.12637000E+03 -0.23998E+06
 0.12642001E+03 -0.35003E+06
 0.12646999E+03 -0.44752E+06
 0.12652000E+03 -0.53164E+06
 0.12657000E+03 -0.60602E+06
 0.12662000E+03 -0.67396E+06
 0.12667001E+03 -0.73733E+06
 0.12671999E+03 -0.79040E+06
 0.12677000E+03 -0.82569E+06
 0.12682000E+03 -0.84417E+06
 0.12687000E+03 -0.84982E+06
 0.12692001E+03 -0.84746E+06
 0.12696999E+03 -0.84031E+06
 0.12702000E+03 -0.82504E+06
 0.12707000E+03 -0.79848E+06
 0.12712000E+03 -0.76188E+06
 0.12717001E+03 -0.72081E+06
 0.12721999E+03 -0.68538E+06
 0.12727000E+03 -0.66021E+06
 0.12732000E+03 -0.64062E+06
 0.12737000E+03 -0.62198E+06
 0.12742001E+03 -0.60364E+06
 0.12746999E+03 -0.58690E+06
 0.12752000E+03 -0.57430E+06
 0.12757000E+03 -0.56802E+06
 0.12762000E+03 -0.56796E+06
 0.12767001E+03 -0.57084E+06
 0.12771999E+03 -0.57198E+06
 0.12777000E+03 -0.56687E+06
 0.12782000E+03 -0.54817E+06
 0.12787000E+03 -0.51179E+06
 0.12792001E+03 -0.46298E+06
 0.12796999E+03 -0.40871E+06
 0.12802000E+03 -0.35344E+06
 0.12807001E+03 -0.29800E+06
 0.12812001E+03 -0.24186E+06
 0.12817001E+03 -0.18664E+06
 0.12822000E+03 -0.13328E+06
 0.12827000E+03 -0.85329E+05
 0.12832001E+03 -0.48244E+05
 0.12837001E+03 -0.22956E+05
 0.12842001E+03 -0.72660E+04
 0.12847000E+03  0.16040E+04
 0.12852000E+03  0.45120E+04
 0.12857001E+03 -0.42000E+03
 0.12862001E+03 -0.14980E+05
 0.12867001E+03 -0.35229E+05
 0.12872000E+03 -0.53263E+05
 0.12877000E+03 -0.66201E+05
 0.12882001E+03 -0.76337E+05
 0.12887001E+03 -0.86188E+05
 0.12892001E+03 -0.95210E+05
 0.12897000E+03 -0.98915E+05
 0.12902000E+03 -0.91851E+05
 0.12907001E+03 -0.71856E+05
 0.12912001E+03 -0.41608E+05
 0.12917001E+03 -0.62240E+04
 0.12922000E+03  0.30452E+05
 0.12927000E+03  0.66161E+05
 0.12932001E+03  0.97979E+05
 0.12937001E+03  0.12374E+06
 0.12942001E+03  0.14226E+06
 0.12947000E+03  0.15148E+06
 0.12952000E+03  0.15081E+06
 0.12957001E+03  0.14326E+06
 0.12962001E+03  0.13195E+06
 0.12967001E+03  0.11658E+06
 0.12972000E+03  0.98449E+05
 0.12977000E+03  0.82734E+05
 0.12982001E+03  0.72979E+05
 0.12987001E+03  0.69732E+05
 0.12992001E+03  0.74139E+05
 0.12997000E+03  0.87920E+05
 0.13002000E+03  0.10967E+06
 0.13007001E+03  0.13489E+06
 0.13012001E+03  0.15913E+06
 0.13017001E+03  0.17928E+06
 0.13022000E+03  0.19453E+06
 0.13027000E+03  0.20814E+06
 0.13032001E+03  0.22426E+06
 0.13037001E+03  0.24400E+06
 0.13042001E+03  0.26544E+06
 0.13047000E+03  0.28498E+06
 0.13052000E+03  0.29838E+06
 0.13057001E+03  0.30362E+06
 0.13062001E+03  0.30518E+06
 0.13067001E+03  0.30759E+06
 0.13072000E+03  0.31097E+06
 0.13077000E+03  0.31155E+06
 0.13082001E+03  0.30388E+06
 0.13087001E+03  0.28893E+06
 0.13092001E+03  0.27085E+06
 0.13097000E+03  0.25221E+06
 0.13102000E+03  0.23484E+06
 0.13107001E+03  0.22084E+06
 0.13112001E+03  0.21244E+06
 0.13117001E+03  0.20968E+06
 0.13122000E+03  0.21069E+06
 0.13127000E+03  0.21104E+06
 0.13132001E+03  0.20760E+06
 0.13137001E+03  0.20090E+06
 0.13142001E+03  0.19129E+06
 0.13147000E+03  0.17689E+06
 0.13152000E+03  0.15739E+06
 0.13157001E+03  0.13598E+06
 0.13162001E+03  0.11482E+06
 0.13167001E+03  0.94239E+05
 0.13172000E+03  0.74667E+05
 0.13177000E+03  0.56979E+05
 0.13182001E+03  0.39274E+05
 0.13187001E+03  0.18559E+05
 0.13192001E+03 -0.27770E+04
 0.13197000E+03 -0.20528E+05
 0.13202000E+03 -0.31568E+05
 0.13207001E+03 -0.32624E+05
 0.13212001E+03 -0.23774E+05
 0.13217001E+03 -0.86560E+04
 0.13222000E+03  0.89310E+04
 0.13227000E+03  0.25228E+05
 0.13232001E+03  0.37715E+05
 0.13237001E+03  0.45590E+05
 0.13242001E+03  0.47403E+05
 0.13247000E+03  0.43133E+05
 0.13252000E+03  0.36608E+05
 0.13257001E+03  0.32430E+05
 0.13262001E+03  0.33231E+05
 0.13267001E+03  0.39757E+05
 0.13272000E+03  0.51377E+05
 0.13277000E+03  0.65534E+05
 0.13282001E+03  0.77801E+05
 0.13287001E+03  0.85084E+05
 0.13292001E+03  0.89138E+05
 0.13297000E+03  0.96565E+05
 0.13302000E+03  0.11392E+06
 0.13307001E+03  0.14192E+06
 0.13312001E+03  0.17501E+06
 0.13317001E+03  0.20595E+06
 0.13322000E+03  0.22953E+06
 0.13327000E+03  0.24364E+06
 0.13332001E+03  0.24765E+06
 0.13337001E+03  0.23844E+06
 0.13342001E+03  0.21218E+06
 0.13347000E+03  0.16953E+06
 0.13352000E+03  0.11626E+06
 0.13357001E+03  0.60295E+05
 0.13362001E+03  0.61610E+04
 0.13367001E+03 -0.45955E+05
 0.13372000E+03 -0.96659E+05
 0.13377000E+03 -0.14683E+06
 0.13382001E+03 -0.19537E+06
 0.13387001E+03 -0.23800E+06
 0.13392001E+03 -0.27114E+06
 0.13397000E+03 -0.29369E+06
 0.13402000E+03 -0.30647E+06
 0.13407001E+03 -0.31202E+06
 0.13412001E+03 -0.31489E+06
 0.13417001E+03 -0.32118E+06
 0.13422000E+03 -0.33748E+06
 0.13427000E+03 -0.36686E+06
 0.13432001E+03 -0.40412E+06
 0.13437001E+03 -0.44043E+06
 0.13442001E+03 -0.47015E+06
 0.13447000E+03 -0.49109E+06
 0.13452000E+03 -0.50295E+06
 0.13457001E+03 -0.50576E+06
 0.13462001E+03 -0.50188E+06
 0.13467001E+03 -0.49524E+06
 0.13472000E+03 -0.48880E+06
 0.13477000E+03 -0.48289E+06
 0.13482001E+03 -0.47526E+06
 0.13487001E+03 -0.46565E+06
 0.13492001E+03 -0.45522E+06
 0.13497000E+03 -0.44488E+06
 0.13502000E+03 -0.43499E+06
 0.13507001E+03 -0.42429E+06
 0.13512001E+03 -0.41214E+06
 0.13517001E+03 -0.39839E+06
 0.13522000E+03 -0.38235E+06
 0.13527000E+03 -0.36244E+06
 0.13532001E+03 -0.33692E+06
 0.13537001E+03 -0.30578E+06
 0.13542001E+03 -0.27012E+06
 0.13547000E+03 -0.23072E+06
 0.13552000E+03 -0.18806E+06
 0.13557001E+03 -0.14682E+06
 0.13562001E+03 -0.11375E+06
 0.13567001E+03 -0.90590E+05
 0.13572000E+03 -0.74561E+05
 0.13577000E+03 -0.60120E+05
 0.13582001E+03 -0.42194E+05
 0.13587001E+03 -0.16664E+05
 0.13592001E+03  0.19282E+05
 0.13597000E+03  0.65141E+05
 0.13602000E+03  0.11876E+06
 0.13607001E+03  0.17633E+06
 0.13612001E+03  0.23465E+06
 0.13617001E+03  0.29405E+06
 0.13622000E+03  0.35587E+06
 0.13627000E+03  0.41922E+06
 0.13632001E+03  0.48102E+06
 0.13637001E+03  0.53666E+06
 0.13642001E+03  0.58274E+06
 0.13647000E+03  0.62061E+06
 0.13652000E+03  0.65420E+06
 0.13657001E+03  0.68389E+06
 0.13662001E+03  0.70438E+06
 0.13667001E+03  0.70973E+06
 0.13672000E+03  0.69810E+06
 0.13677000E+03  0.67147E+06
 0.13682001E+03  0.63382E+06
 0.13687001E+03  0.59123E+06
 0.13692001E+03  0.54962E+06
 0.13697000E+03  0.51127E+06
 0.13702000E+03  0.47593E+06
 0.13707001E+03  0.44069E+06
 0.13712001E+03  0.40224E+06
 0.13717001E+03  0.35904E+06
 0.13722000E+03  0.30917E+06
 0.13727000E+03  0.25359E+06
 0.13732001E+03  0.19764E+06
 0.13737001E+03  0.14835E+06
 0.13742001E+03  0.11224E+06
 0.13747000E+03  0.90985E+05
 0.13752000E+03  0.82063E+05
 0.13757001E+03  0.81263E+05
 0.13762001E+03  0.83848E+05
 0.13767001E+03  0.88658E+05
 0.13772000E+03  0.97518E+05
 0.13777000E+03  0.11066E+06
 0.13782001E+03  0.12548E+06
 0.13787001E+03  0.13778E+06
 0.13792001E+03  0.14579E+06
 0.13797000E+03  0.15142E+06
 0.13802000E+03  0.15492E+06
 0.13807001E+03  0.15336E+06
 0.13812001E+03  0.14402E+06
 0.13817001E+03  0.12642E+06
 0.13822000E+03  0.10182E+06
 0.13827000E+03  0.71359E+05
 0.13832001E+03  0.36944E+05
 0.13837001E+03  0.16110E+04
 0.13842001E+03 -0.31922E+05
 0.13847000E+03 -0.61186E+05
 0.13852000E+03 -0.84675E+05
 0.13857001E+03 -0.10324E+06
 0.13862001E+03 -0.12041E+06
 0.13867001E+03 -0.13865E+06
 0.13872000E+03 -0.15831E+06
 0.13877000E+03 -0.18035E+06
 0.13882001E+03 -0.20468E+06
 0.13887001E+03 -0.22843E+06
 0.13892001E+03 -0.24833E+06
 0.13897000E+03 -0.26552E+06
 0.13902000E+03 -0.28172E+06
 0.13907001E+03 -0.29523E+06
 0.13912001E+03 -0.30452E+06
 0.13917001E+03 -0.30810E+06
 0.13922000E+03 -0.30458E+06
 0.13927000E+03 -0.29327E+06
 0.13932001E+03 -0.27538E+06
 0.13937001E+03 -0.25387E+06
 0.13942001E+03 -0.23130E+06
 0.13947000E+03 -0.20879E+06
 0.13952000E+03 -0.18695E+06
 0.13957001E+03 -0.16837E+06
 0.13962001E+03 -0.15474E+06
 0.13967001E+03 -0.14618E+06
 0.13972000E+03 -0.14254E+06
 0.13977000E+03 -0.14214E+06
 0.13982001E+03 -0.14354E+06
 0.13987001E+03 -0.14542E+06
 0.13992001E+03 -0.14503E+06
 0.13997000E+03 -0.14174E+06
 0.14002000E+03 -0.13854E+06
 0.14007001E+03 -0.13874E+06
 0.14012001E+03 -0.14416E+06
 0.14017001E+03 -0.15583E+06
 0.14022000E+03 -0.17396E+06
 0.14027000E+03 -0.19695E+06
 0.14032001E+03 -0.22315E+06
 0.14037001E+03 -0.24922E+06
 0.14042001E+03 -0.27121E+06
 0.14047000E+03 -0.28905E+06
 0.14052000E+03 -0.30416E+06
 0.14057001E+03 -0.31677E+06
 0.14062001E+03 -0.32521E+06
 0.14067001E+03 -0.32731E+06
 0.14072000E+03 -0.32301E+06
 0.14077000E+03 -0.31309E+06
 0.14082001E+03 -0.29699E+06
 0.14087001E+03 -0.27522E+06
 0.14092001E+03 -0.25086E+06
 0.14097000E+03 -0.22768E+06
 0.14102000E+03 -0.20725E+06
 0.14107001E+03 -0.18852E+06
 0.14112001E+03 -0.16994E+06
 0.14117001E+03 -0.14939E+06
 0.14122000E+03 -0.12644E+06
 0.14127000E+03 -0.10287E+06
 0.14132001E+03 -0.79765E+05
 0.14137001E+03 -0.57840E+05
 0.14142001E+03 -0.38239E+05
 0.14147000E+03 -0.22335E+05
 0.14152000E+03 -0.10377E+05
 0.14157001E+03 -0.53200E+03
 0.14162001E+03  0.10338E+05
 0.14167001E+03  0.25318E+05
 0.14172000E+03  0.44204E+05
 0.14177000E+03  0.63834E+05
 0.14182001E+03  0.81789E+05
 0.14187001E+03  0.97684E+05
 0.14192001E+03  0.11379E+06
 0.14197000E+03  0.13231E+06
 0.14202000E+03  0.15142E+06
 0.14207001E+03  0.16665E+06
 0.14212001E+03  0.17411E+06
 0.14217001E+03  0.17162E+06
 0.14222000E+03  0.15892E+06
 0.14227000E+03  0.13822E+06
 0.14232001E+03  0.11389E+06
 0.14237001E+03  0.90895E+05
 0.14242001E+03  0.74439E+05
 0.14247000E+03  0.68896E+05
 0.14252000E+03  0.73776E+05
 0.14257001E+03  0.83605E+05
 0.14262001E+03  0.92903E+05
 0.14267001E+03  0.99576E+05
 0.14272000E+03  0.10340E+06
 0.14277000E+03  0.10546E+06
 0.14282001E+03  0.10626E+06
 0.14287001E+03  0.10298E+06
 0.14292001E+03  0.94649E+05
 0.14297000E+03  0.83156E+05
 0.14302000E+03  0.70044E+05
 0.14307001E+03  0.55178E+05
 0.14312001E+03  0.34774E+05
 0.14317001E+03  0.64830E+04
 0.14322000E+03 -0.27814E+05
 0.14327000E+03 -0.64519E+05
 0.14332001E+03 -0.98283E+05
 0.14337001E+03 -0.12367E+06
 0.14342001E+03 -0.13816E+06
 0.14347000E+03 -0.14178E+06
 0.14352000E+03 -0.13466E+06
 0.14357001E+03 -0.11828E+06
 0.14362001E+03 -0.95751E+05
 0.14367001E+03 -0.70589E+05
 0.14372000E+03 -0.46631E+05
 0.14377000E+03 -0.24285E+05
 0.14382001E+03 -0.12890E+04
 0.14387001E+03  0.21842E+05
 0.14392001E+03  0.40604E+05
 0.14397000E+03  0.50440E+05
 0.14402000E+03  0.50036E+05
 0.14407001E+03  0.39722E+05
 0.14412001E+03  0.21502E+05
 0.14417001E+03 -0.10430E+04
 0.14422000E+03 -0.23686E+05
 0.14427000E+03 -0.40675E+05
 0.14432001E+03 -0.46981E+05
 0.14437001E+03 -0.41977E+05
 0.14442001E+03 -0.29206E+05
 0.14447000E+03 -0.12524E+05
 0.14452000E+03  0.58380E+04
 0.14457001E+03  0.25079E+05
 0.14462001E+03  0.46018E+05
 0.14467001E+03  0.69467E+05
 0.14472000E+03  0.94364E+05
 0.14477000E+03  0.11809E+06
 0.14482001E+03  0.13837E+06
 0.14487001E+03  0.15477E+06
 0.14492001E+03  0.16798E+06
 0.14497000E+03  0.17942E+06
 0.14502000E+03  0.19120E+06
 0.14507001E+03  0.20462E+06
 0.14512001E+03  0.22081E+06
 0.14517001E+03  0.24121E+06
 0.14522000E+03  0.26560E+06
 0.14527000E+03  0.29349E+06
 0.14532001E+03  0.32385E+06
 0.14537001E+03  0.35385E+06
 0.14542001E+03  0.37994E+06
 0.14547000E+03  0.39937E+06
 0.14552000E+03  0.41190E+06
 0.14557001E+03  0.41738E+06
 0.14562001E+03  0.41489E+06
 0.14567001E+03  0.40428E+06
 0.14572000E+03  0.38605E+06
 0.14577000E+03  0.36274E+06
 0.14582001E+03  0.33721E+06
 0.14587001E+03  0.31111E+06
 0.14592001E+03  0.28558E+06
 0.14597000E+03  0.26110E+06
 0.14602000E+03  0.23727E+06
 0.14607001E+03  0.21355E+06
 0.14612001E+03  0.19236E+06
 0.14617001E+03  0.17538E+06
 0.14622000E+03  0.16135E+06
 0.14627000E+03  0.14835E+06
 0.14632001E+03  0.13395E+06
 0.14637001E+03  0.11609E+06
 0.14642001E+03  0.93907E+05
 0.14647000E+03  0.68134E+05
 0.14652000E+03  0.38194E+05
 0.14657001E+03  0.35840E+04
 0.14662001E+03 -0.33717E+05
 0.14667001E+03 -0.70690E+05
 0.14672000E+03 -0.10387E+06
 0.14677000E+03 -0.13142E+06
 0.14682001E+03 -0.15279E+06
 0.14687001E+03 -0.16721E+06
 0.14692001E+03 -0.17463E+06
 0.14697000E+03 -0.17742E+06
 0.14702000E+03 -0.17781E+06
 0.14707001E+03 -0.17602E+06
 0.14712001E+03 -0.17367E+06
 0.14717001E+03 -0.17411E+06
 0.14722000E+03 -0.17854E+06
 0.14727000E+03 -0.18529E+06
 0.14732001E+03 -0.19250E+06
 0.14737001E+03 -0.19923E+06
 0.14742001E+03 -0.20523E+06
 0.14747000E+03 -0.21152E+06
 0.14752000E+03 -0.22091E+06
 0.14757001E+03 -0.23612E+06
 0.14762001E+03 -0.25663E+06
 0.14767001E+03 -0.27872E+06
 0.14772000E+03 -0.29799E+06
 0.14777000E+03 -0.31134E+06
 0.14782001E+03 -0.31671E+06
 0.14787001E+03 -0.31299E+06
 0.14792001E+03 -0.30084E+06
 0.14797000E+03 -0.28321E+06
 0.14802000E+03 -0.26315E+06
 0.14807001E+03 -0.24100E+06
 0.14812001E+03 -0.21528E+06
 0.14817001E+03 -0.18471E+06
 0.14822000E+03 -0.15023E+06
 0.14827000E+03 -0.11533E+06
 0.14832001E+03 -0.82138E+05
 0.14837001E+03 -0.51013E+05
 0.14842001E+03 -0.22868E+05
 0.14847000E+03  0.34550E+04
 0.14852000E+03  0.29751E+05
 0.14857001E+03  0.54001E+05
 0.14862001E+03  0.72884E+05
 0.14867001E+03  0.84670E+05
 0.14872000E+03  0.90227E+05
 0.14877000E+03  0.93405E+05
 0.14882001E+03  0.98044E+05
 0.14887001E+03  0.10596E+06
 0.14892001E+03  0.11826E+06
 0.14897000E+03  0.13540E+06
 0.14902000E+03  0.15638E+06
 0.14907001E+03  0.17860E+06
 0.14912001E+03  0.19795E+06
 0.14917001E+03  0.21105E+06
 0.14922000E+03  0.21633E+06
 0.14927000E+03  0.21346E+06
 0.14932001E+03  0.20427E+06
 0.14937001E+03  0.19192E+06
 0.14942001E+03  0.17851E+06
 0.14947000E+03  0.16610E+06
 0.14952000E+03  0.15759E+06
 0.14957001E+03  0.15318E+06
 0.14962001E+03  0.14930E+06
 0.14967001E+03  0.14158E+06
 0.14972000E+03  0.12653E+06
 0.14977000E+03  0.10333E+06
 0.14982001E+03  0.75554E+05
 0.14987001E+03  0.48566E+05
 0.14992001E+03  0.25660E+05
 0.14997000E+03  0.76890E+04
