-0.29800000E+01  0.17679E+07
-0.29300001E+01  0.17647E+07
-0.28800001E+01  0.17610E+07
-0.28299999E+01  0.17572E+07
-0.27800000E+01  0.17543E+07
-0.27300000E+01  0.17529E+07
-0.26800001E+01  0.17531E+07
-0.26300001E+01  0.17538E+07
-0.25799999E+01  0.17531E+07
-0.25300000E+01  0.17508E+07
-0.24800000E+01  0.17466E+07
-0.24300001E+01  0.17412E+07
-0.23800001E+01  0.17326E+07
-0.23299999E+01  0.17205E+07
-0.22800000E+01  0.17060E+07
-0.22300000E+01  0.16899E+07
-0.21800001E+01  0.16731E+07
-0.21300001E+01  0.16562E+07
-0.20799999E+01  0.16405E+07
-0.20300000E+01  0.16279E+07
-0.19800000E+01  0.16180E+07
-0.19299999E+01  0.16103E+07
-0.18800000E+01  0.16048E+07
-0.18300000E+01  0.16008E+07
-0.17800000E+01  0.15977E+07
-0.17300000E+01  0.15943E+07
-0.16799999E+01  0.15922E+07
-0.16300000E+01  0.15903E+07
-0.15800000E+01  0.15852E+07
-0.15300000E+01  0.15790E+07
-0.14800000E+01  0.15752E+07
-0.14299999E+01  0.15736E+07
-0.13800000E+01  0.15735E+07
-0.13300000E+01  0.15742E+07
-0.12800000E+01  0.15761E+07
-0.12300000E+01  0.15810E+07
-0.11799999E+01  0.15863E+07
-0.11300000E+01  0.15928E+07
-0.10800000E+01  0.15992E+07
-0.10300000E+01  0.16050E+07
-0.98000002E+00  0.16119E+07
-0.93000007E+00  0.16184E+07
-0.87999988E+00  0.16257E+07
-0.82999992E+00  0.16339E+07
-0.77999997E+00  0.16429E+07
-0.73000002E+00  0.16516E+07
-0.68000007E+00  0.16594E+07
-0.62999988E+00  0.16657E+07
-0.57999992E+00  0.16695E+07
-0.52999997E+00  0.16735E+07
-0.48000002E+00  0.16766E+07
-0.43000007E+00  0.16783E+07
-0.37999988E+00  0.16796E+07
-0.32999992E+00  0.16786E+07
-0.27999997E+00  0.16783E+07
-0.23000002E+00  0.16750E+07
-0.18000007E+00  0.16706E+07
-0.12999988E+00  0.16697E+07
-0.79999924E-01  0.16626E+07
-0.29999971E-01  0.16510E+07
 0.19999981E-01  0.16384E+07
 0.69999933E-01  0.16222E+07
 0.12000012E+00  0.16044E+07
 0.17000008E+00  0.15850E+07
 0.22000003E+00  0.15620E+07
 0.26999998E+00  0.15391E+07
 0.31999993E+00  0.15213E+07
 0.37000012E+00  0.15002E+07
 0.42000008E+00  0.14768E+07
 0.47000003E+00  0.14578E+07
 0.51999998E+00  0.14395E+07
 0.56999993E+00  0.14278E+07
 0.62000012E+00  0.14183E+07
 0.67000008E+00  0.14090E+07
 0.72000003E+00  0.14066E+07
 0.76999998E+00  0.14030E+07
 0.81999993E+00  0.13984E+07
 0.87000012E+00  0.13991E+07
 0.92000008E+00  0.14036E+07
 0.97000003E+00  0.14050E+07
 0.10200000E+01  0.14089E+07
 0.10700002E+01  0.14170E+07
 0.11199999E+01  0.14267E+07
 0.11700001E+01  0.14404E+07
 0.12200003E+01  0.14536E+07
 0.12700000E+01  0.14666E+07
 0.13200002E+01  0.14750E+07
 0.13699999E+01  0.14867E+07
 0.14200001E+01  0.15044E+07
 0.14700003E+01  0.15168E+07
 0.15200000E+01  0.15321E+07
 0.15700002E+01  0.15525E+07
 0.16199999E+01  0.15683E+07
 0.16700001E+01  0.15832E+07
 0.17200003E+01  0.15947E+07
 0.17700000E+01  0.16002E+07
 0.18200002E+01  0.16058E+07
 0.18699999E+01  0.16064E+07
 0.19200001E+01  0.16056E+07
 0.19700003E+01  0.16030E+07
 0.20200000E+01  0.15940E+07
 0.20700002E+01  0.15843E+07
 0.21199999E+01  0.15736E+07
 0.21700001E+01  0.15625E+07
 0.22200003E+01  0.15511E+07
 0.22700000E+01  0.15397E+07
 0.23200002E+01  0.15297E+07
 0.23699999E+01  0.15192E+07
 0.24200001E+01  0.15106E+07
 0.24700003E+01  0.15025E+07
 0.25200000E+01  0.14935E+07
 0.25700002E+01  0.14867E+07
 0.26199999E+01  0.14793E+07
 0.26700001E+01  0.14735E+07
 0.27200003E+01  0.14683E+07
 0.27700000E+01  0.14638E+07
 0.28200002E+01  0.14608E+07
 0.28699999E+01  0.14570E+07
 0.29200001E+01  0.14550E+07
 0.29700003E+01  0.14540E+07
 0.30200000E+01  0.14547E+07
 0.30700002E+01  0.14574E+07
 0.31199999E+01  0.14594E+07
 0.31700001E+01  0.14607E+07
 0.32200003E+01  0.14621E+07
 0.32700000E+01  0.14637E+07
 0.33200002E+01  0.14641E+07
 0.33699999E+01  0.14651E+07
 0.34200001E+01  0.14652E+07
 0.34700003E+01  0.14632E+07
 0.35200000E+01  0.14607E+07
 0.35700002E+01  0.14564E+07
 0.36199999E+01  0.14517E+07
 0.36700001E+01  0.14466E+07
 0.37200003E+01  0.14396E+07
 0.37700000E+01  0.14315E+07
 0.38200002E+01  0.14242E+07
 0.38699999E+01  0.14168E+07
 0.39200001E+01  0.14082E+07
 0.39700003E+01  0.14046E+07
 0.40200000E+01  0.14020E+07
 0.40700002E+01  0.14018E+07
 0.41199999E+01  0.14065E+07
 0.41700001E+01  0.14028E+07
 0.42200003E+01  0.14167E+07
 0.42700000E+01  0.14043E+07
 0.43200002E+01  0.14177E+07
 0.43699999E+01  0.14058E+07
 0.44200001E+01  0.14021E+07
 0.44700003E+01  0.14129E+07
 0.45200000E+01  0.13701E+07
 0.45700002E+01  0.14262E+07
 0.46199999E+01  0.13303E+07
 0.46700001E+01  0.14343E+07
 0.47200003E+01  0.13154E+07
 0.47700000E+01  0.14035E+07
 0.48200002E+01  0.13407E+07
 0.48699999E+01  0.12402E+07
 0.49200001E+01  0.94933E+06
 0.49700003E+01 -0.12607E+07
 0.50200000E+01 -0.21709E+07
 0.50700002E+01 -0.20499E+07
 0.51200004E+01 -0.17026E+07
 0.51700006E+01 -0.20471E+07
 0.52199998E+01 -0.13432E+07
 0.52700000E+01  0.19527E+07
 0.53200002E+01  0.56501E+05
 0.53700004E+01 -0.21517E+07
 0.54200006E+01  0.19393E+07
 0.54699998E+01  0.33720E+07
 0.55200000E+01  0.31708E+07
 0.55700002E+01  0.35925E+07
 0.56200004E+01 -0.85508E+06
 0.56700006E+01 -0.44827E+07
 0.57199998E+01 -0.25963E+07
 0.57700000E+01  0.31506E+06
 0.58200002E+01 -0.38943E+07
 0.58700004E+01 -0.96619E+07
 0.59200006E+01 -0.10962E+08
 0.59699998E+01 -0.89610E+07
 0.60200000E+01  0.74647E+05
 0.60700002E+01  0.24900E+07
 0.61200004E+01  0.76816E+06
 0.61700006E+01  0.20942E+07
 0.62199998E+01 -0.29929E+07
 0.62700000E+01 -0.20053E+07
 0.63200002E+01 -0.71292E+06
 0.63700004E+01  0.50341E+07
 0.64200006E+01  0.85581E+07
 0.64699998E+01 -0.55199E+07
 0.65200000E+01 -0.37374E+07
 0.65700002E+01 -0.23508E+06
 0.66200004E+01 -0.18771E+07
 0.66700006E+01  0.18312E+07
 0.67199998E+01  0.62263E+07
 0.67700000E+01  0.32648E+07
 0.68200002E+01 -0.79109E+07
 0.68700004E+01 -0.31376E+07
 0.69200006E+01  0.11765E+07
 0.69699998E+01  0.58686E+07
 0.70200000E+01  0.81244E+06
 0.70700002E+01 -0.66554E+07
 0.71200004E+01 -0.41172E+07
 0.71700006E+01 -0.11409E+08
 0.72199998E+01 -0.57969E+07
 0.72700000E+01 -0.61976E+05
 0.73200002E+01  0.22577E+07
 0.73700004E+01 -0.35392E+07
 0.74200006E+01 -0.11749E+08
 0.74699998E+01 -0.13598E+08
 0.75200000E+01 -0.22149E+08
 0.75700002E+01 -0.11646E+08
 0.76200004E+01  0.14311E+07
 0.76700006E+01  0.58764E+07
 0.77199998E+01  0.60525E+07
 0.77700000E+01  0.30361E+07
 0.78200002E+01 -0.44572E+07
 0.78700004E+01 -0.16589E+08
 0.79200006E+01 -0.28110E+08
 0.79699998E+01 -0.28873E+08
 0.80200005E+01 -0.68127E+07
 0.80699997E+01 -0.88447E+07
 0.81200008E+01 -0.30021E+08
 0.81700001E+01 -0.37115E+08
 0.82199993E+01 -0.39400E+08
 0.82700005E+01 -0.36579E+08
 0.83199997E+01 -0.37850E+08
 0.83700008E+01 -0.40481E+08
 0.84200001E+01 -0.33218E+08
 0.84699993E+01 -0.37871E+08
 0.85200005E+01 -0.33493E+08
 0.85699997E+01 -0.13704E+08
 0.86200008E+01 -0.21313E+08
 0.86700001E+01 -0.15754E+08
 0.87199993E+01 -0.12254E+08
 0.87700005E+01 -0.21561E+08
 0.88199997E+01 -0.17795E+08
 0.88700008E+01 -0.26721E+08
 0.89200001E+01 -0.19027E+08
 0.89699993E+01 -0.17911E+08
 0.90200005E+01 -0.29550E+08
 0.90699997E+01 -0.24715E+08
 0.91200008E+01 -0.24669E+08
 0.91700001E+01 -0.26090E+08
 0.92199993E+01 -0.27091E+08
 0.92700005E+01 -0.29136E+08
 0.93199997E+01 -0.35255E+08
 0.93700008E+01 -0.36965E+08
 0.94200001E+01 -0.35318E+08
 0.94699993E+01 -0.36140E+08
 0.95200005E+01 -0.29430E+08
 0.95699997E+01 -0.33050E+08
 0.96200008E+01 -0.37503E+08
 0.96700001E+01 -0.32388E+08
 0.97199993E+01 -0.29254E+08
 0.97700005E+01 -0.27333E+08
 0.98199997E+01 -0.27145E+08
 0.98700008E+01 -0.22223E+08
 0.99200001E+01 -0.27207E+08
 0.99699993E+01 -0.30415E+08
 0.10020000E+02 -0.28536E+08
 0.10070000E+02 -0.28176E+08
 0.10120001E+02 -0.13977E+08
 0.10170000E+02 -0.11431E+08
 0.10219999E+02 -0.17590E+08
 0.10270000E+02 -0.22734E+08
 0.10320000E+02 -0.18504E+08
 0.10370001E+02 -0.19128E+08
 0.10420000E+02 -0.32726E+08
 0.10469999E+02 -0.27314E+08
 0.10520000E+02 -0.26746E+08
 0.10570000E+02 -0.24128E+08
 0.10620001E+02 -0.16285E+08
 0.10670000E+02 -0.24531E+08
 0.10719999E+02 -0.27018E+08
 0.10770000E+02 -0.26646E+08
 0.10820000E+02 -0.28282E+08
 0.10870001E+02 -0.23214E+08
 0.10920000E+02 -0.24555E+08
 0.10969999E+02 -0.27659E+08
 0.11020000E+02 -0.24590E+08
 0.11070000E+02 -0.23079E+08
 0.11120001E+02 -0.20917E+08
 0.11170000E+02 -0.23025E+08
 0.11219999E+02 -0.19758E+08
 0.11270000E+02 -0.98345E+07
 0.11320000E+02 -0.98775E+07
 0.11370001E+02 -0.33487E+07
 0.11420000E+02  0.11940E+08
 0.11469999E+02  0.20118E+08
 0.11520000E+02  0.31784E+08
 0.11570000E+02  0.39898E+08
 0.11620001E+02  0.37542E+08
 0.11670000E+02  0.39460E+08
 0.11719999E+02  0.32689E+08
 0.11770000E+02  0.28661E+08
 0.11820000E+02  0.37702E+08
 0.11870001E+02  0.25767E+08
 0.11920000E+02  0.21488E+08
 0.11969999E+02  0.28684E+08
 0.12020000E+02  0.26658E+08
 0.12070000E+02  0.23778E+08
 0.12120001E+02  0.41352E+07
 0.12170000E+02 -0.19775E+07
 0.12219999E+02  0.17467E+07
 0.12270000E+02 -0.23164E+07
 0.12320000E+02 -0.79527E+07
 0.12370001E+02 -0.15803E+08
 0.12420000E+02 -0.13450E+08
 0.12469999E+02 -0.80219E+07
 0.12520000E+02 -0.35070E+07
 0.12570000E+02 -0.11926E+08
 0.12620001E+02 -0.22242E+08
 0.12670000E+02 -0.18386E+08
 0.12719999E+02 -0.11179E+08
 0.12770000E+02  0.18687E+07
 0.12820000E+02  0.74361E+07
 0.12870001E+02 -0.13228E+08
 0.12920000E+02 -0.18736E+08
 0.12969999E+02 -0.52870E+06
 0.13020000E+02 -0.44964E+07
 0.13070002E+02 -0.88004E+07
 0.13120001E+02 -0.65896E+07
 0.13170000E+02 -0.10515E+08
 0.13220001E+02 -0.37748E+07
 0.13270000E+02  0.31236E+06
 0.13320002E+02 -0.14150E+07
 0.13370001E+02  0.53526E+06
 0.13420000E+02  0.52563E+07
 0.13470001E+02  0.73005E+07
 0.13520000E+02  0.12232E+07
 0.13570002E+02  0.15258E+07
 0.13620001E+02  0.70371E+07
 0.13670000E+02  0.37902E+07
 0.13720001E+02  0.24334E+07
 0.13770000E+02  0.76066E+07
 0.13820002E+02  0.16276E+08
 0.13870001E+02  0.16643E+08
 0.13920000E+02  0.27955E+07
 0.13970001E+02 -0.92884E+06
 0.14020000E+02  0.34086E+06
 0.14070002E+02 -0.20988E+07
 0.14120001E+02  0.56363E+05
 0.14170000E+02 -0.77892E+06
 0.14220001E+02 -0.71270E+05
 0.14270000E+02  0.64891E+07
 0.14320002E+02  0.95778E+07
 0.14370001E+02  0.15065E+08
 0.14420000E+02  0.21616E+08
 0.14470001E+02  0.18541E+08
 0.14520000E+02  0.20973E+08
 0.14570002E+02  0.18798E+08
 0.14620001E+02  0.76564E+07
 0.14670000E+02  0.50751E+07
 0.14720001E+02  0.15367E+07
 0.14770000E+02 -0.36567E+06
 0.14820002E+02 -0.32869E+07
 0.14870001E+02 -0.96463E+07
 0.14920000E+02 -0.63240E+07
 0.14970001E+02 -0.78684E+06
 0.15020000E+02 -0.40292E+07
 0.15070002E+02 -0.88652E+07
 0.15120001E+02 -0.10149E+07
 0.15170000E+02  0.10725E+08
 0.15220001E+02  0.14761E+08
 0.15270000E+02  0.21365E+08
 0.15320002E+02  0.20947E+08
 0.15370001E+02  0.15898E+08
 0.15420000E+02  0.15000E+08
 0.15470001E+02  0.45257E+07
 0.15520000E+02 -0.33727E+07
 0.15570002E+02 -0.61439E+07
 0.15620001E+02 -0.90755E+07
 0.15670000E+02 -0.44533E+07
 0.15720001E+02  0.45505E+07
 0.15770000E+02  0.12361E+08
 0.15820002E+02  0.14160E+08
 0.15870001E+02  0.12959E+08
 0.15920000E+02  0.10347E+08
 0.15970001E+02  0.54427E+07
 0.16020000E+02  0.23386E+07
 0.16070002E+02 -0.67069E+06
 0.16120001E+02 -0.14243E+07
 0.16170000E+02  0.23522E+07
 0.16220001E+02  0.37236E+07
 0.16270000E+02  0.25953E+06
 0.16320002E+02 -0.10386E+06
 0.16370001E+02  0.41984E+07
 0.16420000E+02  0.76938E+07
 0.16470001E+02  0.12002E+08
 0.16520000E+02  0.11033E+08
 0.16570002E+02  0.55102E+07
 0.16620001E+02  0.55479E+07
 0.16670000E+02  0.74319E+07
 0.16720001E+02  0.38831E+07
 0.16770000E+02 -0.34944E+07
 0.16820002E+02 -0.10528E+08
 0.16870001E+02 -0.13592E+08
 0.16920000E+02 -0.10189E+08
 0.16970001E+02 -0.82140E+07
 0.17020000E+02 -0.69160E+07
 0.17070002E+02 -0.29869E+07
 0.17120001E+02  0.23577E+06
 0.17170000E+02  0.41709E+07
 0.17220001E+02  0.69840E+07
 0.17270000E+02  0.76368E+07
 0.17320002E+02  0.53810E+07
 0.17370001E+02  0.59294E+07
 0.17420000E+02  0.11700E+08
 0.17470001E+02  0.15738E+08
 0.17520000E+02  0.18506E+08
 0.17570002E+02  0.15908E+08
 0.17620001E+02  0.10023E+08
 0.17670000E+02  0.64621E+07
 0.17720001E+02  0.44453E+07
 0.17770000E+02  0.58059E+07
 0.17820002E+02  0.48266E+07
 0.17870001E+02  0.42404E+07
 0.17920000E+02  0.62839E+07
 0.17970001E+02  0.56399E+07
 0.18020000E+02  0.44377E+07
 0.18070002E+02  0.30621E+07
 0.18120001E+02  0.34256E+07
 0.18170000E+02  0.47004E+07
 0.18220001E+02  0.40330E+07
 0.18270000E+02  0.45496E+06
 0.18320002E+02 -0.31119E+07
 0.18370001E+02 -0.19724E+07
 0.18420000E+02 -0.10052E+07
 0.18470001E+02  0.94275E+06
 0.18520000E+02  0.30964E+07
 0.18570002E+02  0.12035E+07
 0.18620001E+02  0.22996E+07
 0.18670000E+02  0.22700E+07
 0.18720001E+02 -0.14134E+07
 0.18770000E+02 -0.23467E+07
 0.18820002E+02 -0.34840E+07
 0.18870001E+02 -0.25390E+07
 0.18920000E+02  0.12334E+07
 0.18970001E+02  0.20299E+07
 0.19020000E+02  0.23860E+07
 0.19070002E+02  0.37255E+07
 0.19120001E+02  0.54110E+07
 0.19170000E+02  0.67379E+07
 0.19220001E+02  0.53217E+07
 0.19270000E+02  0.35666E+07
 0.19320002E+02  0.33828E+07
 0.19370001E+02  0.32252E+07
 0.19420000E+02  0.30447E+07
 0.19470001E+02  0.10106E+07
 0.19520000E+02 -0.11569E+07
 0.19570002E+02  0.23809E+07
 0.19620001E+02  0.39430E+07
 0.19670000E+02  0.49163E+07
 0.19720001E+02  0.70267E+07
 0.19770000E+02  0.28653E+07
 0.19820002E+02  0.39595E+07
 0.19870001E+02  0.75908E+07
 0.19920000E+02  0.10004E+08
 0.19970001E+02  0.12554E+08
 0.20020000E+02  0.80085E+07
 0.20070002E+02  0.35534E+07
 0.20120001E+02  0.30779E+07
 0.20170000E+02  0.52265E+07
 0.20220001E+02  0.56855E+07
 0.20270000E+02  0.56180E+07
 0.20320002E+02  0.66961E+07
 0.20370001E+02  0.57163E+07
 0.20420000E+02  0.52972E+07
 0.20470001E+02  0.33823E+07
 0.20520000E+02  0.20675E+07
 0.20570002E+02  0.22350E+07
 0.20620001E+02  0.33395E+07
 0.20670000E+02  0.49243E+07
 0.20720001E+02  0.44828E+07
 0.20770000E+02  0.31440E+07
 0.20820002E+02  0.31301E+07
 0.20870001E+02  0.60538E+07
 0.20920000E+02  0.62896E+07
 0.20970001E+02  0.54220E+07
 0.21020000E+02  0.70726E+07
 0.21070002E+02  0.85136E+07
 0.21120001E+02  0.68871E+07
 0.21170000E+02 -0.13833E+05
 0.21220001E+02 -0.46349E+07
 0.21270000E+02 -0.60077E+07
 0.21320002E+02 -0.85189E+07
 0.21370001E+02 -0.59998E+07
 0.21420000E+02 -0.44341E+06
 0.21470001E+02  0.29308E+07
 0.21520000E+02  0.49075E+07
 0.21570002E+02  0.58709E+07
 0.21620001E+02  0.75850E+07
 0.21670000E+02  0.84350E+07
 0.21720001E+02  0.82980E+07
 0.21770000E+02  0.81173E+07
 0.21820002E+02  0.90697E+07
 0.21870001E+02  0.10615E+08
 0.21920000E+02  0.99477E+07
 0.21970001E+02  0.80791E+07
 0.22020000E+02  0.40206E+07
 0.22070002E+02 -0.28077E+07
 0.22120001E+02 -0.69970E+07
 0.22170000E+02 -0.67155E+07
 0.22220001E+02 -0.73568E+07
 0.22270000E+02 -0.76130E+07
 0.22320002E+02 -0.45477E+07
 0.22370001E+02 -0.15862E+07
 0.22420000E+02  0.25348E+06
 0.22470001E+02  0.17600E+07
 0.22520000E+02  0.25774E+07
 0.22570002E+02  0.36942E+07
 0.22620001E+02  0.90681E+07
 0.22670000E+02  0.15941E+08
 0.22720001E+02  0.18419E+08
 0.22770000E+02  0.16408E+08
 0.22820002E+02  0.10808E+08
 0.22870001E+02  0.75405E+07
 0.22920000E+02  0.88358E+07
 0.22970001E+02  0.10982E+08
 0.23020000E+02  0.13284E+08
 0.23070002E+02  0.13988E+08
 0.23120001E+02  0.12453E+08
 0.23170000E+02  0.88106E+07
 0.23220001E+02  0.29911E+07
 0.23270000E+02  0.20744E+06
 0.23320002E+02  0.84904E+06
 0.23370001E+02  0.12515E+07
 0.23420000E+02  0.19846E+07
 0.23470001E+02  0.25214E+07
 0.23520000E+02  0.29121E+07
 0.23570002E+02  0.22755E+07
 0.23620001E+02  0.14002E+07
 0.23670000E+02  0.47751E+06
 0.23720001E+02 -0.15102E+07
 0.23770000E+02 -0.40288E+07
 0.23820002E+02 -0.57660E+07
 0.23870001E+02 -0.40385E+07
 0.23920000E+02 -0.20674E+07
 0.23970001E+02 -0.72897E+06
 0.24020000E+02  0.19558E+07
 0.24070002E+02  0.36559E+07
 0.24120001E+02  0.36703E+07
 0.24170000E+02  0.37781E+07
 0.24220001E+02  0.40900E+07
 0.24270000E+02  0.34183E+07
 0.24320002E+02  0.11464E+07
 0.24370001E+02 -0.17457E+07
 0.24420000E+02 -0.22451E+07
 0.24470001E+02 -0.18462E+07
 0.24520000E+02 -0.10014E+07
 0.24570002E+02  0.26252E+07
 0.24620001E+02  0.73176E+07
 0.24670000E+02  0.91277E+07
 0.24720001E+02  0.73458E+07
 0.24770000E+02  0.59571E+07
 0.24820002E+02  0.50352E+07
 0.24870001E+02  0.41989E+07
 0.24920000E+02  0.37091E+07
 0.24970001E+02  0.44516E+07
 0.25020000E+02  0.63945E+07
 0.25070002E+02  0.70145E+07
 0.25120001E+02  0.70391E+07
 0.25170000E+02  0.49972E+07
 0.25220001E+02  0.15877E+07
 0.25270000E+02 -0.11563E+07
 0.25320002E+02 -0.26022E+07
 0.25370001E+02 -0.18794E+07
 0.25420000E+02 -0.51624E+06
 0.25470001E+02  0.96113E+06
 0.25520000E+02  0.16389E+07
 0.25570002E+02  0.23489E+07
 0.25620001E+02  0.24984E+07
 0.25670000E+02  0.19578E+06
 0.25720001E+02 -0.23717E+07
 0.25770000E+02 -0.39950E+07
 0.25820002E+02 -0.29583E+07
 0.25870001E+02 -0.10044E+06
 0.25920000E+02  0.17209E+07
 0.25970001E+02  0.28935E+07
 0.26020000E+02  0.39053E+07
 0.26070002E+02  0.56040E+07
 0.26120001E+02  0.58773E+07
 0.26170000E+02  0.52843E+07
 0.26220001E+02  0.64591E+07
 0.26270000E+02  0.62871E+07
 0.26320002E+02  0.48150E+07
 0.26370001E+02  0.35721E+07
 0.26420000E+02  0.26241E+07
 0.26470001E+02  0.23874E+07
 0.26520000E+02  0.21556E+07
 0.26570002E+02  0.27629E+07
 0.26620001E+02  0.46403E+07
 0.26670000E+02  0.59190E+07
 0.26720001E+02  0.48956E+07
 0.26770000E+02  0.36592E+07
 0.26820002E+02  0.36559E+07
 0.26870001E+02  0.30996E+07
 0.26920000E+02  0.11793E+07
 0.26970001E+02 -0.78009E+06
 0.27020000E+02 -0.34998E+06
 0.27070002E+02  0.14386E+06
 0.27120001E+02 -0.11104E+07
 0.27170000E+02 -0.21849E+07
 0.27220001E+02 -0.19868E+07
 0.27270000E+02 -0.17689E+07
 0.27320002E+02 -0.24448E+07
 0.27370001E+02 -0.77136E+06
 0.27420000E+02  0.78446E+06
 0.27470001E+02  0.66816E+06
 0.27520000E+02  0.14343E+07
 0.27570002E+02  0.20239E+07
 0.27620001E+02  0.33824E+07
 0.27670000E+02  0.50185E+07
 0.27720001E+02  0.61241E+07
 0.27770000E+02  0.57315E+07
 0.27820002E+02  0.54495E+07
 0.27870001E+02  0.73413E+07
 0.27920000E+02  0.68254E+07
 0.27970001E+02  0.51193E+07
 0.28020000E+02  0.46697E+07
 0.28070002E+02  0.28662E+07
 0.28120001E+02  0.68837E+06
 0.28170000E+02 -0.73712E+06
 0.28220001E+02 -0.14341E+07
 0.28270000E+02 -0.14779E+07
 0.28320002E+02 -0.28204E+07
 0.28370001E+02 -0.26698E+07
 0.28420000E+02 -0.97380E+05
 0.28470001E+02  0.90310E+06
 0.28520000E+02  0.18413E+07
 0.28570002E+02  0.32522E+07
 0.28620001E+02  0.48695E+07
 0.28670000E+02  0.62715E+07
 0.28720001E+02  0.50988E+07
 0.28770000E+02  0.36274E+07
 0.28820002E+02  0.35070E+07
 0.28870001E+02  0.31952E+07
 0.28920000E+02  0.28843E+07
 0.28970001E+02  0.32459E+07
 0.29020000E+02  0.38335E+07
 0.29070000E+02  0.53266E+07
 0.29120003E+02  0.67192E+07
 0.29170002E+02  0.67512E+07
 0.29220001E+02  0.65469E+07
 0.29270000E+02  0.59168E+07
 0.29320000E+02  0.44689E+07
 0.29370003E+02  0.27336E+07
 0.29420002E+02  0.16220E+07
 0.29470001E+02  0.10290E+07
 0.29520000E+02  0.48773E+06
 0.29570000E+02  0.32651E+06
 0.29620003E+02  0.13060E+07
 0.29670002E+02  0.28265E+07
 0.29720001E+02  0.36634E+07
 0.29770000E+02  0.33801E+07
 0.29820000E+02  0.22887E+07
 0.29870003E+02  0.13855E+07
 0.29920002E+02  0.78974E+06
 0.29970001E+02  0.74554E+06
 0.30020000E+02  0.23035E+06
 0.30070000E+02 -0.12639E+06
 0.30120003E+02  0.81580E+06
 0.30170002E+02  0.15071E+07
 0.30220001E+02  0.14806E+07
 0.30270000E+02  0.21021E+07
 0.30320000E+02  0.34473E+07
 0.30370003E+02  0.35641E+07
 0.30420002E+02  0.35805E+07
 0.30470001E+02  0.35546E+07
 0.30520000E+02  0.27885E+07
 0.30570000E+02  0.31262E+07
 0.30620003E+02  0.43758E+07
 0.30670002E+02  0.58134E+07
 0.30720001E+02  0.62562E+07
 0.30770000E+02  0.58359E+07
 0.30820000E+02  0.41635E+07
 0.30870003E+02  0.11726E+07
 0.30920002E+02  0.25195E+06
 0.30970001E+02 -0.92347E+05
 0.31020000E+02 -0.10064E+07
 0.31070000E+02 -0.11924E+07
 0.31120003E+02 -0.23436E+06
 0.31170002E+02  0.17957E+07
 0.31220001E+02  0.24983E+07
 0.31270000E+02  0.33504E+07
 0.31320000E+02  0.41787E+07
 0.31370003E+02  0.35346E+07
 0.31420002E+02  0.30541E+07
 0.31470001E+02  0.28767E+07
 0.31520000E+02  0.26630E+07
 0.31570000E+02  0.20028E+07
 0.31620003E+02  0.14474E+07
 0.31670002E+02  0.11141E+07
 0.31720001E+02  0.10195E+07
 0.31770000E+02  0.13322E+07
 0.31820000E+02  0.18542E+07
 0.31870003E+02  0.31439E+07
 0.31920002E+02  0.47705E+07
 0.31970001E+02  0.60999E+07
 0.32020000E+02  0.68376E+07
 0.32070000E+02  0.61958E+07
 0.32120003E+02  0.52598E+07
 0.32170002E+02  0.46122E+07
 0.32220001E+02  0.38643E+07
 0.32270000E+02  0.33189E+07
 0.32320000E+02  0.17982E+07
 0.32370003E+02  0.48398E+06
 0.32420002E+02  0.85163E+05
 0.32470001E+02 -0.84336E+06
 0.32520000E+02 -0.10912E+07
 0.32570000E+02 -0.37694E+06
 0.32620003E+02 -0.90779E+05
 0.32670002E+02 -0.18402E+06
 0.32720001E+02 -0.38519E+06
 0.32770000E+02 -0.14287E+06
 0.32820000E+02  0.28975E+06
 0.32870003E+02 -0.37957E+06
 0.32920002E+02 -0.92455E+06
 0.32970001E+02 -0.82443E+06
 0.33020000E+02 -0.38572E+06
 0.33070000E+02  0.60087E+06
 0.33120003E+02  0.14944E+07
 0.33170002E+02  0.20251E+07
 0.33220001E+02  0.17555E+07
 0.33270000E+02  0.14684E+07
 0.33320000E+02  0.10905E+07
 0.33370003E+02  0.65034E+06
 0.33420002E+02  0.13365E+07
 0.33470001E+02  0.20607E+07
 0.33520000E+02  0.23841E+07
 0.33570000E+02  0.22196E+07
 0.33620003E+02  0.19542E+07
 0.33670002E+02  0.21922E+07
 0.33720001E+02  0.23545E+07
 0.33770000E+02  0.27218E+07
 0.33820000E+02  0.32823E+07
 0.33870003E+02  0.39242E+07
 0.33920002E+02  0.41263E+07
 0.33970001E+02  0.38155E+07
 0.34020000E+02  0.36295E+07
 0.34070000E+02  0.32572E+07
 0.34120003E+02  0.35421E+07
 0.34170002E+02  0.45162E+07
 0.34220001E+02  0.46296E+07
 0.34270000E+02  0.41028E+07
 0.34320000E+02  0.38678E+07
 0.34370003E+02  0.30332E+07
 0.34420002E+02  0.14235E+07
 0.34470001E+02  0.66888E+06
 0.34520000E+02  0.54919E+06
 0.34570000E+02  0.84222E+06
 0.34620003E+02  0.11662E+07
 0.34670002E+02  0.10261E+07
 0.34720001E+02  0.11860E+07
 0.34770000E+02  0.11138E+07
 0.34820000E+02  0.95558E+06
 0.34870003E+02  0.56811E+06
 0.34920002E+02  0.11810E+05
 0.34970001E+02  0.51789E+06
 0.35020000E+02  0.10458E+07
 0.35070000E+02  0.11840E+07
 0.35120003E+02  0.19515E+07
 0.35170002E+02  0.28242E+07
 0.35220001E+02  0.29871E+07
 0.35270000E+02  0.28350E+07
 0.35320000E+02  0.23497E+07
 0.35370003E+02  0.13829E+07
 0.35420002E+02  0.11912E+07
 0.35470001E+02  0.16640E+07
 0.35520000E+02  0.19054E+07
 0.35570000E+02  0.21287E+07
 0.35620003E+02  0.24140E+07
 0.35670002E+02  0.29169E+07
 0.35720001E+02  0.36922E+07
 0.35770000E+02  0.51238E+07
 0.35820000E+02  0.60604E+07
 0.35870003E+02  0.56367E+07
 0.35920002E+02  0.47764E+07
 0.35970001E+02  0.32052E+07
 0.36020000E+02  0.21919E+07
 0.36070000E+02  0.18844E+07
 0.36120003E+02  0.17216E+07
 0.36170002E+02  0.26277E+07
 0.36220001E+02  0.34621E+07
 0.36270000E+02  0.38685E+07
 0.36320000E+02  0.35671E+07
 0.36370003E+02  0.29453E+07
 0.36420002E+02  0.24208E+07
 0.36470001E+02  0.11486E+07
 0.36520000E+02  0.49463E+06
 0.36570000E+02  0.26479E+06
 0.36620003E+02  0.28259E+06
 0.36670002E+02  0.11669E+07
 0.36720001E+02  0.22261E+07
 0.36770000E+02  0.32127E+07
 0.36820000E+02  0.32640E+07
 0.36870003E+02  0.28516E+07
 0.36920002E+02  0.23386E+07
 0.36970001E+02  0.93564E+06
 0.37020000E+02 -0.79998E+06
 0.37070000E+02 -0.19630E+07
 0.37120003E+02 -0.24702E+07
 0.37170002E+02 -0.25153E+07
 0.37220001E+02 -0.19044E+07
 0.37270000E+02 -0.11947E+07
 0.37320000E+02 -0.48298E+06
 0.37370003E+02  0.32890E+06
 0.37420002E+02  0.81220E+06
 0.37470001E+02  0.14948E+07
 0.37520000E+02  0.21766E+07
 0.37570000E+02  0.20153E+07
 0.37620003E+02  0.16633E+07
 0.37670002E+02  0.17356E+07
 0.37720001E+02  0.18190E+07
 0.37770000E+02  0.16991E+07
 0.37820000E+02  0.16083E+07
 0.37870003E+02  0.14634E+07
 0.37920002E+02  0.78026E+06
 0.37970001E+02  0.44853E+06
 0.38020000E+02  0.90000E+06
 0.38070000E+02  0.11539E+07
 0.38120003E+02  0.82728E+06
 0.38170002E+02  0.49410E+06
 0.38220001E+02  0.33614E+06
 0.38270000E+02  0.45838E+06
 0.38320000E+02  0.12055E+07
 0.38370003E+02  0.18175E+07
 0.38420002E+02  0.25225E+07
 0.38470001E+02  0.31114E+07
 0.38520000E+02  0.34775E+07
 0.38570000E+02  0.41347E+07
 0.38620003E+02  0.43982E+07
 0.38670002E+02  0.47991E+07
 0.38720001E+02  0.48842E+07
 0.38770000E+02  0.39427E+07
 0.38820000E+02  0.25981E+07
 0.38870003E+02  0.11853E+07
 0.38920002E+02  0.45690E+06
 0.38970001E+02  0.10354E+06
 0.39020000E+02  0.11407E+05
 0.39070000E+02  0.48078E+06
 0.39120003E+02  0.95221E+06
 0.39170002E+02  0.13452E+07
 0.39220001E+02  0.15497E+07
 0.39270000E+02  0.15159E+07
 0.39320000E+02  0.12685E+07
 0.39370003E+02  0.98997E+06
 0.39420002E+02  0.71676E+06
 0.39470001E+02  0.35112E+06
 0.39520000E+02  0.59485E+06
 0.39570000E+02  0.15732E+07
 0.39620003E+02  0.25459E+07
 0.39670002E+02  0.34419E+07
 0.39720001E+02  0.39860E+07
 0.39770000E+02  0.39082E+07
 0.39820000E+02  0.37661E+07
 0.39870003E+02  0.33200E+07
 0.39920002E+02  0.30478E+07
 0.39970001E+02  0.33392E+07
 0.40020000E+02  0.31034E+07
 0.40070000E+02  0.23755E+07
 0.40120003E+02  0.18547E+07
 0.40170002E+02  0.18367E+07
 0.40220001E+02  0.19721E+07
 0.40270000E+02  0.23446E+07
 0.40320000E+02  0.29955E+07
 0.40370003E+02  0.30894E+07
 0.40420002E+02  0.27111E+07
 0.40470001E+02  0.20698E+07
 0.40520000E+02  0.12123E+07
 0.40570000E+02  0.59910E+06
 0.40620003E+02  0.53702E+06
 0.40670002E+02  0.82421E+06
 0.40720001E+02  0.10762E+07
 0.40770000E+02  0.16661E+07
 0.40820000E+02  0.23627E+07
 0.40870003E+02  0.23543E+07
 0.40920002E+02  0.20862E+07
 0.40970001E+02  0.17133E+07
 0.41020000E+02  0.10546E+07
 0.41070000E+02  0.41929E+06
 0.41120003E+02  0.95713E+05
 0.41170002E+02 -0.61321E+05
 0.41220001E+02 -0.12235E+06
 0.41270000E+02  0.29113E+06
 0.41320000E+02  0.90732E+06
 0.41370003E+02  0.14057E+07
 0.41420002E+02  0.19809E+07
 0.41470001E+02  0.27929E+07
 0.41520000E+02  0.29740E+07
 0.41570000E+02  0.27004E+07
 0.41620003E+02  0.25544E+07
 0.41670002E+02  0.20532E+07
 0.41720001E+02  0.17321E+07
 0.41770000E+02  0.15669E+07
 0.41820000E+02  0.13034E+07
 0.41870003E+02  0.81114E+06
 0.41920002E+02  0.23490E+06
 0.41970001E+02  0.20793E+06
 0.42020000E+02  0.59487E+06
 0.42070000E+02  0.11746E+07
 0.42120003E+02  0.14409E+07
 0.42170002E+02  0.13307E+07
 0.42220001E+02  0.11181E+07
 0.42270000E+02  0.85625E+06
 0.42320000E+02  0.87850E+06
 0.42370003E+02  0.13591E+07
 0.42420002E+02  0.20350E+07
 0.42470001E+02  0.20765E+07
 0.42520000E+02  0.15248E+07
 0.42570000E+02  0.10061E+07
 0.42620003E+02  0.47490E+06
 0.42670002E+02 -0.26990E+06
 0.42720001E+02 -0.89354E+06
 0.42770000E+02 -0.11667E+07
 0.42820000E+02 -0.15615E+07
 0.42870003E+02 -0.18021E+07
 0.42920002E+02 -0.16959E+07
 0.42970001E+02 -0.13274E+07
 0.43020000E+02 -0.54873E+06
 0.43070000E+02  0.33374E+06
 0.43120003E+02  0.84430E+06
 0.43170002E+02  0.92954E+06
 0.43220001E+02  0.11284E+07
 0.43270000E+02  0.12615E+07
 0.43320000E+02  0.96132E+06
 0.43370003E+02  0.66845E+06
 0.43420002E+02  0.48775E+06
 0.43470001E+02  0.12584E+06
 0.43520000E+02 -0.39198E+06
 0.43570000E+02 -0.10310E+07
 0.43620003E+02 -0.14102E+07
 0.43670002E+02 -0.12877E+07
 0.43720001E+02 -0.89668E+06
 0.43770000E+02 -0.27301E+06
 0.43820000E+02  0.24093E+06
 0.43870003E+02  0.81928E+06
 0.43920002E+02  0.13429E+07
 0.43970001E+02  0.13949E+07
 0.44020000E+02  0.13789E+07
 0.44070000E+02  0.13782E+07
 0.44120003E+02  0.15398E+07
 0.44170002E+02  0.17759E+07
 0.44220001E+02  0.18731E+07
 0.44270000E+02  0.18172E+07
 0.44320000E+02  0.15857E+07
 0.44370003E+02  0.13527E+07
 0.44420002E+02  0.10227E+07
 0.44470001E+02  0.81551E+06
 0.44520000E+02  0.63452E+06
 0.44570000E+02  0.13834E+06
 0.44620003E+02 -0.43640E+05
 0.44670002E+02  0.41267E+06
 0.44720001E+02  0.12565E+07
 0.44770000E+02  0.22178E+07
 0.44820000E+02  0.30040E+07
 0.44870003E+02  0.33937E+07
 0.44920002E+02  0.31854E+07
 0.44970001E+02  0.28004E+07
 0.45020000E+02  0.24791E+07
 0.45070000E+02  0.19898E+07
 0.45120003E+02  0.13907E+07
 0.45170002E+02  0.10150E+07
 0.45220001E+02  0.12218E+07
 0.45270000E+02  0.15219E+07
 0.45320000E+02  0.15680E+07
 0.45370003E+02  0.14835E+07
 0.45420002E+02  0.10202E+07
 0.45470001E+02  0.35908E+06
 0.45520000E+02 -0.36124E+05
 0.45570000E+02 -0.12898E+06
 0.45620003E+02  0.27423E+05
 0.45670002E+02  0.46880E+06
 0.45720001E+02  0.10892E+07
 0.45770000E+02  0.15384E+07
 0.45820000E+02  0.16873E+07
 0.45870003E+02  0.16159E+07
 0.45920002E+02  0.11413E+07
 0.45970001E+02  0.44667E+06
 0.46020000E+02 -0.58482E+05
 0.46070000E+02 -0.16062E+06
 0.46120003E+02  0.22132E+06
 0.46170002E+02  0.82494E+06
 0.46220001E+02  0.13189E+07
 0.46270000E+02  0.18830E+07
 0.46320000E+02  0.25592E+07
 0.46370003E+02  0.29714E+07
 0.46420002E+02  0.31637E+07
 0.46470001E+02  0.30319E+07
 0.46520000E+02  0.27233E+07
 0.46570000E+02  0.24719E+07
 0.46620003E+02  0.20954E+07
 0.46670002E+02  0.18504E+07
 0.46720001E+02  0.17120E+07
 0.46770000E+02  0.15416E+07
 0.46820000E+02  0.14575E+07
 0.46870003E+02  0.13068E+07
 0.46920002E+02  0.89184E+06
 0.46970001E+02  0.18936E+06
 0.47020000E+02 -0.51256E+06
 0.47070000E+02 -0.10838E+07
 0.47120003E+02 -0.16253E+07
 0.47170002E+02 -0.18160E+07
 0.47220001E+02 -0.16962E+07
 0.47270000E+02 -0.14873E+07
 0.47320000E+02 -0.13042E+07
 0.47370003E+02 -0.16506E+07
 0.47420002E+02 -0.21226E+07
 0.47470001E+02 -0.22338E+07
 0.47520000E+02 -0.23174E+07
 0.47570000E+02 -0.23667E+07
 0.47620003E+02 -0.22067E+07
 0.47670002E+02 -0.18911E+07
 0.47720001E+02 -0.12881E+07
 0.47770000E+02 -0.55865E+06
 0.47820000E+02 -0.12195E+06
 0.47870003E+02  0.14911E+06
 0.47920002E+02  0.49707E+06
 0.47970001E+02  0.94607E+06
 0.48020000E+02  0.10469E+07
 0.48070000E+02  0.75628E+06
 0.48120003E+02  0.57530E+06
 0.48170002E+02  0.76037E+06
 0.48220001E+02  0.12686E+07
 0.48270000E+02  0.16828E+07
 0.48320000E+02  0.19506E+07
 0.48370003E+02  0.21970E+07
 0.48420002E+02  0.22627E+07
 0.48470001E+02  0.20691E+07
 0.48520000E+02  0.18607E+07
 0.48570000E+02  0.18033E+07
 0.48620003E+02  0.18955E+07
 0.48670002E+02  0.19756E+07
 0.48720001E+02  0.19409E+07
 0.48770000E+02  0.20157E+07
 0.48820000E+02  0.20605E+07
 0.48870003E+02  0.20669E+07
 0.48920002E+02  0.20852E+07
 0.48970001E+02  0.21233E+07
 0.49020000E+02  0.21264E+07
 0.49070000E+02  0.18567E+07
 0.49120003E+02  0.16736E+07
 0.49170002E+02  0.16075E+07
 0.49220001E+02  0.15582E+07
 0.49270000E+02  0.16307E+07
 0.49320000E+02  0.17068E+07
 0.49370003E+02  0.18255E+07
 0.49420002E+02  0.18642E+07
 0.49470001E+02  0.18298E+07
 0.49520000E+02  0.17009E+07
 0.49570000E+02  0.14588E+07
 0.49620003E+02  0.13914E+07
 0.49670002E+02  0.13700E+07
 0.49720001E+02  0.13276E+07
 0.49770000E+02  0.13912E+07
 0.49820000E+02  0.15898E+07
 0.49870003E+02  0.18727E+07
 0.49920002E+02  0.18172E+07
 0.49970001E+02  0.14083E+07
 0.50020000E+02  0.10071E+07
 0.50070000E+02  0.56524E+06
 0.50120003E+02  0.86756E+05
 0.50170002E+02 -0.27584E+06
 0.50220001E+02 -0.65576E+06
 0.50270000E+02 -0.11038E+07
 0.50320000E+02 -0.14731E+07
 0.50370003E+02 -0.17401E+07
 0.50420002E+02 -0.18914E+07
 0.50470001E+02 -0.17732E+07
 0.50520000E+02 -0.14507E+07
 0.50570000E+02 -0.12949E+07
 0.50620003E+02 -0.13072E+07
 0.50670002E+02 -0.12989E+07
 0.50720001E+02 -0.12816E+07
 0.50770000E+02 -0.13713E+07
 0.50820000E+02 -0.14833E+07
 0.50870003E+02 -0.13014E+07
 0.50920002E+02 -0.10257E+07
 0.50970001E+02 -0.10270E+07
 0.51020000E+02 -0.10135E+07
 0.51070000E+02 -0.55771E+06
 0.51120003E+02  0.15898E+06
 0.51170002E+02  0.66070E+06
 0.51220001E+02  0.99016E+06
 0.51270000E+02  0.13651E+07
 0.51320000E+02  0.15631E+07
 0.51370003E+02  0.16044E+07
 0.51420002E+02  0.16444E+07
 0.51470001E+02  0.15731E+07
 0.51520000E+02  0.16320E+07
 0.51570000E+02  0.20030E+07
 0.51620003E+02  0.23673E+07
 0.51670002E+02  0.26104E+07
 0.51720001E+02  0.28144E+07
 0.51770000E+02  0.29009E+07
 0.51820000E+02  0.27696E+07
 0.51870003E+02  0.23716E+07
 0.51920002E+02  0.18508E+07
 0.51970001E+02  0.13537E+07
 0.52020000E+02  0.91029E+06
 0.52070000E+02  0.54179E+06
 0.52120003E+02  0.15490E+06
 0.52170002E+02 -0.13933E+05
 0.52220001E+02  0.13561E+06
 0.52270000E+02  0.34095E+06
 0.52320000E+02  0.71019E+06
 0.52370003E+02  0.11559E+07
 0.52420002E+02  0.14881E+07
 0.52470001E+02  0.16731E+07
 0.52520000E+02  0.15551E+07
 0.52570000E+02  0.12702E+07
 0.52620003E+02  0.10806E+07
 0.52670002E+02  0.10786E+07
 0.52720001E+02  0.11028E+07
 0.52770000E+02  0.89237E+06
 0.52820000E+02  0.65616E+06
 0.52870003E+02  0.52522E+06
 0.52920002E+02  0.52253E+06
 0.52970001E+02  0.61364E+06
 0.53020000E+02  0.57687E+06
 0.53070000E+02  0.51882E+06
 0.53120003E+02  0.42543E+06
 0.53170002E+02  0.29250E+06
 0.53220001E+02  0.76551E+05
 0.53270000E+02 -0.17561E+06
 0.53320000E+02 -0.32731E+06
 0.53370003E+02 -0.52800E+06
 0.53420002E+02 -0.63196E+06
 0.53470001E+02 -0.64482E+06
 0.53520000E+02 -0.67832E+06
 0.53570000E+02 -0.46488E+06
 0.53620003E+02 -0.17498E+06
 0.53670002E+02 -0.17338E+05
 0.53720001E+02  0.16700E+06
 0.53770000E+02  0.40043E+06
 0.53820000E+02  0.63275E+06
 0.53870003E+02  0.65462E+06
 0.53920002E+02  0.44013E+06
 0.53970001E+02  0.38661E+05
 0.54020000E+02 -0.37606E+06
 0.54070000E+02 -0.68486E+06
 0.54120003E+02 -0.10242E+07
 0.54170002E+02 -0.12013E+07
 0.54220001E+02 -0.12189E+07
 0.54270000E+02 -0.11101E+07
 0.54320000E+02 -0.70311E+06
 0.54370003E+02 -0.18744E+06
 0.54420002E+02  0.24935E+06
 0.54470001E+02  0.68130E+06
 0.54520000E+02  0.10317E+07
 0.54570000E+02  0.10622E+07
 0.54620003E+02  0.91418E+06
 0.54670002E+02  0.88033E+06
 0.54720001E+02  0.85472E+06
 0.54770000E+02  0.89738E+06
 0.54820000E+02  0.10144E+07
 0.54870003E+02  0.97908E+06
 0.54920002E+02  0.86695E+06
 0.54970001E+02  0.72424E+06
 0.55020000E+02  0.45195E+06
 0.55070000E+02  0.69008E+05
 0.55120003E+02 -0.58080E+04
 0.55170002E+02  0.26930E+06
 0.55220001E+02  0.48283E+06
 0.55270000E+02  0.70595E+06
 0.55320000E+02  0.92781E+06
 0.55370003E+02  0.10654E+07
 0.55420002E+02  0.12060E+07
 0.55470001E+02  0.12301E+07
 0.55520000E+02  0.10126E+07
 0.55570000E+02  0.58165E+06
 0.55620003E+02  0.22832E+06
 0.55670002E+02  0.11006E+06
 0.55720001E+02  0.45678E+05
 0.55770000E+02  0.32520E+05
 0.55820000E+02 -0.47682E+05
 0.55870003E+02 -0.19237E+06
 0.55920002E+02 -0.20314E+06
 0.55970001E+02 -0.25219E+06
 0.56020000E+02 -0.34255E+06
 0.56070000E+02 -0.28050E+06
 0.56120003E+02 -0.23423E+05
 0.56170002E+02  0.31717E+06
 0.56220001E+02  0.61012E+06
 0.56270000E+02  0.76640E+06
 0.56320000E+02  0.81000E+06
 0.56370003E+02  0.85786E+06
 0.56420002E+02  0.88452E+06
 0.56470001E+02  0.91926E+06
 0.56520000E+02  0.94453E+06
 0.56570000E+02  0.96493E+06
 0.56620003E+02  0.10342E+07
 0.56670002E+02  0.10814E+07
 0.56720001E+02  0.11022E+07
 0.56770000E+02  0.11018E+07
 0.56820000E+02  0.10960E+07
 0.56870003E+02  0.11148E+07
 0.56920002E+02  0.11463E+07
 0.56970001E+02  0.11928E+07
 0.57020000E+02  0.12566E+07
 0.57070000E+02  0.12528E+07
 0.57120003E+02  0.11311E+07
 0.57170002E+02  0.88734E+06
 0.57220001E+02  0.52333E+06
 0.57270000E+02  0.22247E+06
 0.57320000E+02 -0.21826E+05
 0.57370003E+02 -0.30995E+06
 0.57420002E+02 -0.54838E+06
 0.57470001E+02 -0.79487E+06
 0.57520000E+02 -0.10502E+07
 0.57570000E+02 -0.12922E+07
 0.57620003E+02 -0.14529E+07
 0.57670002E+02 -0.13494E+07
 0.57720001E+02 -0.10465E+07
 0.57770000E+02 -0.71550E+06
 0.57820000E+02 -0.40392E+06
 0.57870003E+02 -0.15575E+06
 0.57920002E+02 -0.98665E+05
 0.57970001E+02 -0.11488E+06
 0.58020000E+02 -0.89265E+05
 0.58070000E+02 -0.41758E+05
 0.58120003E+02  0.55563E+05
 0.58170002E+02  0.13632E+06
 0.58220001E+02  0.12348E+06
 0.58270000E+02  0.85443E+05
 0.58320000E+02  0.18157E+06
 0.58370003E+02  0.29192E+06
 0.58420002E+02  0.29429E+06
 0.58470001E+02  0.19363E+06
 0.58520000E+02  0.35060E+04
 0.58570000E+02 -0.78649E+05
 0.58620003E+02  0.65470E+04
 0.58670002E+02  0.14690E+06
 0.58720001E+02  0.20821E+06
 0.58770000E+02  0.43052E+05
 0.58820000E+02 -0.24545E+06
 0.58870003E+02 -0.56894E+06
 0.58920002E+02 -0.97761E+06
 0.58970001E+02 -0.12753E+07
 0.59020000E+02 -0.12700E+07
 0.59070000E+02 -0.10054E+07
 0.59120003E+02 -0.72647E+06
 0.59170002E+02 -0.52674E+06
 0.59220001E+02 -0.30548E+06
 0.59270000E+02 -0.17361E+06
 0.59320000E+02 -0.85719E+05
 0.59370003E+02  0.10079E+06
 0.59420002E+02  0.29274E+06
 0.59470001E+02  0.43589E+06
 0.59520000E+02  0.52141E+06
 0.59570000E+02  0.48342E+06
 0.59620003E+02  0.34688E+06
 0.59670002E+02  0.31396E+06
 0.59720001E+02  0.46732E+06
 0.59770000E+02  0.73601E+06
 0.59820000E+02  0.10408E+07
 0.59870003E+02  0.11695E+07
 0.59920002E+02  0.10938E+07
 0.59970001E+02  0.89016E+06
 0.60020000E+02  0.54165E+06
 0.60070000E+02  0.23224E+06
 0.60120003E+02 -0.70030E+05
 0.60170002E+02 -0.47255E+06
 0.60220001E+02 -0.73202E+06
 0.60270000E+02 -0.79592E+06
 0.60320000E+02 -0.80377E+06
 0.60370003E+02 -0.91436E+06
 0.60420002E+02 -0.10606E+07
 0.60470001E+02 -0.10061E+07
 0.60520000E+02 -0.84416E+06
 0.60570000E+02 -0.62816E+06
 0.60620003E+02 -0.44140E+06
 0.60670002E+02 -0.43901E+06
 0.60720001E+02 -0.55561E+06
 0.60770000E+02 -0.60073E+06
 0.60820000E+02 -0.51027E+06
 0.60870003E+02 -0.43026E+06
 0.60920002E+02 -0.37028E+06
 0.60970001E+02 -0.41187E+06
 0.61020000E+02 -0.54184E+06
 0.61070004E+02 -0.62767E+06
 0.61119999E+02 -0.61402E+06
 0.61170002E+02 -0.32624E+06
 0.61220005E+02  0.60429E+05
 0.61270000E+02  0.31959E+06
 0.61320004E+02  0.55822E+06
 0.61369999E+02  0.76436E+06
 0.61420002E+02  0.80994E+06
 0.61470005E+02  0.71210E+06
 0.61520000E+02  0.65421E+06
 0.61570004E+02  0.67273E+06
 0.61619999E+02  0.65507E+06
 0.61670002E+02  0.64804E+06
 0.61720005E+02  0.57008E+06
 0.61770000E+02  0.30465E+06
 0.61820004E+02 -0.13262E+05
 0.61869999E+02 -0.32186E+06
 0.61920002E+02 -0.54097E+06
 0.61970005E+02 -0.66485E+06
 0.62020000E+02 -0.75209E+06
 0.62070004E+02 -0.78962E+06
 0.62119999E+02 -0.81084E+06
 0.62170002E+02 -0.83655E+06
 0.62220005E+02 -0.86479E+06
 0.62270000E+02 -0.79200E+06
 0.62320004E+02 -0.67457E+06
 0.62369999E+02 -0.54222E+06
 0.62420002E+02 -0.33442E+06
 0.62470005E+02 -0.16656E+06
 0.62520000E+02 -0.87363E+05
 0.62570004E+02 -0.92404E+05
 0.62619999E+02 -0.22149E+06
 0.62670002E+02 -0.47565E+06
 0.62720005E+02 -0.69857E+06
 0.62770000E+02 -0.82479E+06
 0.62820004E+02 -0.88890E+06
 0.62869999E+02 -0.84229E+06
 0.62920002E+02 -0.73334E+06
 0.62970005E+02 -0.61899E+06
 0.63020000E+02 -0.55576E+06
 0.63070004E+02 -0.62064E+06
 0.63119999E+02 -0.73977E+06
 0.63170002E+02 -0.80621E+06
 0.63220005E+02 -0.79283E+06
 0.63270000E+02 -0.72001E+06
 0.63320004E+02 -0.66354E+06
 0.63369999E+02 -0.56102E+06
 0.63420002E+02 -0.30834E+06
 0.63470005E+02  0.72600E+04
 0.63520000E+02  0.34701E+06
 0.63570004E+02  0.69122E+06
 0.63619999E+02  0.94544E+06
 0.63670002E+02  0.10314E+07
 0.63720005E+02  0.10264E+07
 0.63770000E+02  0.10750E+07
 0.63820004E+02  0.11080E+07
 0.63869999E+02  0.10581E+07
 0.63920002E+02  0.99133E+06
 0.63970005E+02  0.95306E+06
 0.64019997E+02  0.85504E+06
 0.64070000E+02  0.70568E+06
 0.64119995E+02  0.57564E+06
 0.64169998E+02  0.42249E+06
 0.64220001E+02  0.26595E+06
 0.64269997E+02  0.15252E+06
 0.64320000E+02  0.11358E+06
 0.64369995E+02  0.10292E+06
 0.64419998E+02  0.10482E+06
 0.64470001E+02  0.58797E+05
 0.64519997E+02 -0.97334E+05
 0.64570000E+02 -0.32561E+06
 0.64619995E+02 -0.61554E+06
 0.64669998E+02 -0.84070E+06
 0.64720001E+02 -0.92331E+06
 0.64769997E+02 -0.93199E+06
 0.64820000E+02 -0.90584E+06
 0.64869995E+02 -0.85178E+06
 0.64919998E+02 -0.79872E+06
 0.64970001E+02 -0.74252E+06
 0.65019997E+02 -0.72638E+06
 0.65070000E+02 -0.77266E+06
 0.65119995E+02 -0.85047E+06
 0.65169998E+02 -0.10011E+07
 0.65220001E+02 -0.11862E+07
 0.65269997E+02 -0.13124E+07
 0.65320000E+02 -0.12923E+07
 0.65369995E+02 -0.11198E+07
 0.65419998E+02 -0.86021E+06
 0.65470001E+02 -0.64940E+06
 0.65519997E+02 -0.59431E+06
 0.65570000E+02 -0.60624E+06
 0.65619995E+02 -0.59843E+06
 0.65669998E+02 -0.46769E+06
 0.65720001E+02 -0.19238E+06
 0.65769997E+02  0.85453E+05
 0.65820000E+02  0.30710E+06
 0.65869995E+02  0.45120E+06
 0.65919998E+02  0.45144E+06
 0.65970001E+02  0.36982E+06
 0.66019997E+02  0.33896E+06
 0.66070000E+02  0.37560E+06
 0.66119995E+02  0.47034E+06
 0.66169998E+02  0.65412E+06
 0.66220001E+02  0.90949E+06
 0.66269997E+02  0.11033E+07
 0.66320000E+02  0.12181E+07
 0.66369995E+02  0.13437E+07
 0.66419998E+02  0.13886E+07
 0.66470001E+02  0.12717E+07
 0.66519997E+02  0.10602E+07
 0.66570000E+02  0.85719E+06
 0.66619995E+02  0.70304E+06
 0.66669998E+02  0.55864E+06
 0.66720001E+02  0.41962E+06
 0.66769997E+02  0.28157E+06
 0.66820000E+02  0.11627E+06
 0.66869995E+02 -0.72712E+05
 0.66919998E+02 -0.25766E+06
 0.66970001E+02 -0.41776E+06
 0.67019997E+02 -0.51274E+06
 0.67070000E+02 -0.50920E+06
 0.67119995E+02 -0.41460E+06
 0.67169998E+02 -0.28298E+06
 0.67220001E+02 -0.18805E+06
 0.67269997E+02 -0.12468E+06
 0.67320000E+02 -0.66214E+05
 0.67369995E+02  0.11265E+05
 0.67419998E+02  0.51097E+05
 0.67470001E+02 -0.44465E+05
 0.67519997E+02 -0.25317E+06
 0.67570000E+02 -0.45672E+06
 0.67619995E+02 -0.57590E+06
 0.67669998E+02 -0.59332E+06
 0.67720001E+02 -0.50834E+06
 0.67769997E+02 -0.38974E+06
 0.67820000E+02 -0.25125E+06
 0.67869995E+02 -0.14807E+06
 0.67919998E+02 -0.10416E+06
 0.67970001E+02 -0.90127E+05
 0.68019997E+02 -0.12829E+06
 0.68070000E+02 -0.17471E+06
 0.68119995E+02 -0.24662E+06
 0.68169998E+02 -0.27424E+06
 0.68220001E+02 -0.24982E+06
 0.68269997E+02 -0.27326E+06
 0.68320000E+02 -0.35675E+06
 0.68369995E+02 -0.49624E+06
 0.68419998E+02 -0.58478E+06
 0.68470001E+02 -0.58304E+06
 0.68519997E+02 -0.49929E+06
 0.68570000E+02 -0.41097E+06
 0.68619995E+02 -0.35075E+06
 0.68669998E+02 -0.23711E+06
 0.68720001E+02 -0.13881E+06
 0.68769997E+02 -0.54800E+04
 0.68820000E+02  0.16294E+06
 0.68869995E+02  0.23238E+06
 0.68919998E+02  0.22901E+06
 0.68970001E+02  0.19884E+06
 0.69019997E+02  0.17652E+06
 0.69070000E+02  0.14042E+06
 0.69119995E+02  0.92389E+05
 0.69169998E+02  0.11104E+06
 0.69220001E+02  0.17484E+06
 0.69269997E+02  0.28509E+06
 0.69320000E+02  0.41841E+06
 0.69369995E+02  0.46000E+06
 0.69419998E+02  0.38580E+06
 0.69470001E+02  0.23553E+06
 0.69519997E+02  0.68649E+05
 0.69570000E+02 -0.16040E+06
 0.69619995E+02 -0.46751E+06
 0.69669998E+02 -0.73457E+06
 0.69720001E+02 -0.94671E+06
 0.69769997E+02 -0.10934E+07
 0.69820000E+02 -0.11409E+07
 0.69869995E+02 -0.10821E+07
 0.69919998E+02 -0.97529E+06
 0.69970001E+02 -0.97610E+06
 0.70019997E+02 -0.10794E+07
 0.70070000E+02 -0.11675E+07
 0.70119995E+02 -0.12426E+07
 0.70169998E+02 -0.13715E+07
 0.70220001E+02 -0.14977E+07
 0.70269997E+02 -0.15584E+07
 0.70320000E+02 -0.15809E+07
 0.70369995E+02 -0.15139E+07
 0.70419998E+02 -0.13030E+07
 0.70470001E+02 -0.97926E+06
 0.70519997E+02 -0.65866E+06
 0.70570000E+02 -0.44061E+06
 0.70619995E+02 -0.36331E+06
 0.70669998E+02 -0.38608E+06
 0.70720001E+02 -0.43568E+06
 0.70769997E+02 -0.51484E+06
 0.70820000E+02 -0.63412E+06
 0.70869995E+02 -0.74509E+06
 0.70919998E+02 -0.80136E+06
 0.70970001E+02 -0.84063E+06
 0.71019997E+02 -0.89388E+06
 0.71070000E+02 -0.99055E+06
 0.71119995E+02 -0.10543E+07
 0.71169998E+02 -0.99470E+06
 0.71220001E+02 -0.90827E+06
 0.71269997E+02 -0.83496E+06
 0.71320000E+02 -0.75722E+06
 0.71369995E+02 -0.65517E+06
 0.71419998E+02 -0.50420E+06
 0.71470001E+02 -0.39659E+06
 0.71519997E+02 -0.39576E+06
 0.71570000E+02 -0.42372E+06
 0.71619995E+02 -0.39941E+06
 0.71669998E+02 -0.33792E+06
 0.71720001E+02 -0.28095E+06
 0.71769997E+02 -0.26370E+06
 0.71820000E+02 -0.27498E+06
 0.71869995E+02 -0.27221E+06
 0.71919998E+02 -0.31361E+06
 0.71970001E+02 -0.43733E+06
 0.72019997E+02 -0.60370E+06
 0.72070000E+02 -0.74160E+06
 0.72119995E+02 -0.82480E+06
 0.72169998E+02 -0.88521E+06
 0.72220001E+02 -0.89205E+06
 0.72269997E+02 -0.84135E+06
 0.72320000E+02 -0.78315E+06
 0.72369995E+02 -0.79040E+06
 0.72419998E+02 -0.87067E+06
 0.72470001E+02 -0.97095E+06
 0.72519997E+02 -0.11004E+07
 0.72570000E+02 -0.11871E+07
 0.72619995E+02 -0.11674E+07
 0.72669998E+02 -0.10788E+07
 0.72720001E+02 -0.94942E+06
 0.72769997E+02 -0.83020E+06
 0.72820000E+02 -0.75089E+06
 0.72869995E+02 -0.70516E+06
 0.72919998E+02 -0.66602E+06
 0.72970001E+02 -0.63541E+06
 0.73019997E+02 -0.61998E+06
 0.73070000E+02 -0.59474E+06
 0.73119995E+02 -0.54265E+06
 0.73169998E+02 -0.47161E+06
 0.73220001E+02 -0.41709E+06
 0.73269997E+02 -0.38133E+06
 0.73320000E+02 -0.37049E+06
 0.73369995E+02 -0.35195E+06
 0.73419998E+02 -0.30790E+06
 0.73470001E+02 -0.26049E+06
 0.73519997E+02 -0.22648E+06
 0.73570000E+02 -0.20378E+06
 0.73619995E+02 -0.14080E+06
 0.73669998E+02 -0.10506E+06
 0.73720001E+02 -0.14863E+06
 0.73769997E+02 -0.21215E+06
 0.73820000E+02 -0.26494E+06
 0.73869995E+02 -0.28910E+06
 0.73919998E+02 -0.30953E+06
 0.73970001E+02 -0.33763E+06
 0.74019997E+02 -0.28810E+06
 0.74070000E+02 -0.15821E+06
 0.74119995E+02  0.79650E+04
 0.74169998E+02  0.22596E+06
 0.74220001E+02  0.42754E+06
 0.74269997E+02  0.56437E+06
 0.74320000E+02  0.64908E+06
 0.74369995E+02  0.67610E+06
 0.74419998E+02  0.62657E+06
 0.74470001E+02  0.50931E+06
 0.74519997E+02  0.35077E+06
 0.74570000E+02  0.16796E+06
 0.74619995E+02  0.13203E+05
 0.74669998E+02 -0.11573E+06
 0.74720001E+02 -0.26225E+06
 0.74769997E+02 -0.44521E+06
 0.74820000E+02 -0.61635E+06
 0.74869995E+02 -0.74354E+06
 0.74919998E+02 -0.85936E+06
 0.74970001E+02 -0.94923E+06
 0.75019997E+02 -0.10593E+07
 0.75070000E+02 -0.12194E+07
 0.75119995E+02 -0.13755E+07
 0.75169998E+02 -0.15324E+07
 0.75220001E+02 -0.17017E+07
 0.75269997E+02 -0.18252E+07
 0.75320000E+02 -0.18299E+07
 0.75369995E+02 -0.17097E+07
 0.75419998E+02 -0.15310E+07
 0.75470001E+02 -0.13436E+07
 0.75519997E+02 -0.11441E+07
 0.75570000E+02 -0.95053E+06
 0.75619995E+02 -0.77880E+06
 0.75669998E+02 -0.64046E+06
 0.75720001E+02 -0.56632E+06
 0.75769997E+02 -0.57538E+06
 0.75820000E+02 -0.60551E+06
 0.75869995E+02 -0.53192E+06
 0.75919998E+02 -0.35320E+06
 0.75970001E+02 -0.14367E+06
 0.76019997E+02  0.54883E+05
 0.76070000E+02  0.20439E+06
 0.76119995E+02  0.28489E+06
 0.76169998E+02  0.31932E+06
 0.76220001E+02  0.33168E+06
 0.76269997E+02  0.30933E+06
 0.76320000E+02  0.27534E+06
 0.76369995E+02  0.24234E+06
 0.76419998E+02  0.16396E+06
 0.76470001E+02  0.48149E+05
 0.76519997E+02 -0.94307E+05
 0.76570000E+02 -0.25729E+06
 0.76619995E+02 -0.36946E+06
 0.76669998E+02 -0.42432E+06
 0.76720001E+02 -0.43920E+06
 0.76769997E+02 -0.39890E+06
 0.76820000E+02 -0.32534E+06
 0.76869995E+02 -0.25108E+06
 0.76919998E+02 -0.22322E+06
 0.76970001E+02 -0.28416E+06
 0.77019997E+02 -0.41742E+06
 0.77070000E+02 -0.54718E+06
 0.77119995E+02 -0.64450E+06
 0.77169998E+02 -0.72468E+06
 0.77220001E+02 -0.74220E+06
 0.77269997E+02 -0.63263E+06
 0.77320000E+02 -0.41771E+06
 0.77369995E+02 -0.20455E+06
 0.77419998E+02 -0.79031E+05
 0.77470001E+02 -0.83470E+05
 0.77519997E+02 -0.18285E+06
 0.77570000E+02 -0.32225E+06
 0.77619995E+02 -0.46767E+06
 0.77669998E+02 -0.57042E+06
 0.77720001E+02 -0.61834E+06
 0.77769997E+02 -0.61448E+06
 0.77820000E+02 -0.56027E+06
 0.77869995E+02 -0.45462E+06
 0.77919998E+02 -0.35681E+06
 0.77970001E+02 -0.33711E+06
 0.78019997E+02 -0.41680E+06
 0.78070000E+02 -0.55693E+06
 0.78119995E+02 -0.65653E+06
 0.78169998E+02 -0.68883E+06
 0.78220001E+02 -0.70555E+06
 0.78269997E+02 -0.73640E+06
 0.78320000E+02 -0.75578E+06
 0.78369995E+02 -0.76174E+06
 0.78419998E+02 -0.77880E+06
 0.78470001E+02 -0.78965E+06
 0.78519997E+02 -0.75041E+06
 0.78570000E+02 -0.69635E+06
 0.78619995E+02 -0.67608E+06
 0.78669998E+02 -0.69363E+06
 0.78720001E+02 -0.79356E+06
 0.78769997E+02 -0.89382E+06
 0.78820000E+02 -0.90639E+06
 0.78869995E+02 -0.87367E+06
 0.78919998E+02 -0.79802E+06
 0.78970001E+02 -0.68082E+06
 0.79019997E+02 -0.55301E+06
 0.79070000E+02 -0.44503E+06
 0.79119995E+02 -0.37464E+06
 0.79169998E+02 -0.35817E+06
 0.79220001E+02 -0.40430E+06
 0.79269997E+02 -0.45081E+06
 0.79320000E+02 -0.46052E+06
 0.79369995E+02 -0.50896E+06
 0.79419998E+02 -0.60159E+06
 0.79470001E+02 -0.68073E+06
 0.79519997E+02 -0.74973E+06
 0.79570000E+02 -0.81388E+06
 0.79619995E+02 -0.85668E+06
 0.79669998E+02 -0.84779E+06
 0.79720001E+02 -0.80480E+06
 0.79769997E+02 -0.74722E+06
 0.79820000E+02 -0.70213E+06
 0.79869995E+02 -0.68418E+06
 0.79919998E+02 -0.64928E+06
 0.79970001E+02 -0.61142E+06
 0.80019997E+02 -0.57338E+06
 0.80070000E+02 -0.54693E+06
 0.80119995E+02 -0.55762E+06
 0.80169998E+02 -0.57482E+06
 0.80220001E+02 -0.59569E+06
 0.80269997E+02 -0.63586E+06
 0.80320000E+02 -0.69162E+06
 0.80369995E+02 -0.76584E+06
 0.80419998E+02 -0.86029E+06
 0.80470001E+02 -0.93758E+06
 0.80519997E+02 -0.97102E+06
 0.80570000E+02 -0.99389E+06
 0.80619995E+02 -0.10382E+07
 0.80669998E+02 -0.10754E+07
 0.80720001E+02 -0.11218E+07
 0.80769997E+02 -0.11892E+07
 0.80820000E+02 -0.12421E+07
 0.80869995E+02 -0.13061E+07
 0.80919998E+02 -0.13533E+07
 0.80970001E+02 -0.13574E+07
 0.81019997E+02 -0.13280E+07
 0.81070000E+02 -0.12521E+07
 0.81119995E+02 -0.11262E+07
 0.81169998E+02 -0.96346E+06
 0.81220001E+02 -0.82177E+06
 0.81269997E+02 -0.70522E+06
 0.81320000E+02 -0.60235E+06
 0.81369995E+02 -0.54130E+06
 0.81419998E+02 -0.52527E+06
 0.81470001E+02 -0.48626E+06
 0.81519997E+02 -0.39096E+06
 0.81570000E+02 -0.30115E+06
 0.81619995E+02 -0.21749E+06
 0.81669998E+02 -0.13658E+06
 0.81720001E+02 -0.66149E+05
 0.81769997E+02  0.93800E+03
 0.81820000E+02  0.41342E+05
 0.81869995E+02  0.66850E+05
 0.81919998E+02  0.10323E+06
 0.81970001E+02  0.13882E+06
 0.82019997E+02  0.14673E+06
 0.82070000E+02  0.11492E+06
 0.82119995E+02  0.61658E+05
 0.82169998E+02 -0.74370E+04
 0.82220001E+02 -0.10681E+06
 0.82269997E+02 -0.22210E+06
 0.82320000E+02 -0.34726E+06
 0.82369995E+02 -0.46772E+06
 0.82419998E+02 -0.55948E+06
 0.82470001E+02 -0.64687E+06
 0.82519997E+02 -0.74791E+06
 0.82570000E+02 -0.84876E+06
 0.82619995E+02 -0.94261E+06
 0.82669998E+02 -0.10454E+07
 0.82720001E+02 -0.11660E+07
 0.82769997E+02 -0.12894E+07
 0.82820000E+02 -0.14042E+07
 0.82869995E+02 -0.14719E+07
 0.82919998E+02 -0.14837E+07
 0.82970001E+02 -0.14921E+07
 0.83019997E+02 -0.15040E+07
 0.83070000E+02 -0.15258E+07
 0.83119995E+02 -0.15812E+07
 0.83169998E+02 -0.16551E+07
 0.83220001E+02 -0.16992E+07
 0.83269997E+02 -0.16884E+07
 0.83320000E+02 -0.16406E+07
 0.83369995E+02 -0.15312E+07
 0.83419998E+02 -0.13656E+07
 0.83470001E+02 -0.11962E+07
 0.83519997E+02 -0.10623E+07
 0.83570000E+02 -0.97214E+06
 0.83619995E+02 -0.90925E+06
 0.83669998E+02 -0.89036E+06
 0.83720001E+02 -0.90753E+06
 0.83769997E+02 -0.94862E+06
 0.83820000E+02 -0.97406E+06
 0.83869995E+02 -0.93838E+06
 0.83919998E+02 -0.85322E+06
 0.83970001E+02 -0.72151E+06
 0.84019997E+02 -0.59150E+06
 0.84070000E+02 -0.50476E+06
 0.84119995E+02 -0.44863E+06
 0.84169998E+02 -0.41466E+06
 0.84220001E+02 -0.39479E+06
 0.84269997E+02 -0.36914E+06
 0.84320000E+02 -0.32188E+06
 0.84369995E+02 -0.26979E+06
 0.84419998E+02 -0.24102E+06
 0.84470001E+02 -0.24564E+06
 0.84519997E+02 -0.26699E+06
 0.84570000E+02 -0.29217E+06
 0.84619995E+02 -0.29168E+06
 0.84669998E+02 -0.27106E+06
 0.84720001E+02 -0.29583E+06
 0.84769997E+02 -0.35410E+06
 0.84820000E+02 -0.39481E+06
 0.84869995E+02 -0.39665E+06
 0.84919998E+02 -0.38760E+06
 0.84970001E+02 -0.37328E+06
 0.85019997E+02 -0.33103E+06
 0.85070000E+02 -0.30921E+06
 0.85119995E+02 -0.31344E+06
 0.85169998E+02 -0.34286E+06
 0.85220001E+02 -0.41112E+06
 0.85269997E+02 -0.49037E+06
 0.85320000E+02 -0.59307E+06
 0.85369995E+02 -0.72084E+06
 0.85419998E+02 -0.83895E+06
 0.85470001E+02 -0.95980E+06
 0.85519997E+02 -0.10998E+07
 0.85570000E+02 -0.12530E+07
 0.85619995E+02 -0.13968E+07
 0.85669998E+02 -0.14587E+07
 0.85720001E+02 -0.14340E+07
 0.85769997E+02 -0.13559E+07
 0.85820000E+02 -0.12203E+07
 0.85869995E+02 -0.10595E+07
 0.85919998E+02 -0.93186E+06
 0.85970001E+02 -0.86541E+06
 0.86019997E+02 -0.81432E+06
 0.86070000E+02 -0.75745E+06
 0.86119995E+02 -0.72112E+06
 0.86169998E+02 -0.69634E+06
 0.86220001E+02 -0.68530E+06
 0.86269997E+02 -0.71576E+06
 0.86320000E+02 -0.78792E+06
 0.86369995E+02 -0.86041E+06
 0.86419998E+02 -0.91182E+06
 0.86470001E+02 -0.94347E+06
 0.86519997E+02 -0.93366E+06
 0.86570000E+02 -0.88426E+06
 0.86619995E+02 -0.82773E+06
 0.86669998E+02 -0.76969E+06
 0.86720001E+02 -0.70920E+06
 0.86769997E+02 -0.66084E+06
 0.86820000E+02 -0.62594E+06
 0.86869995E+02 -0.57113E+06
 0.86919998E+02 -0.49338E+06
 0.86970001E+02 -0.45386E+06
 0.87019997E+02 -0.49552E+06
 0.87070000E+02 -0.60106E+06
 0.87119995E+02 -0.71991E+06
 0.87169998E+02 -0.82495E+06
 0.87220001E+02 -0.90535E+06
 0.87269997E+02 -0.96733E+06
 0.87320000E+02 -0.10181E+07
 0.87369995E+02 -0.10461E+07
 0.87419998E+02 -0.10290E+07
 0.87470001E+02 -0.97364E+06
 0.87519997E+02 -0.90469E+06
 0.87570000E+02 -0.79875E+06
 0.87619995E+02 -0.66873E+06
 0.87669998E+02 -0.56516E+06
 0.87720001E+02 -0.53601E+06
 0.87769997E+02 -0.56819E+06
 0.87820000E+02 -0.63009E+06
 0.87869995E+02 -0.73959E+06
 0.87919998E+02 -0.86749E+06
 0.87970001E+02 -0.96782E+06
 0.88019997E+02 -0.99897E+06
 0.88070000E+02 -0.93894E+06
 0.88119995E+02 -0.83381E+06
 0.88169998E+02 -0.70612E+06
 0.88220001E+02 -0.56828E+06
 0.88269997E+02 -0.47624E+06
 0.88320000E+02 -0.43007E+06
 0.88369995E+02 -0.39416E+06
 0.88419998E+02 -0.34612E+06
 0.88470001E+02 -0.30979E+06
 0.88519997E+02 -0.31416E+06
 0.88570000E+02 -0.35680E+06
 0.88619995E+02 -0.43842E+06
 0.88669998E+02 -0.51979E+06
 0.88720001E+02 -0.59712E+06
 0.88769997E+02 -0.67238E+06
 0.88820000E+02 -0.72663E+06
 0.88869995E+02 -0.76156E+06
 0.88919998E+02 -0.77580E+06
 0.88970001E+02 -0.78462E+06
 0.89019997E+02 -0.80720E+06
 0.89070000E+02 -0.85172E+06
 0.89119995E+02 -0.88107E+06
 0.89169998E+02 -0.87497E+06
 0.89220001E+02 -0.85359E+06
 0.89269997E+02 -0.82500E+06
 0.89320000E+02 -0.80046E+06
 0.89369995E+02 -0.76220E+06
 0.89419998E+02 -0.70170E+06
 0.89470001E+02 -0.64110E+06
 0.89519997E+02 -0.59308E+06
 0.89570000E+02 -0.57382E+06
 0.89619995E+02 -0.56633E+06
 0.89669998E+02 -0.54109E+06
 0.89720001E+02 -0.51207E+06
 0.89769997E+02 -0.48968E+06
 0.89820000E+02 -0.46630E+06
 0.89869995E+02 -0.45580E+06
 0.89919998E+02 -0.48000E+06
 0.89970001E+02 -0.54932E+06
 0.90019997E+02 -0.63797E+06
 0.90070000E+02 -0.71356E+06
 0.90119995E+02 -0.77783E+06
 0.90169998E+02 -0.83620E+06
 0.90220001E+02 -0.89739E+06
 0.90269997E+02 -0.95320E+06
 0.90320000E+02 -0.98750E+06
 0.90369995E+02 -0.10018E+07
 0.90419998E+02 -0.10268E+07
 0.90470001E+02 -0.10677E+07
 0.90519997E+02 -0.10925E+07
 0.90570000E+02 -0.11034E+07
 0.90619995E+02 -0.11035E+07
 0.90669998E+02 -0.10846E+07
 0.90720001E+02 -0.10213E+07
 0.90769997E+02 -0.93004E+06
 0.90820000E+02 -0.86602E+06
 0.90869995E+02 -0.83576E+06
 0.90919998E+02 -0.81602E+06
 0.90970001E+02 -0.78154E+06
 0.91019997E+02 -0.76233E+06
 0.91070000E+02 -0.77137E+06
 0.91119995E+02 -0.77179E+06
 0.91169998E+02 -0.76449E+06
 0.91220001E+02 -0.75581E+06
 0.91269997E+02 -0.75535E+06
 0.91320000E+02 -0.76151E+06
 0.91369995E+02 -0.74602E+06
 0.91419998E+02 -0.72324E+06
 0.91470001E+02 -0.72175E+06
 0.91519997E+02 -0.74150E+06
 0.91570000E+02 -0.74651E+06
 0.91619995E+02 -0.71063E+06
 0.91669998E+02 -0.67490E+06
 0.91720001E+02 -0.66445E+06
 0.91769997E+02 -0.69248E+06
 0.91820000E+02 -0.74486E+06
 0.91869995E+02 -0.78654E+06
 0.91919998E+02 -0.84814E+06
 0.91970001E+02 -0.94772E+06
 0.92019997E+02 -0.10706E+07
 0.92070000E+02 -0.11791E+07
 0.92119995E+02 -0.12528E+07
 0.92169998E+02 -0.13057E+07
 0.92220001E+02 -0.13153E+07
 0.92269997E+02 -0.12912E+07
 0.92320000E+02 -0.12530E+07
 0.92369995E+02 -0.11952E+07
 0.92419998E+02 -0.11489E+07
 0.92470001E+02 -0.11264E+07
 0.92519997E+02 -0.11400E+07
 0.92570000E+02 -0.12049E+07
 0.92619995E+02 -0.12856E+07
 0.92669998E+02 -0.13446E+07
 0.92720001E+02 -0.13643E+07
 0.92769997E+02 -0.13661E+07
 0.92820000E+02 -0.13765E+07
 0.92869995E+02 -0.13787E+07
 0.92919998E+02 -0.13718E+07
 0.92970001E+02 -0.13540E+07
 0.93019997E+02 -0.13066E+07
 0.93070000E+02 -0.12328E+07
 0.93119995E+02 -0.11414E+07
 0.93169998E+02 -0.10627E+07
 0.93220001E+02 -0.10134E+07
 0.93269997E+02 -0.97887E+06
 0.93320000E+02 -0.94482E+06
 0.93369995E+02 -0.89175E+06
 0.93419998E+02 -0.82878E+06
 0.93470001E+02 -0.76593E+06
 0.93519997E+02 -0.68069E+06
 0.93570000E+02 -0.57112E+06
 0.93619995E+02 -0.46995E+06
 0.93669998E+02 -0.40161E+06
 0.93720001E+02 -0.37570E+06
 0.93769997E+02 -0.38963E+06
 0.93820000E+02 -0.41711E+06
 0.93869995E+02 -0.43130E+06
 0.93919998E+02 -0.43246E+06
 0.93970001E+02 -0.43536E+06
 0.94019997E+02 -0.44941E+06
 0.94070000E+02 -0.48464E+06
 0.94119995E+02 -0.53435E+06
 0.94169998E+02 -0.59426E+06
 0.94220001E+02 -0.65668E+06
 0.94269997E+02 -0.69586E+06
 0.94320000E+02 -0.71548E+06
 0.94369995E+02 -0.72330E+06
 0.94419998E+02 -0.71146E+06
 0.94470001E+02 -0.68481E+06
 0.94519997E+02 -0.66121E+06
 0.94570000E+02 -0.63260E+06
 0.94619995E+02 -0.61039E+06
 0.94669998E+02 -0.60409E+06
 0.94720001E+02 -0.57070E+06
 0.94769997E+02 -0.52633E+06
 0.94820000E+02 -0.48270E+06
 0.94869995E+02 -0.42317E+06
 0.94919998E+02 -0.37344E+06
 0.94970001E+02 -0.33946E+06
 0.95019997E+02 -0.31057E+06
 0.95070000E+02 -0.27700E+06
 0.95119995E+02 -0.24516E+06
 0.95169998E+02 -0.21910E+06
 0.95220001E+02 -0.17828E+06
 0.95269997E+02 -0.13161E+06
 0.95320000E+02 -0.10176E+06
 0.95369995E+02 -0.10294E+06
 0.95419998E+02 -0.12970E+06
 0.95470001E+02 -0.17787E+06
 0.95519997E+02 -0.25032E+06
 0.95570000E+02 -0.32430E+06
 0.95619995E+02 -0.39048E+06
 0.95669998E+02 -0.42250E+06
 0.95720001E+02 -0.40505E+06
 0.95769997E+02 -0.36521E+06
 0.95820000E+02 -0.34998E+06
 0.95869995E+02 -0.40337E+06
 0.95919998E+02 -0.50894E+06
 0.95970001E+02 -0.61319E+06
 0.96019997E+02 -0.67094E+06
 0.96070000E+02 -0.69031E+06
 0.96119995E+02 -0.70282E+06
 0.96169998E+02 -0.72994E+06
 0.96220001E+02 -0.77861E+06
 0.96269997E+02 -0.85183E+06
 0.96320000E+02 -0.94820E+06
 0.96369995E+02 -0.10420E+07
 0.96419998E+02 -0.11254E+07
 0.96470001E+02 -0.11963E+07
 0.96519997E+02 -0.12597E+07
 0.96570000E+02 -0.13367E+07
 0.96619995E+02 -0.14190E+07
 0.96669998E+02 -0.14930E+07
 0.96720001E+02 -0.15571E+07
 0.96769997E+02 -0.15858E+07
 0.96820000E+02 -0.16049E+07
 0.96869995E+02 -0.15989E+07
 0.96919998E+02 -0.15685E+07
 0.96970001E+02 -0.15676E+07
 0.97019997E+02 -0.15486E+07
 0.97070000E+02 -0.15203E+07
 0.97119995E+02 -0.14749E+07
 0.97169998E+02 -0.14106E+07
 0.97220001E+02 -0.13703E+07
 0.97269997E+02 -0.13654E+07
 0.97320000E+02 -0.13888E+07
 0.97369995E+02 -0.14707E+07
 0.97419998E+02 -0.16252E+07
 0.97470001E+02 -0.17638E+07
 0.97519997E+02 -0.18659E+07
 0.97570000E+02 -0.19176E+07
 0.97619995E+02 -0.19000E+07
 0.97669998E+02 -0.18364E+07
 0.97720001E+02 -0.17852E+07
 0.97769997E+02 -0.17388E+07
 0.97820000E+02 -0.16795E+07
 0.97869995E+02 -0.16492E+07
 0.97919998E+02 -0.16005E+07
 0.97970001E+02 -0.15208E+07
 0.98019997E+02 -0.14055E+07
 0.98070000E+02 -0.12826E+07
 0.98119995E+02 -0.11811E+07
 0.98169998E+02 -0.10931E+07
 0.98220001E+02 -0.10560E+07
 0.98269997E+02 -0.10372E+07
 0.98320000E+02 -0.10233E+07
 0.98369995E+02 -0.98054E+06
 0.98419998E+02 -0.88587E+06
 0.98470001E+02 -0.75955E+06
 0.98519997E+02 -0.62081E+06
 0.98570000E+02 -0.48768E+06
 0.98619995E+02 -0.34897E+06
 0.98669998E+02 -0.26468E+06
 0.98720001E+02 -0.21605E+06
 0.98769997E+02 -0.19225E+06
 0.98820000E+02 -0.19559E+06
 0.98869995E+02 -0.17172E+06
 0.98919998E+02 -0.13033E+06
 0.98970001E+02 -0.66771E+05
 0.99019997E+02 -0.15316E+05
 0.99070000E+02  0.30728E+05
 0.99119995E+02  0.52892E+05
 0.99169998E+02  0.55060E+04
 0.99220001E+02 -0.79380E+05
 0.99269997E+02 -0.17513E+06
 0.99320000E+02 -0.24319E+06
 0.99369995E+02 -0.31668E+06
 0.99419998E+02 -0.39738E+06
 0.99470001E+02 -0.45587E+06
 0.99519997E+02 -0.49300E+06
 0.99570000E+02 -0.52533E+06
 0.99619995E+02 -0.59614E+06
 0.99669998E+02 -0.67624E+06
 0.99720001E+02 -0.73136E+06
 0.99769997E+02 -0.76638E+06
 0.99820000E+02 -0.82219E+06
 0.99869995E+02 -0.89724E+06
 0.99919998E+02 -0.93777E+06
 0.99970001E+02 -0.95570E+06
 0.10002000E+03 -0.96782E+06
 0.10007000E+03 -0.96963E+06
 0.10012000E+03 -0.95424E+06
 0.10017000E+03 -0.91194E+06
 0.10022000E+03 -0.87435E+06
 0.10027000E+03 -0.87305E+06
 0.10032000E+03 -0.88064E+06
 0.10037000E+03 -0.86757E+06
 0.10042000E+03 -0.84550E+06
 0.10047000E+03 -0.83420E+06
 0.10052000E+03 -0.85084E+06
 0.10057000E+03 -0.88996E+06
 0.10062000E+03 -0.93396E+06
 0.10067000E+03 -0.96064E+06
 0.10072000E+03 -0.96426E+06
 0.10077000E+03 -0.95480E+06
 0.10082000E+03 -0.93605E+06
 0.10087000E+03 -0.92904E+06
 0.10092000E+03 -0.91289E+06
 0.10097000E+03 -0.88172E+06
 0.10102000E+03 -0.86611E+06
 0.10107000E+03 -0.86526E+06
 0.10112000E+03 -0.88448E+06
 0.10117000E+03 -0.92874E+06
 0.10122000E+03 -0.98146E+06
 0.10127000E+03 -0.10216E+07
 0.10132000E+03 -0.10455E+07
 0.10137000E+03 -0.10513E+07
 0.10142000E+03 -0.10346E+07
 0.10147000E+03 -0.10061E+07
 0.10152000E+03 -0.97431E+06
 0.10157000E+03 -0.94182E+06
 0.10162000E+03 -0.90831E+06
 0.10167000E+03 -0.87150E+06
 0.10172000E+03 -0.85690E+06
 0.10177000E+03 -0.88088E+06
 0.10182000E+03 -0.92766E+06
 0.10187000E+03 -0.97911E+06
 0.10192000E+03 -0.10277E+07
 0.10197000E+03 -0.10657E+07
 0.10202000E+03 -0.10752E+07
 0.10207000E+03 -0.10694E+07
 0.10212000E+03 -0.10497E+07
 0.10217000E+03 -0.10334E+07
 0.10222000E+03 -0.10577E+07
 0.10227000E+03 -0.11170E+07
 0.10232000E+03 -0.11946E+07
 0.10237000E+03 -0.12655E+07
 0.10242000E+03 -0.13137E+07
 0.10247000E+03 -0.13141E+07
 0.10252000E+03 -0.12749E+07
 0.10257000E+03 -0.12374E+07
 0.10262000E+03 -0.12174E+07
 0.10267000E+03 -0.12194E+07
 0.10272000E+03 -0.12208E+07
 0.10277000E+03 -0.12204E+07
 0.10282000E+03 -0.12190E+07
 0.10287000E+03 -0.12089E+07
 0.10292000E+03 -0.11950E+07
 0.10297000E+03 -0.11587E+07
 0.10302000E+03 -0.10943E+07
 0.10307000E+03 -0.10078E+07
 0.10312000E+03 -0.91297E+06
 0.10317000E+03 -0.81733E+06
 0.10322000E+03 -0.73430E+06
 0.10327000E+03 -0.69704E+06
 0.10332000E+03 -0.70188E+06
 0.10337000E+03 -0.73664E+06
 0.10342000E+03 -0.77777E+06
 0.10347000E+03 -0.79573E+06
 0.10352000E+03 -0.78396E+06
 0.10357000E+03 -0.74104E+06
 0.10362000E+03 -0.68561E+06
 0.10367000E+03 -0.63027E+06
 0.10372000E+03 -0.56370E+06
 0.10377000E+03 -0.48546E+06
 0.10382000E+03 -0.43111E+06
 0.10387000E+03 -0.42731E+06
 0.10392000E+03 -0.45426E+06
 0.10397000E+03 -0.48735E+06
 0.10402000E+03 -0.52025E+06
 0.10407000E+03 -0.55796E+06
 0.10412000E+03 -0.59501E+06
 0.10417000E+03 -0.60549E+06
 0.10422000E+03 -0.59575E+06
 0.10427000E+03 -0.59026E+06
 0.10432000E+03 -0.58172E+06
 0.10437000E+03 -0.55738E+06
 0.10442000E+03 -0.51536E+06
 0.10447000E+03 -0.47841E+06
 0.10452000E+03 -0.46629E+06
 0.10457000E+03 -0.48764E+06
 0.10462000E+03 -0.53962E+06
 0.10467000E+03 -0.60200E+06
 0.10472000E+03 -0.67959E+06
 0.10477000E+03 -0.76376E+06
 0.10482000E+03 -0.82947E+06
 0.10487000E+03 -0.86640E+06
 0.10492000E+03 -0.87944E+06
 0.10497000E+03 -0.89001E+06
 0.10502000E+03 -0.89977E+06
 0.10507000E+03 -0.90899E+06
 0.10512000E+03 -0.92579E+06
 0.10517000E+03 -0.95624E+06
 0.10522000E+03 -0.10013E+07
 0.10527000E+03 -0.10293E+07
 0.10532000E+03 -0.10279E+07
 0.10537000E+03 -0.99975E+06
 0.10542000E+03 -0.93474E+06
 0.10547000E+03 -0.84386E+06
 0.10552000E+03 -0.74591E+06
 0.10557000E+03 -0.66882E+06
 0.10562000E+03 -0.62382E+06
 0.10567000E+03 -0.60027E+06
 0.10572000E+03 -0.58649E+06
 0.10577000E+03 -0.54953E+06
 0.10582000E+03 -0.46778E+06
 0.10587000E+03 -0.36952E+06
 0.10592000E+03 -0.28131E+06
 0.10597000E+03 -0.21138E+06
 0.10602000E+03 -0.18061E+06
 0.10607000E+03 -0.19538E+06
 0.10612000E+03 -0.24843E+06
 0.10617000E+03 -0.32234E+06
 0.10622000E+03 -0.39443E+06
 0.10627000E+03 -0.45832E+06
 0.10632000E+03 -0.51506E+06
 0.10637000E+03 -0.56986E+06
 0.10642000E+03 -0.62266E+06
 0.10647000E+03 -0.67236E+06
 0.10652000E+03 -0.73342E+06
 0.10657000E+03 -0.80376E+06
 0.10662000E+03 -0.86530E+06
 0.10667000E+03 -0.92044E+06
 0.10672000E+03 -0.97069E+06
 0.10677000E+03 -0.10166E+07
 0.10682000E+03 -0.10560E+07
 0.10687000E+03 -0.10825E+07
 0.10692000E+03 -0.11023E+07
 0.10697000E+03 -0.11219E+07
 0.10702000E+03 -0.11469E+07
 0.10707000E+03 -0.11876E+07
 0.10712000E+03 -0.12487E+07
 0.10717000E+03 -0.13189E+07
 0.10722000E+03 -0.13828E+07
 0.10727000E+03 -0.14451E+07
 0.10732000E+03 -0.15158E+07
 0.10737000E+03 -0.15827E+07
 0.10742000E+03 -0.16326E+07
 0.10747000E+03 -0.16599E+07
 0.10752000E+03 -0.16624E+07
 0.10757000E+03 -0.16437E+07
 0.10762000E+03 -0.16143E+07
 0.10767000E+03 -0.15842E+07
 0.10772000E+03 -0.15562E+07
 0.10777000E+03 -0.15348E+07
 0.10782000E+03 -0.15117E+07
 0.10787000E+03 -0.14866E+07
 0.10792000E+03 -0.14598E+07
 0.10797000E+03 -0.14255E+07
 0.10802000E+03 -0.13804E+07
 0.10807000E+03 -0.13084E+07
 0.10812000E+03 -0.12202E+07
 0.10817000E+03 -0.11289E+07
 0.10822000E+03 -0.10350E+07
 0.10827000E+03 -0.95686E+06
 0.10832000E+03 -0.90187E+06
 0.10837000E+03 -0.86316E+06
 0.10842000E+03 -0.82169E+06
 0.10847000E+03 -0.76791E+06
 0.10852000E+03 -0.70533E+06
 0.10857000E+03 -0.64463E+06
 0.10862000E+03 -0.60896E+06
 0.10867000E+03 -0.59507E+06
 0.10872000E+03 -0.58965E+06
 0.10877000E+03 -0.59647E+06
 0.10882000E+03 -0.61207E+06
 0.10887000E+03 -0.62566E+06
 0.10892000E+03 -0.62008E+06
 0.10897000E+03 -0.57415E+06
 0.10902000E+03 -0.49812E+06
 0.10907000E+03 -0.42906E+06
 0.10912000E+03 -0.39168E+06
 0.10917000E+03 -0.39128E+06
 0.10922000E+03 -0.42490E+06
 0.10927000E+03 -0.47576E+06
 0.10932000E+03 -0.52426E+06
 0.10937000E+03 -0.56770E+06
 0.10942000E+03 -0.60954E+06
 0.10947000E+03 -0.65866E+06
 0.10952000E+03 -0.71844E+06
 0.10957000E+03 -0.78003E+06
 0.10962000E+03 -0.83230E+06
 0.10967000E+03 -0.86109E+06
 0.10972000E+03 -0.87010E+06
 0.10977000E+03 -0.88167E+06
 0.10982000E+03 -0.89959E+06
 0.10987000E+03 -0.92071E+06
 0.10992000E+03 -0.95582E+06
 0.10997000E+03 -0.10126E+07
 0.11002000E+03 -0.10823E+07
 0.11007000E+03 -0.11471E+07
 0.11012000E+03 -0.11922E+07
 0.11017000E+03 -0.12188E+07
 0.11022000E+03 -0.12278E+07
 0.11027000E+03 -0.12005E+07
 0.11032000E+03 -0.11316E+07
 0.11037000E+03 -0.10306E+07
 0.11042000E+03 -0.93107E+06
 0.11047000E+03 -0.86235E+06
 0.11052000E+03 -0.81681E+06
 0.11057000E+03 -0.78715E+06
 0.11062000E+03 -0.76571E+06
 0.11067000E+03 -0.75228E+06
 0.11072000E+03 -0.74588E+06
 0.11077000E+03 -0.74339E+06
 0.11082000E+03 -0.74816E+06
 0.11087000E+03 -0.75932E+06
 0.11092000E+03 -0.77583E+06
 0.11097000E+03 -0.79270E+06
 0.11102000E+03 -0.80812E+06
 0.11107000E+03 -0.81508E+06
 0.11112000E+03 -0.81304E+06
 0.11117000E+03 -0.81982E+06
 0.11122000E+03 -0.84417E+06
 0.11127000E+03 -0.87959E+06
 0.11132000E+03 -0.90973E+06
 0.11137000E+03 -0.92483E+06
 0.11142000E+03 -0.92495E+06
 0.11147000E+03 -0.91028E+06
 0.11152000E+03 -0.88650E+06
 0.11157000E+03 -0.86593E+06
 0.11162000E+03 -0.85411E+06
 0.11167000E+03 -0.85171E+06
 0.11172000E+03 -0.86156E+06
 0.11177000E+03 -0.86593E+06
 0.11182000E+03 -0.84914E+06
 0.11187000E+03 -0.82297E+06
 0.11192000E+03 -0.79716E+06
 0.11197000E+03 -0.76736E+06
 0.11202000E+03 -0.73016E+06
 0.11207000E+03 -0.68586E+06
 0.11212000E+03 -0.62814E+06
 0.11217000E+03 -0.56092E+06
 0.11222000E+03 -0.49225E+06
 0.11227000E+03 -0.42106E+06
 0.11232000E+03 -0.35586E+06
 0.11237000E+03 -0.31413E+06
 0.11242000E+03 -0.29943E+06
 0.11247000E+03 -0.29684E+06
 0.11252000E+03 -0.30455E+06
 0.11257000E+03 -0.32455E+06
 0.11262000E+03 -0.34203E+06
 0.11267000E+03 -0.35715E+06
 0.11272000E+03 -0.36723E+06
 0.11277000E+03 -0.36975E+06
 0.11282000E+03 -0.38051E+06
 0.11287000E+03 -0.40309E+06
 0.11292000E+03 -0.44916E+06
 0.11297000E+03 -0.51020E+06
 0.11302000E+03 -0.56471E+06
 0.11307000E+03 -0.61472E+06
 0.11312000E+03 -0.65319E+06
 0.11317000E+03 -0.68329E+06
 0.11322000E+03 -0.71582E+06
 0.11327000E+03 -0.74505E+06
 0.11332000E+03 -0.77190E+06
 0.11337000E+03 -0.81168E+06
 0.11342000E+03 -0.86600E+06
 0.11347000E+03 -0.93136E+06
 0.11352000E+03 -0.10101E+07
 0.11357000E+03 -0.10958E+07
 0.11362000E+03 -0.11708E+07
 0.11367000E+03 -0.12192E+07
 0.11372000E+03 -0.12403E+07
 0.11377000E+03 -0.12359E+07
 0.11382000E+03 -0.12189E+07
 0.11387000E+03 -0.12100E+07
 0.11392000E+03 -0.12192E+07
 0.11397000E+03 -0.12511E+07
 0.11402000E+03 -0.12995E+07
 0.11407000E+03 -0.13440E+07
 0.11412000E+03 -0.13755E+07
 0.11417000E+03 -0.13848E+07
 0.11422000E+03 -0.13763E+07
 0.11427000E+03 -0.13751E+07
 0.11432000E+03 -0.13825E+07
 0.11437000E+03 -0.13971E+07
 0.11442000E+03 -0.14072E+07
 0.11447000E+03 -0.14014E+07
 0.11452000E+03 -0.13874E+07
 0.11457000E+03 -0.13681E+07
 0.11462000E+03 -0.13385E+07
 0.11467000E+03 -0.12904E+07
 0.11472000E+03 -0.12322E+07
 0.11477000E+03 -0.11755E+07
 0.11482000E+03 -0.11243E+07
 0.11487000E+03 -0.10690E+07
 0.11492000E+03 -0.10177E+07
 0.11497000E+03 -0.97802E+06
 0.11502000E+03 -0.94583E+06
 0.11507000E+03 -0.93095E+06
 0.11512000E+03 -0.90858E+06
 0.11517000E+03 -0.87197E+06
 0.11522000E+03 -0.83009E+06
 0.11527000E+03 -0.79201E+06
 0.11532000E+03 -0.77307E+06
 0.11537000E+03 -0.77444E+06
 0.11542000E+03 -0.79651E+06
 0.11547000E+03 -0.82248E+06
 0.11552000E+03 -0.85299E+06
 0.11557000E+03 -0.88871E+06
 0.11562000E+03 -0.92169E+06
 0.11567000E+03 -0.94954E+06
 0.11572000E+03 -0.98094E+06
 0.11577000E+03 -0.10040E+07
 0.11582000E+03 -0.99881E+06
 0.11587000E+03 -0.98498E+06
 0.11592000E+03 -0.96954E+06
 0.11597000E+03 -0.95891E+06
 0.11602000E+03 -0.95750E+06
 0.11607000E+03 -0.97296E+06
 0.11612000E+03 -0.99620E+06
 0.11617000E+03 -0.10137E+07
 0.11622000E+03 -0.10286E+07
 0.11627000E+03 -0.10372E+07
 0.11632000E+03 -0.10445E+07
 0.11637000E+03 -0.10389E+07
 0.11642000E+03 -0.10292E+07
 0.11647000E+03 -0.10106E+07
 0.11652000E+03 -0.97298E+06
 0.11657000E+03 -0.92325E+06
 0.11662000E+03 -0.86196E+06
 0.11667000E+03 -0.80480E+06
 0.11672000E+03 -0.74517E+06
 0.11677000E+03 -0.68511E+06
 0.11682000E+03 -0.63171E+06
 0.11687000E+03 -0.58700E+06
 0.11692000E+03 -0.55356E+06
 0.11697000E+03 -0.53000E+06
 0.11702000E+03 -0.52458E+06
 0.11707000E+03 -0.53358E+06
 0.11712000E+03 -0.54652E+06
 0.11717000E+03 -0.55278E+06
 0.11722000E+03 -0.55698E+06
 0.11727000E+03 -0.57191E+06
 0.11732000E+03 -0.58906E+06
 0.11737000E+03 -0.59690E+06
 0.11742000E+03 -0.59386E+06
 0.11747000E+03 -0.57433E+06
 0.11752000E+03 -0.53882E+06
 0.11757000E+03 -0.49766E+06
 0.11762000E+03 -0.45080E+06
 0.11767000E+03 -0.39450E+06
 0.11772000E+03 -0.32929E+06
 0.11777000E+03 -0.26897E+06
 0.11782000E+03 -0.22915E+06
 0.11787000E+03 -0.20948E+06
 0.11792000E+03 -0.21213E+06
 0.11797000E+03 -0.22729E+06
 0.11802000E+03 -0.24753E+06
 0.11807000E+03 -0.27040E+06
 0.11812000E+03 -0.27871E+06
 0.11817000E+03 -0.27630E+06
 0.11822000E+03 -0.27750E+06
 0.11827000E+03 -0.29050E+06
 0.11832000E+03 -0.31997E+06
 0.11837000E+03 -0.36236E+06
 0.11842000E+03 -0.42153E+06
 0.11847000E+03 -0.49689E+06
 0.11852000E+03 -0.57444E+06
 0.11857000E+03 -0.65695E+06
 0.11862000E+03 -0.74890E+06
 0.11867000E+03 -0.84709E+06
 0.11872000E+03 -0.94542E+06
 0.11877000E+03 -0.10305E+07
 0.11882000E+03 -0.10971E+07
 0.11887000E+03 -0.11482E+07
 0.11892000E+03 -0.11945E+07
 0.11897000E+03 -0.12314E+07
 0.11902000E+03 -0.12497E+07
 0.11907000E+03 -0.12519E+07
 0.11912000E+03 -0.12423E+07
 0.11917000E+03 -0.12296E+07
 0.11922000E+03 -0.12151E+07
 0.11927000E+03 -0.11964E+07
 0.11932000E+03 -0.11660E+07
 0.11937000E+03 -0.11267E+07
 0.11942000E+03 -0.10840E+07
 0.11947000E+03 -0.10435E+07
 0.11952000E+03 -0.10169E+07
 0.11957000E+03 -0.10082E+07
 0.11962000E+03 -0.10202E+07
 0.11967000E+03 -0.10451E+07
 0.11972000E+03 -0.10664E+07
 0.11977000E+03 -0.10674E+07
 0.11982000E+03 -0.10447E+07
 0.11987000E+03 -0.10004E+07
 0.11992000E+03 -0.93446E+06
 0.11997000E+03 -0.86321E+06
 0.12002000E+03 -0.79801E+06
 0.12007000E+03 -0.74630E+06
 0.12012000E+03 -0.70996E+06
 0.12017000E+03 -0.68140E+06
 0.12022000E+03 -0.66291E+06
 0.12027000E+03 -0.65600E+06
 0.12032000E+03 -0.66051E+06
 0.12037000E+03 -0.66727E+06
 0.12042000E+03 -0.66608E+06
 0.12047000E+03 -0.66650E+06
 0.12052000E+03 -0.67646E+06
 0.12057000E+03 -0.69223E+06
 0.12062000E+03 -0.70679E+06
 0.12067000E+03 -0.72366E+06
 0.12072000E+03 -0.75566E+06
 0.12077000E+03 -0.80153E+06
 0.12082000E+03 -0.85436E+06
 0.12087000E+03 -0.90607E+06
 0.12092000E+03 -0.95057E+06
 0.12097000E+03 -0.98807E+06
 0.12102000E+03 -0.10050E+07
 0.12107000E+03 -0.10018E+07
 0.12112000E+03 -0.99718E+06
 0.12117000E+03 -0.99358E+06
 0.12122000E+03 -0.99604E+06
 0.12127000E+03 -0.10117E+07
 0.12132000E+03 -0.10329E+07
 0.12137000E+03 -0.10484E+07
 0.12142000E+03 -0.10511E+07
 0.12147000E+03 -0.10376E+07
 0.12152000E+03 -0.10069E+07
 0.12157000E+03 -0.96370E+06
 0.12162000E+03 -0.91696E+06
 0.12167000E+03 -0.86706E+06
 0.12172000E+03 -0.81399E+06
 0.12177000E+03 -0.76959E+06
 0.12182000E+03 -0.73628E+06
 0.12187000E+03 -0.71826E+06
 0.12192000E+03 -0.71436E+06
 0.12197000E+03 -0.71188E+06
 0.12202000E+03 -0.70494E+06
 0.12207000E+03 -0.68879E+06
 0.12212000E+03 -0.66911E+06
 0.12217000E+03 -0.65276E+06
 0.12222000E+03 -0.64923E+06
 0.12227000E+03 -0.65615E+06
 0.12232000E+03 -0.66314E+06
 0.12237000E+03 -0.67404E+06
 0.12242000E+03 -0.68733E+06
 0.12247000E+03 -0.70358E+06
 0.12252000E+03 -0.72540E+06
 0.12257000E+03 -0.75624E+06
 0.12262000E+03 -0.79193E+06
 0.12267000E+03 -0.83067E+06
 0.12272000E+03 -0.87191E+06
 0.12277000E+03 -0.89669E+06
 0.12282000E+03 -0.89882E+06
 0.12287000E+03 -0.88181E+06
 0.12292000E+03 -0.85178E+06
 0.12297000E+03 -0.81847E+06
 0.12302000E+03 -0.79322E+06
 0.12307000E+03 -0.78436E+06
 0.12312000E+03 -0.78793E+06
 0.12317000E+03 -0.79902E+06
 0.12322000E+03 -0.81202E+06
 0.12327000E+03 -0.82367E+06
 0.12332000E+03 -0.83884E+06
 0.12337000E+03 -0.85635E+06
 0.12342000E+03 -0.86780E+06
 0.12347000E+03 -0.87726E+06
 0.12352000E+03 -0.88853E+06
 0.12357000E+03 -0.89895E+06
 0.12362000E+03 -0.90746E+06
 0.12367000E+03 -0.91713E+06
 0.12372000E+03 -0.93502E+06
 0.12377000E+03 -0.96346E+06
 0.12382000E+03 -0.10035E+07
 0.12387000E+03 -0.10501E+07
 0.12392000E+03 -0.10959E+07
 0.12397000E+03 -0.11299E+07
 0.12402000E+03 -0.11391E+07
 0.12407000E+03 -0.11283E+07
 0.12412000E+03 -0.11064E+07
 0.12417000E+03 -0.10742E+07
 0.12422000E+03 -0.10396E+07
 0.12427000E+03 -0.10094E+07
 0.12432000E+03 -0.99072E+06
 0.12437000E+03 -0.99240E+06
 0.12442000E+03 -0.10072E+07
 0.12447000E+03 -0.10245E+07
 0.12452000E+03 -0.10270E+07
 0.12457000E+03 -0.10054E+07
 0.12462000E+03 -0.97307E+06
 0.12467000E+03 -0.93611E+06
 0.12472000E+03 -0.89838E+06
 0.12477000E+03 -0.86426E+06
 0.12482000E+03 -0.83608E+06
 0.12487000E+03 -0.81336E+06
 0.12492000E+03 -0.79615E+06
 0.12497000E+03 -0.78770E+06
 0.12502000E+03 -0.78913E+06
 0.12507000E+03 -0.80226E+06
 0.12512000E+03 -0.82213E+06
 0.12517001E+03 -0.83743E+06
 0.12521999E+03 -0.83490E+06
 0.12527000E+03 -0.81369E+06
 0.12532000E+03 -0.78396E+06
 0.12537000E+03 -0.75137E+06
 0.12542001E+03 -0.72115E+06
 0.12546999E+03 -0.70063E+06
 0.12552000E+03 -0.69230E+06
 0.12557000E+03 -0.68936E+06
 0.12562000E+03 -0.69090E+06
 0.12567001E+03 -0.68920E+06
 0.12571999E+03 -0.67462E+06
 0.12577000E+03 -0.64714E+06
 0.12582000E+03 -0.60929E+06
 0.12587000E+03 -0.56924E+06
 0.12592001E+03 -0.52560E+06
 0.12596999E+03 -0.47961E+06
 0.12602000E+03 -0.43352E+06
 0.12607000E+03 -0.38324E+06
 0.12612000E+03 -0.32804E+06
 0.12617001E+03 -0.27021E+06
 0.12621999E+03 -0.21638E+06
 0.12627000E+03 -0.17508E+06
 0.12632000E+03 -0.15208E+06
 0.12637000E+03 -0.14595E+06
 0.12642001E+03 -0.16143E+06
 0.12646999E+03 -0.20196E+06
 0.12652000E+03 -0.26008E+06
 0.12657000E+03 -0.32642E+06
 0.12662000E+03 -0.38971E+06
 0.12667001E+03 -0.44405E+06
 0.12671999E+03 -0.49339E+06
 0.12677000E+03 -0.54102E+06
 0.12682000E+03 -0.58615E+06
 0.12687000E+03 -0.62747E+06
 0.12692001E+03 -0.66237E+06
 0.12696999E+03 -0.68926E+06
 0.12702000E+03 -0.70730E+06
 0.12707000E+03 -0.72265E+06
 0.12712000E+03 -0.74273E+06
 0.12717001E+03 -0.76454E+06
 0.12721999E+03 -0.79041E+06
 0.12727000E+03 -0.82810E+06
 0.12732000E+03 -0.87506E+06
 0.12737000E+03 -0.92588E+06
 0.12742001E+03 -0.97127E+06
 0.12746999E+03 -0.10003E+07
 0.12752000E+03 -0.10147E+07
 0.12757000E+03 -0.10141E+07
 0.12762000E+03 -0.99761E+06
 0.12767001E+03 -0.97623E+06
 0.12771999E+03 -0.96085E+06
 0.12777000E+03 -0.95735E+06
 0.12782000E+03 -0.96597E+06
 0.12787000E+03 -0.97732E+06
 0.12792001E+03 -0.98569E+06
 0.12796999E+03 -0.99262E+06
 0.12802000E+03 -0.99608E+06
 0.12807001E+03 -0.99726E+06
 0.12812001E+03 -0.99876E+06
 0.12817001E+03 -0.10029E+07
 0.12822000E+03 -0.10092E+07
 0.12827000E+03 -0.10157E+07
 0.12832001E+03 -0.10207E+07
 0.12837001E+03 -0.10211E+07
 0.12842001E+03 -0.10185E+07
 0.12847000E+03 -0.10107E+07
 0.12852000E+03 -0.99906E+06
 0.12857001E+03 -0.98625E+06
 0.12862001E+03 -0.97269E+06
 0.12867001E+03 -0.96330E+06
 0.12872000E+03 -0.95794E+06
 0.12877000E+03 -0.95389E+06
 0.12882001E+03 -0.94472E+06
 0.12887001E+03 -0.92920E+06
 0.12892001E+03 -0.90893E+06
 0.12897000E+03 -0.88304E+06
 0.12902000E+03 -0.85338E+06
 0.12907001E+03 -0.81567E+06
 0.12912001E+03 -0.76907E+06
 0.12917001E+03 -0.71514E+06
 0.12922000E+03 -0.65792E+06
 0.12927000E+03 -0.60753E+06
 0.12932001E+03 -0.57040E+06
 0.12937001E+03 -0.54333E+06
 0.12942001E+03 -0.51614E+06
 0.12947000E+03 -0.48897E+06
 0.12952000E+03 -0.46619E+06
 0.12957001E+03 -0.44736E+06
 0.12962001E+03 -0.42664E+06
 0.12967001E+03 -0.39849E+06
 0.12972000E+03 -0.36596E+06
 0.12977000E+03 -0.32834E+06
 0.12982001E+03 -0.29196E+06
 0.12987001E+03 -0.27004E+06
 0.12992001E+03 -0.26947E+06
 0.12997000E+03 -0.29396E+06
 0.13002000E+03 -0.33710E+06
 0.13007001E+03 -0.39170E+06
 0.13012001E+03 -0.45026E+06
 0.13017001E+03 -0.50463E+06
 0.13022000E+03 -0.55422E+06
 0.13027000E+03 -0.60023E+06
 0.13032001E+03 -0.64547E+06
 0.13037001E+03 -0.68472E+06
 0.13042001E+03 -0.71643E+06
 0.13047000E+03 -0.74908E+06
 0.13052000E+03 -0.78088E+06
 0.13057001E+03 -0.81130E+06
 0.13062001E+03 -0.84217E+06
 0.13067001E+03 -0.86590E+06
 0.13072000E+03 -0.87999E+06
 0.13077000E+03 -0.89246E+06
 0.13082001E+03 -0.90804E+06
 0.13087001E+03 -0.92536E+06
 0.13092001E+03 -0.94115E+06
 0.13097000E+03 -0.95385E+06
 0.13102000E+03 -0.96402E+06
 0.13107001E+03 -0.96756E+06
 0.13112001E+03 -0.95892E+06
 0.13117001E+03 -0.93559E+06
 0.13122000E+03 -0.90208E+06
 0.13127000E+03 -0.86205E+06
 0.13132001E+03 -0.81480E+06
 0.13137001E+03 -0.76872E+06
 0.13142001E+03 -0.72988E+06
 0.13147000E+03 -0.69483E+06
 0.13152000E+03 -0.66140E+06
 0.13157001E+03 -0.63458E+06
 0.13162001E+03 -0.62175E+06
 0.13167001E+03 -0.62237E+06
 0.13172000E+03 -0.63119E+06
 0.13177000E+03 -0.64646E+06
 0.13182001E+03 -0.66628E+06
 0.13187001E+03 -0.68206E+06
 0.13192001E+03 -0.68609E+06
 0.13197000E+03 -0.68027E+06
 0.13202000E+03 -0.66937E+06
 0.13207001E+03 -0.65622E+06
 0.13212001E+03 -0.64993E+06
 0.13217001E+03 -0.65830E+06
 0.13222000E+03 -0.67942E+06
 0.13227000E+03 -0.71554E+06
 0.13232001E+03 -0.76582E+06
 0.13237001E+03 -0.81309E+06
 0.13242001E+03 -0.84356E+06
 0.13247000E+03 -0.85872E+06
 0.13252000E+03 -0.86311E+06
 0.13257001E+03 -0.86081E+06
 0.13262001E+03 -0.85706E+06
 0.13267001E+03 -0.85969E+06
 0.13272000E+03 -0.87236E+06
 0.13277000E+03 -0.89006E+06
 0.13282001E+03 -0.90729E+06
 0.13287001E+03 -0.91892E+06
 0.13292001E+03 -0.92017E+06
 0.13297000E+03 -0.90410E+06
 0.13302000E+03 -0.87080E+06
 0.13307001E+03 -0.83268E+06
 0.13312001E+03 -0.80201E+06
 0.13317001E+03 -0.78524E+06
 0.13322000E+03 -0.77940E+06
 0.13327000E+03 -0.77897E+06
 0.13332001E+03 -0.77880E+06
 0.13337001E+03 -0.76994E+06
 0.13342001E+03 -0.74878E+06
 0.13347000E+03 -0.72268E+06
 0.13352000E+03 -0.69837E+06
 0.13357001E+03 -0.67830E+06
 0.13362001E+03 -0.66566E+06
 0.13367001E+03 -0.66050E+06
 0.13372000E+03 -0.66223E+06
 0.13377000E+03 -0.66914E+06
 0.13382001E+03 -0.67240E+06
 0.13387001E+03 -0.66247E+06
 0.13392001E+03 -0.63856E+06
 0.13397000E+03 -0.60554E+06
 0.13402000E+03 -0.57210E+06
 0.13407001E+03 -0.54309E+06
 0.13412001E+03 -0.51659E+06
 0.13417001E+03 -0.49380E+06
 0.13422000E+03 -0.47401E+06
 0.13427000E+03 -0.45625E+06
 0.13432001E+03 -0.43914E+06
 0.13437001E+03 -0.42155E+06
 0.13442001E+03 -0.40569E+06
 0.13447000E+03 -0.39482E+06
 0.13452000E+03 -0.39154E+06
 0.13457001E+03 -0.39421E+06
 0.13462001E+03 -0.40708E+06
 0.13467001E+03 -0.43215E+06
 0.13472000E+03 -0.46769E+06
 0.13477000E+03 -0.51167E+06
 0.13482001E+03 -0.55654E+06
 0.13487001E+03 -0.60116E+06
 0.13492001E+03 -0.64190E+06
 0.13497000E+03 -0.67204E+06
 0.13502000E+03 -0.69163E+06
 0.13507001E+03 -0.70084E+06
 0.13512001E+03 -0.70126E+06
 0.13517001E+03 -0.70388E+06
 0.13522000E+03 -0.72026E+06
 0.13527000E+03 -0.74850E+06
 0.13532001E+03 -0.78348E+06
 0.13537001E+03 -0.82298E+06
 0.13542001E+03 -0.86434E+06
 0.13547000E+03 -0.89625E+06
 0.13552000E+03 -0.90708E+06
 0.13557001E+03 -0.89871E+06
 0.13562001E+03 -0.88024E+06
 0.13567001E+03 -0.86262E+06
 0.13572000E+03 -0.84850E+06
 0.13577000E+03 -0.83659E+06
 0.13582001E+03 -0.82178E+06
 0.13587001E+03 -0.79896E+06
 0.13592001E+03 -0.77439E+06
 0.13597000E+03 -0.75118E+06
 0.13602000E+03 -0.72538E+06
 0.13607001E+03 -0.69437E+06
 0.13612001E+03 -0.66080E+06
 0.13617001E+03 -0.62799E+06
 0.13622000E+03 -0.59791E+06
 0.13627000E+03 -0.57654E+06
 0.13632001E+03 -0.56497E+06
 0.13637001E+03 -0.55742E+06
 0.13642001E+03 -0.55805E+06
 0.13647000E+03 -0.56795E+06
 0.13652000E+03 -0.57879E+06
 0.13657001E+03 -0.59042E+06
 0.13662001E+03 -0.59626E+06
 0.13667001E+03 -0.59001E+06
 0.13672000E+03 -0.58120E+06
 0.13677000E+03 -0.57755E+06
 0.13682001E+03 -0.58363E+06
 0.13687001E+03 -0.60025E+06
 0.13692001E+03 -0.61956E+06
 0.13697000E+03 -0.63596E+06
 0.13702000E+03 -0.64562E+06
 0.13707001E+03 -0.64535E+06
 0.13712001E+03 -0.63660E+06
 0.13717001E+03 -0.62481E+06
 0.13722000E+03 -0.61987E+06
 0.13727000E+03 -0.62852E+06
 0.13732001E+03 -0.65422E+06
 0.13737001E+03 -0.69203E+06
 0.13742001E+03 -0.73002E+06
 0.13747000E+03 -0.76369E+06
 0.13752000E+03 -0.78890E+06
 0.13757001E+03 -0.80612E+06
 0.13762001E+03 -0.82405E+06
 0.13767001E+03 -0.84814E+06
 0.13772000E+03 -0.87169E+06
 0.13777000E+03 -0.88568E+06
 0.13782001E+03 -0.89564E+06
 0.13787001E+03 -0.91042E+06
 0.13792001E+03 -0.93054E+06
 0.13797000E+03 -0.94790E+06
 0.13802000E+03 -0.96025E+06
 0.13807001E+03 -0.97531E+06
 0.13812001E+03 -0.99330E+06
 0.13817001E+03 -0.10077E+07
 0.13822000E+03 -0.10160E+07
 0.13827000E+03 -0.10154E+07
 0.13832001E+03 -0.10035E+07
 0.13837001E+03 -0.98647E+06
 0.13842001E+03 -0.96441E+06
 0.13847000E+03 -0.93760E+06
 0.13852000E+03 -0.91137E+06
 0.13857001E+03 -0.88733E+06
 0.13862001E+03 -0.86572E+06
 0.13867001E+03 -0.84512E+06
 0.13872000E+03 -0.82418E+06
 0.13877000E+03 -0.79814E+06
 0.13882001E+03 -0.76816E+06
 0.13887001E+03 -0.74125E+06
 0.13892001E+03 -0.71950E+06
 0.13897000E+03 -0.69903E+06
 0.13902000E+03 -0.67695E+06
 0.13907001E+03 -0.65439E+06
 0.13912001E+03 -0.63066E+06
 0.13917001E+03 -0.60582E+06
 0.13922000E+03 -0.58082E+06
 0.13927000E+03 -0.55469E+06
 0.13932001E+03 -0.51959E+06
 0.13937001E+03 -0.47450E+06
 0.13942001E+03 -0.42792E+06
 0.13947000E+03 -0.38769E+06
 0.13952000E+03 -0.35774E+06
 0.13957001E+03 -0.33650E+06
 0.13962001E+03 -0.32115E+06
 0.13967001E+03 -0.30728E+06
 0.13972000E+03 -0.29898E+06
 0.13977000E+03 -0.29912E+06
 0.13982001E+03 -0.30614E+06
 0.13987001E+03 -0.31864E+06
 0.13992001E+03 -0.33212E+06
 0.13997000E+03 -0.35066E+06
 0.14002000E+03 -0.37256E+06
 0.14007001E+03 -0.39599E+06
 0.14012001E+03 -0.42629E+06
 0.14017001E+03 -0.46127E+06
 0.14022000E+03 -0.49920E+06
 0.14027000E+03 -0.53575E+06
 0.14032001E+03 -0.56825E+06
 0.14037001E+03 -0.60008E+06
 0.14042001E+03 -0.63504E+06
 0.14047000E+03 -0.67188E+06
 0.14052000E+03 -0.70596E+06
 0.14057001E+03 -0.73408E+06
 0.14062001E+03 -0.75832E+06
 0.14067001E+03 -0.78122E+06
 0.14072000E+03 -0.79738E+06
 0.14077000E+03 -0.81413E+06
 0.14082001E+03 -0.83384E+06
 0.14087001E+03 -0.85102E+06
 0.14092001E+03 -0.86601E+06
 0.14097000E+03 -0.87762E+06
 0.14102000E+03 -0.88772E+06
 0.14107001E+03 -0.89321E+06
 0.14112001E+03 -0.89863E+06
 0.14117001E+03 -0.90339E+06
 0.14122000E+03 -0.89990E+06
 0.14127000E+03 -0.88902E+06
 0.14132001E+03 -0.86819E+06
 0.14137001E+03 -0.84449E+06
 0.14142001E+03 -0.82558E+06
 0.14147000E+03 -0.81372E+06
 0.14152000E+03 -0.80781E+06
 0.14157001E+03 -0.79877E+06
 0.14162001E+03 -0.78696E+06
 0.14167001E+03 -0.77280E+06
 0.14172000E+03 -0.75512E+06
 0.14177000E+03 -0.73794E+06
 0.14182001E+03 -0.71964E+06
 0.14187001E+03 -0.69668E+06
 0.14192001E+03 -0.66754E+06
 0.14197000E+03 -0.63187E+06
 0.14202000E+03 -0.59235E+06
 0.14207001E+03 -0.55533E+06
 0.14212001E+03 -0.52859E+06
 0.14217001E+03 -0.51384E+06
 0.14222000E+03 -0.50912E+06
 0.14227000E+03 -0.51188E+06
 0.14232001E+03 -0.51328E+06
 0.14237001E+03 -0.51206E+06
 0.14242001E+03 -0.51132E+06
 0.14247000E+03 -0.50962E+06
 0.14252000E+03 -0.50917E+06
 0.14257001E+03 -0.50996E+06
 0.14262001E+03 -0.51563E+06
 0.14267001E+03 -0.52655E+06
 0.14272000E+03 -0.54532E+06
 0.14277000E+03 -0.57131E+06
 0.14282001E+03 -0.58806E+06
 0.14287001E+03 -0.59279E+06
 0.14292001E+03 -0.58621E+06
 0.14297000E+03 -0.56558E+06
 0.14302000E+03 -0.53776E+06
 0.14307001E+03 -0.51065E+06
 0.14312001E+03 -0.48683E+06
 0.14317001E+03 -0.47388E+06
 0.14322000E+03 -0.47754E+06
 0.14327000E+03 -0.49030E+06
 0.14332001E+03 -0.50394E+06
 0.14337001E+03 -0.51423E+06
 0.14342001E+03 -0.51604E+06
 0.14347000E+03 -0.50506E+06
 0.14352000E+03 -0.48404E+06
 0.14357001E+03 -0.45550E+06
 0.14362001E+03 -0.42622E+06
 0.14367001E+03 -0.40492E+06
 0.14372000E+03 -0.39816E+06
 0.14377000E+03 -0.40592E+06
 0.14382001E+03 -0.41910E+06
 0.14387001E+03 -0.43648E+06
 0.14392001E+03 -0.45861E+06
 0.14397000E+03 -0.48259E+06
 0.14402000E+03 -0.50504E+06
 0.14407001E+03 -0.52740E+06
 0.14412001E+03 -0.55220E+06
 0.14417001E+03 -0.57293E+06
 0.14422000E+03 -0.58875E+06
 0.14427000E+03 -0.60699E+06
 0.14432001E+03 -0.63184E+06
 0.14437001E+03 -0.66281E+06
 0.14442001E+03 -0.69771E+06
 0.14447000E+03 -0.73199E+06
 0.14452000E+03 -0.76510E+06
 0.14457001E+03 -0.80101E+06
 0.14462001E+03 -0.83345E+06
 0.14467001E+03 -0.85863E+06
 0.14472000E+03 -0.87891E+06
 0.14477000E+03 -0.89160E+06
 0.14482001E+03 -0.89634E+06
 0.14487001E+03 -0.89610E+06
 0.14492001E+03 -0.89573E+06
 0.14497000E+03 -0.89555E+06
 0.14502000E+03 -0.89360E+06
 0.14507001E+03 -0.89528E+06
 0.14512001E+03 -0.90249E+06
 0.14517001E+03 -0.90853E+06
 0.14522000E+03 -0.90774E+06
 0.14527000E+03 -0.89566E+06
 0.14532001E+03 -0.87333E+06
 0.14537001E+03 -0.84714E+06
 0.14542001E+03 -0.81408E+06
 0.14547000E+03 -0.77120E+06
 0.14552000E+03 -0.72013E+06
 0.14557001E+03 -0.66210E+06
 0.14562001E+03 -0.60352E+06
 0.14567001E+03 -0.54490E+06
 0.14572000E+03 -0.48676E+06
 0.14577000E+03 -0.43563E+06
 0.14582001E+03 -0.38982E+06
 0.14587001E+03 -0.34742E+06
 0.14592001E+03 -0.30800E+06
 0.14597000E+03 -0.26892E+06
 0.14602000E+03 -0.23470E+06
 0.14607001E+03 -0.20930E+06
 0.14612001E+03 -0.19266E+06
 0.14617001E+03 -0.18465E+06
 0.14622000E+03 -0.18080E+06
 0.14627000E+03 -0.17781E+06
 0.14632001E+03 -0.17400E+06
 0.14637001E+03 -0.16866E+06
 0.14642001E+03 -0.16116E+06
 0.14647000E+03 -0.15002E+06
 0.14652000E+03 -0.13898E+06
 0.14657001E+03 -0.13036E+06
 0.14662001E+03 -0.12455E+06
 0.14667001E+03 -0.12346E+06
 0.14672000E+03 -0.12728E+06
 0.14677000E+03 -0.13396E+06
 0.14682001E+03 -0.14519E+06
 0.14687001E+03 -0.16349E+06
 0.14692001E+03 -0.18701E+06
 0.14697000E+03 -0.21542E+06
 0.14702000E+03 -0.24718E+06
 0.14707001E+03 -0.28194E+06
 0.14712001E+03 -0.32031E+06
 0.14717001E+03 -0.35769E+06
 0.14722000E+03 -0.38954E+06
 0.14727000E+03 -0.41942E+06
 0.14732001E+03 -0.45062E+06
 0.14737001E+03 -0.48206E+06
 0.14742001E+03 -0.51355E+06
 0.14747000E+03 -0.54296E+06
 0.14752000E+03 -0.56961E+06
 0.14757001E+03 -0.59219E+06
 0.14762001E+03 -0.61438E+06
 0.14767001E+03 -0.64239E+06
 0.14772000E+03 -0.67344E+06
 0.14777000E+03 -0.70582E+06
 0.14782001E+03 -0.73931E+06
 0.14787001E+03 -0.77248E+06
 0.14792001E+03 -0.80348E+06
 0.14797000E+03 -0.83060E+06
 0.14802000E+03 -0.85321E+06
 0.14807001E+03 -0.86916E+06
 0.14812001E+03 -0.88197E+06
 0.14817001E+03 -0.89217E+06
 0.14822000E+03 -0.89494E+06
 0.14827000E+03 -0.89065E+06
 0.14832001E+03 -0.88197E+06
 0.14837001E+03 -0.87449E+06
 0.14842001E+03 -0.86921E+06
 0.14847000E+03 -0.86722E+06
 0.14852000E+03 -0.87074E+06
 0.14857001E+03 -0.87543E+06
 0.14862001E+03 -0.87655E+06
 0.14867001E+03 -0.87031E+06
 0.14872000E+03 -0.85919E+06
 0.14877000E+03 -0.84319E+06
 0.14882001E+03 -0.82210E+06
 0.14887001E+03 -0.79830E+06
 0.14892001E+03 -0.76969E+06
 0.14897000E+03 -0.73885E+06
 0.14902000E+03 -0.70812E+06
 0.14907001E+03 -0.67847E+06
 0.14912001E+03 -0.65300E+06
 0.14917001E+03 -0.63474E+06
 0.14922000E+03 -0.62450E+06
 0.14927000E+03 -0.61515E+06
 0.14932001E+03 -0.60157E+06
 0.14937001E+03 -0.58909E+06
 0.14942001E+03 -0.57880E+06
 0.14947000E+03 -0.56748E+06
 0.14952000E+03 -0.55337E+06
 0.14957001E+03 -0.53480E+06
 0.14962001E+03 -0.51885E+06
 0.14967001E+03 -0.50850E+06
 0.14972000E+03 -0.50157E+06
 0.14977000E+03 -0.48994E+06
 0.14982001E+03 -0.46830E+06
 0.14987001E+03 -0.43926E+06
 0.14992001E+03 -0.40342E+06
 0.14997000E+03 -0.37273E+06
