-0.29800000E+01  0.20437E+05
-0.29300001E+01  0.16172E+05
-0.28800001E+01  0.11347E+05
-0.28299999E+01  0.73860E+04
-0.27800000E+01  0.53040E+04
-0.27300000E+01  0.56730E+04
-0.26800001E+01  0.80370E+04
-0.26300001E+01  0.11395E+05
-0.25799999E+01  0.14922E+05
-0.25300000E+01  0.17280E+05
-0.24800000E+01  0.18129E+05
-0.24300001E+01  0.19110E+05
-0.23800001E+01  0.20610E+05
-0.23299999E+01  0.21398E+05
-0.22800000E+01  0.21214E+05
-0.22300000E+01  0.19325E+05
-0.21800001E+01  0.14193E+05
-0.21300001E+01  0.56480E+04
-0.20799999E+01 -0.39980E+04
-0.20300000E+01 -0.12094E+05
-0.19800000E+01 -0.17835E+05
-0.19299999E+01 -0.20811E+05
-0.18800000E+01 -0.21861E+05
-0.18300000E+01 -0.21964E+05
-0.17800000E+01 -0.20448E+05
-0.17300000E+01 -0.17743E+05
-0.16799999E+01 -0.14934E+05
-0.16300000E+01 -0.11967E+05
-0.15800000E+01 -0.74270E+04
-0.15300000E+01 -0.44600E+03
-0.14800000E+01  0.68770E+04
-0.14299999E+01  0.11935E+05
-0.13800000E+01  0.14636E+05
-0.13300000E+01  0.16769E+05
-0.12800000E+01  0.18239E+05
-0.12300000E+01  0.18289E+05
-0.11799999E+01  0.18867E+05
-0.11300000E+01  0.20889E+05
-0.10800000E+01  0.22314E+05
-0.10300000E+01  0.21496E+05
-0.98000002E+00  0.19534E+05
-0.93000007E+00  0.18661E+05
-0.87999988E+00  0.20217E+05
-0.82999992E+00  0.21865E+05
-0.77999997E+00  0.20425E+05
-0.73000002E+00  0.16709E+05
-0.68000007E+00  0.11683E+05
-0.62999988E+00  0.68040E+04
-0.57999992E+00  0.25990E+04
-0.52999997E+00 -0.19700E+04
-0.48000002E+00 -0.67220E+04
-0.43000007E+00 -0.11996E+05
-0.37999988E+00 -0.17162E+05
-0.32999992E+00 -0.21381E+05
-0.27999997E+00 -0.24444E+05
-0.23000002E+00 -0.25986E+05
-0.18000007E+00 -0.25332E+05
-0.12999988E+00 -0.22928E+05
-0.79999924E-01 -0.20060E+05
-0.29999971E-01 -0.15990E+05
 0.19999981E-01 -0.10799E+05
 0.69999933E-01 -0.59690E+04
 0.12000012E+00 -0.16650E+04
 0.17000008E+00  0.21450E+04
 0.22000003E+00  0.42460E+04
 0.26999998E+00  0.40650E+04
 0.31999993E+00  0.31280E+04
 0.37000012E+00  0.32700E+04
 0.42000008E+00  0.37550E+04
 0.47000003E+00  0.28180E+04
 0.51999998E+00  0.93100E+03
 0.56999993E+00 -0.13520E+04
 0.62000012E+00 -0.50060E+04
 0.67000008E+00 -0.94410E+04
 0.72000003E+00 -0.11970E+05
 0.76999998E+00 -0.12502E+05
 0.81999993E+00 -0.14171E+05
 0.87000012E+00 -0.19598E+05
 0.92000008E+00 -0.26921E+05
 0.97000003E+00 -0.32106E+05
 0.10200000E+01 -0.34603E+05
 0.10700002E+01 -0.36039E+05
 0.11199999E+01 -0.38057E+05
 0.11700001E+01 -0.39449E+05
 0.12200003E+01 -0.38345E+05
 0.12700000E+01 -0.36700E+05
 0.13200002E+01 -0.36057E+05
 0.13699999E+01 -0.34773E+05
 0.14200001E+01 -0.31545E+05
 0.14700003E+01 -0.27307E+05
 0.15200000E+01 -0.22813E+05
 0.15700002E+01 -0.19365E+05
 0.16199999E+01 -0.17884E+05
 0.16700001E+01 -0.16725E+05
 0.17200003E+01 -0.15420E+05
 0.17700000E+01 -0.15240E+05
 0.18200002E+01 -0.15479E+05
 0.18699999E+01 -0.14772E+05
 0.19200001E+01 -0.12722E+05
 0.19700003E+01 -0.86510E+04
 0.20200000E+01 -0.33390E+04
 0.20700002E+01  0.22500E+04
 0.21199999E+01  0.77310E+04
 0.21700001E+01  0.12604E+05
 0.22200003E+01  0.17568E+05
 0.22700000E+01  0.22452E+05
 0.23200002E+01  0.25186E+05
 0.23699999E+01  0.25201E+05
 0.24200001E+01  0.24745E+05
 0.24700003E+01  0.24809E+05
 0.25200000E+01  0.25082E+05
 0.25700002E+01  0.26221E+05
 0.26199999E+01  0.27896E+05
 0.26700001E+01  0.29070E+05
 0.27200003E+01  0.29076E+05
 0.27700000E+01  0.27738E+05
 0.28200002E+01  0.26177E+05
 0.28699999E+01  0.24560E+05
 0.29200001E+01  0.22559E+05
 0.29700003E+01  0.21040E+05
 0.30200000E+01  0.19678E+05
 0.30700002E+01  0.17269E+05
 0.31199999E+01  0.14554E+05
 0.31700001E+01  0.13812E+05
 0.32200003E+01  0.14717E+05
 0.32700000E+01  0.14566E+05
 0.33200002E+01  0.13694E+05
 0.33699999E+01  0.14958E+05
 0.34200001E+01  0.18132E+05
 0.34700003E+01  0.20600E+05
 0.35200000E+01  0.21218E+05
 0.35700002E+01  0.20172E+05
 0.36199999E+01  0.18565E+05
 0.36700001E+01  0.17735E+05
 0.37200003E+01  0.17365E+05
 0.37700000E+01  0.16590E+05
 0.38200002E+01  0.15446E+05
 0.38699999E+01  0.13927E+05
 0.39200001E+01  0.11273E+05
 0.39700003E+01  0.71310E+04
 0.40200000E+01  0.28840E+04
 0.40700002E+01 -0.15750E+04
 0.41199999E+01 -0.71440E+04
 0.41700001E+01 -0.11973E+05
 0.42200003E+01 -0.14301E+05
 0.42700000E+01 -0.14071E+05
 0.43200002E+01 -0.12836E+05
 0.43699999E+01 -0.12079E+05
 0.44200001E+01 -0.10801E+05
 0.44700003E+01 -0.79490E+04
 0.45200000E+01 -0.48780E+04
 0.45700002E+01 -0.20580E+04
 0.46199999E+01  0.15870E+04
 0.46700001E+01  0.49250E+04
 0.47200003E+01  0.68570E+04
 0.47700000E+01  0.65320E+04
 0.48200002E+01  0.55030E+04
 0.48699999E+01  0.67100E+04
 0.49200001E+01  0.81960E+04
 0.49700003E+01  0.94410E+04
 0.50200000E+01  0.11019E+05
 0.50700002E+01  0.12088E+05
 0.51200004E+01  0.12661E+05
 0.51700006E+01  0.12526E+05
 0.52199998E+01  0.12180E+05
 0.52700000E+01  0.11558E+05
 0.53200002E+01  0.10905E+05
 0.53700004E+01  0.99720E+04
 0.54200006E+01  0.78790E+04
 0.54699998E+01  0.49120E+04
 0.55200000E+01  0.20730E+04
 0.55700002E+01  0.13850E+04
 0.56200004E+01  0.27590E+04
 0.56700006E+01  0.34360E+04
 0.57199998E+01  0.22520E+04
 0.57700000E+01  0.96900E+03
 0.58200002E+01  0.82800E+03
 0.58700004E+01 -0.15600E+03
 0.59200006E+01 -0.29830E+04
 0.59699998E+01 -0.49660E+04
 0.60200000E+01 -0.53050E+04
 0.60700002E+01 -0.46230E+04
 0.61200004E+01 -0.37450E+04
 0.61700006E+01 -0.47180E+04
 0.62199998E+01 -0.63860E+04
 0.62700000E+01 -0.78640E+04
 0.63200002E+01 -0.90580E+04
 0.63700004E+01 -0.82610E+04
 0.64200006E+01 -0.73910E+04
 0.64699998E+01 -0.10540E+05
 0.65200000E+01 -0.17067E+05
 0.65700002E+01 -0.22693E+05
 0.66200004E+01 -0.25571E+05
 0.66700006E+01 -0.26767E+05
 0.67199998E+01 -0.27833E+05
 0.67700000E+01 -0.28793E+05
 0.68200002E+01 -0.29143E+05
 0.68700004E+01 -0.28964E+05
 0.69200006E+01 -0.28653E+05
 0.69699998E+01 -0.28219E+05
 0.70200000E+01 -0.26819E+05
 0.70700002E+01 -0.25197E+05
 0.71200004E+01 -0.24039E+05
 0.71700006E+01 -0.22480E+05
 0.72199998E+01 -0.19737E+05
 0.72700000E+01 -0.16725E+05
 0.73200002E+01 -0.14174E+05
 0.73700004E+01 -0.10312E+05
 0.74200006E+01 -0.58830E+04
 0.74699998E+01 -0.35660E+04
 0.75200000E+01 -0.36410E+04
 0.75700002E+01 -0.49520E+04
 0.76200004E+01 -0.62410E+04
 0.76700006E+01 -0.65990E+04
 0.77199998E+01 -0.60850E+04
 0.77700000E+01 -0.55200E+04
 0.78200002E+01 -0.52720E+04
 0.78700004E+01 -0.64010E+04
 0.79200006E+01 -0.80790E+04
 0.79699998E+01 -0.81370E+04
 0.80200005E+01 -0.89730E+04
 0.80699997E+01 -0.12223E+05
 0.81200008E+01 -0.15462E+05
 0.81700001E+01 -0.17483E+05
 0.82199993E+01 -0.18914E+05
 0.82700005E+01 -0.21214E+05
 0.83199997E+01 -0.24936E+05
 0.83700008E+01 -0.29289E+05
 0.84200001E+01 -0.34512E+05
 0.84699993E+01 -0.39784E+05
 0.85200005E+01 -0.42770E+05
 0.85699997E+01 -0.43542E+05
 0.86200008E+01 -0.43605E+05
 0.86700001E+01 -0.43011E+05
 0.87199993E+01 -0.41054E+05
 0.87700005E+01 -0.38666E+05
 0.88199997E+01 -0.36885E+05
 0.88700008E+01 -0.34995E+05
 0.89200001E+01 -0.32403E+05
 0.89699993E+01 -0.29273E+05
 0.90200005E+01 -0.26538E+05
 0.90699997E+01 -0.24330E+05
 0.91200008E+01 -0.21443E+05
 0.91700001E+01 -0.17943E+05
 0.92199993E+01 -0.15528E+05
 0.92700005E+01 -0.14395E+05
 0.93199997E+01 -0.12746E+05
 0.93700008E+01 -0.95490E+04
 0.94200001E+01 -0.54360E+04
 0.94699993E+01 -0.11890E+04
 0.95200005E+01  0.27230E+04
 0.95699997E+01  0.42440E+04
 0.96200008E+01  0.42270E+04
 0.96700001E+01  0.60830E+04
 0.97199993E+01  0.89330E+04
 0.97700005E+01  0.11763E+05
 0.98199997E+01  0.15275E+05
 0.98700008E+01  0.19728E+05
 0.99200001E+01  0.24943E+05
 0.99699993E+01  0.29463E+05
 0.10020000E+02  0.33675E+05
 0.10070000E+02  0.39195E+05
 0.10120001E+02  0.45154E+05
 0.10170000E+02  0.49814E+05
 0.10219999E+02  0.52150E+05
 0.10270000E+02  0.51906E+05
 0.10320000E+02  0.49726E+05
 0.10370001E+02  0.47759E+05
 0.10420000E+02  0.48547E+05
 0.10469999E+02  0.51909E+05
 0.10520000E+02  0.56639E+05
 0.10570000E+02  0.61365E+05
 0.10620001E+02  0.64742E+05
 0.10670000E+02  0.66834E+05
 0.10719999E+02  0.66752E+05
 0.10770000E+02  0.64741E+05
 0.10820000E+02  0.62159E+05
 0.10870001E+02  0.58601E+05
 0.10920000E+02  0.54786E+05
 0.10969999E+02  0.51178E+05
 0.11020000E+02  0.46830E+05
 0.11070000E+02  0.42193E+05
 0.11120001E+02  0.37873E+05
 0.11170000E+02  0.33772E+05
 0.11219999E+02  0.29719E+05
 0.11270000E+02  0.25552E+05
 0.11320000E+02  0.21829E+05
 0.11370001E+02  0.18955E+05
 0.11420000E+02  0.16278E+05
 0.11469999E+02  0.13048E+05
 0.11520000E+02  0.84130E+04
 0.11570000E+02  0.36910E+04
 0.11620001E+02  0.22270E+04
 0.11670000E+02  0.34340E+04
 0.11719999E+02  0.36430E+04
 0.11770000E+02  0.15990E+04
 0.11820000E+02 -0.23120E+04
 0.11870001E+02 -0.88670E+04
 0.11920000E+02 -0.17699E+05
 0.11969999E+02 -0.26910E+05
 0.12020000E+02 -0.34622E+05
 0.12070000E+02 -0.40278E+05
 0.12120001E+02 -0.45720E+05
 0.12170000E+02 -0.51372E+05
 0.12219999E+02 -0.55272E+05
 0.12270000E+02 -0.56614E+05
 0.12320000E+02 -0.57808E+05
 0.12370001E+02 -0.60104E+05
 0.12420000E+02 -0.61178E+05
 0.12469999E+02 -0.59370E+05
 0.12520000E+02 -0.54569E+05
 0.12570000E+02 -0.47487E+05
 0.12620001E+02 -0.38644E+05
 0.12670000E+02 -0.29523E+05
 0.12719999E+02 -0.21135E+05
 0.12770000E+02 -0.12362E+05
 0.12820000E+02 -0.34290E+04
 0.12870001E+02  0.51960E+04
 0.12920000E+02  0.12604E+05
 0.12969999E+02  0.17670E+05
 0.13020000E+02  0.21086E+05
 0.13070002E+02  0.23481E+05
 0.13120001E+02  0.25504E+05
 0.13170000E+02  0.27193E+05
 0.13220001E+02  0.26971E+05
 0.13270000E+02  0.25604E+05
 0.13320002E+02  0.25809E+05
 0.13370001E+02  0.26884E+05
 0.13420000E+02  0.27245E+05
 0.13470001E+02  0.27246E+05
 0.13520000E+02  0.26952E+05
 0.13570002E+02  0.26094E+05
 0.13620001E+02  0.24112E+05
 0.13670000E+02  0.20274E+05
 0.13720001E+02  0.15053E+05
 0.13770000E+02  0.92740E+04
 0.13820002E+02  0.38810E+04
 0.13870001E+02 -0.11000E+02
 0.13920000E+02 -0.25500E+04
 0.13970001E+02 -0.39030E+04
 0.14020000E+02 -0.38750E+04
 0.14070002E+02 -0.32140E+04
 0.14120001E+02 -0.44850E+04
 0.14170000E+02 -0.83890E+04
 0.14220001E+02 -0.12750E+05
 0.14270000E+02 -0.16482E+05
 0.14320002E+02 -0.18782E+05
 0.14370001E+02 -0.20131E+05
 0.14420000E+02 -0.21283E+05
 0.14470001E+02 -0.21407E+05
 0.14520000E+02 -0.19261E+05
 0.14570002E+02 -0.15244E+05
 0.14620001E+02 -0.12365E+05
 0.14670000E+02 -0.12467E+05
 0.14720001E+02 -0.15060E+05
 0.14770000E+02 -0.18578E+05
 0.14820002E+02 -0.22652E+05
 0.14870001E+02 -0.27505E+05
 0.14920000E+02 -0.31900E+05
 0.14970001E+02 -0.35141E+05
 0.15020000E+02 -0.37510E+05
 0.15070002E+02 -0.40061E+05
 0.15120001E+02 -0.42796E+05
 0.15170000E+02 -0.43911E+05
 0.15220001E+02 -0.44177E+05
 0.15270000E+02 -0.44685E+05
 0.15320002E+02 -0.44248E+05
 0.15370001E+02 -0.42348E+05
 0.15420000E+02 -0.39135E+05
 0.15470001E+02 -0.36158E+05
 0.15520000E+02 -0.33745E+05
 0.15570002E+02 -0.30629E+05
 0.15620001E+02 -0.26455E+05
 0.15670000E+02 -0.21881E+05
 0.15720001E+02 -0.17988E+05
 0.15770000E+02 -0.13971E+05
 0.15820002E+02 -0.10675E+05
 0.15870001E+02 -0.87580E+04
 0.15920000E+02 -0.77320E+04
 0.15970001E+02 -0.84880E+04
 0.16020000E+02 -0.97630E+04
 0.16070002E+02 -0.10520E+05
 0.16120001E+02 -0.98490E+04
 0.16170000E+02 -0.75900E+04
 0.16220001E+02 -0.59510E+04
 0.16270000E+02 -0.50350E+04
 0.16320002E+02 -0.30860E+04
 0.16370001E+02  0.36100E+03
 0.16420000E+02  0.42330E+04
 0.16470001E+02  0.74270E+04
 0.16520000E+02  0.93820E+04
 0.16570002E+02  0.10992E+05
 0.16620001E+02  0.13224E+05
 0.16670000E+02  0.16015E+05
 0.16720001E+02  0.19108E+05
 0.16770000E+02  0.22259E+05
 0.16820002E+02  0.24893E+05
 0.16870001E+02  0.25584E+05
 0.16920000E+02  0.25428E+05
 0.16970001E+02  0.25859E+05
 0.17020000E+02  0.26043E+05
 0.17070002E+02  0.25453E+05
 0.17120001E+02  0.23670E+05
 0.17170000E+02  0.21068E+05
 0.17220001E+02  0.18858E+05
 0.17270000E+02  0.17420E+05
 0.17320002E+02  0.15788E+05
 0.17370001E+02  0.13315E+05
 0.17420000E+02  0.10036E+05
 0.17470001E+02  0.67200E+04
 0.17520000E+02  0.47710E+04
 0.17570002E+02  0.41650E+04
 0.17620001E+02  0.48440E+04
 0.17670000E+02  0.74170E+04
 0.17720001E+02  0.11170E+05
 0.17770000E+02  0.14253E+05
 0.17820002E+02  0.15188E+05
 0.17870001E+02  0.14630E+05
 0.17920000E+02  0.14536E+05
 0.17970001E+02  0.15313E+05
 0.18020000E+02  0.15987E+05
 0.18070002E+02  0.15376E+05
 0.18120001E+02  0.13276E+05
 0.18170000E+02  0.10578E+05
 0.18220001E+02  0.78370E+04
 0.18270000E+02  0.70900E+04
 0.18320002E+02  0.91930E+04
 0.18370001E+02  0.11201E+05
 0.18420000E+02  0.11208E+05
 0.18470001E+02  0.92420E+04
 0.18520000E+02  0.67800E+04
 0.18570002E+02  0.56330E+04
 0.18620001E+02  0.52880E+04
 0.18670000E+02  0.49410E+04
 0.18720001E+02  0.45880E+04
 0.18770000E+02  0.41430E+04
 0.18820002E+02  0.40860E+04
 0.18870001E+02  0.47840E+04
 0.18920000E+02  0.56670E+04
 0.18970001E+02  0.59920E+04
 0.19020000E+02  0.58430E+04
 0.19070002E+02  0.60100E+04
 0.19120001E+02  0.68200E+04
 0.19170000E+02  0.72120E+04
 0.19220001E+02  0.67200E+04
 0.19270000E+02  0.58020E+04
 0.19320002E+02  0.42480E+04
 0.19370001E+02  0.27760E+04
 0.19420000E+02  0.11640E+04
 0.19470001E+02 -0.12510E+04
 0.19520000E+02 -0.30520E+04
 0.19570002E+02 -0.38570E+04
 0.19620001E+02 -0.46290E+04
 0.19670000E+02 -0.61900E+04
 0.19720001E+02 -0.79920E+04
 0.19770000E+02 -0.92150E+04
 0.19820002E+02 -0.10353E+05
 0.19870001E+02 -0.11693E+05
 0.19920000E+02 -0.13859E+05
 0.19970001E+02 -0.16378E+05
 0.20020000E+02 -0.18018E+05
 0.20070002E+02 -0.19293E+05
 0.20120001E+02 -0.20879E+05
 0.20170000E+02 -0.23129E+05
 0.20220001E+02 -0.25430E+05
 0.20270000E+02 -0.25999E+05
 0.20320002E+02 -0.24218E+05
 0.20370001E+02 -0.20318E+05
 0.20420000E+02 -0.15204E+05
 0.20470001E+02 -0.10613E+05
 0.20520000E+02 -0.65630E+04
 0.20570002E+02 -0.19940E+04
 0.20620001E+02  0.30090E+04
 0.20670000E+02  0.74970E+04
 0.20720001E+02  0.10819E+05
 0.20770000E+02  0.12275E+05
 0.20820002E+02  0.12077E+05
 0.20870001E+02  0.11041E+05
 0.20920000E+02  0.79720E+04
 0.20970001E+02  0.26850E+04
 0.21020000E+02 -0.35060E+04
 0.21070002E+02 -0.10160E+05
 0.21120001E+02 -0.16836E+05
 0.21170000E+02 -0.22356E+05
 0.21220001E+02 -0.25993E+05
 0.21270000E+02 -0.28880E+05
 0.21320002E+02 -0.31475E+05
 0.21370001E+02 -0.33062E+05
 0.21420000E+02 -0.34034E+05
 0.21470001E+02 -0.34184E+05
 0.21520000E+02 -0.32310E+05
 0.21570002E+02 -0.28946E+05
 0.21620001E+02 -0.24722E+05
 0.21670000E+02 -0.18648E+05
 0.21720001E+02 -0.11013E+05
 0.21770000E+02 -0.36510E+04
 0.21820002E+02  0.23130E+04
 0.21870001E+02  0.67700E+04
 0.21920000E+02  0.99590E+04
 0.21970001E+02  0.11777E+05
 0.22020000E+02  0.12309E+05
 0.22070002E+02  0.11728E+05
 0.22120001E+02  0.10796E+05
 0.22170000E+02  0.10917E+05
 0.22220001E+02  0.11256E+05
 0.22270000E+02  0.10799E+05
 0.22320002E+02  0.99670E+04
 0.22370001E+02  0.91480E+04
 0.22420000E+02  0.88650E+04
 0.22470001E+02  0.92050E+04
 0.22520000E+02  0.10545E+05
 0.22570002E+02  0.12786E+05
 0.22620001E+02  0.14654E+05
 0.22670000E+02  0.14949E+05
 0.22720001E+02  0.13480E+05
 0.22770000E+02  0.11803E+05
 0.22820002E+02  0.11306E+05
 0.22870001E+02  0.11619E+05
 0.22920000E+02  0.11716E+05
 0.22970001E+02  0.11435E+05
 0.23020000E+02  0.11539E+05
 0.23070002E+02  0.11683E+05
 0.23120001E+02  0.11482E+05
 0.23170000E+02  0.11225E+05
 0.23220001E+02  0.10494E+05
 0.23270000E+02  0.94100E+04
 0.23320002E+02  0.85080E+04
 0.23370001E+02  0.77170E+04
 0.23420000E+02  0.65490E+04
 0.23470001E+02  0.64320E+04
 0.23520000E+02  0.79610E+04
 0.23570002E+02  0.88400E+04
 0.23620001E+02  0.89500E+04
 0.23670000E+02  0.92320E+04
 0.23720001E+02  0.88770E+04
 0.23770000E+02  0.68520E+04
 0.23820002E+02  0.41110E+04
 0.23870001E+02  0.23280E+04
 0.23920000E+02  0.15450E+04
 0.23970001E+02  0.60800E+03
 0.24020000E+02 -0.10000E+04
 0.24070002E+02 -0.14390E+04
 0.24120001E+02  0.94000E+03
 0.24170000E+02  0.47500E+04
 0.24220001E+02  0.78340E+04
 0.24270000E+02  0.10005E+05
 0.24320002E+02  0.12257E+05
 0.24370001E+02  0.15363E+05
 0.24420000E+02  0.19433E+05
 0.24470001E+02  0.23653E+05
 0.24520000E+02  0.26490E+05
 0.24570002E+02  0.26942E+05
 0.24620001E+02  0.25113E+05
 0.24670000E+02  0.21778E+05
 0.24720001E+02  0.18324E+05
 0.24770000E+02  0.16061E+05
 0.24820002E+02  0.14722E+05
 0.24870001E+02  0.13027E+05
 0.24920000E+02  0.10507E+05
 0.24970001E+02  0.78340E+04
 0.25020000E+02  0.63360E+04
 0.25070002E+02  0.56030E+04
 0.25120001E+02  0.39710E+04
 0.25170000E+02  0.15620E+04
 0.25220001E+02 -0.10450E+04
 0.25270000E+02 -0.35460E+04
 0.25320002E+02 -0.49750E+04
 0.25370001E+02 -0.53960E+04
 0.25420000E+02 -0.53550E+04
 0.25470001E+02 -0.46320E+04
 0.25520000E+02 -0.32460E+04
 0.25570002E+02 -0.17760E+04
 0.25620001E+02 -0.68600E+03
 0.25670000E+02  0.34300E+03
 0.25720001E+02  0.11390E+04
 0.25770000E+02  0.16390E+04
 0.25820002E+02  0.15170E+04
 0.25870001E+02  0.74000E+02
 0.25920000E+02 -0.25850E+04
 0.25970001E+02 -0.63370E+04
 0.26020000E+02 -0.10264E+05
 0.26070002E+02 -0.13226E+05
 0.26120001E+02 -0.14734E+05
 0.26170000E+02 -0.15120E+05
 0.26220001E+02 -0.14561E+05
 0.26270000E+02 -0.13605E+05
 0.26320002E+02 -0.12705E+05
 0.26370001E+02 -0.11517E+05
 0.26420000E+02 -0.11136E+05
 0.26470001E+02 -0.11613E+05
 0.26520000E+02 -0.12171E+05
 0.26570002E+02 -0.13078E+05
 0.26620001E+02 -0.13772E+05
 0.26670000E+02 -0.13650E+05
 0.26720001E+02 -0.13279E+05
 0.26770000E+02 -0.13217E+05
 0.26820002E+02 -0.13071E+05
 0.26870001E+02 -0.12354E+05
 0.26920000E+02 -0.10931E+05
 0.26970001E+02 -0.87260E+04
 0.27020000E+02 -0.58380E+04
 0.27070002E+02 -0.32110E+04
 0.27120001E+02 -0.19030E+04
 0.27170000E+02 -0.19430E+04
 0.27220001E+02 -0.31230E+04
 0.27270000E+02 -0.48050E+04
 0.27320002E+02 -0.64600E+04
 0.27370001E+02 -0.80710E+04
 0.27420000E+02 -0.86480E+04
 0.27470001E+02 -0.76880E+04
 0.27520000E+02 -0.62380E+04
 0.27570002E+02 -0.51530E+04
 0.27620001E+02 -0.42020E+04
 0.27670000E+02 -0.31450E+04
 0.27720001E+02 -0.26750E+04
 0.27770000E+02 -0.23780E+04
 0.27820002E+02 -0.10280E+04
 0.27870001E+02  0.58000E+03
 0.27920000E+02  0.10390E+04
 0.27970001E+02 -0.11800E+03
 0.28020000E+02 -0.26840E+04
 0.28070002E+02 -0.52690E+04
 0.28120001E+02 -0.67910E+04
 0.28170000E+02 -0.74670E+04
 0.28220001E+02 -0.78940E+04
 0.28270000E+02 -0.84300E+04
 0.28320002E+02 -0.87640E+04
 0.28370001E+02 -0.87440E+04
 0.28420000E+02 -0.85480E+04
 0.28470001E+02 -0.88900E+04
 0.28520000E+02 -0.10089E+05
 0.28570002E+02 -0.10888E+05
 0.28620001E+02 -0.10990E+05
 0.28670000E+02 -0.11546E+05
 0.28720001E+02 -0.12857E+05
 0.28770000E+02 -0.14849E+05
 0.28820002E+02 -0.17230E+05
 0.28870001E+02 -0.18581E+05
 0.28920000E+02 -0.18160E+05
 0.28970001E+02 -0.17228E+05
 0.29020000E+02 -0.17030E+05
 0.29070000E+02 -0.16945E+05
 0.29120003E+02 -0.16384E+05
 0.29170002E+02 -0.15596E+05
 0.29220001E+02 -0.14690E+05
 0.29270000E+02 -0.14084E+05
 0.29320000E+02 -0.13793E+05
 0.29370003E+02 -0.12969E+05
 0.29420002E+02 -0.11165E+05
 0.29470001E+02 -0.87050E+04
 0.29520000E+02 -0.58240E+04
 0.29570000E+02 -0.33250E+04
 0.29620003E+02 -0.23810E+04
 0.29670002E+02 -0.24150E+04
 0.29720001E+02 -0.25580E+04
 0.29770000E+02 -0.30690E+04
 0.29820000E+02 -0.40800E+04
 0.29870003E+02 -0.58150E+04
 0.29920002E+02 -0.82160E+04
 0.29970001E+02 -0.11104E+05
 0.30020000E+02 -0.14707E+05
 0.30070000E+02 -0.18683E+05
 0.30120003E+02 -0.22826E+05
 0.30170002E+02 -0.27486E+05
 0.30220001E+02 -0.32847E+05
 0.30270000E+02 -0.37975E+05
 0.30320000E+02 -0.41607E+05
 0.30370003E+02 -0.44119E+05
 0.30420002E+02 -0.46370E+05
 0.30470001E+02 -0.48452E+05
 0.30520000E+02 -0.49593E+05
 0.30570000E+02 -0.48790E+05
 0.30620003E+02 -0.45653E+05
 0.30670002E+02 -0.40286E+05
 0.30720001E+02 -0.34014E+05
 0.30770000E+02 -0.28108E+05
 0.30820000E+02 -0.21727E+05
 0.30870003E+02 -0.13999E+05
 0.30920002E+02 -0.59190E+04
 0.30970001E+02  0.19890E+04
 0.31020000E+02  0.10332E+05
 0.31070000E+02  0.18987E+05
 0.31120003E+02  0.26837E+05
 0.31170002E+02  0.32917E+05
 0.31220001E+02  0.37606E+05
 0.31270000E+02  0.41482E+05
 0.31320000E+02  0.45139E+05
 0.31370003E+02  0.48546E+05
 0.31420002E+02  0.51267E+05
 0.31470001E+02  0.53258E+05
 0.31520000E+02  0.54149E+05
 0.31570000E+02  0.54162E+05
 0.31620003E+02  0.53361E+05
 0.31670002E+02  0.52636E+05
 0.31720001E+02  0.52005E+05
 0.31770000E+02  0.49993E+05
 0.31820000E+02  0.47324E+05
 0.31870003E+02  0.44608E+05
 0.31920002E+02  0.41459E+05
 0.31970001E+02  0.37694E+05
 0.32020000E+02  0.33004E+05
 0.32070000E+02  0.26933E+05
 0.32120003E+02  0.19478E+05
 0.32170002E+02  0.12748E+05
 0.32220001E+02  0.86070E+04
 0.32270000E+02  0.65850E+04
 0.32320000E+02  0.46070E+04
 0.32370003E+02  0.98700E+03
 0.32420002E+02 -0.25980E+04
 0.32470001E+02 -0.41040E+04
 0.32520000E+02 -0.39970E+04
 0.32570000E+02 -0.35810E+04
 0.32620003E+02 -0.41380E+04
 0.32670002E+02 -0.55410E+04
 0.32720001E+02 -0.63550E+04
 0.32770000E+02 -0.65370E+04
 0.32820000E+02 -0.70000E+04
 0.32870003E+02 -0.76000E+04
 0.32920002E+02 -0.83990E+04
 0.32970001E+02 -0.93770E+04
 0.33020000E+02 -0.87410E+04
 0.33070000E+02 -0.57770E+04
 0.33120003E+02 -0.23100E+04
 0.33170002E+02  0.22200E+03
 0.33220001E+02  0.18540E+04
 0.33270000E+02  0.36200E+04
 0.33320000E+02  0.61480E+04
 0.33370003E+02  0.82980E+04
 0.33420002E+02  0.93470E+04
 0.33470001E+02  0.10031E+05
 0.33520000E+02  0.10842E+05
 0.33570000E+02  0.11769E+05
 0.33620003E+02  0.12597E+05
 0.33670002E+02  0.12499E+05
 0.33720001E+02  0.10604E+05
 0.33770000E+02  0.72590E+04
 0.33820000E+02  0.36190E+04
 0.33870003E+02  0.52400E+03
 0.33920002E+02 -0.22310E+04
 0.33970001E+02 -0.52030E+04
 0.34020000E+02 -0.83860E+04
 0.34070000E+02 -0.11505E+05
 0.34120003E+02 -0.13664E+05
 0.34170002E+02 -0.14347E+05
 0.34220001E+02 -0.14279E+05
 0.34270000E+02 -0.13910E+05
 0.34320000E+02 -0.12935E+05
 0.34370003E+02 -0.11136E+05
 0.34420002E+02 -0.89040E+04
 0.34470001E+02 -0.64520E+04
 0.34520000E+02 -0.34870E+04
 0.34570000E+02  0.93000E+02
 0.34620003E+02  0.44660E+04
 0.34670002E+02  0.93750E+04
 0.34720001E+02  0.14380E+05
 0.34770000E+02  0.18958E+05
 0.34820000E+02  0.22122E+05
 0.34870003E+02  0.23595E+05
 0.34920002E+02  0.23370E+05
 0.34970001E+02  0.22715E+05
 0.35020000E+02  0.22964E+05
 0.35070000E+02  0.23048E+05
 0.35120003E+02  0.22354E+05
 0.35170002E+02  0.21241E+05
 0.35220001E+02  0.20703E+05
 0.35270000E+02  0.21734E+05
 0.35320000E+02  0.23114E+05
 0.35370003E+02  0.23275E+05
 0.35420002E+02  0.22434E+05
 0.35470001E+02  0.21484E+05
 0.35520000E+02  0.19914E+05
 0.35570000E+02  0.17366E+05
 0.35620003E+02  0.14705E+05
 0.35670002E+02  0.11976E+05
 0.35720001E+02  0.90050E+04
 0.35770000E+02  0.61080E+04
 0.35820000E+02  0.42100E+04
 0.35870003E+02  0.39050E+04
 0.35920002E+02  0.42140E+04
 0.35970001E+02  0.45580E+04
 0.36020000E+02  0.49400E+04
 0.36070000E+02  0.52820E+04
 0.36120003E+02  0.58590E+04
 0.36170002E+02  0.59050E+04
 0.36220001E+02  0.44350E+04
 0.36270000E+02  0.21490E+04
 0.36320000E+02 -0.73300E+03
 0.36370003E+02 -0.50270E+04
 0.36420002E+02 -0.10015E+05
 0.36470001E+02 -0.14986E+05
 0.36520000E+02 -0.19869E+05
 0.36570000E+02 -0.24067E+05
 0.36620003E+02 -0.27883E+05
 0.36670002E+02 -0.31633E+05
 0.36720001E+02 -0.34877E+05
 0.36770000E+02 -0.37404E+05
 0.36820000E+02 -0.39312E+05
 0.36870003E+02 -0.40920E+05
 0.36920002E+02 -0.42602E+05
 0.36970001E+02 -0.44016E+05
 0.37020000E+02 -0.44620E+05
 0.37070000E+02 -0.44586E+05
 0.37120003E+02 -0.43991E+05
 0.37170002E+02 -0.42341E+05
 0.37220001E+02 -0.39371E+05
 0.37270000E+02 -0.36066E+05
 0.37320000E+02 -0.32646E+05
 0.37370003E+02 -0.28134E+05
 0.37420002E+02 -0.22854E+05
 0.37470001E+02 -0.17207E+05
 0.37520000E+02 -0.10864E+05
 0.37570000E+02 -0.40730E+04
 0.37620003E+02  0.24760E+04
 0.37670002E+02  0.79280E+04
 0.37720001E+02  0.11745E+05
 0.37770000E+02  0.14528E+05
 0.37820000E+02  0.17132E+05
 0.37870003E+02  0.19473E+05
 0.37920002E+02  0.21059E+05
 0.37970001E+02  0.21555E+05
 0.38020000E+02  0.20456E+05
 0.38070000E+02  0.17387E+05
 0.38120003E+02  0.12944E+05
 0.38170002E+02  0.80330E+04
 0.38220001E+02  0.30070E+04
 0.38270000E+02 -0.21780E+04
 0.38320000E+02 -0.74420E+04
 0.38370003E+02 -0.12247E+05
 0.38420002E+02 -0.16581E+05
 0.38470001E+02 -0.20469E+05
 0.38520000E+02 -0.23493E+05
 0.38570000E+02 -0.25710E+05
 0.38620003E+02 -0.27370E+05
 0.38670002E+02 -0.28644E+05
 0.38720001E+02 -0.29155E+05
 0.38770000E+02 -0.28564E+05
 0.38820000E+02 -0.27142E+05
 0.38870003E+02 -0.25080E+05
 0.38920002E+02 -0.22385E+05
 0.38970001E+02 -0.18801E+05
 0.39020000E+02 -0.15044E+05
 0.39070000E+02 -0.12234E+05
 0.39120003E+02 -0.10360E+05
 0.39170002E+02 -0.93340E+04
 0.39220001E+02 -0.88100E+04
 0.39270000E+02 -0.78210E+04
 0.39320000E+02 -0.55960E+04
 0.39370003E+02 -0.26480E+04
 0.39420002E+02 -0.51400E+03
 0.39470001E+02 -0.78200E+03
 0.39520000E+02 -0.38370E+04
 0.39570000E+02 -0.83150E+04
 0.39620003E+02 -0.12897E+05
 0.39670002E+02 -0.17110E+05
 0.39720001E+02 -0.21161E+05
 0.39770000E+02 -0.24319E+05
 0.39820000E+02 -0.25669E+05
 0.39870003E+02 -0.26146E+05
 0.39920002E+02 -0.26511E+05
 0.39970001E+02 -0.26901E+05
 0.40020000E+02 -0.27333E+05
 0.40070000E+02 -0.27340E+05
 0.40120003E+02 -0.26778E+05
 0.40170002E+02 -0.25811E+05
 0.40220001E+02 -0.24172E+05
 0.40270000E+02 -0.21491E+05
 0.40320000E+02 -0.18361E+05
 0.40370003E+02 -0.15811E+05
 0.40420002E+02 -0.13194E+05
 0.40470001E+02 -0.91680E+04
 0.40520000E+02 -0.36790E+04
 0.40570000E+02  0.25840E+04
 0.40620003E+02  0.90440E+04
 0.40670002E+02  0.15201E+05
 0.40720001E+02  0.20097E+05
 0.40770000E+02  0.23533E+05
 0.40820000E+02  0.26102E+05
 0.40870003E+02  0.28459E+05
 0.40920002E+02  0.31256E+05
 0.40970001E+02  0.34199E+05
 0.41020000E+02  0.37333E+05
 0.41070000E+02  0.40592E+05
 0.41120003E+02  0.42963E+05
 0.41170002E+02  0.43678E+05
 0.41220001E+02  0.42852E+05
 0.41270000E+02  0.41312E+05
 0.41320000E+02  0.39292E+05
 0.41370003E+02  0.37228E+05
 0.41420002E+02  0.35778E+05
 0.41470001E+02  0.34511E+05
 0.41520000E+02  0.32957E+05
 0.41570000E+02  0.31349E+05
 0.41620003E+02  0.29880E+05
 0.41670002E+02  0.28445E+05
 0.41720001E+02  0.26552E+05
 0.41770000E+02  0.24557E+05
 0.41820000E+02  0.23557E+05
 0.41870003E+02  0.23336E+05
 0.41920002E+02  0.23408E+05
 0.41970001E+02  0.23755E+05
 0.42020000E+02  0.24069E+05
 0.42070000E+02  0.23774E+05
 0.42120003E+02  0.23458E+05
 0.42170002E+02  0.23483E+05
 0.42220001E+02  0.23009E+05
 0.42270000E+02  0.21731E+05
 0.42320000E+02  0.19278E+05
 0.42370003E+02  0.16273E+05
 0.42420002E+02  0.13308E+05
 0.42470001E+02  0.10299E+05
 0.42520000E+02  0.73140E+04
 0.42570000E+02  0.37820E+04
 0.42620003E+02 -0.27600E+03
 0.42670002E+02 -0.46220E+04
 0.42720001E+02 -0.89260E+04
 0.42770000E+02 -0.13027E+05
 0.42820000E+02 -0.16973E+05
 0.42870003E+02 -0.20091E+05
 0.42920002E+02 -0.22153E+05
 0.42970001E+02 -0.23063E+05
 0.43020000E+02 -0.23197E+05
 0.43070000E+02 -0.23341E+05
 0.43120003E+02 -0.23069E+05
 0.43170002E+02 -0.22101E+05
 0.43220001E+02 -0.20656E+05
 0.43270000E+02 -0.18149E+05
 0.43320000E+02 -0.14449E+05
 0.43370003E+02 -0.99320E+04
 0.43420002E+02 -0.58430E+04
 0.43470001E+02 -0.29030E+04
 0.43520000E+02  0.12870E+04
 0.43570000E+02  0.65600E+04
 0.43620003E+02  0.11677E+05
 0.43670002E+02  0.13490E+05
 0.43720001E+02  0.13376E+05
 0.43770000E+02  0.18061E+05
 0.43820000E+02  0.24294E+05
 0.43870003E+02  0.27148E+05
 0.43920002E+02  0.24942E+05
 0.43970001E+02  0.22417E+05
 0.44020000E+02  0.18969E+05
 0.44070000E+02  0.13053E+05
 0.44120003E+02  0.82750E+04
 0.44170002E+02  0.13970E+04
 0.44220001E+02  0.14260E+04
 0.44270000E+02  0.50420E+04
 0.44320000E+02 -0.37800E+03
 0.44370003E+02 -0.69000E+02
 0.44420002E+02  0.23630E+04
 0.44470001E+02  0.13240E+04
 0.44520000E+02  0.82270E+04
 0.44570000E+02  0.11147E+05
 0.44620003E+02  0.97380E+04
 0.44670002E+02  0.10582E+05
 0.44720001E+02  0.84990E+04
 0.44770000E+02 -0.12130E+04
 0.44820000E+02 -0.74000E+03
 0.44870003E+02  0.11070E+04
 0.44920002E+02 -0.11439E+05
 0.44970001E+02 -0.12438E+05
 0.45020000E+02 -0.18587E+05
 0.45070000E+02 -0.21986E+05
 0.45120003E+02 -0.16876E+05
 0.45170002E+02 -0.19695E+05
 0.45220001E+02 -0.14786E+05
 0.45270000E+02 -0.13300E+05
 0.45320000E+02 -0.17254E+05
 0.45370003E+02 -0.15646E+05
 0.45420002E+02 -0.20453E+05
 0.45470001E+02 -0.26018E+05
 0.45520000E+02 -0.24481E+05
 0.45570000E+02 -0.33890E+05
 0.45620003E+02 -0.31087E+05
 0.45670002E+02 -0.29576E+05
 0.45720001E+02 -0.35602E+05
 0.45770000E+02 -0.25575E+05
 0.45820000E+02 -0.29463E+05
 0.45870003E+02 -0.30514E+05
 0.45920002E+02 -0.17760E+05
 0.45970001E+02 -0.89860E+04
 0.46020000E+02 -0.95740E+04
 0.46070000E+02 -0.42640E+04
 0.46120003E+02  0.32060E+04
 0.46170002E+02  0.33500E+04
 0.46220001E+02  0.73380E+04
 0.46270000E+02  0.45510E+04
 0.46320000E+02  0.18190E+04
 0.46370003E+02  0.44930E+04
 0.46420002E+02  0.98060E+04
 0.46470001E+02  0.33650E+04
 0.46520000E+02 -0.43760E+04
 0.46570000E+02  0.29100E+03
 0.46620003E+02 -0.76300E+03
 0.46670002E+02 -0.69510E+04
 0.46720001E+02 -0.93530E+04
 0.46770000E+02 -0.85330E+04
 0.46820000E+02 -0.93590E+04
 0.46870003E+02  0.68400E+03
 0.46920002E+02  0.59550E+04
 0.46970001E+02  0.30390E+04
 0.47020000E+02  0.11770E+05
 0.47070000E+02  0.15652E+05
 0.47120003E+02  0.17442E+05
 0.47170002E+02  0.17251E+05
 0.47220001E+02  0.91290E+04
 0.47270000E+02  0.12418E+05
 0.47320000E+02  0.18752E+05
 0.47370003E+02  0.17279E+05
 0.47420002E+02  0.13049E+05
 0.47470001E+02  0.41640E+04
 0.47520000E+02  0.29800E+03
 0.47570000E+02 -0.11142E+05
 0.47620003E+02 -0.24827E+05
 0.47670002E+02 -0.18498E+05
 0.47720001E+02 -0.11389E+05
 0.47770000E+02 -0.77650E+04
 0.47820000E+02 -0.52800E+04
 0.47870003E+02 -0.96990E+04
 0.47920002E+02 -0.17532E+05
 0.47970001E+02 -0.27601E+05
 0.48020000E+02 -0.32760E+05
 0.48070000E+02 -0.26717E+05
 0.48120003E+02 -0.29844E+05
 0.48170002E+02 -0.39150E+05
 0.48220001E+02 -0.38291E+05
 0.48270000E+02 -0.33784E+05
 0.48320000E+02 -0.26291E+05
 0.48370003E+02 -0.29430E+05
 0.48420002E+02 -0.22340E+05
 0.48470001E+02 -0.39980E+04
 0.48520000E+02  0.88740E+04
 0.48570000E+02  0.31179E+05
 0.48620003E+02  0.41671E+05
 0.48670002E+02  0.40417E+05
 0.48720001E+02  0.42252E+05
 0.48770000E+02  0.55906E+05
 0.48820000E+02  0.65439E+05
 0.48870003E+02  0.60944E+05
 0.48920002E+02  0.70156E+05
 0.48970001E+02  0.73082E+05
 0.49020000E+02  0.66812E+05
 0.49070000E+02  0.66140E+05
 0.49120003E+02  0.66570E+05
 0.49170002E+02  0.75553E+05
 0.49220001E+02  0.77261E+05
 0.49270000E+02  0.73197E+05
 0.49320000E+02  0.74760E+05
 0.49370003E+02  0.74311E+05
 0.49420002E+02  0.66921E+05
 0.49470001E+02  0.70874E+05
 0.49520000E+02  0.94168E+05
 0.49570000E+02  0.93955E+05
 0.49620003E+02  0.93242E+05
 0.49670002E+02  0.94495E+05
 0.49720001E+02  0.81631E+05
 0.49770000E+02  0.88207E+05
 0.49820000E+02  0.90969E+05
 0.49870003E+02  0.94374E+05
 0.49920002E+02  0.98702E+05
 0.49970001E+02  0.90721E+05
 0.50020000E+02  0.85943E+05
 0.50070000E+02  0.86671E+05
 0.50120003E+02  0.78417E+05
 0.50170002E+02  0.61807E+05
 0.50220001E+02  0.57608E+05
 0.50270000E+02  0.55164E+05
 0.50320000E+02  0.46279E+05
 0.50370003E+02  0.29282E+05
 0.50420002E+02  0.18350E+05
 0.50470001E+02  0.15243E+05
 0.50520000E+02 -0.18460E+04
 0.50570000E+02 -0.10798E+05
 0.50620003E+02 -0.56630E+04
 0.50670002E+02 -0.20442E+05
 0.50720001E+02 -0.29522E+05
 0.50770000E+02 -0.21601E+05
 0.50820000E+02 -0.12651E+05
 0.50870003E+02  0.15829E+05
 0.50920002E+02  0.20191E+05
 0.50970001E+02  0.18730E+04
 0.51020000E+02  0.90700E+04
 0.51070000E+02  0.20848E+05
 0.51120003E+02  0.29417E+05
 0.51170002E+02  0.35404E+05
 0.51220001E+02  0.26050E+05
 0.51270000E+02  0.19068E+05
 0.51320000E+02  0.21758E+05
 0.51370003E+02  0.23324E+05
 0.51420002E+02  0.11951E+05
 0.51470001E+02 -0.19530E+04
 0.51520000E+02  0.99310E+04
 0.51570000E+02  0.28163E+05
 0.51620003E+02  0.36150E+05
 0.51670002E+02  0.11006E+05
 0.51720001E+02 -0.17267E+05
 0.51770000E+02 -0.89400E+04
 0.51820000E+02 -0.14876E+05
 0.51870003E+02 -0.17787E+05
 0.51920002E+02 -0.76350E+04
 0.51970001E+02 -0.63320E+04
 0.52020000E+02 -0.45060E+04
 0.52070000E+02  0.36410E+04
 0.52120003E+02  0.28931E+05
 0.52170002E+02  0.50574E+05
 0.52220001E+02  0.71892E+05
 0.52270000E+02  0.86881E+05
 0.52320000E+02  0.85342E+05
 0.52370003E+02  0.79307E+05
 0.52420002E+02  0.59811E+05
 0.52470001E+02  0.45980E+05
 0.52520000E+02  0.36433E+05
 0.52570000E+02  0.14911E+05
 0.52620003E+02  0.31240E+04
 0.52670002E+02 -0.15336E+05
 0.52720001E+02 -0.39074E+05
 0.52770000E+02 -0.50902E+05
 0.52820000E+02 -0.72499E+05
 0.52870003E+02 -0.59903E+05
 0.52920002E+02 -0.35070E+05
 0.52970001E+02 -0.43302E+05
 0.53020000E+02 -0.49892E+05
 0.53070000E+02 -0.53835E+05
 0.53120003E+02 -0.45726E+05
 0.53170002E+02 -0.19447E+05
 0.53220001E+02 -0.89370E+04
 0.53270000E+02 -0.39218E+05
 0.53320000E+02 -0.58368E+05
 0.53370003E+02 -0.54397E+05
 0.53420002E+02 -0.66051E+05
 0.53470001E+02 -0.89451E+05
 0.53520000E+02 -0.11169E+06
 0.53570000E+02 -0.94051E+05
 0.53620003E+02 -0.47309E+05
 0.53670002E+02  0.64240E+04
 0.53720001E+02  0.35350E+05
 0.53770000E+02  0.27866E+05
 0.53820000E+02  0.36615E+05
 0.53870003E+02  0.31275E+05
 0.53920002E+02  0.17122E+05
 0.53970001E+02  0.25329E+05
 0.54020000E+02  0.35397E+05
 0.54070000E+02  0.36156E+05
 0.54120003E+02  0.10848E+05
 0.54170002E+02 -0.15622E+05
 0.54220001E+02 -0.21118E+05
 0.54270000E+02 -0.66120E+04
 0.54320000E+02  0.17011E+05
 0.54370003E+02  0.23451E+05
 0.54420002E+02  0.13068E+05
 0.54470001E+02 -0.15791E+05
 0.54520000E+02 -0.47220E+05
 0.54570000E+02 -0.56238E+05
 0.54620003E+02 -0.58830E+05
 0.54670002E+02 -0.47596E+05
 0.54720001E+02 -0.36518E+05
 0.54770000E+02 -0.52377E+05
 0.54820000E+02 -0.63460E+05
 0.54870003E+02 -0.38387E+05
 0.54920002E+02 -0.11888E+05
 0.54970001E+02 -0.68090E+04
 0.55020000E+02  0.27668E+05
 0.55070000E+02  0.50830E+05
 0.55120003E+02  0.37301E+05
 0.55170002E+02  0.17607E+05
 0.55220001E+02 -0.32067E+05
 0.55270000E+02 -0.67407E+05
 0.55320000E+02 -0.63534E+05
 0.55370003E+02 -0.71594E+05
 0.55420002E+02 -0.92475E+05
 0.55470001E+02 -0.94600E+05
 0.55520000E+02 -0.98035E+05
 0.55570000E+02 -0.95291E+05
 0.55620003E+02 -0.77185E+05
 0.55670002E+02 -0.80502E+05
 0.55720001E+02 -0.83045E+05
 0.55770000E+02 -0.75660E+05
 0.55820000E+02 -0.65514E+05
 0.55870003E+02 -0.47204E+05
 0.55920002E+02 -0.45262E+05
 0.55970001E+02 -0.56531E+05
 0.56020000E+02 -0.39559E+05
 0.56070000E+02  0.67900E+03
 0.56120003E+02  0.17682E+05
 0.56170002E+02  0.19920E+05
 0.56220001E+02  0.32302E+05
 0.56270000E+02  0.46111E+05
 0.56320000E+02  0.69394E+05
 0.56370003E+02  0.11058E+06
 0.56420002E+02  0.13420E+06
 0.56470001E+02  0.13815E+06
 0.56520000E+02  0.16493E+06
 0.56570000E+02  0.17710E+06
 0.56620003E+02  0.16241E+06
 0.56670002E+02  0.16802E+06
 0.56720001E+02  0.15975E+06
 0.56770000E+02  0.12013E+06
 0.56820000E+02  0.67219E+05
 0.56870003E+02  0.35166E+05
 0.56920002E+02  0.44580E+04
 0.56970001E+02 -0.62411E+05
 0.57020000E+02 -0.91039E+05
 0.57070000E+02 -0.10515E+06
 0.57120003E+02 -0.13042E+06
 0.57170002E+02 -0.12534E+06
 0.57220001E+02 -0.11983E+06
 0.57270000E+02 -0.10183E+06
 0.57320000E+02 -0.82794E+05
 0.57370003E+02 -0.90390E+05
 0.57420002E+02 -0.75145E+05
 0.57470001E+02 -0.46345E+05
 0.57520000E+02 -0.27676E+05
 0.57570000E+02  0.49610E+04
 0.57620003E+02  0.26892E+05
 0.57670002E+02  0.31202E+05
 0.57720001E+02  0.33529E+05
 0.57770000E+02  0.49196E+05
 0.57820000E+02  0.73386E+05
 0.57870003E+02  0.94667E+05
 0.57920002E+02  0.10130E+06
 0.57970001E+02  0.66057E+05
 0.58020000E+02  0.34102E+05
 0.58070000E+02 -0.43500E+03
 0.58120003E+02 -0.45849E+05
 0.58170002E+02 -0.76032E+05
 0.58220001E+02 -0.92379E+05
 0.58270000E+02 -0.89561E+05
 0.58320000E+02 -0.89929E+05
 0.58370003E+02 -0.84112E+05
 0.58420002E+02 -0.70676E+05
 0.58470001E+02 -0.42887E+05
 0.58520000E+02 -0.37940E+04
 0.58570000E+02  0.18499E+05
 0.58620003E+02  0.15858E+05
 0.58670002E+02 -0.19860E+04
 0.58720001E+02  0.70910E+04
 0.58770000E+02  0.28634E+05
 0.58820000E+02  0.13901E+05
 0.58870003E+02 -0.24444E+05
 0.58920002E+02 -0.32304E+05
 0.58970001E+02 -0.19629E+05
 0.59020000E+02 -0.42439E+05
 0.59070000E+02 -0.74206E+05
 0.59120003E+02 -0.71015E+05
 0.59170002E+02 -0.63154E+05
 0.59220001E+02 -0.47736E+05
 0.59270000E+02 -0.35732E+05
 0.59320000E+02 -0.66219E+05
 0.59370003E+02 -0.90765E+05
 0.59420002E+02 -0.98556E+05
 0.59470001E+02 -0.10972E+06
 0.59520000E+02 -0.12376E+06
 0.59570000E+02 -0.14843E+06
 0.59620003E+02 -0.16798E+06
 0.59670002E+02 -0.18558E+06
 0.59720001E+02 -0.18769E+06
 0.59770000E+02 -0.14712E+06
 0.59820000E+02 -0.98458E+05
 0.59870003E+02 -0.93717E+05
 0.59920002E+02 -0.13666E+06
 0.59970001E+02 -0.16660E+06
 0.60020000E+02 -0.17067E+06
 0.60070000E+02 -0.17162E+06
 0.60120003E+02 -0.17578E+06
 0.60170002E+02 -0.18601E+06
 0.60220001E+02 -0.17031E+06
 0.60270000E+02 -0.16002E+06
 0.60320000E+02 -0.16614E+06
 0.60370003E+02 -0.16189E+06
 0.60420002E+02 -0.13793E+06
 0.60470001E+02 -0.78815E+05
 0.60520000E+02 -0.47926E+05
 0.60570000E+02 -0.40017E+05
 0.60620003E+02 -0.21595E+05
 0.60670002E+02 -0.43856E+05
 0.60720001E+02 -0.59428E+05
 0.60770000E+02 -0.34571E+05
 0.60820000E+02 -0.23538E+05
 0.60870003E+02 -0.38518E+05
 0.60920002E+02 -0.81092E+05
 0.60970001E+02 -0.11381E+06
 0.61020000E+02 -0.99831E+05
 0.61070004E+02 -0.68560E+05
 0.61119999E+02 -0.73143E+05
 0.61170002E+02 -0.11570E+06
 0.61220005E+02 -0.16015E+06
 0.61270000E+02 -0.19358E+06
 0.61320004E+02 -0.17990E+06
 0.61369999E+02 -0.17174E+06
 0.61420002E+02 -0.19469E+06
 0.61470005E+02 -0.17830E+06
 0.61520000E+02 -0.14558E+06
 0.61570004E+02 -0.13432E+06
 0.61619999E+02 -0.15194E+06
 0.61670002E+02 -0.18800E+06
 0.61720005E+02 -0.22344E+06
 0.61770000E+02 -0.22666E+06
 0.61820004E+02 -0.21078E+06
 0.61869999E+02 -0.21499E+06
 0.61920002E+02 -0.21623E+06
 0.61970005E+02 -0.20441E+06
 0.62020000E+02 -0.17854E+06
 0.62070004E+02 -0.14868E+06
 0.62119999E+02 -0.12172E+06
 0.62170002E+02 -0.77172E+05
 0.62220005E+02 -0.40903E+05
 0.62270000E+02 -0.46199E+05
 0.62320004E+02 -0.54726E+05
 0.62369999E+02 -0.51596E+05
 0.62420002E+02 -0.44208E+05
 0.62470005E+02 -0.16038E+05
 0.62520000E+02  0.10446E+05
 0.62570004E+02  0.32756E+05
 0.62619999E+02  0.46153E+05
 0.62670002E+02  0.41367E+05
 0.62720005E+02  0.56503E+05
 0.62770000E+02  0.91055E+05
 0.62820004E+02  0.96785E+05
 0.62869999E+02  0.10112E+06
 0.62920002E+02  0.16171E+06
 0.62970005E+02  0.22623E+06
 0.63020000E+02  0.26403E+06
 0.63070004E+02  0.31278E+06
 0.63119999E+02  0.36384E+06
 0.63170002E+02  0.39055E+06
 0.63220005E+02  0.35658E+06
 0.63270000E+02  0.28915E+06
 0.63320004E+02  0.24526E+06
 0.63369999E+02  0.20840E+06
 0.63420002E+02  0.16360E+06
 0.63470005E+02  0.78457E+05
 0.63520000E+02 -0.19010E+05
 0.63570004E+02 -0.83469E+05
 0.63619999E+02 -0.12378E+06
 0.63670002E+02 -0.14677E+06
 0.63720005E+02 -0.16268E+06
 0.63770000E+02 -0.18724E+06
 0.63820004E+02 -0.26654E+06
 0.63869999E+02 -0.31393E+06
 0.63920002E+02 -0.28533E+06
 0.63970005E+02 -0.24547E+06
 0.64019997E+02 -0.20092E+06
 0.64070000E+02 -0.18512E+06
 0.64119995E+02 -0.15454E+06
 0.64169998E+02 -0.10598E+06
 0.64220001E+02 -0.73284E+05
 0.64269997E+02 -0.20291E+05
 0.64320000E+02  0.32914E+05
 0.64369995E+02  0.97760E+05
 0.64419998E+02  0.16165E+06
 0.64470001E+02  0.16735E+06
 0.64519997E+02  0.13994E+06
 0.64570000E+02  0.11832E+06
 0.64619995E+02  0.13386E+06
 0.64669998E+02  0.16659E+06
 0.64720001E+02  0.17634E+06
 0.64769997E+02  0.18654E+06
 0.64820000E+02  0.19658E+06
 0.64869995E+02  0.17921E+06
 0.64919998E+02  0.12911E+06
 0.64970001E+02  0.96356E+05
 0.65019997E+02  0.10126E+06
 0.65070000E+02  0.10830E+06
 0.65119995E+02  0.83520E+05
 0.65169998E+02  0.13912E+05
 0.65220001E+02 -0.43946E+05
 0.65269997E+02 -0.69564E+05
 0.65320000E+02 -0.54784E+05
 0.65369995E+02 -0.76540E+04
 0.65419998E+02  0.15486E+05
 0.65470001E+02  0.23072E+05
 0.65519997E+02  0.26788E+05
 0.65570000E+02  0.37611E+05
 0.65619995E+02  0.74627E+05
 0.65669998E+02  0.11668E+06
 0.65720001E+02  0.16018E+06
 0.65769997E+02  0.18632E+06
 0.65820000E+02  0.16154E+06
 0.65869995E+02  0.12406E+06
 0.65919998E+02  0.11137E+06
 0.65970001E+02  0.10433E+06
 0.66019997E+02  0.83973E+05
 0.66070000E+02  0.43768E+05
 0.66119995E+02 -0.16850E+04
 0.66169998E+02 -0.24573E+05
 0.66220001E+02 -0.29453E+05
 0.66269997E+02 -0.11155E+05
 0.66320000E+02  0.18272E+05
 0.66369995E+02  0.33710E+04
 0.66419998E+02 -0.23075E+05
 0.66470001E+02 -0.34429E+05
 0.66519997E+02 -0.78389E+05
 0.66570000E+02 -0.12019E+06
 0.66619995E+02 -0.12926E+06
 0.66669998E+02 -0.14002E+06
 0.66720001E+02 -0.14318E+06
 0.66769997E+02 -0.12474E+06
 0.66820000E+02 -0.10172E+06
 0.66869995E+02 -0.69443E+05
 0.66919998E+02 -0.39473E+05
 0.66970001E+02 -0.27710E+05
 0.67019997E+02 -0.86560E+04
 0.67070000E+02 -0.83020E+04
 0.67119995E+02 -0.15475E+05
 0.67169998E+02  0.73040E+04
 0.67220001E+02  0.42415E+05
 0.67269997E+02  0.76912E+05
 0.67320000E+02  0.82511E+05
 0.67369995E+02  0.93291E+05
 0.67419998E+02  0.13066E+06
 0.67470001E+02  0.16382E+06
 0.67519997E+02  0.18982E+06
 0.67570000E+02  0.21225E+06
 0.67619995E+02  0.23690E+06
 0.67669998E+02  0.26878E+06
 0.67720001E+02  0.29562E+06
 0.67769997E+02  0.28015E+06
 0.67820000E+02  0.23526E+06
 0.67869995E+02  0.20044E+06
 0.67919998E+02  0.18157E+06
 0.67970001E+02  0.15937E+06
 0.68019997E+02  0.12688E+06
 0.68070000E+02  0.10070E+06
 0.68119995E+02  0.85091E+05
 0.68169998E+02  0.67013E+05
 0.68220001E+02  0.33822E+05
 0.68269997E+02  0.24958E+05
 0.68320000E+02  0.36932E+05
 0.68369995E+02  0.15838E+05
 0.68419998E+02 -0.24787E+05
 0.68470001E+02 -0.71446E+05
 0.68519997E+02 -0.14257E+06
 0.68570000E+02 -0.21699E+06
 0.68619995E+02 -0.24444E+06
 0.68669998E+02 -0.24160E+06
 0.68720001E+02 -0.23649E+06
 0.68769997E+02 -0.20270E+06
 0.68820000E+02 -0.15171E+06
 0.68869995E+02 -0.11472E+06
 0.68919998E+02 -0.74240E+05
 0.68970001E+02 -0.29694E+05
 0.69019997E+02  0.67270E+04
 0.69070000E+02  0.57540E+05
 0.69119995E+02  0.12263E+06
 0.69169998E+02  0.19567E+06
 0.69220001E+02  0.25673E+06
 0.69269997E+02  0.27049E+06
 0.69320000E+02  0.27430E+06
 0.69369995E+02  0.29954E+06
 0.69419998E+02  0.31180E+06
 0.69470001E+02  0.29949E+06
 0.69519997E+02  0.27869E+06
 0.69570000E+02  0.27767E+06
 0.69619995E+02  0.28121E+06
 0.69669998E+02  0.26602E+06
 0.69720001E+02  0.24835E+06
 0.69769997E+02  0.23801E+06
 0.69820000E+02  0.25299E+06
 0.69869995E+02  0.25196E+06
 0.69919998E+02  0.21105E+06
 0.69970001E+02  0.15788E+06
 0.70019997E+02  0.10117E+06
 0.70070000E+02  0.62744E+05
 0.70119995E+02  0.29785E+05
 0.70169998E+02 -0.16461E+05
 0.70220001E+02 -0.46592E+05
 0.70269997E+02 -0.37144E+05
 0.70320000E+02 -0.27876E+05
 0.70369995E+02 -0.27445E+05
 0.70419998E+02  0.34790E+04
 0.70470001E+02  0.15851E+05
 0.70519997E+02 -0.12930E+05
 0.70570000E+02 -0.45909E+05
 0.70619995E+02 -0.92565E+05
 0.70669998E+02 -0.14125E+06
 0.70720001E+02 -0.17278E+06
 0.70769997E+02 -0.18398E+06
 0.70820000E+02 -0.16236E+06
 0.70869995E+02 -0.12269E+06
 0.70919998E+02 -0.82521E+05
 0.70970001E+02 -0.45140E+05
 0.71019997E+02 -0.36802E+05
 0.71070000E+02 -0.48700E+05
 0.71119995E+02 -0.32703E+05
 0.71169998E+02  0.13007E+05
 0.71220001E+02  0.59720E+05
 0.71269997E+02  0.89157E+05
 0.71320000E+02  0.11502E+06
 0.71369995E+02  0.14905E+06
 0.71419998E+02  0.16485E+06
 0.71470001E+02  0.13803E+06
 0.71519997E+02  0.10003E+06
 0.71570000E+02  0.78073E+05
 0.71619995E+02  0.49805E+05
 0.71669998E+02  0.43934E+05
 0.71720001E+02  0.42421E+05
 0.71769997E+02  0.21785E+05
 0.71820000E+02  0.41110E+04
 0.71869995E+02 -0.40783E+05
 0.71919998E+02 -0.66461E+05
 0.71970001E+02 -0.70006E+05
 0.72019997E+02 -0.88316E+05
 0.72070000E+02 -0.90416E+05
 0.72119995E+02 -0.93188E+05
 0.72169998E+02 -0.96372E+05
 0.72220001E+02 -0.74174E+05
 0.72269997E+02 -0.45714E+05
 0.72320000E+02 -0.24368E+05
 0.72369995E+02  0.61140E+04
 0.72419998E+02  0.32995E+05
 0.72470001E+02  0.29526E+05
 0.72519997E+02  0.10906E+05
 0.72570000E+02  0.10080E+04
 0.72619995E+02  0.12778E+05
 0.72669998E+02  0.34592E+05
 0.72720001E+02  0.35248E+05
 0.72769997E+02  0.23634E+05
 0.72820000E+02  0.12364E+05
 0.72869995E+02  0.15906E+05
 0.72919998E+02  0.29203E+05
 0.72970001E+02  0.16526E+05
 0.73019997E+02  0.58570E+04
 0.73070000E+02  0.32352E+05
 0.73119995E+02  0.63992E+05
 0.73169998E+02  0.70926E+05
 0.73220001E+02  0.61975E+05
 0.73269997E+02  0.24421E+05
 0.73320000E+02 -0.37280E+04
 0.73369995E+02  0.14900E+03
 0.73419998E+02 -0.19400E+04
 0.73470001E+02  0.56510E+04
 0.73519997E+02 -0.87180E+04
 0.73570000E+02 -0.58400E+03
 0.73619995E+02  0.56350E+05
 0.73669998E+02  0.76783E+05
 0.73720001E+02  0.94095E+05
 0.73769997E+02  0.12457E+06
 0.73820000E+02  0.13978E+06
 0.73869995E+02  0.12052E+06
 0.73919998E+02  0.78464E+05
 0.73970001E+02  0.37723E+05
 0.74019997E+02  0.11376E+05
 0.74070000E+02  0.40852E+05
 0.74119995E+02  0.70160E+05
 0.74169998E+02  0.46407E+05
 0.74220001E+02  0.22963E+05
 0.74269997E+02  0.31200E+04
 0.74320000E+02 -0.46376E+05
 0.74369995E+02 -0.63785E+05
 0.74419998E+02 -0.19870E+05
 0.74470001E+02  0.30165E+05
 0.74519997E+02  0.56595E+05
 0.74570000E+02  0.24456E+05
 0.74619995E+02 -0.47086E+05
 0.74669998E+02 -0.76710E+05
 0.74720001E+02 -0.49905E+05
 0.74769997E+02 -0.15912E+05
 0.74820000E+02 -0.19839E+05
 0.74869995E+02 -0.70286E+05
 0.74919998E+02 -0.11558E+06
 0.74970001E+02 -0.10742E+06
 0.75019997E+02 -0.55133E+05
 0.75070000E+02  0.13349E+05
 0.75119995E+02  0.33997E+05
 0.75169998E+02  0.51700E+03
 0.75220001E+02 -0.30321E+05
 0.75269997E+02 -0.46522E+05
 0.75320000E+02 -0.34817E+05
 0.75369995E+02 -0.26493E+05
 0.75419998E+02 -0.23378E+05
 0.75470001E+02 -0.17130E+04
 0.75519997E+02  0.99000E+03
 0.75570000E+02 -0.36598E+05
 0.75619995E+02 -0.66325E+05
 0.75669998E+02 -0.30615E+05
 0.75720001E+02 -0.16687E+05
 0.75769997E+02 -0.56503E+05
 0.75820000E+02 -0.10007E+06
 0.75869995E+02 -0.13008E+06
 0.75919998E+02 -0.95073E+05
 0.75970001E+02 -0.34763E+05
 0.76019997E+02  0.95240E+04
 0.76070000E+02  0.27616E+05
 0.76119995E+02  0.30500E+04
 0.76169998E+02 -0.60093E+05
 0.76220001E+02 -0.15709E+06
 0.76269997E+02 -0.22030E+06
 0.76320000E+02 -0.19912E+06
 0.76369995E+02 -0.94022E+05
 0.76419998E+02 -0.27163E+05
 0.76470001E+02 -0.80245E+05
 0.76519997E+02 -0.12064E+06
 0.76570000E+02 -0.65698E+05
 0.76619995E+02  0.89100E+04
 0.76669998E+02  0.28208E+05
 0.76720001E+02  0.22179E+05
 0.76769997E+02  0.33361E+05
 0.76820000E+02  0.27312E+05
 0.76869995E+02 -0.31905E+05
 0.76919998E+02 -0.31803E+05
 0.76970001E+02 -0.22026E+05
 0.77019997E+02 -0.68733E+05
 0.77070000E+02 -0.70380E+04
 0.77119995E+02  0.12444E+06
 0.77169998E+02  0.17377E+06
 0.77220001E+02  0.10808E+06
 0.77269997E+02  0.70460E+05
 0.77320000E+02  0.73611E+05
 0.77369995E+02  0.21097E+05
 0.77419998E+02 -0.21017E+05
 0.77470001E+02 -0.30376E+05
 0.77519997E+02 -0.24321E+05
 0.77570000E+02 -0.35985E+05
 0.77619995E+02 -0.40918E+05
 0.77669998E+02 -0.17934E+05
 0.77720001E+02 -0.53151E+05
 0.77769997E+02 -0.12118E+06
 0.77820000E+02 -0.15276E+06
 0.77869995E+02 -0.20143E+06
 0.77919998E+02 -0.25105E+06
 0.77970001E+02 -0.27156E+06
 0.78019997E+02 -0.29537E+06
 0.78070000E+02 -0.25688E+06
 0.78119995E+02 -0.14697E+06
 0.78169998E+02 -0.48803E+05
 0.78220001E+02  0.79210E+04
 0.78269997E+02  0.30350E+05
 0.78320000E+02  0.39529E+05
 0.78369995E+02  0.21949E+05
 0.78419998E+02  0.63140E+04
 0.78470001E+02  0.49829E+05
 0.78519997E+02  0.10224E+06
 0.78570000E+02  0.12905E+06
 0.78619995E+02  0.17178E+06
 0.78669998E+02  0.22395E+06
 0.78720001E+02  0.17051E+06
 0.78769997E+02  0.10448E+06
 0.78820000E+02  0.21336E+06
 0.78869995E+02  0.30596E+06
 0.78919998E+02  0.24703E+06
 0.78970001E+02  0.16172E+06
 0.79019997E+02  0.13617E+06
 0.79070000E+02  0.12020E+06
 0.79119995E+02  0.96649E+05
 0.79169998E+02  0.12268E+06
 0.79220001E+02  0.87374E+05
 0.79269997E+02 -0.31538E+05
 0.79320000E+02 -0.11499E+06
 0.79369995E+02 -0.12096E+06
 0.79419998E+02 -0.87429E+05
 0.79470001E+02 -0.42433E+05
 0.79519997E+02 -0.15169E+05
 0.79570000E+02 -0.24944E+05
 0.79619995E+02 -0.32749E+05
 0.79669998E+02 -0.40691E+05
 0.79720001E+02 -0.19914E+05
 0.79769997E+02 -0.27936E+05
 0.79820000E+02 -0.62314E+05
 0.79869995E+02  0.15325E+05
 0.79919998E+02  0.13762E+06
 0.79970001E+02  0.16507E+06
 0.80019997E+02  0.12747E+06
 0.80070000E+02  0.10958E+06
 0.80119995E+02  0.94035E+05
 0.80169998E+02  0.64210E+05
 0.80220001E+02  0.21402E+05
 0.80269997E+02  0.86600E+03
 0.80320000E+02  0.14530E+05
 0.80369995E+02  0.12193E+05
 0.80419998E+02  0.27143E+05
 0.80470001E+02  0.49663E+05
 0.80519997E+02  0.63096E+05
 0.80570000E+02  0.61634E+05
 0.80619995E+02  0.10924E+05
 0.80669998E+02 -0.35687E+05
 0.80720001E+02 -0.69950E+05
 0.80769997E+02 -0.78421E+05
 0.80820000E+02 -0.41892E+05
 0.80869995E+02 -0.59890E+05
 0.80919998E+02 -0.87301E+05
 0.80970001E+02 -0.35337E+05
 0.81019997E+02  0.14635E+05
 0.81070000E+02  0.43309E+05
 0.81119995E+02  0.53482E+05
 0.81169998E+02  0.22943E+05
 0.81220001E+02 -0.12475E+05
 0.81269997E+02 -0.32946E+05
 0.81320000E+02 -0.35486E+05
 0.81369995E+02 -0.17408E+05
 0.81419998E+02  0.52233E+05
 0.81470001E+02  0.12290E+06
 0.81519997E+02  0.14080E+06
 0.81570000E+02  0.14934E+06
 0.81619995E+02  0.13518E+06
 0.81669998E+02  0.16015E+06
 0.81720001E+02  0.21050E+06
 0.81769997E+02  0.18574E+06
 0.81820000E+02  0.14087E+06
 0.81869995E+02  0.85019E+05
 0.81919998E+02  0.17932E+05
 0.81970001E+02 -0.27255E+05
 0.82019997E+02 -0.37845E+05
 0.82070000E+02 -0.27432E+05
 0.82119995E+02 -0.35047E+05
 0.82169998E+02 -0.29150E+05
 0.82220001E+02  0.20230E+04
 0.82269997E+02  0.29300E+05
 0.82320000E+02  0.55644E+05
 0.82369995E+02  0.87654E+05
 0.82419998E+02  0.67036E+05
 0.82470001E+02  0.18248E+05
 0.82519997E+02 -0.53700E+03
 0.82570000E+02 -0.44937E+05
 0.82619995E+02 -0.11624E+06
 0.82669998E+02 -0.18527E+06
 0.82720001E+02 -0.23909E+06
 0.82769997E+02 -0.29668E+06
 0.82820000E+02 -0.32841E+06
 0.82869995E+02 -0.29414E+06
 0.82919998E+02 -0.21473E+06
 0.82970001E+02 -0.11212E+06
 0.83019997E+02 -0.31705E+05
 0.83070000E+02  0.52854E+05
 0.83119995E+02  0.95807E+05
 0.83169998E+02  0.90926E+05
 0.83220001E+02  0.15104E+06
 0.83269997E+02  0.17508E+06
 0.83320000E+02  0.11281E+06
 0.83369995E+02  0.81110E+05
 0.83419998E+02  0.90283E+05
 0.83470001E+02  0.10070E+06
 0.83519997E+02  0.11335E+06
 0.83570000E+02  0.15058E+06
 0.83619995E+02  0.17057E+06
 0.83669998E+02  0.16084E+06
 0.83720001E+02  0.14219E+06
 0.83769997E+02  0.11449E+06
 0.83820000E+02  0.87434E+05
 0.83869995E+02  0.45183E+05
 0.83919998E+02  0.40960E+04
 0.83970001E+02 -0.46288E+05
 0.84019997E+02 -0.10776E+06
 0.84070000E+02 -0.16723E+06
 0.84119995E+02 -0.20399E+06
 0.84169998E+02 -0.15383E+06
 0.84220001E+02 -0.39682E+05
 0.84269997E+02  0.24506E+05
 0.84320000E+02  0.80120E+04
 0.84369995E+02 -0.75160E+04
 0.84419998E+02  0.95070E+04
 0.84470001E+02  0.49281E+05
 0.84519997E+02  0.68407E+05
 0.84570000E+02  0.53592E+05
 0.84619995E+02  0.62927E+05
 0.84669998E+02  0.73400E+05
 0.84720001E+02  0.63087E+05
 0.84769997E+02  0.64970E+05
 0.84820000E+02  0.64576E+05
 0.84869995E+02  0.39940E+05
 0.84919998E+02  0.52350E+04
 0.84970001E+02 -0.12190E+05
 0.85019997E+02  0.20979E+05
 0.85070000E+02  0.96818E+05
 0.85119995E+02  0.11913E+06
 0.85169998E+02  0.69767E+05
 0.85220001E+02  0.18685E+05
 0.85269997E+02 -0.77530E+04
 0.85320000E+02 -0.11009E+05
 0.85369995E+02 -0.26670E+05
 0.85419998E+02 -0.38976E+05
 0.85470001E+02 -0.29111E+05
 0.85519997E+02 -0.85200E+03
 0.85570000E+02  0.69200E+04
 0.85619995E+02 -0.53150E+05
 0.85669998E+02 -0.14126E+06
 0.85720001E+02 -0.20487E+06
 0.85769997E+02 -0.19123E+06
 0.85820000E+02 -0.17018E+06
 0.85869995E+02 -0.17427E+06
 0.85919998E+02 -0.15147E+06
 0.85970001E+02 -0.15194E+06
 0.86019997E+02 -0.18907E+06
 0.86070000E+02 -0.19922E+06
 0.86119995E+02 -0.15528E+06
 0.86169998E+02 -0.10021E+06
 0.86220001E+02 -0.32732E+05
 0.86269997E+02 -0.15760E+04
 0.86320000E+02 -0.64363E+05
 0.86369995E+02 -0.14600E+06
 0.86419998E+02 -0.15693E+06
 0.86470001E+02 -0.10860E+06
 0.86519997E+02 -0.90055E+05
 0.86570000E+02 -0.10946E+06
 0.86619995E+02 -0.12636E+06
 0.86669998E+02 -0.12164E+06
 0.86720001E+02 -0.82304E+05
 0.86769997E+02 -0.96020E+04
 0.86820000E+02  0.68047E+05
 0.86869995E+02  0.12159E+06
 0.86919998E+02  0.12847E+06
 0.86970001E+02  0.10182E+06
 0.87019997E+02  0.11174E+06
 0.87070000E+02  0.12579E+06
 0.87119995E+02  0.76861E+05
 0.87169998E+02  0.43099E+05
 0.87220001E+02  0.40972E+05
 0.87269997E+02  0.90080E+04
 0.87320000E+02 -0.23578E+05
 0.87369995E+02 -0.63503E+05
 0.87419998E+02 -0.11262E+06
 0.87470001E+02 -0.16414E+06
 0.87519997E+02 -0.21508E+06
 0.87570000E+02 -0.20936E+06
 0.87619995E+02 -0.15872E+06
 0.87669998E+02 -0.89776E+05
 0.87720001E+02 -0.19986E+05
 0.87769997E+02  0.31522E+05
 0.87820000E+02  0.38145E+05
 0.87869995E+02 -0.14017E+05
 0.87919998E+02 -0.86992E+05
 0.87970001E+02 -0.17334E+06
 0.88019997E+02 -0.22642E+06
 0.88070000E+02 -0.24590E+06
 0.88119995E+02 -0.28936E+06
 0.88169998E+02 -0.29000E+06
 0.88220001E+02 -0.25292E+06
 0.88269997E+02 -0.27127E+06
 0.88320000E+02 -0.33767E+06
 0.88369995E+02 -0.42027E+06
 0.88419998E+02 -0.45022E+06
 0.88470001E+02 -0.40540E+06
 0.88519997E+02 -0.35527E+06
 0.88570000E+02 -0.31216E+06
 0.88619995E+02 -0.29440E+06
 0.88669998E+02 -0.28464E+06
 0.88720001E+02 -0.25442E+06
 0.88769997E+02 -0.24520E+06
 0.88820000E+02 -0.25180E+06
 0.88869995E+02 -0.24442E+06
 0.88919998E+02 -0.21552E+06
 0.88970001E+02 -0.15978E+06
 0.89019997E+02 -0.64642E+05
 0.89070000E+02  0.47952E+05
 0.89119995E+02  0.10777E+06
 0.89169998E+02  0.97996E+05
 0.89220001E+02  0.96928E+05
 0.89269997E+02  0.12416E+06
 0.89320000E+02  0.13712E+06
 0.89369995E+02  0.16281E+06
 0.89419998E+02  0.13097E+06
 0.89470001E+02  0.14443E+05
 0.89519997E+02 -0.51932E+05
 0.89570000E+02 -0.72061E+05
 0.89619995E+02 -0.64827E+05
 0.89669998E+02 -0.34776E+05
 0.89720001E+02 -0.17169E+05
 0.89769997E+02  0.31750E+04
 0.89820000E+02 -0.61600E+04
 0.89869995E+02 -0.38079E+05
 0.89919998E+02 -0.66303E+05
 0.89970001E+02 -0.83653E+05
 0.90019997E+02 -0.70172E+05
 0.90070000E+02 -0.62842E+05
 0.90119995E+02 -0.90254E+05
 0.90169998E+02 -0.13985E+06
 0.90220001E+02 -0.21305E+06
 0.90269997E+02 -0.28333E+06
 0.90320000E+02 -0.26998E+06
 0.90369995E+02 -0.16589E+06
 0.90419998E+02 -0.82263E+05
 0.90470001E+02 -0.85262E+05
 0.90519997E+02 -0.13043E+06
 0.90570000E+02 -0.17330E+06
 0.90619995E+02 -0.22434E+06
 0.90669998E+02 -0.28423E+06
 0.90720001E+02 -0.32694E+06
 0.90769997E+02 -0.33163E+06
 0.90820000E+02 -0.27181E+06
 0.90869995E+02 -0.16820E+06
 0.90919998E+02 -0.63578E+05
 0.90970001E+02  0.17120E+04
 0.91019997E+02 -0.10550E+04
 0.91070000E+02 -0.57488E+05
 0.91119995E+02 -0.15980E+06
 0.91169998E+02 -0.24006E+06
 0.91220001E+02 -0.29169E+06
 0.91269997E+02 -0.38475E+06
 0.91320000E+02 -0.46984E+06
 0.91369995E+02 -0.49098E+06
 0.91419998E+02 -0.47358E+06
 0.91470001E+02 -0.46358E+06
 0.91519997E+02 -0.42401E+06
 0.91570000E+02 -0.31075E+06
 0.91619995E+02 -0.20209E+06
 0.91669998E+02 -0.13730E+06
 0.91720001E+02 -0.57781E+05
 0.91769997E+02  0.74196E+05
 0.91820000E+02  0.19312E+06
 0.91869995E+02  0.24468E+06
 0.91919998E+02  0.29152E+06
 0.91970001E+02  0.32535E+06
 0.92019997E+02  0.28445E+06
 0.92070000E+02  0.18999E+06
 0.92119995E+02  0.10054E+06
 0.92169998E+02  0.46351E+05
 0.92220001E+02 -0.15082E+05
 0.92269997E+02 -0.72337E+05
 0.92320000E+02 -0.11251E+06
 0.92369995E+02 -0.19198E+06
 0.92419998E+02 -0.24536E+06
 0.92470001E+02 -0.22418E+06
 0.92519997E+02 -0.15637E+06
 0.92570000E+02 -0.49842E+05
 0.92619995E+02  0.59513E+05
 0.92669998E+02  0.16043E+06
 0.92720001E+02  0.25299E+06
 0.92769997E+02  0.32616E+06
 0.92820000E+02  0.37394E+06
 0.92869995E+02  0.43749E+06
 0.92919998E+02  0.51343E+06
 0.92970001E+02  0.56057E+06
 0.93019997E+02  0.64198E+06
 0.93070000E+02  0.73754E+06
 0.93119995E+02  0.78309E+06
 0.93169998E+02  0.77416E+06
 0.93220001E+02  0.71711E+06
 0.93269997E+02  0.67360E+06
 0.93320000E+02  0.61672E+06
 0.93369995E+02  0.54490E+06
 0.93419998E+02  0.45781E+06
 0.93470001E+02  0.27834E+06
 0.93519997E+02  0.66536E+05
 0.93570000E+02 -0.11667E+06
 0.93619995E+02 -0.23241E+06
 0.93669998E+02 -0.28208E+06
 0.93720001E+02 -0.27344E+06
 0.93769997E+02 -0.20858E+06
 0.93820000E+02 -0.19373E+06
 0.93869995E+02 -0.23062E+06
 0.93919998E+02 -0.25984E+06
 0.93970001E+02 -0.30347E+06
 0.94019997E+02 -0.38832E+06
 0.94070000E+02 -0.47357E+06
 0.94119995E+02 -0.51518E+06
 0.94169998E+02 -0.49144E+06
 0.94220001E+02 -0.38036E+06
 0.94269997E+02 -0.22764E+06
 0.94320000E+02 -0.10615E+06
 0.94369995E+02 -0.48929E+05
 0.94419998E+02 -0.51302E+05
 0.94470001E+02 -0.12879E+06
 0.94519997E+02 -0.26171E+06
 0.94570000E+02 -0.34147E+06
 0.94619995E+02 -0.33480E+06
 0.94669998E+02 -0.29219E+06
 0.94720001E+02 -0.21961E+06
 0.94769997E+02 -0.12476E+06
 0.94820000E+02 -0.80760E+05
 0.94869995E+02 -0.16612E+06
 0.94919998E+02 -0.30165E+06
 0.94970001E+02 -0.35098E+06
 0.95019997E+02 -0.35322E+06
 0.95070000E+02 -0.39179E+06
 0.95119995E+02 -0.47256E+06
 0.95169998E+02 -0.54565E+06
 0.95220001E+02 -0.55991E+06
 0.95269997E+02 -0.52826E+06
 0.95320000E+02 -0.48476E+06
 0.95369995E+02 -0.42471E+06
 0.95419998E+02 -0.31318E+06
 0.95470001E+02 -0.16252E+06
 0.95519997E+02 -0.53145E+05
 0.95570000E+02 -0.28460E+04
 0.95619995E+02  0.81077E+05
 0.95669998E+02  0.22739E+06
 0.95720001E+02  0.37414E+06
 0.95769997E+02  0.47435E+06
 0.95820000E+02  0.53119E+06
 0.95869995E+02  0.56371E+06
 0.95919998E+02  0.54683E+06
 0.95970001E+02  0.50513E+06
 0.96019997E+02  0.50568E+06
 0.96070000E+02  0.52822E+06
 0.96119995E+02  0.52140E+06
 0.96169998E+02  0.50138E+06
 0.96220001E+02  0.50121E+06
 0.96269997E+02  0.51355E+06
 0.96320000E+02  0.49756E+06
 0.96369995E+02  0.44072E+06
 0.96419998E+02  0.38410E+06
 0.96470001E+02  0.31574E+06
 0.96519997E+02  0.21692E+06
 0.96570000E+02  0.12976E+06
 0.96619995E+02  0.74081E+05
 0.96669998E+02  0.37589E+05
 0.96720001E+02 -0.11875E+05
 0.96769997E+02 -0.58321E+05
 0.96820000E+02 -0.70461E+05
 0.96869995E+02 -0.75791E+05
 0.96919998E+02 -0.50574E+05
 0.96970001E+02 -0.50480E+04
 0.97019997E+02  0.77840E+04
 0.97070000E+02 -0.84840E+04
 0.97119995E+02 -0.50443E+05
 0.97169998E+02 -0.10774E+06
 0.97220001E+02 -0.15436E+06
 0.97269997E+02 -0.12977E+06
 0.97320000E+02 -0.45708E+05
 0.97369995E+02  0.40078E+05
 0.97419998E+02  0.13472E+06
 0.97470001E+02  0.18416E+06
 0.97519997E+02  0.17226E+06
 0.97570000E+02  0.19639E+06
 0.97619995E+02  0.27821E+06
 0.97669998E+02  0.35931E+06
 0.97720001E+02  0.37348E+06
 0.97769997E+02  0.29828E+06
 0.97820000E+02  0.22115E+06
 0.97869995E+02  0.20477E+06
 0.97919998E+02  0.22175E+06
 0.97970001E+02  0.24067E+06
 0.98019997E+02  0.21536E+06
 0.98070000E+02  0.17222E+06
 0.98119995E+02  0.18541E+06
 0.98169998E+02  0.21077E+06
 0.98220001E+02  0.21278E+06
 0.98269997E+02  0.20492E+06
 0.98320000E+02  0.16791E+06
 0.98369995E+02  0.11330E+06
 0.98419998E+02  0.81525E+05
 0.98470001E+02  0.10163E+06
 0.98519997E+02  0.14956E+06
 0.98570000E+02  0.19804E+06
 0.98619995E+02  0.23870E+06
 0.98669998E+02  0.21552E+06
 0.98720001E+02  0.12913E+06
 0.98769997E+02  0.43930E+05
 0.98820000E+02 -0.21001E+05
 0.98869995E+02 -0.11687E+05
 0.98919998E+02  0.96659E+05
 0.98970001E+02  0.24739E+06
 0.99019997E+02  0.42223E+06
 0.99070000E+02  0.58944E+06
 0.99119995E+02  0.71438E+06
 0.99169998E+02  0.76221E+06
 0.99220001E+02  0.75308E+06
 0.99269997E+02  0.76137E+06
 0.99320000E+02  0.75042E+06
 0.99369995E+02  0.68304E+06
 0.99419998E+02  0.57497E+06
 0.99470001E+02  0.48707E+06
 0.99519997E+02  0.49426E+06
 0.99570000E+02  0.56073E+06
 0.99619995E+02  0.60618E+06
 0.99669998E+02  0.59716E+06
 0.99720001E+02  0.54250E+06
 0.99769997E+02  0.47740E+06
 0.99820000E+02  0.46274E+06
 0.99869995E+02  0.49812E+06
 0.99919998E+02  0.52294E+06
 0.99970001E+02  0.51462E+06
 0.10002000E+03  0.43738E+06
 0.10007000E+03  0.30175E+06
 0.10012000E+03  0.16761E+06
 0.10017000E+03  0.17180E+05
 0.10022000E+03 -0.13215E+06
 0.10027000E+03 -0.21069E+06
 0.10032000E+03 -0.21380E+06
 0.10037000E+03 -0.19443E+06
 0.10042000E+03 -0.19627E+06
 0.10047000E+03 -0.20281E+06
 0.10052000E+03 -0.19584E+06
 0.10057000E+03 -0.16914E+06
 0.10062000E+03 -0.12199E+06
 0.10067000E+03 -0.83785E+05
 0.10072000E+03 -0.65767E+05
 0.10077000E+03 -0.81231E+05
 0.10082000E+03 -0.17234E+06
 0.10087000E+03 -0.33461E+06
 0.10092000E+03 -0.49639E+06
 0.10097000E+03 -0.62427E+06
 0.10102000E+03 -0.70925E+06
 0.10107000E+03 -0.70274E+06
 0.10112000E+03 -0.63376E+06
 0.10117000E+03 -0.57731E+06
 0.10122000E+03 -0.52780E+06
 0.10127000E+03 -0.45509E+06
 0.10132000E+03 -0.36850E+06
 0.10137000E+03 -0.27990E+06
 0.10142000E+03 -0.18084E+06
 0.10147000E+03 -0.86317E+05
 0.10152000E+03  0.13272E+05
 0.10157000E+03  0.11970E+06
 0.10162000E+03  0.18326E+06
 0.10167000E+03  0.21706E+06
 0.10172000E+03  0.25928E+06
 0.10177000E+03  0.27446E+06
 0.10182000E+03  0.23652E+06
 0.10187000E+03  0.19907E+06
 0.10192000E+03  0.18209E+06
 0.10197000E+03  0.18337E+06
 0.10202000E+03  0.21037E+06
 0.10207000E+03  0.23408E+06
 0.10212000E+03  0.24931E+06
 0.10217000E+03  0.26738E+06
 0.10222000E+03  0.30005E+06
 0.10227000E+03  0.33078E+06
 0.10232000E+03  0.33181E+06
 0.10237000E+03  0.32821E+06
 0.10242000E+03  0.35160E+06
 0.10247000E+03  0.39142E+06
 0.10252000E+03  0.41782E+06
 0.10257000E+03  0.43156E+06
 0.10262000E+03  0.43183E+06
 0.10267000E+03  0.41593E+06
 0.10272000E+03  0.36937E+06
 0.10277000E+03  0.26309E+06
 0.10282000E+03  0.13540E+06
 0.10287000E+03  0.52627E+05
 0.10292000E+03  0.32642E+05
 0.10297000E+03  0.56175E+05
 0.10302000E+03  0.11120E+06
 0.10307000E+03  0.15424E+06
 0.10312000E+03  0.15619E+06
 0.10317000E+03  0.16290E+06
 0.10322000E+03  0.18856E+06
 0.10327000E+03  0.22119E+06
 0.10332000E+03  0.27260E+06
 0.10337000E+03  0.30985E+06
 0.10342000E+03  0.25487E+06
 0.10347000E+03  0.12320E+06
 0.10352000E+03 -0.27012E+05
 0.10357000E+03 -0.17053E+06
 0.10362000E+03 -0.27368E+06
 0.10367000E+03 -0.33574E+06
 0.10372000E+03 -0.33144E+06
 0.10377000E+03 -0.25337E+06
 0.10382000E+03 -0.17098E+06
 0.10387000E+03 -0.13588E+06
 0.10392000E+03 -0.16494E+06
 0.10397000E+03 -0.22551E+06
 0.10402000E+03 -0.24865E+06
 0.10407000E+03 -0.21084E+06
 0.10412000E+03 -0.14983E+06
 0.10417000E+03 -0.10048E+06
 0.10422000E+03 -0.75479E+05
 0.10427000E+03 -0.79279E+05
 0.10432000E+03 -0.88372E+05
 0.10437000E+03 -0.10329E+06
 0.10442000E+03 -0.13939E+06
 0.10447000E+03 -0.16487E+06
 0.10452000E+03 -0.16981E+06
 0.10457000E+03 -0.16032E+06
 0.10462000E+03 -0.11082E+06
 0.10467000E+03 -0.23603E+05
 0.10472000E+03  0.45507E+05
 0.10477000E+03  0.58982E+05
 0.10482000E+03  0.41289E+05
 0.10487000E+03  0.19404E+05
 0.10492000E+03  0.76400E+03
 0.10497000E+03 -0.59930E+04
 0.10502000E+03 -0.57720E+04
 0.10507000E+03 -0.11508E+05
 0.10512000E+03 -0.35029E+05
 0.10517000E+03 -0.82511E+05
 0.10522000E+03 -0.14546E+06
 0.10527000E+03 -0.19984E+06
 0.10532000E+03 -0.23006E+06
 0.10537000E+03 -0.24010E+06
 0.10542000E+03 -0.23660E+06
 0.10547000E+03 -0.24327E+06
 0.10552000E+03 -0.27583E+06
 0.10557000E+03 -0.31427E+06
 0.10562000E+03 -0.35578E+06
 0.10567000E+03 -0.43295E+06
 0.10572000E+03 -0.50742E+06
 0.10577000E+03 -0.50959E+06
 0.10582000E+03 -0.48220E+06
 0.10587000E+03 -0.47824E+06
 0.10592000E+03 -0.49204E+06
 0.10597000E+03 -0.49223E+06
 0.10602000E+03 -0.44035E+06
 0.10607000E+03 -0.35111E+06
 0.10612000E+03 -0.27082E+06
 0.10617000E+03 -0.21801E+06
 0.10622000E+03 -0.17114E+06
 0.10627000E+03 -0.13153E+06
 0.10632000E+03 -0.11867E+06
 0.10637000E+03 -0.10826E+06
 0.10642000E+03 -0.10108E+06
 0.10647000E+03 -0.12147E+06
 0.10652000E+03 -0.15594E+06
 0.10657000E+03 -0.16744E+06
 0.10662000E+03 -0.14405E+06
 0.10667000E+03 -0.11889E+06
 0.10672000E+03 -0.10428E+06
 0.10677000E+03 -0.10769E+06
 0.10682000E+03 -0.13631E+06
 0.10687000E+03 -0.16417E+06
 0.10692000E+03 -0.17078E+06
 0.10697000E+03 -0.16368E+06
 0.10702000E+03 -0.18288E+06
 0.10707000E+03 -0.24825E+06
 0.10712000E+03 -0.31370E+06
 0.10717000E+03 -0.35631E+06
 0.10722000E+03 -0.39717E+06
 0.10727000E+03 -0.43050E+06
 0.10732000E+03 -0.46223E+06
 0.10737000E+03 -0.46682E+06
 0.10742000E+03 -0.42950E+06
 0.10747000E+03 -0.40005E+06
 0.10752000E+03 -0.36574E+06
 0.10757000E+03 -0.31416E+06
 0.10762000E+03 -0.26107E+06
 0.10767000E+03 -0.20556E+06
 0.10772000E+03 -0.15833E+06
 0.10777000E+03 -0.11647E+06
 0.10782000E+03 -0.76709E+05
 0.10787000E+03 -0.23825E+05
 0.10792000E+03  0.35512E+05
 0.10797000E+03  0.46662E+05
 0.10802000E+03 -0.22345E+05
 0.10807000E+03 -0.15234E+06
 0.10812000E+03 -0.28571E+06
 0.10817000E+03 -0.40961E+06
 0.10822000E+03 -0.51651E+06
 0.10827000E+03 -0.57552E+06
 0.10832000E+03 -0.61280E+06
 0.10837000E+03 -0.63110E+06
 0.10842000E+03 -0.60156E+06
 0.10847000E+03 -0.53736E+06
 0.10852000E+03 -0.45452E+06
 0.10857000E+03 -0.35327E+06
 0.10862000E+03 -0.26201E+06
 0.10867000E+03 -0.20502E+06
 0.10872000E+03 -0.17625E+06
 0.10877000E+03 -0.18447E+06
 0.10882000E+03 -0.20135E+06
 0.10887000E+03 -0.18809E+06
 0.10892000E+03 -0.17625E+06
 0.10897000E+03 -0.18048E+06
 0.10902000E+03 -0.19481E+06
 0.10907000E+03 -0.23274E+06
 0.10912000E+03 -0.26924E+06
 0.10917000E+03 -0.26548E+06
 0.10922000E+03 -0.20910E+06
 0.10927000E+03 -0.12178E+06
 0.10932000E+03 -0.42629E+05
 0.10937000E+03 -0.10640E+04
 0.10942000E+03 -0.24430E+04
 0.10947000E+03 -0.12306E+05
 0.10952000E+03 -0.28337E+05
 0.10957000E+03 -0.71661E+05
 0.10962000E+03 -0.11933E+06
 0.10967000E+03 -0.15014E+06
 0.10972000E+03 -0.17315E+06
 0.10977000E+03 -0.18592E+06
 0.10982000E+03 -0.18835E+06
 0.10987000E+03 -0.21857E+06
 0.10992000E+03 -0.26684E+06
 0.10997000E+03 -0.28595E+06
 0.11002000E+03 -0.26526E+06
 0.11007000E+03 -0.21130E+06
 0.11012000E+03 -0.16017E+06
 0.11017000E+03 -0.13813E+06
 0.11022000E+03 -0.13110E+06
 0.11027000E+03 -0.13454E+06
 0.11032000E+03 -0.14553E+06
 0.11037000E+03 -0.13830E+06
 0.11042000E+03 -0.10692E+06
 0.11047000E+03 -0.77933E+05
 0.11052000E+03 -0.65741E+05
 0.11057000E+03 -0.72600E+05
 0.11062000E+03 -0.93829E+05
 0.11067000E+03 -0.10545E+06
 0.11072000E+03 -0.11103E+06
 0.11077000E+03 -0.11128E+06
 0.11082000E+03 -0.78573E+05
 0.11087000E+03 -0.39354E+05
 0.11092000E+03  0.19290E+04
 0.11097000E+03  0.61797E+05
 0.11102000E+03  0.11948E+06
 0.11107000E+03  0.18595E+06
 0.11112000E+03  0.24779E+06
 0.11117000E+03  0.27037E+06
 0.11122000E+03  0.26454E+06
 0.11127000E+03  0.24328E+06
 0.11132000E+03  0.20494E+06
 0.11137000E+03  0.16963E+06
 0.11142000E+03  0.14742E+06
 0.11147000E+03  0.11506E+06
 0.11152000E+03  0.75193E+05
 0.11157000E+03  0.39943E+05
 0.11162000E+03  0.17927E+05
 0.11167000E+03  0.15680E+05
 0.11172000E+03  0.15867E+05
 0.11177000E+03  0.17666E+05
 0.11182000E+03  0.22364E+05
 0.11187000E+03  0.99080E+04
 0.11192000E+03 -0.14767E+05
 0.11197000E+03 -0.26920E+05
 0.11202000E+03 -0.21710E+05
 0.11207000E+03 -0.18327E+05
 0.11212000E+03 -0.35415E+05
 0.11217000E+03 -0.45322E+05
 0.11222000E+03 -0.14541E+05
 0.11227000E+03  0.36255E+05
 0.11232000E+03  0.98204E+05
 0.11237000E+03  0.17936E+06
 0.11242000E+03  0.24767E+06
 0.11247000E+03  0.28332E+06
 0.11252000E+03  0.29737E+06
 0.11257000E+03  0.29759E+06
 0.11262000E+03  0.28566E+06
 0.11267000E+03  0.26813E+06
 0.11272000E+03  0.26062E+06
 0.11277000E+03  0.24677E+06
 0.11282000E+03  0.21651E+06
 0.11287000E+03  0.19398E+06
 0.11292000E+03  0.19937E+06
 0.11297000E+03  0.22945E+06
 0.11302000E+03  0.24597E+06
 0.11307000E+03  0.23774E+06
 0.11312000E+03  0.22721E+06
 0.11317000E+03  0.22654E+06
 0.11322000E+03  0.24036E+06
 0.11327000E+03  0.25741E+06
 0.11332000E+03  0.26135E+06
 0.11337000E+03  0.26583E+06
 0.11342000E+03  0.28092E+06
 0.11347000E+03  0.29211E+06
 0.11352000E+03  0.30828E+06
 0.11357000E+03  0.32702E+06
 0.11362000E+03  0.31367E+06
 0.11367000E+03  0.27603E+06
 0.11372000E+03  0.26354E+06
 0.11377000E+03  0.28114E+06
 0.11382000E+03  0.28590E+06
 0.11387000E+03  0.26251E+06
 0.11392000E+03  0.24064E+06
 0.11397000E+03  0.24724E+06
 0.11402000E+03  0.28209E+06
 0.11407000E+03  0.34136E+06
 0.11412000E+03  0.40328E+06
 0.11417000E+03  0.43539E+06
 0.11422000E+03  0.43823E+06
 0.11427000E+03  0.41936E+06
 0.11432000E+03  0.38724E+06
 0.11437000E+03  0.36254E+06
 0.11442000E+03  0.35555E+06
 0.11447000E+03  0.36490E+06
 0.11452000E+03  0.38390E+06
 0.11457000E+03  0.39932E+06
 0.11462000E+03  0.39964E+06
 0.11467000E+03  0.40518E+06
 0.11472000E+03  0.44040E+06
 0.11477000E+03  0.47704E+06
 0.11482000E+03  0.48763E+06
 0.11487000E+03  0.46624E+06
 0.11492000E+03  0.42107E+06
 0.11497000E+03  0.38173E+06
 0.11502000E+03  0.34746E+06
 0.11507000E+03  0.31181E+06
 0.11512000E+03  0.27670E+06
 0.11517000E+03  0.24120E+06
 0.11522000E+03  0.22022E+06
 0.11527000E+03  0.22086E+06
 0.11532000E+03  0.22415E+06
 0.11537000E+03  0.20207E+06
 0.11542000E+03  0.17479E+06
 0.11547000E+03  0.16597E+06
 0.11552000E+03  0.17412E+06
 0.11557000E+03  0.21399E+06
 0.11562000E+03  0.26245E+06
 0.11567000E+03  0.29197E+06
 0.11572000E+03  0.30145E+06
 0.11577000E+03  0.29759E+06
 0.11582000E+03  0.28219E+06
 0.11587000E+03  0.23988E+06
 0.11592000E+03  0.20469E+06
 0.11597000E+03  0.20424E+06
 0.11602000E+03  0.20927E+06
 0.11607000E+03  0.21614E+06
 0.11612000E+03  0.23609E+06
 0.11617000E+03  0.25134E+06
 0.11622000E+03  0.26176E+06
 0.11627000E+03  0.27880E+06
 0.11632000E+03  0.28527E+06
 0.11637000E+03  0.28806E+06
 0.11642000E+03  0.28854E+06
 0.11647000E+03  0.26459E+06
 0.11652000E+03  0.23741E+06
 0.11657000E+03  0.21839E+06
 0.11662000E+03  0.18296E+06
 0.11667000E+03  0.12510E+06
 0.11672000E+03  0.64791E+05
 0.11677000E+03  0.22731E+05
 0.11682000E+03  0.51250E+04
 0.11687000E+03  0.87950E+04
 0.11692000E+03  0.27063E+05
 0.11697000E+03  0.46159E+05
 0.11702000E+03  0.53629E+05
 0.11707000E+03  0.48619E+05
 0.11712000E+03  0.27864E+05
 0.11717000E+03 -0.82510E+04
 0.11722000E+03 -0.44500E+05
 0.11727000E+03 -0.72236E+05
 0.11732000E+03 -0.10997E+06
 0.11737000E+03 -0.15454E+06
 0.11742000E+03 -0.17837E+06
 0.11747000E+03 -0.18420E+06
 0.11752000E+03 -0.17301E+06
 0.11757000E+03 -0.15143E+06
 0.11762000E+03 -0.13079E+06
 0.11767000E+03 -0.97919E+05
 0.11772000E+03 -0.58859E+05
 0.11777000E+03 -0.29520E+05
 0.11782000E+03 -0.99530E+04
 0.11787000E+03 -0.36970E+04
 0.11792000E+03 -0.11389E+05
 0.11797000E+03 -0.18696E+05
 0.11802000E+03 -0.12295E+05
 0.11807000E+03  0.94000E+04
 0.11812000E+03  0.34374E+05
 0.11817000E+03  0.56476E+05
 0.11822000E+03  0.74204E+05
 0.11827000E+03  0.67683E+05
 0.11832000E+03  0.50575E+05
 0.11837000E+03  0.48209E+05
 0.11842000E+03  0.56017E+05
 0.11847000E+03  0.67868E+05
 0.11852000E+03  0.55601E+05
 0.11857000E+03  0.13513E+05
 0.11862000E+03 -0.39502E+05
 0.11867000E+03 -0.85852E+05
 0.11872000E+03 -0.99121E+05
 0.11877000E+03 -0.83972E+05
 0.11882000E+03 -0.54330E+05
 0.11887000E+03 -0.24504E+05
 0.11892000E+03 -0.31510E+04
 0.11897000E+03  0.37140E+04
 0.11902000E+03 -0.29204E+05
 0.11907000E+03 -0.89611E+05
 0.11912000E+03 -0.15151E+06
 0.11917000E+03 -0.21038E+06
 0.11922000E+03 -0.23539E+06
 0.11927000E+03 -0.23127E+06
 0.11932000E+03 -0.24657E+06
 0.11937000E+03 -0.29372E+06
 0.11942000E+03 -0.35248E+06
 0.11947000E+03 -0.40012E+06
 0.11952000E+03 -0.43614E+06
 0.11957000E+03 -0.44207E+06
 0.11962000E+03 -0.41090E+06
 0.11967000E+03 -0.38481E+06
 0.11972000E+03 -0.39419E+06
 0.11977000E+03 -0.43142E+06
 0.11982000E+03 -0.46865E+06
 0.11987000E+03 -0.49759E+06
 0.11992000E+03 -0.50428E+06
 0.11997000E+03 -0.48646E+06
 0.12002000E+03 -0.45814E+06
 0.12007000E+03 -0.41730E+06
 0.12012000E+03 -0.37949E+06
 0.12017000E+03 -0.35483E+06
 0.12022000E+03 -0.35127E+06
 0.12027000E+03 -0.36144E+06
 0.12032000E+03 -0.36985E+06
 0.12037000E+03 -0.39601E+06
 0.12042000E+03 -0.43155E+06
 0.12047000E+03 -0.45014E+06
 0.12052000E+03 -0.46054E+06
 0.12057000E+03 -0.46090E+06
 0.12062000E+03 -0.44173E+06
 0.12067000E+03 -0.41406E+06
 0.12072000E+03 -0.37360E+06
 0.12077000E+03 -0.31701E+06
 0.12082000E+03 -0.24716E+06
 0.12087000E+03 -0.17215E+06
 0.12092000E+03 -0.11813E+06
 0.12097000E+03 -0.96640E+05
 0.12102000E+03 -0.98925E+05
 0.12107000E+03 -0.11042E+06
 0.12112000E+03 -0.13033E+06
 0.12117000E+03 -0.16449E+06
 0.12122000E+03 -0.20014E+06
 0.12127000E+03 -0.21824E+06
 0.12132000E+03 -0.21662E+06
 0.12137000E+03 -0.19905E+06
 0.12142000E+03 -0.17083E+06
 0.12147000E+03 -0.13222E+06
 0.12152000E+03 -0.76607E+05
 0.12157000E+03 -0.15258E+05
 0.12162000E+03  0.28399E+05
 0.12167000E+03  0.36734E+05
 0.12172000E+03  0.17074E+05
 0.12177000E+03 -0.44170E+04
 0.12182000E+03 -0.21994E+05
 0.12187000E+03 -0.52580E+05
 0.12192000E+03 -0.85532E+05
 0.12197000E+03 -0.89520E+05
 0.12202000E+03 -0.77950E+05
 0.12207000E+03 -0.76449E+05
 0.12212000E+03 -0.82616E+05
 0.12217000E+03 -0.84675E+05
 0.12222000E+03 -0.68694E+05
 0.12227000E+03 -0.41627E+05
 0.12232000E+03 -0.10094E+05
 0.12237000E+03  0.32548E+05
 0.12242000E+03  0.81315E+05
 0.12247000E+03  0.11311E+06
 0.12252000E+03  0.10826E+06
 0.12257000E+03  0.86927E+05
 0.12262000E+03  0.73592E+05
 0.12267000E+03  0.69323E+05
 0.12272000E+03  0.71702E+05
 0.12277000E+03  0.74596E+05
 0.12282000E+03  0.69767E+05
 0.12287000E+03  0.65944E+05
 0.12292000E+03  0.74284E+05
 0.12297000E+03  0.84174E+05
 0.12302000E+03  0.89260E+05
 0.12307000E+03  0.96177E+05
 0.12312000E+03  0.92925E+05
 0.12317000E+03  0.66774E+05
 0.12322000E+03  0.31780E+05
 0.12327000E+03 -0.10924E+05
 0.12332000E+03 -0.63487E+05
 0.12337000E+03 -0.10037E+06
 0.12342000E+03 -0.10832E+06
 0.12347000E+03 -0.10139E+06
 0.12352000E+03 -0.82334E+05
 0.12357000E+03 -0.38303E+05
 0.12362000E+03  0.18390E+05
 0.12367000E+03  0.59737E+05
 0.12372000E+03  0.89930E+05
 0.12377000E+03  0.11852E+06
 0.12382000E+03  0.13879E+06
 0.12387000E+03  0.15812E+06
 0.12392000E+03  0.17412E+06
 0.12397000E+03  0.18296E+06
 0.12402000E+03  0.19272E+06
 0.12407000E+03  0.20388E+06
 0.12412000E+03  0.22500E+06
 0.12417000E+03  0.24984E+06
 0.12422000E+03  0.25483E+06
 0.12427000E+03  0.23258E+06
 0.12432000E+03  0.18807E+06
 0.12437000E+03  0.13139E+06
 0.12442000E+03  0.73835E+05
 0.12447000E+03  0.29170E+05
 0.12452000E+03  0.12106E+05
 0.12457000E+03  0.26211E+05
 0.12462000E+03  0.66351E+05
 0.12467000E+03  0.12831E+06
 0.12472000E+03  0.21115E+06
 0.12477000E+03  0.29493E+06
 0.12482000E+03  0.34546E+06
 0.12487000E+03  0.34481E+06
 0.12492000E+03  0.30187E+06
 0.12497000E+03  0.25079E+06
 0.12502000E+03  0.20906E+06
 0.12507000E+03  0.19162E+06
 0.12512000E+03  0.21352E+06
 0.12517001E+03  0.24992E+06
 0.12521999E+03  0.27797E+06
 0.12527000E+03  0.28069E+06
 0.12532000E+03  0.26111E+06
 0.12537000E+03  0.24289E+06
 0.12542001E+03  0.23353E+06
 0.12546999E+03  0.23311E+06
 0.12552000E+03  0.23031E+06
 0.12557000E+03  0.22590E+06
 0.12562000E+03  0.21923E+06
 0.12567001E+03  0.20334E+06
 0.12571999E+03  0.18064E+06
 0.12577000E+03  0.14922E+06
 0.12582000E+03  0.12358E+06
 0.12587000E+03  0.10707E+06
 0.12592001E+03  0.74941E+05
 0.12596999E+03  0.24373E+05
 0.12602000E+03 -0.16464E+05
 0.12607000E+03 -0.37193E+05
 0.12612000E+03 -0.52004E+05
 0.12617001E+03 -0.54280E+05
 0.12621999E+03 -0.48216E+05
 0.12627000E+03 -0.65975E+05
 0.12632000E+03 -0.10223E+06
 0.12637000E+03 -0.13957E+06
 0.12642001E+03 -0.17637E+06
 0.12646999E+03 -0.20493E+06
 0.12652000E+03 -0.21591E+06
 0.12657000E+03 -0.19536E+06
 0.12662000E+03 -0.14396E+06
 0.12667001E+03 -0.82787E+05
 0.12671999E+03 -0.42439E+05
 0.12677000E+03 -0.36367E+05
 0.12682000E+03 -0.53081E+05
 0.12687000E+03 -0.75722E+05
 0.12692001E+03 -0.88049E+05
 0.12696999E+03 -0.10014E+06
 0.12702000E+03 -0.12092E+06
 0.12707000E+03 -0.12187E+06
 0.12712000E+03 -0.87282E+05
 0.12717001E+03 -0.44593E+05
 0.12721999E+03 -0.21932E+05
 0.12727000E+03 -0.28854E+05
 0.12732000E+03 -0.64092E+05
 0.12737000E+03 -0.10928E+06
 0.12742001E+03 -0.14451E+06
 0.12746999E+03 -0.17230E+06
 0.12752000E+03 -0.20123E+06
 0.12757000E+03 -0.22526E+06
 0.12762000E+03 -0.23182E+06
 0.12767001E+03 -0.21795E+06
 0.12771999E+03 -0.19008E+06
 0.12777000E+03 -0.14773E+06
 0.12782000E+03 -0.94893E+05
 0.12787000E+03 -0.49440E+05
 0.12792001E+03 -0.11298E+05
 0.12796999E+03  0.48591E+05
 0.12802000E+03  0.12201E+06
 0.12807001E+03  0.17145E+06
 0.12812001E+03  0.19714E+06
 0.12817001E+03  0.20208E+06
 0.12822000E+03  0.17966E+06
 0.12827000E+03  0.13685E+06
 0.12832001E+03  0.78015E+05
 0.12837001E+03  0.39310E+04
 0.12842001E+03 -0.69383E+05
 0.12847000E+03 -0.12560E+06
 0.12852000E+03 -0.15738E+06
 0.12857001E+03 -0.15878E+06
 0.12862001E+03 -0.13970E+06
 0.12867001E+03 -0.12090E+06
 0.12872000E+03 -0.11310E+06
 0.12877000E+03 -0.10900E+06
 0.12882001E+03 -0.10375E+06
 0.12887001E+03 -0.10063E+06
 0.12892001E+03 -0.95764E+05
 0.12897000E+03 -0.86642E+05
 0.12902000E+03 -0.77321E+05
 0.12907001E+03 -0.68860E+05
 0.12912001E+03 -0.62855E+05
 0.12917001E+03 -0.69291E+05
 0.12922000E+03 -0.88896E+05
 0.12927000E+03 -0.10408E+06
 0.12932001E+03 -0.10047E+06
 0.12937001E+03 -0.83202E+05
 0.12942001E+03 -0.59936E+05
 0.12947000E+03 -0.31663E+05
 0.12952000E+03 -0.46870E+04
 0.12957001E+03  0.11089E+05
 0.12962001E+03  0.62910E+04
 0.12967001E+03 -0.17952E+05
 0.12972000E+03 -0.47621E+05
 0.12977000E+03 -0.60077E+05
 0.12982001E+03 -0.41805E+05
 0.12987001E+03 -0.96280E+04
 0.12992001E+03  0.16281E+05
 0.12997000E+03  0.32521E+05
 0.13002000E+03  0.49978E+05
 0.13007001E+03  0.72359E+05
 0.13012001E+03  0.84548E+05
 0.13017001E+03  0.88690E+05
 0.13022000E+03  0.90987E+05
 0.13027000E+03  0.88872E+05
 0.13032001E+03  0.80166E+05
 0.13037001E+03  0.55525E+05
 0.13042001E+03  0.24496E+05
 0.13047000E+03 -0.36590E+04
 0.13052000E+03 -0.33629E+05
 0.13057001E+03 -0.63601E+05
 0.13062001E+03 -0.93325E+05
 0.13067001E+03 -0.11623E+06
 0.13072000E+03 -0.13469E+06
 0.13077000E+03 -0.14928E+06
 0.13082001E+03 -0.14651E+06
 0.13087001E+03 -0.14606E+06
 0.13092001E+03 -0.16053E+06
 0.13097000E+03 -0.16699E+06
 0.13102000E+03 -0.15620E+06
 0.13107001E+03 -0.14170E+06
 0.13112001E+03 -0.14554E+06
 0.13117001E+03 -0.15947E+06
 0.13122000E+03 -0.16619E+06
 0.13127000E+03 -0.16325E+06
 0.13132001E+03 -0.14330E+06
 0.13137001E+03 -0.10587E+06
 0.13142001E+03 -0.55550E+05
 0.13147000E+03 -0.75300E+03
 0.13152000E+03  0.50055E+05
 0.13157001E+03  0.88501E+05
 0.13162001E+03  0.11309E+06
 0.13167001E+03  0.12517E+06
 0.13172000E+03  0.12920E+06
 0.13177000E+03  0.13398E+06
 0.13182001E+03  0.13708E+06
 0.13187001E+03  0.13962E+06
 0.13192001E+03  0.13510E+06
 0.13197000E+03  0.11778E+06
 0.13202000E+03  0.92806E+05
 0.13207001E+03  0.52633E+05
 0.13212001E+03  0.76110E+04
 0.13217001E+03 -0.25510E+05
 0.13222000E+03 -0.56660E+05
 0.13227000E+03 -0.85120E+05
 0.13232001E+03 -0.96237E+05
 0.13237001E+03 -0.86416E+05
 0.13242001E+03 -0.67903E+05
 0.13247000E+03 -0.45200E+05
 0.13252000E+03 -0.15188E+05
 0.13257001E+03  0.15409E+05
 0.13262001E+03  0.38680E+05
 0.13267001E+03  0.47749E+05
 0.13272000E+03  0.47885E+05
 0.13277000E+03  0.46847E+05
 0.13282001E+03  0.54030E+05
 0.13287001E+03  0.69808E+05
 0.13292001E+03  0.76281E+05
 0.13297000E+03  0.63898E+05
 0.13302000E+03  0.35097E+05
 0.13307001E+03  0.13518E+05
 0.13312001E+03  0.19297E+05
 0.13317001E+03  0.38927E+05
 0.13322000E+03  0.60682E+05
 0.13327000E+03  0.94765E+05
 0.13332001E+03  0.14291E+06
 0.13337001E+03  0.18420E+06
 0.13342001E+03  0.21097E+06
 0.13347000E+03  0.23710E+06
 0.13352000E+03  0.26546E+06
 0.13357001E+03  0.28626E+06
 0.13362001E+03  0.29842E+06
 0.13367001E+03  0.31400E+06
 0.13372000E+03  0.33351E+06
 0.13377000E+03  0.34107E+06
 0.13382001E+03  0.33119E+06
 0.13387001E+03  0.30666E+06
 0.13392001E+03  0.27349E+06
 0.13397000E+03  0.24586E+06
 0.13402000E+03  0.22869E+06
 0.13407001E+03  0.20933E+06
 0.13412001E+03  0.17891E+06
 0.13417001E+03  0.14392E+06
 0.13422000E+03  0.10095E+06
 0.13427000E+03  0.45899E+05
 0.13432001E+03 -0.30790E+04
 0.13437001E+03 -0.32901E+05
 0.13442001E+03 -0.43715E+05
 0.13447000E+03 -0.39009E+05
 0.13452000E+03 -0.26548E+05
 0.13457001E+03 -0.14031E+05
 0.13462001E+03 -0.27380E+04
 0.13467001E+03  0.61000E+04
 0.13472000E+03  0.41750E+04
 0.13477000E+03 -0.96460E+04
 0.13482001E+03 -0.27158E+05
 0.13487001E+03 -0.39358E+05
 0.13492001E+03 -0.47179E+05
 0.13497000E+03 -0.63721E+05
 0.13502000E+03 -0.92377E+05
 0.13507001E+03 -0.11577E+06
 0.13512001E+03 -0.11944E+06
 0.13517001E+03 -0.11174E+06
 0.13522000E+03 -0.10219E+06
 0.13527000E+03 -0.98483E+05
 0.13532001E+03 -0.94593E+05
 0.13537001E+03 -0.82402E+05
 0.13542001E+03 -0.78716E+05
 0.13547000E+03 -0.79286E+05
 0.13552000E+03 -0.74734E+05
 0.13557001E+03 -0.73689E+05
 0.13562001E+03 -0.76478E+05
 0.13567001E+03 -0.85466E+05
 0.13572000E+03 -0.96140E+05
 0.13577000E+03 -0.93434E+05
 0.13582001E+03 -0.78483E+05
 0.13587001E+03 -0.61108E+05
 0.13592001E+03 -0.43746E+05
 0.13597000E+03 -0.32552E+05
 0.13602000E+03 -0.36362E+05
 0.13607001E+03 -0.53570E+05
 0.13612001E+03 -0.70543E+05
 0.13617001E+03 -0.70891E+05
 0.13622000E+03 -0.59152E+05
 0.13627000E+03 -0.44435E+05
 0.13632001E+03 -0.18851E+05
 0.13637001E+03  0.12137E+05
 0.13642001E+03  0.34173E+05
 0.13647000E+03  0.41186E+05
 0.13652000E+03  0.39400E+05
 0.13657001E+03  0.37669E+05
 0.13662001E+03  0.29695E+05
 0.13667001E+03  0.20835E+05
 0.13672000E+03  0.24212E+05
 0.13677000E+03  0.29569E+05
 0.13682001E+03  0.26284E+05
 0.13687001E+03  0.17204E+05
 0.13692001E+03 -0.23550E+04
 0.13697000E+03 -0.28071E+05
 0.13702000E+03 -0.47838E+05
 0.13707001E+03 -0.61758E+05
 0.13712001E+03 -0.67788E+05
 0.13717001E+03 -0.66214E+05
 0.13722000E+03 -0.60262E+05
 0.13727000E+03 -0.52348E+05
 0.13732001E+03 -0.52182E+05
 0.13737001E+03 -0.68174E+05
 0.13742001E+03 -0.89313E+05
 0.13747000E+03 -0.10194E+06
 0.13752000E+03 -0.11845E+06
 0.13757001E+03 -0.14465E+06
 0.13762001E+03 -0.16640E+06
 0.13767001E+03 -0.17982E+06
 0.13772000E+03 -0.19090E+06
 0.13777000E+03 -0.20847E+06
 0.13782001E+03 -0.22156E+06
 0.13787001E+03 -0.21336E+06
 0.13792001E+03 -0.19916E+06
 0.13797000E+03 -0.18889E+06
 0.13802000E+03 -0.18400E+06
 0.13807001E+03 -0.18195E+06
 0.13812001E+03 -0.16690E+06
 0.13817001E+03 -0.14629E+06
 0.13822000E+03 -0.12704E+06
 0.13827000E+03 -0.10870E+06
 0.13832001E+03 -0.99415E+05
 0.13837001E+03 -0.89374E+05
 0.13842001E+03 -0.68305E+05
 0.13847000E+03 -0.39133E+05
 0.13852000E+03 -0.92220E+04
 0.13857001E+03  0.11807E+05
 0.13862001E+03  0.14866E+05
 0.13867001E+03  0.18140E+04
 0.13872000E+03 -0.79050E+04
 0.13877000E+03 -0.10102E+05
 0.13882001E+03 -0.13973E+05
 0.13887001E+03 -0.21517E+05
 0.13892001E+03 -0.31058E+05
 0.13897000E+03 -0.34608E+05
 0.13902000E+03 -0.31981E+05
 0.13907001E+03 -0.26623E+05
 0.13912001E+03 -0.18793E+05
 0.13917001E+03 -0.47900E+04
 0.13922000E+03  0.14976E+05
 0.13927000E+03  0.32851E+05
 0.13932001E+03  0.52459E+05
 0.13937001E+03  0.69599E+05
 0.13942001E+03  0.85647E+05
 0.13947000E+03  0.11527E+06
 0.13952000E+03  0.15057E+06
 0.13957001E+03  0.17593E+06
 0.13962001E+03  0.19689E+06
 0.13967001E+03  0.22312E+06
 0.13972000E+03  0.25090E+06
 0.13977000E+03  0.27863E+06
 0.13982001E+03  0.30746E+06
 0.13987001E+03  0.32850E+06
 0.13992001E+03  0.32594E+06
 0.13997000E+03  0.30127E+06
 0.14002000E+03  0.26788E+06
 0.14007001E+03  0.23200E+06
 0.14012001E+03  0.20178E+06
 0.14017001E+03  0.19245E+06
 0.14022000E+03  0.21243E+06
 0.14027000E+03  0.24122E+06
 0.14032001E+03  0.25570E+06
 0.14037001E+03  0.24612E+06
 0.14042001E+03  0.21422E+06
 0.14047000E+03  0.17820E+06
 0.14052000E+03  0.13981E+06
 0.14057001E+03  0.91332E+05
 0.14062001E+03  0.30689E+05
 0.14067001E+03 -0.37066E+05
 0.14072000E+03 -0.98641E+05
 0.14077000E+03 -0.15057E+06
 0.14082001E+03 -0.19237E+06
 0.14087001E+03 -0.22398E+06
 0.14092001E+03 -0.25118E+06
 0.14097000E+03 -0.27574E+06
 0.14102000E+03 -0.28743E+06
 0.14107001E+03 -0.28628E+06
 0.14112001E+03 -0.28889E+06
 0.14117001E+03 -0.29647E+06
 0.14122000E+03 -0.29665E+06
 0.14127000E+03 -0.28428E+06
 0.14132001E+03 -0.26177E+06
 0.14137001E+03 -0.23668E+06
 0.14142001E+03 -0.21136E+06
 0.14147000E+03 -0.18344E+06
 0.14152000E+03 -0.15898E+06
 0.14157001E+03 -0.13806E+06
 0.14162001E+03 -0.11682E+06
 0.14167001E+03 -0.96141E+05
 0.14172000E+03 -0.76505E+05
 0.14177000E+03 -0.55168E+05
 0.14182001E+03 -0.25084E+05
 0.14187001E+03  0.82390E+04
 0.14192001E+03  0.33718E+05
 0.14197000E+03  0.46123E+05
 0.14202000E+03  0.48987E+05
 0.14207001E+03  0.51061E+05
 0.14212001E+03  0.49508E+05
 0.14217001E+03  0.52177E+05
 0.14222000E+03  0.72863E+05
 0.14227000E+03  0.10522E+06
 0.14232001E+03  0.13732E+06
 0.14237001E+03  0.16310E+06
 0.14242001E+03  0.18200E+06
 0.14247000E+03  0.19220E+06
 0.14252000E+03  0.19026E+06
 0.14257001E+03  0.17716E+06
 0.14262001E+03  0.16429E+06
 0.14267001E+03  0.16214E+06
 0.14272000E+03  0.16662E+06
 0.14277000E+03  0.17257E+06
 0.14282001E+03  0.18034E+06
 0.14287001E+03  0.18588E+06
 0.14292001E+03  0.18395E+06
 0.14297000E+03  0.18056E+06
 0.14302000E+03  0.17746E+06
 0.14307001E+03  0.16920E+06
 0.14312001E+03  0.16084E+06
 0.14317001E+03  0.15866E+06
 0.14322000E+03  0.15639E+06
 0.14327000E+03  0.14781E+06
 0.14332001E+03  0.13942E+06
 0.14337001E+03  0.13207E+06
 0.14342001E+03  0.12076E+06
 0.14347000E+03  0.11035E+06
 0.14352000E+03  0.10017E+06
 0.14357001E+03  0.87896E+05
 0.14362001E+03  0.83286E+05
 0.14367001E+03  0.84724E+05
 0.14372000E+03  0.86486E+05
 0.14377000E+03  0.87510E+05
 0.14382001E+03  0.79648E+05
 0.14387001E+03  0.63897E+05
 0.14392001E+03  0.45764E+05
 0.14397000E+03  0.28836E+05
 0.14402000E+03  0.19063E+05
 0.14407001E+03  0.14325E+05
 0.14412001E+03  0.74100E+04
 0.14417001E+03  0.29500E+03
 0.14422000E+03 -0.47160E+04
 0.14427000E+03 -0.81650E+04
 0.14432001E+03 -0.61800E+03
 0.14437001E+03  0.19331E+05
 0.14442001E+03  0.38696E+05
 0.14447000E+03  0.45065E+05
 0.14452000E+03  0.31615E+05
 0.14457001E+03  0.44030E+04
 0.14462001E+03 -0.21887E+05
 0.14467001E+03 -0.37292E+05
 0.14472000E+03 -0.44260E+05
 0.14477000E+03 -0.52628E+05
 0.14482001E+03 -0.59154E+05
 0.14487001E+03 -0.58480E+05
 0.14492001E+03 -0.55653E+05
 0.14497000E+03 -0.51241E+05
 0.14502000E+03 -0.50932E+05
 0.14507001E+03 -0.61798E+05
 0.14512001E+03 -0.79283E+05
 0.14517001E+03 -0.98477E+05
 0.14522000E+03 -0.11796E+06
 0.14527000E+03 -0.13336E+06
 0.14532001E+03 -0.14160E+06
 0.14537001E+03 -0.14949E+06
 0.14542001E+03 -0.16258E+06
 0.14547000E+03 -0.17638E+06
 0.14552000E+03 -0.18730E+06
 0.14557001E+03 -0.19305E+06
 0.14562001E+03 -0.19142E+06
 0.14567001E+03 -0.18384E+06
 0.14572000E+03 -0.16708E+06
 0.14577000E+03 -0.13958E+06
 0.14582001E+03 -0.11024E+06
 0.14587001E+03 -0.89260E+05
 0.14592001E+03 -0.79496E+05
 0.14597000E+03 -0.81182E+05
 0.14602000E+03 -0.93579E+05
 0.14607001E+03 -0.11082E+06
 0.14612001E+03 -0.13287E+06
 0.14617001E+03 -0.16109E+06
 0.14622000E+03 -0.19139E+06
 0.14627000E+03 -0.21647E+06
 0.14632001E+03 -0.22267E+06
 0.14637001E+03 -0.20887E+06
 0.14642001E+03 -0.18286E+06
 0.14647000E+03 -0.15031E+06
 0.14652000E+03 -0.12345E+06
 0.14657001E+03 -0.10541E+06
 0.14662001E+03 -0.93470E+05
 0.14667001E+03 -0.86792E+05
 0.14672000E+03 -0.83605E+05
 0.14677000E+03 -0.87542E+05
 0.14682001E+03 -0.98225E+05
 0.14687001E+03 -0.10482E+06
 0.14692001E+03 -0.97778E+05
 0.14697000E+03 -0.82568E+05
 0.14702000E+03 -0.69275E+05
 0.14707001E+03 -0.60500E+05
 0.14712001E+03 -0.55686E+05
 0.14717001E+03 -0.50117E+05
 0.14722000E+03 -0.41819E+05
 0.14727000E+03 -0.38672E+05
 0.14732001E+03 -0.40876E+05
 0.14737001E+03 -0.38011E+05
 0.14742001E+03 -0.27272E+05
 0.14747000E+03 -0.82800E+04
 0.14752000E+03  0.18562E+05
 0.14757001E+03  0.43120E+05
 0.14762001E+03  0.57118E+05
 0.14767001E+03  0.62222E+05
 0.14772000E+03  0.63092E+05
 0.14777000E+03  0.63579E+05
 0.14782001E+03  0.66307E+05
 0.14787001E+03  0.70514E+05
 0.14792001E+03  0.76008E+05
 0.14797000E+03  0.84336E+05
 0.14802000E+03  0.91714E+05
 0.14807001E+03  0.95769E+05
 0.14812001E+03  0.10100E+06
 0.14817001E+03  0.10971E+06
 0.14822000E+03  0.11847E+06
 0.14827000E+03  0.12260E+06
 0.14832001E+03  0.12070E+06
 0.14837001E+03  0.11274E+06
 0.14842001E+03  0.10231E+06
 0.14847000E+03  0.94046E+05
 0.14852000E+03  0.85279E+05
 0.14857001E+03  0.75329E+05
 0.14862001E+03  0.63573E+05
 0.14867001E+03  0.50117E+05
 0.14872000E+03  0.43136E+05
 0.14877000E+03  0.42620E+05
 0.14882001E+03  0.39954E+05
 0.14887001E+03  0.31221E+05
 0.14892001E+03  0.14980E+05
 0.14897000E+03 -0.10050E+05
 0.14902000E+03 -0.38096E+05
 0.14907001E+03 -0.60761E+05
 0.14912001E+03 -0.75822E+05
 0.14917001E+03 -0.78487E+05
 0.14922000E+03 -0.66473E+05
 0.14927000E+03 -0.49768E+05
 0.14932001E+03 -0.34171E+05
 0.14937001E+03 -0.19403E+05
 0.14942001E+03 -0.58040E+04
 0.14947000E+03  0.51200E+04
 0.14952000E+03  0.10789E+05
 0.14957001E+03  0.14483E+05
 0.14962001E+03  0.19425E+05
 0.14967001E+03  0.28363E+05
 0.14972000E+03  0.43619E+05
 0.14977000E+03  0.62055E+05
 0.14982001E+03  0.74872E+05
 0.14987001E+03  0.74160E+05
 0.14992001E+03  0.66741E+05
 0.14997000E+03  0.62059E+05
