-0.29800000E+01  0.11324E+06
-0.29300001E+01  0.11999E+06
-0.28800001E+01  0.12750E+06
-0.28299999E+01  0.13427E+06
-0.27800000E+01  0.13728E+06
-0.27300000E+01  0.13423E+06
-0.26800001E+01  0.12947E+06
-0.26300001E+01  0.12709E+06
-0.25799999E+01  0.12397E+06
-0.25300000E+01  0.11532E+06
-0.24800000E+01  0.10293E+06
-0.24300001E+01  0.89741E+05
-0.23800001E+01  0.76627E+05
-0.23299999E+01  0.65638E+05
-0.22800000E+01  0.58319E+05
-0.22300000E+01  0.55196E+05
-0.21800001E+01  0.54365E+05
-0.21300001E+01  0.52729E+05
-0.20799999E+01  0.48796E+05
-0.20300000E+01  0.43118E+05
-0.19800000E+01  0.36386E+05
-0.19299999E+01  0.28328E+05
-0.18800000E+01  0.18210E+05
-0.18300000E+01  0.60070E+04
-0.17800000E+01 -0.40200E+04
-0.17300000E+01 -0.79370E+04
-0.16799999E+01 -0.82960E+04
-0.16300000E+01 -0.10229E+05
-0.15800000E+01 -0.17668E+05
-0.15300000E+01 -0.29498E+05
-0.14800000E+01 -0.39144E+05
-0.14299999E+01 -0.41548E+05
-0.13800000E+01 -0.39953E+05
-0.13300000E+01 -0.40013E+05
-0.12800000E+01 -0.39948E+05
-0.12300000E+01 -0.37443E+05
-0.11799999E+01 -0.33038E+05
-0.11300000E+01 -0.27967E+05
-0.10800000E+01 -0.22299E+05
-0.10300000E+01 -0.14735E+05
-0.98000002E+00 -0.66800E+04
-0.93000007E+00  0.28330E+04
-0.87999988E+00  0.15805E+05
-0.82999992E+00  0.30261E+05
-0.77999997E+00  0.41615E+05
-0.73000002E+00  0.46632E+05
-0.68000007E+00  0.44990E+05
-0.62999988E+00  0.37504E+05
-0.57999992E+00  0.28527E+05
-0.52999997E+00  0.19801E+05
-0.48000002E+00  0.87660E+04
-0.43000007E+00 -0.50490E+04
-0.37999988E+00 -0.19382E+05
-0.32999992E+00 -0.29490E+05
-0.27999997E+00 -0.33486E+05
-0.23000002E+00 -0.33134E+05
-0.18000007E+00 -0.30758E+05
-0.12999988E+00 -0.27589E+05
-0.79999924E-01 -0.21941E+05
-0.29999971E-01 -0.13139E+05
 0.19999981E-01 -0.33220E+04
 0.69999933E-01  0.38310E+04
 0.12000012E+00  0.88040E+04
 0.17000008E+00  0.15896E+05
 0.22000003E+00  0.24077E+05
 0.26999998E+00  0.29233E+05
 0.31999993E+00  0.29738E+05
 0.37000012E+00  0.28732E+05
 0.42000008E+00  0.30080E+05
 0.47000003E+00  0.34062E+05
 0.51999998E+00  0.41488E+05
 0.56999993E+00  0.51760E+05
 0.62000012E+00  0.63356E+05
 0.67000008E+00  0.75096E+05
 0.72000003E+00  0.84217E+05
 0.76999998E+00  0.92637E+05
 0.81999993E+00  0.10072E+06
 0.87000012E+00  0.10492E+06
 0.92000008E+00  0.10233E+06
 0.97000003E+00  0.90600E+05
 0.10200000E+01  0.73050E+05
 0.10700002E+01  0.54689E+05
 0.11199999E+01  0.39860E+05
 0.11700001E+01  0.30062E+05
 0.12200003E+01  0.25049E+05
 0.12700000E+01  0.21400E+05
 0.13200002E+01  0.15201E+05
 0.13699999E+01  0.73260E+04
 0.14200001E+01 -0.20870E+04
 0.14700003E+01 -0.59450E+04
 0.15200000E+01 -0.25800E+03
 0.15700002E+01  0.11050E+05
 0.16199999E+01  0.23966E+05
 0.16700001E+01  0.33862E+05
 0.17200003E+01  0.42444E+05
 0.17700000E+01  0.49835E+05
 0.18200002E+01  0.57200E+05
 0.18699999E+01  0.65200E+05
 0.19200001E+01  0.70454E+05
 0.19700003E+01  0.73734E+05
 0.20200000E+01  0.74966E+05
 0.20700002E+01  0.75007E+05
 0.21199999E+01  0.73338E+05
 0.21700001E+01  0.69720E+05
 0.22200003E+01  0.66117E+05
 0.22700000E+01  0.63531E+05
 0.23200002E+01  0.61573E+05
 0.23699999E+01  0.56481E+05
 0.24200001E+01  0.48511E+05
 0.24700003E+01  0.40511E+05
 0.25200000E+01  0.36101E+05
 0.25700002E+01  0.36462E+05
 0.26199999E+01  0.38864E+05
 0.26700001E+01  0.42117E+05
 0.27200003E+01  0.45176E+05
 0.27700000E+01  0.50659E+05
 0.28200002E+01  0.58456E+05
 0.28699999E+01  0.66573E+05
 0.29200001E+01  0.73678E+05
 0.29700003E+01  0.77190E+05
 0.30200000E+01  0.78007E+05
 0.30700002E+01  0.75793E+05
 0.31199999E+01  0.70587E+05
 0.31700001E+01  0.62587E+05
 0.32200003E+01  0.55981E+05
 0.32700000E+01  0.52897E+05
 0.33200002E+01  0.48467E+05
 0.33699999E+01  0.42394E+05
 0.34200001E+01  0.37302E+05
 0.34700003E+01  0.37867E+05
 0.35200000E+01  0.41925E+05
 0.35700002E+01  0.43865E+05
 0.36199999E+01  0.45677E+05
 0.36700001E+01  0.49497E+05
 0.37200003E+01  0.54314E+05
 0.37700000E+01  0.55922E+05
 0.38200002E+01  0.54396E+05
 0.38699999E+01  0.53547E+05
 0.39200001E+01  0.52422E+05
 0.39700003E+01  0.50400E+05
 0.40200000E+01  0.48113E+05
 0.40700002E+01  0.46235E+05
 0.41199999E+01  0.44484E+05
 0.41700001E+01  0.42404E+05
 0.42200003E+01  0.41268E+05
 0.42700000E+01  0.38843E+05
 0.43200002E+01  0.35440E+05
 0.43699999E+01  0.30081E+05
 0.44200001E+01  0.20240E+05
 0.44700003E+01  0.93390E+04
 0.45200000E+01 -0.27800E+03
 0.45700002E+01 -0.55110E+04
 0.46199999E+01 -0.58680E+04
 0.46700001E+01 -0.54660E+04
 0.47200003E+01 -0.95170E+04
 0.47700000E+01 -0.18917E+05
 0.48200002E+01 -0.28909E+05
 0.48699999E+01 -0.35630E+05
 0.49200001E+01 -0.36947E+05
 0.49700003E+01 -0.34763E+05
 0.50200000E+01 -0.31556E+05
 0.50700002E+01 -0.28618E+05
 0.51200004E+01 -0.27953E+05
 0.51700006E+01 -0.28179E+05
 0.52199998E+01 -0.25790E+05
 0.52700000E+01 -0.21797E+05
 0.53200002E+01 -0.18916E+05
 0.53700004E+01 -0.18564E+05
 0.54200006E+01 -0.20705E+05
 0.54699998E+01 -0.22587E+05
 0.55200000E+01 -0.23478E+05
 0.55700002E+01 -0.22929E+05
 0.56200004E+01 -0.18865E+05
 0.56700006E+01 -0.12385E+05
 0.57199998E+01 -0.44640E+04
 0.57700000E+01  0.47800E+04
 0.58200002E+01  0.10869E+05
 0.58700004E+01  0.13970E+05
 0.59200006E+01  0.17215E+05
 0.59699998E+01  0.18558E+05
 0.60200000E+01  0.18954E+05
 0.60700002E+01  0.19041E+05
 0.61200004E+01  0.17483E+05
 0.61700006E+01  0.13834E+05
 0.62199998E+01  0.71940E+04
 0.62700000E+01 -0.24460E+04
 0.63200002E+01 -0.11845E+05
 0.63700004E+01 -0.14391E+05
 0.64200006E+01 -0.12319E+05
 0.64699998E+01 -0.10898E+05
 0.65200000E+01 -0.84750E+04
 0.65700002E+01 -0.51320E+04
 0.66200004E+01 -0.14800E+04
 0.66700006E+01  0.37920E+04
 0.67199998E+01  0.16278E+05
 0.67700000E+01  0.31652E+05
 0.68200002E+01  0.40169E+05
 0.68700004E+01  0.45830E+05
 0.69200006E+01  0.47092E+05
 0.69699998E+01  0.47208E+05
 0.70200000E+01  0.51969E+05
 0.70700002E+01  0.54669E+05
 0.71200004E+01  0.55499E+05
 0.71700006E+01  0.56057E+05
 0.72199998E+01  0.55700E+05
 0.72700000E+01  0.54102E+05
 0.73200002E+01  0.49407E+05
 0.73700004E+01  0.45270E+05
 0.74200006E+01  0.42801E+05
 0.74699998E+01  0.37523E+05
 0.75200000E+01  0.28004E+05
 0.75700002E+01  0.14389E+05
 0.76200004E+01  0.31640E+04
 0.76700006E+01  0.68200E+03
 0.77199998E+01  0.84500E+03
 0.77700000E+01 -0.12230E+04
 0.78200002E+01 -0.55100E+04
 0.78700004E+01 -0.10858E+05
 0.79200006E+01 -0.12230E+05
 0.79699998E+01 -0.75240E+04
 0.80200005E+01  0.42700E+03
 0.80699997E+01  0.70980E+04
 0.81200008E+01  0.10604E+05
 0.81700001E+01  0.17575E+05
 0.82199993E+01  0.25089E+05
 0.82700005E+01  0.32592E+05
 0.83199997E+01  0.37973E+05
 0.83700008E+01  0.37938E+05
 0.84200001E+01  0.47185E+05
 0.84699993E+01  0.45603E+05
 0.85200005E+01  0.73738E+05
 0.85699997E+01  0.98405E+05
 0.86200008E+01  0.21982E+06
 0.86700001E+01  0.12981E+07
 0.87199993E+01  0.30418E+07
 0.87700005E+01  0.29567E+07
 0.88199997E+01  0.87373E+06
 0.88700008E+01 -0.11310E+07
 0.89200001E+01 -0.19789E+07
 0.89699993E+01  0.34198E+06
 0.90200005E+01  0.43999E+07
 0.90699997E+01  0.60656E+07
 0.91200008E+01  0.49720E+07
 0.91700001E+01  0.10877E+07
 0.92199993E+01 -0.20384E+07
 0.92700005E+01 -0.96137E+06
 0.93199997E+01  0.19061E+07
 0.93700008E+01  0.61212E+07
 0.94200001E+01  0.10160E+08
 0.94699993E+01  0.10955E+08
 0.95200005E+01  0.59337E+07
 0.95699997E+01  0.24282E+06
 0.96200008E+01  0.18448E+07
 0.96700001E+01  0.49744E+07
 0.97199993E+01  0.81819E+07
 0.97700005E+01  0.63984E+07
 0.98199997E+01 -0.73026E+06
 0.98700008E+01  0.24121E+07
 0.99200001E+01  0.56956E+07
 0.99699993E+01  0.12467E+07
 0.10020000E+02 -0.33190E+07
 0.10070000E+02 -0.69217E+07
 0.10120001E+02 -0.59447E+07
 0.10170000E+02  0.17977E+07
 0.10219999E+02  0.92151E+07
 0.10270000E+02  0.33298E+06
 0.10320000E+02 -0.94990E+07
 0.10370001E+02 -0.56320E+07
 0.10420000E+02 -0.21796E+07
 0.10469999E+02  0.48482E+06
 0.10520000E+02 -0.74343E+06
 0.10570000E+02 -0.45096E+06
 0.10620001E+02  0.21712E+07
 0.10670000E+02  0.13402E+07
 0.10719999E+02  0.65374E+07
 0.10770000E+02  0.53057E+07
 0.10820000E+02 -0.47943E+07
 0.10870001E+02 -0.44576E+07
 0.10920000E+02  0.25264E+07
 0.10969999E+02  0.57576E+07
 0.11020000E+02  0.83725E+07
 0.11070000E+02  0.10543E+08
 0.11120001E+02  0.11407E+08
 0.11170000E+02  0.47195E+07
 0.11219999E+02 -0.27813E+07
 0.11270000E+02  0.46341E+07
 0.11320000E+02  0.61392E+07
 0.11370001E+02  0.82875E+06
 0.11420000E+02  0.53370E+07
 0.11469999E+02  0.15029E+08
 0.11520000E+02  0.18156E+08
 0.11570000E+02  0.39684E+07
 0.11620001E+02 -0.90909E+07
 0.11670000E+02 -0.84229E+07
 0.11719999E+02 -0.10691E+07
 0.11770000E+02  0.30044E+07
 0.11820000E+02  0.40736E+07
 0.11870001E+02  0.46751E+07
 0.11920000E+02 -0.15619E+07
 0.11969999E+02 -0.72883E+07
 0.12020000E+02 -0.69732E+07
 0.12070000E+02  0.64140E+06
 0.12120001E+02 -0.31960E+07
 0.12170000E+02 -0.11182E+08
 0.12219999E+02  0.12478E+07
 0.12270000E+02  0.86500E+07
 0.12320000E+02  0.64286E+07
 0.12370001E+02 -0.20454E+07
 0.12420000E+02 -0.14123E+08
 0.12469999E+02 -0.11530E+08
 0.12520000E+02 -0.36025E+07
 0.12570000E+02  0.25383E+07
 0.12620001E+02  0.13741E+07
 0.12670000E+02 -0.30470E+07
 0.12719999E+02  0.60962E+07
 0.12770000E+02  0.12927E+08
 0.12820000E+02  0.81551E+07
 0.12870001E+02  0.13737E+05
 0.12920000E+02 -0.87892E+07
 0.12969999E+02 -0.64755E+07
 0.13020000E+02  0.30423E+07
 0.13070002E+02  0.12745E+08
 0.13120001E+02  0.14028E+08
 0.13170000E+02  0.44526E+07
 0.13220001E+02  0.37488E+07
 0.13270000E+02  0.29373E+07
 0.13320002E+02 -0.12328E+07
 0.13370001E+02 -0.96005E+06
 0.13420000E+02  0.79801E+06
 0.13470001E+02  0.34654E+07
 0.13520000E+02  0.18086E+07
 0.13570002E+02  0.44045E+07
 0.13620001E+02  0.33476E+07
 0.13670000E+02 -0.71143E+07
 0.13720001E+02 -0.93134E+07
 0.13770000E+02 -0.76126E+07
 0.13820002E+02 -0.56422E+07
 0.13870001E+02  0.33104E+07
 0.13920000E+02  0.84974E+07
 0.13970001E+02  0.17415E+05
 0.14020000E+02 -0.13883E+08
 0.14070002E+02 -0.22627E+08
 0.14120001E+02 -0.21507E+08
 0.14170000E+02 -0.12804E+08
 0.14220001E+02 -0.37038E+07
 0.14270000E+02 -0.49125E+07
 0.14320002E+02 -0.10663E+08
 0.14370001E+02 -0.46707E+07
 0.14420000E+02 -0.13975E+07
 0.14470001E+02 -0.56514E+07
 0.14520000E+02 -0.10044E+08
 0.14570002E+02 -0.17697E+08
 0.14620001E+02 -0.16900E+08
 0.14670000E+02 -0.11365E+08
 0.14720001E+02 -0.59649E+07
 0.14770000E+02 -0.18308E+07
 0.14820002E+02  0.11012E+07
 0.14870001E+02  0.18518E+08
 0.14920000E+02  0.36795E+08
 0.14970001E+02  0.39133E+08
 0.15020000E+02  0.38422E+08
 0.15070002E+02  0.39245E+08
 0.15120001E+02  0.38373E+08
 0.15170000E+02  0.39084E+08
 0.15220001E+02  0.24390E+08
 0.15270000E+02  0.38404E+07
 0.15320002E+02 -0.54449E+07
 0.15370001E+02 -0.15437E+08
 0.15420000E+02 -0.94896E+07
 0.15470001E+02  0.28417E+07
 0.15520000E+02  0.67358E+07
 0.15570002E+02 -0.45361E+07
 0.15620001E+02 -0.30654E+08
 0.15670000E+02 -0.39455E+08
 0.15720001E+02 -0.38546E+08
 0.15770000E+02 -0.39067E+08
 0.15820002E+02 -0.38932E+08
 0.15870001E+02 -0.38664E+08
 0.15920000E+02 -0.39409E+08
 0.15970001E+02 -0.37180E+08
 0.16020000E+02 -0.19621E+08
 0.16070002E+02 -0.48202E+07
 0.16120001E+02 -0.96728E+07
 0.16170000E+02 -0.25562E+08
 0.16220001E+02 -0.36807E+08
 0.16270000E+02 -0.38054E+08
 0.16320002E+02 -0.38310E+08
 0.16370001E+02 -0.39115E+08
 0.16420000E+02 -0.38629E+08
 0.16470001E+02 -0.39013E+08
 0.16520000E+02 -0.38571E+08
 0.16570002E+02 -0.38978E+08
 0.16620001E+02 -0.38522E+08
 0.16670000E+02 -0.38912E+08
 0.16720001E+02 -0.35727E+08
 0.16770000E+02 -0.21584E+08
 0.16820002E+02 -0.11419E+08
 0.16870001E+02 -0.92734E+07
 0.16920000E+02 -0.20414E+08
 0.16970001E+02 -0.36581E+08
 0.17020000E+02 -0.39644E+08
 0.17070002E+02 -0.31702E+08
 0.17120001E+02 -0.17000E+08
 0.17170000E+02 -0.17453E+08
 0.17220001E+02 -0.27009E+08
 0.17270000E+02 -0.28025E+08
 0.17320002E+02 -0.28162E+08
 0.17370001E+02 -0.27799E+08
 0.17420000E+02 -0.28720E+08
 0.17470001E+02 -0.25120E+08
 0.17520000E+02 -0.13450E+08
 0.17570002E+02 -0.11842E+08
 0.17620001E+02 -0.28048E+08
 0.17670000E+02 -0.39198E+08
 0.17720001E+02 -0.38538E+08
 0.17770000E+02 -0.38823E+08
 0.17820002E+02 -0.38862E+08
 0.17870001E+02 -0.38624E+08
 0.17920000E+02 -0.39010E+08
 0.17970001E+02 -0.38579E+08
 0.18020000E+02 -0.38896E+08
 0.18070002E+02 -0.38715E+08
 0.18120001E+02 -0.38639E+08
 0.18170000E+02 -0.39345E+08
 0.18220001E+02 -0.34550E+08
 0.18270000E+02 -0.29976E+08
 0.18320002E+02 -0.29978E+08
 0.18370001E+02 -0.28659E+08
 0.18420000E+02 -0.27718E+08
 0.18470001E+02 -0.28306E+08
 0.18520000E+02 -0.27539E+08
 0.18570002E+02 -0.28183E+08
 0.18620001E+02 -0.21839E+08
 0.18670000E+02 -0.92956E+07
 0.18720001E+02 -0.65276E+07
 0.18770000E+02  0.15209E+07
 0.18820002E+02  0.11201E+08
 0.18870001E+02  0.14944E+08
 0.18920000E+02  0.12366E+08
 0.18970001E+02 -0.52734E+07
 0.19020000E+02 -0.24636E+08
 0.19070002E+02 -0.38271E+08
 0.19120001E+02 -0.38957E+08
 0.19170000E+02 -0.39291E+08
 0.19220001E+02 -0.36814E+08
 0.19270000E+02 -0.23296E+08
 0.19320002E+02 -0.24338E+08
 0.19370001E+02 -0.30467E+08
 0.19420000E+02 -0.31546E+08
 0.19470001E+02 -0.28614E+08
 0.19520000E+02 -0.22549E+08
 0.19570002E+02 -0.29289E+08
 0.19620001E+02 -0.38412E+08
 0.19670000E+02 -0.38817E+08
 0.19720001E+02 -0.38695E+08
 0.19770000E+02 -0.38895E+08
 0.19820002E+02 -0.38874E+08
 0.19870001E+02 -0.38944E+08
 0.19920000E+02 -0.38893E+08
 0.19970001E+02 -0.38882E+08
 0.20020000E+02 -0.38944E+08
 0.20070002E+02 -0.38554E+08
 0.20120001E+02 -0.33962E+08
 0.20170000E+02 -0.23212E+08
 0.20220001E+02 -0.85608E+07
 0.20270000E+02  0.84369E+07
 0.20320002E+02  0.22616E+08
 0.20370001E+02  0.28452E+08
 0.20420000E+02  0.27322E+08
 0.20470001E+02  0.19980E+08
 0.20520000E+02  0.15154E+08
 0.20570002E+02  0.18327E+08
 0.20620001E+02  0.16829E+08
 0.20670000E+02  0.60278E+07
 0.20720001E+02 -0.95542E+07
 0.20770000E+02 -0.27397E+08
 0.20820002E+02 -0.38439E+08
 0.20870001E+02 -0.38831E+08
 0.20920000E+02 -0.38894E+08
 0.20970001E+02 -0.38508E+08
 0.21020000E+02 -0.32510E+08
 0.21070002E+02 -0.30778E+08
 0.21120001E+02 -0.32090E+08
 0.21170000E+02 -0.30307E+08
 0.21220001E+02 -0.31630E+08
 0.21270000E+02 -0.29730E+08
 0.21320002E+02 -0.18039E+08
 0.21370001E+02 -0.58541E+07
 0.21420000E+02  0.19059E+07
 0.21470001E+02  0.34216E+07
 0.21520000E+02 -0.19452E+07
 0.21570002E+02 -0.65578E+07
 0.21620001E+02 -0.12907E+08
 0.21670000E+02 -0.23726E+08
 0.21720001E+02 -0.30055E+08
 0.21770000E+02 -0.31002E+08
 0.21820002E+02 -0.30125E+08
 0.21870001E+02 -0.32138E+08
 0.21920000E+02 -0.36418E+08
 0.21970001E+02 -0.37379E+08
 0.22020000E+02 -0.34584E+08
 0.22070002E+02 -0.27074E+08
 0.22120001E+02 -0.19028E+08
 0.22170000E+02 -0.14979E+08
 0.22220001E+02 -0.13341E+08
 0.22270000E+02 -0.13883E+08
 0.22320002E+02 -0.19158E+08
 0.22370001E+02 -0.23513E+08
 0.22420000E+02 -0.18851E+08
 0.22470001E+02 -0.11728E+08
 0.22520000E+02 -0.11220E+08
 0.22570002E+02 -0.21886E+08
 0.22620001E+02 -0.35686E+08
 0.22670000E+02 -0.39912E+08
 0.22720001E+02 -0.35716E+08
 0.22770000E+02 -0.26278E+08
 0.22820002E+02 -0.14030E+08
 0.22870001E+02 -0.36065E+07
 0.22920000E+02  0.20662E+07
 0.22970001E+02  0.36847E+07
 0.23020000E+02  0.26370E+07
 0.23070002E+02  0.26296E+07
 0.23120001E+02  0.47675E+07
 0.23170000E+02  0.58879E+07
 0.23220001E+02  0.52194E+07
 0.23270000E+02  0.18260E+07
 0.23320002E+02 -0.43059E+07
 0.23370001E+02 -0.12005E+08
 0.23420000E+02 -0.17796E+08
 0.23470001E+02 -0.21217E+08
 0.23520000E+02 -0.22697E+08
 0.23570002E+02 -0.22584E+08
 0.23620001E+02 -0.22348E+08
 0.23670000E+02 -0.25447E+08
 0.23720001E+02 -0.32917E+08
 0.23770000E+02 -0.33791E+08
 0.23820002E+02 -0.29512E+08
 0.23870001E+02 -0.25465E+08
 0.23920000E+02 -0.22868E+08
 0.23970001E+02 -0.26326E+08
 0.24020000E+02 -0.28335E+08
 0.24070002E+02 -0.27165E+08
 0.24120001E+02 -0.25658E+08
 0.24170000E+02 -0.22172E+08
 0.24220001E+02 -0.20890E+08
 0.24270000E+02 -0.21708E+08
 0.24320002E+02 -0.19691E+08
 0.24370001E+02 -0.13669E+08
 0.24420000E+02 -0.43761E+07
 0.24470001E+02  0.52193E+07
 0.24520000E+02  0.13330E+08
 0.24570002E+02  0.18785E+08
 0.24620001E+02  0.21136E+08
 0.24670000E+02  0.21201E+08
 0.24720001E+02  0.15292E+08
 0.24770000E+02  0.64662E+07
 0.24820002E+02 -0.10248E+07
 0.24870001E+02 -0.67831E+07
 0.24920000E+02 -0.11484E+08
 0.24970001E+02 -0.16571E+08
 0.25020000E+02 -0.19657E+08
 0.25070002E+02 -0.22981E+08
 0.25120001E+02 -0.23457E+08
 0.25170000E+02 -0.19916E+08
 0.25220001E+02 -0.17125E+08
 0.25270000E+02 -0.16193E+08
 0.25320002E+02 -0.17566E+08
 0.25370001E+02 -0.18278E+08
 0.25420000E+02 -0.20791E+08
 0.25470001E+02 -0.25673E+08
 0.25520000E+02 -0.32133E+08
 0.25570002E+02 -0.37986E+08
 0.25620001E+02 -0.38707E+08
 0.25670000E+02 -0.39151E+08
 0.25720001E+02 -0.37345E+08
 0.25770000E+02 -0.32731E+08
 0.25820002E+02 -0.28725E+08
 0.25870001E+02 -0.22566E+08
 0.25920000E+02 -0.20545E+08
 0.25970001E+02 -0.21841E+08
 0.26020000E+02 -0.19928E+08
 0.26070002E+02 -0.15646E+08
 0.26120001E+02 -0.80570E+07
 0.26170000E+02 -0.19802E+07
 0.26220001E+02  0.10654E+07
 0.26270000E+02  0.32879E+07
 0.26320002E+02  0.44668E+07
 0.26370001E+02  0.57090E+07
 0.26420000E+02  0.28907E+07
 0.26470001E+02 -0.18672E+07
 0.26520000E+02 -0.42639E+07
 0.26570002E+02 -0.40226E+07
 0.26620001E+02  0.15689E+07
 0.26670000E+02  0.55129E+07
 0.26720001E+02  0.23091E+07
 0.26770000E+02 -0.53151E+07
 0.26820002E+02 -0.15177E+08
 0.26870001E+02 -0.22162E+08
 0.26920000E+02 -0.25413E+08
 0.26970001E+02 -0.26869E+08
 0.27020000E+02 -0.26517E+08
 0.27070002E+02 -0.23892E+08
 0.27120001E+02 -0.21140E+08
 0.27170000E+02 -0.23348E+08
 0.27220001E+02 -0.28241E+08
 0.27270000E+02 -0.29946E+08
 0.27320002E+02 -0.28692E+08
 0.27370001E+02 -0.24543E+08
 0.27420000E+02 -0.16916E+08
 0.27470001E+02 -0.11968E+08
 0.27520000E+02 -0.13942E+08
 0.27570002E+02 -0.19400E+08
 0.27620001E+02 -0.23085E+08
 0.27670000E+02 -0.23737E+08
 0.27720001E+02 -0.22670E+08
 0.27770000E+02 -0.20015E+08
 0.27820002E+02 -0.17093E+08
 0.27870001E+02 -0.12953E+08
 0.27920000E+02 -0.77225E+07
 0.27970001E+02 -0.40781E+07
 0.28020000E+02 -0.20133E+07
 0.28070002E+02 -0.35850E+06
 0.28120001E+02  0.11794E+07
 0.28170000E+02 -0.59198E+06
 0.28220001E+02 -0.48472E+07
 0.28270000E+02 -0.60803E+07
 0.28320002E+02 -0.47006E+07
 0.28370001E+02 -0.31894E+07
 0.28420000E+02 -0.22162E+07
 0.28470001E+02 -0.25579E+07
 0.28520000E+02 -0.35409E+07
 0.28570002E+02 -0.49661E+07
 0.28620001E+02 -0.79363E+07
 0.28670000E+02 -0.12449E+08
 0.28720001E+02 -0.16655E+08
 0.28770000E+02 -0.18940E+08
 0.28820002E+02 -0.19327E+08
 0.28870001E+02 -0.17770E+08
 0.28920000E+02 -0.16480E+08
 0.28970001E+02 -0.18031E+08
 0.29020000E+02 -0.20208E+08
 0.29070000E+02 -0.19224E+08
 0.29120003E+02 -0.16858E+08
 0.29170002E+02 -0.15882E+08
 0.29220001E+02 -0.15904E+08
 0.29270000E+02 -0.17708E+08
 0.29320000E+02 -0.19324E+08
 0.29370003E+02 -0.18338E+08
 0.29420002E+02 -0.16035E+08
 0.29470001E+02 -0.13747E+08
 0.29520000E+02 -0.10381E+08
 0.29570000E+02 -0.67098E+07
 0.29620003E+02 -0.50938E+07
 0.29670002E+02 -0.62797E+07
 0.29720001E+02 -0.10736E+08
 0.29770000E+02 -0.15235E+08
 0.29820000E+02 -0.15294E+08
 0.29870003E+02 -0.10940E+08
 0.29920002E+02 -0.69130E+07
 0.29970001E+02 -0.62363E+07
 0.30020000E+02 -0.77046E+07
 0.30070000E+02 -0.81441E+07
 0.30120003E+02 -0.76444E+07
 0.30170002E+02 -0.89519E+07
 0.30220001E+02 -0.10663E+08
 0.30270000E+02 -0.10111E+08
 0.30320000E+02 -0.80858E+07
 0.30370003E+02 -0.88110E+07
 0.30420002E+02 -0.11073E+08
 0.30470001E+02 -0.11235E+08
 0.30520000E+02 -0.97958E+07
 0.30570000E+02 -0.92474E+07
 0.30620003E+02 -0.11493E+08
 0.30670002E+02 -0.13096E+08
 0.30720001E+02 -0.13322E+08
 0.30770000E+02 -0.12485E+08
 0.30820000E+02 -0.90342E+07
 0.30870003E+02 -0.63832E+07
 0.30920002E+02 -0.53999E+07
 0.30970001E+02 -0.47788E+07
 0.31020000E+02 -0.41166E+07
 0.31070000E+02 -0.36195E+07
 0.31120003E+02 -0.46292E+07
 0.31170002E+02 -0.52242E+07
 0.31220001E+02 -0.49030E+07
 0.31270000E+02 -0.46018E+07
 0.31320000E+02 -0.46907E+07
 0.31370003E+02 -0.65156E+07
 0.31420002E+02 -0.79012E+07
 0.31470001E+02 -0.85649E+07
 0.31520000E+02 -0.10556E+08
 0.31570000E+02 -0.12666E+08
 0.31620003E+02 -0.14834E+08
 0.31670002E+02 -0.16522E+08
 0.31720001E+02 -0.18401E+08
 0.31770000E+02 -0.20621E+08
 0.31820000E+02 -0.20855E+08
 0.31870003E+02 -0.20314E+08
 0.31920002E+02 -0.20309E+08
 0.31970001E+02 -0.21309E+08
 0.32020000E+02 -0.22961E+08
 0.32070000E+02 -0.25271E+08
 0.32120003E+02 -0.27569E+08
 0.32170002E+02 -0.26871E+08
 0.32220001E+02 -0.22870E+08
 0.32270000E+02 -0.17919E+08
 0.32320000E+02 -0.13783E+08
 0.32370003E+02 -0.10164E+08
 0.32420002E+02 -0.73051E+07
 0.32470001E+02 -0.68437E+07
 0.32520000E+02 -0.82033E+07
 0.32570000E+02 -0.80823E+07
 0.32620003E+02 -0.46744E+07
 0.32670002E+02  0.44955E+06
 0.32720001E+02  0.32482E+07
 0.32770000E+02  0.14129E+07
 0.32820000E+02 -0.17029E+07
 0.32870003E+02 -0.39452E+07
 0.32920002E+02 -0.46425E+07
 0.32970001E+02 -0.25358E+07
 0.33020000E+02 -0.58265E+06
 0.33070000E+02  0.45888E+06
 0.33120003E+02  0.90169E+06
 0.33170002E+02 -0.34986E+05
 0.33220001E+02 -0.61110E+06
 0.33270000E+02 -0.53272E+06
 0.33320000E+02 -0.58632E+06
 0.33370003E+02 -0.23133E+07
 0.33420002E+02 -0.56512E+07
 0.33470001E+02 -0.90630E+07
 0.33520000E+02 -0.11969E+08
 0.33570000E+02 -0.13144E+08
 0.33620003E+02 -0.13087E+08
 0.33670002E+02 -0.14058E+08
 0.33720001E+02 -0.16506E+08
 0.33770000E+02 -0.18728E+08
 0.33820000E+02 -0.20039E+08
 0.33870003E+02 -0.20768E+08
 0.33920002E+02 -0.20768E+08
 0.33970001E+02 -0.21382E+08
 0.34020000E+02 -0.22114E+08
 0.34070000E+02 -0.20944E+08
 0.34120003E+02 -0.18498E+08
 0.34170002E+02 -0.16242E+08
 0.34220001E+02 -0.15755E+08
 0.34270000E+02 -0.15400E+08
 0.34320000E+02 -0.13962E+08
 0.34370003E+02 -0.12067E+08
 0.34420002E+02 -0.81944E+07
 0.34470001E+02 -0.38743E+07
 0.34520000E+02 -0.13629E+07
 0.34570000E+02 -0.21161E+06
 0.34620003E+02  0.12112E+06
 0.34670002E+02  0.48340E+06
 0.34720001E+02  0.20630E+07
 0.34770000E+02  0.42053E+07
 0.34820000E+02  0.46880E+07
 0.34870003E+02  0.30529E+07
 0.34920002E+02  0.53155E+06
 0.34970001E+02 -0.95302E+06
 0.35020000E+02  0.36766E+06
 0.35070000E+02  0.12519E+07
 0.35120003E+02 -0.18113E+07
 0.35170002E+02 -0.67375E+07
 0.35220001E+02 -0.11723E+08
 0.35270000E+02 -0.15406E+08
 0.35320000E+02 -0.16634E+08
 0.35370003E+02 -0.16428E+08
 0.35420002E+02 -0.16268E+08
 0.35470001E+02 -0.17146E+08
 0.35520000E+02 -0.17910E+08
 0.35570000E+02 -0.17841E+08
 0.35620003E+02 -0.17800E+08
 0.35670002E+02 -0.16347E+08
 0.35720001E+02 -0.13046E+08
 0.35770000E+02 -0.91402E+07
 0.35820000E+02 -0.54520E+07
 0.35870003E+02 -0.42113E+07
 0.35920002E+02 -0.63991E+07
 0.35970001E+02 -0.92983E+07
 0.36020000E+02 -0.99144E+07
 0.36070000E+02 -0.92579E+07
 0.36120003E+02 -0.93193E+07
 0.36170002E+02 -0.10585E+08
 0.36220001E+02 -0.12871E+08
 0.36270000E+02 -0.14180E+08
 0.36320000E+02 -0.13231E+08
 0.36370003E+02 -0.10962E+08
 0.36420002E+02 -0.87524E+07
 0.36470001E+02 -0.68139E+07
 0.36520000E+02 -0.52695E+07
 0.36570000E+02 -0.54575E+07
 0.36620003E+02 -0.59096E+07
 0.36670002E+02 -0.49295E+07
 0.36720001E+02 -0.35146E+07
 0.36770000E+02 -0.21757E+07
 0.36820000E+02 -0.17999E+07
 0.36870003E+02 -0.28032E+07
 0.36920002E+02 -0.39050E+07
 0.36970001E+02 -0.42573E+07
 0.37020000E+02 -0.35411E+07
 0.37070000E+02 -0.19688E+07
 0.37120003E+02 -0.10908E+07
 0.37170002E+02 -0.17760E+07
 0.37220001E+02 -0.32061E+07
 0.37270000E+02 -0.28862E+07
 0.37320000E+02 -0.14883E+07
 0.37370003E+02 -0.20871E+07
 0.37420002E+02 -0.34458E+07
 0.37470001E+02 -0.40859E+07
 0.37520000E+02 -0.40095E+07
 0.37570000E+02 -0.42380E+07
 0.37620003E+02 -0.52946E+07
 0.37670002E+02 -0.63758E+07
 0.37720001E+02 -0.83448E+07
 0.37770000E+02 -0.11359E+08
 0.37820000E+02 -0.14426E+08
 0.37870003E+02 -0.16764E+08
 0.37920002E+02 -0.17460E+08
 0.37970001E+02 -0.16332E+08
 0.38020000E+02 -0.14742E+08
 0.38070000E+02 -0.14137E+08
 0.38120003E+02 -0.14753E+08
 0.38170002E+02 -0.15787E+08
 0.38220001E+02 -0.15811E+08
 0.38270000E+02 -0.14084E+08
 0.38320000E+02 -0.11578E+08
 0.38370003E+02 -0.95161E+07
 0.38420002E+02 -0.69748E+07
 0.38470001E+02 -0.33192E+07
 0.38520000E+02 -0.53821E+06
 0.38570000E+02 -0.23972E+06
 0.38620003E+02 -0.18608E+06
 0.38670002E+02  0.21986E+07
 0.38720001E+02  0.55592E+07
 0.38770000E+02  0.71060E+07
 0.38820000E+02  0.55648E+07
 0.38870003E+02  0.29675E+07
 0.38920002E+02  0.15606E+07
 0.38970001E+02  0.72986E+06
 0.39020000E+02 -0.11402E+07
 0.39070000E+02 -0.44765E+07
 0.39120003E+02 -0.77278E+07
 0.39170002E+02 -0.10803E+08
 0.39220001E+02 -0.14652E+08
 0.39270000E+02 -0.17729E+08
 0.39320000E+02 -0.18689E+08
 0.39370003E+02 -0.17256E+08
 0.39420002E+02 -0.14234E+08
 0.39470001E+02 -0.12532E+08
 0.39520000E+02 -0.13136E+08
 0.39570000E+02 -0.15220E+08
 0.39620003E+02 -0.16824E+08
 0.39670002E+02 -0.15499E+08
 0.39720001E+02 -0.12639E+08
 0.39770000E+02 -0.10635E+08
 0.39820000E+02 -0.97990E+07
 0.39870003E+02 -0.89836E+07
 0.39920002E+02 -0.71134E+07
 0.39970001E+02 -0.44140E+07
 0.40020000E+02 -0.18590E+07
 0.40070000E+02 -0.63621E+06
 0.40120003E+02 -0.82144E+06
 0.40170002E+02 -0.13595E+07
 0.40220001E+02 -0.11336E+07
 0.40270000E+02 -0.49144E+06
 0.40320000E+02 -0.33616E+06
 0.40370003E+02 -0.11082E+07
 0.40420002E+02 -0.23968E+07
 0.40470001E+02 -0.28704E+07
 0.40520000E+02 -0.38709E+07
 0.40570000E+02 -0.61896E+07
 0.40620003E+02 -0.74099E+07
 0.40670002E+02 -0.72168E+07
 0.40720001E+02 -0.69085E+07
 0.40770000E+02 -0.66964E+07
 0.40820000E+02 -0.61478E+07
 0.40870003E+02 -0.54221E+07
 0.40920002E+02 -0.51392E+07
 0.40970001E+02 -0.48995E+07
 0.41020000E+02 -0.44491E+07
 0.41070000E+02 -0.41431E+07
 0.41120003E+02 -0.39148E+07
 0.41170002E+02 -0.38827E+07
 0.41220001E+02 -0.47871E+07
 0.41270000E+02 -0.59482E+07
 0.41320000E+02 -0.59260E+07
 0.41370003E+02 -0.55310E+07
 0.41420002E+02 -0.60421E+07
 0.41470001E+02 -0.74385E+07
 0.41520000E+02 -0.86890E+07
 0.41570000E+02 -0.85698E+07
 0.41620003E+02 -0.74864E+07
 0.41670002E+02 -0.66939E+07
 0.41720001E+02 -0.64187E+07
 0.41770000E+02 -0.62242E+07
 0.41820000E+02 -0.56958E+07
 0.41870003E+02 -0.47529E+07
 0.41920002E+02 -0.38943E+07
 0.41970001E+02 -0.36234E+07
 0.42020000E+02 -0.41807E+07
 0.42070000E+02 -0.55229E+07
 0.42120003E+02 -0.64428E+07
 0.42170002E+02 -0.57106E+07
 0.42220001E+02 -0.40396E+07
 0.42270000E+02 -0.28402E+07
 0.42320000E+02 -0.31644E+07
 0.42370003E+02 -0.51879E+07
 0.42420002E+02 -0.73517E+07
 0.42470001E+02 -0.84586E+07
 0.42520000E+02 -0.91237E+07
 0.42570000E+02 -0.95903E+07
 0.42620003E+02 -0.95908E+07
 0.42670002E+02 -0.90449E+07
 0.42720001E+02 -0.76578E+07
 0.42770000E+02 -0.60236E+07
 0.42820000E+02 -0.54773E+07
 0.42870003E+02 -0.62198E+07
 0.42920002E+02 -0.70437E+07
 0.42970001E+02 -0.78034E+07
 0.43020000E+02 -0.84052E+07
 0.43070000E+02 -0.80502E+07
 0.43120003E+02 -0.74065E+07
 0.43170002E+02 -0.66918E+07
 0.43220001E+02 -0.62423E+07
 0.43270000E+02 -0.60122E+07
 0.43320000E+02 -0.49978E+07
 0.43370003E+02 -0.31229E+07
 0.43420002E+02 -0.42575E+06
 0.43470001E+02  0.21890E+07
 0.43520000E+02  0.47259E+07
 0.43570000E+02  0.67476E+07
 0.43620003E+02  0.67555E+07
 0.43670002E+02  0.51804E+07
 0.43720001E+02  0.28309E+07
 0.43770000E+02  0.56627E+06
 0.43820000E+02 -0.17296E+07
 0.43870003E+02 -0.47282E+07
 0.43920002E+02 -0.81905E+07
 0.43970001E+02 -0.11022E+08
 0.44020000E+02 -0.12171E+08
 0.44070000E+02 -0.11220E+08
 0.44120003E+02 -0.88525E+07
 0.44170002E+02 -0.77055E+07
 0.44220001E+02 -0.80413E+07
 0.44270000E+02 -0.85960E+07
 0.44320000E+02 -0.83369E+07
 0.44370003E+02 -0.64127E+07
 0.44420002E+02 -0.46637E+07
 0.44470001E+02 -0.38146E+07
 0.44520000E+02 -0.35054E+07
 0.44570000E+02 -0.37857E+07
 0.44620003E+02 -0.40756E+07
 0.44670002E+02 -0.45091E+07
 0.44720001E+02 -0.52242E+07
 0.44770000E+02 -0.56428E+07
 0.44820000E+02 -0.58995E+07
 0.44870003E+02 -0.68198E+07
 0.44920002E+02 -0.78136E+07
 0.44970001E+02 -0.79276E+07
 0.45020000E+02 -0.68439E+07
 0.45070000E+02 -0.51325E+07
 0.45120003E+02 -0.37516E+07
 0.45170002E+02 -0.31087E+07
 0.45220001E+02 -0.34953E+07
 0.45270000E+02 -0.40243E+07
 0.45320000E+02 -0.39408E+07
 0.45370003E+02 -0.37739E+07
 0.45420002E+02 -0.43381E+07
 0.45470001E+02 -0.51323E+07
 0.45520000E+02 -0.48758E+07
 0.45570000E+02 -0.34700E+07
 0.45620003E+02 -0.16744E+07
 0.45670002E+02 -0.80998E+06
 0.45720001E+02 -0.11658E+07
 0.45770000E+02 -0.22690E+07
 0.45820000E+02 -0.31897E+07
 0.45870003E+02 -0.30751E+07
 0.45920002E+02 -0.27204E+07
 0.45970001E+02 -0.21021E+07
 0.46020000E+02 -0.12439E+07
 0.46070000E+02 -0.46947E+06
 0.46120003E+02  0.42794E+06
 0.46170002E+02  0.68523E+06
 0.46220001E+02  0.58938E+05
 0.46270000E+02 -0.12533E+07
 0.46320000E+02 -0.25006E+07
 0.46370003E+02 -0.29987E+07
 0.46420002E+02 -0.29371E+07
 0.46470001E+02 -0.24294E+07
 0.46520000E+02 -0.26184E+07
 0.46570000E+02 -0.40762E+07
 0.46620003E+02 -0.58517E+07
 0.46670002E+02 -0.72438E+07
 0.46720001E+02 -0.75970E+07
 0.46770000E+02 -0.70552E+07
 0.46820000E+02 -0.68811E+07
 0.46870003E+02 -0.77957E+07
 0.46920002E+02 -0.93606E+07
 0.46970001E+02 -0.10536E+08
 0.47020000E+02 -0.10233E+08
 0.47070000E+02 -0.82834E+07
 0.47120003E+02 -0.62976E+07
 0.47170002E+02 -0.54480E+07
 0.47220001E+02 -0.53833E+07
 0.47270000E+02 -0.55031E+07
 0.47320000E+02 -0.52289E+07
 0.47370003E+02 -0.43158E+07
 0.47420002E+02 -0.30225E+07
 0.47470001E+02 -0.20092E+07
 0.47520000E+02 -0.11673E+07
 0.47570000E+02 -0.31877E+05
 0.47620003E+02  0.12602E+07
 0.47670002E+02  0.25493E+07
 0.47720001E+02  0.33308E+07
 0.47770000E+02  0.33105E+07
 0.47820000E+02  0.26087E+07
 0.47870003E+02  0.14197E+07
 0.47920002E+02 -0.11946E+06
 0.47970001E+02 -0.13978E+07
 0.48020000E+02 -0.15061E+07
 0.48070000E+02 -0.12804E+07
 0.48120003E+02 -0.18404E+07
 0.48170002E+02 -0.26638E+07
 0.48220001E+02 -0.28562E+07
 0.48270000E+02 -0.26245E+07
 0.48320000E+02 -0.29626E+07
 0.48370003E+02 -0.38897E+07
 0.48420002E+02 -0.52709E+07
 0.48470001E+02 -0.72836E+07
 0.48520000E+02 -0.90767E+07
 0.48570000E+02 -0.99064E+07
 0.48620003E+02 -0.97362E+07
 0.48670002E+02 -0.89794E+07
 0.48720001E+02 -0.79510E+07
 0.48770000E+02 -0.66086E+07
 0.48820000E+02 -0.53923E+07
 0.48870003E+02 -0.48373E+07
 0.48920002E+02 -0.47131E+07
 0.48970001E+02 -0.41022E+07
 0.49020000E+02 -0.30889E+07
 0.49070000E+02 -0.24361E+07
 0.49120003E+02 -0.22104E+07
 0.49170002E+02 -0.19124E+07
 0.49220001E+02 -0.10998E+07
 0.49270000E+02 -0.39860E+05
 0.49320000E+02  0.73598E+06
 0.49370003E+02  0.80293E+06
 0.49420002E+02  0.36156E+06
 0.49470001E+02 -0.23000E+04
 0.49520000E+02  0.13032E+05
 0.49570000E+02  0.20511E+06
 0.49620003E+02 -0.13878E+05
 0.49670002E+02 -0.10383E+07
 0.49720001E+02 -0.25815E+07
 0.49770000E+02 -0.36155E+07
 0.49820000E+02 -0.36431E+07
 0.49870003E+02 -0.33708E+07
 0.49920002E+02 -0.37568E+07
 0.49970001E+02 -0.45942E+07
 0.50020000E+02 -0.52625E+07
 0.50070000E+02 -0.55124E+07
 0.50120003E+02 -0.49974E+07
 0.50170002E+02 -0.41126E+07
 0.50220001E+02 -0.34098E+07
 0.50270000E+02 -0.26774E+07
 0.50320000E+02 -0.16172E+07
 0.50370003E+02 -0.76100E+06
 0.50420002E+02 -0.57743E+06
 0.50470001E+02 -0.58714E+06
 0.50520000E+02 -0.45122E+06
 0.50570000E+02 -0.13491E+06
 0.50620003E+02  0.43710E+06
 0.50670002E+02  0.10297E+07
 0.50720001E+02  0.93304E+06
 0.50770000E+02  0.40650E+06
 0.50820000E+02  0.39017E+06
 0.50870003E+02  0.34015E+06
 0.50920002E+02 -0.16847E+06
 0.50970001E+02 -0.65660E+06
 0.51020000E+02 -0.14226E+07
 0.51070000E+02 -0.27088E+07
 0.51120003E+02 -0.40101E+07
 0.51170002E+02 -0.47892E+07
 0.51220001E+02 -0.52275E+07
 0.51270000E+02 -0.55583E+07
 0.51320000E+02 -0.53168E+07
 0.51370003E+02 -0.43933E+07
 0.51420002E+02 -0.31919E+07
 0.51470001E+02 -0.20918E+07
 0.51520000E+02 -0.86499E+06
 0.51570000E+02  0.23902E+06
 0.51620003E+02  0.48060E+06
 0.51670002E+02  0.20374E+06
 0.51720001E+02 -0.20558E+06
 0.51770000E+02 -0.63297E+06
 0.51820000E+02 -0.98386E+06
 0.51870003E+02 -0.12122E+07
 0.51920002E+02 -0.10929E+07
 0.51970001E+02 -0.69539E+06
 0.52020000E+02 -0.39354E+06
 0.52070000E+02 -0.25629E+06
 0.52120003E+02 -0.31290E+06
 0.52170002E+02 -0.68786E+06
 0.52220001E+02 -0.92370E+06
 0.52270000E+02 -0.85527E+06
 0.52320000E+02 -0.98849E+06
 0.52370003E+02 -0.15149E+07
 0.52420002E+02 -0.22684E+07
 0.52470001E+02 -0.28766E+07
 0.52520000E+02 -0.34118E+07
 0.52570000E+02 -0.41710E+07
 0.52620003E+02 -0.46374E+07
 0.52670002E+02 -0.46371E+07
 0.52720001E+02 -0.45368E+07
 0.52770000E+02 -0.44038E+07
 0.52820000E+02 -0.42919E+07
 0.52870003E+02 -0.41518E+07
 0.52920002E+02 -0.39094E+07
 0.52970001E+02 -0.34615E+07
 0.53020000E+02 -0.29197E+07
 0.53070000E+02 -0.27064E+07
 0.53120003E+02 -0.27056E+07
 0.53170002E+02 -0.23556E+07
 0.53220001E+02 -0.13090E+07
 0.53270000E+02 -0.37369E+06
 0.53320000E+02 -0.27345E+06
 0.53370003E+02 -0.43962E+06
 0.53420002E+02 -0.45901E+06
 0.53470001E+02  0.18513E+06
 0.53520000E+02  0.12309E+07
 0.53570000E+02  0.18418E+07
 0.53620003E+02  0.18875E+07
 0.53670002E+02  0.13593E+07
 0.53720001E+02  0.86304E+06
 0.53770000E+02  0.94527E+06
 0.53820000E+02  0.15903E+07
 0.53870003E+02  0.23383E+07
 0.53920002E+02  0.23396E+07
 0.53970001E+02  0.13617E+07
 0.54020000E+02  0.24492E+06
 0.54070000E+02 -0.22525E+06
 0.54120003E+02  0.29195E+05
 0.54170002E+02  0.18594E+06
 0.54220001E+02 -0.81724E+06
 0.54270000E+02 -0.26899E+07
 0.54320000E+02 -0.45454E+07
 0.54370003E+02 -0.53393E+07
 0.54420002E+02 -0.50748E+07
 0.54470001E+02 -0.50513E+07
 0.54520000E+02 -0.55637E+07
 0.54570000E+02 -0.58875E+07
 0.54620003E+02 -0.52876E+07
 0.54670002E+02 -0.39194E+07
 0.54720001E+02 -0.24178E+07
 0.54770000E+02 -0.13299E+07
 0.54820000E+02 -0.10252E+07
 0.54870003E+02 -0.10139E+07
 0.54920002E+02 -0.80894E+06
 0.54970001E+02 -0.46487E+06
 0.55020000E+02 -0.73434E+05
 0.55070000E+02  0.27617E+06
 0.55120003E+02  0.53923E+06
 0.55170002E+02  0.63178E+06
 0.55220001E+02  0.62102E+06
 0.55270000E+02  0.43835E+06
 0.55320000E+02 -0.73670E+04
 0.55370003E+02 -0.28570E+06
 0.55420002E+02 -0.17323E+06
 0.55470001E+02  0.17142E+06
 0.55520000E+02  0.56999E+06
 0.55570000E+02  0.98519E+06
 0.55620003E+02  0.10286E+07
 0.55670002E+02  0.15676E+06
 0.55720001E+02 -0.80758E+06
 0.55770000E+02 -0.78091E+06
 0.55820000E+02  0.86379E+05
 0.55870003E+02  0.10324E+07
 0.55920002E+02  0.12678E+07
 0.55970001E+02  0.71251E+06
 0.56020000E+02 -0.49940E+04
 0.56070000E+02 -0.35046E+06
 0.56120003E+02 -0.24880E+06
 0.56170002E+02  0.54706E+05
 0.56220001E+02  0.29353E+06
 0.56270000E+02  0.14820E+06
 0.56320000E+02 -0.26193E+06
 0.56370003E+02 -0.53874E+06
 0.56420002E+02 -0.11248E+07
 0.56470001E+02 -0.23917E+07
 0.56520000E+02 -0.38364E+07
 0.56570000E+02 -0.49755E+07
 0.56620003E+02 -0.56160E+07
 0.56670002E+02 -0.59549E+07
 0.56720001E+02 -0.61852E+07
 0.56770000E+02 -0.62127E+07
 0.56820000E+02 -0.59585E+07
 0.56870003E+02 -0.52854E+07
 0.56920002E+02 -0.43255E+07
 0.56970001E+02 -0.35308E+07
 0.57020000E+02 -0.30986E+07
 0.57070000E+02 -0.26822E+07
 0.57120003E+02 -0.17514E+07
 0.57170002E+02 -0.22753E+06
 0.57220001E+02  0.10939E+07
 0.57270000E+02  0.15419E+07
 0.57320000E+02  0.13947E+07
 0.57370003E+02  0.93066E+06
 0.57420002E+02  0.45632E+06
 0.57470001E+02  0.22334E+06
 0.57520000E+02  0.36511E+05
 0.57570000E+02 -0.81491E+05
 0.57620003E+02  0.18017E+06
 0.57670002E+02  0.89829E+06
 0.57720001E+02  0.17461E+07
 0.57770000E+02  0.24896E+07
 0.57820000E+02  0.30842E+07
 0.57870003E+02  0.33697E+07
 0.57920002E+02  0.33091E+07
 0.57970001E+02  0.28224E+07
 0.58020000E+02  0.19992E+07
 0.58070000E+02  0.13796E+07
 0.58120003E+02  0.10701E+07
 0.58170002E+02  0.93725E+06
 0.58220001E+02  0.95507E+06
 0.58270000E+02  0.10029E+07
 0.58320000E+02  0.11108E+07
 0.58370003E+02  0.13704E+07
 0.58420002E+02  0.16295E+07
 0.58470001E+02  0.12828E+07
 0.58520000E+02  0.40132E+06
 0.58570000E+02 -0.89567E+05
 0.58620003E+02 -0.12398E+06
 0.58670002E+02 -0.29700E+06
 0.58720001E+02 -0.81600E+06
 0.58770000E+02 -0.15008E+07
 0.58820000E+02 -0.19987E+07
 0.58870003E+02 -0.20768E+07
 0.58920002E+02 -0.16911E+07
 0.58970001E+02 -0.10798E+07
 0.59020000E+02 -0.73533E+06
 0.59070000E+02 -0.70057E+06
 0.59120003E+02 -0.63146E+06
 0.59170002E+02 -0.27700E+06
 0.59220001E+02  0.10648E+06
 0.59270000E+02  0.19094E+06
 0.59320000E+02  0.30796E+06
 0.59370003E+02  0.67561E+06
 0.59420002E+02  0.14380E+07
 0.59470001E+02  0.23886E+07
 0.59520000E+02  0.28957E+07
 0.59570000E+02  0.29521E+07
 0.59620003E+02  0.29645E+07
 0.59670002E+02  0.31259E+07
 0.59720001E+02  0.31542E+07
 0.59770000E+02  0.29131E+07
 0.59820000E+02  0.26622E+07
 0.59870003E+02  0.25142E+07
 0.59920002E+02  0.25360E+07
 0.59970001E+02  0.24925E+07
 0.60020000E+02  0.19019E+07
 0.60070000E+02  0.12038E+07
 0.60120003E+02  0.98663E+06
 0.60170002E+02  0.10897E+07
 0.60220001E+02  0.10753E+07
 0.60270000E+02  0.60617E+06
 0.60320000E+02  0.11149E+06
 0.60370003E+02 -0.96498E+05
 0.60420002E+02 -0.27258E+06
 0.60470001E+02 -0.52170E+06
 0.60520000E+02 -0.78738E+06
 0.60570000E+02 -0.85568E+06
 0.60620003E+02 -0.60211E+06
 0.60670002E+02 -0.35385E+06
 0.60720001E+02 -0.69251E+06
 0.60770000E+02 -0.15847E+07
 0.60820000E+02 -0.23001E+07
 0.60870003E+02 -0.26282E+07
 0.60920002E+02 -0.27678E+07
 0.60970001E+02 -0.28566E+07
 0.61020000E+02 -0.32165E+07
 0.61070004E+02 -0.36852E+07
 0.61119999E+02 -0.41842E+07
 0.61170002E+02 -0.45942E+07
 0.61220005E+02 -0.42549E+07
 0.61270000E+02 -0.33528E+07
 0.61320004E+02 -0.25308E+07
 0.61369999E+02 -0.18855E+07
 0.61420002E+02 -0.13106E+07
 0.61470005E+02 -0.77078E+06
 0.61520000E+02 -0.60748E+05
 0.61570004E+02  0.67933E+06
 0.61619999E+02  0.95012E+06
 0.61670002E+02  0.94635E+06
 0.61720005E+02  0.10577E+07
 0.61770000E+02  0.14667E+07
 0.61820004E+02  0.23194E+07
 0.61869999E+02  0.32220E+07
 0.61920002E+02  0.36381E+07
 0.61970005E+02  0.35928E+07
 0.62020000E+02  0.35928E+07
 0.62070004E+02  0.38790E+07
 0.62119999E+02  0.41101E+07
 0.62170002E+02  0.40843E+07
 0.62220005E+02  0.38775E+07
 0.62270000E+02  0.36329E+07
 0.62320004E+02  0.33305E+07
 0.62369999E+02  0.29020E+07
 0.62420002E+02  0.24842E+07
 0.62470005E+02  0.22066E+07
 0.62520000E+02  0.21464E+07
 0.62570004E+02  0.20376E+07
 0.62619999E+02  0.18160E+07
 0.62670002E+02  0.16353E+07
 0.62720005E+02  0.14336E+07
 0.62770000E+02  0.14080E+07
 0.62820004E+02  0.15718E+07
 0.62869999E+02  0.17559E+07
 0.62920002E+02  0.17959E+07
 0.62970005E+02  0.16430E+07
 0.63020000E+02  0.14214E+07
 0.63070004E+02  0.11620E+07
 0.63119999E+02  0.93176E+06
 0.63170002E+02  0.60646E+06
 0.63220005E+02  0.40096E+06
 0.63270000E+02  0.64397E+06
 0.63320004E+02  0.99020E+06
 0.63369999E+02  0.10603E+07
 0.63420002E+02  0.72590E+06
 0.63470005E+02  0.93340E+05
 0.63520000E+02 -0.69232E+06
 0.63570004E+02 -0.14185E+07
 0.63619999E+02 -0.18017E+07
 0.63670002E+02 -0.19654E+07
 0.63720005E+02 -0.19709E+07
 0.63770000E+02 -0.16757E+07
 0.63820004E+02 -0.12479E+07
 0.63869999E+02 -0.78477E+06
 0.63920002E+02 -0.70938E+05
 0.63970005E+02  0.89467E+06
 0.64019997E+02  0.16987E+07
 0.64070000E+02  0.19965E+07
 0.64119995E+02  0.20949E+07
 0.64169998E+02  0.24009E+07
 0.64220001E+02  0.28345E+07
 0.64269997E+02  0.31907E+07
 0.64320000E+02  0.33870E+07
 0.64369995E+02  0.35696E+07
 0.64419998E+02  0.36217E+07
 0.64470001E+02  0.32086E+07
 0.64519997E+02  0.26180E+07
 0.64570000E+02  0.24532E+07
 0.64619995E+02  0.27948E+07
 0.64669998E+02  0.32374E+07
 0.64720001E+02  0.34595E+07
 0.64769997E+02  0.35457E+07
 0.64820000E+02  0.38028E+07
 0.64869995E+02  0.41188E+07
 0.64919998E+02  0.43656E+07
 0.64970001E+02  0.46176E+07
 0.65019997E+02  0.45084E+07
 0.65070000E+02  0.37438E+07
 0.65119995E+02  0.25605E+07
 0.65169998E+02  0.15723E+07
 0.65220001E+02  0.10821E+07
 0.65269997E+02  0.97724E+06
 0.65320000E+02  0.90531E+06
 0.65369995E+02  0.22389E+06
 0.65419998E+02 -0.95351E+06
 0.65470001E+02 -0.18553E+07
 0.65519997E+02 -0.20087E+07
 0.65570000E+02 -0.15719E+07
 0.65619995E+02 -0.11049E+07
 0.65669998E+02 -0.89929E+06
 0.65720001E+02 -0.82706E+06
 0.65769997E+02 -0.77737E+06
 0.65820000E+02 -0.77665E+06
 0.65869995E+02 -0.84166E+06
 0.65919998E+02 -0.10823E+07
 0.65970001E+02 -0.12785E+07
 0.66019997E+02 -0.10598E+07
 0.66070000E+02 -0.56434E+06
 0.66119995E+02  0.24201E+05
 0.66169998E+02  0.72941E+06
 0.66220001E+02  0.15309E+07
 0.66269997E+02  0.23227E+07
 0.66320000E+02  0.29142E+07
 0.66369995E+02  0.32754E+07
 0.66419998E+02  0.35140E+07
 0.66470001E+02  0.37013E+07
 0.66519997E+02  0.38984E+07
 0.66570000E+02  0.39418E+07
 0.66619995E+02  0.37795E+07
 0.66669998E+02  0.35734E+07
 0.66720001E+02  0.32969E+07
 0.66769997E+02  0.31256E+07
 0.66820000E+02  0.32060E+07
 0.66869995E+02  0.31902E+07
 0.66919998E+02  0.28608E+07
 0.66970001E+02  0.24153E+07
 0.67019997E+02  0.19916E+07
 0.67070000E+02  0.15136E+07
 0.67119995E+02  0.11661E+07
 0.67169998E+02  0.10707E+07
 0.67220001E+02  0.82223E+06
 0.67269997E+02  0.25060E+06
 0.67320000E+02 -0.33993E+06
 0.67369995E+02 -0.65188E+06
 0.67419998E+02 -0.70370E+06
 0.67470001E+02 -0.78365E+06
 0.67519997E+02 -0.90847E+06
 0.67570000E+02 -0.76766E+06
 0.67619995E+02 -0.23738E+06
 0.67669998E+02  0.48984E+06
 0.67720001E+02  0.11803E+07
 0.67769997E+02  0.17998E+07
 0.67820000E+02  0.23888E+07
 0.67869995E+02  0.28263E+07
 0.67919998E+02  0.29041E+07
 0.67970001E+02  0.27185E+07
 0.68019997E+02  0.26473E+07
 0.68070000E+02  0.28060E+07
 0.68119995E+02  0.30337E+07
 0.68169998E+02  0.31062E+07
 0.68220001E+02  0.29572E+07
 0.68269997E+02  0.28859E+07
 0.68320000E+02  0.32008E+07
 0.68369995E+02  0.38219E+07
 0.68419998E+02  0.42990E+07
 0.68470001E+02  0.43754E+07
 0.68519997E+02  0.42554E+07
 0.68570000E+02  0.40023E+07
 0.68619995E+02  0.35153E+07
 0.68669998E+02  0.29616E+07
 0.68720001E+02  0.25397E+07
 0.68769997E+02  0.22613E+07
 0.68820000E+02  0.20380E+07
 0.68869995E+02  0.15761E+07
 0.68919998E+02  0.83648E+06
 0.68970001E+02  0.32315E+06
 0.69019997E+02  0.33071E+06
 0.69070000E+02  0.59648E+06
 0.69119995E+02  0.74405E+06
 0.69169998E+02  0.91391E+06
 0.69220001E+02  0.14734E+07
 0.69269997E+02  0.24181E+07
 0.69320000E+02  0.33820E+07
 0.69369995E+02  0.39096E+07
 0.69419998E+02  0.39737E+07
 0.69470001E+02  0.39393E+07
 0.69519997E+02  0.40803E+07
 0.69570000E+02  0.43549E+07
 0.69619995E+02  0.44990E+07
 0.69669998E+02  0.43915E+07
 0.69720001E+02  0.42394E+07
 0.69769997E+02  0.42218E+07
 0.69820000E+02  0.42685E+07
 0.69869995E+02  0.41583E+07
 0.69919998E+02  0.38449E+07
 0.69970001E+02  0.34369E+07
 0.70019997E+02  0.28953E+07
 0.70070000E+02  0.22813E+07
 0.70119995E+02  0.16440E+07
 0.70169998E+02  0.99423E+06
 0.70220001E+02  0.50675E+06
 0.70269997E+02  0.40864E+06
 0.70320000E+02  0.68012E+06
 0.70369995E+02  0.92642E+06
 0.70419998E+02  0.90874E+06
 0.70470001E+02  0.77423E+06
 0.70519997E+02  0.76325E+06
 0.70570000E+02  0.95225E+06
 0.70619995E+02  0.12291E+07
 0.70669998E+02  0.13699E+07
 0.70720001E+02  0.12825E+07
 0.70769997E+02  0.10483E+07
 0.70820000E+02  0.88828E+06
 0.70869995E+02  0.10171E+07
 0.70919998E+02  0.13495E+07
 0.70970001E+02  0.17692E+07
 0.71019997E+02  0.21522E+07
 0.71070000E+02  0.23821E+07
 0.71119995E+02  0.25421E+07
 0.71169998E+02  0.28122E+07
 0.71220001E+02  0.30941E+07
 0.71269997E+02  0.31205E+07
 0.71320000E+02  0.29169E+07
 0.71369995E+02  0.26169E+07
 0.71419998E+02  0.23431E+07
 0.71470001E+02  0.21122E+07
 0.71519997E+02  0.18856E+07
 0.71570000E+02  0.17468E+07
 0.71619995E+02  0.16739E+07
 0.71669998E+02  0.15806E+07
 0.71720001E+02  0.15924E+07
 0.71769997E+02  0.18131E+07
 0.71820000E+02  0.20343E+07
 0.71869995E+02  0.21190E+07
 0.71919998E+02  0.20966E+07
 0.71970001E+02  0.18392E+07
 0.72019997E+02  0.13795E+07
 0.72070000E+02  0.10923E+07
 0.72119995E+02  0.12304E+07
 0.72169998E+02  0.17686E+07
 0.72220001E+02  0.25792E+07
 0.72269997E+02  0.33498E+07
 0.72320000E+02  0.37227E+07
 0.72369995E+02  0.37110E+07
 0.72419998E+02  0.35901E+07
 0.72470001E+02  0.35666E+07
 0.72519997E+02  0.37277E+07
 0.72570000E+02  0.39649E+07
 0.72619995E+02  0.40327E+07
 0.72669998E+02  0.39005E+07
 0.72720001E+02  0.36384E+07
 0.72769997E+02  0.32619E+07
 0.72820000E+02  0.28257E+07
 0.72869995E+02  0.24690E+07
 0.72919998E+02  0.23776E+07
 0.72970001E+02  0.25724E+07
 0.73019997E+02  0.29401E+07
 0.73070000E+02  0.32555E+07
 0.73119995E+02  0.34355E+07
 0.73169998E+02  0.35224E+07
 0.73220001E+02  0.34504E+07
 0.73269997E+02  0.33598E+07
 0.73320000E+02  0.34032E+07
 0.73369995E+02  0.35216E+07
 0.73419998E+02  0.35619E+07
 0.73470001E+02  0.34299E+07
 0.73519997E+02  0.32631E+07
 0.73570000E+02  0.31701E+07
 0.73619995E+02  0.31004E+07
 0.73669998E+02  0.29743E+07
 0.73720001E+02  0.27847E+07
 0.73769997E+02  0.25779E+07
 0.73820000E+02  0.23475E+07
 0.73869995E+02  0.21424E+07
 0.73919998E+02  0.19611E+07
 0.73970001E+02  0.17358E+07
 0.74019997E+02  0.15625E+07
 0.74070000E+02  0.15278E+07
 0.74119995E+02  0.16706E+07
 0.74169998E+02  0.20859E+07
 0.74220001E+02  0.27722E+07
 0.74269997E+02  0.35183E+07
 0.74320000E+02  0.40805E+07
 0.74369995E+02  0.43902E+07
 0.74419998E+02  0.44610E+07
 0.74470001E+02  0.43797E+07
 0.74519997E+02  0.42484E+07
 0.74570000E+02  0.41619E+07
 0.74619995E+02  0.42022E+07
 0.74669998E+02  0.42942E+07
 0.74720001E+02  0.43527E+07
 0.74769997E+02  0.42514E+07
 0.74820000E+02  0.39323E+07
 0.74869995E+02  0.35841E+07
 0.74919998E+02  0.32776E+07
 0.74970001E+02  0.29648E+07
 0.75019997E+02  0.26005E+07
 0.75070000E+02  0.21603E+07
 0.75119995E+02  0.18677E+07
 0.75169998E+02  0.18980E+07
 0.75220001E+02  0.20088E+07
 0.75269997E+02  0.19948E+07
 0.75320000E+02  0.20305E+07
 0.75369995E+02  0.22545E+07
 0.75419998E+02  0.24554E+07
 0.75470001E+02  0.24192E+07
 0.75519997E+02  0.23011E+07
 0.75570000E+02  0.22673E+07
 0.75619995E+02  0.23494E+07
 0.75669998E+02  0.25455E+07
 0.75720001E+02  0.27327E+07
 0.75769997E+02  0.28599E+07
 0.75820000E+02  0.29504E+07
 0.75869995E+02  0.30576E+07
 0.75919998E+02  0.32468E+07
 0.75970001E+02  0.34821E+07
 0.76019997E+02  0.36408E+07
 0.76070000E+02  0.35778E+07
 0.76119995E+02  0.33422E+07
 0.76169998E+02  0.32035E+07
 0.76220001E+02  0.32483E+07
 0.76269997E+02  0.33495E+07
 0.76320000E+02  0.34160E+07
 0.76369995E+02  0.33721E+07
 0.76419998E+02  0.32849E+07
 0.76470001E+02  0.32996E+07
 0.76519997E+02  0.33444E+07
 0.76570000E+02  0.32719E+07
 0.76619995E+02  0.31312E+07
 0.76669998E+02  0.30306E+07
 0.76720001E+02  0.29957E+07
 0.76769997E+02  0.31046E+07
 0.76820000E+02  0.33773E+07
 0.76869995E+02  0.37417E+07
 0.76919998E+02  0.40633E+07
 0.76970001E+02  0.41403E+07
 0.77019997E+02  0.40017E+07
 0.77070000E+02  0.38342E+07
 0.77119995E+02  0.37841E+07
 0.77169998E+02  0.39220E+07
 0.77220001E+02  0.41911E+07
 0.77269997E+02  0.44837E+07
 0.77320000E+02  0.46915E+07
 0.77369995E+02  0.48017E+07
 0.77419998E+02  0.48403E+07
 0.77470001E+02  0.48048E+07
 0.77519997E+02  0.46879E+07
 0.77570000E+02  0.44602E+07
 0.77619995E+02  0.41810E+07
 0.77669998E+02  0.38161E+07
 0.77720001E+02  0.32527E+07
 0.77769997E+02  0.27221E+07
 0.77820000E+02  0.25368E+07
 0.77869995E+02  0.26684E+07
 0.77919998E+02  0.27849E+07
 0.77970001E+02  0.26009E+07
 0.78019997E+02  0.21843E+07
 0.78070000E+02  0.17721E+07
 0.78119995E+02  0.15757E+07
 0.78169998E+02  0.16577E+07
 0.78220001E+02  0.19322E+07
 0.78269997E+02  0.23455E+07
 0.78320000E+02  0.28199E+07
 0.78369995E+02  0.32054E+07
 0.78419998E+02  0.34800E+07
 0.78470001E+02  0.37118E+07
 0.78519997E+02  0.38712E+07
 0.78570000E+02  0.39201E+07
 0.78619995E+02  0.39099E+07
 0.78669998E+02  0.39891E+07
 0.78720001E+02  0.42754E+07
 0.78769997E+02  0.47328E+07
 0.78820000E+02  0.50979E+07
 0.78869995E+02  0.51689E+07
 0.78919998E+02  0.50996E+07
 0.78970001E+02  0.50558E+07
 0.79019997E+02  0.51585E+07
 0.79070000E+02  0.53632E+07
 0.79119995E+02  0.54065E+07
 0.79169998E+02  0.51591E+07
 0.79220001E+02  0.46974E+07
 0.79269997E+02  0.42985E+07
 0.79320000E+02  0.41127E+07
 0.79369995E+02  0.40413E+07
 0.79419998E+02  0.40115E+07
 0.79470001E+02  0.38987E+07
 0.79519997E+02  0.35961E+07
 0.79570000E+02  0.32451E+07
 0.79619995E+02  0.30651E+07
 0.79669998E+02  0.31398E+07
 0.79720001E+02  0.33325E+07
 0.79769997E+02  0.34120E+07
 0.79820000E+02  0.33504E+07
 0.79869995E+02  0.32440E+07
 0.79919998E+02  0.31977E+07
 0.79970001E+02  0.33305E+07
 0.80019997E+02  0.35898E+07
 0.80070000E+02  0.37144E+07
 0.80119995E+02  0.35342E+07
 0.80169998E+02  0.31806E+07
 0.80220001E+02  0.29052E+07
 0.80269997E+02  0.28380E+07
 0.80320000E+02  0.28933E+07
 0.80369995E+02  0.29219E+07
 0.80419998E+02  0.29047E+07
 0.80470001E+02  0.28891E+07
 0.80519997E+02  0.28909E+07
 0.80570000E+02  0.28576E+07
 0.80619995E+02  0.27559E+07
 0.80669998E+02  0.27009E+07
 0.80720001E+02  0.28305E+07
 0.80769997E+02  0.30482E+07
 0.80820000E+02  0.31288E+07
 0.80869995E+02  0.30004E+07
 0.80919998E+02  0.26931E+07
 0.80970001E+02  0.23803E+07
 0.81019997E+02  0.22805E+07
 0.81070000E+02  0.23303E+07
 0.81119995E+02  0.24392E+07
 0.81169998E+02  0.25722E+07
 0.81220001E+02  0.26245E+07
 0.81269997E+02  0.25935E+07
 0.81320000E+02  0.25281E+07
 0.81369995E+02  0.24622E+07
 0.81419998E+02  0.23922E+07
 0.81470001E+02  0.23782E+07
 0.81519997E+02  0.25436E+07
 0.81570000E+02  0.28407E+07
 0.81619995E+02  0.31316E+07
 0.81669998E+02  0.32182E+07
 0.81720001E+02  0.30002E+07
 0.81769997E+02  0.27616E+07
 0.81820000E+02  0.27229E+07
 0.81869995E+02  0.28139E+07
 0.81919998E+02  0.29901E+07
 0.81970001E+02  0.32017E+07
 0.82019997E+02  0.33582E+07
 0.82070000E+02  0.33917E+07
 0.82119995E+02  0.33714E+07
 0.82169998E+02  0.34704E+07
 0.82220001E+02  0.36290E+07
 0.82269997E+02  0.36625E+07
 0.82320000E+02  0.36372E+07
 0.82369995E+02  0.36933E+07
 0.82419998E+02  0.37599E+07
 0.82470001E+02  0.37765E+07
 0.82519997E+02  0.37835E+07
 0.82570000E+02  0.38168E+07
 0.82619995E+02  0.38851E+07
 0.82669998E+02  0.39209E+07
 0.82720001E+02  0.39208E+07
 0.82769997E+02  0.39490E+07
 0.82820000E+02  0.40169E+07
 0.82869995E+02  0.40591E+07
 0.82919998E+02  0.40361E+07
 0.82970001E+02  0.40221E+07
 0.83019997E+02  0.40727E+07
 0.83070000E+02  0.41444E+07
 0.83119995E+02  0.41575E+07
 0.83169998E+02  0.41544E+07
 0.83220001E+02  0.41970E+07
 0.83269997E+02  0.43123E+07
 0.83320000E+02  0.44789E+07
 0.83369995E+02  0.45374E+07
 0.83419998E+02  0.45127E+07
 0.83470001E+02  0.45095E+07
 0.83519997E+02  0.45414E+07
 0.83570000E+02  0.46768E+07
 0.83619995E+02  0.48622E+07
 0.83669998E+02  0.50044E+07
 0.83720001E+02  0.50524E+07
 0.83769997E+02  0.49573E+07
 0.83820000E+02  0.48644E+07
 0.83869995E+02  0.49438E+07
 0.83919998E+02  0.50821E+07
 0.83970001E+02  0.50326E+07
 0.84019997E+02  0.47680E+07
 0.84070000E+02  0.45216E+07
 0.84119995E+02  0.44432E+07
 0.84169998E+02  0.45325E+07
 0.84220001E+02  0.47770E+07
 0.84269997E+02  0.50399E+07
 0.84320000E+02  0.51267E+07
 0.84369995E+02  0.49589E+07
 0.84419998E+02  0.46628E+07
 0.84470001E+02  0.44745E+07
 0.84519997E+02  0.44850E+07
 0.84570000E+02  0.45419E+07
 0.84619995E+02  0.44828E+07
 0.84669998E+02  0.43874E+07
 0.84720001E+02  0.43223E+07
 0.84769997E+02  0.42349E+07
 0.84820000E+02  0.40988E+07
 0.84869995E+02  0.39084E+07
 0.84919998E+02  0.36945E+07
 0.84970001E+02  0.34994E+07
 0.85019997E+02  0.34032E+07
 0.85070000E+02  0.34501E+07
 0.85119995E+02  0.35534E+07
 0.85169998E+02  0.35972E+07
 0.85220001E+02  0.35615E+07
 0.85269997E+02  0.35573E+07
 0.85320000E+02  0.36933E+07
 0.85369995E+02  0.39795E+07
 0.85419998E+02  0.42973E+07
 0.85470001E+02  0.44727E+07
 0.85519997E+02  0.44500E+07
 0.85570000E+02  0.42676E+07
 0.85619995E+02  0.40434E+07
 0.85669998E+02  0.39135E+07
 0.85720001E+02  0.38474E+07
 0.85769997E+02  0.37856E+07
 0.85820000E+02  0.37657E+07
 0.85869995E+02  0.38611E+07
 0.85919998E+02  0.41126E+07
 0.85970001E+02  0.44066E+07
 0.86019997E+02  0.46246E+07
 0.86070000E+02  0.48025E+07
 0.86119995E+02  0.49453E+07
 0.86169998E+02  0.49888E+07
 0.86220001E+02  0.49227E+07
 0.86269997E+02  0.47745E+07
 0.86320000E+02  0.45815E+07
 0.86369995E+02  0.43916E+07
 0.86419998E+02  0.43410E+07
 0.86470001E+02  0.44560E+07
 0.86519997E+02  0.45265E+07
 0.86570000E+02  0.44866E+07
 0.86619995E+02  0.44414E+07
 0.86669998E+02  0.44825E+07
 0.86720001E+02  0.45771E+07
 0.86769997E+02  0.45839E+07
 0.86820000E+02  0.44645E+07
 0.86869995E+02  0.42823E+07
 0.86919998E+02  0.41486E+07
 0.86970001E+02  0.40469E+07
 0.87019997E+02  0.39038E+07
 0.87070000E+02  0.37473E+07
 0.87119995E+02  0.35650E+07
 0.87169998E+02  0.34305E+07
 0.87220001E+02  0.34496E+07
 0.87269997E+02  0.36075E+07
 0.87320000E+02  0.38233E+07
 0.87369995E+02  0.39904E+07
 0.87419998E+02  0.40371E+07
 0.87470001E+02  0.39581E+07
 0.87519997E+02  0.38525E+07
 0.87570000E+02  0.38048E+07
 0.87619995E+02  0.37448E+07
 0.87669998E+02  0.36145E+07
 0.87720001E+02  0.34774E+07
 0.87769997E+02  0.33670E+07
 0.87820000E+02  0.32917E+07
 0.87869995E+02  0.32582E+07
 0.87919998E+02  0.32989E+07
 0.87970001E+02  0.33775E+07
 0.88019997E+02  0.33326E+07
 0.88070000E+02  0.31886E+07
 0.88119995E+02  0.30700E+07
 0.88169998E+02  0.31105E+07
 0.88220001E+02  0.33965E+07
 0.88269997E+02  0.37793E+07
 0.88320000E+02  0.41284E+07
 0.88369995E+02  0.44125E+07
 0.88419998E+02  0.45879E+07
 0.88470001E+02  0.46433E+07
 0.88519997E+02  0.45994E+07
 0.88570000E+02  0.44798E+07
 0.88619995E+02  0.43431E+07
 0.88669998E+02  0.43068E+07
 0.88720001E+02  0.44016E+07
 0.88769997E+02  0.45795E+07
 0.88820000E+02  0.47869E+07
 0.88869995E+02  0.48698E+07
 0.88919998E+02  0.48267E+07
 0.88970001E+02  0.48243E+07
 0.89019997E+02  0.49092E+07
 0.89070000E+02  0.50142E+07
 0.89119995E+02  0.49844E+07
 0.89169998E+02  0.47722E+07
 0.89220001E+02  0.44983E+07
 0.89269997E+02  0.43159E+07
 0.89320000E+02  0.43219E+07
 0.89369995E+02  0.44785E+07
 0.89419998E+02  0.46542E+07
 0.89470001E+02  0.47346E+07
 0.89519997E+02  0.47095E+07
 0.89570000E+02  0.45745E+07
 0.89619995E+02  0.43309E+07
 0.89669998E+02  0.40604E+07
 0.89720001E+02  0.39598E+07
 0.89769997E+02  0.41879E+07
 0.89820000E+02  0.45931E+07
 0.89869995E+02  0.49098E+07
 0.89919998E+02  0.50207E+07
 0.89970001E+02  0.50015E+07
 0.90019997E+02  0.50239E+07
 0.90070000E+02  0.51555E+07
 0.90119995E+02  0.52566E+07
 0.90169998E+02  0.51268E+07
 0.90220001E+02  0.47721E+07
 0.90269997E+02  0.43555E+07
 0.90320000E+02  0.40807E+07
 0.90369995E+02  0.40648E+07
 0.90419998E+02  0.41740E+07
 0.90470001E+02  0.41690E+07
 0.90519997E+02  0.39615E+07
 0.90570000E+02  0.36450E+07
 0.90619995E+02  0.33138E+07
 0.90669998E+02  0.30683E+07
 0.90720001E+02  0.30433E+07
 0.90769997E+02  0.32341E+07
 0.90820000E+02  0.35001E+07
 0.90869995E+02  0.36950E+07
 0.90919998E+02  0.38120E+07
 0.90970001E+02  0.39711E+07
 0.91019997E+02  0.41841E+07
 0.91070000E+02  0.43437E+07
 0.91119995E+02  0.44206E+07
 0.91169998E+02  0.44523E+07
 0.91220001E+02  0.44978E+07
 0.91269997E+02  0.46239E+07
 0.91320000E+02  0.48035E+07
 0.91369995E+02  0.49922E+07
 0.91419998E+02  0.51516E+07
 0.91470001E+02  0.52393E+07
 0.91519997E+02  0.52476E+07
 0.91570000E+02  0.51559E+07
 0.91619995E+02  0.50312E+07
 0.91669998E+02  0.49677E+07
 0.91720001E+02  0.49312E+07
 0.91769997E+02  0.47951E+07
 0.91820000E+02  0.45147E+07
 0.91869995E+02  0.42359E+07
 0.91919998E+02  0.40613E+07
 0.91970001E+02  0.39690E+07
 0.92019997E+02  0.38898E+07
 0.92070000E+02  0.37502E+07
 0.92119995E+02  0.35871E+07
 0.92169998E+02  0.34604E+07
 0.92220001E+02  0.34070E+07
 0.92269997E+02  0.34223E+07
 0.92320000E+02  0.33742E+07
 0.92369995E+02  0.32210E+07
 0.92419998E+02  0.30793E+07
 0.92470001E+02  0.30598E+07
 0.92519997E+02  0.31970E+07
 0.92570000E+02  0.33649E+07
 0.92619995E+02  0.34421E+07
 0.92669998E+02  0.34716E+07
 0.92720001E+02  0.35210E+07
 0.92769997E+02  0.35886E+07
 0.92820000E+02  0.36689E+07
 0.92869995E+02  0.38003E+07
 0.92919998E+02  0.39767E+07
 0.92970001E+02  0.41349E+07
 0.93019997E+02  0.42925E+07
 0.93070000E+02  0.45206E+07
 0.93119995E+02  0.47685E+07
 0.93169998E+02  0.49448E+07
 0.93220001E+02  0.50775E+07
 0.93269997E+02  0.52568E+07
 0.93320000E+02  0.54700E+07
 0.93369995E+02  0.56125E+07
 0.93419998E+02  0.56469E+07
 0.93470001E+02  0.55878E+07
 0.93519997E+02  0.54820E+07
 0.93570000E+02  0.53540E+07
 0.93619995E+02  0.52190E+07
 0.93669998E+02  0.51149E+07
 0.93720001E+02  0.49978E+07
 0.93769997E+02  0.49214E+07
 0.93820000E+02  0.49525E+07
 0.93869995E+02  0.49392E+07
 0.93919998E+02  0.47570E+07
 0.93970001E+02  0.44708E+07
 0.94019997E+02  0.42267E+07
 0.94070000E+02  0.40969E+07
 0.94119995E+02  0.40795E+07
 0.94169998E+02  0.41637E+07
 0.94220001E+02  0.43513E+07
 0.94269997E+02  0.46071E+07
 0.94320000E+02  0.48486E+07
 0.94369995E+02  0.50328E+07
 0.94419998E+02  0.50812E+07
 0.94470001E+02  0.49715E+07
 0.94519997E+02  0.48285E+07
 0.94570000E+02  0.47389E+07
 0.94619995E+02  0.47088E+07
 0.94669998E+02  0.47126E+07
 0.94720001E+02  0.47208E+07
 0.94769997E+02  0.46929E+07
 0.94820000E+02  0.45509E+07
 0.94869995E+02  0.43352E+07
 0.94919998E+02  0.41873E+07
 0.94970001E+02  0.41389E+07
 0.95019997E+02  0.41340E+07
 0.95070000E+02  0.41152E+07
 0.95119995E+02  0.41351E+07
 0.95169998E+02  0.42582E+07
 0.95220001E+02  0.44612E+07
 0.95269997E+02  0.47072E+07
 0.95320000E+02  0.48879E+07
 0.95369995E+02  0.49554E+07
 0.95419998E+02  0.49566E+07
 0.95470001E+02  0.49121E+07
 0.95519997E+02  0.48714E+07
 0.95570000E+02  0.48755E+07
 0.95619995E+02  0.49126E+07
 0.95669998E+02  0.49364E+07
 0.95720001E+02  0.48919E+07
 0.95769997E+02  0.47586E+07
 0.95820000E+02  0.45835E+07
 0.95869995E+02  0.44613E+07
 0.95919998E+02  0.43821E+07
 0.95970001E+02  0.42433E+07
 0.96019997E+02  0.40448E+07
 0.96070000E+02  0.38500E+07
 0.96119995E+02  0.36864E+07
 0.96169998E+02  0.35671E+07
 0.96220001E+02  0.34866E+07
 0.96269997E+02  0.34878E+07
 0.96320000E+02  0.35968E+07
 0.96369995E+02  0.37352E+07
 0.96419998E+02  0.38790E+07
 0.96470001E+02  0.40603E+07
 0.96519997E+02  0.42303E+07
 0.96570000E+02  0.43058E+07
 0.96619995E+02  0.43209E+07
 0.96669998E+02  0.43573E+07
 0.96720001E+02  0.44466E+07
 0.96769997E+02  0.45754E+07
 0.96820000E+02  0.46935E+07
 0.96869995E+02  0.47997E+07
 0.96919998E+02  0.48473E+07
 0.96970001E+02  0.47778E+07
 0.97019997E+02  0.46434E+07
 0.97070000E+02  0.45070E+07
 0.97119995E+02  0.44398E+07
 0.97169998E+02  0.44992E+07
 0.97220001E+02  0.46167E+07
 0.97269997E+02  0.46766E+07
 0.97320000E+02  0.46909E+07
 0.97369995E+02  0.47129E+07
 0.97419998E+02  0.47094E+07
 0.97470001E+02  0.46302E+07
 0.97519997E+02  0.45093E+07
 0.97570000E+02  0.44711E+07
 0.97619995E+02  0.45595E+07
 0.97669998E+02  0.46867E+07
 0.97720001E+02  0.47720E+07
 0.97769997E+02  0.47951E+07
 0.97820000E+02  0.47648E+07
 0.97869995E+02  0.47166E+07
 0.97919998E+02  0.47385E+07
 0.97970001E+02  0.48773E+07
 0.98019997E+02  0.50824E+07
 0.98070000E+02  0.52644E+07
 0.98119995E+02  0.53316E+07
 0.98169998E+02  0.52649E+07
 0.98220001E+02  0.51766E+07
 0.98269997E+02  0.52228E+07
 0.98320000E+02  0.54048E+07
 0.98369995E+02  0.55684E+07
 0.98419998E+02  0.55624E+07
 0.98470001E+02  0.53571E+07
 0.98519997E+02  0.50468E+07
 0.98570000E+02  0.47626E+07
 0.98619995E+02  0.45841E+07
 0.98669998E+02  0.44798E+07
 0.98720001E+02  0.43681E+07
 0.98769997E+02  0.42099E+07
 0.98820000E+02  0.40900E+07
 0.98869995E+02  0.41261E+07
 0.98919998E+02  0.42812E+07
 0.98970001E+02  0.44198E+07
 0.99019997E+02  0.44731E+07
 0.99070000E+02  0.44597E+07
 0.99119995E+02  0.44642E+07
 0.99169998E+02  0.45288E+07
 0.99220001E+02  0.45683E+07
 0.99269997E+02  0.45361E+07
 0.99320000E+02  0.44728E+07
 0.99369995E+02  0.44210E+07
 0.99419998E+02  0.43458E+07
 0.99470001E+02  0.42162E+07
 0.99519997E+02  0.41293E+07
 0.99570000E+02  0.41582E+07
 0.99619995E+02  0.42574E+07
 0.99669998E+02  0.42800E+07
 0.99720001E+02  0.41561E+07
 0.99769997E+02  0.40171E+07
 0.99820000E+02  0.39363E+07
 0.99869995E+02  0.38647E+07
 0.99919998E+02  0.37713E+07
 0.99970001E+02  0.36486E+07
 0.10002000E+03  0.35325E+07
 0.10007000E+03  0.34834E+07
 0.10012000E+03  0.35152E+07
 0.10017000E+03  0.36042E+07
 0.10022000E+03  0.37690E+07
 0.10027000E+03  0.40404E+07
 0.10032000E+03  0.43805E+07
 0.10037000E+03  0.46867E+07
 0.10042000E+03  0.48786E+07
 0.10047000E+03  0.50000E+07
 0.10052000E+03  0.51629E+07
 0.10057000E+03  0.54086E+07
 0.10062000E+03  0.56238E+07
 0.10067000E+03  0.56803E+07
 0.10072000E+03  0.56030E+07
 0.10077000E+03  0.55064E+07
 0.10082000E+03  0.54535E+07
 0.10087000E+03  0.53788E+07
 0.10092000E+03  0.52045E+07
 0.10097000E+03  0.49902E+07
 0.10102000E+03  0.48334E+07
 0.10107000E+03  0.47063E+07
 0.10112000E+03  0.45448E+07
 0.10117000E+03  0.43848E+07
 0.10122000E+03  0.43256E+07
 0.10127000E+03  0.43786E+07
 0.10132000E+03  0.44521E+07
 0.10137000E+03  0.44724E+07
 0.10142000E+03  0.44492E+07
 0.10147000E+03  0.44933E+07
 0.10152000E+03  0.46716E+07
 0.10157000E+03  0.49133E+07
 0.10162000E+03  0.51220E+07
 0.10167000E+03  0.52643E+07
 0.10172000E+03  0.53383E+07
 0.10177000E+03  0.53138E+07
 0.10182000E+03  0.51830E+07
 0.10187000E+03  0.49992E+07
 0.10192000E+03  0.47916E+07
 0.10197000E+03  0.45839E+07
 0.10202000E+03  0.44543E+07
 0.10207000E+03  0.44452E+07
 0.10212000E+03  0.45002E+07
 0.10217000E+03  0.45055E+07
 0.10222000E+03  0.44327E+07
 0.10227000E+03  0.43535E+07
 0.10232000E+03  0.42974E+07
 0.10237000E+03  0.42605E+07
 0.10242000E+03  0.42491E+07
 0.10247000E+03  0.42499E+07
 0.10252000E+03  0.42289E+07
 0.10257000E+03  0.41889E+07
 0.10262000E+03  0.41877E+07
 0.10267000E+03  0.42456E+07
 0.10272000E+03  0.43234E+07
 0.10277000E+03  0.43813E+07
 0.10282000E+03  0.43623E+07
 0.10287000E+03  0.42527E+07
 0.10292000E+03  0.41080E+07
 0.10297000E+03  0.40108E+07
 0.10302000E+03  0.40329E+07
 0.10307000E+03  0.41294E+07
 0.10312000E+03  0.42151E+07
 0.10317000E+03  0.42522E+07
 0.10322000E+03  0.42615E+07
 0.10327000E+03  0.43109E+07
 0.10332000E+03  0.43881E+07
 0.10337000E+03  0.44238E+07
 0.10342000E+03  0.43945E+07
 0.10347000E+03  0.43421E+07
 0.10352000E+03  0.43367E+07
 0.10357000E+03  0.44187E+07
 0.10362000E+03  0.45800E+07
 0.10367000E+03  0.47622E+07
 0.10372000E+03  0.49078E+07
 0.10377000E+03  0.49809E+07
 0.10382000E+03  0.49802E+07
 0.10387000E+03  0.49072E+07
 0.10392000E+03  0.47835E+07
 0.10397000E+03  0.46864E+07
 0.10402000E+03  0.46546E+07
 0.10407000E+03  0.47148E+07
 0.10412000E+03  0.48350E+07
 0.10417000E+03  0.49491E+07
 0.10422000E+03  0.50350E+07
 0.10427000E+03  0.50380E+07
 0.10432000E+03  0.49249E+07
 0.10437000E+03  0.47597E+07
 0.10442000E+03  0.46430E+07
 0.10447000E+03  0.45660E+07
 0.10452000E+03  0.44885E+07
 0.10457000E+03  0.43945E+07
 0.10462000E+03  0.42812E+07
 0.10467000E+03  0.41751E+07
 0.10472000E+03  0.40572E+07
 0.10477000E+03  0.39309E+07
 0.10482000E+03  0.38365E+07
 0.10487000E+03  0.38014E+07
 0.10492000E+03  0.38323E+07
 0.10497000E+03  0.39254E+07
 0.10502000E+03  0.40502E+07
 0.10507000E+03  0.41854E+07
 0.10512000E+03  0.43103E+07
 0.10517000E+03  0.43653E+07
 0.10522000E+03  0.43267E+07
 0.10527000E+03  0.42310E+07
 0.10532000E+03  0.41508E+07
 0.10537000E+03  0.41099E+07
 0.10542000E+03  0.40857E+07
 0.10547000E+03  0.41070E+07
 0.10552000E+03  0.42123E+07
 0.10557000E+03  0.43649E+07
 0.10562000E+03  0.44779E+07
 0.10567000E+03  0.45314E+07
 0.10572000E+03  0.45946E+07
 0.10577000E+03  0.46838E+07
 0.10582000E+03  0.47597E+07
 0.10587000E+03  0.47761E+07
 0.10592000E+03  0.47485E+07
 0.10597000E+03  0.47667E+07
 0.10602000E+03  0.48299E+07
 0.10607000E+03  0.48719E+07
 0.10612000E+03  0.48507E+07
 0.10617000E+03  0.47977E+07
 0.10622000E+03  0.47695E+07
 0.10627000E+03  0.47505E+07
 0.10632000E+03  0.47536E+07
 0.10637000E+03  0.48224E+07
 0.10642000E+03  0.49402E+07
 0.10647000E+03  0.50418E+07
 0.10652000E+03  0.50871E+07
 0.10657000E+03  0.51114E+07
 0.10662000E+03  0.51486E+07
 0.10667000E+03  0.51844E+07
 0.10672000E+03  0.51785E+07
 0.10677000E+03  0.51102E+07
 0.10682000E+03  0.50184E+07
 0.10687000E+03  0.49750E+07
 0.10692000E+03  0.50232E+07
 0.10697000E+03  0.51199E+07
 0.10702000E+03  0.51886E+07
 0.10707000E+03  0.51990E+07
 0.10712000E+03  0.51439E+07
 0.10717000E+03  0.50193E+07
 0.10722000E+03  0.48469E+07
 0.10727000E+03  0.47021E+07
 0.10732000E+03  0.46394E+07
 0.10737000E+03  0.46304E+07
 0.10742000E+03  0.46554E+07
 0.10747000E+03  0.46761E+07
 0.10752000E+03  0.46575E+07
 0.10757000E+03  0.46386E+07
 0.10762000E+03  0.46368E+07
 0.10767000E+03  0.46504E+07
 0.10772000E+03  0.46743E+07
 0.10777000E+03  0.47021E+07
 0.10782000E+03  0.47377E+07
 0.10787000E+03  0.47724E+07
 0.10792000E+03  0.47816E+07
 0.10797000E+03  0.47389E+07
 0.10802000E+03  0.46705E+07
 0.10807000E+03  0.46300E+07
 0.10812000E+03  0.46176E+07
 0.10817000E+03  0.46009E+07
 0.10822000E+03  0.45641E+07
 0.10827000E+03  0.45254E+07
 0.10832000E+03  0.45332E+07
 0.10837000E+03  0.46171E+07
 0.10842000E+03  0.47401E+07
 0.10847000E+03  0.48399E+07
 0.10852000E+03  0.48964E+07
 0.10857000E+03  0.48897E+07
 0.10862000E+03  0.48249E+07
 0.10867000E+03  0.47457E+07
 0.10872000E+03  0.46441E+07
 0.10877000E+03  0.45504E+07
 0.10882000E+03  0.45805E+07
 0.10887000E+03  0.47427E+07
 0.10892000E+03  0.48971E+07
 0.10897000E+03  0.49441E+07
 0.10902000E+03  0.48846E+07
 0.10907000E+03  0.47974E+07
 0.10912000E+03  0.47619E+07
 0.10917000E+03  0.47559E+07
 0.10922000E+03  0.47008E+07
 0.10927000E+03  0.45888E+07
 0.10932000E+03  0.44792E+07
 0.10937000E+03  0.43836E+07
 0.10942000E+03  0.42886E+07
 0.10947000E+03  0.41741E+07
 0.10952000E+03  0.40291E+07
 0.10957000E+03  0.38891E+07
 0.10962000E+03  0.37889E+07
 0.10967000E+03  0.37570E+07
 0.10972000E+03  0.38377E+07
 0.10977000E+03  0.40671E+07
 0.10982000E+03  0.43980E+07
 0.10987000E+03  0.47020E+07
 0.10992000E+03  0.48829E+07
 0.10997000E+03  0.49685E+07
 0.11002000E+03  0.50437E+07
 0.11007000E+03  0.51169E+07
 0.11012000E+03  0.51466E+07
 0.11017000E+03  0.51404E+07
 0.11022000E+03  0.51330E+07
 0.11027000E+03  0.51294E+07
 0.11032000E+03  0.50996E+07
 0.11037000E+03  0.49962E+07
 0.11042000E+03  0.48174E+07
 0.11047000E+03  0.45970E+07
 0.11052000E+03  0.43631E+07
 0.11057000E+03  0.41477E+07
 0.11062000E+03  0.39739E+07
 0.11067000E+03  0.38696E+07
 0.11072000E+03  0.38557E+07
 0.11077000E+03  0.38815E+07
 0.11082000E+03  0.38741E+07
 0.11087000E+03  0.38131E+07
 0.11092000E+03  0.37154E+07
 0.11097000E+03  0.36230E+07
 0.11102000E+03  0.35628E+07
 0.11107000E+03  0.35087E+07
 0.11112000E+03  0.34352E+07
 0.11117000E+03  0.33740E+07
 0.11122000E+03  0.33778E+07
 0.11127000E+03  0.34749E+07
 0.11132000E+03  0.36507E+07
 0.11137000E+03  0.38717E+07
 0.11142000E+03  0.41128E+07
 0.11147000E+03  0.43188E+07
 0.11152000E+03  0.44377E+07
 0.11157000E+03  0.44973E+07
 0.11162000E+03  0.45680E+07
 0.11167000E+03  0.46650E+07
 0.11172000E+03  0.47455E+07
 0.11177000E+03  0.47660E+07
 0.11182000E+03  0.47427E+07
 0.11187000E+03  0.47430E+07
 0.11192000E+03  0.48121E+07
 0.11197000E+03  0.49480E+07
 0.11202000E+03  0.50750E+07
 0.11207000E+03  0.51290E+07
 0.11212000E+03  0.51491E+07
 0.11217000E+03  0.51946E+07
 0.11222000E+03  0.52683E+07
 0.11227000E+03  0.52836E+07
 0.11232000E+03  0.51854E+07
 0.11237000E+03  0.50520E+07
 0.11242000E+03  0.49502E+07
 0.11247000E+03  0.48643E+07
 0.11252000E+03  0.47549E+07
 0.11257000E+03  0.46168E+07
 0.11262000E+03  0.44966E+07
 0.11267000E+03  0.44355E+07
 0.11272000E+03  0.44265E+07
 0.11277000E+03  0.43963E+07
 0.11282000E+03  0.42952E+07
 0.11287000E+03  0.41712E+07
 0.11292000E+03  0.40607E+07
 0.11297000E+03  0.39631E+07
 0.11302000E+03  0.38832E+07
 0.11307000E+03  0.38354E+07
 0.11312000E+03  0.38509E+07
 0.11317000E+03  0.39073E+07
 0.11322000E+03  0.39720E+07
 0.11327000E+03  0.40646E+07
 0.11332000E+03  0.41815E+07
 0.11337000E+03  0.43037E+07
 0.11342000E+03  0.44039E+07
 0.11347000E+03  0.44268E+07
 0.11352000E+03  0.43636E+07
 0.11357000E+03  0.42798E+07
 0.11362000E+03  0.42293E+07
 0.11367000E+03  0.42256E+07
 0.11372000E+03  0.42809E+07
 0.11377000E+03  0.43830E+07
 0.11382000E+03  0.44970E+07
 0.11387000E+03  0.45994E+07
 0.11392000E+03  0.46561E+07
 0.11397000E+03  0.46460E+07
 0.11402000E+03  0.45968E+07
 0.11407000E+03  0.45614E+07
 0.11412000E+03  0.45485E+07
 0.11417000E+03  0.45171E+07
 0.11422000E+03  0.44683E+07
 0.11427000E+03  0.44211E+07
 0.11432000E+03  0.43833E+07
 0.11437000E+03  0.43579E+07
 0.11442000E+03  0.43547E+07
 0.11447000E+03  0.44145E+07
 0.11452000E+03  0.45381E+07
 0.11457000E+03  0.46789E+07
 0.11462000E+03  0.47872E+07
 0.11467000E+03  0.48463E+07
 0.11472000E+03  0.48763E+07
 0.11477000E+03  0.48796E+07
 0.11482000E+03  0.48545E+07
 0.11487000E+03  0.48177E+07
 0.11492000E+03  0.47823E+07
 0.11497000E+03  0.47528E+07
 0.11502000E+03  0.47285E+07
 0.11507000E+03  0.46976E+07
 0.11512000E+03  0.46407E+07
 0.11517000E+03  0.45546E+07
 0.11522000E+03  0.44510E+07
 0.11527000E+03  0.43477E+07
 0.11532000E+03  0.42697E+07
 0.11537000E+03  0.42367E+07
 0.11542000E+03  0.42451E+07
 0.11547000E+03  0.42881E+07
 0.11552000E+03  0.43428E+07
 0.11557000E+03  0.43508E+07
 0.11562000E+03  0.42918E+07
 0.11567000E+03  0.42019E+07
 0.11572000E+03  0.41467E+07
 0.11577000E+03  0.41597E+07
 0.11582000E+03  0.42106E+07
 0.11587000E+03  0.42603E+07
 0.11592000E+03  0.42771E+07
 0.11597000E+03  0.42513E+07
 0.11602000E+03  0.41941E+07
 0.11607000E+03  0.41147E+07
 0.11612000E+03  0.40222E+07
 0.11617000E+03  0.39556E+07
 0.11622000E+03  0.39564E+07
 0.11627000E+03  0.40088E+07
 0.11632000E+03  0.40575E+07
 0.11637000E+03  0.40564E+07
 0.11642000E+03  0.40039E+07
 0.11647000E+03  0.39443E+07
 0.11652000E+03  0.39287E+07
 0.11657000E+03  0.39729E+07
 0.11662000E+03  0.40725E+07
 0.11667000E+03  0.42027E+07
 0.11672000E+03  0.43210E+07
 0.11677000E+03  0.43903E+07
 0.11682000E+03  0.43843E+07
 0.11687000E+03  0.43361E+07
 0.11692000E+03  0.43126E+07
 0.11697000E+03  0.43215E+07
 0.11702000E+03  0.43147E+07
 0.11707000E+03  0.42661E+07
 0.11712000E+03  0.42013E+07
 0.11717000E+03  0.41712E+07
 0.11722000E+03  0.42064E+07
 0.11727000E+03  0.42709E+07
 0.11732000E+03  0.43098E+07
 0.11737000E+03  0.43117E+07
 0.11742000E+03  0.42909E+07
 0.11747000E+03  0.42725E+07
 0.11752000E+03  0.42761E+07
 0.11757000E+03  0.42844E+07
 0.11762000E+03  0.42905E+07
 0.11767000E+03  0.43295E+07
 0.11772000E+03  0.44212E+07
 0.11777000E+03  0.45441E+07
 0.11782000E+03  0.46668E+07
 0.11787000E+03  0.47753E+07
 0.11792000E+03  0.48702E+07
 0.11797000E+03  0.49605E+07
 0.11802000E+03  0.50452E+07
 0.11807000E+03  0.50973E+07
 0.11812000E+03  0.50963E+07
 0.11817000E+03  0.50583E+07
 0.11822000E+03  0.50260E+07
 0.11827000E+03  0.50325E+07
 0.11832000E+03  0.50766E+07
 0.11837000E+03  0.51375E+07
 0.11842000E+03  0.51921E+07
 0.11847000E+03  0.52244E+07
 0.11852000E+03  0.52400E+07
 0.11857000E+03  0.52384E+07
 0.11862000E+03  0.51928E+07
 0.11867000E+03  0.50842E+07
 0.11872000E+03  0.49229E+07
 0.11877000E+03  0.47491E+07
 0.11882000E+03  0.45958E+07
 0.11887000E+03  0.44590E+07
 0.11892000E+03  0.43145E+07
 0.11897000E+03  0.41655E+07
 0.11902000E+03  0.40402E+07
 0.11907000E+03  0.39293E+07
 0.11912000E+03  0.38126E+07
 0.11917000E+03  0.37070E+07
 0.11922000E+03  0.36637E+07
 0.11927000E+03  0.37048E+07
 0.11932000E+03  0.37836E+07
 0.11937000E+03  0.38579E+07
 0.11942000E+03  0.39101E+07
 0.11947000E+03  0.39426E+07
 0.11952000E+03  0.39474E+07
 0.11957000E+03  0.38856E+07
 0.11962000E+03  0.37600E+07
 0.11967000E+03  0.36306E+07
 0.11972000E+03  0.35594E+07
 0.11977000E+03  0.35518E+07
 0.11982000E+03  0.35725E+07
 0.11987000E+03  0.35848E+07
 0.11992000E+03  0.35769E+07
 0.11997000E+03  0.35706E+07
 0.12002000E+03  0.35694E+07
 0.12007000E+03  0.35698E+07
 0.12012000E+03  0.35830E+07
 0.12017000E+03  0.36072E+07
 0.12022000E+03  0.36483E+07
 0.12027000E+03  0.37188E+07
 0.12032000E+03  0.38027E+07
 0.12037000E+03  0.38674E+07
 0.12042000E+03  0.39051E+07
 0.12047000E+03  0.39436E+07
 0.12052000E+03  0.40146E+07
 0.12057000E+03  0.41347E+07
 0.12062000E+03  0.43005E+07
 0.12067000E+03  0.44771E+07
 0.12072000E+03  0.46205E+07
 0.12077000E+03  0.47069E+07
 0.12082000E+03  0.47192E+07
 0.12087000E+03  0.46617E+07
 0.12092000E+03  0.45823E+07
 0.12097000E+03  0.45194E+07
 0.12102000E+03  0.44836E+07
 0.12107000E+03  0.44578E+07
 0.12112000E+03  0.44234E+07
 0.12117000E+03  0.43842E+07
 0.12122000E+03  0.43546E+07
 0.12127000E+03  0.43536E+07
 0.12132000E+03  0.43643E+07
 0.12137000E+03  0.43634E+07
 0.12142000E+03  0.43664E+07
 0.12147000E+03  0.43901E+07
 0.12152000E+03  0.44258E+07
 0.12157000E+03  0.44592E+07
 0.12162000E+03  0.45059E+07
 0.12167000E+03  0.45852E+07
 0.12172000E+03  0.46741E+07
 0.12177000E+03  0.47367E+07
 0.12182000E+03  0.47630E+07
 0.12187000E+03  0.47707E+07
 0.12192000E+03  0.47756E+07
 0.12197000E+03  0.47721E+07
 0.12202000E+03  0.47639E+07
 0.12207000E+03  0.47698E+07
 0.12212000E+03  0.47904E+07
 0.12217000E+03  0.47853E+07
 0.12222000E+03  0.47251E+07
 0.12227000E+03  0.46316E+07
 0.12232000E+03  0.45376E+07
 0.12237000E+03  0.44524E+07
 0.12242000E+03  0.43578E+07
 0.12247000E+03  0.42491E+07
 0.12252000E+03  0.41469E+07
 0.12257000E+03  0.40656E+07
 0.12262000E+03  0.39962E+07
 0.12267000E+03  0.39272E+07
 0.12272000E+03  0.38695E+07
 0.12277000E+03  0.38157E+07
 0.12282000E+03  0.37432E+07
 0.12287000E+03  0.36548E+07
 0.12292000E+03  0.35692E+07
 0.12297000E+03  0.34975E+07
 0.12302000E+03  0.34428E+07
 0.12307000E+03  0.34114E+07
 0.12312000E+03  0.34053E+07
 0.12317000E+03  0.34262E+07
 0.12322000E+03  0.34628E+07
 0.12327000E+03  0.35002E+07
 0.12332000E+03  0.35243E+07
 0.12337000E+03  0.35136E+07
 0.12342000E+03  0.34859E+07
 0.12347000E+03  0.34731E+07
 0.12352000E+03  0.34820E+07
 0.12357000E+03  0.34991E+07
 0.12362000E+03  0.35036E+07
 0.12367000E+03  0.35172E+07
 0.12372000E+03  0.35863E+07
 0.12377000E+03  0.37179E+07
 0.12382000E+03  0.38750E+07
 0.12387000E+03  0.40120E+07
 0.12392000E+03  0.41081E+07
 0.12397000E+03  0.41782E+07
 0.12402000E+03  0.42471E+07
 0.12407000E+03  0.43081E+07
 0.12412000E+03  0.43420E+07
 0.12417000E+03  0.43436E+07
 0.12422000E+03  0.43229E+07
 0.12427000E+03  0.43099E+07
 0.12432000E+03  0.43172E+07
 0.12437000E+03  0.43319E+07
 0.12442000E+03  0.43421E+07
 0.12447000E+03  0.43482E+07
 0.12452000E+03  0.43585E+07
 0.12457000E+03  0.43732E+07
 0.12462000E+03  0.44084E+07
 0.12467000E+03  0.44670E+07
 0.12472000E+03  0.45242E+07
 0.12477000E+03  0.45712E+07
 0.12482000E+03  0.46067E+07
 0.12487000E+03  0.46283E+07
 0.12492000E+03  0.46266E+07
 0.12497000E+03  0.46108E+07
 0.12502000E+03  0.46015E+07
 0.12507000E+03  0.45923E+07
 0.12512000E+03  0.45803E+07
 0.12517001E+03  0.45742E+07
 0.12521999E+03  0.45807E+07
 0.12527000E+03  0.46050E+07
 0.12532000E+03  0.46319E+07
 0.12537000E+03  0.46350E+07
 0.12542001E+03  0.46103E+07
 0.12546999E+03  0.45688E+07
 0.12552000E+03  0.45254E+07
 0.12557000E+03  0.44973E+07
 0.12562000E+03  0.44927E+07
 0.12567001E+03  0.44972E+07
 0.12571999E+03  0.44845E+07
 0.12577000E+03  0.44413E+07
 0.12582000E+03  0.43644E+07
 0.12587000E+03  0.42687E+07
 0.12592001E+03  0.41716E+07
 0.12596999E+03  0.40853E+07
 0.12602000E+03  0.40334E+07
 0.12607000E+03  0.40169E+07
 0.12612000E+03  0.40085E+07
 0.12617001E+03  0.39809E+07
 0.12621999E+03  0.39354E+07
 0.12627000E+03  0.38787E+07
 0.12632000E+03  0.38072E+07
 0.12637000E+03  0.37339E+07
 0.12642001E+03  0.36643E+07
 0.12646999E+03  0.36096E+07
 0.12652000E+03  0.36018E+07
 0.12657000E+03  0.36461E+07
 0.12662000E+03  0.37041E+07
 0.12667001E+03  0.37422E+07
 0.12671999E+03  0.37494E+07
 0.12677000E+03  0.37195E+07
 0.12682000E+03  0.36708E+07
 0.12687000E+03  0.36318E+07
 0.12692001E+03  0.36198E+07
 0.12696999E+03  0.36456E+07
 0.12702000E+03  0.36942E+07
 0.12707000E+03  0.37410E+07
 0.12712000E+03  0.37912E+07
 0.12717001E+03  0.38602E+07
 0.12721999E+03  0.39281E+07
 0.12727000E+03  0.39399E+07
 0.12732000E+03  0.38750E+07
 0.12737000E+03  0.37976E+07
 0.12742001E+03  0.37790E+07
 0.12746999E+03  0.38164E+07
 0.12752000E+03  0.38614E+07
 0.12757000E+03  0.38684E+07
 0.12762000E+03  0.38239E+07
 0.12767001E+03  0.37442E+07
 0.12771999E+03  0.36505E+07
 0.12777000E+03  0.35567E+07
 0.12782000E+03  0.34794E+07
 0.12787000E+03  0.34520E+07
 0.12792001E+03  0.34980E+07
 0.12796999E+03  0.35902E+07
 0.12802000E+03  0.36839E+07
 0.12807001E+03  0.37654E+07
 0.12812001E+03  0.38290E+07
 0.12817001E+03  0.38620E+07
 0.12822000E+03  0.38719E+07
 0.12827000E+03  0.38826E+07
 0.12832001E+03  0.38963E+07
 0.12837001E+03  0.38946E+07
 0.12842001E+03  0.38654E+07
 0.12847000E+03  0.38211E+07
 0.12852000E+03  0.37953E+07
 0.12857001E+03  0.38008E+07
 0.12862001E+03  0.38138E+07
 0.12867001E+03  0.38016E+07
 0.12872000E+03  0.37680E+07
 0.12877000E+03  0.37409E+07
 0.12882001E+03  0.37256E+07
 0.12887001E+03  0.37190E+07
 0.12892001E+03  0.37218E+07
 0.12897000E+03  0.37315E+07
 0.12902000E+03  0.37506E+07
 0.12907001E+03  0.37793E+07
 0.12912001E+03  0.38130E+07
 0.12917001E+03  0.38427E+07
 0.12922000E+03  0.38538E+07
 0.12927000E+03  0.38353E+07
 0.12932001E+03  0.37989E+07
 0.12937001E+03  0.37794E+07
 0.12942001E+03  0.38015E+07
 0.12947000E+03  0.38580E+07
 0.12952000E+03  0.39227E+07
 0.12957001E+03  0.39807E+07
 0.12962001E+03  0.40399E+07
 0.12967001E+03  0.41072E+07
 0.12972000E+03  0.41778E+07
 0.12977000E+03  0.42391E+07
 0.12982001E+03  0.42857E+07
 0.12987001E+03  0.43173E+07
 0.12992001E+03  0.43261E+07
 0.12997000E+03  0.43095E+07
 0.13002000E+03  0.42669E+07
 0.13007001E+03  0.42114E+07
 0.13012001E+03  0.41656E+07
 0.13017001E+03  0.41333E+07
 0.13022000E+03  0.41028E+07
 0.13027000E+03  0.40551E+07
 0.13032001E+03  0.39866E+07
 0.13037001E+03  0.39028E+07
 0.13042001E+03  0.38095E+07
 0.13047000E+03  0.37277E+07
 0.13052000E+03  0.36665E+07
 0.13057001E+03  0.36176E+07
 0.13062001E+03  0.35815E+07
 0.13067001E+03  0.35804E+07
 0.13072000E+03  0.36365E+07
 0.13077000E+03  0.37406E+07
 0.13082001E+03  0.38620E+07
 0.13087001E+03  0.39695E+07
 0.13092001E+03  0.40490E+07
 0.13097000E+03  0.41036E+07
 0.13102000E+03  0.41403E+07
 0.13107001E+03  0.41663E+07
 0.13112001E+03  0.41839E+07
 0.13117001E+03  0.41973E+07
 0.13122000E+03  0.42151E+07
 0.13127000E+03  0.42356E+07
 0.13132001E+03  0.42429E+07
 0.13137001E+03  0.42250E+07
 0.13142001E+03  0.41821E+07
 0.13147000E+03  0.41302E+07
 0.13152000E+03  0.40851E+07
 0.13157001E+03  0.40367E+07
 0.13162001E+03  0.39799E+07
 0.13167001E+03  0.39354E+07
 0.13172000E+03  0.39101E+07
 0.13177000E+03  0.38860E+07
 0.13182001E+03  0.38471E+07
 0.13187001E+03  0.37940E+07
 0.13192001E+03  0.37371E+07
 0.13197000E+03  0.36772E+07
 0.13202000E+03  0.36205E+07
 0.13207001E+03  0.35884E+07
 0.13212001E+03  0.35966E+07
 0.13217001E+03  0.36499E+07
 0.13222000E+03  0.37261E+07
 0.13227000E+03  0.37792E+07
 0.13232001E+03  0.37799E+07
 0.13237001E+03  0.37450E+07
 0.13242001E+03  0.37152E+07
 0.13247000E+03  0.37028E+07
 0.13252000E+03  0.37054E+07
 0.13257001E+03  0.37232E+07
 0.13262001E+03  0.37539E+07
 0.13267001E+03  0.37907E+07
 0.13272000E+03  0.38235E+07
 0.13277000E+03  0.38498E+07
 0.13282001E+03  0.38610E+07
 0.13287001E+03  0.38495E+07
 0.13292001E+03  0.38201E+07
 0.13297000E+03  0.37891E+07
 0.13302000E+03  0.37774E+07
 0.13307001E+03  0.37825E+07
 0.13312001E+03  0.37801E+07
 0.13317001E+03  0.37469E+07
 0.13322000E+03  0.36762E+07
 0.13327000E+03  0.35804E+07
 0.13332001E+03  0.34770E+07
 0.13337001E+03  0.33715E+07
 0.13342001E+03  0.32596E+07
 0.13347000E+03  0.31434E+07
 0.13352000E+03  0.30430E+07
 0.13357001E+03  0.29808E+07
 0.13362001E+03  0.29706E+07
 0.13367001E+03  0.29995E+07
 0.13372000E+03  0.30229E+07
 0.13377000E+03  0.30225E+07
 0.13382001E+03  0.30182E+07
 0.13387001E+03  0.30300E+07
 0.13392001E+03  0.30601E+07
 0.13397000E+03  0.31079E+07
 0.13402000E+03  0.31709E+07
 0.13407001E+03  0.32392E+07
 0.13412001E+03  0.33131E+07
 0.13417001E+03  0.33773E+07
 0.13422000E+03  0.34118E+07
 0.13427000E+03  0.34245E+07
 0.13432001E+03  0.34268E+07
 0.13437001E+03  0.34174E+07
 0.13442001E+03  0.33886E+07
 0.13447000E+03  0.33472E+07
 0.13452000E+03  0.33123E+07
 0.13457001E+03  0.32873E+07
 0.13462001E+03  0.32658E+07
 0.13467001E+03  0.32460E+07
 0.13472000E+03  0.32296E+07
 0.13477000E+03  0.32146E+07
 0.13482001E+03  0.32030E+07
 0.13487001E+03  0.32067E+07
 0.13492001E+03  0.32268E+07
 0.13497000E+03  0.32646E+07
 0.13502000E+03  0.33307E+07
 0.13507001E+03  0.34261E+07
 0.13512001E+03  0.35440E+07
 0.13517001E+03  0.36774E+07
 0.13522000E+03  0.38186E+07
 0.13527000E+03  0.39559E+07
 0.13532001E+03  0.40762E+07
 0.13537001E+03  0.41760E+07
 0.13542001E+03  0.42489E+07
 0.13547000E+03  0.42794E+07
 0.13552000E+03  0.42653E+07
 0.13557001E+03  0.42320E+07
 0.13562001E+03  0.42126E+07
 0.13567001E+03  0.42086E+07
 0.13572000E+03  0.41980E+07
 0.13577000E+03  0.41641E+07
 0.13582001E+03  0.41145E+07
 0.13587001E+03  0.40756E+07
 0.13592001E+03  0.40544E+07
 0.13597000E+03  0.40352E+07
 0.13602000E+03  0.40002E+07
 0.13607001E+03  0.39411E+07
 0.13612001E+03  0.38660E+07
 0.13617001E+03  0.37933E+07
 0.13622000E+03  0.37311E+07
 0.13627000E+03  0.36753E+07
 0.13632001E+03  0.36235E+07
 0.13637001E+03  0.35748E+07
 0.13642001E+03  0.35299E+07
 0.13647000E+03  0.34932E+07
 0.13652000E+03  0.34776E+07
 0.13657001E+03  0.34839E+07
 0.13662001E+03  0.34907E+07
 0.13667001E+03  0.34818E+07
 0.13672000E+03  0.34585E+07
 0.13677000E+03  0.34232E+07
 0.13682001E+03  0.33841E+07
 0.13687001E+03  0.33569E+07
 0.13692001E+03  0.33433E+07
 0.13697000E+03  0.33357E+07
 0.13702000E+03  0.33148E+07
 0.13707001E+03  0.32751E+07
 0.13712001E+03  0.32384E+07
 0.13717001E+03  0.32233E+07
 0.13722000E+03  0.32300E+07
 0.13727000E+03  0.32382E+07
 0.13732001E+03  0.32372E+07
 0.13737001E+03  0.32242E+07
 0.13742001E+03  0.31990E+07
 0.13747000E+03  0.31686E+07
 0.13752000E+03  0.31391E+07
 0.13757001E+03  0.31334E+07
 0.13762001E+03  0.31590E+07
 0.13767001E+03  0.31907E+07
 0.13772000E+03  0.31991E+07
 0.13777000E+03  0.31815E+07
 0.13782001E+03  0.31674E+07
 0.13787001E+03  0.31704E+07
 0.13792001E+03  0.31819E+07
 0.13797000E+03  0.31887E+07
 0.13802000E+03  0.31914E+07
 0.13807001E+03  0.32057E+07
 0.13812001E+03  0.32393E+07
 0.13817001E+03  0.32909E+07
 0.13822000E+03  0.33581E+07
 0.13827000E+03  0.34365E+07
 0.13832001E+03  0.35062E+07
 0.13837001E+03  0.35430E+07
 0.13842001E+03  0.35445E+07
 0.13847000E+03  0.35323E+07
 0.13852000E+03  0.35327E+07
 0.13857001E+03  0.35566E+07
 0.13862001E+03  0.35941E+07
 0.13867001E+03  0.36223E+07
 0.13872000E+03  0.36198E+07
 0.13877000E+03  0.35782E+07
 0.13882001E+03  0.35094E+07
 0.13887001E+03  0.34451E+07
 0.13892001E+03  0.34048E+07
 0.13897000E+03  0.33820E+07
 0.13902000E+03  0.33711E+07
 0.13907001E+03  0.33827E+07
 0.13912001E+03  0.34244E+07
 0.13917001E+03  0.34817E+07
 0.13922000E+03  0.35443E+07
 0.13927000E+03  0.36129E+07
 0.13932001E+03  0.36850E+07
 0.13937001E+03  0.37664E+07
 0.13942001E+03  0.38532E+07
 0.13947000E+03  0.39194E+07
 0.13952000E+03  0.39465E+07
 0.13957001E+03  0.39468E+07
 0.13962001E+03  0.39434E+07
 0.13967001E+03  0.39324E+07
 0.13972000E+03  0.39056E+07
 0.13977000E+03  0.38690E+07
 0.13982001E+03  0.38278E+07
 0.13987001E+03  0.37851E+07
 0.13992001E+03  0.37431E+07
 0.13997000E+03  0.37095E+07
 0.14002000E+03  0.36902E+07
 0.14007001E+03  0.36886E+07
 0.14012001E+03  0.37105E+07
 0.14017001E+03  0.37567E+07
 0.14022000E+03  0.38201E+07
 0.14027000E+03  0.38796E+07
 0.14032001E+03  0.39065E+07
 0.14037001E+03  0.38902E+07
 0.14042001E+03  0.38387E+07
 0.14047000E+03  0.37630E+07
 0.14052000E+03  0.36785E+07
 0.14057001E+03  0.35947E+07
 0.14062001E+03  0.35027E+07
 0.14067001E+03  0.33944E+07
 0.14072000E+03  0.32760E+07
 0.14077000E+03  0.31638E+07
 0.14082001E+03  0.30747E+07
 0.14087001E+03  0.30224E+07
 0.14092001E+03  0.30044E+07
 0.14097000E+03  0.30085E+07
 0.14102000E+03  0.30304E+07
 0.14107001E+03  0.30545E+07
 0.14112001E+03  0.30647E+07
 0.14117001E+03  0.30514E+07
 0.14122000E+03  0.30022E+07
 0.14127000E+03  0.29332E+07
 0.14132001E+03  0.28809E+07
 0.14137001E+03  0.28631E+07
 0.14142001E+03  0.28737E+07
 0.14147000E+03  0.28969E+07
 0.14152000E+03  0.29278E+07
 0.14157001E+03  0.29619E+07
 0.14162001E+03  0.29901E+07
 0.14167001E+03  0.30064E+07
 0.14172000E+03  0.30090E+07
 0.14177000E+03  0.30063E+07
 0.14182001E+03  0.30087E+07
 0.14187001E+03  0.30237E+07
 0.14192001E+03  0.30439E+07
 0.14197000E+03  0.30447E+07
 0.14202000E+03  0.30124E+07
 0.14207001E+03  0.29575E+07
 0.14212001E+03  0.29050E+07
 0.14217001E+03  0.28726E+07
 0.14222000E+03  0.28517E+07
 0.14227000E+03  0.28299E+07
 0.14232001E+03  0.28189E+07
 0.14237001E+03  0.28300E+07
 0.14242001E+03  0.28548E+07
 0.14247000E+03  0.28752E+07
 0.14252000E+03  0.28788E+07
 0.14257001E+03  0.28696E+07
 0.14262001E+03  0.28567E+07
 0.14267001E+03  0.28439E+07
 0.14272000E+03  0.28368E+07
 0.14277000E+03  0.28418E+07
 0.14282001E+03  0.28546E+07
 0.14287001E+03  0.28780E+07
 0.14292001E+03  0.29220E+07
 0.14297000E+03  0.29855E+07
 0.14302000E+03  0.30656E+07
 0.14307001E+03  0.31502E+07
 0.14312001E+03  0.32295E+07
 0.14317001E+03  0.33095E+07
 0.14322000E+03  0.33882E+07
 0.14327000E+03  0.34518E+07
 0.14332001E+03  0.34885E+07
 0.14337001E+03  0.34940E+07
 0.14342001E+03  0.34748E+07
 0.14347000E+03  0.34537E+07
 0.14352000E+03  0.34570E+07
 0.14357001E+03  0.34930E+07
 0.14362001E+03  0.35440E+07
 0.14367001E+03  0.35832E+07
 0.14372000E+03  0.36042E+07
 0.14377000E+03  0.36206E+07
 0.14382001E+03  0.36454E+07
 0.14387001E+03  0.36777E+07
 0.14392001E+03  0.36997E+07
 0.14397000E+03  0.36998E+07
 0.14402000E+03  0.36798E+07
 0.14407001E+03  0.36550E+07
 0.14412001E+03  0.36470E+07
 0.14417001E+03  0.36518E+07
 0.14422000E+03  0.36511E+07
 0.14427000E+03  0.36380E+07
 0.14432001E+03  0.36218E+07
 0.14437001E+03  0.36207E+07
 0.14442001E+03  0.36415E+07
 0.14447000E+03  0.36738E+07
 0.14452000E+03  0.36929E+07
 0.14457001E+03  0.36802E+07
 0.14462001E+03  0.36317E+07
 0.14467001E+03  0.35578E+07
 0.14472000E+03  0.34734E+07
 0.14477000E+03  0.33820E+07
 0.14482001E+03  0.32799E+07
 0.14487001E+03  0.31594E+07
 0.14492001E+03  0.30346E+07
 0.14497000E+03  0.29356E+07
 0.14502000E+03  0.28742E+07
 0.14507001E+03  0.28431E+07
 0.14512001E+03  0.28257E+07
 0.14517001E+03  0.28221E+07
 0.14522000E+03  0.28390E+07
 0.14527000E+03  0.28762E+07
 0.14532001E+03  0.29186E+07
 0.14537001E+03  0.29379E+07
 0.14542001E+03  0.29280E+07
 0.14547000E+03  0.29048E+07
 0.14552000E+03  0.28921E+07
 0.14557001E+03  0.29058E+07
 0.14562001E+03  0.29351E+07
 0.14567001E+03  0.29608E+07
 0.14572000E+03  0.29739E+07
 0.14577000E+03  0.29771E+07
 0.14582001E+03  0.29831E+07
 0.14587001E+03  0.29972E+07
 0.14592001E+03  0.30098E+07
 0.14597000E+03  0.30140E+07
 0.14602000E+03  0.30217E+07
 0.14607001E+03  0.30373E+07
 0.14612001E+03  0.30496E+07
 0.14617001E+03  0.30477E+07
 0.14622000E+03  0.30338E+07
 0.14627000E+03  0.30354E+07
 0.14632001E+03  0.30673E+07
 0.14637001E+03  0.31130E+07
 0.14642001E+03  0.31427E+07
 0.14647000E+03  0.31495E+07
 0.14652000E+03  0.31570E+07
 0.14657001E+03  0.31782E+07
 0.14662001E+03  0.32069E+07
 0.14667001E+03  0.32248E+07
 0.14672000E+03  0.32206E+07
 0.14677000E+03  0.32018E+07
 0.14682001E+03  0.31850E+07
 0.14687001E+03  0.31830E+07
 0.14692001E+03  0.31918E+07
 0.14697000E+03  0.32002E+07
 0.14702000E+03  0.31945E+07
 0.14707001E+03  0.31744E+07
 0.14712001E+03  0.31531E+07
 0.14717001E+03  0.31242E+07
 0.14722000E+03  0.30718E+07
 0.14727000E+03  0.30009E+07
 0.14732001E+03  0.29248E+07
 0.14737001E+03  0.28413E+07
 0.14742001E+03  0.27493E+07
 0.14747000E+03  0.26610E+07
 0.14752000E+03  0.25938E+07
 0.14757001E+03  0.25569E+07
 0.14762001E+03  0.25407E+07
 0.14767001E+03  0.25319E+07
 0.14772000E+03  0.25216E+07
 0.14777000E+03  0.25031E+07
 0.14782001E+03  0.24803E+07
 0.14787001E+03  0.24635E+07
 0.14792001E+03  0.24492E+07
 0.14797000E+03  0.24219E+07
 0.14802000E+03  0.23819E+07
 0.14807001E+03  0.23492E+07
 0.14812001E+03  0.23422E+07
 0.14817001E+03  0.23676E+07
 0.14822000E+03  0.24142E+07
 0.14827000E+03  0.24639E+07
 0.14832001E+03  0.25132E+07
 0.14837001E+03  0.25670E+07
 0.14842001E+03  0.26247E+07
 0.14847000E+03  0.26794E+07
 0.14852000E+03  0.27289E+07
 0.14857001E+03  0.27782E+07
 0.14862001E+03  0.28211E+07
 0.14867001E+03  0.28444E+07
 0.14872000E+03  0.28483E+07
 0.14877000E+03  0.28443E+07
 0.14882001E+03  0.28495E+07
 0.14887001E+03  0.28813E+07
 0.14892001E+03  0.29430E+07
 0.14897000E+03  0.30193E+07
 0.14902000E+03  0.30866E+07
 0.14907001E+03  0.31397E+07
 0.14912001E+03  0.31863E+07
 0.14917001E+03  0.32223E+07
 0.14922000E+03  0.32389E+07
 0.14927000E+03  0.32392E+07
 0.14932001E+03  0.32444E+07
 0.14937001E+03  0.32643E+07
 0.14942001E+03  0.32788E+07
 0.14947000E+03  0.32702E+07
 0.14952000E+03  0.32453E+07
 0.14957001E+03  0.32254E+07
 0.14962001E+03  0.32148E+07
 0.14967001E+03  0.31986E+07
 0.14972000E+03  0.31652E+07
 0.14977000E+03  0.31152E+07
 0.14982001E+03  0.30636E+07
 0.14987001E+03  0.30264E+07
 0.14992001E+03  0.30018E+07
 0.14997000E+03  0.29776E+07
