-0.29800000E+01  0.16876E+05
-0.29300001E+01  0.16810E+05
-0.28800001E+01  0.16959E+05
-0.28299999E+01  0.17930E+05
-0.27800000E+01  0.19814E+05
-0.27300000E+01  0.21399E+05
-0.26800001E+01  0.22502E+05
-0.26300001E+01  0.24033E+05
-0.25799999E+01  0.23969E+05
-0.25300000E+01  0.21015E+05
-0.24800000E+01  0.16313E+05
-0.24300001E+01  0.10874E+05
-0.23800001E+01  0.56370E+04
-0.23299999E+01  0.78200E+03
-0.22800000E+01 -0.35480E+04
-0.22300000E+01 -0.76050E+04
-0.21800001E+01 -0.11528E+05
-0.21300001E+01 -0.15259E+05
-0.20799999E+01 -0.19460E+05
-0.20300000E+01 -0.24475E+05
-0.19800000E+01 -0.29478E+05
-0.19299999E+01 -0.34266E+05
-0.18800000E+01 -0.39608E+05
-0.18300000E+01 -0.44901E+05
-0.17800000E+01 -0.48536E+05
-0.17300000E+01 -0.50745E+05
-0.16799999E+01 -0.52802E+05
-0.16300000E+01 -0.53270E+05
-0.15800000E+01 -0.51818E+05
-0.15300000E+01 -0.49711E+05
-0.14800000E+01 -0.46400E+05
-0.14299999E+01 -0.41184E+05
-0.13800000E+01 -0.35531E+05
-0.13300000E+01 -0.29984E+05
-0.12800000E+01 -0.24333E+05
-0.12300000E+01 -0.18807E+05
-0.11799999E+01 -0.12975E+05
-0.11300000E+01 -0.86360E+04
-0.10800000E+01 -0.42860E+04
-0.10300000E+01  0.10080E+04
-0.98000002E+00  0.60510E+04
-0.93000007E+00  0.10646E+05
-0.87999988E+00  0.13436E+05
-0.82999992E+00  0.15914E+05
-0.77999997E+00  0.18022E+05
-0.73000002E+00  0.19503E+05
-0.68000007E+00  0.20730E+05
-0.62999988E+00  0.21139E+05
-0.57999992E+00  0.21514E+05
-0.52999997E+00  0.21406E+05
-0.48000002E+00  0.21351E+05
-0.43000007E+00  0.21504E+05
-0.37999988E+00  0.21513E+05
-0.32999992E+00  0.21611E+05
-0.27999997E+00  0.20539E+05
-0.23000002E+00  0.18744E+05
-0.18000007E+00  0.17544E+05
-0.12999988E+00  0.16972E+05
-0.79999924E-01  0.16958E+05
-0.29999971E-01  0.17156E+05
 0.19999981E-01  0.16730E+05
 0.69999933E-01  0.15985E+05
 0.12000012E+00  0.15805E+05
 0.17000008E+00  0.16070E+05
 0.22000003E+00  0.16676E+05
 0.26999998E+00  0.16582E+05
 0.31999993E+00  0.16263E+05
 0.37000012E+00  0.16430E+05
 0.42000008E+00  0.15973E+05
 0.47000003E+00  0.15359E+05
 0.51999998E+00  0.14233E+05
 0.56999993E+00  0.12737E+05
 0.62000012E+00  0.10983E+05
 0.67000008E+00  0.89900E+04
 0.72000003E+00  0.75270E+04
 0.76999998E+00  0.54360E+04
 0.81999993E+00  0.28350E+04
 0.87000012E+00  0.68400E+03
 0.92000008E+00 -0.23200E+03
 0.97000003E+00  0.19200E+03
 0.10200000E+01  0.10930E+04
 0.10700002E+01  0.20680E+04
 0.11199999E+01  0.33090E+04
 0.11700001E+01  0.43500E+04
 0.12200003E+01  0.42320E+04
 0.12700000E+01  0.34060E+04
 0.13200002E+01  0.20910E+04
 0.13699999E+01  0.51900E+03
 0.14200001E+01 -0.69600E+03
 0.14700003E+01 -0.12290E+04
 0.15200000E+01 -0.16370E+04
 0.15700002E+01 -0.24810E+04
 0.16199999E+01 -0.30080E+04
 0.16700001E+01 -0.26100E+04
 0.17200003E+01 -0.19340E+04
 0.17700000E+01 -0.26470E+04
 0.18200002E+01 -0.50050E+04
 0.18699999E+01 -0.80710E+04
 0.19200001E+01 -0.11642E+05
 0.19700003E+01 -0.15358E+05
 0.20200000E+01 -0.19129E+05
 0.20700002E+01 -0.22906E+05
 0.21199999E+01 -0.26346E+05
 0.21700001E+01 -0.29765E+05
 0.22200003E+01 -0.33245E+05
 0.22700000E+01 -0.36494E+05
 0.23200002E+01 -0.39363E+05
 0.23699999E+01 -0.42187E+05
 0.24200001E+01 -0.44621E+05
 0.24700003E+01 -0.45957E+05
 0.25200000E+01 -0.46585E+05
 0.25700002E+01 -0.46740E+05
 0.26199999E+01 -0.46732E+05
 0.26700001E+01 -0.46407E+05
 0.27200003E+01 -0.44726E+05
 0.27700000E+01 -0.42060E+05
 0.28200002E+01 -0.39773E+05
 0.28699999E+01 -0.37992E+05
 0.29200001E+01 -0.35551E+05
 0.29700003E+01 -0.32200E+05
 0.30200000E+01 -0.28665E+05
 0.30700002E+01 -0.24162E+05
 0.31199999E+01 -0.18282E+05
 0.31700001E+01 -0.12371E+05
 0.32200003E+01 -0.71460E+04
 0.32700000E+01 -0.26940E+04
 0.33200002E+01  0.80600E+03
 0.33699999E+01  0.37080E+04
 0.34200001E+01  0.65360E+04
 0.34700003E+01  0.89690E+04
 0.35200000E+01  0.11085E+05
 0.35700002E+01  0.13295E+05
 0.36199999E+01  0.15472E+05
 0.36700001E+01  0.17154E+05
 0.37200003E+01  0.17940E+05
 0.37700000E+01  0.18651E+05
 0.38200002E+01  0.19215E+05
 0.38699999E+01  0.19149E+05
 0.39200001E+01  0.18531E+05
 0.39700003E+01  0.16856E+05
 0.40200000E+01  0.15126E+05
 0.40700002E+01  0.14245E+05
 0.41199999E+01  0.13608E+05
 0.41700001E+01  0.13403E+05
 0.42200003E+01  0.13815E+05
 0.42700000E+01  0.14397E+05
 0.43200002E+01  0.14946E+05
 0.43699999E+01  0.15092E+05
 0.44200001E+01  0.14930E+05
 0.44700003E+01  0.14956E+05
 0.45200000E+01  0.15125E+05
 0.45700002E+01  0.15369E+05
 0.46199999E+01  0.15577E+05
 0.46700001E+01  0.15287E+05
 0.47200003E+01  0.14608E+05
 0.47700000E+01  0.14173E+05
 0.48200002E+01  0.13790E+05
 0.48699999E+01  0.13136E+05
 0.49200001E+01  0.12257E+05
 0.49700003E+01  0.11794E+05
 0.50200000E+01  0.11940E+05
 0.50700002E+01  0.12750E+05
 0.51200004E+01  0.15124E+05
 0.51700006E+01  0.17910E+05
 0.52199998E+01  0.20044E+05
 0.52700000E+01  0.21565E+05
 0.53200002E+01  0.22893E+05
 0.53700004E+01  0.24056E+05
 0.54200006E+01  0.23792E+05
 0.54699998E+01  0.22771E+05
 0.55200000E+01  0.21439E+05
 0.55700002E+01  0.19142E+05
 0.56200004E+01  0.15826E+05
 0.56700006E+01  0.11365E+05
 0.57199998E+01  0.65280E+04
 0.57700000E+01  0.23400E+04
 0.58200002E+01 -0.66400E+03
 0.58700004E+01 -0.16280E+04
 0.59200006E+01 -0.11970E+04
 0.59699998E+01 -0.76700E+03
 0.60200000E+01 -0.19900E+03
 0.60700002E+01 -0.60000E+01
 0.61200004E+01 -0.28000E+02
 0.61700006E+01  0.21800E+03
 0.62199998E+01 -0.75000E+02
 0.62700000E+01 -0.11340E+04
 0.63200002E+01 -0.29230E+04
 0.63700004E+01 -0.46400E+04
 0.64200006E+01 -0.62820E+04
 0.64699998E+01 -0.81720E+04
 0.65200000E+01 -0.10258E+05
 0.65700002E+01 -0.13124E+05
 0.66200004E+01 -0.16021E+05
 0.66700006E+01 -0.19043E+05
 0.67199998E+01 -0.21956E+05
 0.67700000E+01 -0.24546E+05
 0.68200002E+01 -0.26551E+05
 0.68700004E+01 -0.27581E+05
 0.69200006E+01 -0.29892E+05
 0.69699998E+01 -0.32810E+05
 0.70200000E+01 -0.35720E+05
 0.70700002E+01 -0.39528E+05
 0.71200004E+01 -0.43769E+05
 0.71700006E+01 -0.48071E+05
 0.72199998E+01 -0.51444E+05
 0.72700000E+01 -0.53806E+05
 0.73200002E+01 -0.55519E+05
 0.73700004E+01 -0.56458E+05
 0.74200006E+01 -0.56243E+05
 0.74699998E+01 -0.55049E+05
 0.75200000E+01 -0.52257E+05
 0.75700002E+01 -0.47421E+05
 0.76200004E+01 -0.41830E+05
 0.76700006E+01 -0.35816E+05
 0.77199998E+01 -0.30624E+05
 0.77700000E+01 -0.26700E+05
 0.78200002E+01 -0.22732E+05
 0.78700004E+01 -0.18859E+05
 0.79200006E+01 -0.14571E+05
 0.79699998E+01 -0.97530E+04
 0.80200005E+01 -0.50960E+04
 0.80699997E+01 -0.63600E+03
 0.81200008E+01  0.36860E+04
 0.81700001E+01  0.78930E+04
 0.82199993E+01  0.11324E+05
 0.82700005E+01  0.13778E+05
 0.83199997E+01  0.15439E+05
 0.83700008E+01  0.16594E+05
 0.84200001E+01  0.17976E+05
 0.84699993E+01  0.19241E+05
 0.85200005E+01  0.20770E+05
 0.85699997E+01  0.23144E+05
 0.86200008E+01  0.25052E+05
 0.86700001E+01  0.27645E+05
 0.87199993E+01  0.31399E+05
 0.87700005E+01  0.34571E+05
 0.88199997E+01  0.37109E+05
 0.88700008E+01  0.38822E+05
 0.89200001E+01  0.39329E+05
 0.89699993E+01  0.38301E+05
 0.90200005E+01  0.35882E+05
 0.90699997E+01  0.32108E+05
 0.91200008E+01  0.27674E+05
 0.91700001E+01  0.23282E+05
 0.92199993E+01  0.18459E+05
 0.92700005E+01  0.13638E+05
 0.93199997E+01  0.91120E+04
 0.93700008E+01  0.54030E+04
 0.94200001E+01  0.34900E+04
 0.94699993E+01  0.36930E+04
 0.95200005E+01  0.54320E+04
 0.95699997E+01  0.83150E+04
 0.96200008E+01  0.12089E+05
 0.96700001E+01  0.15936E+05
 0.97199993E+01  0.19989E+05
 0.97700005E+01  0.23853E+05
 0.98199997E+01  0.26881E+05
 0.98700008E+01  0.28790E+05
 0.99200001E+01  0.28941E+05
 0.99699993E+01  0.27381E+05
 0.10020000E+02  0.24234E+05
 0.10070000E+02  0.20480E+05
 0.10120001E+02  0.16011E+05
 0.10170000E+02  0.98810E+04
 0.10219999E+02  0.29000E+04
 0.10270000E+02 -0.49870E+04
 0.10320000E+02 -0.13798E+05
 0.10370001E+02 -0.22820E+05
 0.10420000E+02 -0.31315E+05
 0.10469999E+02 -0.38384E+05
 0.10520000E+02 -0.44047E+05
 0.10570000E+02 -0.49497E+05
 0.10620001E+02 -0.55644E+05
 0.10670000E+02 -0.61916E+05
 0.10719999E+02 -0.67711E+05
 0.10770000E+02 -0.72690E+05
 0.10820000E+02 -0.76501E+05
 0.10870001E+02 -0.78485E+05
 0.10920000E+02 -0.78555E+05
 0.10969999E+02 -0.76978E+05
 0.11020000E+02 -0.73115E+05
 0.11070000E+02 -0.67538E+05
 0.11120001E+02 -0.61055E+05
 0.11170000E+02 -0.53405E+05
 0.11219999E+02 -0.44245E+05
 0.11270000E+02 -0.33060E+05
 0.11320000E+02 -0.20795E+05
 0.11370001E+02 -0.83060E+04
 0.11420000E+02  0.35090E+04
 0.11469999E+02  0.13822E+05
 0.11520000E+02  0.23599E+05
 0.11570000E+02  0.32426E+05
 0.11620001E+02  0.40181E+05
 0.11670000E+02  0.46911E+05
 0.11719999E+02  0.53025E+05
 0.11770000E+02  0.58285E+05
 0.11820000E+02  0.62955E+05
 0.11870001E+02  0.66583E+05
 0.11920000E+02  0.69863E+05
 0.11969999E+02  0.73502E+05
 0.12020000E+02  0.72658E+05
 0.12070000E+02  0.74688E+05
 0.12120001E+02  0.73871E+05
 0.12170000E+02  0.71835E+05
 0.12219999E+02  0.67470E+05
 0.12270000E+02  0.62735E+05
 0.12320000E+02  0.59542E+05
 0.12370001E+02  0.47397E+05
 0.12420000E+02  0.51257E+05
 0.12469999E+02  0.49384E+05
 0.12520000E+02  0.85062E+05
 0.12570000E+02  0.85964E+05
 0.12620001E+02  0.48334E+05
 0.12670000E+02  0.31214E+05
 0.12719999E+02 -0.18988E+05
 0.12770000E+02  0.35154E+05
 0.12820000E+02  0.99957E+05
 0.12870001E+02  0.17255E+06
 0.12920000E+02  0.19332E+06
 0.12969999E+02  0.13026E+06
 0.13020000E+02 -0.80853E+05
 0.13070002E+02 -0.24220E+06
 0.13120001E+02  0.53082E+05
 0.13170000E+02  0.55610E+05
 0.13220001E+02 -0.16712E+06
 0.13270000E+02 -0.89866E+05
 0.13320002E+02  0.26060E+06
 0.13370001E+02  0.37536E+06
 0.13420000E+02  0.43713E+05
 0.13470001E+02 -0.35559E+06
 0.13520000E+02 -0.57078E+06
 0.13570002E+02  0.59105E+06
 0.13620001E+02  0.16620E+07
 0.13670000E+02  0.74182E+06
 0.13720001E+02 -0.87071E+06
 0.13770000E+02 -0.12072E+07
 0.13820002E+02 -0.35672E+06
 0.13870001E+02  0.97474E+05
 0.13920000E+02  0.55086E+06
 0.13970001E+02 -0.24722E+06
 0.14020000E+02 -0.23008E+07
 0.14070002E+02 -0.18205E+07
 0.14120001E+02 -0.15296E+06
 0.14170000E+02 -0.51229E+06
 0.14220001E+02 -0.11990E+07
 0.14270000E+02 -0.13175E+07
 0.14320002E+02 -0.89510E+06
 0.14370001E+02  0.13233E+06
 0.14420000E+02  0.18724E+06
 0.14470001E+02 -0.52847E+06
 0.14520000E+02 -0.10222E+07
 0.14570002E+02 -0.10909E+07
 0.14620001E+02 -0.25387E+06
 0.14670000E+02  0.11755E+07
 0.14720001E+02  0.91275E+06
 0.14770000E+02 -0.12594E+06
 0.14820002E+02 -0.48020E+06
 0.14870001E+02 -0.40488E+06
 0.14920000E+02  0.69692E+06
 0.14970001E+02  0.72102E+06
 0.15020000E+02  0.31634E+05
 0.15070002E+02  0.50070E+06
 0.15120001E+02  0.10835E+07
 0.15170000E+02  0.54330E+06
 0.15220001E+02  0.36869E+06
 0.15270000E+02  0.11628E+07
 0.15320002E+02  0.16501E+06
 0.15370001E+02 -0.86490E+06
 0.15420000E+02 -0.35655E+06
 0.15470001E+02 -0.84474E+06
 0.15520000E+02 -0.86282E+06
 0.15570002E+02  0.64215E+06
 0.15620001E+02  0.77194E+06
 0.15670000E+02 -0.65651E+06
 0.15720001E+02 -0.10216E+07
 0.15770000E+02 -0.99143E+05
 0.15820002E+02  0.12710E+06
 0.15870001E+02  0.20784E+06
 0.15920000E+02  0.21380E+06
 0.15970001E+02 -0.86483E+06
 0.16020000E+02 -0.94037E+06
 0.16070002E+02 -0.52379E+06
 0.16120001E+02  0.20538E+06
 0.16170000E+02  0.66374E+06
 0.16220001E+02 -0.14279E+07
 0.16270000E+02 -0.11319E+07
 0.16320002E+02  0.45954E+06
 0.16370001E+02  0.25520E+06
 0.16420000E+02  0.11738E+06
 0.16470001E+02 -0.67501E+06
 0.16520000E+02 -0.12854E+07
 0.16570002E+02 -0.94700E+06
 0.16620001E+02  0.39935E+06
 0.16670000E+02  0.82068E+06
 0.16720001E+02 -0.22884E+06
 0.16770000E+02 -0.10366E+07
 0.16820002E+02 -0.94634E+06
 0.16870001E+02 -0.73048E+05
 0.16920000E+02  0.11350E+07
 0.16970001E+02  0.15322E+07
 0.17020000E+02  0.44989E+06
 0.17070002E+02 -0.55190E+06
 0.17120001E+02 -0.98342E+06
 0.17170000E+02 -0.14864E+06
 0.17220001E+02  0.48214E+06
 0.17270000E+02 -0.39817E+06
 0.17320002E+02 -0.32054E+06
 0.17370001E+02  0.51265E+06
 0.17420000E+02  0.12570E+07
 0.17470001E+02  0.32936E+06
 0.17520000E+02 -0.62471E+06
 0.17570002E+02  0.14494E+05
 0.17620001E+02 -0.83170E+06
 0.17670000E+02 -0.36346E+06
 0.17720001E+02  0.17995E+06
 0.17770000E+02 -0.12011E+07
 0.17820002E+02 -0.14140E+07
 0.17870001E+02 -0.72385E+06
 0.17920000E+02  0.43173E+06
 0.17970001E+02  0.14316E+06
 0.18020000E+02 -0.10688E+06
 0.18070002E+02 -0.22958E+06
 0.18120001E+02 -0.16192E+07
 0.18170000E+02 -0.99414E+06
 0.18220001E+02  0.10653E+05
 0.18270000E+02 -0.33281E+06
 0.18320002E+02 -0.80332E+06
 0.18370001E+02  0.45774E+06
 0.18420000E+02  0.12014E+07
 0.18470001E+02 -0.19145E+06
 0.18520000E+02  0.39951E+06
 0.18570002E+02  0.24545E+06
 0.18620001E+02 -0.10720E+07
 0.18670000E+02 -0.10457E+07
 0.18720001E+02 -0.74164E+06
 0.18770000E+02 -0.75467E+06
 0.18820002E+02 -0.61554E+06
 0.18870001E+02 -0.17982E+06
 0.18920000E+02 -0.90537E+06
 0.18970001E+02 -0.86245E+06
 0.19020000E+02 -0.36241E+06
 0.19070002E+02 -0.27921E+05
 0.19120001E+02  0.89032E+06
 0.19170000E+02  0.41753E+06
 0.19220001E+02 -0.56599E+06
 0.19270000E+02 -0.39455E+06
 0.19320002E+02 -0.11787E+06
 0.19370001E+02 -0.85189E+06
 0.19420000E+02 -0.16088E+07
 0.19470001E+02 -0.11405E+07
 0.19520000E+02 -0.47624E+06
 0.19570002E+02 -0.22726E+06
 0.19620001E+02 -0.55420E+05
 0.19670000E+02  0.14544E+06
 0.19720001E+02  0.12978E+07
 0.19770000E+02  0.21761E+07
 0.19820002E+02  0.15954E+07
 0.19870001E+02  0.10031E+07
 0.19920000E+02  0.17242E+07
 0.19970001E+02  0.24086E+07
 0.20020000E+02  0.17416E+07
 0.20070002E+02  0.24693E+07
 0.20120001E+02  0.27495E+07
 0.20170000E+02  0.89697E+06
 0.20220001E+02  0.18420E+07
 0.20270000E+02  0.37789E+07
 0.20320002E+02  0.43814E+07
 0.20370001E+02  0.85304E+07
 0.20420000E+02  0.15159E+08
 0.20470001E+02  0.18250E+08
 0.20520000E+02  0.17161E+08
 0.20570002E+02  0.15542E+08
 0.20620001E+02  0.12602E+08
 0.20670000E+02  0.85900E+07
 0.20720001E+02  0.62708E+07
 0.20770000E+02  0.25344E+07
 0.20820002E+02  0.96993E+06
 0.20870001E+02 -0.17601E+07
 0.20920000E+02 -0.69210E+07
 0.20970001E+02 -0.48102E+07
 0.21020000E+02 -0.44226E+07
 0.21070002E+02 -0.78913E+07
 0.21120001E+02 -0.45441E+06
 0.21170000E+02 -0.12028E+05
 0.21220001E+02 -0.17913E+08
 0.21270000E+02 -0.17147E+08
 0.21320002E+02 -0.14039E+08
 0.21370001E+02 -0.17773E+08
 0.21420000E+02 -0.43206E+07
 0.21470001E+02 -0.18703E+07
 0.21520000E+02 -0.54676E+07
 0.21570002E+02 -0.62979E+07
 0.21620001E+02 -0.39342E+07
 0.21670000E+02  0.46855E+07
 0.21720001E+02  0.34167E+07
 0.21770000E+02  0.67926E+07
 0.21820002E+02  0.15600E+06
 0.21870001E+02 -0.11877E+08
 0.21920000E+02  0.11815E+07
 0.21970001E+02  0.70315E+07
 0.22020000E+02  0.94364E+06
 0.22070002E+02  0.17163E+07
 0.22120001E+02  0.11088E+08
 0.22170000E+02  0.12788E+08
 0.22220001E+02  0.42159E+07
 0.22270000E+02  0.84316E+07
 0.22320002E+02  0.66990E+07
 0.22370001E+02  0.35626E+07
 0.22420000E+02  0.10616E+08
 0.22470001E+02  0.89109E+07
 0.22520000E+02  0.18079E+07
 0.22570002E+02 -0.25733E+07
 0.22620001E+02 -0.50947E+07
 0.22670000E+02  0.28602E+07
 0.22720001E+02  0.14327E+08
 0.22770000E+02  0.11088E+08
 0.22820002E+02  0.78200E+07
 0.22870001E+02  0.77389E+07
 0.22920000E+02  0.52813E+07
 0.22970001E+02  0.25900E+07
 0.23020000E+02  0.53090E+07
 0.23070002E+02  0.58249E+07
 0.23120001E+02 -0.11517E+07
 0.23170000E+02 -0.25223E+07
 0.23220001E+02 -0.50423E+07
 0.23270000E+02 -0.56168E+07
 0.23320002E+02 -0.61951E+07
 0.23370001E+02 -0.38889E+07
 0.23420000E+02 -0.45306E+06
 0.23470001E+02 -0.39624E+07
 0.23520000E+02 -0.10714E+07
 0.23570002E+02 -0.14985E+07
 0.23620001E+02 -0.38310E+07
 0.23670000E+02 -0.22505E+07
 0.23720001E+02 -0.41326E+07
 0.23770000E+02 -0.35385E+07
 0.23820002E+02 -0.24290E+07
 0.23870001E+02 -0.51588E+07
 0.23920000E+02 -0.45117E+07
 0.23970001E+02 -0.19081E+07
 0.24020000E+02 -0.64300E+07
 0.24070002E+02 -0.92265E+07
 0.24120001E+02 -0.78496E+07
 0.24170000E+02 -0.92997E+07
 0.24220001E+02 -0.77336E+07
 0.24270000E+02 -0.34330E+07
 0.24320002E+02 -0.19740E+07
 0.24370001E+02 -0.19274E+06
 0.24420000E+02  0.25258E+07
 0.24470001E+02  0.32416E+07
 0.24520000E+02  0.52221E+07
 0.24570002E+02  0.38363E+07
 0.24620001E+02  0.35701E+06
 0.24670000E+02  0.48694E+07
 0.24720001E+02  0.60932E+07
 0.24770000E+02 -0.61967E+06
 0.24820002E+02 -0.13000E+07
 0.24870001E+02  0.16208E+07
 0.24920000E+02 -0.20284E+07
 0.24970001E+02 -0.56558E+07
 0.25020000E+02 -0.38887E+07
 0.25070002E+02 -0.40273E+07
 0.25120001E+02 -0.29609E+07
 0.25170000E+02 -0.55085E+06
 0.25220001E+02 -0.99791E+06
 0.25270000E+02  0.30709E+06
 0.25320002E+02 -0.16578E+06
 0.25370001E+02  0.42794E+06
 0.25420000E+02  0.12795E+07
 0.25470001E+02 -0.90328E+06
 0.25520000E+02  0.28674E+06
 0.25570002E+02  0.12325E+07
 0.25620001E+02  0.22520E+07
 0.25670000E+02  0.40081E+07
 0.25720001E+02  0.29715E+07
 0.25770000E+02  0.28137E+07
 0.25820002E+02  0.29402E+07
 0.25870001E+02 -0.37855E+06
 0.25920000E+02 -0.29568E+07
 0.25970001E+02 -0.33387E+07
 0.26020000E+02 -0.42935E+07
 0.26070002E+02 -0.40333E+07
 0.26120001E+02 -0.52346E+07
 0.26170000E+02 -0.66579E+07
 0.26220001E+02 -0.55898E+07
 0.26270000E+02 -0.61605E+07
 0.26320002E+02 -0.46735E+07
 0.26370001E+02 -0.29906E+07
 0.26420000E+02 -0.46150E+07
 0.26470001E+02 -0.42106E+07
 0.26520000E+02 -0.31954E+07
 0.26570002E+02 -0.40407E+07
 0.26620001E+02 -0.46179E+07
 0.26670000E+02 -0.46980E+07
 0.26720001E+02 -0.46410E+07
 0.26770000E+02 -0.20562E+07
 0.26820002E+02  0.73055E+06
 0.26870001E+02  0.17279E+07
 0.26920000E+02  0.22212E+07
 0.26970001E+02  0.17980E+07
 0.27020000E+02  0.27368E+07
 0.27070002E+02  0.58053E+07
 0.27120001E+02  0.54160E+07
 0.27170000E+02  0.19920E+07
 0.27220001E+02  0.20005E+07
 0.27270000E+02  0.23534E+07
 0.27320002E+02  0.24359E+07
 0.27370001E+02  0.17140E+07
 0.27420000E+02 -0.79921E+06
 0.27470001E+02 -0.11127E+07
 0.27520000E+02 -0.88014E+06
 0.27570002E+02  0.11271E+06
 0.27620001E+02  0.33473E+06
 0.27670000E+02 -0.69124E+06
 0.27720001E+02 -0.64397E+06
 0.27770000E+02  0.26434E+06
 0.27820002E+02  0.21234E+07
 0.27870001E+02  0.27900E+07
 0.27920000E+02  0.24371E+07
 0.27970001E+02  0.21038E+07
 0.28020000E+02  0.22754E+07
 0.28070002E+02  0.27511E+07
 0.28120001E+02  0.14096E+07
 0.28170000E+02  0.73624E+06
 0.28220001E+02  0.15593E+07
 0.28270000E+02 -0.28095E+06
 0.28320002E+02 -0.16808E+07
 0.28370001E+02 -0.10077E+07
 0.28420000E+02 -0.18457E+07
 0.28470001E+02 -0.31094E+07
 0.28520000E+02 -0.31169E+07
 0.28570002E+02 -0.14593E+07
 0.28620001E+02 -0.11375E+07
 0.28670000E+02 -0.10663E+07
 0.28720001E+02 -0.23455E+06
 0.28770000E+02 -0.20865E+07
 0.28820002E+02 -0.30657E+07
 0.28870001E+02 -0.22495E+07
 0.28920000E+02 -0.18448E+07
 0.28970001E+02 -0.20779E+07
 0.29020000E+02 -0.30004E+07
 0.29070000E+02 -0.41103E+07
 0.29120003E+02 -0.48730E+07
 0.29170002E+02 -0.39500E+07
 0.29220001E+02 -0.34922E+07
 0.29270000E+02 -0.34166E+07
 0.29320000E+02 -0.19429E+07
 0.29370003E+02 -0.32362E+06
 0.29420002E+02 -0.14078E+06
 0.29470001E+02 -0.99516E+06
 0.29520000E+02 -0.32926E+06
 0.29570000E+02 -0.81903E+06
 0.29620003E+02 -0.12883E+07
 0.29670002E+02  0.16673E+07
 0.29720001E+02  0.42724E+07
 0.29770000E+02  0.44549E+07
 0.29820000E+02  0.34117E+07
 0.29870003E+02  0.31006E+07
 0.29920002E+02  0.38782E+07
 0.29970001E+02  0.38232E+07
 0.30020000E+02  0.20615E+07
 0.30070000E+02  0.74822E+06
 0.30120003E+02  0.15934E+06
 0.30170002E+02 -0.41746E+06
 0.30220001E+02  0.46400E+04
 0.30270000E+02 -0.50247E+06
 0.30320000E+02 -0.17538E+07
 0.30370003E+02 -0.13595E+07
 0.30420002E+02 -0.33520E+06
 0.30470001E+02 -0.18370E+06
 0.30520000E+02  0.33742E+06
 0.30570000E+02  0.13195E+07
 0.30620003E+02  0.19255E+07
 0.30670002E+02  0.20896E+07
 0.30720001E+02  0.21626E+06
 0.30770000E+02 -0.81565E+06
 0.30820000E+02 -0.33081E+05
 0.30870003E+02  0.61842E+06
 0.30920002E+02  0.83623E+06
 0.30970001E+02 -0.47103E+05
 0.31020000E+02 -0.24963E+06
 0.31070000E+02 -0.10470E+06
 0.31120003E+02  0.18944E+06
 0.31170002E+02 -0.49124E+06
 0.31220001E+02 -0.12333E+07
 0.31270000E+02 -0.14764E+06
 0.31320000E+02  0.35214E+05
 0.31370003E+02  0.31133E+06
 0.31420002E+02  0.10480E+07
 0.31470001E+02  0.79238E+06
 0.31520000E+02  0.92824E+06
 0.31570000E+02  0.23746E+07
 0.31620003E+02  0.26334E+07
 0.31670002E+02  0.13834E+07
 0.31720001E+02  0.25211E+06
 0.31770000E+02 -0.13509E+07
 0.31820000E+02 -0.19831E+07
 0.31870003E+02 -0.28229E+07
 0.31920002E+02 -0.46672E+07
 0.31970001E+02 -0.50139E+07
 0.32020000E+02 -0.44615E+07
 0.32070000E+02 -0.31112E+07
 0.32120003E+02 -0.15326E+07
 0.32170002E+02 -0.12670E+07
 0.32220001E+02 -0.47714E+06
 0.32270000E+02  0.11282E+07
 0.32320000E+02  0.22017E+07
 0.32370003E+02  0.23393E+07
 0.32420002E+02  0.12963E+07
 0.32470001E+02  0.15152E+07
 0.32520000E+02  0.26091E+07
 0.32570000E+02  0.29134E+07
 0.32620003E+02  0.32599E+07
 0.32670002E+02  0.28032E+07
 0.32720001E+02  0.11838E+07
 0.32770000E+02  0.50309E+06
 0.32820000E+02  0.19824E+07
 0.32870003E+02  0.24104E+07
 0.32920002E+02  0.15909E+07
 0.32970001E+02  0.89515E+06
 0.33020000E+02  0.28297E+06
 0.33070000E+02  0.85221E+06
 0.33120003E+02  0.10298E+07
 0.33170002E+02  0.58734E+06
 0.33220001E+02 -0.15749E+06
 0.33270000E+02 -0.10359E+07
 0.33320000E+02 -0.10332E+07
 0.33370003E+02 -0.66920E+04
 0.33420002E+02  0.12037E+07
 0.33470001E+02  0.18233E+07
 0.33520000E+02  0.27468E+07
 0.33570000E+02  0.29380E+07
 0.33620003E+02  0.30107E+07
 0.33670002E+02  0.35781E+07
 0.33720001E+02  0.26950E+07
 0.33770000E+02  0.18635E+07
 0.33820000E+02  0.10754E+07
 0.33870003E+02 -0.44211E+06
 0.33920002E+02 -0.84882E+06
 0.33970001E+02 -0.66245E+06
 0.34020000E+02 -0.11264E+07
 0.34070000E+02 -0.18002E+07
 0.34120003E+02 -0.26702E+07
 0.34170002E+02 -0.32473E+07
 0.34220001E+02 -0.28522E+07
 0.34270000E+02 -0.21856E+07
 0.34320000E+02 -0.12379E+07
 0.34370003E+02 -0.44697E+06
 0.34420002E+02 -0.48480E+06
 0.34470001E+02 -0.64474E+06
 0.34520000E+02 -0.12732E+07
 0.34570000E+02 -0.24312E+07
 0.34620003E+02 -0.28523E+07
 0.34670002E+02 -0.23761E+07
 0.34720001E+02 -0.15358E+07
 0.34770000E+02 -0.70277E+06
 0.34820000E+02 -0.31908E+06
 0.34870003E+02 -0.86035E+06
 0.34920002E+02 -0.67290E+06
 0.34970001E+02  0.11946E+06
 0.35020000E+02 -0.78912E+06
 0.35070000E+02 -0.59822E+06
 0.35120003E+02  0.61638E+06
 0.35170002E+02  0.24254E+06
 0.35220001E+02 -0.66568E+05
 0.35270000E+02 -0.43129E+06
 0.35320000E+02 -0.88890E+06
 0.35370003E+02 -0.60540E+06
 0.35420002E+02 -0.19288E+06
 0.35470001E+02  0.54363E+06
 0.35520000E+02  0.13792E+07
 0.35570000E+02  0.19246E+07
 0.35620003E+02  0.25180E+07
 0.35670002E+02  0.26615E+07
 0.35720001E+02  0.26421E+07
 0.35770000E+02  0.34506E+07
 0.35820000E+02  0.43654E+07
 0.35870003E+02  0.40911E+07
 0.35920002E+02  0.28050E+07
 0.35970001E+02  0.16355E+07
 0.36020000E+02  0.95823E+06
 0.36070000E+02  0.54050E+06
 0.36120003E+02 -0.16319E+05
 0.36170002E+02 -0.54923E+06
 0.36220001E+02 -0.70964E+06
 0.36270000E+02 -0.78689E+06
 0.36320000E+02 -0.83881E+06
 0.36370003E+02 -0.91613E+06
 0.36420002E+02 -0.14330E+07
 0.36470001E+02 -0.20784E+07
 0.36520000E+02 -0.22719E+07
 0.36570000E+02 -0.24239E+07
 0.36620003E+02 -0.22431E+07
 0.36670002E+02 -0.19587E+07
 0.36720001E+02 -0.20016E+07
 0.36770000E+02 -0.18792E+07
 0.36820000E+02 -0.22410E+07
 0.36870003E+02 -0.21359E+07
 0.36920002E+02 -0.12517E+07
 0.36970001E+02 -0.61108E+06
 0.37020000E+02  0.60212E+05
 0.37070000E+02  0.50584E+05
 0.37120003E+02  0.73343E+05
 0.37170002E+02  0.40135E+06
 0.37220001E+02 -0.13854E+05
 0.37270000E+02 -0.31577E+06
 0.37320000E+02 -0.13871E+06
 0.37370003E+02  0.53078E+06
 0.37420002E+02  0.14567E+07
 0.37470001E+02  0.20993E+07
 0.37520000E+02  0.23036E+07
 0.37570000E+02  0.21922E+07
 0.37620003E+02  0.20937E+07
 0.37670002E+02  0.18308E+07
 0.37720001E+02  0.17329E+07
 0.37770000E+02  0.17100E+07
 0.37820000E+02  0.15463E+07
 0.37870003E+02  0.14217E+07
 0.37920002E+02  0.77043E+06
 0.37970001E+02 -0.28262E+06
 0.38020000E+02 -0.87789E+06
 0.38070000E+02 -0.13612E+07
 0.38120003E+02 -0.20059E+07
 0.38170002E+02 -0.20686E+07
 0.38220001E+02 -0.21695E+07
 0.38270000E+02 -0.23209E+07
 0.38320000E+02 -0.22073E+07
 0.38370003E+02 -0.26000E+07
 0.38420002E+02 -0.34277E+07
 0.38470001E+02 -0.41602E+07
 0.38520000E+02 -0.43360E+07
 0.38570000E+02 -0.45754E+07
 0.38620003E+02 -0.43457E+07
 0.38670002E+02 -0.33198E+07
 0.38720001E+02 -0.28635E+07
 0.38770000E+02 -0.24871E+07
 0.38820000E+02 -0.18965E+07
 0.38870003E+02 -0.14098E+07
 0.38920002E+02 -0.86271E+06
 0.38970001E+02 -0.38639E+06
 0.39020000E+02  0.15954E+06
 0.39070000E+02  0.79400E+06
 0.39120003E+02  0.11244E+07
 0.39170002E+02  0.15621E+07
 0.39220001E+02  0.22920E+07
 0.39270000E+02  0.26684E+07
 0.39320000E+02  0.26037E+07
 0.39370003E+02  0.20669E+07
 0.39420002E+02  0.15161E+07
 0.39470001E+02  0.15804E+07
 0.39520000E+02  0.21199E+07
 0.39570000E+02  0.25601E+07
 0.39620003E+02  0.22174E+07
 0.39670002E+02  0.13202E+07
 0.39720001E+02  0.10793E+07
 0.39770000E+02  0.14182E+07
 0.39820000E+02  0.14678E+07
 0.39870003E+02  0.14349E+07
 0.39920002E+02  0.14434E+07
 0.39970001E+02  0.15019E+07
 0.40020000E+02  0.16206E+07
 0.40070000E+02  0.15470E+07
 0.40120003E+02  0.12130E+07
 0.40170002E+02  0.62275E+06
 0.40220001E+02 -0.39135E+06
 0.40270000E+02 -0.12501E+07
 0.40320000E+02 -0.13996E+07
 0.40370003E+02 -0.14607E+07
 0.40420002E+02 -0.14305E+07
 0.40470001E+02 -0.10068E+07
 0.40520000E+02 -0.58034E+06
 0.40570000E+02 -0.40596E+06
 0.40620003E+02 -0.11172E+06
 0.40670002E+02  0.59012E+06
 0.40720001E+02  0.11578E+07
 0.40770000E+02  0.13702E+07
 0.40820000E+02  0.17385E+07
 0.40870003E+02  0.23278E+07
 0.40920002E+02  0.24058E+07
 0.40970001E+02  0.23326E+07
 0.41020000E+02  0.27617E+07
 0.41070000E+02  0.26744E+07
 0.41120003E+02  0.20423E+07
 0.41170002E+02  0.13472E+07
 0.41220001E+02  0.50157E+06
 0.41270000E+02 -0.43233E+06
 0.41320000E+02 -0.10566E+07
 0.41370003E+02 -0.88718E+06
 0.41420002E+02 -0.87338E+06
 0.41470001E+02 -0.13772E+07
 0.41520000E+02 -0.16158E+07
 0.41570000E+02 -0.13373E+07
 0.41620003E+02 -0.94334E+06
 0.41670002E+02 -0.10801E+07
 0.41720001E+02 -0.15469E+07
 0.41770000E+02 -0.18921E+07
 0.41820000E+02 -0.24231E+07
 0.41870003E+02 -0.25693E+07
 0.41920002E+02 -0.19719E+07
 0.41970001E+02 -0.18710E+07
 0.42020000E+02 -0.18884E+07
 0.42070000E+02 -0.15005E+07
 0.42120003E+02 -0.11272E+07
 0.42170002E+02 -0.59234E+06
 0.42220001E+02 -0.70081E+05
 0.42270000E+02  0.48980E+06
 0.42320000E+02  0.90724E+06
 0.42370003E+02  0.11153E+07
 0.42420002E+02  0.14135E+07
 0.42470001E+02  0.14988E+07
 0.42520000E+02  0.11917E+07
 0.42570000E+02  0.94427E+06
 0.42620003E+02  0.86775E+06
 0.42670002E+02  0.59590E+06
 0.42720001E+02  0.65278E+06
 0.42770000E+02  0.84534E+06
 0.42820000E+02  0.10886E+07
 0.42870003E+02  0.15771E+07
 0.42920002E+02  0.14567E+07
 0.42970001E+02  0.10651E+07
 0.43020000E+02  0.70108E+06
 0.43070000E+02  0.58242E+06
 0.43120003E+02  0.83237E+06
 0.43170002E+02  0.92962E+06
 0.43220001E+02  0.93810E+06
 0.43270000E+02  0.11302E+07
 0.43320000E+02  0.12007E+07
 0.43370003E+02  0.71854E+06
 0.43420002E+02  0.24052E+06
 0.43470001E+02 -0.30250E+06
 0.43520000E+02 -0.96035E+06
 0.43570000E+02 -0.11177E+07
 0.43620003E+02 -0.10017E+07
 0.43670002E+02 -0.89455E+06
 0.43720001E+02 -0.80273E+06
 0.43770000E+02 -0.10378E+07
 0.43820000E+02 -0.14969E+07
 0.43870003E+02 -0.15055E+07
 0.43920002E+02 -0.13068E+07
 0.43970001E+02 -0.98302E+06
 0.44020000E+02 -0.46203E+06
 0.44070000E+02 -0.39002E+06
 0.44120003E+02 -0.25070E+06
 0.44170002E+02 -0.76588E+05
 0.44220001E+02 -0.46164E+06
 0.44270000E+02 -0.82191E+06
 0.44320000E+02 -0.13254E+07
 0.44370003E+02 -0.17179E+07
 0.44420002E+02 -0.16559E+07
 0.44470001E+02 -0.15526E+07
 0.44520000E+02 -0.14094E+07
 0.44570000E+02 -0.13939E+07
 0.44620003E+02 -0.12103E+07
 0.44670002E+02 -0.97779E+06
 0.44720001E+02 -0.92192E+06
 0.44770000E+02 -0.78812E+06
 0.44820000E+02 -0.58720E+06
 0.44870003E+02 -0.16896E+06
 0.44920002E+02  0.27023E+06
 0.44970001E+02  0.61997E+06
 0.45020000E+02  0.10483E+07
 0.45070000E+02  0.13464E+07
 0.45120003E+02  0.13765E+07
 0.45170002E+02  0.14200E+07
 0.45220001E+02  0.13850E+07
 0.45270000E+02  0.12889E+07
 0.45320000E+02  0.14863E+07
 0.45370003E+02  0.17589E+07
 0.45420002E+02  0.20472E+07
 0.45470001E+02  0.22688E+07
 0.45520000E+02  0.23798E+07
 0.45570000E+02  0.25392E+07
 0.45620003E+02  0.25277E+07
 0.45670002E+02  0.24136E+07
 0.45720001E+02  0.23319E+07
 0.45770000E+02  0.21320E+07
 0.45820000E+02  0.17470E+07
 0.45870003E+02  0.13406E+07
 0.45920002E+02  0.81247E+06
 0.45970001E+02  0.91140E+05
 0.46020000E+02 -0.57750E+06
 0.46070000E+02 -0.11892E+07
 0.46120003E+02 -0.17322E+07
 0.46170002E+02 -0.21558E+07
 0.46220001E+02 -0.23637E+07
 0.46270000E+02 -0.23693E+07
 0.46320000E+02 -0.21653E+07
 0.46370003E+02 -0.18722E+07
 0.46420002E+02 -0.17319E+07
 0.46470001E+02 -0.17010E+07
 0.46520000E+02 -0.16012E+07
 0.46570000E+02 -0.12777E+07
 0.46620003E+02 -0.10007E+07
 0.46670002E+02 -0.94441E+06
 0.46720001E+02 -0.95606E+06
 0.46770000E+02 -0.95730E+06
 0.46820000E+02 -0.83711E+06
 0.46870003E+02 -0.51374E+06
 0.46920002E+02 -0.28656E+06
 0.46970001E+02 -0.30633E+06
 0.47020000E+02 -0.32169E+06
 0.47070000E+02 -0.26618E+06
 0.47120003E+02 -0.75233E+05
 0.47170002E+02  0.14534E+06
 0.47220001E+02  0.15035E+06
 0.47270000E+02 -0.50550E+05
 0.47320000E+02 -0.16378E+06
 0.47370003E+02 -0.14578E+06
 0.47420002E+02 -0.29423E+06
 0.47470001E+02 -0.40870E+06
 0.47520000E+02 -0.20376E+06
 0.47570000E+02  0.23278E+06
 0.47620003E+02  0.66809E+06
 0.47670002E+02  0.99085E+06
 0.47720001E+02  0.11508E+07
 0.47770000E+02  0.10524E+07
 0.47820000E+02  0.79635E+06
 0.47870003E+02  0.60691E+06
 0.47920002E+02  0.54282E+06
 0.47970001E+02  0.24907E+06
 0.48020000E+02 -0.26131E+05
 0.48070000E+02  0.22482E+05
 0.48120003E+02  0.51081E+05
 0.48170002E+02  0.22596E+05
 0.48220001E+02 -0.14518E+06
 0.48270000E+02 -0.21512E+06
 0.48320000E+02 -0.19385E+06
 0.48370003E+02 -0.32666E+06
 0.48420002E+02 -0.41493E+06
 0.48470001E+02 -0.54720E+06
 0.48520000E+02 -0.73624E+06
 0.48570000E+02 -0.96044E+06
 0.48620003E+02 -0.10382E+07
 0.48670002E+02 -0.93256E+06
 0.48720001E+02 -0.82870E+06
 0.48770000E+02 -0.63658E+06
 0.48820000E+02 -0.27337E+06
 0.48870003E+02  0.57612E+05
 0.48920002E+02  0.70657E+05
 0.48970001E+02  0.20236E+06
 0.49020000E+02  0.54881E+06
 0.49070000E+02  0.66971E+06
 0.49120003E+02  0.77091E+06
 0.49170002E+02  0.94381E+06
 0.49220001E+02  0.91584E+06
 0.49270000E+02  0.96403E+06
 0.49320000E+02  0.12623E+07
 0.49370003E+02  0.14087E+07
 0.49420002E+02  0.15166E+07
 0.49470001E+02  0.15925E+07
 0.49520000E+02  0.14476E+07
 0.49570000E+02  0.11644E+07
 0.49620003E+02  0.51972E+06
 0.49670002E+02 -0.13990E+06
 0.49720001E+02 -0.47692E+06
 0.49770000E+02 -0.85175E+06
 0.49820000E+02 -0.13400E+07
 0.49870003E+02 -0.17279E+07
 0.49920002E+02 -0.20036E+07
 0.49970001E+02 -0.23605E+07
 0.50020000E+02 -0.25863E+07
 0.50070000E+02 -0.25490E+07
 0.50120003E+02 -0.24589E+07
 0.50170002E+02 -0.22191E+07
 0.50220001E+02 -0.17479E+07
 0.50270000E+02 -0.11932E+07
 0.50320000E+02 -0.72499E+06
 0.50370003E+02 -0.36909E+06
 0.50420002E+02 -0.14742E+06
 0.50470001E+02  0.24527E+05
 0.50520000E+02  0.35443E+06
 0.50570000E+02  0.71287E+06
 0.50620003E+02  0.12287E+07
 0.50670002E+02  0.17862E+07
 0.50720001E+02  0.20808E+07
 0.50770000E+02  0.22909E+07
 0.50820000E+02  0.22556E+07
 0.50870003E+02  0.20510E+07
 0.50920002E+02  0.18153E+07
 0.50970001E+02  0.16312E+07
 0.51020000E+02  0.15234E+07
 0.51070000E+02  0.12940E+07
 0.51120003E+02  0.10997E+07
 0.51170002E+02  0.84017E+06
 0.51220001E+02  0.60867E+06
 0.51270000E+02  0.59800E+06
 0.51320000E+02  0.64921E+06
 0.51370003E+02  0.55692E+06
 0.51420002E+02  0.22312E+06
 0.51470001E+02  0.98213E+05
 0.51520000E+02  0.19576E+06
 0.51570000E+02  0.29523E+06
 0.51620003E+02  0.35303E+06
 0.51670002E+02  0.14616E+06
 0.51720001E+02 -0.18362E+05
 0.51770000E+02 -0.64031E+05
 0.51820000E+02 -0.18514E+06
 0.51870003E+02 -0.20879E+06
 0.51920002E+02 -0.12618E+06
 0.51970001E+02 -0.32405E+05
 0.52020000E+02  0.21538E+05
 0.52070000E+02  0.14795E+06
 0.52120003E+02  0.26584E+06
 0.52170002E+02  0.17406E+06
 0.52220001E+02  0.10010E+06
 0.52270000E+02  0.55744E+05
 0.52320000E+02  0.54301E+05
 0.52370003E+02  0.23205E+06
 0.52420002E+02  0.43849E+06
 0.52470001E+02  0.60599E+06
 0.52520000E+02  0.71641E+06
 0.52570000E+02  0.82240E+06
 0.52620003E+02  0.87394E+06
 0.52670002E+02  0.76086E+06
 0.52720001E+02  0.67202E+06
 0.52770000E+02  0.58292E+06
 0.52820000E+02  0.21271E+06
 0.52870003E+02 -0.20464E+06
 0.52920002E+02 -0.40742E+06
 0.52970001E+02 -0.61048E+06
 0.53020000E+02 -0.84297E+06
 0.53070000E+02 -0.11002E+07
 0.53120003E+02 -0.12654E+07
 0.53170002E+02 -0.12602E+07
 0.53220001E+02 -0.12651E+07
 0.53270000E+02 -0.11915E+07
 0.53320000E+02 -0.10972E+07
 0.53370003E+02 -0.92636E+06
 0.53420002E+02 -0.63233E+06
 0.53470001E+02 -0.39558E+06
 0.53520000E+02 -0.21278E+06
 0.53570000E+02 -0.73443E+05
 0.53620003E+02  0.85750E+05
 0.53670002E+02  0.25781E+06
 0.53720001E+02  0.42991E+06
 0.53770000E+02  0.46870E+06
 0.53820000E+02  0.47049E+06
 0.53870003E+02  0.55768E+06
 0.53920002E+02  0.53466E+06
 0.53970001E+02  0.47156E+06
 0.54020000E+02  0.38255E+06
 0.54070000E+02  0.31881E+06
 0.54120003E+02  0.27010E+06
 0.54170002E+02  0.19115E+06
 0.54220001E+02  0.16974E+06
 0.54270000E+02  0.13687E+06
 0.54320000E+02  0.10198E+06
 0.54370003E+02  0.17136E+05
 0.54420002E+02 -0.21919E+05
 0.54470001E+02  0.68265E+05
 0.54520000E+02  0.99538E+05
 0.54570000E+02  0.53007E+05
 0.54620003E+02 -0.42653E+05
 0.54670002E+02 -0.17167E+06
 0.54720001E+02 -0.32740E+06
 0.54770000E+02 -0.55067E+06
 0.54820000E+02 -0.72751E+06
 0.54870003E+02 -0.88434E+06
 0.54920002E+02 -0.10495E+07
 0.54970001E+02 -0.10949E+07
 0.55020000E+02 -0.10292E+07
 0.55070000E+02 -0.78036E+06
 0.55120003E+02 -0.53632E+06
 0.55170002E+02 -0.32362E+06
 0.55220001E+02  0.46765E+05
 0.55270000E+02  0.40230E+06
 0.55320000E+02  0.74921E+06
 0.55370003E+02  0.10017E+07
 0.55420002E+02  0.10867E+07
 0.55470001E+02  0.10323E+07
 0.55520000E+02  0.80901E+06
 0.55570000E+02  0.62852E+06
 0.55620003E+02  0.48490E+06
 0.55670002E+02  0.31507E+06
 0.55720001E+02  0.22531E+06
 0.55770000E+02  0.13408E+06
 0.55820000E+02 -0.58170E+04
 0.55870003E+02 -0.12533E+06
 0.55920002E+02 -0.23301E+06
 0.55970001E+02 -0.47426E+06
 0.56020000E+02 -0.84390E+06
 0.56070000E+02 -0.10663E+07
 0.56120003E+02 -0.11254E+07
 0.56170002E+02 -0.11813E+07
 0.56220001E+02 -0.12325E+07
 0.56270000E+02 -0.12956E+07
 0.56320000E+02 -0.12642E+07
 0.56370003E+02 -0.10837E+07
 0.56420002E+02 -0.99594E+06
 0.56470001E+02 -0.10115E+07
 0.56520000E+02 -0.94638E+06
 0.56570000E+02 -0.68433E+06
 0.56620003E+02 -0.41056E+06
 0.56670002E+02 -0.27795E+06
 0.56720001E+02 -0.96128E+05
 0.56770000E+02  0.10744E+06
 0.56820000E+02  0.40263E+06
 0.56870003E+02  0.73708E+06
 0.56920002E+02  0.83068E+06
 0.56970001E+02  0.76662E+06
 0.57020000E+02  0.72189E+06
 0.57070000E+02  0.73325E+06
 0.57120003E+02  0.66537E+06
 0.57170002E+02  0.44050E+06
 0.57220001E+02  0.17571E+06
 0.57270000E+02  0.41220E+05
 0.57320000E+02 -0.65500E+03
 0.57370003E+02 -0.12240E+06
 0.57420002E+02 -0.28642E+06
 0.57470001E+02 -0.40845E+06
 0.57520000E+02 -0.54939E+06
 0.57570000E+02 -0.68460E+06
 0.57620003E+02 -0.75191E+06
 0.57670002E+02 -0.75641E+06
 0.57720001E+02 -0.69790E+06
 0.57770000E+02 -0.69472E+06
 0.57820000E+02 -0.71169E+06
 0.57870003E+02 -0.72511E+06
 0.57920002E+02 -0.77822E+06
 0.57970001E+02 -0.86336E+06
 0.58020000E+02 -0.10121E+07
 0.58070000E+02 -0.10403E+07
 0.58120003E+02 -0.87340E+06
 0.58170002E+02 -0.69916E+06
 0.58220001E+02 -0.54031E+06
 0.58270000E+02 -0.36635E+06
 0.58320000E+02 -0.16085E+06
 0.58370003E+02  0.12576E+06
 0.58420002E+02  0.30310E+06
 0.58470001E+02  0.38927E+06
 0.58520000E+02  0.51410E+06
 0.58570000E+02  0.56744E+06
 0.58620003E+02  0.61168E+06
 0.58670002E+02  0.65599E+06
 0.58720001E+02  0.58296E+06
 0.58770000E+02  0.55282E+06
 0.58820000E+02  0.62769E+06
 0.58870003E+02  0.62982E+06
 0.58920002E+02  0.48184E+06
 0.58970001E+02  0.20026E+06
 0.59020000E+02 -0.18059E+06
 0.59070000E+02 -0.66434E+06
 0.59120003E+02 -0.10431E+07
 0.59170002E+02 -0.12460E+07
 0.59220001E+02 -0.13436E+07
 0.59270000E+02 -0.12419E+07
 0.59320000E+02 -0.10536E+07
 0.59370003E+02 -0.86491E+06
 0.59420002E+02 -0.67499E+06
 0.59470001E+02 -0.49210E+06
 0.59520000E+02 -0.25459E+06
 0.59570000E+02  0.86115E+05
 0.59620003E+02  0.48118E+06
 0.59670002E+02  0.79548E+06
 0.59720001E+02  0.99674E+06
 0.59770000E+02  0.11098E+07
 0.59820000E+02  0.11305E+07
 0.59870003E+02  0.10720E+07
 0.59920002E+02  0.10657E+07
 0.59970001E+02  0.11513E+07
 0.60020000E+02  0.11991E+07
 0.60070000E+02  0.12095E+07
 0.60120003E+02  0.11547E+07
 0.60170002E+02  0.10734E+07
 0.60220001E+02  0.10429E+07
 0.60270000E+02  0.10370E+07
 0.60320000E+02  0.10550E+07
 0.60370003E+02  0.94158E+06
 0.60420002E+02  0.78446E+06
 0.60470001E+02  0.70310E+06
 0.60520000E+02  0.59500E+06
 0.60570000E+02  0.47695E+06
 0.60620003E+02  0.29976E+06
 0.60670002E+02  0.15585E+06
 0.60720001E+02  0.55725E+05
 0.60770000E+02 -0.20803E+05
 0.60820000E+02  0.34131E+05
 0.60870003E+02  0.14907E+06
 0.60920002E+02  0.33864E+06
 0.60970001E+02  0.52818E+06
 0.61020000E+02  0.68420E+06
 0.61070004E+02  0.88578E+06
 0.61119999E+02  0.10208E+07
 0.61170002E+02  0.10935E+07
 0.61220005E+02  0.11424E+07
 0.61270000E+02  0.11473E+07
 0.61320004E+02  0.11011E+07
 0.61369999E+02  0.98677E+06
 0.61420002E+02  0.81964E+06
 0.61470005E+02  0.57960E+06
 0.61520000E+02  0.31530E+06
 0.61570004E+02  0.70963E+05
 0.61619999E+02 -0.14785E+06
 0.61670002E+02 -0.34498E+06
 0.61720005E+02 -0.49593E+06
 0.61770000E+02 -0.50748E+06
 0.61820004E+02 -0.43790E+06
 0.61869999E+02 -0.36427E+06
 0.61920002E+02 -0.25725E+06
 0.61970005E+02 -0.19540E+06
 0.62020000E+02 -0.28979E+06
 0.62070004E+02 -0.39984E+06
 0.62119999E+02 -0.43307E+06
 0.62170002E+02 -0.51058E+06
 0.62220005E+02 -0.64818E+06
 0.62270000E+02 -0.79186E+06
 0.62320004E+02 -0.90426E+06
 0.62369999E+02 -0.93819E+06
 0.62420002E+02 -0.83440E+06
 0.62470005E+02 -0.68756E+06
 0.62520000E+02 -0.67053E+06
 0.62570004E+02 -0.72487E+06
 0.62619999E+02 -0.74387E+06
 0.62670002E+02 -0.65068E+06
 0.62720005E+02 -0.39138E+06
 0.62770000E+02 -0.86855E+05
 0.62820004E+02  0.16694E+06
 0.62869999E+02  0.37811E+06
 0.62920002E+02  0.54693E+06
 0.62970005E+02  0.65860E+06
 0.63020000E+02  0.68504E+06
 0.63070004E+02  0.58675E+06
 0.63119999E+02  0.41179E+06
 0.63170002E+02  0.27025E+06
 0.63220005E+02  0.18962E+06
 0.63270000E+02  0.50290E+05
 0.63320004E+02 -0.15903E+06
 0.63369999E+02 -0.28365E+06
 0.63420002E+02 -0.38971E+06
 0.63470005E+02 -0.48696E+06
 0.63520000E+02 -0.52708E+06
 0.63570004E+02 -0.57854E+06
 0.63619999E+02 -0.60117E+06
 0.63670002E+02 -0.60287E+06
 0.63720005E+02 -0.60445E+06
 0.63770000E+02 -0.57114E+06
 0.63820004E+02 -0.52391E+06
 0.63869999E+02 -0.48453E+06
 0.63920002E+02 -0.40923E+06
 0.63970005E+02 -0.29860E+06
 0.64019997E+02 -0.22924E+06
 0.64070000E+02 -0.19079E+06
 0.64119995E+02 -0.15204E+06
 0.64169998E+02 -0.10596E+06
 0.64220001E+02 -0.26427E+05
 0.64269997E+02  0.21594E+05
 0.64320000E+02 -0.19564E+05
 0.64369995E+02 -0.69661E+05
 0.64419998E+02 -0.81845E+05
 0.64470001E+02 -0.95718E+05
 0.64519997E+02 -0.70622E+05
 0.64570000E+02  0.64420E+04
 0.64619995E+02  0.83460E+05
 0.64669998E+02  0.12003E+06
 0.64720001E+02  0.11126E+06
 0.64769997E+02  0.16046E+06
 0.64820000E+02  0.26523E+06
 0.64869995E+02  0.30975E+06
 0.64919998E+02  0.29590E+06
 0.64970001E+02  0.27146E+06
 0.65019997E+02  0.24759E+06
 0.65070000E+02  0.24026E+06
 0.65119995E+02  0.21408E+06
 0.65169998E+02  0.15237E+06
 0.65220001E+02  0.39083E+05
 0.65269997E+02 -0.12263E+06
 0.65320000E+02 -0.19001E+06
 0.65369995E+02 -0.15702E+06
 0.65419998E+02 -0.15688E+06
 0.65470001E+02 -0.17364E+06
 0.65519997E+02 -0.12447E+06
 0.65570000E+02 -0.71905E+05
 0.65619995E+02 -0.32215E+05
 0.65669998E+02  0.33323E+05
 0.65720001E+02  0.71620E+04
 0.65769997E+02 -0.43780E+05
 0.65820000E+02  0.32681E+05
 0.65869995E+02  0.16433E+06
 0.65919998E+02  0.23027E+06
 0.65970001E+02  0.21766E+06
 0.66019997E+02  0.17087E+06
 0.66070000E+02  0.10978E+06
 0.66119995E+02  0.80780E+05
 0.66169998E+02  0.47356E+05
 0.66220001E+02  0.21210E+04
 0.66269997E+02 -0.66306E+05
 0.66320000E+02 -0.15298E+06
 0.66369995E+02 -0.15068E+06
 0.66419998E+02 -0.11631E+06
 0.66470001E+02 -0.10063E+06
 0.66519997E+02 -0.14090E+06
 0.66570000E+02 -0.22789E+06
 0.66619995E+02 -0.24882E+06
 0.66669998E+02 -0.25115E+06
 0.66720001E+02 -0.29311E+06
 0.66769997E+02 -0.38556E+06
 0.66820000E+02 -0.47130E+06
 0.66869995E+02 -0.45153E+06
 0.66919998E+02 -0.39109E+06
 0.66970001E+02 -0.34016E+06
 0.67019997E+02 -0.30797E+06
 0.67070000E+02 -0.26822E+06
 0.67119995E+02 -0.20070E+06
 0.67169998E+02 -0.12889E+06
 0.67220001E+02  0.72110E+04
 0.67269997E+02  0.14434E+06
 0.67320000E+02  0.23218E+06
 0.67369995E+02  0.31304E+06
 0.67419998E+02  0.37587E+06
 0.67470001E+02  0.41048E+06
 0.67519997E+02  0.40910E+06
 0.67570000E+02  0.39145E+06
 0.67619995E+02  0.32793E+06
 0.67669998E+02  0.22480E+06
 0.67720001E+02  0.12156E+06
 0.67769997E+02  0.44780E+04
 0.67820000E+02 -0.14525E+06
 0.67869995E+02 -0.27843E+06
 0.67919998E+02 -0.35562E+06
 0.67970001E+02 -0.42366E+06
 0.68019997E+02 -0.45664E+06
 0.68070000E+02 -0.45348E+06
 0.68119995E+02 -0.41244E+06
 0.68169998E+02 -0.31100E+06
 0.68220001E+02 -0.17745E+06
 0.68269997E+02 -0.91240E+05
 0.68320000E+02 -0.11966E+06
 0.68369995E+02 -0.19955E+06
 0.68419998E+02 -0.31405E+06
 0.68470001E+02 -0.44269E+06
 0.68519997E+02 -0.55380E+06
 0.68570000E+02 -0.66769E+06
 0.68619995E+02 -0.73068E+06
 0.68669998E+02 -0.73720E+06
 0.68720001E+02 -0.68423E+06
 0.68769997E+02 -0.60318E+06
 0.68820000E+02 -0.58936E+06
 0.68869995E+02 -0.55592E+06
 0.68919998E+02 -0.48274E+06
 0.68970001E+02 -0.39086E+06
 0.69019997E+02 -0.23982E+06
 0.69070000E+02 -0.94015E+05
 0.69119995E+02  0.16995E+05
 0.69169998E+02  0.11836E+06
 0.69220001E+02  0.25517E+06
 0.69269997E+02  0.34722E+06
 0.69320000E+02  0.38579E+06
 0.69369995E+02  0.44513E+06
 0.69419998E+02  0.50406E+06
 0.69470001E+02  0.60619E+06
 0.69519997E+02  0.72707E+06
 0.69570000E+02  0.80848E+06
 0.69619995E+02  0.80191E+06
 0.69669998E+02  0.73399E+06
 0.69720001E+02  0.63321E+06
 0.69769997E+02  0.52893E+06
 0.69820000E+02  0.47861E+06
 0.69869995E+02  0.34298E+06
 0.69919998E+02  0.17224E+06
 0.69970001E+02  0.72286E+05
 0.70019997E+02  0.64900E+03
 0.70070000E+02  0.10648E+05
 0.70119995E+02  0.54118E+05
 0.70169998E+02  0.43394E+05
 0.70220001E+02  0.26769E+05
 0.70269997E+02  0.56794E+05
 0.70320000E+02  0.68945E+05
 0.70369995E+02  0.75039E+05
 0.70419998E+02  0.95555E+05
 0.70470001E+02  0.69209E+05
 0.70519997E+02  0.49182E+05
 0.70570000E+02  0.62773E+05
 0.70619995E+02  0.10408E+06
 0.70669998E+02  0.19707E+06
 0.70720001E+02  0.27914E+06
 0.70769997E+02  0.25082E+06
 0.70820000E+02  0.17230E+06
 0.70869995E+02  0.15259E+06
 0.70919998E+02  0.16161E+06
 0.70970001E+02  0.20268E+06
 0.71019997E+02  0.27336E+06
 0.71070000E+02  0.34305E+06
 0.71119995E+02  0.40646E+06
 0.71169998E+02  0.45017E+06
 0.71220001E+02  0.52804E+06
 0.71269997E+02  0.56921E+06
 0.71320000E+02  0.49841E+06
 0.71369995E+02  0.43073E+06
 0.71419998E+02  0.37975E+06
 0.71470001E+02  0.33546E+06
 0.71519997E+02  0.31856E+06
 0.71570000E+02  0.26084E+06
 0.71619995E+02  0.17270E+06
 0.71669998E+02  0.61746E+05
 0.71720001E+02 -0.10788E+06
 0.71769997E+02 -0.27295E+06
 0.71820000E+02 -0.38183E+06
 0.71869995E+02 -0.45401E+06
 0.71919998E+02 -0.48769E+06
 0.71970001E+02 -0.46844E+06
 0.72019997E+02 -0.46026E+06
 0.72070000E+02 -0.50294E+06
 0.72119995E+02 -0.55051E+06
 0.72169998E+02 -0.60907E+06
 0.72220001E+02 -0.70850E+06
 0.72269997E+02 -0.80344E+06
 0.72320000E+02 -0.81414E+06
 0.72369995E+02 -0.74466E+06
 0.72419998E+02 -0.65954E+06
 0.72470001E+02 -0.59422E+06
 0.72519997E+02 -0.57141E+06
 0.72570000E+02 -0.58278E+06
 0.72619995E+02 -0.61286E+06
 0.72669998E+02 -0.65075E+06
 0.72720001E+02 -0.66806E+06
 0.72769997E+02 -0.63102E+06
 0.72820000E+02 -0.49194E+06
 0.72869995E+02 -0.29035E+06
 0.72919998E+02 -0.10079E+06
 0.72970001E+02  0.59506E+05
 0.73019997E+02  0.17696E+06
 0.73070000E+02  0.28068E+06
 0.73119995E+02  0.35062E+06
 0.73169998E+02  0.34678E+06
 0.73220001E+02  0.35548E+06
 0.73269997E+02  0.39533E+06
 0.73320000E+02  0.37934E+06
 0.73369995E+02  0.31372E+06
 0.73419998E+02  0.24210E+06
 0.73470001E+02  0.16585E+06
 0.73519997E+02  0.82960E+05
 0.73570000E+02  0.22150E+05
 0.73619995E+02  0.15883E+05
 0.73669998E+02  0.38799E+05
 0.73720001E+02  0.97117E+05
 0.73769997E+02  0.17602E+06
 0.73820000E+02  0.23015E+06
 0.73869995E+02  0.32279E+06
 0.73919998E+02  0.40551E+06
 0.73970001E+02  0.39388E+06
 0.74019997E+02  0.38258E+06
 0.74070000E+02  0.40553E+06
 0.74119995E+02  0.42822E+06
 0.74169998E+02  0.41924E+06
 0.74220001E+02  0.38656E+06
 0.74269997E+02  0.38234E+06
 0.74320000E+02  0.39230E+06
 0.74369995E+02  0.41634E+06
 0.74419998E+02  0.44681E+06
 0.74470001E+02  0.44493E+06
 0.74519997E+02  0.40121E+06
 0.74570000E+02  0.30089E+06
 0.74619995E+02  0.14052E+06
 0.74669998E+02 -0.16868E+05
 0.74720001E+02 -0.15372E+06
 0.74769997E+02 -0.29140E+06
 0.74820000E+02 -0.37322E+06
 0.74869995E+02 -0.39468E+06
 0.74919998E+02 -0.39751E+06
 0.74970001E+02 -0.39001E+06
 0.75019997E+02 -0.37317E+06
 0.75070000E+02 -0.34846E+06
 0.75119995E+02 -0.33034E+06
 0.75169998E+02 -0.29205E+06
 0.75220001E+02 -0.21123E+06
 0.75269997E+02 -0.11828E+06
 0.75320000E+02 -0.97500E+04
 0.75369995E+02  0.12197E+06
 0.75419998E+02  0.28715E+06
 0.75470001E+02  0.47646E+06
 0.75519997E+02  0.63531E+06
 0.75570000E+02  0.75278E+06
 0.75619995E+02  0.85293E+06
 0.75669998E+02  0.91522E+06
 0.75720001E+02  0.92165E+06
 0.75769997E+02  0.92152E+06
 0.75820000E+02  0.90167E+06
 0.75869995E+02  0.83826E+06
 0.75919998E+02  0.77488E+06
 0.75970001E+02  0.71251E+06
 0.76019997E+02  0.60558E+06
 0.76070000E+02  0.45222E+06
 0.76119995E+02  0.29027E+06
 0.76169998E+02  0.14466E+06
 0.76220001E+02  0.25502E+05
 0.76269997E+02 -0.98637E+05
 0.76320000E+02 -0.23329E+06
 0.76369995E+02 -0.35945E+06
 0.76419998E+02 -0.49608E+06
 0.76470001E+02 -0.62435E+06
 0.76519997E+02 -0.71271E+06
 0.76570000E+02 -0.82985E+06
 0.76619995E+02 -0.98727E+06
 0.76669998E+02 -0.10815E+07
 0.76720001E+02 -0.11074E+07
 0.76769997E+02 -0.11435E+07
 0.76820000E+02 -0.12076E+07
 0.76869995E+02 -0.12308E+07
 0.76919998E+02 -0.11837E+07
 0.76970001E+02 -0.10815E+07
 0.77019997E+02 -0.94185E+06
 0.77070000E+02 -0.82832E+06
 0.77119995E+02 -0.74411E+06
 0.77169998E+02 -0.66161E+06
 0.77220001E+02 -0.60000E+06
 0.77269997E+02 -0.55624E+06
 0.77320000E+02 -0.51306E+06
 0.77369995E+02 -0.44710E+06
 0.77419998E+02 -0.35208E+06
 0.77470001E+02 -0.26954E+06
 0.77519997E+02 -0.22555E+06
 0.77570000E+02 -0.20282E+06
 0.77619995E+02 -0.16076E+06
 0.77669998E+02 -0.71789E+05
 0.77720001E+02  0.26180E+05
 0.77769997E+02  0.10314E+06
 0.77820000E+02  0.17669E+06
 0.77869995E+02  0.27508E+06
 0.77919998E+02  0.39878E+06
 0.77970001E+02  0.51857E+06
 0.78019997E+02  0.62197E+06
 0.78070000E+02  0.65957E+06
 0.78119995E+02  0.66642E+06
 0.78169998E+02  0.68805E+06
 0.78220001E+02  0.68486E+06
 0.78269997E+02  0.69799E+06
 0.78320000E+02  0.70655E+06
 0.78369995E+02  0.66384E+06
 0.78419998E+02  0.60241E+06
 0.78470001E+02  0.52945E+06
 0.78519997E+02  0.44355E+06
 0.78570000E+02  0.37237E+06
 0.78619995E+02  0.34698E+06
 0.78669998E+02  0.36005E+06
 0.78720001E+02  0.40124E+06
 0.78769997E+02  0.45512E+06
 0.78820000E+02  0.50083E+06
 0.78869995E+02  0.53056E+06
 0.78919998E+02  0.52020E+06
 0.78970001E+02  0.46332E+06
 0.79019997E+02  0.37040E+06
 0.79070000E+02  0.26133E+06
 0.79119995E+02  0.16250E+06
 0.79169998E+02  0.87315E+05
 0.79220001E+02  0.28984E+05
 0.79269997E+02 -0.47888E+05
 0.79320000E+02 -0.12490E+06
 0.79369995E+02 -0.18322E+06
 0.79419998E+02 -0.24292E+06
 0.79470001E+02 -0.28304E+06
 0.79519997E+02 -0.30104E+06
 0.79570000E+02 -0.30989E+06
 0.79619995E+02 -0.32484E+06
 0.79669998E+02 -0.35153E+06
 0.79720001E+02 -0.38038E+06
 0.79769997E+02 -0.41156E+06
 0.79820000E+02 -0.41269E+06
 0.79869995E+02 -0.39171E+06
 0.79919998E+02 -0.36932E+06
 0.79970001E+02 -0.31120E+06
 0.80019997E+02 -0.24288E+06
 0.80070000E+02 -0.20568E+06
 0.80119995E+02 -0.19651E+06
 0.80169998E+02 -0.24334E+06
 0.80220001E+02 -0.33515E+06
 0.80269997E+02 -0.42598E+06
 0.80320000E+02 -0.52752E+06
 0.80369995E+02 -0.62888E+06
 0.80419998E+02 -0.70815E+06
 0.80470001E+02 -0.75848E+06
 0.80519997E+02 -0.75403E+06
 0.80570000E+02 -0.69776E+06
 0.80619995E+02 -0.61442E+06
 0.80669998E+02 -0.51944E+06
 0.80720001E+02 -0.41251E+06
 0.80769997E+02 -0.31149E+06
 0.80820000E+02 -0.22182E+06
 0.80869995E+02 -0.15526E+06
 0.80919998E+02 -0.14286E+06
 0.80970001E+02 -0.15257E+06
 0.81019997E+02 -0.16642E+06
 0.81070000E+02 -0.16918E+06
 0.81119995E+02 -0.15488E+06
 0.81169998E+02 -0.14329E+06
 0.81220001E+02 -0.12919E+06
 0.81269997E+02 -0.10219E+06
 0.81320000E+02 -0.53270E+05
 0.81369995E+02 -0.20028E+05
 0.81419998E+02  0.30307E+05
 0.81470001E+02  0.14412E+06
 0.81519997E+02  0.28165E+06
 0.81570000E+02  0.42178E+06
 0.81619995E+02  0.53087E+06
 0.81669998E+02  0.59447E+06
 0.81720001E+02  0.63867E+06
 0.81769997E+02  0.68612E+06
 0.81820000E+02  0.71141E+06
 0.81869995E+02  0.70283E+06
 0.81919998E+02  0.69795E+06
 0.81970001E+02  0.67084E+06
 0.82019997E+02  0.62622E+06
 0.82070000E+02  0.60399E+06
 0.82119995E+02  0.56513E+06
 0.82169998E+02  0.50363E+06
 0.82220001E+02  0.44801E+06
 0.82269997E+02  0.37857E+06
 0.82320000E+02  0.28531E+06
 0.82369995E+02  0.16010E+06
 0.82419998E+02 -0.20950E+04
 0.82470001E+02 -0.16576E+06
 0.82519997E+02 -0.31899E+06
 0.82570000E+02 -0.47253E+06
 0.82619995E+02 -0.60739E+06
 0.82669998E+02 -0.71260E+06
 0.82720001E+02 -0.80109E+06
 0.82769997E+02 -0.86680E+06
 0.82820000E+02 -0.89616E+06
 0.82869995E+02 -0.89281E+06
 0.82919998E+02 -0.85721E+06
 0.82970001E+02 -0.77753E+06
 0.83019997E+02 -0.64240E+06
 0.83070000E+02 -0.49531E+06
 0.83119995E+02 -0.37326E+06
 0.83169998E+02 -0.26874E+06
 0.83220001E+02 -0.18614E+06
 0.83269997E+02 -0.84821E+05
 0.83320000E+02  0.38778E+05
 0.83369995E+02  0.15695E+06
 0.83419998E+02  0.28345E+06
 0.83470001E+02  0.42375E+06
 0.83519997E+02  0.57224E+06
 0.83570000E+02  0.69990E+06
 0.83619995E+02  0.81367E+06
 0.83669998E+02  0.93949E+06
 0.83720001E+02  0.10439E+07
 0.83769997E+02  0.10645E+07
 0.83820000E+02  0.10049E+07
 0.83869995E+02  0.89878E+06
 0.83919998E+02  0.74006E+06
 0.83970001E+02  0.56836E+06
 0.84019997E+02  0.43050E+06
 0.84070000E+02  0.32947E+06
 0.84119995E+02  0.25341E+06
 0.84169998E+02  0.17062E+06
 0.84220001E+02  0.65838E+05
 0.84269997E+02 -0.47130E+05
 0.84320000E+02 -0.14317E+06
 0.84369995E+02 -0.24107E+06
 0.84419998E+02 -0.35397E+06
 0.84470001E+02 -0.43625E+06
 0.84519997E+02 -0.47229E+06
 0.84570000E+02 -0.47763E+06
 0.84619995E+02 -0.46880E+06
 0.84669998E+02 -0.46027E+06
 0.84720001E+02 -0.40873E+06
 0.84769997E+02 -0.29090E+06
 0.84820000E+02 -0.18386E+06
 0.84869995E+02 -0.11047E+06
 0.84919998E+02 -0.64902E+05
 0.84970001E+02 -0.58920E+05
 0.85019997E+02 -0.68718E+05
 0.85070000E+02 -0.66832E+05
 0.85119995E+02 -0.37568E+05
 0.85169998E+02  0.53700E+04
 0.85220001E+02  0.53798E+05
 0.85269997E+02  0.87799E+05
 0.85320000E+02  0.11453E+06
 0.85369995E+02  0.12945E+06
 0.85419998E+02  0.11698E+06
 0.85470001E+02  0.10928E+06
 0.85519997E+02  0.11649E+06
 0.85570000E+02  0.17197E+06
 0.85619995E+02  0.25560E+06
 0.85669998E+02  0.31393E+06
 0.85720001E+02  0.33834E+06
 0.85769997E+02  0.33151E+06
 0.85820000E+02  0.35291E+06
 0.85869995E+02  0.38705E+06
 0.85919998E+02  0.37766E+06
 0.85970001E+02  0.36012E+06
 0.86019997E+02  0.35218E+06
 0.86070000E+02  0.35199E+06
 0.86119995E+02  0.35650E+06
 0.86169998E+02  0.34854E+06
 0.86220001E+02  0.31330E+06
 0.86269997E+02  0.24810E+06
 0.86320000E+02  0.18632E+06
 0.86369995E+02  0.14549E+06
 0.86419998E+02  0.11216E+06
 0.86470001E+02  0.84049E+05
 0.86519997E+02  0.69951E+05
 0.86570000E+02  0.82838E+05
 0.86619995E+02  0.13676E+06
 0.86669998E+02  0.21538E+06
 0.86720001E+02  0.29358E+06
 0.86769997E+02  0.35177E+06
 0.86820000E+02  0.36700E+06
 0.86869995E+02  0.34848E+06
 0.86919998E+02  0.30056E+06
 0.86970001E+02  0.23241E+06
 0.87019997E+02  0.17578E+06
 0.87070000E+02  0.13002E+06
 0.87119995E+02  0.83821E+05
 0.87169998E+02  0.58999E+05
 0.87220001E+02  0.46327E+05
 0.87269997E+02  0.12494E+05
 0.87320000E+02 -0.27474E+05
 0.87369995E+02 -0.98434E+05
 0.87419998E+02 -0.21691E+06
 0.87470001E+02 -0.34685E+06
 0.87519997E+02 -0.47866E+06
 0.87570000E+02 -0.58173E+06
 0.87619995E+02 -0.63373E+06
 0.87669998E+02 -0.64588E+06
 0.87720001E+02 -0.64033E+06
 0.87769997E+02 -0.63356E+06
 0.87820000E+02 -0.61867E+06
 0.87869995E+02 -0.61200E+06
 0.87919998E+02 -0.61116E+06
 0.87970001E+02 -0.58380E+06
 0.88019997E+02 -0.52562E+06
 0.88070000E+02 -0.44441E+06
 0.88119995E+02 -0.36193E+06
 0.88169998E+02 -0.28648E+06
 0.88220001E+02 -0.20984E+06
 0.88269997E+02 -0.14094E+06
 0.88320000E+02 -0.67617E+05
 0.88369995E+02  0.84860E+04
 0.88419998E+02  0.77369E+05
 0.88470001E+02  0.15463E+06
 0.88519997E+02  0.22798E+06
 0.88570000E+02  0.28469E+06
 0.88619995E+02  0.32136E+06
 0.88669998E+02  0.34169E+06
 0.88720001E+02  0.34955E+06
 0.88769997E+02  0.34147E+06
 0.88820000E+02  0.33354E+06
 0.88869995E+02  0.31238E+06
 0.88919998E+02  0.26289E+06
 0.88970001E+02  0.19653E+06
 0.89019997E+02  0.12207E+06
 0.89070000E+02  0.59142E+05
 0.89119995E+02 -0.36980E+04
 0.89169998E+02 -0.68400E+05
 0.89220001E+02 -0.10438E+06
 0.89269997E+02 -0.12638E+06
 0.89320000E+02 -0.13724E+06
 0.89369995E+02 -0.12815E+06
 0.89419998E+02 -0.12282E+06
 0.89470001E+02 -0.12645E+06
 0.89519997E+02 -0.13630E+06
 0.89570000E+02 -0.16586E+06
 0.89619995E+02 -0.23161E+06
 0.89669998E+02 -0.31236E+06
 0.89720001E+02 -0.38342E+06
 0.89769997E+02 -0.46054E+06
 0.89820000E+02 -0.53065E+06
 0.89869995E+02 -0.57299E+06
 0.89919998E+02 -0.60227E+06
 0.89970001E+02 -0.62428E+06
 0.90019997E+02 -0.62294E+06
 0.90070000E+02 -0.58703E+06
 0.90119995E+02 -0.52491E+06
 0.90169998E+02 -0.43801E+06
 0.90220001E+02 -0.32912E+06
 0.90269997E+02 -0.23361E+06
 0.90320000E+02 -0.17160E+06
 0.90369995E+02 -0.12021E+06
 0.90419998E+02 -0.75807E+05
 0.90470001E+02 -0.37870E+05
 0.90519997E+02  0.18938E+05
 0.90570000E+02  0.10109E+06
 0.90619995E+02  0.19839E+06
 0.90669998E+02  0.27907E+06
 0.90720001E+02  0.32905E+06
 0.90769997E+02  0.35486E+06
 0.90820000E+02  0.33699E+06
 0.90869995E+02  0.29014E+06
 0.90919998E+02  0.24266E+06
 0.90970001E+02  0.19432E+06
 0.91019997E+02  0.16482E+06
 0.91070000E+02  0.16245E+06
 0.91119995E+02  0.16521E+06
 0.91169998E+02  0.15750E+06
 0.91220001E+02  0.14218E+06
 0.91269997E+02  0.12981E+06
 0.91320000E+02  0.10794E+06
 0.91369995E+02  0.80802E+05
 0.91419998E+02  0.78091E+05
 0.91470001E+02  0.88854E+05
 0.91519997E+02  0.95031E+05
 0.91570000E+02  0.11518E+06
 0.91619995E+02  0.15835E+06
 0.91669998E+02  0.20193E+06
 0.91720001E+02  0.23198E+06
 0.91769997E+02  0.26488E+06
 0.91820000E+02  0.31160E+06
 0.91869995E+02  0.35301E+06
 0.91919998E+02  0.36763E+06
 0.91970001E+02  0.36495E+06
 0.92019997E+02  0.35608E+06
 0.92070000E+02  0.34649E+06
 0.92119995E+02  0.34749E+06
 0.92169998E+02  0.34538E+06
 0.92220001E+02  0.32977E+06
 0.92269997E+02  0.29853E+06
 0.92320000E+02  0.25512E+06
 0.92369995E+02  0.22351E+06
 0.92419998E+02  0.19081E+06
 0.92470001E+02  0.12392E+06
 0.92519997E+02  0.31875E+05
 0.92570000E+02 -0.57352E+05
 0.92619995E+02 -0.13114E+06
 0.92669998E+02 -0.18271E+06
 0.92720001E+02 -0.20564E+06
 0.92769997E+02 -0.21194E+06
 0.92820000E+02 -0.22122E+06
 0.92869995E+02 -0.22858E+06
 0.92919998E+02 -0.22424E+06
 0.92970001E+02 -0.21834E+06
 0.93019997E+02 -0.21316E+06
 0.93070000E+02 -0.21443E+06
 0.93119995E+02 -0.21860E+06
 0.93169998E+02 -0.20684E+06
 0.93220001E+02 -0.20275E+06
 0.93269997E+02 -0.20871E+06
 0.93320000E+02 -0.20142E+06
 0.93369995E+02 -0.21115E+06
 0.93419998E+02 -0.25928E+06
 0.93470001E+02 -0.33485E+06
 0.93519997E+02 -0.41193E+06
 0.93570000E+02 -0.47101E+06
 0.93619995E+02 -0.52450E+06
 0.93669998E+02 -0.56521E+06
 0.93720001E+02 -0.58641E+06
 0.93769997E+02 -0.59925E+06
 0.93820000E+02 -0.59868E+06
 0.93869995E+02 -0.56451E+06
 0.93919998E+02 -0.48893E+06
 0.93970001E+02 -0.41609E+06
 0.94019997E+02 -0.36087E+06
 0.94070000E+02 -0.29534E+06
 0.94119995E+02 -0.23355E+06
 0.94169998E+02 -0.18159E+06
 0.94220001E+02 -0.14968E+06
 0.94269997E+02 -0.14858E+06
 0.94320000E+02 -0.15964E+06
 0.94369995E+02 -0.17568E+06
 0.94419998E+02 -0.16516E+06
 0.94470001E+02 -0.12313E+06
 0.94519997E+02 -0.86734E+05
 0.94570000E+02 -0.72646E+05
 0.94619995E+02 -0.82503E+05
 0.94669998E+02 -0.10873E+06
 0.94720001E+02 -0.15550E+06
 0.94769997E+02 -0.19883E+06
 0.94820000E+02 -0.20543E+06
 0.94869995E+02 -0.18469E+06
 0.94919998E+02 -0.14304E+06
 0.94970001E+02 -0.89686E+05
 0.95019997E+02 -0.38336E+05
 0.95070000E+02  0.17385E+05
 0.95119995E+02  0.82503E+05
 0.95169998E+02  0.14410E+06
 0.95220001E+02  0.19332E+06
 0.95269997E+02  0.23035E+06
 0.95320000E+02  0.25512E+06
 0.95369995E+02  0.27950E+06
 0.95419998E+02  0.30332E+06
 0.95470001E+02  0.31584E+06
 0.95519997E+02  0.32286E+06
 0.95570000E+02  0.32940E+06
 0.95619995E+02  0.33208E+06
 0.95669998E+02  0.33727E+06
 0.95720001E+02  0.34612E+06
 0.95769997E+02  0.34631E+06
 0.95820000E+02  0.34238E+06
 0.95869995E+02  0.34221E+06
 0.95919998E+02  0.33185E+06
 0.95970001E+02  0.30405E+06
 0.96019997E+02  0.27306E+06
 0.96070000E+02  0.24532E+06
 0.96119995E+02  0.22899E+06
 0.96169998E+02  0.23190E+06
 0.96220001E+02  0.24000E+06
 0.96269997E+02  0.24627E+06
 0.96320000E+02  0.26519E+06
 0.96369995E+02  0.29387E+06
 0.96419998E+02  0.31458E+06
 0.96470001E+02  0.33573E+06
 0.96519997E+02  0.35100E+06
 0.96570000E+02  0.35953E+06
 0.96619995E+02  0.38072E+06
 0.96669998E+02  0.40541E+06
 0.96720001E+02  0.41855E+06
 0.96769997E+02  0.40255E+06
 0.96820000E+02  0.37036E+06
 0.96869995E+02  0.35318E+06
 0.96919998E+02  0.34593E+06
 0.96970001E+02  0.33372E+06
 0.97019997E+02  0.31157E+06
 0.97070000E+02  0.29141E+06
 0.97119995E+02  0.27924E+06
 0.97169998E+02  0.25896E+06
 0.97220001E+02  0.22577E+06
 0.97269997E+02  0.18601E+06
 0.97320000E+02  0.14218E+06
 0.97369995E+02  0.95636E+05
 0.97419998E+02  0.42756E+05
 0.97470001E+02 -0.21172E+05
 0.97519997E+02 -0.89486E+05
 0.97570000E+02 -0.13894E+06
 0.97619995E+02 -0.16567E+06
 0.97669998E+02 -0.18106E+06
 0.97720001E+02 -0.17777E+06
 0.97769997E+02 -0.15282E+06
 0.97820000E+02 -0.11715E+06
 0.97869995E+02 -0.97058E+05
 0.97919998E+02 -0.10873E+06
 0.97970001E+02 -0.14212E+06
 0.98019997E+02 -0.19358E+06
 0.98070000E+02 -0.25541E+06
 0.98119995E+02 -0.31560E+06
 0.98169998E+02 -0.38047E+06
 0.98220001E+02 -0.45783E+06
 0.98269997E+02 -0.53723E+06
 0.98320000E+02 -0.60595E+06
 0.98369995E+02 -0.65791E+06
 0.98419998E+02 -0.68306E+06
 0.98470001E+02 -0.67833E+06
 0.98519997E+02 -0.64990E+06
 0.98570000E+02 -0.61636E+06
 0.98619995E+02 -0.60188E+06
 0.98669998E+02 -0.60114E+06
 0.98720001E+02 -0.58919E+06
 0.98769997E+02 -0.55096E+06
 0.98820000E+02 -0.48778E+06
 0.98869995E+02 -0.41504E+06
 0.98919998E+02 -0.34361E+06
 0.98970001E+02 -0.27690E+06
 0.99019997E+02 -0.21632E+06
 0.99070000E+02 -0.16011E+06
 0.99119995E+02 -0.11158E+06
 0.99169998E+02 -0.67260E+05
 0.99220001E+02 -0.10941E+05
 0.99269997E+02  0.67011E+05
 0.99320000E+02  0.16456E+06
 0.99369995E+02  0.27310E+06
 0.99419998E+02  0.37081E+06
 0.99470001E+02  0.43958E+06
 0.99519997E+02  0.48316E+06
 0.99570000E+02  0.51861E+06
 0.99619995E+02  0.56315E+06
 0.99669998E+02  0.60119E+06
 0.99720001E+02  0.61876E+06
 0.99769997E+02  0.62509E+06
 0.99820000E+02  0.61065E+06
 0.99869995E+02  0.57084E+06
 0.99919998E+02  0.50924E+06
 0.99970001E+02  0.43678E+06
 0.10002000E+03  0.37126E+06
 0.10007000E+03  0.30865E+06
 0.10012000E+03  0.24948E+06
 0.10017000E+03  0.19438E+06
 0.10022000E+03  0.12900E+06
 0.10027000E+03  0.58105E+05
 0.10032000E+03 -0.97410E+04
 0.10037000E+03 -0.72341E+05
 0.10042000E+03 -0.11448E+06
 0.10047000E+03 -0.13747E+06
 0.10052000E+03 -0.15377E+06
 0.10057000E+03 -0.15327E+06
 0.10062000E+03 -0.13589E+06
 0.10067000E+03 -0.11772E+06
 0.10072000E+03 -0.93584E+05
 0.10077000E+03 -0.62453E+05
 0.10082000E+03 -0.37364E+05
 0.10087000E+03 -0.15130E+05
 0.10092000E+03  0.10091E+05
 0.10097000E+03  0.34038E+05
 0.10102000E+03  0.64336E+05
 0.10107000E+03  0.11930E+06
 0.10112000E+03  0.18727E+06
 0.10117000E+03  0.23878E+06
 0.10122000E+03  0.26241E+06
 0.10127000E+03  0.25972E+06
 0.10132000E+03  0.24083E+06
 0.10137000E+03  0.22056E+06
 0.10142000E+03  0.20120E+06
 0.10147000E+03  0.17830E+06
 0.10152000E+03  0.15369E+06
 0.10157000E+03  0.12805E+06
 0.10162000E+03  0.11547E+06
 0.10167000E+03  0.11583E+06
 0.10172000E+03  0.11060E+06
 0.10177000E+03  0.96259E+05
 0.10182000E+03  0.67247E+05
 0.10187000E+03  0.35284E+05
 0.10192000E+03  0.15622E+05
 0.10197000E+03  0.99600E+03
 0.10202000E+03 -0.95880E+04
 0.10207000E+03 -0.68180E+04
 0.10212000E+03  0.70480E+04
 0.10217000E+03  0.23157E+05
 0.10222000E+03  0.38649E+05
 0.10227000E+03  0.41524E+05
 0.10232000E+03  0.29071E+05
 0.10237000E+03  0.61460E+04
 0.10242000E+03 -0.28401E+05
 0.10247000E+03 -0.56481E+05
 0.10252000E+03 -0.61907E+05
 0.10257000E+03 -0.42473E+05
 0.10262000E+03 -0.88000E+03
 0.10267000E+03  0.40030E+05
 0.10272000E+03  0.58358E+05
 0.10277000E+03  0.51809E+05
 0.10282000E+03  0.31922E+05
 0.10287000E+03  0.73600E+04
 0.10292000E+03 -0.31483E+05
 0.10297000E+03 -0.82161E+05
 0.10302000E+03 -0.13168E+06
 0.10307000E+03 -0.18042E+06
 0.10312000E+03 -0.23321E+06
 0.10317000E+03 -0.29133E+06
 0.10322000E+03 -0.34852E+06
 0.10327000E+03 -0.38682E+06
 0.10332000E+03 -0.39284E+06
 0.10337000E+03 -0.38110E+06
 0.10342000E+03 -0.36852E+06
 0.10347000E+03 -0.36008E+06
 0.10352000E+03 -0.34448E+06
 0.10357000E+03 -0.30616E+06
 0.10362000E+03 -0.25934E+06
 0.10367000E+03 -0.21353E+06
 0.10372000E+03 -0.16932E+06
 0.10377000E+03 -0.12778E+06
 0.10382000E+03 -0.78010E+05
 0.10387000E+03 -0.20116E+05
 0.10392000E+03  0.42071E+05
 0.10397000E+03  0.98709E+05
 0.10402000E+03  0.14675E+06
 0.10407000E+03  0.19217E+06
 0.10412000E+03  0.22641E+06
 0.10417000E+03  0.24504E+06
 0.10422000E+03  0.24296E+06
 0.10427000E+03  0.22417E+06
 0.10432000E+03  0.19344E+06
 0.10437000E+03  0.14592E+06
 0.10442000E+03  0.79598E+05
 0.10447000E+03  0.41350E+04
 0.10452000E+03 -0.59667E+05
 0.10457000E+03 -0.11034E+06
 0.10462000E+03 -0.15633E+06
 0.10467000E+03 -0.20032E+06
 0.10472000E+03 -0.23757E+06
 0.10477000E+03 -0.26535E+06
 0.10482000E+03 -0.28248E+06
 0.10487000E+03 -0.29418E+06
 0.10492000E+03 -0.30443E+06
 0.10497000E+03 -0.30702E+06
 0.10502000E+03 -0.30371E+06
 0.10507000E+03 -0.28789E+06
 0.10512000E+03 -0.26237E+06
 0.10517000E+03 -0.24026E+06
 0.10522000E+03 -0.21831E+06
 0.10527000E+03 -0.18681E+06
 0.10532000E+03 -0.15377E+06
 0.10537000E+03 -0.13123E+06
 0.10542000E+03 -0.98908E+05
 0.10547000E+03 -0.49407E+05
 0.10552000E+03  0.24760E+04
 0.10557000E+03  0.49153E+05
 0.10562000E+03  0.83401E+05
 0.10567000E+03  0.10948E+06
 0.10572000E+03  0.13286E+06
 0.10577000E+03  0.15987E+06
 0.10582000E+03  0.19835E+06
 0.10587000E+03  0.24337E+06
 0.10592000E+03  0.28686E+06
 0.10597000E+03  0.31839E+06
 0.10602000E+03  0.33180E+06
 0.10607000E+03  0.33029E+06
 0.10612000E+03  0.31038E+06
 0.10617000E+03  0.27292E+06
 0.10622000E+03  0.22551E+06
 0.10627000E+03  0.16384E+06
 0.10632000E+03  0.10103E+06
 0.10637000E+03  0.53482E+05
 0.10642000E+03  0.64830E+04
 0.10647000E+03 -0.43565E+05
 0.10652000E+03 -0.90816E+05
 0.10657000E+03 -0.14169E+06
 0.10662000E+03 -0.19683E+06
 0.10667000E+03 -0.25796E+06
 0.10672000E+03 -0.32136E+06
 0.10677000E+03 -0.37303E+06
 0.10682000E+03 -0.40284E+06
 0.10687000E+03 -0.40098E+06
 0.10692000E+03 -0.37259E+06
 0.10697000E+03 -0.33652E+06
 0.10702000E+03 -0.30293E+06
 0.10707000E+03 -0.27477E+06
 0.10712000E+03 -0.25474E+06
 0.10717000E+03 -0.23977E+06
 0.10722000E+03 -0.22873E+06
 0.10727000E+03 -0.22501E+06
 0.10732000E+03 -0.21513E+06
 0.10737000E+03 -0.19053E+06
 0.10742000E+03 -0.15724E+06
 0.10747000E+03 -0.12594E+06
 0.10752000E+03 -0.98723E+05
 0.10757000E+03 -0.67346E+05
 0.10762000E+03 -0.35541E+05
 0.10767000E+03 -0.30900E+04
 0.10772000E+03  0.41290E+05
 0.10777000E+03  0.10484E+06
 0.10782000E+03  0.17229E+06
 0.10787000E+03  0.23228E+06
 0.10792000E+03  0.28653E+06
 0.10797000E+03  0.32894E+06
 0.10802000E+03  0.35789E+06
 0.10807000E+03  0.37404E+06
 0.10812000E+03  0.37850E+06
 0.10817000E+03  0.37276E+06
 0.10822000E+03  0.36775E+06
 0.10827000E+03  0.36798E+06
 0.10832000E+03  0.36445E+06
 0.10837000E+03  0.36423E+06
 0.10842000E+03  0.36934E+06
 0.10847000E+03  0.36905E+06
 0.10852000E+03  0.35888E+06
 0.10857000E+03  0.33764E+06
 0.10862000E+03  0.31024E+06
 0.10867000E+03  0.28516E+06
 0.10872000E+03  0.26898E+06
 0.10877000E+03  0.25405E+06
 0.10882000E+03  0.22585E+06
 0.10887000E+03  0.17640E+06
 0.10892000E+03  0.10763E+06
 0.10897000E+03  0.38802E+05
 0.10902000E+03 -0.20881E+05
 0.10907000E+03 -0.65899E+05
 0.10912000E+03 -0.80659E+05
 0.10917000E+03 -0.71645E+05
 0.10922000E+03 -0.55527E+05
 0.10927000E+03 -0.37117E+05
 0.10932000E+03 -0.21371E+05
 0.10937000E+03 -0.13972E+05
 0.10942000E+03 -0.20904E+05
 0.10947000E+03 -0.40852E+05
 0.10952000E+03 -0.61450E+05
 0.10957000E+03 -0.74607E+05
 0.10962000E+03 -0.80216E+05
 0.10967000E+03 -0.81578E+05
 0.10972000E+03 -0.76643E+05
 0.10977000E+03 -0.65106E+05
 0.10982000E+03 -0.54327E+05
 0.10987000E+03 -0.54157E+05
 0.10992000E+03 -0.58564E+05
 0.10997000E+03 -0.53228E+05
 0.11002000E+03 -0.52547E+05
 0.11007000E+03 -0.61451E+05
 0.11012000E+03 -0.66573E+05
 0.11017000E+03 -0.71115E+05
 0.11022000E+03 -0.68954E+05
 0.11027000E+03 -0.60083E+05
 0.11032000E+03 -0.56782E+05
 0.11037000E+03 -0.56589E+05
 0.11042000E+03 -0.61352E+05
 0.11047000E+03 -0.68027E+05
 0.11052000E+03 -0.69208E+05
 0.11057000E+03 -0.65159E+05
 0.11062000E+03 -0.62709E+05
 0.11067000E+03 -0.65361E+05
 0.11072000E+03 -0.55232E+05
 0.11077000E+03 -0.29930E+05
 0.11082000E+03 -0.45900E+03
 0.11087000E+03  0.30749E+05
 0.11092000E+03  0.58340E+05
 0.11097000E+03  0.77162E+05
 0.11102000E+03  0.84983E+05
 0.11107000E+03  0.81626E+05
 0.11112000E+03  0.63751E+05
 0.11117000E+03  0.31294E+05
 0.11122000E+03 -0.14292E+05
 0.11127000E+03 -0.61095E+05
 0.11132000E+03 -0.95732E+05
 0.11137000E+03 -0.12692E+06
 0.11142000E+03 -0.14870E+06
 0.11147000E+03 -0.15827E+06
 0.11152000E+03 -0.16331E+06
 0.11157000E+03 -0.15984E+06
 0.11162000E+03 -0.15912E+06
 0.11167000E+03 -0.16312E+06
 0.11172000E+03 -0.17069E+06
 0.11177000E+03 -0.18289E+06
 0.11182000E+03 -0.19550E+06
 0.11187000E+03 -0.20632E+06
 0.11192000E+03 -0.20754E+06
 0.11197000E+03 -0.19816E+06
 0.11202000E+03 -0.18449E+06
 0.11207000E+03 -0.17316E+06
 0.11212000E+03 -0.15870E+06
 0.11217000E+03 -0.14371E+06
 0.11222000E+03 -0.13441E+06
 0.11227000E+03 -0.12364E+06
 0.11232000E+03 -0.11253E+06
 0.11237000E+03 -0.10345E+06
 0.11242000E+03 -0.94798E+05
 0.11247000E+03 -0.90836E+05
 0.11252000E+03 -0.95692E+05
 0.11257000E+03 -0.10254E+06
 0.11262000E+03 -0.10676E+06
 0.11267000E+03 -0.10770E+06
 0.11272000E+03 -0.91307E+05
 0.11277000E+03 -0.58969E+05
 0.11282000E+03 -0.20853E+05
 0.11287000E+03  0.24287E+05
 0.11292000E+03  0.62310E+05
 0.11297000E+03  0.90752E+05
 0.11302000E+03  0.11413E+06
 0.11307000E+03  0.12908E+06
 0.11312000E+03  0.13520E+06
 0.11317000E+03  0.12456E+06
 0.11322000E+03  0.99079E+05
 0.11327000E+03  0.65611E+05
 0.11332000E+03  0.37172E+05
 0.11337000E+03  0.23191E+05
 0.11342000E+03  0.17524E+05
 0.11347000E+03  0.14385E+05
 0.11352000E+03  0.17104E+05
 0.11357000E+03  0.33604E+05
 0.11362000E+03  0.46976E+05
 0.11367000E+03  0.45546E+05
 0.11372000E+03  0.41927E+05
 0.11377000E+03  0.38678E+05
 0.11382000E+03  0.31026E+05
 0.11387000E+03  0.19262E+05
 0.11392000E+03  0.45100E+03
 0.11397000E+03 -0.28604E+05
 0.11402000E+03 -0.52301E+05
 0.11407000E+03 -0.56588E+05
 0.11412000E+03 -0.36384E+05
 0.11417000E+03  0.10101E+05
 0.11422000E+03  0.70542E+05
 0.11427000E+03  0.13796E+06
 0.11432000E+03  0.20444E+06
 0.11437000E+03  0.25279E+06
 0.11442000E+03  0.28028E+06
 0.11447000E+03  0.28420E+06
 0.11452000E+03  0.26075E+06
 0.11457000E+03  0.21966E+06
 0.11462000E+03  0.16722E+06
 0.11467000E+03  0.11748E+06
 0.11472000E+03  0.83448E+05
 0.11477000E+03  0.60463E+05
 0.11482000E+03  0.47942E+05
 0.11487000E+03  0.40750E+05
 0.11492000E+03  0.28080E+05
 0.11497000E+03  0.12031E+05
 0.11502000E+03 -0.33650E+04
 0.11507000E+03 -0.13177E+05
 0.11512000E+03 -0.15533E+05
 0.11517000E+03 -0.15293E+05
 0.11522000E+03 -0.32430E+04
 0.11527000E+03  0.25854E+05
 0.11532000E+03  0.64184E+05
 0.11537000E+03  0.99537E+05
 0.11542000E+03  0.12181E+06
 0.11547000E+03  0.13714E+06
 0.11552000E+03  0.14411E+06
 0.11557000E+03  0.13907E+06
 0.11562000E+03  0.12666E+06
 0.11567000E+03  0.10755E+06
 0.11572000E+03  0.83128E+05
 0.11577000E+03  0.52589E+05
 0.11582000E+03  0.16230E+05
 0.11587000E+03 -0.30927E+05
 0.11592000E+03 -0.87505E+05
 0.11597000E+03 -0.13830E+06
 0.11602000E+03 -0.17832E+06
 0.11607000E+03 -0.20420E+06
 0.11612000E+03 -0.21046E+06
 0.11617000E+03 -0.19390E+06
 0.11622000E+03 -0.15998E+06
 0.11627000E+03 -0.13075E+06
 0.11632000E+03 -0.11633E+06
 0.11637000E+03 -0.11022E+06
 0.11642000E+03 -0.10613E+06
 0.11647000E+03 -0.94376E+05
 0.11652000E+03 -0.70889E+05
 0.11657000E+03 -0.42479E+05
 0.11662000E+03 -0.13554E+05
 0.11667000E+03  0.14644E+05
 0.11672000E+03  0.43609E+05
 0.11677000E+03  0.69450E+05
 0.11682000E+03  0.83449E+05
 0.11687000E+03  0.90346E+05
 0.11692000E+03  0.93621E+05
 0.11697000E+03  0.94717E+05
 0.11702000E+03  0.99267E+05
 0.11707000E+03  0.10659E+06
 0.11712000E+03  0.11074E+06
 0.11717000E+03  0.10637E+06
 0.11722000E+03  0.99647E+05
 0.11727000E+03  0.89978E+05
 0.11732000E+03  0.71765E+05
 0.11737000E+03  0.46133E+05
 0.11742000E+03  0.14129E+05
 0.11747000E+03 -0.11724E+05
 0.11752000E+03 -0.30243E+05
 0.11757000E+03 -0.49484E+05
 0.11762000E+03 -0.75025E+05
 0.11767000E+03 -0.11018E+06
 0.11772000E+03 -0.14027E+06
 0.11777000E+03 -0.15731E+06
 0.11782000E+03 -0.16218E+06
 0.11787000E+03 -0.15856E+06
 0.11792000E+03 -0.15252E+06
 0.11797000E+03 -0.14162E+06
 0.11802000E+03 -0.12277E+06
 0.11807000E+03 -0.10131E+06
 0.11812000E+03 -0.85912E+05
 0.11817000E+03 -0.77100E+05
 0.11822000E+03 -0.70030E+05
 0.11827000E+03 -0.59754E+05
 0.11832000E+03 -0.47565E+05
 0.11837000E+03 -0.37390E+05
 0.11842000E+03 -0.35349E+05
 0.11847000E+03 -0.40645E+05
 0.11852000E+03 -0.41899E+05
 0.11857000E+03 -0.35756E+05
 0.11862000E+03 -0.23987E+05
 0.11867000E+03 -0.13975E+05
 0.11872000E+03 -0.93070E+04
 0.11877000E+03 -0.69980E+04
 0.11882000E+03 -0.94810E+04
 0.11887000E+03 -0.90550E+04
 0.11892000E+03  0.24880E+04
 0.11897000E+03  0.20740E+05
 0.11902000E+03  0.42984E+05
 0.11907000E+03  0.63386E+05
 0.11912000E+03  0.71877E+05
 0.11917000E+03  0.63631E+05
 0.11922000E+03  0.35754E+05
 0.11927000E+03 -0.13754E+05
 0.11932000E+03 -0.73385E+05
 0.11937000E+03 -0.12429E+06
 0.11942000E+03 -0.15613E+06
 0.11947000E+03 -0.16695E+06
 0.11952000E+03 -0.16013E+06
 0.11957000E+03 -0.13926E+06
 0.11962000E+03 -0.11085E+06
 0.11967000E+03 -0.81502E+05
 0.11972000E+03 -0.56161E+05
 0.11977000E+03 -0.35462E+05
 0.11982000E+03 -0.14652E+05
 0.11987000E+03  0.77130E+04
 0.11992000E+03  0.35577E+05
 0.11997000E+03  0.68375E+05
 0.12002000E+03  0.96440E+05
 0.12007000E+03  0.11344E+06
 0.12012000E+03  0.12403E+06
 0.12017000E+03  0.13422E+06
 0.12022000E+03  0.14053E+06
 0.12027000E+03  0.14163E+06
 0.12032000E+03  0.13523E+06
 0.12037000E+03  0.11804E+06
 0.12042000E+03  0.90449E+05
 0.12047000E+03  0.50535E+05
 0.12052000E+03 -0.76000E+02
 0.12057000E+03 -0.55153E+05
 0.12062000E+03 -0.10941E+06
 0.12067000E+03 -0.15945E+06
 0.12072000E+03 -0.20592E+06
 0.12077000E+03 -0.25556E+06
 0.12082000E+03 -0.30544E+06
 0.12087000E+03 -0.34542E+06
 0.12092000E+03 -0.37607E+06
 0.12097000E+03 -0.39499E+06
 0.12102000E+03 -0.39987E+06
 0.12107000E+03 -0.39558E+06
 0.12112000E+03 -0.38187E+06
 0.12117000E+03 -0.36095E+06
 0.12122000E+03 -0.33691E+06
 0.12127000E+03 -0.30610E+06
 0.12132000E+03 -0.26617E+06
 0.12137000E+03 -0.21918E+06
 0.12142000E+03 -0.16640E+06
 0.12147000E+03 -0.11710E+06
 0.12152000E+03 -0.81763E+05
 0.12157000E+03 -0.60134E+05
 0.12162000E+03 -0.49715E+05
 0.12167000E+03 -0.43043E+05
 0.12172000E+03 -0.27971E+05
 0.12177000E+03 -0.72090E+04
 0.12182000E+03  0.60750E+04
 0.12187000E+03  0.13146E+05
 0.12192000E+03  0.22937E+05
 0.12197000E+03  0.43145E+05
 0.12202000E+03  0.79114E+05
 0.12207000E+03  0.12214E+06
 0.12212000E+03  0.15886E+06
 0.12217000E+03  0.18669E+06
 0.12222000E+03  0.20728E+06
 0.12227000E+03  0.21916E+06
 0.12232000E+03  0.22247E+06
 0.12237000E+03  0.22086E+06
 0.12242000E+03  0.21747E+06
 0.12247000E+03  0.21646E+06
 0.12252000E+03  0.21687E+06
 0.12257000E+03  0.21211E+06
 0.12262000E+03  0.20810E+06
 0.12267000E+03  0.21052E+06
 0.12272000E+03  0.21213E+06
 0.12277000E+03  0.20611E+06
 0.12282000E+03  0.18783E+06
 0.12287000E+03  0.15947E+06
 0.12292000E+03  0.13418E+06
 0.12297000E+03  0.12142E+06
 0.12302000E+03  0.12069E+06
 0.12307000E+03  0.13093E+06
 0.12312000E+03  0.14978E+06
 0.12317000E+03  0.17734E+06
 0.12322000E+03  0.21356E+06
 0.12327000E+03  0.24777E+06
 0.12332000E+03  0.27311E+06
 0.12337000E+03  0.28774E+06
 0.12342000E+03  0.29606E+06
 0.12347000E+03  0.30748E+06
 0.12352000E+03  0.31666E+06
 0.12357000E+03  0.31859E+06
 0.12362000E+03  0.31415E+06
 0.12367000E+03  0.30778E+06
 0.12372000E+03  0.30457E+06
 0.12377000E+03  0.29524E+06
 0.12382000E+03  0.27345E+06
 0.12387000E+03  0.24722E+06
 0.12392000E+03  0.22654E+06
 0.12397000E+03  0.21206E+06
 0.12402000E+03  0.19981E+06
 0.12407000E+03  0.18845E+06
 0.12412000E+03  0.17395E+06
 0.12417000E+03  0.15450E+06
 0.12422000E+03  0.12645E+06
 0.12427000E+03  0.83971E+05
 0.12432000E+03  0.34683E+05
 0.12437000E+03 -0.85790E+04
 0.12442000E+03 -0.41695E+05
 0.12447000E+03 -0.66447E+05
 0.12452000E+03 -0.79922E+05
 0.12457000E+03 -0.85844E+05
 0.12462000E+03 -0.97916E+05
 0.12467000E+03 -0.11120E+06
 0.12472000E+03 -0.11971E+06
 0.12477000E+03 -0.12478E+06
 0.12482000E+03 -0.12285E+06
 0.12487000E+03 -0.12350E+06
 0.12492000E+03 -0.12866E+06
 0.12497000E+03 -0.13326E+06
 0.12502000E+03 -0.13946E+06
 0.12507000E+03 -0.14286E+06
 0.12512000E+03 -0.14638E+06
 0.12517001E+03 -0.15694E+06
 0.12521999E+03 -0.17315E+06
 0.12527000E+03 -0.19411E+06
 0.12532000E+03 -0.21822E+06
 0.12537000E+03 -0.24068E+06
 0.12542001E+03 -0.25730E+06
 0.12546999E+03 -0.26596E+06
 0.12552000E+03 -0.26899E+06
 0.12557000E+03 -0.27087E+06
 0.12562000E+03 -0.27507E+06
 0.12567001E+03 -0.27762E+06
 0.12571999E+03 -0.27367E+06
 0.12577000E+03 -0.26793E+06
 0.12582000E+03 -0.26454E+06
 0.12587000E+03 -0.26387E+06
 0.12592001E+03 -0.26578E+06
 0.12596999E+03 -0.26882E+06
 0.12602000E+03 -0.26539E+06
 0.12607000E+03 -0.25392E+06
 0.12612000E+03 -0.24069E+06
 0.12617001E+03 -0.22859E+06
 0.12621999E+03 -0.22259E+06
 0.12627000E+03 -0.22261E+06
 0.12632000E+03 -0.22263E+06
 0.12637000E+03 -0.21661E+06
 0.12642001E+03 -0.20094E+06
 0.12646999E+03 -0.17419E+06
 0.12652000E+03 -0.13798E+06
 0.12657000E+03 -0.94938E+05
 0.12662000E+03 -0.50573E+05
 0.12667001E+03 -0.15101E+05
 0.12671999E+03  0.11767E+05
 0.12677000E+03  0.36211E+05
 0.12682000E+03  0.66760E+05
 0.12687000E+03  0.10640E+06
 0.12692001E+03  0.15065E+06
 0.12696999E+03  0.19201E+06
 0.12702000E+03  0.21745E+06
 0.12707000E+03  0.22723E+06
 0.12712000E+03  0.22794E+06
 0.12717001E+03  0.22617E+06
 0.12721999E+03  0.22809E+06
 0.12727000E+03  0.23460E+06
 0.12732000E+03  0.24538E+06
 0.12737000E+03  0.25610E+06
 0.12742001E+03  0.26696E+06
 0.12746999E+03  0.27889E+06
 0.12752000E+03  0.29003E+06
 0.12757000E+03  0.30210E+06
 0.12762000E+03  0.31479E+06
 0.12767001E+03  0.32715E+06
 0.12771999E+03  0.33822E+06
 0.12777000E+03  0.34263E+06
 0.12782000E+03  0.33486E+06
 0.12787000E+03  0.31094E+06
 0.12792001E+03  0.27248E+06
 0.12796999E+03  0.22557E+06
 0.12802000E+03  0.17746E+06
 0.12807001E+03  0.13707E+06
 0.12812001E+03  0.10668E+06
 0.12817001E+03  0.87354E+05
 0.12822000E+03  0.77204E+05
 0.12827000E+03  0.69145E+05
 0.12832001E+03  0.62961E+05
 0.12837001E+03  0.58863E+05
 0.12842001E+03  0.56058E+05
 0.12847000E+03  0.58548E+05
 0.12852000E+03  0.68462E+05
 0.12857001E+03  0.82519E+05
 0.12862001E+03  0.98868E+05
 0.12867001E+03  0.11883E+06
 0.12872000E+03  0.13990E+06
 0.12877000E+03  0.16057E+06
 0.12882001E+03  0.18158E+06
 0.12887001E+03  0.19560E+06
 0.12892001E+03  0.20200E+06
 0.12897000E+03  0.20753E+06
 0.12902000E+03  0.21361E+06
 0.12907001E+03  0.22458E+06
 0.12912001E+03  0.23762E+06
 0.12917001E+03  0.24765E+06
 0.12922000E+03  0.25441E+06
 0.12927000E+03  0.25680E+06
 0.12932001E+03  0.25459E+06
 0.12937001E+03  0.24464E+06
 0.12942001E+03  0.23196E+06
 0.12947000E+03  0.22175E+06
 0.12952000E+03  0.21385E+06
 0.12957001E+03  0.20941E+06
 0.12962001E+03  0.20098E+06
 0.12967001E+03  0.18196E+06
 0.12972000E+03  0.14979E+06
 0.12977000E+03  0.10186E+06
 0.12982001E+03  0.45443E+05
 0.12987001E+03 -0.11390E+05
 0.12992001E+03 -0.67854E+05
 0.12997000E+03 -0.11830E+06
 0.13002000E+03 -0.16400E+06
 0.13007001E+03 -0.20746E+06
 0.13012001E+03 -0.24385E+06
 0.13017001E+03 -0.27628E+06
 0.13022000E+03 -0.30648E+06
 0.13027000E+03 -0.34077E+06
 0.13032001E+03 -0.38174E+06
 0.13037001E+03 -0.42439E+06
 0.13042001E+03 -0.46610E+06
 0.13047000E+03 -0.50262E+06
 0.13052000E+03 -0.53754E+06
 0.13057001E+03 -0.56624E+06
 0.13062001E+03 -0.58026E+06
 0.13067001E+03 -0.57745E+06
 0.13072000E+03 -0.55793E+06
 0.13077000E+03 -0.52876E+06
 0.13082001E+03 -0.49301E+06
 0.13087001E+03 -0.45590E+06
 0.13092001E+03 -0.41992E+06
 0.13097000E+03 -0.38022E+06
 0.13102000E+03 -0.33746E+06
 0.13107001E+03 -0.29809E+06
 0.13112001E+03 -0.26813E+06
 0.13117001E+03 -0.24502E+06
 0.13122000E+03 -0.22782E+06
 0.13127000E+03 -0.21353E+06
 0.13132001E+03 -0.19814E+06
 0.13137001E+03 -0.18580E+06
 0.13142001E+03 -0.17466E+06
 0.13147000E+03 -0.16205E+06
 0.13152000E+03 -0.14969E+06
 0.13157001E+03 -0.14263E+06
 0.13162001E+03 -0.14372E+06
 0.13167001E+03 -0.14795E+06
 0.13172000E+03 -0.15358E+06
 0.13177000E+03 -0.15984E+06
 0.13182001E+03 -0.16539E+06
 0.13187001E+03 -0.16786E+06
 0.13192001E+03 -0.16477E+06
 0.13197000E+03 -0.15862E+06
 0.13202000E+03 -0.14950E+06
 0.13207001E+03 -0.14184E+06
 0.13212001E+03 -0.13783E+06
 0.13217001E+03 -0.13242E+06
 0.13222000E+03 -0.12521E+06
 0.13227000E+03 -0.11072E+06
 0.13232001E+03 -0.83527E+05
 0.13237001E+03 -0.47447E+05
 0.13242001E+03 -0.74660E+04
 0.13247000E+03  0.35052E+05
 0.13252000E+03  0.78198E+05
 0.13257001E+03  0.11687E+06
 0.13262001E+03  0.15009E+06
 0.13267001E+03  0.17787E+06
 0.13272000E+03  0.19823E+06
 0.13277000E+03  0.21460E+06
 0.13282001E+03  0.23208E+06
 0.13287001E+03  0.25265E+06
 0.13292001E+03  0.27245E+06
 0.13297000E+03  0.28537E+06
 0.13302000E+03  0.29345E+06
 0.13307001E+03  0.30262E+06
 0.13312001E+03  0.31389E+06
 0.13317001E+03  0.32164E+06
 0.13322000E+03  0.32308E+06
 0.13327000E+03  0.32208E+06
 0.13332001E+03  0.32085E+06
 0.13337001E+03  0.31916E+06
 0.13342001E+03  0.31721E+06
 0.13347000E+03  0.31131E+06
 0.13352000E+03  0.30103E+06
 0.13357001E+03  0.29081E+06
 0.13362001E+03  0.28117E+06
 0.13367001E+03  0.27247E+06
 0.13372000E+03  0.26157E+06
 0.13377000E+03  0.24786E+06
 0.13382001E+03  0.23098E+06
 0.13387001E+03  0.20661E+06
 0.13392001E+03  0.17750E+06
 0.13397000E+03  0.14867E+06
 0.13402000E+03  0.12299E+06
 0.13407001E+03  0.10010E+06
 0.13412001E+03  0.77340E+05
 0.13417001E+03  0.49903E+05
 0.13422000E+03  0.14427E+05
 0.13427000E+03 -0.27460E+05
 0.13432001E+03 -0.73938E+05
 0.13437001E+03 -0.11994E+06
 0.13442001E+03 -0.15958E+06
 0.13447000E+03 -0.18856E+06
 0.13452000E+03 -0.20621E+06
 0.13457001E+03 -0.21604E+06
 0.13462001E+03 -0.21742E+06
 0.13467001E+03 -0.21733E+06
 0.13472000E+03 -0.22747E+06
 0.13477000E+03 -0.24642E+06
 0.13482001E+03 -0.26801E+06
 0.13487001E+03 -0.28835E+06
 0.13492001E+03 -0.30569E+06
 0.13497000E+03 -0.31943E+06
 0.13502000E+03 -0.32895E+06
 0.13507001E+03 -0.33454E+06
 0.13512001E+03 -0.33377E+06
 0.13517001E+03 -0.32355E+06
 0.13522000E+03 -0.30595E+06
 0.13527000E+03 -0.28071E+06
 0.13532001E+03 -0.24195E+06
 0.13537001E+03 -0.19178E+06
 0.13542001E+03 -0.13829E+06
 0.13547000E+03 -0.87270E+05
 0.13552000E+03 -0.44986E+05
 0.13557001E+03 -0.15485E+05
 0.13562001E+03  0.22210E+04
 0.13567001E+03  0.13797E+05
 0.13572000E+03  0.23640E+05
 0.13577000E+03  0.30620E+05
 0.13582001E+03  0.35177E+05
 0.13587001E+03  0.41366E+05
 0.13592001E+03  0.51339E+05
 0.13597000E+03  0.64771E+05
 0.13602000E+03  0.77651E+05
 0.13607001E+03  0.85002E+05
 0.13612001E+03  0.87249E+05
 0.13617001E+03  0.86123E+05
 0.13622000E+03  0.82381E+05
 0.13627000E+03  0.77830E+05
 0.13632001E+03  0.79295E+05
 0.13637001E+03  0.90357E+05
 0.13642001E+03  0.10369E+06
 0.13647000E+03  0.11337E+06
 0.13652000E+03  0.11607E+06
 0.13657001E+03  0.11270E+06
 0.13662001E+03  0.10758E+06
 0.13667001E+03  0.99974E+05
 0.13672000E+03  0.89590E+05
 0.13677000E+03  0.79514E+05
 0.13682001E+03  0.74770E+05
 0.13687001E+03  0.75405E+05
 0.13692001E+03  0.77061E+05
 0.13697000E+03  0.79681E+05
 0.13702000E+03  0.82257E+05
 0.13707001E+03  0.83090E+05
 0.13712001E+03  0.82452E+05
 0.13717001E+03  0.82981E+05
 0.13722000E+03  0.87577E+05
 0.13727000E+03  0.94953E+05
 0.13732001E+03  0.10271E+06
 0.13737001E+03  0.10706E+06
 0.13742001E+03  0.10575E+06
 0.13747000E+03  0.10030E+06
 0.13752000E+03  0.92322E+05
 0.13757001E+03  0.83635E+05
 0.13762001E+03  0.75309E+05
 0.13767001E+03  0.65636E+05
 0.13772000E+03  0.53233E+05
 0.13777000E+03  0.37451E+05
 0.13782001E+03  0.20495E+05
 0.13787001E+03  0.49700E+04
 0.13792001E+03 -0.10478E+05
 0.13797000E+03 -0.21687E+05
 0.13802000E+03 -0.26781E+05
 0.13807001E+03 -0.30247E+05
 0.13812001E+03 -0.31018E+05
 0.13817001E+03 -0.27867E+05
 0.13822000E+03 -0.25440E+05
 0.13827000E+03 -0.25030E+05
 0.13832001E+03 -0.20497E+05
 0.13837001E+03 -0.12932E+05
 0.13842001E+03 -0.72620E+04
 0.13847000E+03 -0.68340E+04
 0.13852000E+03 -0.14120E+05
 0.13857001E+03 -0.22889E+05
 0.13862001E+03 -0.28389E+05
 0.13867001E+03 -0.31121E+05
 0.13872000E+03 -0.31546E+05
 0.13877000E+03 -0.29035E+05
 0.13882001E+03 -0.25035E+05
 0.13887001E+03 -0.21809E+05
 0.13892001E+03 -0.17679E+05
 0.13897000E+03 -0.13495E+05
 0.13902000E+03 -0.11089E+05
 0.13907001E+03 -0.94740E+04
 0.13912001E+03 -0.81300E+04
 0.13917001E+03 -0.64050E+04
 0.13922000E+03 -0.12470E+04
 0.13927000E+03  0.84630E+04
 0.13932001E+03  0.19102E+05
 0.13937001E+03  0.26512E+05
 0.13942001E+03  0.31524E+05
 0.13947000E+03  0.37180E+05
 0.13952000E+03  0.40005E+05
 0.13957001E+03  0.36971E+05
 0.13962001E+03  0.31504E+05
 0.13967001E+03  0.27516E+05
 0.13972000E+03  0.25484E+05
 0.13977000E+03  0.25625E+05
 0.13982001E+03  0.27873E+05
 0.13987001E+03  0.29135E+05
 0.13992001E+03  0.27547E+05
 0.13997000E+03  0.21972E+05
 0.14002000E+03  0.14049E+05
 0.14007001E+03  0.47760E+04
 0.14012001E+03 -0.96490E+04
 0.14017001E+03 -0.30032E+05
 0.14022000E+03 -0.50221E+05
 0.14027000E+03 -0.64385E+05
 0.14032001E+03 -0.74343E+05
 0.14037001E+03 -0.82800E+05
 0.14042001E+03 -0.89923E+05
 0.14047000E+03 -0.93482E+05
 0.14052000E+03 -0.90708E+05
 0.14057001E+03 -0.81904E+05
 0.14062001E+03 -0.69926E+05
 0.14067001E+03 -0.59170E+05
 0.14072000E+03 -0.54036E+05
 0.14077000E+03 -0.56516E+05
 0.14082001E+03 -0.67628E+05
 0.14087001E+03 -0.89003E+05
 0.14092001E+03 -0.11680E+06
 0.14097000E+03 -0.14720E+06
 0.14102000E+03 -0.17846E+06
 0.14107001E+03 -0.20832E+06
 0.14112001E+03 -0.23677E+06
 0.14117001E+03 -0.26391E+06
 0.14122000E+03 -0.28910E+06
 0.14127000E+03 -0.30767E+06
 0.14132001E+03 -0.31599E+06
 0.14137001E+03 -0.31384E+06
 0.14142001E+03 -0.30366E+06
 0.14147000E+03 -0.29177E+06
 0.14152000E+03 -0.27991E+06
 0.14157001E+03 -0.26629E+06
 0.14162001E+03 -0.24835E+06
 0.14167001E+03 -0.22309E+06
 0.14172000E+03 -0.19236E+06
 0.14177000E+03 -0.15890E+06
 0.14182001E+03 -0.12387E+06
 0.14187001E+03 -0.90244E+05
 0.14192001E+03 -0.59853E+05
 0.14197000E+03 -0.31868E+05
 0.14202000E+03 -0.33300E+04
 0.14207001E+03  0.28545E+05
 0.14212001E+03  0.64139E+05
 0.14217001E+03  0.10181E+06
 0.14222000E+03  0.13740E+06
 0.14227000E+03  0.16957E+06
 0.14232001E+03  0.19997E+06
 0.14237001E+03  0.22696E+06
 0.14242001E+03  0.24957E+06
 0.14247000E+03  0.26940E+06
 0.14252000E+03  0.28794E+06
 0.14257001E+03  0.30334E+06
 0.14262001E+03  0.31343E+06
 0.14267001E+03  0.32262E+06
 0.14272000E+03  0.33181E+06
 0.14277000E+03  0.33906E+06
 0.14282001E+03  0.34789E+06
 0.14287001E+03  0.35688E+06
 0.14292001E+03  0.36244E+06
 0.14297000E+03  0.36441E+06
 0.14302000E+03  0.36088E+06
 0.14307001E+03  0.35232E+06
 0.14312001E+03  0.34081E+06
 0.14317001E+03  0.32808E+06
 0.14322000E+03  0.31414E+06
 0.14327000E+03  0.29478E+06
 0.14332001E+03  0.26862E+06
 0.14337001E+03  0.23927E+06
 0.14342001E+03  0.20902E+06
 0.14347000E+03  0.17506E+06
 0.14352000E+03  0.13803E+06
 0.14357001E+03  0.10524E+06
 0.14362001E+03  0.78493E+05
 0.14367001E+03  0.54110E+05
 0.14372000E+03  0.31681E+05
 0.14377000E+03  0.12061E+05
 0.14382001E+03 -0.52260E+04
 0.14387001E+03 -0.20215E+05
 0.14392001E+03 -0.34557E+05
 0.14397000E+03 -0.50396E+05
 0.14402000E+03 -0.67249E+05
 0.14407001E+03 -0.83061E+05
 0.14412001E+03 -0.96280E+05
 0.14417001E+03 -0.10449E+06
 0.14422000E+03 -0.10514E+06
 0.14427000E+03 -0.99690E+05
 0.14432001E+03 -0.91093E+05
 0.14437001E+03 -0.82164E+05
 0.14442001E+03 -0.75214E+05
 0.14447000E+03 -0.72415E+05
 0.14452000E+03 -0.76077E+05
 0.14457001E+03 -0.85959E+05
 0.14462001E+03 -0.99749E+05
 0.14467001E+03 -0.11166E+06
 0.14472000E+03 -0.11710E+06
 0.14477000E+03 -0.11761E+06
 0.14482001E+03 -0.11285E+06
 0.14487001E+03 -0.10185E+06
 0.14492001E+03 -0.84318E+05
 0.14497000E+03 -0.59261E+05
 0.14502000E+03 -0.32760E+05
 0.14507001E+03 -0.11146E+05
 0.14512001E+03  0.44150E+04
 0.14517001E+03  0.12289E+05
 0.14522000E+03  0.13420E+05
 0.14527000E+03  0.10552E+05
 0.14532001E+03  0.78050E+04
 0.14537001E+03  0.89350E+04
 0.14542001E+03  0.10522E+05
 0.14547000E+03  0.81040E+04
 0.14552000E+03  0.40700E+03
 0.14557001E+03 -0.94870E+04
 0.14562001E+03 -0.15404E+05
 0.14567001E+03 -0.13101E+05
 0.14572000E+03 -0.22470E+04
 0.14577000E+03  0.13815E+05
 0.14582001E+03  0.31544E+05
 0.14587001E+03  0.47756E+05
 0.14592001E+03  0.62948E+05
 0.14597000E+03  0.75348E+05
 0.14602000E+03  0.82629E+05
 0.14607001E+03  0.85367E+05
 0.14612001E+03  0.79417E+05
 0.14617001E+03  0.63044E+05
 0.14622000E+03  0.36597E+05
 0.14627000E+03  0.18790E+04
 0.14632001E+03 -0.40041E+05
 0.14637001E+03 -0.86804E+05
 0.14642001E+03 -0.12923E+06
 0.14647000E+03 -0.16088E+06
 0.14652000E+03 -0.17883E+06
 0.14657001E+03 -0.18853E+06
 0.14662001E+03 -0.19584E+06
 0.14667001E+03 -0.19857E+06
 0.14672000E+03 -0.20037E+06
 0.14677000E+03 -0.20430E+06
 0.14682001E+03 -0.20572E+06
 0.14687001E+03 -0.20342E+06
 0.14692001E+03 -0.19726E+06
 0.14697000E+03 -0.18366E+06
 0.14702000E+03 -0.16412E+06
 0.14707001E+03 -0.14246E+06
 0.14712001E+03 -0.12153E+06
 0.14717001E+03 -0.10366E+06
 0.14722000E+03 -0.89957E+05
 0.14727000E+03 -0.81599E+05
 0.14732001E+03 -0.76173E+05
 0.14737001E+03 -0.71834E+05
 0.14742001E+03 -0.66794E+05
 0.14747000E+03 -0.56969E+05
 0.14752000E+03 -0.39405E+05
 0.14757001E+03 -0.13344E+05
 0.14762001E+03  0.18616E+05
 0.14767001E+03  0.51488E+05
 0.14772000E+03  0.79436E+05
 0.14777000E+03  0.99755E+05
 0.14782001E+03  0.11400E+06
 0.14787001E+03  0.12849E+06
 0.14792001E+03  0.14452E+06
 0.14797000E+03  0.15806E+06
 0.14802000E+03  0.16996E+06
 0.14807001E+03  0.17966E+06
 0.14812001E+03  0.18704E+06
 0.14817001E+03  0.19292E+06
 0.14822000E+03  0.19701E+06
 0.14827000E+03  0.19962E+06
 0.14832001E+03  0.20110E+06
 0.14837001E+03  0.20388E+06
 0.14842001E+03  0.20630E+06
 0.14847000E+03  0.20304E+06
 0.14852000E+03  0.19560E+06
 0.14857001E+03  0.18770E+06
 0.14862001E+03  0.17949E+06
 0.14867001E+03  0.17080E+06
 0.14872000E+03  0.16098E+06
 0.14877000E+03  0.14933E+06
 0.14882001E+03  0.13585E+06
 0.14887001E+03  0.12245E+06
 0.14892001E+03  0.11157E+06
 0.14897000E+03  0.10268E+06
 0.14902000E+03  0.94609E+05
 0.14907001E+03  0.86211E+05
 0.14912001E+03  0.78357E+05
 0.14917001E+03  0.72115E+05
 0.14922000E+03  0.66641E+05
 0.14927000E+03  0.61411E+05
 0.14932001E+03  0.53920E+05
 0.14937001E+03  0.44427E+05
 0.14942001E+03  0.34953E+05
 0.14947000E+03  0.25754E+05
 0.14952000E+03  0.18161E+05
 0.14957001E+03  0.79540E+04
 0.14962001E+03 -0.98770E+04
 0.14967001E+03 -0.32425E+05
 0.14972000E+03 -0.54617E+05
 0.14977000E+03 -0.71443E+05
 0.14982001E+03 -0.81361E+05
 0.14987001E+03 -0.86434E+05
 0.14992001E+03 -0.90216E+05
 0.14997000E+03 -0.95850E+05
