-0.29800000E+01 -0.15235E+06
-0.29300001E+01 -0.17161E+06
-0.28800001E+01 -0.19510E+06
-0.28299999E+01 -0.22392E+06
-0.27800000E+01 -0.25592E+06
-0.27300000E+01 -0.28508E+06
-0.26800001E+01 -0.30854E+06
-0.26300001E+01 -0.32357E+06
-0.25799999E+01 -0.33060E+06
-0.25300000E+01 -0.33065E+06
-0.24800000E+01 -0.32061E+06
-0.24300001E+01 -0.30276E+06
-0.23800001E+01 -0.28106E+06
-0.23299999E+01 -0.25556E+06
-0.22800000E+01 -0.22557E+06
-0.22300000E+01 -0.19051E+06
-0.21800001E+01 -0.15094E+06
-0.21300001E+01 -0.10850E+06
-0.20799999E+01 -0.64626E+05
-0.20300000E+01 -0.19881E+05
-0.19800000E+01  0.25276E+05
-0.19299999E+01  0.69832E+05
-0.18800000E+01  0.11242E+06
-0.18300000E+01  0.15081E+06
-0.17800000E+01  0.18432E+06
-0.17300000E+01  0.21414E+06
-0.16799999E+01  0.23832E+06
-0.16300000E+01  0.25448E+06
-0.15800000E+01  0.26308E+06
-0.15300000E+01  0.26465E+06
-0.14800000E+01  0.26179E+06
-0.14299999E+01  0.25750E+06
-0.13800000E+01  0.25160E+06
-0.13300000E+01  0.24146E+06
-0.12800000E+01  0.22489E+06
-0.12300000E+01  0.20392E+06
-0.11799999E+01  0.18320E+06
-0.11300000E+01  0.16782E+06
-0.10800000E+01  0.15952E+06
-0.10300000E+01  0.15733E+06
-0.98000002E+00  0.15941E+06
-0.93000007E+00  0.16445E+06
-0.87999988E+00  0.17585E+06
-0.82999992E+00  0.19311E+06
-0.77999997E+00  0.20933E+06
-0.73000002E+00  0.21881E+06
-0.68000007E+00  0.21874E+06
-0.62999988E+00  0.20796E+06
-0.57999992E+00  0.18798E+06
-0.52999997E+00  0.16029E+06
-0.48000002E+00  0.12590E+06
-0.43000007E+00  0.91429E+05
-0.37999988E+00  0.63653E+05
-0.32999992E+00  0.45246E+05
-0.27999997E+00  0.35343E+05
-0.23000002E+00  0.33008E+05
-0.18000007E+00  0.38025E+05
-0.12999988E+00  0.47067E+05
-0.79999924E-01  0.58347E+05
-0.29999971E-01  0.69521E+05
 0.19999981E-01  0.76952E+05
 0.69999933E-01  0.79068E+05
 0.12000012E+00  0.75862E+05
 0.17000008E+00  0.68012E+05
 0.22000003E+00  0.55329E+05
 0.26999998E+00  0.39139E+05
 0.31999993E+00  0.21635E+05
 0.37000012E+00  0.57010E+04
 0.42000008E+00 -0.53470E+04
 0.47000003E+00 -0.99620E+04
 0.51999998E+00 -0.72900E+04
 0.56999993E+00  0.10330E+04
 0.62000012E+00  0.84640E+04
 0.67000008E+00  0.86330E+04
 0.72000003E+00 -0.49000E+02
 0.76999998E+00 -0.17721E+05
 0.81999993E+00 -0.41632E+05
 0.87000012E+00 -0.68403E+05
 0.92000008E+00 -0.97253E+05
 0.97000003E+00 -0.12660E+06
 0.10200000E+01 -0.15632E+06
 0.10700002E+01 -0.18412E+06
 0.11199999E+01 -0.20583E+06
 0.11700001E+01 -0.22003E+06
 0.12200003E+01 -0.22636E+06
 0.12700000E+01 -0.22539E+06
 0.13200002E+01 -0.21817E+06
 0.13699999E+01 -0.20687E+06
 0.14200001E+01 -0.19292E+06
 0.14700003E+01 -0.17385E+06
 0.15200000E+01 -0.14567E+06
 0.15700002E+01 -0.11130E+06
 0.16199999E+01 -0.75844E+05
 0.16700001E+01 -0.39977E+05
 0.17200003E+01 -0.57400E+04
 0.17700000E+01  0.27795E+05
 0.18200002E+01  0.62159E+05
 0.18699999E+01  0.93852E+05
 0.19200001E+01  0.11743E+06
 0.19700003E+01  0.12987E+06
 0.20200000E+01  0.13045E+06
 0.20700002E+01  0.11660E+06
 0.21199999E+01  0.89417E+05
 0.21700001E+01  0.52399E+05
 0.22200003E+01  0.99140E+04
 0.22700000E+01 -0.33394E+05
 0.23200002E+01 -0.75941E+05
 0.23699999E+01 -0.11245E+06
 0.24200001E+01 -0.13786E+06
 0.24700003E+01 -0.15222E+06
 0.25200000E+01 -0.15516E+06
 0.25700002E+01 -0.14517E+06
 0.26199999E+01 -0.12362E+06
 0.26700001E+01 -0.94343E+05
 0.27200003E+01 -0.63355E+05
 0.27700000E+01 -0.37494E+05
 0.28200002E+01 -0.17454E+05
 0.28699999E+01 -0.37000E+02
 0.29200001E+01  0.15196E+05
 0.29700003E+01  0.25531E+05
 0.30200000E+01  0.30626E+05
 0.30700002E+01  0.34337E+05
 0.31199999E+01  0.39081E+05
 0.31700001E+01  0.45063E+05
 0.32200003E+01  0.51979E+05
 0.32700000E+01  0.59770E+05
 0.33200002E+01  0.68104E+05
 0.33699999E+01  0.76051E+05
 0.34200001E+01  0.82859E+05
 0.34700003E+01  0.87344E+05
 0.35200000E+01  0.87162E+05
 0.35700002E+01  0.80776E+05
 0.36199999E+01  0.70314E+05
 0.36700001E+01  0.58880E+05
 0.37200003E+01  0.49755E+05
 0.37700000E+01  0.42775E+05
 0.38200002E+01  0.35835E+05
 0.38699999E+01  0.28637E+05
 0.39200001E+01  0.17727E+05
 0.39700003E+01  0.98800E+03
 0.40200000E+01 -0.20141E+05
 0.40700002E+01 -0.44562E+05
 0.41199999E+01 -0.71738E+05
 0.41700001E+01 -0.98336E+05
 0.42200003E+01 -0.11966E+06
 0.42700000E+01 -0.13560E+06
 0.43200002E+01 -0.14846E+06
 0.43699999E+01 -0.15964E+06
 0.44200001E+01 -0.16986E+06
 0.44700003E+01 -0.17967E+06
 0.45200000E+01 -0.18770E+06
 0.45700002E+01 -0.19281E+06
 0.46199999E+01 -0.19510E+06
 0.46700001E+01 -0.19220E+06
 0.47200003E+01 -0.18348E+06
 0.47700000E+01 -0.16977E+06
 0.48200002E+01 -0.14829E+06
 0.48699999E+01 -0.11842E+06
 0.49200001E+01 -0.82454E+05
 0.49700003E+01 -0.40953E+05
 0.50200000E+01  0.34120E+04
 0.50700002E+01  0.45817E+05
 0.51200004E+01  0.84726E+05
 0.51700006E+01  0.11861E+06
 0.52199998E+01  0.14673E+06
 0.52700000E+01  0.17007E+06
 0.53200002E+01  0.18724E+06
 0.53700004E+01  0.19763E+06
 0.54200006E+01  0.20147E+06
 0.54699998E+01  0.20094E+06
 0.55200000E+01  0.19961E+06
 0.55700002E+01  0.19717E+06
 0.56200004E+01  0.19259E+06
 0.56700006E+01  0.18859E+06
 0.57199998E+01  0.18587E+06
 0.57700000E+01  0.18226E+06
 0.58200002E+01  0.17610E+06
 0.58700004E+01  0.16802E+06
 0.59200006E+01  0.16014E+06
 0.59699998E+01  0.14720E+06
 0.60200000E+01  0.12552E+06
 0.60700002E+01  0.94866E+05
 0.61200004E+01  0.54353E+05
 0.61700006E+01  0.84540E+04
 0.62199998E+01 -0.39452E+05
 0.62700000E+01 -0.88254E+05
 0.63200002E+01 -0.13617E+06
 0.63700004E+01 -0.17831E+06
 0.64200006E+01 -0.21263E+06
 0.64699998E+01 -0.23908E+06
 0.65200000E+01 -0.25442E+06
 0.65700002E+01 -0.25863E+06
 0.66200004E+01 -0.25124E+06
 0.66700006E+01 -0.23167E+06
 0.67199998E+01 -0.20114E+06
 0.67700000E+01 -0.16090E+06
 0.68200002E+01 -0.11117E+06
 0.68700004E+01 -0.52543E+05
 0.69200006E+01  0.11361E+05
 0.69699998E+01  0.78109E+05
 0.70200000E+01  0.14349E+06
 0.70700002E+01  0.20315E+06
 0.71200004E+01  0.25552E+06
 0.71700006E+01  0.29686E+06
 0.72199998E+01  0.32557E+06
 0.72700000E+01  0.34113E+06
 0.73200002E+01  0.34147E+06
 0.73700004E+01  0.32744E+06
 0.74200006E+01  0.29915E+06
 0.74699998E+01  0.25720E+06
 0.75200000E+01  0.20703E+06
 0.75700002E+01  0.15540E+06
 0.76200004E+01  0.10576E+06
 0.76700006E+01  0.57327E+05
 0.77199998E+01  0.87070E+04
 0.77700000E+01 -0.40522E+05
 0.78200002E+01 -0.88826E+05
 0.78700004E+01 -0.13360E+06
 0.79200006E+01 -0.17293E+06
 0.79699998E+01 -0.20486E+06
 0.80200005E+01 -0.22710E+06
 0.80699997E+01 -0.23835E+06
 0.81200008E+01 -0.23983E+06
 0.81700001E+01 -0.23173E+06
 0.82199993E+01 -0.21196E+06
 0.82700005E+01 -0.18217E+06
 0.83199997E+01 -0.14449E+06
 0.83700008E+01 -0.99937E+05
 0.84200001E+01 -0.54354E+05
 0.84699993E+01 -0.12662E+05
 0.85200005E+01  0.24181E+05
 0.85699997E+01  0.54971E+05
 0.86200008E+01  0.77962E+05
 0.86700001E+01  0.93415E+05
 0.87199993E+01  0.10157E+06
 0.87700005E+01  0.99222E+05
 0.88199997E+01  0.85857E+05
 0.88700008E+01  0.64421E+05
 0.89200001E+01  0.39304E+05
 0.89699993E+01  0.14524E+05
 0.90200005E+01 -0.92080E+04
 0.90699997E+01 -0.27903E+05
 0.91200008E+01 -0.41680E+05
 0.91700001E+01 -0.53150E+05
 0.92199993E+01 -0.59015E+05
 0.92700005E+01 -0.59627E+05
 0.93199997E+01 -0.54104E+05
 0.93700008E+01 -0.42574E+05
 0.94200001E+01 -0.28281E+05
 0.94699993E+01 -0.11882E+05
 0.95200005E+01  0.52830E+04
 0.95699997E+01  0.21742E+05
 0.96200008E+01  0.37065E+05
 0.96700001E+01  0.51393E+05
 0.97199993E+01  0.63153E+05
 0.97700005E+01  0.72227E+05
 0.98199997E+01  0.77773E+05
 0.98700008E+01  0.80051E+05
 0.99200001E+01  0.81690E+05
 0.99699993E+01  0.82829E+05
 0.10020000E+02  0.84319E+05
 0.10070000E+02  0.84933E+05
 0.10120001E+02  0.83249E+05
 0.10170000E+02  0.77458E+05
 0.10219999E+02  0.66405E+05
 0.10270000E+02  0.51716E+05
 0.10320000E+02  0.33698E+05
 0.10370001E+02  0.12477E+05
 0.10420000E+02 -0.12367E+05
 0.10469999E+02 -0.40414E+05
 0.10520000E+02 -0.69091E+05
 0.10570000E+02 -0.96640E+05
 0.10620001E+02 -0.12341E+06
 0.10670000E+02 -0.14649E+06
 0.10719999E+02 -0.16398E+06
 0.10770000E+02 -0.17715E+06
 0.10820000E+02 -0.18380E+06
 0.10870001E+02 -0.18443E+06
 0.10920000E+02 -0.18098E+06
 0.10969999E+02 -0.17350E+06
 0.11020000E+02 -0.16399E+06
 0.11070000E+02 -0.15292E+06
 0.11120001E+02 -0.13744E+06
 0.11170000E+02 -0.11686E+06
 0.11219999E+02 -0.94172E+05
 0.11270000E+02 -0.72378E+05
 0.11320000E+02 -0.54375E+05
 0.11370001E+02 -0.40262E+05
 0.11420000E+02 -0.28681E+05
 0.11469999E+02 -0.19352E+05
 0.11520000E+02 -0.10914E+05
 0.11570000E+02 -0.52080E+04
 0.11620001E+02 -0.24100E+04
 0.11670000E+02  0.38600E+03
 0.11719999E+02  0.25780E+04
 0.11770000E+02  0.45620E+04
 0.11820000E+02  0.59690E+04
 0.11870001E+02  0.49620E+04
 0.11920000E+02  0.68100E+03
 0.11969999E+02 -0.62610E+04
 0.12020000E+02 -0.13545E+05
 0.12070000E+02 -0.19845E+05
 0.12120001E+02 -0.23962E+05
 0.12170000E+02 -0.26988E+05
 0.12219999E+02 -0.31859E+05
 0.12270000E+02 -0.38182E+05
 0.12320000E+02 -0.42589E+05
 0.12370001E+02 -0.45383E+05
 0.12420000E+02 -0.47231E+05
 0.12469999E+02 -0.48311E+05
 0.12520000E+02 -0.49983E+05
 0.12570000E+02 -0.48647E+05
 0.12620001E+02 -0.45875E+05
 0.12670000E+02 -0.44224E+05
 0.12719999E+02 -0.42695E+05
 0.12770000E+02 -0.43945E+05
 0.12820000E+02 -0.47649E+05
 0.12870001E+02 -0.52732E+05
 0.12920000E+02 -0.58744E+05
 0.12969999E+02 -0.65920E+05
 0.13020000E+02 -0.74443E+05
 0.13070002E+02 -0.82900E+05
 0.13120001E+02 -0.90844E+05
 0.13170000E+02 -0.96519E+05
 0.13220001E+02 -0.99756E+05
 0.13270000E+02 -0.10194E+06
 0.13320002E+02 -0.10108E+06
 0.13370001E+02 -0.95554E+05
 0.13420000E+02 -0.84786E+05
 0.13470001E+02 -0.66015E+05
 0.13520000E+02 -0.38680E+05
 0.13570002E+02 -0.41120E+04
 0.13620001E+02  0.35468E+05
 0.13670000E+02  0.76966E+05
 0.13720001E+02  0.12201E+06
 0.13770000E+02  0.17317E+06
 0.13820002E+02  0.22726E+06
 0.13870001E+02  0.27873E+06
 0.13920000E+02  0.32330E+06
 0.13970001E+02  0.35857E+06
 0.14020000E+02  0.38352E+06
 0.14070002E+02  0.39791E+06
 0.14120001E+02  0.40222E+06
 0.14170000E+02  0.39539E+06
 0.14220001E+02  0.37812E+06
 0.14270000E+02  0.35165E+06
 0.14320002E+02  0.31597E+06
 0.14370001E+02  0.27278E+06
 0.14420000E+02  0.22326E+06
 0.14470001E+02  0.16869E+06
 0.14520000E+02  0.10872E+06
 0.14570002E+02  0.45753E+05
 0.14620001E+02 -0.14501E+05
 0.14670000E+02 -0.70016E+05
 0.14720001E+02 -0.11950E+06
 0.14770000E+02 -0.16276E+06
 0.14820002E+02 -0.20017E+06
 0.14870001E+02 -0.23017E+06
 0.14920000E+02 -0.24935E+06
 0.14970001E+02 -0.25495E+06
 0.15020000E+02 -0.24856E+06
 0.15070002E+02 -0.23045E+06
 0.15120001E+02 -0.20028E+06
 0.15170000E+02 -0.16091E+06
 0.15220001E+02 -0.11422E+06
 0.15270000E+02 -0.63429E+05
 0.15320002E+02 -0.10355E+05
 0.15370001E+02  0.46170E+05
 0.15420000E+02  0.10394E+06
 0.15470001E+02  0.15939E+06
 0.15520000E+02  0.20872E+06
 0.15570002E+02  0.24743E+06
 0.15620001E+02  0.27332E+06
 0.15670000E+02  0.28463E+06
 0.15720001E+02  0.28013E+06
 0.15770000E+02  0.26202E+06
 0.15820002E+02  0.23297E+06
 0.15870001E+02  0.19611E+06
 0.15920000E+02  0.15472E+06
 0.15970001E+02  0.11103E+06
 0.16020000E+02  0.66698E+05
 0.16070002E+02  0.23597E+05
 0.16120001E+02 -0.17468E+05
 0.16170000E+02 -0.60053E+05
 0.16220001E+02 -0.10370E+06
 0.16270000E+02 -0.14592E+06
 0.16320002E+02 -0.18573E+06
 0.16370001E+02 -0.22028E+06
 0.16420000E+02 -0.24914E+06
 0.16470001E+02 -0.27077E+06
 0.16520000E+02 -0.28524E+06
 0.16570002E+02 -0.29560E+06
 0.16620001E+02 -0.30256E+06
 0.16670000E+02 -0.30564E+06
 0.16720001E+02 -0.30383E+06
 0.16770000E+02 -0.29537E+06
 0.16820002E+02 -0.27926E+06
 0.16870001E+02 -0.25628E+06
 0.16920000E+02 -0.22637E+06
 0.16970001E+02 -0.18984E+06
 0.17020000E+02 -0.14854E+06
 0.17070002E+02 -0.10485E+06
 0.17120001E+02 -0.59956E+05
 0.17170000E+02 -0.15127E+05
 0.17220001E+02  0.26778E+05
 0.17270000E+02  0.65355E+05
 0.17320002E+02  0.10131E+06
 0.17370001E+02  0.13369E+06
 0.17420000E+02  0.16046E+06
 0.17470001E+02  0.18237E+06
 0.17520000E+02  0.19792E+06
 0.17570002E+02  0.20067E+06
 0.17620001E+02  0.18978E+06
 0.17670000E+02  0.16670E+06
 0.17720001E+02  0.13361E+06
 0.17770000E+02  0.95669E+05
 0.17820002E+02  0.55062E+05
 0.17870001E+02  0.12708E+05
 0.17920000E+02 -0.28785E+05
 0.17970001E+02 -0.68667E+05
 0.18020000E+02 -0.10608E+06
 0.18070002E+02 -0.13841E+06
 0.18120001E+02 -0.16610E+06
 0.18170000E+02 -0.18944E+06
 0.18220001E+02 -0.20694E+06
 0.18270000E+02 -0.21705E+06
 0.18320002E+02 -0.21784E+06
 0.18370001E+02 -0.20962E+06
 0.18420000E+02 -0.19422E+06
 0.18470001E+02 -0.17332E+06
 0.18520000E+02 -0.14652E+06
 0.18570002E+02 -0.11344E+06
 0.18620001E+02 -0.76570E+05
 0.18670000E+02 -0.40670E+05
 0.18720001E+02 -0.91680E+04
 0.18770000E+02  0.18309E+05
 0.18820002E+02  0.41503E+05
 0.18870001E+02  0.59259E+05
 0.18920000E+02  0.73358E+05
 0.18970001E+02  0.86788E+05
 0.19020000E+02  0.96542E+05
 0.19070002E+02  0.10087E+06
 0.19120001E+02  0.10138E+06
 0.19170000E+02  0.99304E+05
 0.19220001E+02  0.96954E+05
 0.19270000E+02  0.93354E+05
 0.19320002E+02  0.89992E+05
 0.19370001E+02  0.86218E+05
 0.19420000E+02  0.80811E+05
 0.19470001E+02  0.78574E+05
 0.19520000E+02  0.82333E+05
 0.19570002E+02  0.92059E+05
 0.19620001E+02  0.10808E+06
 0.19670000E+02  0.12981E+06
 0.19720001E+02  0.15403E+06
 0.19770000E+02  0.18098E+06
 0.19820002E+02  0.20924E+06
 0.19870001E+02  0.23455E+06
 0.19920000E+02  0.25370E+06
 0.19970001E+02  0.26233E+06
 0.20020000E+02  0.25900E+06
 0.20070002E+02  0.24356E+06
 0.20120001E+02  0.21707E+06
 0.20170000E+02  0.18085E+06
 0.20220001E+02  0.13628E+06
 0.20270000E+02  0.86961E+05
 0.20320002E+02  0.35927E+05
 0.20370001E+02 -0.14670E+05
 0.20420000E+02 -0.63543E+05
 0.20470001E+02 -0.10918E+06
 0.20520000E+02 -0.14875E+06
 0.20570002E+02 -0.18033E+06
 0.20620001E+02 -0.20391E+06
 0.20670000E+02 -0.22029E+06
 0.20720001E+02 -0.22988E+06
 0.20770000E+02 -0.23118E+06
 0.20820002E+02 -0.22343E+06
 0.20870001E+02 -0.20991E+06
 0.20920000E+02 -0.19255E+06
 0.20970001E+02 -0.17139E+06
 0.21020000E+02 -0.14992E+06
 0.21070002E+02 -0.13200E+06
 0.21120001E+02 -0.11666E+06
 0.21170000E+02 -0.10076E+06
 0.21220001E+02 -0.83588E+05
 0.21270000E+02 -0.65613E+05
 0.21320002E+02 -0.46170E+05
 0.21370001E+02 -0.25147E+05
 0.21420000E+02 -0.55200E+04
 0.21470001E+02  0.13302E+05
 0.21520000E+02  0.36568E+05
 0.21570002E+02  0.64943E+05
 0.21620001E+02  0.95348E+05
 0.21670000E+02  0.12410E+06
 0.21720001E+02  0.14912E+06
 0.21770000E+02  0.17015E+06
 0.21820002E+02  0.18750E+06
 0.21870001E+02  0.20218E+06
 0.21920000E+02  0.21408E+06
 0.21970001E+02  0.22496E+06
 0.22020000E+02  0.23911E+06
 0.22070002E+02  0.26486E+06
 0.22120001E+02  0.30414E+06
 0.22170000E+02  0.33545E+06
 0.22220001E+02  0.31676E+06
 0.22270000E+02  0.21910E+06
 0.22320002E+02  0.63485E+05
 0.22370001E+02 -0.73966E+05
 0.22420000E+02 -0.10909E+06
 0.22470001E+02 -0.28628E+05
 0.22520000E+02  0.13199E+06
 0.22570002E+02  0.31267E+06
 0.22620001E+02  0.42289E+06
 0.22670000E+02  0.42111E+06
 0.22720001E+02  0.38703E+06
 0.22770000E+02  0.40713E+06
 0.22820002E+02  0.49019E+06
 0.22870001E+02  0.55672E+06
 0.22920000E+02  0.39968E+06
 0.22970001E+02  0.12643E+06
 0.23020000E+02 -0.21543E+05
 0.23070002E+02 -0.21099E+06
 0.23120001E+02 -0.43825E+06
 0.23170000E+02 -0.52508E+06
 0.23220001E+02 -0.51438E+06
 0.23270000E+02 -0.31950E+06
 0.23320002E+02 -0.12749E+06
 0.23370001E+02 -0.30004E+06
 0.23420000E+02 -0.31668E+06
 0.23470001E+02  0.83710E+04
 0.23520000E+02  0.72976E+05
 0.23570002E+02  0.10192E+06
 0.23620001E+02  0.25938E+06
 0.23670000E+02  0.23458E+06
 0.23720001E+02  0.17004E+06
 0.23770000E+02  0.37093E+05
 0.23820002E+02 -0.12442E+06
 0.23870001E+02 -0.26163E+06
 0.23920000E+02 -0.24402E+06
 0.23970001E+02  0.90810E+05
 0.24020000E+02  0.94340E+04
 0.24070002E+02 -0.19739E+06
 0.24120001E+02  0.33035E+05
 0.24170000E+02  0.11367E+06
 0.24220001E+02 -0.14057E+06
 0.24270000E+02 -0.21663E+06
 0.24320002E+02  0.16385E+06
 0.24370001E+02  0.12558E+06
 0.24420000E+02 -0.76167E+05
 0.24470001E+02  0.26126E+06
 0.24520000E+02  0.44245E+06
 0.24570002E+02 -0.85390E+04
 0.24620001E+02 -0.71661E+06
 0.24670000E+02 -0.28847E+06
 0.24720001E+02  0.93947E+06
 0.24770000E+02  0.12043E+07
 0.24820002E+02  0.10317E+07
 0.24870001E+02  0.97357E+06
 0.24920000E+02  0.48387E+06
 0.24970001E+02 -0.29875E+05
 0.25020000E+02 -0.33423E+06
 0.25070002E+02 -0.25251E+06
 0.25120001E+02  0.29486E+06
 0.25170000E+02  0.19259E+06
 0.25220001E+02 -0.97144E+05
 0.25270000E+02  0.16954E+06
 0.25320002E+02  0.13507E+06
 0.25370001E+02  0.11804E+06
 0.25420000E+02 -0.19888E+06
 0.25470001E+02 -0.83827E+06
 0.25520000E+02 -0.46729E+06
 0.25570002E+02  0.21145E+06
 0.25620001E+02  0.41011E+06
 0.25670000E+02  0.10423E+06
 0.25720001E+02 -0.17740E+06
 0.25770000E+02  0.10278E+06
 0.25820002E+02  0.94456E+05
 0.25870001E+02 -0.14606E+06
 0.25920000E+02 -0.23562E+06
 0.25970001E+02 -0.33824E+06
 0.26020000E+02  0.81833E+05
 0.26070002E+02  0.89764E+06
 0.26120001E+02  0.10886E+07
 0.26170000E+02  0.66634E+06
 0.26220001E+02  0.48911E+06
 0.26270000E+02  0.75818E+06
 0.26320002E+02  0.81801E+06
 0.26370001E+02  0.42237E+06
 0.26420000E+02  0.15816E+06
 0.26470001E+02  0.24254E+06
 0.26520000E+02  0.31917E+06
 0.26570002E+02  0.62247E+05
 0.26620001E+02 -0.38312E+06
 0.26670000E+02 -0.55522E+06
 0.26720001E+02 -0.51239E+06
 0.26770000E+02 -0.69367E+06
 0.26820002E+02 -0.65522E+06
 0.26870001E+02 -0.96962E+05
 0.26920000E+02  0.28217E+06
 0.26970001E+02  0.35936E+06
 0.27020000E+02  0.13802E+06
 0.27070002E+02 -0.27218E+06
 0.27120001E+02 -0.65558E+06
 0.27170000E+02 -0.63466E+06
 0.27220001E+02  0.37564E+06
 0.27270000E+02  0.97647E+06
 0.27320002E+02  0.39934E+06
 0.27370001E+02 -0.18829E+06
 0.27420000E+02 -0.27371E+06
 0.27470001E+02  0.12203E+06
 0.27520000E+02  0.63787E+05
 0.27570002E+02 -0.52800E+06
 0.27620001E+02 -0.47407E+06
 0.27670000E+02  0.17500E+06
 0.27720001E+02  0.85474E+06
 0.27770000E+02  0.12569E+07
 0.27820002E+02  0.12758E+07
 0.27870001E+02  0.11620E+07
 0.27920000E+02  0.12295E+07
 0.27970001E+02  0.12132E+07
 0.28020000E+02  0.66052E+06
 0.28070002E+02 -0.11112E+06
 0.28120001E+02 -0.55822E+06
 0.28170000E+02 -0.32204E+06
 0.28220001E+02 -0.12817E+05
 0.28270000E+02 -0.58525E+06
 0.28320002E+02 -0.12995E+07
 0.28370001E+02 -0.10494E+07
 0.28420000E+02 -0.42113E+06
 0.28470001E+02 -0.57125E+06
 0.28520000E+02 -0.77975E+06
 0.28570002E+02 -0.32120E+06
 0.28620001E+02  0.10890E+06
 0.28670000E+02  0.30385E+06
 0.28720001E+02  0.40012E+06
 0.28770000E+02  0.80655E+06
 0.28820002E+02  0.11735E+07
 0.28870001E+02  0.83400E+06
 0.28920000E+02  0.44761E+06
 0.28970001E+02  0.44497E+06
 0.29020000E+02  0.49421E+06
 0.29070000E+02  0.64494E+06
 0.29120003E+02  0.96147E+06
 0.29170002E+02  0.93591E+06
 0.29220001E+02  0.80751E+06
 0.29270000E+02  0.11417E+07
 0.29320000E+02  0.13794E+07
 0.29370003E+02  0.92441E+06
 0.29420002E+02  0.35881E+06
 0.29470001E+02  0.36628E+06
 0.29520000E+02  0.44772E+06
 0.29570000E+02  0.55778E+05
 0.29620003E+02 -0.44999E+06
 0.29670002E+02 -0.46254E+06
 0.29720001E+02 -0.13020E+06
 0.29770000E+02 -0.42207E+06
 0.29820000E+02 -0.89218E+06
 0.29870003E+02 -0.54233E+06
 0.29920002E+02 -0.26484E+06
 0.29970001E+02 -0.58359E+06
 0.30020000E+02 -0.98735E+06
 0.30070000E+02 -0.11132E+07
 0.30120003E+02 -0.83290E+06
 0.30170002E+02 -0.71161E+06
 0.30220001E+02 -0.11610E+07
 0.30270000E+02 -0.14638E+07
 0.30320000E+02 -0.15661E+07
 0.30370003E+02 -0.20810E+07
 0.30420002E+02 -0.23467E+07
 0.30470001E+02 -0.17401E+07
 0.30520000E+02 -0.11371E+07
 0.30570000E+02 -0.14099E+07
 0.30620003E+02 -0.15322E+07
 0.30670002E+02 -0.10004E+07
 0.30720001E+02 -0.72057E+06
 0.30770000E+02 -0.10457E+07
 0.30820000E+02 -0.17063E+07
 0.30870003E+02 -0.17831E+07
 0.30920002E+02 -0.10919E+07
 0.30970001E+02 -0.53516E+06
 0.31020000E+02 -0.73067E+06
 0.31070000E+02 -0.12609E+07
 0.31120003E+02 -0.12264E+07
 0.31170002E+02 -0.57066E+06
 0.31220001E+02  0.48101E+06
 0.31270000E+02  0.15855E+07
 0.31320000E+02  0.19643E+07
 0.31370003E+02  0.18820E+07
 0.31420002E+02  0.20573E+07
 0.31470001E+02  0.18880E+07
 0.31520000E+02  0.10530E+07
 0.31570000E+02  0.28915E+06
 0.31620003E+02 -0.17424E+06
 0.31670002E+02 -0.54322E+06
 0.31720001E+02 -0.80321E+06
 0.31770000E+02 -0.71123E+06
 0.31820000E+02 -0.36566E+06
 0.31870003E+02 -0.26172E+06
 0.31920002E+02 -0.71929E+06
 0.31970001E+02 -0.14724E+07
 0.32020000E+02 -0.13919E+07
 0.32070000E+02 -0.55204E+06
 0.32120003E+02 -0.46811E+06
 0.32170002E+02 -0.11320E+07
 0.32220001E+02 -0.14154E+07
 0.32270000E+02 -0.11890E+07
 0.32320000E+02 -0.11639E+07
 0.32370003E+02 -0.15360E+07
 0.32420002E+02 -0.18104E+07
 0.32470001E+02 -0.17157E+07
 0.32520000E+02 -0.14014E+07
 0.32570000E+02 -0.11745E+07
 0.32620003E+02 -0.87909E+06
 0.32670002E+02 -0.14814E+06
 0.32720001E+02  0.77624E+06
 0.32770000E+02  0.15957E+07
 0.32820000E+02  0.20319E+07
 0.32870003E+02  0.18616E+07
 0.32920002E+02  0.13841E+07
 0.32970001E+02  0.11922E+07
 0.33020000E+02  0.12675E+07
 0.33070000E+02  0.64752E+06
 0.33120003E+02 -0.36577E+06
 0.33170002E+02 -0.67734E+06
 0.33220001E+02 -0.75789E+06
 0.33270000E+02 -0.99500E+06
 0.33320000E+02 -0.14912E+07
 0.33370003E+02 -0.23203E+07
 0.33420002E+02 -0.24421E+07
 0.33470001E+02 -0.21479E+07
 0.33520000E+02 -0.26244E+07
 0.33570000E+02 -0.29487E+07
 0.33620003E+02 -0.24148E+07
 0.33670002E+02 -0.19412E+07
 0.33720001E+02 -0.17982E+07
 0.33770000E+02 -0.18590E+07
 0.33820000E+02 -0.21635E+07
 0.33870003E+02 -0.19425E+07
 0.33920002E+02 -0.93749E+06
 0.33970001E+02  0.92173E+05
 0.34020000E+02  0.96096E+06
 0.34070000E+02  0.17021E+07
 0.34120003E+02  0.19961E+07
 0.34170002E+02  0.18714E+07
 0.34220001E+02  0.17247E+07
 0.34270000E+02  0.18103E+07
 0.34320000E+02  0.21732E+07
 0.34370003E+02  0.25037E+07
 0.34420002E+02  0.24632E+07
 0.34470001E+02  0.21099E+07
 0.34520000E+02  0.17571E+07
 0.34570000E+02  0.13387E+07
 0.34620003E+02  0.49638E+06
 0.34670002E+02 -0.48179E+06
 0.34720001E+02 -0.96965E+06
 0.34770000E+02 -0.56375E+06
 0.34820000E+02  0.18312E+06
 0.34870003E+02  0.62619E+06
 0.34920002E+02  0.12071E+07
 0.34970001E+02  0.19950E+07
 0.35020000E+02  0.24759E+07
 0.35070000E+02  0.24271E+07
 0.35120003E+02  0.19259E+07
 0.35170002E+02  0.15567E+07
 0.35220001E+02  0.15903E+07
 0.35270000E+02  0.15440E+07
 0.35320000E+02  0.14640E+07
 0.35370003E+02  0.14176E+07
 0.35420002E+02  0.15642E+07
 0.35470001E+02  0.23028E+07
 0.35520000E+02  0.28960E+07
 0.35570000E+02  0.29620E+07
 0.35620003E+02  0.30740E+07
 0.35670002E+02  0.32965E+07
 0.35720001E+02  0.32896E+07
 0.35770000E+02  0.27363E+07
 0.35820000E+02  0.18507E+07
 0.35870003E+02  0.10908E+07
 0.35920002E+02  0.33910E+06
 0.35970001E+02 -0.21839E+06
 0.36020000E+02 -0.12177E+05
 0.36070000E+02  0.62269E+06
 0.36120003E+02  0.91701E+06
 0.36170002E+02  0.91587E+06
 0.36220001E+02  0.14116E+07
 0.36270000E+02  0.26673E+07
 0.36320000E+02  0.36758E+07
 0.36370003E+02  0.37528E+07
 0.36420002E+02  0.35241E+07
 0.36470001E+02  0.34000E+07
 0.36520000E+02  0.32707E+07
 0.36570000E+02  0.28443E+07
 0.36620003E+02  0.17829E+07
 0.36670002E+02  0.82622E+06
 0.36720001E+02  0.63728E+06
 0.36770000E+02  0.78067E+06
 0.36820000E+02  0.11873E+07
 0.36870003E+02  0.21277E+07
 0.36920002E+02  0.37004E+07
 0.36970001E+02  0.54337E+07
 0.37020000E+02  0.61651E+07
 0.37070000E+02  0.55020E+07
 0.37120003E+02  0.39974E+07
 0.37170002E+02  0.22267E+07
 0.37220001E+02  0.51985E+06
 0.37270000E+02 -0.11659E+07
 0.37320000E+02 -0.28729E+07
 0.37370003E+02 -0.42028E+07
 0.37420002E+02 -0.46456E+07
 0.37470001E+02 -0.43685E+07
 0.37520000E+02 -0.40877E+07
 0.37570000E+02 -0.39156E+07
 0.37620003E+02 -0.32156E+07
 0.37670002E+02 -0.21194E+07
 0.37720001E+02 -0.15688E+07
 0.37770000E+02 -0.13663E+07
 0.37820000E+02 -0.11226E+07
 0.37870003E+02 -0.11943E+07
 0.37920002E+02 -0.12893E+07
 0.37970001E+02 -0.14311E+07
 0.38020000E+02 -0.23032E+07
 0.38070000E+02 -0.35751E+07
 0.38120003E+02 -0.46464E+07
 0.38170002E+02 -0.56483E+07
 0.38220001E+02 -0.64983E+07
 0.38270000E+02 -0.69757E+07
 0.38320000E+02 -0.66471E+07
 0.38370003E+02 -0.46086E+07
 0.38420002E+02 -0.92867E+06
 0.38470001E+02  0.32383E+07
 0.38520000E+02  0.69483E+07
 0.38570000E+02  0.94151E+07
 0.38620003E+02  0.97314E+07
 0.38670002E+02  0.80595E+07
 0.38720001E+02  0.52007E+07
 0.38770000E+02  0.11167E+07
 0.38820000E+02 -0.35387E+07
 0.38870003E+02 -0.71943E+07
 0.38920002E+02 -0.93675E+07
 0.38970001E+02 -0.99849E+07
 0.39020000E+02 -0.85141E+07
 0.39070000E+02 -0.53306E+07
 0.39120003E+02 -0.19852E+07
 0.39170002E+02  0.10686E+07
 0.39220001E+02  0.53205E+07
 0.39270000E+02  0.11199E+08
 0.39320000E+02  0.16582E+08
 0.39370003E+02  0.19320E+08
 0.39420002E+02  0.19102E+08
 0.39470001E+02  0.17257E+08
 0.39520000E+02  0.15504E+08
 0.39570000E+02  0.13998E+08
 0.39620003E+02  0.11287E+08
 0.39670002E+02  0.70525E+07
 0.39720001E+02  0.26632E+07
 0.39770000E+02 -0.13246E+07
 0.39820000E+02 -0.49758E+07
 0.39870003E+02 -0.79604E+07
 0.39920002E+02 -0.10334E+08
 0.39970001E+02 -0.11679E+08
 0.40020000E+02 -0.11988E+08
 0.40070000E+02 -0.12217E+08
 0.40120003E+02 -0.11644E+08
 0.40170002E+02 -0.96020E+07
 0.40220001E+02 -0.71059E+07
 0.40270000E+02 -0.49926E+07
 0.40320000E+02 -0.32029E+07
 0.40370003E+02 -0.18245E+07
 0.40420002E+02 -0.19357E+07
 0.40470001E+02 -0.31464E+07
 0.40520000E+02 -0.36050E+07
 0.40570000E+02 -0.33689E+07
 0.40620003E+02 -0.40701E+07
 0.40670002E+02 -0.60020E+07
 0.40720001E+02 -0.74153E+07
 0.40770000E+02 -0.68896E+07
 0.40820000E+02 -0.47263E+07
 0.40870003E+02 -0.21874E+07
 0.40920002E+02 -0.20272E+06
 0.40970001E+02  0.79541E+06
 0.41020000E+02 -0.11964E+06
 0.41070000E+02 -0.26340E+07
 0.41120003E+02 -0.48985E+07
 0.41170002E+02 -0.66037E+07
 0.41220001E+02 -0.78526E+07
 0.41270000E+02 -0.72044E+07
 0.41320000E+02 -0.45648E+07
 0.41370003E+02 -0.19536E+07
 0.41420002E+02 -0.64586E+05
 0.41470001E+02  0.15369E+07
 0.41520000E+02  0.22695E+07
 0.41570000E+02  0.15973E+07
 0.41620003E+02  0.16581E+06
 0.41670002E+02 -0.14729E+07
 0.41720001E+02 -0.32678E+07
 0.41770000E+02 -0.45920E+07
 0.41820000E+02 -0.50633E+07
 0.41870003E+02 -0.54039E+07
 0.41920002E+02 -0.58722E+07
 0.41970001E+02 -0.51889E+07
 0.42020000E+02 -0.27072E+07
 0.42070000E+02  0.49167E+06
 0.42120003E+02  0.29297E+07
 0.42170002E+02  0.43513E+07
 0.42220001E+02  0.60347E+07
 0.42270000E+02  0.74755E+07
 0.42320000E+02  0.71612E+07
 0.42370003E+02  0.59313E+07
 0.42420002E+02  0.50826E+07
 0.42470001E+02  0.47838E+07
 0.42520000E+02  0.45213E+07
 0.42570000E+02  0.45236E+07
 0.42620003E+02  0.51895E+07
 0.42670002E+02  0.50260E+07
 0.42720001E+02  0.40181E+07
 0.42770000E+02  0.39108E+07
 0.42820000E+02  0.42827E+07
 0.42870003E+02  0.40914E+07
 0.42920002E+02  0.27792E+07
 0.42970001E+02  0.56921E+06
 0.43020000E+02 -0.10367E+07
 0.43070000E+02 -0.16387E+07
 0.43120003E+02 -0.20638E+07
 0.43170002E+02 -0.29407E+07
 0.43220001E+02 -0.41789E+07
 0.43270000E+02 -0.49195E+07
 0.43320000E+02 -0.47056E+07
 0.43370003E+02 -0.42958E+07
 0.43420002E+02 -0.44514E+07
 0.43470001E+02 -0.49339E+07
 0.43520000E+02 -0.58742E+07
 0.43570000E+02 -0.74329E+07
 0.43620003E+02 -0.83382E+07
 0.43670002E+02 -0.79915E+07
 0.43720001E+02 -0.71140E+07
 0.43770000E+02 -0.65180E+07
 0.43820000E+02 -0.68198E+07
 0.43870003E+02 -0.72413E+07
 0.43920002E+02 -0.73469E+07
 0.43970001E+02 -0.74986E+07
 0.44020000E+02 -0.65410E+07
 0.44070000E+02 -0.42368E+07
 0.44120003E+02 -0.22988E+07
 0.44170002E+02 -0.15606E+07
 0.44220001E+02 -0.14735E+07
 0.44270000E+02 -0.14892E+07
 0.44320000E+02 -0.20465E+07
 0.44370003E+02 -0.30988E+07
 0.44420002E+02 -0.36858E+07
 0.44470001E+02 -0.41262E+07
 0.44520000E+02 -0.46264E+07
 0.44570000E+02 -0.40330E+07
 0.44620003E+02 -0.21996E+07
 0.44670002E+02 -0.15549E+06
 0.44720001E+02  0.16908E+07
 0.44770000E+02  0.31290E+07
 0.44820000E+02  0.32489E+07
 0.44870003E+02  0.23765E+07
 0.44920002E+02  0.20671E+07
 0.44970001E+02  0.21123E+07
 0.45020000E+02  0.14298E+07
 0.45070000E+02  0.63992E+06
 0.45120003E+02  0.54289E+06
 0.45170002E+02  0.48397E+06
 0.45220001E+02 -0.62403E+05
 0.45270000E+02 -0.61143E+06
 0.45320000E+02 -0.54430E+06
 0.45370003E+02 -0.17148E+06
 0.45420002E+02 -0.39408E+06
 0.45470001E+02 -0.10776E+07
 0.45520000E+02 -0.16527E+07
 0.45570000E+02 -0.23478E+07
 0.45620003E+02 -0.30544E+07
 0.45670002E+02 -0.30235E+07
 0.45720001E+02 -0.17951E+07
 0.45770000E+02  0.27274E+06
 0.45820000E+02  0.25697E+07
 0.45870003E+02  0.50615E+07
 0.45920002E+02  0.73034E+07
 0.45970001E+02  0.90327E+07
 0.46020000E+02  0.10023E+08
 0.46070000E+02  0.92710E+07
 0.46120003E+02  0.75943E+07
 0.46170002E+02  0.65021E+07
 0.46220001E+02  0.56761E+07
 0.46270000E+02  0.47034E+07
 0.46320000E+02  0.38807E+07
 0.46370003E+02  0.33721E+07
 0.46420002E+02  0.30804E+07
 0.46470001E+02  0.27236E+07
 0.46520000E+02  0.22856E+07
 0.46570000E+02  0.21427E+07
 0.46620003E+02  0.17892E+07
 0.46670002E+02  0.64600E+06
 0.46720001E+02 -0.36742E+06
 0.46770000E+02  0.28778E+05
 0.46820000E+02  0.23837E+07
 0.46870003E+02  0.58148E+07
 0.46920002E+02  0.80651E+07
 0.46970001E+02  0.79146E+07
 0.47020000E+02  0.65088E+07
 0.47070000E+02  0.52610E+07
 0.47120003E+02  0.40417E+07
 0.47170002E+02  0.19346E+07
 0.47220001E+02 -0.59170E+06
 0.47270000E+02 -0.19807E+07
 0.47320000E+02 -0.21743E+07
 0.47370003E+02 -0.12700E+07
 0.47420002E+02  0.12183E+07
 0.47470001E+02  0.42245E+07
 0.47520000E+02  0.65955E+07
 0.47570000E+02  0.80033E+07
 0.47620003E+02  0.80277E+07
 0.47670002E+02  0.67820E+07
 0.47720001E+02  0.46558E+07
 0.47770000E+02  0.20635E+07
 0.47820000E+02 -0.42127E+06
 0.47870003E+02 -0.24575E+07
 0.47920002E+02 -0.37857E+07
 0.47970001E+02 -0.40207E+07
 0.48020000E+02 -0.27442E+07
 0.48070000E+02 -0.14108E+06
 0.48120003E+02  0.29696E+07
 0.48170002E+02  0.55517E+07
 0.48220001E+02  0.63840E+07
 0.48270000E+02  0.51741E+07
 0.48320000E+02  0.31465E+07
 0.48370003E+02  0.14451E+07
 0.48420002E+02  0.37541E+06
 0.48470001E+02  0.43685E+06
 0.48520000E+02  0.12937E+07
 0.48570000E+02  0.13813E+07
 0.48620003E+02  0.32131E+06
 0.48670002E+02 -0.75659E+06
 0.48720001E+02 -0.92812E+06
 0.48770000E+02 -0.45430E+06
 0.48820000E+02  0.22261E+06
 0.48870003E+02  0.13409E+07
 0.48920002E+02  0.29840E+07
 0.48970001E+02  0.48626E+07
 0.49020000E+02  0.67307E+07
 0.49070000E+02  0.81685E+07
 0.49120003E+02  0.84429E+07
 0.49170002E+02  0.70235E+07
 0.49220001E+02  0.42522E+07
 0.49270000E+02  0.13642E+07
 0.49320000E+02 -0.93326E+06
 0.49370003E+02 -0.30196E+07
 0.49420002E+02 -0.51901E+07
 0.49470001E+02 -0.71059E+07
 0.49520000E+02 -0.81339E+07
 0.49570000E+02 -0.81014E+07
 0.49620003E+02 -0.74268E+07
 0.49670002E+02 -0.64598E+07
 0.49720001E+02 -0.52917E+07
 0.49770000E+02 -0.41714E+07
 0.49820000E+02 -0.34234E+07
 0.49870003E+02 -0.28155E+07
 0.49920002E+02 -0.17971E+07
 0.49970001E+02 -0.41249E+06
 0.50020000E+02  0.93116E+06
 0.50070000E+02  0.23553E+07
 0.50120003E+02  0.37053E+07
 0.50170002E+02  0.46345E+07
 0.50220001E+02  0.52929E+07
 0.50270000E+02  0.54511E+07
 0.50320000E+02  0.49490E+07
 0.50370003E+02  0.38740E+07
 0.50420002E+02  0.25544E+07
 0.50470001E+02  0.16023E+07
 0.50520000E+02  0.64249E+06
 0.50570000E+02 -0.95176E+06
 0.50620003E+02 -0.23794E+07
 0.50670002E+02 -0.24735E+07
 0.50720001E+02 -0.16233E+07
 0.50770000E+02 -0.10903E+07
 0.50820000E+02 -0.11248E+07
 0.50870003E+02 -0.13005E+07
 0.50920002E+02 -0.16814E+07
 0.50970001E+02 -0.21673E+07
 0.51020000E+02 -0.23660E+07
 0.51070000E+02 -0.24738E+07
 0.51120003E+02 -0.27924E+07
 0.51170002E+02 -0.30203E+07
 0.51220001E+02 -0.29878E+07
 0.51270000E+02 -0.28418E+07
 0.51320000E+02 -0.24069E+07
 0.51370003E+02 -0.18846E+07
 0.51420002E+02 -0.18401E+07
 0.51470001E+02 -0.24371E+07
 0.51520000E+02 -0.35575E+07
 0.51570000E+02 -0.52610E+07
 0.51620003E+02 -0.75350E+07
 0.51670002E+02 -0.95128E+07
 0.51720001E+02 -0.10666E+08
 0.51770000E+02 -0.11480E+08
 0.51820000E+02 -0.11936E+08
 0.51870003E+02 -0.11678E+08
 0.51920002E+02 -0.10878E+08
 0.51970001E+02 -0.97695E+07
 0.52020000E+02 -0.86377E+07
 0.52070000E+02 -0.77091E+07
 0.52120003E+02 -0.70188E+07
 0.52170002E+02 -0.67934E+07
 0.52220001E+02 -0.67501E+07
 0.52270000E+02 -0.58825E+07
 0.52320000E+02 -0.39363E+07
 0.52370003E+02 -0.14787E+07
 0.52420002E+02  0.11171E+07
 0.52470001E+02  0.28109E+07
 0.52520000E+02  0.28071E+07
 0.52570000E+02  0.21030E+07
 0.52620003E+02  0.13680E+07
 0.52670002E+02  0.47148E+06
 0.52720001E+02  0.12062E+06
 0.52770000E+02  0.91018E+06
 0.52820000E+02  0.21099E+07
 0.52870003E+02  0.30357E+07
 0.52920002E+02  0.38802E+07
 0.52970001E+02  0.46319E+07
 0.53020000E+02  0.47668E+07
 0.53070000E+02  0.38925E+07
 0.53120003E+02  0.24794E+07
 0.53170002E+02  0.17318E+07
 0.53220001E+02  0.23921E+07
 0.53270000E+02  0.41136E+07
 0.53320000E+02  0.59166E+07
 0.53370003E+02  0.69666E+07
 0.53420002E+02  0.70315E+07
 0.53470001E+02  0.65166E+07
 0.53520000E+02  0.60508E+07
 0.53570000E+02  0.58330E+07
 0.53620003E+02  0.56025E+07
 0.53670002E+02  0.52584E+07
 0.53720001E+02  0.49861E+07
 0.53770000E+02  0.47085E+07
 0.53820000E+02  0.40345E+07
 0.53870003E+02  0.28782E+07
 0.53920002E+02  0.16339E+07
 0.53970001E+02  0.79616E+06
 0.54020000E+02  0.39330E+06
 0.54070000E+02  0.22098E+06
 0.54120003E+02  0.39560E+06
 0.54170002E+02  0.10327E+07
 0.54220001E+02  0.18888E+07
 0.54270000E+02  0.22424E+07
 0.54320000E+02  0.17530E+07
 0.54370003E+02  0.78215E+06
 0.54420002E+02 -0.29107E+06
 0.54470001E+02 -0.94663E+06
 0.54520000E+02 -0.90609E+06
 0.54570000E+02 -0.28664E+06
 0.54620003E+02  0.82966E+06
 0.54670002E+02  0.23082E+07
 0.54720001E+02  0.40456E+07
 0.54770000E+02  0.57902E+07
 0.54820000E+02  0.69104E+07
 0.54870003E+02  0.68495E+07
 0.54920002E+02  0.56045E+07
 0.54970001E+02  0.35945E+07
 0.55020000E+02  0.10988E+07
 0.55070000E+02 -0.15861E+07
 0.55120003E+02 -0.37345E+07
 0.55170002E+02 -0.47120E+07
 0.55220001E+02 -0.45516E+07
 0.55270000E+02 -0.36658E+07
 0.55320000E+02 -0.23836E+07
 0.55370003E+02 -0.10561E+07
 0.55420002E+02  0.17410E+06
 0.55470001E+02  0.14849E+07
 0.55520000E+02  0.26456E+07
 0.55570000E+02  0.32536E+07
 0.55620003E+02  0.33198E+07
 0.55670002E+02  0.28703E+07
 0.55720001E+02  0.21218E+07
 0.55770000E+02  0.14913E+07
 0.55820000E+02  0.95206E+06
 0.55870003E+02  0.19325E+06
 0.55920002E+02 -0.87242E+06
 0.55970001E+02 -0.20442E+07
 0.56020000E+02 -0.29723E+07
 0.56070000E+02 -0.32591E+07
 0.56120003E+02 -0.27277E+07
 0.56170002E+02 -0.15797E+07
 0.56220001E+02 -0.57012E+06
 0.56270000E+02 -0.41814E+06
 0.56320000E+02 -0.10305E+07
 0.56370003E+02 -0.22743E+07
 0.56420002E+02 -0.42813E+07
 0.56470001E+02 -0.67242E+07
 0.56520000E+02 -0.90858E+07
 0.56570000E+02 -0.11046E+08
 0.56620003E+02 -0.11957E+08
 0.56670002E+02 -0.11119E+08
 0.56720001E+02 -0.87000E+07
 0.56770000E+02 -0.53776E+07
 0.56820000E+02 -0.17459E+07
 0.56870003E+02  0.13903E+07
 0.56920002E+02  0.35031E+07
 0.56970001E+02  0.48154E+07
 0.57020000E+02  0.55839E+07
 0.57070000E+02  0.59035E+07
 0.57120003E+02  0.58246E+07
 0.57170002E+02  0.52250E+07
 0.57220001E+02  0.39563E+07
 0.57270000E+02  0.23727E+07
 0.57320000E+02  0.10701E+07
 0.57370003E+02  0.36070E+05
 0.57420002E+02 -0.10821E+07
 0.57470001E+02 -0.23731E+07
 0.57520000E+02 -0.34682E+07
 0.57570000E+02 -0.38642E+07
 0.57620003E+02 -0.34382E+07
 0.57670002E+02 -0.24930E+07
 0.57720001E+02 -0.11373E+07
 0.57770000E+02  0.71002E+06
 0.57820000E+02  0.24974E+07
 0.57870003E+02  0.36186E+07
 0.57920002E+02  0.39849E+07
 0.57970001E+02  0.36093E+07
 0.58020000E+02  0.25577E+07
 0.58070000E+02  0.11349E+07
 0.58120003E+02 -0.11160E+06
 0.58170002E+02 -0.73570E+06
 0.58220001E+02 -0.76364E+06
 0.58270000E+02 -0.56869E+06
 0.58320000E+02 -0.19934E+06
 0.58370003E+02  0.31064E+06
 0.58420002E+02  0.53937E+06
 0.58470001E+02  0.53882E+06
 0.58520000E+02  0.57867E+06
 0.58570000E+02  0.52178E+06
 0.58620003E+02  0.22489E+06
 0.58670002E+02 -0.28002E+06
 0.58720001E+02 -0.88261E+06
 0.58770000E+02 -0.14808E+07
 0.58820000E+02 -0.19165E+07
 0.58870003E+02 -0.21348E+07
 0.58920002E+02 -0.23298E+07
 0.58970001E+02 -0.25745E+07
 0.59020000E+02 -0.27760E+07
 0.59070000E+02 -0.28551E+07
 0.59120003E+02 -0.28793E+07
 0.59170002E+02 -0.31418E+07
 0.59220001E+02 -0.37387E+07
 0.59270000E+02 -0.44030E+07
 0.59320000E+02 -0.48478E+07
 0.59370003E+02 -0.51062E+07
 0.59420002E+02 -0.54389E+07
 0.59470001E+02 -0.58283E+07
 0.59520000E+02 -0.59201E+07
 0.59570000E+02 -0.55254E+07
 0.59620003E+02 -0.47179E+07
 0.59670002E+02 -0.34798E+07
 0.59720001E+02 -0.19468E+07
 0.59770000E+02 -0.28860E+06
 0.59820000E+02  0.14180E+07
 0.59870003E+02  0.28497E+07
 0.59920002E+02  0.38806E+07
 0.59970001E+02  0.44277E+07
 0.60020000E+02  0.43867E+07
 0.60070000E+02  0.40557E+07
 0.60120003E+02  0.36834E+07
 0.60170002E+02  0.32498E+07
 0.60220001E+02  0.28292E+07
 0.60270000E+02  0.26625E+07
 0.60320000E+02  0.29366E+07
 0.60370003E+02  0.38163E+07
 0.60420002E+02  0.50351E+07
 0.60470001E+02  0.58861E+07
 0.60520000E+02  0.59918E+07
 0.60570000E+02  0.53583E+07
 0.60620003E+02  0.44956E+07
 0.60670002E+02  0.41269E+07
 0.60720001E+02  0.44175E+07
 0.60770000E+02  0.51481E+07
 0.60820000E+02  0.59103E+07
 0.60870003E+02  0.63262E+07
 0.60920002E+02  0.65095E+07
 0.60970001E+02  0.65646E+07
 0.61020000E+02  0.63174E+07
 0.61070004E+02  0.57202E+07
 0.61119999E+02  0.46053E+07
 0.61170002E+02  0.29324E+07
 0.61220005E+02  0.12048E+07
 0.61270000E+02 -0.27623E+06
 0.61320004E+02 -0.17580E+07
 0.61369999E+02 -0.32493E+07
 0.61420002E+02 -0.43183E+07
 0.61470005E+02 -0.47286E+07
 0.61520000E+02 -0.44790E+07
 0.61570004E+02 -0.36860E+07
 0.61619999E+02 -0.24883E+07
 0.61670002E+02 -0.86526E+06
 0.61720005E+02  0.10550E+07
 0.61770000E+02  0.28251E+07
 0.61820004E+02  0.39350E+07
 0.61869999E+02  0.41923E+07
 0.61920002E+02  0.37000E+07
 0.61970005E+02  0.25941E+07
 0.62020000E+02  0.11690E+07
 0.62070004E+02 -0.86088E+05
 0.62119999E+02 -0.97404E+06
 0.62170002E+02 -0.17134E+07
 0.62220005E+02 -0.21730E+07
 0.62270000E+02 -0.19371E+07
 0.62320004E+02 -0.11035E+07
 0.62369999E+02 -0.10631E+06
 0.62420002E+02  0.73842E+06
 0.62470005E+02  0.12406E+07
 0.62520000E+02  0.13188E+07
 0.62570004E+02  0.10278E+07
 0.62619999E+02  0.40606E+06
 0.62670002E+02 -0.57756E+06
 0.62720005E+02 -0.18562E+07
 0.62770000E+02 -0.32562E+07
 0.62820004E+02 -0.44349E+07
 0.62869999E+02 -0.51495E+07
 0.62920002E+02 -0.56194E+07
 0.62970005E+02 -0.60465E+07
 0.63020000E+02 -0.64398E+07
 0.63070004E+02 -0.68115E+07
 0.63119999E+02 -0.69963E+07
 0.63170002E+02 -0.67146E+07
 0.63220005E+02 -0.59635E+07
 0.63270000E+02 -0.50372E+07
 0.63320004E+02 -0.41479E+07
 0.63369999E+02 -0.35701E+07
 0.63420002E+02 -0.36150E+07
 0.63470005E+02 -0.40662E+07
 0.63520000E+02 -0.43112E+07
 0.63570004E+02 -0.40351E+07
 0.63619999E+02 -0.35070E+07
 0.63670002E+02 -0.29718E+07
 0.63720005E+02 -0.21468E+07
 0.63770000E+02 -0.78949E+06
 0.63820004E+02  0.82219E+06
 0.63869999E+02  0.23726E+07
 0.63920002E+02  0.37620E+07
 0.63970005E+02  0.47605E+07
 0.64019997E+02  0.52206E+07
 0.64070000E+02  0.54646E+07
 0.64119995E+02  0.58671E+07
 0.64169998E+02  0.63625E+07
 0.64220001E+02  0.66732E+07
 0.64269997E+02  0.65936E+07
 0.64320000E+02  0.60084E+07
 0.64369995E+02  0.49776E+07
 0.64419998E+02  0.36494E+07
 0.64470001E+02  0.19820E+07
 0.64519997E+02 -0.12650E+05
 0.64570000E+02 -0.20122E+07
 0.64619995E+02 -0.37943E+07
 0.64669998E+02 -0.52619E+07
 0.64720001E+02 -0.62972E+07
 0.64769997E+02 -0.68946E+07
 0.64820000E+02 -0.70666E+07
 0.64869995E+02 -0.67402E+07
 0.64919998E+02 -0.58372E+07
 0.64970001E+02 -0.45395E+07
 0.65019997E+02 -0.31756E+07
 0.65070000E+02 -0.17708E+07
 0.65119995E+02 -0.21455E+06
 0.65169998E+02  0.12697E+07
 0.65220001E+02  0.22607E+07
 0.65269997E+02  0.26436E+07
 0.65320000E+02  0.26336E+07
 0.65369995E+02  0.24539E+07
 0.65419998E+02  0.21663E+07
 0.65470001E+02  0.17489E+07
 0.65519997E+02  0.11881E+07
 0.65570000E+02  0.44348E+06
 0.65619995E+02 -0.47365E+06
 0.65669998E+02 -0.13989E+07
 0.65720001E+02 -0.21160E+07
 0.65769997E+02 -0.25620E+07
 0.65820000E+02 -0.27604E+07
 0.65869995E+02 -0.27747E+07
 0.65919998E+02 -0.26110E+07
 0.65970001E+02 -0.21191E+07
 0.66019997E+02 -0.12566E+07
 0.66070000E+02 -0.52401E+05
 0.66119995E+02  0.13494E+07
 0.66169998E+02  0.26543E+07
 0.66220001E+02  0.37434E+07
 0.66269997E+02  0.46112E+07
 0.66320000E+02  0.51528E+07
 0.66369995E+02  0.52326E+07
 0.66419998E+02  0.49846E+07
 0.66470001E+02  0.47855E+07
 0.66519997E+02  0.47741E+07
 0.66570000E+02  0.47792E+07
 0.66619995E+02  0.46401E+07
 0.66669998E+02  0.43529E+07
 0.66720001E+02  0.40347E+07
 0.66769997E+02  0.37360E+07
 0.66820000E+02  0.33158E+07
 0.66869995E+02  0.26729E+07
 0.66919998E+02  0.19106E+07
 0.66970001E+02  0.12726E+07
 0.67019997E+02  0.95101E+06
 0.67070000E+02  0.78877E+06
 0.67119995E+02  0.67198E+06
 0.67169998E+02  0.78460E+06
 0.67220001E+02  0.97138E+06
 0.67269997E+02  0.88262E+06
 0.67320000E+02  0.57016E+06
 0.67369995E+02  0.34356E+06
 0.67419998E+02  0.39632E+06
 0.67470001E+02  0.70097E+06
 0.67519997E+02  0.11519E+07
 0.67570000E+02  0.17126E+07
 0.67619995E+02  0.23254E+07
 0.67669998E+02  0.27740E+07
 0.67720001E+02  0.28551E+07
 0.67769997E+02  0.24301E+07
 0.67820000E+02  0.14470E+07
 0.67869995E+02  0.72930E+04
 0.67919998E+02 -0.17164E+07
 0.67970001E+02 -0.34784E+07
 0.68019997E+02 -0.50404E+07
 0.68070000E+02 -0.61817E+07
 0.68119995E+02 -0.67426E+07
 0.68169998E+02 -0.68405E+07
 0.68220001E+02 -0.67397E+07
 0.68269997E+02 -0.65344E+07
 0.68320000E+02 -0.62305E+07
 0.68369995E+02 -0.58118E+07
 0.68419998E+02 -0.51859E+07
 0.68470001E+02 -0.43209E+07
 0.68519997E+02 -0.34061E+07
 0.68570000E+02 -0.28345E+07
 0.68619995E+02 -0.26921E+07
 0.68669998E+02 -0.25995E+07
 0.68720001E+02 -0.22482E+07
 0.68769997E+02 -0.16022E+07
 0.68820000E+02 -0.83176E+06
 0.68869995E+02 -0.14014E+06
 0.68919998E+02  0.48370E+06
 0.68970001E+02  0.11180E+07
 0.69019997E+02  0.17350E+07
 0.69070000E+02  0.22788E+07
 0.69119995E+02  0.26382E+07
 0.69169998E+02  0.26774E+07
 0.69220001E+02  0.24495E+07
 0.69269997E+02  0.21504E+07
 0.69320000E+02  0.18618E+07
 0.69369995E+02  0.16558E+07
 0.69419998E+02  0.16944E+07
 0.69470001E+02  0.19334E+07
 0.69519997E+02  0.21704E+07
 0.69570000E+02  0.22945E+07
 0.69619995E+02  0.21957E+07
 0.69669998E+02  0.17782E+07
 0.69720001E+02  0.11229E+07
 0.69769997E+02  0.41973E+06
 0.69820000E+02 -0.33158E+06
 0.69869995E+02 -0.12891E+07
 0.69919998E+02 -0.24271E+07
 0.69970001E+02 -0.34496E+07
 0.70019997E+02 -0.40543E+07
 0.70070000E+02 -0.42738E+07
 0.70119995E+02 -0.42770E+07
 0.70169998E+02 -0.40311E+07
 0.70220001E+02 -0.34854E+07
 0.70269997E+02 -0.27432E+07
 0.70320000E+02 -0.18517E+07
 0.70369995E+02 -0.82226E+06
 0.70419998E+02  0.18470E+06
 0.70470001E+02  0.10856E+07
 0.70519997E+02  0.18932E+07
 0.70570000E+02  0.25233E+07
 0.70619995E+02  0.29332E+07
 0.70669998E+02  0.31381E+07
 0.70720001E+02  0.30887E+07
 0.70769997E+02  0.27424E+07
 0.70820000E+02  0.21232E+07
 0.70869995E+02  0.13444E+07
 0.70919998E+02  0.62622E+06
 0.70970001E+02  0.16821E+06
 0.71019997E+02  0.70529E+05
 0.71070000E+02  0.34989E+06
 0.71119995E+02  0.89044E+06
 0.71169998E+02  0.15155E+07
 0.71220001E+02  0.20796E+07
 0.71269997E+02  0.25567E+07
 0.71320000E+02  0.29927E+07
 0.71369995E+02  0.32525E+07
 0.71419998E+02  0.31234E+07
 0.71470001E+02  0.26130E+07
 0.71519997E+02  0.19269E+07
 0.71570000E+02  0.12463E+07
 0.71619995E+02  0.69846E+06
 0.71669998E+02  0.36646E+06
 0.71720001E+02  0.21744E+06
 0.71769997E+02  0.25990E+06
 0.71820000E+02  0.63904E+06
 0.71869995E+02  0.13674E+07
 0.71919998E+02  0.21878E+07
 0.71970001E+02  0.28276E+07
 0.72019997E+02  0.32260E+07
 0.72070000E+02  0.34140E+07
 0.72119995E+02  0.33856E+07
 0.72169998E+02  0.31881E+07
 0.72220001E+02  0.28636E+07
 0.72269997E+02  0.23985E+07
 0.72320000E+02  0.18047E+07
 0.72369995E+02  0.11385E+07
 0.72419998E+02  0.44085E+06
 0.72470001E+02 -0.28954E+06
 0.72519997E+02 -0.10433E+07
 0.72570000E+02 -0.18594E+07
 0.72619995E+02 -0.28012E+07
 0.72669998E+02 -0.39308E+07
 0.72720001E+02 -0.52162E+07
 0.72769997E+02 -0.64665E+07
 0.72820000E+02 -0.75417E+07
 0.72869995E+02 -0.82996E+07
 0.72919998E+02 -0.85409E+07
 0.72970001E+02 -0.81810E+07
 0.73019997E+02 -0.73252E+07
 0.73070000E+02 -0.61786E+07
 0.73119995E+02 -0.48245E+07
 0.73169998E+02 -0.32534E+07
 0.73220001E+02 -0.16186E+07
 0.73269997E+02 -0.27164E+06
 0.73320000E+02  0.60278E+06
 0.73369995E+02  0.11608E+07
 0.73419998E+02  0.15363E+07
 0.73470001E+02  0.17683E+07
 0.73519997E+02  0.19588E+07
 0.73570000E+02  0.20848E+07
 0.73619995E+02  0.19636E+07
 0.73669998E+02  0.16278E+07
 0.73720001E+02  0.13664E+07
 0.73769997E+02  0.13330E+07
 0.73820000E+02  0.14823E+07
 0.73869995E+02  0.16774E+07
 0.73919998E+02  0.17823E+07
 0.73970001E+02  0.18754E+07
 0.74019997E+02  0.21006E+07
 0.74070000E+02  0.23705E+07
 0.74119995E+02  0.25052E+07
 0.74169998E+02  0.24253E+07
 0.74220001E+02  0.20885E+07
 0.74269997E+02  0.15328E+07
 0.74320000E+02  0.98290E+06
 0.74369995E+02  0.58638E+06
 0.74419998E+02  0.29613E+06
 0.74470001E+02  0.18492E+06
 0.74519997E+02  0.34732E+06
 0.74570000E+02  0.64397E+06
 0.74619995E+02  0.94208E+06
 0.74669998E+02  0.12272E+07
 0.74720001E+02  0.14172E+07
 0.74769997E+02  0.13815E+07
 0.74820000E+02  0.10787E+07
 0.74869995E+02  0.56079E+06
 0.74919998E+02 -0.93336E+05
 0.74970001E+02 -0.81657E+06
 0.75019997E+02 -0.15603E+07
 0.75070000E+02 -0.22771E+07
 0.75119995E+02 -0.29566E+07
 0.75169998E+02 -0.35771E+07
 0.75220001E+02 -0.39995E+07
 0.75269997E+02 -0.40261E+07
 0.75320000E+02 -0.35039E+07
 0.75369995E+02 -0.24737E+07
 0.75419998E+02 -0.11832E+07
 0.75470001E+02  0.11519E+06
 0.75519997E+02  0.12985E+07
 0.75570000E+02  0.23620E+07
 0.75619995E+02  0.32212E+07
 0.75669998E+02  0.37090E+07
 0.75720001E+02  0.37621E+07
 0.75769997E+02  0.34330E+07
 0.75820000E+02  0.29141E+07
 0.75869995E+02  0.24700E+07
 0.75919998E+02  0.22277E+07
 0.75970001E+02  0.21041E+07
 0.76019997E+02  0.19056E+07
 0.76070000E+02  0.14971E+07
 0.76119995E+02  0.84828E+06
 0.76169998E+02  0.14751E+05
 0.76220001E+02 -0.88450E+06
 0.76269997E+02 -0.17155E+07
 0.76320000E+02 -0.23296E+07
 0.76369995E+02 -0.26477E+07
 0.76419998E+02 -0.27339E+07
 0.76470001E+02 -0.27368E+07
 0.76519997E+02 -0.27230E+07
 0.76570000E+02 -0.26792E+07
 0.76619995E+02 -0.26304E+07
 0.76669998E+02 -0.25524E+07
 0.76720001E+02 -0.24331E+07
 0.76769997E+02 -0.23311E+07
 0.76820000E+02 -0.22470E+07
 0.76869995E+02 -0.21517E+07
 0.76919998E+02 -0.20623E+07
 0.76970001E+02 -0.19925E+07
 0.77019997E+02 -0.19069E+07
 0.77070000E+02 -0.17113E+07
 0.77119995E+02 -0.13350E+07
 0.77169998E+02 -0.83322E+06
 0.77220001E+02 -0.25981E+06
 0.77269997E+02  0.40841E+06
 0.77320000E+02  0.11455E+07
 0.77369995E+02  0.18332E+07
 0.77419998E+02  0.23538E+07
 0.77470001E+02  0.26573E+07
 0.77519997E+02  0.27209E+07
 0.77570000E+02  0.25317E+07
 0.77619995E+02  0.21260E+07
 0.77669998E+02  0.15838E+07
 0.77720001E+02  0.10067E+07
 0.77769997E+02  0.55549E+06
 0.77820000E+02  0.30840E+06
 0.77869995E+02  0.15839E+06
 0.77919998E+02  0.51580E+05
 0.77970001E+02  0.55515E+05
 0.78019997E+02  0.25107E+06
 0.78070000E+02  0.62121E+06
 0.78119995E+02  0.10228E+07
 0.78169998E+02  0.13239E+07
 0.78220001E+02  0.14898E+07
 0.78269997E+02  0.15646E+07
 0.78320000E+02  0.15625E+07
 0.78369995E+02  0.14158E+07
 0.78419998E+02  0.10706E+07
 0.78470001E+02  0.65821E+06
 0.78519997E+02  0.38958E+06
 0.78570000E+02  0.26341E+06
 0.78619995E+02  0.12690E+06
 0.78669998E+02 -0.10561E+06
 0.78720001E+02 -0.40440E+06
 0.78769997E+02 -0.74026E+06
 0.78820000E+02 -0.11492E+07
 0.78869995E+02 -0.16741E+07
 0.78919998E+02 -0.22421E+07
 0.78970001E+02 -0.26416E+07
 0.79019997E+02 -0.27162E+07
 0.79070000E+02 -0.24094E+07
 0.79119995E+02 -0.17586E+07
 0.79169998E+02 -0.88981E+06
 0.79220001E+02  0.57544E+05
 0.79269997E+02  0.92886E+06
 0.79320000E+02  0.16975E+07
 0.79369995E+02  0.24018E+07
 0.79419998E+02  0.29573E+07
 0.79470001E+02  0.32888E+07
 0.79519997E+02  0.33673E+07
 0.79570000E+02  0.31790E+07
 0.79619995E+02  0.27730E+07
 0.79669998E+02  0.22041E+07
 0.79720001E+02  0.15006E+07
 0.79769997E+02  0.73764E+06
 0.79820000E+02  0.60138E+05
 0.79869995E+02 -0.36661E+06
 0.79919998E+02 -0.45390E+06
 0.79970001E+02 -0.30131E+06
 0.80019997E+02 -0.10319E+06
 0.80070000E+02  0.45824E+05
 0.80119995E+02  0.15137E+06
 0.80169998E+02  0.18075E+06
 0.80220001E+02  0.51512E+05
 0.80269997E+02 -0.26865E+06
 0.80320000E+02 -0.79187E+06
 0.80369995E+02 -0.15072E+07
 0.80419998E+02 -0.23077E+07
 0.80470001E+02 -0.30971E+07
 0.80519997E+02 -0.39042E+07
 0.80570000E+02 -0.47486E+07
 0.80619995E+02 -0.54885E+07
 0.80669998E+02 -0.59567E+07
 0.80720001E+02 -0.61231E+07
 0.80769997E+02 -0.60045E+07
 0.80820000E+02 -0.56017E+07
 0.80869995E+02 -0.49582E+07
 0.80919998E+02 -0.40880E+07
 0.80970001E+02 -0.29185E+07
 0.81019997E+02 -0.14523E+07
 0.81070000E+02  0.14263E+06
 0.81119995E+02  0.16390E+07
 0.81169998E+02  0.28889E+07
 0.81220001E+02  0.38590E+07
 0.81269997E+02  0.45147E+07
 0.81320000E+02  0.47875E+07
 0.81369995E+02  0.46905E+07
 0.81419998E+02  0.43759E+07
 0.81470001E+02  0.40215E+07
 0.81519997E+02  0.36928E+07
 0.81570000E+02  0.33930E+07
 0.81619995E+02  0.31597E+07
 0.81669998E+02  0.30173E+07
 0.81720001E+02  0.29825E+07
 0.81769997E+02  0.31087E+07
 0.81820000E+02  0.33445E+07
 0.81869995E+02  0.35386E+07
 0.81919998E+02  0.36215E+07
 0.81970001E+02  0.35531E+07
 0.82019997E+02  0.32351E+07
 0.82070000E+02  0.26235E+07
 0.82119995E+02  0.17756E+07
 0.82169998E+02  0.81424E+06
 0.82220001E+02 -0.88651E+05
 0.82269997E+02 -0.81905E+06
 0.82320000E+02 -0.13311E+07
 0.82369995E+02 -0.16221E+07
 0.82419998E+02 -0.17940E+07
 0.82470001E+02 -0.19421E+07
 0.82519997E+02 -0.20317E+07
 0.82570000E+02 -0.20346E+07
 0.82619995E+02 -0.19835E+07
 0.82669998E+02 -0.18312E+07
 0.82720001E+02 -0.15458E+07
 0.82769997E+02 -0.11747E+07
 0.82820000E+02 -0.71792E+06
 0.82869995E+02 -0.21308E+06
 0.82919998E+02  0.22590E+06
 0.82970001E+02  0.56412E+06
 0.83019997E+02  0.80690E+06
 0.83070000E+02  0.90884E+06
 0.83119995E+02  0.85078E+06
 0.83169998E+02  0.67350E+06
 0.83220001E+02  0.45511E+06
 0.83269997E+02  0.20848E+06
 0.83320000E+02 -0.13595E+06
 0.83369995E+02 -0.57311E+06
 0.83419998E+02 -0.10310E+07
 0.83470001E+02 -0.14640E+07
 0.83519997E+02 -0.18786E+07
 0.83570000E+02 -0.23260E+07
 0.83619995E+02 -0.28159E+07
 0.83669998E+02 -0.32898E+07
 0.83720001E+02 -0.37334E+07
 0.83769997E+02 -0.41459E+07
 0.83820000E+02 -0.44038E+07
 0.83869995E+02 -0.43804E+07
 0.83919998E+02 -0.40885E+07
 0.83970001E+02 -0.35526E+07
 0.84019997E+02 -0.27388E+07
 0.84070000E+02 -0.16775E+07
 0.84119995E+02 -0.48466E+06
 0.84169998E+02  0.70948E+06
 0.84220001E+02  0.17849E+07
 0.84269997E+02  0.26452E+07
 0.84320000E+02  0.32112E+07
 0.84369995E+02  0.34325E+07
 0.84419998E+02  0.33185E+07
 0.84470001E+02  0.29648E+07
 0.84519997E+02  0.24568E+07
 0.84570000E+02  0.18082E+07
 0.84619995E+02  0.11298E+07
 0.84669998E+02  0.58008E+06
 0.84720001E+02  0.20483E+06
 0.84769997E+02 -0.15506E+05
 0.84820000E+02 -0.14475E+06
 0.84869995E+02 -0.24763E+06
 0.84919998E+02 -0.32718E+06
 0.84970001E+02 -0.43246E+06
 0.85019997E+02 -0.67184E+06
 0.85070000E+02 -0.10426E+07
 0.85119995E+02 -0.14122E+07
 0.85169998E+02 -0.16559E+07
 0.85220001E+02 -0.17666E+07
 0.85269997E+02 -0.17858E+07
 0.85320000E+02 -0.17042E+07
 0.85369995E+02 -0.15420E+07
 0.85419998E+02 -0.13596E+07
 0.85470001E+02 -0.11464E+07
 0.85519997E+02 -0.85280E+06
 0.85570000E+02 -0.51357E+06
 0.85619995E+02 -0.18673E+06
 0.85669998E+02  0.12455E+06
 0.85720001E+02  0.40709E+06
 0.85769997E+02  0.66075E+06
 0.85820000E+02  0.91126E+06
 0.85869995E+02  0.11211E+07
 0.85919998E+02  0.12231E+07
 0.85970001E+02  0.12249E+07
 0.86019997E+02  0.11550E+07
 0.86070000E+02  0.10260E+07
 0.86119995E+02  0.86154E+06
 0.86169998E+02  0.64012E+06
 0.86220001E+02  0.33140E+06
 0.86269997E+02  0.15100E+03
 0.86320000E+02 -0.25731E+06
 0.86369995E+02 -0.42355E+06
 0.86419998E+02 -0.55000E+06
 0.86470001E+02 -0.72922E+06
 0.86519997E+02 -0.97461E+06
 0.86570000E+02 -0.11766E+07
 0.86619995E+02 -0.13050E+07
 0.86669998E+02 -0.14203E+07
 0.86720001E+02 -0.15114E+07
 0.86769997E+02 -0.15543E+07
 0.86820000E+02 -0.16054E+07
 0.86869995E+02 -0.16809E+07
 0.86919998E+02 -0.17118E+07
 0.86970001E+02 -0.16044E+07
 0.87019997E+02 -0.12679E+07
 0.87070000E+02 -0.75764E+06
 0.87119995E+02 -0.25070E+06
 0.87169998E+02  0.18938E+06
 0.87220001E+02  0.66093E+06
 0.87269997E+02  0.12810E+07
 0.87320000E+02  0.20383E+07
 0.87369995E+02  0.28161E+07
 0.87419998E+02  0.34995E+07
 0.87470001E+02  0.40424E+07
 0.87519997E+02  0.44095E+07
 0.87570000E+02  0.44943E+07
 0.87619995E+02  0.42471E+07
 0.87669998E+02  0.37348E+07
 0.87720001E+02  0.30668E+07
 0.87769997E+02  0.23688E+07
 0.87820000E+02  0.17274E+07
 0.87869995E+02  0.11642E+07
 0.87919998E+02  0.70265E+06
 0.87970001E+02  0.35912E+06
 0.88019997E+02  0.84363E+05
 0.88070000E+02 -0.17157E+06
 0.88119995E+02 -0.38749E+06
 0.88169998E+02 -0.49461E+06
 0.88220001E+02 -0.44598E+06
 0.88269997E+02 -0.26556E+06
 0.88320000E+02 -0.30034E+05
 0.88369995E+02  0.20868E+06
 0.88419998E+02  0.43489E+06
 0.88470001E+02  0.61521E+06
 0.88519997E+02  0.77239E+06
 0.88570000E+02  0.96892E+06
 0.88619995E+02  0.11414E+07
 0.88669998E+02  0.11794E+07
 0.88720001E+02  0.10971E+07
 0.88769997E+02  0.94281E+06
 0.88820000E+02  0.68428E+06
 0.88869995E+02  0.30077E+06
 0.88919998E+02 -0.15621E+06
 0.88970001E+02 -0.60978E+06
 0.89019997E+02 -0.99547E+06
 0.89070000E+02 -0.12626E+07
 0.89119995E+02 -0.13739E+07
 0.89169998E+02 -0.13462E+07
 0.89220001E+02 -0.12149E+07
 0.89269997E+02 -0.10013E+07
 0.89320000E+02 -0.75472E+06
 0.89369995E+02 -0.51543E+06
 0.89419998E+02 -0.29542E+06
 0.89470001E+02 -0.13616E+06
 0.89519997E+02 -0.84146E+05
 0.89570000E+02 -0.14803E+06
 0.89619995E+02 -0.35839E+06
 0.89669998E+02 -0.77567E+06
 0.89720001E+02 -0.13629E+07
 0.89769997E+02 -0.19511E+07
 0.89820000E+02 -0.23879E+07
 0.89869995E+02 -0.26337E+07
 0.89919998E+02 -0.27085E+07
 0.89970001E+02 -0.26306E+07
 0.90019997E+02 -0.23999E+07
 0.90070000E+02 -0.20500E+07
 0.90119995E+02 -0.16613E+07
 0.90169998E+02 -0.12607E+07
 0.90220001E+02 -0.82412E+06
 0.90269997E+02 -0.38507E+06
 0.90320000E+02 -0.42736E+05
 0.90369995E+02  0.12702E+06
 0.90419998E+02  0.97224E+05
 0.90470001E+02 -0.12042E+06
 0.90519997E+02 -0.47318E+06
 0.90570000E+02 -0.88120E+06
 0.90619995E+02 -0.12592E+07
 0.90669998E+02 -0.15573E+07
 0.90720001E+02 -0.17633E+07
 0.90769997E+02 -0.18636E+07
 0.90820000E+02 -0.17908E+07
 0.90869995E+02 -0.14709E+07
 0.90919998E+02 -0.93783E+06
 0.90970001E+02 -0.29607E+06
 0.91019997E+02  0.37508E+06
 0.91070000E+02  0.10430E+07
 0.91119995E+02  0.16770E+07
 0.91169998E+02  0.22138E+07
 0.91220001E+02  0.25806E+07
 0.91269997E+02  0.27453E+07
 0.91320000E+02  0.27714E+07
 0.91369995E+02  0.27613E+07
 0.91419998E+02  0.27447E+07
 0.91470001E+02  0.27199E+07
 0.91519997E+02  0.27026E+07
 0.91570000E+02  0.26600E+07
 0.91619995E+02  0.25507E+07
 0.91669998E+02  0.23498E+07
 0.91720001E+02  0.19968E+07
 0.91769997E+02  0.14433E+07
 0.91820000E+02  0.66898E+06
 0.91869995E+02 -0.28916E+06
 0.91919998E+02 -0.12736E+07
 0.91970001E+02 -0.20845E+07
 0.92019997E+02 -0.26346E+07
 0.92070000E+02 -0.29538E+07
 0.92119995E+02 -0.30650E+07
 0.92169998E+02 -0.29881E+07
 0.92220001E+02 -0.27678E+07
 0.92269997E+02 -0.24495E+07
 0.92320000E+02 -0.20821E+07
 0.92369995E+02 -0.16848E+07
 0.92419998E+02 -0.12847E+07
 0.92470001E+02 -0.93934E+06
 0.92519997E+02 -0.67022E+06
 0.92570000E+02 -0.49299E+06
 0.92619995E+02 -0.42568E+06
 0.92669998E+02 -0.44233E+06
 0.92720001E+02 -0.52011E+06
 0.92769997E+02 -0.63618E+06
 0.92820000E+02 -0.74223E+06
 0.92869995E+02 -0.79853E+06
 0.92919998E+02 -0.73122E+06
 0.92970001E+02 -0.48195E+06
 0.93019997E+02 -0.11239E+06
 0.93070000E+02  0.28574E+06
 0.93119995E+02  0.68408E+06
 0.93169998E+02  0.10753E+07
 0.93220001E+02  0.14207E+07
 0.93269997E+02  0.16882E+07
 0.93320000E+02  0.19152E+07
 0.93369995E+02  0.21931E+07
 0.93419998E+02  0.25274E+07
 0.93470001E+02  0.28052E+07
 0.93519997E+02  0.29571E+07
 0.93570000E+02  0.29640E+07
 0.93619995E+02  0.28182E+07
 0.93669998E+02  0.25649E+07
 0.93720001E+02  0.22698E+07
 0.93769997E+02  0.19780E+07
 0.93820000E+02  0.16792E+07
 0.93869995E+02  0.13194E+07
 0.93919998E+02  0.91810E+06
 0.93970001E+02  0.54597E+06
 0.94019997E+02  0.19955E+06
 0.94070000E+02 -0.12337E+06
 0.94119995E+02 -0.38113E+06
 0.94169998E+02 -0.58618E+06
 0.94220001E+02 -0.76797E+06
 0.94269997E+02 -0.88343E+06
 0.94320000E+02 -0.86892E+06
 0.94369995E+02 -0.70686E+06
 0.94419998E+02 -0.41472E+06
 0.94470001E+02 -0.49892E+05
 0.94519997E+02  0.31322E+06
 0.94570000E+02  0.62274E+06
 0.94619995E+02  0.85876E+06
 0.94669998E+02  0.10266E+07
 0.94720001E+02  0.11239E+07
 0.94769997E+02  0.11185E+07
 0.94820000E+02  0.98957E+06
 0.94869995E+02  0.76761E+06
 0.94919998E+02  0.48777E+06
 0.94970001E+02  0.17028E+06
 0.95019997E+02 -0.18412E+06
 0.95070000E+02 -0.60940E+06
 0.95119995E+02 -0.11181E+07
 0.95169998E+02 -0.16468E+07
 0.95220001E+02 -0.20888E+07
 0.95269997E+02 -0.23778E+07
 0.95320000E+02 -0.24928E+07
 0.95369995E+02 -0.24607E+07
 0.95419998E+02 -0.23254E+07
 0.95470001E+02 -0.20706E+07
 0.95519997E+02 -0.16987E+07
 0.95570000E+02 -0.12867E+07
 0.95619995E+02 -0.89917E+06
 0.95669998E+02 -0.55472E+06
 0.95720001E+02 -0.24684E+06
 0.95769997E+02  0.90140E+04
 0.95820000E+02  0.14113E+06
 0.95869995E+02  0.14379E+06
 0.95919998E+02  0.77346E+05
 0.95970001E+02 -0.71032E+05
 0.96019997E+02 -0.28996E+06
 0.96070000E+02 -0.50708E+06
 0.96119995E+02 -0.69180E+06
 0.96169998E+02 -0.81644E+06
 0.96220001E+02 -0.83334E+06
 0.96269997E+02 -0.74300E+06
 0.96320000E+02 -0.60262E+06
 0.96369995E+02 -0.46364E+06
 0.96419998E+02 -0.36885E+06
 0.96470001E+02 -0.38272E+06
 0.96519997E+02 -0.54417E+06
 0.96570000E+02 -0.79580E+06
 0.96619995E+02 -0.10388E+07
 0.96669998E+02 -0.12533E+07
 0.96720001E+02 -0.14651E+07
 0.96769997E+02 -0.16765E+07
 0.96820000E+02 -0.18905E+07
 0.96869995E+02 -0.21133E+07
 0.96919998E+02 -0.23448E+07
 0.96970001E+02 -0.25671E+07
 0.97019997E+02 -0.27187E+07
 0.97070000E+02 -0.27357E+07
 0.97119995E+02 -0.26092E+07
 0.97169998E+02 -0.23421E+07
 0.97220001E+02 -0.19075E+07
 0.97269997E+02 -0.12967E+07
 0.97320000E+02 -0.54760E+06
 0.97369995E+02  0.24899E+06
 0.97419998E+02  0.98254E+06
 0.97470001E+02  0.15984E+07
 0.97519997E+02  0.20989E+07
 0.97570000E+02  0.25008E+07
 0.97619995E+02  0.28116E+07
 0.97669998E+02  0.30212E+07
 0.97720001E+02  0.31210E+07
 0.97769997E+02  0.31137E+07
 0.97820000E+02  0.29966E+07
 0.97869995E+02  0.27565E+07
 0.97919998E+02  0.23898E+07
 0.97970001E+02  0.19441E+07
 0.98019997E+02  0.15225E+07
 0.98070000E+02  0.11876E+07
 0.98119995E+02  0.92708E+06
 0.98169998E+02  0.74943E+06
 0.98220001E+02  0.69911E+06
 0.98269997E+02  0.76520E+06
 0.98320000E+02  0.88602E+06
 0.98369995E+02  0.10306E+07
 0.98419998E+02  0.11660E+07
 0.98470001E+02  0.12157E+07
 0.98519997E+02  0.11524E+07
 0.98570000E+02  0.10078E+07
 0.98619995E+02  0.77854E+06
 0.98669998E+02  0.48006E+06
 0.98720001E+02  0.18927E+06
 0.98769997E+02 -0.37798E+05
 0.98820000E+02 -0.16114E+06
 0.98869995E+02 -0.12057E+06
 0.98919998E+02  0.84501E+05
 0.98970001E+02  0.37451E+06
 0.99019997E+02  0.66691E+06
 0.99070000E+02  0.89896E+06
 0.99119995E+02  0.10361E+07
 0.99169998E+02  0.10826E+07
 0.99220001E+02  0.10785E+07
 0.99269997E+02  0.10674E+07
 0.99320000E+02  0.10654E+07
 0.99369995E+02  0.10568E+07
 0.99419998E+02  0.98539E+06
 0.99470001E+02  0.79626E+06
 0.99519997E+02  0.48313E+06
 0.99570000E+02  0.63847E+05
 0.99619995E+02 -0.43346E+06
 0.99669998E+02 -0.94616E+06
 0.99720001E+02 -0.14314E+07
 0.99769997E+02 -0.18816E+07
 0.99820000E+02 -0.22341E+07
 0.99869995E+02 -0.23949E+07
 0.99919998E+02 -0.23299E+07
 0.99970001E+02 -0.20771E+07
 0.10002000E+03 -0.17226E+07
 0.10007000E+03 -0.13592E+07
 0.10012000E+03 -0.10615E+07
 0.10017000E+03 -0.86899E+06
 0.10022000E+03 -0.74859E+06
 0.10027000E+03 -0.64942E+06
 0.10032000E+03 -0.56723E+06
 0.10037000E+03 -0.50838E+06
 0.10042000E+03 -0.46064E+06
 0.10047000E+03 -0.41654E+06
 0.10052000E+03 -0.40488E+06
 0.10057000E+03 -0.44100E+06
 0.10062000E+03 -0.49206E+06
 0.10067000E+03 -0.51343E+06
 0.10072000E+03 -0.44800E+06
 0.10077000E+03 -0.26949E+06
 0.10082000E+03 -0.31626E+05
 0.10087000E+03  0.17864E+06
 0.10092000E+03  0.27982E+06
 0.10097000E+03  0.22686E+06
 0.10102000E+03  0.55874E+05
 0.10107000E+03 -0.16607E+06
 0.10112000E+03 -0.41430E+06
 0.10117000E+03 -0.66196E+06
 0.10122000E+03 -0.84752E+06
 0.10127000E+03 -0.92540E+06
 0.10132000E+03 -0.89944E+06
 0.10137000E+03 -0.83490E+06
 0.10142000E+03 -0.79845E+06
 0.10147000E+03 -0.80006E+06
 0.10152000E+03 -0.84514E+06
 0.10157000E+03 -0.93426E+06
 0.10162000E+03 -0.10034E+07
 0.10167000E+03 -0.96518E+06
 0.10172000E+03 -0.79069E+06
 0.10177000E+03 -0.52201E+06
 0.10182000E+03 -0.24873E+06
 0.10187000E+03 -0.44190E+05
 0.10192000E+03  0.60551E+05
 0.10197000E+03  0.44410E+05
 0.10202000E+03 -0.75255E+05
 0.10207000E+03 -0.22300E+06
 0.10212000E+03 -0.31014E+06
 0.10217000E+03 -0.28290E+06
 0.10222000E+03 -0.11929E+06
 0.10227000E+03  0.17326E+06
 0.10232000E+03  0.53431E+06
 0.10237000E+03  0.90102E+06
 0.10242000E+03  0.12233E+07
 0.10247000E+03  0.14259E+07
 0.10252000E+03  0.14638E+07
 0.10257000E+03  0.13518E+07
 0.10262000E+03  0.11355E+07
 0.10267000E+03  0.88331E+06
 0.10272000E+03  0.64283E+06
 0.10277000E+03  0.44227E+06
 0.10282000E+03  0.33590E+06
 0.10287000E+03  0.34588E+06
 0.10292000E+03  0.42648E+06
 0.10297000E+03  0.52519E+06
 0.10302000E+03  0.60663E+06
 0.10307000E+03  0.64572E+06
 0.10312000E+03  0.62782E+06
 0.10317000E+03  0.54821E+06
 0.10322000E+03  0.42074E+06
 0.10327000E+03  0.28880E+06
 0.10332000E+03  0.20884E+06
 0.10337000E+03  0.22102E+06
 0.10342000E+03  0.32497E+06
 0.10347000E+03  0.45813E+06
 0.10352000E+03  0.56336E+06
 0.10357000E+03  0.65136E+06
 0.10362000E+03  0.73480E+06
 0.10367000E+03  0.81277E+06
 0.10372000E+03  0.91474E+06
 0.10377000E+03  0.10625E+07
 0.10382000E+03  0.12067E+07
 0.10387000E+03  0.12655E+07
 0.10392000E+03  0.12053E+07
 0.10397000E+03  0.10362E+07
 0.10402000E+03  0.80206E+06
 0.10407000E+03  0.56294E+06
 0.10412000E+03  0.35481E+06
 0.10417000E+03  0.17974E+06
 0.10422000E+03 -0.20360E+04
 0.10427000E+03 -0.21714E+06
 0.10432000E+03 -0.42250E+06
 0.10437000E+03 -0.56896E+06
 0.10442000E+03 -0.64770E+06
 0.10447000E+03 -0.66178E+06
 0.10452000E+03 -0.62333E+06
 0.10457000E+03 -0.52812E+06
 0.10462000E+03 -0.34548E+06
 0.10467000E+03 -0.83972E+05
 0.10472000E+03  0.19886E+06
 0.10477000E+03  0.43632E+06
 0.10482000E+03  0.58809E+06
 0.10487000E+03  0.66971E+06
 0.10492000E+03  0.72430E+06
 0.10497000E+03  0.76132E+06
 0.10502000E+03  0.77502E+06
 0.10507000E+03  0.79954E+06
 0.10512000E+03  0.86479E+06
 0.10517000E+03  0.95576E+06
 0.10522000E+03  0.10454E+07
 0.10527000E+03  0.11258E+07
 0.10532000E+03  0.12013E+07
 0.10537000E+03  0.12628E+07
 0.10542000E+03  0.12861E+07
 0.10547000E+03  0.12497E+07
 0.10552000E+03  0.11581E+07
 0.10557000E+03  0.10195E+07
 0.10562000E+03  0.84010E+06
 0.10567000E+03  0.65248E+06
 0.10572000E+03  0.47273E+06
 0.10577000E+03  0.26799E+06
 0.10582000E+03 -0.16703E+05
 0.10587000E+03 -0.41657E+06
 0.10592000E+03 -0.90127E+06
 0.10597000E+03 -0.13947E+07
 0.10602000E+03 -0.18583E+07
 0.10607000E+03 -0.23027E+07
 0.10612000E+03 -0.27118E+07
 0.10617000E+03 -0.30221E+07
 0.10622000E+03 -0.31754E+07
 0.10627000E+03 -0.31471E+07
 0.10632000E+03 -0.29389E+07
 0.10637000E+03 -0.25939E+07
 0.10642000E+03 -0.22104E+07
 0.10647000E+03 -0.18854E+07
 0.10652000E+03 -0.16378E+07
 0.10657000E+03 -0.14375E+07
 0.10662000E+03 -0.12647E+07
 0.10667000E+03 -0.10989E+07
 0.10672000E+03 -0.92076E+06
 0.10677000E+03 -0.74054E+06
 0.10682000E+03 -0.57848E+06
 0.10687000E+03 -0.44344E+06
 0.10692000E+03 -0.33845E+06
 0.10697000E+03 -0.26054E+06
 0.10702000E+03 -0.22114E+06
 0.10707000E+03 -0.24425E+06
 0.10712000E+03 -0.31966E+06
 0.10717000E+03 -0.38945E+06
 0.10722000E+03 -0.40183E+06
 0.10727000E+03 -0.35287E+06
 0.10732000E+03 -0.23742E+06
 0.10737000E+03 -0.50140E+05
 0.10742000E+03  0.18957E+06
 0.10747000E+03  0.48374E+06
 0.10752000E+03  0.82230E+06
 0.10757000E+03  0.11433E+07
 0.10762000E+03  0.13991E+07
 0.10767000E+03  0.15730E+07
 0.10772000E+03  0.16347E+07
 0.10777000E+03  0.15838E+07
 0.10782000E+03  0.14671E+07
 0.10787000E+03  0.13100E+07
 0.10792000E+03  0.11209E+07
 0.10797000E+03  0.91478E+06
 0.10802000E+03  0.70703E+06
 0.10807000E+03  0.53882E+06
 0.10812000E+03  0.46751E+06
 0.10817000E+03  0.50315E+06
 0.10822000E+03  0.61519E+06
 0.10827000E+03  0.77731E+06
 0.10832000E+03  0.96003E+06
 0.10837000E+03  0.11298E+07
 0.10842000E+03  0.12539E+07
 0.10847000E+03  0.13025E+07
 0.10852000E+03  0.12493E+07
 0.10857000E+03  0.10812E+07
 0.10862000E+03  0.82258E+06
 0.10867000E+03  0.51347E+06
 0.10872000E+03  0.18136E+06
 0.10877000E+03 -0.13659E+06
 0.10882000E+03 -0.38654E+06
 0.10887000E+03 -0.54203E+06
 0.10892000E+03 -0.62472E+06
 0.10897000E+03 -0.67412E+06
 0.10902000E+03 -0.69848E+06
 0.10907000E+03 -0.68514E+06
 0.10912000E+03 -0.65810E+06
 0.10917000E+03 -0.65099E+06
 0.10922000E+03 -0.66680E+06
 0.10927000E+03 -0.69542E+06
 0.10932000E+03 -0.73231E+06
 0.10937000E+03 -0.77509E+06
 0.10942000E+03 -0.80998E+06
 0.10947000E+03 -0.85047E+06
 0.10952000E+03 -0.94028E+06
 0.10957000E+03 -0.10922E+07
 0.10962000E+03 -0.12835E+07
 0.10967000E+03 -0.14697E+07
 0.10972000E+03 -0.16194E+07
 0.10977000E+03 -0.17490E+07
 0.10982000E+03 -0.18707E+07
 0.10987000E+03 -0.19605E+07
 0.10992000E+03 -0.19818E+07
 0.10997000E+03 -0.18891E+07
 0.11002000E+03 -0.16359E+07
 0.11007000E+03 -0.12062E+07
 0.11012000E+03 -0.65575E+06
 0.11017000E+03 -0.87588E+05
 0.11022000E+03  0.41292E+06
 0.11027000E+03  0.80990E+06
 0.11032000E+03  0.11078E+07
 0.11037000E+03  0.12885E+07
 0.11042000E+03  0.13020E+07
 0.11047000E+03  0.11384E+07
 0.11052000E+03  0.86076E+06
 0.11057000E+03  0.55545E+06
 0.11062000E+03  0.26985E+06
 0.11067000E+03  0.22564E+05
 0.11072000E+03 -0.17658E+06
 0.11077000E+03 -0.32041E+06
 0.11082000E+03 -0.41524E+06
 0.11087000E+03 -0.49272E+06
 0.11092000E+03 -0.55212E+06
 0.11097000E+03 -0.56164E+06
 0.11102000E+03 -0.52175E+06
 0.11107000E+03 -0.43622E+06
 0.11112000E+03 -0.29398E+06
 0.11117000E+03 -0.10569E+06
 0.11122000E+03  0.10273E+06
 0.11127000E+03  0.31782E+06
 0.11132000E+03  0.53580E+06
 0.11137000E+03  0.72689E+06
 0.11142000E+03  0.83298E+06
 0.11147000E+03  0.81881E+06
 0.11152000E+03  0.69703E+06
 0.11157000E+03  0.50574E+06
 0.11162000E+03  0.27924E+06
 0.11167000E+03  0.55216E+05
 0.11172000E+03 -0.12838E+06
 0.11177000E+03 -0.27096E+06
 0.11182000E+03 -0.37487E+06
 0.11187000E+03 -0.41828E+06
 0.11192000E+03 -0.40345E+06
 0.11197000E+03 -0.36416E+06
 0.11202000E+03 -0.33706E+06
 0.11207000E+03 -0.33233E+06
 0.11212000E+03 -0.33957E+06
 0.11217000E+03 -0.34466E+06
 0.11222000E+03 -0.32774E+06
 0.11227000E+03 -0.30191E+06
 0.11232000E+03 -0.30183E+06
 0.11237000E+03 -0.33769E+06
 0.11242000E+03 -0.41351E+06
 0.11247000E+03 -0.50775E+06
 0.11252000E+03 -0.56558E+06
 0.11257000E+03 -0.57256E+06
 0.11262000E+03 -0.55932E+06
 0.11267000E+03 -0.54184E+06
 0.11272000E+03 -0.50096E+06
 0.11277000E+03 -0.39674E+06
 0.11282000E+03 -0.21130E+06
 0.11287000E+03  0.29983E+05
 0.11292000E+03  0.27233E+06
 0.11297000E+03  0.46223E+06
 0.11302000E+03  0.58170E+06
 0.11307000E+03  0.63455E+06
 0.11312000E+03  0.64277E+06
 0.11317000E+03  0.64937E+06
 0.11322000E+03  0.67601E+06
 0.11327000E+03  0.69860E+06
 0.11332000E+03  0.69127E+06
 0.11337000E+03  0.65643E+06
 0.11342000E+03  0.58256E+06
 0.11347000E+03  0.46098E+06
 0.11352000E+03  0.30506E+06
 0.11357000E+03  0.10041E+06
 0.11362000E+03 -0.16239E+06
 0.11367000E+03 -0.43317E+06
 0.11372000E+03 -0.64310E+06
 0.11377000E+03 -0.75231E+06
 0.11382000E+03 -0.77208E+06
 0.11387000E+03 -0.74258E+06
 0.11392000E+03 -0.65984E+06
 0.11397000E+03 -0.49793E+06
 0.11402000E+03 -0.26576E+06
 0.11407000E+03  0.89760E+04
 0.11412000E+03  0.28325E+06
 0.11417000E+03  0.50406E+06
 0.11422000E+03  0.63685E+06
 0.11427000E+03  0.66841E+06
 0.11432000E+03  0.58618E+06
 0.11437000E+03  0.39491E+06
 0.11442000E+03  0.14876E+06
 0.11447000E+03 -0.82913E+05
 0.11452000E+03 -0.26278E+06
 0.11457000E+03 -0.38184E+06
 0.11462000E+03 -0.43960E+06
 0.11467000E+03 -0.43819E+06
 0.11472000E+03 -0.38708E+06
 0.11477000E+03 -0.30168E+06
 0.11482000E+03 -0.20402E+06
 0.11487000E+03 -0.12556E+06
 0.11492000E+03 -0.79411E+05
 0.11497000E+03 -0.41936E+05
 0.11502000E+03  0.17306E+05
 0.11507000E+03  0.99258E+05
 0.11512000E+03  0.17550E+06
 0.11517000E+03  0.22820E+06
 0.11522000E+03  0.27430E+06
 0.11527000E+03  0.33047E+06
 0.11532000E+03  0.38099E+06
 0.11537000E+03  0.41497E+06
 0.11542000E+03  0.44157E+06
 0.11547000E+03  0.46200E+06
 0.11552000E+03  0.49813E+06
 0.11557000E+03  0.60461E+06
 0.11562000E+03  0.81125E+06
 0.11567000E+03  0.10933E+07
 0.11572000E+03  0.14010E+07
 0.11577000E+03  0.16882E+07
 0.11582000E+03  0.19145E+07
 0.11587000E+03  0.20419E+07
 0.11592000E+03  0.20523E+07
 0.11597000E+03  0.19732E+07
 0.11602000E+03  0.18466E+07
 0.11607000E+03  0.16893E+07
 0.11612000E+03  0.14985E+07
 0.11617000E+03  0.12746E+07
 0.11622000E+03  0.10437E+07
 0.11627000E+03  0.83617E+06
 0.11632000E+03  0.65064E+06
 0.11637000E+03  0.45620E+06
 0.11642000E+03  0.22714E+06
 0.11647000E+03 -0.27856E+05
 0.11652000E+03 -0.27987E+06
 0.11657000E+03 -0.50598E+06
 0.11662000E+03 -0.69725E+06
 0.11667000E+03 -0.83047E+06
 0.11672000E+03 -0.85715E+06
 0.11677000E+03 -0.76688E+06
 0.11682000E+03 -0.60108E+06
 0.11687000E+03 -0.39500E+06
 0.11692000E+03 -0.16546E+06
 0.11697000E+03  0.67604E+05
 0.11702000E+03  0.28555E+06
 0.11707000E+03  0.47866E+06
 0.11712000E+03  0.61499E+06
 0.11717000E+03  0.64709E+06
 0.11722000E+03  0.55082E+06
 0.11727000E+03  0.33138E+06
 0.11732000E+03  0.35996E+05
 0.11737000E+03 -0.26739E+06
 0.11742000E+03 -0.53581E+06
 0.11747000E+03 -0.75201E+06
 0.11752000E+03 -0.89924E+06
 0.11757000E+03 -0.96098E+06
 0.11762000E+03 -0.93906E+06
 0.11767000E+03 -0.84912E+06
 0.11772000E+03 -0.70470E+06
 0.11777000E+03 -0.52017E+06
 0.11782000E+03 -0.33011E+06
 0.11787000E+03 -0.17211E+06
 0.11792000E+03 -0.75160E+05
 0.11797000E+03 -0.63187E+05
 0.11802000E+03 -0.12121E+06
 0.11807000E+03 -0.20892E+06
 0.11812000E+03 -0.30155E+06
 0.11817000E+03 -0.37598E+06
 0.11822000E+03 -0.39502E+06
 0.11827000E+03 -0.33009E+06
 0.11832000E+03 -0.17900E+06
 0.11837000E+03  0.40888E+05
 0.11842000E+03  0.29672E+06
 0.11847000E+03  0.55229E+06
 0.11852000E+03  0.78507E+06
 0.11857000E+03  0.99728E+06
 0.11862000E+03  0.12030E+07
 0.11867000E+03  0.13924E+07
 0.11872000E+03  0.15357E+07
 0.11877000E+03  0.15927E+07
 0.11882000E+03  0.15282E+07
 0.11887000E+03  0.13507E+07
 0.11892000E+03  0.10977E+07
 0.11897000E+03  0.79644E+06
 0.11902000E+03  0.46481E+06
 0.11907000E+03  0.14101E+06
 0.11912000E+03 -0.13821E+06
 0.11917000E+03 -0.37438E+06
 0.11922000E+03 -0.58506E+06
 0.11927000E+03 -0.77166E+06
 0.11932000E+03 -0.91719E+06
 0.11937000E+03 -0.10212E+07
 0.11942000E+03 -0.11051E+07
 0.11947000E+03 -0.11764E+07
 0.11952000E+03 -0.12374E+07
 0.11957000E+03 -0.12955E+07
 0.11962000E+03 -0.13436E+07
 0.11967000E+03 -0.13792E+07
 0.11972000E+03 -0.14101E+07
 0.11977000E+03 -0.14255E+07
 0.11982000E+03 -0.14077E+07
 0.11987000E+03 -0.13389E+07
 0.11992000E+03 -0.12016E+07
 0.11997000E+03 -0.98933E+06
 0.12002000E+03 -0.70799E+06
 0.12007000E+03 -0.37950E+06
 0.12012000E+03 -0.41116E+05
 0.12017000E+03  0.25209E+06
 0.12022000E+03  0.43765E+06
 0.12027000E+03  0.49264E+06
 0.12032000E+03  0.44153E+06
 0.12037000E+03  0.30579E+06
 0.12042000E+03  0.10785E+06
 0.12047000E+03 -0.10222E+06
 0.12052000E+03 -0.28348E+06
 0.12057000E+03 -0.42767E+06
 0.12062000E+03 -0.55300E+06
 0.12067000E+03 -0.69276E+06
 0.12072000E+03 -0.86171E+06
 0.12077000E+03 -0.10342E+07
 0.12082000E+03 -0.11664E+07
 0.12087000E+03 -0.12296E+07
 0.12092000E+03 -0.12173E+07
 0.12097000E+03 -0.11438E+07
 0.12102000E+03 -0.10400E+07
 0.12107000E+03 -0.93652E+06
 0.12112000E+03 -0.84338E+06
 0.12117000E+03 -0.74792E+06
 0.12122000E+03 -0.63520E+06
 0.12127000E+03 -0.50220E+06
 0.12132000E+03 -0.35077E+06
 0.12137000E+03 -0.18474E+06
 0.12142000E+03 -0.28056E+05
 0.12147000E+03  0.80011E+05
 0.12152000E+03  0.12159E+06
 0.12157000E+03  0.10224E+06
 0.12162000E+03  0.38895E+05
 0.12167000E+03 -0.45531E+05
 0.12172000E+03 -0.13242E+06
 0.12177000E+03 -0.20033E+06
 0.12182000E+03 -0.22835E+06
 0.12187000E+03 -0.19470E+06
 0.12192000E+03 -0.85491E+05
 0.12197000E+03  0.75054E+05
 0.12202000E+03  0.24768E+06
 0.12207000E+03  0.42223E+06
 0.12212000E+03  0.60840E+06
 0.12217000E+03  0.78677E+06
 0.12222000E+03  0.90774E+06
 0.12227000E+03  0.94507E+06
 0.12232000E+03  0.90594E+06
 0.12237000E+03  0.79994E+06
 0.12242000E+03  0.64610E+06
 0.12247000E+03  0.48503E+06
 0.12252000E+03  0.36005E+06
 0.12257000E+03  0.30966E+06
 0.12262000E+03  0.34002E+06
 0.12267000E+03  0.41672E+06
 0.12272000E+03  0.50934E+06
 0.12277000E+03  0.59971E+06
 0.12282000E+03  0.66020E+06
 0.12287000E+03  0.67307E+06
 0.12292000E+03  0.66294E+06
 0.12297000E+03  0.66485E+06
 0.12302000E+03  0.68962E+06
 0.12307000E+03  0.72281E+06
 0.12312000E+03  0.73167E+06
 0.12317000E+03  0.68389E+06
 0.12322000E+03  0.56115E+06
 0.12327000E+03  0.37079E+06
 0.12332000E+03  0.13564E+06
 0.12337000E+03 -0.11417E+06
 0.12342000E+03 -0.34708E+06
 0.12347000E+03 -0.54956E+06
 0.12352000E+03 -0.71697E+06
 0.12357000E+03 -0.84109E+06
 0.12362000E+03 -0.91823E+06
 0.12367000E+03 -0.95591E+06
 0.12372000E+03 -0.96952E+06
 0.12377000E+03 -0.96443E+06
 0.12382000E+03 -0.94340E+06
 0.12387000E+03 -0.93226E+06
 0.12392000E+03 -0.95250E+06
 0.12397000E+03 -0.10028E+07
 0.12402000E+03 -0.10876E+07
 0.12407000E+03 -0.12085E+07
 0.12412000E+03 -0.13428E+07
 0.12417000E+03 -0.14690E+07
 0.12422000E+03 -0.15887E+07
 0.12427000E+03 -0.16984E+07
 0.12432000E+03 -0.17690E+07
 0.12437000E+03 -0.17763E+07
 0.12442000E+03 -0.17124E+07
 0.12447000E+03 -0.15602E+07
 0.12452000E+03 -0.13175E+07
 0.12457000E+03 -0.10026E+07
 0.12462000E+03 -0.63329E+06
 0.12467000E+03 -0.24103E+06
 0.12472000E+03  0.14488E+06
 0.12477000E+03  0.50945E+06
 0.12482000E+03  0.83504E+06
 0.12487000E+03  0.11075E+07
 0.12492000E+03  0.13380E+07
 0.12497000E+03  0.15406E+07
 0.12502000E+03  0.17015E+07
 0.12507000E+03  0.18032E+07
 0.12512000E+03  0.18444E+07
 0.12517001E+03  0.18332E+07
 0.12521999E+03  0.17803E+07
 0.12527000E+03  0.16878E+07
 0.12532000E+03  0.15484E+07
 0.12537000E+03  0.13602E+07
 0.12542001E+03  0.11321E+07
 0.12546999E+03  0.89485E+06
 0.12552000E+03  0.68513E+06
 0.12557000E+03  0.51035E+06
 0.12562000E+03  0.37682E+06
 0.12567001E+03  0.30067E+06
 0.12571999E+03  0.27212E+06
 0.12577000E+03  0.26206E+06
 0.12582000E+03  0.25498E+06
 0.12587000E+03  0.25753E+06
 0.12592001E+03  0.26911E+06
 0.12596999E+03  0.26539E+06
 0.12602000E+03  0.23354E+06
 0.12607000E+03  0.18466E+06
 0.12612000E+03  0.13534E+06
 0.12617001E+03  0.10872E+06
 0.12621999E+03  0.11675E+06
 0.12627000E+03  0.14307E+06
 0.12632000E+03  0.16806E+06
 0.12637000E+03  0.19054E+06
 0.12642001E+03  0.21894E+06
 0.12646999E+03  0.25524E+06
 0.12652000E+03  0.29523E+06
 0.12657000E+03  0.32465E+06
 0.12662000E+03  0.32597E+06
 0.12667001E+03  0.30396E+06
 0.12671999E+03  0.26977E+06
 0.12677000E+03  0.21972E+06
 0.12682000E+03  0.14783E+06
 0.12687000E+03  0.44630E+05
 0.12692001E+03 -0.10629E+06
 0.12696999E+03 -0.30220E+06
 0.12702000E+03 -0.51055E+06
 0.12707000E+03 -0.69586E+06
 0.12712000E+03 -0.83970E+06
 0.12717001E+03 -0.93099E+06
 0.12721999E+03 -0.95276E+06
 0.12727000E+03 -0.89234E+06
 0.12732000E+03 -0.75502E+06
 0.12737000E+03 -0.54937E+06
 0.12742001E+03 -0.27076E+06
 0.12746999E+03  0.72179E+05
 0.12752000E+03  0.43055E+06
 0.12757000E+03  0.74586E+06
 0.12762000E+03  0.99264E+06
 0.12767001E+03  0.11649E+07
 0.12771999E+03  0.12508E+07
 0.12777000E+03  0.12535E+07
 0.12782000E+03  0.11958E+07
 0.12787000E+03  0.10900E+07
 0.12792001E+03  0.94906E+06
 0.12796999E+03  0.80469E+06
 0.12802000E+03  0.67516E+06
 0.12807001E+03  0.56099E+06
 0.12812001E+03  0.45984E+06
 0.12817001E+03  0.36375E+06
 0.12822000E+03  0.27928E+06
 0.12827000E+03  0.22124E+06
 0.12832001E+03  0.19684E+06
 0.12837001E+03  0.21537E+06
 0.12842001E+03  0.27147E+06
 0.12847000E+03  0.35245E+06
 0.12852000E+03  0.45591E+06
 0.12857001E+03  0.58152E+06
 0.12862001E+03  0.72730E+06
 0.12867001E+03  0.86892E+06
 0.12872000E+03  0.96607E+06
 0.12877000E+03  0.99562E+06
 0.12882001E+03  0.94953E+06
 0.12887001E+03  0.82654E+06
 0.12892001E+03  0.64399E+06
 0.12897000E+03  0.42622E+06
 0.12902000E+03  0.17506E+06
 0.12907001E+03 -0.11337E+06
 0.12912001E+03 -0.42104E+06
 0.12917001E+03 -0.72116E+06
 0.12922000E+03 -0.10014E+07
 0.12927000E+03 -0.12512E+07
 0.12932001E+03 -0.14515E+07
 0.12937001E+03 -0.15957E+07
 0.12942001E+03 -0.16916E+07
 0.12947000E+03 -0.17580E+07
 0.12952000E+03 -0.18099E+07
 0.12957001E+03 -0.18434E+07
 0.12962001E+03 -0.18508E+07
 0.12967001E+03 -0.18256E+07
 0.12972000E+03 -0.17506E+07
 0.12977000E+03 -0.16107E+07
 0.12982001E+03 -0.14132E+07
 0.12987001E+03 -0.11853E+07
 0.12992001E+03 -0.96222E+06
 0.12997000E+03 -0.76415E+06
 0.13002000E+03 -0.59216E+06
 0.13007001E+03 -0.45730E+06
 0.13012001E+03 -0.37373E+06
 0.13017001E+03 -0.34616E+06
 0.13022000E+03 -0.37257E+06
 0.13027000E+03 -0.43294E+06
 0.13032001E+03 -0.48825E+06
 0.13037001E+03 -0.50541E+06
 0.13042001E+03 -0.47983E+06
 0.13047000E+03 -0.42686E+06
 0.13052000E+03 -0.36982E+06
 0.13057001E+03 -0.33428E+06
 0.13062001E+03 -0.32912E+06
 0.13067001E+03 -0.34052E+06
 0.13072000E+03 -0.35110E+06
 0.13077000E+03 -0.35552E+06
 0.13082001E+03 -0.35346E+06
 0.13087001E+03 -0.34324E+06
 0.13092001E+03 -0.32777E+06
 0.13097000E+03 -0.30651E+06
 0.13102000E+03 -0.27534E+06
 0.13107001E+03 -0.23389E+06
 0.13112001E+03 -0.17178E+06
 0.13117001E+03 -0.76684E+05
 0.13122000E+03  0.39545E+05
 0.13127000E+03  0.14870E+06
 0.13132001E+03  0.22445E+06
 0.13137001E+03  0.25736E+06
 0.13142001E+03  0.27013E+06
 0.13147000E+03  0.28663E+06
 0.13152000E+03  0.30297E+06
 0.13157001E+03  0.30723E+06
 0.13162001E+03  0.29226E+06
 0.13167001E+03  0.25937E+06
 0.13172000E+03  0.21967E+06
 0.13177000E+03  0.18628E+06
 0.13182001E+03  0.16835E+06
 0.13187001E+03  0.16315E+06
 0.13192001E+03  0.16849E+06
 0.13197000E+03  0.20172E+06
 0.13202000E+03  0.27370E+06
 0.13207001E+03  0.36853E+06
 0.13212001E+03  0.47017E+06
 0.13217001E+03  0.56558E+06
 0.13222000E+03  0.63014E+06
 0.13227000E+03  0.65736E+06
 0.13232001E+03  0.66773E+06
 0.13237001E+03  0.66680E+06
 0.13242001E+03  0.63906E+06
 0.13247000E+03  0.57730E+06
 0.13252000E+03  0.49082E+06
 0.13257001E+03  0.40147E+06
 0.13262001E+03  0.34474E+06
 0.13267001E+03  0.34966E+06
 0.13272000E+03  0.41611E+06
 0.13277000E+03  0.52286E+06
 0.13282001E+03  0.64189E+06
 0.13287001E+03  0.75345E+06
 0.13292001E+03  0.85437E+06
 0.13297000E+03  0.93874E+06
 0.13302000E+03  0.98776E+06
 0.13307001E+03  0.98580E+06
 0.13312001E+03  0.93261E+06
 0.13317001E+03  0.83534E+06
 0.13322000E+03  0.69901E+06
 0.13327000E+03  0.53867E+06
 0.13332001E+03  0.37376E+06
 0.13337001E+03  0.21091E+06
 0.13342001E+03  0.54063E+05
 0.13347000E+03 -0.81743E+05
 0.13352000E+03 -0.17922E+06
 0.13357001E+03 -0.23634E+06
 0.13362001E+03 -0.25949E+06
 0.13367001E+03 -0.25632E+06
 0.13372000E+03 -0.23935E+06
 0.13377000E+03 -0.22342E+06
 0.13382001E+03 -0.22142E+06
 0.13387001E+03 -0.24095E+06
 0.13392001E+03 -0.27740E+06
 0.13397000E+03 -0.30598E+06
 0.13402000E+03 -0.30299E+06
 0.13407001E+03 -0.26998E+06
 0.13412001E+03 -0.21390E+06
 0.13417001E+03 -0.13569E+06
 0.13422000E+03 -0.51461E+05
 0.13427000E+03  0.17645E+05
 0.13432001E+03  0.57769E+05
 0.13437001E+03  0.54956E+05
 0.13442001E+03  0.51330E+04
 0.13447000E+03 -0.83819E+05
 0.13452000E+03 -0.20036E+06
 0.13457001E+03 -0.33240E+06
 0.13462001E+03 -0.46468E+06
 0.13467001E+03 -0.58165E+06
 0.13472000E+03 -0.67179E+06
 0.13477000E+03 -0.73371E+06
 0.13482001E+03 -0.78526E+06
 0.13487001E+03 -0.84710E+06
 0.13492001E+03 -0.92274E+06
 0.13497000E+03 -0.10036E+07
 0.13502000E+03 -0.10771E+07
 0.13507001E+03 -0.11318E+07
 0.13512001E+03 -0.11732E+07
 0.13517001E+03 -0.12119E+07
 0.13522000E+03 -0.12416E+07
 0.13527000E+03 -0.12512E+07
 0.13532001E+03 -0.12408E+07
 0.13537001E+03 -0.12149E+07
 0.13542001E+03 -0.11621E+07
 0.13547000E+03 -0.10620E+07
 0.13552000E+03 -0.90795E+06
 0.13557001E+03 -0.70143E+06
 0.13562001E+03 -0.44954E+06
 0.13567001E+03 -0.16856E+06
 0.13572000E+03  0.12218E+06
 0.13577000E+03  0.40166E+06
 0.13582001E+03  0.64932E+06
 0.13587001E+03  0.85448E+06
 0.13592001E+03  0.10092E+07
 0.13597000E+03  0.10965E+07
 0.13602000E+03  0.11105E+07
 0.13607001E+03  0.10614E+07
 0.13612001E+03  0.96674E+06
 0.13617001E+03  0.85477E+06
 0.13622000E+03  0.75586E+06
 0.13627000E+03  0.69159E+06
 0.13632001E+03  0.65482E+06
 0.13637001E+03  0.62040E+06
 0.13642001E+03  0.57153E+06
 0.13647000E+03  0.49847E+06
 0.13652000E+03  0.40602E+06
 0.13657001E+03  0.31058E+06
 0.13662001E+03  0.22151E+06
 0.13667001E+03  0.14569E+06
 0.13672000E+03  0.97930E+05
 0.13677000E+03  0.92935E+05
 0.13682001E+03  0.14172E+06
 0.13687001E+03  0.24783E+06
 0.13692001E+03  0.40196E+06
 0.13697000E+03  0.59055E+06
 0.13702000E+03  0.79506E+06
 0.13707001E+03  0.98637E+06
 0.13712001E+03  0.11279E+07
 0.13717001E+03  0.11824E+07
 0.13722000E+03  0.11323E+07
 0.13727000E+03  0.98905E+06
 0.13732001E+03  0.77615E+06
 0.13737001E+03  0.52121E+06
 0.13742001E+03  0.26153E+06
 0.13747000E+03  0.33485E+05
 0.13752000E+03 -0.14263E+06
 0.13757001E+03 -0.26096E+06
 0.13762001E+03 -0.32353E+06
 0.13767001E+03 -0.34019E+06
 0.13772000E+03 -0.32505E+06
 0.13777000E+03 -0.28538E+06
 0.13782001E+03 -0.22773E+06
 0.13787001E+03 -0.16964E+06
 0.13792001E+03 -0.13071E+06
 0.13797000E+03 -0.11650E+06
 0.13802000E+03 -0.11917E+06
 0.13807001E+03 -0.13730E+06
 0.13812001E+03 -0.17851E+06
 0.13817001E+03 -0.24124E+06
 0.13822000E+03 -0.31055E+06
 0.13827000E+03 -0.36982E+06
 0.13832001E+03 -0.40982E+06
 0.13837001E+03 -0.43135E+06
 0.13842001E+03 -0.43851E+06
 0.13847000E+03 -0.43156E+06
 0.13852000E+03 -0.41168E+06
 0.13857001E+03 -0.38411E+06
 0.13862001E+03 -0.35963E+06
 0.13867001E+03 -0.35358E+06
 0.13872000E+03 -0.37347E+06
 0.13877000E+03 -0.41375E+06
 0.13882001E+03 -0.46156E+06
 0.13887001E+03 -0.49952E+06
 0.13892001E+03 -0.51005E+06
 0.13897000E+03 -0.48554E+06
 0.13902000E+03 -0.42689E+06
 0.13907001E+03 -0.33668E+06
 0.13912001E+03 -0.22408E+06
 0.13917001E+03 -0.10095E+06
 0.13922000E+03  0.25628E+05
 0.13927000E+03  0.15019E+06
 0.13932001E+03  0.26081E+06
 0.13937001E+03  0.34675E+06
 0.13942001E+03  0.40855E+06
 0.13947000E+03  0.44198E+06
 0.13952000E+03  0.44335E+06
 0.13957001E+03  0.42428E+06
 0.13962001E+03  0.39588E+06
 0.13967001E+03  0.36322E+06
 0.13972000E+03  0.33322E+06
 0.13977000E+03  0.30485E+06
 0.13982001E+03  0.26629E+06
 0.13987001E+03  0.21127E+06
 0.13992001E+03  0.14763E+06
 0.13997000E+03  0.94326E+05
 0.14002000E+03  0.69828E+05
 0.14007001E+03  0.84571E+05
 0.14012001E+03  0.14101E+06
 0.14017001E+03  0.23348E+06
 0.14022000E+03  0.34851E+06
 0.14027000E+03  0.46523E+06
 0.14032001E+03  0.56976E+06
 0.14037001E+03  0.66448E+06
 0.14042001E+03  0.74627E+06
 0.14047000E+03  0.79968E+06
 0.14052000E+03  0.81926E+06
 0.14057001E+03  0.80670E+06
 0.14062001E+03  0.75213E+06
 0.14067001E+03  0.65211E+06
 0.14072000E+03  0.52348E+06
 0.14077000E+03  0.38226E+06
 0.14082001E+03  0.24216E+06
 0.14087001E+03  0.11848E+06
 0.14092001E+03  0.14086E+05
 0.14097000E+03 -0.79769E+05
 0.14102000E+03 -0.17324E+06
 0.14107001E+03 -0.26704E+06
 0.14112001E+03 -0.34944E+06
 0.14117001E+03 -0.41607E+06
 0.14122000E+03 -0.47983E+06
 0.14127000E+03 -0.55995E+06
 0.14132001E+03 -0.67136E+06
 0.14137001E+03 -0.81104E+06
 0.14142001E+03 -0.96184E+06
 0.14147000E+03 -0.11034E+07
 0.14152000E+03 -0.12081E+07
 0.14157001E+03 -0.12527E+07
 0.14162001E+03 -0.12287E+07
 0.14167001E+03 -0.11422E+07
 0.14172000E+03 -0.10170E+07
 0.14177000E+03 -0.87384E+06
 0.14182001E+03 -0.71653E+06
 0.14187001E+03 -0.53994E+06
 0.14192001E+03 -0.33607E+06
 0.14197000E+03 -0.10030E+06
 0.14202000E+03  0.15541E+06
 0.14207001E+03  0.40152E+06
 0.14212001E+03  0.60717E+06
 0.14217001E+03  0.74053E+06
 0.14222000E+03  0.77768E+06
 0.14227000E+03  0.72566E+06
 0.14232001E+03  0.61087E+06
 0.14237001E+03  0.45629E+06
 0.14242001E+03  0.28403E+06
 0.14247000E+03  0.11942E+06
 0.14252000E+03 -0.22031E+05
 0.14257001E+03 -0.13382E+06
 0.14262001E+03 -0.20859E+06
 0.14267001E+03 -0.24586E+06
 0.14272000E+03 -0.25448E+06
 0.14277000E+03 -0.24611E+06
 0.14282001E+03 -0.23648E+06
 0.14287001E+03 -0.23906E+06
 0.14292001E+03 -0.25749E+06
 0.14297000E+03 -0.28706E+06
 0.14302000E+03 -0.31452E+06
 0.14307001E+03 -0.33077E+06
 0.14312001E+03 -0.34184E+06
 0.14317001E+03 -0.35272E+06
 0.14322000E+03 -0.36083E+06
 0.14327000E+03 -0.36877E+06
 0.14332001E+03 -0.38256E+06
 0.14337001E+03 -0.40112E+06
 0.14342001E+03 -0.41262E+06
 0.14347000E+03 -0.39943E+06
 0.14352000E+03 -0.35319E+06
 0.14357001E+03 -0.28526E+06
 0.14362001E+03 -0.21327E+06
 0.14367001E+03 -0.14628E+06
 0.14372000E+03 -0.85674E+05
 0.14377000E+03 -0.27661E+05
 0.14382001E+03  0.35991E+05
 0.14387001E+03  0.12415E+06
 0.14392001E+03  0.25583E+06
 0.14397000E+03  0.42900E+06
 0.14402000E+03  0.61833E+06
 0.14407001E+03  0.78538E+06
 0.14412001E+03  0.89740E+06
 0.14417001E+03  0.93434E+06
 0.14422000E+03  0.88615E+06
 0.14427000E+03  0.76628E+06
 0.14432001E+03  0.61198E+06
 0.14437001E+03  0.45639E+06
 0.14442001E+03  0.32153E+06
 0.14447000E+03  0.21811E+06
 0.14452000E+03  0.13760E+06
 0.14457001E+03  0.62626E+05
 0.14462001E+03 -0.20439E+05
 0.14467001E+03 -0.12257E+06
 0.14472000E+03 -0.25012E+06
 0.14477000E+03 -0.38959E+06
 0.14482001E+03 -0.52601E+06
 0.14487001E+03 -0.65263E+06
 0.14492001E+03 -0.74508E+06
 0.14497000E+03 -0.77805E+06
 0.14502000E+03 -0.74884E+06
 0.14507001E+03 -0.67518E+06
 0.14512001E+03 -0.58024E+06
 0.14517001E+03 -0.47652E+06
 0.14522000E+03 -0.37913E+06
 0.14527000E+03 -0.30396E+06
 0.14532001E+03 -0.25264E+06
 0.14537001E+03 -0.21623E+06
 0.14542001E+03 -0.18333E+06
 0.14547000E+03 -0.15316E+06
 0.14552000E+03 -0.12904E+06
 0.14557001E+03 -0.11397E+06
 0.14562001E+03 -0.10880E+06
 0.14567001E+03 -0.10270E+06
 0.14572000E+03 -0.84373E+05
 0.14577000E+03 -0.49274E+05
 0.14582001E+03 -0.27790E+04
 0.14587001E+03  0.45808E+05
 0.14592001E+03  0.94490E+05
 0.14597000E+03  0.14606E+06
 0.14602000E+03  0.20296E+06
 0.14607001E+03  0.26258E+06
 0.14612001E+03  0.31468E+06
 0.14617001E+03  0.34412E+06
 0.14622000E+03  0.34171E+06
 0.14627000E+03  0.30446E+06
 0.14632001E+03  0.23154E+06
 0.14637001E+03  0.12368E+06
 0.14642001E+03 -0.12542E+05
 0.14647000E+03 -0.15594E+06
 0.14652000E+03 -0.28257E+06
 0.14657001E+03 -0.38174E+06
 0.14662001E+03 -0.45241E+06
 0.14667001E+03 -0.48950E+06
 0.14672000E+03 -0.48584E+06
 0.14677000E+03 -0.44434E+06
 0.14682001E+03 -0.37750E+06
 0.14687001E+03 -0.30243E+06
 0.14692001E+03 -0.23138E+06
 0.14697000E+03 -0.16472E+06
 0.14702000E+03 -0.94475E+05
 0.14707001E+03 -0.90110E+04
 0.14712001E+03  0.10155E+06
 0.14717001E+03  0.23519E+06
 0.14722000E+03  0.37214E+06
 0.14727000E+03  0.48870E+06
 0.14732001E+03  0.57376E+06
 0.14737001E+03  0.62301E+06
 0.14742001E+03  0.63427E+06
 0.14747000E+03  0.60896E+06
 0.14752000E+03  0.54680E+06
 0.14757001E+03  0.44619E+06
 0.14762001E+03  0.30750E+06
 0.14767001E+03  0.14041E+06
 0.14772000E+03 -0.36620E+05
 0.14777000E+03 -0.20679E+06
 0.14782001E+03 -0.35686E+06
 0.14787001E+03 -0.47675E+06
 0.14792001E+03 -0.55394E+06
 0.14797000E+03 -0.57810E+06
 0.14802000E+03 -0.55529E+06
 0.14807001E+03 -0.49971E+06
 0.14812001E+03 -0.41996E+06
 0.14817001E+03 -0.32076E+06
 0.14822000E+03 -0.20772E+06
 0.14827000E+03 -0.83125E+05
 0.14832001E+03  0.56090E+05
 0.14837001E+03  0.21228E+06
 0.14842001E+03  0.38567E+06
 0.14847000E+03  0.56927E+06
 0.14852000E+03  0.74604E+06
 0.14857001E+03  0.89775E+06
 0.14862001E+03  0.10062E+07
 0.14867001E+03  0.10611E+07
 0.14872000E+03  0.10692E+07
 0.14877000E+03  0.10452E+07
 0.14882001E+03  0.10007E+07
 0.14887001E+03  0.94022E+06
 0.14892001E+03  0.87374E+06
 0.14897000E+03  0.81850E+06
 0.14902000E+03  0.78213E+06
 0.14907001E+03  0.76512E+06
 0.14912001E+03  0.76720E+06
 0.14917001E+03  0.78426E+06
 0.14922000E+03  0.80786E+06
 0.14927000E+03  0.82311E+06
 0.14932001E+03  0.80867E+06
 0.14937001E+03  0.75247E+06
 0.14942001E+03  0.66480E+06
 0.14947000E+03  0.56237E+06
 0.14952000E+03  0.45234E+06
 0.14957001E+03  0.34378E+06
 0.14962001E+03  0.25095E+06
 0.14967001E+03  0.18174E+06
 0.14972000E+03  0.13973E+06
 0.14977000E+03  0.13244E+06
 0.14982001E+03  0.16876E+06
 0.14987001E+03  0.24695E+06
 0.14992001E+03  0.35366E+06
 0.14997000E+03  0.46406E+06
