-0.29800000E+01  0.14491E+06
-0.29300001E+01  0.18894E+06
-0.28800001E+01  0.22207E+06
-0.28299999E+01  0.24300E+06
-0.27800000E+01  0.25406E+06
-0.27300000E+01  0.25788E+06
-0.26800001E+01  0.25680E+06
-0.26300001E+01  0.25299E+06
-0.25799999E+01  0.24741E+06
-0.25300000E+01  0.24025E+06
-0.24800000E+01  0.23199E+06
-0.24300001E+01  0.22544E+06
-0.23800001E+01  0.22268E+06
-0.23299999E+01  0.22196E+06
-0.22800000E+01  0.22019E+06
-0.22300000E+01  0.21516E+06
-0.21800001E+01  0.20702E+06
-0.21300001E+01  0.19751E+06
-0.20799999E+01  0.18730E+06
-0.20300000E+01  0.17451E+06
-0.19800000E+01  0.15668E+06
-0.19299999E+01  0.13415E+06
-0.18800000E+01  0.10885E+06
-0.18300000E+01  0.82635E+05
-0.17800000E+01  0.57114E+05
-0.17300000E+01  0.32275E+05
-0.16799999E+01  0.77560E+04
-0.16300000E+01 -0.16496E+05
-0.15800000E+01 -0.41540E+05
-0.15300000E+01 -0.68122E+05
-0.14800000E+01 -0.95371E+05
-0.14299999E+01 -0.12183E+06
-0.13800000E+01 -0.14567E+06
-0.13300000E+01 -0.16513E+06
-0.12800000E+01 -0.17879E+06
-0.12300000E+01 -0.18457E+06
-0.11799999E+01 -0.18142E+06
-0.11300000E+01 -0.17071E+06
-0.10800000E+01 -0.15556E+06
-0.10300000E+01 -0.13798E+06
-0.98000002E+00 -0.11802E+06
-0.93000007E+00 -0.95470E+05
-0.87999988E+00 -0.69483E+05
-0.82999992E+00 -0.39881E+05
-0.77999997E+00 -0.94190E+04
-0.73000002E+00  0.17366E+05
-0.68000007E+00  0.39279E+05
-0.62999988E+00  0.58474E+05
-0.57999992E+00  0.75076E+05
-0.52999997E+00  0.86768E+05
-0.48000002E+00  0.91224E+05
-0.43000007E+00  0.87968E+05
-0.37999988E+00  0.78996E+05
-0.32999992E+00  0.68164E+05
-0.27999997E+00  0.57834E+05
-0.23000002E+00  0.47777E+05
-0.18000007E+00  0.38137E+05
-0.12999988E+00  0.28689E+05
-0.79999924E-01  0.19502E+05
-0.29999971E-01  0.11930E+05
 0.19999981E-01  0.67900E+04
 0.69999933E-01  0.36350E+04
 0.12000012E+00  0.14970E+04
 0.17000008E+00  0.64700E+03
 0.22000003E+00  0.98600E+03
 0.26999998E+00  0.30710E+04
 0.31999993E+00  0.80880E+04
 0.37000012E+00  0.13904E+05
 0.42000008E+00  0.18127E+05
 0.47000003E+00  0.19701E+05
 0.51999998E+00  0.18670E+05
 0.56999993E+00  0.16583E+05
 0.62000012E+00  0.13322E+05
 0.67000008E+00  0.76760E+04
 0.72000003E+00  0.80000E+01
 0.76999998E+00 -0.83350E+04
 0.81999993E+00 -0.16608E+05
 0.87000012E+00 -0.24019E+05
 0.92000008E+00 -0.29221E+05
 0.97000003E+00 -0.32687E+05
 0.10200000E+01 -0.35907E+05
 0.10700002E+01 -0.39096E+05
 0.11199999E+01 -0.41145E+05
 0.11700001E+01 -0.41002E+05
 0.12200003E+01 -0.39369E+05
 0.12700000E+01 -0.36001E+05
 0.13200002E+01 -0.29579E+05
 0.13699999E+01 -0.20210E+05
 0.14200001E+01 -0.93530E+04
 0.14700003E+01  0.12860E+04
 0.15200000E+01  0.11160E+05
 0.15700002E+01  0.19564E+05
 0.16199999E+01  0.25383E+05
 0.16700001E+01  0.28101E+05
 0.17200003E+01  0.28895E+05
 0.17700000E+01  0.30245E+05
 0.18200002E+01  0.32591E+05
 0.18699999E+01  0.33829E+05
 0.19200001E+01  0.32001E+05
 0.19700003E+01  0.25521E+05
 0.20200000E+01  0.12359E+05
 0.20700002E+01 -0.69480E+04
 0.21199999E+01 -0.29451E+05
 0.21700001E+01 -0.52928E+05
 0.22200003E+01 -0.76447E+05
 0.22700000E+01 -0.10031E+06
 0.23200002E+01 -0.12451E+06
 0.23699999E+01 -0.14676E+06
 0.24200001E+01 -0.16424E+06
 0.24700003E+01 -0.17638E+06
 0.25200000E+01 -0.18405E+06
 0.25700002E+01 -0.18819E+06
 0.26199999E+01 -0.18939E+06
 0.26700001E+01 -0.18653E+06
 0.27200003E+01 -0.17842E+06
 0.27700000E+01 -0.16541E+06
 0.28200002E+01 -0.14723E+06
 0.28699999E+01 -0.12354E+06
 0.29200001E+01 -0.95080E+05
 0.29700003E+01 -0.63493E+05
 0.30200000E+01 -0.31586E+05
 0.30700002E+01 -0.73300E+03
 0.31199999E+01  0.29604E+05
 0.31700001E+01  0.59890E+05
 0.32200003E+01  0.90478E+05
 0.32700000E+01  0.12098E+06
 0.33200002E+01  0.15000E+06
 0.33699999E+01  0.17658E+06
 0.34200001E+01  0.20003E+06
 0.34700003E+01  0.22100E+06
 0.35200000E+01  0.24060E+06
 0.35700002E+01  0.25735E+06
 0.36199999E+01  0.26980E+06
 0.36700001E+01  0.27596E+06
 0.37200003E+01  0.27437E+06
 0.37700000E+01  0.26693E+06
 0.38200002E+01  0.25468E+06
 0.38699999E+01  0.23755E+06
 0.39200001E+01  0.21550E+06
 0.39700003E+01  0.18797E+06
 0.40200000E+01  0.15354E+06
 0.40700002E+01  0.11164E+06
 0.41199999E+01  0.65046E+05
 0.41700001E+01  0.16498E+05
 0.42200003E+01 -0.33172E+05
 0.42700000E+01 -0.83670E+05
 0.43200002E+01 -0.13369E+06
 0.43699999E+01 -0.18025E+06
 0.44200001E+01 -0.22071E+06
 0.44700003E+01 -0.25322E+06
 0.45200000E+01 -0.27696E+06
 0.45700002E+01 -0.29285E+06
 0.46199999E+01 -0.30164E+06
 0.46700001E+01 -0.30275E+06
 0.47200003E+01 -0.29498E+06
 0.47700000E+01 -0.27867E+06
 0.48200002E+01 -0.25550E+06
 0.48699999E+01 -0.22718E+06
 0.49200001E+01 -0.19524E+06
 0.49700003E+01 -0.16077E+06
 0.50200000E+01 -0.12506E+06
 0.50700002E+01 -0.89721E+05
 0.51200004E+01 -0.57494E+05
 0.51700006E+01 -0.29247E+05
 0.52199998E+01 -0.43900E+04
 0.52700000E+01  0.14848E+05
 0.53200002E+01  0.27708E+05
 0.53700004E+01  0.37147E+05
 0.54200006E+01  0.45720E+05
 0.54699998E+01  0.53216E+05
 0.55200000E+01  0.57581E+05
 0.55700002E+01  0.58338E+05
 0.56200004E+01  0.57954E+05
 0.56700006E+01  0.58995E+05
 0.57199998E+01  0.62708E+05
 0.57700000E+01  0.69289E+05
 0.58200002E+01  0.78526E+05
 0.58700004E+01  0.90055E+05
 0.59200006E+01  0.10169E+06
 0.59699998E+01  0.11152E+06
 0.60200000E+01  0.12001E+06
 0.60700002E+01  0.12830E+06
 0.61200004E+01  0.13726E+06
 0.61700006E+01  0.14631E+06
 0.62199998E+01  0.15263E+06
 0.62700000E+01  0.15315E+06
 0.63200002E+01  0.14772E+06
 0.63700004E+01  0.13954E+06
 0.64200006E+01  0.13117E+06
 0.64699998E+01  0.12190E+06
 0.65200000E+01  0.11074E+06
 0.65700002E+01  0.98478E+05
 0.66200004E+01  0.85271E+05
 0.66700006E+01  0.72164E+05
 0.67199998E+01  0.61525E+05
 0.67700000E+01  0.54213E+05
 0.68200002E+01  0.50140E+05
 0.68700004E+01  0.48731E+05
 0.69200006E+01  0.49324E+05
 0.69699998E+01  0.51551E+05
 0.70200000E+01  0.55349E+05
 0.70700002E+01  0.60864E+05
 0.71200004E+01  0.66885E+05
 0.71700006E+01  0.71228E+05
 0.72199998E+01  0.73046E+05
 0.72700000E+01  0.72590E+05
 0.73200002E+01  0.69301E+05
 0.73700004E+01  0.62525E+05
 0.74200006E+01  0.52780E+05
 0.74699998E+01  0.41054E+05
 0.75200000E+01  0.27680E+05
 0.75700002E+01  0.12608E+05
 0.76200004E+01 -0.37490E+04
 0.76700006E+01 -0.20696E+05
 0.77199998E+01 -0.37295E+05
 0.77700000E+01 -0.53477E+05
 0.78200002E+01 -0.69881E+05
 0.78700004E+01 -0.85953E+05
 0.79200006E+01 -0.10049E+06
 0.79699998E+01 -0.11255E+06
 0.80200005E+01 -0.12233E+06
 0.80699997E+01 -0.13023E+06
 0.81200008E+01 -0.13533E+06
 0.81700001E+01 -0.13748E+06
 0.82199993E+01 -0.13742E+06
 0.82700005E+01 -0.13447E+06
 0.83199997E+01 -0.12684E+06
 0.83700008E+01 -0.11497E+06
 0.84200001E+01 -0.10220E+06
 0.84699993E+01 -0.90218E+05
 0.85200005E+01 -0.79105E+05
 0.85699997E+01 -0.68925E+05
 0.86200008E+01 -0.57625E+05
 0.86700001E+01 -0.43633E+05
 0.87199993E+01 -0.26712E+05
 0.87700005E+01 -0.60310E+04
 0.88199997E+01  0.17332E+05
 0.88700008E+01  0.40715E+05
 0.89200001E+01  0.63892E+05
 0.89699993E+01  0.89138E+05
 0.90200005E+01  0.11520E+06
 0.90699997E+01  0.13789E+06
 0.91200008E+01  0.15626E+06
 0.91700001E+01  0.17099E+06
 0.92199993E+01  0.18277E+06
 0.92700005E+01  0.19259E+06
 0.93199997E+01  0.20148E+06
 0.93700008E+01  0.20964E+06
 0.94200001E+01  0.21404E+06
 0.94699993E+01  0.21127E+06
 0.95200005E+01  0.20120E+06
 0.95699997E+01  0.18510E+06
 0.96200008E+01  0.16359E+06
 0.96700001E+01  0.13606E+06
 0.97199993E+01  0.10279E+06
 0.97700005E+01  0.66278E+05
 0.98199997E+01  0.27374E+05
 0.98700008E+01 -0.15295E+05
 0.99200001E+01 -0.61725E+05
 0.99699993E+01 -0.10961E+06
 0.10020000E+02 -0.15666E+06
 0.10070000E+02 -0.20035E+06
 0.10120001E+02 -0.23781E+06
 0.10170000E+02 -0.26748E+06
 0.10219999E+02 -0.28910E+06
 0.10270000E+02 -0.30337E+06
 0.10320000E+02 -0.31090E+06
 0.10370001E+02 -0.31279E+06
 0.10420000E+02 -0.30910E+06
 0.10469999E+02 -0.30004E+06
 0.10520000E+02 -0.28797E+06
 0.10570000E+02 -0.27412E+06
 0.10620001E+02 -0.25809E+06
 0.10670000E+02 -0.23855E+06
 0.10719999E+02 -0.21509E+06
 0.10770000E+02 -0.18901E+06
 0.10820000E+02 -0.16172E+06
 0.10870001E+02 -0.13464E+06
 0.10920000E+02 -0.10757E+06
 0.10969999E+02 -0.78718E+05
 0.11020000E+02 -0.46727E+05
 0.11070000E+02 -0.12144E+05
 0.11120001E+02  0.23562E+05
 0.11170000E+02  0.60580E+05
 0.11219999E+02  0.99425E+05
 0.11270000E+02  0.13894E+06
 0.11320000E+02  0.17761E+06
 0.11370001E+02  0.21435E+06
 0.11420000E+02  0.24741E+06
 0.11469999E+02  0.27535E+06
 0.11520000E+02  0.29836E+06
 0.11570000E+02  0.31660E+06
 0.11620001E+02  0.32966E+06
 0.11670000E+02  0.33752E+06
 0.11719999E+02  0.34029E+06
 0.11770000E+02  0.33906E+06
 0.11820000E+02  0.33475E+06
 0.11870001E+02  0.32696E+06
 0.11920000E+02  0.31517E+06
 0.11969999E+02  0.29848E+06
 0.12020000E+02  0.27599E+06
 0.12070000E+02  0.24831E+06
 0.12120001E+02  0.21682E+06
 0.12170000E+02  0.18151E+06
 0.12219999E+02  0.14125E+06
 0.12270000E+02  0.97111E+05
 0.12320000E+02  0.52058E+05
 0.12370001E+02  0.85150E+04
 0.12420000E+02 -0.32340E+05
 0.12469999E+02 -0.70393E+05
 0.12520000E+02 -0.10496E+06
 0.12570000E+02 -0.13711E+06
 0.12620001E+02 -0.16864E+06
 0.12670000E+02 -0.19948E+06
 0.12719999E+02 -0.23092E+06
 0.12770000E+02 -0.26326E+06
 0.12820000E+02 -0.29428E+06
 0.12870001E+02 -0.32233E+06
 0.12920000E+02 -0.34723E+06
 0.12969999E+02 -0.36910E+06
 0.13020000E+02 -0.38739E+06
 0.13070002E+02 -0.40177E+06
 0.13120001E+02 -0.41178E+06
 0.13170000E+02 -0.41655E+06
 0.13220001E+02 -0.41488E+06
 0.13270000E+02 -0.40517E+06
 0.13320002E+02 -0.38535E+06
 0.13370001E+02 -0.35335E+06
 0.13420000E+02 -0.30929E+06
 0.13470001E+02 -0.25544E+06
 0.13520000E+02 -0.19500E+06
 0.13570002E+02 -0.13077E+06
 0.13620001E+02 -0.64204E+05
 0.13670000E+02  0.42190E+04
 0.13720001E+02  0.73240E+05
 0.13770000E+02  0.14014E+06
 0.13820002E+02  0.20264E+06
 0.13870001E+02  0.25977E+06
 0.13920000E+02  0.31217E+06
 0.13970001E+02  0.36080E+06
 0.14020000E+02  0.40452E+06
 0.14070002E+02  0.43991E+06
 0.14120001E+02  0.46383E+06
 0.14170000E+02  0.47594E+06
 0.14220001E+02  0.47616E+06
 0.14270000E+02  0.46418E+06
 0.14320002E+02  0.44227E+06
 0.14370001E+02  0.41283E+06
 0.14420000E+02  0.37674E+06
 0.14470001E+02  0.33522E+06
 0.14520000E+02  0.28911E+06
 0.14570002E+02  0.23861E+06
 0.14620001E+02  0.18415E+06
 0.14670000E+02  0.12644E+06
 0.14720001E+02  0.68140E+05
 0.14770000E+02  0.12800E+05
 0.14820002E+02 -0.38493E+05
 0.14870001E+02 -0.87120E+05
 0.14920000E+02 -0.13335E+06
 0.14970001E+02 -0.17399E+06
 0.15020000E+02 -0.20683E+06
 0.15070002E+02 -0.23193E+06
 0.15120001E+02 -0.24965E+06
 0.15170000E+02 -0.26110E+06
 0.15220001E+02 -0.26610E+06
 0.15270000E+02 -0.26330E+06
 0.15320002E+02 -0.25282E+06
 0.15370001E+02 -0.23619E+06
 0.15420000E+02 -0.21470E+06
 0.15470001E+02 -0.18985E+06
 0.15520000E+02 -0.16389E+06
 0.15570002E+02 -0.13836E+06
 0.15620001E+02 -0.11454E+06
 0.15670000E+02 -0.94537E+05
 0.15720001E+02 -0.79624E+05
 0.15770000E+02 -0.69262E+05
 0.15820002E+02 -0.62740E+05
 0.15870001E+02 -0.58905E+05
 0.15920000E+02 -0.55837E+05
 0.15970001E+02 -0.51879E+05
 0.16020000E+02 -0.45827E+05
 0.16070002E+02 -0.38043E+05
 0.16120001E+02 -0.29325E+05
 0.16170000E+02 -0.19531E+05
 0.16220001E+02 -0.76650E+04
 0.16270000E+02  0.72080E+04
 0.16320002E+02  0.23715E+05
 0.16370001E+02  0.40088E+05
 0.16420000E+02  0.55855E+05
 0.16470001E+02  0.71007E+05
 0.16520000E+02  0.84930E+05
 0.16570002E+02  0.95981E+05
 0.16620001E+02  0.10373E+06
 0.16670000E+02  0.10880E+06
 0.16720001E+02  0.11148E+06
 0.16770000E+02  0.11226E+06
 0.16820002E+02  0.11228E+06
 0.16870001E+02  0.11183E+06
 0.16920000E+02  0.11027E+06
 0.16970001E+02  0.10719E+06
 0.17020000E+02  0.10219E+06
 0.17070002E+02  0.95402E+05
 0.17120001E+02  0.86570E+05
 0.17170000E+02  0.76151E+05
 0.17220001E+02  0.66317E+05
 0.17270000E+02  0.57537E+05
 0.17320002E+02  0.48337E+05
 0.17370001E+02  0.37295E+05
 0.17420000E+02  0.24010E+05
 0.17470001E+02  0.89590E+04
 0.17520000E+02 -0.68120E+04
 0.17570002E+02 -0.22748E+05
 0.17620001E+02 -0.40193E+05
 0.17670000E+02 -0.60700E+05
 0.17720001E+02 -0.84559E+05
 0.17770000E+02 -0.11046E+06
 0.17820002E+02 -0.13503E+06
 0.17870001E+02 -0.15431E+06
 0.17920000E+02 -0.16695E+06
 0.17970001E+02 -0.17513E+06
 0.18020000E+02 -0.18208E+06
 0.18070002E+02 -0.18904E+06
 0.18120001E+02 -0.19390E+06
 0.18170000E+02 -0.19368E+06
 0.18220001E+02 -0.18620E+06
 0.18270000E+02 -0.17106E+06
 0.18320002E+02 -0.14980E+06
 0.18370001E+02 -0.12354E+06
 0.18420000E+02 -0.93179E+05
 0.18470001E+02 -0.60076E+05
 0.18520000E+02 -0.25064E+05
 0.18570002E+02  0.10414E+05
 0.18620001E+02  0.44808E+05
 0.18670000E+02  0.77880E+05
 0.18720001E+02  0.10968E+06
 0.18770000E+02  0.14016E+06
 0.18820002E+02  0.16858E+06
 0.18870001E+02  0.19303E+06
 0.18920000E+02  0.21241E+06
 0.18970001E+02  0.22696E+06
 0.19020000E+02  0.23682E+06
 0.19070002E+02  0.24169E+06
 0.19120001E+02  0.24096E+06
 0.19170000E+02  0.23417E+06
 0.19220001E+02  0.22156E+06
 0.19270000E+02  0.20358E+06
 0.19320002E+02  0.18081E+06
 0.19370001E+02  0.15439E+06
 0.19420000E+02  0.12523E+06
 0.19470001E+02  0.93898E+05
 0.19520000E+02  0.61645E+05
 0.19570002E+02  0.30493E+05
 0.19620001E+02  0.20140E+04
 0.19670000E+02 -0.22924E+05
 0.19720001E+02 -0.43956E+05
 0.19770000E+02 -0.61073E+05
 0.19820002E+02 -0.74352E+05
 0.19870001E+02 -0.84066E+05
 0.19920000E+02 -0.90268E+05
 0.19970001E+02 -0.93424E+05
 0.20020000E+02 -0.94882E+05
 0.20070002E+02 -0.95757E+05
 0.20120001E+02 -0.96354E+05
 0.20170000E+02 -0.96974E+05
 0.20220001E+02 -0.97918E+05
 0.20270000E+02 -0.97508E+05
 0.20320002E+02 -0.93056E+05
 0.20370001E+02 -0.82959E+05
 0.20420000E+02 -0.67009E+05
 0.20470001E+02 -0.46176E+05
 0.20520000E+02 -0.21846E+05
 0.20570002E+02  0.40830E+04
 0.20620001E+02  0.28886E+05
 0.20670000E+02  0.51527E+05
 0.20720001E+02  0.73862E+05
 0.20770000E+02  0.95989E+05
 0.20820002E+02  0.11633E+06
 0.20870001E+02  0.13439E+06
 0.20920000E+02  0.14913E+06
 0.20970001E+02  0.15930E+06
 0.21020000E+02  0.16450E+06
 0.21070002E+02  0.16464E+06
 0.21120001E+02  0.15951E+06
 0.21170000E+02  0.14820E+06
 0.21220001E+02  0.13000E+06
 0.21270000E+02  0.10631E+06
 0.21320002E+02  0.79514E+05
 0.21370001E+02  0.51437E+05
 0.21420000E+02  0.23698E+05
 0.21470001E+02 -0.31340E+04
 0.21520000E+02 -0.29791E+05
 0.21570002E+02 -0.56888E+05
 0.21620001E+02 -0.83973E+05
 0.21670000E+02 -0.10927E+06
 0.21720001E+02 -0.13161E+06
 0.21770000E+02 -0.15114E+06
 0.21820002E+02 -0.16792E+06
 0.21870001E+02 -0.18256E+06
 0.21920000E+02 -0.19537E+06
 0.21970001E+02 -0.20467E+06
 0.22020000E+02 -0.20871E+06
 0.22070002E+02 -0.20771E+06
 0.22120001E+02 -0.20248E+06
 0.22170000E+02 -0.19243E+06
 0.22220001E+02 -0.17726E+06
 0.22270000E+02 -0.15802E+06
 0.22320002E+02 -0.13564E+06
 0.22370001E+02 -0.11088E+06
 0.22420000E+02 -0.83976E+05
 0.22470001E+02 -0.54811E+05
 0.22520000E+02 -0.23928E+05
 0.22570002E+02  0.75810E+04
 0.22620001E+02  0.37917E+05
 0.22670000E+02  0.64714E+05
 0.22720001E+02  0.86622E+05
 0.22770000E+02  0.10477E+06
 0.22820002E+02  0.12019E+06
 0.22870001E+02  0.13234E+06
 0.22920000E+02  0.14087E+06
 0.22970001E+02  0.14560E+06
 0.23020000E+02  0.14702E+06
 0.23070002E+02  0.14628E+06
 0.23120001E+02  0.14330E+06
 0.23170000E+02  0.13698E+06
 0.23220001E+02  0.12706E+06
 0.23270000E+02  0.11350E+06
 0.23320002E+02  0.96903E+05
 0.23370001E+02  0.78953E+05
 0.23420000E+02  0.59970E+05
 0.23470001E+02  0.39542E+05
 0.23520000E+02  0.17501E+05
 0.23570002E+02 -0.68030E+04
 0.23620001E+02 -0.33433E+05
 0.23670000E+02 -0.61156E+05
 0.23720001E+02 -0.87880E+05
 0.23770000E+02 -0.11209E+06
 0.23820002E+02 -0.13368E+06
 0.23870001E+02 -0.15330E+06
 0.23920000E+02 -0.17065E+06
 0.23970001E+02 -0.18415E+06
 0.24020000E+02 -0.19242E+06
 0.24070002E+02 -0.19443E+06
 0.24120001E+02 -0.18937E+06
 0.24170000E+02 -0.17701E+06
 0.24220001E+02 -0.15778E+06
 0.24270000E+02 -0.13312E+06
 0.24320002E+02 -0.10459E+06
 0.24370001E+02 -0.73072E+05
 0.24420000E+02 -0.39185E+05
 0.24470001E+02 -0.39430E+04
 0.24520000E+02  0.30781E+05
 0.24570002E+02  0.63409E+05
 0.24620001E+02  0.93747E+05
 0.24670000E+02  0.12223E+06
 0.24720001E+02  0.14937E+06
 0.24770000E+02  0.17467E+06
 0.24820002E+02  0.19619E+06
 0.24870001E+02  0.21194E+06
 0.24920000E+02  0.22018E+06
 0.24970001E+02  0.22065E+06
 0.25020000E+02  0.21481E+06
 0.25070002E+02  0.20421E+06
 0.25120001E+02  0.19044E+06
 0.25170000E+02  0.17446E+06
 0.25220001E+02  0.15667E+06
 0.25270000E+02  0.13724E+06
 0.25320002E+02  0.11667E+06
 0.25370001E+02  0.95491E+05
 0.25420000E+02  0.73766E+05
 0.25470001E+02  0.53107E+05
 0.25520000E+02  0.35256E+05
 0.25570002E+02  0.20908E+05
 0.25620001E+02  0.10420E+05
 0.25670000E+02  0.43820E+04
 0.25720001E+02  0.32510E+04
 0.25770000E+02  0.57350E+04
 0.25820002E+02  0.91800E+04
 0.25870001E+02  0.11641E+05
 0.25920000E+02  0.12771E+05
 0.25970001E+02  0.12784E+05
 0.26020000E+02  0.11301E+05
 0.26070002E+02  0.81710E+04
 0.26120001E+02  0.43320E+04
 0.26170000E+02 -0.15200E+03
 0.26220001E+02 -0.62940E+04
 0.26270000E+02 -0.13907E+05
 0.26320002E+02 -0.22386E+05
 0.26370001E+02 -0.32188E+05
 0.26420000E+02 -0.42992E+05
 0.26470001E+02 -0.53346E+05
 0.26520000E+02 -0.62161E+05
 0.26570002E+02 -0.68611E+05
 0.26620001E+02 -0.72143E+05
 0.26670000E+02 -0.72289E+05
 0.26720001E+02 -0.69712E+05
 0.26770000E+02 -0.66583E+05
 0.26820002E+02 -0.64001E+05
 0.26870001E+02 -0.62157E+05
 0.26920000E+02 -0.61736E+05
 0.26970001E+02 -0.63050E+05
 0.27020000E+02 -0.65877E+05
 0.27070002E+02 -0.69628E+05
 0.27120001E+02 -0.73665E+05
 0.27170000E+02 -0.77599E+05
 0.27220001E+02 -0.81391E+05
 0.27270000E+02 -0.85052E+05
 0.27320002E+02 -0.87754E+05
 0.27370001E+02 -0.89037E+05
 0.27420000E+02 -0.88928E+05
 0.27470001E+02 -0.86300E+05
 0.27520000E+02 -0.79768E+05
 0.27570002E+02 -0.69781E+05
 0.27620001E+02 -0.58013E+05
 0.27670000E+02 -0.45871E+05
 0.27720001E+02 -0.34188E+05
 0.27770000E+02 -0.22993E+05
 0.27820002E+02 -0.12515E+05
 0.27870001E+02 -0.35560E+04
 0.27920000E+02  0.34300E+04
 0.27970001E+02  0.92890E+04
 0.28020000E+02  0.16426E+05
 0.28070002E+02  0.27156E+05
 0.28120001E+02  0.41709E+05
 0.28170000E+02  0.58442E+05
 0.28220001E+02  0.75856E+05
 0.28270000E+02  0.93609E+05
 0.28320002E+02  0.11141E+06
 0.28370001E+02  0.12855E+06
 0.28420000E+02  0.14451E+06
 0.28470001E+02  0.15834E+06
 0.28520000E+02  0.16906E+06
 0.28570002E+02  0.17626E+06
 0.28620001E+02  0.17981E+06
 0.28670000E+02  0.17941E+06
 0.28720001E+02  0.17485E+06
 0.28770000E+02  0.16661E+06
 0.28820002E+02  0.15497E+06
 0.28870001E+02  0.13969E+06
 0.28920000E+02  0.12127E+06
 0.28970001E+02  0.10108E+06
 0.29020000E+02  0.80776E+05
 0.29070000E+02  0.61229E+05
 0.29120003E+02  0.42545E+05
 0.29170002E+02  0.25017E+05
 0.29220001E+02  0.89570E+04
 0.29270000E+02 -0.55160E+04
 0.29320000E+02 -0.18887E+05
 0.29370003E+02 -0.32544E+05
 0.29420002E+02 -0.46591E+05
 0.29470001E+02 -0.59838E+05
 0.29520000E+02 -0.71745E+05
 0.29570000E+02 -0.81965E+05
 0.29620003E+02 -0.90844E+05
 0.29670002E+02 -0.99251E+05
 0.29720001E+02 -0.10743E+06
 0.29770000E+02 -0.11571E+06
 0.29820000E+02 -0.12446E+06
 0.29870003E+02 -0.13344E+06
 0.29920002E+02 -0.14170E+06
 0.29970001E+02 -0.14864E+06
 0.30020000E+02 -0.15404E+06
 0.30070000E+02 -0.15748E+06
 0.30120003E+02 -0.15896E+06
 0.30170002E+02 -0.15886E+06
 0.30220001E+02 -0.15772E+06
 0.30270000E+02 -0.15618E+06
 0.30320000E+02 -0.15419E+06
 0.30370003E+02 -0.15132E+06
 0.30420002E+02 -0.14667E+06
 0.30470001E+02 -0.13846E+06
 0.30520000E+02 -0.12574E+06
 0.30570000E+02 -0.10872E+06
 0.30620003E+02 -0.87187E+05
 0.30670002E+02 -0.61841E+05
 0.30720001E+02 -0.35622E+05
 0.30770000E+02 -0.11524E+05
 0.30820000E+02  0.93790E+04
 0.30870003E+02  0.27047E+05
 0.30920002E+02  0.41684E+05
 0.30970001E+02  0.54135E+05
 0.31020000E+02  0.64946E+05
 0.31070000E+02  0.73380E+05
 0.31120003E+02  0.78572E+05
 0.31170002E+02  0.81116E+05
 0.31220001E+02  0.82756E+05
 0.31270000E+02  0.84533E+05
 0.31320000E+02  0.85643E+05
 0.31370003E+02  0.84505E+05
 0.31420002E+02  0.80991E+05
 0.31470001E+02  0.76616E+05
 0.31520000E+02  0.72131E+05
 0.31570000E+02  0.66630E+05
 0.31620003E+02  0.59190E+05
 0.31670002E+02  0.50786E+05
 0.31720001E+02  0.43714E+05
 0.31770000E+02  0.39277E+05
 0.31820000E+02  0.37302E+05
 0.31870003E+02  0.33328E+05
 0.31920002E+02  0.20307E+05
 0.31970001E+02 -0.45240E+04
 0.32020000E+02 -0.31216E+05
 0.32070000E+02 -0.42046E+05
 0.32120003E+02 -0.33542E+05
 0.32170002E+02 -0.15334E+05
 0.32220001E+02 -0.61160E+04
 0.32270000E+02 -0.10235E+05
 0.32320000E+02 -0.24371E+05
 0.32370003E+02 -0.33421E+05
 0.32420002E+02 -0.16889E+05
 0.32470001E+02  0.11009E+05
 0.32520000E+02  0.42610E+05
 0.32570000E+02  0.41061E+05
 0.32620003E+02  0.23680E+05
 0.32670002E+02  0.44488E+05
 0.32720001E+02  0.98864E+05
 0.32770000E+02  0.20944E+06
 0.32820000E+02  0.30317E+06
 0.32870003E+02  0.34154E+06
 0.32920002E+02  0.35614E+06
 0.32970001E+02  0.29804E+06
 0.33020000E+02  0.22391E+06
 0.33070000E+02  0.19623E+06
 0.33120003E+02  0.21656E+06
 0.33170002E+02  0.28422E+06
 0.33220001E+02  0.36211E+06
 0.33270000E+02  0.39543E+06
 0.33320000E+02  0.40751E+06
 0.33370003E+02  0.39671E+06
 0.33420002E+02  0.32578E+06
 0.33470001E+02  0.31434E+06
 0.33520000E+02  0.31968E+06
 0.33570000E+02  0.28818E+06
 0.33620003E+02  0.24787E+06
 0.33670002E+02  0.13099E+06
 0.33720001E+02  0.47070E+04
 0.33770000E+02 -0.81688E+05
 0.33820000E+02 -0.17556E+06
 0.33870003E+02 -0.26523E+06
 0.33920002E+02 -0.34163E+06
 0.33970001E+02 -0.40065E+06
 0.34020000E+02 -0.43154E+06
 0.34070000E+02 -0.44452E+06
 0.34120003E+02 -0.39564E+06
 0.34170002E+02 -0.32741E+06
 0.34220001E+02 -0.28758E+06
 0.34270000E+02 -0.30970E+06
 0.34320000E+02 -0.41094E+06
 0.34370003E+02 -0.49467E+06
 0.34420002E+02 -0.61977E+06
 0.34470001E+02 -0.67772E+06
 0.34520000E+02 -0.56146E+06
 0.34570000E+02 -0.36484E+06
 0.34620003E+02 -0.95583E+05
 0.34670002E+02  0.24403E+05
 0.34720001E+02  0.20980E+04
 0.34770000E+02 -0.51360E+05
 0.34820000E+02 -0.12667E+06
 0.34870003E+02 -0.95899E+05
 0.34920002E+02 -0.15453E+05
 0.34970001E+02  0.10875E+06
 0.35020000E+02  0.28767E+06
 0.35070000E+02  0.41320E+06
 0.35120003E+02  0.48605E+06
 0.35170002E+02  0.62937E+06
 0.35220001E+02  0.58513E+06
 0.35270000E+02  0.39532E+06
 0.35320000E+02  0.34200E+06
 0.35370003E+02  0.28701E+06
 0.35420002E+02  0.33418E+06
 0.35470001E+02  0.40038E+06
 0.35520000E+02  0.46090E+06
 0.35570000E+02  0.50250E+06
 0.35620003E+02  0.38375E+06
 0.35670002E+02  0.30165E+06
 0.35720001E+02  0.25071E+06
 0.35770000E+02  0.13753E+06
 0.35820000E+02  0.18537E+05
 0.35870003E+02 -0.96918E+05
 0.35920002E+02 -0.17979E+06
 0.35970001E+02 -0.14337E+06
 0.36020000E+02 -0.10390E+06
 0.36070000E+02 -0.99934E+05
 0.36120003E+02 -0.58255E+05
 0.36170002E+02 -0.13506E+06
 0.36220001E+02 -0.22876E+06
 0.36270000E+02 -0.19662E+06
 0.36320000E+02 -0.14568E+06
 0.36370003E+02 -0.16718E+06
 0.36420002E+02 -0.26597E+06
 0.36470001E+02 -0.21738E+06
 0.36520000E+02 -0.15846E+06
 0.36570000E+02 -0.25156E+06
 0.36620003E+02 -0.26116E+06
 0.36670002E+02 -0.23440E+06
 0.36720001E+02 -0.20024E+06
 0.36770000E+02 -0.21318E+06
 0.36820000E+02 -0.30925E+06
 0.36870003E+02 -0.32032E+06
 0.36920002E+02 -0.33415E+06
 0.36970001E+02 -0.38705E+06
 0.37020000E+02 -0.41636E+06
 0.37070000E+02 -0.43192E+06
 0.37120003E+02 -0.37607E+06
 0.37170002E+02 -0.24048E+06
 0.37220001E+02 -0.71541E+05
 0.37270000E+02 -0.34981E+05
 0.37320000E+02 -0.14505E+06
 0.37370003E+02 -0.18707E+06
 0.37420002E+02 -0.76836E+05
 0.37470001E+02  0.21114E+06
 0.37520000E+02  0.55093E+06
 0.37570000E+02  0.86926E+06
 0.37620003E+02  0.10733E+07
 0.37670002E+02  0.11190E+07
 0.37720001E+02  0.11678E+07
 0.37770000E+02  0.11434E+07
 0.37820000E+02  0.10394E+07
 0.37870003E+02  0.84164E+06
 0.37920002E+02  0.49728E+06
 0.37970001E+02  0.10326E+06
 0.38020000E+02 -0.11680E+06
 0.38070000E+02 -0.41873E+05
 0.38120003E+02 -0.27317E+05
 0.38170002E+02 -0.18022E+06
 0.38220001E+02 -0.38111E+06
 0.38270000E+02 -0.59342E+06
 0.38320000E+02 -0.61240E+06
 0.38370003E+02 -0.49676E+06
 0.38420002E+02 -0.47002E+06
 0.38470001E+02 -0.49338E+06
 0.38520000E+02 -0.42780E+06
 0.38570000E+02 -0.41665E+06
 0.38620003E+02 -0.57457E+06
 0.38670002E+02 -0.74324E+06
 0.38720001E+02 -0.79874E+06
 0.38770000E+02 -0.74165E+06
 0.38820000E+02 -0.56396E+06
 0.38870003E+02 -0.80619E+05
 0.38920002E+02  0.41197E+06
 0.38970001E+02  0.50343E+06
 0.39020000E+02  0.30282E+06
 0.39070000E+02 -0.80589E+05
 0.39120003E+02 -0.31439E+06
 0.39170002E+02 -0.25419E+06
 0.39220001E+02 -0.67949E+05
 0.39270000E+02  0.25690E+06
 0.39320000E+02  0.58204E+06
 0.39370003E+02  0.76718E+06
 0.39420002E+02  0.87127E+06
 0.39470001E+02  0.89530E+06
 0.39520000E+02  0.78143E+06
 0.39570000E+02  0.52420E+06
 0.39620003E+02  0.21689E+06
 0.39670002E+02  0.13677E+06
 0.39720001E+02  0.25319E+06
 0.39770000E+02  0.22744E+06
 0.39820000E+02  0.19843E+06
 0.39870003E+02  0.40843E+06
 0.39920002E+02  0.47118E+06
 0.39970001E+02  0.22788E+06
 0.40020000E+02 -0.57900E+03
 0.40070000E+02 -0.29242E+06
 0.40120003E+02 -0.71353E+06
 0.40170002E+02 -0.98774E+06
 0.40220001E+02 -0.93913E+06
 0.40270000E+02 -0.71296E+06
 0.40320000E+02 -0.55100E+06
 0.40370003E+02 -0.48027E+06
 0.40420002E+02 -0.40907E+06
 0.40470001E+02 -0.40088E+06
 0.40520000E+02 -0.51225E+06
 0.40570000E+02 -0.63531E+06
 0.40620003E+02 -0.76941E+06
 0.40670002E+02 -0.95753E+06
 0.40720001E+02 -0.11540E+07
 0.40770000E+02 -0.12941E+07
 0.40820000E+02 -0.11628E+07
 0.40870003E+02 -0.75916E+06
 0.40920002E+02 -0.38358E+06
 0.40970001E+02 -0.44009E+05
 0.41020000E+02  0.25779E+06
 0.41070000E+02  0.40943E+06
 0.41120003E+02  0.44801E+06
 0.41170002E+02  0.47758E+06
 0.41220001E+02  0.40843E+06
 0.41270000E+02  0.29466E+06
 0.41320000E+02  0.40338E+06
 0.41370003E+02  0.60961E+06
 0.41420002E+02  0.74168E+06
 0.41470001E+02  0.81730E+06
 0.41520000E+02  0.94294E+06
 0.41570000E+02  0.98778E+06
 0.41620003E+02  0.79721E+06
 0.41670002E+02  0.65204E+06
 0.41720001E+02  0.67941E+06
 0.41770000E+02  0.74029E+06
 0.41820000E+02  0.77474E+06
 0.41870003E+02  0.78170E+06
 0.41920002E+02  0.71651E+06
 0.41970001E+02  0.64965E+06
 0.42020000E+02  0.71387E+06
 0.42070000E+02  0.77713E+06
 0.42120003E+02  0.68518E+06
 0.42170002E+02  0.39094E+06
 0.42220001E+02  0.12241E+05
 0.42270000E+02 -0.19508E+06
 0.42320000E+02 -0.38540E+06
 0.42370003E+02 -0.69590E+06
 0.42420002E+02 -0.94720E+06
 0.42470001E+02 -0.11568E+07
 0.42520000E+02 -0.12616E+07
 0.42570000E+02 -0.11861E+07
 0.42620003E+02 -0.11392E+07
 0.42670002E+02 -0.11826E+07
 0.42720001E+02 -0.12711E+07
 0.42770000E+02 -0.13623E+07
 0.42820000E+02 -0.14133E+07
 0.42870003E+02 -0.14788E+07
 0.42920002E+02 -0.14207E+07
 0.42970001E+02 -0.12613E+07
 0.43020000E+02 -0.10841E+07
 0.43070000E+02 -0.79461E+06
 0.43120003E+02 -0.52627E+06
 0.43170002E+02 -0.37143E+06
 0.43220001E+02 -0.33470E+06
 0.43270000E+02 -0.32691E+06
 0.43320000E+02 -0.27525E+06
 0.43370003E+02 -0.17077E+06
 0.43420002E+02  0.28777E+05
 0.43470001E+02  0.31516E+06
 0.43520000E+02  0.66840E+06
 0.43570000E+02  0.89309E+06
 0.43620003E+02  0.90799E+06
 0.43670002E+02  0.85777E+06
 0.43720001E+02  0.84538E+06
 0.43770000E+02  0.74879E+06
 0.43820000E+02  0.55693E+06
 0.43870003E+02  0.59054E+06
 0.43920002E+02  0.76487E+06
 0.43970001E+02  0.81658E+06
 0.44020000E+02  0.77817E+06
 0.44070000E+02  0.72611E+06
 0.44120003E+02  0.64644E+06
 0.44170002E+02  0.48296E+06
 0.44220001E+02  0.33538E+06
 0.44270000E+02  0.20013E+06
 0.44320000E+02  0.13154E+06
 0.44370003E+02  0.17325E+06
 0.44420002E+02  0.26563E+06
 0.44470001E+02  0.56706E+06
 0.44520000E+02  0.82744E+06
 0.44570000E+02  0.82220E+06
 0.44620003E+02  0.75096E+06
 0.44670002E+02  0.65746E+06
 0.44720001E+02  0.48822E+06
 0.44770000E+02  0.23891E+06
 0.44820000E+02 -0.16874E+05
 0.44870003E+02 -0.20721E+06
 0.44920002E+02 -0.39200E+06
 0.44970001E+02 -0.49445E+06
 0.45020000E+02 -0.46121E+06
 0.45070000E+02 -0.49336E+06
 0.45120003E+02 -0.50769E+06
 0.45170002E+02 -0.56346E+06
 0.45220001E+02 -0.68876E+06
 0.45270000E+02 -0.64312E+06
 0.45320000E+02 -0.65284E+06
 0.45370003E+02 -0.79474E+06
 0.45420002E+02 -0.80856E+06
 0.45470001E+02 -0.67086E+06
 0.45520000E+02 -0.54340E+06
 0.45570000E+02 -0.47929E+06
 0.45620003E+02 -0.44543E+06
 0.45670002E+02 -0.41822E+06
 0.45720001E+02 -0.31593E+06
 0.45770000E+02 -0.17394E+06
 0.45820000E+02 -0.16186E+06
 0.45870003E+02 -0.27082E+06
 0.45920002E+02 -0.25954E+06
 0.45970001E+02 -0.13644E+06
 0.46020000E+02 -0.12406E+06
 0.46070000E+02 -0.25166E+06
 0.46120003E+02 -0.37742E+06
 0.46170002E+02 -0.31241E+06
 0.46220001E+02 -0.15472E+06
 0.46270000E+02 -0.86019E+05
 0.46320000E+02  0.86570E+04
 0.46370003E+02  0.21036E+06
 0.46420002E+02  0.36438E+06
 0.46470001E+02  0.38871E+06
 0.46520000E+02  0.38754E+06
 0.46570000E+02  0.41691E+06
 0.46620003E+02  0.49834E+06
 0.46670002E+02  0.60768E+06
 0.46720001E+02  0.69952E+06
 0.46770000E+02  0.69769E+06
 0.46820000E+02  0.63422E+06
 0.46870003E+02  0.66254E+06
 0.46920002E+02  0.65762E+06
 0.46970001E+02  0.55427E+06
 0.47020000E+02  0.54637E+06
 0.47070000E+02  0.61571E+06
 0.47120003E+02  0.62046E+06
 0.47170002E+02  0.51687E+06
 0.47220001E+02  0.32780E+06
 0.47270000E+02  0.24483E+06
 0.47320000E+02  0.25752E+06
 0.47370003E+02  0.17572E+06
 0.47420002E+02  0.23731E+05
 0.47470001E+02 -0.13617E+06
 0.47520000E+02 -0.25757E+06
 0.47570000E+02 -0.30029E+06
 0.47620003E+02 -0.29702E+06
 0.47670002E+02 -0.37553E+06
 0.47720001E+02 -0.53954E+06
 0.47770000E+02 -0.61039E+06
 0.47820000E+02 -0.53410E+06
 0.47870003E+02 -0.42302E+06
 0.47920002E+02 -0.43057E+06
 0.47970001E+02 -0.61327E+06
 0.48020000E+02 -0.73421E+06
 0.48070000E+02 -0.65254E+06
 0.48120003E+02 -0.54684E+06
 0.48170002E+02 -0.40398E+06
 0.48220001E+02 -0.21482E+06
 0.48270000E+02 -0.16168E+06
 0.48320000E+02 -0.13836E+06
 0.48370003E+02  0.94150E+04
 0.48420002E+02  0.15103E+06
 0.48470001E+02  0.19589E+06
 0.48520000E+02  0.11671E+06
 0.48570000E+02 -0.58950E+05
 0.48620003E+02 -0.13188E+06
 0.48670002E+02 -0.13761E+06
 0.48720001E+02 -0.25197E+06
 0.48770000E+02 -0.29763E+06
 0.48820000E+02 -0.21120E+06
 0.48870003E+02 -0.63005E+05
 0.48920002E+02  0.17320E+06
 0.48970001E+02  0.29184E+06
 0.49020000E+02  0.24559E+06
 0.49070000E+02  0.12301E+06
 0.49120003E+02 -0.24578E+05
 0.49170002E+02 -0.44731E+05
 0.49220001E+02  0.40131E+05
 0.49270000E+02  0.15579E+06
 0.49320000E+02  0.16466E+06
 0.49370003E+02  0.86827E+05
 0.49420002E+02  0.12890E+06
 0.49470001E+02  0.26537E+06
 0.49520000E+02  0.39662E+06
 0.49570000E+02  0.49689E+06
 0.49620003E+02  0.56273E+06
 0.49670002E+02  0.46209E+06
 0.49720001E+02  0.27053E+06
 0.49770000E+02  0.16351E+06
 0.49820000E+02  0.12728E+06
 0.49870003E+02  0.92058E+05
 0.49920002E+02  0.12245E+05
 0.49970001E+02  0.79962E+05
 0.50020000E+02  0.23780E+06
 0.50070000E+02  0.29530E+06
 0.50120003E+02  0.31306E+06
 0.50170002E+02  0.38294E+06
 0.50220001E+02  0.55303E+06
 0.50270000E+02  0.68168E+06
 0.50320000E+02  0.58497E+06
 0.50370003E+02  0.38848E+06
 0.50420002E+02  0.35730E+06
 0.50470001E+02  0.35998E+06
 0.50520000E+02  0.25498E+06
 0.50570000E+02  0.75895E+05
 0.50620003E+02 -0.14521E+06
 0.50670002E+02 -0.26913E+06
 0.50720001E+02 -0.42176E+06
 0.50770000E+02 -0.63014E+06
 0.50820000E+02 -0.70052E+06
 0.50870003E+02 -0.65650E+06
 0.50920002E+02 -0.48270E+06
 0.50970001E+02 -0.26301E+06
 0.51020000E+02 -0.16202E+06
 0.51070000E+02 -0.11210E+06
 0.51120003E+02 -0.56892E+05
 0.51170002E+02 -0.12148E+05
 0.51220001E+02 -0.17860E+04
 0.51270000E+02 -0.68073E+05
 0.51320000E+02 -0.22774E+06
 0.51370003E+02 -0.42429E+06
 0.51420002E+02 -0.57190E+06
 0.51470001E+02 -0.60388E+06
 0.51520000E+02 -0.38224E+06
 0.51570000E+02  0.54297E+05
 0.51620003E+02  0.45505E+06
 0.51670002E+02  0.60645E+06
 0.51720001E+02  0.42278E+06
 0.51770000E+02  0.16164E+06
 0.51820000E+02  0.51218E+05
 0.51870003E+02 -0.73600E+04
 0.51920002E+02  0.19759E+05
 0.51970001E+02  0.13324E+06
 0.52020000E+02  0.12844E+06
 0.52070000E+02  0.28651E+05
 0.52120003E+02 -0.90733E+05
 0.52170002E+02 -0.23656E+06
 0.52220001E+02 -0.25738E+06
 0.52270000E+02 -0.55070E+05
 0.52320000E+02  0.96489E+05
 0.52370003E+02 -0.43020E+04
 0.52420002E+02 -0.11294E+06
 0.52470001E+02 -0.10562E+06
 0.52520000E+02 -0.33910E+04
 0.52570000E+02  0.19872E+06
 0.52620003E+02  0.41984E+06
 0.52670002E+02  0.62530E+06
 0.52720001E+02  0.77226E+06
 0.52770000E+02  0.74280E+06
 0.52820000E+02  0.50058E+06
 0.52870003E+02  0.27788E+06
 0.52920002E+02  0.17946E+06
 0.52970001E+02  0.71454E+05
 0.53020000E+02  0.63324E+05
 0.53070000E+02  0.15937E+06
 0.53120003E+02  0.15279E+06
 0.53170002E+02  0.12591E+06
 0.53220001E+02  0.12214E+06
 0.53270000E+02  0.80923E+05
 0.53320000E+02  0.46702E+05
 0.53370003E+02 -0.37971E+05
 0.53420002E+02 -0.13778E+06
 0.53470001E+02 -0.17452E+06
 0.53520000E+02 -0.22279E+06
 0.53570000E+02 -0.29858E+06
 0.53620003E+02 -0.25432E+06
 0.53670002E+02 -0.10753E+06
 0.53720001E+02 -0.11241E+06
 0.53770000E+02 -0.26150E+06
 0.53820000E+02 -0.47219E+06
 0.53870003E+02 -0.66542E+06
 0.53920002E+02 -0.65364E+06
 0.53970001E+02 -0.57269E+06
 0.54020000E+02 -0.46668E+06
 0.54070000E+02 -0.21027E+06
 0.54120003E+02  0.11063E+06
 0.54170002E+02  0.41626E+06
 0.54220001E+02  0.63293E+06
 0.54270000E+02  0.71234E+06
 0.54320000E+02  0.57868E+06
 0.54370003E+02  0.27872E+06
 0.54420002E+02  0.79292E+05
 0.54470001E+02  0.94397E+05
 0.54520000E+02  0.20920E+06
 0.54570000E+02  0.38570E+06
 0.54620003E+02  0.54164E+06
 0.54670002E+02  0.52441E+06
 0.54720001E+02  0.45312E+06
 0.54770000E+02  0.53390E+06
 0.54820000E+02  0.73032E+06
 0.54870003E+02  0.76066E+06
 0.54920002E+02  0.75872E+06
 0.54970001E+02  0.82810E+06
 0.55020000E+02  0.65468E+06
 0.55070000E+02  0.40902E+06
 0.55120003E+02  0.35177E+06
 0.55170002E+02  0.50440E+06
 0.55220001E+02  0.90386E+06
 0.55270000E+02  0.11344E+07
 0.55320000E+02  0.71189E+06
 0.55370003E+02 -0.84842E+05
 0.55420002E+02 -0.62365E+06
 0.55470001E+02 -0.66146E+06
 0.55520000E+02 -0.65144E+06
 0.55570000E+02 -0.88960E+06
 0.55620003E+02 -0.12165E+07
 0.55670002E+02 -0.12785E+07
 0.55720001E+02 -0.11565E+07
 0.55770000E+02 -0.16254E+07
 0.55820000E+02 -0.24768E+07
 0.55870003E+02 -0.32000E+07
 0.55920002E+02 -0.32791E+07
 0.55970001E+02 -0.21980E+07
 0.56020000E+02 -0.62041E+06
 0.56070000E+02  0.79005E+06
 0.56120003E+02  0.18004E+07
 0.56170002E+02  0.27281E+07
 0.56220001E+02  0.34319E+07
 0.56270000E+02  0.29323E+07
 0.56320000E+02  0.15593E+07
 0.56370003E+02  0.91691E+05
 0.56420002E+02 -0.67645E+06
 0.56470001E+02 -0.10026E+06
 0.56520000E+02  0.84491E+06
 0.56570000E+02  0.15348E+07
 0.56620003E+02  0.17840E+07
 0.56670002E+02  0.10360E+07
 0.56720001E+02  0.20917E+06
 0.56770000E+02  0.67166E+06
 0.56820000E+02  0.24035E+07
 0.56870003E+02  0.39545E+07
 0.56920002E+02  0.41126E+07
 0.56970001E+02  0.26121E+07
 0.57020000E+02  0.44599E+06
 0.57070000E+02 -0.75051E+06
 0.57120003E+02 -0.12742E+07
 0.57170002E+02 -0.19739E+07
 0.57220001E+02 -0.32733E+07
 0.57270000E+02 -0.36993E+07
 0.57320000E+02 -0.20318E+07
 0.57370003E+02 -0.57096E+06
 0.57420002E+02  0.22013E+06
 0.57470001E+02  0.10700E+07
 0.57520000E+02  0.15878E+07
 0.57570000E+02  0.16681E+07
 0.57620003E+02  0.67368E+06
 0.57670002E+02 -0.10103E+07
 0.57720001E+02 -0.25155E+07
 0.57770000E+02 -0.41598E+07
 0.57820000E+02 -0.57351E+07
 0.57870003E+02 -0.59580E+07
 0.57920002E+02 -0.49768E+07
 0.57970001E+02 -0.36996E+07
 0.58020000E+02 -0.16786E+07
 0.58070000E+02  0.34601E+06
 0.58120003E+02  0.12242E+07
 0.58170002E+02  0.97784E+06
 0.58220001E+02  0.18947E+06
 0.58270000E+02  0.40846E+06
 0.58320000E+02  0.93819E+06
 0.58370003E+02  0.14541E+05
 0.58420002E+02 -0.13651E+07
 0.58470001E+02 -0.17774E+07
 0.58520000E+02 -0.98622E+06
 0.58570000E+02  0.37008E+06
 0.58620003E+02  0.11763E+07
 0.58670002E+02  0.14012E+07
 0.58720001E+02  0.11321E+07
 0.58770000E+02  0.44734E+06
 0.58820000E+02  0.24597E+06
 0.58870003E+02 -0.16557E+06
 0.58920002E+02 -0.64525E+06
 0.58970001E+02 -0.64008E+06
 0.59020000E+02 -0.95499E+06
 0.59070000E+02 -0.20990E+06
 0.59120003E+02  0.18314E+07
 0.59170002E+02  0.35216E+07
 0.59220001E+02  0.39307E+07
 0.59270000E+02  0.30093E+07
 0.59320000E+02  0.18338E+07
 0.59370003E+02  0.10134E+07
 0.59420002E+02  0.10881E+07
 0.59470001E+02  0.15400E+07
 0.59520000E+02  0.13296E+07
 0.59570000E+02  0.91940E+06
 0.59620003E+02  0.74873E+06
 0.59670002E+02  0.35922E+06
 0.59720001E+02 -0.65196E+06
 0.59770000E+02 -0.16505E+07
 0.59820000E+02 -0.20388E+07
 0.59870003E+02 -0.20184E+07
 0.59920002E+02 -0.23103E+07
 0.59970001E+02 -0.27292E+07
 0.60020000E+02 -0.17313E+07
 0.60070000E+02  0.28145E+06
 0.60120003E+02  0.10379E+07
 0.60170002E+02  0.12107E+06
 0.60220001E+02 -0.79792E+06
 0.60270000E+02 -0.68519E+06
 0.60320000E+02 -0.84392E+06
 0.60370003E+02 -0.17747E+07
 0.60420002E+02 -0.21833E+07
 0.60470001E+02 -0.19934E+07
 0.60520000E+02 -0.14637E+07
 0.60570000E+02 -0.14781E+07
 0.60620003E+02 -0.19943E+07
 0.60670002E+02 -0.95583E+06
 0.60720001E+02  0.13252E+07
 0.60770000E+02  0.29397E+07
 0.60820000E+02  0.30143E+07
 0.60870003E+02  0.18972E+07
 0.60920002E+02  0.46320E+06
 0.60970001E+02 -0.92273E+06
 0.61020000E+02 -0.22435E+07
 0.61070004E+02 -0.32203E+07
 0.61119999E+02 -0.31475E+07
 0.61170002E+02 -0.19016E+07
 0.61220005E+02 -0.15279E+06
 0.61270000E+02  0.12866E+07
 0.61320004E+02  0.25023E+07
 0.61369999E+02  0.36647E+07
 0.61420002E+02  0.40798E+07
 0.61470005E+02  0.34457E+07
 0.61520000E+02  0.26659E+07
 0.61570004E+02  0.27691E+07
 0.61619999E+02  0.34149E+07
 0.61670002E+02  0.41487E+07
 0.61720005E+02  0.42980E+07
 0.61770000E+02  0.37568E+07
 0.61820004E+02  0.35886E+07
 0.61869999E+02  0.36726E+07
 0.61920002E+02  0.35037E+07
 0.61970005E+02  0.30157E+07
 0.62020000E+02  0.21474E+07
 0.62070004E+02  0.10964E+07
 0.62119999E+02  0.52684E+06
 0.62170002E+02  0.44000E+06
 0.62220005E+02  0.48715E+06
 0.62270000E+02  0.12231E+07
 0.62320004E+02  0.20841E+07
 0.62369999E+02  0.19609E+07
 0.62420002E+02  0.12177E+07
 0.62470005E+02  0.52911E+06
 0.62520000E+02 -0.28717E+06
 0.62570004E+02 -0.15244E+07
 0.62619999E+02 -0.27636E+07
 0.62670002E+02 -0.36756E+07
 0.62720005E+02 -0.39649E+07
 0.62770000E+02 -0.40291E+07
 0.62820004E+02 -0.46271E+07
 0.62869999E+02 -0.50470E+07
 0.62920002E+02 -0.49992E+07
 0.62970005E+02 -0.46670E+07
 0.63020000E+02 -0.37728E+07
 0.63070004E+02 -0.31556E+07
 0.63119999E+02 -0.33061E+07
 0.63170002E+02 -0.34371E+07
 0.63220005E+02 -0.30407E+07
 0.63270000E+02 -0.20661E+07
 0.63320004E+02 -0.10222E+07
 0.63369999E+02 -0.20725E+06
 0.63420002E+02  0.66290E+06
 0.63470005E+02  0.13149E+07
 0.63520000E+02  0.13557E+07
 0.63570004E+02  0.79448E+06
 0.63619999E+02  0.16245E+06
 0.63670002E+02 -0.26387E+06
 0.63720005E+02 -0.95972E+06
 0.63770000E+02 -0.16148E+07
 0.63820004E+02 -0.16014E+07
 0.63869999E+02 -0.12226E+07
 0.63920002E+02 -0.99485E+06
 0.63970005E+02 -0.75022E+06
 0.64019997E+02  0.15150E+06
 0.64070000E+02  0.13152E+07
 0.64119995E+02  0.17214E+07
 0.64169998E+02  0.12795E+07
 0.64220001E+02  0.36024E+06
 0.64269997E+02 -0.35715E+06
 0.64320000E+02 -0.68271E+06
 0.64369995E+02 -0.93725E+06
 0.64419998E+02 -0.71579E+06
 0.64470001E+02  0.21678E+06
 0.64519997E+02  0.13411E+07
 0.64570000E+02  0.18380E+07
 0.64619995E+02  0.14754E+07
 0.64669998E+02  0.76846E+06
 0.64720001E+02  0.97963E+05
 0.64769997E+02 -0.43150E+06
 0.64820000E+02 -0.71661E+06
 0.64869995E+02 -0.69161E+06
 0.64919998E+02 -0.36230E+06
 0.64970001E+02  0.18643E+06
 0.65019997E+02  0.48540E+06
 0.65070000E+02  0.41255E+06
 0.65119995E+02  0.22780E+06
 0.65169998E+02 -0.13009E+06
 0.65220001E+02 -0.49161E+06
 0.65269997E+02 -0.54030E+06
 0.65320000E+02 -0.90161E+05
 0.65369995E+02  0.90806E+06
 0.65419998E+02  0.22619E+07
 0.65470001E+02  0.35309E+07
 0.65519997E+02  0.42882E+07
 0.65570000E+02  0.45673E+07
 0.65619995E+02  0.46259E+07
 0.65669998E+02  0.44929E+07
 0.65720001E+02  0.41650E+07
 0.65769997E+02  0.36186E+07
 0.65820000E+02  0.26399E+07
 0.65869995E+02  0.14482E+07
 0.65919998E+02  0.24360E+04
 0.65970001E+02 -0.18969E+07
 0.66019997E+02 -0.35362E+07
 0.66070000E+02 -0.41624E+07
 0.66119995E+02 -0.37507E+07
 0.66169998E+02 -0.31495E+07
 0.66220001E+02 -0.29988E+07
 0.66269997E+02 -0.34084E+07
 0.66320000E+02 -0.41450E+07
 0.66369995E+02 -0.43945E+07
 0.66419998E+02 -0.39676E+07
 0.66470001E+02 -0.33952E+07
 0.66519997E+02 -0.30659E+07
 0.66570000E+02 -0.30856E+07
 0.66619995E+02 -0.33315E+07
 0.66669998E+02 -0.33837E+07
 0.66720001E+02 -0.32120E+07
 0.66769997E+02 -0.30447E+07
 0.66820000E+02 -0.25852E+07
 0.66869995E+02 -0.17713E+07
 0.66919998E+02 -0.67989E+06
 0.66970001E+02  0.64366E+06
 0.67019997E+02  0.13805E+07
 0.67070000E+02  0.11975E+07
 0.67119995E+02  0.11199E+07
 0.67169998E+02  0.13173E+07
 0.67220001E+02  0.12680E+07
 0.67269997E+02  0.13383E+07
 0.67320000E+02  0.15761E+07
 0.67369995E+02  0.15072E+07
 0.67419998E+02  0.13982E+07
 0.67470001E+02  0.18635E+07
 0.67519997E+02  0.30414E+07
 0.67570000E+02  0.44491E+07
 0.67619995E+02  0.52613E+07
 0.67669998E+02  0.53969E+07
 0.67720001E+02  0.53609E+07
 0.67769997E+02  0.51291E+07
 0.67820000E+02  0.43251E+07
 0.67869995E+02  0.31308E+07
 0.67919998E+02  0.21366E+07
 0.67970001E+02  0.16740E+07
 0.68019997E+02  0.18618E+07
 0.68070000E+02  0.23001E+07
 0.68119995E+02  0.24257E+07
 0.68169998E+02  0.20537E+07
 0.68220001E+02  0.11717E+07
 0.68269997E+02  0.30746E+06
 0.68320000E+02  0.10642E+06
 0.68369995E+02  0.39812E+06
 0.68419998E+02  0.48543E+06
 0.68470001E+02  0.19482E+05
 0.68519997E+02 -0.62133E+06
 0.68570000E+02 -0.10195E+07
 0.68619995E+02 -0.13116E+07
 0.68669998E+02 -0.16350E+07
 0.68720001E+02 -0.20546E+07
 0.68769997E+02 -0.25855E+07
 0.68820000E+02 -0.28218E+07
 0.68869995E+02 -0.25411E+07
 0.68919998E+02 -0.18882E+07
 0.68970001E+02 -0.11309E+07
 0.69019997E+02 -0.48162E+06
 0.69070000E+02 -0.83171E+05
 0.69119995E+02  0.10008E+06
 0.69169998E+02  0.41287E+06
 0.69220001E+02  0.53400E+06
 0.69269997E+02  0.37514E+05
 0.69320000E+02 -0.66249E+06
 0.69369995E+02 -0.11993E+07
 0.69419998E+02 -0.15802E+07
 0.69470001E+02 -0.18038E+07
 0.69519997E+02 -0.18954E+07
 0.69570000E+02 -0.18796E+07
 0.69619995E+02 -0.16090E+07
 0.69669998E+02 -0.10764E+07
 0.69720001E+02 -0.44127E+06
 0.69769997E+02  0.23166E+06
 0.69820000E+02  0.69744E+06
 0.69869995E+02  0.66392E+06
 0.69919998E+02  0.50654E+06
 0.69970001E+02  0.66222E+06
 0.70019997E+02  0.97201E+06
 0.70070000E+02  0.10711E+07
 0.70119995E+02  0.65393E+06
 0.70169998E+02 -0.24466E+05
 0.70220001E+02 -0.59394E+06
 0.70269997E+02 -0.10954E+07
 0.70320000E+02 -0.15379E+07
 0.70369995E+02 -0.18414E+07
 0.70419998E+02 -0.19404E+07
 0.70470001E+02 -0.20305E+07
 0.70519997E+02 -0.22375E+07
 0.70570000E+02 -0.21999E+07
 0.70619995E+02 -0.16532E+07
 0.70669998E+02 -0.74759E+06
 0.70720001E+02  0.15080E+06
 0.70769997E+02  0.93045E+06
 0.70820000E+02  0.16308E+07
 0.70869995E+02  0.18612E+07
 0.70919998E+02  0.15089E+07
 0.70970001E+02  0.11868E+07
 0.71019997E+02  0.12987E+07
 0.71070000E+02  0.14096E+07
 0.71119995E+02  0.11370E+07
 0.71169998E+02  0.78481E+06
 0.71220001E+02  0.49477E+06
 0.71269997E+02  0.23393E+06
 0.71320000E+02  0.12030E+06
 0.71369995E+02  0.25988E+06
 0.71419998E+02  0.68377E+06
 0.71470001E+02  0.11564E+07
 0.71519997E+02  0.15148E+07
 0.71570000E+02  0.19185E+07
 0.71619995E+02  0.26549E+07
 0.71669998E+02  0.36293E+07
 0.71720001E+02  0.41604E+07
 0.71769997E+02  0.40120E+07
 0.71820000E+02  0.33409E+07
 0.71869995E+02  0.22961E+07
 0.71919998E+02  0.12786E+07
 0.71970001E+02  0.41465E+06
 0.72019997E+02 -0.41614E+06
 0.72070000E+02 -0.11626E+07
 0.72119995E+02 -0.16678E+07
 0.72169998E+02 -0.19788E+07
 0.72220001E+02 -0.22451E+07
 0.72269997E+02 -0.23116E+07
 0.72320000E+02 -0.20381E+07
 0.72369995E+02 -0.17247E+07
 0.72419998E+02 -0.15809E+07
 0.72470001E+02 -0.14803E+07
 0.72519997E+02 -0.12426E+07
 0.72570000E+02 -0.74101E+06
 0.72619995E+02 -0.18001E+06
 0.72669998E+02  0.23655E+06
 0.72720001E+02  0.21124E+06
 0.72769997E+02 -0.45806E+06
 0.72820000E+02 -0.13834E+07
 0.72869995E+02 -0.22316E+07
 0.72919998E+02 -0.27453E+07
 0.72970001E+02 -0.28624E+07
 0.73019997E+02 -0.27563E+07
 0.73070000E+02 -0.21980E+07
 0.73119995E+02 -0.92547E+06
 0.73169998E+02  0.72500E+06
 0.73220001E+02  0.20396E+07
 0.73269997E+02  0.24749E+07
 0.73320000E+02  0.21756E+07
 0.73369995E+02  0.17246E+07
 0.73419998E+02  0.12778E+07
 0.73470001E+02  0.80442E+06
 0.73519997E+02  0.54946E+06
 0.73570000E+02  0.64232E+06
 0.73619995E+02  0.95040E+06
 0.73669998E+02  0.12510E+07
 0.73720001E+02  0.14015E+07
 0.73769997E+02  0.13731E+07
 0.73820000E+02  0.12088E+07
 0.73869995E+02  0.11906E+07
 0.73919998E+02  0.14413E+07
 0.73970001E+02  0.17871E+07
 0.74019997E+02  0.21746E+07
 0.74070000E+02  0.24343E+07
 0.74119995E+02  0.23321E+07
 0.74169998E+02  0.18182E+07
 0.74220001E+02  0.10970E+07
 0.74269997E+02  0.41791E+06
 0.74320000E+02 -0.20460E+06
 0.74369995E+02 -0.70849E+06
 0.74419998E+02 -0.10943E+07
 0.74470001E+02 -0.14172E+07
 0.74519997E+02 -0.16572E+07
 0.74570000E+02 -0.18025E+07
 0.74619995E+02 -0.17519E+07
 0.74669998E+02 -0.16682E+07
 0.74720001E+02 -0.16662E+07
 0.74769997E+02 -0.16401E+07
 0.74820000E+02 -0.16395E+07
 0.74869995E+02 -0.15315E+07
 0.74919998E+02 -0.13292E+07
 0.74970001E+02 -0.11671E+07
 0.75019997E+02 -0.96117E+06
 0.75070000E+02 -0.71495E+06
 0.75119995E+02 -0.37610E+06
 0.75169998E+02  0.46520E+04
 0.75220001E+02  0.22342E+06
 0.75269997E+02  0.24131E+06
 0.75320000E+02  0.12586E+06
 0.75369995E+02 -0.57512E+05
 0.75419998E+02 -0.30540E+06
 0.75470001E+02 -0.54178E+06
 0.75519997E+02 -0.66226E+06
 0.75570000E+02 -0.65296E+06
 0.75619995E+02 -0.49785E+06
 0.75669998E+02 -0.17551E+06
 0.75720001E+02  0.27131E+06
 0.75769997E+02  0.66076E+06
 0.75820000E+02  0.85988E+06
 0.75869995E+02  0.88911E+06
 0.75919998E+02  0.68678E+06
 0.75970001E+02  0.27514E+06
 0.76019997E+02 -0.12136E+06
 0.76070000E+02 -0.46517E+06
 0.76119995E+02 -0.84726E+06
 0.76169998E+02 -0.12051E+07
 0.76220001E+02 -0.13470E+07
 0.76269997E+02 -0.13125E+07
 0.76320000E+02 -0.13172E+07
 0.76369995E+02 -0.13548E+07
 0.76419998E+02 -0.14392E+07
 0.76470001E+02 -0.14773E+07
 0.76519997E+02 -0.13131E+07
 0.76570000E+02 -0.10429E+07
 0.76619995E+02 -0.67391E+06
 0.76669998E+02 -0.32503E+06
 0.76720001E+02 -0.29089E+06
 0.76769997E+02 -0.63787E+06
 0.76820000E+02 -0.11873E+07
 0.76869995E+02 -0.15533E+07
 0.76919998E+02 -0.15406E+07
 0.76970001E+02 -0.13697E+07
 0.77019997E+02 -0.11718E+07
 0.77070000E+02 -0.87093E+06
 0.77119995E+02 -0.43403E+06
 0.77169998E+02  0.49322E+05
 0.77220001E+02  0.26131E+06
 0.77269997E+02  0.49425E+05
 0.77320000E+02 -0.33996E+06
 0.77369995E+02 -0.57863E+06
 0.77419998E+02 -0.50078E+06
 0.77470001E+02 -0.12608E+06
 0.77519997E+02  0.37509E+06
 0.77570000E+02  0.56160E+06
 0.77619995E+02  0.29709E+06
 0.77669998E+02 -0.20432E+06
 0.77720001E+02 -0.76544E+06
 0.77769997E+02 -0.11253E+07
 0.77820000E+02 -0.11670E+07
 0.77869995E+02 -0.90292E+06
 0.77919998E+02 -0.44269E+06
 0.77970001E+02  0.71019E+05
 0.78019997E+02  0.40184E+06
 0.78070000E+02  0.25863E+06
 0.78119995E+02 -0.30157E+06
 0.78169998E+02 -0.88747E+06
 0.78220001E+02 -0.12348E+07
 0.78269997E+02 -0.14414E+07
 0.78320000E+02 -0.14717E+07
 0.78369995E+02 -0.12117E+07
 0.78419998E+02 -0.66979E+06
 0.78470001E+02  0.35951E+05
 0.78519997E+02  0.65940E+06
 0.78570000E+02  0.11268E+07
 0.78619995E+02  0.14484E+07
 0.78669998E+02  0.14791E+07
 0.78720001E+02  0.11225E+07
 0.78769997E+02  0.66552E+06
 0.78820000E+02  0.36650E+06
 0.78869995E+02  0.27436E+06
 0.78919998E+02  0.36135E+06
 0.78970001E+02  0.50783E+06
 0.79019997E+02  0.82306E+06
 0.79070000E+02  0.13478E+07
 0.79119995E+02  0.17996E+07
 0.79169998E+02  0.19553E+07
 0.79220001E+02  0.18966E+07
 0.79269997E+02  0.17454E+07
 0.79320000E+02  0.15051E+07
 0.79369995E+02  0.12661E+07
 0.79419998E+02  0.10164E+07
 0.79470001E+02  0.65199E+06
 0.79519997E+02  0.83838E+05
 0.79570000E+02 -0.75968E+06
 0.79619995E+02 -0.16513E+07
 0.79669998E+02 -0.23177E+07
 0.79720001E+02 -0.27545E+07
 0.79769997E+02 -0.29886E+07
 0.79820000E+02 -0.30020E+07
 0.79869995E+02 -0.28087E+07
 0.79919998E+02 -0.24403E+07
 0.79970001E+02 -0.19618E+07
 0.80019997E+02 -0.15092E+07
 0.80070000E+02 -0.11681E+07
 0.80119995E+02 -0.91176E+06
 0.80169998E+02 -0.76817E+06
 0.80220001E+02 -0.81817E+06
 0.80269997E+02 -0.11072E+07
 0.80320000E+02 -0.15579E+07
 0.80369995E+02 -0.18203E+07
 0.80419998E+02 -0.16010E+07
 0.80470001E+02 -0.10148E+07
 0.80519997E+02 -0.26427E+06
 0.80570000E+02  0.59827E+06
 0.80619995E+02  0.15314E+07
 0.80669998E+02  0.23553E+07
 0.80720001E+02  0.28389E+07
 0.80769997E+02  0.29956E+07
 0.80820000E+02  0.29855E+07
 0.80869995E+02  0.28433E+07
 0.80919998E+02  0.26125E+07
 0.80970001E+02  0.23793E+07
 0.81019997E+02  0.21384E+07
 0.81070000E+02  0.18665E+07
 0.81119995E+02  0.16126E+07
 0.81169998E+02  0.13687E+07
 0.81220001E+02  0.11452E+07
 0.81269997E+02  0.10061E+07
 0.81320000E+02  0.88639E+06
 0.81369995E+02  0.73758E+06
 0.81419998E+02  0.56160E+06
 0.81470001E+02  0.39664E+06
 0.81519997E+02  0.21720E+06
 0.81570000E+02 -0.10938E+06
 0.81619995E+02 -0.52504E+06
 0.81669998E+02 -0.87722E+06
 0.81720001E+02 -0.10634E+07
 0.81769997E+02 -0.97396E+06
 0.81820000E+02 -0.70202E+06
 0.81869995E+02 -0.44940E+06
 0.81919998E+02 -0.22202E+06
 0.81970001E+02  0.36219E+05
 0.82019997E+02  0.20643E+06
 0.82070000E+02  0.14513E+06
 0.82119995E+02 -0.12793E+05
 0.82169998E+02 -0.16717E+05
 0.82220001E+02  0.24331E+06
 0.82269997E+02  0.61088E+06
 0.82320000E+02  0.92553E+06
 0.82369995E+02  0.12817E+07
 0.82419998E+02  0.16850E+07
 0.82470001E+02  0.20014E+07
 0.82519997E+02  0.21145E+07
 0.82570000E+02  0.20830E+07
 0.82619995E+02  0.18970E+07
 0.82669998E+02  0.13672E+07
 0.82720001E+02  0.64842E+06
 0.82769997E+02  0.47718E+05
 0.82820000E+02 -0.19424E+06
 0.82869995E+02 -0.68784E+05
 0.82919998E+02  0.77544E+05
 0.82970001E+02  0.45621E+05
 0.83019997E+02 -0.11805E+06
 0.83070000E+02 -0.28168E+06
 0.83119995E+02 -0.36689E+06
 0.83169998E+02 -0.35669E+06
 0.83220001E+02 -0.21906E+06
 0.83269997E+02 -0.84742E+05
 0.83320000E+02 -0.11407E+05
 0.83369995E+02  0.19704E+06
 0.83419998E+02  0.59369E+06
 0.83470001E+02  0.10306E+07
 0.83519997E+02  0.13096E+07
 0.83570000E+02  0.12942E+07
 0.83619995E+02  0.11765E+07
 0.83669998E+02  0.12455E+07
 0.83720001E+02  0.14714E+07
 0.83769997E+02  0.16606E+07
 0.83820000E+02  0.16489E+07
 0.83869995E+02  0.14153E+07
 0.83919998E+02  0.11454E+07
 0.83970001E+02  0.98000E+06
 0.84019997E+02  0.92107E+06
 0.84070000E+02  0.86782E+06
 0.84119995E+02  0.70785E+06
 0.84169998E+02  0.46247E+06
 0.84220001E+02  0.23477E+06
 0.84269997E+02  0.79152E+05
 0.84320000E+02 -0.54535E+05
 0.84369995E+02 -0.17059E+06
 0.84419998E+02 -0.30241E+06
 0.84470001E+02 -0.49882E+06
 0.84519997E+02 -0.62205E+06
 0.84570000E+02 -0.62118E+06
 0.84619995E+02 -0.58524E+06
 0.84669998E+02 -0.57186E+06
 0.84720001E+02 -0.63753E+06
 0.84769997E+02 -0.78224E+06
 0.84820000E+02 -0.95659E+06
 0.84869995E+02 -0.10586E+07
 0.84919998E+02 -0.94411E+06
 0.84970001E+02 -0.55634E+06
 0.85019997E+02 -0.18953E+05
 0.85070000E+02  0.41070E+06
 0.85119995E+02  0.65113E+06
 0.85169998E+02  0.82889E+06
 0.85220001E+02  0.97598E+06
 0.85269997E+02  0.10173E+07
 0.85320000E+02  0.91452E+06
 0.85369995E+02  0.77040E+06
 0.85419998E+02  0.68622E+06
 0.85470001E+02  0.64086E+06
 0.85519997E+02  0.61243E+06
 0.85570000E+02  0.54250E+06
 0.85619995E+02  0.37882E+06
 0.85669998E+02  0.15770E+06
 0.85720001E+02 -0.44006E+05
 0.85769997E+02 -0.13242E+06
 0.85820000E+02 -0.83241E+05
 0.85869995E+02 -0.62700E+05
 0.85919998E+02 -0.21687E+06
 0.85970001E+02 -0.48944E+06
 0.86019997E+02 -0.78650E+06
 0.86070000E+02 -0.10274E+07
 0.86119995E+02 -0.12248E+07
 0.86169998E+02 -0.13925E+07
 0.86220001E+02 -0.15196E+07
 0.86269997E+02 -0.16777E+07
 0.86320000E+02 -0.18321E+07
 0.86369995E+02 -0.19581E+07
 0.86419998E+02 -0.20750E+07
 0.86470001E+02 -0.21211E+07
 0.86519997E+02 -0.20525E+07
 0.86570000E+02 -0.18547E+07
 0.86619995E+02 -0.15482E+07
 0.86669998E+02 -0.11575E+07
 0.86720001E+02 -0.78226E+06
 0.86769997E+02 -0.57576E+06
 0.86820000E+02 -0.50754E+06
 0.86869995E+02 -0.45696E+06
 0.86919998E+02 -0.42813E+06
 0.86970001E+02 -0.45474E+06
 0.87019997E+02 -0.48678E+06
 0.87070000E+02 -0.44443E+06
 0.87119995E+02 -0.19981E+06
 0.87169998E+02  0.22768E+06
 0.87220001E+02  0.63581E+06
 0.87269997E+02  0.94416E+06
 0.87320000E+02  0.11335E+07
 0.87369995E+02  0.11685E+07
 0.87419998E+02  0.10560E+07
 0.87470001E+02  0.88778E+06
 0.87519997E+02  0.75172E+06
 0.87570000E+02  0.64127E+06
 0.87619995E+02  0.49479E+06
 0.87669998E+02  0.23753E+06
 0.87720001E+02 -0.88440E+05
 0.87769997E+02 -0.36236E+06
 0.87820000E+02 -0.46543E+06
 0.87869995E+02 -0.41058E+06
 0.87919998E+02 -0.34894E+06
 0.87970001E+02 -0.33323E+06
 0.88019997E+02 -0.33728E+06
 0.88070000E+02 -0.32484E+06
 0.88119995E+02 -0.28364E+06
 0.88169998E+02 -0.28257E+06
 0.88220001E+02 -0.35443E+06
 0.88269997E+02 -0.44714E+06
 0.88320000E+02 -0.61687E+06
 0.88369995E+02 -0.96230E+06
 0.88419998E+02 -0.13760E+07
 0.88470001E+02 -0.16733E+07
 0.88519997E+02 -0.17500E+07
 0.88570000E+02 -0.16479E+07
 0.88619995E+02 -0.15291E+07
 0.88669998E+02 -0.14313E+07
 0.88720001E+02 -0.12869E+07
 0.88769997E+02 -0.11096E+07
 0.88820000E+02 -0.86025E+06
 0.88869995E+02 -0.53096E+06
 0.88919998E+02 -0.32042E+06
 0.88970001E+02 -0.28843E+06
 0.89019997E+02 -0.29844E+06
 0.89070000E+02 -0.25590E+06
 0.89119995E+02 -0.11418E+06
 0.89169998E+02  0.13636E+06
 0.89220001E+02  0.45568E+06
 0.89269997E+02  0.70556E+06
 0.89320000E+02  0.76686E+06
 0.89369995E+02  0.68597E+06
 0.89419998E+02  0.54160E+06
 0.89470001E+02  0.38000E+06
 0.89519997E+02  0.26204E+06
 0.89570000E+02  0.23588E+06
 0.89619995E+02  0.33687E+06
 0.89669998E+02  0.56623E+06
 0.89720001E+02  0.91371E+06
 0.89769997E+02  0.13141E+07
 0.89820000E+02  0.16591E+07
 0.89869995E+02  0.19045E+07
 0.89919998E+02  0.20070E+07
 0.89970001E+02  0.19502E+07
 0.90019997E+02  0.17400E+07
 0.90070000E+02  0.13914E+07
 0.90119995E+02  0.10069E+07
 0.90169998E+02  0.69854E+06
 0.90220001E+02  0.46418E+06
 0.90269997E+02  0.25504E+06
 0.90320000E+02  0.15077E+05
 0.90369995E+02 -0.32245E+06
 0.90419998E+02 -0.69104E+06
 0.90470001E+02 -0.96821E+06
 0.90519997E+02 -0.11533E+07
 0.90570000E+02 -0.13260E+07
 0.90619995E+02 -0.14745E+07
 0.90669998E+02 -0.15566E+07
 0.90720001E+02 -0.15823E+07
 0.90769997E+02 -0.15333E+07
 0.90820000E+02 -0.14542E+07
 0.90869995E+02 -0.13819E+07
 0.90919998E+02 -0.12745E+07
 0.90970001E+02 -0.11300E+07
 0.91019997E+02 -0.10006E+07
 0.91070000E+02 -0.89114E+06
 0.91119995E+02 -0.67287E+06
 0.91169998E+02 -0.29534E+06
 0.91220001E+02  0.78589E+05
 0.91269997E+02  0.32219E+06
 0.91320000E+02  0.40554E+06
 0.91369995E+02  0.31008E+06
 0.91419998E+02  0.99095E+05
 0.91470001E+02 -0.84745E+05
 0.91519997E+02 -0.17544E+06
 0.91570000E+02 -0.14063E+06
 0.91619995E+02  0.10752E+06
 0.91669998E+02  0.55020E+06
 0.91720001E+02  0.10903E+07
 0.91769997E+02  0.16256E+07
 0.91820000E+02  0.20536E+07
 0.91869995E+02  0.23343E+07
 0.91919998E+02  0.24438E+07
 0.91970001E+02  0.23952E+07
 0.92019997E+02  0.22765E+07
 0.92070000E+02  0.21792E+07
 0.92119995E+02  0.20981E+07
 0.92169998E+02  0.19895E+07
 0.92220001E+02  0.18826E+07
 0.92269997E+02  0.17828E+07
 0.92320000E+02  0.16039E+07
 0.92369995E+02  0.12841E+07
 0.92419998E+02  0.83266E+06
 0.92470001E+02  0.31133E+06
 0.92519997E+02 -0.14182E+06
 0.92570000E+02 -0.37876E+06
 0.92619995E+02 -0.33598E+06
 0.92669998E+02 -0.95789E+05
 0.92720001E+02  0.17970E+06
 0.92769997E+02  0.41942E+06
 0.92820000E+02  0.62926E+06
 0.92869995E+02  0.75278E+06
 0.92919998E+02  0.74797E+06
 0.92970001E+02  0.61799E+06
 0.93019997E+02  0.40316E+06
 0.93070000E+02  0.25079E+06
 0.93119995E+02  0.19503E+06
 0.93169998E+02  0.20775E+06
 0.93220001E+02  0.28961E+06
 0.93269997E+02  0.31174E+06
 0.93320000E+02  0.17874E+06
 0.93369995E+02 -0.75255E+05
 0.93419998E+02 -0.32450E+06
 0.93470001E+02 -0.50446E+06
 0.93519997E+02 -0.70992E+06
 0.93570000E+02 -0.98931E+06
 0.93619995E+02 -0.12905E+07
 0.93669998E+02 -0.15103E+07
 0.93720001E+02 -0.15762E+07
 0.93769997E+02 -0.15166E+07
 0.93820000E+02 -0.13370E+07
 0.93869995E+02 -0.10331E+07
 0.93919998E+02 -0.70134E+06
 0.93970001E+02 -0.45830E+06
 0.94019997E+02 -0.34857E+06
 0.94070000E+02 -0.29214E+06
 0.94119995E+02 -0.17615E+06
 0.94169998E+02 -0.51593E+05
 0.94220001E+02 -0.25185E+05
 0.94269997E+02 -0.53392E+05
 0.94320000E+02 -0.43766E+05
 0.94369995E+02  0.31613E+05
 0.94419998E+02  0.13652E+06
 0.94470001E+02  0.17978E+06
 0.94519997E+02  0.11792E+06
 0.94570000E+02 -0.54281E+05
 0.94619995E+02 -0.26882E+06
 0.94669998E+02 -0.38259E+06
 0.94720001E+02 -0.37612E+06
 0.94769997E+02 -0.31091E+06
 0.94820000E+02 -0.21998E+06
 0.94869995E+02 -0.18118E+06
 0.94919998E+02 -0.30632E+06
 0.94970001E+02 -0.58634E+06
 0.95019997E+02 -0.91977E+06
 0.95070000E+02 -0.12779E+07
 0.95119995E+02 -0.16476E+07
 0.95169998E+02 -0.19718E+07
 0.95220001E+02 -0.22402E+07
 0.95269997E+02 -0.24592E+07
 0.95320000E+02 -0.25869E+07
 0.95369995E+02 -0.25702E+07
 0.95419998E+02 -0.23560E+07
 0.95470001E+02 -0.19616E+07
 0.95519997E+02 -0.15441E+07
 0.95570000E+02 -0.12477E+07
 0.95619995E+02 -0.10426E+07
 0.95669998E+02 -0.81178E+06
 0.95720001E+02 -0.51888E+06
 0.95769997E+02 -0.21004E+06
 0.95820000E+02  0.54872E+05
 0.95869995E+02  0.25036E+06
 0.95919998E+02  0.37114E+06
 0.95970001E+02  0.38167E+06
 0.96019997E+02  0.28083E+06
 0.96070000E+02  0.18851E+06
 0.96119995E+02  0.19470E+06
 0.96169998E+02  0.28474E+06
 0.96220001E+02  0.47863E+06
 0.96269997E+02  0.77386E+06
 0.96320000E+02  0.11041E+07
 0.96369995E+02  0.14219E+07
 0.96419998E+02  0.17146E+07
 0.96470001E+02  0.19394E+07
 0.96519997E+02  0.20222E+07
 0.96570000E+02  0.19146E+07
 0.96619995E+02  0.16259E+07
 0.96669998E+02  0.12324E+07
 0.96720001E+02  0.82296E+06
 0.96769997E+02  0.48520E+06
 0.96820000E+02  0.23271E+06
 0.96869995E+02  0.37802E+05
 0.96919998E+02 -0.93006E+05
 0.96970001E+02 -0.11344E+06
 0.97019997E+02  0.33219E+05
 0.97070000E+02  0.28287E+06
 0.97119995E+02  0.50508E+06
 0.97169998E+02  0.61211E+06
 0.97220001E+02  0.61030E+06
 0.97269997E+02  0.56518E+06
 0.97320000E+02  0.55264E+06
 0.97369995E+02  0.59875E+06
 0.97419998E+02  0.60615E+06
 0.97470001E+02  0.52123E+06
 0.97519997E+02  0.40388E+06
 0.97570000E+02  0.29712E+06
 0.97619995E+02  0.18618E+06
 0.97669998E+02  0.33249E+05
 0.97720001E+02 -0.18987E+06
 0.97769997E+02 -0.42335E+06
 0.97820000E+02 -0.54241E+06
 0.97869995E+02 -0.46295E+06
 0.97919998E+02 -0.17878E+06
 0.97970001E+02  0.18708E+06
 0.98019997E+02  0.49941E+06
 0.98070000E+02  0.70437E+06
 0.98119995E+02  0.77390E+06
 0.98169998E+02  0.76259E+06
 0.98220001E+02  0.75693E+06
 0.98269997E+02  0.78511E+06
 0.98320000E+02  0.80810E+06
 0.98369995E+02  0.77008E+06
 0.98419998E+02  0.74189E+06
 0.98470001E+02  0.80165E+06
 0.98519997E+02  0.90970E+06
 0.98570000E+02  0.10032E+07
 0.98619995E+02  0.10389E+07
 0.98669998E+02  0.99660E+06
 0.98720001E+02  0.81801E+06
 0.98769997E+02  0.49690E+06
 0.98820000E+02  0.15677E+06
 0.98869995E+02 -0.97198E+05
 0.98919998E+02 -0.24728E+06
 0.98970001E+02 -0.29908E+06
 0.99019997E+02 -0.24196E+06
 0.99070000E+02 -0.15568E+06
 0.99119995E+02 -0.13277E+06
 0.99169998E+02 -0.18404E+06
 0.99220001E+02 -0.30710E+06
 0.99269997E+02 -0.45989E+06
 0.99320000E+02 -0.61268E+06
 0.99369995E+02 -0.74004E+06
 0.99419998E+02 -0.83105E+06
 0.99470001E+02 -0.90566E+06
 0.99519997E+02 -0.97922E+06
 0.99570000E+02 -0.10736E+07
 0.99619995E+02 -0.11342E+07
 0.99669998E+02 -0.11068E+07
 0.99720001E+02 -0.99489E+06
 0.99769997E+02 -0.78908E+06
 0.99820000E+02 -0.51907E+06
 0.99869995E+02 -0.22212E+06
 0.99919998E+02  0.92297E+05
 0.99970001E+02  0.37014E+06
 0.10002000E+03  0.54524E+06
 0.10007000E+03  0.60678E+06
 0.10012000E+03  0.57100E+06
 0.10017000E+03  0.45879E+06
 0.10022000E+03  0.32014E+06
 0.10027000E+03  0.17588E+06
 0.10032000E+03  0.44932E+05
 0.10037000E+03  0.14405E+05
 0.10042000E+03  0.14029E+06
 0.10047000E+03  0.38726E+06
 0.10052000E+03  0.61081E+06
 0.10057000E+03  0.67085E+06
 0.10062000E+03  0.56301E+06
 0.10067000E+03  0.37647E+06
 0.10072000E+03  0.17500E+06
 0.10077000E+03 -0.37304E+05
 0.10082000E+03 -0.20753E+06
 0.10087000E+03 -0.28784E+06
 0.10092000E+03 -0.32014E+06
 0.10097000E+03 -0.35315E+06
 0.10102000E+03 -0.39380E+06
 0.10107000E+03 -0.44705E+06
 0.10112000E+03 -0.52541E+06
 0.10117000E+03 -0.62831E+06
 0.10122000E+03 -0.71991E+06
 0.10127000E+03 -0.74972E+06
 0.10132000E+03 -0.71508E+06
 0.10137000E+03 -0.61799E+06
 0.10142000E+03 -0.45798E+06
 0.10147000E+03 -0.26317E+06
 0.10152000E+03 -0.64593E+05
 0.10157000E+03  0.83084E+05
 0.10162000E+03  0.14512E+06
 0.10167000E+03  0.12113E+06
 0.10172000E+03  0.37034E+05
 0.10177000E+03 -0.19686E+05
 0.10182000E+03  0.30141E+05
 0.10187000E+03  0.16951E+06
 0.10192000E+03  0.29376E+06
 0.10197000E+03  0.34165E+06
 0.10202000E+03  0.33502E+06
 0.10207000E+03  0.31611E+06
 0.10212000E+03  0.29322E+06
 0.10217000E+03  0.22931E+06
 0.10222000E+03  0.11046E+06
 0.10227000E+03 -0.34102E+05
 0.10232000E+03 -0.14709E+06
 0.10237000E+03 -0.19826E+06
 0.10242000E+03 -0.20318E+06
 0.10247000E+03 -0.18670E+06
 0.10252000E+03 -0.16320E+06
 0.10257000E+03 -0.14970E+06
 0.10262000E+03 -0.16928E+06
 0.10267000E+03 -0.19497E+06
 0.10272000E+03 -0.22362E+06
 0.10277000E+03 -0.29968E+06
 0.10282000E+03 -0.42405E+06
 0.10287000E+03 -0.57549E+06
 0.10292000E+03 -0.72520E+06
 0.10297000E+03 -0.84866E+06
 0.10302000E+03 -0.94663E+06
 0.10307000E+03 -0.10297E+07
 0.10312000E+03 -0.10872E+07
 0.10317000E+03 -0.11109E+07
 0.10322000E+03 -0.11113E+07
 0.10327000E+03 -0.10916E+07
 0.10332000E+03 -0.10300E+07
 0.10337000E+03 -0.89146E+06
 0.10342000E+03 -0.70913E+06
 0.10347000E+03 -0.54537E+06
 0.10352000E+03 -0.40894E+06
 0.10357000E+03 -0.28039E+06
 0.10362000E+03 -0.13863E+06
 0.10367000E+03  0.34279E+05
 0.10372000E+03  0.21122E+06
 0.10377000E+03  0.34670E+06
 0.10382000E+03  0.45997E+06
 0.10387000E+03  0.56873E+06
 0.10392000E+03  0.65574E+06
 0.10397000E+03  0.73704E+06
 0.10402000E+03  0.82679E+06
 0.10407000E+03  0.90919E+06
 0.10412000E+03  0.97372E+06
 0.10417000E+03  0.99475E+06
 0.10422000E+03  0.97739E+06
 0.10427000E+03  0.97535E+06
 0.10432000E+03  0.99527E+06
 0.10437000E+03  0.10244E+07
 0.10442000E+03  0.10474E+07
 0.10447000E+03  0.10230E+07
 0.10452000E+03  0.93464E+06
 0.10457000E+03  0.80143E+06
 0.10462000E+03  0.65728E+06
 0.10467000E+03  0.50601E+06
 0.10472000E+03  0.35081E+06
 0.10477000E+03  0.19874E+06
 0.10482000E+03  0.18740E+05
 0.10487000E+03 -0.17323E+06
 0.10492000E+03 -0.32704E+06
 0.10497000E+03 -0.43592E+06
 0.10502000E+03 -0.51014E+06
 0.10507000E+03 -0.55050E+06
 0.10512000E+03 -0.54777E+06
 0.10517000E+03 -0.50206E+06
 0.10522000E+03 -0.43279E+06
 0.10527000E+03 -0.34202E+06
 0.10532000E+03 -0.21166E+06
 0.10537000E+03 -0.45991E+05
 0.10542000E+03  0.11426E+06
 0.10547000E+03  0.21321E+06
 0.10552000E+03  0.22725E+06
 0.10557000E+03  0.19968E+06
 0.10562000E+03  0.18806E+06
 0.10567000E+03  0.19115E+06
 0.10572000E+03  0.20137E+06
 0.10577000E+03  0.23181E+06
 0.10582000E+03  0.27972E+06
 0.10587000E+03  0.35743E+06
 0.10592000E+03  0.48161E+06
 0.10597000E+03  0.64280E+06
 0.10602000E+03  0.82040E+06
 0.10607000E+03  0.96777E+06
 0.10612000E+03  0.10065E+07
 0.10617000E+03  0.90166E+06
 0.10622000E+03  0.71194E+06
 0.10627000E+03  0.52483E+06
 0.10632000E+03  0.39732E+06
 0.10637000E+03  0.34004E+06
 0.10642000E+03  0.30021E+06
 0.10647000E+03  0.22740E+06
 0.10652000E+03  0.11199E+06
 0.10657000E+03 -0.27674E+05
 0.10662000E+03 -0.14598E+06
 0.10667000E+03 -0.22223E+06
 0.10672000E+03 -0.25901E+06
 0.10677000E+03 -0.27381E+06
 0.10682000E+03 -0.30184E+06
 0.10687000E+03 -0.35259E+06
 0.10692000E+03 -0.41343E+06
 0.10697000E+03 -0.47920E+06
 0.10702000E+03 -0.53240E+06
 0.10707000E+03 -0.56341E+06
 0.10712000E+03 -0.58531E+06
 0.10717000E+03 -0.58396E+06
 0.10722000E+03 -0.57084E+06
 0.10727000E+03 -0.58062E+06
 0.10732000E+03 -0.59375E+06
 0.10737000E+03 -0.59670E+06
 0.10742000E+03 -0.62469E+06
 0.10747000E+03 -0.70387E+06
 0.10752000E+03 -0.82905E+06
 0.10757000E+03 -0.96398E+06
 0.10762000E+03 -0.10608E+07
 0.10767000E+03 -0.10916E+07
 0.10772000E+03 -0.10309E+07
 0.10777000E+03 -0.86476E+06
 0.10782000E+03 -0.61599E+06
 0.10787000E+03 -0.33395E+06
 0.10792000E+03 -0.73638E+05
 0.10797000E+03  0.11242E+06
 0.10802000E+03  0.22252E+06
 0.10807000E+03  0.28650E+06
 0.10812000E+03  0.29303E+06
 0.10817000E+03  0.23670E+06
 0.10822000E+03  0.12562E+06
 0.10827000E+03 -0.23008E+05
 0.10832000E+03 -0.16685E+06
 0.10837000E+03 -0.25424E+06
 0.10842000E+03 -0.25685E+06
 0.10847000E+03 -0.22801E+06
 0.10852000E+03 -0.21732E+06
 0.10857000E+03 -0.20661E+06
 0.10862000E+03 -0.17551E+06
 0.10867000E+03 -0.13269E+06
 0.10872000E+03 -0.91273E+05
 0.10877000E+03 -0.47496E+05
 0.10882000E+03 -0.13840E+05
 0.10887000E+03  0.87240E+04
 0.10892000E+03  0.24625E+05
 0.10897000E+03 -0.89870E+04
 0.10902000E+03 -0.91535E+05
 0.10907000E+03 -0.16988E+06
 0.10912000E+03 -0.21854E+06
 0.10917000E+03 -0.21742E+06
 0.10922000E+03 -0.15168E+06
 0.10927000E+03 -0.89240E+04
 0.10932000E+03  0.18520E+06
 0.10937000E+03  0.37133E+06
 0.10942000E+03  0.53129E+06
 0.10947000E+03  0.66071E+06
 0.10952000E+03  0.76737E+06
 0.10957000E+03  0.86313E+06
 0.10962000E+03  0.94384E+06
 0.10967000E+03  0.98720E+06
 0.10972000E+03  0.99554E+06
 0.10977000E+03  0.10173E+07
 0.10982000E+03  0.10534E+07
 0.10987000E+03  0.10677E+07
 0.10992000E+03  0.10398E+07
 0.10997000E+03  0.98273E+06
 0.11002000E+03  0.94377E+06
 0.11007000E+03  0.92890E+06
 0.11012000E+03  0.89545E+06
 0.11017000E+03  0.81170E+06
 0.11022000E+03  0.69129E+06
 0.11027000E+03  0.58092E+06
 0.11032000E+03  0.49104E+06
 0.11037000E+03  0.40051E+06
 0.11042000E+03  0.30742E+06
 0.11047000E+03  0.22325E+06
 0.11052000E+03  0.14834E+06
 0.11057000E+03  0.76159E+05
 0.11062000E+03  0.41230E+04
 0.11067000E+03 -0.95612E+05
 0.11072000E+03 -0.22170E+06
 0.11077000E+03 -0.32903E+06
 0.11082000E+03 -0.40102E+06
 0.11087000E+03 -0.43857E+06
 0.11092000E+03 -0.45636E+06
 0.11097000E+03 -0.46862E+06
 0.11102000E+03 -0.47430E+06
 0.11107000E+03 -0.46488E+06
 0.11112000E+03 -0.43296E+06
 0.11117000E+03 -0.37315E+06
 0.11122000E+03 -0.28244E+06
 0.11127000E+03 -0.18112E+06
 0.11132000E+03 -0.72856E+05
 0.11137000E+03  0.48240E+05
 0.11142000E+03  0.15047E+06
 0.11147000E+03  0.19930E+06
 0.11152000E+03  0.17964E+06
 0.11157000E+03  0.97780E+05
 0.11162000E+03 -0.26639E+05
 0.11167000E+03 -0.16899E+06
 0.11172000E+03 -0.27107E+06
 0.11177000E+03 -0.29884E+06
 0.11182000E+03 -0.28995E+06
 0.11187000E+03 -0.28348E+06
 0.11192000E+03 -0.28500E+06
 0.11197000E+03 -0.26180E+06
 0.11202000E+03 -0.19299E+06
 0.11207000E+03 -0.11637E+06
 0.11212000E+03 -0.37333E+05
 0.11217000E+03  0.63371E+05
 0.11222000E+03  0.15707E+06
 0.11227000E+03  0.20431E+06
 0.11232000E+03  0.17879E+06
 0.11237000E+03  0.88651E+05
 0.11242000E+03 -0.43926E+05
 0.11247000E+03 -0.17544E+06
 0.11252000E+03 -0.24108E+06
 0.11257000E+03 -0.23168E+06
 0.11262000E+03 -0.16491E+06
 0.11267000E+03 -0.55490E+05
 0.11272000E+03  0.51160E+05
 0.11277000E+03  0.84811E+05
 0.11282000E+03  0.21270E+05
 0.11287000E+03 -0.10910E+06
 0.11292000E+03 -0.27481E+06
 0.11297000E+03 -0.43332E+06
 0.11302000E+03 -0.56287E+06
 0.11307000E+03 -0.67225E+06
 0.11312000E+03 -0.76425E+06
 0.11317000E+03 -0.85076E+06
 0.11322000E+03 -0.94635E+06
 0.11327000E+03 -0.10316E+07
 0.11332000E+03 -0.10621E+07
 0.11337000E+03 -0.10237E+07
 0.11342000E+03 -0.92800E+06
 0.11347000E+03 -0.79584E+06
 0.11352000E+03 -0.66461E+06
 0.11357000E+03 -0.54040E+06
 0.11362000E+03 -0.40158E+06
 0.11367000E+03 -0.25557E+06
 0.11372000E+03 -0.12251E+06
 0.11377000E+03 -0.67740E+04
 0.11382000E+03  0.88569E+05
 0.11387000E+03  0.16470E+06
 0.11392000E+03  0.22722E+06
 0.11397000E+03  0.28308E+06
 0.11402000E+03  0.34317E+06
 0.11407000E+03  0.40634E+06
 0.11412000E+03  0.48544E+06
 0.11417000E+03  0.59612E+06
 0.11422000E+03  0.72365E+06
 0.11427000E+03  0.83519E+06
 0.11432000E+03  0.88864E+06
 0.11437000E+03  0.88255E+06
 0.11442000E+03  0.83943E+06
 0.11447000E+03  0.75819E+06
 0.11452000E+03  0.64422E+06
 0.11457000E+03  0.52045E+06
 0.11462000E+03  0.42472E+06
 0.11467000E+03  0.38251E+06
 0.11472000E+03  0.37273E+06
 0.11477000E+03  0.37395E+06
 0.11482000E+03  0.38594E+06
 0.11487000E+03  0.39176E+06
 0.11492000E+03  0.37613E+06
 0.11497000E+03  0.33507E+06
 0.11502000E+03  0.25897E+06
 0.11507000E+03  0.13637E+06
 0.11512000E+03 -0.45278E+05
 0.11517000E+03 -0.28202E+06
 0.11522000E+03 -0.54669E+06
 0.11527000E+03 -0.78632E+06
 0.11532000E+03 -0.94581E+06
 0.11537000E+03 -0.10255E+07
 0.11542000E+03 -0.10491E+07
 0.11547000E+03 -0.10214E+07
 0.11552000E+03 -0.93786E+06
 0.11557000E+03 -0.80744E+06
 0.11562000E+03 -0.66938E+06
 0.11567000E+03 -0.54715E+06
 0.11572000E+03 -0.45251E+06
 0.11577000E+03 -0.41515E+06
 0.11582000E+03 -0.44192E+06
 0.11587000E+03 -0.50374E+06
 0.11592000E+03 -0.56048E+06
 0.11597000E+03 -0.57384E+06
 0.11602000E+03 -0.53318E+06
 0.11607000E+03 -0.45689E+06
 0.11612000E+03 -0.36766E+06
 0.11617000E+03 -0.29815E+06
 0.11622000E+03 -0.25491E+06
 0.11627000E+03 -0.19934E+06
 0.11632000E+03 -0.10816E+06
 0.11637000E+03  0.15937E+05
 0.11642000E+03  0.17121E+06
 0.11647000E+03  0.35828E+06
 0.11652000E+03  0.56670E+06
 0.11657000E+03  0.76782E+06
 0.11662000E+03  0.94183E+06
 0.11667000E+03  0.10926E+07
 0.11672000E+03  0.12198E+07
 0.11677000E+03  0.13132E+07
 0.11682000E+03  0.13815E+07
 0.11687000E+03  0.14516E+07
 0.11692000E+03  0.15308E+07
 0.11697000E+03  0.16002E+07
 0.11702000E+03  0.16217E+07
 0.11707000E+03  0.15626E+07
 0.11712000E+03  0.14162E+07
 0.11717000E+03  0.11781E+07
 0.11722000E+03  0.87053E+06
 0.11727000E+03  0.55122E+06
 0.11732000E+03  0.25674E+06
 0.11737000E+03 -0.13258E+05
 0.11742000E+03 -0.26694E+06
 0.11747000E+03 -0.48098E+06
 0.11752000E+03 -0.62325E+06
 0.11757000E+03 -0.70261E+06
 0.11762000E+03 -0.74154E+06
 0.11767000E+03 -0.75216E+06
 0.11772000E+03 -0.74469E+06
 0.11777000E+03 -0.72781E+06
 0.11782000E+03 -0.69555E+06
 0.11787000E+03 -0.62799E+06
 0.11792000E+03 -0.52484E+06
 0.11797000E+03 -0.40093E+06
 0.11802000E+03 -0.27352E+06
 0.11807000E+03 -0.15363E+06
 0.11812000E+03 -0.40476E+05
 0.11817000E+03  0.60570E+05
 0.11822000E+03  0.14834E+06
 0.11827000E+03  0.22662E+06
 0.11832000E+03  0.28330E+06
 0.11837000E+03  0.30249E+06
 0.11842000E+03  0.30054E+06
 0.11847000E+03  0.31273E+06
 0.11852000E+03  0.34953E+06
 0.11857000E+03  0.39042E+06
 0.11862000E+03  0.40279E+06
 0.11867000E+03  0.37494E+06
 0.11872000E+03  0.32432E+06
 0.11877000E+03  0.28085E+06
 0.11882000E+03  0.26605E+06
 0.11887000E+03  0.27351E+06
 0.11892000E+03  0.27658E+06
 0.11897000E+03  0.25493E+06
 0.11902000E+03  0.20005E+06
 0.11907000E+03  0.11205E+06
 0.11912000E+03  0.54130E+04
 0.11917000E+03 -0.10915E+06
 0.11922000E+03 -0.22533E+06
 0.11927000E+03 -0.33914E+06
 0.11932000E+03 -0.46116E+06
 0.11937000E+03 -0.59831E+06
 0.11942000E+03 -0.73048E+06
 0.11947000E+03 -0.83657E+06
 0.11952000E+03 -0.92408E+06
 0.11957000E+03 -0.10006E+07
 0.11962000E+03 -0.10517E+07
 0.11967000E+03 -0.10460E+07
 0.11972000E+03 -0.97048E+06
 0.11977000E+03 -0.84761E+06
 0.11982000E+03 -0.71965E+06
 0.11987000E+03 -0.62382E+06
 0.11992000E+03 -0.56630E+06
 0.11997000E+03 -0.53410E+06
 0.12002000E+03 -0.50083E+06
 0.12007000E+03 -0.43190E+06
 0.12012000E+03 -0.31882E+06
 0.12017000E+03 -0.17475E+06
 0.12022000E+03  0.37240E+04
 0.12027000E+03  0.21415E+06
 0.12032000E+03  0.43287E+06
 0.12037000E+03  0.64079E+06
 0.12042000E+03  0.81655E+06
 0.12047000E+03  0.94688E+06
 0.12052000E+03  0.10346E+07
 0.12057000E+03  0.10888E+07
 0.12062000E+03  0.11125E+07
 0.12067000E+03  0.10866E+07
 0.12072000E+03  0.10061E+07
 0.12077000E+03  0.90268E+06
 0.12082000E+03  0.80711E+06
 0.12087000E+03  0.71561E+06
 0.12092000E+03  0.62293E+06
 0.12097000E+03  0.53447E+06
 0.12102000E+03  0.44833E+06
 0.12107000E+03  0.35794E+06
 0.12112000E+03  0.24989E+06
 0.12117000E+03  0.12171E+06
 0.12122000E+03 -0.25776E+05
 0.12127000E+03 -0.18840E+06
 0.12132000E+03 -0.33741E+06
 0.12137000E+03 -0.44665E+06
 0.12142000E+03 -0.52115E+06
 0.12147000E+03 -0.57916E+06
 0.12152000E+03 -0.63791E+06
 0.12157000E+03 -0.70889E+06
 0.12162000E+03 -0.79440E+06
 0.12167000E+03 -0.90277E+06
 0.12172000E+03 -0.10270E+07
 0.12177000E+03 -0.11406E+07
 0.12182000E+03 -0.12228E+07
 0.12187000E+03 -0.12514E+07
 0.12192000E+03 -0.12211E+07
 0.12197000E+03 -0.11452E+07
 0.12202000E+03 -0.10234E+07
 0.12207000E+03 -0.86449E+06
 0.12212000E+03 -0.68270E+06
 0.12217000E+03 -0.47967E+06
 0.12222000E+03 -0.26791E+06
 0.12227000E+03 -0.42225E+05
 0.12232000E+03  0.20510E+06
 0.12237000E+03  0.44248E+06
 0.12242000E+03  0.64071E+06
 0.12247000E+03  0.80274E+06
 0.12252000E+03  0.93208E+06
 0.12257000E+03  0.10064E+07
 0.12262000E+03  0.10231E+07
 0.12267000E+03  0.10132E+07
 0.12272000E+03  0.10041E+07
 0.12277000E+03  0.98922E+06
 0.12282000E+03  0.94755E+06
 0.12287000E+03  0.89563E+06
 0.12292000E+03  0.84225E+06
 0.12297000E+03  0.77178E+06
 0.12302000E+03  0.67993E+06
 0.12307000E+03  0.56487E+06
 0.12312000E+03  0.42858E+06
 0.12317000E+03  0.27346E+06
 0.12322000E+03  0.11688E+06
 0.12327000E+03 -0.11543E+05
 0.12332000E+03 -0.11504E+06
 0.12337000E+03 -0.20320E+06
 0.12342000E+03 -0.25833E+06
 0.12347000E+03 -0.27091E+06
 0.12352000E+03 -0.24736E+06
 0.12357000E+03 -0.19733E+06
 0.12362000E+03 -0.13837E+06
 0.12367000E+03 -0.94162E+05
 0.12372000E+03 -0.81399E+05
 0.12377000E+03 -0.98654E+05
 0.12382000E+03 -0.13250E+06
 0.12387000E+03 -0.16759E+06
 0.12392000E+03 -0.19574E+06
 0.12397000E+03 -0.21813E+06
 0.12402000E+03 -0.23447E+06
 0.12407000E+03 -0.23233E+06
 0.12412000E+03 -0.19388E+06
 0.12417000E+03 -0.10993E+06
 0.12422000E+03  0.11590E+05
 0.12427000E+03  0.14488E+06
 0.12432000E+03  0.26048E+06
 0.12437000E+03  0.35489E+06
 0.12442000E+03  0.45190E+06
 0.12447000E+03  0.55906E+06
 0.12452000E+03  0.65418E+06
 0.12457000E+03  0.71436E+06
 0.12462000E+03  0.73133E+06
 0.12467000E+03  0.69832E+06
 0.12472000E+03  0.60706E+06
 0.12477000E+03  0.46988E+06
 0.12482000E+03  0.31714E+06
 0.12487000E+03  0.18149E+06
 0.12492000E+03  0.89782E+05
 0.12497000E+03  0.34882E+05
 0.12502000E+03 -0.72300E+04
 0.12507000E+03 -0.52736E+05
 0.12512000E+03 -0.12467E+06
 0.12517001E+03 -0.23173E+06
 0.12521999E+03 -0.36474E+06
 0.12527000E+03 -0.50750E+06
 0.12532000E+03 -0.64680E+06
 0.12537000E+03 -0.78899E+06
 0.12542001E+03 -0.92721E+06
 0.12546999E+03 -0.10371E+07
 0.12552000E+03 -0.11056E+07
 0.12557000E+03 -0.11386E+07
 0.12562000E+03 -0.11608E+07
 0.12567001E+03 -0.11849E+07
 0.12571999E+03 -0.11987E+07
 0.12577000E+03 -0.11857E+07
 0.12582000E+03 -0.11421E+07
 0.12587000E+03 -0.10777E+07
 0.12592001E+03 -0.10012E+07
 0.12596999E+03 -0.90977E+06
 0.12602000E+03 -0.79419E+06
 0.12607000E+03 -0.64668E+06
 0.12612000E+03 -0.47567E+06
 0.12617001E+03 -0.30345E+06
 0.12621999E+03 -0.15062E+06
 0.12627000E+03 -0.30592E+05
 0.12632000E+03  0.63455E+05
 0.12637000E+03  0.14899E+06
 0.12642001E+03  0.23250E+06
 0.12646999E+03  0.31831E+06
 0.12652000E+03  0.41529E+06
 0.12657000E+03  0.52422E+06
 0.12662000E+03  0.63667E+06
 0.12667001E+03  0.74817E+06
 0.12671999E+03  0.85899E+06
 0.12677000E+03  0.95588E+06
 0.12682000E+03  0.10183E+07
 0.12687000E+03  0.10487E+07
 0.12692001E+03  0.10448E+07
 0.12696999E+03  0.10039E+07
 0.12702000E+03  0.96122E+06
 0.12707000E+03  0.94272E+06
 0.12712000E+03  0.94085E+06
 0.12717001E+03  0.93930E+06
 0.12721999E+03  0.92130E+06
 0.12727000E+03  0.88766E+06
 0.12732000E+03  0.84170E+06
 0.12737000E+03  0.77625E+06
 0.12742001E+03  0.69302E+06
 0.12746999E+03  0.59772E+06
 0.12752000E+03  0.49404E+06
 0.12757000E+03  0.38170E+06
 0.12762000E+03  0.26265E+06
 0.12767001E+03  0.14442E+06
 0.12771999E+03  0.33872E+05
 0.12777000E+03 -0.66569E+05
 0.12782000E+03 -0.15947E+06
 0.12787000E+03 -0.25028E+06
 0.12792001E+03 -0.34955E+06
 0.12796999E+03 -0.46285E+06
 0.12802000E+03 -0.57430E+06
 0.12807001E+03 -0.65038E+06
 0.12812001E+03 -0.66372E+06
 0.12817001E+03 -0.61510E+06
 0.12822000E+03 -0.54319E+06
 0.12827000E+03 -0.48468E+06
 0.12832001E+03 -0.44879E+06
 0.12837001E+03 -0.44703E+06
 0.12842001E+03 -0.48928E+06
 0.12847000E+03 -0.57253E+06
 0.12852000E+03 -0.69313E+06
 0.12857001E+03 -0.83869E+06
 0.12862001E+03 -0.97988E+06
 0.12867001E+03 -0.10877E+07
 0.12872000E+03 -0.11441E+07
 0.12877000E+03 -0.11404E+07
 0.12882001E+03 -0.10772E+07
 0.12887001E+03 -0.96945E+06
 0.12892001E+03 -0.83516E+06
 0.12897000E+03 -0.68986E+06
 0.12902000E+03 -0.54814E+06
 0.12907001E+03 -0.42556E+06
 0.12912001E+03 -0.34893E+06
 0.12917001E+03 -0.31317E+06
 0.12922000E+03 -0.27474E+06
 0.12927000E+03 -0.21781E+06
 0.12932001E+03 -0.15947E+06
 0.12937001E+03 -0.10694E+06
 0.12942001E+03 -0.52339E+05
 0.12947000E+03  0.12661E+05
 0.12952000E+03  0.10225E+06
 0.12957001E+03  0.22371E+06
 0.12962001E+03  0.36467E+06
 0.12967001E+03  0.50624E+06
 0.12972000E+03  0.63250E+06
 0.12977000E+03  0.73796E+06
 0.12982001E+03  0.83483E+06
 0.12987001E+03  0.93399E+06
 0.12992001E+03  0.10199E+07
 0.12997000E+03  0.10674E+07
 0.13002000E+03  0.10577E+07
 0.13007001E+03  0.98164E+06
 0.13012001E+03  0.85616E+06
 0.13017001E+03  0.72097E+06
 0.13022000E+03  0.60991E+06
 0.13027000E+03  0.53027E+06
 0.13032001E+03  0.47018E+06
 0.13037001E+03  0.41280E+06
 0.13042001E+03  0.35614E+06
 0.13047000E+03  0.30797E+06
 0.13052000E+03  0.26604E+06
 0.13057001E+03  0.23985E+06
 0.13062001E+03  0.24028E+06
 0.13067001E+03  0.25335E+06
 0.13072000E+03  0.26021E+06
 0.13077000E+03  0.24815E+06
 0.13082001E+03  0.21342E+06
 0.13087001E+03  0.16577E+06
 0.13092001E+03  0.12296E+06
 0.13097000E+03  0.10385E+06
 0.13102000E+03  0.12094E+06
 0.13107001E+03  0.16824E+06
 0.13112001E+03  0.22837E+06
 0.13117001E+03  0.28588E+06
 0.13122000E+03  0.33213E+06
 0.13127000E+03  0.36816E+06
 0.13132001E+03  0.38653E+06
 0.13137001E+03  0.37742E+06
 0.13142001E+03  0.34006E+06
 0.13147000E+03  0.28054E+06
 0.13152000E+03  0.21405E+06
 0.13157001E+03  0.14287E+06
 0.13162001E+03  0.65490E+05
 0.13167001E+03 -0.36040E+04
 0.13172000E+03 -0.59746E+05
 0.13177000E+03 -0.11204E+06
 0.13182001E+03 -0.15709E+06
 0.13187001E+03 -0.18277E+06
 0.13192001E+03 -0.19106E+06
 0.13197000E+03 -0.20115E+06
 0.13202000E+03 -0.22651E+06
 0.13207001E+03 -0.26137E+06
 0.13212001E+03 -0.29477E+06
 0.13217001E+03 -0.31661E+06
 0.13222000E+03 -0.32407E+06
 0.13227000E+03 -0.31732E+06
 0.13232001E+03 -0.28723E+06
 0.13237001E+03 -0.23515E+06
 0.13242001E+03 -0.18752E+06
 0.13247000E+03 -0.17514E+06
 0.13252000E+03 -0.20125E+06
 0.13257001E+03 -0.24338E+06
 0.13262001E+03 -0.27874E+06
 0.13267001E+03 -0.29617E+06
 0.13272000E+03 -0.29143E+06
 0.13277000E+03 -0.26631E+06
 0.13282001E+03 -0.23944E+06
 0.13287001E+03 -0.22713E+06
 0.13292001E+03 -0.22664E+06
 0.13297000E+03 -0.23583E+06
 0.13302000E+03 -0.25988E+06
 0.13307001E+03 -0.30568E+06
 0.13312001E+03 -0.38163E+06
 0.13317001E+03 -0.47637E+06
 0.13322000E+03 -0.55688E+06
 0.13327000E+03 -0.60830E+06
 0.13332001E+03 -0.63276E+06
 0.13337001E+03 -0.63356E+06
 0.13342001E+03 -0.62555E+06
 0.13347000E+03 -0.61974E+06
 0.13352000E+03 -0.60841E+06
 0.13357001E+03 -0.58150E+06
 0.13362001E+03 -0.53618E+06
 0.13367001E+03 -0.46512E+06
 0.13372000E+03 -0.36220E+06
 0.13377000E+03 -0.24099E+06
 0.13382001E+03 -0.12019E+06
 0.13387001E+03 -0.32960E+04
 0.13392001E+03  0.11556E+06
 0.13397000E+03  0.23370E+06
 0.13402000E+03  0.34239E+06
 0.13407001E+03  0.43579E+06
 0.13412001E+03  0.51004E+06
 0.13417001E+03  0.56709E+06
 0.13422000E+03  0.61379E+06
 0.13427000E+03  0.65998E+06
 0.13432001E+03  0.69929E+06
 0.13437001E+03  0.71127E+06
 0.13442001E+03  0.69330E+06
 0.13447000E+03  0.65753E+06
 0.13452000E+03  0.61473E+06
 0.13457001E+03  0.57502E+06
 0.13462001E+03  0.54536E+06
 0.13467001E+03  0.51452E+06
 0.13472000E+03  0.45688E+06
 0.13477000E+03  0.36211E+06
 0.13482001E+03  0.24545E+06
 0.13487001E+03  0.12279E+06
 0.13492001E+03 -0.32460E+04
 0.13497000E+03 -0.12849E+06
 0.13502000E+03 -0.24415E+06
 0.13507001E+03 -0.35290E+06
 0.13512001E+03 -0.45755E+06
 0.13517001E+03 -0.54388E+06
 0.13522000E+03 -0.60120E+06
 0.13527000E+03 -0.62185E+06
 0.13532001E+03 -0.60151E+06
 0.13537001E+03 -0.55497E+06
 0.13542001E+03 -0.49799E+06
 0.13547000E+03 -0.44510E+06
 0.13552000E+03 -0.41113E+06
 0.13557001E+03 -0.39940E+06
 0.13562001E+03 -0.41355E+06
 0.13567001E+03 -0.45436E+06
 0.13572000E+03 -0.50370E+06
 0.13577000E+03 -0.54175E+06
 0.13582001E+03 -0.57011E+06
 0.13587001E+03 -0.59697E+06
 0.13592001E+03 -0.61101E+06
 0.13597000E+03 -0.59174E+06
 0.13602000E+03 -0.53437E+06
 0.13607001E+03 -0.44193E+06
 0.13612001E+03 -0.32210E+06
 0.13617001E+03 -0.19383E+06
 0.13622000E+03 -0.62152E+05
 0.13627000E+03  0.78673E+05
 0.13632001E+03  0.22481E+06
 0.13637001E+03  0.36617E+06
 0.13642001E+03  0.48532E+06
 0.13647000E+03  0.57638E+06
 0.13652000E+03  0.65190E+06
 0.13657001E+03  0.71332E+06
 0.13662001E+03  0.75526E+06
 0.13667001E+03  0.78079E+06
 0.13672000E+03  0.78918E+06
 0.13677000E+03  0.78418E+06
 0.13682001E+03  0.77706E+06
 0.13687001E+03  0.77184E+06
 0.13692001E+03  0.76464E+06
 0.13697000E+03  0.73854E+06
 0.13702000E+03  0.68441E+06
 0.13707001E+03  0.61900E+06
 0.13712001E+03  0.55080E+06
 0.13717001E+03  0.47894E+06
 0.13722000E+03  0.41554E+06
 0.13727000E+03  0.38288E+06
 0.13732001E+03  0.39431E+06
 0.13737001E+03  0.43917E+06
 0.13742001E+03  0.49849E+06
 0.13747000E+03  0.55236E+06
 0.13752000E+03  0.58542E+06
 0.13757001E+03  0.58793E+06
 0.13762001E+03  0.55722E+06
 0.13767001E+03  0.49850E+06
 0.13772000E+03  0.41407E+06
 0.13777000E+03  0.31872E+06
 0.13782001E+03  0.22897E+06
 0.13787001E+03  0.14507E+06
 0.13792001E+03  0.66740E+05
 0.13797000E+03 -0.10853E+05
 0.13802000E+03 -0.98476E+05
 0.13807001E+03 -0.20231E+06
 0.13812001E+03 -0.32423E+06
 0.13817001E+03 -0.45626E+06
 0.13822000E+03 -0.58642E+06
 0.13827000E+03 -0.70073E+06
 0.13832001E+03 -0.78803E+06
 0.13837001E+03 -0.84545E+06
 0.13842001E+03 -0.87316E+06
 0.13847000E+03 -0.88491E+06
 0.13852000E+03 -0.89065E+06
 0.13857001E+03 -0.89252E+06
 0.13862001E+03 -0.89687E+06
 0.13867001E+03 -0.90505E+06
 0.13872000E+03 -0.91341E+06
 0.13877000E+03 -0.90859E+06
 0.13882001E+03 -0.87727E+06
 0.13887001E+03 -0.81643E+06
 0.13892001E+03 -0.73224E+06
 0.13897000E+03 -0.64138E+06
 0.13902000E+03 -0.55590E+06
 0.13907001E+03 -0.47377E+06
 0.13912001E+03 -0.38000E+06
 0.13917001E+03 -0.26490E+06
 0.13922000E+03 -0.14394E+06
 0.13927000E+03 -0.33680E+05
 0.13932001E+03  0.59363E+05
 0.13937001E+03  0.13460E+06
 0.13942001E+03  0.20711E+06
 0.13947000E+03  0.29314E+06
 0.13952000E+03  0.38585E+06
 0.13957001E+03  0.46277E+06
 0.13962001E+03  0.51208E+06
 0.13967001E+03  0.53663E+06
 0.13972000E+03  0.54889E+06
 0.13977000E+03  0.55644E+06
 0.13982001E+03  0.56047E+06
 0.13987001E+03  0.57080E+06
 0.13992001E+03  0.59557E+06
 0.13997000E+03  0.63600E+06
 0.14002000E+03  0.68839E+06
 0.14007001E+03  0.74612E+06
 0.14012001E+03  0.79369E+06
 0.14017001E+03  0.80784E+06
 0.14022000E+03  0.78526E+06
 0.14027000E+03  0.73503E+06
 0.14032001E+03  0.66105E+06
 0.14037001E+03  0.56847E+06
 0.14042001E+03  0.46145E+06
 0.14047000E+03  0.34334E+06
 0.14052000E+03  0.22005E+06
 0.14057001E+03  0.10230E+06
 0.14062001E+03 -0.33050E+04
 0.14067001E+03 -0.98224E+05
 0.14072000E+03 -0.17692E+06
 0.14077000E+03 -0.22632E+06
 0.14082001E+03 -0.23589E+06
 0.14087001E+03 -0.20690E+06
 0.14092001E+03 -0.15180E+06
 0.14097000E+03 -0.91021E+05
 0.14102000E+03 -0.42518E+05
 0.14107001E+03 -0.65360E+04
 0.14112001E+03  0.27150E+05
 0.14117001E+03  0.61260E+05
 0.14122000E+03  0.83894E+05
 0.14127000E+03  0.81598E+05
 0.14132001E+03  0.51288E+05
 0.14137001E+03 -0.29500E+04
 0.14142001E+03 -0.69817E+05
 0.14147000E+03 -0.13352E+06
 0.14152000E+03 -0.18535E+06
 0.14157001E+03 -0.21942E+06
 0.14162001E+03 -0.23178E+06
 0.14167001E+03 -0.22570E+06
 0.14172000E+03 -0.20795E+06
 0.14177000E+03 -0.18449E+06
 0.14182001E+03 -0.15934E+06
 0.14187001E+03 -0.13894E+06
 0.14192001E+03 -0.12466E+06
 0.14197000E+03 -0.11855E+06
 0.14202000E+03 -0.12713E+06
 0.14207001E+03 -0.14973E+06
 0.14212001E+03 -0.18379E+06
 0.14217001E+03 -0.22574E+06
 0.14222000E+03 -0.26966E+06
 0.14227000E+03 -0.30961E+06
 0.14232001E+03 -0.33860E+06
 0.14237001E+03 -0.35091E+06
 0.14242001E+03 -0.34239E+06
 0.14247000E+03 -0.31822E+06
 0.14252000E+03 -0.29214E+06
 0.14257001E+03 -0.26552E+06
 0.14262001E+03 -0.22920E+06
 0.14267001E+03 -0.18313E+06
 0.14272000E+03 -0.14103E+06
 0.14277000E+03 -0.11152E+06
 0.14282001E+03 -0.93987E+05
 0.14287001E+03 -0.95138E+05
 0.14292001E+03 -0.11677E+06
 0.14297000E+03 -0.15766E+06
 0.14302000E+03 -0.21833E+06
 0.14307001E+03 -0.28880E+06
 0.14312001E+03 -0.36210E+06
 0.14317001E+03 -0.43240E+06
 0.14322000E+03 -0.48787E+06
 0.14327000E+03 -0.51492E+06
 0.14332001E+03 -0.50440E+06
 0.14337001E+03 -0.46180E+06
 0.14342001E+03 -0.40252E+06
 0.14347000E+03 -0.34147E+06
 0.14352000E+03 -0.28296E+06
 0.14357001E+03 -0.22073E+06
 0.14362001E+03 -0.15370E+06
 0.14367001E+03 -0.92698E+05
 0.14372000E+03 -0.40952E+05
 0.14377000E+03  0.10033E+05
 0.14382001E+03  0.59280E+05
 0.14387001E+03  0.95773E+05
 0.14392001E+03  0.11295E+06
 0.14397000E+03  0.10994E+06
 0.14402000E+03  0.86368E+05
 0.14407001E+03  0.55664E+05
 0.14412001E+03  0.36147E+05
 0.14417001E+03  0.31317E+05
 0.14422000E+03  0.46853E+05
 0.14427000E+03  0.89474E+05
 0.14432001E+03  0.15706E+06
 0.14437001E+03  0.23990E+06
 0.14442001E+03  0.32224E+06
 0.14447000E+03  0.38904E+06
 0.14452000E+03  0.42526E+06
 0.14457001E+03  0.42434E+06
 0.14462001E+03  0.39412E+06
 0.14467001E+03  0.35055E+06
 0.14472000E+03  0.30560E+06
 0.14477000E+03  0.26438E+06
 0.14482001E+03  0.23721E+06
 0.14487001E+03  0.22652E+06
 0.14492001E+03  0.22416E+06
 0.14497000E+03  0.22678E+06
 0.14502000E+03  0.22227E+06
 0.14507001E+03  0.19602E+06
 0.14512001E+03  0.14928E+06
 0.14517001E+03  0.86592E+05
 0.14522000E+03  0.10692E+05
 0.14527000E+03 -0.68867E+05
 0.14532001E+03 -0.13765E+06
 0.14537001E+03 -0.18795E+06
 0.14542001E+03 -0.22002E+06
 0.14547000E+03 -0.23306E+06
 0.14552000E+03 -0.22523E+06
 0.14557001E+03 -0.19164E+06
 0.14562001E+03 -0.13159E+06
 0.14567001E+03 -0.55734E+05
 0.14572000E+03  0.27901E+05
 0.14577000E+03  0.11274E+06
 0.14582001E+03  0.19267E+06
 0.14587001E+03  0.26448E+06
 0.14592001E+03  0.31334E+06
 0.14597000E+03  0.32047E+06
 0.14602000E+03  0.28167E+06
 0.14607001E+03  0.20177E+06
 0.14612001E+03  0.91927E+05
 0.14617001E+03 -0.24780E+05
 0.14622000E+03 -0.12800E+06
 0.14627000E+03 -0.21458E+06
 0.14632001E+03 -0.28520E+06
 0.14637001E+03 -0.32910E+06
 0.14642001E+03 -0.33768E+06
 0.14647000E+03 -0.31127E+06
 0.14652000E+03 -0.25571E+06
 0.14657001E+03 -0.18898E+06
 0.14662001E+03 -0.12699E+06
 0.14667001E+03 -0.80357E+05
 0.14672000E+03 -0.51262E+05
 0.14677000E+03 -0.25159E+05
 0.14682001E+03  0.78290E+04
 0.14687001E+03  0.46917E+05
 0.14692001E+03  0.85771E+05
 0.14697000E+03  0.11618E+06
 0.14702000E+03  0.13484E+06
 0.14707001E+03  0.14370E+06
 0.14712001E+03  0.15054E+06
 0.14717001E+03  0.16451E+06
 0.14722000E+03  0.19381E+06
 0.14727000E+03  0.24345E+06
 0.14732001E+03  0.31146E+06
 0.14737001E+03  0.38786E+06
 0.14742001E+03  0.45615E+06
 0.14747000E+03  0.50594E+06
 0.14752000E+03  0.53128E+06
 0.14757001E+03  0.52277E+06
 0.14762001E+03  0.48483E+06
 0.14767001E+03  0.43504E+06
 0.14772000E+03  0.38876E+06
 0.14777000E+03  0.35781E+06
 0.14782001E+03  0.34948E+06
 0.14787001E+03  0.36752E+06
 0.14792001E+03  0.40813E+06
 0.14797000E+03  0.45877E+06
 0.14802000E+03  0.50120E+06
 0.14807001E+03  0.51726E+06
 0.14812001E+03  0.49924E+06
 0.14817001E+03  0.44858E+06
 0.14822000E+03  0.37561E+06
 0.14827000E+03  0.29619E+06
 0.14832001E+03  0.22114E+06
 0.14837001E+03  0.15040E+06
 0.14842001E+03  0.74487E+05
 0.14847000E+03 -0.15569E+05
 0.14852000E+03 -0.11898E+06
 0.14857001E+03 -0.22532E+06
 0.14862001E+03 -0.32807E+06
 0.14867001E+03 -0.42477E+06
 0.14872000E+03 -0.50796E+06
 0.14877000E+03 -0.57363E+06
 0.14882001E+03 -0.61692E+06
 0.14887001E+03 -0.63258E+06
 0.14892001E+03 -0.62785E+06
 0.14897000E+03 -0.61050E+06
 0.14902000E+03 -0.58277E+06
 0.14907001E+03 -0.54427E+06
 0.14912001E+03 -0.49020E+06
 0.14917001E+03 -0.41626E+06
 0.14922000E+03 -0.32451E+06
 0.14927000E+03 -0.21940E+06
 0.14932001E+03 -0.10572E+06
 0.14937001E+03  0.75370E+04
 0.14942001E+03  0.11608E+06
 0.14947000E+03  0.21544E+06
 0.14952000E+03  0.29424E+06
 0.14957001E+03  0.34630E+06
 0.14962001E+03  0.37773E+06
 0.14967001E+03  0.40075E+06
 0.14972000E+03  0.42011E+06
 0.14977000E+03  0.43064E+06
 0.14982001E+03  0.42374E+06
 0.14987001E+03  0.39574E+06
 0.14992001E+03  0.35054E+06
 0.14997000E+03  0.29400E+06
