-0.29800000E+01  0.93729E+05
-0.29300001E+01  0.78079E+05
-0.28800001E+01  0.61626E+05
-0.28299999E+01  0.44088E+05
-0.27800000E+01  0.24052E+05
-0.27300000E+01  0.29480E+04
-0.26800001E+01 -0.17175E+05
-0.26300001E+01 -0.36674E+05
-0.25799999E+01 -0.54728E+05
-0.25300000E+01 -0.70759E+05
-0.24800000E+01 -0.84805E+05
-0.24300001E+01 -0.95483E+05
-0.23800001E+01 -0.10247E+06
-0.23299999E+01 -0.10665E+06
-0.22800000E+01 -0.10896E+06
-0.22300000E+01 -0.11003E+06
-0.21800001E+01 -0.11012E+06
-0.21300001E+01 -0.10975E+06
-0.20799999E+01 -0.10997E+06
-0.20300000E+01 -0.11118E+06
-0.19800000E+01 -0.11284E+06
-0.19299999E+01 -0.11352E+06
-0.18800000E+01 -0.11077E+06
-0.18300000E+01 -0.10432E+06
-0.17800000E+01 -0.96056E+05
-0.17300000E+01 -0.86901E+05
-0.16799999E+01 -0.76620E+05
-0.16300000E+01 -0.64899E+05
-0.15800000E+01 -0.51872E+05
-0.15300000E+01 -0.38177E+05
-0.14800000E+01 -0.24453E+05
-0.14299999E+01 -0.11002E+05
-0.13800000E+01  0.19520E+04
-0.13300000E+01  0.14147E+05
-0.12800000E+01  0.24927E+05
-0.12300000E+01  0.34618E+05
-0.11799999E+01  0.43058E+05
-0.11300000E+01  0.49186E+05
-0.10800000E+01  0.53317E+05
-0.10300000E+01  0.55732E+05
-0.98000002E+00  0.56273E+05
-0.93000007E+00  0.54341E+05
-0.87999988E+00  0.50390E+05
-0.82999992E+00  0.45661E+05
-0.77999997E+00  0.39522E+05
-0.73000002E+00  0.31446E+05
-0.68000007E+00  0.22416E+05
-0.62999988E+00  0.12558E+05
-0.57999992E+00  0.20420E+04
-0.52999997E+00 -0.83320E+04
-0.48000002E+00 -0.18486E+05
-0.43000007E+00 -0.27977E+05
-0.37999988E+00 -0.36849E+05
-0.32999992E+00 -0.45825E+05
-0.27999997E+00 -0.55850E+05
-0.23000002E+00 -0.67382E+05
-0.18000007E+00 -0.79958E+05
-0.12999988E+00 -0.92184E+05
-0.79999924E-01 -0.10203E+06
-0.29999971E-01 -0.10928E+06
 0.19999981E-01 -0.11527E+06
 0.69999933E-01 -0.12095E+06
 0.12000012E+00 -0.12573E+06
 0.17000008E+00 -0.12905E+06
 0.22000003E+00 -0.13203E+06
 0.26999998E+00 -0.13563E+06
 0.31999993E+00 -0.14020E+06
 0.37000012E+00 -0.14561E+06
 0.42000008E+00 -0.14978E+06
 0.47000003E+00 -0.15154E+06
 0.51999998E+00 -0.15078E+06
 0.56999993E+00 -0.14627E+06
 0.62000012E+00 -0.13878E+06
 0.67000008E+00 -0.12955E+06
 0.72000003E+00 -0.11882E+06
 0.76999998E+00 -0.10709E+06
 0.81999993E+00 -0.93522E+05
 0.87000012E+00 -0.76662E+05
 0.92000008E+00 -0.57259E+05
 0.97000003E+00 -0.36952E+05
 0.10200000E+01 -0.16030E+05
 0.10700002E+01  0.42520E+04
 0.11199999E+01  0.22882E+05
 0.11700001E+01  0.39920E+05
 0.12200003E+01  0.55083E+05
 0.12700000E+01  0.68863E+05
 0.13200002E+01  0.81874E+05
 0.13699999E+01  0.94108E+05
 0.14200001E+01  0.10503E+06
 0.14700003E+01  0.11315E+06
 0.15200000E+01  0.11664E+06
 0.15700002E+01  0.11649E+06
 0.16199999E+01  0.11460E+06
 0.16700001E+01  0.11162E+06
 0.17200003E+01  0.10863E+06
 0.17700000E+01  0.10546E+06
 0.18200002E+01  0.10158E+06
 0.18699999E+01  0.97329E+05
 0.19200001E+01  0.93396E+05
 0.19700003E+01  0.90562E+05
 0.20200000E+01  0.88344E+05
 0.20700002E+01  0.86253E+05
 0.21199999E+01  0.85100E+05
 0.21700001E+01  0.85449E+05
 0.22200003E+01  0.86935E+05
 0.22700000E+01  0.89149E+05
 0.23200002E+01  0.91660E+05
 0.23699999E+01  0.93275E+05
 0.24200001E+01  0.93242E+05
 0.24700003E+01  0.92568E+05
 0.25200000E+01  0.92133E+05
 0.25700002E+01  0.91670E+05
 0.26199999E+01  0.90955E+05
 0.26700001E+01  0.89802E+05
 0.27200003E+01  0.86844E+05
 0.27700000E+01  0.80893E+05
 0.28200002E+01  0.71974E+05
 0.28699999E+01  0.60560E+05
 0.29200001E+01  0.47675E+05
 0.29700003E+01  0.33816E+05
 0.30200000E+01  0.19564E+05
 0.30700002E+01  0.52680E+04
 0.31199999E+01 -0.89400E+04
 0.31700001E+01 -0.23444E+05
 0.32200003E+01 -0.39600E+05
 0.32700000E+01 -0.56496E+05
 0.33200002E+01 -0.73096E+05
 0.33699999E+01 -0.88629E+05
 0.34200001E+01 -0.10062E+06
 0.34700003E+01 -0.10790E+06
 0.35200000E+01 -0.11166E+06
 0.35700002E+01 -0.11278E+06
 0.36199999E+01 -0.11101E+06
 0.36700001E+01 -0.10612E+06
 0.37200003E+01 -0.98672E+05
 0.37700000E+01 -0.90720E+05
 0.38200002E+01 -0.82999E+05
 0.38699999E+01 -0.74285E+05
 0.39200001E+01 -0.64932E+05
 0.39700003E+01 -0.55883E+05
 0.40200000E+01 -0.47669E+05
 0.40700002E+01 -0.40239E+05
 0.41199999E+01 -0.33365E+05
 0.41700001E+01 -0.26972E+05
 0.42200003E+01 -0.20700E+05
 0.42700000E+01 -0.14837E+05
 0.43200002E+01 -0.10465E+05
 0.43699999E+01 -0.83360E+04
 0.44200001E+01 -0.71300E+04
 0.44700003E+01 -0.49450E+04
 0.45200000E+01 -0.20890E+04
 0.45700002E+01 -0.22900E+03
 0.46199999E+01 -0.28000E+03
 0.46700001E+01 -0.23030E+04
 0.47200003E+01 -0.48800E+04
 0.47700000E+01 -0.58730E+04
 0.48200002E+01 -0.41740E+04
 0.48699999E+01  0.10500E+04
 0.49200001E+01  0.94310E+04
 0.49700003E+01  0.19422E+05
 0.50200000E+01  0.28704E+05
 0.50700002E+01  0.36272E+05
 0.51200004E+01  0.41815E+05
 0.51700006E+01  0.44120E+05
 0.52199998E+01  0.43935E+05
 0.52700000E+01  0.42903E+05
 0.53200002E+01  0.41180E+05
 0.53700004E+01  0.38307E+05
 0.54200006E+01  0.36083E+05
 0.54699998E+01  0.35786E+05
 0.55200000E+01  0.36477E+05
 0.55700002E+01  0.37107E+05
 0.56200004E+01  0.36827E+05
 0.56700006E+01  0.35258E+05
 0.57199998E+01  0.32671E+05
 0.57700000E+01  0.30282E+05
 0.58200002E+01  0.28177E+05
 0.58700004E+01  0.25930E+05
 0.59200006E+01  0.23789E+05
 0.59699998E+01  0.22547E+05
 0.60200000E+01  0.23433E+05
 0.60700002E+01  0.26069E+05
 0.61200004E+01  0.28274E+05
 0.61700006E+01  0.29614E+05
 0.62199998E+01  0.32135E+05
 0.62700000E+01  0.35969E+05
 0.63200002E+01  0.40328E+05
 0.63700004E+01  0.46245E+05
 0.64200006E+01  0.52359E+05
 0.64699998E+01  0.55071E+05
 0.65200000E+01  0.53676E+05
 0.65700002E+01  0.49169E+05
 0.66200004E+01  0.42890E+05
 0.66700006E+01  0.35153E+05
 0.67199998E+01  0.26103E+05
 0.67700000E+01  0.18663E+05
 0.68200002E+01  0.13331E+05
 0.68700004E+01  0.70130E+04
 0.69200006E+01 -0.16670E+04
 0.69699998E+01 -0.11842E+05
 0.70200000E+01 -0.23106E+05
 0.70700002E+01 -0.35013E+05
 0.71200004E+01 -0.46500E+05
 0.71700006E+01 -0.56816E+05
 0.72199998E+01 -0.64517E+05
 0.72700000E+01 -0.69033E+05
 0.73200002E+01 -0.71157E+05
 0.73700004E+01 -0.71451E+05
 0.74200006E+01 -0.70530E+05
 0.74699998E+01 -0.69653E+05
 0.75200000E+01 -0.69490E+05
 0.75700002E+01 -0.69162E+05
 0.76200004E+01 -0.67549E+05
 0.76700006E+01 -0.63426E+05
 0.77199998E+01 -0.56542E+05
 0.77700000E+01 -0.48150E+05
 0.78200002E+01 -0.39514E+05
 0.78700004E+01 -0.31508E+05
 0.79200006E+01 -0.24280E+05
 0.79699998E+01 -0.17073E+05
 0.80200005E+01 -0.93530E+04
 0.80699997E+01 -0.21200E+04
 0.81200008E+01  0.35710E+04
 0.81700001E+01  0.86340E+04
 0.82199993E+01  0.13939E+05
 0.82700005E+01  0.19113E+05
 0.83199997E+01  0.24073E+05
 0.83700008E+01  0.28846E+05
 0.84200001E+01  0.34233E+05
 0.84699993E+01  0.40729E+05
 0.85200005E+01  0.46947E+05
 0.85699997E+01  0.51607E+05
 0.86200008E+01  0.54463E+05
 0.86700001E+01  0.56223E+05
 0.87199993E+01  0.56763E+05
 0.87700005E+01  0.55254E+05
 0.88199997E+01  0.52759E+05
 0.88700008E+01  0.51422E+05
 0.89200001E+01  0.51133E+05
 0.89699993E+01  0.49875E+05
 0.90200005E+01  0.46540E+05
 0.90699997E+01  0.40056E+05
 0.91200008E+01  0.30291E+05
 0.91700001E+01  0.18709E+05
 0.92199993E+01  0.68030E+04
 0.92700005E+01 -0.43290E+04
 0.93199997E+01 -0.14163E+05
 0.93700008E+01 -0.22398E+05
 0.94200001E+01 -0.29524E+05
 0.94699993E+01 -0.36614E+05
 0.95200005E+01 -0.43885E+05
 0.95699997E+01 -0.49700E+05
 0.96200008E+01 -0.53414E+05
 0.96700001E+01 -0.56418E+05
 0.97199993E+01 -0.59377E+05
 0.97700005E+01 -0.62301E+05
 0.98199997E+01 -0.63858E+05
 0.98700008E+01 -0.62755E+05
 0.99200001E+01 -0.59768E+05
 0.99699993E+01 -0.56219E+05
 0.10020000E+02 -0.52906E+05
 0.10070000E+02 -0.49669E+05
 0.10120001E+02 -0.46247E+05
 0.10170000E+02 -0.43456E+05
 0.10219999E+02 -0.41962E+05
 0.10270000E+02 -0.41211E+05
 0.10320000E+02 -0.40163E+05
 0.10370001E+02 -0.39090E+05
 0.10420000E+02 -0.38503E+05
 0.10469999E+02 -0.38058E+05
 0.10520000E+02 -0.37329E+05
 0.10570000E+02 -0.35655E+05
 0.10620001E+02 -0.34105E+05
 0.10670000E+02 -0.32333E+05
 0.10719999E+02 -0.29981E+05
 0.10770000E+02 -0.28638E+05
 0.10820000E+02 -0.27663E+05
 0.10870001E+02 -0.27942E+05
 0.10920000E+02 -0.30558E+05
 0.10969999E+02 -0.34211E+05
 0.11020000E+02 -0.37219E+05
 0.11070000E+02 -0.38422E+05
 0.11120001E+02 -0.38202E+05
 0.11170000E+02 -0.37857E+05
 0.11219999E+02 -0.38854E+05
 0.11270000E+02 -0.41615E+05
 0.11320000E+02 -0.45249E+05
 0.11370001E+02 -0.49285E+05
 0.11420000E+02 -0.54652E+05
 0.11469999E+02 -0.60998E+05
 0.11520000E+02 -0.65759E+05
 0.11570000E+02 -0.67224E+05
 0.11620001E+02 -0.66478E+05
 0.11670000E+02 -0.64985E+05
 0.11719999E+02 -0.63095E+05
 0.11770000E+02 -0.61637E+05
 0.11820000E+02 -0.60498E+05
 0.11870001E+02 -0.59063E+05
 0.11920000E+02 -0.57065E+05
 0.11969999E+02 -0.54290E+05
 0.12020000E+02 -0.50256E+05
 0.12070000E+02 -0.43611E+05
 0.12120001E+02 -0.34007E+05
 0.12170000E+02 -0.22973E+05
 0.12219999E+02 -0.12495E+05
 0.12270000E+02 -0.19160E+04
 0.12320000E+02  0.97670E+04
 0.12370001E+02  0.21178E+05
 0.12420000E+02  0.31616E+05
 0.12469999E+02  0.41450E+05
 0.12520000E+02  0.51269E+05
 0.12570000E+02  0.60168E+05
 0.12620001E+02  0.66054E+05
 0.12670000E+02  0.69094E+05
 0.12719999E+02  0.70660E+05
 0.12770000E+02  0.71215E+05
 0.12820000E+02  0.70818E+05
 0.12870001E+02  0.69956E+05
 0.12920000E+02  0.69879E+05
 0.12969999E+02  0.70402E+05
 0.13020000E+02  0.70938E+05
 0.13070002E+02  0.72009E+05
 0.13120001E+02  0.73410E+05
 0.13170000E+02  0.75276E+05
 0.13220001E+02  0.78106E+05
 0.13270000E+02  0.83287E+05
 0.13320002E+02  0.91524E+05
 0.13370001E+02  0.10119E+06
 0.13420000E+02  0.11092E+06
 0.13470001E+02  0.11968E+06
 0.13520000E+02  0.12710E+06
 0.13570002E+02  0.13251E+06
 0.13620001E+02  0.13543E+06
 0.13670000E+02  0.13635E+06
 0.13720001E+02  0.13563E+06
 0.13770000E+02  0.13378E+06
 0.13820002E+02  0.13064E+06
 0.13870001E+02  0.12539E+06
 0.13920000E+02  0.11822E+06
 0.13970001E+02  0.10938E+06
 0.14020000E+02  0.98920E+05
 0.14070002E+02  0.87716E+05
 0.14120001E+02  0.75731E+05
 0.14170000E+02  0.62456E+05
 0.14220001E+02  0.47972E+05
 0.14270000E+02  0.32906E+05
 0.14320002E+02  0.18135E+05
 0.14370001E+02  0.36620E+04
 0.14420000E+02 -0.93800E+04
 0.14470001E+02 -0.19555E+05
 0.14520000E+02 -0.26556E+05
 0.14570002E+02 -0.29600E+05
 0.14620001E+02 -0.29880E+05
 0.14670000E+02 -0.30081E+05
 0.14720001E+02 -0.30490E+05
 0.14770000E+02 -0.31254E+05
 0.14820002E+02 -0.33169E+05
 0.14870001E+02 -0.35866E+05
 0.14920000E+02 -0.38450E+05
 0.14970001E+02 -0.39625E+05
 0.15020000E+02 -0.38918E+05
 0.15070002E+02 -0.36713E+05
 0.15120001E+02 -0.33455E+05
 0.15170000E+02 -0.29649E+05
 0.15220001E+02 -0.25725E+05
 0.15270000E+02 -0.22324E+05
 0.15320002E+02 -0.20010E+05
 0.15370001E+02 -0.19812E+05
 0.15420000E+02 -0.22075E+05
 0.15470001E+02 -0.26198E+05
 0.15520000E+02 -0.31517E+05
 0.15570002E+02 -0.36753E+05
 0.15620001E+02 -0.41381E+05
 0.15670000E+02 -0.45784E+05
 0.15720001E+02 -0.49556E+05
 0.15770000E+02 -0.51985E+05
 0.15820002E+02 -0.53366E+05
 0.15870001E+02 -0.54265E+05
 0.15920000E+02 -0.55103E+05
 0.15970001E+02 -0.55928E+05
 0.16020000E+02 -0.56026E+05
 0.16070002E+02 -0.55118E+05
 0.16120001E+02 -0.53683E+05
 0.16170000E+02 -0.51994E+05
 0.16220001E+02 -0.50364E+05
 0.16270000E+02 -0.49748E+05
 0.16320002E+02 -0.50084E+05
 0.16370001E+02 -0.50298E+05
 0.16420000E+02 -0.49699E+05
 0.16470001E+02 -0.48077E+05
 0.16520000E+02 -0.45342E+05
 0.16570002E+02 -0.41306E+05
 0.16620001E+02 -0.36102E+05
 0.16670000E+02 -0.30015E+05
 0.16720001E+02 -0.22567E+05
 0.16770000E+02 -0.13385E+05
 0.16820002E+02 -0.42300E+04
 0.16870001E+02  0.33140E+04
 0.16920000E+02  0.96280E+04
 0.16970001E+02  0.16182E+05
 0.17020000E+02  0.23721E+05
 0.17070002E+02  0.30778E+05
 0.17120001E+02  0.36033E+05
 0.17170000E+02  0.40138E+05
 0.17220001E+02  0.44149E+05
 0.17270000E+02  0.48231E+05
 0.17320002E+02  0.52294E+05
 0.17370001E+02  0.55450E+05
 0.17420000E+02  0.56844E+05
 0.17470001E+02  0.56486E+05
 0.17520000E+02  0.54925E+05
 0.17570002E+02  0.53297E+05
 0.17620001E+02  0.51203E+05
 0.17670000E+02  0.47376E+05
 0.17720001E+02  0.41914E+05
 0.17770000E+02  0.35865E+05
 0.17820002E+02  0.29962E+05
 0.17870001E+02  0.24489E+05
 0.17920000E+02  0.19655E+05
 0.17970001E+02  0.15100E+05
 0.18020000E+02  0.11284E+05
 0.18070002E+02  0.92580E+04
 0.18120001E+02  0.83110E+04
 0.18170000E+02  0.68850E+04
 0.18220001E+02  0.42300E+04
 0.18270000E+02  0.54400E+03
 0.18320002E+02 -0.30820E+04
 0.18370001E+02 -0.53860E+04
 0.18420000E+02 -0.66610E+04
 0.18470001E+02 -0.72440E+04
 0.18520000E+02 -0.65890E+04
 0.18570002E+02 -0.45210E+04
 0.18620001E+02 -0.10020E+04
 0.18670000E+02  0.27780E+04
 0.18720001E+02  0.57960E+04
 0.18770000E+02  0.69450E+04
 0.18820002E+02  0.70050E+04
 0.18870001E+02  0.70180E+04
 0.18920000E+02  0.59790E+04
 0.18970001E+02  0.52300E+04
 0.19020000E+02  0.28880E+04
 0.19070002E+02  0.40700E+03
 0.19120001E+02 -0.34030E+04
 0.19170000E+02 -0.99820E+04
 0.19220001E+02 -0.14152E+05
 0.19270000E+02 -0.18643E+05
 0.19320002E+02 -0.18602E+05
 0.19370001E+02 -0.18303E+05
 0.19420000E+02 -0.22024E+05
 0.19470001E+02 -0.24253E+05
 0.19520000E+02 -0.30011E+05
 0.19570002E+02 -0.32646E+05
 0.19620001E+02 -0.32557E+05
 0.19670000E+02 -0.36142E+05
 0.19720001E+02 -0.36607E+05
 0.19770000E+02 -0.31403E+05
 0.19820002E+02 -0.27366E+05
 0.19870001E+02 -0.23733E+05
 0.19920000E+02 -0.23925E+05
 0.19970001E+02 -0.28797E+05
 0.20020000E+02 -0.22456E+05
 0.20070002E+02 -0.15159E+05
 0.20120001E+02 -0.16553E+05
 0.20170000E+02 -0.14577E+05
 0.20220001E+02 -0.12117E+05
 0.20270000E+02 -0.20580E+04
 0.20320002E+02  0.20083E+05
 0.20370001E+02  0.23566E+05
 0.20420000E+02  0.17795E+05
 0.20470001E+02  0.18990E+05
 0.20520000E+02  0.17027E+05
 0.20570002E+02  0.26331E+05
 0.20620001E+02  0.30979E+05
 0.20670000E+02  0.19587E+05
 0.20720001E+02  0.26920E+05
 0.20770000E+02  0.37668E+05
 0.20820002E+02  0.45177E+05
 0.20870001E+02  0.64290E+05
 0.20920000E+02  0.57556E+05
 0.20970001E+02  0.54618E+05
 0.21020000E+02  0.60499E+05
 0.21070002E+02  0.49128E+05
 0.21120001E+02  0.51835E+05
 0.21170000E+02  0.53548E+05
 0.21220001E+02  0.55503E+05
 0.21270000E+02  0.70555E+05
 0.21320002E+02  0.70705E+05
 0.21370001E+02  0.71519E+05
 0.21420000E+02  0.83354E+05
 0.21470001E+02  0.85128E+05
 0.21520000E+02  0.80483E+05
 0.21570002E+02  0.66603E+05
 0.21620001E+02  0.48697E+05
 0.21670000E+02  0.51990E+05
 0.21720001E+02  0.68175E+05
 0.21770000E+02  0.64973E+05
 0.21820002E+02  0.59668E+05
 0.21870001E+02  0.29127E+05
 0.21920000E+02  0.99730E+04
 0.21970001E+02  0.17551E+05
 0.22020000E+02  0.39340E+04
 0.22070002E+02  0.18283E+05
 0.22120001E+02  0.25014E+05
 0.22170000E+02  0.21863E+05
 0.22220001E+02  0.41840E+05
 0.22270000E+02  0.54695E+05
 0.22320002E+02  0.49004E+05
 0.22370001E+02  0.45418E+05
 0.22420000E+02  0.46540E+04
 0.22470001E+02 -0.49241E+05
 0.22520000E+02 -0.19255E+05
 0.22570002E+02  0.22642E+05
 0.22620001E+02  0.41545E+05
 0.22670000E+02 -0.54680E+04
 0.22720001E+02 -0.80010E+05
 0.22770000E+02 -0.17373E+05
 0.22820002E+02  0.89304E+05
 0.22870001E+02  0.16123E+06
 0.22920000E+02  0.15029E+06
 0.22970001E+02  0.72434E+05
 0.23020000E+02  0.11278E+06
 0.23070002E+02  0.14894E+06
 0.23120001E+02  0.37697E+05
 0.23170000E+02 -0.10288E+06
 0.23220001E+02 -0.14361E+06
 0.23270000E+02 -0.16982E+05
 0.23320002E+02  0.15064E+06
 0.23370001E+02  0.13355E+06
 0.23420000E+02  0.20777E+05
 0.23470001E+02  0.27182E+05
 0.23520000E+02  0.70054E+05
 0.23570002E+02  0.12661E+06
 0.23620001E+02  0.14666E+06
 0.23670000E+02 -0.33960E+05
 0.23720001E+02 -0.12158E+06
 0.23770000E+02 -0.87068E+05
 0.23820002E+02 -0.16987E+06
 0.23870001E+02 -0.15755E+06
 0.23920000E+02 -0.20058E+06
 0.23970001E+02 -0.25996E+06
 0.24020000E+02 -0.16891E+05
 0.24070002E+02  0.69282E+05
 0.24120001E+02  0.18205E+05
 0.24170000E+02  0.95583E+05
 0.24220001E+02 -0.49950E+04
 0.24270000E+02 -0.89251E+05
 0.24320002E+02 -0.34349E+05
 0.24370001E+02 -0.61716E+05
 0.24420000E+02 -0.96197E+05
 0.24470001E+02 -0.78170E+05
 0.24520000E+02 -0.16213E+06
 0.24570002E+02 -0.15290E+06
 0.24620001E+02  0.47434E+05
 0.24670000E+02  0.73896E+05
 0.24720001E+02  0.43968E+05
 0.24770000E+02 -0.49695E+05
 0.24820002E+02  0.65952E+05
 0.24870001E+02  0.30878E+06
 0.24920000E+02  0.10127E+06
 0.24970001E+02 -0.19601E+06
 0.25020000E+02 -0.43381E+06
 0.25070002E+02 -0.35840E+06
 0.25120001E+02 -0.25615E+06
 0.25170000E+02 -0.28795E+06
 0.25220001E+02 -0.27433E+06
 0.25270000E+02 -0.23073E+06
 0.25320002E+02  0.15668E+06
 0.25370001E+02  0.25817E+06
 0.25420000E+02  0.21573E+06
 0.25470001E+02  0.10824E+06
 0.25520000E+02  0.10431E+06
 0.25570002E+02  0.39032E+06
 0.25620001E+02  0.19306E+06
 0.25670000E+02 -0.11201E+06
 0.25720001E+02 -0.38549E+06
 0.25770000E+02 -0.36943E+06
 0.25820002E+02 -0.71662E+05
 0.25870001E+02  0.20255E+06
 0.25920000E+02  0.35378E+06
 0.25970001E+02  0.14788E+06
 0.26020000E+02  0.23789E+06
 0.26070002E+02  0.32573E+06
 0.26120001E+02 -0.55293E+05
 0.26170000E+02 -0.47151E+06
 0.26220001E+02 -0.58646E+06
 0.26270000E+02 -0.39187E+06
 0.26320002E+02 -0.90645E+05
 0.26370001E+02 -0.11406E+06
 0.26420000E+02 -0.46120E+06
 0.26470001E+02 -0.36961E+06
 0.26520000E+02 -0.13663E+06
 0.26570002E+02  0.10262E+06
 0.26620001E+02  0.50622E+06
 0.26670000E+02  0.28766E+06
 0.26720001E+02 -0.21992E+06
 0.26770000E+02  0.29576E+05
 0.26820002E+02  0.33672E+06
 0.26870001E+02  0.28022E+06
 0.26920000E+02  0.37752E+06
 0.26970001E+02  0.16689E+06
 0.27020000E+02 -0.40504E+05
 0.27070002E+02  0.18210E+05
 0.27120001E+02  0.20762E+05
 0.27170000E+02 -0.61488E+05
 0.27220001E+02 -0.38858E+06
 0.27270000E+02 -0.60792E+06
 0.27320002E+02 -0.49100E+06
 0.27370001E+02 -0.21978E+06
 0.27420000E+02  0.68315E+05
 0.27470001E+02  0.38481E+06
 0.27520000E+02  0.64311E+06
 0.27570002E+02  0.56017E+06
 0.27620001E+02  0.32048E+06
 0.27670000E+02  0.30376E+06
 0.27720001E+02  0.13426E+06
 0.27770000E+02 -0.17497E+06
 0.27820002E+02 -0.14360E+06
 0.27870001E+02 -0.20592E+05
 0.27920000E+02  0.70222E+05
 0.27970001E+02  0.10419E+06
 0.28020000E+02  0.18706E+06
 0.28070002E+02  0.25976E+06
 0.28120001E+02  0.17913E+06
 0.28170000E+02  0.33757E+06
 0.28220001E+02  0.43750E+06
 0.28270000E+02  0.32651E+06
 0.28320002E+02  0.38430E+06
 0.28370001E+02  0.47966E+06
 0.28420000E+02  0.26713E+06
 0.28470001E+02 -0.22505E+05
 0.28520000E+02 -0.15732E+06
 0.28570002E+02 -0.20148E+06
 0.28620001E+02  0.96064E+05
 0.28670000E+02  0.11457E+06
 0.28720001E+02  0.13404E+06
 0.28770000E+02  0.78496E+06
 0.28820002E+02  0.11166E+07
 0.28870001E+02  0.96010E+06
 0.28920000E+02  0.49417E+06
 0.28970001E+02 -0.16442E+06
 0.29020000E+02 -0.54123E+06
 0.29070000E+02 -0.42070E+06
 0.29120003E+02 -0.98057E+05
 0.29170002E+02  0.24859E+06
 0.29220001E+02  0.43832E+06
 0.29270000E+02  0.30647E+06
 0.29320000E+02  0.41145E+06
 0.29370003E+02  0.35435E+06
 0.29420002E+02 -0.17021E+05
 0.29470001E+02 -0.13813E+06
 0.29520000E+02 -0.25739E+05
 0.29570000E+02  0.23374E+06
 0.29620003E+02  0.27671E+06
 0.29670002E+02  0.24744E+06
 0.29720001E+02  0.24707E+06
 0.29770000E+02  0.31034E+06
 0.29820000E+02  0.40468E+06
 0.29870003E+02  0.22427E+06
 0.29920002E+02  0.19253E+06
 0.29970001E+02  0.41849E+06
 0.30020000E+02  0.28281E+06
 0.30070000E+02 -0.35723E+06
 0.30120003E+02 -0.85118E+06
 0.30170002E+02 -0.11164E+07
 0.30220001E+02 -0.98376E+06
 0.30270000E+02 -0.49614E+06
 0.30320000E+02 -0.25771E+06
 0.30370003E+02  0.15347E+06
 0.30420002E+02  0.41547E+06
 0.30470001E+02  0.19917E+06
 0.30520000E+02 -0.37582E+05
 0.30570000E+02 -0.23885E+06
 0.30620003E+02 -0.28771E+06
 0.30670002E+02 -0.30982E+06
 0.30720001E+02 -0.52476E+06
 0.30770000E+02 -0.99929E+06
 0.30820000E+02 -0.13769E+07
 0.30870003E+02 -0.12153E+07
 0.30920002E+02 -0.80720E+06
 0.30970001E+02 -0.54216E+06
 0.31020000E+02 -0.17070E+06
 0.31070000E+02  0.16739E+06
 0.31120003E+02  0.11465E+06
 0.31170002E+02  0.24889E+06
 0.31220001E+02  0.22529E+06
 0.31270000E+02 -0.45763E+06
 0.31320000E+02 -0.56544E+06
 0.31370003E+02 -0.17691E+05
 0.31420002E+02  0.63830E+04
 0.31470001E+02 -0.43274E+06
 0.31520000E+02 -0.82301E+06
 0.31570000E+02 -0.80582E+06
 0.31620003E+02 -0.21980E+06
 0.31670002E+02  0.26067E+06
 0.31720001E+02  0.33361E+06
 0.31770000E+02  0.48353E+06
 0.31820000E+02  0.51192E+06
 0.31870003E+02  0.21049E+06
 0.31920002E+02 -0.90634E+05
 0.31970001E+02 -0.53592E+06
 0.32020000E+02 -0.87797E+06
 0.32070000E+02 -0.76583E+06
 0.32120003E+02 -0.74068E+06
 0.32170002E+02 -0.65316E+06
 0.32220001E+02 -0.21932E+06
 0.32270000E+02  0.20336E+06
 0.32320000E+02  0.54508E+06
 0.32370003E+02  0.58693E+06
 0.32420002E+02  0.28023E+06
 0.32470001E+02  0.20857E+06
 0.32520000E+02  0.34640E+06
 0.32570000E+02  0.11710E+06
 0.32620003E+02  0.18850E+06
 0.32670002E+02  0.41670E+06
 0.32720001E+02 -0.57714E+05
 0.32770000E+02 -0.36140E+06
 0.32820000E+02 -0.58941E+06
 0.32870003E+02 -0.72869E+06
 0.32920002E+02 -0.21279E+06
 0.32970001E+02  0.37257E+06
 0.33020000E+02  0.77884E+06
 0.33070000E+02  0.84967E+06
 0.33120003E+02  0.47802E+06
 0.33170002E+02  0.66568E+05
 0.33220001E+02  0.20229E+06
 0.33270000E+02  0.26179E+06
 0.33320000E+02 -0.67526E+05
 0.33370003E+02 -0.24644E+06
 0.33420002E+02 -0.24189E+06
 0.33470001E+02  0.13324E+06
 0.33520000E+02  0.44814E+06
 0.33570000E+02  0.72535E+06
 0.33620003E+02  0.91003E+06
 0.33670002E+02  0.63550E+06
 0.33720001E+02  0.20156E+06
 0.33770000E+02 -0.44079E+06
 0.33820000E+02 -0.77020E+06
 0.33870003E+02 -0.28852E+06
 0.33920002E+02  0.35154E+06
 0.33970001E+02  0.48744E+06
 0.34020000E+02  0.53369E+06
 0.34070000E+02  0.83552E+06
 0.34120003E+02  0.89221E+06
 0.34170002E+02  0.84622E+06
 0.34220001E+02  0.10162E+07
 0.34270000E+02  0.10123E+07
 0.34320000E+02  0.54986E+06
 0.34370003E+02  0.92600E+05
 0.34420002E+02  0.13579E+05
 0.34470001E+02 -0.19215E+06
 0.34520000E+02 -0.60154E+06
 0.34570000E+02 -0.68167E+06
 0.34620003E+02 -0.47244E+06
 0.34670002E+02 -0.28296E+06
 0.34720001E+02 -0.24678E+06
 0.34770000E+02 -0.32164E+06
 0.34820000E+02  0.15460E+04
 0.34870003E+02  0.43997E+06
 0.34920002E+02  0.38426E+06
 0.34970001E+02  0.74296E+05
 0.35020000E+02 -0.42764E+06
 0.35070000E+02 -0.55179E+06
 0.35120003E+02 -0.19946E+06
 0.35170002E+02 -0.24104E+06
 0.35220001E+02 -0.54426E+06
 0.35270000E+02 -0.57132E+06
 0.35320000E+02 -0.55878E+06
 0.35370003E+02 -0.67235E+06
 0.35420002E+02 -0.53926E+06
 0.35470001E+02 -0.45869E+06
 0.35520000E+02 -0.55143E+06
 0.35570000E+02 -0.63294E+06
 0.35620003E+02 -0.88356E+06
 0.35670002E+02 -0.93757E+06
 0.35720001E+02 -0.90905E+06
 0.35770000E+02 -0.11493E+07
 0.35820000E+02 -0.12350E+07
 0.35870003E+02 -0.99230E+06
 0.35920002E+02 -0.77266E+06
 0.35970001E+02 -0.83108E+06
 0.36020000E+02 -0.11719E+07
 0.36070000E+02 -0.14263E+07
 0.36120003E+02 -0.15130E+07
 0.36170002E+02 -0.16208E+07
 0.36220001E+02 -0.15824E+07
 0.36270000E+02 -0.17380E+07
 0.36320000E+02 -0.20575E+07
 0.36370003E+02 -0.22870E+07
 0.36420002E+02 -0.24386E+07
 0.36470001E+02 -0.22100E+07
 0.36520000E+02 -0.18875E+07
 0.36570000E+02 -0.16401E+07
 0.36620003E+02 -0.13162E+07
 0.36670002E+02 -0.90774E+06
 0.36720001E+02 -0.82607E+06
 0.36770000E+02 -0.12101E+07
 0.36820000E+02 -0.15961E+07
 0.36870003E+02 -0.16217E+07
 0.36920002E+02 -0.10000E+07
 0.36970001E+02 -0.57850E+06
 0.37020000E+02 -0.76934E+06
 0.37070000E+02 -0.95672E+06
 0.37120003E+02 -0.80111E+06
 0.37170002E+02 -0.26290E+06
 0.37220001E+02 -0.30020E+06
 0.37270000E+02 -0.11142E+07
 0.37320000E+02 -0.16149E+07
 0.37370003E+02 -0.16656E+07
 0.37420002E+02 -0.13469E+07
 0.37470001E+02 -0.74713E+06
 0.37520000E+02 -0.53115E+06
 0.37570000E+02 -0.37199E+06
 0.37620003E+02  0.51622E+05
 0.37670002E+02  0.30067E+06
 0.37720001E+02  0.61388E+06
 0.37770000E+02  0.92484E+06
 0.37820000E+02  0.98447E+06
 0.37870003E+02  0.11081E+07
 0.37920002E+02  0.11100E+07
 0.37970001E+02  0.71443E+06
 0.38020000E+02 -0.15292E+06
 0.38070000E+02 -0.10161E+07
 0.38120003E+02 -0.10756E+07
 0.38170002E+02 -0.48791E+06
 0.38220001E+02 -0.13129E+06
 0.38270000E+02 -0.30250E+06
 0.38320000E+02 -0.14718E+06
 0.38370003E+02  0.44247E+06
 0.38420002E+02  0.56681E+06
 0.38470001E+02 -0.11157E+06
 0.38520000E+02 -0.88846E+06
 0.38570000E+02 -0.52024E+06
 0.38620003E+02  0.37553E+06
 0.38670002E+02  0.68508E+06
 0.38720001E+02  0.67074E+06
 0.38770000E+02  0.34129E+06
 0.38820000E+02  0.97977E+05
 0.38870003E+02 -0.67620E+04
 0.38920002E+02 -0.71663E+05
 0.38970001E+02 -0.88900E+04
 0.39020000E+02 -0.32982E+06
 0.39070000E+02 -0.45491E+06
 0.39120003E+02  0.32944E+06
 0.39170002E+02  0.11667E+07
 0.39220001E+02  0.88195E+06
 0.39270000E+02  0.17606E+06
 0.39320000E+02  0.31815E+05
 0.39370003E+02  0.42204E+06
 0.39420002E+02  0.75585E+06
 0.39470001E+02  0.60870E+06
 0.39520000E+02  0.61091E+06
 0.39570000E+02  0.77348E+06
 0.39620003E+02  0.10646E+07
 0.39670002E+02  0.14398E+07
 0.39720001E+02  0.13867E+07
 0.39770000E+02  0.94861E+06
 0.39820000E+02  0.34537E+06
 0.39870003E+02 -0.60488E+06
 0.39920002E+02 -0.14472E+07
 0.39970001E+02 -0.75797E+06
 0.40020000E+02  0.77672E+06
 0.40070000E+02  0.15723E+07
 0.40120003E+02  0.14015E+07
 0.40170002E+02  0.10701E+07
 0.40220001E+02  0.14236E+07
 0.40270000E+02  0.12422E+07
 0.40320000E+02  0.34612E+06
 0.40370003E+02  0.11561E+06
 0.40420002E+02  0.97847E+06
 0.40470001E+02  0.22456E+07
 0.40520000E+02  0.27666E+07
 0.40570000E+02  0.27364E+07
 0.40620003E+02  0.21407E+07
 0.40670002E+02  0.10298E+07
 0.40720001E+02  0.10764E+05
 0.40770000E+02 -0.66652E+06
 0.40820000E+02 -0.26260E+06
 0.40870003E+02  0.11739E+07
 0.40920002E+02  0.26162E+07
 0.40970001E+02  0.31297E+07
 0.41020000E+02  0.28220E+07
 0.41070000E+02  0.26143E+07
 0.41120003E+02  0.24273E+07
 0.41170002E+02  0.17432E+07
 0.41220001E+02  0.98870E+06
 0.41270000E+02  0.43767E+06
 0.41320000E+02 -0.17253E+06
 0.41370003E+02 -0.24196E+06
 0.41420002E+02  0.77896E+06
 0.41470001E+02  0.20588E+07
 0.41520000E+02  0.24425E+07
 0.41570000E+02  0.15300E+07
 0.41620003E+02  0.85199E+05
 0.41670002E+02 -0.25760E+06
 0.41720001E+02  0.24621E+06
 0.41770000E+02  0.39075E+06
 0.41820000E+02  0.25912E+06
 0.41870003E+02 -0.42977E+06
 0.41920002E+02 -0.11245E+07
 0.41970001E+02 -0.88863E+06
 0.42020000E+02 -0.59049E+05
 0.42070000E+02  0.27451E+06
 0.42120003E+02 -0.44318E+06
 0.42170002E+02 -0.12495E+07
 0.42220001E+02 -0.13953E+07
 0.42270000E+02 -0.11052E+07
 0.42320000E+02 -0.70570E+06
 0.42370003E+02 -0.60642E+06
 0.42420002E+02 -0.68475E+06
 0.42470001E+02  0.72610E+04
 0.42520000E+02  0.63116E+06
 0.42570000E+02  0.62979E+06
 0.42620003E+02  0.97125E+06
 0.42670002E+02  0.11939E+07
 0.42720001E+02  0.76184E+06
 0.42770000E+02 -0.35011E+06
 0.42820000E+02 -0.14344E+07
 0.42870003E+02 -0.17026E+07
 0.42920002E+02 -0.91018E+06
 0.42970001E+02  0.71270E+06
 0.43020000E+02  0.13537E+07
 0.43070000E+02  0.61506E+06
 0.43120003E+02 -0.11194E+06
 0.43170002E+02 -0.29701E+06
 0.43220001E+02 -0.33428E+06
 0.43270000E+02 -0.54050E+06
 0.43320000E+02 -0.28983E+06
 0.43370003E+02  0.24241E+06
 0.43420002E+02  0.42175E+06
 0.43470001E+02  0.65086E+06
 0.43520000E+02  0.77700E+06
 0.43570000E+02  0.29840E+06
 0.43620003E+02 -0.71146E+06
 0.43670002E+02 -0.11936E+07
 0.43720001E+02 -0.38921E+06
 0.43770000E+02 -0.13670E+06
 0.43820000E+02 -0.10628E+07
 0.43870003E+02 -0.14490E+07
 0.43920002E+02 -0.11440E+07
 0.43970001E+02 -0.74113E+06
 0.44020000E+02  0.14460E+06
 0.44070000E+02  0.16492E+07
 0.44120003E+02  0.25144E+07
 0.44170002E+02  0.19399E+07
 0.44220001E+02  0.97899E+06
 0.44270000E+02  0.55776E+06
 0.44320000E+02  0.14234E+06
 0.44370003E+02 -0.37831E+06
 0.44420002E+02 -0.17355E+06
 0.44470001E+02  0.43439E+06
 0.44520000E+02  0.78128E+06
 0.44570000E+02  0.87995E+06
 0.44620003E+02  0.97706E+06
 0.44670002E+02  0.13782E+07
 0.44720001E+02  0.16332E+07
 0.44770000E+02  0.16351E+07
 0.44820000E+02  0.16348E+07
 0.44870003E+02  0.13461E+07
 0.44920002E+02  0.95525E+06
 0.44970001E+02  0.68846E+06
 0.45020000E+02  0.75389E+06
 0.45070000E+02  0.14164E+07
 0.45120003E+02  0.21261E+07
 0.45170002E+02  0.22588E+07
 0.45220001E+02  0.16614E+07
 0.45270000E+02  0.60137E+06
 0.45320000E+02 -0.10591E+06
 0.45370003E+02 -0.15963E+06
 0.45420002E+02  0.50385E+05
 0.45470001E+02  0.57314E+06
 0.45520000E+02  0.16950E+07
 0.45570000E+02  0.28808E+07
 0.45620003E+02  0.31531E+07
 0.45670002E+02  0.24535E+07
 0.45720001E+02  0.12484E+07
 0.45770000E+02  0.37425E+05
 0.45820000E+02 -0.87947E+06
 0.45870003E+02 -0.15490E+07
 0.45920002E+02 -0.15261E+07
 0.45970001E+02 -0.10737E+07
 0.46020000E+02 -0.11121E+07
 0.46070000E+02 -0.16908E+07
 0.46120003E+02 -0.22214E+07
 0.46170002E+02 -0.21120E+07
 0.46220001E+02 -0.18893E+07
 0.46270000E+02 -0.23446E+07
 0.46320000E+02 -0.30852E+07
 0.46370003E+02 -0.34555E+07
 0.46420002E+02 -0.34158E+07
 0.46470001E+02 -0.33484E+07
 0.46520000E+02 -0.33870E+07
 0.46570000E+02 -0.35090E+07
 0.46620003E+02 -0.37144E+07
 0.46670002E+02 -0.37484E+07
 0.46720001E+02 -0.34523E+07
 0.46770000E+02 -0.26549E+07
 0.46820000E+02 -0.15137E+07
 0.46870003E+02 -0.11298E+06
 0.46920002E+02  0.14583E+07
 0.46970001E+02  0.21081E+07
 0.47020000E+02  0.10312E+07
 0.47070000E+02 -0.14239E+07
 0.47120003E+02 -0.39240E+07
 0.47170002E+02 -0.50963E+07
 0.47220001E+02 -0.42584E+07
 0.47270000E+02 -0.23344E+07
 0.47320000E+02 -0.10770E+07
 0.47370003E+02 -0.33842E+06
 0.47420002E+02  0.37601E+06
 0.47470001E+02  0.89979E+06
 0.47520000E+02  0.11967E+07
 0.47570000E+02  0.81174E+06
 0.47620003E+02 -0.29370E+06
 0.47670002E+02 -0.14892E+07
 0.47720001E+02 -0.22624E+07
 0.47770000E+02 -0.23743E+07
 0.47820000E+02 -0.16813E+07
 0.47870003E+02 -0.45322E+06
 0.47920002E+02  0.72847E+06
 0.47970001E+02  0.20284E+07
 0.48020000E+02  0.33520E+07
 0.48070000E+02  0.40738E+07
 0.48120003E+02  0.44391E+07
 0.48170002E+02  0.43478E+07
 0.48220001E+02  0.36994E+07
 0.48270000E+02  0.31766E+07
 0.48320000E+02  0.29574E+07
 0.48370003E+02  0.27374E+07
 0.48420002E+02  0.25019E+07
 0.48470001E+02  0.27189E+07
 0.48520000E+02  0.31192E+07
 0.48570000E+02  0.32949E+07
 0.48620003E+02  0.35231E+07
 0.48670002E+02  0.36539E+07
 0.48720001E+02  0.36424E+07
 0.48770000E+02  0.36016E+07
 0.48820000E+02  0.34951E+07
 0.48870003E+02  0.37642E+07
 0.48920002E+02  0.43059E+07
 0.48970001E+02  0.42797E+07
 0.49020000E+02  0.35006E+07
 0.49070000E+02  0.21411E+07
 0.49120003E+02  0.65680E+06
 0.49170002E+02 -0.22851E+06
 0.49220001E+02 -0.50375E+06
 0.49270000E+02 -0.13700E+06
 0.49320000E+02  0.73962E+06
 0.49370003E+02  0.14556E+07
 0.49420002E+02  0.19488E+07
 0.49470001E+02  0.23540E+07
 0.49520000E+02  0.23942E+07
 0.49570000E+02  0.20444E+07
 0.49620003E+02  0.17064E+07
 0.49670002E+02  0.14221E+07
 0.49720001E+02  0.11667E+07
 0.49770000E+02  0.94786E+06
 0.49820000E+02  0.10287E+07
 0.49870003E+02  0.16316E+07
 0.49920002E+02  0.21697E+07
 0.49970001E+02  0.21886E+07
 0.50020000E+02  0.16876E+07
 0.50070000E+02  0.93238E+06
 0.50120003E+02  0.19100E+06
 0.50170002E+02 -0.13579E+06
 0.50220001E+02 -0.51584E+05
 0.50270000E+02 -0.75595E+05
 0.50320000E+02 -0.19661E+06
 0.50370003E+02 -0.19470E+06
 0.50420002E+02 -0.26471E+06
 0.50470001E+02 -0.93664E+06
 0.50520000E+02 -0.20460E+07
 0.50570000E+02 -0.27144E+07
 0.50620003E+02 -0.26982E+07
 0.50670002E+02 -0.24631E+07
 0.50720001E+02 -0.22143E+07
 0.50770000E+02 -0.19827E+07
 0.50820000E+02 -0.18012E+07
 0.50870003E+02 -0.14469E+07
 0.50920002E+02 -0.77486E+06
 0.50970001E+02  0.20587E+06
 0.51020000E+02  0.91400E+06
 0.51070000E+02  0.86520E+06
 0.51120003E+02  0.51414E+06
 0.51170002E+02  0.38443E+06
 0.51220001E+02  0.47267E+06
 0.51270000E+02  0.36017E+06
 0.51320000E+02 -0.15738E+06
 0.51370003E+02 -0.11272E+07
 0.51420002E+02 -0.20123E+07
 0.51470001E+02 -0.21199E+07
 0.51520000E+02 -0.19177E+07
 0.51570000E+02 -0.19693E+07
 0.51620003E+02 -0.22861E+07
 0.51670002E+02 -0.23422E+07
 0.51720001E+02 -0.17902E+07
 0.51770000E+02 -0.12282E+07
 0.51820000E+02 -0.96886E+06
 0.51870003E+02 -0.88896E+06
 0.51920002E+02 -0.94718E+06
 0.51970001E+02 -0.96501E+06
 0.52020000E+02 -0.93079E+06
 0.52070000E+02 -0.11866E+07
 0.52120003E+02 -0.17946E+07
 0.52170002E+02 -0.24198E+07
 0.52220001E+02 -0.28243E+07
 0.52270000E+02 -0.27509E+07
 0.52320000E+02 -0.24544E+07
 0.52370003E+02 -0.23668E+07
 0.52420002E+02 -0.22453E+07
 0.52470001E+02 -0.20018E+07
 0.52520000E+02 -0.17987E+07
 0.52570000E+02 -0.16695E+07
 0.52620003E+02 -0.16913E+07
 0.52670002E+02 -0.19603E+07
 0.52720001E+02 -0.23397E+07
 0.52770000E+02 -0.25601E+07
 0.52820000E+02 -0.26249E+07
 0.52870003E+02 -0.26514E+07
 0.52920002E+02 -0.25111E+07
 0.52970001E+02 -0.21072E+07
 0.53020000E+02 -0.16957E+07
 0.53070000E+02 -0.12853E+07
 0.53120003E+02 -0.78753E+06
 0.53170002E+02 -0.28821E+06
 0.53220001E+02  0.41612E+06
 0.53270000E+02  0.14670E+07
 0.53320000E+02  0.26781E+07
 0.53370003E+02  0.33808E+07
 0.53420002E+02  0.31337E+07
 0.53470001E+02  0.21389E+07
 0.53520000E+02  0.65676E+06
 0.53570000E+02 -0.98861E+06
 0.53620003E+02 -0.24953E+07
 0.53670002E+02 -0.35531E+07
 0.53720001E+02 -0.39594E+07
 0.53770000E+02 -0.36573E+07
 0.53820000E+02 -0.27628E+07
 0.53870003E+02 -0.16594E+07
 0.53920002E+02 -0.71839E+06
 0.53970001E+02 -0.33641E+05
 0.54020000E+02  0.54346E+06
 0.54070000E+02  0.10571E+07
 0.54120003E+02  0.11893E+07
 0.54170002E+02  0.68964E+06
 0.54220001E+02 -0.93036E+05
 0.54270000E+02 -0.82210E+06
 0.54320000E+02 -0.12073E+07
 0.54370003E+02 -0.10641E+07
 0.54420002E+02 -0.78954E+06
 0.54470001E+02 -0.42822E+06
 0.54520000E+02  0.26602E+06
 0.54570000E+02  0.11227E+07
 0.54620003E+02  0.17229E+07
 0.54670002E+02  0.17098E+07
 0.54720001E+02  0.10030E+07
 0.54770000E+02 -0.24791E+06
 0.54820000E+02 -0.16449E+07
 0.54870003E+02 -0.26918E+07
 0.54920002E+02 -0.30697E+07
 0.54970001E+02 -0.28376E+07
 0.55020000E+02 -0.21977E+07
 0.55070000E+02 -0.13322E+07
 0.55120003E+02 -0.39485E+06
 0.55170002E+02  0.14952E+06
 0.55220001E+02 -0.73718E+05
 0.55270000E+02 -0.57421E+06
 0.55320000E+02 -0.10332E+07
 0.55370003E+02 -0.13557E+07
 0.55420002E+02 -0.14995E+07
 0.55470001E+02 -0.16659E+07
 0.55520000E+02 -0.17432E+07
 0.55570000E+02 -0.16363E+07
 0.55620003E+02 -0.15826E+07
 0.55670002E+02 -0.15435E+07
 0.55720001E+02 -0.12358E+07
 0.55770000E+02 -0.78202E+06
 0.55820000E+02 -0.27063E+06
 0.55870003E+02  0.13900E+06
 0.55920002E+02  0.22887E+06
 0.55970001E+02  0.17390E+06
 0.56020000E+02  0.13941E+06
 0.56070000E+02  0.23990E+06
 0.56120003E+02  0.50506E+06
 0.56170002E+02  0.82801E+06
 0.56220001E+02  0.12554E+07
 0.56270000E+02  0.18676E+07
 0.56320000E+02  0.24662E+07
 0.56370003E+02  0.29885E+07
 0.56420002E+02  0.35285E+07
 0.56470001E+02  0.39075E+07
 0.56520000E+02  0.38929E+07
 0.56570000E+02  0.34554E+07
 0.56620003E+02  0.28629E+07
 0.56670002E+02  0.24701E+07
 0.56720001E+02  0.23339E+07
 0.56770000E+02  0.23911E+07
 0.56820000E+02  0.24853E+07
 0.56870003E+02  0.22589E+07
 0.56920002E+02  0.16502E+07
 0.56970001E+02  0.98164E+06
 0.57020000E+02  0.46055E+06
 0.57070000E+02  0.15353E+06
 0.57120003E+02  0.25074E+06
 0.57170002E+02  0.80773E+06
 0.57220001E+02  0.16236E+07
 0.57270000E+02  0.22322E+07
 0.57320000E+02  0.24337E+07
 0.57370003E+02  0.25599E+07
 0.57420002E+02  0.26754E+07
 0.57470001E+02  0.27442E+07
 0.57520000E+02  0.25569E+07
 0.57570000E+02  0.19792E+07
 0.57620003E+02  0.12960E+07
 0.57670002E+02  0.60173E+06
 0.57720001E+02  0.30836E+05
 0.57770000E+02 -0.27058E+06
 0.57820000E+02 -0.39243E+06
 0.57870003E+02 -0.49199E+06
 0.57920002E+02 -0.61534E+06
 0.57970001E+02 -0.78684E+06
 0.58020000E+02 -0.93057E+06
 0.58070000E+02 -0.89230E+06
 0.58120003E+02 -0.84358E+06
 0.58170002E+02 -0.90475E+06
 0.58220001E+02 -0.10307E+07
 0.58270000E+02 -0.13601E+07
 0.58320000E+02 -0.18944E+07
 0.58370003E+02 -0.24151E+07
 0.58420002E+02 -0.28159E+07
 0.58470001E+02 -0.30837E+07
 0.58520000E+02 -0.32812E+07
 0.58570000E+02 -0.33753E+07
 0.58620003E+02 -0.32487E+07
 0.58670002E+02 -0.30003E+07
 0.58720001E+02 -0.27501E+07
 0.58770000E+02 -0.24849E+07
 0.58820000E+02 -0.21492E+07
 0.58870003E+02 -0.16986E+07
 0.58920002E+02 -0.11632E+07
 0.58970001E+02 -0.60189E+06
 0.59020000E+02 -0.38220E+05
 0.59070000E+02  0.37548E+06
 0.59120003E+02  0.60203E+06
 0.59170002E+02  0.93311E+06
 0.59220001E+02  0.14404E+07
 0.59270000E+02  0.20109E+07
 0.59320000E+02  0.25179E+07
 0.59370003E+02  0.27822E+07
 0.59420002E+02  0.27850E+07
 0.59470001E+02  0.25712E+07
 0.59520000E+02  0.22485E+07
 0.59570000E+02  0.18545E+07
 0.59620003E+02  0.15060E+07
 0.59670002E+02  0.14049E+07
 0.59720001E+02  0.13957E+07
 0.59770000E+02  0.14208E+07
 0.59820000E+02  0.15710E+07
 0.59870003E+02  0.17935E+07
 0.59920002E+02  0.19743E+07
 0.59970001E+02  0.20097E+07
 0.60020000E+02  0.19640E+07
 0.60070000E+02  0.19157E+07
 0.60120003E+02  0.18017E+07
 0.60170002E+02  0.15077E+07
 0.60220001E+02  0.11533E+07
 0.60270000E+02  0.83488E+06
 0.60320000E+02  0.48141E+06
 0.60370003E+02  0.10329E+06
 0.60420002E+02 -0.29836E+06
 0.60470001E+02 -0.58281E+06
 0.60520000E+02 -0.65275E+06
 0.60570000E+02 -0.56462E+06
 0.60620003E+02 -0.38086E+06
 0.60670002E+02 -0.23826E+06
 0.60720001E+02 -0.35258E+06
 0.60770000E+02 -0.86789E+06
 0.60820000E+02 -0.16386E+07
 0.60870003E+02 -0.22920E+07
 0.60920002E+02 -0.25245E+07
 0.60970001E+02 -0.23890E+07
 0.61020000E+02 -0.21061E+07
 0.61070004E+02 -0.17986E+07
 0.61119999E+02 -0.15007E+07
 0.61170002E+02 -0.11729E+07
 0.61220005E+02 -0.77178E+06
 0.61270000E+02 -0.36689E+06
 0.61320004E+02 -0.85846E+05
 0.61369999E+02 -0.26810E+05
 0.61420002E+02 -0.17164E+06
 0.61470005E+02 -0.30672E+06
 0.61520000E+02 -0.34999E+06
 0.61570004E+02 -0.45457E+06
 0.61619999E+02 -0.66538E+06
 0.61670002E+02 -0.87950E+06
 0.61720005E+02 -0.10506E+07
 0.61770000E+02 -0.10648E+07
 0.61820004E+02 -0.88208E+06
 0.61869999E+02 -0.66327E+06
 0.61920002E+02 -0.42708E+06
 0.61970005E+02 -0.98631E+05
 0.62020000E+02  0.33684E+06
 0.62070004E+02  0.82387E+06
 0.62119999E+02  0.13872E+07
 0.62170002E+02  0.20728E+07
 0.62220005E+02  0.26971E+07
 0.62270000E+02  0.30841E+07
 0.62320004E+02  0.33082E+07
 0.62369999E+02  0.34883E+07
 0.62420002E+02  0.36706E+07
 0.62470005E+02  0.38718E+07
 0.62520000E+02  0.40325E+07
 0.62570004E+02  0.41164E+07
 0.62619999E+02  0.40067E+07
 0.62670002E+02  0.35963E+07
 0.62720005E+02  0.29825E+07
 0.62770000E+02  0.23667E+07
 0.62820004E+02  0.18671E+07
 0.62869999E+02  0.13429E+07
 0.62920002E+02  0.64467E+06
 0.62970005E+02 -0.99205E+05
 0.63020000E+02 -0.56701E+06
 0.63070004E+02 -0.66950E+06
 0.63119999E+02 -0.57336E+06
 0.63170002E+02 -0.45058E+06
 0.63220005E+02 -0.39746E+06
 0.63270000E+02 -0.42331E+06
 0.63320004E+02 -0.58305E+06
 0.63369999E+02 -0.96376E+06
 0.63420002E+02 -0.15506E+07
 0.63470005E+02 -0.21177E+07
 0.63520000E+02 -0.25112E+07
 0.63570004E+02 -0.27225E+07
 0.63619999E+02 -0.27891E+07
 0.63670002E+02 -0.27678E+07
 0.63720005E+02 -0.25987E+07
 0.63770000E+02 -0.23308E+07
 0.63820004E+02 -0.20666E+07
 0.63869999E+02 -0.18864E+07
 0.63920002E+02 -0.18089E+07
 0.63970005E+02 -0.17131E+07
 0.64019997E+02 -0.16133E+07
 0.64070000E+02 -0.16365E+07
 0.64119995E+02 -0.17581E+07
 0.64169998E+02 -0.18932E+07
 0.64220001E+02 -0.20839E+07
 0.64269997E+02 -0.23229E+07
 0.64320000E+02 -0.25961E+07
 0.64369995E+02 -0.28070E+07
 0.64419998E+02 -0.27212E+07
 0.64470001E+02 -0.23043E+07
 0.64519997E+02 -0.16985E+07
 0.64570000E+02 -0.11389E+07
 0.64619995E+02 -0.84696E+06
 0.64669998E+02 -0.85964E+06
 0.64720001E+02 -0.10126E+07
 0.64769997E+02 -0.12038E+07
 0.64820000E+02 -0.14616E+07
 0.64869995E+02 -0.17440E+07
 0.64919998E+02 -0.20264E+07
 0.64970001E+02 -0.22599E+07
 0.65019997E+02 -0.23492E+07
 0.65070000E+02 -0.22217E+07
 0.65119995E+02 -0.18899E+07
 0.65169998E+02 -0.14486E+07
 0.65220001E+02 -0.96357E+06
 0.65269997E+02 -0.47005E+06
 0.65320000E+02 -0.13799E+05
 0.65369995E+02  0.30514E+06
 0.65419998E+02  0.48372E+06
 0.65470001E+02  0.54354E+06
 0.65519997E+02  0.44074E+06
 0.65570000E+02  0.23943E+06
 0.65619995E+02  0.23972E+05
 0.65669998E+02 -0.16607E+06
 0.65720001E+02 -0.23646E+06
 0.65769997E+02 -0.57627E+05
 0.65820000E+02  0.30142E+06
 0.65869995E+02  0.59007E+06
 0.65919998E+02  0.69493E+06
 0.65970001E+02  0.67935E+06
 0.66019997E+02  0.72670E+06
 0.66070000E+02  0.87690E+06
 0.66119995E+02  0.94015E+06
 0.66169998E+02  0.87758E+06
 0.66220001E+02  0.77761E+06
 0.66269997E+02  0.74030E+06
 0.66320000E+02  0.77426E+06
 0.66369995E+02  0.76591E+06
 0.66419998E+02  0.65077E+06
 0.66470001E+02  0.45692E+06
 0.66519997E+02  0.29522E+06
 0.66570000E+02  0.26294E+06
 0.66619995E+02  0.40279E+06
 0.66669998E+02  0.59943E+06
 0.66720001E+02  0.67292E+06
 0.66769997E+02  0.57572E+06
 0.66820000E+02  0.35592E+06
 0.66869995E+02  0.10446E+06
 0.66919998E+02 -0.62560E+05
 0.66970001E+02 -0.99476E+05
 0.67019997E+02 -0.10772E+06
 0.67070000E+02 -0.11117E+06
 0.67119995E+02 -0.46782E+05
 0.67169998E+02  0.96564E+05
 0.67220001E+02  0.29898E+06
 0.67269997E+02  0.50586E+06
 0.67320000E+02  0.73134E+06
 0.67369995E+02  0.10237E+07
 0.67419998E+02  0.13688E+07
 0.67470001E+02  0.17443E+07
 0.67519997E+02  0.21467E+07
 0.67570000E+02  0.25691E+07
 0.67619995E+02  0.29547E+07
 0.67669998E+02  0.32228E+07
 0.67720001E+02  0.32697E+07
 0.67769997E+02  0.30612E+07
 0.67820000E+02  0.27543E+07
 0.67869995E+02  0.25236E+07
 0.67919998E+02  0.24432E+07
 0.67970001E+02  0.24472E+07
 0.68019997E+02  0.24153E+07
 0.68070000E+02  0.23539E+07
 0.68119995E+02  0.22955E+07
 0.68169998E+02  0.21852E+07
 0.68220001E+02  0.19539E+07
 0.68269997E+02  0.16035E+07
 0.68320000E+02  0.12434E+07
 0.68369995E+02  0.10390E+07
 0.68419998E+02  0.10028E+07
 0.68470001E+02  0.95112E+06
 0.68519997E+02  0.72566E+06
 0.68570000E+02  0.35919E+06
 0.68619995E+02  0.10132E+05
 0.68669998E+02 -0.23163E+06
 0.68720001E+02 -0.36700E+06
 0.68769997E+02 -0.34060E+06
 0.68820000E+02 -0.70313E+05
 0.68869995E+02  0.35538E+06
 0.68919998E+02  0.76793E+06
 0.68970001E+02  0.11055E+07
 0.69019997E+02  0.13325E+07
 0.69070000E+02  0.14178E+07
 0.69119995E+02  0.13421E+07
 0.69169998E+02  0.10869E+07
 0.69220001E+02  0.69243E+06
 0.69269997E+02  0.19032E+06
 0.69320000E+02 -0.38171E+06
 0.69369995E+02 -0.96094E+06
 0.69419998E+02 -0.15371E+07
 0.69470001E+02 -0.21500E+07
 0.69519997E+02 -0.27371E+07
 0.69570000E+02 -0.31078E+07
 0.69619995E+02 -0.31735E+07
 0.69669998E+02 -0.29437E+07
 0.69720001E+02 -0.25527E+07
 0.69769997E+02 -0.22573E+07
 0.69820000E+02 -0.21765E+07
 0.69869995E+02 -0.22079E+07
 0.69919998E+02 -0.21897E+07
 0.69970001E+02 -0.20742E+07
 0.70019997E+02 -0.19157E+07
 0.70070000E+02 -0.17936E+07
 0.70119995E+02 -0.17663E+07
 0.70169998E+02 -0.18871E+07
 0.70220001E+02 -0.21326E+07
 0.70269997E+02 -0.23524E+07
 0.70320000E+02 -0.24354E+07
 0.70369995E+02 -0.23776E+07
 0.70419998E+02 -0.21907E+07
 0.70470001E+02 -0.18579E+07
 0.70519997E+02 -0.13646E+07
 0.70570000E+02 -0.81466E+06
 0.70619995E+02 -0.40146E+06
 0.70669998E+02 -0.16304E+06
 0.70720001E+02 -0.71501E+05
 0.70769997E+02 -0.10122E+06
 0.70820000E+02 -0.17788E+06
 0.70869995E+02 -0.25867E+06
 0.70919998E+02 -0.26864E+06
 0.70970001E+02 -0.17190E+06
 0.71019997E+02  0.40115E+05
 0.71070000E+02  0.35236E+06
 0.71119995E+02  0.72200E+06
 0.71169998E+02  0.11574E+07
 0.71220001E+02  0.16094E+07
 0.71269997E+02  0.20177E+07
 0.71320000E+02  0.23009E+07
 0.71369995E+02  0.24336E+07
 0.71419998E+02  0.25112E+07
 0.71470001E+02  0.25350E+07
 0.71519997E+02  0.24726E+07
 0.71570000E+02  0.23005E+07
 0.71619995E+02  0.19656E+07
 0.71669998E+02  0.15020E+07
 0.71720001E+02  0.10042E+07
 0.71769997E+02  0.52918E+06
 0.71820000E+02  0.10623E+06
 0.71869995E+02 -0.22047E+06
 0.71919998E+02 -0.45532E+06
 0.71970001E+02 -0.62687E+06
 0.72019997E+02 -0.71503E+06
 0.72070000E+02 -0.76493E+06
 0.72119995E+02 -0.84010E+06
 0.72169998E+02 -0.93894E+06
 0.72220001E+02 -0.10050E+07
 0.72269997E+02 -0.94511E+06
 0.72320000E+02 -0.77878E+06
 0.72369995E+02 -0.56749E+06
 0.72419998E+02 -0.30960E+06
 0.72470001E+02  0.22745E+05
 0.72519997E+02  0.41151E+06
 0.72570000E+02  0.75510E+06
 0.72619995E+02  0.10104E+07
 0.72669998E+02  0.11806E+07
 0.72720001E+02  0.12620E+07
 0.72769997E+02  0.12461E+07
 0.72820000E+02  0.11468E+07
 0.72869995E+02  0.10006E+07
 0.72919998E+02  0.83496E+06
 0.72970001E+02  0.71818E+06
 0.73019997E+02  0.66362E+06
 0.73070000E+02  0.64312E+06
 0.73119995E+02  0.63571E+06
 0.73169998E+02  0.59153E+06
 0.73220001E+02  0.48973E+06
 0.73269997E+02  0.34775E+06
 0.73320000E+02  0.19232E+06
 0.73369995E+02  0.56420E+04
 0.73419998E+02 -0.25823E+06
 0.73470001E+02 -0.59859E+06
 0.73519997E+02 -0.95561E+06
 0.73570000E+02 -0.12228E+07
 0.73619995E+02 -0.13435E+07
 0.73669998E+02 -0.13556E+07
 0.73720001E+02 -0.13462E+07
 0.73769997E+02 -0.13962E+07
 0.73820000E+02 -0.14506E+07
 0.73869995E+02 -0.14247E+07
 0.73919998E+02 -0.13449E+07
 0.73970001E+02 -0.12896E+07
 0.74019997E+02 -0.12611E+07
 0.74070000E+02 -0.11695E+07
 0.74119995E+02 -0.10120E+07
 0.74169998E+02 -0.85601E+06
 0.74220001E+02 -0.74954E+06
 0.74269997E+02 -0.68435E+06
 0.74320000E+02 -0.60650E+06
 0.74369995E+02 -0.48804E+06
 0.74419998E+02 -0.32276E+06
 0.74470001E+02 -0.11708E+06
 0.74519997E+02  0.14509E+06
 0.74570000E+02  0.47473E+06
 0.74619995E+02  0.80648E+06
 0.74669998E+02  0.10831E+07
 0.74720001E+02  0.13034E+07
 0.74769997E+02  0.14769E+07
 0.74820000E+02  0.16209E+07
 0.74869995E+02  0.17328E+07
 0.74919998E+02  0.18194E+07
 0.74970001E+02  0.18847E+07
 0.75019997E+02  0.18938E+07
 0.75070000E+02  0.18430E+07
 0.75119995E+02  0.17534E+07
 0.75169998E+02  0.16155E+07
 0.75220001E+02  0.14293E+07
 0.75269997E+02  0.12430E+07
 0.75320000E+02  0.10741E+07
 0.75369995E+02  0.90448E+06
 0.75419998E+02  0.72698E+06
 0.75470001E+02  0.54700E+06
 0.75519997E+02  0.39124E+06
 0.75570000E+02  0.26357E+06
 0.75619995E+02  0.14301E+06
 0.75669998E+02  0.10622E+05
 0.75720001E+02 -0.15687E+06
 0.75769997E+02 -0.39350E+06
 0.75820000E+02 -0.71328E+06
 0.75869995E+02 -0.10837E+07
 0.75919998E+02 -0.14160E+07
 0.75970001E+02 -0.15917E+07
 0.76019997E+02 -0.15887E+07
 0.76070000E+02 -0.14657E+07
 0.76119995E+02 -0.12947E+07
 0.76169998E+02 -0.11551E+07
 0.76220001E+02 -0.10767E+07
 0.76269997E+02 -0.10764E+07
 0.76320000E+02 -0.11691E+07
 0.76369995E+02 -0.13056E+07
 0.76419998E+02 -0.14202E+07
 0.76470001E+02 -0.14850E+07
 0.76519997E+02 -0.14818E+07
 0.76570000E+02 -0.14306E+07
 0.76619995E+02 -0.14036E+07
 0.76669998E+02 -0.14282E+07
 0.76720001E+02 -0.14666E+07
 0.76769997E+02 -0.14592E+07
 0.76820000E+02 -0.13591E+07
 0.76869995E+02 -0.11552E+07
 0.76919998E+02 -0.85294E+06
 0.76970001E+02 -0.49442E+06
 0.77019997E+02 -0.15432E+06
 0.77070000E+02  0.11058E+06
 0.77119995E+02  0.27004E+06
 0.77169998E+02  0.29373E+06
 0.77220001E+02  0.16585E+06
 0.77269997E+02 -0.70263E+05
 0.77320000E+02 -0.35077E+06
 0.77369995E+02 -0.60411E+06
 0.77419998E+02 -0.79318E+06
 0.77470001E+02 -0.91223E+06
 0.77519997E+02 -0.92401E+06
 0.77570000E+02 -0.82386E+06
 0.77619995E+02 -0.68350E+06
 0.77669998E+02 -0.58371E+06
 0.77720001E+02 -0.55946E+06
 0.77769997E+02 -0.62557E+06
 0.77820000E+02 -0.71704E+06
 0.77869995E+02 -0.75032E+06
 0.77919998E+02 -0.70394E+06
 0.77970001E+02 -0.56038E+06
 0.78019997E+02 -0.32754E+06
 0.78070000E+02 -0.49732E+05
 0.78119995E+02  0.23581E+06
 0.78169998E+02  0.53361E+06
 0.78220001E+02  0.82508E+06
 0.78269997E+02  0.10514E+07
 0.78320000E+02  0.11624E+07
 0.78369995E+02  0.11586E+07
 0.78419998E+02  0.11099E+07
 0.78470001E+02  0.10909E+07
 0.78519997E+02  0.11053E+07
 0.78570000E+02  0.11383E+07
 0.78619995E+02  0.12289E+07
 0.78669998E+02  0.13747E+07
 0.78720001E+02  0.15270E+07
 0.78769997E+02  0.16551E+07
 0.78820000E+02  0.17146E+07
 0.78869995E+02  0.16968E+07
 0.78919998E+02  0.16691E+07
 0.78970001E+02  0.16802E+07
 0.79019997E+02  0.17173E+07
 0.79070000E+02  0.17410E+07
 0.79119995E+02  0.17713E+07
 0.79169998E+02  0.18223E+07
 0.79220001E+02  0.18283E+07
 0.79269997E+02  0.17638E+07
 0.79320000E+02  0.16240E+07
 0.79369995E+02  0.13993E+07
 0.79419998E+02  0.11264E+07
 0.79470001E+02  0.88508E+06
 0.79519997E+02  0.72840E+06
 0.79570000E+02  0.62162E+06
 0.79619995E+02  0.49851E+06
 0.79669998E+02  0.31751E+06
 0.79720001E+02  0.89788E+05
 0.79769997E+02 -0.16731E+06
 0.79820000E+02 -0.45869E+06
 0.79869995E+02 -0.75320E+06
 0.79919998E+02 -0.10076E+07
 0.79970001E+02 -0.11969E+07
 0.80019997E+02 -0.13317E+07
 0.80070000E+02 -0.14802E+07
 0.80119995E+02 -0.16756E+07
 0.80169998E+02 -0.18667E+07
 0.80220001E+02 -0.19947E+07
 0.80269997E+02 -0.20208E+07
 0.80320000E+02 -0.19336E+07
 0.80369995E+02 -0.17568E+07
 0.80419998E+02 -0.14984E+07
 0.80470001E+02 -0.11844E+07
 0.80519997E+02 -0.88664E+06
 0.80570000E+02 -0.65625E+06
 0.80619995E+02 -0.48313E+06
 0.80669998E+02 -0.32158E+06
 0.80720001E+02 -0.15048E+06
 0.80769997E+02  0.12018E+05
 0.80820000E+02  0.13451E+06
 0.80869995E+02  0.24030E+06
 0.80919998E+02  0.35636E+06
 0.80970001E+02  0.45963E+06
 0.81019997E+02  0.54736E+06
 0.81070000E+02  0.64893E+06
 0.81119995E+02  0.79084E+06
 0.81169998E+02  0.92930E+06
 0.81220001E+02  0.10213E+07
 0.81269997E+02  0.10853E+07
 0.81320000E+02  0.11670E+07
 0.81369995E+02  0.13139E+07
 0.81419998E+02  0.15031E+07
 0.81470001E+02  0.16849E+07
 0.81519997E+02  0.18382E+07
 0.81570000E+02  0.19636E+07
 0.81619995E+02  0.20763E+07
 0.81669998E+02  0.21570E+07
 0.81720001E+02  0.21718E+07
 0.81769997E+02  0.21134E+07
 0.81820000E+02  0.19616E+07
 0.81869995E+02  0.17030E+07
 0.81919998E+02  0.13769E+07
 0.81970001E+02  0.10480E+07
 0.82019997E+02  0.75320E+06
 0.82070000E+02  0.47712E+06
 0.82119995E+02  0.19011E+06
 0.82169998E+02 -0.10518E+06
 0.82220001E+02 -0.36683E+06
 0.82269997E+02 -0.57943E+06
 0.82320000E+02 -0.77215E+06
 0.82369995E+02 -0.95020E+06
 0.82419998E+02 -0.10923E+07
 0.82470001E+02 -0.11809E+07
 0.82519997E+02 -0.12266E+07
 0.82570000E+02 -0.12659E+07
 0.82619995E+02 -0.13075E+07
 0.82669998E+02 -0.13481E+07
 0.82720001E+02 -0.13839E+07
 0.82769997E+02 -0.14070E+07
 0.82820000E+02 -0.14349E+07
 0.82869995E+02 -0.14810E+07
 0.82919998E+02 -0.15337E+07
 0.82970001E+02 -0.15604E+07
 0.83019997E+02 -0.15492E+07
 0.83070000E+02 -0.15323E+07
 0.83119995E+02 -0.15291E+07
 0.83169998E+02 -0.15393E+07
 0.83220001E+02 -0.15410E+07
 0.83269997E+02 -0.14993E+07
 0.83320000E+02 -0.14204E+07
 0.83369995E+02 -0.13457E+07
 0.83419998E+02 -0.12834E+07
 0.83470001E+02 -0.12068E+07
 0.83519997E+02 -0.11326E+07
 0.83570000E+02 -0.11070E+07
 0.83619995E+02 -0.11282E+07
 0.83669998E+02 -0.11367E+07
 0.83720001E+02 -0.10625E+07
 0.83769997E+02 -0.89404E+06
 0.83820000E+02 -0.68271E+06
 0.83869995E+02 -0.48213E+06
 0.83919998E+02 -0.29805E+06
 0.83970001E+02 -0.93820E+05
 0.84019997E+02  0.13104E+06
 0.84070000E+02  0.32604E+06
 0.84119995E+02  0.44485E+06
 0.84169998E+02  0.45188E+06
 0.84220001E+02  0.34458E+06
 0.84269997E+02  0.14887E+06
 0.84320000E+02 -0.10391E+06
 0.84369995E+02 -0.34943E+06
 0.84419998E+02 -0.51521E+06
 0.84470001E+02 -0.51213E+06
 0.84519997E+02 -0.30172E+06
 0.84570000E+02 -0.75000E+03
 0.84619995E+02  0.25018E+06
 0.84669998E+02  0.39116E+06
 0.84720001E+02  0.45123E+06
 0.84769997E+02  0.49284E+06
 0.84820000E+02  0.52156E+06
 0.84869995E+02  0.50670E+06
 0.84919998E+02  0.46435E+06
 0.84970001E+02  0.46897E+06
 0.85019997E+02  0.54439E+06
 0.85070000E+02  0.65940E+06
 0.85119995E+02  0.77145E+06
 0.85169998E+02  0.86577E+06
 0.85220001E+02  0.97581E+06
 0.85269997E+02  0.11222E+07
 0.85320000E+02  0.13072E+07
 0.85369995E+02  0.15062E+07
 0.85419998E+02  0.16917E+07
 0.85470001E+02  0.18610E+07
 0.85519997E+02  0.20050E+07
 0.85570000E+02  0.21027E+07
 0.85619995E+02  0.21433E+07
 0.85669998E+02  0.21460E+07
 0.85720001E+02  0.21145E+07
 0.85769997E+02  0.20335E+07
 0.85820000E+02  0.18952E+07
 0.85869995E+02  0.16889E+07
 0.85919998E+02  0.14346E+07
 0.85970001E+02  0.11802E+07
 0.86019997E+02  0.95459E+06
 0.86070000E+02  0.74915E+06
 0.86119995E+02  0.54846E+06
 0.86169998E+02  0.37244E+06
 0.86220001E+02  0.23655E+06
 0.86269997E+02  0.10321E+06
 0.86320000E+02 -0.59605E+05
 0.86369995E+02 -0.23560E+06
 0.86419998E+02 -0.41530E+06
 0.86470001E+02 -0.60693E+06
 0.86519997E+02 -0.82228E+06
 0.86570000E+02 -0.10808E+07
 0.86619995E+02 -0.13585E+07
 0.86669998E+02 -0.16041E+07
 0.86720001E+02 -0.18103E+07
 0.86769997E+02 -0.19967E+07
 0.86820000E+02 -0.21685E+07
 0.86869995E+02 -0.23167E+07
 0.86919998E+02 -0.24123E+07
 0.86970001E+02 -0.24450E+07
 0.87019997E+02 -0.24490E+07
 0.87070000E+02 -0.24239E+07
 0.87119995E+02 -0.23521E+07
 0.87169998E+02 -0.22348E+07
 0.87220001E+02 -0.20879E+07
 0.87269997E+02 -0.19550E+07
 0.87320000E+02 -0.18482E+07
 0.87369995E+02 -0.17355E+07
 0.87419998E+02 -0.15916E+07
 0.87470001E+02 -0.14171E+07
 0.87519997E+02 -0.12293E+07
 0.87570000E+02 -0.10275E+07
 0.87619995E+02 -0.77613E+06
 0.87669998E+02 -0.45634E+06
 0.87720001E+02 -0.10283E+06
 0.87769997E+02  0.22351E+06
 0.87820000E+02  0.49048E+06
 0.87869995E+02  0.70691E+06
 0.87919998E+02  0.88140E+06
 0.87970001E+02  0.10098E+07
 0.88019997E+02  0.10834E+07
 0.88070000E+02  0.10968E+07
 0.88119995E+02  0.10684E+07
 0.88169998E+02  0.10445E+07
 0.88220001E+02  0.10757E+07
 0.88269997E+02  0.11773E+07
 0.88320000E+02  0.13363E+07
 0.88369995E+02  0.15353E+07
 0.88419998E+02  0.17402E+07
 0.88470001E+02  0.19146E+07
 0.88519997E+02  0.20267E+07
 0.88570000E+02  0.20534E+07
 0.88619995E+02  0.19880E+07
 0.88669998E+02  0.18461E+07
 0.88720001E+02  0.16782E+07
 0.88769997E+02  0.15193E+07
 0.88820000E+02  0.13686E+07
 0.88869995E+02  0.12192E+07
 0.88919998E+02  0.10862E+07
 0.88970001E+02  0.98691E+06
 0.89019997E+02  0.90517E+06
 0.89070000E+02  0.81397E+06
 0.89119995E+02  0.70126E+06
 0.89169998E+02  0.59340E+06
 0.89220001E+02  0.52790E+06
 0.89269997E+02  0.52275E+06
 0.89320000E+02  0.56730E+06
 0.89369995E+02  0.61825E+06
 0.89419998E+02  0.64557E+06
 0.89470001E+02  0.63008E+06
 0.89519997E+02  0.56895E+06
 0.89570000E+02  0.47388E+06
 0.89619995E+02  0.35246E+06
 0.89669998E+02  0.24712E+06
 0.89720001E+02  0.19737E+06
 0.89769997E+02  0.17499E+06
 0.89820000E+02  0.12252E+06
 0.89869995E+02  0.12514E+05
 0.89919998E+02 -0.15643E+06
 0.89970001E+02 -0.34874E+06
 0.90019997E+02 -0.50784E+06
 0.90070000E+02 -0.61265E+06
 0.90119995E+02 -0.66399E+06
 0.90169998E+02 -0.67987E+06
 0.90220001E+02 -0.67281E+06
 0.90269997E+02 -0.63031E+06
 0.90320000E+02 -0.56905E+06
 0.90369995E+02 -0.52063E+06
 0.90419998E+02 -0.51420E+06
 0.90470001E+02 -0.56524E+06
 0.90519997E+02 -0.64714E+06
 0.90570000E+02 -0.74917E+06
 0.90619995E+02 -0.87370E+06
 0.90669998E+02 -0.99884E+06
 0.90720001E+02 -0.10785E+07
 0.90769997E+02 -0.10677E+07
 0.90820000E+02 -0.98623E+06
 0.90869995E+02 -0.89215E+06
 0.90919998E+02 -0.80896E+06
 0.90970001E+02 -0.71501E+06
 0.91019997E+02 -0.58943E+06
 0.91070000E+02 -0.44258E+06
 0.91119995E+02 -0.28940E+06
 0.91169998E+02 -0.14293E+06
 0.91220001E+02 -0.21209E+05
 0.91269997E+02  0.73855E+05
 0.91320000E+02  0.13231E+06
 0.91369995E+02  0.13418E+06
 0.91419998E+02  0.85296E+05
 0.91470001E+02 -0.20160E+04
 0.91519997E+02 -0.12049E+06
 0.91570000E+02 -0.24969E+06
 0.91619995E+02 -0.34625E+06
 0.91669998E+02 -0.38752E+06
 0.91720001E+02 -0.39673E+06
 0.91769997E+02 -0.43105E+06
 0.91820000E+02 -0.51245E+06
 0.91869995E+02 -0.59394E+06
 0.91919998E+02 -0.62967E+06
 0.91970001E+02 -0.59276E+06
 0.92019997E+02 -0.49249E+06
 0.92070000E+02 -0.35016E+06
 0.92119995E+02 -0.19044E+06
 0.92169998E+02 -0.38444E+05
 0.92220001E+02  0.97932E+05
 0.92269997E+02  0.18941E+06
 0.92320000E+02  0.21268E+06
 0.92369995E+02  0.18356E+06
 0.92419998E+02  0.14806E+06
 0.92470001E+02  0.13471E+06
 0.92519997E+02  0.14566E+06
 0.92570000E+02  0.17908E+06
 0.92619995E+02  0.24187E+06
 0.92669998E+02  0.34368E+06
 0.92720001E+02  0.45315E+06
 0.92769997E+02  0.54618E+06
 0.92820000E+02  0.62564E+06
 0.92869995E+02  0.69380E+06
 0.92919998E+02  0.75254E+06
 0.92970001E+02  0.79107E+06
 0.93019997E+02  0.79929E+06
 0.93070000E+02  0.78184E+06
 0.93119995E+02  0.77140E+06
 0.93169998E+02  0.78057E+06
 0.93220001E+02  0.78200E+06
 0.93269997E+02  0.73587E+06
 0.93320000E+02  0.62685E+06
 0.93369995E+02  0.49058E+06
 0.93419998E+02  0.35721E+06
 0.93470001E+02  0.24047E+06
 0.93519997E+02  0.12324E+06
 0.93570000E+02 -0.12594E+05
 0.93619995E+02 -0.14645E+06
 0.93669998E+02 -0.24625E+06
 0.93720001E+02 -0.27961E+06
 0.93769997E+02 -0.25453E+06
 0.93820000E+02 -0.22703E+06
 0.93869995E+02 -0.25988E+06
 0.93919998E+02 -0.37115E+06
 0.93970001E+02 -0.54012E+06
 0.94019997E+02 -0.73909E+06
 0.94070000E+02 -0.94634E+06
 0.94119995E+02 -0.11577E+07
 0.94169998E+02 -0.13500E+07
 0.94220001E+02 -0.14739E+07
 0.94269997E+02 -0.14877E+07
 0.94320000E+02 -0.13864E+07
 0.94369995E+02 -0.12099E+07
 0.94419998E+02 -0.10056E+07
 0.94470001E+02 -0.80484E+06
 0.94519997E+02 -0.62403E+06
 0.94570000E+02 -0.47419E+06
 0.94619995E+02 -0.35144E+06
 0.94669998E+02 -0.22130E+06
 0.94720001E+02 -0.69256E+05
 0.94769997E+02  0.91415E+05
 0.94820000E+02  0.25443E+06
 0.94869995E+02  0.39743E+06
 0.94919998E+02  0.50053E+06
 0.94970001E+02  0.58016E+06
 0.95019997E+02  0.64826E+06
 0.95070000E+02  0.69907E+06
 0.95119995E+02  0.72207E+06
 0.95169998E+02  0.71112E+06
 0.95220001E+02  0.69048E+06
 0.95269997E+02  0.69598E+06
 0.95320000E+02  0.73372E+06
 0.95369995E+02  0.77778E+06
 0.95419998E+02  0.79477E+06
 0.95470001E+02  0.78228E+06
 0.95519997E+02  0.77562E+06
 0.95570000E+02  0.78611E+06
 0.95619995E+02  0.79315E+06
 0.95669998E+02  0.79001E+06
 0.95720001E+02  0.76739E+06
 0.95769997E+02  0.69605E+06
 0.95820000E+02  0.55882E+06
 0.95869995E+02  0.37726E+06
 0.95919998E+02  0.20972E+06
 0.95970001E+02  0.97152E+05
 0.96019997E+02  0.37393E+05
 0.96070000E+02  0.29708E+05
 0.96119995E+02  0.74753E+05
 0.96169998E+02  0.16374E+06
 0.96220001E+02  0.25263E+06
 0.96269997E+02  0.27888E+06
 0.96320000E+02  0.24348E+06
 0.96369995E+02  0.18982E+06
 0.96419998E+02  0.15388E+06
 0.96470001E+02  0.15044E+06
 0.96519997E+02  0.17068E+06
 0.96570000E+02  0.21327E+06
 0.96619995E+02  0.28847E+06
 0.96669998E+02  0.38449E+06
 0.96720001E+02  0.46946E+06
 0.96769997E+02  0.52632E+06
 0.96820000E+02  0.53840E+06
 0.96869995E+02  0.48879E+06
 0.96919998E+02  0.39654E+06
 0.96970001E+02  0.28971E+06
 0.97019997E+02  0.17976E+06
 0.97070000E+02  0.53709E+05
 0.97119995E+02 -0.10536E+06
 0.97169998E+02 -0.29162E+06
 0.97220001E+02 -0.49645E+06
 0.97269997E+02 -0.69590E+06
 0.97320000E+02 -0.86368E+06
 0.97369995E+02 -0.98910E+06
 0.97419998E+02 -0.10725E+07
 0.97470001E+02 -0.11341E+07
 0.97519997E+02 -0.11900E+07
 0.97570000E+02 -0.12481E+07
 0.97619995E+02 -0.13087E+07
 0.97669998E+02 -0.13604E+07
 0.97720001E+02 -0.14045E+07
 0.97769997E+02 -0.14536E+07
 0.97820000E+02 -0.15121E+07
 0.97869995E+02 -0.15769E+07
 0.97919998E+02 -0.16400E+07
 0.97970001E+02 -0.16924E+07
 0.98019997E+02 -0.17316E+07
 0.98070000E+02 -0.17347E+07
 0.98119995E+02 -0.16755E+07
 0.98169998E+02 -0.15630E+07
 0.98220001E+02 -0.14197E+07
 0.98269997E+02 -0.12632E+07
 0.98320000E+02 -0.10900E+07
 0.98369995E+02 -0.90835E+06
 0.98419998E+02 -0.75822E+06
 0.98470001E+02 -0.65287E+06
 0.98519997E+02 -0.56007E+06
 0.98570000E+02 -0.43213E+06
 0.98619995E+02 -0.24237E+06
 0.98669998E+02  0.12416E+05
 0.98720001E+02  0.29676E+06
 0.98769997E+02  0.55300E+06
 0.98820000E+02  0.74861E+06
 0.98869995E+02  0.87464E+06
 0.98919998E+02  0.95828E+06
 0.98970001E+02  0.10471E+07
 0.99019997E+02  0.11674E+07
 0.99070000E+02  0.13083E+07
 0.99119995E+02  0.14333E+07
 0.99169998E+02  0.15184E+07
 0.99220001E+02  0.15636E+07
 0.99269997E+02  0.15722E+07
 0.99320000E+02  0.15389E+07
 0.99369995E+02  0.14698E+07
 0.99419998E+02  0.13726E+07
 0.99470001E+02  0.12462E+07
 0.99519997E+02  0.11103E+07
 0.99570000E+02  0.98996E+06
 0.99619995E+02  0.88030E+06
 0.99669998E+02  0.75926E+06
 0.99720001E+02  0.62314E+06
 0.99769997E+02  0.48483E+06
 0.99820000E+02  0.36494E+06
 0.99869995E+02  0.28045E+06
 0.99919998E+02  0.22566E+06
 0.99970001E+02  0.18860E+06
 0.10002000E+03  0.15993E+06
 0.10007000E+03  0.13808E+06
 0.10012000E+03  0.12711E+06
 0.10017000E+03  0.12943E+06
 0.10022000E+03  0.13824E+06
 0.10027000E+03  0.13140E+06
 0.10032000E+03  0.10819E+06
 0.10037000E+03  0.88943E+05
 0.10042000E+03  0.80844E+05
 0.10047000E+03  0.84975E+05
 0.10052000E+03  0.99812E+05
 0.10057000E+03  0.12872E+06
 0.10062000E+03  0.18527E+06
 0.10067000E+03  0.27423E+06
 0.10072000E+03  0.38426E+06
 0.10077000E+03  0.48556E+06
 0.10082000E+03  0.55021E+06
 0.10087000E+03  0.57814E+06
 0.10092000E+03  0.56918E+06
 0.10097000E+03  0.52809E+06
 0.10102000E+03  0.48608E+06
 0.10107000E+03  0.46638E+06
 0.10112000E+03  0.48327E+06
 0.10117000E+03  0.54158E+06
 0.10122000E+03  0.63019E+06
 0.10127000E+03  0.72794E+06
 0.10132000E+03  0.78985E+06
 0.10137000E+03  0.77760E+06
 0.10142000E+03  0.70134E+06
 0.10147000E+03  0.58812E+06
 0.10152000E+03  0.44448E+06
 0.10157000E+03  0.28117E+06
 0.10162000E+03  0.11508E+06
 0.10167000E+03 -0.49503E+05
 0.10172000E+03 -0.21496E+06
 0.10177000E+03 -0.38614E+06
 0.10182000E+03 -0.55368E+06
 0.10187000E+03 -0.68471E+06
 0.10192000E+03 -0.75953E+06
 0.10197000E+03 -0.78520E+06
 0.10202000E+03 -0.77509E+06
 0.10207000E+03 -0.75458E+06
 0.10212000E+03 -0.74156E+06
 0.10217000E+03 -0.73957E+06
 0.10222000E+03 -0.75486E+06
 0.10227000E+03 -0.78585E+06
 0.10232000E+03 -0.82533E+06
 0.10237000E+03 -0.86337E+06
 0.10242000E+03 -0.86795E+06
 0.10247000E+03 -0.81399E+06
 0.10252000E+03 -0.72476E+06
 0.10257000E+03 -0.63878E+06
 0.10262000E+03 -0.58501E+06
 0.10267000E+03 -0.57166E+06
 0.10272000E+03 -0.58417E+06
 0.10277000E+03 -0.60345E+06
 0.10282000E+03 -0.60896E+06
 0.10287000E+03 -0.59441E+06
 0.10292000E+03 -0.57398E+06
 0.10297000E+03 -0.54958E+06
 0.10302000E+03 -0.51221E+06
 0.10307000E+03 -0.46835E+06
 0.10312000E+03 -0.41673E+06
 0.10317000E+03 -0.35034E+06
 0.10322000E+03 -0.27685E+06
 0.10327000E+03 -0.20478E+06
 0.10332000E+03 -0.13335E+06
 0.10337000E+03 -0.64731E+05
 0.10342000E+03 -0.56410E+04
 0.10347000E+03  0.43882E+05
 0.10352000E+03  0.79043E+05
 0.10357000E+03  0.90829E+05
 0.10362000E+03  0.86705E+05
 0.10367000E+03  0.83526E+05
 0.10372000E+03  0.82766E+05
 0.10377000E+03  0.84473E+05
 0.10382000E+03  0.92252E+05
 0.10387000E+03  0.10232E+06
 0.10392000E+03  0.11524E+06
 0.10397000E+03  0.13017E+06
 0.10402000E+03  0.13954E+06
 0.10407000E+03  0.14242E+06
 0.10412000E+03  0.13616E+06
 0.10417000E+03  0.11785E+06
 0.10422000E+03  0.10926E+06
 0.10427000E+03  0.13674E+06
 0.10432000E+03  0.20466E+06
 0.10437000E+03  0.28394E+06
 0.10442000E+03  0.33249E+06
 0.10447000E+03  0.33394E+06
 0.10452000E+03  0.28267E+06
 0.10457000E+03  0.18403E+06
 0.10462000E+03  0.55418E+05
 0.10467000E+03 -0.84366E+05
 0.10472000E+03 -0.20572E+06
 0.10477000E+03 -0.27622E+06
 0.10482000E+03 -0.27708E+06
 0.10487000E+03 -0.22882E+06
 0.10492000E+03 -0.17595E+06
 0.10497000E+03 -0.14511E+06
 0.10502000E+03 -0.14532E+06
 0.10507000E+03 -0.16591E+06
 0.10512000E+03 -0.18069E+06
 0.10517000E+03 -0.16552E+06
 0.10522000E+03 -0.11047E+06
 0.10527000E+03 -0.26026E+05
 0.10532000E+03  0.72056E+05
 0.10537000E+03  0.16804E+06
 0.10542000E+03  0.25056E+06
 0.10547000E+03  0.31117E+06
 0.10552000E+03  0.34366E+06
 0.10557000E+03  0.35409E+06
 0.10562000E+03  0.34876E+06
 0.10567000E+03  0.33085E+06
 0.10572000E+03  0.31030E+06
 0.10577000E+03  0.29517E+06
 0.10582000E+03  0.28638E+06
 0.10587000E+03  0.28681E+06
 0.10592000E+03  0.30372E+06
 0.10597000E+03  0.35041E+06
 0.10602000E+03  0.42749E+06
 0.10607000E+03  0.52515E+06
 0.10612000E+03  0.63107E+06
 0.10617000E+03  0.71246E+06
 0.10622000E+03  0.73181E+06
 0.10627000E+03  0.66962E+06
 0.10632000E+03  0.54414E+06
 0.10637000E+03  0.40004E+06
 0.10642000E+03  0.27788E+06
 0.10647000E+03  0.19883E+06
 0.10652000E+03  0.16808E+06
 0.10657000E+03  0.19040E+06
 0.10662000E+03  0.24516E+06
 0.10667000E+03  0.29142E+06
 0.10672000E+03  0.30466E+06
 0.10677000E+03  0.27902E+06
 0.10682000E+03  0.21866E+06
 0.10687000E+03  0.13329E+06
 0.10692000E+03  0.42526E+05
 0.10697000E+03 -0.32808E+05
 0.10702000E+03 -0.75954E+05
 0.10707000E+03 -0.73903E+05
 0.10712000E+03 -0.24404E+05
 0.10717000E+03  0.59470E+05
 0.10722000E+03  0.14231E+06
 0.10727000E+03  0.19195E+06
 0.10732000E+03  0.19375E+06
 0.10737000E+03  0.13937E+06
 0.10742000E+03  0.46869E+05
 0.10747000E+03 -0.53999E+05
 0.10752000E+03 -0.15290E+06
 0.10757000E+03 -0.24332E+06
 0.10762000E+03 -0.31724E+06
 0.10767000E+03 -0.38368E+06
 0.10772000E+03 -0.47014E+06
 0.10777000E+03 -0.58216E+06
 0.10782000E+03 -0.69712E+06
 0.10787000E+03 -0.79435E+06
 0.10792000E+03 -0.85879E+06
 0.10797000E+03 -0.88701E+06
 0.10802000E+03 -0.87025E+06
 0.10807000E+03 -0.80786E+06
 0.10812000E+03 -0.72516E+06
 0.10817000E+03 -0.65060E+06
 0.10822000E+03 -0.60128E+06
 0.10827000E+03 -0.56859E+06
 0.10832000E+03 -0.54050E+06
 0.10837000E+03 -0.50398E+06
 0.10842000E+03 -0.43702E+06
 0.10847000E+03 -0.32952E+06
 0.10852000E+03 -0.19477E+06
 0.10857000E+03 -0.63162E+05
 0.10862000E+03  0.47520E+05
 0.10867000E+03  0.13744E+06
 0.10872000E+03  0.21916E+06
 0.10877000E+03  0.30248E+06
 0.10882000E+03  0.38288E+06
 0.10887000E+03  0.46340E+06
 0.10892000E+03  0.54859E+06
 0.10897000E+03  0.62166E+06
 0.10902000E+03  0.64898E+06
 0.10907000E+03  0.60882E+06
 0.10912000E+03  0.50034E+06
 0.10917000E+03  0.33986E+06
 0.10922000E+03  0.16484E+06
 0.10927000E+03  0.12566E+05
 0.10932000E+03 -0.96160E+05
 0.10937000E+03 -0.15593E+06
 0.10942000E+03 -0.17454E+06
 0.10947000E+03 -0.17354E+06
 0.10952000E+03 -0.17222E+06
 0.10957000E+03 -0.16941E+06
 0.10962000E+03 -0.16027E+06
 0.10967000E+03 -0.14979E+06
 0.10972000E+03 -0.14881E+06
 0.10977000E+03 -0.16400E+06
 0.10982000E+03 -0.18571E+06
 0.10987000E+03 -0.19119E+06
 0.10992000E+03 -0.16622E+06
 0.10997000E+03 -0.10714E+06
 0.11002000E+03 -0.17057E+05
 0.11007000E+03  0.86606E+05
 0.11012000E+03  0.18408E+06
 0.11017000E+03  0.26177E+06
 0.11022000E+03  0.31402E+06
 0.11027000E+03  0.34620E+06
 0.11032000E+03  0.37348E+06
 0.11037000E+03  0.40667E+06
 0.11042000E+03  0.43669E+06
 0.11047000E+03  0.44926E+06
 0.11052000E+03  0.44571E+06
 0.11057000E+03  0.43790E+06
 0.11062000E+03  0.42406E+06
 0.11067000E+03  0.39446E+06
 0.11072000E+03  0.35530E+06
 0.11077000E+03  0.31931E+06
 0.11082000E+03  0.29810E+06
 0.11087000E+03  0.29527E+06
 0.11092000E+03  0.29231E+06
 0.11097000E+03  0.26863E+06
 0.11102000E+03  0.21999E+06
 0.11107000E+03  0.15018E+06
 0.11112000E+03  0.72064E+05
 0.11117000E+03  0.15370E+04
 0.11122000E+03 -0.51057E+05
 0.11127000E+03 -0.78982E+05
 0.11132000E+03 -0.81945E+05
 0.11137000E+03 -0.65377E+05
 0.11142000E+03 -0.32150E+05
 0.11147000E+03  0.13316E+05
 0.11152000E+03  0.50737E+05
 0.11157000E+03  0.64407E+05
 0.11162000E+03  0.55471E+05
 0.11167000E+03  0.37969E+05
 0.11172000E+03  0.36983E+05
 0.11177000E+03  0.60333E+05
 0.11182000E+03  0.97020E+05
 0.11187000E+03  0.13078E+06
 0.11192000E+03  0.15040E+06
 0.11197000E+03  0.15849E+06
 0.11202000E+03  0.15824E+06
 0.11207000E+03  0.15625E+06
 0.11212000E+03  0.16155E+06
 0.11217000E+03  0.17743E+06
 0.11222000E+03  0.20060E+06
 0.11227000E+03  0.21330E+06
 0.11232000E+03  0.19798E+06
 0.11237000E+03  0.14767E+06
 0.11242000E+03  0.65965E+05
 0.11247000E+03 -0.34111E+05
 0.11252000E+03 -0.13800E+06
 0.11257000E+03 -0.22744E+06
 0.11262000E+03 -0.29455E+06
 0.11267000E+03 -0.34295E+06
 0.11272000E+03 -0.36911E+06
 0.11277000E+03 -0.36750E+06
 0.11282000E+03 -0.34811E+06
 0.11287000E+03 -0.33818E+06
 0.11292000E+03 -0.35744E+06
 0.11297000E+03 -0.40452E+06
 0.11302000E+03 -0.46060E+06
 0.11307000E+03 -0.50872E+06
 0.11312000E+03 -0.55277E+06
 0.11317000E+03 -0.60620E+06
 0.11322000E+03 -0.67577E+06
 0.11327000E+03 -0.74928E+06
 0.11332000E+03 -0.80240E+06
 0.11337000E+03 -0.81738E+06
 0.11342000E+03 -0.79334E+06
 0.11347000E+03 -0.73366E+06
 0.11352000E+03 -0.64385E+06
 0.11357000E+03 -0.54288E+06
 0.11362000E+03 -0.44141E+06
 0.11367000E+03 -0.33856E+06
 0.11372000E+03 -0.22425E+06
 0.11377000E+03 -0.92489E+05
 0.11382000E+03  0.41069E+05
 0.11387000E+03  0.15351E+06
 0.11392000E+03  0.22426E+06
 0.11397000E+03  0.25257E+06
 0.11402000E+03  0.25602E+06
 0.11407000E+03  0.25671E+06
 0.11412000E+03  0.27333E+06
 0.11417000E+03  0.31404E+06
 0.11422000E+03  0.37816E+06
 0.11427000E+03  0.45643E+06
 0.11432000E+03  0.54521E+06
 0.11437000E+03  0.63669E+06
 0.11442000E+03  0.71365E+06
 0.11447000E+03  0.76877E+06
 0.11452000E+03  0.80326E+06
 0.11457000E+03  0.82433E+06
 0.11462000E+03  0.83391E+06
 0.11467000E+03  0.82514E+06
 0.11472000E+03  0.79175E+06
 0.11477000E+03  0.73350E+06
 0.11482000E+03  0.65740E+06
 0.11487000E+03  0.57404E+06
 0.11492000E+03  0.49257E+06
 0.11497000E+03  0.41596E+06
 0.11502000E+03  0.34192E+06
 0.11507000E+03  0.25679E+06
 0.11512000E+03  0.14267E+06
 0.11517000E+03 -0.55770E+04
 0.11522000E+03 -0.17722E+06
 0.11527000E+03 -0.34952E+06
 0.11532000E+03 -0.50266E+06
 0.11537000E+03 -0.62987E+06
 0.11542000E+03 -0.73005E+06
 0.11547000E+03 -0.80776E+06
 0.11552000E+03 -0.86786E+06
 0.11557000E+03 -0.90427E+06
 0.11562000E+03 -0.91533E+06
 0.11567000E+03 -0.90855E+06
 0.11572000E+03 -0.89206E+06
 0.11577000E+03 -0.87350E+06
 0.11582000E+03 -0.85450E+06
 0.11587000E+03 -0.84035E+06
 0.11592000E+03 -0.84112E+06
 0.11597000E+03 -0.85212E+06
 0.11602000E+03 -0.85535E+06
 0.11607000E+03 -0.83685E+06
 0.11612000E+03 -0.79298E+06
 0.11617000E+03 -0.71776E+06
 0.11622000E+03 -0.60391E+06
 0.11627000E+03 -0.46034E+06
 0.11632000E+03 -0.30985E+06
 0.11637000E+03 -0.17926E+06
 0.11642000E+03 -0.83848E+05
 0.11647000E+03 -0.19405E+05
 0.11652000E+03  0.28138E+05
 0.11657000E+03  0.73935E+05
 0.11662000E+03  0.12833E+06
 0.11667000E+03  0.18902E+06
 0.11672000E+03  0.23953E+06
 0.11677000E+03  0.27348E+06
 0.11682000E+03  0.29892E+06
 0.11687000E+03  0.31942E+06
 0.11692000E+03  0.33443E+06
 0.11697000E+03  0.34275E+06
 0.11702000E+03  0.34505E+06
 0.11707000E+03  0.34331E+06
 0.11712000E+03  0.33864E+06
 0.11717000E+03  0.32449E+06
 0.11722000E+03  0.29466E+06
 0.11727000E+03  0.25560E+06
 0.11732000E+03  0.21370E+06
 0.11737000E+03  0.17778E+06
 0.11742000E+03  0.15815E+06
 0.11747000E+03  0.16173E+06
 0.11752000E+03  0.18455E+06
 0.11757000E+03  0.20867E+06
 0.11762000E+03  0.22015E+06
 0.11767000E+03  0.21247E+06
 0.11772000E+03  0.18658E+06
 0.11777000E+03  0.15114E+06
 0.11782000E+03  0.13272E+06
 0.11787000E+03  0.15424E+06
 0.11792000E+03  0.20757E+06
 0.11797000E+03  0.27475E+06
 0.11802000E+03  0.33372E+06
 0.11807000E+03  0.37070E+06
 0.11812000E+03  0.39121E+06
 0.11817000E+03  0.40787E+06
 0.11822000E+03  0.43269E+06
 0.11827000E+03  0.47285E+06
 0.11832000E+03  0.53218E+06
 0.11837000E+03  0.61061E+06
 0.11842000E+03  0.69901E+06
 0.11847000E+03  0.78010E+06
 0.11852000E+03  0.84043E+06
 0.11857000E+03  0.87173E+06
 0.11862000E+03  0.87333E+06
 0.11867000E+03  0.85771E+06
 0.11872000E+03  0.84653E+06
 0.11877000E+03  0.85587E+06
 0.11882000E+03  0.87638E+06
 0.11887000E+03  0.88793E+06
 0.11892000E+03  0.87816E+06
 0.11897000E+03  0.84466E+06
 0.11902000E+03  0.79222E+06
 0.11907000E+03  0.72222E+06
 0.11912000E+03  0.63689E+06
 0.11917000E+03  0.53952E+06
 0.11922000E+03  0.43658E+06
 0.11927000E+03  0.34571E+06
 0.11932000E+03  0.28085E+06
 0.11937000E+03  0.24249E+06
 0.11942000E+03  0.22206E+06
 0.11947000E+03  0.20695E+06
 0.11952000E+03  0.19209E+06
 0.11957000E+03  0.18048E+06
 0.11962000E+03  0.17347E+06
 0.11967000E+03  0.16768E+06
 0.11972000E+03  0.15370E+06
 0.11977000E+03  0.12441E+06
 0.11982000E+03  0.86968E+05
 0.11987000E+03  0.49438E+05
 0.11992000E+03  0.13978E+05
 0.11997000E+03 -0.15662E+05
 0.12002000E+03 -0.40294E+05
 0.12007000E+03 -0.64746E+05
 0.12012000E+03 -0.96228E+05
 0.12017000E+03 -0.13743E+06
 0.12022000E+03 -0.17940E+06
 0.12027000E+03 -0.21135E+06
 0.12032000E+03 -0.23188E+06
 0.12037000E+03 -0.25151E+06
 0.12042000E+03 -0.28732E+06
 0.12047000E+03 -0.34990E+06
 0.12052000E+03 -0.43604E+06
 0.12057000E+03 -0.53552E+06
 0.12062000E+03 -0.62768E+06
 0.12067000E+03 -0.69662E+06
 0.12072000E+03 -0.74630E+06
 0.12077000E+03 -0.79135E+06
 0.12082000E+03 -0.84892E+06
 0.12087000E+03 -0.92429E+06
 0.12092000E+03 -0.10102E+07
 0.12097000E+03 -0.10925E+07
 0.12102000E+03 -0.11561E+07
 0.12107000E+03 -0.11913E+07
 0.12112000E+03 -0.11917E+07
 0.12117000E+03 -0.11562E+07
 0.12122000E+03 -0.10921E+07
 0.12127000E+03 -0.10146E+07
 0.12132000E+03 -0.93530E+06
 0.12137000E+03 -0.85687E+06
 0.12142000E+03 -0.77784E+06
 0.12147000E+03 -0.69635E+06
 0.12152000E+03 -0.61550E+06
 0.12157000E+03 -0.53724E+06
 0.12162000E+03 -0.46148E+06
 0.12167000E+03 -0.38969E+06
 0.12172000E+03 -0.32229E+06
 0.12177000E+03 -0.26494E+06
 0.12182000E+03 -0.22570E+06
 0.12187000E+03 -0.21057E+06
 0.12192000E+03 -0.22252E+06
 0.12197000E+03 -0.25408E+06
 0.12202000E+03 -0.29372E+06
 0.12207000E+03 -0.33232E+06
 0.12212000E+03 -0.35638E+06
 0.12217000E+03 -0.35562E+06
 0.12222000E+03 -0.33182E+06
 0.12227000E+03 -0.29700E+06
 0.12232000E+03 -0.26183E+06
 0.12237000E+03 -0.22747E+06
 0.12242000E+03 -0.19538E+06
 0.12247000E+03 -0.16871E+06
 0.12252000E+03 -0.14770E+06
 0.12257000E+03 -0.13299E+06
 0.12262000E+03 -0.12684E+06
 0.12267000E+03 -0.12406E+06
 0.12272000E+03 -0.11913E+06
 0.12277000E+03 -0.11082E+06
 0.12282000E+03 -0.92032E+05
 0.12287000E+03 -0.54526E+05
 0.12292000E+03  0.74690E+04
 0.12297000E+03  0.88986E+05
 0.12302000E+03  0.17037E+06
 0.12307000E+03  0.23012E+06
 0.12312000E+03  0.25894E+06
 0.12317000E+03  0.26454E+06
 0.12322000E+03  0.26066E+06
 0.12327000E+03  0.26297E+06
 0.12332000E+03  0.28652E+06
 0.12337000E+03  0.33963E+06
 0.12342000E+03  0.42013E+06
 0.12347000E+03  0.51036E+06
 0.12352000E+03  0.59171E+06
 0.12357000E+03  0.65368E+06
 0.12362000E+03  0.69612E+06
 0.12367000E+03  0.72772E+06
 0.12372000E+03  0.75319E+06
 0.12377000E+03  0.77272E+06
 0.12382000E+03  0.78560E+06
 0.12387000E+03  0.79512E+06
 0.12392000E+03  0.80158E+06
 0.12397000E+03  0.80166E+06
 0.12402000E+03  0.79232E+06
 0.12407000E+03  0.76737E+06
 0.12412000E+03  0.72242E+06
 0.12417000E+03  0.65600E+06
 0.12422000E+03  0.57603E+06
 0.12427000E+03  0.49306E+06
 0.12432000E+03  0.41155E+06
 0.12437000E+03  0.33227E+06
 0.12442000E+03  0.24881E+06
 0.12447000E+03  0.15780E+06
 0.12452000E+03  0.64209E+05
 0.12457000E+03 -0.31430E+05
 0.12462000E+03 -0.13245E+06
 0.12467000E+03 -0.23211E+06
 0.12472000E+03 -0.32077E+06
 0.12477000E+03 -0.39592E+06
 0.12482000E+03 -0.45662E+06
 0.12487000E+03 -0.50356E+06
 0.12492000E+03 -0.53448E+06
 0.12497000E+03 -0.55298E+06
 0.12502000E+03 -0.57415E+06
 0.12507000E+03 -0.60722E+06
 0.12512000E+03 -0.64896E+06
 0.12517001E+03 -0.68324E+06
 0.12521999E+03 -0.69364E+06
 0.12527000E+03 -0.67192E+06
 0.12532000E+03 -0.61252E+06
 0.12537000E+03 -0.51828E+06
 0.12542001E+03 -0.39982E+06
 0.12546999E+03 -0.26430E+06
 0.12552000E+03 -0.11476E+06
 0.12557000E+03  0.41639E+05
 0.12562000E+03  0.18846E+06
 0.12567001E+03  0.30659E+06
 0.12571999E+03  0.38759E+06
 0.12577000E+03  0.43301E+06
 0.12582000E+03  0.45193E+06
 0.12587000E+03  0.45938E+06
 0.12592001E+03  0.46202E+06
 0.12596999E+03  0.45725E+06
 0.12602000E+03  0.44555E+06
 0.12607000E+03  0.42803E+06
 0.12612000E+03  0.40534E+06
 0.12617001E+03  0.37952E+06
 0.12621999E+03  0.35430E+06
 0.12627000E+03  0.33688E+06
 0.12632000E+03  0.33188E+06
 0.12637000E+03  0.34147E+06
 0.12642001E+03  0.36289E+06
 0.12646999E+03  0.39033E+06
 0.12652000E+03  0.42282E+06
 0.12657000E+03  0.46102E+06
 0.12662000E+03  0.50344E+06
 0.12667001E+03  0.54428E+06
 0.12671999E+03  0.57463E+06
 0.12677000E+03  0.58809E+06
 0.12682000E+03  0.58679E+06
 0.12687000E+03  0.57832E+06
 0.12692001E+03  0.56948E+06
 0.12696999E+03  0.56577E+06
 0.12702000E+03  0.56914E+06
 0.12707000E+03  0.57138E+06
 0.12712000E+03  0.55710E+06
 0.12717001E+03  0.51903E+06
 0.12721999E+03  0.46302E+06
 0.12727000E+03  0.40007E+06
 0.12732000E+03  0.33438E+06
 0.12737000E+03  0.26500E+06
 0.12742001E+03  0.19163E+06
 0.12746999E+03  0.10908E+06
 0.12752000E+03  0.10582E+05
 0.12757000E+03 -0.10398E+06
 0.12762000E+03 -0.22955E+06
 0.12767001E+03 -0.35783E+06
 0.12771999E+03 -0.48244E+06
 0.12777000E+03 -0.60221E+06
 0.12782000E+03 -0.70848E+06
 0.12787000E+03 -0.78695E+06
 0.12792001E+03 -0.82764E+06
 0.12796999E+03 -0.82795E+06
 0.12802000E+03 -0.79861E+06
 0.12807001E+03 -0.75452E+06
 0.12812001E+03 -0.70473E+06
 0.12817001E+03 -0.65598E+06
 0.12822000E+03 -0.61548E+06
 0.12827000E+03 -0.58634E+06
 0.12832001E+03 -0.56564E+06
 0.12837001E+03 -0.54226E+06
 0.12842001E+03 -0.50539E+06
 0.12847000E+03 -0.45613E+06
 0.12852000E+03 -0.39797E+06
 0.12857001E+03 -0.33236E+06
 0.12862001E+03 -0.26158E+06
 0.12867001E+03 -0.19137E+06
 0.12872000E+03 -0.12814E+06
 0.12877000E+03 -0.75542E+05
 0.12882001E+03 -0.37799E+05
 0.12887001E+03 -0.18062E+05
 0.12892001E+03 -0.16119E+05
 0.12897000E+03 -0.24708E+05
 0.12902000E+03 -0.37266E+05
 0.12907001E+03 -0.53962E+05
 0.12912001E+03 -0.73023E+05
 0.12917001E+03 -0.84217E+05
 0.12922000E+03 -0.74115E+05
 0.12927000E+03 -0.36280E+05
 0.12932001E+03  0.27672E+05
 0.12937001E+03  0.11024E+06
 0.12942001E+03  0.20194E+06
 0.12947000E+03  0.28917E+06
 0.12952000E+03  0.35844E+06
 0.12957001E+03  0.40541E+06
 0.12962001E+03  0.43248E+06
 0.12967001E+03  0.44965E+06
 0.12972000E+03  0.46881E+06
 0.12977000E+03  0.49234E+06
 0.12982001E+03  0.51338E+06
 0.12987001E+03  0.52057E+06
 0.12992001E+03  0.50430E+06
 0.12997000E+03  0.46158E+06
 0.13002000E+03  0.39426E+06
 0.13007001E+03  0.30906E+06
 0.13012001E+03  0.21719E+06
 0.13017001E+03  0.13216E+06
 0.13022000E+03  0.62272E+05
 0.13027000E+03  0.83140E+04
 0.13032001E+03 -0.32866E+05
 0.13037001E+03 -0.70369E+05
 0.13042001E+03 -0.10865E+06
 0.13047000E+03 -0.14770E+06
 0.13052000E+03 -0.18508E+06
 0.13057001E+03 -0.21564E+06
 0.13062001E+03 -0.24436E+06
 0.13067001E+03 -0.27686E+06
 0.13072000E+03 -0.30875E+06
 0.13077000E+03 -0.33426E+06
 0.13082001E+03 -0.35403E+06
 0.13087001E+03 -0.37011E+06
 0.13092001E+03 -0.38269E+06
 0.13097000E+03 -0.39273E+06
 0.13102000E+03 -0.39911E+06
 0.13107001E+03 -0.39987E+06
 0.13112001E+03 -0.39314E+06
 0.13117001E+03 -0.37921E+06
 0.13122000E+03 -0.35721E+06
 0.13127000E+03 -0.32863E+06
 0.13132001E+03 -0.30247E+06
 0.13137001E+03 -0.28349E+06
 0.13142001E+03 -0.26964E+06
 0.13147000E+03 -0.25568E+06
 0.13152000E+03 -0.23659E+06
 0.13157001E+03 -0.21260E+06
 0.13162001E+03 -0.18906E+06
 0.13167001E+03 -0.16809E+06
 0.13172000E+03 -0.14768E+06
 0.13177000E+03 -0.12599E+06
 0.13182001E+03 -0.10320E+06
 0.13187001E+03 -0.85943E+05
 0.13192001E+03 -0.76518E+05
 0.13197000E+03 -0.65252E+05
 0.13202000E+03 -0.40362E+05
 0.13207001E+03  0.12500E+04
 0.13212001E+03  0.56236E+05
 0.13217001E+03  0.11616E+06
 0.13222000E+03  0.16791E+06
 0.13227000E+03  0.20466E+06
 0.13232001E+03  0.22526E+06
 0.13237001E+03  0.23658E+06
 0.13242001E+03  0.25098E+06
 0.13247000E+03  0.27241E+06
 0.13252000E+03  0.29694E+06
 0.13257001E+03  0.31745E+06
 0.13262001E+03  0.32811E+06
 0.13267001E+03  0.32843E+06
 0.13272000E+03  0.32103E+06
 0.13277000E+03  0.30835E+06
 0.13282001E+03  0.29007E+06
 0.13287001E+03  0.26272E+06
 0.13292001E+03  0.22209E+06
 0.13297000E+03  0.16647E+06
 0.13302000E+03  0.10115E+06
 0.13307001E+03  0.33684E+05
 0.13312001E+03 -0.33298E+05
 0.13317001E+03 -0.10175E+06
 0.13322000E+03 -0.17156E+06
 0.13327000E+03 -0.23868E+06
 0.13332001E+03 -0.30219E+06
 0.13337001E+03 -0.36228E+06
 0.13342001E+03 -0.41087E+06
 0.13347000E+03 -0.43697E+06
 0.13352000E+03 -0.43912E+06
 0.13357001E+03 -0.42098E+06
 0.13362001E+03 -0.39015E+06
 0.13367001E+03 -0.35430E+06
 0.13372000E+03 -0.31885E+06
 0.13377000E+03 -0.28832E+06
 0.13382001E+03 -0.26076E+06
 0.13387001E+03 -0.23167E+06
 0.13392001E+03 -0.19410E+06
 0.13397000E+03 -0.14292E+06
 0.13402000E+03 -0.75687E+05
 0.13407001E+03  0.30840E+04
 0.13412001E+03  0.79527E+05
 0.13417001E+03  0.14169E+06
 0.13422000E+03  0.18377E+06
 0.13427000E+03  0.20869E+06
 0.13432001E+03  0.22290E+06
 0.13437001E+03  0.23438E+06
 0.13442001E+03  0.25128E+06
 0.13447000E+03  0.27650E+06
 0.13452000E+03  0.30639E+06
 0.13457001E+03  0.33270E+06
 0.13462001E+03  0.34939E+06
 0.13467001E+03  0.35553E+06
 0.13472000E+03  0.35450E+06
 0.13477000E+03  0.35025E+06
 0.13482001E+03  0.34448E+06
 0.13487001E+03  0.33692E+06
 0.13492001E+03  0.32276E+06
 0.13497000E+03  0.29539E+06
 0.13502000E+03  0.25199E+06
 0.13507001E+03  0.19503E+06
 0.13512001E+03  0.13386E+06
 0.13517001E+03  0.76271E+05
 0.13522000E+03  0.22185E+05
 0.13527000E+03 -0.29975E+05
 0.13532001E+03 -0.75345E+05
 0.13537001E+03 -0.10500E+06
 0.13542001E+03 -0.11946E+06
 0.13547000E+03 -0.12642E+06
 0.13552000E+03 -0.13050E+06
 0.13557001E+03 -0.12781E+06
 0.13562001E+03 -0.10917E+06
 0.13567001E+03 -0.75865E+05
 0.13572000E+03 -0.37599E+05
 0.13577000E+03  0.19790E+04
 0.13582001E+03  0.44672E+05
 0.13587001E+03  0.89565E+05
 0.13592001E+03  0.13316E+06
 0.13597000E+03  0.16805E+06
 0.13602000E+03  0.18273E+06
 0.13607001E+03  0.17280E+06
 0.13612001E+03  0.14051E+06
 0.13617001E+03  0.92063E+05
 0.13622000E+03  0.39833E+05
 0.13627000E+03 -0.33550E+04
 0.13632001E+03 -0.30620E+05
 0.13637001E+03 -0.42556E+05
 0.13642001E+03 -0.42565E+05
 0.13647000E+03 -0.35396E+05
 0.13652000E+03 -0.25250E+05
 0.13657001E+03 -0.14971E+05
 0.13662001E+03 -0.92040E+04
 0.13667001E+03 -0.11675E+05
 0.13672000E+03 -0.23345E+05
 0.13677000E+03 -0.42419E+05
 0.13682001E+03 -0.67281E+05
 0.13687001E+03 -0.95130E+05
 0.13692001E+03 -0.12074E+06
 0.13697000E+03 -0.14084E+06
 0.13702000E+03 -0.15104E+06
 0.13707001E+03 -0.14955E+06
 0.13712001E+03 -0.13690E+06
 0.13717001E+03 -0.11142E+06
 0.13722000E+03 -0.77458E+05
 0.13727000E+03 -0.42381E+05
 0.13732001E+03 -0.11944E+05
 0.13737001E+03  0.88560E+04
 0.13742001E+03  0.19383E+05
 0.13747000E+03  0.22470E+05
 0.13752000E+03  0.22212E+05
 0.13757001E+03  0.20269E+05
 0.13762001E+03  0.18595E+05
 0.13767001E+03  0.18517E+05
 0.13772000E+03  0.19288E+05
 0.13777000E+03  0.26733E+05
 0.13782001E+03  0.44973E+05
 0.13787001E+03  0.72030E+05
 0.13792001E+03  0.10324E+06
 0.13797000E+03  0.12892E+06
 0.13802000E+03  0.14484E+06
 0.13807001E+03  0.15313E+06
 0.13812001E+03  0.15542E+06
 0.13817001E+03  0.15588E+06
 0.13822000E+03  0.15739E+06
 0.13827000E+03  0.16043E+06
 0.13832001E+03  0.16593E+06
 0.13837001E+03  0.17100E+06
 0.13842001E+03  0.17351E+06
 0.13847000E+03  0.17133E+06
 0.13852000E+03  0.16260E+06
 0.13857001E+03  0.15137E+06
 0.13862001E+03  0.13980E+06
 0.13867001E+03  0.12706E+06
 0.13872000E+03  0.11280E+06
 0.13877000E+03  0.96366E+05
 0.13882001E+03  0.78550E+05
 0.13887001E+03  0.64038E+05
 0.13892001E+03  0.58202E+05
 0.13897000E+03  0.62255E+05
 0.13902000E+03  0.71824E+05
 0.13907001E+03  0.79581E+05
 0.13912001E+03  0.82683E+05
 0.13917001E+03  0.82695E+05
 0.13922000E+03  0.86266E+05
 0.13927000E+03  0.10140E+06
 0.13932001E+03  0.12545E+06
 0.13937001E+03  0.14968E+06
 0.13942001E+03  0.16998E+06
 0.13947000E+03  0.18460E+06
 0.13952000E+03  0.18905E+06
 0.13957001E+03  0.17799E+06
 0.13962001E+03  0.14915E+06
 0.13967001E+03  0.10447E+06
 0.13972000E+03  0.46882E+05
 0.13977000E+03 -0.18921E+05
 0.13982001E+03 -0.84910E+05
 0.13987001E+03 -0.14312E+06
 0.13992001E+03 -0.18624E+06
 0.13997000E+03 -0.21142E+06
 0.14002000E+03 -0.22228E+06
 0.14007001E+03 -0.22763E+06
 0.14012001E+03 -0.23867E+06
 0.14017001E+03 -0.26150E+06
 0.14022000E+03 -0.29712E+06
 0.14027000E+03 -0.34366E+06
 0.14032001E+03 -0.39798E+06
 0.14037001E+03 -0.45439E+06
 0.14042001E+03 -0.50662E+06
 0.14047000E+03 -0.55118E+06
 0.14052000E+03 -0.58211E+06
 0.14057001E+03 -0.59451E+06
 0.14062001E+03 -0.58761E+06
 0.14067001E+03 -0.56254E+06
 0.14072000E+03 -0.52348E+06
 0.14077000E+03 -0.47624E+06
 0.14082001E+03 -0.42436E+06
 0.14087001E+03 -0.36855E+06
 0.14092001E+03 -0.31001E+06
 0.14097000E+03 -0.25081E+06
 0.14102000E+03 -0.19388E+06
 0.14107001E+03 -0.13932E+06
 0.14112001E+03 -0.84483E+05
 0.14117001E+03 -0.27674E+05
 0.14122000E+03  0.31507E+05
 0.14127000E+03  0.88469E+05
 0.14132001E+03  0.13689E+06
 0.14137001E+03  0.17208E+06
 0.14142001E+03  0.19163E+06
 0.14147000E+03  0.19772E+06
 0.14152000E+03  0.19323E+06
 0.14157001E+03  0.18010E+06
 0.14162001E+03  0.16058E+06
 0.14167001E+03  0.13907E+06
 0.14172000E+03  0.11717E+06
 0.14177000E+03  0.93316E+05
 0.14182001E+03  0.70628E+05
 0.14187001E+03  0.53303E+05
 0.14192001E+03  0.43119E+05
 0.14197000E+03  0.40051E+05
 0.14202000E+03  0.40856E+05
 0.14207001E+03  0.39294E+05
 0.14212001E+03  0.31357E+05
 0.14217001E+03  0.18399E+05
 0.14222000E+03  0.39080E+04
 0.14227000E+03 -0.77130E+04
 0.14232001E+03 -0.11893E+05
 0.14237001E+03 -0.68900E+04
 0.14242001E+03  0.57490E+04
 0.14247000E+03  0.23718E+05
 0.14252000E+03  0.42823E+05
 0.14257001E+03  0.58743E+05
 0.14262001E+03  0.73824E+05
 0.14267001E+03  0.96289E+05
 0.14272000E+03  0.13222E+06
 0.14277000E+03  0.17844E+06
 0.14282001E+03  0.22574E+06
 0.14287001E+03  0.26854E+06
 0.14292001E+03  0.30512E+06
 0.14297000E+03  0.33295E+06
 0.14302000E+03  0.34977E+06
 0.14307001E+03  0.35677E+06
 0.14312001E+03  0.35756E+06
 0.14317001E+03  0.35468E+06
 0.14322000E+03  0.34883E+06
 0.14327000E+03  0.33799E+06
 0.14332001E+03  0.31947E+06
 0.14337001E+03  0.29408E+06
 0.14342001E+03  0.26633E+06
 0.14347000E+03  0.24215E+06
 0.14352000E+03  0.22307E+06
 0.14357001E+03  0.20720E+06
 0.14362001E+03  0.19043E+06
 0.14367001E+03  0.16675E+06
 0.14372000E+03  0.13613E+06
 0.14377000E+03  0.98560E+05
 0.14382001E+03  0.53867E+05
 0.14387001E+03  0.90940E+04
 0.14392001E+03 -0.28697E+05
 0.14397000E+03 -0.58112E+05
 0.14402000E+03 -0.82465E+05
 0.14407001E+03 -0.10385E+06
 0.14412001E+03 -0.12061E+06
 0.14417001E+03 -0.13039E+06
 0.14422000E+03 -0.13374E+06
 0.14427000E+03 -0.13433E+06
 0.14432001E+03 -0.13455E+06
 0.14437001E+03 -0.13513E+06
 0.14442001E+03 -0.13682E+06
 0.14447000E+03 -0.13821E+06
 0.14452000E+03 -0.13435E+06
 0.14457001E+03 -0.12162E+06
 0.14462001E+03 -0.10077E+06
 0.14467001E+03 -0.75656E+05
 0.14472000E+03 -0.50987E+05
 0.14477000E+03 -0.28832E+05
 0.14482001E+03 -0.99470E+04
 0.14487001E+03  0.81590E+04
 0.14492001E+03  0.28568E+05
 0.14497000E+03  0.50358E+05
 0.14502000E+03  0.73377E+05
 0.14507001E+03  0.94337E+05
 0.14512001E+03  0.11168E+06
 0.14517001E+03  0.12873E+06
 0.14522000E+03  0.14634E+06
 0.14527000E+03  0.16633E+06
 0.14532001E+03  0.18634E+06
 0.14537001E+03  0.19699E+06
 0.14542001E+03  0.19152E+06
 0.14547000E+03  0.17100E+06
 0.14552000E+03  0.14350E+06
 0.14557001E+03  0.11766E+06
 0.14562001E+03  0.99175E+05
 0.14567001E+03  0.91871E+05
 0.14572000E+03  0.95992E+05
 0.14577000E+03  0.10278E+06
 0.14582001E+03  0.99706E+05
 0.14587001E+03  0.79844E+05
 0.14592001E+03  0.41695E+05
 0.14597000E+03 -0.98250E+04
 0.14602000E+03 -0.68130E+05
 0.14607001E+03 -0.12640E+06
 0.14612001E+03 -0.17453E+06
 0.14617001E+03 -0.20453E+06
 0.14622000E+03 -0.21438E+06
 0.14627000E+03 -0.20729E+06
 0.14632001E+03 -0.18921E+06
 0.14637001E+03 -0.16573E+06
 0.14642001E+03 -0.13986E+06
 0.14647000E+03 -0.11543E+06
 0.14652000E+03 -0.95438E+05
 0.14657001E+03 -0.80535E+05
 0.14662001E+03 -0.72916E+05
 0.14667001E+03 -0.72772E+05
 0.14672000E+03 -0.77997E+05
 0.14677000E+03 -0.87673E+05
 0.14682001E+03 -0.97723E+05
 0.14687001E+03 -0.10161E+06
 0.14692001E+03 -0.98145E+05
 0.14697000E+03 -0.90673E+05
 0.14702000E+03 -0.84318E+05
 0.14707001E+03 -0.82292E+05
 0.14712001E+03 -0.82351E+05
 0.14717001E+03 -0.81650E+05
 0.14722000E+03 -0.79135E+05
 0.14727000E+03 -0.73550E+05
 0.14732001E+03 -0.63871E+05
 0.14737001E+03 -0.49363E+05
 0.14742001E+03 -0.28408E+05
 0.14747000E+03 -0.28050E+04
 0.14752000E+03  0.22781E+05
 0.14757001E+03  0.45159E+05
 0.14762001E+03  0.62007E+05
 0.14767001E+03  0.73595E+05
 0.14772000E+03  0.78929E+05
 0.14777000E+03  0.78055E+05
 0.14782001E+03  0.73395E+05
 0.14787001E+03  0.63192E+05
 0.14792001E+03  0.47160E+05
 0.14797000E+03  0.27772E+05
 0.14802000E+03  0.50190E+04
 0.14807001E+03 -0.23061E+05
 0.14812001E+03 -0.55039E+05
 0.14817001E+03 -0.83978E+05
 0.14822000E+03 -0.10197E+06
 0.14827000E+03 -0.10616E+06
 0.14832001E+03 -0.99451E+05
 0.14837001E+03 -0.86567E+05
 0.14842001E+03 -0.74187E+05
 0.14847000E+03 -0.67150E+05
 0.14852000E+03 -0.65422E+05
 0.14857001E+03 -0.67795E+05
 0.14862001E+03 -0.73839E+05
 0.14867001E+03 -0.84302E+05
 0.14872000E+03 -0.96268E+05
 0.14877000E+03 -0.10267E+06
 0.14882001E+03 -0.99414E+05
 0.14887001E+03 -0.87826E+05
 0.14892001E+03 -0.72456E+05
 0.14897000E+03 -0.55856E+05
 0.14902000E+03 -0.40215E+05
 0.14907001E+03 -0.26819E+05
 0.14912001E+03 -0.14083E+05
 0.14917001E+03 -0.32840E+04
 0.14922000E+03  0.56180E+04
 0.14927000E+03  0.16732E+05
 0.14932001E+03  0.32348E+05
 0.14937001E+03  0.49612E+05
 0.14942001E+03  0.63982E+05
 0.14947000E+03  0.73564E+05
 0.14952000E+03  0.79509E+05
 0.14957001E+03  0.84359E+05
 0.14962001E+03  0.88453E+05
 0.14967001E+03  0.91347E+05
 0.14972000E+03  0.93239E+05
 0.14977000E+03  0.94408E+05
 0.14982001E+03  0.95292E+05
 0.14987001E+03  0.95777E+05
 0.14992001E+03  0.97402E+05
 0.14997000E+03  0.10534E+06
