-0.29800000E+01  0.22788E+05
-0.29300001E+01  0.28030E+05
-0.28800001E+01  0.31861E+05
-0.28299999E+01  0.34915E+05
-0.27800000E+01  0.37353E+05
-0.27300000E+01  0.38336E+05
-0.26800001E+01  0.38320E+05
-0.26300001E+01  0.37991E+05
-0.25799999E+01  0.38235E+05
-0.25300000E+01  0.39509E+05
-0.24800000E+01  0.41222E+05
-0.24300001E+01  0.42894E+05
-0.23800001E+01  0.44880E+05
-0.23299999E+01  0.47040E+05
-0.22800000E+01  0.49089E+05
-0.22300000E+01  0.51064E+05
-0.21800001E+01  0.52824E+05
-0.21300001E+01  0.54591E+05
-0.20799999E+01  0.56516E+05
-0.20300000E+01  0.58314E+05
-0.19800000E+01  0.60031E+05
-0.19299999E+01  0.61807E+05
-0.18800000E+01  0.63870E+05
-0.18300000E+01  0.66003E+05
-0.17800000E+01  0.67301E+05
-0.17300000E+01  0.67400E+05
-0.16799999E+01  0.65505E+05
-0.16300000E+01  0.61589E+05
-0.15800000E+01  0.56744E+05
-0.15300000E+01  0.51399E+05
-0.14800000E+01  0.45700E+05
-0.14299999E+01  0.39803E+05
-0.13800000E+01  0.34086E+05
-0.13300000E+01  0.29586E+05
-0.12800000E+01  0.27078E+05
-0.12300000E+01  0.25516E+05
-0.11799999E+01  0.24767E+05
-0.11300000E+01  0.25629E+05
-0.10800000E+01  0.27349E+05
-0.10300000E+01  0.29237E+05
-0.98000002E+00  0.30896E+05
-0.93000007E+00  0.32656E+05
-0.87999988E+00  0.34958E+05
-0.82999992E+00  0.37268E+05
-0.77999997E+00  0.39446E+05
-0.73000002E+00  0.40806E+05
-0.68000007E+00  0.40308E+05
-0.62999988E+00  0.37172E+05
-0.57999992E+00  0.30764E+05
-0.52999997E+00  0.21999E+05
-0.48000002E+00  0.12204E+05
-0.43000007E+00  0.21230E+04
-0.37999988E+00 -0.81710E+04
-0.32999992E+00 -0.18562E+05
-0.27999997E+00 -0.27584E+05
-0.23000002E+00 -0.33975E+05
-0.18000007E+00 -0.37650E+05
-0.12999988E+00 -0.39384E+05
-0.79999924E-01 -0.41175E+05
-0.29999971E-01 -0.44224E+05
 0.19999981E-01 -0.48126E+05
 0.69999933E-01 -0.53290E+05
 0.12000012E+00 -0.59659E+05
 0.17000008E+00 -0.66167E+05
 0.22000003E+00 -0.71600E+05
 0.26999998E+00 -0.75363E+05
 0.31999993E+00 -0.78692E+05
 0.37000012E+00 -0.82079E+05
 0.42000008E+00 -0.85643E+05
 0.47000003E+00 -0.88953E+05
 0.51999998E+00 -0.89946E+05
 0.56999993E+00 -0.88593E+05
 0.62000012E+00 -0.85756E+05
 0.67000008E+00 -0.81861E+05
 0.72000003E+00 -0.78349E+05
 0.76999998E+00 -0.75176E+05
 0.81999993E+00 -0.70846E+05
 0.87000012E+00 -0.64804E+05
 0.92000008E+00 -0.56909E+05
 0.97000003E+00 -0.47396E+05
 0.10200000E+01 -0.37808E+05
 0.10700002E+01 -0.29356E+05
 0.11199999E+01 -0.21494E+05
 0.11700001E+01 -0.13382E+05
 0.12200003E+01 -0.48410E+04
 0.12700000E+01  0.36390E+04
 0.13200002E+01  0.11392E+05
 0.13699999E+01  0.18283E+05
 0.14200001E+01  0.24230E+05
 0.14700003E+01  0.28855E+05
 0.15200000E+01  0.32199E+05
 0.15700002E+01  0.34614E+05
 0.16199999E+01  0.36466E+05
 0.16700001E+01  0.37890E+05
 0.17200003E+01  0.38257E+05
 0.17700000E+01  0.37108E+05
 0.18200002E+01  0.34846E+05
 0.18699999E+01  0.32347E+05
 0.19200001E+01  0.30324E+05
 0.19700003E+01  0.29140E+05
 0.20200000E+01  0.28461E+05
 0.20700002E+01  0.27671E+05
 0.21199999E+01  0.27207E+05
 0.21700001E+01  0.27339E+05
 0.22200003E+01  0.27122E+05
 0.22700000E+01  0.25911E+05
 0.23200002E+01  0.23913E+05
 0.23699999E+01  0.21035E+05
 0.24200001E+01  0.17855E+05
 0.24700003E+01  0.15369E+05
 0.25200000E+01  0.13193E+05
 0.25700002E+01  0.10615E+05
 0.26199999E+01  0.72840E+04
 0.26700001E+01  0.38310E+04
 0.27200003E+01  0.12330E+04
 0.27700000E+01 -0.40600E+03
 0.28200002E+01 -0.17540E+04
 0.28699999E+01 -0.31350E+04
 0.29200001E+01 -0.34060E+04
 0.29700003E+01 -0.23770E+04
 0.30200000E+01 -0.10860E+04
 0.30700002E+01  0.61800E+03
 0.31199999E+01  0.26950E+04
 0.31700001E+01  0.45000E+04
 0.32200003E+01  0.63640E+04
 0.32700000E+01  0.86350E+04
 0.33200002E+01  0.11394E+05
 0.33699999E+01  0.14633E+05
 0.34200001E+01  0.18131E+05
 0.34700003E+01  0.21939E+05
 0.35200000E+01  0.26179E+05
 0.35700002E+01  0.31128E+05
 0.36199999E+01  0.36619E+05
 0.36700001E+01  0.42195E+05
 0.37200003E+01  0.46602E+05
 0.37700000E+01  0.48194E+05
 0.38200002E+01  0.47157E+05
 0.38699999E+01  0.43795E+05
 0.39200001E+01  0.38754E+05
 0.39700003E+01  0.32955E+05
 0.40200000E+01  0.26557E+05
 0.40700002E+01  0.20212E+05
 0.41199999E+01  0.13406E+05
 0.41700001E+01  0.52790E+04
 0.42200003E+01 -0.38870E+04
 0.42700000E+01 -0.12722E+05
 0.43200002E+01 -0.19097E+05
 0.43699999E+01 -0.21916E+05
 0.44200001E+01 -0.22304E+05
 0.44700003E+01 -0.22239E+05
 0.45200000E+01 -0.23034E+05
 0.45700002E+01 -0.25180E+05
 0.46199999E+01 -0.28084E+05
 0.46700001E+01 -0.31456E+05
 0.47200003E+01 -0.34139E+05
 0.47700000E+01 -0.35748E+05
 0.48200002E+01 -0.36499E+05
 0.48699999E+01 -0.36958E+05
 0.49200001E+01 -0.38913E+05
 0.49700003E+01 -0.41868E+05
 0.50200000E+01 -0.45508E+05
 0.50700002E+01 -0.49023E+05
 0.51200004E+01 -0.51672E+05
 0.51700006E+01 -0.52913E+05
 0.52199998E+01 -0.51562E+05
 0.52700000E+01 -0.47721E+05
 0.53200002E+01 -0.42056E+05
 0.53700004E+01 -0.36923E+05
 0.54200006E+01 -0.32824E+05
 0.54699998E+01 -0.28972E+05
 0.55200000E+01 -0.25016E+05
 0.55700002E+01 -0.19851E+05
 0.56200004E+01 -0.13591E+05
 0.56700006E+01 -0.77780E+04
 0.57199998E+01 -0.38810E+04
 0.57700000E+01 -0.20990E+04
 0.58200002E+01 -0.19840E+04
 0.58700004E+01 -0.27340E+04
 0.59200006E+01 -0.29270E+04
 0.59699998E+01 -0.13990E+04
 0.60200000E+01  0.54100E+03
 0.60700002E+01  0.20850E+04
 0.61200004E+01  0.29420E+04
 0.61700006E+01  0.22310E+04
 0.62199998E+01  0.11990E+04
 0.62700000E+01  0.59100E+03
 0.63200002E+01  0.81200E+03
 0.63700004E+01  0.14680E+04
 0.64200006E+01  0.23850E+04
 0.64699998E+01  0.44220E+04
 0.65200000E+01  0.67990E+04
 0.65700002E+01  0.95170E+04
 0.66200004E+01  0.12043E+05
 0.66700006E+01  0.14206E+05
 0.67199998E+01  0.16634E+05
 0.67700000E+01  0.18214E+05
 0.68200002E+01  0.19344E+05
 0.68700004E+01  0.20298E+05
 0.69200006E+01  0.20489E+05
 0.69699998E+01  0.20330E+05
 0.70200000E+01  0.20011E+05
 0.70700002E+01  0.19372E+05
 0.71200004E+01  0.18232E+05
 0.71700006E+01  0.17128E+05
 0.72199998E+01  0.15871E+05
 0.72700000E+01  0.14336E+05
 0.73200002E+01  0.13332E+05
 0.73700004E+01  0.12336E+05
 0.74200006E+01  0.11754E+05
 0.74699998E+01  0.12550E+05
 0.75200000E+01  0.14676E+05
 0.75700002E+01  0.18134E+05
 0.76200004E+01  0.21807E+05
 0.76700006E+01  0.24928E+05
 0.77199998E+01  0.26909E+05
 0.77700000E+01  0.27142E+05
 0.78200002E+01  0.26512E+05
 0.78700004E+01  0.25434E+05
 0.79200006E+01  0.23381E+05
 0.79699998E+01  0.20447E+05
 0.80200005E+01  0.17436E+05
 0.80699997E+01  0.14530E+05
 0.81200008E+01  0.12195E+05
 0.81700001E+01  0.11265E+05
 0.82199993E+01  0.11166E+05
 0.82700005E+01  0.11593E+05
 0.83199997E+01  0.12788E+05
 0.83700008E+01  0.13700E+05
 0.84200001E+01  0.14013E+05
 0.84699993E+01  0.14333E+05
 0.85200005E+01  0.14319E+05
 0.85699997E+01  0.13927E+05
 0.86200008E+01  0.12753E+05
 0.86700001E+01  0.10110E+05
 0.87199993E+01  0.63570E+04
 0.87700005E+01  0.26840E+04
 0.88199997E+01  0.31300E+03
 0.88700008E+01 -0.11600E+03
 0.89200001E+01  0.10310E+04
 0.89699993E+01  0.26100E+04
 0.90200005E+01  0.40640E+04
 0.90699997E+01  0.52680E+04
 0.91200008E+01  0.70940E+04
 0.91700001E+01  0.92580E+04
 0.92199993E+01  0.11044E+05
 0.92700005E+01  0.12811E+05
 0.93199997E+01  0.13718E+05
 0.93700008E+01  0.13806E+05
 0.94200001E+01  0.13725E+05
 0.94699993E+01  0.12456E+05
 0.95200005E+01  0.94080E+04
 0.95699997E+01  0.68280E+04
 0.96200008E+01  0.42750E+04
 0.96700001E+01  0.71800E+03
 0.97199993E+01 -0.32590E+04
 0.97700005E+01 -0.79770E+04
 0.98199997E+01 -0.12419E+05
 0.98700008E+01 -0.15921E+05
 0.99200001E+01 -0.17656E+05
 0.99699993E+01 -0.19030E+05
 0.10020000E+02 -0.21010E+05
 0.10070000E+02 -0.23784E+05
 0.10120001E+02 -0.27916E+05
 0.10170000E+02 -0.30880E+05
 0.10219999E+02 -0.33602E+05
 0.10270000E+02 -0.35281E+05
 0.10320000E+02 -0.34523E+05
 0.10370001E+02 -0.33094E+05
 0.10420000E+02 -0.30376E+05
 0.10469999E+02 -0.29326E+05
 0.10520000E+02 -0.27131E+05
 0.10570000E+02 -0.24782E+05
 0.10620001E+02 -0.13459E+05
 0.10670000E+02  0.28880E+05
 0.10719999E+02  0.11646E+06
 0.10770000E+02  0.23378E+06
 0.10820000E+02  0.33033E+06
 0.10870001E+02  0.34813E+06
 0.10920000E+02  0.18734E+06
 0.10969999E+02 -0.61548E+05
 0.11020000E+02 -0.19352E+06
 0.11070000E+02 -0.17443E+06
 0.11120001E+02  0.76780E+04
 0.11170000E+02  0.35764E+06
 0.11219999E+02  0.65615E+06
 0.11270000E+02  0.56420E+06
 0.11320000E+02  0.32026E+06
 0.11370001E+02  0.12102E+06
 0.11420000E+02 -0.95440E+05
 0.11469999E+02 -0.60877E+05
 0.11520000E+02  0.76104E+05
 0.11570000E+02  0.23984E+06
 0.11620001E+02  0.40840E+06
 0.11670000E+02  0.39419E+06
 0.11719999E+02  0.31124E+06
 0.11770000E+02  0.69648E+05
 0.11820000E+02 -0.16045E+06
 0.11870001E+02 -0.56702E+05
 0.11920000E+02  0.87105E+05
 0.11969999E+02  0.24573E+06
 0.12020000E+02  0.46147E+06
 0.12070000E+02  0.25287E+06
 0.12120001E+02  0.18663E+05
 0.12170000E+02 -0.44679E+06
 0.12219999E+02 -0.93371E+06
 0.12270000E+02 -0.62837E+06
 0.12320000E+02 -0.44800E+06
 0.12370001E+02  0.28127E+06
 0.12420000E+02  0.89457E+06
 0.12469999E+02  0.70396E+06
 0.12520000E+02  0.75106E+06
 0.12570000E+02 -0.24141E+06
 0.12620001E+02 -0.98636E+06
 0.12670000E+02 -0.99260E+06
 0.12719999E+02 -0.11430E+07
 0.12770000E+02 -0.61210E+06
 0.12820000E+02 -0.76836E+05
 0.12870001E+02  0.43507E+06
 0.12920000E+02  0.45878E+06
 0.12969999E+02  0.33355E+06
 0.13020000E+02  0.44827E+05
 0.13070002E+02 -0.13729E+06
 0.13120001E+02  0.64102E+06
 0.13170000E+02  0.38095E+06
 0.13220001E+02  0.57700E+06
 0.13270000E+02  0.51256E+06
 0.13320002E+02 -0.10145E+07
 0.13370001E+02 -0.16396E+07
 0.13420000E+02 -0.25417E+07
 0.13470001E+02 -0.27888E+07
 0.13520000E+02 -0.26778E+07
 0.13570002E+02 -0.27087E+07
 0.13620001E+02 -0.14846E+07
 0.13670000E+02 -0.66620E+06
 0.13720001E+02 -0.39169E+06
 0.13770000E+02  0.81310E+04
 0.13820002E+02  0.91766E+06
 0.13870001E+02  0.57457E+06
 0.13920000E+02 -0.15453E+06
 0.13970001E+02  0.64671E+06
 0.14020000E+02  0.26220E+06
 0.14070002E+02 -0.11140E+06
 0.14120001E+02 -0.96516E+05
 0.14170000E+02 -0.86278E+06
 0.14220001E+02 -0.12791E+07
 0.14270000E+02 -0.11033E+07
 0.14320002E+02 -0.32475E+06
 0.14370001E+02 -0.42800E+05
 0.14420000E+02  0.11583E+05
 0.14470001E+02  0.42730E+06
 0.14520000E+02  0.61144E+06
 0.14570002E+02  0.92117E+06
 0.14620001E+02  0.89369E+06
 0.14670000E+02  0.25297E+05
 0.14720001E+02 -0.28356E+06
 0.14770000E+02 -0.34670E+06
 0.14820002E+02 -0.21537E+07
 0.14870001E+02 -0.34513E+07
 0.14920000E+02 -0.17985E+07
 0.14970001E+02 -0.75182E+05
 0.15020000E+02  0.15846E+06
 0.15070002E+02  0.61500E+06
 0.15120001E+02  0.99942E+06
 0.15170000E+02 -0.45684E+05
 0.15220001E+02 -0.16352E+07
 0.15270000E+02 -0.17782E+07
 0.15320002E+02 -0.17610E+07
 0.15370001E+02 -0.27883E+07
 0.15420000E+02 -0.12497E+07
 0.15470001E+02  0.89937E+06
 0.15520000E+02  0.73061E+06
 0.15570002E+02  0.10624E+07
 0.15620001E+02  0.27386E+05
 0.15670000E+02 -0.16923E+07
 0.15720001E+02 -0.17590E+07
 0.15770000E+02 -0.17360E+07
 0.15820002E+02 -0.25570E+06
 0.15870001E+02  0.18270E+07
 0.15920000E+02  0.28804E+07
 0.15970001E+02  0.39862E+07
 0.16020000E+02  0.38449E+07
 0.16070002E+02  0.41913E+07
 0.16120001E+02  0.49447E+07
 0.16170000E+02  0.21153E+07
 0.16220001E+02 -0.52671E+06
 0.16270000E+02 -0.17391E+07
 0.16320002E+02 -0.19882E+07
 0.16370001E+02 -0.82243E+06
 0.16420000E+02 -0.11018E+07
 0.16470001E+02 -0.65855E+06
 0.16520000E+02 -0.34119E+06
 0.16570002E+02 -0.10486E+06
 0.16620001E+02  0.21097E+07
 0.16670000E+02  0.26250E+07
 0.16720001E+02  0.19725E+07
 0.16770000E+02  0.21517E+07
 0.16820002E+02  0.36697E+07
 0.16870001E+02  0.45303E+07
 0.16920000E+02  0.30993E+07
 0.16970001E+02  0.29737E+07
 0.17020000E+02  0.19388E+07
 0.17070002E+02  0.13577E+05
 0.17120001E+02  0.12543E+07
 0.17170000E+02  0.21050E+07
 0.17220001E+02  0.25357E+07
 0.17270000E+02  0.22584E+07
 0.17320002E+02 -0.62260E+06
 0.17370001E+02 -0.33966E+07
 0.17420000E+02 -0.56608E+07
 0.17470001E+02 -0.30793E+07
 0.17520000E+02  0.22226E+07
 0.17570002E+02  0.38303E+07
 0.17620001E+02  0.40122E+07
 0.17670000E+02  0.25484E+07
 0.17720001E+02  0.15326E+06
 0.17770000E+02 -0.21338E+07
 0.17820002E+02 -0.20235E+07
 0.17870001E+02 -0.16934E+07
 0.17920000E+02 -0.51710E+07
 0.17970001E+02 -0.71890E+07
 0.18020000E+02 -0.88620E+07
 0.18070002E+02 -0.88932E+07
 0.18120001E+02 -0.49333E+07
 0.18170000E+02 -0.20683E+07
 0.18220001E+02  0.12247E+07
 0.18270000E+02  0.39613E+07
 0.18320002E+02  0.52250E+07
 0.18370001E+02  0.34461E+07
 0.18420000E+02 -0.18034E+07
 0.18470001E+02 -0.40241E+07
 0.18520000E+02 -0.66444E+07
 0.18570002E+02 -0.59412E+07
 0.18620001E+02 -0.17977E+07
 0.18670000E+02 -0.99150E+06
 0.18720001E+02 -0.43246E+06
 0.18770000E+02 -0.32683E+07
 0.18820002E+02 -0.35227E+07
 0.18870001E+02  0.10493E+07
 0.18920000E+02  0.25101E+07
 0.18970001E+02  0.48722E+07
 0.19020000E+02  0.59109E+07
 0.19070002E+02  0.40256E+07
 0.19120001E+02  0.23372E+07
 0.19170000E+02 -0.33682E+07
 0.19220001E+02 -0.37995E+07
 0.19270000E+02 -0.30716E+07
 0.19320002E+02 -0.32245E+07
 0.19370001E+02  0.21952E+07
 0.19420000E+02 -0.57673E+06
 0.19470001E+02 -0.38612E+06
 0.19520000E+02 -0.18571E+07
 0.19570002E+02 -0.59667E+07
 0.19620001E+02 -0.10219E+07
 0.19670000E+02  0.13102E+07
 0.19720001E+02  0.15059E+07
 0.19770000E+02 -0.60292E+07
 0.19820002E+02 -0.10628E+08
 0.19870001E+02 -0.87881E+07
 0.19920000E+02 -0.89082E+07
 0.19970001E+02 -0.48897E+07
 0.20020000E+02 -0.10807E+07
 0.20070002E+02 -0.22568E+07
 0.20120001E+02 -0.75797E+07
 0.20170000E+02 -0.75612E+07
 0.20220001E+02 -0.23916E+07
 0.20270000E+02  0.43128E+07
 0.20320002E+02  0.12737E+08
 0.20370001E+02  0.18857E+08
 0.20420000E+02  0.20097E+08
 0.20470001E+02  0.12603E+08
 0.20520000E+02  0.41713E+07
 0.20570002E+02 -0.54450E+06
 0.20620001E+02 -0.45687E+07
 0.20670000E+02 -0.40092E+07
 0.20720001E+02 -0.35369E+07
 0.20770000E+02 -0.56615E+07
 0.20820002E+02 -0.65570E+07
 0.20870001E+02 -0.68669E+07
 0.20920000E+02 -0.49431E+07
 0.20970001E+02 -0.26604E+07
 0.21020000E+02  0.26354E+07
 0.21070002E+02  0.83985E+07
 0.21120001E+02  0.64547E+07
 0.21170000E+02  0.38460E+07
 0.21220001E+02  0.74062E+06
 0.21270000E+02 -0.47828E+07
 0.21320002E+02 -0.89752E+07
 0.21370001E+02 -0.11113E+08
 0.21420000E+02 -0.10551E+08
 0.21470001E+02 -0.10029E+08
 0.21520000E+02 -0.91074E+07
 0.21570002E+02 -0.72014E+07
 0.21620001E+02 -0.38208E+07
 0.21670000E+02 -0.48082E+06
 0.21720001E+02  0.82521E+06
 0.21770000E+02  0.45078E+07
 0.21820002E+02  0.82365E+07
 0.21870001E+02  0.93434E+07
 0.21920000E+02  0.10397E+08
 0.21970001E+02  0.11182E+08
 0.22020000E+02  0.10293E+08
 0.22070002E+02  0.66494E+07
 0.22120001E+02  0.29782E+07
 0.22170000E+02  0.17345E+07
 0.22220001E+02  0.36312E+06
 0.22270000E+02 -0.10440E+07
 0.22320002E+02 -0.12485E+07
 0.22370001E+02 -0.11381E+07
 0.22420000E+02  0.82700E+06
 0.22470001E+02  0.32404E+07
 0.22520000E+02  0.24720E+07
 0.22570002E+02 -0.18623E+06
 0.22620001E+02 -0.30196E+07
 0.22670000E+02 -0.54858E+07
 0.22720001E+02 -0.26731E+07
 0.22770000E+02  0.43179E+07
 0.22820002E+02  0.65633E+07
 0.22870001E+02  0.44183E+07
 0.22920000E+02  0.11257E+07
 0.22970001E+02 -0.17747E+07
 0.23020000E+02 -0.29983E+07
 0.23070002E+02 -0.37251E+07
 0.23120001E+02 -0.19825E+07
 0.23170000E+02  0.42061E+06
 0.23220001E+02  0.18914E+07
 0.23270000E+02  0.34913E+07
 0.23320002E+02  0.17462E+07
 0.23370001E+02  0.35832E+05
 0.23420000E+02  0.29594E+07
 0.23470001E+02  0.63135E+07
 0.23520000E+02  0.88873E+07
 0.23570002E+02  0.11756E+08
 0.23620001E+02  0.12477E+08
 0.23670000E+02  0.10960E+08
 0.23720001E+02  0.11516E+08
 0.23770000E+02  0.14678E+08
 0.23820002E+02  0.13541E+08
 0.23870001E+02  0.78626E+07
 0.23920000E+02  0.25876E+07
 0.23970001E+02 -0.32646E+07
 0.24020000E+02 -0.68460E+07
 0.24070002E+02 -0.65762E+07
 0.24120001E+02 -0.48701E+07
 0.24170000E+02 -0.13602E+07
 0.24220001E+02  0.73664E+06
 0.24270000E+02  0.13071E+07
 0.24320002E+02  0.17029E+07
 0.24370001E+02  0.18897E+07
 0.24420000E+02  0.33790E+07
 0.24470001E+02  0.43571E+07
 0.24520000E+02  0.42863E+07
 0.24570002E+02  0.37298E+07
 0.24620001E+02  0.31022E+07
 0.24670000E+02  0.24507E+07
 0.24720001E+02  0.15213E+07
 0.24770000E+02  0.62078E+06
 0.24820002E+02 -0.75288E+06
 0.24870001E+02 -0.25996E+07
 0.24920000E+02 -0.42696E+07
 0.24970001E+02 -0.43797E+07
 0.25020000E+02 -0.35080E+07
 0.25070002E+02 -0.30316E+07
 0.25120001E+02 -0.19928E+07
 0.25170000E+02  0.80595E+05
 0.25220001E+02  0.14847E+07
 0.25270000E+02  0.19709E+07
 0.25320002E+02  0.21411E+07
 0.25370001E+02  0.12449E+07
 0.25420000E+02  0.27379E+06
 0.25470001E+02  0.13590E+07
 0.25520000E+02  0.25989E+07
 0.25570002E+02  0.18046E+07
 0.25620001E+02  0.27060E+06
 0.25670000E+02 -0.14132E+07
 0.25720001E+02 -0.19521E+07
 0.25770000E+02 -0.13281E+07
 0.25820002E+02 -0.85980E+06
 0.25870001E+02 -0.15989E+07
 0.25920000E+02 -0.32032E+07
 0.25970001E+02 -0.42714E+07
 0.26020000E+02 -0.41444E+07
 0.26070002E+02 -0.20157E+07
 0.26120001E+02  0.12204E+06
 0.26170000E+02  0.12262E+07
 0.26220001E+02  0.82643E+06
 0.26270000E+02 -0.45861E+06
 0.26320002E+02 -0.73578E+06
 0.26370001E+02 -0.97903E+06
 0.26420000E+02 -0.12157E+07
 0.26470001E+02 -0.98993E+06
 0.26520000E+02 -0.73721E+06
 0.26570002E+02 -0.85599E+06
 0.26620001E+02 -0.13699E+07
 0.26670000E+02 -0.18250E+07
 0.26720001E+02 -0.19256E+07
 0.26770000E+02 -0.21006E+07
 0.26820002E+02 -0.16438E+07
 0.26870001E+02 -0.15978E+06
 0.26920000E+02  0.12133E+07
 0.26970001E+02  0.24884E+07
 0.27020000E+02  0.25366E+07
 0.27070002E+02  0.13302E+07
 0.27120001E+02  0.13372E+06
 0.27170000E+02 -0.62142E+06
 0.27220001E+02 -0.71370E+06
 0.27270000E+02 -0.13173E+07
 0.27320002E+02 -0.14282E+07
 0.27370001E+02 -0.10510E+07
 0.27420000E+02 -0.14438E+07
 0.27470001E+02 -0.14074E+07
 0.27520000E+02 -0.18443E+07
 0.27570002E+02 -0.28875E+07
 0.27620001E+02 -0.32033E+07
 0.27670000E+02 -0.24453E+07
 0.27720001E+02 -0.12471E+07
 0.27770000E+02 -0.90674E+06
 0.27820002E+02  0.20949E+06
 0.27870001E+02  0.13949E+07
 0.27920000E+02  0.12014E+07
 0.27970001E+02  0.20608E+07
 0.28020000E+02  0.30327E+07
 0.28070002E+02  0.29221E+07
 0.28120001E+02  0.25238E+07
 0.28170000E+02  0.13187E+07
 0.28220001E+02 -0.19220E+05
 0.28270000E+02 -0.19301E+06
 0.28320002E+02  0.33430E+06
 0.28370001E+02  0.39412E+06
 0.28420000E+02 -0.19727E+06
 0.28470001E+02 -0.12716E+07
 0.28520000E+02 -0.21792E+07
 0.28570002E+02 -0.20122E+07
 0.28620001E+02 -0.12174E+07
 0.28670000E+02 -0.11799E+07
 0.28720001E+02 -0.15407E+07
 0.28770000E+02 -0.19815E+07
 0.28820002E+02 -0.29406E+07
 0.28870001E+02 -0.30159E+07
 0.28920000E+02 -0.24886E+07
 0.28970001E+02 -0.22801E+07
 0.29020000E+02 -0.20639E+07
 0.29070000E+02 -0.23600E+07
 0.29120003E+02 -0.29000E+07
 0.29170002E+02 -0.26678E+07
 0.29220001E+02 -0.14452E+07
 0.29270000E+02 -0.56076E+06
 0.29320000E+02 -0.69252E+06
 0.29370003E+02 -0.57761E+06
 0.29420002E+02 -0.52706E+06
 0.29470001E+02 -0.12783E+07
 0.29520000E+02 -0.15747E+07
 0.29570000E+02 -0.11562E+07
 0.29620003E+02 -0.44532E+06
 0.29670002E+02  0.92263E+06
 0.29720001E+02  0.22853E+07
 0.29770000E+02  0.31723E+07
 0.29820000E+02  0.33142E+07
 0.29870003E+02  0.25191E+07
 0.29920002E+02  0.20927E+07
 0.29970001E+02  0.17641E+07
 0.30020000E+02  0.12252E+07
 0.30070000E+02  0.10089E+07
 0.30120003E+02  0.10408E+06
 0.30170002E+02 -0.64664E+06
 0.30220001E+02 -0.33001E+06
 0.30270000E+02  0.46449E+06
 0.30320000E+02  0.15196E+07
 0.30370003E+02  0.23995E+07
 0.30420002E+02  0.26498E+07
 0.30470001E+02  0.16365E+07
 0.30520000E+02  0.40092E+06
 0.30570000E+02 -0.10355E+06
 0.30620003E+02 -0.38560E+06
 0.30670002E+02  0.27773E+06
 0.30720001E+02  0.10340E+07
 0.30770000E+02  0.31185E+06
 0.30820000E+02 -0.11829E+07
 0.30870003E+02 -0.23780E+07
 0.30920002E+02 -0.23734E+07
 0.30970001E+02 -0.14179E+07
 0.31020000E+02 -0.85394E+06
 0.31070000E+02 -0.82915E+06
 0.31120003E+02 -0.10336E+07
 0.31170002E+02 -0.19174E+07
 0.31220001E+02 -0.23806E+07
 0.31270000E+02 -0.22548E+07
 0.31320000E+02 -0.21529E+07
 0.31370003E+02 -0.12758E+07
 0.31420002E+02 -0.52701E+06
 0.31470001E+02  0.40423E+06
 0.31520000E+02  0.11641E+07
 0.31570000E+02  0.78290E+06
 0.31620003E+02  0.90715E+06
 0.31670002E+02  0.43760E+06
 0.31720001E+02 -0.86908E+06
 0.31770000E+02 -0.71082E+06
 0.31820000E+02 -0.42039E+06
 0.31870003E+02 -0.83546E+06
 0.31920002E+02 -0.84900E+06
 0.31970001E+02 -0.63878E+06
 0.32020000E+02 -0.44640E+06
 0.32070000E+02 -0.52875E+06
 0.32120003E+02 -0.50460E+06
 0.32170002E+02 -0.61857E+06
 0.32220001E+02 -0.96827E+06
 0.32270000E+02 -0.71268E+06
 0.32320000E+02 -0.22231E+06
 0.32370003E+02  0.10276E+06
 0.32420002E+02  0.96684E+05
 0.32470001E+02  0.37291E+05
 0.32520000E+02 -0.15302E+06
 0.32570000E+02 -0.98930E+06
 0.32620003E+02 -0.18885E+07
 0.32670002E+02 -0.19917E+07
 0.32720001E+02 -0.12969E+07
 0.32770000E+02 -0.26244E+06
 0.32820000E+02  0.62910E+06
 0.32870003E+02  0.12138E+07
 0.32920002E+02  0.16942E+07
 0.32970001E+02  0.18794E+07
 0.33020000E+02  0.19086E+07
 0.33070000E+02  0.21711E+07
 0.33120003E+02  0.28194E+07
 0.33170002E+02  0.33645E+07
 0.33220001E+02  0.34152E+07
 0.33270000E+02  0.25364E+07
 0.33320000E+02  0.10750E+07
 0.33370003E+02  0.43576E+06
 0.33420002E+02  0.10416E+06
 0.33470001E+02 -0.11424E+06
 0.33520000E+02  0.31506E+06
 0.33570000E+02  0.51760E+06
 0.33620003E+02  0.10080E+06
 0.33670002E+02 -0.57556E+05
 0.33720001E+02 -0.75463E+06
 0.33770000E+02 -0.21857E+07
 0.33820000E+02 -0.26109E+07
 0.33870003E+02 -0.26452E+07
 0.33920002E+02 -0.24234E+07
 0.33970001E+02 -0.14271E+07
 0.34020000E+02 -0.87994E+06
 0.34070000E+02 -0.85461E+06
 0.34120003E+02 -0.78344E+06
 0.34170002E+02 -0.80064E+06
 0.34220001E+02 -0.76543E+06
 0.34270000E+02 -0.50284E+06
 0.34320000E+02  0.13864E+06
 0.34370003E+02  0.67340E+06
 0.34420002E+02  0.93383E+06
 0.34470001E+02  0.14191E+07
 0.34520000E+02  0.15586E+07
 0.34570000E+02  0.16361E+07
 0.34620003E+02  0.18367E+07
 0.34670002E+02  0.12804E+07
 0.34720001E+02  0.71539E+06
 0.34770000E+02  0.36015E+06
 0.34820000E+02  0.25141E+05
 0.34870003E+02 -0.77453E+05
 0.34920002E+02 -0.46888E+06
 0.34970001E+02 -0.85020E+06
 0.35020000E+02 -0.12158E+07
 0.35070000E+02 -0.83582E+06
 0.35120003E+02  0.36716E+06
 0.35170002E+02  0.10674E+07
 0.35220001E+02  0.13197E+07
 0.35270000E+02  0.10221E+07
 0.35320000E+02  0.47037E+06
 0.35370003E+02  0.18100E+06
 0.35420002E+02  0.14461E+06
 0.35470001E+02 -0.11463E+06
 0.35520000E+02 -0.57208E+06
 0.35570000E+02 -0.79402E+06
 0.35620003E+02 -0.10578E+07
 0.35670002E+02 -0.72960E+06
 0.35720001E+02 -0.57131E+06
 0.35770000E+02 -0.93012E+06
 0.35820000E+02 -0.85503E+06
 0.35870003E+02 -0.12397E+07
 0.35920002E+02 -0.12725E+07
 0.35970001E+02 -0.85705E+06
 0.36020000E+02 -0.92442E+06
 0.36070000E+02 -0.46739E+06
 0.36120003E+02  0.81740E+05
 0.36170002E+02  0.50770E+05
 0.36220001E+02 -0.37968E+06
 0.36270000E+02 -0.10687E+07
 0.36320000E+02 -0.14653E+07
 0.36370003E+02 -0.14082E+07
 0.36420002E+02 -0.12915E+07
 0.36470001E+02 -0.14106E+07
 0.36520000E+02 -0.13915E+07
 0.36570000E+02 -0.11761E+07
 0.36620003E+02 -0.12987E+07
 0.36670002E+02 -0.14127E+07
 0.36720001E+02 -0.15927E+07
 0.36770000E+02 -0.20026E+07
 0.36820000E+02 -0.18117E+07
 0.36870003E+02 -0.15915E+07
 0.36920002E+02 -0.14042E+07
 0.36970001E+02 -0.66827E+06
 0.37020000E+02 -0.30890E+04
 0.37070000E+02  0.95609E+06
 0.37120003E+02  0.16289E+07
 0.37170002E+02  0.15961E+07
 0.37220001E+02  0.17053E+07
 0.37270000E+02  0.17195E+07
 0.37320000E+02  0.14435E+07
 0.37370003E+02  0.99842E+06
 0.37420002E+02  0.57574E+06
 0.37470001E+02  0.32838E+06
 0.37520000E+02  0.63404E+06
 0.37570000E+02  0.95617E+06
 0.37620003E+02  0.10178E+07
 0.37670002E+02  0.14293E+07
 0.37720001E+02  0.21057E+07
 0.37770000E+02  0.28039E+07
 0.37820000E+02  0.28269E+07
 0.37870003E+02  0.21616E+07
 0.37920002E+02  0.11994E+07
 0.37970001E+02  0.27722E+06
 0.38020000E+02 -0.32210E+06
 0.38070000E+02 -0.10527E+07
 0.38120003E+02 -0.16657E+07
 0.38170002E+02 -0.16568E+07
 0.38220001E+02 -0.16259E+07
 0.38270000E+02 -0.14283E+07
 0.38320000E+02 -0.91622E+06
 0.38370003E+02 -0.87828E+06
 0.38420002E+02 -0.45355E+06
 0.38470001E+02  0.15707E+06
 0.38520000E+02  0.55850E+05
 0.38570000E+02  0.38770E+05
 0.38620003E+02  0.30194E+06
 0.38670002E+02  0.51649E+06
 0.38720001E+02  0.49032E+06
 0.38770000E+02  0.67898E+06
 0.38820000E+02  0.89130E+06
 0.38870003E+02  0.11657E+07
 0.38920002E+02  0.19213E+07
 0.38970001E+02  0.22869E+07
 0.39020000E+02  0.22626E+07
 0.39070000E+02  0.24685E+07
 0.39120003E+02  0.28072E+07
 0.39170002E+02  0.28253E+07
 0.39220001E+02  0.28021E+07
 0.39270000E+02  0.24895E+07
 0.39320000E+02  0.16172E+07
 0.39370003E+02  0.11455E+07
 0.39420002E+02  0.56258E+06
 0.39470001E+02 -0.37230E+06
 0.39520000E+02 -0.96322E+06
 0.39570000E+02 -0.14684E+07
 0.39620003E+02 -0.14276E+07
 0.39670002E+02 -0.60061E+06
 0.39720001E+02  0.14747E+06
 0.39770000E+02  0.57630E+06
 0.39820000E+02  0.75809E+06
 0.39870003E+02  0.84620E+06
 0.39920002E+02  0.99296E+06
 0.39970001E+02  0.10727E+07
 0.40020000E+02  0.91521E+06
 0.40070000E+02  0.54048E+06
 0.40120003E+02  0.33115E+06
 0.40170002E+02  0.44721E+06
 0.40220001E+02  0.55266E+06
 0.40270000E+02  0.50704E+06
 0.40320000E+02  0.36147E+06
 0.40370003E+02  0.76300E+04
 0.40420002E+02 -0.23666E+06
 0.40470001E+02 -0.32918E+06
 0.40520000E+02 -0.35486E+06
 0.40570000E+02 -0.25684E+06
 0.40620003E+02 -0.49941E+05
 0.40670002E+02  0.34635E+05
 0.40720001E+02 -0.35878E+06
 0.40770000E+02 -0.92927E+06
 0.40820000E+02 -0.13535E+07
 0.40870003E+02 -0.11386E+07
 0.40920002E+02 -0.73225E+06
 0.40970001E+02 -0.51852E+06
 0.41020000E+02 -0.17964E+05
 0.41070000E+02  0.32975E+06
 0.41120003E+02  0.44124E+06
 0.41170002E+02  0.39907E+06
 0.41220001E+02  0.24191E+05
 0.41270000E+02 -0.60638E+06
 0.41320000E+02 -0.10707E+07
 0.41370003E+02 -0.11342E+07
 0.41420002E+02 -0.13015E+07
 0.41470001E+02 -0.14574E+07
 0.41520000E+02 -0.15305E+07
 0.41570000E+02 -0.17584E+07
 0.41620003E+02 -0.17131E+07
 0.41670002E+02 -0.15037E+07
 0.41720001E+02 -0.14615E+07
 0.41770000E+02 -0.14436E+07
 0.41820000E+02 -0.16301E+07
 0.41870003E+02 -0.19246E+07
 0.41920002E+02 -0.19401E+07
 0.41970001E+02 -0.21414E+07
 0.42020000E+02 -0.24016E+07
 0.42070000E+02 -0.20441E+07
 0.42120003E+02 -0.13424E+07
 0.42170002E+02 -0.39096E+06
 0.42220001E+02  0.72395E+06
 0.42270000E+02  0.14448E+07
 0.42320000E+02  0.16829E+07
 0.42370003E+02  0.19620E+07
 0.42420002E+02  0.22879E+07
 0.42470001E+02  0.25270E+07
 0.42520000E+02  0.28046E+07
 0.42570000E+02  0.25330E+07
 0.42620003E+02  0.19281E+07
 0.42670002E+02  0.15509E+07
 0.42720001E+02  0.12422E+07
 0.42770000E+02  0.92574E+06
 0.42820000E+02  0.73780E+06
 0.42870003E+02  0.63047E+06
 0.42920002E+02  0.36904E+06
 0.42970001E+02  0.92728E+05
 0.43020000E+02 -0.60965E+06
 0.43070000E+02 -0.11295E+07
 0.43120003E+02 -0.10778E+07
 0.43170002E+02 -0.11929E+07
 0.43220001E+02 -0.11095E+07
 0.43270000E+02 -0.12654E+07
 0.43320000E+02 -0.16548E+07
 0.43370003E+02 -0.18148E+07
 0.43420002E+02 -0.18263E+07
 0.43470001E+02 -0.15610E+07
 0.43520000E+02 -0.13728E+07
 0.43570000E+02 -0.10119E+07
 0.43620003E+02 -0.53520E+06
 0.43670002E+02 -0.26802E+06
 0.43720001E+02 -0.16569E+06
 0.43770000E+02 -0.17210E+06
 0.43820000E+02  0.12764E+06
 0.43870003E+02  0.49801E+06
 0.43920002E+02  0.79603E+06
 0.43970001E+02  0.89603E+06
 0.44020000E+02  0.79915E+06
 0.44070000E+02  0.67725E+06
 0.44120003E+02  0.28467E+06
 0.44170002E+02  0.33693E+06
 0.44220001E+02  0.51711E+06
 0.44270000E+02  0.50867E+06
 0.44320000E+02  0.85669E+06
 0.44370003E+02  0.81025E+06
 0.44420002E+02  0.68868E+06
 0.44470001E+02  0.63484E+06
 0.44520000E+02  0.59100E+06
 0.44570000E+02  0.10854E+07
 0.44620003E+02  0.15670E+07
 0.44670002E+02  0.17855E+07
 0.44720001E+02  0.15657E+07
 0.44770000E+02  0.10775E+07
 0.44820000E+02  0.70406E+06
 0.44870003E+02  0.54611E+06
 0.44920002E+02  0.61842E+06
 0.44970001E+02  0.61353E+06
 0.45020000E+02  0.36085E+06
 0.45070000E+02  0.10115E+06
 0.45120003E+02  0.29498E+06
 0.45170002E+02  0.60593E+06
 0.45220001E+02  0.58355E+06
 0.45270000E+02  0.40853E+06
 0.45320000E+02  0.25370E+06
 0.45370003E+02  0.52110E+05
 0.45420002E+02 -0.12453E+06
 0.45470001E+02 -0.88536E+05
 0.45520000E+02 -0.28189E+05
 0.45570000E+02 -0.11222E+05
 0.45620003E+02  0.18495E+06
 0.45670002E+02  0.57150E+06
 0.45720001E+02  0.91286E+06
 0.45770000E+02  0.10640E+07
 0.45820000E+02  0.10384E+07
 0.45870003E+02  0.99810E+06
 0.45920002E+02  0.10120E+07
 0.45970001E+02  0.79800E+06
 0.46020000E+02  0.41593E+06
 0.46070000E+02  0.87750E+04
 0.46120003E+02 -0.40608E+06
 0.46170002E+02 -0.60475E+06
 0.46220001E+02 -0.51840E+06
 0.46270000E+02 -0.58502E+06
 0.46320000E+02 -0.11347E+07
 0.46370003E+02 -0.14173E+07
 0.46420002E+02 -0.13075E+07
 0.46470001E+02 -0.10056E+07
 0.46520000E+02 -0.27172E+06
 0.46570000E+02  0.44205E+06
 0.46620003E+02  0.92999E+06
 0.46670002E+02  0.11890E+07
 0.46720001E+02  0.13147E+07
 0.46770000E+02  0.13500E+07
 0.46820000E+02  0.13402E+07
 0.46870003E+02  0.14592E+07
 0.46920002E+02  0.13909E+07
 0.46970001E+02  0.11087E+07
 0.47020000E+02  0.87670E+06
 0.47070000E+02  0.64162E+06
 0.47120003E+02  0.25454E+06
 0.47170002E+02  0.82928E+05
 0.47220001E+02  0.29914E+06
 0.47270000E+02  0.41234E+06
 0.47320000E+02  0.35226E+06
 0.47370003E+02  0.13888E+06
 0.47420002E+02 -0.30569E+06
 0.47470001E+02 -0.58722E+06
 0.47520000E+02 -0.60099E+06
 0.47570000E+02 -0.70814E+06
 0.47620003E+02 -0.56784E+06
 0.47670002E+02 -0.15168E+06
 0.47720001E+02  0.20055E+06
 0.47770000E+02  0.62992E+06
 0.47820000E+02  0.85888E+06
 0.47870003E+02  0.95129E+06
 0.47920002E+02  0.10145E+07
 0.47970001E+02  0.10495E+07
 0.48020000E+02  0.89690E+06
 0.48070000E+02  0.53592E+06
 0.48120003E+02  0.19918E+06
 0.48170002E+02 -0.49426E+06
 0.48220001E+02 -0.90119E+06
 0.48270000E+02 -0.94969E+06
 0.48320000E+02 -0.13444E+07
 0.48370003E+02 -0.15735E+07
 0.48420002E+02 -0.15276E+07
 0.48470001E+02 -0.13464E+07
 0.48520000E+02 -0.76738E+06
 0.48570000E+02 -0.31888E+06
 0.48620003E+02 -0.32581E+06
 0.48670002E+02 -0.16965E+06
 0.48720001E+02  0.35899E+05
 0.48770000E+02  0.29859E+05
 0.48820000E+02  0.79250E+04
 0.48870003E+02 -0.15177E+06
 0.48920002E+02 -0.43275E+06
 0.48970001E+02 -0.46633E+06
 0.49020000E+02 -0.25957E+06
 0.49070000E+02 -0.13182E+06
 0.49120003E+02 -0.32089E+06
 0.49170002E+02 -0.73646E+06
 0.49220001E+02 -0.99136E+06
 0.49270000E+02 -0.10175E+07
 0.49320000E+02 -0.68765E+06
 0.49370003E+02 -0.16632E+06
 0.49420002E+02  0.31386E+06
 0.49470001E+02  0.76334E+06
 0.49520000E+02  0.10442E+07
 0.49570000E+02  0.12340E+07
 0.49620003E+02  0.12287E+07
 0.49670002E+02  0.10138E+07
 0.49720001E+02  0.57024E+06
 0.49770000E+02  0.14928E+06
 0.49820000E+02 -0.12707E+06
 0.49870003E+02 -0.38289E+06
 0.49920002E+02 -0.24292E+06
 0.49970001E+02 -0.11656E+06
 0.50020000E+02 -0.17128E+06
 0.50070000E+02 -0.26796E+06
 0.50120003E+02 -0.57945E+06
 0.50170002E+02 -0.88200E+06
 0.50220001E+02 -0.11270E+07
 0.50270000E+02 -0.13698E+07
 0.50320000E+02 -0.16613E+07
 0.50370003E+02 -0.16339E+07
 0.50420002E+02 -0.13352E+07
 0.50470001E+02 -0.10676E+07
 0.50520000E+02 -0.66220E+06
 0.50570000E+02 -0.47612E+06
 0.50620003E+02 -0.47444E+06
 0.50670002E+02 -0.32551E+06
 0.50720001E+02 -0.40200E+05
 0.50770000E+02  0.23323E+06
 0.50820000E+02  0.23093E+06
 0.50870003E+02  0.16104E+06
 0.50920002E+02  0.16850E+06
 0.50970001E+02  0.44338E+05
 0.51020000E+02 -0.55709E+05
 0.51070000E+02  0.49897E+05
 0.51120003E+02  0.13802E+06
 0.51170002E+02  0.29135E+06
 0.51220001E+02  0.66277E+06
 0.51270000E+02  0.94589E+06
 0.51320000E+02  0.97915E+06
 0.51370003E+02  0.96572E+06
 0.51420002E+02  0.88476E+06
 0.51470001E+02  0.71830E+06
 0.51520000E+02  0.68791E+06
 0.51570000E+02  0.55702E+06
 0.51620003E+02  0.35521E+06
 0.51670002E+02  0.20810E+06
 0.51720001E+02  0.18409E+05
 0.51770000E+02 -0.16649E+06
 0.51820000E+02 -0.38381E+06
 0.51870003E+02 -0.37000E+06
 0.51920002E+02 -0.17558E+06
 0.51970001E+02 -0.18610E+04
 0.52020000E+02  0.15004E+06
 0.52070000E+02  0.22637E+06
 0.52120003E+02  0.10655E+06
 0.52170002E+02 -0.85121E+05
 0.52220001E+02 -0.95954E+05
 0.52270000E+02 -0.14779E+06
 0.52320000E+02 -0.82341E+05
 0.52370003E+02  0.15520E+06
 0.52420002E+02  0.27139E+06
 0.52470001E+02  0.16180E+06
 0.52520000E+02 -0.19697E+06
 0.52570000E+02 -0.41549E+06
 0.52620003E+02 -0.33912E+06
 0.52670002E+02 -0.30494E+06
 0.52720001E+02 -0.36203E+06
 0.52770000E+02 -0.27740E+06
 0.52820000E+02 -0.13282E+06
 0.52870003E+02  0.54869E+05
 0.52920002E+02  0.48059E+06
 0.52970001E+02  0.87337E+06
 0.53020000E+02  0.10886E+07
 0.53070000E+02  0.11678E+07
 0.53120003E+02  0.10822E+07
 0.53170002E+02  0.10645E+07
 0.53220001E+02  0.10528E+07
 0.53270000E+02  0.98347E+06
 0.53320000E+02  0.86490E+06
 0.53370003E+02  0.66474E+06
 0.53420002E+02  0.51013E+06
 0.53470001E+02  0.38681E+06
 0.53520000E+02  0.11942E+06
 0.53570000E+02 -0.30077E+06
 0.53620003E+02 -0.48125E+06
 0.53670002E+02 -0.50976E+06
 0.53720001E+02 -0.43566E+06
 0.53770000E+02 -0.14037E+06
 0.53820000E+02  0.66708E+05
 0.53870003E+02  0.24772E+06
 0.53920002E+02  0.42570E+06
 0.53970001E+02  0.49494E+06
 0.54020000E+02  0.49567E+06
 0.54070000E+02  0.61372E+06
 0.54120003E+02  0.78676E+06
 0.54170002E+02  0.74612E+06
 0.54220001E+02  0.74137E+06
 0.54270000E+02  0.86532E+06
 0.54320000E+02  0.10160E+07
 0.54370003E+02  0.12198E+07
 0.54420002E+02  0.12968E+07
 0.54470001E+02  0.10145E+07
 0.54520000E+02  0.56548E+06
 0.54570000E+02  0.22298E+06
 0.54620003E+02 -0.22215E+05
 0.54670002E+02 -0.96514E+05
 0.54720001E+02 -0.15251E+06
 0.54770000E+02 -0.18568E+06
 0.54820000E+02 -0.46677E+05
 0.54870003E+02  0.40844E+05
 0.54920002E+02  0.21437E+05
 0.54970001E+02 -0.98203E+05
 0.55020000E+02 -0.24168E+06
 0.55070000E+02 -0.37664E+06
 0.55120003E+02 -0.53118E+06
 0.55170002E+02 -0.64435E+06
 0.55220001E+02 -0.79603E+06
 0.55270000E+02 -0.92841E+06
 0.55320000E+02 -0.87026E+06
 0.55370003E+02 -0.66201E+06
 0.55420002E+02 -0.54454E+06
 0.55470001E+02 -0.43976E+06
 0.55520000E+02 -0.27946E+06
 0.55570000E+02 -0.14239E+06
 0.55620003E+02  0.82573E+05
 0.55670002E+02  0.33523E+06
 0.55720001E+02  0.58613E+06
 0.55770000E+02  0.71959E+06
 0.55820000E+02  0.46885E+06
 0.55870003E+02 -0.71697E+05
 0.55920002E+02 -0.63293E+06
 0.55970001E+02 -0.10836E+07
 0.56020000E+02 -0.13152E+07
 0.56070000E+02 -0.13511E+07
 0.56120003E+02 -0.12747E+07
 0.56170002E+02 -0.11433E+07
 0.56220001E+02 -0.90456E+06
 0.56270000E+02 -0.48435E+06
 0.56320000E+02 -0.29465E+05
 0.56370003E+02  0.41271E+06
 0.56420002E+02  0.79063E+06
 0.56470001E+02  0.10975E+07
 0.56520000E+02  0.13236E+07
 0.56570000E+02  0.14556E+07
 0.56620003E+02  0.14644E+07
 0.56670002E+02  0.12361E+07
 0.56720001E+02  0.10182E+07
 0.56770000E+02  0.83663E+06
 0.56820000E+02  0.58149E+06
 0.56870003E+02  0.36947E+06
 0.56920002E+02  0.18959E+06
 0.56970001E+02  0.25035E+05
 0.57020000E+02 -0.22111E+06
 0.57070000E+02 -0.53550E+06
 0.57120003E+02 -0.73839E+06
 0.57170002E+02 -0.77662E+06
 0.57220001E+02 -0.64079E+06
 0.57270000E+02 -0.52419E+06
 0.57320000E+02 -0.51856E+06
 0.57370003E+02 -0.43755E+06
 0.57420002E+02 -0.37434E+06
 0.57470001E+02 -0.27426E+06
 0.57520000E+02 -0.96675E+05
 0.57570000E+02 -0.40025E+05
 0.57620003E+02 -0.66239E+05
 0.57670002E+02 -0.17990E+06
 0.57720001E+02 -0.29205E+06
 0.57770000E+02 -0.29394E+06
 0.57820000E+02 -0.27416E+06
 0.57870003E+02 -0.30049E+06
 0.57920002E+02 -0.37747E+06
 0.57970001E+02 -0.46906E+06
 0.58020000E+02 -0.47790E+06
 0.58070000E+02 -0.34875E+06
 0.58120003E+02 -0.31365E+06
 0.58170002E+02 -0.44225E+06
 0.58220001E+02 -0.47270E+06
 0.58270000E+02 -0.26407E+06
 0.58320000E+02  0.93308E+05
 0.58370003E+02  0.40682E+06
 0.58420002E+02  0.50588E+06
 0.58470001E+02  0.30754E+06
 0.58520000E+02  0.95457E+05
 0.58570000E+02  0.28460E+05
 0.58620003E+02 -0.76214E+05
 0.58670002E+02 -0.23966E+06
 0.58720001E+02 -0.42207E+06
 0.58770000E+02 -0.58257E+06
 0.58820000E+02 -0.72700E+06
 0.58870003E+02 -0.74756E+06
 0.58920002E+02 -0.64900E+06
 0.58970001E+02 -0.57061E+06
 0.59020000E+02 -0.34151E+06
 0.59070000E+02  0.37437E+05
 0.59120003E+02  0.42226E+06
 0.59170002E+02  0.74871E+06
 0.59220001E+02  0.86574E+06
 0.59270000E+02  0.77318E+06
 0.59320000E+02  0.46998E+06
 0.59370003E+02  0.97085E+05
 0.59420002E+02 -0.70842E+05
 0.59470001E+02 -0.16878E+06
 0.59520000E+02 -0.31008E+06
 0.59570000E+02 -0.50220E+06
 0.59620003E+02 -0.63929E+06
 0.59670002E+02 -0.51236E+06
 0.59720001E+02 -0.25046E+06
 0.59770000E+02  0.10292E+06
 0.59820000E+02  0.48920E+06
 0.59870003E+02  0.83364E+06
 0.59920002E+02  0.10841E+07
 0.59970001E+02  0.11301E+07
 0.60020000E+02  0.11426E+07
 0.60070000E+02  0.99786E+06
 0.60120003E+02  0.65653E+06
 0.60170002E+02  0.33404E+06
 0.60220001E+02 -0.49438E+05
 0.60270000E+02 -0.39239E+06
 0.60320000E+02 -0.62144E+06
 0.60370003E+02 -0.74508E+06
 0.60420002E+02 -0.68768E+06
 0.60470001E+02 -0.53895E+06
 0.60520000E+02 -0.33685E+06
 0.60570000E+02 -0.69040E+05
 0.60620003E+02  0.15697E+06
 0.60670002E+02  0.27072E+06
 0.60720001E+02  0.34133E+06
 0.60770000E+02  0.40059E+06
 0.60820000E+02  0.40456E+06
 0.60870003E+02  0.36899E+06
 0.60920002E+02  0.27349E+06
 0.60970001E+02  0.10491E+06
 0.61020000E+02 -0.22613E+05
 0.61070004E+02 -0.95026E+05
 0.61119999E+02 -0.12368E+06
 0.61170002E+02 -0.10488E+06
 0.61220005E+02 -0.22007E+05
 0.61270000E+02  0.22536E+06
 0.61320004E+02  0.58304E+06
 0.61369999E+02  0.86203E+06
 0.61420002E+02  0.98475E+06
 0.61470005E+02  0.10289E+07
 0.61520000E+02  0.10343E+07
 0.61570004E+02  0.10990E+07
 0.61619999E+02  0.11973E+07
 0.61670002E+02  0.11865E+07
 0.61720005E+02  0.11614E+07
 0.61770000E+02  0.11352E+07
 0.61820004E+02  0.10781E+07
 0.61869999E+02  0.10355E+07
 0.61920002E+02  0.98845E+06
 0.61970005E+02  0.94170E+06
 0.62020000E+02  0.93598E+06
 0.62070004E+02  0.93632E+06
 0.62119999E+02  0.80953E+06
 0.62170002E+02  0.63425E+06
 0.62220005E+02  0.52164E+06
 0.62270000E+02  0.36961E+06
 0.62320004E+02  0.14072E+06
 0.62369999E+02 -0.11565E+06
 0.62420002E+02 -0.33176E+06
 0.62470005E+02 -0.52288E+06
 0.62520000E+02 -0.63470E+06
 0.62570004E+02 -0.68262E+06
 0.62619999E+02 -0.71868E+06
 0.62670002E+02 -0.57994E+06
 0.62720005E+02 -0.39459E+06
 0.62770000E+02 -0.31388E+06
 0.62820004E+02 -0.29837E+06
 0.62869999E+02 -0.39014E+06
 0.62920002E+02 -0.54731E+06
 0.62970005E+02 -0.62876E+06
 0.63020000E+02 -0.58741E+06
 0.63070004E+02 -0.51241E+06
 0.63119999E+02 -0.41854E+06
 0.63170002E+02 -0.34014E+06
 0.63220005E+02 -0.26884E+06
 0.63270000E+02 -0.17844E+06
 0.63320004E+02 -0.12627E+06
 0.63369999E+02 -0.52605E+05
 0.63420002E+02  0.51753E+05
 0.63470005E+02  0.17167E+06
 0.63520000E+02  0.27441E+06
 0.63570004E+02  0.34213E+06
 0.63619999E+02  0.45458E+06
 0.63670002E+02  0.56631E+06
 0.63720005E+02  0.68706E+06
 0.63770000E+02  0.77936E+06
 0.63820004E+02  0.78611E+06
 0.63869999E+02  0.79659E+06
 0.63920002E+02  0.74258E+06
 0.63970005E+02  0.69130E+06
 0.64019997E+02  0.67784E+06
 0.64070000E+02  0.61418E+06
 0.64119995E+02  0.59878E+06
 0.64169998E+02  0.57832E+06
 0.64220001E+02  0.53110E+06
 0.64269997E+02  0.46804E+06
 0.64320000E+02  0.33568E+06
 0.64369995E+02  0.16074E+06
 0.64419998E+02 -0.58131E+05
 0.64470001E+02 -0.27588E+06
 0.64519997E+02 -0.50791E+06
 0.64570000E+02 -0.70286E+06
 0.64619995E+02 -0.81565E+06
 0.64669998E+02 -0.86487E+06
 0.64720001E+02 -0.78099E+06
 0.64769997E+02 -0.68949E+06
 0.64820000E+02 -0.60274E+06
 0.64869995E+02 -0.51728E+06
 0.64919998E+02 -0.53122E+06
 0.64970001E+02 -0.54920E+06
 0.65019997E+02 -0.53803E+06
 0.65070000E+02 -0.43065E+06
 0.65119995E+02 -0.20104E+06
 0.65169998E+02  0.25978E+05
 0.65220001E+02  0.18136E+06
 0.65269997E+02  0.26209E+06
 0.65320000E+02  0.22672E+06
 0.65369995E+02  0.13168E+06
 0.65419998E+02  0.12476E+06
 0.65470001E+02  0.15434E+06
 0.65519997E+02  0.16456E+06
 0.65570000E+02  0.12736E+06
 0.65619995E+02  0.90900E+04
 0.65669998E+02 -0.14695E+06
 0.65720001E+02 -0.27807E+06
 0.65769997E+02 -0.33282E+06
 0.65820000E+02 -0.33325E+06
 0.65869995E+02 -0.30436E+06
 0.65919998E+02 -0.26205E+06
 0.65970001E+02 -0.20880E+06
 0.66019997E+02 -0.15944E+06
 0.66070000E+02 -0.11604E+06
 0.66119995E+02 -0.12752E+06
 0.66169998E+02 -0.23080E+06
 0.66220001E+02 -0.29637E+06
 0.66269997E+02 -0.33014E+06
 0.66320000E+02 -0.32961E+06
 0.66369995E+02 -0.18188E+06
 0.66419998E+02 -0.11772E+05
 0.66470001E+02  0.11104E+06
 0.66519997E+02  0.23567E+06
 0.66570000E+02  0.29797E+06
 0.66619995E+02  0.32468E+06
 0.66669998E+02  0.29678E+06
 0.66720001E+02  0.17614E+06
 0.66769997E+02  0.48429E+05
 0.66820000E+02 -0.37561E+05
 0.66869995E+02 -0.65117E+05
 0.66919998E+02 -0.13807E+06
 0.66970001E+02 -0.30307E+06
 0.67019997E+02 -0.46459E+06
 0.67070000E+02 -0.62047E+06
 0.67119995E+02 -0.67501E+06
 0.67169998E+02 -0.51834E+06
 0.67220001E+02 -0.30168E+06
 0.67269997E+02 -0.14548E+06
 0.67320000E+02 -0.20769E+05
 0.67369995E+02  0.72830E+05
 0.67419998E+02  0.13952E+06
 0.67470001E+02  0.21923E+06
 0.67519997E+02  0.24678E+06
 0.67570000E+02  0.20963E+06
 0.67619995E+02  0.21448E+06
 0.67669998E+02  0.23576E+06
 0.67720001E+02  0.31415E+06
 0.67769997E+02  0.51137E+06
 0.67820000E+02  0.64071E+06
 0.67869995E+02  0.66033E+06
 0.67919998E+02  0.74793E+06
 0.67970001E+02  0.81856E+06
 0.68019997E+02  0.78225E+06
 0.68070000E+02  0.73051E+06
 0.68119995E+02  0.62947E+06
 0.68169998E+02  0.52479E+06
 0.68220001E+02  0.51941E+06
 0.68269997E+02  0.49577E+06
 0.68320000E+02  0.35801E+06
 0.68369995E+02  0.17001E+06
 0.68419998E+02 -0.91614E+05
 0.68470001E+02 -0.33128E+06
 0.68519997E+02 -0.40141E+06
 0.68570000E+02 -0.44491E+06
 0.68619995E+02 -0.45508E+06
 0.68669998E+02 -0.34302E+06
 0.68720001E+02 -0.17879E+06
 0.68769997E+02  0.31767E+05
 0.68820000E+02  0.26070E+06
 0.68869995E+02  0.40491E+06
 0.68919998E+02  0.42663E+06
 0.68970001E+02  0.37707E+06
 0.69019997E+02  0.25442E+06
 0.69070000E+02  0.10764E+06
 0.69119995E+02  0.21800E+04
 0.69169998E+02 -0.82051E+05
 0.69220001E+02 -0.15745E+06
 0.69269997E+02 -0.21399E+06
 0.69320000E+02 -0.20542E+06
 0.69369995E+02 -0.14257E+06
 0.69419998E+02 -0.33594E+05
 0.69470001E+02  0.76986E+05
 0.69519997E+02  0.11852E+06
 0.69570000E+02  0.12315E+06
 0.69619995E+02  0.13097E+06
 0.69669998E+02  0.16216E+06
 0.69720001E+02  0.17923E+06
 0.69769997E+02  0.18742E+06
 0.69820000E+02  0.22214E+06
 0.69869995E+02  0.22493E+06
 0.69919998E+02  0.23182E+06
 0.69970001E+02  0.28939E+06
 0.70019997E+02  0.32299E+06
 0.70070000E+02  0.33199E+06
 0.70119995E+02  0.35421E+06
 0.70169998E+02  0.36316E+06
 0.70220001E+02  0.33288E+06
 0.70269997E+02  0.29071E+06
 0.70320000E+02  0.26410E+06
 0.70369995E+02  0.24367E+06
 0.70419998E+02  0.21638E+06
 0.70470001E+02  0.18929E+06
 0.70519997E+02  0.21957E+06
 0.70570000E+02  0.28398E+06
 0.70619995E+02  0.32324E+06
 0.70669998E+02  0.31208E+06
 0.70720001E+02  0.23097E+06
 0.70769997E+02  0.12324E+06
 0.70820000E+02  0.26220E+04
 0.70869995E+02 -0.12064E+06
 0.70919998E+02 -0.25153E+06
 0.70970001E+02 -0.36818E+06
 0.71019997E+02 -0.39234E+06
 0.71070000E+02 -0.36611E+06
 0.71119995E+02 -0.38446E+06
 0.71169998E+02 -0.41577E+06
 0.71220001E+02 -0.43063E+06
 0.71269997E+02 -0.47549E+06
 0.71320000E+02 -0.50925E+06
 0.71369995E+02 -0.53727E+06
 0.71419998E+02 -0.56115E+06
 0.71470001E+02 -0.50477E+06
 0.71519997E+02 -0.41626E+06
 0.71570000E+02 -0.31907E+06
 0.71619995E+02 -0.21129E+06
 0.71669998E+02 -0.15660E+06
 0.71720001E+02 -0.15664E+06
 0.71769997E+02 -0.18308E+06
 0.71820000E+02 -0.19252E+06
 0.71869995E+02 -0.17079E+06
 0.71919998E+02 -0.13120E+06
 0.71970001E+02 -0.47295E+05
 0.72019997E+02  0.39214E+05
 0.72070000E+02  0.62975E+05
 0.72119995E+02  0.59363E+05
 0.72169998E+02  0.93473E+05
 0.72220001E+02  0.15126E+06
 0.72269997E+02  0.18876E+06
 0.72320000E+02  0.22733E+06
 0.72369995E+02  0.28658E+06
 0.72419998E+02  0.34492E+06
 0.72470001E+02  0.38362E+06
 0.72519997E+02  0.34091E+06
 0.72570000E+02  0.19140E+06
 0.72619995E+02  0.64122E+05
 0.72669998E+02  0.10113E+05
 0.72720001E+02 -0.20805E+05
 0.72769997E+02 -0.29650E+05
 0.72820000E+02 -0.69899E+05
 0.72869995E+02 -0.10598E+06
 0.72919998E+02 -0.49701E+05
 0.72970001E+02  0.58259E+05
 0.73019997E+02  0.16222E+06
 0.73070000E+02  0.23084E+06
 0.73119995E+02  0.30546E+06
 0.73169998E+02  0.38991E+06
 0.73220001E+02  0.43048E+06
 0.73269997E+02  0.43303E+06
 0.73320000E+02  0.38972E+06
 0.73369995E+02  0.34013E+06
 0.73419998E+02  0.32368E+06
 0.73470001E+02  0.30527E+06
 0.73519997E+02  0.23552E+06
 0.73570000E+02  0.13750E+06
 0.73619995E+02  0.89075E+05
 0.73669998E+02  0.76689E+05
 0.73720001E+02  0.98195E+05
 0.73769997E+02  0.12511E+06
 0.73820000E+02  0.10108E+06
 0.73869995E+02  0.89640E+05
 0.73919998E+02  0.13865E+06
 0.73970001E+02  0.21391E+06
 0.74019997E+02  0.27212E+06
 0.74070000E+02  0.31490E+06
 0.74119995E+02  0.31121E+06
 0.74169998E+02  0.25235E+06
 0.74220001E+02  0.18394E+06
 0.74269997E+02  0.10304E+06
 0.74320000E+02  0.51069E+05
 0.74369995E+02  0.31299E+05
 0.74419998E+02 -0.12861E+05
 0.74470001E+02 -0.47947E+05
 0.74519997E+02 -0.60878E+05
 0.74570000E+02 -0.98757E+05
 0.74619995E+02 -0.12015E+06
 0.74669998E+02 -0.11674E+06
 0.74720001E+02 -0.11203E+06
 0.74769997E+02 -0.59992E+05
 0.74820000E+02 -0.16640E+04
 0.74869995E+02  0.53472E+05
 0.74919998E+02  0.15609E+06
 0.74970001E+02  0.30810E+06
 0.75019997E+02  0.50147E+06
 0.75070000E+02  0.66934E+06
 0.75119995E+02  0.73703E+06
 0.75169998E+02  0.72375E+06
 0.75220001E+02  0.65887E+06
 0.75269997E+02  0.52051E+06
 0.75320000E+02  0.35412E+06
 0.75369995E+02  0.18875E+06
 0.75419998E+02  0.12438E+05
 0.75470001E+02 -0.12254E+06
 0.75519997E+02 -0.21129E+06
 0.75570000E+02 -0.24915E+06
 0.75619995E+02 -0.21854E+06
 0.75669998E+02 -0.14534E+06
 0.75720001E+02 -0.51134E+05
 0.75769997E+02  0.24905E+05
 0.75820000E+02  0.10192E+06
 0.75869995E+02  0.19527E+06
 0.75919998E+02  0.25983E+06
 0.75970001E+02  0.28749E+06
 0.76019997E+02  0.24647E+06
 0.76070000E+02  0.11537E+06
 0.76119995E+02 -0.74364E+05
 0.76169998E+02 -0.26147E+06
 0.76220001E+02 -0.38625E+06
 0.76269997E+02 -0.45672E+06
 0.76320000E+02 -0.47482E+06
 0.76369995E+02 -0.41164E+06
 0.76419998E+02 -0.29675E+06
 0.76470001E+02 -0.18683E+06
 0.76519997E+02 -0.86111E+05
 0.76570000E+02 -0.10332E+05
 0.76619995E+02  0.35914E+05
 0.76669998E+02  0.86676E+05
 0.76720001E+02  0.13151E+06
 0.76769997E+02  0.12346E+06
 0.76820000E+02  0.52021E+05
 0.76869995E+02 -0.57058E+05
 0.76919998E+02 -0.17451E+06
 0.76970001E+02 -0.24472E+06
 0.77019997E+02 -0.31627E+06
 0.77070000E+02 -0.42480E+06
 0.77119995E+02 -0.49063E+06
 0.77169998E+02 -0.51883E+06
 0.77220001E+02 -0.53054E+06
 0.77269997E+02 -0.50853E+06
 0.77320000E+02 -0.45013E+06
 0.77369995E+02 -0.34791E+06
 0.77419998E+02 -0.20943E+06
 0.77470001E+02 -0.85578E+05
 0.77519997E+02 -0.17878E+05
 0.77570000E+02 -0.13651E+05
 0.77619995E+02 -0.19977E+05
 0.77669998E+02  0.21309E+05
 0.77720001E+02  0.97205E+05
 0.77769997E+02  0.17622E+06
 0.77820000E+02  0.23719E+06
 0.77869995E+02  0.26990E+06
 0.77919998E+02  0.21048E+06
 0.77970001E+02  0.71335E+05
 0.78019997E+02 -0.47320E+05
 0.78070000E+02 -0.12716E+06
 0.78119995E+02 -0.12871E+06
 0.78169998E+02 -0.48985E+05
 0.78220001E+02  0.49360E+05
 0.78269997E+02  0.15291E+06
 0.78320000E+02  0.21848E+06
 0.78369995E+02  0.21161E+06
 0.78419998E+02  0.16659E+06
 0.78470001E+02  0.74234E+05
 0.78519997E+02 -0.68035E+05
 0.78570000E+02 -0.18794E+06
 0.78619995E+02 -0.28488E+06
 0.78669998E+02 -0.36029E+06
 0.78720001E+02 -0.35671E+06
 0.78769997E+02 -0.31752E+06
 0.78820000E+02 -0.27447E+06
 0.78869995E+02 -0.22078E+06
 0.78919998E+02 -0.18303E+06
 0.78970001E+02 -0.13724E+06
 0.79019997E+02 -0.71135E+05
 0.79070000E+02  0.15901E+05
 0.79119995E+02  0.12800E+06
 0.79169998E+02  0.26015E+06
 0.79220001E+02  0.39917E+06
 0.79269997E+02  0.50045E+06
 0.79320000E+02  0.56903E+06
 0.79369995E+02  0.61652E+06
 0.79419998E+02  0.60513E+06
 0.79470001E+02  0.53991E+06
 0.79519997E+02  0.44196E+06
 0.79570000E+02  0.31309E+06
 0.79619995E+02  0.22569E+06
 0.79669998E+02  0.22386E+06
 0.79720001E+02  0.25198E+06
 0.79769997E+02  0.27251E+06
 0.79820000E+02  0.26080E+06
 0.79869995E+02  0.19899E+06
 0.79919998E+02  0.12795E+06
 0.79970001E+02  0.11628E+06
 0.80019997E+02  0.14319E+06
 0.80070000E+02  0.13529E+06
 0.80119995E+02  0.12080E+06
 0.80169998E+02  0.10964E+06
 0.80220001E+02  0.92814E+05
 0.80269997E+02  0.13052E+06
 0.80320000E+02  0.17134E+06
 0.80369995E+02  0.16008E+06
 0.80419998E+02  0.14399E+06
 0.80470001E+02  0.12727E+06
 0.80519997E+02  0.10796E+06
 0.80570000E+02  0.12271E+06
 0.80619995E+02  0.15602E+06
 0.80669998E+02  0.15115E+06
 0.80720001E+02  0.11046E+06
 0.80769997E+02  0.56484E+05
 0.80820000E+02  0.22022E+05
 0.80869995E+02  0.22824E+05
 0.80919998E+02  0.43624E+05
 0.80970001E+02  0.66784E+05
 0.81019997E+02  0.46134E+05
 0.81070000E+02 -0.31400E+04
 0.81119995E+02 -0.28723E+05
 0.81169998E+02  0.50200E+03
 0.81220001E+02  0.78194E+05
 0.81269997E+02  0.15928E+06
 0.81320000E+02  0.24040E+06
 0.81369995E+02  0.30073E+06
 0.81419998E+02  0.32220E+06
 0.81470001E+02  0.32306E+06
 0.81519997E+02  0.33200E+06
 0.81570000E+02  0.36524E+06
 0.81619995E+02  0.39042E+06
 0.81669998E+02  0.43169E+06
 0.81720001E+02  0.46617E+06
 0.81769997E+02  0.45647E+06
 0.81820000E+02  0.44391E+06
 0.81869995E+02  0.42657E+06
 0.81919998E+02  0.43590E+06
 0.81970001E+02  0.48557E+06
 0.82019997E+02  0.53350E+06
 0.82070000E+02  0.55702E+06
 0.82119995E+02  0.55692E+06
 0.82169998E+02  0.53260E+06
 0.82220001E+02  0.49098E+06
 0.82269997E+02  0.46651E+06
 0.82320000E+02  0.44576E+06
 0.82369995E+02  0.42400E+06
 0.82419998E+02  0.42599E+06
 0.82470001E+02  0.41803E+06
 0.82519997E+02  0.39289E+06
 0.82570000E+02  0.36852E+06
 0.82619995E+02  0.33325E+06
 0.82669998E+02  0.29512E+06
 0.82720001E+02  0.22597E+06
 0.82769997E+02  0.14220E+06
 0.82820000E+02  0.10211E+06
 0.82869995E+02  0.97377E+05
 0.82919998E+02  0.12713E+06
 0.82970001E+02  0.17560E+06
 0.83019997E+02  0.20681E+06
 0.83070000E+02  0.18700E+06
 0.83119995E+02  0.10142E+06
 0.83169998E+02 -0.29432E+05
 0.83220001E+02 -0.18084E+06
 0.83269997E+02 -0.31966E+06
 0.83320000E+02 -0.44011E+06
 0.83369995E+02 -0.52954E+06
 0.83419998E+02 -0.57596E+06
 0.83470001E+02 -0.60203E+06
 0.83519997E+02 -0.58517E+06
 0.83570000E+02 -0.51696E+06
 0.83619995E+02 -0.44877E+06
 0.83669998E+02 -0.41636E+06
 0.83720001E+02 -0.40387E+06
 0.83769997E+02 -0.40821E+06
 0.83820000E+02 -0.45020E+06
 0.83869995E+02 -0.49735E+06
 0.83919998E+02 -0.52081E+06
 0.83970001E+02 -0.50122E+06
 0.84019997E+02 -0.43218E+06
 0.84070000E+02 -0.36043E+06
 0.84119995E+02 -0.32208E+06
 0.84169998E+02 -0.31333E+06
 0.84220001E+02 -0.29848E+06
 0.84269997E+02 -0.27208E+06
 0.84320000E+02 -0.24028E+06
 0.84369995E+02 -0.22416E+06
 0.84419998E+02 -0.24149E+06
 0.84470001E+02 -0.23201E+06
 0.84519997E+02 -0.19316E+06
 0.84570000E+02 -0.13551E+06
 0.84619995E+02 -0.64003E+05
 0.84669998E+02 -0.26464E+05
 0.84720001E+02  0.23122E+05
 0.84769997E+02  0.11240E+06
 0.84820000E+02  0.18950E+06
 0.84869995E+02  0.24397E+06
 0.84919998E+02  0.27856E+06
 0.84970001E+02  0.28094E+06
 0.85019997E+02  0.26012E+06
 0.85070000E+02  0.23237E+06
 0.85119995E+02  0.18636E+06
 0.85169998E+02  0.12363E+06
 0.85220001E+02  0.75125E+05
 0.85269997E+02  0.40317E+05
 0.85320000E+02 -0.83610E+04
 0.85369995E+02 -0.90452E+05
 0.85419998E+02 -0.18884E+06
 0.85470001E+02 -0.25881E+06
 0.85519997E+02 -0.29882E+06
 0.85570000E+02 -0.30534E+06
 0.85619995E+02 -0.29547E+06
 0.85669998E+02 -0.30971E+06
 0.85720001E+02 -0.29927E+06
 0.85769997E+02 -0.25396E+06
 0.85820000E+02 -0.20443E+06
 0.85869995E+02 -0.14919E+06
 0.85919998E+02 -0.11333E+06
 0.85970001E+02 -0.73115E+05
 0.86019997E+02 -0.98380E+04
 0.86070000E+02  0.32054E+05
 0.86119995E+02  0.61924E+05
 0.86169998E+02  0.83549E+05
 0.86220001E+02  0.63317E+05
 0.86269997E+02  0.14355E+05
 0.86320000E+02 -0.31822E+05
 0.86369995E+02 -0.37346E+05
 0.86419998E+02  0.13996E+05
 0.86470001E+02  0.97629E+05
 0.86519997E+02  0.17126E+06
 0.86570000E+02  0.21042E+06
 0.86619995E+02  0.21067E+06
 0.86669998E+02  0.20569E+06
 0.86720001E+02  0.22226E+06
 0.86769997E+02  0.22001E+06
 0.86820000E+02  0.20329E+06
 0.86869995E+02  0.16776E+06
 0.86919998E+02  0.12416E+06
 0.86970001E+02  0.10927E+06
 0.87019997E+02  0.83316E+05
 0.87070000E+02  0.66059E+05
 0.87119995E+02  0.86597E+05
 0.87169998E+02  0.12334E+06
 0.87220001E+02  0.18442E+06
 0.87269997E+02  0.24844E+06
 0.87320000E+02  0.27022E+06
 0.87369995E+02  0.24482E+06
 0.87419998E+02  0.18509E+06
 0.87470001E+02  0.11180E+06
 0.87519997E+02  0.49927E+05
 0.87570000E+02  0.42224E+05
 0.87619995E+02  0.13618E+06
 0.87669998E+02  0.26211E+06
 0.87720001E+02  0.34632E+06
 0.87769997E+02  0.37747E+06
 0.87820000E+02  0.36033E+06
 0.87869995E+02  0.36110E+06
 0.87919998E+02  0.37887E+06
 0.87970001E+02  0.38323E+06
 0.88019997E+02  0.37147E+06
 0.88070000E+02  0.33710E+06
 0.88119995E+02  0.29710E+06
 0.88169998E+02  0.27354E+06
 0.88220001E+02  0.26901E+06
 0.88269997E+02  0.26357E+06
 0.88320000E+02  0.27238E+06
 0.88369995E+02  0.28474E+06
 0.88419998E+02  0.28946E+06
 0.88470001E+02  0.30913E+06
 0.88519997E+02  0.33078E+06
 0.88570000E+02  0.35402E+06
 0.88619995E+02  0.35169E+06
 0.88669998E+02  0.30564E+06
 0.88720001E+02  0.25738E+06
 0.88769997E+02  0.20572E+06
 0.88820000E+02  0.14978E+06
 0.88869995E+02  0.97503E+05
 0.88919998E+02  0.40337E+05
 0.88970001E+02 -0.81090E+04
 0.89019997E+02 -0.33391E+05
 0.89070000E+02 -0.52942E+05
 0.89119995E+02 -0.83261E+05
 0.89169998E+02 -0.83909E+05
 0.89220001E+02 -0.70349E+05
 0.89269997E+02 -0.62470E+05
 0.89320000E+02 -0.54195E+05
 0.89369995E+02 -0.79577E+05
 0.89419998E+02 -0.11838E+06
 0.89470001E+02 -0.15767E+06
 0.89519997E+02 -0.20171E+06
 0.89570000E+02 -0.26585E+06
 0.89619995E+02 -0.37315E+06
 0.89669998E+02 -0.50666E+06
 0.89720001E+02 -0.63173E+06
 0.89769997E+02 -0.71277E+06
 0.89820000E+02 -0.74108E+06
 0.89869995E+02 -0.72468E+06
 0.89919998E+02 -0.67526E+06
 0.89970001E+02 -0.58278E+06
 0.90019997E+02 -0.44244E+06
 0.90070000E+02 -0.27226E+06
 0.90119995E+02 -0.78427E+05
 0.90169998E+02  0.13158E+06
 0.90220001E+02  0.32160E+06
 0.90269997E+02  0.45311E+06
 0.90320000E+02  0.51662E+06
 0.90369995E+02  0.51400E+06
 0.90419998E+02  0.48933E+06
 0.90470001E+02  0.47138E+06
 0.90519997E+02  0.44644E+06
 0.90570000E+02  0.44403E+06
 0.90619995E+02  0.47256E+06
 0.90669998E+02  0.51250E+06
 0.90720001E+02  0.57727E+06
 0.90769997E+02  0.65754E+06
 0.90820000E+02  0.72158E+06
 0.90869995E+02  0.74412E+06
 0.90919998E+02  0.70663E+06
 0.90970001E+02  0.62759E+06
 0.91019997E+02  0.56263E+06
 0.91070000E+02  0.52035E+06
 0.91119995E+02  0.46442E+06
 0.91169998E+02  0.39092E+06
 0.91220001E+02  0.30308E+06
 0.91269997E+02  0.22643E+06
 0.91320000E+02  0.18853E+06
 0.91369995E+02  0.18024E+06
 0.91419998E+02  0.19423E+06
 0.91470001E+02  0.21702E+06
 0.91519997E+02  0.22975E+06
 0.91570000E+02  0.22176E+06
 0.91619995E+02  0.19023E+06
 0.91669998E+02  0.15048E+06
 0.91720001E+02  0.13717E+06
 0.91769997E+02  0.15887E+06
 0.91820000E+02  0.18857E+06
 0.91869995E+02  0.22083E+06
 0.91919998E+02  0.25820E+06
 0.91970001E+02  0.28527E+06
 0.92019997E+02  0.30990E+06
 0.92070000E+02  0.33484E+06
 0.92119995E+02  0.33783E+06
 0.92169998E+02  0.32442E+06
 0.92220001E+02  0.29845E+06
 0.92269997E+02  0.23371E+06
 0.92320000E+02  0.14058E+06
 0.92369995E+02  0.51386E+05
 0.92419998E+02 -0.21644E+05
 0.92470001E+02 -0.81030E+05
 0.92519997E+02 -0.16062E+06
 0.92570000E+02 -0.25803E+06
 0.92619995E+02 -0.34678E+06
 0.92669998E+02 -0.41216E+06
 0.92720001E+02 -0.43880E+06
 0.92769997E+02 -0.44335E+06
 0.92820000E+02 -0.43359E+06
 0.92869995E+02 -0.42021E+06
 0.92919998E+02 -0.40475E+06
 0.92970001E+02 -0.38786E+06
 0.93019997E+02 -0.37673E+06
 0.93070000E+02 -0.35136E+06
 0.93119995E+02 -0.34867E+06
 0.93169998E+02 -0.40125E+06
 0.93220001E+02 -0.49080E+06
 0.93269997E+02 -0.58327E+06
 0.93320000E+02 -0.63386E+06
 0.93369995E+02 -0.63453E+06
 0.93419998E+02 -0.58694E+06
 0.93470001E+02 -0.51348E+06
 0.93519997E+02 -0.43524E+06
 0.93570000E+02 -0.35585E+06
 0.93619995E+02 -0.29386E+06
 0.93669998E+02 -0.24173E+06
 0.93720001E+02 -0.19283E+06
 0.93769997E+02 -0.13492E+06
 0.93820000E+02 -0.48758E+05
 0.93869995E+02  0.59294E+05
 0.93919998E+02  0.15956E+06
 0.93970001E+02  0.20287E+06
 0.94019997E+02  0.19755E+06
 0.94070000E+02  0.17021E+06
 0.94119995E+02  0.11315E+06
 0.94169998E+02  0.29650E+05
 0.94220001E+02 -0.60446E+05
 0.94269997E+02 -0.11549E+06
 0.94320000E+02 -0.12441E+06
 0.94369995E+02 -0.10402E+06
 0.94419998E+02 -0.87467E+05
 0.94470001E+02 -0.10735E+06
 0.94519997E+02 -0.13682E+06
 0.94570000E+02 -0.16538E+06
 0.94619995E+02 -0.18891E+06
 0.94669998E+02 -0.19488E+06
 0.94720001E+02 -0.19438E+06
 0.94769997E+02 -0.17548E+06
 0.94820000E+02 -0.14590E+06
 0.94869995E+02 -0.12759E+06
 0.94919998E+02 -0.11156E+06
 0.94970001E+02 -0.87974E+05
 0.95019997E+02 -0.62893E+05
 0.95070000E+02 -0.56506E+05
 0.95119995E+02 -0.64852E+05
 0.95169998E+02 -0.61299E+05
 0.95220001E+02 -0.41558E+05
 0.95269997E+02 -0.53070E+04
 0.95320000E+02  0.39597E+05
 0.95369995E+02  0.79477E+05
 0.95419998E+02  0.12535E+06
 0.95470001E+02  0.17541E+06
 0.95519997E+02  0.20255E+06
 0.95570000E+02  0.19133E+06
 0.95619995E+02  0.15637E+06
 0.95669998E+02  0.13223E+06
 0.95720001E+02  0.13640E+06
 0.95769997E+02  0.15268E+06
 0.95820000E+02  0.15429E+06
 0.95869995E+02  0.13408E+06
 0.95919998E+02  0.12752E+06
 0.95970001E+02  0.16584E+06
 0.96019997E+02  0.22163E+06
 0.96070000E+02  0.26831E+06
 0.96119995E+02  0.29800E+06
 0.96169998E+02  0.29730E+06
 0.96220001E+02  0.27358E+06
 0.96269997E+02  0.23017E+06
 0.96320000E+02  0.15835E+06
 0.96369995E+02  0.80809E+05
 0.96419998E+02  0.13723E+05
 0.96470001E+02 -0.47772E+05
 0.96519997E+02 -0.88729E+05
 0.96570000E+02 -0.11110E+06
 0.96619995E+02 -0.10284E+06
 0.96669998E+02 -0.28785E+05
 0.96720001E+02  0.96336E+05
 0.96769997E+02  0.23513E+06
 0.96820000E+02  0.36338E+06
 0.96869995E+02  0.45709E+06
 0.96919998E+02  0.49444E+06
 0.96970001E+02  0.49023E+06
 0.97019997E+02  0.45607E+06
 0.97070000E+02  0.40464E+06
 0.97119995E+02  0.36462E+06
 0.97169998E+02  0.32492E+06
 0.97220001E+02  0.30265E+06
 0.97269997E+02  0.31567E+06
 0.97320000E+02  0.33704E+06
 0.97369995E+02  0.35042E+06
 0.97419998E+02  0.34002E+06
 0.97470001E+02  0.31150E+06
 0.97519997E+02  0.29431E+06
 0.97570000E+02  0.30056E+06
 0.97619995E+02  0.30570E+06
 0.97669998E+02  0.28930E+06
 0.97720001E+02  0.25378E+06
 0.97769997E+02  0.19658E+06
 0.97820000E+02  0.12935E+06
 0.97869995E+02  0.62348E+05
 0.97919998E+02  0.59520E+04
 0.97970001E+02 -0.34250E+05
 0.98019997E+02 -0.56740E+05
 0.98070000E+02 -0.51382E+05
 0.98119995E+02 -0.43431E+05
 0.98169998E+02 -0.43200E+05
 0.98220001E+02 -0.38950E+05
 0.98269997E+02 -0.52578E+05
 0.98320000E+02 -0.10451E+06
 0.98369995E+02 -0.18521E+06
 0.98419998E+02 -0.27276E+06
 0.98470001E+02 -0.35679E+06
 0.98519997E+02 -0.43412E+06
 0.98570000E+02 -0.48756E+06
 0.98619995E+02 -0.49954E+06
 0.98669998E+02 -0.48376E+06
 0.98720001E+02 -0.45826E+06
 0.98769997E+02 -0.43826E+06
 0.98820000E+02 -0.44166E+06
 0.98869995E+02 -0.44878E+06
 0.98919998E+02 -0.43862E+06
 0.98970001E+02 -0.41383E+06
 0.99019997E+02 -0.38654E+06
 0.99070000E+02 -0.36952E+06
 0.99119995E+02 -0.36003E+06
 0.99169998E+02 -0.35872E+06
 0.99220001E+02 -0.34598E+06
 0.99269997E+02 -0.31330E+06
 0.99320000E+02 -0.28285E+06
 0.99369995E+02 -0.25985E+06
 0.99419998E+02 -0.24365E+06
 0.99470001E+02 -0.23452E+06
 0.99519997E+02 -0.22422E+06
 0.99570000E+02 -0.19829E+06
 0.99619995E+02 -0.17063E+06
 0.99669998E+02 -0.14998E+06
 0.99720001E+02 -0.13211E+06
 0.99769997E+02 -0.12340E+06
 0.99820000E+02 -0.11077E+06
 0.99869995E+02 -0.96965E+05
 0.99919998E+02 -0.90937E+05
 0.99970001E+02 -0.96165E+05
 0.10002000E+03 -0.10797E+06
 0.10007000E+03 -0.10491E+06
 0.10012000E+03 -0.93403E+05
 0.10017000E+03 -0.71936E+05
 0.10022000E+03 -0.44422E+05
 0.10027000E+03 -0.39688E+05
 0.10032000E+03 -0.42373E+05
 0.10037000E+03 -0.37870E+05
 0.10042000E+03 -0.38933E+05
 0.10047000E+03 -0.51034E+05
 0.10052000E+03 -0.65436E+05
 0.10057000E+03 -0.58711E+05
 0.10062000E+03 -0.18951E+05
 0.10067000E+03  0.42685E+05
 0.10072000E+03  0.99173E+05
 0.10077000E+03  0.15422E+06
 0.10082000E+03  0.23580E+06
 0.10087000E+03  0.33134E+06
 0.10092000E+03  0.40143E+06
 0.10097000E+03  0.43324E+06
 0.10102000E+03  0.43106E+06
 0.10107000E+03  0.40244E+06
 0.10112000E+03  0.36473E+06
 0.10117000E+03  0.33235E+06
 0.10122000E+03  0.32686E+06
 0.10127000E+03  0.34446E+06
 0.10132000E+03  0.37834E+06
 0.10137000E+03  0.42596E+06
 0.10142000E+03  0.46226E+06
 0.10147000E+03  0.49226E+06
 0.10152000E+03  0.52307E+06
 0.10157000E+03  0.54797E+06
 0.10162000E+03  0.56796E+06
 0.10167000E+03  0.58885E+06
 0.10172000E+03  0.60865E+06
 0.10177000E+03  0.62115E+06
 0.10182000E+03  0.62822E+06
 0.10187000E+03  0.62496E+06
 0.10192000E+03  0.62283E+06
 0.10197000E+03  0.63453E+06
 0.10202000E+03  0.66096E+06
 0.10207000E+03  0.70516E+06
 0.10212000E+03  0.73607E+06
 0.10217000E+03  0.72163E+06
 0.10222000E+03  0.67960E+06
 0.10227000E+03  0.63975E+06
 0.10232000E+03  0.61657E+06
 0.10237000E+03  0.61772E+06
 0.10242000E+03  0.62128E+06
 0.10247000E+03  0.58582E+06
 0.10252000E+03  0.51431E+06
 0.10257000E+03  0.43097E+06
 0.10262000E+03  0.34774E+06
 0.10267000E+03  0.27377E+06
 0.10272000E+03  0.21712E+06
 0.10277000E+03  0.17455E+06
 0.10282000E+03  0.13285E+06
 0.10287000E+03  0.93512E+05
 0.10292000E+03  0.45818E+05
 0.10297000E+03  0.36580E+04
 0.10302000E+03 -0.16823E+05
 0.10307000E+03 -0.33270E+05
 0.10312000E+03 -0.48332E+05
 0.10317000E+03 -0.73908E+05
 0.10322000E+03 -0.97231E+05
 0.10327000E+03 -0.10478E+06
 0.10332000E+03 -0.11429E+06
 0.10337000E+03 -0.12567E+06
 0.10342000E+03 -0.13196E+06
 0.10347000E+03 -0.12942E+06
 0.10352000E+03 -0.10935E+06
 0.10357000E+03 -0.71741E+05
 0.10362000E+03 -0.34070E+05
 0.10367000E+03 -0.20620E+04
 0.10372000E+03  0.33106E+05
 0.10377000E+03  0.62025E+05
 0.10382000E+03  0.71706E+05
 0.10387000E+03  0.73659E+05
 0.10392000E+03  0.78358E+05
 0.10397000E+03  0.84355E+05
 0.10402000E+03  0.76774E+05
 0.10407000E+03  0.44219E+05
 0.10412000E+03  0.61940E+04
 0.10417000E+03 -0.90800E+04
 0.10422000E+03  0.16193E+05
 0.10427000E+03  0.75942E+05
 0.10432000E+03  0.14450E+06
 0.10437000E+03  0.19087E+06
 0.10442000E+03  0.19609E+06
 0.10447000E+03  0.16769E+06
 0.10452000E+03  0.10712E+06
 0.10457000E+03  0.23385E+05
 0.10462000E+03 -0.53401E+05
 0.10467000E+03 -0.11928E+06
 0.10472000E+03 -0.17709E+06
 0.10477000E+03 -0.21064E+06
 0.10482000E+03 -0.21955E+06
 0.10487000E+03 -0.21561E+06
 0.10492000E+03 -0.19142E+06
 0.10497000E+03 -0.15584E+06
 0.10502000E+03 -0.13024E+06
 0.10507000E+03 -0.10399E+06
 0.10512000E+03 -0.61303E+05
 0.10517000E+03  0.21580E+04
 0.10522000E+03  0.80830E+05
 0.10527000E+03  0.16762E+06
 0.10532000E+03  0.24427E+06
 0.10537000E+03  0.28833E+06
 0.10542000E+03  0.30151E+06
 0.10547000E+03  0.28655E+06
 0.10552000E+03  0.25554E+06
 0.10557000E+03  0.21196E+06
 0.10562000E+03  0.15603E+06
 0.10567000E+03  0.93056E+05
 0.10572000E+03  0.18544E+05
 0.10577000E+03 -0.52000E+05
 0.10582000E+03 -0.11343E+06
 0.10587000E+03 -0.15415E+06
 0.10592000E+03 -0.17494E+06
 0.10597000E+03 -0.19645E+06
 0.10602000E+03 -0.21775E+06
 0.10607000E+03 -0.24143E+06
 0.10612000E+03 -0.26708E+06
 0.10617000E+03 -0.29925E+06
 0.10622000E+03 -0.34235E+06
 0.10627000E+03 -0.39544E+06
 0.10632000E+03 -0.44886E+06
 0.10637000E+03 -0.49351E+06
 0.10642000E+03 -0.52527E+06
 0.10647000E+03 -0.53945E+06
 0.10652000E+03 -0.53750E+06
 0.10657000E+03 -0.51492E+06
 0.10662000E+03 -0.48712E+06
 0.10667000E+03 -0.46526E+06
 0.10672000E+03 -0.43624E+06
 0.10677000E+03 -0.39743E+06
 0.10682000E+03 -0.35920E+06
 0.10687000E+03 -0.32636E+06
 0.10692000E+03 -0.30638E+06
 0.10697000E+03 -0.30809E+06
 0.10702000E+03 -0.31781E+06
 0.10707000E+03 -0.32803E+06
 0.10712000E+03 -0.33748E+06
 0.10717000E+03 -0.33665E+06
 0.10722000E+03 -0.32295E+06
 0.10727000E+03 -0.30147E+06
 0.10732000E+03 -0.26654E+06
 0.10737000E+03 -0.21398E+06
 0.10742000E+03 -0.15744E+06
 0.10747000E+03 -0.86194E+05
 0.10752000E+03 -0.83420E+04
 0.10757000E+03  0.50650E+05
 0.10762000E+03  0.94754E+05
 0.10767000E+03  0.11812E+06
 0.10772000E+03  0.12499E+06
 0.10777000E+03  0.12081E+06
 0.10782000E+03  0.10292E+06
 0.10787000E+03  0.71007E+05
 0.10792000E+03  0.27677E+05
 0.10797000E+03 -0.16090E+05
 0.10802000E+03 -0.55615E+05
 0.10807000E+03 -0.80032E+05
 0.10812000E+03 -0.76984E+05
 0.10817000E+03 -0.52380E+05
 0.10822000E+03 -0.25654E+05
 0.10827000E+03 -0.19530E+04
 0.10832000E+03  0.18814E+05
 0.10837000E+03  0.35851E+05
 0.10842000E+03  0.47084E+05
 0.10847000E+03  0.46443E+05
 0.10852000E+03  0.37829E+05
 0.10857000E+03  0.29648E+05
 0.10862000E+03  0.39672E+05
 0.10867000E+03  0.73644E+05
 0.10872000E+03  0.11988E+06
 0.10877000E+03  0.17312E+06
 0.10882000E+03  0.22916E+06
 0.10887000E+03  0.26833E+06
 0.10892000E+03  0.27012E+06
 0.10897000E+03  0.25225E+06
 0.10902000E+03  0.24062E+06
 0.10907000E+03  0.24070E+06
 0.10912000E+03  0.24941E+06
 0.10917000E+03  0.24745E+06
 0.10922000E+03  0.23445E+06
 0.10927000E+03  0.23881E+06
 0.10932000E+03  0.27641E+06
 0.10937000E+03  0.33200E+06
 0.10942000E+03  0.38300E+06
 0.10947000E+03  0.42506E+06
 0.10952000E+03  0.45654E+06
 0.10957000E+03  0.46837E+06
 0.10962000E+03  0.44506E+06
 0.10967000E+03  0.39323E+06
 0.10972000E+03  0.34002E+06
 0.10977000E+03  0.29912E+06
 0.10982000E+03  0.27160E+06
 0.10987000E+03  0.24363E+06
 0.10992000E+03  0.20785E+06
 0.10997000E+03  0.18249E+06
 0.11002000E+03  0.17636E+06
 0.11007000E+03  0.16979E+06
 0.11012000E+03  0.15668E+06
 0.11017000E+03  0.13821E+06
 0.11022000E+03  0.98514E+05
 0.11027000E+03  0.43801E+05
 0.11032000E+03 -0.14360E+05
 0.11037000E+03 -0.71417E+05
 0.11042000E+03 -0.11325E+06
 0.11047000E+03 -0.13218E+06
 0.11052000E+03 -0.13139E+06
 0.11057000E+03 -0.11814E+06
 0.11062000E+03 -0.97876E+05
 0.11067000E+03 -0.83497E+05
 0.11072000E+03 -0.82570E+05
 0.11077000E+03 -0.83482E+05
 0.11082000E+03 -0.75595E+05
 0.11087000E+03 -0.52986E+05
 0.11092000E+03 -0.15783E+05
 0.11097000E+03  0.22851E+05
 0.11102000E+03  0.53772E+05
 0.11107000E+03  0.74341E+05
 0.11112000E+03  0.86420E+05
 0.11117000E+03  0.95173E+05
 0.11122000E+03  0.92511E+05
 0.11127000E+03  0.69268E+05
 0.11132000E+03  0.32571E+05
 0.11137000E+03 -0.34540E+04
 0.11142000E+03 -0.34007E+05
 0.11147000E+03 -0.61270E+05
 0.11152000E+03 -0.79771E+05
 0.11157000E+03 -0.82470E+05
 0.11162000E+03 -0.78128E+05
 0.11167000E+03 -0.77929E+05
 0.11172000E+03 -0.77897E+05
 0.11177000E+03 -0.72836E+05
 0.11182000E+03 -0.52685E+05
 0.11187000E+03 -0.12604E+05
 0.11192000E+03  0.30191E+05
 0.11197000E+03  0.66079E+05
 0.11202000E+03  0.81815E+05
 0.11207000E+03  0.65207E+05
 0.11212000E+03  0.27983E+05
 0.11217000E+03 -0.17232E+05
 0.11222000E+03 -0.53656E+05
 0.11227000E+03 -0.75103E+05
 0.11232000E+03 -0.87210E+05
 0.11237000E+03 -0.90013E+05
 0.11242000E+03 -0.81495E+05
 0.11247000E+03 -0.55032E+05
 0.11252000E+03 -0.18908E+05
 0.11257000E+03  0.61950E+04
 0.11262000E+03  0.18129E+05
 0.11267000E+03  0.40392E+05
 0.11272000E+03  0.88924E+05
 0.11277000E+03  0.15149E+06
 0.11282000E+03  0.20342E+06
 0.11287000E+03  0.22299E+06
 0.11292000E+03  0.21478E+06
 0.11297000E+03  0.19394E+06
 0.11302000E+03  0.16294E+06
 0.11307000E+03  0.12614E+06
 0.11312000E+03  0.89606E+05
 0.11317000E+03  0.68509E+05
 0.11322000E+03  0.76102E+05
 0.11327000E+03  0.98988E+05
 0.11332000E+03  0.11681E+06
 0.11337000E+03  0.12432E+06
 0.11342000E+03  0.12848E+06
 0.11347000E+03  0.12765E+06
 0.11352000E+03  0.11375E+06
 0.11357000E+03  0.87315E+05
 0.11362000E+03  0.51638E+05
 0.11367000E+03  0.19929E+05
 0.11372000E+03  0.38410E+04
 0.11377000E+03 -0.86430E+04
 0.11382000E+03 -0.29146E+05
 0.11387000E+03 -0.48986E+05
 0.11392000E+03 -0.62962E+05
 0.11397000E+03 -0.66785E+05
 0.11402000E+03 -0.48709E+05
 0.11407000E+03 -0.20031E+05
 0.11412000E+03  0.37080E+04
 0.11417000E+03  0.19119E+05
 0.11422000E+03  0.23758E+05
 0.11427000E+03  0.24865E+05
 0.11432000E+03  0.25297E+05
 0.11437000E+03  0.21109E+05
 0.11442000E+03  0.10402E+05
 0.11447000E+03 -0.81920E+04
 0.11452000E+03 -0.29298E+05
 0.11457000E+03 -0.48683E+05
 0.11462000E+03 -0.60445E+05
 0.11467000E+03 -0.55204E+05
 0.11472000E+03 -0.39498E+05
 0.11477000E+03 -0.15744E+05
 0.11482000E+03  0.21290E+05
 0.11487000E+03  0.68689E+05
 0.11492000E+03  0.12284E+06
 0.11497000E+03  0.18166E+06
 0.11502000E+03  0.24539E+06
 0.11507000E+03  0.30331E+06
 0.11512000E+03  0.34705E+06
 0.11517000E+03  0.38018E+06
 0.11522000E+03  0.40545E+06
 0.11527000E+03  0.42316E+06
 0.11532000E+03  0.42685E+06
 0.11537000E+03  0.41262E+06
 0.11542000E+03  0.38300E+06
 0.11547000E+03  0.34421E+06
 0.11552000E+03  0.30627E+06
 0.11557000E+03  0.27791E+06
 0.11562000E+03  0.25924E+06
 0.11567000E+03  0.24394E+06
 0.11572000E+03  0.22886E+06
 0.11577000E+03  0.21404E+06
 0.11582000E+03  0.20615E+06
 0.11587000E+03  0.20958E+06
 0.11592000E+03  0.21753E+06
 0.11597000E+03  0.22678E+06
 0.11602000E+03  0.22421E+06
 0.11607000E+03  0.19312E+06
 0.11612000E+03  0.14250E+06
 0.11617000E+03  0.92203E+05
 0.11622000E+03  0.53739E+05
 0.11627000E+03  0.20222E+05
 0.11632000E+03 -0.14266E+05
 0.11637000E+03 -0.48896E+05
 0.11642000E+03 -0.86185E+05
 0.11647000E+03 -0.11512E+06
 0.11652000E+03 -0.13104E+06
 0.11657000E+03 -0.13425E+06
 0.11662000E+03 -0.11745E+06
 0.11667000E+03 -0.93544E+05
 0.11672000E+03 -0.79073E+05
 0.11677000E+03 -0.78765E+05
 0.11682000E+03 -0.89079E+05
 0.11687000E+03 -0.98687E+05
 0.11692000E+03 -0.10778E+06
 0.11697000E+03 -0.11710E+06
 0.11702000E+03 -0.13106E+06
 0.11707000E+03 -0.16306E+06
 0.11712000E+03 -0.21053E+06
 0.11717000E+03 -0.26688E+06
 0.11722000E+03 -0.32456E+06
 0.11727000E+03 -0.37049E+06
 0.11732000E+03 -0.40129E+06
 0.11737000E+03 -0.41453E+06
 0.11742000E+03 -0.41028E+06
 0.11747000E+03 -0.39591E+06
 0.11752000E+03 -0.37334E+06
 0.11757000E+03 -0.34427E+06
 0.11762000E+03 -0.30883E+06
 0.11767000E+03 -0.26508E+06
 0.11772000E+03 -0.21538E+06
 0.11777000E+03 -0.16056E+06
 0.11782000E+03 -0.98213E+05
 0.11787000E+03 -0.33467E+05
 0.11792000E+03  0.18782E+05
 0.11797000E+03  0.49044E+05
 0.11802000E+03  0.57420E+05
 0.11807000E+03  0.53134E+05
 0.11812000E+03  0.41518E+05
 0.11817000E+03  0.19171E+05
 0.11822000E+03 -0.14283E+05
 0.11827000E+03 -0.51250E+05
 0.11832000E+03 -0.80066E+05
 0.11837000E+03 -0.99819E+05
 0.11842000E+03 -0.11006E+06
 0.11847000E+03 -0.11518E+06
 0.11852000E+03 -0.12423E+06
 0.11857000E+03 -0.12858E+06
 0.11862000E+03 -0.11770E+06
 0.11867000E+03 -0.92567E+05
 0.11872000E+03 -0.69123E+05
 0.11877000E+03 -0.61183E+05
 0.11882000E+03 -0.65387E+05
 0.11887000E+03 -0.74131E+05
 0.11892000E+03 -0.79841E+05
 0.11897000E+03 -0.83782E+05
 0.11902000E+03 -0.91369E+05
 0.11907000E+03 -0.99475E+05
 0.11912000E+03 -0.10320E+06
 0.11917000E+03 -0.94342E+05
 0.11922000E+03 -0.63668E+05
 0.11927000E+03 -0.18170E+05
 0.11932000E+03  0.30798E+05
 0.11937000E+03  0.75125E+05
 0.11942000E+03  0.10280E+06
 0.11947000E+03  0.11193E+06
 0.11952000E+03  0.11011E+06
 0.11957000E+03  0.10222E+06
 0.11962000E+03  0.97380E+05
 0.11967000E+03  0.10561E+06
 0.11972000E+03  0.12463E+06
 0.11977000E+03  0.15421E+06
 0.11982000E+03  0.19238E+06
 0.11987000E+03  0.22911E+06
 0.11992000E+03  0.25942E+06
 0.11997000E+03  0.27576E+06
 0.12002000E+03  0.27787E+06
 0.12007000E+03  0.27166E+06
 0.12012000E+03  0.25188E+06
 0.12017000E+03  0.22076E+06
 0.12022000E+03  0.18862E+06
 0.12027000E+03  0.16415E+06
 0.12032000E+03  0.16049E+06
 0.12037000E+03  0.17848E+06
 0.12042000E+03  0.20575E+06
 0.12047000E+03  0.22831E+06
 0.12052000E+03  0.23513E+06
 0.12057000E+03  0.22869E+06
 0.12062000E+03  0.21515E+06
 0.12067000E+03  0.20176E+06
 0.12072000E+03  0.19240E+06
 0.12077000E+03  0.18094E+06
 0.12082000E+03  0.16089E+06
 0.12087000E+03  0.12843E+06
 0.12092000E+03  0.91181E+05
 0.12097000E+03  0.62253E+05
 0.12102000E+03  0.48164E+05
 0.12107000E+03  0.43806E+05
 0.12112000E+03  0.37996E+05
 0.12117000E+03  0.25419E+05
 0.12122000E+03  0.34630E+04
 0.12127000E+03 -0.17669E+05
 0.12132000E+03 -0.29956E+05
 0.12137000E+03 -0.46360E+05
 0.12142000E+03 -0.77575E+05
 0.12147000E+03 -0.11949E+06
 0.12152000E+03 -0.16073E+06
 0.12157000E+03 -0.18972E+06
 0.12162000E+03 -0.20172E+06
 0.12167000E+03 -0.20303E+06
 0.12172000E+03 -0.19363E+06
 0.12177000E+03 -0.16904E+06
 0.12182000E+03 -0.13418E+06
 0.12187000E+03 -0.10063E+06
 0.12192000E+03 -0.75865E+05
 0.12197000E+03 -0.53431E+05
 0.12202000E+03 -0.32135E+05
 0.12207000E+03 -0.15971E+05
 0.12212000E+03 -0.58450E+04
 0.12217000E+03 -0.50790E+04
 0.12222000E+03 -0.11433E+05
 0.12227000E+03 -0.14335E+05
 0.12232000E+03 -0.91830E+04
 0.12237000E+03 -0.19600E+04
 0.12242000E+03  0.99300E+03
 0.12247000E+03 -0.50410E+04
 0.12252000E+03 -0.13295E+05
 0.12257000E+03 -0.12105E+05
 0.12262000E+03  0.14290E+04
 0.12267000E+03  0.30309E+05
 0.12272000E+03  0.69308E+05
 0.12277000E+03  0.10784E+06
 0.12282000E+03  0.14258E+06
 0.12287000E+03  0.16165E+06
 0.12292000E+03  0.15988E+06
 0.12297000E+03  0.14941E+06
 0.12302000E+03  0.13701E+06
 0.12307000E+03  0.12585E+06
 0.12312000E+03  0.11853E+06
 0.12317000E+03  0.11689E+06
 0.12322000E+03  0.11992E+06
 0.12327000E+03  0.13216E+06
 0.12332000E+03  0.16263E+06
 0.12337000E+03  0.20671E+06
 0.12342000E+03  0.25141E+06
 0.12347000E+03  0.28159E+06
 0.12352000E+03  0.29199E+06
 0.12357000E+03  0.29054E+06
 0.12362000E+03  0.28557E+06
 0.12367000E+03  0.28156E+06
 0.12372000E+03  0.27652E+06
 0.12377000E+03  0.26269E+06
 0.12382000E+03  0.22928E+06
 0.12387000E+03  0.17983E+06
 0.12392000E+03  0.13096E+06
 0.12397000E+03  0.87383E+05
 0.12402000E+03  0.54386E+05
 0.12407000E+03  0.39097E+05
 0.12412000E+03  0.37951E+05
 0.12417000E+03  0.47009E+05
 0.12422000E+03  0.58698E+05
 0.12427000E+03  0.64156E+05
 0.12432000E+03  0.63873E+05
 0.12437000E+03  0.60422E+05
 0.12442000E+03  0.56378E+05
 0.12447000E+03  0.61377E+05
 0.12452000E+03  0.76078E+05
 0.12457000E+03  0.89239E+05
 0.12462000E+03  0.96054E+05
 0.12467000E+03  0.94566E+05
 0.12472000E+03  0.85539E+05
 0.12477000E+03  0.72408E+05
 0.12482000E+03  0.54540E+05
 0.12487000E+03  0.30944E+05
 0.12492000E+03  0.24360E+04
 0.12497000E+03 -0.19289E+05
 0.12502000E+03 -0.19536E+05
 0.12507000E+03 -0.33490E+04
 0.12512000E+03  0.20370E+05
 0.12517001E+03  0.49676E+05
 0.12521999E+03  0.84469E+05
 0.12527000E+03  0.13160E+06
 0.12532000E+03  0.18337E+06
 0.12537000E+03  0.22215E+06
 0.12542001E+03  0.24566E+06
 0.12546999E+03  0.25450E+06
 0.12552000E+03  0.25520E+06
 0.12557000E+03  0.25884E+06
 0.12562000E+03  0.26220E+06
 0.12567001E+03  0.25805E+06
 0.12571999E+03  0.24530E+06
 0.12577000E+03  0.22196E+06
 0.12582000E+03  0.19278E+06
 0.12587000E+03  0.17076E+06
 0.12592001E+03  0.15416E+06
 0.12596999E+03  0.12983E+06
 0.12602000E+03  0.94703E+05
 0.12607000E+03  0.54760E+05
 0.12612000E+03  0.11384E+05
 0.12617001E+03 -0.24774E+05
 0.12621999E+03 -0.42990E+05
 0.12627000E+03 -0.52084E+05
 0.12632000E+03 -0.54208E+05
 0.12637000E+03 -0.61013E+05
 0.12642001E+03 -0.84410E+05
 0.12646999E+03 -0.11628E+06
 0.12652000E+03 -0.15446E+06
 0.12657000E+03 -0.19515E+06
 0.12662000E+03 -0.23536E+06
 0.12667001E+03 -0.27513E+06
 0.12671999E+03 -0.31026E+06
 0.12677000E+03 -0.33600E+06
 0.12682000E+03 -0.35180E+06
 0.12687000E+03 -0.36488E+06
 0.12692001E+03 -0.37862E+06
 0.12696999E+03 -0.38831E+06
 0.12702000E+03 -0.38645E+06
 0.12707000E+03 -0.36929E+06
 0.12712000E+03 -0.33965E+06
 0.12717001E+03 -0.30284E+06
 0.12721999E+03 -0.26526E+06
 0.12727000E+03 -0.23547E+06
 0.12732000E+03 -0.22156E+06
 0.12737000E+03 -0.22059E+06
 0.12742001E+03 -0.22290E+06
 0.12746999E+03 -0.22367E+06
 0.12752000E+03 -0.21862E+06
 0.12757000E+03 -0.20395E+06
 0.12762000E+03 -0.17724E+06
 0.12767001E+03 -0.13915E+06
 0.12771999E+03 -0.95491E+05
 0.12777000E+03 -0.49674E+05
 0.12782000E+03 -0.75440E+04
 0.12787000E+03  0.26944E+05
 0.12792001E+03  0.57801E+05
 0.12796999E+03  0.79848E+05
 0.12802000E+03  0.87022E+05
 0.12807001E+03  0.80606E+05
 0.12812001E+03  0.64916E+05
 0.12817001E+03  0.48216E+05
 0.12822000E+03  0.31387E+05
 0.12827000E+03  0.15211E+05
 0.12832001E+03  0.10748E+05
 0.12837001E+03  0.21018E+05
 0.12842001E+03  0.35354E+05
 0.12847000E+03  0.54094E+05
 0.12852000E+03  0.80715E+05
 0.12857001E+03  0.11008E+06
 0.12862001E+03  0.13945E+06
 0.12867001E+03  0.15873E+06
 0.12872000E+03  0.15860E+06
 0.12877000E+03  0.14045E+06
 0.12882001E+03  0.11158E+06
 0.12887001E+03  0.80311E+05
 0.12892001E+03  0.48247E+05
 0.12897000E+03  0.19293E+05
 0.12902000E+03  0.17010E+04
 0.12907001E+03 -0.68590E+04
 0.12912001E+03 -0.17726E+05
 0.12917001E+03 -0.33876E+05
 0.12922000E+03 -0.48771E+05
 0.12927000E+03 -0.52037E+05
 0.12932001E+03 -0.41436E+05
 0.12937001E+03 -0.29935E+05
 0.12942001E+03 -0.25839E+05
 0.12947000E+03 -0.29603E+05
 0.12952000E+03 -0.38306E+05
 0.12957001E+03 -0.43405E+05
 0.12962001E+03 -0.42397E+05
 0.12967001E+03 -0.36515E+05
 0.12972000E+03 -0.24310E+05
 0.12977000E+03 -0.48760E+04
 0.12982001E+03  0.20539E+05
 0.12987001E+03  0.47044E+05
 0.12992001E+03  0.73506E+05
 0.12997000E+03  0.10101E+06
 0.13002000E+03  0.12544E+06
 0.13007001E+03  0.14189E+06
 0.13012001E+03  0.14860E+06
 0.13017001E+03  0.14781E+06
 0.13022000E+03  0.14408E+06
 0.13027000E+03  0.14243E+06
 0.13032001E+03  0.14521E+06
 0.13037001E+03  0.15322E+06
 0.13042001E+03  0.16886E+06
 0.13047000E+03  0.18756E+06
 0.13052000E+03  0.20116E+06
 0.13057001E+03  0.20767E+06
 0.13062001E+03  0.20564E+06
 0.13067001E+03  0.19695E+06
 0.13072000E+03  0.18378E+06
 0.13077000E+03  0.16005E+06
 0.13082001E+03  0.12402E+06
 0.13087001E+03  0.83886E+05
 0.13092001E+03  0.49468E+05
 0.13097000E+03  0.27513E+05
 0.13102000E+03  0.17111E+05
 0.13107001E+03  0.14460E+05
 0.13112001E+03  0.19690E+05
 0.13117001E+03  0.32582E+05
 0.13122000E+03  0.50087E+05
 0.13127000E+03  0.68374E+05
 0.13132001E+03  0.81815E+05
 0.13137001E+03  0.85197E+05
 0.13142001E+03  0.81765E+05
 0.13147000E+03  0.74461E+05
 0.13152000E+03  0.61044E+05
 0.13157001E+03  0.42086E+05
 0.13162001E+03  0.20860E+05
 0.13167001E+03  0.16520E+04
 0.13172000E+03 -0.16180E+05
 0.13177000E+03 -0.27919E+05
 0.13182001E+03 -0.27782E+05
 0.13187001E+03 -0.22532E+05
 0.13192001E+03 -0.13151E+05
 0.13197000E+03  0.11900E+03
 0.13202000E+03  0.13130E+05
 0.13207001E+03  0.26225E+05
 0.13212001E+03  0.34316E+05
 0.13217001E+03  0.34586E+05
 0.13222000E+03  0.33018E+05
 0.13227000E+03  0.33375E+05
 0.13232001E+03  0.36021E+05
 0.13237001E+03  0.40035E+05
 0.13242001E+03  0.39735E+05
 0.13247000E+03  0.30654E+05
 0.13252000E+03  0.17449E+05
 0.13257001E+03  0.64860E+04
 0.13262001E+03  0.28270E+04
 0.13267001E+03  0.10650E+05
 0.13272000E+03  0.24950E+05
 0.13277000E+03  0.38681E+05
 0.13282001E+03  0.47247E+05
 0.13287001E+03  0.46073E+05
 0.13292001E+03  0.42514E+05
 0.13297000E+03  0.40840E+05
 0.13302000E+03  0.33556E+05
 0.13307001E+03  0.18229E+05
 0.13312001E+03 -0.38120E+04
 0.13317001E+03 -0.30262E+05
 0.13322000E+03 -0.56149E+05
 0.13327000E+03 -0.73568E+05
 0.13332001E+03 -0.79047E+05
 0.13337001E+03 -0.72346E+05
 0.13342001E+03 -0.53285E+05
 0.13347000E+03 -0.26864E+05
 0.13352000E+03  0.18110E+04
 0.13357001E+03  0.29589E+05
 0.13362001E+03  0.53493E+05
 0.13367001E+03  0.68634E+05
 0.13372000E+03  0.73794E+05
 0.13377000E+03  0.75812E+05
 0.13382001E+03  0.78580E+05
 0.13387001E+03  0.80851E+05
 0.13392001E+03  0.81583E+05
 0.13397000E+03  0.79767E+05
 0.13402000E+03  0.76977E+05
 0.13407001E+03  0.75636E+05
 0.13412001E+03  0.70999E+05
 0.13417001E+03  0.60138E+05
 0.13422000E+03  0.49061E+05
 0.13427000E+03  0.39321E+05
 0.13432001E+03  0.33170E+05
 0.13437001E+03  0.34410E+05
 0.13442001E+03  0.38908E+05
 0.13447000E+03  0.44481E+05
 0.13452000E+03  0.45726E+05
 0.13457001E+03  0.33967E+05
 0.13462001E+03  0.93830E+04
 0.13467001E+03 -0.21927E+05
 0.13472000E+03 -0.54196E+05
 0.13477000E+03 -0.83479E+05
 0.13482001E+03 -0.10685E+06
 0.13487001E+03 -0.12676E+06
 0.13492001E+03 -0.14447E+06
 0.13497000E+03 -0.15943E+06
 0.13502000E+03 -0.17622E+06
 0.13507001E+03 -0.19462E+06
 0.13512001E+03 -0.20830E+06
 0.13517001E+03 -0.21542E+06
 0.13522000E+03 -0.22193E+06
 0.13527000E+03 -0.23004E+06
 0.13532001E+03 -0.23591E+06
 0.13537001E+03 -0.24028E+06
 0.13542001E+03 -0.24473E+06
 0.13547000E+03 -0.25176E+06
 0.13552000E+03 -0.26578E+06
 0.13557001E+03 -0.28047E+06
 0.13562001E+03 -0.28665E+06
 0.13567001E+03 -0.28275E+06
 0.13572000E+03 -0.26788E+06
 0.13577000E+03 -0.24666E+06
 0.13582001E+03 -0.22489E+06
 0.13587001E+03 -0.20098E+06
 0.13592001E+03 -0.17518E+06
 0.13597000E+03 -0.15250E+06
 0.13602000E+03 -0.13276E+06
 0.13607001E+03 -0.10973E+06
 0.13612001E+03 -0.84171E+05
 0.13617001E+03 -0.59633E+05
 0.13622000E+03 -0.34367E+05
 0.13627000E+03 -0.10313E+05
 0.13632001E+03  0.85100E+04
 0.13637001E+03  0.24539E+05
 0.13642001E+03  0.43414E+05
 0.13647000E+03  0.67531E+05
 0.13652000E+03  0.95176E+05
 0.13657001E+03  0.12265E+06
 0.13662001E+03  0.14622E+06
 0.13667001E+03  0.16384E+06
 0.13672000E+03  0.17974E+06
 0.13677000E+03  0.19992E+06
 0.13682001E+03  0.22456E+06
 0.13687001E+03  0.25277E+06
 0.13692001E+03  0.28143E+06
 0.13697000E+03  0.30499E+06
 0.13702000E+03  0.32122E+06
 0.13707001E+03  0.33344E+06
 0.13712001E+03  0.34432E+06
 0.13717001E+03  0.35252E+06
 0.13722000E+03  0.35753E+06
 0.13727000E+03  0.35837E+06
 0.13732001E+03  0.35496E+06
 0.13737001E+03  0.34654E+06
 0.13742001E+03  0.33264E+06
 0.13747000E+03  0.31413E+06
 0.13752000E+03  0.29170E+06
 0.13757001E+03  0.26734E+06
 0.13762001E+03  0.23956E+06
 0.13767001E+03  0.20677E+06
 0.13772000E+03  0.16999E+06
 0.13777000E+03  0.13225E+06
 0.13782001E+03  0.99569E+05
 0.13787001E+03  0.75012E+05
 0.13792001E+03  0.59079E+05
 0.13797000E+03  0.51672E+05
 0.13802000E+03  0.50696E+05
 0.13807001E+03  0.56621E+05
 0.13812001E+03  0.63029E+05
 0.13817001E+03  0.60589E+05
 0.13822000E+03  0.50139E+05
 0.13827000E+03  0.32390E+05
 0.13832001E+03  0.11648E+05
 0.13837001E+03 -0.66890E+04
 0.13842001E+03 -0.22379E+05
 0.13847000E+03 -0.32573E+05
 0.13852000E+03 -0.35350E+05
 0.13857001E+03 -0.29176E+05
 0.13862001E+03 -0.12896E+05
 0.13867001E+03  0.97070E+04
 0.13872000E+03  0.34657E+05
 0.13877000E+03  0.56978E+05
 0.13882001E+03  0.68556E+05
 0.13887001E+03  0.65741E+05
 0.13892001E+03  0.52775E+05
 0.13897000E+03  0.36056E+05
 0.13902000E+03  0.22996E+05
 0.13907001E+03  0.22196E+05
 0.13912001E+03  0.31757E+05
 0.13917001E+03  0.46082E+05
 0.13922000E+03  0.67028E+05
 0.13927000E+03  0.92565E+05
 0.13932001E+03  0.11995E+06
 0.13937001E+03  0.14927E+06
 0.13942001E+03  0.17693E+06
 0.13947000E+03  0.19934E+06
 0.13952000E+03  0.21442E+06
 0.13957001E+03  0.22010E+06
 0.13962001E+03  0.21613E+06
 0.13967001E+03  0.20643E+06
 0.13972000E+03  0.19667E+06
 0.13977000E+03  0.19027E+06
 0.13982001E+03  0.18607E+06
 0.13987001E+03  0.17994E+06
 0.13992001E+03  0.17244E+06
 0.13997000E+03  0.16575E+06
 0.14002000E+03  0.15806E+06
 0.14007001E+03  0.14835E+06
 0.14012001E+03  0.13630E+06
 0.14017001E+03  0.12285E+06
 0.14022000E+03  0.10966E+06
 0.14027000E+03  0.95595E+05
 0.14032001E+03  0.78383E+05
 0.14037001E+03  0.53376E+05
 0.14042001E+03  0.18187E+05
 0.14047000E+03 -0.22706E+05
 0.14052000E+03 -0.64331E+05
 0.14057001E+03 -0.10352E+06
 0.14062001E+03 -0.13656E+06
 0.14067001E+03 -0.15851E+06
 0.14072000E+03 -0.16770E+06
 0.14077000E+03 -0.16880E+06
 0.14082001E+03 -0.16848E+06
 0.14087001E+03 -0.17122E+06
 0.14092001E+03 -0.17542E+06
 0.14097000E+03 -0.17809E+06
 0.14102000E+03 -0.17586E+06
 0.14107001E+03 -0.16936E+06
 0.14112001E+03 -0.16612E+06
 0.14117001E+03 -0.16989E+06
 0.14122000E+03 -0.18296E+06
 0.14127000E+03 -0.20271E+06
 0.14132001E+03 -0.22423E+06
 0.14137001E+03 -0.24460E+06
 0.14142001E+03 -0.26264E+06
 0.14147000E+03 -0.28034E+06
 0.14152000E+03 -0.29536E+06
 0.14157001E+03 -0.30386E+06
 0.14162001E+03 -0.30050E+06
 0.14167001E+03 -0.28576E+06
 0.14172000E+03 -0.26542E+06
 0.14177000E+03 -0.23992E+06
 0.14182001E+03 -0.21132E+06
 0.14187001E+03 -0.18258E+06
 0.14192001E+03 -0.15290E+06
 0.14197000E+03 -0.12261E+06
 0.14202000E+03 -0.93139E+05
 0.14207001E+03 -0.62860E+05
 0.14212001E+03 -0.33243E+05
 0.14217001E+03 -0.74370E+04
 0.14222000E+03  0.16976E+05
 0.14227000E+03  0.42650E+05
 0.14232001E+03  0.70677E+05
 0.14237001E+03  0.10034E+06
 0.14242001E+03  0.12911E+06
 0.14247000E+03  0.15626E+06
 0.14252000E+03  0.17972E+06
 0.14257001E+03  0.19208E+06
 0.14262001E+03  0.18969E+06
 0.14267001E+03  0.17716E+06
 0.14272000E+03  0.16028E+06
 0.14277000E+03  0.14386E+06
 0.14282001E+03  0.13002E+06
 0.14287001E+03  0.11938E+06
 0.14292001E+03  0.11165E+06
 0.14297000E+03  0.10394E+06
 0.14302000E+03  0.94425E+05
 0.14307001E+03  0.81229E+05
 0.14312001E+03  0.64978E+05
 0.14317001E+03  0.53868E+05
 0.14322000E+03  0.50111E+05
 0.14327000E+03  0.48465E+05
 0.14332001E+03  0.45486E+05
 0.14337001E+03  0.38265E+05
 0.14342001E+03  0.28203E+05
 0.14347000E+03  0.17198E+05
 0.14352000E+03  0.48730E+04
 0.14357001E+03 -0.78600E+04
 0.14362001E+03 -0.19630E+05
 0.14367001E+03 -0.29909E+05
 0.14372000E+03 -0.40299E+05
 0.14377000E+03 -0.53333E+05
 0.14382001E+03 -0.69500E+05
 0.14387001E+03 -0.83614E+05
 0.14392001E+03 -0.93076E+05
 0.14397000E+03 -0.10181E+06
 0.14402000E+03 -0.11247E+06
 0.14407001E+03 -0.12435E+06
 0.14412001E+03 -0.13480E+06
 0.14417001E+03 -0.14441E+06
 0.14422000E+03 -0.15556E+06
 0.14427000E+03 -0.16775E+06
 0.14432001E+03 -0.17878E+06
 0.14437001E+03 -0.18621E+06
 0.14442001E+03 -0.18909E+06
 0.14447000E+03 -0.19014E+06
 0.14452000E+03 -0.18867E+06
 0.14457001E+03 -0.18167E+06
 0.14462001E+03 -0.17176E+06
 0.14467001E+03 -0.15994E+06
 0.14472000E+03 -0.14902E+06
 0.14477000E+03 -0.14072E+06
 0.14482001E+03 -0.12998E+06
 0.14487001E+03 -0.11620E+06
 0.14492001E+03 -0.10078E+06
 0.14497000E+03 -0.84111E+05
 0.14502000E+03 -0.65340E+05
 0.14507001E+03 -0.42434E+05
 0.14512001E+03 -0.15239E+05
 0.14517001E+03  0.16648E+05
 0.14522000E+03  0.51303E+05
 0.14527000E+03  0.84141E+05
 0.14532001E+03  0.10893E+06
 0.14537001E+03  0.12352E+06
 0.14542001E+03  0.13390E+06
 0.14547000E+03  0.14321E+06
 0.14552000E+03  0.15003E+06
 0.14557001E+03  0.15112E+06
 0.14562001E+03  0.14062E+06
 0.14567001E+03  0.11918E+06
 0.14572000E+03  0.93477E+05
 0.14577000E+03  0.69370E+05
 0.14582001E+03  0.53997E+05
 0.14587001E+03  0.53185E+05
 0.14592001E+03  0.65638E+05
 0.14597000E+03  0.83732E+05
 0.14602000E+03  0.10008E+06
 0.14607001E+03  0.11038E+06
 0.14612001E+03  0.11709E+06
 0.14617001E+03  0.12608E+06
 0.14622000E+03  0.13483E+06
 0.14627000E+03  0.13918E+06
 0.14632001E+03  0.13735E+06
 0.14637001E+03  0.12793E+06
 0.14642001E+03  0.11674E+06
 0.14647000E+03  0.10933E+06
 0.14652000E+03  0.10432E+06
 0.14657001E+03  0.99270E+05
 0.14662001E+03  0.93601E+05
 0.14667001E+03  0.88193E+05
 0.14672000E+03  0.82034E+05
 0.14677000E+03  0.74347E+05
 0.14682001E+03  0.66766E+05
 0.14687001E+03  0.62573E+05
 0.14692001E+03  0.63147E+05
 0.14697000E+03  0.66956E+05
 0.14702000E+03  0.73788E+05
 0.14707001E+03  0.82440E+05
 0.14712001E+03  0.92713E+05
 0.14717001E+03  0.10522E+06
 0.14722000E+03  0.11676E+06
 0.14727000E+03  0.12604E+06
 0.14732001E+03  0.13723E+06
 0.14737001E+03  0.15284E+06
 0.14742001E+03  0.17275E+06
 0.14747000E+03  0.19608E+06
 0.14752000E+03  0.21828E+06
 0.14757001E+03  0.23622E+06
 0.14762001E+03  0.24928E+06
 0.14767001E+03  0.25737E+06
 0.14772000E+03  0.26161E+06
 0.14777000E+03  0.26169E+06
 0.14782001E+03  0.25711E+06
 0.14787001E+03  0.24554E+06
 0.14792001E+03  0.22562E+06
 0.14797000E+03  0.20096E+06
 0.14802000E+03  0.17511E+06
 0.14807001E+03  0.15254E+06
 0.14812001E+03  0.13725E+06
 0.14817001E+03  0.12899E+06
 0.14822000E+03  0.12548E+06
 0.14827000E+03  0.12412E+06
 0.14832001E+03  0.12298E+06
 0.14837001E+03  0.12102E+06
 0.14842001E+03  0.11959E+06
 0.14847000E+03  0.12101E+06
 0.14852000E+03  0.12411E+06
 0.14857001E+03  0.12639E+06
 0.14862001E+03  0.12743E+06
 0.14867001E+03  0.12648E+06
 0.14872000E+03  0.12204E+06
 0.14877000E+03  0.11562E+06
 0.14882001E+03  0.11104E+06
 0.14887001E+03  0.10819E+06
 0.14892001E+03  0.10229E+06
 0.14897000E+03  0.91352E+05
 0.14902000E+03  0.76506E+05
 0.14907001E+03  0.58981E+05
 0.14912001E+03  0.40172E+05
 0.14917001E+03  0.19994E+05
 0.14922000E+03 -0.15850E+04
 0.14927000E+03 -0.22524E+05
 0.14932001E+03 -0.39230E+05
 0.14937001E+03 -0.51704E+05
 0.14942001E+03 -0.62202E+05
 0.14947000E+03 -0.68328E+05
 0.14952000E+03 -0.67913E+05
 0.14957001E+03 -0.62683E+05
 0.14962001E+03 -0.59499E+05
 0.14967001E+03 -0.65999E+05
 0.14972000E+03 -0.81535E+05
 0.14977000E+03 -0.10188E+06
 0.14982001E+03 -0.12134E+06
 0.14987001E+03 -0.13687E+06
 0.14992001E+03 -0.14935E+06
 0.14997000E+03 -0.15341E+06
