-0.29800000E+01 -0.10436E+05
-0.29300001E+01  0.54000E+02
-0.28800001E+01  0.11565E+05
-0.28299999E+01  0.22827E+05
-0.27800000E+01  0.34174E+05
-0.27300000E+01  0.45298E+05
-0.26800001E+01  0.54206E+05
-0.26300001E+01  0.60104E+05
-0.25799999E+01  0.62649E+05
-0.25300000E+01  0.62339E+05
-0.24800000E+01  0.60329E+05
-0.24300001E+01  0.58023E+05
-0.23800001E+01  0.57103E+05
-0.23299999E+01  0.57042E+05
-0.22800000E+01  0.56857E+05
-0.22300000E+01  0.56374E+05
-0.21800001E+01  0.54398E+05
-0.21300001E+01  0.50451E+05
-0.20799999E+01  0.45754E+05
-0.20300000E+01  0.41115E+05
-0.19800000E+01  0.37536E+05
-0.19299999E+01  0.36831E+05
-0.18800000E+01  0.38467E+05
-0.18300000E+01  0.41088E+05
-0.17800000E+01  0.45729E+05
-0.17300000E+01  0.51707E+05
-0.16799999E+01  0.57119E+05
-0.16300000E+01  0.60964E+05
-0.15800000E+01  0.62371E+05
-0.15300000E+01  0.61918E+05
-0.14800000E+01  0.59541E+05
-0.14299999E+01  0.55102E+05
-0.13800000E+01  0.50090E+05
-0.13300000E+01  0.44677E+05
-0.12800000E+01  0.37964E+05
-0.12300000E+01  0.29874E+05
-0.11799999E+01  0.20142E+05
-0.11300000E+01  0.86600E+04
-0.10800000E+01 -0.29300E+04
-0.10300000E+01 -0.13140E+05
-0.98000002E+00 -0.22635E+05
-0.93000007E+00 -0.31012E+05
-0.87999988E+00 -0.37704E+05
-0.82999992E+00 -0.43376E+05
-0.77999997E+00 -0.47844E+05
-0.73000002E+00 -0.50795E+05
-0.68000007E+00 -0.52169E+05
-0.62999988E+00 -0.52318E+05
-0.57999992E+00 -0.51259E+05
-0.52999997E+00 -0.49641E+05
-0.48000002E+00 -0.47082E+05
-0.43000007E+00 -0.42950E+05
-0.37999988E+00 -0.38064E+05
-0.32999992E+00 -0.32282E+05
-0.27999997E+00 -0.26367E+05
-0.23000002E+00 -0.20280E+05
-0.18000007E+00 -0.14734E+05
-0.12999988E+00 -0.10459E+05
-0.79999924E-01 -0.58500E+04
-0.29999971E-01 -0.15990E+04
 0.19999981E-01  0.14970E+04
 0.69999933E-01  0.42320E+04
 0.12000012E+00  0.76300E+04
 0.17000008E+00  0.11016E+05
 0.22000003E+00  0.13417E+05
 0.26999998E+00  0.15859E+05
 0.31999993E+00  0.19599E+05
 0.37000012E+00  0.24454E+05
 0.42000008E+00  0.28820E+05
 0.47000003E+00  0.32749E+05
 0.51999998E+00  0.35754E+05
 0.56999993E+00  0.36235E+05
 0.62000012E+00  0.34831E+05
 0.67000008E+00  0.32899E+05
 0.72000003E+00  0.30605E+05
 0.76999998E+00  0.27821E+05
 0.81999993E+00  0.25149E+05
 0.87000012E+00  0.22158E+05
 0.92000008E+00  0.17413E+05
 0.97000003E+00  0.10827E+05
 0.10200000E+01  0.39780E+04
 0.10700002E+01 -0.30950E+04
 0.11199999E+01 -0.10531E+05
 0.11700001E+01 -0.16727E+05
 0.12200003E+01 -0.21251E+05
 0.12700000E+01 -0.23943E+05
 0.13200002E+01 -0.25150E+05
 0.13699999E+01 -0.24554E+05
 0.14200001E+01 -0.22288E+05
 0.14700003E+01 -0.20212E+05
 0.15200000E+01 -0.17913E+05
 0.15700002E+01 -0.15578E+05
 0.16199999E+01 -0.14159E+05
 0.16700001E+01 -0.12562E+05
 0.17200003E+01 -0.96650E+04
 0.17700000E+01 -0.54700E+04
 0.18200002E+01 -0.10820E+04
 0.18699999E+01  0.18190E+04
 0.19200001E+01  0.20280E+04
 0.19700003E+01 -0.11420E+04
 0.20200000E+01 -0.83430E+04
 0.20700002E+01 -0.18521E+05
 0.21199999E+01 -0.30370E+05
 0.21700001E+01 -0.43832E+05
 0.22200003E+01 -0.57652E+05
 0.22700000E+01 -0.71120E+05
 0.23200002E+01 -0.85130E+05
 0.23699999E+01 -0.98511E+05
 0.24200001E+01 -0.10912E+06
 0.24700003E+01 -0.11788E+06
 0.25200000E+01 -0.12423E+06
 0.25700002E+01 -0.12636E+06
 0.26199999E+01 -0.12503E+06
 0.26700001E+01 -0.12033E+06
 0.27200003E+01 -0.11208E+06
 0.27700000E+01 -0.10040E+06
 0.28200002E+01 -0.86671E+05
 0.28699999E+01 -0.72022E+05
 0.29200001E+01 -0.56349E+05
 0.29700003E+01 -0.40212E+05
 0.30200000E+01 -0.23638E+05
 0.30700002E+01 -0.76330E+04
 0.31199999E+01  0.66180E+04
 0.31700001E+01  0.19924E+05
 0.32200003E+01  0.33214E+05
 0.32700000E+01  0.45300E+05
 0.33200002E+01  0.55647E+05
 0.33699999E+01  0.65542E+05
 0.34200001E+01  0.74055E+05
 0.34700003E+01  0.80129E+05
 0.35200000E+01  0.83145E+05
 0.35700002E+01  0.82725E+05
 0.36199999E+01  0.80472E+05
 0.36700001E+01  0.75733E+05
 0.37200003E+01  0.68494E+05
 0.37700000E+01  0.61305E+05
 0.38200002E+01  0.53248E+05
 0.38699999E+01  0.43061E+05
 0.39200001E+01  0.31597E+05
 0.39700003E+01  0.20299E+05
 0.40200000E+01  0.10548E+05
 0.40700002E+01  0.20840E+04
 0.41199999E+01 -0.50840E+04
 0.41700001E+01 -0.10759E+05
 0.42200003E+01 -0.15406E+05
 0.42700000E+01 -0.19135E+05
 0.43200002E+01 -0.22163E+05
 0.43699999E+01 -0.25424E+05
 0.44200001E+01 -0.28973E+05
 0.44700003E+01 -0.31361E+05
 0.45200000E+01 -0.31999E+05
 0.45700002E+01 -0.31678E+05
 0.46199999E+01 -0.30735E+05
 0.46700001E+01 -0.29333E+05
 0.47200003E+01 -0.27579E+05
 0.47700000E+01 -0.24985E+05
 0.48200002E+01 -0.21997E+05
 0.48699999E+01 -0.19299E+05
 0.49200001E+01 -0.16344E+05
 0.49700003E+01 -0.12324E+05
 0.50200000E+01 -0.77110E+04
 0.50700002E+01 -0.29580E+04
 0.51200004E+01  0.25060E+04
 0.51700006E+01  0.92230E+04
 0.52199998E+01  0.16359E+05
 0.52700000E+01  0.23515E+05
 0.53200002E+01  0.31382E+05
 0.53700004E+01  0.38577E+05
 0.54200006E+01  0.45404E+05
 0.54699998E+01  0.52504E+05
 0.55200000E+01  0.58386E+05
 0.55700002E+01  0.63262E+05
 0.56200004E+01  0.66448E+05
 0.56700006E+01  0.67224E+05
 0.57199998E+01  0.66321E+05
 0.57700000E+01  0.63618E+05
 0.58200002E+01  0.60012E+05
 0.58700004E+01  0.56087E+05
 0.59200006E+01  0.51446E+05
 0.59699998E+01  0.45776E+05
 0.60200000E+01  0.37122E+05
 0.60700002E+01  0.26311E+05
 0.61200004E+01  0.16175E+05
 0.61700006E+01  0.61350E+04
 0.62199998E+01 -0.39630E+04
 0.62700000E+01 -0.11630E+05
 0.63200002E+01 -0.16465E+05
 0.63700004E+01 -0.19582E+05
 0.64200006E+01 -0.19474E+05
 0.64699998E+01 -0.16157E+05
 0.65200000E+01 -0.10365E+05
 0.65700002E+01 -0.98600E+03
 0.66200004E+01  0.10390E+05
 0.66700006E+01  0.20847E+05
 0.67199998E+01  0.29531E+05
 0.67700000E+01  0.37325E+05
 0.68200002E+01  0.44239E+05
 0.68700004E+01  0.50803E+05
 0.69200006E+01  0.57681E+05
 0.69699998E+01  0.62256E+05
 0.70200000E+01  0.64542E+05
 0.70700002E+01  0.65992E+05
 0.71200004E+01  0.65892E+05
 0.71700006E+01  0.64457E+05
 0.72199998E+01  0.61074E+05
 0.72700000E+01  0.56991E+05
 0.73200002E+01  0.53710E+05
 0.73700004E+01  0.48628E+05
 0.74200006E+01  0.42577E+05
 0.74699998E+01  0.37543E+05
 0.75200000E+01  0.32384E+05
 0.75700002E+01  0.29118E+05
 0.76200004E+01  0.27901E+05
 0.76700006E+01  0.26438E+05
 0.77199998E+01  0.24717E+05
 0.77700000E+01  0.22671E+05
 0.78200002E+01  0.22548E+05
 0.78700004E+01  0.23764E+05
 0.79200006E+01  0.23031E+05
 0.79699998E+01  0.21960E+05
 0.80200005E+01  0.21536E+05
 0.80699997E+01  0.21260E+05
 0.81200008E+01  0.21627E+05
 0.81700001E+01  0.22989E+05
 0.82199993E+01  0.25405E+05
 0.82700005E+01  0.27583E+05
 0.83199997E+01  0.28906E+05
 0.83700008E+01  0.29539E+05
 0.84200001E+01  0.28520E+05
 0.84699993E+01  0.25332E+05
 0.85200005E+01  0.20774E+05
 0.85699997E+01  0.15398E+05
 0.86200008E+01  0.91610E+04
 0.86700001E+01  0.15990E+04
 0.87199993E+01 -0.61120E+04
 0.87700005E+01 -0.13809E+05
 0.88199997E+01 -0.23473E+05
 0.88700008E+01 -0.34257E+05
 0.89200001E+01 -0.44253E+05
 0.89699993E+01 -0.52356E+05
 0.90200005E+01 -0.58663E+05
 0.90699997E+01 -0.62205E+05
 0.91200008E+01 -0.62569E+05
 0.91700001E+01 -0.61941E+05
 0.92199993E+01 -0.59856E+05
 0.92700005E+01 -0.56194E+05
 0.93199997E+01 -0.52211E+05
 0.93700008E+01 -0.47533E+05
 0.94200001E+01 -0.43270E+05
 0.94699993E+01 -0.37666E+05
 0.95200005E+01 -0.28345E+05
 0.95699997E+01 -0.17175E+05
 0.96200008E+01 -0.44110E+04
 0.96700001E+01  0.77130E+04
 0.97199993E+01  0.18413E+05
 0.97700005E+01  0.28321E+05
 0.98199997E+01  0.34607E+05
 0.98700008E+01  0.39300E+05
 0.99200001E+01  0.42623E+05
 0.99699993E+01  0.42882E+05
 0.10020000E+02  0.44544E+05
 0.10070000E+02  0.46076E+05
 0.10120001E+02  0.44616E+05
 0.10170000E+02  0.44070E+05
 0.10219999E+02  0.43363E+05
 0.10270000E+02  0.39882E+05
 0.10320000E+02  0.34335E+05
 0.10370001E+02  0.28297E+05
 0.10420000E+02  0.23080E+05
 0.10469999E+02  0.16114E+05
 0.10520000E+02  0.67020E+04
 0.10570000E+02 -0.20550E+04
 0.10620001E+02 -0.13208E+05
 0.10670000E+02 -0.25239E+05
 0.10719999E+02 -0.34115E+05
 0.10770000E+02 -0.45685E+05
 0.10820000E+02 -0.52280E+05
 0.10870001E+02 -0.59579E+05
 0.10920000E+02 -0.60849E+05
 0.10969999E+02 -0.61423E+05
 0.11020000E+02 -0.10762E+05
 0.11070000E+02  0.15001E+06
 0.11120001E+02  0.40354E+06
 0.11170000E+02  0.81484E+06
 0.11219999E+02  0.11637E+07
 0.11270000E+02  0.12727E+07
 0.11320000E+02  0.11276E+07
 0.11370001E+02  0.73778E+06
 0.11420000E+02  0.26884E+06
 0.11469999E+02 -0.43700E+03
 0.11520000E+02  0.67968E+05
 0.11570000E+02  0.80635E+05
 0.11620001E+02  0.53301E+06
 0.11670000E+02  0.11148E+07
 0.11719999E+02  0.13974E+07
 0.11770000E+02  0.20197E+07
 0.11820000E+02  0.26282E+07
 0.11870001E+02  0.31865E+07
 0.11920000E+02  0.43122E+07
 0.11969999E+02  0.59594E+07
 0.12020000E+02  0.55323E+07
 0.12070000E+02  0.47763E+07
 0.12120001E+02  0.42472E+07
 0.12170000E+02  0.18990E+07
 0.12219999E+02  0.21326E+07
 0.12270000E+02  0.10318E+07
 0.12320000E+02 -0.16461E+07
 0.12370001E+02 -0.57032E+06
 0.12420000E+02 -0.43395E+06
 0.12469999E+02  0.13020E+06
 0.12520000E+02  0.95278E+06
 0.12570000E+02 -0.10465E+07
 0.12620001E+02 -0.58043E+06
 0.12670000E+02  0.10347E+07
 0.12719999E+02 -0.28033E+05
 0.12770000E+02  0.99401E+05
 0.12820000E+02  0.80642E+06
 0.12870001E+02 -0.15787E+06
 0.12920000E+02 -0.33023E+06
 0.12969999E+02 -0.14695E+07
 0.13020000E+02 -0.28603E+07
 0.13070002E+02 -0.13431E+07
 0.13120001E+02 -0.91273E+06
 0.13170000E+02  0.98568E+05
 0.13220001E+02  0.28465E+07
 0.13270000E+02  0.27173E+07
 0.13320002E+02  0.22747E+07
 0.13370001E+02  0.27753E+07
 0.13420000E+02  0.28948E+07
 0.13470001E+02  0.17802E+07
 0.13520000E+02  0.49017E+06
 0.13570002E+02  0.44484E+06
 0.13620001E+02  0.58109E+05
 0.13670000E+02 -0.90297E+05
 0.13720001E+02  0.42670E+06
 0.13770000E+02  0.16798E+07
 0.13820002E+02  0.20701E+07
 0.13870001E+02  0.29568E+07
 0.13920000E+02  0.69103E+07
 0.13970001E+02  0.74072E+07
 0.14020000E+02  0.42434E+07
 0.14070002E+02  0.40335E+07
 0.14120001E+02  0.35194E+07
 0.14170000E+02  0.87476E+06
 0.14220001E+02  0.76012E+06
 0.14270000E+02  0.23343E+06
 0.14320002E+02 -0.20177E+07
 0.14370001E+02 -0.19173E+07
 0.14420000E+02 -0.10059E+07
 0.14470001E+02 -0.59340E+06
 0.14520000E+02 -0.20541E+07
 0.14570002E+02 -0.20679E+07
 0.14620001E+02 -0.41777E+06
 0.14670000E+02 -0.18982E+07
 0.14720001E+02 -0.29041E+07
 0.14770000E+02 -0.30006E+07
 0.14820002E+02 -0.30801E+07
 0.14870001E+02 -0.32082E+07
 0.14920000E+02 -0.25748E+07
 0.14970001E+02 -0.16877E+07
 0.15020000E+02 -0.42253E+06
 0.15070002E+02  0.34581E+07
 0.15120001E+02  0.51919E+07
 0.15170000E+02  0.49350E+07
 0.15220001E+02  0.43963E+07
 0.15270000E+02  0.40778E+07
 0.15320002E+02  0.52682E+07
 0.15370001E+02  0.52471E+07
 0.15420000E+02  0.37762E+07
 0.15470001E+02  0.26348E+07
 0.15520000E+02  0.19222E+07
 0.15570002E+02  0.72055E+06
 0.15620001E+02  0.56700E+06
 0.15670000E+02  0.89528E+06
 0.15720001E+02 -0.85389E+06
 0.15770000E+02 -0.95014E+06
 0.15820002E+02 -0.57308E+05
 0.15870001E+02 -0.11549E+07
 0.15920000E+02 -0.16731E+06
 0.15970001E+02  0.67986E+06
 0.16020000E+02  0.17770E+07
 0.16070002E+02  0.38610E+07
 0.16120001E+02  0.43322E+07
 0.16170000E+02  0.59611E+07
 0.16220001E+02  0.44736E+07
 0.16270000E+02  0.11450E+07
 0.16320002E+02  0.97697E+06
 0.16370001E+02  0.95749E+06
 0.16420000E+02 -0.27734E+06
 0.16470001E+02 -0.15824E+07
 0.16520000E+02 -0.12691E+07
 0.16570002E+02  0.44241E+06
 0.16620001E+02  0.20003E+07
 0.16670000E+02  0.22855E+07
 0.16720001E+02  0.16570E+07
 0.16770000E+02  0.19779E+07
 0.16820002E+02  0.27469E+07
 0.16870001E+02  0.19153E+07
 0.16920000E+02  0.78756E+06
 0.16970001E+02  0.11327E+07
 0.17020000E+02  0.20253E+07
 0.17070002E+02  0.12550E+07
 0.17120001E+02  0.10183E+07
 0.17170000E+02  0.36421E+07
 0.17220001E+02  0.59945E+07
 0.17270000E+02  0.71216E+07
 0.17320002E+02  0.66849E+07
 0.17370001E+02  0.67311E+07
 0.17420000E+02  0.71706E+07
 0.17470001E+02  0.47003E+07
 0.17520000E+02  0.37895E+07
 0.17570002E+02  0.40888E+07
 0.17620001E+02  0.28379E+07
 0.17670000E+02  0.33823E+07
 0.17720001E+02  0.41885E+07
 0.17770000E+02  0.17694E+07
 0.17820002E+02 -0.41293E+07
 0.17870001E+02 -0.59726E+07
 0.17920000E+02  0.19870E+07
 0.17970001E+02  0.29820E+07
 0.18020000E+02 -0.81899E+07
 0.18070002E+02 -0.75043E+07
 0.18120001E+02  0.77213E+05
 0.18170000E+02 -0.82837E+07
 0.18220001E+02 -0.16137E+08
 0.18270000E+02 -0.52655E+07
 0.18320002E+02  0.69410E+07
 0.18370001E+02  0.71081E+07
 0.18420000E+02  0.96729E+06
 0.18470001E+02 -0.45165E+07
 0.18520000E+02 -0.71336E+07
 0.18570002E+02 -0.46705E+07
 0.18620001E+02  0.29463E+07
 0.18670000E+02  0.48715E+07
 0.18720001E+02  0.42606E+07
 0.18770000E+02  0.41949E+07
 0.18820002E+02 -0.33585E+07
 0.18870001E+02 -0.58118E+07
 0.18920000E+02 -0.31986E+07
 0.18970001E+02 -0.78268E+07
 0.19020000E+02 -0.99586E+07
 0.19070002E+02 -0.80502E+07
 0.19120001E+02 -0.11040E+08
 0.19170000E+02 -0.12868E+08
 0.19220001E+02 -0.91129E+07
 0.19270000E+02 -0.59025E+07
 0.19320002E+02 -0.31593E+07
 0.19370001E+02  0.15461E+07
 0.19420000E+02  0.46451E+07
 0.19470001E+02  0.49830E+07
 0.19520000E+02  0.55660E+07
 0.19570002E+02  0.38892E+07
 0.19620001E+02 -0.82102E+06
 0.19670000E+02 -0.29299E+06
 0.19720001E+02  0.44497E+07
 0.19770000E+02  0.40514E+07
 0.19820002E+02  0.60528E+06
 0.19870001E+02  0.22619E+07
 0.19920000E+02  0.63832E+07
 0.19970001E+02  0.72001E+07
 0.20020000E+02  0.15826E+07
 0.20070002E+02 -0.65286E+07
 0.20120001E+02 -0.72837E+07
 0.20170000E+02 -0.47210E+07
 0.20220001E+02 -0.44883E+07
 0.20270000E+02 -0.65533E+07
 0.20320002E+02 -0.89190E+07
 0.20370001E+02 -0.96761E+07
 0.20420000E+02 -0.99084E+07
 0.20470001E+02 -0.82202E+07
 0.20520000E+02 -0.62161E+07
 0.20570002E+02 -0.47139E+07
 0.20620001E+02 -0.62646E+07
 0.20670000E+02 -0.69743E+07
 0.20720001E+02 -0.59925E+06
 0.20770000E+02  0.34954E+07
 0.20820002E+02  0.81798E+06
 0.20870001E+02 -0.17128E+07
 0.20920000E+02  0.58965E+06
 0.20970001E+02  0.31535E+07
 0.21020000E+02  0.28193E+07
 0.21070002E+02  0.12029E+07
 0.21120001E+02 -0.10854E+07
 0.21170000E+02 -0.57530E+06
 0.21220001E+02  0.27188E+07
 0.21270000E+02  0.53693E+07
 0.21320002E+02  0.75997E+07
 0.21370001E+02  0.97356E+07
 0.21420000E+02  0.82347E+07
 0.21470001E+02  0.42055E+07
 0.21520000E+02  0.15703E+07
 0.21570002E+02  0.88924E+05
 0.21620001E+02  0.52340E+06
 0.21670000E+02  0.28920E+07
 0.21720001E+02  0.25530E+07
 0.21770000E+02 -0.75405E+06
 0.21820002E+02 -0.34032E+07
 0.21870001E+02 -0.64343E+07
 0.21920000E+02 -0.77771E+07
 0.21970001E+02 -0.75608E+07
 0.22020000E+02 -0.11009E+08
 0.22070002E+02 -0.13670E+08
 0.22120001E+02 -0.11740E+08
 0.22170000E+02 -0.77973E+07
 0.22220001E+02 -0.44487E+07
 0.22270000E+02 -0.52233E+07
 0.22320002E+02 -0.62452E+07
 0.22370001E+02 -0.48969E+07
 0.22420000E+02 -0.27206E+07
 0.22470001E+02 -0.54843E+06
 0.22520000E+02 -0.14273E+07
 0.22570002E+02 -0.43006E+07
 0.22620001E+02 -0.66792E+07
 0.22670000E+02 -0.63142E+07
 0.22720001E+02 -0.52285E+07
 0.22770000E+02 -0.53572E+07
 0.22820002E+02 -0.41670E+07
 0.22870001E+02 -0.16338E+07
 0.22920000E+02 -0.87011E+06
 0.22970001E+02 -0.39784E+07
 0.23020000E+02 -0.45009E+07
 0.23070002E+02 -0.10751E+07
 0.23120001E+02 -0.77669E+06
 0.23170000E+02 -0.17349E+07
 0.23220001E+02 -0.18592E+07
 0.23270000E+02 -0.32510E+07
 0.23320002E+02 -0.24281E+07
 0.23370001E+02  0.32406E+05
 0.23420000E+02  0.59334E+05
 0.23470001E+02 -0.11850E+07
 0.23520000E+02 -0.16530E+06
 0.23570002E+02  0.19004E+07
 0.23620001E+02  0.52869E+06
 0.23670000E+02 -0.12381E+07
 0.23720001E+02 -0.19185E+07
 0.23770000E+02 -0.41238E+07
 0.23820002E+02 -0.64868E+07
 0.23870001E+02 -0.65064E+07
 0.23920000E+02 -0.45676E+07
 0.23970001E+02 -0.35568E+07
 0.24020000E+02 -0.32953E+07
 0.24070002E+02 -0.18765E+07
 0.24120001E+02  0.22957E+06
 0.24170000E+02  0.19990E+07
 0.24220001E+02  0.26789E+07
 0.24270000E+02  0.31023E+07
 0.24320002E+02  0.38966E+07
 0.24370001E+02  0.37601E+07
 0.24420000E+02  0.47586E+07
 0.24470001E+02  0.64496E+07
 0.24520000E+02  0.62530E+07
 0.24570002E+02  0.61702E+07
 0.24620001E+02  0.33426E+07
 0.24670000E+02 -0.27936E+07
 0.24720001E+02 -0.46938E+07
 0.24770000E+02 -0.32514E+07
 0.24820002E+02 -0.29652E+07
 0.24870001E+02 -0.15582E+07
 0.24920000E+02  0.96625E+06
 0.24970001E+02 -0.41767E+05
 0.25020000E+02 -0.27617E+07
 0.25070002E+02 -0.28817E+07
 0.25120001E+02 -0.20312E+07
 0.25170000E+02 -0.12430E+07
 0.25220001E+02 -0.21655E+07
 0.25270000E+02 -0.33225E+07
 0.25320002E+02 -0.28874E+07
 0.25370001E+02 -0.26019E+07
 0.25420000E+02 -0.16942E+07
 0.25470001E+02 -0.15339E+07
 0.25520000E+02 -0.14555E+07
 0.25570002E+02 -0.27594E+05
 0.25620001E+02  0.20814E+07
 0.25670000E+02  0.49960E+07
 0.25720001E+02  0.81122E+07
 0.25770000E+02  0.10634E+08
 0.25820002E+02  0.11251E+08
 0.25870001E+02  0.10706E+08
 0.25920000E+02  0.11603E+08
 0.25970001E+02  0.13312E+08
 0.26020000E+02  0.13406E+08
 0.26070002E+02  0.13139E+08
 0.26120001E+02  0.13465E+08
 0.26170000E+02  0.14317E+08
 0.26220001E+02  0.14966E+08
 0.26270000E+02  0.13380E+08
 0.26320002E+02  0.10982E+08
 0.26370001E+02  0.93811E+07
 0.26420000E+02  0.78056E+07
 0.26470001E+02  0.58332E+07
 0.26520000E+02  0.34919E+07
 0.26570002E+02  0.15945E+06
 0.26620001E+02 -0.28127E+07
 0.26670000E+02 -0.49826E+07
 0.26720001E+02 -0.64187E+07
 0.26770000E+02 -0.55752E+07
 0.26820002E+02 -0.49208E+07
 0.26870001E+02 -0.46745E+07
 0.26920000E+02 -0.44850E+07
 0.26970001E+02 -0.54522E+07
 0.27020000E+02 -0.52291E+07
 0.27070002E+02 -0.45184E+07
 0.27120001E+02 -0.47962E+07
 0.27170000E+02 -0.39322E+07
 0.27220001E+02 -0.85638E+06
 0.27270000E+02  0.10750E+07
 0.27320002E+02  0.60318E+06
 0.27370001E+02  0.77341E+06
 0.27420000E+02  0.19030E+07
 0.27470001E+02  0.24169E+07
 0.27520000E+02  0.31042E+07
 0.27570002E+02  0.54525E+07
 0.27620001E+02  0.70491E+07
 0.27670000E+02  0.70039E+07
 0.27720001E+02  0.71845E+07
 0.27770000E+02  0.55388E+07
 0.27820002E+02  0.22718E+07
 0.27870001E+02  0.11478E+07
 0.27920000E+02  0.88729E+06
 0.27970001E+02 -0.58492E+06
 0.28020000E+02 -0.18874E+07
 0.28070002E+02 -0.34514E+07
 0.28120001E+02 -0.44492E+07
 0.28170000E+02 -0.46163E+07
 0.28220001E+02 -0.61590E+07
 0.28270000E+02 -0.55257E+07
 0.28320002E+02 -0.22486E+07
 0.28370001E+02 -0.99628E+06
 0.28420000E+02 -0.27512E+06
 0.28470001E+02  0.92949E+06
 0.28520000E+02  0.87216E+06
 0.28570002E+02  0.51849E+06
 0.28620001E+02  0.39608E+06
 0.28670000E+02 -0.40868E+06
 0.28720001E+02 -0.10438E+07
 0.28770000E+02 -0.26179E+06
 0.28820002E+02  0.79017E+05
 0.28870001E+02 -0.64753E+06
 0.28920000E+02 -0.40734E+06
 0.28970001E+02  0.37340E+06
 0.29020000E+02 -0.22163E+05
 0.29070000E+02 -0.80591E+06
 0.29120003E+02 -0.52983E+06
 0.29170002E+02  0.11124E+06
 0.29220001E+02 -0.14063E+06
 0.29270000E+02 -0.38786E+06
 0.29320000E+02  0.10818E+07
 0.29370003E+02  0.20310E+07
 0.29420002E+02  0.13953E+07
 0.29470001E+02  0.60329E+06
 0.29520000E+02 -0.11394E+07
 0.29570000E+02 -0.22269E+07
 0.29620003E+02 -0.20282E+07
 0.29670002E+02 -0.28715E+07
 0.29720001E+02 -0.45093E+07
 0.29770000E+02 -0.61563E+07
 0.29820000E+02 -0.75099E+07
 0.29870003E+02 -0.84547E+07
 0.29920002E+02 -0.91324E+07
 0.29970001E+02 -0.92331E+07
 0.30020000E+02 -0.91175E+07
 0.30070000E+02 -0.86002E+07
 0.30120003E+02 -0.78463E+07
 0.30170002E+02 -0.66988E+07
 0.30220001E+02 -0.45431E+07
 0.30270000E+02 -0.24297E+07
 0.30320000E+02 -0.10184E+07
 0.30370003E+02  0.50106E+06
 0.30420002E+02  0.23555E+07
 0.30470001E+02  0.28764E+07
 0.30520000E+02  0.24119E+07
 0.30570000E+02  0.18757E+07
 0.30620003E+02  0.84740E+06
 0.30670002E+02  0.20890E+06
 0.30720001E+02  0.10483E+06
 0.30770000E+02  0.59354E+05
 0.30820000E+02  0.10461E+07
 0.30870003E+02  0.32456E+07
 0.30920002E+02  0.50433E+07
 0.30970001E+02  0.60934E+07
 0.31020000E+02  0.70314E+07
 0.31070000E+02  0.78140E+07
 0.31120003E+02  0.77541E+07
 0.31170002E+02  0.68085E+07
 0.31220001E+02  0.57172E+07
 0.31270000E+02  0.41430E+07
 0.31320000E+02  0.22247E+07
 0.31370003E+02  0.78169E+06
 0.31420002E+02 -0.74476E+06
 0.31470001E+02 -0.24107E+07
 0.31520000E+02 -0.32721E+07
 0.31570000E+02 -0.35520E+07
 0.31620003E+02 -0.35592E+07
 0.31670002E+02 -0.29224E+07
 0.31720001E+02 -0.23189E+07
 0.31770000E+02 -0.24015E+07
 0.31820000E+02 -0.23466E+07
 0.31870003E+02 -0.27902E+07
 0.31920002E+02 -0.37444E+07
 0.31970001E+02 -0.39845E+07
 0.32020000E+02 -0.41252E+07
 0.32070000E+02 -0.39328E+07
 0.32120003E+02 -0.27879E+07
 0.32170002E+02 -0.19031E+07
 0.32220001E+02 -0.16193E+07
 0.32270000E+02 -0.29564E+06
 0.32320000E+02  0.11735E+07
 0.32370003E+02  0.23635E+07
 0.32420002E+02  0.38698E+07
 0.32470001E+02  0.42665E+07
 0.32520000E+02  0.38081E+07
 0.32570000E+02  0.26522E+07
 0.32620003E+02  0.11164E+07
 0.32670002E+02 -0.38333E+06
 0.32720001E+02 -0.12265E+07
 0.32770000E+02 -0.45757E+06
 0.32820000E+02  0.24263E+06
 0.32870003E+02  0.65967E+06
 0.32920002E+02  0.14063E+07
 0.32970001E+02  0.19832E+07
 0.33020000E+02  0.23113E+07
 0.33070000E+02  0.20410E+07
 0.33120003E+02  0.17475E+07
 0.33170002E+02  0.15784E+07
 0.33220001E+02  0.13546E+07
 0.33270000E+02  0.15084E+07
 0.33320000E+02  0.18267E+07
 0.33370003E+02  0.21101E+07
 0.33420002E+02  0.21113E+07
 0.33470001E+02  0.16212E+07
 0.33520000E+02  0.89117E+06
 0.33570000E+02  0.52148E+06
 0.33620003E+02  0.41666E+06
 0.33670002E+02 -0.17624E+06
 0.33720001E+02 -0.85744E+06
 0.33770000E+02 -0.39630E+06
 0.33820000E+02  0.83282E+06
 0.33870003E+02  0.10139E+07
 0.33920002E+02  0.26585E+06
 0.33970001E+02 -0.44261E+06
 0.34020000E+02 -0.92778E+06
 0.34070000E+02 -0.90108E+06
 0.34120003E+02 -0.13404E+07
 0.34170002E+02 -0.23142E+07
 0.34220001E+02 -0.26154E+07
 0.34270000E+02 -0.27590E+07
 0.34320000E+02 -0.23481E+07
 0.34370003E+02 -0.76799E+06
 0.34420002E+02  0.53645E+06
 0.34470001E+02  0.81608E+06
 0.34520000E+02  0.82544E+06
 0.34570000E+02  0.94580E+06
 0.34620003E+02  0.56313E+06
 0.34670002E+02 -0.21091E+06
 0.34720001E+02 -0.46156E+06
 0.34770000E+02  0.12934E+05
 0.34820000E+02  0.69623E+05
 0.34870003E+02 -0.50032E+06
 0.34920002E+02 -0.29488E+06
 0.34970001E+02  0.93064E+05
 0.35020000E+02 -0.16342E+06
 0.35070000E+02 -0.57789E+06
 0.35120003E+02 -0.84473E+06
 0.35170002E+02 -0.93322E+06
 0.35220001E+02 -0.14643E+07
 0.35270000E+02 -0.21361E+07
 0.35320000E+02 -0.30427E+07
 0.35370003E+02 -0.42710E+07
 0.35420002E+02 -0.47464E+07
 0.35470001E+02 -0.48510E+07
 0.35520000E+02 -0.48592E+07
 0.35570000E+02 -0.46757E+07
 0.35620003E+02 -0.44037E+07
 0.35670002E+02 -0.38818E+07
 0.35720001E+02 -0.31450E+07
 0.35770000E+02 -0.19651E+07
 0.35820000E+02 -0.11322E+07
 0.35870003E+02 -0.53628E+06
 0.35920002E+02  0.12786E+07
 0.35970001E+02  0.27698E+07
 0.36020000E+02  0.31643E+07
 0.36070000E+02  0.38269E+07
 0.36120003E+02  0.44695E+07
 0.36170002E+02  0.47116E+07
 0.36220001E+02  0.42580E+07
 0.36270000E+02  0.33264E+07
 0.36320000E+02  0.23696E+07
 0.36370003E+02  0.15418E+07
 0.36420002E+02  0.82647E+06
 0.36470001E+02 -0.19879E+06
 0.36520000E+02 -0.12280E+07
 0.36570000E+02 -0.22547E+07
 0.36620003E+02 -0.34966E+07
 0.36670002E+02 -0.47958E+07
 0.36720001E+02 -0.53918E+07
 0.36770000E+02 -0.51294E+07
 0.36820000E+02 -0.46036E+07
 0.36870003E+02 -0.40207E+07
 0.36920002E+02 -0.40188E+07
 0.36970001E+02 -0.39128E+07
 0.37020000E+02 -0.28212E+07
 0.37070000E+02 -0.17177E+07
 0.37120003E+02 -0.12590E+07
 0.37170002E+02 -0.66474E+06
 0.37220001E+02 -0.15218E+06
 0.37270000E+02 -0.26106E+06
 0.37320000E+02 -0.42712E+05
 0.37370003E+02  0.10363E+06
 0.37420002E+02  0.31835E+06
 0.37470001E+02  0.10384E+07
 0.37520000E+02  0.13659E+07
 0.37570000E+02  0.16528E+07
 0.37620003E+02  0.20769E+07
 0.37670002E+02  0.27078E+07
 0.37720001E+02  0.36209E+07
 0.37770000E+02  0.43327E+07
 0.37820000E+02  0.50131E+07
 0.37870003E+02  0.58104E+07
 0.37920002E+02  0.61113E+07
 0.37970001E+02  0.54538E+07
 0.38020000E+02  0.49907E+07
 0.38070000E+02  0.47513E+07
 0.38120003E+02  0.39546E+07
 0.38170002E+02  0.37860E+07
 0.38220001E+02  0.36533E+07
 0.38270000E+02  0.30370E+07
 0.38320000E+02  0.29413E+07
 0.38370003E+02  0.25818E+07
 0.38420002E+02  0.17490E+07
 0.38470001E+02  0.96213E+06
 0.38520000E+02 -0.83797E+05
 0.38570000E+02 -0.93919E+06
 0.38620003E+02 -0.10368E+07
 0.38670002E+02 -0.11983E+07
 0.38720001E+02 -0.17232E+07
 0.38770000E+02 -0.23373E+07
 0.38820000E+02 -0.30360E+07
 0.38870003E+02 -0.34462E+07
 0.38920002E+02 -0.36161E+07
 0.38970001E+02 -0.39010E+07
 0.39020000E+02 -0.37628E+07
 0.39070000E+02 -0.27019E+07
 0.39120003E+02 -0.15627E+07
 0.39170002E+02 -0.50073E+06
 0.39220001E+02  0.58084E+06
 0.39270000E+02  0.10848E+07
 0.39320000E+02  0.12180E+07
 0.39370003E+02  0.13603E+07
 0.39420002E+02  0.16584E+07
 0.39470001E+02  0.22505E+07
 0.39520000E+02  0.32636E+07
 0.39570000E+02  0.41559E+07
 0.39620003E+02  0.44526E+07
 0.39670002E+02  0.48320E+07
 0.39720001E+02  0.49475E+07
 0.39770000E+02  0.43856E+07
 0.39820000E+02  0.37504E+07
 0.39870003E+02  0.24888E+07
 0.39920002E+02  0.12145E+07
 0.39970001E+02  0.63973E+06
 0.40020000E+02 -0.25273E+06
 0.40070000E+02 -0.76835E+06
 0.40120003E+02 -0.12539E+07
 0.40170002E+02 -0.27299E+07
 0.40220001E+02 -0.37419E+07
 0.40270000E+02 -0.39458E+07
 0.40320000E+02 -0.39094E+07
 0.40370003E+02 -0.35588E+07
 0.40420002E+02 -0.32409E+07
 0.40470001E+02 -0.32141E+07
 0.40520000E+02 -0.30634E+07
 0.40570000E+02 -0.22135E+07
 0.40620003E+02 -0.15399E+07
 0.40670002E+02 -0.15939E+07
 0.40720001E+02 -0.13996E+07
 0.40770000E+02 -0.11504E+07
 0.40820000E+02 -0.96480E+06
 0.40870003E+02 -0.51021E+06
 0.40920002E+02 -0.66679E+05
 0.40970001E+02  0.12304E+06
 0.41020000E+02  0.22672E+06
 0.41070000E+02  0.74355E+06
 0.41120003E+02  0.13719E+07
 0.41170002E+02  0.15526E+07
 0.41220001E+02  0.13264E+07
 0.41270000E+02  0.10907E+07
 0.41320000E+02  0.99995E+06
 0.41370003E+02  0.10306E+07
 0.41420002E+02  0.12594E+07
 0.41470001E+02  0.13358E+07
 0.41520000E+02  0.10744E+07
 0.41570000E+02  0.84239E+06
 0.41620003E+02  0.31633E+06
 0.41670002E+02 -0.57232E+06
 0.41720001E+02 -0.11784E+07
 0.41770000E+02 -0.12871E+07
 0.41820000E+02 -0.85472E+06
 0.41870003E+02 -0.68034E+06
 0.41920002E+02 -0.10521E+07
 0.41970001E+02 -0.12604E+07
 0.42020000E+02 -0.14113E+07
 0.42070000E+02 -0.18640E+07
 0.42120003E+02 -0.24434E+07
 0.42170002E+02 -0.29628E+07
 0.42220001E+02 -0.31490E+07
 0.42270000E+02 -0.27338E+07
 0.42320000E+02 -0.23109E+07
 0.42370003E+02 -0.21800E+07
 0.42420002E+02 -0.18398E+07
 0.42470001E+02 -0.11559E+07
 0.42520000E+02 -0.61853E+06
 0.42570000E+02 -0.25933E+06
 0.42620003E+02  0.51616E+06
 0.42670002E+02  0.16525E+07
 0.42720001E+02  0.26298E+07
 0.42770000E+02  0.32887E+07
 0.42820000E+02  0.36755E+07
 0.42870003E+02  0.38010E+07
 0.42920002E+02  0.37373E+07
 0.42970001E+02  0.35050E+07
 0.43020000E+02  0.29841E+07
 0.43070000E+02  0.24001E+07
 0.43120003E+02  0.19397E+07
 0.43170002E+02  0.12111E+07
 0.43220001E+02  0.46381E+06
 0.43270000E+02 -0.29158E+05
 0.43320000E+02 -0.52469E+06
 0.43370003E+02 -0.82312E+06
 0.43420002E+02 -0.76083E+06
 0.43470001E+02 -0.62363E+06
 0.43520000E+02 -0.76262E+06
 0.43570000E+02 -0.86852E+06
 0.43620003E+02 -0.79316E+06
 0.43670002E+02 -0.79934E+06
 0.43720001E+02 -0.99854E+06
 0.43770000E+02 -0.15396E+07
 0.43820000E+02 -0.19621E+07
 0.43870003E+02 -0.18767E+07
 0.43920002E+02 -0.16609E+07
 0.43970001E+02 -0.17043E+07
 0.44020000E+02 -0.18288E+07
 0.44070000E+02 -0.16602E+07
 0.44120003E+02 -0.14048E+07
 0.44170002E+02 -0.12511E+07
 0.44220001E+02 -0.74870E+06
 0.44270000E+02  0.86622E+05
 0.44320000E+02  0.80790E+06
 0.44370003E+02  0.13146E+07
 0.44420002E+02  0.14089E+07
 0.44470001E+02  0.13587E+07
 0.44520000E+02  0.15880E+07
 0.44570000E+02  0.20502E+07
 0.44620003E+02  0.25347E+07
 0.44670002E+02  0.28155E+07
 0.44720001E+02  0.30109E+07
 0.44770000E+02  0.32654E+07
 0.44820000E+02  0.32056E+07
 0.44870003E+02  0.23325E+07
 0.44920002E+02  0.14235E+07
 0.44970001E+02  0.11641E+07
 0.45020000E+02  0.80744E+06
 0.45070000E+02  0.11512E+06
 0.45120003E+02 -0.62623E+06
 0.45170002E+02 -0.13536E+07
 0.45220001E+02 -0.19822E+07
 0.45270000E+02 -0.25047E+07
 0.45320000E+02 -0.28276E+07
 0.45370003E+02 -0.29161E+07
 0.45420002E+02 -0.28538E+07
 0.45470001E+02 -0.26241E+07
 0.45520000E+02 -0.22513E+07
 0.45570000E+02 -0.17497E+07
 0.45620003E+02 -0.10485E+07
 0.45670002E+02 -0.23638E+06
 0.45720001E+02  0.38147E+06
 0.45770000E+02  0.99075E+06
 0.45820000E+02  0.18184E+07
 0.45870003E+02  0.24429E+07
 0.45920002E+02  0.27995E+07
 0.45970001E+02  0.30843E+07
 0.46020000E+02  0.31681E+07
 0.46070000E+02  0.30925E+07
 0.46120003E+02  0.30378E+07
 0.46170002E+02  0.26569E+07
 0.46220001E+02  0.19468E+07
 0.46270000E+02  0.16330E+07
 0.46320000E+02  0.14668E+07
 0.46370003E+02  0.10177E+07
 0.46420002E+02  0.66378E+06
 0.46470001E+02  0.28220E+06
 0.46520000E+02 -0.20745E+06
 0.46570000E+02 -0.52247E+06
 0.46620003E+02 -0.78158E+06
 0.46670002E+02 -0.10661E+07
 0.46720001E+02 -0.15477E+07
 0.46770000E+02 -0.21920E+07
 0.46820000E+02 -0.24354E+07
 0.46870003E+02 -0.22354E+07
 0.46920002E+02 -0.18261E+07
 0.46970001E+02 -0.11310E+07
 0.47020000E+02 -0.35020E+06
 0.47070000E+02  0.83527E+05
 0.47120003E+02  0.34491E+06
 0.47170002E+02  0.82190E+06
 0.47220001E+02  0.11941E+07
 0.47270000E+02  0.12087E+07
 0.47320000E+02  0.10318E+07
 0.47370003E+02  0.80510E+06
 0.47420002E+02  0.74814E+06
 0.47470001E+02  0.88861E+06
 0.47520000E+02  0.90267E+06
 0.47570000E+02  0.67109E+06
 0.47620003E+02  0.44618E+06
 0.47670002E+02  0.32255E+06
 0.47720001E+02  0.41298E+06
 0.47770000E+02  0.63461E+06
 0.47820000E+02  0.53286E+06
 0.47870003E+02  0.16795E+06
 0.47920002E+02 -0.46521E+05
 0.47970001E+02 -0.25727E+05
 0.48020000E+02 -0.19167E+06
 0.48070000E+02 -0.58858E+06
 0.48120003E+02 -0.95216E+06
 0.48170002E+02 -0.15355E+07
 0.48220001E+02 -0.22010E+07
 0.48270000E+02 -0.28420E+07
 0.48320000E+02 -0.35745E+07
 0.48370003E+02 -0.39677E+07
 0.48420002E+02 -0.39207E+07
 0.48470001E+02 -0.36381E+07
 0.48520000E+02 -0.32144E+07
 0.48570000E+02 -0.27290E+07
 0.48620003E+02 -0.22573E+07
 0.48670002E+02 -0.19782E+07
 0.48720001E+02 -0.17381E+07
 0.48770000E+02 -0.14311E+07
 0.48820000E+02 -0.11087E+07
 0.48870003E+02 -0.66080E+06
 0.48920002E+02 -0.14465E+06
 0.48970001E+02  0.41792E+06
 0.49020000E+02  0.94644E+06
 0.49070000E+02  0.12846E+07
 0.49120003E+02  0.14036E+07
 0.49170002E+02  0.12063E+07
 0.49220001E+02  0.80651E+06
 0.49270000E+02  0.57048E+06
 0.49320000E+02  0.38338E+06
 0.49370003E+02  0.21356E+06
 0.49420002E+02  0.43331E+06
 0.49470001E+02  0.78193E+06
 0.49520000E+02  0.97529E+06
 0.49570000E+02  0.12244E+07
 0.49620003E+02  0.14236E+07
 0.49670002E+02  0.13854E+07
 0.49720001E+02  0.14104E+07
 0.49770000E+02  0.14047E+07
 0.49820000E+02  0.12343E+07
 0.49870003E+02  0.13079E+07
 0.49920002E+02  0.14126E+07
 0.49970001E+02  0.12624E+07
 0.50020000E+02  0.98498E+06
 0.50070000E+02  0.70870E+06
 0.50120003E+02  0.54677E+06
 0.50170002E+02  0.49701E+06
 0.50220001E+02  0.60448E+06
 0.50270000E+02  0.72832E+06
 0.50320000E+02  0.63216E+06
 0.50370003E+02  0.54975E+06
 0.50420002E+02  0.65543E+06
 0.50470001E+02  0.59761E+06
 0.50520000E+02  0.37658E+06
 0.50570000E+02  0.17605E+06
 0.50620003E+02 -0.84104E+05
 0.50670002E+02 -0.23798E+06
 0.50720001E+02 -0.22867E+06
 0.50770000E+02 -0.13883E+06
 0.50820000E+02 -0.95640E+04
 0.50870003E+02  0.43303E+05
 0.50920002E+02  0.78339E+05
 0.50970001E+02  0.17108E+06
 0.51020000E+02  0.32029E+06
 0.51070000E+02  0.46045E+06
 0.51120003E+02  0.59184E+06
 0.51170002E+02  0.73698E+06
 0.51220001E+02  0.84998E+06
 0.51270000E+02  0.86336E+06
 0.51320000E+02  0.63705E+06
 0.51370003E+02  0.40606E+06
 0.51420002E+02  0.26078E+06
 0.51470001E+02 -0.40727E+05
 0.51520000E+02 -0.44111E+06
 0.51570000E+02 -0.96232E+06
 0.51620003E+02 -0.15813E+07
 0.51670002E+02 -0.20178E+07
 0.51720001E+02 -0.22016E+07
 0.51770000E+02 -0.22452E+07
 0.51820000E+02 -0.21179E+07
 0.51870003E+02 -0.18872E+07
 0.51920002E+02 -0.15782E+07
 0.51970001E+02 -0.11283E+07
 0.52020000E+02 -0.70446E+06
 0.52070000E+02 -0.22553E+06
 0.52120003E+02  0.33668E+06
 0.52170002E+02  0.81294E+06
 0.52220001E+02  0.11721E+07
 0.52270000E+02  0.13936E+07
 0.52320000E+02  0.14709E+07
 0.52370003E+02  0.13809E+07
 0.52420002E+02  0.12002E+07
 0.52470001E+02  0.73510E+06
 0.52520000E+02  0.35650E+05
 0.52570000E+02 -0.43680E+06
 0.52620003E+02 -0.74590E+06
 0.52670002E+02 -0.10173E+07
 0.52720001E+02 -0.12716E+07
 0.52770000E+02 -0.14276E+07
 0.52820000E+02 -0.12406E+07
 0.52870003E+02 -0.82249E+06
 0.52920002E+02 -0.44054E+06
 0.52970001E+02 -0.19486E+06
 0.53020000E+02 -0.42345E+05
 0.53070000E+02  0.36860E+04
 0.53120003E+02 -0.71206E+05
 0.53170002E+02 -0.11504E+06
 0.53220001E+02 -0.46047E+05
 0.53270000E+02  0.11984E+06
 0.53320000E+02  0.19344E+06
 0.53370003E+02  0.97157E+05
 0.53420002E+02  0.30160E+04
 0.53470001E+02 -0.57368E+05
 0.53520000E+02 -0.42721E+05
 0.53570000E+02  0.12221E+06
 0.53620003E+02  0.38676E+06
 0.53670002E+02  0.64272E+06
 0.53720001E+02  0.90805E+06
 0.53770000E+02  0.11652E+07
 0.53820000E+02  0.13256E+07
 0.53870003E+02  0.14654E+07
 0.53920002E+02  0.15818E+07
 0.53970001E+02  0.15568E+07
 0.54020000E+02  0.14197E+07
 0.54070000E+02  0.12234E+07
 0.54120003E+02  0.89246E+06
 0.54170002E+02  0.55670E+06
 0.54220001E+02  0.40760E+06
 0.54270000E+02  0.34553E+06
 0.54320000E+02  0.27606E+06
 0.54370003E+02  0.19575E+06
 0.54420002E+02  0.53062E+05
 0.54470001E+02 -0.18814E+06
 0.54520000E+02 -0.45374E+06
 0.54570000E+02 -0.57065E+06
 0.54620003E+02 -0.47317E+06
 0.54670002E+02 -0.35230E+06
 0.54720001E+02 -0.26791E+06
 0.54770000E+02 -0.19521E+06
 0.54820000E+02 -0.25261E+06
 0.54870003E+02 -0.32225E+06
 0.54920002E+02 -0.33737E+06
 0.54970001E+02 -0.38928E+06
 0.55020000E+02 -0.37631E+06
 0.55070000E+02 -0.42855E+06
 0.55120003E+02 -0.57869E+06
 0.55170002E+02 -0.48169E+06
 0.55220001E+02 -0.32848E+06
 0.55270000E+02 -0.28992E+06
 0.55320000E+02 -0.24522E+06
 0.55370003E+02 -0.32110E+06
 0.55420002E+02 -0.40807E+06
 0.55470001E+02 -0.43665E+06
 0.55520000E+02 -0.52406E+06
 0.55570000E+02 -0.61291E+06
 0.55620003E+02 -0.67800E+06
 0.55670002E+02 -0.74641E+06
 0.55720001E+02 -0.75027E+06
 0.55770000E+02 -0.73621E+06
 0.55820000E+02 -0.73800E+06
 0.55870003E+02 -0.64143E+06
 0.55920002E+02 -0.49915E+06
 0.55970001E+02 -0.30470E+06
 0.56020000E+02  0.29540E+05
 0.56070000E+02  0.28699E+06
 0.56120003E+02  0.38337E+06
 0.56170002E+02  0.53634E+06
 0.56220001E+02  0.66810E+06
 0.56270000E+02  0.66752E+06
 0.56320000E+02  0.57331E+06
 0.56370003E+02  0.35369E+06
 0.56420002E+02  0.13198E+06
 0.56470001E+02 -0.82170E+04
 0.56520000E+02 -0.17549E+06
 0.56570000E+02 -0.34570E+06
 0.56620003E+02 -0.40006E+06
 0.56670002E+02 -0.38366E+06
 0.56720001E+02 -0.32050E+06
 0.56770000E+02 -0.17657E+06
 0.56820000E+02 -0.35474E+05
 0.56870003E+02  0.13660E+05
 0.56920002E+02  0.88790E+04
 0.56970001E+02  0.81250E+04
 0.57020000E+02 -0.31775E+05
 0.57070000E+02 -0.11776E+06
 0.57120003E+02 -0.30611E+06
 0.57170002E+02 -0.58786E+06
 0.57220001E+02 -0.78631E+06
 0.57270000E+02 -0.97013E+06
 0.57320000E+02 -0.11226E+07
 0.57370003E+02 -0.10672E+07
 0.57420002E+02 -0.94704E+06
 0.57470001E+02 -0.82544E+06
 0.57520000E+02 -0.64690E+06
 0.57570000E+02 -0.48008E+06
 0.57620003E+02 -0.28469E+06
 0.57670002E+02 -0.30470E+05
 0.57720001E+02  0.18943E+06
 0.57770000E+02  0.35857E+06
 0.57820000E+02  0.52955E+06
 0.57870003E+02  0.68020E+06
 0.57920002E+02  0.82134E+06
 0.57970001E+02  0.95398E+06
 0.58020000E+02  0.10272E+07
 0.58070000E+02  0.10774E+07
 0.58120003E+02  0.97236E+06
 0.58170002E+02  0.75174E+06
 0.58220001E+02  0.73155E+06
 0.58270000E+02  0.73819E+06
 0.58320000E+02  0.55937E+06
 0.58370003E+02  0.45766E+06
 0.58420002E+02  0.47022E+06
 0.58470001E+02  0.40186E+06
 0.58520000E+02  0.36878E+06
 0.58570000E+02  0.46149E+06
 0.58620003E+02  0.48937E+06
 0.58670002E+02  0.40820E+06
 0.58720001E+02  0.40859E+06
 0.58770000E+02  0.43352E+06
 0.58820000E+02  0.42319E+06
 0.58870003E+02  0.47684E+06
 0.58920002E+02  0.45394E+06
 0.58970001E+02  0.36947E+06
 0.59020000E+02  0.34891E+06
 0.59070000E+02  0.29532E+06
 0.59120003E+02  0.17357E+06
 0.59170002E+02  0.33167E+05
 0.59220001E+02 -0.21024E+06
 0.59270000E+02 -0.51678E+06
 0.59320000E+02 -0.65576E+06
 0.59370003E+02 -0.68985E+06
 0.59420002E+02 -0.70823E+06
 0.59470001E+02 -0.63228E+06
 0.59520000E+02 -0.47987E+06
 0.59570000E+02 -0.30149E+06
 0.59620003E+02 -0.22067E+06
 0.59670002E+02 -0.22292E+06
 0.59720001E+02 -0.66777E+05
 0.59770000E+02  0.23932E+06
 0.59820000E+02  0.46177E+06
 0.59870003E+02  0.57932E+06
 0.59920002E+02  0.63969E+06
 0.59970001E+02  0.63391E+06
 0.60020000E+02  0.65563E+06
 0.60070000E+02  0.71016E+06
 0.60120003E+02  0.75737E+06
 0.60170002E+02  0.81585E+06
 0.60220001E+02  0.78215E+06
 0.60270000E+02  0.60069E+06
 0.60320000E+02  0.44936E+06
 0.60370003E+02  0.52948E+06
 0.60420002E+02  0.84817E+06
 0.60470001E+02  0.12062E+07
 0.60520000E+02  0.14690E+07
 0.60570000E+02  0.17025E+07
 0.60620003E+02  0.18476E+07
 0.60670002E+02  0.18123E+07
 0.60720001E+02  0.16669E+07
 0.60770000E+02  0.15011E+07
 0.60820000E+02  0.13705E+07
 0.60870003E+02  0.12160E+07
 0.60920002E+02  0.11278E+07
 0.60970001E+02  0.11654E+07
 0.61020000E+02  0.10466E+07
 0.61070004E+02  0.73169E+06
 0.61119999E+02  0.49147E+06
 0.61170002E+02  0.40652E+06
 0.61220005E+02  0.34873E+06
 0.61270000E+02  0.23893E+06
 0.61320004E+02  0.12186E+06
 0.61369999E+02  0.60507E+05
 0.61420002E+02  0.74810E+04
 0.61470005E+02 -0.55722E+05
 0.61520000E+02 -0.30619E+05
 0.61570004E+02  0.18215E+05
 0.61619999E+02 -0.10849E+06
 0.61670002E+02 -0.40406E+06
 0.61720005E+02 -0.67396E+06
 0.61770000E+02 -0.87937E+06
 0.61820004E+02 -0.11114E+07
 0.61869999E+02 -0.13651E+07
 0.61920002E+02 -0.15766E+07
 0.61970005E+02 -0.16816E+07
 0.62020000E+02 -0.16757E+07
 0.62070004E+02 -0.16404E+07
 0.62119999E+02 -0.16471E+07
 0.62170002E+02 -0.16156E+07
 0.62220005E+02 -0.14094E+07
 0.62270000E+02 -0.10693E+07
 0.62320004E+02 -0.69159E+06
 0.62369999E+02 -0.35588E+06
 0.62420002E+02 -0.13082E+06
 0.62470005E+02  0.12670E+05
 0.62520000E+02  0.93730E+05
 0.62570004E+02  0.13142E+06
 0.62619999E+02  0.15388E+06
 0.62670002E+02  0.21319E+06
 0.62720005E+02  0.37117E+06
 0.62770000E+02  0.50988E+06
 0.62820004E+02  0.47206E+06
 0.62869999E+02  0.33173E+06
 0.62920002E+02  0.22831E+06
 0.62970005E+02  0.12963E+06
 0.63020000E+02  0.67127E+05
 0.63070004E+02  0.13163E+06
 0.63119999E+02  0.23221E+06
 0.63170002E+02  0.30002E+06
 0.63220005E+02  0.36313E+06
 0.63270000E+02  0.36031E+06
 0.63320004E+02  0.28638E+06
 0.63369999E+02  0.23281E+06
 0.63420002E+02  0.14136E+06
 0.63470005E+02 -0.78494E+05
 0.63520000E+02 -0.40389E+06
 0.63570004E+02 -0.74652E+06
 0.63619999E+02 -0.10708E+07
 0.63670002E+02 -0.13598E+07
 0.63720005E+02 -0.15563E+07
 0.63770000E+02 -0.16993E+07
 0.63820004E+02 -0.18374E+07
 0.63869999E+02 -0.19623E+07
 0.63920002E+02 -0.20402E+07
 0.63970005E+02 -0.20901E+07
 0.64019997E+02 -0.21472E+07
 0.64070000E+02 -0.21688E+07
 0.64119995E+02 -0.20864E+07
 0.64169998E+02 -0.18499E+07
 0.64220001E+02 -0.15375E+07
 0.64269997E+02 -0.12321E+07
 0.64320000E+02 -0.90653E+06
 0.64369995E+02 -0.55956E+06
 0.64419998E+02 -0.19320E+06
 0.64470001E+02  0.21906E+06
 0.64519997E+02  0.59353E+06
 0.64570000E+02  0.84982E+06
 0.64619995E+02  0.10390E+07
 0.64669998E+02  0.11991E+07
 0.64720001E+02  0.13427E+07
 0.64769997E+02  0.14543E+07
 0.64820000E+02  0.14954E+07
 0.64869995E+02  0.14748E+07
 0.64919998E+02  0.14220E+07
 0.64970001E+02  0.12758E+07
 0.65019997E+02  0.10356E+07
 0.65070000E+02  0.83882E+06
 0.65119995E+02  0.67480E+06
 0.65169998E+02  0.52120E+06
 0.65220001E+02  0.44474E+06
 0.65269997E+02  0.43952E+06
 0.65320000E+02  0.50734E+06
 0.65369995E+02  0.69017E+06
 0.65419998E+02  0.96496E+06
 0.65470001E+02  0.12274E+07
 0.65519997E+02  0.13939E+07
 0.65570000E+02  0.14580E+07
 0.65619995E+02  0.15021E+07
 0.65669998E+02  0.15447E+07
 0.65720001E+02  0.15254E+07
 0.65769997E+02  0.14888E+07
 0.65820000E+02  0.14865E+07
 0.65869995E+02  0.14634E+07
 0.65919998E+02  0.13453E+07
 0.65970001E+02  0.10876E+07
 0.66019997E+02  0.67574E+06
 0.66070000E+02  0.21872E+06
 0.66119995E+02 -0.14691E+06
 0.66169998E+02 -0.40662E+06
 0.66220001E+02 -0.58972E+06
 0.66269997E+02 -0.69270E+06
 0.66320000E+02 -0.75108E+06
 0.66369995E+02 -0.81683E+06
 0.66419998E+02 -0.87792E+06
 0.66470001E+02 -0.90082E+06
 0.66519997E+02 -0.83068E+06
 0.66570000E+02 -0.76777E+06
 0.66619995E+02 -0.83447E+06
 0.66669998E+02 -0.95600E+06
 0.66720001E+02 -0.10313E+07
 0.66769997E+02 -0.10441E+07
 0.66820000E+02 -0.10701E+07
 0.66869995E+02 -0.10983E+07
 0.66919998E+02 -0.11170E+07
 0.66970001E+02 -0.12472E+07
 0.67019997E+02 -0.14734E+07
 0.67070000E+02 -0.16426E+07
 0.67119995E+02 -0.17232E+07
 0.67169998E+02 -0.17381E+07
 0.67220001E+02 -0.16491E+07
 0.67269997E+02 -0.14719E+07
 0.67320000E+02 -0.12791E+07
 0.67369995E+02 -0.11477E+07
 0.67419998E+02 -0.11091E+07
 0.67470001E+02 -0.10832E+07
 0.67519997E+02 -0.98750E+06
 0.67570000E+02 -0.86656E+06
 0.67619995E+02 -0.76517E+06
 0.67669998E+02 -0.63297E+06
 0.67720001E+02 -0.52307E+06
 0.67769997E+02 -0.47540E+06
 0.67820000E+02 -0.43584E+06
 0.67869995E+02 -0.38103E+06
 0.67919998E+02 -0.26603E+06
 0.67970001E+02 -0.12596E+06
 0.68019997E+02  0.91150E+04
 0.68070000E+02  0.15223E+06
 0.68119995E+02  0.30086E+06
 0.68169998E+02  0.41039E+06
 0.68220001E+02  0.43990E+06
 0.68269997E+02  0.49260E+06
 0.68320000E+02  0.60814E+06
 0.68369995E+02  0.74544E+06
 0.68419998E+02  0.86666E+06
 0.68470001E+02  0.95862E+06
 0.68519997E+02  0.10606E+07
 0.68570000E+02  0.11151E+07
 0.68619995E+02  0.10915E+07
 0.68669998E+02  0.10416E+07
 0.68720001E+02  0.99652E+06
 0.68769997E+02  0.99507E+06
 0.68820000E+02  0.98866E+06
 0.68869995E+02  0.93739E+06
 0.68919998E+02  0.85395E+06
 0.68970001E+02  0.70646E+06
 0.69019997E+02  0.50277E+06
 0.69070000E+02  0.29864E+06
 0.69119995E+02  0.18445E+06
 0.69169998E+02  0.16094E+06
 0.69220001E+02  0.18753E+06
 0.69269997E+02  0.24724E+06
 0.69320000E+02  0.24827E+06
 0.69369995E+02  0.19168E+06
 0.69419998E+02  0.12493E+06
 0.69470001E+02  0.59925E+05
 0.69519997E+02  0.30378E+05
 0.69570000E+02  0.78898E+05
 0.69619995E+02  0.26286E+06
 0.69669998E+02  0.49302E+06
 0.69720001E+02  0.66274E+06
 0.69769997E+02  0.81080E+06
 0.69820000E+02  0.90989E+06
 0.69869995E+02  0.93934E+06
 0.69919998E+02  0.94783E+06
 0.69970001E+02  0.95634E+06
 0.70019997E+02  0.10117E+07
 0.70070000E+02  0.10882E+07
 0.70119995E+02  0.11309E+07
 0.70169998E+02  0.11994E+07
 0.70220001E+02  0.13038E+07
 0.70269997E+02  0.14222E+07
 0.70320000E+02  0.15473E+07
 0.70369995E+02  0.15969E+07
 0.70419998E+02  0.15604E+07
 0.70470001E+02  0.14903E+07
 0.70519997E+02  0.14162E+07
 0.70570000E+02  0.13680E+07
 0.70619995E+02  0.12880E+07
 0.70669998E+02  0.11814E+07
 0.70720001E+02  0.11531E+07
 0.70769997E+02  0.11208E+07
 0.70820000E+02  0.10180E+07
 0.70869995E+02  0.93636E+06
 0.70919998E+02  0.84449E+06
 0.70970001E+02  0.70828E+06
 0.71019997E+02  0.54191E+06
 0.71070000E+02  0.27873E+06
 0.71119995E+02 -0.41812E+05
 0.71169998E+02 -0.31173E+06
 0.71220001E+02 -0.54280E+06
 0.71269997E+02 -0.79743E+06
 0.71320000E+02 -0.10196E+07
 0.71369995E+02 -0.10970E+07
 0.71419998E+02 -0.10711E+07
 0.71470001E+02 -0.10309E+07
 0.71519997E+02 -0.10026E+07
 0.71570000E+02 -0.97572E+06
 0.71619995E+02 -0.95360E+06
 0.71669998E+02 -0.95124E+06
 0.71720001E+02 -0.92088E+06
 0.71769997E+02 -0.85335E+06
 0.71820000E+02 -0.77159E+06
 0.71869995E+02 -0.69668E+06
 0.71919998E+02 -0.70212E+06
 0.71970001E+02 -0.78065E+06
 0.72019997E+02 -0.84364E+06
 0.72070000E+02 -0.89223E+06
 0.72119995E+02 -0.90560E+06
 0.72169998E+02 -0.83402E+06
 0.72220001E+02 -0.70519E+06
 0.72269997E+02 -0.47899E+06
 0.72320000E+02 -0.17604E+06
 0.72369995E+02  0.77054E+05
 0.72419998E+02  0.26678E+06
 0.72470001E+02  0.43865E+06
 0.72519997E+02  0.55503E+06
 0.72570000E+02  0.56635E+06
 0.72619995E+02  0.54091E+06
 0.72669998E+02  0.51678E+06
 0.72720001E+02  0.45616E+06
 0.72769997E+02  0.37726E+06
 0.72820000E+02  0.28939E+06
 0.72869995E+02  0.15953E+06
 0.72919998E+02  0.15069E+05
 0.72970001E+02 -0.38853E+05
 0.73019997E+02  0.29613E+05
 0.73070000E+02  0.13641E+06
 0.73119995E+02  0.23708E+06
 0.73169998E+02  0.32602E+06
 0.73220001E+02  0.37477E+06
 0.73269997E+02  0.36212E+06
 0.73320000E+02  0.27658E+06
 0.73369995E+02  0.13706E+06
 0.73419998E+02 -0.30171E+05
 0.73470001E+02 -0.18413E+06
 0.73519997E+02 -0.27650E+06
 0.73570000E+02 -0.32987E+06
 0.73619995E+02 -0.36344E+06
 0.73669998E+02 -0.38648E+06
 0.73720001E+02 -0.49640E+06
 0.73769997E+02 -0.69901E+06
 0.73820000E+02 -0.86646E+06
 0.73869995E+02 -0.99958E+06
 0.73919998E+02 -0.11168E+07
 0.73970001E+02 -0.11577E+07
 0.74019997E+02 -0.11543E+07
 0.74070000E+02 -0.11578E+07
 0.74119995E+02 -0.11649E+07
 0.74169998E+02 -0.11738E+07
 0.74220001E+02 -0.11985E+07
 0.74269997E+02 -0.12053E+07
 0.74320000E+02 -0.11638E+07
 0.74369995E+02 -0.11218E+07
 0.74419998E+02 -0.10542E+07
 0.74470001E+02 -0.90612E+06
 0.74519997E+02 -0.73641E+06
 0.74570000E+02 -0.60625E+06
 0.74619995E+02 -0.48156E+06
 0.74669998E+02 -0.31685E+06
 0.74720001E+02 -0.11652E+06
 0.74769997E+02  0.11632E+06
 0.74820000E+02  0.31392E+06
 0.74869995E+02  0.40474E+06
 0.74919998E+02  0.51117E+06
 0.74970001E+02  0.70498E+06
 0.75019997E+02  0.85242E+06
 0.75070000E+02  0.91049E+06
 0.75119995E+02  0.93188E+06
 0.75169998E+02  0.91216E+06
 0.75220001E+02  0.83917E+06
 0.75269997E+02  0.73053E+06
 0.75320000E+02  0.61786E+06
 0.75369995E+02  0.52004E+06
 0.75419998E+02  0.41776E+06
 0.75470001E+02  0.28983E+06
 0.75519997E+02  0.22482E+06
 0.75570000E+02  0.27377E+06
 0.75619995E+02  0.37724E+06
 0.75669998E+02  0.51299E+06
 0.75720001E+02  0.63511E+06
 0.75769997E+02  0.71192E+06
 0.75820000E+02  0.74142E+06
 0.75869995E+02  0.71274E+06
 0.75919998E+02  0.63195E+06
 0.75970001E+02  0.51560E+06
 0.76019997E+02  0.42319E+06
 0.76070000E+02  0.40193E+06
 0.76119995E+02  0.42224E+06
 0.76169998E+02  0.44808E+06
 0.76220001E+02  0.49252E+06
 0.76269997E+02  0.54010E+06
 0.76320000E+02  0.55079E+06
 0.76369995E+02  0.52144E+06
 0.76419998E+02  0.45062E+06
 0.76470001E+02  0.34212E+06
 0.76519997E+02  0.24133E+06
 0.76570000E+02  0.16626E+06
 0.76619995E+02  0.52991E+05
 0.76669998E+02 -0.14317E+06
 0.76720001E+02 -0.36586E+06
 0.76769997E+02 -0.54450E+06
 0.76820000E+02 -0.65918E+06
 0.76869995E+02 -0.73076E+06
 0.76919998E+02 -0.80572E+06
 0.76970001E+02 -0.87393E+06
 0.77019997E+02 -0.89651E+06
 0.77070000E+02 -0.86062E+06
 0.77119995E+02 -0.78691E+06
 0.77169998E+02 -0.72576E+06
 0.77220001E+02 -0.65116E+06
 0.77269997E+02 -0.52590E+06
 0.77320000E+02 -0.37782E+06
 0.77369995E+02 -0.21911E+06
 0.77419998E+02 -0.30648E+05
 0.77470001E+02  0.19698E+06
 0.77519997E+02  0.41421E+06
 0.77570000E+02  0.56996E+06
 0.77619995E+02  0.65233E+06
 0.77669998E+02  0.66426E+06
 0.77720001E+02  0.62252E+06
 0.77769997E+02  0.55127E+06
 0.77820000E+02  0.48373E+06
 0.77869995E+02  0.42667E+06
 0.77919998E+02  0.34632E+06
 0.77970001E+02  0.21656E+06
 0.78019997E+02  0.77640E+05
 0.78070000E+02 -0.54640E+05
 0.78119995E+02 -0.19057E+06
 0.78169998E+02 -0.28799E+06
 0.78220001E+02 -0.37342E+06
 0.78269997E+02 -0.45649E+06
 0.78320000E+02 -0.50124E+06
 0.78369995E+02 -0.51678E+06
 0.78419998E+02 -0.47822E+06
 0.78470001E+02 -0.39500E+06
 0.78519997E+02 -0.35312E+06
 0.78570000E+02 -0.36873E+06
 0.78619995E+02 -0.37076E+06
 0.78669998E+02 -0.35529E+06
 0.78720001E+02 -0.36682E+06
 0.78769997E+02 -0.42973E+06
 0.78820000E+02 -0.52232E+06
 0.78869995E+02 -0.58537E+06
 0.78919998E+02 -0.58163E+06
 0.78970001E+02 -0.50338E+06
 0.79019997E+02 -0.40980E+06
 0.79070000E+02 -0.32655E+06
 0.79119995E+02 -0.24603E+06
 0.79169998E+02 -0.17413E+06
 0.79220001E+02 -0.75459E+05
 0.79269997E+02  0.59248E+05
 0.79320000E+02  0.21610E+06
 0.79369995E+02  0.35186E+06
 0.79419998E+02  0.44553E+06
 0.79470001E+02  0.54185E+06
 0.79519997E+02  0.64342E+06
 0.79570000E+02  0.71066E+06
 0.79619995E+02  0.70872E+06
 0.79669998E+02  0.64582E+06
 0.79720001E+02  0.53820E+06
 0.79769997E+02  0.39802E+06
 0.79820000E+02  0.27500E+06
 0.79869995E+02  0.20340E+06
 0.79919998E+02  0.20577E+06
 0.79970001E+02  0.26979E+06
 0.80019997E+02  0.33697E+06
 0.80070000E+02  0.37329E+06
 0.80119995E+02  0.40903E+06
 0.80169998E+02  0.45725E+06
 0.80220001E+02  0.49108E+06
 0.80269997E+02  0.52294E+06
 0.80320000E+02  0.54378E+06
 0.80369995E+02  0.55207E+06
 0.80419998E+02  0.56216E+06
 0.80470001E+02  0.57186E+06
 0.80519997E+02  0.55166E+06
 0.80570000E+02  0.46202E+06
 0.80619995E+02  0.35179E+06
 0.80669998E+02  0.26581E+06
 0.80720001E+02  0.21363E+06
 0.80769997E+02  0.21001E+06
 0.80820000E+02  0.22855E+06
 0.80869995E+02  0.22887E+06
 0.80919998E+02  0.20931E+06
 0.80970001E+02  0.19464E+06
 0.81019997E+02  0.16821E+06
 0.81070000E+02  0.88384E+05
 0.81119995E+02 -0.51317E+05
 0.81169998E+02 -0.24409E+06
 0.81220001E+02 -0.47019E+06
 0.81269997E+02 -0.67865E+06
 0.81320000E+02 -0.85251E+06
 0.81369995E+02 -0.10163E+07
 0.81419998E+02 -0.11408E+07
 0.81470001E+02 -0.12024E+07
 0.81519997E+02 -0.12344E+07
 0.81570000E+02 -0.12240E+07
 0.81619995E+02 -0.11524E+07
 0.81669998E+02 -0.10349E+07
 0.81720001E+02 -0.87524E+06
 0.81769997E+02 -0.67598E+06
 0.81820000E+02 -0.45991E+06
 0.81869995E+02 -0.26854E+06
 0.81919998E+02 -0.14318E+06
 0.81970001E+02 -0.83020E+05
 0.82019997E+02 -0.18803E+05
 0.82070000E+02  0.73328E+05
 0.82119995E+02  0.14012E+06
 0.82169998E+02  0.18427E+06
 0.82220001E+02  0.25516E+06
 0.82269997E+02  0.35552E+06
 0.82320000E+02  0.44330E+06
 0.82369995E+02  0.46486E+06
 0.82419998E+02  0.40251E+06
 0.82470001E+02  0.31186E+06
 0.82519997E+02  0.26157E+06
 0.82570000E+02  0.27522E+06
 0.82619995E+02  0.35332E+06
 0.82669998E+02  0.46397E+06
 0.82720001E+02  0.58293E+06
 0.82769997E+02  0.69138E+06
 0.82820000E+02  0.71742E+06
 0.82869995E+02  0.64879E+06
 0.82919998E+02  0.50930E+06
 0.82970001E+02  0.31382E+06
 0.83019997E+02  0.13377E+06
 0.83070000E+02  0.10340E+05
 0.83119995E+02 -0.56201E+05
 0.83169998E+02 -0.70783E+05
 0.83220001E+02 -0.70126E+05
 0.83269997E+02 -0.60688E+05
 0.83320000E+02 -0.87460E+04
 0.83369995E+02  0.68009E+05
 0.83419998E+02  0.12281E+06
 0.83470001E+02  0.16131E+06
 0.83519997E+02  0.21819E+06
 0.83570000E+02  0.27590E+06
 0.83619995E+02  0.28937E+06
 0.83669998E+02  0.25440E+06
 0.83720001E+02  0.17445E+06
 0.83769997E+02  0.95188E+05
 0.83820000E+02  0.83343E+05
 0.83869995E+02  0.10329E+06
 0.83919998E+02  0.11694E+06
 0.83970001E+02  0.16867E+06
 0.84019997E+02  0.25536E+06
 0.84070000E+02  0.32602E+06
 0.84119995E+02  0.38178E+06
 0.84169998E+02  0.43551E+06
 0.84220001E+02  0.47797E+06
 0.84269997E+02  0.48643E+06
 0.84320000E+02  0.43711E+06
 0.84369995E+02  0.34513E+06
 0.84419998E+02  0.23906E+06
 0.84470001E+02  0.14551E+06
 0.84519997E+02  0.10275E+06
 0.84570000E+02  0.13449E+06
 0.84619995E+02  0.22736E+06
 0.84669998E+02  0.34581E+06
 0.84720001E+02  0.46124E+06
 0.84769997E+02  0.53454E+06
 0.84820000E+02  0.53140E+06
 0.84869995E+02  0.47565E+06
 0.84919998E+02  0.40889E+06
 0.84970001E+02  0.34244E+06
 0.85019997E+02  0.28943E+06
 0.85070000E+02  0.27344E+06
 0.85119995E+02  0.30017E+06
 0.85169998E+02  0.36913E+06
 0.85220001E+02  0.48350E+06
 0.85269997E+02  0.61510E+06
 0.85320000E+02  0.70505E+06
 0.85369995E+02  0.72948E+06
 0.85419998E+02  0.71532E+06
 0.85470001E+02  0.65868E+06
 0.85519997E+02  0.54369E+06
 0.85570000E+02  0.41655E+06
 0.85619995E+02  0.32611E+06
 0.85669998E+02  0.30316E+06
 0.85720001E+02  0.33662E+06
 0.85769997E+02  0.38280E+06
 0.85820000E+02  0.42222E+06
 0.85869995E+02  0.42347E+06
 0.85919998E+02  0.38018E+06
 0.85970001E+02  0.32416E+06
 0.86019997E+02  0.28086E+06
 0.86070000E+02  0.24991E+06
 0.86119995E+02  0.20712E+06
 0.86169998E+02  0.12536E+06
 0.86220001E+02 -0.20170E+04
 0.86269997E+02 -0.14662E+06
 0.86320000E+02 -0.29206E+06
 0.86369995E+02 -0.41777E+06
 0.86419998E+02 -0.50454E+06
 0.86470001E+02 -0.53106E+06
 0.86519997E+02 -0.45804E+06
 0.86570000E+02 -0.33996E+06
 0.86619995E+02 -0.23690E+06
 0.86669998E+02 -0.12897E+06
 0.86720001E+02 -0.32557E+05
 0.86769997E+02  0.13830E+05
 0.86820000E+02  0.12690E+05
 0.86869995E+02 -0.25529E+05
 0.86919998E+02 -0.91156E+05
 0.86970001E+02 -0.13141E+06
 0.87019997E+02 -0.15546E+06
 0.87070000E+02 -0.20708E+06
 0.87119995E+02 -0.22283E+06
 0.87169998E+02 -0.17024E+06
 0.87220001E+02 -0.85461E+05
 0.87269997E+02  0.45360E+04
 0.87320000E+02  0.60612E+05
 0.87369995E+02  0.76584E+05
 0.87419998E+02  0.87880E+05
 0.87470001E+02  0.72065E+05
 0.87519997E+02 -0.27240E+04
 0.87570000E+02 -0.95695E+05
 0.87619995E+02 -0.18740E+06
 0.87669998E+02 -0.29562E+06
 0.87720001E+02 -0.40743E+06
 0.87769997E+02 -0.49000E+06
 0.87820000E+02 -0.52374E+06
 0.87869995E+02 -0.50504E+06
 0.87919998E+02 -0.48314E+06
 0.87970001E+02 -0.50120E+06
 0.88019997E+02 -0.52519E+06
 0.88070000E+02 -0.54936E+06
 0.88119995E+02 -0.59664E+06
 0.88169998E+02 -0.66524E+06
 0.88220001E+02 -0.73842E+06
 0.88269997E+02 -0.79087E+06
 0.88320000E+02 -0.79464E+06
 0.88369995E+02 -0.73777E+06
 0.88419998E+02 -0.66703E+06
 0.88470001E+02 -0.63187E+06
 0.88519997E+02 -0.63419E+06
 0.88570000E+02 -0.65690E+06
 0.88619995E+02 -0.68768E+06
 0.88669998E+02 -0.69702E+06
 0.88720001E+02 -0.62614E+06
 0.88769997E+02 -0.47784E+06
 0.88820000E+02 -0.31691E+06
 0.88869995E+02 -0.17990E+06
 0.88919998E+02 -0.74455E+05
 0.88970001E+02  0.52100E+03
 0.89019997E+02  0.57656E+05
 0.89070000E+02  0.11048E+06
 0.89119995E+02  0.16606E+06
 0.89169998E+02  0.24974E+06
 0.89220001E+02  0.37459E+06
 0.89269997E+02  0.50875E+06
 0.89320000E+02  0.62031E+06
 0.89369995E+02  0.67691E+06
 0.89419998E+02  0.69890E+06
 0.89470001E+02  0.75158E+06
 0.89519997E+02  0.83436E+06
 0.89570000E+02  0.93140E+06
 0.89619995E+02  0.10309E+07
 0.89669998E+02  0.11025E+07
 0.89720001E+02  0.11412E+07
 0.89769997E+02  0.11535E+07
 0.89820000E+02  0.11502E+07
 0.89869995E+02  0.11504E+07
 0.89919998E+02  0.11371E+07
 0.89970001E+02  0.10878E+07
 0.90019997E+02  0.10278E+07
 0.90070000E+02  0.97640E+06
 0.90119995E+02  0.93306E+06
 0.90169998E+02  0.89943E+06
 0.90220001E+02  0.86286E+06
 0.90269997E+02  0.80882E+06
 0.90320000E+02  0.73405E+06
 0.90369995E+02  0.63210E+06
 0.90419998E+02  0.50728E+06
 0.90470001E+02  0.38924E+06
 0.90519997E+02  0.27219E+06
 0.90570000E+02  0.13931E+06
 0.90619995E+02  0.22762E+05
 0.90669998E+02 -0.79296E+05
 0.90720001E+02 -0.20720E+06
 0.90769997E+02 -0.36966E+06
 0.90820000E+02 -0.55730E+06
 0.90869995E+02 -0.74535E+06
 0.90919998E+02 -0.91890E+06
 0.90970001E+02 -0.10642E+07
 0.91019997E+02 -0.11530E+07
 0.91070000E+02 -0.11968E+07
 0.91119995E+02 -0.12007E+07
 0.91169998E+02 -0.11780E+07
 0.91220001E+02 -0.11787E+07
 0.91269997E+02 -0.11929E+07
 0.91320000E+02 -0.11826E+07
 0.91369995E+02 -0.11399E+07
 0.91419998E+02 -0.10686E+07
 0.91470001E+02 -0.97873E+06
 0.91519997E+02 -0.86290E+06
 0.91570000E+02 -0.72187E+06
 0.91619995E+02 -0.58253E+06
 0.91669998E+02 -0.46108E+06
 0.91720001E+02 -0.35602E+06
 0.91769997E+02 -0.26156E+06
 0.91820000E+02 -0.17610E+06
 0.91869995E+02 -0.10486E+06
 0.91919998E+02 -0.48292E+05
 0.91970001E+02  0.86120E+04
 0.92019997E+02  0.71895E+05
 0.92070000E+02  0.13695E+06
 0.92119995E+02  0.19437E+06
 0.92169998E+02  0.22584E+06
 0.92220001E+02  0.23769E+06
 0.92269997E+02  0.24012E+06
 0.92320000E+02  0.22672E+06
 0.92369995E+02  0.19608E+06
 0.92419998E+02  0.14812E+06
 0.92470001E+02  0.95917E+05
 0.92519997E+02  0.45180E+05
 0.92570000E+02 -0.10151E+05
 0.92619995E+02 -0.50803E+05
 0.92669998E+02 -0.69288E+05
 0.92720001E+02 -0.80687E+05
 0.92769997E+02 -0.96465E+05
 0.92820000E+02 -0.12834E+06
 0.92869995E+02 -0.14429E+06
 0.92919998E+02 -0.10701E+06
 0.92970001E+02 -0.36415E+05
 0.93019997E+02  0.52715E+05
 0.93070000E+02  0.15891E+06
 0.93119995E+02  0.27046E+06
 0.93169998E+02  0.37190E+06
 0.93220001E+02  0.45087E+06
 0.93269997E+02  0.51091E+06
 0.93320000E+02  0.55142E+06
 0.93369995E+02  0.57384E+06
 0.93419998E+02  0.59927E+06
 0.93470001E+02  0.63451E+06
 0.93519997E+02  0.66247E+06
 0.93570000E+02  0.67323E+06
 0.93619995E+02  0.66632E+06
 0.93669998E+02  0.64702E+06
 0.93720001E+02  0.61528E+06
 0.93769997E+02  0.57050E+06
 0.93820000E+02  0.52769E+06
 0.93869995E+02  0.47591E+06
 0.93919998E+02  0.40436E+06
 0.93970001E+02  0.33158E+06
 0.94019997E+02  0.26450E+06
 0.94070000E+02  0.20313E+06
 0.94119995E+02  0.13552E+06
 0.94169998E+02  0.55733E+05
 0.94220001E+02 -0.20081E+05
 0.94269997E+02 -0.91510E+05
 0.94320000E+02 -0.15055E+06
 0.94369995E+02 -0.18631E+06
 0.94419998E+02 -0.21537E+06
 0.94470001E+02 -0.24664E+06
 0.94519997E+02 -0.26380E+06
 0.94570000E+02 -0.25636E+06
 0.94619995E+02 -0.23273E+06
 0.94669998E+02 -0.18940E+06
 0.94720001E+02 -0.14242E+06
 0.94769997E+02 -0.12366E+06
 0.94820000E+02 -0.11060E+06
 0.94869995E+02 -0.70312E+05
 0.94919998E+02 -0.29248E+05
 0.94970001E+02 -0.72010E+04
 0.95019997E+02  0.19068E+05
 0.95070000E+02  0.51111E+05
 0.95119995E+02  0.67701E+05
 0.95169998E+02  0.43452E+05
 0.95220001E+02 -0.30067E+05
 0.95269997E+02 -0.12052E+06
 0.95320000E+02 -0.17836E+06
 0.95369995E+02 -0.18452E+06
 0.95419998E+02 -0.17904E+06
 0.95470001E+02 -0.20589E+06
 0.95519997E+02 -0.25176E+06
 0.95570000E+02 -0.30086E+06
 0.95619995E+02 -0.35580E+06
 0.95669998E+02 -0.38160E+06
 0.95720001E+02 -0.35420E+06
 0.95769997E+02 -0.28571E+06
 0.95820000E+02 -0.18212E+06
 0.95869995E+02 -0.74398E+05
 0.95919998E+02 -0.12553E+05
 0.95970001E+02 -0.56150E+04
 0.96019997E+02 -0.40293E+05
 0.96070000E+02 -0.10990E+06
 0.96119995E+02 -0.17930E+06
 0.96169998E+02 -0.19804E+06
 0.96220001E+02 -0.15481E+06
 0.96269997E+02 -0.71044E+05
 0.96320000E+02  0.34543E+05
 0.96369995E+02  0.15465E+06
 0.96419998E+02  0.27915E+06
 0.96470001E+02  0.38449E+06
 0.96519997E+02  0.45147E+06
 0.96570000E+02  0.47882E+06
 0.96619995E+02  0.47063E+06
 0.96669998E+02  0.44881E+06
 0.96720001E+02  0.43515E+06
 0.96769997E+02  0.42212E+06
 0.96820000E+02  0.40183E+06
 0.96869995E+02  0.37761E+06
 0.96919998E+02  0.35905E+06
 0.96970001E+02  0.35423E+06
 0.97019997E+02  0.36250E+06
 0.97070000E+02  0.36942E+06
 0.97119995E+02  0.36002E+06
 0.97169998E+02  0.35441E+06
 0.97220001E+02  0.37097E+06
 0.97269997E+02  0.40719E+06
 0.97320000E+02  0.46328E+06
 0.97369995E+02  0.52873E+06
 0.97419998E+02  0.59912E+06
 0.97470001E+02  0.67436E+06
 0.97519997E+02  0.74880E+06
 0.97570000E+02  0.80643E+06
 0.97619995E+02  0.83184E+06
 0.97669998E+02  0.83292E+06
 0.97720001E+02  0.80186E+06
 0.97769997E+02  0.74634E+06
 0.97820000E+02  0.69665E+06
 0.97869995E+02  0.64542E+06
 0.97919998E+02  0.58337E+06
 0.97970001E+02  0.52723E+06
 0.98019997E+02  0.47197E+06
 0.98070000E+02  0.40899E+06
 0.98119995E+02  0.36808E+06
 0.98169998E+02  0.34928E+06
 0.98220001E+02  0.35213E+06
 0.98269997E+02  0.37950E+06
 0.98320000E+02  0.38191E+06
 0.98369995E+02  0.34613E+06
 0.98419998E+02  0.28565E+06
 0.98470001E+02  0.19559E+06
 0.98519997E+02  0.71080E+05
 0.98570000E+02 -0.76585E+05
 0.98619995E+02 -0.21520E+06
 0.98669998E+02 -0.33726E+06
 0.98720001E+02 -0.44077E+06
 0.98769997E+02 -0.50881E+06
 0.98820000E+02 -0.55067E+06
 0.98869995E+02 -0.57201E+06
 0.98919998E+02 -0.58040E+06
 0.98970001E+02 -0.61460E+06
 0.99019997E+02 -0.67093E+06
 0.99070000E+02 -0.70380E+06
 0.99119995E+02 -0.70418E+06
 0.99169998E+02 -0.69631E+06
 0.99220001E+02 -0.67869E+06
 0.99269997E+02 -0.64528E+06
 0.99320000E+02 -0.59623E+06
 0.99369995E+02 -0.52521E+06
 0.99419998E+02 -0.47830E+06
 0.99470001E+02 -0.47561E+06
 0.99519997E+02 -0.47538E+06
 0.99570000E+02 -0.44860E+06
 0.99619995E+02 -0.35766E+06
 0.99669998E+02 -0.21382E+06
 0.99720001E+02 -0.77826E+05
 0.99769997E+02  0.41020E+05
 0.99820000E+02  0.15262E+06
 0.99869995E+02  0.24039E+06
 0.99919998E+02  0.28446E+06
 0.99970001E+02  0.28260E+06
 0.10002000E+03  0.25191E+06
 0.10007000E+03  0.20653E+06
 0.10012000E+03  0.13801E+06
 0.10017000E+03  0.57218E+05
 0.10022000E+03 -0.70020E+04
 0.10027000E+03 -0.70840E+05
 0.10032000E+03 -0.14402E+06
 0.10037000E+03 -0.20558E+06
 0.10042000E+03 -0.24730E+06
 0.10047000E+03 -0.26459E+06
 0.10052000E+03 -0.26905E+06
 0.10057000E+03 -0.27365E+06
 0.10062000E+03 -0.27353E+06
 0.10067000E+03 -0.26498E+06
 0.10072000E+03 -0.24725E+06
 0.10077000E+03 -0.21636E+06
 0.10082000E+03 -0.17180E+06
 0.10087000E+03 -0.12544E+06
 0.10092000E+03 -0.96129E+05
 0.10097000E+03 -0.97733E+05
 0.10102000E+03 -0.11173E+06
 0.10107000E+03 -0.11113E+06
 0.10112000E+03 -0.94673E+05
 0.10117000E+03 -0.68765E+05
 0.10122000E+03 -0.43120E+05
 0.10127000E+03 -0.21242E+05
 0.10132000E+03  0.13692E+05
 0.10137000E+03  0.73294E+05
 0.10142000E+03  0.14254E+06
 0.10147000E+03  0.21255E+06
 0.10152000E+03  0.29616E+06
 0.10157000E+03  0.39003E+06
 0.10162000E+03  0.46646E+06
 0.10167000E+03  0.50971E+06
 0.10172000E+03  0.52140E+06
 0.10177000E+03  0.50489E+06
 0.10182000E+03  0.47112E+06
 0.10187000E+03  0.42880E+06
 0.10192000E+03  0.36848E+06
 0.10197000E+03  0.28363E+06
 0.10202000E+03  0.18664E+06
 0.10207000E+03  0.87686E+05
 0.10212000E+03  0.89830E+04
 0.10217000E+03 -0.17067E+05
 0.10222000E+03  0.80290E+04
 0.10227000E+03  0.80975E+05
 0.10232000E+03  0.18954E+06
 0.10237000E+03  0.28275E+06
 0.10242000E+03  0.33283E+06
 0.10247000E+03  0.33884E+06
 0.10252000E+03  0.31381E+06
 0.10257000E+03  0.29400E+06
 0.10262000E+03  0.29261E+06
 0.10267000E+03  0.29216E+06
 0.10272000E+03  0.27839E+06
 0.10277000E+03  0.24386E+06
 0.10282000E+03  0.18174E+06
 0.10287000E+03  0.97185E+05
 0.10292000E+03  0.25520E+04
 0.10297000E+03 -0.88691E+05
 0.10302000E+03 -0.15597E+06
 0.10307000E+03 -0.19182E+06
 0.10312000E+03 -0.19377E+06
 0.10317000E+03 -0.16242E+06
 0.10322000E+03 -0.11012E+06
 0.10327000E+03 -0.48626E+05
 0.10332000E+03  0.97300E+04
 0.10337000E+03  0.60957E+05
 0.10342000E+03  0.93958E+05
 0.10347000E+03  0.92248E+05
 0.10352000E+03  0.55052E+05
 0.10357000E+03 -0.65530E+04
 0.10362000E+03 -0.72759E+05
 0.10367000E+03 -0.13756E+06
 0.10372000E+03 -0.19938E+06
 0.10377000E+03 -0.23448E+06
 0.10382000E+03 -0.23956E+06
 0.10387000E+03 -0.23874E+06
 0.10392000E+03 -0.24073E+06
 0.10397000E+03 -0.25054E+06
 0.10402000E+03 -0.25243E+06
 0.10407000E+03 -0.21501E+06
 0.10412000E+03 -0.13829E+06
 0.10417000E+03 -0.42745E+05
 0.10422000E+03  0.48131E+05
 0.10427000E+03  0.12600E+06
 0.10432000E+03  0.19920E+06
 0.10437000E+03  0.27173E+06
 0.10442000E+03  0.34027E+06
 0.10447000E+03  0.39973E+06
 0.10452000E+03  0.44616E+06
 0.10457000E+03  0.48466E+06
 0.10462000E+03  0.52410E+06
 0.10467000E+03  0.57268E+06
 0.10472000E+03  0.63431E+06
 0.10477000E+03  0.69044E+06
 0.10482000E+03  0.72933E+06
 0.10487000E+03  0.75717E+06
 0.10492000E+03  0.76776E+06
 0.10497000E+03  0.75338E+06
 0.10502000E+03  0.71806E+06
 0.10507000E+03  0.67944E+06
 0.10512000E+03  0.65738E+06
 0.10517000E+03  0.64807E+06
 0.10522000E+03  0.63700E+06
 0.10527000E+03  0.62036E+06
 0.10532000E+03  0.59340E+06
 0.10537000E+03  0.54372E+06
 0.10542000E+03  0.46668E+06
 0.10547000E+03  0.37497E+06
 0.10552000E+03  0.28606E+06
 0.10557000E+03  0.19831E+06
 0.10562000E+03  0.11290E+06
 0.10567000E+03  0.57727E+05
 0.10572000E+03  0.29272E+05
 0.10577000E+03  0.11870E+04
 0.10582000E+03 -0.29806E+05
 0.10587000E+03 -0.72009E+05
 0.10592000E+03 -0.12205E+06
 0.10597000E+03 -0.16585E+06
 0.10602000E+03 -0.20999E+06
 0.10607000E+03 -0.25408E+06
 0.10612000E+03 -0.28656E+06
 0.10617000E+03 -0.29825E+06
 0.10622000E+03 -0.28876E+06
 0.10627000E+03 -0.27297E+06
 0.10632000E+03 -0.27031E+06
 0.10637000E+03 -0.29399E+06
 0.10642000E+03 -0.32831E+06
 0.10647000E+03 -0.34367E+06
 0.10652000E+03 -0.33930E+06
 0.10657000E+03 -0.34233E+06
 0.10662000E+03 -0.36382E+06
 0.10667000E+03 -0.38971E+06
 0.10672000E+03 -0.42276E+06
 0.10677000E+03 -0.46052E+06
 0.10682000E+03 -0.48647E+06
 0.10687000E+03 -0.49349E+06
 0.10692000E+03 -0.48037E+06
 0.10697000E+03 -0.46480E+06
 0.10702000E+03 -0.46585E+06
 0.10707000E+03 -0.49054E+06
 0.10712000E+03 -0.53326E+06
 0.10717000E+03 -0.58908E+06
 0.10722000E+03 -0.66553E+06
 0.10727000E+03 -0.74788E+06
 0.10732000E+03 -0.81306E+06
 0.10737000E+03 -0.85710E+06
 0.10742000E+03 -0.88247E+06
 0.10747000E+03 -0.88960E+06
 0.10752000E+03 -0.88615E+06
 0.10757000E+03 -0.88274E+06
 0.10762000E+03 -0.87892E+06
 0.10767000E+03 -0.86855E+06
 0.10772000E+03 -0.83585E+06
 0.10777000E+03 -0.77018E+06
 0.10782000E+03 -0.68393E+06
 0.10787000E+03 -0.59592E+06
 0.10792000E+03 -0.51143E+06
 0.10797000E+03 -0.43402E+06
 0.10802000E+03 -0.37865E+06
 0.10807000E+03 -0.34855E+06
 0.10812000E+03 -0.34345E+06
 0.10817000E+03 -0.34663E+06
 0.10822000E+03 -0.32113E+06
 0.10827000E+03 -0.27660E+06
 0.10832000E+03 -0.22883E+06
 0.10837000E+03 -0.17440E+06
 0.10842000E+03 -0.12840E+06
 0.10847000E+03 -0.85819E+05
 0.10852000E+03 -0.30486E+05
 0.10857000E+03  0.41521E+05
 0.10862000E+03  0.12592E+06
 0.10867000E+03  0.21093E+06
 0.10872000E+03  0.30147E+06
 0.10877000E+03  0.40279E+06
 0.10882000E+03  0.50320E+06
 0.10887000E+03  0.58974E+06
 0.10892000E+03  0.65434E+06
 0.10897000E+03  0.69560E+06
 0.10902000E+03  0.71591E+06
 0.10907000E+03  0.72025E+06
 0.10912000E+03  0.70873E+06
 0.10917000E+03  0.68628E+06
 0.10922000E+03  0.65718E+06
 0.10927000E+03  0.61372E+06
 0.10932000E+03  0.56252E+06
 0.10937000E+03  0.51262E+06
 0.10942000E+03  0.46488E+06
 0.10947000E+03  0.42759E+06
 0.10952000E+03  0.41012E+06
 0.10957000E+03  0.40978E+06
 0.10962000E+03  0.42031E+06
 0.10967000E+03  0.44140E+06
 0.10972000E+03  0.46571E+06
 0.10977000E+03  0.48989E+06
 0.10982000E+03  0.50550E+06
 0.10987000E+03  0.49393E+06
 0.10992000E+03  0.45793E+06
 0.10997000E+03  0.40774E+06
 0.11002000E+03  0.35259E+06
 0.11007000E+03  0.30144E+06
 0.11012000E+03  0.24926E+06
 0.11017000E+03  0.19732E+06
 0.11022000E+03  0.15915E+06
 0.11027000E+03  0.12942E+06
 0.11032000E+03  0.10250E+06
 0.11037000E+03  0.86136E+05
 0.11042000E+03  0.70731E+05
 0.11047000E+03  0.60711E+05
 0.11052000E+03  0.68786E+05
 0.11057000E+03  0.79449E+05
 0.11062000E+03  0.85009E+05
 0.11067000E+03  0.88425E+05
 0.11072000E+03  0.84650E+05
 0.11077000E+03  0.73864E+05
 0.11082000E+03  0.66857E+05
 0.11087000E+03  0.65130E+05
 0.11092000E+03  0.65279E+05
 0.11097000E+03  0.73968E+05
 0.11102000E+03  0.88210E+05
 0.11107000E+03  0.10100E+06
 0.11112000E+03  0.11537E+06
 0.11117000E+03  0.14317E+06
 0.11122000E+03  0.19520E+06
 0.11127000E+03  0.26549E+06
 0.11132000E+03  0.34236E+06
 0.11137000E+03  0.41692E+06
 0.11142000E+03  0.47776E+06
 0.11147000E+03  0.52428E+06
 0.11152000E+03  0.56636E+06
 0.11157000E+03  0.60754E+06
 0.11162000E+03  0.64926E+06
 0.11167000E+03  0.68969E+06
 0.11172000E+03  0.72833E+06
 0.11177000E+03  0.77096E+06
 0.11182000E+03  0.81195E+06
 0.11187000E+03  0.83017E+06
 0.11192000E+03  0.81804E+06
 0.11197000E+03  0.79545E+06
 0.11202000E+03  0.77648E+06
 0.11207000E+03  0.75434E+06
 0.11212000E+03  0.71725E+06
 0.11217000E+03  0.66197E+06
 0.11222000E+03  0.59828E+06
 0.11227000E+03  0.53472E+06
 0.11232000E+03  0.46793E+06
 0.11237000E+03  0.39564E+06
 0.11242000E+03  0.32279E+06
 0.11247000E+03  0.25598E+06
 0.11252000E+03  0.19557E+06
 0.11257000E+03  0.13797E+06
 0.11262000E+03  0.82001E+05
 0.11267000E+03  0.21866E+05
 0.11272000E+03 -0.45444E+05
 0.11277000E+03 -0.12006E+06
 0.11282000E+03 -0.20173E+06
 0.11287000E+03 -0.28420E+06
 0.11292000E+03 -0.36286E+06
 0.11297000E+03 -0.43176E+06
 0.11302000E+03 -0.48595E+06
 0.11307000E+03 -0.52138E+06
 0.11312000E+03 -0.52880E+06
 0.11317000E+03 -0.51964E+06
 0.11322000E+03 -0.51535E+06
 0.11327000E+03 -0.51870E+06
 0.11332000E+03 -0.53058E+06
 0.11337000E+03 -0.53931E+06
 0.11342000E+03 -0.52702E+06
 0.11347000E+03 -0.49710E+06
 0.11352000E+03 -0.46939E+06
 0.11357000E+03 -0.46617E+06
 0.11362000E+03 -0.48842E+06
 0.11367000E+03 -0.52263E+06
 0.11372000E+03 -0.55743E+06
 0.11377000E+03 -0.58407E+06
 0.11382000E+03 -0.59254E+06
 0.11387000E+03 -0.57951E+06
 0.11392000E+03 -0.55023E+06
 0.11397000E+03 -0.50584E+06
 0.11402000E+03 -0.45227E+06
 0.11407000E+03 -0.39778E+06
 0.11412000E+03 -0.35465E+06
 0.11417000E+03 -0.33015E+06
 0.11422000E+03 -0.30805E+06
 0.11427000E+03 -0.27472E+06
 0.11432000E+03 -0.22506E+06
 0.11437000E+03 -0.15096E+06
 0.11442000E+03 -0.59954E+05
 0.11447000E+03  0.37414E+05
 0.11452000E+03  0.14022E+06
 0.11457000E+03  0.23205E+06
 0.11462000E+03  0.29403E+06
 0.11467000E+03  0.32075E+06
 0.11472000E+03  0.30898E+06
 0.11477000E+03  0.26545E+06
 0.11482000E+03  0.20545E+06
 0.11487000E+03  0.13700E+06
 0.11492000E+03  0.68232E+05
 0.11497000E+03  0.40630E+04
 0.11502000E+03 -0.62618E+05
 0.11507000E+03 -0.13060E+06
 0.11512000E+03 -0.18604E+06
 0.11517000E+03 -0.22276E+06
 0.11522000E+03 -0.24063E+06
 0.11527000E+03 -0.23722E+06
 0.11532000E+03 -0.21637E+06
 0.11537000E+03 -0.18324E+06
 0.11542000E+03 -0.14065E+06
 0.11547000E+03 -0.10189E+06
 0.11552000E+03 -0.80445E+05
 0.11557000E+03 -0.67370E+05
 0.11562000E+03 -0.54026E+05
 0.11567000E+03 -0.44756E+05
 0.11572000E+03 -0.32047E+05
 0.11577000E+03 -0.11493E+05
 0.11582000E+03  0.10860E+05
 0.11587000E+03  0.33204E+05
 0.11592000E+03  0.59161E+05
 0.11597000E+03  0.89087E+05
 0.11602000E+03  0.11240E+06
 0.11607000E+03  0.12740E+06
 0.11612000E+03  0.14170E+06
 0.11617000E+03  0.16042E+06
 0.11622000E+03  0.18950E+06
 0.11627000E+03  0.22758E+06
 0.11632000E+03  0.26970E+06
 0.11637000E+03  0.31162E+06
 0.11642000E+03  0.34680E+06
 0.11647000E+03  0.37083E+06
 0.11652000E+03  0.38304E+06
 0.11657000E+03  0.39305E+06
 0.11662000E+03  0.40578E+06
 0.11667000E+03  0.41298E+06
 0.11672000E+03  0.41474E+06
 0.11677000E+03  0.41739E+06
 0.11682000E+03  0.42242E+06
 0.11687000E+03  0.42505E+06
 0.11692000E+03  0.41676E+06
 0.11697000E+03  0.39408E+06
 0.11702000E+03  0.35865E+06
 0.11707000E+03  0.30745E+06
 0.11712000E+03  0.24279E+06
 0.11717000E+03  0.17231E+06
 0.11722000E+03  0.93867E+05
 0.11727000E+03  0.88050E+04
 0.11732000E+03 -0.71335E+05
 0.11737000E+03 -0.13332E+06
 0.11742000E+03 -0.17915E+06
 0.11747000E+03 -0.22092E+06
 0.11752000E+03 -0.25819E+06
 0.11757000E+03 -0.29064E+06
 0.11762000E+03 -0.31863E+06
 0.11767000E+03 -0.33216E+06
 0.11772000E+03 -0.32175E+06
 0.11777000E+03 -0.28574E+06
 0.11782000E+03 -0.22683E+06
 0.11787000E+03 -0.15875E+06
 0.11792000E+03 -0.90825E+05
 0.11797000E+03 -0.13854E+05
 0.11802000E+03  0.64709E+05
 0.11807000E+03  0.12488E+06
 0.11812000E+03  0.16726E+06
 0.11817000E+03  0.20491E+06
 0.11822000E+03  0.24402E+06
 0.11827000E+03  0.28819E+06
 0.11832000E+03  0.33748E+06
 0.11837000E+03  0.38590E+06
 0.11842000E+03  0.43616E+06
 0.11847000E+03  0.49095E+06
 0.11852000E+03  0.53905E+06
 0.11857000E+03  0.56656E+06
 0.11862000E+03  0.57504E+06
 0.11867000E+03  0.57372E+06
 0.11872000E+03  0.55904E+06
 0.11877000E+03  0.52604E+06
 0.11882000E+03  0.47685E+06
 0.11887000E+03  0.41589E+06
 0.11892000E+03  0.35757E+06
 0.11897000E+03  0.31209E+06
 0.11902000E+03  0.27621E+06
 0.11907000E+03  0.25035E+06
 0.11912000E+03  0.23829E+06
 0.11917000E+03  0.23285E+06
 0.11922000E+03  0.22437E+06
 0.11927000E+03  0.21136E+06
 0.11932000E+03  0.18850E+06
 0.11937000E+03  0.16034E+06
 0.11942000E+03  0.14286E+06
 0.11947000E+03  0.13582E+06
 0.11952000E+03  0.13263E+06
 0.11957000E+03  0.13699E+06
 0.11962000E+03  0.14600E+06
 0.11967000E+03  0.15115E+06
 0.11972000E+03  0.15595E+06
 0.11977000E+03  0.15837E+06
 0.11982000E+03  0.15074E+06
 0.11987000E+03  0.13438E+06
 0.11992000E+03  0.11140E+06
 0.11997000E+03  0.85973E+05
 0.12002000E+03  0.64094E+05
 0.12007000E+03  0.42840E+05
 0.12012000E+03  0.16357E+05
 0.12017000E+03 -0.99860E+04
 0.12022000E+03 -0.33714E+05
 0.12027000E+03 -0.59518E+05
 0.12032000E+03 -0.84987E+05
 0.12037000E+03 -0.10694E+06
 0.12042000E+03 -0.12125E+06
 0.12047000E+03 -0.12226E+06
 0.12052000E+03 -0.11272E+06
 0.12057000E+03 -0.97807E+05
 0.12062000E+03 -0.76247E+05
 0.12067000E+03 -0.51999E+05
 0.12072000E+03 -0.34313E+05
 0.12077000E+03 -0.27197E+05
 0.12082000E+03 -0.39190E+05
 0.12087000E+03 -0.74166E+05
 0.12092000E+03 -0.11928E+06
 0.12097000E+03 -0.16365E+06
 0.12102000E+03 -0.20541E+06
 0.12107000E+03 -0.24270E+06
 0.12112000E+03 -0.27136E+06
 0.12117000E+03 -0.28572E+06
 0.12122000E+03 -0.28816E+06
 0.12127000E+03 -0.29325E+06
 0.12132000E+03 -0.31062E+06
 0.12137000E+03 -0.34026E+06
 0.12142000E+03 -0.37742E+06
 0.12147000E+03 -0.41326E+06
 0.12152000E+03 -0.44397E+06
 0.12157000E+03 -0.46794E+06
 0.12162000E+03 -0.48072E+06
 0.12167000E+03 -0.48058E+06
 0.12172000E+03 -0.46925E+06
 0.12177000E+03 -0.44710E+06
 0.12182000E+03 -0.41331E+06
 0.12187000E+03 -0.37840E+06
 0.12192000E+03 -0.35067E+06
 0.12197000E+03 -0.31900E+06
 0.12202000E+03 -0.27969E+06
 0.12207000E+03 -0.24571E+06
 0.12212000E+03 -0.22822E+06
 0.12217000E+03 -0.22870E+06
 0.12222000E+03 -0.24192E+06
 0.12227000E+03 -0.26084E+06
 0.12232000E+03 -0.27018E+06
 0.12237000E+03 -0.26121E+06
 0.12242000E+03 -0.24432E+06
 0.12247000E+03 -0.22473E+06
 0.12252000E+03 -0.19990E+06
 0.12257000E+03 -0.17672E+06
 0.12262000E+03 -0.16570E+06
 0.12267000E+03 -0.16858E+06
 0.12272000E+03 -0.17653E+06
 0.12277000E+03 -0.17712E+06
 0.12282000E+03 -0.16818E+06
 0.12287000E+03 -0.15454E+06
 0.12292000E+03 -0.14047E+06
 0.12297000E+03 -0.12704E+06
 0.12302000E+03 -0.11295E+06
 0.12307000E+03 -0.10662E+06
 0.12312000E+03 -0.10867E+06
 0.12317000E+03 -0.10518E+06
 0.12322000E+03 -0.93846E+05
 0.12327000E+03 -0.81825E+05
 0.12332000E+03 -0.70891E+05
 0.12337000E+03 -0.56519E+05
 0.12342000E+03 -0.34449E+05
 0.12347000E+03 -0.32920E+04
 0.12352000E+03  0.33170E+05
 0.12357000E+03  0.72858E+05
 0.12362000E+03  0.12041E+06
 0.12367000E+03  0.17314E+06
 0.12372000E+03  0.22482E+06
 0.12377000E+03  0.27408E+06
 0.12382000E+03  0.31559E+06
 0.12387000E+03  0.34684E+06
 0.12392000E+03  0.37820E+06
 0.12397000E+03  0.41314E+06
 0.12402000E+03  0.44502E+06
 0.12407000E+03  0.46875E+06
 0.12412000E+03  0.47677E+06
 0.12417000E+03  0.46652E+06
 0.12422000E+03  0.44351E+06
 0.12427000E+03  0.40986E+06
 0.12432000E+03  0.36844E+06
 0.12437000E+03  0.32872E+06
 0.12442000E+03  0.29285E+06
 0.12447000E+03  0.26282E+06
 0.12452000E+03  0.24928E+06
 0.12457000E+03  0.25183E+06
 0.12462000E+03  0.25792E+06
 0.12467000E+03  0.26335E+06
 0.12472000E+03  0.27406E+06
 0.12477000E+03  0.29370E+06
 0.12482000E+03  0.32178E+06
 0.12487000E+03  0.35758E+06
 0.12492000E+03  0.39797E+06
 0.12497000E+03  0.43654E+06
 0.12502000E+03  0.46804E+06
 0.12507000E+03  0.48842E+06
 0.12512000E+03  0.49906E+06
 0.12517001E+03  0.50443E+06
 0.12521999E+03  0.51086E+06
 0.12527000E+03  0.52212E+06
 0.12532000E+03  0.53231E+06
 0.12537000E+03  0.53710E+06
 0.12542001E+03  0.53200E+06
 0.12546999E+03  0.51458E+06
 0.12552000E+03  0.48573E+06
 0.12557000E+03  0.44606E+06
 0.12562000E+03  0.40552E+06
 0.12567001E+03  0.37641E+06
 0.12571999E+03  0.36052E+06
 0.12577000E+03  0.34762E+06
 0.12582000E+03  0.32694E+06
 0.12587000E+03  0.29263E+06
 0.12592001E+03  0.24206E+06
 0.12596999E+03  0.18289E+06
 0.12602000E+03  0.12487E+06
 0.12607000E+03  0.76711E+05
 0.12612000E+03  0.47520E+05
 0.12617001E+03  0.35725E+05
 0.12621999E+03  0.35516E+05
 0.12627000E+03  0.38336E+05
 0.12632000E+03  0.37100E+05
 0.12637000E+03  0.28772E+05
 0.12642001E+03  0.69930E+04
 0.12646999E+03 -0.25476E+05
 0.12652000E+03 -0.64257E+05
 0.12657000E+03 -0.10798E+06
 0.12662000E+03 -0.14654E+06
 0.12667001E+03 -0.16938E+06
 0.12671999E+03 -0.18065E+06
 0.12677000E+03 -0.18926E+06
 0.12682000E+03 -0.19337E+06
 0.12687000E+03 -0.19981E+06
 0.12692001E+03 -0.21019E+06
 0.12696999E+03 -0.21160E+06
 0.12702000E+03 -0.20590E+06
 0.12707000E+03 -0.19796E+06
 0.12712000E+03 -0.19342E+06
 0.12717001E+03 -0.19978E+06
 0.12721999E+03 -0.21265E+06
 0.12727000E+03 -0.22734E+06
 0.12732000E+03 -0.24265E+06
 0.12737000E+03 -0.25128E+06
 0.12742001E+03 -0.24048E+06
 0.12746999E+03 -0.20762E+06
 0.12752000E+03 -0.15829E+06
 0.12757000E+03 -0.97574E+05
 0.12762000E+03 -0.44041E+05
 0.12767001E+03 -0.13269E+05
 0.12771999E+03  0.21480E+04
 0.12777000E+03  0.84920E+04
 0.12782000E+03  0.11763E+05
 0.12787000E+03  0.22509E+05
 0.12792001E+03  0.41433E+05
 0.12796999E+03  0.71304E+05
 0.12802000E+03  0.11378E+06
 0.12807001E+03  0.16124E+06
 0.12812001E+03  0.20912E+06
 0.12817001E+03  0.25388E+06
 0.12822000E+03  0.28951E+06
 0.12827000E+03  0.31326E+06
 0.12832001E+03  0.32870E+06
 0.12837001E+03  0.34236E+06
 0.12842001E+03  0.35801E+06
 0.12847000E+03  0.37746E+06
 0.12852000E+03  0.39911E+06
 0.12857001E+03  0.41474E+06
 0.12862001E+03  0.41834E+06
 0.12867001E+03  0.41238E+06
 0.12872000E+03  0.40279E+06
 0.12877000E+03  0.39227E+06
 0.12882001E+03  0.37420E+06
 0.12887001E+03  0.33954E+06
 0.12892001E+03  0.28878E+06
 0.12897000E+03  0.22595E+06
 0.12902000E+03  0.15630E+06
 0.12907001E+03  0.87959E+05
 0.12912001E+03  0.23420E+05
 0.12917001E+03 -0.37599E+05
 0.12922000E+03 -0.94734E+05
 0.12927000E+03 -0.14953E+06
 0.12932001E+03 -0.19935E+06
 0.12937001E+03 -0.23972E+06
 0.12942001E+03 -0.27053E+06
 0.12947000E+03 -0.28544E+06
 0.12952000E+03 -0.28444E+06
 0.12957001E+03 -0.28328E+06
 0.12962001E+03 -0.29142E+06
 0.12967001E+03 -0.30846E+06
 0.12972000E+03 -0.32444E+06
 0.12977000E+03 -0.33186E+06
 0.12982001E+03 -0.33433E+06
 0.12987001E+03 -0.33235E+06
 0.12992001E+03 -0.32397E+06
 0.12997000E+03 -0.30990E+06
 0.13002000E+03 -0.29376E+06
 0.13007001E+03 -0.27652E+06
 0.13012001E+03 -0.25573E+06
 0.13017001E+03 -0.23147E+06
 0.13022000E+03 -0.20336E+06
 0.13027000E+03 -0.17163E+06
 0.13032001E+03 -0.13565E+06
 0.13037001E+03 -0.89952E+05
 0.13042001E+03 -0.32254E+05
 0.13047000E+03  0.29901E+05
 0.13052000E+03  0.85768E+05
 0.13057001E+03  0.12982E+06
 0.13062001E+03  0.15920E+06
 0.13067001E+03  0.17206E+06
 0.13072000E+03  0.16828E+06
 0.13077000E+03  0.14706E+06
 0.13082001E+03  0.11559E+06
 0.13087001E+03  0.86827E+05
 0.13092001E+03  0.60216E+05
 0.13097000E+03  0.28713E+05
 0.13102000E+03 -0.11483E+05
 0.13107001E+03 -0.59663E+05
 0.13112001E+03 -0.10858E+06
 0.13117001E+03 -0.14802E+06
 0.13122000E+03 -0.16400E+06
 0.13127000E+03 -0.15851E+06
 0.13132001E+03 -0.14242E+06
 0.13137001E+03 -0.11813E+06
 0.13142001E+03 -0.95445E+05
 0.13147000E+03 -0.82234E+05
 0.13152000E+03 -0.78202E+05
 0.13157001E+03 -0.75889E+05
 0.13162001E+03 -0.63568E+05
 0.13167001E+03 -0.35273E+05
 0.13172000E+03  0.10965E+05
 0.13177000E+03  0.64168E+05
 0.13182001E+03  0.10844E+06
 0.13187001E+03  0.13947E+06
 0.13192001E+03  0.15572E+06
 0.13197000E+03  0.15970E+06
 0.13202000E+03  0.15929E+06
 0.13207001E+03  0.15850E+06
 0.13212001E+03  0.15930E+06
 0.13217001E+03  0.15993E+06
 0.13222000E+03  0.15718E+06
 0.13227000E+03  0.15223E+06
 0.13232001E+03  0.14927E+06
 0.13237001E+03  0.14809E+06
 0.13242001E+03  0.14053E+06
 0.13247000E+03  0.12418E+06
 0.13252000E+03  0.10092E+06
 0.13257001E+03  0.70369E+05
 0.13262001E+03  0.33494E+05
 0.13267001E+03 -0.77160E+04
 0.13272000E+03 -0.41996E+05
 0.13277000E+03 -0.61117E+05
 0.13282001E+03 -0.71815E+05
 0.13287001E+03 -0.73870E+05
 0.13292001E+03 -0.63641E+05
 0.13297000E+03 -0.47294E+05
 0.13302000E+03 -0.30316E+05
 0.13307001E+03 -0.15145E+05
 0.13312001E+03 -0.21840E+04
 0.13317001E+03  0.58570E+04
 0.13322000E+03  0.87340E+04
 0.13327000E+03  0.12844E+05
 0.13332001E+03  0.16961E+05
 0.13337001E+03  0.23346E+05
 0.13342001E+03  0.35848E+05
 0.13347000E+03  0.46493E+05
 0.13352000E+03  0.52534E+05
 0.13357001E+03  0.53282E+05
 0.13362001E+03  0.47810E+05
 0.13367001E+03  0.43837E+05
 0.13372000E+03  0.46256E+05
 0.13377000E+03  0.51683E+05
 0.13382001E+03  0.57962E+05
 0.13387001E+03  0.67845E+05
 0.13392001E+03  0.78870E+05
 0.13397000E+03  0.83209E+05
 0.13402000E+03  0.77013E+05
 0.13407001E+03  0.59806E+05
 0.13412001E+03  0.33446E+05
 0.13417001E+03  0.34800E+03
 0.13422000E+03 -0.38556E+05
 0.13427000E+03 -0.79475E+05
 0.13432001E+03 -0.11675E+06
 0.13437001E+03 -0.14942E+06
 0.13442001E+03 -0.17961E+06
 0.13447000E+03 -0.20923E+06
 0.13452000E+03 -0.23842E+06
 0.13457001E+03 -0.26436E+06
 0.13462001E+03 -0.28818E+06
 0.13467001E+03 -0.31363E+06
 0.13472000E+03 -0.33694E+06
 0.13477000E+03 -0.35534E+06
 0.13482001E+03 -0.37047E+06
 0.13487001E+03 -0.37453E+06
 0.13492001E+03 -0.35665E+06
 0.13497000E+03 -0.31413E+06
 0.13502000E+03 -0.25049E+06
 0.13507001E+03 -0.17407E+06
 0.13512001E+03 -0.93524E+05
 0.13517001E+03 -0.13772E+05
 0.13522000E+03  0.62990E+05
 0.13527000E+03  0.13627E+06
 0.13532001E+03  0.20495E+06
 0.13537001E+03  0.27024E+06
 0.13542001E+03  0.33773E+06
 0.13547000E+03  0.40598E+06
 0.13552000E+03  0.47109E+06
 0.13557001E+03  0.53654E+06
 0.13562001E+03  0.60149E+06
 0.13567001E+03  0.65906E+06
 0.13572000E+03  0.70504E+06
 0.13577000E+03  0.73712E+06
 0.13582001E+03  0.75369E+06
 0.13587001E+03  0.75743E+06
 0.13592001E+03  0.75596E+06
 0.13597000E+03  0.76046E+06
 0.13602000E+03  0.77457E+06
 0.13607001E+03  0.78709E+06
 0.13612001E+03  0.79070E+06
 0.13617001E+03  0.78535E+06
 0.13622000E+03  0.76757E+06
 0.13627000E+03  0.73867E+06
 0.13632001E+03  0.70335E+06
 0.13637001E+03  0.66213E+06
 0.13642001E+03  0.61801E+06
 0.13647000E+03  0.57003E+06
 0.13652000E+03  0.51028E+06
 0.13657001E+03  0.44378E+06
 0.13662001E+03  0.38256E+06
 0.13667001E+03  0.32813E+06
 0.13672000E+03  0.28132E+06
 0.13677000E+03  0.24362E+06
 0.13682001E+03  0.21310E+06
 0.13687001E+03  0.18750E+06
 0.13692001E+03  0.16167E+06
 0.13697000E+03  0.13100E+06
 0.13702000E+03  0.97821E+05
 0.13707001E+03  0.71501E+05
 0.13712001E+03  0.55084E+05
 0.13717001E+03  0.43972E+05
 0.13722000E+03  0.33487E+05
 0.13727000E+03  0.15208E+05
 0.13732001E+03 -0.14074E+05
 0.13737001E+03 -0.51122E+05
 0.13742001E+03 -0.94910E+05
 0.13747000E+03 -0.14566E+06
 0.13752000E+03 -0.19754E+06
 0.13757001E+03 -0.23877E+06
 0.13762001E+03 -0.26496E+06
 0.13767001E+03 -0.27864E+06
 0.13772000E+03 -0.28655E+06
 0.13777000E+03 -0.29491E+06
 0.13782001E+03 -0.29835E+06
 0.13787001E+03 -0.29649E+06
 0.13792001E+03 -0.29539E+06
 0.13797000E+03 -0.29048E+06
 0.13802000E+03 -0.27534E+06
 0.13807001E+03 -0.25204E+06
 0.13812001E+03 -0.22524E+06
 0.13817001E+03 -0.19378E+06
 0.13822000E+03 -0.15805E+06
 0.13827000E+03 -0.12103E+06
 0.13832001E+03 -0.86743E+05
 0.13837001E+03 -0.63903E+05
 0.13842001E+03 -0.52685E+05
 0.13847000E+03 -0.45461E+05
 0.13852000E+03 -0.40128E+05
 0.13857001E+03 -0.36417E+05
 0.13862001E+03 -0.33062E+05
 0.13867001E+03 -0.27942E+05
 0.13872000E+03 -0.20446E+05
 0.13877000E+03 -0.12691E+05
 0.13882001E+03 -0.49010E+04
 0.13887001E+03 -0.11510E+04
 0.13892001E+03 -0.53620E+04
 0.13897000E+03 -0.14875E+05
 0.13902000E+03 -0.29822E+05
 0.13907001E+03 -0.53703E+05
 0.13912001E+03 -0.88957E+05
 0.13917001E+03 -0.13496E+06
 0.13922000E+03 -0.18338E+06
 0.13927000E+03 -0.22386E+06
 0.13932001E+03 -0.25452E+06
 0.13937001E+03 -0.27837E+06
 0.13942001E+03 -0.29840E+06
 0.13947000E+03 -0.31847E+06
 0.13952000E+03 -0.34128E+06
 0.13957001E+03 -0.36913E+06
 0.13962001E+03 -0.40290E+06
 0.13967001E+03 -0.43574E+06
 0.13972000E+03 -0.45693E+06
 0.13977000E+03 -0.46113E+06
 0.13982001E+03 -0.44731E+06
 0.13987001E+03 -0.41558E+06
 0.13992001E+03 -0.37013E+06
 0.13997000E+03 -0.31730E+06
 0.14002000E+03 -0.26085E+06
 0.14007001E+03 -0.20586E+06
 0.14012001E+03 -0.15775E+06
 0.14017001E+03 -0.11276E+06
 0.14022000E+03 -0.66389E+05
 0.14027000E+03 -0.17599E+05
 0.14032001E+03  0.33998E+05
 0.14037001E+03  0.81675E+05
 0.14042001E+03  0.12519E+06
 0.14047000E+03  0.16816E+06
 0.14052000E+03  0.20890E+06
 0.14057001E+03  0.24812E+06
 0.14062001E+03  0.28501E+06
 0.14067001E+03  0.32180E+06
 0.14072000E+03  0.35896E+06
 0.14077000E+03  0.38972E+06
 0.14082001E+03  0.41614E+06
 0.14087001E+03  0.44272E+06
 0.14092001E+03  0.46487E+06
 0.14097000E+03  0.47997E+06
 0.14102000E+03  0.49100E+06
 0.14107001E+03  0.50208E+06
 0.14112001E+03  0.51451E+06
 0.14117001E+03  0.52547E+06
 0.14122000E+03  0.52811E+06
 0.14127000E+03  0.51492E+06
 0.14132001E+03  0.48787E+06
 0.14137001E+03  0.45147E+06
 0.14142001E+03  0.40908E+06
 0.14147000E+03  0.37022E+06
 0.14152000E+03  0.34122E+06
 0.14157001E+03  0.31923E+06
 0.14162001E+03  0.29576E+06
 0.14167001E+03  0.26853E+06
 0.14172000E+03  0.24057E+06
 0.14177000E+03  0.20409E+06
 0.14182001E+03  0.15513E+06
 0.14187001E+03  0.99446E+05
 0.14192001E+03  0.41636E+05
 0.14197000E+03 -0.14829E+05
 0.14202000E+03 -0.69091E+05
 0.14207001E+03 -0.11833E+06
 0.14212001E+03 -0.16171E+06
 0.14217001E+03 -0.20155E+06
 0.14222000E+03 -0.23372E+06
 0.14227000E+03 -0.25743E+06
 0.14232001E+03 -0.27687E+06
 0.14237001E+03 -0.29314E+06
 0.14242001E+03 -0.30676E+06
 0.14247000E+03 -0.31631E+06
 0.14252000E+03 -0.32335E+06
 0.14257001E+03 -0.32998E+06
 0.14262001E+03 -0.33651E+06
 0.14267001E+03 -0.34801E+06
 0.14272000E+03 -0.36578E+06
 0.14277000E+03 -0.38547E+06
 0.14282001E+03 -0.40485E+06
 0.14287001E+03 -0.42388E+06
 0.14292001E+03 -0.44244E+06
 0.14297000E+03 -0.45846E+06
 0.14302000E+03 -0.47096E+06
 0.14307001E+03 -0.47861E+06
 0.14312001E+03 -0.47692E+06
 0.14317001E+03 -0.46616E+06
 0.14322000E+03 -0.44613E+06
 0.14327000E+03 -0.41307E+06
 0.14332001E+03 -0.37125E+06
 0.14337001E+03 -0.32839E+06
 0.14342001E+03 -0.29114E+06
 0.14347000E+03 -0.26364E+06
 0.14352000E+03 -0.24155E+06
 0.14357001E+03 -0.22292E+06
 0.14362001E+03 -0.20730E+06
 0.14367001E+03 -0.18952E+06
 0.14372000E+03 -0.16623E+06
 0.14377000E+03 -0.13684E+06
 0.14382001E+03 -0.10822E+06
 0.14387001E+03 -0.88714E+05
 0.14392001E+03 -0.80571E+05
 0.14397000E+03 -0.78619E+05
 0.14402000E+03 -0.73703E+05
 0.14407001E+03 -0.67415E+05
 0.14412001E+03 -0.59487E+05
 0.14417001E+03 -0.45288E+05
 0.14422000E+03 -0.27501E+05
 0.14427000E+03 -0.44060E+04
 0.14432001E+03  0.20354E+05
 0.14437001E+03  0.43727E+05
 0.14442001E+03  0.70813E+05
 0.14447000E+03  0.96248E+05
 0.14452000E+03  0.11588E+06
 0.14457001E+03  0.13241E+06
 0.14462001E+03  0.14572E+06
 0.14467001E+03  0.15593E+06
 0.14472000E+03  0.16652E+06
 0.14477000E+03  0.17835E+06
 0.14482001E+03  0.18988E+06
 0.14487001E+03  0.20471E+06
 0.14492001E+03  0.22390E+06
 0.14497000E+03  0.24278E+06
 0.14502000E+03  0.25564E+06
 0.14507001E+03  0.25927E+06
 0.14512001E+03  0.25492E+06
 0.14517001E+03  0.24466E+06
 0.14522000E+03  0.23183E+06
 0.14527000E+03  0.22123E+06
 0.14532001E+03  0.21579E+06
 0.14537001E+03  0.21174E+06
 0.14542001E+03  0.20718E+06
 0.14547000E+03  0.20656E+06
 0.14552000E+03  0.20951E+06
 0.14557001E+03  0.21495E+06
 0.14562001E+03  0.22501E+06
 0.14567001E+03  0.23916E+06
 0.14572000E+03  0.25402E+06
 0.14577000E+03  0.26737E+06
 0.14582001E+03  0.27858E+06
 0.14587001E+03  0.28679E+06
 0.14592001E+03  0.29277E+06
 0.14597000E+03  0.29823E+06
 0.14602000E+03  0.30448E+06
 0.14607001E+03  0.31084E+06
 0.14612001E+03  0.31105E+06
 0.14617001E+03  0.30161E+06
 0.14622000E+03  0.28870E+06
 0.14627000E+03  0.27987E+06
 0.14632001E+03  0.28071E+06
 0.14637001E+03  0.29532E+06
 0.14642001E+03  0.32064E+06
 0.14647000E+03  0.35255E+06
 0.14652000E+03  0.39071E+06
 0.14657001E+03  0.42798E+06
 0.14662001E+03  0.45557E+06
 0.14667001E+03  0.47365E+06
 0.14672000E+03  0.48395E+06
 0.14677000E+03  0.48432E+06
 0.14682001E+03  0.47450E+06
 0.14687001E+03  0.45910E+06
 0.14692001E+03  0.44046E+06
 0.14697000E+03  0.41623E+06
 0.14702000E+03  0.38596E+06
 0.14707001E+03  0.35549E+06
 0.14712001E+03  0.32943E+06
 0.14717001E+03  0.30601E+06
 0.14722000E+03  0.28606E+06
 0.14727000E+03  0.27202E+06
 0.14732001E+03  0.26376E+06
 0.14737001E+03  0.26038E+06
 0.14742001E+03  0.25778E+06
 0.14747000E+03  0.25313E+06
 0.14752000E+03  0.24399E+06
 0.14757001E+03  0.22440E+06
 0.14762001E+03  0.19655E+06
 0.14767001E+03  0.16522E+06
 0.14772000E+03  0.13042E+06
 0.14777000E+03  0.98253E+05
 0.14782001E+03  0.72651E+05
 0.14787001E+03  0.49985E+05
 0.14792001E+03  0.30030E+05
 0.14797000E+03  0.14262E+05
 0.14802000E+03  0.19180E+04
 0.14807001E+03 -0.65520E+04
 0.14812001E+03 -0.13711E+05
 0.14817001E+03 -0.24097E+05
 0.14822000E+03 -0.36869E+05
 0.14827000E+03 -0.51351E+05
 0.14832001E+03 -0.70478E+05
 0.14837001E+03 -0.98505E+05
 0.14842001E+03 -0.13634E+06
 0.14847000E+03 -0.17893E+06
 0.14852000E+03 -0.22160E+06
 0.14857001E+03 -0.26225E+06
 0.14862001E+03 -0.29717E+06
 0.14867001E+03 -0.32373E+06
 0.14872000E+03 -0.34350E+06
 0.14877000E+03 -0.35525E+06
 0.14882001E+03 -0.35705E+06
 0.14887001E+03 -0.34899E+06
 0.14892001E+03 -0.32970E+06
 0.14897000E+03 -0.30113E+06
 0.14902000E+03 -0.26769E+06
 0.14907001E+03 -0.23359E+06
 0.14912001E+03 -0.20259E+06
 0.14917001E+03 -0.17569E+06
 0.14922000E+03 -0.15076E+06
 0.14927000E+03 -0.12434E+06
 0.14932001E+03 -0.94656E+05
 0.14937001E+03 -0.60921E+05
 0.14942001E+03 -0.21012E+05
 0.14947000E+03  0.25172E+05
 0.14952000E+03  0.72116E+05
 0.14957001E+03  0.11336E+06
 0.14962001E+03  0.14720E+06
 0.14967001E+03  0.17400E+06
 0.14972000E+03  0.19205E+06
 0.14977000E+03  0.20189E+06
 0.14982001E+03  0.21014E+06
 0.14987001E+03  0.22278E+06
 0.14992001E+03  0.24118E+06
 0.14997000E+03  0.26425E+06
