-0.29800000E+01 -0.55828E+05
-0.29300001E+01 -0.58753E+05
-0.28800001E+01 -0.60301E+05
-0.28299999E+01 -0.59339E+05
-0.27800000E+01 -0.55867E+05
-0.27300000E+01 -0.50418E+05
-0.26800001E+01 -0.43319E+05
-0.26300001E+01 -0.35258E+05
-0.25799999E+01 -0.27628E+05
-0.25300000E+01 -0.21532E+05
-0.24800000E+01 -0.17910E+05
-0.24300001E+01 -0.16943E+05
-0.23800001E+01 -0.18511E+05
-0.23299999E+01 -0.21311E+05
-0.22800000E+01 -0.23956E+05
-0.22300000E+01 -0.25141E+05
-0.21800001E+01 -0.24289E+05
-0.21300001E+01 -0.22819E+05
-0.20799999E+01 -0.22390E+05
-0.20300000E+01 -0.25446E+05
-0.19800000E+01 -0.31238E+05
-0.19299999E+01 -0.37573E+05
-0.18800000E+01 -0.43912E+05
-0.18300000E+01 -0.49336E+05
-0.17800000E+01 -0.52370E+05
-0.17300000E+01 -0.54260E+05
-0.16799999E+01 -0.55308E+05
-0.16300000E+01 -0.54754E+05
-0.15800000E+01 -0.54709E+05
-0.15300000E+01 -0.54433E+05
-0.14800000E+01 -0.53837E+05
-0.14299999E+01 -0.53615E+05
-0.13800000E+01 -0.52698E+05
-0.13300000E+01 -0.49158E+05
-0.12800000E+01 -0.42660E+05
-0.12300000E+01 -0.34391E+05
-0.11799999E+01 -0.24558E+05
-0.11300000E+01 -0.14499E+05
-0.10800000E+01 -0.26120E+04
-0.10300000E+01  0.12082E+05
-0.98000002E+00  0.27095E+05
-0.93000007E+00  0.41574E+05
-0.87999988E+00  0.55201E+05
-0.82999992E+00  0.66452E+05
-0.77999997E+00  0.74125E+05
-0.73000002E+00  0.79913E+05
-0.68000007E+00  0.85396E+05
-0.62999988E+00  0.91437E+05
-0.57999992E+00  0.98668E+05
-0.52999997E+00  0.10479E+06
-0.48000002E+00  0.10877E+06
-0.43000007E+00  0.11032E+06
-0.37999988E+00  0.10903E+06
-0.32999992E+00  0.10609E+06
-0.27999997E+00  0.10285E+06
-0.23000002E+00  0.10064E+06
-0.18000007E+00  0.98167E+05
-0.12999988E+00  0.93953E+05
-0.79999924E-01  0.87726E+05
-0.29999971E-01  0.79639E+05
 0.19999981E-01  0.70093E+05
 0.69999933E-01  0.59856E+05
 0.12000012E+00  0.51454E+05
 0.17000008E+00  0.45408E+05
 0.22000003E+00  0.40020E+05
 0.26999998E+00  0.33451E+05
 0.31999993E+00  0.26238E+05
 0.37000012E+00  0.19508E+05
 0.42000008E+00  0.11673E+05
 0.47000003E+00  0.30690E+04
 0.51999998E+00 -0.55170E+04
 0.56999993E+00 -0.14289E+05
 0.62000012E+00 -0.22661E+05
 0.67000008E+00 -0.29857E+05
 0.72000003E+00 -0.34902E+05
 0.76999998E+00 -0.38698E+05
 0.81999993E+00 -0.43080E+05
 0.87000012E+00 -0.47948E+05
 0.92000008E+00 -0.52347E+05
 0.97000003E+00 -0.55153E+05
 0.10200000E+01 -0.55242E+05
 0.10700002E+01 -0.52265E+05
 0.11199999E+01 -0.46443E+05
 0.11700001E+01 -0.39595E+05
 0.12200003E+01 -0.33319E+05
 0.12700000E+01 -0.27350E+05
 0.13200002E+01 -0.21921E+05
 0.13699999E+01 -0.16250E+05
 0.14200001E+01 -0.84710E+04
 0.14700003E+01 -0.34400E+03
 0.15200000E+01  0.53540E+04
 0.15700002E+01  0.83150E+04
 0.16199999E+01  0.90630E+04
 0.16700001E+01  0.84810E+04
 0.17200003E+01  0.75150E+04
 0.17700000E+01  0.65500E+04
 0.18200002E+01  0.55390E+04
 0.18699999E+01  0.50080E+04
 0.19200001E+01  0.46640E+04
 0.19700003E+01  0.37870E+04
 0.20200000E+01  0.22650E+04
 0.20700002E+01 -0.12600E+03
 0.21199999E+01 -0.21460E+04
 0.21700001E+01 -0.20940E+04
 0.22200003E+01  0.54100E+03
 0.22700000E+01  0.50940E+04
 0.23200002E+01  0.94910E+04
 0.23699999E+01  0.12866E+05
 0.24200001E+01  0.15706E+05
 0.24700003E+01  0.17903E+05
 0.25200000E+01  0.20637E+05
 0.25700002E+01  0.24974E+05
 0.26199999E+01  0.29797E+05
 0.26700001E+01  0.34508E+05
 0.27200003E+01  0.39084E+05
 0.27700000E+01  0.42448E+05
 0.28200002E+01  0.43381E+05
 0.28699999E+01  0.42484E+05
 0.29200001E+01  0.40887E+05
 0.29700003E+01  0.38821E+05
 0.30200000E+01  0.36930E+05
 0.30700002E+01  0.34802E+05
 0.31199999E+01  0.31956E+05
 0.31700001E+01  0.27964E+05
 0.32200003E+01  0.22581E+05
 0.32700000E+01  0.16240E+05
 0.33200002E+01  0.94090E+04
 0.33699999E+01  0.39000E+04
 0.34200001E+01  0.11770E+04
 0.34700003E+01 -0.20000E+02
 0.35200000E+01 -0.14120E+04
 0.35700002E+01 -0.13870E+04
 0.36199999E+01 -0.83400E+03
 0.36700001E+01 -0.12090E+04
 0.37200003E+01 -0.15630E+04
 0.37700000E+01 -0.34610E+04
 0.38200002E+01 -0.78580E+04
 0.38699999E+01 -0.13875E+05
 0.39200001E+01 -0.21040E+05
 0.39700003E+01 -0.28823E+05
 0.40200000E+01 -0.36619E+05
 0.40700002E+01 -0.45286E+05
 0.41199999E+01 -0.55106E+05
 0.41700001E+01 -0.65053E+05
 0.42200003E+01 -0.72528E+05
 0.42700000E+01 -0.76384E+05
 0.43200002E+01 -0.77760E+05
 0.43699999E+01 -0.77580E+05
 0.44200001E+01 -0.78092E+05
 0.44700003E+01 -0.79715E+05
 0.45200000E+01 -0.81108E+05
 0.45700002E+01 -0.82074E+05
 0.46199999E+01 -0.83472E+05
 0.46700001E+01 -0.84273E+05
 0.47200003E+01 -0.82527E+05
 0.47700000E+01 -0.77708E+05
 0.48200002E+01 -0.69370E+05
 0.48699999E+01 -0.57843E+05
 0.49200001E+01 -0.43629E+05
 0.49700003E+01 -0.29041E+05
 0.50200000E+01 -0.16468E+05
 0.50700002E+01 -0.52680E+04
 0.51200004E+01  0.52060E+04
 0.51700006E+01  0.15538E+05
 0.52199998E+01  0.25953E+05
 0.52700000E+01  0.35511E+05
 0.53200002E+01  0.43811E+05
 0.53700004E+01  0.50347E+05
 0.54200006E+01  0.54559E+05
 0.54699998E+01  0.56437E+05
 0.55200000E+01  0.56435E+05
 0.55700002E+01  0.55973E+05
 0.56200004E+01  0.55251E+05
 0.56700006E+01  0.53362E+05
 0.57199998E+01  0.49910E+05
 0.57700000E+01  0.44212E+05
 0.58200002E+01  0.35991E+05
 0.58700004E+01  0.27315E+05
 0.59200006E+01  0.20000E+05
 0.59699998E+01  0.12482E+05
 0.60200000E+01  0.34610E+04
 0.60700002E+01 -0.69650E+04
 0.61200004E+01 -0.18261E+05
 0.61700006E+01 -0.28937E+05
 0.62199998E+01 -0.38065E+05
 0.62700000E+01 -0.45411E+05
 0.63200002E+01 -0.50656E+05
 0.63700004E+01 -0.53601E+05
 0.64200006E+01 -0.53948E+05
 0.64699998E+01 -0.52159E+05
 0.65200000E+01 -0.49366E+05
 0.65700002E+01 -0.45442E+05
 0.66200004E+01 -0.39913E+05
 0.66700006E+01 -0.32499E+05
 0.67199998E+01 -0.23369E+05
 0.67700000E+01 -0.13867E+05
 0.68200002E+01 -0.47210E+04
 0.68700004E+01  0.53570E+04
 0.69200006E+01  0.17530E+05
 0.69699998E+01  0.30021E+05
 0.70200000E+01  0.41304E+05
 0.70700002E+01  0.50862E+05
 0.71200004E+01  0.58402E+05
 0.71700006E+01  0.65738E+05
 0.72199998E+01  0.73358E+05
 0.72700000E+01  0.80536E+05
 0.73200002E+01  0.87743E+05
 0.73700004E+01  0.95092E+05
 0.74200006E+01  0.10105E+06
 0.74699998E+01  0.10340E+06
 0.75200000E+01  0.10085E+06
 0.75700002E+01  0.94679E+05
 0.76200004E+01  0.87545E+05
 0.76700006E+01  0.80246E+05
 0.77199998E+01  0.72755E+05
 0.77700000E+01  0.65298E+05
 0.78200002E+01  0.58139E+05
 0.78700004E+01  0.50728E+05
 0.79200006E+01  0.41685E+05
 0.79699998E+01  0.30806E+05
 0.80200005E+01  0.19548E+05
 0.80699997E+01  0.83110E+04
 0.81200008E+01 -0.29990E+04
 0.81700001E+01 -0.13902E+05
 0.82199993E+01 -0.25094E+05
 0.82700005E+01 -0.37100E+05
 0.83199997E+01 -0.49611E+05
 0.83700008E+01 -0.61040E+05
 0.84200001E+01 -0.70300E+05
 0.84699993E+01 -0.77301E+05
 0.85200005E+01 -0.82001E+05
 0.85699997E+01 -0.85344E+05
 0.86200008E+01 -0.87882E+05
 0.86700001E+01 -0.89333E+05
 0.87199993E+01 -0.89190E+05
 0.87700005E+01 -0.86739E+05
 0.88199997E+01 -0.81326E+05
 0.88700008E+01 -0.73646E+05
 0.89200001E+01 -0.64700E+05
 0.89699993E+01 -0.55688E+05
 0.90200005E+01 -0.47598E+05
 0.90699997E+01 -0.39219E+05
 0.91200008E+01 -0.30413E+05
 0.91700001E+01 -0.20974E+05
 0.92199993E+01 -0.98020E+04
 0.92700005E+01  0.27150E+04
 0.93199997E+01  0.15513E+05
 0.93700008E+01  0.26817E+05
 0.94200001E+01  0.36434E+05
 0.94699993E+01  0.44253E+05
 0.95200005E+01  0.49610E+05
 0.95699997E+01  0.53157E+05
 0.96200008E+01  0.55318E+05
 0.96700001E+01  0.56277E+05
 0.97199993E+01  0.54326E+05
 0.97700005E+01  0.49582E+05
 0.98199997E+01  0.45323E+05
 0.98700008E+01  0.39670E+05
 0.99200001E+01  0.32809E+05
 0.99699993E+01  0.25833E+05
 0.10020000E+02  0.23323E+05
 0.10070000E+02  0.23238E+05
 0.10120001E+02  0.20898E+05
 0.10170000E+02  0.24842E+05
 0.10219999E+02  0.22330E+05
 0.10270000E+02  0.24753E+05
 0.10320000E+02  0.35204E+05
 0.10370001E+02  0.42629E+05
 0.10420000E+02  0.53585E+05
 0.10469999E+02  0.54381E+05
 0.10520000E+02  0.39316E+05
 0.10570000E+02 -0.37801E+05
 0.10620001E+02 -0.50968E+05
 0.10670000E+02 -0.27250E+04
 0.10719999E+02 -0.45116E+05
 0.10770000E+02 -0.71492E+05
 0.10820000E+02 -0.12842E+06
 0.10870001E+02 -0.10219E+06
 0.10920000E+02  0.78800E+04
 0.10969999E+02  0.99637E+05
 0.11020000E+02  0.10797E+05
 0.11070000E+02 -0.14060E+06
 0.11120001E+02  0.90030E+05
 0.11170000E+02  0.31029E+06
 0.11219999E+02  0.44442E+06
 0.11270000E+02  0.23839E+06
 0.11320000E+02 -0.73187E+05
 0.11370001E+02 -0.21739E+06
 0.11420000E+02 -0.20331E+06
 0.11469999E+02 -0.40479E+05
 0.11520000E+02 -0.61907E+06
 0.11570000E+02 -0.89853E+06
 0.11620001E+02 -0.46696E+06
 0.11670000E+02 -0.47060E+06
 0.11719999E+02 -0.66223E+06
 0.11770000E+02 -0.52972E+05
 0.11820000E+02  0.18649E+06
 0.11870001E+02 -0.81349E+05
 0.11920000E+02  0.79278E+06
 0.11969999E+02  0.93669E+06
 0.12020000E+02  0.22022E+06
 0.12070000E+02  0.73110E+06
 0.12120001E+02  0.53917E+06
 0.12170000E+02 -0.53036E+06
 0.12219999E+02 -0.58954E+06
 0.12270000E+02 -0.89312E+06
 0.12320000E+02 -0.45220E+06
 0.12370001E+02 -0.32994E+06
 0.12420000E+02 -0.74568E+06
 0.12469999E+02 -0.63648E+06
 0.12520000E+02 -0.86737E+06
 0.12570000E+02 -0.30512E+06
 0.12620001E+02 -0.15737E+06
 0.12670000E+02 -0.12577E+06
 0.12719999E+02 -0.65414E+06
 0.12770000E+02 -0.93640E+06
 0.12820000E+02 -0.16146E+07
 0.12870001E+02 -0.19285E+07
 0.12920000E+02  0.44542E+06
 0.12969999E+02  0.55608E+06
 0.13020000E+02 -0.44431E+06
 0.13070002E+02  0.47175E+06
 0.13120001E+02  0.12572E+07
 0.13170000E+02  0.13129E+07
 0.13220001E+02  0.13985E+07
 0.13270000E+02  0.41812E+06
 0.13320002E+02 -0.66219E+06
 0.13370001E+02 -0.14122E+06
 0.13420000E+02 -0.31050E+06
 0.13470001E+02 -0.14602E+07
 0.13520000E+02 -0.14403E+07
 0.13570002E+02 -0.13328E+07
 0.13620001E+02 -0.19869E+07
 0.13670000E+02 -0.54174E+06
 0.13720001E+02  0.52758E+06
 0.13770000E+02 -0.46312E+06
 0.13820002E+02  0.16923E+06
 0.13870001E+02  0.26743E+06
 0.13920000E+02 -0.60581E+06
 0.13970001E+02 -0.79929E+05
 0.14020000E+02  0.31678E+06
 0.14070002E+02 -0.51024E+06
 0.14120001E+02 -0.82643E+06
 0.14170000E+02  0.25378E+06
 0.14220001E+02 -0.54162E+06
 0.14270000E+02 -0.10093E+07
 0.14320002E+02  0.72959E+06
 0.14370001E+02  0.31134E+06
 0.14420000E+02 -0.94881E+06
 0.14470001E+02  0.45797E+06
 0.14520000E+02  0.19068E+07
 0.14570002E+02  0.11319E+07
 0.14620001E+02  0.55663E+06
 0.14670000E+02  0.28643E+06
 0.14720001E+02  0.60979E+05
 0.14770000E+02 -0.59205E+06
 0.14820002E+02 -0.14874E+07
 0.14870001E+02 -0.45519E+06
 0.14920000E+02  0.68039E+05
 0.14970001E+02  0.22281E+06
 0.15020000E+02  0.19113E+06
 0.15070002E+02 -0.11588E+07
 0.15120001E+02 -0.80651E+06
 0.15170000E+02  0.52378E+06
 0.15220001E+02  0.10040E+07
 0.15270000E+02  0.46538E+06
 0.15320002E+02 -0.92414E+05
 0.15370001E+02  0.10927E+07
 0.15420000E+02  0.18012E+07
 0.15470001E+02  0.74683E+06
 0.15520000E+02  0.16319E+07
 0.15570002E+02  0.15704E+07
 0.15620001E+02 -0.20037E+06
 0.15670000E+02  0.11569E+07
 0.15720001E+02  0.10114E+07
 0.15770000E+02  0.42086E+06
 0.15820002E+02  0.10504E+07
 0.15870001E+02  0.69453E+06
 0.15920000E+02  0.16504E+07
 0.15970001E+02  0.13433E+07
 0.16020000E+02  0.88490E+06
 0.16070002E+02  0.11057E+07
 0.16120001E+02  0.63023E+06
 0.16170000E+02  0.52650E+06
 0.16220001E+02 -0.21890E+06
 0.16270000E+02  0.69409E+06
 0.16320002E+02  0.26136E+07
 0.16370001E+02  0.30057E+07
 0.16420000E+02  0.20829E+07
 0.16470001E+02  0.16512E+07
 0.16520000E+02  0.16137E+07
 0.16570002E+02  0.14072E+06
 0.16620001E+02  0.15352E+07
 0.16670000E+02  0.29355E+07
 0.16720001E+02  0.22889E+07
 0.16770000E+02  0.22722E+07
 0.16820002E+02  0.51315E+06
 0.16870001E+02 -0.85481E+06
 0.16920000E+02 -0.86959E+06
 0.16970001E+02  0.11245E+07
 0.17020000E+02  0.25785E+07
 0.17070002E+02  0.29072E+07
 0.17120001E+02  0.29455E+07
 0.17170000E+02  0.32977E+06
 0.17220001E+02 -0.11283E+07
 0.17270000E+02 -0.40428E+07
 0.17320002E+02 -0.45904E+07
 0.17370001E+02 -0.20363E+07
 0.17420000E+02 -0.24664E+07
 0.17470001E+02 -0.63604E+06
 0.17520000E+02  0.14151E+07
 0.17570002E+02  0.27278E+07
 0.17620001E+02  0.33121E+07
 0.17670000E+02  0.90744E+06
 0.17720001E+02 -0.27111E+07
 0.17770000E+02 -0.34853E+07
 0.17820002E+02 -0.20884E+07
 0.17870001E+02 -0.22158E+07
 0.17920000E+02 -0.42569E+07
 0.17970001E+02 -0.50478E+07
 0.18020000E+02  0.10153E+06
 0.18070002E+02  0.54245E+07
 0.18120001E+02  0.32597E+07
 0.18170000E+02 -0.54112E+06
 0.18220001E+02  0.35475E+07
 0.18270000E+02  0.58336E+07
 0.18320002E+02 -0.46723E+06
 0.18370001E+02 -0.81294E+07
 0.18420000E+02 -0.41639E+07
 0.18470001E+02 -0.20168E+07
 0.18520000E+02 -0.57302E+07
 0.18570002E+02  0.21378E+07
 0.18620001E+02  0.12736E+07
 0.18670000E+02  0.45546E+06
 0.18720001E+02  0.46306E+06
 0.18770000E+02 -0.44967E+07
 0.18820002E+02 -0.55527E+07
 0.18870001E+02 -0.97482E+07
 0.18920000E+02 -0.56492E+07
 0.18970001E+02 -0.52130E+07
 0.19020000E+02 -0.54714E+07
 0.19070002E+02 -0.75985E+07
 0.19120001E+02 -0.11762E+08
 0.19170000E+02 -0.61655E+07
 0.19220001E+02 -0.92981E+07
 0.19270000E+02 -0.15344E+08
 0.19320002E+02 -0.14744E+08
 0.19370001E+02 -0.84063E+05
 0.19420000E+02  0.11815E+08
 0.19470001E+02  0.12086E+08
 0.19520000E+02  0.71510E+07
 0.19570002E+02 -0.49017E+07
 0.19620001E+02 -0.52973E+07
 0.19670000E+02 -0.70622E+07
 0.19720001E+02 -0.11572E+08
 0.19770000E+02 -0.30103E+07
 0.19820002E+02  0.23317E+07
 0.19870001E+02 -0.25952E+07
 0.19920000E+02 -0.55109E+06
 0.19970001E+02  0.10089E+08
 0.20020000E+02  0.50015E+07
 0.20070002E+02 -0.12148E+08
 0.20120001E+02 -0.14924E+08
 0.20170000E+02 -0.12965E+08
 0.20220001E+02 -0.11624E+08
 0.20270000E+02 -0.67417E+07
 0.20320002E+02 -0.35975E+07
 0.20370001E+02  0.41655E+07
 0.20420000E+02 -0.41899E+06
 0.20470001E+02 -0.13145E+08
 0.20520000E+02 -0.19112E+08
 0.20570002E+02 -0.19932E+08
 0.20620001E+02 -0.14639E+08
 0.20670000E+02 -0.56572E+07
 0.20720001E+02  0.49049E+07
 0.20770000E+02  0.43190E+07
 0.20820002E+02  0.66718E+07
 0.20870001E+02  0.13681E+08
 0.20920000E+02  0.12331E+08
 0.20970001E+02  0.49445E+07
 0.21020000E+02 -0.23020E+07
 0.21070002E+02 -0.60216E+07
 0.21120001E+02 -0.12649E+08
 0.21170000E+02 -0.44055E+07
 0.21220001E+02  0.90240E+07
 0.21270000E+02  0.11007E+08
 0.21320002E+02  0.88914E+07
 0.21370001E+02  0.33437E+07
 0.21420000E+02 -0.22179E+07
 0.21470001E+02 -0.56423E+07
 0.21520000E+02 -0.51727E+07
 0.21570002E+02 -0.29497E+07
 0.21620001E+02  0.21990E+07
 0.21670000E+02  0.36869E+07
 0.21720001E+02  0.46200E+07
 0.21770000E+02  0.36736E+07
 0.21820002E+02 -0.24258E+07
 0.21870001E+02 -0.41906E+07
 0.21920000E+02 -0.88097E+07
 0.21970001E+02 -0.60984E+07
 0.22020000E+02  0.85011E+07
 0.22070002E+02  0.13377E+08
 0.22120001E+02  0.77271E+07
 0.22170000E+02  0.37785E+07
 0.22220001E+02  0.16589E+07
 0.22270000E+02 -0.25639E+07
 0.22320002E+02 -0.54650E+07
 0.22370001E+02 -0.31041E+06
 0.22420000E+02  0.10211E+08
 0.22470001E+02  0.12524E+08
 0.22520000E+02  0.64225E+07
 0.22570002E+02  0.53309E+06
 0.22620001E+02 -0.40146E+07
 0.22670000E+02 -0.26429E+07
 0.22720001E+02  0.49229E+06
 0.22770000E+02  0.43133E+07
 0.22820002E+02  0.41312E+07
 0.22870001E+02 -0.26006E+07
 0.22920000E+02 -0.35613E+07
 0.22970001E+02 -0.40230E+07
 0.23020000E+02 -0.39099E+07
 0.23070002E+02 -0.12098E+07
 0.23120001E+02 -0.57682E+06
 0.23170000E+02 -0.18099E+07
 0.23220001E+02 -0.29528E+07
 0.23270000E+02 -0.34649E+07
 0.23320002E+02 -0.47359E+07
 0.23370001E+02 -0.24907E+07
 0.23420000E+02  0.17819E+07
 0.23470001E+02  0.53849E+07
 0.23520000E+02  0.67501E+07
 0.23570002E+02  0.32115E+07
 0.23620001E+02 -0.16972E+07
 0.23670000E+02 -0.29304E+07
 0.23720001E+02 -0.31316E+07
 0.23770000E+02 -0.59507E+07
 0.23820002E+02 -0.57635E+07
 0.23870001E+02 -0.24611E+07
 0.23920000E+02 -0.86235E+06
 0.23970001E+02  0.52366E+06
 0.24020000E+02  0.92695E+06
 0.24070002E+02 -0.54910E+06
 0.24120001E+02  0.39012E+06
 0.24170000E+02  0.24834E+07
 0.24220001E+02  0.22113E+07
 0.24270000E+02  0.25138E+07
 0.24320002E+02  0.20630E+07
 0.24370001E+02 -0.13944E+07
 0.24420000E+02 -0.59265E+07
 0.24470001E+02 -0.96337E+07
 0.24520000E+02 -0.85971E+07
 0.24570002E+02 -0.54871E+07
 0.24620001E+02 -0.22162E+07
 0.24670000E+02  0.19637E+07
 0.24720001E+02  0.32238E+07
 0.24770000E+02  0.33870E+07
 0.24820002E+02  0.20403E+07
 0.24870001E+02  0.11877E+07
 0.24920000E+02  0.26811E+07
 0.24970001E+02  0.24474E+07
 0.25020000E+02  0.21191E+07
 0.25070002E+02  0.87700E+06
 0.25120001E+02 -0.13658E+07
 0.25170000E+02 -0.26527E+07
 0.25220001E+02 -0.18668E+07
 0.25270000E+02  0.20289E+06
 0.25320002E+02  0.18541E+07
 0.25370001E+02  0.41686E+07
 0.25420000E+02  0.46168E+07
 0.25470001E+02  0.41682E+07
 0.25520000E+02  0.58334E+07
 0.25570002E+02  0.74230E+07
 0.25620001E+02  0.55673E+07
 0.25670000E+02  0.13732E+07
 0.25720001E+02 -0.21289E+07
 0.25770000E+02 -0.34188E+07
 0.25820002E+02 -0.23998E+07
 0.25870001E+02 -0.36596E+07
 0.25920000E+02 -0.51500E+07
 0.25970001E+02 -0.46276E+07
 0.26020000E+02 -0.38645E+07
 0.26070002E+02 -0.39087E+07
 0.26120001E+02 -0.32961E+07
 0.26170000E+02  0.60116E+06
 0.26220001E+02  0.31227E+07
 0.26270000E+02  0.43978E+07
 0.26320002E+02  0.50016E+07
 0.26370001E+02  0.44336E+07
 0.26420000E+02  0.16656E+07
 0.26470001E+02 -0.26982E+07
 0.26520000E+02 -0.43560E+07
 0.26570002E+02 -0.49237E+07
 0.26620001E+02 -0.37931E+07
 0.26670000E+02 -0.16155E+07
 0.26720001E+02 -0.71433E+06
 0.26770000E+02 -0.97500E+06
 0.26820002E+02 -0.13219E+07
 0.26870001E+02 -0.59101E+06
 0.26920000E+02  0.79840E+06
 0.26970001E+02  0.28521E+07
 0.27020000E+02  0.24061E+07
 0.27070002E+02 -0.14295E+07
 0.27120001E+02 -0.38520E+07
 0.27170000E+02 -0.36473E+07
 0.27220001E+02 -0.28444E+07
 0.27270000E+02 -0.25145E+07
 0.27320002E+02 -0.17560E+07
 0.27370001E+02 -0.15076E+07
 0.27420000E+02 -0.33763E+07
 0.27470001E+02 -0.45110E+07
 0.27520000E+02 -0.35162E+07
 0.27570002E+02 -0.10281E+07
 0.27620001E+02  0.18143E+07
 0.27670000E+02  0.34183E+07
 0.27720001E+02  0.33593E+07
 0.27770000E+02  0.21943E+07
 0.27820002E+02  0.10730E+07
 0.27870001E+02  0.70106E+06
 0.27920000E+02  0.57270E+06
 0.27970001E+02 -0.15480E+06
 0.28020000E+02 -0.79599E+06
 0.28070002E+02 -0.25607E+07
 0.28120001E+02 -0.50340E+07
 0.28170000E+02 -0.62035E+07
 0.28220001E+02 -0.59333E+07
 0.28270000E+02 -0.44164E+07
 0.28320002E+02 -0.36688E+07
 0.28370001E+02 -0.20910E+07
 0.28420000E+02  0.19056E+06
 0.28470001E+02 -0.12733E+07
 0.28520000E+02 -0.41884E+07
 0.28570002E+02 -0.47318E+07
 0.28620001E+02 -0.33934E+07
 0.28670000E+02 -0.18378E+07
 0.28720001E+02 -0.27850E+07
 0.28770000E+02 -0.34176E+07
 0.28820002E+02 -0.14891E+07
 0.28870001E+02 -0.78546E+06
 0.28920000E+02 -0.11456E+07
 0.28970001E+02 -0.22807E+07
 0.29020000E+02 -0.17359E+07
 0.29070000E+02  0.15053E+07
 0.29120003E+02  0.36568E+07
 0.29170002E+02  0.52869E+07
 0.29220001E+02  0.52734E+07
 0.29270000E+02  0.33466E+07
 0.29320000E+02  0.24927E+07
 0.29370003E+02  0.21103E+07
 0.29420002E+02  0.62894E+06
 0.29470001E+02 -0.11270E+07
 0.29520000E+02 -0.16000E+07
 0.29570000E+02 -0.28348E+07
 0.29620003E+02 -0.46365E+07
 0.29670002E+02 -0.49838E+07
 0.29720001E+02 -0.43532E+07
 0.29770000E+02 -0.25220E+07
 0.29820000E+02 -0.16991E+07
 0.29870003E+02 -0.16457E+07
 0.29920002E+02 -0.55421E+06
 0.29970001E+02 -0.21388E+06
 0.30020000E+02 -0.15666E+07
 0.30070000E+02 -0.42721E+07
 0.30120003E+02 -0.73014E+07
 0.30170002E+02 -0.92116E+07
 0.30220001E+02 -0.90010E+07
 0.30270000E+02 -0.71275E+07
 0.30320000E+02 -0.46139E+07
 0.30370003E+02 -0.16055E+07
 0.30420002E+02  0.44474E+06
 0.30470001E+02 -0.61639E+05
 0.30520000E+02 -0.88100E+06
 0.30570000E+02 -0.85408E+06
 0.30620003E+02 -0.17266E+07
 0.30670002E+02 -0.28282E+07
 0.30720001E+02 -0.26405E+07
 0.30770000E+02 -0.11106E+07
 0.30820000E+02  0.17145E+07
 0.30870003E+02  0.48429E+07
 0.30920002E+02  0.53704E+07
 0.30970001E+02  0.33264E+07
 0.31020000E+02  0.11494E+07
 0.31070000E+02 -0.52928E+06
 0.31120003E+02 -0.41586E+06
 0.31170002E+02  0.13021E+07
 0.31220001E+02  0.21728E+07
 0.31270000E+02  0.17826E+07
 0.31320000E+02  0.59041E+06
 0.31370003E+02 -0.12915E+07
 0.31420002E+02 -0.31023E+07
 0.31470001E+02 -0.35956E+07
 0.31520000E+02 -0.29942E+07
 0.31570000E+02 -0.21458E+07
 0.31620003E+02 -0.50382E+06
 0.31670002E+02  0.11247E+07
 0.31720001E+02  0.17948E+07
 0.31770000E+02  0.16044E+07
 0.31820000E+02  0.72150E+06
 0.31870003E+02 -0.33260E+06
 0.31920002E+02 -0.18985E+07
 0.31970001E+02 -0.29169E+07
 0.32020000E+02 -0.30027E+07
 0.32070000E+02 -0.35087E+07
 0.32120003E+02 -0.53266E+07
 0.32170002E+02 -0.77816E+07
 0.32220001E+02 -0.88246E+07
 0.32270000E+02 -0.90132E+07
 0.32320000E+02 -0.84136E+07
 0.32370003E+02 -0.72192E+07
 0.32420002E+02 -0.66324E+07
 0.32470001E+02 -0.57288E+07
 0.32520000E+02 -0.43935E+07
 0.32570000E+02 -0.29479E+07
 0.32620003E+02 -0.15314E+07
 0.32670002E+02  0.23506E+06
 0.32720001E+02  0.24688E+07
 0.32770000E+02  0.33978E+07
 0.32820000E+02  0.28913E+07
 0.32870003E+02  0.25075E+07
 0.32920002E+02  0.26124E+07
 0.32970001E+02  0.22943E+07
 0.33020000E+02  0.10542E+07
 0.33070000E+02 -0.95786E+06
 0.33120003E+02 -0.34582E+07
 0.33170002E+02 -0.53140E+07
 0.33220001E+02 -0.59145E+07
 0.33270000E+02 -0.57847E+07
 0.33320000E+02 -0.51561E+07
 0.33370003E+02 -0.36359E+07
 0.33420002E+02 -0.19904E+07
 0.33470001E+02 -0.14587E+07
 0.33520000E+02 -0.13001E+07
 0.33570000E+02 -0.40869E+06
 0.33620003E+02  0.77383E+06
 0.33670002E+02  0.76310E+06
 0.33720001E+02 -0.55194E+06
 0.33770000E+02 -0.21282E+07
 0.33820000E+02 -0.29545E+07
 0.33870003E+02 -0.24249E+07
 0.33920002E+02 -0.13360E+07
 0.33970001E+02 -0.53765E+05
 0.34020000E+02  0.91984E+06
 0.34070000E+02  0.63683E+06
 0.34120003E+02 -0.32108E+06
 0.34170002E+02 -0.12725E+07
 0.34220001E+02 -0.21311E+07
 0.34270000E+02 -0.29296E+07
 0.34320000E+02 -0.31087E+07
 0.34370003E+02 -0.24788E+07
 0.34420002E+02 -0.16828E+07
 0.34470001E+02 -0.30527E+06
 0.34520000E+02  0.10547E+07
 0.34570000E+02  0.15991E+07
 0.34620003E+02  0.15107E+07
 0.34670002E+02  0.79398E+06
 0.34720001E+02 -0.50947E+06
 0.34770000E+02 -0.19362E+07
 0.34820000E+02 -0.29393E+07
 0.34870003E+02 -0.37318E+07
 0.34920002E+02 -0.34761E+07
 0.34970001E+02 -0.22736E+07
 0.35020000E+02 -0.56685E+06
 0.35070000E+02  0.14393E+07
 0.35120003E+02  0.26584E+07
 0.35170002E+02  0.37872E+07
 0.35220001E+02  0.51252E+07
 0.35270000E+02  0.66713E+07
 0.35320000E+02  0.79458E+07
 0.35370003E+02  0.77604E+07
 0.35420002E+02  0.61385E+07
 0.35470001E+02  0.35081E+07
 0.35520000E+02  0.11276E+07
 0.35570000E+02 -0.78094E+06
 0.35620003E+02 -0.25573E+07
 0.35670002E+02 -0.37592E+07
 0.35720001E+02 -0.36931E+07
 0.35770000E+02 -0.25795E+07
 0.35820000E+02 -0.22593E+07
 0.35870003E+02 -0.27658E+07
 0.35920002E+02 -0.34263E+07
 0.35970001E+02 -0.39419E+07
 0.36020000E+02 -0.41211E+07
 0.36070000E+02 -0.47534E+07
 0.36120003E+02 -0.56014E+07
 0.36170002E+02 -0.56502E+07
 0.36220001E+02 -0.50742E+07
 0.36270000E+02 -0.51297E+07
 0.36320000E+02 -0.53657E+07
 0.36370003E+02 -0.47684E+07
 0.36420002E+02 -0.35934E+07
 0.36470001E+02 -0.23755E+07
 0.36520000E+02 -0.13568E+07
 0.36570000E+02  0.19377E+06
 0.36620003E+02  0.16588E+07
 0.36670002E+02  0.21334E+07
 0.36720001E+02  0.20495E+07
 0.36770000E+02  0.11477E+07
 0.36820000E+02 -0.20611E+06
 0.36870003E+02  0.50697E+05
 0.36920002E+02  0.15663E+07
 0.36970001E+02  0.22897E+07
 0.37020000E+02  0.23095E+07
 0.37070000E+02  0.20466E+07
 0.37120003E+02  0.21366E+07
 0.37170002E+02  0.26241E+07
 0.37220001E+02  0.28969E+07
 0.37270000E+02  0.27980E+07
 0.37320000E+02  0.25652E+07
 0.37370003E+02  0.16655E+07
 0.37420002E+02 -0.15334E+06
 0.37470001E+02 -0.13216E+07
 0.37520000E+02 -0.22370E+07
 0.37570000E+02 -0.34301E+07
 0.37620003E+02 -0.45306E+07
 0.37670002E+02 -0.51993E+07
 0.37720001E+02 -0.52175E+07
 0.37770000E+02 -0.50359E+07
 0.37820000E+02 -0.51435E+07
 0.37870003E+02 -0.55447E+07
 0.37920002E+02 -0.49184E+07
 0.37970001E+02 -0.37259E+07
 0.38020000E+02 -0.25237E+07
 0.38070000E+02 -0.11014E+07
 0.38120003E+02 -0.12873E+06
 0.38170002E+02  0.80563E+06
 0.38220001E+02  0.15375E+07
 0.38270000E+02  0.17531E+07
 0.38320000E+02  0.20367E+07
 0.38370003E+02  0.26885E+07
 0.38420002E+02  0.33977E+07
 0.38470001E+02  0.34076E+07
 0.38520000E+02  0.30376E+07
 0.38570000E+02  0.27747E+07
 0.38620003E+02  0.21968E+07
 0.38670002E+02  0.97807E+06
 0.38720001E+02 -0.66202E+06
 0.38770000E+02 -0.25088E+07
 0.38820000E+02 -0.45007E+07
 0.38870003E+02 -0.62452E+07
 0.38920002E+02 -0.75882E+07
 0.38970001E+02 -0.74393E+07
 0.39020000E+02 -0.57889E+07
 0.39070000E+02 -0.42495E+07
 0.39120003E+02 -0.29814E+07
 0.39170002E+02 -0.27046E+07
 0.39220001E+02 -0.29972E+07
 0.39270000E+02 -0.26172E+07
 0.39320000E+02 -0.18120E+07
 0.39370003E+02 -0.89243E+06
 0.39420002E+02 -0.67805E+06
 0.39470001E+02 -0.10940E+07
 0.39520000E+02 -0.17991E+07
 0.39570000E+02 -0.26086E+07
 0.39620003E+02 -0.30681E+07
 0.39670002E+02 -0.27378E+07
 0.39720001E+02 -0.15451E+07
 0.39770000E+02 -0.67971E+06
 0.39820000E+02 -0.19808E+06
 0.39870003E+02  0.30614E+06
 0.39920002E+02  0.69968E+06
 0.39970001E+02  0.98053E+06
 0.40020000E+02  0.76324E+06
 0.40070000E+02  0.26091E+06
 0.40120003E+02 -0.17695E+06
 0.40170002E+02 -0.43455E+06
 0.40220001E+02 -0.76240E+06
 0.40270000E+02 -0.83203E+06
 0.40320000E+02 -0.11398E+06
 0.40370003E+02  0.37774E+06
 0.40420002E+02  0.46949E+06
 0.40470001E+02  0.45555E+06
 0.40520000E+02  0.35230E+06
 0.40570000E+02  0.73225E+06
 0.40620003E+02  0.16848E+07
 0.40670002E+02  0.25909E+07
 0.40720001E+02  0.27659E+07
 0.40770000E+02  0.26654E+07
 0.40820000E+02  0.25923E+07
 0.40870003E+02  0.20845E+07
 0.40920002E+02  0.17622E+07
 0.40970001E+02  0.21800E+07
 0.41020000E+02  0.24478E+07
 0.41070000E+02  0.22399E+07
 0.41120003E+02  0.19269E+07
 0.41170002E+02  0.11253E+07
 0.41220001E+02  0.20529E+06
 0.41270000E+02 -0.90841E+05
 0.41320000E+02  0.13048E+06
 0.41370003E+02  0.58586E+06
 0.41420002E+02  0.12703E+07
 0.41470001E+02  0.20810E+07
 0.41520000E+02  0.24567E+07
 0.41570000E+02  0.25731E+07
 0.41620003E+02  0.20313E+07
 0.41670002E+02  0.53746E+06
 0.41720001E+02 -0.11024E+07
 0.41770000E+02 -0.25228E+07
 0.41820000E+02 -0.29008E+07
 0.41870003E+02 -0.24274E+07
 0.41920002E+02 -0.17017E+07
 0.41970001E+02 -0.10754E+07
 0.42020000E+02 -0.12334E+07
 0.42070000E+02 -0.18192E+07
 0.42120003E+02 -0.25229E+07
 0.42170002E+02 -0.31035E+07
 0.42220001E+02 -0.34136E+07
 0.42270000E+02 -0.34692E+07
 0.42320000E+02 -0.33630E+07
 0.42370003E+02 -0.32758E+07
 0.42420002E+02 -0.30813E+07
 0.42470001E+02 -0.30811E+07
 0.42520000E+02 -0.30142E+07
 0.42570000E+02 -0.25617E+07
 0.42620003E+02 -0.23822E+07
 0.42670002E+02 -0.26063E+07
 0.42720001E+02 -0.30056E+07
 0.42770000E+02 -0.36337E+07
 0.42820000E+02 -0.41898E+07
 0.42870003E+02 -0.40685E+07
 0.42920002E+02 -0.36369E+07
 0.42970001E+02 -0.33261E+07
 0.43020000E+02 -0.25030E+07
 0.43070000E+02 -0.13780E+07
 0.43120003E+02 -0.33178E+06
 0.43170002E+02  0.63952E+06
 0.43220001E+02  0.12890E+07
 0.43270000E+02  0.17801E+07
 0.43320000E+02  0.17948E+07
 0.43370003E+02  0.13769E+07
 0.43420002E+02  0.11977E+07
 0.43470001E+02  0.12279E+07
 0.43520000E+02  0.12488E+07
 0.43570000E+02  0.91007E+06
 0.43620003E+02  0.32213E+05
 0.43670002E+02 -0.76835E+06
 0.43720001E+02 -0.99181E+06
 0.43770000E+02 -0.76381E+06
 0.43820000E+02 -0.17897E+06
 0.43870003E+02  0.61760E+06
 0.43920002E+02  0.14064E+07
 0.43970001E+02  0.18990E+07
 0.44020000E+02  0.18637E+07
 0.44070000E+02  0.13322E+07
 0.44120003E+02  0.38809E+06
 0.44170002E+02 -0.30748E+06
 0.44220001E+02 -0.55690E+06
 0.44270000E+02 -0.91550E+06
 0.44320000E+02 -0.13470E+07
 0.44370003E+02 -0.18384E+07
 0.44420002E+02 -0.23158E+07
 0.44470001E+02 -0.27876E+07
 0.44520000E+02 -0.31140E+07
 0.44570000E+02 -0.29251E+07
 0.44620003E+02 -0.23055E+07
 0.44670002E+02 -0.12277E+07
 0.44720001E+02 -0.34203E+06
 0.44770000E+02 -0.52900E+04
 0.44820000E+02  0.22584E+06
 0.44870003E+02  0.81260E+06
 0.44920002E+02  0.15034E+07
 0.44970001E+02  0.17578E+07
 0.45020000E+02  0.21472E+07
 0.45070000E+02  0.23761E+07
 0.45120003E+02  0.22058E+07
 0.45170002E+02  0.17994E+07
 0.45220001E+02  0.98891E+06
 0.45270000E+02  0.98270E+05
 0.45320000E+02 -0.79788E+06
 0.45370003E+02 -0.13829E+07
 0.45420002E+02 -0.15442E+07
 0.45470001E+02 -0.11962E+07
 0.45520000E+02 -0.57524E+06
 0.45570000E+02 -0.23484E+06
 0.45620003E+02 -0.75598E+05
 0.45670002E+02 -0.22693E+06
 0.45720001E+02 -0.52498E+06
 0.45770000E+02 -0.47666E+06
 0.45820000E+02 -0.94874E+05
 0.45870003E+02  0.23767E+06
 0.45920002E+02  0.31084E+06
 0.45970001E+02 -0.86986E+05
 0.46020000E+02 -0.10100E+07
 0.46070000E+02 -0.20566E+07
 0.46120003E+02 -0.27946E+07
 0.46170002E+02 -0.28675E+07
 0.46220001E+02 -0.23498E+07
 0.46270000E+02 -0.15636E+07
 0.46320000E+02 -0.94564E+06
 0.46370003E+02 -0.60335E+06
 0.46420002E+02 -0.30116E+06
 0.46470001E+02 -0.57328E+05
 0.46520000E+02  0.27323E+06
 0.46570000E+02  0.51238E+06
 0.46620003E+02  0.51509E+06
 0.46670002E+02  0.63097E+06
 0.46720001E+02  0.57220E+06
 0.46770000E+02  0.35681E+06
 0.46820000E+02  0.27308E+06
 0.46870003E+02 -0.23833E+05
 0.46920002E+02 -0.34879E+06
 0.46970001E+02 -0.18838E+06
 0.47020000E+02  0.32287E+06
 0.47070000E+02  0.67107E+06
 0.47120003E+02  0.80879E+06
 0.47170002E+02  0.79740E+06
 0.47220001E+02  0.70529E+06
 0.47270000E+02  0.56185E+06
 0.47320000E+02  0.21153E+06
 0.47370003E+02 -0.50487E+05
 0.47420002E+02 -0.12194E+06
 0.47470001E+02 -0.15039E+06
 0.47520000E+02 -0.32403E+06
 0.47570000E+02 -0.54941E+06
 0.47620003E+02 -0.69570E+06
 0.47670002E+02 -0.83693E+06
 0.47720001E+02 -0.85661E+06
 0.47770000E+02 -0.91142E+06
 0.47820000E+02 -0.10748E+07
 0.47870003E+02 -0.12858E+07
 0.47920002E+02 -0.11974E+07
 0.47970001E+02 -0.69161E+06
 0.48020000E+02 -0.30898E+06
 0.48070000E+02 -0.20164E+06
 0.48120003E+02 -0.15035E+06
 0.48170002E+02 -0.20975E+06
 0.48220001E+02 -0.92686E+06
 0.48270000E+02 -0.22554E+07
 0.48320000E+02 -0.33275E+07
 0.48370003E+02 -0.38393E+07
 0.48420002E+02 -0.38829E+07
 0.48470001E+02 -0.34596E+07
 0.48520000E+02 -0.28571E+07
 0.48570000E+02 -0.23504E+07
 0.48620003E+02 -0.19956E+07
 0.48670002E+02 -0.17907E+07
 0.48720001E+02 -0.14244E+07
 0.48770000E+02 -0.80611E+06
 0.48820000E+02 -0.29119E+06
 0.48870003E+02  0.25381E+05
 0.48920002E+02  0.26517E+06
 0.48970001E+02  0.40877E+06
 0.49020000E+02  0.29876E+06
 0.49070000E+02 -0.16154E+06
 0.49120003E+02 -0.83827E+06
 0.49170002E+02 -0.13527E+07
 0.49220001E+02 -0.16107E+07
 0.49270000E+02 -0.16830E+07
 0.49320000E+02 -0.16408E+07
 0.49370003E+02 -0.16554E+07
 0.49420002E+02 -0.16226E+07
 0.49470001E+02 -0.15966E+07
 0.49520000E+02 -0.16506E+07
 0.49570000E+02 -0.17031E+07
 0.49620003E+02 -0.17100E+07
 0.49670002E+02 -0.18432E+07
 0.49720001E+02 -0.22189E+07
 0.49770000E+02 -0.24360E+07
 0.49820000E+02 -0.23365E+07
 0.49870003E+02 -0.20926E+07
 0.49920002E+02 -0.19536E+07
 0.49970001E+02 -0.18523E+07
 0.50020000E+02 -0.15076E+07
 0.50070000E+02 -0.11778E+07
 0.50120003E+02 -0.10971E+07
 0.50170002E+02 -0.10881E+07
 0.50220001E+02 -0.10272E+07
 0.50270000E+02 -0.86250E+06
 0.50320000E+02 -0.62188E+06
 0.50370003E+02 -0.19270E+06
 0.50420002E+02  0.71609E+06
 0.50470001E+02  0.18807E+07
 0.50520000E+02  0.28668E+07
 0.50570000E+02  0.35434E+07
 0.50620003E+02  0.39640E+07
 0.50670002E+02  0.41352E+07
 0.50720001E+02  0.39928E+07
 0.50770000E+02  0.36109E+07
 0.50820000E+02  0.30875E+07
 0.50870003E+02  0.23575E+07
 0.50920002E+02  0.14817E+07
 0.50970001E+02  0.77988E+06
 0.51020000E+02  0.31832E+06
 0.51070000E+02  0.41487E+05
 0.51120003E+02 -0.77307E+05
 0.51170002E+02 -0.22975E+06
 0.51220001E+02 -0.21250E+06
 0.51270000E+02  0.99150E+04
 0.51320000E+02 -0.66729E+05
 0.51370003E+02 -0.25448E+06
 0.51420002E+02 -0.79477E+05
 0.51470001E+02  0.31876E+06
 0.51520000E+02  0.68283E+06
 0.51570000E+02  0.97127E+06
 0.51620003E+02  0.99144E+06
 0.51670002E+02  0.61040E+06
 0.51720001E+02  0.98300E+03
 0.51770000E+02 -0.59914E+06
 0.51820000E+02 -0.93899E+06
 0.51870003E+02 -0.91178E+06
 0.51920002E+02 -0.64604E+06
 0.51970001E+02 -0.41401E+06
 0.52020000E+02 -0.31064E+06
 0.52070000E+02 -0.24847E+06
 0.52120003E+02 -0.31063E+06
 0.52170002E+02 -0.61167E+06
 0.52220001E+02 -0.91740E+06
 0.52270000E+02 -0.12108E+07
 0.52320000E+02 -0.15737E+07
 0.52370003E+02 -0.17646E+07
 0.52420002E+02 -0.17930E+07
 0.52470001E+02 -0.18357E+07
 0.52520000E+02 -0.18155E+07
 0.52570000E+02 -0.15805E+07
 0.52620003E+02 -0.13545E+07
 0.52670002E+02 -0.10868E+07
 0.52720001E+02 -0.61812E+06
 0.52770000E+02 -0.14700E+05
 0.52820000E+02  0.69955E+06
 0.52870003E+02  0.12070E+07
 0.52920002E+02  0.14218E+07
 0.52970001E+02  0.13941E+07
 0.53020000E+02  0.11425E+07
 0.53070000E+02  0.73238E+06
 0.53120003E+02  0.24146E+06
 0.53170002E+02 -0.82746E+05
 0.53220001E+02 -0.19929E+06
 0.53270000E+02 -0.81190E+05
 0.53320000E+02  0.31791E+06
 0.53370003E+02  0.65198E+06
 0.53420002E+02  0.55859E+06
 0.53470001E+02  0.32066E+06
 0.53520000E+02  0.42386E+06
 0.53570000E+02  0.69294E+06
 0.53620003E+02  0.81263E+06
 0.53670002E+02  0.85726E+06
 0.53720001E+02  0.91452E+06
 0.53770000E+02  0.10057E+07
 0.53820000E+02  0.10666E+07
 0.53870003E+02  0.10121E+07
 0.53920002E+02  0.96841E+06
 0.53970001E+02  0.10701E+07
 0.54020000E+02  0.11239E+07
 0.54070000E+02  0.90654E+06
 0.54120003E+02  0.56026E+06
 0.54170002E+02  0.17145E+06
 0.54220001E+02 -0.26427E+06
 0.54270000E+02 -0.71380E+06
 0.54320000E+02 -0.12157E+07
 0.54370003E+02 -0.16566E+07
 0.54420002E+02 -0.18406E+07
 0.54470001E+02 -0.16991E+07
 0.54520000E+02 -0.14025E+07
 0.54570000E+02 -0.12252E+07
 0.54620003E+02 -0.12259E+07
 0.54670002E+02 -0.11630E+07
 0.54720001E+02 -0.78898E+06
 0.54770000E+02 -0.29347E+06
 0.54820000E+02 -0.57249E+05
 0.54870003E+02 -0.76688E+05
 0.54920002E+02 -0.95360E+05
 0.54970001E+02 -0.20688E+05
 0.55020000E+02 -0.27715E+05
 0.55070000E+02 -0.27522E+06
 0.55120003E+02 -0.67912E+06
 0.55170002E+02 -0.11192E+07
 0.55220001E+02 -0.15615E+07
 0.55270000E+02 -0.17900E+07
 0.55320000E+02 -0.17849E+07
 0.55370003E+02 -0.17293E+07
 0.55420002E+02 -0.16789E+07
 0.55470001E+02 -0.18133E+07
 0.55520000E+02 -0.19111E+07
 0.55570000E+02 -0.18111E+07
 0.55620003E+02 -0.16959E+07
 0.55670002E+02 -0.16024E+07
 0.55720001E+02 -0.15596E+07
 0.55770000E+02 -0.13857E+07
 0.55820000E+02 -0.11446E+07
 0.55870003E+02 -0.96531E+06
 0.55920002E+02 -0.79973E+06
 0.55970001E+02 -0.75398E+06
 0.56020000E+02 -0.74156E+06
 0.56070000E+02 -0.63851E+06
 0.56120003E+02 -0.51302E+06
 0.56170002E+02 -0.49217E+06
 0.56220001E+02 -0.53704E+06
 0.56270000E+02 -0.54108E+06
 0.56320000E+02 -0.45129E+06
 0.56370003E+02 -0.28798E+06
 0.56420002E+02 -0.23364E+06
 0.56470001E+02 -0.33073E+06
 0.56520000E+02 -0.40162E+06
 0.56570000E+02 -0.33179E+06
 0.56620003E+02 -0.25168E+06
 0.56670002E+02 -0.19845E+06
 0.56720001E+02 -0.10473E+06
 0.56770000E+02 -0.75619E+05
 0.56820000E+02 -0.48845E+05
 0.56870003E+02 -0.16573E+05
 0.56920002E+02 -0.13403E+06
 0.56970001E+02 -0.29009E+06
 0.57020000E+02 -0.27553E+06
 0.57070000E+02 -0.29514E+05
 0.57120003E+02  0.19759E+06
 0.57170002E+02  0.27024E+06
 0.57220001E+02  0.32337E+06
 0.57270000E+02  0.29666E+06
 0.57320000E+02  0.29348E+06
 0.57370003E+02  0.36844E+06
 0.57420002E+02  0.28818E+06
 0.57470001E+02  0.42783E+05
 0.57520000E+02 -0.24740E+06
 0.57570000E+02 -0.43472E+06
 0.57620003E+02 -0.49260E+06
 0.57670002E+02 -0.51138E+06
 0.57720001E+02 -0.41936E+06
 0.57770000E+02 -0.29138E+06
 0.57820000E+02 -0.25424E+06
 0.57870003E+02 -0.20472E+06
 0.57920002E+02 -0.16627E+06
 0.57970001E+02 -0.16953E+06
 0.58020000E+02 -0.17822E+06
 0.58070000E+02 -0.28068E+06
 0.58120003E+02 -0.41238E+06
 0.58170002E+02 -0.42743E+06
 0.58220001E+02 -0.33031E+06
 0.58270000E+02 -0.28609E+06
 0.58320000E+02 -0.35339E+06
 0.58370003E+02 -0.40455E+06
 0.58420002E+02 -0.55721E+06
 0.58470001E+02 -0.83409E+06
 0.58520000E+02 -0.97481E+06
 0.58570000E+02 -0.94117E+06
 0.58620003E+02 -0.87231E+06
 0.58670002E+02 -0.81113E+06
 0.58720001E+02 -0.69746E+06
 0.58770000E+02 -0.46180E+06
 0.58820000E+02 -0.98214E+05
 0.58870003E+02  0.21754E+06
 0.58920002E+02  0.44028E+06
 0.58970001E+02  0.70845E+06
 0.59020000E+02  0.96940E+06
 0.59070000E+02  0.12086E+07
 0.59120003E+02  0.14221E+07
 0.59170002E+02  0.15568E+07
 0.59220001E+02  0.16720E+07
 0.59270000E+02  0.17542E+07
 0.59320000E+02  0.17811E+07
 0.59370003E+02  0.17500E+07
 0.59420002E+02  0.16330E+07
 0.59470001E+02  0.14277E+07
 0.59520000E+02  0.11880E+07
 0.59570000E+02  0.10022E+07
 0.59620003E+02  0.80121E+06
 0.59670002E+02  0.51626E+06
 0.59720001E+02  0.31344E+06
 0.59770000E+02  0.25684E+06
 0.59820000E+02  0.17914E+06
 0.59870003E+02  0.14896E+05
 0.59920002E+02 -0.23592E+06
 0.59970001E+02 -0.54985E+06
 0.60020000E+02 -0.86160E+06
 0.60070000E+02 -0.10536E+07
 0.60120003E+02 -0.11127E+07
 0.60170002E+02 -0.11964E+07
 0.60220001E+02 -0.12125E+07
 0.60270000E+02 -0.11274E+07
 0.60320000E+02 -0.10384E+07
 0.60370003E+02 -0.90939E+06
 0.60420002E+02 -0.73699E+06
 0.60470001E+02 -0.48482E+06
 0.60520000E+02 -0.21796E+06
 0.60570000E+02 -0.76120E+04
 0.60620003E+02  0.19355E+06
 0.60670002E+02  0.40114E+06
 0.60720001E+02  0.65621E+06
 0.60770000E+02  0.92352E+06
 0.60820000E+02  0.10809E+07
 0.60870003E+02  0.11525E+07
 0.60920002E+02  0.11957E+07
 0.60970001E+02  0.11116E+07
 0.61020000E+02  0.87026E+06
 0.61070004E+02  0.61523E+06
 0.61119999E+02  0.40916E+06
 0.61170002E+02  0.19453E+06
 0.61220005E+02 -0.42366E+05
 0.61270000E+02 -0.28370E+06
 0.61320004E+02 -0.53694E+06
 0.61369999E+02 -0.78375E+06
 0.61420002E+02 -0.89009E+06
 0.61470005E+02 -0.82883E+06
 0.61520000E+02 -0.72351E+06
 0.61570004E+02 -0.62730E+06
 0.61619999E+02 -0.57844E+06
 0.61670002E+02 -0.58333E+06
 0.61720005E+02 -0.59970E+06
 0.61770000E+02 -0.57462E+06
 0.61820004E+02 -0.54738E+06
 0.61869999E+02 -0.56288E+06
 0.61920002E+02 -0.53196E+06
 0.61970005E+02 -0.46848E+06
 0.62020000E+02 -0.51366E+06
 0.62070004E+02 -0.65461E+06
 0.62119999E+02 -0.76868E+06
 0.62170002E+02 -0.91800E+06
 0.62220005E+02 -0.11271E+07
 0.62270000E+02 -0.12266E+07
 0.62320004E+02 -0.12157E+07
 0.62369999E+02 -0.11012E+07
 0.62420002E+02 -0.82761E+06
 0.62470005E+02 -0.51021E+06
 0.62520000E+02 -0.22648E+06
 0.62570004E+02  0.11017E+05
 0.62619999E+02  0.19030E+06
 0.62670002E+02  0.29378E+06
 0.62720005E+02  0.32617E+06
 0.62770000E+02  0.37888E+06
 0.62820004E+02  0.45222E+06
 0.62869999E+02  0.44288E+06
 0.62920002E+02  0.27669E+06
 0.62970005E+02 -0.57965E+05
 0.63020000E+02 -0.40720E+06
 0.63070004E+02 -0.61850E+06
 0.63119999E+02 -0.67299E+06
 0.63170002E+02 -0.55370E+06
 0.63220005E+02 -0.37397E+06
 0.63270000E+02 -0.26021E+06
 0.63320004E+02 -0.28987E+06
 0.63369999E+02 -0.45092E+06
 0.63420002E+02 -0.51472E+06
 0.63470005E+02 -0.41164E+06
 0.63520000E+02 -0.21079E+06
 0.63570004E+02 -0.92210E+04
 0.63619999E+02  0.11417E+06
 0.63670002E+02  0.18558E+06
 0.63720005E+02  0.21605E+06
 0.63770000E+02  0.24243E+06
 0.63820004E+02  0.26937E+06
 0.63869999E+02  0.32745E+06
 0.63920002E+02  0.34846E+06
 0.63970005E+02  0.28827E+06
 0.64019997E+02  0.25842E+06
 0.64070000E+02  0.20823E+06
 0.64119995E+02  0.14449E+06
 0.64169998E+02  0.93204E+05
 0.64220001E+02 -0.53568E+05
 0.64269997E+02 -0.34448E+06
 0.64320000E+02 -0.68333E+06
 0.64369995E+02 -0.95990E+06
 0.64419998E+02 -0.12209E+07
 0.64470001E+02 -0.14215E+07
 0.64519997E+02 -0.14766E+07
 0.64570000E+02 -0.14158E+07
 0.64619995E+02 -0.12200E+07
 0.64669998E+02 -0.95806E+06
 0.64720001E+02 -0.70032E+06
 0.64769997E+02 -0.45494E+06
 0.64820000E+02 -0.30199E+06
 0.64869995E+02 -0.18317E+06
 0.64919998E+02 -0.40261E+05
 0.64970001E+02  0.11211E+06
 0.65019997E+02  0.30482E+06
 0.65070000E+02  0.48340E+06
 0.65119995E+02  0.63617E+06
 0.65169998E+02  0.70270E+06
 0.65220001E+02  0.57980E+06
 0.65269997E+02  0.36714E+06
 0.65320000E+02  0.20172E+06
 0.65369995E+02  0.12945E+06
 0.65419998E+02  0.10461E+06
 0.65470001E+02  0.12192E+06
 0.65519997E+02  0.22153E+06
 0.65570000E+02  0.36725E+06
 0.65619995E+02  0.55490E+06
 0.65669998E+02  0.77184E+06
 0.65720001E+02  0.92374E+06
 0.65769997E+02  0.96052E+06
 0.65820000E+02  0.88885E+06
 0.65869995E+02  0.68404E+06
 0.65919998E+02  0.45394E+06
 0.65970001E+02  0.35302E+06
 0.66019997E+02  0.31539E+06
 0.66070000E+02  0.31989E+06
 0.66119995E+02  0.34951E+06
 0.66169998E+02  0.34418E+06
 0.66220001E+02  0.43351E+06
 0.66269997E+02  0.58620E+06
 0.66320000E+02  0.65228E+06
 0.66369995E+02  0.69788E+06
 0.66419998E+02  0.76606E+06
 0.66470001E+02  0.79663E+06
 0.66519997E+02  0.75668E+06
 0.66570000E+02  0.61501E+06
 0.66619995E+02  0.44336E+06
 0.66669998E+02  0.34956E+06
 0.66720001E+02  0.36616E+06
 0.66769997E+02  0.54383E+06
 0.66820000E+02  0.76184E+06
 0.66869995E+02  0.87427E+06
 0.66919998E+02  0.92448E+06
 0.66970001E+02  0.92738E+06
 0.67019997E+02  0.91121E+06
 0.67070000E+02  0.90142E+06
 0.67119995E+02  0.86859E+06
 0.67169998E+02  0.78772E+06
 0.67220001E+02  0.59543E+06
 0.67269997E+02  0.34489E+06
 0.67320000E+02  0.12971E+06
 0.67369995E+02 -0.89548E+05
 0.67419998E+02 -0.34438E+06
 0.67470001E+02 -0.63350E+06
 0.67519997E+02 -0.85404E+06
 0.67570000E+02 -0.88422E+06
 0.67619995E+02 -0.79425E+06
 0.67669998E+02 -0.68198E+06
 0.67720001E+02 -0.56167E+06
 0.67769997E+02 -0.40533E+06
 0.67820000E+02 -0.20097E+06
 0.67869995E+02 -0.28970E+04
 0.67919998E+02  0.20662E+06
 0.67970001E+02  0.44218E+06
 0.68019997E+02  0.60496E+06
 0.68070000E+02  0.67833E+06
 0.68119995E+02  0.69622E+06
 0.68169998E+02  0.62010E+06
 0.68220001E+02  0.44144E+06
 0.68269997E+02  0.23894E+06
 0.68320000E+02  0.83842E+05
 0.68369995E+02 -0.19795E+05
 0.68419998E+02 -0.87126E+05
 0.68470001E+02 -0.16722E+06
 0.68519997E+02 -0.25117E+06
 0.68570000E+02 -0.25618E+06
 0.68619995E+02 -0.21652E+06
 0.68669998E+02 -0.25975E+06
 0.68720001E+02 -0.45931E+06
 0.68769997E+02 -0.77535E+06
 0.68820000E+02 -0.11667E+07
 0.68869995E+02 -0.15891E+07
 0.68919998E+02 -0.19669E+07
 0.68970001E+02 -0.22583E+07
 0.69019997E+02 -0.24580E+07
 0.69070000E+02 -0.25933E+07
 0.69119995E+02 -0.26461E+07
 0.69169998E+02 -0.26300E+07
 0.69220001E+02 -0.25558E+07
 0.69269997E+02 -0.23824E+07
 0.69320000E+02 -0.21342E+07
 0.69369995E+02 -0.18594E+07
 0.69419998E+02 -0.15992E+07
 0.69470001E+02 -0.13925E+07
 0.69519997E+02 -0.12319E+07
 0.69570000E+02 -0.10426E+07
 0.69619995E+02 -0.79777E+06
 0.69669998E+02 -0.55506E+06
 0.69720001E+02 -0.35960E+06
 0.69769997E+02 -0.22522E+06
 0.69820000E+02 -0.12557E+06
 0.69869995E+02 -0.44153E+05
 0.69919998E+02  0.66884E+05
 0.69970001E+02  0.25371E+06
 0.70019997E+02  0.43993E+06
 0.70070000E+02  0.57910E+06
 0.70119995E+02  0.68352E+06
 0.70169998E+02  0.78629E+06
 0.70220001E+02  0.94851E+06
 0.70269997E+02  0.11163E+07
 0.70320000E+02  0.12109E+07
 0.70369995E+02  0.12211E+07
 0.70419998E+02  0.11317E+07
 0.70470001E+02  0.95458E+06
 0.70519997E+02  0.77800E+06
 0.70570000E+02  0.71563E+06
 0.70619995E+02  0.76647E+06
 0.70669998E+02  0.84626E+06
 0.70720001E+02  0.92384E+06
 0.70769997E+02  0.10266E+07
 0.70820000E+02  0.11056E+07
 0.70869995E+02  0.11091E+07
 0.70919998E+02  0.10499E+07
 0.70970001E+02  0.90829E+06
 0.71019997E+02  0.76932E+06
 0.71070000E+02  0.69183E+06
 0.71119995E+02  0.66231E+06
 0.71169998E+02  0.70300E+06
 0.71220001E+02  0.77805E+06
 0.71269997E+02  0.87176E+06
 0.71320000E+02  0.93050E+06
 0.71369995E+02  0.95708E+06
 0.71419998E+02  0.10131E+07
 0.71470001E+02  0.10840E+07
 0.71519997E+02  0.11732E+07
 0.71570000E+02  0.12411E+07
 0.71619995E+02  0.12935E+07
 0.71669998E+02  0.13710E+07
 0.71720001E+02  0.14344E+07
 0.71769997E+02  0.14527E+07
 0.71820000E+02  0.14262E+07
 0.71869995E+02  0.13795E+07
 0.71919998E+02  0.13050E+07
 0.71970001E+02  0.11717E+07
 0.72019997E+02  0.98819E+06
 0.72070000E+02  0.74777E+06
 0.72119995E+02  0.46873E+06
 0.72169998E+02  0.19719E+06
 0.72220001E+02 -0.61060E+05
 0.72269997E+02 -0.24997E+06
 0.72320000E+02 -0.31469E+06
 0.72369995E+02 -0.29428E+06
 0.72419998E+02 -0.30755E+06
 0.72470001E+02 -0.45525E+06
 0.72519997E+02 -0.70856E+06
 0.72570000E+02 -0.93911E+06
 0.72619995E+02 -0.10611E+07
 0.72669998E+02 -0.11264E+07
 0.72720001E+02 -0.11725E+07
 0.72769997E+02 -0.12077E+07
 0.72820000E+02 -0.12369E+07
 0.72869995E+02 -0.12387E+07
 0.72919998E+02 -0.12503E+07
 0.72970001E+02 -0.12578E+07
 0.73019997E+02 -0.12245E+07
 0.73070000E+02 -0.11819E+07
 0.73119995E+02 -0.11222E+07
 0.73169998E+02 -0.97852E+06
 0.73220001E+02 -0.71660E+06
 0.73269997E+02 -0.42026E+06
 0.73320000E+02 -0.19203E+06
 0.73369995E+02 -0.28562E+05
 0.73419998E+02  0.10399E+06
 0.73470001E+02  0.17347E+06
 0.73519997E+02  0.17402E+06
 0.73570000E+02  0.16856E+06
 0.73619995E+02  0.12529E+06
 0.73669998E+02  0.14960E+05
 0.73720001E+02 -0.10037E+06
 0.73769997E+02 -0.19599E+06
 0.73820000E+02 -0.22588E+06
 0.73869995E+02 -0.17543E+06
 0.73919998E+02 -0.80463E+05
 0.73970001E+02  0.32289E+05
 0.74019997E+02  0.12608E+06
 0.74070000E+02  0.19571E+06
 0.74119995E+02  0.19321E+06
 0.74169998E+02  0.11523E+06
 0.74220001E+02  0.38709E+05
 0.74269997E+02  0.14146E+05
 0.74320000E+02  0.73860E+05
 0.74369995E+02  0.19060E+06
 0.74419998E+02  0.30516E+06
 0.74470001E+02  0.36076E+06
 0.74519997E+02  0.31944E+06
 0.74570000E+02  0.23585E+06
 0.74619995E+02  0.19584E+06
 0.74669998E+02  0.20579E+06
 0.74720001E+02  0.26911E+06
 0.74769997E+02  0.36288E+06
 0.74820000E+02  0.40053E+06
 0.74869995E+02  0.35708E+06
 0.74919998E+02  0.29434E+06
 0.74970001E+02  0.27559E+06
 0.75019997E+02  0.33225E+06
 0.75070000E+02  0.48155E+06
 0.75119995E+02  0.66345E+06
 0.75169998E+02  0.79423E+06
 0.75220001E+02  0.83586E+06
 0.75269997E+02  0.79762E+06
 0.75320000E+02  0.71668E+06
 0.75369995E+02  0.57686E+06
 0.75419998E+02  0.39295E+06
 0.75470001E+02  0.24177E+06
 0.75519997E+02  0.17418E+06
 0.75570000E+02  0.19030E+06
 0.75619995E+02  0.21252E+06
 0.75669998E+02  0.17190E+06
 0.75720001E+02  0.10231E+06
 0.75769997E+02  0.44031E+05
 0.75820000E+02  0.56840E+04
 0.75869995E+02  0.15715E+05
 0.75919998E+02  0.10287E+06
 0.75970001E+02  0.24197E+06
 0.76019997E+02  0.31815E+06
 0.76070000E+02  0.26871E+06
 0.76119995E+02  0.15721E+06
 0.76169998E+02  0.47357E+05
 0.76220001E+02 -0.73094E+05
 0.76269997E+02 -0.27735E+06
 0.76320000E+02 -0.53194E+06
 0.76369995E+02 -0.70448E+06
 0.76419998E+02 -0.72321E+06
 0.76470001E+02 -0.61241E+06
 0.76519997E+02 -0.48542E+06
 0.76570000E+02 -0.40993E+06
 0.76619995E+02 -0.39420E+06
 0.76669998E+02 -0.43126E+06
 0.76720001E+02 -0.49916E+06
 0.76769997E+02 -0.60600E+06
 0.76820000E+02 -0.74329E+06
 0.76869995E+02 -0.87523E+06
 0.76919998E+02 -0.94890E+06
 0.76970001E+02 -0.93046E+06
 0.77019997E+02 -0.83718E+06
 0.77070000E+02 -0.71280E+06
 0.77119995E+02 -0.58512E+06
 0.77169998E+02 -0.49484E+06
 0.77220001E+02 -0.47329E+06
 0.77269997E+02 -0.45445E+06
 0.77320000E+02 -0.42589E+06
 0.77369995E+02 -0.42164E+06
 0.77419998E+02 -0.41442E+06
 0.77470001E+02 -0.38499E+06
 0.77519997E+02 -0.31083E+06
 0.77570000E+02 -0.15631E+06
 0.77619995E+02  0.91626E+05
 0.77669998E+02  0.39614E+06
 0.77720001E+02  0.69245E+06
 0.77769997E+02  0.93656E+06
 0.77820000E+02  0.11377E+07
 0.77869995E+02  0.13111E+07
 0.77919998E+02  0.14350E+07
 0.77970001E+02  0.14778E+07
 0.78019997E+02  0.14186E+07
 0.78070000E+02  0.13108E+07
 0.78119995E+02  0.12281E+07
 0.78169998E+02  0.11691E+07
 0.78220001E+02  0.11196E+07
 0.78269997E+02  0.10770E+07
 0.78320000E+02  0.10498E+07
 0.78369995E+02  0.10520E+07
 0.78419998E+02  0.10663E+07
 0.78470001E+02  0.10561E+07
 0.78519997E+02  0.98506E+06
 0.78570000E+02  0.88649E+06
 0.78619995E+02  0.80147E+06
 0.78669998E+02  0.72133E+06
 0.78720001E+02  0.61975E+06
 0.78769997E+02  0.50319E+06
 0.78820000E+02  0.42524E+06
 0.78869995E+02  0.38746E+06
 0.78919998E+02  0.38668E+06
 0.78970001E+02  0.37276E+06
 0.79019997E+02  0.31008E+06
 0.79070000E+02  0.22005E+06
 0.79119995E+02  0.88261E+05
 0.79169998E+02 -0.98760E+04
 0.79220001E+02 -0.29143E+05
 0.79269997E+02 -0.19374E+05
 0.79320000E+02  0.21387E+05
 0.79369995E+02  0.80151E+05
 0.79419998E+02  0.95320E+05
 0.79470001E+02  0.47169E+05
 0.79519997E+02 -0.39600E+03
 0.79570000E+02  0.24420E+05
 0.79619995E+02  0.13762E+06
 0.79669998E+02  0.28386E+06
 0.79720001E+02  0.40920E+06
 0.79769997E+02  0.53200E+06
 0.79820000E+02  0.63671E+06
 0.79869995E+02  0.71000E+06
 0.79919998E+02  0.75459E+06
 0.79970001E+02  0.76293E+06
 0.80019997E+02  0.77378E+06
 0.80070000E+02  0.79594E+06
 0.80119995E+02  0.79178E+06
 0.80169998E+02  0.73471E+06
 0.80220001E+02  0.65534E+06
 0.80269997E+02  0.60462E+06
 0.80320000E+02  0.60290E+06
 0.80369995E+02  0.63607E+06
 0.80419998E+02  0.66290E+06
 0.80470001E+02  0.67887E+06
 0.80519997E+02  0.69394E+06
 0.80570000E+02  0.67457E+06
 0.80619995E+02  0.59072E+06
 0.80669998E+02  0.47972E+06
 0.80720001E+02  0.39623E+06
 0.80769997E+02  0.33343E+06
 0.80820000E+02  0.28610E+06
 0.80869995E+02  0.26513E+06
 0.80919998E+02  0.22755E+06
 0.80970001E+02  0.16932E+06
 0.81019997E+02  0.12184E+06
 0.81070000E+02  0.76173E+05
 0.81119995E+02  0.51509E+05
 0.81169998E+02  0.54843E+05
 0.81220001E+02  0.74965E+05
 0.81269997E+02  0.86742E+05
 0.81320000E+02  0.40037E+05
 0.81369995E+02 -0.70846E+05
 0.81419998E+02 -0.19773E+06
 0.81470001E+02 -0.28106E+06
 0.81519997E+02 -0.34102E+06
 0.81570000E+02 -0.40271E+06
 0.81619995E+02 -0.46993E+06
 0.81669998E+02 -0.56006E+06
 0.81720001E+02 -0.63628E+06
 0.81769997E+02 -0.66875E+06
 0.81820000E+02 -0.66316E+06
 0.81869995E+02 -0.64333E+06
 0.81919998E+02 -0.62577E+06
 0.81970001E+02 -0.62172E+06
 0.82019997E+02 -0.63625E+06
 0.82070000E+02 -0.64197E+06
 0.82119995E+02 -0.62394E+06
 0.82169998E+02 -0.56402E+06
 0.82220001E+02 -0.45296E+06
 0.82269997E+02 -0.33007E+06
 0.82320000E+02 -0.24144E+06
 0.82369995E+02 -0.17820E+06
 0.82419998E+02 -0.10478E+06
 0.82470001E+02 -0.20751E+05
 0.82519997E+02  0.62014E+05
 0.82570000E+02  0.13080E+06
 0.82619995E+02  0.17488E+06
 0.82669998E+02  0.18963E+06
 0.82720001E+02  0.17607E+06
 0.82769997E+02  0.14661E+06
 0.82820000E+02  0.12185E+06
 0.82869995E+02  0.99234E+05
 0.82919998E+02  0.53971E+05
 0.82970001E+02 -0.19094E+05
 0.83019997E+02 -0.90125E+05
 0.83070000E+02 -0.13595E+06
 0.83119995E+02 -0.15555E+06
 0.83169998E+02 -0.13174E+06
 0.83220001E+02 -0.68962E+05
 0.83269997E+02 -0.38710E+04
 0.83320000E+02  0.50840E+04
 0.83369995E+02 -0.53429E+05
 0.83419998E+02 -0.11087E+06
 0.83470001E+02 -0.11749E+06
 0.83519997E+02 -0.62275E+05
 0.83570000E+02  0.27665E+05
 0.83619995E+02  0.12750E+06
 0.83669998E+02  0.22993E+06
 0.83720001E+02  0.30220E+06
 0.83769997E+02  0.32877E+06
 0.83820000E+02  0.31055E+06
 0.83869995E+02  0.26063E+06
 0.83919998E+02  0.22967E+06
 0.83970001E+02  0.27179E+06
 0.84019997E+02  0.39702E+06
 0.84070000E+02  0.53141E+06
 0.84119995E+02  0.61088E+06
 0.84169998E+02  0.63977E+06
 0.84220001E+02  0.64994E+06
 0.84269997E+02  0.69428E+06
 0.84320000E+02  0.76517E+06
 0.84369995E+02  0.81734E+06
 0.84419998E+02  0.84732E+06
 0.84470001E+02  0.85904E+06
 0.84519997E+02  0.84225E+06
 0.84570000E+02  0.77362E+06
 0.84619995E+02  0.63800E+06
 0.84669998E+02  0.45788E+06
 0.84720001E+02  0.27878E+06
 0.84769997E+02  0.12726E+06
 0.84820000E+02  0.89700E+04
 0.84869995E+02 -0.62337E+05
 0.84919998E+02 -0.78679E+05
 0.84970001E+02 -0.54378E+05
 0.85019997E+02 -0.12882E+05
 0.85070000E+02  0.80830E+04
 0.85119995E+02 -0.21834E+05
 0.85169998E+02 -0.92587E+05
 0.85220001E+02 -0.16736E+06
 0.85269997E+02 -0.20526E+06
 0.85320000E+02 -0.21117E+06
 0.85369995E+02 -0.20332E+06
 0.85419998E+02 -0.16429E+06
 0.85470001E+02 -0.10340E+06
 0.85519997E+02 -0.44361E+05
 0.85570000E+02 -0.19390E+05
 0.85619995E+02 -0.51687E+05
 0.85669998E+02 -0.10348E+06
 0.85720001E+02 -0.14486E+06
 0.85769997E+02 -0.17028E+06
 0.85820000E+02 -0.20025E+06
 0.85869995E+02 -0.26504E+06
 0.85919998E+02 -0.32140E+06
 0.85970001E+02 -0.31860E+06
 0.86019997E+02 -0.25515E+06
 0.86070000E+02 -0.17996E+06
 0.86119995E+02 -0.14787E+06
 0.86169998E+02 -0.16827E+06
 0.86220001E+02 -0.24328E+06
 0.86269997E+02 -0.30612E+06
 0.86320000E+02 -0.29323E+06
 0.86369995E+02 -0.23034E+06
 0.86419998E+02 -0.15695E+06
 0.86470001E+02 -0.81127E+05
 0.86519997E+02  0.10760E+05
 0.86570000E+02  0.10352E+06
 0.86619995E+02  0.18806E+06
 0.86669998E+02  0.24766E+06
 0.86720001E+02  0.27384E+06
 0.86769997E+02  0.28732E+06
 0.86820000E+02  0.31099E+06
 0.86869995E+02  0.37181E+06
 0.86919998E+02  0.45488E+06
 0.86970001E+02  0.54448E+06
 0.87019997E+02  0.60971E+06
 0.87070000E+02  0.60915E+06
 0.87119995E+02  0.57090E+06
 0.87169998E+02  0.53629E+06
 0.87220001E+02  0.53500E+06
 0.87269997E+02  0.58012E+06
 0.87320000E+02  0.65499E+06
 0.87369995E+02  0.72484E+06
 0.87419998E+02  0.76395E+06
 0.87470001E+02  0.80212E+06
 0.87519997E+02  0.85564E+06
 0.87570000E+02  0.90846E+06
 0.87619995E+02  0.95179E+06
 0.87669998E+02  0.99230E+06
 0.87720001E+02  0.10662E+07
 0.87769997E+02  0.11625E+07
 0.87820000E+02  0.12236E+07
 0.87869995E+02  0.12318E+07
 0.87919998E+02  0.11997E+07
 0.87970001E+02  0.11332E+07
 0.88019997E+02  0.10517E+07
 0.88070000E+02  0.99808E+06
 0.88119995E+02  0.97027E+06
 0.88169998E+02  0.92044E+06
 0.88220001E+02  0.85046E+06
 0.88269997E+02  0.78640E+06
 0.88320000E+02  0.71607E+06
 0.88369995E+02  0.63560E+06
 0.88419998E+02  0.55342E+06
 0.88470001E+02  0.49211E+06
 0.88519997E+02  0.48312E+06
 0.88570000E+02  0.49218E+06
 0.88619995E+02  0.47251E+06
 0.88669998E+02  0.40296E+06
 0.88720001E+02  0.28860E+06
 0.88769997E+02  0.17896E+06
 0.88820000E+02  0.97057E+05
 0.88869995E+02  0.47391E+05
 0.88919998E+02  0.22890E+05
 0.88970001E+02  0.74970E+04
 0.89019997E+02 -0.13330E+05
 0.89070000E+02 -0.70688E+05
 0.89119995E+02 -0.15495E+06
 0.89169998E+02 -0.23618E+06
 0.89220001E+02 -0.29813E+06
 0.89269997E+02 -0.31130E+06
 0.89320000E+02 -0.26798E+06
 0.89369995E+02 -0.20162E+06
 0.89419998E+02 -0.13290E+06
 0.89470001E+02 -0.57415E+05
 0.89519997E+02  0.35078E+05
 0.89570000E+02  0.15996E+06
 0.89619995E+02  0.32226E+06
 0.89669998E+02  0.48455E+06
 0.89720001E+02  0.59995E+06
 0.89769997E+02  0.68035E+06
 0.89820000E+02  0.73403E+06
 0.89869995E+02  0.75837E+06
 0.89919998E+02  0.76536E+06
 0.89970001E+02  0.75326E+06
 0.90019997E+02  0.73399E+06
 0.90070000E+02  0.70769E+06
 0.90119995E+02  0.64748E+06
 0.90169998E+02  0.54675E+06
 0.90220001E+02  0.42567E+06
 0.90269997E+02  0.29659E+06
 0.90320000E+02  0.18573E+06
 0.90369995E+02  0.13442E+06
 0.90419998E+02  0.14000E+06
 0.90470001E+02  0.17092E+06
 0.90519997E+02  0.19835E+06
 0.90570000E+02  0.18738E+06
 0.90619995E+02  0.13022E+06
 0.90669998E+02  0.61873E+05
 0.90720001E+02  0.21040E+05
 0.90769997E+02  0.20802E+05
 0.90820000E+02  0.37899E+05
 0.90869995E+02  0.54696E+05
 0.90919998E+02  0.79021E+05
 0.90970001E+02  0.12059E+06
 0.91019997E+02  0.16375E+06
 0.91070000E+02  0.18807E+06
 0.91119995E+02  0.21201E+06
 0.91169998E+02  0.23116E+06
 0.91220001E+02  0.21945E+06
 0.91269997E+02  0.19562E+06
 0.91320000E+02  0.18726E+06
 0.91369995E+02  0.19128E+06
 0.91419998E+02  0.19248E+06
 0.91470001E+02  0.19348E+06
 0.91519997E+02  0.21008E+06
 0.91570000E+02  0.24523E+06
 0.91619995E+02  0.29152E+06
 0.91669998E+02  0.33235E+06
 0.91720001E+02  0.33223E+06
 0.91769997E+02  0.27618E+06
 0.91820000E+02  0.17732E+06
 0.91869995E+02  0.65236E+05
 0.91919998E+02 -0.27446E+05
 0.91970001E+02 -0.92851E+05
 0.92019997E+02 -0.13567E+06
 0.92070000E+02 -0.16504E+06
 0.92119995E+02 -0.17317E+06
 0.92169998E+02 -0.17365E+06
 0.92220001E+02 -0.18761E+06
 0.92269997E+02 -0.20675E+06
 0.92320000E+02 -0.22355E+06
 0.92369995E+02 -0.21582E+06
 0.92419998E+02 -0.17160E+06
 0.92470001E+02 -0.92622E+05
 0.92519997E+02  0.34710E+04
 0.92570000E+02  0.11077E+06
 0.92619995E+02  0.23291E+06
 0.92669998E+02  0.33298E+06
 0.92720001E+02  0.41555E+06
 0.92769997E+02  0.49730E+06
 0.92820000E+02  0.57279E+06
 0.92869995E+02  0.64614E+06
 0.92919998E+02  0.68955E+06
 0.92970001E+02  0.67759E+06
 0.93019997E+02  0.60627E+06
 0.93070000E+02  0.50224E+06
 0.93119995E+02  0.39979E+06
 0.93169998E+02  0.31383E+06
 0.93220001E+02  0.26408E+06
 0.93269997E+02  0.25314E+06
 0.93320000E+02  0.27358E+06
 0.93369995E+02  0.31347E+06
 0.93419998E+02  0.33467E+06
 0.93470001E+02  0.30805E+06
 0.93519997E+02  0.25758E+06
 0.93570000E+02  0.22696E+06
 0.93619995E+02  0.22066E+06
 0.93669998E+02  0.21304E+06
 0.93720001E+02  0.19642E+06
 0.93769997E+02  0.16434E+06
 0.93820000E+02  0.11537E+06
 0.93869995E+02  0.62231E+05
 0.93919998E+02  0.91390E+04
 0.93970001E+02 -0.32437E+05
 0.94019997E+02 -0.70881E+05
 0.94070000E+02 -0.10496E+06
 0.94119995E+02 -0.11657E+06
 0.94169998E+02 -0.11737E+06
 0.94220001E+02 -0.10853E+06
 0.94269997E+02 -0.89912E+05
 0.94320000E+02 -0.65403E+05
 0.94369995E+02 -0.44670E+05
 0.94419998E+02 -0.33650E+05
 0.94470001E+02 -0.16234E+05
 0.94519997E+02 -0.57410E+04
 0.94570000E+02 -0.53330E+04
 0.94619995E+02 -0.18940E+04
 0.94669998E+02  0.12065E+05
 0.94720001E+02  0.48811E+05
 0.94769997E+02  0.85286E+05
 0.94820000E+02  0.10107E+06
 0.94869995E+02  0.11054E+06
 0.94919998E+02  0.13585E+06
 0.94970001E+02  0.17101E+06
 0.95019997E+02  0.19000E+06
 0.95070000E+02  0.19208E+06
 0.95119995E+02  0.18062E+06
 0.95169998E+02  0.15952E+06
 0.95220001E+02  0.14494E+06
 0.95269997E+02  0.13290E+06
 0.95320000E+02  0.11306E+06
 0.95369995E+02  0.92123E+05
 0.95419998E+02  0.52572E+05
 0.95470001E+02 -0.31501E+05
 0.95519997E+02 -0.13846E+06
 0.95570000E+02 -0.24076E+06
 0.95619995E+02 -0.31984E+06
 0.95669998E+02 -0.33683E+06
 0.95720001E+02 -0.29602E+06
 0.95769997E+02 -0.24911E+06
 0.95820000E+02 -0.20831E+06
 0.95869995E+02 -0.16146E+06
 0.95919998E+02 -0.12600E+06
 0.95970001E+02 -0.11002E+06
 0.96019997E+02 -0.81248E+05
 0.96070000E+02 -0.30275E+05
 0.96119995E+02  0.21282E+05
 0.96169998E+02  0.62205E+05
 0.96220001E+02  0.79899E+05
 0.96269997E+02  0.68942E+05
 0.96320000E+02  0.44529E+05
 0.96369995E+02  0.16560E+05
 0.96419998E+02 -0.20642E+05
 0.96470001E+02 -0.59500E+05
 0.96519997E+02 -0.81289E+05
 0.96570000E+02 -0.80099E+05
 0.96619995E+02 -0.54988E+05
 0.96669998E+02 -0.53790E+04
 0.96720001E+02  0.44286E+05
 0.96769997E+02  0.58292E+05
 0.96820000E+02  0.38771E+05
 0.96869995E+02  0.61860E+04
 0.96919998E+02 -0.21898E+05
 0.96970001E+02 -0.98730E+04
 0.97019997E+02  0.67852E+05
 0.97070000E+02  0.19260E+06
 0.97119995E+02  0.33084E+06
 0.97169998E+02  0.46739E+06
 0.97220001E+02  0.59392E+06
 0.97269997E+02  0.69689E+06
 0.97320000E+02  0.77512E+06
 0.97369995E+02  0.83543E+06
 0.97419998E+02  0.89038E+06
 0.97470001E+02  0.96209E+06
 0.97519997E+02  0.10477E+07
 0.97570000E+02  0.11205E+07
 0.97619995E+02  0.11752E+07
 0.97669998E+02  0.12259E+07
 0.97720001E+02  0.12748E+07
 0.97769997E+02  0.13147E+07
 0.97820000E+02  0.13323E+07
 0.97869995E+02  0.13141E+07
 0.97919998E+02  0.12703E+07
 0.97970001E+02  0.12189E+07
 0.98019997E+02  0.11719E+07
 0.98070000E+02  0.11385E+07
 0.98119995E+02  0.11058E+07
 0.98169998E+02  0.10709E+07
 0.98220001E+02  0.10477E+07
 0.98269997E+02  0.10371E+07
 0.98320000E+02  0.10295E+07
 0.98369995E+02  0.10011E+07
 0.98419998E+02  0.94270E+06
 0.98470001E+02  0.86195E+06
 0.98519997E+02  0.76871E+06
 0.98570000E+02  0.68184E+06
 0.98619995E+02  0.62043E+06
 0.98669998E+02  0.58208E+06
 0.98720001E+02  0.56089E+06
 0.98769997E+02  0.56209E+06
 0.98820000E+02  0.58237E+06
 0.98869995E+02  0.61463E+06
 0.98919998E+02  0.64867E+06
 0.98970001E+02  0.67896E+06
 0.99019997E+02  0.70974E+06
 0.99070000E+02  0.73958E+06
 0.99119995E+02  0.75164E+06
 0.99169998E+02  0.73917E+06
 0.99220001E+02  0.73328E+06
 0.99269997E+02  0.76479E+06
 0.99320000E+02  0.84041E+06
 0.99369995E+02  0.92654E+06
 0.99419998E+02  0.97283E+06
 0.99470001E+02  0.97455E+06
 0.99519997E+02  0.94051E+06
 0.99570000E+02  0.87078E+06
 0.99619995E+02  0.76849E+06
 0.99669998E+02  0.64832E+06
 0.99720001E+02  0.52757E+06
 0.99769997E+02  0.41044E+06
 0.99820000E+02  0.30524E+06
 0.99869995E+02  0.21212E+06
 0.99919998E+02  0.13993E+06
 0.99970001E+02  0.93496E+05
 0.10002000E+03  0.55705E+05
 0.10007000E+03  0.25703E+05
 0.10012000E+03 -0.43060E+04
 0.10017000E+03 -0.45687E+05
 0.10022000E+03 -0.94696E+05
 0.10027000E+03 -0.14075E+06
 0.10032000E+03 -0.17942E+06
 0.10037000E+03 -0.22139E+06
 0.10042000E+03 -0.25029E+06
 0.10047000E+03 -0.25578E+06
 0.10052000E+03 -0.26155E+06
 0.10057000E+03 -0.27011E+06
 0.10062000E+03 -0.26857E+06
 0.10067000E+03 -0.24512E+06
 0.10072000E+03 -0.17852E+06
 0.10077000E+03 -0.63338E+05
 0.10082000E+03  0.51735E+05
 0.10087000E+03  0.12256E+06
 0.10092000E+03  0.14332E+06
 0.10097000E+03  0.11347E+06
 0.10102000E+03  0.53979E+05
 0.10107000E+03 -0.10725E+05
 0.10112000E+03 -0.54687E+05
 0.10117000E+03 -0.52315E+05
 0.10122000E+03 -0.16888E+05
 0.10127000E+03  0.11511E+05
 0.10132000E+03  0.95210E+04
 0.10137000E+03 -0.21291E+05
 0.10142000E+03 -0.73096E+05
 0.10147000E+03 -0.13106E+06
 0.10152000E+03 -0.18294E+06
 0.10157000E+03 -0.21613E+06
 0.10162000E+03 -0.22015E+06
 0.10167000E+03 -0.19542E+06
 0.10172000E+03 -0.14260E+06
 0.10177000E+03 -0.78962E+05
 0.10182000E+03 -0.26732E+05
 0.10187000E+03  0.13846E+05
 0.10192000E+03  0.54290E+05
 0.10197000E+03  0.11238E+06
 0.10202000E+03  0.19543E+06
 0.10207000E+03  0.29421E+06
 0.10212000E+03  0.39684E+06
 0.10217000E+03  0.48057E+06
 0.10222000E+03  0.52742E+06
 0.10227000E+03  0.54147E+06
 0.10232000E+03  0.53702E+06
 0.10237000E+03  0.53336E+06
 0.10242000E+03  0.53489E+06
 0.10247000E+03  0.53210E+06
 0.10252000E+03  0.52767E+06
 0.10257000E+03  0.50653E+06
 0.10262000E+03  0.46281E+06
 0.10267000E+03  0.42602E+06
 0.10272000E+03  0.40597E+06
 0.10277000E+03  0.39192E+06
 0.10282000E+03  0.37142E+06
 0.10287000E+03  0.35827E+06
 0.10292000E+03  0.36198E+06
 0.10297000E+03  0.36634E+06
 0.10302000E+03  0.36457E+06
 0.10307000E+03  0.35153E+06
 0.10312000E+03  0.32301E+06
 0.10317000E+03  0.27822E+06
 0.10322000E+03  0.22856E+06
 0.10327000E+03  0.18184E+06
 0.10332000E+03  0.14710E+06
 0.10337000E+03  0.14275E+06
 0.10342000E+03  0.17103E+06
 0.10347000E+03  0.21338E+06
 0.10352000E+03  0.23615E+06
 0.10357000E+03  0.21445E+06
 0.10362000E+03  0.14905E+06
 0.10367000E+03  0.75171E+05
 0.10372000E+03  0.33866E+05
 0.10377000E+03  0.38258E+05
 0.10382000E+03  0.73857E+05
 0.10387000E+03  0.10378E+06
 0.10392000E+03  0.99229E+05
 0.10397000E+03  0.65738E+05
 0.10402000E+03  0.34811E+05
 0.10407000E+03  0.30143E+05
 0.10412000E+03  0.43664E+05
 0.10417000E+03  0.57156E+05
 0.10422000E+03  0.77995E+05
 0.10427000E+03  0.12374E+06
 0.10432000E+03  0.18805E+06
 0.10437000E+03  0.25623E+06
 0.10442000E+03  0.32585E+06
 0.10447000E+03  0.40239E+06
 0.10452000E+03  0.48324E+06
 0.10457000E+03  0.55341E+06
 0.10462000E+03  0.59677E+06
 0.10467000E+03  0.60395E+06
 0.10472000E+03  0.58649E+06
 0.10477000E+03  0.56389E+06
 0.10482000E+03  0.54688E+06
 0.10487000E+03  0.54058E+06
 0.10492000E+03  0.53303E+06
 0.10497000E+03  0.50782E+06
 0.10502000E+03  0.47417E+06
 0.10507000E+03  0.44770E+06
 0.10512000E+03  0.43102E+06
 0.10517000E+03  0.41811E+06
 0.10522000E+03  0.38965E+06
 0.10527000E+03  0.34834E+06
 0.10532000E+03  0.31144E+06
 0.10537000E+03  0.27268E+06
 0.10542000E+03  0.23082E+06
 0.10547000E+03  0.19524E+06
 0.10552000E+03  0.18830E+06
 0.10557000E+03  0.22554E+06
 0.10562000E+03  0.29056E+06
 0.10567000E+03  0.35835E+06
 0.10572000E+03  0.39989E+06
 0.10577000E+03  0.41589E+06
 0.10582000E+03  0.43422E+06
 0.10587000E+03  0.46838E+06
 0.10592000E+03  0.50977E+06
 0.10597000E+03  0.54328E+06
 0.10602000E+03  0.56582E+06
 0.10607000E+03  0.56348E+06
 0.10612000E+03  0.51781E+06
 0.10617000E+03  0.43402E+06
 0.10622000E+03  0.33914E+06
 0.10627000E+03  0.24062E+06
 0.10632000E+03  0.13917E+06
 0.10637000E+03  0.51686E+05
 0.10642000E+03 -0.15765E+05
 0.10647000E+03 -0.58835E+05
 0.10652000E+03 -0.79938E+05
 0.10657000E+03 -0.80464E+05
 0.10662000E+03 -0.66825E+05
 0.10667000E+03 -0.53107E+05
 0.10672000E+03 -0.33836E+05
 0.10677000E+03  0.14650E+04
 0.10682000E+03  0.48602E+05
 0.10687000E+03  0.10785E+06
 0.10692000E+03  0.19573E+06
 0.10697000E+03  0.30183E+06
 0.10702000E+03  0.40000E+06
 0.10707000E+03  0.47985E+06
 0.10712000E+03  0.54122E+06
 0.10717000E+03  0.59235E+06
 0.10722000E+03  0.62730E+06
 0.10727000E+03  0.65490E+06
 0.10732000E+03  0.67893E+06
 0.10737000E+03  0.68934E+06
 0.10742000E+03  0.69306E+06
 0.10747000E+03  0.67033E+06
 0.10752000E+03  0.62503E+06
 0.10757000E+03  0.56613E+06
 0.10762000E+03  0.48315E+06
 0.10767000E+03  0.38644E+06
 0.10772000E+03  0.29173E+06
 0.10777000E+03  0.22776E+06
 0.10782000E+03  0.19601E+06
 0.10787000E+03  0.17050E+06
 0.10792000E+03  0.12686E+06
 0.10797000E+03  0.78462E+05
 0.10802000E+03  0.35257E+05
 0.10807000E+03 -0.18950E+04
 0.10812000E+03 -0.27610E+05
 0.10817000E+03 -0.55363E+05
 0.10822000E+03 -0.67376E+05
 0.10827000E+03 -0.70888E+05
 0.10832000E+03 -0.66245E+05
 0.10837000E+03 -0.56860E+05
 0.10842000E+03 -0.57764E+05
 0.10847000E+03 -0.61870E+05
 0.10852000E+03 -0.61557E+05
 0.10857000E+03 -0.36234E+05
 0.10862000E+03  0.98990E+04
 0.10867000E+03  0.81626E+05
 0.10872000E+03  0.16603E+06
 0.10877000E+03  0.23264E+06
 0.10882000E+03  0.27242E+06
 0.10887000E+03  0.28726E+06
 0.10892000E+03  0.29438E+06
 0.10897000E+03  0.31563E+06
 0.10902000E+03  0.35923E+06
 0.10907000E+03  0.39622E+06
 0.10912000E+03  0.41858E+06
 0.10917000E+03  0.43527E+06
 0.10922000E+03  0.44099E+06
 0.10927000E+03  0.44317E+06
 0.10932000E+03  0.44891E+06
 0.10937000E+03  0.46827E+06
 0.10942000E+03  0.50325E+06
 0.10947000E+03  0.53824E+06
 0.10952000E+03  0.55672E+06
 0.10957000E+03  0.55524E+06
 0.10962000E+03  0.54225E+06
 0.10967000E+03  0.52632E+06
 0.10972000E+03  0.52017E+06
 0.10977000E+03  0.52689E+06
 0.10982000E+03  0.53803E+06
 0.10987000E+03  0.55887E+06
 0.10992000E+03  0.59448E+06
 0.10997000E+03  0.63163E+06
 0.11002000E+03  0.66394E+06
 0.11007000E+03  0.69399E+06
 0.11012000E+03  0.72325E+06
 0.11017000E+03  0.75603E+06
 0.11022000E+03  0.78972E+06
 0.11027000E+03  0.82129E+06
 0.11032000E+03  0.85211E+06
 0.11037000E+03  0.87397E+06
 0.11042000E+03  0.87704E+06
 0.11047000E+03  0.86465E+06
 0.11052000E+03  0.84950E+06
 0.11057000E+03  0.84269E+06
 0.11062000E+03  0.84884E+06
 0.11067000E+03  0.86558E+06
 0.11072000E+03  0.88124E+06
 0.11077000E+03  0.87829E+06
 0.11082000E+03  0.83627E+06
 0.11087000E+03  0.74970E+06
 0.11092000E+03  0.64467E+06
 0.11097000E+03  0.54668E+06
 0.11102000E+03  0.46958E+06
 0.11107000E+03  0.40576E+06
 0.11112000E+03  0.33394E+06
 0.11117000E+03  0.25350E+06
 0.11122000E+03  0.16344E+06
 0.11127000E+03  0.75442E+05
 0.11132000E+03  0.19720E+04
 0.11137000E+03 -0.63307E+05
 0.11142000E+03 -0.12385E+06
 0.11147000E+03 -0.18716E+06
 0.11152000E+03 -0.25496E+06
 0.11157000E+03 -0.32491E+06
 0.11162000E+03 -0.38673E+06
 0.11167000E+03 -0.42540E+06
 0.11172000E+03 -0.43702E+06
 0.11177000E+03 -0.43149E+06
 0.11182000E+03 -0.43398E+06
 0.11187000E+03 -0.45522E+06
 0.11192000E+03 -0.47883E+06
 0.11197000E+03 -0.48127E+06
 0.11202000E+03 -0.46077E+06
 0.11207000E+03 -0.43568E+06
 0.11212000E+03 -0.40747E+06
 0.11217000E+03 -0.36756E+06
 0.11222000E+03 -0.31443E+06
 0.11227000E+03 -0.24801E+06
 0.11232000E+03 -0.18629E+06
 0.11237000E+03 -0.13991E+06
 0.11242000E+03 -0.87662E+05
 0.11247000E+03 -0.23641E+05
 0.11252000E+03  0.43104E+05
 0.11257000E+03  0.10898E+06
 0.11262000E+03  0.16873E+06
 0.11267000E+03  0.22645E+06
 0.11272000E+03  0.28390E+06
 0.11277000E+03  0.33622E+06
 0.11282000E+03  0.38218E+06
 0.11287000E+03  0.41268E+06
 0.11292000E+03  0.41846E+06
 0.11297000E+03  0.40548E+06
 0.11302000E+03  0.39014E+06
 0.11307000E+03  0.37941E+06
 0.11312000E+03  0.36967E+06
 0.11317000E+03  0.36055E+06
 0.11322000E+03  0.34922E+06
 0.11327000E+03  0.33823E+06
 0.11332000E+03  0.32699E+06
 0.11337000E+03  0.30678E+06
 0.11342000E+03  0.28117E+06
 0.11347000E+03  0.25743E+06
 0.11352000E+03  0.24740E+06
 0.11357000E+03  0.25560E+06
 0.11362000E+03  0.27830E+06
 0.11367000E+03  0.32155E+06
 0.11372000E+03  0.37796E+06
 0.11377000E+03  0.42676E+06
 0.11382000E+03  0.45809E+06
 0.11387000E+03  0.48626E+06
 0.11392000E+03  0.52538E+06
 0.11397000E+03  0.56974E+06
 0.11402000E+03  0.61091E+06
 0.11407000E+03  0.63967E+06
 0.11412000E+03  0.65674E+06
 0.11417000E+03  0.66536E+06
 0.11422000E+03  0.66139E+06
 0.11427000E+03  0.64862E+06
 0.11432000E+03  0.62974E+06
 0.11437000E+03  0.59662E+06
 0.11442000E+03  0.54261E+06
 0.11447000E+03  0.47074E+06
 0.11452000E+03  0.38954E+06
 0.11457000E+03  0.31459E+06
 0.11462000E+03  0.25913E+06
 0.11467000E+03  0.22772E+06
 0.11472000E+03  0.21594E+06
 0.11477000E+03  0.20386E+06
 0.11482000E+03  0.17679E+06
 0.11487000E+03  0.13893E+06
 0.11492000E+03  0.10052E+06
 0.11497000E+03  0.64560E+05
 0.11502000E+03  0.29529E+05
 0.11507000E+03  0.22570E+04
 0.11512000E+03 -0.12924E+05
 0.11517000E+03 -0.14933E+05
 0.11522000E+03 -0.86500E+03
 0.11527000E+03  0.18816E+05
 0.11532000E+03  0.32802E+05
 0.11537000E+03  0.44442E+05
 0.11542000E+03  0.64528E+05
 0.11547000E+03  0.10277E+06
 0.11552000E+03  0.16282E+06
 0.11557000E+03  0.24047E+06
 0.11562000E+03  0.32212E+06
 0.11567000E+03  0.40305E+06
 0.11572000E+03  0.48294E+06
 0.11577000E+03  0.54769E+06
 0.11582000E+03  0.59602E+06
 0.11587000E+03  0.63939E+06
 0.11592000E+03  0.68502E+06
 0.11597000E+03  0.73691E+06
 0.11602000E+03  0.79333E+06
 0.11607000E+03  0.85595E+06
 0.11612000E+03  0.91638E+06
 0.11617000E+03  0.95772E+06
 0.11622000E+03  0.97467E+06
 0.11627000E+03  0.96606E+06
 0.11632000E+03  0.94064E+06
 0.11637000E+03  0.90770E+06
 0.11642000E+03  0.86670E+06
 0.11647000E+03  0.82185E+06
 0.11652000E+03  0.77184E+06
 0.11657000E+03  0.71211E+06
 0.11662000E+03  0.64693E+06
 0.11667000E+03  0.57809E+06
 0.11672000E+03  0.50304E+06
 0.11677000E+03  0.42082E+06
 0.11682000E+03  0.33288E+06
 0.11687000E+03  0.24972E+06
 0.11692000E+03  0.18498E+06
 0.11697000E+03  0.13652E+06
 0.11702000E+03  0.10102E+06
 0.11707000E+03  0.80949E+05
 0.11712000E+03  0.71451E+05
 0.11717000E+03  0.66917E+05
 0.11722000E+03  0.62172E+05
 0.11727000E+03  0.55410E+05
 0.11732000E+03  0.52571E+05
 0.11737000E+03  0.61533E+05
 0.11742000E+03  0.85091E+05
 0.11747000E+03  0.11948E+06
 0.11752000E+03  0.15408E+06
 0.11757000E+03  0.17894E+06
 0.11762000E+03  0.18749E+06
 0.11767000E+03  0.17790E+06
 0.11772000E+03  0.15943E+06
 0.11777000E+03  0.14698E+06
 0.11782000E+03  0.15828E+06
 0.11787000E+03  0.19199E+06
 0.11792000E+03  0.23139E+06
 0.11797000E+03  0.26808E+06
 0.11802000E+03  0.30325E+06
 0.11807000E+03  0.34112E+06
 0.11812000E+03  0.37096E+06
 0.11817000E+03  0.38294E+06
 0.11822000E+03  0.37368E+06
 0.11827000E+03  0.34000E+06
 0.11832000E+03  0.29163E+06
 0.11837000E+03  0.23783E+06
 0.11842000E+03  0.18222E+06
 0.11847000E+03  0.13195E+06
 0.11852000E+03  0.93664E+05
 0.11857000E+03  0.70192E+05
 0.11862000E+03  0.60905E+05
 0.11867000E+03  0.60984E+05
 0.11872000E+03  0.71029E+05
 0.11877000E+03  0.96811E+05
 0.11882000E+03  0.14107E+06
 0.11887000E+03  0.19946E+06
 0.11892000E+03  0.25392E+06
 0.11897000E+03  0.29523E+06
 0.11902000E+03  0.33054E+06
 0.11907000E+03  0.36731E+06
 0.11912000E+03  0.41554E+06
 0.11917000E+03  0.47321E+06
 0.11922000E+03  0.52587E+06
 0.11927000E+03  0.56831E+06
 0.11932000E+03  0.60130E+06
 0.11937000E+03  0.62502E+06
 0.11942000E+03  0.63408E+06
 0.11947000E+03  0.62504E+06
 0.11952000E+03  0.61095E+06
 0.11957000E+03  0.60465E+06
 0.11962000E+03  0.60996E+06
 0.11967000E+03  0.62438E+06
 0.11972000E+03  0.63380E+06
 0.11977000E+03  0.62911E+06
 0.11982000E+03  0.60849E+06
 0.11987000E+03  0.56758E+06
 0.11992000E+03  0.50979E+06
 0.11997000E+03  0.44655E+06
 0.12002000E+03  0.39538E+06
 0.12007000E+03  0.37009E+06
 0.12012000E+03  0.36866E+06
 0.12017000E+03  0.38259E+06
 0.12022000E+03  0.40117E+06
 0.12027000E+03  0.41309E+06
 0.12032000E+03  0.41230E+06
 0.12037000E+03  0.40368E+06
 0.12042000E+03  0.39962E+06
 0.12047000E+03  0.39955E+06
 0.12052000E+03  0.39985E+06
 0.12057000E+03  0.40321E+06
 0.12062000E+03  0.40900E+06
 0.12067000E+03  0.41181E+06
 0.12072000E+03  0.40716E+06
 0.12077000E+03  0.40216E+06
 0.12082000E+03  0.39596E+06
 0.12087000E+03  0.38442E+06
 0.12092000E+03  0.36354E+06
 0.12097000E+03  0.32505E+06
 0.12102000E+03  0.26794E+06
 0.12107000E+03  0.19246E+06
 0.12112000E+03  0.11734E+06
 0.12117000E+03  0.57545E+05
 0.12122000E+03  0.89840E+04
 0.12127000E+03 -0.28784E+05
 0.12132000E+03 -0.61329E+05
 0.12137000E+03 -0.90193E+05
 0.12142000E+03 -0.11266E+06
 0.12147000E+03 -0.13306E+06
 0.12152000E+03 -0.15063E+06
 0.12157000E+03 -0.16087E+06
 0.12162000E+03 -0.16738E+06
 0.12167000E+03 -0.17230E+06
 0.12172000E+03 -0.16824E+06
 0.12177000E+03 -0.15484E+06
 0.12182000E+03 -0.14264E+06
 0.12187000E+03 -0.13594E+06
 0.12192000E+03 -0.13056E+06
 0.12197000E+03 -0.12545E+06
 0.12202000E+03 -0.11950E+06
 0.12207000E+03 -0.10553E+06
 0.12212000E+03 -0.76117E+05
 0.12217000E+03 -0.32408E+05
 0.12222000E+03  0.17296E+05
 0.12227000E+03  0.69280E+05
 0.12232000E+03  0.12209E+06
 0.12237000E+03  0.17516E+06
 0.12242000E+03  0.22963E+06
 0.12247000E+03  0.28365E+06
 0.12252000E+03  0.33041E+06
 0.12257000E+03  0.36238E+06
 0.12262000E+03  0.38028E+06
 0.12267000E+03  0.38923E+06
 0.12272000E+03  0.39168E+06
 0.12277000E+03  0.38584E+06
 0.12282000E+03  0.37042E+06
 0.12287000E+03  0.35106E+06
 0.12292000E+03  0.33409E+06
 0.12297000E+03  0.31490E+06
 0.12302000E+03  0.28838E+06
 0.12307000E+03  0.25444E+06
 0.12312000E+03  0.21636E+06
 0.12317000E+03  0.18352E+06
 0.12322000E+03  0.15901E+06
 0.12327000E+03  0.14344E+06
 0.12332000E+03  0.13803E+06
 0.12337000E+03  0.14144E+06
 0.12342000E+03  0.15197E+06
 0.12347000E+03  0.17103E+06
 0.12352000E+03  0.20210E+06
 0.12357000E+03  0.23492E+06
 0.12362000E+03  0.25582E+06
 0.12367000E+03  0.26202E+06
 0.12372000E+03  0.25542E+06
 0.12377000E+03  0.25143E+06
 0.12382000E+03  0.26856E+06
 0.12387000E+03  0.30682E+06
 0.12392000E+03  0.35330E+06
 0.12397000E+03  0.39251E+06
 0.12402000E+03  0.42557E+06
 0.12407000E+03  0.46056E+06
 0.12412000E+03  0.49784E+06
 0.12417000E+03  0.53640E+06
 0.12422000E+03  0.56596E+06
 0.12427000E+03  0.58326E+06
 0.12432000E+03  0.59424E+06
 0.12437000E+03  0.60146E+06
 0.12442000E+03  0.60368E+06
 0.12447000E+03  0.59601E+06
 0.12452000E+03  0.58030E+06
 0.12457000E+03  0.55990E+06
 0.12462000E+03  0.53895E+06
 0.12467000E+03  0.51909E+06
 0.12472000E+03  0.50012E+06
 0.12477000E+03  0.47612E+06
 0.12482000E+03  0.44180E+06
 0.12487000E+03  0.40702E+06
 0.12492000E+03  0.37704E+06
 0.12497000E+03  0.35736E+06
 0.12502000E+03  0.35405E+06
 0.12507000E+03  0.36896E+06
 0.12512000E+03  0.39754E+06
 0.12517001E+03  0.43153E+06
 0.12521999E+03  0.47004E+06
 0.12527000E+03  0.51134E+06
 0.12532000E+03  0.54792E+06
 0.12537000E+03  0.57571E+06
 0.12542001E+03  0.59198E+06
 0.12546999E+03  0.58880E+06
 0.12552000E+03  0.56793E+06
 0.12557000E+03  0.53693E+06
 0.12562000E+03  0.50600E+06
 0.12567001E+03  0.47862E+06
 0.12571999E+03  0.45206E+06
 0.12577000E+03  0.43140E+06
 0.12582000E+03  0.41796E+06
 0.12587000E+03  0.41197E+06
 0.12592001E+03  0.41089E+06
 0.12596999E+03  0.40596E+06
 0.12602000E+03  0.39531E+06
 0.12607000E+03  0.38060E+06
 0.12612000E+03  0.36318E+06
 0.12617001E+03  0.34591E+06
 0.12621999E+03  0.33503E+06
 0.12627000E+03  0.33866E+06
 0.12632000E+03  0.35537E+06
 0.12637000E+03  0.38054E+06
 0.12642001E+03  0.40689E+06
 0.12646999E+03  0.42819E+06
 0.12652000E+03  0.44951E+06
 0.12657000E+03  0.47389E+06
 0.12662000E+03  0.49782E+06
 0.12667001E+03  0.51711E+06
 0.12671999E+03  0.53168E+06
 0.12677000E+03  0.54474E+06
 0.12682000E+03  0.55511E+06
 0.12687000E+03  0.55408E+06
 0.12692001E+03  0.53594E+06
 0.12696999E+03  0.50718E+06
 0.12702000E+03  0.47462E+06
 0.12707000E+03  0.44505E+06
 0.12712000E+03  0.42149E+06
 0.12717001E+03  0.39710E+06
 0.12721999E+03  0.36572E+06
 0.12727000E+03  0.32718E+06
 0.12732000E+03  0.28824E+06
 0.12737000E+03  0.25226E+06
 0.12742001E+03  0.21878E+06
 0.12746999E+03  0.18412E+06
 0.12752000E+03  0.14164E+06
 0.12757000E+03  0.94174E+05
 0.12762000E+03  0.48515E+05
 0.12767001E+03  0.90830E+04
 0.12771999E+03 -0.19689E+05
 0.12777000E+03 -0.34166E+05
 0.12782000E+03 -0.34076E+05
 0.12787000E+03 -0.24087E+05
 0.12792001E+03 -0.11380E+05
 0.12796999E+03  0.14600E+03
 0.12802000E+03  0.92670E+04
 0.12807001E+03  0.19860E+05
 0.12812001E+03  0.36352E+05
 0.12817001E+03  0.57588E+05
 0.12822000E+03  0.82989E+05
 0.12827000E+03  0.10614E+06
 0.12832001E+03  0.12433E+06
 0.12837001E+03  0.14162E+06
 0.12842001E+03  0.15662E+06
 0.12847000E+03  0.16993E+06
 0.12852000E+03  0.18101E+06
 0.12857001E+03  0.19208E+06
 0.12862001E+03  0.20804E+06
 0.12867001E+03  0.22080E+06
 0.12872000E+03  0.22246E+06
 0.12877000E+03  0.21427E+06
 0.12882001E+03  0.19700E+06
 0.12887001E+03  0.16941E+06
 0.12892001E+03  0.13154E+06
 0.12897000E+03  0.89823E+05
 0.12902000E+03  0.54881E+05
 0.12907001E+03  0.33968E+05
 0.12912001E+03  0.27574E+05
 0.12917001E+03  0.31155E+05
 0.12922000E+03  0.42774E+05
 0.12927000E+03  0.60180E+05
 0.12932001E+03  0.74232E+05
 0.12937001E+03  0.80745E+05
 0.12942001E+03  0.83957E+05
 0.12947000E+03  0.88048E+05
 0.12952000E+03  0.96950E+05
 0.12957001E+03  0.11268E+06
 0.12962001E+03  0.13677E+06
 0.12967001E+03  0.16894E+06
 0.12972000E+03  0.20219E+06
 0.12977000E+03  0.23555E+06
 0.12982001E+03  0.27147E+06
 0.12987001E+03  0.30762E+06
 0.12992001E+03  0.34304E+06
 0.12997000E+03  0.37554E+06
 0.13002000E+03  0.40273E+06
 0.13007001E+03  0.42295E+06
 0.13012001E+03  0.43692E+06
 0.13017001E+03  0.44601E+06
 0.13022000E+03  0.45267E+06
 0.13027000E+03  0.46523E+06
 0.13032001E+03  0.48234E+06
 0.13037001E+03  0.49153E+06
 0.13042001E+03  0.48418E+06
 0.13047000E+03  0.45704E+06
 0.13052000E+03  0.41513E+06
 0.13057001E+03  0.36827E+06
 0.13062001E+03  0.32105E+06
 0.13067001E+03  0.27667E+06
 0.13072000E+03  0.23690E+06
 0.13077000E+03  0.20102E+06
 0.13082001E+03  0.17097E+06
 0.13087001E+03  0.14524E+06
 0.13092001E+03  0.11771E+06
 0.13097000E+03  0.89089E+05
 0.13102000E+03  0.61207E+05
 0.13107001E+03  0.30031E+05
 0.13112001E+03 -0.26740E+04
 0.13117001E+03 -0.33079E+05
 0.13122000E+03 -0.59568E+05
 0.13127000E+03 -0.76826E+05
 0.13132001E+03 -0.78073E+05
 0.13137001E+03 -0.57913E+05
 0.13142001E+03 -0.21477E+05
 0.13147000E+03  0.16640E+05
 0.13152000E+03  0.47635E+05
 0.13157001E+03  0.72424E+05
 0.13162001E+03  0.94526E+05
 0.13167001E+03  0.11447E+06
 0.13172000E+03  0.13554E+06
 0.13177000E+03  0.16109E+06
 0.13182001E+03  0.18687E+06
 0.13187001E+03  0.20952E+06
 0.13192001E+03  0.22810E+06
 0.13197000E+03  0.23831E+06
 0.13202000E+03  0.23761E+06
 0.13207001E+03  0.23337E+06
 0.13212001E+03  0.23440E+06
 0.13217001E+03  0.24253E+06
 0.13222000E+03  0.25842E+06
 0.13227000E+03  0.27870E+06
 0.13232001E+03  0.29937E+06
 0.13237001E+03  0.32344E+06
 0.13242001E+03  0.35209E+06
 0.13247000E+03  0.37693E+06
 0.13252000E+03  0.38941E+06
 0.13257001E+03  0.39348E+06
 0.13262001E+03  0.39685E+06
 0.13267001E+03  0.40350E+06
 0.13272000E+03  0.41540E+06
 0.13277000E+03  0.43236E+06
 0.13282001E+03  0.45519E+06
 0.13287001E+03  0.48363E+06
 0.13292001E+03  0.51474E+06
 0.13297000E+03  0.54445E+06
 0.13302000E+03  0.56833E+06
 0.13307001E+03  0.58416E+06
 0.13312001E+03  0.59374E+06
 0.13317001E+03  0.60059E+06
 0.13322000E+03  0.60712E+06
 0.13327000E+03  0.61684E+06
 0.13332001E+03  0.63239E+06
 0.13337001E+03  0.65272E+06
 0.13342001E+03  0.67642E+06
 0.13347000E+03  0.69431E+06
 0.13352000E+03  0.69502E+06
 0.13357001E+03  0.67793E+06
 0.13362001E+03  0.64876E+06
 0.13367001E+03  0.61492E+06
 0.13372000E+03  0.58071E+06
 0.13377000E+03  0.54873E+06
 0.13382001E+03  0.51580E+06
 0.13387001E+03  0.47742E+06
 0.13392001E+03  0.43611E+06
 0.13397000E+03  0.39470E+06
 0.13402000E+03  0.35814E+06
 0.13407001E+03  0.33118E+06
 0.13412001E+03  0.31422E+06
 0.13417001E+03  0.30388E+06
 0.13422000E+03  0.29667E+06
 0.13427000E+03  0.29462E+06
 0.13432001E+03  0.29669E+06
 0.13437001E+03  0.29482E+06
 0.13442001E+03  0.28492E+06
 0.13447000E+03  0.26781E+06
 0.13452000E+03  0.24684E+06
 0.13457001E+03  0.22906E+06
 0.13462001E+03  0.21998E+06
 0.13467001E+03  0.22245E+06
 0.13472000E+03  0.23778E+06
 0.13477000E+03  0.26459E+06
 0.13482001E+03  0.29675E+06
 0.13487001E+03  0.32727E+06
 0.13492001E+03  0.35232E+06
 0.13497000E+03  0.36830E+06
 0.13502000E+03  0.37250E+06
 0.13507001E+03  0.36457E+06
 0.13512001E+03  0.34795E+06
 0.13517001E+03  0.32923E+06
 0.13522000E+03  0.31737E+06
 0.13527000E+03  0.31859E+06
 0.13532001E+03  0.33331E+06
 0.13537001E+03  0.36064E+06
 0.13542001E+03  0.39457E+06
 0.13547000E+03  0.42761E+06
 0.13552000E+03  0.45642E+06
 0.13557001E+03  0.47713E+06
 0.13562001E+03  0.48863E+06
 0.13567001E+03  0.49416E+06
 0.13572000E+03  0.49297E+06
 0.13577000E+03  0.48123E+06
 0.13582001E+03  0.45961E+06
 0.13587001E+03  0.43039E+06
 0.13592001E+03  0.40085E+06
 0.13597000E+03  0.37874E+06
 0.13602000E+03  0.35988E+06
 0.13607001E+03  0.34287E+06
 0.13612001E+03  0.32987E+06
 0.13617001E+03  0.31958E+06
 0.13622000E+03  0.31269E+06
 0.13627000E+03  0.30540E+06
 0.13632001E+03  0.29147E+06
 0.13637001E+03  0.26824E+06
 0.13642001E+03  0.23631E+06
 0.13647000E+03  0.19827E+06
 0.13652000E+03  0.15607E+06
 0.13657001E+03  0.11010E+06
 0.13662001E+03  0.59464E+05
 0.13667001E+03  0.61110E+04
 0.13672000E+03 -0.43519E+05
 0.13677000E+03 -0.84274E+05
 0.13682001E+03 -0.11539E+06
 0.13687001E+03 -0.13655E+06
 0.13692001E+03 -0.14890E+06
 0.13697000E+03 -0.15361E+06
 0.13702000E+03 -0.15211E+06
 0.13707001E+03 -0.15044E+06
 0.13712001E+03 -0.15046E+06
 0.13717001E+03 -0.14908E+06
 0.13722000E+03 -0.14428E+06
 0.13727000E+03 -0.12879E+06
 0.13732001E+03 -0.94647E+05
 0.13737001E+03 -0.43053E+05
 0.13742001E+03  0.15740E+05
 0.13747000E+03  0.66433E+05
 0.13752000E+03  0.10166E+06
 0.13757001E+03  0.12328E+06
 0.13762001E+03  0.13337E+06
 0.13767001E+03  0.13470E+06
 0.13772000E+03  0.13441E+06
 0.13777000E+03  0.13961E+06
 0.13782001E+03  0.14935E+06
 0.13787001E+03  0.16013E+06
 0.13792001E+03  0.17042E+06
 0.13797000E+03  0.17875E+06
 0.13802000E+03  0.18245E+06
 0.13807001E+03  0.17774E+06
 0.13812001E+03  0.16736E+06
 0.13817001E+03  0.15986E+06
 0.13822000E+03  0.16064E+06
 0.13827000E+03  0.16951E+06
 0.13832001E+03  0.18560E+06
 0.13837001E+03  0.21155E+06
 0.13842001E+03  0.24689E+06
 0.13847000E+03  0.28858E+06
 0.13852000E+03  0.33340E+06
 0.13857001E+03  0.37142E+06
 0.13862001E+03  0.39700E+06
 0.13867001E+03  0.41421E+06
 0.13872000E+03  0.42787E+06
 0.13877000E+03  0.44647E+06
 0.13882001E+03  0.47210E+06
 0.13887001E+03  0.49650E+06
 0.13892001E+03  0.51359E+06
 0.13897000E+03  0.52251E+06
 0.13902000E+03  0.52268E+06
 0.13907001E+03  0.51606E+06
 0.13912001E+03  0.51308E+06
 0.13917001E+03  0.52018E+06
 0.13922000E+03  0.53288E+06
 0.13927000E+03  0.54060E+06
 0.13932001E+03  0.53644E+06
 0.13937001E+03  0.52469E+06
 0.13942001E+03  0.51165E+06
 0.13947000E+03  0.49775E+06
 0.13952000E+03  0.48172E+06
 0.13957001E+03  0.46189E+06
 0.13962001E+03  0.43651E+06
 0.13967001E+03  0.40682E+06
 0.13972000E+03  0.37074E+06
 0.13977000E+03  0.32619E+06
 0.13982001E+03  0.27630E+06
 0.13987001E+03  0.22577E+06
 0.13992001E+03  0.18004E+06
 0.13997000E+03  0.14020E+06
 0.14002000E+03  0.10458E+06
 0.14007001E+03  0.70223E+05
 0.14012001E+03  0.32514E+05
 0.14017001E+03 -0.73540E+04
 0.14022000E+03 -0.43292E+05
 0.14027000E+03 -0.69236E+05
 0.14032001E+03 -0.82136E+05
 0.14037001E+03 -0.82334E+05
 0.14042001E+03 -0.71949E+05
 0.14047000E+03 -0.54044E+05
 0.14052000E+03 -0.29462E+05
 0.14057001E+03  0.19470E+04
 0.14062001E+03  0.38779E+05
 0.14067001E+03  0.75109E+05
 0.14072000E+03  0.10333E+06
 0.14077000E+03  0.12004E+06
 0.14082001E+03  0.12750E+06
 0.14087001E+03  0.13383E+06
 0.14092001E+03  0.14250E+06
 0.14097000E+03  0.15342E+06
 0.14102000E+03  0.16958E+06
 0.14107001E+03  0.19167E+06
 0.14112001E+03  0.22042E+06
 0.14117001E+03  0.25187E+06
 0.14122000E+03  0.27662E+06
 0.14127000E+03  0.29200E+06
 0.14132001E+03  0.29978E+06
 0.14137001E+03  0.30414E+06
 0.14142001E+03  0.30989E+06
 0.14147000E+03  0.31247E+06
 0.14152000E+03  0.30501E+06
 0.14157001E+03  0.28450E+06
 0.14162001E+03  0.24823E+06
 0.14167001E+03  0.19936E+06
 0.14172000E+03  0.14399E+06
 0.14177000E+03  0.91096E+05
 0.14182001E+03  0.53172E+05
 0.14187001E+03  0.32880E+05
 0.14192001E+03  0.24026E+05
 0.14197000E+03  0.18131E+05
 0.14202000E+03  0.90220E+04
 0.14207001E+03  0.10090E+04
 0.14212001E+03 -0.10280E+04
 0.14217001E+03  0.31550E+04
 0.14222000E+03  0.15550E+05
 0.14227000E+03  0.35104E+05
 0.14232001E+03  0.59467E+05
 0.14237001E+03  0.88297E+05
 0.14242001E+03  0.12045E+06
 0.14247000E+03  0.15307E+06
 0.14252000E+03  0.18246E+06
 0.14257001E+03  0.20694E+06
 0.14262001E+03  0.22934E+06
 0.14267001E+03  0.25271E+06
 0.14272000E+03  0.27810E+06
 0.14277000E+03  0.30682E+06
 0.14282001E+03  0.33681E+06
 0.14287001E+03  0.36648E+06
 0.14292001E+03  0.39412E+06
 0.14297000E+03  0.41741E+06
 0.14302000E+03  0.43653E+06
 0.14307001E+03  0.44753E+06
 0.14312001E+03  0.44603E+06
 0.14317001E+03  0.42977E+06
 0.14322000E+03  0.40019E+06
 0.14327000E+03  0.36528E+06
 0.14332001E+03  0.33185E+06
 0.14337001E+03  0.30067E+06
 0.14342001E+03  0.26971E+06
 0.14347000E+03  0.24289E+06
 0.14352000E+03  0.22344E+06
 0.14357001E+03  0.20990E+06
 0.14362001E+03  0.20191E+06
 0.14367001E+03  0.19721E+06
 0.14372000E+03  0.19060E+06
 0.14377000E+03  0.17748E+06
 0.14382001E+03  0.16004E+06
 0.14387001E+03  0.14341E+06
 0.14392001E+03  0.13380E+06
 0.14397000E+03  0.13674E+06
 0.14402000E+03  0.15168E+06
 0.14407001E+03  0.17497E+06
 0.14412001E+03  0.20294E+06
 0.14417001E+03  0.23328E+06
 0.14422000E+03  0.26132E+06
 0.14427000E+03  0.28260E+06
 0.14432001E+03  0.29830E+06
 0.14437001E+03  0.30884E+06
 0.14442001E+03  0.31400E+06
 0.14447000E+03  0.31765E+06
 0.14452000E+03  0.32104E+06
 0.14457001E+03  0.32552E+06
 0.14462001E+03  0.33348E+06
 0.14467001E+03  0.34529E+06
 0.14472000E+03  0.35819E+06
 0.14477000E+03  0.36607E+06
 0.14482001E+03  0.37102E+06
 0.14487001E+03  0.37796E+06
 0.14492001E+03  0.38718E+06
 0.14497000E+03  0.39660E+06
 0.14502000E+03  0.40172E+06
 0.14507001E+03  0.39910E+06
 0.14512001E+03  0.38858E+06
 0.14517001E+03  0.37413E+06
 0.14522000E+03  0.35938E+06
 0.14527000E+03  0.34938E+06
 0.14532001E+03  0.34908E+06
 0.14537001E+03  0.35772E+06
 0.14542001E+03  0.37172E+06
 0.14547000E+03  0.38526E+06
 0.14552000E+03  0.39582E+06
 0.14557001E+03  0.40661E+06
 0.14562001E+03  0.41683E+06
 0.14567001E+03  0.42109E+06
 0.14572000E+03  0.41892E+06
 0.14577000E+03  0.41461E+06
 0.14582001E+03  0.40953E+06
 0.14587001E+03  0.40411E+06
 0.14592001E+03  0.40057E+06
 0.14597000E+03  0.39976E+06
 0.14602000E+03  0.40387E+06
 0.14607001E+03  0.41269E+06
 0.14612001E+03  0.42129E+06
 0.14617001E+03  0.42718E+06
 0.14622000E+03  0.43111E+06
 0.14627000E+03  0.43344E+06
 0.14632001E+03  0.43248E+06
 0.14637001E+03  0.42772E+06
 0.14642001E+03  0.42054E+06
 0.14647000E+03  0.41286E+06
 0.14652000E+03  0.40491E+06
 0.14657001E+03  0.39431E+06
 0.14662001E+03  0.38111E+06
 0.14667001E+03  0.36659E+06
 0.14672000E+03  0.35173E+06
 0.14677000E+03  0.33782E+06
 0.14682001E+03  0.32468E+06
 0.14687001E+03  0.31216E+06
 0.14692001E+03  0.30207E+06
 0.14697000E+03  0.29486E+06
 0.14702000E+03  0.28735E+06
 0.14707001E+03  0.27918E+06
 0.14712001E+03  0.27234E+06
 0.14717001E+03  0.26639E+06
 0.14722000E+03  0.26434E+06
 0.14727000E+03  0.26804E+06
 0.14732001E+03  0.27229E+06
 0.14737001E+03  0.27302E+06
 0.14742001E+03  0.26884E+06
 0.14747000E+03  0.25944E+06
 0.14752000E+03  0.24483E+06
 0.14757001E+03  0.22726E+06
 0.14762001E+03  0.21367E+06
 0.14767001E+03  0.21042E+06
 0.14772000E+03  0.21754E+06
 0.14777000E+03  0.22830E+06
 0.14782001E+03  0.23565E+06
 0.14787001E+03  0.23482E+06
 0.14792001E+03  0.22665E+06
 0.14797000E+03  0.21391E+06
 0.14802000E+03  0.19958E+06
 0.14807001E+03  0.19230E+06
 0.14812001E+03  0.19583E+06
 0.14817001E+03  0.20758E+06
 0.14822000E+03  0.22269E+06
 0.14827000E+03  0.23477E+06
 0.14832001E+03  0.24236E+06
 0.14837001E+03  0.24618E+06
 0.14842001E+03  0.24671E+06
 0.14847000E+03  0.24619E+06
 0.14852000E+03  0.24582E+06
 0.14857001E+03  0.24454E+06
 0.14862001E+03  0.24100E+06
 0.14867001E+03  0.23712E+06
 0.14872000E+03  0.23478E+06
 0.14877000E+03  0.23106E+06
 0.14882001E+03  0.22131E+06
 0.14887001E+03  0.20337E+06
 0.14892001E+03  0.18033E+06
 0.14897000E+03  0.15442E+06
 0.14902000E+03  0.12707E+06
 0.14907001E+03  0.10082E+06
 0.14912001E+03  0.75834E+05
 0.14917001E+03  0.54442E+05
 0.14922000E+03  0.38595E+05
 0.14927000E+03  0.24463E+05
 0.14932001E+03  0.60270E+04
 0.14937001E+03 -0.16120E+05
 0.14942001E+03 -0.38004E+05
 0.14947000E+03 -0.56132E+05
 0.14952000E+03 -0.66908E+05
 0.14957001E+03 -0.72229E+05
 0.14962001E+03 -0.72085E+05
 0.14967001E+03 -0.67089E+05
 0.14972000E+03 -0.59315E+05
 0.14977000E+03 -0.48597E+05
 0.14982001E+03 -0.38169E+05
 0.14987001E+03 -0.26578E+05
 0.14992001E+03 -0.10964E+05
 0.14997000E+03  0.75740E+04
