-0.29800000E+01 -0.40130E+04
-0.29300001E+01  0.72200E+03
-0.28800001E+01  0.29880E+04
-0.28299999E+01  0.26170E+04
-0.27800000E+01  0.15250E+04
-0.27300000E+01  0.17770E+04
-0.26800001E+01  0.42800E+04
-0.26300001E+01  0.83190E+04
-0.25799999E+01  0.12765E+05
-0.25300000E+01  0.17449E+05
-0.24800000E+01  0.22409E+05
-0.24300001E+01  0.28202E+05
-0.23800001E+01  0.34582E+05
-0.23299999E+01  0.38510E+05
-0.22800000E+01  0.37794E+05
-0.22300000E+01  0.33400E+05
-0.21800001E+01  0.28429E+05
-0.21300001E+01  0.24125E+05
-0.20799999E+01  0.19235E+05
-0.20300000E+01  0.14512E+05
-0.19800000E+01  0.10910E+05
-0.19299999E+01  0.72420E+04
-0.18800000E+01  0.13110E+04
-0.18300000E+01 -0.61600E+04
-0.17800000E+01 -0.11826E+05
-0.17300000E+01 -0.15354E+05
-0.16799999E+01 -0.17162E+05
-0.16300000E+01 -0.17288E+05
-0.15800000E+01 -0.16243E+05
-0.15300000E+01 -0.13726E+05
-0.14800000E+01 -0.91160E+04
-0.14299999E+01 -0.30840E+04
-0.13800000E+01  0.27180E+04
-0.13300000E+01  0.85160E+04
-0.12800000E+01  0.13526E+05
-0.12300000E+01  0.16560E+05
-0.11799999E+01  0.18497E+05
-0.11300000E+01  0.20473E+05
-0.10800000E+01  0.22791E+05
-0.10300000E+01  0.23906E+05
-0.98000002E+00  0.24157E+05
-0.93000007E+00  0.24116E+05
-0.87999988E+00  0.22516E+05
-0.82999992E+00  0.19123E+05
-0.77999997E+00  0.13737E+05
-0.73000002E+00  0.77570E+04
-0.68000007E+00  0.27960E+04
-0.62999988E+00 -0.12880E+04
-0.57999992E+00 -0.44540E+04
-0.52999997E+00 -0.58180E+04
-0.48000002E+00 -0.47810E+04
-0.43000007E+00 -0.21440E+04
-0.37999988E+00  0.12210E+04
-0.32999992E+00  0.47000E+04
-0.27999997E+00  0.81330E+04
-0.23000002E+00  0.11397E+05
-0.18000007E+00  0.14058E+05
-0.12999988E+00  0.15042E+05
-0.79999924E-01  0.13656E+05
-0.29999971E-01  0.10323E+05
 0.19999981E-01  0.47150E+04
 0.69999933E-01 -0.27780E+04
 0.12000012E+00 -0.10488E+05
 0.17000008E+00 -0.15622E+05
 0.22000003E+00 -0.16577E+05
 0.26999998E+00 -0.15085E+05
 0.31999993E+00 -0.13122E+05
 0.37000012E+00 -0.11788E+05
 0.42000008E+00 -0.11446E+05
 0.47000003E+00 -0.13393E+05
 0.51999998E+00 -0.18142E+05
 0.56999993E+00 -0.24567E+05
 0.62000012E+00 -0.33704E+05
 0.67000008E+00 -0.44450E+05
 0.72000003E+00 -0.53740E+05
 0.76999998E+00 -0.60857E+05
 0.81999993E+00 -0.65887E+05
 0.87000012E+00 -0.68905E+05
 0.92000008E+00 -0.69375E+05
 0.97000003E+00 -0.68531E+05
 0.10200000E+01 -0.68067E+05
 0.10700002E+01 -0.66978E+05
 0.11199999E+01 -0.64470E+05
 0.11700001E+01 -0.61229E+05
 0.12200003E+01 -0.58064E+05
 0.12700000E+01 -0.55140E+05
 0.13200002E+01 -0.52855E+05
 0.13699999E+01 -0.50628E+05
 0.14200001E+01 -0.46470E+05
 0.14700003E+01 -0.39742E+05
 0.15200000E+01 -0.31657E+05
 0.15700002E+01 -0.22845E+05
 0.16199999E+01 -0.11494E+05
 0.16700001E+01  0.25240E+04
 0.17200003E+01  0.16634E+05
 0.17700000E+01  0.28646E+05
 0.18200002E+01  0.37524E+05
 0.18699999E+01  0.44243E+05
 0.19200001E+01  0.48881E+05
 0.19700003E+01  0.51273E+05
 0.20200000E+01  0.52656E+05
 0.20700002E+01  0.53601E+05
 0.21199999E+01  0.55294E+05
 0.21700001E+01  0.58351E+05
 0.22200003E+01  0.62141E+05
 0.22700000E+01  0.65370E+05
 0.23200002E+01  0.66487E+05
 0.23699999E+01  0.66240E+05
 0.24200001E+01  0.65609E+05
 0.24700003E+01  0.64328E+05
 0.25200000E+01  0.62412E+05
 0.25700002E+01  0.60298E+05
 0.26199999E+01  0.59186E+05
 0.26700001E+01  0.59199E+05
 0.27200003E+01  0.59557E+05
 0.27700000E+01  0.60672E+05
 0.28200002E+01  0.63209E+05
 0.28699999E+01  0.67870E+05
 0.29200001E+01  0.74407E+05
 0.29700003E+01  0.81528E+05
 0.30200000E+01  0.88501E+05
 0.30700002E+01  0.95447E+05
 0.31199999E+01  0.10203E+06
 0.31700001E+01  0.10715E+06
 0.32200003E+01  0.11035E+06
 0.32700000E+01  0.11078E+06
 0.33200002E+01  0.10806E+06
 0.33699999E+01  0.10270E+06
 0.34200001E+01  0.94853E+05
 0.34700003E+01  0.84422E+05
 0.35200000E+01  0.71294E+05
 0.35700002E+01  0.55648E+05
 0.36199999E+01  0.38156E+05
 0.36700001E+01  0.20445E+05
 0.37200003E+01  0.43250E+04
 0.37700000E+01 -0.98130E+04
 0.38200002E+01 -0.22384E+05
 0.38699999E+01 -0.32637E+05
 0.39200001E+01 -0.40717E+05
 0.39700003E+01 -0.47464E+05
 0.40200000E+01 -0.52484E+05
 0.40700002E+01 -0.56814E+05
 0.41199999E+01 -0.61398E+05
 0.41700001E+01 -0.65489E+05
 0.42200003E+01 -0.68840E+05
 0.42700000E+01 -0.71502E+05
 0.43200002E+01 -0.72793E+05
 0.43699999E+01 -0.72430E+05
 0.44200001E+01 -0.70654E+05
 0.44700003E+01 -0.68073E+05
 0.45200000E+01 -0.65803E+05
 0.45700002E+01 -0.64868E+05
 0.46199999E+01 -0.65869E+05
 0.46700001E+01 -0.68295E+05
 0.47200003E+01 -0.70743E+05
 0.47700000E+01 -0.71787E+05
 0.48200002E+01 -0.71262E+05
 0.48699999E+01 -0.68919E+05
 0.49200001E+01 -0.64108E+05
 0.49700003E+01 -0.58485E+05
 0.50200000E+01 -0.54369E+05
 0.50700002E+01 -0.51910E+05
 0.51200004E+01 -0.49528E+05
 0.51700006E+01 -0.45970E+05
 0.52199998E+01 -0.41394E+05
 0.52700000E+01 -0.35693E+05
 0.53200002E+01 -0.28580E+05
 0.53700004E+01 -0.21478E+05
 0.54200006E+01 -0.15626E+05
 0.54699998E+01 -0.11588E+05
 0.55200000E+01 -0.10119E+05
 0.55700002E+01 -0.10189E+05
 0.56200004E+01 -0.96970E+04
 0.56700006E+01 -0.76890E+04
 0.57199998E+01 -0.52590E+04
 0.57700000E+01 -0.37100E+04
 0.58200002E+01 -0.21650E+04
 0.58700004E+01  0.66100E+03
 0.59200006E+01  0.46860E+04
 0.59699998E+01  0.89570E+04
 0.60200000E+01  0.13878E+05
 0.60700002E+01  0.19867E+05
 0.61200004E+01  0.25555E+05
 0.61700006E+01  0.30246E+05
 0.62199998E+01  0.35239E+05
 0.62700000E+01  0.41389E+05
 0.63200002E+01  0.47226E+05
 0.63700004E+01  0.51510E+05
 0.64200006E+01  0.53762E+05
 0.64699998E+01  0.54127E+05
 0.65200000E+01  0.52518E+05
 0.65700002E+01  0.48661E+05
 0.66200004E+01  0.43571E+05
 0.66700006E+01  0.38560E+05
 0.67199998E+01  0.34041E+05
 0.67700000E+01  0.28373E+05
 0.68200002E+01  0.21689E+05
 0.68700004E+01  0.15956E+05
 0.69200006E+01  0.10564E+05
 0.69699998E+01  0.38750E+04
 0.70200000E+01 -0.40940E+04
 0.70700002E+01 -0.11392E+05
 0.71200004E+01 -0.16851E+05
 0.71700006E+01 -0.21841E+05
 0.72199998E+01 -0.27683E+05
 0.72700000E+01 -0.33685E+05
 0.73200002E+01 -0.39497E+05
 0.73700004E+01 -0.45578E+05
 0.74200006E+01 -0.50465E+05
 0.74699998E+01 -0.53347E+05
 0.75200000E+01 -0.55118E+05
 0.75700002E+01 -0.56187E+05
 0.76200004E+01 -0.57494E+05
 0.76700006E+01 -0.59194E+05
 0.77199998E+01 -0.60786E+05
 0.77700000E+01 -0.61170E+05
 0.78200002E+01 -0.59169E+05
 0.78700004E+01 -0.55668E+05
 0.79200006E+01 -0.50565E+05
 0.79699998E+01 -0.43435E+05
 0.80200005E+01 -0.35032E+05
 0.80699997E+01 -0.25603E+05
 0.81200008E+01 -0.16133E+05
 0.81700001E+01 -0.84120E+04
 0.82199993E+01 -0.31090E+04
 0.82700005E+01  0.66500E+03
 0.83199997E+01  0.39150E+04
 0.83700008E+01  0.60870E+04
 0.84200001E+01  0.61960E+04
 0.84699993E+01  0.46710E+04
 0.85200005E+01  0.27280E+04
 0.85699997E+01  0.13880E+04
 0.86200008E+01 -0.59000E+02
 0.86700001E+01 -0.21630E+04
 0.87199993E+01 -0.38060E+04
 0.87700005E+01 -0.42260E+04
 0.88199997E+01 -0.28550E+04
 0.88700008E+01  0.20700E+03
 0.89200001E+01  0.47300E+04
 0.89699993E+01  0.10460E+05
 0.90200005E+01  0.16581E+05
 0.90699997E+01  0.22630E+05
 0.91200008E+01  0.28608E+05
 0.91700001E+01  0.33493E+05
 0.92199993E+01  0.36135E+05
 0.92700005E+01  0.37775E+05
 0.93199997E+01  0.39652E+05
 0.93700008E+01  0.41120E+05
 0.94200001E+01  0.41038E+05
 0.94699993E+01  0.38853E+05
 0.95200005E+01  0.35155E+05
 0.95699997E+01  0.30934E+05
 0.96200008E+01  0.26216E+05
 0.96700001E+01  0.22295E+05
 0.97199993E+01  0.21018E+05
 0.97700005E+01  0.22695E+05
 0.98199997E+01  0.27513E+05
 0.98700008E+01  0.33938E+05
 0.99200001E+01  0.40323E+05
 0.99699993E+01  0.46670E+05
 0.10020000E+02  0.52792E+05
 0.10070000E+02  0.58984E+05
 0.10120001E+02  0.64846E+05
 0.10170000E+02  0.69468E+05
 0.10219999E+02  0.72473E+05
 0.10270000E+02  0.73104E+05
 0.10320000E+02  0.71409E+05
 0.10370001E+02  0.67701E+05
 0.10420000E+02  0.62738E+05
 0.10469999E+02  0.57751E+05
 0.10520000E+02  0.53233E+05
 0.10570000E+02  0.49813E+05
 0.10620001E+02  0.47226E+05
 0.10670000E+02  0.44536E+05
 0.10719999E+02  0.42473E+05
 0.10770000E+02  0.41557E+05
 0.10820000E+02  0.40772E+05
 0.10870001E+02  0.39489E+05
 0.10920000E+02  0.37142E+05
 0.10969999E+02  0.33994E+05
 0.11020000E+02  0.31119E+05
 0.11070000E+02  0.28671E+05
 0.11120001E+02  0.26058E+05
 0.11170000E+02  0.21636E+05
 0.11219999E+02  0.15121E+05
 0.11270000E+02  0.76460E+04
 0.11320000E+02 -0.91400E+03
 0.11370001E+02 -0.10965E+05
 0.11420000E+02 -0.23024E+05
 0.11469999E+02 -0.36490E+05
 0.11520000E+02 -0.49744E+05
 0.11570000E+02 -0.61844E+05
 0.11620001E+02 -0.71390E+05
 0.11670000E+02 -0.78447E+05
 0.11719999E+02 -0.85122E+05
 0.11770000E+02 -0.92510E+05
 0.11820000E+02 -0.99386E+05
 0.11870001E+02 -0.10331E+06
 0.11920000E+02 -0.10432E+06
 0.11969999E+02 -0.10372E+06
 0.12020000E+02 -0.10221E+06
 0.12070000E+02 -0.99937E+05
 0.12120001E+02 -0.96519E+05
 0.12170000E+02 -0.93204E+05
 0.12219999E+02 -0.89999E+05
 0.12270000E+02 -0.84881E+05
 0.12320000E+02 -0.77570E+05
 0.12370001E+02 -0.69476E+05
 0.12420000E+02 -0.61040E+05
 0.12469999E+02 -0.52208E+05
 0.12520000E+02 -0.44207E+05
 0.12570000E+02 -0.37783E+05
 0.12620001E+02 -0.32599E+05
 0.12670000E+02 -0.27968E+05
 0.12719999E+02 -0.23337E+05
 0.12770000E+02 -0.18229E+05
 0.12820000E+02 -0.12606E+05
 0.12870001E+02 -0.74910E+04
 0.12920000E+02 -0.32570E+04
 0.12969999E+02  0.47500E+03
 0.13020000E+02  0.42570E+04
 0.13070002E+02  0.83000E+04
 0.13120001E+02  0.12447E+05
 0.13170000E+02  0.16600E+05
 0.13220001E+02  0.20777E+05
 0.13270000E+02  0.25641E+05
 0.13320002E+02  0.31278E+05
 0.13370001E+02  0.36457E+05
 0.13420000E+02  0.40115E+05
 0.13470001E+02  0.42540E+05
 0.13520000E+02  0.43985E+05
 0.13570002E+02  0.44337E+05
 0.13620001E+02  0.43510E+05
 0.13670000E+02  0.40689E+05
 0.13720001E+02  0.36280E+05
 0.13770000E+02  0.32385E+05
 0.13820002E+02  0.30405E+05
 0.13870001E+02  0.30490E+05
 0.13920000E+02  0.31682E+05
 0.13970001E+02  0.32985E+05
 0.14020000E+02  0.34602E+05
 0.14070002E+02  0.37419E+05
 0.14120001E+02  0.41166E+05
 0.14170000E+02  0.44060E+05
 0.14220001E+02  0.45042E+05
 0.14270000E+02  0.44437E+05
 0.14320002E+02  0.42444E+05
 0.14370001E+02  0.38557E+05
 0.14420000E+02  0.33785E+05
 0.14470001E+02  0.29045E+05
 0.14520000E+02  0.23853E+05
 0.14570002E+02  0.19531E+05
 0.14620001E+02  0.17793E+05
 0.14670000E+02  0.18770E+05
 0.14720001E+02  0.21150E+05
 0.14770000E+02  0.23749E+05
 0.14820002E+02  0.26416E+05
 0.14870001E+02  0.28652E+05
 0.14920000E+02  0.29616E+05
 0.14970001E+02  0.28858E+05
 0.15020000E+02  0.27768E+05
 0.15070002E+02  0.27007E+05
 0.15120001E+02  0.23809E+05
 0.15170000E+02  0.17123E+05
 0.15220001E+02  0.97740E+04
 0.15270000E+02  0.36050E+04
 0.15320002E+02 -0.20190E+04
 0.15370001E+02 -0.73760E+04
 0.15420000E+02 -0.11955E+05
 0.15470001E+02 -0.15846E+05
 0.15520000E+02 -0.19842E+05
 0.15570002E+02 -0.24315E+05
 0.15620001E+02 -0.27876E+05
 0.15670000E+02 -0.29542E+05
 0.15720001E+02 -0.30731E+05
 0.15770000E+02 -0.33485E+05
 0.15820002E+02 -0.38621E+05
 0.15870001E+02 -0.44129E+05
 0.15920000E+02 -0.48136E+05
 0.15970001E+02 -0.50775E+05
 0.16020000E+02 -0.52211E+05
 0.16070002E+02 -0.52695E+05
 0.16120001E+02 -0.52363E+05
 0.16170000E+02 -0.51362E+05
 0.16220001E+02 -0.48418E+05
 0.16270000E+02 -0.44378E+05
 0.16320002E+02 -0.40421E+05
 0.16370001E+02 -0.37300E+05
 0.16420000E+02 -0.37006E+05
 0.16470001E+02 -0.37148E+05
 0.16520000E+02 -0.39724E+05
 0.16570002E+02 -0.43411E+05
 0.16620001E+02 -0.49877E+05
 0.16670000E+02 -0.56290E+05
 0.16720001E+02 -0.62470E+05
 0.16770000E+02 -0.62868E+05
 0.16820002E+02 -0.48635E+05
 0.16870001E+02 -0.30118E+05
 0.16920000E+02  0.21860E+04
 0.16970001E+02  0.19679E+05
 0.17020000E+02  0.46893E+05
 0.17070002E+02  0.86746E+05
 0.17120001E+02  0.29605E+05
 0.17170000E+02 -0.10062E+06
 0.17220001E+02 -0.29792E+06
 0.17270000E+02 -0.42574E+06
 0.17320002E+02 -0.31906E+06
 0.17370001E+02 -0.12942E+06
 0.17420000E+02  0.12739E+06
 0.17470001E+02  0.75805E+05
 0.17520000E+02 -0.18326E+06
 0.17570002E+02  0.44027E+05
 0.17620001E+02  0.30751E+06
 0.17670000E+02  0.41210E+06
 0.17720001E+02  0.20847E+06
 0.17770000E+02 -0.17448E+06
 0.17820002E+02  0.10332E+06
 0.17870001E+02  0.43634E+06
 0.17920000E+02  0.58862E+05
 0.17970001E+02 -0.88712E+06
 0.18020000E+02 -0.84130E+06
 0.18070002E+02 -0.32189E+06
 0.18120001E+02 -0.81177E+06
 0.18170000E+02 -0.11929E+07
 0.18220001E+02 -0.12492E+07
 0.18270000E+02 -0.14015E+06
 0.18320002E+02  0.85340E+06
 0.18370001E+02  0.69771E+06
 0.18420000E+02  0.10393E+07
 0.18470001E+02  0.97836E+06
 0.18520000E+02  0.91922E+06
 0.18570002E+02  0.14780E+07
 0.18620001E+02  0.58865E+06
 0.18670000E+02 -0.84552E+06
 0.18720001E+02 -0.86475E+06
 0.18770000E+02  0.36506E+06
 0.18820002E+02  0.13661E+07
 0.18870001E+02 -0.21481E+06
 0.18920000E+02 -0.22718E+07
 0.18970001E+02 -0.23597E+07
 0.19020000E+02 -0.11512E+07
 0.19070002E+02 -0.63531E+06
 0.19120001E+02 -0.77457E+06
 0.19170000E+02 -0.33878E+06
 0.19220001E+02 -0.45828E+06
 0.19270000E+02 -0.81808E+06
 0.19320002E+02 -0.11853E+07
 0.19370001E+02 -0.10501E+07
 0.19420000E+02 -0.21012E+06
 0.19470001E+02  0.97344E+06
 0.19520000E+02  0.16185E+07
 0.19570002E+02  0.47689E+06
 0.19620001E+02 -0.10760E+06
 0.19670000E+02  0.93066E+06
 0.19720001E+02  0.19355E+07
 0.19770000E+02  0.20839E+07
 0.19820002E+02  0.96828E+06
 0.19870001E+02  0.88040E+06
 0.19920000E+02  0.13506E+07
 0.19970001E+02  0.56046E+06
 0.20020000E+02 -0.92694E+05
 0.20070002E+02 -0.14223E+07
 0.20120001E+02 -0.15767E+07
 0.20170000E+02 -0.37010E+06
 0.20220001E+02 -0.15099E+06
 0.20270000E+02 -0.20071E+06
 0.20320002E+02 -0.19862E+07
 0.20370001E+02 -0.37595E+07
 0.20420000E+02 -0.22548E+07
 0.20470001E+02  0.42352E+05
 0.20520000E+02  0.15165E+07
 0.20570002E+02  0.13051E+07
 0.20620001E+02  0.86797E+06
 0.20670000E+02  0.15720E+07
 0.20720001E+02  0.46155E+06
 0.20770000E+02 -0.26419E+05
 0.20820002E+02  0.90481E+06
 0.20870001E+02  0.64331E+06
 0.20920000E+02 -0.59926E+06
 0.20970001E+02 -0.14243E+07
 0.21020000E+02 -0.75696E+06
 0.21070002E+02 -0.37760E+06
 0.21120001E+02  0.14919E+06
 0.21170000E+02 -0.98039E+05
 0.21220001E+02 -0.12030E+07
 0.21270000E+02 -0.51179E+06
 0.21320002E+02 -0.69404E+06
 0.21370001E+02 -0.17700E+07
 0.21420000E+02 -0.14854E+07
 0.21470001E+02 -0.10177E+07
 0.21520000E+02 -0.85083E+06
 0.21570002E+02 -0.87395E+06
 0.21620001E+02 -0.19469E+06
 0.21670000E+02  0.10685E+07
 0.21720001E+02  0.96962E+06
 0.21770000E+02  0.61206E+06
 0.21820002E+02  0.18392E+07
 0.21870001E+02  0.26990E+07
 0.21920000E+02  0.23021E+07
 0.21970001E+02  0.15590E+07
 0.22020000E+02  0.39100E+06
 0.22070002E+02 -0.11534E+06
 0.22120001E+02 -0.53000E+04
 0.22170000E+02  0.45789E+06
 0.22220001E+02  0.45226E+06
 0.22270000E+02 -0.14027E+07
 0.22320002E+02 -0.22837E+07
 0.22370001E+02 -0.94546E+06
 0.22420000E+02 -0.93803E+06
 0.22470001E+02 -0.17876E+07
 0.22520000E+02  0.71415E+06
 0.22570002E+02  0.19509E+07
 0.22620001E+02  0.11161E+06
 0.22670000E+02 -0.39348E+06
 0.22720001E+02 -0.31098E+06
 0.22770000E+02  0.11981E+07
 0.22820002E+02  0.11810E+07
 0.22870001E+02 -0.81963E+06
 0.22920000E+02 -0.44735E+06
 0.22970001E+02 -0.63319E+05
 0.23020000E+02 -0.32524E+06
 0.23070002E+02  0.30368E+06
 0.23120001E+02  0.11896E+07
 0.23170000E+02  0.10966E+07
 0.23220001E+02 -0.18252E+06
 0.23270000E+02 -0.66391E+06
 0.23320002E+02 -0.44763E+06
 0.23370001E+02 -0.57995E+06
 0.23420000E+02 -0.12475E+07
 0.23470001E+02 -0.21360E+07
 0.23520000E+02 -0.17644E+07
 0.23570002E+02 -0.12386E+07
 0.23620001E+02 -0.77798E+06
 0.23670000E+02 -0.29954E+06
 0.23720001E+02 -0.14060E+07
 0.23770000E+02 -0.12967E+07
 0.23820002E+02  0.10832E+06
 0.23870001E+02 -0.11390E+07
 0.23920000E+02 -0.11108E+07
 0.23970001E+02  0.17600E+07
 0.24020000E+02  0.23500E+07
 0.24070002E+02  0.12310E+07
 0.24120001E+02  0.46925E+06
 0.24170000E+02  0.15157E+07
 0.24220001E+02  0.27393E+07
 0.24270000E+02  0.16255E+07
 0.24320002E+02  0.41619E+06
 0.24370001E+02 -0.47834E+06
 0.24420000E+02 -0.72664E+06
 0.24470001E+02 -0.23039E+06
 0.24520000E+02  0.14991E+06
 0.24570002E+02  0.15786E+06
 0.24620001E+02 -0.27904E+06
 0.24670000E+02 -0.28866E+06
 0.24720001E+02 -0.86478E+06
 0.24770000E+02 -0.14508E+07
 0.24820002E+02 -0.12473E+07
 0.24870001E+02 -0.21103E+07
 0.24920000E+02 -0.27504E+07
 0.24970001E+02 -0.19784E+07
 0.25020000E+02 -0.21691E+07
 0.25070002E+02 -0.25141E+07
 0.25120001E+02 -0.19059E+07
 0.25170000E+02 -0.12660E+07
 0.25220001E+02 -0.56449E+06
 0.25270000E+02  0.21516E+06
 0.25320002E+02  0.13298E+07
 0.25370001E+02  0.17376E+07
 0.25420000E+02  0.22729E+07
 0.25470001E+02  0.28491E+07
 0.25520000E+02  0.25428E+07
 0.25570002E+02  0.23304E+07
 0.25620001E+02  0.21592E+07
 0.25670000E+02  0.23254E+07
 0.25720001E+02  0.10194E+07
 0.25770000E+02 -0.66868E+06
 0.25820002E+02 -0.81884E+06
 0.25870001E+02 -0.17624E+07
 0.25920000E+02 -0.24289E+07
 0.25970001E+02 -0.18741E+07
 0.26020000E+02 -0.19160E+07
 0.26070002E+02 -0.21794E+07
 0.26120001E+02 -0.18696E+07
 0.26170000E+02 -0.14801E+07
 0.26220001E+02 -0.13931E+07
 0.26270000E+02 -0.10604E+07
 0.26320002E+02 -0.69583E+05
 0.26370001E+02  0.50462E+06
 0.26420000E+02  0.10717E+07
 0.26470001E+02  0.28548E+07
 0.26520000E+02  0.31583E+07
 0.26570002E+02  0.10097E+07
 0.26620001E+02 -0.68227E+06
 0.26670000E+02 -0.17821E+07
 0.26720001E+02 -0.13369E+07
 0.26770000E+02  0.54562E+06
 0.26820002E+02  0.14482E+07
 0.26870001E+02  0.23919E+07
 0.26920000E+02  0.21650E+07
 0.26970001E+02  0.59384E+06
 0.27020000E+02 -0.70196E+06
 0.27070002E+02 -0.15861E+07
 0.27120001E+02 -0.50829E+06
 0.27170000E+02  0.10495E+07
 0.27220001E+02  0.29111E+07
 0.27270000E+02  0.57819E+07
 0.27320002E+02  0.74489E+07
 0.27370001E+02  0.86294E+07
 0.27420000E+02  0.92685E+07
 0.27470001E+02  0.95276E+07
 0.27520000E+02  0.10283E+08
 0.27570002E+02  0.88050E+07
 0.27620001E+02  0.63000E+07
 0.27670000E+02  0.43884E+07
 0.27720001E+02  0.50720E+06
 0.27770000E+02 -0.44852E+07
 0.27820002E+02 -0.62403E+07
 0.27870001E+02 -0.38830E+07
 0.27920000E+02 -0.40833E+06
 0.27970001E+02  0.22334E+07
 0.28020000E+02  0.33800E+07
 0.28070002E+02  0.37386E+07
 0.28120001E+02  0.31590E+07
 0.28170000E+02  0.25185E+07
 0.28220001E+02  0.64369E+07
 0.28270000E+02  0.11207E+08
 0.28320002E+02  0.96244E+07
 0.28370001E+02  0.30336E+07
 0.28420000E+02 -0.75458E+07
 0.28470001E+02 -0.15023E+08
 0.28520000E+02 -0.17210E+08
 0.28570002E+02 -0.20669E+08
 0.28620001E+02 -0.19646E+08
 0.28670000E+02 -0.14404E+08
 0.28720001E+02 -0.10030E+08
 0.28770000E+02 -0.55878E+07
 0.28820002E+02 -0.26831E+07
 0.28870001E+02  0.22312E+07
 0.28920000E+02  0.95992E+07
 0.28970001E+02  0.10953E+08
 0.29020000E+02  0.11524E+08
 0.29070000E+02  0.13671E+08
 0.29120003E+02  0.91078E+07
 0.29170002E+02  0.56699E+07
 0.29220001E+02  0.49997E+07
 0.29270000E+02  0.18785E+07
 0.29320000E+02 -0.14775E+07
 0.29370003E+02 -0.54650E+07
 0.29420002E+02 -0.86007E+07
 0.29470001E+02 -0.11020E+08
 0.29520000E+02 -0.10677E+08
 0.29570000E+02 -0.61678E+07
 0.29620003E+02 -0.33258E+06
 0.29670002E+02  0.11576E+08
 0.29720001E+02  0.25115E+08
 0.29770000E+02  0.28356E+08
 0.29820000E+02  0.25385E+08
 0.29870003E+02  0.18704E+08
 0.29920002E+02  0.10079E+08
 0.29970001E+02  0.74159E+07
 0.30020000E+02  0.51716E+07
 0.30070000E+02  0.18924E+07
 0.30120003E+02 -0.10021E+07
 0.30170002E+02 -0.71684E+07
 0.30220001E+02 -0.95000E+07
 0.30270000E+02 -0.92587E+07
 0.30320000E+02 -0.80821E+07
 0.30370003E+02 -0.37544E+07
 0.30420002E+02 -0.31905E+07
 0.30470001E+02 -0.41191E+07
 0.30520000E+02 -0.46437E+07
 0.30570000E+02 -0.35245E+07
 0.30620003E+02 -0.63159E+06
 0.30670002E+02 -0.11431E+07
 0.30720001E+02 -0.51029E+06
 0.30770000E+02  0.95598E+06
 0.30820000E+02 -0.88401E+06
 0.30870003E+02 -0.34255E+07
 0.30920002E+02 -0.48529E+07
 0.30970001E+02 -0.57657E+07
 0.31020000E+02 -0.56559E+07
 0.31070000E+02 -0.27346E+07
 0.31120003E+02  0.69805E+06
 0.31170002E+02  0.11669E+07
 0.31220001E+02  0.14751E+07
 0.31270000E+02  0.28804E+07
 0.31320000E+02  0.20109E+07
 0.31370003E+02 -0.84704E+06
 0.31420002E+02 -0.31492E+07
 0.31470001E+02 -0.17635E+07
 0.31520000E+02  0.42550E+06
 0.31570000E+02  0.57457E+06
 0.31620003E+02  0.21117E+07
 0.31670002E+02  0.35819E+07
 0.31720001E+02  0.32429E+07
 0.31770000E+02  0.43947E+07
 0.31820000E+02  0.61274E+07
 0.31870003E+02  0.68821E+07
 0.31920002E+02  0.77142E+07
 0.31970001E+02  0.53808E+07
 0.32020000E+02  0.80839E+06
 0.32070000E+02 -0.30600E+07
 0.32120003E+02 -0.52745E+07
 0.32170002E+02 -0.54081E+07
 0.32220001E+02 -0.66327E+07
 0.32270000E+02 -0.75388E+07
 0.32320000E+02 -0.62325E+07
 0.32370003E+02 -0.53604E+07
 0.32420002E+02 -0.67146E+07
 0.32470001E+02 -0.81095E+07
 0.32520000E+02 -0.67662E+07
 0.32570000E+02 -0.62509E+07
 0.32620003E+02 -0.54041E+07
 0.32670002E+02 -0.14797E+07
 0.32720001E+02 -0.79676E+06
 0.32770000E+02 -0.15337E+07
 0.32820000E+02  0.81470E+06
 0.32870003E+02  0.37772E+07
 0.32920002E+02  0.62233E+07
 0.32970001E+02  0.42627E+07
 0.33020000E+02  0.58646E+06
 0.33070000E+02  0.33725E+06
 0.33120003E+02  0.12099E+07
 0.33170002E+02  0.38416E+07
 0.33220001E+02  0.47730E+07
 0.33270000E+02  0.22287E+07
 0.33320000E+02  0.75663E+06
 0.33370003E+02 -0.15019E+06
 0.33420002E+02 -0.12748E+07
 0.33470001E+02 -0.21853E+07
 0.33520000E+02 -0.31336E+07
 0.33570000E+02 -0.47403E+07
 0.33620003E+02 -0.71972E+07
 0.33670002E+02 -0.95189E+07
 0.33720001E+02 -0.10408E+08
 0.33770000E+02 -0.84954E+07
 0.33820000E+02 -0.67789E+07
 0.33870003E+02 -0.83503E+07
 0.33920002E+02 -0.95535E+07
 0.33970001E+02 -0.84475E+07
 0.34020000E+02 -0.63593E+07
 0.34070000E+02 -0.37792E+07
 0.34120003E+02 -0.24552E+07
 0.34170002E+02 -0.29341E+07
 0.34220001E+02 -0.49103E+07
 0.34270000E+02 -0.60339E+07
 0.34320000E+02 -0.24824E+07
 0.34370003E+02  0.25807E+07
 0.34420002E+02  0.59975E+07
 0.34470001E+02  0.91288E+07
 0.34520000E+02  0.87701E+07
 0.34570000E+02  0.49277E+07
 0.34620003E+02  0.24985E+07
 0.34670002E+02  0.27933E+07
 0.34720001E+02  0.48556E+07
 0.34770000E+02  0.47474E+07
 0.34820000E+02  0.27819E+07
 0.34870003E+02  0.28758E+07
 0.34920002E+02  0.41274E+07
 0.34970001E+02  0.43320E+07
 0.35020000E+02  0.24474E+07
 0.35070000E+02  0.36003E+06
 0.35120003E+02 -0.71954E+06
 0.35170002E+02 -0.17393E+07
 0.35220001E+02 -0.10867E+07
 0.35270000E+02  0.74051E+06
 0.35320000E+02 -0.64255E+06
 0.35370003E+02 -0.37540E+07
 0.35420002E+02 -0.43509E+07
 0.35470001E+02 -0.36185E+07
 0.35520000E+02 -0.24444E+07
 0.35570000E+02 -0.26238E+06
 0.35620003E+02  0.16473E+07
 0.35670002E+02  0.10834E+07
 0.35720001E+02 -0.53832E+06
 0.35770000E+02 -0.34064E+06
 0.35820000E+02 -0.38348E+06
 0.35870003E+02 -0.82788E+06
 0.35920002E+02  0.42200E+04
 0.35970001E+02  0.34367E+06
 0.36020000E+02 -0.60450E+06
 0.36070000E+02 -0.33532E+07
 0.36120003E+02 -0.59316E+07
 0.36170002E+02 -0.52589E+07
 0.36220001E+02 -0.35027E+07
 0.36270000E+02 -0.33471E+07
 0.36320000E+02 -0.45679E+07
 0.36370003E+02 -0.61195E+07
 0.36420002E+02 -0.68136E+07
 0.36470001E+02 -0.62221E+07
 0.36520000E+02 -0.54382E+07
 0.36570000E+02 -0.49418E+07
 0.36620003E+02 -0.52012E+07
 0.36670002E+02 -0.60567E+07
 0.36720001E+02 -0.63989E+07
 0.36770000E+02 -0.50765E+07
 0.36820000E+02 -0.13701E+07
 0.36870003E+02  0.22566E+07
 0.36920002E+02  0.37984E+07
 0.36970001E+02  0.39170E+07
 0.37020000E+02  0.39565E+07
 0.37070000E+02  0.48096E+07
 0.37120003E+02  0.57484E+07
 0.37170002E+02  0.60691E+07
 0.37220001E+02  0.59826E+07
 0.37270000E+02  0.62542E+07
 0.37320000E+02  0.68370E+07
 0.37370003E+02  0.59724E+07
 0.37420002E+02  0.41325E+07
 0.37470001E+02  0.38874E+07
 0.37520000E+02  0.49311E+07
 0.37570000E+02  0.56177E+07
 0.37620003E+02  0.55327E+07
 0.37670002E+02  0.42624E+07
 0.37720001E+02  0.25325E+07
 0.37770000E+02  0.18026E+07
 0.37820000E+02  0.20265E+07
 0.37870003E+02  0.27478E+07
 0.37920002E+02  0.30684E+07
 0.37970001E+02  0.18899E+07
 0.38020000E+02  0.51389E+05
 0.38070000E+02 -0.13667E+07
 0.38120003E+02 -0.20051E+07
 0.38170002E+02 -0.19273E+07
 0.38220001E+02 -0.19611E+07
 0.38270000E+02 -0.22908E+07
 0.38320000E+02 -0.36894E+07
 0.38370003E+02 -0.58009E+07
 0.38420002E+02 -0.70159E+07
 0.38470001E+02 -0.75265E+07
 0.38520000E+02 -0.75543E+07
 0.38570000E+02 -0.66003E+07
 0.38620003E+02 -0.45215E+07
 0.38670002E+02 -0.21846E+07
 0.38720001E+02 -0.57903E+06
 0.38770000E+02  0.68510E+05
 0.38820000E+02  0.14513E+07
 0.38870003E+02  0.41515E+07
 0.38920002E+02  0.61589E+07
 0.38970001E+02  0.67800E+07
 0.39020000E+02  0.57506E+07
 0.39070000E+02  0.42202E+07
 0.39120003E+02  0.32652E+07
 0.39170002E+02  0.19498E+07
 0.39220001E+02  0.12149E+07
 0.39270000E+02  0.14216E+07
 0.39320000E+02  0.14211E+07
 0.39370003E+02  0.13647E+07
 0.39420002E+02  0.90102E+06
 0.39470001E+02 -0.60411E+06
 0.39520000E+02 -0.19087E+07
 0.39570000E+02 -0.20790E+07
 0.39620003E+02 -0.21011E+07
 0.39670002E+02 -0.19749E+07
 0.39720001E+02 -0.11144E+07
 0.39770000E+02 -0.22492E+06
 0.39820000E+02  0.14814E+05
 0.39870003E+02  0.22025E+06
 0.39920002E+02  0.16267E+07
 0.39970001E+02  0.32398E+07
 0.40020000E+02  0.29343E+07
 0.40070000E+02  0.64322E+06
 0.40120003E+02 -0.13057E+07
 0.40170002E+02 -0.17351E+07
 0.40220001E+02 -0.21549E+07
 0.40270000E+02 -0.21825E+07
 0.40320000E+02 -0.11765E+07
 0.40370003E+02 -0.19011E+06
 0.40420002E+02  0.10740E+06
 0.40470001E+02  0.34820E+06
 0.40520000E+02  0.16016E+07
 0.40570000E+02  0.16154E+07
 0.40620003E+02 -0.26016E+06
 0.40670002E+02 -0.13002E+07
 0.40720001E+02 -0.84304E+06
 0.40770000E+02  0.87365E+06
 0.40820000E+02  0.29989E+07
 0.40870003E+02  0.43074E+07
 0.40920002E+02  0.40749E+07
 0.40970001E+02  0.28262E+07
 0.41020000E+02  0.18986E+07
 0.41070000E+02  0.20884E+07
 0.41120003E+02  0.30596E+07
 0.41170002E+02  0.31955E+07
 0.41220001E+02  0.24476E+07
 0.41270000E+02  0.11822E+07
 0.41320000E+02 -0.12350E+06
 0.41370003E+02 -0.45056E+06
 0.41420002E+02 -0.38507E+06
 0.41470001E+02 -0.54045E+06
 0.41520000E+02 -0.87707E+06
 0.41570000E+02 -0.12125E+07
 0.41620003E+02 -0.12871E+07
 0.41670002E+02 -0.13676E+07
 0.41720001E+02 -0.21107E+07
 0.41770000E+02 -0.31591E+07
 0.41820000E+02 -0.37879E+07
 0.41870003E+02 -0.36339E+07
 0.41920002E+02 -0.26724E+07
 0.41970001E+02 -0.15764E+07
 0.42020000E+02 -0.47254E+06
 0.42070000E+02 -0.89338E+05
 0.42120003E+02 -0.34937E+06
 0.42170002E+02  0.39579E+06
 0.42220001E+02  0.14518E+07
 0.42270000E+02  0.19294E+07
 0.42320000E+02  0.21419E+07
 0.42370003E+02  0.13674E+07
 0.42420002E+02  0.26710E+06
 0.42470001E+02 -0.24918E+06
 0.42520000E+02 -0.51918E+06
 0.42570000E+02  0.21353E+05
 0.42620003E+02  0.63677E+06
 0.42670002E+02  0.79081E+06
 0.42720001E+02  0.12206E+07
 0.42770000E+02  0.11647E+07
 0.42820000E+02  0.66284E+06
 0.42870003E+02  0.51231E+06
 0.42920002E+02  0.54974E+06
 0.42970001E+02  0.44224E+06
 0.43020000E+02 -0.28685E+06
 0.43070000E+02 -0.11391E+07
 0.43120003E+02 -0.13563E+07
 0.43170002E+02 -0.14952E+07
 0.43220001E+02 -0.18989E+07
 0.43270000E+02 -0.22929E+07
 0.43320000E+02 -0.27199E+07
 0.43370003E+02 -0.31114E+07
 0.43420002E+02 -0.28825E+07
 0.43470001E+02 -0.20199E+07
 0.43520000E+02 -0.12156E+07
 0.43570000E+02 -0.93573E+06
 0.43620003E+02 -0.85656E+06
 0.43670002E+02 -0.52873E+06
 0.43720001E+02 -0.32910E+06
 0.43770000E+02 -0.31021E+06
 0.43820000E+02 -0.42173E+06
 0.43870003E+02 -0.44657E+06
 0.43920002E+02  0.37214E+06
 0.43970001E+02  0.14724E+07
 0.44020000E+02  0.18399E+07
 0.44070000E+02  0.17653E+07
 0.44120003E+02  0.17314E+07
 0.44170002E+02  0.18622E+07
 0.44220001E+02  0.22595E+07
 0.44270000E+02  0.23574E+07
 0.44320000E+02  0.18189E+07
 0.44370003E+02  0.11586E+07
 0.44420002E+02  0.86846E+06
 0.44470001E+02  0.99279E+06
 0.44520000E+02  0.88578E+06
 0.44570000E+02  0.75990E+06
 0.44620003E+02  0.12476E+07
 0.44670002E+02  0.11993E+07
 0.44720001E+02  0.60865E+05
 0.44770000E+02 -0.10807E+07
 0.44820000E+02 -0.19198E+07
 0.44870003E+02 -0.23698E+07
 0.44920002E+02 -0.25386E+07
 0.44970001E+02 -0.28301E+07
 0.45020000E+02 -0.25486E+07
 0.45070000E+02 -0.14677E+07
 0.45120003E+02 -0.33408E+06
 0.45170002E+02  0.78794E+06
 0.45220001E+02  0.16421E+07
 0.45270000E+02  0.14849E+07
 0.45320000E+02  0.11128E+07
 0.45370003E+02  0.10175E+07
 0.45420002E+02  0.41940E+06
 0.45470001E+02 -0.59932E+06
 0.45520000E+02 -0.13977E+07
 0.45570000E+02 -0.12377E+07
 0.45620003E+02 -0.60009E+06
 0.45670002E+02 -0.15744E+06
 0.45720001E+02  0.61159E+06
 0.45770000E+02  0.14874E+07
 0.45820000E+02  0.21169E+07
 0.45870003E+02  0.26433E+07
 0.45920002E+02  0.26932E+07
 0.45970001E+02  0.18714E+07
 0.46020000E+02  0.71033E+06
 0.46070000E+02  0.33877E+05
 0.46120003E+02  0.12605E+06
 0.46170002E+02  0.80996E+06
 0.46220001E+02  0.14742E+07
 0.46270000E+02  0.19622E+07
 0.46320000E+02  0.19525E+07
 0.46370003E+02  0.10715E+07
 0.46420002E+02  0.43258E+05
 0.46470001E+02 -0.75723E+06
 0.46520000E+02 -0.12516E+07
 0.46570000E+02 -0.15214E+07
 0.46620003E+02 -0.16610E+07
 0.46670002E+02 -0.14349E+07
 0.46720001E+02 -0.92442E+06
 0.46770000E+02 -0.58398E+06
 0.46820000E+02 -0.81023E+06
 0.46870003E+02 -0.10388E+07
 0.46920002E+02 -0.10428E+07
 0.46970001E+02 -0.12126E+07
 0.47020000E+02 -0.13919E+07
 0.47070000E+02 -0.13811E+07
 0.47120003E+02 -0.14374E+07
 0.47170002E+02 -0.15305E+07
 0.47220001E+02 -0.10254E+07
 0.47270000E+02 -0.34538E+06
 0.47320000E+02 -0.15022E+06
 0.47370003E+02 -0.13864E+06
 0.47420002E+02 -0.17135E+06
 0.47470001E+02 -0.17654E+06
 0.47520000E+02 -0.10368E+06
 0.47570000E+02  0.15168E+06
 0.47620003E+02  0.85800E+06
 0.47670002E+02  0.16000E+07
 0.47720001E+02  0.20948E+07
 0.47770000E+02  0.24374E+07
 0.47820000E+02  0.24687E+07
 0.47870003E+02  0.22666E+07
 0.47920002E+02  0.19523E+07
 0.47970001E+02  0.13859E+07
 0.48020000E+02  0.67343E+06
 0.48070000E+02  0.34417E+06
 0.48120003E+02  0.43693E+06
 0.48170002E+02  0.72188E+06
 0.48220001E+02  0.10168E+07
 0.48270000E+02  0.11334E+07
 0.48320000E+02  0.97014E+06
 0.48370003E+02  0.45460E+06
 0.48420002E+02 -0.12394E+05
 0.48470001E+02 -0.22338E+06
 0.48520000E+02 -0.13877E+06
 0.48570000E+02 -0.25927E+06
 0.48620003E+02 -0.10887E+07
 0.48670002E+02 -0.16601E+07
 0.48720001E+02 -0.15922E+07
 0.48770000E+02 -0.13179E+07
 0.48820000E+02 -0.97305E+06
 0.48870003E+02 -0.43051E+06
 0.48920002E+02  0.36315E+06
 0.48970001E+02  0.86024E+06
 0.49020000E+02  0.89878E+06
 0.49070000E+02  0.67479E+06
 0.49120003E+02  0.35176E+06
 0.49170002E+02  0.11516E+05
 0.49220001E+02 -0.15397E+06
 0.49270000E+02 -0.20732E+06
 0.49320000E+02 -0.40233E+06
 0.49370003E+02 -0.40359E+06
 0.49420002E+02 -0.28850E+06
 0.49470001E+02 -0.10056E+06
 0.49520000E+02  0.29272E+06
 0.49570000E+02  0.72347E+06
 0.49620003E+02  0.14207E+07
 0.49670002E+02  0.19368E+07
 0.49720001E+02  0.18502E+07
 0.49770000E+02  0.18982E+07
 0.49820000E+02  0.20445E+07
 0.49870003E+02  0.20856E+07
 0.49920002E+02  0.20926E+07
 0.49970001E+02  0.16691E+07
 0.50020000E+02  0.10073E+07
 0.50070000E+02  0.54860E+06
 0.50120003E+02  0.20705E+06
 0.50170002E+02 -0.10747E+06
 0.50220001E+02 -0.42467E+06
 0.50270000E+02 -0.93375E+06
 0.50320000E+02 -0.13284E+07
 0.50370003E+02 -0.15868E+07
 0.50420002E+02 -0.18422E+07
 0.50470001E+02 -0.19095E+07
 0.50520000E+02 -0.20139E+07
 0.50570000E+02 -0.21717E+07
 0.50620003E+02 -0.22160E+07
 0.50670002E+02 -0.20237E+07
 0.50720001E+02 -0.16701E+07
 0.50770000E+02 -0.11395E+07
 0.50820000E+02 -0.28315E+06
 0.50870003E+02  0.41409E+06
 0.50920002E+02  0.72227E+06
 0.50970001E+02  0.85406E+06
 0.51020000E+02  0.77502E+06
 0.51070000E+02  0.62339E+06
 0.51120003E+02  0.26338E+06
 0.51170002E+02 -0.11057E+06
 0.51220001E+02 -0.94220E+04
 0.51270000E+02 -0.12125E+06
 0.51320000E+02 -0.65467E+06
 0.51370003E+02 -0.11096E+07
 0.51420002E+02 -0.13114E+07
 0.51470001E+02 -0.11521E+07
 0.51520000E+02 -0.75550E+06
 0.51570000E+02 -0.28845E+06
 0.51620003E+02 -0.71290E+04
 0.51670002E+02  0.10426E+06
 0.51720001E+02  0.12964E+06
 0.51770000E+02  0.13113E+06
 0.51820000E+02  0.26072E+06
 0.51870003E+02  0.40036E+06
 0.51920002E+02  0.49560E+06
 0.51970001E+02  0.39074E+06
 0.52020000E+02  0.12413E+06
 0.52070000E+02  0.28127E+05
 0.52120003E+02  0.42022E+06
 0.52170002E+02  0.95402E+06
 0.52220001E+02  0.12007E+07
 0.52270000E+02  0.13078E+07
 0.52320000E+02  0.11712E+07
 0.52370003E+02  0.10389E+07
 0.52420002E+02  0.96579E+06
 0.52470001E+02  0.86328E+06
 0.52520000E+02  0.84955E+06
 0.52570000E+02  0.50142E+06
 0.52620003E+02  0.56293E+05
 0.52670002E+02  0.15800E+06
 0.52720001E+02  0.37317E+06
 0.52770000E+02  0.19604E+06
 0.52820000E+02 -0.88483E+05
 0.52870003E+02 -0.28263E+06
 0.52920002E+02 -0.35069E+06
 0.52970001E+02 -0.36082E+06
 0.53020000E+02 -0.53936E+06
 0.53070000E+02 -0.77529E+06
 0.53120003E+02 -0.86603E+06
 0.53170002E+02 -0.84518E+06
 0.53220001E+02 -0.72788E+06
 0.53270000E+02 -0.42525E+06
 0.53320000E+02 -0.32575E+06
 0.53370003E+02 -0.67118E+06
 0.53420002E+02 -0.96914E+06
 0.53470001E+02 -0.10892E+07
 0.53520000E+02 -0.11791E+07
 0.53570000E+02 -0.11293E+07
 0.53620003E+02 -0.79709E+06
 0.53670002E+02 -0.37413E+06
 0.53720001E+02 -0.21529E+06
 0.53770000E+02 -0.47280E+06
 0.53820000E+02 -0.91222E+06
 0.53870003E+02 -0.11212E+07
 0.53920002E+02 -0.10804E+07
 0.53970001E+02 -0.99011E+06
 0.54020000E+02 -0.97024E+06
 0.54070000E+02 -0.72476E+06
 0.54120003E+02 -0.17232E+06
 0.54170002E+02  0.17618E+06
 0.54220001E+02  0.25741E+06
 0.54270000E+02  0.33513E+06
 0.54320000E+02  0.28963E+06
 0.54370003E+02 -0.43624E+05
 0.54420002E+02 -0.23080E+06
 0.54470001E+02  0.37099E+05
 0.54520000E+02  0.36625E+06
 0.54570000E+02  0.69562E+06
 0.54620003E+02  0.11294E+07
 0.54670002E+02  0.14740E+07
 0.54720001E+02  0.16567E+07
 0.54770000E+02  0.15592E+07
 0.54820000E+02  0.12211E+07
 0.54870003E+02  0.84087E+06
 0.54920002E+02  0.55220E+06
 0.54970001E+02  0.55164E+06
 0.55020000E+02  0.69176E+06
 0.55070000E+02  0.80242E+06
 0.55120003E+02  0.10167E+07
 0.55170002E+02  0.12134E+07
 0.55220001E+02  0.13225E+07
 0.55270000E+02  0.14515E+07
 0.55320000E+02  0.16057E+07
 0.55370003E+02  0.15798E+07
 0.55420002E+02  0.12854E+07
 0.55470001E+02  0.88082E+06
 0.55520000E+02  0.25848E+06
 0.55570000E+02 -0.51642E+06
 0.55620003E+02 -0.11053E+07
 0.55670002E+02 -0.13942E+07
 0.55720001E+02 -0.16384E+07
 0.55770000E+02 -0.19123E+07
 0.55820000E+02 -0.17569E+07
 0.55870003E+02 -0.11615E+07
 0.55920002E+02 -0.63217E+06
 0.55970001E+02 -0.23210E+06
 0.56020000E+02  0.23108E+06
 0.56070000E+02  0.48972E+06
 0.56120003E+02  0.32920E+06
 0.56170002E+02  0.38536E+05
 0.56220001E+02 -0.27250E+06
 0.56270000E+02 -0.71983E+06
 0.56320000E+02 -0.12194E+07
 0.56370003E+02 -0.15787E+07
 0.56420002E+02 -0.16834E+07
 0.56470001E+02 -0.16579E+07
 0.56520000E+02 -0.16659E+07
 0.56570000E+02 -0.17266E+07
 0.56620003E+02 -0.17341E+07
 0.56670002E+02 -0.15346E+07
 0.56720001E+02 -0.12752E+07
 0.56770000E+02 -0.10989E+07
 0.56820000E+02 -0.80783E+06
 0.56870003E+02 -0.24690E+06
 0.56920002E+02  0.39954E+06
 0.56970001E+02  0.98345E+06
 0.57020000E+02  0.13816E+07
 0.57070000E+02  0.13128E+07
 0.57120003E+02  0.10657E+07
 0.57170002E+02  0.81974E+06
 0.57220001E+02  0.44239E+06
 0.57270000E+02  0.23739E+06
 0.57320000E+02  0.96375E+05
 0.57370003E+02 -0.18124E+06
 0.57420002E+02 -0.45260E+06
 0.57470001E+02 -0.55628E+06
 0.57520000E+02 -0.38873E+06
 0.57570000E+02 -0.18567E+06
 0.57620003E+02 -0.47264E+05
 0.57670002E+02 -0.17312E+05
 0.57720001E+02 -0.21528E+06
 0.57770000E+02 -0.31122E+06
 0.57820000E+02 -0.14914E+06
 0.57870003E+02  0.12268E+05
 0.57920002E+02  0.26482E+06
 0.57970001E+02  0.60834E+06
 0.58020000E+02  0.90036E+06
 0.58070000E+02  0.13286E+07
 0.58120003E+02  0.17369E+07
 0.58170002E+02  0.19210E+07
 0.58220001E+02  0.19978E+07
 0.58270000E+02  0.18632E+07
 0.58320000E+02  0.14650E+07
 0.58370003E+02  0.11340E+07
 0.58420002E+02  0.11935E+07
 0.58470001E+02  0.14535E+07
 0.58520000E+02  0.15715E+07
 0.58570000E+02  0.14614E+07
 0.58620003E+02  0.12816E+07
 0.58670002E+02  0.11294E+07
 0.58720001E+02  0.72031E+06
 0.58770000E+02  0.96935E+05
 0.58820000E+02 -0.41854E+06
 0.58870003E+02 -0.61715E+06
 0.58920002E+02 -0.47534E+06
 0.58970001E+02 -0.13039E+06
 0.59020000E+02  0.36390E+06
 0.59070000E+02  0.71106E+06
 0.59120003E+02  0.67233E+06
 0.59170002E+02  0.27126E+06
 0.59220001E+02 -0.13790E+06
 0.59270000E+02 -0.25255E+06
 0.59320000E+02 -0.45182E+06
 0.59370003E+02 -0.79972E+06
 0.59420002E+02 -0.10071E+07
 0.59470001E+02 -0.10766E+07
 0.59520000E+02 -0.94719E+06
 0.59570000E+02 -0.72444E+06
 0.59620003E+02 -0.46545E+06
 0.59670002E+02  0.42821E+05
 0.59720001E+02  0.48722E+06
 0.59770000E+02  0.58670E+06
 0.59820000E+02  0.55388E+06
 0.59870003E+02  0.47582E+06
 0.59920002E+02  0.45157E+06
 0.59970001E+02  0.56942E+06
 0.60020000E+02  0.72770E+06
 0.60070000E+02  0.89595E+06
 0.60120003E+02  0.10797E+07
 0.60170002E+02  0.11880E+07
 0.60220001E+02  0.11613E+07
 0.60270000E+02  0.92490E+06
 0.60320000E+02  0.63601E+06
 0.60370003E+02  0.57764E+06
 0.60420002E+02  0.63992E+06
 0.60470001E+02  0.59102E+06
 0.60520000E+02  0.39761E+06
 0.60570000E+02  0.28315E+06
 0.60620003E+02  0.26312E+06
 0.60670002E+02  0.73638E+05
 0.60720001E+02 -0.15475E+06
 0.60770000E+02 -0.20544E+06
 0.60820000E+02 -0.16410E+06
 0.60870003E+02 -0.91159E+05
 0.60920002E+02 -0.94988E+05
 0.60970001E+02 -0.23902E+06
 0.61020000E+02 -0.31550E+06
 0.61070004E+02 -0.27877E+06
 0.61119999E+02 -0.27898E+06
 0.61170002E+02 -0.37968E+06
 0.61220005E+02 -0.48729E+06
 0.61270000E+02 -0.59422E+06
 0.61320004E+02 -0.73390E+06
 0.61369999E+02 -0.78008E+06
 0.61420002E+02 -0.96996E+06
 0.61470005E+02 -0.13371E+07
 0.61520000E+02 -0.15141E+07
 0.61570004E+02 -0.16124E+07
 0.61619999E+02 -0.18003E+07
 0.61670002E+02 -0.20021E+07
 0.61720005E+02 -0.20466E+07
 0.61770000E+02 -0.19139E+07
 0.61820004E+02 -0.17195E+07
 0.61869999E+02 -0.12563E+07
 0.61920002E+02 -0.50681E+06
 0.61970005E+02  0.15368E+06
 0.62020000E+02  0.62773E+06
 0.62070004E+02  0.10090E+07
 0.62119999E+02  0.11651E+07
 0.62170002E+02  0.99708E+06
 0.62220005E+02  0.68413E+06
 0.62270000E+02  0.50664E+06
 0.62320004E+02  0.58003E+06
 0.62369999E+02  0.71333E+06
 0.62420002E+02  0.73827E+06
 0.62470005E+02  0.76489E+06
 0.62520000E+02  0.77618E+06
 0.62570004E+02  0.68504E+06
 0.62619999E+02  0.59795E+06
 0.62670002E+02  0.50880E+06
 0.62720005E+02  0.46632E+06
 0.62770000E+02  0.46695E+06
 0.62820004E+02  0.38438E+06
 0.62869999E+02  0.32212E+06
 0.62920002E+02  0.36919E+06
 0.62970005E+02  0.51075E+06
 0.63020000E+02  0.68745E+06
 0.63070004E+02  0.79924E+06
 0.63119999E+02  0.71748E+06
 0.63170002E+02  0.43927E+06
 0.63220005E+02  0.11716E+06
 0.63270000E+02 -0.15828E+06
 0.63320004E+02 -0.30179E+06
 0.63369999E+02 -0.30084E+06
 0.63420002E+02 -0.31756E+06
 0.63470005E+02 -0.45859E+06
 0.63520000E+02 -0.72120E+06
 0.63570004E+02 -0.10515E+07
 0.63619999E+02 -0.13944E+07
 0.63670002E+02 -0.17914E+07
 0.63720005E+02 -0.21362E+07
 0.63770000E+02 -0.23486E+07
 0.63820004E+02 -0.24661E+07
 0.63869999E+02 -0.24626E+07
 0.63920002E+02 -0.22975E+07
 0.63970005E+02 -0.18998E+07
 0.64019997E+02 -0.14485E+07
 0.64070000E+02 -0.11189E+07
 0.64119995E+02 -0.90345E+06
 0.64169998E+02 -0.79131E+06
 0.64220001E+02 -0.73196E+06
 0.64269997E+02 -0.78451E+06
 0.64320000E+02 -0.95613E+06
 0.64369995E+02 -0.11830E+07
 0.64419998E+02 -0.13762E+07
 0.64470001E+02 -0.13703E+07
 0.64519997E+02 -0.11368E+07
 0.64570000E+02 -0.73401E+06
 0.64619995E+02 -0.21982E+06
 0.64669998E+02  0.24886E+06
 0.64720001E+02  0.52206E+06
 0.64769997E+02  0.71576E+06
 0.64820000E+02  0.93554E+06
 0.64869995E+02  0.10798E+07
 0.64919998E+02  0.12207E+07
 0.64970001E+02  0.14145E+07
 0.65019997E+02  0.15759E+07
 0.65070000E+02  0.15954E+07
 0.65119995E+02  0.14189E+07
 0.65169998E+02  0.12018E+07
 0.65220001E+02  0.99013E+06
 0.65269997E+02  0.78505E+06
 0.65320000E+02  0.64243E+06
 0.65369995E+02  0.54907E+06
 0.65419998E+02  0.49224E+06
 0.65470001E+02  0.39837E+06
 0.65519997E+02  0.27237E+06
 0.65570000E+02  0.14010E+06
 0.65619995E+02 -0.45552E+05
 0.65669998E+02 -0.18657E+06
 0.65720001E+02 -0.25977E+06
 0.65769997E+02 -0.45759E+06
 0.65820000E+02 -0.75465E+06
 0.65869995E+02 -0.98821E+06
 0.65919998E+02 -0.11241E+07
 0.65970001E+02 -0.11835E+07
 0.66019997E+02 -0.13410E+07
 0.66070000E+02 -0.16190E+07
 0.66119995E+02 -0.17342E+07
 0.66169998E+02 -0.15828E+07
 0.66220001E+02 -0.13104E+07
 0.66269997E+02 -0.98120E+06
 0.66320000E+02 -0.49626E+06
 0.66369995E+02  0.14708E+06
 0.66419998E+02  0.83709E+06
 0.66470001E+02  0.14961E+07
 0.66519997E+02  0.21089E+07
 0.66570000E+02  0.26098E+07
 0.66619995E+02  0.28135E+07
 0.66669998E+02  0.27276E+07
 0.66720001E+02  0.24487E+07
 0.66769997E+02  0.20653E+07
 0.66820000E+02  0.17607E+07
 0.66869995E+02  0.15261E+07
 0.66919998E+02  0.12616E+07
 0.66970001E+02  0.10063E+07
 0.67019997E+02  0.85898E+06
 0.67070000E+02  0.86209E+06
 0.67119995E+02  0.93400E+06
 0.67169998E+02  0.10147E+07
 0.67220001E+02  0.11147E+07
 0.67269997E+02  0.11098E+07
 0.67320000E+02  0.97917E+06
 0.67369995E+02  0.84172E+06
 0.67419998E+02  0.65481E+06
 0.67470001E+02  0.41303E+06
 0.67519997E+02  0.17245E+06
 0.67570000E+02 -0.68580E+04
 0.67619995E+02 -0.57864E+05
 0.67669998E+02  0.79160E+04
 0.67720001E+02  0.17274E+06
 0.67769997E+02  0.42243E+06
 0.67820000E+02  0.64212E+06
 0.67869995E+02  0.67107E+06
 0.67919998E+02  0.55716E+06
 0.67970001E+02  0.47548E+06
 0.68019997E+02  0.37832E+06
 0.68070000E+02  0.12375E+06
 0.68119995E+02 -0.28477E+06
 0.68169998E+02 -0.74449E+06
 0.68220001E+02 -0.11142E+07
 0.68269997E+02 -0.14079E+07
 0.68320000E+02 -0.17263E+07
 0.68369995E+02 -0.19631E+07
 0.68419998E+02 -0.20153E+07
 0.68470001E+02 -0.19796E+07
 0.68519997E+02 -0.18595E+07
 0.68570000E+02 -0.16339E+07
 0.68619995E+02 -0.13499E+07
 0.68669998E+02 -0.10005E+07
 0.68720001E+02 -0.64246E+06
 0.68769997E+02 -0.29804E+06
 0.68820000E+02  0.14845E+05
 0.68869995E+02  0.23758E+06
 0.68919998E+02  0.35927E+06
 0.68970001E+02  0.44812E+06
 0.69019997E+02  0.57413E+06
 0.69070000E+02  0.71488E+06
 0.69119995E+02  0.96568E+06
 0.69169998E+02  0.12479E+07
 0.69220001E+02  0.12683E+07
 0.69269997E+02  0.11211E+07
 0.69320000E+02  0.10132E+07
 0.69369995E+02  0.91543E+06
 0.69419998E+02  0.80818E+06
 0.69470001E+02  0.67668E+06
 0.69519997E+02  0.50576E+06
 0.69570000E+02  0.28510E+06
 0.69619995E+02  0.43169E+05
 0.69669998E+02 -0.14414E+06
 0.69720001E+02 -0.29275E+06
 0.69769997E+02 -0.32716E+06
 0.69820000E+02 -0.18382E+06
 0.69869995E+02  0.30250E+05
 0.69919998E+02  0.21910E+06
 0.69970001E+02  0.32252E+06
 0.70019997E+02  0.34720E+06
 0.70070000E+02  0.32402E+06
 0.70119995E+02  0.22768E+06
 0.70169998E+02  0.11424E+05
 0.70220001E+02 -0.26598E+06
 0.70269997E+02 -0.55807E+06
 0.70320000E+02 -0.87460E+06
 0.70369995E+02 -0.10615E+07
 0.70419998E+02 -0.10947E+07
 0.70470001E+02 -0.10648E+07
 0.70519997E+02 -0.94024E+06
 0.70570000E+02 -0.78032E+06
 0.70619995E+02 -0.64656E+06
 0.70669998E+02 -0.50118E+06
 0.70720001E+02 -0.28784E+06
 0.70769997E+02  0.76040E+04
 0.70820000E+02  0.31029E+06
 0.70869995E+02  0.59324E+06
 0.70919998E+02  0.85699E+06
 0.70970001E+02  0.97368E+06
 0.71019997E+02  0.86260E+06
 0.71070000E+02  0.61267E+06
 0.71119995E+02  0.34368E+06
 0.71169998E+02  0.12553E+06
 0.71220001E+02  0.11706E+05
 0.71269997E+02  0.21786E+05
 0.71320000E+02  0.96657E+05
 0.71369995E+02  0.21336E+06
 0.71419998E+02  0.39421E+06
 0.71470001E+02  0.57288E+06
 0.71519997E+02  0.66605E+06
 0.71570000E+02  0.69465E+06
 0.71619995E+02  0.73643E+06
 0.71669998E+02  0.77392E+06
 0.71720001E+02  0.72517E+06
 0.71769997E+02  0.63911E+06
 0.71820000E+02  0.52965E+06
 0.71869995E+02  0.34275E+06
 0.71919998E+02  0.77928E+05
 0.71970001E+02 -0.23596E+06
 0.72019997E+02 -0.52987E+06
 0.72070000E+02 -0.79047E+06
 0.72119995E+02 -0.10316E+07
 0.72169998E+02 -0.12672E+07
 0.72220001E+02 -0.14662E+07
 0.72269997E+02 -0.15833E+07
 0.72320000E+02 -0.16246E+07
 0.72369995E+02 -0.15637E+07
 0.72419998E+02 -0.13866E+07
 0.72470001E+02 -0.11299E+07
 0.72519997E+02 -0.88602E+06
 0.72570000E+02 -0.73926E+06
 0.72619995E+02 -0.61430E+06
 0.72669998E+02 -0.41777E+06
 0.72720001E+02 -0.19733E+06
 0.72769997E+02  0.13856E+05
 0.72820000E+02  0.22705E+06
 0.72869995E+02  0.45005E+06
 0.72919998E+02  0.61126E+06
 0.72970001E+02  0.64562E+06
 0.73019997E+02  0.63534E+06
 0.73070000E+02  0.63479E+06
 0.73119995E+02  0.68140E+06
 0.73169998E+02  0.76445E+06
 0.73220001E+02  0.83502E+06
 0.73269997E+02  0.91414E+06
 0.73320000E+02  0.10158E+07
 0.73369995E+02  0.11558E+07
 0.73419998E+02  0.12999E+07
 0.73470001E+02  0.14455E+07
 0.73519997E+02  0.15504E+07
 0.73570000E+02  0.14798E+07
 0.73619995E+02  0.12630E+07
 0.73669998E+02  0.10098E+07
 0.73720001E+02  0.83089E+06
 0.73769997E+02  0.71889E+06
 0.73820000E+02  0.51612E+06
 0.73869995E+02  0.20816E+06
 0.73919998E+02 -0.81551E+05
 0.73970001E+02 -0.22298E+06
 0.74019997E+02 -0.21220E+06
 0.74070000E+02 -0.13806E+06
 0.74119995E+02 -0.59014E+05
 0.74169998E+02 -0.51767E+05
 0.74220001E+02 -0.13469E+06
 0.74269997E+02 -0.28888E+06
 0.74320000E+02 -0.51964E+06
 0.74369995E+02 -0.78446E+06
 0.74419998E+02 -0.10137E+07
 0.74470001E+02 -0.11532E+07
 0.74519997E+02 -0.11791E+07
 0.74570000E+02 -0.11162E+07
 0.74619995E+02 -0.10165E+07
 0.74669998E+02 -0.93008E+06
 0.74720001E+02 -0.84501E+06
 0.74769997E+02 -0.73465E+06
 0.74820000E+02 -0.62622E+06
 0.74869995E+02 -0.53979E+06
 0.74919998E+02 -0.44670E+06
 0.74970001E+02 -0.28621E+06
 0.75019997E+02 -0.11308E+06
 0.75070000E+02 -0.23267E+05
 0.75119995E+02 -0.46426E+05
 0.75169998E+02 -0.18620E+06
 0.75220001E+02 -0.36354E+06
 0.75269997E+02 -0.51275E+06
 0.75320000E+02 -0.61093E+06
 0.75369995E+02 -0.65321E+06
 0.75419998E+02 -0.61182E+06
 0.75470001E+02 -0.47138E+06
 0.75519997E+02 -0.31750E+06
 0.75570000E+02 -0.20062E+06
 0.75619995E+02 -0.13448E+06
 0.75669998E+02 -0.11472E+06
 0.75720001E+02 -0.11038E+06
 0.75769997E+02 -0.11978E+06
 0.75820000E+02 -0.14866E+06
 0.75869995E+02 -0.19864E+06
 0.75919998E+02 -0.26525E+06
 0.75970001E+02 -0.32352E+06
 0.76019997E+02 -0.35040E+06
 0.76070000E+02 -0.29160E+06
 0.76119995E+02 -0.12555E+06
 0.76169998E+02  0.63060E+04
 0.76220001E+02  0.46193E+05
 0.76269997E+02  0.61476E+05
 0.76320000E+02  0.26302E+05
 0.76369995E+02 -0.88221E+05
 0.76419998E+02 -0.24787E+06
 0.76470001E+02 -0.42130E+06
 0.76519997E+02 -0.56875E+06
 0.76570000E+02 -0.62129E+06
 0.76619995E+02 -0.60233E+06
 0.76669998E+02 -0.60703E+06
 0.76720001E+02 -0.60825E+06
 0.76769997E+02 -0.54491E+06
 0.76820000E+02 -0.43944E+06
 0.76869995E+02 -0.31880E+06
 0.76919998E+02 -0.21945E+06
 0.76970001E+02 -0.16266E+06
 0.77019997E+02 -0.12516E+06
 0.77070000E+02 -0.44123E+05
 0.77119995E+02  0.13270E+06
 0.77169998E+02  0.34838E+06
 0.77220001E+02  0.54708E+06
 0.77269997E+02  0.70026E+06
 0.77320000E+02  0.75956E+06
 0.77369995E+02  0.73425E+06
 0.77419998E+02  0.66758E+06
 0.77470001E+02  0.62804E+06
 0.77519997E+02  0.59762E+06
 0.77570000E+02  0.54717E+06
 0.77619995E+02  0.53707E+06
 0.77669998E+02  0.51686E+06
 0.77720001E+02  0.48915E+06
 0.77769997E+02  0.49022E+06
 0.77820000E+02  0.53889E+06
 0.77869995E+02  0.67363E+06
 0.77919998E+02  0.76872E+06
 0.77970001E+02  0.76850E+06
 0.78019997E+02  0.72599E+06
 0.78070000E+02  0.69884E+06
 0.78119995E+02  0.73444E+06
 0.78169998E+02  0.77112E+06
 0.78220001E+02  0.75918E+06
 0.78269997E+02  0.69773E+06
 0.78320000E+02  0.61793E+06
 0.78369995E+02  0.52855E+06
 0.78419998E+02  0.41822E+06
 0.78470001E+02  0.32488E+06
 0.78519997E+02  0.23903E+06
 0.78570000E+02  0.12854E+06
 0.78619995E+02 -0.14565E+05
 0.78669998E+02 -0.16940E+06
 0.78720001E+02 -0.29278E+06
 0.78769997E+02 -0.37958E+06
 0.78820000E+02 -0.46120E+06
 0.78869995E+02 -0.54363E+06
 0.78919998E+02 -0.55098E+06
 0.78970001E+02 -0.44399E+06
 0.79019997E+02 -0.28328E+06
 0.79070000E+02 -0.10099E+06
 0.79119995E+02  0.94561E+05
 0.79169998E+02  0.25893E+06
 0.79220001E+02  0.36349E+06
 0.79269997E+02  0.39550E+06
 0.79320000E+02  0.36369E+06
 0.79369995E+02  0.32716E+06
 0.79419998E+02  0.31180E+06
 0.79470001E+02  0.27676E+06
 0.79519997E+02  0.20977E+06
 0.79570000E+02  0.12533E+06
 0.79619995E+02  0.49929E+05
 0.79669998E+02  0.16550E+05
 0.79720001E+02 -0.21229E+05
 0.79769997E+02 -0.74975E+05
 0.79820000E+02 -0.61343E+05
 0.79869995E+02  0.13802E+05
 0.79919998E+02  0.64620E+05
 0.79970001E+02  0.46975E+05
 0.80019997E+02 -0.21670E+04
 0.80070000E+02 -0.39353E+05
 0.80119995E+02 -0.11000E+06
 0.80169998E+02 -0.19830E+06
 0.80220001E+02 -0.26330E+06
 0.80269997E+02 -0.33881E+06
 0.80320000E+02 -0.42508E+06
 0.80369995E+02 -0.49820E+06
 0.80419998E+02 -0.53558E+06
 0.80470001E+02 -0.55979E+06
 0.80519997E+02 -0.60168E+06
 0.80570000E+02 -0.66851E+06
 0.80619995E+02 -0.75006E+06
 0.80669998E+02 -0.79516E+06
 0.80720001E+02 -0.76961E+06
 0.80769997E+02 -0.69672E+06
 0.80820000E+02 -0.66012E+06
 0.80869995E+02 -0.68878E+06
 0.80919998E+02 -0.70072E+06
 0.80970001E+02 -0.65744E+06
 0.81019997E+02 -0.60824E+06
 0.81070000E+02 -0.53764E+06
 0.81119995E+02 -0.43917E+06
 0.81169998E+02 -0.38827E+06
 0.81220001E+02 -0.35016E+06
 0.81269997E+02 -0.25826E+06
 0.81320000E+02 -0.12968E+06
 0.81369995E+02 -0.42900E+03
 0.81419998E+02  0.10833E+06
 0.81470001E+02  0.18566E+06
 0.81519997E+02  0.22262E+06
 0.81570000E+02  0.28551E+06
 0.81619995E+02  0.43570E+06
 0.81669998E+02  0.62513E+06
 0.81720001E+02  0.77593E+06
 0.81769997E+02  0.90537E+06
 0.81820000E+02  0.10778E+07
 0.81869995E+02  0.12536E+07
 0.81919998E+02  0.13487E+07
 0.81970001E+02  0.13343E+07
 0.82019997E+02  0.12432E+07
 0.82070000E+02  0.11478E+07
 0.82119995E+02  0.11061E+07
 0.82169998E+02  0.11168E+07
 0.82220001E+02  0.11544E+07
 0.82269997E+02  0.11914E+07
 0.82320000E+02  0.11527E+07
 0.82369995E+02  0.99528E+06
 0.82419998E+02  0.79741E+06
 0.82470001E+02  0.61712E+06
 0.82519997E+02  0.42014E+06
 0.82570000E+02  0.18941E+06
 0.82619995E+02 -0.57968E+05
 0.82669998E+02 -0.27254E+06
 0.82720001E+02 -0.40593E+06
 0.82769997E+02 -0.46540E+06
 0.82820000E+02 -0.49012E+06
 0.82869995E+02 -0.48356E+06
 0.82919998E+02 -0.42938E+06
 0.82970001E+02 -0.40524E+06
 0.83019997E+02 -0.44894E+06
 0.83070000E+02 -0.51970E+06
 0.83119995E+02 -0.60551E+06
 0.83169998E+02 -0.66619E+06
 0.83220001E+02 -0.68888E+06
 0.83269997E+02 -0.66283E+06
 0.83320000E+02 -0.57245E+06
 0.83369995E+02 -0.43909E+06
 0.83419998E+02 -0.27005E+06
 0.83470001E+02 -0.13624E+06
 0.83519997E+02 -0.97255E+05
 0.83570000E+02 -0.10541E+06
 0.83619995E+02 -0.10500E+06
 0.83669998E+02 -0.91341E+05
 0.83720001E+02 -0.86977E+05
 0.83769997E+02 -0.63972E+05
 0.83820000E+02  0.38770E+04
 0.83869995E+02  0.78557E+05
 0.83919998E+02  0.14060E+06
 0.83970001E+02  0.20127E+06
 0.84019997E+02  0.25185E+06
 0.84070000E+02  0.24608E+06
 0.84119995E+02  0.17549E+06
 0.84169998E+02  0.85671E+05
 0.84220001E+02 -0.56520E+04
 0.84269997E+02 -0.83363E+05
 0.84320000E+02 -0.13215E+06
 0.84369995E+02 -0.12363E+06
 0.84419998E+02 -0.46771E+05
 0.84470001E+02  0.55629E+05
 0.84519997E+02  0.15217E+06
 0.84570000E+02  0.20231E+06
 0.84619995E+02  0.20021E+06
 0.84669998E+02  0.17242E+06
 0.84720001E+02  0.82007E+05
 0.84769997E+02 -0.10910E+06
 0.84820000E+02 -0.36130E+06
 0.84869995E+02 -0.61719E+06
 0.84919998E+02 -0.84788E+06
 0.84970001E+02 -0.10186E+07
 0.85019997E+02 -0.11133E+07
 0.85070000E+02 -0.11380E+07
 0.85119995E+02 -0.10844E+07
 0.85169998E+02 -0.96060E+06
 0.85220001E+02 -0.81800E+06
 0.85269997E+02 -0.71174E+06
 0.85320000E+02 -0.64377E+06
 0.85369995E+02 -0.58021E+06
 0.85419998E+02 -0.48656E+06
 0.85470001E+02 -0.37146E+06
 0.85519997E+02 -0.27745E+06
 0.85570000E+02 -0.23471E+06
 0.85619995E+02 -0.26149E+06
 0.85669998E+02 -0.31221E+06
 0.85720001E+02 -0.32850E+06
 0.85769997E+02 -0.31282E+06
 0.85820000E+02 -0.30100E+06
 0.85869995E+02 -0.33053E+06
 0.85919998E+02 -0.35196E+06
 0.85970001E+02 -0.28330E+06
 0.86019997E+02 -0.15829E+06
 0.86070000E+02 -0.18263E+05
 0.86119995E+02  0.15362E+06
 0.86169998E+02  0.33934E+06
 0.86220001E+02  0.50510E+06
 0.86269997E+02  0.63417E+06
 0.86320000E+02  0.73355E+06
 0.86369995E+02  0.79562E+06
 0.86419998E+02  0.81675E+06
 0.86470001E+02  0.81624E+06
 0.86519997E+02  0.80781E+06
 0.86570000E+02  0.80984E+06
 0.86619995E+02  0.80121E+06
 0.86669998E+02  0.75606E+06
 0.86720001E+02  0.67552E+06
 0.86769997E+02  0.57907E+06
 0.86820000E+02  0.47561E+06
 0.86869995E+02  0.34259E+06
 0.86919998E+02  0.18428E+06
 0.86970001E+02 -0.28840E+04
 0.87019997E+02 -0.19885E+06
 0.87070000E+02 -0.37064E+06
 0.87119995E+02 -0.51975E+06
 0.87169998E+02 -0.60976E+06
 0.87220001E+02 -0.65869E+06
 0.87269997E+02 -0.68878E+06
 0.87320000E+02 -0.65043E+06
 0.87369995E+02 -0.55827E+06
 0.87419998E+02 -0.46433E+06
 0.87470001E+02 -0.38441E+06
 0.87519997E+02 -0.30311E+06
 0.87570000E+02 -0.19780E+06
 0.87619995E+02 -0.57017E+05
 0.87669998E+02  0.79567E+05
 0.87720001E+02  0.16032E+06
 0.87769997E+02  0.16914E+06
 0.87820000E+02  0.12597E+06
 0.87869995E+02  0.10302E+06
 0.87919998E+02  0.12939E+06
 0.87970001E+02  0.19533E+06
 0.88019997E+02  0.28714E+06
 0.88070000E+02  0.37432E+06
 0.88119995E+02  0.46234E+06
 0.88169998E+02  0.56469E+06
 0.88220001E+02  0.66041E+06
 0.88269997E+02  0.71524E+06
 0.88320000E+02  0.71893E+06
 0.88369995E+02  0.69243E+06
 0.88419998E+02  0.65274E+06
 0.88470001E+02  0.60316E+06
 0.88519997E+02  0.54403E+06
 0.88570000E+02  0.46996E+06
 0.88619995E+02  0.37294E+06
 0.88669998E+02  0.25554E+06
 0.88720001E+02  0.15498E+06
 0.88769997E+02  0.98992E+05
 0.88820000E+02  0.45942E+05
 0.88869995E+02 -0.51595E+05
 0.88919998E+02 -0.18400E+06
 0.88970001E+02 -0.30206E+06
 0.89019997E+02 -0.38828E+06
 0.89070000E+02 -0.44448E+06
 0.89119995E+02 -0.43317E+06
 0.89169998E+02 -0.36625E+06
 0.89220001E+02 -0.30535E+06
 0.89269997E+02 -0.27890E+06
 0.89320000E+02 -0.27263E+06
 0.89369995E+02 -0.27437E+06
 0.89419998E+02 -0.30233E+06
 0.89470001E+02 -0.37160E+06
 0.89519997E+02 -0.46161E+06
 0.89570000E+02 -0.49535E+06
 0.89619995E+02 -0.46417E+06
 0.89669998E+02 -0.44927E+06
 0.89720001E+02 -0.47948E+06
 0.89769997E+02 -0.52014E+06
 0.89820000E+02 -0.52669E+06
 0.89869995E+02 -0.47485E+06
 0.89919998E+02 -0.36989E+06
 0.89970001E+02 -0.25052E+06
 0.90019997E+02 -0.14853E+06
 0.90070000E+02 -0.63623E+05
 0.90119995E+02  0.74600E+04
 0.90169998E+02  0.73727E+05
 0.90220001E+02  0.16980E+06
 0.90269997E+02  0.28399E+06
 0.90320000E+02  0.35440E+06
 0.90369995E+02  0.38615E+06
 0.90419998E+02  0.40370E+06
 0.90470001E+02  0.37370E+06
 0.90519997E+02  0.28710E+06
 0.90570000E+02  0.20447E+06
 0.90619995E+02  0.17021E+06
 0.90669998E+02  0.14441E+06
 0.90720001E+02  0.78483E+05
 0.90769997E+02  0.13084E+05
 0.90820000E+02 -0.75590E+04
 0.90869995E+02 -0.18840E+04
 0.90919998E+02  0.16715E+05
 0.90970001E+02  0.44904E+05
 0.91019997E+02  0.92015E+05
 0.91070000E+02  0.14440E+06
 0.91119995E+02  0.16487E+06
 0.91169998E+02  0.16228E+06
 0.91220001E+02  0.17329E+06
 0.91269997E+02  0.23943E+06
 0.91320000E+02  0.35465E+06
 0.91369995E+02  0.47158E+06
 0.91419998E+02  0.57946E+06
 0.91470001E+02  0.68244E+06
 0.91519997E+02  0.78428E+06
 0.91570000E+02  0.88183E+06
 0.91619995E+02  0.95108E+06
 0.91669998E+02  0.99067E+06
 0.91720001E+02  0.99986E+06
 0.91769997E+02  0.96554E+06
 0.91820000E+02  0.89771E+06
 0.91869995E+02  0.80494E+06
 0.91919998E+02  0.69929E+06
 0.91970001E+02  0.58213E+06
 0.92019997E+02  0.45686E+06
 0.92070000E+02  0.38126E+06
 0.92119995E+02  0.36412E+06
 0.92169998E+02  0.34545E+06
 0.92220001E+02  0.30514E+06
 0.92269997E+02  0.26513E+06
 0.92320000E+02  0.24139E+06
 0.92369995E+02  0.21125E+06
 0.92419998E+02  0.15997E+06
 0.92470001E+02  0.78120E+05
 0.92519997E+02 -0.43732E+05
 0.92570000E+02 -0.16480E+06
 0.92619995E+02 -0.26116E+06
 0.92669998E+02 -0.33643E+06
 0.92720001E+02 -0.39202E+06
 0.92769997E+02 -0.43880E+06
 0.92820000E+02 -0.48458E+06
 0.92869995E+02 -0.54021E+06
 0.92919998E+02 -0.59533E+06
 0.92970001E+02 -0.63017E+06
 0.93019997E+02 -0.63803E+06
 0.93070000E+02 -0.62549E+06
 0.93119995E+02 -0.62055E+06
 0.93169998E+02 -0.62059E+06
 0.93220001E+02 -0.58965E+06
 0.93269997E+02 -0.51498E+06
 0.93320000E+02 -0.43689E+06
 0.93369995E+02 -0.39579E+06
 0.93419998E+02 -0.37728E+06
 0.93470001E+02 -0.34778E+06
 0.93519997E+02 -0.29801E+06
 0.93570000E+02 -0.25020E+06
 0.93619995E+02 -0.21932E+06
 0.93669998E+02 -0.21291E+06
 0.93720001E+02 -0.22418E+06
 0.93769997E+02 -0.23321E+06
 0.93820000E+02 -0.23236E+06
 0.93869995E+02 -0.20567E+06
 0.93919998E+02 -0.15339E+06
 0.93970001E+02 -0.98367E+05
 0.94019997E+02 -0.55542E+05
 0.94070000E+02 -0.31020E+04
 0.94119995E+02  0.78289E+05
 0.94169998E+02  0.16978E+06
 0.94220001E+02  0.26095E+06
 0.94269997E+02  0.32417E+06
 0.94320000E+02  0.33389E+06
 0.94369995E+02  0.32318E+06
 0.94419998E+02  0.31596E+06
 0.94470001E+02  0.28935E+06
 0.94519997E+02  0.23440E+06
 0.94570000E+02  0.16936E+06
 0.94619995E+02  0.10086E+06
 0.94669998E+02  0.43210E+04
 0.94720001E+02 -0.14437E+06
 0.94769997E+02 -0.31303E+06
 0.94820000E+02 -0.45120E+06
 0.94869995E+02 -0.54701E+06
 0.94919998E+02 -0.58402E+06
 0.94970001E+02 -0.54464E+06
 0.95019997E+02 -0.46387E+06
 0.95070000E+02 -0.37743E+06
 0.95119995E+02 -0.28866E+06
 0.95169998E+02 -0.19903E+06
 0.95220001E+02 -0.10139E+06
 0.95269997E+02  0.11494E+05
 0.95320000E+02  0.12181E+06
 0.95369995E+02  0.20522E+06
 0.95419998E+02  0.26612E+06
 0.95470001E+02  0.31563E+06
 0.95519997E+02  0.32850E+06
 0.95570000E+02  0.29155E+06
 0.95619995E+02  0.26011E+06
 0.95669998E+02  0.28470E+06
 0.95720001E+02  0.32314E+06
 0.95769997E+02  0.29985E+06
 0.95820000E+02  0.23196E+06
 0.95869995E+02  0.16097E+06
 0.95919998E+02  0.70806E+05
 0.95970001E+02 -0.28630E+05
 0.96019997E+02 -0.11191E+06
 0.96070000E+02 -0.15783E+06
 0.96119995E+02 -0.14899E+06
 0.96169998E+02 -0.99660E+05
 0.96220001E+02 -0.17778E+05
 0.96269997E+02  0.91712E+05
 0.96320000E+02  0.21288E+06
 0.96369995E+02  0.32891E+06
 0.96419998E+02  0.41955E+06
 0.96470001E+02  0.48253E+06
 0.96519997E+02  0.51848E+06
 0.96570000E+02  0.52089E+06
 0.96619995E+02  0.50956E+06
 0.96669998E+02  0.51887E+06
 0.96720001E+02  0.54852E+06
 0.96769997E+02  0.56383E+06
 0.96820000E+02  0.53567E+06
 0.96869995E+02  0.45535E+06
 0.96919998E+02  0.34343E+06
 0.96970001E+02  0.21169E+06
 0.97019997E+02  0.44071E+05
 0.97070000E+02 -0.14221E+06
 0.97119995E+02 -0.29596E+06
 0.97169998E+02 -0.39596E+06
 0.97220001E+02 -0.46291E+06
 0.97269997E+02 -0.49434E+06
 0.97320000E+02 -0.48654E+06
 0.97369995E+02 -0.46306E+06
 0.97419998E+02 -0.42116E+06
 0.97470001E+02 -0.36449E+06
 0.97519997E+02 -0.31385E+06
 0.97570000E+02 -0.28392E+06
 0.97619995E+02 -0.26653E+06
 0.97669998E+02 -0.24891E+06
 0.97720001E+02 -0.23948E+06
 0.97769997E+02 -0.21834E+06
 0.97820000E+02 -0.16537E+06
 0.97869995E+02 -0.10250E+06
 0.97919998E+02 -0.54743E+05
 0.97970001E+02 -0.48680E+04
 0.98019997E+02  0.70787E+05
 0.98070000E+02  0.13842E+06
 0.98119995E+02  0.14084E+06
 0.98169998E+02  0.69340E+05
 0.98220001E+02 -0.53284E+05
 0.98269997E+02 -0.20332E+06
 0.98320000E+02 -0.33427E+06
 0.98369995E+02 -0.42190E+06
 0.98419998E+02 -0.47612E+06
 0.98470001E+02 -0.50478E+06
 0.98519997E+02 -0.52806E+06
 0.98570000E+02 -0.54201E+06
 0.98619995E+02 -0.52804E+06
 0.98669998E+02 -0.51624E+06
 0.98720001E+02 -0.50828E+06
 0.98769997E+02 -0.46513E+06
 0.98820000E+02 -0.38400E+06
 0.98869995E+02 -0.27845E+06
 0.98919998E+02 -0.17237E+06
 0.98970001E+02 -0.86063E+05
 0.99019997E+02 -0.24146E+05
 0.99070000E+02  0.75300E+04
 0.99119995E+02  0.22872E+05
 0.99169998E+02  0.34860E+05
 0.99220001E+02  0.36320E+05
 0.99269997E+02  0.37922E+05
 0.99320000E+02  0.56609E+05
 0.99369995E+02  0.88863E+05
 0.99419998E+02  0.10494E+06
 0.99470001E+02  0.87002E+05
 0.99519997E+02  0.69803E+05
 0.99570000E+02  0.65951E+05
 0.99619995E+02  0.51847E+05
 0.99669998E+02  0.32841E+05
 0.99720001E+02  0.28835E+05
 0.99769997E+02  0.46548E+05
 0.99820000E+02  0.87349E+05
 0.99869995E+02  0.14685E+06
 0.99919998E+02  0.20796E+06
 0.99970001E+02  0.24860E+06
 0.10002000E+03  0.25547E+06
 0.10007000E+03  0.21295E+06
 0.10012000E+03  0.10121E+06
 0.10017000E+03 -0.42159E+05
 0.10022000E+03 -0.15303E+06
 0.10027000E+03 -0.22214E+06
 0.10032000E+03 -0.25548E+06
 0.10037000E+03 -0.24933E+06
 0.10042000E+03 -0.22199E+06
 0.10047000E+03 -0.21195E+06
 0.10052000E+03 -0.22814E+06
 0.10057000E+03 -0.23098E+06
 0.10062000E+03 -0.20852E+06
 0.10067000E+03 -0.18560E+06
 0.10072000E+03 -0.16798E+06
 0.10077000E+03 -0.15822E+06
 0.10082000E+03 -0.15957E+06
 0.10087000E+03 -0.16501E+06
 0.10092000E+03 -0.17142E+06
 0.10097000E+03 -0.17600E+06
 0.10102000E+03 -0.15872E+06
 0.10107000E+03 -0.11268E+06
 0.10112000E+03 -0.49405E+05
 0.10117000E+03  0.31561E+05
 0.10122000E+03  0.10929E+06
 0.10127000E+03  0.16609E+06
 0.10132000E+03  0.20850E+06
 0.10137000E+03  0.24116E+06
 0.10142000E+03  0.28519E+06
 0.10147000E+03  0.35522E+06
 0.10152000E+03  0.43767E+06
 0.10157000E+03  0.48564E+06
 0.10162000E+03  0.45433E+06
 0.10167000E+03  0.35489E+06
 0.10172000E+03  0.24444E+06
 0.10177000E+03  0.17391E+06
 0.10182000E+03  0.13305E+06
 0.10187000E+03  0.10204E+06
 0.10192000E+03  0.75803E+05
 0.10197000E+03  0.47637E+05
 0.10202000E+03  0.23218E+05
 0.10207000E+03  0.88100E+03
 0.10212000E+03 -0.27015E+05
 0.10217000E+03 -0.68975E+05
 0.10222000E+03 -0.11684E+06
 0.10227000E+03 -0.16940E+06
 0.10232000E+03 -0.24483E+06
 0.10237000E+03 -0.32620E+06
 0.10242000E+03 -0.38122E+06
 0.10247000E+03 -0.38519E+06
 0.10252000E+03 -0.33217E+06
 0.10257000E+03 -0.23689E+06
 0.10262000E+03 -0.10942E+06
 0.10267000E+03  0.22972E+05
 0.10272000E+03  0.14358E+06
 0.10277000E+03  0.23949E+06
 0.10282000E+03  0.28917E+06
 0.10287000E+03  0.31000E+06
 0.10292000E+03  0.31564E+06
 0.10297000E+03  0.30922E+06
 0.10302000E+03  0.30168E+06
 0.10307000E+03  0.29364E+06
 0.10312000E+03  0.27923E+06
 0.10317000E+03  0.26179E+06
 0.10322000E+03  0.26839E+06
 0.10327000E+03  0.29544E+06
 0.10332000E+03  0.31012E+06
 0.10337000E+03  0.31173E+06
 0.10342000E+03  0.31653E+06
 0.10347000E+03  0.34036E+06
 0.10352000E+03  0.38487E+06
 0.10357000E+03  0.42645E+06
 0.10362000E+03  0.45188E+06
 0.10367000E+03  0.47036E+06
 0.10372000E+03  0.47901E+06
 0.10377000E+03  0.47193E+06
 0.10382000E+03  0.45583E+06
 0.10387000E+03  0.43245E+06
 0.10392000E+03  0.40232E+06
 0.10397000E+03  0.37098E+06
 0.10402000E+03  0.34349E+06
 0.10407000E+03  0.31393E+06
 0.10412000E+03  0.28368E+06
 0.10417000E+03  0.25209E+06
 0.10422000E+03  0.19890E+06
 0.10427000E+03  0.13637E+06
 0.10432000E+03  0.84137E+05
 0.10437000E+03  0.43198E+05
 0.10442000E+03  0.19589E+05
 0.10447000E+03  0.91770E+04
 0.10452000E+03  0.91020E+04
 0.10457000E+03  0.15357E+05
 0.10462000E+03  0.21866E+05
 0.10467000E+03  0.23681E+05
 0.10472000E+03  0.33028E+05
 0.10477000E+03  0.75835E+05
 0.10482000E+03  0.13870E+06
 0.10487000E+03  0.19051E+06
 0.10492000E+03  0.20855E+06
 0.10497000E+03  0.18810E+06
 0.10502000E+03  0.14705E+06
 0.10507000E+03  0.89123E+05
 0.10512000E+03  0.90390E+04
 0.10517000E+03 -0.82941E+05
 0.10522000E+03 -0.17690E+06
 0.10527000E+03 -0.27546E+06
 0.10532000E+03 -0.37206E+06
 0.10537000E+03 -0.44887E+06
 0.10542000E+03 -0.49470E+06
 0.10547000E+03 -0.51569E+06
 0.10552000E+03 -0.52110E+06
 0.10557000E+03 -0.51276E+06
 0.10562000E+03 -0.50788E+06
 0.10567000E+03 -0.52369E+06
 0.10572000E+03 -0.55104E+06
 0.10577000E+03 -0.56782E+06
 0.10582000E+03 -0.56686E+06
 0.10587000E+03 -0.55592E+06
 0.10592000E+03 -0.54288E+06
 0.10597000E+03 -0.53357E+06
 0.10602000E+03 -0.51793E+06
 0.10607000E+03 -0.47581E+06
 0.10612000E+03 -0.40520E+06
 0.10617000E+03 -0.33027E+06
 0.10622000E+03 -0.25859E+06
 0.10627000E+03 -0.17296E+06
 0.10632000E+03 -0.88537E+05
 0.10637000E+03 -0.26576E+05
 0.10642000E+03  0.14793E+05
 0.10647000E+03  0.39571E+05
 0.10652000E+03  0.49828E+05
 0.10657000E+03  0.33634E+05
 0.10662000E+03 -0.44850E+04
 0.10667000E+03 -0.36916E+05
 0.10672000E+03 -0.37407E+05
 0.10677000E+03  0.47910E+04
 0.10682000E+03  0.72436E+05
 0.10687000E+03  0.14815E+06
 0.10692000E+03  0.22072E+06
 0.10697000E+03  0.28074E+06
 0.10702000E+03  0.31041E+06
 0.10707000E+03  0.28994E+06
 0.10712000E+03  0.22800E+06
 0.10717000E+03  0.13794E+06
 0.10722000E+03  0.31951E+05
 0.10727000E+03 -0.75801E+05
 0.10732000E+03 -0.17857E+06
 0.10737000E+03 -0.26383E+06
 0.10742000E+03 -0.33299E+06
 0.10747000E+03 -0.38875E+06
 0.10752000E+03 -0.42921E+06
 0.10757000E+03 -0.47086E+06
 0.10762000E+03 -0.51740E+06
 0.10767000E+03 -0.56853E+06
 0.10772000E+03 -0.62167E+06
 0.10777000E+03 -0.65894E+06
 0.10782000E+03 -0.67541E+06
 0.10787000E+03 -0.66745E+06
 0.10792000E+03 -0.62475E+06
 0.10797000E+03 -0.55573E+06
 0.10802000E+03 -0.48507E+06
 0.10807000E+03 -0.42722E+06
 0.10812000E+03 -0.38224E+06
 0.10817000E+03 -0.34884E+06
 0.10822000E+03 -0.31652E+06
 0.10827000E+03 -0.26753E+06
 0.10832000E+03 -0.20973E+06
 0.10837000E+03 -0.16197E+06
 0.10842000E+03 -0.12086E+06
 0.10847000E+03 -0.87633E+05
 0.10852000E+03 -0.67437E+05
 0.10857000E+03 -0.38822E+05
 0.10862000E+03  0.13083E+05
 0.10867000E+03  0.74283E+05
 0.10872000E+03  0.13571E+06
 0.10877000E+03  0.20210E+06
 0.10882000E+03  0.27641E+06
 0.10887000E+03  0.35671E+06
 0.10892000E+03  0.42777E+06
 0.10897000E+03  0.45141E+06
 0.10902000E+03  0.42073E+06
 0.10907000E+03  0.37261E+06
 0.10912000E+03  0.32243E+06
 0.10917000E+03  0.28068E+06
 0.10922000E+03  0.25749E+06
 0.10927000E+03  0.24162E+06
 0.10932000E+03  0.23726E+06
 0.10937000E+03  0.26071E+06
 0.10942000E+03  0.30631E+06
 0.10947000E+03  0.35222E+06
 0.10952000E+03  0.37819E+06
 0.10957000E+03  0.37434E+06
 0.10962000E+03  0.35992E+06
 0.10967000E+03  0.35830E+06
 0.10972000E+03  0.36766E+06
 0.10977000E+03  0.39008E+06
 0.10982000E+03  0.43185E+06
 0.10987000E+03  0.48166E+06
 0.10992000E+03  0.52824E+06
 0.10997000E+03  0.56749E+06
 0.11002000E+03  0.58619E+06
 0.11007000E+03  0.56854E+06
 0.11012000E+03  0.51064E+06
 0.11017000E+03  0.42838E+06
 0.11022000E+03  0.34838E+06
 0.11027000E+03  0.28815E+06
 0.11032000E+03  0.24654E+06
 0.11037000E+03  0.19975E+06
 0.11042000E+03  0.13626E+06
 0.11047000E+03  0.81634E+05
 0.11052000E+03  0.46463E+05
 0.11057000E+03  0.18260E+05
 0.11062000E+03 -0.50140E+04
 0.11067000E+03 -0.16198E+05
 0.11072000E+03  0.25390E+04
 0.11077000E+03  0.55396E+05
 0.11082000E+03  0.11492E+06
 0.11087000E+03  0.16073E+06
 0.11092000E+03  0.19669E+06
 0.11097000E+03  0.21820E+06
 0.11102000E+03  0.22394E+06
 0.11107000E+03  0.23510E+06
 0.11112000E+03  0.26154E+06
 0.11117000E+03  0.30221E+06
 0.11122000E+03  0.35474E+06
 0.11127000E+03  0.41376E+06
 0.11132000E+03  0.47939E+06
 0.11137000E+03  0.52756E+06
 0.11142000E+03  0.52070E+06
 0.11147000E+03  0.45372E+06
 0.11152000E+03  0.34813E+06
 0.11157000E+03  0.22718E+06
 0.11162000E+03  0.94741E+05
 0.11167000E+03 -0.54828E+05
 0.11172000E+03 -0.20469E+06
 0.11177000E+03 -0.32136E+06
 0.11182000E+03 -0.39102E+06
 0.11187000E+03 -0.40979E+06
 0.11192000E+03 -0.36976E+06
 0.11197000E+03 -0.28012E+06
 0.11202000E+03 -0.16988E+06
 0.11207000E+03 -0.72992E+05
 0.11212000E+03  0.13490E+05
 0.11217000E+03  0.11231E+06
 0.11222000E+03  0.21037E+06
 0.11227000E+03  0.29606E+06
 0.11232000E+03  0.37180E+06
 0.11237000E+03  0.42825E+06
 0.11242000E+03  0.46157E+06
 0.11247000E+03  0.47746E+06
 0.11252000E+03  0.47424E+06
 0.11257000E+03  0.42930E+06
 0.11262000E+03  0.34179E+06
 0.11267000E+03  0.24311E+06
 0.11272000E+03  0.14854E+06
 0.11277000E+03  0.73506E+05
 0.11282000E+03  0.35239E+05
 0.11287000E+03  0.33954E+05
 0.11292000E+03  0.53883E+05
 0.11297000E+03  0.78436E+05
 0.11302000E+03  0.10720E+06
 0.11307000E+03  0.13777E+06
 0.11312000E+03  0.16324E+06
 0.11317000E+03  0.18268E+06
 0.11322000E+03  0.19834E+06
 0.11327000E+03  0.20894E+06
 0.11332000E+03  0.20761E+06
 0.11337000E+03  0.19017E+06
 0.11342000E+03  0.15989E+06
 0.11347000E+03  0.11834E+06
 0.11352000E+03  0.65257E+05
 0.11357000E+03 -0.18200E+04
 0.11362000E+03 -0.90845E+05
 0.11367000E+03 -0.19986E+06
 0.11372000E+03 -0.31089E+06
 0.11377000E+03 -0.40126E+06
 0.11382000E+03 -0.46627E+06
 0.11387000E+03 -0.51774E+06
 0.11392000E+03 -0.55472E+06
 0.11397000E+03 -0.56976E+06
 0.11402000E+03 -0.56766E+06
 0.11407000E+03 -0.55498E+06
 0.11412000E+03 -0.53050E+06
 0.11417000E+03 -0.49066E+06
 0.11422000E+03 -0.45045E+06
 0.11427000E+03 -0.42820E+06
 0.11432000E+03 -0.41340E+06
 0.11437000E+03 -0.39535E+06
 0.11442000E+03 -0.37438E+06
 0.11447000E+03 -0.34560E+06
 0.11452000E+03 -0.29831E+06
 0.11457000E+03 -0.22700E+06
 0.11462000E+03 -0.14369E+06
 0.11467000E+03 -0.67058E+05
 0.11472000E+03 -0.28820E+04
 0.11477000E+03  0.63541E+05
 0.11482000E+03  0.13079E+06
 0.11487000E+03  0.16848E+06
 0.11492000E+03  0.16798E+06
 0.11497000E+03  0.14703E+06
 0.11502000E+03  0.11067E+06
 0.11507000E+03  0.47624E+05
 0.11512000E+03 -0.49963E+05
 0.11517000E+03 -0.17626E+06
 0.11522000E+03 -0.30026E+06
 0.11527000E+03 -0.39097E+06
 0.11532000E+03 -0.45173E+06
 0.11537000E+03 -0.49603E+06
 0.11542000E+03 -0.53343E+06
 0.11547000E+03 -0.56722E+06
 0.11552000E+03 -0.59263E+06
 0.11557000E+03 -0.60203E+06
 0.11562000E+03 -0.59392E+06
 0.11567000E+03 -0.58120E+06
 0.11572000E+03 -0.56001E+06
 0.11577000E+03 -0.51997E+06
 0.11582000E+03 -0.47414E+06
 0.11587000E+03 -0.44103E+06
 0.11592000E+03 -0.42206E+06
 0.11597000E+03 -0.40430E+06
 0.11602000E+03 -0.38497E+06
 0.11607000E+03 -0.36834E+06
 0.11612000E+03 -0.35356E+06
 0.11617000E+03 -0.33799E+06
 0.11622000E+03 -0.31662E+06
 0.11627000E+03 -0.28543E+06
 0.11632000E+03 -0.24496E+06
 0.11637000E+03 -0.19468E+06
 0.11642000E+03 -0.12618E+06
 0.11647000E+03 -0.33456E+05
 0.11652000E+03  0.65911E+05
 0.11657000E+03  0.14364E+06
 0.11662000E+03  0.19345E+06
 0.11667000E+03  0.22365E+06
 0.11672000E+03  0.23962E+06
 0.11677000E+03  0.23903E+06
 0.11682000E+03  0.22328E+06
 0.11687000E+03  0.21498E+06
 0.11692000E+03  0.22304E+06
 0.11697000E+03  0.23026E+06
 0.11702000E+03  0.23583E+06
 0.11707000E+03  0.25135E+06
 0.11712000E+03  0.27923E+06
 0.11717000E+03  0.31631E+06
 0.11722000E+03  0.36049E+06
 0.11727000E+03  0.40987E+06
 0.11732000E+03  0.45100E+06
 0.11737000E+03  0.47104E+06
 0.11742000E+03  0.47373E+06
 0.11747000E+03  0.47224E+06
 0.11752000E+03  0.47069E+06
 0.11757000E+03  0.45200E+06
 0.11762000E+03  0.40547E+06
 0.11767000E+03  0.33870E+06
 0.11772000E+03  0.26007E+06
 0.11777000E+03  0.17868E+06
 0.11782000E+03  0.10437E+06
 0.11787000E+03  0.51290E+05
 0.11792000E+03  0.35374E+05
 0.11797000E+03  0.57046E+05
 0.11802000E+03  0.93125E+05
 0.11807000E+03  0.11558E+06
 0.11812000E+03  0.11183E+06
 0.11817000E+03  0.82478E+05
 0.11822000E+03  0.38700E+05
 0.11827000E+03 -0.82640E+04
 0.11832000E+03 -0.61286E+05
 0.11837000E+03 -0.12472E+06
 0.11842000E+03 -0.18208E+06
 0.11847000E+03 -0.21167E+06
 0.11852000E+03 -0.21117E+06
 0.11857000E+03 -0.18537E+06
 0.11862000E+03 -0.14067E+06
 0.11867000E+03 -0.94681E+05
 0.11872000E+03 -0.60368E+05
 0.11877000E+03 -0.32889E+05
 0.11882000E+03 -0.96450E+04
 0.11887000E+03  0.42790E+04
 0.11892000E+03  0.89690E+04
 0.11897000E+03  0.26080E+04
 0.11902000E+03 -0.10367E+05
 0.11907000E+03 -0.14575E+05
 0.11912000E+03  0.14350E+04
 0.11917000E+03  0.38159E+05
 0.11922000E+03  0.84527E+05
 0.11927000E+03  0.13118E+06
 0.11932000E+03  0.16315E+06
 0.11937000E+03  0.16931E+06
 0.11942000E+03  0.16151E+06
 0.11947000E+03  0.14432E+06
 0.11952000E+03  0.11024E+06
 0.11957000E+03  0.57342E+05
 0.11962000E+03 -0.96850E+04
 0.11967000E+03 -0.81153E+05
 0.11972000E+03 -0.15755E+06
 0.11977000E+03 -0.23287E+06
 0.11982000E+03 -0.29093E+06
 0.11987000E+03 -0.33155E+06
 0.11992000E+03 -0.35825E+06
 0.11997000E+03 -0.37260E+06
 0.12002000E+03 -0.37715E+06
 0.12007000E+03 -0.38093E+06
 0.12012000E+03 -0.38619E+06
 0.12017000E+03 -0.37925E+06
 0.12022000E+03 -0.35207E+06
 0.12027000E+03 -0.31330E+06
 0.12032000E+03 -0.28882E+06
 0.12037000E+03 -0.29455E+06
 0.12042000E+03 -0.32588E+06
 0.12047000E+03 -0.36235E+06
 0.12052000E+03 -0.37667E+06
 0.12057000E+03 -0.35869E+06
 0.12062000E+03 -0.30629E+06
 0.12067000E+03 -0.22287E+06
 0.12072000E+03 -0.11928E+06
 0.12077000E+03 -0.75410E+04
 0.12082000E+03  0.90155E+05
 0.12087000E+03  0.16184E+06
 0.12092000E+03  0.21967E+06
 0.12097000E+03  0.27482E+06
 0.12102000E+03  0.32865E+06
 0.12107000E+03  0.37719E+06
 0.12112000E+03  0.41109E+06
 0.12117000E+03  0.43235E+06
 0.12122000E+03  0.45194E+06
 0.12127000E+03  0.46887E+06
 0.12132000E+03  0.47496E+06
 0.12137000E+03  0.46827E+06
 0.12142000E+03  0.45772E+06
 0.12147000E+03  0.44835E+06
 0.12152000E+03  0.44024E+06
 0.12157000E+03  0.43395E+06
 0.12162000E+03  0.42581E+06
 0.12167000E+03  0.40983E+06
 0.12172000E+03  0.37958E+06
 0.12177000E+03  0.33686E+06
 0.12182000E+03  0.28492E+06
 0.12187000E+03  0.22590E+06
 0.12192000E+03  0.16750E+06
 0.12197000E+03  0.11637E+06
 0.12202000E+03  0.72573E+05
 0.12207000E+03  0.29476E+05
 0.12212000E+03 -0.20324E+05
 0.12217000E+03 -0.79590E+05
 0.12222000E+03 -0.13832E+06
 0.12227000E+03 -0.18158E+06
 0.12232000E+03 -0.21123E+06
 0.12237000E+03 -0.23882E+06
 0.12242000E+03 -0.26306E+06
 0.12247000E+03 -0.28075E+06
 0.12252000E+03 -0.29427E+06
 0.12257000E+03 -0.29849E+06
 0.12262000E+03 -0.29485E+06
 0.12267000E+03 -0.29597E+06
 0.12272000E+03 -0.30691E+06
 0.12277000E+03 -0.32193E+06
 0.12282000E+03 -0.33407E+06
 0.12287000E+03 -0.34410E+06
 0.12292000E+03 -0.35952E+06
 0.12297000E+03 -0.38052E+06
 0.12302000E+03 -0.39063E+06
 0.12307000E+03 -0.37638E+06
 0.12312000E+03 -0.34343E+06
 0.12317000E+03 -0.29788E+06
 0.12322000E+03 -0.24062E+06
 0.12327000E+03 -0.18093E+06
 0.12332000E+03 -0.12790E+06
 0.12337000E+03 -0.84344E+05
 0.12342000E+03 -0.49232E+05
 0.12347000E+03 -0.17324E+05
 0.12352000E+03  0.10565E+05
 0.12357000E+03  0.36096E+05
 0.12362000E+03  0.66023E+05
 0.12367000E+03  0.88943E+05
 0.12372000E+03  0.91825E+05
 0.12377000E+03  0.87088E+05
 0.12382000E+03  0.85828E+05
 0.12387000E+03  0.90027E+05
 0.12392000E+03  0.10776E+06
 0.12397000E+03  0.13188E+06
 0.12402000E+03  0.14730E+06
 0.12407000E+03  0.15110E+06
 0.12412000E+03  0.14500E+06
 0.12417000E+03  0.12971E+06
 0.12422000E+03  0.10635E+06
 0.12427000E+03  0.78393E+05
 0.12432000E+03  0.53409E+05
 0.12437000E+03  0.38741E+05
 0.12442000E+03  0.26243E+05
 0.12447000E+03  0.61850E+04
 0.12452000E+03 -0.14395E+05
 0.12457000E+03 -0.30193E+05
 0.12462000E+03 -0.39910E+05
 0.12467000E+03 -0.38222E+05
 0.12472000E+03 -0.22246E+05
 0.12477000E+03  0.13751E+05
 0.12482000E+03  0.67932E+05
 0.12487000E+03  0.12115E+06
 0.12492000E+03  0.15525E+06
 0.12497000E+03  0.17594E+06
 0.12502000E+03  0.19506E+06
 0.12507000E+03  0.19822E+06
 0.12512000E+03  0.17928E+06
 0.12517001E+03  0.15477E+06
 0.12521999E+03  0.13363E+06
 0.12527000E+03  0.11918E+06
 0.12532000E+03  0.11729E+06
 0.12537000E+03  0.13574E+06
 0.12542001E+03  0.17026E+06
 0.12546999E+03  0.20011E+06
 0.12552000E+03  0.21837E+06
 0.12557000E+03  0.23640E+06
 0.12562000E+03  0.25660E+06
 0.12567001E+03  0.26346E+06
 0.12571999E+03  0.25308E+06
 0.12577000E+03  0.23681E+06
 0.12582000E+03  0.20735E+06
 0.12587000E+03  0.15841E+06
 0.12592001E+03  0.98020E+05
 0.12596999E+03  0.42173E+05
 0.12602000E+03  0.52900E+04
 0.12607000E+03 -0.16127E+05
 0.12612000E+03 -0.35017E+05
 0.12617001E+03 -0.65900E+05
 0.12621999E+03 -0.10660E+06
 0.12627000E+03 -0.14973E+06
 0.12632000E+03 -0.19536E+06
 0.12637000E+03 -0.23687E+06
 0.12642001E+03 -0.26955E+06
 0.12646999E+03 -0.29005E+06
 0.12652000E+03 -0.29332E+06
 0.12657000E+03 -0.28190E+06
 0.12662000E+03 -0.27258E+06
 0.12667001E+03 -0.27573E+06
 0.12671999E+03 -0.28377E+06
 0.12677000E+03 -0.28945E+06
 0.12682000E+03 -0.28469E+06
 0.12687000E+03 -0.26578E+06
 0.12692001E+03 -0.23276E+06
 0.12696999E+03 -0.18746E+06
 0.12702000E+03 -0.13740E+06
 0.12707000E+03 -0.88413E+05
 0.12712000E+03 -0.50085E+05
 0.12717001E+03 -0.15936E+05
 0.12721999E+03  0.28468E+05
 0.12727000E+03  0.74383E+05
 0.12732000E+03  0.11485E+06
 0.12737000E+03  0.15161E+06
 0.12742001E+03  0.18453E+06
 0.12746999E+03  0.21423E+06
 0.12752000E+03  0.23974E+06
 0.12757000E+03  0.26292E+06
 0.12762000E+03  0.28905E+06
 0.12767001E+03  0.32046E+06
 0.12771999E+03  0.34914E+06
 0.12777000E+03  0.36254E+06
 0.12782000E+03  0.35332E+06
 0.12787000E+03  0.32227E+06
 0.12792001E+03  0.28128E+06
 0.12796999E+03  0.24478E+06
 0.12802000E+03  0.22066E+06
 0.12807001E+03  0.19974E+06
 0.12812001E+03  0.16124E+06
 0.12817001E+03  0.97666E+05
 0.12822000E+03  0.20545E+05
 0.12827000E+03 -0.49183E+05
 0.12832001E+03 -0.10241E+06
 0.12837001E+03 -0.14724E+06
 0.12842001E+03 -0.19335E+06
 0.12847000E+03 -0.24070E+06
 0.12852000E+03 -0.27638E+06
 0.12857001E+03 -0.28771E+06
 0.12862001E+03 -0.27662E+06
 0.12867001E+03 -0.25809E+06
 0.12872000E+03 -0.23762E+06
 0.12877000E+03 -0.21415E+06
 0.12882001E+03 -0.18704E+06
 0.12887001E+03 -0.14710E+06
 0.12892001E+03 -0.96847E+05
 0.12897000E+03 -0.48338E+05
 0.12902000E+03 -0.71430E+04
 0.12907001E+03  0.27181E+05
 0.12912001E+03  0.57823E+05
 0.12917001E+03  0.80728E+05
 0.12922000E+03  0.94218E+05
 0.12927000E+03  0.10359E+06
 0.12932001E+03  0.10414E+06
 0.12937001E+03  0.85472E+05
 0.12942001E+03  0.50020E+05
 0.12947000E+03  0.12479E+05
 0.12952000E+03 -0.13470E+05
 0.12957001E+03 -0.24452E+05
 0.12962001E+03 -0.27126E+05
 0.12967001E+03 -0.30333E+05
 0.12972000E+03 -0.34628E+05
 0.12977000E+03 -0.34071E+05
 0.12982001E+03 -0.26421E+05
 0.12987001E+03 -0.93560E+04
 0.12992001E+03  0.16219E+05
 0.12997000E+03  0.42237E+05
 0.13002000E+03  0.61770E+05
 0.13007001E+03  0.73930E+05
 0.13012001E+03  0.80805E+05
 0.13017001E+03  0.75780E+05
 0.13022000E+03  0.54179E+05
 0.13027000E+03  0.29341E+05
 0.13032001E+03  0.23072E+05
 0.13037001E+03  0.37035E+05
 0.13042001E+03  0.51530E+05
 0.13047000E+03  0.56634E+05
 0.13052000E+03  0.55288E+05
 0.13057001E+03  0.61852E+05
 0.13062001E+03  0.88617E+05
 0.13067001E+03  0.12857E+06
 0.13072000E+03  0.16325E+06
 0.13077000E+03  0.18170E+06
 0.13082001E+03  0.19123E+06
 0.13087001E+03  0.19990E+06
 0.13092001E+03  0.21218E+06
 0.13097000E+03  0.22338E+06
 0.13102000E+03  0.22262E+06
 0.13107001E+03  0.20680E+06
 0.13112001E+03  0.16956E+06
 0.13117001E+03  0.11100E+06
 0.13122000E+03  0.49867E+05
 0.13127000E+03  0.21750E+04
 0.13132001E+03 -0.28262E+05
 0.13137001E+03 -0.41679E+05
 0.13142001E+03 -0.42764E+05
 0.13147000E+03 -0.34475E+05
 0.13152000E+03 -0.19482E+05
 0.13157001E+03 -0.99200E+03
 0.13162001E+03  0.17450E+05
 0.13167001E+03  0.34203E+05
 0.13172000E+03  0.56616E+05
 0.13177000E+03  0.84371E+05
 0.13182001E+03  0.11524E+06
 0.13187001E+03  0.14639E+06
 0.13192001E+03  0.16478E+06
 0.13197000E+03  0.16843E+06
 0.13202000E+03  0.16383E+06
 0.13207001E+03  0.15292E+06
 0.13212001E+03  0.14092E+06
 0.13217001E+03  0.13139E+06
 0.13222000E+03  0.12306E+06
 0.13227000E+03  0.12053E+06
 0.13232001E+03  0.12817E+06
 0.13237001E+03  0.13964E+06
 0.13242001E+03  0.14939E+06
 0.13247000E+03  0.16310E+06
 0.13252000E+03  0.17528E+06
 0.13257001E+03  0.17140E+06
 0.13262001E+03  0.15376E+06
 0.13267001E+03  0.13102E+06
 0.13272000E+03  0.10928E+06
 0.13277000E+03  0.87325E+05
 0.13282001E+03  0.57156E+05
 0.13287001E+03  0.24483E+05
 0.13292001E+03  0.68300E+03
 0.13297000E+03 -0.15220E+05
 0.13302000E+03 -0.23692E+05
 0.13307001E+03 -0.20697E+05
 0.13312001E+03 -0.61310E+04
 0.13317001E+03  0.13256E+05
 0.13322000E+03  0.31501E+05
 0.13327000E+03  0.50151E+05
 0.13332001E+03  0.64414E+05
 0.13337001E+03  0.70319E+05
 0.13342001E+03  0.69127E+05
 0.13347000E+03  0.60272E+05
 0.13352000E+03  0.54079E+05
 0.13357001E+03  0.56571E+05
 0.13362001E+03  0.57190E+05
 0.13367001E+03  0.44402E+05
 0.13372000E+03  0.11393E+05
 0.13377000E+03 -0.38138E+05
 0.13382001E+03 -0.88601E+05
 0.13387001E+03 -0.12712E+06
 0.13392001E+03 -0.15279E+06
 0.13397000E+03 -0.16723E+06
 0.13402000E+03 -0.17079E+06
 0.13407001E+03 -0.16938E+06
 0.13412001E+03 -0.17238E+06
 0.13417001E+03 -0.18850E+06
 0.13422000E+03 -0.22074E+06
 0.13427000E+03 -0.26072E+06
 0.13432001E+03 -0.29738E+06
 0.13437001E+03 -0.32355E+06
 0.13442001E+03 -0.33721E+06
 0.13447000E+03 -0.34413E+06
 0.13452000E+03 -0.34832E+06
 0.13457001E+03 -0.35066E+06
 0.13462001E+03 -0.34948E+06
 0.13467001E+03 -0.34079E+06
 0.13472000E+03 -0.32878E+06
 0.13477000E+03 -0.31482E+06
 0.13482001E+03 -0.29654E+06
 0.13487001E+03 -0.28209E+06
 0.13492001E+03 -0.27377E+06
 0.13497000E+03 -0.26017E+06
 0.13502000E+03 -0.23750E+06
 0.13507001E+03 -0.21640E+06
 0.13512001E+03 -0.20449E+06
 0.13517001E+03 -0.20186E+06
 0.13522000E+03 -0.20541E+06
 0.13527000E+03 -0.20594E+06
 0.13532001E+03 -0.19650E+06
 0.13537001E+03 -0.17647E+06
 0.13542001E+03 -0.14738E+06
 0.13547000E+03 -0.10999E+06
 0.13552000E+03 -0.65064E+05
 0.13557001E+03 -0.17615E+05
 0.13562001E+03  0.23419E+05
 0.13567001E+03  0.51505E+05
 0.13572000E+03  0.72445E+05
 0.13577000E+03  0.92769E+05
 0.13582001E+03  0.11095E+06
 0.13587001E+03  0.12747E+06
 0.13592001E+03  0.14490E+06
 0.13597000E+03  0.16542E+06
 0.13602000E+03  0.18757E+06
 0.13607001E+03  0.20960E+06
 0.13612001E+03  0.23018E+06
 0.13617001E+03  0.24303E+06
 0.13622000E+03  0.24309E+06
 0.13627000E+03  0.22799E+06
 0.13632001E+03  0.19674E+06
 0.13637001E+03  0.15489E+06
 0.13642001E+03  0.11282E+06
 0.13647000E+03  0.80061E+05
 0.13652000E+03  0.63689E+05
 0.13657001E+03  0.63096E+05
 0.13662001E+03  0.65904E+05
 0.13667001E+03  0.59525E+05
 0.13672000E+03  0.41953E+05
 0.13677000E+03  0.16675E+05
 0.13682001E+03 -0.11785E+05
 0.13687001E+03 -0.36975E+05
 0.13692001E+03 -0.49100E+05
 0.13697000E+03 -0.43290E+05
 0.13702000E+03 -0.24101E+05
 0.13707001E+03  0.18720E+04
 0.13712001E+03  0.24139E+05
 0.13717001E+03  0.33083E+05
 0.13722000E+03  0.23173E+05
 0.13727000E+03 -0.74800E+03
 0.13732001E+03 -0.26528E+05
 0.13737001E+03 -0.51373E+05
 0.13742001E+03 -0.71343E+05
 0.13747000E+03 -0.81072E+05
 0.13752000E+03 -0.75621E+05
 0.13757001E+03 -0.52703E+05
 0.13762001E+03 -0.20480E+05
 0.13767001E+03  0.11004E+05
 0.13772000E+03  0.29716E+05
 0.13777000E+03  0.29425E+05
 0.13782001E+03  0.12689E+05
 0.13787001E+03 -0.12176E+05
 0.13792001E+03 -0.32338E+05
 0.13797000E+03 -0.41416E+05
 0.13802000E+03 -0.40667E+05
 0.13807001E+03 -0.38264E+05
 0.13812001E+03 -0.39746E+05
 0.13817001E+03 -0.44834E+05
 0.13822000E+03 -0.51582E+05
 0.13827000E+03 -0.56810E+05
 0.13832001E+03 -0.61855E+05
 0.13837001E+03 -0.67961E+05
 0.13842001E+03 -0.78266E+05
 0.13847000E+03 -0.94235E+05
 0.13852000E+03 -0.11297E+06
 0.13857001E+03 -0.13162E+06
 0.13862001E+03 -0.14213E+06
 0.13867001E+03 -0.14405E+06
 0.13872000E+03 -0.14147E+06
 0.13877000E+03 -0.13080E+06
 0.13882001E+03 -0.11351E+06
 0.13887001E+03 -0.99388E+05
 0.13892001E+03 -0.97473E+05
 0.13897000E+03 -0.10889E+06
 0.13902000E+03 -0.13029E+06
 0.13907001E+03 -0.15603E+06
 0.13912001E+03 -0.17897E+06
 0.13917001E+03 -0.19523E+06
 0.13922000E+03 -0.20002E+06
 0.13927000E+03 -0.19093E+06
 0.13932001E+03 -0.17338E+06
 0.13937001E+03 -0.15824E+06
 0.13942001E+03 -0.15671E+06
 0.13947000E+03 -0.17037E+06
 0.13952000E+03 -0.18787E+06
 0.13957001E+03 -0.19484E+06
 0.13962001E+03 -0.18470E+06
 0.13967001E+03 -0.16006E+06
 0.13972000E+03 -0.12654E+06
 0.13977000E+03 -0.85120E+05
 0.13982001E+03 -0.34542E+05
 0.13987001E+03  0.23851E+05
 0.13992001E+03  0.83289E+05
 0.13997000E+03  0.13312E+06
 0.14002000E+03  0.16621E+06
 0.14007001E+03  0.17977E+06
 0.14012001E+03  0.17913E+06
 0.14017001E+03  0.17567E+06
 0.14022000E+03  0.17741E+06
 0.14027000E+03  0.18262E+06
 0.14032001E+03  0.18141E+06
 0.14037001E+03  0.17152E+06
 0.14042001E+03  0.15556E+06
 0.14047000E+03  0.13192E+06
 0.14052000E+03  0.10795E+06
 0.14057001E+03  0.99091E+05
 0.14062001E+03  0.11021E+06
 0.14067001E+03  0.13499E+06
 0.14072000E+03  0.16603E+06
 0.14077000E+03  0.19576E+06
 0.14082001E+03  0.21682E+06
 0.14087001E+03  0.22568E+06
 0.14092001E+03  0.22479E+06
 0.14097000E+03  0.21688E+06
 0.14102000E+03  0.20017E+06
 0.14107001E+03  0.17754E+06
 0.14112001E+03  0.15229E+06
 0.14117001E+03  0.12281E+06
 0.14122000E+03  0.93579E+05
 0.14127000E+03  0.65309E+05
 0.14132001E+03  0.33057E+05
 0.14137001E+03  0.54100E+03
 0.14142001E+03 -0.19679E+05
 0.14147000E+03 -0.18640E+05
 0.14152000E+03 -0.31070E+04
 0.14157001E+03  0.14180E+05
 0.14162001E+03  0.25312E+05
 0.14167001E+03  0.27767E+05
 0.14172000E+03  0.23656E+05
 0.14177000E+03  0.15797E+05
 0.14182001E+03  0.71980E+04
 0.14187001E+03  0.25590E+04
 0.14192001E+03 -0.33500E+03
 0.14197000E+03 -0.99180E+04
 0.14202000E+03 -0.29599E+05
 0.14207001E+03 -0.58400E+05
 0.14212001E+03 -0.91028E+05
 0.14217001E+03 -0.12300E+06
 0.14222000E+03 -0.14551E+06
 0.14227000E+03 -0.14451E+06
 0.14232001E+03 -0.12054E+06
 0.14237001E+03 -0.84889E+05
 0.14242001E+03 -0.49855E+05
 0.14247000E+03 -0.21216E+05
 0.14252000E+03  0.42320E+04
 0.14257001E+03  0.27653E+05
 0.14262001E+03  0.47014E+05
 0.14267001E+03  0.57487E+05
 0.14272000E+03  0.57387E+05
 0.14277000E+03  0.49833E+05
 0.14282001E+03  0.38095E+05
 0.14287001E+03  0.28215E+05
 0.14292001E+03  0.23021E+05
 0.14297000E+03  0.19414E+05
 0.14302000E+03  0.15290E+05
 0.14307001E+03  0.15330E+05
 0.14312001E+03  0.25435E+05
 0.14317001E+03  0.42696E+05
 0.14322000E+03  0.59284E+05
 0.14327000E+03  0.71295E+05
 0.14332001E+03  0.78252E+05
 0.14337001E+03  0.80076E+05
 0.14342001E+03  0.82025E+05
 0.14347000E+03  0.89095E+05
 0.14352000E+03  0.93107E+05
 0.14357001E+03  0.82655E+05
 0.14362001E+03  0.61794E+05
 0.14367001E+03  0.41189E+05
 0.14372000E+03  0.25814E+05
 0.14377000E+03  0.13373E+05
 0.14382001E+03 -0.43320E+04
 0.14387001E+03 -0.27850E+05
 0.14392001E+03 -0.51273E+05
 0.14397000E+03 -0.65812E+05
 0.14402000E+03 -0.66364E+05
 0.14407001E+03 -0.57308E+05
 0.14412001E+03 -0.37915E+05
 0.14417001E+03 -0.45300E+04
 0.14422000E+03  0.41766E+05
 0.14427000E+03  0.96939E+05
 0.14432001E+03  0.15426E+06
 0.14437001E+03  0.20242E+06
 0.14442001E+03  0.22726E+06
 0.14447000E+03  0.22162E+06
 0.14452000E+03  0.18826E+06
 0.14457001E+03  0.13678E+06
 0.14462001E+03  0.78550E+05
 0.14467001E+03  0.20894E+05
 0.14472000E+03 -0.30135E+05
 0.14477000E+03 -0.65213E+05
 0.14482001E+03 -0.78909E+05
 0.14487001E+03 -0.78955E+05
 0.14492001E+03 -0.75691E+05
 0.14497000E+03 -0.68216E+05
 0.14502000E+03 -0.55358E+05
 0.14507001E+03 -0.43661E+05
 0.14512001E+03 -0.37898E+05
 0.14517001E+03 -0.39741E+05
 0.14522000E+03 -0.44382E+05
 0.14527000E+03 -0.45153E+05
 0.14532001E+03 -0.46556E+05
 0.14537001E+03 -0.56132E+05
 0.14542001E+03 -0.77802E+05
 0.14547000E+03 -0.10893E+06
 0.14552000E+03 -0.14745E+06
 0.14557001E+03 -0.19591E+06
 0.14562001E+03 -0.24592E+06
 0.14567001E+03 -0.28645E+06
 0.14572000E+03 -0.31300E+06
 0.14577000E+03 -0.32160E+06
 0.14582001E+03 -0.30590E+06
 0.14587001E+03 -0.26134E+06
 0.14592001E+03 -0.19751E+06
 0.14597000E+03 -0.13111E+06
 0.14602000E+03 -0.75363E+05
 0.14607001E+03 -0.41267E+05
 0.14612001E+03 -0.27876E+05
 0.14617001E+03 -0.27074E+05
 0.14622000E+03 -0.36135E+05
 0.14627000E+03 -0.51256E+05
 0.14632001E+03 -0.68228E+05
 0.14637001E+03 -0.79418E+05
 0.14642001E+03 -0.77262E+05
 0.14647000E+03 -0.64866E+05
 0.14652000E+03 -0.48943E+05
 0.14657001E+03 -0.37474E+05
 0.14662001E+03 -0.34163E+05
 0.14667001E+03 -0.36806E+05
 0.14672000E+03 -0.39151E+05
 0.14677000E+03 -0.33716E+05
 0.14682001E+03 -0.18206E+05
 0.14687001E+03  0.73500E+04
 0.14692001E+03  0.40924E+05
 0.14697000E+03  0.76598E+05
 0.14702000E+03  0.10702E+06
 0.14707001E+03  0.13299E+06
 0.14712001E+03  0.15825E+06
 0.14717001E+03  0.18344E+06
 0.14722000E+03  0.20762E+06
 0.14727000E+03  0.22482E+06
 0.14732001E+03  0.23564E+06
 0.14737001E+03  0.24279E+06
 0.14742001E+03  0.24517E+06
 0.14747000E+03  0.24887E+06
 0.14752000E+03  0.25516E+06
 0.14757001E+03  0.25666E+06
 0.14762001E+03  0.25101E+06
 0.14767001E+03  0.23856E+06
 0.14772000E+03  0.21824E+06
 0.14777000E+03  0.18932E+06
 0.14782001E+03  0.15753E+06
 0.14787001E+03  0.13415E+06
 0.14792001E+03  0.12464E+06
 0.14797000E+03  0.12899E+06
 0.14802000E+03  0.14134E+06
 0.14807001E+03  0.14812E+06
 0.14812001E+03  0.13897E+06
 0.14817001E+03  0.11243E+06
 0.14822000E+03  0.70862E+05
 0.14827000E+03  0.18907E+05
 0.14832001E+03 -0.36203E+05
 0.14837001E+03 -0.84477E+05
 0.14842001E+03 -0.11692E+06
 0.14847000E+03 -0.13668E+06
 0.14852000E+03 -0.15447E+06
 0.14857001E+03 -0.17262E+06
 0.14862001E+03 -0.18726E+06
 0.14867001E+03 -0.19692E+06
 0.14872000E+03 -0.19932E+06
 0.14877000E+03 -0.19287E+06
 0.14882001E+03 -0.18338E+06
 0.14887001E+03 -0.17515E+06
 0.14892001E+03 -0.16044E+06
 0.14897000E+03 -0.13153E+06
 0.14902000E+03 -0.95212E+05
 0.14907001E+03 -0.65711E+05
 0.14912001E+03 -0.53021E+05
 0.14917001E+03 -0.57580E+05
 0.14922000E+03 -0.70745E+05
 0.14927000E+03 -0.83872E+05
 0.14932001E+03 -0.93694E+05
 0.14937001E+03 -0.97855E+05
 0.14942001E+03 -0.97297E+05
 0.14947000E+03 -0.96022E+05
 0.14952000E+03 -0.96412E+05
 0.14957001E+03 -0.10329E+06
 0.14962001E+03 -0.11613E+06
 0.14967001E+03 -0.12795E+06
 0.14972000E+03 -0.13318E+06
 0.14977000E+03 -0.13085E+06
 0.14982001E+03 -0.12512E+06
 0.14987001E+03 -0.11822E+06
 0.14992001E+03 -0.11132E+06
 0.14997000E+03 -0.10444E+06
