-0.30000000E+01  0.11950E+05
-0.29500000E+01  0.11953E+05
-0.29000001E+01  0.11959E+05
-0.28499999E+01  0.11962E+05
-0.28000000E+01  0.11962E+05
-0.27500000E+01  0.11954E+05
-0.27000000E+01  0.11953E+05
-0.26500001E+01  0.11960E+05
-0.25999999E+01  0.11962E+05
-0.25500000E+01  0.11959E+05
-0.25000000E+01  0.11957E+05
-0.24500000E+01  0.11963E+05
-0.24000001E+01  0.11952E+05
-0.23499999E+01  0.11955E+05
-0.23000002E+01  0.11965E+05
-0.22500000E+01  0.11958E+05
-0.22000000E+01  0.11963E+05
-0.21500001E+01  0.11964E+05
-0.20999999E+01  0.11962E+05
-0.20500002E+01  0.11967E+05
-0.20000000E+01  0.11965E+05
-0.19500000E+01  0.11964E+05
-0.19000001E+01  0.11967E+05
-0.18500000E+01  0.11966E+05
-0.18000001E+01  0.11968E+05
-0.17500001E+01  0.11969E+05
-0.17000000E+01  0.11962E+05
-0.16500001E+01  0.11965E+05
-0.16000001E+01  0.11972E+05
-0.15500001E+01  0.11971E+05
-0.15000001E+01  0.11971E+05
-0.14500000E+01  0.11972E+05
-0.14000001E+01  0.11964E+05
-0.13500001E+01  0.11963E+05
-0.13000001E+01  0.11966E+05
-0.12500001E+01  0.11968E+05
-0.12000000E+01  0.11968E+05
-0.11500001E+01  0.11969E+05
-0.11000001E+01  0.11969E+05
-0.10500001E+01  0.11961E+05
-0.10000001E+01  0.11964E+05
-0.95000005E+00  0.11969E+05
-0.90000010E+00  0.11968E+05
-0.85000014E+00  0.11969E+05
-0.80000019E+00  0.11968E+05
-0.75000024E+00  0.11975E+05
-0.70000005E+00  0.11980E+05
-0.65000010E+00  0.11982E+05
-0.60000014E+00  0.11976E+05
-0.55000019E+00  0.11977E+05
-0.50000024E+00  0.11987E+05
-0.45000005E+00  0.11981E+05
-0.40000010E+00  0.11978E+05
-0.35000014E+00  0.11981E+05
-0.30000019E+00  0.11978E+05
-0.25000024E+00  0.11975E+05
-0.20000029E+00  0.11980E+05
-0.15000010E+00  0.11990E+05
-0.10000014E+00  0.11988E+05
-0.50000191E-01  0.11980E+05
-0.23841858E-06  0.11977E+05
 0.49999714E-01  0.11979E+05
 0.99999905E-01  0.11978E+05
 0.14999986E+00  0.11971E+05
 0.19999981E+00  0.11969E+05
 0.24999976E+00  0.11969E+05
 0.29999971E+00  0.11971E+05
 0.34999990E+00  0.11979E+05
 0.39999986E+00  0.11977E+05
 0.44999981E+00  0.11972E+05
 0.49999976E+00  0.11969E+05
 0.54999971E+00  0.11957E+05
 0.59999990E+00  0.11959E+05
 0.64999986E+00  0.11964E+05
 0.69999981E+00  0.11970E+05
 0.74999976E+00  0.11965E+05
 0.79999971E+00  0.11948E+05
 0.84999967E+00  0.11958E+05
 0.89999986E+00  0.11961E+05
 0.94999981E+00  0.11957E+05
 0.99999976E+00  0.11960E+05
 0.10499997E+01  0.11951E+05
 0.10999999E+01  0.11949E+05
 0.11499996E+01  0.11954E+05
 0.11999998E+01  0.11960E+05
 0.12499995E+01  0.11961E+05
 0.12999997E+01  0.11954E+05
 0.13499999E+01  0.11950E+05
 0.13999996E+01  0.11949E+05
 0.14499998E+01  0.11957E+05
 0.14999995E+01  0.11955E+05
 0.15499997E+01  0.11952E+05
 0.15999999E+01  0.11966E+05
 0.16499996E+01  0.11962E+05
 0.16999998E+01  0.11950E+05
 0.17499995E+01  0.11959E+05
 0.17999997E+01  0.11963E+05
 0.18499999E+01  0.11958E+05
 0.18999996E+01  0.11953E+05
 0.19499998E+01  0.11957E+05
 0.19999995E+01  0.11965E+05
 0.20499997E+01  0.11958E+05
 0.20999999E+01  0.11958E+05
 0.21499996E+01  0.11953E+05
 0.21999998E+01  0.11946E+05
 0.22499995E+01  0.11948E+05
 0.22999997E+01  0.11946E+05
 0.23499999E+01  0.11955E+05
 0.23999996E+01  0.11955E+05
 0.24499998E+01  0.11955E+05
 0.24999995E+01  0.11963E+05
 0.25499997E+01  0.11960E+05
 0.25999994E+01  0.11961E+05
 0.26499996E+01  0.11961E+05
 0.26999998E+01  0.11962E+05
 0.27499995E+01  0.11965E+05
 0.27999997E+01  0.11973E+05
 0.28499994E+01  0.11972E+05
 0.28999996E+01  0.11964E+05
 0.29499998E+01  0.11971E+05
 0.29999995E+01  0.11964E+05
 0.30499997E+01  0.11968E+05
 0.30999994E+01  0.11972E+05
 0.31499996E+01  0.11966E+05
 0.31999998E+01  0.11976E+05
 0.32499995E+01  0.11971E+05
 0.32999997E+01  0.11972E+05
 0.33499994E+01  0.11976E+05
 0.33999996E+01  0.11970E+05
 0.34499998E+01  0.11970E+05
 0.34999995E+01  0.11961E+05
 0.35499997E+01  0.11960E+05
 0.35999994E+01  0.11965E+05
 0.36499996E+01  0.11960E+05
 0.36999998E+01  0.11963E+05
 0.37499995E+01  0.11960E+05
 0.37999997E+01  0.11958E+05
 0.38499994E+01  0.11969E+05
 0.38999996E+01  0.11965E+05
 0.39499998E+01  0.11958E+05
 0.39999995E+01  0.11964E+05
 0.40499997E+01  0.11963E+05
 0.40999994E+01  0.11959E+05
 0.41499996E+01  0.11966E+05
 0.41999998E+01  0.11966E+05
 0.42499995E+01  0.11960E+05
 0.42999997E+01  0.11954E+05
 0.43499994E+01  0.11950E+05
 0.43999996E+01  0.11956E+05
 0.44499993E+01  0.11957E+05
 0.44999995E+01  0.11954E+05
 0.45499997E+01  0.11956E+05
 0.45999994E+01  0.11957E+05
 0.46499996E+01  0.11959E+05
 0.46999993E+01  0.11957E+05
 0.47499995E+01  0.11952E+05
 0.47999997E+01  0.11953E+05
 0.48499994E+01  0.11947E+05
 0.48999996E+01  0.11946E+05
 0.49499993E+01  0.11950E+05
 0.49999995E+01  0.11953E+05
 0.50499992E+01  0.11957E+05
 0.50999994E+01  0.11950E+05
 0.51499996E+01  0.11948E+05
 0.51999998E+01  0.11951E+05
 0.52499990E+01  0.11952E+05
 0.52999992E+01  0.11955E+05
 0.53499994E+01  0.11954E+05
 0.53999996E+01  0.11950E+05
 0.54499998E+01  0.11958E+05
 0.54999990E+01  0.11963E+05
 0.55499992E+01  0.11959E+05
 0.55999994E+01  0.11960E+05
 0.56499996E+01  0.11956E+05
 0.56999998E+01  0.11957E+05
 0.57499990E+01  0.11957E+05
 0.57999992E+01  0.11960E+05
 0.58499994E+01  0.11962E+05
 0.58999996E+01  0.11955E+05
 0.59499998E+01  0.11950E+05
 0.59999990E+01  0.11949E+05
 0.60499992E+01  0.11957E+05
 0.60999994E+01  0.11958E+05
 0.61499996E+01  0.11956E+05
 0.61999998E+01  0.11957E+05
 0.62499990E+01  0.11957E+05
 0.62999992E+01  0.11956E+05
 0.63499994E+01  0.11958E+05
 0.63999996E+01  0.11962E+05
 0.64499998E+01  0.11957E+05
 0.64999990E+01  0.11960E+05
 0.65499992E+01  0.11954E+05
 0.65999994E+01  0.11954E+05
 0.66499996E+01  0.11966E+05
 0.66999998E+01  0.11956E+05
 0.67499990E+01  0.11956E+05
 0.67999992E+01  0.11966E+05
 0.68499994E+01  0.11964E+05
 0.68999996E+01  0.11963E+05
 0.69499998E+01  0.11964E+05
 0.69999990E+01  0.11963E+05
 0.70499992E+01  0.11961E+05
 0.70999994E+01  0.11962E+05
 0.71499996E+01  0.11972E+05
 0.71999998E+01  0.11974E+05
 0.72499990E+01  0.11969E+05
 0.72999992E+01  0.11968E+05
 0.73499994E+01  0.11968E+05
 0.73999996E+01  0.11974E+05
 0.74499998E+01  0.11980E+05
 0.74999990E+01  0.11976E+05
 0.75499992E+01  0.11972E+05
 0.75999994E+01  0.11978E+05
 0.76499996E+01  0.11979E+05
 0.76999998E+01  0.11984E+05
 0.77499990E+01  0.11994E+05
 0.77999992E+01  0.11989E+05
 0.78499994E+01  0.11987E+05
 0.78999996E+01  0.11985E+05
 0.79499998E+01  0.11986E+05
 0.79999990E+01  0.11990E+05
 0.80499992E+01  0.11988E+05
 0.80999994E+01  0.11984E+05
 0.81499996E+01  0.11980E+05
 0.81999989E+01  0.11983E+05
 0.82499990E+01  0.11992E+05
 0.82999992E+01  0.11996E+05
 0.83499994E+01  0.11996E+05
 0.83999996E+01  0.11993E+05
 0.84499989E+01  0.11987E+05
 0.84999990E+01  0.11992E+05
 0.85499992E+01  0.11998E+05
 0.85999994E+01  0.11993E+05
 0.86499996E+01  0.11993E+05
 0.86999989E+01  0.11984E+05
 0.87499990E+01  0.11983E+05
 0.87999992E+01  0.11992E+05
 0.88499994E+01  0.11997E+05
 0.88999996E+01  0.12000E+05
 0.89499989E+01  0.11985E+05
 0.89999990E+01  0.11982E+05
 0.90499992E+01  0.11994E+05
 0.90999994E+01  0.11994E+05
 0.91499996E+01  0.11988E+05
 0.91999989E+01  0.11984E+05
 0.92499990E+01  0.11991E+05
 0.92999992E+01  0.11994E+05
 0.93499994E+01  0.11992E+05
 0.93999996E+01  0.11994E+05
 0.94499989E+01  0.11988E+05
 0.94999990E+01  0.11989E+05
 0.95499992E+01  0.11993E+05
 0.95999994E+01  0.11999E+05
 0.96499996E+01  0.11999E+05
 0.96999989E+01  0.11999E+05
 0.97499990E+01  0.12002E+05
 0.97999992E+01  0.11988E+05
 0.98499994E+01  0.11987E+05
 0.98999996E+01  0.11997E+05
 0.99499989E+01  0.11993E+05
 0.99999990E+01  0.11982E+05
 0.10049999E+02  0.11984E+05
 0.10099999E+02  0.12002E+05
 0.10150000E+02  0.11996E+05
 0.10199999E+02  0.11990E+05
 0.10249999E+02  0.12002E+05
 0.10299999E+02  0.11996E+05
 0.10349999E+02  0.11995E+05
 0.10400000E+02  0.12009E+05
 0.10449999E+02  0.12000E+05
 0.10499999E+02  0.11981E+05
 0.10549999E+02  0.11996E+05
 0.10599999E+02  0.12002E+05
 0.10650000E+02  0.11995E+05
 0.10699999E+02  0.12001E+05
 0.10749999E+02  0.12000E+05
 0.10799999E+02  0.12008E+05
 0.10849999E+02  0.12012E+05
 0.10900000E+02  0.12004E+05
 0.10949999E+02  0.11996E+05
 0.10999999E+02  0.12005E+05
 0.11049999E+02  0.12008E+05
 0.11099999E+02  0.11984E+05
 0.11150000E+02  0.11999E+05
 0.11199999E+02  0.12004E+05
 0.11249999E+02  0.11986E+05
 0.11299999E+02  0.11992E+05
 0.11349999E+02  0.11998E+05
 0.11400000E+02  0.11997E+05
 0.11449999E+02  0.11994E+05
 0.11499999E+02  0.12007E+05
 0.11549999E+02  0.12002E+05
 0.11599999E+02  0.11993E+05
 0.11649999E+02  0.12003E+05
 0.11699999E+02  0.12000E+05
 0.11749999E+02  0.11993E+05
 0.11799999E+02  0.11988E+05
 0.11849999E+02  0.11995E+05
 0.11899999E+02  0.12000E+05
 0.11949999E+02  0.11990E+05
 0.11999999E+02  0.11994E+05
 0.12049999E+02  0.12009E+05
 0.12099999E+02  0.12008E+05
 0.12149999E+02  0.12013E+05
 0.12199999E+02  0.12009E+05
 0.12249999E+02  0.11990E+05
 0.12299999E+02  0.11995E+05
 0.12349999E+02  0.11998E+05
 0.12399999E+02  0.11990E+05
 0.12449999E+02  0.11996E+05
 0.12499999E+02  0.11992E+05
 0.12549999E+02  0.11984E+05
 0.12599999E+02  0.11991E+05
 0.12649999E+02  0.11995E+05
 0.12699999E+02  0.12003E+05
 0.12749999E+02  0.11992E+05
 0.12799999E+02  0.11974E+05
 0.12849999E+02  0.11979E+05
 0.12899999E+02  0.11979E+05
 0.12949999E+02  0.12005E+05
 0.12999999E+02  0.11998E+05
 0.13049999E+02  0.11957E+05
 0.13099998E+02  0.11974E+05
 0.13150000E+02  0.11995E+05
 0.13199999E+02  0.11990E+05
 0.13249998E+02  0.11975E+05
 0.13299999E+02  0.11972E+05
 0.13349998E+02  0.11981E+05
 0.13400000E+02  0.11974E+05
 0.13449999E+02  0.11966E+05
 0.13499998E+02  0.11967E+05
 0.13549999E+02  0.11980E+05
 0.13599998E+02  0.11968E+05
 0.13650000E+02  0.11931E+05
 0.13699999E+02  0.11948E+05
 0.13749998E+02  0.11969E+05
 0.13799999E+02  0.11955E+05
 0.13849998E+02  0.11945E+05
 0.13900000E+02  0.11945E+05
 0.13949999E+02  0.11967E+05
 0.13999998E+02  0.11974E+05
 0.14049999E+02  0.11959E+05
 0.14099998E+02  0.11931E+05
 0.14150000E+02  0.11935E+05
 0.14199999E+02  0.11975E+05
 0.14249998E+02  0.11947E+05
 0.14299999E+02  0.11911E+05
 0.14349998E+02  0.11940E+05
 0.14400000E+02  0.11965E+05
 0.14449999E+02  0.11940E+05
 0.14499998E+02  0.11918E+05
 0.14549999E+02  0.11932E+05
 0.14599998E+02  0.11940E+05
 0.14650000E+02  0.11922E+05
 0.14699999E+02  0.11911E+05
 0.14749998E+02  0.11932E+05
 0.14799999E+02  0.11940E+05
 0.14849998E+02  0.11912E+05
 0.14900000E+02  0.11914E+05
 0.14949999E+02  0.11945E+05
 0.14999998E+02  0.11948E+05
 0.15049999E+02  0.11931E+05
 0.15099998E+02  0.11918E+05
 0.15150000E+02  0.11932E+05
 0.15199999E+02  0.11941E+05
 0.15249998E+02  0.11934E+05
 0.15299999E+02  0.11934E+05
 0.15349998E+02  0.11915E+05
 0.15400000E+02  0.11922E+05
 0.15449999E+02  0.11943E+05
 0.15499998E+02  0.11945E+05
 0.15549999E+02  0.11936E+05
 0.15599998E+02  0.11905E+05
 0.15650000E+02  0.11942E+05
 0.15699999E+02  0.11979E+05
 0.15749998E+02  0.11938E+05
 0.15799999E+02  0.11919E+05
 0.15849998E+02  0.11933E+05
 0.15900000E+02  0.11935E+05
 0.15949999E+02  0.11932E+05
 0.15999998E+02  0.11937E+05
 0.16049999E+02  0.11942E+05
 0.16099998E+02  0.11940E+05
 0.16150000E+02  0.11925E+05
 0.16199999E+02  0.11946E+05
 0.16249998E+02  0.11962E+05
 0.16299999E+02  0.11926E+05
 0.16349998E+02  0.11931E+05
 0.16400000E+02  0.11946E+05
 0.16449999E+02  0.11944E+05
 0.16499998E+02  0.11949E+05
 0.16549999E+02  0.11938E+05
 0.16599998E+02  0.11935E+05
 0.16650000E+02  0.11933E+05
 0.16699999E+02  0.11951E+05
 0.16749998E+02  0.11970E+05
 0.16799999E+02  0.11942E+05
 0.16849998E+02  0.11918E+05
 0.16900000E+02  0.11938E+05
 0.16949999E+02  0.11951E+05
 0.16999998E+02  0.11956E+05
 0.17049999E+02  0.11949E+05
 0.17099998E+02  0.11938E+05
 0.17150000E+02  0.11952E+05
 0.17199999E+02  0.11968E+05
 0.17249998E+02  0.11964E+05
 0.17299999E+02  0.11934E+05
 0.17349998E+02  0.11937E+05
 0.17400000E+02  0.11958E+05
 0.17449999E+02  0.11948E+05
 0.17499998E+02  0.11964E+05
 0.17549999E+02  0.11977E+05
 0.17599998E+02  0.11947E+05
 0.17650000E+02  0.11942E+05
 0.17699999E+02  0.11963E+05
 0.17749998E+02  0.11955E+05
 0.17799999E+02  0.11977E+05
 0.17849998E+02  0.11989E+05
 0.17900000E+02  0.11954E+05
 0.17949999E+02  0.11983E+05
 0.17999998E+02  0.11981E+05
 0.18049999E+02  0.11961E+05
 0.18099998E+02  0.11994E+05
 0.18150000E+02  0.11966E+05
 0.18199999E+02  0.11940E+05
 0.18249998E+02  0.11976E+05
 0.18299999E+02  0.11984E+05
 0.18349998E+02  0.11937E+05
 0.18400000E+02  0.11937E+05
 0.18449999E+02  0.11992E+05
 0.18499998E+02  0.11988E+05
 0.18549999E+02  0.11975E+05
 0.18599998E+02  0.11976E+05
 0.18650000E+02  0.11958E+05
 0.18699999E+02  0.11946E+05
 0.18749998E+02  0.11952E+05
 0.18799999E+02  0.11986E+05
 0.18849998E+02  0.11990E+05
 0.18900000E+02  0.11965E+05
 0.18949999E+02  0.11960E+05
 0.18999998E+02  0.11962E+05
 0.19049999E+02  0.11978E+05
 0.19099998E+02  0.11978E+05
 0.19150000E+02  0.11961E+05
 0.19199999E+02  0.11971E+05
 0.19249998E+02  0.11974E+05
 0.19299999E+02  0.11971E+05
 0.19349998E+02  0.11976E+05
 0.19399998E+02  0.11968E+05
 0.19449999E+02  0.11951E+05
 0.19499998E+02  0.11951E+05
 0.19549999E+02  0.11982E+05
 0.19599998E+02  0.11980E+05
 0.19649998E+02  0.11956E+05
 0.19699999E+02  0.11982E+05
 0.19749998E+02  0.11992E+05
 0.19799999E+02  0.11964E+05
 0.19849998E+02  0.11975E+05
 0.19899998E+02  0.11989E+05
 0.19949999E+02  0.11971E+05
 0.19999998E+02  0.11988E+05
 0.20049999E+02  0.12025E+05
 0.20099998E+02  0.11990E+05
 0.20149998E+02  0.11932E+05
 0.20199999E+02  0.11959E+05
 0.20249998E+02  0.12010E+05
 0.20299999E+02  0.12017E+05
 0.20349998E+02  0.11985E+05
 0.20399998E+02  0.11949E+05
 0.20449999E+02  0.11975E+05
 0.20499998E+02  0.11991E+05
 0.20549999E+02  0.11968E+05
 0.20599998E+02  0.12001E+05
 0.20649998E+02  0.12004E+05
 0.20699999E+02  0.11971E+05
 0.20749998E+02  0.11989E+05
 0.20799999E+02  0.11975E+05
 0.20849998E+02  0.11983E+05
 0.20899998E+02  0.12014E+05
 0.20949999E+02  0.11996E+05
 0.20999998E+02  0.12000E+05
 0.21049999E+02  0.12013E+05
 0.21099998E+02  0.11999E+05
 0.21149998E+02  0.11969E+05
 0.21199999E+02  0.11980E+05
 0.21249998E+02  0.11991E+05
 0.21299999E+02  0.11993E+05
 0.21349998E+02  0.12024E+05
 0.21399998E+02  0.11981E+05
 0.21449999E+02  0.11967E+05
 0.21499998E+02  0.12007E+05
 0.21549999E+02  0.11978E+05
 0.21599998E+02  0.11974E+05
 0.21649998E+02  0.12010E+05
 0.21699999E+02  0.12010E+05
 0.21749998E+02  0.11983E+05
 0.21799999E+02  0.11967E+05
 0.21849998E+02  0.12004E+05
 0.21899998E+02  0.12029E+05
 0.21949999E+02  0.11997E+05
 0.21999998E+02  0.11990E+05
 0.22049999E+02  0.12013E+05
 0.22099998E+02  0.12006E+05
 0.22149998E+02  0.11978E+05
 0.22199999E+02  0.11995E+05
 0.22249998E+02  0.12010E+05
 0.22299999E+02  0.12008E+05
 0.22349998E+02  0.12003E+05
 0.22399998E+02  0.11989E+05
 0.22449999E+02  0.11995E+05
 0.22499998E+02  0.11987E+05
 0.22549999E+02  0.11993E+05
 0.22599998E+02  0.11995E+05
 0.22649998E+02  0.12010E+05
 0.22699999E+02  0.12029E+05
 0.22749998E+02  0.12004E+05
 0.22799999E+02  0.11992E+05
 0.22849998E+02  0.11983E+05
 0.22899998E+02  0.12007E+05
 0.22949999E+02  0.12020E+05
 0.22999998E+02  0.11978E+05
 0.23049999E+02  0.11971E+05
 0.23099998E+02  0.12008E+05
 0.23149998E+02  0.12014E+05
 0.23199999E+02  0.11989E+05
 0.23249998E+02  0.11996E+05
 0.23299999E+02  0.11992E+05
 0.23349998E+02  0.11979E+05
 0.23399998E+02  0.12007E+05
 0.23449999E+02  0.12023E+05
 0.23499998E+02  0.11993E+05
 0.23549999E+02  0.11951E+05
 0.23599998E+02  0.11982E+05
 0.23649998E+02  0.12030E+05
 0.23699999E+02  0.12005E+05
 0.23749998E+02  0.11979E+05
 0.23799999E+02  0.11981E+05
 0.23849998E+02  0.12000E+05
 0.23899998E+02  0.11996E+05
 0.23949999E+02  0.11987E+05
 0.23999998E+02  0.12012E+05
 0.24049999E+02  0.12006E+05
 0.24099998E+02  0.11973E+05
 0.24149998E+02  0.11954E+05
 0.24199999E+02  0.11974E+05
 0.24249998E+02  0.12007E+05
 0.24299999E+02  0.11995E+05
 0.24349998E+02  0.11990E+05
 0.24399998E+02  0.12000E+05
 0.24449999E+02  0.11962E+05
 0.24499998E+02  0.11953E+05
 0.24549999E+02  0.12000E+05
 0.24599998E+02  0.11995E+05
 0.24649998E+02  0.11981E+05
 0.24699999E+02  0.11984E+05
 0.24749998E+02  0.11962E+05
 0.24799999E+02  0.11975E+05
 0.24849998E+02  0.11994E+05
 0.24899998E+02  0.11974E+05
 0.24949999E+02  0.11971E+05
 0.24999998E+02  0.11964E+05
 0.25049999E+02  0.11960E+05
 0.25099998E+02  0.11975E+05
 0.25149998E+02  0.11968E+05
 0.25199999E+02  0.11966E+05
 0.25249998E+02  0.11968E+05
 0.25299999E+02  0.11969E+05
 0.25349998E+02  0.11963E+05
 0.25399998E+02  0.11966E+05
 0.25449999E+02  0.11981E+05
 0.25499998E+02  0.11969E+05
 0.25549999E+02  0.11970E+05
 0.25599998E+02  0.11971E+05
 0.25649998E+02  0.11963E+05
 0.25699999E+02  0.11977E+05
 0.25749998E+02  0.11980E+05
 0.25799999E+02  0.11970E+05
 0.25849998E+02  0.11972E+05
 0.25899998E+02  0.11979E+05
 0.25949999E+02  0.11958E+05
 0.25999998E+02  0.11948E+05
 0.26049997E+02  0.11983E+05
 0.26099998E+02  0.11996E+05
 0.26149998E+02  0.11950E+05
 0.26199999E+02  0.11944E+05
 0.26249998E+02  0.11980E+05
 0.26299997E+02  0.11957E+05
 0.26349998E+02  0.11950E+05
 0.26399998E+02  0.11969E+05
 0.26449999E+02  0.11979E+05
 0.26499998E+02  0.11975E+05
 0.26549997E+02  0.11944E+05
 0.26599998E+02  0.11957E+05
 0.26649998E+02  0.11971E+05
 0.26699999E+02  0.11965E+05
 0.26749998E+02  0.11963E+05
 0.26799997E+02  0.11954E+05
 0.26849998E+02  0.11969E+05
 0.26899998E+02  0.11959E+05
 0.26949999E+02  0.11946E+05
 0.26999998E+02  0.11974E+05
 0.27049997E+02  0.11962E+05
 0.27099998E+02  0.11952E+05
 0.27149998E+02  0.11972E+05
 0.27199999E+02  0.11960E+05
 0.27249998E+02  0.11959E+05
 0.27299997E+02  0.11960E+05
 0.27349998E+02  0.11954E+05
 0.27399998E+02  0.11971E+05
 0.27449999E+02  0.11950E+05
 0.27499998E+02  0.11928E+05
 0.27549997E+02  0.11969E+05
 0.27599998E+02  0.11971E+05
 0.27649998E+02  0.11946E+05
 0.27699999E+02  0.11965E+05
 0.27749998E+02  0.11963E+05
 0.27799997E+02  0.11962E+05
 0.27849998E+02  0.11984E+05
 0.27899998E+02  0.11956E+05
 0.27949999E+02  0.11928E+05
 0.27999998E+02  0.11969E+05
 0.28049997E+02  0.11979E+05
 0.28099998E+02  0.11961E+05
 0.28149998E+02  0.11969E+05
 0.28199999E+02  0.11954E+05
 0.28249998E+02  0.11930E+05
 0.28299997E+02  0.11942E+05
 0.28349998E+02  0.11968E+05
 0.28399998E+02  0.11970E+05
 0.28449999E+02  0.11965E+05
 0.28499998E+02  0.11934E+05
 0.28549997E+02  0.11915E+05
 0.28599998E+02  0.11950E+05
 0.28649998E+02  0.11957E+05
 0.28699999E+02  0.11946E+05
 0.28749998E+02  0.11947E+05
 0.28799997E+02  0.11945E+05
 0.28849998E+02  0.11957E+05
 0.28899998E+02  0.11961E+05
 0.28949999E+02  0.11944E+05
 0.28999998E+02  0.11947E+05
 0.29049999E+02  0.11947E+05
 0.29099998E+02  0.11935E+05
 0.29149998E+02  0.11959E+05
 0.29199997E+02  0.11942E+05
 0.29249996E+02  0.11917E+05
 0.29299999E+02  0.11951E+05
 0.29349998E+02  0.11960E+05
 0.29399998E+02  0.11945E+05
 0.29449997E+02  0.11930E+05
 0.29499996E+02  0.11916E+05
 0.29549999E+02  0.11954E+05
 0.29599998E+02  0.11977E+05
 0.29649998E+02  0.11951E+05
 0.29699997E+02  0.11966E+05
 0.29749996E+02  0.11971E+05
 0.29799999E+02  0.11922E+05
 0.29849998E+02  0.11952E+05
 0.29899998E+02  0.12029E+05
 0.29949997E+02  0.11977E+05
 0.29999996E+02  0.11899E+05
 0.30049999E+02  0.11905E+05
 0.30099998E+02  0.11906E+05
 0.30149998E+02  0.11928E+05
 0.30199997E+02  0.11965E+05
 0.30249996E+02  0.11933E+05
 0.30299999E+02  0.11944E+05
 0.30349998E+02  0.12006E+05
 0.30399998E+02  0.11981E+05
 0.30449997E+02  0.11932E+05
 0.30499996E+02  0.11934E+05
 0.30549999E+02  0.11966E+05
 0.30599998E+02  0.12003E+05
 0.30649998E+02  0.11998E+05
 0.30699997E+02  0.11948E+05
 0.30749996E+02  0.11920E+05
 0.30799999E+02  0.11956E+05
 0.30849998E+02  0.12003E+05
 0.30899998E+02  0.11929E+05
 0.30949997E+02  0.11815E+05
 0.30999996E+02  0.11931E+05
 0.31049999E+02  0.12046E+05
 0.31099998E+02  0.12043E+05
 0.31149998E+02  0.11998E+05
 0.31199997E+02  0.11859E+05
 0.31249996E+02  0.11919E+05
 0.31299999E+02  0.12005E+05
 0.31349998E+02  0.11908E+05
 0.31399998E+02  0.11917E+05
 0.31449997E+02  0.12011E+05
 0.31499996E+02  0.12013E+05
 0.31549999E+02  0.11970E+05
 0.31599998E+02  0.11927E+05
 0.31649998E+02  0.11907E+05
 0.31699997E+02  0.11959E+05
 0.31749996E+02  0.11924E+05
 0.31799999E+02  0.11982E+05
 0.31849998E+02  0.12095E+05
 0.31899998E+02  0.11961E+05
 0.31949997E+02  0.11908E+05
 0.31999996E+02  0.11969E+05
 0.32049999E+02  0.11982E+05
 0.32099998E+02  0.11965E+05
 0.32149998E+02  0.11932E+05
 0.32199997E+02  0.11936E+05
 0.32249996E+02  0.11944E+05
 0.32299999E+02  0.11956E+05
 0.32349998E+02  0.11999E+05
 0.32399998E+02  0.12090E+05
 0.32449997E+02  0.12058E+05
 0.32499996E+02  0.11898E+05
 0.32549999E+02  0.11860E+05
 0.32599998E+02  0.11942E+05
 0.32649998E+02  0.11951E+05
 0.32699997E+02  0.11944E+05
 0.32749996E+02  0.12045E+05
 0.32799999E+02  0.12034E+05
 0.32849998E+02  0.11967E+05
 0.32899998E+02  0.11973E+05
 0.32949997E+02  0.11940E+05
 0.32999996E+02  0.11945E+05
 0.33049999E+02  0.11997E+05
 0.33099998E+02  0.11997E+05
 0.33149998E+02  0.11954E+05
 0.33199997E+02  0.11921E+05
 0.33249996E+02  0.11930E+05
 0.33299999E+02  0.12030E+05
 0.33349998E+02  0.12064E+05
 0.33399998E+02  0.11944E+05
 0.33449997E+02  0.11882E+05
 0.33499996E+02  0.11923E+05
 0.33549999E+02  0.11994E+05
 0.33599998E+02  0.12036E+05
 0.33649998E+02  0.12002E+05
 0.33699997E+02  0.11922E+05
 0.33749996E+02  0.11934E+05
 0.33799999E+02  0.12011E+05
 0.33849998E+02  0.11996E+05
 0.33899998E+02  0.11952E+05
 0.33949997E+02  0.11942E+05
 0.33999996E+02  0.11967E+05
 0.34049999E+02  0.11963E+05
 0.34099998E+02  0.11975E+05
 0.34149998E+02  0.12017E+05
 0.34199997E+02  0.11997E+05
 0.34249996E+02  0.11979E+05
 0.34299999E+02  0.11952E+05
 0.34349998E+02  0.11933E+05
 0.34399998E+02  0.11980E+05
 0.34449997E+02  0.12037E+05
 0.34499996E+02  0.12017E+05
 0.34549999E+02  0.11950E+05
 0.34599998E+02  0.11943E+05
 0.34649998E+02  0.11986E+05
 0.34699997E+02  0.12019E+05
 0.34749996E+02  0.12011E+05
 0.34799999E+02  0.12004E+05
 0.34849998E+02  0.11972E+05
 0.34899998E+02  0.11933E+05
 0.34949997E+02  0.11982E+05
 0.34999996E+02  0.12043E+05
 0.35049999E+02  0.12051E+05
 0.35099998E+02  0.11994E+05
 0.35149998E+02  0.11933E+05
 0.35199997E+02  0.11956E+05
 0.35249996E+02  0.12006E+05
 0.35299999E+02  0.12018E+05
 0.35349998E+02  0.11976E+05
 0.35399998E+02  0.11962E+05
 0.35449997E+02  0.11998E+05
 0.35499996E+02  0.11997E+05
 0.35549999E+02  0.11985E+05
 0.35599998E+02  0.12015E+05
 0.35649998E+02  0.12032E+05
 0.35699997E+02  0.11975E+05
 0.35749996E+02  0.11937E+05
 0.35799999E+02  0.12007E+05
 0.35849998E+02  0.12054E+05
 0.35899998E+02  0.11997E+05
 0.35949997E+02  0.11961E+05
 0.35999996E+02  0.11950E+05
 0.36049999E+02  0.11956E+05
 0.36099998E+02  0.12015E+05
 0.36149998E+02  0.12022E+05
 0.36199997E+02  0.11986E+05
 0.36249996E+02  0.11985E+05
 0.36299999E+02  0.11990E+05
 0.36349998E+02  0.11992E+05
 0.36399998E+02  0.12003E+05
 0.36449997E+02  0.11983E+05
 0.36499996E+02  0.12007E+05
 0.36549999E+02  0.12041E+05
 0.36599998E+02  0.11976E+05
 0.36649998E+02  0.11954E+05
 0.36699997E+02  0.11988E+05
 0.36749996E+02  0.11990E+05
 0.36799999E+02  0.12000E+05
 0.36849998E+02  0.12002E+05
 0.36899998E+02  0.11955E+05
 0.36949997E+02  0.11960E+05
 0.36999996E+02  0.12007E+05
 0.37049999E+02  0.11969E+05
 0.37099998E+02  0.11975E+05
 0.37149998E+02  0.12024E+05
 0.37199997E+02  0.11969E+05
 0.37249996E+02  0.11928E+05
 0.37299999E+02  0.11963E+05
 0.37349998E+02  0.11967E+05
 0.37399998E+02  0.11946E+05
 0.37449997E+02  0.11967E+05
 0.37499996E+02  0.12001E+05
 0.37549999E+02  0.11981E+05
 0.37599998E+02  0.11952E+05
 0.37649998E+02  0.11985E+05
 0.37699997E+02  0.11975E+05
 0.37749996E+02  0.11942E+05
 0.37799999E+02  0.11989E+05
 0.37849998E+02  0.11959E+05
 0.37899998E+02  0.11911E+05
 0.37949997E+02  0.11974E+05
 0.37999996E+02  0.11989E+05
 0.38049999E+02  0.11946E+05
 0.38099998E+02  0.11963E+05
 0.38149998E+02  0.11999E+05
 0.38199997E+02  0.11971E+05
 0.38249996E+02  0.11958E+05
 0.38299999E+02  0.11977E+05
 0.38349998E+02  0.11973E+05
 0.38399998E+02  0.11941E+05
 0.38449997E+02  0.11917E+05
 0.38499996E+02  0.11983E+05
 0.38549999E+02  0.11993E+05
 0.38599998E+02  0.11933E+05
 0.38649998E+02  0.11961E+05
 0.38699997E+02  0.12001E+05
 0.38749996E+02  0.11961E+05
 0.38799999E+02  0.11925E+05
 0.38849998E+02  0.11984E+05
 0.38899998E+02  0.12003E+05
 0.38949997E+02  0.11967E+05
 0.38999996E+02  0.11989E+05
 0.39049999E+02  0.11980E+05
 0.39099998E+02  0.11916E+05
 0.39149998E+02  0.11921E+05
 0.39199997E+02  0.11983E+05
 0.39249996E+02  0.12005E+05
 0.39299999E+02  0.11956E+05
 0.39349998E+02  0.11936E+05
 0.39399998E+02  0.11974E+05
 0.39449997E+02  0.11958E+05
 0.39499996E+02  0.11955E+05
 0.39549999E+02  0.11961E+05
 0.39599998E+02  0.11925E+05
 0.39649998E+02  0.11923E+05
 0.39699997E+02  0.11954E+05
 0.39749996E+02  0.11983E+05
 0.39799999E+02  0.11969E+05
 0.39849998E+02  0.11937E+05
 0.39899998E+02  0.11939E+05
 0.39949997E+02  0.11985E+05
 0.39999996E+02  0.11995E+05
 0.40049999E+02  0.11941E+05
 0.40099998E+02  0.11925E+05
 0.40149998E+02  0.11938E+05
 0.40199997E+02  0.11973E+05
 0.40249996E+02  0.11986E+05
 0.40299999E+02  0.11961E+05
 0.40349998E+02  0.11956E+05
 0.40399998E+02  0.11963E+05
 0.40449997E+02  0.11954E+05
 0.40499996E+02  0.11949E+05
 0.40549999E+02  0.11970E+05
 0.40599998E+02  0.11982E+05
 0.40649998E+02  0.11974E+05
 0.40699997E+02  0.11966E+05
 0.40749996E+02  0.11979E+05
 0.40799999E+02  0.11981E+05
 0.40849998E+02  0.11958E+05
 0.40899998E+02  0.11961E+05
 0.40949997E+02  0.11984E+05
 0.40999996E+02  0.11976E+05
 0.41049999E+02  0.11947E+05
 0.41099998E+02  0.11959E+05
 0.41149998E+02  0.11972E+05
 0.41199997E+02  0.11963E+05
 0.41249996E+02  0.11971E+05
 0.41299999E+02  0.11971E+05
 0.41349998E+02  0.11977E+05
 0.41399998E+02  0.11985E+05
 0.41449997E+02  0.11968E+05
 0.41499996E+02  0.11974E+05
 0.41549999E+02  0.11996E+05
 0.41599998E+02  0.11984E+05
 0.41649998E+02  0.11976E+05
 0.41699997E+02  0.11981E+05
 0.41749996E+02  0.11957E+05
 0.41799995E+02  0.11958E+05
 0.41849998E+02  0.12002E+05
 0.41899998E+02  0.12012E+05
 0.41949997E+02  0.11983E+05
 0.41999996E+02  0.11963E+05
 0.42049995E+02  0.11981E+05
 0.42099998E+02  0.11995E+05
 0.42149998E+02  0.11986E+05
 0.42199997E+02  0.11987E+05
 0.42249996E+02  0.11988E+05
 0.42299995E+02  0.11994E+05
 0.42349998E+02  0.11986E+05
 0.42399998E+02  0.11983E+05
 0.42449997E+02  0.11993E+05
 0.42499996E+02  0.11986E+05
 0.42549995E+02  0.11986E+05
 0.42599998E+02  0.11975E+05
 0.42649998E+02  0.11970E+05
 0.42699997E+02  0.11981E+05
 0.42749996E+02  0.11973E+05
 0.42799995E+02  0.11983E+05
 0.42849998E+02  0.11983E+05
 0.42899998E+02  0.11984E+05
 0.42949997E+02  0.11999E+05
 0.42999996E+02  0.11982E+05
 0.43049995E+02  0.11991E+05
 0.43099998E+02  0.11986E+05
 0.43149998E+02  0.11963E+05
 0.43199997E+02  0.11969E+05
 0.43249996E+02  0.11968E+05
 0.43299995E+02  0.11988E+05
 0.43349998E+02  0.11992E+05
 0.43399998E+02  0.11949E+05
 0.43449997E+02  0.11937E+05
 0.43499996E+02  0.11981E+05
 0.43549995E+02  0.11996E+05
 0.43599998E+02  0.11976E+05
 0.43649998E+02  0.11976E+05
 0.43699997E+02  0.11970E+05
 0.43749996E+02  0.11968E+05
 0.43799995E+02  0.11971E+05
 0.43849998E+02  0.11972E+05
 0.43899998E+02  0.11976E+05
 0.43949997E+02  0.11969E+05
 0.43999996E+02  0.11944E+05
 0.44049995E+02  0.11945E+05
 0.44099998E+02  0.11979E+05
 0.44149998E+02  0.11954E+05
 0.44199997E+02  0.11946E+05
 0.44249996E+02  0.11987E+05
 0.44299995E+02  0.11966E+05
 0.44349998E+02  0.11949E+05
 0.44399998E+02  0.11977E+05
 0.44449997E+02  0.11984E+05
 0.44499996E+02  0.11960E+05
 0.44549995E+02  0.11944E+05
 0.44599998E+02  0.11948E+05
 0.44649998E+02  0.11958E+05
 0.44699997E+02  0.11975E+05
 0.44749996E+02  0.11973E+05
 0.44799995E+02  0.11957E+05
 0.44849998E+02  0.11946E+05
 0.44899998E+02  0.11948E+05
 0.44949997E+02  0.11952E+05
 0.44999996E+02  0.11941E+05
 0.45049995E+02  0.11955E+05
 0.45099998E+02  0.11972E+05
 0.45149998E+02  0.11955E+05
 0.45199997E+02  0.11967E+05
 0.45249996E+02  0.11985E+05
 0.45299995E+02  0.11962E+05
 0.45349998E+02  0.11951E+05
 0.45399998E+02  0.11963E+05
 0.45449997E+02  0.11982E+05
 0.45499996E+02  0.11972E+05
 0.45549995E+02  0.11947E+05
 0.45599998E+02  0.11961E+05
 0.45649998E+02  0.11973E+05
 0.45699997E+02  0.11965E+05
 0.45749996E+02  0.11987E+05
 0.45799995E+02  0.11998E+05
 0.45849998E+02  0.11974E+05
 0.45899998E+02  0.11977E+05
 0.45949997E+02  0.11979E+05
 0.45999996E+02  0.11963E+05
 0.46049995E+02  0.11975E+05
 0.46099998E+02  0.11993E+05
 0.46149998E+02  0.11980E+05
 0.46199997E+02  0.11973E+05
 0.46249996E+02  0.11968E+05
 0.46299995E+02  0.11959E+05
 0.46349998E+02  0.11965E+05
 0.46399998E+02  0.11962E+05
 0.46449997E+02  0.11981E+05
 0.46499996E+02  0.12000E+05
 0.46549995E+02  0.11979E+05
 0.46599998E+02  0.11973E+05
 0.46649998E+02  0.11990E+05
 0.46699997E+02  0.11981E+05
 0.46749996E+02  0.11955E+05
 0.46799995E+02  0.11957E+05
 0.46849998E+02  0.11981E+05
 0.46899998E+02  0.11992E+05
 0.46949997E+02  0.11982E+05
 0.46999996E+02  0.11977E+05
 0.47049995E+02  0.11964E+05
 0.47099998E+02  0.11946E+05
 0.47149998E+02  0.11960E+05
 0.47199997E+02  0.11986E+05
 0.47249996E+02  0.11989E+05
 0.47299995E+02  0.11976E+05
 0.47349998E+02  0.11960E+05
 0.47399998E+02  0.11949E+05
 0.47449997E+02  0.11962E+05
 0.47499996E+02  0.11982E+05
 0.47549995E+02  0.11989E+05
 0.47599998E+02  0.11975E+05
 0.47649998E+02  0.11959E+05
 0.47699997E+02  0.11980E+05
 0.47749996E+02  0.11998E+05
 0.47799995E+02  0.12002E+05
 0.47849998E+02  0.12020E+05
 0.47899998E+02  0.12020E+05
 0.47949997E+02  0.11993E+05
 0.47999996E+02  0.11968E+05
 0.48049995E+02  0.11969E+05
 0.48099998E+02  0.11928E+05
 0.48149998E+02  0.11890E+05
 0.48199997E+02  0.11984E+05
 0.48249996E+02  0.12128E+05
 0.48299995E+02  0.12241E+05
 0.48349998E+02  0.12374E+05
 0.48399998E+02  0.12647E+05
 0.48449997E+02  0.13054E+05
 0.48499996E+02  0.13387E+05
 0.48549995E+02  0.13511E+05
 0.48599998E+02  0.13443E+05
 0.48649998E+02  0.13316E+05
 0.48699997E+02  0.13176E+05
 0.48749996E+02  0.12941E+05
 0.48799995E+02  0.12760E+05
 0.48849998E+02  0.12789E+05
 0.48899998E+02  0.12711E+05
 0.48949997E+02  0.12301E+05
 0.48999996E+02  0.11920E+05
 0.49049995E+02  0.11847E+05
 0.49099998E+02  0.11971E+05
 0.49149998E+02  0.12127E+05
 0.49199997E+02  0.12063E+05
 0.49249996E+02  0.11636E+05
 0.49299995E+02  0.11324E+05
 0.49349998E+02  0.11407E+05
 0.49399998E+02  0.11303E+05
 0.49449997E+02  0.11390E+05
 0.49499996E+02  0.12109E+05
 0.49549995E+02  0.12073E+05
 0.49599998E+02  0.11119E+05
 0.49649998E+02  0.10890E+05
 0.49699997E+02  0.11623E+05
 0.49749996E+02  0.11688E+05
 0.49799995E+02  0.11602E+05
 0.49849998E+02  0.12622E+05
 0.49899998E+02  0.12847E+05
 0.49949997E+02  0.12355E+05
 0.49999996E+02  0.12403E+05
 0.50049995E+02  0.12432E+05
 0.50099998E+02  0.12600E+05
 0.50149998E+02  0.13139E+05
 0.50199997E+02  0.12093E+05
 0.50249996E+02  0.94480E+04
 0.50299995E+02  0.93550E+04
 0.50349998E+02  0.10395E+05
 0.50399998E+02  0.10697E+05
 0.50449997E+02  0.13547E+05
 0.50499996E+02  0.16029E+05
 0.50549995E+02  0.14991E+05
 0.50599998E+02  0.15218E+05
 0.50649998E+02  0.17396E+05
 0.50699997E+02  0.15819E+05
 0.50749996E+02  0.11376E+05
 0.50799995E+02  0.10101E+05
 0.50849998E+02  0.11084E+05
 0.50899998E+02  0.10423E+05
 0.50949997E+02  0.90240E+04
 0.50999996E+02  0.98370E+04
 0.51049995E+02  0.12700E+05
 0.51099998E+02  0.15015E+05
 0.51149998E+02  0.14600E+05
 0.51199997E+02  0.11213E+05
 0.51249996E+02  0.11033E+05
 0.51299995E+02  0.12579E+05
 0.51349998E+02  0.11681E+05
 0.51399998E+02  0.11437E+05
 0.51449997E+02  0.98020E+04
 0.51499996E+02  0.11365E+05
 0.51549995E+02  0.13500E+05
 0.51599998E+02  0.10176E+05
 0.51649998E+02  0.95360E+04
 0.51699997E+02  0.10285E+05
 0.51749996E+02  0.10953E+05
 0.51799995E+02  0.12290E+05
 0.51849998E+02  0.13920E+05
 0.51899998E+02  0.17579E+05
 0.51949997E+02  0.14403E+05
 0.51999996E+02  0.74770E+04
 0.52049995E+02  0.11426E+05
 0.52099998E+02  0.17408E+05
 0.52149998E+02  0.12212E+05
 0.52199997E+02  0.37660E+04
 0.52249996E+02  0.15620E+04
 0.52299995E+02  0.78660E+04
 0.52349998E+02  0.16637E+05
 0.52399998E+02  0.19024E+05
 0.52449997E+02  0.17571E+05
 0.52499996E+02  0.16353E+05
 0.52549995E+02  0.18624E+05
 0.52599998E+02  0.18112E+05
 0.52649998E+02  0.86640E+04
 0.52699997E+02  0.80460E+04
 0.52749996E+02  0.14404E+05
 0.52799995E+02  0.13398E+05
 0.52849998E+02  0.16566E+05
 0.52899998E+02  0.21894E+05
 0.52949997E+02  0.17617E+05
 0.52999996E+02  0.12150E+05
 0.53049995E+02  0.15047E+05
 0.53099998E+02  0.19294E+05
 0.53149998E+02  0.16975E+05
 0.53199997E+02  0.96400E+04
 0.53249996E+02  0.18420E+04
 0.53299995E+02  0.72700E+04
 0.53349998E+02  0.21636E+05
 0.53399998E+02  0.23015E+05
 0.53449997E+02  0.17411E+05
 0.53499996E+02  0.14234E+05
 0.53549995E+02  0.83000E+04
 0.53599998E+02  0.31340E+04
 0.53649998E+02 -0.35900E+03
 0.53699997E+02  0.25040E+04
 0.53749996E+02  0.12810E+05
 0.53799995E+02  0.13617E+05
 0.53849998E+02  0.99850E+04
 0.53899998E+02  0.17022E+05
 0.53949997E+02  0.23163E+05
 0.53999996E+02  0.18157E+05
 0.54049995E+02  0.13794E+05
 0.54099998E+02  0.14194E+05
 0.54149998E+02  0.11714E+05
 0.54199997E+02  0.14040E+04
 0.54249996E+02 -0.15690E+05
 0.54299995E+02 -0.21999E+05
 0.54349998E+02 -0.70570E+04
 0.54399998E+02  0.11379E+05
 0.54449997E+02  0.18851E+05
 0.54499996E+02  0.28092E+05
 0.54549995E+02  0.33145E+05
 0.54599998E+02  0.23716E+05
 0.54649998E+02  0.19075E+05
 0.54699997E+02  0.24652E+05
 0.54749996E+02  0.36954E+05
 0.54799995E+02  0.35538E+05
 0.54849995E+02  0.12352E+05
 0.54899998E+02 -0.38810E+04
 0.54949997E+02 -0.59170E+04
 0.54999996E+02 -0.63430E+04
 0.55049995E+02 -0.16236E+05
 0.55099995E+02 -0.14521E+05
 0.55149998E+02  0.89920E+04
 0.55199997E+02  0.15222E+05
 0.55249996E+02  0.11319E+05
 0.55299995E+02  0.20493E+05
 0.55349995E+02  0.23224E+05
 0.55399998E+02  0.24159E+05
 0.55449997E+02  0.28971E+05
 0.55499996E+02  0.33672E+05
 0.55549995E+02  0.40353E+05
 0.55599995E+02  0.19584E+05
 0.55649998E+02 -0.20821E+05
 0.55699997E+02 -0.39071E+05
 0.55749996E+02 -0.23878E+05
 0.55799995E+02  0.62160E+04
 0.55849995E+02  0.18940E+05
 0.55899998E+02  0.19442E+05
 0.55949997E+02  0.15249E+05
 0.55999996E+02  0.15060E+05
 0.56049995E+02  0.25190E+05
 0.56099995E+02  0.24497E+05
 0.56149998E+02  0.20259E+05
 0.56199997E+02  0.19765E+05
 0.56249996E+02  0.16130E+05
 0.56299995E+02  0.26890E+04
 0.56349995E+02 -0.78130E+04
 0.56399998E+02 -0.53000E+04
 0.56449997E+02 -0.18319E+05
 0.56499996E+02 -0.23570E+05
 0.56549995E+02  0.37820E+04
 0.56599995E+02  0.24575E+05
 0.56649998E+02  0.28824E+05
 0.56699997E+02  0.26263E+05
 0.56749996E+02  0.31222E+05
 0.56799995E+02  0.52223E+05
 0.56849995E+02  0.52107E+05
 0.56899998E+02  0.20641E+05
 0.56949997E+02 -0.60390E+04
 0.56999996E+02 -0.53570E+04
 0.57049995E+02  0.47430E+04
 0.57099995E+02  0.25160E+04
 0.57149998E+02 -0.17940E+04
 0.57199997E+02 -0.89140E+04
 0.57249996E+02 -0.12262E+05
 0.57299995E+02  0.80250E+04
 0.57349995E+02  0.40793E+05
 0.57399998E+02  0.52855E+05
 0.57449997E+02  0.37731E+05
 0.57499996E+02  0.26490E+05
 0.57549995E+02  0.22375E+05
 0.57599995E+02  0.21036E+05
 0.57649998E+02  0.21840E+05
 0.57699997E+02 -0.86600E+03
 0.57749996E+02 -0.22741E+05
 0.57799995E+02 -0.66170E+04
 0.57849995E+02  0.25690E+04
 0.57899998E+02 -0.12618E+05
 0.57949997E+02 -0.14423E+05
 0.57999996E+02 -0.13942E+05
 0.58049995E+02  0.55800E+03
 0.58099995E+02  0.50802E+05
 0.58149998E+02  0.77468E+05
 0.58199997E+02  0.49576E+05
 0.58249996E+02  0.20330E+05
 0.58299995E+02  0.18973E+05
 0.58349995E+02  0.18213E+05
 0.58399998E+02  0.18939E+05
 0.58449997E+02  0.18358E+05
 0.58499996E+02 -0.58730E+04
 0.58549995E+02 -0.22980E+05
 0.58599995E+02 -0.10557E+05
 0.58649998E+02  0.28440E+04
 0.58699997E+02 -0.99620E+04
 0.58749996E+02 -0.25723E+05
 0.58799995E+02 -0.27860E+04
 0.58849995E+02  0.41700E+05
 0.58899998E+02  0.53162E+05
 0.58949997E+02  0.25882E+05
 0.58999996E+02  0.12582E+05
 0.59049995E+02  0.34256E+05
 0.59099995E+02  0.54666E+05
 0.59149998E+02  0.49341E+05
 0.59199997E+02  0.25153E+05
 0.59249996E+02  0.71400E+03
 0.59299995E+02 -0.11379E+05
 0.59349995E+02 -0.18029E+05
 0.59399998E+02 -0.20121E+05
 0.59449997E+02 -0.31821E+05
 0.59499996E+02 -0.41177E+05
 0.59549995E+02 -0.96270E+04
 0.59599995E+02  0.24299E+05
 0.59649998E+02  0.39855E+05
 0.59699997E+02  0.54934E+05
 0.59749996E+02  0.53234E+05
 0.59799995E+02  0.35036E+05
 0.59849995E+02  0.26623E+05
 0.59899998E+02  0.39756E+05
 0.59949997E+02  0.31526E+05
 0.59999996E+02 -0.27800E+03
 0.60049995E+02  0.36290E+04
 0.60099995E+02  0.22436E+05
 0.60149998E+02  0.16721E+05
 0.60199997E+02 -0.15200E+03
 0.60249996E+02 -0.18452E+05
 0.60299995E+02 -0.24517E+05
 0.60349995E+02 -0.20961E+05
 0.60399998E+02 -0.28654E+05
 0.60449997E+02 -0.24269E+05
 0.60499996E+02 -0.21560E+04
 0.60549995E+02 -0.19970E+04
 0.60599995E+02  0.79200E+03
 0.60649998E+02  0.34776E+05
 0.60699997E+02  0.55959E+05
 0.60749996E+02  0.39833E+05
 0.60799995E+02  0.13793E+05
 0.60849995E+02  0.25811E+05
 0.60899998E+02  0.59423E+05
 0.60949997E+02  0.52689E+05
 0.60999996E+02  0.18547E+05
 0.61049995E+02 -0.48350E+04
 0.61099998E+02 -0.12117E+05
 0.61149994E+02 -0.13960E+05
 0.61199997E+02 -0.18297E+05
 0.61249992E+02 -0.11346E+05
 0.61299995E+02  0.73250E+04
 0.61349998E+02  0.98150E+04
 0.61399994E+02  0.31180E+04
 0.61449997E+02  0.49280E+04
 0.61499992E+02  0.40830E+04
 0.61549995E+02  0.16014E+05
 0.61599998E+02  0.43313E+05
 0.61649994E+02  0.52162E+05
 0.61699997E+02  0.32028E+05
 0.61749992E+02  0.67920E+04
 0.61799995E+02  0.21880E+04
 0.61849998E+02  0.16508E+05
 0.61899994E+02  0.31274E+05
 0.61949997E+02  0.36601E+05
 0.61999992E+02  0.42130E+05
 0.62049995E+02  0.34033E+05
 0.62099998E+02  0.50490E+04
 0.62149994E+02 -0.10711E+05
 0.62199997E+02 -0.21747E+05
 0.62249992E+02 -0.42841E+05
 0.62299995E+02 -0.37635E+05
 0.62349998E+02  0.64660E+04
 0.62399994E+02  0.34740E+05
 0.62449997E+02  0.11512E+05
 0.62499992E+02 -0.81980E+04
 0.62549995E+02  0.21372E+05
 0.62599998E+02  0.61515E+05
 0.62649994E+02  0.64472E+05
 0.62699997E+02  0.48960E+05
 0.62749992E+02  0.36384E+05
 0.62799995E+02  0.54090E+04
 0.62849998E+02 -0.35912E+05
 0.62899994E+02 -0.54327E+05
 0.62949997E+02 -0.45516E+05
 0.62999992E+02 -0.30222E+05
 0.63049995E+02 -0.71300E+04
 0.63099998E+02  0.24661E+05
 0.63149994E+02  0.32875E+05
 0.63199997E+02  0.22553E+05
 0.63249992E+02  0.32071E+05
 0.63299995E+02  0.61386E+05
 0.63349998E+02  0.81664E+05
 0.63399994E+02  0.67656E+05
 0.63449997E+02  0.31182E+05
 0.63499992E+02 -0.94430E+04
 0.63549995E+02 -0.53451E+05
 0.63599998E+02 -0.52655E+05
 0.63649994E+02 -0.14641E+05
 0.63699997E+02  0.33150E+04
 0.63749992E+02  0.25966E+05
 0.63799995E+02  0.50743E+05
 0.63849998E+02  0.51057E+05
 0.63899994E+02  0.35779E+05
 0.63949997E+02  0.54080E+04
 0.63999992E+02 -0.12588E+05
 0.64049995E+02 -0.18713E+05
 0.64099998E+02 -0.24040E+05
 0.64149994E+02  0.40250E+04
 0.64199997E+02  0.25692E+05
 0.64249992E+02  0.15500E+05
 0.64299995E+02  0.14956E+05
 0.64349998E+02  0.21497E+05
 0.64399994E+02  0.23562E+05
 0.64449997E+02  0.42606E+05
 0.64499992E+02  0.70470E+05
 0.64549995E+02  0.49465E+05
 0.64599998E+02 -0.15870E+04
 0.64649994E+02 -0.37446E+05
 0.64699997E+02 -0.56066E+05
 0.64749992E+02 -0.46516E+05
 0.64799995E+02 -0.26195E+05
 0.64849998E+02 -0.46670E+04
 0.64899994E+02  0.19511E+05
 0.64949997E+02  0.32681E+05
 0.64999992E+02  0.31115E+05
 0.65049995E+02  0.38016E+05
 0.65099998E+02  0.51973E+05
 0.65149994E+02  0.32672E+05
 0.65199997E+02  0.13600E+05
 0.65249992E+02  0.41507E+05
 0.65299995E+02  0.61193E+05
 0.65349998E+02  0.17032E+05
 0.65399994E+02 -0.34516E+05
 0.65449997E+02 -0.37937E+05
 0.65499992E+02 -0.11289E+05
 0.65549995E+02  0.11035E+05
 0.65599998E+02  0.10819E+05
 0.65649994E+02  0.82530E+04
 0.65699997E+02  0.98800E+03
 0.65749992E+02  0.93700E+03
 0.65799995E+02  0.10558E+05
 0.65849998E+02 -0.14223E+05
 0.65899994E+02 -0.30959E+05
 0.65949997E+02 -0.30000E+02
 0.65999992E+02  0.50825E+05
 0.66049995E+02  0.82512E+05
 0.66099998E+02  0.66300E+05
 0.66149994E+02  0.40319E+05
 0.66199997E+02  0.21503E+05
 0.66249992E+02  0.95870E+04
 0.66299995E+02  0.23692E+05
 0.66349998E+02  0.26025E+05
 0.66399994E+02 -0.10222E+05
 0.66449997E+02 -0.46102E+05
 0.66499992E+02 -0.41773E+05
 0.66549995E+02 -0.21038E+05
 0.66599998E+02 -0.36810E+04
 0.66649994E+02  0.99360E+04
 0.66699997E+02  0.18444E+05
 0.66749992E+02  0.39977E+05
 0.66799995E+02  0.38821E+05
 0.66849998E+02  0.98490E+04
 0.66899994E+02 -0.14750E+04
 0.66949997E+02  0.62170E+04
 0.66999992E+02  0.15374E+05
 0.67049995E+02  0.18363E+05
 0.67099998E+02  0.21992E+05
 0.67149994E+02  0.27734E+05
 0.67199997E+02  0.26328E+05
 0.67249992E+02  0.44950E+04
 0.67299995E+02 -0.79020E+04
 0.67349998E+02  0.16534E+05
 0.67399994E+02  0.41149E+05
 0.67449997E+02  0.31827E+05
 0.67499992E+02  0.14485E+05
 0.67549995E+02  0.17671E+05
 0.67599998E+02  0.89460E+04
 0.67649994E+02 -0.48970E+04
 0.67699997E+02 -0.61290E+04
 0.67749992E+02 -0.10804E+05
 0.67799995E+02 -0.11524E+05
 0.67849998E+02 -0.25730E+04
 0.67899994E+02  0.87120E+04
 0.67949997E+02  0.46260E+04
 0.67999992E+02  0.22540E+04
 0.68049995E+02  0.13567E+05
 0.68099998E+02  0.17321E+05
 0.68149994E+02  0.22424E+05
 0.68199997E+02  0.27498E+05
 0.68249992E+02  0.10536E+05
 0.68299995E+02 -0.94200E+04
 0.68349998E+02  0.81860E+04
 0.68399994E+02  0.51480E+05
 0.68449997E+02  0.69913E+05
 0.68499992E+02  0.54299E+05
 0.68549995E+02  0.33151E+05
 0.68599998E+02  0.14142E+05
 0.68649994E+02  0.12769E+05
 0.68699997E+02  0.22705E+05
 0.68749992E+02 -0.20340E+04
 0.68799995E+02 -0.27621E+05
 0.68849998E+02 -0.20318E+05
 0.68899994E+02 -0.12504E+05
 0.68949997E+02 -0.59190E+04
 0.68999992E+02 -0.77830E+04
 0.69049995E+02 -0.83170E+04
 0.69099998E+02  0.16526E+05
 0.69149994E+02  0.40729E+05
 0.69199997E+02  0.49476E+05
 0.69249992E+02  0.45238E+05
 0.69299995E+02  0.38622E+05
 0.69349998E+02  0.26985E+05
 0.69399994E+02  0.74780E+04
 0.69449997E+02  0.11980E+04
 0.69499992E+02 -0.29700E+03
 0.69549995E+02 -0.66680E+04
 0.69599998E+02 -0.20990E+04
 0.69649994E+02  0.93930E+04
 0.69699997E+02 -0.14710E+04
 0.69749992E+02 -0.25039E+05
 0.69799995E+02 -0.42078E+05
 0.69849998E+02 -0.52839E+05
 0.69899994E+02 -0.43069E+05
 0.69949997E+02 -0.23650E+05
 0.69999992E+02 -0.27079E+05
 0.70049995E+02 -0.30022E+05
 0.70099998E+02  0.82870E+04
 0.70149994E+02  0.45822E+05
 0.70199997E+02  0.50473E+05
 0.70249992E+02  0.41238E+05
 0.70299995E+02  0.43084E+05
 0.70349998E+02  0.59544E+05
 0.70399994E+02  0.62479E+05
 0.70449997E+02  0.57186E+05
 0.70499992E+02  0.40954E+05
 0.70549995E+02  0.20100E+05
 0.70599998E+02  0.14318E+05
 0.70649994E+02  0.10312E+05
 0.70699997E+02  0.81000E+03
 0.70749992E+02 -0.36990E+04
 0.70799995E+02  0.18345E+05
 0.70849998E+02  0.41323E+05
 0.70899994E+02  0.39609E+05
 0.70949997E+02  0.32360E+05
 0.70999992E+02  0.24432E+05
 0.71049995E+02  0.17459E+05
 0.71099998E+02  0.56940E+04
 0.71149994E+02 -0.12345E+05
 0.71199997E+02 -0.23723E+05
 0.71249992E+02 -0.29758E+05
 0.71299995E+02 -0.28588E+05
 0.71349998E+02 -0.22077E+05
 0.71399994E+02 -0.23090E+05
 0.71449997E+02 -0.32306E+05
 0.71499992E+02 -0.47008E+05
 0.71549995E+02 -0.49265E+05
 0.71599998E+02 -0.25573E+05
 0.71649994E+02  0.10296E+05
 0.71699997E+02  0.37318E+05
 0.71749992E+02  0.29343E+05
 0.71799995E+02  0.12737E+05
 0.71849998E+02  0.29829E+05
 0.71899994E+02  0.65577E+05
 0.71949997E+02  0.95782E+05
 0.71999992E+02  0.94824E+05
 0.72049995E+02  0.65426E+05
 0.72099998E+02  0.37240E+05
 0.72149994E+02  0.17432E+05
 0.72199997E+02  0.28980E+04
 0.72249992E+02  0.50690E+04
 0.72299995E+02  0.39057E+05
 0.72349998E+02  0.54913E+05
 0.72399994E+02  0.19990E+05
 0.72449997E+02 -0.22927E+05
 0.72499992E+02 -0.48769E+05
 0.72549995E+02 -0.38274E+05
 0.72599998E+02 -0.28510E+04
 0.72649994E+02  0.24935E+05
 0.72699997E+02  0.46640E+05
 0.72749992E+02  0.45933E+05
 0.72799995E+02  0.15025E+05
 0.72849998E+02 -0.17545E+05
 0.72899994E+02 -0.42307E+05
 0.72949997E+02 -0.60560E+05
 0.72999992E+02 -0.72231E+05
 0.73049995E+02 -0.89405E+05
 0.73099998E+02 -0.10122E+06
 0.73149994E+02 -0.90490E+05
 0.73199997E+02 -0.73697E+05
 0.73249992E+02 -0.58578E+05
 0.73299995E+02 -0.37372E+05
 0.73349998E+02 -0.21006E+05
 0.73399994E+02 -0.60420E+04
 0.73449997E+02  0.33318E+05
 0.73499992E+02  0.82135E+05
 0.73549995E+02  0.96720E+05
 0.73599998E+02  0.70404E+05
 0.73649994E+02  0.31319E+05
 0.73699997E+02  0.16871E+05
 0.73749992E+02  0.35592E+05
 0.73799995E+02  0.61192E+05
 0.73849998E+02  0.79928E+05
 0.73899994E+02  0.77269E+05
 0.73949997E+02  0.56788E+05
 0.73999992E+02  0.41353E+05
 0.74049995E+02  0.29942E+05
 0.74099998E+02  0.31390E+05
 0.74149994E+02  0.47987E+05
 0.74199997E+02  0.60091E+05
 0.74249992E+02  0.47959E+05
 0.74299995E+02  0.15134E+05
 0.74349998E+02 -0.12301E+05
 0.74399994E+02 -0.30707E+05
 0.74449997E+02 -0.33697E+05
 0.74499992E+02 -0.17386E+05
 0.74549995E+02  0.44260E+04
 0.74599998E+02  0.33380E+05
 0.74649994E+02  0.64488E+05
 0.74699997E+02  0.81107E+05
 0.74749992E+02  0.84921E+05
 0.74799995E+02  0.98003E+05
 0.74849998E+02  0.11778E+06
 0.74899994E+02  0.12359E+06
 0.74949997E+02  0.12822E+06
 0.74999992E+02  0.12002E+06
 0.75049995E+02  0.68369E+05
 0.75099998E+02  0.14348E+05
 0.75149994E+02 -0.62550E+04
 0.75199997E+02 -0.54268E+05
 0.75249992E+02 -0.13583E+06
 0.75299995E+02 -0.13775E+06
 0.75349998E+02 -0.47174E+05
 0.75399994E+02  0.49792E+05
 0.75449997E+02  0.10561E+06
 0.75499992E+02  0.11429E+06
 0.75549995E+02  0.12158E+06
 0.75599998E+02  0.14732E+06
 0.75649994E+02  0.15842E+06
 0.75699997E+02  0.12616E+06
 0.75749992E+02  0.67889E+05
 0.75799995E+02  0.36674E+05
 0.75849998E+02  0.15957E+05
 0.75899994E+02 -0.34478E+05
 0.75949997E+02 -0.88713E+05
 0.75999992E+02 -0.11123E+06
 0.76049995E+02 -0.94204E+05
 0.76099998E+02 -0.26670E+05
 0.76149994E+02  0.73849E+05
 0.76199997E+02  0.14709E+06
 0.76249992E+02  0.19272E+06
 0.76299995E+02  0.22874E+06
 0.76349998E+02  0.23450E+06
 0.76399994E+02  0.22298E+06
 0.76449997E+02  0.21279E+06
 0.76499992E+02  0.17821E+06
 0.76549995E+02  0.81197E+05
 0.76599998E+02 -0.52957E+05
 0.76649994E+02 -0.17604E+06
 0.76699997E+02 -0.28984E+06
 0.76749992E+02 -0.37838E+06
 0.76799995E+02 -0.39789E+06
 0.76849998E+02 -0.34764E+06
 0.76899994E+02 -0.30267E+06
 0.76949997E+02 -0.26369E+06
 0.76999992E+02 -0.15628E+06
 0.77049995E+02 -0.17392E+05
 0.77099998E+02  0.96434E+05
 0.77149994E+02  0.16446E+06
 0.77199997E+02  0.19266E+06
 0.77249992E+02  0.16475E+06
 0.77299995E+02  0.71337E+05
 0.77349998E+02 -0.98190E+04
 0.77399994E+02 -0.68454E+05
 0.77449997E+02 -0.11488E+06
 0.77499992E+02 -0.14539E+06
 0.77549995E+02 -0.16408E+06
 0.77599998E+02 -0.14149E+06
 0.77649994E+02 -0.10610E+06
 0.77699997E+02 -0.10192E+06
 0.77749992E+02 -0.11029E+06
 0.77799995E+02 -0.87167E+05
 0.77849998E+02 -0.31947E+05
 0.77899994E+02  0.24325E+05
 0.77949997E+02  0.71213E+05
 0.77999992E+02  0.10606E+06
 0.78049995E+02  0.11938E+06
 0.78099998E+02  0.13068E+06
 0.78149994E+02  0.16907E+06
 0.78199997E+02  0.19756E+06
 0.78249992E+02  0.18229E+06
 0.78299995E+02  0.13994E+06
 0.78349998E+02  0.93833E+05
 0.78399994E+02  0.48053E+05
 0.78449997E+02 -0.64900E+03
 0.78499992E+02 -0.40093E+05
 0.78549995E+02 -0.75006E+05
 0.78599998E+02 -0.87071E+05
 0.78649994E+02 -0.65109E+05
 0.78699997E+02 -0.47385E+05
 0.78749992E+02 -0.29131E+05
 0.78799995E+02  0.38790E+04
 0.78849998E+02  0.27260E+05
 0.78899994E+02  0.29954E+05
 0.78949997E+02  0.18555E+05
 0.78999992E+02  0.18570E+04
 0.79049995E+02 -0.14587E+05
 0.79099998E+02 -0.18318E+05
 0.79149994E+02 -0.48970E+04
 0.79199997E+02  0.40430E+04
 0.79249992E+02 -0.82900E+03
 0.79299995E+02 -0.72760E+04
 0.79349998E+02  0.14631E+05
 0.79399994E+02  0.52811E+05
 0.79449997E+02  0.64030E+05
 0.79499992E+02  0.54839E+05
 0.79549995E+02  0.42839E+05
 0.79599998E+02  0.35056E+05
 0.79649994E+02  0.52080E+04
 0.79699997E+02 -0.49236E+05
 0.79749992E+02 -0.78095E+05
 0.79799995E+02 -0.78875E+05
 0.79849998E+02 -0.77024E+05
 0.79899994E+02 -0.89980E+05
 0.79949997E+02 -0.10774E+06
 0.79999992E+02 -0.97021E+05
 0.80049995E+02 -0.65299E+05
 0.80099998E+02 -0.45235E+05
 0.80149994E+02 -0.29858E+05
 0.80199997E+02  0.52030E+04
 0.80249992E+02  0.44884E+05
 0.80299995E+02  0.68897E+05
 0.80349998E+02  0.86538E+05
 0.80399994E+02  0.11057E+06
 0.80449997E+02  0.13499E+06
 0.80499992E+02  0.15095E+06
 0.80549995E+02  0.16654E+06
 0.80599998E+02  0.19523E+06
 0.80649994E+02  0.22508E+06
 0.80699997E+02  0.22153E+06
 0.80749992E+02  0.18146E+06
 0.80799995E+02  0.10673E+06
 0.80849998E+02 -0.36860E+04
 0.80899994E+02 -0.88724E+05
 0.80949997E+02 -0.93173E+05
 0.80999992E+02 -0.52573E+05
 0.81049995E+02 -0.38458E+05
 0.81099998E+02 -0.49321E+05
 0.81149994E+02 -0.62923E+05
 0.81199997E+02 -0.85186E+05
 0.81249992E+02 -0.50782E+05
 0.81299995E+02  0.53419E+05
 0.81349998E+02  0.13752E+06
 0.81399994E+02  0.17136E+06
 0.81449997E+02  0.16002E+06
 0.81499992E+02  0.11892E+06
 0.81549995E+02  0.83264E+05
 0.81599998E+02  0.70273E+05
 0.81649994E+02  0.61169E+05
 0.81699997E+02  0.22076E+05
 0.81749992E+02 -0.31382E+05
 0.81799995E+02 -0.73755E+05
 0.81849998E+02 -0.10306E+06
 0.81899994E+02 -0.11131E+06
 0.81949997E+02 -0.10676E+06
 0.81999992E+02 -0.11676E+06
 0.82049995E+02 -0.13282E+06
 0.82099998E+02 -0.13147E+06
 0.82149994E+02 -0.12976E+06
 0.82199997E+02 -0.11821E+06
 0.82249992E+02 -0.83638E+05
 0.82299995E+02 -0.37132E+05
 0.82349998E+02  0.14522E+05
 0.82399994E+02  0.45866E+05
 0.82449997E+02  0.61268E+05
 0.82499992E+02  0.84155E+05
 0.82549995E+02  0.10902E+06
 0.82599998E+02  0.12166E+06
 0.82649994E+02  0.13162E+06
 0.82699997E+02  0.13854E+06
 0.82749992E+02  0.12233E+06
 0.82799995E+02  0.95351E+05
 0.82849998E+02  0.71360E+05
 0.82899994E+02  0.40877E+05
 0.82949997E+02  0.21453E+05
 0.82999992E+02  0.16345E+05
 0.83049995E+02 -0.22878E+05
 0.83099998E+02 -0.72307E+05
 0.83149994E+02 -0.84743E+05
 0.83199997E+02 -0.62501E+05
 0.83249992E+02 -0.36210E+04
 0.83299995E+02  0.54986E+05
 0.83349998E+02  0.66308E+05
 0.83399994E+02  0.34427E+05
 0.83449997E+02 -0.22770E+04
 0.83499992E+02 -0.17203E+05
 0.83549995E+02 -0.37500E+04
 0.83599998E+02  0.20510E+05
 0.83649994E+02  0.24811E+05
 0.83699997E+02  0.81740E+04
 0.83749992E+02 -0.20476E+05
 0.83799995E+02 -0.43381E+05
 0.83849998E+02 -0.45495E+05
 0.83899994E+02 -0.29034E+05
 0.83949997E+02  0.99370E+04
 0.83999992E+02  0.53338E+05
 0.84049995E+02  0.63836E+05
 0.84099998E+02  0.29977E+05
 0.84149994E+02 -0.70700E+04
 0.84199997E+02  0.66790E+04
 0.84249992E+02  0.35997E+05
 0.84299995E+02  0.24632E+05
 0.84349998E+02  0.51380E+04
 0.84399994E+02  0.32644E+05
 0.84449997E+02  0.89521E+05
 0.84499992E+02  0.10932E+06
 0.84549995E+02  0.82180E+05
 0.84599998E+02  0.41370E+05
 0.84649994E+02  0.13850E+05
 0.84699997E+02  0.16434E+05
 0.84749992E+02  0.38735E+05
 0.84799995E+02  0.53308E+05
 0.84849998E+02  0.50077E+05
 0.84899994E+02  0.53221E+05
 0.84949997E+02  0.71404E+05
 0.84999992E+02  0.82710E+05
 0.85049995E+02  0.77416E+05
 0.85099998E+02  0.43379E+05
 0.85149994E+02 -0.15132E+05
 0.85199997E+02 -0.51658E+05
 0.85249992E+02 -0.70286E+05
 0.85299995E+02 -0.87890E+05
 0.85349998E+02 -0.77048E+05
 0.85399994E+02 -0.72344E+05
 0.85449997E+02 -0.75230E+05
 0.85499992E+02 -0.43335E+05
 0.85549995E+02 -0.35031E+05
 0.85599998E+02 -0.69071E+05
 0.85649994E+02 -0.78714E+05
 0.85699997E+02 -0.42387E+05
 0.85749992E+02  0.14669E+05
 0.85799995E+02  0.67785E+05
 0.85849998E+02  0.89665E+05
 0.85899994E+02  0.60232E+05
 0.85949997E+02  0.23675E+05
 0.85999992E+02  0.29706E+05
 0.86049995E+02  0.44886E+05
 0.86099998E+02  0.39196E+05
 0.86149994E+02  0.27046E+05
 0.86199997E+02  0.58160E+04
 0.86249992E+02  0.19480E+04
 0.86299995E+02  0.21404E+05
 0.86349998E+02  0.18467E+05
 0.86399994E+02 -0.31940E+04
 0.86449997E+02 -0.25284E+05
 0.86499992E+02 -0.40276E+05
 0.86549995E+02 -0.24083E+05
 0.86599991E+02  0.30800E+05
 0.86649994E+02  0.67768E+05
 0.86699997E+02  0.30075E+05
 0.86749992E+02 -0.26968E+05
 0.86799995E+02 -0.26695E+05
 0.86849991E+02 -0.59650E+04
 0.86899994E+02 -0.11376E+05
 0.86949997E+02 -0.29469E+05
 0.86999992E+02 -0.58738E+05
 0.87049995E+02 -0.76739E+05
 0.87099991E+02 -0.51659E+05
 0.87149994E+02  0.81550E+04
 0.87199997E+02  0.79654E+05
 0.87249992E+02  0.13659E+06
 0.87299995E+02  0.15564E+06
 0.87349991E+02  0.14429E+06
 0.87399994E+02  0.13028E+06
 0.87449997E+02  0.10963E+06
 0.87499992E+02  0.95373E+05
 0.87549995E+02  0.99003E+05
 0.87599991E+02  0.70388E+05
 0.87649994E+02  0.62610E+04
 0.87699997E+02 -0.45824E+05
 0.87749992E+02 -0.65297E+05
 0.87799995E+02 -0.43272E+05
 0.87849991E+02 -0.43370E+04
 0.87899994E+02 -0.90990E+04
 0.87949997E+02 -0.54046E+05
 0.87999992E+02 -0.62939E+05
 0.88049995E+02 -0.23406E+05
 0.88099991E+02  0.21399E+05
 0.88149994E+02  0.62321E+05
 0.88199997E+02  0.83921E+05
 0.88249992E+02  0.78984E+05
 0.88299995E+02  0.65942E+05
 0.88349991E+02  0.36244E+05
 0.88399994E+02  0.12880E+04
 0.88449997E+02 -0.71590E+04
 0.88499992E+02 -0.37600E+03
 0.88549995E+02  0.85520E+04
 0.88599991E+02  0.61210E+04
 0.88649994E+02 -0.20400E+05
 0.88699997E+02 -0.43556E+05
 0.88749992E+02 -0.49105E+05
 0.88799995E+02 -0.36652E+05
 0.88849991E+02 -0.28430E+04
 0.88899994E+02  0.34594E+05
 0.88949997E+02  0.55543E+05
 0.88999992E+02  0.56209E+05
 0.89049995E+02  0.47455E+05
 0.89099991E+02  0.90690E+04
 0.89149994E+02 -0.57134E+05
 0.89199997E+02 -0.78095E+05
 0.89249992E+02 -0.47707E+05
 0.89299995E+02 -0.33045E+05
 0.89349991E+02 -0.44981E+05
 0.89399994E+02 -0.57631E+05
 0.89449997E+02 -0.56985E+05
 0.89499992E+02 -0.34252E+05
 0.89549995E+02 -0.20990E+04
 0.89599991E+02  0.32452E+05
 0.89649994E+02  0.62096E+05
 0.89699997E+02  0.58781E+05
 0.89749992E+02  0.29127E+05
 0.89799995E+02  0.70200E+04
 0.89849991E+02  0.97090E+04
 0.89899994E+02  0.15995E+05
 0.89949997E+02  0.61890E+04
 0.89999992E+02 -0.14013E+05
 0.90049995E+02 -0.45015E+05
 0.90099991E+02 -0.54831E+05
 0.90149994E+02 -0.20765E+05
 0.90199997E+02  0.21548E+05
 0.90249992E+02  0.49166E+05
 0.90299995E+02  0.69239E+05
 0.90349991E+02  0.75746E+05
 0.90399994E+02  0.67209E+05
 0.90449997E+02  0.67151E+05
 0.90499992E+02  0.75204E+05
 0.90549995E+02  0.78730E+05
 0.90599991E+02  0.64848E+05
 0.90649994E+02  0.38098E+05
 0.90699997E+02  0.23918E+05
 0.90749992E+02  0.16437E+05
 0.90799995E+02  0.72840E+04
 0.90849991E+02 -0.12638E+05
 0.90899994E+02 -0.29851E+05
 0.90949997E+02 -0.27227E+05
 0.90999992E+02 -0.34371E+05
 0.91049995E+02 -0.39195E+05
 0.91099991E+02 -0.78570E+04
 0.91149994E+02  0.38103E+05
 0.91199997E+02  0.56845E+05
 0.91249992E+02  0.34979E+05
 0.91299995E+02  0.20620E+04
 0.91349991E+02 -0.94940E+04
 0.91399994E+02  0.60890E+04
 0.91449997E+02  0.37599E+05
 0.91499992E+02  0.51893E+05
 0.91549995E+02  0.23266E+05
 0.91599991E+02 -0.26056E+05
 0.91649994E+02 -0.41065E+05
 0.91699997E+02 -0.35180E+04
 0.91749992E+02  0.39993E+05
 0.91799995E+02  0.43915E+05
 0.91849991E+02  0.60800E+04
 0.91899994E+02 -0.26424E+05
 0.91949997E+02 -0.13565E+05
 0.91999992E+02  0.20799E+05
 0.92049995E+02  0.42761E+05
 0.92099991E+02  0.54557E+05
 0.92149994E+02  0.55246E+05
 0.92199997E+02  0.41044E+05
 0.92249992E+02  0.31654E+05
 0.92299995E+02  0.22668E+05
 0.92349991E+02 -0.43240E+04
 0.92399994E+02 -0.38585E+05
 0.92449997E+02 -0.54305E+05
 0.92499992E+02 -0.54293E+05
 0.92549995E+02 -0.53113E+05
 0.92599991E+02 -0.37970E+05
 0.92649994E+02 -0.13396E+05
 0.92699997E+02  0.36440E+04
 0.92749992E+02  0.11951E+05
 0.92799995E+02  0.23680E+05
 0.92849991E+02  0.40605E+05
 0.92899994E+02  0.40371E+05
 0.92949997E+02  0.27260E+05
 0.92999992E+02  0.29559E+05
 0.93049995E+02  0.41846E+05
 0.93099991E+02  0.42546E+05
 0.93149994E+02  0.43697E+05
 0.93199997E+02  0.53957E+05
 0.93249992E+02  0.61491E+05
 0.93299995E+02  0.55178E+05
 0.93349991E+02  0.31492E+05
 0.93399994E+02  0.60810E+04
 0.93449997E+02 -0.50020E+04
 0.93499992E+02  0.56740E+04
 0.93549995E+02  0.20104E+05
 0.93599991E+02  0.23445E+05
 0.93649994E+02  0.30016E+05
 0.93699997E+02  0.41706E+05
 0.93749992E+02  0.47569E+05
 0.93799995E+02  0.43672E+05
 0.93849991E+02  0.42147E+05
 0.93899994E+02  0.48560E+05
 0.93949997E+02  0.49817E+05
 0.93999992E+02  0.35799E+05
 0.94049995E+02  0.14882E+05
 0.94099991E+02  0.14590E+04
 0.94149994E+02 -0.24460E+04
 0.94199997E+02  0.48100E+03
 0.94249992E+02  0.42160E+04
 0.94299995E+02  0.40150E+04
 0.94349991E+02 -0.27170E+04
 0.94399994E+02 -0.32310E+04
 0.94449997E+02  0.15573E+05
 0.94499992E+02  0.36553E+05
 0.94549995E+02  0.42239E+05
 0.94599991E+02  0.29537E+05
 0.94649994E+02  0.65530E+04
 0.94699997E+02 -0.10140E+05
 0.94749992E+02 -0.30330E+04
 0.94799995E+02  0.18941E+05
 0.94849991E+02  0.20881E+05
 0.94899994E+02  0.43930E+04
 0.94949997E+02 -0.14686E+05
 0.94999992E+02 -0.31863E+05
 0.95049995E+02 -0.34707E+05
 0.95099991E+02 -0.25885E+05
 0.95149994E+02 -0.15119E+05
 0.95199997E+02 -0.10715E+05
 0.95249992E+02 -0.17729E+05
 0.95299995E+02 -0.21826E+05
 0.95349991E+02 -0.56360E+04
 0.95399994E+02  0.23276E+05
 0.95449997E+02  0.42044E+05
 0.95499992E+02  0.40370E+05
 0.95549995E+02  0.24460E+05
 0.95599991E+02  0.82570E+04
 0.95649994E+02 -0.40700E+04
 0.95699997E+02 -0.13643E+05
 0.95749992E+02 -0.11482E+05
 0.95799995E+02  0.35340E+04
 0.95849991E+02  0.26277E+05
 0.95899994E+02  0.50405E+05
 0.95949997E+02  0.57616E+05
 0.95999992E+02  0.46859E+05
 0.96049995E+02  0.31248E+05
 0.96099991E+02  0.17820E+05
 0.96149994E+02  0.66660E+04
 0.96199997E+02 -0.44500E+03
 0.96249992E+02  0.12738E+05
 0.96299995E+02  0.28714E+05
 0.96349991E+02  0.24959E+05
 0.96399994E+02  0.13668E+05
 0.96449997E+02  0.16220E+04
 0.96499992E+02 -0.66780E+04
 0.96549995E+02 -0.16537E+05
 0.96599991E+02 -0.26905E+05
 0.96649994E+02 -0.27885E+05
 0.96699997E+02 -0.26593E+05
 0.96749992E+02 -0.15548E+05
 0.96799995E+02  0.11654E+05
 0.96849991E+02  0.29055E+05
 0.96899994E+02  0.28498E+05
 0.96949997E+02  0.30581E+05
 0.96999992E+02  0.34368E+05
 0.97049995E+02  0.30468E+05
 0.97099991E+02  0.21412E+05
 0.97149994E+02  0.10612E+05
 0.97199997E+02  0.28020E+04
 0.97249992E+02  0.19900E+04
 0.97299995E+02  0.69360E+04
 0.97349991E+02  0.52260E+04
 0.97399994E+02 -0.30520E+04
 0.97449997E+02 -0.44470E+04
 0.97499992E+02 -0.90340E+04
 0.97549995E+02 -0.22116E+05
 0.97599991E+02 -0.27288E+05
 0.97649994E+02 -0.23162E+05
 0.97699997E+02 -0.14671E+05
 0.97749992E+02 -0.14000E+03
 0.97799995E+02  0.12147E+05
 0.97849991E+02  0.14588E+05
 0.97899994E+02  0.17668E+05
 0.97949997E+02  0.32630E+05
 0.97999992E+02  0.53927E+05
 0.98049995E+02  0.67149E+05
 0.98099991E+02  0.64854E+05
 0.98149994E+02  0.51642E+05
 0.98199997E+02  0.33117E+05
 0.98249992E+02  0.18357E+05
 0.98299995E+02  0.17446E+05
 0.98349991E+02  0.22016E+05
 0.98399994E+02  0.21655E+05
 0.98449997E+02  0.17749E+05
 0.98499992E+02  0.12732E+05
 0.98549995E+02  0.11800E+05
 0.98599991E+02  0.20811E+05
 0.98649994E+02  0.35104E+05
 0.98699997E+02  0.43041E+05
 0.98749992E+02  0.46377E+05
 0.98799995E+02  0.43101E+05
 0.98849991E+02  0.26883E+05
 0.98899994E+02  0.16467E+05
 0.98949997E+02  0.18256E+05
 0.98999992E+02  0.17302E+05
 0.99049995E+02  0.10633E+05
 0.99099991E+02 -0.28160E+04
 0.99149994E+02 -0.13902E+05
 0.99199997E+02 -0.70710E+04
 0.99249992E+02  0.61830E+04
 0.99299995E+02  0.15850E+05
 0.99349991E+02  0.26431E+05
 0.99399994E+02  0.34487E+05
 0.99449997E+02  0.40386E+05
 0.99499992E+02  0.46097E+05
 0.99549995E+02  0.43820E+05
 0.99599991E+02  0.32880E+05
 0.99649994E+02  0.26938E+05
 0.99699997E+02  0.24462E+05
 0.99749992E+02  0.17781E+05
 0.99799995E+02  0.12852E+05
 0.99849991E+02  0.82210E+04
 0.99899994E+02  0.46260E+04
 0.99949997E+02  0.38050E+04
 0.99999992E+02 -0.27550E+04
 0.10005000E+03 -0.73140E+04
 0.10009999E+03 -0.16860E+04
 0.10014999E+03  0.40420E+04
 0.10020000E+03  0.49140E+04
 0.10024999E+03 -0.50000E+03
 0.10030000E+03 -0.94400E+04
 0.10034999E+03 -0.48180E+04
 0.10039999E+03  0.23450E+05
 0.10045000E+03  0.49612E+05
 0.10049999E+03  0.49667E+05
 0.10055000E+03  0.32356E+05
 0.10059999E+03  0.11862E+05
 0.10064999E+03  0.27160E+04
 0.10070000E+03  0.81100E+03
 0.10074999E+03 -0.72220E+04
 0.10080000E+03 -0.12562E+05
 0.10084999E+03 -0.90900E+04
 0.10089999E+03 -0.56960E+04
 0.10095000E+03 -0.85180E+04
 0.10099999E+03 -0.15367E+05
 0.10105000E+03 -0.20883E+05
 0.10109999E+03 -0.16074E+05
 0.10114999E+03 -0.32100E+04
 0.10120000E+03  0.20810E+04
 0.10124999E+03 -0.81900E+03
 0.10130000E+03 -0.93810E+04
 0.10134999E+03 -0.23325E+05
 0.10139999E+03 -0.29089E+05
 0.10145000E+03 -0.20800E+05
 0.10149999E+03 -0.72940E+04
 0.10155000E+03 -0.10200E+03
 0.10159999E+03 -0.87600E+03
 0.10164999E+03 -0.51730E+04
 0.10170000E+03 -0.11044E+05
 0.10174999E+03 -0.11470E+05
 0.10180000E+03 -0.79770E+04
 0.10184999E+03 -0.75170E+04
 0.10189999E+03 -0.99050E+04
 0.10195000E+03 -0.10124E+05
 0.10199999E+03 -0.75810E+04
 0.10205000E+03 -0.66610E+04
 0.10209999E+03  0.23680E+04
 0.10214999E+03  0.17817E+05
 0.10220000E+03  0.26628E+05
 0.10224999E+03  0.31122E+05
 0.10230000E+03  0.33537E+05
 0.10234999E+03  0.32169E+05
 0.10239999E+03  0.27878E+05
 0.10245000E+03  0.28427E+05
 0.10249999E+03  0.32233E+05
 0.10255000E+03  0.32769E+05
 0.10259999E+03  0.36422E+05
 0.10264999E+03  0.43451E+05
 0.10270000E+03  0.46274E+05
 0.10274999E+03  0.43335E+05
 0.10280000E+03  0.39123E+05
 0.10284999E+03  0.34161E+05
 0.10289999E+03  0.26173E+05
 0.10295000E+03  0.15722E+05
 0.10299999E+03  0.45280E+04
 0.10305000E+03 -0.31410E+04
 0.10309999E+03 -0.21880E+04
 0.10314999E+03  0.59570E+04
 0.10320000E+03  0.15183E+05
 0.10324999E+03  0.25613E+05
 0.10330000E+03  0.31795E+05
 0.10334999E+03  0.26301E+05
 0.10339999E+03  0.19173E+05
 0.10345000E+03  0.16190E+05
 0.10349999E+03  0.90290E+04
 0.10355000E+03  0.13170E+04
 0.10359999E+03  0.32460E+04
 0.10364999E+03  0.88160E+04
 0.10370000E+03  0.12163E+05
 0.10374999E+03  0.12823E+05
 0.10380000E+03  0.89640E+04
 0.10384999E+03  0.55810E+04
 0.10389999E+03  0.16200E+04
 0.10395000E+03 -0.28590E+04
 0.10399999E+03  0.10330E+04
 0.10405000E+03  0.87800E+04
 0.10409999E+03  0.10818E+05
 0.10414999E+03  0.11597E+05
 0.10420000E+03  0.12047E+05
 0.10424999E+03  0.61790E+04
 0.10430000E+03  0.32850E+04
 0.10434999E+03  0.81460E+04
 0.10439999E+03  0.10367E+05
 0.10445000E+03  0.75080E+04
 0.10449999E+03  0.44220E+04
 0.10455000E+03  0.43660E+04
 0.10459999E+03  0.51240E+04
 0.10464999E+03  0.39790E+04
 0.10470000E+03  0.41530E+04
 0.10474999E+03  0.82790E+04
 0.10480000E+03  0.13772E+05
 0.10484999E+03  0.19377E+05
 0.10489999E+03  0.28337E+05
 0.10495000E+03  0.34382E+05
 0.10499999E+03  0.29510E+05
 0.10505000E+03  0.22774E+05
 0.10509999E+03  0.23045E+05
 0.10514999E+03  0.28894E+05
 0.10520000E+03  0.30969E+05
 0.10524999E+03  0.21920E+05
 0.10530000E+03  0.10431E+05
 0.10534999E+03  0.24620E+04
 0.10539999E+03 -0.46320E+04
 0.10545000E+03 -0.65070E+04
 0.10549999E+03  0.18700E+03
 0.10555000E+03  0.79190E+04
 0.10559999E+03  0.94040E+04
 0.10564999E+03  0.76290E+04
 0.10570000E+03  0.72920E+04
 0.10574999E+03  0.52170E+04
 0.10580000E+03  0.14780E+04
 0.10584999E+03  0.23480E+04
 0.10589999E+03  0.57870E+04
 0.10595000E+03  0.73480E+04
 0.10599999E+03  0.10969E+05
 0.10605000E+03  0.19553E+05
 0.10609999E+03  0.28364E+05
 0.10614999E+03  0.36210E+05
 0.10620000E+03  0.41223E+05
 0.10624999E+03  0.37163E+05
 0.10630000E+03  0.27343E+05
 0.10634999E+03  0.17626E+05
 0.10639999E+03  0.59600E+04
 0.10645000E+03 -0.11960E+05
 0.10649999E+03 -0.25772E+05
 0.10655000E+03 -0.21738E+05
 0.10659999E+03 -0.12855E+05
 0.10664999E+03 -0.15388E+05
 0.10670000E+03 -0.22930E+05
 0.10674999E+03 -0.24090E+05
 0.10680000E+03 -0.12836E+05
 0.10684999E+03  0.10520E+05
 0.10689999E+03  0.32559E+05
 0.10695000E+03  0.40499E+05
 0.10699999E+03  0.38716E+05
 0.10705000E+03  0.34434E+05
 0.10709999E+03  0.29329E+05
 0.10714999E+03  0.22672E+05
 0.10720000E+03  0.93110E+04
 0.10724999E+03 -0.58970E+04
 0.10730000E+03 -0.12375E+05
 0.10734999E+03 -0.11916E+05
 0.10739999E+03 -0.90940E+04
 0.10745000E+03 -0.49350E+04
 0.10749999E+03  0.12740E+04
 0.10755000E+03  0.95720E+04
 0.10759999E+03  0.16048E+05
 0.10764999E+03  0.16575E+05
 0.10770000E+03  0.14726E+05
 0.10774999E+03  0.17043E+05
 0.10780000E+03  0.20840E+05
 0.10784999E+03  0.21324E+05
 0.10789999E+03  0.14502E+05
 0.10795000E+03  0.24270E+04
 0.10799999E+03 -0.32730E+04
 0.10805000E+03  0.17430E+04
 0.10809999E+03  0.14148E+05
 0.10814999E+03  0.26906E+05
 0.10820000E+03  0.29621E+05
 0.10824999E+03  0.20171E+05
 0.10830000E+03  0.10113E+05
 0.10834999E+03  0.74940E+04
 0.10839999E+03  0.89550E+04
 0.10845000E+03  0.10756E+05
 0.10849999E+03  0.91560E+04
 0.10855000E+03  0.57190E+04
 0.10859999E+03  0.34060E+04
 0.10864999E+03 -0.10810E+04
 0.10870000E+03 -0.53280E+04
 0.10874999E+03 -0.28570E+04
 0.10880000E+03  0.41090E+04
 0.10884999E+03  0.13220E+05
 0.10889999E+03  0.24631E+05
 0.10895000E+03  0.29872E+05
 0.10899999E+03  0.27970E+05
 0.10905000E+03  0.28585E+05
 0.10909999E+03  0.35340E+05
 0.10914999E+03  0.41877E+05
 0.10920000E+03  0.39229E+05
 0.10924999E+03  0.25265E+05
 0.10930000E+03  0.69500E+04
 0.10934999E+03 -0.15500E+04
 0.10939999E+03 -0.15390E+04
 0.10945000E+03 -0.26680E+04
 0.10949999E+03 -0.67880E+04
 0.10955000E+03 -0.10803E+05
 0.10959999E+03 -0.50670E+04
 0.10964999E+03  0.88180E+04
 0.10970000E+03  0.22353E+05
 0.10974999E+03  0.31593E+05
 0.10980000E+03  0.38542E+05
 0.10984999E+03  0.41399E+05
 0.10989999E+03  0.34588E+05
 0.10995000E+03  0.24668E+05
 0.10999999E+03  0.16311E+05
 0.11005000E+03  0.93310E+04
 0.11009999E+03  0.44280E+04
 0.11014999E+03  0.28600E+03
 0.11020000E+03 -0.47590E+04
 0.11024999E+03 -0.86860E+04
 0.11030000E+03 -0.12312E+05
 0.11034999E+03 -0.13726E+05
 0.11039999E+03 -0.79020E+04
 0.11045000E+03 -0.12140E+04
 0.11049999E+03  0.45960E+04
 0.11055000E+03  0.98800E+04
 0.11059999E+03  0.16192E+05
 0.11064999E+03  0.24533E+05
 0.11070000E+03  0.28174E+05
 0.11074999E+03  0.25397E+05
 0.11080000E+03  0.18909E+05
 0.11084999E+03  0.14460E+05
 0.11089999E+03  0.10056E+05
 0.11095000E+03  0.36370E+04
 0.11099999E+03 -0.13090E+04
 0.11105000E+03 -0.45710E+04
 0.11109999E+03 -0.46170E+04
 0.11114999E+03  0.23940E+04
 0.11120000E+03  0.15711E+05
 0.11124999E+03  0.23641E+05
 0.11130000E+03  0.21905E+05
 0.11134999E+03  0.17303E+05
 0.11139999E+03  0.15464E+05
 0.11145000E+03  0.17730E+05
 0.11149999E+03  0.22775E+05
 0.11155000E+03  0.25460E+05
 0.11159999E+03  0.21909E+05
 0.11164999E+03  0.14424E+05
 0.11170000E+03  0.14960E+04
 0.11174999E+03 -0.10037E+05
 0.11180000E+03 -0.10415E+05
 0.11184999E+03 -0.38890E+04
 0.11189999E+03  0.18280E+04
 0.11195000E+03  0.52810E+04
 0.11199999E+03  0.87900E+04
 0.11205000E+03  0.13603E+05
 0.11209999E+03  0.18627E+05
 0.11214999E+03  0.16873E+05
 0.11220000E+03  0.96960E+04
 0.11224999E+03  0.89030E+04
 0.11230000E+03  0.15129E+05
 0.11234999E+03  0.17813E+05
 0.11239999E+03  0.13073E+05
 0.11244999E+03  0.89680E+04
 0.11249999E+03  0.11900E+05
 0.11255000E+03  0.18113E+05
 0.11259999E+03  0.20125E+05
 0.11264999E+03  0.17788E+05
 0.11269999E+03  0.14790E+05
 0.11274999E+03  0.12965E+05
 0.11280000E+03  0.13859E+05
 0.11284999E+03  0.13648E+05
 0.11289999E+03  0.12564E+05
 0.11294999E+03  0.16894E+05
 0.11299999E+03  0.24149E+05
 0.11305000E+03  0.30507E+05
 0.11309999E+03  0.34827E+05
 0.11314999E+03  0.36553E+05
 0.11319999E+03  0.35200E+05
 0.11324999E+03  0.28588E+05
 0.11330000E+03  0.22688E+05
 0.11334999E+03  0.20235E+05
 0.11339999E+03  0.14461E+05
 0.11344999E+03  0.53920E+04
 0.11349999E+03 -0.10640E+04
 0.11355000E+03 -0.41180E+04
 0.11359999E+03 -0.65060E+04
 0.11364999E+03 -0.15280E+04
 0.11369999E+03  0.13376E+05
 0.11374999E+03  0.25695E+05
 0.11380000E+03  0.29367E+05
 0.11384999E+03  0.28268E+05
 0.11389999E+03  0.27647E+05
 0.11394999E+03  0.30934E+05
 0.11399999E+03  0.32882E+05
 0.11405000E+03  0.27228E+05
 0.11409999E+03  0.17523E+05
 0.11414999E+03  0.79300E+04
 0.11419999E+03 -0.21300E+03
 0.11424999E+03 -0.34380E+04
 0.11430000E+03  0.12550E+04
 0.11434999E+03  0.12093E+05
 0.11439999E+03  0.19885E+05
 0.11444999E+03  0.18475E+05
 0.11449999E+03  0.10477E+05
 0.11455000E+03  0.10070E+04
 0.11459999E+03 -0.20310E+04
 0.11464999E+03  0.46170E+04
 0.11469999E+03  0.12587E+05
 0.11474999E+03  0.13644E+05
 0.11480000E+03  0.89090E+04
 0.11484999E+03  0.27190E+04
 0.11489999E+03 -0.12180E+04
 0.11494999E+03 -0.13710E+04
 0.11499999E+03 -0.31000E+03
 0.11505000E+03  0.69200E+03
 0.11509999E+03  0.60000E+02
 0.11514999E+03 -0.41120E+04
 0.11519999E+03 -0.53860E+04
 0.11524999E+03 -0.72000E+02
 0.11530000E+03  0.62270E+04
 0.11534999E+03  0.14177E+05
 0.11539999E+03  0.23567E+05
 0.11544999E+03  0.28058E+05
 0.11549999E+03  0.28942E+05
 0.11555000E+03  0.28411E+05
 0.11559999E+03  0.25577E+05
 0.11564999E+03  0.23180E+05
 0.11569999E+03  0.21493E+05
 0.11574999E+03  0.16346E+05
 0.11580000E+03  0.86220E+04
 0.11584999E+03  0.25600E+04
 0.11589999E+03 -0.46500E+03
 0.11594999E+03  0.27020E+04
 0.11599999E+03  0.11260E+05
 0.11605000E+03  0.17051E+05
 0.11609999E+03  0.15899E+05
 0.11614999E+03  0.11910E+05
 0.11619999E+03  0.10903E+05
 0.11624999E+03  0.11498E+05
 0.11630000E+03  0.12958E+05
 0.11634999E+03  0.16587E+05
 0.11639999E+03  0.18747E+05
 0.11644999E+03  0.17530E+05
 0.11649999E+03  0.12368E+05
 0.11655000E+03  0.59850E+04
 0.11659999E+03  0.47090E+04
 0.11664999E+03  0.10070E+05
 0.11669999E+03  0.14702E+05
 0.11674999E+03  0.14624E+05
 0.11680000E+03  0.16770E+05
 0.11684999E+03  0.19207E+05
 0.11689999E+03  0.17798E+05
 0.11694999E+03  0.16723E+05
 0.11699999E+03  0.16030E+05
 0.11705000E+03  0.16202E+05
 0.11709999E+03  0.17680E+05
 0.11714999E+03  0.17647E+05
 0.11719999E+03  0.15668E+05
 0.11724999E+03  0.12903E+05
 0.11730000E+03  0.10023E+05
 0.11734999E+03  0.73860E+04
 0.11739999E+03  0.76180E+04
 0.11744999E+03  0.13237E+05
 0.11749999E+03  0.20004E+05
 0.11755000E+03  0.22530E+05
 0.11759999E+03  0.23592E+05
 0.11764999E+03  0.23685E+05
 0.11769999E+03  0.18131E+05
 0.11774999E+03  0.12464E+05
 0.11780000E+03  0.13557E+05
 0.11784999E+03  0.16907E+05
 0.11789999E+03  0.15767E+05
 0.11794999E+03  0.96530E+04
 0.11799999E+03  0.61540E+04
 0.11805000E+03  0.81080E+04
 0.11809999E+03  0.79850E+04
 0.11814999E+03  0.38500E+04
 0.11819999E+03  0.21610E+04
 0.11824999E+03  0.77150E+04
 0.11830000E+03  0.17411E+05
 0.11834999E+03  0.22259E+05
 0.11839999E+03  0.18395E+05
 0.11844999E+03  0.12411E+05
 0.11849999E+03  0.10428E+05
 0.11855000E+03  0.10841E+05
 0.11859999E+03  0.10029E+05
 0.11864999E+03  0.61830E+04
 0.11869999E+03  0.19030E+04
 0.11874999E+03 -0.37900E+03
 0.11880000E+03 -0.15480E+04
 0.11884999E+03  0.80100E+03
 0.11889999E+03  0.56040E+04
 0.11894999E+03  0.57800E+04
 0.11899999E+03  0.48960E+04
 0.11905000E+03  0.12102E+05
 0.11909999E+03  0.21964E+05
 0.11914999E+03  0.24451E+05
 0.11919999E+03  0.23313E+05
 0.11924999E+03  0.25819E+05
 0.11930000E+03  0.29910E+05
 0.11934999E+03  0.28537E+05
 0.11939999E+03  0.20161E+05
 0.11944999E+03  0.11895E+05
 0.11949999E+03  0.50750E+04
 0.11955000E+03 -0.29940E+04
 0.11959999E+03 -0.76870E+04
 0.11964999E+03 -0.72230E+04
 0.11969999E+03 -0.50420E+04
 0.11974999E+03 -0.26910E+04
 0.11980000E+03  0.22050E+04
 0.11984999E+03  0.13106E+05
 0.11989999E+03  0.27249E+05
 0.11994999E+03  0.36102E+05
 0.11999999E+03  0.34649E+05
 0.12005000E+03  0.27227E+05
 0.12009999E+03  0.21263E+05
 0.12014999E+03  0.18418E+05
 0.12019999E+03  0.16168E+05
 0.12024999E+03  0.12298E+05
 0.12030000E+03  0.69920E+04
 0.12034999E+03  0.15890E+04
 0.12039999E+03 -0.11730E+04
 0.12044999E+03  0.19880E+04
 0.12049999E+03  0.60280E+04
 0.12055000E+03  0.47040E+04
 0.12059999E+03 -0.10900E+03
 0.12064999E+03 -0.29180E+04
 0.12069999E+03  0.36500E+03
 0.12074999E+03  0.81890E+04
 0.12080000E+03  0.16845E+05
 0.12084999E+03  0.22522E+05
 0.12089999E+03  0.24725E+05
 0.12094999E+03  0.25197E+05
 0.12099999E+03  0.23779E+05
 0.12105000E+03  0.23930E+05
 0.12109999E+03  0.26766E+05
 0.12114999E+03  0.26159E+05
 0.12119999E+03  0.19222E+05
 0.12124999E+03  0.96590E+04
 0.12130000E+03  0.30410E+04
 0.12134999E+03  0.22180E+04
 0.12139999E+03  0.28600E+04
 0.12144999E+03  0.27600E+03
 0.12149999E+03 -0.23050E+04
 0.12155000E+03  0.64000E+03
 0.12159999E+03  0.80530E+04
 0.12164999E+03  0.14255E+05
 0.12169999E+03  0.17602E+05
 0.12174999E+03  0.18188E+05
 0.12180000E+03  0.14322E+05
 0.12184999E+03  0.63240E+04
 0.12189999E+03 -0.89300E+03
 0.12194999E+03 -0.21240E+04
 0.12199999E+03  0.49500E+03
 0.12205000E+03  0.32800E+04
 0.12209999E+03  0.69640E+04
 0.12214999E+03  0.95610E+04
 0.12219999E+03  0.78170E+04
 0.12224999E+03  0.50040E+04
 0.12230000E+03  0.51600E+04
 0.12234999E+03  0.76440E+04
 0.12239999E+03  0.10025E+05
 0.12244999E+03  0.10218E+05
 0.12249999E+03  0.10642E+05
 0.12255000E+03  0.12698E+05
 0.12259999E+03  0.12795E+05
 0.12264999E+03  0.10829E+05
 0.12269999E+03  0.85120E+04
 0.12274999E+03  0.82760E+04
 0.12280000E+03  0.12267E+05
 0.12284999E+03  0.15946E+05
 0.12289999E+03  0.16048E+05
 0.12294999E+03  0.16307E+05
 0.12299999E+03  0.18952E+05
 0.12305000E+03  0.20284E+05
 0.12309999E+03  0.18926E+05
 0.12314999E+03  0.17562E+05
 0.12319999E+03  0.13411E+05
 0.12324999E+03  0.80000E+04
 0.12330000E+03  0.94420E+04
 0.12334999E+03  0.15351E+05
 0.12339999E+03  0.18794E+05
 0.12344999E+03  0.18292E+05
 0.12349999E+03  0.15573E+05
 0.12355000E+03  0.11295E+05
 0.12359999E+03  0.71880E+04
 0.12364999E+03  0.82490E+04
 0.12369999E+03  0.12060E+05
 0.12374999E+03  0.11442E+05
 0.12380000E+03  0.58250E+04
 0.12384999E+03  0.32880E+04
 0.12389999E+03  0.88440E+04
 0.12394999E+03  0.16235E+05
 0.12399999E+03  0.20350E+05
 0.12405000E+03  0.20443E+05
 0.12409999E+03  0.19995E+05
 0.12414999E+03  0.22499E+05
 0.12419999E+03  0.25261E+05
 0.12424999E+03  0.26363E+05
 0.12430000E+03  0.23023E+05
 0.12434999E+03  0.14380E+05
 0.12439999E+03  0.54110E+04
 0.12444999E+03  0.11910E+04
 0.12449999E+03  0.22390E+04
 0.12455000E+03  0.31730E+04
 0.12459999E+03  0.21100E+04
 0.12464999E+03  0.34800E+03
 0.12469999E+03 -0.11390E+04
 0.12474999E+03 -0.45700E+03
 0.12480000E+03  0.52900E+03
 0.12484999E+03  0.30420E+04
 0.12489999E+03  0.99070E+04
 0.12494999E+03  0.18249E+05
 0.12499999E+03  0.24063E+05
 0.12504999E+03  0.24198E+05
 0.12509999E+03  0.21454E+05
 0.12514999E+03  0.20402E+05
 0.12520000E+03  0.19195E+05
 0.12524998E+03  0.17126E+05
 0.12529999E+03  0.16116E+05
 0.12534999E+03  0.14819E+05
 0.12539999E+03  0.12843E+05
 0.12545000E+03  0.12956E+05
 0.12549998E+03  0.14134E+05
 0.12554999E+03  0.13593E+05
 0.12559999E+03  0.12779E+05
 0.12564999E+03  0.13821E+05
 0.12570000E+03  0.16846E+05
 0.12574998E+03  0.20707E+05
 0.12579999E+03  0.22484E+05
 0.12584999E+03  0.20340E+05
 0.12589999E+03  0.16147E+05
 0.12595000E+03  0.11708E+05
 0.12599998E+03  0.76710E+04
 0.12604999E+03  0.39610E+04
 0.12609999E+03 -0.93200E+03
 0.12614999E+03 -0.64500E+04
 0.12620000E+03 -0.10002E+05
 0.12624998E+03 -0.92090E+04
 0.12629999E+03 -0.41920E+04
 0.12634999E+03  0.19640E+04
 0.12639999E+03  0.89720E+04
 0.12645000E+03  0.18169E+05
 0.12649998E+03  0.27737E+05
 0.12654999E+03  0.33624E+05
 0.12659999E+03  0.32260E+05
 0.12664999E+03  0.24696E+05
 0.12670000E+03  0.15298E+05
 0.12674998E+03  0.62630E+04
 0.12679999E+03 -0.20230E+04
 0.12684999E+03 -0.75090E+04
 0.12689999E+03 -0.80090E+04
 0.12695000E+03 -0.44300E+04
 0.12699998E+03  0.12560E+04
 0.12704999E+03  0.80240E+04
 0.12709999E+03  0.15543E+05
 0.12714999E+03  0.23195E+05
 0.12720000E+03  0.29055E+05
 0.12724998E+03  0.31483E+05
 0.12729999E+03  0.29559E+05
 0.12734999E+03  0.23934E+05
 0.12739999E+03  0.19481E+05
 0.12745000E+03  0.19293E+05
 0.12749998E+03  0.19771E+05
 0.12754999E+03  0.17907E+05
 0.12759999E+03  0.14205E+05
 0.12764999E+03  0.11077E+05
 0.12770000E+03  0.10094E+05
 0.12774998E+03  0.92580E+04
 0.12779999E+03  0.81240E+04
 0.12784999E+03  0.86390E+04
 0.12789999E+03  0.11200E+05
 0.12795000E+03  0.14676E+05
 0.12799998E+03  0.18171E+05
 0.12804999E+03  0.19175E+05
 0.12809999E+03  0.17002E+05
 0.12814999E+03  0.17340E+05
 0.12820000E+03  0.20024E+05
 0.12824998E+03  0.19641E+05
 0.12829999E+03  0.16129E+05
 0.12834999E+03  0.10267E+05
 0.12839999E+03  0.39040E+04
 0.12845000E+03 -0.90500E+03
 0.12849998E+03 -0.43720E+04
 0.12854999E+03 -0.52990E+04
 0.12859999E+03 -0.48680E+04
 0.12864999E+03 -0.36360E+04
 0.12870000E+03  0.19900E+04
 0.12874998E+03  0.93070E+04
 0.12879999E+03  0.12363E+05
 0.12884999E+03  0.12763E+05
 0.12889999E+03  0.14468E+05
 0.12895000E+03  0.16242E+05
 0.12899998E+03  0.14430E+05
 0.12904999E+03  0.89220E+04
 0.12909999E+03  0.41430E+04
 0.12914999E+03  0.19380E+04
 0.12920000E+03  0.87600E+03
 0.12924998E+03  0.25600E+04
 0.12929999E+03  0.67260E+04
 0.12934999E+03  0.10175E+05
 0.12939999E+03  0.13256E+05
 0.12945000E+03  0.17392E+05
 0.12949998E+03  0.20221E+05
 0.12954999E+03  0.19678E+05
 0.12959999E+03  0.18597E+05
 0.12964999E+03  0.19364E+05
 0.12970000E+03  0.19017E+05
 0.12974998E+03  0.15677E+05
 0.12979999E+03  0.14026E+05
 0.12984999E+03  0.15936E+05
 0.12989999E+03  0.17023E+05
 0.12995000E+03  0.16891E+05
 0.12999998E+03  0.18676E+05
 0.13004999E+03  0.19749E+05
 0.13009999E+03  0.16400E+05
 0.13014999E+03  0.12174E+05
 0.13020000E+03  0.10026E+05
 0.13024998E+03  0.89050E+04
 0.13029999E+03  0.78830E+04
 0.13034999E+03  0.60840E+04
 0.13039999E+03  0.58480E+04
 0.13045000E+03  0.10151E+05
 0.13049998E+03  0.16471E+05
 0.13054999E+03  0.20506E+05
 0.13059999E+03  0.20982E+05
 0.13064999E+03  0.19084E+05
 0.13070000E+03  0.18078E+05
 0.13074998E+03  0.19217E+05
 0.13079999E+03  0.18233E+05
 0.13084999E+03  0.13445E+05
 0.13089999E+03  0.85700E+04
 0.13095000E+03  0.58100E+04
 0.13099998E+03  0.51270E+04
 0.13104999E+03  0.69870E+04
 0.13109999E+03  0.12003E+05
 0.13114999E+03  0.18695E+05
 0.13120000E+03  0.23031E+05
 0.13124998E+03  0.21910E+05
 0.13129999E+03  0.16454E+05
 0.13134999E+03  0.94970E+04
 0.13139999E+03  0.29890E+04
 0.13145000E+03 -0.63600E+03
 0.13149998E+03 -0.67200E+03
 0.13154999E+03 -0.23400E+03
 0.13159999E+03 -0.14410E+04
 0.13164999E+03 -0.23930E+04
 0.13170000E+03 -0.14420E+04
 0.13174998E+03  0.19500E+03
 0.13179999E+03  0.58500E+03
 0.13184999E+03  0.27600E+03
 0.13189999E+03  0.16270E+04
 0.13195000E+03  0.39460E+04
 0.13199998E+03  0.65690E+04
 0.13204999E+03  0.10115E+05
 0.13209999E+03  0.11436E+05
 0.13214999E+03  0.96460E+04
 0.13220000E+03  0.96510E+04
 0.13224998E+03  0.13772E+05
 0.13229999E+03  0.17583E+05
 0.13234999E+03  0.18316E+05
 0.13239999E+03  0.18362E+05
 0.13245000E+03  0.17238E+05
 0.13249998E+03  0.14932E+05
 0.13254999E+03  0.14551E+05
 0.13259999E+03  0.16373E+05
 0.13264999E+03  0.17886E+05
 0.13270000E+03  0.16261E+05
 0.13274998E+03  0.12352E+05
 0.13279999E+03  0.87040E+04
 0.13284999E+03  0.68790E+04
 0.13289999E+03  0.81250E+04
 0.13295000E+03  0.10388E+05
 0.13299998E+03  0.11413E+05
 0.13304999E+03  0.11223E+05
 0.13309999E+03  0.10221E+05
 0.13314999E+03  0.97890E+04
 0.13320000E+03  0.10018E+05
 0.13324998E+03  0.84260E+04
 0.13329999E+03  0.49730E+04
 0.13334999E+03  0.27890E+04
 0.13339999E+03  0.30810E+04
 0.13345000E+03  0.58010E+04
 0.13349998E+03  0.10009E+05
 0.13354999E+03  0.13534E+05
 0.13359999E+03  0.16743E+05
 0.13364999E+03  0.19619E+05
 0.13370000E+03  0.19884E+05
 0.13374998E+03  0.17781E+05
 0.13379999E+03  0.15298E+05
 0.13384999E+03  0.13309E+05
 0.13389999E+03  0.12561E+05
 0.13395000E+03  0.14176E+05
 0.13399998E+03  0.17553E+05
 0.13404999E+03  0.19483E+05
 0.13409999E+03  0.17637E+05
 0.13414999E+03  0.14109E+05
 0.13420000E+03  0.13204E+05
 0.13424998E+03  0.15907E+05
 0.13429999E+03  0.20114E+05
 0.13434999E+03  0.22717E+05
 0.13439999E+03  0.21161E+05
 0.13445000E+03  0.17439E+05
 0.13449998E+03  0.14183E+05
 0.13454999E+03  0.11289E+05
 0.13459999E+03  0.90900E+04
 0.13464999E+03  0.81310E+04
 0.13470000E+03  0.94650E+04
 0.13474998E+03  0.13381E+05
 0.13479999E+03  0.17583E+05
 0.13484999E+03  0.20063E+05
 0.13489999E+03  0.21386E+05
 0.13495000E+03  0.22860E+05
 0.13499998E+03  0.23687E+05
 0.13504999E+03  0.22298E+05
 0.13509999E+03  0.19175E+05
 0.13514999E+03  0.16415E+05
 0.13520000E+03  0.14431E+05
 0.13524998E+03  0.11928E+05
 0.13529999E+03  0.95950E+04
 0.13534999E+03  0.82870E+04
 0.13539999E+03  0.77360E+04
 0.13545000E+03  0.95200E+04
 0.13549998E+03  0.13985E+05
 0.13554999E+03  0.16279E+05
 0.13559999E+03  0.13277E+05
 0.13564999E+03  0.98360E+04
 0.13570000E+03  0.10690E+05
 0.13574998E+03  0.14349E+05
 0.13579999E+03  0.16637E+05
 0.13584999E+03  0.15321E+05
 0.13589999E+03  0.13504E+05
 0.13595000E+03  0.14164E+05
 0.13599998E+03  0.15000E+05
 0.13604999E+03  0.15059E+05
 0.13609999E+03  0.16496E+05
 0.13614999E+03  0.17969E+05
 0.13620000E+03  0.16779E+05
 0.13624998E+03  0.13688E+05
 0.13629999E+03  0.10680E+05
 0.13634999E+03  0.96870E+04
 0.13639999E+03  0.11010E+05
 0.13645000E+03  0.12718E+05
 0.13649998E+03  0.13539E+05
 0.13654999E+03  0.12459E+05
 0.13659999E+03  0.89790E+04
 0.13664999E+03  0.56970E+04
 0.13670000E+03  0.52650E+04
 0.13674998E+03  0.70880E+04
 0.13679999E+03  0.97840E+04
 0.13684999E+03  0.11626E+05
 0.13689999E+03  0.11209E+05
 0.13695000E+03  0.93180E+04
 0.13699998E+03  0.76360E+04
 0.13704999E+03  0.73260E+04
 0.13709999E+03  0.79700E+04
 0.13714999E+03  0.95520E+04
 0.13720000E+03  0.12013E+05
 0.13724998E+03  0.12126E+05
 0.13729999E+03  0.86530E+04
 0.13734999E+03  0.56850E+04
 0.13739999E+03  0.61020E+04
 0.13745000E+03  0.86350E+04
 0.13749998E+03  0.10820E+05
 0.13754999E+03  0.10839E+05
 0.13759999E+03  0.89700E+04
 0.13764999E+03  0.68380E+04
 0.13770000E+03  0.57890E+04
 0.13774998E+03  0.69170E+04
 0.13779999E+03  0.94670E+04
 0.13784999E+03  0.10637E+05
 0.13789999E+03  0.97060E+04
 0.13795000E+03  0.86740E+04
 0.13799998E+03  0.73770E+04
 0.13804999E+03  0.49430E+04
 0.13809999E+03  0.44200E+04
 0.13814999E+03  0.75090E+04
 0.13820000E+03  0.10750E+05
 0.13824998E+03  0.10026E+05
 0.13829999E+03  0.45030E+04
 0.13834999E+03 -0.18660E+04
 0.13839999E+03 -0.39600E+04
 0.13845000E+03 -0.42200E+03
 0.13849998E+03  0.63150E+04
 0.13854999E+03  0.11787E+05
 0.13859999E+03  0.12668E+05
 0.13864999E+03  0.11807E+05
 0.13870000E+03  0.13529E+05
 0.13874998E+03  0.15342E+05
 0.13879999E+03  0.15412E+05
 0.13884999E+03  0.16399E+05
 0.13889999E+03  0.17488E+05
 0.13895000E+03  0.16027E+05
 0.13899998E+03  0.12666E+05
 0.13904999E+03  0.10021E+05
 0.13909999E+03  0.92650E+04
 0.13914999E+03  0.92740E+04
 0.13920000E+03  0.89950E+04
 0.13924998E+03  0.85620E+04
 0.13929999E+03  0.96180E+04
 0.13934999E+03  0.12992E+05
 0.13939999E+03  0.15756E+05
 0.13945000E+03  0.15055E+05
 0.13949998E+03  0.12593E+05
 0.13954999E+03  0.11408E+05
 0.13959999E+03  0.10974E+05
 0.13964999E+03  0.10177E+05
 0.13970000E+03  0.95510E+04
 0.13974998E+03  0.93440E+04
 0.13979999E+03  0.11022E+05
 0.13984999E+03  0.15918E+05
 0.13989999E+03  0.22228E+05
 0.13995000E+03  0.26047E+05
 0.13999998E+03  0.24952E+05
 0.14004999E+03  0.21133E+05
 0.14009999E+03  0.17655E+05
 0.14014999E+03  0.14394E+05
 0.14020000E+03  0.10943E+05
 0.14024998E+03  0.83680E+04
 0.14029999E+03  0.77060E+04
 0.14034999E+03  0.99900E+04
 0.14039999E+03  0.14692E+05
 0.14045000E+03  0.19214E+05
 0.14049998E+03  0.22837E+05
 0.14054999E+03  0.24899E+05
 0.14059999E+03  0.24247E+05
 0.14064999E+03  0.23753E+05
 0.14070000E+03  0.24754E+05
 0.14074998E+03  0.23948E+05
 0.14079999E+03  0.20685E+05
 0.14084999E+03  0.17628E+05
 0.14089999E+03  0.15545E+05
 0.14095000E+03  0.13268E+05
 0.14099998E+03  0.11197E+05
 0.14104999E+03  0.99250E+04
 0.14109999E+03  0.82070E+04
 0.14114999E+03  0.58110E+04
 0.14120000E+03  0.39320E+04
 0.14124998E+03  0.39940E+04
 0.14129999E+03  0.70880E+04
 0.14134999E+03  0.11721E+05
 0.14139999E+03  0.14688E+05
 0.14145000E+03  0.15004E+05
 0.14149998E+03  0.14242E+05
 0.14154999E+03  0.13918E+05
 0.14159999E+03  0.15189E+05
 0.14164999E+03  0.17053E+05
 0.14170000E+03  0.16389E+05
 0.14174998E+03  0.14111E+05
 0.14179999E+03  0.12545E+05
 0.14184999E+03  0.11008E+05
 0.14189999E+03  0.93980E+04
 0.14195000E+03  0.72320E+04
 0.14199998E+03  0.42610E+04
 0.14204999E+03  0.31160E+04
 0.14209999E+03  0.48240E+04
 0.14214999E+03  0.72440E+04
 0.14220000E+03  0.93300E+04
 0.14224998E+03  0.10944E+05
 0.14229999E+03  0.11025E+05
 0.14234999E+03  0.10408E+05
 0.14239999E+03  0.10708E+05
 0.14245000E+03  0.12097E+05
 0.14249998E+03  0.13949E+05
 0.14254999E+03  0.14153E+05
 0.14259999E+03  0.11335E+05
 0.14264999E+03  0.59200E+04
 0.14270000E+03 -0.32000E+02
 0.14274998E+03 -0.34330E+04
 0.14279999E+03 -0.38910E+04
 0.14284999E+03 -0.28100E+04
 0.14289999E+03 -0.17000E+02
 0.14295000E+03  0.46400E+04
 0.14299998E+03  0.94850E+04
 0.14304999E+03  0.13647E+05
 0.14309999E+03  0.17047E+05
 0.14314999E+03  0.18973E+05
 0.14320000E+03  0.19916E+05
 0.14324998E+03  0.20067E+05
 0.14329999E+03  0.19074E+05
 0.14334999E+03  0.17453E+05
 0.14339999E+03  0.14973E+05
 0.14345000E+03  0.11977E+05
 0.14349998E+03  0.92940E+04
 0.14354999E+03  0.74120E+04
 0.14359999E+03  0.70280E+04
 0.14364999E+03  0.69400E+04
 0.14370000E+03  0.68490E+04
 0.14374998E+03  0.87400E+04
 0.14379999E+03  0.12051E+05
 0.14384999E+03  0.14269E+05
 0.14389999E+03  0.14642E+05
 0.14395000E+03  0.14728E+05
 0.14399998E+03  0.15078E+05
 0.14404999E+03  0.14068E+05
 0.14409999E+03  0.11975E+05
 0.14414999E+03  0.10249E+05
 0.14420000E+03  0.83210E+04
 0.14424998E+03  0.59460E+04
 0.14429999E+03  0.49760E+04
 0.14434999E+03  0.71400E+04
 0.14439999E+03  0.11241E+05
 0.14445000E+03  0.14643E+05
 0.14449998E+03  0.16275E+05
 0.14454999E+03  0.15821E+05
 0.14459999E+03  0.13994E+05
 0.14464999E+03  0.12388E+05
 0.14470000E+03  0.11700E+05
 0.14474998E+03  0.11950E+05
 0.14479999E+03  0.11907E+05
 0.14484999E+03  0.11033E+05
 0.14489999E+03  0.10628E+05
 0.14495000E+03  0.11168E+05
 0.14499998E+03  0.12552E+05
 0.14504999E+03  0.13941E+05
 0.14509999E+03  0.14899E+05
 0.14514999E+03  0.16490E+05
 0.14520000E+03  0.18356E+05
 0.14524998E+03  0.19345E+05
 0.14529999E+03  0.18704E+05
 0.14534999E+03  0.16476E+05
 0.14539999E+03  0.14305E+05
 0.14545000E+03  0.13497E+05
 0.14549998E+03  0.13993E+05
 0.14554999E+03  0.15088E+05
 0.14559999E+03  0.16390E+05
 0.14564999E+03  0.17035E+05
 0.14570000E+03  0.16049E+05
 0.14574998E+03  0.14253E+05
 0.14579999E+03  0.12883E+05
 0.14584999E+03  0.12873E+05
 0.14589999E+03  0.14292E+05
 0.14595000E+03  0.16226E+05
 0.14599998E+03  0.18008E+05
 0.14604999E+03  0.18877E+05
 0.14609999E+03  0.18891E+05
 0.14614999E+03  0.18285E+05
 0.14620000E+03  0.16409E+05
 0.14624998E+03  0.13782E+05
 0.14629999E+03  0.12096E+05
 0.14634999E+03  0.11928E+05
 0.14639999E+03  0.12311E+05
 0.14645000E+03  0.12878E+05
 0.14649998E+03  0.13610E+05
 0.14654999E+03  0.13816E+05
 0.14659999E+03  0.13793E+05
 0.14664999E+03  0.14405E+05
 0.14670000E+03  0.15550E+05
 0.14674998E+03  0.15830E+05
 0.14679999E+03  0.14412E+05
 0.14684999E+03  0.11996E+05
 0.14689999E+03  0.94060E+04
 0.14695000E+03  0.70770E+04
 0.14699998E+03  0.43300E+04
 0.14704999E+03  0.96800E+03
 0.14709999E+03 -0.15170E+04
 0.14714999E+03 -0.20100E+04
 0.14720000E+03 -0.40300E+03
 0.14724998E+03  0.31230E+04
 0.14729999E+03  0.78340E+04
 0.14734999E+03  0.12842E+05
 0.14739999E+03  0.18066E+05
 0.14745000E+03  0.21960E+05
 0.14749998E+03  0.22721E+05
 0.14754999E+03  0.21579E+05
 0.14759999E+03  0.19083E+05
 0.14764999E+03  0.14373E+05
 0.14770000E+03  0.97790E+04
 0.14774998E+03  0.84520E+04
 0.14779999E+03  0.92800E+04
 0.14784999E+03  0.98820E+04
 0.14789999E+03  0.10003E+05
 0.14795000E+03  0.10201E+05
 0.14799998E+03  0.11164E+05
 0.14804999E+03  0.12918E+05
 0.14809999E+03  0.15292E+05
 0.14814999E+03  0.17821E+05
 0.14820000E+03  0.19140E+05
 0.14824998E+03  0.19494E+05
 0.14829999E+03  0.19609E+05
 0.14834999E+03  0.19292E+05
 0.14839999E+03  0.19664E+05
 0.14845000E+03  0.20753E+05
 0.14849998E+03  0.19758E+05
 0.14854999E+03  0.15504E+05
 0.14859999E+03  0.10163E+05
 0.14864999E+03  0.62140E+04
 0.14870000E+03  0.43220E+04
 0.14874998E+03  0.42410E+04
 0.14879999E+03  0.56170E+04
 0.14884999E+03  0.68110E+04
 0.14889999E+03  0.71300E+04
 0.14895000E+03  0.84230E+04
 0.14899998E+03  0.10860E+05
 0.14904999E+03  0.13147E+05
 0.14909999E+03  0.15038E+05
 0.14914999E+03  0.16113E+05
 0.14920000E+03  0.16111E+05
 0.14924998E+03  0.14829E+05
 0.14929999E+03  0.12290E+05
 0.14934999E+03  0.10107E+05
 0.14939999E+03  0.90830E+04
 0.14945000E+03  0.80450E+04
 0.14949998E+03  0.62920E+04
 0.14954999E+03  0.42950E+04
 0.14959999E+03  0.31450E+04
 0.14964999E+03  0.37010E+04
 0.14970000E+03  0.63590E+04
 0.14974998E+03  0.11104E+05
 0.14979999E+03  0.16379E+05
 0.14984999E+03  0.20307E+05
 0.14989999E+03  0.22366E+05
 0.14995000E+03  0.22683E+05
