-0.29800000E+01  0.35379E+05
-0.29300001E+01  0.32231E+05
-0.28800001E+01  0.29091E+05
-0.28299999E+01  0.26531E+05
-0.27800000E+01  0.24497E+05
-0.27300000E+01  0.22578E+05
-0.26800001E+01  0.20076E+05
-0.26300001E+01  0.16789E+05
-0.25799999E+01  0.14283E+05
-0.25300000E+01  0.13938E+05
-0.24800000E+01  0.15777E+05
-0.24300001E+01  0.19975E+05
-0.23800001E+01  0.25880E+05
-0.23299999E+01  0.31316E+05
-0.22800000E+01  0.34190E+05
-0.22300000E+01  0.33651E+05
-0.21800001E+01  0.31375E+05
-0.21300001E+01  0.29656E+05
-0.20799999E+01  0.29892E+05
-0.20300000E+01  0.32899E+05
-0.19800000E+01  0.36284E+05
-0.19299999E+01  0.37202E+05
-0.18800000E+01  0.35875E+05
-0.18300000E+01  0.33521E+05
-0.17800000E+01  0.32124E+05
-0.17300000E+01  0.33734E+05
-0.16799999E+01  0.38356E+05
-0.16300000E+01  0.43870E+05
-0.15800000E+01  0.48696E+05
-0.15300000E+01  0.52360E+05
-0.14800000E+01  0.54058E+05
-0.14299999E+01  0.54386E+05
-0.13800000E+01  0.54331E+05
-0.13300000E+01  0.52946E+05
-0.12800000E+01  0.49467E+05
-0.12300000E+01  0.44572E+05
-0.11799999E+01  0.39059E+05
-0.11300000E+01  0.33963E+05
-0.10800000E+01  0.29597E+05
-0.10300000E+01  0.23575E+05
-0.98000002E+00  0.14190E+05
-0.93000007E+00  0.29180E+04
-0.87999988E+00 -0.75500E+04
-0.82999992E+00 -0.15479E+05
-0.77999997E+00 -0.21511E+05
-0.73000002E+00 -0.26770E+05
-0.68000007E+00 -0.31870E+05
-0.62999988E+00 -0.37067E+05
-0.57999992E+00 -0.40562E+05
-0.52999997E+00 -0.40144E+05
-0.48000002E+00 -0.36415E+05
-0.43000007E+00 -0.32114E+05
-0.37999988E+00 -0.29910E+05
-0.32999992E+00 -0.30494E+05
-0.27999997E+00 -0.31896E+05
-0.23000002E+00 -0.31776E+05
-0.18000007E+00 -0.29497E+05
-0.12999988E+00 -0.25346E+05
-0.79999924E-01 -0.19636E+05
-0.29999971E-01 -0.13185E+05
 0.19999981E-01 -0.66600E+04
 0.69999933E-01 -0.55100E+03
 0.12000012E+00  0.34640E+04
 0.17000008E+00  0.39590E+04
 0.22000003E+00  0.10590E+04
 0.26999998E+00 -0.37810E+04
 0.31999993E+00 -0.84960E+04
 0.37000012E+00 -0.12643E+05
 0.42000008E+00 -0.15621E+05
 0.47000003E+00 -0.15133E+05
 0.51999998E+00 -0.11407E+05
 0.56999993E+00 -0.73170E+04
 0.62000012E+00 -0.48730E+04
 0.67000008E+00 -0.51000E+04
 0.72000003E+00 -0.79620E+04
 0.76999998E+00 -0.12184E+05
 0.81999993E+00 -0.16015E+05
 0.87000012E+00 -0.17542E+05
 0.92000008E+00 -0.16480E+05
 0.97000003E+00 -0.14526E+05
 0.10200000E+01 -0.13294E+05
 0.10700002E+01 -0.13374E+05
 0.11199999E+01 -0.14791E+05
 0.11700001E+01 -0.17561E+05
 0.12200003E+01 -0.19912E+05
 0.12700000E+01 -0.18865E+05
 0.13200002E+01 -0.14713E+05
 0.13699999E+01 -0.10095E+05
 0.14200001E+01 -0.55910E+04
 0.14700003E+01 -0.84300E+03
 0.15200000E+01  0.32460E+04
 0.15700002E+01  0.65900E+04
 0.16199999E+01  0.10232E+05
 0.16700001E+01  0.13908E+05
 0.17200003E+01  0.17057E+05
 0.17700000E+01  0.18968E+05
 0.18200002E+01  0.17683E+05
 0.18699999E+01  0.13974E+05
 0.19200001E+01  0.11493E+05
 0.19700003E+01  0.11411E+05
 0.20200000E+01  0.11668E+05
 0.20700002E+01  0.94080E+04
 0.21199999E+01  0.49400E+04
 0.21700001E+01  0.18510E+04
 0.22200003E+01  0.16120E+04
 0.22700000E+01  0.37410E+04
 0.23200002E+01  0.70640E+04
 0.23699999E+01  0.93770E+04
 0.24200001E+01  0.10070E+05
 0.24700003E+01  0.90800E+04
 0.25200000E+01  0.52100E+04
 0.25700002E+01 -0.97900E+03
 0.26199999E+01 -0.73650E+04
 0.26700001E+01 -0.12961E+05
 0.27200003E+01 -0.17601E+05
 0.27700000E+01 -0.21712E+05
 0.28200002E+01 -0.25591E+05
 0.28699999E+01 -0.28599E+05
 0.29200001E+01 -0.29612E+05
 0.29700003E+01 -0.27656E+05
 0.30200000E+01 -0.23369E+05
 0.30700002E+01 -0.17994E+05
 0.31199999E+01 -0.12018E+05
 0.31700001E+01 -0.51520E+04
 0.32200003E+01  0.23020E+04
 0.32700000E+01  0.76600E+04
 0.33200002E+01  0.95820E+04
 0.33699999E+01  0.87690E+04
 0.34200001E+01  0.53390E+04
 0.34700003E+01 -0.13200E+03
 0.35200000E+01 -0.70730E+04
 0.35700002E+01 -0.14798E+05
 0.36199999E+01 -0.22086E+05
 0.36700001E+01 -0.27932E+05
 0.37200003E+01 -0.32309E+05
 0.37700000E+01 -0.36147E+05
 0.38200002E+01 -0.38911E+05
 0.38699999E+01 -0.39597E+05
 0.39200001E+01 -0.38414E+05
 0.39700003E+01 -0.35870E+05
 0.40200000E+01 -0.33346E+05
 0.40700002E+01 -0.31912E+05
 0.41199999E+01 -0.30811E+05
 0.41700001E+01 -0.29019E+05
 0.42200003E+01 -0.26587E+05
 0.42700000E+01 -0.24450E+05
 0.43200002E+01 -0.22870E+05
 0.43699999E+01 -0.20299E+05
 0.44200001E+01 -0.15707E+05
 0.44700003E+01 -0.10724E+05
 0.45200000E+01 -0.70040E+04
 0.45700002E+01 -0.40130E+04
 0.46199999E+01 -0.11300E+03
 0.46700001E+01  0.52100E+04
 0.47200003E+01  0.10322E+05
 0.47700000E+01  0.14211E+05
 0.48200002E+01  0.17459E+05
 0.48699999E+01  0.19363E+05
 0.49200001E+01  0.18448E+05
 0.49700003E+01  0.15351E+05
 0.50200000E+01  0.11738E+05
 0.50700002E+01  0.79680E+04
 0.51200004E+01  0.43390E+04
 0.51700006E+01  0.24130E+04
 0.52199998E+01  0.26750E+04
 0.52700000E+01  0.35450E+04
 0.53200002E+01  0.36670E+04
 0.53700004E+01  0.28260E+04
 0.54200006E+01  0.20830E+04
 0.54699998E+01  0.29540E+04
 0.55200000E+01  0.57410E+04
 0.55700002E+01  0.10037E+05
 0.56200004E+01  0.14497E+05
 0.56700006E+01  0.17366E+05
 0.57199998E+01  0.19128E+05
 0.57700000E+01  0.21695E+05
 0.58200002E+01  0.26314E+05
 0.58700004E+01  0.32791E+05
 0.59200006E+01  0.39865E+05
 0.59699998E+01  0.46358E+05
 0.60200000E+01  0.51022E+05
 0.60700002E+01  0.53274E+05
 0.61200004E+01  0.53290E+05
 0.61700006E+01  0.50656E+05
 0.62199998E+01  0.44994E+05
 0.62700000E+01  0.37234E+05
 0.63200002E+01  0.29185E+05
 0.63700004E+01  0.22476E+05
 0.64200006E+01  0.18934E+05
 0.64699998E+01  0.19515E+05
 0.65200000E+01  0.21993E+05
 0.65700002E+01  0.23108E+05
 0.66200004E+01  0.21569E+05
 0.66700006E+01  0.17519E+05
 0.67199998E+01  0.12671E+05
 0.67700000E+01  0.93760E+04
 0.68200002E+01  0.78570E+04
 0.68700004E+01  0.72060E+04
 0.69200006E+01  0.60530E+04
 0.69699998E+01  0.27760E+04
 0.70200000E+01 -0.18320E+04
 0.70700002E+01 -0.63140E+04
 0.71200004E+01 -0.10198E+05
 0.71700006E+01 -0.13178E+05
 0.72199998E+01 -0.16800E+05
 0.72700000E+01 -0.22161E+05
 0.73200002E+01 -0.27837E+05
 0.73700004E+01 -0.33059E+05
 0.74200006E+01 -0.38161E+05
 0.74699998E+01 -0.42866E+05
 0.75200000E+01 -0.45290E+05
 0.75700002E+01 -0.44780E+05
 0.76200004E+01 -0.44328E+05
 0.76700006E+01 -0.44905E+05
 0.77199998E+01 -0.44346E+05
 0.77700000E+01 -0.42361E+05
 0.78200002E+01 -0.39364E+05
 0.78700004E+01 -0.34466E+05
 0.79200006E+01 -0.28148E+05
 0.79699998E+01 -0.22282E+05
 0.80200005E+01 -0.17475E+05
 0.80699997E+01 -0.13302E+05
 0.81200008E+01 -0.88520E+04
 0.81700001E+01 -0.31320E+04
 0.82199993E+01  0.37060E+04
 0.82700005E+01  0.97030E+04
 0.83199997E+01  0.12342E+05
 0.83700008E+01  0.10798E+05
 0.84200001E+01  0.58860E+04
 0.84699993E+01 -0.11270E+04
 0.85200005E+01 -0.83890E+04
 0.85699997E+01 -0.13975E+05
 0.86200008E+01 -0.18635E+05
 0.86700001E+01 -0.23748E+05
 0.87199993E+01 -0.28473E+05
 0.87700005E+01 -0.32811E+05
 0.88199997E+01 -0.37707E+05
 0.88700008E+01 -0.42846E+05
 0.89200001E+01 -0.47251E+05
 0.89699993E+01 -0.50198E+05
 0.90200005E+01 -0.51220E+05
 0.90699997E+01 -0.49924E+05
 0.91200008E+01 -0.46078E+05
 0.91700001E+01 -0.39585E+05
 0.92199993E+01 -0.30962E+05
 0.92700005E+01 -0.22035E+05
 0.93199997E+01 -0.14362E+05
 0.93700008E+01 -0.74480E+04
 0.94200001E+01 -0.58200E+03
 0.94699993E+01  0.66400E+04
 0.95200005E+01  0.15317E+05
 0.95699997E+01  0.25482E+05
 0.96200008E+01  0.35943E+05
 0.96700001E+01  0.46062E+05
 0.97199993E+01  0.55262E+05
 0.97700005E+01  0.62546E+05
 0.98199997E+01  0.67946E+05
 0.98700008E+01  0.73303E+05
 0.99200001E+01  0.79638E+05
 0.99699993E+01  0.84629E+05
 0.10020000E+02  0.86019E+05
 0.10070000E+02  0.84075E+05
 0.10120001E+02  0.79977E+05
 0.10170000E+02  0.74566E+05
 0.10219999E+02  0.67125E+05
 0.10270000E+02  0.57157E+05
 0.10320000E+02  0.46665E+05
 0.10370001E+02  0.37985E+05
 0.10420000E+02  0.30811E+05
 0.10469999E+02  0.23497E+05
 0.10520000E+02  0.15959E+05
 0.10570000E+02  0.95910E+04
 0.10620001E+02  0.45140E+04
 0.10670000E+02 -0.67400E+03
 0.10719999E+02 -0.58950E+04
 0.10770000E+02 -0.10595E+05
 0.10820000E+02 -0.15047E+05
 0.10870001E+02 -0.19224E+05
 0.10920000E+02 -0.23396E+05
 0.10969999E+02 -0.28179E+05
 0.11020000E+02 -0.32976E+05
 0.11070000E+02 -0.36861E+05
 0.11120001E+02 -0.40866E+05
 0.11170000E+02 -0.46012E+05
 0.11219999E+02 -0.51497E+05
 0.11270000E+02 -0.56170E+05
 0.11320000E+02 -0.59114E+05
 0.11370001E+02 -0.60434E+05
 0.11420000E+02 -0.60724E+05
 0.11469999E+02 -0.59041E+05
 0.11520000E+02 -0.54374E+05
 0.11570000E+02 -0.46591E+05
 0.11620001E+02 -0.35709E+05
 0.11670000E+02 -0.22676E+05
 0.11719999E+02 -0.96680E+04
 0.11770000E+02  0.44600E+03
 0.11820000E+02  0.65070E+04
 0.11870001E+02  0.11056E+05
 0.11920000E+02  0.16802E+05
 0.11969999E+02  0.23181E+05
 0.12020000E+02  0.28996E+05
 0.12070000E+02  0.33198E+05
 0.12120001E+02  0.34583E+05
 0.12170000E+02  0.34086E+05
 0.12219999E+02  0.33027E+05
 0.12270000E+02  0.31480E+05
 0.12320000E+02  0.28902E+05
 0.12370001E+02  0.24890E+05
 0.12420000E+02  0.20081E+05
 0.12469999E+02  0.14524E+05
 0.12520000E+02  0.74290E+04
 0.12570000E+02 -0.97100E+03
 0.12620001E+02 -0.96940E+04
 0.12670000E+02 -0.18187E+05
 0.12719999E+02 -0.26327E+05
 0.12770000E+02 -0.33847E+05
 0.12820000E+02 -0.40605E+05
 0.12870001E+02 -0.45727E+05
 0.12920000E+02 -0.47593E+05
 0.12969999E+02 -0.45840E+05
 0.13020000E+02 -0.40362E+05
 0.13070002E+02 -0.31784E+05
 0.13120001E+02 -0.22161E+05
 0.13170000E+02 -0.12713E+05
 0.13220001E+02 -0.44470E+04
 0.13270000E+02  0.11410E+04
 0.13320002E+02  0.38130E+04
 0.13370001E+02  0.49770E+04
 0.13420000E+02  0.59050E+04
 0.13470001E+02  0.64510E+04
 0.13520000E+02  0.71440E+04
 0.13570002E+02  0.94210E+04
 0.13620001E+02  0.12747E+05
 0.13670000E+02  0.16243E+05
 0.13720001E+02  0.21832E+05
 0.13770000E+02  0.30670E+05
 0.13820002E+02  0.41755E+05
 0.13870001E+02  0.54815E+05
 0.13920000E+02  0.70221E+05
 0.13970001E+02  0.89645E+05
 0.14020000E+02  0.10462E+06
 0.14070002E+02  0.10160E+06
 0.14120001E+02  0.65100E+05
 0.14170000E+02 -0.91000E+04
 0.14220001E+02 -0.10732E+06
 0.14270000E+02 -0.19290E+06
 0.14320002E+02 -0.23274E+06
 0.14370001E+02 -0.24004E+06
 0.14420000E+02 -0.19424E+06
 0.14470001E+02 -0.30327E+05
 0.14520000E+02  0.26138E+06
 0.14570002E+02  0.56391E+06
 0.14620001E+02  0.72898E+06
 0.14670000E+02  0.64921E+06
 0.14720001E+02  0.25380E+06
 0.14770000E+02 -0.29183E+06
 0.14820002E+02 -0.72829E+06
 0.14870001E+02 -0.10608E+07
 0.14920000E+02 -0.13091E+07
 0.14970001E+02 -0.13139E+07
 0.15020000E+02 -0.92853E+06
 0.15070002E+02 -0.33860E+06
 0.15120001E+02 -0.15070E+04
 0.15170000E+02  0.42232E+05
 0.15220001E+02 -0.10195E+06
 0.15270000E+02 -0.40448E+06
 0.15320002E+02 -0.51747E+06
 0.15370001E+02  0.34559E+05
 0.15420000E+02  0.10554E+07
 0.15470001E+02  0.16075E+07
 0.15520000E+02  0.16844E+07
 0.15570002E+02  0.13397E+07
 0.15620001E+02 -0.37261E+06
 0.15670000E+02 -0.29333E+07
 0.15720001E+02 -0.39552E+07
 0.15770000E+02 -0.26974E+07
 0.15820002E+02 -0.12003E+07
 0.15870001E+02 -0.90703E+06
 0.15920000E+02 -0.84566E+06
 0.15970001E+02 -0.11760E+04
 0.16020000E+02  0.37887E+06
 0.16070002E+02 -0.13747E+06
 0.16120001E+02  0.21541E+06
 0.16170000E+02  0.14307E+07
 0.16220001E+02  0.21936E+07
 0.16270000E+02  0.22759E+07
 0.16320002E+02  0.11746E+07
 0.16370001E+02 -0.12892E+07
 0.16420000E+02 -0.21248E+07
 0.16470001E+02  0.18271E+06
 0.16520000E+02  0.16565E+07
 0.16570002E+02  0.50822E+06
 0.16620001E+02 -0.56204E+06
 0.16670000E+02 -0.84616E+05
 0.16720001E+02  0.46266E+06
 0.16770000E+02 -0.39724E+06
 0.16820002E+02 -0.11327E+07
 0.16870001E+02 -0.47005E+06
 0.16920000E+02  0.45453E+06
 0.16970001E+02  0.29450E+06
 0.17020000E+02 -0.12526E+07
 0.17070002E+02 -0.32713E+07
 0.17120001E+02 -0.40312E+07
 0.17170000E+02 -0.26355E+07
 0.17220001E+02 -0.15315E+07
 0.17270000E+02 -0.19818E+07
 0.17320002E+02 -0.13473E+07
 0.17370001E+02  0.11174E+07
 0.17420000E+02  0.28232E+07
 0.17470001E+02  0.21553E+07
 0.17520000E+02  0.83170E+06
 0.17570002E+02  0.10138E+06
 0.17620001E+02  0.33648E+06
 0.17670000E+02  0.18182E+07
 0.17720001E+02  0.26817E+07
 0.17770000E+02  0.17256E+07
 0.17820002E+02  0.72966E+06
 0.17870001E+02  0.74336E+06
 0.17920000E+02  0.38435E+06
 0.17970001E+02 -0.16296E+06
 0.18020000E+02 -0.46333E+06
 0.18070002E+02 -0.10197E+07
 0.18120001E+02 -0.13240E+07
 0.18170000E+02 -0.11712E+07
 0.18220001E+02 -0.10145E+07
 0.18270000E+02 -0.14423E+07
 0.18320002E+02 -0.17815E+07
 0.18370001E+02 -0.24922E+06
 0.18420000E+02  0.16551E+07
 0.18470001E+02  0.20955E+06
 0.18520000E+02 -0.22546E+07
 0.18570002E+02 -0.18928E+07
 0.18620001E+02 -0.63663E+06
 0.18670000E+02 -0.26861E+06
 0.18720001E+02  0.11135E+06
 0.18770000E+02  0.52006E+06
 0.18820002E+02  0.79107E+06
 0.18870001E+02  0.17940E+07
 0.18920000E+02  0.16231E+07
 0.18970001E+02 -0.37533E+06
 0.19020000E+02 -0.14579E+07
 0.19070002E+02 -0.14858E+07
 0.19120001E+02 -0.18917E+07
 0.19170000E+02 -0.22169E+07
 0.19220001E+02 -0.15021E+07
 0.19270000E+02 -0.50419E+06
 0.19320002E+02  0.44564E+05
 0.19370001E+02  0.47345E+05
 0.19420000E+02  0.51599E+06
 0.19470001E+02  0.15070E+07
 0.19520000E+02  0.11096E+07
 0.19570002E+02 -0.44417E+06
 0.19620001E+02 -0.75303E+06
 0.19670000E+02  0.75300E+06
 0.19720001E+02  0.14391E+07
 0.19770000E+02  0.87985E+06
 0.19820002E+02  0.12315E+07
 0.19870001E+02  0.25389E+07
 0.19920000E+02  0.31109E+07
 0.19970001E+02  0.26821E+07
 0.20020000E+02  0.23361E+07
 0.20070002E+02  0.91935E+06
 0.20120001E+02 -0.97686E+06
 0.20170000E+02 -0.10755E+07
 0.20220001E+02 -0.13564E+07
 0.20270000E+02 -0.30096E+07
 0.20320002E+02 -0.41963E+07
 0.20370001E+02 -0.45404E+07
 0.20420000E+02 -0.48938E+07
 0.20470001E+02 -0.45668E+07
 0.20520000E+02 -0.24359E+07
 0.20570002E+02  0.59653E+06
 0.20620001E+02  0.29221E+07
 0.20670000E+02  0.30605E+07
 0.20720001E+02  0.14876E+07
 0.20770000E+02  0.13718E+07
 0.20820002E+02  0.27362E+07
 0.20870001E+02  0.24438E+07
 0.20920000E+02  0.35339E+06
 0.20970001E+02 -0.12261E+07
 0.21020000E+02 -0.13922E+07
 0.21070002E+02 -0.80935E+06
 0.21120001E+02 -0.72748E+06
 0.21170000E+02 -0.17009E+07
 0.21220001E+02 -0.27699E+07
 0.21270000E+02 -0.31693E+07
 0.21320002E+02 -0.24127E+07
 0.21370001E+02 -0.12283E+07
 0.21420000E+02  0.43781E+05
 0.21470001E+02  0.21764E+07
 0.21520000E+02  0.42867E+07
 0.21570002E+02  0.50449E+07
 0.21620001E+02  0.41257E+07
 0.21670000E+02  0.28823E+07
 0.21720001E+02  0.18194E+07
 0.21770000E+02  0.15715E+06
 0.21820002E+02 -0.18356E+07
 0.21870001E+02 -0.32510E+07
 0.21920000E+02 -0.34975E+07
 0.21970001E+02 -0.23030E+07
 0.22020000E+02  0.12025E+06
 0.22070002E+02  0.14243E+07
 0.22120001E+02  0.12991E+07
 0.22170000E+02  0.16744E+07
 0.22220001E+02  0.16719E+07
 0.22270000E+02  0.90816E+06
 0.22320002E+02 -0.35713E+05
 0.22370001E+02 -0.70252E+06
 0.22420000E+02  0.15935E+06
 0.22470001E+02  0.16199E+07
 0.22520000E+02  0.15896E+07
 0.22570002E+02  0.56892E+06
 0.22620001E+02 -0.44315E+06
 0.22670000E+02 -0.16325E+07
 0.22720001E+02 -0.24801E+07
 0.22770000E+02 -0.20606E+07
 0.22820002E+02 -0.41806E+06
 0.22870001E+02  0.10396E+07
 0.22920000E+02  0.15040E+07
 0.22970001E+02  0.12412E+07
 0.23020000E+02  0.11001E+07
 0.23070002E+02  0.12397E+07
 0.23120001E+02  0.68453E+06
 0.23170000E+02  0.11154E+07
 0.23220001E+02  0.42887E+07
 0.23270000E+02  0.85799E+07
 0.23320002E+02  0.11485E+08
 0.23370001E+02  0.13017E+08
 0.23420000E+02  0.15660E+08
 0.23470001E+02  0.17817E+08
 0.23520000E+02  0.15080E+08
 0.23570002E+02  0.97480E+07
 0.23620001E+02  0.71531E+07
 0.23670000E+02  0.50317E+07
 0.23720001E+02 -0.60162E+06
 0.23770000E+02 -0.76175E+07
 0.23820002E+02 -0.11670E+08
 0.23870001E+02 -0.10673E+08
 0.23920000E+02 -0.41328E+07
 0.23970001E+02  0.54903E+07
 0.24020000E+02  0.10699E+08
 0.24070002E+02  0.89778E+07
 0.24120001E+02  0.16059E+07
 0.24170000E+02 -0.19001E+07
 0.24220001E+02 -0.11989E+06
 0.24270000E+02 -0.59941E+07
 0.24320002E+02 -0.15385E+08
 0.24370001E+02 -0.25243E+08
 0.24420000E+02 -0.22221E+08
 0.24470001E+02 -0.10599E+08
 0.24520000E+02 -0.14493E+08
 0.24570002E+02 -0.14012E+08
 0.24620001E+02 -0.69843E+07
 0.24670000E+02  0.35267E+06
 0.24720001E+02  0.75941E+07
 0.24770000E+02 -0.24492E+07
 0.24820002E+02 -0.12273E+08
 0.24870001E+02 -0.11129E+08
 0.24920000E+02 -0.59469E+07
 0.24970001E+02  0.46342E+07
 0.25020000E+02  0.11457E+08
 0.25070002E+02  0.10995E+08
 0.25120001E+02  0.56765E+07
 0.25170000E+02 -0.32281E+07
 0.25220001E+02 -0.10731E+08
 0.25270000E+02 -0.11597E+08
 0.25320002E+02 -0.67328E+07
 0.25370001E+02  0.23020E+07
 0.25420000E+02  0.98619E+07
 0.25470001E+02  0.72535E+07
 0.25520000E+02 -0.38954E+06
 0.25570002E+02 -0.97673E+07
 0.25620001E+02 -0.14939E+08
 0.25670000E+02 -0.12794E+08
 0.25720001E+02 -0.10881E+08
 0.25770000E+02 -0.62007E+07
 0.25820002E+02  0.35283E+06
 0.25870001E+02  0.63463E+07
 0.25920000E+02  0.10985E+08
 0.25970001E+02  0.11148E+08
 0.26020000E+02  0.10951E+08
 0.26070002E+02  0.13921E+08
 0.26120001E+02  0.16403E+08
 0.26170000E+02  0.14334E+08
 0.26220001E+02  0.10302E+08
 0.26270000E+02  0.45125E+07
 0.26320002E+02 -0.23635E+07
 0.26370001E+02 -0.58876E+07
 0.26420000E+02 -0.75522E+07
 0.26470001E+02 -0.71829E+07
 0.26520000E+02 -0.31399E+07
 0.26570002E+02  0.15777E+07
 0.26620001E+02  0.37353E+07
 0.26670000E+02  0.51073E+06
 0.26720001E+02 -0.58990E+07
 0.26770000E+02 -0.71148E+07
 0.26820002E+02 -0.12485E+07
 0.26870001E+02  0.32621E+07
 0.26920000E+02  0.25795E+07
 0.26970001E+02  0.15543E+07
 0.27020000E+02 -0.12290E+06
 0.27070002E+02 -0.48560E+07
 0.27120001E+02 -0.93989E+07
 0.27170000E+02 -0.11940E+08
 0.27220001E+02 -0.13706E+08
 0.27270000E+02 -0.13515E+08
 0.27320002E+02 -0.10911E+08
 0.27370001E+02 -0.10594E+08
 0.27420000E+02 -0.14674E+08
 0.27470001E+02 -0.20223E+08
 0.27520000E+02 -0.22461E+08
 0.27570002E+02 -0.18441E+08
 0.27620001E+02 -0.11400E+08
 0.27670000E+02 -0.59982E+07
 0.27720001E+02 -0.30339E+07
 0.27770000E+02  0.63121E+06
 0.27820002E+02  0.73021E+07
 0.27870001E+02  0.13415E+08
 0.27920000E+02  0.13798E+08
 0.27970001E+02  0.84749E+07
 0.28020000E+02  0.33085E+07
 0.28070002E+02  0.15533E+07
 0.28120001E+02 -0.42806E+06
 0.28170000E+02 -0.18662E+07
 0.28220001E+02  0.24043E+07
 0.28270000E+02  0.96513E+07
 0.28320002E+02  0.13172E+08
 0.28370001E+02  0.12473E+08
 0.28420000E+02  0.91511E+07
 0.28470001E+02  0.41345E+07
 0.28520000E+02  0.61195E+05
 0.28570002E+02 -0.23480E+07
 0.28620001E+02 -0.24255E+07
 0.28670000E+02  0.14440E+07
 0.28720001E+02  0.66607E+07
 0.28770000E+02  0.69983E+07
 0.28820002E+02  0.20136E+07
 0.28870001E+02 -0.26497E+07
 0.28920000E+02 -0.57302E+07
 0.28970001E+02 -0.77581E+07
 0.29020000E+02 -0.68699E+07
 0.29070000E+02 -0.37268E+07
 0.29120003E+02 -0.20840E+07
 0.29170002E+02 -0.23895E+07
 0.29220001E+02 -0.31093E+07
 0.29270000E+02 -0.50955E+07
 0.29320000E+02 -0.56518E+07
 0.29370003E+02 -0.49353E+06
 0.29420002E+02  0.66709E+07
 0.29470001E+02  0.85469E+07
 0.29520000E+02  0.53941E+07
 0.29570000E+02  0.65948E+06
 0.29620003E+02 -0.57775E+07
 0.29670002E+02 -0.11959E+08
 0.29720001E+02 -0.14118E+08
 0.29770000E+02 -0.12647E+08
 0.29820000E+02 -0.10423E+08
 0.29870003E+02 -0.80111E+07
 0.29920002E+02 -0.43231E+07
 0.29970001E+02 -0.87929E+06
 0.30020000E+02 -0.71430E+06
 0.30070000E+02 -0.24177E+07
 0.30120003E+02 -0.26800E+07
 0.30170002E+02 -0.26742E+07
 0.30220001E+02 -0.48449E+07
 0.30270000E+02 -0.79196E+07
 0.30320000E+02 -0.75525E+07
 0.30370003E+02 -0.27481E+07
 0.30420002E+02  0.20132E+07
 0.30470001E+02  0.41481E+07
 0.30520000E+02  0.51125E+07
 0.30570000E+02  0.62162E+07
 0.30620003E+02  0.60401E+07
 0.30670002E+02  0.35467E+07
 0.30720001E+02  0.11621E+07
 0.30770000E+02  0.66465E+06
 0.30820000E+02  0.11374E+07
 0.30870003E+02  0.18419E+07
 0.30920002E+02  0.29186E+07
 0.30970001E+02  0.22963E+07
 0.31020000E+02 -0.18541E+06
 0.31070000E+02 -0.18475E+06
 0.31120003E+02  0.18783E+07
 0.31170002E+02  0.24136E+07
 0.31220001E+02  0.19327E+07
 0.31270000E+02  0.12432E+07
 0.31320000E+02  0.64632E+06
 0.31370003E+02  0.11967E+07
 0.31420002E+02  0.67163E+06
 0.31470001E+02 -0.15062E+07
 0.31520000E+02 -0.10100E+07
 0.31570000E+02  0.14750E+07
 0.31620003E+02  0.25430E+07
 0.31670002E+02  0.24401E+07
 0.31720001E+02  0.50474E+06
 0.31770000E+02 -0.25407E+07
 0.31820000E+02 -0.29854E+07
 0.31870003E+02 -0.13570E+06
 0.31920002E+02  0.28562E+07
 0.31970001E+02  0.27923E+07
 0.32020000E+02 -0.26407E+06
 0.32070000E+02 -0.31973E+07
 0.32120003E+02 -0.40008E+07
 0.32170002E+02 -0.35998E+07
 0.32220001E+02 -0.38409E+07
 0.32270000E+02 -0.39307E+07
 0.32320000E+02 -0.25311E+07
 0.32370003E+02 -0.20706E+07
 0.32420002E+02 -0.27186E+07
 0.32470001E+02 -0.20290E+07
 0.32520000E+02 -0.76417E+06
 0.32570000E+02  0.11561E+06
 0.32620003E+02  0.83497E+06
 0.32670002E+02  0.19673E+07
 0.32720001E+02  0.35365E+07
 0.32770000E+02  0.36473E+07
 0.32820000E+02  0.26229E+07
 0.32870003E+02  0.23550E+07
 0.32920002E+02  0.18405E+07
 0.32970001E+02 -0.27219E+06
 0.33020000E+02 -0.33250E+07
 0.33070000E+02 -0.56625E+07
 0.33120003E+02 -0.63445E+07
 0.33170002E+02 -0.59771E+07
 0.33220001E+02 -0.49925E+07
 0.33270000E+02 -0.33414E+07
 0.33320000E+02 -0.18010E+07
 0.33370003E+02 -0.33614E+06
 0.33420002E+02  0.14859E+07
 0.33470001E+02  0.31122E+07
 0.33520000E+02  0.43839E+07
 0.33570000E+02  0.51223E+07
 0.33620003E+02  0.50690E+07
 0.33670002E+02  0.43728E+07
 0.33720001E+02  0.36781E+07
 0.33770000E+02  0.30259E+07
 0.33820000E+02  0.15576E+07
 0.33870003E+02  0.15860E+04
 0.33920002E+02 -0.71477E+06
 0.33970001E+02 -0.12895E+07
 0.34020000E+02 -0.17847E+07
 0.34070000E+02 -0.13152E+07
 0.34120003E+02 -0.88622E+06
 0.34170002E+02 -0.77518E+06
 0.34220001E+02  0.98818E+06
 0.34270000E+02  0.27513E+07
 0.34320000E+02  0.18846E+07
 0.34370003E+02 -0.30103E+05
 0.34420002E+02 -0.93459E+06
 0.34470001E+02 -0.12225E+07
 0.34520000E+02 -0.16074E+07
 0.34570000E+02 -0.11417E+07
 0.34620003E+02  0.63729E+06
 0.34670002E+02  0.72890E+06
 0.34720001E+02 -0.23243E+07
 0.34770000E+02 -0.38159E+07
 0.34820000E+02 -0.10470E+07
 0.34870003E+02  0.32049E+07
 0.34920002E+02  0.69882E+07
 0.34970001E+02  0.94994E+07
 0.35020000E+02  0.93177E+07
 0.35070000E+02  0.58854E+07
 0.35120003E+02  0.65845E+06
 0.35170002E+02 -0.36527E+07
 0.35220001E+02 -0.60006E+07
 0.35270000E+02 -0.71532E+07
 0.35320000E+02 -0.77634E+07
 0.35370003E+02 -0.84652E+07
 0.35420002E+02 -0.90441E+07
 0.35470001E+02 -0.81546E+07
 0.35520000E+02 -0.52896E+07
 0.35570000E+02 -0.25220E+07
 0.35620003E+02 -0.20908E+07
 0.35670002E+02 -0.26479E+07
 0.35720001E+02 -0.23378E+07
 0.35770000E+02 -0.13575E+07
 0.35820000E+02  0.31420E+06
 0.35870003E+02  0.20325E+07
 0.35920002E+02  0.17343E+07
 0.35970001E+02 -0.59909E+06
 0.36020000E+02 -0.30187E+07
 0.36070000E+02 -0.39311E+07
 0.36120003E+02 -0.25229E+07
 0.36170002E+02  0.36046E+06
 0.36220001E+02  0.29873E+07
 0.36270000E+02  0.40821E+07
 0.36320000E+02  0.39482E+07
 0.36370003E+02  0.32904E+07
 0.36420002E+02  0.20322E+07
 0.36470001E+02  0.13163E+07
 0.36520000E+02  0.26163E+07
 0.36570000E+02  0.48922E+07
 0.36620003E+02  0.55905E+07
 0.36670002E+02  0.49266E+07
 0.36720001E+02  0.49318E+07
 0.36770000E+02  0.54788E+07
 0.36820000E+02  0.52901E+07
 0.36870003E+02  0.43474E+07
 0.36920002E+02  0.34490E+07
 0.36970001E+02  0.18777E+07
 0.37020000E+02 -0.10499E+07
 0.37070000E+02 -0.43502E+07
 0.37120003E+02 -0.66788E+07
 0.37170002E+02 -0.68807E+07
 0.37220001E+02 -0.52511E+07
 0.37270000E+02 -0.29170E+07
 0.37320000E+02 -0.74507E+06
 0.37370003E+02  0.97068E+06
 0.37420002E+02  0.24247E+07
 0.37470001E+02  0.31557E+07
 0.37520000E+02  0.30013E+07
 0.37570000E+02  0.24458E+07
 0.37620003E+02  0.16248E+07
 0.37670002E+02  0.53942E+06
 0.37720001E+02 -0.41606E+06
 0.37770000E+02 -0.60164E+06
 0.37820000E+02 -0.54367E+06
 0.37870003E+02 -0.10776E+07
 0.37920002E+02 -0.10963E+07
 0.37970001E+02  0.16907E+06
 0.38020000E+02  0.13177E+07
 0.38070000E+02  0.18593E+07
 0.38120003E+02  0.28749E+07
 0.38170002E+02  0.39468E+07
 0.38220001E+02  0.42167E+07
 0.38270000E+02  0.36419E+07
 0.38320000E+02  0.18879E+07
 0.38370003E+02 -0.35909E+06
 0.38420002E+02 -0.15793E+07
 0.38470001E+02 -0.12372E+07
 0.38520000E+02 -0.75962E+06
 0.38570000E+02 -0.18086E+07
 0.38620003E+02 -0.35677E+07
 0.38670002E+02 -0.44380E+07
 0.38720001E+02 -0.45148E+07
 0.38770000E+02 -0.39098E+07
 0.38820000E+02 -0.19446E+07
 0.38870003E+02  0.39202E+06
 0.38920002E+02  0.14042E+07
 0.38970001E+02  0.90780E+06
 0.39020000E+02 -0.28136E+06
 0.39070000E+02 -0.16148E+07
 0.39120003E+02 -0.22139E+07
 0.39170002E+02 -0.83786E+06
 0.39220001E+02  0.12997E+07
 0.39270000E+02  0.19125E+07
 0.39320000E+02  0.11459E+07
 0.39370003E+02  0.47933E+06
 0.39420002E+02  0.47701E+06
 0.39470001E+02  0.10266E+07
 0.39520000E+02  0.19280E+07
 0.39570000E+02  0.25041E+07
 0.39620003E+02  0.20190E+07
 0.39670002E+02  0.10107E+07
 0.39720001E+02  0.54824E+06
 0.39770000E+02  0.41369E+06
 0.39820000E+02  0.15356E+06
 0.39870003E+02  0.10638E+06
 0.39920002E+02  0.63309E+06
 0.39970001E+02  0.15566E+07
 0.40020000E+02  0.17977E+07
 0.40070000E+02  0.81540E+06
 0.40120003E+02 -0.99079E+05
 0.40170002E+02 -0.58074E+06
 0.40220001E+02 -0.12681E+07
 0.40270000E+02 -0.15906E+07
 0.40320000E+02 -0.17620E+07
 0.40370003E+02 -0.20631E+07
 0.40420002E+02 -0.15561E+07
 0.40470001E+02 -0.29063E+06
 0.40520000E+02  0.10698E+07
 0.40570000E+02  0.22993E+07
 0.40620003E+02  0.31740E+07
 0.40670002E+02  0.36181E+07
 0.40720001E+02  0.35642E+07
 0.40770000E+02  0.19847E+07
 0.40820000E+02 -0.10053E+07
 0.40870003E+02 -0.32981E+07
 0.40920002E+02 -0.46877E+07
 0.40970001E+02 -0.60149E+07
 0.41020000E+02 -0.64520E+07
 0.41070000E+02 -0.56802E+07
 0.41120003E+02 -0.46910E+07
 0.41170002E+02 -0.39268E+07
 0.41220001E+02 -0.33331E+07
 0.41270000E+02 -0.27666E+07
 0.41320000E+02 -0.19812E+07
 0.41370003E+02 -0.13399E+07
 0.41420002E+02 -0.11535E+07
 0.41470001E+02 -0.15319E+07
 0.41520000E+02 -0.25942E+07
 0.41570000E+02 -0.34124E+07
 0.41620003E+02 -0.29908E+07
 0.41670002E+02 -0.14751E+07
 0.41720001E+02  0.66171E+06
 0.41770000E+02  0.29137E+07
 0.41820000E+02  0.42636E+07
 0.41870003E+02  0.44089E+07
 0.41920002E+02  0.45102E+07
 0.41970001E+02  0.47045E+07
 0.42020000E+02  0.42569E+07
 0.42070000E+02  0.36523E+07
 0.42120003E+02  0.32600E+07
 0.42170002E+02  0.24285E+07
 0.42220001E+02  0.88015E+06
 0.42270000E+02 -0.61948E+06
 0.42320000E+02 -0.12876E+07
 0.42370003E+02 -0.10596E+07
 0.42420002E+02 -0.54950E+06
 0.42470001E+02 -0.27850E+06
 0.42520000E+02 -0.55347E+05
 0.42570000E+02  0.26237E+06
 0.42620003E+02  0.61213E+06
 0.42670002E+02  0.13032E+07
 0.42720001E+02  0.24061E+07
 0.42770000E+02  0.28479E+07
 0.42820000E+02  0.19828E+07
 0.42870003E+02  0.71040E+06
 0.42920002E+02 -0.44165E+06
 0.42970001E+02 -0.16489E+07
 0.43020000E+02 -0.21668E+07
 0.43070000E+02 -0.16144E+07
 0.43120003E+02 -0.11824E+07
 0.43170002E+02 -0.13092E+07
 0.43220001E+02 -0.11601E+07
 0.43270000E+02 -0.71964E+06
 0.43320000E+02 -0.47611E+06
 0.43370003E+02 -0.22912E+06
 0.43420002E+02  0.33861E+06
 0.43470001E+02  0.12898E+07
 0.43520000E+02  0.18988E+07
 0.43570000E+02  0.13331E+07
 0.43620003E+02  0.30513E+06
 0.43670002E+02 -0.29732E+06
 0.43720001E+02 -0.86540E+06
 0.43770000E+02 -0.16594E+07
 0.43820000E+02 -0.21676E+07
 0.43870003E+02 -0.22758E+07
 0.43920002E+02 -0.24984E+07
 0.43970001E+02 -0.28496E+07
 0.44020000E+02 -0.29984E+07
 0.44070000E+02 -0.30613E+07
 0.44120003E+02 -0.23762E+07
 0.44170002E+02 -0.30333E+06
 0.44220001E+02  0.20235E+07
 0.44270000E+02  0.34886E+07
 0.44320000E+02  0.38293E+07
 0.44370003E+02  0.29475E+07
 0.44420002E+02  0.13508E+07
 0.44470001E+02  0.10528E+06
 0.44520000E+02 -0.37480E+06
 0.44570000E+02 -0.49907E+06
 0.44620003E+02 -0.26390E+06
 0.44670002E+02  0.30001E+06
 0.44720001E+02  0.47153E+06
 0.44770000E+02  0.25904E+06
 0.44820000E+02  0.54760E+06
 0.44870003E+02  0.15717E+07
 0.44920002E+02  0.26971E+07
 0.44970001E+02  0.32142E+07
 0.45020000E+02  0.29895E+07
 0.45070000E+02  0.23943E+07
 0.45120003E+02  0.14287E+07
 0.45170002E+02  0.77202E+05
 0.45220001E+02 -0.85740E+06
 0.45270000E+02 -0.75570E+06
 0.45320000E+02 -0.75841E+05
 0.45370003E+02  0.39507E+06
 0.45420002E+02  0.64507E+06
 0.45470001E+02  0.92971E+06
 0.45520000E+02  0.96371E+06
 0.45570000E+02  0.78788E+06
 0.45620003E+02  0.10867E+07
 0.45670002E+02  0.20637E+07
 0.45720001E+02  0.31204E+07
 0.45770000E+02  0.36263E+07
 0.45820000E+02  0.32884E+07
 0.45870003E+02  0.22906E+07
 0.45920002E+02  0.11286E+07
 0.45970001E+02  0.35079E+06
 0.46020000E+02  0.10331E+06
 0.46070000E+02  0.97811E+05
 0.46120003E+02  0.62935E+05
 0.46170002E+02 -0.50237E+06
 0.46220001E+02 -0.14437E+07
 0.46270000E+02 -0.19949E+07
 0.46320000E+02 -0.21453E+07
 0.46370003E+02 -0.19898E+07
 0.46420002E+02 -0.14518E+07
 0.46470001E+02 -0.11043E+07
 0.46520000E+02 -0.14646E+07
 0.46570000E+02 -0.19909E+07
 0.46620003E+02 -0.19189E+07
 0.46670002E+02 -0.15381E+07
 0.46720001E+02 -0.16236E+07
 0.46770000E+02 -0.18271E+07
 0.46820000E+02 -0.13316E+07
 0.46870003E+02 -0.42812E+06
 0.46920002E+02  0.30788E+06
 0.46970001E+02  0.95409E+06
 0.47020000E+02  0.15070E+07
 0.47070000E+02  0.18278E+07
 0.47120003E+02  0.19027E+07
 0.47170002E+02  0.13855E+07
 0.47220001E+02  0.33228E+06
 0.47270000E+02 -0.63883E+06
 0.47320000E+02 -0.12001E+07
 0.47370003E+02 -0.13332E+07
 0.47420002E+02 -0.15246E+07
 0.47470001E+02 -0.20071E+07
 0.47520000E+02 -0.21007E+07
 0.47570000E+02 -0.16810E+07
 0.47620003E+02 -0.14734E+07
 0.47670002E+02 -0.14079E+07
 0.47720001E+02 -0.10410E+07
 0.47770000E+02 -0.79274E+06
 0.47820000E+02 -0.70877E+06
 0.47870003E+02 -0.24804E+06
 0.47920002E+02  0.59029E+06
 0.47970001E+02  0.16064E+07
 0.48020000E+02  0.25025E+07
 0.48070000E+02  0.28765E+07
 0.48120003E+02  0.28524E+07
 0.48170002E+02  0.28146E+07
 0.48220001E+02  0.28888E+07
 0.48270000E+02  0.31262E+07
 0.48320000E+02  0.32486E+07
 0.48370003E+02  0.26634E+07
 0.48420002E+02  0.15908E+07
 0.48470001E+02  0.90004E+06
 0.48520000E+02  0.71310E+06
 0.48570000E+02  0.48341E+06
 0.48620003E+02 -0.24195E+06
 0.48670002E+02 -0.14639E+07
 0.48720001E+02 -0.26996E+07
 0.48770000E+02 -0.35869E+07
 0.48820000E+02 -0.40252E+07
 0.48870003E+02 -0.40595E+07
 0.48920002E+02 -0.39738E+07
 0.48970001E+02 -0.39493E+07
 0.49020000E+02 -0.38982E+07
 0.49070000E+02 -0.37704E+07
 0.49120003E+02 -0.36004E+07
 0.49170002E+02 -0.32050E+07
 0.49220001E+02 -0.24741E+07
 0.49270000E+02 -0.16460E+07
 0.49320000E+02 -0.88680E+06
 0.49370003E+02 -0.12303E+06
 0.49420002E+02  0.70373E+06
 0.49470001E+02  0.13582E+07
 0.49520000E+02  0.14803E+07
 0.49570000E+02  0.12894E+07
 0.49620003E+02  0.13386E+07
 0.49670002E+02  0.15899E+07
 0.49720001E+02  0.16999E+07
 0.49770000E+02  0.16009E+07
 0.49820000E+02  0.15690E+07
 0.49870003E+02  0.18419E+07
 0.49920002E+02  0.22959E+07
 0.49970001E+02  0.27943E+07
 0.50020000E+02  0.33041E+07
 0.50070000E+02  0.36369E+07
 0.50120003E+02  0.34753E+07
 0.50170002E+02  0.29073E+07
 0.50220001E+02  0.25542E+07
 0.50270000E+02  0.26122E+07
 0.50320000E+02  0.25525E+07
 0.50370003E+02  0.20368E+07
 0.50420002E+02  0.11585E+07
 0.50470001E+02  0.31674E+06
 0.50520000E+02  0.12491E+06
 0.50570000E+02  0.52861E+06
 0.50620003E+02  0.89708E+06
 0.50670002E+02  0.10393E+07
 0.50720001E+02  0.10285E+07
 0.50770000E+02  0.84648E+06
 0.50820000E+02  0.35663E+06
 0.50870003E+02 -0.31425E+06
 0.50920002E+02 -0.91040E+06
 0.50970001E+02 -0.17946E+07
 0.51020000E+02 -0.29923E+07
 0.51070000E+02 -0.37553E+07
 0.51120003E+02 -0.38129E+07
 0.51170002E+02 -0.36613E+07
 0.51220001E+02 -0.35637E+07
 0.51270000E+02 -0.34638E+07
 0.51320000E+02 -0.36145E+07
 0.51370003E+02 -0.37949E+07
 0.51420002E+02 -0.32733E+07
 0.51470001E+02 -0.20966E+07
 0.51520000E+02 -0.97340E+06
 0.51570000E+02 -0.27368E+06
 0.51620003E+02  0.23035E+06
 0.51670002E+02  0.58859E+06
 0.51720001E+02  0.52211E+06
 0.51770000E+02  0.27897E+06
 0.51820000E+02  0.16937E+06
 0.51870003E+02  0.24791E+05
 0.51920002E+02 -0.55509E+05
 0.51970001E+02  0.21783E+06
 0.52020000E+02  0.72006E+06
 0.52070000E+02  0.11316E+07
 0.52120003E+02  0.14211E+07
 0.52170002E+02  0.17357E+07
 0.52220001E+02  0.19452E+07
 0.52270000E+02  0.20158E+07
 0.52320000E+02  0.21663E+07
 0.52370003E+02  0.23123E+07
 0.52420002E+02  0.23599E+07
 0.52470001E+02  0.23231E+07
 0.52520000E+02  0.21379E+07
 0.52570000E+02  0.19111E+07
 0.52620003E+02  0.16195E+07
 0.52670002E+02  0.12069E+07
 0.52720001E+02  0.96357E+06
 0.52770000E+02  0.11292E+07
 0.52820000E+02  0.15678E+07
 0.52870003E+02  0.17688E+07
 0.52920002E+02  0.15263E+07
 0.52970001E+02  0.12332E+07
 0.53020000E+02  0.10631E+07
 0.53070000E+02  0.76417E+06
 0.53120003E+02  0.20533E+06
 0.53170002E+02 -0.46856E+06
 0.53220001E+02 -0.11481E+07
 0.53270000E+02 -0.16341E+07
 0.53320000E+02 -0.16757E+07
 0.53370003E+02 -0.13820E+07
 0.53420002E+02 -0.99734E+06
 0.53470001E+02 -0.52360E+06
 0.53520000E+02 -0.78230E+05
 0.53570000E+02 -0.83639E+05
 0.53620003E+02 -0.46079E+06
 0.53670002E+02 -0.75998E+06
 0.53720001E+02 -0.98821E+06
 0.53770000E+02 -0.12361E+07
 0.53820000E+02 -0.13064E+07
 0.53870003E+02 -0.10145E+07
 0.53920002E+02 -0.29655E+06
 0.53970001E+02  0.56795E+06
 0.54020000E+02  0.10692E+07
 0.54070000E+02  0.11410E+07
 0.54120003E+02  0.11413E+07
 0.54170002E+02  0.13177E+07
 0.54220001E+02  0.14630E+07
 0.54270000E+02  0.11244E+07
 0.54320000E+02  0.37199E+06
 0.54370003E+02 -0.10314E+06
 0.54420002E+02 -0.16628E+06
 0.54470001E+02 -0.23890E+06
 0.54520000E+02 -0.14930E+06
 0.54570000E+02  0.26551E+06
 0.54620003E+02  0.57295E+06
 0.54670002E+02  0.51569E+06
 0.54720001E+02  0.18120E+06
 0.54770000E+02 -0.25164E+06
 0.54820000E+02 -0.49367E+06
 0.54870003E+02 -0.33758E+06
 0.54920002E+02  0.20808E+06
 0.54970001E+02  0.88805E+06
 0.55020000E+02  0.12509E+07
 0.55070000E+02  0.10184E+07
 0.55120003E+02  0.32872E+06
 0.55170002E+02 -0.34790E+06
 0.55220001E+02 -0.77226E+06
 0.55270000E+02 -0.11378E+07
 0.55320000E+02 -0.15333E+07
 0.55370003E+02 -0.19865E+07
 0.55420002E+02 -0.25184E+07
 0.55470001E+02 -0.29276E+07
 0.55520000E+02 -0.30260E+07
 0.55570000E+02 -0.28132E+07
 0.55620003E+02 -0.24581E+07
 0.55670002E+02 -0.21139E+07
 0.55720001E+02 -0.18179E+07
 0.55770000E+02 -0.15788E+07
 0.55820000E+02 -0.12939E+07
 0.55870003E+02 -0.74399E+06
 0.55920002E+02  0.53082E+05
 0.55970001E+02  0.81227E+06
 0.56020000E+02  0.14484E+07
 0.56070000E+02  0.21200E+07
 0.56120003E+02  0.28274E+07
 0.56170002E+02  0.31964E+07
 0.56220001E+02  0.30330E+07
 0.56270000E+02  0.27025E+07
 0.56320000E+02  0.24875E+07
 0.56370003E+02  0.23788E+07
 0.56420002E+02  0.23279E+07
 0.56470001E+02  0.22498E+07
 0.56520000E+02  0.21086E+07
 0.56570000E+02  0.19612E+07
 0.56620003E+02  0.18528E+07
 0.56670002E+02  0.17007E+07
 0.56720001E+02  0.14451E+07
 0.56770000E+02  0.11837E+07
 0.56820000E+02  0.10519E+07
 0.56870003E+02  0.10493E+07
 0.56920002E+02  0.99247E+06
 0.56970001E+02  0.77796E+06
 0.57020000E+02  0.42533E+06
 0.57070000E+02 -0.16741E+06
 0.57120003E+02 -0.94301E+06
 0.57170002E+02 -0.14691E+07
 0.57220001E+02 -0.15799E+07
 0.57270000E+02 -0.16305E+07
 0.57320000E+02 -0.18736E+07
 0.57370003E+02 -0.21621E+07
 0.57420002E+02 -0.23886E+07
 0.57470001E+02 -0.26158E+07
 0.57520000E+02 -0.26743E+07
 0.57570000E+02 -0.24338E+07
 0.57620003E+02 -0.20377E+07
 0.57670002E+02 -0.15534E+07
 0.57720001E+02 -0.10338E+07
 0.57770000E+02 -0.52484E+06
 0.57820000E+02  0.53340E+04
 0.57870003E+02  0.46068E+06
 0.57920002E+02  0.68983E+06
 0.57970001E+02  0.73171E+06
 0.58020000E+02  0.74763E+06
 0.58070000E+02  0.75110E+06
 0.58120003E+02  0.64438E+06
 0.58170002E+02  0.53888E+06
 0.58220001E+02  0.61090E+06
 0.58270000E+02  0.72958E+06
 0.58320000E+02  0.73644E+06
 0.58370003E+02  0.79346E+06
 0.58420002E+02  0.95023E+06
 0.58470001E+02  0.91772E+06
 0.58520000E+02  0.62198E+06
 0.58570000E+02  0.27377E+06
 0.58620003E+02  0.79225E+05
 0.58670002E+02  0.81601E+05
 0.58720001E+02  0.22635E+06
 0.58770000E+02  0.60017E+06
 0.58820000E+02  0.99129E+06
 0.58870003E+02  0.95799E+06
 0.58920002E+02  0.58701E+06
 0.58970001E+02  0.12398E+05
 0.59020000E+02 -0.81155E+06
 0.59070000E+02 -0.14641E+07
 0.59120003E+02 -0.16189E+07
 0.59170002E+02 -0.14886E+07
 0.59220001E+02 -0.12996E+07
 0.59270000E+02 -0.11954E+07
 0.59320000E+02 -0.11536E+07
 0.59370003E+02 -0.90643E+06
 0.59420002E+02 -0.52525E+06
 0.59470001E+02 -0.34284E+06
 0.59520000E+02 -0.25980E+06
 0.59570000E+02 -0.88700E+05
 0.59620003E+02  0.43609E+05
 0.59670002E+02  0.73116E+05
 0.59720001E+02  0.13695E+06
 0.59770000E+02  0.27886E+06
 0.59820000E+02  0.32418E+06
 0.59870003E+02  0.14426E+06
 0.59920002E+02 -0.99141E+05
 0.59970001E+02 -0.17535E+06
 0.60020000E+02 -0.30121E+05
 0.60070000E+02  0.29623E+06
 0.60120003E+02  0.71050E+06
 0.60170002E+02  0.10670E+07
 0.60220001E+02  0.13084E+07
 0.60270000E+02  0.15142E+07
 0.60320000E+02  0.18207E+07
 0.60370003E+02  0.22501E+07
 0.60420002E+02  0.25818E+07
 0.60470001E+02  0.26362E+07
 0.60520000E+02  0.24462E+07
 0.60570000E+02  0.21530E+07
 0.60620003E+02  0.18830E+07
 0.60670002E+02  0.15811E+07
 0.60720001E+02  0.10999E+07
 0.60770000E+02  0.37772E+06
 0.60820000E+02 -0.43426E+06
 0.60870003E+02 -0.10853E+07
 0.60920002E+02 -0.15190E+07
 0.60970001E+02 -0.17960E+07
 0.61020000E+02 -0.19330E+07
 0.61070004E+02 -0.19521E+07
 0.61119999E+02 -0.18925E+07
 0.61170002E+02 -0.18343E+07
 0.61220005E+02 -0.18586E+07
 0.61270000E+02 -0.19897E+07
 0.61320004E+02 -0.22709E+07
 0.61369999E+02 -0.26361E+07
 0.61420002E+02 -0.28787E+07
 0.61470005E+02 -0.28680E+07
 0.61520000E+02 -0.25533E+07
 0.61570004E+02 -0.18971E+07
 0.61619999E+02 -0.10478E+07
 0.61670002E+02 -0.35658E+06
 0.61720005E+02  0.14816E+06
 0.61770000E+02  0.78721E+06
 0.61820004E+02  0.16119E+07
 0.61869999E+02  0.23848E+07
 0.61920002E+02  0.29395E+07
 0.61970005E+02  0.32487E+07
 0.62020000E+02  0.33591E+07
 0.62070004E+02  0.33718E+07
 0.62119999E+02  0.33380E+07
 0.62170002E+02  0.31761E+07
 0.62220005E+02  0.29609E+07
 0.62270000E+02  0.28955E+07
 0.62320004E+02  0.28411E+07
 0.62369999E+02  0.26139E+07
 0.62420002E+02  0.23694E+07
 0.62470005E+02  0.22449E+07
 0.62520000E+02  0.21437E+07
 0.62570004E+02  0.18182E+07
 0.62619999E+02  0.11710E+07
 0.62670002E+02  0.42554E+06
 0.62720005E+02 -0.14765E+06
 0.62770000E+02 -0.43094E+06
 0.62820004E+02 -0.52244E+06
 0.62869999E+02 -0.50773E+06
 0.62920002E+02 -0.33022E+06
 0.62970005E+02 -0.98890E+05
 0.63020000E+02  0.15368E+05
 0.63070004E+02  0.94980E+04
 0.63119999E+02 -0.11055E+06
 0.63170002E+02 -0.35313E+06
 0.63220005E+02 -0.68074E+06
 0.63270000E+02 -0.10149E+07
 0.63320004E+02 -0.12568E+07
 0.63369999E+02 -0.14766E+07
 0.63420002E+02 -0.17646E+07
 0.63470005E+02 -0.19721E+07
 0.63520000E+02 -0.19665E+07
 0.63570004E+02 -0.17605E+07
 0.63619999E+02 -0.14384E+07
 0.63670002E+02 -0.11504E+07
 0.63720005E+02 -0.96231E+06
 0.63770000E+02 -0.82295E+06
 0.63820004E+02 -0.65021E+06
 0.63869999E+02 -0.41954E+06
 0.63920002E+02 -0.23709E+06
 0.63970005E+02 -0.16945E+06
 0.64019997E+02 -0.22891E+06
 0.64070000E+02 -0.39055E+06
 0.64119995E+02 -0.57577E+06
 0.64169998E+02 -0.72889E+06
 0.64220001E+02 -0.67680E+06
 0.64269997E+02 -0.26640E+06
 0.64320000E+02  0.31243E+06
 0.64369995E+02  0.75979E+06
 0.64419998E+02  0.10435E+07
 0.64470001E+02  0.11882E+07
 0.64519997E+02  0.11410E+07
 0.64570000E+02  0.10120E+07
 0.64619995E+02  0.94835E+06
 0.64669998E+02  0.90787E+06
 0.64720001E+02  0.72719E+06
 0.64769997E+02  0.32109E+06
 0.64820000E+02 -0.18409E+06
 0.64869995E+02 -0.60820E+06
 0.64919998E+02 -0.84751E+06
 0.64970001E+02 -0.85417E+06
 0.65019997E+02 -0.66368E+06
 0.65070000E+02 -0.31546E+06
 0.65119995E+02  0.12058E+06
 0.65169998E+02  0.52220E+06
 0.65220001E+02  0.85281E+06
 0.65269997E+02  0.11026E+07
 0.65320000E+02  0.12218E+07
 0.65369995E+02  0.12561E+07
 0.65419998E+02  0.12663E+07
 0.65470001E+02  0.11825E+07
 0.65519997E+02  0.10610E+07
 0.65570000E+02  0.10201E+07
 0.65619995E+02  0.10071E+07
 0.65669998E+02  0.97446E+06
 0.65720001E+02  0.87610E+06
 0.65769997E+02  0.66271E+06
 0.65820000E+02  0.40907E+06
 0.65869995E+02  0.24366E+06
 0.65919998E+02  0.21818E+06
 0.65970001E+02  0.31646E+06
 0.66019997E+02  0.47604E+06
 0.66070000E+02  0.61581E+06
 0.66119995E+02  0.74896E+06
 0.66169998E+02  0.88028E+06
 0.66220001E+02  0.95405E+06
 0.66269997E+02  0.91491E+06
 0.66320000E+02  0.66144E+06
 0.66369995E+02  0.15167E+06
 0.66419998E+02 -0.46851E+06
 0.66470001E+02 -0.93202E+06
 0.66519997E+02 -0.11222E+07
 0.66570000E+02 -0.11621E+07
 0.66619995E+02 -0.11335E+07
 0.66669998E+02 -0.10405E+07
 0.66720001E+02 -0.10127E+07
 0.66769997E+02 -0.11480E+07
 0.66820000E+02 -0.13367E+07
 0.66869995E+02 -0.14592E+07
 0.66919998E+02 -0.15384E+07
 0.66970001E+02 -0.16096E+07
 0.67019997E+02 -0.15637E+07
 0.67070000E+02 -0.13766E+07
 0.67119995E+02 -0.12248E+07
 0.67169998E+02 -0.11503E+07
 0.67220001E+02 -0.10439E+07
 0.67269997E+02 -0.84665E+06
 0.67320000E+02 -0.53345E+06
 0.67369995E+02 -0.14435E+06
 0.67419998E+02  0.19847E+06
 0.67470001E+02  0.49931E+06
 0.67519997E+02  0.84880E+06
 0.67570000E+02  0.12054E+07
 0.67619995E+02  0.14451E+07
 0.67669998E+02  0.14656E+07
 0.67720001E+02  0.12924E+07
 0.67769997E+02  0.10377E+07
 0.67820000E+02  0.74175E+06
 0.67869995E+02  0.43559E+06
 0.67919998E+02  0.19704E+06
 0.67970001E+02  0.33733E+05
 0.68019997E+02 -0.72114E+05
 0.68070000E+02 -0.10040E+06
 0.68119995E+02 -0.90793E+05
 0.68169998E+02 -0.10307E+06
 0.68220001E+02 -0.99086E+05
 0.68269997E+02 -0.28549E+05
 0.68320000E+02  0.34587E+05
 0.68369995E+02 -0.53870E+04
 0.68419998E+02 -0.14970E+06
 0.68470001E+02 -0.32076E+06
 0.68519997E+02 -0.42724E+06
 0.68570000E+02 -0.46441E+06
 0.68619995E+02 -0.49432E+06
 0.68669998E+02 -0.46576E+06
 0.68720001E+02 -0.31489E+06
 0.68769997E+02 -0.19936E+06
 0.68820000E+02 -0.23742E+06
 0.68869995E+02 -0.33342E+06
 0.68919998E+02 -0.38438E+06
 0.68970001E+02 -0.36012E+06
 0.69019997E+02 -0.27593E+06
 0.69070000E+02 -0.20546E+06
 0.69119995E+02 -0.28384E+06
 0.69169998E+02 -0.52710E+06
 0.69220001E+02 -0.78580E+06
 0.69269997E+02 -0.95238E+06
 0.69320000E+02 -0.99879E+06
 0.69369995E+02 -0.94007E+06
 0.69419998E+02 -0.79752E+06
 0.69470001E+02 -0.63876E+06
 0.69519997E+02 -0.60020E+06
 0.69570000E+02 -0.66468E+06
 0.69619995E+02 -0.68362E+06
 0.69669998E+02 -0.63146E+06
 0.69720001E+02 -0.54268E+06
 0.69769997E+02 -0.37256E+06
 0.69820000E+02 -0.11346E+06
 0.69869995E+02  0.18063E+06
 0.69919998E+02  0.52923E+06
 0.69970001E+02  0.94411E+06
 0.70019997E+02  0.13002E+07
 0.70070000E+02  0.15034E+07
 0.70119995E+02  0.16226E+07
 0.70169998E+02  0.17049E+07
 0.70220001E+02  0.16880E+07
 0.70269997E+02  0.15233E+07
 0.70320000E+02  0.12225E+07
 0.70369995E+02  0.83913E+06
 0.70419998E+02  0.47221E+06
 0.70470001E+02  0.21646E+06
 0.70519997E+02  0.40882E+05
 0.70570000E+02 -0.14652E+06
 0.70619995E+02 -0.31929E+06
 0.70669998E+02 -0.40219E+06
 0.70720001E+02 -0.47642E+06
 0.70769997E+02 -0.66256E+06
 0.70820000E+02 -0.84690E+06
 0.70869995E+02 -0.88780E+06
 0.70919998E+02 -0.85562E+06
 0.70970001E+02 -0.88574E+06
 0.71019997E+02 -0.10051E+07
 0.71070000E+02 -0.10528E+07
 0.71119995E+02 -0.88049E+06
 0.71169998E+02 -0.52161E+06
 0.71220001E+02 -0.73533E+05
 0.71269997E+02  0.36763E+06
 0.71320000E+02  0.70851E+06
 0.71369995E+02  0.87493E+06
 0.71419998E+02  0.90233E+06
 0.71470001E+02  0.90303E+06
 0.71519997E+02  0.93084E+06
 0.71570000E+02  0.10256E+07
 0.71619995E+02  0.11938E+07
 0.71669998E+02  0.13362E+07
 0.71720001E+02  0.13910E+07
 0.71769997E+02  0.14416E+07
 0.71820000E+02  0.15784E+07
 0.71869995E+02  0.17842E+07
 0.71919998E+02  0.19798E+07
 0.71970001E+02  0.20879E+07
 0.72019997E+02  0.20963E+07
 0.72070000E+02  0.20357E+07
 0.72119995E+02  0.18263E+07
 0.72169998E+02  0.13836E+07
 0.72220001E+02  0.86441E+06
 0.72269997E+02  0.45210E+06
 0.72320000E+02  0.10014E+06
 0.72369995E+02 -0.27486E+06
 0.72419998E+02 -0.69926E+06
 0.72470001E+02 -0.12310E+07
 0.72519997E+02 -0.18296E+07
 0.72570000E+02 -0.23135E+07
 0.72619995E+02 -0.25281E+07
 0.72669998E+02 -0.24447E+07
 0.72720001E+02 -0.21490E+07
 0.72769997E+02 -0.17317E+07
 0.72820000E+02 -0.13315E+07
 0.72869995E+02 -0.10802E+07
 0.72919998E+02 -0.96016E+06
 0.72970001E+02 -0.94013E+06
 0.73019997E+02 -0.92848E+06
 0.73070000E+02 -0.77739E+06
 0.73119995E+02 -0.46971E+06
 0.73169998E+02 -0.70087E+05
 0.73220001E+02  0.32726E+06
 0.73269997E+02  0.65928E+06
 0.73320000E+02  0.96084E+06
 0.73369995E+02  0.12162E+07
 0.73419998E+02  0.14040E+07
 0.73470001E+02  0.16516E+07
 0.73519997E+02  0.19711E+07
 0.73570000E+02  0.22056E+07
 0.73619995E+02  0.22808E+07
 0.73669998E+02  0.21977E+07
 0.73720001E+02  0.19975E+07
 0.73769997E+02  0.17222E+07
 0.73820000E+02  0.14045E+07
 0.73869995E+02  0.11073E+07
 0.73919998E+02  0.86905E+06
 0.73970001E+02  0.68717E+06
 0.74019997E+02  0.53629E+06
 0.74070000E+02  0.42416E+06
 0.74119995E+02  0.34922E+06
 0.74169998E+02  0.26702E+06
 0.74220001E+02  0.17483E+06
 0.74269997E+02  0.90422E+05
 0.74320000E+02  0.27706E+05
 0.74369995E+02 -0.76164E+05
 0.74419998E+02 -0.26563E+06
 0.74470001E+02 -0.40882E+06
 0.74519997E+02 -0.44155E+06
 0.74570000E+02 -0.43244E+06
 0.74619995E+02 -0.40422E+06
 0.74669998E+02 -0.36733E+06
 0.74720001E+02 -0.32252E+06
 0.74769997E+02 -0.27354E+06
 0.74820000E+02 -0.29103E+06
 0.74869995E+02 -0.38985E+06
 0.74919998E+02 -0.45331E+06
 0.74970001E+02 -0.39660E+06
 0.75019997E+02 -0.26601E+06
 0.75070000E+02 -0.14737E+06
 0.75119995E+02 -0.76323E+05
 0.75169998E+02 -0.19078E+05
 0.75220001E+02  0.41749E+05
 0.75269997E+02  0.46789E+05
 0.75320000E+02 -0.48200E+05
 0.75369995E+02 -0.22857E+06
 0.75419998E+02 -0.45532E+06
 0.75470001E+02 -0.65871E+06
 0.75519997E+02 -0.73049E+06
 0.75570000E+02 -0.65629E+06
 0.75619995E+02 -0.56575E+06
 0.75669998E+02 -0.51400E+06
 0.75720001E+02 -0.46263E+06
 0.75769997E+02 -0.43069E+06
 0.75820000E+02 -0.38864E+06
 0.75869995E+02 -0.23204E+06
 0.75919998E+02 -0.75610E+04
 0.75970001E+02  0.19201E+06
 0.76019997E+02  0.39817E+06
 0.76070000E+02  0.60282E+06
 0.76119995E+02  0.76534E+06
 0.76169998E+02  0.87592E+06
 0.76220001E+02  0.91211E+06
 0.76269997E+02  0.84461E+06
 0.76320000E+02  0.70523E+06
 0.76369995E+02  0.64474E+06
 0.76419998E+02  0.72576E+06
 0.76470001E+02  0.84361E+06
 0.76519997E+02  0.94846E+06
 0.76570000E+02  0.10169E+07
 0.76619995E+02  0.94104E+06
 0.76669998E+02  0.69742E+06
 0.76720001E+02  0.43950E+06
 0.76769997E+02  0.29746E+06
 0.76820000E+02  0.23539E+06
 0.76869995E+02  0.13525E+06
 0.76919998E+02 -0.73703E+05
 0.76970001E+02 -0.34061E+06
 0.77019997E+02 -0.59111E+06
 0.77070000E+02 -0.82329E+06
 0.77119995E+02 -0.96655E+06
 0.77169998E+02 -0.92987E+06
 0.77220001E+02 -0.85150E+06
 0.77269997E+02 -0.91331E+06
 0.77320000E+02 -0.10144E+07
 0.77369995E+02 -0.99693E+06
 0.77419998E+02 -0.90586E+06
 0.77470001E+02 -0.82952E+06
 0.77519997E+02 -0.80235E+06
 0.77570000E+02 -0.81444E+06
 0.77619995E+02 -0.77680E+06
 0.77669998E+02 -0.65445E+06
 0.77720001E+02 -0.52959E+06
 0.77769997E+02 -0.39517E+06
 0.77820000E+02 -0.16493E+06
 0.77869995E+02  0.11594E+06
 0.77919998E+02  0.33729E+06
 0.77970001E+02  0.46196E+06
 0.78019997E+02  0.52875E+06
 0.78070000E+02  0.58806E+06
 0.78119995E+02  0.60195E+06
 0.78169998E+02  0.53852E+06
 0.78220001E+02  0.46112E+06
 0.78269997E+02  0.38848E+06
 0.78320000E+02  0.27036E+06
 0.78369995E+02  0.13330E+06
 0.78419998E+02  0.78066E+05
 0.78470001E+02  0.12047E+06
 0.78519997E+02  0.19039E+06
 0.78570000E+02  0.20993E+06
 0.78619995E+02  0.11324E+06
 0.78669998E+02 -0.46647E+05
 0.78720001E+02 -0.14904E+06
 0.78769997E+02 -0.17294E+06
 0.78820000E+02 -0.14728E+06
 0.78869995E+02 -0.65091E+05
 0.78919998E+02  0.80918E+05
 0.78970001E+02  0.23601E+06
 0.79019997E+02  0.34839E+06
 0.79070000E+02  0.45261E+06
 0.79119995E+02  0.55383E+06
 0.79169998E+02  0.57917E+06
 0.79220001E+02  0.51444E+06
 0.79269997E+02  0.39183E+06
 0.79320000E+02  0.25573E+06
 0.79369995E+02  0.20778E+06
 0.79419998E+02  0.27707E+06
 0.79470001E+02  0.35979E+06
 0.79519997E+02  0.36157E+06
 0.79570000E+02  0.27472E+06
 0.79619995E+02  0.11954E+06
 0.79669998E+02 -0.10234E+06
 0.79720001E+02 -0.36716E+06
 0.79769997E+02 -0.62825E+06
 0.79820000E+02 -0.82655E+06
 0.79869995E+02 -0.89125E+06
 0.79919998E+02 -0.82482E+06
 0.79970001E+02 -0.70470E+06
 0.80019997E+02 -0.56345E+06
 0.80070000E+02 -0.42636E+06
 0.80119995E+02 -0.39684E+06
 0.80169998E+02 -0.53859E+06
 0.80220001E+02 -0.78159E+06
 0.80269997E+02 -0.10082E+07
 0.80320000E+02 -0.11480E+07
 0.80369995E+02 -0.11844E+07
 0.80419998E+02 -0.11319E+07
 0.80470001E+02 -0.10108E+07
 0.80519997E+02 -0.82778E+06
 0.80570000E+02 -0.62218E+06
 0.80619995E+02 -0.45160E+06
 0.80669998E+02 -0.28534E+06
 0.80720001E+02 -0.96890E+05
 0.80769997E+02  0.37575E+05
 0.80820000E+02  0.87438E+05
 0.80869995E+02  0.10260E+06
 0.80919998E+02  0.11013E+06
 0.80970001E+02  0.11332E+06
 0.81019997E+02  0.14990E+06
 0.81070000E+02  0.24252E+06
 0.81119995E+02  0.34473E+06
 0.81169998E+02  0.45801E+06
 0.81220001E+02  0.63854E+06
 0.81269997E+02  0.87002E+06
 0.81320000E+02  0.10663E+07
 0.81369995E+02  0.11930E+07
 0.81419998E+02  0.12965E+07
 0.81470001E+02  0.13835E+07
 0.81519997E+02  0.14455E+07
 0.81570000E+02  0.15163E+07
 0.81619995E+02  0.16082E+07
 0.81669998E+02  0.16851E+07
 0.81720001E+02  0.16856E+07
 0.81769997E+02  0.16005E+07
 0.81820000E+02  0.14830E+07
 0.81869995E+02  0.13724E+07
 0.81919998E+02  0.12587E+07
 0.81970001E+02  0.11222E+07
 0.82019997E+02  0.10095E+07
 0.82070000E+02  0.95713E+06
 0.82119995E+02  0.89314E+06
 0.82169998E+02  0.74549E+06
 0.82220001E+02  0.54378E+06
 0.82269997E+02  0.32816E+06
 0.82320000E+02  0.90418E+05
 0.82369995E+02 -0.18373E+06
 0.82419998E+02 -0.49420E+06
 0.82470001E+02 -0.79178E+06
 0.82519997E+02 -0.10122E+07
 0.82570000E+02 -0.11178E+07
 0.82619995E+02 -0.10903E+07
 0.82669998E+02 -0.97901E+06
 0.82720001E+02 -0.84308E+06
 0.82769997E+02 -0.71623E+06
 0.82820000E+02 -0.69284E+06
 0.82869995E+02 -0.82661E+06
 0.82919998E+02 -0.10221E+07
 0.82970001E+02 -0.11779E+07
 0.83019997E+02 -0.12790E+07
 0.83070000E+02 -0.13324E+07
 0.83119995E+02 -0.13358E+07
 0.83169998E+02 -0.12689E+07
 0.83220001E+02 -0.11277E+07
 0.83269997E+02 -0.96004E+06
 0.83320000E+02 -0.76883E+06
 0.83369995E+02 -0.50454E+06
 0.83419998E+02 -0.19653E+06
 0.83470001E+02  0.87171E+05
 0.83519997E+02  0.32868E+06
 0.83570000E+02  0.51562E+06
 0.83619995E+02  0.62653E+06
 0.83669998E+02  0.66399E+06
 0.83720001E+02  0.65587E+06
 0.83769997E+02  0.63664E+06
 0.83820000E+02  0.64534E+06
 0.83869995E+02  0.70348E+06
 0.83919998E+02  0.77841E+06
 0.83970001E+02  0.84740E+06
 0.84019997E+02  0.93314E+06
 0.84070000E+02  0.10062E+07
 0.84119995E+02  0.10219E+07
 0.84169998E+02  0.10304E+07
 0.84220001E+02  0.10865E+07
 0.84269997E+02  0.11620E+07
 0.84320000E+02  0.12051E+07
 0.84369995E+02  0.11803E+07
 0.84419998E+02  0.10874E+07
 0.84470001E+02  0.97289E+06
 0.84519997E+02  0.85866E+06
 0.84570000E+02  0.72559E+06
 0.84619995E+02  0.59036E+06
 0.84669998E+02  0.50072E+06
 0.84720001E+02  0.45857E+06
 0.84769997E+02  0.42026E+06
 0.84820000E+02  0.36558E+06
 0.84869995E+02  0.29493E+06
 0.84919998E+02  0.21489E+06
 0.84970001E+02  0.12876E+06
 0.85019997E+02  0.22920E+05
 0.85070000E+02 -0.72313E+05
 0.85119995E+02 -0.11492E+06
 0.85169998E+02 -0.12437E+06
 0.85220001E+02 -0.16035E+06
 0.85269997E+02 -0.26424E+06
 0.85320000E+02 -0.39391E+06
 0.85369995E+02 -0.49489E+06
 0.85419998E+02 -0.58628E+06
 0.85470001E+02 -0.65538E+06
 0.85519997E+02 -0.63116E+06
 0.85570000E+02 -0.55571E+06
 0.85619995E+02 -0.52759E+06
 0.85669998E+02 -0.51034E+06
 0.85720001E+02 -0.44660E+06
 0.85769997E+02 -0.35094E+06
 0.85820000E+02 -0.21148E+06
 0.85869995E+02 -0.85290E+04
 0.85919998E+02  0.21627E+06
 0.85970001E+02  0.40548E+06
 0.86019997E+02  0.52010E+06
 0.86070000E+02  0.55332E+06
 0.86119995E+02  0.57397E+06
 0.86169998E+02  0.63023E+06
 0.86220001E+02  0.68168E+06
 0.86269997E+02  0.70166E+06
 0.86320000E+02  0.67122E+06
 0.86369995E+02  0.55281E+06
 0.86419998E+02  0.37909E+06
 0.86470001E+02  0.23110E+06
 0.86519997E+02  0.13577E+06
 0.86570000E+02  0.76895E+05
 0.86619995E+02  0.42183E+05
 0.86669998E+02 -0.59100E+03
 0.86720001E+02 -0.69606E+05
 0.86769997E+02 -0.10883E+06
 0.86820000E+02 -0.72593E+05
 0.86869995E+02  0.21080E+04
 0.86919998E+02  0.59635E+05
 0.86970001E+02  0.66028E+05
 0.87019997E+02  0.12230E+04
 0.87070000E+02 -0.11032E+06
 0.87119995E+02 -0.23552E+06
 0.87169998E+02 -0.38049E+06
 0.87220001E+02 -0.51321E+06
 0.87269997E+02 -0.57709E+06
 0.87320000E+02 -0.59025E+06
 0.87369995E+02 -0.60008E+06
 0.87419998E+02 -0.59816E+06
 0.87470001E+02 -0.56052E+06
 0.87519997E+02 -0.52438E+06
 0.87570000E+02 -0.54001E+06
 0.87619995E+02 -0.59469E+06
 0.87669998E+02 -0.63465E+06
 0.87720001E+02 -0.59960E+06
 0.87769997E+02 -0.46678E+06
 0.87820000E+02 -0.29928E+06
 0.87869995E+02 -0.16930E+06
 0.87919998E+02 -0.92091E+05
 0.87970001E+02 -0.70270E+05
 0.88019997E+02 -0.81465E+05
 0.88070000E+02 -0.86107E+05
 0.88119995E+02 -0.63054E+05
 0.88169998E+02  0.64470E+04
 0.88220001E+02  0.84546E+05
 0.88269997E+02  0.93583E+05
 0.88320000E+02  0.65698E+05
 0.88369995E+02  0.92366E+05
 0.88419998E+02  0.18024E+06
 0.88470001E+02  0.28650E+06
 0.88519997E+02  0.36797E+06
 0.88570000E+02  0.39034E+06
 0.88619995E+02  0.33955E+06
 0.88669998E+02  0.23653E+06
 0.88720001E+02  0.12681E+06
 0.88769997E+02  0.23523E+05
 0.88820000E+02 -0.77834E+05
 0.88869995E+02 -0.14928E+06
 0.88919998E+02 -0.15987E+06
 0.88970001E+02 -0.13268E+06
 0.89019997E+02 -0.11725E+06
 0.89070000E+02 -0.12327E+06
 0.89119995E+02 -0.11650E+06
 0.89169998E+02 -0.65994E+05
 0.89220001E+02  0.26470E+05
 0.89269997E+02  0.12760E+06
 0.89320000E+02  0.17348E+06
 0.89369995E+02  0.13725E+06
 0.89419998E+02  0.80198E+05
 0.89470001E+02  0.45483E+05
 0.89519997E+02  0.74670E+04
 0.89570000E+02 -0.24864E+05
 0.89619995E+02 -0.12106E+05
 0.89669998E+02  0.32695E+05
 0.89720001E+02  0.64188E+05
 0.89769997E+02  0.72424E+05
 0.89820000E+02  0.10438E+06
 0.89869995E+02  0.20163E+06
 0.89919998E+02  0.35706E+06
 0.89970001E+02  0.54033E+06
 0.90019997E+02  0.72504E+06
 0.90070000E+02  0.87812E+06
 0.90119995E+02  0.95361E+06
 0.90169998E+02  0.94818E+06
 0.90220001E+02  0.87770E+06
 0.90269997E+02  0.74246E+06
 0.90320000E+02  0.59191E+06
 0.90369995E+02  0.45723E+06
 0.90419998E+02  0.28427E+06
 0.90470001E+02  0.50401E+05
 0.90519997E+02 -0.20204E+06
 0.90570000E+02 -0.42963E+06
 0.90619995E+02 -0.60748E+06
 0.90669998E+02 -0.71985E+06
 0.90720001E+02 -0.74736E+06
 0.90769997E+02 -0.70375E+06
 0.90820000E+02 -0.64752E+06
 0.90869995E+02 -0.61271E+06
 0.90919998E+02 -0.58900E+06
 0.90970001E+02 -0.56145E+06
 0.91019997E+02 -0.52726E+06
 0.91070000E+02 -0.49642E+06
 0.91119995E+02 -0.47352E+06
 0.91169998E+02 -0.44278E+06
 0.91220001E+02 -0.37932E+06
 0.91269997E+02 -0.27166E+06
 0.91320000E+02 -0.12294E+06
 0.91369995E+02  0.56561E+05
 0.91419998E+02  0.21717E+06
 0.91470001E+02  0.28648E+06
 0.91519997E+02  0.23891E+06
 0.91570000E+02  0.11658E+06
 0.91619995E+02 -0.15721E+05
 0.91669998E+02 -0.12295E+06
 0.91720001E+02 -0.18379E+06
 0.91769997E+02 -0.18294E+06
 0.91820000E+02 -0.14058E+06
 0.91869995E+02 -0.94008E+05
 0.91919998E+02 -0.75554E+05
 0.91970001E+02 -0.10581E+06
 0.92019997E+02 -0.15805E+06
 0.92070000E+02 -0.19398E+06
 0.92119995E+02 -0.22236E+06
 0.92169998E+02 -0.23748E+06
 0.92220001E+02 -0.21055E+06
 0.92269997E+02 -0.15785E+06
 0.92320000E+02 -0.10883E+06
 0.92369995E+02 -0.40486E+05
 0.92419998E+02  0.76258E+05
 0.92470001E+02  0.20085E+06
 0.92519997E+02  0.27495E+06
 0.92570000E+02  0.28878E+06
 0.92619995E+02  0.24825E+06
 0.92669998E+02  0.14313E+06
 0.92720001E+02 -0.19977E+05
 0.92769997E+02 -0.20257E+06
 0.92820000E+02 -0.38437E+06
 0.92869995E+02 -0.56171E+06
 0.92919998E+02 -0.69138E+06
 0.92970001E+02 -0.72598E+06
 0.93019997E+02 -0.68319E+06
 0.93070000E+02 -0.61959E+06
 0.93119995E+02 -0.57737E+06
 0.93169998E+02 -0.57613E+06
 0.93220001E+02 -0.60668E+06
 0.93269997E+02 -0.63051E+06
 0.93320000E+02 -0.60602E+06
 0.93369995E+02 -0.52433E+06
 0.93419998E+02 -0.40886E+06
 0.93470001E+02 -0.26420E+06
 0.93519997E+02 -0.11626E+06
 0.93570000E+02 -0.42819E+05
 0.93619995E+02 -0.39616E+05
 0.93669998E+02 -0.13451E+05
 0.93720001E+02  0.59810E+05
 0.93769997E+02  0.13100E+06
 0.93820000E+02  0.18297E+06
 0.93869995E+02  0.23042E+06
 0.93919998E+02  0.27680E+06
 0.93970001E+02  0.32449E+06
 0.94019997E+02  0.37427E+06
 0.94070000E+02  0.41613E+06
 0.94119995E+02  0.44843E+06
 0.94169998E+02  0.46555E+06
 0.94220001E+02  0.44766E+06
 0.94269997E+02  0.40305E+06
 0.94320000E+02  0.36928E+06
 0.94369995E+02  0.36699E+06
 0.94419998E+02  0.39460E+06
 0.94470001E+02  0.45727E+06
 0.94519997E+02  0.54929E+06
 0.94570000E+02  0.62110E+06
 0.94619995E+02  0.62197E+06
 0.94669998E+02  0.55595E+06
 0.94720001E+02  0.45723E+06
 0.94769997E+02  0.34444E+06
 0.94820000E+02  0.22852E+06
 0.94869995E+02  0.13471E+06
 0.94919998E+02  0.93540E+05
 0.94970001E+02  0.98865E+05
 0.95019997E+02  0.12233E+06
 0.95070000E+02  0.15620E+06
 0.95119995E+02  0.17633E+06
 0.95169998E+02  0.15077E+06
 0.95220001E+02  0.10782E+06
 0.95269997E+02  0.10554E+06
 0.95320000E+02  0.15956E+06
 0.95369995E+02  0.26221E+06
 0.95419998E+02  0.39331E+06
 0.95470001E+02  0.50065E+06
 0.95519997E+02  0.55518E+06
 0.95570000E+02  0.57991E+06
 0.95619995E+02  0.60773E+06
 0.95669998E+02  0.64308E+06
 0.95720001E+02  0.67694E+06
 0.95769997E+02  0.71283E+06
 0.95820000E+02  0.73572E+06
 0.95869995E+02  0.71782E+06
 0.95919998E+02  0.65858E+06
 0.95970001E+02  0.57025E+06
 0.96019997E+02  0.46926E+06
 0.96070000E+02  0.38194E+06
 0.96119995E+02  0.31804E+06
 0.96169998E+02  0.27525E+06
 0.96220001E+02  0.26130E+06
 0.96269997E+02  0.26881E+06
 0.96320000E+02  0.26754E+06
 0.96369995E+02  0.23469E+06
 0.96419998E+02  0.17337E+06
 0.96470001E+02  0.99704E+05
 0.96519997E+02  0.27301E+05
 0.96570000E+02 -0.31276E+05
 0.96619995E+02 -0.79548E+05
 0.96669998E+02 -0.12560E+06
 0.96720001E+02 -0.15816E+06
 0.96769997E+02 -0.19126E+06
 0.96820000E+02 -0.26438E+06
 0.96869995E+02 -0.36470E+06
 0.96919998E+02 -0.44945E+06
 0.96970001E+02 -0.50423E+06
 0.97019997E+02 -0.52263E+06
 0.97070000E+02 -0.50470E+06
 0.97119995E+02 -0.44524E+06
 0.97169998E+02 -0.33170E+06
 0.97220001E+02 -0.19456E+06
 0.97269997E+02 -0.72234E+05
 0.97320000E+02  0.38309E+05
 0.97369995E+02  0.13132E+06
 0.97419998E+02  0.17528E+06
 0.97470001E+02  0.16783E+06
 0.97519997E+02  0.14297E+06
 0.97570000E+02  0.13622E+06
 0.97619995E+02  0.16296E+06
 0.97669998E+02  0.22788E+06
 0.97720001E+02  0.33886E+06
 0.97769997E+02  0.47482E+06
 0.97820000E+02  0.59934E+06
 0.97869995E+02  0.70660E+06
 0.97919998E+02  0.80851E+06
 0.97970001E+02  0.89871E+06
 0.98019997E+02  0.95293E+06
 0.98070000E+02  0.96246E+06
 0.98119995E+02  0.92666E+06
 0.98169998E+02  0.83285E+06
 0.98220001E+02  0.67331E+06
 0.98269997E+02  0.46734E+06
 0.98320000E+02  0.25429E+06
 0.98369995E+02  0.71235E+05
 0.98419998E+02 -0.69548E+05
 0.98470001E+02 -0.17900E+06
 0.98519997E+02 -0.26138E+06
 0.98570000E+02 -0.31091E+06
 0.98619995E+02 -0.31639E+06
 0.98669998E+02 -0.29378E+06
 0.98720001E+02 -0.29664E+06
 0.98769997E+02 -0.33783E+06
 0.98820000E+02 -0.38648E+06
 0.98869995E+02 -0.43807E+06
 0.98919998E+02 -0.49914E+06
 0.98970001E+02 -0.56693E+06
 0.99019997E+02 -0.65342E+06
 0.99070000E+02 -0.77009E+06
 0.99119995E+02 -0.90134E+06
 0.99169998E+02 -0.10061E+07
 0.99220001E+02 -0.10551E+07
 0.99269997E+02 -0.10603E+07
 0.99320000E+02 -0.10351E+07
 0.99369995E+02 -0.98000E+06
 0.99419998E+02 -0.91513E+06
 0.99470001E+02 -0.85511E+06
 0.99519997E+02 -0.78645E+06
 0.99570000E+02 -0.69369E+06
 0.99619995E+02 -0.56455E+06
 0.99669998E+02 -0.39642E+06
 0.99720001E+02 -0.21999E+06
 0.99769997E+02 -0.77589E+05
 0.99820000E+02  0.24660E+05
 0.99869995E+02  0.10135E+06
 0.99919998E+02  0.15496E+06
 0.99970001E+02  0.18873E+06
 0.10002000E+03  0.21949E+06
 0.10007000E+03  0.25830E+06
 0.10012000E+03  0.30481E+06
 0.10017000E+03  0.36218E+06
 0.10022000E+03  0.41390E+06
 0.10027000E+03  0.42481E+06
 0.10032000E+03  0.40627E+06
 0.10037000E+03  0.40577E+06
 0.10042000E+03  0.42808E+06
 0.10047000E+03  0.44725E+06
 0.10052000E+03  0.46559E+06
 0.10057000E+03  0.48909E+06
 0.10062000E+03  0.48670E+06
 0.10067000E+03  0.44102E+06
 0.10072000E+03  0.37742E+06
 0.10077000E+03  0.32124E+06
 0.10082000E+03  0.28251E+06
 0.10087000E+03  0.24872E+06
 0.10092000E+03  0.20190E+06
 0.10097000E+03  0.15724E+06
 0.10102000E+03  0.12205E+06
 0.10107000E+03  0.56740E+05
 0.10112000E+03 -0.68086E+05
 0.10117000E+03 -0.22462E+06
 0.10122000E+03 -0.37171E+06
 0.10127000E+03 -0.49253E+06
 0.10132000E+03 -0.56418E+06
 0.10137000E+03 -0.57408E+06
 0.10142000E+03 -0.54708E+06
 0.10147000E+03 -0.50915E+06
 0.10152000E+03 -0.47504E+06
 0.10157000E+03 -0.43921E+06
 0.10162000E+03 -0.38140E+06
 0.10167000E+03 -0.30101E+06
 0.10172000E+03 -0.19964E+06
 0.10177000E+03 -0.73701E+05
 0.10182000E+03  0.63053E+05
 0.10187000E+03  0.17652E+06
 0.10192000E+03  0.22799E+06
 0.10197000E+03  0.21336E+06
 0.10202000E+03  0.17630E+06
 0.10207000E+03  0.17255E+06
 0.10212000E+03  0.21989E+06
 0.10217000E+03  0.28532E+06
 0.10222000E+03  0.32625E+06
 0.10227000E+03  0.33952E+06
 0.10232000E+03  0.35938E+06
 0.10237000E+03  0.40849E+06
 0.10242000E+03  0.47153E+06
 0.10247000E+03  0.51072E+06
 0.10252000E+03  0.50057E+06
 0.10257000E+03  0.43747E+06
 0.10262000E+03  0.33317E+06
 0.10267000E+03  0.21090E+06
 0.10272000E+03  0.92024E+05
 0.10277000E+03 -0.80370E+04
 0.10282000E+03 -0.92883E+05
 0.10287000E+03 -0.17840E+06
 0.10292000E+03 -0.26161E+06
 0.10297000E+03 -0.32823E+06
 0.10302000E+03 -0.35715E+06
 0.10307000E+03 -0.32108E+06
 0.10312000E+03 -0.22732E+06
 0.10317000E+03 -0.11904E+06
 0.10322000E+03 -0.25212E+05
 0.10327000E+03  0.52242E+05
 0.10332000E+03  0.11340E+06
 0.10337000E+03  0.15342E+06
 0.10342000E+03  0.16537E+06
 0.10347000E+03  0.13463E+06
 0.10352000E+03  0.63731E+05
 0.10357000E+03 -0.67970E+04
 0.10362000E+03 -0.29032E+05
 0.10367000E+03  0.57660E+04
 0.10372000E+03  0.55321E+05
 0.10377000E+03  0.71973E+05
 0.10382000E+03  0.55795E+05
 0.10387000E+03  0.38497E+05
 0.10392000E+03  0.35114E+05
 0.10397000E+03  0.43382E+05
 0.10402000E+03  0.53158E+05
 0.10407000E+03  0.39412E+05
 0.10412000E+03 -0.24122E+05
 0.10417000E+03 -0.12104E+06
 0.10422000E+03 -0.20140E+06
 0.10427000E+03 -0.23737E+06
 0.10432000E+03 -0.22113E+06
 0.10437000E+03 -0.17508E+06
 0.10442000E+03 -0.15506E+06
 0.10447000E+03 -0.18593E+06
 0.10452000E+03 -0.25242E+06
 0.10457000E+03 -0.33660E+06
 0.10462000E+03 -0.40582E+06
 0.10467000E+03 -0.41424E+06
 0.10472000E+03 -0.35134E+06
 0.10477000E+03 -0.23926E+06
 0.10482000E+03 -0.10057E+06
 0.10487000E+03  0.38434E+05
 0.10492000E+03  0.16027E+06
 0.10497000E+03  0.27288E+06
 0.10502000E+03  0.38198E+06
 0.10507000E+03  0.46795E+06
 0.10512000E+03  0.50980E+06
 0.10517000E+03  0.50600E+06
 0.10522000E+03  0.45489E+06
 0.10527000E+03  0.36436E+06
 0.10532000E+03  0.27473E+06
 0.10537000E+03  0.20141E+06
 0.10542000E+03  0.11518E+06
 0.10547000E+03  0.95570E+04
 0.10552000E+03 -0.95117E+05
 0.10557000E+03 -0.18746E+06
 0.10562000E+03 -0.25213E+06
 0.10567000E+03 -0.26093E+06
 0.10572000E+03 -0.21439E+06
 0.10577000E+03 -0.14347E+06
 0.10582000E+03 -0.60228E+05
 0.10587000E+03  0.36811E+05
 0.10592000E+03  0.14035E+06
 0.10597000E+03  0.23947E+06
 0.10602000E+03  0.33524E+06
 0.10607000E+03  0.42954E+06
 0.10612000E+03  0.50053E+06
 0.10617000E+03  0.54211E+06
 0.10622000E+03  0.59003E+06
 0.10627000E+03  0.67579E+06
 0.10632000E+03  0.78675E+06
 0.10637000E+03  0.87988E+06
 0.10642000E+03  0.92330E+06
 0.10647000E+03  0.91078E+06
 0.10652000E+03  0.85582E+06
 0.10657000E+03  0.78321E+06
 0.10662000E+03  0.70719E+06
 0.10667000E+03  0.62560E+06
 0.10672000E+03  0.54052E+06
 0.10677000E+03  0.45213E+06
 0.10682000E+03  0.34172E+06
 0.10687000E+03  0.20335E+06
 0.10692000E+03  0.69329E+05
 0.10697000E+03 -0.23973E+05
 0.10702000E+03 -0.69474E+05
 0.10707000E+03 -0.86172E+05
 0.10712000E+03 -0.11118E+06
 0.10717000E+03 -0.16675E+06
 0.10722000E+03 -0.22917E+06
 0.10727000E+03 -0.27258E+06
 0.10732000E+03 -0.30116E+06
 0.10737000E+03 -0.32176E+06
 0.10742000E+03 -0.34034E+06
 0.10747000E+03 -0.37313E+06
 0.10752000E+03 -0.42578E+06
 0.10757000E+03 -0.48604E+06
 0.10762000E+03 -0.53965E+06
 0.10767000E+03 -0.57880E+06
 0.10772000E+03 -0.60701E+06
 0.10777000E+03 -0.62175E+06
 0.10782000E+03 -0.61188E+06
 0.10787000E+03 -0.59133E+06
 0.10792000E+03 -0.58295E+06
 0.10797000E+03 -0.58210E+06
 0.10802000E+03 -0.57811E+06
 0.10807000E+03 -0.57637E+06
 0.10812000E+03 -0.58146E+06
 0.10817000E+03 -0.57458E+06
 0.10822000E+03 -0.53285E+06
 0.10827000E+03 -0.46637E+06
 0.10832000E+03 -0.39800E+06
 0.10837000E+03 -0.32647E+06
 0.10842000E+03 -0.25124E+06
 0.10847000E+03 -0.20818E+06
 0.10852000E+03 -0.22204E+06
 0.10857000E+03 -0.26264E+06
 0.10862000E+03 -0.29002E+06
 0.10867000E+03 -0.28481E+06
 0.10872000E+03 -0.24926E+06
 0.10877000E+03 -0.20819E+06
 0.10882000E+03 -0.19025E+06
 0.10887000E+03 -0.20947E+06
 0.10892000E+03 -0.25128E+06
 0.10897000E+03 -0.28472E+06
 0.10902000E+03 -0.29578E+06
 0.10907000E+03 -0.28412E+06
 0.10912000E+03 -0.24049E+06
 0.10917000E+03 -0.16106E+06
 0.10922000E+03 -0.62626E+05
 0.10927000E+03  0.35094E+05
 0.10932000E+03  0.10989E+06
 0.10937000E+03  0.13598E+06
 0.10942000E+03  0.11683E+06
 0.10947000E+03  0.82564E+05
 0.10952000E+03  0.51675E+05
 0.10957000E+03  0.30294E+05
 0.10962000E+03  0.30197E+05
 0.10967000E+03  0.60084E+05
 0.10972000E+03  0.11752E+06
 0.10977000E+03  0.19022E+06
 0.10982000E+03  0.24651E+06
 0.10987000E+03  0.25660E+06
 0.10992000E+03  0.22440E+06
 0.10997000E+03  0.17486E+06
 0.11002000E+03  0.13570E+06
 0.11007000E+03  0.13199E+06
 0.11012000E+03  0.17104E+06
 0.11017000E+03  0.23796E+06
 0.11022000E+03  0.30030E+06
 0.11027000E+03  0.32717E+06
 0.11032000E+03  0.32657E+06
 0.11037000E+03  0.32422E+06
 0.11042000E+03  0.32140E+06
 0.11047000E+03  0.30718E+06
 0.11052000E+03  0.28460E+06
 0.11057000E+03  0.26444E+06
 0.11062000E+03  0.24532E+06
 0.11067000E+03  0.23165E+06
 0.11072000E+03  0.23949E+06
 0.11077000E+03  0.26346E+06
 0.11082000E+03  0.27740E+06
 0.11087000E+03  0.27282E+06
 0.11092000E+03  0.26104E+06
 0.11097000E+03  0.24059E+06
 0.11102000E+03  0.21337E+06
 0.11107000E+03  0.20654E+06
 0.11112000E+03  0.23372E+06
 0.11117000E+03  0.27350E+06
 0.11122000E+03  0.29670E+06
 0.11127000E+03  0.29372E+06
 0.11132000E+03  0.27351E+06
 0.11137000E+03  0.24323E+06
 0.11142000E+03  0.20466E+06
 0.11147000E+03  0.16225E+06
 0.11152000E+03  0.11411E+06
 0.11157000E+03  0.42582E+05
 0.11162000E+03 -0.56845E+05
 0.11167000E+03 -0.15869E+06
 0.11172000E+03 -0.25198E+06
 0.11177000E+03 -0.35732E+06
 0.11182000E+03 -0.47883E+06
 0.11187000E+03 -0.59308E+06
 0.11192000E+03 -0.69139E+06
 0.11197000E+03 -0.77412E+06
 0.11202000E+03 -0.82297E+06
 0.11207000E+03 -0.82399E+06
 0.11212000E+03 -0.78981E+06
 0.11217000E+03 -0.74740E+06
 0.11222000E+03 -0.72247E+06
 0.11227000E+03 -0.73068E+06
 0.11232000E+03 -0.75272E+06
 0.11237000E+03 -0.74216E+06
 0.11242000E+03 -0.68581E+06
 0.11247000E+03 -0.60611E+06
 0.11252000E+03 -0.52308E+06
 0.11257000E+03 -0.45033E+06
 0.11262000E+03 -0.39078E+06
 0.11267000E+03 -0.33321E+06
 0.11272000E+03 -0.25882E+06
 0.11277000E+03 -0.15503E+06
 0.11282000E+03 -0.29079E+05
 0.11287000E+03  0.99907E+05
 0.11292000E+03  0.21698E+06
 0.11297000E+03  0.31122E+06
 0.11302000E+03  0.37194E+06
 0.11307000E+03  0.39987E+06
 0.11312000E+03  0.40299E+06
 0.11317000E+03  0.38399E+06
 0.11322000E+03  0.34987E+06
 0.11327000E+03  0.31843E+06
 0.11332000E+03  0.30693E+06
 0.11337000E+03  0.31635E+06
 0.11342000E+03  0.32473E+06
 0.11347000E+03  0.31281E+06
 0.11352000E+03  0.28935E+06
 0.11357000E+03  0.27947E+06
 0.11362000E+03  0.29914E+06
 0.11367000E+03  0.34078E+06
 0.11372000E+03  0.38423E+06
 0.11377000E+03  0.40889E+06
 0.11382000E+03  0.41192E+06
 0.11387000E+03  0.41784E+06
 0.11392000E+03  0.44420E+06
 0.11397000E+03  0.47876E+06
 0.11402000E+03  0.49615E+06
 0.11407000E+03  0.48472E+06
 0.11412000E+03  0.45699E+06
 0.11417000E+03  0.43569E+06
 0.11422000E+03  0.43788E+06
 0.11427000E+03  0.46494E+06
 0.11432000E+03  0.49584E+06
 0.11437000E+03  0.50312E+06
 0.11442000E+03  0.46923E+06
 0.11447000E+03  0.39058E+06
 0.11452000E+03  0.28706E+06
 0.11457000E+03  0.18747E+06
 0.11462000E+03  0.10847E+06
 0.11467000E+03  0.54199E+05
 0.11472000E+03  0.12638E+05
 0.11477000E+03 -0.38374E+05
 0.11482000E+03 -0.10518E+06
 0.11487000E+03 -0.17602E+06
 0.11492000E+03 -0.23708E+06
 0.11497000E+03 -0.27714E+06
 0.11502000E+03 -0.29577E+06
 0.11507000E+03 -0.30221E+06
 0.11512000E+03 -0.30416E+06
 0.11517000E+03 -0.30670E+06
 0.11522000E+03 -0.31253E+06
 0.11527000E+03 -0.32066E+06
 0.11532000E+03 -0.33040E+06
 0.11537000E+03 -0.33933E+06
 0.11542000E+03 -0.34478E+06
 0.11547000E+03 -0.35426E+06
 0.11552000E+03 -0.36485E+06
 0.11557000E+03 -0.35612E+06
 0.11562000E+03 -0.32130E+06
 0.11567000E+03 -0.25807E+06
 0.11572000E+03 -0.15318E+06
 0.11577000E+03 -0.11582E+05
 0.11582000E+03  0.13004E+06
 0.11587000E+03  0.23640E+06
 0.11592000E+03  0.30455E+06
 0.11597000E+03  0.34939E+06
 0.11602000E+03  0.38383E+06
 0.11607000E+03  0.42052E+06
 0.11612000E+03  0.46005E+06
 0.11617000E+03  0.48614E+06
 0.11622000E+03  0.49198E+06
 0.11627000E+03  0.48553E+06
 0.11632000E+03  0.47035E+06
 0.11637000E+03  0.44017E+06
 0.11642000E+03  0.38304E+06
 0.11647000E+03  0.29529E+06
 0.11652000E+03  0.19009E+06
 0.11657000E+03  0.83852E+05
 0.11662000E+03 -0.15527E+05
 0.11667000E+03 -0.99719E+05
 0.11672000E+03 -0.15278E+06
 0.11677000E+03 -0.16212E+06
 0.11682000E+03 -0.13260E+06
 0.11687000E+03 -0.93895E+05
 0.11692000E+03 -0.80986E+05
 0.11697000E+03 -0.10097E+06
 0.11702000E+03 -0.13524E+06
 0.11707000E+03 -0.16165E+06
 0.11712000E+03 -0.16715E+06
 0.11717000E+03 -0.14815E+06
 0.11722000E+03 -0.10054E+06
 0.11727000E+03 -0.30327E+05
 0.11732000E+03  0.34511E+05
 0.11737000E+03  0.72425E+05
 0.11742000E+03  0.85778E+05
 0.11747000E+03  0.84876E+05
 0.11752000E+03  0.72621E+05
 0.11757000E+03  0.51005E+05
 0.11762000E+03  0.27965E+05
 0.11767000E+03 -0.45850E+04
 0.11772000E+03 -0.55857E+05
 0.11777000E+03 -0.10232E+06
 0.11782000E+03 -0.11228E+06
 0.11787000E+03 -0.78240E+05
 0.11792000E+03 -0.14558E+05
 0.11797000E+03  0.64250E+05
 0.11802000E+03  0.14600E+06
 0.11807000E+03  0.20934E+06
 0.11812000E+03  0.24455E+06
 0.11817000E+03  0.26327E+06
 0.11822000E+03  0.27063E+06
 0.11827000E+03  0.25761E+06
 0.11832000E+03  0.21753E+06
 0.11837000E+03  0.14810E+06
 0.11842000E+03  0.57111E+05
 0.11847000E+03 -0.30278E+05
 0.11852000E+03 -0.96117E+05
 0.11857000E+03 -0.14155E+06
 0.11862000E+03 -0.17162E+06
 0.11867000E+03 -0.18492E+06
 0.11872000E+03 -0.17222E+06
 0.11877000E+03 -0.13826E+06
 0.11882000E+03 -0.11094E+06
 0.11887000E+03 -0.11660E+06
 0.11892000E+03 -0.16621E+06
 0.11897000E+03 -0.24544E+06
 0.11902000E+03 -0.32432E+06
 0.11907000E+03 -0.39725E+06
 0.11912000E+03 -0.47714E+06
 0.11917000E+03 -0.56225E+06
 0.11922000E+03 -0.64184E+06
 0.11927000E+03 -0.70700E+06
 0.11932000E+03 -0.74699E+06
 0.11937000E+03 -0.75732E+06
 0.11942000E+03 -0.74156E+06
 0.11947000E+03 -0.69839E+06
 0.11952000E+03 -0.62952E+06
 0.11957000E+03 -0.55537E+06
 0.11962000E+03 -0.49152E+06
 0.11967000E+03 -0.42843E+06
 0.11972000E+03 -0.36006E+06
 0.11977000E+03 -0.29610E+06
 0.11982000E+03 -0.23781E+06
 0.11987000E+03 -0.18176E+06
 0.11992000E+03 -0.14166E+06
 0.11997000E+03 -0.13026E+06
 0.12002000E+03 -0.13477E+06
 0.12007000E+03 -0.13764E+06
 0.12012000E+03 -0.13370E+06
 0.12017000E+03 -0.11322E+06
 0.12022000E+03 -0.67585E+05
 0.12027000E+03 -0.96640E+04
 0.12032000E+03  0.38467E+05
 0.12037000E+03  0.61816E+05
 0.12042000E+03  0.54119E+05
 0.12047000E+03  0.19102E+05
 0.12052000E+03 -0.30751E+05
 0.12057000E+03 -0.72262E+05
 0.12062000E+03 -0.74423E+05
 0.12067000E+03 -0.25466E+05
 0.12072000E+03  0.51810E+05
 0.12077000E+03  0.12371E+06
 0.12082000E+03  0.17017E+06
 0.12087000E+03  0.19009E+06
 0.12092000E+03  0.19716E+06
 0.12097000E+03  0.21170E+06
 0.12102000E+03  0.25044E+06
 0.12107000E+03  0.31714E+06
 0.12112000E+03  0.39661E+06
 0.12117000E+03  0.46182E+06
 0.12122000E+03  0.49339E+06
 0.12127000E+03  0.49080E+06
 0.12132000E+03  0.46501E+06
 0.12137000E+03  0.42737E+06
 0.12142000E+03  0.39389E+06
 0.12147000E+03  0.38029E+06
 0.12152000E+03  0.38732E+06
 0.12157000E+03  0.41265E+06
 0.12162000E+03  0.45815E+06
 0.12167000E+03  0.51192E+06
 0.12172000E+03  0.55041E+06
 0.12177000E+03  0.55652E+06
 0.12182000E+03  0.52835E+06
 0.12187000E+03  0.48054E+06
 0.12192000E+03  0.42924E+06
 0.12197000E+03  0.37912E+06
 0.12202000E+03  0.32562E+06
 0.12207000E+03  0.26166E+06
 0.12212000E+03  0.18431E+06
 0.12217000E+03  0.93227E+05
 0.12222000E+03 -0.83700E+03
 0.12227000E+03 -0.76681E+05
 0.12232000E+03 -0.13647E+06
 0.12237000E+03 -0.19349E+06
 0.12242000E+03 -0.23393E+06
 0.12247000E+03 -0.24188E+06
 0.12252000E+03 -0.22966E+06
 0.12257000E+03 -0.21810E+06
 0.12262000E+03 -0.21567E+06
 0.12267000E+03 -0.22608E+06
 0.12272000E+03 -0.24659E+06
 0.12277000E+03 -0.26263E+06
 0.12282000E+03 -0.26243E+06
 0.12287000E+03 -0.24629E+06
 0.12292000E+03 -0.21948E+06
 0.12297000E+03 -0.18340E+06
 0.12302000E+03 -0.13869E+06
 0.12307000E+03 -0.97609E+05
 0.12312000E+03 -0.75959E+05
 0.12317000E+03 -0.74598E+05
 0.12322000E+03 -0.88750E+05
 0.12327000E+03 -0.11854E+06
 0.12332000E+03 -0.16482E+06
 0.12337000E+03 -0.21755E+06
 0.12342000E+03 -0.25422E+06
 0.12347000E+03 -0.26637E+06
 0.12352000E+03 -0.26698E+06
 0.12357000E+03 -0.26690E+06
 0.12362000E+03 -0.26975E+06
 0.12367000E+03 -0.28852E+06
 0.12372000E+03 -0.33455E+06
 0.12377000E+03 -0.39012E+06
 0.12382000E+03 -0.42380E+06
 0.12387000E+03 -0.42178E+06
 0.12392000E+03 -0.39509E+06
 0.12397000E+03 -0.36364E+06
 0.12402000E+03 -0.33868E+06
 0.12407000E+03 -0.32611E+06
 0.12412000E+03 -0.32061E+06
 0.12417000E+03 -0.30153E+06
 0.12422000E+03 -0.25827E+06
 0.12427000E+03 -0.20599E+06
 0.12432000E+03 -0.16138E+06
 0.12437000E+03 -0.11549E+06
 0.12442000E+03 -0.56010E+05
 0.12447000E+03  0.97700E+04
 0.12452000E+03  0.74769E+05
 0.12457000E+03  0.14337E+06
 0.12462000E+03  0.21462E+06
 0.12467000E+03  0.27886E+06
 0.12472000E+03  0.33508E+06
 0.12477000E+03  0.38708E+06
 0.12482000E+03  0.43427E+06
 0.12487000E+03  0.47955E+06
 0.12492000E+03  0.52577E+06
 0.12497000E+03  0.57377E+06
 0.12502000E+03  0.62195E+06
 0.12507000E+03  0.65921E+06
 0.12512000E+03  0.67323E+06
 0.12517001E+03  0.65354E+06
 0.12521999E+03  0.59764E+06
 0.12527000E+03  0.52729E+06
 0.12532000E+03  0.46854E+06
 0.12537000E+03  0.42546E+06
 0.12542001E+03  0.38570E+06
 0.12546999E+03  0.33478E+06
 0.12552000E+03  0.27708E+06
 0.12557000E+03  0.23560E+06
 0.12562000E+03  0.22315E+06
 0.12567001E+03  0.23545E+06
 0.12571999E+03  0.26655E+06
 0.12577000E+03  0.30827E+06
 0.12582000E+03  0.33762E+06
 0.12587000E+03  0.33203E+06
 0.12592001E+03  0.28913E+06
 0.12596999E+03  0.21744E+06
 0.12602000E+03  0.13535E+06
 0.12607000E+03  0.74133E+05
 0.12612000E+03  0.49458E+05
 0.12617001E+03  0.41200E+05
 0.12621999E+03  0.22368E+05
 0.12627000E+03 -0.65140E+04
 0.12632000E+03 -0.28994E+05
 0.12637000E+03 -0.44140E+05
 0.12642001E+03 -0.68751E+05
 0.12646999E+03 -0.11527E+06
 0.12652000E+03 -0.17696E+06
 0.12657000E+03 -0.23771E+06
 0.12662000E+03 -0.29164E+06
 0.12667001E+03 -0.34052E+06
 0.12671999E+03 -0.38409E+06
 0.12677000E+03 -0.42077E+06
 0.12682000E+03 -0.44393E+06
 0.12687000E+03 -0.45017E+06
 0.12692001E+03 -0.44267E+06
 0.12696999E+03 -0.41485E+06
 0.12702000E+03 -0.35817E+06
 0.12707000E+03 -0.28016E+06
 0.12712000E+03 -0.20216E+06
 0.12717001E+03 -0.14260E+06
 0.12721999E+03 -0.10538E+06
 0.12727000E+03 -0.88785E+05
 0.12732000E+03 -0.84103E+05
 0.12737000E+03 -0.72383E+05
 0.12742001E+03 -0.49795E+05
 0.12746999E+03 -0.33885E+05
 0.12752000E+03 -0.37945E+05
 0.12757000E+03 -0.56238E+05
 0.12762000E+03 -0.72524E+05
 0.12767001E+03 -0.74291E+05
 0.12771999E+03 -0.56097E+05
 0.12777000E+03 -0.21365E+05
 0.12782000E+03  0.13707E+05
 0.12787000E+03  0.30061E+05
 0.12792001E+03  0.26801E+05
 0.12796999E+03  0.15520E+05
 0.12802000E+03 -0.23900E+04
 0.12807001E+03 -0.26946E+05
 0.12812001E+03 -0.46475E+05
 0.12817001E+03 -0.56418E+05
 0.12822000E+03 -0.71505E+05
 0.12827000E+03 -0.10631E+06
 0.12832001E+03 -0.15501E+06
 0.12837001E+03 -0.19687E+06
 0.12842001E+03 -0.21641E+06
 0.12847000E+03 -0.20887E+06
 0.12852000E+03 -0.17838E+06
 0.12857001E+03 -0.13572E+06
 0.12862001E+03 -0.84559E+05
 0.12867001E+03 -0.30115E+05
 0.12872000E+03  0.12027E+05
 0.12877000E+03  0.43666E+05
 0.12882001E+03  0.80349E+05
 0.12887001E+03  0.12259E+06
 0.12892001E+03  0.16362E+06
 0.12897000E+03  0.20222E+06
 0.12902000E+03  0.24328E+06
 0.12907001E+03  0.29277E+06
 0.12912001E+03  0.34689E+06
 0.12917001E+03  0.39929E+06
 0.12922000E+03  0.44588E+06
 0.12927000E+03  0.46856E+06
 0.12932001E+03  0.44856E+06
 0.12937001E+03  0.39348E+06
 0.12942001E+03  0.32477E+06
 0.12947000E+03  0.25808E+06
 0.12952000E+03  0.19764E+06
 0.12957001E+03  0.13942E+06
 0.12962001E+03  0.79394E+05
 0.12967001E+03  0.15912E+05
 0.12972000E+03 -0.49148E+05
 0.12977000E+03 -0.11420E+06
 0.12982001E+03 -0.17654E+06
 0.12987001E+03 -0.22848E+06
 0.12992001E+03 -0.26276E+06
 0.12997000E+03 -0.27797E+06
 0.13002000E+03 -0.28210E+06
 0.13007001E+03 -0.28251E+06
 0.13012001E+03 -0.27487E+06
 0.13017001E+03 -0.25486E+06
 0.13022000E+03 -0.22842E+06
 0.13027000E+03 -0.20231E+06
 0.13032001E+03 -0.18126E+06
 0.13037001E+03 -0.17434E+06
 0.13042001E+03 -0.18977E+06
 0.13047000E+03 -0.22693E+06
 0.13052000E+03 -0.27712E+06
 0.13057001E+03 -0.33542E+06
 0.13062001E+03 -0.40127E+06
 0.13067001E+03 -0.46089E+06
 0.13072000E+03 -0.49066E+06
 0.13077000E+03 -0.48634E+06
 0.13082001E+03 -0.46636E+06
 0.13087001E+03 -0.44286E+06
 0.13092001E+03 -0.41480E+06
 0.13097000E+03 -0.38129E+06
 0.13102000E+03 -0.34590E+06
 0.13107001E+03 -0.31780E+06
 0.13112001E+03 -0.30385E+06
 0.13117001E+03 -0.29676E+06
 0.13122000E+03 -0.27950E+06
 0.13127000E+03 -0.24153E+06
 0.13132001E+03 -0.18828E+06
 0.13137001E+03 -0.13151E+06
 0.13142001E+03 -0.76130E+05
 0.13147000E+03 -0.23291E+05
 0.13152000E+03  0.26967E+05
 0.13157001E+03  0.84654E+05
 0.13162001E+03  0.16303E+06
 0.13167001E+03  0.25959E+06
 0.13172000E+03  0.35551E+06
 0.13177000E+03  0.43169E+06
 0.13182001E+03  0.48125E+06
 0.13187001E+03  0.50953E+06
 0.13192001E+03  0.52526E+06
 0.13197000E+03  0.53002E+06
 0.13202000E+03  0.52449E+06
 0.13207001E+03  0.51804E+06
 0.13212001E+03  0.51380E+06
 0.13217001E+03  0.50422E+06
 0.13222000E+03  0.49149E+06
 0.13227000E+03  0.48335E+06
 0.13232001E+03  0.47417E+06
 0.13237001E+03  0.45083E+06
 0.13242001E+03  0.40377E+06
 0.13247000E+03  0.33715E+06
 0.13252000E+03  0.26783E+06
 0.13257001E+03  0.20641E+06
 0.13262001E+03  0.15330E+06
 0.13267001E+03  0.10759E+06
 0.13272000E+03  0.68419E+05
 0.13277000E+03  0.29565E+05
 0.13282001E+03 -0.14004E+05
 0.13287001E+03 -0.54608E+05
 0.13292001E+03 -0.79300E+05
 0.13297000E+03 -0.81294E+05
 0.13302000E+03 -0.62929E+05
 0.13307001E+03 -0.39494E+05
 0.13312001E+03 -0.29519E+05
 0.13317001E+03 -0.33542E+05
 0.13322000E+03 -0.41669E+05
 0.13327000E+03 -0.49924E+05
 0.13332001E+03 -0.57891E+05
 0.13337001E+03 -0.65285E+05
 0.13342001E+03 -0.69280E+05
 0.13347000E+03 -0.67963E+05
 0.13352000E+03 -0.65837E+05
 0.13357001E+03 -0.67264E+05
 0.13362001E+03 -0.67536E+05
 0.13367001E+03 -0.58111E+05
 0.13372000E+03 -0.37045E+05
 0.13377000E+03 -0.76330E+04
 0.13382001E+03  0.21551E+05
 0.13387001E+03  0.35474E+05
 0.13392001E+03  0.24332E+05
 0.13397000E+03 -0.11981E+05
 0.13402000E+03 -0.66259E+05
 0.13407001E+03 -0.12338E+06
 0.13412001E+03 -0.17002E+06
 0.13417001E+03 -0.20323E+06
 0.13422000E+03 -0.22936E+06
 0.13427000E+03 -0.25427E+06
 0.13432001E+03 -0.27788E+06
 0.13437001E+03 -0.30194E+06
 0.13442001E+03 -0.32996E+06
 0.13447000E+03 -0.36500E+06
 0.13452000E+03 -0.40683E+06
 0.13457001E+03 -0.44414E+06
 0.13462001E+03 -0.46332E+06
 0.13467001E+03 -0.46165E+06
 0.13472000E+03 -0.44236E+06
 0.13477000E+03 -0.41135E+06
 0.13482001E+03 -0.38287E+06
 0.13487001E+03 -0.37436E+06
 0.13492001E+03 -0.39142E+06
 0.13497000E+03 -0.42268E+06
 0.13502000E+03 -0.45456E+06
 0.13507001E+03 -0.47982E+06
 0.13512001E+03 -0.49134E+06
 0.13517001E+03 -0.48444E+06
 0.13522000E+03 -0.45736E+06
 0.13527000E+03 -0.40943E+06
 0.13532001E+03 -0.34593E+06
 0.13537001E+03 -0.27763E+06
 0.13542001E+03 -0.21653E+06
 0.13547000E+03 -0.16771E+06
 0.13552000E+03 -0.12582E+06
 0.13557001E+03 -0.80231E+05
 0.13562001E+03 -0.20122E+05
 0.13567001E+03  0.53457E+05
 0.13572000E+03  0.12586E+06
 0.13577000E+03  0.18468E+06
 0.13582001E+03  0.22401E+06
 0.13587001E+03  0.24584E+06
 0.13592001E+03  0.26285E+06
 0.13597000E+03  0.28860E+06
 0.13602000E+03  0.32794E+06
 0.13607001E+03  0.37720E+06
 0.13612001E+03  0.42659E+06
 0.13617001E+03  0.46142E+06
 0.13622000E+03  0.47196E+06
 0.13627000E+03  0.45941E+06
 0.13632001E+03  0.42648E+06
 0.13637001E+03  0.37903E+06
 0.13642001E+03  0.33140E+06
 0.13647000E+03  0.29505E+06
 0.13652000E+03  0.26891E+06
 0.13657001E+03  0.24530E+06
 0.13662001E+03  0.22229E+06
 0.13667001E+03  0.20025E+06
 0.13672000E+03  0.17587E+06
 0.13677000E+03  0.15195E+06
 0.13682001E+03  0.13473E+06
 0.13687001E+03  0.12687E+06
 0.13692001E+03  0.13237E+06
 0.13697000E+03  0.15141E+06
 0.13702000E+03  0.17306E+06
 0.13707001E+03  0.18582E+06
 0.13712001E+03  0.18770E+06
 0.13717001E+03  0.18179E+06
 0.13722000E+03  0.17379E+06
 0.13727000E+03  0.17139E+06
 0.13732001E+03  0.17412E+06
 0.13737001E+03  0.17132E+06
 0.13742001E+03  0.15794E+06
 0.13747000E+03  0.13832E+06
 0.13752000E+03  0.11207E+06
 0.13757001E+03  0.76652E+05
 0.13762001E+03  0.38381E+05
 0.13767001E+03  0.41410E+04
 0.13772000E+03 -0.27407E+05
 0.13777000E+03 -0.58784E+05
 0.13782001E+03 -0.86035E+05
 0.13787001E+03 -0.10480E+06
 0.13792001E+03 -0.11400E+06
 0.13797000E+03 -0.11159E+06
 0.13802000E+03 -0.99773E+05
 0.13807001E+03 -0.88026E+05
 0.13812001E+03 -0.84463E+05
 0.13817001E+03 -0.89409E+05
 0.13822000E+03 -0.97704E+05
 0.13827000E+03 -0.10483E+06
 0.13832001E+03 -0.11014E+06
 0.13837001E+03 -0.11469E+06
 0.13842001E+03 -0.11917E+06
 0.13847000E+03 -0.12485E+06
 0.13852000E+03 -0.13442E+06
 0.13857001E+03 -0.15020E+06
 0.13862001E+03 -0.16995E+06
 0.13867001E+03 -0.18871E+06
 0.13872000E+03 -0.20766E+06
 0.13877000E+03 -0.23196E+06
 0.13882001E+03 -0.26290E+06
 0.13887001E+03 -0.30031E+06
 0.13892001E+03 -0.34224E+06
 0.13897000E+03 -0.37905E+06
 0.13902000E+03 -0.39638E+06
 0.13907001E+03 -0.38948E+06
 0.13912001E+03 -0.36985E+06
 0.13917001E+03 -0.34913E+06
 0.13922000E+03 -0.32625E+06
 0.13927000E+03 -0.29606E+06
 0.13932001E+03 -0.25608E+06
 0.13937001E+03 -0.20225E+06
 0.13942001E+03 -0.13061E+06
 0.13947000E+03 -0.45087E+05
 0.13952000E+03  0.43055E+05
 0.13957001E+03  0.12639E+06
 0.13962001E+03  0.20360E+06
 0.13967001E+03  0.27436E+06
 0.13972000E+03  0.34120E+06
 0.13977000E+03  0.40601E+06
 0.13982001E+03  0.46326E+06
 0.13987001E+03  0.50331E+06
 0.13992001E+03  0.52109E+06
 0.13997000E+03  0.52247E+06
 0.14002000E+03  0.51613E+06
 0.14007001E+03  0.50015E+06
 0.14012001E+03  0.47106E+06
 0.14017001E+03  0.43597E+06
 0.14022000E+03  0.40450E+06
 0.14027000E+03  0.37955E+06
 0.14032001E+03  0.36024E+06
 0.14037001E+03  0.34781E+06
 0.14042001E+03  0.34004E+06
 0.14047000E+03  0.32779E+06
 0.14052000E+03  0.30457E+06
 0.14057001E+03  0.27195E+06
 0.14062001E+03  0.23530E+06
 0.14067001E+03  0.20173E+06
 0.14072000E+03  0.17824E+06
 0.14077000E+03  0.16174E+06
 0.14082001E+03  0.14242E+06
 0.14087001E+03  0.11855E+06
 0.14092001E+03  0.92907E+05
 0.14097000E+03  0.69234E+05
 0.14102000E+03  0.56659E+05
 0.14107001E+03  0.63572E+05
 0.14112001E+03  0.88835E+05
 0.14117001E+03  0.11709E+06
 0.14122000E+03  0.12837E+06
 0.14127000E+03  0.11688E+06
 0.14132001E+03  0.88470E+05
 0.14137001E+03  0.50814E+05
 0.14142001E+03  0.13867E+05
 0.14147000E+03 -0.15167E+05
 0.14152000E+03 -0.37886E+05
 0.14157001E+03 -0.62971E+05
 0.14162001E+03 -0.97839E+05
 0.14167001E+03 -0.13859E+06
 0.14172000E+03 -0.17611E+06
 0.14177000E+03 -0.20578E+06
 0.14182001E+03 -0.22391E+06
 0.14187001E+03 -0.22860E+06
 0.14192001E+03 -0.22426E+06
 0.14197000E+03 -0.21840E+06
 0.14202000E+03 -0.21579E+06
 0.14207001E+03 -0.21717E+06
 0.14212001E+03 -0.22172E+06
 0.14217001E+03 -0.22802E+06
 0.14222000E+03 -0.23550E+06
 0.14227000E+03 -0.24410E+06
 0.14232001E+03 -0.25239E+06
 0.14237001E+03 -0.25914E+06
 0.14242001E+03 -0.26443E+06
 0.14247000E+03 -0.26846E+06
 0.14252000E+03 -0.27088E+06
 0.14257001E+03 -0.27307E+06
 0.14262001E+03 -0.28084E+06
 0.14267001E+03 -0.29911E+06
 0.14272000E+03 -0.32546E+06
 0.14277000E+03 -0.35427E+06
 0.14282001E+03 -0.38092E+06
 0.14287001E+03 -0.40144E+06
 0.14292001E+03 -0.41171E+06
 0.14297000E+03 -0.40752E+06
 0.14302000E+03 -0.39301E+06
 0.14307001E+03 -0.38233E+06
 0.14312001E+03 -0.38273E+06
 0.14317001E+03 -0.39128E+06
 0.14322000E+03 -0.40400E+06
 0.14327000E+03 -0.41727E+06
 0.14332001E+03 -0.42849E+06
 0.14337001E+03 -0.43407E+06
 0.14342001E+03 -0.42759E+06
 0.14347000E+03 -0.40513E+06
 0.14352000E+03 -0.36903E+06
 0.14357001E+03 -0.32616E+06
 0.14362001E+03 -0.28310E+06
 0.14367001E+03 -0.23954E+06
 0.14372000E+03 -0.18509E+06
 0.14377000E+03 -0.11125E+06
 0.14382001E+03 -0.26840E+05
 0.14387001E+03  0.55972E+05
 0.14392001E+03  0.13640E+06
 0.14397000E+03  0.21162E+06
 0.14402000E+03  0.27404E+06
 0.14407001E+03  0.32062E+06
 0.14412001E+03  0.35218E+06
 0.14417001E+03  0.36794E+06
 0.14422000E+03  0.36283E+06
 0.14427000E+03  0.33787E+06
 0.14432001E+03  0.30718E+06
 0.14437001E+03  0.28584E+06
 0.14442001E+03  0.27843E+06
 0.14447000E+03  0.28052E+06
 0.14452000E+03  0.28472E+06
 0.14457001E+03  0.28267E+06
 0.14462001E+03  0.26658E+06
 0.14467001E+03  0.23709E+06
 0.14472000E+03  0.20595E+06
 0.14477000E+03  0.18220E+06
 0.14482001E+03  0.16585E+06
 0.14487001E+03  0.15462E+06
 0.14492001E+03  0.14384E+06
 0.14497000E+03  0.12573E+06
 0.14502000E+03  0.98295E+05
 0.14507001E+03  0.69246E+05
 0.14512001E+03  0.46398E+05
 0.14517001E+03  0.32682E+05
 0.14522000E+03  0.29545E+05
 0.14527000E+03  0.36493E+05
 0.14532001E+03  0.48211E+05
 0.14537001E+03  0.55025E+05
 0.14542001E+03  0.50440E+05
 0.14547000E+03  0.38431E+05
 0.14552000E+03  0.24823E+05
 0.14557001E+03  0.72890E+04
 0.14562001E+03 -0.19750E+05
 0.14567001E+03 -0.57370E+05
 0.14572000E+03 -0.10284E+06
 0.14577000E+03 -0.15296E+06
 0.14582001E+03 -0.20415E+06
 0.14587001E+03 -0.25393E+06
 0.14592001E+03 -0.29702E+06
 0.14597000E+03 -0.32379E+06
 0.14602000E+03 -0.33130E+06
 0.14607001E+03 -0.32471E+06
 0.14612001E+03 -0.30892E+06
 0.14617001E+03 -0.28921E+06
 0.14622000E+03 -0.27253E+06
 0.14627000E+03 -0.26128E+06
 0.14632001E+03 -0.25095E+06
 0.14637001E+03 -0.23648E+06
 0.14642001E+03 -0.21822E+06
 0.14647000E+03 -0.20277E+06
 0.14652000E+03 -0.19463E+06
 0.14657001E+03 -0.18901E+06
 0.14662001E+03 -0.17802E+06
 0.14667001E+03 -0.15255E+06
 0.14672000E+03 -0.10292E+06
 0.14677000E+03 -0.31826E+05
 0.14682001E+03  0.46377E+05
 0.14687001E+03  0.11996E+06
 0.14692001E+03  0.17818E+06
 0.14697000E+03  0.21067E+06
 0.14702000E+03  0.22009E+06
 0.14707001E+03  0.21963E+06
 0.14712001E+03  0.21695E+06
 0.14717001E+03  0.21077E+06
 0.14722000E+03  0.19992E+06
 0.14727000E+03  0.18941E+06
 0.14732001E+03  0.18224E+06
 0.14737001E+03  0.17436E+06
 0.14742001E+03  0.16725E+06
 0.14747000E+03  0.16367E+06
 0.14752000E+03  0.15734E+06
 0.14757001E+03  0.14384E+06
 0.14762001E+03  0.12586E+06
 0.14767001E+03  0.11035E+06
 0.14772000E+03  0.10498E+06
 0.14777000E+03  0.11000E+06
 0.14782001E+03  0.11772E+06
 0.14787001E+03  0.12210E+06
 0.14792001E+03  0.12264E+06
 0.14797000E+03  0.12172E+06
 0.14802000E+03  0.12429E+06
 0.14807001E+03  0.13845E+06
 0.14812001E+03  0.17087E+06
 0.14817001E+03  0.21927E+06
 0.14822000E+03  0.27432E+06
 0.14827000E+03  0.32738E+06
 0.14832001E+03  0.37247E+06
 0.14837001E+03  0.40826E+06
 0.14842001E+03  0.43575E+06
 0.14847000E+03  0.45108E+06
 0.14852000E+03  0.45253E+06
 0.14857001E+03  0.44752E+06
 0.14862001E+03  0.43870E+06
 0.14867001E+03  0.41993E+06
 0.14872000E+03  0.39173E+06
 0.14877000E+03  0.36243E+06
 0.14882001E+03  0.33527E+06
 0.14887001E+03  0.30652E+06
 0.14892001E+03  0.27324E+06
 0.14897000E+03  0.23407E+06
 0.14902000E+03  0.18588E+06
 0.14907001E+03  0.12623E+06
 0.14912001E+03  0.57185E+05
 0.14917001E+03 -0.16633E+05
 0.14922000E+03 -0.93050E+05
 0.14927000E+03 -0.17165E+06
 0.14932001E+03 -0.24970E+06
 0.14937001E+03 -0.31907E+06
 0.14942001E+03 -0.37002E+06
 0.14947000E+03 -0.40321E+06
 0.14952000E+03 -0.42471E+06
 0.14957001E+03 -0.43531E+06
 0.14962001E+03 -0.43556E+06
 0.14967001E+03 -0.42908E+06
 0.14972000E+03 -0.42161E+06
 0.14977000E+03 -0.41547E+06
 0.14982001E+03 -0.40782E+06
 0.14987001E+03 -0.39855E+06
 0.14992001E+03 -0.38731E+06
 0.14997000E+03 -0.36925E+06
