-0.29969940E+01  0.13430E+04
-0.29469941E+01  0.13540E+04
-0.28969941E+01  0.13570E+04
-0.28469939E+01  0.13490E+04
-0.27969940E+01  0.13590E+04
-0.27469940E+01  0.13420E+04
-0.26969941E+01  0.13370E+04
-0.26469941E+01  0.13260E+04
-0.25969939E+01  0.13100E+04
-0.25469940E+01  0.13230E+04
-0.24969940E+01  0.13200E+04
-0.24469941E+01  0.12990E+04
-0.23969941E+01  0.13170E+04
-0.23469939E+01  0.13030E+04
-0.22969942E+01  0.12950E+04
-0.22469940E+01  0.12910E+04
-0.21969941E+01  0.12770E+04
-0.21469941E+01  0.12950E+04
-0.20969939E+01  0.12800E+04
-0.20469942E+01  0.12690E+04
-0.19969940E+01  0.12800E+04
-0.19469941E+01  0.12820E+04
-0.18969941E+01  0.12820E+04
-0.18469940E+01  0.12740E+04
-0.17969941E+01  0.12580E+04
-0.17469941E+01  0.12580E+04
-0.16969941E+01  0.12670E+04
-0.16469941E+01  0.12530E+04
-0.15969942E+01  0.12410E+04
-0.15469941E+01  0.12460E+04
-0.14969941E+01  0.12430E+04
-0.14469941E+01  0.12320E+04
-0.13969941E+01  0.12310E+04
-0.13469942E+01  0.12320E+04
-0.12969941E+01  0.12350E+04
-0.12469941E+01  0.12380E+04
-0.11969941E+01  0.12370E+04
-0.11469941E+01  0.12420E+04
-0.10969942E+01  0.12500E+04
-0.10469941E+01  0.12490E+04
-0.99699414E+00  0.12310E+04
-0.94699407E+00  0.12190E+04
-0.89699411E+00  0.12410E+04
-0.84699416E+00  0.12360E+04
-0.79699421E+00  0.12430E+04
-0.74699426E+00  0.12390E+04
-0.69699407E+00  0.12300E+04
-0.64699411E+00  0.12490E+04
-0.59699416E+00  0.12370E+04
-0.54699421E+00  0.12450E+04
-0.49699426E+00  0.12300E+04
-0.44699407E+00  0.12450E+04
-0.39699411E+00  0.12510E+04
-0.34699416E+00  0.12430E+04
-0.29699421E+00  0.12520E+04
-0.24699426E+00  0.12190E+04
-0.19699430E+00  0.12100E+04
-0.14699411E+00  0.12070E+04
-0.96994162E-01  0.12120E+04
-0.46994209E-01  0.12240E+04
 0.30057430E-02  0.12280E+04
 0.53005695E-01  0.12220E+04
 0.10300589E+00  0.12300E+04
 0.15300584E+00  0.12200E+04
 0.20300579E+00  0.12290E+04
 0.25300574E+00  0.12350E+04
 0.30300570E+00  0.12420E+04
 0.35300589E+00  0.12500E+04
 0.40300584E+00  0.12270E+04
 0.45300579E+00  0.12420E+04
 0.50300574E+00  0.12310E+04
 0.55300570E+00  0.12300E+04
 0.60300589E+00  0.12440E+04
 0.65300584E+00  0.12480E+04
 0.70300579E+00  0.12420E+04
 0.75300574E+00  0.12210E+04
 0.80300570E+00  0.12330E+04
 0.85300565E+00  0.12340E+04
 0.90300584E+00  0.12340E+04
 0.95300579E+00  0.12570E+04
 0.10030057E+01  0.12560E+04
 0.10530057E+01  0.12470E+04
 0.11030059E+01  0.12550E+04
 0.11530056E+01  0.12490E+04
 0.12030058E+01  0.12580E+04
 0.12530055E+01  0.12630E+04
 0.13030057E+01  0.12510E+04
 0.13530059E+01  0.12590E+04
 0.14030056E+01  0.12560E+04
 0.14530058E+01  0.12590E+04
 0.15030055E+01  0.12570E+04
 0.15530057E+01  0.12480E+04
 0.16030059E+01  0.12530E+04
 0.16530056E+01  0.12580E+04
 0.17030058E+01  0.12880E+04
 0.17530055E+01  0.12830E+04
 0.18030057E+01  0.12670E+04
 0.18530059E+01  0.12820E+04
 0.19030056E+01  0.12850E+04
 0.19530058E+01  0.12970E+04
 0.20030055E+01  0.12970E+04
 0.20530057E+01  0.12980E+04
 0.21030059E+01  0.13000E+04
 0.21530056E+01  0.12860E+04
 0.22030058E+01  0.12870E+04
 0.22530055E+01  0.13030E+04
 0.23030057E+01  0.13120E+04
 0.23530059E+01  0.13010E+04
 0.24030056E+01  0.13070E+04
 0.24530058E+01  0.13250E+04
 0.25030055E+01  0.13190E+04
 0.25530057E+01  0.13130E+04
 0.26030054E+01  0.13340E+04
 0.26530056E+01  0.13470E+04
 0.27030058E+01  0.13400E+04
 0.27530055E+01  0.13530E+04
 0.28030057E+01  0.13590E+04
 0.28530054E+01  0.13580E+04
 0.29030056E+01  0.13610E+04
 0.29530058E+01  0.14000E+04
 0.30030055E+01  0.14350E+04
 0.30530057E+01  0.14300E+04
 0.31030054E+01  0.14410E+04
 0.31530056E+01  0.14550E+04
 0.32030058E+01  0.14760E+04
 0.32530055E+01  0.14990E+04
 0.33030057E+01  0.15110E+04
 0.33530054E+01  0.15190E+04
 0.34030056E+01  0.15200E+04
 0.34530058E+01  0.15280E+04
 0.35030055E+01  0.15500E+04
 0.35530057E+01  0.15490E+04
 0.36030054E+01  0.15460E+04
 0.36530056E+01  0.15580E+04
 0.37030058E+01  0.15710E+04
 0.37530055E+01  0.15720E+04
 0.38030057E+01  0.15740E+04
 0.38530054E+01  0.15820E+04
 0.39030056E+01  0.15800E+04
 0.39530058E+01  0.15760E+04
 0.40030055E+01  0.15880E+04
 0.40530057E+01  0.15950E+04
 0.41030054E+01  0.15860E+04
 0.41530056E+01  0.15910E+04
 0.42030058E+01  0.15830E+04
 0.42530055E+01  0.15850E+04
 0.43030057E+01  0.15820E+04
 0.43530054E+01  0.15720E+04
 0.44030056E+01  0.15860E+04
 0.44530053E+01  0.15860E+04
 0.45030055E+01  0.15660E+04
 0.45530057E+01  0.15560E+04
 0.46030054E+01  0.15520E+04
 0.46530056E+01  0.15450E+04
 0.47030053E+01  0.15340E+04
 0.47530055E+01  0.15300E+04
 0.48030057E+01  0.15220E+04
 0.48530054E+01  0.15070E+04
 0.49030056E+01  0.15070E+04
 0.49530053E+01  0.14970E+04
 0.50030055E+01  0.14870E+04
 0.50530052E+01  0.14870E+04
 0.51030054E+01  0.14710E+04
 0.51530056E+01  0.14670E+04
 0.52030058E+01  0.14460E+04
 0.52530050E+01  0.14340E+04
 0.53030052E+01  0.14260E+04
 0.53530054E+01  0.14120E+04
 0.54030056E+01  0.13990E+04
 0.54530058E+01  0.13710E+04
 0.55030050E+01  0.13590E+04
 0.55530052E+01  0.13330E+04
 0.56030054E+01  0.13290E+04
 0.56530056E+01  0.13280E+04
 0.57030058E+01  0.13010E+04
 0.57530050E+01  0.12930E+04
 0.58030052E+01  0.12730E+04
 0.58530054E+01  0.12740E+04
 0.59030056E+01  0.12620E+04
 0.59530058E+01  0.12400E+04
 0.60030050E+01  0.12380E+04
 0.60530052E+01  0.12190E+04
 0.61030054E+01  0.12000E+04
 0.61530056E+01  0.11810E+04
 0.62030058E+01  0.11520E+04
 0.62530050E+01  0.11440E+04
 0.63030052E+01  0.11400E+04
 0.63530054E+01  0.11250E+04
 0.64030056E+01  0.11330E+04
 0.64530058E+01  0.11170E+04
 0.65030050E+01  0.11180E+04
 0.65530052E+01  0.11230E+04
 0.66030054E+01  0.10850E+04
 0.66530056E+01  0.10810E+04
 0.67030058E+01  0.10680E+04
 0.67530050E+01  0.10620E+04
 0.68030052E+01  0.10600E+04
 0.68530054E+01  0.10470E+04
 0.69030056E+01  0.10460E+04
 0.69530058E+01  0.10410E+04
 0.70030050E+01  0.10540E+04
 0.70530052E+01  0.10580E+04
 0.71030054E+01  0.10420E+04
 0.71530056E+01  0.10350E+04
 0.72030058E+01  0.10370E+04
 0.72530050E+01  0.10390E+04
 0.73030052E+01  0.10330E+04
 0.73530054E+01  0.10390E+04
 0.74030056E+01  0.10450E+04
 0.74530058E+01  0.10380E+04
 0.75030050E+01  0.10340E+04
 0.75530052E+01  0.10500E+04
 0.76030054E+01  0.10410E+04
 0.76530056E+01  0.10460E+04
 0.77030058E+01  0.10530E+04
 0.77530050E+01  0.10530E+04
 0.78030052E+01  0.10650E+04
 0.78530054E+01  0.10520E+04
 0.79030056E+01  0.10670E+04
 0.79530058E+01  0.10370E+04
 0.80030050E+01  0.10260E+04
 0.80530052E+01  0.10350E+04
 0.81030054E+01  0.10190E+04
 0.81530056E+01  0.10360E+04
 0.82030048E+01  0.10110E+04
 0.82530050E+01  0.10130E+04
 0.83030052E+01  0.10190E+04
 0.83530054E+01  0.10190E+04
 0.84030056E+01  0.10360E+04
 0.84530048E+01  0.10160E+04
 0.85030050E+01  0.10320E+04
 0.85530052E+01  0.10500E+04
 0.86030054E+01  0.10400E+04
 0.86530056E+01  0.10530E+04
 0.87030048E+01  0.10510E+04
 0.87530050E+01  0.10550E+04
 0.88030052E+01  0.10560E+04
 0.88530054E+01  0.10480E+04
 0.89030056E+01  0.10770E+04
 0.89530048E+01  0.10820E+04
 0.90030050E+01  0.10830E+04
 0.90530052E+01  0.10940E+04
 0.91030054E+01  0.10830E+04
 0.91530056E+01  0.10920E+04
 0.92030048E+01  0.10890E+04
 0.92530050E+01  0.11010E+04
 0.93030052E+01  0.11100E+04
 0.93530054E+01  0.10950E+04
 0.94030056E+01  0.11000E+04
 0.94530048E+01  0.11060E+04
 0.95030050E+01  0.11240E+04
 0.95530052E+01  0.11360E+04
 0.96030054E+01  0.11330E+04
 0.96530056E+01  0.11440E+04
 0.97030048E+01  0.11550E+04
 0.97530050E+01  0.11650E+04
 0.98030052E+01  0.11640E+04
 0.98530054E+01  0.11550E+04
 0.99030056E+01  0.11610E+04
 0.99530048E+01  0.11710E+04
 0.10003005E+02  0.11730E+04
 0.10053005E+02  0.11840E+04
 0.10103005E+02  0.11980E+04
 0.10153006E+02  0.12160E+04
 0.10203005E+02  0.12030E+04
 0.10253005E+02  0.12160E+04
 0.10303005E+02  0.12280E+04
 0.10353005E+02  0.12280E+04
 0.10403006E+02  0.12510E+04
 0.10453005E+02  0.12480E+04
 0.10503005E+02  0.12620E+04
 0.10553005E+02  0.12760E+04
 0.10603005E+02  0.12710E+04
 0.10653006E+02  0.12870E+04
 0.10703005E+02  0.12910E+04
 0.10753005E+02  0.13010E+04
 0.10803005E+02  0.13180E+04
 0.10853005E+02  0.13110E+04
 0.10903006E+02  0.13280E+04
 0.10953005E+02  0.13290E+04
 0.11003005E+02  0.13410E+04
 0.11053005E+02  0.13490E+04
 0.11103005E+02  0.13440E+04
 0.11153006E+02  0.13650E+04
 0.11203005E+02  0.13670E+04
 0.11253005E+02  0.13690E+04
 0.11303005E+02  0.13710E+04
 0.11353005E+02  0.13760E+04
 0.11403006E+02  0.13870E+04
 0.11453005E+02  0.13880E+04
 0.11503005E+02  0.13740E+04
 0.11553005E+02  0.13830E+04
 0.11603005E+02  0.13810E+04
 0.11653005E+02  0.13800E+04
 0.11703005E+02  0.13840E+04
 0.11753005E+02  0.13660E+04
 0.11803005E+02  0.13750E+04
 0.11853005E+02  0.13690E+04
 0.11903005E+02  0.13620E+04
 0.11953005E+02  0.13510E+04
 0.12003005E+02  0.13620E+04
 0.12053005E+02  0.13700E+04
 0.12103005E+02  0.13530E+04
 0.12153005E+02  0.13520E+04
 0.12203005E+02  0.13360E+04
 0.12253005E+02  0.13450E+04
 0.12303005E+02  0.13430E+04
 0.12353005E+02  0.13450E+04
 0.12403005E+02  0.13530E+04
 0.12453005E+02  0.13340E+04
 0.12503005E+02  0.13260E+04
 0.12553005E+02  0.13260E+04
 0.12603005E+02  0.13250E+04
 0.12653005E+02  0.13210E+04
 0.12703005E+02  0.13060E+04
 0.12753005E+02  0.13030E+04
 0.12803005E+02  0.12880E+04
 0.12853005E+02  0.12930E+04
 0.12903005E+02  0.13040E+04
 0.12953005E+02  0.12890E+04
 0.13003005E+02  0.12810E+04
 0.13053005E+02  0.12660E+04
 0.13103004E+02  0.12790E+04
 0.13153006E+02  0.12880E+04
 0.13203005E+02  0.12800E+04
 0.13253004E+02  0.12800E+04
 0.13303005E+02  0.12760E+04
 0.13353004E+02  0.12760E+04
 0.13403006E+02  0.12870E+04
 0.13453005E+02  0.13030E+04
 0.13503004E+02  0.12990E+04
 0.13553005E+02  0.13000E+04
 0.13603004E+02  0.13010E+04
 0.13653006E+02  0.13080E+04
 0.13703005E+02  0.12980E+04
 0.13753004E+02  0.12850E+04
 0.13803005E+02  0.12790E+04
 0.13853004E+02  0.12710E+04
 0.13903006E+02  0.12850E+04
 0.13953005E+02  0.12930E+04
 0.14003004E+02  0.13020E+04
 0.14053005E+02  0.13020E+04
 0.14103004E+02  0.12920E+04
 0.14153006E+02  0.12910E+04
 0.14203005E+02  0.12920E+04
 0.14253004E+02  0.12910E+04
 0.14303005E+02  0.12920E+04
 0.14353004E+02  0.12990E+04
 0.14403006E+02  0.13100E+04
 0.14453005E+02  0.13000E+04
 0.14503004E+02  0.13030E+04
 0.14553005E+02  0.13170E+04
 0.14603004E+02  0.13180E+04
 0.14653006E+02  0.13200E+04
 0.14703005E+02  0.13220E+04
 0.14753004E+02  0.13220E+04
 0.14803005E+02  0.13290E+04
 0.14853004E+02  0.13230E+04
 0.14903006E+02  0.13230E+04
 0.14953005E+02  0.13240E+04
 0.15003004E+02  0.13110E+04
 0.15053005E+02  0.13180E+04
 0.15103004E+02  0.13310E+04
 0.15153006E+02  0.13440E+04
 0.15203005E+02  0.13520E+04
 0.15253004E+02  0.13640E+04
 0.15303005E+02  0.13570E+04
 0.15353004E+02  0.13440E+04
 0.15403006E+02  0.13270E+04
 0.15453005E+02  0.13520E+04
 0.15503004E+02  0.13820E+04
 0.15553005E+02  0.13750E+04
 0.15603004E+02  0.13650E+04
 0.15653006E+02  0.13500E+04
 0.15703005E+02  0.14040E+04
 0.15753004E+02  0.13930E+04
 0.15803005E+02  0.13800E+04
 0.15853004E+02  0.14240E+04
 0.15903006E+02  0.13870E+04
 0.15953005E+02  0.14090E+04
 0.16003004E+02  0.14510E+04
 0.16053005E+02  0.14350E+04
 0.16103004E+02  0.14490E+04
 0.16153006E+02  0.14670E+04
 0.16203005E+02  0.14610E+04
 0.16253004E+02  0.14620E+04
 0.16303005E+02  0.14740E+04
 0.16353004E+02  0.14870E+04
 0.16403006E+02  0.14890E+04
 0.16453005E+02  0.15020E+04
 0.16503004E+02  0.15150E+04
 0.16553005E+02  0.15120E+04
 0.16603004E+02  0.15040E+04
 0.16653006E+02  0.15020E+04
 0.16703005E+02  0.15130E+04
 0.16753004E+02  0.15030E+04
 0.16803005E+02  0.15070E+04
 0.16853004E+02  0.15260E+04
 0.16903006E+02  0.15250E+04
 0.16953005E+02  0.15210E+04
 0.17003004E+02  0.15150E+04
 0.17053005E+02  0.14980E+04
 0.17103004E+02  0.15090E+04
 0.17153006E+02  0.15190E+04
 0.17203005E+02  0.15120E+04
 0.17253004E+02  0.15050E+04
 0.17303005E+02  0.15020E+04
 0.17353004E+02  0.14920E+04
 0.17403006E+02  0.15050E+04
 0.17453005E+02  0.15160E+04
 0.17503004E+02  0.14930E+04
 0.17553005E+02  0.15020E+04
 0.17603004E+02  0.14990E+04
 0.17653006E+02  0.15050E+04
 0.17703005E+02  0.15180E+04
 0.17753004E+02  0.15090E+04
 0.17803005E+02  0.15310E+04
 0.17853004E+02  0.15260E+04
 0.17903006E+02  0.15280E+04
 0.17953005E+02  0.15450E+04
 0.18003004E+02  0.15290E+04
 0.18053005E+02  0.15250E+04
 0.18103004E+02  0.15310E+04
 0.18153006E+02  0.15350E+04
 0.18203005E+02  0.15250E+04
 0.18253004E+02  0.15220E+04
 0.18303005E+02  0.15340E+04
 0.18353004E+02  0.15090E+04
 0.18403006E+02  0.14900E+04
 0.18453005E+02  0.14880E+04
 0.18503004E+02  0.14910E+04
 0.18553005E+02  0.15040E+04
 0.18603004E+02  0.15090E+04
 0.18653006E+02  0.14950E+04
 0.18703005E+02  0.14760E+04
 0.18753004E+02  0.14730E+04
 0.18803005E+02  0.14690E+04
 0.18853004E+02  0.14530E+04
 0.18903006E+02  0.14510E+04
 0.18953005E+02  0.14500E+04
 0.19003004E+02  0.14350E+04
 0.19053005E+02  0.14270E+04
 0.19103004E+02  0.14180E+04
 0.19153006E+02  0.14080E+04
 0.19203005E+02  0.13970E+04
 0.19253004E+02  0.13880E+04
 0.19303005E+02  0.13720E+04
 0.19353004E+02  0.13650E+04
 0.19403004E+02  0.13680E+04
 0.19453005E+02  0.13560E+04
 0.19503004E+02  0.13480E+04
 0.19553005E+02  0.13400E+04
 0.19603004E+02  0.13240E+04
 0.19653004E+02  0.13200E+04
 0.19703005E+02  0.13280E+04
 0.19753004E+02  0.13150E+04
 0.19803005E+02  0.13010E+04
 0.19853004E+02  0.12880E+04
 0.19903004E+02  0.12990E+04
 0.19953005E+02  0.13060E+04
 0.20003004E+02  0.13000E+04
 0.20053005E+02  0.12830E+04
 0.20103004E+02  0.12710E+04
 0.20153004E+02  0.12770E+04
 0.20203005E+02  0.12740E+04
 0.20253004E+02  0.12670E+04
 0.20303005E+02  0.12610E+04
 0.20353004E+02  0.12520E+04
 0.20403004E+02  0.12390E+04
 0.20453005E+02  0.12300E+04
 0.20503004E+02  0.12110E+04
 0.20553005E+02  0.12040E+04
 0.20603004E+02  0.12160E+04
 0.20653004E+02  0.12060E+04
 0.20703005E+02  0.11780E+04
 0.20753004E+02  0.11590E+04
 0.20803005E+02  0.11530E+04
 0.20853004E+02  0.11560E+04
 0.20903004E+02  0.11530E+04
 0.20953005E+02  0.11330E+04
 0.21003004E+02  0.11420E+04
 0.21053005E+02  0.11180E+04
 0.21103004E+02  0.11070E+04
 0.21153004E+02  0.11110E+04
 0.21203005E+02  0.11040E+04
 0.21253004E+02  0.10910E+04
 0.21303005E+02  0.10640E+04
 0.21353004E+02  0.10550E+04
 0.21403004E+02  0.10480E+04
 0.21453005E+02  0.10430E+04
 0.21503004E+02  0.10430E+04
 0.21553005E+02  0.10410E+04
 0.21603004E+02  0.10330E+04
 0.21653004E+02  0.10240E+04
 0.21703005E+02  0.10080E+04
 0.21753004E+02  0.99100E+03
 0.21803005E+02  0.99300E+03
 0.21853004E+02  0.98800E+03
 0.21903004E+02  0.95700E+03
 0.21953005E+02  0.94400E+03
 0.22003004E+02  0.94900E+03
 0.22053005E+02  0.95200E+03
 0.22103004E+02  0.95800E+03
 0.22153004E+02  0.92600E+03
 0.22203005E+02  0.89600E+03
 0.22253004E+02  0.88900E+03
 0.22303005E+02  0.88100E+03
 0.22353004E+02  0.88600E+03
 0.22403004E+02  0.87700E+03
 0.22453005E+02  0.86800E+03
 0.22503004E+02  0.88000E+03
 0.22553005E+02  0.87300E+03
 0.22603004E+02  0.85600E+03
 0.22653004E+02  0.84000E+03
 0.22703005E+02  0.83900E+03
 0.22753004E+02  0.84300E+03
 0.22803005E+02  0.85300E+03
 0.22853004E+02  0.84800E+03
 0.22903004E+02  0.84600E+03
 0.22953005E+02  0.86200E+03
 0.23003004E+02  0.85000E+03
 0.23053005E+02  0.84200E+03
 0.23103004E+02  0.85300E+03
 0.23153004E+02  0.87500E+03
 0.23203005E+02  0.88000E+03
 0.23253004E+02  0.88600E+03
 0.23303005E+02  0.89300E+03
 0.23353004E+02  0.88900E+03
 0.23403004E+02  0.89300E+03
 0.23453005E+02  0.88500E+03
 0.23503004E+02  0.87500E+03
 0.23553005E+02  0.87300E+03
 0.23603004E+02  0.87700E+03
 0.23653004E+02  0.88900E+03
 0.23703005E+02  0.89200E+03
 0.23753004E+02  0.90600E+03
 0.23803005E+02  0.91800E+03
 0.23853004E+02  0.92500E+03
 0.23903004E+02  0.92700E+03
 0.23953005E+02  0.92900E+03
 0.24003004E+02  0.93900E+03
 0.24053005E+02  0.93500E+03
 0.24103004E+02  0.96100E+03
 0.24153004E+02  0.96500E+03
 0.24203005E+02  0.99200E+03
 0.24253004E+02  0.10010E+04
 0.24303005E+02  0.98600E+03
 0.24353004E+02  0.10290E+04
 0.24403004E+02  0.10300E+04
 0.24453005E+02  0.10480E+04
 0.24503004E+02  0.10720E+04
 0.24553005E+02  0.10810E+04
 0.24603004E+02  0.11080E+04
 0.24653004E+02  0.10970E+04
 0.24703005E+02  0.11080E+04
 0.24753004E+02  0.11320E+04
 0.24803005E+02  0.11460E+04
 0.24853004E+02  0.11750E+04
 0.24903004E+02  0.11880E+04
 0.24953005E+02  0.12000E+04
 0.25003004E+02  0.12160E+04
 0.25053005E+02  0.12280E+04
 0.25103004E+02  0.12530E+04
 0.25153004E+02  0.12520E+04
 0.25203005E+02  0.12550E+04
 0.25253004E+02  0.12750E+04
 0.25303005E+02  0.12930E+04
 0.25353004E+02  0.13080E+04
 0.25403004E+02  0.13170E+04
 0.25453005E+02  0.13360E+04
 0.25503004E+02  0.13480E+04
 0.25553005E+02  0.13430E+04
 0.25603004E+02  0.13390E+04
 0.25653004E+02  0.13570E+04
 0.25703005E+02  0.13710E+04
 0.25753004E+02  0.13720E+04
 0.25803005E+02  0.13690E+04
 0.25853004E+02  0.13850E+04
 0.25903004E+02  0.14050E+04
 0.25953005E+02  0.13980E+04
 0.26003004E+02  0.13970E+04
 0.26053003E+02  0.14080E+04
 0.26103004E+02  0.14300E+04
 0.26153004E+02  0.14240E+04
 0.26203005E+02  0.14270E+04
 0.26253004E+02  0.14470E+04
 0.26303003E+02  0.14560E+04
 0.26353004E+02  0.14720E+04
 0.26403004E+02  0.14440E+04
 0.26453005E+02  0.14470E+04
 0.26503004E+02  0.14840E+04
 0.26553003E+02  0.14870E+04
 0.26603004E+02  0.14990E+04
 0.26653004E+02  0.15150E+04
 0.26703005E+02  0.15240E+04
 0.26753004E+02  0.15400E+04
 0.26803003E+02  0.15500E+04
 0.26853004E+02  0.15580E+04
 0.26903004E+02  0.15480E+04
 0.26953005E+02  0.15740E+04
 0.27003004E+02  0.15990E+04
 0.27053003E+02  0.15940E+04
 0.27103004E+02  0.16100E+04
 0.27153004E+02  0.16140E+04
 0.27203005E+02  0.16210E+04
 0.27253004E+02  0.16340E+04
 0.27303003E+02  0.16440E+04
 0.27353004E+02  0.16500E+04
 0.27403004E+02  0.16330E+04
 0.27453005E+02  0.16530E+04
 0.27503004E+02  0.16610E+04
 0.27553003E+02  0.16490E+04
 0.27603004E+02  0.16620E+04
 0.27653004E+02  0.16610E+04
 0.27703005E+02  0.16560E+04
 0.27753004E+02  0.16550E+04
 0.27803003E+02  0.16720E+04
 0.27853004E+02  0.16770E+04
 0.27903004E+02  0.16950E+04
 0.27953005E+02  0.16950E+04
 0.28003004E+02  0.16590E+04
 0.28053003E+02  0.16800E+04
 0.28103004E+02  0.16800E+04
 0.28153004E+02  0.16690E+04
 0.28203005E+02  0.16730E+04
 0.28253004E+02  0.16560E+04
 0.28303003E+02  0.16520E+04
 0.28353004E+02  0.16370E+04
 0.28403004E+02  0.16420E+04
 0.28453005E+02  0.16690E+04
 0.28503004E+02  0.16650E+04
 0.28553003E+02  0.16690E+04
 0.28603004E+02  0.16550E+04
 0.28653004E+02  0.16570E+04
 0.28703005E+02  0.16630E+04
 0.28753004E+02  0.16540E+04
 0.28803003E+02  0.16400E+04
 0.28853004E+02  0.16270E+04
 0.28903004E+02  0.16190E+04
 0.28953005E+02  0.16130E+04
 0.29003004E+02  0.16150E+04
 0.29053005E+02  0.16200E+04
 0.29103004E+02  0.16120E+04
 0.29153004E+02  0.15780E+04
 0.29203003E+02  0.15520E+04
 0.29253002E+02  0.15420E+04
 0.29303005E+02  0.15380E+04
 0.29353004E+02  0.15250E+04
 0.29403004E+02  0.15090E+04
 0.29453003E+02  0.14980E+04
 0.29503002E+02  0.15030E+04
 0.29553005E+02  0.14900E+04
 0.29603004E+02  0.14790E+04
 0.29653004E+02  0.14620E+04
 0.29703003E+02  0.14180E+04
 0.29753002E+02  0.14000E+04
 0.29803005E+02  0.13900E+04
 0.29853004E+02  0.13870E+04
 0.29903004E+02  0.13550E+04
 0.29953003E+02  0.13540E+04
 0.30003002E+02  0.13650E+04
 0.30053005E+02  0.13260E+04
 0.30103004E+02  0.13120E+04
 0.30153004E+02  0.13320E+04
 0.30203003E+02  0.13290E+04
 0.30253002E+02  0.12950E+04
 0.30303005E+02  0.12910E+04
 0.30353004E+02  0.12700E+04
 0.30403004E+02  0.12280E+04
 0.30453003E+02  0.12410E+04
 0.30503002E+02  0.12330E+04
 0.30553005E+02  0.12110E+04
 0.30603004E+02  0.11970E+04
 0.30653004E+02  0.12010E+04
 0.30703003E+02  0.11940E+04
 0.30753002E+02  0.11550E+04
 0.30803005E+02  0.11480E+04
 0.30853004E+02  0.11300E+04
 0.30903004E+02  0.11360E+04
 0.30953003E+02  0.11260E+04
 0.31003002E+02  0.10820E+04
 0.31053005E+02  0.10970E+04
 0.31103004E+02  0.10990E+04
 0.31153004E+02  0.10920E+04
 0.31203003E+02  0.10720E+04
 0.31253002E+02  0.10460E+04
 0.31303005E+02  0.10490E+04
 0.31353004E+02  0.10330E+04
 0.31403004E+02  0.10080E+04
 0.31453003E+02  0.10060E+04
 0.31503002E+02  0.10040E+04
 0.31553005E+02  0.99500E+03
 0.31603004E+02  0.98800E+03
 0.31653004E+02  0.97900E+03
 0.31703003E+02  0.97600E+03
 0.31753002E+02  0.97800E+03
 0.31803005E+02  0.95400E+03
 0.31853004E+02  0.93900E+03
 0.31903004E+02  0.94400E+03
 0.31953003E+02  0.93900E+03
 0.32003002E+02  0.93500E+03
 0.32053005E+02  0.93500E+03
 0.32103004E+02  0.94200E+03
 0.32153004E+02  0.94800E+03
 0.32203003E+02  0.93300E+03
 0.32253002E+02  0.92600E+03
 0.32303005E+02  0.92600E+03
 0.32353004E+02  0.93100E+03
 0.32403004E+02  0.93800E+03
 0.32453003E+02  0.93000E+03
 0.32503002E+02  0.92500E+03
 0.32553005E+02  0.92200E+03
 0.32603004E+02  0.92800E+03
 0.32653004E+02  0.94000E+03
 0.32703003E+02  0.94700E+03
 0.32753002E+02  0.95000E+03
 0.32803005E+02  0.96200E+03
 0.32853004E+02  0.96600E+03
 0.32903004E+02  0.96900E+03
 0.32953003E+02  0.99000E+03
 0.33003002E+02  0.97100E+03
 0.33053005E+02  0.99400E+03
 0.33103004E+02  0.10120E+04
 0.33153004E+02  0.96900E+03
 0.33203003E+02  0.10120E+04
 0.33253002E+02  0.10430E+04
 0.33303005E+02  0.10360E+04
 0.33353004E+02  0.10510E+04
 0.33403004E+02  0.10630E+04
 0.33453003E+02  0.10790E+04
 0.33503002E+02  0.10630E+04
 0.33553005E+02  0.10970E+04
 0.33603004E+02  0.11160E+04
 0.33653004E+02  0.11040E+04
 0.33703003E+02  0.11380E+04
 0.33753002E+02  0.11410E+04
 0.33803005E+02  0.11200E+04
 0.33853004E+02  0.11380E+04
 0.33903004E+02  0.11650E+04
 0.33953003E+02  0.11540E+04
 0.34003002E+02  0.11580E+04
 0.34053005E+02  0.11820E+04
 0.34103004E+02  0.11830E+04
 0.34153004E+02  0.11920E+04
 0.34203003E+02  0.12170E+04
 0.34253002E+02  0.12390E+04
 0.34303005E+02  0.12430E+04
 0.34353004E+02  0.12310E+04
 0.34403004E+02  0.12440E+04
 0.34453003E+02  0.12380E+04
 0.34503002E+02  0.12700E+04
 0.34553005E+02  0.13100E+04
 0.34603004E+02  0.12880E+04
 0.34653004E+02  0.13110E+04
 0.34703003E+02  0.13180E+04
 0.34753002E+02  0.13240E+04
 0.34803005E+02  0.13450E+04
 0.34853004E+02  0.13370E+04
 0.34903004E+02  0.13510E+04
 0.34953003E+02  0.13690E+04
 0.35003002E+02  0.13690E+04
 0.35053005E+02  0.13710E+04
 0.35103004E+02  0.13810E+04
 0.35153004E+02  0.13920E+04
 0.35203003E+02  0.13990E+04
 0.35253002E+02  0.14120E+04
 0.35303005E+02  0.14360E+04
 0.35353004E+02  0.14190E+04
 0.35403004E+02  0.14080E+04
 0.35453003E+02  0.14160E+04
 0.35503002E+02  0.14200E+04
 0.35553005E+02  0.14230E+04
 0.35603004E+02  0.14160E+04
 0.35653004E+02  0.13990E+04
 0.35703003E+02  0.13910E+04
 0.35753002E+02  0.13970E+04
 0.35803005E+02  0.13960E+04
 0.35853004E+02  0.14020E+04
 0.35903004E+02  0.13960E+04
 0.35953003E+02  0.13880E+04
 0.36003002E+02  0.13870E+04
 0.36053005E+02  0.13950E+04
 0.36103004E+02  0.14070E+04
 0.36153004E+02  0.13880E+04
 0.36203003E+02  0.13700E+04
 0.36253002E+02  0.13670E+04
 0.36303005E+02  0.13600E+04
 0.36353004E+02  0.13490E+04
 0.36403004E+02  0.13300E+04
 0.36453003E+02  0.13280E+04
 0.36503002E+02  0.13560E+04
 0.36553005E+02  0.13560E+04
 0.36603004E+02  0.13270E+04
 0.36653004E+02  0.13260E+04
 0.36703003E+02  0.13370E+04
 0.36753002E+02  0.13310E+04
 0.36803005E+02  0.13200E+04
 0.36853004E+02  0.13070E+04
 0.36903004E+02  0.13170E+04
 0.36953003E+02  0.13040E+04
 0.37003002E+02  0.12940E+04
 0.37053005E+02  0.13140E+04
 0.37103004E+02  0.12940E+04
 0.37153004E+02  0.13000E+04
 0.37203003E+02  0.12790E+04
 0.37253002E+02  0.12760E+04
 0.37303005E+02  0.12980E+04
 0.37353004E+02  0.12770E+04
 0.37403004E+02  0.12900E+04
 0.37453003E+02  0.12780E+04
 0.37503002E+02  0.12720E+04
 0.37553005E+02  0.12900E+04
 0.37603004E+02  0.12840E+04
 0.37653004E+02  0.12740E+04
 0.37703003E+02  0.12710E+04
 0.37753002E+02  0.12920E+04
 0.37803005E+02  0.13030E+04
 0.37853004E+02  0.12880E+04
 0.37903004E+02  0.12820E+04
 0.37953003E+02  0.12850E+04
 0.38003002E+02  0.12950E+04
 0.38053005E+02  0.12890E+04
 0.38103004E+02  0.13060E+04
 0.38153004E+02  0.13030E+04
 0.38203003E+02  0.12770E+04
 0.38253002E+02  0.12910E+04
 0.38303005E+02  0.13090E+04
 0.38353004E+02  0.13170E+04
 0.38403004E+02  0.13030E+04
 0.38453003E+02  0.13010E+04
 0.38503002E+02  0.13140E+04
 0.38553005E+02  0.13200E+04
 0.38603004E+02  0.13190E+04
 0.38653004E+02  0.13340E+04
 0.38703003E+02  0.13540E+04
 0.38753002E+02  0.13560E+04
 0.38803005E+02  0.13460E+04
 0.38853004E+02  0.13220E+04
 0.38903004E+02  0.13360E+04
 0.38953003E+02  0.13470E+04
 0.39003002E+02  0.13780E+04
 0.39053005E+02  0.13700E+04
 0.39103004E+02  0.13480E+04
 0.39153004E+02  0.13730E+04
 0.39203003E+02  0.13600E+04
 0.39253002E+02  0.13460E+04
 0.39303005E+02  0.13300E+04
 0.39353004E+02  0.13370E+04
 0.39403004E+02  0.13580E+04
 0.39453003E+02  0.13350E+04
 0.39503002E+02  0.13250E+04
 0.39553005E+02  0.13390E+04
 0.39603004E+02  0.13410E+04
 0.39653004E+02  0.13430E+04
 0.39703003E+02  0.13410E+04
 0.39753002E+02  0.13600E+04
 0.39803005E+02  0.13450E+04
 0.39853004E+02  0.12860E+04
 0.39903004E+02  0.12960E+04
 0.39953003E+02  0.13090E+04
 0.40003002E+02  0.13050E+04
 0.40053005E+02  0.12840E+04
 0.40103004E+02  0.12770E+04
 0.40153004E+02  0.12980E+04
 0.40203003E+02  0.12970E+04
 0.40253002E+02  0.12990E+04
 0.40303005E+02  0.13010E+04
 0.40353004E+02  0.12730E+04
 0.40403004E+02  0.12550E+04
 0.40453003E+02  0.12600E+04
 0.40503002E+02  0.12540E+04
 0.40553005E+02  0.12430E+04
 0.40603004E+02  0.12320E+04
 0.40653004E+02  0.12210E+04
 0.40703003E+02  0.12130E+04
 0.40753002E+02  0.11920E+04
 0.40803005E+02  0.12070E+04
 0.40853004E+02  0.12110E+04
 0.40903004E+02  0.11870E+04
 0.40953003E+02  0.11960E+04
 0.41003002E+02  0.11690E+04
 0.41053005E+02  0.11700E+04
 0.41103004E+02  0.11760E+04
 0.41153004E+02  0.11420E+04
 0.41203003E+02  0.11520E+04
 0.41253002E+02  0.11310E+04
 0.41303005E+02  0.11260E+04
 0.41353004E+02  0.11200E+04
 0.41403004E+02  0.11090E+04
 0.41453003E+02  0.11290E+04
 0.41503002E+02  0.11190E+04
 0.41553005E+02  0.11110E+04
 0.41603004E+02  0.10960E+04
 0.41653004E+02  0.10730E+04
 0.41703003E+02  0.10810E+04
 0.41753002E+02  0.10830E+04
 0.41803001E+02  0.10720E+04
 0.41853004E+02  0.10750E+04
 0.41903004E+02  0.10680E+04
 0.41953003E+02  0.10420E+04
 0.42003002E+02  0.10350E+04
 0.42053001E+02  0.10590E+04
 0.42103004E+02  0.10640E+04
 0.42153004E+02  0.10690E+04
 0.42203003E+02  0.10670E+04
 0.42253002E+02  0.10540E+04
 0.42303001E+02  0.10560E+04
 0.42353004E+02  0.10370E+04
 0.42403004E+02  0.10300E+04
 0.42453003E+02  0.10480E+04
 0.42503002E+02  0.10510E+04
 0.42553001E+02  0.10480E+04
 0.42603004E+02  0.10580E+04
 0.42653004E+02  0.10630E+04
 0.42703003E+02  0.10800E+04
 0.42753002E+02  0.10920E+04
 0.42803001E+02  0.10900E+04
 0.42853004E+02  0.10880E+04
 0.42903004E+02  0.10950E+04
 0.42953003E+02  0.11070E+04
 0.43003002E+02  0.11000E+04
 0.43053001E+02  0.11070E+04
 0.43103004E+02  0.11130E+04
 0.43153004E+02  0.11090E+04
 0.43203003E+02  0.11410E+04
 0.43253002E+02  0.11720E+04
 0.43303001E+02  0.11750E+04
 0.43353004E+02  0.12060E+04
 0.43403004E+02  0.12200E+04
 0.43453003E+02  0.11870E+04
 0.43503002E+02  0.12160E+04
 0.43553001E+02  0.12450E+04
 0.43603004E+02  0.12440E+04
 0.43653004E+02  0.12610E+04
 0.43703003E+02  0.12820E+04
 0.43753002E+02  0.12700E+04
 0.43803001E+02  0.13030E+04
 0.43853004E+02  0.13370E+04
 0.43903004E+02  0.13220E+04
 0.43953003E+02  0.13140E+04
 0.44003002E+02  0.13400E+04
 0.44053001E+02  0.13660E+04
 0.44103004E+02  0.13740E+04
 0.44153004E+02  0.14130E+04
 0.44203003E+02  0.14100E+04
 0.44253002E+02  0.14240E+04
 0.44303001E+02  0.14480E+04
 0.44353004E+02  0.14330E+04
 0.44403004E+02  0.14650E+04
 0.44453003E+02  0.14840E+04
 0.44503002E+02  0.14650E+04
 0.44553001E+02  0.14660E+04
 0.44603004E+02  0.14800E+04
 0.44653004E+02  0.14960E+04
 0.44703003E+02  0.15430E+04
 0.44753002E+02  0.15510E+04
 0.44803001E+02  0.14950E+04
 0.44853004E+02  0.15060E+04
 0.44903004E+02  0.15470E+04
 0.44953003E+02  0.15500E+04
 0.45003002E+02  0.15530E+04
 0.45053001E+02  0.15300E+04
 0.45103004E+02  0.15300E+04
 0.45153004E+02  0.15260E+04
 0.45203003E+02  0.15550E+04
 0.45253002E+02  0.15930E+04
 0.45303001E+02  0.15770E+04
 0.45353004E+02  0.15890E+04
 0.45403004E+02  0.15430E+04
 0.45453003E+02  0.15450E+04
 0.45503002E+02  0.15680E+04
 0.45553001E+02  0.15620E+04
 0.45603004E+02  0.15800E+04
 0.45653004E+02  0.15300E+04
 0.45703003E+02  0.15260E+04
 0.45753002E+02  0.15340E+04
 0.45803001E+02  0.15370E+04
 0.45853004E+02  0.15630E+04
 0.45903004E+02  0.15530E+04
 0.45953003E+02  0.15480E+04
 0.46003002E+02  0.15270E+04
 0.46053001E+02  0.15370E+04
 0.46103004E+02  0.15500E+04
 0.46153004E+02  0.15310E+04
 0.46203003E+02  0.15380E+04
 0.46253002E+02  0.15130E+04
 0.46303001E+02  0.15130E+04
 0.46353004E+02  0.15120E+04
 0.46403004E+02  0.15120E+04
 0.46453003E+02  0.15220E+04
 0.46503002E+02  0.14800E+04
 0.46553001E+02  0.14550E+04
 0.46603004E+02  0.14610E+04
 0.46653004E+02  0.14900E+04
 0.46703003E+02  0.14870E+04
 0.46753002E+02  0.14560E+04
 0.46803001E+02  0.14400E+04
 0.46853004E+02  0.14450E+04
 0.46903004E+02  0.14430E+04
 0.46953003E+02  0.14310E+04
 0.47003002E+02  0.14310E+04
 0.47053001E+02  0.14280E+04
 0.47103004E+02  0.14210E+04
 0.47153004E+02  0.13990E+04
 0.47203003E+02  0.13990E+04
 0.47253002E+02  0.14070E+04
 0.47303001E+02  0.13890E+04
 0.47353004E+02  0.13660E+04
 0.47403004E+02  0.13400E+04
 0.47453003E+02  0.13410E+04
 0.47503002E+02  0.13450E+04
 0.47553001E+02  0.13150E+04
 0.47603004E+02  0.12990E+04
 0.47653004E+02  0.12890E+04
 0.47703003E+02  0.12840E+04
 0.47753002E+02  0.12950E+04
 0.47803001E+02  0.12760E+04
 0.47853004E+02  0.12700E+04
 0.47903004E+02  0.12380E+04
 0.47953003E+02  0.12390E+04
 0.48003002E+02  0.12610E+04
 0.48053001E+02  0.12400E+04
 0.48103004E+02  0.12120E+04
 0.48153004E+02  0.11920E+04
 0.48203003E+02  0.11920E+04
 0.48253002E+02  0.11870E+04
 0.48303001E+02  0.11850E+04
 0.48353004E+02  0.11830E+04
 0.48403004E+02  0.11620E+04
 0.48453003E+02  0.11510E+04
 0.48503002E+02  0.11480E+04
 0.48553001E+02  0.11440E+04
 0.48603004E+02  0.11520E+04
 0.48653004E+02  0.11660E+04
 0.48703003E+02  0.11580E+04
 0.48753002E+02  0.11150E+04
 0.48803001E+02  0.11230E+04
 0.48853004E+02  0.11310E+04
 0.48903004E+02  0.11220E+04
 0.48953003E+02  0.11440E+04
 0.49003002E+02  0.11500E+04
 0.49053001E+02  0.11440E+04
 0.49103004E+02  0.11360E+04
 0.49153004E+02  0.11180E+04
 0.49203003E+02  0.11110E+04
 0.49253002E+02  0.11240E+04
 0.49303001E+02  0.11260E+04
 0.49353004E+02  0.11280E+04
 0.49403004E+02  0.11240E+04
 0.49453003E+02  0.11220E+04
 0.49503002E+02  0.11180E+04
 0.49553001E+02  0.11060E+04
 0.49603004E+02  0.11030E+04
 0.49653004E+02  0.11130E+04
 0.49703003E+02  0.11200E+04
 0.49753002E+02  0.11050E+04
 0.49803001E+02  0.10890E+04
 0.49853004E+02  0.10820E+04
 0.49903004E+02  0.10690E+04
 0.49953003E+02  0.10810E+04
 0.50003002E+02  0.10900E+04
 0.50053001E+02  0.11140E+04
 0.50103004E+02  0.11390E+04
 0.50153004E+02  0.11250E+04
 0.50203003E+02  0.11150E+04
 0.50253002E+02  0.10750E+04
 0.50303001E+02  0.10800E+04
 0.50353004E+02  0.11130E+04
 0.50403004E+02  0.11330E+04
 0.50453003E+02  0.11520E+04
 0.50503002E+02  0.11440E+04
 0.50553001E+02  0.11490E+04
 0.50603004E+02  0.11350E+04
 0.50653004E+02  0.11380E+04
 0.50703003E+02  0.11700E+04
 0.50753002E+02  0.12080E+04
 0.50803001E+02  0.12100E+04
 0.50853004E+02  0.12110E+04
 0.50903004E+02  0.12210E+04
 0.50953003E+02  0.12020E+04
 0.51003002E+02  0.12150E+04
 0.51053001E+02  0.12270E+04
 0.51103004E+02  0.12370E+04
 0.51153004E+02  0.12500E+04
 0.51203003E+02  0.12640E+04
 0.51253002E+02  0.12600E+04
 0.51303001E+02  0.12320E+04
 0.51353004E+02  0.12650E+04
 0.51403004E+02  0.12740E+04
 0.51453003E+02  0.12590E+04
 0.51503002E+02  0.12770E+04
 0.51553001E+02  0.12940E+04
 0.51603004E+02  0.13100E+04
 0.51653004E+02  0.13170E+04
 0.51703003E+02  0.13120E+04
 0.51753002E+02  0.13190E+04
 0.51803001E+02  0.13140E+04
 0.51853004E+02  0.13140E+04
 0.51903004E+02  0.13190E+04
 0.51953003E+02  0.13020E+04
 0.52003002E+02  0.13260E+04
 0.52053001E+02  0.13390E+04
 0.52103004E+02  0.12970E+04
 0.52153004E+02  0.12940E+04
 0.52203003E+02  0.12850E+04
 0.52253002E+02  0.12830E+04
 0.52303001E+02  0.12900E+04
 0.52353004E+02  0.12950E+04
 0.52403004E+02  0.13270E+04
 0.52453003E+02  0.13350E+04
 0.52503002E+02  0.13410E+04
 0.52553001E+02  0.13220E+04
 0.52603004E+02  0.13390E+04
 0.52653004E+02  0.13490E+04
 0.52703003E+02  0.13260E+04
 0.52753002E+02  0.13350E+04
 0.52803001E+02  0.13200E+04
 0.52853004E+02  0.13150E+04
 0.52903004E+02  0.13390E+04
 0.52953003E+02  0.13610E+04
 0.53003002E+02  0.13430E+04
 0.53053001E+02  0.13230E+04
 0.53103004E+02  0.12970E+04
 0.53153004E+02  0.12820E+04
 0.53203003E+02  0.13040E+04
 0.53253002E+02  0.13190E+04
 0.53303001E+02  0.13110E+04
 0.53353004E+02  0.13040E+04
 0.53403004E+02  0.12730E+04
 0.53453003E+02  0.12720E+04
 0.53503002E+02  0.13050E+04
 0.53553001E+02  0.13280E+04
 0.53603004E+02  0.13100E+04
 0.53653004E+02  0.12660E+04
 0.53703003E+02  0.12730E+04
 0.53753002E+02  0.12600E+04
 0.53803001E+02  0.12600E+04
 0.53853004E+02  0.13000E+04
 0.53903004E+02  0.12950E+04
 0.53953003E+02  0.12720E+04
 0.54003002E+02  0.12710E+04
 0.54053001E+02  0.12890E+04
 0.54103004E+02  0.12800E+04
 0.54153004E+02  0.12800E+04
 0.54203003E+02  0.13020E+04
 0.54253002E+02  0.12750E+04
 0.54303001E+02  0.12510E+04
 0.54353004E+02  0.12480E+04
 0.54403004E+02  0.12470E+04
 0.54453003E+02  0.12630E+04
 0.54503002E+02  0.12640E+04
 0.54553001E+02  0.12580E+04
 0.54603004E+02  0.12310E+04
 0.54653004E+02  0.12400E+04
 0.54703003E+02  0.12520E+04
 0.54753002E+02  0.12240E+04
 0.54803001E+02  0.12190E+04
 0.54853001E+02  0.12070E+04
 0.54903004E+02  0.12170E+04
 0.54953003E+02  0.12340E+04
 0.55003002E+02  0.12280E+04
 0.55053001E+02  0.12200E+04
 0.55103001E+02  0.11950E+04
 0.55153004E+02  0.11900E+04
 0.55203003E+02  0.11970E+04
 0.55253002E+02  0.12050E+04
 0.55303001E+02  0.11810E+04
 0.55353001E+02  0.11520E+04
 0.55403004E+02  0.11410E+04
 0.55453003E+02  0.11240E+04
 0.55503002E+02  0.11350E+04
 0.55553001E+02  0.11270E+04
 0.55603001E+02  0.11410E+04
 0.55653004E+02  0.11290E+04
 0.55703003E+02  0.11030E+04
 0.55753002E+02  0.11180E+04
 0.55803001E+02  0.11210E+04
 0.55853001E+02  0.11260E+04
 0.55903004E+02  0.11210E+04
 0.55953003E+02  0.11180E+04
 0.56003002E+02  0.11030E+04
 0.56053001E+02  0.10950E+04
 0.56103001E+02  0.11130E+04
 0.56153004E+02  0.11300E+04
 0.56203003E+02  0.11450E+04
 0.56253002E+02  0.11620E+04
 0.56303001E+02  0.11420E+04
 0.56353001E+02  0.11040E+04
 0.56403004E+02  0.11330E+04
 0.56453003E+02  0.11780E+04
 0.56503002E+02  0.11930E+04
 0.56553001E+02  0.11890E+04
 0.56603001E+02  0.11840E+04
 0.56653004E+02  0.11750E+04
 0.56703003E+02  0.11920E+04
 0.56753002E+02  0.12290E+04
 0.56803001E+02  0.12350E+04
 0.56853001E+02  0.12180E+04
 0.56903004E+02  0.12010E+04
 0.56953003E+02  0.12280E+04
 0.57003002E+02  0.12510E+04
 0.57053001E+02  0.12740E+04
 0.57103001E+02  0.12680E+04
 0.57153004E+02  0.12370E+04
 0.57203003E+02  0.12280E+04
 0.57253002E+02  0.12810E+04
 0.57303001E+02  0.13180E+04
 0.57353001E+02  0.13140E+04
 0.57403004E+02  0.13160E+04
 0.57453003E+02  0.13140E+04
 0.57503002E+02  0.13250E+04
 0.57553001E+02  0.13130E+04
 0.57603001E+02  0.13470E+04
 0.57653004E+02  0.13800E+04
 0.57703003E+02  0.13720E+04
 0.57753002E+02  0.13750E+04
 0.57803001E+02  0.13670E+04
 0.57853001E+02  0.13710E+04
 0.57903004E+02  0.14030E+04
 0.57953003E+02  0.14000E+04
 0.58003002E+02  0.13990E+04
 0.58053001E+02  0.14150E+04
 0.58103001E+02  0.14190E+04
 0.58153004E+02  0.14290E+04
 0.58203003E+02  0.14560E+04
 0.58253002E+02  0.14940E+04
 0.58303001E+02  0.14720E+04
 0.58353001E+02  0.14240E+04
 0.58403004E+02  0.13990E+04
 0.58453003E+02  0.14380E+04
 0.58503002E+02  0.14910E+04
 0.58553001E+02  0.15050E+04
 0.58603001E+02  0.14840E+04
 0.58653004E+02  0.14500E+04
 0.58703003E+02  0.14500E+04
 0.58753002E+02  0.14570E+04
 0.58803001E+02  0.14710E+04
 0.58853001E+02  0.14520E+04
 0.58903004E+02  0.14630E+04
 0.58953003E+02  0.14700E+04
 0.59003002E+02  0.14860E+04
 0.59053001E+02  0.14940E+04
 0.59103001E+02  0.14780E+04
 0.59153004E+02  0.14730E+04
 0.59203003E+02  0.14480E+04
 0.59253002E+02  0.14470E+04
 0.59303001E+02  0.14640E+04
 0.59353001E+02  0.14700E+04
 0.59403004E+02  0.14950E+04
 0.59453003E+02  0.14970E+04
 0.59503002E+02  0.14850E+04
 0.59553001E+02  0.15160E+04
 0.59603001E+02  0.15130E+04
 0.59653004E+02  0.15170E+04
 0.59703003E+02  0.15210E+04
 0.59753002E+02  0.15140E+04
 0.59803001E+02  0.15340E+04
 0.59853001E+02  0.15270E+04
 0.59903004E+02  0.15200E+04
 0.59953003E+02  0.14970E+04
 0.60003002E+02  0.14990E+04
 0.60053001E+02  0.15190E+04
 0.60103001E+02  0.15180E+04
 0.60153004E+02  0.15390E+04
 0.60203003E+02  0.15160E+04
 0.60253002E+02  0.15030E+04
 0.60303001E+02  0.14960E+04
 0.60353001E+02  0.14950E+04
 0.60403004E+02  0.14960E+04
 0.60453003E+02  0.14590E+04
 0.60503002E+02  0.14770E+04
 0.60553001E+02  0.15000E+04
 0.60603001E+02  0.14750E+04
 0.60653004E+02  0.14450E+04
 0.60703003E+02  0.14210E+04
 0.60753002E+02  0.14390E+04
 0.60803001E+02  0.14290E+04
 0.60853001E+02  0.14300E+04
 0.60903004E+02  0.14260E+04
 0.60953003E+02  0.13830E+04
 0.61003002E+02  0.13920E+04
 0.61053001E+02  0.13910E+04
 0.61103004E+02  0.13600E+04
 0.61153000E+02  0.13460E+04
 0.61203003E+02  0.13580E+04
 0.61252998E+02  0.13300E+04
 0.61303001E+02  0.13200E+04
 0.61353004E+02  0.13000E+04
 0.61403000E+02  0.13170E+04
 0.61453003E+02  0.12890E+04
 0.61502998E+02  0.12840E+04
 0.61553001E+02  0.13130E+04
 0.61603004E+02  0.12900E+04
 0.61653000E+02  0.13030E+04
 0.61703003E+02  0.12890E+04
 0.61752998E+02  0.12610E+04
 0.61803001E+02  0.12440E+04
 0.61853004E+02  0.12590E+04
 0.61903000E+02  0.12840E+04
 0.61953003E+02  0.12770E+04
 0.62002998E+02  0.12230E+04
 0.62053001E+02  0.11990E+04
 0.62103004E+02  0.12230E+04
 0.62153000E+02  0.12440E+04
 0.62203003E+02  0.12380E+04
 0.62252998E+02  0.11890E+04
 0.62303001E+02  0.11970E+04
 0.62353004E+02  0.11820E+04
 0.62403000E+02  0.12240E+04
 0.62453003E+02  0.12430E+04
 0.62502998E+02  0.11530E+04
 0.62553001E+02  0.11660E+04
 0.62603004E+02  0.11740E+04
 0.62653000E+02  0.11470E+04
 0.62703003E+02  0.11530E+04
 0.62752998E+02  0.11690E+04
 0.62803001E+02  0.11880E+04
 0.62853004E+02  0.11450E+04
 0.62903000E+02  0.11230E+04
 0.62953003E+02  0.11760E+04
 0.63002998E+02  0.11750E+04
 0.63053001E+02  0.11650E+04
 0.63103004E+02  0.11390E+04
 0.63153000E+02  0.11220E+04
 0.63203003E+02  0.11500E+04
 0.63252998E+02  0.11650E+04
 0.63303001E+02  0.10950E+04
 0.63353004E+02  0.10800E+04
 0.63403000E+02  0.11130E+04
 0.63453003E+02  0.10870E+04
 0.63502998E+02  0.11050E+04
 0.63553001E+02  0.10990E+04
 0.63603004E+02  0.10750E+04
 0.63653000E+02  0.10710E+04
 0.63703003E+02  0.10910E+04
 0.63752998E+02  0.10950E+04
 0.63803001E+02  0.10650E+04
 0.63853004E+02  0.10190E+04
 0.63903000E+02  0.10180E+04
 0.63953003E+02  0.10230E+04
 0.64002998E+02  0.10350E+04
 0.64053001E+02  0.10380E+04
 0.64103004E+02  0.10050E+04
 0.64153000E+02  0.97600E+03
 0.64203003E+02  0.95400E+03
 0.64252998E+02  0.95000E+03
 0.64303001E+02  0.96900E+03
 0.64353004E+02  0.99000E+03
 0.64403000E+02  0.96500E+03
 0.64453003E+02  0.94700E+03
 0.64502998E+02  0.94700E+03
 0.64553001E+02  0.97400E+03
 0.64603004E+02  0.95900E+03
 0.64653000E+02  0.92000E+03
 0.64703003E+02  0.95300E+03
 0.64752998E+02  0.96500E+03
 0.64803001E+02  0.97400E+03
 0.64853004E+02  0.91800E+03
 0.64903000E+02  0.92800E+03
 0.64953003E+02  0.99800E+03
 0.65002998E+02  0.99100E+03
 0.65053001E+02  0.99200E+03
 0.65103004E+02  0.10020E+04
 0.65153000E+02  0.10180E+04
 0.65203003E+02  0.10100E+04
 0.65252998E+02  0.98700E+03
 0.65303001E+02  0.10280E+04
 0.65353004E+02  0.10750E+04
 0.65403000E+02  0.10510E+04
 0.65453003E+02  0.10780E+04
 0.65502998E+02  0.11030E+04
 0.65553001E+02  0.11170E+04
 0.65603004E+02  0.11150E+04
 0.65653000E+02  0.11150E+04
 0.65703003E+02  0.11340E+04
 0.65752998E+02  0.11400E+04
 0.65803001E+02  0.11820E+04
 0.65853004E+02  0.11880E+04
 0.65903000E+02  0.12070E+04
 0.65953003E+02  0.12070E+04
 0.66002998E+02  0.12210E+04
 0.66053001E+02  0.12500E+04
 0.66103004E+02  0.12540E+04
 0.66153000E+02  0.12970E+04
 0.66203003E+02  0.13180E+04
 0.66252998E+02  0.12940E+04
 0.66303001E+02  0.12990E+04
 0.66353004E+02  0.13390E+04
 0.66403000E+02  0.13590E+04
 0.66453003E+02  0.13650E+04
 0.66502998E+02  0.13810E+04
 0.66553001E+02  0.14190E+04
 0.66603004E+02  0.14470E+04
 0.66653000E+02  0.14230E+04
 0.66703003E+02  0.13960E+04
 0.66752998E+02  0.14010E+04
 0.66803001E+02  0.14510E+04
 0.66853004E+02  0.14500E+04
 0.66903000E+02  0.14420E+04
 0.66953003E+02  0.14980E+04
 0.67002998E+02  0.14980E+04
 0.67053001E+02  0.14920E+04
 0.67103004E+02  0.15010E+04
 0.67153000E+02  0.15160E+04
 0.67203003E+02  0.15400E+04
 0.67252998E+02  0.15160E+04
 0.67303001E+02  0.15190E+04
 0.67353004E+02  0.15040E+04
 0.67403000E+02  0.14840E+04
 0.67453003E+02  0.15090E+04
 0.67502998E+02  0.14920E+04
 0.67553001E+02  0.14940E+04
 0.67603004E+02  0.15030E+04
 0.67653000E+02  0.15330E+04
 0.67703003E+02  0.15280E+04
 0.67752998E+02  0.15230E+04
 0.67803001E+02  0.15540E+04
 0.67853004E+02  0.15180E+04
 0.67903000E+02  0.14880E+04
 0.67953003E+02  0.14760E+04
 0.68002998E+02  0.14860E+04
 0.68053001E+02  0.14800E+04
 0.68103004E+02  0.14690E+04
 0.68153000E+02  0.14620E+04
 0.68203003E+02  0.14660E+04
 0.68252998E+02  0.14910E+04
 0.68303001E+02  0.14430E+04
 0.68353004E+02  0.14250E+04
 0.68403000E+02  0.14590E+04
 0.68453003E+02  0.14090E+04
 0.68502998E+02  0.13630E+04
 0.68553001E+02  0.14010E+04
 0.68603004E+02  0.14130E+04
 0.68653000E+02  0.13780E+04
 0.68703003E+02  0.13700E+04
 0.68752998E+02  0.13930E+04
 0.68803001E+02  0.13500E+04
 0.68853004E+02  0.13140E+04
 0.68903000E+02  0.13340E+04
 0.68953003E+02  0.13240E+04
 0.69002998E+02  0.13250E+04
 0.69053001E+02  0.13360E+04
 0.69103004E+02  0.13160E+04
 0.69153000E+02  0.12920E+04
 0.69203003E+02  0.13250E+04
 0.69252998E+02  0.13490E+04
 0.69303001E+02  0.13180E+04
 0.69353004E+02  0.13240E+04
 0.69403000E+02  0.12900E+04
 0.69453003E+02  0.12720E+04
 0.69502998E+02  0.12960E+04
 0.69553001E+02  0.13050E+04
 0.69603004E+02  0.13230E+04
 0.69653000E+02  0.13170E+04
 0.69703003E+02  0.13300E+04
 0.69752998E+02  0.13000E+04
 0.69803001E+02  0.12900E+04
 0.69853004E+02  0.12800E+04
 0.69903000E+02  0.12800E+04
 0.69953003E+02  0.13070E+04
 0.70002998E+02  0.13000E+04
 0.70053001E+02  0.13000E+04
 0.70103004E+02  0.13140E+04
 0.70153000E+02  0.12820E+04
 0.70203003E+02  0.12730E+04
 0.70252998E+02  0.13040E+04
 0.70303001E+02  0.12950E+04
 0.70353004E+02  0.13020E+04
 0.70403000E+02  0.12660E+04
 0.70453003E+02  0.12790E+04
 0.70502998E+02  0.12810E+04
 0.70553001E+02  0.12630E+04
 0.70603004E+02  0.13180E+04
 0.70653000E+02  0.13150E+04
 0.70703003E+02  0.12690E+04
 0.70752998E+02  0.12990E+04
 0.70803001E+02  0.12710E+04
 0.70853004E+02  0.12340E+04
 0.70903000E+02  0.12390E+04
 0.70953003E+02  0.12580E+04
 0.71002998E+02  0.12540E+04
 0.71053001E+02  0.12540E+04
 0.71103004E+02  0.12710E+04
 0.71153000E+02  0.12660E+04
 0.71203003E+02  0.12810E+04
 0.71252998E+02  0.12570E+04
 0.71303001E+02  0.12380E+04
 0.71353004E+02  0.12720E+04
 0.71403000E+02  0.12680E+04
 0.71453003E+02  0.12500E+04
 0.71502998E+02  0.12390E+04
 0.71553001E+02  0.12290E+04
 0.71603004E+02  0.12770E+04
 0.71653000E+02  0.12340E+04
 0.71703003E+02  0.12520E+04
 0.71752998E+02  0.12710E+04
 0.71803001E+02  0.12670E+04
 0.71853004E+02  0.12850E+04
 0.71903000E+02  0.12540E+04
 0.71953003E+02  0.12220E+04
 0.72002998E+02  0.12320E+04
 0.72053001E+02  0.12590E+04
 0.72103004E+02  0.12540E+04
 0.72153000E+02  0.12580E+04
 0.72203003E+02  0.12710E+04
 0.72252998E+02  0.12760E+04
 0.72303001E+02  0.12060E+04
 0.72353004E+02  0.12220E+04
 0.72403000E+02  0.12300E+04
 0.72453003E+02  0.12480E+04
 0.72502998E+02  0.12560E+04
 0.72553001E+02  0.12130E+04
 0.72603004E+02  0.11920E+04
 0.72653000E+02  0.11790E+04
 0.72703003E+02  0.12340E+04
 0.72752998E+02  0.12110E+04
 0.72803001E+02  0.11740E+04
 0.72853004E+02  0.11740E+04
 0.72903000E+02  0.11690E+04
 0.72953003E+02  0.11800E+04
 0.73002998E+02  0.11320E+04
 0.73053001E+02  0.11220E+04
 0.73103004E+02  0.10830E+04
 0.73153000E+02  0.11070E+04
 0.73203003E+02  0.11000E+04
 0.73252998E+02  0.10730E+04
 0.73303001E+02  0.10960E+04
 0.73353004E+02  0.10800E+04
 0.73403000E+02  0.10900E+04
 0.73453003E+02  0.10740E+04
 0.73502998E+02  0.10980E+04
 0.73553001E+02  0.10990E+04
 0.73603004E+02  0.10810E+04
 0.73653000E+02  0.10690E+04
 0.73703003E+02  0.10410E+04
 0.73752998E+02  0.10510E+04
 0.73803001E+02  0.10580E+04
 0.73853004E+02  0.11260E+04
 0.73903000E+02  0.11340E+04
 0.73953003E+02  0.10900E+04
 0.74002998E+02  0.10590E+04
 0.74053001E+02  0.10870E+04
 0.74103004E+02  0.11800E+04
 0.74153000E+02  0.11520E+04
 0.74203003E+02  0.11490E+04
 0.74252998E+02  0.11690E+04
 0.74303001E+02  0.11510E+04
 0.74353004E+02  0.11890E+04
 0.74403000E+02  0.11930E+04
 0.74453003E+02  0.11650E+04
 0.74502998E+02  0.12060E+04
 0.74553001E+02  0.12080E+04
 0.74603004E+02  0.12200E+04
 0.74653000E+02  0.12250E+04
 0.74703003E+02  0.12590E+04
 0.74752998E+02  0.12840E+04
 0.74803001E+02  0.12680E+04
 0.74853004E+02  0.12740E+04
 0.74903000E+02  0.12960E+04
 0.74953003E+02  0.13020E+04
 0.75002998E+02  0.13140E+04
 0.75053001E+02  0.13040E+04
 0.75103004E+02  0.13090E+04
 0.75153000E+02  0.13150E+04
 0.75203003E+02  0.13270E+04
 0.75252998E+02  0.13510E+04
 0.75303001E+02  0.12900E+04
 0.75353004E+02  0.13110E+04
 0.75403000E+02  0.13180E+04
 0.75453003E+02  0.13360E+04
 0.75502998E+02  0.13270E+04
 0.75553001E+02  0.13360E+04
 0.75603004E+02  0.13650E+04
 0.75653000E+02  0.14020E+04
 0.75703003E+02  0.13900E+04
 0.75752998E+02  0.13970E+04
 0.75803001E+02  0.13910E+04
 0.75853004E+02  0.13970E+04
 0.75903000E+02  0.14190E+04
 0.75953003E+02  0.13830E+04
 0.76002998E+02  0.14210E+04
 0.76053001E+02  0.13900E+04
 0.76103004E+02  0.14310E+04
 0.76153000E+02  0.14230E+04
 0.76203003E+02  0.14250E+04
 0.76252998E+02  0.14430E+04
 0.76303001E+02  0.14120E+04
 0.76353004E+02  0.14680E+04
 0.76403000E+02  0.14470E+04
 0.76453003E+02  0.14080E+04
 0.76502998E+02  0.14160E+04
 0.76553001E+02  0.13880E+04
 0.76603004E+02  0.14180E+04
 0.76653000E+02  0.14280E+04
 0.76703003E+02  0.14010E+04
 0.76752998E+02  0.13970E+04
 0.76803001E+02  0.13750E+04
 0.76853004E+02  0.13920E+04
 0.76903000E+02  0.13460E+04
 0.76953003E+02  0.13670E+04
 0.77002998E+02  0.13790E+04
 0.77053001E+02  0.13940E+04
 0.77103004E+02  0.13660E+04
 0.77153000E+02  0.13620E+04
 0.77203003E+02  0.13670E+04
 0.77252998E+02  0.13580E+04
 0.77303001E+02  0.13890E+04
 0.77353004E+02  0.13580E+04
 0.77403000E+02  0.13580E+04
 0.77453003E+02  0.13490E+04
 0.77502998E+02  0.13660E+04
 0.77553001E+02  0.13300E+04
 0.77603004E+02  0.13560E+04
 0.77653000E+02  0.13340E+04
 0.77703003E+02  0.13160E+04
 0.77752998E+02  0.13800E+04
 0.77803001E+02  0.13570E+04
 0.77853004E+02  0.13490E+04
 0.77903000E+02  0.13440E+04
 0.77953003E+02  0.13140E+04
 0.78002998E+02  0.13200E+04
 0.78053001E+02  0.12920E+04
 0.78103004E+02  0.13370E+04
 0.78153000E+02  0.13470E+04
 0.78203003E+02  0.13320E+04
 0.78252998E+02  0.13600E+04
 0.78303001E+02  0.13070E+04
 0.78353004E+02  0.13250E+04
 0.78403000E+02  0.12760E+04
 0.78453003E+02  0.12880E+04
 0.78502998E+02  0.13480E+04
 0.78553001E+02  0.13080E+04
 0.78603004E+02  0.13080E+04
 0.78653000E+02  0.13330E+04
 0.78703003E+02  0.12660E+04
 0.78752998E+02  0.12490E+04
 0.78803001E+02  0.12700E+04
 0.78853004E+02  0.12890E+04
 0.78903000E+02  0.13180E+04
 0.78953003E+02  0.12980E+04
 0.79002998E+02  0.13320E+04
 0.79053001E+02  0.12870E+04
 0.79103004E+02  0.12490E+04
 0.79153000E+02  0.12710E+04
 0.79203003E+02  0.12920E+04
 0.79252998E+02  0.13080E+04
 0.79303001E+02  0.13060E+04
 0.79353004E+02  0.12630E+04
 0.79403000E+02  0.12930E+04
 0.79453003E+02  0.12420E+04
 0.79502998E+02  0.12040E+04
 0.79553001E+02  0.12780E+04
 0.79603004E+02  0.12530E+04
 0.79653000E+02  0.12630E+04
 0.79703003E+02  0.11850E+04
 0.79752998E+02  0.12200E+04
 0.79803001E+02  0.12750E+04
 0.79853004E+02  0.12260E+04
 0.79903000E+02  0.12060E+04
 0.79953003E+02  0.12220E+04
 0.80002998E+02  0.12140E+04
 0.80053001E+02  0.11990E+04
 0.80103004E+02  0.11780E+04
 0.80153000E+02  0.11910E+04
 0.80203003E+02  0.12330E+04
 0.80252998E+02  0.11570E+04
 0.80303001E+02  0.11790E+04
 0.80353004E+02  0.11610E+04
 0.80403000E+02  0.11140E+04
 0.80453003E+02  0.11310E+04
 0.80502998E+02  0.11450E+04
 0.80553001E+02  0.11100E+04
 0.80603004E+02  0.10780E+04
 0.80653000E+02  0.10660E+04
 0.80703003E+02  0.11180E+04
 0.80752998E+02  0.10560E+04
 0.80803001E+02  0.10200E+04
 0.80853004E+02  0.10730E+04
 0.80903000E+02  0.10610E+04
 0.80953003E+02  0.11110E+04
 0.81002998E+02  0.10760E+04
 0.81053001E+02  0.10620E+04
 0.81103004E+02  0.10530E+04
 0.81153000E+02  0.10400E+04
 0.81203003E+02  0.10250E+04
 0.81252998E+02  0.10630E+04
 0.81303001E+02  0.10870E+04
 0.81353004E+02  0.11030E+04
 0.81403000E+02  0.10610E+04
 0.81453003E+02  0.10640E+04
 0.81502998E+02  0.11300E+04
 0.81553001E+02  0.10830E+04
 0.81603004E+02  0.10620E+04
 0.81653000E+02  0.10670E+04
 0.81703003E+02  0.11300E+04
 0.81752998E+02  0.11060E+04
 0.81803001E+02  0.11320E+04
 0.81853004E+02  0.11220E+04
 0.81903000E+02  0.10960E+04
 0.81953003E+02  0.11660E+04
 0.82002998E+02  0.12000E+04
 0.82053001E+02  0.11830E+04
 0.82103004E+02  0.11940E+04
 0.82153000E+02  0.12250E+04
 0.82203003E+02  0.11620E+04
 0.82252998E+02  0.11850E+04
 0.82303001E+02  0.12290E+04
 0.82353004E+02  0.12460E+04
 0.82403000E+02  0.12930E+04
 0.82453003E+02  0.12940E+04
 0.82502998E+02  0.12350E+04
 0.82553001E+02  0.12770E+04
 0.82603004E+02  0.12850E+04
 0.82653000E+02  0.12480E+04
 0.82703003E+02  0.13150E+04
 0.82752998E+02  0.12950E+04
 0.82803001E+02  0.13320E+04
 0.82853004E+02  0.13540E+04
 0.82903000E+02  0.13570E+04
 0.82953003E+02  0.13420E+04
 0.83002998E+02  0.13590E+04
 0.83053001E+02  0.13540E+04
 0.83103004E+02  0.13300E+04
 0.83153000E+02  0.13850E+04
 0.83203003E+02  0.14140E+04
 0.83252998E+02  0.14260E+04
 0.83303001E+02  0.13760E+04
 0.83353004E+02  0.14150E+04
 0.83403000E+02  0.14530E+04
 0.83453003E+02  0.14560E+04
 0.83502998E+02  0.14360E+04
 0.83553001E+02  0.14010E+04
 0.83603004E+02  0.14420E+04
 0.83653000E+02  0.14830E+04
 0.83703003E+02  0.14900E+04
 0.83752998E+02  0.15230E+04
 0.83803001E+02  0.14690E+04
 0.83853004E+02  0.14570E+04
 0.83903000E+02  0.14870E+04
 0.83953003E+02  0.15080E+04
 0.84002998E+02  0.15810E+04
 0.84053001E+02  0.15280E+04
 0.84103004E+02  0.15160E+04
 0.84153000E+02  0.15320E+04
 0.84203003E+02  0.15200E+04
 0.84252998E+02  0.15390E+04
 0.84303001E+02  0.15420E+04
 0.84353004E+02  0.15240E+04
 0.84403000E+02  0.15220E+04
 0.84453003E+02  0.15220E+04
 0.84502998E+02  0.15450E+04
 0.84553001E+02  0.15550E+04
 0.84603004E+02  0.14820E+04
 0.84653000E+02  0.14830E+04
 0.84703003E+02  0.14800E+04
 0.84752998E+02  0.15310E+04
 0.84803001E+02  0.15610E+04
 0.84853004E+02  0.15010E+04
 0.84903000E+02  0.15030E+04
 0.84953003E+02  0.14540E+04
 0.85002998E+02  0.14460E+04
 0.85053001E+02  0.14790E+04
 0.85103004E+02  0.15120E+04
 0.85153000E+02  0.14990E+04
 0.85203003E+02  0.14580E+04
 0.85252998E+02  0.14130E+04
 0.85303001E+02  0.14480E+04
 0.85353004E+02  0.14400E+04
 0.85403000E+02  0.14100E+04
 0.85453003E+02  0.14220E+04
 0.85502998E+02  0.13920E+04
 0.85553001E+02  0.14470E+04
 0.85603004E+02  0.14910E+04
 0.85653000E+02  0.14840E+04
 0.85703003E+02  0.14390E+04
 0.85752998E+02  0.13420E+04
 0.85803001E+02  0.12730E+04
 0.85853004E+02  0.13550E+04
 0.85903000E+02  0.14370E+04
 0.85953003E+02  0.14890E+04
 0.86002998E+02  0.13920E+04
 0.86053001E+02  0.13090E+04
 0.86103004E+02  0.13060E+04
 0.86153000E+02  0.12670E+04
 0.86203003E+02  0.12960E+04
 0.86252998E+02  0.12980E+04
 0.86303001E+02  0.12970E+04
 0.86353004E+02  0.13060E+04
 0.86403000E+02  0.12810E+04
 0.86453003E+02  0.12510E+04
 0.86502998E+02  0.12440E+04
 0.86553001E+02  0.11860E+04
 0.86602997E+02  0.11960E+04
 0.86653000E+02  0.12200E+04
 0.86703003E+02  0.12270E+04
 0.86752998E+02  0.12210E+04
 0.86803001E+02  0.11830E+04
 0.86852997E+02  0.11190E+04
 0.86903000E+02  0.10830E+04
 0.86953003E+02  0.10500E+04
 0.87002998E+02  0.11130E+04
 0.87053001E+02  0.11460E+04
 0.87102997E+02  0.10980E+04
 0.87153000E+02  0.10820E+04
 0.87203003E+02  0.10290E+04
 0.87252998E+02  0.10440E+04
 0.87303001E+02  0.10630E+04
 0.87352997E+02  0.10900E+04
 0.87403000E+02  0.10720E+04
 0.87453003E+02  0.10590E+04
 0.87502998E+02  0.10270E+04
 0.87553001E+02  0.10180E+04
 0.87602997E+02  0.10170E+04
 0.87653000E+02  0.10280E+04
 0.87703003E+02  0.10280E+04
 0.87752998E+02  0.10390E+04
 0.87803001E+02  0.10690E+04
 0.87852997E+02  0.10150E+04
 0.87903000E+02  0.99900E+03
 0.87953003E+02  0.99700E+03
 0.88002998E+02  0.10810E+04
 0.88053001E+02  0.10570E+04
 0.88102997E+02  0.10090E+04
 0.88153000E+02  0.10460E+04
 0.88203003E+02  0.10370E+04
 0.88252998E+02  0.10500E+04
 0.88303001E+02  0.10410E+04
 0.88352997E+02  0.10460E+04
 0.88403000E+02  0.11000E+04
 0.88453003E+02  0.11110E+04
 0.88502998E+02  0.10910E+04
 0.88553001E+02  0.11010E+04
 0.88602997E+02  0.11100E+04
 0.88653000E+02  0.11060E+04
 0.88703003E+02  0.10830E+04
 0.88752998E+02  0.11440E+04
 0.88803001E+02  0.11110E+04
 0.88852997E+02  0.11170E+04
 0.88903000E+02  0.11620E+04
 0.88953003E+02  0.11600E+04
 0.89002998E+02  0.12050E+04
 0.89053001E+02  0.11820E+04
 0.89102997E+02  0.12440E+04
 0.89153000E+02  0.11770E+04
 0.89203003E+02  0.11600E+04
 0.89252998E+02  0.11920E+04
 0.89303001E+02  0.12080E+04
 0.89352997E+02  0.12890E+04
 0.89403000E+02  0.12790E+04
 0.89453003E+02  0.12660E+04
 0.89502998E+02  0.12780E+04
 0.89553001E+02  0.12840E+04
 0.89602997E+02  0.12760E+04
 0.89653000E+02  0.12860E+04
 0.89703003E+02  0.12660E+04
 0.89752998E+02  0.13260E+04
 0.89803001E+02  0.13190E+04
 0.89852997E+02  0.12640E+04
 0.89903000E+02  0.13150E+04
 0.89953003E+02  0.13210E+04
 0.90002998E+02  0.12920E+04
 0.90053001E+02  0.13100E+04
 0.90102997E+02  0.13130E+04
 0.90153000E+02  0.12870E+04
 0.90203003E+02  0.12730E+04
 0.90252998E+02  0.13180E+04
 0.90303001E+02  0.13160E+04
 0.90352997E+02  0.12670E+04
 0.90403000E+02  0.12880E+04
 0.90453003E+02  0.12710E+04
 0.90502998E+02  0.12830E+04
 0.90553001E+02  0.12570E+04
 0.90602997E+02  0.12850E+04
 0.90653000E+02  0.12600E+04
 0.90703003E+02  0.12590E+04
 0.90752998E+02  0.12640E+04
 0.90803001E+02  0.12850E+04
 0.90852997E+02  0.12650E+04
 0.90903000E+02  0.12020E+04
 0.90953003E+02  0.12740E+04
 0.91002998E+02  0.12320E+04
 0.91053001E+02  0.12690E+04
 0.91102997E+02  0.12320E+04
 0.91153000E+02  0.12270E+04
 0.91203003E+02  0.12520E+04
 0.91252998E+02  0.12330E+04
 0.91303001E+02  0.12140E+04
 0.91352997E+02  0.12110E+04
 0.91403000E+02  0.12010E+04
 0.91453003E+02  0.11990E+04
 0.91502998E+02  0.12220E+04
 0.91553001E+02  0.11920E+04
 0.91602997E+02  0.12050E+04
 0.91653000E+02  0.11660E+04
 0.91703003E+02  0.12020E+04
 0.91752998E+02  0.12290E+04
 0.91803001E+02  0.12090E+04
 0.91852997E+02  0.11980E+04
 0.91903000E+02  0.12140E+04
 0.91953003E+02  0.12010E+04
 0.92002998E+02  0.12090E+04
 0.92053001E+02  0.11950E+04
 0.92102997E+02  0.12040E+04
 0.92153000E+02  0.12380E+04
 0.92203003E+02  0.11900E+04
 0.92252998E+02  0.12110E+04
 0.92303001E+02  0.11910E+04
 0.92352997E+02  0.12410E+04
 0.92403000E+02  0.12440E+04
 0.92453003E+02  0.12370E+04
 0.92502998E+02  0.12360E+04
 0.92553001E+02  0.12730E+04
 0.92602997E+02  0.12440E+04
 0.92653000E+02  0.12040E+04
 0.92703003E+02  0.12730E+04
 0.92752998E+02  0.12570E+04
 0.92803001E+02  0.12920E+04
 0.92852997E+02  0.12660E+04
 0.92903000E+02  0.13280E+04
 0.92953003E+02  0.13130E+04
 0.93002998E+02  0.12450E+04
 0.93053001E+02  0.13230E+04
 0.93102997E+02  0.13640E+04
 0.93153000E+02  0.13190E+04
 0.93203003E+02  0.13200E+04
 0.93252998E+02  0.13710E+04
 0.93303001E+02  0.13590E+04
 0.93352997E+02  0.13680E+04
 0.93403000E+02  0.14090E+04
 0.93453003E+02  0.14210E+04
 0.93502998E+02  0.14210E+04
 0.93553001E+02  0.14440E+04
 0.93602997E+02  0.14390E+04
 0.93653000E+02  0.14320E+04
 0.93703003E+02  0.14270E+04
 0.93752998E+02  0.14740E+04
 0.93803001E+02  0.14770E+04
 0.93852997E+02  0.14610E+04
 0.93903000E+02  0.15060E+04
 0.93953003E+02  0.14860E+04
 0.94002998E+02  0.14660E+04
 0.94053001E+02  0.14780E+04
 0.94102997E+02  0.14890E+04
 0.94153000E+02  0.14900E+04
 0.94203003E+02  0.14830E+04
 0.94252998E+02  0.14710E+04
 0.94303001E+02  0.14900E+04
 0.94352997E+02  0.14730E+04
 0.94403000E+02  0.14710E+04
 0.94453003E+02  0.14890E+04
 0.94502998E+02  0.14710E+04
 0.94553001E+02  0.15280E+04
 0.94602997E+02  0.15220E+04
 0.94653000E+02  0.14810E+04
 0.94703003E+02  0.15050E+04
 0.94752998E+02  0.14970E+04
 0.94803001E+02  0.14920E+04
 0.94852997E+02  0.15280E+04
 0.94903000E+02  0.14900E+04
 0.94953003E+02  0.14870E+04
 0.95002998E+02  0.15080E+04
 0.95053001E+02  0.15060E+04
 0.95102997E+02  0.15140E+04
 0.95153000E+02  0.15230E+04
 0.95203003E+02  0.15170E+04
 0.95252998E+02  0.15010E+04
 0.95303001E+02  0.15090E+04
 0.95352997E+02  0.14950E+04
 0.95403000E+02  0.14550E+04
 0.95453003E+02  0.14440E+04
 0.95502998E+02  0.14460E+04
 0.95553001E+02  0.14420E+04
 0.95602997E+02  0.14750E+04
 0.95653000E+02  0.14440E+04
 0.95703003E+02  0.14600E+04
 0.95752998E+02  0.14740E+04
 0.95803001E+02  0.13970E+04
 0.95852997E+02  0.13850E+04
 0.95903000E+02  0.13840E+04
 0.95953003E+02  0.14130E+04
 0.96002998E+02  0.13930E+04
 0.96053001E+02  0.13990E+04
 0.96102997E+02  0.14020E+04
 0.96153000E+02  0.13490E+04
 0.96203003E+02  0.13550E+04
 0.96252998E+02  0.13380E+04
 0.96303001E+02  0.13100E+04
 0.96352997E+02  0.13280E+04
 0.96403000E+02  0.13340E+04
 0.96453003E+02  0.13150E+04
 0.96502998E+02  0.12920E+04
 0.96553001E+02  0.12860E+04
 0.96602997E+02  0.13100E+04
 0.96653000E+02  0.12390E+04
 0.96703003E+02  0.11960E+04
 0.96752998E+02  0.12180E+04
 0.96803001E+02  0.12230E+04
 0.96852997E+02  0.12030E+04
 0.96903000E+02  0.11900E+04
 0.96953003E+02  0.12170E+04
 0.97002998E+02  0.11850E+04
 0.97053001E+02  0.11820E+04
 0.97102997E+02  0.11830E+04
 0.97153000E+02  0.11560E+04
 0.97203003E+02  0.11290E+04
 0.97252998E+02  0.11350E+04
 0.97303001E+02  0.11390E+04
 0.97352997E+02  0.11330E+04
 0.97403000E+02  0.11050E+04
 0.97453003E+02  0.11180E+04
 0.97502998E+02  0.11570E+04
 0.97553001E+02  0.11010E+04
 0.97602997E+02  0.11050E+04
 0.97653000E+02  0.11110E+04
 0.97703003E+02  0.11120E+04
 0.97752998E+02  0.11240E+04
 0.97803001E+02  0.11100E+04
 0.97852997E+02  0.11150E+04
 0.97903000E+02  0.11080E+04
 0.97953003E+02  0.11270E+04
 0.98002998E+02  0.11560E+04
 0.98053001E+02  0.11470E+04
 0.98102997E+02  0.11420E+04
 0.98153000E+02  0.11630E+04
 0.98203003E+02  0.11560E+04
 0.98252998E+02  0.11480E+04
 0.98303001E+02  0.11390E+04
 0.98352997E+02  0.11630E+04
 0.98403000E+02  0.11590E+04
 0.98453003E+02  0.11640E+04
 0.98502998E+02  0.11860E+04
 0.98553001E+02  0.11960E+04
 0.98602997E+02  0.11980E+04
 0.98653000E+02  0.11850E+04
 0.98703003E+02  0.12180E+04
 0.98752998E+02  0.11890E+04
 0.98803001E+02  0.11620E+04
 0.98852997E+02  0.11990E+04
 0.98903000E+02  0.11950E+04
 0.98953003E+02  0.12130E+04
 0.99002998E+02  0.12500E+04
 0.99053001E+02  0.12340E+04
 0.99102997E+02  0.12530E+04
 0.99153000E+02  0.12280E+04
 0.99203003E+02  0.12420E+04
 0.99252998E+02  0.12420E+04
 0.99303001E+02  0.12100E+04
 0.99352997E+02  0.12280E+04
 0.99403000E+02  0.12030E+04
 0.99453003E+02  0.12580E+04
 0.99502998E+02  0.12630E+04
 0.99553001E+02  0.12520E+04
 0.99602997E+02  0.12430E+04
 0.99653000E+02  0.12150E+04
 0.99703003E+02  0.12330E+04
 0.99752998E+02  0.12270E+04
 0.99803001E+02  0.12180E+04
 0.99852997E+02  0.12390E+04
 0.99903000E+02  0.12510E+04
 0.99953003E+02  0.12520E+04
 0.10000300E+03  0.12440E+04
 0.10005300E+03  0.12240E+04
 0.10010300E+03  0.12300E+04
 0.10015300E+03  0.12350E+04
 0.10020300E+03  0.12120E+04
 0.10025300E+03  0.12220E+04
 0.10030300E+03  0.12390E+04
 0.10035300E+03  0.12160E+04
 0.10040300E+03  0.12030E+04
 0.10045300E+03  0.12160E+04
 0.10050300E+03  0.12360E+04
 0.10055300E+03  0.12320E+04
 0.10060300E+03  0.12120E+04
 0.10065300E+03  0.12160E+04
 0.10070300E+03  0.12180E+04
 0.10075300E+03  0.12410E+04
 0.10080300E+03  0.12380E+04
 0.10085300E+03  0.12230E+04
 0.10090300E+03  0.12240E+04
 0.10095300E+03  0.12340E+04
 0.10100300E+03  0.12560E+04
 0.10105300E+03  0.12390E+04
 0.10110300E+03  0.12550E+04
 0.10115300E+03  0.12520E+04
 0.10120300E+03  0.12600E+04
 0.10125300E+03  0.12780E+04
 0.10130300E+03  0.12760E+04
 0.10135300E+03  0.12880E+04
 0.10140300E+03  0.12720E+04
 0.10145300E+03  0.13040E+04
 0.10150300E+03  0.13170E+04
 0.10155300E+03  0.13300E+04
 0.10160300E+03  0.13520E+04
 0.10165300E+03  0.13340E+04
 0.10170300E+03  0.13530E+04
 0.10175300E+03  0.13380E+04
 0.10180300E+03  0.13330E+04
 0.10185300E+03  0.13460E+04
 0.10190300E+03  0.13710E+04
 0.10195300E+03  0.14080E+04
 0.10200300E+03  0.13870E+04
 0.10205300E+03  0.14030E+04
 0.10210300E+03  0.14040E+04
 0.10215300E+03  0.13910E+04
 0.10220300E+03  0.13920E+04
 0.10225300E+03  0.14010E+04
 0.10230300E+03  0.14140E+04
 0.10235300E+03  0.14210E+04
 0.10240300E+03  0.14080E+04
 0.10245300E+03  0.13870E+04
 0.10250300E+03  0.13900E+04
 0.10255300E+03  0.14090E+04
 0.10260300E+03  0.14310E+04
 0.10265300E+03  0.14240E+04
 0.10270300E+03  0.14210E+04
 0.10275300E+03  0.14310E+04
 0.10280300E+03  0.14140E+04
 0.10285300E+03  0.14050E+04
 0.10290300E+03  0.13980E+04
 0.10295300E+03  0.13890E+04
 0.10300300E+03  0.14170E+04
 0.10305300E+03  0.13960E+04
 0.10310300E+03  0.14060E+04
 0.10315300E+03  0.14170E+04
 0.10320300E+03  0.13820E+04
 0.10325300E+03  0.14070E+04
 0.10330300E+03  0.13880E+04
 0.10335300E+03  0.13770E+04
 0.10340300E+03  0.13850E+04
 0.10345300E+03  0.13750E+04
 0.10350300E+03  0.13780E+04
 0.10355300E+03  0.13550E+04
 0.10360300E+03  0.13570E+04
 0.10365300E+03  0.13480E+04
 0.10370300E+03  0.13430E+04
 0.10375300E+03  0.13330E+04
 0.10380300E+03  0.13190E+04
 0.10385300E+03  0.13350E+04
 0.10390300E+03  0.13410E+04
 0.10395300E+03  0.13410E+04
 0.10400300E+03  0.13320E+04
 0.10405300E+03  0.13190E+04
 0.10410300E+03  0.13060E+04
 0.10415300E+03  0.13020E+04
 0.10420300E+03  0.13120E+04
 0.10425300E+03  0.13180E+04
 0.10430300E+03  0.12990E+04
 0.10435300E+03  0.12930E+04
 0.10440300E+03  0.12830E+04
 0.10445300E+03  0.12770E+04
 0.10450300E+03  0.12670E+04
 0.10455300E+03  0.12410E+04
 0.10460300E+03  0.12460E+04
 0.10465300E+03  0.12290E+04
 0.10470300E+03  0.12100E+04
 0.10475300E+03  0.12250E+04
 0.10480300E+03  0.12180E+04
 0.10485300E+03  0.12150E+04
 0.10490300E+03  0.12110E+04
 0.10495300E+03  0.12040E+04
 0.10500300E+03  0.12100E+04
 0.10505300E+03  0.11720E+04
 0.10510300E+03  0.11750E+04
 0.10515300E+03  0.11670E+04
 0.10520300E+03  0.11440E+04
 0.10525300E+03  0.11690E+04
 0.10530300E+03  0.11540E+04
 0.10535300E+03  0.11420E+04
 0.10540300E+03  0.11490E+04
 0.10545300E+03  0.11480E+04
 0.10550300E+03  0.11610E+04
 0.10555300E+03  0.11370E+04
 0.10560300E+03  0.11080E+04
 0.10565300E+03  0.11340E+04
 0.10570300E+03  0.11440E+04
 0.10575300E+03  0.11530E+04
 0.10580300E+03  0.11290E+04
 0.10585300E+03  0.11130E+04
 0.10590300E+03  0.11330E+04
 0.10595300E+03  0.11270E+04
 0.10600300E+03  0.11280E+04
 0.10605300E+03  0.11290E+04
 0.10610300E+03  0.11300E+04
 0.10615300E+03  0.11190E+04
 0.10620300E+03  0.11400E+04
 0.10625300E+03  0.11540E+04
 0.10630300E+03  0.11580E+04
 0.10635300E+03  0.11440E+04
 0.10640300E+03  0.11360E+04
 0.10645300E+03  0.11580E+04
 0.10650300E+03  0.11500E+04
 0.10655300E+03  0.11380E+04
 0.10660300E+03  0.11680E+04
 0.10665300E+03  0.11960E+04
 0.10670300E+03  0.12020E+04
 0.10675300E+03  0.12100E+04
 0.10680300E+03  0.11860E+04
 0.10685300E+03  0.11600E+04
 0.10690300E+03  0.11510E+04
 0.10695300E+03  0.11420E+04
 0.10700300E+03  0.11610E+04
 0.10705300E+03  0.11670E+04
 0.10710300E+03  0.12010E+04
 0.10715300E+03  0.12370E+04
 0.10720300E+03  0.12090E+04
 0.10725300E+03  0.12010E+04
 0.10730300E+03  0.12000E+04
 0.10735300E+03  0.12290E+04
 0.10740300E+03  0.12480E+04
 0.10745300E+03  0.12250E+04
 0.10750300E+03  0.12320E+04
 0.10755300E+03  0.12420E+04
 0.10760300E+03  0.12660E+04
 0.10765300E+03  0.12770E+04
 0.10770300E+03  0.12520E+04
 0.10775300E+03  0.12680E+04
 0.10780300E+03  0.12990E+04
 0.10785300E+03  0.12900E+04
 0.10790300E+03  0.13090E+04
 0.10795300E+03  0.13340E+04
 0.10800300E+03  0.13540E+04
 0.10805300E+03  0.13600E+04
 0.10810300E+03  0.13310E+04
 0.10815300E+03  0.13450E+04
 0.10820300E+03  0.13860E+04
 0.10825300E+03  0.13490E+04
 0.10830300E+03  0.13500E+04
 0.10835300E+03  0.14090E+04
 0.10840300E+03  0.13900E+04
 0.10845300E+03  0.13970E+04
 0.10850300E+03  0.13970E+04
 0.10855300E+03  0.13910E+04
 0.10860300E+03  0.14060E+04
 0.10865300E+03  0.13780E+04
 0.10870300E+03  0.13980E+04
 0.10875300E+03  0.14000E+04
 0.10880300E+03  0.14210E+04
 0.10885300E+03  0.15090E+04
 0.10890300E+03  0.14750E+04
 0.10895300E+03  0.14350E+04
 0.10900300E+03  0.14520E+04
 0.10905300E+03  0.14590E+04
 0.10910300E+03  0.14870E+04
 0.10915300E+03  0.14400E+04
 0.10920300E+03  0.14420E+04
 0.10925300E+03  0.14610E+04
 0.10930300E+03  0.14560E+04
 0.10935300E+03  0.14640E+04
 0.10940300E+03  0.14620E+04
 0.10945300E+03  0.14970E+04
 0.10950300E+03  0.14640E+04
 0.10955300E+03  0.14600E+04
 0.10960300E+03  0.14880E+04
 0.10965300E+03  0.14790E+04
 0.10970300E+03  0.14810E+04
 0.10975300E+03  0.14650E+04
 0.10980300E+03  0.14990E+04
 0.10985300E+03  0.15060E+04
 0.10990300E+03  0.14930E+04
 0.10995300E+03  0.15070E+04
 0.11000300E+03  0.14790E+04
 0.11005300E+03  0.14750E+04
 0.11010300E+03  0.14850E+04
 0.11015300E+03  0.14610E+04
 0.11020300E+03  0.14420E+04
 0.11025300E+03  0.14590E+04
 0.11030300E+03  0.14580E+04
 0.11035300E+03  0.14360E+04
 0.11040300E+03  0.14600E+04
 0.11045300E+03  0.14550E+04
 0.11050300E+03  0.14410E+04
 0.11055300E+03  0.14510E+04
 0.11060300E+03  0.14110E+04
 0.11065300E+03  0.14120E+04
 0.11070300E+03  0.14170E+04
 0.11075300E+03  0.13920E+04
 0.11080300E+03  0.14000E+04
 0.11085300E+03  0.13990E+04
 0.11090300E+03  0.13940E+04
 0.11095300E+03  0.13650E+04
 0.11100300E+03  0.13330E+04
 0.11105300E+03  0.13410E+04
 0.11110300E+03  0.13180E+04
 0.11115300E+03  0.13280E+04
 0.11120300E+03  0.13560E+04
 0.11125300E+03  0.13210E+04
 0.11130300E+03  0.13140E+04
 0.11135300E+03  0.12790E+04
 0.11140300E+03  0.12710E+04
 0.11145300E+03  0.12780E+04
 0.11150300E+03  0.12580E+04
 0.11155300E+03  0.12500E+04
 0.11160300E+03  0.12530E+04
 0.11165300E+03  0.12560E+04
 0.11170300E+03  0.12410E+04
 0.11175300E+03  0.12440E+04
 0.11180300E+03  0.12480E+04
 0.11185300E+03  0.12230E+04
 0.11190300E+03  0.12020E+04
 0.11195300E+03  0.11960E+04
 0.11200300E+03  0.11800E+04
 0.11205300E+03  0.11780E+04
 0.11210300E+03  0.11630E+04
 0.11215300E+03  0.11850E+04
 0.11220300E+03  0.11980E+04
 0.11225300E+03  0.11510E+04
 0.11230300E+03  0.11340E+04
 0.11235300E+03  0.11090E+04
 0.11240300E+03  0.11000E+04
 0.11245300E+03  0.11210E+04
 0.11250300E+03  0.11040E+04
 0.11255300E+03  0.10750E+04
 0.11260300E+03  0.10930E+04
 0.11265300E+03  0.10880E+04
 0.11270300E+03  0.10870E+04
 0.11275300E+03  0.11100E+04
 0.11280300E+03  0.11110E+04
 0.11285300E+03  0.11050E+04
 0.11290300E+03  0.10770E+04
 0.11295300E+03  0.10750E+04
 0.11300300E+03  0.10540E+04
 0.11305300E+03  0.10410E+04
 0.11310300E+03  0.10530E+04
 0.11315300E+03  0.10360E+04
 0.11320300E+03  0.10520E+04
 0.11325300E+03  0.10380E+04
 0.11330300E+03  0.10140E+04
 0.11335300E+03  0.10340E+04
 0.11340300E+03  0.10250E+04
 0.11345300E+03  0.10270E+04
 0.11350300E+03  0.10420E+04
 0.11355300E+03  0.10280E+04
 0.11360300E+03  0.10040E+04
 0.11365300E+03  0.10090E+04
 0.11370300E+03  0.10240E+04
 0.11375300E+03  0.10220E+04
 0.11380300E+03  0.10220E+04
 0.11385300E+03  0.10210E+04
 0.11390300E+03  0.10300E+04
 0.11395300E+03  0.10250E+04
 0.11400300E+03  0.10080E+04
 0.11405300E+03  0.10100E+04
 0.11410300E+03  0.10530E+04
 0.11415300E+03  0.10540E+04
 0.11420300E+03  0.10350E+04
 0.11425300E+03  0.10340E+04
 0.11430300E+03  0.10420E+04
 0.11435300E+03  0.10670E+04
 0.11440300E+03  0.10650E+04
 0.11445300E+03  0.10870E+04
 0.11450300E+03  0.11050E+04
 0.11455300E+03  0.11080E+04
 0.11460300E+03  0.11000E+04
 0.11465300E+03  0.11130E+04
 0.11470300E+03  0.11450E+04
 0.11475300E+03  0.11760E+04
 0.11480300E+03  0.11920E+04
 0.11485300E+03  0.11740E+04
 0.11490300E+03  0.11650E+04
 0.11495300E+03  0.11830E+04
 0.11500300E+03  0.12160E+04
 0.11505300E+03  0.12580E+04
 0.11510300E+03  0.12590E+04
 0.11515300E+03  0.12680E+04
 0.11520300E+03  0.12550E+04
 0.11525300E+03  0.11950E+04
 0.11530300E+03  0.12770E+04
 0.11535300E+03  0.13140E+04
 0.11540300E+03  0.12940E+04
 0.11545300E+03  0.13160E+04
 0.11550300E+03  0.13040E+04
 0.11555300E+03  0.13260E+04
 0.11560300E+03  0.13240E+04
 0.11565300E+03  0.13150E+04
 0.11570300E+03  0.13320E+04
 0.11575300E+03  0.13260E+04
 0.11580300E+03  0.13080E+04
 0.11585300E+03  0.13130E+04
 0.11590300E+03  0.13270E+04
 0.11595300E+03  0.13260E+04
 0.11600300E+03  0.13290E+04
 0.11605300E+03  0.13470E+04
 0.11610300E+03  0.13590E+04
 0.11615300E+03  0.13310E+04
 0.11620300E+03  0.13260E+04
 0.11625300E+03  0.13220E+04
 0.11630300E+03  0.13060E+04
 0.11635300E+03  0.13200E+04
 0.11640300E+03  0.13160E+04
 0.11645300E+03  0.13290E+04
 0.11650300E+03  0.13150E+04
 0.11655300E+03  0.12970E+04
 0.11660300E+03  0.12990E+04
 0.11665300E+03  0.12990E+04
 0.11670300E+03  0.12940E+04
 0.11675300E+03  0.12690E+04
 0.11680300E+03  0.12810E+04
 0.11685300E+03  0.12950E+04
 0.11690300E+03  0.12840E+04
 0.11695300E+03  0.12950E+04
 0.11700300E+03  0.12680E+04
 0.11705300E+03  0.12770E+04
 0.11710300E+03  0.13180E+04
 0.11715300E+03  0.12870E+04
 0.11720300E+03  0.12920E+04
 0.11725300E+03  0.12860E+04
 0.11730300E+03  0.12740E+04
 0.11735300E+03  0.12500E+04
 0.11740300E+03  0.12430E+04
 0.11745300E+03  0.12630E+04
 0.11750300E+03  0.12550E+04
 0.11755300E+03  0.12460E+04
 0.11760300E+03  0.12130E+04
 0.11765300E+03  0.12120E+04
 0.11770300E+03  0.12280E+04
 0.11775300E+03  0.12500E+04
 0.11780300E+03  0.12260E+04
 0.11785300E+03  0.11920E+04
 0.11790300E+03  0.12020E+04
 0.11795300E+03  0.12120E+04
 0.11800300E+03  0.12120E+04
 0.11805300E+03  0.12280E+04
 0.11810300E+03  0.12570E+04
 0.11815300E+03  0.12830E+04
 0.11820300E+03  0.13030E+04
 0.11825300E+03  0.12830E+04
 0.11830300E+03  0.12830E+04
 0.11835300E+03  0.12800E+04
 0.11840300E+03  0.12510E+04
 0.11845300E+03  0.12860E+04
 0.11850300E+03  0.12900E+04
 0.11855300E+03  0.12420E+04
 0.11860300E+03  0.12530E+04
 0.11865300E+03  0.12480E+04
 0.11870300E+03  0.12910E+04
 0.11875300E+03  0.13840E+04
 0.11880300E+03  0.13770E+04
 0.11885300E+03  0.13650E+04
 0.11890300E+03  0.13890E+04
 0.11895300E+03  0.14540E+04
 0.11900300E+03  0.14310E+04
 0.11905300E+03  0.14400E+04
 0.11910300E+03  0.15010E+04
 0.11915300E+03  0.14410E+04
 0.11920300E+03  0.13600E+04
 0.11925300E+03  0.13290E+04
 0.11930300E+03  0.14470E+04
 0.11935300E+03  0.15050E+04
 0.11940300E+03  0.14320E+04
 0.11945300E+03  0.13870E+04
 0.11950300E+03  0.13940E+04
 0.11955300E+03  0.14760E+04
 0.11960300E+03  0.15270E+04
 0.11965300E+03  0.15010E+04
 0.11970300E+03  0.14980E+04
 0.11975300E+03  0.15570E+04
 0.11980300E+03  0.16750E+04
 0.11985300E+03  0.17480E+04
 0.11990300E+03  0.17650E+04
 0.11995300E+03  0.17960E+04
 0.12000300E+03  0.16910E+04
 0.12005300E+03  0.16390E+04
 0.12010300E+03  0.17010E+04
 0.12015300E+03  0.17500E+04
 0.12020300E+03  0.17300E+04
 0.12025300E+03  0.15340E+04
 0.12030300E+03  0.13640E+04
 0.12035300E+03  0.13740E+04
 0.12040300E+03  0.14450E+04
 0.12045300E+03  0.15300E+04
 0.12050300E+03  0.14560E+04
 0.12055300E+03  0.13460E+04
 0.12060300E+03  0.13890E+04
 0.12065300E+03  0.14520E+04
 0.12070300E+03  0.14450E+04
 0.12075300E+03  0.11800E+04
 0.12080300E+03  0.96800E+03
 0.12085300E+03  0.94000E+03
 0.12090300E+03  0.11110E+04
 0.12095300E+03  0.13200E+04
 0.12100300E+03  0.14000E+04
 0.12105300E+03  0.14350E+04
 0.12110300E+03  0.15030E+04
 0.12115300E+03  0.17420E+04
 0.12120300E+03  0.18020E+04
 0.12125300E+03  0.17000E+04
 0.12130300E+03  0.15080E+04
 0.12135300E+03  0.12770E+04
 0.12140300E+03  0.96800E+03
 0.12145300E+03  0.39000E+03
 0.12150300E+03 -0.12900E+03
 0.12155300E+03 -0.30400E+03
 0.12160300E+03  0.43000E+02
 0.12165300E+03  0.79500E+03
 0.12170300E+03  0.14470E+04
 0.12175300E+03  0.21310E+04
 0.12180300E+03  0.26790E+04
 0.12185300E+03  0.29610E+04
 0.12190300E+03  0.29240E+04
 0.12195300E+03  0.24480E+04
 0.12200300E+03  0.18100E+04
 0.12205300E+03  0.11060E+04
 0.12210300E+03  0.57300E+03
 0.12215300E+03 -0.36000E+02
 0.12220300E+03 -0.27700E+03
 0.12225300E+03 -0.12100E+03
 0.12230300E+03  0.16600E+03
 0.12235300E+03  0.87600E+03
 0.12240300E+03  0.15590E+04
 0.12245300E+03  0.22310E+04
 0.12250300E+03  0.25720E+04
 0.12255300E+03  0.25470E+04
 0.12260300E+03  0.21850E+04
 0.12265300E+03  0.13830E+04
 0.12270300E+03  0.65600E+03
 0.12275300E+03  0.17000E+02
 0.12280300E+03 -0.10900E+03
 0.12285300E+03  0.43500E+03
 0.12290300E+03  0.12870E+04
 0.12295300E+03  0.22350E+04
 0.12300300E+03  0.28170E+04
 0.12305300E+03  0.29610E+04
 0.12310300E+03  0.29550E+04
 0.12315300E+03  0.28410E+04
 0.12320300E+03  0.22530E+04
 0.12325300E+03  0.99400E+03
 0.12330300E+03 -0.64000E+02
 0.12335300E+03 -0.48700E+03
 0.12340300E+03 -0.52200E+03
 0.12345300E+03 -0.11600E+03
 0.12350300E+03  0.54400E+03
 0.12355300E+03  0.13280E+04
 0.12360300E+03  0.21550E+04
 0.12365300E+03  0.27130E+04
 0.12370300E+03  0.29110E+04
 0.12375300E+03  0.28390E+04
 0.12380300E+03  0.23880E+04
 0.12385300E+03  0.16000E+04
 0.12390300E+03  0.89200E+03
 0.12395300E+03  0.66900E+03
 0.12400300E+03  0.84700E+03
 0.12405300E+03  0.10550E+04
 0.12410300E+03  0.12320E+04
 0.12415300E+03  0.15830E+04
 0.12420300E+03  0.20900E+04
 0.12425300E+03  0.22420E+04
 0.12430300E+03  0.16160E+04
 0.12435300E+03  0.59100E+03
 0.12440300E+03 -0.24500E+03
 0.12445300E+03 -0.48400E+03
 0.12450300E+03 -0.37300E+03
 0.12455300E+03  0.10000E+01
 0.12460300E+03  0.10170E+04
 0.12465300E+03  0.23790E+04
 0.12470300E+03  0.32690E+04
 0.12475300E+03  0.41200E+04
 0.12480300E+03  0.49840E+04
 0.12485300E+03  0.44320E+04
 0.12490300E+03  0.32230E+04
 0.12495300E+03  0.18950E+04
 0.12500300E+03  0.66500E+03
 0.12505299E+03  0.37700E+03
 0.12510300E+03 -0.10900E+03
 0.12515300E+03 -0.80700E+03
 0.12520300E+03 -0.20800E+03
 0.12525299E+03  0.79400E+03
 0.12530299E+03  0.18890E+04
 0.12535300E+03  0.30280E+04
 0.12540300E+03  0.31430E+04
 0.12545300E+03  0.30930E+04
 0.12550299E+03  0.26840E+04
 0.12555299E+03  0.19780E+04
 0.12560300E+03  0.15350E+04
 0.12565300E+03  0.91900E+03
 0.12570300E+03  0.14000E+02
 0.12575299E+03 -0.52400E+03
 0.12580299E+03  0.53500E+03
 0.12585300E+03  0.21680E+04
 0.12590300E+03  0.24140E+04
 0.12595300E+03  0.17760E+04
 0.12600299E+03  0.16880E+04
 0.12605299E+03  0.22120E+04
 0.12610300E+03  0.25260E+04
 0.12615300E+03  0.14170E+04
 0.12620300E+03 -0.27500E+03
 0.12625299E+03 -0.11700E+04
 0.12630299E+03 -0.13930E+04
 0.12635300E+03 -0.10400E+04
 0.12640300E+03 -0.11900E+03
 0.12645300E+03  0.14600E+04
 0.12650299E+03  0.24960E+04
 0.12655299E+03  0.23880E+04
 0.12660300E+03  0.23730E+04
 0.12665300E+03  0.27650E+04
 0.12670300E+03  0.30770E+04
 0.12675299E+03  0.24580E+04
 0.12680299E+03  0.10070E+04
 0.12685300E+03  0.33500E+03
 0.12690300E+03  0.11200E+03
 0.12695300E+03  0.28900E+03
 0.12700299E+03  0.10940E+04
 0.12705299E+03  0.16150E+04
 0.12710300E+03  0.19310E+04
 0.12715300E+03  0.16190E+04
 0.12720300E+03  0.12330E+04
 0.12725299E+03  0.13770E+04
 0.12730299E+03  0.14610E+04
 0.12735300E+03  0.79100E+03
 0.12740300E+03 -0.32000E+03
 0.12745300E+03 -0.63500E+03
 0.12750299E+03 -0.31100E+03
 0.12755299E+03  0.89100E+03
 0.12760300E+03  0.26810E+04
 0.12765300E+03  0.39660E+04
 0.12770300E+03  0.44150E+04
 0.12775299E+03  0.39470E+04
 0.12780299E+03  0.30820E+04
 0.12785300E+03  0.27500E+04
 0.12790300E+03  0.24210E+04
 0.12795300E+03  0.82300E+03
 0.12800299E+03 -0.83200E+03
 0.12805299E+03 -0.11550E+04
 0.12810300E+03 -0.74700E+03
 0.12815300E+03  0.59000E+02
 0.12820300E+03  0.15930E+04
 0.12825299E+03  0.28640E+04
 0.12830299E+03  0.34780E+04
 0.12835300E+03  0.37480E+04
 0.12840300E+03  0.36380E+04
 0.12845300E+03  0.36640E+04
 0.12850299E+03  0.34970E+04
 0.12855299E+03  0.28440E+04
 0.12860300E+03  0.18970E+04
 0.12865300E+03  0.11830E+04
 0.12870300E+03  0.13320E+04
 0.12875299E+03  0.15540E+04
 0.12880299E+03  0.74500E+03
 0.12885300E+03 -0.68600E+03
 0.12890300E+03 -0.14520E+04
 0.12895300E+03 -0.14480E+04
 0.12900299E+03 -0.17760E+04
 0.12905299E+03 -0.28930E+04
 0.12910300E+03 -0.36500E+04
 0.12915300E+03 -0.27100E+04
 0.12920300E+03 -0.10020E+04
 0.12925299E+03  0.40000E+02
 0.12930299E+03  0.28700E+03
 0.12935300E+03  0.54800E+03
 0.12940300E+03  0.15680E+04
 0.12945300E+03  0.24620E+04
 0.12950299E+03  0.26500E+04
 0.12955299E+03  0.17260E+04
 0.12960300E+03  0.89000E+02
 0.12965300E+03 -0.12190E+04
 0.12970300E+03 -0.17920E+04
 0.12975299E+03 -0.12090E+04
 0.12980299E+03 -0.44800E+03
 0.12985300E+03 -0.21000E+03
 0.12990300E+03  0.26400E+03
 0.12995300E+03  0.17400E+04
 0.13000299E+03  0.32570E+04
 0.13005299E+03  0.32890E+04
 0.13010300E+03  0.19370E+04
 0.13015300E+03  0.39000E+02
 0.13020300E+03 -0.43600E+03
 0.13025299E+03  0.10170E+04
 0.13030299E+03  0.23890E+04
 0.13035300E+03  0.23190E+04
 0.13040300E+03  0.11620E+04
 0.13045300E+03  0.25000E+03
 0.13050299E+03  0.54100E+03
 0.13055299E+03  0.18100E+04
 0.13060300E+03  0.24310E+04
 0.13065300E+03  0.88200E+03
 0.13070300E+03 -0.14660E+04
 0.13075299E+03 -0.22710E+04
 0.13080299E+03 -0.21200E+04
 0.13085300E+03 -0.22730E+04
 0.13090300E+03 -0.29000E+04
 0.13095300E+03 -0.25890E+04
 0.13100299E+03 -0.57000E+03
 0.13105299E+03  0.16850E+04
 0.13110300E+03  0.33470E+04
 0.13115300E+03  0.38380E+04
 0.13120300E+03  0.36930E+04
 0.13125299E+03  0.26350E+04
 0.13130299E+03  0.46300E+03
 0.13135300E+03 -0.11200E+04
 0.13140300E+03 -0.17630E+04
 0.13145300E+03 -0.17690E+04
 0.13150299E+03 -0.14450E+04
 0.13155299E+03 -0.43800E+03
 0.13160300E+03  0.14010E+04
 0.13165300E+03  0.32690E+04
 0.13170300E+03  0.45900E+04
 0.13175299E+03  0.48800E+04
 0.13180299E+03  0.42670E+04
 0.13185300E+03  0.26280E+04
 0.13190300E+03  0.50600E+03
 0.13195300E+03 -0.69000E+03
 0.13200299E+03 -0.73700E+03
 0.13205299E+03 -0.25900E+03
 0.13210300E+03  0.13500E+03
 0.13215300E+03  0.55700E+03
 0.13220300E+03  0.18940E+04
 0.13225299E+03  0.37080E+04
 0.13230299E+03  0.42880E+04
 0.13235300E+03  0.38120E+04
 0.13240300E+03  0.26470E+04
 0.13245300E+03  0.95500E+03
 0.13250299E+03 -0.34000E+02
 0.13255299E+03 -0.14000E+03
 0.13260300E+03 -0.15000E+02
 0.13265300E+03 -0.39500E+03
 0.13270300E+03 -0.93100E+03
 0.13275299E+03  0.14000E+02
 0.13280299E+03  0.20330E+04
 0.13285300E+03  0.29600E+04
 0.13290300E+03  0.23440E+04
 0.13295300E+03  0.12390E+04
 0.13300299E+03  0.10890E+04
 0.13305299E+03  0.21500E+04
 0.13310300E+03  0.31090E+04
 0.13315300E+03  0.33060E+04
 0.13320300E+03  0.23780E+04
 0.13325299E+03  0.72800E+03
 0.13330299E+03  0.26400E+03
 0.13335300E+03  0.80800E+03
 0.13340300E+03  0.10680E+04
 0.13345300E+03  0.12160E+04
 0.13350299E+03  0.15090E+04
 0.13355299E+03  0.20510E+04
 0.13360300E+03  0.28680E+04
 0.13365300E+03  0.36960E+04
 0.13370300E+03  0.36690E+04
 0.13375299E+03  0.29940E+04
 0.13380299E+03  0.18360E+04
 0.13385300E+03  0.36100E+03
 0.13390300E+03 -0.37000E+03
 0.13395300E+03 -0.21500E+03
 0.13400299E+03  0.57100E+03
 0.13405299E+03  0.93300E+03
 0.13410300E+03  0.14460E+04
 0.13415300E+03  0.25320E+04
 0.13420300E+03  0.26160E+04
 0.13425299E+03  0.19390E+04
 0.13430299E+03  0.12630E+04
 0.13435300E+03  0.12170E+04
 0.13440300E+03  0.19760E+04
 0.13445300E+03  0.22200E+04
 0.13450299E+03  0.14450E+04
 0.13455299E+03  0.17400E+03
 0.13460300E+03 -0.38400E+03
 0.13465300E+03  0.29100E+03
 0.13470300E+03  0.85000E+03
 0.13475299E+03  0.13690E+04
 0.13480299E+03  0.19740E+04
 0.13485300E+03  0.21990E+04
 0.13490300E+03  0.22910E+04
 0.13495300E+03  0.25850E+04
 0.13500299E+03  0.37180E+04
 0.13505299E+03  0.42610E+04
 0.13510300E+03  0.31270E+04
 0.13515300E+03  0.21640E+04
 0.13520300E+03  0.22490E+04
 0.13525299E+03  0.27840E+04
 0.13530299E+03  0.33720E+04
 0.13535300E+03  0.33930E+04
 0.13540300E+03  0.28660E+04
 0.13545300E+03  0.18670E+04
 0.13550299E+03  0.63300E+03
 0.13555299E+03 -0.12900E+03
 0.13560300E+03 -0.20900E+03
 0.13565300E+03  0.67000E+02
 0.13570300E+03  0.17300E+03
 0.13575299E+03  0.19000E+03
 0.13580299E+03  0.11760E+04
 0.13585300E+03  0.29880E+04
 0.13590300E+03  0.42320E+04
 0.13595300E+03  0.45190E+04
 0.13600299E+03  0.39530E+04
 0.13605299E+03  0.29360E+04
 0.13610300E+03  0.13020E+04
 0.13615300E+03 -0.64700E+03
 0.13620300E+03 -0.21810E+04
 0.13625299E+03 -0.31680E+04
 0.13630299E+03 -0.26260E+04
 0.13635300E+03 -0.66400E+03
 0.13640300E+03  0.13150E+04
 0.13645300E+03  0.21940E+04
 0.13650299E+03  0.17120E+04
 0.13655299E+03  0.10870E+04
 0.13660300E+03  0.42400E+03
 0.13665300E+03 -0.97000E+03
 0.13670300E+03 -0.24050E+04
 0.13675299E+03 -0.28350E+04
 0.13680299E+03 -0.21200E+04
 0.13685300E+03 -0.94000E+03
 0.13690300E+03  0.33000E+02
 0.13695300E+03  0.11660E+04
 0.13700299E+03  0.28700E+04
 0.13705299E+03  0.44670E+04
 0.13710300E+03  0.51260E+04
 0.13715300E+03  0.53070E+04
 0.13720300E+03  0.61030E+04
 0.13725299E+03  0.58900E+04
 0.13730299E+03  0.41070E+04
 0.13735300E+03  0.25180E+04
 0.13740300E+03  0.17080E+04
 0.13745300E+03  0.16720E+04
 0.13750299E+03  0.18670E+04
 0.13755299E+03  0.23760E+04
 0.13760300E+03  0.36070E+04
 0.13765300E+03  0.50730E+04
 0.13770300E+03  0.57770E+04
 0.13775299E+03  0.55250E+04
 0.13780299E+03  0.49870E+04
 0.13785300E+03  0.43370E+04
 0.13790300E+03  0.31980E+04
 0.13795300E+03  0.17000E+04
 0.13800299E+03  0.83000E+03
 0.13805299E+03  0.64000E+03
 0.13810300E+03  0.71000E+03
 0.13815300E+03  0.12580E+04
 0.13820300E+03  0.20480E+04
 0.13825299E+03  0.28430E+04
 0.13830299E+03  0.34120E+04
 0.13835300E+03  0.34830E+04
 0.13840300E+03  0.32890E+04
 0.13845300E+03  0.25180E+04
 0.13850299E+03  0.59000E+03
 0.13855299E+03 -0.12460E+04
 0.13860300E+03 -0.18820E+04
 0.13865300E+03 -0.13530E+04
 0.13870300E+03  0.17600E+03
 0.13875299E+03  0.12370E+04
 0.13880299E+03  0.13640E+04
 0.13885300E+03  0.78100E+03
 0.13890300E+03 -0.71200E+03
 0.13895300E+03 -0.23750E+04
 0.13900299E+03 -0.34290E+04
 0.13905299E+03 -0.34250E+04
 0.13910300E+03 -0.25270E+04
 0.13915300E+03 -0.20590E+04
 0.13920300E+03 -0.21160E+04
 0.13925299E+03 -0.13000E+04
 0.13930299E+03  0.50100E+03
 0.13935300E+03  0.23540E+04
 0.13940300E+03  0.30270E+04
 0.13945300E+03  0.19810E+04
 0.13950299E+03  0.98800E+03
 0.13955299E+03  0.13630E+04
 0.13960300E+03  0.16620E+04
 0.13965300E+03  0.88900E+03
 0.13970300E+03 -0.45900E+03
 0.13975299E+03 -0.13010E+04
 0.13980299E+03 -0.14660E+04
 0.13985300E+03 -0.64200E+03
 0.13990300E+03  0.12780E+04
 0.13995300E+03  0.33940E+04
 0.14000299E+03  0.50360E+04
 0.14005299E+03  0.50400E+04
 0.14010300E+03  0.41280E+04
 0.14015300E+03  0.37000E+04
 0.14020300E+03  0.29900E+04
 0.14025299E+03  0.83900E+03
 0.14030299E+03 -0.19410E+04
 0.14035300E+03 -0.38110E+04
 0.14040300E+03 -0.34190E+04
 0.14045300E+03 -0.16020E+04
 0.14050299E+03 -0.34000E+03
 0.14055299E+03  0.38000E+02
 0.14060300E+03  0.61000E+03
 0.14065300E+03  0.24230E+04
 0.14070300E+03  0.37080E+04
 0.14075299E+03  0.37880E+04
 0.14080299E+03  0.28310E+04
 0.14085300E+03  0.13540E+04
 0.14090300E+03  0.14900E+03
 0.14095300E+03 -0.12140E+04
 0.14100299E+03 -0.19940E+04
 0.14105299E+03 -0.20030E+04
 0.14110300E+03 -0.20600E+04
 0.14115300E+03 -0.18440E+04
 0.14120300E+03 -0.18540E+04
 0.14125299E+03 -0.21780E+04
 0.14130299E+03 -0.19070E+04
 0.14135300E+03 -0.16050E+04
 0.14140300E+03 -0.10200E+04
 0.14145300E+03 -0.26000E+03
 0.14150299E+03  0.64500E+03
 0.14155299E+03  0.19550E+04
 0.14160300E+03  0.31550E+04
 0.14165300E+03  0.38530E+04
 0.14170300E+03  0.35130E+04
 0.14175299E+03  0.29340E+04
 0.14180299E+03  0.23130E+04
 0.14185300E+03  0.16670E+04
 0.14190300E+03  0.20530E+04
 0.14195300E+03  0.32500E+04
 0.14200299E+03  0.51590E+04
 0.14205299E+03  0.68650E+04
 0.14210300E+03  0.67880E+04
 0.14215300E+03  0.57770E+04
 0.14220300E+03  0.45100E+04
 0.14225299E+03  0.28820E+04
 0.14230299E+03  0.45600E+03
 0.14235300E+03 -0.24480E+04
 0.14240300E+03 -0.38720E+04
 0.14245300E+03 -0.32340E+04
 0.14250299E+03 -0.14930E+04
 0.14255299E+03  0.32400E+03
 0.14260300E+03  0.16630E+04
 0.14265300E+03  0.25240E+04
 0.14270300E+03  0.36200E+04
 0.14275299E+03  0.61400E+04
 0.14280299E+03  0.86400E+04
 0.14285300E+03  0.82550E+04
 0.14290300E+03  0.51040E+04
 0.14295300E+03  0.88700E+03
 0.14300299E+03 -0.21540E+04
 0.14305299E+03 -0.29780E+04
 0.14310300E+03 -0.32650E+04
 0.14315300E+03 -0.39810E+04
 0.14320300E+03 -0.39900E+04
 0.14325299E+03 -0.26800E+04
 0.14330299E+03  0.60000E+02
 0.14335300E+03  0.34430E+04
 0.14340300E+03  0.57740E+04
 0.14345300E+03  0.67370E+04
 0.14350299E+03  0.60010E+04
 0.14355299E+03  0.44110E+04
 0.14360300E+03  0.34460E+04
 0.14365300E+03  0.22630E+04
 0.14370300E+03  0.70100E+03
 0.14375299E+03 -0.62000E+02
 0.14380299E+03 -0.78000E+02
 0.14385300E+03  0.13600E+03
 0.14390300E+03  0.49600E+03
 0.14395300E+03 -0.28000E+03
 0.14400299E+03 -0.12220E+04
 0.14405299E+03 -0.73400E+03
 0.14410300E+03 -0.24200E+03
 0.14415300E+03  0.76400E+03
 0.14420300E+03  0.17570E+04
 0.14425299E+03  0.20230E+04
 0.14430299E+03  0.27910E+04
 0.14435300E+03  0.37740E+04
 0.14440300E+03  0.36120E+04
 0.14445300E+03  0.20310E+04
 0.14450299E+03  0.21000E+02
 0.14455299E+03 -0.69800E+03
 0.14460300E+03  0.53500E+03
 0.14465300E+03  0.20120E+04
 0.14470300E+03  0.30330E+04
 0.14475299E+03  0.35160E+04
 0.14480299E+03  0.33200E+04
 0.14485300E+03  0.27320E+04
 0.14490300E+03  0.13200E+04
 0.14495300E+03 -0.68100E+03
 0.14500299E+03 -0.14610E+04
 0.14505299E+03 -0.13300E+04
 0.14510300E+03 -0.72800E+03
 0.14515300E+03  0.57300E+03
 0.14520300E+03  0.19470E+04
 0.14525299E+03  0.26340E+04
 0.14530299E+03  0.19420E+04
 0.14535300E+03  0.54800E+03
 0.14540300E+03 -0.11300E+03
 0.14545300E+03 -0.41000E+02
 0.14550299E+03 -0.39000E+02
 0.14555299E+03  0.74400E+03
 0.14560300E+03  0.21480E+04
 0.14565300E+03  0.30930E+04
 0.14570300E+03  0.26810E+04
 0.14575299E+03  0.17750E+04
 0.14580299E+03  0.12310E+04
 0.14585300E+03  0.65100E+03
 0.14590300E+03  0.76000E+02
 0.14595300E+03 -0.35100E+03
 0.14600299E+03 -0.33100E+03
 0.14605299E+03 -0.50400E+03
 0.14610300E+03 -0.59600E+03
 0.14615300E+03  0.10300E+03
 0.14620300E+03  0.93300E+03
 0.14625299E+03  0.11370E+04
 0.14630299E+03  0.38200E+03
 0.14635300E+03  0.14000E+03
 0.14640300E+03  0.15760E+04
 0.14645300E+03  0.32550E+04
 0.14650299E+03  0.46170E+04
 0.14655299E+03  0.62930E+04
 0.14660300E+03  0.75440E+04
 0.14665300E+03  0.78810E+04
 0.14670300E+03  0.67550E+04
 0.14675299E+03  0.44740E+04
 0.14680299E+03  0.27260E+04
 0.14685300E+03  0.13080E+04
 0.14690300E+03 -0.13700E+03
 0.14695300E+03 -0.11470E+04
 0.14700299E+03 -0.14430E+04
 0.14705299E+03 -0.16000E+04
 0.14710300E+03 -0.20200E+04
 0.14715300E+03 -0.22700E+04
 0.14720300E+03 -0.14060E+04
 0.14725299E+03  0.50300E+03
 0.14730299E+03  0.23890E+04
 0.14735300E+03  0.38290E+04
 0.14740300E+03  0.45450E+04
 0.14745300E+03  0.41370E+04
 0.14750299E+03  0.33480E+04
 0.14755299E+03  0.27170E+04
 0.14760300E+03  0.28170E+04
 0.14765300E+03  0.34690E+04
 0.14770300E+03  0.33170E+04
 0.14775299E+03  0.24350E+04
 0.14780299E+03  0.15140E+04
 0.14785300E+03  0.60300E+03
 0.14790300E+03 -0.16700E+03
 0.14795300E+03 -0.52800E+03
 0.14800299E+03 -0.77900E+03
 0.14805299E+03 -0.68900E+03
 0.14810300E+03 -0.86300E+03
 0.14815300E+03 -0.72800E+03
 0.14820300E+03 -0.24300E+03
 0.14825299E+03  0.10300E+03
 0.14830299E+03  0.78000E+03
 0.14835300E+03  0.13510E+04
 0.14840300E+03  0.20190E+04
 0.14845300E+03  0.24970E+04
 0.14850299E+03  0.21190E+04
 0.14855299E+03  0.17260E+04
 0.14860300E+03  0.18690E+04
 0.14865300E+03  0.20940E+04
 0.14870300E+03  0.18160E+04
 0.14875299E+03  0.12740E+04
 0.14880299E+03  0.12080E+04
 0.14885300E+03  0.16300E+04
 0.14890300E+03  0.19500E+04
 0.14895300E+03  0.20420E+04
 0.14900299E+03  0.22730E+04
 0.14905299E+03  0.26460E+04
 0.14910300E+03  0.26740E+04
 0.14915300E+03  0.24660E+04
 0.14920300E+03  0.28300E+04
 0.14925299E+03  0.36170E+04
 0.14930299E+03  0.39620E+04
 0.14935300E+03  0.26940E+04
 0.14940300E+03  0.38200E+03
 0.14945300E+03 -0.19070E+04
 0.14950299E+03 -0.35800E+04
 0.14955299E+03 -0.43660E+04
 0.14960300E+03 -0.42730E+04
 0.14965300E+03 -0.33240E+04
 0.14970300E+03 -0.21550E+04
 0.14975299E+03 -0.16510E+04
 0.14980299E+03 -0.13780E+04
 0.14985300E+03 -0.11560E+04
 0.14990300E+03 -0.13350E+04
 0.14995300E+03 -0.16790E+04
