-0.29779999E+01 -0.28940E+04
-0.29280000E+01 -0.35500E+04
-0.28780000E+01 -0.47310E+04
-0.28279998E+01 -0.59290E+04
-0.27779999E+01 -0.63100E+04
-0.27279999E+01 -0.56610E+04
-0.26780000E+01 -0.42840E+04
-0.26280000E+01 -0.23990E+04
-0.25779998E+01 -0.56000E+03
-0.25279999E+01  0.80200E+03
-0.24779999E+01  0.19130E+04
-0.24280000E+01  0.30350E+04
-0.23779998E+01  0.42800E+04
-0.23279998E+01  0.56070E+04
-0.22779999E+01  0.68640E+04
-0.22279999E+01  0.79640E+04
-0.21780000E+01  0.88820E+04
-0.21279998E+01  0.98290E+04
-0.20779998E+01  0.11073E+05
-0.20279999E+01  0.12323E+05
-0.19779999E+01  0.12770E+05
-0.19279999E+01  0.12086E+05
-0.18779999E+01  0.10635E+05
-0.18279999E+01  0.86420E+04
-0.17779999E+01  0.63290E+04
-0.17279999E+01  0.41160E+04
-0.16779999E+01  0.23280E+04
-0.16279999E+01  0.11430E+04
-0.15779999E+01  0.38600E+03
-0.15279999E+01 -0.28900E+03
-0.14779999E+01 -0.12150E+04
-0.14279999E+01 -0.26540E+04
-0.13779999E+01 -0.44780E+04
-0.13279999E+01 -0.62560E+04
-0.12779999E+01 -0.75630E+04
-0.12279999E+01 -0.84100E+04
-0.11779999E+01 -0.91410E+04
-0.11279999E+01 -0.98550E+04
-0.10779999E+01 -0.10410E+05
-0.10279999E+01 -0.10600E+05
-0.97799993E+00 -0.10536E+05
-0.92799997E+00 -0.10625E+05
-0.87799978E+00 -0.10996E+05
-0.82799983E+00 -0.11452E+05
-0.77799988E+00 -0.11585E+05
-0.72799993E+00 -0.11104E+05
-0.67799997E+00 -0.10134E+05
-0.62799978E+00 -0.90220E+04
-0.57799983E+00 -0.80280E+04
-0.52799988E+00 -0.70510E+04
-0.47799993E+00 -0.58620E+04
-0.42799997E+00 -0.43960E+04
-0.37799978E+00 -0.28720E+04
-0.32799983E+00 -0.14770E+04
-0.27799988E+00  0.22000E+02
-0.22799993E+00  0.17580E+04
-0.17799997E+00  0.36070E+04
-0.12799978E+00  0.53870E+04
-0.77999830E-01  0.69100E+04
-0.27999878E-01  0.81210E+04
 0.22000074E-01  0.90170E+04
 0.72000027E-01  0.97060E+04
 0.12200022E+00  0.10223E+05
 0.17200017E+00  0.10542E+05
 0.22200012E+00  0.10710E+05
 0.27200007E+00  0.10638E+05
 0.32200003E+00  0.10288E+05
 0.37200022E+00  0.97080E+04
 0.42200017E+00  0.88940E+04
 0.47200012E+00  0.79160E+04
 0.52200007E+00  0.68370E+04
 0.57200003E+00  0.54640E+04
 0.62200022E+00  0.37210E+04
 0.67200017E+00  0.19830E+04
 0.72200012E+00  0.33300E+03
 0.77200007E+00 -0.14040E+04
 0.82200003E+00 -0.31510E+04
 0.87200022E+00 -0.46910E+04
 0.92200017E+00 -0.58290E+04
 0.97200012E+00 -0.67770E+04
 0.10220001E+01 -0.77510E+04
 0.10720003E+01 -0.86730E+04
 0.11220000E+01 -0.95110E+04
 0.11720002E+01 -0.10423E+05
 0.12220004E+01 -0.11743E+05
 0.12720001E+01 -0.13413E+05
 0.13220003E+01 -0.14985E+05
 0.13720000E+01 -0.15893E+05
 0.14220002E+01 -0.16142E+05
 0.14720004E+01 -0.16633E+05
 0.15220001E+01 -0.17687E+05
 0.15720003E+01 -0.18786E+05
 0.16220000E+01 -0.18986E+05
 0.16720002E+01 -0.17294E+05
 0.17220004E+01 -0.13903E+05
 0.17720001E+01 -0.98090E+04
 0.18220003E+01 -0.58770E+04
 0.18720000E+01 -0.28050E+04
 0.19220002E+01 -0.84900E+03
 0.19720004E+01  0.13600E+03
 0.20220001E+01  0.46800E+03
 0.20720003E+01  0.68700E+03
 0.21220000E+01  0.15160E+04
 0.21720002E+01  0.32760E+04
 0.22220004E+01  0.56500E+04
 0.22720001E+01  0.81830E+04
 0.23220003E+01  0.99890E+04
 0.23720000E+01  0.10541E+05
 0.24220002E+01  0.10447E+05
 0.24720004E+01  0.10015E+05
 0.25220001E+01  0.91930E+04
 0.25720003E+01  0.81100E+04
 0.26220000E+01  0.69880E+04
 0.26720002E+01  0.61630E+04
 0.27220004E+01  0.56250E+04
 0.27720001E+01  0.54770E+04
 0.28220003E+01  0.59460E+04
 0.28720000E+01  0.66160E+04
 0.29220002E+01  0.69570E+04
 0.29720004E+01  0.67160E+04
 0.30220001E+01  0.57730E+04
 0.30720003E+01  0.41900E+04
 0.31220000E+01  0.20700E+04
 0.31720002E+01 -0.48400E+03
 0.32220004E+01 -0.30650E+04
 0.32720001E+01 -0.49290E+04
 0.33220003E+01 -0.58290E+04
 0.33720000E+01 -0.63020E+04
 0.34220002E+01 -0.68190E+04
 0.34720004E+01 -0.74840E+04
 0.35220001E+01 -0.79940E+04
 0.35720003E+01 -0.78520E+04
 0.36220000E+01 -0.70510E+04
 0.36720002E+01 -0.59360E+04
 0.37220004E+01 -0.47890E+04
 0.37720001E+01 -0.37500E+04
 0.38220003E+01 -0.28310E+04
 0.38720000E+01 -0.21750E+04
 0.39220002E+01 -0.19180E+04
 0.39720004E+01 -0.16820E+04
 0.40220003E+01 -0.85500E+03
 0.40720005E+01  0.73000E+03
 0.41219997E+01  0.26870E+04
 0.41719999E+01  0.45280E+04
 0.42220001E+01  0.60850E+04
 0.42720003E+01  0.72770E+04
 0.43220005E+01  0.80860E+04
 0.43719997E+01  0.86930E+04
 0.44219999E+01  0.90010E+04
 0.44720001E+01  0.87710E+04
 0.45220003E+01  0.81970E+04
 0.45720005E+01  0.78040E+04
 0.46219997E+01  0.79920E+04
 0.46719999E+01  0.86730E+04
 0.47220001E+01  0.92390E+04
 0.47720003E+01  0.90730E+04
 0.48220005E+01  0.79260E+04
 0.48719997E+01  0.59220E+04
 0.49219999E+01  0.35390E+04
 0.49720001E+01  0.12060E+04
 0.50220003E+01 -0.10010E+04
 0.50720005E+01 -0.31330E+04
 0.51220007E+01 -0.50220E+04
 0.51720009E+01 -0.64360E+04
 0.52220001E+01 -0.76080E+04
 0.52720003E+01 -0.90950E+04
 0.53220005E+01 -0.11206E+05
 0.53720007E+01 -0.13569E+05
 0.54220009E+01 -0.15439E+05
 0.54720001E+01 -0.16395E+05
 0.55220003E+01 -0.16330E+05
 0.55720005E+01 -0.15417E+05
 0.56220007E+01 -0.13912E+05
 0.56720009E+01 -0.11691E+05
 0.57220001E+01 -0.86470E+04
 0.57720003E+01 -0.50330E+04
 0.58220005E+01 -0.10520E+04
 0.58720007E+01  0.29800E+04
 0.59220009E+01  0.64020E+04
 0.59720001E+01  0.88100E+04
 0.60220003E+01  0.10381E+05
 0.60720005E+01  0.11609E+05
 0.61220007E+01  0.13000E+05
 0.61720009E+01  0.14702E+05
 0.62220001E+01  0.16326E+05
 0.62720003E+01  0.17078E+05
 0.63220005E+01  0.16359E+05
 0.63720007E+01  0.14342E+05
 0.64220009E+01  0.11718E+05
 0.64720001E+01  0.92900E+04
 0.65220003E+01  0.75850E+04
 0.65720005E+01  0.67370E+04
 0.66220007E+01  0.64140E+04
 0.66720009E+01  0.57250E+04
 0.67220001E+01  0.40860E+04
 0.67720003E+01  0.17160E+04
 0.68220005E+01 -0.71000E+03
 0.68720007E+01 -0.26740E+04
 0.69220009E+01 -0.42640E+04
 0.69720001E+01 -0.55360E+04
 0.70220003E+01 -0.63100E+04
 0.70720005E+01 -0.66460E+04
 0.71220007E+01 -0.68060E+04
 0.71720009E+01 -0.70370E+04
 0.72220001E+01 -0.73350E+04
 0.72720003E+01 -0.76970E+04
 0.73220005E+01 -0.83020E+04
 0.73720007E+01 -0.90800E+04
 0.74220009E+01 -0.96340E+04
 0.74720001E+01 -0.97080E+04
 0.75220003E+01 -0.93430E+04
 0.75720005E+01 -0.87460E+04
 0.76220007E+01 -0.82240E+04
 0.76720009E+01 -0.75720E+04
 0.77220001E+01 -0.62580E+04
 0.77720003E+01 -0.42340E+04
 0.78220005E+01 -0.17150E+04
 0.78720007E+01  0.92900E+03
 0.79220009E+01  0.32200E+04
 0.79720001E+01  0.46000E+04
 0.80220003E+01  0.45930E+04
 0.80720005E+01  0.34910E+04
 0.81220007E+01  0.21610E+04
 0.81720009E+01  0.12760E+04
 0.82220001E+01  0.10880E+04
 0.82720003E+01  0.14870E+04
 0.83220005E+01  0.23170E+04
 0.83720007E+01  0.34070E+04
 0.84220009E+01  0.43300E+04
 0.84720001E+01  0.46900E+04
 0.85220003E+01  0.44220E+04
 0.85720005E+01  0.37260E+04
 0.86220007E+01  0.28700E+04
 0.86720009E+01  0.21720E+04
 0.87220001E+01  0.20130E+04
 0.87720003E+01  0.25310E+04
 0.88220005E+01  0.35990E+04
 0.88720007E+01  0.50120E+04
 0.89220009E+01  0.65010E+04
 0.89720001E+01  0.76370E+04
 0.90220003E+01  0.81200E+04
 0.90720005E+01  0.82000E+04
 0.91220007E+01  0.82350E+04
 0.91720009E+01  0.83650E+04
 0.92220001E+01  0.87880E+04
 0.92720003E+01  0.96410E+04
 0.93220005E+01  0.10823E+05
 0.93720007E+01  0.12124E+05
 0.94220009E+01  0.13187E+05
 0.94720001E+01  0.13700E+05
 0.95220003E+01  0.13753E+05
 0.95720005E+01  0.13488E+05
 0.96220007E+01  0.12796E+05
 0.96720009E+01  0.11798E+05
 0.97220001E+01  0.10757E+05
 0.97720003E+01  0.97300E+04
 0.98220005E+01  0.87230E+04
 0.98720007E+01  0.75160E+04
 0.99220009E+01  0.58560E+04
 0.99720001E+01  0.36990E+04
 0.10022000E+02  0.97500E+03
 0.10072001E+02 -0.20890E+04
 0.10122001E+02 -0.48970E+04
 0.10172001E+02 -0.70890E+04
 0.10222000E+02 -0.86160E+04
 0.10272000E+02 -0.94670E+04
 0.10322001E+02 -0.98200E+04
 0.10372001E+02 -0.99740E+04
 0.10422001E+02 -0.10087E+05
 0.10472000E+02 -0.10285E+05
 0.10522000E+02 -0.10557E+05
 0.10572001E+02 -0.10581E+05
 0.10622001E+02 -0.10068E+05
 0.10672001E+02 -0.92440E+04
 0.10722000E+02 -0.86110E+04
 0.10772000E+02 -0.86320E+04
 0.10822001E+02 -0.96650E+04
 0.10872001E+02 -0.11358E+05
 0.10922001E+02 -0.13003E+05
 0.10972000E+02 -0.14225E+05
 0.11022000E+02 -0.14844E+05
 0.11072001E+02 -0.15056E+05
 0.11122001E+02 -0.15135E+05
 0.11172001E+02 -0.15303E+05
 0.11222000E+02 -0.15707E+05
 0.11272000E+02 -0.16113E+05
 0.11322001E+02 -0.16270E+05
 0.11372001E+02 -0.15977E+05
 0.11422001E+02 -0.15137E+05
 0.11472000E+02 -0.13744E+05
 0.11522000E+02 -0.11773E+05
 0.11572001E+02 -0.95120E+04
 0.11622001E+02 -0.72300E+04
 0.11672001E+02 -0.49720E+04
 0.11722000E+02 -0.30360E+04
 0.11772000E+02 -0.18400E+04
 0.11822001E+02 -0.13460E+04
 0.11872001E+02 -0.10270E+04
 0.11922001E+02 -0.45000E+03
 0.11972000E+02  0.35900E+03
 0.12022000E+02  0.11840E+04
 0.12072001E+02  0.19330E+04
 0.12122001E+02  0.25590E+04
 0.12172001E+02  0.29730E+04
 0.12222000E+02  0.31550E+04
 0.12272000E+02  0.30790E+04
 0.12322001E+02  0.26990E+04
 0.12372001E+02  0.21470E+04
 0.12422001E+02  0.14990E+04
 0.12472000E+02  0.73000E+03
 0.12522000E+02 -0.94000E+02
 0.12572001E+02 -0.10220E+04
 0.12622001E+02 -0.20370E+04
 0.12672001E+02 -0.29070E+04
 0.12722000E+02 -0.35620E+04
 0.12772000E+02 -0.39780E+04
 0.12822001E+02 -0.40940E+04
 0.12872001E+02 -0.40770E+04
 0.12922001E+02 -0.41020E+04
 0.12972000E+02 -0.41270E+04
 0.13022000E+02 -0.39720E+04
 0.13072001E+02 -0.34730E+04
 0.13122001E+02 -0.27640E+04
 0.13172000E+02 -0.21330E+04
 0.13222001E+02 -0.14360E+04
 0.13272000E+02 -0.22300E+03
 0.13322001E+02  0.15500E+04
 0.13372001E+02  0.36180E+04
 0.13422000E+02  0.56900E+04
 0.13472001E+02  0.74430E+04
 0.13522000E+02  0.86650E+04
 0.13572001E+02  0.92680E+04
 0.13622001E+02  0.93970E+04
 0.13672000E+02  0.95220E+04
 0.13722001E+02  0.99920E+04
 0.13772000E+02  0.10627E+05
 0.13822001E+02  0.10892E+05
 0.13872001E+02  0.10280E+05
 0.13922000E+02  0.86550E+04
 0.13972001E+02  0.62120E+04
 0.14022000E+02  0.31480E+04
 0.14072001E+02 -0.80000E+02
 0.14122001E+02 -0.29510E+04
 0.14172000E+02 -0.53320E+04
 0.14222001E+02 -0.73360E+04
 0.14272000E+02 -0.91390E+04
 0.14322001E+02 -0.10689E+05
 0.14372001E+02 -0.11871E+05
 0.14422000E+02 -0.12596E+05
 0.14472001E+02 -0.12893E+05
 0.14522000E+02 -0.12909E+05
 0.14572001E+02 -0.12242E+05
 0.14622001E+02 -0.10531E+05
 0.14672000E+02 -0.78300E+04
 0.14722001E+02 -0.45990E+04
 0.14772000E+02 -0.13660E+04
 0.14822001E+02  0.16760E+04
 0.14872001E+02  0.43040E+04
 0.14922000E+02  0.79340E+04
 0.14972001E+02  0.13313E+05
 0.15022000E+02  0.19424E+05
 0.15072001E+02  0.25790E+05
 0.15122001E+02  0.30675E+05
 0.15172000E+02  0.32619E+05
 0.15222001E+02  0.33113E+05
 0.15272000E+02  0.36906E+05
 0.15322001E+02  0.41243E+05
 0.15372001E+02  0.40755E+05
 0.15422000E+02  0.35105E+05
 0.15472001E+02  0.24184E+05
 0.15522000E+02  0.21097E+05
 0.15572001E+02  0.11565E+05
 0.15622001E+02 -0.25132E+05
 0.15672000E+02 -0.51714E+05
 0.15722001E+02 -0.38974E+05
 0.15772000E+02  0.35110E+04
 0.15822001E+02  0.52850E+05
 0.15872001E+02  0.65367E+05
 0.15922000E+02  0.11676E+05
 0.15972001E+02 -0.21116E+05
 0.16021999E+02  0.18908E+05
 0.16072001E+02  0.50921E+05
 0.16122000E+02  0.48886E+05
 0.16171999E+02 -0.53604E+05
 0.16222000E+02 -0.21697E+06
 0.16271999E+02 -0.29338E+06
 0.16322001E+02 -0.31549E+06
 0.16372000E+02 -0.26787E+06
 0.16421999E+02 -0.15835E+06
 0.16472000E+02 -0.70715E+05
 0.16521999E+02 -0.41831E+05
 0.16572001E+02 -0.11131E+06
 0.16622000E+02 -0.18843E+06
 0.16671999E+02 -0.13988E+06
 0.16722000E+02 -0.18533E+05
 0.16771999E+02  0.23873E+05
 0.16822001E+02 -0.26013E+05
 0.16872000E+02 -0.18475E+06
 0.16921999E+02 -0.28971E+06
 0.16972000E+02 -0.14377E+06
 0.17021999E+02 -0.68680E+04
 0.17072001E+02  0.11936E+06
 0.17122000E+02  0.31159E+06
 0.17171999E+02  0.34960E+06
 0.17222000E+02  0.21458E+06
 0.17271999E+02 -0.11145E+06
 0.17322001E+02 -0.47797E+06
 0.17372000E+02 -0.55452E+06
 0.17421999E+02 -0.30060E+06
 0.17472000E+02  0.31739E+05
 0.17521999E+02  0.15569E+06
 0.17572001E+02 -0.52663E+05
 0.17622000E+02 -0.36109E+06
 0.17671999E+02 -0.33761E+06
 0.17722000E+02 -0.90571E+05
 0.17771999E+02 -0.56740E+04
 0.17822001E+02 -0.14906E+06
 0.17872000E+02 -0.34022E+06
 0.17921999E+02 -0.31786E+06
 0.17972000E+02 -0.97550E+04
 0.18021999E+02  0.39276E+06
 0.18072001E+02  0.48071E+06
 0.18122000E+02  0.15215E+06
 0.18171999E+02 -0.16949E+06
 0.18222000E+02 -0.21437E+06
 0.18271999E+02 -0.57938E+05
 0.18322001E+02  0.84443E+05
 0.18372000E+02 -0.76054E+05
 0.18421999E+02 -0.33801E+06
 0.18472000E+02 -0.30926E+06
 0.18521999E+02 -0.13692E+06
 0.18572001E+02  0.20126E+06
 0.18622000E+02  0.58333E+06
 0.18671999E+02  0.60449E+06
 0.18722000E+02  0.23668E+06
 0.18771999E+02 -0.34233E+06
 0.18822001E+02 -0.68249E+06
 0.18872000E+02 -0.73748E+06
 0.18921999E+02 -0.47403E+06
 0.18972000E+02  0.23936E+06
 0.19021999E+02  0.54506E+06
 0.19072001E+02  0.19211E+06
 0.19122000E+02 -0.25067E+06
 0.19171999E+02 -0.42354E+06
 0.19222000E+02  0.12750E+06
 0.19271999E+02  0.83301E+06
 0.19322001E+02  0.89154E+06
 0.19372000E+02  0.45660E+06
 0.19421999E+02 -0.31804E+06
 0.19472000E+02 -0.82290E+06
 0.19521999E+02 -0.51870E+06
 0.19572001E+02 -0.97470E+04
 0.19622000E+02  0.11037E+06
 0.19671999E+02  0.11301E+06
 0.19722000E+02  0.20198E+06
 0.19771999E+02  0.26486E+06
 0.19822001E+02  0.37790E+06
 0.19872000E+02  0.34965E+06
 0.19921999E+02  0.33045E+06
 0.19972000E+02  0.40628E+06
 0.20021999E+02  0.18082E+06
 0.20072001E+02 -0.12114E+06
 0.20122000E+02 -0.37339E+06
 0.20171999E+02 -0.34399E+06
 0.20222000E+02 -0.10124E+06
 0.20271999E+02 -0.38724E+05
 0.20322001E+02  0.32510E+06
 0.20372000E+02  0.56253E+06
 0.20421999E+02  0.23433E+06
 0.20472000E+02  0.66904E+05
 0.20521999E+02  0.11766E+06
 0.20572001E+02  0.20260E+06
 0.20622000E+02  0.36074E+06
 0.20671999E+02  0.27419E+06
 0.20722000E+02 -0.29438E+05
 0.20771999E+02  0.71360E+04
 0.20822001E+02  0.21931E+06
 0.20872000E+02  0.39762E+06
 0.20921999E+02  0.56960E+06
 0.20972000E+02  0.28039E+06
 0.21021999E+02 -0.30767E+06
 0.21072001E+02 -0.59349E+06
 0.21122000E+02 -0.24846E+06
 0.21171999E+02  0.12034E+06
 0.21222000E+02  0.98490E+05
 0.21271999E+02  0.25790E+06
 0.21322001E+02  0.27206E+06
 0.21372000E+02  0.19410E+06
 0.21421999E+02  0.29314E+06
 0.21472000E+02  0.40592E+05
 0.21521999E+02 -0.28342E+06
 0.21572001E+02 -0.24176E+06
 0.21622000E+02 -0.86120E+05
 0.21671999E+02 -0.14217E+06
 0.21722000E+02 -0.12844E+06
 0.21771999E+02  0.21070E+06
 0.21822001E+02  0.50398E+06
 0.21872000E+02  0.56127E+06
 0.21921999E+02  0.37549E+06
 0.21972000E+02 -0.78685E+05
 0.22021999E+02 -0.45377E+06
 0.22072001E+02 -0.58233E+06
 0.22122000E+02 -0.59633E+06
 0.22171999E+02 -0.48580E+06
 0.22222000E+02 -0.46254E+06
 0.22271999E+02 -0.30058E+06
 0.22322001E+02  0.14951E+05
 0.22372000E+02  0.16625E+06
 0.22421999E+02  0.30056E+06
 0.22472000E+02 -0.75895E+05
 0.22521999E+02 -0.54406E+06
 0.22572001E+02 -0.39291E+06
 0.22622000E+02 -0.24268E+06
 0.22671999E+02 -0.13227E+06
 0.22722000E+02 -0.64812E+05
 0.22771999E+02  0.47590E+05
 0.22822001E+02  0.43150E+06
 0.22872000E+02  0.41709E+06
 0.22921999E+02  0.90591E+05
 0.22972000E+02 -0.18841E+06
 0.23021999E+02 -0.51283E+06
 0.23072001E+02 -0.41950E+06
 0.23122000E+02 -0.19000E+06
 0.23171999E+02 -0.24360E+06
 0.23222000E+02 -0.18626E+06
 0.23271999E+02 -0.19312E+06
 0.23322001E+02 -0.41072E+06
 0.23372000E+02 -0.64092E+06
 0.23421999E+02 -0.51650E+06
 0.23472000E+02  0.13271E+06
 0.23521999E+02  0.51041E+06
 0.23572001E+02  0.45316E+06
 0.23622000E+02  0.43330E+06
 0.23671999E+02  0.22620E+06
 0.23722000E+02 -0.23101E+06
 0.23771999E+02 -0.54386E+06
 0.23822001E+02 -0.42006E+06
 0.23872000E+02  0.15192E+05
 0.23921999E+02  0.34697E+06
 0.23972000E+02  0.42961E+06
 0.24021999E+02  0.32550E+06
 0.24072001E+02  0.18639E+06
 0.24122000E+02  0.28674E+06
 0.24171999E+02  0.40638E+06
 0.24222000E+02  0.15867E+05
 0.24271999E+02 -0.61909E+06
 0.24322001E+02 -0.82042E+06
 0.24372000E+02 -0.27818E+06
 0.24421999E+02  0.61141E+06
 0.24472000E+02  0.10639E+07
 0.24521999E+02  0.98469E+06
 0.24572001E+02  0.54856E+06
 0.24622000E+02  0.44540E+04
 0.24671999E+02 -0.40854E+06
 0.24722000E+02 -0.72968E+06
 0.24771999E+02 -0.63479E+06
 0.24822001E+02 -0.16255E+06
 0.24872000E+02  0.51386E+06
 0.24921999E+02  0.12620E+07
 0.24972000E+02  0.13200E+07
 0.25021999E+02  0.75123E+06
 0.25072001E+02 -0.11770E+04
 0.25122000E+02 -0.76940E+06
 0.25171999E+02 -0.93222E+06
 0.25222000E+02 -0.60374E+06
 0.25271999E+02 -0.28229E+06
 0.25322001E+02 -0.86437E+05
 0.25372000E+02 -0.86000E+03
 0.25421999E+02  0.37548E+06
 0.25472000E+02  0.83284E+06
 0.25521999E+02  0.74277E+06
 0.25572001E+02  0.12200E+06
 0.25622000E+02 -0.54133E+06
 0.25671999E+02 -0.86800E+06
 0.25722000E+02 -0.10115E+07
 0.25771999E+02 -0.90614E+06
 0.25822001E+02 -0.39026E+06
 0.25872000E+02  0.88167E+05
 0.25921999E+02  0.32314E+06
 0.25972000E+02  0.57672E+06
 0.26021999E+02  0.79489E+06
 0.26072001E+02  0.72548E+06
 0.26122000E+02  0.30860E+06
 0.26171999E+02 -0.27942E+06
 0.26222000E+02 -0.90710E+06
 0.26271999E+02 -0.13969E+07
 0.26322001E+02 -0.11417E+07
 0.26372000E+02 -0.14247E+06
 0.26421999E+02  0.75426E+06
 0.26472000E+02  0.10932E+07
 0.26521999E+02  0.11708E+07
 0.26572001E+02  0.10109E+07
 0.26622000E+02  0.52145E+06
 0.26671999E+02  0.19117E+06
 0.26722000E+02 -0.23374E+06
 0.26771999E+02 -0.99584E+06
 0.26822001E+02 -0.13861E+07
 0.26872000E+02 -0.79349E+06
 0.26921999E+02  0.53129E+06
 0.26972000E+02  0.15710E+07
 0.27021999E+02  0.19631E+07
 0.27072001E+02  0.14395E+07
 0.27122000E+02 -0.90895E+05
 0.27171999E+02 -0.15115E+07
 0.27222000E+02 -0.24822E+07
 0.27271999E+02 -0.33970E+07
 0.27322001E+02 -0.37068E+07
 0.27372000E+02 -0.29451E+07
 0.27421999E+02 -0.13744E+07
 0.27472000E+02  0.47248E+06
 0.27521999E+02  0.18423E+07
 0.27572001E+02  0.23205E+07
 0.27622000E+02  0.18636E+07
 0.27671999E+02  0.77587E+06
 0.27722000E+02 -0.44150E+06
 0.27771999E+02 -0.17080E+07
 0.27822001E+02 -0.26328E+07
 0.27872000E+02 -0.27374E+07
 0.27921999E+02 -0.18500E+07
 0.27972000E+02  0.41080E+04
 0.28021999E+02  0.16714E+07
 0.28072001E+02  0.21306E+07
 0.28122000E+02  0.16419E+07
 0.28171999E+02  0.22850E+06
 0.28222000E+02 -0.17139E+07
 0.28271999E+02 -0.26509E+07
 0.28322001E+02 -0.21613E+07
 0.28372000E+02 -0.29998E+06
 0.28421999E+02  0.24610E+07
 0.28472000E+02  0.39580E+07
 0.28521999E+02  0.32315E+07
 0.28572001E+02  0.54939E+06
 0.28622000E+02 -0.26482E+07
 0.28671999E+02 -0.40751E+07
 0.28722000E+02 -0.36837E+07
 0.28771999E+02 -0.26221E+07
 0.28822001E+02 -0.86830E+06
 0.28872000E+02  0.16588E+07
 0.28921999E+02  0.39716E+07
 0.28972000E+02  0.64085E+07
 0.29021999E+02  0.77545E+07
 0.29071999E+02  0.59349E+07
 0.29122002E+02  0.29646E+07
 0.29172001E+02  0.13525E+07
 0.29222000E+02  0.10615E+07
 0.29271999E+02  0.61427E+06
 0.29321999E+02  0.41421E+06
 0.29372002E+02  0.13793E+07
 0.29422001E+02  0.29548E+07
 0.29472000E+02  0.41765E+07
 0.29521999E+02  0.40795E+07
 0.29571999E+02  0.33921E+07
 0.29622002E+02  0.33407E+07
 0.29672001E+02  0.36317E+07
 0.29722000E+02  0.34668E+07
 0.29771999E+02  0.43236E+07
 0.29821999E+02  0.69937E+07
 0.29872002E+02  0.81109E+07
 0.29922001E+02  0.64648E+07
 0.29972000E+02  0.50344E+07
 0.30021999E+02  0.26561E+07
 0.30071999E+02 -0.11620E+07
 0.30122002E+02 -0.14922E+07
 0.30172001E+02  0.48072E+06
 0.30222000E+02  0.21694E+07
 0.30271999E+02  0.39509E+07
 0.30321999E+02  0.49022E+07
 0.30372002E+02  0.55647E+07
 0.30422001E+02  0.52174E+07
 0.30472000E+02  0.34250E+07
 0.30521999E+02  0.15176E+07
 0.30571999E+02  0.89849E+06
 0.30622002E+02  0.20235E+07
 0.30672001E+02  0.34067E+07
 0.30722000E+02  0.45824E+07
 0.30771999E+02  0.53559E+07
 0.30821999E+02  0.44783E+07
 0.30872002E+02  0.25135E+07
 0.30922001E+02  0.22750E+07
 0.30972000E+02  0.37376E+07
 0.31021999E+02  0.50498E+07
 0.31071999E+02  0.64817E+07
 0.31122002E+02  0.75472E+07
 0.31172001E+02  0.70957E+07
 0.31222000E+02  0.55103E+07
 0.31271999E+02  0.36405E+07
 0.31321999E+02  0.14821E+07
 0.31372002E+02 -0.31179E+06
 0.31422001E+02  0.58699E+05
 0.31472000E+02  0.20647E+07
 0.31521999E+02  0.41022E+07
 0.31571999E+02  0.61586E+07
 0.31622002E+02  0.74046E+07
 0.31672001E+02  0.70927E+07
 0.31722000E+02  0.55207E+07
 0.31771999E+02  0.28610E+07
 0.31821999E+02  0.74156E+06
 0.31872002E+02  0.22598E+06
 0.31922001E+02  0.85870E+06
 0.31972000E+02  0.22188E+07
 0.32021999E+02  0.29923E+07
 0.32071999E+02  0.29854E+07
 0.32122002E+02  0.28155E+07
 0.32172001E+02  0.23497E+07
 0.32222000E+02  0.22088E+07
 0.32271999E+02  0.25135E+07
 0.32321999E+02  0.31479E+07
 0.32372002E+02  0.41236E+07
 0.32422001E+02  0.43804E+07
 0.32472000E+02  0.38709E+07
 0.32521999E+02  0.34934E+07
 0.32571999E+02  0.31429E+07
 0.32622002E+02  0.24329E+07
 0.32672001E+02  0.15005E+07
 0.32722000E+02  0.59997E+06
 0.32771999E+02  0.32335E+06
 0.32821999E+02  0.11912E+07
 0.32872002E+02  0.25360E+07
 0.32922001E+02  0.36572E+07
 0.32972000E+02  0.42040E+07
 0.33021999E+02  0.39212E+07
 0.33071999E+02  0.34542E+07
 0.33122002E+02  0.35072E+07
 0.33172001E+02  0.41025E+07
 0.33222000E+02  0.46778E+07
 0.33271999E+02  0.45992E+07
 0.33321999E+02  0.37801E+07
 0.33372002E+02  0.22629E+07
 0.33422001E+02  0.55366E+06
 0.33472000E+02 -0.39424E+06
 0.33521999E+02 -0.13682E+06
 0.33571999E+02  0.12352E+07
 0.33622002E+02  0.30418E+07
 0.33672001E+02  0.44574E+07
 0.33722000E+02  0.50511E+07
 0.33771999E+02  0.46305E+07
 0.33821999E+02  0.35037E+07
 0.33872002E+02  0.20407E+07
 0.33922001E+02  0.55182E+06
 0.33972000E+02 -0.71698E+05
 0.34021999E+02  0.54405E+06
 0.34071999E+02  0.17677E+07
 0.34122002E+02  0.28349E+07
 0.34172001E+02  0.30633E+07
 0.34222000E+02  0.25435E+07
 0.34271999E+02  0.19697E+07
 0.34321999E+02  0.17724E+07
 0.34372002E+02  0.20633E+07
 0.34422001E+02  0.25677E+07
 0.34472000E+02  0.29905E+07
 0.34521999E+02  0.33221E+07
 0.34571999E+02  0.36216E+07
 0.34622002E+02  0.36265E+07
 0.34672001E+02  0.31237E+07
 0.34722000E+02  0.22781E+07
 0.34771999E+02  0.13935E+07
 0.34821999E+02  0.10394E+07
 0.34872002E+02  0.12137E+07
 0.34922001E+02  0.14209E+07
 0.34972000E+02  0.17535E+07
 0.35021999E+02  0.24618E+07
 0.35071999E+02  0.33178E+07
 0.35122002E+02  0.38012E+07
 0.35172001E+02  0.37629E+07
 0.35222000E+02  0.33810E+07
 0.35271999E+02  0.26580E+07
 0.35321999E+02  0.16439E+07
 0.35372002E+02  0.78296E+06
 0.35422001E+02  0.56060E+06
 0.35472000E+02  0.10943E+07
 0.35521999E+02  0.20587E+07
 0.35571999E+02  0.28245E+07
 0.35622002E+02  0.30571E+07
 0.35672001E+02  0.27630E+07
 0.35722000E+02  0.21529E+07
 0.35771999E+02  0.15275E+07
 0.35821999E+02  0.10313E+07
 0.35872002E+02  0.91675E+06
 0.35922001E+02  0.11638E+07
 0.35972000E+02  0.14040E+07
 0.36021999E+02  0.15544E+07
 0.36071999E+02  0.17585E+07
 0.36122002E+02  0.22210E+07
 0.36172001E+02  0.29909E+07
 0.36222000E+02  0.38705E+07
 0.36271999E+02  0.46112E+07
 0.36321999E+02  0.49300E+07
 0.36372002E+02  0.44987E+07
 0.36422001E+02  0.32164E+07
 0.36472000E+02  0.15961E+07
 0.36521999E+02  0.33066E+06
 0.36571999E+02 -0.12982E+06
 0.36622002E+02  0.54468E+06
 0.36672001E+02  0.18927E+07
 0.36722000E+02  0.28808E+07
 0.36771999E+02  0.30779E+07
 0.36821999E+02  0.24206E+07
 0.36872002E+02  0.13714E+07
 0.36922001E+02  0.86802E+06
 0.36972000E+02  0.85714E+06
 0.37021999E+02  0.68835E+06
 0.37071999E+02  0.51085E+06
 0.37122002E+02  0.75242E+06
 0.37172001E+02  0.12809E+07
 0.37222000E+02  0.19112E+07
 0.37271999E+02  0.24861E+07
 0.37321999E+02  0.26291E+07
 0.37372002E+02  0.23535E+07
 0.37422001E+02  0.18737E+07
 0.37472000E+02  0.12879E+07
 0.37521999E+02  0.91187E+06
 0.37571999E+02  0.91344E+06
 0.37622002E+02  0.90001E+06
 0.37672001E+02  0.44699E+06
 0.37722000E+02 -0.67355E+05
 0.37771999E+02  0.85290E+05
 0.37821999E+02  0.80451E+06
 0.37872002E+02  0.14138E+07
 0.37922001E+02  0.15083E+07
 0.37972000E+02  0.12065E+07
 0.38021999E+02  0.10380E+07
 0.38071999E+02  0.10788E+07
 0.38122002E+02  0.89805E+06
 0.38172001E+02  0.55448E+06
 0.38222000E+02  0.38739E+06
 0.38271999E+02  0.57672E+06
 0.38321999E+02  0.10259E+07
 0.38372002E+02  0.12434E+07
 0.38422001E+02  0.10264E+07
 0.38472000E+02  0.81415E+06
 0.38521999E+02  0.10265E+07
 0.38571999E+02  0.14675E+07
 0.38622002E+02  0.15930E+07
 0.38672001E+02  0.13670E+07
 0.38722000E+02  0.12072E+07
 0.38771999E+02  0.12645E+07
 0.38821999E+02  0.14730E+07
 0.38872002E+02  0.16429E+07
 0.38922001E+02  0.14940E+07
 0.38972000E+02  0.12249E+07
 0.39021999E+02  0.12373E+07
 0.39071999E+02  0.13431E+07
 0.39122002E+02  0.12954E+07
 0.39172001E+02  0.12654E+07
 0.39222000E+02  0.13643E+07
 0.39271999E+02  0.15226E+07
 0.39321999E+02  0.17150E+07
 0.39372002E+02  0.19209E+07
 0.39422001E+02  0.20568E+07
 0.39472000E+02  0.20949E+07
 0.39521999E+02  0.19700E+07
 0.39571999E+02  0.17847E+07
 0.39622002E+02  0.17125E+07
 0.39672001E+02  0.15345E+07
 0.39722000E+02  0.11090E+07
 0.39771999E+02  0.64364E+06
 0.39821999E+02  0.33717E+06
 0.39872002E+02  0.15616E+06
 0.39922001E+02  0.13687E+06
 0.39972000E+02  0.40505E+06
 0.40021999E+02  0.77740E+06
 0.40071999E+02  0.10546E+07
 0.40122002E+02  0.11757E+07
 0.40172001E+02  0.10695E+07
 0.40222000E+02  0.77111E+06
 0.40271999E+02  0.37778E+06
 0.40321999E+02 -0.31135E+05
 0.40372002E+02 -0.17221E+06
 0.40422001E+02  0.66617E+05
 0.40472000E+02  0.27905E+06
 0.40521999E+02  0.18194E+06
 0.40571999E+02 -0.11103E+06
 0.40622002E+02 -0.20513E+06
 0.40672001E+02  0.12555E+06
 0.40722000E+02  0.58130E+06
 0.40771999E+02  0.91751E+06
 0.40821999E+02  0.11644E+07
 0.40872002E+02  0.12381E+07
 0.40922001E+02  0.10706E+07
 0.40972000E+02  0.85146E+06
 0.41021999E+02  0.73289E+06
 0.41071999E+02  0.81343E+06
 0.41122002E+02  0.10953E+07
 0.41172001E+02  0.13596E+07
 0.41222000E+02  0.15798E+07
 0.41271999E+02  0.18269E+07
 0.41321999E+02  0.19650E+07
 0.41372002E+02  0.18257E+07
 0.41422001E+02  0.14304E+07
 0.41472000E+02  0.10858E+07
 0.41521999E+02  0.10467E+07
 0.41571999E+02  0.12646E+07
 0.41622002E+02  0.15504E+07
 0.41672001E+02  0.16776E+07
 0.41722000E+02  0.16903E+07
 0.41771999E+02  0.18023E+07
 0.41821999E+02  0.17788E+07
 0.41872002E+02  0.12944E+07
 0.41922001E+02  0.68686E+06
 0.41972000E+02  0.55339E+06
 0.42021999E+02  0.88473E+06
 0.42071999E+02  0.12984E+07
 0.42122002E+02  0.14813E+07
 0.42172001E+02  0.13110E+07
 0.42222000E+02  0.11399E+07
 0.42271999E+02  0.11032E+07
 0.42321999E+02  0.75361E+06
 0.42372002E+02 -0.75023E+05
 0.42422001E+02 -0.93473E+06
 0.42472000E+02 -0.12281E+07
 0.42521999E+02 -0.90676E+06
 0.42571999E+02 -0.39200E+06
 0.42622002E+02  0.11857E+06
 0.42672001E+02  0.64089E+06
 0.42722000E+02  0.10196E+07
 0.42771999E+02  0.11423E+07
 0.42821999E+02  0.11629E+07
 0.42872002E+02  0.10883E+07
 0.42922001E+02  0.82105E+06
 0.42972000E+02  0.53978E+06
 0.43021999E+02  0.43337E+06
 0.43071999E+02  0.47313E+06
 0.43122002E+02  0.62548E+06
 0.43172001E+02  0.95366E+06
 0.43222000E+02  0.14628E+07
 0.43271999E+02  0.19646E+07
 0.43321999E+02  0.21242E+07
 0.43372002E+02  0.18269E+07
 0.43422001E+02  0.12848E+07
 0.43472000E+02  0.69972E+06
 0.43521999E+02  0.24206E+06
 0.43571999E+02  0.30197E+05
 0.43622002E+02  0.54151E+05
 0.43672001E+02  0.31232E+06
 0.43722000E+02  0.80832E+06
 0.43771999E+02  0.13689E+07
 0.43821999E+02  0.16797E+07
 0.43872002E+02  0.16136E+07
 0.43922001E+02  0.13058E+07
 0.43972000E+02  0.91961E+06
 0.44021999E+02  0.45490E+06
 0.44071999E+02 -0.70400E+04
 0.44122002E+02 -0.19607E+06
 0.44172001E+02 -0.62285E+05
 0.44222000E+02  0.16658E+06
 0.44271999E+02  0.36293E+06
 0.44321999E+02  0.66162E+06
 0.44372002E+02  0.97358E+06
 0.44422001E+02  0.99334E+06
 0.44472000E+02  0.72967E+06
 0.44521999E+02  0.40423E+06
 0.44571999E+02  0.31123E+06
 0.44622002E+02  0.50375E+06
 0.44672001E+02  0.67873E+06
 0.44722000E+02  0.77794E+06
 0.44771999E+02  0.94781E+06
 0.44821999E+02  0.10571E+07
 0.44872002E+02  0.89380E+06
 0.44922001E+02  0.49183E+06
 0.44972000E+02  0.43405E+05
 0.45021999E+02 -0.30658E+06
 0.45071999E+02 -0.48786E+06
 0.45122002E+02 -0.46226E+06
 0.45172001E+02 -0.26910E+06
 0.45222000E+02 -0.13016E+05
 0.45271999E+02  0.20302E+06
 0.45321999E+02  0.38886E+06
 0.45372002E+02  0.61773E+06
 0.45422001E+02  0.83230E+06
 0.45472000E+02  0.88795E+06
 0.45521999E+02  0.79982E+06
 0.45571999E+02  0.73792E+06
 0.45622002E+02  0.81776E+06
 0.45672001E+02  0.10627E+07
 0.45722000E+02  0.12869E+07
 0.45771999E+02  0.12833E+07
 0.45821999E+02  0.10343E+07
 0.45872002E+02  0.57805E+06
 0.45922001E+02  0.16811E+06
 0.45972000E+02  0.67290E+04
 0.46021999E+02  0.33010E+04
 0.46071999E+02  0.11306E+06
 0.46122002E+02  0.29038E+06
 0.46172001E+02  0.52535E+06
 0.46222000E+02  0.88647E+06
 0.46271999E+02  0.12244E+07
 0.46321999E+02  0.12972E+07
 0.46372002E+02  0.10126E+07
 0.46422001E+02  0.41172E+06
 0.46472000E+02 -0.24550E+06
 0.46521999E+02 -0.55852E+06
 0.46571999E+02 -0.43144E+06
 0.46622002E+02 -0.90009E+05
 0.46672001E+02  0.30751E+06
 0.46722000E+02  0.63680E+06
 0.46771999E+02  0.77456E+06
 0.46821999E+02  0.78147E+06
 0.46872002E+02  0.74249E+06
 0.46922001E+02  0.58054E+06
 0.46972000E+02  0.23148E+06
 0.47021999E+02 -0.20251E+06
 0.47071999E+02 -0.50984E+06
 0.47122002E+02 -0.51724E+06
 0.47172001E+02 -0.35846E+06
 0.47222000E+02 -0.34938E+06
 0.47271999E+02 -0.47462E+06
 0.47321999E+02 -0.48328E+06
 0.47372002E+02 -0.33880E+06
 0.47422001E+02 -0.19426E+06
 0.47472000E+02 -0.18241E+06
 0.47521999E+02 -0.31783E+06
 0.47571999E+02 -0.45682E+06
 0.47622002E+02 -0.50537E+06
 0.47672001E+02 -0.52194E+06
 0.47722000E+02 -0.54354E+06
 0.47771999E+02 -0.50670E+06
 0.47821999E+02 -0.30838E+06
 0.47872002E+02  0.44650E+04
 0.47922001E+02  0.27236E+06
 0.47972000E+02  0.38662E+06
 0.48021999E+02  0.35993E+06
 0.48071999E+02  0.34037E+06
 0.48122002E+02  0.33752E+06
 0.48172001E+02  0.26026E+06
 0.48222000E+02  0.13542E+06
 0.48271999E+02 -0.27493E+05
 0.48321999E+02 -0.17954E+06
 0.48372002E+02 -0.20364E+06
 0.48422001E+02 -0.83504E+05
 0.48472000E+02  0.61624E+05
 0.48521999E+02  0.10880E+06
 0.48571999E+02  0.11985E+06
 0.48622002E+02  0.15494E+06
 0.48672001E+02  0.15130E+06
 0.48722000E+02  0.14110E+06
 0.48771999E+02  0.19691E+06
 0.48821999E+02  0.32225E+06
 0.48872002E+02  0.48432E+06
 0.48922001E+02  0.63321E+06
 0.48972000E+02  0.78050E+06
 0.49021999E+02  0.93254E+06
 0.49071999E+02  0.98570E+06
 0.49122002E+02  0.84948E+06
 0.49172001E+02  0.49180E+06
 0.49222000E+02 -0.22012E+05
 0.49271999E+02 -0.46360E+06
 0.49321999E+02 -0.63648E+06
 0.49372002E+02 -0.54697E+06
 0.49422001E+02 -0.35551E+06
 0.49472000E+02 -0.14336E+06
 0.49521999E+02  0.15947E+06
 0.49571999E+02  0.51566E+06
 0.49622002E+02  0.80433E+06
 0.49672001E+02  0.93172E+06
 0.49722000E+02  0.79451E+06
 0.49771999E+02  0.49380E+06
 0.49821999E+02  0.27896E+06
 0.49872002E+02  0.25427E+06
 0.49922001E+02  0.37114E+06
 0.49972000E+02  0.49094E+06
 0.50021999E+02  0.55191E+06
 0.50071999E+02  0.55739E+06
 0.50122002E+02  0.42544E+06
 0.50172001E+02  0.13275E+06
 0.50222000E+02 -0.18515E+06
 0.50271999E+02 -0.31513E+06
 0.50321999E+02 -0.19444E+06
 0.50372002E+02  0.33002E+05
 0.50422001E+02  0.20219E+06
 0.50472000E+02  0.15536E+06
 0.50521999E+02 -0.10186E+06
 0.50571999E+02 -0.39294E+06
 0.50622002E+02 -0.65251E+06
 0.50672001E+02 -0.84865E+06
 0.50722000E+02 -0.84817E+06
 0.50771999E+02 -0.60420E+06
 0.50821999E+02 -0.26958E+06
 0.50872002E+02 -0.30282E+05
 0.50922001E+02  0.49850E+05
 0.50972000E+02  0.39863E+05
 0.51021999E+02  0.81870E+04
 0.51071999E+02 -0.90751E+05
 0.51122002E+02 -0.27043E+06
 0.51172001E+02 -0.45043E+06
 0.51222000E+02 -0.53869E+06
 0.51271999E+02 -0.45172E+06
 0.51321999E+02 -0.23718E+06
 0.51372002E+02 -0.89711E+05
 0.51422001E+02 -0.92123E+05
 0.51472000E+02 -0.92770E+05
 0.51521999E+02  0.36699E+05
 0.51571999E+02  0.19186E+06
 0.51622002E+02  0.22837E+06
 0.51672001E+02  0.14766E+06
 0.51722000E+02  0.17917E+05
 0.51771999E+02 -0.92041E+05
 0.51821999E+02 -0.11582E+06
 0.51872002E+02 -0.66884E+05
 0.51922001E+02  0.46562E+05
 0.51972000E+02  0.28445E+06
 0.52021999E+02  0.61971E+06
 0.52071999E+02  0.97907E+06
 0.52122002E+02  0.11661E+07
 0.52172001E+02  0.95185E+06
 0.52222000E+02  0.45323E+06
 0.52271999E+02 -0.77034E+05
 0.52321999E+02 -0.48260E+06
 0.52372002E+02 -0.67164E+06
 0.52422001E+02 -0.66067E+06
 0.52472000E+02 -0.50530E+06
 0.52521999E+02 -0.26159E+06
 0.52571999E+02 -0.22158E+05
 0.52622002E+02  0.69996E+05
 0.52672001E+02 -0.60146E+05
 0.52722000E+02 -0.29806E+06
 0.52771999E+02 -0.47813E+06
 0.52821999E+02 -0.53936E+06
 0.52872002E+02 -0.49802E+06
 0.52922001E+02 -0.38759E+06
 0.52972000E+02 -0.26629E+06
 0.53021999E+02 -0.19862E+06
 0.53071999E+02 -0.22335E+06
 0.53122002E+02 -0.39303E+06
 0.53172001E+02 -0.71642E+06
 0.53222000E+02 -0.10416E+07
 0.53271999E+02 -0.11441E+07
 0.53321999E+02 -0.95492E+06
 0.53372002E+02 -0.61134E+06
 0.53422001E+02 -0.25465E+06
 0.53472000E+02  0.51865E+05
 0.53521999E+02  0.25036E+06
 0.53571999E+02  0.30640E+06
 0.53622002E+02  0.20474E+06
 0.53672001E+02 -0.23135E+05
 0.53722000E+02 -0.29248E+06
 0.53771999E+02 -0.53687E+06
 0.53821999E+02 -0.65578E+06
 0.53872002E+02 -0.58671E+06
 0.53922001E+02 -0.43362E+06
 0.53972000E+02 -0.33656E+06
 0.54021999E+02 -0.35821E+06
 0.54071999E+02 -0.51399E+06
 0.54122002E+02 -0.76302E+06
 0.54172001E+02 -0.98105E+06
 0.54222000E+02 -0.10671E+07
 0.54271999E+02 -0.10404E+07
 0.54321999E+02 -0.96122E+06
 0.54372002E+02 -0.91654E+06
 0.54422001E+02 -0.10120E+07
 0.54472000E+02 -0.12322E+07
 0.54521999E+02 -0.14710E+07
 0.54571999E+02 -0.16130E+07
 0.54622002E+02 -0.15888E+07
 0.54672001E+02 -0.14417E+07
 0.54722000E+02 -0.12343E+07
 0.54771999E+02 -0.10091E+07
 0.54821999E+02 -0.77347E+06
 0.54872002E+02 -0.52611E+06
 0.54922001E+02 -0.32913E+06
 0.54972000E+02 -0.20070E+06
 0.55021999E+02 -0.11805E+06
 0.55071999E+02 -0.80924E+05
 0.55122002E+02 -0.74218E+05
 0.55172001E+02 -0.10053E+06
 0.55222000E+02 -0.13281E+06
 0.55271999E+02 -0.94429E+05
 0.55321999E+02 -0.46030E+04
 0.55372002E+02  0.94640E+05
 0.55422001E+02  0.22334E+06
 0.55472000E+02  0.35425E+06
 0.55521999E+02  0.47045E+06
 0.55571999E+02  0.54281E+06
 0.55622002E+02  0.50069E+06
 0.55672001E+02  0.37315E+06
 0.55722000E+02  0.19509E+06
 0.55771999E+02 -0.61271E+05
 0.55821999E+02 -0.35936E+06
 0.55872002E+02 -0.61382E+06
 0.55922001E+02 -0.80193E+06
 0.55972000E+02 -0.92249E+06
 0.56021999E+02 -0.90206E+06
 0.56071999E+02 -0.71926E+06
 0.56122002E+02 -0.48284E+06
 0.56172001E+02 -0.29016E+06
 0.56222000E+02 -0.16954E+06
 0.56271999E+02 -0.12448E+06
 0.56321999E+02 -0.13850E+06
 0.56372002E+02 -0.17253E+06
 0.56422001E+02 -0.21469E+06
 0.56472000E+02 -0.28031E+06
 0.56521999E+02 -0.32139E+06
 0.56571999E+02 -0.28085E+06
 0.56622002E+02 -0.20663E+06
 0.56672001E+02 -0.16498E+06
 0.56722000E+02 -0.17635E+06
 0.56771999E+02 -0.23038E+06
 0.56821999E+02 -0.29271E+06
 0.56872002E+02 -0.33910E+06
 0.56922001E+02 -0.34390E+06
 0.56972000E+02 -0.30972E+06
 0.57021999E+02 -0.24850E+06
 0.57071999E+02 -0.15720E+06
 0.57122002E+02 -0.96661E+05
 0.57172001E+02 -0.11517E+06
 0.57222000E+02 -0.19387E+06
 0.57271999E+02 -0.33894E+06
 0.57321999E+02 -0.52626E+06
 0.57372002E+02 -0.68546E+06
 0.57422001E+02 -0.79546E+06
 0.57472000E+02 -0.85469E+06
 0.57521999E+02 -0.88611E+06
 0.57571999E+02 -0.89549E+06
 0.57622002E+02 -0.84584E+06
 0.57672001E+02 -0.75829E+06
 0.57722000E+02 -0.62762E+06
 0.57771999E+02 -0.43814E+06
 0.57821999E+02 -0.25626E+06
 0.57872002E+02 -0.16201E+06
 0.57922001E+02 -0.21482E+06
 0.57972000E+02 -0.38591E+06
 0.58021999E+02 -0.60368E+06
 0.58071999E+02 -0.81175E+06
 0.58122002E+02 -0.92410E+06
 0.58172001E+02 -0.91298E+06
 0.58222000E+02 -0.81315E+06
 0.58271999E+02 -0.64526E+06
 0.58321999E+02 -0.44900E+06
 0.58372002E+02 -0.29756E+06
 0.58422001E+02 -0.25181E+06
 0.58472000E+02 -0.29645E+06
 0.58521999E+02 -0.34697E+06
 0.58571999E+02 -0.37969E+06
 0.58622002E+02 -0.44923E+06
 0.58672001E+02 -0.55622E+06
 0.58722000E+02 -0.64912E+06
 0.58771999E+02 -0.69842E+06
 0.58821999E+02 -0.68883E+06
 0.58872002E+02 -0.64530E+06
 0.58922001E+02 -0.62236E+06
 0.58972000E+02 -0.61981E+06
 0.59021999E+02 -0.61971E+06
 0.59071999E+02 -0.64350E+06
 0.59122002E+02 -0.71874E+06
 0.59172001E+02 -0.82683E+06
 0.59222000E+02 -0.91835E+06
 0.59271999E+02 -0.96482E+06
 0.59321999E+02 -0.95225E+06
 0.59372002E+02 -0.87158E+06
 0.59422001E+02 -0.70531E+06
 0.59472000E+02 -0.50131E+06
 0.59521999E+02 -0.36188E+06
 0.59571999E+02 -0.30278E+06
 0.59622002E+02 -0.31573E+06
 0.59672001E+02 -0.41191E+06
 0.59722000E+02 -0.54786E+06
 0.59771999E+02 -0.64950E+06
 0.59821999E+02 -0.69460E+06
 0.59872002E+02 -0.71569E+06
 0.59922001E+02 -0.72695E+06
 0.59972000E+02 -0.72821E+06
 0.60021999E+02 -0.72054E+06
 0.60071999E+02 -0.71995E+06
 0.60122002E+02 -0.77627E+06
 0.60172001E+02 -0.89934E+06
 0.60222000E+02 -0.10363E+07
 0.60271999E+02 -0.11156E+07
 0.60321999E+02 -0.10856E+07
 0.60372002E+02 -0.96062E+06
 0.60422001E+02 -0.78047E+06
 0.60472000E+02 -0.57660E+06
 0.60521999E+02 -0.40239E+06
 0.60571999E+02 -0.30267E+06
 0.60622002E+02 -0.28019E+06
 0.60672001E+02 -0.28036E+06
 0.60722000E+02 -0.24652E+06
 0.60771999E+02 -0.21928E+06
 0.60821999E+02 -0.24450E+06
 0.60872002E+02 -0.31014E+06
 0.60922001E+02 -0.38657E+06
 0.60972000E+02 -0.41016E+06
 0.61021999E+02 -0.34891E+06
 0.61072002E+02 -0.23502E+06
 0.61121998E+02 -0.12285E+06
 0.61172001E+02 -0.71180E+05
 0.61222004E+02 -0.11348E+06
 0.61271999E+02 -0.23789E+06
 0.61322002E+02 -0.39354E+06
 0.61371998E+02 -0.52380E+06
 0.61422001E+02 -0.59158E+06
 0.61472004E+02 -0.59179E+06
 0.61521999E+02 -0.53110E+06
 0.61572002E+02 -0.42199E+06
 0.61621998E+02 -0.30268E+06
 0.61672001E+02 -0.21416E+06
 0.61722004E+02 -0.21773E+06
 0.61771999E+02 -0.33951E+06
 0.61822002E+02 -0.49825E+06
 0.61871998E+02 -0.63570E+06
 0.61922001E+02 -0.77146E+06
 0.61972004E+02 -0.88561E+06
 0.62021999E+02 -0.91508E+06
 0.62072002E+02 -0.86917E+06
 0.62121998E+02 -0.78516E+06
 0.62172001E+02 -0.67990E+06
 0.62222004E+02 -0.64275E+06
 0.62271999E+02 -0.71861E+06
 0.62322002E+02 -0.85190E+06
 0.62371998E+02 -0.99326E+06
 0.62422001E+02 -0.10806E+07
 0.62472004E+02 -0.11137E+07
 0.62521999E+02 -0.11349E+07
 0.62572002E+02 -0.11230E+07
 0.62621998E+02 -0.10665E+07
 0.62672001E+02 -0.96265E+06
 0.62722004E+02 -0.80437E+06
 0.62771999E+02 -0.61159E+06
 0.62822002E+02 -0.40351E+06
 0.62871998E+02 -0.22480E+06
 0.62922001E+02 -0.13962E+06
 0.62972004E+02 -0.16646E+06
 0.63021999E+02 -0.27027E+06
 0.63072002E+02 -0.37753E+06
 0.63121998E+02 -0.42562E+06
 0.63172001E+02 -0.42740E+06
 0.63222004E+02 -0.42327E+06
 0.63271999E+02 -0.41689E+06
 0.63322002E+02 -0.40854E+06
 0.63371998E+02 -0.38772E+06
 0.63422001E+02 -0.33719E+06
 0.63472004E+02 -0.29510E+06
 0.63521999E+02 -0.29659E+06
 0.63572002E+02 -0.31346E+06
 0.63621998E+02 -0.31646E+06
 0.63672001E+02 -0.32110E+06
 0.63722004E+02 -0.33966E+06
 0.63771999E+02 -0.35039E+06
 0.63822002E+02 -0.37752E+06
 0.63871998E+02 -0.46035E+06
 0.63922001E+02 -0.55754E+06
 0.63972004E+02 -0.62603E+06
 0.64022003E+02 -0.66442E+06
 0.64072006E+02 -0.67867E+06
 0.64122002E+02 -0.67462E+06
 0.64172005E+02 -0.65199E+06
 0.64222008E+02 -0.64882E+06
 0.64272003E+02 -0.69979E+06
 0.64322006E+02 -0.77501E+06
 0.64372002E+02 -0.85696E+06
 0.64422005E+02 -0.94425E+06
 0.64472008E+02 -0.10196E+07
 0.64522003E+02 -0.10868E+07
 0.64572006E+02 -0.11530E+07
 0.64622002E+02 -0.12085E+07
 0.64672005E+02 -0.12400E+07
 0.64722008E+02 -0.12301E+07
 0.64772003E+02 -0.11856E+07
 0.64822006E+02 -0.11567E+07
 0.64872002E+02 -0.11841E+07
 0.64922005E+02 -0.12777E+07
 0.64972008E+02 -0.14134E+07
 0.65022003E+02 -0.15304E+07
 0.65072006E+02 -0.15948E+07
 0.65122002E+02 -0.15953E+07
 0.65172005E+02 -0.15057E+07
 0.65222008E+02 -0.13215E+07
 0.65272003E+02 -0.10997E+07
 0.65322006E+02 -0.93779E+06
 0.65372002E+02 -0.87218E+06
 0.65422005E+02 -0.87600E+06
 0.65472008E+02 -0.91324E+06
 0.65522003E+02 -0.92731E+06
 0.65572006E+02 -0.90805E+06
 0.65622002E+02 -0.89448E+06
 0.65672005E+02 -0.89392E+06
 0.65722008E+02 -0.89076E+06
 0.65772003E+02 -0.86774E+06
 0.65822006E+02 -0.82163E+06
 0.65872002E+02 -0.75143E+06
 0.65922005E+02 -0.65976E+06
 0.65972008E+02 -0.58580E+06
 0.66022003E+02 -0.56206E+06
 0.66072006E+02 -0.60309E+06
 0.66122002E+02 -0.70763E+06
 0.66172005E+02 -0.81413E+06
 0.66222008E+02 -0.84117E+06
 0.66272003E+02 -0.76680E+06
 0.66322006E+02 -0.62816E+06
 0.66372002E+02 -0.45985E+06
 0.66422005E+02 -0.29953E+06
 0.66472008E+02 -0.20143E+06
 0.66522003E+02 -0.18755E+06
 0.66572006E+02 -0.24173E+06
 0.66622002E+02 -0.31627E+06
 0.66672005E+02 -0.36224E+06
 0.66722008E+02 -0.36439E+06
 0.66772003E+02 -0.33748E+06
 0.66822006E+02 -0.31230E+06
 0.66872002E+02 -0.30239E+06
 0.66922005E+02 -0.29524E+06
 0.66972008E+02 -0.28213E+06
 0.67022003E+02 -0.29122E+06
 0.67072006E+02 -0.33764E+06
 0.67122002E+02 -0.39668E+06
 0.67172005E+02 -0.46429E+06
 0.67222008E+02 -0.54480E+06
 0.67272003E+02 -0.62715E+06
 0.67322006E+02 -0.68752E+06
 0.67372002E+02 -0.71230E+06
 0.67422005E+02 -0.70580E+06
 0.67472008E+02 -0.66258E+06
 0.67522003E+02 -0.60912E+06
 0.67572006E+02 -0.58204E+06
 0.67622002E+02 -0.58576E+06
 0.67672005E+02 -0.63458E+06
 0.67722008E+02 -0.73423E+06
 0.67772003E+02 -0.86772E+06
 0.67822006E+02 -0.99843E+06
 0.67872002E+02 -0.10751E+07
 0.67922005E+02 -0.10794E+07
 0.67972008E+02 -0.10280E+07
 0.68022003E+02 -0.95819E+06
 0.68072006E+02 -0.91806E+06
 0.68122002E+02 -0.92907E+06
 0.68172005E+02 -0.98691E+06
 0.68222008E+02 -0.11008E+07
 0.68272003E+02 -0.12625E+07
 0.68322006E+02 -0.14068E+07
 0.68372002E+02 -0.14700E+07
 0.68422005E+02 -0.14474E+07
 0.68472008E+02 -0.13788E+07
 0.68522003E+02 -0.13102E+07
 0.68572006E+02 -0.12621E+07
 0.68622002E+02 -0.12145E+07
 0.68672005E+02 -0.11486E+07
 0.68722008E+02 -0.10730E+07
 0.68772003E+02 -0.10073E+07
 0.68822006E+02 -0.98446E+06
 0.68872002E+02 -0.98389E+06
 0.68922005E+02 -0.95396E+06
 0.68972008E+02 -0.89353E+06
 0.69022003E+02 -0.81546E+06
 0.69072006E+02 -0.73644E+06
 0.69122002E+02 -0.66474E+06
 0.69172005E+02 -0.61046E+06
 0.69222008E+02 -0.60741E+06
 0.69272003E+02 -0.64619E+06
 0.69322006E+02 -0.66907E+06
 0.69372002E+02 -0.63703E+06
 0.69422005E+02 -0.56328E+06
 0.69472008E+02 -0.48056E+06
 0.69522003E+02 -0.40319E+06
 0.69572006E+02 -0.35399E+06
 0.69622002E+02 -0.34954E+06
 0.69672005E+02 -0.36695E+06
 0.69722008E+02 -0.38459E+06
 0.69772003E+02 -0.40703E+06
 0.69822006E+02 -0.45025E+06
 0.69872002E+02 -0.50412E+06
 0.69922005E+02 -0.50967E+06
 0.69972008E+02 -0.43436E+06
 0.70022003E+02 -0.33418E+06
 0.70072006E+02 -0.28620E+06
 0.70122002E+02 -0.31016E+06
 0.70172005E+02 -0.38327E+06
 0.70222008E+02 -0.48346E+06
 0.70272003E+02 -0.59787E+06
 0.70322006E+02 -0.71323E+06
 0.70372002E+02 -0.79837E+06
 0.70422005E+02 -0.81272E+06
 0.70472008E+02 -0.74710E+06
 0.70522003E+02 -0.63147E+06
 0.70572006E+02 -0.51472E+06
 0.70622002E+02 -0.44749E+06
 0.70672005E+02 -0.47132E+06
 0.70722008E+02 -0.59668E+06
 0.70772003E+02 -0.76248E+06
 0.70822006E+02 -0.87274E+06
 0.70872002E+02 -0.88811E+06
 0.70922005E+02 -0.82939E+06
 0.70972008E+02 -0.73842E+06
 0.71022003E+02 -0.66491E+06
 0.71072006E+02 -0.63652E+06
 0.71122002E+02 -0.64231E+06
 0.71172005E+02 -0.65718E+06
 0.71222008E+02 -0.66513E+06
 0.71272003E+02 -0.66628E+06
 0.71322006E+02 -0.66348E+06
 0.71372002E+02 -0.65976E+06
 0.71422005E+02 -0.65221E+06
 0.71472008E+02 -0.61162E+06
 0.71522003E+02 -0.52801E+06
 0.71572006E+02 -0.43989E+06
 0.71622002E+02 -0.37638E+06
 0.71672005E+02 -0.34210E+06
 0.71722008E+02 -0.34409E+06
 0.71772003E+02 -0.37407E+06
 0.71822006E+02 -0.41786E+06
 0.71872002E+02 -0.48614E+06
 0.71922005E+02 -0.59570E+06
 0.71972008E+02 -0.75223E+06
 0.72022003E+02 -0.93105E+06
 0.72072006E+02 -0.10721E+07
 0.72122002E+02 -0.11151E+07
 0.72172005E+02 -0.10406E+07
 0.72222008E+02 -0.89475E+06
 0.72272003E+02 -0.74277E+06
 0.72322006E+02 -0.62328E+06
 0.72372002E+02 -0.55886E+06
 0.72422005E+02 -0.55137E+06
 0.72472008E+02 -0.58364E+06
 0.72522003E+02 -0.63778E+06
 0.72572006E+02 -0.68633E+06
 0.72622002E+02 -0.69876E+06
 0.72672005E+02 -0.67899E+06
 0.72722008E+02 -0.64577E+06
 0.72772003E+02 -0.61251E+06
 0.72822006E+02 -0.60670E+06
 0.72872002E+02 -0.64307E+06
 0.72922005E+02 -0.69974E+06
 0.72972008E+02 -0.75014E+06
 0.73022003E+02 -0.78405E+06
 0.73072006E+02 -0.79536E+06
 0.73122002E+02 -0.79097E+06
 0.73172005E+02 -0.78120E+06
 0.73222008E+02 -0.77127E+06
 0.73272003E+02 -0.78853E+06
 0.73322006E+02 -0.84010E+06
 0.73372002E+02 -0.88393E+06
 0.73422005E+02 -0.88485E+06
 0.73472008E+02 -0.83953E+06
 0.73522003E+02 -0.76420E+06
 0.73572006E+02 -0.68570E+06
 0.73622002E+02 -0.63392E+06
 0.73672005E+02 -0.63231E+06
 0.73722008E+02 -0.68414E+06
 0.73772003E+02 -0.76587E+06
 0.73822006E+02 -0.84190E+06
 0.73872002E+02 -0.89484E+06
 0.73922005E+02 -0.92581E+06
 0.73972008E+02 -0.93173E+06
 0.74022003E+02 -0.90817E+06
 0.74072006E+02 -0.85998E+06
 0.74122002E+02 -0.80395E+06
 0.74172005E+02 -0.75786E+06
 0.74222008E+02 -0.72242E+06
 0.74272003E+02 -0.69882E+06
 0.74322006E+02 -0.70555E+06
 0.74372002E+02 -0.75538E+06
 0.74422005E+02 -0.84047E+06
 0.74472008E+02 -0.93381E+06
 0.74522003E+02 -0.10036E+07
 0.74572006E+02 -0.10240E+07
 0.74622002E+02 -0.97388E+06
 0.74672005E+02 -0.85834E+06
 0.74722008E+02 -0.71823E+06
 0.74772003E+02 -0.59951E+06
 0.74822006E+02 -0.53036E+06
 0.74872002E+02 -0.52787E+06
 0.74922005E+02 -0.59631E+06
 0.74972008E+02 -0.71781E+06
 0.75022003E+02 -0.85305E+06
 0.75072006E+02 -0.96006E+06
 0.75122002E+02 -0.10207E+07
 0.75172005E+02 -0.10279E+07
 0.75222008E+02 -0.97958E+06
 0.75272003E+02 -0.90437E+06
 0.75322006E+02 -0.84113E+06
 0.75372002E+02 -0.81168E+06
 0.75422005E+02 -0.82941E+06
 0.75472008E+02 -0.89152E+06
 0.75522003E+02 -0.97269E+06
 0.75572006E+02 -0.10364E+07
 0.75622002E+02 -0.10538E+07
 0.75672005E+02 -0.10152E+07
 0.75722008E+02 -0.92587E+06
 0.75772003E+02 -0.81195E+06
 0.75822006E+02 -0.71381E+06
 0.75872002E+02 -0.65549E+06
 0.75922005E+02 -0.64087E+06
 0.75972008E+02 -0.66374E+06
 0.76022003E+02 -0.69823E+06
 0.76072006E+02 -0.72776E+06
 0.76122002E+02 -0.75260E+06
 0.76172005E+02 -0.75715E+06
 0.76222008E+02 -0.72808E+06
 0.76272003E+02 -0.66774E+06
 0.76322006E+02 -0.60180E+06
 0.76372002E+02 -0.57190E+06
 0.76422005E+02 -0.58336E+06
 0.76472008E+02 -0.60211E+06
 0.76522003E+02 -0.59839E+06
 0.76572006E+02 -0.57233E+06
 0.76622002E+02 -0.54431E+06
 0.76672005E+02 -0.52300E+06
 0.76722008E+02 -0.51055E+06
 0.76772003E+02 -0.52163E+06
 0.76822006E+02 -0.55642E+06
 0.76872002E+02 -0.59152E+06
 0.76922005E+02 -0.61503E+06
 0.76972008E+02 -0.64406E+06
 0.77022003E+02 -0.69722E+06
 0.77072006E+02 -0.75863E+06
 0.77122002E+02 -0.79860E+06
 0.77172005E+02 -0.79767E+06
 0.77222008E+02 -0.74897E+06
 0.77272003E+02 -0.68413E+06
 0.77322006E+02 -0.64794E+06
 0.77372002E+02 -0.65202E+06
 0.77422005E+02 -0.68076E+06
 0.77472008E+02 -0.70839E+06
 0.77522003E+02 -0.72388E+06
 0.77572006E+02 -0.72797E+06
 0.77622002E+02 -0.71164E+06
 0.77672005E+02 -0.67351E+06
 0.77722008E+02 -0.63124E+06
 0.77772003E+02 -0.60713E+06
 0.77822006E+02 -0.60888E+06
 0.77872002E+02 -0.61798E+06
 0.77922005E+02 -0.61563E+06
 0.77972008E+02 -0.60504E+06
 0.78022003E+02 -0.59478E+06
 0.78072006E+02 -0.59860E+06
 0.78122002E+02 -0.62525E+06
 0.78172005E+02 -0.64873E+06
 0.78222008E+02 -0.64097E+06
 0.78272003E+02 -0.61397E+06
 0.78322006E+02 -0.59586E+06
 0.78372002E+02 -0.60194E+06
 0.78422005E+02 -0.62743E+06
 0.78472008E+02 -0.64378E+06
 0.78522003E+02 -0.62514E+06
 0.78572006E+02 -0.56928E+06
 0.78622002E+02 -0.49285E+06
 0.78672005E+02 -0.42878E+06
 0.78722008E+02 -0.40415E+06
 0.78772003E+02 -0.42228E+06
 0.78822006E+02 -0.46484E+06
 0.78872002E+02 -0.49629E+06
 0.78922005E+02 -0.48760E+06
 0.78972008E+02 -0.45044E+06
 0.79022003E+02 -0.42407E+06
 0.79072006E+02 -0.42556E+06
 0.79122002E+02 -0.44771E+06
 0.79172005E+02 -0.47922E+06
 0.79222008E+02 -0.51320E+06
 0.79272003E+02 -0.55771E+06
 0.79322006E+02 -0.61365E+06
 0.79372002E+02 -0.65964E+06
 0.79422005E+02 -0.67913E+06
 0.79472008E+02 -0.67801E+06
 0.79522003E+02 -0.68234E+06
 0.79572006E+02 -0.70973E+06
 0.79622002E+02 -0.74604E+06
 0.79672005E+02 -0.78164E+06
 0.79722008E+02 -0.82201E+06
 0.79772003E+02 -0.85652E+06
 0.79822006E+02 -0.86768E+06
 0.79872002E+02 -0.84826E+06
 0.79922005E+02 -0.80442E+06
 0.79972008E+02 -0.75756E+06
 0.80022003E+02 -0.73468E+06
 0.80072006E+02 -0.74940E+06
 0.80122002E+02 -0.79005E+06
 0.80172005E+02 -0.83712E+06
 0.80222008E+02 -0.87254E+06
 0.80272003E+02 -0.88034E+06
 0.80322006E+02 -0.86704E+06
 0.80372002E+02 -0.84815E+06
 0.80422005E+02 -0.83001E+06
 0.80472008E+02 -0.81452E+06
 0.80522003E+02 -0.79938E+06
 0.80572006E+02 -0.79478E+06
 0.80622002E+02 -0.80526E+06
 0.80672005E+02 -0.80665E+06
 0.80722008E+02 -0.78173E+06
 0.80772003E+02 -0.73370E+06
 0.80822006E+02 -0.67420E+06
 0.80872002E+02 -0.61540E+06
 0.80922005E+02 -0.56575E+06
 0.80972008E+02 -0.53291E+06
 0.81022003E+02 -0.51948E+06
 0.81072006E+02 -0.53465E+06
 0.81122002E+02 -0.59068E+06
 0.81172005E+02 -0.67304E+06
 0.81222008E+02 -0.74459E+06
 0.81272003E+02 -0.76841E+06
 0.81322006E+02 -0.72170E+06
 0.81372002E+02 -0.61254E+06
 0.81422005E+02 -0.49158E+06
 0.81472008E+02 -0.41762E+06
 0.81522003E+02 -0.41066E+06
 0.81572006E+02 -0.46014E+06
 0.81622002E+02 -0.54459E+06
 0.81672005E+02 -0.63359E+06
 0.81722008E+02 -0.68613E+06
 0.81772003E+02 -0.67407E+06
 0.81822006E+02 -0.61432E+06
 0.81872002E+02 -0.53703E+06
 0.81922005E+02 -0.46164E+06
 0.81972008E+02 -0.41182E+06
 0.82022003E+02 -0.40452E+06
 0.82072006E+02 -0.44059E+06
 0.82122002E+02 -0.50809E+06
 0.82172005E+02 -0.59191E+06
 0.82222008E+02 -0.67533E+06
 0.82272003E+02 -0.73576E+06
 0.82322006E+02 -0.76002E+06
 0.82372002E+02 -0.75240E+06
 0.82422005E+02 -0.72697E+06
 0.82472008E+02 -0.70005E+06
 0.82522003E+02 -0.68656E+06
 0.82572006E+02 -0.69242E+06
 0.82622002E+02 -0.70647E+06
 0.82672005E+02 -0.71366E+06
 0.82722008E+02 -0.71200E+06
 0.82772003E+02 -0.70936E+06
 0.82822006E+02 -0.71293E+06
 0.82872002E+02 -0.72307E+06
 0.82922005E+02 -0.73462E+06
 0.82972008E+02 -0.73753E+06
 0.83022003E+02 -0.72144E+06
 0.83072006E+02 -0.68885E+06
 0.83122002E+02 -0.64760E+06
 0.83172005E+02 -0.60598E+06
 0.83222008E+02 -0.57657E+06
 0.83272003E+02 -0.56542E+06
 0.83322006E+02 -0.57510E+06
 0.83372002E+02 -0.60314E+06
 0.83422005E+02 -0.63274E+06
 0.83472008E+02 -0.64484E+06
 0.83522003E+02 -0.63772E+06
 0.83572006E+02 -0.62782E+06
 0.83622002E+02 -0.62959E+06
 0.83672005E+02 -0.65082E+06
 0.83722008E+02 -0.70147E+06
 0.83772003E+02 -0.77992E+06
 0.83822006E+02 -0.85788E+06
 0.83872002E+02 -0.90370E+06
 0.83922005E+02 -0.90335E+06
 0.83972008E+02 -0.85534E+06
 0.84022003E+02 -0.77675E+06
 0.84072006E+02 -0.70296E+06
 0.84122002E+02 -0.67259E+06
 0.84172005E+02 -0.70687E+06
 0.84222008E+02 -0.78526E+06
 0.84272003E+02 -0.85505E+06
 0.84322006E+02 -0.87164E+06
 0.84372002E+02 -0.82449E+06
 0.84422005E+02 -0.73515E+06
 0.84472008E+02 -0.63182E+06
 0.84522003E+02 -0.53020E+06
 0.84572006E+02 -0.44452E+06
 0.84622002E+02 -0.39439E+06
 0.84672005E+02 -0.39543E+06
 0.84722008E+02 -0.44427E+06
 0.84772003E+02 -0.51172E+06
 0.84822006E+02 -0.56491E+06
 0.84872002E+02 -0.58504E+06
 0.84922005E+02 -0.57503E+06
 0.84972008E+02 -0.55926E+06
 0.85022003E+02 -0.56625E+06
 0.85072006E+02 -0.61684E+06
 0.85122002E+02 -0.70077E+06
 0.85172005E+02 -0.77078E+06
 0.85222008E+02 -0.78332E+06
 0.85272003E+02 -0.72869E+06
 0.85322006E+02 -0.63480E+06
 0.85372002E+02 -0.54385E+06
 0.85422005E+02 -0.48294E+06
 0.85472008E+02 -0.46465E+06
 0.85522003E+02 -0.48276E+06
 0.85572006E+02 -0.51467E+06
 0.85622002E+02 -0.54706E+06
 0.85672005E+02 -0.57867E+06
 0.85722008E+02 -0.60184E+06
 0.85772003E+02 -0.60164E+06
 0.85822006E+02 -0.58117E+06
 0.85872002E+02 -0.55621E+06
 0.85922005E+02 -0.52676E+06
 0.85972008E+02 -0.49114E+06
 0.86022003E+02 -0.46061E+06
 0.86072006E+02 -0.44649E+06
 0.86122002E+02 -0.45187E+06
 0.86172005E+02 -0.47060E+06
 0.86222008E+02 -0.49086E+06
 0.86272003E+02 -0.49900E+06
 0.86322006E+02 -0.49081E+06
 0.86372002E+02 -0.47948E+06
 0.86422005E+02 -0.46923E+06
 0.86472008E+02 -0.45025E+06
 0.86522003E+02 -0.43055E+06
 0.86572006E+02 -0.42253E+06
 0.86622002E+02 -0.42819E+06
 0.86672005E+02 -0.45206E+06
 0.86722008E+02 -0.49093E+06
 0.86772003E+02 -0.53458E+06
 0.86822006E+02 -0.56511E+06
 0.86872002E+02 -0.56084E+06
 0.86922005E+02 -0.52052E+06
 0.86972008E+02 -0.45801E+06
 0.87022003E+02 -0.39256E+06
 0.87072006E+02 -0.34459E+06
 0.87122002E+02 -0.32983E+06
 0.87172005E+02 -0.35724E+06
 0.87222008E+02 -0.41726E+06
 0.87272003E+02 -0.48146E+06
 0.87322006E+02 -0.51968E+06
 0.87372002E+02 -0.52105E+06
 0.87422005E+02 -0.50380E+06
 0.87472008E+02 -0.50091E+06
 0.87522003E+02 -0.53148E+06
 0.87572006E+02 -0.58693E+06
 0.87622002E+02 -0.64393E+06
 0.87672005E+02 -0.67490E+06
 0.87722008E+02 -0.65399E+06
 0.87772003E+02 -0.58112E+06
 0.87822006E+02 -0.49143E+06
 0.87872002E+02 -0.42632E+06
 0.87922005E+02 -0.41489E+06
 0.87972008E+02 -0.46736E+06
 0.88022003E+02 -0.55956E+06
 0.88072006E+02 -0.64842E+06
 0.88122002E+02 -0.70215E+06
 0.88172005E+02 -0.70682E+06
 0.88222008E+02 -0.66742E+06
 0.88272003E+02 -0.59924E+06
 0.88322006E+02 -0.51750E+06
 0.88372002E+02 -0.45154E+06
 0.88422005E+02 -0.43348E+06
 0.88472008E+02 -0.45907E+06
 0.88522003E+02 -0.50084E+06
 0.88572006E+02 -0.53746E+06
 0.88622002E+02 -0.55342E+06
 0.88672005E+02 -0.54883E+06
 0.88722008E+02 -0.54000E+06
 0.88772003E+02 -0.54350E+06
 0.88822006E+02 -0.57084E+06
 0.88872002E+02 -0.61808E+06
 0.88922005E+02 -0.66631E+06
 0.88972008E+02 -0.69588E+06
 0.89022003E+02 -0.69086E+06
 0.89072006E+02 -0.65036E+06
 0.89122002E+02 -0.59220E+06
 0.89172005E+02 -0.53369E+06
 0.89222008E+02 -0.48826E+06
 0.89272003E+02 -0.47533E+06
 0.89322006E+02 -0.50279E+06
 0.89372002E+02 -0.55030E+06
 0.89422005E+02 -0.58424E+06
 0.89472008E+02 -0.58228E+06
 0.89522003E+02 -0.54700E+06
 0.89572006E+02 -0.49430E+06
 0.89622002E+02 -0.44118E+06
 0.89672005E+02 -0.40759E+06
 0.89722008E+02 -0.41042E+06
 0.89772003E+02 -0.45180E+06
 0.89822006E+02 -0.51414E+06
 0.89872002E+02 -0.57341E+06
 0.89922005E+02 -0.61145E+06
 0.89972008E+02 -0.61545E+06
 0.90022003E+02 -0.58108E+06
 0.90072006E+02 -0.51630E+06
 0.90122002E+02 -0.43675E+06
 0.90172005E+02 -0.35550E+06
 0.90222008E+02 -0.28641E+06
 0.90272003E+02 -0.25043E+06
 0.90322006E+02 -0.26347E+06
 0.90372002E+02 -0.31880E+06
 0.90422005E+02 -0.37858E+06
 0.90472008E+02 -0.39335E+06
 0.90522003E+02 -0.34663E+06
 0.90572006E+02 -0.26933E+06
 0.90622002E+02 -0.20580E+06
 0.90672005E+02 -0.17860E+06
 0.90722008E+02 -0.18412E+06
 0.90772003E+02 -0.21140E+06
 0.90822006E+02 -0.24880E+06
 0.90872002E+02 -0.27751E+06
 0.90922005E+02 -0.28364E+06
 0.90972008E+02 -0.27380E+06
 0.91022003E+02 -0.26615E+06
 0.91072006E+02 -0.27321E+06
 0.91122002E+02 -0.30296E+06
 0.91172005E+02 -0.35451E+06
 0.91222008E+02 -0.41160E+06
 0.91272003E+02 -0.46139E+06
 0.91322006E+02 -0.50279E+06
 0.91372002E+02 -0.53632E+06
 0.91422005E+02 -0.55780E+06
 0.91472008E+02 -0.56294E+06
 0.91522003E+02 -0.55615E+06
 0.91572006E+02 -0.54383E+06
 0.91622002E+02 -0.52882E+06
 0.91672005E+02 -0.51898E+06
 0.91722008E+02 -0.52924E+06
 0.91772003E+02 -0.56140E+06
 0.91822006E+02 -0.59301E+06
 0.91872002E+02 -0.60025E+06
 0.91922005E+02 -0.58016E+06
 0.91972008E+02 -0.55245E+06
 0.92022003E+02 -0.53872E+06
 0.92072006E+02 -0.54527E+06
 0.92122002E+02 -0.57360E+06
 0.92172005E+02 -0.61602E+06
 0.92222008E+02 -0.64807E+06
 0.92272003E+02 -0.65265E+06
 0.92322006E+02 -0.63096E+06
 0.92372002E+02 -0.59396E+06
 0.92422005E+02 -0.56022E+06
 0.92472008E+02 -0.54819E+06
 0.92522003E+02 -0.56331E+06
 0.92572006E+02 -0.59244E+06
 0.92622002E+02 -0.61285E+06
 0.92672005E+02 -0.61244E+06
 0.92722008E+02 -0.59578E+06
 0.92772003E+02 -0.56950E+06
 0.92822006E+02 -0.53860E+06
 0.92872002E+02 -0.51493E+06
 0.92922005E+02 -0.50892E+06
 0.92972008E+02 -0.51898E+06
 0.93022003E+02 -0.53476E+06
 0.93072006E+02 -0.54234E+06
 0.93122002E+02 -0.53590E+06
 0.93172005E+02 -0.52438E+06
 0.93222008E+02 -0.51568E+06
 0.93272003E+02 -0.51030E+06
 0.93322006E+02 -0.51254E+06
 0.93372002E+02 -0.52394E+06
 0.93422005E+02 -0.53816E+06
 0.93472008E+02 -0.54741E+06
 0.93522003E+02 -0.54235E+06
 0.93572006E+02 -0.52501E+06
 0.93622002E+02 -0.50975E+06
 0.93672005E+02 -0.50968E+06
 0.93722008E+02 -0.53633E+06
 0.93772003E+02 -0.58589E+06
 0.93822006E+02 -0.63314E+06
 0.93872002E+02 -0.65117E+06
 0.93922005E+02 -0.62995E+06
 0.93972008E+02 -0.57832E+06
 0.94022003E+02 -0.50514E+06
 0.94072006E+02 -0.41855E+06
 0.94122002E+02 -0.33828E+06
 0.94172005E+02 -0.28686E+06
 0.94222008E+02 -0.27768E+06
 0.94272003E+02 -0.30345E+06
 0.94322006E+02 -0.34070E+06
 0.94372002E+02 -0.37608E+06
 0.94422005E+02 -0.40519E+06
 0.94472008E+02 -0.41654E+06
 0.94522003E+02 -0.40190E+06
 0.94572006E+02 -0.36426E+06
 0.94622002E+02 -0.31051E+06
 0.94672005E+02 -0.25508E+06
 0.94722008E+02 -0.22266E+06
 0.94772003E+02 -0.23002E+06
 0.94822006E+02 -0.26961E+06
 0.94872002E+02 -0.32256E+06
 0.94922005E+02 -0.37258E+06
 0.94972008E+02 -0.40053E+06
 0.95022003E+02 -0.39386E+06
 0.95072006E+02 -0.35740E+06
 0.95122002E+02 -0.30875E+06
 0.95172005E+02 -0.27582E+06
 0.95222008E+02 -0.28196E+06
 0.95272003E+02 -0.32897E+06
 0.95322006E+02 -0.40186E+06
 0.95372002E+02 -0.47948E+06
 0.95422005E+02 -0.53965E+06
 0.95472008E+02 -0.56536E+06
 0.95522003E+02 -0.55346E+06
 0.95572006E+02 -0.51328E+06
 0.95622002E+02 -0.46048E+06
 0.95672005E+02 -0.41857E+06
 0.95722008E+02 -0.40490E+06
 0.95772003E+02 -0.41521E+06
 0.95822006E+02 -0.43908E+06
 0.95872002E+02 -0.46864E+06
 0.95922005E+02 -0.49291E+06
 0.95972008E+02 -0.50459E+06
 0.96022003E+02 -0.50086E+06
 0.96072006E+02 -0.48286E+06
 0.96122002E+02 -0.45565E+06
 0.96172005E+02 -0.41979E+06
 0.96222008E+02 -0.38470E+06
 0.96272003E+02 -0.37282E+06
 0.96322006E+02 -0.39368E+06
 0.96372002E+02 -0.43823E+06
 0.96422005E+02 -0.48333E+06
 0.96472008E+02 -0.50497E+06
 0.96522003E+02 -0.50054E+06
 0.96572006E+02 -0.48039E+06
 0.96622002E+02 -0.45423E+06
 0.96672005E+02 -0.43144E+06
 0.96722008E+02 -0.41654E+06
 0.96772003E+02 -0.40880E+06
 0.96822006E+02 -0.41083E+06
 0.96872002E+02 -0.42636E+06
 0.96922005E+02 -0.44735E+06
 0.96972008E+02 -0.45800E+06
 0.97022003E+02 -0.45140E+06
 0.97072006E+02 -0.43129E+06
 0.97122002E+02 -0.40126E+06
 0.97172005E+02 -0.36344E+06
 0.97222008E+02 -0.32143E+06
 0.97272003E+02 -0.27635E+06
 0.97322006E+02 -0.23518E+06
 0.97372002E+02 -0.21318E+06
 0.97422005E+02 -0.22144E+06
 0.97472008E+02 -0.26507E+06
 0.97522003E+02 -0.33860E+06
 0.97572006E+02 -0.42344E+06
 0.97622002E+02 -0.49112E+06
 0.97672005E+02 -0.51429E+06
 0.97722008E+02 -0.48844E+06
 0.97772003E+02 -0.43120E+06
 0.97822006E+02 -0.37096E+06
 0.97872002E+02 -0.33715E+06
 0.97922005E+02 -0.34370E+06
 0.97972008E+02 -0.38582E+06
 0.98022003E+02 -0.44324E+06
 0.98072006E+02 -0.48949E+06
 0.98122002E+02 -0.50850E+06
 0.98172005E+02 -0.49258E+06
 0.98222008E+02 -0.43961E+06
 0.98272003E+02 -0.36115E+06
 0.98322006E+02 -0.27662E+06
 0.98372002E+02 -0.20344E+06
 0.98422005E+02 -0.14963E+06
 0.98472008E+02 -0.11309E+06
 0.98522003E+02 -0.95055E+05
 0.98572006E+02 -0.99628E+05
 0.98622002E+02 -0.11845E+06
 0.98672005E+02 -0.13405E+06
 0.98722008E+02 -0.13606E+06
 0.98772003E+02 -0.12620E+06
 0.98822006E+02 -0.11510E+06
 0.98872002E+02 -0.11320E+06
 0.98922005E+02 -0.12191E+06
 0.98972008E+02 -0.13699E+06
 0.99022003E+02 -0.15534E+06
 0.99072006E+02 -0.17591E+06
 0.99122002E+02 -0.19526E+06
 0.99172005E+02 -0.21139E+06
 0.99222008E+02 -0.22919E+06
 0.99272003E+02 -0.25249E+06
 0.99322006E+02 -0.28176E+06
 0.99372002E+02 -0.31284E+06
 0.99422005E+02 -0.33516E+06
 0.99472008E+02 -0.34340E+06
 0.99522003E+02 -0.33998E+06
 0.99572006E+02 -0.32919E+06
 0.99622002E+02 -0.31801E+06
 0.99672005E+02 -0.31052E+06
 0.99722008E+02 -0.30818E+06
 0.99772003E+02 -0.31564E+06
 0.99822006E+02 -0.32960E+06
 0.99872002E+02 -0.33927E+06
 0.99922005E+02 -0.34045E+06
 0.99972008E+02 -0.33584E+06
 0.10002200E+03 -0.33047E+06
 0.10007201E+03 -0.33089E+06
 0.10012200E+03 -0.34476E+06
 0.10017200E+03 -0.37405E+06
 0.10022201E+03 -0.41022E+06
 0.10027200E+03 -0.43821E+06
 0.10032201E+03 -0.44688E+06
 0.10037200E+03 -0.43734E+06
 0.10042200E+03 -0.41727E+06
 0.10047201E+03 -0.39660E+06
 0.10052200E+03 -0.38395E+06
 0.10057201E+03 -0.38307E+06
 0.10062200E+03 -0.39446E+06
 0.10067200E+03 -0.41144E+06
 0.10072201E+03 -0.42420E+06
 0.10077200E+03 -0.42313E+06
 0.10082201E+03 -0.39977E+06
 0.10087200E+03 -0.36066E+06
 0.10092200E+03 -0.32363E+06
 0.10097201E+03 -0.30200E+06
 0.10102200E+03 -0.29900E+06
 0.10107201E+03 -0.30909E+06
 0.10112200E+03 -0.32399E+06
 0.10117200E+03 -0.33534E+06
 0.10122201E+03 -0.34151E+06
 0.10127200E+03 -0.34868E+06
 0.10132201E+03 -0.35942E+06
 0.10137200E+03 -0.36967E+06
 0.10142200E+03 -0.37290E+06
 0.10147201E+03 -0.36933E+06
 0.10152200E+03 -0.36539E+06
 0.10157201E+03 -0.36105E+06
 0.10162200E+03 -0.35322E+06
 0.10167200E+03 -0.33963E+06
 0.10172201E+03 -0.31920E+06
 0.10177200E+03 -0.29777E+06
 0.10182201E+03 -0.28332E+06
 0.10187200E+03 -0.28034E+06
 0.10192200E+03 -0.28914E+06
 0.10197201E+03 -0.30871E+06
 0.10202200E+03 -0.33913E+06
 0.10207201E+03 -0.37561E+06
 0.10212200E+03 -0.40614E+06
 0.10217200E+03 -0.41720E+06
 0.10222201E+03 -0.40357E+06
 0.10227200E+03 -0.37405E+06
 0.10232201E+03 -0.34332E+06
 0.10237200E+03 -0.32270E+06
 0.10242200E+03 -0.31830E+06
 0.10247201E+03 -0.32771E+06
 0.10252200E+03 -0.33923E+06
 0.10257201E+03 -0.33861E+06
 0.10262200E+03 -0.31946E+06
 0.10267200E+03 -0.29086E+06
 0.10272201E+03 -0.27031E+06
 0.10277200E+03 -0.26778E+06
 0.10282201E+03 -0.27925E+06
 0.10287200E+03 -0.29638E+06
 0.10292200E+03 -0.31373E+06
 0.10297201E+03 -0.32368E+06
 0.10302200E+03 -0.31832E+06
 0.10307201E+03 -0.29699E+06
 0.10312200E+03 -0.27007E+06
 0.10317200E+03 -0.25243E+06
 0.10322201E+03 -0.24750E+06
 0.10327200E+03 -0.24836E+06
 0.10332201E+03 -0.25130E+06
 0.10337200E+03 -0.25707E+06
 0.10342200E+03 -0.26255E+06
 0.10347201E+03 -0.26168E+06
 0.10352200E+03 -0.25268E+06
 0.10357201E+03 -0.23742E+06
 0.10362200E+03 -0.21986E+06
 0.10367200E+03 -0.20519E+06
 0.10372201E+03 -0.19920E+06
 0.10377200E+03 -0.20751E+06
 0.10382201E+03 -0.22921E+06
 0.10387200E+03 -0.25539E+06
 0.10392200E+03 -0.27291E+06
 0.10397201E+03 -0.27161E+06
 0.10402200E+03 -0.25512E+06
 0.10407201E+03 -0.23856E+06
 0.10412200E+03 -0.23289E+06
 0.10417200E+03 -0.23958E+06
 0.10422201E+03 -0.25362E+06
 0.10427200E+03 -0.26657E+06
 0.10432201E+03 -0.27334E+06
 0.10437200E+03 -0.27143E+06
 0.10442200E+03 -0.26027E+06
 0.10447201E+03 -0.24572E+06
 0.10452200E+03 -0.23655E+06
 0.10457201E+03 -0.23892E+06
 0.10462200E+03 -0.25464E+06
 0.10467200E+03 -0.28197E+06
 0.10472201E+03 -0.31509E+06
 0.10477200E+03 -0.34334E+06
 0.10482201E+03 -0.35695E+06
 0.10487200E+03 -0.35455E+06
 0.10492200E+03 -0.34349E+06
 0.10497201E+03 -0.33268E+06
 0.10502200E+03 -0.32513E+06
 0.10507201E+03 -0.31976E+06
 0.10512200E+03 -0.31371E+06
 0.10517200E+03 -0.30120E+06
 0.10522201E+03 -0.27951E+06
 0.10527200E+03 -0.25143E+06
 0.10532201E+03 -0.22172E+06
 0.10537200E+03 -0.19804E+06
 0.10542200E+03 -0.18957E+06
 0.10547201E+03 -0.20111E+06
 0.10552200E+03 -0.22824E+06
 0.10557201E+03 -0.25890E+06
 0.10562200E+03 -0.27940E+06
 0.10567200E+03 -0.28313E+06
 0.10572201E+03 -0.27758E+06
 0.10577200E+03 -0.27420E+06
 0.10582201E+03 -0.27358E+06
 0.10587200E+03 -0.27067E+06
 0.10592200E+03 -0.26611E+06
 0.10597201E+03 -0.26614E+06
 0.10602200E+03 -0.27449E+06
 0.10607201E+03 -0.28398E+06
 0.10612200E+03 -0.28393E+06
 0.10617200E+03 -0.27593E+06
 0.10622201E+03 -0.27418E+06
 0.10627200E+03 -0.28935E+06
 0.10632201E+03 -0.31667E+06
 0.10637200E+03 -0.34272E+06
 0.10642200E+03 -0.35565E+06
 0.10647201E+03 -0.34861E+06
 0.10652200E+03 -0.32111E+06
 0.10657201E+03 -0.28035E+06
 0.10662200E+03 -0.24258E+06
 0.10667200E+03 -0.22431E+06
 0.10672201E+03 -0.23206E+06
 0.10677200E+03 -0.26076E+06
 0.10682201E+03 -0.29283E+06
 0.10687200E+03 -0.30798E+06
 0.10692200E+03 -0.29834E+06
 0.10697201E+03 -0.27022E+06
 0.10702200E+03 -0.23663E+06
 0.10707201E+03 -0.21096E+06
 0.10712200E+03 -0.20566E+06
 0.10717200E+03 -0.22587E+06
 0.10722201E+03 -0.26197E+06
 0.10727200E+03 -0.29370E+06
 0.10732201E+03 -0.30116E+06
 0.10737200E+03 -0.27981E+06
 0.10742200E+03 -0.24065E+06
 0.10747201E+03 -0.19672E+06
 0.10752200E+03 -0.16071E+06
 0.10757201E+03 -0.14109E+06
 0.10762200E+03 -0.13674E+06
 0.10767200E+03 -0.14437E+06
 0.10772201E+03 -0.15945E+06
 0.10777200E+03 -0.17558E+06
 0.10782201E+03 -0.19394E+06
 0.10787200E+03 -0.21854E+06
 0.10792200E+03 -0.24439E+06
 0.10797201E+03 -0.25885E+06
 0.10802200E+03 -0.24802E+06
 0.10807201E+03 -0.20973E+06
 0.10812200E+03 -0.16048E+06
 0.10817200E+03 -0.12092E+06
 0.10822201E+03 -0.10194E+06
 0.10827200E+03 -0.10635E+06
 0.10832201E+03 -0.13360E+06
 0.10837200E+03 -0.17868E+06
 0.10842200E+03 -0.23008E+06
 0.10847201E+03 -0.27014E+06
 0.10852200E+03 -0.28063E+06
 0.10857201E+03 -0.25647E+06
 0.10862200E+03 -0.21118E+06
 0.10867200E+03 -0.16669E+06
 0.10872201E+03 -0.13930E+06
 0.10877200E+03 -0.13192E+06
 0.10882201E+03 -0.13996E+06
 0.10887200E+03 -0.15731E+06
 0.10892200E+03 -0.17533E+06
 0.10897201E+03 -0.18600E+06
 0.10902200E+03 -0.18341E+06
 0.10907201E+03 -0.16302E+06
 0.10912200E+03 -0.12549E+06
 0.10917200E+03 -0.80967E+05
 0.10922201E+03 -0.47894E+05
 0.10927200E+03 -0.41419E+05
 0.10932201E+03 -0.61195E+05
 0.10937200E+03 -0.93183E+05
 0.10942200E+03 -0.12137E+06
 0.10947201E+03 -0.13484E+06
 0.10952200E+03 -0.12711E+06
 0.10957201E+03 -0.98279E+05
 0.10962200E+03 -0.59833E+05
 0.10967200E+03 -0.29589E+05
 0.10972201E+03 -0.19561E+05
 0.10977200E+03 -0.31415E+05
 0.10982201E+03 -0.57523E+05
 0.10987200E+03 -0.85754E+05
 0.10992200E+03 -0.10733E+06
 0.10997201E+03 -0.11852E+06
 0.11002200E+03 -0.11995E+06
 0.11007201E+03 -0.11738E+06
 0.11012200E+03 -0.11813E+06
 0.11017200E+03 -0.12327E+06
 0.11022201E+03 -0.12908E+06
 0.11027200E+03 -0.13562E+06
 0.11032201E+03 -0.14318E+06
 0.11037200E+03 -0.15033E+06
 0.11042200E+03 -0.15927E+06
 0.11047201E+03 -0.16933E+06
 0.11052200E+03 -0.17464E+06
 0.11057201E+03 -0.17119E+06
 0.11062200E+03 -0.15816E+06
 0.11067200E+03 -0.14057E+06
 0.11072201E+03 -0.12646E+06
 0.11077200E+03 -0.11835E+06
 0.11082201E+03 -0.11558E+06
 0.11087200E+03 -0.11822E+06
 0.11092200E+03 -0.12827E+06
 0.11097201E+03 -0.14621E+06
 0.11102200E+03 -0.16535E+06
 0.11107201E+03 -0.17872E+06
 0.11112200E+03 -0.18420E+06
 0.11117200E+03 -0.18265E+06
 0.11122201E+03 -0.18092E+06
 0.11127200E+03 -0.18677E+06
 0.11132201E+03 -0.20124E+06
 0.11137200E+03 -0.22278E+06
 0.11142200E+03 -0.24761E+06
 0.11147201E+03 -0.26836E+06
 0.11152200E+03 -0.27909E+06
 0.11157201E+03 -0.27966E+06
 0.11162200E+03 -0.27579E+06
 0.11167200E+03 -0.27266E+06
 0.11172201E+03 -0.27272E+06
 0.11177200E+03 -0.27930E+06
 0.11182201E+03 -0.29275E+06
 0.11187200E+03 -0.30710E+06
 0.11192200E+03 -0.31535E+06
 0.11197201E+03 -0.31400E+06
 0.11202200E+03 -0.30282E+06
 0.11207201E+03 -0.28543E+06
 0.11212200E+03 -0.26751E+06
 0.11217200E+03 -0.25289E+06
 0.11222201E+03 -0.24258E+06
 0.11227200E+03 -0.23226E+06
 0.11232201E+03 -0.21631E+06
 0.11237200E+03 -0.19637E+06
 0.11242200E+03 -0.18004E+06
 0.11247201E+03 -0.17481E+06
 0.11252200E+03 -0.17962E+06
 0.11257201E+03 -0.18410E+06
 0.11262200E+03 -0.18143E+06
 0.11267200E+03 -0.17142E+06
 0.11272201E+03 -0.15363E+06
 0.11277200E+03 -0.12804E+06
 0.11282201E+03 -0.99974E+05
 0.11287200E+03 -0.80230E+05
 0.11292200E+03 -0.78011E+05
 0.11297201E+03 -0.93961E+05
 0.11302200E+03 -0.12001E+06
 0.11307201E+03 -0.14483E+06
 0.11312200E+03 -0.16042E+06
 0.11317200E+03 -0.16386E+06
 0.11322201E+03 -0.15741E+06
 0.11327200E+03 -0.14907E+06
 0.11332201E+03 -0.14815E+06
 0.11337200E+03 -0.15881E+06
 0.11342200E+03 -0.17528E+06
 0.11347201E+03 -0.18556E+06
 0.11352200E+03 -0.18260E+06
 0.11357201E+03 -0.16754E+06
 0.11362200E+03 -0.14711E+06
 0.11367200E+03 -0.12952E+06
 0.11372201E+03 -0.12014E+06
 0.11377200E+03 -0.12197E+06
 0.11382201E+03 -0.13542E+06
 0.11387200E+03 -0.15630E+06
 0.11392200E+03 -0.17596E+06
 0.11397201E+03 -0.18437E+06
 0.11402200E+03 -0.17432E+06
 0.11407201E+03 -0.14731E+06
 0.11412200E+03 -0.11501E+06
 0.11417200E+03 -0.89532E+05
 0.11422201E+03 -0.77653E+05
 0.11427200E+03 -0.80125E+05
 0.11432201E+03 -0.90397E+05
 0.11437200E+03 -0.10190E+06
 0.11442200E+03 -0.11047E+06
 0.11447201E+03 -0.11110E+06
 0.11452200E+03 -0.10422E+06
 0.11457201E+03 -0.94421E+05
 0.11462200E+03 -0.81257E+05
 0.11467200E+03 -0.64626E+05
 0.11472201E+03 -0.51148E+05
 0.11477200E+03 -0.47290E+05
 0.11482201E+03 -0.54295E+05
 0.11487200E+03 -0.67033E+05
 0.11492200E+03 -0.76283E+05
 0.11497201E+03 -0.77650E+05
 0.11502200E+03 -0.73389E+05
 0.11507201E+03 -0.69371E+05
 0.11512200E+03 -0.73551E+05
 0.11517200E+03 -0.91129E+05
 0.11522201E+03 -0.12211E+06
 0.11527200E+03 -0.16159E+06
 0.11532201E+03 -0.19979E+06
 0.11537200E+03 -0.22469E+06
 0.11542200E+03 -0.23113E+06
 0.11547201E+03 -0.22620E+06
 0.11552200E+03 -0.21964E+06
 0.11557201E+03 -0.21849E+06
 0.11562200E+03 -0.22741E+06
 0.11567200E+03 -0.24400E+06
 0.11572201E+03 -0.26241E+06
 0.11577200E+03 -0.27843E+06
 0.11582201E+03 -0.28820E+06
 0.11587200E+03 -0.28905E+06
 0.11592200E+03 -0.28086E+06
 0.11597201E+03 -0.26636E+06
 0.11602200E+03 -0.24872E+06
 0.11607201E+03 -0.22914E+06
 0.11612200E+03 -0.21026E+06
 0.11617200E+03 -0.19742E+06
 0.11622201E+03 -0.19422E+06
 0.11627200E+03 -0.20105E+06
 0.11632201E+03 -0.21526E+06
 0.11637200E+03 -0.22971E+06
 0.11642200E+03 -0.23579E+06
 0.11647201E+03 -0.22817E+06
 0.11652200E+03 -0.20809E+06
 0.11657201E+03 -0.18221E+06
 0.11662200E+03 -0.15691E+06
 0.11667200E+03 -0.13653E+06
 0.11672201E+03 -0.12363E+06
 0.11677200E+03 -0.11738E+06
 0.11682201E+03 -0.11298E+06
 0.11687200E+03 -0.10485E+06
 0.11692200E+03 -0.91006E+05
 0.11697201E+03 -0.73271E+05
 0.11702200E+03 -0.55449E+05
 0.11707201E+03 -0.38785E+05
 0.11712200E+03 -0.21027E+05
 0.11717200E+03 -0.30130E+04
 0.11722201E+03  0.10985E+05
 0.11727200E+03  0.17787E+05
 0.11732201E+03  0.15572E+05
 0.11737200E+03  0.44710E+04
 0.11742200E+03 -0.13883E+05
 0.11747201E+03 -0.36971E+05
 0.11752200E+03 -0.59668E+05
 0.11757201E+03 -0.75925E+05
 0.11762200E+03 -0.82089E+05
 0.11767200E+03 -0.79471E+05
 0.11772201E+03 -0.72711E+05
 0.11777200E+03 -0.65923E+05
 0.11782201E+03 -0.63496E+05
 0.11787200E+03 -0.69187E+05
 0.11792200E+03 -0.84073E+05
 0.11797201E+03 -0.10781E+06
 0.11802200E+03 -0.13615E+06
 0.11807201E+03 -0.16073E+06
 0.11812200E+03 -0.17496E+06
 0.11817200E+03 -0.17579E+06
 0.11822201E+03 -0.16452E+06
 0.11827200E+03 -0.14589E+06
 0.11832201E+03 -0.12584E+06
 0.11837200E+03 -0.11174E+06
 0.11842200E+03 -0.10598E+06
 0.11847201E+03 -0.10454E+06
 0.11852200E+03 -0.10404E+06
 0.11857201E+03 -0.10339E+06
 0.11862200E+03 -0.10330E+06
 0.11867200E+03 -0.10628E+06
 0.11872201E+03 -0.11445E+06
 0.11877200E+03 -0.12652E+06
 0.11882201E+03 -0.13757E+06
 0.11887200E+03 -0.14363E+06
 0.11892200E+03 -0.14430E+06
 0.11897201E+03 -0.13763E+06
 0.11902200E+03 -0.12114E+06
 0.11907201E+03 -0.97931E+05
 0.11912200E+03 -0.73177E+05
 0.11917200E+03 -0.53191E+05
 0.11922201E+03 -0.45392E+05
 0.11927200E+03 -0.51305E+05
 0.11932201E+03 -0.66648E+05
 0.11937200E+03 -0.86210E+05
 0.11942200E+03 -0.10256E+06
 0.11947201E+03 -0.10754E+06
 0.11952200E+03 -0.99460E+05
 0.11957201E+03 -0.81674E+05
 0.11962200E+03 -0.57849E+05
 0.11967200E+03 -0.33413E+05
 0.11972201E+03 -0.16754E+05
 0.11977200E+03 -0.15398E+05
 0.11982201E+03 -0.28088E+05
 0.11987200E+03 -0.44900E+05
 0.11992200E+03 -0.57784E+05
 0.11997201E+03 -0.65510E+05
 0.12002200E+03 -0.69906E+05
 0.12007201E+03 -0.70376E+05
 0.12012200E+03 -0.63253E+05
 0.12017200E+03 -0.48182E+05
 0.12022201E+03 -0.30915E+05
 0.12027200E+03 -0.19116E+05
 0.12032201E+03 -0.18093E+05
 0.12037200E+03 -0.26611E+05
 0.12042200E+03 -0.37841E+05
 0.12047201E+03 -0.47949E+05
 0.12052200E+03 -0.57916E+05
 0.12057201E+03 -0.67608E+05
 0.12062200E+03 -0.74677E+05
 0.12067200E+03 -0.77846E+05
 0.12072201E+03 -0.78570E+05
 0.12077200E+03 -0.79693E+05
 0.12082201E+03 -0.84707E+05
 0.12087200E+03 -0.95925E+05
 0.12092200E+03 -0.11201E+06
 0.12097201E+03 -0.13065E+06
 0.12102200E+03 -0.15005E+06
 0.12107201E+03 -0.16778E+06
 0.12112200E+03 -0.18054E+06
 0.12117200E+03 -0.18339E+06
 0.12122201E+03 -0.17233E+06
 0.12127200E+03 -0.14853E+06
 0.12132201E+03 -0.11893E+06
 0.12137200E+03 -0.93088E+05
 0.12142200E+03 -0.78623E+05
 0.12147201E+03 -0.78946E+05
 0.12152200E+03 -0.91488E+05
 0.12157201E+03 -0.10901E+06
 0.12162200E+03 -0.12377E+06
 0.12167200E+03 -0.12878E+06
 0.12172201E+03 -0.12015E+06
 0.12177200E+03 -0.99367E+05
 0.12182201E+03 -0.71783E+05
 0.12187200E+03 -0.43337E+05
 0.12192200E+03 -0.18437E+05
 0.12197201E+03 -0.15680E+04
 0.12202200E+03  0.22320E+04
 0.12207201E+03 -0.86260E+04
 0.12212200E+03 -0.28217E+05
 0.12217200E+03 -0.46124E+05
 0.12222201E+03 -0.54720E+05
 0.12227200E+03 -0.52098E+05
 0.12232201E+03 -0.42672E+05
 0.12237200E+03 -0.34076E+05
 0.12242200E+03 -0.32406E+05
 0.12247201E+03 -0.41927E+05
 0.12252200E+03 -0.63111E+05
 0.12257201E+03 -0.90803E+05
 0.12262200E+03 -0.11633E+06
 0.12267200E+03 -0.13142E+06
 0.12272201E+03 -0.13403E+06
 0.12277200E+03 -0.12894E+06
 0.12282201E+03 -0.12206E+06
 0.12287200E+03 -0.11568E+06
 0.12292200E+03 -0.10847E+06
 0.12297201E+03 -0.98629E+05
 0.12302200E+03 -0.86758E+05
 0.12307201E+03 -0.77731E+05
 0.12312200E+03 -0.76229E+05
 0.12317200E+03 -0.81680E+05
 0.12322201E+03 -0.91266E+05
 0.12327200E+03 -0.10101E+06
 0.12332201E+03 -0.10464E+06
 0.12337200E+03 -0.97627E+05
 0.12342200E+03 -0.80783E+05
 0.12347201E+03 -0.59132E+05
 0.12352200E+03 -0.39853E+05
 0.12357201E+03 -0.29997E+05
 0.12362200E+03 -0.33897E+05
 0.12367200E+03 -0.50129E+05
 0.12372201E+03 -0.70728E+05
 0.12377200E+03 -0.87091E+05
 0.12382201E+03 -0.95692E+05
 0.12387200E+03 -0.97690E+05
 0.12392200E+03 -0.95858E+05
 0.12397201E+03 -0.92484E+05
 0.12402200E+03 -0.89095E+05
 0.12407201E+03 -0.86859E+05
 0.12412200E+03 -0.86271E+05
 0.12417200E+03 -0.86574E+05
 0.12422201E+03 -0.86073E+05
 0.12427200E+03 -0.82868E+05
 0.12432201E+03 -0.75530E+05
 0.12437200E+03 -0.62602E+05
 0.12442200E+03 -0.42988E+05
 0.12447201E+03 -0.18177E+05
 0.12452200E+03  0.78370E+04
 0.12457201E+03  0.30753E+05
 0.12462200E+03  0.47107E+05
 0.12467200E+03  0.55475E+05
 0.12472201E+03  0.58131E+05
 0.12477200E+03  0.58935E+05
 0.12482201E+03  0.60169E+05
 0.12487200E+03  0.62826E+05
 0.12492200E+03  0.67591E+05
 0.12497201E+03  0.73466E+05
 0.12502200E+03  0.76954E+05
 0.12507201E+03  0.75676E+05
 0.12512201E+03  0.70118E+05
 0.12517201E+03  0.62643E+05
 0.12522200E+03  0.56256E+05
 0.12527200E+03  0.50699E+05
 0.12532201E+03  0.43082E+05
 0.12537201E+03  0.32404E+05
 0.12542201E+03  0.20756E+05
 0.12547200E+03  0.12358E+05
 0.12552200E+03  0.10649E+05
 0.12557201E+03  0.14131E+05
 0.12562201E+03  0.16223E+05
 0.12567201E+03  0.11661E+05
 0.12572200E+03 -0.56900E+03
 0.12577200E+03 -0.19370E+05
 0.12582201E+03 -0.40795E+05
 0.12587201E+03 -0.60425E+05
 0.12592201E+03 -0.77288E+05
 0.12597200E+03 -0.92521E+05
 0.12602200E+03 -0.10652E+06
 0.12607201E+03 -0.11868E+06
 0.12612201E+03 -0.12921E+06
 0.12617201E+03 -0.13870E+06
 0.12622200E+03 -0.14713E+06
 0.12627200E+03 -0.15288E+06
 0.12632201E+03 -0.15312E+06
 0.12637201E+03 -0.14688E+06
 0.12642201E+03 -0.13601E+06
 0.12647200E+03 -0.12557E+06
 0.12652200E+03 -0.12145E+06
 0.12657201E+03 -0.12433E+06
 0.12662201E+03 -0.12920E+06
 0.12667201E+03 -0.12936E+06
 0.12672200E+03 -0.12050E+06
 0.12677200E+03 -0.10250E+06
 0.12682201E+03 -0.76542E+05
 0.12687201E+03 -0.43389E+05
 0.12692201E+03 -0.55610E+04
 0.12697200E+03  0.31580E+05
 0.12702200E+03  0.61184E+05
 0.12707201E+03  0.77980E+05
 0.12712201E+03  0.81647E+05
 0.12717201E+03  0.76526E+05
 0.12722200E+03  0.68296E+05
 0.12727200E+03  0.61611E+05
 0.12732201E+03  0.59030E+05
 0.12737201E+03  0.59699E+05
 0.12742201E+03  0.60496E+05
 0.12747200E+03  0.59095E+05
 0.12752200E+03  0.55308E+05
 0.12757201E+03  0.50891E+05
 0.12762201E+03  0.46388E+05
 0.12767201E+03  0.39332E+05
 0.12772200E+03  0.28065E+05
 0.12777200E+03  0.13382E+05
 0.12782201E+03 -0.27960E+04
 0.12787201E+03 -0.18205E+05
 0.12792201E+03 -0.30879E+05
 0.12797200E+03 -0.38595E+05
 0.12802200E+03 -0.38026E+05
 0.12807201E+03 -0.27219E+05
 0.12812201E+03 -0.10201E+05
 0.12817201E+03  0.44700E+04
 0.12822200E+03  0.88610E+04
 0.12827200E+03 -0.86900E+03
 0.12832201E+03 -0.22839E+05
 0.12837201E+03 -0.52022E+05
 0.12842201E+03 -0.81538E+05
 0.12847200E+03 -0.10301E+06
 0.12852200E+03 -0.11060E+06
 0.12857201E+03 -0.10352E+06
 0.12862201E+03 -0.87282E+05
 0.12867201E+03 -0.71826E+05
 0.12872200E+03 -0.65071E+05
 0.12877200E+03 -0.69355E+05
 0.12882201E+03 -0.81652E+05
 0.12887201E+03 -0.97734E+05
 0.12892201E+03 -0.11561E+06
 0.12897200E+03 -0.13271E+06
 0.12902200E+03 -0.14559E+06
 0.12907201E+03 -0.15267E+06
 0.12912201E+03 -0.15355E+06
 0.12917201E+03 -0.14794E+06
 0.12922200E+03 -0.13744E+06
 0.12927200E+03 -0.12550E+06
 0.12932201E+03 -0.11349E+06
 0.12937201E+03 -0.99843E+05
 0.12942201E+03 -0.83632E+05
 0.12947200E+03 -0.65688E+05
 0.12952200E+03 -0.48181E+05
 0.12957201E+03 -0.34749E+05
 0.12962201E+03 -0.29080E+05
 0.12967201E+03 -0.31978E+05
 0.12972200E+03 -0.39834E+05
 0.12977200E+03 -0.48736E+05
 0.12982201E+03 -0.57439E+05
 0.12987201E+03 -0.64903E+05
 0.12992201E+03 -0.69837E+05
 0.12997200E+03 -0.71939E+05
 0.13002200E+03 -0.72069E+05
 0.13007201E+03 -0.70820E+05
 0.13012201E+03 -0.66715E+05
 0.13017201E+03 -0.57204E+05
 0.13022200E+03 -0.41618E+05
 0.13027200E+03 -0.22820E+05
 0.13032201E+03 -0.37770E+04
 0.13037201E+03  0.14856E+05
 0.13042201E+03  0.31977E+05
 0.13047200E+03  0.46903E+05
 0.13052200E+03  0.60872E+05
 0.13057201E+03  0.75252E+05
 0.13062201E+03  0.91003E+05
 0.13067201E+03  0.10796E+06
 0.13072200E+03  0.12497E+06
 0.13077200E+03  0.14017E+06
 0.13082201E+03  0.15079E+06
 0.13087201E+03  0.15492E+06
 0.13092201E+03  0.15205E+06
 0.13097200E+03  0.14301E+06
 0.13102200E+03  0.12981E+06
 0.13107201E+03  0.11505E+06
 0.13112201E+03  0.10293E+06
 0.13117201E+03  0.97027E+05
 0.13122200E+03  0.95803E+05
 0.13127200E+03  0.93892E+05
 0.13132201E+03  0.86420E+05
 0.13137201E+03  0.72041E+05
 0.13142201E+03  0.52868E+05
 0.13147200E+03  0.31068E+05
 0.13152200E+03  0.92440E+04
 0.13157201E+03 -0.74800E+04
 0.13162201E+03 -0.14773E+05
 0.13167201E+03 -0.13438E+05
 0.13172200E+03 -0.91980E+04
 0.13177200E+03 -0.82980E+04
 0.13182201E+03 -0.13914E+05
 0.13187201E+03 -0.25422E+05
 0.13192201E+03 -0.39374E+05
 0.13197200E+03 -0.53382E+05
 0.13202200E+03 -0.67578E+05
 0.13207201E+03 -0.81162E+05
 0.13212201E+03 -0.91648E+05
 0.13217201E+03 -0.98405E+05
 0.13222200E+03 -0.10445E+06
 0.13227200E+03 -0.11275E+06
 0.13232201E+03 -0.12165E+06
 0.13237201E+03 -0.12624E+06
 0.13242201E+03 -0.12450E+06
 0.13247200E+03 -0.11905E+06
 0.13252200E+03 -0.11258E+06
 0.13257201E+03 -0.10635E+06
 0.13262201E+03 -0.10146E+06
 0.13267201E+03 -0.98214E+05
 0.13272200E+03 -0.97203E+05
 0.13277200E+03 -0.99331E+05
 0.13282201E+03 -0.10391E+06
 0.13287201E+03 -0.10805E+06
 0.13292201E+03 -0.10928E+06
 0.13297200E+03 -0.10874E+06
 0.13302200E+03 -0.10941E+06
 0.13307201E+03 -0.11299E+06
 0.13312201E+03 -0.11876E+06
 0.13317201E+03 -0.12461E+06
 0.13322200E+03 -0.12920E+06
 0.13327200E+03 -0.13098E+06
 0.13332201E+03 -0.12820E+06
 0.13337201E+03 -0.12190E+06
 0.13342201E+03 -0.11515E+06
 0.13347200E+03 -0.11089E+06
 0.13352200E+03 -0.11157E+06
 0.13357201E+03 -0.11804E+06
 0.13362201E+03 -0.12862E+06
 0.13367201E+03 -0.14004E+06
 0.13372200E+03 -0.14942E+06
 0.13377200E+03 -0.15470E+06
 0.13382201E+03 -0.15464E+06
 0.13387201E+03 -0.14930E+06
 0.13392201E+03 -0.13991E+06
 0.13397200E+03 -0.12843E+06
 0.13402200E+03 -0.11620E+06
 0.13407201E+03 -0.10336E+06
 0.13412201E+03 -0.90113E+05
 0.13417201E+03 -0.77621E+05
 0.13422200E+03 -0.66316E+05
 0.13427200E+03 -0.53997E+05
 0.13432201E+03 -0.39437E+05
 0.13437201E+03 -0.23713E+05
 0.13442201E+03 -0.69070E+04
 0.13447200E+03  0.11383E+05
 0.13452200E+03  0.31206E+05
 0.13457201E+03  0.50497E+05
 0.13462201E+03  0.64795E+05
 0.13467201E+03  0.72368E+05
 0.13472200E+03  0.74579E+05
 0.13477200E+03  0.73657E+05
 0.13482201E+03  0.72092E+05
 0.13487201E+03  0.71375E+05
 0.13492201E+03  0.72120E+05
 0.13497200E+03  0.73632E+05
 0.13502200E+03  0.74088E+05
 0.13507201E+03  0.72160E+05
 0.13512201E+03  0.68045E+05
 0.13517201E+03  0.63726E+05
 0.13522200E+03  0.61291E+05
 0.13527200E+03  0.61378E+05
 0.13532201E+03  0.62271E+05
 0.13537201E+03  0.60572E+05
 0.13542201E+03  0.55126E+05
 0.13547200E+03  0.47575E+05
 0.13552200E+03  0.40618E+05
 0.13557201E+03  0.38438E+05
 0.13562201E+03  0.43815E+05
 0.13567201E+03  0.55232E+05
 0.13572200E+03  0.69237E+05
 0.13577200E+03  0.82289E+05
 0.13582201E+03  0.90949E+05
 0.13587201E+03  0.93707E+05
 0.13592201E+03  0.91896E+05
 0.13597200E+03  0.88146E+05
 0.13602200E+03  0.85093E+05
 0.13607201E+03  0.85110E+05
 0.13612201E+03  0.89882E+05
 0.13617201E+03  0.99278E+05
 0.13622200E+03  0.11098E+06
 0.13627200E+03  0.12201E+06
 0.13632201E+03  0.12936E+06
 0.13637201E+03  0.12995E+06
 0.13642201E+03  0.12323E+06
 0.13647200E+03  0.11197E+06
 0.13652200E+03  0.10016E+06
 0.13657201E+03  0.92277E+05
 0.13662201E+03  0.90294E+05
 0.13667201E+03  0.91156E+05
 0.13672200E+03  0.90689E+05
 0.13677200E+03  0.87612E+05
 0.13682201E+03  0.82873E+05
 0.13687201E+03  0.76988E+05
 0.13692201E+03  0.69574E+05
 0.13697200E+03  0.60491E+05
 0.13702200E+03  0.49937E+05
 0.13707201E+03  0.39035E+05
 0.13712201E+03  0.29815E+05
 0.13717201E+03  0.24147E+05
 0.13722200E+03  0.23290E+05
 0.13727200E+03  0.26674E+05
 0.13732201E+03  0.31602E+05
 0.13737201E+03  0.35178E+05
 0.13742201E+03  0.35905E+05
 0.13747200E+03  0.33893E+05
 0.13752200E+03  0.29640E+05
 0.13757201E+03  0.23932E+05
 0.13762201E+03  0.18625E+05
 0.13767201E+03  0.14464E+05
 0.13772200E+03  0.10913E+05
 0.13777200E+03  0.76950E+04
 0.13782201E+03  0.36280E+04
 0.13787201E+03 -0.23100E+04
 0.13792201E+03 -0.10860E+05
 0.13797200E+03 -0.23654E+05
 0.13802200E+03 -0.41130E+05
 0.13807201E+03 -0.61904E+05
 0.13812201E+03 -0.82076E+05
 0.13817201E+03 -0.95897E+05
 0.13822200E+03 -0.10118E+06
 0.13827200E+03 -0.10104E+06
 0.13832201E+03 -0.10042E+06
 0.13837201E+03 -0.10241E+06
 0.13842201E+03 -0.10713E+06
 0.13847200E+03 -0.11301E+06
 0.13852200E+03 -0.11733E+06
 0.13857201E+03 -0.11716E+06
 0.13862201E+03 -0.11189E+06
 0.13867201E+03 -0.10366E+06
 0.13872200E+03 -0.94967E+05
 0.13877200E+03 -0.87101E+05
 0.13882201E+03 -0.79980E+05
 0.13887201E+03 -0.72667E+05
 0.13892201E+03 -0.63801E+05
 0.13897200E+03 -0.52308E+05
 0.13902200E+03 -0.38895E+05
 0.13907201E+03 -0.24926E+05
 0.13912201E+03 -0.11049E+05
 0.13917201E+03  0.10540E+04
 0.13922200E+03  0.85560E+04
 0.13927200E+03  0.10602E+05
 0.13932201E+03  0.99370E+04
 0.13937201E+03  0.10914E+05
 0.13942201E+03  0.16093E+05
 0.13947200E+03  0.24920E+05
 0.13952200E+03  0.35699E+05
 0.13957201E+03  0.46389E+05
 0.13962201E+03  0.54498E+05
 0.13967201E+03  0.59280E+05
 0.13972200E+03  0.61981E+05
 0.13977200E+03  0.63696E+05
 0.13982201E+03  0.64694E+05
 0.13987201E+03  0.64644E+05
 0.13992201E+03  0.62763E+05
 0.13997200E+03  0.58590E+05
 0.14002200E+03  0.52404E+05
 0.14007201E+03  0.45280E+05
 0.14012201E+03  0.39176E+05
 0.14017201E+03  0.35832E+05
 0.14022200E+03  0.36118E+05
 0.14027200E+03  0.39783E+05
 0.14032201E+03  0.44960E+05
 0.14037201E+03  0.49533E+05
 0.14042201E+03  0.52670E+05
 0.14047200E+03  0.54604E+05
 0.14052200E+03  0.55704E+05
 0.14057201E+03  0.55803E+05
 0.14062201E+03  0.53715E+05
 0.14067201E+03  0.47647E+05
 0.14072200E+03  0.37010E+05
 0.14077200E+03  0.23483E+05
 0.14082201E+03  0.98130E+04
 0.14087201E+03 -0.28130E+04
 0.14092201E+03 -0.15180E+05
 0.14097200E+03 -0.27468E+05
 0.14102200E+03 -0.38876E+05
 0.14107201E+03 -0.49523E+05
 0.14112201E+03 -0.60072E+05
 0.14117201E+03 -0.70250E+05
 0.14122200E+03 -0.79254E+05
 0.14127200E+03 -0.85560E+05
 0.14132201E+03 -0.86686E+05
 0.14137201E+03 -0.81771E+05
 0.14142201E+03 -0.72191E+05
 0.14147200E+03 -0.58928E+05
 0.14152200E+03 -0.41786E+05
 0.14157201E+03 -0.21342E+05
 0.14162201E+03 -0.14300E+03
 0.14167201E+03  0.18991E+05
 0.14172200E+03  0.34947E+05
 0.14177200E+03  0.48361E+05
 0.14182201E+03  0.60239E+05
 0.14187201E+03  0.71370E+05
 0.14192201E+03  0.82726E+05
 0.14197200E+03  0.94368E+05
 0.14202200E+03  0.10485E+06
 0.14207201E+03  0.11257E+06
 0.14212201E+03  0.11715E+06
 0.14217201E+03  0.11957E+06
 0.14222200E+03  0.12135E+06
 0.14227200E+03  0.12372E+06
 0.14232201E+03  0.12685E+06
 0.14237201E+03  0.12914E+06
 0.14242201E+03  0.12825E+06
 0.14247200E+03  0.12243E+06
 0.14252200E+03  0.11115E+06
 0.14257201E+03  0.96333E+05
 0.14262201E+03  0.81393E+05
 0.14267201E+03  0.68763E+05
 0.14272200E+03  0.59706E+05
 0.14277200E+03  0.53203E+05
 0.14282201E+03  0.45208E+05
 0.14287201E+03  0.32408E+05
 0.14292201E+03  0.15412E+05
 0.14297200E+03 -0.19600E+04
 0.14302200E+03 -0.15893E+05
 0.14307201E+03 -0.25153E+05
 0.14312201E+03 -0.29962E+05
 0.14317201E+03 -0.30412E+05
 0.14322200E+03 -0.26973E+05
 0.14327200E+03 -0.21167E+05
 0.14332201E+03 -0.15031E+05
 0.14337201E+03 -0.10797E+05
 0.14342201E+03 -0.10844E+05
 0.14347200E+03 -0.16122E+05
 0.14352200E+03 -0.24754E+05
 0.14357201E+03 -0.32153E+05
 0.14362201E+03 -0.34044E+05
 0.14367201E+03 -0.29657E+05
 0.14372200E+03 -0.20796E+05
 0.14377200E+03 -0.10368E+05
 0.14382201E+03 -0.96300E+03
 0.14387201E+03  0.60240E+04
 0.14392201E+03  0.97020E+04
 0.14397200E+03  0.10239E+05
 0.14402200E+03  0.85580E+04
 0.14407201E+03  0.59370E+04
 0.14412201E+03  0.43830E+04
 0.14417201E+03  0.50660E+04
 0.14422200E+03  0.75610E+04
 0.14427200E+03  0.10120E+05
 0.14432201E+03  0.10768E+05
 0.14437201E+03  0.89550E+04
 0.14442201E+03  0.56140E+04
 0.14447200E+03  0.32240E+04
 0.14452200E+03  0.36930E+04
 0.14457201E+03  0.61330E+04
 0.14462201E+03  0.89300E+04
 0.14467201E+03  0.10892E+05
 0.14472200E+03  0.10246E+05
 0.14477200E+03  0.54200E+04
 0.14482201E+03 -0.32060E+04
 0.14487201E+03 -0.13398E+05
 0.14492201E+03 -0.22560E+05
 0.14497200E+03 -0.28601E+05
 0.14502200E+03 -0.29667E+05
 0.14507201E+03 -0.25068E+05
 0.14512201E+03 -0.16780E+05
 0.14517201E+03 -0.74200E+04
 0.14522200E+03  0.15250E+04
 0.14527200E+03  0.87640E+04
 0.14532201E+03  0.13634E+05
 0.14537201E+03  0.16279E+05
 0.14542201E+03  0.17209E+05
 0.14547200E+03  0.17698E+05
 0.14552200E+03  0.18753E+05
 0.14557201E+03  0.21024E+05
 0.14562201E+03  0.25727E+05
 0.14567201E+03  0.33324E+05
 0.14572200E+03  0.42486E+05
 0.14577200E+03  0.50413E+05
 0.14582201E+03  0.53953E+05
 0.14587201E+03  0.51226E+05
 0.14592201E+03  0.43169E+05
 0.14597200E+03  0.33191E+05
 0.14602200E+03  0.24022E+05
 0.14607201E+03  0.16991E+05
 0.14612201E+03  0.12723E+05
 0.14617201E+03  0.11007E+05
 0.14622200E+03  0.11792E+05
 0.14627200E+03  0.14561E+05
 0.14632201E+03  0.18122E+05
 0.14637201E+03  0.21226E+05
 0.14642201E+03  0.22431E+05
 0.14647200E+03  0.21150E+05
 0.14652200E+03  0.17687E+05
 0.14657201E+03  0.12799E+05
 0.14662201E+03  0.76190E+04
 0.14667201E+03  0.32070E+04
 0.14672200E+03  0.10500E+03
 0.14677200E+03 -0.16800E+04
 0.14682201E+03 -0.23020E+04
 0.14687201E+03 -0.25540E+04
 0.14692201E+03 -0.37850E+04
 0.14697200E+03 -0.75690E+04
 0.14702200E+03 -0.14637E+05
 0.14707201E+03 -0.23176E+05
 0.14712201E+03 -0.30574E+05
 0.14717201E+03 -0.35413E+05
 0.14722200E+03 -0.37026E+05
 0.14727200E+03 -0.35499E+05
 0.14732201E+03 -0.31784E+05
 0.14737201E+03 -0.26753E+05
 0.14742201E+03 -0.20736E+05
 0.14747200E+03 -0.13906E+05
 0.14752200E+03 -0.66510E+04
 0.14757201E+03  0.29900E+03
 0.14762201E+03  0.62710E+04
 0.14767201E+03  0.10588E+05
 0.14772200E+03  0.12683E+05
 0.14777200E+03  0.12892E+05
 0.14782201E+03  0.12046E+05
 0.14787201E+03  0.10270E+05
 0.14792201E+03  0.68640E+04
 0.14797200E+03  0.12140E+04
 0.14802200E+03 -0.59950E+04
 0.14807201E+03 -0.13196E+05
 0.14812201E+03 -0.20045E+05
 0.14817201E+03 -0.26380E+05
 0.14822200E+03 -0.31279E+05
 0.14827200E+03 -0.34590E+05
 0.14832201E+03 -0.36052E+05
 0.14837201E+03 -0.34847E+05
 0.14842201E+03 -0.30673E+05
 0.14847200E+03 -0.23960E+05
 0.14852200E+03 -0.15379E+05
 0.14857201E+03 -0.55010E+04
 0.14862201E+03  0.46160E+04
 0.14867201E+03  0.13716E+05
 0.14872200E+03  0.20931E+05
 0.14877200E+03  0.25992E+05
 0.14882201E+03  0.29857E+05
 0.14887201E+03  0.34027E+05
 0.14892201E+03  0.39285E+05
 0.14897200E+03  0.45497E+05
 0.14902200E+03  0.52189E+05
 0.14907201E+03  0.59549E+05
 0.14912201E+03  0.67841E+05
 0.14917201E+03  0.77011E+05
 0.14922200E+03  0.87480E+05
 0.14927200E+03  0.98562E+05
 0.14932201E+03  0.10815E+06
 0.14937201E+03  0.11479E+06
 0.14942201E+03  0.11806E+06
 0.14947200E+03  0.11865E+06
 0.14952200E+03  0.11855E+06
 0.14957201E+03  0.11928E+06
 0.14962201E+03  0.12008E+06
 0.14967201E+03  0.11901E+06
 0.14972200E+03  0.11487E+06
 0.14977200E+03  0.10799E+06
 0.14982201E+03  0.10041E+06
 0.14987201E+03  0.94017E+05
 0.14992201E+03  0.89316E+05
 0.14997200E+03  0.85778E+05
