-0.30000000E+01 -0.17612E+05
-0.29500000E+01 -0.17612E+05
-0.29000001E+01 -0.17614E+05
-0.28499999E+01 -0.17608E+05
-0.28000000E+01 -0.17614E+05
-0.27500000E+01 -0.17616E+05
-0.27000000E+01 -0.17606E+05
-0.26500001E+01 -0.17608E+05
-0.25999999E+01 -0.17609E+05
-0.25500000E+01 -0.17603E+05
-0.25000000E+01 -0.17605E+05
-0.24500000E+01 -0.17607E+05
-0.24000001E+01 -0.17604E+05
-0.23499999E+01 -0.17605E+05
-0.23000002E+01 -0.17603E+05
-0.22500000E+01 -0.17598E+05
-0.22000000E+01 -0.17600E+05
-0.21500001E+01 -0.17599E+05
-0.20999999E+01 -0.17595E+05
-0.20500002E+01 -0.17600E+05
-0.20000000E+01 -0.17600E+05
-0.19500000E+01 -0.17594E+05
-0.19000001E+01 -0.17597E+05
-0.18500000E+01 -0.17594E+05
-0.18000001E+01 -0.17595E+05
-0.17500001E+01 -0.17598E+05
-0.17000000E+01 -0.17594E+05
-0.16500001E+01 -0.17596E+05
-0.16000001E+01 -0.17586E+05
-0.15500001E+01 -0.17589E+05
-0.15000001E+01 -0.17591E+05
-0.14500000E+01 -0.17584E+05
-0.14000001E+01 -0.17585E+05
-0.13500001E+01 -0.17584E+05
-0.13000001E+01 -0.17588E+05
-0.12500001E+01 -0.17580E+05
-0.12000000E+01 -0.17580E+05
-0.11500001E+01 -0.17582E+05
-0.11000001E+01 -0.17578E+05
-0.10500001E+01 -0.17583E+05
-0.10000001E+01 -0.17579E+05
-0.95000005E+00 -0.17576E+05
-0.90000010E+00 -0.17577E+05
-0.85000014E+00 -0.17576E+05
-0.80000019E+00 -0.17574E+05
-0.75000024E+00 -0.17575E+05
-0.70000005E+00 -0.17577E+05
-0.65000010E+00 -0.17574E+05
-0.60000014E+00 -0.17575E+05
-0.55000019E+00 -0.17574E+05
-0.50000024E+00 -0.17571E+05
-0.45000005E+00 -0.17575E+05
-0.40000010E+00 -0.17574E+05
-0.35000014E+00 -0.17570E+05
-0.30000019E+00 -0.17575E+05
-0.25000024E+00 -0.17576E+05
-0.20000029E+00 -0.17573E+05
-0.15000010E+00 -0.17571E+05
-0.10000014E+00 -0.17574E+05
-0.50000191E-01 -0.17577E+05
-0.23841858E-06 -0.17571E+05
 0.49999714E-01 -0.17571E+05
 0.99999905E-01 -0.17572E+05
 0.14999986E+00 -0.17571E+05
 0.19999981E+00 -0.17568E+05
 0.24999976E+00 -0.17571E+05
 0.29999971E+00 -0.17573E+05
 0.34999990E+00 -0.17569E+05
 0.39999986E+00 -0.17572E+05
 0.44999981E+00 -0.17574E+05
 0.49999976E+00 -0.17568E+05
 0.54999971E+00 -0.17568E+05
 0.59999990E+00 -0.17572E+05
 0.64999986E+00 -0.17572E+05
 0.69999981E+00 -0.17572E+05
 0.74999976E+00 -0.17574E+05
 0.79999971E+00 -0.17579E+05
 0.84999967E+00 -0.17578E+05
 0.89999986E+00 -0.17577E+05
 0.94999981E+00 -0.17580E+05
 0.99999976E+00 -0.17578E+05
 0.10499997E+01 -0.17579E+05
 0.10999999E+01 -0.17581E+05
 0.11499996E+01 -0.17588E+05
 0.11999998E+01 -0.17582E+05
 0.12499995E+01 -0.17583E+05
 0.12999997E+01 -0.17585E+05
 0.13499999E+01 -0.17585E+05
 0.13999996E+01 -0.17587E+05
 0.14499998E+01 -0.17580E+05
 0.14999995E+01 -0.17587E+05
 0.15499997E+01 -0.17583E+05
 0.15999999E+01 -0.17582E+05
 0.16499996E+01 -0.17587E+05
 0.16999998E+01 -0.17583E+05
 0.17499995E+01 -0.17585E+05
 0.17999997E+01 -0.17588E+05
 0.18499999E+01 -0.17583E+05
 0.18999996E+01 -0.17580E+05
 0.19499998E+01 -0.17581E+05
 0.19999995E+01 -0.17578E+05
 0.20499997E+01 -0.17584E+05
 0.20999999E+01 -0.17586E+05
 0.21499996E+01 -0.17582E+05
 0.21999998E+01 -0.17588E+05
 0.22499995E+01 -0.17582E+05
 0.22999997E+01 -0.17578E+05
 0.23499999E+01 -0.17583E+05
 0.23999996E+01 -0.17582E+05
 0.24499998E+01 -0.17584E+05
 0.24999995E+01 -0.17581E+05
 0.25499997E+01 -0.17578E+05
 0.25999994E+01 -0.17584E+05
 0.26499996E+01 -0.17584E+05
 0.26999998E+01 -0.17581E+05
 0.27499995E+01 -0.17581E+05
 0.27999997E+01 -0.17581E+05
 0.28499994E+01 -0.17582E+05
 0.28999996E+01 -0.17581E+05
 0.29499998E+01 -0.17586E+05
 0.29999995E+01 -0.17591E+05
 0.30499997E+01 -0.17586E+05
 0.30999994E+01 -0.17585E+05
 0.31499996E+01 -0.17588E+05
 0.31999998E+01 -0.17586E+05
 0.32499995E+01 -0.17584E+05
 0.32999997E+01 -0.17585E+05
 0.33499994E+01 -0.17586E+05
 0.33999996E+01 -0.17587E+05
 0.34499998E+01 -0.17589E+05
 0.34999995E+01 -0.17590E+05
 0.35499997E+01 -0.17590E+05
 0.35999994E+01 -0.17592E+05
 0.36499996E+01 -0.17590E+05
 0.36999998E+01 -0.17594E+05
 0.37499995E+01 -0.17593E+05
 0.37999997E+01 -0.17594E+05
 0.38499994E+01 -0.17600E+05
 0.38999996E+01 -0.17596E+05
 0.39499998E+01 -0.17600E+05
 0.39999995E+01 -0.17598E+05
 0.40499997E+01 -0.17593E+05
 0.40999994E+01 -0.17601E+05
 0.41499996E+01 -0.17599E+05
 0.41999998E+01 -0.17602E+05
 0.42499995E+01 -0.17598E+05
 0.42999997E+01 -0.17604E+05
 0.43499994E+01 -0.17607E+05
 0.43999996E+01 -0.17594E+05
 0.44499993E+01 -0.17605E+05
 0.44999995E+01 -0.17604E+05
 0.45499997E+01 -0.17607E+05
 0.45999994E+01 -0.17608E+05
 0.46499996E+01 -0.17605E+05
 0.46999993E+01 -0.17617E+05
 0.47499995E+01 -0.17606E+05
 0.47999997E+01 -0.17609E+05
 0.48499994E+01 -0.17616E+05
 0.48999996E+01 -0.17616E+05
 0.49499993E+01 -0.17622E+05
 0.49999995E+01 -0.17613E+05
 0.50499992E+01 -0.17619E+05
 0.50999994E+01 -0.17620E+05
 0.51499996E+01 -0.17613E+05
 0.51999998E+01 -0.17620E+05
 0.52499990E+01 -0.17619E+05
 0.52999992E+01 -0.17617E+05
 0.53499994E+01 -0.17617E+05
 0.53999996E+01 -0.17622E+05
 0.54499998E+01 -0.17620E+05
 0.54999990E+01 -0.17616E+05
 0.55499992E+01 -0.17625E+05
 0.55999994E+01 -0.17619E+05
 0.56499996E+01 -0.17619E+05
 0.56999998E+01 -0.17621E+05
 0.57499990E+01 -0.17620E+05
 0.57999992E+01 -0.17622E+05
 0.58499994E+01 -0.17617E+05
 0.58999996E+01 -0.17625E+05
 0.59499998E+01 -0.17618E+05
 0.59999990E+01 -0.17619E+05
 0.60499992E+01 -0.17626E+05
 0.60999994E+01 -0.17618E+05
 0.61499996E+01 -0.17617E+05
 0.61999998E+01 -0.17617E+05
 0.62499990E+01 -0.17623E+05
 0.62999992E+01 -0.17620E+05
 0.63499994E+01 -0.17617E+05
 0.63999996E+01 -0.17621E+05
 0.64499998E+01 -0.17616E+05
 0.64999990E+01 -0.17617E+05
 0.65499992E+01 -0.17611E+05
 0.65999994E+01 -0.17612E+05
 0.66499996E+01 -0.17619E+05
 0.66999998E+01 -0.17606E+05
 0.67499990E+01 -0.17609E+05
 0.67999992E+01 -0.17610E+05
 0.68499994E+01 -0.17604E+05
 0.68999996E+01 -0.17610E+05
 0.69499998E+01 -0.17604E+05
 0.69999990E+01 -0.17605E+05
 0.70499992E+01 -0.17600E+05
 0.70999994E+01 -0.17602E+05
 0.71499996E+01 -0.17605E+05
 0.71999998E+01 -0.17595E+05
 0.72499990E+01 -0.17601E+05
 0.72999992E+01 -0.17597E+05
 0.73499994E+01 -0.17609E+05
 0.73999996E+01 -0.17604E+05
 0.74499998E+01 -0.17594E+05
 0.74999990E+01 -0.17606E+05
 0.75499992E+01 -0.17596E+05
 0.75999994E+01 -0.17602E+05
 0.76499996E+01 -0.17599E+05
 0.76999998E+01 -0.17593E+05
 0.77499990E+01 -0.17600E+05
 0.77999992E+01 -0.17597E+05
 0.78499994E+01 -0.17600E+05
 0.78999996E+01 -0.17596E+05
 0.79499998E+01 -0.17599E+05
 0.79999990E+01 -0.17600E+05
 0.80499992E+01 -0.17594E+05
 0.80999994E+01 -0.17597E+05
 0.81499996E+01 -0.17598E+05
 0.81999989E+01 -0.17599E+05
 0.82499990E+01 -0.17600E+05
 0.82999992E+01 -0.17603E+05
 0.83499994E+01 -0.17600E+05
 0.83999996E+01 -0.17595E+05
 0.84499989E+01 -0.17599E+05
 0.84999990E+01 -0.17602E+05
 0.85499992E+01 -0.17602E+05
 0.85999994E+01 -0.17599E+05
 0.86499996E+01 -0.17593E+05
 0.86999989E+01 -0.17600E+05
 0.87499990E+01 -0.17601E+05
 0.87999992E+01 -0.17600E+05
 0.88499994E+01 -0.17599E+05
 0.88999996E+01 -0.17596E+05
 0.89499989E+01 -0.17597E+05
 0.89999990E+01 -0.17599E+05
 0.90499992E+01 -0.17605E+05
 0.90999994E+01 -0.17597E+05
 0.91499996E+01 -0.17595E+05
 0.91999989E+01 -0.17600E+05
 0.92499990E+01 -0.17592E+05
 0.92999992E+01 -0.17595E+05
 0.93499994E+01 -0.17599E+05
 0.93999996E+01 -0.17594E+05
 0.94499989E+01 -0.17596E+05
 0.94999990E+01 -0.17597E+05
 0.95499992E+01 -0.17597E+05
 0.95999994E+01 -0.17597E+05
 0.96499996E+01 -0.17595E+05
 0.96999989E+01 -0.17600E+05
 0.97499990E+01 -0.17597E+05
 0.97999992E+01 -0.17595E+05
 0.98499994E+01 -0.17601E+05
 0.98999996E+01 -0.17597E+05
 0.99499989E+01 -0.17598E+05
 0.99999990E+01 -0.17598E+05
 0.10049999E+02 -0.17601E+05
 0.10099999E+02 -0.17605E+05
 0.10150000E+02 -0.17600E+05
 0.10199999E+02 -0.17606E+05
 0.10249999E+02 -0.17604E+05
 0.10299999E+02 -0.17606E+05
 0.10349999E+02 -0.17605E+05
 0.10400000E+02 -0.17604E+05
 0.10449999E+02 -0.17613E+05
 0.10499999E+02 -0.17603E+05
 0.10549999E+02 -0.17601E+05
 0.10599999E+02 -0.17601E+05
 0.10650000E+02 -0.17603E+05
 0.10699999E+02 -0.17600E+05
 0.10749999E+02 -0.17599E+05
 0.10799999E+02 -0.17604E+05
 0.10849999E+02 -0.17600E+05
 0.10900000E+02 -0.17605E+05
 0.10949999E+02 -0.17599E+05
 0.10999999E+02 -0.17596E+05
 0.11049999E+02 -0.17604E+05
 0.11099999E+02 -0.17593E+05
 0.11150000E+02 -0.17592E+05
 0.11199999E+02 -0.17594E+05
 0.11249999E+02 -0.17591E+05
 0.11299999E+02 -0.17594E+05
 0.11349999E+02 -0.17592E+05
 0.11400000E+02 -0.17593E+05
 0.11449999E+02 -0.17587E+05
 0.11499999E+02 -0.17586E+05
 0.11549999E+02 -0.17592E+05
 0.11599999E+02 -0.17587E+05
 0.11649999E+02 -0.17587E+05
 0.11699999E+02 -0.17583E+05
 0.11749999E+02 -0.17589E+05
 0.11799999E+02 -0.17591E+05
 0.11849999E+02 -0.17587E+05
 0.11899999E+02 -0.17589E+05
 0.11949999E+02 -0.17589E+05
 0.11999999E+02 -0.17594E+05
 0.12049999E+02 -0.17587E+05
 0.12099999E+02 -0.17587E+05
 0.12149999E+02 -0.17594E+05
 0.12199999E+02 -0.17590E+05
 0.12249999E+02 -0.17596E+05
 0.12299999E+02 -0.17596E+05
 0.12349999E+02 -0.17599E+05
 0.12399999E+02 -0.17597E+05
 0.12449999E+02 -0.17592E+05
 0.12499999E+02 -0.17601E+05
 0.12549999E+02 -0.17596E+05
 0.12599999E+02 -0.17595E+05
 0.12649999E+02 -0.17596E+05
 0.12699999E+02 -0.17595E+05
 0.12749999E+02 -0.17599E+05
 0.12799999E+02 -0.17592E+05
 0.12849999E+02 -0.17595E+05
 0.12899999E+02 -0.17595E+05
 0.12949999E+02 -0.17588E+05
 0.12999999E+02 -0.17590E+05
 0.13049999E+02 -0.17589E+05
 0.13099998E+02 -0.17586E+05
 0.13150000E+02 -0.17585E+05
 0.13199999E+02 -0.17590E+05
 0.13249998E+02 -0.17586E+05
 0.13299999E+02 -0.17588E+05
 0.13349998E+02 -0.17586E+05
 0.13400000E+02 -0.17581E+05
 0.13449999E+02 -0.17585E+05
 0.13499998E+02 -0.17583E+05
 0.13549999E+02 -0.17585E+05
 0.13599998E+02 -0.17580E+05
 0.13650000E+02 -0.17579E+05
 0.13699999E+02 -0.17583E+05
 0.13749998E+02 -0.17578E+05
 0.13799999E+02 -0.17575E+05
 0.13849998E+02 -0.17573E+05
 0.13900000E+02 -0.17575E+05
 0.13949999E+02 -0.17577E+05
 0.13999998E+02 -0.17572E+05
 0.14049999E+02 -0.17573E+05
 0.14099998E+02 -0.17580E+05
 0.14150000E+02 -0.17573E+05
 0.14199999E+02 -0.17576E+05
 0.14249998E+02 -0.17586E+05
 0.14299999E+02 -0.17582E+05
 0.14349998E+02 -0.17583E+05
 0.14400000E+02 -0.17587E+05
 0.14449999E+02 -0.17588E+05
 0.14499998E+02 -0.17588E+05
 0.14549999E+02 -0.17592E+05
 0.14599998E+02 -0.17595E+05
 0.14650000E+02 -0.17595E+05
 0.14699999E+02 -0.17598E+05
 0.14749998E+02 -0.17597E+05
 0.14799999E+02 -0.17600E+05
 0.14849998E+02 -0.17602E+05
 0.14900000E+02 -0.17599E+05
 0.14949999E+02 -0.17602E+05
 0.14999998E+02 -0.17598E+05
 0.15049999E+02 -0.17599E+05
 0.15099998E+02 -0.17599E+05
 0.15150000E+02 -0.17595E+05
 0.15199999E+02 -0.17606E+05
 0.15249998E+02 -0.17600E+05
 0.15299999E+02 -0.17598E+05
 0.15349998E+02 -0.17603E+05
 0.15400000E+02 -0.17595E+05
 0.15449999E+02 -0.17601E+05
 0.15499998E+02 -0.17600E+05
 0.15549999E+02 -0.17593E+05
 0.15599998E+02 -0.17598E+05
 0.15650000E+02 -0.17600E+05
 0.15699999E+02 -0.17600E+05
 0.15749998E+02 -0.17589E+05
 0.15799999E+02 -0.17593E+05
 0.15849998E+02 -0.17597E+05
 0.15900000E+02 -0.17589E+05
 0.15949999E+02 -0.17597E+05
 0.15999998E+02 -0.17595E+05
 0.16049999E+02 -0.17596E+05
 0.16099998E+02 -0.17598E+05
 0.16150000E+02 -0.17597E+05
 0.16199999E+02 -0.17608E+05
 0.16249998E+02 -0.17602E+05
 0.16299999E+02 -0.17599E+05
 0.16349998E+02 -0.17606E+05
 0.16400000E+02 -0.17604E+05
 0.16449999E+02 -0.17603E+05
 0.16499998E+02 -0.17609E+05
 0.16549999E+02 -0.17612E+05
 0.16599998E+02 -0.17608E+05
 0.16650000E+02 -0.17611E+05
 0.16699999E+02 -0.17610E+05
 0.16749998E+02 -0.17613E+05
 0.16799999E+02 -0.17614E+05
 0.16849998E+02 -0.17609E+05
 0.16900000E+02 -0.17615E+05
 0.16949999E+02 -0.17615E+05
 0.16999998E+02 -0.17613E+05
 0.17049999E+02 -0.17617E+05
 0.17099998E+02 -0.17615E+05
 0.17150000E+02 -0.17615E+05
 0.17199999E+02 -0.17617E+05
 0.17249998E+02 -0.17620E+05
 0.17299999E+02 -0.17623E+05
 0.17349998E+02 -0.17620E+05
 0.17400000E+02 -0.17623E+05
 0.17449999E+02 -0.17627E+05
 0.17499998E+02 -0.17623E+05
 0.17549999E+02 -0.17620E+05
 0.17599998E+02 -0.17624E+05
 0.17650000E+02 -0.17625E+05
 0.17699999E+02 -0.17627E+05
 0.17749998E+02 -0.17630E+05
 0.17799999E+02 -0.17627E+05
 0.17849998E+02 -0.17628E+05
 0.17900000E+02 -0.17626E+05
 0.17949999E+02 -0.17624E+05
 0.17999998E+02 -0.17625E+05
 0.18049999E+02 -0.17625E+05
 0.18099998E+02 -0.17626E+05
 0.18150000E+02 -0.17625E+05
 0.18199999E+02 -0.17622E+05
 0.18249998E+02 -0.17625E+05
 0.18299999E+02 -0.17621E+05
 0.18349998E+02 -0.17617E+05
 0.18400000E+02 -0.17616E+05
 0.18449999E+02 -0.17617E+05
 0.18499998E+02 -0.17626E+05
 0.18549999E+02 -0.17622E+05
 0.18599998E+02 -0.17619E+05
 0.18650000E+02 -0.17621E+05
 0.18699999E+02 -0.17620E+05
 0.18749998E+02 -0.17619E+05
 0.18799999E+02 -0.17615E+05
 0.18849998E+02 -0.17622E+05
 0.18900000E+02 -0.17617E+05
 0.18949999E+02 -0.17609E+05
 0.18999998E+02 -0.17614E+05
 0.19049999E+02 -0.17613E+05
 0.19099998E+02 -0.17607E+05
 0.19150000E+02 -0.17604E+05
 0.19199999E+02 -0.17610E+05
 0.19249998E+02 -0.17609E+05
 0.19299999E+02 -0.17605E+05
 0.19349998E+02 -0.17606E+05
 0.19399998E+02 -0.17606E+05
 0.19449999E+02 -0.17610E+05
 0.19499998E+02 -0.17605E+05
 0.19549999E+02 -0.17600E+05
 0.19599998E+02 -0.17602E+05
 0.19649998E+02 -0.17602E+05
 0.19699999E+02 -0.17604E+05
 0.19749998E+02 -0.17607E+05
 0.19799999E+02 -0.17606E+05
 0.19849998E+02 -0.17606E+05
 0.19899998E+02 -0.17603E+05
 0.19949999E+02 -0.17604E+05
 0.19999998E+02 -0.17603E+05
 0.20049999E+02 -0.17602E+05
 0.20099998E+02 -0.17601E+05
 0.20149998E+02 -0.17601E+05
 0.20199999E+02 -0.17609E+05
 0.20249998E+02 -0.17604E+05
 0.20299999E+02 -0.17607E+05
 0.20349998E+02 -0.17610E+05
 0.20399998E+02 -0.17604E+05
 0.20449999E+02 -0.17613E+05
 0.20499998E+02 -0.17607E+05
 0.20549999E+02 -0.17603E+05
 0.20599998E+02 -0.17609E+05
 0.20649998E+02 -0.17606E+05
 0.20699999E+02 -0.17602E+05
 0.20749998E+02 -0.17605E+05
 0.20799999E+02 -0.17607E+05
 0.20849998E+02 -0.17597E+05
 0.20899998E+02 -0.17598E+05
 0.20949999E+02 -0.17601E+05
 0.20999998E+02 -0.17598E+05
 0.21049999E+02 -0.17596E+05
 0.21099998E+02 -0.17594E+05
 0.21149998E+02 -0.17602E+05
 0.21199999E+02 -0.17597E+05
 0.21249998E+02 -0.17593E+05
 0.21299999E+02 -0.17597E+05
 0.21349998E+02 -0.17591E+05
 0.21399998E+02 -0.17593E+05
 0.21449999E+02 -0.17592E+05
 0.21499998E+02 -0.17592E+05
 0.21549999E+02 -0.17589E+05
 0.21599998E+02 -0.17586E+05
 0.21649998E+02 -0.17591E+05
 0.21699999E+02 -0.17592E+05
 0.21749998E+02 -0.17593E+05
 0.21799999E+02 -0.17586E+05
 0.21849998E+02 -0.17592E+05
 0.21899998E+02 -0.17592E+05
 0.21949999E+02 -0.17588E+05
 0.21999998E+02 -0.17590E+05
 0.22049999E+02 -0.17586E+05
 0.22099998E+02 -0.17590E+05
 0.22149998E+02 -0.17585E+05
 0.22199999E+02 -0.17589E+05
 0.22249998E+02 -0.17589E+05
 0.22299999E+02 -0.17585E+05
 0.22349998E+02 -0.17590E+05
 0.22399998E+02 -0.17584E+05
 0.22449999E+02 -0.17584E+05
 0.22499998E+02 -0.17584E+05
 0.22549999E+02 -0.17582E+05
 0.22599998E+02 -0.17586E+05
 0.22649998E+02 -0.17583E+05
 0.22699999E+02 -0.17585E+05
 0.22749998E+02 -0.17590E+05
 0.22799999E+02 -0.17585E+05
 0.22849998E+02 -0.17584E+05
 0.22899998E+02 -0.17588E+05
 0.22949999E+02 -0.17590E+05
 0.22999998E+02 -0.17588E+05
 0.23049999E+02 -0.17585E+05
 0.23099998E+02 -0.17591E+05
 0.23149998E+02 -0.17587E+05
 0.23199999E+02 -0.17586E+05
 0.23249998E+02 -0.17590E+05
 0.23299999E+02 -0.17591E+05
 0.23349998E+02 -0.17589E+05
 0.23399998E+02 -0.17587E+05
 0.23449999E+02 -0.17593E+05
 0.23499998E+02 -0.17592E+05
 0.23549999E+02 -0.17598E+05
 0.23599998E+02 -0.17601E+05
 0.23649998E+02 -0.17600E+05
 0.23699999E+02 -0.17601E+05
 0.23749998E+02 -0.17597E+05
 0.23799999E+02 -0.17601E+05
 0.23849998E+02 -0.17604E+05
 0.23899998E+02 -0.17605E+05
 0.23949999E+02 -0.17602E+05
 0.23999998E+02 -0.17605E+05
 0.24049999E+02 -0.17607E+05
 0.24099998E+02 -0.17600E+05
 0.24149998E+02 -0.17607E+05
 0.24199999E+02 -0.17612E+05
 0.24249998E+02 -0.17607E+05
 0.24299999E+02 -0.17606E+05
 0.24349998E+02 -0.17604E+05
 0.24399998E+02 -0.17607E+05
 0.24449999E+02 -0.17604E+05
 0.24499998E+02 -0.17601E+05
 0.24549999E+02 -0.17606E+05
 0.24599998E+02 -0.17604E+05
 0.24649998E+02 -0.17602E+05
 0.24699999E+02 -0.17604E+05
 0.24749998E+02 -0.17608E+05
 0.24799999E+02 -0.17604E+05
 0.24849998E+02 -0.17604E+05
 0.24899998E+02 -0.17609E+05
 0.24949999E+02 -0.17605E+05
 0.24999998E+02 -0.17606E+05
 0.25049999E+02 -0.17603E+05
 0.25099998E+02 -0.17608E+05
 0.25149998E+02 -0.17611E+05
 0.25199999E+02 -0.17604E+05
 0.25249998E+02 -0.17606E+05
 0.25299999E+02 -0.17606E+05
 0.25349998E+02 -0.17609E+05
 0.25399998E+02 -0.17613E+05
 0.25449999E+02 -0.17607E+05
 0.25499998E+02 -0.17611E+05
 0.25549999E+02 -0.17610E+05
 0.25599998E+02 -0.17607E+05
 0.25649998E+02 -0.17606E+05
 0.25699999E+02 -0.17603E+05
 0.25749998E+02 -0.17612E+05
 0.25799999E+02 -0.17605E+05
 0.25849998E+02 -0.17604E+05
 0.25899998E+02 -0.17605E+05
 0.25949999E+02 -0.17596E+05
 0.25999998E+02 -0.17607E+05
 0.26049997E+02 -0.17597E+05
 0.26099998E+02 -0.17598E+05
 0.26149998E+02 -0.17601E+05
 0.26199999E+02 -0.17596E+05
 0.26249998E+02 -0.17603E+05
 0.26299997E+02 -0.17593E+05
 0.26349998E+02 -0.17596E+05
 0.26399998E+02 -0.17597E+05
 0.26449999E+02 -0.17594E+05
 0.26499998E+02 -0.17592E+05
 0.26549997E+02 -0.17588E+05
 0.26599998E+02 -0.17590E+05
 0.26649998E+02 -0.17589E+05
 0.26699999E+02 -0.17594E+05
 0.26749998E+02 -0.17589E+05
 0.26799997E+02 -0.17585E+05
 0.26849998E+02 -0.17587E+05
 0.26899998E+02 -0.17591E+05
 0.26949999E+02 -0.17588E+05
 0.26999998E+02 -0.17588E+05
 0.27049997E+02 -0.17592E+05
 0.27099998E+02 -0.17585E+05
 0.27149998E+02 -0.17588E+05
 0.27199999E+02 -0.17585E+05
 0.27249998E+02 -0.17586E+05
 0.27299997E+02 -0.17589E+05
 0.27349998E+02 -0.17587E+05
 0.27399998E+02 -0.17585E+05
 0.27449999E+02 -0.17582E+05
 0.27499998E+02 -0.17590E+05
 0.27549997E+02 -0.17588E+05
 0.27599998E+02 -0.17590E+05
 0.27649998E+02 -0.17592E+05
 0.27699999E+02 -0.17590E+05
 0.27749998E+02 -0.17589E+05
 0.27799997E+02 -0.17586E+05
 0.27849998E+02 -0.17590E+05
 0.27899998E+02 -0.17590E+05
 0.27949999E+02 -0.17590E+05
 0.27999998E+02 -0.17585E+05
 0.28049997E+02 -0.17589E+05
 0.28099998E+02 -0.17593E+05
 0.28149998E+02 -0.17596E+05
 0.28199999E+02 -0.17598E+05
 0.28249998E+02 -0.17599E+05
 0.28299997E+02 -0.17603E+05
 0.28349998E+02 -0.17596E+05
 0.28399998E+02 -0.17602E+05
 0.28449999E+02 -0.17602E+05
 0.28499998E+02 -0.17598E+05
 0.28549997E+02 -0.17600E+05
 0.28599998E+02 -0.17599E+05
 0.28649998E+02 -0.17600E+05
 0.28699999E+02 -0.17596E+05
 0.28749998E+02 -0.17600E+05
 0.28799997E+02 -0.17598E+05
 0.28849998E+02 -0.17597E+05
 0.28899998E+02 -0.17599E+05
 0.28949999E+02 -0.17596E+05
 0.28999998E+02 -0.17594E+05
 0.29049999E+02 -0.17589E+05
 0.29099998E+02 -0.17590E+05
 0.29149998E+02 -0.17594E+05
 0.29199997E+02 -0.17596E+05
 0.29249996E+02 -0.17591E+05
 0.29299999E+02 -0.17582E+05
 0.29349998E+02 -0.17584E+05
 0.29399998E+02 -0.17591E+05
 0.29449997E+02 -0.17588E+05
 0.29499996E+02 -0.17591E+05
 0.29549999E+02 -0.17589E+05
 0.29599998E+02 -0.17583E+05
 0.29649998E+02 -0.17589E+05
 0.29699997E+02 -0.17584E+05
 0.29749996E+02 -0.17587E+05
 0.29799999E+02 -0.17587E+05
 0.29849998E+02 -0.17584E+05
 0.29899998E+02 -0.17592E+05
 0.29949997E+02 -0.17582E+05
 0.29999996E+02 -0.17585E+05
 0.30049999E+02 -0.17589E+05
 0.30099998E+02 -0.17586E+05
 0.30149998E+02 -0.17585E+05
 0.30199997E+02 -0.17583E+05
 0.30249996E+02 -0.17592E+05
 0.30299999E+02 -0.17585E+05
 0.30349998E+02 -0.17586E+05
 0.30399998E+02 -0.17588E+05
 0.30449997E+02 -0.17579E+05
 0.30499996E+02 -0.17587E+05
 0.30549999E+02 -0.17586E+05
 0.30599998E+02 -0.17585E+05
 0.30649998E+02 -0.17581E+05
 0.30699997E+02 -0.17582E+05
 0.30749996E+02 -0.17590E+05
 0.30799999E+02 -0.17583E+05
 0.30849998E+02 -0.17581E+05
 0.30899998E+02 -0.17587E+05
 0.30949997E+02 -0.17583E+05
 0.30999996E+02 -0.17581E+05
 0.31049999E+02 -0.17579E+05
 0.31099998E+02 -0.17580E+05
 0.31149998E+02 -0.17581E+05
 0.31199997E+02 -0.17579E+05
 0.31249996E+02 -0.17582E+05
 0.31299999E+02 -0.17584E+05
 0.31349998E+02 -0.17587E+05
 0.31399998E+02 -0.17584E+05
 0.31449997E+02 -0.17586E+05
 0.31499996E+02 -0.17591E+05
 0.31549999E+02 -0.17583E+05
 0.31599998E+02 -0.17582E+05
 0.31649998E+02 -0.17587E+05
 0.31699997E+02 -0.17591E+05
 0.31749996E+02 -0.17588E+05
 0.31799999E+02 -0.17593E+05
 0.31849998E+02 -0.17595E+05
 0.31899998E+02 -0.17586E+05
 0.31949997E+02 -0.17592E+05
 0.31999996E+02 -0.17593E+05
 0.32049999E+02 -0.17593E+05
 0.32099998E+02 -0.17597E+05
 0.32149998E+02 -0.17590E+05
 0.32199997E+02 -0.17596E+05
 0.32249996E+02 -0.17596E+05
 0.32299999E+02 -0.17595E+05
 0.32349998E+02 -0.17597E+05
 0.32399998E+02 -0.17594E+05
 0.32449997E+02 -0.17598E+05
 0.32499996E+02 -0.17597E+05
 0.32549999E+02 -0.17598E+05
 0.32599998E+02 -0.17602E+05
 0.32649998E+02 -0.17601E+05
 0.32699997E+02 -0.17602E+05
 0.32749996E+02 -0.17601E+05
 0.32799999E+02 -0.17602E+05
 0.32849998E+02 -0.17605E+05
 0.32899998E+02 -0.17602E+05
 0.32949997E+02 -0.17605E+05
 0.32999996E+02 -0.17605E+05
 0.33049999E+02 -0.17604E+05
 0.33099998E+02 -0.17605E+05
 0.33149998E+02 -0.17604E+05
 0.33199997E+02 -0.17607E+05
 0.33249996E+02 -0.17606E+05
 0.33299999E+02 -0.17605E+05
 0.33349998E+02 -0.17604E+05
 0.33399998E+02 -0.17603E+05
 0.33449997E+02 -0.17607E+05
 0.33499996E+02 -0.17605E+05
 0.33549999E+02 -0.17600E+05
 0.33599998E+02 -0.17607E+05
 0.33649998E+02 -0.17603E+05
 0.33699997E+02 -0.17600E+05
 0.33749996E+02 -0.17602E+05
 0.33799999E+02 -0.17598E+05
 0.33849998E+02 -0.17603E+05
 0.33899998E+02 -0.17598E+05
 0.33949997E+02 -0.17598E+05
 0.33999996E+02 -0.17601E+05
 0.34049999E+02 -0.17600E+05
 0.34099998E+02 -0.17600E+05
 0.34149998E+02 -0.17596E+05
 0.34199997E+02 -0.17600E+05
 0.34249996E+02 -0.17597E+05
 0.34299999E+02 -0.17592E+05
 0.34349998E+02 -0.17598E+05
 0.34399998E+02 -0.17596E+05
 0.34449997E+02 -0.17597E+05
 0.34499996E+02 -0.17592E+05
 0.34549999E+02 -0.17593E+05
 0.34599998E+02 -0.17598E+05
 0.34649998E+02 -0.17594E+05
 0.34699997E+02 -0.17594E+05
 0.34749996E+02 -0.17594E+05
 0.34799999E+02 -0.17596E+05
 0.34849998E+02 -0.17589E+05
 0.34899998E+02 -0.17589E+05
 0.34949997E+02 -0.17597E+05
 0.34999996E+02 -0.17592E+05
 0.35049999E+02 -0.17592E+05
 0.35099998E+02 -0.17594E+05
 0.35149998E+02 -0.17592E+05
 0.35199997E+02 -0.17593E+05
 0.35249996E+02 -0.17595E+05
 0.35299999E+02 -0.17595E+05
 0.35349998E+02 -0.17592E+05
 0.35399998E+02 -0.17590E+05
 0.35449997E+02 -0.17595E+05
 0.35499996E+02 -0.17597E+05
 0.35549999E+02 -0.17593E+05
 0.35599998E+02 -0.17593E+05
 0.35649998E+02 -0.17598E+05
 0.35699997E+02 -0.17593E+05
 0.35749996E+02 -0.17594E+05
 0.35799999E+02 -0.17598E+05
 0.35849998E+02 -0.17594E+05
 0.35899998E+02 -0.17593E+05
 0.35949997E+02 -0.17601E+05
 0.35999996E+02 -0.17596E+05
 0.36049999E+02 -0.17591E+05
 0.36099998E+02 -0.17593E+05
 0.36149998E+02 -0.17586E+05
 0.36199997E+02 -0.17599E+05
 0.36249996E+02 -0.17595E+05
 0.36299999E+02 -0.17595E+05
 0.36349998E+02 -0.17604E+05
 0.36399998E+02 -0.17588E+05
 0.36449997E+02 -0.17599E+05
 0.36499996E+02 -0.17599E+05
 0.36549999E+02 -0.17594E+05
 0.36599998E+02 -0.17596E+05
 0.36649998E+02 -0.17596E+05
 0.36699997E+02 -0.17605E+05
 0.36749996E+02 -0.17596E+05
 0.36799999E+02 -0.17595E+05
 0.36849998E+02 -0.17599E+05
 0.36899998E+02 -0.17597E+05
 0.36949997E+02 -0.17599E+05
 0.36999996E+02 -0.17596E+05
 0.37049999E+02 -0.17600E+05
 0.37099998E+02 -0.17601E+05
 0.37149998E+02 -0.17600E+05
 0.37199997E+02 -0.17603E+05
 0.37249996E+02 -0.17604E+05
 0.37299999E+02 -0.17603E+05
 0.37349998E+02 -0.17606E+05
 0.37399998E+02 -0.17604E+05
 0.37449997E+02 -0.17604E+05
 0.37499996E+02 -0.17607E+05
 0.37549999E+02 -0.17602E+05
 0.37599998E+02 -0.17608E+05
 0.37649998E+02 -0.17608E+05
 0.37699997E+02 -0.17604E+05
 0.37749996E+02 -0.17603E+05
 0.37799999E+02 -0.17604E+05
 0.37849998E+02 -0.17606E+05
 0.37899998E+02 -0.17605E+05
 0.37949997E+02 -0.17611E+05
 0.37999996E+02 -0.17612E+05
 0.38049999E+02 -0.17608E+05
 0.38099998E+02 -0.17602E+05
 0.38149998E+02 -0.17603E+05
 0.38199997E+02 -0.17602E+05
 0.38249996E+02 -0.17603E+05
 0.38299999E+02 -0.17604E+05
 0.38349998E+02 -0.17599E+05
 0.38399998E+02 -0.17607E+05
 0.38449997E+02 -0.17605E+05
 0.38499996E+02 -0.17597E+05
 0.38549999E+02 -0.17601E+05
 0.38599998E+02 -0.17605E+05
 0.38649998E+02 -0.17604E+05
 0.38699997E+02 -0.17600E+05
 0.38749996E+02 -0.17603E+05
 0.38799999E+02 -0.17606E+05
 0.38849998E+02 -0.17602E+05
 0.38899998E+02 -0.17607E+05
 0.38949997E+02 -0.17604E+05
 0.38999996E+02 -0.17603E+05
 0.39049999E+02 -0.17604E+05
 0.39099998E+02 -0.17602E+05
 0.39149998E+02 -0.17605E+05
 0.39199997E+02 -0.17606E+05
 0.39249996E+02 -0.17614E+05
 0.39299999E+02 -0.17610E+05
 0.39349998E+02 -0.17608E+05
 0.39399998E+02 -0.17610E+05
 0.39449997E+02 -0.17607E+05
 0.39499996E+02 -0.17617E+05
 0.39549999E+02 -0.17615E+05
 0.39599998E+02 -0.17609E+05
 0.39649998E+02 -0.17612E+05
 0.39699997E+02 -0.17612E+05
 0.39749996E+02 -0.17615E+05
 0.39799999E+02 -0.17609E+05
 0.39849998E+02 -0.17610E+05
 0.39899998E+02 -0.17618E+05
 0.39949997E+02 -0.17611E+05
 0.39999996E+02 -0.17615E+05
 0.40049999E+02 -0.17616E+05
 0.40099998E+02 -0.17620E+05
 0.40149998E+02 -0.17624E+05
 0.40199997E+02 -0.17617E+05
 0.40249996E+02 -0.17627E+05
 0.40299999E+02 -0.17620E+05
 0.40349998E+02 -0.17621E+05
 0.40399998E+02 -0.17630E+05
 0.40449997E+02 -0.17626E+05
 0.40499996E+02 -0.17629E+05
 0.40549999E+02 -0.17621E+05
 0.40599998E+02 -0.17625E+05
 0.40649998E+02 -0.17624E+05
 0.40699997E+02 -0.17622E+05
 0.40749996E+02 -0.17631E+05
 0.40799999E+02 -0.17625E+05
 0.40849998E+02 -0.17624E+05
 0.40899998E+02 -0.17623E+05
 0.40949997E+02 -0.17619E+05
 0.40999996E+02 -0.17614E+05
 0.41049999E+02 -0.17613E+05
 0.41099998E+02 -0.17618E+05
 0.41149998E+02 -0.17615E+05
 0.41199997E+02 -0.17611E+05
 0.41249996E+02 -0.17615E+05
 0.41299999E+02 -0.17611E+05
 0.41349998E+02 -0.17609E+05
 0.41399998E+02 -0.17611E+05
 0.41449997E+02 -0.17610E+05
 0.41499996E+02 -0.17611E+05
 0.41549999E+02 -0.17607E+05
 0.41599998E+02 -0.17608E+05
 0.41649998E+02 -0.17606E+05
 0.41699997E+02 -0.17598E+05
 0.41749996E+02 -0.17601E+05
 0.41799995E+02 -0.17603E+05
 0.41849998E+02 -0.17601E+05
 0.41899998E+02 -0.17601E+05
 0.41949997E+02 -0.17600E+05
 0.41999996E+02 -0.17600E+05
 0.42049995E+02 -0.17597E+05
 0.42099998E+02 -0.17595E+05
 0.42149998E+02 -0.17594E+05
 0.42199997E+02 -0.17595E+05
 0.42249996E+02 -0.17595E+05
 0.42299995E+02 -0.17589E+05
 0.42349998E+02 -0.17592E+05
 0.42399998E+02 -0.17588E+05
 0.42449997E+02 -0.17591E+05
 0.42499996E+02 -0.17591E+05
 0.42549995E+02 -0.17588E+05
 0.42599998E+02 -0.17590E+05
 0.42649998E+02 -0.17585E+05
 0.42699997E+02 -0.17586E+05
 0.42749996E+02 -0.17582E+05
 0.42799995E+02 -0.17585E+05
 0.42849998E+02 -0.17585E+05
 0.42899998E+02 -0.17578E+05
 0.42949997E+02 -0.17585E+05
 0.42999996E+02 -0.17578E+05
 0.43049995E+02 -0.17572E+05
 0.43099998E+02 -0.17577E+05
 0.43149998E+02 -0.17575E+05
 0.43199997E+02 -0.17576E+05
 0.43249996E+02 -0.17572E+05
 0.43299995E+02 -0.17572E+05
 0.43349998E+02 -0.17572E+05
 0.43399998E+02 -0.17573E+05
 0.43449997E+02 -0.17570E+05
 0.43499996E+02 -0.17568E+05
 0.43549995E+02 -0.17574E+05
 0.43599998E+02 -0.17568E+05
 0.43649998E+02 -0.17574E+05
 0.43699997E+02 -0.17571E+05
 0.43749996E+02 -0.17574E+05
 0.43799995E+02 -0.17576E+05
 0.43849998E+02 -0.17569E+05
 0.43899998E+02 -0.17579E+05
 0.43949997E+02 -0.17569E+05
 0.43999996E+02 -0.17568E+05
 0.44049995E+02 -0.17576E+05
 0.44099998E+02 -0.17574E+05
 0.44149998E+02 -0.17577E+05
 0.44199997E+02 -0.17572E+05
 0.44249996E+02 -0.17572E+05
 0.44299995E+02 -0.17572E+05
 0.44349998E+02 -0.17573E+05
 0.44399998E+02 -0.17578E+05
 0.44449997E+02 -0.17578E+05
 0.44499996E+02 -0.17579E+05
 0.44549995E+02 -0.17580E+05
 0.44599998E+02 -0.17578E+05
 0.44649998E+02 -0.17581E+05
 0.44699997E+02 -0.17580E+05
 0.44749996E+02 -0.17578E+05
 0.44799995E+02 -0.17582E+05
 0.44849998E+02 -0.17580E+05
 0.44899998E+02 -0.17581E+05
 0.44949997E+02 -0.17583E+05
 0.44999996E+02 -0.17583E+05
 0.45049995E+02 -0.17585E+05
 0.45099998E+02 -0.17587E+05
 0.45149998E+02 -0.17583E+05
 0.45199997E+02 -0.17579E+05
 0.45249996E+02 -0.17585E+05
 0.45299995E+02 -0.17581E+05
 0.45349998E+02 -0.17581E+05
 0.45399998E+02 -0.17581E+05
 0.45449997E+02 -0.17579E+05
 0.45499996E+02 -0.17584E+05
 0.45549995E+02 -0.17577E+05
 0.45599998E+02 -0.17577E+05
 0.45649998E+02 -0.17582E+05
 0.45699997E+02 -0.17577E+05
 0.45749996E+02 -0.17582E+05
 0.45799995E+02 -0.17584E+05
 0.45849998E+02 -0.17584E+05
 0.45899998E+02 -0.17584E+05
 0.45949997E+02 -0.17584E+05
 0.45999996E+02 -0.17586E+05
 0.46049995E+02 -0.17588E+05
 0.46099998E+02 -0.17590E+05
 0.46149998E+02 -0.17583E+05
 0.46199997E+02 -0.17590E+05
 0.46249996E+02 -0.17591E+05
 0.46299995E+02 -0.17585E+05
 0.46349998E+02 -0.17590E+05
 0.46399998E+02 -0.17583E+05
 0.46449997E+02 -0.17587E+05
 0.46499996E+02 -0.17592E+05
 0.46549995E+02 -0.17593E+05
 0.46599998E+02 -0.17594E+05
 0.46649998E+02 -0.17589E+05
 0.46699997E+02 -0.17590E+05
 0.46749996E+02 -0.17591E+05
 0.46799995E+02 -0.17597E+05
 0.46849998E+02 -0.17593E+05
 0.46899998E+02 -0.17593E+05
 0.46949997E+02 -0.17600E+05
 0.46999996E+02 -0.17594E+05
 0.47049995E+02 -0.17599E+05
 0.47099998E+02 -0.17601E+05
 0.47149998E+02 -0.17599E+05
 0.47199997E+02 -0.17606E+05
 0.47249996E+02 -0.17601E+05
 0.47299995E+02 -0.17598E+05
 0.47349998E+02 -0.17606E+05
 0.47399998E+02 -0.17610E+05
 0.47449997E+02 -0.17613E+05
 0.47499996E+02 -0.17610E+05
 0.47549995E+02 -0.17607E+05
 0.47599998E+02 -0.17615E+05
 0.47649998E+02 -0.17616E+05
 0.47699997E+02 -0.17611E+05
 0.47749996E+02 -0.17614E+05
 0.47799995E+02 -0.17612E+05
 0.47849998E+02 -0.17615E+05
 0.47899998E+02 -0.17615E+05
 0.47949997E+02 -0.17613E+05
 0.47999996E+02 -0.17617E+05
 0.48049995E+02 -0.17613E+05
 0.48099998E+02 -0.17615E+05
 0.48149998E+02 -0.17616E+05
 0.48199997E+02 -0.17615E+05
 0.48249996E+02 -0.17617E+05
 0.48299995E+02 -0.17614E+05
 0.48349998E+02 -0.17616E+05
 0.48399998E+02 -0.17613E+05
 0.48449997E+02 -0.17614E+05
 0.48499996E+02 -0.17618E+05
 0.48549995E+02 -0.17616E+05
 0.48599998E+02 -0.17621E+05
 0.48649998E+02 -0.17616E+05
 0.48699997E+02 -0.17618E+05
 0.48749996E+02 -0.17626E+05
 0.48799995E+02 -0.17620E+05
 0.48849998E+02 -0.17617E+05
 0.48899998E+02 -0.17621E+05
 0.48949997E+02 -0.17624E+05
 0.48999996E+02 -0.17622E+05
 0.49049995E+02 -0.17620E+05
 0.49099998E+02 -0.17619E+05
 0.49149998E+02 -0.17619E+05
 0.49199997E+02 -0.17617E+05
 0.49249996E+02 -0.17616E+05
 0.49299995E+02 -0.17619E+05
 0.49349998E+02 -0.17617E+05
 0.49399998E+02 -0.17616E+05
 0.49449997E+02 -0.17617E+05
 0.49499996E+02 -0.17620E+05
 0.49549995E+02 -0.17617E+05
 0.49599998E+02 -0.17617E+05
 0.49649998E+02 -0.17614E+05
 0.49699997E+02 -0.17614E+05
 0.49749996E+02 -0.17619E+05
 0.49799995E+02 -0.17611E+05
 0.49849998E+02 -0.17615E+05
 0.49899998E+02 -0.17613E+05
 0.49949997E+02 -0.17611E+05
 0.49999996E+02 -0.17615E+05
 0.50049995E+02 -0.17611E+05
 0.50099998E+02 -0.17612E+05
 0.50149998E+02 -0.17610E+05
 0.50199997E+02 -0.17610E+05
 0.50249996E+02 -0.17609E+05
 0.50299995E+02 -0.17609E+05
 0.50349998E+02 -0.17606E+05
 0.50399998E+02 -0.17603E+05
 0.50449997E+02 -0.17607E+05
 0.50499996E+02 -0.17604E+05
 0.50549995E+02 -0.17604E+05
 0.50599998E+02 -0.17607E+05
 0.50649998E+02 -0.17605E+05
 0.50699997E+02 -0.17602E+05
 0.50749996E+02 -0.17608E+05
 0.50799995E+02 -0.17606E+05
 0.50849998E+02 -0.17602E+05
 0.50899998E+02 -0.17608E+05
 0.50949997E+02 -0.17607E+05
 0.50999996E+02 -0.17603E+05
 0.51049995E+02 -0.17609E+05
 0.51099998E+02 -0.17607E+05
 0.51149998E+02 -0.17602E+05
 0.51199997E+02 -0.17608E+05
 0.51249996E+02 -0.17603E+05
 0.51299995E+02 -0.17606E+05
 0.51349998E+02 -0.17608E+05
 0.51399998E+02 -0.17603E+05
 0.51449997E+02 -0.17610E+05
 0.51499996E+02 -0.17604E+05
 0.51549995E+02 -0.17608E+05
 0.51599998E+02 -0.17614E+05
 0.51649998E+02 -0.17604E+05
 0.51699997E+02 -0.17607E+05
 0.51749996E+02 -0.17610E+05
 0.51799995E+02 -0.17605E+05
 0.51849998E+02 -0.17606E+05
 0.51899998E+02 -0.17605E+05
 0.51949997E+02 -0.17608E+05
 0.51999996E+02 -0.17604E+05
 0.52049995E+02 -0.17607E+05
 0.52099998E+02 -0.17608E+05
 0.52149998E+02 -0.17601E+05
 0.52199997E+02 -0.17612E+05
 0.52249996E+02 -0.17600E+05
 0.52299995E+02 -0.17604E+05
 0.52349998E+02 -0.17614E+05
 0.52399998E+02 -0.17602E+05
 0.52449997E+02 -0.17606E+05
 0.52499996E+02 -0.17600E+05
 0.52549995E+02 -0.17604E+05
 0.52599998E+02 -0.17606E+05
 0.52649998E+02 -0.17599E+05
 0.52699997E+02 -0.17603E+05
 0.52749996E+02 -0.17600E+05
 0.52799995E+02 -0.17603E+05
 0.52849998E+02 -0.17601E+05
 0.52899998E+02 -0.17597E+05
 0.52949997E+02 -0.17598E+05
 0.52999996E+02 -0.17599E+05
 0.53049995E+02 -0.17602E+05
 0.53099998E+02 -0.17595E+05
 0.53149998E+02 -0.17594E+05
 0.53199997E+02 -0.17596E+05
 0.53249996E+02 -0.17592E+05
 0.53299995E+02 -0.17595E+05
 0.53349998E+02 -0.17594E+05
 0.53399998E+02 -0.17594E+05
 0.53449997E+02 -0.17591E+05
 0.53499996E+02 -0.17591E+05
 0.53549995E+02 -0.17594E+05
 0.53599998E+02 -0.17593E+05
 0.53649998E+02 -0.17592E+05
 0.53699997E+02 -0.17590E+05
 0.53749996E+02 -0.17593E+05
 0.53799995E+02 -0.17591E+05
 0.53849998E+02 -0.17591E+05
 0.53899998E+02 -0.17598E+05
 0.53949997E+02 -0.17590E+05
 0.53999996E+02 -0.17591E+05
 0.54049995E+02 -0.17598E+05
 0.54099998E+02 -0.17589E+05
 0.54149998E+02 -0.17588E+05
 0.54199997E+02 -0.17592E+05
 0.54249996E+02 -0.17591E+05
 0.54299995E+02 -0.17593E+05
 0.54349998E+02 -0.17589E+05
 0.54399998E+02 -0.17588E+05
 0.54449997E+02 -0.17588E+05
 0.54499996E+02 -0.17589E+05
 0.54549995E+02 -0.17589E+05
 0.54599998E+02 -0.17583E+05
 0.54649998E+02 -0.17585E+05
 0.54699997E+02 -0.17583E+05
 0.54749996E+02 -0.17584E+05
 0.54799995E+02 -0.17582E+05
 0.54849995E+02 -0.17578E+05
 0.54899998E+02 -0.17581E+05
 0.54949997E+02 -0.17577E+05
 0.54999996E+02 -0.17577E+05
 0.55049995E+02 -0.17576E+05
 0.55099995E+02 -0.17578E+05
 0.55149998E+02 -0.17577E+05
 0.55199997E+02 -0.17573E+05
 0.55249996E+02 -0.17578E+05
 0.55299995E+02 -0.17576E+05
 0.55349995E+02 -0.17575E+05
 0.55399998E+02 -0.17578E+05
 0.55449997E+02 -0.17573E+05
 0.55499996E+02 -0.17575E+05
 0.55549995E+02 -0.17574E+05
 0.55599995E+02 -0.17571E+05
 0.55649998E+02 -0.17572E+05
 0.55699997E+02 -0.17572E+05
 0.55749996E+02 -0.17573E+05
 0.55799995E+02 -0.17570E+05
 0.55849995E+02 -0.17570E+05
 0.55899998E+02 -0.17570E+05
 0.55949997E+02 -0.17570E+05
 0.55999996E+02 -0.17567E+05
 0.56049995E+02 -0.17568E+05
 0.56099995E+02 -0.17570E+05
 0.56149998E+02 -0.17567E+05
 0.56199997E+02 -0.17569E+05
 0.56249996E+02 -0.17567E+05
 0.56299995E+02 -0.17569E+05
 0.56349995E+02 -0.17566E+05
 0.56399998E+02 -0.17564E+05
 0.56449997E+02 -0.17571E+05
 0.56499996E+02 -0.17566E+05
 0.56549995E+02 -0.17571E+05
 0.56599995E+02 -0.17567E+05
 0.56649998E+02 -0.17566E+05
 0.56699997E+02 -0.17575E+05
 0.56749996E+02 -0.17571E+05
 0.56799995E+02 -0.17577E+05
 0.56849995E+02 -0.17579E+05
 0.56899998E+02 -0.17574E+05
 0.56949997E+02 -0.17582E+05
 0.56999996E+02 -0.17581E+05
 0.57049995E+02 -0.17575E+05
 0.57099995E+02 -0.17581E+05
 0.57149998E+02 -0.17584E+05
 0.57199997E+02 -0.17585E+05
 0.57249996E+02 -0.17582E+05
 0.57299995E+02 -0.17581E+05
 0.57349995E+02 -0.17586E+05
 0.57399998E+02 -0.17586E+05
 0.57449997E+02 -0.17589E+05
 0.57499996E+02 -0.17586E+05
 0.57549995E+02 -0.17590E+05
 0.57599995E+02 -0.17594E+05
 0.57649998E+02 -0.17595E+05
 0.57699997E+02 -0.17594E+05
 0.57749996E+02 -0.17597E+05
 0.57799995E+02 -0.17600E+05
 0.57849995E+02 -0.17591E+05
 0.57899998E+02 -0.17599E+05
 0.57949997E+02 -0.17594E+05
 0.57999996E+02 -0.17592E+05
 0.58049995E+02 -0.17600E+05
 0.58099995E+02 -0.17591E+05
 0.58149998E+02 -0.17599E+05
 0.58199997E+02 -0.17598E+05
 0.58249996E+02 -0.17593E+05
 0.58299995E+02 -0.17597E+05
 0.58349995E+02 -0.17599E+05
 0.58399998E+02 -0.17597E+05
 0.58449997E+02 -0.17594E+05
 0.58499996E+02 -0.17598E+05
 0.58549995E+02 -0.17599E+05
 0.58599995E+02 -0.17598E+05
 0.58649998E+02 -0.17600E+05
 0.58699997E+02 -0.17599E+05
 0.58749996E+02 -0.17600E+05
 0.58799995E+02 -0.17599E+05
 0.58849995E+02 -0.17596E+05
 0.58899998E+02 -0.17600E+05
 0.58949997E+02 -0.17600E+05
 0.58999996E+02 -0.17600E+05
 0.59049995E+02 -0.17598E+05
 0.59099995E+02 -0.17598E+05
 0.59149998E+02 -0.17602E+05
 0.59199997E+02 -0.17599E+05
 0.59249996E+02 -0.17600E+05
 0.59299995E+02 -0.17603E+05
 0.59349995E+02 -0.17603E+05
 0.59399998E+02 -0.17605E+05
 0.59449997E+02 -0.17605E+05
 0.59499996E+02 -0.17602E+05
 0.59549995E+02 -0.17600E+05
 0.59599995E+02 -0.17604E+05
 0.59649998E+02 -0.17609E+05
 0.59699997E+02 -0.17607E+05
 0.59749996E+02 -0.17608E+05
 0.59799995E+02 -0.17610E+05
 0.59849995E+02 -0.17612E+05
 0.59899998E+02 -0.17616E+05
 0.59949997E+02 -0.17613E+05
 0.59999996E+02 -0.17614E+05
 0.60049995E+02 -0.17616E+05
 0.60099995E+02 -0.17615E+05
 0.60149998E+02 -0.17614E+05
 0.60199997E+02 -0.17615E+05
 0.60249996E+02 -0.17627E+05
 0.60299995E+02 -0.17622E+05
 0.60349995E+02 -0.17615E+05
 0.60399998E+02 -0.17622E+05
 0.60449997E+02 -0.17619E+05
 0.60499996E+02 -0.17621E+05
 0.60549995E+02 -0.17620E+05
 0.60599995E+02 -0.17618E+05
 0.60649998E+02 -0.17625E+05
 0.60699997E+02 -0.17621E+05
 0.60749996E+02 -0.17622E+05
 0.60799995E+02 -0.17617E+05
 0.60849995E+02 -0.17616E+05
 0.60899998E+02 -0.17619E+05
 0.60949997E+02 -0.17613E+05
 0.60999996E+02 -0.17618E+05
 0.61049995E+02 -0.17615E+05
 0.61099998E+02 -0.17617E+05
 0.61149994E+02 -0.17614E+05
 0.61199997E+02 -0.17610E+05
 0.61249992E+02 -0.17620E+05
 0.61299995E+02 -0.17612E+05
 0.61349998E+02 -0.17616E+05
 0.61399994E+02 -0.17617E+05
 0.61449997E+02 -0.17608E+05
 0.61499992E+02 -0.17621E+05
 0.61549995E+02 -0.17612E+05
 0.61599998E+02 -0.17611E+05
 0.61649994E+02 -0.17613E+05
 0.61699997E+02 -0.17601E+05
 0.61749992E+02 -0.17613E+05
 0.61799995E+02 -0.17610E+05
 0.61849998E+02 -0.17608E+05
 0.61899994E+02 -0.17613E+05
 0.61949997E+02 -0.17609E+05
 0.61999992E+02 -0.17610E+05
 0.62049995E+02 -0.17606E+05
 0.62099998E+02 -0.17608E+05
 0.62149994E+02 -0.17611E+05
 0.62199997E+02 -0.17609E+05
 0.62249992E+02 -0.17607E+05
 0.62299995E+02 -0.17606E+05
 0.62349998E+02 -0.17613E+05
 0.62399994E+02 -0.17608E+05
 0.62449997E+02 -0.17608E+05
 0.62499992E+02 -0.17615E+05
 0.62549995E+02 -0.17610E+05
 0.62599998E+02 -0.17610E+05
 0.62649994E+02 -0.17609E+05
 0.62699997E+02 -0.17611E+05
 0.62749992E+02 -0.17610E+05
 0.62799995E+02 -0.17610E+05
 0.62849998E+02 -0.17611E+05
 0.62899994E+02 -0.17607E+05
 0.62949997E+02 -0.17609E+05
 0.62999992E+02 -0.17605E+05
 0.63049995E+02 -0.17603E+05
 0.63099998E+02 -0.17609E+05
 0.63149994E+02 -0.17610E+05
 0.63199997E+02 -0.17606E+05
 0.63249992E+02 -0.17612E+05
 0.63299995E+02 -0.17609E+05
 0.63349998E+02 -0.17607E+05
 0.63399994E+02 -0.17610E+05
 0.63449997E+02 -0.17604E+05
 0.63499992E+02 -0.17611E+05
 0.63549995E+02 -0.17602E+05
 0.63599998E+02 -0.17602E+05
 0.63649994E+02 -0.17607E+05
 0.63699997E+02 -0.17602E+05
 0.63749992E+02 -0.17602E+05
 0.63799995E+02 -0.17601E+05
 0.63849998E+02 -0.17608E+05
 0.63899994E+02 -0.17595E+05
 0.63949997E+02 -0.17594E+05
 0.63999992E+02 -0.17596E+05
 0.64049995E+02 -0.17595E+05
 0.64099998E+02 -0.17594E+05
 0.64149994E+02 -0.17586E+05
 0.64199997E+02 -0.17589E+05
 0.64249992E+02 -0.17587E+05
 0.64299995E+02 -0.17591E+05
 0.64349998E+02 -0.17588E+05
 0.64399994E+02 -0.17584E+05
 0.64449997E+02 -0.17587E+05
 0.64499992E+02 -0.17581E+05
 0.64549995E+02 -0.17585E+05
 0.64599998E+02 -0.17587E+05
 0.64649994E+02 -0.17584E+05
 0.64699997E+02 -0.17587E+05
 0.64749992E+02 -0.17591E+05
 0.64799995E+02 -0.17585E+05
 0.64849998E+02 -0.17583E+05
 0.64899994E+02 -0.17589E+05
 0.64949997E+02 -0.17584E+05
 0.64999992E+02 -0.17590E+05
 0.65049995E+02 -0.17591E+05
 0.65099998E+02 -0.17590E+05
 0.65149994E+02 -0.17596E+05
 0.65199997E+02 -0.17590E+05
 0.65249992E+02 -0.17590E+05
 0.65299995E+02 -0.17589E+05
 0.65349998E+02 -0.17595E+05
 0.65399994E+02 -0.17599E+05
 0.65449997E+02 -0.17593E+05
 0.65499992E+02 -0.17599E+05
 0.65549995E+02 -0.17593E+05
 0.65599998E+02 -0.17600E+05
 0.65649994E+02 -0.17600E+05
 0.65699997E+02 -0.17590E+05
 0.65749992E+02 -0.17603E+05
 0.65799995E+02 -0.17594E+05
 0.65849998E+02 -0.17593E+05
 0.65899994E+02 -0.17598E+05
 0.65949997E+02 -0.17593E+05
 0.65999992E+02 -0.17601E+05
 0.66049995E+02 -0.17595E+05
 0.66099998E+02 -0.17596E+05
 0.66149994E+02 -0.17602E+05
 0.66199997E+02 -0.17603E+05
 0.66249992E+02 -0.17600E+05
 0.66299995E+02 -0.17600E+05
 0.66349998E+02 -0.17604E+05
 0.66399994E+02 -0.17601E+05
 0.66449997E+02 -0.17608E+05
 0.66499992E+02 -0.17600E+05
 0.66549995E+02 -0.17598E+05
 0.66599998E+02 -0.17604E+05
 0.66649994E+02 -0.17601E+05
 0.66699997E+02 -0.17601E+05
 0.66749992E+02 -0.17597E+05
 0.66799995E+02 -0.17603E+05
 0.66849998E+02 -0.17599E+05
 0.66899994E+02 -0.17594E+05
 0.66949997E+02 -0.17600E+05
 0.66999992E+02 -0.17600E+05
 0.67049995E+02 -0.17599E+05
 0.67099998E+02 -0.17599E+05
 0.67149994E+02 -0.17600E+05
 0.67199997E+02 -0.17598E+05
 0.67249992E+02 -0.17598E+05
 0.67299995E+02 -0.17600E+05
 0.67349998E+02 -0.17598E+05
 0.67399994E+02 -0.17599E+05
 0.67449997E+02 -0.17602E+05
 0.67499992E+02 -0.17599E+05
 0.67549995E+02 -0.17601E+05
 0.67599998E+02 -0.17602E+05
 0.67649994E+02 -0.17605E+05
 0.67699997E+02 -0.17605E+05
 0.67749992E+02 -0.17602E+05
 0.67799995E+02 -0.17606E+05
 0.67849998E+02 -0.17603E+05
 0.67899994E+02 -0.17608E+05
 0.67949997E+02 -0.17609E+05
 0.67999992E+02 -0.17605E+05
 0.68049995E+02 -0.17608E+05
 0.68099998E+02 -0.17607E+05
 0.68149994E+02 -0.17611E+05
 0.68199997E+02 -0.17607E+05
 0.68249992E+02 -0.17599E+05
 0.68299995E+02 -0.17608E+05
 0.68349998E+02 -0.17612E+05
 0.68399994E+02 -0.17603E+05
 0.68449997E+02 -0.17606E+05
 0.68499992E+02 -0.17612E+05
 0.68549995E+02 -0.17606E+05
 0.68599998E+02 -0.17603E+05
 0.68649994E+02 -0.17605E+05
 0.68699997E+02 -0.17607E+05
 0.68749992E+02 -0.17601E+05
 0.68799995E+02 -0.17601E+05
 0.68849998E+02 -0.17602E+05
 0.68899994E+02 -0.17594E+05
 0.68949997E+02 -0.17600E+05
 0.68999992E+02 -0.17601E+05
 0.69049995E+02 -0.17599E+05
 0.69099998E+02 -0.17602E+05
 0.69149994E+02 -0.17599E+05
 0.69199997E+02 -0.17592E+05
 0.69249992E+02 -0.17596E+05
 0.69299995E+02 -0.17600E+05
 0.69349998E+02 -0.17595E+05
 0.69399994E+02 -0.17597E+05
 0.69449997E+02 -0.17594E+05
 0.69499992E+02 -0.17595E+05
 0.69549995E+02 -0.17597E+05
 0.69599998E+02 -0.17595E+05
 0.69649994E+02 -0.17597E+05
 0.69699997E+02 -0.17591E+05
 0.69749992E+02 -0.17594E+05
 0.69799995E+02 -0.17593E+05
 0.69849998E+02 -0.17592E+05
 0.69899994E+02 -0.17591E+05
 0.69949997E+02 -0.17585E+05
 0.69999992E+02 -0.17590E+05
 0.70049995E+02 -0.17587E+05
 0.70099998E+02 -0.17587E+05
 0.70149994E+02 -0.17584E+05
 0.70199997E+02 -0.17582E+05
 0.70249992E+02 -0.17587E+05
 0.70299995E+02 -0.17581E+05
 0.70349998E+02 -0.17583E+05
 0.70399994E+02 -0.17580E+05
 0.70449997E+02 -0.17585E+05
 0.70499992E+02 -0.17580E+05
 0.70549995E+02 -0.17576E+05
 0.70599998E+02 -0.17588E+05
 0.70649994E+02 -0.17584E+05
 0.70699997E+02 -0.17583E+05
 0.70749992E+02 -0.17582E+05
 0.70799995E+02 -0.17584E+05
 0.70849998E+02 -0.17587E+05
 0.70899994E+02 -0.17583E+05
 0.70949997E+02 -0.17587E+05
 0.70999992E+02 -0.17587E+05
 0.71049995E+02 -0.17584E+05
 0.71099998E+02 -0.17585E+05
 0.71149994E+02 -0.17587E+05
 0.71199997E+02 -0.17585E+05
 0.71249992E+02 -0.17583E+05
 0.71299995E+02 -0.17583E+05
 0.71349998E+02 -0.17584E+05
 0.71399994E+02 -0.17580E+05
 0.71449997E+02 -0.17578E+05
 0.71499992E+02 -0.17585E+05
 0.71549995E+02 -0.17584E+05
 0.71599998E+02 -0.17582E+05
 0.71649994E+02 -0.17585E+05
 0.71699997E+02 -0.17581E+05
 0.71749992E+02 -0.17580E+05
 0.71799995E+02 -0.17585E+05
 0.71849998E+02 -0.17581E+05
 0.71899994E+02 -0.17583E+05
 0.71949997E+02 -0.17587E+05
 0.71999992E+02 -0.17584E+05
 0.72049995E+02 -0.17582E+05
 0.72099998E+02 -0.17586E+05
 0.72149994E+02 -0.17591E+05
 0.72199997E+02 -0.17589E+05
 0.72249992E+02 -0.17588E+05
 0.72299995E+02 -0.17591E+05
 0.72349998E+02 -0.17591E+05
 0.72399994E+02 -0.17589E+05
 0.72449997E+02 -0.17589E+05
 0.72499992E+02 -0.17592E+05
 0.72549995E+02 -0.17593E+05
 0.72599998E+02 -0.17595E+05
 0.72649994E+02 -0.17591E+05
 0.72699997E+02 -0.17595E+05
 0.72749992E+02 -0.17596E+05
 0.72799995E+02 -0.17594E+05
 0.72849998E+02 -0.17595E+05
 0.72899994E+02 -0.17592E+05
 0.72949997E+02 -0.17595E+05
 0.72999992E+02 -0.17591E+05
 0.73049995E+02 -0.17595E+05
 0.73099998E+02 -0.17595E+05
 0.73149994E+02 -0.17590E+05
 0.73199997E+02 -0.17592E+05
 0.73249992E+02 -0.17593E+05
 0.73299995E+02 -0.17597E+05
 0.73349998E+02 -0.17589E+05
 0.73399994E+02 -0.17592E+05
 0.73449997E+02 -0.17592E+05
 0.73499992E+02 -0.17594E+05
 0.73549995E+02 -0.17599E+05
 0.73599998E+02 -0.17597E+05
 0.73649994E+02 -0.17598E+05
 0.73699997E+02 -0.17594E+05
 0.73749992E+02 -0.17597E+05
 0.73799995E+02 -0.17591E+05
 0.73849998E+02 -0.17595E+05
 0.73899994E+02 -0.17598E+05
 0.73949997E+02 -0.17589E+05
 0.73999992E+02 -0.17598E+05
 0.74049995E+02 -0.17598E+05
 0.74099998E+02 -0.17602E+05
 0.74149994E+02 -0.17601E+05
 0.74199997E+02 -0.17594E+05
 0.74249992E+02 -0.17604E+05
 0.74299995E+02 -0.17599E+05
 0.74349998E+02 -0.17599E+05
 0.74399994E+02 -0.17603E+05
 0.74449997E+02 -0.17601E+05
 0.74499992E+02 -0.17603E+05
 0.74549995E+02 -0.17601E+05
 0.74599998E+02 -0.17606E+05
 0.74649994E+02 -0.17603E+05
 0.74699997E+02 -0.17607E+05
 0.74749992E+02 -0.17609E+05
 0.74799995E+02 -0.17605E+05
 0.74849998E+02 -0.17614E+05
 0.74899994E+02 -0.17612E+05
 0.74949997E+02 -0.17611E+05
 0.74999992E+02 -0.17617E+05
 0.75049995E+02 -0.17617E+05
 0.75099998E+02 -0.17611E+05
 0.75149994E+02 -0.17604E+05
 0.75199997E+02 -0.17613E+05
 0.75249992E+02 -0.17613E+05
 0.75299995E+02 -0.17608E+05
 0.75349998E+02 -0.17613E+05
 0.75399994E+02 -0.17614E+05
 0.75449997E+02 -0.17614E+05
 0.75499992E+02 -0.17612E+05
 0.75549995E+02 -0.17613E+05
 0.75599998E+02 -0.17622E+05
 0.75649994E+02 -0.17614E+05
 0.75699997E+02 -0.17613E+05
 0.75749992E+02 -0.17616E+05
 0.75799995E+02 -0.17610E+05
 0.75849998E+02 -0.17615E+05
 0.75899994E+02 -0.17610E+05
 0.75949997E+02 -0.17610E+05
 0.75999992E+02 -0.17614E+05
 0.76049995E+02 -0.17613E+05
 0.76099998E+02 -0.17612E+05
 0.76149994E+02 -0.17610E+05
 0.76199997E+02 -0.17606E+05
 0.76249992E+02 -0.17610E+05
 0.76299995E+02 -0.17615E+05
 0.76349998E+02 -0.17606E+05
 0.76399994E+02 -0.17609E+05
 0.76449997E+02 -0.17606E+05
 0.76499992E+02 -0.17605E+05
 0.76549995E+02 -0.17607E+05
 0.76599998E+02 -0.17598E+05
 0.76649994E+02 -0.17603E+05
 0.76699997E+02 -0.17602E+05
 0.76749992E+02 -0.17601E+05
 0.76799995E+02 -0.17602E+05
 0.76849998E+02 -0.17606E+05
 0.76899994E+02 -0.17602E+05
 0.76949997E+02 -0.17600E+05
 0.76999992E+02 -0.17604E+05
 0.77049995E+02 -0.17592E+05
 0.77099998E+02 -0.17598E+05
 0.77149994E+02 -0.17597E+05
 0.77199997E+02 -0.17588E+05
 0.77249992E+02 -0.17594E+05
 0.77299995E+02 -0.17594E+05
 0.77349998E+02 -0.17596E+05
 0.77399994E+02 -0.17599E+05
 0.77449997E+02 -0.17594E+05
 0.77499992E+02 -0.17593E+05
 0.77549995E+02 -0.17596E+05
 0.77599998E+02 -0.17591E+05
 0.77649994E+02 -0.17597E+05
 0.77699997E+02 -0.17596E+05
 0.77749992E+02 -0.17593E+05
 0.77799995E+02 -0.17601E+05
 0.77849998E+02 -0.17599E+05
 0.77899994E+02 -0.17601E+05
 0.77949997E+02 -0.17599E+05
 0.77999992E+02 -0.17597E+05
 0.78049995E+02 -0.17602E+05
 0.78099998E+02 -0.17602E+05
 0.78149994E+02 -0.17606E+05
 0.78199997E+02 -0.17605E+05
 0.78249992E+02 -0.17596E+05
 0.78299995E+02 -0.17602E+05
 0.78349998E+02 -0.17599E+05
 0.78399994E+02 -0.17593E+05
 0.78449997E+02 -0.17608E+05
 0.78499992E+02 -0.17604E+05
 0.78549995E+02 -0.17600E+05
 0.78599998E+02 -0.17603E+05
 0.78649994E+02 -0.17606E+05
 0.78699997E+02 -0.17605E+05
 0.78749992E+02 -0.17599E+05
 0.78799995E+02 -0.17601E+05
 0.78849998E+02 -0.17605E+05
 0.78899994E+02 -0.17609E+05
 0.78949997E+02 -0.17605E+05
 0.78999992E+02 -0.17607E+05
 0.79049995E+02 -0.17603E+05
 0.79099998E+02 -0.17596E+05
 0.79149994E+02 -0.17601E+05
 0.79199997E+02 -0.17601E+05
 0.79249992E+02 -0.17604E+05
 0.79299995E+02 -0.17602E+05
 0.79349998E+02 -0.17600E+05
 0.79399994E+02 -0.17603E+05
 0.79449997E+02 -0.17605E+05
 0.79499992E+02 -0.17605E+05
 0.79549995E+02 -0.17606E+05
 0.79599998E+02 -0.17607E+05
 0.79649994E+02 -0.17608E+05
 0.79699997E+02 -0.17608E+05
 0.79749992E+02 -0.17606E+05
 0.79799995E+02 -0.17607E+05
 0.79849998E+02 -0.17607E+05
 0.79899994E+02 -0.17607E+05
 0.79949997E+02 -0.17606E+05
 0.79999992E+02 -0.17607E+05
 0.80049995E+02 -0.17613E+05
 0.80099998E+02 -0.17610E+05
 0.80149994E+02 -0.17606E+05
 0.80199997E+02 -0.17610E+05
 0.80249992E+02 -0.17610E+05
 0.80299995E+02 -0.17607E+05
 0.80349998E+02 -0.17609E+05
 0.80399994E+02 -0.17612E+05
 0.80449997E+02 -0.17611E+05
 0.80499992E+02 -0.17608E+05
 0.80549995E+02 -0.17616E+05
 0.80599998E+02 -0.17617E+05
 0.80649994E+02 -0.17609E+05
 0.80699997E+02 -0.17609E+05
 0.80749992E+02 -0.17614E+05
 0.80799995E+02 -0.17611E+05
 0.80849998E+02 -0.17611E+05
 0.80899994E+02 -0.17616E+05
 0.80949997E+02 -0.17614E+05
 0.80999992E+02 -0.17617E+05
 0.81049995E+02 -0.17618E+05
 0.81099998E+02 -0.17615E+05
 0.81149994E+02 -0.17619E+05
 0.81199997E+02 -0.17615E+05
 0.81249992E+02 -0.17611E+05
 0.81299995E+02 -0.17616E+05
 0.81349998E+02 -0.17612E+05
 0.81399994E+02 -0.17608E+05
 0.81449997E+02 -0.17610E+05
 0.81499992E+02 -0.17606E+05
 0.81549995E+02 -0.17603E+05
 0.81599998E+02 -0.17607E+05
 0.81649994E+02 -0.17604E+05
 0.81699997E+02 -0.17601E+05
 0.81749992E+02 -0.17606E+05
 0.81799995E+02 -0.17603E+05
 0.81849998E+02 -0.17601E+05
 0.81899994E+02 -0.17604E+05
 0.81949997E+02 -0.17601E+05
 0.81999992E+02 -0.17600E+05
 0.82049995E+02 -0.17601E+05
 0.82099998E+02 -0.17600E+05
 0.82149994E+02 -0.17598E+05
 0.82199997E+02 -0.17592E+05
 0.82249992E+02 -0.17598E+05
 0.82299995E+02 -0.17601E+05
 0.82349998E+02 -0.17593E+05
 0.82399994E+02 -0.17594E+05
 0.82449997E+02 -0.17595E+05
 0.82499992E+02 -0.17593E+05
 0.82549995E+02 -0.17590E+05
 0.82599998E+02 -0.17597E+05
 0.82649994E+02 -0.17595E+05
 0.82699997E+02 -0.17596E+05
 0.82749992E+02 -0.17597E+05
 0.82799995E+02 -0.17585E+05
 0.82849998E+02 -0.17594E+05
 0.82899994E+02 -0.17599E+05
 0.82949997E+02 -0.17598E+05
 0.82999992E+02 -0.17596E+05
 0.83049995E+02 -0.17597E+05
 0.83099998E+02 -0.17595E+05
 0.83149994E+02 -0.17586E+05
 0.83199997E+02 -0.17601E+05
 0.83249992E+02 -0.17597E+05
 0.83299995E+02 -0.17596E+05
 0.83349998E+02 -0.17597E+05
 0.83399994E+02 -0.17589E+05
 0.83449997E+02 -0.17599E+05
 0.83499992E+02 -0.17595E+05
 0.83549995E+02 -0.17590E+05
 0.83599998E+02 -0.17588E+05
 0.83649994E+02 -0.17590E+05
 0.83699997E+02 -0.17589E+05
 0.83749992E+02 -0.17586E+05
 0.83799995E+02 -0.17588E+05
 0.83849998E+02 -0.17589E+05
 0.83899994E+02 -0.17591E+05
 0.83949997E+02 -0.17592E+05
 0.83999992E+02 -0.17593E+05
 0.84049995E+02 -0.17583E+05
 0.84099998E+02 -0.17586E+05
 0.84149994E+02 -0.17588E+05
 0.84199997E+02 -0.17583E+05
 0.84249992E+02 -0.17590E+05
 0.84299995E+02 -0.17588E+05
 0.84349998E+02 -0.17584E+05
 0.84399994E+02 -0.17586E+05
 0.84449997E+02 -0.17586E+05
 0.84499992E+02 -0.17585E+05
 0.84549995E+02 -0.17586E+05
 0.84599998E+02 -0.17584E+05
 0.84649994E+02 -0.17588E+05
 0.84699997E+02 -0.17585E+05
 0.84749992E+02 -0.17589E+05
 0.84799995E+02 -0.17590E+05
 0.84849998E+02 -0.17582E+05
 0.84899994E+02 -0.17586E+05
 0.84949997E+02 -0.17582E+05
 0.84999992E+02 -0.17586E+05
 0.85049995E+02 -0.17586E+05
 0.85099998E+02 -0.17582E+05
 0.85149994E+02 -0.17593E+05
 0.85199997E+02 -0.17592E+05
 0.85249992E+02 -0.17591E+05
 0.85299995E+02 -0.17589E+05
 0.85349998E+02 -0.17591E+05
 0.85399994E+02 -0.17596E+05
 0.85449997E+02 -0.17591E+05
 0.85499992E+02 -0.17590E+05
 0.85549995E+02 -0.17594E+05
 0.85599998E+02 -0.17591E+05
 0.85649994E+02 -0.17592E+05
 0.85699997E+02 -0.17597E+05
 0.85749992E+02 -0.17590E+05
 0.85799995E+02 -0.17591E+05
 0.85849998E+02 -0.17593E+05
 0.85899994E+02 -0.17592E+05
 0.85949997E+02 -0.17595E+05
 0.85999992E+02 -0.17594E+05
 0.86049995E+02 -0.17598E+05
 0.86099998E+02 -0.17598E+05
 0.86149994E+02 -0.17595E+05
 0.86199997E+02 -0.17595E+05
 0.86249992E+02 -0.17595E+05
 0.86299995E+02 -0.17595E+05
 0.86349998E+02 -0.17599E+05
 0.86399994E+02 -0.17599E+05
 0.86449997E+02 -0.17591E+05
 0.86499992E+02 -0.17591E+05
 0.86549995E+02 -0.17601E+05
 0.86599991E+02 -0.17596E+05
 0.86649994E+02 -0.17593E+05
 0.86699997E+02 -0.17600E+05
 0.86749992E+02 -0.17590E+05
 0.86799995E+02 -0.17594E+05
 0.86849991E+02 -0.17591E+05
 0.86899994E+02 -0.17588E+05
 0.86949997E+02 -0.17596E+05
 0.86999992E+02 -0.17587E+05
 0.87049995E+02 -0.17595E+05
 0.87099991E+02 -0.17593E+05
 0.87149994E+02 -0.17584E+05
 0.87199997E+02 -0.17590E+05
 0.87249992E+02 -0.17588E+05
 0.87299995E+02 -0.17588E+05
 0.87349991E+02 -0.17585E+05
 0.87399994E+02 -0.17586E+05
 0.87449997E+02 -0.17589E+05
 0.87499992E+02 -0.17585E+05
 0.87549995E+02 -0.17585E+05
 0.87599991E+02 -0.17588E+05
 0.87649994E+02 -0.17588E+05
 0.87699997E+02 -0.17586E+05
 0.87749992E+02 -0.17590E+05
 0.87799995E+02 -0.17586E+05
 0.87849991E+02 -0.17587E+05
 0.87899994E+02 -0.17590E+05
 0.87949997E+02 -0.17584E+05
 0.87999992E+02 -0.17590E+05
 0.88049995E+02 -0.17591E+05
 0.88099991E+02 -0.17590E+05
 0.88149994E+02 -0.17588E+05
 0.88199997E+02 -0.17589E+05
 0.88249992E+02 -0.17593E+05
 0.88299995E+02 -0.17588E+05
 0.88349991E+02 -0.17591E+05
 0.88399994E+02 -0.17590E+05
 0.88449997E+02 -0.17593E+05
 0.88499992E+02 -0.17590E+05
 0.88549995E+02 -0.17586E+05
 0.88599991E+02 -0.17595E+05
 0.88649994E+02 -0.17597E+05
 0.88699997E+02 -0.17596E+05
 0.88749992E+02 -0.17597E+05
 0.88799995E+02 -0.17600E+05
 0.88849991E+02 -0.17600E+05
 0.88899994E+02 -0.17596E+05
 0.88949997E+02 -0.17601E+05
 0.88999992E+02 -0.17602E+05
 0.89049995E+02 -0.17599E+05
 0.89099991E+02 -0.17598E+05
 0.89149994E+02 -0.17601E+05
 0.89199997E+02 -0.17602E+05
 0.89249992E+02 -0.17597E+05
 0.89299995E+02 -0.17605E+05
 0.89349991E+02 -0.17608E+05
 0.89399994E+02 -0.17601E+05
 0.89449997E+02 -0.17604E+05
 0.89499992E+02 -0.17602E+05
 0.89549995E+02 -0.17608E+05
 0.89599991E+02 -0.17610E+05
 0.89649994E+02 -0.17612E+05
 0.89699997E+02 -0.17613E+05
 0.89749992E+02 -0.17604E+05
 0.89799995E+02 -0.17614E+05
 0.89849991E+02 -0.17616E+05
 0.89899994E+02 -0.17613E+05
 0.89949997E+02 -0.17618E+05
 0.89999992E+02 -0.17614E+05
 0.90049995E+02 -0.17612E+05
 0.90099991E+02 -0.17607E+05
 0.90149994E+02 -0.17611E+05
 0.90199997E+02 -0.17614E+05
 0.90249992E+02 -0.17611E+05
 0.90299995E+02 -0.17610E+05
 0.90349991E+02 -0.17608E+05
 0.90399994E+02 -0.17607E+05
 0.90449997E+02 -0.17605E+05
 0.90499992E+02 -0.17607E+05
 0.90549995E+02 -0.17609E+05
 0.90599991E+02 -0.17607E+05
 0.90649994E+02 -0.17608E+05
 0.90699997E+02 -0.17609E+05
 0.90749992E+02 -0.17609E+05
 0.90799995E+02 -0.17608E+05
 0.90849991E+02 -0.17606E+05
 0.90899994E+02 -0.17613E+05
 0.90949997E+02 -0.17611E+05
 0.90999992E+02 -0.17604E+05
 0.91049995E+02 -0.17609E+05
 0.91099991E+02 -0.17606E+05
 0.91149994E+02 -0.17609E+05
 0.91199997E+02 -0.17615E+05
 0.91249992E+02 -0.17610E+05
 0.91299995E+02 -0.17611E+05
 0.91349991E+02 -0.17609E+05
 0.91399994E+02 -0.17608E+05
 0.91449997E+02 -0.17612E+05
 0.91499992E+02 -0.17610E+05
 0.91549995E+02 -0.17611E+05
 0.91599991E+02 -0.17607E+05
 0.91649994E+02 -0.17604E+05
 0.91699997E+02 -0.17609E+05
 0.91749992E+02 -0.17611E+05
 0.91799995E+02 -0.17616E+05
 0.91849991E+02 -0.17614E+05
 0.91899994E+02 -0.17610E+05
 0.91949997E+02 -0.17608E+05
 0.91999992E+02 -0.17606E+05
 0.92049995E+02 -0.17610E+05
 0.92099991E+02 -0.17616E+05
 0.92149994E+02 -0.17615E+05
 0.92199997E+02 -0.17606E+05
 0.92249992E+02 -0.17605E+05
 0.92299995E+02 -0.17610E+05
 0.92349991E+02 -0.17609E+05
 0.92399994E+02 -0.17605E+05
 0.92449997E+02 -0.17610E+05
 0.92499992E+02 -0.17607E+05
 0.92549995E+02 -0.17599E+05
 0.92599991E+02 -0.17603E+05
 0.92649994E+02 -0.17605E+05
 0.92699997E+02 -0.17609E+05
 0.92749992E+02 -0.17607E+05
 0.92799995E+02 -0.17602E+05
 0.92849991E+02 -0.17599E+05
 0.92899994E+02 -0.17596E+05
 0.92949997E+02 -0.17603E+05
 0.92999992E+02 -0.17605E+05
 0.93049995E+02 -0.17604E+05
 0.93099991E+02 -0.17603E+05
 0.93149994E+02 -0.17594E+05
 0.93199997E+02 -0.17596E+05
 0.93249992E+02 -0.17598E+05
 0.93299995E+02 -0.17596E+05
 0.93349991E+02 -0.17603E+05
 0.93399994E+02 -0.17598E+05
 0.93449997E+02 -0.17597E+05
 0.93499992E+02 -0.17594E+05
 0.93549995E+02 -0.17598E+05
 0.93599991E+02 -0.17608E+05
 0.93649994E+02 -0.17599E+05
 0.93699997E+02 -0.17606E+05
 0.93749992E+02 -0.17597E+05
 0.93799995E+02 -0.17596E+05
 0.93849991E+02 -0.17608E+05
 0.93899994E+02 -0.17603E+05
 0.93949997E+02 -0.17607E+05
 0.93999992E+02 -0.17603E+05
 0.94049995E+02 -0.17600E+05
 0.94099991E+02 -0.17599E+05
 0.94149994E+02 -0.17598E+05
 0.94199997E+02 -0.17600E+05
 0.94249992E+02 -0.17598E+05
 0.94299995E+02 -0.17594E+05
 0.94349991E+02 -0.17593E+05
 0.94399994E+02 -0.17597E+05
 0.94449997E+02 -0.17598E+05
 0.94499992E+02 -0.17602E+05
 0.94549995E+02 -0.17599E+05
 0.94599991E+02 -0.17594E+05
 0.94649994E+02 -0.17594E+05
 0.94699997E+02 -0.17594E+05
 0.94749992E+02 -0.17597E+05
 0.94799995E+02 -0.17598E+05
 0.94849991E+02 -0.17597E+05
 0.94899994E+02 -0.17587E+05
 0.94949997E+02 -0.17587E+05
 0.94999992E+02 -0.17588E+05
 0.95049995E+02 -0.17591E+05
 0.95099991E+02 -0.17597E+05
 0.95149994E+02 -0.17591E+05
 0.95199997E+02 -0.17586E+05
 0.95249992E+02 -0.17584E+05
 0.95299995E+02 -0.17586E+05
 0.95349991E+02 -0.17593E+05
 0.95399994E+02 -0.17595E+05
 0.95449997E+02 -0.17589E+05
 0.95499992E+02 -0.17592E+05
 0.95549995E+02 -0.17590E+05
 0.95599991E+02 -0.17583E+05
 0.95649994E+02 -0.17590E+05
 0.95699997E+02 -0.17596E+05
 0.95749992E+02 -0.17590E+05
 0.95799995E+02 -0.17580E+05
 0.95849991E+02 -0.17588E+05
 0.95899994E+02 -0.17588E+05
 0.95949997E+02 -0.17591E+05
 0.95999992E+02 -0.17596E+05
 0.96049995E+02 -0.17591E+05
 0.96099991E+02 -0.17590E+05
 0.96149994E+02 -0.17589E+05
 0.96199997E+02 -0.17589E+05
 0.96249992E+02 -0.17591E+05
 0.96299995E+02 -0.17595E+05
 0.96349991E+02 -0.17589E+05
 0.96399994E+02 -0.17596E+05
 0.96449997E+02 -0.17596E+05
 0.96499992E+02 -0.17592E+05
 0.96549995E+02 -0.17596E+05
 0.96599991E+02 -0.17593E+05
 0.96649994E+02 -0.17603E+05
 0.96699997E+02 -0.17593E+05
 0.96749992E+02 -0.17595E+05
 0.96799995E+02 -0.17592E+05
 0.96849991E+02 -0.17593E+05
 0.96899994E+02 -0.17599E+05
 0.96949997E+02 -0.17583E+05
 0.96999992E+02 -0.17597E+05
 0.97049995E+02 -0.17595E+05
 0.97099991E+02 -0.17590E+05
 0.97149994E+02 -0.17593E+05
 0.97199997E+02 -0.17585E+05
 0.97249992E+02 -0.17592E+05
 0.97299995E+02 -0.17591E+05
 0.97349991E+02 -0.17591E+05
 0.97399994E+02 -0.17592E+05
 0.97449997E+02 -0.17592E+05
 0.97499992E+02 -0.17588E+05
 0.97549995E+02 -0.17581E+05
 0.97599991E+02 -0.17591E+05
 0.97649994E+02 -0.17590E+05
 0.97699997E+02 -0.17584E+05
 0.97749992E+02 -0.17588E+05
 0.97799995E+02 -0.17582E+05
 0.97849991E+02 -0.17586E+05
 0.97899994E+02 -0.17589E+05
 0.97949997E+02 -0.17581E+05
 0.97999992E+02 -0.17585E+05
 0.98049995E+02 -0.17579E+05
 0.98099991E+02 -0.17581E+05
 0.98149994E+02 -0.17585E+05
 0.98199997E+02 -0.17582E+05
 0.98249992E+02 -0.17597E+05
 0.98299995E+02 -0.17608E+05
 0.98349991E+02 -0.17630E+05
 0.98399994E+02 -0.17654E+05
 0.98449997E+02 -0.17679E+05
 0.98499992E+02 -0.17713E+05
 0.98549995E+02 -0.17751E+05
 0.98599991E+02 -0.17795E+05
 0.98649994E+02 -0.17833E+05
 0.98699997E+02 -0.17870E+05
 0.98749992E+02 -0.17897E+05
 0.98799995E+02 -0.17923E+05
 0.98849991E+02 -0.17946E+05
 0.98899994E+02 -0.17959E+05
 0.98949997E+02 -0.17980E+05
 0.98999992E+02 -0.18005E+05
 0.99049995E+02 -0.18020E+05
 0.99099991E+02 -0.18035E+05
 0.99149994E+02 -0.18038E+05
 0.99199997E+02 -0.17992E+05
 0.99249992E+02 -0.17918E+05
 0.99299995E+02 -0.17828E+05
 0.99349991E+02 -0.17729E+05
 0.99399994E+02 -0.17650E+05
 0.99449997E+02 -0.17581E+05
 0.99499992E+02 -0.17522E+05
 0.99549995E+02 -0.17470E+05
 0.99599991E+02 -0.17387E+05
 0.99649994E+02 -0.17257E+05
 0.99699997E+02 -0.17111E+05
 0.99749992E+02 -0.16996E+05
 0.99799995E+02 -0.16938E+05
 0.99849991E+02 -0.16939E+05
 0.99899994E+02 -0.16987E+05
 0.99949997E+02 -0.17055E+05
 0.99999992E+02 -0.17107E+05
 0.10005000E+03 -0.17116E+05
 0.10009999E+03 -0.17077E+05
 0.10014999E+03 -0.17023E+05
 0.10020000E+03 -0.17001E+05
 0.10024999E+03 -0.17091E+05
 0.10030000E+03 -0.17310E+05
 0.10034999E+03 -0.17603E+05
 0.10039999E+03 -0.17874E+05
 0.10045000E+03 -0.18007E+05
 0.10049999E+03 -0.17984E+05
 0.10055000E+03 -0.17829E+05
 0.10059999E+03 -0.17622E+05
 0.10064999E+03 -0.17492E+05
 0.10070000E+03 -0.17528E+05
 0.10074999E+03 -0.17711E+05
 0.10080000E+03 -0.17919E+05
 0.10084999E+03 -0.18066E+05
 0.10089999E+03 -0.18139E+05
 0.10095000E+03 -0.18136E+05
 0.10099999E+03 -0.18052E+05
 0.10105000E+03 -0.17935E+05
 0.10109999E+03 -0.17841E+05
 0.10114999E+03 -0.17812E+05
 0.10120000E+03 -0.17881E+05
 0.10124999E+03 -0.17970E+05
 0.10130000E+03 -0.18009E+05
 0.10134999E+03 -0.17948E+05
 0.10139999E+03 -0.17810E+05
 0.10145000E+03 -0.17725E+05
 0.10149999E+03 -0.17725E+05
 0.10155000E+03 -0.17807E+05
 0.10159999E+03 -0.17918E+05
 0.10164999E+03 -0.18012E+05
 0.10170000E+03 -0.18099E+05
 0.10174999E+03 -0.18153E+05
 0.10180000E+03 -0.18204E+05
 0.10184999E+03 -0.18293E+05
 0.10189999E+03 -0.18443E+05
 0.10195000E+03 -0.18590E+05
 0.10199999E+03 -0.18600E+05
 0.10205000E+03 -0.18476E+05
 0.10209999E+03 -0.18309E+05
 0.10214999E+03 -0.18220E+05
 0.10220000E+03 -0.18246E+05
 0.10224999E+03 -0.18352E+05
 0.10230000E+03 -0.18534E+05
 0.10234999E+03 -0.18720E+05
 0.10239999E+03 -0.18857E+05
 0.10245000E+03 -0.18909E+05
 0.10249999E+03 -0.18829E+05
 0.10255000E+03 -0.18634E+05
 0.10259999E+03 -0.18387E+05
 0.10264999E+03 -0.18192E+05
 0.10270000E+03 -0.18044E+05
 0.10274999E+03 -0.17861E+05
 0.10280000E+03 -0.17569E+05
 0.10284999E+03 -0.17088E+05
 0.10289999E+03 -0.16518E+05
 0.10295000E+03 -0.16029E+05
 0.10299999E+03 -0.15796E+05
 0.10305000E+03 -0.15904E+05
 0.10309999E+03 -0.16206E+05
 0.10314999E+03 -0.16555E+05
 0.10320000E+03 -0.16854E+05
 0.10324999E+03 -0.17106E+05
 0.10330000E+03 -0.17318E+05
 0.10334999E+03 -0.17381E+05
 0.10339999E+03 -0.17224E+05
 0.10345000E+03 -0.16829E+05
 0.10349999E+03 -0.16316E+05
 0.10355000E+03 -0.15828E+05
 0.10359999E+03 -0.15493E+05
 0.10364999E+03 -0.15482E+05
 0.10370000E+03 -0.15832E+05
 0.10374999E+03 -0.16510E+05
 0.10380000E+03 -0.17435E+05
 0.10384999E+03 -0.18421E+05
 0.10389999E+03 -0.19210E+05
 0.10395000E+03 -0.19581E+05
 0.10399999E+03 -0.19527E+05
 0.10405000E+03 -0.19254E+05
 0.10409999E+03 -0.18856E+05
 0.10414999E+03 -0.18250E+05
 0.10420000E+03 -0.17421E+05
 0.10424999E+03 -0.16423E+05
 0.10430000E+03 -0.15346E+05
 0.10434999E+03 -0.14392E+05
 0.10439999E+03 -0.13932E+05
 0.10445000E+03 -0.14180E+05
 0.10449999E+03 -0.14981E+05
 0.10455000E+03 -0.16038E+05
 0.10459999E+03 -0.17077E+05
 0.10464999E+03 -0.17865E+05
 0.10470000E+03 -0.18187E+05
 0.10474999E+03 -0.18168E+05
 0.10480000E+03 -0.18119E+05
 0.10484999E+03 -0.18093E+05
 0.10489999E+03 -0.17948E+05
 0.10495000E+03 -0.17646E+05
 0.10499999E+03 -0.17366E+05
 0.10505000E+03 -0.17179E+05
 0.10509999E+03 -0.16981E+05
 0.10514999E+03 -0.16756E+05
 0.10520000E+03 -0.16733E+05
 0.10524999E+03 -0.17154E+05
 0.10530000E+03 -0.17863E+05
 0.10534999E+03 -0.18472E+05
 0.10539999E+03 -0.18751E+05
 0.10545000E+03 -0.18708E+05
 0.10549999E+03 -0.18504E+05
 0.10555000E+03 -0.18346E+05
 0.10559999E+03 -0.18281E+05
 0.10564999E+03 -0.18157E+05
 0.10570000E+03 -0.17779E+05
 0.10574999E+03 -0.17140E+05
 0.10580000E+03 -0.16506E+05
 0.10584999E+03 -0.16151E+05
 0.10589999E+03 -0.16178E+05
 0.10595000E+03 -0.16530E+05
 0.10599999E+03 -0.17085E+05
 0.10605000E+03 -0.17731E+05
 0.10609999E+03 -0.18325E+05
 0.10614999E+03 -0.18722E+05
 0.10620000E+03 -0.18758E+05
 0.10624999E+03 -0.18327E+05
 0.10630000E+03 -0.17696E+05
 0.10634999E+03 -0.17346E+05
 0.10639999E+03 -0.17439E+05
 0.10645000E+03 -0.17665E+05
 0.10649999E+03 -0.17561E+05
 0.10655000E+03 -0.16974E+05
 0.10659999E+03 -0.16180E+05
 0.10664999E+03 -0.15666E+05
 0.10670000E+03 -0.15798E+05
 0.10674999E+03 -0.16605E+05
 0.10680000E+03 -0.17691E+05
 0.10684999E+03 -0.18466E+05
 0.10689999E+03 -0.18752E+05
 0.10695000E+03 -0.18738E+05
 0.10699999E+03 -0.18588E+05
 0.10705000E+03 -0.18280E+05
 0.10709999E+03 -0.17695E+05
 0.10714999E+03 -0.16867E+05
 0.10720000E+03 -0.15994E+05
 0.10724999E+03 -0.15303E+05
 0.10730000E+03 -0.14958E+05
 0.10734999E+03 -0.15042E+05
 0.10739999E+03 -0.15497E+05
 0.10745000E+03 -0.16230E+05
 0.10749999E+03 -0.17314E+05
 0.10755000E+03 -0.18747E+05
 0.10759999E+03 -0.20039E+05
 0.10764999E+03 -0.20517E+05
 0.10770000E+03 -0.19952E+05
 0.10774999E+03 -0.18727E+05
 0.10780000E+03 -0.17495E+05
 0.10784999E+03 -0.16742E+05
 0.10789999E+03 -0.16590E+05
 0.10795000E+03 -0.16816E+05
 0.10799999E+03 -0.17113E+05
 0.10805000E+03 -0.17374E+05
 0.10809999E+03 -0.17697E+05
 0.10814999E+03 -0.18133E+05
 0.10820000E+03 -0.18512E+05
 0.10824999E+03 -0.18684E+05
 0.10830000E+03 -0.18699E+05
 0.10834999E+03 -0.18612E+05
 0.10839999E+03 -0.18401E+05
 0.10845000E+03 -0.18071E+05
 0.10849999E+03 -0.17687E+05
 0.10855000E+03 -0.17310E+05
 0.10859999E+03 -0.16937E+05
 0.10864999E+03 -0.16627E+05
 0.10870000E+03 -0.16505E+05
 0.10874999E+03 -0.16621E+05
 0.10880000E+03 -0.16922E+05
 0.10884999E+03 -0.17344E+05
 0.10889999E+03 -0.17870E+05
 0.10895000E+03 -0.18400E+05
 0.10899999E+03 -0.18836E+05
 0.10905000E+03 -0.19227E+05
 0.10909999E+03 -0.19548E+05
 0.10914999E+03 -0.19593E+05
 0.10920000E+03 -0.19296E+05
 0.10924999E+03 -0.18890E+05
 0.10930000E+03 -0.18679E+05
 0.10934999E+03 -0.18770E+05
 0.10939999E+03 -0.19078E+05
 0.10945000E+03 -0.19467E+05
 0.10949999E+03 -0.19764E+05
 0.10955000E+03 -0.19866E+05
 0.10959999E+03 -0.19860E+05
 0.10964999E+03 -0.19865E+05
 0.10970000E+03 -0.19866E+05
 0.10974999E+03 -0.19731E+05
 0.10980000E+03 -0.19371E+05
 0.10984999E+03 -0.18804E+05
 0.10989999E+03 -0.18107E+05
 0.10995000E+03 -0.17386E+05
 0.10999999E+03 -0.16740E+05
 0.11005000E+03 -0.16201E+05
 0.11009999E+03 -0.15797E+05
 0.11014999E+03 -0.15619E+05
 0.11020000E+03 -0.15698E+05
 0.11024999E+03 -0.15952E+05
 0.11030000E+03 -0.16243E+05
 0.11034999E+03 -0.16471E+05
 0.11039999E+03 -0.16660E+05
 0.11045000E+03 -0.16906E+05
 0.11049999E+03 -0.17239E+05
 0.11055000E+03 -0.17581E+05
 0.11059999E+03 -0.17856E+05
 0.11064999E+03 -0.18059E+05
 0.11070000E+03 -0.18196E+05
 0.11074999E+03 -0.18265E+05
 0.11080000E+03 -0.18364E+05
 0.11084999E+03 -0.18583E+05
 0.11089999E+03 -0.18859E+05
 0.11095000E+03 -0.18985E+05
 0.11099999E+03 -0.18812E+05
 0.11105000E+03 -0.18403E+05
 0.11109999E+03 -0.17910E+05
 0.11114999E+03 -0.17516E+05
 0.11120000E+03 -0.17265E+05
 0.11124999E+03 -0.17092E+05
 0.11130000E+03 -0.17011E+05
 0.11134999E+03 -0.17050E+05
 0.11139999E+03 -0.17171E+05
 0.11145000E+03 -0.17275E+05
 0.11149999E+03 -0.17279E+05
 0.11155000E+03 -0.17054E+05
 0.11159999E+03 -0.16594E+05
 0.11164999E+03 -0.16260E+05
 0.11170000E+03 -0.16439E+05
 0.11174999E+03 -0.17096E+05
 0.11180000E+03 -0.17802E+05
 0.11184999E+03 -0.18217E+05
 0.11189999E+03 -0.18302E+05
 0.11195000E+03 -0.18085E+05
 0.11199999E+03 -0.17736E+05
 0.11205000E+03 -0.17494E+05
 0.11209999E+03 -0.17459E+05
 0.11214999E+03 -0.17628E+05
 0.11220000E+03 -0.17914E+05
 0.11224999E+03 -0.18220E+05
 0.11230000E+03 -0.18379E+05
 0.11234999E+03 -0.18269E+05
 0.11239999E+03 -0.18013E+05
 0.11244999E+03 -0.17896E+05
 0.11249999E+03 -0.18134E+05
 0.11255000E+03 -0.18653E+05
 0.11259999E+03 -0.19314E+05
 0.11264999E+03 -0.19963E+05
 0.11269999E+03 -0.20335E+05
 0.11274999E+03 -0.20213E+05
 0.11280000E+03 -0.19490E+05
 0.11284999E+03 -0.18370E+05
 0.11289999E+03 -0.17364E+05
 0.11294999E+03 -0.16886E+05
 0.11299999E+03 -0.16973E+05
 0.11305000E+03 -0.17306E+05
 0.11309999E+03 -0.17496E+05
 0.11314999E+03 -0.17258E+05
 0.11319999E+03 -0.16601E+05
 0.11324999E+03 -0.15796E+05
 0.11330000E+03 -0.15051E+05
 0.11334999E+03 -0.14506E+05
 0.11339999E+03 -0.14343E+05
 0.11344999E+03 -0.14700E+05
 0.11349999E+03 -0.15491E+05
 0.11355000E+03 -0.16417E+05
 0.11359999E+03 -0.17128E+05
 0.11364999E+03 -0.17426E+05
 0.11369999E+03 -0.17398E+05
 0.11374999E+03 -0.17318E+05
 0.11380000E+03 -0.17501E+05
 0.11384999E+03 -0.17860E+05
 0.11389999E+03 -0.17837E+05
 0.11394999E+03 -0.16987E+05
 0.11399999E+03 -0.15373E+05
 0.11405000E+03 -0.13658E+05
 0.11409999E+03 -0.12670E+05
 0.11414999E+03 -0.12865E+05
 0.11419999E+03 -0.14115E+05
 0.11424999E+03 -0.15868E+05
 0.11430000E+03 -0.17686E+05
 0.11434999E+03 -0.19426E+05
 0.11439999E+03 -0.20891E+05
 0.11444999E+03 -0.21430E+05
 0.11449999E+03 -0.20364E+05
 0.11455000E+03 -0.17926E+05
 0.11459999E+03 -0.15115E+05
 0.11464999E+03 -0.12751E+05
 0.11469999E+03 -0.10844E+05
 0.11474999E+03 -0.89330E+04
 0.11480000E+03 -0.69680E+04
 0.11484999E+03 -0.54990E+04
 0.11489999E+03 -0.54010E+04
 0.11494999E+03 -0.74200E+04
 0.11499999E+03 -0.11616E+05
 0.11505000E+03 -0.17222E+05
 0.11509999E+03 -0.22959E+05
 0.11514999E+03 -0.27579E+05
 0.11519999E+03 -0.30271E+05
 0.11524999E+03 -0.30745E+05
 0.11530000E+03 -0.29139E+05
 0.11534999E+03 -0.25938E+05
 0.11539999E+03 -0.21979E+05
 0.11544999E+03 -0.18339E+05
 0.11549999E+03 -0.15847E+05
 0.11555000E+03 -0.14661E+05
 0.11559999E+03 -0.14450E+05
 0.11564999E+03 -0.14917E+05
 0.11569999E+03 -0.16106E+05
 0.11574999E+03 -0.18182E+05
 0.11580000E+03 -0.20991E+05
 0.11584999E+03 -0.23850E+05
 0.11589999E+03 -0.25907E+05
 0.11594999E+03 -0.26652E+05
 0.11599999E+03 -0.26048E+05
 0.11605000E+03 -0.24423E+05
 0.11609999E+03 -0.22150E+05
 0.11614999E+03 -0.19655E+05
 0.11619999E+03 -0.17508E+05
 0.11624999E+03 -0.16379E+05
 0.11630000E+03 -0.16747E+05
 0.11634999E+03 -0.18547E+05
 0.11639999E+03 -0.21242E+05
 0.11644999E+03 -0.23870E+05
 0.11649999E+03 -0.25317E+05
 0.11655000E+03 -0.24764E+05
 0.11659999E+03 -0.22037E+05
 0.11664999E+03 -0.17658E+05
 0.11669999E+03 -0.12526E+05
 0.11674999E+03 -0.76610E+04
 0.11680000E+03 -0.40050E+04
 0.11684999E+03 -0.23780E+04
 0.11689999E+03 -0.32890E+04
 0.11694999E+03 -0.67610E+04
 0.11699999E+03 -0.12233E+05
 0.11705000E+03 -0.18421E+05
 0.11709999E+03 -0.23782E+05
 0.11714999E+03 -0.27113E+05
 0.11719999E+03 -0.27927E+05
 0.11724999E+03 -0.26290E+05
 0.11730000E+03 -0.22421E+05
 0.11734999E+03 -0.16707E+05
 0.11739999E+03 -0.97410E+04
 0.11744999E+03 -0.26400E+04
 0.11749999E+03  0.31570E+04
 0.11755000E+03  0.64850E+04
 0.11759999E+03  0.65120E+04
 0.11764999E+03  0.31650E+04
 0.11769999E+03 -0.29330E+04
 0.11774999E+03 -0.10981E+05
 0.11780000E+03 -0.19907E+05
 0.11784999E+03 -0.28223E+05
 0.11789999E+03 -0.34404E+05
 0.11794999E+03 -0.37343E+05
 0.11799999E+03 -0.36703E+05
 0.11805000E+03 -0.33005E+05
 0.11809999E+03 -0.27301E+05
 0.11814999E+03 -0.20835E+05
 0.11819999E+03 -0.14709E+05
 0.11824999E+03 -0.98460E+04
 0.11830000E+03 -0.71420E+04
 0.11834999E+03 -0.72400E+04
 0.11839999E+03 -0.10056E+05
 0.11844999E+03 -0.14634E+05
 0.11849999E+03 -0.19667E+05
 0.11855000E+03 -0.24112E+05
 0.11859999E+03 -0.27240E+05
 0.11864999E+03 -0.28430E+05
 0.11869999E+03 -0.27554E+05
 0.11874999E+03 -0.25363E+05
 0.11880000E+03 -0.23015E+05
 0.11884999E+03 -0.21390E+05
 0.11889999E+03 -0.20668E+05
 0.11894999E+03 -0.20556E+05
 0.11899999E+03 -0.20918E+05
 0.11905000E+03 -0.21815E+05
 0.11909999E+03 -0.23196E+05
 0.11914999E+03 -0.24808E+05
 0.11919999E+03 -0.26154E+05
 0.11924999E+03 -0.26729E+05
 0.11930000E+03 -0.26455E+05
 0.11934999E+03 -0.25208E+05
 0.11939999E+03 -0.22408E+05
 0.11944999E+03 -0.17841E+05
 0.11949999E+03 -0.12352E+05
 0.11955000E+03 -0.73690E+04
 0.11959999E+03 -0.40350E+04
 0.11964999E+03 -0.30970E+04
 0.11969999E+03 -0.45910E+04
 0.11974999E+03 -0.79760E+04
 0.11980000E+03 -0.12664E+05
 0.11984999E+03 -0.17742E+05
 0.11989999E+03 -0.22115E+05
 0.11994999E+03 -0.24859E+05
 0.11999999E+03 -0.25581E+05
 0.12005000E+03 -0.24336E+05
 0.12009999E+03 -0.21514E+05
 0.12014999E+03 -0.17920E+05
 0.12019999E+03 -0.14504E+05
 0.12024999E+03 -0.12162E+05
 0.12030000E+03 -0.11260E+05
 0.12034999E+03 -0.11732E+05
 0.12039999E+03 -0.13357E+05
 0.12044999E+03 -0.15875E+05
 0.12049999E+03 -0.18442E+05
 0.12055000E+03 -0.20097E+05
 0.12059999E+03 -0.20940E+05
 0.12064999E+03 -0.21435E+05
 0.12069999E+03 -0.21745E+05
 0.12074999E+03 -0.21621E+05
 0.12080000E+03 -0.20698E+05
 0.12084999E+03 -0.18888E+05
 0.12089999E+03 -0.16467E+05
 0.12094999E+03 -0.13963E+05
 0.12099999E+03 -0.12159E+05
 0.12105000E+03 -0.11706E+05
 0.12109999E+03 -0.12407E+05
 0.12114999E+03 -0.13674E+05
 0.12119999E+03 -0.14906E+05
 0.12124999E+03 -0.16011E+05
 0.12130000E+03 -0.17279E+05
 0.12134999E+03 -0.18599E+05
 0.12139999E+03 -0.19743E+05
 0.12144999E+03 -0.20644E+05
 0.12149999E+03 -0.21274E+05
 0.12155000E+03 -0.21387E+05
 0.12159999E+03 -0.20873E+05
 0.12164999E+03 -0.19989E+05
 0.12169999E+03 -0.18850E+05
 0.12174999E+03 -0.17620E+05
 0.12180000E+03 -0.16627E+05
 0.12184999E+03 -0.16103E+05
 0.12189999E+03 -0.16003E+05
 0.12194999E+03 -0.15816E+05
 0.12199999E+03 -0.15287E+05
 0.12205000E+03 -0.14768E+05
 0.12209999E+03 -0.14773E+05
 0.12214999E+03 -0.15607E+05
 0.12219999E+03 -0.17288E+05
 0.12224999E+03 -0.19752E+05
 0.12230000E+03 -0.22559E+05
 0.12234999E+03 -0.24905E+05
 0.12239999E+03 -0.25879E+05
 0.12244999E+03 -0.24864E+05
 0.12249999E+03 -0.21964E+05
 0.12255000E+03 -0.17894E+05
 0.12259999E+03 -0.13928E+05
 0.12264999E+03 -0.11337E+05
 0.12269999E+03 -0.10732E+05
 0.12274999E+03 -0.11830E+05
 0.12280000E+03 -0.13571E+05
 0.12284999E+03 -0.15020E+05
 0.12289999E+03 -0.16048E+05
 0.12294999E+03 -0.17184E+05
 0.12299999E+03 -0.18869E+05
 0.12305000E+03 -0.20787E+05
 0.12309999E+03 -0.22058E+05
 0.12314999E+03 -0.22211E+05
 0.12319999E+03 -0.21721E+05
 0.12324999E+03 -0.21245E+05
 0.12330000E+03 -0.21101E+05
 0.12334999E+03 -0.20966E+05
 0.12339999E+03 -0.20271E+05
 0.12344999E+03 -0.18985E+05
 0.12349999E+03 -0.17430E+05
 0.12355000E+03 -0.16272E+05
 0.12359999E+03 -0.15944E+05
 0.12364999E+03 -0.16125E+05
 0.12369999E+03 -0.16123E+05
 0.12374999E+03 -0.15553E+05
 0.12380000E+03 -0.14800E+05
 0.12384999E+03 -0.14347E+05
 0.12389999E+03 -0.14155E+05
 0.12394999E+03 -0.13689E+05
 0.12399999E+03 -0.12758E+05
 0.12405000E+03 -0.11921E+05
 0.12409999E+03 -0.11905E+05
 0.12414999E+03 -0.13020E+05
 0.12419999E+03 -0.14723E+05
 0.12424999E+03 -0.16298E+05
 0.12430000E+03 -0.17493E+05
 0.12434999E+03 -0.18423E+05
 0.12439999E+03 -0.19094E+05
 0.12444999E+03 -0.19024E+05
 0.12449999E+03 -0.17985E+05
 0.12455000E+03 -0.16482E+05
 0.12459999E+03 -0.15440E+05
 0.12464999E+03 -0.15361E+05
 0.12469999E+03 -0.15997E+05
 0.12474999E+03 -0.16800E+05
 0.12480000E+03 -0.17356E+05
 0.12484999E+03 -0.17347E+05
 0.12489999E+03 -0.16559E+05
 0.12494999E+03 -0.15309E+05
 0.12499999E+03 -0.14068E+05
 0.12504999E+03 -0.13349E+05
 0.12509999E+03 -0.13572E+05
 0.12514999E+03 -0.14750E+05
 0.12520000E+03 -0.16901E+05
 0.12524998E+03 -0.19803E+05
 0.12529999E+03 -0.22893E+05
 0.12534999E+03 -0.25262E+05
 0.12539999E+03 -0.25950E+05
 0.12545000E+03 -0.24797E+05
 0.12549998E+03 -0.22590E+05
 0.12554999E+03 -0.20411E+05
 0.12559999E+03 -0.18825E+05
 0.12564999E+03 -0.17650E+05
 0.12570000E+03 -0.16311E+05
 0.12574998E+03 -0.14751E+05
 0.12579999E+03 -0.13763E+05
 0.12584999E+03 -0.14105E+05
 0.12589999E+03 -0.15798E+05
 0.12595000E+03 -0.18330E+05
 0.12599998E+03 -0.21106E+05
 0.12604999E+03 -0.23502E+05
 0.12609999E+03 -0.24887E+05
 0.12614999E+03 -0.24827E+05
 0.12620000E+03 -0.23497E+05
 0.12624998E+03 -0.21590E+05
 0.12629999E+03 -0.19785E+05
 0.12634999E+03 -0.18464E+05
 0.12639999E+03 -0.17324E+05
 0.12645000E+03 -0.15791E+05
 0.12649998E+03 -0.13948E+05
 0.12654999E+03 -0.12313E+05
 0.12659999E+03 -0.11170E+05
 0.12664999E+03 -0.10611E+05
 0.12670000E+03 -0.10810E+05
 0.12674998E+03 -0.11996E+05
 0.12679999E+03 -0.14058E+05
 0.12684999E+03 -0.16479E+05
 0.12689999E+03 -0.18539E+05
 0.12695000E+03 -0.19425E+05
 0.12699998E+03 -0.18805E+05
 0.12704999E+03 -0.17211E+05
 0.12709999E+03 -0.15866E+05
 0.12714999E+03 -0.15691E+05
 0.12720000E+03 -0.16539E+05
 0.12724998E+03 -0.17804E+05
 0.12729999E+03 -0.18885E+05
 0.12734999E+03 -0.19493E+05
 0.12739999E+03 -0.19809E+05
 0.12745000E+03 -0.20290E+05
 0.12749998E+03 -0.21095E+05
 0.12754999E+03 -0.21706E+05
 0.12759999E+03 -0.21591E+05
 0.12764999E+03 -0.20723E+05
 0.12770000E+03 -0.19568E+05
 0.12774998E+03 -0.18463E+05
 0.12779999E+03 -0.17233E+05
 0.12784999E+03 -0.15877E+05
 0.12789999E+03 -0.14740E+05
 0.12795000E+03 -0.14259E+05
 0.12799998E+03 -0.14683E+05
 0.12804999E+03 -0.15863E+05
 0.12809999E+03 -0.17452E+05
 0.12814999E+03 -0.19031E+05
 0.12820000E+03 -0.20314E+05
 0.12824998E+03 -0.21117E+05
 0.12829999E+03 -0.21049E+05
 0.12834999E+03 -0.19719E+05
 0.12839999E+03 -0.17334E+05
 0.12845000E+03 -0.14810E+05
 0.12849998E+03 -0.13025E+05
 0.12854999E+03 -0.12172E+05
 0.12859999E+03 -0.11989E+05
 0.12864999E+03 -0.12488E+05
 0.12870000E+03 -0.13966E+05
 0.12874998E+03 -0.16354E+05
 0.12879999E+03 -0.19030E+05
 0.12884999E+03 -0.21208E+05
 0.12889999E+03 -0.22401E+05
 0.12895000E+03 -0.22456E+05
 0.12899998E+03 -0.21441E+05
 0.12904999E+03 -0.19593E+05
 0.12909999E+03 -0.17273E+05
 0.12914999E+03 -0.15098E+05
 0.12920000E+03 -0.13732E+05
 0.12924998E+03 -0.13603E+05
 0.12929999E+03 -0.14771E+05
 0.12934999E+03 -0.16932E+05
 0.12939999E+03 -0.19541E+05
 0.12945000E+03 -0.21913E+05
 0.12949998E+03 -0.23542E+05
 0.12954999E+03 -0.24175E+05
 0.12959999E+03 -0.23847E+05
 0.12964999E+03 -0.22743E+05
 0.12970000E+03 -0.21087E+05
 0.12974998E+03 -0.19318E+05
 0.12979999E+03 -0.17829E+05
 0.12984999E+03 -0.16723E+05
 0.12989999E+03 -0.16002E+05
 0.12995000E+03 -0.15766E+05
 0.12999998E+03 -0.16105E+05
 0.13004999E+03 -0.17021E+05
 0.13009999E+03 -0.18277E+05
 0.13014999E+03 -0.19430E+05
 0.13020000E+03 -0.20309E+05
 0.13024998E+03 -0.20952E+05
 0.13029999E+03 -0.21415E+05
 0.13034999E+03 -0.21807E+05
 0.13039999E+03 -0.22034E+05
 0.13045000E+03 -0.21691E+05
 0.13049998E+03 -0.20519E+05
 0.13054999E+03 -0.18761E+05
 0.13059999E+03 -0.16906E+05
 0.13064999E+03 -0.15319E+05
 0.13070000E+03 -0.14072E+05
 0.13074998E+03 -0.13163E+05
 0.13079999E+03 -0.12678E+05
 0.13084999E+03 -0.12831E+05
 0.13089999E+03 -0.13815E+05
 0.13095000E+03 -0.15479E+05
 0.13099998E+03 -0.17315E+05
 0.13104999E+03 -0.18668E+05
 0.13109999E+03 -0.19068E+05
 0.13114999E+03 -0.18365E+05
 0.13120000E+03 -0.16902E+05
 0.13124998E+03 -0.15337E+05
 0.13129999E+03 -0.14290E+05
 0.13134999E+03 -0.14196E+05
 0.13139999E+03 -0.14964E+05
 0.13145000E+03 -0.16186E+05
 0.13149998E+03 -0.17415E+05
 0.13154999E+03 -0.18356E+05
 0.13159999E+03 -0.19060E+05
 0.13164999E+03 -0.19674E+05
 0.13170000E+03 -0.20172E+05
 0.13174998E+03 -0.20211E+05
 0.13179999E+03 -0.19433E+05
 0.13184999E+03 -0.17863E+05
 0.13189999E+03 -0.15979E+05
 0.13195000E+03 -0.14449E+05
 0.13199998E+03 -0.13648E+05
 0.13204999E+03 -0.13653E+05
 0.13209999E+03 -0.14509E+05
 0.13214999E+03 -0.16230E+05
 0.13220000E+03 -0.18478E+05
 0.13224998E+03 -0.20617E+05
 0.13229999E+03 -0.22128E+05
 0.13234999E+03 -0.22573E+05
 0.13239999E+03 -0.21800E+05
 0.13245000E+03 -0.20037E+05
 0.13249998E+03 -0.17594E+05
 0.13254999E+03 -0.14920E+05
 0.13259999E+03 -0.12636E+05
 0.13264999E+03 -0.11229E+05
 0.13270000E+03 -0.10748E+05
 0.13274998E+03 -0.10975E+05
 0.13279999E+03 -0.11737E+05
 0.13284999E+03 -0.13024E+05
 0.13289999E+03 -0.14874E+05
 0.13295000E+03 -0.17121E+05
 0.13299998E+03 -0.19560E+05
 0.13304999E+03 -0.21837E+05
 0.13309999E+03 -0.23452E+05
 0.13314999E+03 -0.24023E+05
 0.13320000E+03 -0.23334E+05
 0.13324998E+03 -0.21619E+05
 0.13329999E+03 -0.19321E+05
 0.13334999E+03 -0.17061E+05
 0.13339999E+03 -0.15424E+05
 0.13345000E+03 -0.14412E+05
 0.13349998E+03 -0.13852E+05
 0.13354999E+03 -0.13714E+05
 0.13359999E+03 -0.14240E+05
 0.13364999E+03 -0.15649E+05
 0.13370000E+03 -0.17703E+05
 0.13374998E+03 -0.19712E+05
 0.13379999E+03 -0.21010E+05
 0.13384999E+03 -0.21524E+05
 0.13389999E+03 -0.21418E+05
 0.13395000E+03 -0.20826E+05
 0.13399998E+03 -0.19706E+05
 0.13404999E+03 -0.17937E+05
 0.13409999E+03 -0.15803E+05
 0.13414999E+03 -0.14013E+05
 0.13420000E+03 -0.13299E+05
 0.13424998E+03 -0.13767E+05
 0.13429999E+03 -0.15007E+05
 0.13434999E+03 -0.16571E+05
 0.13439999E+03 -0.18133E+05
 0.13445000E+03 -0.19399E+05
 0.13449998E+03 -0.19917E+05
 0.13454999E+03 -0.19555E+05
 0.13459999E+03 -0.18759E+05
 0.13464999E+03 -0.18034E+05
 0.13470000E+03 -0.17545E+05
 0.13474998E+03 -0.17032E+05
 0.13479999E+03 -0.16171E+05
 0.13484999E+03 -0.15006E+05
 0.13489999E+03 -0.14012E+05
 0.13495000E+03 -0.13639E+05
 0.13499998E+03 -0.13830E+05
 0.13504999E+03 -0.14328E+05
 0.13509999E+03 -0.15110E+05
 0.13514999E+03 -0.16279E+05
 0.13520000E+03 -0.17635E+05
 0.13524998E+03 -0.18684E+05
 0.13529999E+03 -0.19067E+05
 0.13534999E+03 -0.18818E+05
 0.13539999E+03 -0.18139E+05
 0.13545000E+03 -0.17160E+05
 0.13549998E+03 -0.16072E+05
 0.13554999E+03 -0.15099E+05
 0.13559999E+03 -0.14427E+05
 0.13564999E+03 -0.14221E+05
 0.13570000E+03 -0.14667E+05
 0.13574998E+03 -0.15834E+05
 0.13579999E+03 -0.17301E+05
 0.13584999E+03 -0.18319E+05
 0.13589999E+03 -0.18585E+05
 0.13595000E+03 -0.18228E+05
 0.13599998E+03 -0.17501E+05
 0.13604999E+03 -0.16737E+05
 0.13609999E+03 -0.16146E+05
 0.13614999E+03 -0.15681E+05
 0.13620000E+03 -0.15182E+05
 0.13624998E+03 -0.14827E+05
 0.13629999E+03 -0.14875E+05
 0.13634999E+03 -0.15358E+05
 0.13639999E+03 -0.16139E+05
 0.13645000E+03 -0.16977E+05
 0.13649998E+03 -0.17742E+05
 0.13654999E+03 -0.18343E+05
 0.13659999E+03 -0.18779E+05
 0.13664999E+03 -0.19025E+05
 0.13670000E+03 -0.18966E+05
 0.13674998E+03 -0.18598E+05
 0.13679999E+03 -0.18064E+05
 0.13684999E+03 -0.17610E+05
 0.13689999E+03 -0.17381E+05
 0.13695000E+03 -0.17345E+05
 0.13699998E+03 -0.17509E+05
 0.13704999E+03 -0.17965E+05
 0.13709999E+03 -0.18780E+05
 0.13714999E+03 -0.19936E+05
 0.13720000E+03 -0.21362E+05
 0.13724998E+03 -0.22987E+05
 0.13729999E+03 -0.24545E+05
 0.13734999E+03 -0.25637E+05
 0.13739999E+03 -0.25837E+05
 0.13745000E+03 -0.24889E+05
 0.13749998E+03 -0.23050E+05
 0.13754999E+03 -0.20895E+05
 0.13759999E+03 -0.18990E+05
 0.13764999E+03 -0.17607E+05
 0.13770000E+03 -0.16861E+05
 0.13774998E+03 -0.16850E+05
 0.13779999E+03 -0.17495E+05
 0.13784999E+03 -0.18300E+05
 0.13789999E+03 -0.18570E+05
 0.13795000E+03 -0.18119E+05
 0.13799998E+03 -0.17314E+05
 0.13804999E+03 -0.16454E+05
 0.13809999E+03 -0.15601E+05
 0.13814999E+03 -0.14884E+05
 0.13820000E+03 -0.14417E+05
 0.13824998E+03 -0.14358E+05
 0.13829999E+03 -0.14675E+05
 0.13834999E+03 -0.15242E+05
 0.13839999E+03 -0.16081E+05
 0.13845000E+03 -0.16956E+05
 0.13849998E+03 -0.17673E+05
 0.13854999E+03 -0.18351E+05
 0.13859999E+03 -0.19004E+05
 0.13864999E+03 -0.19235E+05
 0.13870000E+03 -0.18724E+05
 0.13874998E+03 -0.17561E+05
 0.13879999E+03 -0.16204E+05
 0.13884999E+03 -0.15287E+05
 0.13889999E+03 -0.15243E+05
 0.13895000E+03 -0.16176E+05
 0.13899998E+03 -0.17813E+05
 0.13904999E+03 -0.19745E+05
 0.13909999E+03 -0.21702E+05
 0.13914999E+03 -0.23602E+05
 0.13920000E+03 -0.25285E+05
 0.13924998E+03 -0.26377E+05
 0.13929999E+03 -0.26551E+05
 0.13934999E+03 -0.25713E+05
 0.13939999E+03 -0.23884E+05
 0.13945000E+03 -0.21327E+05
 0.13949998E+03 -0.18611E+05
 0.13954999E+03 -0.16453E+05
 0.13959999E+03 -0.15286E+05
 0.13964999E+03 -0.14963E+05
 0.13970000E+03 -0.15134E+05
 0.13974998E+03 -0.15462E+05
 0.13979999E+03 -0.15883E+05
 0.13984999E+03 -0.16346E+05
 0.13989999E+03 -0.16717E+05
 0.13995000E+03 -0.16908E+05
 0.13999998E+03 -0.16803E+05
 0.14004999E+03 -0.16505E+05
 0.14009999E+03 -0.16207E+05
 0.14014999E+03 -0.16153E+05
 0.14020000E+03 -0.16388E+05
 0.14024998E+03 -0.16719E+05
 0.14029999E+03 -0.16997E+05
 0.14034999E+03 -0.17174E+05
 0.14039999E+03 -0.17284E+05
 0.14045000E+03 -0.17305E+05
 0.14049998E+03 -0.17309E+05
 0.14054999E+03 -0.17341E+05
 0.14059999E+03 -0.17293E+05
 0.14064999E+03 -0.17140E+05
 0.14070000E+03 -0.17079E+05
 0.14074998E+03 -0.17223E+05
 0.14079999E+03 -0.17349E+05
 0.14084999E+03 -0.17271E+05
 0.14089999E+03 -0.17019E+05
 0.14095000E+03 -0.16820E+05
 0.14099998E+03 -0.16826E+05
 0.14104999E+03 -0.16928E+05
 0.14109999E+03 -0.17018E+05
 0.14114999E+03 -0.17010E+05
 0.14120000E+03 -0.16826E+05
 0.14124998E+03 -0.16275E+05
 0.14129999E+03 -0.15195E+05
 0.14134999E+03 -0.13704E+05
 0.14139999E+03 -0.12221E+05
 0.14145000E+03 -0.11415E+05
 0.14149998E+03 -0.11682E+05
 0.14154999E+03 -0.12881E+05
 0.14159999E+03 -0.14553E+05
 0.14164999E+03 -0.16305E+05
 0.14170000E+03 -0.17900E+05
 0.14174998E+03 -0.19196E+05
 0.14179999E+03 -0.19961E+05
 0.14184999E+03 -0.19707E+05
 0.14189999E+03 -0.18418E+05
 0.14195000E+03 -0.16794E+05
 0.14199998E+03 -0.15758E+05
 0.14204999E+03 -0.15624E+05
 0.14209999E+03 -0.15970E+05
 0.14214999E+03 -0.16254E+05
 0.14220000E+03 -0.16155E+05
 0.14224998E+03 -0.15996E+05
 0.14229999E+03 -0.16230E+05
 0.14234999E+03 -0.17025E+05
 0.14239999E+03 -0.18203E+05
 0.14245000E+03 -0.19413E+05
 0.14249998E+03 -0.20328E+05
 0.14254999E+03 -0.20668E+05
 0.14259999E+03 -0.20319E+05
 0.14264999E+03 -0.19303E+05
 0.14270000E+03 -0.17948E+05
 0.14274998E+03 -0.16545E+05
 0.14279999E+03 -0.15420E+05
 0.14284999E+03 -0.14900E+05
 0.14289999E+03 -0.14914E+05
 0.14295000E+03 -0.15164E+05
 0.14299998E+03 -0.15383E+05
 0.14304999E+03 -0.15518E+05
 0.14309999E+03 -0.15643E+05
 0.14314999E+03 -0.15913E+05
 0.14320000E+03 -0.16508E+05
 0.14324998E+03 -0.17389E+05
 0.14329999E+03 -0.17992E+05
 0.14334999E+03 -0.17747E+05
 0.14339999E+03 -0.16937E+05
 0.14345000E+03 -0.16473E+05
 0.14349998E+03 -0.16821E+05
 0.14354999E+03 -0.17434E+05
 0.14359999E+03 -0.17600E+05
 0.14364999E+03 -0.17226E+05
 0.14370000E+03 -0.16633E+05
 0.14374998E+03 -0.16231E+05
 0.14379999E+03 -0.16097E+05
 0.14384999E+03 -0.16053E+05
 0.14389999E+03 -0.16042E+05
 0.14395000E+03 -0.16123E+05
 0.14399998E+03 -0.16330E+05
 0.14404999E+03 -0.16503E+05
 0.14409999E+03 -0.16608E+05
 0.14414999E+03 -0.16773E+05
 0.14420000E+03 -0.17187E+05
 0.14424998E+03 -0.17872E+05
 0.14429999E+03 -0.18479E+05
 0.14434999E+03 -0.18690E+05
 0.14439999E+03 -0.18463E+05
 0.14445000E+03 -0.18124E+05
 0.14449998E+03 -0.18055E+05
 0.14454999E+03 -0.18380E+05
 0.14459999E+03 -0.18850E+05
 0.14464999E+03 -0.19247E+05
 0.14470000E+03 -0.19732E+05
 0.14474998E+03 -0.20400E+05
 0.14479999E+03 -0.21125E+05
 0.14484999E+03 -0.21695E+05
 0.14489999E+03 -0.21924E+05
 0.14495000E+03 -0.21656E+05
 0.14499998E+03 -0.20980E+05
 0.14504999E+03 -0.20195E+05
 0.14509999E+03 -0.19487E+05
 0.14514999E+03 -0.18887E+05
 0.14520000E+03 -0.18293E+05
 0.14524998E+03 -0.17818E+05
 0.14529999E+03 -0.17804E+05
 0.14534999E+03 -0.18306E+05
 0.14539999E+03 -0.18850E+05
 0.14545000E+03 -0.18948E+05
 0.14549998E+03 -0.18662E+05
 0.14554999E+03 -0.18406E+05
 0.14559999E+03 -0.18580E+05
 0.14564999E+03 -0.19237E+05
 0.14570000E+03 -0.19910E+05
 0.14574998E+03 -0.20095E+05
 0.14579999E+03 -0.19720E+05
 0.14584999E+03 -0.19110E+05
 0.14589999E+03 -0.18673E+05
 0.14595000E+03 -0.18409E+05
 0.14599998E+03 -0.17950E+05
 0.14604999E+03 -0.17139E+05
 0.14609999E+03 -0.16081E+05
 0.14614999E+03 -0.15021E+05
 0.14620000E+03 -0.14219E+05
 0.14624998E+03 -0.13873E+05
 0.14629999E+03 -0.14163E+05
 0.14634999E+03 -0.14949E+05
 0.14639999E+03 -0.15822E+05
 0.14645000E+03 -0.16495E+05
 0.14649998E+03 -0.16919E+05
 0.14654999E+03 -0.17173E+05
 0.14659999E+03 -0.17285E+05
 0.14664999E+03 -0.17245E+05
 0.14670000E+03 -0.16955E+05
 0.14674998E+03 -0.16420E+05
 0.14679999E+03 -0.15909E+05
 0.14684999E+03 -0.15712E+05
 0.14689999E+03 -0.15934E+05
 0.14695000E+03 -0.16387E+05
 0.14699998E+03 -0.16935E+05
 0.14704999E+03 -0.17708E+05
 0.14709999E+03 -0.18709E+05
 0.14714999E+03 -0.19659E+05
 0.14720000E+03 -0.20148E+05
 0.14724998E+03 -0.19948E+05
 0.14729999E+03 -0.19241E+05
 0.14734999E+03 -0.18454E+05
 0.14739999E+03 -0.17907E+05
 0.14745000E+03 -0.17568E+05
 0.14749998E+03 -0.17337E+05
 0.14754999E+03 -0.17237E+05
 0.14759999E+03 -0.17399E+05
 0.14764999E+03 -0.17937E+05
 0.14770000E+03 -0.18659E+05
 0.14774998E+03 -0.19311E+05
 0.14779999E+03 -0.19827E+05
 0.14784999E+03 -0.20373E+05
 0.14789999E+03 -0.21077E+05
 0.14795000E+03 -0.21678E+05
 0.14799998E+03 -0.21669E+05
 0.14804999E+03 -0.20687E+05
 0.14809999E+03 -0.18858E+05
 0.14814999E+03 -0.16706E+05
 0.14820000E+03 -0.14949E+05
 0.14824998E+03 -0.14087E+05
 0.14829999E+03 -0.14133E+05
 0.14834999E+03 -0.14881E+05
 0.14839999E+03 -0.15996E+05
 0.14845000E+03 -0.17030E+05
 0.14849998E+03 -0.17627E+05
 0.14854999E+03 -0.17766E+05
 0.14859999E+03 -0.17714E+05
 0.14864999E+03 -0.17612E+05
 0.14870000E+03 -0.17420E+05
 0.14874998E+03 -0.17102E+05
 0.14879999E+03 -0.16636E+05
 0.14884999E+03 -0.16020E+05
 0.14889999E+03 -0.15310E+05
 0.14895000E+03 -0.14620E+05
 0.14899998E+03 -0.14070E+05
 0.14904999E+03 -0.13843E+05
 0.14909999E+03 -0.14246E+05
 0.14914999E+03 -0.15412E+05
 0.14920000E+03 -0.17106E+05
 0.14924998E+03 -0.18766E+05
 0.14929999E+03 -0.19698E+05
 0.14934999E+03 -0.19549E+05
 0.14939999E+03 -0.18550E+05
 0.14945000E+03 -0.17337E+05
 0.14949998E+03 -0.16438E+05
 0.14954999E+03 -0.15882E+05
 0.14959999E+03 -0.15529E+05
 0.14964999E+03 -0.15415E+05
 0.14970000E+03 -0.15600E+05
 0.14974998E+03 -0.15978E+05
 0.14979999E+03 -0.16423E+05
 0.14984999E+03 -0.16973E+05
 0.14989999E+03 -0.17664E+05
 0.14995000E+03 -0.18398E+05
