-0.29800000E+01 -0.18138E+05
-0.29300001E+01 -0.18220E+05
-0.28800001E+01 -0.19929E+05
-0.28299999E+01 -0.20879E+05
-0.27800000E+01 -0.19845E+05
-0.27300000E+01 -0.15072E+05
-0.26800001E+01 -0.11380E+05
-0.26300001E+01 -0.10134E+05
-0.25799999E+01 -0.75770E+04
-0.25300000E+01 -0.21000E+04
-0.24800000E+01  0.57110E+04
-0.24300001E+01  0.98880E+04
-0.23800001E+01  0.74190E+04
-0.23299999E+01  0.40860E+04
-0.22800000E+01  0.40250E+04
-0.22300000E+01  0.57150E+04
-0.21800001E+01  0.78760E+04
-0.21300001E+01  0.91700E+04
-0.20799999E+01  0.10318E+05
-0.20300000E+01  0.11486E+05
-0.19800000E+01  0.11487E+05
-0.19299999E+01  0.92530E+04
-0.18800000E+01  0.59130E+04
-0.18300000E+01  0.65880E+04
-0.17800000E+01  0.11403E+05
-0.17300000E+01  0.16223E+05
-0.16799999E+01  0.19417E+05
-0.16300000E+01  0.20855E+05
-0.15800000E+01  0.20453E+05
-0.15300000E+01  0.19531E+05
-0.14800000E+01  0.20503E+05
-0.14299999E+01  0.24045E+05
-0.13800000E+01  0.27346E+05
-0.13300000E+01  0.29575E+05
-0.12800000E+01  0.28840E+05
-0.12300000E+01  0.25071E+05
-0.11799999E+01  0.22141E+05
-0.11300000E+01  0.20043E+05
-0.10800000E+01  0.21091E+05
-0.10300000E+01  0.24636E+05
-0.98000002E+00  0.27391E+05
-0.93000007E+00  0.28608E+05
-0.87999988E+00  0.29019E+05
-0.82999992E+00  0.28802E+05
-0.77999997E+00  0.25391E+05
-0.73000002E+00  0.20107E+05
-0.68000007E+00  0.14760E+05
-0.62999988E+00  0.11839E+05
-0.57999992E+00  0.11686E+05
-0.52999997E+00  0.10805E+05
-0.48000002E+00  0.65340E+04
-0.43000007E+00 -0.10740E+04
-0.37999988E+00 -0.71260E+04
-0.32999992E+00 -0.12106E+05
-0.27999997E+00 -0.17851E+05
-0.23000002E+00 -0.22515E+05
-0.18000007E+00 -0.26134E+05
-0.12999988E+00 -0.28480E+05
-0.79999924E-01 -0.30801E+05
-0.29999971E-01 -0.32386E+05
 0.19999981E-01 -0.29941E+05
 0.69999933E-01 -0.27498E+05
 0.12000012E+00 -0.28935E+05
 0.17000008E+00 -0.31600E+05
 0.22000003E+00 -0.34902E+05
 0.26999998E+00 -0.36111E+05
 0.31999993E+00 -0.35315E+05
 0.37000012E+00 -0.38137E+05
 0.42000008E+00 -0.44749E+05
 0.47000003E+00 -0.52017E+05
 0.51999998E+00 -0.56270E+05
 0.56999993E+00 -0.56184E+05
 0.62000012E+00 -0.54256E+05
 0.67000008E+00 -0.55125E+05
 0.72000003E+00 -0.57743E+05
 0.76999998E+00 -0.56267E+05
 0.81999993E+00 -0.52169E+05
 0.87000012E+00 -0.49111E+05
 0.92000008E+00 -0.46678E+05
 0.97000003E+00 -0.41643E+05
 0.10200000E+01 -0.30531E+05
 0.10700002E+01 -0.18784E+05
 0.11199999E+01 -0.14213E+05
 0.11700001E+01 -0.14820E+05
 0.12200003E+01 -0.17455E+05
 0.12700000E+01 -0.18562E+05
 0.13200002E+01 -0.19363E+05
 0.13699999E+01 -0.22147E+05
 0.14200001E+01 -0.24492E+05
 0.14700003E+01 -0.28219E+05
 0.15200000E+01 -0.28107E+05
 0.15700002E+01 -0.24736E+05
 0.16199999E+01 -0.24464E+05
 0.16700001E+01 -0.24139E+05
 0.17200003E+01 -0.22616E+05
 0.17700000E+01 -0.18229E+05
 0.18200002E+01 -0.12915E+05
 0.18699999E+01 -0.11413E+05
 0.19200001E+01 -0.12237E+05
 0.19700003E+01 -0.14097E+05
 0.20200000E+01 -0.16074E+05
 0.20700002E+01 -0.18213E+05
 0.21199999E+01 -0.21019E+05
 0.21700001E+01 -0.22217E+05
 0.22200003E+01 -0.22547E+05
 0.22700000E+01 -0.24335E+05
 0.23200002E+01 -0.27497E+05
 0.23699999E+01 -0.27670E+05
 0.24200001E+01 -0.21542E+05
 0.24700003E+01 -0.12408E+05
 0.25200000E+01 -0.50430E+04
 0.25700002E+01 -0.11070E+04
 0.26199999E+01  0.27430E+04
 0.26700001E+01  0.69290E+04
 0.27200003E+01  0.99940E+04
 0.27700000E+01  0.10088E+05
 0.28200002E+01  0.88010E+04
 0.28699999E+01  0.10986E+05
 0.29200001E+01  0.14170E+05
 0.29700003E+01  0.17762E+05
 0.30200000E+01  0.21845E+05
 0.30700002E+01  0.24079E+05
 0.31199999E+01  0.23598E+05
 0.31700001E+01  0.21430E+05
 0.32200003E+01  0.21189E+05
 0.32700000E+01  0.23379E+05
 0.33200002E+01  0.25516E+05
 0.33699999E+01  0.24313E+05
 0.34200001E+01  0.20347E+05
 0.34700003E+01  0.17463E+05
 0.35200000E+01  0.14627E+05
 0.35700002E+01  0.10518E+05
 0.36199999E+01  0.63890E+04
 0.36700001E+01  0.38340E+04
 0.37200003E+01  0.49590E+04
 0.37700000E+01  0.69850E+04
 0.38200002E+01  0.80710E+04
 0.38699999E+01  0.98540E+04
 0.39200001E+01  0.10489E+05
 0.39700003E+01  0.10893E+05
 0.40200000E+01  0.13889E+05
 0.40700002E+01  0.17416E+05
 0.41199999E+01  0.19194E+05
 0.41700001E+01  0.20178E+05
 0.42200003E+01  0.21655E+05
 0.42700000E+01  0.23955E+05
 0.43200002E+01  0.27102E+05
 0.43699999E+01  0.28008E+05
 0.44200001E+01  0.23110E+05
 0.44700003E+01  0.16038E+05
 0.45200000E+01  0.10926E+05
 0.45700002E+01  0.87170E+04
 0.46199999E+01  0.89700E+04
 0.46700001E+01  0.82280E+04
 0.47200003E+01  0.69480E+04
 0.47700000E+01  0.76200E+04
 0.48200002E+01  0.10666E+05
 0.48699999E+01  0.14546E+05
 0.49200001E+01  0.16390E+05
 0.49700003E+01  0.16842E+05
 0.50200000E+01  0.18242E+05
 0.50700002E+01  0.21113E+05
 0.51200004E+01  0.24067E+05
 0.51700006E+01  0.26494E+05
 0.52199998E+01  0.28435E+05
 0.52700000E+01  0.29841E+05
 0.53200002E+01  0.31953E+05
 0.53700004E+01  0.32946E+05
 0.54200006E+01  0.30119E+05
 0.54699998E+01  0.26762E+05
 0.55200000E+01  0.24569E+05
 0.55700002E+01  0.21357E+05
 0.56200004E+01  0.16368E+05
 0.56700006E+01  0.10315E+05
 0.57199998E+01  0.39740E+04
 0.57700000E+01 -0.26490E+04
 0.58200002E+01 -0.61080E+04
 0.58700004E+01 -0.65700E+04
 0.59200006E+01 -0.89500E+04
 0.59699998E+01 -0.12820E+05
 0.60200000E+01 -0.16202E+05
 0.60700002E+01 -0.18533E+05
 0.61200004E+01 -0.20086E+05
 0.61700006E+01 -0.20606E+05
 0.62199998E+01 -0.19366E+05
 0.62700000E+01 -0.17724E+05
 0.63200002E+01 -0.16537E+05
 0.63700004E+01 -0.16116E+05
 0.64200006E+01 -0.15691E+05
 0.64699998E+01 -0.14571E+05
 0.65200000E+01 -0.13896E+05
 0.65700002E+01 -0.14595E+05
 0.66200004E+01 -0.16695E+05
 0.66700006E+01 -0.18838E+05
 0.67199998E+01 -0.21320E+05
 0.67700000E+01 -0.22851E+05
 0.68200002E+01 -0.21015E+05
 0.68700004E+01 -0.18531E+05
 0.69200006E+01 -0.17299E+05
 0.69699998E+01 -0.16316E+05
 0.70200000E+01 -0.14598E+05
 0.70700002E+01 -0.11702E+05
 0.71200004E+01 -0.94480E+04
 0.71700006E+01 -0.81700E+04
 0.72199998E+01 -0.74140E+04
 0.72700000E+01 -0.71660E+04
 0.73200002E+01 -0.77260E+04
 0.73700004E+01 -0.10679E+05
 0.74200006E+01 -0.12451E+05
 0.74699998E+01 -0.92230E+04
 0.75200000E+01 -0.47330E+04
 0.75700002E+01 -0.33060E+04
 0.76200004E+01 -0.50070E+04
 0.76700006E+01 -0.66360E+04
 0.77199998E+01 -0.68940E+04
 0.77700000E+01 -0.93210E+04
 0.78200002E+01 -0.14330E+05
 0.78700004E+01 -0.20240E+05
 0.79200006E+01 -0.24380E+05
 0.79699998E+01 -0.27362E+05
 0.80200005E+01 -0.33330E+05
 0.80699997E+01 -0.38695E+05
 0.81200008E+01 -0.40580E+05
 0.81700001E+01 -0.39334E+05
 0.82199993E+01 -0.36716E+05
 0.82700005E+01 -0.35239E+05
 0.83199997E+01 -0.31767E+05
 0.83700008E+01 -0.25208E+05
 0.84200001E+01 -0.18852E+05
 0.84699993E+01 -0.15304E+05
 0.85200005E+01 -0.14587E+05
 0.85699997E+01 -0.11788E+05
 0.86200008E+01 -0.58250E+04
 0.86700001E+01 -0.27780E+04
 0.87199993E+01 -0.50800E+04
 0.87700005E+01 -0.11012E+05
 0.88199997E+01 -0.17121E+05
 0.88700008E+01 -0.16749E+05
 0.89200001E+01 -0.10957E+05
 0.89699993E+01 -0.59820E+04
 0.90200005E+01 -0.11630E+04
 0.90699997E+01  0.27370E+04
 0.91200008E+01  0.47010E+04
 0.91700001E+01  0.53030E+04
 0.92199993E+01  0.40170E+04
 0.92700005E+01  0.27890E+04
 0.93199997E+01  0.17690E+04
 0.93700008E+01  0.55000E+02
 0.94200001E+01 -0.31330E+04
 0.94699993E+01 -0.81290E+04
 0.95200005E+01 -0.14044E+05
 0.95699997E+01 -0.19603E+05
 0.96200008E+01 -0.21779E+05
 0.96700001E+01 -0.20802E+05
 0.97199993E+01 -0.20388E+05
 0.97700005E+01 -0.21486E+05
 0.98199997E+01 -0.22451E+05
 0.98700008E+01 -0.21531E+05
 0.99200001E+01 -0.17958E+05
 0.99699993E+01 -0.14017E+05
 0.10020000E+02 -0.11711E+05
 0.10070000E+02 -0.94090E+04
 0.10120001E+02 -0.68760E+04
 0.10170000E+02 -0.59360E+04
 0.10219999E+02 -0.67410E+04
 0.10270000E+02 -0.64230E+04
 0.10320000E+02 -0.40860E+04
 0.10370001E+02 -0.14350E+04
 0.10420000E+02  0.20970E+04
 0.10469999E+02  0.71870E+04
 0.10520000E+02  0.15293E+05
 0.10570000E+02  0.23927E+05
 0.10620001E+02  0.29262E+05
 0.10670000E+02  0.30453E+05
 0.10719999E+02  0.28396E+05
 0.10770000E+02  0.28890E+05
 0.10820000E+02  0.30495E+05
 0.10870001E+02  0.28604E+05
 0.10920000E+02  0.25151E+05
 0.10969999E+02  0.23004E+05
 0.11020000E+02  0.22078E+05
 0.11070000E+02  0.20498E+05
 0.11120001E+02  0.19962E+05
 0.11170000E+02  0.21807E+05
 0.11219999E+02  0.24323E+05
 0.11270000E+02  0.23814E+05
 0.11320000E+02  0.20957E+05
 0.11370001E+02  0.20579E+05
 0.11420000E+02  0.22617E+05
 0.11469999E+02  0.23263E+05
 0.11520000E+02  0.20931E+05
 0.11570000E+02  0.17978E+05
 0.11620001E+02  0.15648E+05
 0.11670000E+02  0.12031E+05
 0.11719999E+02  0.51850E+04
 0.11770000E+02 -0.22810E+04
 0.11820000E+02 -0.88550E+04
 0.11870001E+02 -0.15048E+05
 0.11920000E+02 -0.20005E+05
 0.11969999E+02 -0.24983E+05
 0.12020000E+02 -0.28774E+05
 0.12070000E+02 -0.31324E+05
 0.12120001E+02 -0.32085E+05
 0.12170000E+02 -0.30683E+05
 0.12219999E+02 -0.30213E+05
 0.12270000E+02 -0.30381E+05
 0.12320000E+02 -0.30609E+05
 0.12370001E+02 -0.28955E+05
 0.12420000E+02 -0.24697E+05
 0.12469999E+02 -0.20398E+05
 0.12520000E+02 -0.17281E+05
 0.12570000E+02 -0.16606E+05
 0.12620001E+02 -0.16530E+05
 0.12670000E+02 -0.14162E+05
 0.12719999E+02 -0.12132E+05
 0.12770000E+02 -0.10871E+05
 0.12820000E+02 -0.85570E+04
 0.12870001E+02 -0.57590E+04
 0.12920000E+02 -0.24490E+04
 0.12969999E+02  0.45700E+03
 0.13020000E+02  0.33110E+04
 0.13070002E+02  0.54790E+04
 0.13120001E+02  0.84490E+04
 0.13170000E+02  0.13592E+05
 0.13220001E+02  0.16946E+05
 0.13270000E+02  0.17725E+05
 0.13320002E+02  0.16853E+05
 0.13370001E+02  0.16183E+05
 0.13420000E+02  0.14363E+05
 0.13470001E+02  0.10829E+05
 0.13520000E+02  0.98210E+04
 0.13570002E+02  0.99670E+04
 0.13620001E+02  0.83330E+04
 0.13670000E+02  0.55760E+04
 0.13720001E+02  0.48850E+04
 0.13770000E+02  0.66100E+04
 0.13820002E+02  0.74210E+04
 0.13870001E+02  0.73010E+04
 0.13920000E+02  0.82190E+04
 0.13970001E+02  0.96210E+04
 0.14020000E+02  0.98900E+04
 0.14070002E+02  0.95490E+04
 0.14120001E+02  0.89540E+04
 0.14170000E+02  0.67000E+04
 0.14220001E+02  0.14390E+04
 0.14270000E+02 -0.56270E+04
 0.14320002E+02 -0.11522E+05
 0.14370001E+02 -0.14447E+05
 0.14420000E+02 -0.15878E+05
 0.14470001E+02 -0.17645E+05
 0.14520000E+02 -0.17098E+05
 0.14570002E+02 -0.13231E+05
 0.14620001E+02 -0.87530E+04
 0.14670000E+02 -0.61670E+04
 0.14720001E+02 -0.53380E+04
 0.14770000E+02 -0.44660E+04
 0.14820002E+02 -0.42890E+04
 0.14870001E+02 -0.54130E+04
 0.14920000E+02 -0.77020E+04
 0.14970001E+02 -0.10851E+05
 0.15020000E+02 -0.13503E+05
 0.15070002E+02 -0.15952E+05
 0.15120001E+02 -0.18566E+05
 0.15170000E+02 -0.19212E+05
 0.15220001E+02 -0.18187E+05
 0.15270000E+02 -0.18188E+05
 0.15320002E+02 -0.20834E+05
 0.15370001E+02 -0.23469E+05
 0.15420000E+02 -0.23033E+05
 0.15470001E+02 -0.22042E+05
 0.15520000E+02 -0.19570E+05
 0.15570002E+02 -0.16927E+05
 0.15620001E+02 -0.17657E+05
 0.15670000E+02 -0.18855E+05
 0.15720001E+02 -0.18986E+05
 0.15770000E+02 -0.17464E+05
 0.15820002E+02 -0.15691E+05
 0.15870001E+02 -0.15943E+05
 0.15920000E+02 -0.16354E+05
 0.15970001E+02 -0.14570E+05
 0.16020000E+02 -0.11699E+05
 0.16070002E+02 -0.10744E+05
 0.16120001E+02 -0.11251E+05
 0.16170000E+02 -0.96560E+04
 0.16220001E+02 -0.50090E+04
 0.16270000E+02 -0.11870E+04
 0.16320002E+02  0.60000E+01
 0.16370001E+02  0.78000E+03
 0.16420000E+02  0.27080E+04
 0.16470001E+02  0.62020E+04
 0.16520000E+02  0.10048E+05
 0.16570002E+02  0.14513E+05
 0.16620001E+02  0.20548E+05
 0.16670000E+02  0.26591E+05
 0.16720001E+02  0.29405E+05
 0.16770000E+02  0.27418E+05
 0.16820002E+02  0.24439E+05
 0.16870001E+02  0.22217E+05
 0.16920000E+02  0.18456E+05
 0.16970001E+02  0.13331E+05
 0.17020000E+02  0.75330E+04
 0.17070002E+02  0.25730E+04
 0.17120001E+02  0.99000E+03
 0.17170000E+02 -0.80300E+03
 0.17220001E+02 -0.42600E+04
 0.17270000E+02 -0.59180E+04
 0.17320002E+02 -0.65750E+04
 0.17370001E+02 -0.68620E+04
 0.17420000E+02 -0.75580E+04
 0.17470001E+02 -0.84200E+04
 0.17520000E+02 -0.84360E+04
 0.17570002E+02 -0.89690E+04
 0.17620001E+02 -0.12256E+05
 0.17670000E+02 -0.18235E+05
 0.17720001E+02 -0.23012E+05
 0.17770000E+02 -0.26328E+05
 0.17820002E+02 -0.29211E+05
 0.17870001E+02 -0.31028E+05
 0.17920000E+02 -0.33080E+05
 0.17970001E+02 -0.35533E+05
 0.18020000E+02 -0.36794E+05
 0.18070002E+02 -0.36105E+05
 0.18120001E+02 -0.32846E+05
 0.18170000E+02 -0.28131E+05
 0.18220001E+02 -0.23151E+05
 0.18270000E+02 -0.18268E+05
 0.18320002E+02 -0.14997E+05
 0.18370001E+02 -0.11607E+05
 0.18420000E+02 -0.79810E+04
 0.18470001E+02 -0.64950E+04
 0.18520000E+02 -0.54690E+04
 0.18570002E+02 -0.34240E+04
 0.18620001E+02 -0.22180E+04
 0.18670000E+02 -0.17730E+04
 0.18720001E+02 -0.86000E+02
 0.18770000E+02  0.55100E+03
 0.18820002E+02 -0.15600E+03
 0.18870001E+02 -0.30000E+01
 0.18920000E+02  0.19600E+03
 0.18970001E+02 -0.28700E+03
 0.19020000E+02 -0.26770E+04
 0.19070002E+02 -0.48250E+04
 0.19120001E+02 -0.48510E+04
 0.19170000E+02 -0.54480E+04
 0.19220001E+02 -0.70330E+04
 0.19270000E+02 -0.85220E+04
 0.19320002E+02 -0.77320E+04
 0.19370001E+02 -0.54440E+04
 0.19420000E+02 -0.43610E+04
 0.19470001E+02 -0.44340E+04
 0.19520000E+02 -0.53100E+04
 0.19570002E+02 -0.34830E+04
 0.19620001E+02  0.65800E+03
 0.19670000E+02  0.33800E+04
 0.19720001E+02  0.56300E+04
 0.19770000E+02  0.77110E+04
 0.19820002E+02  0.98100E+04
 0.19870001E+02  0.11969E+05
 0.19920000E+02  0.13479E+05
 0.19970001E+02  0.14439E+05
 0.20020000E+02  0.14134E+05
 0.20070002E+02  0.13724E+05
 0.20120001E+02  0.15615E+05
 0.20170000E+02  0.17367E+05
 0.20220001E+02  0.16733E+05
 0.20270000E+02  0.15255E+05
 0.20320002E+02  0.14828E+05
 0.20370001E+02  0.16464E+05
 0.20420000E+02  0.18214E+05
 0.20470001E+02  0.17467E+05
 0.20520000E+02  0.13026E+05
 0.20570002E+02  0.68840E+04
 0.20620001E+02  0.16010E+04
 0.20670000E+02 -0.17590E+04
 0.20720001E+02 -0.47640E+04
 0.20770000E+02 -0.75930E+04
 0.20820002E+02 -0.81580E+04
 0.20870001E+02 -0.90850E+04
 0.20920000E+02 -0.10600E+05
 0.20970001E+02 -0.12857E+05
 0.21020000E+02 -0.14699E+05
 0.21070002E+02 -0.12346E+05
 0.21120001E+02 -0.83780E+04
 0.21170000E+02 -0.26350E+04
 0.21220001E+02  0.35480E+04
 0.21270000E+02  0.43580E+04
 0.21320002E+02  0.25700E+04
 0.21370001E+02  0.40200E+03
 0.21420000E+02 -0.47100E+04
 0.21470001E+02 -0.99570E+04
 0.21520000E+02 -0.12029E+05
 0.21570002E+02 -0.11146E+05
 0.21620001E+02 -0.10063E+05
 0.21670000E+02 -0.10360E+05
 0.21720001E+02 -0.92020E+04
 0.21770000E+02 -0.76680E+04
 0.21820002E+02 -0.82670E+04
 0.21870001E+02 -0.10073E+05
 0.21920000E+02 -0.12851E+05
 0.21970001E+02 -0.14557E+05
 0.22020000E+02 -0.13005E+05
 0.22070002E+02 -0.10169E+05
 0.22120001E+02 -0.79260E+04
 0.22170000E+02 -0.65610E+04
 0.22220001E+02 -0.71710E+04
 0.22270000E+02 -0.96040E+04
 0.22320002E+02 -0.12171E+05
 0.22370001E+02 -0.15478E+05
 0.22420000E+02 -0.19331E+05
 0.22470001E+02 -0.21070E+05
 0.22520000E+02 -0.20729E+05
 0.22570002E+02 -0.19631E+05
 0.22620001E+02 -0.20256E+05
 0.22670000E+02 -0.21742E+05
 0.22720001E+02 -0.21186E+05
 0.22770000E+02 -0.19134E+05
 0.22820002E+02 -0.16450E+05
 0.22870001E+02 -0.16052E+05
 0.22920000E+02 -0.17298E+05
 0.22970001E+02 -0.17413E+05
 0.23020000E+02 -0.15980E+05
 0.23070002E+02 -0.14759E+05
 0.23120001E+02 -0.13946E+05
 0.23170000E+02 -0.86740E+04
 0.23220001E+02  0.75100E+03
 0.23270000E+02  0.95380E+04
 0.23320002E+02  0.15836E+05
 0.23370001E+02  0.21621E+05
 0.23420000E+02  0.26268E+05
 0.23470001E+02  0.27487E+05
 0.23520000E+02  0.26700E+05
 0.23570002E+02  0.25102E+05
 0.23620001E+02  0.24176E+05
 0.23670000E+02  0.22881E+05
 0.23720001E+02  0.18676E+05
 0.23770000E+02  0.12818E+05
 0.23820002E+02  0.78050E+04
 0.23870001E+02  0.37790E+04
 0.23920000E+02 -0.12700E+03
 0.23970001E+02 -0.27980E+04
 0.24020000E+02 -0.46120E+04
 0.24070002E+02 -0.67530E+04
 0.24120001E+02 -0.10899E+05
 0.24170000E+02 -0.16909E+05
 0.24220001E+02 -0.22081E+05
 0.24270000E+02 -0.25565E+05
 0.24320002E+02 -0.26173E+05
 0.24370001E+02 -0.25451E+05
 0.24420000E+02 -0.25584E+05
 0.24470001E+02 -0.26059E+05
 0.24520000E+02 -0.24206E+05
 0.24570002E+02 -0.20410E+05
 0.24620001E+02 -0.19358E+05
 0.24670000E+02 -0.19224E+05
 0.24720001E+02 -0.16114E+05
 0.24770000E+02 -0.10088E+05
 0.24820002E+02 -0.42410E+04
 0.24870001E+02 -0.13270E+04
 0.24920000E+02 -0.47500E+03
 0.24970001E+02 -0.52400E+03
 0.25020000E+02 -0.22000E+04
 0.25070002E+02 -0.60920E+04
 0.25120001E+02 -0.10025E+05
 0.25170000E+02 -0.12134E+05
 0.25220001E+02 -0.12955E+05
 0.25270000E+02 -0.13532E+05
 0.25320002E+02 -0.12764E+05
 0.25370001E+02 -0.11265E+05
 0.25420000E+02 -0.11284E+05
 0.25470001E+02 -0.12895E+05
 0.25520000E+02 -0.16006E+05
 0.25570002E+02 -0.16953E+05
 0.25620001E+02 -0.14625E+05
 0.25670000E+02 -0.12400E+05
 0.25720001E+02 -0.10650E+05
 0.25770000E+02 -0.95420E+04
 0.25820002E+02 -0.94320E+04
 0.25870001E+02 -0.89540E+04
 0.25920000E+02 -0.47800E+04
 0.25970001E+02  0.26760E+04
 0.26020000E+02  0.10156E+05
 0.26070002E+02  0.16964E+05
 0.26120001E+02  0.22107E+05
 0.26170000E+02  0.26122E+05
 0.26220001E+02  0.28659E+05
 0.26270000E+02  0.30616E+05
 0.26320002E+02  0.32568E+05
 0.26370001E+02  0.32704E+05
 0.26420000E+02  0.33870E+05
 0.26470001E+02  0.34949E+05
 0.26520000E+02  0.34925E+05
 0.26570002E+02  0.34699E+05
 0.26620001E+02  0.31742E+05
 0.26670000E+02  0.27688E+05
 0.26720001E+02  0.25512E+05
 0.26770000E+02  0.27221E+05
 0.26820002E+02  0.31993E+05
 0.26870001E+02  0.35214E+05
 0.26920000E+02  0.34775E+05
 0.26970001E+02  0.31929E+05
 0.27020000E+02  0.29510E+05
 0.27070002E+02  0.28153E+05
 0.27120001E+02  0.25936E+05
 0.27170000E+02  0.23167E+05
 0.27220001E+02  0.21018E+05
 0.27270000E+02  0.20430E+05
 0.27320002E+02  0.18765E+05
 0.27370001E+02  0.14054E+05
 0.27420000E+02  0.93110E+04
 0.27470001E+02  0.70410E+04
 0.27520000E+02  0.56550E+04
 0.27570002E+02  0.15550E+04
 0.27620001E+02 -0.30960E+04
 0.27670000E+02 -0.61910E+04
 0.27720001E+02 -0.80510E+04
 0.27770000E+02 -0.92420E+04
 0.27820002E+02 -0.97880E+04
 0.27870001E+02 -0.86360E+04
 0.27920000E+02 -0.73340E+04
 0.27970001E+02 -0.84190E+04
 0.28020000E+02 -0.13573E+05
 0.28070002E+02 -0.20413E+05
 0.28120001E+02 -0.25318E+05
 0.28170000E+02 -0.26630E+05
 0.28220001E+02 -0.26185E+05
 0.28270000E+02 -0.26626E+05
 0.28320002E+02 -0.24474E+05
 0.28370001E+02 -0.20436E+05
 0.28420000E+02 -0.19821E+05
 0.28470001E+02 -0.21199E+05
 0.28520000E+02 -0.22175E+05
 0.28570002E+02 -0.22924E+05
 0.28620001E+02 -0.25203E+05
 0.28670000E+02 -0.27068E+05
 0.28720001E+02 -0.25688E+05
 0.28770000E+02 -0.22258E+05
 0.28820002E+02 -0.16439E+05
 0.28870001E+02 -0.11649E+05
 0.28920000E+02 -0.93920E+04
 0.28970001E+02 -0.76270E+04
 0.29020000E+02 -0.70260E+04
 0.29070000E+02 -0.77960E+04
 0.29120003E+02 -0.98660E+04
 0.29170002E+02 -0.11619E+05
 0.29220001E+02 -0.11211E+05
 0.29270000E+02 -0.10902E+05
 0.29320000E+02 -0.13193E+05
 0.29370003E+02 -0.17246E+05
 0.29420002E+02 -0.21977E+05
 0.29470001E+02 -0.23315E+05
 0.29520000E+02 -0.22349E+05
 0.29570000E+02 -0.24047E+05
 0.29620003E+02 -0.31430E+05
 0.29670002E+02 -0.44432E+05
 0.29720001E+02 -0.56723E+05
 0.29770000E+02 -0.65811E+05
 0.29820000E+02 -0.69612E+05
 0.29870003E+02 -0.70509E+05
 0.29920002E+02 -0.75884E+05
 0.29970001E+02 -0.80365E+05
 0.30020000E+02 -0.79623E+05
 0.30070000E+02 -0.79826E+05
 0.30120003E+02 -0.73843E+05
 0.30170002E+02 -0.56771E+05
 0.30220001E+02 -0.36734E+05
 0.30270000E+02 -0.27577E+05
 0.30320000E+02 -0.31488E+05
 0.30370003E+02 -0.32159E+05
 0.30420002E+02 -0.31698E+05
 0.30470001E+02 -0.26281E+05
 0.30520000E+02 -0.21704E+05
 0.30570000E+02 -0.31523E+05
 0.30620003E+02 -0.41554E+05
 0.30670002E+02 -0.56280E+05
 0.30720001E+02 -0.67992E+05
 0.30770000E+02 -0.73346E+05
 0.30820000E+02 -0.85876E+05
 0.30870003E+02 -0.90731E+05
 0.30920002E+02 -0.84772E+05
 0.30970001E+02 -0.78047E+05
 0.31020000E+02 -0.77652E+05
 0.31070000E+02 -0.73144E+05
 0.31120003E+02 -0.80731E+05
 0.31170002E+02 -0.89139E+05
 0.31220001E+02 -0.74113E+05
 0.31270000E+02 -0.69124E+05
 0.31320000E+02 -0.55074E+05
 0.31370003E+02 -0.44706E+05
 0.31420002E+02 -0.47061E+05
 0.31470001E+02 -0.45622E+05
 0.31520000E+02 -0.56097E+05
 0.31570000E+02 -0.65278E+05
 0.31620003E+02 -0.74383E+05
 0.31670002E+02 -0.70771E+05
 0.31720001E+02 -0.69661E+05
 0.31770000E+02 -0.61258E+05
 0.31820000E+02 -0.32276E+05
 0.31870003E+02 -0.30400E+05
 0.31920002E+02 -0.24361E+05
 0.31970001E+02 -0.10151E+05
 0.32020000E+02 -0.27090E+04
 0.32070000E+02  0.13579E+05
 0.32120003E+02  0.19258E+05
 0.32170002E+02  0.11243E+05
 0.32220001E+02  0.21100E+03
 0.32270000E+02  0.10564E+05
 0.32320000E+02  0.34239E+05
 0.32370003E+02  0.39060E+05
 0.32420002E+02  0.36237E+05
 0.32470001E+02  0.36333E+05
 0.32520000E+02  0.28199E+05
 0.32570000E+02  0.42246E+05
 0.32620003E+02  0.58194E+05
 0.32670002E+02  0.47933E+05
 0.32720001E+02  0.62364E+05
 0.32770000E+02  0.59510E+05
 0.32820000E+02  0.30435E+05
 0.32870003E+02  0.27951E+05
 0.32920002E+02  0.18129E+05
 0.32970001E+02 -0.31000E+02
 0.33020000E+02 -0.12149E+05
 0.33070000E+02 -0.20871E+05
 0.33120003E+02 -0.10122E+05
 0.33170002E+02 -0.91700E+04
 0.33220001E+02 -0.21671E+05
 0.33270000E+02 -0.22616E+05
 0.33320000E+02 -0.17560E+04
 0.33370003E+02  0.15308E+05
 0.33420002E+02  0.78530E+04
 0.33470001E+02  0.68330E+04
 0.33520000E+02  0.33120E+04
 0.33570000E+02 -0.42830E+04
 0.33620003E+02 -0.13098E+05
 0.33670002E+02  0.24900E+03
 0.33720001E+02 -0.89100E+03
 0.33770000E+02 -0.40501E+05
 0.33820000E+02 -0.45833E+05
 0.33870003E+02 -0.41533E+05
 0.33920002E+02 -0.32866E+05
 0.33970001E+02 -0.29363E+05
 0.34020000E+02 -0.50840E+05
 0.34070000E+02 -0.46485E+05
 0.34120003E+02 -0.39699E+05
 0.34170002E+02 -0.46544E+05
 0.34220001E+02 -0.34681E+05
 0.34270000E+02 -0.37154E+05
 0.34320000E+02 -0.46276E+05
 0.34370003E+02 -0.32983E+05
 0.34420002E+02 -0.63430E+04
 0.34470001E+02  0.48240E+04
 0.34520000E+02 -0.44976E+05
 0.34570000E+02 -0.62953E+05
 0.34620003E+02 -0.17753E+05
 0.34670002E+02  0.13700E+03
 0.34720001E+02 -0.34000E+03
 0.34770000E+02  0.10253E+05
 0.34820000E+02  0.39168E+05
 0.34870003E+02  0.53615E+05
 0.34920002E+02  0.47142E+05
 0.34970001E+02  0.28093E+05
 0.35020000E+02 -0.18740E+04
 0.35070000E+02  0.62700E+03
 0.35120003E+02  0.32453E+05
 0.35170002E+02  0.54956E+05
 0.35220001E+02  0.48333E+05
 0.35270000E+02  0.40429E+05
 0.35320000E+02  0.25270E+05
 0.35370003E+02  0.77130E+04
 0.35420002E+02  0.12700E+05
 0.35470001E+02  0.12616E+05
 0.35520000E+02  0.32586E+05
 0.35570000E+02  0.68467E+05
 0.35620003E+02  0.91244E+05
 0.35670002E+02  0.94722E+05
 0.35720001E+02  0.65417E+05
 0.35770000E+02  0.49305E+05
 0.35820000E+02  0.50904E+05
 0.35870003E+02  0.41083E+05
 0.35920002E+02  0.26427E+05
 0.35970001E+02 -0.14183E+05
 0.36020000E+02 -0.39350E+05
 0.36070000E+02 -0.36705E+05
 0.36120003E+02 -0.53480E+05
 0.36170002E+02 -0.32797E+05
 0.36220001E+02  0.17793E+05
 0.36270000E+02  0.38335E+05
 0.36320000E+02  0.26524E+05
 0.36370003E+02  0.25888E+05
 0.36420002E+02  0.47386E+05
 0.36470001E+02  0.25302E+05
 0.36520000E+02  0.22842E+05
 0.36570000E+02  0.52887E+05
 0.36620003E+02  0.62954E+05
 0.36670002E+02  0.69582E+05
 0.36720001E+02  0.63040E+05
 0.36770000E+02  0.79314E+05
 0.36820000E+02  0.10099E+06
 0.36870003E+02  0.10710E+06
 0.36920002E+02  0.11676E+06
 0.36970001E+02  0.10998E+06
 0.37020000E+02  0.84954E+05
 0.37070000E+02  0.65790E+05
 0.37120003E+02  0.71620E+05
 0.37170002E+02  0.77037E+05
 0.37220001E+02  0.67267E+05
 0.37270000E+02  0.27639E+05
 0.37320000E+02 -0.23790E+04
 0.37370003E+02  0.17575E+05
 0.37420002E+02  0.29039E+05
 0.37470001E+02  0.57498E+05
 0.37520000E+02  0.10134E+06
 0.37570000E+02  0.12207E+06
 0.37620003E+02  0.15131E+06
 0.37670002E+02  0.17328E+06
 0.37720001E+02  0.18297E+06
 0.37770000E+02  0.13925E+06
 0.37820000E+02  0.81739E+05
 0.37870003E+02  0.58512E+05
 0.37920002E+02  0.25330E+05
 0.37970001E+02  0.44848E+05
 0.38020000E+02  0.63430E+05
 0.38070000E+02  0.49913E+05
 0.38120003E+02  0.35411E+05
 0.38170002E+02  0.21279E+05
 0.38220001E+02  0.31726E+05
 0.38270000E+02  0.35200E+05
 0.38320000E+02  0.58123E+05
 0.38370003E+02  0.73478E+05
 0.38420002E+02  0.93331E+05
 0.38470001E+02  0.94097E+05
 0.38520000E+02  0.44519E+05
 0.38570000E+02  0.42521E+05
 0.38620003E+02  0.71754E+05
 0.38670002E+02  0.10695E+06
 0.38720001E+02  0.11434E+06
 0.38770000E+02  0.57001E+05
 0.38820000E+02  0.17236E+05
 0.38870003E+02  0.33641E+05
 0.38920002E+02  0.57300E+05
 0.38970001E+02  0.73700E+05
 0.39020000E+02  0.59259E+05
 0.39070000E+02  0.17041E+05
 0.39120003E+02  0.93020E+04
 0.39170002E+02  0.20460E+05
 0.39220001E+02 -0.72610E+04
 0.39270000E+02 -0.26885E+05
 0.39320000E+02 -0.83340E+04
 0.39370003E+02  0.94820E+04
 0.39420002E+02  0.19534E+05
 0.39470001E+02 -0.86240E+04
 0.39520000E+02 -0.17631E+05
 0.39570000E+02  0.16466E+05
 0.39620003E+02  0.49960E+05
 0.39670002E+02  0.87844E+05
 0.39720001E+02  0.84754E+05
 0.39770000E+02  0.48085E+05
 0.39820000E+02  0.14849E+05
 0.39870003E+02  0.12685E+05
 0.39920002E+02  0.32503E+05
 0.39970001E+02  0.12017E+05
 0.40020000E+02 -0.15424E+05
 0.40070000E+02 -0.13176E+05
 0.40120003E+02  0.18780E+04
 0.40170002E+02  0.28313E+05
 0.40220001E+02  0.31473E+05
 0.40270000E+02  0.24315E+05
 0.40320000E+02  0.11254E+05
 0.40370003E+02  0.42700E+03
 0.40420002E+02 -0.79950E+04
 0.40470001E+02 -0.62334E+05
 0.40520000E+02 -0.76062E+05
 0.40570000E+02 -0.20519E+05
 0.40620003E+02  0.54006E+05
 0.40670002E+02  0.95826E+05
 0.40720001E+02  0.87683E+05
 0.40770000E+02  0.60459E+05
 0.40820000E+02  0.14122E+05
 0.40870003E+02  0.87390E+04
 0.40920002E+02  0.39649E+05
 0.40970001E+02  0.64248E+05
 0.41020000E+02  0.42953E+05
 0.41070000E+02 -0.55900E+03
 0.41120003E+02 -0.84050E+04
 0.41170002E+02 -0.65030E+04
 0.41220001E+02  0.26455E+05
 0.41270000E+02  0.34597E+05
 0.41320000E+02  0.12033E+05
 0.41370003E+02  0.43916E+05
 0.41420002E+02  0.92621E+05
 0.41470001E+02  0.12162E+06
 0.41520000E+02  0.13886E+06
 0.41570000E+02  0.18626E+06
 0.41620003E+02  0.25140E+06
 0.41670002E+02  0.25237E+06
 0.41720001E+02  0.20396E+06
 0.41770000E+02  0.14180E+06
 0.41820000E+02  0.64852E+05
 0.41870003E+02  0.15059E+05
 0.41920002E+02 -0.33151E+05
 0.41970001E+02 -0.98232E+05
 0.42020000E+02 -0.13629E+06
 0.42070000E+02 -0.14757E+06
 0.42120003E+02 -0.10549E+06
 0.42170002E+02 -0.68249E+05
 0.42220001E+02 -0.34459E+05
 0.42270000E+02  0.38882E+05
 0.42320000E+02  0.67229E+05
 0.42370003E+02  0.79610E+05
 0.42420002E+02  0.61833E+05
 0.42470001E+02  0.41074E+05
 0.42520000E+02  0.38607E+05
 0.42570000E+02  0.65290E+04
 0.42620003E+02  0.30186E+05
 0.42670002E+02  0.31791E+05
 0.42720001E+02 -0.30690E+04
 0.42770000E+02 -0.95770E+04
 0.42820000E+02  0.41610E+04
 0.42870003E+02  0.39193E+05
 0.42920002E+02  0.31642E+05
 0.42970001E+02  0.40551E+05
 0.43020000E+02  0.79483E+05
 0.43070000E+02  0.75844E+05
 0.43120003E+02  0.42884E+05
 0.43170002E+02  0.36000E+05
 0.43220001E+02  0.54273E+05
 0.43270000E+02  0.56051E+05
 0.43320000E+02  0.33009E+05
 0.43370003E+02 -0.13582E+05
 0.43420002E+02 -0.72100E+04
 0.43470001E+02 -0.12066E+05
 0.43520000E+02 -0.48920E+05
 0.43570000E+02 -0.36856E+05
 0.43620003E+02 -0.70266E+05
 0.43670002E+02 -0.10247E+06
 0.43720001E+02 -0.86590E+05
 0.43770000E+02 -0.89731E+05
 0.43820000E+02 -0.79907E+05
 0.43870003E+02 -0.61541E+05
 0.43920002E+02 -0.54923E+05
 0.43970001E+02 -0.39407E+05
 0.44020000E+02 -0.29540E+05
 0.44070000E+02 -0.13438E+05
 0.44120003E+02 -0.17747E+05
 0.44170002E+02 -0.54715E+05
 0.44220001E+02 -0.71033E+05
 0.44270000E+02 -0.96118E+05
 0.44320000E+02 -0.10382E+06
 0.44370003E+02 -0.65352E+05
 0.44420002E+02 -0.12073E+05
 0.44470001E+02  0.32988E+05
 0.44520000E+02  0.34639E+05
 0.44570000E+02  0.35505E+05
 0.44620003E+02  0.47001E+05
 0.44670002E+02  0.24189E+05
 0.44720001E+02 -0.23100E+03
 0.44770000E+02 -0.25142E+05
 0.44820000E+02 -0.50195E+05
 0.44870003E+02 -0.58954E+05
 0.44920002E+02 -0.99458E+05
 0.44970001E+02 -0.13805E+06
 0.45020000E+02 -0.15213E+06
 0.45070000E+02 -0.13544E+06
 0.45120003E+02 -0.10709E+06
 0.45170002E+02 -0.12083E+06
 0.45220001E+02 -0.10622E+06
 0.45270000E+02 -0.85437E+05
 0.45320000E+02 -0.90819E+05
 0.45370003E+02 -0.10733E+06
 0.45420002E+02 -0.12628E+06
 0.45470001E+02 -0.89090E+05
 0.45520000E+02 -0.57417E+05
 0.45570000E+02 -0.38083E+05
 0.45620003E+02 -0.72840E+04
 0.45670002E+02  0.58250E+04
 0.45720001E+02  0.56460E+04
 0.45770000E+02 -0.44075E+05
 0.45820000E+02 -0.90633E+05
 0.45870003E+02 -0.90887E+05
 0.45920002E+02 -0.83542E+05
 0.45970001E+02 -0.78681E+05
 0.46020000E+02 -0.55038E+05
 0.46070000E+02 -0.12314E+05
 0.46120003E+02  0.27400E+03
 0.46170002E+02 -0.83700E+03
 0.46220001E+02  0.15671E+05
 0.46270000E+02 -0.29790E+04
 0.46320000E+02 -0.55335E+05
 0.46370003E+02 -0.55404E+05
 0.46420002E+02 -0.50671E+05
 0.46470001E+02 -0.97861E+05
 0.46520000E+02 -0.16286E+06
 0.46570000E+02 -0.21714E+06
 0.46620003E+02 -0.21149E+06
 0.46670002E+02 -0.17973E+06
 0.46720001E+02 -0.17119E+06
 0.46770000E+02 -0.17416E+06
 0.46820000E+02 -0.16382E+06
 0.46870003E+02 -0.12054E+06
 0.46920002E+02 -0.73275E+05
 0.46970001E+02 -0.47287E+05
 0.47020000E+02 -0.30724E+05
 0.47070000E+02 -0.10415E+05
 0.47120003E+02  0.30493E+05
 0.47170002E+02  0.73948E+05
 0.47220001E+02  0.75086E+05
 0.47270000E+02  0.87267E+05
 0.47320000E+02  0.10956E+06
 0.47370003E+02  0.67701E+05
 0.47420002E+02  0.35078E+05
 0.47470001E+02  0.61170E+04
 0.47520000E+02 -0.58538E+05
 0.47570000E+02 -0.90197E+05
 0.47620003E+02 -0.10711E+06
 0.47670002E+02 -0.88387E+05
 0.47720001E+02 -0.48359E+05
 0.47770000E+02 -0.59939E+05
 0.47820000E+02 -0.63923E+05
 0.47870003E+02 -0.42536E+05
 0.47920002E+02 -0.34443E+05
 0.47970001E+02 -0.20696E+05
 0.48020000E+02 -0.16772E+05
 0.48070000E+02 -0.55235E+05
 0.48120003E+02 -0.83238E+05
 0.48170002E+02 -0.81625E+05
 0.48220001E+02 -0.78095E+05
 0.48270000E+02 -0.74541E+05
 0.48320000E+02 -0.82086E+05
 0.48370003E+02 -0.79439E+05
 0.48420002E+02 -0.90304E+05
 0.48470001E+02 -0.13162E+06
 0.48520000E+02 -0.13868E+06
 0.48570000E+02 -0.12522E+06
 0.48620003E+02 -0.12623E+06
 0.48670002E+02 -0.12544E+06
 0.48720001E+02 -0.10093E+06
 0.48770000E+02 -0.88701E+05
 0.48820000E+02 -0.11048E+06
 0.48870003E+02 -0.11257E+06
 0.48920002E+02 -0.10643E+06
 0.48970001E+02 -0.87649E+05
 0.49020000E+02 -0.84877E+05
 0.49070000E+02 -0.10740E+06
 0.49120003E+02 -0.89813E+05
 0.49170002E+02 -0.73288E+05
 0.49220001E+02 -0.53663E+05
 0.49270000E+02 -0.24841E+05
 0.49320000E+02 -0.32015E+05
 0.49370003E+02 -0.61449E+05
 0.49420002E+02 -0.79308E+05
 0.49470001E+02 -0.72949E+05
 0.49520000E+02 -0.78111E+05
 0.49570000E+02 -0.69841E+05
 0.49620003E+02 -0.46673E+05
 0.49670002E+02 -0.40290E+05
 0.49720001E+02 -0.59550E+04
 0.49770000E+02  0.31170E+04
 0.49820000E+02 -0.33988E+05
 0.49870003E+02 -0.74644E+05
 0.49920002E+02 -0.10673E+06
 0.49970001E+02 -0.10294E+06
 0.50020000E+02 -0.10016E+06
 0.50070000E+02 -0.84851E+05
 0.50120003E+02 -0.67982E+05
 0.50170002E+02 -0.79121E+05
 0.50220001E+02 -0.81069E+05
 0.50270000E+02 -0.98368E+05
 0.50320000E+02 -0.12886E+06
 0.50370003E+02 -0.13146E+06
 0.50420002E+02 -0.10656E+06
 0.50470001E+02 -0.96223E+05
 0.50520000E+02 -0.10038E+06
 0.50570000E+02 -0.10177E+06
 0.50620003E+02 -0.10632E+06
 0.50670002E+02 -0.97084E+05
 0.50720001E+02 -0.98027E+05
 0.50770000E+02 -0.10438E+06
 0.50820000E+02 -0.80300E+05
 0.50870003E+02 -0.56268E+05
 0.50920002E+02 -0.47984E+05
 0.50970001E+02 -0.37679E+05
 0.51020000E+02 -0.44903E+05
 0.51070000E+02 -0.43838E+05
 0.51120003E+02 -0.20650E+04
 0.51170002E+02  0.25044E+05
 0.51220001E+02  0.16200E+05
 0.51270000E+02 -0.23896E+05
 0.51320000E+02 -0.59372E+05
 0.51370003E+02 -0.27745E+05
 0.51420002E+02  0.18528E+05
 0.51470001E+02  0.27342E+05
 0.51520000E+02  0.22485E+05
 0.51570000E+02  0.13959E+05
 0.51620003E+02  0.16650E+04
 0.51670002E+02 -0.13941E+05
 0.51720001E+02  0.81690E+04
 0.51770000E+02  0.37209E+05
 0.51820000E+02  0.43534E+05
 0.51870003E+02  0.49740E+05
 0.51920002E+02  0.13513E+05
 0.51970001E+02 -0.17928E+05
 0.52020000E+02 -0.50705E+05
 0.52070000E+02 -0.81879E+05
 0.52120003E+02 -0.63448E+05
 0.52170002E+02 -0.66544E+05
 0.52220001E+02 -0.51654E+05
 0.52270000E+02 -0.13592E+05
 0.52320000E+02  0.26038E+05
 0.52370003E+02  0.73661E+05
 0.52420002E+02  0.79032E+05
 0.52470001E+02  0.10443E+06
 0.52520000E+02  0.13173E+06
 0.52570000E+02  0.15158E+06
 0.52620003E+02  0.17604E+06
 0.52670002E+02  0.13240E+06
 0.52720001E+02  0.79424E+05
 0.52770000E+02  0.43798E+05
 0.52820000E+02 -0.47960E+04
 0.52870003E+02 -0.40528E+05
 0.52920002E+02 -0.35143E+05
 0.52970001E+02 -0.84010E+04
 0.53020000E+02  0.12750E+05
 0.53070000E+02 -0.14208E+05
 0.53120003E+02 -0.81699E+05
 0.53170002E+02 -0.82368E+05
 0.53220001E+02 -0.29377E+05
 0.53270000E+02 -0.14842E+05
 0.53320000E+02 -0.18467E+05
 0.53370003E+02 -0.10041E+05
 0.53420002E+02 -0.81470E+04
 0.53470001E+02 -0.74880E+04
 0.53520000E+02 -0.33453E+05
 0.53570000E+02 -0.37191E+05
 0.53620003E+02  0.20941E+05
 0.53670002E+02  0.11324E+06
 0.53720001E+02  0.20039E+06
 0.53770000E+02  0.23210E+06
 0.53820000E+02  0.23449E+06
 0.53870003E+02  0.19670E+06
 0.53920002E+02  0.16026E+06
 0.53970001E+02  0.15626E+06
 0.54020000E+02  0.15194E+06
 0.54070000E+02  0.17837E+06
 0.54120003E+02  0.21289E+06
 0.54170002E+02  0.19766E+06
 0.54220001E+02  0.19850E+06
 0.54270000E+02  0.22790E+06
 0.54320000E+02  0.21465E+06
 0.54370003E+02  0.19391E+06
 0.54420002E+02  0.13655E+06
 0.54470001E+02  0.83836E+05
 0.54520000E+02  0.43610E+05
 0.54570000E+02 -0.22934E+05
 0.54620003E+02 -0.42018E+05
 0.54670002E+02 -0.66967E+05
 0.54720001E+02 -0.77216E+05
 0.54770000E+02 -0.57193E+05
 0.54820000E+02 -0.72208E+05
 0.54870003E+02 -0.10163E+06
 0.54920002E+02 -0.11247E+06
 0.54970001E+02 -0.97473E+05
 0.55020000E+02 -0.75964E+05
 0.55070000E+02 -0.32508E+05
 0.55120003E+02  0.13930E+05
 0.55170002E+02  0.18312E+05
 0.55220001E+02  0.10620E+05
 0.55270000E+02  0.12832E+05
 0.55320000E+02 -0.38500E+03
 0.55370003E+02 -0.10043E+05
 0.55420002E+02 -0.42190E+04
 0.55470001E+02  0.42636E+05
 0.55520000E+02  0.13552E+06
 0.55570000E+02  0.19021E+06
 0.55620003E+02  0.18753E+06
 0.55670002E+02  0.16337E+06
 0.55720001E+02  0.18826E+06
 0.55770000E+02  0.21124E+06
 0.55820000E+02  0.17011E+06
 0.55870003E+02  0.10499E+06
 0.55920002E+02  0.26590E+04
 0.55970001E+02 -0.24626E+05
 0.56020000E+02  0.23540E+04
 0.56070000E+02 -0.57970E+04
 0.56120003E+02  0.41056E+05
 0.56170002E+02  0.10206E+06
 0.56220001E+02  0.15826E+06
 0.56270000E+02  0.21187E+06
 0.56320000E+02  0.20589E+06
 0.56370003E+02  0.18637E+06
 0.56420002E+02  0.16682E+06
 0.56470001E+02  0.18140E+06
 0.56520000E+02  0.23116E+06
 0.56570000E+02  0.21574E+06
 0.56620003E+02  0.18581E+06
 0.56670002E+02  0.15833E+06
 0.56720001E+02  0.84202E+05
 0.56770000E+02  0.30253E+05
 0.56820000E+02  0.51110E+04
 0.56870003E+02 -0.57710E+04
 0.56920002E+02 -0.51600E+03
 0.56970001E+02 -0.29275E+05
 0.57020000E+02 -0.80241E+05
 0.57070000E+02 -0.10474E+06
 0.57120003E+02 -0.83259E+05
 0.57170002E+02 -0.21617E+05
 0.57220001E+02 -0.69020E+04
 0.57270000E+02 -0.58061E+05
 0.57320000E+02 -0.12407E+06
 0.57370003E+02 -0.21331E+06
 0.57420002E+02 -0.29081E+06
 0.57470001E+02 -0.28072E+06
 0.57520000E+02 -0.18259E+06
 0.57570000E+02 -0.76537E+05
 0.57620003E+02  0.26809E+05
 0.57670002E+02  0.87158E+05
 0.57720001E+02  0.58718E+05
 0.57770000E+02  0.41219E+05
 0.57820000E+02  0.17050E+04
 0.57870003E+02 -0.74044E+05
 0.57920002E+02 -0.49848E+05
 0.57970001E+02  0.45746E+05
 0.58020000E+02  0.13100E+06
 0.58070000E+02  0.18329E+06
 0.58120003E+02  0.14758E+06
 0.58170002E+02  0.62608E+05
 0.58220001E+02 -0.36105E+05
 0.58270000E+02 -0.14138E+06
 0.58320000E+02 -0.19905E+06
 0.58370003E+02 -0.24935E+06
 0.58420002E+02 -0.25848E+06
 0.58470001E+02 -0.22934E+06
 0.58520000E+02 -0.16808E+06
 0.58570000E+02 -0.37627E+05
 0.58620003E+02  0.63749E+05
 0.58670002E+02  0.94956E+05
 0.58720001E+02  0.56871E+05
 0.58770000E+02  0.28128E+05
 0.58820000E+02  0.70350E+04
 0.58870003E+02 -0.42451E+05
 0.58920002E+02 -0.43089E+05
 0.58970001E+02 -0.26132E+05
 0.59020000E+02 -0.51666E+05
 0.59070000E+02 -0.10442E+06
 0.59120003E+02 -0.13288E+06
 0.59170002E+02 -0.10998E+06
 0.59220001E+02 -0.41302E+05
 0.59270000E+02  0.19198E+05
 0.59320000E+02  0.58096E+05
 0.59370003E+02  0.84539E+05
 0.59420002E+02  0.98344E+05
 0.59470001E+02  0.10730E+06
 0.59520000E+02  0.10440E+06
 0.59570000E+02  0.72028E+05
 0.59620003E+02 -0.93500E+04
 0.59670002E+02 -0.45227E+05
 0.59720001E+02 -0.33873E+05
 0.59770000E+02 -0.37896E+05
 0.59820000E+02 -0.47712E+05
 0.59870003E+02 -0.77980E+05
 0.59920002E+02 -0.13110E+06
 0.59970001E+02 -0.18890E+06
 0.60020000E+02 -0.23892E+06
 0.60070000E+02 -0.29900E+06
 0.60120003E+02 -0.31572E+06
 0.60170002E+02 -0.28806E+06
 0.60220001E+02 -0.26911E+06
 0.60270000E+02 -0.23876E+06
 0.60320000E+02 -0.21091E+06
 0.60370003E+02 -0.17864E+06
 0.60420002E+02 -0.14185E+06
 0.60470001E+02 -0.12730E+06
 0.60520000E+02 -0.13118E+06
 0.60570000E+02 -0.12811E+06
 0.60620003E+02 -0.12119E+06
 0.60670002E+02 -0.15009E+06
 0.60720001E+02 -0.14134E+06
 0.60770000E+02 -0.71206E+05
 0.60820000E+02 -0.66790E+04
 0.60870003E+02  0.95760E+05
 0.60920002E+02  0.17480E+06
 0.60970001E+02  0.15822E+06
 0.61020000E+02  0.10477E+06
 0.61070004E+02  0.22058E+05
 0.61119999E+02  0.16230E+05
 0.61170002E+02  0.87879E+05
 0.61220005E+02  0.78767E+05
 0.61270000E+02  0.52732E+05
 0.61320004E+02  0.37092E+05
 0.61369999E+02  0.26629E+05
 0.61420002E+02  0.41105E+05
 0.61470005E+02 -0.88320E+04
 0.61520000E+02 -0.86180E+05
 0.61570004E+02 -0.13429E+06
 0.61619999E+02 -0.13434E+06
 0.61670002E+02 -0.79239E+05
 0.61720005E+02  0.27460E+04
 0.61770000E+02  0.68396E+05
 0.61820004E+02  0.86847E+05
 0.61869999E+02  0.11151E+06
 0.61920002E+02  0.96337E+05
 0.61970005E+02  0.43166E+05
 0.62020000E+02  0.38470E+05
 0.62070004E+02  0.45097E+05
 0.62119999E+02  0.72582E+05
 0.62170002E+02  0.11497E+06
 0.62220005E+02  0.13553E+06
 0.62270000E+02  0.16336E+06
 0.62320004E+02  0.18922E+06
 0.62369999E+02  0.19908E+06
 0.62420002E+02  0.18871E+06
 0.62470005E+02  0.20143E+06
 0.62520000E+02  0.24666E+06
 0.62570004E+02  0.22359E+06
 0.62619999E+02  0.14068E+06
 0.62670002E+02  0.72101E+05
 0.62720005E+02  0.34013E+05
 0.62770000E+02  0.58678E+05
 0.62820004E+02  0.13555E+06
 0.62869999E+02  0.20685E+06
 0.62920002E+02  0.23978E+06
 0.62970005E+02  0.21839E+06
 0.63020000E+02  0.16330E+06
 0.63070004E+02  0.95034E+05
 0.63119999E+02  0.71140E+05
 0.63170002E+02  0.13258E+06
 0.63220005E+02  0.21541E+06
 0.63270000E+02  0.23917E+06
 0.63320004E+02  0.17992E+06
 0.63369999E+02  0.13954E+06
 0.63420002E+02  0.17785E+06
 0.63470005E+02  0.21354E+06
 0.63520000E+02  0.20026E+06
 0.63570004E+02  0.18117E+06
 0.63619999E+02  0.14952E+06
 0.63670002E+02  0.69556E+05
 0.63720005E+02 -0.22374E+05
 0.63770000E+02 -0.10242E+06
 0.63820004E+02 -0.13228E+06
 0.63869999E+02 -0.88602E+05
 0.63920002E+02 -0.17203E+05
 0.63970005E+02  0.36898E+05
 0.64019997E+02  0.65309E+05
 0.64070000E+02  0.10967E+06
 0.64119995E+02  0.17375E+06
 0.64169998E+02  0.22149E+06
 0.64220001E+02  0.25929E+06
 0.64269997E+02  0.26257E+06
 0.64320000E+02  0.21846E+06
 0.64369995E+02  0.17989E+06
 0.64419998E+02  0.14583E+06
 0.64470001E+02  0.11508E+06
 0.64519997E+02  0.10366E+06
 0.64570000E+02  0.10147E+06
 0.64619995E+02  0.10168E+06
 0.64669998E+02  0.83133E+05
 0.64720001E+02  0.68539E+05
 0.64769997E+02  0.10013E+06
 0.64820000E+02  0.18771E+06
 0.64869995E+02  0.28554E+06
 0.64919998E+02  0.28719E+06
 0.64970001E+02  0.19490E+06
 0.65019997E+02  0.99607E+05
 0.65070000E+02  0.82960E+04
 0.65119995E+02 -0.55925E+05
 0.65169998E+02 -0.65759E+05
 0.65220001E+02 -0.67425E+05
 0.65269997E+02 -0.39832E+05
 0.65320000E+02  0.19171E+05
 0.65369995E+02  0.72514E+05
 0.65419998E+02  0.12788E+06
 0.65470001E+02  0.13381E+06
 0.65519997E+02  0.99318E+05
 0.65570000E+02  0.93511E+05
 0.65619995E+02  0.96750E+05
 0.65669998E+02  0.81364E+05
 0.65720001E+02  0.47630E+05
 0.65769997E+02  0.20661E+05
 0.65820000E+02  0.26154E+05
 0.65869995E+02  0.54470E+05
 0.65919998E+02  0.60328E+05
 0.65970001E+02  0.37956E+05
 0.66019997E+02  0.45097E+05
 0.66070000E+02  0.92171E+05
 0.66119995E+02  0.14062E+06
 0.66169998E+02  0.15848E+06
 0.66220001E+02  0.14966E+06
 0.66269997E+02  0.11953E+06
 0.66320000E+02  0.71713E+05
 0.66369995E+02  0.23629E+05
 0.66419998E+02 -0.16375E+05
 0.66470001E+02 -0.39873E+05
 0.66519997E+02 -0.59762E+05
 0.66570000E+02 -0.93376E+05
 0.66619995E+02 -0.14022E+06
 0.66669998E+02 -0.18801E+06
 0.66720001E+02 -0.21624E+06
 0.66769997E+02 -0.22784E+06
 0.66820000E+02 -0.24188E+06
 0.66869995E+02 -0.25246E+06
 0.66919998E+02 -0.24296E+06
 0.66970001E+02 -0.21876E+06
 0.67019997E+02 -0.21119E+06
 0.67070000E+02 -0.19036E+06
 0.67119995E+02 -0.14852E+06
 0.67169998E+02 -0.14022E+06
 0.67220001E+02 -0.11325E+06
 0.67269997E+02 -0.79849E+05
 0.67320000E+02 -0.84589E+05
 0.67369995E+02 -0.10227E+06
 0.67419998E+02 -0.12433E+06
 0.67470001E+02 -0.14301E+06
 0.67519997E+02 -0.17278E+06
 0.67570000E+02 -0.16946E+06
 0.67619995E+02 -0.14483E+06
 0.67669998E+02 -0.14159E+06
 0.67720001E+02 -0.14392E+06
 0.67769997E+02 -0.16437E+06
 0.67820000E+02 -0.19303E+06
 0.67869995E+02 -0.22175E+06
 0.67919998E+02 -0.27346E+06
 0.67970001E+02 -0.33625E+06
 0.68019997E+02 -0.34809E+06
 0.68070000E+02 -0.30476E+06
 0.68119995E+02 -0.25147E+06
 0.68169998E+02 -0.21659E+06
 0.68220001E+02 -0.21517E+06
 0.68269997E+02 -0.24894E+06
 0.68320000E+02 -0.29505E+06
 0.68369995E+02 -0.32134E+06
 0.68419998E+02 -0.33536E+06
 0.68470001E+02 -0.32930E+06
 0.68519997E+02 -0.27608E+06
 0.68570000E+02 -0.20570E+06
 0.68619995E+02 -0.14769E+06
 0.68669998E+02 -0.11070E+06
 0.68720001E+02 -0.95525E+05
 0.68769997E+02 -0.77041E+05
 0.68820000E+02 -0.55642E+05
 0.68869995E+02 -0.31181E+05
 0.68919998E+02 -0.25412E+05
 0.68970001E+02 -0.46882E+05
 0.69019997E+02 -0.46338E+05
 0.69070000E+02 -0.15478E+05
 0.69119995E+02 -0.72840E+04
 0.69169998E+02 -0.64838E+05
 0.69220001E+02 -0.15470E+06
 0.69269997E+02 -0.22688E+06
 0.69320000E+02 -0.25377E+06
 0.69369995E+02 -0.25357E+06
 0.69419998E+02 -0.24010E+06
 0.69470001E+02 -0.19629E+06
 0.69519997E+02 -0.16257E+06
 0.69570000E+02 -0.16085E+06
 0.69619995E+02 -0.16607E+06
 0.69669998E+02 -0.15534E+06
 0.69720001E+02 -0.13757E+06
 0.69769997E+02 -0.14863E+06
 0.69820000E+02 -0.17269E+06
 0.69869995E+02 -0.20115E+06
 0.69919998E+02 -0.23379E+06
 0.69970001E+02 -0.22044E+06
 0.70019997E+02 -0.16496E+06
 0.70070000E+02 -0.12073E+06
 0.70119995E+02 -0.83440E+05
 0.70169998E+02 -0.49548E+05
 0.70220001E+02 -0.49647E+05
 0.70269997E+02 -0.49647E+05
 0.70320000E+02 -0.48137E+05
 0.70369995E+02 -0.64539E+05
 0.70419998E+02 -0.77422E+05
 0.70470001E+02 -0.97529E+05
 0.70519997E+02 -0.11627E+06
 0.70570000E+02 -0.15707E+06
 0.70619995E+02 -0.21704E+06
 0.70669998E+02 -0.26576E+06
 0.70720001E+02 -0.31558E+06
 0.70769997E+02 -0.34848E+06
 0.70820000E+02 -0.35741E+06
 0.70869995E+02 -0.31785E+06
 0.70919998E+02 -0.24590E+06
 0.70970001E+02 -0.18863E+06
 0.71019997E+02 -0.15608E+06
 0.71070000E+02 -0.15553E+06
 0.71119995E+02 -0.12850E+06
 0.71169998E+02 -0.92976E+05
 0.71220001E+02 -0.93291E+05
 0.71269997E+02 -0.11441E+06
 0.71320000E+02 -0.16715E+06
 0.71369995E+02 -0.20896E+06
 0.71419998E+02 -0.22993E+06
 0.71470001E+02 -0.23514E+06
 0.71519997E+02 -0.21682E+06
 0.71570000E+02 -0.20681E+06
 0.71619995E+02 -0.19672E+06
 0.71669998E+02 -0.16575E+06
 0.71720001E+02 -0.13221E+06
 0.71769997E+02 -0.10362E+06
 0.71820000E+02 -0.87671E+05
 0.71869995E+02 -0.11844E+06
 0.71919998E+02 -0.15573E+06
 0.71970001E+02 -0.16455E+06
 0.72019997E+02 -0.16831E+06
 0.72070000E+02 -0.17642E+06
 0.72119995E+02 -0.19774E+06
 0.72169998E+02 -0.22767E+06
 0.72220001E+02 -0.26080E+06
 0.72269997E+02 -0.27480E+06
 0.72320000E+02 -0.25650E+06
 0.72369995E+02 -0.21737E+06
 0.72419998E+02 -0.16286E+06
 0.72470001E+02 -0.97127E+05
 0.72519997E+02 -0.44317E+05
 0.72570000E+02 -0.24451E+05
 0.72619995E+02 -0.13851E+05
 0.72669998E+02 -0.63300E+04
 0.72720001E+02 -0.20027E+05
 0.72769997E+02 -0.60088E+05
 0.72820000E+02 -0.10720E+06
 0.72869995E+02 -0.13322E+06
 0.72919998E+02 -0.12866E+06
 0.72970001E+02 -0.93572E+05
 0.73019997E+02 -0.33189E+05
 0.73070000E+02  0.34708E+05
 0.73119995E+02  0.94834E+05
 0.73169998E+02  0.14721E+06
 0.73220001E+02  0.19639E+06
 0.73269997E+02  0.23267E+06
 0.73320000E+02  0.24328E+06
 0.73369995E+02  0.23447E+06
 0.73419998E+02  0.21114E+06
 0.73470001E+02  0.19916E+06
 0.73519997E+02  0.22420E+06
 0.73570000E+02  0.25060E+06
 0.73619995E+02  0.25737E+06
 0.73669998E+02  0.26876E+06
 0.73720001E+02  0.28032E+06
 0.73769997E+02  0.27930E+06
 0.73820000E+02  0.25329E+06
 0.73869995E+02  0.21368E+06
 0.73919998E+02  0.19028E+06
 0.73970001E+02  0.17396E+06
 0.74019997E+02  0.17893E+06
 0.74070000E+02  0.20538E+06
 0.74119995E+02  0.21926E+06
 0.74169998E+02  0.21314E+06
 0.74220001E+02  0.19213E+06
 0.74269997E+02  0.17326E+06
 0.74320000E+02  0.17470E+06
 0.74369995E+02  0.17906E+06
 0.74419998E+02  0.17145E+06
 0.74470001E+02  0.16784E+06
 0.74519997E+02  0.16864E+06
 0.74570000E+02  0.18403E+06
 0.74619995E+02  0.21078E+06
 0.74669998E+02  0.23307E+06
 0.74720001E+02  0.25975E+06
 0.74769997E+02  0.29070E+06
 0.74820000E+02  0.32518E+06
 0.74869995E+02  0.35614E+06
 0.74919998E+02  0.36475E+06
 0.74970001E+02  0.33773E+06
 0.75019997E+02  0.29242E+06
 0.75070000E+02  0.24956E+06
 0.75119995E+02  0.21658E+06
 0.75169998E+02  0.20158E+06
 0.75220001E+02  0.18314E+06
 0.75269997E+02  0.16978E+06
 0.75320000E+02  0.17715E+06
 0.75369995E+02  0.17627E+06
 0.75419998E+02  0.16946E+06
 0.75470001E+02  0.14793E+06
 0.75519997E+02  0.10728E+06
 0.75570000E+02  0.70722E+05
 0.75619995E+02  0.32900E+05
 0.75669998E+02  0.29280E+05
 0.75720001E+02  0.69887E+05
 0.75769997E+02  0.10673E+06
 0.75820000E+02  0.12372E+06
 0.75869995E+02  0.11995E+06
 0.75919998E+02  0.12141E+06
 0.75970001E+02  0.15034E+06
 0.76019997E+02  0.19380E+06
 0.76070000E+02  0.25596E+06
 0.76119995E+02  0.34527E+06
 0.76169998E+02  0.42366E+06
 0.76220001E+02  0.47103E+06
 0.76269997E+02  0.49993E+06
 0.76320000E+02  0.49590E+06
 0.76369995E+02  0.45750E+06
 0.76419998E+02  0.39283E+06
 0.76470001E+02  0.32225E+06
 0.76519997E+02  0.26652E+06
 0.76570000E+02  0.22694E+06
 0.76619995E+02  0.22009E+06
 0.76669998E+02  0.23125E+06
 0.76720001E+02  0.24039E+06
 0.76769997E+02  0.25550E+06
 0.76820000E+02  0.27782E+06
 0.76869995E+02  0.29615E+06
 0.76919998E+02  0.29885E+06
 0.76970001E+02  0.30662E+06
 0.77019997E+02  0.32250E+06
 0.77070000E+02  0.30642E+06
 0.77119995E+02  0.25129E+06
 0.77169998E+02  0.18926E+06
 0.77220001E+02  0.13384E+06
 0.77269997E+02  0.98344E+05
 0.77320000E+02  0.88139E+05
 0.77369995E+02  0.81526E+05
 0.77419998E+02  0.81595E+05
 0.77470001E+02  0.84886E+05
 0.77519997E+02  0.81678E+05
 0.77570000E+02  0.80736E+05
 0.77619995E+02  0.81191E+05
 0.77669998E+02  0.80947E+05
 0.77720001E+02  0.86558E+05
 0.77769997E+02  0.10072E+06
 0.77820000E+02  0.11432E+06
 0.77869995E+02  0.13193E+06
 0.77919998E+02  0.15005E+06
 0.77970001E+02  0.14965E+06
 0.78019997E+02  0.13421E+06
 0.78070000E+02  0.11455E+06
 0.78119995E+02  0.91340E+05
 0.78169998E+02  0.63424E+05
 0.78220001E+02  0.40012E+05
 0.78269997E+02  0.23271E+05
 0.78320000E+02  0.75350E+04
 0.78369995E+02 -0.54630E+04
 0.78419998E+02 -0.14907E+05
 0.78470001E+02 -0.25212E+05
 0.78519997E+02 -0.47193E+05
 0.78570000E+02 -0.69769E+05
 0.78619995E+02 -0.84064E+05
 0.78669998E+02 -0.11186E+06
 0.78720001E+02 -0.14966E+06
 0.78769997E+02 -0.18254E+06
 0.78820000E+02 -0.21878E+06
 0.78869995E+02 -0.24634E+06
 0.78919998E+02 -0.25773E+06
 0.78970001E+02 -0.26868E+06
 0.79019997E+02 -0.26852E+06
 0.79070000E+02 -0.26201E+06
 0.79119995E+02 -0.26588E+06
 0.79169998E+02 -0.27211E+06
 0.79220001E+02 -0.26641E+06
 0.79269997E+02 -0.24103E+06
 0.79320000E+02 -0.21094E+06
 0.79369995E+02 -0.17829E+06
 0.79419998E+02 -0.13985E+06
 0.79470001E+02 -0.10112E+06
 0.79519997E+02 -0.65063E+05
 0.79570000E+02 -0.38657E+05
 0.79619995E+02 -0.24669E+05
 0.79669998E+02 -0.34583E+05
 0.79720001E+02 -0.65025E+05
 0.79769997E+02 -0.10740E+06
 0.79820000E+02 -0.16574E+06
 0.79869995E+02 -0.22677E+06
 0.79919998E+02 -0.27807E+06
 0.79970001E+02 -0.31472E+06
 0.80019997E+02 -0.32941E+06
 0.80070000E+02 -0.33883E+06
 0.80119995E+02 -0.35292E+06
 0.80169998E+02 -0.34983E+06
 0.80220001E+02 -0.33644E+06
 0.80269997E+02 -0.32206E+06
 0.80320000E+02 -0.29850E+06
 0.80369995E+02 -0.26981E+06
 0.80419998E+02 -0.24143E+06
 0.80470001E+02 -0.22249E+06
 0.80519997E+02 -0.21522E+06
 0.80570000E+02 -0.22507E+06
 0.80619995E+02 -0.24296E+06
 0.80669998E+02 -0.25327E+06
 0.80720001E+02 -0.26113E+06
 0.80769997E+02 -0.26180E+06
 0.80820000E+02 -0.26003E+06
 0.80869995E+02 -0.25831E+06
 0.80919998E+02 -0.26080E+06
 0.80970001E+02 -0.27460E+06
 0.81019997E+02 -0.27958E+06
 0.81070000E+02 -0.28419E+06
 0.81119995E+02 -0.29160E+06
 0.81169998E+02 -0.28570E+06
 0.81220001E+02 -0.27781E+06
 0.81269997E+02 -0.25935E+06
 0.81320000E+02 -0.22037E+06
 0.81369995E+02 -0.17962E+06
 0.81419998E+02 -0.15695E+06
 0.81470001E+02 -0.15802E+06
 0.81519997E+02 -0.18458E+06
 0.81570000E+02 -0.23144E+06
 0.81619995E+02 -0.27610E+06
 0.81669998E+02 -0.30699E+06
 0.81720001E+02 -0.31874E+06
 0.81769997E+02 -0.31728E+06
 0.81820000E+02 -0.30088E+06
 0.81869995E+02 -0.25411E+06
 0.81919998E+02 -0.19476E+06
 0.81970001E+02 -0.13790E+06
 0.82019997E+02 -0.79838E+05
 0.82070000E+02 -0.17279E+05
 0.82119995E+02  0.33223E+05
 0.82169998E+02  0.53239E+05
 0.82220001E+02  0.52966E+05
 0.82269997E+02  0.28799E+05
 0.82320000E+02 -0.14754E+05
 0.82369995E+02 -0.56066E+05
 0.82419998E+02 -0.82969E+05
 0.82470001E+02 -0.84322E+05
 0.82519997E+02 -0.72415E+05
 0.82570000E+02 -0.60518E+05
 0.82619995E+02 -0.52775E+05
 0.82669998E+02 -0.57482E+05
 0.82720001E+02 -0.69184E+05
 0.82769997E+02 -0.77838E+05
 0.82820000E+02 -0.78155E+05
 0.82869995E+02 -0.94223E+05
 0.82919998E+02 -0.13354E+06
 0.82970001E+02 -0.16603E+06
 0.83019997E+02 -0.18998E+06
 0.83070000E+02 -0.19724E+06
 0.83119995E+02 -0.18771E+06
 0.83169998E+02 -0.18374E+06
 0.83220001E+02 -0.18444E+06
 0.83269997E+02 -0.17896E+06
 0.83320000E+02 -0.15783E+06
 0.83369995E+02 -0.12752E+06
 0.83419998E+02 -0.89503E+05
 0.83470001E+02 -0.47576E+05
 0.83519997E+02 -0.17968E+05
 0.83570000E+02 -0.32130E+04
 0.83619995E+02  0.86580E+04
 0.83669998E+02  0.12272E+05
 0.83720001E+02 -0.88230E+04
 0.83769997E+02 -0.32576E+05
 0.83820000E+02 -0.56396E+05
 0.83869995E+02 -0.76661E+05
 0.83919998E+02 -0.87344E+05
 0.83970001E+02 -0.10062E+06
 0.84019997E+02 -0.99797E+05
 0.84070000E+02 -0.84466E+05
 0.84119995E+02 -0.57708E+05
 0.84169998E+02 -0.33709E+05
 0.84220001E+02 -0.22006E+05
 0.84269997E+02  0.71030E+04
 0.84320000E+02  0.66160E+05
 0.84369995E+02  0.13684E+06
 0.84419998E+02  0.20000E+06
 0.84470001E+02  0.24700E+06
 0.84519997E+02  0.27753E+06
 0.84570000E+02  0.29904E+06
 0.84619995E+02  0.30058E+06
 0.84669998E+02  0.28527E+06
 0.84720001E+02  0.28540E+06
 0.84769997E+02  0.29818E+06
 0.84820000E+02  0.30914E+06
 0.84869995E+02  0.32868E+06
 0.84919998E+02  0.36118E+06
 0.84970001E+02  0.41129E+06
 0.85019997E+02  0.46686E+06
 0.85070000E+02  0.50355E+06
 0.85119995E+02  0.52258E+06
 0.85169998E+02  0.51373E+06
 0.85220001E+02  0.48674E+06
 0.85269997E+02  0.46640E+06
 0.85320000E+02  0.45117E+06
 0.85369995E+02  0.44730E+06
 0.85419998E+02  0.45439E+06
 0.85470001E+02  0.44823E+06
 0.85519997E+02  0.40492E+06
 0.85570000E+02  0.34343E+06
 0.85619995E+02  0.30572E+06
 0.85669998E+02  0.29946E+06
 0.85720001E+02  0.29680E+06
 0.85769997E+02  0.27612E+06
 0.85820000E+02  0.24061E+06
 0.85869995E+02  0.20297E+06
 0.85919998E+02  0.17251E+06
 0.85970001E+02  0.16161E+06
 0.86019997E+02  0.16930E+06
 0.86070000E+02  0.17176E+06
 0.86119995E+02  0.18629E+06
 0.86169998E+02  0.21525E+06
 0.86220001E+02  0.23488E+06
 0.86269997E+02  0.25325E+06
 0.86320000E+02  0.26223E+06
 0.86369995E+02  0.25947E+06
 0.86419998E+02  0.25130E+06
 0.86470001E+02  0.23693E+06
 0.86519997E+02  0.21247E+06
 0.86570000E+02  0.18527E+06
 0.86619995E+02  0.17183E+06
 0.86669998E+02  0.17151E+06
 0.86720001E+02  0.18375E+06
 0.86769997E+02  0.20926E+06
 0.86820000E+02  0.25538E+06
 0.86869995E+02  0.30741E+06
 0.86919998E+02  0.34225E+06
 0.86970001E+02  0.35906E+06
 0.87019997E+02  0.34570E+06
 0.87070000E+02  0.30253E+06
 0.87119995E+02  0.25601E+06
 0.87169998E+02  0.22623E+06
 0.87220001E+02  0.21022E+06
 0.87269997E+02  0.19112E+06
 0.87320000E+02  0.16298E+06
 0.87369995E+02  0.13539E+06
 0.87419998E+02  0.11426E+06
 0.87470001E+02  0.10330E+06
 0.87519997E+02  0.10096E+06
 0.87570000E+02  0.98769E+05
 0.87619995E+02  0.10248E+06
 0.87669998E+02  0.11028E+06
 0.87720001E+02  0.11438E+06
 0.87769997E+02  0.11078E+06
 0.87820000E+02  0.96713E+05
 0.87869995E+02  0.68544E+05
 0.87919998E+02  0.23310E+05
 0.87970001E+02 -0.19229E+05
 0.88019997E+02 -0.52085E+05
 0.88070000E+02 -0.75492E+05
 0.88119995E+02 -0.88893E+05
 0.88169998E+02 -0.10956E+06
 0.88220001E+02 -0.13540E+06
 0.88269997E+02 -0.15064E+06
 0.88320000E+02 -0.14268E+06
 0.88369995E+02 -0.11657E+06
 0.88419998E+02 -0.82543E+05
 0.88470001E+02 -0.37276E+05
 0.88519997E+02 -0.92000E+02
 0.88570000E+02  0.16923E+05
 0.88619995E+02  0.13368E+05
 0.88669998E+02 -0.14279E+05
 0.88720001E+02 -0.45114E+05
 0.88769997E+02 -0.83368E+05
 0.88820000E+02 -0.14464E+06
 0.88869995E+02 -0.20411E+06
 0.88919998E+02 -0.24465E+06
 0.88970001E+02 -0.27936E+06
 0.89019997E+02 -0.31286E+06
 0.89070000E+02 -0.33700E+06
 0.89119995E+02 -0.35115E+06
 0.89169998E+02 -0.35709E+06
 0.89220001E+02 -0.35940E+06
 0.89269997E+02 -0.35697E+06
 0.89320000E+02 -0.34148E+06
 0.89369995E+02 -0.32832E+06
 0.89419998E+02 -0.32822E+06
 0.89470001E+02 -0.33155E+06
 0.89519997E+02 -0.34260E+06
 0.89570000E+02 -0.35630E+06
 0.89619995E+02 -0.37128E+06
 0.89669998E+02 -0.39469E+06
 0.89720001E+02 -0.41464E+06
 0.89769997E+02 -0.42458E+06
 0.89820000E+02 -0.42032E+06
 0.89869995E+02 -0.40295E+06
 0.89919998E+02 -0.38194E+06
 0.89970001E+02 -0.36455E+06
 0.90019997E+02 -0.36407E+06
 0.90070000E+02 -0.37696E+06
 0.90119995E+02 -0.38740E+06
 0.90169998E+02 -0.39698E+06
 0.90220001E+02 -0.40051E+06
 0.90269997E+02 -0.40262E+06
 0.90320000E+02 -0.41435E+06
 0.90369995E+02 -0.41912E+06
 0.90419998E+02 -0.40944E+06
 0.90470001E+02 -0.39002E+06
 0.90519997E+02 -0.36590E+06
 0.90570000E+02 -0.34566E+06
 0.90619995E+02 -0.33634E+06
 0.90669998E+02 -0.33514E+06
 0.90720001E+02 -0.33590E+06
 0.90769997E+02 -0.32905E+06
 0.90820000E+02 -0.31460E+06
 0.90869995E+02 -0.31074E+06
 0.90919998E+02 -0.31408E+06
 0.90970001E+02 -0.32393E+06
 0.91019997E+02 -0.33708E+06
 0.91070000E+02 -0.33826E+06
 0.91119995E+02 -0.33179E+06
 0.91169998E+02 -0.31158E+06
 0.91220001E+02 -0.27412E+06
 0.91269997E+02 -0.22349E+06
 0.91320000E+02 -0.15823E+06
 0.91369995E+02 -0.96139E+05
 0.91419998E+02 -0.47899E+05
 0.91470001E+02 -0.14117E+05
 0.91519997E+02  0.82150E+04
 0.91570000E+02  0.33682E+05
 0.91619995E+02  0.55157E+05
 0.91669998E+02  0.64195E+05
 0.91720001E+02  0.68213E+05
 0.91769997E+02  0.73616E+05
 0.91820000E+02  0.82867E+05
 0.91869995E+02  0.89990E+05
 0.91919998E+02  0.95921E+05
 0.91970001E+02  0.97474E+05
 0.92019997E+02  0.95095E+05
 0.92070000E+02  0.98516E+05
 0.92119995E+02  0.10350E+06
 0.92169998E+02  0.11148E+06
 0.92220001E+02  0.11870E+06
 0.92269997E+02  0.11374E+06
 0.92320000E+02  0.98818E+05
 0.92369995E+02  0.80216E+05
 0.92419998E+02  0.62762E+05
 0.92470001E+02  0.47751E+05
 0.92519997E+02  0.32236E+05
 0.92570000E+02  0.19054E+05
 0.92619995E+02  0.19739E+05
 0.92669998E+02  0.38501E+05
 0.92720001E+02  0.64962E+05
 0.92769997E+02  0.88741E+05
 0.92820000E+02  0.11408E+06
 0.92869995E+02  0.14322E+06
 0.92919998E+02  0.16196E+06
 0.92970001E+02  0.16557E+06
 0.93019997E+02  0.16036E+06
 0.93070000E+02  0.14936E+06
 0.93119995E+02  0.14012E+06
 0.93169998E+02  0.13242E+06
 0.93220001E+02  0.13289E+06
 0.93269997E+02  0.15074E+06
 0.93320000E+02  0.17327E+06
 0.93369995E+02  0.20170E+06
 0.93419998E+02  0.23634E+06
 0.93470001E+02  0.26761E+06
 0.93519997E+02  0.30090E+06
 0.93570000E+02  0.33776E+06
 0.93619995E+02  0.36868E+06
 0.93669998E+02  0.38073E+06
 0.93720001E+02  0.38412E+06
 0.93769997E+02  0.39800E+06
 0.93820000E+02  0.41845E+06
 0.93869995E+02  0.44483E+06
 0.93919998E+02  0.46593E+06
 0.93970001E+02  0.46196E+06
 0.94019997E+02  0.44307E+06
 0.94070000E+02  0.42129E+06
 0.94119995E+02  0.40538E+06
 0.94169998E+02  0.39245E+06
 0.94220001E+02  0.37132E+06
 0.94269997E+02  0.34991E+06
 0.94320000E+02  0.32591E+06
 0.94369995E+02  0.30374E+06
 0.94419998E+02  0.29528E+06
 0.94470001E+02  0.29160E+06
 0.94519997E+02  0.28451E+06
 0.94570000E+02  0.28471E+06
 0.94619995E+02  0.30755E+06
 0.94669998E+02  0.33893E+06
 0.94720001E+02  0.36116E+06
 0.94769997E+02  0.37857E+06
 0.94820000E+02  0.39329E+06
 0.94869995E+02  0.40012E+06
 0.94919998E+02  0.39246E+06
 0.94970001E+02  0.37236E+06
 0.95019997E+02  0.33986E+06
 0.95070000E+02  0.29694E+06
 0.95119995E+02  0.25765E+06
 0.95169998E+02  0.22820E+06
 0.95220001E+02  0.21134E+06
 0.95269997E+02  0.19732E+06
 0.95320000E+02  0.18395E+06
 0.95369995E+02  0.17731E+06
 0.95419998E+02  0.16440E+06
 0.95470001E+02  0.14315E+06
 0.95519997E+02  0.11834E+06
 0.95570000E+02  0.92506E+05
 0.95619995E+02  0.67529E+05
 0.95669998E+02  0.43591E+05
 0.95720001E+02  0.16471E+05
 0.95769997E+02 -0.17944E+05
 0.95820000E+02 -0.55111E+05
 0.95869995E+02 -0.92887E+05
 0.95919998E+02 -0.13451E+06
 0.95970001E+02 -0.17761E+06
 0.96019997E+02 -0.21045E+06
 0.96070000E+02 -0.23201E+06
 0.96119995E+02 -0.23887E+06
 0.96169998E+02 -0.22995E+06
 0.96220001E+02 -0.21822E+06
 0.96269997E+02 -0.20912E+06
 0.96320000E+02 -0.20713E+06
 0.96369995E+02 -0.21375E+06
 0.96419998E+02 -0.22616E+06
 0.96470001E+02 -0.24366E+06
 0.96519997E+02 -0.26194E+06
 0.96570000E+02 -0.27476E+06
 0.96619995E+02 -0.27561E+06
 0.96669998E+02 -0.26991E+06
 0.96720001E+02 -0.26791E+06
 0.96769997E+02 -0.27238E+06
 0.96820000E+02 -0.27804E+06
 0.96869995E+02 -0.26628E+06
 0.96919998E+02 -0.24448E+06
 0.96970001E+02 -0.23065E+06
 0.97019997E+02 -0.22388E+06
 0.97070000E+02 -0.22206E+06
 0.97119995E+02 -0.22060E+06
 0.97169998E+02 -0.22223E+06
 0.97220001E+02 -0.22488E+06
 0.97269997E+02 -0.23243E+06
 0.97320000E+02 -0.24719E+06
 0.97369995E+02 -0.26139E+06
 0.97419998E+02 -0.27692E+06
 0.97470001E+02 -0.29397E+06
 0.97519997E+02 -0.31801E+06
 0.97570000E+02 -0.34508E+06
 0.97619995E+02 -0.36188E+06
 0.97669998E+02 -0.36179E+06
 0.97720001E+02 -0.34852E+06
 0.97769997E+02 -0.33053E+06
 0.97820000E+02 -0.31070E+06
 0.97869995E+02 -0.29816E+06
 0.97919998E+02 -0.29709E+06
 0.97970001E+02 -0.30033E+06
 0.98019997E+02 -0.30468E+06
 0.98070000E+02 -0.31752E+06
 0.98119995E+02 -0.33389E+06
 0.98169998E+02 -0.34286E+06
 0.98220001E+02 -0.34684E+06
 0.98269997E+02 -0.33898E+06
 0.98320000E+02 -0.31809E+06
 0.98369995E+02 -0.29466E+06
 0.98419998E+02 -0.27046E+06
 0.98470001E+02 -0.24307E+06
 0.98519997E+02 -0.21596E+06
 0.98570000E+02 -0.19659E+06
 0.98619995E+02 -0.18541E+06
 0.98669998E+02 -0.17733E+06
 0.98720001E+02 -0.15955E+06
 0.98769997E+02 -0.12886E+06
 0.98820000E+02 -0.10198E+06
 0.98869995E+02 -0.80201E+05
 0.98919998E+02 -0.57144E+05
 0.98970001E+02 -0.38562E+05
 0.99019997E+02 -0.31163E+05
 0.99070000E+02 -0.34130E+05
 0.99119995E+02 -0.33849E+05
 0.99169998E+02 -0.24049E+05
 0.99220001E+02 -0.13023E+05
 0.99269997E+02 -0.11432E+05
 0.99320000E+02 -0.13390E+05
 0.99369995E+02 -0.56420E+04
 0.99419998E+02  0.78380E+04
 0.99470001E+02  0.33034E+05
 0.99519997E+02  0.71481E+05
 0.99570000E+02  0.11212E+06
 0.99619995E+02  0.15393E+06
 0.99669998E+02  0.18891E+06
 0.99720001E+02  0.21214E+06
 0.99769997E+02  0.22624E+06
 0.99820000E+02  0.23293E+06
 0.99869995E+02  0.23505E+06
 0.99919998E+02  0.22808E+06
 0.99970001E+02  0.21174E+06
 0.10002000E+03  0.19226E+06
 0.10007000E+03  0.17176E+06
 0.10012000E+03  0.15667E+06
 0.10017000E+03  0.14976E+06
 0.10022000E+03  0.14586E+06
 0.10027000E+03  0.14677E+06
 0.10032000E+03  0.16107E+06
 0.10037000E+03  0.18186E+06
 0.10042000E+03  0.19937E+06
 0.10047000E+03  0.21834E+06
 0.10052000E+03  0.23003E+06
 0.10057000E+03  0.22740E+06
 0.10062000E+03  0.21875E+06
 0.10067000E+03  0.21093E+06
 0.10072000E+03  0.20252E+06
 0.10077000E+03  0.18473E+06
 0.10082000E+03  0.15674E+06
 0.10087000E+03  0.13077E+06
 0.10092000E+03  0.11644E+06
 0.10097000E+03  0.10764E+06
 0.10102000E+03  0.10007E+06
 0.10107000E+03  0.94039E+05
 0.10112000E+03  0.86273E+05
 0.10117000E+03  0.75340E+05
 0.10122000E+03  0.67773E+05
 0.10127000E+03  0.68736E+05
 0.10132000E+03  0.78829E+05
 0.10137000E+03  0.97651E+05
 0.10142000E+03  0.11580E+06
 0.10147000E+03  0.13237E+06
 0.10152000E+03  0.14951E+06
 0.10157000E+03  0.16496E+06
 0.10162000E+03  0.16509E+06
 0.10167000E+03  0.14438E+06
 0.10172000E+03  0.12656E+06
 0.10177000E+03  0.11985E+06
 0.10182000E+03  0.12274E+06
 0.10187000E+03  0.13603E+06
 0.10192000E+03  0.15559E+06
 0.10197000E+03  0.17631E+06
 0.10202000E+03  0.19329E+06
 0.10207000E+03  0.20540E+06
 0.10212000E+03  0.21469E+06
 0.10217000E+03  0.22165E+06
 0.10222000E+03  0.22302E+06
 0.10227000E+03  0.21966E+06
 0.10232000E+03  0.20769E+06
 0.10237000E+03  0.19030E+06
 0.10242000E+03  0.17083E+06
 0.10247000E+03  0.14562E+06
 0.10252000E+03  0.11527E+06
 0.10257000E+03  0.78830E+05
 0.10262000E+03  0.37387E+05
 0.10267000E+03 -0.71610E+04
 0.10272000E+03 -0.42153E+05
 0.10277000E+03 -0.63144E+05
 0.10282000E+03 -0.80769E+05
 0.10287000E+03 -0.10279E+06
 0.10292000E+03 -0.13019E+06
 0.10297000E+03 -0.15098E+06
 0.10302000E+03 -0.16227E+06
 0.10307000E+03 -0.16788E+06
 0.10312000E+03 -0.16954E+06
 0.10317000E+03 -0.16943E+06
 0.10322000E+03 -0.16774E+06
 0.10327000E+03 -0.16409E+06
 0.10332000E+03 -0.15398E+06
 0.10337000E+03 -0.15057E+06
 0.10342000E+03 -0.16133E+06
 0.10347000E+03 -0.16803E+06
 0.10352000E+03 -0.16624E+06
 0.10357000E+03 -0.15841E+06
 0.10362000E+03 -0.14103E+06
 0.10367000E+03 -0.11992E+06
 0.10372000E+03 -0.10127E+06
 0.10377000E+03 -0.84131E+05
 0.10382000E+03 -0.67298E+05
 0.10387000E+03 -0.46187E+05
 0.10392000E+03 -0.22050E+05
 0.10397000E+03 -0.41760E+04
 0.10402000E+03  0.61300E+04
 0.10407000E+03  0.11847E+05
 0.10412000E+03  0.14525E+05
 0.10417000E+03  0.18932E+05
 0.10422000E+03  0.28230E+05
 0.10427000E+03  0.40110E+05
 0.10432000E+03  0.53419E+05
 0.10437000E+03  0.63602E+05
 0.10442000E+03  0.67228E+05
 0.10447000E+03  0.70492E+05
 0.10452000E+03  0.72038E+05
 0.10457000E+03  0.67571E+05
 0.10462000E+03  0.54322E+05
 0.10467000E+03  0.30510E+05
 0.10472000E+03  0.31360E+04
 0.10477000E+03 -0.28107E+05
 0.10482000E+03 -0.62287E+05
 0.10487000E+03 -0.93051E+05
 0.10492000E+03 -0.11515E+06
 0.10497000E+03 -0.12296E+06
 0.10502000E+03 -0.12102E+06
 0.10507000E+03 -0.11240E+06
 0.10512000E+03 -0.97123E+05
 0.10517000E+03 -0.77639E+05
 0.10522000E+03 -0.57267E+05
 0.10527000E+03 -0.41606E+05
 0.10532000E+03 -0.33851E+05
 0.10537000E+03 -0.30533E+05
 0.10542000E+03 -0.19218E+05
 0.10547000E+03 -0.23520E+04
 0.10552000E+03  0.12051E+05
 0.10557000E+03  0.28967E+05
 0.10562000E+03  0.47135E+05
 0.10567000E+03  0.66977E+05
 0.10572000E+03  0.88133E+05
 0.10577000E+03  0.10974E+06
 0.10582000E+03  0.13457E+06
 0.10587000E+03  0.15556E+06
 0.10592000E+03  0.16255E+06
 0.10597000E+03  0.15134E+06
 0.10602000E+03  0.12842E+06
 0.10607000E+03  0.99622E+05
 0.10612000E+03  0.68899E+05
 0.10617000E+03  0.48391E+05
 0.10622000E+03  0.41290E+05
 0.10627000E+03  0.41343E+05
 0.10632000E+03  0.42328E+05
 0.10637000E+03  0.34311E+05
 0.10642000E+03  0.20353E+05
 0.10647000E+03  0.13925E+05
 0.10652000E+03  0.13000E+05
 0.10657000E+03  0.10848E+05
 0.10662000E+03  0.68050E+04
 0.10667000E+03  0.16800E+04
 0.10672000E+03  0.54600E+03
 0.10677000E+03  0.47470E+04
 0.10682000E+03  0.16674E+05
 0.10687000E+03  0.38318E+05
 0.10692000E+03  0.57996E+05
 0.10697000E+03  0.70469E+05
 0.10702000E+03  0.74596E+05
 0.10707000E+03  0.72332E+05
 0.10712000E+03  0.68350E+05
 0.10717000E+03  0.58211E+05
 0.10722000E+03  0.43864E+05
 0.10727000E+03  0.23086E+05
 0.10732000E+03 -0.13940E+04
 0.10737000E+03 -0.23346E+05
 0.10742000E+03 -0.44508E+05
 0.10747000E+03 -0.60045E+05
 0.10752000E+03 -0.70271E+05
 0.10757000E+03 -0.72605E+05
 0.10762000E+03 -0.68705E+05
 0.10767000E+03 -0.68128E+05
 0.10772000E+03 -0.68141E+05
 0.10777000E+03 -0.65659E+05
 0.10782000E+03 -0.58182E+05
 0.10787000E+03 -0.47958E+05
 0.10792000E+03 -0.45683E+05
 0.10797000E+03 -0.55594E+05
 0.10802000E+03 -0.78506E+05
 0.10807000E+03 -0.10658E+06
 0.10812000E+03 -0.12808E+06
 0.10817000E+03 -0.14792E+06
 0.10822000E+03 -0.17544E+06
 0.10827000E+03 -0.20521E+06
 0.10832000E+03 -0.22833E+06
 0.10837000E+03 -0.24773E+06
 0.10842000E+03 -0.26664E+06
 0.10847000E+03 -0.28305E+06
 0.10852000E+03 -0.28848E+06
 0.10857000E+03 -0.28238E+06
 0.10862000E+03 -0.27359E+06
 0.10867000E+03 -0.26296E+06
 0.10872000E+03 -0.25421E+06
 0.10877000E+03 -0.24383E+06
 0.10882000E+03 -0.22692E+06
 0.10887000E+03 -0.20531E+06
 0.10892000E+03 -0.18149E+06
 0.10897000E+03 -0.15850E+06
 0.10902000E+03 -0.13295E+06
 0.10907000E+03 -0.10809E+06
 0.10912000E+03 -0.89164E+05
 0.10917000E+03 -0.77575E+05
 0.10922000E+03 -0.77742E+05
 0.10927000E+03 -0.88374E+05
 0.10932000E+03 -0.98244E+05
 0.10937000E+03 -0.97412E+05
 0.10942000E+03 -0.91362E+05
 0.10947000E+03 -0.87146E+05
 0.10952000E+03 -0.81774E+05
 0.10957000E+03 -0.75234E+05
 0.10962000E+03 -0.67516E+05
 0.10967000E+03 -0.59703E+05
 0.10972000E+03 -0.48782E+05
 0.10977000E+03 -0.28135E+05
 0.10982000E+03 -0.44980E+04
 0.10987000E+03  0.19584E+05
 0.10992000E+03  0.41654E+05
 0.10997000E+03  0.50199E+05
 0.11002000E+03  0.47949E+05
 0.11007000E+03  0.49104E+05
 0.11012000E+03  0.57176E+05
 0.11017000E+03  0.69141E+05
 0.11022000E+03  0.79008E+05
 0.11027000E+03  0.80156E+05
 0.11032000E+03  0.76739E+05
 0.11037000E+03  0.67722E+05
 0.11042000E+03  0.57985E+05
 0.11047000E+03  0.56678E+05
 0.11052000E+03  0.62603E+05
 0.11057000E+03  0.72684E+05
 0.11062000E+03  0.81767E+05
 0.11067000E+03  0.88565E+05
 0.11072000E+03  0.92283E+05
 0.11077000E+03  0.95658E+05
 0.11082000E+03  0.96420E+05
 0.11087000E+03  0.94418E+05
 0.11092000E+03  0.98255E+05
 0.11097000E+03  0.10718E+06
 0.11102000E+03  0.11791E+06
 0.11107000E+03  0.12979E+06
 0.11112000E+03  0.14123E+06
 0.11117000E+03  0.14469E+06
 0.11122000E+03  0.13678E+06
 0.11127000E+03  0.12773E+06
 0.11132000E+03  0.12619E+06
 0.11137000E+03  0.12799E+06
 0.11142000E+03  0.12430E+06
 0.11147000E+03  0.11249E+06
 0.11152000E+03  0.97280E+05
 0.11157000E+03  0.78826E+05
 0.11162000E+03  0.52231E+05
 0.11167000E+03  0.26092E+05
 0.11172000E+03  0.13457E+05
 0.11177000E+03  0.11675E+05
 0.11182000E+03  0.82510E+04
 0.11187000E+03  0.30830E+04
 0.11192000E+03 -0.41300E+03
 0.11197000E+03 -0.88860E+04
 0.11202000E+03 -0.20406E+05
 0.11207000E+03 -0.29829E+05
 0.11212000E+03 -0.35900E+05
 0.11217000E+03 -0.37696E+05
 0.11222000E+03 -0.36600E+05
 0.11227000E+03 -0.32764E+05
 0.11232000E+03 -0.27444E+05
 0.11237000E+03 -0.21315E+05
 0.11242000E+03 -0.11890E+05
 0.11247000E+03  0.18510E+04
 0.11252000E+03  0.20012E+05
 0.11257000E+03  0.41580E+05
 0.11262000E+03  0.61523E+05
 0.11267000E+03  0.76586E+05
 0.11272000E+03  0.88748E+05
 0.11277000E+03  0.10175E+06
 0.11282000E+03  0.11314E+06
 0.11287000E+03  0.11470E+06
 0.11292000E+03  0.10781E+06
 0.11297000E+03  0.10324E+06
 0.11302000E+03  0.10721E+06
 0.11307000E+03  0.12063E+06
 0.11312000E+03  0.13818E+06
 0.11317000E+03  0.14826E+06
 0.11322000E+03  0.14665E+06
 0.11327000E+03  0.13841E+06
 0.11332000E+03  0.12966E+06
 0.11337000E+03  0.12288E+06
 0.11342000E+03  0.11313E+06
 0.11347000E+03  0.97959E+05
 0.11352000E+03  0.81107E+05
 0.11357000E+03  0.65743E+05
 0.11362000E+03  0.55213E+05
 0.11367000E+03  0.44193E+05
 0.11372000E+03  0.27767E+05
 0.11377000E+03  0.52440E+04
 0.11382000E+03 -0.26462E+05
 0.11387000E+03 -0.57457E+05
 0.11392000E+03 -0.75061E+05
 0.11397000E+03 -0.79848E+05
 0.11402000E+03 -0.82769E+05
 0.11407000E+03 -0.85057E+05
 0.11412000E+03 -0.81077E+05
 0.11417000E+03 -0.75517E+05
 0.11422000E+03 -0.68434E+05
 0.11427000E+03 -0.58969E+05
 0.11432000E+03 -0.51644E+05
 0.11437000E+03 -0.47784E+05
 0.11442000E+03 -0.43945E+05
 0.11447000E+03 -0.38911E+05
 0.11452000E+03 -0.34584E+05
 0.11457000E+03 -0.33259E+05
 0.11462000E+03 -0.31610E+05
 0.11467000E+03 -0.22693E+05
 0.11472000E+03 -0.15121E+05
 0.11477000E+03 -0.12337E+05
 0.11482000E+03 -0.63130E+04
 0.11487000E+03  0.19400E+03
 0.11492000E+03  0.33540E+04
 0.11497000E+03  0.63610E+04
 0.11502000E+03  0.10567E+05
 0.11507000E+03  0.17253E+05
 0.11512000E+03  0.29647E+05
 0.11517000E+03  0.42918E+05
 0.11522000E+03  0.55727E+05
 0.11527000E+03  0.68571E+05
 0.11532000E+03  0.78151E+05
 0.11537000E+03  0.84580E+05
 0.11542000E+03  0.84100E+05
 0.11547000E+03  0.78566E+05
 0.11552000E+03  0.69883E+05
 0.11557000E+03  0.58378E+05
 0.11562000E+03  0.49940E+05
 0.11567000E+03  0.38710E+05
 0.11572000E+03  0.19519E+05
 0.11577000E+03 -0.16780E+04
 0.11582000E+03 -0.18255E+05
 0.11587000E+03 -0.24497E+05
 0.11592000E+03 -0.26540E+05
 0.11597000E+03 -0.33262E+05
 0.11602000E+03 -0.41630E+05
 0.11607000E+03 -0.51312E+05
 0.11612000E+03 -0.59092E+05
 0.11617000E+03 -0.62507E+05
 0.11622000E+03 -0.64644E+05
 0.11627000E+03 -0.61119E+05
 0.11632000E+03 -0.51984E+05
 0.11637000E+03 -0.36620E+05
 0.11642000E+03 -0.21815E+05
 0.11647000E+03 -0.17553E+05
 0.11652000E+03 -0.20886E+05
 0.11657000E+03 -0.32552E+05
 0.11662000E+03 -0.48688E+05
 0.11667000E+03 -0.69442E+05
 0.11672000E+03 -0.95975E+05
 0.11677000E+03 -0.11802E+06
 0.11682000E+03 -0.13811E+06
 0.11687000E+03 -0.16180E+06
 0.11692000E+03 -0.18332E+06
 0.11697000E+03 -0.20026E+06
 0.11702000E+03 -0.21264E+06
 0.11707000E+03 -0.21909E+06
 0.11712000E+03 -0.22403E+06
 0.11717000E+03 -0.22860E+06
 0.11722000E+03 -0.22350E+06
 0.11727000E+03 -0.20484E+06
 0.11732000E+03 -0.17896E+06
 0.11737000E+03 -0.14642E+06
 0.11742000E+03 -0.11017E+06
 0.11747000E+03 -0.77977E+05
 0.11752000E+03 -0.49243E+05
 0.11757000E+03 -0.24953E+05
 0.11762000E+03 -0.42490E+04
 0.11767000E+03  0.11727E+05
 0.11772000E+03  0.24039E+05
 0.11777000E+03  0.38599E+05
 0.11782000E+03  0.49705E+05
 0.11787000E+03  0.55500E+05
 0.11792000E+03  0.57818E+05
 0.11797000E+03  0.55820E+05
 0.11802000E+03  0.48828E+05
 0.11807000E+03  0.42860E+05
 0.11812000E+03  0.47645E+05
 0.11817000E+03  0.60358E+05
 0.11822000E+03  0.73548E+05
 0.11827000E+03  0.81774E+05
 0.11832000E+03  0.82513E+05
 0.11837000E+03  0.74219E+05
 0.11842000E+03  0.60165E+05
 0.11847000E+03  0.45186E+05
 0.11852000E+03  0.30222E+05
 0.11857000E+03  0.16192E+05
 0.11862000E+03 -0.14450E+04
 0.11867000E+03 -0.27036E+05
 0.11872000E+03 -0.52583E+05
 0.11877000E+03 -0.64933E+05
 0.11882000E+03 -0.69457E+05
 0.11887000E+03 -0.75410E+05
 0.11892000E+03 -0.78834E+05
 0.11897000E+03 -0.78369E+05
 0.11902000E+03 -0.71204E+05
 0.11907000E+03 -0.53522E+05
 0.11912000E+03 -0.28004E+05
 0.11917000E+03  0.29010E+04
 0.11922000E+03  0.34730E+05
 0.11927000E+03  0.58592E+05
 0.11932000E+03  0.71818E+05
 0.11937000E+03  0.78198E+05
 0.11942000E+03  0.81720E+05
 0.11947000E+03  0.84212E+05
 0.11952000E+03  0.87022E+05
 0.11957000E+03  0.92050E+05
 0.11962000E+03  0.98180E+05
 0.11967000E+03  0.10119E+06
 0.11972000E+03  0.96073E+05
 0.11977000E+03  0.83013E+05
 0.11982000E+03  0.69690E+05
 0.11987000E+03  0.62651E+05
 0.11992000E+03  0.62175E+05
 0.11997000E+03  0.67554E+05
 0.12002000E+03  0.72003E+05
 0.12007000E+03  0.72592E+05
 0.12012000E+03  0.75539E+05
 0.12017000E+03  0.81763E+05
 0.12022000E+03  0.88887E+05
 0.12027000E+03  0.94244E+05
 0.12032000E+03  0.97456E+05
 0.12037000E+03  0.98917E+05
 0.12042000E+03  0.10072E+06
 0.12047000E+03  0.99981E+05
 0.12052000E+03  0.94677E+05
 0.12057000E+03  0.88801E+05
 0.12062000E+03  0.83880E+05
 0.12067000E+03  0.80314E+05
 0.12072000E+03  0.71565E+05
 0.12077000E+03  0.55324E+05
 0.12082000E+03  0.35541E+05
 0.12087000E+03  0.13133E+05
 0.12092000E+03 -0.12770E+05
 0.12097000E+03 -0.37299E+05
 0.12102000E+03 -0.56884E+05
 0.12107000E+03 -0.72917E+05
 0.12112000E+03 -0.80317E+05
 0.12117000E+03 -0.78957E+05
 0.12122000E+03 -0.72727E+05
 0.12127000E+03 -0.67471E+05
 0.12132000E+03 -0.68622E+05
 0.12137000E+03 -0.71813E+05
 0.12142000E+03 -0.72798E+05
 0.12147000E+03 -0.69107E+05
 0.12152000E+03 -0.63194E+05
 0.12157000E+03 -0.63207E+05
 0.12162000E+03 -0.71087E+05
 0.12167000E+03 -0.85317E+05
 0.12172000E+03 -0.97389E+05
 0.12177000E+03 -0.10630E+06
 0.12182000E+03 -0.11640E+06
 0.12187000E+03 -0.12122E+06
 0.12192000E+03 -0.12373E+06
 0.12197000E+03 -0.12695E+06
 0.12202000E+03 -0.13186E+06
 0.12207000E+03 -0.13970E+06
 0.12212000E+03 -0.14556E+06
 0.12217000E+03 -0.14797E+06
 0.12222000E+03 -0.14980E+06
 0.12227000E+03 -0.15310E+06
 0.12232000E+03 -0.15416E+06
 0.12237000E+03 -0.15436E+06
 0.12242000E+03 -0.15205E+06
 0.12247000E+03 -0.14361E+06
 0.12252000E+03 -0.13282E+06
 0.12257000E+03 -0.11835E+06
 0.12262000E+03 -0.10321E+06
 0.12267000E+03 -0.90170E+05
 0.12272000E+03 -0.80513E+05
 0.12277000E+03 -0.73297E+05
 0.12282000E+03 -0.66529E+05
 0.12287000E+03 -0.66156E+05
 0.12292000E+03 -0.69978E+05
 0.12297000E+03 -0.75724E+05
 0.12302000E+03 -0.80853E+05
 0.12307000E+03 -0.82282E+05
 0.12312000E+03 -0.79111E+05
 0.12317000E+03 -0.74005E+05
 0.12322000E+03 -0.72039E+05
 0.12327000E+03 -0.68532E+05
 0.12332000E+03 -0.62648E+05
 0.12337000E+03 -0.51982E+05
 0.12342000E+03 -0.40119E+05
 0.12347000E+03 -0.33969E+05
 0.12352000E+03 -0.25737E+05
 0.12357000E+03 -0.14703E+05
 0.12362000E+03 -0.52390E+04
 0.12367000E+03  0.51890E+04
 0.12372000E+03  0.16164E+05
 0.12377000E+03  0.29046E+05
 0.12382000E+03  0.43731E+05
 0.12387000E+03  0.55172E+05
 0.12392000E+03  0.68959E+05
 0.12397000E+03  0.83193E+05
 0.12402000E+03  0.92354E+05
 0.12407000E+03  0.95214E+05
 0.12412000E+03  0.93872E+05
 0.12417000E+03  0.96299E+05
 0.12422000E+03  0.92466E+05
 0.12427000E+03  0.83330E+05
 0.12432000E+03  0.76565E+05
 0.12437000E+03  0.69269E+05
 0.12442000E+03  0.63726E+05
 0.12447000E+03  0.63495E+05
 0.12452000E+03  0.74857E+05
 0.12457000E+03  0.90608E+05
 0.12462000E+03  0.10315E+06
 0.12467000E+03  0.11207E+06
 0.12472000E+03  0.11920E+06
 0.12477000E+03  0.12851E+06
 0.12482000E+03  0.14016E+06
 0.12487000E+03  0.15190E+06
 0.12492000E+03  0.15630E+06
 0.12497000E+03  0.15755E+06
 0.12502000E+03  0.15684E+06
 0.12507000E+03  0.14898E+06
 0.12512000E+03  0.13228E+06
 0.12517001E+03  0.10858E+06
 0.12521999E+03  0.87426E+05
 0.12527000E+03  0.68616E+05
 0.12532000E+03  0.49144E+05
 0.12537000E+03  0.25819E+05
 0.12542001E+03  0.33420E+04
 0.12546999E+03 -0.14790E+05
 0.12552000E+03 -0.35805E+05
 0.12557000E+03 -0.52169E+05
 0.12562000E+03 -0.58083E+05
 0.12567001E+03 -0.56007E+05
 0.12571999E+03 -0.52798E+05
 0.12577000E+03 -0.55480E+05
 0.12582000E+03 -0.54883E+05
 0.12587000E+03 -0.45813E+05
 0.12592001E+03 -0.36519E+05
 0.12596999E+03 -0.30843E+05
 0.12602000E+03 -0.25632E+05
 0.12607000E+03 -0.17166E+05
 0.12612000E+03 -0.63330E+04
 0.12617001E+03  0.21390E+04
 0.12621999E+03  0.10951E+05
 0.12627000E+03  0.22379E+05
 0.12632000E+03  0.27910E+05
 0.12637000E+03  0.24474E+05
 0.12642001E+03  0.15953E+05
 0.12646999E+03  0.52620E+04
 0.12652000E+03 -0.49260E+04
 0.12657000E+03 -0.15698E+05
 0.12662000E+03 -0.23109E+05
 0.12667001E+03 -0.24392E+05
 0.12671999E+03 -0.24554E+05
 0.12677000E+03 -0.20784E+05
 0.12682000E+03 -0.17662E+05
 0.12687000E+03 -0.21267E+05
 0.12692001E+03 -0.29893E+05
 0.12696999E+03 -0.46178E+05
 0.12702000E+03 -0.64594E+05
 0.12707000E+03 -0.80700E+05
 0.12712000E+03 -0.93732E+05
 0.12717001E+03 -0.10715E+06
 0.12721999E+03 -0.12466E+06
 0.12727000E+03 -0.13380E+06
 0.12732000E+03 -0.13118E+06
 0.12737000E+03 -0.12258E+06
 0.12742001E+03 -0.10710E+06
 0.12746999E+03 -0.92938E+05
 0.12752000E+03 -0.85450E+05
 0.12757000E+03 -0.78195E+05
 0.12762000E+03 -0.71584E+05
 0.12767001E+03 -0.65776E+05
 0.12771999E+03 -0.64718E+05
 0.12777000E+03 -0.68128E+05
 0.12782000E+03 -0.61474E+05
 0.12787000E+03 -0.44385E+05
 0.12792001E+03 -0.21226E+05
 0.12796999E+03  0.24050E+04
 0.12802000E+03  0.19948E+05
 0.12807001E+03  0.31831E+05
 0.12812001E+03  0.37367E+05
 0.12817001E+03  0.41472E+05
 0.12822000E+03  0.44824E+05
 0.12827000E+03  0.48688E+05
 0.12832001E+03  0.58106E+05
 0.12837001E+03  0.69008E+05
 0.12842001E+03  0.73384E+05
 0.12847000E+03  0.71536E+05
 0.12852000E+03  0.74428E+05
 0.12857001E+03  0.79330E+05
 0.12862001E+03  0.81345E+05
 0.12867001E+03  0.85842E+05
 0.12872000E+03  0.90253E+05
 0.12877000E+03  0.91565E+05
 0.12882001E+03  0.91196E+05
 0.12887001E+03  0.93002E+05
 0.12892001E+03  0.94031E+05
 0.12897000E+03  0.93772E+05
 0.12902000E+03  0.96226E+05
 0.12907001E+03  0.96961E+05
 0.12912001E+03  0.96427E+05
 0.12917001E+03  0.96423E+05
 0.12922000E+03  0.98619E+05
 0.12927000E+03  0.10273E+06
 0.12932001E+03  0.11042E+06
 0.12937001E+03  0.12227E+06
 0.12942001E+03  0.13006E+06
 0.12947000E+03  0.13306E+06
 0.12952000E+03  0.13432E+06
 0.12957001E+03  0.13563E+06
 0.12962001E+03  0.13871E+06
 0.12967001E+03  0.14228E+06
 0.12972000E+03  0.14270E+06
 0.12977000E+03  0.14420E+06
 0.12982001E+03  0.14799E+06
 0.12987001E+03  0.14859E+06
 0.12992001E+03  0.14719E+06
 0.12997000E+03  0.13947E+06
 0.13002000E+03  0.12773E+06
 0.13007001E+03  0.12385E+06
 0.13012001E+03  0.12542E+06
 0.13017001E+03  0.12666E+06
 0.13022000E+03  0.13043E+06
 0.13027000E+03  0.13079E+06
 0.13032001E+03  0.12284E+06
 0.13037001E+03  0.11330E+06
 0.13042001E+03  0.10272E+06
 0.13047000E+03  0.89186E+05
 0.13052000E+03  0.73033E+05
 0.13057001E+03  0.56871E+05
 0.13062001E+03  0.40322E+05
 0.13067001E+03  0.22506E+05
 0.13072000E+03  0.10175E+05
 0.13077000E+03 -0.25090E+04
 0.13082001E+03 -0.21163E+05
 0.13087001E+03 -0.37740E+05
 0.13092001E+03 -0.49501E+05
 0.13097000E+03 -0.52558E+05
 0.13102000E+03 -0.51580E+05
 0.13107001E+03 -0.54352E+05
 0.13112001E+03 -0.55146E+05
 0.13117001E+03 -0.50871E+05
 0.13122000E+03 -0.43856E+05
 0.13127000E+03 -0.39281E+05
 0.13132001E+03 -0.32862E+05
 0.13137001E+03 -0.22451E+05
 0.13142001E+03 -0.12380E+05
 0.13147000E+03  0.24050E+04
 0.13152000E+03  0.17724E+05
 0.13157001E+03  0.33759E+05
 0.13162001E+03  0.51950E+05
 0.13167001E+03  0.65807E+05
 0.13172000E+03  0.81607E+05
 0.13177000E+03  0.96912E+05
 0.13182001E+03  0.10617E+06
 0.13187001E+03  0.11020E+06
 0.13192001E+03  0.10853E+06
 0.13197000E+03  0.10661E+06
 0.13202000E+03  0.10562E+06
 0.13207001E+03  0.10650E+06
 0.13212001E+03  0.10986E+06
 0.13217001E+03  0.11246E+06
 0.13222000E+03  0.11174E+06
 0.13227000E+03  0.10462E+06
 0.13232001E+03  0.93696E+05
 0.13237001E+03  0.83053E+05
 0.13242001E+03  0.69848E+05
 0.13247000E+03  0.51331E+05
 0.13252000E+03  0.27915E+05
 0.13257001E+03  0.11090E+04
 0.13262001E+03 -0.26119E+05
 0.13267001E+03 -0.55833E+05
 0.13272000E+03 -0.90149E+05
 0.13277000E+03 -0.12815E+06
 0.13282001E+03 -0.16869E+06
 0.13287001E+03 -0.20650E+06
 0.13292001E+03 -0.24125E+06
 0.13297000E+03 -0.27346E+06
 0.13302000E+03 -0.29843E+06
 0.13307001E+03 -0.31515E+06
 0.13312001E+03 -0.32508E+06
 0.13317001E+03 -0.33013E+06
 0.13322000E+03 -0.33294E+06
 0.13327000E+03 -0.33528E+06
 0.13332001E+03 -0.33385E+06
 0.13337001E+03 -0.32659E+06
 0.13342001E+03 -0.31616E+06
 0.13347000E+03 -0.30255E+06
 0.13352000E+03 -0.28752E+06
 0.13357001E+03 -0.27472E+06
 0.13362001E+03 -0.26412E+06
 0.13367001E+03 -0.25421E+06
 0.13372000E+03 -0.24665E+06
 0.13377000E+03 -0.24195E+06
 0.13382001E+03 -0.23658E+06
 0.13387001E+03 -0.23141E+06
 0.13392001E+03 -0.22947E+06
 0.13397000E+03 -0.22810E+06
 0.13402000E+03 -0.22713E+06
 0.13407001E+03 -0.22819E+06
 0.13412001E+03 -0.23020E+06
 0.13417001E+03 -0.23550E+06
 0.13422000E+03 -0.24138E+06
 0.13427000E+03 -0.24613E+06
 0.13432001E+03 -0.25664E+06
 0.13437001E+03 -0.27000E+06
 0.13442001E+03 -0.27826E+06
 0.13447000E+03 -0.27972E+06
 0.13452000E+03 -0.27362E+06
 0.13457001E+03 -0.26135E+06
 0.13462001E+03 -0.24628E+06
 0.13467001E+03 -0.23111E+06
 0.13472000E+03 -0.21415E+06
 0.13477000E+03 -0.19612E+06
 0.13482001E+03 -0.17889E+06
 0.13487001E+03 -0.16069E+06
 0.13492001E+03 -0.14496E+06
 0.13497000E+03 -0.13283E+06
 0.13502000E+03 -0.12207E+06
 0.13507001E+03 -0.10932E+06
 0.13512001E+03 -0.94203E+05
 0.13517001E+03 -0.77630E+05
 0.13522000E+03 -0.58080E+05
 0.13527000E+03 -0.39671E+05
 0.13532001E+03 -0.24467E+05
 0.13537001E+03 -0.10099E+05
 0.13542001E+03  0.54390E+04
 0.13547000E+03  0.20807E+05
 0.13552000E+03  0.36378E+05
 0.13557001E+03  0.54623E+05
 0.13562001E+03  0.71134E+05
 0.13567001E+03  0.80680E+05
 0.13572000E+03  0.82919E+05
 0.13577000E+03  0.87185E+05
 0.13582001E+03  0.97574E+05
 0.13587001E+03  0.10631E+06
 0.13592001E+03  0.11284E+06
 0.13597000E+03  0.11699E+06
 0.13602000E+03  0.12298E+06
 0.13607001E+03  0.13360E+06
 0.13612001E+03  0.14229E+06
 0.13617001E+03  0.15023E+06
 0.13622000E+03  0.15835E+06
 0.13627000E+03  0.16478E+06
 0.13632001E+03  0.17007E+06
 0.13637001E+03  0.17590E+06
 0.13642001E+03  0.18008E+06
 0.13647000E+03  0.18117E+06
 0.13652000E+03  0.18213E+06
 0.13657001E+03  0.18320E+06
 0.13662001E+03  0.18584E+06
 0.13667001E+03  0.18736E+06
 0.13672000E+03  0.18634E+06
 0.13677000E+03  0.18677E+06
 0.13682001E+03  0.19031E+06
 0.13687001E+03  0.19618E+06
 0.13692001E+03  0.20138E+06
 0.13697000E+03  0.20693E+06
 0.13702000E+03  0.21281E+06
 0.13707001E+03  0.21829E+06
 0.13712001E+03  0.22252E+06
 0.13717001E+03  0.22285E+06
 0.13722000E+03  0.22288E+06
 0.13727000E+03  0.22241E+06
 0.13732001E+03  0.22091E+06
 0.13737001E+03  0.21971E+06
 0.13742001E+03  0.21695E+06
 0.13747000E+03  0.21278E+06
 0.13752000E+03  0.20380E+06
 0.13757001E+03  0.19200E+06
 0.13762001E+03  0.18100E+06
 0.13767001E+03  0.16991E+06
 0.13772000E+03  0.15952E+06
 0.13777000E+03  0.14750E+06
 0.13782001E+03  0.13499E+06
 0.13787001E+03  0.12255E+06
 0.13792001E+03  0.11042E+06
 0.13797000E+03  0.10007E+06
 0.13802000E+03  0.88498E+05
 0.13807001E+03  0.76423E+05
 0.13812001E+03  0.64556E+05
 0.13817001E+03  0.50195E+05
 0.13822000E+03  0.33324E+05
 0.13827000E+03  0.15497E+05
 0.13832001E+03 -0.22310E+04
 0.13837001E+03 -0.15970E+05
 0.13842001E+03 -0.24119E+05
 0.13847000E+03 -0.25950E+05
 0.13852000E+03 -0.20291E+05
 0.13857001E+03 -0.11009E+05
 0.13862001E+03  0.15850E+04
 0.13867001E+03  0.14927E+05
 0.13872000E+03  0.26173E+05
 0.13877000E+03  0.36426E+05
 0.13882001E+03  0.43890E+05
 0.13887001E+03  0.50858E+05
 0.13892001E+03  0.57110E+05
 0.13897000E+03  0.59016E+05
 0.13902000E+03  0.55503E+05
 0.13907001E+03  0.48594E+05
 0.13912001E+03  0.40283E+05
 0.13917001E+03  0.29169E+05
 0.13922000E+03  0.18281E+05
 0.13927000E+03  0.69270E+04
 0.13932001E+03 -0.86550E+04
 0.13937001E+03 -0.27360E+05
 0.13942001E+03 -0.48480E+05
 0.13947000E+03 -0.68918E+05
 0.13952000E+03 -0.85018E+05
 0.13957001E+03 -0.97108E+05
 0.13962001E+03 -0.10535E+06
 0.13967001E+03 -0.10690E+06
 0.13972000E+03 -0.10378E+06
 0.13977000E+03 -0.10182E+06
 0.13982001E+03 -0.10024E+06
 0.13987001E+03 -0.96946E+05
 0.13992001E+03 -0.93094E+05
 0.13997000E+03 -0.89410E+05
 0.14002000E+03 -0.86687E+05
 0.14007001E+03 -0.85218E+05
 0.14012001E+03 -0.85129E+05
 0.14017001E+03 -0.86124E+05
 0.14022000E+03 -0.86585E+05
 0.14027000E+03 -0.86250E+05
 0.14032001E+03 -0.83275E+05
 0.14037001E+03 -0.76148E+05
 0.14042001E+03 -0.67362E+05
 0.14047000E+03 -0.61554E+05
 0.14052000E+03 -0.62208E+05
 0.14057001E+03 -0.66995E+05
 0.14062001E+03 -0.73881E+05
 0.14067001E+03 -0.81758E+05
 0.14072000E+03 -0.88189E+05
 0.14077000E+03 -0.93274E+05
 0.14082001E+03 -0.95830E+05
 0.14087001E+03 -0.96556E+05
 0.14092001E+03 -0.98333E+05
 0.14097000E+03 -0.98528E+05
 0.14102000E+03 -0.96115E+05
 0.14107001E+03 -0.97106E+05
 0.14112001E+03 -0.10321E+06
 0.14117001E+03 -0.11121E+06
 0.14122000E+03 -0.12098E+06
 0.14127000E+03 -0.13417E+06
 0.14132001E+03 -0.14975E+06
 0.14137001E+03 -0.16187E+06
 0.14142001E+03 -0.16805E+06
 0.14147000E+03 -0.16917E+06
 0.14152000E+03 -0.16536E+06
 0.14157001E+03 -0.15817E+06
 0.14162001E+03 -0.14845E+06
 0.14167001E+03 -0.13717E+06
 0.14172000E+03 -0.12248E+06
 0.14177000E+03 -0.10503E+06
 0.14182001E+03 -0.87212E+05
 0.14187001E+03 -0.67618E+05
 0.14192001E+03 -0.48034E+05
 0.14197000E+03 -0.30599E+05
 0.14202000E+03 -0.15130E+05
 0.14207001E+03  0.31800E+03
 0.14212001E+03  0.15693E+05
 0.14217001E+03  0.28830E+05
 0.14222000E+03  0.40888E+05
 0.14227000E+03  0.53812E+05
 0.14232001E+03  0.69463E+05
 0.14237001E+03  0.87322E+05
 0.14242001E+03  0.10372E+06
 0.14247000E+03  0.11700E+06
 0.14252000E+03  0.12699E+06
 0.14257001E+03  0.13797E+06
 0.14262001E+03  0.15293E+06
 0.14267001E+03  0.16696E+06
 0.14272000E+03  0.17978E+06
 0.14277000E+03  0.19185E+06
 0.14282001E+03  0.20260E+06
 0.14287001E+03  0.21508E+06
 0.14292001E+03  0.22745E+06
 0.14297000E+03  0.23913E+06
 0.14302000E+03  0.25236E+06
 0.14307001E+03  0.26465E+06
 0.14312001E+03  0.27222E+06
 0.14317001E+03  0.27443E+06
 0.14322000E+03  0.27454E+06
 0.14327000E+03  0.27658E+06
 0.14332001E+03  0.27886E+06
 0.14337001E+03  0.27894E+06
 0.14342001E+03  0.27670E+06
 0.14347000E+03  0.27180E+06
 0.14352000E+03  0.26876E+06
 0.14357001E+03  0.26382E+06
 0.14362001E+03  0.25314E+06
 0.14367001E+03  0.24464E+06
 0.14372000E+03  0.23728E+06
 0.14377000E+03  0.22762E+06
 0.14382001E+03  0.21780E+06
 0.14387001E+03  0.21008E+06
 0.14392001E+03  0.20533E+06
 0.14397000E+03  0.20052E+06
 0.14402000E+03  0.19338E+06
 0.14407001E+03  0.18333E+06
 0.14412001E+03  0.16854E+06
 0.14417001E+03  0.14960E+06
 0.14422000E+03  0.13052E+06
 0.14427000E+03  0.11277E+06
 0.14432001E+03  0.94314E+05
 0.14437001E+03  0.71864E+05
 0.14442001E+03  0.46573E+05
 0.14447000E+03  0.21142E+05
 0.14452000E+03 -0.50260E+04
 0.14457001E+03 -0.30647E+05
 0.14462001E+03 -0.54412E+05
 0.14467001E+03 -0.74262E+05
 0.14472000E+03 -0.89068E+05
 0.14477000E+03 -0.10356E+06
 0.14482001E+03 -0.11953E+06
 0.14487001E+03 -0.13155E+06
 0.14492001E+03 -0.13750E+06
 0.14497000E+03 -0.14256E+06
 0.14502000E+03 -0.15051E+06
 0.14507001E+03 -0.16136E+06
 0.14512001E+03 -0.17150E+06
 0.14517001E+03 -0.17706E+06
 0.14522000E+03 -0.18244E+06
 0.14527000E+03 -0.18825E+06
 0.14532001E+03 -0.18710E+06
 0.14537001E+03 -0.18152E+06
 0.14542001E+03 -0.17769E+06
 0.14547000E+03 -0.17507E+06
 0.14552000E+03 -0.17267E+06
 0.14557001E+03 -0.17079E+06
 0.14562001E+03 -0.16840E+06
 0.14567001E+03 -0.16288E+06
 0.14572000E+03 -0.15462E+06
 0.14577000E+03 -0.14793E+06
 0.14582001E+03 -0.14628E+06
 0.14587001E+03 -0.15018E+06
 0.14592001E+03 -0.15763E+06
 0.14597000E+03 -0.16382E+06
 0.14602000E+03 -0.16866E+06
 0.14607001E+03 -0.17108E+06
 0.14612001E+03 -0.17021E+06
 0.14617001E+03 -0.17370E+06
 0.14622000E+03 -0.17996E+06
 0.14627000E+03 -0.18620E+06
 0.14632001E+03 -0.19372E+06
 0.14637001E+03 -0.20056E+06
 0.14642001E+03 -0.20742E+06
 0.14647000E+03 -0.21320E+06
 0.14652000E+03 -0.21727E+06
 0.14657001E+03 -0.21816E+06
 0.14662001E+03 -0.21473E+06
 0.14667001E+03 -0.20955E+06
 0.14672000E+03 -0.20572E+06
 0.14677000E+03 -0.20575E+06
 0.14682001E+03 -0.20636E+06
 0.14687001E+03 -0.20260E+06
 0.14692001E+03 -0.19398E+06
 0.14697000E+03 -0.18386E+06
 0.14702000E+03 -0.17334E+06
 0.14707001E+03 -0.15848E+06
 0.14712001E+03 -0.13903E+06
 0.14717001E+03 -0.12013E+06
 0.14722000E+03 -0.10452E+06
 0.14727000E+03 -0.89936E+05
 0.14732001E+03 -0.74609E+05
 0.14737001E+03 -0.59638E+05
 0.14742001E+03 -0.49860E+05
 0.14747000E+03 -0.48462E+05
 0.14752000E+03 -0.50460E+05
 0.14757001E+03 -0.53667E+05
 0.14762001E+03 -0.59471E+05
 0.14767001E+03 -0.67324E+05
 0.14772000E+03 -0.77645E+05
 0.14777000E+03 -0.89042E+05
 0.14782001E+03 -0.10096E+06
 0.14787001E+03 -0.10956E+06
 0.14792001E+03 -0.11456E+06
 0.14797000E+03 -0.12236E+06
 0.14802000E+03 -0.13018E+06
 0.14807001E+03 -0.13619E+06
 0.14812001E+03 -0.13811E+06
 0.14817001E+03 -0.13569E+06
 0.14822000E+03 -0.13459E+06
 0.14827000E+03 -0.13276E+06
 0.14832001E+03 -0.12903E+06
 0.14837001E+03 -0.12181E+06
 0.14842001E+03 -0.11117E+06
 0.14847000E+03 -0.10150E+06
 0.14852000E+03 -0.93451E+05
 0.14857001E+03 -0.85800E+05
 0.14862001E+03 -0.75473E+05
 0.14867001E+03 -0.64718E+05
 0.14872000E+03 -0.57817E+05
 0.14877000E+03 -0.53156E+05
 0.14882001E+03 -0.45679E+05
 0.14887001E+03 -0.32937E+05
 0.14892001E+03 -0.21369E+05
 0.14897000E+03 -0.11906E+05
 0.14902000E+03 -0.39900E+04
 0.14907001E+03 -0.89800E+03
 0.14912001E+03  0.36100E+03
 0.14917001E+03 -0.14400E+03
 0.14922000E+03  0.70000E+03
 0.14927000E+03  0.85970E+04
 0.14932001E+03  0.20453E+05
 0.14937001E+03  0.30430E+05
 0.14942001E+03  0.35740E+05
 0.14947000E+03  0.36685E+05
 0.14952000E+03  0.36086E+05
 0.14957001E+03  0.37776E+05
 0.14962001E+03  0.40630E+05
 0.14967001E+03  0.44242E+05
 0.14972000E+03  0.51916E+05
 0.14977000E+03  0.62147E+05
 0.14982001E+03  0.74002E+05
 0.14987001E+03  0.83283E+05
 0.14992001E+03  0.87161E+05
 0.14997000E+03  0.91318E+05
