-0.30000000E+01  0.10854E+05
-0.29500000E+01  0.11034E+05
-0.29000001E+01  0.11244E+05
-0.28499999E+01  0.11437E+05
-0.28000000E+01  0.11581E+05
-0.27500000E+01  0.11705E+05
-0.27000000E+01  0.11859E+05
-0.26500001E+01  0.12030E+05
-0.25999999E+01  0.12160E+05
-0.25500000E+01  0.12249E+05
-0.25000000E+01  0.12333E+05
-0.24500000E+01  0.12440E+05
-0.24000001E+01  0.12551E+05
-0.23499999E+01  0.12628E+05
-0.23000002E+01  0.12677E+05
-0.22500000E+01  0.12715E+05
-0.22000000E+01  0.12758E+05
-0.21500001E+01  0.12805E+05
-0.20999999E+01  0.12844E+05
-0.20500002E+01  0.12843E+05
-0.20000000E+01  0.12819E+05
-0.19500000E+01  0.12803E+05
-0.19000001E+01  0.12804E+05
-0.18500000E+01  0.12790E+05
-0.18000001E+01  0.12723E+05
-0.17500001E+01  0.12652E+05
-0.17000000E+01  0.12599E+05
-0.16500001E+01  0.12554E+05
-0.16000001E+01  0.12480E+05
-0.15500001E+01  0.12363E+05
-0.15000001E+01  0.12244E+05
-0.14500000E+01  0.12144E+05
-0.14000001E+01  0.12058E+05
-0.13500001E+01  0.11946E+05
-0.13000001E+01  0.11786E+05
-0.12500001E+01  0.11615E+05
-0.12000000E+01  0.11477E+05
-0.11500001E+01  0.11357E+05
-0.11000001E+01  0.11197E+05
-0.10500001E+01  0.10983E+05
-0.10000001E+01  0.10785E+05
-0.95000005E+00  0.10640E+05
-0.90000010E+00  0.10481E+05
-0.85000014E+00  0.10262E+05
-0.80000019E+00  0.10019E+05
-0.75000024E+00  0.98260E+04
-0.70000005E+00  0.96680E+04
-0.65000010E+00  0.94580E+04
-0.60000014E+00  0.91990E+04
-0.55000019E+00  0.89510E+04
-0.50000024E+00  0.87480E+04
-0.45000005E+00  0.85470E+04
-0.40000010E+00  0.83030E+04
-0.35000014E+00  0.80330E+04
-0.30000019E+00  0.77800E+04
-0.25000024E+00  0.75560E+04
-0.20000029E+00  0.73220E+04
-0.15000010E+00  0.70630E+04
-0.10000014E+00  0.67990E+04
-0.50000191E-01  0.65530E+04
-0.23841858E-06  0.63190E+04
 0.49999714E-01  0.60710E+04
 0.99999905E-01  0.58190E+04
 0.14999986E+00  0.55750E+04
 0.19999981E+00  0.53400E+04
 0.24999976E+00  0.51070E+04
 0.29999971E+00  0.48680E+04
 0.34999990E+00  0.46310E+04
 0.39999986E+00  0.44070E+04
 0.44999981E+00  0.41880E+04
 0.49999976E+00  0.39620E+04
 0.54999971E+00  0.37360E+04
 0.59999990E+00  0.35210E+04
 0.64999986E+00  0.33140E+04
 0.69999981E+00  0.31030E+04
 0.74999976E+00  0.28880E+04
 0.79999971E+00  0.26810E+04
 0.84999967E+00  0.24890E+04
 0.89999986E+00  0.23000E+04
 0.94999981E+00  0.21040E+04
 0.99999976E+00  0.19050E+04
 0.10499997E+01  0.17260E+04
 0.10999999E+01  0.15600E+04
 0.11499996E+01  0.13940E+04
 0.11999998E+01  0.12290E+04
 0.12499995E+01  0.10600E+04
 0.12999997E+01  0.90200E+03
 0.13499999E+01  0.74900E+03
 0.13999996E+01  0.60600E+03
 0.14499998E+01  0.47200E+03
 0.14999995E+01  0.33700E+03
 0.15499997E+01  0.20600E+03
 0.15999999E+01  0.74000E+02
 0.16499996E+01 -0.43000E+02
 0.16999998E+01 -0.15500E+03
 0.17499995E+01 -0.26800E+03
 0.17999997E+01 -0.37900E+03
 0.18499999E+01 -0.48200E+03
 0.18999996E+01 -0.57200E+03
 0.19499998E+01 -0.66500E+03
 0.19999995E+01 -0.75900E+03
 0.20499997E+01 -0.85100E+03
 0.20999999E+01 -0.92600E+03
 0.21499996E+01 -0.99300E+03
 0.21999998E+01 -0.10590E+04
 0.22499995E+01 -0.11300E+04
 0.22999997E+01 -0.11940E+04
 0.23499999E+01 -0.12450E+04
 0.23999996E+01 -0.12920E+04
 0.24499998E+01 -0.13360E+04
 0.24999995E+01 -0.13860E+04
 0.25499997E+01 -0.14320E+04
 0.25999994E+01 -0.14680E+04
 0.26499996E+01 -0.14980E+04
 0.26999998E+01 -0.15270E+04
 0.27499995E+01 -0.15570E+04
 0.27999997E+01 -0.15840E+04
 0.28499994E+01 -0.15990E+04
 0.28999996E+01 -0.16080E+04
 0.29499998E+01 -0.16270E+04
 0.29999995E+01 -0.16470E+04
 0.30499997E+01 -0.16540E+04
 0.30999994E+01 -0.16550E+04
 0.31499996E+01 -0.16670E+04
 0.31999998E+01 -0.16900E+04
 0.32499995E+01 -0.17100E+04
 0.32999997E+01 -0.17190E+04
 0.33499994E+01 -0.17320E+04
 0.33999996E+01 -0.17640E+04
 0.34499998E+01 -0.18110E+04
 0.34999995E+01 -0.18490E+04
 0.35499997E+01 -0.18860E+04
 0.35999994E+01 -0.19400E+04
 0.36499996E+01 -0.20080E+04
 0.36999998E+01 -0.20850E+04
 0.37499995E+01 -0.21580E+04
 0.37999997E+01 -0.22350E+04
 0.38499994E+01 -0.23230E+04
 0.38999996E+01 -0.24200E+04
 0.39499998E+01 -0.25180E+04
 0.39999995E+01 -0.26110E+04
 0.40499997E+01 -0.27110E+04
 0.40999994E+01 -0.28190E+04
 0.41499996E+01 -0.29280E+04
 0.41999998E+01 -0.30360E+04
 0.42499995E+01 -0.31480E+04
 0.42999997E+01 -0.32680E+04
 0.43499994E+01 -0.33890E+04
 0.43999996E+01 -0.35050E+04
 0.44499993E+01 -0.36280E+04
 0.44999995E+01 -0.37600E+04
 0.45499997E+01 -0.38960E+04
 0.45999994E+01 -0.40300E+04
 0.46499996E+01 -0.41650E+04
 0.46999993E+01 -0.43070E+04
 0.47499995E+01 -0.44530E+04
 0.47999997E+01 -0.46020E+04
 0.48499994E+01 -0.47450E+04
 0.48999996E+01 -0.48850E+04
 0.49499993E+01 -0.50300E+04
 0.49999995E+01 -0.51780E+04
 0.50499992E+01 -0.53180E+04
 0.50999994E+01 -0.54490E+04
 0.51499996E+01 -0.55860E+04
 0.51999998E+01 -0.57220E+04
 0.52499990E+01 -0.58520E+04
 0.52999992E+01 -0.59800E+04
 0.53499994E+01 -0.61020E+04
 0.53999996E+01 -0.62200E+04
 0.54499998E+01 -0.63380E+04
 0.54999990E+01 -0.64510E+04
 0.55499992E+01 -0.65640E+04
 0.55999994E+01 -0.66770E+04
 0.56499996E+01 -0.67810E+04
 0.56999998E+01 -0.68790E+04
 0.57499990E+01 -0.69760E+04
 0.57999992E+01 -0.70710E+04
 0.58499994E+01 -0.71550E+04
 0.58999996E+01 -0.72320E+04
 0.59499998E+01 -0.73110E+04
 0.59999990E+01 -0.73880E+04
 0.60499992E+01 -0.74610E+04
 0.60999994E+01 -0.75220E+04
 0.61499996E+01 -0.75820E+04
 0.61999998E+01 -0.76490E+04
 0.62499990E+01 -0.77190E+04
 0.62999992E+01 -0.77750E+04
 0.63499994E+01 -0.78150E+04
 0.63999996E+01 -0.78630E+04
 0.64499998E+01 -0.79170E+04
 0.64999990E+01 -0.79650E+04
 0.65499992E+01 -0.79960E+04
 0.65999994E+01 -0.80130E+04
 0.66499996E+01 -0.80390E+04
 0.66999998E+01 -0.80700E+04
 0.67499990E+01 -0.80930E+04
 0.67999992E+01 -0.81090E+04
 0.68499994E+01 -0.81180E+04
 0.68999996E+01 -0.81290E+04
 0.69499998E+01 -0.81480E+04
 0.69999990E+01 -0.81660E+04
 0.70499992E+01 -0.81710E+04
 0.70999994E+01 -0.81720E+04
 0.71499996E+01 -0.81750E+04
 0.71999998E+01 -0.81870E+04
 0.72499990E+01 -0.82050E+04
 0.72999992E+01 -0.82150E+04
 0.73499994E+01 -0.82180E+04
 0.73999996E+01 -0.82190E+04
 0.74499998E+01 -0.82280E+04
 0.74999990E+01 -0.82480E+04
 0.75499992E+01 -0.82650E+04
 0.75999994E+01 -0.82740E+04
 0.76499996E+01 -0.82780E+04
 0.76999998E+01 -0.82920E+04
 0.77499990E+01 -0.83200E+04
 0.77999992E+01 -0.83440E+04
 0.78499994E+01 -0.83630E+04
 0.78999996E+01 -0.83840E+04
 0.79499998E+01 -0.84180E+04
 0.79999990E+01 -0.84680E+04
 0.80499992E+01 -0.85160E+04
 0.80999994E+01 -0.85610E+04
 0.81499996E+01 -0.86170E+04
 0.81999989E+01 -0.86890E+04
 0.82499990E+01 -0.87650E+04
 0.82999992E+01 -0.88450E+04
 0.83499994E+01 -0.89290E+04
 0.83999996E+01 -0.90180E+04
 0.84499989E+01 -0.91220E+04
 0.84999990E+01 -0.92210E+04
 0.85499992E+01 -0.93240E+04
 0.85999994E+01 -0.94340E+04
 0.86499996E+01 -0.95500E+04
 0.86999989E+01 -0.96730E+04
 0.87499990E+01 -0.97910E+04
 0.87999992E+01 -0.99170E+04
 0.88499994E+01 -0.10049E+05
 0.88999996E+01 -0.10190E+05
 0.89499989E+01 -0.10331E+05
 0.89999990E+01 -0.10467E+05
 0.90499992E+01 -0.10609E+05
 0.90999994E+01 -0.10761E+05
 0.91499996E+01 -0.10917E+05
 0.91999989E+01 -0.11066E+05
 0.92499990E+01 -0.11222E+05
 0.92999992E+01 -0.11387E+05
 0.93499994E+01 -0.11556E+05
 0.93999996E+01 -0.11722E+05
 0.94499989E+01 -0.11881E+05
 0.94999990E+01 -0.12042E+05
 0.95499992E+01 -0.12208E+05
 0.95999994E+01 -0.12375E+05
 0.96499996E+01 -0.12536E+05
 0.96999989E+01 -0.12693E+05
 0.97499990E+01 -0.12850E+05
 0.97999992E+01 -0.13013E+05
 0.98499994E+01 -0.13182E+05
 0.98999996E+01 -0.13340E+05
 0.99499989E+01 -0.13490E+05
 0.99999990E+01 -0.13648E+05
 0.10049999E+02 -0.13809E+05
 0.10099999E+02 -0.13967E+05
 0.10150000E+02 -0.14117E+05
 0.10199999E+02 -0.14264E+05
 0.10249999E+02 -0.14416E+05
 0.10299999E+02 -0.14559E+05
 0.10349999E+02 -0.14690E+05
 0.10400000E+02 -0.14816E+05
 0.10449999E+02 -0.14935E+05
 0.10499999E+02 -0.15054E+05
 0.10549999E+02 -0.15160E+05
 0.10599999E+02 -0.15249E+05
 0.10650000E+02 -0.15335E+05
 0.10699999E+02 -0.15418E+05
 0.10749999E+02 -0.15496E+05
 0.10799999E+02 -0.15561E+05
 0.10849999E+02 -0.15612E+05
 0.10900000E+02 -0.15654E+05
 0.10949999E+02 -0.15695E+05
 0.10999999E+02 -0.15730E+05
 0.11049999E+02 -0.15749E+05
 0.11099999E+02 -0.15754E+05
 0.11150000E+02 -0.15753E+05
 0.11199999E+02 -0.15748E+05
 0.11249999E+02 -0.15732E+05
 0.11299999E+02 -0.15703E+05
 0.11349999E+02 -0.15663E+05
 0.11400000E+02 -0.15614E+05
 0.11449999E+02 -0.15551E+05
 0.11499999E+02 -0.15477E+05
 0.11549999E+02 -0.15389E+05
 0.11599999E+02 -0.15287E+05
 0.11649999E+02 -0.15177E+05
 0.11699999E+02 -0.15052E+05
 0.11749999E+02 -0.14924E+05
 0.11799999E+02 -0.14782E+05
 0.11849999E+02 -0.14614E+05
 0.11899999E+02 -0.14438E+05
 0.11949999E+02 -0.14257E+05
 0.11999999E+02 -0.14069E+05
 0.12049999E+02 -0.13866E+05
 0.12099999E+02 -0.13643E+05
 0.12149999E+02 -0.13408E+05
 0.12199999E+02 -0.13170E+05
 0.12249999E+02 -0.12927E+05
 0.12299999E+02 -0.12666E+05
 0.12349999E+02 -0.12384E+05
 0.12399999E+02 -0.12092E+05
 0.12449999E+02 -0.11798E+05
 0.12499999E+02 -0.11496E+05
 0.12549999E+02 -0.11178E+05
 0.12599999E+02 -0.10841E+05
 0.12649999E+02 -0.10505E+05
 0.12699999E+02 -0.10172E+05
 0.12749999E+02 -0.98320E+04
 0.12799999E+02 -0.94840E+04
 0.12849999E+02 -0.91200E+04
 0.12899999E+02 -0.87520E+04
 0.12949999E+02 -0.83870E+04
 0.12999999E+02 -0.80190E+04
 0.13049999E+02 -0.76370E+04
 0.13099998E+02 -0.72440E+04
 0.13150000E+02 -0.68570E+04
 0.13199999E+02 -0.64780E+04
 0.13249998E+02 -0.60910E+04
 0.13299999E+02 -0.56930E+04
 0.13349998E+02 -0.53010E+04
 0.13400000E+02 -0.49210E+04
 0.13449999E+02 -0.45450E+04
 0.13499998E+02 -0.41620E+04
 0.13549999E+02 -0.37740E+04
 0.13599998E+02 -0.34000E+04
 0.13650000E+02 -0.30300E+04
 0.13699999E+02 -0.26620E+04
 0.13749998E+02 -0.22980E+04
 0.13799999E+02 -0.19340E+04
 0.13849998E+02 -0.15830E+04
 0.13900000E+02 -0.12440E+04
 0.13949999E+02 -0.91600E+03
 0.13999998E+02 -0.58900E+03
 0.14049999E+02 -0.27500E+03
 0.14099998E+02  0.17000E+02
 0.14150000E+02  0.29300E+03
 0.14199999E+02  0.56000E+03
 0.14249998E+02  0.82600E+03
 0.14299999E+02  0.10730E+04
 0.14349998E+02  0.12960E+04
 0.14400000E+02  0.15060E+04
 0.14449999E+02  0.17110E+04
 0.14499998E+02  0.19090E+04
 0.14549999E+02  0.20960E+04
 0.14599998E+02  0.22620E+04
 0.14650000E+02  0.24100E+04
 0.14699999E+02  0.25620E+04
 0.14749998E+02  0.27130E+04
 0.14799999E+02  0.28520E+04
 0.14849998E+02  0.29770E+04
 0.14900000E+02  0.30870E+04
 0.14949999E+02  0.31930E+04
 0.14999998E+02  0.32980E+04
 0.15049999E+02  0.33940E+04
 0.15099998E+02  0.34780E+04
 0.15150000E+02  0.35470E+04
 0.15199999E+02  0.36070E+04
 0.15249998E+02  0.36650E+04
 0.15299999E+02  0.37090E+04
 0.15349998E+02  0.37350E+04
 0.15400000E+02  0.37530E+04
 0.15449999E+02  0.37620E+04
 0.15499998E+02  0.37590E+04
 0.15549999E+02  0.37390E+04
 0.15599998E+02  0.37030E+04
 0.15650000E+02  0.36610E+04
 0.15699999E+02  0.36180E+04
 0.15749998E+02  0.35600E+04
 0.15799999E+02  0.34750E+04
 0.15849998E+02  0.33790E+04
 0.15900000E+02  0.32860E+04
 0.15949999E+02  0.31820E+04
 0.15999998E+02  0.30560E+04
 0.16049999E+02  0.29070E+04
 0.16099998E+02  0.27590E+04
 0.16150000E+02  0.26150E+04
 0.16199999E+02  0.24530E+04
 0.16249998E+02  0.22680E+04
 0.16299999E+02  0.20680E+04
 0.16349998E+02  0.18810E+04
 0.16400000E+02  0.17000E+04
 0.16449999E+02  0.14960E+04
 0.16499998E+02  0.12810E+04
 0.16549999E+02  0.10690E+04
 0.16599998E+02  0.86800E+03
 0.16650000E+02  0.66600E+03
 0.16699999E+02  0.45700E+03
 0.16749998E+02  0.24600E+03
 0.16799999E+02  0.36000E+02
 0.16849998E+02 -0.16800E+03
 0.16900000E+02 -0.37400E+03
 0.16949999E+02 -0.57500E+03
 0.16999998E+02 -0.76700E+03
 0.17049999E+02 -0.96000E+03
 0.17099998E+02 -0.11500E+04
 0.17150000E+02 -0.13330E+04
 0.17199999E+02 -0.15010E+04
 0.17249998E+02 -0.16690E+04
 0.17299999E+02 -0.18320E+04
 0.17349998E+02 -0.19860E+04
 0.17400000E+02 -0.21310E+04
 0.17449999E+02 -0.22660E+04
 0.17499998E+02 -0.23980E+04
 0.17549999E+02 -0.25260E+04
 0.17599998E+02 -0.26470E+04
 0.17650000E+02 -0.27510E+04
 0.17699999E+02 -0.28460E+04
 0.17749998E+02 -0.29350E+04
 0.17799999E+02 -0.30230E+04
 0.17849998E+02 -0.30960E+04
 0.17900000E+02 -0.31510E+04
 0.17949999E+02 -0.31990E+04
 0.17999998E+02 -0.32320E+04
 0.18049999E+02 -0.32620E+04
 0.18099998E+02 -0.32820E+04
 0.18150000E+02 -0.32930E+04
 0.18199999E+02 -0.32890E+04
 0.18249998E+02 -0.32680E+04
 0.18299999E+02 -0.32410E+04
 0.18349998E+02 -0.32100E+04
 0.18400000E+02 -0.31730E+04
 0.18449999E+02 -0.31110E+04
 0.18499998E+02 -0.30300E+04
 0.18549999E+02 -0.29440E+04
 0.18599998E+02 -0.28620E+04
 0.18650000E+02 -0.27680E+04
 0.18699999E+02 -0.26550E+04
 0.18749998E+02 -0.25250E+04
 0.18799999E+02 -0.23860E+04
 0.18849998E+02 -0.22550E+04
 0.18900000E+02 -0.21170E+04
 0.18949999E+02 -0.19620E+04
 0.18999998E+02 -0.17920E+04
 0.19049999E+02 -0.16140E+04
 0.19099998E+02 -0.14400E+04
 0.19150000E+02 -0.12570E+04
 0.19199999E+02 -0.10580E+04
 0.19249998E+02 -0.84500E+03
 0.19299999E+02 -0.63300E+03
 0.19349998E+02 -0.42100E+03
 0.19399998E+02 -0.19600E+03
 0.19449999E+02  0.42000E+02
 0.19499998E+02  0.28300E+03
 0.19549999E+02  0.51800E+03
 0.19599998E+02  0.75200E+03
 0.19649998E+02  0.99200E+03
 0.19699999E+02  0.12350E+04
 0.19749998E+02  0.14780E+04
 0.19799999E+02  0.17100E+04
 0.19849998E+02  0.19420E+04
 0.19899998E+02  0.21740E+04
 0.19949999E+02  0.23980E+04
 0.19999998E+02  0.26180E+04
 0.20049999E+02  0.28300E+04
 0.20099998E+02  0.30390E+04
 0.20149998E+02  0.32490E+04
 0.20199999E+02  0.34510E+04
 0.20249998E+02  0.36420E+04
 0.20299999E+02  0.38270E+04
 0.20349998E+02  0.40070E+04
 0.20399998E+02  0.41870E+04
 0.20449999E+02  0.43570E+04
 0.20499998E+02  0.45160E+04
 0.20549999E+02  0.46650E+04
 0.20599998E+02  0.48070E+04
 0.20649998E+02  0.49470E+04
 0.20699999E+02  0.50800E+04
 0.20749998E+02  0.52060E+04
 0.20799999E+02  0.53210E+04
 0.20849998E+02  0.54270E+04
 0.20899998E+02  0.55260E+04
 0.20949999E+02  0.56180E+04
 0.20999998E+02  0.57020E+04
 0.21049999E+02  0.57770E+04
 0.21099998E+02  0.58450E+04
 0.21149998E+02  0.59010E+04
 0.21199999E+02  0.59510E+04
 0.21249998E+02  0.59920E+04
 0.21299999E+02  0.60230E+04
 0.21349998E+02  0.60490E+04
 0.21399998E+02  0.60660E+04
 0.21449999E+02  0.60780E+04
 0.21499998E+02  0.60790E+04
 0.21549999E+02  0.60690E+04
 0.21599998E+02  0.60560E+04
 0.21649998E+02  0.60410E+04
 0.21699999E+02  0.60130E+04
 0.21749998E+02  0.59700E+04
 0.21799999E+02  0.59290E+04
 0.21849998E+02  0.58880E+04
 0.21899998E+02  0.58330E+04
 0.21949999E+02  0.57680E+04
 0.21999998E+02  0.57010E+04
 0.22049999E+02  0.56410E+04
 0.22099998E+02  0.55770E+04
 0.22149998E+02  0.55050E+04
 0.22199999E+02  0.54290E+04
 0.22249998E+02  0.53480E+04
 0.22299999E+02  0.52780E+04
 0.22349998E+02  0.52050E+04
 0.22399998E+02  0.51230E+04
 0.22449999E+02  0.50400E+04
 0.22499998E+02  0.49590E+04
 0.22549999E+02  0.48830E+04
 0.22599998E+02  0.48060E+04
 0.22649998E+02  0.47230E+04
 0.22699999E+02  0.46360E+04
 0.22749998E+02  0.45520E+04
 0.22799999E+02  0.44780E+04
 0.22849998E+02  0.43980E+04
 0.22899998E+02  0.43060E+04
 0.22949999E+02  0.42180E+04
 0.22999998E+02  0.41370E+04
 0.23049999E+02  0.40580E+04
 0.23099998E+02  0.39800E+04
 0.23149998E+02  0.38920E+04
 0.23199999E+02  0.38130E+04
 0.23249998E+02  0.37460E+04
 0.23299999E+02  0.36840E+04
 0.23349998E+02  0.36220E+04
 0.23399998E+02  0.35590E+04
 0.23449999E+02  0.35050E+04
 0.23499998E+02  0.34610E+04
 0.23549999E+02  0.34200E+04
 0.23599998E+02  0.33770E+04
 0.23649998E+02  0.33310E+04
 0.23699999E+02  0.32970E+04
 0.23749998E+02  0.32670E+04
 0.23799999E+02  0.32330E+04
 0.23849998E+02  0.31950E+04
 0.23899998E+02  0.31560E+04
 0.23949999E+02  0.31300E+04
 0.23999998E+02  0.31090E+04
 0.24049999E+02  0.30770E+04
 0.24099998E+02  0.30340E+04
 0.24149998E+02  0.29960E+04
 0.24199999E+02  0.29760E+04
 0.24249998E+02  0.29620E+04
 0.24299999E+02  0.29310E+04
 0.24349998E+02  0.28900E+04
 0.24399998E+02  0.28660E+04
 0.24449999E+02  0.28620E+04
 0.24499998E+02  0.28540E+04
 0.24549999E+02  0.28260E+04
 0.24599998E+02  0.27950E+04
 0.24649998E+02  0.27810E+04
 0.24699999E+02  0.27840E+04
 0.24749998E+02  0.27720E+04
 0.24799999E+02  0.27350E+04
 0.24849998E+02  0.27060E+04
 0.24899998E+02  0.26880E+04
 0.24949999E+02  0.26680E+04
 0.24999998E+02  0.26310E+04
 0.25049999E+02  0.25830E+04
 0.25099998E+02  0.25440E+04
 0.25149998E+02  0.25130E+04
 0.25199999E+02  0.24730E+04
 0.25249998E+02  0.24210E+04
 0.25299999E+02  0.23690E+04
 0.25349998E+02  0.23360E+04
 0.25399998E+02  0.23080E+04
 0.25449999E+02  0.22620E+04
 0.25499998E+02  0.22140E+04
 0.25549999E+02  0.21730E+04
 0.25599998E+02  0.21460E+04
 0.25649998E+02  0.21150E+04
 0.25699999E+02  0.20670E+04
 0.25749998E+02  0.20220E+04
 0.25799999E+02  0.19880E+04
 0.25849998E+02  0.19630E+04
 0.25899998E+02  0.19280E+04
 0.25949999E+02  0.18820E+04
 0.25999998E+02  0.18390E+04
 0.26049997E+02  0.17950E+04
 0.26099998E+02  0.17510E+04
 0.26149998E+02  0.17010E+04
 0.26199999E+02  0.16510E+04
 0.26249998E+02  0.16080E+04
 0.26299997E+02  0.15610E+04
 0.26349998E+02  0.15070E+04
 0.26399998E+02  0.14570E+04
 0.26449999E+02  0.14140E+04
 0.26499998E+02  0.13720E+04
 0.26549997E+02  0.13290E+04
 0.26599998E+02  0.12870E+04
 0.26649998E+02  0.12430E+04
 0.26699999E+02  0.12010E+04
 0.26749998E+02  0.11600E+04
 0.26799997E+02  0.11200E+04
 0.26849998E+02  0.10770E+04
 0.26899998E+02  0.10320E+04
 0.26949999E+02  0.99400E+03
 0.26999998E+02  0.95600E+03
 0.27049997E+02  0.91200E+03
 0.27099998E+02  0.86000E+03
 0.27149998E+02  0.81300E+03
 0.27199999E+02  0.77300E+03
 0.27249998E+02  0.73000E+03
 0.27299997E+02  0.67200E+03
 0.27349998E+02  0.61300E+03
 0.27399998E+02  0.56600E+03
 0.27449999E+02  0.51200E+03
 0.27499998E+02  0.45300E+03
 0.27549997E+02  0.40000E+03
 0.27599998E+02  0.35500E+03
 0.27649998E+02  0.30500E+03
 0.27699999E+02  0.23700E+03
 0.27749998E+02  0.17800E+03
 0.27799997E+02  0.14400E+03
 0.27849998E+02  0.11700E+03
 0.27899998E+02  0.71000E+02
 0.27949999E+02  0.15000E+02
 0.27999998E+02 -0.28000E+02
 0.28049997E+02 -0.51000E+02
 0.28099998E+02 -0.70000E+02
 0.28149998E+02 -0.10400E+03
 0.28199999E+02 -0.14600E+03
 0.28249998E+02 -0.17700E+03
 0.28299997E+02 -0.19100E+03
 0.28349998E+02 -0.20800E+03
 0.28399998E+02 -0.23600E+03
 0.28449999E+02 -0.25900E+03
 0.28499998E+02 -0.26600E+03
 0.28549997E+02 -0.26800E+03
 0.28599998E+02 -0.28000E+03
 0.28649998E+02 -0.29500E+03
 0.28699999E+02 -0.29700E+03
 0.28749998E+02 -0.28500E+03
 0.28799997E+02 -0.27600E+03
 0.28849998E+02 -0.28100E+03
 0.28899998E+02 -0.28400E+03
 0.28949999E+02 -0.26900E+03
 0.28999998E+02 -0.24300E+03
 0.29049999E+02 -0.22700E+03
 0.29099998E+02 -0.21900E+03
 0.29149998E+02 -0.21000E+03
 0.29199997E+02 -0.18200E+03
 0.29249996E+02 -0.14300E+03
 0.29299999E+02 -0.11400E+03
 0.29349998E+02 -0.93000E+02
 0.29399998E+02 -0.71000E+02
 0.29449997E+02 -0.29000E+02
 0.29499996E+02  0.20000E+02
 0.29549999E+02  0.60000E+02
 0.29599998E+02  0.92000E+02
 0.29649998E+02  0.12600E+03
 0.29699997E+02  0.17300E+03
 0.29749996E+02  0.22700E+03
 0.29799999E+02  0.27200E+03
 0.29849998E+02  0.31500E+03
 0.29899998E+02  0.37200E+03
 0.29949997E+02  0.43700E+03
 0.29999996E+02  0.50300E+03
 0.30049999E+02  0.56200E+03
 0.30099998E+02  0.62300E+03
 0.30149998E+02  0.69600E+03
 0.30199997E+02  0.77200E+03
 0.30249996E+02  0.84600E+03
 0.30299999E+02  0.91300E+03
 0.30349998E+02  0.98500E+03
 0.30399998E+02  0.10660E+04
 0.30449997E+02  0.11430E+04
 0.30499996E+02  0.12120E+04
 0.30549999E+02  0.12760E+04
 0.30599998E+02  0.13500E+04
 0.30649998E+02  0.14320E+04
 0.30699997E+02  0.15020E+04
 0.30749996E+02  0.15660E+04
 0.30799999E+02  0.16300E+04
 0.30849998E+02  0.16940E+04
 0.30899998E+02  0.17580E+04
 0.30949997E+02  0.18080E+04
 0.30999996E+02  0.18490E+04
 0.31049999E+02  0.18860E+04
 0.31099998E+02  0.19160E+04
 0.31149998E+02  0.19430E+04
 0.31199997E+02  0.19580E+04
 0.31249996E+02  0.19610E+04
 0.31299999E+02  0.19630E+04
 0.31349998E+02  0.19580E+04
 0.31399998E+02  0.19470E+04
 0.31449997E+02  0.19310E+04
 0.31499996E+02  0.19110E+04
 0.31549999E+02  0.18860E+04
 0.31599998E+02  0.18570E+04
 0.31649998E+02  0.18310E+04
 0.31699997E+02  0.17980E+04
 0.31749996E+02  0.17560E+04
 0.31799999E+02  0.17100E+04
 0.31849998E+02  0.16650E+04
 0.31899998E+02  0.16150E+04
 0.31949997E+02  0.15560E+04
 0.31999996E+02  0.14910E+04
 0.32049999E+02  0.14190E+04
 0.32099998E+02  0.13450E+04
 0.32149998E+02  0.12710E+04
 0.32199997E+02  0.11960E+04
 0.32249996E+02  0.11070E+04
 0.32299999E+02  0.10050E+04
 0.32349998E+02  0.90400E+03
 0.32399998E+02  0.80700E+03
 0.32449997E+02  0.71100E+03
 0.32499996E+02  0.59900E+03
 0.32549999E+02  0.48100E+03
 0.32599998E+02  0.36600E+03
 0.32649998E+02  0.25000E+03
 0.32699997E+02  0.13100E+03
 0.32749996E+02  0.50000E+01
 0.32799999E+02 -0.11800E+03
 0.32849998E+02 -0.24800E+03
 0.32899998E+02 -0.38900E+03
 0.32949997E+02 -0.52600E+03
 0.32999996E+02 -0.65700E+03
 0.33049999E+02 -0.78800E+03
 0.33099998E+02 -0.93500E+03
 0.33149998E+02 -0.10870E+04
 0.33199997E+02 -0.12260E+04
 0.33249996E+02 -0.13520E+04
 0.33299999E+02 -0.14720E+04
 0.33349998E+02 -0.16080E+04
 0.33399998E+02 -0.17500E+04
 0.33449997E+02 -0.18790E+04
 0.33499996E+02 -0.19860E+04
 0.33549999E+02 -0.20820E+04
 0.33599998E+02 -0.21950E+04
 0.33649998E+02 -0.23190E+04
 0.33699997E+02 -0.24290E+04
 0.33749996E+02 -0.25120E+04
 0.33799999E+02 -0.25920E+04
 0.33849998E+02 -0.26890E+04
 0.33899998E+02 -0.27860E+04
 0.33949997E+02 -0.28620E+04
 0.33999996E+02 -0.29230E+04
 0.34049999E+02 -0.29920E+04
 0.34099998E+02 -0.30680E+04
 0.34149998E+02 -0.31270E+04
 0.34199997E+02 -0.31590E+04
 0.34249996E+02 -0.31940E+04
 0.34299999E+02 -0.32430E+04
 0.34349998E+02 -0.32810E+04
 0.34399998E+02 -0.32860E+04
 0.34449997E+02 -0.32750E+04
 0.34499996E+02 -0.32870E+04
 0.34549999E+02 -0.33060E+04
 0.34599998E+02 -0.32990E+04
 0.34649998E+02 -0.32660E+04
 0.34699997E+02 -0.32350E+04
 0.34749996E+02 -0.32150E+04
 0.34799999E+02 -0.31870E+04
 0.34849998E+02 -0.31450E+04
 0.34899998E+02 -0.30980E+04
 0.34949997E+02 -0.30500E+04
 0.34999996E+02 -0.29880E+04
 0.35049999E+02 -0.29280E+04
 0.35099998E+02 -0.28680E+04
 0.35149998E+02 -0.27990E+04
 0.35199997E+02 -0.27350E+04
 0.35249996E+02 -0.26640E+04
 0.35299999E+02 -0.25930E+04
 0.35349998E+02 -0.25200E+04
 0.35399998E+02 -0.24350E+04
 0.35449997E+02 -0.23460E+04
 0.35499996E+02 -0.22500E+04
 0.35549999E+02 -0.21440E+04
 0.35599998E+02 -0.20450E+04
 0.35649998E+02 -0.19490E+04
 0.35699997E+02 -0.18350E+04
 0.35749996E+02 -0.16960E+04
 0.35799999E+02 -0.15490E+04
 0.35849998E+02 -0.14200E+04
 0.35899998E+02 -0.12820E+04
 0.35949997E+02 -0.11290E+04
 0.35999996E+02 -0.97200E+03
 0.36049999E+02 -0.81000E+03
 0.36099998E+02 -0.64100E+03
 0.36149998E+02 -0.45800E+03
 0.36199997E+02 -0.27000E+03
 0.36249996E+02 -0.73000E+02
 0.36299999E+02  0.12300E+03
 0.36349998E+02  0.31600E+03
 0.36399998E+02  0.51900E+03
 0.36449997E+02  0.74100E+03
 0.36499996E+02  0.97000E+03
 0.36549999E+02  0.11740E+04
 0.36599998E+02  0.13850E+04
 0.36649998E+02  0.16300E+04
 0.36699997E+02  0.18740E+04
 0.36749996E+02  0.20840E+04
 0.36799999E+02  0.22690E+04
 0.36849998E+02  0.24840E+04
 0.36899998E+02  0.27450E+04
 0.36949997E+02  0.29870E+04
 0.36999996E+02  0.31700E+04
 0.37049999E+02  0.33470E+04
 0.37099998E+02  0.35780E+04
 0.37149998E+02  0.38310E+04
 0.37199997E+02  0.40220E+04
 0.37249996E+02  0.41580E+04
 0.37299999E+02  0.43380E+04
 0.37349998E+02  0.45850E+04
 0.37399998E+02  0.48090E+04
 0.37449997E+02  0.49530E+04
 0.37499996E+02  0.50740E+04
 0.37549999E+02  0.52520E+04
 0.37599998E+02  0.54650E+04
 0.37649998E+02  0.56450E+04
 0.37699997E+02  0.57700E+04
 0.37749996E+02  0.58860E+04
 0.37799999E+02  0.60260E+04
 0.37849998E+02  0.61800E+04
 0.37899998E+02  0.63230E+04
 0.37949997E+02  0.64360E+04
 0.37999996E+02  0.65200E+04
 0.38049999E+02  0.65990E+04
 0.38099998E+02  0.67000E+04
 0.38149998E+02  0.68210E+04
 0.38199997E+02  0.69150E+04
 0.38249996E+02  0.69680E+04
 0.38299999E+02  0.70130E+04
 0.38349998E+02  0.70960E+04
 0.38399998E+02  0.71940E+04
 0.38449997E+02  0.72570E+04
 0.38499996E+02  0.72960E+04
 0.38549999E+02  0.73290E+04
 0.38599998E+02  0.73770E+04
 0.38649998E+02  0.74270E+04
 0.38699997E+02  0.74570E+04
 0.38749996E+02  0.74800E+04
 0.38799999E+02  0.74850E+04
 0.38849998E+02  0.74930E+04
 0.38899998E+02  0.74980E+04
 0.38949997E+02  0.74930E+04
 0.38999996E+02  0.75030E+04
 0.39049999E+02  0.75040E+04
 0.39099998E+02  0.74750E+04
 0.39149998E+02  0.74020E+04
 0.39199997E+02  0.73580E+04
 0.39249996E+02  0.73550E+04
 0.39299999E+02  0.73210E+04
 0.39349998E+02  0.72470E+04
 0.39399998E+02  0.71540E+04
 0.39449997E+02  0.70870E+04
 0.39499996E+02  0.70080E+04
 0.39549999E+02  0.69110E+04
 0.39599998E+02  0.68250E+04
 0.39649998E+02  0.67250E+04
 0.39699997E+02  0.65870E+04
 0.39749996E+02  0.64270E+04
 0.39799999E+02  0.63050E+04
 0.39849998E+02  0.62030E+04
 0.39899998E+02  0.60520E+04
 0.39949997E+02  0.58400E+04
 0.39999996E+02  0.56470E+04
 0.40049999E+02  0.55040E+04
 0.40099998E+02  0.53590E+04
 0.40149998E+02  0.51460E+04
 0.40199997E+02  0.49100E+04
 0.40249996E+02  0.47260E+04
 0.40299999E+02  0.45630E+04
 0.40349998E+02  0.43670E+04
 0.40399998E+02  0.41100E+04
 0.40449997E+02  0.38690E+04
 0.40499996E+02  0.36870E+04
 0.40549999E+02  0.35140E+04
 0.40599998E+02  0.32950E+04
 0.40649998E+02  0.30240E+04
 0.40699997E+02  0.27950E+04
 0.40749996E+02  0.26140E+04
 0.40799999E+02  0.24270E+04
 0.40849998E+02  0.21850E+04
 0.40899998E+02  0.19200E+04
 0.40949997E+02  0.17180E+04
 0.40999996E+02  0.15470E+04
 0.41049999E+02  0.13450E+04
 0.41099998E+02  0.11000E+04
 0.41149998E+02  0.87800E+03
 0.41199997E+02  0.71500E+03
 0.41249996E+02  0.54800E+03
 0.41299999E+02  0.33700E+03
 0.41349998E+02  0.11500E+03
 0.41399998E+02 -0.68000E+02
 0.41449997E+02 -0.21400E+03
 0.41499996E+02 -0.37100E+03
 0.41549999E+02 -0.55800E+03
 0.41599998E+02 -0.74500E+03
 0.41649998E+02 -0.89900E+03
 0.41699997E+02 -0.10190E+04
 0.41749996E+02 -0.11620E+04
 0.41799995E+02 -0.13450E+04
 0.41849998E+02 -0.15020E+04
 0.41899998E+02 -0.16180E+04
 0.41949997E+02 -0.17210E+04
 0.41999996E+02 -0.18460E+04
 0.42049995E+02 -0.19820E+04
 0.42099998E+02 -0.21040E+04
 0.42149998E+02 -0.22150E+04
 0.42199997E+02 -0.23010E+04
 0.42249996E+02 -0.23800E+04
 0.42299995E+02 -0.24540E+04
 0.42349998E+02 -0.25180E+04
 0.42399998E+02 -0.25840E+04
 0.42449997E+02 -0.26640E+04
 0.42499996E+02 -0.27310E+04
 0.42549995E+02 -0.27530E+04
 0.42599998E+02 -0.27840E+04
 0.42649998E+02 -0.28310E+04
 0.42699997E+02 -0.28700E+04
 0.42749996E+02 -0.28750E+04
 0.42799995E+02 -0.28760E+04
 0.42849998E+02 -0.28990E+04
 0.42899998E+02 -0.29160E+04
 0.42949997E+02 -0.29260E+04
 0.42999996E+02 -0.29000E+04
 0.43049995E+02 -0.28710E+04
 0.43099998E+02 -0.28510E+04
 0.43149998E+02 -0.28510E+04
 0.43199997E+02 -0.28510E+04
 0.43249996E+02 -0.28150E+04
 0.43299995E+02 -0.27830E+04
 0.43349998E+02 -0.27430E+04
 0.43399998E+02 -0.27210E+04
 0.43449997E+02 -0.27120E+04
 0.43499996E+02 -0.26960E+04
 0.43549995E+02 -0.26610E+04
 0.43599998E+02 -0.26090E+04
 0.43649998E+02 -0.25900E+04
 0.43699997E+02 -0.25790E+04
 0.43749996E+02 -0.25490E+04
 0.43799995E+02 -0.25020E+04
 0.43849998E+02 -0.24840E+04
 0.43899998E+02 -0.24810E+04
 0.43949997E+02 -0.24450E+04
 0.43999996E+02 -0.23910E+04
 0.44049995E+02 -0.23470E+04
 0.44099998E+02 -0.23410E+04
 0.44149998E+02 -0.23480E+04
 0.44199997E+02 -0.23290E+04
 0.44249996E+02 -0.22790E+04
 0.44299995E+02 -0.22290E+04
 0.44349998E+02 -0.22200E+04
 0.44399998E+02 -0.22240E+04
 0.44449997E+02 -0.22100E+04
 0.44499996E+02 -0.21640E+04
 0.44549995E+02 -0.21250E+04
 0.44599998E+02 -0.21220E+04
 0.44649998E+02 -0.21200E+04
 0.44699997E+02 -0.21020E+04
 0.44749996E+02 -0.20490E+04
 0.44799995E+02 -0.20290E+04
 0.44849998E+02 -0.20560E+04
 0.44899998E+02 -0.20670E+04
 0.44949997E+02 -0.20310E+04
 0.44999996E+02 -0.19810E+04
 0.45049995E+02 -0.19980E+04
 0.45099998E+02 -0.20530E+04
 0.45149998E+02 -0.20740E+04
 0.45199997E+02 -0.20350E+04
 0.45249996E+02 -0.20120E+04
 0.45299995E+02 -0.20640E+04
 0.45349998E+02 -0.21280E+04
 0.45399998E+02 -0.21310E+04
 0.45449997E+02 -0.20940E+04
 0.45499996E+02 -0.21120E+04
 0.45549995E+02 -0.21840E+04
 0.45599998E+02 -0.22230E+04
 0.45649998E+02 -0.21950E+04
 0.45699997E+02 -0.21770E+04
 0.45749996E+02 -0.22260E+04
 0.45799995E+02 -0.22760E+04
 0.45849998E+02 -0.22630E+04
 0.45899998E+02 -0.22330E+04
 0.45949997E+02 -0.22520E+04
 0.45999996E+02 -0.23040E+04
 0.46049995E+02 -0.23070E+04
 0.46099998E+02 -0.22620E+04
 0.46149998E+02 -0.22390E+04
 0.46199997E+02 -0.22620E+04
 0.46249996E+02 -0.22930E+04
 0.46299995E+02 -0.22730E+04
 0.46349998E+02 -0.22300E+04
 0.46399998E+02 -0.22080E+04
 0.46449997E+02 -0.22190E+04
 0.46499996E+02 -0.22310E+04
 0.46549995E+02 -0.22090E+04
 0.46599998E+02 -0.21750E+04
 0.46649998E+02 -0.21490E+04
 0.46699997E+02 -0.21350E+04
 0.46749996E+02 -0.21160E+04
 0.46799995E+02 -0.20840E+04
 0.46849998E+02 -0.20480E+04
 0.46899998E+02 -0.20170E+04
 0.46949997E+02 -0.19770E+04
 0.46999996E+02 -0.19290E+04
 0.47049995E+02 -0.18820E+04
 0.47099998E+02 -0.18280E+04
 0.47149998E+02 -0.17710E+04
 0.47199997E+02 -0.17150E+04
 0.47249996E+02 -0.16450E+04
 0.47299995E+02 -0.15620E+04
 0.47349998E+02 -0.14840E+04
 0.47399998E+02 -0.14240E+04
 0.47449997E+02 -0.13530E+04
 0.47499996E+02 -0.12340E+04
 0.47549995E+02 -0.11160E+04
 0.47599998E+02 -0.10400E+04
 0.47649998E+02 -0.98500E+03
 0.47699997E+02 -0.88200E+03
 0.47749996E+02 -0.73600E+03
 0.47799995E+02 -0.61800E+03
 0.47849998E+02 -0.53400E+03
 0.47899998E+02 -0.44100E+03
 0.47949997E+02 -0.30600E+03
 0.47999996E+02 -0.16100E+03
 0.48049995E+02 -0.34000E+02
 0.48099998E+02  0.76000E+02
 0.48149998E+02  0.20200E+03
 0.48199997E+02  0.35700E+03
 0.48249996E+02  0.52500E+03
 0.48299995E+02  0.69300E+03
 0.48349998E+02  0.83600E+03
 0.48399998E+02  0.97500E+03
 0.48449997E+02  0.11460E+04
 0.48499996E+02  0.13540E+04
 0.48549995E+02  0.15620E+04
 0.48599998E+02  0.17360E+04
 0.48649998E+02  0.19010E+04
 0.48699997E+02  0.20870E+04
 0.48749996E+02  0.23080E+04
 0.48799995E+02  0.25360E+04
 0.48849998E+02  0.27440E+04
 0.48899998E+02  0.29260E+04
 0.48949997E+02  0.31180E+04
 0.48999996E+02  0.33410E+04
 0.49049995E+02  0.35810E+04
 0.49099998E+02  0.38100E+04
 0.49149998E+02  0.40050E+04
 0.49199997E+02  0.42030E+04
 0.49249996E+02  0.44320E+04
 0.49299995E+02  0.46810E+04
 0.49349998E+02  0.49150E+04
 0.49399998E+02  0.51190E+04
 0.49449997E+02  0.53320E+04
 0.49499996E+02  0.55740E+04
 0.49549995E+02  0.58260E+04
 0.49599998E+02  0.60550E+04
 0.49649998E+02  0.62690E+04
 0.49699997E+02  0.64850E+04
 0.49749996E+02  0.67220E+04
 0.49799995E+02  0.69700E+04
 0.49849998E+02  0.71940E+04
 0.49899998E+02  0.73950E+04
 0.49949997E+02  0.75900E+04
 0.49999996E+02  0.78020E+04
 0.50049995E+02  0.80160E+04
 0.50099998E+02  0.82090E+04
 0.50149998E+02  0.83830E+04
 0.50199997E+02  0.85470E+04
 0.50249996E+02  0.87110E+04
 0.50299995E+02  0.88760E+04
 0.50349998E+02  0.90240E+04
 0.50399998E+02  0.91500E+04
 0.50449997E+02  0.92750E+04
 0.50499996E+02  0.94040E+04
 0.50549995E+02  0.95220E+04
 0.50599998E+02  0.96160E+04
 0.50649998E+02  0.96960E+04
 0.50699997E+02  0.97810E+04
 0.50749996E+02  0.98630E+04
 0.50799995E+02  0.99220E+04
 0.50849998E+02  0.99630E+04
 0.50899998E+02  0.10007E+05
 0.50949997E+02  0.10056E+05
 0.50999996E+02  0.10081E+05
 0.51049995E+02  0.10072E+05
 0.51099998E+02  0.10065E+05
 0.51149998E+02  0.10081E+05
 0.51199997E+02  0.10087E+05
 0.51249996E+02  0.10043E+05
 0.51299995E+02  0.99870E+04
 0.51349998E+02  0.99590E+04
 0.51399998E+02  0.99230E+04
 0.51449997E+02  0.98560E+04
 0.51499996E+02  0.97800E+04
 0.51549995E+02  0.97240E+04
 0.51599998E+02  0.96600E+04
 0.51649998E+02  0.95590E+04
 0.51699997E+02  0.94500E+04
 0.51749996E+02  0.93510E+04
 0.51799995E+02  0.92640E+04
 0.51849998E+02  0.91680E+04
 0.51899998E+02  0.90590E+04
 0.51949997E+02  0.89280E+04
 0.51999996E+02  0.87880E+04
 0.52049995E+02  0.86670E+04
 0.52099998E+02  0.85460E+04
 0.52149998E+02  0.84070E+04
 0.52199997E+02  0.82490E+04
 0.52249996E+02  0.81010E+04
 0.52299995E+02  0.79640E+04
 0.52349998E+02  0.78200E+04
 0.52399998E+02  0.76610E+04
 0.52449997E+02  0.75000E+04
 0.52499996E+02  0.73550E+04
 0.52549995E+02  0.72070E+04
 0.52599998E+02  0.70460E+04
 0.52649998E+02  0.68710E+04
 0.52699997E+02  0.66920E+04
 0.52749996E+02  0.65200E+04
 0.52799995E+02  0.63540E+04
 0.52849998E+02  0.61880E+04
 0.52899998E+02  0.60120E+04
 0.52949997E+02  0.58240E+04
 0.52999996E+02  0.56230E+04
 0.53049995E+02  0.54360E+04
 0.53099998E+02  0.52600E+04
 0.53149998E+02  0.50790E+04
 0.53199997E+02  0.48660E+04
 0.53249996E+02  0.46480E+04
 0.53299995E+02  0.44750E+04
 0.53349998E+02  0.43170E+04
 0.53399998E+02  0.41310E+04
 0.53449997E+02  0.39130E+04
 0.53499996E+02  0.37170E+04
 0.53549995E+02  0.35570E+04
 0.53599998E+02  0.33960E+04
 0.53649998E+02  0.32150E+04
 0.53699997E+02  0.30170E+04
 0.53749996E+02  0.28260E+04
 0.53799995E+02  0.26490E+04
 0.53849998E+02  0.24840E+04
 0.53899998E+02  0.23120E+04
 0.53949997E+02  0.21230E+04
 0.53999996E+02  0.19370E+04
 0.54049995E+02  0.17630E+04
 0.54099998E+02  0.16100E+04
 0.54149998E+02  0.14550E+04
 0.54199997E+02  0.12920E+04
 0.54249996E+02  0.11270E+04
 0.54299995E+02  0.96600E+03
 0.54349998E+02  0.82700E+03
 0.54399998E+02  0.69800E+03
 0.54449997E+02  0.57800E+03
 0.54499996E+02  0.43900E+03
 0.54549995E+02  0.28500E+03
 0.54599998E+02  0.14800E+03
 0.54649998E+02  0.37000E+02
 0.54699997E+02 -0.57000E+02
 0.54749996E+02 -0.18800E+03
 0.54799995E+02 -0.35300E+03
 0.54849995E+02 -0.51100E+03
 0.54899998E+02 -0.62000E+03
 0.54949997E+02 -0.71500E+03
 0.54999996E+02 -0.84100E+03
 0.55049995E+02 -0.99600E+03
 0.55099995E+02 -0.11520E+04
 0.55149998E+02 -0.12780E+04
 0.55199997E+02 -0.14150E+04
 0.55249996E+02 -0.15580E+04
 0.55299995E+02 -0.17100E+04
 0.55349995E+02 -0.18550E+04
 0.55399998E+02 -0.19990E+04
 0.55449997E+02 -0.21630E+04
 0.55499996E+02 -0.23270E+04
 0.55549995E+02 -0.24780E+04
 0.55599995E+02 -0.26130E+04
 0.55649998E+02 -0.27680E+04
 0.55699997E+02 -0.29470E+04
 0.55749996E+02 -0.31270E+04
 0.55799995E+02 -0.32780E+04
 0.55849995E+02 -0.34150E+04
 0.55899998E+02 -0.35800E+04
 0.55949997E+02 -0.37630E+04
 0.55999996E+02 -0.39400E+04
 0.56049995E+02 -0.40890E+04
 0.56099995E+02 -0.42330E+04
 0.56149998E+02 -0.43970E+04
 0.56199997E+02 -0.45830E+04
 0.56249996E+02 -0.47480E+04
 0.56299995E+02 -0.48720E+04
 0.56349995E+02 -0.49960E+04
 0.56399998E+02 -0.51580E+04
 0.56449997E+02 -0.53500E+04
 0.56499996E+02 -0.54960E+04
 0.56549995E+02 -0.55960E+04
 0.56599995E+02 -0.57090E+04
 0.56649998E+02 -0.58730E+04
 0.56699997E+02 -0.60350E+04
 0.56749996E+02 -0.61330E+04
 0.56799995E+02 -0.62050E+04
 0.56849995E+02 -0.63050E+04
 0.56899998E+02 -0.64330E+04
 0.56949997E+02 -0.65360E+04
 0.56999996E+02 -0.65790E+04
 0.57049995E+02 -0.65980E+04
 0.57099995E+02 -0.66380E+04
 0.57149998E+02 -0.66980E+04
 0.57199997E+02 -0.67220E+04
 0.57249996E+02 -0.66890E+04
 0.57299995E+02 -0.66380E+04
 0.57349995E+02 -0.66220E+04
 0.57399998E+02 -0.66150E+04
 0.57449997E+02 -0.65510E+04
 0.57499996E+02 -0.64460E+04
 0.57549995E+02 -0.63530E+04
 0.57599995E+02 -0.62810E+04
 0.57649998E+02 -0.61910E+04
 0.57699997E+02 -0.60680E+04
 0.57749996E+02 -0.59440E+04
 0.57799995E+02 -0.58350E+04
 0.57849995E+02 -0.57270E+04
 0.57899998E+02 -0.55950E+04
 0.57949997E+02 -0.54450E+04
 0.57999996E+02 -0.52990E+04
 0.58049995E+02 -0.51570E+04
 0.58099995E+02 -0.50160E+04
 0.58149998E+02 -0.48570E+04
 0.58199997E+02 -0.46890E+04
 0.58249996E+02 -0.45240E+04
 0.58299995E+02 -0.43610E+04
 0.58349995E+02 -0.42090E+04
 0.58399998E+02 -0.40420E+04
 0.58449997E+02 -0.38530E+04
 0.58499996E+02 -0.36580E+04
 0.58549995E+02 -0.34830E+04
 0.58599995E+02 -0.33200E+04
 0.58649998E+02 -0.31300E+04
 0.58699997E+02 -0.29170E+04
 0.58749996E+02 -0.27190E+04
 0.58799995E+02 -0.25480E+04
 0.58849995E+02 -0.23730E+04
 0.58899998E+02 -0.21640E+04
 0.58949997E+02 -0.19440E+04
 0.58999996E+02 -0.17390E+04
 0.59049995E+02 -0.15300E+04
 0.59099995E+02 -0.13120E+04
 0.59149998E+02 -0.10960E+04
 0.59199997E+02 -0.88500E+03
 0.59249996E+02 -0.64700E+03
 0.59299995E+02 -0.39000E+03
 0.59349995E+02 -0.14400E+03
 0.59399998E+02  0.84000E+02
 0.59449997E+02  0.30200E+03
 0.59499996E+02  0.53200E+03
 0.59549995E+02  0.77700E+03
 0.59599995E+02  0.10530E+04
 0.59649998E+02  0.13090E+04
 0.59699997E+02  0.15170E+04
 0.59749996E+02  0.17160E+04
 0.59799995E+02  0.19580E+04
 0.59849995E+02  0.22340E+04
 0.59899998E+02  0.24830E+04
 0.59949997E+02  0.26800E+04
 0.59999996E+02  0.28550E+04
 0.60049995E+02  0.30750E+04
 0.60099995E+02  0.33220E+04
 0.60149998E+02  0.35350E+04
 0.60199997E+02  0.36900E+04
 0.60249996E+02  0.38480E+04
 0.60299995E+02  0.40550E+04
 0.60349995E+02  0.42660E+04
 0.60399998E+02  0.44310E+04
 0.60449997E+02  0.45480E+04
 0.60499996E+02  0.46880E+04
 0.60549995E+02  0.48740E+04
 0.60599995E+02  0.50540E+04
 0.60649998E+02  0.51810E+04
 0.60699997E+02  0.52900E+04
 0.60749996E+02  0.54290E+04
 0.60799995E+02  0.55840E+04
 0.60849995E+02  0.57220E+04
 0.60899998E+02  0.58350E+04
 0.60949997E+02  0.59510E+04
 0.60999996E+02  0.60610E+04
 0.61049995E+02  0.61690E+04
 0.61099998E+02  0.62800E+04
 0.61149994E+02  0.63910E+04
 0.61199997E+02  0.64970E+04
 0.61249992E+02  0.65660E+04
 0.61299995E+02  0.66180E+04
 0.61349998E+02  0.66890E+04
 0.61399994E+02  0.67800E+04
 0.61449997E+02  0.68510E+04
 0.61499992E+02  0.68730E+04
 0.61549995E+02  0.68780E+04
 0.61599998E+02  0.69060E+04
 0.61649994E+02  0.69370E+04
 0.61699997E+02  0.69440E+04
 0.61749992E+02  0.69470E+04
 0.61799995E+02  0.69420E+04
 0.61849998E+02  0.69060E+04
 0.61899994E+02  0.68380E+04
 0.61949997E+02  0.68020E+04
 0.61999992E+02  0.68070E+04
 0.62049995E+02  0.67780E+04
 0.62099998E+02  0.66610E+04
 0.62149994E+02  0.65160E+04
 0.62199997E+02  0.64590E+04
 0.62249992E+02  0.64450E+04
 0.62299995E+02  0.63600E+04
 0.62349998E+02  0.61710E+04
 0.62399994E+02  0.59920E+04
 0.62449997E+02  0.59220E+04
 0.62499992E+02  0.58710E+04
 0.62549995E+02  0.57190E+04
 0.62599998E+02  0.54840E+04
 0.62649994E+02  0.53140E+04
 0.62699997E+02  0.52410E+04
 0.62749992E+02  0.51320E+04
 0.62799995E+02  0.49070E+04
 0.62849998E+02  0.46610E+04
 0.62899994E+02  0.45150E+04
 0.62949997E+02  0.44170E+04
 0.62999992E+02  0.42320E+04
 0.63049995E+02  0.39590E+04
 0.63099998E+02  0.37320E+04
 0.63149994E+02  0.35910E+04
 0.63199997E+02  0.34340E+04
 0.63249992E+02  0.31800E+04
 0.63299995E+02  0.28960E+04
 0.63349998E+02  0.26940E+04
 0.63399994E+02  0.25300E+04
 0.63449997E+02  0.23090E+04
 0.63499992E+02  0.20250E+04
 0.63549995E+02  0.17730E+04
 0.63599998E+02  0.15810E+04
 0.63649994E+02  0.13640E+04
 0.63699997E+02  0.10890E+04
 0.63749992E+02  0.80700E+03
 0.63799995E+02  0.57200E+03
 0.63849998E+02  0.36500E+03
 0.63899994E+02  0.12400E+03
 0.63949997E+02 -0.16900E+03
 0.63999992E+02 -0.46400E+03
 0.64049995E+02 -0.70000E+03
 0.64099998E+02 -0.90200E+03
 0.64149994E+02 -0.11520E+04
 0.64199997E+02 -0.14480E+04
 0.64249992E+02 -0.17190E+04
 0.64299995E+02 -0.19430E+04
 0.64349998E+02 -0.21560E+04
 0.64399994E+02 -0.23860E+04
 0.64449997E+02 -0.26440E+04
 0.64499992E+02 -0.28920E+04
 0.64549995E+02 -0.31050E+04
 0.64599998E+02 -0.33040E+04
 0.64649994E+02 -0.35100E+04
 0.64699997E+02 -0.37390E+04
 0.64749992E+02 -0.39450E+04
 0.64799995E+02 -0.41220E+04
 0.64849998E+02 -0.42990E+04
 0.64899994E+02 -0.44880E+04
 0.64949997E+02 -0.46770E+04
 0.64999992E+02 -0.48330E+04
 0.65049995E+02 -0.49740E+04
 0.65099998E+02 -0.51340E+04
 0.65149994E+02 -0.52990E+04
 0.65199997E+02 -0.54350E+04
 0.65249992E+02 -0.55550E+04
 0.65299995E+02 -0.56880E+04
 0.65349998E+02 -0.58280E+04
 0.65399994E+02 -0.59560E+04
 0.65449997E+02 -0.60610E+04
 0.65499992E+02 -0.61620E+04
 0.65549995E+02 -0.62680E+04
 0.65599998E+02 -0.63780E+04
 0.65649994E+02 -0.64860E+04
 0.65699997E+02 -0.65790E+04
 0.65749992E+02 -0.66550E+04
 0.65799995E+02 -0.67440E+04
 0.65849998E+02 -0.68480E+04
 0.65899994E+02 -0.69410E+04
 0.65949997E+02 -0.70160E+04
 0.65999992E+02 -0.70790E+04
 0.66049995E+02 -0.71520E+04
 0.66099998E+02 -0.72250E+04
 0.66149994E+02 -0.72940E+04
 0.66199997E+02 -0.73550E+04
 0.66249992E+02 -0.73890E+04
 0.66299995E+02 -0.74130E+04
 0.66349998E+02 -0.74420E+04
 0.66399994E+02 -0.74850E+04
 0.66449997E+02 -0.75090E+04
 0.66499992E+02 -0.75050E+04
 0.66549995E+02 -0.74970E+04
 0.66599998E+02 -0.74970E+04
 0.66649994E+02 -0.74980E+04
 0.66699997E+02 -0.74780E+04
 0.66749992E+02 -0.74550E+04
 0.66799995E+02 -0.74340E+04
 0.66849998E+02 -0.73990E+04
 0.66899994E+02 -0.73530E+04
 0.66949997E+02 -0.73070E+04
 0.66999992E+02 -0.72590E+04
 0.67049995E+02 -0.71980E+04
 0.67099998E+02 -0.71320E+04
 0.67149994E+02 -0.70680E+04
 0.67199997E+02 -0.69950E+04
 0.67249992E+02 -0.69060E+04
 0.67299995E+02 -0.68230E+04
 0.67349998E+02 -0.67520E+04
 0.67399994E+02 -0.66790E+04
 0.67449997E+02 -0.65820E+04
 0.67499992E+02 -0.64650E+04
 0.67549995E+02 -0.63730E+04
 0.67599998E+02 -0.63030E+04
 0.67649994E+02 -0.62220E+04
 0.67699997E+02 -0.61200E+04
 0.67749992E+02 -0.60180E+04
 0.67799995E+02 -0.59300E+04
 0.67849998E+02 -0.58460E+04
 0.67899994E+02 -0.57550E+04
 0.67949997E+02 -0.56460E+04
 0.67999992E+02 -0.55440E+04
 0.68049995E+02 -0.54440E+04
 0.68099998E+02 -0.53340E+04
 0.68149994E+02 -0.52120E+04
 0.68199997E+02 -0.50780E+04
 0.68249992E+02 -0.49550E+04
 0.68299995E+02 -0.48230E+04
 0.68349998E+02 -0.46640E+04
 0.68399994E+02 -0.44870E+04
 0.68449997E+02 -0.43200E+04
 0.68499992E+02 -0.41660E+04
 0.68549995E+02 -0.39920E+04
 0.68599998E+02 -0.37850E+04
 0.68649994E+02 -0.35750E+04
 0.68699997E+02 -0.33960E+04
 0.68749992E+02 -0.32000E+04
 0.68799995E+02 -0.29760E+04
 0.68849998E+02 -0.27600E+04
 0.68899994E+02 -0.25590E+04
 0.68949997E+02 -0.23570E+04
 0.68999992E+02 -0.21330E+04
 0.69049995E+02 -0.19120E+04
 0.69099998E+02 -0.17070E+04
 0.69149994E+02 -0.15040E+04
 0.69199997E+02 -0.12910E+04
 0.69249992E+02 -0.10760E+04
 0.69299995E+02 -0.87000E+03
 0.69349998E+02 -0.67500E+03
 0.69399994E+02 -0.48400E+03
 0.69449997E+02 -0.29200E+03
 0.69499992E+02 -0.10300E+03
 0.69549995E+02  0.74000E+02
 0.69599998E+02  0.23400E+03
 0.69649994E+02  0.38800E+03
 0.69699997E+02  0.54900E+03
 0.69749992E+02  0.70600E+03
 0.69799995E+02  0.83200E+03
 0.69849998E+02  0.93900E+03
 0.69899994E+02  0.10500E+04
 0.69949997E+02  0.11730E+04
 0.69999992E+02  0.12860E+04
 0.70049995E+02  0.13600E+04
 0.70099998E+02  0.14160E+04
 0.70149994E+02  0.14820E+04
 0.70199997E+02  0.15590E+04
 0.70249992E+02  0.16160E+04
 0.70299995E+02  0.16350E+04
 0.70349998E+02  0.16380E+04
 0.70399994E+02  0.16540E+04
 0.70449997E+02  0.16760E+04
 0.70499992E+02  0.16710E+04
 0.70549995E+02  0.16380E+04
 0.70599998E+02  0.15880E+04
 0.70649994E+02  0.15440E+04
 0.70699997E+02  0.15010E+04
 0.70749992E+02  0.14340E+04
 0.70799995E+02  0.13280E+04
 0.70849998E+02  0.12070E+04
 0.70899994E+02  0.11000E+04
 0.70949997E+02  0.98100E+03
 0.70999992E+02  0.83500E+03
 0.71049995E+02  0.65600E+03
 0.71099998E+02  0.47000E+03
 0.71149994E+02  0.27900E+03
 0.71199997E+02  0.77000E+02
 0.71249992E+02 -0.13800E+03
 0.71299995E+02 -0.37700E+03
 0.71349998E+02 -0.62300E+03
 0.71399994E+02 -0.88400E+03
 0.71449997E+02 -0.11490E+04
 0.71499992E+02 -0.14180E+04
 0.71549995E+02 -0.17030E+04
 0.71599998E+02 -0.20060E+04
 0.71649994E+02 -0.23240E+04
 0.71699997E+02 -0.26370E+04
 0.71749992E+02 -0.29520E+04
 0.71799995E+02 -0.32760E+04
 0.71849998E+02 -0.36140E+04
 0.71899994E+02 -0.39640E+04
 0.71949997E+02 -0.43230E+04
 0.71999992E+02 -0.46790E+04
 0.72049995E+02 -0.50270E+04
 0.72099998E+02 -0.53890E+04
 0.72149994E+02 -0.57650E+04
 0.72199997E+02 -0.61430E+04
 0.72249992E+02 -0.65100E+04
 0.72299995E+02 -0.68690E+04
 0.72349998E+02 -0.72380E+04
 0.72399994E+02 -0.76170E+04
 0.72449997E+02 -0.79890E+04
 0.72499992E+02 -0.83500E+04
 0.72549995E+02 -0.87130E+04
 0.72599998E+02 -0.90770E+04
 0.72649994E+02 -0.94300E+04
 0.72699997E+02 -0.97790E+04
 0.72749992E+02 -0.10133E+05
 0.72799995E+02 -0.10485E+05
 0.72849998E+02 -0.10817E+05
 0.72899994E+02 -0.11136E+05
 0.72949997E+02 -0.11460E+05
 0.72999992E+02 -0.11788E+05
 0.73049995E+02 -0.12102E+05
 0.73099998E+02 -0.12391E+05
 0.73149994E+02 -0.12670E+05
 0.73199997E+02 -0.12946E+05
 0.73249992E+02 -0.13212E+05
 0.73299995E+02 -0.13478E+05
 0.73349998E+02 -0.13740E+05
 0.73399994E+02 -0.13987E+05
 0.73449997E+02 -0.14208E+05
 0.73499992E+02 -0.14440E+05
 0.73549995E+02 -0.14690E+05
 0.73599998E+02 -0.14898E+05
 0.73649994E+02 -0.15060E+05
 0.73699997E+02 -0.15239E+05
 0.73749992E+02 -0.15455E+05
 0.73799995E+02 -0.15648E+05
 0.73849998E+02 -0.15780E+05
 0.73899994E+02 -0.15893E+05
 0.73949997E+02 -0.16038E+05
 0.73999992E+02 -0.16196E+05
 0.74049995E+02 -0.16319E+05
 0.74099998E+02 -0.16407E+05
 0.74149994E+02 -0.16495E+05
 0.74199997E+02 -0.16609E+05
 0.74249992E+02 -0.16727E+05
 0.74299995E+02 -0.16814E+05
 0.74349998E+02 -0.16877E+05
 0.74399994E+02 -0.16953E+05
 0.74449997E+02 -0.17042E+05
 0.74499992E+02 -0.17129E+05
 0.74549995E+02 -0.17190E+05
 0.74599998E+02 -0.17234E+05
 0.74649994E+02 -0.17294E+05
 0.74699997E+02 -0.17374E+05
 0.74749992E+02 -0.17446E+05
 0.74799995E+02 -0.17486E+05
 0.74849998E+02 -0.17519E+05
 0.74899994E+02 -0.17577E+05
 0.74949997E+02 -0.17640E+05
 0.74999992E+02 -0.17683E+05
 0.75049995E+02 -0.17710E+05
 0.75099998E+02 -0.17745E+05
 0.75149994E+02 -0.17800E+05
 0.75199997E+02 -0.17847E+05
 0.75249992E+02 -0.17867E+05
 0.75299995E+02 -0.17885E+05
 0.75349998E+02 -0.17926E+05
 0.75399994E+02 -0.17980E+05
 0.75449997E+02 -0.18018E+05
 0.75499992E+02 -0.18048E+05
 0.75549995E+02 -0.18088E+05
 0.75599998E+02 -0.18133E+05
 0.75649994E+02 -0.18173E+05
 0.75699997E+02 -0.18214E+05
 0.75749992E+02 -0.18267E+05
 0.75799995E+02 -0.18317E+05
 0.75849998E+02 -0.18361E+05
 0.75899994E+02 -0.18402E+05
 0.75949997E+02 -0.18447E+05
 0.75999992E+02 -0.18502E+05
 0.76049995E+02 -0.18561E+05
 0.76099998E+02 -0.18616E+05
 0.76149994E+02 -0.18652E+05
 0.76199997E+02 -0.18691E+05
 0.76249992E+02 -0.18755E+05
 0.76299995E+02 -0.18830E+05
 0.76349998E+02 -0.18881E+05
 0.76399994E+02 -0.18900E+05
 0.76449997E+02 -0.18930E+05
 0.76499992E+02 -0.19000E+05
 0.76549995E+02 -0.19078E+05
 0.76599998E+02 -0.19116E+05
 0.76649994E+02 -0.19128E+05
 0.76699997E+02 -0.19147E+05
 0.76749992E+02 -0.19201E+05
 0.76799995E+02 -0.19255E+05
 0.76849998E+02 -0.19269E+05
 0.76899994E+02 -0.19272E+05
 0.76949997E+02 -0.19285E+05
 0.76999992E+02 -0.19321E+05
 0.77049995E+02 -0.19348E+05
 0.77099998E+02 -0.19343E+05
 0.77149994E+02 -0.19335E+05
 0.77199997E+02 -0.19339E+05
 0.77249992E+02 -0.19356E+05
 0.77299995E+02 -0.19355E+05
 0.77349998E+02 -0.19326E+05
 0.77399994E+02 -0.19301E+05
 0.77449997E+02 -0.19298E+05
 0.77499992E+02 -0.19299E+05
 0.77549995E+02 -0.19274E+05
 0.77599998E+02 -0.19231E+05
 0.77649994E+02 -0.19196E+05
 0.77699997E+02 -0.19176E+05
 0.77749992E+02 -0.19144E+05
 0.77799995E+02 -0.19099E+05
 0.77849998E+02 -0.19048E+05
 0.77899994E+02 -0.18993E+05
 0.77949997E+02 -0.18941E+05
 0.77999992E+02 -0.18881E+05
 0.78049995E+02 -0.18813E+05
 0.78099998E+02 -0.18733E+05
 0.78149994E+02 -0.18653E+05
 0.78199997E+02 -0.18573E+05
 0.78249992E+02 -0.18483E+05
 0.78299995E+02 -0.18379E+05
 0.78349998E+02 -0.18263E+05
 0.78399994E+02 -0.18151E+05
 0.78449997E+02 -0.18039E+05
 0.78499992E+02 -0.17909E+05
 0.78549995E+02 -0.17772E+05
 0.78599998E+02 -0.17634E+05
 0.78649994E+02 -0.17485E+05
 0.78699997E+02 -0.17322E+05
 0.78749992E+02 -0.17145E+05
 0.78799995E+02 -0.16968E+05
 0.78849998E+02 -0.16787E+05
 0.78899994E+02 -0.16598E+05
 0.78949997E+02 -0.16399E+05
 0.78999992E+02 -0.16173E+05
 0.79049995E+02 -0.15932E+05
 0.79099998E+02 -0.15700E+05
 0.79149994E+02 -0.15488E+05
 0.79199997E+02 -0.15261E+05
 0.79249992E+02 -0.14978E+05
 0.79299995E+02 -0.14691E+05
 0.79349998E+02 -0.14444E+05
 0.79399994E+02 -0.14211E+05
 0.79449997E+02 -0.13928E+05
 0.79499992E+02 -0.13603E+05
 0.79549995E+02 -0.13306E+05
 0.79599998E+02 -0.13037E+05
 0.79649994E+02 -0.12754E+05
 0.79699997E+02 -0.12438E+05
 0.79749992E+02 -0.12118E+05
 0.79799995E+02 -0.11813E+05
 0.79849998E+02 -0.11506E+05
 0.79899994E+02 -0.11174E+05
 0.79949997E+02 -0.10826E+05
 0.79999992E+02 -0.10495E+05
 0.80049995E+02 -0.10175E+05
 0.80099998E+02 -0.98480E+04
 0.80149994E+02 -0.94920E+04
 0.80199997E+02 -0.91270E+04
 0.80249992E+02 -0.87790E+04
 0.80299995E+02 -0.84250E+04
 0.80349998E+02 -0.80600E+04
 0.80399994E+02 -0.76850E+04
 0.80449997E+02 -0.73120E+04
 0.80499992E+02 -0.69470E+04
 0.80549995E+02 -0.65790E+04
 0.80599998E+02 -0.61970E+04
 0.80649994E+02 -0.58150E+04
 0.80699997E+02 -0.54510E+04
 0.80749992E+02 -0.50960E+04
 0.80799995E+02 -0.47320E+04
 0.80849998E+02 -0.43520E+04
 0.80899994E+02 -0.39830E+04
 0.80949997E+02 -0.36410E+04
 0.80999992E+02 -0.33060E+04
 0.81049995E+02 -0.29460E+04
 0.81099998E+02 -0.25690E+04
 0.81149994E+02 -0.22140E+04
 0.81199997E+02 -0.18740E+04
 0.81249992E+02 -0.15230E+04
 0.81299995E+02 -0.11430E+04
 0.81349998E+02 -0.76600E+03
 0.81399994E+02 -0.42000E+03
 0.81449997E+02 -0.79000E+02
 0.81499992E+02  0.29300E+03
 0.81549995E+02  0.68900E+03
 0.81599998E+02  0.10420E+04
 0.81649994E+02  0.13620E+04
 0.81699997E+02  0.17080E+04
 0.81749992E+02  0.20940E+04
 0.81799995E+02  0.24730E+04
 0.81849998E+02  0.28000E+04
 0.81899994E+02  0.31270E+04
 0.81949997E+02  0.34870E+04
 0.81999992E+02  0.38650E+04
 0.82049995E+02  0.42190E+04
 0.82099998E+02  0.45390E+04
 0.82149994E+02  0.48640E+04
 0.82199997E+02  0.52080E+04
 0.82249992E+02  0.55600E+04
 0.82299995E+02  0.58910E+04
 0.82349998E+02  0.62070E+04
 0.82399994E+02  0.65140E+04
 0.82449997E+02  0.68290E+04
 0.82499992E+02  0.71470E+04
 0.82549995E+02  0.74510E+04
 0.82599998E+02  0.77430E+04
 0.82649994E+02  0.80220E+04
 0.82699997E+02  0.83040E+04
 0.82749992E+02  0.85800E+04
 0.82799995E+02  0.88420E+04
 0.82849998E+02  0.90850E+04
 0.82899994E+02  0.93190E+04
 0.82949997E+02  0.95450E+04
 0.82999992E+02  0.97610E+04
 0.83049995E+02  0.99710E+04
 0.83099998E+02  0.10169E+05
 0.83149994E+02  0.10352E+05
 0.83199997E+02  0.10526E+05
 0.83249992E+02  0.10703E+05
 0.83299995E+02  0.10883E+05
 0.83349998E+02  0.11048E+05
 0.83399994E+02  0.11192E+05
 0.83449997E+02  0.11325E+05
 0.83499992E+02  0.11469E+05
 0.83549995E+02  0.11625E+05
 0.83599998E+02  0.11757E+05
 0.83649994E+02  0.11857E+05
 0.83699997E+02  0.11946E+05
 0.83749992E+02  0.12046E+05
 0.83799995E+02  0.12159E+05
 0.83849998E+02  0.12265E+05
 0.83899994E+02  0.12330E+05
 0.83949997E+02  0.12366E+05
 0.83999992E+02  0.12419E+05
 0.84049995E+02  0.12501E+05
 0.84099998E+02  0.12586E+05
 0.84149994E+02  0.12627E+05
 0.84199997E+02  0.12631E+05
 0.84249992E+02  0.12646E+05
 0.84299995E+02  0.12702E+05
 0.84349998E+02  0.12751E+05
 0.84399994E+02  0.12757E+05
 0.84449997E+02  0.12749E+05
 0.84499992E+02  0.12758E+05
 0.84549995E+02  0.12799E+05
 0.84599998E+02  0.12828E+05
 0.84649994E+02  0.12824E+05
 0.84699997E+02  0.12799E+05
 0.84749992E+02  0.12793E+05
 0.84799995E+02  0.12821E+05
 0.84849998E+02  0.12839E+05
 0.84899994E+02  0.12833E+05
 0.84949997E+02  0.12803E+05
 0.84999992E+02  0.12803E+05
 0.85049995E+02  0.12832E+05
 0.85099998E+02  0.12833E+05
 0.85149994E+02  0.12793E+05
 0.85199997E+02  0.12753E+05
 0.85249992E+02  0.12775E+05
 0.85299995E+02  0.12813E+05
 0.85349998E+02  0.12808E+05
 0.85399994E+02  0.12752E+05
 0.85449997E+02  0.12705E+05
 0.85499992E+02  0.12723E+05
 0.85549995E+02  0.12749E+05
 0.85599998E+02  0.12729E+05
 0.85649994E+02  0.12676E+05
 0.85699997E+02  0.12641E+05
 0.85749992E+02  0.12646E+05
 0.85799995E+02  0.12645E+05
 0.85849998E+02  0.12605E+05
 0.85899994E+02  0.12556E+05
 0.85949997E+02  0.12523E+05
 0.85999992E+02  0.12503E+05
 0.86049995E+02  0.12463E+05
 0.86099998E+02  0.12395E+05
 0.86149994E+02  0.12342E+05
 0.86199997E+02  0.12310E+05
 0.86249992E+02  0.12275E+05
 0.86299995E+02  0.12202E+05
 0.86349998E+02  0.12114E+05
 0.86399994E+02  0.12044E+05
 0.86449997E+02  0.11995E+05
 0.86499992E+02  0.11939E+05
 0.86549995E+02  0.11853E+05
 0.86599991E+02  0.11758E+05
 0.86649994E+02  0.11675E+05
 0.86699997E+02  0.11613E+05
 0.86749992E+02  0.11533E+05
 0.86799995E+02  0.11437E+05
 0.86849991E+02  0.11349E+05
 0.86899994E+02  0.11287E+05
 0.86949997E+02  0.11230E+05
 0.86999992E+02  0.11137E+05
 0.87049995E+02  0.11030E+05
 0.87099991E+02  0.10952E+05
 0.87149994E+02  0.10905E+05
 0.87199997E+02  0.10837E+05
 0.87249992E+02  0.10738E+05
 0.87299995E+02  0.10649E+05
 0.87349991E+02  0.10589E+05
 0.87399994E+02  0.10532E+05
 0.87449997E+02  0.10456E+05
 0.87499992E+02  0.10373E+05
 0.87549995E+02  0.10293E+05
 0.87599991E+02  0.10220E+05
 0.87649994E+02  0.10151E+05
 0.87699997E+02  0.10076E+05
 0.87749992E+02  0.99900E+04
 0.87799995E+02  0.98840E+04
 0.87849991E+02  0.97820E+04
 0.87899994E+02  0.97250E+04
 0.87949997E+02  0.96830E+04
 0.87999992E+02  0.95810E+04
 0.88049995E+02  0.94430E+04
 0.88099991E+02  0.93430E+04
 0.88149994E+02  0.92910E+04
 0.88199997E+02  0.92350E+04
 0.88249992E+02  0.91230E+04
 0.88299995E+02  0.89860E+04
 0.88349991E+02  0.88770E+04
 0.88399994E+02  0.88200E+04
 0.88449997E+02  0.87530E+04
 0.88499992E+02  0.86250E+04
 0.88549995E+02  0.84830E+04
 0.88599991E+02  0.83770E+04
 0.88649994E+02  0.83120E+04
 0.88699997E+02  0.82110E+04
 0.88749992E+02  0.80670E+04
 0.88799995E+02  0.79340E+04
 0.88849991E+02  0.78380E+04
 0.88899994E+02  0.77530E+04
 0.88949997E+02  0.76220E+04
 0.88999992E+02  0.74650E+04
 0.89049995E+02  0.73300E+04
 0.89099991E+02  0.72300E+04
 0.89149994E+02  0.71190E+04
 0.89199997E+02  0.69730E+04
 0.89249992E+02  0.68160E+04
 0.89299995E+02  0.66840E+04
 0.89349991E+02  0.65800E+04
 0.89399994E+02  0.64590E+04
 0.89449997E+02  0.63090E+04
 0.89499992E+02  0.61600E+04
 0.89549995E+02  0.60360E+04
 0.89599991E+02  0.59150E+04
 0.89649994E+02  0.57750E+04
 0.89699997E+02  0.56230E+04
 0.89749992E+02  0.54860E+04
 0.89799995E+02  0.53610E+04
 0.89849991E+02  0.52210E+04
 0.89899994E+02  0.50590E+04
 0.89949997E+02  0.48920E+04
 0.89999992E+02  0.47410E+04
 0.90049995E+02  0.45980E+04
 0.90099991E+02  0.44420E+04
 0.90149994E+02  0.42620E+04
 0.90199997E+02  0.40790E+04
 0.90249992E+02  0.39090E+04
 0.90299995E+02  0.37400E+04
 0.90349991E+02  0.35480E+04
 0.90399994E+02  0.33590E+04
 0.90449997E+02  0.31900E+04
 0.90499992E+02  0.29980E+04
 0.90549995E+02  0.27690E+04
 0.90599991E+02  0.25400E+04
 0.90649994E+02  0.23670E+04
 0.90699997E+02  0.21960E+04
 0.90749992E+02  0.19610E+04
 0.90799995E+02  0.17000E+04
 0.90849991E+02  0.14910E+04
 0.90899994E+02  0.13180E+04
 0.90949997E+02  0.11030E+04
 0.90999992E+02  0.83900E+03
 0.91049995E+02  0.59000E+03
 0.91099991E+02  0.39400E+03
 0.91149994E+02  0.19200E+03
 0.91199997E+02 -0.57000E+02
 0.91249992E+02 -0.32500E+03
 0.91299995E+02 -0.56000E+03
 0.91349991E+02 -0.77000E+03
 0.91399994E+02 -0.10030E+04
 0.91449997E+02 -0.12650E+04
 0.91499992E+02 -0.15310E+04
 0.91549995E+02 -0.17510E+04
 0.91599991E+02 -0.19450E+04
 0.91649994E+02 -0.21880E+04
 0.91699997E+02 -0.24960E+04
 0.91749992E+02 -0.27650E+04
 0.91799995E+02 -0.29300E+04
 0.91849991E+02 -0.30850E+04
 0.91899994E+02 -0.33310E+04
 0.91949997E+02 -0.36370E+04
 0.91999992E+02 -0.38680E+04
 0.92049995E+02 -0.40080E+04
 0.92099991E+02 -0.41620E+04
 0.92149994E+02 -0.43910E+04
 0.92199997E+02 -0.46450E+04
 0.92249992E+02 -0.48260E+04
 0.92299995E+02 -0.49430E+04
 0.92349991E+02 -0.50910E+04
 0.92399994E+02 -0.53030E+04
 0.92449997E+02 -0.55050E+04
 0.92499992E+02 -0.56390E+04
 0.92549995E+02 -0.57400E+04
 0.92599991E+02 -0.58750E+04
 0.92649994E+02 -0.60530E+04
 0.92699997E+02 -0.62260E+04
 0.92749992E+02 -0.63430E+04
 0.92799995E+02 -0.64200E+04
 0.92849991E+02 -0.65350E+04
 0.92899994E+02 -0.67020E+04
 0.92949997E+02 -0.68480E+04
 0.92999992E+02 -0.69340E+04
 0.93049995E+02 -0.70060E+04
 0.93099991E+02 -0.71230E+04
 0.93149994E+02 -0.72690E+04
 0.93199997E+02 -0.73750E+04
 0.93249992E+02 -0.74370E+04
 0.93299995E+02 -0.75120E+04
 0.93349991E+02 -0.76260E+04
 0.93399994E+02 -0.77400E+04
 0.93449997E+02 -0.78060E+04
 0.93499992E+02 -0.78490E+04
 0.93549995E+02 -0.79230E+04
 0.93599991E+02 -0.80210E+04
 0.93649994E+02 -0.80940E+04
 0.93699997E+02 -0.81260E+04
 0.93749992E+02 -0.81580E+04
 0.93799995E+02 -0.82130E+04
 0.93849991E+02 -0.82770E+04
 0.93899994E+02 -0.83170E+04
 0.93949997E+02 -0.83220E+04
 0.93999992E+02 -0.83330E+04
 0.94049995E+02 -0.83710E+04
 0.94099991E+02 -0.84180E+04
 0.94149994E+02 -0.84360E+04
 0.94199997E+02 -0.84190E+04
 0.94249992E+02 -0.83990E+04
 0.94299995E+02 -0.84120E+04
 0.94349991E+02 -0.84380E+04
 0.94399994E+02 -0.84270E+04
 0.94449997E+02 -0.83870E+04
 0.94499992E+02 -0.83650E+04
 0.94549995E+02 -0.83710E+04
 0.94599991E+02 -0.83570E+04
 0.94649994E+02 -0.83100E+04
 0.94699997E+02 -0.82600E+04
 0.94749992E+02 -0.82300E+04
 0.94799995E+02 -0.82100E+04
 0.94849991E+02 -0.81620E+04
 0.94899994E+02 -0.80980E+04
 0.94949997E+02 -0.80400E+04
 0.94999992E+02 -0.79950E+04
 0.95049995E+02 -0.79480E+04
 0.95099991E+02 -0.78760E+04
 0.95149994E+02 -0.78000E+04
 0.95199997E+02 -0.77470E+04
 0.95249992E+02 -0.76980E+04
 0.95299995E+02 -0.76270E+04
 0.95349991E+02 -0.75380E+04
 0.95399994E+02 -0.74670E+04
 0.95449997E+02 -0.74130E+04
 0.95499992E+02 -0.73390E+04
 0.95549995E+02 -0.72440E+04
 0.95599991E+02 -0.71580E+04
 0.95649994E+02 -0.70890E+04
 0.95699997E+02 -0.70030E+04
 0.95749992E+02 -0.68920E+04
 0.95799995E+02 -0.67850E+04
 0.95849991E+02 -0.66900E+04
 0.95899994E+02 -0.66020E+04
 0.95949997E+02 -0.64900E+04
 0.95999992E+02 -0.63580E+04
 0.96049995E+02 -0.62340E+04
 0.96099991E+02 -0.61340E+04
 0.96149994E+02 -0.60340E+04
 0.96199997E+02 -0.59040E+04
 0.96249992E+02 -0.57670E+04
 0.96299995E+02 -0.56470E+04
 0.96349991E+02 -0.55530E+04
 0.96399994E+02 -0.54500E+04
 0.96449997E+02 -0.53150E+04
 0.96499992E+02 -0.51760E+04
 0.96549995E+02 -0.50610E+04
 0.96599991E+02 -0.49750E+04
 0.96649994E+02 -0.48720E+04
 0.96699997E+02 -0.47340E+04
 0.96749992E+02 -0.45890E+04
 0.96799995E+02 -0.44710E+04
 0.96849991E+02 -0.43690E+04
 0.96899994E+02 -0.42420E+04
 0.96949997E+02 -0.40890E+04
 0.96999992E+02 -0.39370E+04
 0.97049995E+02 -0.38080E+04
 0.97099991E+02 -0.36770E+04
 0.97149994E+02 -0.35270E+04
 0.97199997E+02 -0.33560E+04
 0.97249992E+02 -0.31880E+04
 0.97299995E+02 -0.30310E+04
 0.97349991E+02 -0.28640E+04
 0.97399994E+02 -0.26900E+04
 0.97449997E+02 -0.25020E+04
 0.97499992E+02 -0.23160E+04
 0.97549995E+02 -0.21230E+04
 0.97599991E+02 -0.19260E+04
 0.97649994E+02 -0.17330E+04
 0.97699997E+02 -0.15260E+04
 0.97749992E+02 -0.13160E+04
 0.97799995E+02 -0.11030E+04
 0.97849991E+02 -0.90000E+03
 0.97899994E+02 -0.70000E+03
 0.97949997E+02 -0.48300E+03
 0.97999992E+02 -0.25700E+03
 0.98049995E+02 -0.37000E+02
 0.98099991E+02  0.17500E+03
 0.98149994E+02  0.39100E+03
 0.98199997E+02  0.61400E+03
 0.98249992E+02  0.84200E+03
 0.98299995E+02  0.10720E+04
 0.98349991E+02  0.12870E+04
 0.98399994E+02  0.15030E+04
 0.98449997E+02  0.17250E+04
 0.98499992E+02  0.19510E+04
 0.98549995E+02  0.21720E+04
 0.98599991E+02  0.23780E+04
 0.98649994E+02  0.25870E+04
 0.98699997E+02  0.28070E+04
 0.98749992E+02  0.30330E+04
 0.98799995E+02  0.32480E+04
 0.98849991E+02  0.34530E+04
 0.98899994E+02  0.36640E+04
 0.98949997E+02  0.38810E+04
 0.98999992E+02  0.41080E+04
 0.99049995E+02  0.43230E+04
 0.99099991E+02  0.45210E+04
 0.99149994E+02  0.47150E+04
 0.99199997E+02  0.49280E+04
 0.99249992E+02  0.51470E+04
 0.99299995E+02  0.53380E+04
 0.99349991E+02  0.55080E+04
 0.99399994E+02  0.56800E+04
 0.99449997E+02  0.58710E+04
 0.99499992E+02  0.60510E+04
 0.99549995E+02  0.62030E+04
 0.99599991E+02  0.63450E+04
 0.99649994E+02  0.64910E+04
 0.99699997E+02  0.66410E+04
 0.99749992E+02  0.67650E+04
 0.99799995E+02  0.68720E+04
 0.99849991E+02  0.69810E+04
 0.99899994E+02  0.70920E+04
 0.99949997E+02  0.72000E+04
 0.99999992E+02  0.72930E+04
 0.10005000E+03  0.73730E+04
 0.10009999E+03  0.74470E+04
 0.10014999E+03  0.75210E+04
 0.10020000E+03  0.75890E+04
 0.10024999E+03  0.76510E+04
 0.10030000E+03  0.77020E+04
 0.10034999E+03  0.77470E+04
 0.10039999E+03  0.77880E+04
 0.10045000E+03  0.78200E+04
 0.10049999E+03  0.78410E+04
 0.10055000E+03  0.78500E+04
 0.10059999E+03  0.78530E+04
 0.10064999E+03  0.78570E+04
 0.10070000E+03  0.78570E+04
 0.10074999E+03  0.78370E+04
 0.10080000E+03  0.78040E+04
 0.10084999E+03  0.77730E+04
 0.10089999E+03  0.77370E+04
 0.10095000E+03  0.76920E+04
 0.10099999E+03  0.76290E+04
 0.10105000E+03  0.75570E+04
 0.10109999E+03  0.74790E+04
 0.10114999E+03  0.73930E+04
 0.10120000E+03  0.73010E+04
 0.10124999E+03  0.71900E+04
 0.10130000E+03  0.70680E+04
 0.10134999E+03  0.69420E+04
 0.10139999E+03  0.68200E+04
 0.10145000E+03  0.66930E+04
 0.10149999E+03  0.65370E+04
 0.10155000E+03  0.63660E+04
 0.10159999E+03  0.62060E+04
 0.10164999E+03  0.60610E+04
 0.10170000E+03  0.59000E+04
 0.10174999E+03  0.57090E+04
 0.10180000E+03  0.55130E+04
 0.10184999E+03  0.53340E+04
 0.10189999E+03  0.51740E+04
 0.10195000E+03  0.49880E+04
 0.10199999E+03  0.47780E+04
 0.10205000E+03  0.45740E+04
 0.10209999E+03  0.43890E+04
 0.10214999E+03  0.41990E+04
 0.10220000E+03  0.39830E+04
 0.10224999E+03  0.37580E+04
 0.10230000E+03  0.35410E+04
 0.10234999E+03  0.33360E+04
 0.10239999E+03  0.31160E+04
 0.10245000E+03  0.28730E+04
 0.10249999E+03  0.26280E+04
 0.10255000E+03  0.23940E+04
 0.10259999E+03  0.21570E+04
 0.10264999E+03  0.19010E+04
 0.10270000E+03  0.16400E+04
 0.10274999E+03  0.13810E+04
 0.10280000E+03  0.11240E+04
 0.10284999E+03  0.87400E+03
 0.10289999E+03  0.61400E+03
 0.10295000E+03  0.34200E+03
 0.10299999E+03  0.80000E+02
 0.10305000E+03 -0.16400E+03
 0.10309999E+03 -0.40600E+03
 0.10314999E+03 -0.65900E+03
 0.10320000E+03 -0.91000E+03
 0.10324999E+03 -0.11480E+04
 0.10330000E+03 -0.13750E+04
 0.10334999E+03 -0.15980E+04
 0.10339999E+03 -0.18200E+04
 0.10345000E+03 -0.20380E+04
 0.10349999E+03 -0.22460E+04
 0.10355000E+03 -0.24400E+04
 0.10359999E+03 -0.26290E+04
 0.10364999E+03 -0.28170E+04
 0.10370000E+03 -0.30000E+04
 0.10374999E+03 -0.31790E+04
 0.10380000E+03 -0.33470E+04
 0.10384999E+03 -0.35030E+04
 0.10389999E+03 -0.36640E+04
 0.10395000E+03 -0.38270E+04
 0.10399999E+03 -0.39810E+04
 0.10405000E+03 -0.41250E+04
 0.10409999E+03 -0.42640E+04
 0.10414999E+03 -0.44040E+04
 0.10420000E+03 -0.45340E+04
 0.10424999E+03 -0.46560E+04
 0.10430000E+03 -0.47720E+04
 0.10434999E+03 -0.48730E+04
 0.10439999E+03 -0.49740E+04
 0.10445000E+03 -0.50720E+04
 0.10449999E+03 -0.51590E+04
 0.10455000E+03 -0.52330E+04
 0.10459999E+03 -0.52950E+04
 0.10464999E+03 -0.53610E+04
 0.10470000E+03 -0.54260E+04
 0.10474999E+03 -0.54740E+04
 0.10480000E+03 -0.55040E+04
 0.10484999E+03 -0.55220E+04
 0.10489999E+03 -0.55530E+04
 0.10495000E+03 -0.55780E+04
 0.10499999E+03 -0.55790E+04
 0.10505000E+03 -0.55660E+04
 0.10509999E+03 -0.55490E+04
 0.10514999E+03 -0.55400E+04
 0.10520000E+03 -0.55120E+04
 0.10524999E+03 -0.54660E+04
 0.10530000E+03 -0.54160E+04
 0.10534999E+03 -0.53640E+04
 0.10539999E+03 -0.53080E+04
 0.10545000E+03 -0.52440E+04
 0.10549999E+03 -0.51740E+04
 0.10555000E+03 -0.50970E+04
 0.10559999E+03 -0.50210E+04
 0.10564999E+03 -0.49360E+04
 0.10570000E+03 -0.48450E+04
 0.10574999E+03 -0.47560E+04
 0.10580000E+03 -0.46640E+04
 0.10584999E+03 -0.45710E+04
 0.10589999E+03 -0.44670E+04
 0.10595000E+03 -0.43630E+04
 0.10599999E+03 -0.42760E+04
 0.10605000E+03 -0.41860E+04
 0.10609999E+03 -0.40800E+04
 0.10614999E+03 -0.39630E+04
 0.10620000E+03 -0.38630E+04
 0.10624999E+03 -0.37790E+04
 0.10630000E+03 -0.36750E+04
 0.10634999E+03 -0.35540E+04
 0.10639999E+03 -0.34410E+04
 0.10645000E+03 -0.33480E+04
 0.10649999E+03 -0.32490E+04
 0.10655000E+03 -0.31260E+04
 0.10659999E+03 -0.30070E+04
 0.10664999E+03 -0.29060E+04
 0.10670000E+03 -0.28160E+04
 0.10674999E+03 -0.27120E+04
 0.10680000E+03 -0.25980E+04
 0.10684999E+03 -0.24960E+04
 0.10689999E+03 -0.24090E+04
 0.10695000E+03 -0.23260E+04
 0.10699999E+03 -0.22300E+04
 0.10705000E+03 -0.21340E+04
 0.10709999E+03 -0.20530E+04
 0.10714999E+03 -0.19800E+04
 0.10720000E+03 -0.19100E+04
 0.10724999E+03 -0.18340E+04
 0.10730000E+03 -0.17610E+04
 0.10734999E+03 -0.16980E+04
 0.10739999E+03 -0.16460E+04
 0.10745000E+03 -0.15960E+04
 0.10749999E+03 -0.15430E+04
 0.10755000E+03 -0.14930E+04
 0.10759999E+03 -0.14570E+04
 0.10764999E+03 -0.14320E+04
 0.10770000E+03 -0.14010E+04
 0.10774999E+03 -0.13710E+04
 0.10780000E+03 -0.13480E+04
 0.10784999E+03 -0.13390E+04
 0.10789999E+03 -0.13350E+04
 0.10795000E+03 -0.13220E+04
 0.10799999E+03 -0.13110E+04
 0.10805000E+03 -0.13070E+04
 0.10809999E+03 -0.13220E+04
 0.10814999E+03 -0.13460E+04
 0.10820000E+03 -0.13550E+04
 0.10824999E+03 -0.13670E+04
 0.10830000E+03 -0.13980E+04
 0.10834999E+03 -0.14520E+04
 0.10839999E+03 -0.15080E+04
 0.10845000E+03 -0.15530E+04
 0.10849999E+03 -0.16060E+04
 0.10855000E+03 -0.16810E+04
 0.10859999E+03 -0.17690E+04
 0.10864999E+03 -0.18460E+04
 0.10870000E+03 -0.19220E+04
 0.10874999E+03 -0.20100E+04
 0.10880000E+03 -0.21130E+04
 0.10884999E+03 -0.22100E+04
 0.10889999E+03 -0.22970E+04
 0.10895000E+03 -0.23910E+04
 0.10899999E+03 -0.25030E+04
 0.10905000E+03 -0.26270E+04
 0.10909999E+03 -0.27410E+04
 0.10914999E+03 -0.28440E+04
 0.10920000E+03 -0.29590E+04
 0.10924999E+03 -0.30990E+04
 0.10930000E+03 -0.32390E+04
 0.10934999E+03 -0.33640E+04
 0.10939999E+03 -0.34880E+04
 0.10945000E+03 -0.36300E+04
 0.10949999E+03 -0.37910E+04
 0.10955000E+03 -0.39370E+04
 0.10959999E+03 -0.40710E+04
 0.10964999E+03 -0.42060E+04
 0.10970000E+03 -0.43540E+04
 0.10974999E+03 -0.45150E+04
 0.10980000E+03 -0.46660E+04
 0.10984999E+03 -0.48030E+04
 0.10989999E+03 -0.49400E+04
 0.10995000E+03 -0.50830E+04
 0.10999999E+03 -0.52360E+04
 0.11005000E+03 -0.53870E+04
 0.11009999E+03 -0.55180E+04
 0.11014999E+03 -0.56550E+04
 0.11020000E+03 -0.58010E+04
 0.11024999E+03 -0.59520E+04
 0.11030000E+03 -0.60960E+04
 0.11034999E+03 -0.62200E+04
 0.11039999E+03 -0.63530E+04
 0.11045000E+03 -0.64910E+04
 0.11049999E+03 -0.66250E+04
 0.11055000E+03 -0.67440E+04
 0.11059999E+03 -0.68470E+04
 0.11064999E+03 -0.69610E+04
 0.11070000E+03 -0.70740E+04
 0.11074999E+03 -0.71780E+04
 0.11080000E+03 -0.72720E+04
 0.11084999E+03 -0.73630E+04
 0.11089999E+03 -0.74540E+04
 0.11095000E+03 -0.75330E+04
 0.11099999E+03 -0.76060E+04
 0.11105000E+03 -0.76670E+04
 0.11109999E+03 -0.77270E+04
 0.11114999E+03 -0.77790E+04
 0.11120000E+03 -0.78210E+04
 0.11124999E+03 -0.78630E+04
 0.11130000E+03 -0.78960E+04
 0.11134999E+03 -0.79280E+04
 0.11139999E+03 -0.79400E+04
 0.11145000E+03 -0.79350E+04
 0.11149999E+03 -0.79380E+04
 0.11155000E+03 -0.79570E+04
 0.11159999E+03 -0.79610E+04
 0.11164999E+03 -0.79290E+04
 0.11170000E+03 -0.78970E+04
 0.11174999E+03 -0.78850E+04
 0.11180000E+03 -0.78710E+04
 0.11184999E+03 -0.78230E+04
 0.11189999E+03 -0.77610E+04
 0.11195000E+03 -0.77250E+04
 0.11199999E+03 -0.76940E+04
 0.11205000E+03 -0.76440E+04
 0.11209999E+03 -0.75670E+04
 0.11214999E+03 -0.74930E+04
 0.11220000E+03 -0.74440E+04
 0.11224999E+03 -0.73910E+04
 0.11230000E+03 -0.73080E+04
 0.11234999E+03 -0.72060E+04
 0.11239999E+03 -0.71220E+04
 0.11244999E+03 -0.70510E+04
 0.11249999E+03 -0.69610E+04
 0.11255000E+03 -0.68440E+04
 0.11259999E+03 -0.67220E+04
 0.11264999E+03 -0.66180E+04
 0.11269999E+03 -0.65150E+04
 0.11274999E+03 -0.63980E+04
 0.11280000E+03 -0.62670E+04
 0.11284999E+03 -0.61230E+04
 0.11289999E+03 -0.59810E+04
 0.11294999E+03 -0.58510E+04
 0.11299999E+03 -0.57270E+04
 0.11305000E+03 -0.55730E+04
 0.11309999E+03 -0.53840E+04
 0.11314999E+03 -0.52040E+04
 0.11319999E+03 -0.50550E+04
 0.11324999E+03 -0.48990E+04
 0.11330000E+03 -0.47070E+04
 0.11334999E+03 -0.44860E+04
 0.11339999E+03 -0.42660E+04
 0.11344999E+03 -0.40720E+04
 0.11349999E+03 -0.38950E+04
 0.11355000E+03 -0.36820E+04
 0.11359999E+03 -0.34140E+04
 0.11364999E+03 -0.31550E+04
 0.11369999E+03 -0.29450E+04
 0.11374999E+03 -0.27380E+04
 0.11380000E+03 -0.24810E+04
 0.11384999E+03 -0.21980E+04
 0.11389999E+03 -0.19470E+04
 0.11394999E+03 -0.17220E+04
 0.11399999E+03 -0.14800E+04
 0.11405000E+03 -0.11990E+04
 0.11409999E+03 -0.92100E+03
 0.11414999E+03 -0.68900E+03
 0.11419999E+03 -0.44700E+03
 0.11424999E+03 -0.16900E+03
 0.11430000E+03  0.10800E+03
 0.11434999E+03  0.34100E+03
 0.11439999E+03  0.55000E+03
 0.11444999E+03  0.81700E+03
 0.11449999E+03  0.11170E+04
 0.11455000E+03  0.13640E+04
 0.11459999E+03  0.15560E+04
 0.11464999E+03  0.17600E+04
 0.11469999E+03  0.20270E+04
 0.11474999E+03  0.23110E+04
 0.11480000E+03  0.25370E+04
 0.11484999E+03  0.27060E+04
 0.11489999E+03  0.28970E+04
 0.11494999E+03  0.31490E+04
 0.11499999E+03  0.34230E+04
 0.11505000E+03  0.36440E+04
 0.11509999E+03  0.37800E+04
 0.11514999E+03  0.39350E+04
 0.11519999E+03  0.41740E+04
 0.11524999E+03  0.44390E+04
 0.11530000E+03  0.46200E+04
 0.11534999E+03  0.47280E+04
 0.11539999E+03  0.48970E+04
 0.11544999E+03  0.51320E+04
 0.11549999E+03  0.53350E+04
 0.11555000E+03  0.54290E+04
 0.11559999E+03  0.55090E+04
 0.11564999E+03  0.56790E+04
 0.11569999E+03  0.58770E+04
 0.11574999E+03  0.60040E+04
 0.11580000E+03  0.60490E+04
 0.11584999E+03  0.61360E+04
 0.11589999E+03  0.62790E+04
 0.11594999E+03  0.64010E+04
 0.11599999E+03  0.64630E+04
 0.11605000E+03  0.65130E+04
 0.11609999E+03  0.66080E+04
 0.11614999E+03  0.67090E+04
 0.11619999E+03  0.67810E+04
 0.11624999E+03  0.68230E+04
 0.11630000E+03  0.68750E+04
 0.11634999E+03  0.69450E+04
 0.11639999E+03  0.70050E+04
 0.11644999E+03  0.70620E+04
 0.11649999E+03  0.71200E+04
 0.11655000E+03  0.71890E+04
 0.11659999E+03  0.72280E+04
 0.11664999E+03  0.72420E+04
 0.11669999E+03  0.72900E+04
 0.11674999E+03  0.73600E+04
 0.11680000E+03  0.74250E+04
 0.11684999E+03  0.74420E+04
 0.11689999E+03  0.74400E+04
 0.11694999E+03  0.74690E+04
 0.11699999E+03  0.75090E+04
 0.11705000E+03  0.75620E+04
 0.11709999E+03  0.75890E+04
 0.11714999E+03  0.75970E+04
 0.11719999E+03  0.76160E+04
 0.11724999E+03  0.76490E+04
 0.11730000E+03  0.76970E+04
 0.11734999E+03  0.77180E+04
 0.11739999E+03  0.77400E+04
 0.11744999E+03  0.77710E+04
 0.11749999E+03  0.78000E+04
 0.11755000E+03  0.78200E+04
 0.11759999E+03  0.78280E+04
 0.11764999E+03  0.78500E+04
 0.11769999E+03  0.78930E+04
 0.11774999E+03  0.79290E+04
 0.11780000E+03  0.79260E+04
 0.11784999E+03  0.79100E+04
 0.11789999E+03  0.79170E+04
 0.11794999E+03  0.79530E+04
 0.11799999E+03  0.79740E+04
 0.11805000E+03  0.79490E+04
 0.11809999E+03  0.79070E+04
 0.11814999E+03  0.79000E+04
 0.11819999E+03  0.79190E+04
 0.11824999E+03  0.78930E+04
 0.11830000E+03  0.78090E+04
 0.11834999E+03  0.77300E+04
 0.11839999E+03  0.77080E+04
 0.11844999E+03  0.76870E+04
 0.11849999E+03  0.76020E+04
 0.11855000E+03  0.74790E+04
 0.11859999E+03  0.73980E+04
 0.11864999E+03  0.73500E+04
 0.11869999E+03  0.72610E+04
 0.11874999E+03  0.71330E+04
 0.11880000E+03  0.70010E+04
 0.11884999E+03  0.69050E+04
 0.11889999E+03  0.68130E+04
 0.11894999E+03  0.66970E+04
 0.11899999E+03  0.65600E+04
 0.11905000E+03  0.64080E+04
 0.11909999E+03  0.62660E+04
 0.11914999E+03  0.61290E+04
 0.11919999E+03  0.60050E+04
 0.11924999E+03  0.58500E+04
 0.11930000E+03  0.56640E+04
 0.11934999E+03  0.54880E+04
 0.11939999E+03  0.53340E+04
 0.11944999E+03  0.51840E+04
 0.11949999E+03  0.50030E+04
 0.11955000E+03  0.48190E+04
 0.11959999E+03  0.46340E+04
 0.11964999E+03  0.44460E+04
 0.11969999E+03  0.42600E+04
 0.11974999E+03  0.40750E+04
 0.11980000E+03  0.38930E+04
 0.11984999E+03  0.36800E+04
 0.11989999E+03  0.34690E+04
 0.11994999E+03  0.32670E+04
 0.11999999E+03  0.30950E+04
 0.12005000E+03  0.28980E+04
 0.12009999E+03  0.26260E+04
 0.12014999E+03  0.24100E+04
 0.12019999E+03  0.22600E+04
 0.12024999E+03  0.20960E+04
 0.12030000E+03  0.18040E+04
 0.12034999E+03  0.14950E+04
 0.12039999E+03  0.13210E+04
 0.12044999E+03  0.11800E+04
 0.12049999E+03  0.95200E+03
 0.12055000E+03  0.62600E+03
 0.12059999E+03  0.37000E+03
 0.12064999E+03  0.18500E+03
 0.12069999E+03 -0.14000E+02
 0.12074999E+03 -0.27900E+03
 0.12080000E+03 -0.57500E+03
 0.12084999E+03 -0.79500E+03
 0.12089999E+03 -0.99300E+03
 0.12094999E+03 -0.12080E+04
 0.12099999E+03 -0.14790E+04
 0.12105000E+03 -0.17270E+04
 0.12109999E+03 -0.19000E+04
 0.12114999E+03 -0.20840E+04
 0.12119999E+03 -0.23220E+04
 0.12124999E+03 -0.25850E+04
 0.12130000E+03 -0.27730E+04
 0.12134999E+03 -0.29180E+04
 0.12139999E+03 -0.30970E+04
 0.12144999E+03 -0.33140E+04
 0.12149999E+03 -0.35090E+04
 0.12155000E+03 -0.36460E+04
 0.12159999E+03 -0.37640E+04
 0.12164999E+03 -0.39320E+04
 0.12169999E+03 -0.41290E+04
 0.12174999E+03 -0.42680E+04
 0.12180000E+03 -0.42860E+04
 0.12184999E+03 -0.43260E+04
 0.12189999E+03 -0.45670E+04
 0.12194999E+03 -0.48250E+04
 0.12199999E+03 -0.48490E+04
 0.12205000E+03 -0.47160E+04
 0.12209999E+03 -0.47670E+04
 0.12214999E+03 -0.50280E+04
 0.12219999E+03 -0.51980E+04
 0.12224999E+03 -0.51320E+04
 0.12230000E+03 -0.50050E+04
 0.12234999E+03 -0.50800E+04
 0.12239999E+03 -0.52910E+04
 0.12244999E+03 -0.53560E+04
 0.12249999E+03 -0.51720E+04
 0.12255000E+03 -0.50110E+04
 0.12259999E+03 -0.51170E+04
 0.12264999E+03 -0.53070E+04
 0.12269999E+03 -0.52540E+04
 0.12274999E+03 -0.50030E+04
 0.12280000E+03 -0.48930E+04
 0.12284999E+03 -0.50340E+04
 0.12289999E+03 -0.51120E+04
 0.12294999E+03 -0.49140E+04
 0.12299999E+03 -0.46160E+04
 0.12305000E+03 -0.45330E+04
 0.12309999E+03 -0.47260E+04
 0.12314999E+03 -0.47660E+04
 0.12319999E+03 -0.44800E+04
 0.12324999E+03 -0.41280E+04
 0.12330000E+03 -0.40470E+04
 0.12334999E+03 -0.42350E+04
 0.12339999E+03 -0.42060E+04
 0.12344999E+03 -0.38560E+04
 0.12349999E+03 -0.35410E+04
 0.12355000E+03 -0.35330E+04
 0.12359999E+03 -0.36530E+04
 0.12364999E+03 -0.35290E+04
 0.12369999E+03 -0.31900E+04
 0.12374999E+03 -0.29670E+04
 0.12380000E+03 -0.29820E+04
 0.12384999E+03 -0.29980E+04
 0.12389999E+03 -0.28150E+04
 0.12394999E+03 -0.25340E+04
 0.12399999E+03 -0.23910E+04
 0.12405000E+03 -0.24030E+04
 0.12409999E+03 -0.23550E+04
 0.12414999E+03 -0.21540E+04
 0.12419999E+03 -0.19160E+04
 0.12424999E+03 -0.18140E+04
 0.12430000E+03 -0.18320E+04
 0.12434999E+03 -0.17730E+04
 0.12439999E+03 -0.15620E+04
 0.12444999E+03 -0.13340E+04
 0.12449999E+03 -0.12620E+04
 0.12455000E+03 -0.12910E+04
 0.12459999E+03 -0.12060E+04
 0.12464999E+03 -0.97700E+03
 0.12469999E+03 -0.79300E+03
 0.12474999E+03 -0.79600E+03
 0.12480000E+03 -0.82700E+03
 0.12484999E+03 -0.67600E+03
 0.12489999E+03 -0.42000E+03
 0.12494999E+03 -0.31000E+03
 0.12499999E+03 -0.37700E+03
 0.12504999E+03 -0.35800E+03
 0.12509999E+03 -0.13900E+03
 0.12514999E+03  0.77000E+02
 0.12520000E+03  0.87000E+02
 0.12524998E+03  0.37000E+02
 0.12529999E+03  0.14200E+03
 0.12534999E+03  0.35100E+03
 0.12539999E+03  0.46200E+03
 0.12545000E+03  0.43700E+03
 0.12549998E+03  0.44400E+03
 0.12554999E+03  0.56200E+03
 0.12559999E+03  0.70500E+03
 0.12564999E+03  0.73700E+03
 0.12570000E+03  0.74200E+03
 0.12574998E+03  0.80200E+03
 0.12579999E+03  0.88800E+03
 0.12584999E+03  0.94300E+03
 0.12589999E+03  0.94000E+03
 0.12595000E+03  0.97900E+03
 0.12599998E+03  0.10570E+04
 0.12604999E+03  0.11310E+04
 0.12609999E+03  0.11590E+04
 0.12614999E+03  0.11500E+04
 0.12620000E+03  0.11630E+04
 0.12624998E+03  0.12130E+04
 0.12629999E+03  0.12920E+04
 0.12634999E+03  0.13400E+04
 0.12639999E+03  0.13390E+04
 0.12645000E+03  0.13120E+04
 0.12649998E+03  0.13470E+04
 0.12654999E+03  0.14410E+04
 0.12659999E+03  0.14840E+04
 0.12664999E+03  0.14490E+04
 0.12670000E+03  0.14120E+04
 0.12674998E+03  0.15040E+04
 0.12679999E+03  0.16210E+04
 0.12684999E+03  0.15980E+04
 0.12689999E+03  0.14830E+04
 0.12695000E+03  0.14740E+04
 0.12699998E+03  0.16200E+04
 0.12704999E+03  0.16900E+04
 0.12709999E+03  0.16100E+04
 0.12714999E+03  0.14770E+04
 0.12720000E+03  0.14690E+04
 0.12724998E+03  0.15690E+04
 0.12729999E+03  0.15980E+04
 0.12734999E+03  0.14970E+04
 0.12739999E+03  0.13390E+04
 0.12745000E+03  0.13250E+04
 0.12749998E+03  0.13990E+04
 0.12754999E+03  0.13680E+04
 0.12759999E+03  0.11940E+04
 0.12764999E+03  0.10510E+04
 0.12770000E+03  0.10720E+04
 0.12774998E+03  0.11190E+04
 0.12779999E+03  0.10420E+04
 0.12784999E+03  0.85100E+03
 0.12789999E+03  0.70400E+03
 0.12795000E+03  0.66800E+03
 0.12799998E+03  0.65900E+03
 0.12804999E+03  0.56900E+03
 0.12809999E+03  0.39200E+03
 0.12814999E+03  0.23400E+03
 0.12820000E+03  0.13900E+03
 0.12824998E+03  0.66000E+02
 0.12829999E+03 -0.48000E+02
 0.12834999E+03 -0.20800E+03
 0.12839999E+03 -0.34900E+03
 0.12845000E+03 -0.45700E+03
 0.12849998E+03 -0.57800E+03
 0.12854999E+03 -0.72700E+03
 0.12859999E+03 -0.88200E+03
 0.12864999E+03 -0.10110E+04
 0.12870000E+03 -0.11270E+04
 0.12874998E+03 -0.12640E+04
 0.12879999E+03 -0.14120E+04
 0.12884999E+03 -0.15680E+04
 0.12889999E+03 -0.17140E+04
 0.12895000E+03 -0.18310E+04
 0.12899998E+03 -0.19660E+04
 0.12904999E+03 -0.21230E+04
 0.12909999E+03 -0.22800E+04
 0.12914999E+03 -0.24030E+04
 0.12920000E+03 -0.25120E+04
 0.12924998E+03 -0.26700E+04
 0.12929999E+03 -0.28470E+04
 0.12934999E+03 -0.29800E+04
 0.12939999E+03 -0.30560E+04
 0.12945000E+03 -0.31740E+04
 0.12949998E+03 -0.33620E+04
 0.12954999E+03 -0.35520E+04
 0.12959999E+03 -0.36700E+04
 0.12964999E+03 -0.37320E+04
 0.12970000E+03 -0.38590E+04
 0.12974998E+03 -0.40550E+04
 0.12979999E+03 -0.42560E+04
 0.12984999E+03 -0.43770E+04
 0.12989999E+03 -0.44470E+04
 0.12995000E+03 -0.45640E+04
 0.12999998E+03 -0.47460E+04
 0.13004999E+03 -0.49260E+04
 0.13009999E+03 -0.50350E+04
 0.13014999E+03 -0.51120E+04
 0.13020000E+03 -0.52180E+04
 0.13024998E+03 -0.53730E+04
 0.13029999E+03 -0.54980E+04
 0.13034999E+03 -0.55690E+04
 0.13039999E+03 -0.56400E+04
 0.13045000E+03 -0.57610E+04
 0.13049998E+03 -0.59000E+04
 0.13054999E+03 -0.59720E+04
 0.13059999E+03 -0.59940E+04
 0.13064999E+03 -0.60600E+04
 0.13070000E+03 -0.62040E+04
 0.13074998E+03 -0.63170E+04
 0.13079999E+03 -0.63300E+04
 0.13084999E+03 -0.63170E+04
 0.13089999E+03 -0.63940E+04
 0.13095000E+03 -0.65300E+04
 0.13099998E+03 -0.65880E+04
 0.13104999E+03 -0.65510E+04
 0.13109999E+03 -0.65480E+04
 0.13114999E+03 -0.66550E+04
 0.13120000E+03 -0.67720E+04
 0.13124998E+03 -0.67800E+04
 0.13129999E+03 -0.67310E+04
 0.13134999E+03 -0.67630E+04
 0.13139999E+03 -0.68800E+04
 0.13145000E+03 -0.69580E+04
 0.13149998E+03 -0.69340E+04
 0.13154999E+03 -0.69050E+04
 0.13159999E+03 -0.69720E+04
 0.13164999E+03 -0.70870E+04
 0.13170000E+03 -0.71400E+04
 0.13174998E+03 -0.71020E+04
 0.13179999E+03 -0.70880E+04
 0.13184999E+03 -0.71660E+04
 0.13189999E+03 -0.72700E+04
 0.13195000E+03 -0.73090E+04
 0.13199998E+03 -0.72830E+04
 0.13204999E+03 -0.73020E+04
 0.13209999E+03 -0.73950E+04
 0.13214999E+03 -0.74890E+04
 0.13220000E+03 -0.75230E+04
 0.13224998E+03 -0.75250E+04
 0.13229999E+03 -0.75830E+04
 0.13234999E+03 -0.76920E+04
 0.13239999E+03 -0.77790E+04
 0.13245000E+03 -0.78160E+04
 0.13249998E+03 -0.78530E+04
 0.13254999E+03 -0.79480E+04
 0.13259999E+03 -0.80710E+04
 0.13264999E+03 -0.81530E+04
 0.13270000E+03 -0.81920E+04
 0.13274998E+03 -0.82620E+04
 0.13279999E+03 -0.83910E+04
 0.13284999E+03 -0.85220E+04
 0.13289999E+03 -0.86000E+04
 0.13295000E+03 -0.86430E+04
 0.13299998E+03 -0.87290E+04
 0.13304999E+03 -0.88710E+04
 0.13309999E+03 -0.89950E+04
 0.13314999E+03 -0.90590E+04
 0.13320000E+03 -0.91080E+04
 0.13324998E+03 -0.92090E+04
 0.13329999E+03 -0.93440E+04
 0.13334999E+03 -0.94390E+04
 0.13339999E+03 -0.94810E+04
 0.13345000E+03 -0.95340E+04
 0.13349998E+03 -0.96370E+04
 0.13354999E+03 -0.97520E+04
 0.13359999E+03 -0.98180E+04
 0.13364999E+03 -0.98460E+04
 0.13370000E+03 -0.98910E+04
 0.13374998E+03 -0.99790E+04
 0.13379999E+03 -0.10068E+05
 0.13384999E+03 -0.10112E+05
 0.13389999E+03 -0.10129E+05
 0.13395000E+03 -0.10165E+05
 0.13399998E+03 -0.10236E+05
 0.13404999E+03 -0.10291E+05
 0.13409999E+03 -0.10301E+05
 0.13414999E+03 -0.10298E+05
 0.13420000E+03 -0.10330E+05
 0.13424998E+03 -0.10387E+05
 0.13429999E+03 -0.10404E+05
 0.13434999E+03 -0.10385E+05
 0.13439999E+03 -0.10384E+05
 0.13445000E+03 -0.10419E+05
 0.13449998E+03 -0.10433E+05
 0.13454999E+03 -0.10402E+05
 0.13459999E+03 -0.10370E+05
 0.13464999E+03 -0.10368E+05
 0.13470000E+03 -0.10381E+05
 0.13474998E+03 -0.10359E+05
 0.13479999E+03 -0.10314E+05
 0.13484999E+03 -0.10273E+05
 0.13489999E+03 -0.10254E+05
 0.13495000E+03 -0.10245E+05
 0.13499998E+03 -0.10214E+05
 0.13504999E+03 -0.10165E+05
 0.13509999E+03 -0.10117E+05
 0.13514999E+03 -0.10086E+05
 0.13520000E+03 -0.10053E+05
 0.13524998E+03 -0.10000E+05
 0.13529999E+03 -0.99370E+04
 0.13534999E+03 -0.98870E+04
 0.13539999E+03 -0.98570E+04
 0.13545000E+03 -0.98140E+04
 0.13549998E+03 -0.97510E+04
 0.13554999E+03 -0.96790E+04
 0.13559999E+03 -0.96310E+04
 0.13564999E+03 -0.96070E+04
 0.13570000E+03 -0.95660E+04
 0.13574998E+03 -0.94990E+04
 0.13579999E+03 -0.94180E+04
 0.13584999E+03 -0.93710E+04
 0.13589999E+03 -0.93430E+04
 0.13595000E+03 -0.92880E+04
 0.13599998E+03 -0.92060E+04
 0.13604999E+03 -0.91200E+04
 0.13609999E+03 -0.90700E+04
 0.13614999E+03 -0.90260E+04
 0.13620000E+03 -0.89460E+04
 0.13624998E+03 -0.88440E+04
 0.13629999E+03 -0.87600E+04
 0.13634999E+03 -0.86980E+04
 0.13639999E+03 -0.86310E+04
 0.13645000E+03 -0.85370E+04
 0.13649998E+03 -0.84330E+04
 0.13654999E+03 -0.83440E+04
 0.13659999E+03 -0.82630E+04
 0.13664999E+03 -0.81760E+04
 0.13670000E+03 -0.80800E+04
 0.13674998E+03 -0.79870E+04
 0.13679999E+03 -0.79000E+04
 0.13684999E+03 -0.78080E+04
 0.13689999E+03 -0.77050E+04
 0.13695000E+03 -0.76050E+04
 0.13699998E+03 -0.75120E+04
 0.13704999E+03 -0.74250E+04
 0.13709999E+03 -0.73370E+04
 0.13714999E+03 -0.72340E+04
 0.13720000E+03 -0.71240E+04
 0.13724998E+03 -0.70190E+04
 0.13729999E+03 -0.69350E+04
 0.13734999E+03 -0.68480E+04
 0.13739999E+03 -0.67400E+04
 0.13745000E+03 -0.66250E+04
 0.13749998E+03 -0.65260E+04
 0.13754999E+03 -0.64440E+04
 0.13759999E+03 -0.63560E+04
 0.13764999E+03 -0.62520E+04
 0.13770000E+03 -0.61430E+04
 0.13774998E+03 -0.60490E+04
 0.13779999E+03 -0.59610E+04
 0.13784999E+03 -0.58670E+04
 0.13789999E+03 -0.57630E+04
 0.13795000E+03 -0.56540E+04
 0.13799998E+03 -0.55490E+04
 0.13804999E+03 -0.54430E+04
 0.13809999E+03 -0.53400E+04
 0.13814999E+03 -0.52390E+04
 0.13820000E+03 -0.51250E+04
 0.13824998E+03 -0.50110E+04
 0.13829999E+03 -0.49190E+04
 0.13834999E+03 -0.48340E+04
 0.13839999E+03 -0.47370E+04
 0.13845000E+03 -0.46190E+04
 0.13849998E+03 -0.45190E+04
 0.13854999E+03 -0.44530E+04
 0.13859999E+03 -0.43770E+04
 0.13864999E+03 -0.42710E+04
 0.13870000E+03 -0.41600E+04
 0.13874998E+03 -0.40690E+04
 0.13879999E+03 -0.40020E+04
 0.13884999E+03 -0.39200E+04
 0.13889999E+03 -0.38090E+04
 0.13895000E+03 -0.37110E+04
 0.13899998E+03 -0.36330E+04
 0.13904999E+03 -0.35560E+04
 0.13909999E+03 -0.34640E+04
 0.13914999E+03 -0.33580E+04
 0.13920000E+03 -0.32510E+04
 0.13924998E+03 -0.31650E+04
 0.13929999E+03 -0.30830E+04
 0.13934999E+03 -0.29720E+04
 0.13939999E+03 -0.28440E+04
 0.13945000E+03 -0.27340E+04
 0.13949998E+03 -0.26620E+04
 0.13954999E+03 -0.25800E+04
 0.13959999E+03 -0.24450E+04
 0.13964999E+03 -0.22940E+04
 0.13970000E+03 -0.21980E+04
 0.13974998E+03 -0.21460E+04
 0.13979999E+03 -0.20640E+04
 0.13984999E+03 -0.19230E+04
 0.13989999E+03 -0.17810E+04
 0.13995000E+03 -0.16990E+04
 0.13999998E+03 -0.16340E+04
 0.14004999E+03 -0.15310E+04
 0.14009999E+03 -0.13980E+04
 0.14014999E+03 -0.12920E+04
 0.14020000E+03 -0.12230E+04
 0.14024998E+03 -0.11420E+04
 0.14029999E+03 -0.10200E+04
 0.14034999E+03 -0.89500E+03
 0.14039999E+03 -0.80400E+03
 0.14045000E+03 -0.73100E+03
 0.14049998E+03 -0.64000E+03
 0.14054999E+03 -0.51700E+03
 0.14059999E+03 -0.39700E+03
 0.14064999E+03 -0.31200E+03
 0.14070000E+03 -0.24500E+03
 0.14074998E+03 -0.15200E+03
 0.14079999E+03 -0.31000E+02
 0.14084999E+03  0.77000E+02
 0.14089999E+03  0.15400E+03
 0.14095000E+03  0.23100E+03
 0.14099998E+03  0.34600E+03
 0.14104999E+03  0.47000E+03
 0.14109999E+03  0.56700E+03
 0.14114999E+03  0.64500E+03
 0.14120000E+03  0.74300E+03
 0.14124998E+03  0.86800E+03
 0.14129999E+03  0.98800E+03
 0.14134999E+03  0.10790E+04
 0.14139999E+03  0.11660E+04
 0.14145000E+03  0.12770E+04
 0.14149998E+03  0.14040E+04
 0.14154999E+03  0.15160E+04
 0.14159999E+03  0.16110E+04
 0.14164999E+03  0.17160E+04
 0.14170000E+03  0.18400E+04
 0.14174998E+03  0.19650E+04
 0.14179999E+03  0.20720E+04
 0.14184999E+03  0.21750E+04
 0.14189999E+03  0.22990E+04
 0.14195000E+03  0.24320E+04
 0.14199998E+03  0.25470E+04
 0.14204999E+03  0.26490E+04
 0.14209999E+03  0.27550E+04
 0.14214999E+03  0.28770E+04
 0.14220000E+03  0.29990E+04
 0.14224998E+03  0.31050E+04
 0.14229999E+03  0.32070E+04
 0.14234999E+03  0.33110E+04
 0.14239999E+03  0.34190E+04
 0.14245000E+03  0.35200E+04
 0.14249998E+03  0.36190E+04
 0.14254999E+03  0.37170E+04
 0.14259999E+03  0.38110E+04
 0.14264999E+03  0.39030E+04
 0.14270000E+03  0.39910E+04
 0.14274998E+03  0.40820E+04
 0.14279999E+03  0.41690E+04
 0.14284999E+03  0.42520E+04
 0.14289999E+03  0.43420E+04
 0.14295000E+03  0.44340E+04
 0.14299998E+03  0.45210E+04
 0.14304999E+03  0.46010E+04
 0.14309999E+03  0.46830E+04
 0.14314999E+03  0.47680E+04
 0.14320000E+03  0.48540E+04
 0.14324998E+03  0.49390E+04
 0.14329999E+03  0.50190E+04
 0.14334999E+03  0.50910E+04
 0.14339999E+03  0.51600E+04
 0.14345000E+03  0.52350E+04
 0.14349998E+03  0.53070E+04
 0.14354999E+03  0.53670E+04
 0.14359999E+03  0.54210E+04
 0.14364999E+03  0.54790E+04
 0.14370000E+03  0.55420E+04
 0.14374998E+03  0.55920E+04
 0.14379999E+03  0.56320E+04
 0.14384999E+03  0.56710E+04
 0.14389999E+03  0.57080E+04
 0.14395000E+03  0.57450E+04
 0.14399998E+03  0.57760E+04
 0.14404999E+03  0.58000E+04
 0.14409999E+03  0.58160E+04
 0.14414999E+03  0.58200E+04
 0.14420000E+03  0.58210E+04
 0.14424998E+03  0.58220E+04
 0.14429999E+03  0.58200E+04
 0.14434999E+03  0.58060E+04
 0.14439999E+03  0.57800E+04
 0.14445000E+03  0.57490E+04
 0.14449998E+03  0.57140E+04
 0.14454999E+03  0.56750E+04
 0.14459999E+03  0.56260E+04
 0.14464999E+03  0.55710E+04
 0.14470000E+03  0.55110E+04
 0.14474998E+03  0.54430E+04
 0.14479999E+03  0.53710E+04
 0.14484999E+03  0.52950E+04
 0.14489999E+03  0.52160E+04
 0.14495000E+03  0.51300E+04
 0.14499998E+03  0.50350E+04
 0.14504999E+03  0.49420E+04
 0.14509999E+03  0.48480E+04
 0.14514999E+03  0.47470E+04
 0.14520000E+03  0.46380E+04
 0.14524998E+03  0.45230E+04
 0.14529999E+03  0.44100E+04
 0.14534999E+03  0.42960E+04
 0.14539999E+03  0.41740E+04
 0.14545000E+03  0.40450E+04
 0.14549998E+03  0.39180E+04
 0.14554999E+03  0.37920E+04
 0.14559999E+03  0.36600E+04
 0.14564999E+03  0.35220E+04
 0.14570000E+03  0.33850E+04
 0.14574998E+03  0.32520E+04
 0.14579999E+03  0.31200E+04
 0.14584999E+03  0.29760E+04
 0.14589999E+03  0.28270E+04
 0.14595000E+03  0.26850E+04
 0.14599998E+03  0.25460E+04
 0.14604999E+03  0.24040E+04
 0.14609999E+03  0.22460E+04
 0.14614999E+03  0.20890E+04
 0.14620000E+03  0.19380E+04
 0.14624998E+03  0.17900E+04
 0.14629999E+03  0.16380E+04
 0.14634999E+03  0.14720E+04
 0.14639999E+03  0.13130E+04
 0.14645000E+03  0.11650E+04
 0.14649998E+03  0.10170E+04
 0.14654999E+03  0.85900E+03
 0.14659999E+03  0.69700E+03
 0.14664999E+03  0.54600E+03
 0.14670000E+03  0.40300E+03
 0.14674998E+03  0.25300E+03
 0.14679999E+03  0.97000E+02
 0.14684999E+03 -0.53000E+02
 0.14689999E+03 -0.18800E+03
 0.14695000E+03 -0.32200E+03
 0.14699998E+03 -0.46700E+03
 0.14704999E+03 -0.61000E+03
 0.14709999E+03 -0.74400E+03
 0.14714999E+03 -0.86800E+03
 0.14720000E+03 -0.99200E+03
 0.14724998E+03 -0.11210E+04
 0.14729999E+03 -0.12470E+04
 0.14734999E+03 -0.13600E+04
 0.14739999E+03 -0.14670E+04
 0.14745000E+03 -0.15710E+04
 0.14749998E+03 -0.16760E+04
 0.14754999E+03 -0.17730E+04
 0.14759999E+03 -0.18490E+04
 0.14764999E+03 -0.19190E+04
 0.14770000E+03 -0.19900E+04
 0.14774998E+03 -0.20520E+04
 0.14779999E+03 -0.20960E+04
 0.14784999E+03 -0.21240E+04
 0.14789999E+03 -0.21570E+04
 0.14795000E+03 -0.21890E+04
 0.14799998E+03 -0.22030E+04
 0.14804999E+03 -0.22070E+04
 0.14809999E+03 -0.22060E+04
 0.14814999E+03 -0.22090E+04
 0.14820000E+03 -0.22110E+04
 0.14824998E+03 -0.21990E+04
 0.14829999E+03 -0.21820E+04
 0.14834999E+03 -0.21690E+04
 0.14839999E+03 -0.21540E+04
 0.14845000E+03 -0.21350E+04
 0.14849998E+03 -0.21100E+04
 0.14854999E+03 -0.20840E+04
 0.14859999E+03 -0.20660E+04
 0.14864999E+03 -0.20460E+04
 0.14870000E+03 -0.20230E+04
 0.14874998E+03 -0.19980E+04
 0.14879999E+03 -0.19700E+04
 0.14884999E+03 -0.19530E+04
 0.14889999E+03 -0.19320E+04
 0.14895000E+03 -0.19090E+04
 0.14899998E+03 -0.18920E+04
 0.14904999E+03 -0.18710E+04
 0.14909999E+03 -0.18530E+04
 0.14914999E+03 -0.18290E+04
 0.14920000E+03 -0.18080E+04
 0.14924998E+03 -0.17940E+04
 0.14929999E+03 -0.17770E+04
 0.14934999E+03 -0.17590E+04
 0.14939999E+03 -0.17390E+04
 0.14945000E+03 -0.17220E+04
 0.14949998E+03 -0.17070E+04
 0.14954999E+03 -0.16950E+04
 0.14959999E+03 -0.16760E+04
 0.14964999E+03 -0.16500E+04
 0.14970000E+03 -0.16280E+04
 0.14974998E+03 -0.16090E+04
 0.14979999E+03 -0.15920E+04
 0.14984999E+03 -0.15650E+04
 0.14989999E+03 -0.15280E+04
 0.14995000E+03 -0.15000E+04
