-0.30000000E+01 -0.27004E+05
-0.29500000E+01 -0.27019E+05
-0.29000001E+01 -0.27022E+05
-0.28499999E+01 -0.27014E+05
-0.28000000E+01 -0.27021E+05
-0.27500000E+01 -0.27023E+05
-0.27000000E+01 -0.27007E+05
-0.26500001E+01 -0.27009E+05
-0.25999999E+01 -0.27018E+05
-0.25500000E+01 -0.27011E+05
-0.25000000E+01 -0.27005E+05
-0.24500000E+01 -0.27007E+05
-0.24000001E+01 -0.27011E+05
-0.23499999E+01 -0.27011E+05
-0.23000002E+01 -0.27016E+05
-0.22500000E+01 -0.27012E+05
-0.22000000E+01 -0.27014E+05
-0.21500001E+01 -0.27018E+05
-0.20999999E+01 -0.27010E+05
-0.20500002E+01 -0.27013E+05
-0.20000000E+01 -0.27014E+05
-0.19500000E+01 -0.27007E+05
-0.19000001E+01 -0.27009E+05
-0.18500000E+01 -0.27017E+05
-0.18000001E+01 -0.27010E+05
-0.17500001E+01 -0.27008E+05
-0.17000000E+01 -0.27018E+05
-0.16500001E+01 -0.27014E+05
-0.16000001E+01 -0.27014E+05
-0.15500001E+01 -0.27014E+05
-0.15000001E+01 -0.27008E+05
-0.14500000E+01 -0.27022E+05
-0.14000001E+01 -0.27021E+05
-0.13500001E+01 -0.27011E+05
-0.13000001E+01 -0.27012E+05
-0.12500001E+01 -0.27014E+05
-0.12000000E+01 -0.27024E+05
-0.11500001E+01 -0.27013E+05
-0.11000001E+01 -0.27010E+05
-0.10500001E+01 -0.27021E+05
-0.10000001E+01 -0.27016E+05
-0.95000005E+00 -0.27017E+05
-0.90000010E+00 -0.27011E+05
-0.85000014E+00 -0.27009E+05
-0.80000019E+00 -0.27011E+05
-0.75000024E+00 -0.27015E+05
-0.70000005E+00 -0.27015E+05
-0.65000010E+00 -0.27004E+05
-0.60000014E+00 -0.27015E+05
-0.55000019E+00 -0.27012E+05
-0.50000024E+00 -0.27009E+05
-0.45000005E+00 -0.27016E+05
-0.40000010E+00 -0.27004E+05
-0.35000014E+00 -0.27013E+05
-0.30000019E+00 -0.27010E+05
-0.25000024E+00 -0.26999E+05
-0.20000029E+00 -0.27007E+05
-0.15000010E+00 -0.27004E+05
-0.10000014E+00 -0.27002E+05
-0.50000191E-01 -0.27002E+05
-0.23841858E-06 -0.27005E+05
 0.49999714E-01 -0.27000E+05
 0.99999905E-01 -0.26998E+05
 0.14999986E+00 -0.27003E+05
 0.19999981E+00 -0.27001E+05
 0.24999976E+00 -0.27002E+05
 0.29999971E+00 -0.26994E+05
 0.34999990E+00 -0.26999E+05
 0.39999986E+00 -0.27002E+05
 0.44999981E+00 -0.26997E+05
 0.49999976E+00 -0.26997E+05
 0.54999971E+00 -0.26988E+05
 0.59999990E+00 -0.26997E+05
 0.64999986E+00 -0.26998E+05
 0.69999981E+00 -0.26993E+05
 0.74999976E+00 -0.26993E+05
 0.79999971E+00 -0.26987E+05
 0.84999967E+00 -0.26993E+05
 0.89999986E+00 -0.26988E+05
 0.94999981E+00 -0.26987E+05
 0.99999976E+00 -0.26985E+05
 0.10499997E+01 -0.26983E+05
 0.10999999E+01 -0.26987E+05
 0.11499996E+01 -0.26986E+05
 0.11999998E+01 -0.26991E+05
 0.12499995E+01 -0.26984E+05
 0.12999997E+01 -0.26983E+05
 0.13499999E+01 -0.26984E+05
 0.13999996E+01 -0.26984E+05
 0.14499998E+01 -0.26989E+05
 0.14999995E+01 -0.26980E+05
 0.15499997E+01 -0.26977E+05
 0.15999999E+01 -0.26982E+05
 0.16499996E+01 -0.26981E+05
 0.16999998E+01 -0.26978E+05
 0.17499995E+01 -0.26977E+05
 0.17999997E+01 -0.26982E+05
 0.18499999E+01 -0.26986E+05
 0.18999996E+01 -0.26989E+05
 0.19499998E+01 -0.26989E+05
 0.19999995E+01 -0.26985E+05
 0.20499997E+01 -0.26984E+05
 0.20999999E+01 -0.26993E+05
 0.21499996E+01 -0.26999E+05
 0.21999998E+01 -0.26992E+05
 0.22499995E+01 -0.26996E+05
 0.22999997E+01 -0.27003E+05
 0.23499999E+01 -0.26998E+05
 0.23999996E+01 -0.27006E+05
 0.24499998E+01 -0.27008E+05
 0.24999995E+01 -0.27005E+05
 0.25499997E+01 -0.27014E+05
 0.25999994E+01 -0.27016E+05
 0.26499996E+01 -0.27017E+05
 0.26999998E+01 -0.27018E+05
 0.27499995E+01 -0.27021E+05
 0.27999997E+01 -0.27027E+05
 0.28499994E+01 -0.27024E+05
 0.28999996E+01 -0.27026E+05
 0.29499998E+01 -0.27030E+05
 0.29999995E+01 -0.27026E+05
 0.30499997E+01 -0.27028E+05
 0.30999994E+01 -0.27034E+05
 0.31499996E+01 -0.27035E+05
 0.31999998E+01 -0.27032E+05
 0.32499995E+01 -0.27030E+05
 0.32999997E+01 -0.27036E+05
 0.33499994E+01 -0.27041E+05
 0.33999996E+01 -0.27035E+05
 0.34499998E+01 -0.27031E+05
 0.34999995E+01 -0.27038E+05
 0.35499997E+01 -0.27044E+05
 0.35999994E+01 -0.27040E+05
 0.36499996E+01 -0.27035E+05
 0.36999998E+01 -0.27039E+05
 0.37499995E+01 -0.27042E+05
 0.37999997E+01 -0.27040E+05
 0.38499994E+01 -0.27041E+05
 0.38999996E+01 -0.27042E+05
 0.39499998E+01 -0.27036E+05
 0.39999995E+01 -0.27035E+05
 0.40499997E+01 -0.27043E+05
 0.40999994E+01 -0.27047E+05
 0.41499996E+01 -0.27041E+05
 0.41999998E+01 -0.27038E+05
 0.42499995E+01 -0.27042E+05
 0.42999997E+01 -0.27048E+05
 0.43499994E+01 -0.27046E+05
 0.43999996E+01 -0.27035E+05
 0.44499993E+01 -0.27046E+05
 0.44999995E+01 -0.27051E+05
 0.45499997E+01 -0.27047E+05
 0.45999994E+01 -0.27053E+05
 0.46499996E+01 -0.27045E+05
 0.46999993E+01 -0.27052E+05
 0.47499995E+01 -0.27057E+05
 0.47999997E+01 -0.27051E+05
 0.48499994E+01 -0.27051E+05
 0.48999996E+01 -0.27049E+05
 0.49499993E+01 -0.27056E+05
 0.49999995E+01 -0.27054E+05
 0.50499992E+01 -0.27058E+05
 0.50999994E+01 -0.27051E+05
 0.51499996E+01 -0.27049E+05
 0.51999998E+01 -0.27058E+05
 0.52499990E+01 -0.27052E+05
 0.52999992E+01 -0.27061E+05
 0.53499994E+01 -0.27047E+05
 0.53999996E+01 -0.27044E+05
 0.54499998E+01 -0.27060E+05
 0.54999990E+01 -0.27052E+05
 0.55499992E+01 -0.27056E+05
 0.55999994E+01 -0.27049E+05
 0.56499996E+01 -0.27047E+05
 0.56999998E+01 -0.27055E+05
 0.57499990E+01 -0.27049E+05
 0.57999992E+01 -0.27048E+05
 0.58499994E+01 -0.27042E+05
 0.58999996E+01 -0.27043E+05
 0.59499998E+01 -0.27045E+05
 0.59999990E+01 -0.27044E+05
 0.60499992E+01 -0.27044E+05
 0.60999994E+01 -0.27040E+05
 0.61499996E+01 -0.27041E+05
 0.61999998E+01 -0.27048E+05
 0.62499990E+01 -0.27045E+05
 0.62999992E+01 -0.27038E+05
 0.63499994E+01 -0.27042E+05
 0.63999996E+01 -0.27037E+05
 0.64499998E+01 -0.27050E+05
 0.64999990E+01 -0.27045E+05
 0.65499992E+01 -0.27021E+05
 0.65999994E+01 -0.27042E+05
 0.66499996E+01 -0.27043E+05
 0.66999998E+01 -0.27040E+05
 0.67499990E+01 -0.27041E+05
 0.67999992E+01 -0.27034E+05
 0.68499994E+01 -0.27045E+05
 0.68999996E+01 -0.27043E+05
 0.69499998E+01 -0.27049E+05
 0.69999990E+01 -0.27046E+05
 0.70499992E+01 -0.27037E+05
 0.70999994E+01 -0.27051E+05
 0.71499996E+01 -0.27048E+05
 0.71999998E+01 -0.27053E+05
 0.72499990E+01 -0.27054E+05
 0.72999992E+01 -0.27046E+05
 0.73499994E+01 -0.27056E+05
 0.73999996E+01 -0.27054E+05
 0.74499998E+01 -0.27049E+05
 0.74999990E+01 -0.27049E+05
 0.75499992E+01 -0.27050E+05
 0.75999994E+01 -0.27056E+05
 0.76499996E+01 -0.27052E+05
 0.76999998E+01 -0.27052E+05
 0.77499990E+01 -0.27055E+05
 0.77999992E+01 -0.27053E+05
 0.78499994E+01 -0.27054E+05
 0.78999996E+01 -0.27053E+05
 0.79499998E+01 -0.27052E+05
 0.79999990E+01 -0.27056E+05
 0.80499992E+01 -0.27056E+05
 0.80999994E+01 -0.27062E+05
 0.81499996E+01 -0.27061E+05
 0.81999989E+01 -0.27057E+05
 0.82499990E+01 -0.27062E+05
 0.82999992E+01 -0.27054E+05
 0.83499994E+01 -0.27061E+05
 0.83999996E+01 -0.27058E+05
 0.84499989E+01 -0.27059E+05
 0.84999990E+01 -0.27064E+05
 0.85499992E+01 -0.27052E+05
 0.85999994E+01 -0.27067E+05
 0.86499996E+01 -0.27059E+05
 0.86999989E+01 -0.27060E+05
 0.87499990E+01 -0.27061E+05
 0.87999992E+01 -0.27050E+05
 0.88499994E+01 -0.27059E+05
 0.88999996E+01 -0.27055E+05
 0.89499989E+01 -0.27052E+05
 0.89999990E+01 -0.27048E+05
 0.90499992E+01 -0.27050E+05
 0.90999994E+01 -0.27052E+05
 0.91499996E+01 -0.27049E+05
 0.91999989E+01 -0.27047E+05
 0.92499990E+01 -0.27046E+05
 0.92999992E+01 -0.27049E+05
 0.93499994E+01 -0.27045E+05
 0.93999996E+01 -0.27043E+05
 0.94499989E+01 -0.27043E+05
 0.94999990E+01 -0.27045E+05
 0.95499992E+01 -0.27046E+05
 0.95999994E+01 -0.27042E+05
 0.96499996E+01 -0.27040E+05
 0.96999989E+01 -0.27045E+05
 0.97499990E+01 -0.27042E+05
 0.97999992E+01 -0.27038E+05
 0.98499994E+01 -0.27041E+05
 0.98999996E+01 -0.27029E+05
 0.99499989E+01 -0.27040E+05
 0.99999990E+01 -0.27037E+05
 0.10049999E+02 -0.27028E+05
 0.10099999E+02 -0.27034E+05
 0.10150000E+02 -0.27027E+05
 0.10199999E+02 -0.27031E+05
 0.10249999E+02 -0.27019E+05
 0.10299999E+02 -0.27028E+05
 0.10349999E+02 -0.27028E+05
 0.10400000E+02 -0.27016E+05
 0.10449999E+02 -0.27027E+05
 0.10499999E+02 -0.27017E+05
 0.10549999E+02 -0.27023E+05
 0.10599999E+02 -0.27020E+05
 0.10650000E+02 -0.27016E+05
 0.10699999E+02 -0.27022E+05
 0.10749999E+02 -0.27017E+05
 0.10799999E+02 -0.27019E+05
 0.10849999E+02 -0.27014E+05
 0.10900000E+02 -0.27012E+05
 0.10949999E+02 -0.27011E+05
 0.10999999E+02 -0.27007E+05
 0.11049999E+02 -0.27011E+05
 0.11099999E+02 -0.27008E+05
 0.11150000E+02 -0.27003E+05
 0.11199999E+02 -0.27001E+05
 0.11249999E+02 -0.27000E+05
 0.11299999E+02 -0.27000E+05
 0.11349999E+02 -0.26994E+05
 0.11400000E+02 -0.26999E+05
 0.11449999E+02 -0.27003E+05
 0.11499999E+02 -0.26991E+05
 0.11549999E+02 -0.26993E+05
 0.11599999E+02 -0.26991E+05
 0.11649999E+02 -0.26991E+05
 0.11699999E+02 -0.26991E+05
 0.11749999E+02 -0.26986E+05
 0.11799999E+02 -0.26988E+05
 0.11849999E+02 -0.26983E+05
 0.11899999E+02 -0.26990E+05
 0.11949999E+02 -0.26986E+05
 0.11999999E+02 -0.26981E+05
 0.12049999E+02 -0.26984E+05
 0.12099999E+02 -0.26983E+05
 0.12149999E+02 -0.26988E+05
 0.12199999E+02 -0.26981E+05
 0.12249999E+02 -0.26983E+05
 0.12299999E+02 -0.26981E+05
 0.12349999E+02 -0.26974E+05
 0.12399999E+02 -0.26980E+05
 0.12449999E+02 -0.26978E+05
 0.12499999E+02 -0.26973E+05
 0.12549999E+02 -0.26979E+05
 0.12599999E+02 -0.26980E+05
 0.12649999E+02 -0.26977E+05
 0.12699999E+02 -0.26977E+05
 0.12749999E+02 -0.26975E+05
 0.12799999E+02 -0.26977E+05
 0.12849999E+02 -0.26977E+05
 0.12899999E+02 -0.26977E+05
 0.12949999E+02 -0.26978E+05
 0.12999999E+02 -0.26984E+05
 0.13049999E+02 -0.26981E+05
 0.13099998E+02 -0.26986E+05
 0.13150000E+02 -0.26984E+05
 0.13199999E+02 -0.26980E+05
 0.13249998E+02 -0.26995E+05
 0.13299999E+02 -0.26987E+05
 0.13349998E+02 -0.26995E+05
 0.13400000E+02 -0.26995E+05
 0.13449999E+02 -0.26993E+05
 0.13499998E+02 -0.27003E+05
 0.13549999E+02 -0.26992E+05
 0.13599998E+02 -0.26993E+05
 0.13650000E+02 -0.26993E+05
 0.13699999E+02 -0.26995E+05
 0.13749998E+02 -0.26996E+05
 0.13799999E+02 -0.26993E+05
 0.13849998E+02 -0.26994E+05
 0.13900000E+02 -0.26996E+05
 0.13949999E+02 -0.26991E+05
 0.13999998E+02 -0.26992E+05
 0.14049999E+02 -0.26993E+05
 0.14099998E+02 -0.26991E+05
 0.14150000E+02 -0.26996E+05
 0.14199999E+02 -0.26988E+05
 0.14249998E+02 -0.26993E+05
 0.14299999E+02 -0.26993E+05
 0.14349998E+02 -0.26991E+05
 0.14400000E+02 -0.26995E+05
 0.14449999E+02 -0.26992E+05
 0.14499998E+02 -0.26996E+05
 0.14549999E+02 -0.26992E+05
 0.14599998E+02 -0.26994E+05
 0.14650000E+02 -0.26994E+05
 0.14699999E+02 -0.27004E+05
 0.14749998E+02 -0.27002E+05
 0.14799999E+02 -0.27001E+05
 0.14849998E+02 -0.27010E+05
 0.14900000E+02 -0.26993E+05
 0.14949999E+02 -0.27015E+05
 0.14999998E+02 -0.27014E+05
 0.15049999E+02 -0.27005E+05
 0.15099998E+02 -0.27019E+05
 0.15150000E+02 -0.27013E+05
 0.15199999E+02 -0.27014E+05
 0.15249998E+02 -0.27005E+05
 0.15299999E+02 -0.27027E+05
 0.15349998E+02 -0.27024E+05
 0.15400000E+02 -0.27001E+05
 0.15449999E+02 -0.27027E+05
 0.15499998E+02 -0.27021E+05
 0.15549999E+02 -0.27015E+05
 0.15599998E+02 -0.27023E+05
 0.15650000E+02 -0.27024E+05
 0.15699999E+02 -0.27026E+05
 0.15749998E+02 -0.27030E+05
 0.15799999E+02 -0.27029E+05
 0.15849998E+02 -0.27026E+05
 0.15900000E+02 -0.27035E+05
 0.15949999E+02 -0.27029E+05
 0.15999998E+02 -0.27038E+05
 0.16049999E+02 -0.27032E+05
 0.16099998E+02 -0.27021E+05
 0.16150000E+02 -0.27031E+05
 0.16199999E+02 -0.27031E+05
 0.16249998E+02 -0.27029E+05
 0.16299999E+02 -0.27026E+05
 0.16349998E+02 -0.27036E+05
 0.16400000E+02 -0.27022E+05
 0.16449999E+02 -0.27023E+05
 0.16499998E+02 -0.27033E+05
 0.16549999E+02 -0.27022E+05
 0.16599998E+02 -0.27025E+05
 0.16650000E+02 -0.27023E+05
 0.16699999E+02 -0.27029E+05
 0.16749998E+02 -0.27023E+05
 0.16799999E+02 -0.27027E+05
 0.16849998E+02 -0.27028E+05
 0.16900000E+02 -0.27027E+05
 0.16949999E+02 -0.27033E+05
 0.16999998E+02 -0.27025E+05
 0.17049999E+02 -0.27029E+05
 0.17099998E+02 -0.27027E+05
 0.17150000E+02 -0.27030E+05
 0.17199999E+02 -0.27027E+05
 0.17249998E+02 -0.27025E+05
 0.17299999E+02 -0.27023E+05
 0.17349998E+02 -0.27022E+05
 0.17400000E+02 -0.27030E+05
 0.17449999E+02 -0.27022E+05
 0.17499998E+02 -0.27019E+05
 0.17549999E+02 -0.27023E+05
 0.17599998E+02 -0.27025E+05
 0.17650000E+02 -0.27018E+05
 0.17699999E+02 -0.27020E+05
 0.17749998E+02 -0.27028E+05
 0.17799999E+02 -0.27024E+05
 0.17849998E+02 -0.27024E+05
 0.17900000E+02 -0.27026E+05
 0.17949999E+02 -0.27023E+05
 0.17999998E+02 -0.27024E+05
 0.18049999E+02 -0.27022E+05
 0.18099998E+02 -0.27017E+05
 0.18150000E+02 -0.27039E+05
 0.18199999E+02 -0.27021E+05
 0.18249998E+02 -0.27020E+05
 0.18299999E+02 -0.27043E+05
 0.18349998E+02 -0.27015E+05
 0.18400000E+02 -0.27032E+05
 0.18449999E+02 -0.27028E+05
 0.18499998E+02 -0.27015E+05
 0.18549999E+02 -0.27032E+05
 0.18599998E+02 -0.27028E+05
 0.18650000E+02 -0.27033E+05
 0.18699999E+02 -0.27031E+05
 0.18749998E+02 -0.27035E+05
 0.18799999E+02 -0.27034E+05
 0.18849998E+02 -0.27034E+05
 0.18900000E+02 -0.27038E+05
 0.18949999E+02 -0.27034E+05
 0.18999998E+02 -0.27036E+05
 0.19049999E+02 -0.27039E+05
 0.19099998E+02 -0.27044E+05
 0.19150000E+02 -0.27042E+05
 0.19199999E+02 -0.27037E+05
 0.19249998E+02 -0.27042E+05
 0.19299999E+02 -0.27042E+05
 0.19349998E+02 -0.27041E+05
 0.19399998E+02 -0.27044E+05
 0.19449999E+02 -0.27047E+05
 0.19499998E+02 -0.27053E+05
 0.19549999E+02 -0.27046E+05
 0.19599998E+02 -0.27048E+05
 0.19649998E+02 -0.27060E+05
 0.19699999E+02 -0.27053E+05
 0.19749998E+02 -0.27054E+05
 0.19799999E+02 -0.27047E+05
 0.19849998E+02 -0.27049E+05
 0.19899998E+02 -0.27056E+05
 0.19949999E+02 -0.27045E+05
 0.19999998E+02 -0.27043E+05
 0.20049999E+02 -0.27047E+05
 0.20099998E+02 -0.27046E+05
 0.20149998E+02 -0.27041E+05
 0.20199999E+02 -0.27041E+05
 0.20249998E+02 -0.27046E+05
 0.20299999E+02 -0.27046E+05
 0.20349998E+02 -0.27045E+05
 0.20399998E+02 -0.27039E+05
 0.20449999E+02 -0.27043E+05
 0.20499998E+02 -0.27050E+05
 0.20549999E+02 -0.27043E+05
 0.20599998E+02 -0.27044E+05
 0.20649998E+02 -0.27043E+05
 0.20699999E+02 -0.27043E+05
 0.20749998E+02 -0.27046E+05
 0.20799999E+02 -0.27040E+05
 0.20849998E+02 -0.27043E+05
 0.20899998E+02 -0.27046E+05
 0.20949999E+02 -0.27044E+05
 0.20999998E+02 -0.27039E+05
 0.21049999E+02 -0.27044E+05
 0.21099998E+02 -0.27052E+05
 0.21149998E+02 -0.27041E+05
 0.21199999E+02 -0.27048E+05
 0.21249998E+02 -0.27049E+05
 0.21299999E+02 -0.27044E+05
 0.21349998E+02 -0.27055E+05
 0.21399998E+02 -0.27049E+05
 0.21449999E+02 -0.27050E+05
 0.21499998E+02 -0.27048E+05
 0.21549999E+02 -0.27047E+05
 0.21599998E+02 -0.27049E+05
 0.21649998E+02 -0.27047E+05
 0.21699999E+02 -0.27056E+05
 0.21749998E+02 -0.27047E+05
 0.21799999E+02 -0.27050E+05
 0.21849998E+02 -0.27059E+05
 0.21899998E+02 -0.27054E+05
 0.21949999E+02 -0.27060E+05
 0.21999998E+02 -0.27057E+05
 0.22049999E+02 -0.27048E+05
 0.22099998E+02 -0.27061E+05
 0.22149998E+02 -0.27065E+05
 0.22199999E+02 -0.27054E+05
 0.22249998E+02 -0.27062E+05
 0.22299999E+02 -0.27067E+05
 0.22349998E+02 -0.27060E+05
 0.22399998E+02 -0.27062E+05
 0.22449999E+02 -0.27060E+05
 0.22499998E+02 -0.27057E+05
 0.22549999E+02 -0.27060E+05
 0.22599998E+02 -0.27056E+05
 0.22649998E+02 -0.27054E+05
 0.22699999E+02 -0.27051E+05
 0.22749998E+02 -0.27053E+05
 0.22799999E+02 -0.27050E+05
 0.22849998E+02 -0.27045E+05
 0.22899998E+02 -0.27052E+05
 0.22949999E+02 -0.27051E+05
 0.22999998E+02 -0.27055E+05
 0.23049999E+02 -0.27038E+05
 0.23099998E+02 -0.27053E+05
 0.23149998E+02 -0.27051E+05
 0.23199999E+02 -0.27028E+05
 0.23249998E+02 -0.27051E+05
 0.23299999E+02 -0.27038E+05
 0.23349998E+02 -0.27038E+05
 0.23399998E+02 -0.27045E+05
 0.23449999E+02 -0.27034E+05
 0.23499998E+02 -0.27041E+05
 0.23549999E+02 -0.27046E+05
 0.23599998E+02 -0.27039E+05
 0.23649998E+02 -0.27031E+05
 0.23699999E+02 -0.27045E+05
 0.23749998E+02 -0.27038E+05
 0.23799999E+02 -0.27027E+05
 0.23849998E+02 -0.27044E+05
 0.23899998E+02 -0.27040E+05
 0.23949999E+02 -0.27027E+05
 0.23999998E+02 -0.27035E+05
 0.24049999E+02 -0.27034E+05
 0.24099998E+02 -0.27029E+05
 0.24149998E+02 -0.27029E+05
 0.24199999E+02 -0.27026E+05
 0.24249998E+02 -0.27027E+05
 0.24299999E+02 -0.27028E+05
 0.24349998E+02 -0.27024E+05
 0.24399998E+02 -0.27025E+05
 0.24449999E+02 -0.27024E+05
 0.24499998E+02 -0.27021E+05
 0.24549999E+02 -0.27024E+05
 0.24599998E+02 -0.27024E+05
 0.24649998E+02 -0.27021E+05
 0.24699999E+02 -0.27023E+05
 0.24749998E+02 -0.27022E+05
 0.24799999E+02 -0.27022E+05
 0.24849998E+02 -0.27030E+05
 0.24899998E+02 -0.27025E+05
 0.24949999E+02 -0.27025E+05
 0.24999998E+02 -0.27027E+05
 0.25049999E+02 -0.27026E+05
 0.25099998E+02 -0.27026E+05
 0.25149998E+02 -0.27022E+05
 0.25199999E+02 -0.27026E+05
 0.25249998E+02 -0.27028E+05
 0.25299999E+02 -0.27024E+05
 0.25349998E+02 -0.27022E+05
 0.25399998E+02 -0.27022E+05
 0.25449999E+02 -0.27028E+05
 0.25499998E+02 -0.27028E+05
 0.25549999E+02 -0.27021E+05
 0.25599998E+02 -0.27023E+05
 0.25649998E+02 -0.27029E+05
 0.25699999E+02 -0.27024E+05
 0.25749998E+02 -0.27023E+05
 0.25799999E+02 -0.27026E+05
 0.25849998E+02 -0.27025E+05
 0.25899998E+02 -0.27025E+05
 0.25949999E+02 -0.27021E+05
 0.25999998E+02 -0.27025E+05
 0.26049997E+02 -0.27030E+05
 0.26099998E+02 -0.27027E+05
 0.26149998E+02 -0.27027E+05
 0.26199999E+02 -0.27029E+05
 0.26249998E+02 -0.27027E+05
 0.26299997E+02 -0.27028E+05
 0.26349998E+02 -0.27027E+05
 0.26399998E+02 -0.27028E+05
 0.26449999E+02 -0.27032E+05
 0.26499998E+02 -0.27029E+05
 0.26549997E+02 -0.27027E+05
 0.26599998E+02 -0.27029E+05
 0.26649998E+02 -0.27030E+05
 0.26699999E+02 -0.27030E+05
 0.26749998E+02 -0.27031E+05
 0.26799997E+02 -0.27033E+05
 0.26849998E+02 -0.27032E+05
 0.26899998E+02 -0.27035E+05
 0.26949999E+02 -0.27038E+05
 0.26999998E+02 -0.27033E+05
 0.27049997E+02 -0.27033E+05
 0.27099998E+02 -0.27037E+05
 0.27149998E+02 -0.27037E+05
 0.27199999E+02 -0.27040E+05
 0.27249998E+02 -0.27038E+05
 0.27299997E+02 -0.27037E+05
 0.27349998E+02 -0.27036E+05
 0.27399998E+02 -0.27036E+05
 0.27449999E+02 -0.27038E+05
 0.27499998E+02 -0.27032E+05
 0.27549997E+02 -0.27034E+05
 0.27599998E+02 -0.27036E+05
 0.27649998E+02 -0.27027E+05
 0.27699999E+02 -0.27030E+05
 0.27749998E+02 -0.27031E+05
 0.27799997E+02 -0.27025E+05
 0.27849998E+02 -0.27030E+05
 0.27899998E+02 -0.27028E+05
 0.27949999E+02 -0.27028E+05
 0.27999998E+02 -0.27025E+05
 0.28049997E+02 -0.27021E+05
 0.28099998E+02 -0.27026E+05
 0.28149998E+02 -0.27021E+05
 0.28199999E+02 -0.27022E+05
 0.28249998E+02 -0.27021E+05
 0.28299997E+02 -0.27027E+05
 0.28349998E+02 -0.27030E+05
 0.28399998E+02 -0.27022E+05
 0.28449999E+02 -0.27026E+05
 0.28499998E+02 -0.27025E+05
 0.28549997E+02 -0.27030E+05
 0.28599998E+02 -0.27027E+05
 0.28649998E+02 -0.27023E+05
 0.28699999E+02 -0.27035E+05
 0.28749998E+02 -0.27028E+05
 0.28799997E+02 -0.27027E+05
 0.28849998E+02 -0.27030E+05
 0.28899998E+02 -0.27029E+05
 0.28949999E+02 -0.27037E+05
 0.28999998E+02 -0.27034E+05
 0.29049999E+02 -0.27035E+05
 0.29099998E+02 -0.27036E+05
 0.29149998E+02 -0.27039E+05
 0.29199997E+02 -0.27044E+05
 0.29249996E+02 -0.27038E+05
 0.29299999E+02 -0.27038E+05
 0.29349998E+02 -0.27042E+05
 0.29399998E+02 -0.27041E+05
 0.29449997E+02 -0.27036E+05
 0.29499996E+02 -0.27043E+05
 0.29549999E+02 -0.27041E+05
 0.29599998E+02 -0.27034E+05
 0.29649998E+02 -0.27038E+05
 0.29699997E+02 -0.27037E+05
 0.29749996E+02 -0.27033E+05
 0.29799999E+02 -0.27031E+05
 0.29849998E+02 -0.27034E+05
 0.29899998E+02 -0.27030E+05
 0.29949997E+02 -0.27030E+05
 0.29999996E+02 -0.27036E+05
 0.30049999E+02 -0.27031E+05
 0.30099998E+02 -0.27031E+05
 0.30149998E+02 -0.27030E+05
 0.30199997E+02 -0.27027E+05
 0.30249996E+02 -0.27027E+05
 0.30299999E+02 -0.27024E+05
 0.30349998E+02 -0.27021E+05
 0.30399998E+02 -0.27025E+05
 0.30449997E+02 -0.27024E+05
 0.30499996E+02 -0.27019E+05
 0.30549999E+02 -0.27018E+05
 0.30599998E+02 -0.27021E+05
 0.30649998E+02 -0.27023E+05
 0.30699997E+02 -0.27016E+05
 0.30749996E+02 -0.27016E+05
 0.30799999E+02 -0.27022E+05
 0.30849998E+02 -0.27015E+05
 0.30899998E+02 -0.27012E+05
 0.30949997E+02 -0.27018E+05
 0.30999996E+02 -0.27019E+05
 0.31049999E+02 -0.27018E+05
 0.31099998E+02 -0.27013E+05
 0.31149998E+02 -0.27014E+05
 0.31199997E+02 -0.27021E+05
 0.31249996E+02 -0.27019E+05
 0.31299999E+02 -0.27014E+05
 0.31349998E+02 -0.27015E+05
 0.31399998E+02 -0.27019E+05
 0.31449997E+02 -0.27014E+05
 0.31499996E+02 -0.27015E+05
 0.31549999E+02 -0.27015E+05
 0.31599998E+02 -0.27015E+05
 0.31649998E+02 -0.27019E+05
 0.31699997E+02 -0.27014E+05
 0.31749996E+02 -0.27018E+05
 0.31799999E+02 -0.27017E+05
 0.31849998E+02 -0.27014E+05
 0.31899998E+02 -0.27014E+05
 0.31949997E+02 -0.27013E+05
 0.31999996E+02 -0.27018E+05
 0.32049999E+02 -0.27012E+05
 0.32099998E+02 -0.27015E+05
 0.32149998E+02 -0.27015E+05
 0.32199997E+02 -0.27017E+05
 0.32249996E+02 -0.27023E+05
 0.32299999E+02 -0.27015E+05
 0.32349998E+02 -0.27019E+05
 0.32399998E+02 -0.27019E+05
 0.32449997E+02 -0.27018E+05
 0.32499996E+02 -0.27020E+05
 0.32549999E+02 -0.27017E+05
 0.32599998E+02 -0.27020E+05
 0.32649998E+02 -0.27018E+05
 0.32699997E+02 -0.27017E+05
 0.32749996E+02 -0.27019E+05
 0.32799999E+02 -0.27018E+05
 0.32849998E+02 -0.27020E+05
 0.32899998E+02 -0.27022E+05
 0.32949997E+02 -0.27021E+05
 0.32999996E+02 -0.27024E+05
 0.33049999E+02 -0.27027E+05
 0.33099998E+02 -0.27028E+05
 0.33149998E+02 -0.27026E+05
 0.33199997E+02 -0.27024E+05
 0.33249996E+02 -0.27025E+05
 0.33299999E+02 -0.27031E+05
 0.33349998E+02 -0.27034E+05
 0.33399998E+02 -0.27030E+05
 0.33449997E+02 -0.27028E+05
 0.33499996E+02 -0.27032E+05
 0.33549999E+02 -0.27032E+05
 0.33599998E+02 -0.27028E+05
 0.33649998E+02 -0.27030E+05
 0.33699997E+02 -0.27032E+05
 0.33749996E+02 -0.27031E+05
 0.33799999E+02 -0.27026E+05
 0.33849998E+02 -0.27026E+05
 0.33899998E+02 -0.27032E+05
 0.33949997E+02 -0.27024E+05
 0.33999996E+02 -0.27025E+05
 0.34049999E+02 -0.27028E+05
 0.34099998E+02 -0.27020E+05
 0.34149998E+02 -0.27025E+05
 0.34199997E+02 -0.27020E+05
 0.34249996E+02 -0.27016E+05
 0.34299999E+02 -0.27024E+05
 0.34349998E+02 -0.27016E+05
 0.34399998E+02 -0.27019E+05
 0.34449997E+02 -0.27022E+05
 0.34499996E+02 -0.27018E+05
 0.34549999E+02 -0.27025E+05
 0.34599998E+02 -0.27021E+05
 0.34649998E+02 -0.27017E+05
 0.34699997E+02 -0.27025E+05
 0.34749996E+02 -0.27018E+05
 0.34799999E+02 -0.27016E+05
 0.34849998E+02 -0.27022E+05
 0.34899998E+02 -0.27018E+05
 0.34949997E+02 -0.27019E+05
 0.34999996E+02 -0.27018E+05
 0.35049999E+02 -0.27017E+05
 0.35099998E+02 -0.27021E+05
 0.35149998E+02 -0.27019E+05
 0.35199997E+02 -0.27020E+05
 0.35249996E+02 -0.27014E+05
 0.35299999E+02 -0.27019E+05
 0.35349998E+02 -0.27023E+05
 0.35399998E+02 -0.27017E+05
 0.35449997E+02 -0.27018E+05
 0.35499996E+02 -0.27017E+05
 0.35549999E+02 -0.27022E+05
 0.35599998E+02 -0.27021E+05
 0.35649998E+02 -0.27019E+05
 0.35699997E+02 -0.27020E+05
 0.35749996E+02 -0.27022E+05
 0.35799999E+02 -0.27021E+05
 0.35849998E+02 -0.27016E+05
 0.35899998E+02 -0.27020E+05
 0.35949997E+02 -0.27018E+05
 0.35999996E+02 -0.27023E+05
 0.36049999E+02 -0.27021E+05
 0.36099998E+02 -0.27016E+05
 0.36149998E+02 -0.27023E+05
 0.36199997E+02 -0.27021E+05
 0.36249996E+02 -0.27023E+05
 0.36299999E+02 -0.27021E+05
 0.36349998E+02 -0.27021E+05
 0.36399998E+02 -0.27024E+05
 0.36449997E+02 -0.27024E+05
 0.36499996E+02 -0.27025E+05
 0.36549999E+02 -0.27022E+05
 0.36599998E+02 -0.27030E+05
 0.36649998E+02 -0.27026E+05
 0.36699997E+02 -0.27027E+05
 0.36749996E+02 -0.27035E+05
 0.36799999E+02 -0.27033E+05
 0.36849998E+02 -0.27035E+05
 0.36899998E+02 -0.27032E+05
 0.36949997E+02 -0.27043E+05
 0.36999996E+02 -0.27043E+05
 0.37049999E+02 -0.27035E+05
 0.37099998E+02 -0.27045E+05
 0.37149998E+02 -0.27045E+05
 0.37199997E+02 -0.27050E+05
 0.37249996E+02 -0.27049E+05
 0.37299999E+02 -0.27051E+05
 0.37349998E+02 -0.27051E+05
 0.37399998E+02 -0.27052E+05
 0.37449997E+02 -0.27058E+05
 0.37499996E+02 -0.27048E+05
 0.37549999E+02 -0.27056E+05
 0.37599998E+02 -0.27060E+05
 0.37649998E+02 -0.27054E+05
 0.37699997E+02 -0.27061E+05
 0.37749996E+02 -0.27062E+05
 0.37799999E+02 -0.27063E+05
 0.37849998E+02 -0.27063E+05
 0.37899998E+02 -0.27063E+05
 0.37949997E+02 -0.27066E+05
 0.37999996E+02 -0.27062E+05
 0.38049999E+02 -0.27062E+05
 0.38099998E+02 -0.27063E+05
 0.38149998E+02 -0.27064E+05
 0.38199997E+02 -0.27064E+05
 0.38249996E+02 -0.27063E+05
 0.38299999E+02 -0.27067E+05
 0.38349998E+02 -0.27061E+05
 0.38399998E+02 -0.27065E+05
 0.38449997E+02 -0.27066E+05
 0.38499996E+02 -0.27060E+05
 0.38549999E+02 -0.27070E+05
 0.38599998E+02 -0.27062E+05
 0.38649998E+02 -0.27063E+05
 0.38699997E+02 -0.27072E+05
 0.38749996E+02 -0.27063E+05
 0.38799999E+02 -0.27064E+05
 0.38849998E+02 -0.27070E+05
 0.38899998E+02 -0.27071E+05
 0.38949997E+02 -0.27064E+05
 0.38999996E+02 -0.27066E+05
 0.39049999E+02 -0.27070E+05
 0.39099998E+02 -0.27067E+05
 0.39149998E+02 -0.27066E+05
 0.39199997E+02 -0.27063E+05
 0.39249996E+02 -0.27070E+05
 0.39299999E+02 -0.27064E+05
 0.39349998E+02 -0.27058E+05
 0.39399998E+02 -0.27061E+05
 0.39449997E+02 -0.27062E+05
 0.39499996E+02 -0.27062E+05
 0.39549999E+02 -0.27059E+05
 0.39599998E+02 -0.27060E+05
 0.39649998E+02 -0.27057E+05
 0.39699997E+02 -0.27055E+05
 0.39749996E+02 -0.27051E+05
 0.39799999E+02 -0.27051E+05
 0.39849998E+02 -0.27056E+05
 0.39899998E+02 -0.27052E+05
 0.39949997E+02 -0.27050E+05
 0.39999996E+02 -0.27049E+05
 0.40049999E+02 -0.27050E+05
 0.40099998E+02 -0.27054E+05
 0.40149998E+02 -0.27049E+05
 0.40199997E+02 -0.27053E+05
 0.40249996E+02 -0.27057E+05
 0.40299999E+02 -0.27052E+05
 0.40349998E+02 -0.27055E+05
 0.40399998E+02 -0.27051E+05
 0.40449997E+02 -0.27055E+05
 0.40499996E+02 -0.27060E+05
 0.40549999E+02 -0.27056E+05
 0.40599998E+02 -0.27060E+05
 0.40649998E+02 -0.27059E+05
 0.40699997E+02 -0.27059E+05
 0.40749996E+02 -0.27056E+05
 0.40799999E+02 -0.27053E+05
 0.40849998E+02 -0.27063E+05
 0.40899998E+02 -0.27061E+05
 0.40949997E+02 -0.27062E+05
 0.40999996E+02 -0.27067E+05
 0.41049999E+02 -0.27056E+05
 0.41099998E+02 -0.27059E+05
 0.41149998E+02 -0.27067E+05
 0.41199997E+02 -0.27061E+05
 0.41249996E+02 -0.27060E+05
 0.41299999E+02 -0.27061E+05
 0.41349998E+02 -0.27058E+05
 0.41399998E+02 -0.27060E+05
 0.41449997E+02 -0.27055E+05
 0.41499996E+02 -0.27054E+05
 0.41549999E+02 -0.27057E+05
 0.41599998E+02 -0.27052E+05
 0.41649998E+02 -0.27050E+05
 0.41699997E+02 -0.27047E+05
 0.41749996E+02 -0.27050E+05
 0.41799995E+02 -0.27051E+05
 0.41849998E+02 -0.27043E+05
 0.41899998E+02 -0.27049E+05
 0.41949997E+02 -0.27051E+05
 0.41999996E+02 -0.27048E+05
 0.42049995E+02 -0.27044E+05
 0.42099998E+02 -0.27045E+05
 0.42149998E+02 -0.27048E+05
 0.42199997E+02 -0.27047E+05
 0.42249996E+02 -0.27051E+05
 0.42299995E+02 -0.27050E+05
 0.42349998E+02 -0.27053E+05
 0.42399998E+02 -0.27054E+05
 0.42449997E+02 -0.27052E+05
 0.42499996E+02 -0.27050E+05
 0.42549995E+02 -0.27051E+05
 0.42599998E+02 -0.27057E+05
 0.42649998E+02 -0.27048E+05
 0.42699997E+02 -0.27050E+05
 0.42749996E+02 -0.27061E+05
 0.42799995E+02 -0.27056E+05
 0.42849998E+02 -0.27056E+05
 0.42899998E+02 -0.27057E+05
 0.42949997E+02 -0.27056E+05
 0.42999996E+02 -0.27059E+05
 0.43049995E+02 -0.27055E+05
 0.43099998E+02 -0.27054E+05
 0.43149998E+02 -0.27063E+05
 0.43199997E+02 -0.27062E+05
 0.43249996E+02 -0.27058E+05
 0.43299995E+02 -0.27058E+05
 0.43349998E+02 -0.27058E+05
 0.43399998E+02 -0.27059E+05
 0.43449997E+02 -0.27054E+05
 0.43499996E+02 -0.27057E+05
 0.43549995E+02 -0.27060E+05
 0.43599998E+02 -0.27058E+05
 0.43649998E+02 -0.27058E+05
 0.43699997E+02 -0.27057E+05
 0.43749996E+02 -0.27055E+05
 0.43799995E+02 -0.27055E+05
 0.43849998E+02 -0.27054E+05
 0.43899998E+02 -0.27051E+05
 0.43949997E+02 -0.27049E+05
 0.43999996E+02 -0.27048E+05
 0.44049995E+02 -0.27051E+05
 0.44099998E+02 -0.27047E+05
 0.44149998E+02 -0.27043E+05
 0.44199997E+02 -0.27046E+05
 0.44249996E+02 -0.27044E+05
 0.44299995E+02 -0.27043E+05
 0.44349998E+02 -0.27041E+05
 0.44399998E+02 -0.27037E+05
 0.44449997E+02 -0.27041E+05
 0.44499996E+02 -0.27041E+05
 0.44549995E+02 -0.27038E+05
 0.44599998E+02 -0.27042E+05
 0.44649998E+02 -0.27038E+05
 0.44699997E+02 -0.27038E+05
 0.44749996E+02 -0.27040E+05
 0.44799995E+02 -0.27037E+05
 0.44849998E+02 -0.27041E+05
 0.44899998E+02 -0.27037E+05
 0.44949997E+02 -0.27035E+05
 0.44999996E+02 -0.27036E+05
 0.45049995E+02 -0.27038E+05
 0.45099998E+02 -0.27041E+05
 0.45149998E+02 -0.27033E+05
 0.45199997E+02 -0.27035E+05
 0.45249996E+02 -0.27035E+05
 0.45299995E+02 -0.27033E+05
 0.45349998E+02 -0.27038E+05
 0.45399998E+02 -0.27036E+05
 0.45449997E+02 -0.27037E+05
 0.45499996E+02 -0.27033E+05
 0.45549995E+02 -0.27032E+05
 0.45599998E+02 -0.27035E+05
 0.45649998E+02 -0.27029E+05
 0.45699997E+02 -0.27028E+05
 0.45749996E+02 -0.27028E+05
 0.45799995E+02 -0.27029E+05
 0.45849998E+02 -0.27027E+05
 0.45899998E+02 -0.27025E+05
 0.45949997E+02 -0.27028E+05
 0.45999996E+02 -0.27028E+05
 0.46049995E+02 -0.27026E+05
 0.46099998E+02 -0.27024E+05
 0.46149998E+02 -0.27033E+05
 0.46199997E+02 -0.27027E+05
 0.46249996E+02 -0.27020E+05
 0.46299995E+02 -0.27024E+05
 0.46349998E+02 -0.27020E+05
 0.46399998E+02 -0.27025E+05
 0.46449997E+02 -0.27023E+05
 0.46499996E+02 -0.27020E+05
 0.46549995E+02 -0.27024E+05
 0.46599998E+02 -0.27022E+05
 0.46649998E+02 -0.27018E+05
 0.46699997E+02 -0.27020E+05
 0.46749996E+02 -0.27023E+05
 0.46799995E+02 -0.27019E+05
 0.46849998E+02 -0.27016E+05
 0.46899998E+02 -0.27020E+05
 0.46949997E+02 -0.27025E+05
 0.46999996E+02 -0.27022E+05
 0.47049995E+02 -0.27018E+05
 0.47099998E+02 -0.27019E+05
 0.47149998E+02 -0.27023E+05
 0.47199997E+02 -0.27019E+05
 0.47249996E+02 -0.27017E+05
 0.47299995E+02 -0.27022E+05
 0.47349998E+02 -0.27022E+05
 0.47399998E+02 -0.27021E+05
 0.47449997E+02 -0.27017E+05
 0.47499996E+02 -0.27016E+05
 0.47549995E+02 -0.27025E+05
 0.47599998E+02 -0.27026E+05
 0.47649998E+02 -0.27021E+05
 0.47699997E+02 -0.27024E+05
 0.47749996E+02 -0.27024E+05
 0.47799995E+02 -0.27024E+05
 0.47849998E+02 -0.27022E+05
 0.47899998E+02 -0.27022E+05
 0.47949997E+02 -0.27026E+05
 0.47999996E+02 -0.27024E+05
 0.48049995E+02 -0.27025E+05
 0.48099998E+02 -0.27023E+05
 0.48149998E+02 -0.27029E+05
 0.48199997E+02 -0.27027E+05
 0.48249996E+02 -0.27025E+05
 0.48299995E+02 -0.27031E+05
 0.48349998E+02 -0.27027E+05
 0.48399998E+02 -0.27033E+05
 0.48449997E+02 -0.27028E+05
 0.48499996E+02 -0.27026E+05
 0.48549995E+02 -0.27029E+05
 0.48599998E+02 -0.27025E+05
 0.48649998E+02 -0.27029E+05
 0.48699997E+02 -0.27023E+05
 0.48749996E+02 -0.27025E+05
 0.48799995E+02 -0.27025E+05
 0.48849998E+02 -0.27027E+05
 0.48899998E+02 -0.27026E+05
 0.48949997E+02 -0.27022E+05
 0.48999996E+02 -0.27024E+05
 0.49049995E+02 -0.27021E+05
 0.49099998E+02 -0.27020E+05
 0.49149998E+02 -0.27018E+05
 0.49199997E+02 -0.27020E+05
 0.49249996E+02 -0.27021E+05
 0.49299995E+02 -0.27023E+05
 0.49349998E+02 -0.27016E+05
 0.49399998E+02 -0.27013E+05
 0.49449997E+02 -0.27015E+05
 0.49499996E+02 -0.27009E+05
 0.49549995E+02 -0.27015E+05
 0.49599998E+02 -0.27014E+05
 0.49649998E+02 -0.27020E+05
 0.49699997E+02 -0.27019E+05
 0.49749996E+02 -0.27010E+05
 0.49799995E+02 -0.27015E+05
 0.49849998E+02 -0.27012E+05
 0.49899998E+02 -0.27012E+05
 0.49949997E+02 -0.27011E+05
 0.49999996E+02 -0.27013E+05
 0.50049995E+02 -0.27018E+05
 0.50099998E+02 -0.27013E+05
 0.50149998E+02 -0.27010E+05
 0.50199997E+02 -0.27014E+05
 0.50249996E+02 -0.27015E+05
 0.50299995E+02 -0.27012E+05
 0.50349998E+02 -0.27015E+05
 0.50399998E+02 -0.27012E+05
 0.50449997E+02 -0.27011E+05
 0.50499996E+02 -0.27012E+05
 0.50549995E+02 -0.27005E+05
 0.50599998E+02 -0.27004E+05
 0.50649998E+02 -0.27007E+05
 0.50699997E+02 -0.27005E+05
 0.50749996E+02 -0.27004E+05
 0.50799995E+02 -0.27006E+05
 0.50849998E+02 -0.27005E+05
 0.50899998E+02 -0.27004E+05
 0.50949997E+02 -0.27003E+05
 0.50999996E+02 -0.27002E+05
 0.51049995E+02 -0.27006E+05
 0.51099998E+02 -0.27002E+05
 0.51149998E+02 -0.27000E+05
 0.51199997E+02 -0.27006E+05
 0.51249996E+02 -0.27004E+05
 0.51299995E+02 -0.27000E+05
 0.51349998E+02 -0.26998E+05
 0.51399998E+02 -0.27000E+05
 0.51449997E+02 -0.26996E+05
 0.51499996E+02 -0.26998E+05
 0.51549995E+02 -0.27000E+05
 0.51599998E+02 -0.26995E+05
 0.51649998E+02 -0.26996E+05
 0.51699997E+02 -0.26997E+05
 0.51749996E+02 -0.26998E+05
 0.51799995E+02 -0.26998E+05
 0.51849998E+02 -0.26999E+05
 0.51899998E+02 -0.27005E+05
 0.51949997E+02 -0.27007E+05
 0.51999996E+02 -0.26999E+05
 0.52049995E+02 -0.26999E+05
 0.52099998E+02 -0.26999E+05
 0.52149998E+02 -0.26998E+05
 0.52199997E+02 -0.27003E+05
 0.52249996E+02 -0.26998E+05
 0.52299995E+02 -0.27004E+05
 0.52349998E+02 -0.27002E+05
 0.52399998E+02 -0.27000E+05
 0.52449997E+02 -0.27000E+05
 0.52499996E+02 -0.26991E+05
 0.52549995E+02 -0.27002E+05
 0.52599998E+02 -0.27001E+05
 0.52649998E+02 -0.26994E+05
 0.52699997E+02 -0.26998E+05
 0.52749996E+02 -0.27000E+05
 0.52799995E+02 -0.26999E+05
 0.52849998E+02 -0.26998E+05
 0.52899998E+02 -0.27003E+05
 0.52949997E+02 -0.27004E+05
 0.52999996E+02 -0.27006E+05
 0.53049995E+02 -0.27003E+05
 0.53099998E+02 -0.27006E+05
 0.53149998E+02 -0.27013E+05
 0.53199997E+02 -0.27008E+05
 0.53249996E+02 -0.27008E+05
 0.53299995E+02 -0.27008E+05
 0.53349998E+02 -0.27010E+05
 0.53399998E+02 -0.27010E+05
 0.53449997E+02 -0.27009E+05
 0.53499996E+02 -0.27014E+05
 0.53549995E+02 -0.27012E+05
 0.53599998E+02 -0.27010E+05
 0.53649998E+02 -0.27015E+05
 0.53699997E+02 -0.27017E+05
 0.53749996E+02 -0.27016E+05
 0.53799995E+02 -0.27018E+05
 0.53849998E+02 -0.27024E+05
 0.53899998E+02 -0.27027E+05
 0.53949997E+02 -0.27022E+05
 0.53999996E+02 -0.27015E+05
 0.54049995E+02 -0.27023E+05
 0.54099998E+02 -0.27024E+05
 0.54149998E+02 -0.27023E+05
 0.54199997E+02 -0.27027E+05
 0.54249996E+02 -0.27024E+05
 0.54299995E+02 -0.27029E+05
 0.54349998E+02 -0.27026E+05
 0.54399998E+02 -0.27026E+05
 0.54449997E+02 -0.27031E+05
 0.54499996E+02 -0.27024E+05
 0.54549995E+02 -0.27028E+05
 0.54599998E+02 -0.27030E+05
 0.54649998E+02 -0.27035E+05
 0.54699997E+02 -0.27038E+05
 0.54749996E+02 -0.27032E+05
 0.54799995E+02 -0.27038E+05
 0.54849995E+02 -0.27038E+05
 0.54899998E+02 -0.27040E+05
 0.54949997E+02 -0.27037E+05
 0.54999996E+02 -0.27037E+05
 0.55049995E+02 -0.27046E+05
 0.55099995E+02 -0.27043E+05
 0.55149998E+02 -0.27045E+05
 0.55199997E+02 -0.27043E+05
 0.55249996E+02 -0.27049E+05
 0.55299995E+02 -0.27050E+05
 0.55349995E+02 -0.27044E+05
 0.55399998E+02 -0.27050E+05
 0.55449997E+02 -0.27048E+05
 0.55499996E+02 -0.27047E+05
 0.55549995E+02 -0.27047E+05
 0.55599995E+02 -0.27049E+05
 0.55649998E+02 -0.27050E+05
 0.55699997E+02 -0.27048E+05
 0.55749996E+02 -0.27047E+05
 0.55799995E+02 -0.27048E+05
 0.55849995E+02 -0.27052E+05
 0.55899998E+02 -0.27048E+05
 0.55949997E+02 -0.27050E+05
 0.55999996E+02 -0.27052E+05
 0.56049995E+02 -0.27044E+05
 0.56099995E+02 -0.27049E+05
 0.56149998E+02 -0.27048E+05
 0.56199997E+02 -0.27046E+05
 0.56249996E+02 -0.27047E+05
 0.56299995E+02 -0.27043E+05
 0.56349995E+02 -0.27048E+05
 0.56399998E+02 -0.27048E+05
 0.56449997E+02 -0.27044E+05
 0.56499996E+02 -0.27044E+05
 0.56549995E+02 -0.27043E+05
 0.56599995E+02 -0.27043E+05
 0.56649998E+02 -0.27041E+05
 0.56699997E+02 -0.27042E+05
 0.56749996E+02 -0.27045E+05
 0.56799995E+02 -0.27047E+05
 0.56849995E+02 -0.27045E+05
 0.56899998E+02 -0.27040E+05
 0.56949997E+02 -0.27046E+05
 0.56999996E+02 -0.27039E+05
 0.57049995E+02 -0.27037E+05
 0.57099995E+02 -0.27042E+05
 0.57149998E+02 -0.27039E+05
 0.57199997E+02 -0.27048E+05
 0.57249996E+02 -0.27046E+05
 0.57299995E+02 -0.27046E+05
 0.57349995E+02 -0.27048E+05
 0.57399998E+02 -0.27047E+05
 0.57449997E+02 -0.27046E+05
 0.57499996E+02 -0.27041E+05
 0.57549995E+02 -0.27048E+05
 0.57599995E+02 -0.27049E+05
 0.57649998E+02 -0.27045E+05
 0.57699997E+02 -0.27047E+05
 0.57749996E+02 -0.27052E+05
 0.57799995E+02 -0.27046E+05
 0.57849995E+02 -0.27048E+05
 0.57899998E+02 -0.27054E+05
 0.57949997E+02 -0.27048E+05
 0.57999996E+02 -0.27053E+05
 0.58049995E+02 -0.27050E+05
 0.58099995E+02 -0.27052E+05
 0.58149998E+02 -0.27053E+05
 0.58199997E+02 -0.27051E+05
 0.58249996E+02 -0.27057E+05
 0.58299995E+02 -0.27055E+05
 0.58349995E+02 -0.27062E+05
 0.58399998E+02 -0.27060E+05
 0.58449997E+02 -0.27054E+05
 0.58499996E+02 -0.27061E+05
 0.58549995E+02 -0.27060E+05
 0.58599995E+02 -0.27060E+05
 0.58649998E+02 -0.27060E+05
 0.58699997E+02 -0.27063E+05
 0.58749996E+02 -0.27066E+05
 0.58799995E+02 -0.27064E+05
 0.58849995E+02 -0.27064E+05
 0.58899998E+02 -0.27063E+05
 0.58949997E+02 -0.27064E+05
 0.58999996E+02 -0.27062E+05
 0.59049995E+02 -0.27062E+05
 0.59099995E+02 -0.27066E+05
 0.59149998E+02 -0.27066E+05
 0.59199997E+02 -0.27065E+05
 0.59249996E+02 -0.27068E+05
 0.59299995E+02 -0.27070E+05
 0.59349995E+02 -0.27069E+05
 0.59399998E+02 -0.27070E+05
 0.59449997E+02 -0.27071E+05
 0.59499996E+02 -0.27073E+05
 0.59549995E+02 -0.27070E+05
 0.59599995E+02 -0.27069E+05
 0.59649998E+02 -0.27075E+05
 0.59699997E+02 -0.27074E+05
 0.59749996E+02 -0.27074E+05
 0.59799995E+02 -0.27075E+05
 0.59849995E+02 -0.27073E+05
 0.59899998E+02 -0.27077E+05
 0.59949997E+02 -0.27073E+05
 0.59999996E+02 -0.27073E+05
 0.60049995E+02 -0.27078E+05
 0.60099995E+02 -0.27077E+05
 0.60149998E+02 -0.27074E+05
 0.60199997E+02 -0.27069E+05
 0.60249996E+02 -0.27072E+05
 0.60299995E+02 -0.27074E+05
 0.60349995E+02 -0.27073E+05
 0.60399998E+02 -0.27066E+05
 0.60449997E+02 -0.27066E+05
 0.60499996E+02 -0.27065E+05
 0.60549995E+02 -0.27063E+05
 0.60599995E+02 -0.27066E+05
 0.60649998E+02 -0.27060E+05
 0.60699997E+02 -0.27062E+05
 0.60749996E+02 -0.27059E+05
 0.60799995E+02 -0.27054E+05
 0.60849995E+02 -0.27061E+05
 0.60899998E+02 -0.27054E+05
 0.60949997E+02 -0.27052E+05
 0.60999996E+02 -0.27057E+05
 0.61049995E+02 -0.27051E+05
 0.61099998E+02 -0.27046E+05
 0.61149994E+02 -0.27048E+05
 0.61199997E+02 -0.27048E+05
 0.61249992E+02 -0.27046E+05
 0.61299995E+02 -0.27046E+05
 0.61349998E+02 -0.27046E+05
 0.61399994E+02 -0.27046E+05
 0.61449997E+02 -0.27044E+05
 0.61499992E+02 -0.27040E+05
 0.61549995E+02 -0.27042E+05
 0.61599998E+02 -0.27040E+05
 0.61649994E+02 -0.27041E+05
 0.61699997E+02 -0.27041E+05
 0.61749992E+02 -0.27037E+05
 0.61799995E+02 -0.27040E+05
 0.61849998E+02 -0.27042E+05
 0.61899994E+02 -0.27041E+05
 0.61949997E+02 -0.27035E+05
 0.61999992E+02 -0.27036E+05
 0.62049995E+02 -0.27036E+05
 0.62099998E+02 -0.27030E+05
 0.62149994E+02 -0.27033E+05
 0.62199997E+02 -0.27032E+05
 0.62249992E+02 -0.27027E+05
 0.62299995E+02 -0.27032E+05
 0.62349998E+02 -0.27028E+05
 0.62399994E+02 -0.27025E+05
 0.62449997E+02 -0.27027E+05
 0.62499992E+02 -0.27019E+05
 0.62549995E+02 -0.27024E+05
 0.62599998E+02 -0.27025E+05
 0.62649994E+02 -0.27023E+05
 0.62699997E+02 -0.27026E+05
 0.62749992E+02 -0.27025E+05
 0.62799995E+02 -0.27026E+05
 0.62849998E+02 -0.27024E+05
 0.62899994E+02 -0.27025E+05
 0.62949997E+02 -0.27025E+05
 0.62999992E+02 -0.27021E+05
 0.63049995E+02 -0.27014E+05
 0.63099998E+02 -0.27018E+05
 0.63149994E+02 -0.27021E+05
 0.63199997E+02 -0.27013E+05
 0.63249992E+02 -0.27015E+05
 0.63299995E+02 -0.27013E+05
 0.63349998E+02 -0.27013E+05
 0.63399994E+02 -0.27014E+05
 0.63449997E+02 -0.27008E+05
 0.63499992E+02 -0.27017E+05
 0.63549995E+02 -0.27014E+05
 0.63599998E+02 -0.27008E+05
 0.63649994E+02 -0.27017E+05
 0.63699997E+02 -0.27016E+05
 0.63749992E+02 -0.27016E+05
 0.63799995E+02 -0.27016E+05
 0.63849998E+02 -0.27014E+05
 0.63899994E+02 -0.27020E+05
 0.63949997E+02 -0.27017E+05
 0.63999992E+02 -0.27013E+05
 0.64049995E+02 -0.27016E+05
 0.64099998E+02 -0.27020E+05
 0.64149994E+02 -0.27019E+05
 0.64199997E+02 -0.27013E+05
 0.64249992E+02 -0.27020E+05
 0.64299995E+02 -0.27018E+05
 0.64349998E+02 -0.27015E+05
 0.64399994E+02 -0.27017E+05
 0.64449997E+02 -0.27011E+05
 0.64499992E+02 -0.27016E+05
 0.64549995E+02 -0.27011E+05
 0.64599998E+02 -0.27010E+05
 0.64649994E+02 -0.27010E+05
 0.64699997E+02 -0.27006E+05
 0.64749992E+02 -0.27014E+05
 0.64799995E+02 -0.27009E+05
 0.64849998E+02 -0.27007E+05
 0.64899994E+02 -0.27008E+05
 0.64949997E+02 -0.27003E+05
 0.64999992E+02 -0.27005E+05
 0.65049995E+02 -0.27004E+05
 0.65099998E+02 -0.27005E+05
 0.65149994E+02 -0.27005E+05
 0.65199997E+02 -0.27003E+05
 0.65249992E+02 -0.27008E+05
 0.65299995E+02 -0.27006E+05
 0.65349998E+02 -0.27002E+05
 0.65399994E+02 -0.27004E+05
 0.65449997E+02 -0.27009E+05
 0.65499992E+02 -0.27009E+05
 0.65549995E+02 -0.27006E+05
 0.65599998E+02 -0.27007E+05
 0.65649994E+02 -0.27007E+05
 0.65699997E+02 -0.27008E+05
 0.65749992E+02 -0.27004E+05
 0.65799995E+02 -0.27006E+05
 0.65849998E+02 -0.27010E+05
 0.65899994E+02 -0.27008E+05
 0.65949997E+02 -0.27004E+05
 0.65999992E+02 -0.27007E+05
 0.66049995E+02 -0.27009E+05
 0.66099998E+02 -0.27008E+05
 0.66149994E+02 -0.27012E+05
 0.66199997E+02 -0.27011E+05
 0.66249992E+02 -0.27012E+05
 0.66299995E+02 -0.27010E+05
 0.66349998E+02 -0.27010E+05
 0.66399994E+02 -0.27017E+05
 0.66449997E+02 -0.27009E+05
 0.66499992E+02 -0.27009E+05
 0.66549995E+02 -0.27010E+05
 0.66599998E+02 -0.27006E+05
 0.66649994E+02 -0.27009E+05
 0.66699997E+02 -0.27010E+05
 0.66749992E+02 -0.27008E+05
 0.66799995E+02 -0.27008E+05
 0.66849998E+02 -0.27011E+05
 0.66899994E+02 -0.27011E+05
 0.66949997E+02 -0.27013E+05
 0.66999992E+02 -0.27011E+05
 0.67049995E+02 -0.27009E+05
 0.67099998E+02 -0.27010E+05
 0.67149994E+02 -0.27018E+05
 0.67199997E+02 -0.27020E+05
 0.67249992E+02 -0.27014E+05
 0.67299995E+02 -0.27017E+05
 0.67349998E+02 -0.27014E+05
 0.67399994E+02 -0.27016E+05
 0.67449997E+02 -0.27017E+05
 0.67499992E+02 -0.27014E+05
 0.67549995E+02 -0.27017E+05
 0.67599998E+02 -0.27020E+05
 0.67649994E+02 -0.27015E+05
 0.67699997E+02 -0.27014E+05
 0.67749992E+02 -0.27017E+05
 0.67799995E+02 -0.27014E+05
 0.67849998E+02 -0.27013E+05
 0.67899994E+02 -0.27019E+05
 0.67949997E+02 -0.27020E+05
 0.67999992E+02 -0.27014E+05
 0.68049995E+02 -0.27014E+05
 0.68099998E+02 -0.27017E+05
 0.68149994E+02 -0.27018E+05
 0.68199997E+02 -0.27018E+05
 0.68249992E+02 -0.27019E+05
 0.68299995E+02 -0.27020E+05
 0.68349998E+02 -0.27019E+05
 0.68399994E+02 -0.27022E+05
 0.68449997E+02 -0.27021E+05
 0.68499992E+02 -0.27024E+05
 0.68549995E+02 -0.27025E+05
 0.68599998E+02 -0.27023E+05
 0.68649994E+02 -0.27031E+05
 0.68699997E+02 -0.27028E+05
 0.68749992E+02 -0.27027E+05
 0.68799995E+02 -0.27028E+05
 0.68849998E+02 -0.27029E+05
 0.68899994E+02 -0.27036E+05
 0.68949997E+02 -0.27028E+05
 0.68999992E+02 -0.27031E+05
 0.69049995E+02 -0.27036E+05
 0.69099998E+02 -0.27036E+05
 0.69149994E+02 -0.27040E+05
 0.69199997E+02 -0.27035E+05
 0.69249992E+02 -0.27036E+05
 0.69299995E+02 -0.27037E+05
 0.69349998E+02 -0.27035E+05
 0.69399994E+02 -0.27034E+05
 0.69449997E+02 -0.27034E+05
 0.69499992E+02 -0.27041E+05
 0.69549995E+02 -0.27039E+05
 0.69599998E+02 -0.27036E+05
 0.69649994E+02 -0.27044E+05
 0.69699997E+02 -0.27039E+05
 0.69749992E+02 -0.27037E+05
 0.69799995E+02 -0.27046E+05
 0.69849998E+02 -0.27042E+05
 0.69899994E+02 -0.27042E+05
 0.69949997E+02 -0.27043E+05
 0.69999992E+02 -0.27043E+05
 0.70049995E+02 -0.27043E+05
 0.70099998E+02 -0.27045E+05
 0.70149994E+02 -0.27045E+05
 0.70199997E+02 -0.27043E+05
 0.70249992E+02 -0.27050E+05
 0.70299995E+02 -0.27042E+05
 0.70349998E+02 -0.27039E+05
 0.70399994E+02 -0.27043E+05
 0.70449997E+02 -0.27043E+05
 0.70499992E+02 -0.27042E+05
 0.70549995E+02 -0.27039E+05
 0.70599998E+02 -0.27045E+05
 0.70649994E+02 -0.27040E+05
 0.70699997E+02 -0.27036E+05
 0.70749992E+02 -0.27044E+05
 0.70799995E+02 -0.27042E+05
 0.70849998E+02 -0.27043E+05
 0.70899994E+02 -0.27040E+05
 0.70949997E+02 -0.27040E+05
 0.70999992E+02 -0.27048E+05
 0.71049995E+02 -0.27045E+05
 0.71099998E+02 -0.27041E+05
 0.71149994E+02 -0.27043E+05
 0.71199997E+02 -0.27044E+05
 0.71249992E+02 -0.27045E+05
 0.71299995E+02 -0.27041E+05
 0.71349998E+02 -0.27041E+05
 0.71399994E+02 -0.27044E+05
 0.71449997E+02 -0.27043E+05
 0.71499992E+02 -0.27042E+05
 0.71549995E+02 -0.27040E+05
 0.71599998E+02 -0.27040E+05
 0.71649994E+02 -0.27043E+05
 0.71699997E+02 -0.27045E+05
 0.71749992E+02 -0.27044E+05
 0.71799995E+02 -0.27045E+05
 0.71849998E+02 -0.27046E+05
 0.71899994E+02 -0.27046E+05
 0.71949997E+02 -0.27048E+05
 0.71999992E+02 -0.27047E+05
 0.72049995E+02 -0.27041E+05
 0.72099998E+02 -0.27046E+05
 0.72149994E+02 -0.27049E+05
 0.72199997E+02 -0.27045E+05
 0.72249992E+02 -0.27051E+05
 0.72299995E+02 -0.27050E+05
 0.72349998E+02 -0.27047E+05
 0.72399994E+02 -0.27050E+05
 0.72449997E+02 -0.27047E+05
 0.72499992E+02 -0.27050E+05
 0.72549995E+02 -0.27052E+05
 0.72599998E+02 -0.27051E+05
 0.72649994E+02 -0.27049E+05
 0.72699997E+02 -0.27049E+05
 0.72749992E+02 -0.27054E+05
 0.72799995E+02 -0.27051E+05
 0.72849998E+02 -0.27047E+05
 0.72899994E+02 -0.27046E+05
 0.72949997E+02 -0.27047E+05
 0.72999992E+02 -0.27048E+05
 0.73049995E+02 -0.27043E+05
 0.73099998E+02 -0.27045E+05
 0.73149994E+02 -0.27047E+05
 0.73199997E+02 -0.27042E+05
 0.73249992E+02 -0.27042E+05
 0.73299995E+02 -0.27044E+05
 0.73349998E+02 -0.27040E+05
 0.73399994E+02 -0.27038E+05
 0.73449997E+02 -0.27040E+05
 0.73499992E+02 -0.27034E+05
 0.73549995E+02 -0.27037E+05
 0.73599998E+02 -0.27041E+05
 0.73649994E+02 -0.27039E+05
 0.73699997E+02 -0.27037E+05
 0.73749992E+02 -0.27036E+05
 0.73799995E+02 -0.27035E+05
 0.73849998E+02 -0.27037E+05
 0.73899994E+02 -0.27042E+05
 0.73949997E+02 -0.27036E+05
 0.73999992E+02 -0.27036E+05
 0.74049995E+02 -0.27044E+05
 0.74099998E+02 -0.27038E+05
 0.74149994E+02 -0.27035E+05
 0.74199997E+02 -0.27043E+05
 0.74249992E+02 -0.27043E+05
 0.74299995E+02 -0.27041E+05
 0.74349998E+02 -0.27043E+05
 0.74399994E+02 -0.27047E+05
 0.74449997E+02 -0.27051E+05
 0.74499992E+02 -0.27047E+05
 0.74549995E+02 -0.27043E+05
 0.74599998E+02 -0.27046E+05
 0.74649994E+02 -0.27049E+05
 0.74699997E+02 -0.27047E+05
 0.74749992E+02 -0.27049E+05
 0.74799995E+02 -0.27053E+05
 0.74849998E+02 -0.27053E+05
 0.74899994E+02 -0.27048E+05
 0.74949997E+02 -0.27047E+05
 0.74999992E+02 -0.27053E+05
 0.75049995E+02 -0.27049E+05
 0.75099998E+02 -0.27052E+05
 0.75149994E+02 -0.27057E+05
 0.75199997E+02 -0.27052E+05
 0.75249992E+02 -0.27054E+05
 0.75299995E+02 -0.27053E+05
 0.75349998E+02 -0.27054E+05
 0.75399994E+02 -0.27052E+05
 0.75449997E+02 -0.27052E+05
 0.75499992E+02 -0.27056E+05
 0.75549995E+02 -0.27056E+05
 0.75599998E+02 -0.27058E+05
 0.75649994E+02 -0.27058E+05
 0.75699997E+02 -0.27054E+05
 0.75749992E+02 -0.27058E+05
 0.75799995E+02 -0.27064E+05
 0.75849998E+02 -0.27065E+05
 0.75899994E+02 -0.27070E+05
 0.75949997E+02 -0.27076E+05
 0.75999992E+02 -0.27081E+05
 0.76049995E+02 -0.27085E+05
 0.76099998E+02 -0.27087E+05
 0.76149994E+02 -0.27094E+05
 0.76199997E+02 -0.27100E+05
 0.76249992E+02 -0.27101E+05
 0.76299995E+02 -0.27100E+05
 0.76349998E+02 -0.27098E+05
 0.76399994E+02 -0.27098E+05
 0.76449997E+02 -0.27086E+05
 0.76499992E+02 -0.27078E+05
 0.76549995E+02 -0.27072E+05
 0.76599998E+02 -0.27062E+05
 0.76649994E+02 -0.27050E+05
 0.76699997E+02 -0.27034E+05
 0.76749992E+02 -0.27027E+05
 0.76799995E+02 -0.27011E+05
 0.76849998E+02 -0.27001E+05
 0.76899994E+02 -0.26994E+05
 0.76949997E+02 -0.26990E+05
 0.76999992E+02 -0.26983E+05
 0.77049995E+02 -0.26977E+05
 0.77099998E+02 -0.26989E+05
 0.77149994E+02 -0.26993E+05
 0.77199997E+02 -0.27000E+05
 0.77249992E+02 -0.27016E+05
 0.77299995E+02 -0.27028E+05
 0.77349998E+02 -0.27036E+05
 0.77399994E+02 -0.27057E+05
 0.77449997E+02 -0.27079E+05
 0.77499992E+02 -0.27090E+05
 0.77549995E+02 -0.27101E+05
 0.77599998E+02 -0.27112E+05
 0.77649994E+02 -0.27129E+05
 0.77699997E+02 -0.27134E+05
 0.77749992E+02 -0.27130E+05
 0.77799995E+02 -0.27130E+05
 0.77849998E+02 -0.27151E+05
 0.77899994E+02 -0.27171E+05
 0.77949997E+02 -0.27179E+05
 0.77999992E+02 -0.27197E+05
 0.78049995E+02 -0.27218E+05
 0.78099998E+02 -0.27245E+05
 0.78149994E+02 -0.27250E+05
 0.78199997E+02 -0.27238E+05
 0.78249992E+02 -0.27230E+05
 0.78299995E+02 -0.27205E+05
 0.78349998E+02 -0.27141E+05
 0.78399994E+02 -0.27037E+05
 0.78449997E+02 -0.26942E+05
 0.78499992E+02 -0.26857E+05
 0.78549995E+02 -0.26772E+05
 0.78599998E+02 -0.26687E+05
 0.78649994E+02 -0.26608E+05
 0.78699997E+02 -0.26565E+05
 0.78749992E+02 -0.26532E+05
 0.78799995E+02 -0.26508E+05
 0.78849998E+02 -0.26548E+05
 0.78899994E+02 -0.26647E+05
 0.78949997E+02 -0.26765E+05
 0.78999992E+02 -0.26883E+05
 0.79049995E+02 -0.27008E+05
 0.79099998E+02 -0.27137E+05
 0.79149994E+02 -0.27227E+05
 0.79199997E+02 -0.27291E+05
 0.79249992E+02 -0.27372E+05
 0.79299995E+02 -0.27444E+05
 0.79349998E+02 -0.27459E+05
 0.79399994E+02 -0.27449E+05
 0.79449997E+02 -0.27447E+05
 0.79499992E+02 -0.27404E+05
 0.79549995E+02 -0.27342E+05
 0.79599998E+02 -0.27333E+05
 0.79649994E+02 -0.27342E+05
 0.79699997E+02 -0.27292E+05
 0.79749992E+02 -0.27213E+05
 0.79799995E+02 -0.27161E+05
 0.79849998E+02 -0.27096E+05
 0.79899994E+02 -0.27012E+05
 0.79949997E+02 -0.26964E+05
 0.79999992E+02 -0.26926E+05
 0.80049995E+02 -0.26854E+05
 0.80099998E+02 -0.26745E+05
 0.80149994E+02 -0.26634E+05
 0.80199997E+02 -0.26577E+05
 0.80249992E+02 -0.26576E+05
 0.80299995E+02 -0.26635E+05
 0.80349998E+02 -0.26711E+05
 0.80399994E+02 -0.26706E+05
 0.80449997E+02 -0.26614E+05
 0.80499992E+02 -0.26530E+05
 0.80549995E+02 -0.26557E+05
 0.80599998E+02 -0.26705E+05
 0.80649994E+02 -0.26947E+05
 0.80699997E+02 -0.27216E+05
 0.80749992E+02 -0.27421E+05
 0.80799995E+02 -0.27508E+05
 0.80849998E+02 -0.27480E+05
 0.80899994E+02 -0.27419E+05
 0.80949997E+02 -0.27395E+05
 0.80999992E+02 -0.27394E+05
 0.81049995E+02 -0.27362E+05
 0.81099998E+02 -0.27334E+05
 0.81149994E+02 -0.27330E+05
 0.81199997E+02 -0.27289E+05
 0.81249992E+02 -0.27233E+05
 0.81299995E+02 -0.27186E+05
 0.81349998E+02 -0.27123E+05
 0.81399994E+02 -0.27021E+05
 0.81449997E+02 -0.26903E+05
 0.81499992E+02 -0.26845E+05
 0.81549995E+02 -0.26837E+05
 0.81599998E+02 -0.26822E+05
 0.81649994E+02 -0.26832E+05
 0.81699997E+02 -0.26905E+05
 0.81749992E+02 -0.26979E+05
 0.81799995E+02 -0.26993E+05
 0.81849998E+02 -0.26964E+05
 0.81899994E+02 -0.26989E+05
 0.81949997E+02 -0.27174E+05
 0.81999992E+02 -0.27417E+05
 0.82049995E+02 -0.27510E+05
 0.82099998E+02 -0.27415E+05
 0.82149994E+02 -0.27261E+05
 0.82199997E+02 -0.27213E+05
 0.82249992E+02 -0.27350E+05
 0.82299995E+02 -0.27601E+05
 0.82349998E+02 -0.27797E+05
 0.82399994E+02 -0.27932E+05
 0.82449997E+02 -0.28080E+05
 0.82499992E+02 -0.28136E+05
 0.82549995E+02 -0.28018E+05
 0.82599998E+02 -0.27798E+05
 0.82649994E+02 -0.27597E+05
 0.82699997E+02 -0.27381E+05
 0.82749992E+02 -0.27037E+05
 0.82799995E+02 -0.26701E+05
 0.82849998E+02 -0.26542E+05
 0.82899994E+02 -0.26385E+05
 0.82949997E+02 -0.26068E+05
 0.82999992E+02 -0.25849E+05
 0.83049995E+02 -0.25878E+05
 0.83099998E+02 -0.26076E+05
 0.83149994E+02 -0.26458E+05
 0.83199997E+02 -0.26841E+05
 0.83249992E+02 -0.26925E+05
 0.83299995E+02 -0.26762E+05
 0.83349998E+02 -0.26735E+05
 0.83399994E+02 -0.27006E+05
 0.83449997E+02 -0.27297E+05
 0.83499992E+02 -0.27407E+05
 0.83549995E+02 -0.27500E+05
 0.83599998E+02 -0.27698E+05
 0.83649994E+02 -0.27796E+05
 0.83699997E+02 -0.27612E+05
 0.83749992E+02 -0.27248E+05
 0.83799995E+02 -0.26871E+05
 0.83849998E+02 -0.26489E+05
 0.83899994E+02 -0.26231E+05
 0.83949997E+02 -0.26368E+05
 0.83999992E+02 -0.26740E+05
 0.84049995E+02 -0.26994E+05
 0.84099998E+02 -0.27015E+05
 0.84149994E+02 -0.26836E+05
 0.84199997E+02 -0.26604E+05
 0.84249992E+02 -0.26422E+05
 0.84299995E+02 -0.26336E+05
 0.84349998E+02 -0.26402E+05
 0.84399994E+02 -0.26611E+05
 0.84449997E+02 -0.26811E+05
 0.84499992E+02 -0.26762E+05
 0.84549995E+02 -0.26417E+05
 0.84599998E+02 -0.25986E+05
 0.84649994E+02 -0.25745E+05
 0.84699997E+02 -0.25799E+05
 0.84749992E+02 -0.26142E+05
 0.84799995E+02 -0.26678E+05
 0.84849998E+02 -0.27073E+05
 0.84899994E+02 -0.27144E+05
 0.84949997E+02 -0.27026E+05
 0.84999992E+02 -0.26915E+05
 0.85049995E+02 -0.26870E+05
 0.85099998E+02 -0.26880E+05
 0.85149994E+02 -0.27062E+05
 0.85199997E+02 -0.27445E+05
 0.85249992E+02 -0.27865E+05
 0.85299995E+02 -0.28163E+05
 0.85349998E+02 -0.28392E+05
 0.85399994E+02 -0.28476E+05
 0.85449997E+02 -0.28234E+05
 0.85499992E+02 -0.27884E+05
 0.85549995E+02 -0.27682E+05
 0.85599998E+02 -0.27741E+05
 0.85649994E+02 -0.28084E+05
 0.85699997E+02 -0.28571E+05
 0.85749992E+02 -0.28904E+05
 0.85799995E+02 -0.28752E+05
 0.85849998E+02 -0.27982E+05
 0.85899994E+02 -0.26782E+05
 0.85949997E+02 -0.25695E+05
 0.85999992E+02 -0.25094E+05
 0.86049995E+02 -0.25025E+05
 0.86099998E+02 -0.25337E+05
 0.86149994E+02 -0.25514E+05
 0.86199997E+02 -0.25243E+05
 0.86249992E+02 -0.24705E+05
 0.86299995E+02 -0.24216E+05
 0.86349998E+02 -0.24089E+05
 0.86399994E+02 -0.24493E+05
 0.86449997E+02 -0.25251E+05
 0.86499992E+02 -0.26035E+05
 0.86549995E+02 -0.26644E+05
 0.86599991E+02 -0.27078E+05
 0.86649994E+02 -0.27585E+05
 0.86699997E+02 -0.28371E+05
 0.86749992E+02 -0.29143E+05
 0.86799995E+02 -0.29505E+05
 0.86849991E+02 -0.29400E+05
 0.86899994E+02 -0.28808E+05
 0.86949997E+02 -0.27858E+05
 0.86999992E+02 -0.26915E+05
 0.87049995E+02 -0.26292E+05
 0.87099991E+02 -0.26060E+05
 0.87149994E+02 -0.26081E+05
 0.87199997E+02 -0.26243E+05
 0.87249992E+02 -0.26444E+05
 0.87299995E+02 -0.26735E+05
 0.87349991E+02 -0.27169E+05
 0.87399994E+02 -0.27598E+05
 0.87449997E+02 -0.27950E+05
 0.87499992E+02 -0.28218E+05
 0.87549995E+02 -0.28462E+05
 0.87599991E+02 -0.28732E+05
 0.87649994E+02 -0.29036E+05
 0.87699997E+02 -0.29352E+05
 0.87749992E+02 -0.29530E+05
 0.87799995E+02 -0.29535E+05
 0.87849991E+02 -0.29213E+05
 0.87899994E+02 -0.28266E+05
 0.87949997E+02 -0.26959E+05
 0.87999992E+02 -0.26170E+05
 0.88049995E+02 -0.26266E+05
 0.88099991E+02 -0.26570E+05
 0.88149994E+02 -0.26447E+05
 0.88199997E+02 -0.26090E+05
 0.88249992E+02 -0.25989E+05
 0.88299995E+02 -0.26267E+05
 0.88349991E+02 -0.26707E+05
 0.88399994E+02 -0.26973E+05
 0.88449997E+02 -0.26990E+05
 0.88499992E+02 -0.27006E+05
 0.88549995E+02 -0.27021E+05
 0.88599991E+02 -0.26911E+05
 0.88649994E+02 -0.26646E+05
 0.88699997E+02 -0.26128E+05
 0.88749992E+02 -0.25277E+05
 0.88799995E+02 -0.24330E+05
 0.88849991E+02 -0.23655E+05
 0.88899994E+02 -0.23315E+05
 0.88949997E+02 -0.23100E+05
 0.88999992E+02 -0.22872E+05
 0.89049995E+02 -0.22887E+05
 0.89099991E+02 -0.23453E+05
 0.89149994E+02 -0.24533E+05
 0.89199997E+02 -0.25912E+05
 0.89249992E+02 -0.27451E+05
 0.89299995E+02 -0.29097E+05
 0.89349991E+02 -0.30681E+05
 0.89399994E+02 -0.31933E+05
 0.89449997E+02 -0.32495E+05
 0.89499992E+02 -0.32191E+05
 0.89549995E+02 -0.31423E+05
 0.89599991E+02 -0.30775E+05
 0.89649994E+02 -0.30320E+05
 0.89699997E+02 -0.29621E+05
 0.89749992E+02 -0.28375E+05
 0.89799995E+02 -0.26747E+05
 0.89849991E+02 -0.25160E+05
 0.89899994E+02 -0.24050E+05
 0.89949997E+02 -0.23710E+05
 0.89999992E+02 -0.24220E+05
 0.90049995E+02 -0.25205E+05
 0.90099991E+02 -0.25821E+05
 0.90149994E+02 -0.25579E+05
 0.90199997E+02 -0.24818E+05
 0.90249992E+02 -0.24073E+05
 0.90299995E+02 -0.23959E+05
 0.90349991E+02 -0.25001E+05
 0.90399994E+02 -0.26897E+05
 0.90449997E+02 -0.28789E+05
 0.90499992E+02 -0.29885E+05
 0.90549995E+02 -0.29848E+05
 0.90599991E+02 -0.28945E+05
 0.90649994E+02 -0.27755E+05
 0.90699997E+02 -0.26738E+05
 0.90749992E+02 -0.25927E+05
 0.90799995E+02 -0.25296E+05
 0.90849991E+02 -0.25096E+05
 0.90899994E+02 -0.25687E+05
 0.90949997E+02 -0.27200E+05
 0.90999992E+02 -0.29229E+05
 0.91049995E+02 -0.31233E+05
 0.91099991E+02 -0.32671E+05
 0.91149994E+02 -0.33056E+05
 0.91199997E+02 -0.32260E+05
 0.91249992E+02 -0.30588E+05
 0.91299995E+02 -0.28805E+05
 0.91349991E+02 -0.27425E+05
 0.91399994E+02 -0.26481E+05
 0.91449997E+02 -0.25829E+05
 0.91499992E+02 -0.25526E+05
 0.91549995E+02 -0.25705E+05
 0.91599991E+02 -0.25854E+05
 0.91649994E+02 -0.25265E+05
 0.91699997E+02 -0.23929E+05
 0.91749992E+02 -0.22656E+05
 0.91799995E+02 -0.22024E+05
 0.91849991E+02 -0.22199E+05
 0.91899994E+02 -0.23328E+05
 0.91949997E+02 -0.24797E+05
 0.91999992E+02 -0.25722E+05
 0.92049995E+02 -0.26175E+05
 0.92099991E+02 -0.26609E+05
 0.92149994E+02 -0.26946E+05
 0.92199997E+02 -0.27184E+05
 0.92249992E+02 -0.27440E+05
 0.92299995E+02 -0.27376E+05
 0.92349991E+02 -0.26786E+05
 0.92399994E+02 -0.26105E+05
 0.92449997E+02 -0.25810E+05
 0.92499992E+02 -0.26016E+05
 0.92549995E+02 -0.26547E+05
 0.92599991E+02 -0.26965E+05
 0.92649994E+02 -0.27406E+05
 0.92699997E+02 -0.28419E+05
 0.92749992E+02 -0.29954E+05
 0.92799995E+02 -0.31568E+05
 0.92849991E+02 -0.32739E+05
 0.92899994E+02 -0.32996E+05
 0.92949997E+02 -0.32269E+05
 0.92999992E+02 -0.31119E+05
 0.93049995E+02 -0.30305E+05
 0.93099991E+02 -0.29971E+05
 0.93149994E+02 -0.29551E+05
 0.93199997E+02 -0.28782E+05
 0.93249992E+02 -0.28062E+05
 0.93299995E+02 -0.27655E+05
 0.93349991E+02 -0.27534E+05
 0.93399994E+02 -0.27459E+05
 0.93449997E+02 -0.27038E+05
 0.93499992E+02 -0.26494E+05
 0.93549995E+02 -0.26477E+05
 0.93599991E+02 -0.26547E+05
 0.93649994E+02 -0.25965E+05
 0.93699997E+02 -0.25334E+05
 0.93749992E+02 -0.25366E+05
 0.93799995E+02 -0.25674E+05
 0.93849991E+02 -0.25731E+05
 0.93899994E+02 -0.25788E+05
 0.93949997E+02 -0.26109E+05
 0.93999992E+02 -0.26287E+05
 0.94049995E+02 -0.25973E+05
 0.94099991E+02 -0.25428E+05
 0.94149994E+02 -0.24917E+05
 0.94199997E+02 -0.24508E+05
 0.94249992E+02 -0.24329E+05
 0.94299995E+02 -0.24449E+05
 0.94349991E+02 -0.24859E+05
 0.94399994E+02 -0.25069E+05
 0.94449997E+02 -0.24842E+05
 0.94499992E+02 -0.24588E+05
 0.94549995E+02 -0.24444E+05
 0.94599991E+02 -0.24555E+05
 0.94649994E+02 -0.25108E+05
 0.94699997E+02 -0.26200E+05
 0.94749992E+02 -0.27567E+05
 0.94799995E+02 -0.28479E+05
 0.94849991E+02 -0.28692E+05
 0.94899994E+02 -0.28585E+05
 0.94949997E+02 -0.28639E+05
 0.94999992E+02 -0.28985E+05
 0.95049995E+02 -0.29433E+05
 0.95099991E+02 -0.29628E+05
 0.95149994E+02 -0.29351E+05
 0.95199997E+02 -0.28665E+05
 0.95249992E+02 -0.27605E+05
 0.95299995E+02 -0.26700E+05
 0.95349991E+02 -0.26454E+05
 0.95399994E+02 -0.26657E+05
 0.95449997E+02 -0.27135E+05
 0.95499992E+02 -0.27699E+05
 0.95549995E+02 -0.28240E+05
 0.95599991E+02 -0.28701E+05
 0.95649994E+02 -0.28728E+05
 0.95699997E+02 -0.28144E+05
 0.95749992E+02 -0.27195E+05
 0.95799995E+02 -0.26488E+05
 0.95849991E+02 -0.26283E+05
 0.95899994E+02 -0.26340E+05
 0.95949997E+02 -0.26480E+05
 0.95999992E+02 -0.26352E+05
 0.96049995E+02 -0.25694E+05
 0.96099991E+02 -0.25141E+05
 0.96149994E+02 -0.25437E+05
 0.96199997E+02 -0.26297E+05
 0.96249992E+02 -0.27339E+05
 0.96299995E+02 -0.28273E+05
 0.96349991E+02 -0.28560E+05
 0.96399994E+02 -0.28247E+05
 0.96449997E+02 -0.27927E+05
 0.96499992E+02 -0.27981E+05
 0.96549995E+02 -0.27929E+05
 0.96599991E+02 -0.27227E+05
 0.96649994E+02 -0.26248E+05
 0.96699997E+02 -0.25500E+05
 0.96749992E+02 -0.25236E+05
 0.96799995E+02 -0.25467E+05
 0.96849991E+02 -0.25761E+05
 0.96899994E+02 -0.25804E+05
 0.96949997E+02 -0.25428E+05
 0.96999992E+02 -0.24782E+05
 0.97049995E+02 -0.24770E+05
 0.97099991E+02 -0.25532E+05
 0.97149994E+02 -0.26451E+05
 0.97199997E+02 -0.27718E+05
 0.97249992E+02 -0.29521E+05
 0.97299995E+02 -0.31104E+05
 0.97349991E+02 -0.31760E+05
 0.97399994E+02 -0.31553E+05
 0.97449997E+02 -0.30616E+05
 0.97499992E+02 -0.29137E+05
 0.97549995E+02 -0.27696E+05
 0.97599991E+02 -0.26485E+05
 0.97649994E+02 -0.25251E+05
 0.97699997E+02 -0.23931E+05
 0.97749992E+02 -0.22682E+05
 0.97799995E+02 -0.21841E+05
 0.97849991E+02 -0.21867E+05
 0.97899994E+02 -0.22843E+05
 0.97949997E+02 -0.24602E+05
 0.97999992E+02 -0.26962E+05
 0.98049995E+02 -0.29097E+05
 0.98099991E+02 -0.30311E+05
 0.98149994E+02 -0.30963E+05
 0.98199997E+02 -0.31493E+05
 0.98249992E+02 -0.31715E+05
 0.98299995E+02 -0.31411E+05
 0.98349991E+02 -0.30917E+05
 0.98399994E+02 -0.30545E+05
 0.98449997E+02 -0.30103E+05
 0.98499992E+02 -0.29338E+05
 0.98549995E+02 -0.27931E+05
 0.98599991E+02 -0.25658E+05
 0.98649994E+02 -0.23370E+05
 0.98699997E+02 -0.22279E+05
 0.98749992E+02 -0.22599E+05
 0.98799995E+02 -0.23807E+05
 0.98849991E+02 -0.25143E+05
 0.98899994E+02 -0.26081E+05
 0.98949997E+02 -0.26281E+05
 0.98999992E+02 -0.25673E+05
 0.99049995E+02 -0.25004E+05
 0.99099991E+02 -0.25235E+05
 0.99149994E+02 -0.26736E+05
 0.99199997E+02 -0.29045E+05
 0.99249992E+02 -0.31048E+05
 0.99299995E+02 -0.31595E+05
 0.99349991E+02 -0.30404E+05
 0.99399994E+02 -0.28232E+05
 0.99449997E+02 -0.25936E+05
 0.99499992E+02 -0.24302E+05
 0.99549995E+02 -0.23971E+05
 0.99599991E+02 -0.24637E+05
 0.99649994E+02 -0.25376E+05
 0.99699997E+02 -0.25644E+05
 0.99749992E+02 -0.25566E+05
 0.99799995E+02 -0.25744E+05
 0.99849991E+02 -0.26769E+05
 0.99899994E+02 -0.28666E+05
 0.99949997E+02 -0.30827E+05
 0.99999992E+02 -0.32621E+05
 0.10005000E+03 -0.33697E+05
 0.10009999E+03 -0.33500E+05
 0.10014999E+03 -0.31967E+05
 0.10020000E+03 -0.30040E+05
 0.10024999E+03 -0.28269E+05
 0.10030000E+03 -0.26335E+05
 0.10034999E+03 -0.24350E+05
 0.10039999E+03 -0.23106E+05
 0.10045000E+03 -0.22567E+05
 0.10049999E+03 -0.22012E+05
 0.10055000E+03 -0.21404E+05
 0.10059999E+03 -0.21288E+05
 0.10064999E+03 -0.22207E+05
 0.10070000E+03 -0.23843E+05
 0.10074999E+03 -0.25394E+05
 0.10080000E+03 -0.26750E+05
 0.10084999E+03 -0.27667E+05
 0.10089999E+03 -0.27811E+05
 0.10095000E+03 -0.27442E+05
 0.10099999E+03 -0.26931E+05
 0.10105000E+03 -0.26435E+05
 0.10109999E+03 -0.25664E+05
 0.10114999E+03 -0.24693E+05
 0.10120000E+03 -0.24321E+05
 0.10124999E+03 -0.24927E+05
 0.10130000E+03 -0.26127E+05
 0.10134999E+03 -0.27347E+05
 0.10139999E+03 -0.28318E+05
 0.10145000E+03 -0.29209E+05
 0.10149999E+03 -0.30171E+05
 0.10155000E+03 -0.31335E+05
 0.10159999E+03 -0.32990E+05
 0.10164999E+03 -0.34866E+05
 0.10170000E+03 -0.36041E+05
 0.10174999E+03 -0.35814E+05
 0.10180000E+03 -0.34508E+05
 0.10184999E+03 -0.33040E+05
 0.10189999E+03 -0.31751E+05
 0.10195000E+03 -0.30527E+05
 0.10199999E+03 -0.29374E+05
 0.10205000E+03 -0.27933E+05
 0.10209999E+03 -0.25801E+05
 0.10214999E+03 -0.23688E+05
 0.10220000E+03 -0.22592E+05
 0.10224999E+03 -0.22178E+05
 0.10230000E+03 -0.21520E+05
 0.10234999E+03 -0.20731E+05
 0.10239999E+03 -0.20330E+05
 0.10245000E+03 -0.20570E+05
 0.10249999E+03 -0.21728E+05
 0.10255000E+03 -0.23638E+05
 0.10259999E+03 -0.25298E+05
 0.10264999E+03 -0.25820E+05
 0.10270000E+03 -0.25671E+05
 0.10274999E+03 -0.25583E+05
 0.10280000E+03 -0.25599E+05
 0.10284999E+03 -0.25414E+05
 0.10289999E+03 -0.24974E+05
 0.10295000E+03 -0.24614E+05
 0.10299999E+03 -0.24746E+05
 0.10305000E+03 -0.25801E+05
 0.10309999E+03 -0.27081E+05
 0.10314999E+03 -0.27464E+05
 0.10320000E+03 -0.26848E+05
 0.10324999E+03 -0.25963E+05
 0.10330000E+03 -0.25869E+05
 0.10334999E+03 -0.26761E+05
 0.10339999E+03 -0.28146E+05
 0.10345000E+03 -0.29584E+05
 0.10349999E+03 -0.30546E+05
 0.10355000E+03 -0.30568E+05
 0.10359999E+03 -0.29647E+05
 0.10364999E+03 -0.28036E+05
 0.10370000E+03 -0.26116E+05
 0.10374999E+03 -0.25032E+05
 0.10380000E+03 -0.25554E+05
 0.10384999E+03 -0.26919E+05
 0.10389999E+03 -0.28003E+05
 0.10395000E+03 -0.28516E+05
 0.10399999E+03 -0.28551E+05
 0.10405000E+03 -0.27980E+05
 0.10409999E+03 -0.27247E+05
 0.10414999E+03 -0.27381E+05
 0.10420000E+03 -0.28499E+05
 0.10424999E+03 -0.29748E+05
 0.10430000E+03 -0.30301E+05
 0.10434999E+03 -0.29526E+05
 0.10439999E+03 -0.27712E+05
 0.10445000E+03 -0.25782E+05
 0.10449999E+03 -0.23969E+05
 0.10455000E+03 -0.22447E+05
 0.10459999E+03 -0.21920E+05
 0.10464999E+03 -0.22525E+05
 0.10470000E+03 -0.23333E+05
 0.10474999E+03 -0.23775E+05
 0.10480000E+03 -0.24229E+05
 0.10484999E+03 -0.25036E+05
 0.10489999E+03 -0.26061E+05
 0.10495000E+03 -0.26829E+05
 0.10499999E+03 -0.27203E+05
 0.10505000E+03 -0.27775E+05
 0.10509999E+03 -0.28967E+05
 0.10514999E+03 -0.30397E+05
 0.10520000E+03 -0.31341E+05
 0.10524999E+03 -0.31155E+05
 0.10530000E+03 -0.29880E+05
 0.10534999E+03 -0.28355E+05
 0.10539999E+03 -0.27433E+05
 0.10545000E+03 -0.27375E+05
 0.10549999E+03 -0.27568E+05
 0.10555000E+03 -0.27575E+05
 0.10559999E+03 -0.27535E+05
 0.10564999E+03 -0.27500E+05
 0.10570000E+03 -0.27664E+05
 0.10574999E+03 -0.28160E+05
 0.10580000E+03 -0.28747E+05
 0.10584999E+03 -0.28838E+05
 0.10589999E+03 -0.28210E+05
 0.10595000E+03 -0.27600E+05
 0.10599999E+03 -0.27589E+05
 0.10605000E+03 -0.28205E+05
 0.10609999E+03 -0.29387E+05
 0.10614999E+03 -0.30813E+05
 0.10620000E+03 -0.31896E+05
 0.10624999E+03 -0.31967E+05
 0.10630000E+03 -0.30826E+05
 0.10634999E+03 -0.28778E+05
 0.10639999E+03 -0.26255E+05
 0.10645000E+03 -0.24305E+05
 0.10649999E+03 -0.23686E+05
 0.10655000E+03 -0.23769E+05
 0.10659999E+03 -0.23864E+05
 0.10664999E+03 -0.24000E+05
 0.10670000E+03 -0.24130E+05
 0.10674999E+03 -0.24071E+05
 0.10680000E+03 -0.24079E+05
 0.10684999E+03 -0.24447E+05
 0.10689999E+03 -0.24979E+05
 0.10695000E+03 -0.25421E+05
 0.10699999E+03 -0.25904E+05
 0.10705000E+03 -0.26697E+05
 0.10709999E+03 -0.27841E+05
 0.10714999E+03 -0.28904E+05
 0.10720000E+03 -0.29289E+05
 0.10724999E+03 -0.28854E+05
 0.10730000E+03 -0.27754E+05
 0.10734999E+03 -0.26560E+05
 0.10739999E+03 -0.25987E+05
 0.10745000E+03 -0.26134E+05
 0.10749999E+03 -0.26735E+05
 0.10755000E+03 -0.27754E+05
 0.10759999E+03 -0.29114E+05
 0.10764999E+03 -0.30524E+05
 0.10770000E+03 -0.31908E+05
 0.10774999E+03 -0.33097E+05
 0.10780000E+03 -0.33749E+05
 0.10784999E+03 -0.33680E+05
 0.10789999E+03 -0.33029E+05
 0.10795000E+03 -0.32233E+05
 0.10799999E+03 -0.31800E+05
 0.10805000E+03 -0.31726E+05
 0.10809999E+03 -0.31510E+05
 0.10814999E+03 -0.30748E+05
 0.10820000E+03 -0.29039E+05
 0.10824999E+03 -0.26667E+05
 0.10830000E+03 -0.24430E+05
 0.10834999E+03 -0.23076E+05
 0.10839999E+03 -0.22830E+05
 0.10845000E+03 -0.22628E+05
 0.10849999E+03 -0.22203E+05
 0.10855000E+03 -0.22485E+05
 0.10859999E+03 -0.23627E+05
 0.10864999E+03 -0.24857E+05
 0.10870000E+03 -0.25705E+05
 0.10874999E+03 -0.25948E+05
 0.10880000E+03 -0.25093E+05
 0.10884999E+03 -0.23743E+05
 0.10889999E+03 -0.22864E+05
 0.10895000E+03 -0.22423E+05
 0.10899999E+03 -0.21760E+05
 0.10905000E+03 -0.20716E+05
 0.10909999E+03 -0.19846E+05
 0.10914999E+03 -0.19566E+05
 0.10920000E+03 -0.20286E+05
 0.10924999E+03 -0.22089E+05
 0.10930000E+03 -0.24871E+05
 0.10934999E+03 -0.27989E+05
 0.10939999E+03 -0.30212E+05
 0.10945000E+03 -0.31121E+05
 0.10949999E+03 -0.31299E+05
 0.10955000E+03 -0.31547E+05
 0.10959999E+03 -0.32123E+05
 0.10964999E+03 -0.32837E+05
 0.10970000E+03 -0.33253E+05
 0.10974999E+03 -0.33291E+05
 0.10980000E+03 -0.33072E+05
 0.10984999E+03 -0.32194E+05
 0.10989999E+03 -0.30726E+05
 0.10995000E+03 -0.29000E+05
 0.10999999E+03 -0.26912E+05
 0.11005000E+03 -0.25017E+05
 0.11009999E+03 -0.24086E+05
 0.11014999E+03 -0.23887E+05
 0.11020000E+03 -0.24229E+05
 0.11024999E+03 -0.25064E+05
 0.11030000E+03 -0.25931E+05
 0.11034999E+03 -0.26183E+05
 0.11039999E+03 -0.25395E+05
 0.11045000E+03 -0.24225E+05
 0.11049999E+03 -0.23382E+05
 0.11055000E+03 -0.23088E+05
 0.11059999E+03 -0.23611E+05
 0.11064999E+03 -0.24898E+05
 0.11070000E+03 -0.26362E+05
 0.11074999E+03 -0.27198E+05
 0.11080000E+03 -0.27169E+05
 0.11084999E+03 -0.26728E+05
 0.11089999E+03 -0.26690E+05
 0.11095000E+03 -0.27513E+05
 0.11099999E+03 -0.29193E+05
 0.11105000E+03 -0.31130E+05
 0.11109999E+03 -0.32239E+05
 0.11114999E+03 -0.31968E+05
 0.11120000E+03 -0.30184E+05
 0.11124999E+03 -0.27378E+05
 0.11130000E+03 -0.24380E+05
 0.11134999E+03 -0.21993E+05
 0.11139999E+03 -0.20587E+05
 0.11145000E+03 -0.20218E+05
 0.11149999E+03 -0.21028E+05
 0.11155000E+03 -0.22370E+05
 0.11159999E+03 -0.23815E+05
 0.11164999E+03 -0.25146E+05
 0.11170000E+03 -0.25840E+05
 0.11174999E+03 -0.25721E+05
 0.11180000E+03 -0.25018E+05
 0.11184999E+03 -0.24628E+05
 0.11189999E+03 -0.25059E+05
 0.11195000E+03 -0.26077E+05
 0.11199999E+03 -0.27077E+05
 0.11205000E+03 -0.27357E+05
 0.11209999E+03 -0.26797E+05
 0.11214999E+03 -0.25923E+05
 0.11220000E+03 -0.25482E+05
 0.11224999E+03 -0.25568E+05
 0.11230000E+03 -0.26362E+05
 0.11234999E+03 -0.27791E+05
 0.11239999E+03 -0.28905E+05
 0.11244999E+03 -0.29453E+05
 0.11249999E+03 -0.29853E+05
 0.11255000E+03 -0.30510E+05
 0.11259999E+03 -0.31527E+05
 0.11264999E+03 -0.32656E+05
 0.11269999E+03 -0.33609E+05
 0.11274999E+03 -0.33867E+05
 0.11280000E+03 -0.33128E+05
 0.11284999E+03 -0.32043E+05
 0.11289999E+03 -0.31158E+05
 0.11294999E+03 -0.30325E+05
 0.11299999E+03 -0.29343E+05
 0.11305000E+03 -0.28024E+05
 0.11309999E+03 -0.26302E+05
 0.11314999E+03 -0.23919E+05
 0.11319999E+03 -0.21294E+05
 0.11324999E+03 -0.19890E+05
 0.11330000E+03 -0.20387E+05
 0.11334999E+03 -0.21863E+05
 0.11339999E+03 -0.23018E+05
 0.11344999E+03 -0.23721E+05
 0.11349999E+03 -0.24126E+05
 0.11355000E+03 -0.24043E+05
 0.11359999E+03 -0.23606E+05
 0.11364999E+03 -0.23187E+05
 0.11369999E+03 -0.23039E+05
 0.11374999E+03 -0.23416E+05
 0.11380000E+03 -0.24530E+05
 0.11384999E+03 -0.26128E+05
 0.11389999E+03 -0.27651E+05
 0.11394999E+03 -0.28481E+05
 0.11399999E+03 -0.28641E+05
 0.11405000E+03 -0.28936E+05
 0.11409999E+03 -0.29829E+05
 0.11414999E+03 -0.30766E+05
 0.11419999E+03 -0.31180E+05
 0.11424999E+03 -0.31174E+05
 0.11430000E+03 -0.30836E+05
 0.11434999E+03 -0.30100E+05
 0.11439999E+03 -0.29114E+05
 0.11444999E+03 -0.28166E+05
 0.11449999E+03 -0.27141E+05
 0.11455000E+03 -0.25829E+05
 0.11459999E+03 -0.24210E+05
 0.11464999E+03 -0.22642E+05
 0.11469999E+03 -0.21637E+05
 0.11474999E+03 -0.21225E+05
 0.11480000E+03 -0.21377E+05
 0.11484999E+03 -0.22242E+05
 0.11489999E+03 -0.24194E+05
 0.11494999E+03 -0.27056E+05
 0.11499999E+03 -0.30155E+05
 0.11505000E+03 -0.32726E+05
 0.11509999E+03 -0.34042E+05
 0.11514999E+03 -0.34038E+05
 0.11519999E+03 -0.33083E+05
 0.11524999E+03 -0.31984E+05
 0.11530000E+03 -0.30923E+05
 0.11534999E+03 -0.29854E+05
 0.11539999E+03 -0.28920E+05
 0.11544999E+03 -0.27932E+05
 0.11549999E+03 -0.27185E+05
 0.11555000E+03 -0.27351E+05
 0.11559999E+03 -0.28940E+05
 0.11564999E+03 -0.31014E+05
 0.11569999E+03 -0.32355E+05
 0.11574999E+03 -0.32511E+05
 0.11580000E+03 -0.31298E+05
 0.11584999E+03 -0.29179E+05
 0.11589999E+03 -0.27041E+05
 0.11594999E+03 -0.25843E+05
 0.11599999E+03 -0.25427E+05
 0.11605000E+03 -0.25662E+05
 0.11609999E+03 -0.26545E+05
 0.11614999E+03 -0.27242E+05
 0.11619999E+03 -0.27239E+05
 0.11624999E+03 -0.26332E+05
 0.11630000E+03 -0.25224E+05
 0.11634999E+03 -0.24795E+05
 0.11639999E+03 -0.25062E+05
 0.11644999E+03 -0.25762E+05
 0.11649999E+03 -0.26117E+05
 0.11655000E+03 -0.25286E+05
 0.11659999E+03 -0.23611E+05
 0.11664999E+03 -0.22315E+05
 0.11669999E+03 -0.22266E+05
 0.11674999E+03 -0.23521E+05
 0.11680000E+03 -0.25281E+05
 0.11684999E+03 -0.26381E+05
 0.11689999E+03 -0.26100E+05
 0.11694999E+03 -0.24978E+05
 0.11699999E+03 -0.24090E+05
 0.11705000E+03 -0.24108E+05
 0.11709999E+03 -0.25116E+05
 0.11714999E+03 -0.26395E+05
 0.11719999E+03 -0.27452E+05
 0.11724999E+03 -0.28144E+05
 0.11730000E+03 -0.28694E+05
 0.11734999E+03 -0.29553E+05
 0.11739999E+03 -0.30584E+05
 0.11744999E+03 -0.31637E+05
 0.11749999E+03 -0.32617E+05
 0.11755000E+03 -0.33642E+05
 0.11759999E+03 -0.34315E+05
 0.11764999E+03 -0.33855E+05
 0.11769999E+03 -0.32531E+05
 0.11774999E+03 -0.30773E+05
 0.11780000E+03 -0.29541E+05
 0.11784999E+03 -0.29406E+05
 0.11789999E+03 -0.30001E+05
 0.11794999E+03 -0.30646E+05
 0.11799999E+03 -0.30442E+05
 0.11805000E+03 -0.29565E+05
 0.11809999E+03 -0.28318E+05
 0.11814999E+03 -0.27154E+05
 0.11819999E+03 -0.26547E+05
 0.11824999E+03 -0.26425E+05
 0.11830000E+03 -0.26226E+05
 0.11834999E+03 -0.25434E+05
 0.11839999E+03 -0.24755E+05
 0.11844999E+03 -0.24907E+05
 0.11849999E+03 -0.26017E+05
 0.11855000E+03 -0.27734E+05
 0.11859999E+03 -0.29564E+05
 0.11864999E+03 -0.31076E+05
 0.11869999E+03 -0.32048E+05
 0.11874999E+03 -0.32539E+05
 0.11880000E+03 -0.32020E+05
 0.11884999E+03 -0.30169E+05
 0.11889999E+03 -0.27759E+05
 0.11894999E+03 -0.25797E+05
 0.11899999E+03 -0.24340E+05
 0.11905000E+03 -0.23626E+05
 0.11909999E+03 -0.24026E+05
 0.11914999E+03 -0.24439E+05
 0.11919999E+03 -0.23828E+05
 0.11924999E+03 -0.22479E+05
 0.11930000E+03 -0.21413E+05
 0.11934999E+03 -0.21514E+05
 0.11939999E+03 -0.22872E+05
 0.11944999E+03 -0.24721E+05
 0.11949999E+03 -0.26076E+05
 0.11955000E+03 -0.26839E+05
 0.11959999E+03 -0.27567E+05
 0.11964999E+03 -0.28197E+05
 0.11969999E+03 -0.28758E+05
 0.11974999E+03 -0.29667E+05
 0.11980000E+03 -0.30623E+05
 0.11984999E+03 -0.31119E+05
 0.11989999E+03 -0.31069E+05
 0.11994999E+03 -0.30539E+05
 0.11999999E+03 -0.29216E+05
 0.12005000E+03 -0.27357E+05
 0.12009999E+03 -0.25997E+05
 0.12014999E+03 -0.25522E+05
 0.12019999E+03 -0.25750E+05
 0.12024999E+03 -0.26394E+05
 0.12030000E+03 -0.27168E+05
 0.12034999E+03 -0.27332E+05
 0.12039999E+03 -0.26327E+05
 0.12044999E+03 -0.24566E+05
 0.12049999E+03 -0.22798E+05
 0.12055000E+03 -0.21928E+05
 0.12059999E+03 -0.22075E+05
 0.12064999E+03 -0.22588E+05
 0.12069999E+03 -0.22921E+05
 0.12074999E+03 -0.22526E+05
 0.12080000E+03 -0.21524E+05
 0.12084999E+03 -0.20339E+05
 0.12089999E+03 -0.19598E+05
 0.12094999E+03 -0.20021E+05
 0.12099999E+03 -0.21348E+05
 0.12105000E+03 -0.23208E+05
 0.12109999E+03 -0.24946E+05
 0.12114999E+03 -0.25785E+05
 0.12119999E+03 -0.25643E+05
 0.12124999E+03 -0.24590E+05
 0.12130000E+03 -0.23160E+05
 0.12134999E+03 -0.22060E+05
 0.12139999E+03 -0.21536E+05
 0.12144999E+03 -0.21586E+05
 0.12149999E+03 -0.21966E+05
 0.12155000E+03 -0.22112E+05
 0.12159999E+03 -0.21923E+05
 0.12164999E+03 -0.21763E+05
 0.12169999E+03 -0.21868E+05
 0.12174999E+03 -0.22487E+05
 0.12180000E+03 -0.23647E+05
 0.12184999E+03 -0.24945E+05
 0.12189999E+03 -0.25910E+05
 0.12194999E+03 -0.26493E+05
 0.12199999E+03 -0.27003E+05
 0.12205000E+03 -0.27435E+05
 0.12209999E+03 -0.27445E+05
 0.12214999E+03 -0.26996E+05
 0.12219999E+03 -0.26322E+05
 0.12224999E+03 -0.25730E+05
 0.12230000E+03 -0.25254E+05
 0.12234999E+03 -0.25026E+05
 0.12239999E+03 -0.25308E+05
 0.12244999E+03 -0.26237E+05
 0.12249999E+03 -0.27911E+05
 0.12255000E+03 -0.29674E+05
 0.12259999E+03 -0.31182E+05
 0.12264999E+03 -0.32539E+05
 0.12269999E+03 -0.33261E+05
 0.12274999E+03 -0.33164E+05
 0.12280000E+03 -0.32458E+05
 0.12284999E+03 -0.31010E+05
 0.12289999E+03 -0.29096E+05
 0.12294999E+03 -0.27292E+05
 0.12299999E+03 -0.26285E+05
 0.12305000E+03 -0.26780E+05
 0.12309999E+03 -0.28281E+05
 0.12314999E+03 -0.30004E+05
 0.12319999E+03 -0.31095E+05
 0.12324999E+03 -0.31221E+05
 0.12330000E+03 -0.30668E+05
 0.12334999E+03 -0.29786E+05
 0.12339999E+03 -0.29428E+05
 0.12344999E+03 -0.29120E+05
 0.12349999E+03 -0.28436E+05
 0.12355000E+03 -0.27930E+05
 0.12359999E+03 -0.27652E+05
 0.12364999E+03 -0.27564E+05
 0.12369999E+03 -0.27711E+05
 0.12374999E+03 -0.27852E+05
 0.12380000E+03 -0.27974E+05
 0.12384999E+03 -0.28444E+05
 0.12389999E+03 -0.29209E+05
 0.12394999E+03 -0.30670E+05
 0.12399999E+03 -0.32436E+05
 0.12405000E+03 -0.33511E+05
 0.12409999E+03 -0.33830E+05
 0.12414999E+03 -0.33664E+05
 0.12419999E+03 -0.33823E+05
 0.12424999E+03 -0.34233E+05
 0.12430000E+03 -0.34827E+05
 0.12434999E+03 -0.35946E+05
 0.12439999E+03 -0.37223E+05
 0.12444999E+03 -0.38381E+05
 0.12449999E+03 -0.38671E+05
 0.12455000E+03 -0.37327E+05
 0.12459999E+03 -0.34113E+05
 0.12464999E+03 -0.30101E+05
 0.12469999E+03 -0.26977E+05
 0.12474999E+03 -0.24870E+05
 0.12480000E+03 -0.23674E+05
 0.12484999E+03 -0.22608E+05
 0.12489999E+03 -0.20511E+05
 0.12494999E+03 -0.17614E+05
 0.12499999E+03 -0.13975E+05
 0.12504999E+03 -0.10275E+05
 0.12509999E+03 -0.76140E+04
 0.12514999E+03 -0.60550E+04
 0.12520000E+03 -0.57420E+04
 0.12524998E+03 -0.67060E+04
 0.12529999E+03 -0.88490E+04
 0.12534999E+03 -0.11653E+05
 0.12539999E+03 -0.14681E+05
 0.12545000E+03 -0.17861E+05
 0.12549998E+03 -0.20932E+05
 0.12554999E+03 -0.24015E+05
 0.12559999E+03 -0.26706E+05
 0.12564999E+03 -0.28935E+05
 0.12570000E+03 -0.30069E+05
 0.12574998E+03 -0.28551E+05
 0.12579999E+03 -0.25688E+05
 0.12584999E+03 -0.22765E+05
 0.12589999E+03 -0.19817E+05
 0.12595000E+03 -0.18249E+05
 0.12599998E+03 -0.18462E+05
 0.12604999E+03 -0.20350E+05
 0.12609999E+03 -0.23156E+05
 0.12614999E+03 -0.25961E+05
 0.12620000E+03 -0.28995E+05
 0.12624998E+03 -0.32443E+05
 0.12629999E+03 -0.36477E+05
 0.12634999E+03 -0.39812E+05
 0.12639999E+03 -0.42042E+05
 0.12645000E+03 -0.43216E+05
 0.12649998E+03 -0.43079E+05
 0.12654999E+03 -0.42022E+05
 0.12659999E+03 -0.39391E+05
 0.12664999E+03 -0.35834E+05
 0.12670000E+03 -0.32236E+05
 0.12674998E+03 -0.29152E+05
 0.12679999E+03 -0.27324E+05
 0.12684999E+03 -0.26990E+05
 0.12689999E+03 -0.27485E+05
 0.12695000E+03 -0.27511E+05
 0.12699998E+03 -0.27188E+05
 0.12704999E+03 -0.26048E+05
 0.12709999E+03 -0.24495E+05
 0.12714999E+03 -0.23026E+05
 0.12720000E+03 -0.21514E+05
 0.12724998E+03 -0.21213E+05
 0.12729999E+03 -0.21770E+05
 0.12734999E+03 -0.22783E+05
 0.12739999E+03 -0.23266E+05
 0.12745000E+03 -0.22484E+05
 0.12749998E+03 -0.21042E+05
 0.12754999E+03 -0.18915E+05
 0.12759999E+03 -0.17343E+05
 0.12764999E+03 -0.16724E+05
 0.12770000E+03 -0.16862E+05
 0.12774998E+03 -0.17942E+05
 0.12779999E+03 -0.19891E+05
 0.12784999E+03 -0.22605E+05
 0.12789999E+03 -0.25147E+05
 0.12795000E+03 -0.27267E+05
 0.12799998E+03 -0.28716E+05
 0.12804999E+03 -0.29356E+05
 0.12809999E+03 -0.29126E+05
 0.12814999E+03 -0.27352E+05
 0.12820000E+03 -0.24432E+05
 0.12824998E+03 -0.21055E+05
 0.12829999E+03 -0.18466E+05
 0.12834999E+03 -0.17250E+05
 0.12839999E+03 -0.17407E+05
 0.12845000E+03 -0.19127E+05
 0.12849998E+03 -0.21858E+05
 0.12854999E+03 -0.25422E+05
 0.12859999E+03 -0.28245E+05
 0.12864999E+03 -0.30670E+05
 0.12870000E+03 -0.33287E+05
 0.12874998E+03 -0.34583E+05
 0.12879999E+03 -0.35485E+05
 0.12884999E+03 -0.35723E+05
 0.12889999E+03 -0.34982E+05
 0.12895000E+03 -0.34316E+05
 0.12899998E+03 -0.34840E+05
 0.12904999E+03 -0.37057E+05
 0.12909999E+03 -0.39975E+05
 0.12914999E+03 -0.43343E+05
 0.12920000E+03 -0.45995E+05
 0.12924998E+03 -0.47022E+05
 0.12929999E+03 -0.46025E+05
 0.12934999E+03 -0.43217E+05
 0.12939999E+03 -0.39731E+05
 0.12945000E+03 -0.35555E+05
 0.12949998E+03 -0.31817E+05
 0.12954999E+03 -0.29205E+05
 0.12959999E+03 -0.27369E+05
 0.12964999E+03 -0.26548E+05
 0.12970000E+03 -0.26337E+05
 0.12974998E+03 -0.26303E+05
 0.12979999E+03 -0.25847E+05
 0.12984999E+03 -0.25015E+05
 0.12989999E+03 -0.24459E+05
 0.12995000E+03 -0.23812E+05
 0.12999998E+03 -0.23752E+05
 0.13004999E+03 -0.24743E+05
 0.13009999E+03 -0.25783E+05
 0.13014999E+03 -0.26914E+05
 0.13020000E+03 -0.27911E+05
 0.13024998E+03 -0.28167E+05
 0.13029999E+03 -0.27758E+05
 0.13034999E+03 -0.26841E+05
 0.13039999E+03 -0.26330E+05
 0.13045000E+03 -0.26949E+05
 0.13049998E+03 -0.27730E+05
 0.13054999E+03 -0.28695E+05
 0.13059999E+03 -0.30415E+05
 0.13064999E+03 -0.31441E+05
 0.13070000E+03 -0.31186E+05
 0.13074998E+03 -0.30460E+05
 0.13079999E+03 -0.29485E+05
 0.13084999E+03 -0.28383E+05
 0.13089999E+03 -0.27680E+05
 0.13095000E+03 -0.27320E+05
 0.13099998E+03 -0.27082E+05
 0.13104999E+03 -0.26570E+05
 0.13109999E+03 -0.25641E+05
 0.13114999E+03 -0.24620E+05
 0.13120000E+03 -0.22991E+05
 0.13124998E+03 -0.21333E+05
 0.13129999E+03 -0.20293E+05
 0.13134999E+03 -0.19206E+05
 0.13139999E+03 -0.18572E+05
 0.13145000E+03 -0.19095E+05
 0.13149998E+03 -0.19816E+05
 0.13154999E+03 -0.20975E+05
 0.13159999E+03 -0.22701E+05
 0.13164999E+03 -0.24208E+05
 0.13170000E+03 -0.26443E+05
 0.13174998E+03 -0.28517E+05
 0.13179999E+03 -0.30227E+05
 0.13184999E+03 -0.32515E+05
 0.13189999E+03 -0.34266E+05
 0.13195000E+03 -0.35650E+05
 0.13199998E+03 -0.36204E+05
 0.13204999E+03 -0.35889E+05
 0.13209999E+03 -0.36173E+05
 0.13214999E+03 -0.36409E+05
 0.13220000E+03 -0.36352E+05
 0.13224998E+03 -0.36562E+05
 0.13229999E+03 -0.36663E+05
 0.13234999E+03 -0.36254E+05
 0.13239999E+03 -0.35424E+05
 0.13245000E+03 -0.34498E+05
 0.13249998E+03 -0.33680E+05
 0.13254999E+03 -0.33013E+05
 0.13259999E+03 -0.32174E+05
 0.13264999E+03 -0.31261E+05
 0.13270000E+03 -0.30545E+05
 0.13274998E+03 -0.30112E+05
 0.13279999E+03 -0.30322E+05
 0.13284999E+03 -0.30870E+05
 0.13289999E+03 -0.31662E+05
 0.13295000E+03 -0.32635E+05
 0.13299998E+03 -0.33050E+05
 0.13304999E+03 -0.33280E+05
 0.13309999E+03 -0.33358E+05
 0.13314999E+03 -0.33333E+05
 0.13320000E+03 -0.33106E+05
 0.13324998E+03 -0.31580E+05
 0.13329999E+03 -0.29298E+05
 0.13334999E+03 -0.26387E+05
 0.13339999E+03 -0.23297E+05
 0.13345000E+03 -0.20871E+05
 0.13349998E+03 -0.18823E+05
 0.13354999E+03 -0.17542E+05
 0.13359999E+03 -0.17106E+05
 0.13364999E+03 -0.17390E+05
 0.13370000E+03 -0.17699E+05
 0.13374998E+03 -0.18398E+05
 0.13379999E+03 -0.19410E+05
 0.13384999E+03 -0.19364E+05
 0.13389999E+03 -0.18971E+05
 0.13395000E+03 -0.17971E+05
 0.13399998E+03 -0.16949E+05
 0.13404999E+03 -0.17783E+05
 0.13409999E+03 -0.19587E+05
 0.13414999E+03 -0.21538E+05
 0.13420000E+03 -0.23284E+05
 0.13424998E+03 -0.23694E+05
 0.13429999E+03 -0.22611E+05
 0.13434999E+03 -0.20403E+05
 0.13439999E+03 -0.17986E+05
 0.13445000E+03 -0.16658E+05
 0.13449998E+03 -0.16756E+05
 0.13454999E+03 -0.18605E+05
 0.13459999E+03 -0.22152E+05
 0.13464999E+03 -0.26344E+05
 0.13470000E+03 -0.30370E+05
 0.13474998E+03 -0.34404E+05
 0.13479999E+03 -0.37690E+05
 0.13484999E+03 -0.39061E+05
 0.13489999E+03 -0.38823E+05
 0.13495000E+03 -0.36737E+05
 0.13499998E+03 -0.32799E+05
 0.13504999E+03 -0.27849E+05
 0.13509999E+03 -0.22354E+05
 0.13514999E+03 -0.16690E+05
 0.13520000E+03 -0.11614E+05
 0.13524998E+03 -0.86450E+04
 0.13529999E+03 -0.80130E+04
 0.13534999E+03 -0.92530E+04
 0.13539999E+03 -0.12016E+05
 0.13545000E+03 -0.15266E+05
 0.13549998E+03 -0.18613E+05
 0.13554999E+03 -0.21558E+05
 0.13559999E+03 -0.24502E+05
 0.13564999E+03 -0.27876E+05
 0.13570000E+03 -0.30836E+05
 0.13574998E+03 -0.33199E+05
 0.13579999E+03 -0.34759E+05
 0.13584999E+03 -0.35919E+05
 0.13589999E+03 -0.37053E+05
 0.13595000E+03 -0.37836E+05
 0.13599998E+03 -0.37897E+05
 0.13604999E+03 -0.36661E+05
 0.13609999E+03 -0.34493E+05
 0.13614999E+03 -0.31320E+05
 0.13620000E+03 -0.26925E+05
 0.13624998E+03 -0.22502E+05
 0.13629999E+03 -0.18949E+05
 0.13634999E+03 -0.16682E+05
 0.13639999E+03 -0.15691E+05
 0.13645000E+03 -0.15322E+05
 0.13649998E+03 -0.15625E+05
 0.13654999E+03 -0.17161E+05
 0.13659999E+03 -0.19947E+05
 0.13664999E+03 -0.23916E+05
 0.13670000E+03 -0.28633E+05
 0.13674998E+03 -0.32944E+05
 0.13679999E+03 -0.36052E+05
 0.13684999E+03 -0.38023E+05
 0.13689999E+03 -0.39117E+05
 0.13695000E+03 -0.39524E+05
 0.13699998E+03 -0.39573E+05
 0.13704999E+03 -0.39237E+05
 0.13709999E+03 -0.38096E+05
 0.13714999E+03 -0.36571E+05
 0.13720000E+03 -0.35608E+05
 0.13724998E+03 -0.34482E+05
 0.13729999E+03 -0.32312E+05
 0.13734999E+03 -0.29289E+05
 0.13739999E+03 -0.25576E+05
 0.13745000E+03 -0.21969E+05
 0.13749998E+03 -0.19489E+05
 0.13754999E+03 -0.18314E+05
 0.13759999E+03 -0.18373E+05
 0.13764999E+03 -0.19571E+05
 0.13770000E+03 -0.21443E+05
 0.13774998E+03 -0.23545E+05
 0.13779999E+03 -0.24610E+05
 0.13784999E+03 -0.23807E+05
 0.13789999E+03 -0.21808E+05
 0.13795000E+03 -0.19249E+05
 0.13799998E+03 -0.16972E+05
 0.13804999E+03 -0.15346E+05
 0.13809999E+03 -0.14160E+05
 0.13814999E+03 -0.13641E+05
 0.13820000E+03 -0.13955E+05
 0.13824998E+03 -0.15447E+05
 0.13829999E+03 -0.18472E+05
 0.13834999E+03 -0.22592E+05
 0.13839999E+03 -0.27363E+05
 0.13845000E+03 -0.32696E+05
 0.13849998E+03 -0.38021E+05
 0.13854999E+03 -0.42512E+05
 0.13859999E+03 -0.45435E+05
 0.13864999E+03 -0.46193E+05
 0.13870000E+03 -0.45311E+05
 0.13874998E+03 -0.43200E+05
 0.13879999E+03 -0.39480E+05
 0.13884999E+03 -0.35274E+05
 0.13889999E+03 -0.31317E+05
 0.13895000E+03 -0.27616E+05
 0.13899998E+03 -0.24992E+05
 0.13904999E+03 -0.22769E+05
 0.13909999E+03 -0.21172E+05
 0.13914999E+03 -0.20933E+05
 0.13920000E+03 -0.21205E+05
 0.13924998E+03 -0.22299E+05
 0.13929999E+03 -0.23683E+05
 0.13934999E+03 -0.24095E+05
 0.13939999E+03 -0.24585E+05
 0.13945000E+03 -0.25351E+05
 0.13949998E+03 -0.25910E+05
 0.13954999E+03 -0.27215E+05
 0.13959999E+03 -0.28030E+05
 0.13964999E+03 -0.27922E+05
 0.13970000E+03 -0.27657E+05
 0.13974998E+03 -0.26882E+05
 0.13979999E+03 -0.26081E+05
 0.13984999E+03 -0.25164E+05
 0.13989999E+03 -0.23760E+05
 0.13995000E+03 -0.21988E+05
 0.13999998E+03 -0.20900E+05
 0.14004999E+03 -0.20204E+05
 0.14009999E+03 -0.20294E+05
 0.14014999E+03 -0.21961E+05
 0.14020000E+03 -0.24137E+05
 0.14024998E+03 -0.27002E+05
 0.14029999E+03 -0.29648E+05
 0.14034999E+03 -0.32020E+05
 0.14039999E+03 -0.34410E+05
 0.14045000E+03 -0.36159E+05
 0.14049998E+03 -0.37349E+05
 0.14054999E+03 -0.37599E+05
 0.14059999E+03 -0.36892E+05
 0.14064999E+03 -0.35612E+05
 0.14070000E+03 -0.34720E+05
 0.14074998E+03 -0.34124E+05
 0.14079999E+03 -0.34017E+05
 0.14084999E+03 -0.34488E+05
 0.14089999E+03 -0.34266E+05
 0.14095000E+03 -0.33303E+05
 0.14099998E+03 -0.31261E+05
 0.14104999E+03 -0.27920E+05
 0.14109999E+03 -0.24185E+05
 0.14114999E+03 -0.20630E+05
 0.14120000E+03 -0.17604E+05
 0.14124998E+03 -0.15584E+05
 0.14129999E+03 -0.14255E+05
 0.14134999E+03 -0.13775E+05
 0.14139999E+03 -0.14546E+05
 0.14145000E+03 -0.16309E+05
 0.14149998E+03 -0.18675E+05
 0.14154999E+03 -0.20636E+05
 0.14159999E+03 -0.21728E+05
 0.14164999E+03 -0.22432E+05
 0.14170000E+03 -0.23543E+05
 0.14174998E+03 -0.24812E+05
 0.14179999E+03 -0.26406E+05
 0.14184999E+03 -0.28755E+05
 0.14189999E+03 -0.31435E+05
 0.14195000E+03 -0.34545E+05
 0.14199998E+03 -0.36932E+05
 0.14204999E+03 -0.37974E+05
 0.14209999E+03 -0.38290E+05
 0.14214999E+03 -0.37660E+05
 0.14220000E+03 -0.35926E+05
 0.14224998E+03 -0.33199E+05
 0.14229999E+03 -0.29769E+05
 0.14234999E+03 -0.25950E+05
 0.14239999E+03 -0.22413E+05
 0.14245000E+03 -0.19531E+05
 0.14249998E+03 -0.17416E+05
 0.14254999E+03 -0.16183E+05
 0.14259999E+03 -0.15870E+05
 0.14264999E+03 -0.16792E+05
 0.14270000E+03 -0.18797E+05
 0.14274998E+03 -0.21694E+05
 0.14279999E+03 -0.24794E+05
 0.14284999E+03 -0.27968E+05
 0.14289999E+03 -0.30814E+05
 0.14295000E+03 -0.32611E+05
 0.14299998E+03 -0.33724E+05
 0.14304999E+03 -0.33589E+05
 0.14309999E+03 -0.32314E+05
 0.14314999E+03 -0.30422E+05
 0.14320000E+03 -0.27820E+05
 0.14324998E+03 -0.24793E+05
 0.14329999E+03 -0.22054E+05
 0.14334999E+03 -0.19916E+05
 0.14339999E+03 -0.18330E+05
 0.14345000E+03 -0.17645E+05
 0.14349998E+03 -0.17246E+05
 0.14354999E+03 -0.16717E+05
 0.14359999E+03 -0.16472E+05
 0.14364999E+03 -0.16718E+05
 0.14370000E+03 -0.17650E+05
 0.14374998E+03 -0.18980E+05
 0.14379999E+03 -0.20789E+05
 0.14384999E+03 -0.23229E+05
 0.14389999E+03 -0.25310E+05
 0.14395000E+03 -0.26947E+05
 0.14399998E+03 -0.28455E+05
 0.14404999E+03 -0.29635E+05
 0.14409999E+03 -0.30657E+05
 0.14414999E+03 -0.31249E+05
 0.14420000E+03 -0.31421E+05
 0.14424998E+03 -0.31293E+05
 0.14429999E+03 -0.30676E+05
 0.14434999E+03 -0.29601E+05
 0.14439999E+03 -0.28437E+05
 0.14445000E+03 -0.27690E+05
 0.14449998E+03 -0.27781E+05
 0.14454999E+03 -0.29196E+05
 0.14459999E+03 -0.31367E+05
 0.14464999E+03 -0.33325E+05
 0.14470000E+03 -0.34715E+05
 0.14474998E+03 -0.35264E+05
 0.14479999E+03 -0.35447E+05
 0.14484999E+03 -0.35514E+05
 0.14489999E+03 -0.34893E+05
 0.14495000E+03 -0.34023E+05
 0.14499998E+03 -0.33249E+05
 0.14504999E+03 -0.32619E+05
 0.14509999E+03 -0.32162E+05
 0.14514999E+03 -0.31492E+05
 0.14520000E+03 -0.30852E+05
 0.14524998E+03 -0.30179E+05
 0.14529999E+03 -0.29651E+05
 0.14534999E+03 -0.29596E+05
 0.14539999E+03 -0.29910E+05
 0.14545000E+03 -0.30016E+05
 0.14549998E+03 -0.29262E+05
 0.14554999E+03 -0.28098E+05
 0.14559999E+03 -0.26520E+05
 0.14564999E+03 -0.24720E+05
 0.14570000E+03 -0.23349E+05
 0.14574998E+03 -0.22095E+05
 0.14579999E+03 -0.20997E+05
 0.14584999E+03 -0.20271E+05
 0.14589999E+03 -0.19538E+05
 0.14595000E+03 -0.18773E+05
 0.14599998E+03 -0.18257E+05
 0.14604999E+03 -0.18265E+05
 0.14609999E+03 -0.18521E+05
 0.14614999E+03 -0.18346E+05
 0.14620000E+03 -0.17471E+05
 0.14624998E+03 -0.16452E+05
 0.14629999E+03 -0.15722E+05
 0.14634999E+03 -0.15045E+05
 0.14639999E+03 -0.15317E+05
 0.14645000E+03 -0.16493E+05
 0.14649998E+03 -0.17635E+05
 0.14654999E+03 -0.18994E+05
 0.14659999E+03 -0.20283E+05
 0.14664999E+03 -0.21333E+05
 0.14670000E+03 -0.22261E+05
 0.14674998E+03 -0.23014E+05
 0.14679999E+03 -0.23614E+05
 0.14684999E+03 -0.24111E+05
 0.14689999E+03 -0.25253E+05
 0.14695000E+03 -0.27087E+05
 0.14699998E+03 -0.28848E+05
 0.14704999E+03 -0.30177E+05
 0.14709999E+03 -0.31002E+05
 0.14714999E+03 -0.31224E+05
 0.14720000E+03 -0.30540E+05
 0.14724998E+03 -0.29514E+05
 0.14729999E+03 -0.28208E+05
 0.14734999E+03 -0.26580E+05
 0.14739999E+03 -0.25384E+05
 0.14745000E+03 -0.24457E+05
 0.14749998E+03 -0.24252E+05
 0.14754999E+03 -0.24859E+05
 0.14759999E+03 -0.25645E+05
 0.14764999E+03 -0.26652E+05
 0.14770000E+03 -0.27781E+05
 0.14774998E+03 -0.28995E+05
 0.14779999E+03 -0.29819E+05
 0.14784999E+03 -0.30537E+05
 0.14789999E+03 -0.31764E+05
 0.14795000E+03 -0.33189E+05
 0.14799998E+03 -0.34825E+05
 0.14804999E+03 -0.36306E+05
 0.14809999E+03 -0.37445E+05
 0.14814999E+03 -0.37952E+05
 0.14820000E+03 -0.37466E+05
 0.14824998E+03 -0.36574E+05
 0.14829999E+03 -0.35723E+05
 0.14834999E+03 -0.35435E+05
 0.14839999E+03 -0.35558E+05
 0.14845000E+03 -0.35416E+05
 0.14849998E+03 -0.35026E+05
 0.14854999E+03 -0.34468E+05
 0.14859999E+03 -0.33779E+05
 0.14864999E+03 -0.33458E+05
 0.14870000E+03 -0.33711E+05
 0.14874998E+03 -0.34048E+05
 0.14879999E+03 -0.33979E+05
 0.14884999E+03 -0.33482E+05
 0.14889999E+03 -0.32617E+05
 0.14895000E+03 -0.31395E+05
 0.14899998E+03 -0.30874E+05
 0.14904999E+03 -0.31021E+05
 0.14909999E+03 -0.31204E+05
 0.14914999E+03 -0.31567E+05
 0.14920000E+03 -0.31762E+05
 0.14924998E+03 -0.32043E+05
 0.14929999E+03 -0.32312E+05
 0.14934999E+03 -0.32607E+05
 0.14939999E+03 -0.32660E+05
 0.14945000E+03 -0.31721E+05
 0.14949998E+03 -0.30535E+05
 0.14954999E+03 -0.29514E+05
 0.14959999E+03 -0.28765E+05
 0.14964999E+03 -0.28230E+05
 0.14970000E+03 -0.27781E+05
 0.14974998E+03 -0.27258E+05
 0.14979999E+03 -0.26204E+05
 0.14984999E+03 -0.25087E+05
 0.14989999E+03 -0.23915E+05
 0.14995000E+03 -0.22937E+05
