-0.30000000E+01  0.84110E+04
-0.29500000E+01  0.84340E+04
-0.29000001E+01  0.83730E+04
-0.28499999E+01  0.83580E+04
-0.28000000E+01  0.82440E+04
-0.27500000E+01  0.81860E+04
-0.27000000E+01  0.80730E+04
-0.26500001E+01  0.79030E+04
-0.25999999E+01  0.77290E+04
-0.25500000E+01  0.75290E+04
-0.25000000E+01  0.73370E+04
-0.24500000E+01  0.71070E+04
-0.24000001E+01  0.68660E+04
-0.23499999E+01  0.65570E+04
-0.23000002E+01  0.62620E+04
-0.22500000E+01  0.59400E+04
-0.22000000E+01  0.56250E+04
-0.21500001E+01  0.52850E+04
-0.20999999E+01  0.49250E+04
-0.20500002E+01  0.45890E+04
-0.20000000E+01  0.42700E+04
-0.19500000E+01  0.39950E+04
-0.19000001E+01  0.36490E+04
-0.18500000E+01  0.33510E+04
-0.18000001E+01  0.31170E+04
-0.17500001E+01  0.28740E+04
-0.17000000E+01  0.26520E+04
-0.16500001E+01  0.25190E+04
-0.16000001E+01  0.23540E+04
-0.15500001E+01  0.21640E+04
-0.15000001E+01  0.20730E+04
-0.14500000E+01  0.19590E+04
-0.14000001E+01  0.18910E+04
-0.13500001E+01  0.18050E+04
-0.13000001E+01  0.17720E+04
-0.12500001E+01  0.17770E+04
-0.12000000E+01  0.17250E+04
-0.11500001E+01  0.17490E+04
-0.11000001E+01  0.17560E+04
-0.10500001E+01  0.17550E+04
-0.10000001E+01  0.17760E+04
-0.95000005E+00  0.18430E+04
-0.90000010E+00  0.18830E+04
-0.85000014E+00  0.19220E+04
-0.80000019E+00  0.20350E+04
-0.75000024E+00  0.20790E+04
-0.70000005E+00  0.21150E+04
-0.65000010E+00  0.21560E+04
-0.60000014E+00  0.22200E+04
-0.55000019E+00  0.23070E+04
-0.50000024E+00  0.23690E+04
-0.45000005E+00  0.24010E+04
-0.40000010E+00  0.24340E+04
-0.35000014E+00  0.24870E+04
-0.30000019E+00  0.25040E+04
-0.25000024E+00  0.25600E+04
-0.20000029E+00  0.25610E+04
-0.15000010E+00  0.26130E+04
-0.10000014E+00  0.26960E+04
-0.50000191E-01  0.27760E+04
-0.23841858E-06  0.29560E+04
 0.49999714E-01  0.30340E+04
 0.99999905E-01  0.31840E+04
 0.14999986E+00  0.33870E+04
 0.19999981E+00  0.36010E+04
 0.24999976E+00  0.37810E+04
 0.29999971E+00  0.39690E+04
 0.34999990E+00  0.42470E+04
 0.39999986E+00  0.44130E+04
 0.44999981E+00  0.46710E+04
 0.49999976E+00  0.49020E+04
 0.54999971E+00  0.51560E+04
 0.59999990E+00  0.53640E+04
 0.64999986E+00  0.55430E+04
 0.69999981E+00  0.59200E+04
 0.74999976E+00  0.61490E+04
 0.79999971E+00  0.64310E+04
 0.84999967E+00  0.67290E+04
 0.89999986E+00  0.70210E+04
 0.94999981E+00  0.73360E+04
 0.99999976E+00  0.75610E+04
 0.10499997E+01  0.78930E+04
 0.10999999E+01  0.80880E+04
 0.11499996E+01  0.83110E+04
 0.11999998E+01  0.85850E+04
 0.12499995E+01  0.87120E+04
 0.12999997E+01  0.88990E+04
 0.13499999E+01  0.90950E+04
 0.13999996E+01  0.92560E+04
 0.14499998E+01  0.94080E+04
 0.14999995E+01  0.95610E+04
 0.15499997E+01  0.96970E+04
 0.15999999E+01  0.98810E+04
 0.16499996E+01  0.10020E+05
 0.16999998E+01  0.10133E+05
 0.17499995E+01  0.10303E+05
 0.17999997E+01  0.10442E+05
 0.18499999E+01  0.10672E+05
 0.18999996E+01  0.10854E+05
 0.19499998E+01  0.10980E+05
 0.19999995E+01  0.11187E+05
 0.20499997E+01  0.11355E+05
 0.20999999E+01  0.11554E+05
 0.21499996E+01  0.11796E+05
 0.21999998E+01  0.11965E+05
 0.22499995E+01  0.12140E+05
 0.22999997E+01  0.12319E+05
 0.23499999E+01  0.12483E+05
 0.23999996E+01  0.12662E+05
 0.24499998E+01  0.12804E+05
 0.24999995E+01  0.12970E+05
 0.25499997E+01  0.13090E+05
 0.25999994E+01  0.13210E+05
 0.26499996E+01  0.13374E+05
 0.26999998E+01  0.13499E+05
 0.27499995E+01  0.13636E+05
 0.27999997E+01  0.13763E+05
 0.28499994E+01  0.13911E+05
 0.28999996E+01  0.14073E+05
 0.29499998E+01  0.14184E+05
 0.29999995E+01  0.14312E+05
 0.30499997E+01  0.14453E+05
 0.30999994E+01  0.14526E+05
 0.31499996E+01  0.14624E+05
 0.31999998E+01  0.14699E+05
 0.32499995E+01  0.14737E+05
 0.32999997E+01  0.14794E+05
 0.33499994E+01  0.14843E+05
 0.33999996E+01  0.14903E+05
 0.34499998E+01  0.14851E+05
 0.34999995E+01  0.14795E+05
 0.35499997E+01  0.14795E+05
 0.35999994E+01  0.14814E+05
 0.36499996E+01  0.14777E+05
 0.36999998E+01  0.14680E+05
 0.37499995E+01  0.14671E+05
 0.37999997E+01  0.14600E+05
 0.38499994E+01  0.14543E+05
 0.38999996E+01  0.14503E+05
 0.39499998E+01  0.14447E+05
 0.39999995E+01  0.14402E+05
 0.40499997E+01  0.14334E+05
 0.40999994E+01  0.14332E+05
 0.41499996E+01  0.14263E+05
 0.41999998E+01  0.14165E+05
 0.42499995E+01  0.14075E+05
 0.42999997E+01  0.13983E+05
 0.43499994E+01  0.13881E+05
 0.43999996E+01  0.13714E+05
 0.44499993E+01  0.13617E+05
 0.44999995E+01  0.13464E+05
 0.45499997E+01  0.13280E+05
 0.45999994E+01  0.13148E+05
 0.46499996E+01  0.12983E+05
 0.46999993E+01  0.12838E+05
 0.47499995E+01  0.12581E+05
 0.47999997E+01  0.12363E+05
 0.48499994E+01  0.12169E+05
 0.48999996E+01  0.11847E+05
 0.49499993E+01  0.11573E+05
 0.49999995E+01  0.11272E+05
 0.50499992E+01  0.10991E+05
 0.50999994E+01  0.10664E+05
 0.51499996E+01  0.10323E+05
 0.51999998E+01  0.10068E+05
 0.52499990E+01  0.96890E+04
 0.52999992E+01  0.93450E+04
 0.53499994E+01  0.90170E+04
 0.53999996E+01  0.86280E+04
 0.54499998E+01  0.82770E+04
 0.54999990E+01  0.78770E+04
 0.55499992E+01  0.75130E+04
 0.55999994E+01  0.70860E+04
 0.56499996E+01  0.65930E+04
 0.56999998E+01  0.61600E+04
 0.57499990E+01  0.56770E+04
 0.57999992E+01  0.51800E+04
 0.58499994E+01  0.46690E+04
 0.58999996E+01  0.42120E+04
 0.59499998E+01  0.37360E+04
 0.59999990E+01  0.32490E+04
 0.60499992E+01  0.28270E+04
 0.60999994E+01  0.23530E+04
 0.61499996E+01  0.19410E+04
 0.61999998E+01  0.15000E+04
 0.62499990E+01  0.11130E+04
 0.62999992E+01  0.77900E+03
 0.63499994E+01  0.38500E+03
 0.63999996E+01  0.61000E+02
 0.64499998E+01 -0.26400E+03
 0.64999990E+01 -0.61400E+03
 0.65499992E+01 -0.99600E+03
 0.65999994E+01 -0.12670E+04
 0.66499996E+01 -0.15310E+04
 0.66999998E+01 -0.18980E+04
 0.67499990E+01 -0.22240E+04
 0.67999992E+01 -0.24650E+04
 0.68499994E+01 -0.26570E+04
 0.68999996E+01 -0.29720E+04
 0.69499998E+01 -0.32320E+04
 0.69999990E+01 -0.34530E+04
 0.70499992E+01 -0.37090E+04
 0.70999994E+01 -0.39210E+04
 0.71499996E+01 -0.41330E+04
 0.71999998E+01 -0.43200E+04
 0.72499990E+01 -0.45010E+04
 0.72999992E+01 -0.45780E+04
 0.73499994E+01 -0.46610E+04
 0.73999996E+01 -0.47210E+04
 0.74499998E+01 -0.47250E+04
 0.74999990E+01 -0.47330E+04
 0.75499992E+01 -0.46900E+04
 0.75999994E+01 -0.46330E+04
 0.76499996E+01 -0.44980E+04
 0.76999998E+01 -0.43830E+04
 0.77499990E+01 -0.42520E+04
 0.77999992E+01 -0.41720E+04
 0.78499994E+01 -0.40840E+04
 0.78999996E+01 -0.39450E+04
 0.79499998E+01 -0.39090E+04
 0.79999990E+01 -0.38100E+04
 0.80499992E+01 -0.37440E+04
 0.80999994E+01 -0.36560E+04
 0.81499996E+01 -0.35750E+04
 0.81999989E+01 -0.34920E+04
 0.82499990E+01 -0.32950E+04
 0.82999992E+01 -0.31800E+04
 0.83499994E+01 -0.30150E+04
 0.83999996E+01 -0.28040E+04
 0.84499989E+01 -0.26070E+04
 0.84999990E+01 -0.24120E+04
 0.85499992E+01 -0.22030E+04
 0.85999994E+01 -0.19070E+04
 0.86499996E+01 -0.16820E+04
 0.86999989E+01 -0.14270E+04
 0.87499990E+01 -0.10820E+04
 0.87999992E+01 -0.80100E+03
 0.88499994E+01 -0.50000E+03
 0.88999996E+01 -0.18900E+03
 0.89499989E+01  0.20200E+03
 0.89999990E+01  0.60100E+03
 0.90499992E+01  0.89900E+03
 0.90999994E+01  0.12930E+04
 0.91499996E+01  0.16840E+04
 0.91999989E+01  0.20720E+04
 0.92499990E+01  0.24360E+04
 0.92999992E+01  0.27620E+04
 0.93499994E+01  0.31740E+04
 0.93999996E+01  0.34910E+04
 0.94499989E+01  0.37790E+04
 0.94999990E+01  0.41020E+04
 0.95499992E+01  0.43230E+04
 0.95999994E+01  0.44940E+04
 0.96499996E+01  0.46600E+04
 0.96999989E+01  0.48270E+04
 0.97499990E+01  0.49130E+04
 0.97999992E+01  0.49580E+04
 0.98499994E+01  0.50890E+04
 0.98999996E+01  0.51590E+04
 0.99499989E+01  0.52060E+04
 0.99999990E+01  0.52980E+04
 0.10049999E+02  0.54030E+04
 0.10099999E+02  0.55000E+04
 0.10150000E+02  0.55120E+04
 0.10199999E+02  0.56270E+04
 0.10249999E+02  0.57610E+04
 0.10299999E+02  0.58280E+04
 0.10349999E+02  0.59530E+04
 0.10400000E+02  0.60820E+04
 0.10449999E+02  0.62290E+04
 0.10499999E+02  0.63510E+04
 0.10549999E+02  0.65360E+04
 0.10599999E+02  0.67550E+04
 0.10650000E+02  0.68510E+04
 0.10699999E+02  0.70290E+04
 0.10749999E+02  0.72760E+04
 0.10799999E+02  0.74790E+04
 0.10849999E+02  0.77170E+04
 0.10900000E+02  0.79890E+04
 0.10949999E+02  0.83000E+04
 0.10999999E+02  0.85850E+04
 0.11049999E+02  0.88390E+04
 0.11099999E+02  0.92060E+04
 0.11150000E+02  0.95360E+04
 0.11199999E+02  0.97710E+04
 0.11249999E+02  0.10131E+05
 0.11299999E+02  0.10438E+05
 0.11349999E+02  0.10757E+05
 0.11400000E+02  0.11070E+05
 0.11449999E+02  0.11324E+05
 0.11499999E+02  0.11731E+05
 0.11549999E+02  0.12024E+05
 0.11599999E+02  0.12364E+05
 0.11649999E+02  0.12745E+05
 0.11699999E+02  0.13061E+05
 0.11749999E+02  0.13397E+05
 0.11799999E+02  0.13745E+05
 0.11849999E+02  0.14140E+05
 0.11899999E+02  0.14413E+05
 0.11949999E+02  0.14719E+05
 0.11999999E+02  0.15020E+05
 0.12049999E+02  0.15339E+05
 0.12099999E+02  0.15654E+05
 0.12149999E+02  0.15964E+05
 0.12199999E+02  0.16357E+05
 0.12249999E+02  0.16676E+05
 0.12299999E+02  0.16997E+05
 0.12349999E+02  0.17337E+05
 0.12399999E+02  0.17733E+05
 0.12449999E+02  0.17987E+05
 0.12499999E+02  0.18225E+05
 0.12549999E+02  0.18587E+05
 0.12599999E+02  0.18839E+05
 0.12649999E+02  0.19088E+05
 0.12699999E+02  0.19286E+05
 0.12749999E+02  0.19508E+05
 0.12799999E+02  0.19722E+05
 0.12849999E+02  0.19823E+05
 0.12899999E+02  0.19987E+05
 0.12949999E+02  0.20071E+05
 0.12999999E+02  0.20066E+05
 0.13049999E+02  0.20133E+05
 0.13099998E+02  0.20135E+05
 0.13150000E+02  0.20031E+05
 0.13199999E+02  0.19950E+05
 0.13249998E+02  0.19902E+05
 0.13299999E+02  0.19765E+05
 0.13349998E+02  0.19572E+05
 0.13400000E+02  0.19406E+05
 0.13449999E+02  0.19210E+05
 0.13499998E+02  0.18974E+05
 0.13549999E+02  0.18688E+05
 0.13599998E+02  0.18370E+05
 0.13650000E+02  0.18035E+05
 0.13699999E+02  0.17604E+05
 0.13749998E+02  0.17167E+05
 0.13799999E+02  0.16731E+05
 0.13849998E+02  0.16128E+05
 0.13900000E+02  0.15569E+05
 0.13949999E+02  0.15043E+05
 0.13999998E+02  0.14475E+05
 0.14049999E+02  0.13914E+05
 0.14099998E+02  0.13260E+05
 0.14150000E+02  0.12704E+05
 0.14199999E+02  0.12161E+05
 0.14249998E+02  0.11525E+05
 0.14299999E+02  0.10881E+05
 0.14349998E+02  0.10256E+05
 0.14400000E+02  0.96280E+04
 0.14449999E+02  0.88820E+04
 0.14499998E+02  0.81480E+04
 0.14549999E+02  0.74560E+04
 0.14599998E+02  0.67190E+04
 0.14650000E+02  0.59640E+04
 0.14699999E+02  0.52660E+04
 0.14749998E+02  0.45590E+04
 0.14799999E+02  0.38110E+04
 0.14849998E+02  0.31110E+04
 0.14900000E+02  0.24650E+04
 0.14949999E+02  0.17290E+04
 0.14999998E+02  0.93900E+03
 0.15049999E+02  0.28000E+03
 0.15099998E+02 -0.35200E+03
 0.15150000E+02 -0.10300E+04
 0.15199999E+02 -0.16950E+04
 0.15249998E+02 -0.22690E+04
 0.15299999E+02 -0.29260E+04
 0.15349998E+02 -0.35070E+04
 0.15400000E+02 -0.39180E+04
 0.15449999E+02 -0.44430E+04
 0.15499998E+02 -0.48420E+04
 0.15549999E+02 -0.52630E+04
 0.15599998E+02 -0.55750E+04
 0.15650000E+02 -0.58550E+04
 0.15699999E+02 -0.62360E+04
 0.15749998E+02 -0.63460E+04
 0.15799999E+02 -0.66450E+04
 0.15849998E+02 -0.68950E+04
 0.15900000E+02 -0.70310E+04
 0.15949999E+02 -0.72230E+04
 0.15999998E+02 -0.73380E+04
 0.16049999E+02 -0.75360E+04
 0.16099998E+02 -0.75680E+04
 0.16150000E+02 -0.76790E+04
 0.16199999E+02 -0.77760E+04
 0.16249998E+02 -0.78270E+04
 0.16299999E+02 -0.79010E+04
 0.16349998E+02 -0.78580E+04
 0.16400000E+02 -0.79340E+04
 0.16449999E+02 -0.78790E+04
 0.16499998E+02 -0.78060E+04
 0.16549999E+02 -0.77940E+04
 0.16599998E+02 -0.77260E+04
 0.16650000E+02 -0.76720E+04
 0.16699999E+02 -0.75630E+04
 0.16749998E+02 -0.75190E+04
 0.16799999E+02 -0.74370E+04
 0.16849998E+02 -0.72900E+04
 0.16900000E+02 -0.72440E+04
 0.16949999E+02 -0.72030E+04
 0.16999998E+02 -0.71070E+04
 0.17049999E+02 -0.70020E+04
 0.17099998E+02 -0.68890E+04
 0.17150000E+02 -0.68040E+04
 0.17199999E+02 -0.66930E+04
 0.17249998E+02 -0.65540E+04
 0.17299999E+02 -0.65090E+04
 0.17349998E+02 -0.64070E+04
 0.17400000E+02 -0.62820E+04
 0.17449999E+02 -0.62450E+04
 0.17499998E+02 -0.61760E+04
 0.17549999E+02 -0.61410E+04
 0.17599998E+02 -0.60530E+04
 0.17650000E+02 -0.60580E+04
 0.17699999E+02 -0.61110E+04
 0.17749998E+02 -0.60100E+04
 0.17799999E+02 -0.60010E+04
 0.17849998E+02 -0.60500E+04
 0.17900000E+02 -0.60790E+04
 0.17949999E+02 -0.60260E+04
 0.17999998E+02 -0.60430E+04
 0.18049999E+02 -0.60850E+04
 0.18099998E+02 -0.60700E+04
 0.18150000E+02 -0.61390E+04
 0.18199999E+02 -0.61800E+04
 0.18249998E+02 -0.62460E+04
 0.18299999E+02 -0.62960E+04
 0.18349998E+02 -0.64110E+04
 0.18400000E+02 -0.65510E+04
 0.18449999E+02 -0.66720E+04
 0.18499998E+02 -0.68690E+04
 0.18549999E+02 -0.70430E+04
 0.18599998E+02 -0.73530E+04
 0.18650000E+02 -0.76180E+04
 0.18699999E+02 -0.78580E+04
 0.18749998E+02 -0.81940E+04
 0.18799999E+02 -0.84400E+04
 0.18849998E+02 -0.88360E+04
 0.18900000E+02 -0.91880E+04
 0.18949999E+02 -0.95110E+04
 0.18999998E+02 -0.99130E+04
 0.19049999E+02 -0.10280E+05
 0.19099998E+02 -0.10795E+05
 0.19150000E+02 -0.11203E+05
 0.19199999E+02 -0.11628E+05
 0.19249998E+02 -0.12134E+05
 0.19299999E+02 -0.12655E+05
 0.19349998E+02 -0.13146E+05
 0.19399998E+02 -0.13610E+05
 0.19449999E+02 -0.14211E+05
 0.19499998E+02 -0.14657E+05
 0.19549999E+02 -0.15116E+05
 0.19599998E+02 -0.15599E+05
 0.19649998E+02 -0.16029E+05
 0.19699999E+02 -0.16425E+05
 0.19749998E+02 -0.16731E+05
 0.19799999E+02 -0.17091E+05
 0.19849998E+02 -0.17348E+05
 0.19899998E+02 -0.17507E+05
 0.19949999E+02 -0.17773E+05
 0.19999998E+02 -0.18047E+05
 0.20049999E+02 -0.18173E+05
 0.20099998E+02 -0.18356E+05
 0.20149998E+02 -0.18551E+05
 0.20199999E+02 -0.18724E+05
 0.20249998E+02 -0.18892E+05
 0.20299999E+02 -0.19020E+05
 0.20349998E+02 -0.19242E+05
 0.20399998E+02 -0.19342E+05
 0.20449999E+02 -0.19446E+05
 0.20499998E+02 -0.19535E+05
 0.20549999E+02 -0.19598E+05
 0.20599998E+02 -0.19719E+05
 0.20649998E+02 -0.19707E+05
 0.20699999E+02 -0.19760E+05
 0.20749998E+02 -0.19776E+05
 0.20799999E+02 -0.19815E+05
 0.20849998E+02 -0.19842E+05
 0.20899998E+02 -0.19753E+05
 0.20949999E+02 -0.19793E+05
 0.20999998E+02 -0.19774E+05
 0.21049999E+02 -0.19715E+05
 0.21099998E+02 -0.19710E+05
 0.21149998E+02 -0.19706E+05
 0.21199999E+02 -0.19687E+05
 0.21249998E+02 -0.19686E+05
 0.21299999E+02 -0.19701E+05
 0.21349998E+02 -0.19687E+05
 0.21399998E+02 -0.19663E+05
 0.21449999E+02 -0.19630E+05
 0.21499998E+02 -0.19619E+05
 0.21549999E+02 -0.19533E+05
 0.21599998E+02 -0.19468E+05
 0.21649998E+02 -0.19435E+05
 0.21699999E+02 -0.19350E+05
 0.21749998E+02 -0.19296E+05
 0.21799999E+02 -0.19218E+05
 0.21849998E+02 -0.19191E+05
 0.21899998E+02 -0.19125E+05
 0.21949999E+02 -0.19072E+05
 0.21999998E+02 -0.19078E+05
 0.22049999E+02 -0.18911E+05
 0.22099998E+02 -0.18828E+05
 0.22149998E+02 -0.18725E+05
 0.22199999E+02 -0.18567E+05
 0.22249998E+02 -0.18479E+05
 0.22299999E+02 -0.18306E+05
 0.22349998E+02 -0.18222E+05
 0.22399998E+02 -0.18076E+05
 0.22449999E+02 -0.17949E+05
 0.22499998E+02 -0.17923E+05
 0.22549999E+02 -0.17824E+05
 0.22599998E+02 -0.17776E+05
 0.22649998E+02 -0.17751E+05
 0.22699999E+02 -0.17746E+05
 0.22749998E+02 -0.17749E+05
 0.22799999E+02 -0.17746E+05
 0.22849998E+02 -0.17759E+05
 0.22899998E+02 -0.17787E+05
 0.22949999E+02 -0.17741E+05
 0.22999998E+02 -0.17678E+05
 0.23049999E+02 -0.17667E+05
 0.23099998E+02 -0.17652E+05
 0.23149998E+02 -0.17599E+05
 0.23199999E+02 -0.17505E+05
 0.23249998E+02 -0.17559E+05
 0.23299999E+02 -0.17523E+05
 0.23349998E+02 -0.17415E+05
 0.23399998E+02 -0.17469E+05
 0.23449999E+02 -0.17467E+05
 0.23499998E+02 -0.17436E+05
 0.23549999E+02 -0.17380E+05
 0.23599998E+02 -0.17368E+05
 0.23649998E+02 -0.17366E+05
 0.23699999E+02 -0.17309E+05
 0.23749998E+02 -0.17296E+05
 0.23799999E+02 -0.17282E+05
 0.23849998E+02 -0.17278E+05
 0.23899998E+02 -0.17203E+05
 0.23949999E+02 -0.17170E+05
 0.23999998E+02 -0.17137E+05
 0.24049999E+02 -0.17011E+05
 0.24099998E+02 -0.16918E+05
 0.24149998E+02 -0.16802E+05
 0.24199999E+02 -0.16683E+05
 0.24249998E+02 -0.16502E+05
 0.24299999E+02 -0.16355E+05
 0.24349998E+02 -0.16248E+05
 0.24399998E+02 -0.16019E+05
 0.24449999E+02 -0.15862E+05
 0.24499998E+02 -0.15711E+05
 0.24549999E+02 -0.15482E+05
 0.24599998E+02 -0.15296E+05
 0.24649998E+02 -0.15077E+05
 0.24699999E+02 -0.14899E+05
 0.24749998E+02 -0.14656E+05
 0.24799999E+02 -0.14442E+05
 0.24849998E+02 -0.14305E+05
 0.24899998E+02 -0.14006E+05
 0.24949999E+02 -0.13749E+05
 0.24999998E+02 -0.13465E+05
 0.25049999E+02 -0.13185E+05
 0.25099998E+02 -0.12856E+05
 0.25149998E+02 -0.12490E+05
 0.25199999E+02 -0.12193E+05
 0.25249998E+02 -0.11782E+05
 0.25299999E+02 -0.11460E+05
 0.25349998E+02 -0.11055E+05
 0.25399998E+02 -0.10640E+05
 0.25449999E+02 -0.10209E+05
 0.25499998E+02 -0.96700E+04
 0.25549999E+02 -0.92830E+04
 0.25599998E+02 -0.88080E+04
 0.25649998E+02 -0.83220E+04
 0.25699999E+02 -0.78360E+04
 0.25749998E+02 -0.73360E+04
 0.25799999E+02 -0.68800E+04
 0.25849998E+02 -0.63030E+04
 0.25899998E+02 -0.57590E+04
 0.25949999E+02 -0.51740E+04
 0.25999998E+02 -0.45660E+04
 0.26049997E+02 -0.39580E+04
 0.26099998E+02 -0.33260E+04
 0.26149998E+02 -0.27470E+04
 0.26199999E+02 -0.20520E+04
 0.26249998E+02 -0.14160E+04
 0.26299997E+02 -0.77700E+03
 0.26349998E+02 -0.87000E+02
 0.26399998E+02  0.54700E+03
 0.26449999E+02  0.12430E+04
 0.26499998E+02  0.18310E+04
 0.26549997E+02  0.24700E+04
 0.26599998E+02  0.31260E+04
 0.26649998E+02  0.36980E+04
 0.26699999E+02  0.43430E+04
 0.26749998E+02  0.49000E+04
 0.26799997E+02  0.54800E+04
 0.26849998E+02  0.60510E+04
 0.26899998E+02  0.65260E+04
 0.26949999E+02  0.70660E+04
 0.26999998E+02  0.74990E+04
 0.27049997E+02  0.79300E+04
 0.27099998E+02  0.84010E+04
 0.27149998E+02  0.87950E+04
 0.27199999E+02  0.92730E+04
 0.27249998E+02  0.96130E+04
 0.27299997E+02  0.10018E+05
 0.27349998E+02  0.10439E+05
 0.27399998E+02  0.10742E+05
 0.27449999E+02  0.11209E+05
 0.27499998E+02  0.11466E+05
 0.27549997E+02  0.11797E+05
 0.27599998E+02  0.12124E+05
 0.27649998E+02  0.12324E+05
 0.27699999E+02  0.12624E+05
 0.27749998E+02  0.12721E+05
 0.27799997E+02  0.12941E+05
 0.27849998E+02  0.13093E+05
 0.27899998E+02  0.13204E+05
 0.27949999E+02  0.13414E+05
 0.27999998E+02  0.13455E+05
 0.28049997E+02  0.13577E+05
 0.28099998E+02  0.13601E+05
 0.28149998E+02  0.13632E+05
 0.28199999E+02  0.13723E+05
 0.28249998E+02  0.13673E+05
 0.28299997E+02  0.13634E+05
 0.28349998E+02  0.13616E+05
 0.28399998E+02  0.13565E+05
 0.28449999E+02  0.13454E+05
 0.28499998E+02  0.13347E+05
 0.28549997E+02  0.13223E+05
 0.28599998E+02  0.13125E+05
 0.28649998E+02  0.12928E+05
 0.28699999E+02  0.12669E+05
 0.28749998E+02  0.12506E+05
 0.28799997E+02  0.12255E+05
 0.28849998E+02  0.12033E+05
 0.28899998E+02  0.11776E+05
 0.28949999E+02  0.11501E+05
 0.28999998E+02  0.11313E+05
 0.29049999E+02  0.11005E+05
 0.29099998E+02  0.10788E+05
 0.29149998E+02  0.10571E+05
 0.29199997E+02  0.10297E+05
 0.29249996E+02  0.10137E+05
 0.29299999E+02  0.98750E+04
 0.29349998E+02  0.96670E+04
 0.29399998E+02  0.94480E+04
 0.29449997E+02  0.92700E+04
 0.29499996E+02  0.90970E+04
 0.29549999E+02  0.88380E+04
 0.29599998E+02  0.87340E+04
 0.29649998E+02  0.85400E+04
 0.29699997E+02  0.84040E+04
 0.29749996E+02  0.82800E+04
 0.29799999E+02  0.81800E+04
 0.29849998E+02  0.81010E+04
 0.29899998E+02  0.79970E+04
 0.29949997E+02  0.79710E+04
 0.29999996E+02  0.78890E+04
 0.30049999E+02  0.78860E+04
 0.30099998E+02  0.77640E+04
 0.30149998E+02  0.76760E+04
 0.30199997E+02  0.75710E+04
 0.30249996E+02  0.75030E+04
 0.30299999E+02  0.74060E+04
 0.30349998E+02  0.71710E+04
 0.30399998E+02  0.71650E+04
 0.30449997E+02  0.69830E+04
 0.30499996E+02  0.68630E+04
 0.30549999E+02  0.67360E+04
 0.30599998E+02  0.65680E+04
 0.30649998E+02  0.64870E+04
 0.30699997E+02  0.62100E+04
 0.30749996E+02  0.61050E+04
 0.30799999E+02  0.59130E+04
 0.30849998E+02  0.56640E+04
 0.30899998E+02  0.54710E+04
 0.30949997E+02  0.52070E+04
 0.30999996E+02  0.50350E+04
 0.31049999E+02  0.48440E+04
 0.31099998E+02  0.47020E+04
 0.31149998E+02  0.45670E+04
 0.31199997E+02  0.44300E+04
 0.31249996E+02  0.42910E+04
 0.31299999E+02  0.42730E+04
 0.31349998E+02  0.42650E+04
 0.31399998E+02  0.41130E+04
 0.31449997E+02  0.41610E+04
 0.31499996E+02  0.41280E+04
 0.31549999E+02  0.40540E+04
 0.31599998E+02  0.40770E+04
 0.31649998E+02  0.40080E+04
 0.31699997E+02  0.39630E+04
 0.31749996E+02  0.38860E+04
 0.31799999E+02  0.38660E+04
 0.31849998E+02  0.38030E+04
 0.31899998E+02  0.36970E+04
 0.31949997E+02  0.35870E+04
 0.31999996E+02  0.35030E+04
 0.32049999E+02  0.34170E+04
 0.32099998E+02  0.32750E+04
 0.32149998E+02  0.31980E+04
 0.32199997E+02  0.30660E+04
 0.32249996E+02  0.30200E+04
 0.32299999E+02  0.29310E+04
 0.32349998E+02  0.28270E+04
 0.32399998E+02  0.28130E+04
 0.32449997E+02  0.28200E+04
 0.32499996E+02  0.28060E+04
 0.32549999E+02  0.27250E+04
 0.32599998E+02  0.27230E+04
 0.32649998E+02  0.27030E+04
 0.32699997E+02  0.27090E+04
 0.32749996E+02  0.26570E+04
 0.32799999E+02  0.26500E+04
 0.32849998E+02  0.26460E+04
 0.32899998E+02  0.26440E+04
 0.32949997E+02  0.27000E+04
 0.32999996E+02  0.26350E+04
 0.33049999E+02  0.26770E+04
 0.33099998E+02  0.27100E+04
 0.33149998E+02  0.27710E+04
 0.33199997E+02  0.28380E+04
 0.33249996E+02  0.29410E+04
 0.33299999E+02  0.30790E+04
 0.33349998E+02  0.31280E+04
 0.33399998E+02  0.32800E+04
 0.33449997E+02  0.34340E+04
 0.33499996E+02  0.36270E+04
 0.33549999E+02  0.37980E+04
 0.33599998E+02  0.40690E+04
 0.33649998E+02  0.43500E+04
 0.33699997E+02  0.45280E+04
 0.33749996E+02  0.48390E+04
 0.33799999E+02  0.51430E+04
 0.33849998E+02  0.54710E+04
 0.33899998E+02  0.57280E+04
 0.33949997E+02  0.59800E+04
 0.33999996E+02  0.62310E+04
 0.34049999E+02  0.64920E+04
 0.34099998E+02  0.67000E+04
 0.34149998E+02  0.68560E+04
 0.34199997E+02  0.71020E+04
 0.34249996E+02  0.72270E+04
 0.34299999E+02  0.74480E+04
 0.34349998E+02  0.75730E+04
 0.34399998E+02  0.77220E+04
 0.34449997E+02  0.78660E+04
 0.34499996E+02  0.78630E+04
 0.34549999E+02  0.80000E+04
 0.34599998E+02  0.80020E+04
 0.34649998E+02  0.80330E+04
 0.34699997E+02  0.80090E+04
 0.34749996E+02  0.80120E+04
 0.34799999E+02  0.79950E+04
 0.34849998E+02  0.78530E+04
 0.34899998E+02  0.77850E+04
 0.34949997E+02  0.75900E+04
 0.34999996E+02  0.74070E+04
 0.35049999E+02  0.71360E+04
 0.35099998E+02  0.68890E+04
 0.35149998E+02  0.65830E+04
 0.35199997E+02  0.62150E+04
 0.35249996E+02  0.59510E+04
 0.35299999E+02  0.55710E+04
 0.35349998E+02  0.52190E+04
 0.35399998E+02  0.48040E+04
 0.35449997E+02  0.44570E+04
 0.35499996E+02  0.40500E+04
 0.35549999E+02  0.35870E+04
 0.35599998E+02  0.32230E+04
 0.35649998E+02  0.27130E+04
 0.35699997E+02  0.22650E+04
 0.35749996E+02  0.17550E+04
 0.35799999E+02  0.12680E+04
 0.35849998E+02  0.73600E+03
 0.35899998E+02  0.14700E+03
 0.35949997E+02 -0.35700E+03
 0.35999996E+02 -0.98100E+03
 0.36049999E+02 -0.15390E+04
 0.36099998E+02 -0.21900E+04
 0.36149998E+02 -0.27760E+04
 0.36199997E+02 -0.33650E+04
 0.36249996E+02 -0.40120E+04
 0.36299999E+02 -0.45550E+04
 0.36349998E+02 -0.51580E+04
 0.36399998E+02 -0.57040E+04
 0.36449997E+02 -0.62830E+04
 0.36499996E+02 -0.68080E+04
 0.36549999E+02 -0.73960E+04
 0.36599998E+02 -0.79690E+04
 0.36649998E+02 -0.85130E+04
 0.36699997E+02 -0.90650E+04
 0.36749996E+02 -0.95930E+04
 0.36799999E+02 -0.10210E+05
 0.36849998E+02 -0.10695E+05
 0.36899998E+02 -0.11264E+05
 0.36949997E+02 -0.11796E+05
 0.36999996E+02 -0.12305E+05
 0.37049999E+02 -0.12813E+05
 0.37099998E+02 -0.13287E+05
 0.37149998E+02 -0.13811E+05
 0.37199997E+02 -0.14223E+05
 0.37249996E+02 -0.14684E+05
 0.37299999E+02 -0.15096E+05
 0.37349998E+02 -0.15545E+05
 0.37399998E+02 -0.15974E+05
 0.37449997E+02 -0.16324E+05
 0.37499996E+02 -0.16660E+05
 0.37549999E+02 -0.16954E+05
 0.37599998E+02 -0.17273E+05
 0.37649998E+02 -0.17514E+05
 0.37699997E+02 -0.17749E+05
 0.37749996E+02 -0.17903E+05
 0.37799999E+02 -0.18107E+05
 0.37849998E+02 -0.18308E+05
 0.37899998E+02 -0.18347E+05
 0.37949997E+02 -0.18428E+05
 0.37999996E+02 -0.18489E+05
 0.38049999E+02 -0.18529E+05
 0.38099998E+02 -0.18550E+05
 0.38149998E+02 -0.18534E+05
 0.38199997E+02 -0.18499E+05
 0.38249996E+02 -0.18474E+05
 0.38299999E+02 -0.18454E+05
 0.38349998E+02 -0.18357E+05
 0.38399998E+02 -0.18270E+05
 0.38449997E+02 -0.18240E+05
 0.38499996E+02 -0.18194E+05
 0.38549999E+02 -0.18083E+05
 0.38599998E+02 -0.17990E+05
 0.38649998E+02 -0.17884E+05
 0.38699997E+02 -0.17761E+05
 0.38749996E+02 -0.17619E+05
 0.38799999E+02 -0.17439E+05
 0.38849998E+02 -0.17266E+05
 0.38899998E+02 -0.16995E+05
 0.38949997E+02 -0.16799E+05
 0.38999996E+02 -0.16590E+05
 0.39049999E+02 -0.16314E+05
 0.39099998E+02 -0.16073E+05
 0.39149998E+02 -0.15794E+05
 0.39199997E+02 -0.15543E+05
 0.39249996E+02 -0.15165E+05
 0.39299999E+02 -0.14822E+05
 0.39349998E+02 -0.14531E+05
 0.39399998E+02 -0.14181E+05
 0.39449997E+02 -0.13816E+05
 0.39499996E+02 -0.13419E+05
 0.39549999E+02 -0.13115E+05
 0.39599998E+02 -0.12730E+05
 0.39649998E+02 -0.12361E+05
 0.39699997E+02 -0.11991E+05
 0.39749996E+02 -0.11594E+05
 0.39799999E+02 -0.11239E+05
 0.39849998E+02 -0.10795E+05
 0.39899998E+02 -0.10427E+05
 0.39949997E+02 -0.10006E+05
 0.39999996E+02 -0.96070E+04
 0.40049999E+02 -0.92050E+04
 0.40099998E+02 -0.87310E+04
 0.40149998E+02 -0.83170E+04
 0.40199997E+02 -0.78510E+04
 0.40249996E+02 -0.74230E+04
 0.40299999E+02 -0.69700E+04
 0.40349998E+02 -0.65220E+04
 0.40399998E+02 -0.60750E+04
 0.40449997E+02 -0.56730E+04
 0.40499996E+02 -0.53010E+04
 0.40549999E+02 -0.48910E+04
 0.40599998E+02 -0.45500E+04
 0.40649998E+02 -0.42050E+04
 0.40699997E+02 -0.39040E+04
 0.40749996E+02 -0.35450E+04
 0.40799999E+02 -0.31860E+04
 0.40849998E+02 -0.28820E+04
 0.40899998E+02 -0.25560E+04
 0.40949997E+02 -0.22250E+04
 0.40999996E+02 -0.18690E+04
 0.41049999E+02 -0.15560E+04
 0.41099998E+02 -0.12550E+04
 0.41149998E+02 -0.93700E+03
 0.41199997E+02 -0.59900E+03
 0.41249996E+02 -0.29400E+03
 0.41299999E+02 -0.34000E+02
 0.41349998E+02  0.22000E+03
 0.41399998E+02  0.47600E+03
 0.41449997E+02  0.76800E+03
 0.41499996E+02  0.10460E+04
 0.41549999E+02  0.12920E+04
 0.41599998E+02  0.15880E+04
 0.41649998E+02  0.18960E+04
 0.41699997E+02  0.21690E+04
 0.41749996E+02  0.24690E+04
 0.41799995E+02  0.27790E+04
 0.41849998E+02  0.30820E+04
 0.41899998E+02  0.33730E+04
 0.41949997E+02  0.36660E+04
 0.41999996E+02  0.39570E+04
 0.42049995E+02  0.42900E+04
 0.42099998E+02  0.45730E+04
 0.42149998E+02  0.47950E+04
 0.42199997E+02  0.51010E+04
 0.42249996E+02  0.53560E+04
 0.42299995E+02  0.56140E+04
 0.42349998E+02  0.58200E+04
 0.42399998E+02  0.60010E+04
 0.42449997E+02  0.62770E+04
 0.42499996E+02  0.64700E+04
 0.42549995E+02  0.66980E+04
 0.42599998E+02  0.69110E+04
 0.42649998E+02  0.71100E+04
 0.42699997E+02  0.73120E+04
 0.42749996E+02  0.75070E+04
 0.42799995E+02  0.77040E+04
 0.42849998E+02  0.78230E+04
 0.42899998E+02  0.80530E+04
 0.42949997E+02  0.82330E+04
 0.42999996E+02  0.84460E+04
 0.43049995E+02  0.86370E+04
 0.43099998E+02  0.87830E+04
 0.43149998E+02  0.90070E+04
 0.43199997E+02  0.91310E+04
 0.43249996E+02  0.93210E+04
 0.43299995E+02  0.94210E+04
 0.43349998E+02  0.95380E+04
 0.43399998E+02  0.96640E+04
 0.43449997E+02  0.97970E+04
 0.43499996E+02  0.99460E+04
 0.43549995E+02  0.99500E+04
 0.43599998E+02  0.10087E+05
 0.43649998E+02  0.10182E+05
 0.43699997E+02  0.10250E+05
 0.43749996E+02  0.10280E+05
 0.43799995E+02  0.10317E+05
 0.43849998E+02  0.10414E+05
 0.43899998E+02  0.10387E+05
 0.43949997E+02  0.10425E+05
 0.43999996E+02  0.10452E+05
 0.44049995E+02  0.10455E+05
 0.44099998E+02  0.10485E+05
 0.44149998E+02  0.10542E+05
 0.44199997E+02  0.10581E+05
 0.44249996E+02  0.10552E+05
 0.44299995E+02  0.10640E+05
 0.44349998E+02  0.10708E+05
 0.44399998E+02  0.10757E+05
 0.44449997E+02  0.10828E+05
 0.44499996E+02  0.10867E+05
 0.44549995E+02  0.10909E+05
 0.44599998E+02  0.10905E+05
 0.44649998E+02  0.10963E+05
 0.44699997E+02  0.10885E+05
 0.44749996E+02  0.10864E+05
 0.44799995E+02  0.10860E+05
 0.44849998E+02  0.10736E+05
 0.44899998E+02  0.10769E+05
 0.44949997E+02  0.10680E+05
 0.44999996E+02  0.10607E+05
 0.45049995E+02  0.10509E+05
 0.45099998E+02  0.10422E+05
 0.45149998E+02  0.10356E+05
 0.45199997E+02  0.10262E+05
 0.45249996E+02  0.10246E+05
 0.45299995E+02  0.10108E+05
 0.45349998E+02  0.10077E+05
 0.45399998E+02  0.99690E+04
 0.45449997E+02  0.99570E+04
 0.45499996E+02  0.99320E+04
 0.45549995E+02  0.98420E+04
 0.45599998E+02  0.98970E+04
 0.45649998E+02  0.97750E+04
 0.45699997E+02  0.97800E+04
 0.45749996E+02  0.96730E+04
 0.45799995E+02  0.95990E+04
 0.45849998E+02  0.95870E+04
 0.45899998E+02  0.94930E+04
 0.45949997E+02  0.94940E+04
 0.45999996E+02  0.93570E+04
 0.46049995E+02  0.93400E+04
 0.46099998E+02  0.92710E+04
 0.46149998E+02  0.92110E+04
 0.46199997E+02  0.91580E+04
 0.46249996E+02  0.90260E+04
 0.46299995E+02  0.89690E+04
 0.46349998E+02  0.88240E+04
 0.46399998E+02  0.87440E+04
 0.46449997E+02  0.86290E+04
 0.46499996E+02  0.85240E+04
 0.46549995E+02  0.84260E+04
 0.46599998E+02  0.83390E+04
 0.46649998E+02  0.82920E+04
 0.46699997E+02  0.81450E+04
 0.46749996E+02  0.80490E+04
 0.46799995E+02  0.78950E+04
 0.46849998E+02  0.77850E+04
 0.46899998E+02  0.76980E+04
 0.46949997E+02  0.75450E+04
 0.46999996E+02  0.74410E+04
 0.47049995E+02  0.72720E+04
 0.47099998E+02  0.71250E+04
 0.47149998E+02  0.69200E+04
 0.47199997E+02  0.67120E+04
 0.47249996E+02  0.65070E+04
 0.47299995E+02  0.62610E+04
 0.47349998E+02  0.60860E+04
 0.47399998E+02  0.58270E+04
 0.47449997E+02  0.55790E+04
 0.47499996E+02  0.53230E+04
 0.47549995E+02  0.50660E+04
 0.47599998E+02  0.47820E+04
 0.47649998E+02  0.44760E+04
 0.47699997E+02  0.42070E+04
 0.47749996E+02  0.38730E+04
 0.47799995E+02  0.36040E+04
 0.47849998E+02  0.32780E+04
 0.47899998E+02  0.30070E+04
 0.47949997E+02  0.27410E+04
 0.47999996E+02  0.24010E+04
 0.48049995E+02  0.21340E+04
 0.48099998E+02  0.18140E+04
 0.48149998E+02  0.15640E+04
 0.48199997E+02  0.12420E+04
 0.48249996E+02  0.91600E+03
 0.48299995E+02  0.66100E+03
 0.48349998E+02  0.35200E+03
 0.48399998E+02  0.52000E+02
 0.48449997E+02 -0.26700E+03
 0.48499996E+02 -0.51700E+03
 0.48549995E+02 -0.81100E+03
 0.48599998E+02 -0.11280E+04
 0.48649998E+02 -0.14010E+04
 0.48699997E+02 -0.16880E+04
 0.48749996E+02 -0.19460E+04
 0.48799995E+02 -0.22360E+04
 0.48849998E+02 -0.25340E+04
 0.48899998E+02 -0.28050E+04
 0.48949997E+02 -0.30510E+04
 0.48999996E+02 -0.33220E+04
 0.49049995E+02 -0.35920E+04
 0.49099998E+02 -0.38180E+04
 0.49149998E+02 -0.40360E+04
 0.49199997E+02 -0.42440E+04
 0.49249996E+02 -0.44180E+04
 0.49299995E+02 -0.45710E+04
 0.49349998E+02 -0.47080E+04
 0.49399998E+02 -0.47860E+04
 0.49449997E+02 -0.48800E+04
 0.49499996E+02 -0.49380E+04
 0.49549995E+02 -0.49840E+04
 0.49599998E+02 -0.50460E+04
 0.49649998E+02 -0.50900E+04
 0.49699997E+02 -0.51650E+04
 0.49749996E+02 -0.51430E+04
 0.49799995E+02 -0.51380E+04
 0.49849998E+02 -0.51310E+04
 0.49899998E+02 -0.50350E+04
 0.49949997E+02 -0.49360E+04
 0.49999996E+02 -0.47790E+04
 0.50049995E+02 -0.46470E+04
 0.50099998E+02 -0.44450E+04
 0.50149998E+02 -0.42560E+04
 0.50199997E+02 -0.40800E+04
 0.50249996E+02 -0.37550E+04
 0.50299995E+02 -0.34850E+04
 0.50349998E+02 -0.31430E+04
 0.50399998E+02 -0.27440E+04
 0.50449997E+02 -0.23860E+04
 0.50499996E+02 -0.20300E+04
 0.50549995E+02 -0.16980E+04
 0.50599998E+02 -0.12780E+04
 0.50649998E+02 -0.94600E+03
 0.50699997E+02 -0.55900E+03
 0.50749996E+02 -0.16500E+03
 0.50799995E+02  0.20900E+03
 0.50849998E+02  0.66900E+03
 0.50899998E+02  0.99300E+03
 0.50949997E+02  0.14490E+04
 0.50999996E+02  0.18150E+04
 0.51049995E+02  0.22500E+04
 0.51099998E+02  0.27550E+04
 0.51149998E+02  0.31220E+04
 0.51199997E+02  0.36290E+04
 0.51249996E+02  0.40300E+04
 0.51299995E+02  0.45690E+04
 0.51349998E+02  0.50120E+04
 0.51399998E+02  0.54550E+04
 0.51449997E+02  0.60230E+04
 0.51499996E+02  0.64400E+04
 0.51549995E+02  0.69700E+04
 0.51599998E+02  0.74040E+04
 0.51649998E+02  0.79440E+04
 0.51699997E+02  0.84490E+04
 0.51749996E+02  0.89350E+04
 0.51799995E+02  0.95000E+04
 0.51849998E+02  0.99830E+04
 0.51899998E+02  0.10534E+05
 0.51949997E+02  0.10976E+05
 0.51999996E+02  0.11519E+05
 0.52049995E+02  0.11972E+05
 0.52099998E+02  0.12444E+05
 0.52149998E+02  0.13009E+05
 0.52199997E+02  0.13420E+05
 0.52249996E+02  0.13918E+05
 0.52299995E+02  0.14372E+05
 0.52349998E+02  0.14864E+05
 0.52399998E+02  0.15331E+05
 0.52449997E+02  0.15808E+05
 0.52499996E+02  0.16267E+05
 0.52549995E+02  0.16700E+05
 0.52599998E+02  0.17163E+05
 0.52649998E+02  0.17551E+05
 0.52699997E+02  0.17939E+05
 0.52749996E+02  0.18187E+05
 0.52799995E+02  0.18615E+05
 0.52849998E+02  0.18956E+05
 0.52899998E+02  0.19186E+05
 0.52949997E+02  0.19522E+05
 0.52999996E+02  0.19750E+05
 0.53049995E+02  0.19994E+05
 0.53099998E+02  0.20160E+05
 0.53149998E+02  0.20429E+05
 0.53199997E+02  0.20608E+05
 0.53249996E+02  0.20753E+05
 0.53299995E+02  0.20976E+05
 0.53349998E+02  0.21158E+05
 0.53399998E+02  0.21310E+05
 0.53449997E+02  0.21412E+05
 0.53499996E+02  0.21590E+05
 0.53549995E+02  0.21633E+05
 0.53599998E+02  0.21734E+05
 0.53649998E+02  0.21823E+05
 0.53699997E+02  0.21835E+05
 0.53749996E+02  0.21863E+05
 0.53799995E+02  0.21864E+05
 0.53849998E+02  0.21851E+05
 0.53899998E+02  0.21749E+05
 0.53949997E+02  0.21736E+05
 0.53999996E+02  0.21710E+05
 0.54049995E+02  0.21681E+05
 0.54099998E+02  0.21607E+05
 0.54149998E+02  0.21519E+05
 0.54199997E+02  0.21413E+05
 0.54249996E+02  0.21250E+05
 0.54299995E+02  0.21197E+05
 0.54349998E+02  0.21092E+05
 0.54399998E+02  0.20982E+05
 0.54449997E+02  0.20831E+05
 0.54499996E+02  0.20683E+05
 0.54549995E+02  0.20614E+05
 0.54599998E+02  0.20467E+05
 0.54649998E+02  0.20332E+05
 0.54699997E+02  0.20162E+05
 0.54749996E+02  0.19987E+05
 0.54799995E+02  0.19840E+05
 0.54849995E+02  0.19647E+05
 0.54899998E+02  0.19507E+05
 0.54949997E+02  0.19343E+05
 0.54999996E+02  0.19196E+05
 0.55049995E+02  0.19080E+05
 0.55099995E+02  0.18947E+05
 0.55149998E+02  0.18862E+05
 0.55199997E+02  0.18729E+05
 0.55249996E+02  0.18620E+05
 0.55299995E+02  0.18530E+05
 0.55349995E+02  0.18442E+05
 0.55399998E+02  0.18380E+05
 0.55449997E+02  0.18250E+05
 0.55499996E+02  0.18142E+05
 0.55549995E+02  0.18053E+05
 0.55599995E+02  0.17924E+05
 0.55649998E+02  0.17830E+05
 0.55699997E+02  0.17700E+05
 0.55749996E+02  0.17568E+05
 0.55799995E+02  0.17490E+05
 0.55849995E+02  0.17372E+05
 0.55899998E+02  0.17261E+05
 0.55949997E+02  0.17107E+05
 0.55999996E+02  0.16981E+05
 0.56049995E+02  0.16837E+05
 0.56099995E+02  0.16681E+05
 0.56149998E+02  0.16549E+05
 0.56199997E+02  0.16310E+05
 0.56249996E+02  0.16174E+05
 0.56299995E+02  0.16030E+05
 0.56349995E+02  0.15897E+05
 0.56399998E+02  0.15772E+05
 0.56449997E+02  0.15545E+05
 0.56499996E+02  0.15464E+05
 0.56549995E+02  0.15334E+05
 0.56599995E+02  0.15154E+05
 0.56649998E+02  0.15015E+05
 0.56699997E+02  0.14863E+05
 0.56749996E+02  0.14762E+05
 0.56799995E+02  0.14570E+05
 0.56849995E+02  0.14394E+05
 0.56899998E+02  0.14258E+05
 0.56949997E+02  0.14081E+05
 0.56999996E+02  0.13930E+05
 0.57049995E+02  0.13743E+05
 0.57099995E+02  0.13588E+05
 0.57149998E+02  0.13441E+05
 0.57199997E+02  0.13270E+05
 0.57249996E+02  0.13091E+05
 0.57299995E+02  0.12941E+05
 0.57349995E+02  0.12809E+05
 0.57399998E+02  0.12635E+05
 0.57449997E+02  0.12456E+05
 0.57499996E+02  0.12269E+05
 0.57549995E+02  0.12108E+05
 0.57599995E+02  0.11867E+05
 0.57649998E+02  0.11616E+05
 0.57699997E+02  0.11347E+05
 0.57749996E+02  0.11077E+05
 0.57799995E+02  0.10831E+05
 0.57849995E+02  0.10525E+05
 0.57899998E+02  0.10277E+05
 0.57949997E+02  0.10005E+05
 0.57999996E+02  0.97530E+04
 0.58049995E+02  0.94540E+04
 0.58099995E+02  0.91450E+04
 0.58149998E+02  0.89000E+04
 0.58199997E+02  0.85850E+04
 0.58249996E+02  0.83060E+04
 0.58299995E+02  0.79930E+04
 0.58349995E+02  0.76330E+04
 0.58399998E+02  0.73130E+04
 0.58449997E+02  0.69380E+04
 0.58499996E+02  0.65740E+04
 0.58549995E+02  0.61280E+04
 0.58599995E+02  0.56630E+04
 0.58649998E+02  0.52640E+04
 0.58699997E+02  0.46640E+04
 0.58749996E+02  0.41180E+04
 0.58799995E+02  0.35760E+04
 0.58849995E+02  0.29860E+04
 0.58899998E+02  0.24120E+04
 0.58949997E+02  0.17620E+04
 0.58999996E+02  0.12090E+04
 0.59049995E+02  0.58200E+03
 0.59099995E+02 -0.62000E+02
 0.59149998E+02 -0.69800E+03
 0.59199997E+02 -0.13520E+04
 0.59249996E+02 -0.19800E+04
 0.59299995E+02 -0.26260E+04
 0.59349995E+02 -0.32870E+04
 0.59399998E+02 -0.39560E+04
 0.59449997E+02 -0.45660E+04
 0.59499996E+02 -0.52090E+04
 0.59549995E+02 -0.59160E+04
 0.59599995E+02 -0.65690E+04
 0.59649998E+02 -0.71740E+04
 0.59699997E+02 -0.78210E+04
 0.59749996E+02 -0.84010E+04
 0.59799995E+02 -0.90150E+04
 0.59849995E+02 -0.96200E+04
 0.59899998E+02 -0.10158E+05
 0.59949997E+02 -0.10721E+05
 0.59999996E+02 -0.11259E+05
 0.60049995E+02 -0.11828E+05
 0.60099995E+02 -0.12266E+05
 0.60149998E+02 -0.12750E+05
 0.60199997E+02 -0.13284E+05
 0.60249996E+02 -0.13691E+05
 0.60299995E+02 -0.14167E+05
 0.60349995E+02 -0.14603E+05
 0.60399998E+02 -0.15034E+05
 0.60449997E+02 -0.15460E+05
 0.60499996E+02 -0.15825E+05
 0.60549995E+02 -0.16221E+05
 0.60599995E+02 -0.16552E+05
 0.60649998E+02 -0.16932E+05
 0.60699997E+02 -0.17308E+05
 0.60749996E+02 -0.17627E+05
 0.60799995E+02 -0.17979E+05
 0.60849995E+02 -0.18281E+05
 0.60899998E+02 -0.18571E+05
 0.60949997E+02 -0.18833E+05
 0.60999996E+02 -0.19105E+05
 0.61049995E+02 -0.19369E+05
 0.61099998E+02 -0.19584E+05
 0.61149994E+02 -0.19817E+05
 0.61199997E+02 -0.20003E+05
 0.61249992E+02 -0.20136E+05
 0.61299995E+02 -0.20285E+05
 0.61349998E+02 -0.20378E+05
 0.61399994E+02 -0.20372E+05
 0.61449997E+02 -0.20347E+05
 0.61499992E+02 -0.20302E+05
 0.61549995E+02 -0.20288E+05
 0.61599998E+02 -0.20228E+05
 0.61649994E+02 -0.20072E+05
 0.61699997E+02 -0.19951E+05
 0.61749992E+02 -0.19781E+05
 0.61799995E+02 -0.19613E+05
 0.61849998E+02 -0.19381E+05
 0.61899994E+02 -0.19099E+05
 0.61949997E+02 -0.18881E+05
 0.61999992E+02 -0.18595E+05
 0.62049995E+02 -0.18318E+05
 0.62099998E+02 -0.17974E+05
 0.62149994E+02 -0.17671E+05
 0.62199997E+02 -0.17328E+05
 0.62249992E+02 -0.16930E+05
 0.62299995E+02 -0.16611E+05
 0.62349998E+02 -0.16196E+05
 0.62399994E+02 -0.15799E+05
 0.62449997E+02 -0.15355E+05
 0.62499992E+02 -0.14946E+05
 0.62549995E+02 -0.14526E+05
 0.62599998E+02 -0.14039E+05
 0.62649994E+02 -0.13614E+05
 0.62699997E+02 -0.13128E+05
 0.62749992E+02 -0.12627E+05
 0.62799995E+02 -0.12127E+05
 0.62849998E+02 -0.11638E+05
 0.62899994E+02 -0.11153E+05
 0.62949997E+02 -0.10654E+05
 0.62999992E+02 -0.10145E+05
 0.63049995E+02 -0.96390E+04
 0.63099998E+02 -0.90870E+04
 0.63149994E+02 -0.85950E+04
 0.63199997E+02 -0.81230E+04
 0.63249992E+02 -0.75760E+04
 0.63299995E+02 -0.70830E+04
 0.63349998E+02 -0.65540E+04
 0.63399994E+02 -0.61170E+04
 0.63449997E+02 -0.56840E+04
 0.63499992E+02 -0.52460E+04
 0.63549995E+02 -0.48270E+04
 0.63599998E+02 -0.43710E+04
 0.63649994E+02 -0.40490E+04
 0.63699997E+02 -0.36440E+04
 0.63749992E+02 -0.32650E+04
 0.63799995E+02 -0.29240E+04
 0.63849998E+02 -0.25620E+04
 0.63899994E+02 -0.22810E+04
 0.63949997E+02 -0.19490E+04
 0.63999992E+02 -0.16280E+04
 0.64049995E+02 -0.13430E+04
 0.64099998E+02 -0.11320E+04
 0.64149994E+02 -0.96400E+03
 0.64199997E+02 -0.73500E+03
 0.64249992E+02 -0.56700E+03
 0.64299995E+02 -0.46500E+03
 0.64349998E+02 -0.39100E+03
 0.64399994E+02 -0.33300E+03
 0.64449997E+02 -0.26200E+03
 0.64499992E+02 -0.26500E+03
 0.64549995E+02 -0.26600E+03
 0.64599998E+02 -0.30800E+03
 0.64649994E+02 -0.42100E+03
 0.64699997E+02 -0.48200E+03
 0.64749992E+02 -0.60700E+03
 0.64799995E+02 -0.76000E+03
 0.64849998E+02 -0.90900E+03
 0.64899994E+02 -0.11180E+04
 0.64949997E+02 -0.12950E+04
 0.64999992E+02 -0.15160E+04
 0.65049995E+02 -0.17900E+04
 0.65099998E+02 -0.20140E+04
 0.65149994E+02 -0.22700E+04
 0.65199997E+02 -0.25430E+04
 0.65249992E+02 -0.28430E+04
 0.65299995E+02 -0.31010E+04
 0.65349998E+02 -0.33910E+04
 0.65399994E+02 -0.37470E+04
 0.65449997E+02 -0.40520E+04
 0.65499992E+02 -0.44230E+04
 0.65549995E+02 -0.47230E+04
 0.65599998E+02 -0.50970E+04
 0.65649994E+02 -0.54720E+04
 0.65699997E+02 -0.58090E+04
 0.65749992E+02 -0.62190E+04
 0.65799995E+02 -0.65320E+04
 0.65849998E+02 -0.69050E+04
 0.65899994E+02 -0.72740E+04
 0.65949997E+02 -0.76410E+04
 0.65999992E+02 -0.79760E+04
 0.66049995E+02 -0.83370E+04
 0.66099998E+02 -0.86480E+04
 0.66149994E+02 -0.89160E+04
 0.66199997E+02 -0.92630E+04
 0.66249992E+02 -0.94670E+04
 0.66299995E+02 -0.97210E+04
 0.66349998E+02 -0.99190E+04
 0.66399994E+02 -0.10096E+05
 0.66449997E+02 -0.10276E+05
 0.66499992E+02 -0.10411E+05
 0.66549995E+02 -0.10574E+05
 0.66599998E+02 -0.10617E+05
 0.66649994E+02 -0.10699E+05
 0.66699997E+02 -0.10757E+05
 0.66749992E+02 -0.10839E+05
 0.66799995E+02 -0.10860E+05
 0.66849998E+02 -0.10862E+05
 0.66899994E+02 -0.10950E+05
 0.66949997E+02 -0.10921E+05
 0.66999992E+02 -0.10938E+05
 0.67049995E+02 -0.10915E+05
 0.67099998E+02 -0.10874E+05
 0.67149994E+02 -0.10818E+05
 0.67199997E+02 -0.10695E+05
 0.67249992E+02 -0.10635E+05
 0.67299995E+02 -0.10487E+05
 0.67349998E+02 -0.10319E+05
 0.67399994E+02 -0.10169E+05
 0.67449997E+02 -0.10002E+05
 0.67499992E+02 -0.98470E+04
 0.67549995E+02 -0.96740E+04
 0.67599998E+02 -0.95130E+04
 0.67649994E+02 -0.93130E+04
 0.67699997E+02 -0.91290E+04
 0.67749992E+02 -0.89080E+04
 0.67799995E+02 -0.86760E+04
 0.67849998E+02 -0.84730E+04
 0.67899994E+02 -0.82190E+04
 0.67949997E+02 -0.79940E+04
 0.67999992E+02 -0.77560E+04
 0.68049995E+02 -0.75600E+04
 0.68099998E+02 -0.73450E+04
 0.68149994E+02 -0.71030E+04
 0.68199997E+02 -0.68810E+04
 0.68249992E+02 -0.66560E+04
 0.68299995E+02 -0.64830E+04
 0.68349998E+02 -0.62630E+04
 0.68399994E+02 -0.60660E+04
 0.68449997E+02 -0.58950E+04
 0.68499992E+02 -0.57360E+04
 0.68549995E+02 -0.55800E+04
 0.68599998E+02 -0.54310E+04
 0.68649994E+02 -0.53340E+04
 0.68699997E+02 -0.51960E+04
 0.68749992E+02 -0.51200E+04
 0.68799995E+02 -0.50200E+04
 0.68849998E+02 -0.49360E+04
 0.68899994E+02 -0.49010E+04
 0.68949997E+02 -0.48700E+04
 0.68999992E+02 -0.49010E+04
 0.69049995E+02 -0.48730E+04
 0.69099998E+02 -0.49280E+04
 0.69149994E+02 -0.49720E+04
 0.69199997E+02 -0.50290E+04
 0.69249992E+02 -0.50960E+04
 0.69299995E+02 -0.51650E+04
 0.69349998E+02 -0.53220E+04
 0.69399994E+02 -0.54140E+04
 0.69449997E+02 -0.55840E+04
 0.69499992E+02 -0.57460E+04
 0.69549995E+02 -0.58850E+04
 0.69599998E+02 -0.59620E+04
 0.69649994E+02 -0.60900E+04
 0.69699997E+02 -0.62360E+04
 0.69749992E+02 -0.62540E+04
 0.69799995E+02 -0.63950E+04
 0.69849998E+02 -0.64630E+04
 0.69899994E+02 -0.65110E+04
 0.69949997E+02 -0.66180E+04
 0.69999992E+02 -0.67320E+04
 0.70049995E+02 -0.68370E+04
 0.70099998E+02 -0.69380E+04
 0.70149994E+02 -0.70610E+04
 0.70199997E+02 -0.71120E+04
 0.70249992E+02 -0.72440E+04
 0.70299995E+02 -0.73570E+04
 0.70349998E+02 -0.74740E+04
 0.70399994E+02 -0.75620E+04
 0.70449997E+02 -0.76230E+04
 0.70499992E+02 -0.77650E+04
 0.70549995E+02 -0.78130E+04
 0.70599998E+02 -0.78980E+04
 0.70649994E+02 -0.79990E+04
 0.70699997E+02 -0.80720E+04
 0.70749992E+02 -0.81350E+04
 0.70799995E+02 -0.81760E+04
 0.70849998E+02 -0.82270E+04
 0.70899994E+02 -0.82120E+04
 0.70949997E+02 -0.82030E+04
 0.70999992E+02 -0.81650E+04
 0.71049995E+02 -0.81330E+04
 0.71099998E+02 -0.80980E+04
 0.71149994E+02 -0.79890E+04
 0.71199997E+02 -0.79360E+04
 0.71249992E+02 -0.78360E+04
 0.71299995E+02 -0.77440E+04
 0.71349998E+02 -0.76350E+04
 0.71399994E+02 -0.74740E+04
 0.71449997E+02 -0.73540E+04
 0.71499992E+02 -0.71540E+04
 0.71549995E+02 -0.69570E+04
 0.71599998E+02 -0.67420E+04
 0.71649994E+02 -0.65120E+04
 0.71699997E+02 -0.62600E+04
 0.71749992E+02 -0.59720E+04
 0.71799995E+02 -0.56660E+04
 0.71849998E+02 -0.53010E+04
 0.71899994E+02 -0.49730E+04
 0.71949997E+02 -0.46050E+04
 0.71999992E+02 -0.42420E+04
 0.72049995E+02 -0.38370E+04
 0.72099998E+02 -0.33990E+04
 0.72149994E+02 -0.30030E+04
 0.72199997E+02 -0.25570E+04
 0.72249992E+02 -0.20810E+04
 0.72299995E+02 -0.15920E+04
 0.72349998E+02 -0.11360E+04
 0.72399994E+02 -0.68200E+03
 0.72449997E+02 -0.20300E+03
 0.72499992E+02  0.33400E+03
 0.72549995E+02  0.87200E+03
 0.72599998E+02  0.13850E+04
 0.72649994E+02  0.19180E+04
 0.72699997E+02  0.24520E+04
 0.72749992E+02  0.30400E+04
 0.72799995E+02  0.35840E+04
 0.72849998E+02  0.41460E+04
 0.72899994E+02  0.47130E+04
 0.72949997E+02  0.52770E+04
 0.72999992E+02  0.58940E+04
 0.73049995E+02  0.64760E+04
 0.73099998E+02  0.71170E+04
 0.73149994E+02  0.77480E+04
 0.73199997E+02  0.83780E+04
 0.73249992E+02  0.90200E+04
 0.73299995E+02  0.96350E+04
 0.73349998E+02  0.10283E+05
 0.73399994E+02  0.10899E+05
 0.73449997E+02  0.11572E+05
 0.73499992E+02  0.12255E+05
 0.73549995E+02  0.12920E+05
 0.73599998E+02  0.13629E+05
 0.73649994E+02  0.14280E+05
 0.73699997E+02  0.14945E+05
 0.73749992E+02  0.15600E+05
 0.73799995E+02  0.16263E+05
 0.73849998E+02  0.16933E+05
 0.73899994E+02  0.17548E+05
 0.73949997E+02  0.18194E+05
 0.73999992E+02  0.18801E+05
 0.74049995E+02  0.19412E+05
 0.74099998E+02  0.20009E+05
 0.74149994E+02  0.20550E+05
 0.74199997E+02  0.21115E+05
 0.74249992E+02  0.21682E+05
 0.74299995E+02  0.22223E+05
 0.74349998E+02  0.22708E+05
 0.74399994E+02  0.23190E+05
 0.74449997E+02  0.23676E+05
 0.74499992E+02  0.24156E+05
 0.74549995E+02  0.24635E+05
 0.74599998E+02  0.25082E+05
 0.74649994E+02  0.25530E+05
 0.74699997E+02  0.25988E+05
 0.74749992E+02  0.26404E+05
 0.74799995E+02  0.26796E+05
 0.74849998E+02  0.27203E+05
 0.74899994E+02  0.27530E+05
 0.74949997E+02  0.27857E+05
 0.74999992E+02  0.28171E+05
 0.75049995E+02  0.28410E+05
 0.75099998E+02  0.28701E+05
 0.75149994E+02  0.28934E+05
 0.75199997E+02  0.29152E+05
 0.75249992E+02  0.29358E+05
 0.75299995E+02  0.29510E+05
 0.75349998E+02  0.29702E+05
 0.75399994E+02  0.29834E+05
 0.75449997E+02  0.29943E+05
 0.75499992E+02  0.30039E+05
 0.75549995E+02  0.30121E+05
 0.75599998E+02  0.30203E+05
 0.75649994E+02  0.30229E+05
 0.75699997E+02  0.30256E+05
 0.75749992E+02  0.30232E+05
 0.75799995E+02  0.30235E+05
 0.75849998E+02  0.30230E+05
 0.75899994E+02  0.30133E+05
 0.75949997E+02  0.30082E+05
 0.75999992E+02  0.29971E+05
 0.76049995E+02  0.29853E+05
 0.76099998E+02  0.29715E+05
 0.76149994E+02  0.29501E+05
 0.76199997E+02  0.29285E+05
 0.76249992E+02  0.29017E+05
 0.76299995E+02  0.28753E+05
 0.76349998E+02  0.28417E+05
 0.76399994E+02  0.28078E+05
 0.76449997E+02  0.27730E+05
 0.76499992E+02  0.27346E+05
 0.76549995E+02  0.27062E+05
 0.76599998E+02  0.26800E+05
 0.76649994E+02  0.26667E+05
 0.76699997E+02  0.26697E+05
 0.76749992E+02  0.26892E+05
 0.76799995E+02  0.27305E+05
 0.76849998E+02  0.27959E+05
 0.76899994E+02  0.28927E+05
 0.76949997E+02  0.30126E+05
 0.76999992E+02  0.31498E+05
 0.77049995E+02  0.32943E+05
 0.77099998E+02  0.34452E+05
 0.77149994E+02  0.35871E+05
 0.77199997E+02  0.37086E+05
 0.77249992E+02  0.38139E+05
 0.77299995E+02  0.39019E+05
 0.77349998E+02  0.40014E+05
 0.77399994E+02  0.41192E+05
 0.77449997E+02  0.42651E+05
 0.77499992E+02  0.44252E+05
 0.77549995E+02  0.45579E+05
 0.77599998E+02  0.46393E+05
 0.77649994E+02  0.46594E+05
 0.77699997E+02  0.46379E+05
 0.77749992E+02  0.45860E+05
 0.77799995E+02  0.45464E+05
 0.77849998E+02  0.45157E+05
 0.77899994E+02  0.44848E+05
 0.77949997E+02  0.44817E+05
 0.77999992E+02  0.44660E+05
 0.78049995E+02  0.44575E+05
 0.78099998E+02  0.44730E+05
 0.78149994E+02  0.44807E+05
 0.78199997E+02  0.44937E+05
 0.78249992E+02  0.44969E+05
 0.78299995E+02  0.45080E+05
 0.78349998E+02  0.46197E+05
 0.78399994E+02  0.48347E+05
 0.78449997E+02  0.50433E+05
 0.78499992E+02  0.52328E+05
 0.78549995E+02  0.53862E+05
 0.78599998E+02  0.54196E+05
 0.78649994E+02  0.53702E+05
 0.78699997E+02  0.52547E+05
 0.78749992E+02  0.50996E+05
 0.78799995E+02  0.48796E+05
 0.78849998E+02  0.45162E+05
 0.78899994E+02  0.41550E+05
 0.78949997E+02  0.38446E+05
 0.78999992E+02  0.34409E+05
 0.79049995E+02  0.29449E+05
 0.79099998E+02  0.24484E+05
 0.79149994E+02  0.18456E+05
 0.79199997E+02  0.11132E+05
 0.79249992E+02  0.48200E+04
 0.79299995E+02 -0.10490E+04
 0.79349998E+02 -0.78140E+04
 0.79399994E+02 -0.14484E+05
 0.79449997E+02 -0.19905E+05
 0.79499992E+02 -0.24469E+05
 0.79549995E+02 -0.29795E+05
 0.79599998E+02 -0.34852E+05
 0.79649994E+02 -0.38073E+05
 0.79699997E+02 -0.39737E+05
 0.79749992E+02 -0.40044E+05
 0.79799995E+02 -0.39086E+05
 0.79849998E+02 -0.38141E+05
 0.79899994E+02 -0.38839E+05
 0.79949997E+02 -0.40001E+05
 0.79999992E+02 -0.40795E+05
 0.80049995E+02 -0.41649E+05
 0.80099998E+02 -0.41879E+05
 0.80149994E+02 -0.41134E+05
 0.80199997E+02 -0.39068E+05
 0.80249992E+02 -0.35975E+05
 0.80299995E+02 -0.31638E+05
 0.80349998E+02 -0.25255E+05
 0.80399994E+02 -0.17668E+05
 0.80449997E+02 -0.98470E+04
 0.80499992E+02 -0.34940E+04
 0.80549995E+02 -0.73400E+03
 0.80599998E+02 -0.17180E+04
 0.80649994E+02 -0.32670E+04
 0.80699997E+02 -0.21420E+04
 0.80749992E+02  0.76200E+03
 0.80799995E+02  0.53030E+04
 0.80849998E+02  0.12773E+05
 0.80899994E+02  0.21522E+05
 0.80949997E+02  0.29318E+05
 0.80999992E+02  0.35540E+05
 0.81049995E+02  0.40494E+05
 0.81099998E+02  0.45864E+05
 0.81149994E+02  0.54037E+05
 0.81199997E+02  0.65961E+05
 0.81249992E+02  0.79264E+05
 0.81299995E+02  0.91247E+05
 0.81349998E+02  0.10200E+06
 0.81399994E+02  0.11081E+06
 0.81449997E+02  0.11919E+06
 0.81499992E+02  0.13080E+06
 0.81549995E+02  0.14244E+06
 0.81599998E+02  0.14800E+06
 0.81649994E+02  0.14843E+06
 0.81699997E+02  0.14764E+06
 0.81749992E+02  0.14514E+06
 0.81799995E+02  0.13908E+06
 0.81849998E+02  0.12897E+06
 0.81899994E+02  0.11658E+06
 0.81949997E+02  0.10197E+06
 0.81999992E+02  0.84642E+05
 0.82049995E+02  0.67654E+05
 0.82099998E+02  0.54450E+05
 0.82149994E+02  0.49631E+05
 0.82199997E+02  0.54116E+05
 0.82249992E+02  0.68881E+05
 0.82299995E+02  0.96434E+05
 0.82349998E+02  0.13148E+06
 0.82399994E+02  0.16370E+06
 0.82449997E+02  0.18723E+06
 0.82499992E+02  0.20657E+06
 0.82549995E+02  0.22506E+06
 0.82599998E+02  0.24083E+06
 0.82649994E+02  0.25594E+06
 0.82699997E+02  0.27522E+06
 0.82749992E+02  0.29500E+06
 0.82799995E+02  0.30482E+06
 0.82849998E+02  0.30496E+06
 0.82899994E+02  0.29909E+06
 0.82949997E+02  0.28524E+06
 0.82999992E+02  0.26458E+06
 0.83049995E+02  0.23938E+06
 0.83099998E+02  0.21326E+06
 0.83149994E+02  0.18972E+06
 0.83199997E+02  0.16674E+06
 0.83249992E+02  0.14378E+06
 0.83299995E+02  0.12137E+06
 0.83349998E+02  0.98140E+05
 0.83399994E+02  0.77923E+05
 0.83449997E+02  0.67790E+05
 0.83499992E+02  0.68301E+05
 0.83549995E+02  0.73713E+05
 0.83599998E+02  0.74060E+05
 0.83649994E+02  0.63472E+05
 0.83699997E+02  0.52357E+05
 0.83749992E+02  0.49238E+05
 0.83799995E+02  0.44305E+05
 0.83849998E+02  0.30031E+05
 0.83899994E+02  0.10486E+05
 0.83949997E+02 -0.12560E+05
 0.83999992E+02 -0.35524E+05
 0.84049995E+02 -0.48557E+05
 0.84099998E+02 -0.48515E+05
 0.84149994E+02 -0.42933E+05
 0.84199997E+02 -0.33525E+05
 0.84249992E+02 -0.12679E+05
 0.84299995E+02  0.18821E+05
 0.84349998E+02  0.52580E+05
 0.84399994E+02  0.84029E+05
 0.84449997E+02  0.10892E+06
 0.84499992E+02  0.12122E+06
 0.84549995E+02  0.11904E+06
 0.84599998E+02  0.98127E+05
 0.84649994E+02  0.57072E+05
 0.84699997E+02 -0.69000E+02
 0.84749992E+02 -0.73109E+05
 0.84799995E+02 -0.15870E+06
 0.84849998E+02 -0.25190E+06
 0.84899994E+02 -0.34221E+06
 0.84949997E+02 -0.41709E+06
 0.84999992E+02 -0.47671E+06
 0.85049995E+02 -0.52257E+06
 0.85099998E+02 -0.54932E+06
 0.85149994E+02 -0.55271E+06
 0.85199997E+02 -0.53370E+06
 0.85249992E+02 -0.49252E+06
 0.85299995E+02 -0.43147E+06
 0.85349998E+02 -0.36479E+06
 0.85399994E+02 -0.30290E+06
 0.85449997E+02 -0.24250E+06
 0.85499992E+02 -0.18157E+06
 0.85549995E+02 -0.12140E+06
 0.85599998E+02 -0.65526E+05
 0.85649994E+02 -0.21852E+05
 0.85699997E+02  0.83540E+04
 0.85749992E+02  0.26761E+05
 0.85799995E+02  0.23253E+05
 0.85849998E+02 -0.56690E+04
 0.85899994E+02 -0.47551E+05
 0.85949997E+02 -0.90794E+05
 0.85999992E+02 -0.12385E+06
 0.86049995E+02 -0.14290E+06
 0.86099998E+02 -0.15461E+06
 0.86149994E+02 -0.16681E+06
 0.86199997E+02 -0.18576E+06
 0.86249992E+02 -0.20751E+06
 0.86299995E+02 -0.22124E+06
 0.86349998E+02 -0.21538E+06
 0.86399994E+02 -0.18889E+06
 0.86449997E+02 -0.14986E+06
 0.86499992E+02 -0.10992E+06
 0.86549995E+02 -0.82669E+05
 0.86599991E+02 -0.70537E+05
 0.86649994E+02 -0.74797E+05
 0.86699997E+02 -0.89103E+05
 0.86749992E+02 -0.10539E+06
 0.86799995E+02 -0.12416E+06
 0.86849991E+02 -0.13712E+06
 0.86899994E+02 -0.13848E+06
 0.86949997E+02 -0.13201E+06
 0.86999992E+02 -0.12328E+06
 0.87049995E+02 -0.10886E+06
 0.87099991E+02 -0.84805E+05
 0.87149994E+02 -0.54464E+05
 0.87199997E+02 -0.25250E+05
 0.87249992E+02 -0.10743E+05
 0.87299995E+02 -0.16859E+05
 0.87349991E+02 -0.36049E+05
 0.87399994E+02 -0.49327E+05
 0.87449997E+02 -0.47812E+05
 0.87499992E+02 -0.42597E+05
 0.87549995E+02 -0.39256E+05
 0.87599991E+02 -0.29734E+05
 0.87649994E+02 -0.85250E+04
 0.87699997E+02  0.25335E+05
 0.87749992E+02  0.69929E+05
 0.87799995E+02  0.10884E+06
 0.87849991E+02  0.13243E+06
 0.87899994E+02  0.14749E+06
 0.87949997E+02  0.14638E+06
 0.87999992E+02  0.11514E+06
 0.88049995E+02  0.73286E+05
 0.88099991E+02  0.46882E+05
 0.88149994E+02  0.38146E+05
 0.88199997E+02  0.41826E+05
 0.88249992E+02  0.46639E+05
 0.88299995E+02  0.47832E+05
 0.88349991E+02  0.42323E+05
 0.88399994E+02  0.33987E+05
 0.88449997E+02  0.33102E+05
 0.88499992E+02  0.31175E+05
 0.88549995E+02  0.20011E+05
 0.88599991E+02 -0.16410E+04
 0.88649994E+02 -0.27849E+05
 0.88699997E+02 -0.43856E+05
 0.88749992E+02 -0.44125E+05
 0.88799995E+02 -0.40227E+05
 0.88849991E+02 -0.50726E+05
 0.88899994E+02 -0.75994E+05
 0.88949997E+02 -0.99104E+05
 0.88999992E+02 -0.11305E+06
 0.89049995E+02 -0.11571E+06
 0.89099991E+02 -0.10711E+06
 0.89149994E+02 -0.97961E+05
 0.89199997E+02 -0.96946E+05
 0.89249992E+02 -0.10978E+06
 0.89299995E+02 -0.13554E+06
 0.89349991E+02 -0.16440E+06
 0.89399994E+02 -0.17904E+06
 0.89449997E+02 -0.16757E+06
 0.89499992E+02 -0.14123E+06
 0.89549995E+02 -0.11846E+06
 0.89599991E+02 -0.10827E+06
 0.89649994E+02 -0.11821E+06
 0.89699997E+02 -0.15401E+06
 0.89749992E+02 -0.19676E+06
 0.89799995E+02 -0.22446E+06
 0.89849991E+02 -0.23842E+06
 0.89899994E+02 -0.24868E+06
 0.89949997E+02 -0.26280E+06
 0.89999992E+02 -0.28359E+06
 0.90049995E+02 -0.30728E+06
 0.90099991E+02 -0.31727E+06
 0.90149994E+02 -0.30889E+06
 0.90199997E+02 -0.29229E+06
 0.90249992E+02 -0.27060E+06
 0.90299995E+02 -0.25218E+06
 0.90349991E+02 -0.24730E+06
 0.90399994E+02 -0.25412E+06
 0.90449997E+02 -0.25846E+06
 0.90499992E+02 -0.25741E+06
 0.90549995E+02 -0.26504E+06
 0.90599991E+02 -0.28132E+06
 0.90649994E+02 -0.29573E+06
 0.90699997E+02 -0.30141E+06
 0.90749992E+02 -0.29532E+06
 0.90799995E+02 -0.26902E+06
 0.90849991E+02 -0.22114E+06
 0.90899994E+02 -0.17536E+06
 0.90949997E+02 -0.14670E+06
 0.90999992E+02 -0.14254E+06
 0.91049995E+02 -0.16318E+06
 0.91099991E+02 -0.18813E+06
 0.91149994E+02 -0.21135E+06
 0.91199997E+02 -0.22794E+06
 0.91249992E+02 -0.22628E+06
 0.91299995E+02 -0.21037E+06
 0.91349991E+02 -0.20078E+06
 0.91399994E+02 -0.21381E+06
 0.91449997E+02 -0.23224E+06
 0.91499992E+02 -0.23660E+06
 0.91549995E+02 -0.21894E+06
 0.91599991E+02 -0.18950E+06
 0.91649994E+02 -0.16527E+06
 0.91699997E+02 -0.14431E+06
 0.91749992E+02 -0.13469E+06
 0.91799995E+02 -0.12850E+06
 0.91849991E+02 -0.10996E+06
 0.91899994E+02 -0.92661E+05
 0.91949997E+02 -0.80620E+05
 0.91999992E+02 -0.60527E+05
 0.92049995E+02 -0.35206E+05
 0.92099991E+02 -0.25430E+05
 0.92149994E+02 -0.38960E+05
 0.92199997E+02 -0.59407E+05
 0.92249992E+02 -0.62792E+05
 0.92299995E+02 -0.34634E+05
 0.92349991E+02  0.39760E+04
 0.92399994E+02  0.23071E+05
 0.92449997E+02  0.27331E+05
 0.92499992E+02  0.33583E+05
 0.92549995E+02  0.59298E+05
 0.92599991E+02  0.99838E+05
 0.92649994E+02  0.14348E+06
 0.92699997E+02  0.18250E+06
 0.92749992E+02  0.20066E+06
 0.92799995E+02  0.21080E+06
 0.92849991E+02  0.22120E+06
 0.92899994E+02  0.23057E+06
 0.92949997E+02  0.24369E+06
 0.92999992E+02  0.25526E+06
 0.93049995E+02  0.25985E+06
 0.93099991E+02  0.25668E+06
 0.93149994E+02  0.24890E+06
 0.93199997E+02  0.23495E+06
 0.93249992E+02  0.22078E+06
 0.93299995E+02  0.21164E+06
 0.93349991E+02  0.20192E+06
 0.93399994E+02  0.18901E+06
 0.93449997E+02  0.18250E+06
 0.93499992E+02  0.18855E+06
 0.93549995E+02  0.19857E+06
 0.93599991E+02  0.19907E+06
 0.93649994E+02  0.18850E+06
 0.93699997E+02  0.18640E+06
 0.93749992E+02  0.19125E+06
 0.93799995E+02  0.20101E+06
 0.93849991E+02  0.22076E+06
 0.93899994E+02  0.23208E+06
 0.93949997E+02  0.21826E+06
 0.93999992E+02  0.17086E+06
 0.94049995E+02  0.10735E+06
 0.94099991E+02  0.50399E+05
 0.94149994E+02  0.64660E+04
 0.94199997E+02 -0.16608E+05
 0.94249992E+02 -0.26268E+05
 0.94299995E+02 -0.27814E+05
 0.94349991E+02 -0.21082E+05
 0.94399994E+02 -0.14319E+05
 0.94449997E+02 -0.90210E+04
 0.94499992E+02 -0.97220E+04
 0.94549995E+02 -0.11718E+05
 0.94599991E+02 -0.10832E+05
 0.94649994E+02 -0.16026E+05
 0.94699997E+02 -0.17885E+05
 0.94749992E+02 -0.90160E+04
 0.94799995E+02  0.15500E+03
 0.94849991E+02 -0.35800E+03
 0.94899994E+02 -0.10302E+05
 0.94949997E+02 -0.19984E+05
 0.94999992E+02 -0.23720E+05
 0.95049995E+02 -0.13881E+05
 0.95099991E+02  0.90480E+04
 0.95149994E+02  0.21972E+05
 0.95199997E+02  0.17835E+05
 0.95249992E+02  0.48360E+04
 0.95299995E+02 -0.12073E+05
 0.95349991E+02 -0.26862E+05
 0.95399994E+02 -0.46093E+05
 0.95449997E+02 -0.63449E+05
 0.95499992E+02 -0.59759E+05
 0.95549995E+02 -0.35563E+05
 0.95599991E+02 -0.55990E+04
 0.95649994E+02  0.11741E+05
 0.95699997E+02  0.12609E+05
 0.95749992E+02  0.12847E+05
 0.95799995E+02  0.17507E+05
 0.95849991E+02  0.47040E+04
 0.95899994E+02 -0.26266E+05
 0.95949997E+02 -0.45363E+05
 0.95999992E+02 -0.46176E+05
 0.96049995E+02 -0.27606E+05
 0.96099991E+02  0.17460E+04
 0.96149994E+02  0.15378E+05
 0.96199997E+02  0.15178E+05
 0.96249992E+02  0.15063E+05
 0.96299995E+02  0.26619E+05
 0.96349991E+02  0.44364E+05
 0.96399994E+02  0.45542E+05
 0.96449997E+02  0.27428E+05
 0.96499992E+02  0.72560E+04
 0.96549995E+02  0.54600E+03
 0.96599991E+02  0.82100E+03
 0.96649994E+02 -0.57390E+04
 0.96699997E+02 -0.25840E+05
 0.96749992E+02 -0.57511E+05
 0.96799995E+02 -0.79419E+05
 0.96849991E+02 -0.83455E+05
 0.96899994E+02 -0.85384E+05
 0.96949997E+02 -0.85296E+05
 0.96999992E+02 -0.76952E+05
 0.97049995E+02 -0.58674E+05
 0.97099991E+02 -0.41226E+05
 0.97149994E+02 -0.51146E+05
 0.97199997E+02 -0.87643E+05
 0.97249992E+02 -0.12831E+06
 0.97299995E+02 -0.15315E+06
 0.97349991E+02 -0.15503E+06
 0.97399994E+02 -0.14710E+06
 0.97449997E+02 -0.14852E+06
 0.97499992E+02 -0.15776E+06
 0.97549995E+02 -0.15775E+06
 0.97599991E+02 -0.15553E+06
 0.97649994E+02 -0.15828E+06
 0.97699997E+02 -0.16640E+06
 0.97749992E+02 -0.18104E+06
 0.97799995E+02 -0.20331E+06
 0.97849991E+02 -0.22898E+06
 0.97899994E+02 -0.23490E+06
 0.97949997E+02 -0.22522E+06
 0.97999992E+02 -0.21286E+06
 0.98049995E+02 -0.21285E+06
 0.98099991E+02 -0.22989E+06
 0.98149994E+02 -0.24496E+06
 0.98199997E+02 -0.25903E+06
 0.98249992E+02 -0.26788E+06
 0.98299995E+02 -0.27746E+06
 0.98349991E+02 -0.29643E+06
 0.98399994E+02 -0.32683E+06
 0.98449997E+02 -0.36883E+06
 0.98499992E+02 -0.40213E+06
 0.98549995E+02 -0.40710E+06
 0.98599991E+02 -0.37965E+06
 0.98649994E+02 -0.34857E+06
 0.98699997E+02 -0.33621E+06
 0.98749992E+02 -0.33630E+06
 0.98799995E+02 -0.33821E+06
 0.98849991E+02 -0.34888E+06
 0.98899994E+02 -0.36907E+06
 0.98949997E+02 -0.37460E+06
 0.98999992E+02 -0.37279E+06
 0.99049995E+02 -0.38675E+06
 0.99099991E+02 -0.42130E+06
 0.99149994E+02 -0.46509E+06
 0.99199997E+02 -0.49999E+06
 0.99249992E+02 -0.51982E+06
 0.99299995E+02 -0.52255E+06
 0.99349991E+02 -0.50629E+06
 0.99399994E+02 -0.46850E+06
 0.99449997E+02 -0.41969E+06
 0.99499992E+02 -0.38490E+06
 0.99549995E+02 -0.36099E+06
 0.99599991E+02 -0.32940E+06
 0.99649994E+02 -0.30278E+06
 0.99699997E+02 -0.29154E+06
 0.99749992E+02 -0.28150E+06
 0.99799995E+02 -0.27977E+06
 0.99849991E+02 -0.29315E+06
 0.99899994E+02 -0.31016E+06
 0.99949997E+02 -0.32947E+06
 0.99999992E+02 -0.34548E+06
 0.10005000E+03 -0.36387E+06
 0.10009999E+03 -0.38948E+06
 0.10014999E+03 -0.40170E+06
 0.10020000E+03 -0.38700E+06
 0.10024999E+03 -0.35869E+06
 0.10030000E+03 -0.33484E+06
 0.10034999E+03 -0.30398E+06
 0.10039999E+03 -0.25685E+06
 0.10045000E+03 -0.21390E+06
 0.10049999E+03 -0.18959E+06
 0.10055000E+03 -0.17568E+06
 0.10059999E+03 -0.15770E+06
 0.10064999E+03 -0.12404E+06
 0.10070000E+03 -0.71147E+05
 0.10074999E+03 -0.11111E+05
 0.10080000E+03  0.28124E+05
 0.10084999E+03  0.26202E+05
 0.10089999E+03 -0.70580E+04
 0.10095000E+03 -0.50776E+05
 0.10099999E+03 -0.96814E+05
 0.10105000E+03 -0.14260E+06
 0.10109999E+03 -0.18043E+06
 0.10114999E+03 -0.20689E+06
 0.10120000E+03 -0.21842E+06
 0.10124999E+03 -0.21744E+06
 0.10130000E+03 -0.21547E+06
 0.10134999E+03 -0.21832E+06
 0.10139999E+03 -0.23064E+06
 0.10145000E+03 -0.25188E+06
 0.10149999E+03 -0.28257E+06
 0.10155000E+03 -0.30434E+06
 0.10159999E+03 -0.29102E+06
 0.10164999E+03 -0.25898E+06
 0.10170000E+03 -0.22530E+06
 0.10174999E+03 -0.19200E+06
 0.10180000E+03 -0.16646E+06
 0.10184999E+03 -0.15496E+06
 0.10189999E+03 -0.15990E+06
 0.10195000E+03 -0.16552E+06
 0.10199999E+03 -0.15410E+06
 0.10205000E+03 -0.13094E+06
 0.10209999E+03 -0.11019E+06
 0.10214999E+03 -0.95290E+05
 0.10220000E+03 -0.90540E+05
 0.10224999E+03 -0.10066E+06
 0.10230000E+03 -0.12351E+06
 0.10234999E+03 -0.15415E+06
 0.10239999E+03 -0.18369E+06
 0.10245000E+03 -0.20775E+06
 0.10249999E+03 -0.22602E+06
 0.10255000E+03 -0.23293E+06
 0.10259999E+03 -0.22055E+06
 0.10264999E+03 -0.20118E+06
 0.10270000E+03 -0.19470E+06
 0.10274999E+03 -0.19828E+06
 0.10280000E+03 -0.20652E+06
 0.10284999E+03 -0.21441E+06
 0.10289999E+03 -0.21355E+06
 0.10295000E+03 -0.20684E+06
 0.10299999E+03 -0.18470E+06
 0.10305000E+03 -0.14796E+06
 0.10309999E+03 -0.12199E+06
 0.10314999E+03 -0.11033E+06
 0.10320000E+03 -0.10938E+06
 0.10324999E+03 -0.11411E+06
 0.10330000E+03 -0.12083E+06
 0.10334999E+03 -0.13403E+06
 0.10339999E+03 -0.14917E+06
 0.10345000E+03 -0.16237E+06
 0.10349999E+03 -0.17224E+06
 0.10355000E+03 -0.17078E+06
 0.10359999E+03 -0.15402E+06
 0.10364999E+03 -0.13344E+06
 0.10370000E+03 -0.98433E+05
 0.10374999E+03 -0.46224E+05
 0.10380000E+03 -0.27170E+04
 0.10384999E+03  0.34855E+05
 0.10389999E+03  0.68648E+05
 0.10395000E+03  0.92904E+05
 0.10399999E+03  0.11380E+06
 0.10405000E+03  0.13186E+06
 0.10409999E+03  0.13382E+06
 0.10414999E+03  0.11869E+06
 0.10420000E+03  0.11077E+06
 0.10424999E+03  0.11043E+06
 0.10430000E+03  0.98751E+05
 0.10434999E+03  0.86366E+05
 0.10439999E+03  0.85469E+05
 0.10445000E+03  0.99070E+05
 0.10449999E+03  0.13514E+06
 0.10455000E+03  0.16202E+06
 0.10459999E+03  0.16420E+06
 0.10464999E+03  0.15471E+06
 0.10470000E+03  0.12700E+06
 0.10474999E+03  0.10083E+06
 0.10480000E+03  0.87265E+05
 0.10484999E+03  0.69439E+05
 0.10489999E+03  0.51847E+05
 0.10495000E+03  0.43595E+05
 0.10499999E+03  0.33212E+05
 0.10505000E+03  0.11538E+05
 0.10509999E+03 -0.18785E+05
 0.10514999E+03 -0.40791E+05
 0.10520000E+03 -0.35691E+05
 0.10524999E+03 -0.19694E+05
 0.10530000E+03 -0.22774E+05
 0.10534999E+03 -0.39876E+05
 0.10539999E+03 -0.52624E+05
 0.10545000E+03 -0.46131E+05
 0.10549999E+03 -0.99540E+04
 0.10555000E+03  0.26925E+05
 0.10559999E+03  0.46578E+05
 0.10564999E+03  0.63318E+05
 0.10570000E+03  0.80732E+05
 0.10574999E+03  0.79676E+05
 0.10580000E+03  0.54718E+05
 0.10584999E+03  0.30416E+05
 0.10589999E+03  0.76410E+04
 0.10595000E+03 -0.21045E+05
 0.10599999E+03 -0.54041E+05
 0.10605000E+03 -0.91592E+05
 0.10609999E+03 -0.14137E+06
 0.10614999E+03 -0.20309E+06
 0.10620000E+03 -0.25787E+06
 0.10624999E+03 -0.29080E+06
 0.10630000E+03 -0.29840E+06
 0.10634999E+03 -0.28476E+06
 0.10639999E+03 -0.24258E+06
 0.10645000E+03 -0.17164E+06
 0.10649999E+03 -0.92992E+05
 0.10655000E+03 -0.33676E+05
 0.10659999E+03 -0.10575E+05
 0.10664999E+03 -0.15316E+05
 0.10670000E+03 -0.80960E+04
 0.10674999E+03  0.36651E+05
 0.10680000E+03  0.87886E+05
 0.10684999E+03  0.10575E+06
 0.10689999E+03  0.84444E+05
 0.10695000E+03  0.59934E+05
 0.10699999E+03  0.63900E+05
 0.10705000E+03  0.77348E+05
 0.10709999E+03  0.73914E+05
 0.10714999E+03  0.55467E+05
 0.10720000E+03  0.43362E+05
 0.10724999E+03  0.54001E+05
 0.10730000E+03  0.76408E+05
 0.10734999E+03  0.97057E+05
 0.10739999E+03  0.11064E+06
 0.10745000E+03  0.12574E+06
 0.10749999E+03  0.15120E+06
 0.10755000E+03  0.18003E+06
 0.10759999E+03  0.20724E+06
 0.10764999E+03  0.20949E+06
 0.10770000E+03  0.19407E+06
 0.10774999E+03  0.19884E+06
 0.10780000E+03  0.21557E+06
 0.10784999E+03  0.22340E+06
 0.10789999E+03  0.22033E+06
 0.10795000E+03  0.20801E+06
 0.10799999E+03  0.18971E+06
 0.10805000E+03  0.17129E+06
 0.10809999E+03  0.15778E+06
 0.10814999E+03  0.14234E+06
 0.10820000E+03  0.12018E+06
 0.10824999E+03  0.10675E+06
 0.10830000E+03  0.10773E+06
 0.10834999E+03  0.11119E+06
 0.10839999E+03  0.10447E+06
 0.10845000E+03  0.89510E+05
 0.10849999E+03  0.80654E+05
 0.10855000E+03  0.81905E+05
 0.10859999E+03  0.95683E+05
 0.10864999E+03  0.13134E+06
 0.10870000E+03  0.17507E+06
 0.10874999E+03  0.19012E+06
 0.10880000E+03  0.17201E+06
 0.10884999E+03  0.14248E+06
 0.10889999E+03  0.10829E+06
 0.10895000E+03  0.74299E+05
 0.10899999E+03  0.45852E+05
 0.10905000E+03  0.12588E+05
 0.10909999E+03 -0.22751E+05
 0.10914999E+03 -0.50299E+05
 0.10920000E+03 -0.75395E+05
 0.10924999E+03 -0.94360E+05
 0.10930000E+03 -0.94844E+05
 0.10934999E+03 -0.78392E+05
 0.10939999E+03 -0.71038E+05
 0.10945000E+03 -0.84243E+05
 0.10949999E+03 -0.10107E+06
 0.10955000E+03 -0.12559E+06
 0.10959999E+03 -0.16656E+06
 0.10964999E+03 -0.18945E+06
 0.10970000E+03 -0.16597E+06
 0.10974999E+03 -0.11868E+06
 0.10980000E+03 -0.89039E+05
 0.10984999E+03 -0.88739E+05
 0.10989999E+03 -0.90875E+05
 0.10995000E+03 -0.82346E+05
 0.10999999E+03 -0.75456E+05
 0.11005000E+03 -0.80890E+05
 0.11009999E+03 -0.93564E+05
 0.11014999E+03 -0.10393E+06
 0.11020000E+03 -0.10316E+06
 0.11024999E+03 -0.94827E+05
 0.11030000E+03 -0.96863E+05
 0.11034999E+03 -0.10837E+06
 0.11039999E+03 -0.12933E+06
 0.11045000E+03 -0.16027E+06
 0.11049999E+03 -0.18991E+06
 0.11055000E+03 -0.21858E+06
 0.11059999E+03 -0.25661E+06
 0.11064999E+03 -0.29438E+06
 0.11070000E+03 -0.31528E+06
 0.11074999E+03 -0.32190E+06
 0.11080000E+03 -0.31845E+06
 0.11084999E+03 -0.31470E+06
 0.11089999E+03 -0.31038E+06
 0.11095000E+03 -0.29746E+06
 0.11099999E+03 -0.28156E+06
 0.11105000E+03 -0.26984E+06
 0.11109999E+03 -0.26511E+06
 0.11114999E+03 -0.26647E+06
 0.11120000E+03 -0.27384E+06
 0.11124999E+03 -0.28614E+06
 0.11130000E+03 -0.29458E+06
 0.11134999E+03 -0.29136E+06
 0.11139999E+03 -0.28672E+06
 0.11145000E+03 -0.28609E+06
 0.11149999E+03 -0.29422E+06
 0.11155000E+03 -0.30694E+06
 0.11159999E+03 -0.30948E+06
 0.11164999E+03 -0.31300E+06
 0.11170000E+03 -0.31561E+06
 0.11174999E+03 -0.32001E+06
 0.11180000E+03 -0.33742E+06
 0.11184999E+03 -0.35405E+06
 0.11189999E+03 -0.36014E+06
 0.11195000E+03 -0.34452E+06
 0.11199999E+03 -0.30567E+06
 0.11205000E+03 -0.26064E+06
 0.11209999E+03 -0.20861E+06
 0.11214999E+03 -0.13918E+06
 0.11220000E+03 -0.64739E+05
 0.11224999E+03 -0.12765E+05
 0.11230000E+03  0.44570E+04
 0.11234999E+03  0.88120E+04
 0.11239999E+03  0.18829E+05
 0.11244999E+03  0.24734E+05
 0.11249999E+03  0.15543E+05
 0.11255000E+03 -0.21530E+04
 0.11259999E+03 -0.74410E+04
 0.11264999E+03  0.73250E+04
 0.11269999E+03  0.50962E+05
 0.11274999E+03  0.13308E+06
 0.11280000E+03  0.22724E+06
 0.11284999E+03  0.30980E+06
 0.11289999E+03  0.37491E+06
 0.11294999E+03  0.41257E+06
 0.11299999E+03  0.42615E+06
 0.11305000E+03  0.42529E+06
 0.11309999E+03  0.42243E+06
 0.11314999E+03  0.42629E+06
 0.11319999E+03  0.43326E+06
 0.11324999E+03  0.43850E+06
 0.11330000E+03  0.43507E+06
 0.11334999E+03  0.42106E+06
 0.11339999E+03  0.40614E+06
 0.11344999E+03  0.40226E+06
 0.11349999E+03  0.40107E+06
 0.11355000E+03  0.39651E+06
 0.11359999E+03  0.39132E+06
 0.11364999E+03  0.37354E+06
 0.11369999E+03  0.34356E+06
 0.11374999E+03  0.31669E+06
 0.11380000E+03  0.30234E+06
 0.11384999E+03  0.30217E+06
 0.11389999E+03  0.31912E+06
 0.11394999E+03  0.35023E+06
 0.11399999E+03  0.37718E+06
 0.11405000E+03  0.39060E+06
 0.11409999E+03  0.39538E+06
 0.11414999E+03  0.39395E+06
 0.11419999E+03  0.38232E+06
 0.11424999E+03  0.35688E+06
 0.11430000E+03  0.32614E+06
 0.11434999E+03  0.29044E+06
 0.11439999E+03  0.25390E+06
 0.11444999E+03  0.23595E+06
 0.11449999E+03  0.23279E+06
 0.11455000E+03  0.23790E+06
 0.11459999E+03  0.24883E+06
 0.11464999E+03  0.26460E+06
 0.11469999E+03  0.28869E+06
 0.11474999E+03  0.31643E+06
 0.11480000E+03  0.34420E+06
 0.11484999E+03  0.36239E+06
 0.11489999E+03  0.37639E+06
 0.11494999E+03  0.39149E+06
 0.11499999E+03  0.39069E+06
 0.11505000E+03  0.37380E+06
 0.11509999E+03  0.35444E+06
 0.11514999E+03  0.35174E+06
 0.11519999E+03  0.37433E+06
 0.11524999E+03  0.40597E+06
 0.11530000E+03  0.43766E+06
 0.11534999E+03  0.47305E+06
 0.11539999E+03  0.51286E+06
 0.11544999E+03  0.53930E+06
 0.11549999E+03  0.53259E+06
 0.11555000E+03  0.49957E+06
 0.11559999E+03  0.45373E+06
 0.11564999E+03  0.41622E+06
 0.11569999E+03  0.39817E+06
 0.11574999E+03  0.38464E+06
 0.11580000E+03  0.37026E+06
 0.11584999E+03  0.35647E+06
 0.11589999E+03  0.35685E+06
 0.11594999E+03  0.38632E+06
 0.11599999E+03  0.43201E+06
 0.11605000E+03  0.46773E+06
 0.11609999E+03  0.47457E+06
 0.11614999E+03  0.46500E+06
 0.11619999E+03  0.46348E+06
 0.11624999E+03  0.47236E+06
 0.11630000E+03  0.47371E+06
 0.11634999E+03  0.45721E+06
 0.11639999E+03  0.43694E+06
 0.11644999E+03  0.40999E+06
 0.11649999E+03  0.37826E+06
 0.11655000E+03  0.36472E+06
 0.11659999E+03  0.35445E+06
 0.11664999E+03  0.33195E+06
 0.11669999E+03  0.30695E+06
 0.11674999E+03  0.28660E+06
 0.11680000E+03  0.27075E+06
 0.11684999E+03  0.25141E+06
 0.11689999E+03  0.23574E+06
 0.11694999E+03  0.23952E+06
 0.11699999E+03  0.26380E+06
 0.11705000E+03  0.29483E+06
 0.11709999E+03  0.32234E+06
 0.11714999E+03  0.33852E+06
 0.11719999E+03  0.34679E+06
 0.11724999E+03  0.35917E+06
 0.11730000E+03  0.37430E+06
 0.11734999E+03  0.38540E+06
 0.11739999E+03  0.38258E+06
 0.11744999E+03  0.38332E+06
 0.11749999E+03  0.39761E+06
 0.11755000E+03  0.41009E+06
 0.11759999E+03  0.42826E+06
 0.11764999E+03  0.45244E+06
 0.11769999E+03  0.45364E+06
 0.11774999E+03  0.42490E+06
 0.11780000E+03  0.40870E+06
 0.11784999E+03  0.42699E+06
 0.11789999E+03  0.46776E+06
 0.11794999E+03  0.51453E+06
 0.11799999E+03  0.55736E+06
 0.11805000E+03  0.59204E+06
 0.11809999E+03  0.60685E+06
 0.11814999E+03  0.60978E+06
 0.11819999E+03  0.61813E+06
 0.11824999E+03  0.63171E+06
 0.11830000E+03  0.63396E+06
 0.11834999E+03  0.63029E+06
 0.11839999E+03  0.63777E+06
 0.11844999E+03  0.64552E+06
 0.11849999E+03  0.64323E+06
 0.11855000E+03  0.63571E+06
 0.11859999E+03  0.63553E+06
 0.11864999E+03  0.64005E+06
 0.11869999E+03  0.62881E+06
 0.11874999E+03  0.60251E+06
 0.11880000E+03  0.58594E+06
 0.11884999E+03  0.58630E+06
 0.11889999E+03  0.58651E+06
 0.11894999E+03  0.58234E+06
 0.11899999E+03  0.57783E+06
 0.11905000E+03  0.56699E+06
 0.11909999E+03  0.55232E+06
 0.11914999E+03  0.53479E+06
 0.11919999E+03  0.50044E+06
 0.11924999E+03  0.44574E+06
 0.11930000E+03  0.38793E+06
 0.11934999E+03  0.33444E+06
 0.11939999E+03  0.29046E+06
 0.11944999E+03  0.26706E+06
 0.11949999E+03  0.25926E+06
 0.11955000E+03  0.27013E+06
 0.11959999E+03  0.29563E+06
 0.11964999E+03  0.32467E+06
 0.11969999E+03  0.34433E+06
 0.11974999E+03  0.33226E+06
 0.11980000E+03  0.29767E+06
 0.11984999E+03  0.26741E+06
 0.11989999E+03  0.25329E+06
 0.11994999E+03  0.25330E+06
 0.11999999E+03  0.26065E+06
 0.12005000E+03  0.26669E+06
 0.12009999E+03  0.26964E+06
 0.12014999E+03  0.26550E+06
 0.12019999E+03  0.25380E+06
 0.12024999E+03  0.24819E+06
 0.12030000E+03  0.24467E+06
 0.12034999E+03  0.23639E+06
 0.12039999E+03  0.22949E+06
 0.12044999E+03  0.22746E+06
 0.12049999E+03  0.22309E+06
 0.12055000E+03  0.20976E+06
 0.12059999E+03  0.19602E+06
 0.12064999E+03  0.18756E+06
 0.12069999E+03  0.17931E+06
 0.12074999E+03  0.17496E+06
 0.12080000E+03  0.18883E+06
 0.12084999E+03  0.21283E+06
 0.12089999E+03  0.22053E+06
 0.12094999E+03  0.20131E+06
 0.12099999E+03  0.16679E+06
 0.12105000E+03  0.12733E+06
 0.12109999E+03  0.80161E+05
 0.12114999E+03  0.35434E+05
 0.12119999E+03  0.33700E+04
 0.12124999E+03 -0.26047E+05
 0.12130000E+03 -0.61434E+05
 0.12134999E+03 -0.94378E+05
 0.12139999E+03 -0.11711E+06
 0.12144999E+03 -0.13524E+06
 0.12149999E+03 -0.16148E+06
 0.12155000E+03 -0.20355E+06
 0.12159999E+03 -0.25755E+06
 0.12164999E+03 -0.31593E+06
 0.12169999E+03 -0.36018E+06
 0.12174999E+03 -0.39870E+06
 0.12180000E+03 -0.45410E+06
 0.12184999E+03 -0.51909E+06
 0.12189999E+03 -0.59028E+06
 0.12194999E+03 -0.65730E+06
 0.12199999E+03 -0.69953E+06
 0.12205000E+03 -0.71100E+06
 0.12209999E+03 -0.71201E+06
 0.12214999E+03 -0.72039E+06
 0.12219999E+03 -0.73034E+06
 0.12224999E+03 -0.74186E+06
 0.12230000E+03 -0.76151E+06
 0.12234999E+03 -0.79565E+06
 0.12239999E+03 -0.83222E+06
 0.12244999E+03 -0.85693E+06
 0.12249999E+03 -0.87398E+06
 0.12255000E+03 -0.89364E+06
 0.12259999E+03 -0.92256E+06
 0.12264999E+03 -0.95061E+06
 0.12269999E+03 -0.97128E+06
 0.12274999E+03 -0.98383E+06
 0.12280000E+03 -0.98076E+06
 0.12284999E+03 -0.95963E+06
 0.12289999E+03 -0.93392E+06
 0.12294999E+03 -0.91173E+06
 0.12299999E+03 -0.88118E+06
 0.12305000E+03 -0.83958E+06
 0.12309999E+03 -0.79861E+06
 0.12314999E+03 -0.76021E+06
 0.12319999E+03 -0.70985E+06
 0.12324999E+03 -0.64140E+06
 0.12330000E+03 -0.55825E+06
 0.12334999E+03 -0.46784E+06
 0.12339999E+03 -0.39214E+06
 0.12344999E+03 -0.34111E+06
 0.12349999E+03 -0.30013E+06
 0.12355000E+03 -0.25447E+06
 0.12359999E+03 -0.20233E+06
 0.12364999E+03 -0.14938E+06
 0.12369999E+03 -0.99058E+05
 0.12374999E+03 -0.46803E+05
 0.12380000E+03  0.23618E+05
 0.12384999E+03  0.12411E+06
 0.12389999E+03  0.22502E+06
 0.12394999E+03  0.29323E+06
 0.12399999E+03  0.35042E+06
 0.12405000E+03  0.41901E+06
 0.12409999E+03  0.50008E+06
 0.12414999E+03  0.58618E+06
 0.12419999E+03  0.66067E+06
 0.12424999E+03  0.74432E+06
 0.12430000E+03  0.85208E+06
 0.12434999E+03  0.97038E+06
 0.12439999E+03  0.10972E+07
 0.12444999E+03  0.12246E+07
 0.12449999E+03  0.13383E+07
 0.12455000E+03  0.14310E+07
 0.12459999E+03  0.15193E+07
 0.12464999E+03  0.16131E+07
 0.12469999E+03  0.17034E+07
 0.12474999E+03  0.17771E+07
 0.12480000E+03  0.18310E+07
 0.12484999E+03  0.18718E+07
 0.12489999E+03  0.18866E+07
 0.12494999E+03  0.18664E+07
 0.12499999E+03  0.18017E+07
 0.12504999E+03  0.16964E+07
 0.12509999E+03  0.15618E+07
 0.12514999E+03  0.14103E+07
 0.12520000E+03  0.12615E+07
 0.12524998E+03  0.11218E+07
 0.12529999E+03  0.10139E+07
 0.12534999E+03  0.94946E+06
 0.12539999E+03  0.92646E+06
 0.12545000E+03  0.93502E+06
 0.12549998E+03  0.94827E+06
 0.12554999E+03  0.94911E+06
 0.12559999E+03  0.94158E+06
 0.12564999E+03  0.93812E+06
 0.12570000E+03  0.94546E+06
 0.12574998E+03  0.97238E+06
 0.12579999E+03  0.10082E+07
 0.12584999E+03  0.10408E+07
 0.12589999E+03  0.10601E+07
 0.12595000E+03  0.10385E+07
 0.12599998E+03  0.95756E+06
 0.12604999E+03  0.83587E+06
 0.12609999E+03  0.70633E+06
 0.12614999E+03  0.57152E+06
 0.12620000E+03  0.41229E+06
 0.12624998E+03  0.19388E+06
 0.12629999E+03 -0.84117E+05
 0.12634999E+03 -0.37740E+06
 0.12639999E+03 -0.65642E+06
 0.12645000E+03 -0.90657E+06
 0.12649998E+03 -0.11245E+07
 0.12654999E+03 -0.12899E+07
 0.12659999E+03 -0.13906E+07
 0.12664999E+03 -0.14699E+07
 0.12670000E+03 -0.15598E+07
 0.12674998E+03 -0.16432E+07
 0.12679999E+03 -0.16784E+07
 0.12684999E+03 -0.16441E+07
 0.12689999E+03 -0.15553E+07
 0.12695000E+03 -0.14426E+07
 0.12699998E+03 -0.13378E+07
 0.12704999E+03 -0.12526E+07
 0.12709999E+03 -0.11869E+07
 0.12714999E+03 -0.11363E+07
 0.12720000E+03 -0.11026E+07
 0.12724998E+03 -0.10928E+07
 0.12729999E+03 -0.11015E+07
 0.12734999E+03 -0.11182E+07
 0.12739999E+03 -0.11430E+07
 0.12745000E+03 -0.11738E+07
 0.12749998E+03 -0.11903E+07
 0.12754999E+03 -0.11956E+07
 0.12759999E+03 -0.12283E+07
 0.12764999E+03 -0.13152E+07
 0.12770000E+03 -0.14434E+07
 0.12774998E+03 -0.15816E+07
 0.12779999E+03 -0.17092E+07
 0.12784999E+03 -0.18206E+07
 0.12789999E+03 -0.19236E+07
 0.12795000E+03 -0.20130E+07
 0.12799998E+03 -0.20642E+07
 0.12804999E+03 -0.20568E+07
 0.12809999E+03 -0.19854E+07
 0.12814999E+03 -0.18676E+07
 0.12820000E+03 -0.17260E+07
 0.12824998E+03 -0.15624E+07
 0.12829999E+03 -0.13840E+07
 0.12834999E+03 -0.12283E+07
 0.12839999E+03 -0.11260E+07
 0.12845000E+03 -0.10878E+07
 0.12849998E+03 -0.11038E+07
 0.12854999E+03 -0.11460E+07
 0.12859999E+03 -0.11779E+07
 0.12864999E+03 -0.11554E+07
 0.12870000E+03 -0.10758E+07
 0.12874998E+03 -0.96703E+06
 0.12879999E+03 -0.85934E+06
 0.12884999E+03 -0.78128E+06
 0.12889999E+03 -0.72349E+06
 0.12895000E+03 -0.65296E+06
 0.12899998E+03 -0.56388E+06
 0.12904999E+03 -0.46412E+06
 0.12909999E+03 -0.35076E+06
 0.12914999E+03 -0.21571E+06
 0.12920000E+03 -0.51406E+05
 0.12924998E+03  0.13205E+06
 0.12929999E+03  0.32169E+06
 0.12934999E+03  0.49956E+06
 0.12939999E+03  0.66290E+06
 0.12945000E+03  0.83930E+06
 0.12949998E+03  0.10411E+07
 0.12954999E+03  0.12591E+07
 0.12959999E+03  0.14577E+07
 0.12964999E+03  0.15969E+07
 0.12970000E+03  0.16687E+07
 0.12974998E+03  0.16900E+07
 0.12979999E+03  0.16660E+07
 0.12984999E+03  0.15941E+07
 0.12989999E+03  0.15003E+07
 0.12995000E+03  0.14150E+07
 0.12999998E+03  0.13547E+07
 0.13004999E+03  0.13318E+07
 0.13009999E+03  0.13327E+07
 0.13014999E+03  0.13200E+07
 0.13020000E+03  0.12762E+07
 0.13024998E+03  0.12022E+07
 0.13029999E+03  0.11057E+07
 0.13034999E+03  0.99508E+06
 0.13039999E+03  0.88508E+06
 0.13045000E+03  0.79424E+06
 0.13049998E+03  0.72824E+06
 0.13054999E+03  0.69001E+06
 0.13059999E+03  0.67164E+06
 0.13064999E+03  0.65647E+06
 0.13070000E+03  0.62354E+06
 0.13074998E+03  0.57058E+06
 0.13079999E+03  0.53622E+06
 0.13084999E+03  0.56228E+06
 0.13089999E+03  0.65693E+06
 0.13095000E+03  0.78612E+06
 0.13099998E+03  0.90006E+06
 0.13104999E+03  0.97194E+06
 0.13109999E+03  0.99891E+06
 0.13114999E+03  0.97109E+06
 0.13120000E+03  0.89212E+06
 0.13124998E+03  0.80116E+06
 0.13129999E+03  0.71929E+06
 0.13134999E+03  0.63588E+06
 0.13139999E+03  0.54754E+06
 0.13145000E+03  0.45956E+06
 0.13149998E+03  0.36738E+06
 0.13154999E+03  0.26238E+06
 0.13159999E+03  0.13859E+06
 0.13164999E+03  0.57520E+04
 0.13170000E+03 -0.10773E+06
 0.13174998E+03 -0.19069E+06
 0.13179999E+03 -0.24499E+06
 0.13184999E+03 -0.26284E+06
 0.13189999E+03 -0.25259E+06
 0.13195000E+03 -0.23559E+06
 0.13199998E+03 -0.21915E+06
 0.13204999E+03 -0.21426E+06
 0.13209999E+03 -0.23266E+06
 0.13214999E+03 -0.27330E+06
 0.13220000E+03 -0.34225E+06
 0.13224998E+03 -0.42182E+06
 0.13229999E+03 -0.47416E+06
 0.13234999E+03 -0.50027E+06
 0.13239999E+03 -0.52619E+06
 0.13245000E+03 -0.57259E+06
 0.13249998E+03 -0.62940E+06
 0.13254999E+03 -0.66914E+06
 0.13259999E+03 -0.67471E+06
 0.13264999E+03 -0.64790E+06
 0.13270000E+03 -0.60817E+06
 0.13274998E+03 -0.55166E+06
 0.13279999E+03 -0.48060E+06
 0.13284999E+03 -0.42496E+06
 0.13289999E+03 -0.41594E+06
 0.13295000E+03 -0.47466E+06
 0.13299998E+03 -0.59892E+06
 0.13304999E+03 -0.76620E+06
 0.13309999E+03 -0.93433E+06
 0.13314999E+03 -0.10790E+07
 0.13320000E+03 -0.12207E+07
 0.13324998E+03 -0.13788E+07
 0.13329999E+03 -0.15314E+07
 0.13334999E+03 -0.16394E+07
 0.13339999E+03 -0.16790E+07
 0.13345000E+03 -0.16684E+07
 0.13349998E+03 -0.16298E+07
 0.13354999E+03 -0.15648E+07
 0.13359999E+03 -0.14931E+07
 0.13364999E+03 -0.14173E+07
 0.13370000E+03 -0.13333E+07
 0.13374998E+03 -0.12263E+07
 0.13379999E+03 -0.10881E+07
 0.13384999E+03 -0.92785E+06
 0.13389999E+03 -0.73165E+06
 0.13395000E+03 -0.51190E+06
 0.13399998E+03 -0.30671E+06
 0.13404999E+03 -0.16099E+06
 0.13409999E+03 -0.76445E+05
 0.13414999E+03 -0.14973E+05
 0.13420000E+03  0.43010E+05
 0.13424998E+03  0.11431E+06
 0.13429999E+03  0.21712E+06
 0.13434999E+03  0.37024E+06
 0.13439999E+03  0.56571E+06
 0.13445000E+03  0.78811E+06
 0.13449998E+03  0.99328E+06
 0.13454999E+03  0.11184E+07
 0.13459999E+03  0.11597E+07
 0.13464999E+03  0.11340E+07
 0.13470000E+03  0.10756E+07
 0.13474998E+03  0.10319E+07
 0.13479999E+03  0.10072E+07
 0.13484999E+03  0.96097E+06
 0.13489999E+03  0.86928E+06
 0.13495000E+03  0.75859E+06
 0.13499998E+03  0.64270E+06
 0.13504999E+03  0.52381E+06
 0.13509999E+03  0.43285E+06
 0.13514999E+03  0.37345E+06
 0.13520000E+03  0.33924E+06
 0.13524998E+03  0.34208E+06
 0.13529999E+03  0.36515E+06
 0.13534999E+03  0.39168E+06
 0.13539999E+03  0.41854E+06
 0.13545000E+03  0.44390E+06
 0.13549998E+03  0.45756E+06
 0.13554999E+03  0.45519E+06
 0.13559999E+03  0.44614E+06
 0.13564999E+03  0.42158E+06
 0.13570000E+03  0.38569E+06
 0.13574998E+03  0.35366E+06
 0.13579999E+03  0.34402E+06
 0.13584999E+03  0.35748E+06
 0.13589999E+03  0.37667E+06
 0.13595000E+03  0.40736E+06
 0.13599998E+03  0.42753E+06
 0.13604999E+03  0.41553E+06
 0.13609999E+03  0.38472E+06
 0.13614999E+03  0.35294E+06
 0.13620000E+03  0.33400E+06
 0.13624998E+03  0.30768E+06
 0.13629999E+03  0.24734E+06
 0.13634999E+03  0.16799E+06
 0.13639999E+03  0.10075E+06
 0.13645000E+03  0.61243E+05
 0.13649998E+03  0.64027E+05
 0.13654999E+03  0.91066E+05
 0.13659999E+03  0.88134E+05
 0.13664999E+03  0.18423E+05
 0.13670000E+03 -0.12124E+06
 0.13674998E+03 -0.29364E+06
 0.13679999E+03 -0.45179E+06
 0.13684999E+03 -0.56902E+06
 0.13689999E+03 -0.65408E+06
 0.13695000E+03 -0.73455E+06
 0.13699998E+03 -0.80234E+06
 0.13704999E+03 -0.83687E+06
 0.13709999E+03 -0.84054E+06
 0.13714999E+03 -0.81215E+06
 0.13720000E+03 -0.75588E+06
 0.13724998E+03 -0.67778E+06
 0.13729999E+03 -0.58804E+06
 0.13734999E+03 -0.52074E+06
 0.13739999E+03 -0.48062E+06
 0.13745000E+03 -0.45641E+06
 0.13749998E+03 -0.45236E+06
 0.13754999E+03 -0.45679E+06
 0.13759999E+03 -0.44601E+06
 0.13764999E+03 -0.42517E+06
 0.13770000E+03 -0.42359E+06
 0.13774998E+03 -0.44646E+06
 0.13779999E+03 -0.47768E+06
 0.13784999E+03 -0.49710E+06
 0.13789999E+03 -0.49318E+06
 0.13795000E+03 -0.47513E+06
 0.13799998E+03 -0.46955E+06
 0.13804999E+03 -0.49532E+06
 0.13809999E+03 -0.55404E+06
 0.13814999E+03 -0.65372E+06
 0.13820000E+03 -0.78843E+06
 0.13824998E+03 -0.92518E+06
 0.13829999E+03 -0.10437E+07
 0.13834999E+03 -0.11492E+07
 0.13839999E+03 -0.12336E+07
 0.13845000E+03 -0.12665E+07
 0.13849998E+03 -0.12480E+07
 0.13854999E+03 -0.12044E+07
 0.13859999E+03 -0.11317E+07
 0.13864999E+03 -0.10156E+07
 0.13870000E+03 -0.86826E+06
 0.13874998E+03 -0.72184E+06
 0.13879999E+03 -0.62053E+06
 0.13884999E+03 -0.58085E+06
 0.13889999E+03 -0.58267E+06
 0.13895000E+03 -0.61605E+06
 0.13899998E+03 -0.66423E+06
 0.13904999E+03 -0.69551E+06
 0.13909999E+03 -0.69675E+06
 0.13914999E+03 -0.65871E+06
 0.13920000E+03 -0.57010E+06
 0.13924998E+03 -0.46392E+06
 0.13929999E+03 -0.40113E+06
 0.13934999E+03 -0.38591E+06
 0.13939999E+03 -0.39272E+06
 0.13945000E+03 -0.39152E+06
 0.13949998E+03 -0.35045E+06
 0.13954999E+03 -0.26659E+06
 0.13959999E+03 -0.14750E+06
 0.13964999E+03 -0.17225E+05
 0.13970000E+03  0.92286E+05
 0.13974998E+03  0.15945E+06
 0.13979999E+03  0.20007E+06
 0.13984999E+03  0.23628E+06
 0.13989999E+03  0.25686E+06
 0.13995000E+03  0.26362E+06
 0.13999998E+03  0.26910E+06
 0.14004999E+03  0.28152E+06
 0.14009999E+03  0.30381E+06
 0.14014999E+03  0.32757E+06
 0.14020000E+03  0.33570E+06
 0.14024998E+03  0.33227E+06
 0.14029999E+03  0.32207E+06
 0.14034999E+03  0.29129E+06
 0.14039999E+03  0.25390E+06
 0.14045000E+03  0.22617E+06
 0.14049998E+03  0.20119E+06
 0.14054999E+03  0.16605E+06
 0.14059999E+03  0.12576E+06
 0.14064999E+03  0.90657E+05
 0.14070000E+03  0.80438E+05
 0.14074998E+03  0.12388E+06
 0.14079999E+03  0.19480E+06
 0.14084999E+03  0.24989E+06
 0.14089999E+03  0.26164E+06
 0.14095000E+03  0.21011E+06
 0.14099998E+03  0.11821E+06
 0.14104999E+03  0.32357E+05
 0.14109999E+03 -0.13298E+05
 0.14114999E+03 -0.15217E+05
 0.14120000E+03  0.61220E+04
 0.14124998E+03  0.43094E+05
 0.14129999E+03  0.78881E+05
 0.14134999E+03  0.95586E+05
 0.14139999E+03  0.11571E+06
 0.14145000E+03  0.14625E+06
 0.14149998E+03  0.17309E+06
 0.14154999E+03  0.19665E+06
 0.14159999E+03  0.22517E+06
 0.14164999E+03  0.26229E+06
 0.14170000E+03  0.28254E+06
 0.14174998E+03  0.25900E+06
 0.14179999E+03  0.20031E+06
 0.14184999E+03  0.12594E+06
 0.14189999E+03  0.48142E+05
 0.14195000E+03 -0.11929E+05
 0.14199998E+03 -0.58970E+05
 0.14204999E+03 -0.11427E+06
 0.14209999E+03 -0.17511E+06
 0.14214999E+03 -0.24146E+06
 0.14220000E+03 -0.31135E+06
 0.14224998E+03 -0.37988E+06
 0.14229999E+03 -0.44358E+06
 0.14234999E+03 -0.50834E+06
 0.14239999E+03 -0.58374E+06
 0.14245000E+03 -0.66014E+06
 0.14249998E+03 -0.70581E+06
 0.14254999E+03 -0.68654E+06
 0.14259999E+03 -0.62045E+06
 0.14264999E+03 -0.55400E+06
 0.14270000E+03 -0.49878E+06
 0.14274998E+03 -0.45538E+06
 0.14279999E+03 -0.45412E+06
 0.14284999E+03 -0.49440E+06
 0.14289999E+03 -0.52850E+06
 0.14295000E+03 -0.53335E+06
 0.14299998E+03 -0.50197E+06
 0.14304999E+03 -0.44775E+06
 0.14309999E+03 -0.40110E+06
 0.14314999E+03 -0.37219E+06
 0.14320000E+03 -0.35336E+06
 0.14324998E+03 -0.32529E+06
 0.14329999E+03 -0.28601E+06
 0.14334999E+03 -0.25178E+06
 0.14339999E+03 -0.23192E+06
 0.14345000E+03 -0.23011E+06
 0.14349998E+03 -0.24636E+06
 0.14354999E+03 -0.28217E+06
 0.14359999E+03 -0.33025E+06
 0.14364999E+03 -0.37113E+06
 0.14370000E+03 -0.38777E+06
 0.14374998E+03 -0.36587E+06
 0.14379999E+03 -0.30764E+06
 0.14384999E+03 -0.23912E+06
 0.14389999E+03 -0.18730E+06
 0.14395000E+03 -0.15589E+06
 0.14399998E+03 -0.12730E+06
 0.14404999E+03 -0.89181E+05
 0.14409999E+03 -0.33705E+05
 0.14414999E+03  0.42355E+05
 0.14420000E+03  0.12571E+06
 0.14424998E+03  0.20804E+06
 0.14429999E+03  0.29657E+06
 0.14434999E+03  0.39847E+06
 0.14439999E+03  0.50141E+06
 0.14445000E+03  0.58059E+06
 0.14449998E+03  0.62561E+06
 0.14454999E+03  0.65231E+06
 0.14459999E+03  0.68444E+06
 0.14464999E+03  0.72375E+06
 0.14470000E+03  0.77043E+06
 0.14474998E+03  0.82085E+06
 0.14479999E+03  0.85815E+06
 0.14484999E+03  0.88028E+06
 0.14489999E+03  0.90051E+06
 0.14495000E+03  0.94133E+06
 0.14499998E+03  0.10082E+07
 0.14504999E+03  0.10866E+07
 0.14509999E+03  0.11694E+07
 0.14514999E+03  0.12505E+07
 0.14520000E+03  0.13177E+07
 0.14524998E+03  0.13690E+07
 0.14529999E+03  0.14096E+07
 0.14534999E+03  0.14390E+07
 0.14539999E+03  0.14554E+07
 0.14545000E+03  0.14624E+07
 0.14549998E+03  0.14665E+07
 0.14554999E+03  0.14611E+07
 0.14559999E+03  0.14309E+07
 0.14564999E+03  0.13744E+07
 0.14570000E+03  0.13065E+07
 0.14574998E+03  0.12438E+07
 0.14579999E+03  0.11908E+07
 0.14584999E+03  0.11454E+07
 0.14589999E+03  0.11008E+07
 0.14595000E+03  0.10562E+07
 0.14599998E+03  0.10178E+07
 0.14604999E+03  0.99266E+06
 0.14609999E+03  0.98716E+06
 0.14614999E+03  0.99803E+06
 0.14620000E+03  0.10303E+07
 0.14624998E+03  0.10692E+07
 0.14629999E+03  0.10899E+07
 0.14634999E+03  0.10940E+07
 0.14639999E+03  0.10851E+07
 0.14645000E+03  0.10648E+07
 0.14649998E+03  0.10201E+07
 0.14654999E+03  0.94802E+06
 0.14659999E+03  0.85938E+06
 0.14664999E+03  0.75548E+06
 0.14670000E+03  0.64265E+06
 0.14674998E+03  0.53823E+06
 0.14679999E+03  0.46719E+06
 0.14684999E+03  0.43108E+06
 0.14689999E+03  0.41916E+06
 0.14695000E+03  0.42769E+06
 0.14699998E+03  0.44622E+06
 0.14704999E+03  0.47181E+06
 0.14709999E+03  0.50990E+06
 0.14714999E+03  0.56271E+06
 0.14720000E+03  0.63261E+06
 0.14724998E+03  0.70643E+06
 0.14729999E+03  0.75411E+06
 0.14734999E+03  0.75440E+06
 0.14739999E+03  0.69870E+06
 0.14745000E+03  0.59877E+06
 0.14749998E+03  0.48938E+06
 0.14754999E+03  0.40242E+06
 0.14759999E+03  0.34672E+06
 0.14764999E+03  0.31955E+06
 0.14770000E+03  0.31255E+06
 0.14774998E+03  0.31117E+06
 0.14779999E+03  0.31364E+06
 0.14784999E+03  0.32939E+06
 0.14789999E+03  0.35804E+06
 0.14795000E+03  0.39528E+06
 0.14799998E+03  0.43240E+06
 0.14804999E+03  0.44266E+06
 0.14809999E+03  0.41100E+06
 0.14814999E+03  0.34774E+06
 0.14820000E+03  0.28004E+06
 0.14824998E+03  0.23288E+06
 0.14829999E+03  0.21111E+06
 0.14834999E+03  0.21636E+06
 0.14839999E+03  0.25083E+06
 0.14845000E+03  0.31255E+06
 0.14849998E+03  0.38239E+06
 0.14854999E+03  0.43273E+06
 0.14859999E+03  0.45276E+06
 0.14864999E+03  0.45015E+06
 0.14870000E+03  0.43928E+06
 0.14874998E+03  0.43077E+06
 0.14879999E+03  0.42840E+06
 0.14884999E+03  0.42683E+06
 0.14889999E+03  0.42032E+06
 0.14895000E+03  0.41530E+06
 0.14899998E+03  0.42250E+06
 0.14904999E+03  0.43150E+06
 0.14909999E+03  0.43298E+06
 0.14914999E+03  0.42699E+06
 0.14920000E+03  0.40909E+06
 0.14924998E+03  0.39000E+06
 0.14929999E+03  0.38311E+06
 0.14934999E+03  0.39138E+06
 0.14939999E+03  0.40150E+06
 0.14945000E+03  0.38601E+06
 0.14949998E+03  0.33111E+06
 0.14954999E+03  0.24952E+06
 0.14959999E+03  0.17066E+06
 0.14964999E+03  0.12404E+06
 0.14970000E+03  0.11380E+06
 0.14974998E+03  0.12518E+06
 0.14979999E+03  0.15642E+06
 0.14984999E+03  0.20771E+06
 0.14989999E+03  0.27915E+06
 0.14995000E+03  0.36958E+06
