-0.30000000E+01 -0.25108E+05
-0.29500000E+01 -0.25101E+05
-0.29000001E+01 -0.25101E+05
-0.28499999E+01 -0.25102E+05
-0.28000000E+01 -0.25104E+05
-0.27500000E+01 -0.25105E+05
-0.27000000E+01 -0.25097E+05
-0.26500001E+01 -0.25100E+05
-0.25999999E+01 -0.25099E+05
-0.25500000E+01 -0.25102E+05
-0.25000000E+01 -0.25110E+05
-0.24500000E+01 -0.25112E+05
-0.24000001E+01 -0.25118E+05
-0.23499999E+01 -0.25102E+05
-0.23000002E+01 -0.25105E+05
-0.22500000E+01 -0.25107E+05
-0.22000000E+01 -0.25087E+05
-0.21500001E+01 -0.25096E+05
-0.20999999E+01 -0.25089E+05
-0.20500002E+01 -0.25099E+05
-0.20000000E+01 -0.25101E+05
-0.19500000E+01 -0.25092E+05
-0.19000001E+01 -0.25101E+05
-0.18500000E+01 -0.25091E+05
-0.18000001E+01 -0.25095E+05
-0.17500001E+01 -0.25097E+05
-0.17000000E+01 -0.25094E+05
-0.16500001E+01 -0.25089E+05
-0.16000001E+01 -0.25085E+05
-0.15500001E+01 -0.25092E+05
-0.15000001E+01 -0.25091E+05
-0.14500000E+01 -0.25090E+05
-0.14000001E+01 -0.25086E+05
-0.13500001E+01 -0.25097E+05
-0.13000001E+01 -0.25092E+05
-0.12500001E+01 -0.25082E+05
-0.12000000E+01 -0.25097E+05
-0.11500001E+01 -0.25088E+05
-0.11000001E+01 -0.25087E+05
-0.10500001E+01 -0.25097E+05
-0.10000001E+01 -0.25088E+05
-0.95000005E+00 -0.25087E+05
-0.90000010E+00 -0.25091E+05
-0.85000014E+00 -0.25087E+05
-0.80000019E+00 -0.25084E+05
-0.75000024E+00 -0.25087E+05
-0.70000005E+00 -0.25079E+05
-0.65000010E+00 -0.25083E+05
-0.60000014E+00 -0.25088E+05
-0.55000019E+00 -0.25082E+05
-0.50000024E+00 -0.25086E+05
-0.45000005E+00 -0.25082E+05
-0.40000010E+00 -0.25087E+05
-0.35000014E+00 -0.25091E+05
-0.30000019E+00 -0.25092E+05
-0.25000024E+00 -0.25096E+05
-0.20000029E+00 -0.25096E+05
-0.15000010E+00 -0.25098E+05
-0.10000014E+00 -0.25095E+05
-0.50000191E-01 -0.25089E+05
-0.23841858E-06 -0.25094E+05
 0.49999714E-01 -0.25091E+05
 0.99999905E-01 -0.25086E+05
 0.14999986E+00 -0.25097E+05
 0.19999981E+00 -0.25091E+05
 0.24999976E+00 -0.25099E+05
 0.29999971E+00 -0.25101E+05
 0.34999990E+00 -0.25089E+05
 0.39999986E+00 -0.25106E+05
 0.44999981E+00 -0.25106E+05
 0.49999976E+00 -0.25104E+05
 0.54999971E+00 -0.25101E+05
 0.59999990E+00 -0.25106E+05
 0.64999986E+00 -0.25113E+05
 0.69999981E+00 -0.25109E+05
 0.74999976E+00 -0.25113E+05
 0.79999971E+00 -0.25110E+05
 0.84999967E+00 -0.25116E+05
 0.89999986E+00 -0.25115E+05
 0.94999981E+00 -0.25107E+05
 0.99999976E+00 -0.25114E+05
 0.10499997E+01 -0.25117E+05
 0.10999999E+01 -0.25111E+05
 0.11499996E+01 -0.25112E+05
 0.11999998E+01 -0.25113E+05
 0.12499995E+01 -0.25114E+05
 0.12999997E+01 -0.25112E+05
 0.13499999E+01 -0.25109E+05
 0.13999996E+01 -0.25115E+05
 0.14499998E+01 -0.25114E+05
 0.14999995E+01 -0.25120E+05
 0.15499997E+01 -0.25120E+05
 0.15999999E+01 -0.25111E+05
 0.16499996E+01 -0.25107E+05
 0.16999998E+01 -0.25110E+05
 0.17499995E+01 -0.25119E+05
 0.17999997E+01 -0.25111E+05
 0.18499999E+01 -0.25113E+05
 0.18999996E+01 -0.25119E+05
 0.19499998E+01 -0.25118E+05
 0.19999995E+01 -0.25114E+05
 0.20499997E+01 -0.25118E+05
 0.20999999E+01 -0.25126E+05
 0.21499996E+01 -0.25119E+05
 0.21999998E+01 -0.25118E+05
 0.22499995E+01 -0.25118E+05
 0.22999997E+01 -0.25113E+05
 0.23499999E+01 -0.25118E+05
 0.23999996E+01 -0.25120E+05
 0.24499998E+01 -0.25112E+05
 0.24999995E+01 -0.25118E+05
 0.25499997E+01 -0.25127E+05
 0.25999994E+01 -0.25125E+05
 0.26499996E+01 -0.25123E+05
 0.26999998E+01 -0.25125E+05
 0.27499995E+01 -0.25121E+05
 0.27999997E+01 -0.25123E+05
 0.28499994E+01 -0.25129E+05
 0.28999996E+01 -0.25123E+05
 0.29499998E+01 -0.25130E+05
 0.29999995E+01 -0.25123E+05
 0.30499997E+01 -0.25114E+05
 0.30999994E+01 -0.25121E+05
 0.31499996E+01 -0.25118E+05
 0.31999998E+01 -0.25121E+05
 0.32499995E+01 -0.25119E+05
 0.32999997E+01 -0.25117E+05
 0.33499994E+01 -0.25121E+05
 0.33999996E+01 -0.25114E+05
 0.34499998E+01 -0.25121E+05
 0.34999995E+01 -0.25120E+05
 0.35499997E+01 -0.25111E+05
 0.35999994E+01 -0.25119E+05
 0.36499996E+01 -0.25104E+05
 0.36999998E+01 -0.25105E+05
 0.37499995E+01 -0.25116E+05
 0.37999997E+01 -0.25108E+05
 0.38499994E+01 -0.25114E+05
 0.38999996E+01 -0.25108E+05
 0.39499998E+01 -0.25108E+05
 0.39999995E+01 -0.25110E+05
 0.40499997E+01 -0.25104E+05
 0.40999994E+01 -0.25110E+05
 0.41499996E+01 -0.25111E+05
 0.41999998E+01 -0.25115E+05
 0.42499995E+01 -0.25113E+05
 0.42999997E+01 -0.25103E+05
 0.43499994E+01 -0.25114E+05
 0.43999996E+01 -0.25107E+05
 0.44499993E+01 -0.25104E+05
 0.44999995E+01 -0.25110E+05
 0.45499997E+01 -0.25095E+05
 0.45999994E+01 -0.25095E+05
 0.46499996E+01 -0.25101E+05
 0.46999993E+01 -0.25106E+05
 0.47499995E+01 -0.25110E+05
 0.47999997E+01 -0.25100E+05
 0.48499994E+01 -0.25100E+05
 0.48999996E+01 -0.25104E+05
 0.49499993E+01 -0.25105E+05
 0.49999995E+01 -0.25106E+05
 0.50499992E+01 -0.25103E+05
 0.50999994E+01 -0.25103E+05
 0.51499996E+01 -0.25101E+05
 0.51999998E+01 -0.25098E+05
 0.52499990E+01 -0.25101E+05
 0.52999992E+01 -0.25102E+05
 0.53499994E+01 -0.25099E+05
 0.53999996E+01 -0.25100E+05
 0.54499998E+01 -0.25100E+05
 0.54999990E+01 -0.25100E+05
 0.55499992E+01 -0.25099E+05
 0.55999994E+01 -0.25100E+05
 0.56499996E+01 -0.25099E+05
 0.56999998E+01 -0.25096E+05
 0.57499990E+01 -0.25104E+05
 0.57999992E+01 -0.25101E+05
 0.58499994E+01 -0.25101E+05
 0.58999996E+01 -0.25103E+05
 0.59499998E+01 -0.25100E+05
 0.59999990E+01 -0.25107E+05
 0.60499992E+01 -0.25105E+05
 0.60999994E+01 -0.25108E+05
 0.61499996E+01 -0.25104E+05
 0.61999998E+01 -0.25107E+05
 0.62499990E+01 -0.25112E+05
 0.62999992E+01 -0.25099E+05
 0.63499994E+01 -0.25103E+05
 0.63999996E+01 -0.25105E+05
 0.64499998E+01 -0.25104E+05
 0.64999990E+01 -0.25103E+05
 0.65499992E+01 -0.25098E+05
 0.65999994E+01 -0.25091E+05
 0.66499996E+01 -0.25091E+05
 0.66999998E+01 -0.25101E+05
 0.67499990E+01 -0.25089E+05
 0.67999992E+01 -0.25088E+05
 0.68499994E+01 -0.25098E+05
 0.68999996E+01 -0.25099E+05
 0.69499998E+01 -0.25093E+05
 0.69999990E+01 -0.25093E+05
 0.70499992E+01 -0.25096E+05
 0.70999994E+01 -0.25094E+05
 0.71499996E+01 -0.25104E+05
 0.71999998E+01 -0.25096E+05
 0.72499990E+01 -0.25093E+05
 0.72999992E+01 -0.25098E+05
 0.73499994E+01 -0.25093E+05
 0.73999996E+01 -0.25095E+05
 0.74499998E+01 -0.25092E+05
 0.74999990E+01 -0.25093E+05
 0.75499992E+01 -0.25093E+05
 0.75999994E+01 -0.25089E+05
 0.76499996E+01 -0.25095E+05
 0.76999998E+01 -0.25093E+05
 0.77499990E+01 -0.25093E+05
 0.77999992E+01 -0.25100E+05
 0.78499994E+01 -0.25092E+05
 0.78999996E+01 -0.25093E+05
 0.79499998E+01 -0.25097E+05
 0.79999990E+01 -0.25091E+05
 0.80499992E+01 -0.25096E+05
 0.80999994E+01 -0.25094E+05
 0.81499996E+01 -0.25095E+05
 0.81999989E+01 -0.25095E+05
 0.82499990E+01 -0.25088E+05
 0.82999992E+01 -0.25095E+05
 0.83499994E+01 -0.25097E+05
 0.83999996E+01 -0.25089E+05
 0.84499989E+01 -0.25091E+05
 0.84999990E+01 -0.25093E+05
 0.85499992E+01 -0.25089E+05
 0.85999994E+01 -0.25087E+05
 0.86499996E+01 -0.25099E+05
 0.86999989E+01 -0.25095E+05
 0.87499990E+01 -0.25091E+05
 0.87999992E+01 -0.25104E+05
 0.88499994E+01 -0.25087E+05
 0.88999996E+01 -0.25089E+05
 0.89499989E+01 -0.25093E+05
 0.89999990E+01 -0.25086E+05
 0.90499992E+01 -0.25091E+05
 0.90999994E+01 -0.25085E+05
 0.91499996E+01 -0.25097E+05
 0.91999989E+01 -0.25100E+05
 0.92499990E+01 -0.25092E+05
 0.92999992E+01 -0.25084E+05
 0.93499994E+01 -0.25095E+05
 0.93999996E+01 -0.25095E+05
 0.94499989E+01 -0.25079E+05
 0.94999990E+01 -0.25094E+05
 0.95499992E+01 -0.25085E+05
 0.95999994E+01 -0.25083E+05
 0.96499996E+01 -0.25095E+05
 0.96999989E+01 -0.25089E+05
 0.97499990E+01 -0.25090E+05
 0.97999992E+01 -0.25092E+05
 0.98499994E+01 -0.25080E+05
 0.98999996E+01 -0.25091E+05
 0.99499989E+01 -0.25095E+05
 0.99999990E+01 -0.25081E+05
 0.10049999E+02 -0.25089E+05
 0.10099999E+02 -0.25097E+05
 0.10150000E+02 -0.25105E+05
 0.10199999E+02 -0.25095E+05
 0.10249999E+02 -0.25093E+05
 0.10299999E+02 -0.25097E+05
 0.10349999E+02 -0.25102E+05
 0.10400000E+02 -0.25101E+05
 0.10449999E+02 -0.25083E+05
 0.10499999E+02 -0.25095E+05
 0.10549999E+02 -0.25095E+05
 0.10599999E+02 -0.25079E+05
 0.10650000E+02 -0.25089E+05
 0.10699999E+02 -0.25106E+05
 0.10749999E+02 -0.25083E+05
 0.10799999E+02 -0.25087E+05
 0.10849999E+02 -0.25108E+05
 0.10900000E+02 -0.25101E+05
 0.10949999E+02 -0.25115E+05
 0.10999999E+02 -0.25107E+05
 0.11049999E+02 -0.25092E+05
 0.11099999E+02 -0.25088E+05
 0.11150000E+02 -0.25106E+05
 0.11199999E+02 -0.25107E+05
 0.11249999E+02 -0.25089E+05
 0.11299999E+02 -0.25108E+05
 0.11349999E+02 -0.25102E+05
 0.11400000E+02 -0.25090E+05
 0.11449999E+02 -0.25096E+05
 0.11499999E+02 -0.25122E+05
 0.11549999E+02 -0.25117E+05
 0.11599999E+02 -0.25083E+05
 0.11649999E+02 -0.25096E+05
 0.11699999E+02 -0.25108E+05
 0.11749999E+02 -0.25117E+05
 0.11799999E+02 -0.25105E+05
 0.11849999E+02 -0.25088E+05
 0.11899999E+02 -0.25100E+05
 0.11949999E+02 -0.25099E+05
 0.11999999E+02 -0.25094E+05
 0.12049999E+02 -0.25090E+05
 0.12099999E+02 -0.25100E+05
 0.12149999E+02 -0.25113E+05
 0.12199999E+02 -0.25112E+05
 0.12249999E+02 -0.25094E+05
 0.12299999E+02 -0.25095E+05
 0.12349999E+02 -0.25130E+05
 0.12399999E+02 -0.25121E+05
 0.12449999E+02 -0.25077E+05
 0.12499999E+02 -0.25066E+05
 0.12549999E+02 -0.25099E+05
 0.12599999E+02 -0.25128E+05
 0.12649999E+02 -0.25111E+05
 0.12699999E+02 -0.25086E+05
 0.12749999E+02 -0.25107E+05
 0.12799999E+02 -0.25113E+05
 0.12849999E+02 -0.25110E+05
 0.12899999E+02 -0.25124E+05
 0.12949999E+02 -0.25106E+05
 0.12999999E+02 -0.25116E+05
 0.13049999E+02 -0.25106E+05
 0.13099998E+02 -0.25087E+05
 0.13150000E+02 -0.25126E+05
 0.13199999E+02 -0.25131E+05
 0.13249998E+02 -0.25110E+05
 0.13299999E+02 -0.25101E+05
 0.13349998E+02 -0.25087E+05
 0.13400000E+02 -0.25101E+05
 0.13449999E+02 -0.25132E+05
 0.13499998E+02 -0.25142E+05
 0.13549999E+02 -0.25117E+05
 0.13599998E+02 -0.25077E+05
 0.13650000E+02 -0.25103E+05
 0.13699999E+02 -0.25153E+05
 0.13749998E+02 -0.25129E+05
 0.13799999E+02 -0.25091E+05
 0.13849998E+02 -0.25105E+05
 0.13900000E+02 -0.25118E+05
 0.13949999E+02 -0.25111E+05
 0.13999998E+02 -0.25120E+05
 0.14049999E+02 -0.25123E+05
 0.14099998E+02 -0.25094E+05
 0.14150000E+02 -0.25085E+05
 0.14199999E+02 -0.25111E+05
 0.14249998E+02 -0.25117E+05
 0.14299999E+02 -0.25133E+05
 0.14349998E+02 -0.25122E+05
 0.14400000E+02 -0.25091E+05
 0.14449999E+02 -0.25106E+05
 0.14499998E+02 -0.25124E+05
 0.14549999E+02 -0.25132E+05
 0.14599998E+02 -0.25093E+05
 0.14650000E+02 -0.25090E+05
 0.14699999E+02 -0.25102E+05
 0.14749998E+02 -0.25112E+05
 0.14799999E+02 -0.25138E+05
 0.14849998E+02 -0.25102E+05
 0.14900000E+02 -0.25110E+05
 0.14949999E+02 -0.25111E+05
 0.14999998E+02 -0.25117E+05
 0.15049999E+02 -0.25135E+05
 0.15099998E+02 -0.25104E+05
 0.15150000E+02 -0.25114E+05
 0.15199999E+02 -0.25105E+05
 0.15249998E+02 -0.25097E+05
 0.15299999E+02 -0.25126E+05
 0.15349998E+02 -0.25114E+05
 0.15400000E+02 -0.25078E+05
 0.15449999E+02 -0.25097E+05
 0.15499998E+02 -0.25113E+05
 0.15549999E+02 -0.25094E+05
 0.15599998E+02 -0.25093E+05
 0.15650000E+02 -0.25105E+05
 0.15699999E+02 -0.25120E+05
 0.15749998E+02 -0.25110E+05
 0.15799999E+02 -0.25111E+05
 0.15849998E+02 -0.25092E+05
 0.15900000E+02 -0.25083E+05
 0.15949999E+02 -0.25110E+05
 0.15999998E+02 -0.25110E+05
 0.16049999E+02 -0.25107E+05
 0.16099998E+02 -0.25081E+05
 0.16150000E+02 -0.25101E+05
 0.16199999E+02 -0.25129E+05
 0.16249998E+02 -0.25099E+05
 0.16299999E+02 -0.25098E+05
 0.16349998E+02 -0.25090E+05
 0.16400000E+02 -0.25097E+05
 0.16449999E+02 -0.25107E+05
 0.16499998E+02 -0.25099E+05
 0.16549999E+02 -0.25111E+05
 0.16599998E+02 -0.25105E+05
 0.16650000E+02 -0.25088E+05
 0.16699999E+02 -0.25089E+05
 0.16749998E+02 -0.25123E+05
 0.16799999E+02 -0.25115E+05
 0.16849998E+02 -0.25088E+05
 0.16900000E+02 -0.25099E+05
 0.16949999E+02 -0.25094E+05
 0.16999998E+02 -0.25129E+05
 0.17049999E+02 -0.25126E+05
 0.17099998E+02 -0.25076E+05
 0.17150000E+02 -0.25093E+05
 0.17199999E+02 -0.25096E+05
 0.17249998E+02 -0.25101E+05
 0.17299999E+02 -0.25113E+05
 0.17349998E+02 -0.25094E+05
 0.17400000E+02 -0.25104E+05
 0.17449999E+02 -0.25108E+05
 0.17499998E+02 -0.25086E+05
 0.17549999E+02 -0.25105E+05
 0.17599998E+02 -0.25110E+05
 0.17650000E+02 -0.25084E+05
 0.17699999E+02 -0.25099E+05
 0.17749998E+02 -0.25099E+05
 0.17799999E+02 -0.25093E+05
 0.17849998E+02 -0.25114E+05
 0.17900000E+02 -0.25097E+05
 0.17949999E+02 -0.25086E+05
 0.17999998E+02 -0.25098E+05
 0.18049999E+02 -0.25083E+05
 0.18099998E+02 -0.25099E+05
 0.18150000E+02 -0.25096E+05
 0.18199999E+02 -0.25080E+05
 0.18249998E+02 -0.25113E+05
 0.18299999E+02 -0.25086E+05
 0.18349998E+02 -0.25081E+05
 0.18400000E+02 -0.25093E+05
 0.18449999E+02 -0.25097E+05
 0.18499998E+02 -0.25113E+05
 0.18549999E+02 -0.25079E+05
 0.18599998E+02 -0.25079E+05
 0.18650000E+02 -0.25085E+05
 0.18699999E+02 -0.25084E+05
 0.18749998E+02 -0.25130E+05
 0.18799999E+02 -0.25123E+05
 0.18849998E+02 -0.25072E+05
 0.18900000E+02 -0.25089E+05
 0.18949999E+02 -0.25089E+05
 0.18999998E+02 -0.25082E+05
 0.19049999E+02 -0.25132E+05
 0.19099998E+02 -0.25107E+05
 0.19150000E+02 -0.25063E+05
 0.19199999E+02 -0.25076E+05
 0.19249998E+02 -0.25100E+05
 0.19299999E+02 -0.25123E+05
 0.19349998E+02 -0.25118E+05
 0.19399998E+02 -0.25091E+05
 0.19449999E+02 -0.25063E+05
 0.19499998E+02 -0.25076E+05
 0.19549999E+02 -0.25092E+05
 0.19599998E+02 -0.25101E+05
 0.19649998E+02 -0.25119E+05
 0.19699999E+02 -0.25072E+05
 0.19749998E+02 -0.25063E+05
 0.19799999E+02 -0.25078E+05
 0.19849998E+02 -0.25069E+05
 0.19899998E+02 -0.25131E+05
 0.19949999E+02 -0.25103E+05
 0.19999998E+02 -0.25056E+05
 0.20049999E+02 -0.25104E+05
 0.20099998E+02 -0.25079E+05
 0.20149998E+02 -0.25081E+05
 0.20199999E+02 -0.25120E+05
 0.20249998E+02 -0.25081E+05
 0.20299999E+02 -0.25071E+05
 0.20349998E+02 -0.25080E+05
 0.20399998E+02 -0.25095E+05
 0.20449999E+02 -0.25119E+05
 0.20499998E+02 -0.25108E+05
 0.20549999E+02 -0.25082E+05
 0.20599998E+02 -0.25069E+05
 0.20649998E+02 -0.25100E+05
 0.20699999E+02 -0.25106E+05
 0.20749998E+02 -0.25103E+05
 0.20799999E+02 -0.25079E+05
 0.20849998E+02 -0.25076E+05
 0.20899998E+02 -0.25117E+05
 0.20949999E+02 -0.25094E+05
 0.20999998E+02 -0.25102E+05
 0.21049999E+02 -0.25108E+05
 0.21099998E+02 -0.25086E+05
 0.21149998E+02 -0.25091E+05
 0.21199999E+02 -0.25088E+05
 0.21249998E+02 -0.25081E+05
 0.21299999E+02 -0.25089E+05
 0.21349998E+02 -0.25118E+05
 0.21399998E+02 -0.25097E+05
 0.21449999E+02 -0.25061E+05
 0.21499998E+02 -0.25099E+05
 0.21549999E+02 -0.25145E+05
 0.21599998E+02 -0.25121E+05
 0.21649998E+02 -0.25089E+05
 0.21699999E+02 -0.25084E+05
 0.21749998E+02 -0.25098E+05
 0.21799999E+02 -0.25108E+05
 0.21849998E+02 -0.25098E+05
 0.21899998E+02 -0.25113E+05
 0.21949999E+02 -0.25117E+05
 0.21999998E+02 -0.25102E+05
 0.22049999E+02 -0.25092E+05
 0.22099998E+02 -0.25096E+05
 0.22149998E+02 -0.25128E+05
 0.22199999E+02 -0.25161E+05
 0.22249998E+02 -0.25117E+05
 0.22299999E+02 -0.25057E+05
 0.22349998E+02 -0.25094E+05
 0.22399998E+02 -0.25131E+05
 0.22449999E+02 -0.25117E+05
 0.22499998E+02 -0.25117E+05
 0.22549999E+02 -0.25117E+05
 0.22599998E+02 -0.25086E+05
 0.22649998E+02 -0.25097E+05
 0.22699999E+02 -0.25133E+05
 0.22749998E+02 -0.25135E+05
 0.22799999E+02 -0.25120E+05
 0.22849998E+02 -0.25088E+05
 0.22899998E+02 -0.25089E+05
 0.22949999E+02 -0.25110E+05
 0.22999998E+02 -0.25121E+05
 0.23049999E+02 -0.25130E+05
 0.23099998E+02 -0.25111E+05
 0.23149998E+02 -0.25102E+05
 0.23199999E+02 -0.25121E+05
 0.23249998E+02 -0.25125E+05
 0.23299999E+02 -0.25096E+05
 0.23349998E+02 -0.25100E+05
 0.23399998E+02 -0.25126E+05
 0.23449999E+02 -0.25103E+05
 0.23499998E+02 -0.25100E+05
 0.23549999E+02 -0.25117E+05
 0.23599998E+02 -0.25117E+05
 0.23649998E+02 -0.25109E+05
 0.23699999E+02 -0.25096E+05
 0.23749998E+02 -0.25114E+05
 0.23799999E+02 -0.25103E+05
 0.23849998E+02 -0.25088E+05
 0.23899998E+02 -0.25095E+05
 0.23949999E+02 -0.25098E+05
 0.23999998E+02 -0.25102E+05
 0.24049999E+02 -0.25087E+05
 0.24099998E+02 -0.25088E+05
 0.24149998E+02 -0.25087E+05
 0.24199999E+02 -0.25096E+05
 0.24249998E+02 -0.25110E+05
 0.24299999E+02 -0.25106E+05
 0.24349998E+02 -0.25095E+05
 0.24399998E+02 -0.25081E+05
 0.24449999E+02 -0.25106E+05
 0.24499998E+02 -0.25113E+05
 0.24549999E+02 -0.25103E+05
 0.24599998E+02 -0.25093E+05
 0.24649998E+02 -0.25089E+05
 0.24699999E+02 -0.25107E+05
 0.24749998E+02 -0.25093E+05
 0.24799999E+02 -0.25083E+05
 0.24849998E+02 -0.25101E+05
 0.24899998E+02 -0.25116E+05
 0.24949999E+02 -0.25094E+05
 0.24999998E+02 -0.25091E+05
 0.25049999E+02 -0.25092E+05
 0.25099998E+02 -0.25091E+05
 0.25149998E+02 -0.25126E+05
 0.25199999E+02 -0.25106E+05
 0.25249998E+02 -0.25086E+05
 0.25299999E+02 -0.25093E+05
 0.25349998E+02 -0.25097E+05
 0.25399998E+02 -0.25108E+05
 0.25449999E+02 -0.25107E+05
 0.25499998E+02 -0.25106E+05
 0.25549999E+02 -0.25105E+05
 0.25599998E+02 -0.25092E+05
 0.25649998E+02 -0.25091E+05
 0.25699999E+02 -0.25119E+05
 0.25749998E+02 -0.25123E+05
 0.25799999E+02 -0.25106E+05
 0.25849998E+02 -0.25093E+05
 0.25899998E+02 -0.25106E+05
 0.25949999E+02 -0.25122E+05
 0.25999998E+02 -0.25118E+05
 0.26049997E+02 -0.25117E+05
 0.26099998E+02 -0.25089E+05
 0.26149998E+02 -0.25091E+05
 0.26199999E+02 -0.25099E+05
 0.26249998E+02 -0.25079E+05
 0.26299997E+02 -0.25116E+05
 0.26349998E+02 -0.25130E+05
 0.26399998E+02 -0.25103E+05
 0.26449999E+02 -0.25087E+05
 0.26499998E+02 -0.25066E+05
 0.26549997E+02 -0.25106E+05
 0.26599998E+02 -0.25141E+05
 0.26649998E+02 -0.25107E+05
 0.26699999E+02 -0.25087E+05
 0.26749998E+02 -0.25088E+05
 0.26799997E+02 -0.25105E+05
 0.26849998E+02 -0.25109E+05
 0.26899998E+02 -0.25098E+05
 0.26949999E+02 -0.25101E+05
 0.26999998E+02 -0.25100E+05
 0.27049997E+02 -0.25091E+05
 0.27099998E+02 -0.25104E+05
 0.27149998E+02 -0.25121E+05
 0.27199999E+02 -0.25100E+05
 0.27249998E+02 -0.25088E+05
 0.27299997E+02 -0.25083E+05
 0.27349998E+02 -0.25087E+05
 0.27399998E+02 -0.25134E+05
 0.27449999E+02 -0.25124E+05
 0.27499998E+02 -0.25083E+05
 0.27549997E+02 -0.25085E+05
 0.27599998E+02 -0.25081E+05
 0.27649998E+02 -0.25107E+05
 0.27699999E+02 -0.25128E+05
 0.27749998E+02 -0.25099E+05
 0.27799997E+02 -0.25088E+05
 0.27849998E+02 -0.25093E+05
 0.27899998E+02 -0.25097E+05
 0.27949999E+02 -0.25107E+05
 0.27999998E+02 -0.25119E+05
 0.28049997E+02 -0.25109E+05
 0.28099998E+02 -0.25091E+05
 0.28149998E+02 -0.25094E+05
 0.28199999E+02 -0.25085E+05
 0.28249998E+02 -0.25080E+05
 0.28299997E+02 -0.25126E+05
 0.28349998E+02 -0.25138E+05
 0.28399998E+02 -0.25089E+05
 0.28449999E+02 -0.25097E+05
 0.28499998E+02 -0.25095E+05
 0.28549997E+02 -0.25094E+05
 0.28599998E+02 -0.25130E+05
 0.28649998E+02 -0.25099E+05
 0.28699999E+02 -0.25083E+05
 0.28749998E+02 -0.25086E+05
 0.28799997E+02 -0.25096E+05
 0.28849998E+02 -0.25131E+05
 0.28899998E+02 -0.25116E+05
 0.28949999E+02 -0.25098E+05
 0.28999998E+02 -0.25095E+05
 0.29049999E+02 -0.25109E+05
 0.29099998E+02 -0.25117E+05
 0.29149998E+02 -0.25104E+05
 0.29199997E+02 -0.25096E+05
 0.29249996E+02 -0.25079E+05
 0.29299999E+02 -0.25110E+05
 0.29349998E+02 -0.25106E+05
 0.29399998E+02 -0.25071E+05
 0.29449997E+02 -0.25097E+05
 0.29499996E+02 -0.25107E+05
 0.29549999E+02 -0.25096E+05
 0.29599998E+02 -0.25101E+05
 0.29649998E+02 -0.25148E+05
 0.29699997E+02 -0.25116E+05
 0.29749996E+02 -0.25025E+05
 0.29799999E+02 -0.25027E+05
 0.29849998E+02 -0.25088E+05
 0.29899998E+02 -0.25140E+05
 0.29949997E+02 -0.25094E+05
 0.29999996E+02 -0.25074E+05
 0.30049999E+02 -0.25098E+05
 0.30099998E+02 -0.25080E+05
 0.30149998E+02 -0.25110E+05
 0.30199997E+02 -0.25138E+05
 0.30249996E+02 -0.25093E+05
 0.30299999E+02 -0.25047E+05
 0.30349998E+02 -0.25047E+05
 0.30399998E+02 -0.25058E+05
 0.30449997E+02 -0.25105E+05
 0.30499996E+02 -0.25101E+05
 0.30549999E+02 -0.25056E+05
 0.30599998E+02 -0.25074E+05
 0.30649998E+02 -0.25111E+05
 0.30699997E+02 -0.25143E+05
 0.30749996E+02 -0.25100E+05
 0.30799999E+02 -0.25078E+05
 0.30849998E+02 -0.25096E+05
 0.30899998E+02 -0.25069E+05
 0.30949997E+02 -0.25067E+05
 0.30999996E+02 -0.25013E+05
 0.31049999E+02 -0.25042E+05
 0.31099998E+02 -0.25123E+05
 0.31149998E+02 -0.25079E+05
 0.31199997E+02 -0.25084E+05
 0.31249996E+02 -0.25103E+05
 0.31299999E+02 -0.25119E+05
 0.31349998E+02 -0.25111E+05
 0.31399998E+02 -0.25072E+05
 0.31449997E+02 -0.25083E+05
 0.31499996E+02 -0.25053E+05
 0.31549999E+02 -0.25053E+05
 0.31599998E+02 -0.25067E+05
 0.31649998E+02 -0.25033E+05
 0.31699997E+02 -0.25049E+05
 0.31749996E+02 -0.25097E+05
 0.31799999E+02 -0.25119E+05
 0.31849998E+02 -0.25106E+05
 0.31899998E+02 -0.25092E+05
 0.31949997E+02 -0.25080E+05
 0.31999996E+02 -0.25096E+05
 0.32049999E+02 -0.25077E+05
 0.32099998E+02 -0.25016E+05
 0.32149998E+02 -0.25053E+05
 0.32199997E+02 -0.25073E+05
 0.32249996E+02 -0.25077E+05
 0.32299999E+02 -0.25076E+05
 0.32349998E+02 -0.25075E+05
 0.32399998E+02 -0.25119E+05
 0.32449997E+02 -0.25087E+05
 0.32499996E+02 -0.25077E+05
 0.32549999E+02 -0.25083E+05
 0.32599998E+02 -0.25103E+05
 0.32649998E+02 -0.25112E+05
 0.32699997E+02 -0.25054E+05
 0.32749996E+02 -0.25086E+05
 0.32799999E+02 -0.25086E+05
 0.32849998E+02 -0.25037E+05
 0.32899998E+02 -0.25066E+05
 0.32949997E+02 -0.25088E+05
 0.32999996E+02 -0.25071E+05
 0.33049999E+02 -0.25072E+05
 0.33099998E+02 -0.25085E+05
 0.33149998E+02 -0.25083E+05
 0.33199997E+02 -0.25143E+05
 0.33249996E+02 -0.25148E+05
 0.33299999E+02 -0.25072E+05
 0.33349998E+02 -0.25085E+05
 0.33399998E+02 -0.25087E+05
 0.33449997E+02 -0.25071E+05
 0.33499996E+02 -0.25069E+05
 0.33549999E+02 -0.25031E+05
 0.33599998E+02 -0.25071E+05
 0.33649998E+02 -0.25082E+05
 0.33699997E+02 -0.25041E+05
 0.33749996E+02 -0.25122E+05
 0.33799999E+02 -0.25166E+05
 0.33849998E+02 -0.25133E+05
 0.33899998E+02 -0.25096E+05
 0.33949997E+02 -0.25069E+05
 0.33999996E+02 -0.25084E+05
 0.34049999E+02 -0.25058E+05
 0.34099998E+02 -0.25065E+05
 0.34149998E+02 -0.25090E+05
 0.34199997E+02 -0.25046E+05
 0.34249996E+02 -0.25055E+05
 0.34299999E+02 -0.25106E+05
 0.34349998E+02 -0.25115E+05
 0.34399998E+02 -0.25104E+05
 0.34449997E+02 -0.25081E+05
 0.34499996E+02 -0.25074E+05
 0.34549999E+02 -0.25098E+05
 0.34599998E+02 -0.25082E+05
 0.34649998E+02 -0.25077E+05
 0.34699997E+02 -0.25075E+05
 0.34749996E+02 -0.25040E+05
 0.34799999E+02 -0.25077E+05
 0.34849998E+02 -0.25119E+05
 0.34899998E+02 -0.25094E+05
 0.34949997E+02 -0.25075E+05
 0.34999996E+02 -0.25107E+05
 0.35049999E+02 -0.25092E+05
 0.35099998E+02 -0.25065E+05
 0.35149998E+02 -0.25115E+05
 0.35199997E+02 -0.25126E+05
 0.35249996E+02 -0.25086E+05
 0.35299999E+02 -0.25052E+05
 0.35349998E+02 -0.25087E+05
 0.35399998E+02 -0.25119E+05
 0.35449997E+02 -0.25090E+05
 0.35499996E+02 -0.25084E+05
 0.35549999E+02 -0.25076E+05
 0.35599998E+02 -0.25085E+05
 0.35649998E+02 -0.25112E+05
 0.35699997E+02 -0.25111E+05
 0.35749996E+02 -0.25095E+05
 0.35799999E+02 -0.25074E+05
 0.35849998E+02 -0.25089E+05
 0.35899998E+02 -0.25127E+05
 0.35949997E+02 -0.25100E+05
 0.35999996E+02 -0.25086E+05
 0.36049999E+02 -0.25111E+05
 0.36099998E+02 -0.25100E+05
 0.36149998E+02 -0.25092E+05
 0.36199997E+02 -0.25085E+05
 0.36249996E+02 -0.25084E+05
 0.36299999E+02 -0.25104E+05
 0.36349998E+02 -0.25119E+05
 0.36399998E+02 -0.25106E+05
 0.36449997E+02 -0.25093E+05
 0.36499996E+02 -0.25093E+05
 0.36549999E+02 -0.25074E+05
 0.36599998E+02 -0.25084E+05
 0.36649998E+02 -0.25121E+05
 0.36699997E+02 -0.25120E+05
 0.36749996E+02 -0.25092E+05
 0.36799999E+02 -0.25077E+05
 0.36849998E+02 -0.25078E+05
 0.36899998E+02 -0.25105E+05
 0.36949997E+02 -0.25128E+05
 0.36999996E+02 -0.25111E+05
 0.37049999E+02 -0.25097E+05
 0.37099998E+02 -0.25106E+05
 0.37149998E+02 -0.25109E+05
 0.37199997E+02 -0.25113E+05
 0.37249996E+02 -0.25133E+05
 0.37299999E+02 -0.25108E+05
 0.37349998E+02 -0.25074E+05
 0.37399998E+02 -0.25112E+05
 0.37449997E+02 -0.25138E+05
 0.37499996E+02 -0.25129E+05
 0.37549999E+02 -0.25122E+05
 0.37599998E+02 -0.25117E+05
 0.37649998E+02 -0.25120E+05
 0.37699997E+02 -0.25113E+05
 0.37749996E+02 -0.25117E+05
 0.37799999E+02 -0.25129E+05
 0.37849998E+02 -0.25111E+05
 0.37899998E+02 -0.25098E+05
 0.37949997E+02 -0.25121E+05
 0.37999996E+02 -0.25141E+05
 0.38049999E+02 -0.25125E+05
 0.38099998E+02 -0.25114E+05
 0.38149998E+02 -0.25115E+05
 0.38199997E+02 -0.25103E+05
 0.38249996E+02 -0.25119E+05
 0.38299999E+02 -0.25131E+05
 0.38349998E+02 -0.25116E+05
 0.38399998E+02 -0.25118E+05
 0.38449997E+02 -0.25118E+05
 0.38499996E+02 -0.25134E+05
 0.38549999E+02 -0.25131E+05
 0.38599998E+02 -0.25109E+05
 0.38649998E+02 -0.25108E+05
 0.38699997E+02 -0.25108E+05
 0.38749996E+02 -0.25127E+05
 0.38799999E+02 -0.25119E+05
 0.38849998E+02 -0.25127E+05
 0.38899998E+02 -0.25126E+05
 0.38949997E+02 -0.25108E+05
 0.38999996E+02 -0.25140E+05
 0.39049999E+02 -0.25135E+05
 0.39099998E+02 -0.25113E+05
 0.39149998E+02 -0.25101E+05
 0.39199997E+02 -0.25121E+05
 0.39249996E+02 -0.25130E+05
 0.39299999E+02 -0.25097E+05
 0.39349998E+02 -0.25117E+05
 0.39399998E+02 -0.25130E+05
 0.39449997E+02 -0.25127E+05
 0.39499996E+02 -0.25128E+05
 0.39549999E+02 -0.25134E+05
 0.39599998E+02 -0.25141E+05
 0.39649998E+02 -0.25088E+05
 0.39699997E+02 -0.25085E+05
 0.39749996E+02 -0.25132E+05
 0.39799999E+02 -0.25120E+05
 0.39849998E+02 -0.25099E+05
 0.39899998E+02 -0.25109E+05
 0.39949997E+02 -0.25127E+05
 0.39999996E+02 -0.25124E+05
 0.40049999E+02 -0.25118E+05
 0.40099998E+02 -0.25121E+05
 0.40149998E+02 -0.25115E+05
 0.40199997E+02 -0.25098E+05
 0.40249996E+02 -0.25117E+05
 0.40299999E+02 -0.25134E+05
 0.40349998E+02 -0.25112E+05
 0.40399998E+02 -0.25100E+05
 0.40449997E+02 -0.25111E+05
 0.40499996E+02 -0.25122E+05
 0.40549999E+02 -0.25112E+05
 0.40599998E+02 -0.25112E+05
 0.40649998E+02 -0.25104E+05
 0.40699997E+02 -0.25105E+05
 0.40749996E+02 -0.25110E+05
 0.40799999E+02 -0.25112E+05
 0.40849998E+02 -0.25123E+05
 0.40899998E+02 -0.25109E+05
 0.40949997E+02 -0.25103E+05
 0.40999996E+02 -0.25098E+05
 0.41049999E+02 -0.25108E+05
 0.41099998E+02 -0.25110E+05
 0.41149998E+02 -0.25096E+05
 0.41199997E+02 -0.25095E+05
 0.41249996E+02 -0.25101E+05
 0.41299999E+02 -0.25111E+05
 0.41349998E+02 -0.25104E+05
 0.41399998E+02 -0.25099E+05
 0.41449997E+02 -0.25109E+05
 0.41499996E+02 -0.25105E+05
 0.41549999E+02 -0.25088E+05
 0.41599998E+02 -0.25098E+05
 0.41649998E+02 -0.25123E+05
 0.41699997E+02 -0.25108E+05
 0.41749996E+02 -0.25092E+05
 0.41799995E+02 -0.25101E+05
 0.41849998E+02 -0.25094E+05
 0.41899998E+02 -0.25100E+05
 0.41949997E+02 -0.25109E+05
 0.41999996E+02 -0.25098E+05
 0.42049995E+02 -0.25096E+05
 0.42099998E+02 -0.25096E+05
 0.42149998E+02 -0.25111E+05
 0.42199997E+02 -0.25104E+05
 0.42249996E+02 -0.25083E+05
 0.42299995E+02 -0.25101E+05
 0.42349998E+02 -0.25111E+05
 0.42399998E+02 -0.25090E+05
 0.42449997E+02 -0.25082E+05
 0.42499996E+02 -0.25083E+05
 0.42549995E+02 -0.25071E+05
 0.42599998E+02 -0.25083E+05
 0.42649998E+02 -0.25102E+05
 0.42699997E+02 -0.25094E+05
 0.42749996E+02 -0.25103E+05
 0.42799995E+02 -0.25103E+05
 0.42849998E+02 -0.25073E+05
 0.42899998E+02 -0.25086E+05
 0.42949997E+02 -0.25105E+05
 0.42999996E+02 -0.25080E+05
 0.43049995E+02 -0.25076E+05
 0.43099998E+02 -0.25085E+05
 0.43149998E+02 -0.25078E+05
 0.43199997E+02 -0.25087E+05
 0.43249996E+02 -0.25096E+05
 0.43299995E+02 -0.25084E+05
 0.43349998E+02 -0.25089E+05
 0.43399998E+02 -0.25108E+05
 0.43449997E+02 -0.25114E+05
 0.43499996E+02 -0.25081E+05
 0.43549995E+02 -0.25065E+05
 0.43599998E+02 -0.25089E+05
 0.43649998E+02 -0.25085E+05
 0.43699997E+02 -0.25092E+05
 0.43749996E+02 -0.25092E+05
 0.43799995E+02 -0.25101E+05
 0.43849998E+02 -0.25099E+05
 0.43899998E+02 -0.25075E+05
 0.43949997E+02 -0.25109E+05
 0.43999996E+02 -0.25102E+05
 0.44049995E+02 -0.25087E+05
 0.44099998E+02 -0.25107E+05
 0.44149998E+02 -0.25101E+05
 0.44199997E+02 -0.25095E+05
 0.44249996E+02 -0.25112E+05
 0.44299995E+02 -0.25119E+05
 0.44349998E+02 -0.25093E+05
 0.44399998E+02 -0.25099E+05
 0.44449997E+02 -0.25115E+05
 0.44499996E+02 -0.25112E+05
 0.44549995E+02 -0.25105E+05
 0.44599998E+02 -0.25102E+05
 0.44649998E+02 -0.25116E+05
 0.44699997E+02 -0.25112E+05
 0.44749996E+02 -0.25104E+05
 0.44799995E+02 -0.25106E+05
 0.44849998E+02 -0.25101E+05
 0.44899998E+02 -0.25108E+05
 0.44949997E+02 -0.25116E+05
 0.44999996E+02 -0.25117E+05
 0.45049995E+02 -0.25119E+05
 0.45099998E+02 -0.25113E+05
 0.45149998E+02 -0.25115E+05
 0.45199997E+02 -0.25114E+05
 0.45249996E+02 -0.25113E+05
 0.45299995E+02 -0.25117E+05
 0.45349998E+02 -0.25103E+05
 0.45399998E+02 -0.25109E+05
 0.45449997E+02 -0.25138E+05
 0.45499996E+02 -0.25119E+05
 0.45549995E+02 -0.25102E+05
 0.45599998E+02 -0.25139E+05
 0.45649998E+02 -0.25133E+05
 0.45699997E+02 -0.25118E+05
 0.45749996E+02 -0.25125E+05
 0.45799995E+02 -0.25111E+05
 0.45849998E+02 -0.25111E+05
 0.45899998E+02 -0.25109E+05
 0.45949997E+02 -0.25123E+05
 0.45999996E+02 -0.25125E+05
 0.46049995E+02 -0.25106E+05
 0.46099998E+02 -0.25123E+05
 0.46149998E+02 -0.25107E+05
 0.46199997E+02 -0.25093E+05
 0.46249996E+02 -0.25127E+05
 0.46299995E+02 -0.25131E+05
 0.46349998E+02 -0.25124E+05
 0.46399998E+02 -0.25128E+05
 0.46449997E+02 -0.25127E+05
 0.46499996E+02 -0.25120E+05
 0.46549995E+02 -0.25103E+05
 0.46599998E+02 -0.25108E+05
 0.46649998E+02 -0.25120E+05
 0.46699997E+02 -0.25109E+05
 0.46749996E+02 -0.25115E+05
 0.46799995E+02 -0.25124E+05
 0.46849998E+02 -0.25115E+05
 0.46899998E+02 -0.25105E+05
 0.46949997E+02 -0.25122E+05
 0.46999996E+02 -0.25122E+05
 0.47049995E+02 -0.25103E+05
 0.47099998E+02 -0.25121E+05
 0.47149998E+02 -0.25120E+05
 0.47199997E+02 -0.25109E+05
 0.47249996E+02 -0.25125E+05
 0.47299995E+02 -0.25132E+05
 0.47349998E+02 -0.25120E+05
 0.47399998E+02 -0.25111E+05
 0.47449997E+02 -0.25107E+05
 0.47499996E+02 -0.25108E+05
 0.47549995E+02 -0.25121E+05
 0.47599998E+02 -0.25107E+05
 0.47649998E+02 -0.25099E+05
 0.47699997E+02 -0.25119E+05
 0.47749996E+02 -0.25132E+05
 0.47799995E+02 -0.25166E+05
 0.47849998E+02 -0.25191E+05
 0.47899998E+02 -0.25164E+05
 0.47949997E+02 -0.25130E+05
 0.47999996E+02 -0.25135E+05
 0.48049995E+02 -0.25142E+05
 0.48099998E+02 -0.25070E+05
 0.48149998E+02 -0.25020E+05
 0.48199997E+02 -0.25147E+05
 0.48249996E+02 -0.25322E+05
 0.48299995E+02 -0.25480E+05
 0.48349998E+02 -0.25752E+05
 0.48399998E+02 -0.26192E+05
 0.48449997E+02 -0.26843E+05
 0.48499996E+02 -0.27421E+05
 0.48549995E+02 -0.27581E+05
 0.48599998E+02 -0.27436E+05
 0.48649998E+02 -0.27395E+05
 0.48699997E+02 -0.27414E+05
 0.48749996E+02 -0.27091E+05
 0.48799995E+02 -0.26646E+05
 0.48849998E+02 -0.26252E+05
 0.48899998E+02 -0.25667E+05
 0.48949997E+02 -0.25047E+05
 0.48999996E+02 -0.24900E+05
 0.49049995E+02 -0.25051E+05
 0.49099998E+02 -0.25376E+05
 0.49149998E+02 -0.25554E+05
 0.49199997E+02 -0.24997E+05
 0.49249996E+02 -0.24538E+05
 0.49299995E+02 -0.24890E+05
 0.49349998E+02 -0.25365E+05
 0.49399998E+02 -0.24682E+05
 0.49449997E+02 -0.24205E+05
 0.49499996E+02 -0.24051E+05
 0.49549995E+02 -0.22533E+05
 0.49599998E+02 -0.22057E+05
 0.49649998E+02 -0.22623E+05
 0.49699997E+02 -0.22502E+05
 0.49749996E+02 -0.21936E+05
 0.49799995E+02 -0.21836E+05
 0.49849998E+02 -0.22778E+05
 0.49899998E+02 -0.23874E+05
 0.49949997E+02 -0.25963E+05
 0.49999996E+02 -0.26946E+05
 0.50049995E+02 -0.26335E+05
 0.50099998E+02 -0.28301E+05
 0.50149998E+02 -0.29796E+05
 0.50199997E+02 -0.27045E+05
 0.50249996E+02 -0.23609E+05
 0.50299995E+02 -0.23175E+05
 0.50349998E+02 -0.23047E+05
 0.50399998E+02 -0.23454E+05
 0.50449997E+02 -0.27101E+05
 0.50499996E+02 -0.27475E+05
 0.50549995E+02 -0.26595E+05
 0.50599998E+02 -0.30975E+05
 0.50649998E+02 -0.34437E+05
 0.50699997E+02 -0.32601E+05
 0.50749996E+02 -0.29245E+05
 0.50799995E+02 -0.26458E+05
 0.50849998E+02 -0.23633E+05
 0.50899998E+02 -0.24319E+05
 0.50949997E+02 -0.25919E+05
 0.50999996E+02 -0.23530E+05
 0.51049995E+02 -0.23704E+05
 0.51099998E+02 -0.26846E+05
 0.51149998E+02 -0.24090E+05
 0.51199997E+02 -0.21288E+05
 0.51249996E+02 -0.24203E+05
 0.51299995E+02 -0.25180E+05
 0.51349998E+02 -0.24913E+05
 0.51399998E+02 -0.22286E+05
 0.51449997E+02 -0.19342E+05
 0.51499996E+02 -0.23427E+05
 0.51549995E+02 -0.25893E+05
 0.51599998E+02 -0.23029E+05
 0.51649998E+02 -0.20077E+05
 0.51699997E+02 -0.20767E+05
 0.51749996E+02 -0.25892E+05
 0.51799995E+02 -0.25859E+05
 0.51849998E+02 -0.24669E+05
 0.51899998E+02 -0.28861E+05
 0.51949997E+02 -0.25055E+05
 0.51999996E+02 -0.22189E+05
 0.52049995E+02 -0.30342E+05
 0.52099998E+02 -0.32790E+05
 0.52149998E+02 -0.25112E+05
 0.52199997E+02 -0.15720E+05
 0.52249996E+02 -0.12160E+05
 0.52299995E+02 -0.19545E+05
 0.52349998E+02 -0.30644E+05
 0.52399998E+02 -0.31654E+05
 0.52449997E+02 -0.30598E+05
 0.52499996E+02 -0.33393E+05
 0.52549995E+02 -0.32123E+05
 0.52599998E+02 -0.35156E+05
 0.52649998E+02 -0.41611E+05
 0.52699997E+02 -0.38652E+05
 0.52749996E+02 -0.25565E+05
 0.52799995E+02 -0.16566E+05
 0.52849998E+02 -0.20942E+05
 0.52899998E+02 -0.26209E+05
 0.52949997E+02 -0.23516E+05
 0.52999996E+02 -0.18759E+05
 0.53049995E+02 -0.21509E+05
 0.53099998E+02 -0.26537E+05
 0.53149998E+02 -0.30057E+05
 0.53199997E+02 -0.33662E+05
 0.53249996E+02 -0.26241E+05
 0.53299995E+02 -0.24428E+05
 0.53349998E+02 -0.34633E+05
 0.53399998E+02 -0.40097E+05
 0.53449997E+02 -0.43464E+05
 0.53499996E+02 -0.36614E+05
 0.53549995E+02 -0.24026E+05
 0.53599998E+02 -0.13485E+05
 0.53649998E+02 -0.92820E+04
 0.53699997E+02 -0.15534E+05
 0.53749996E+02 -0.80530E+04
 0.53799995E+02  0.16930E+04
 0.53849998E+02 -0.37130E+04
 0.53899998E+02 -0.16768E+05
 0.53949997E+02 -0.37746E+05
 0.53999996E+02 -0.46063E+05
 0.54049995E+02 -0.40907E+05
 0.54099998E+02 -0.35496E+05
 0.54149998E+02 -0.35503E+05
 0.54199997E+02 -0.34968E+05
 0.54249996E+02 -0.11526E+05
 0.54299995E+02  0.51650E+04
 0.54349998E+02 -0.87600E+03
 0.54399998E+02  0.21060E+04
 0.54449997E+02  0.35370E+04
 0.54499996E+02 -0.17206E+05
 0.54549995E+02 -0.38111E+05
 0.54599998E+02 -0.35079E+05
 0.54649998E+02 -0.24982E+05
 0.54699997E+02 -0.40158E+05
 0.54749996E+02 -0.62256E+05
 0.54799995E+02 -0.51413E+05
 0.54849995E+02 -0.32290E+05
 0.54899998E+02 -0.23441E+05
 0.54949997E+02 -0.18741E+05
 0.54999996E+02 -0.14132E+05
 0.55049995E+02  0.74100E+03
 0.55099995E+02 -0.40200E+04
 0.55149998E+02 -0.62400E+03
 0.55199997E+02  0.16764E+05
 0.55249996E+02 -0.92880E+04
 0.55299995E+02 -0.39440E+05
 0.55349995E+02 -0.46856E+05
 0.55399998E+02 -0.48338E+05
 0.55449997E+02 -0.58265E+05
 0.55499996E+02 -0.78415E+05
 0.55549995E+02 -0.73174E+05
 0.55599995E+02 -0.44380E+05
 0.55649998E+02 -0.15683E+05
 0.55699997E+02  0.12710E+05
 0.55749996E+02  0.29547E+05
 0.55799995E+02  0.22813E+05
 0.55849995E+02  0.14334E+05
 0.55899998E+02  0.10038E+05
 0.55949997E+02 -0.20950E+04
 0.55999996E+02 -0.36941E+05
 0.56049995E+02 -0.81833E+05
 0.56099995E+02 -0.93234E+05
 0.56149998E+02 -0.88649E+05
 0.56199997E+02 -0.61897E+05
 0.56249996E+02 -0.23382E+05
 0.56299995E+02 -0.26511E+05
 0.56349995E+02 -0.32968E+05
 0.56399998E+02 -0.97570E+04
 0.56449997E+02  0.37924E+05
 0.56499996E+02  0.65182E+05
 0.56549995E+02  0.46140E+05
 0.56599995E+02  0.15659E+05
 0.56649998E+02 -0.21939E+05
 0.56699997E+02 -0.42963E+05
 0.56749996E+02 -0.46591E+05
 0.56799995E+02 -0.50170E+05
 0.56849995E+02 -0.54970E+05
 0.56899998E+02 -0.63121E+05
 0.56949997E+02 -0.59606E+05
 0.56999996E+02 -0.49149E+05
 0.57049995E+02 -0.37648E+05
 0.57099995E+02 -0.45094E+05
 0.57149998E+02 -0.41376E+05
 0.57199997E+02  0.10212E+05
 0.57249996E+02  0.37838E+05
 0.57299995E+02  0.70910E+04
 0.57349995E+02 -0.10353E+05
 0.57399998E+02  0.19850E+04
 0.57449997E+02 -0.14809E+05
 0.57499996E+02 -0.40902E+05
 0.57549995E+02 -0.52957E+05
 0.57599995E+02 -0.64117E+05
 0.57649998E+02 -0.69564E+05
 0.57699997E+02 -0.64033E+05
 0.57749996E+02 -0.46551E+05
 0.57799995E+02 -0.48090E+05
 0.57849995E+02 -0.42117E+05
 0.57899998E+02 -0.10940E+05
 0.57949997E+02  0.57770E+04
 0.57999996E+02  0.16014E+05
 0.58049995E+02  0.18728E+05
 0.58099995E+02  0.21090E+04
 0.58149998E+02 -0.22701E+05
 0.58199997E+02 -0.29798E+05
 0.58249996E+02 -0.32800E+05
 0.58299995E+02 -0.52129E+05
 0.58349995E+02 -0.56874E+05
 0.58399998E+02 -0.47433E+05
 0.58449997E+02 -0.28311E+05
 0.58499996E+02 -0.77110E+04
 0.58549995E+02 -0.10741E+05
 0.58599995E+02 -0.40956E+05
 0.58649998E+02 -0.59087E+05
 0.58699997E+02 -0.28951E+05
 0.58749996E+02 -0.27940E+04
 0.58799995E+02 -0.50520E+04
 0.58849995E+02 -0.22938E+05
 0.58899998E+02 -0.34528E+05
 0.58949997E+02 -0.17310E+05
 0.58999996E+02 -0.70150E+04
 0.59049995E+02 -0.81190E+04
 0.59099995E+02 -0.24132E+05
 0.59149998E+02 -0.47748E+05
 0.59199997E+02 -0.42735E+05
 0.59249996E+02 -0.19293E+05
 0.59299995E+02  0.59000E+03
 0.59349995E+02 -0.48500E+03
 0.59399998E+02 -0.12022E+05
 0.59449997E+02 -0.14612E+05
 0.59499996E+02 -0.63130E+04
 0.59549995E+02 -0.12560E+04
 0.59599995E+02 -0.32080E+05
 0.59649998E+02 -0.72880E+05
 0.59699997E+02 -0.85861E+05
 0.59749996E+02 -0.81698E+05
 0.59799995E+02 -0.62498E+05
 0.59849995E+02 -0.47272E+05
 0.59899998E+02 -0.37219E+05
 0.59949997E+02 -0.38170E+04
 0.59999996E+02  0.23223E+05
 0.60049995E+02  0.31360E+05
 0.60099995E+02  0.21231E+05
 0.60149998E+02 -0.23413E+05
 0.60199997E+02 -0.40394E+05
 0.60249996E+02 -0.24618E+05
 0.60299995E+02 -0.34011E+05
 0.60349995E+02 -0.54640E+05
 0.60399998E+02 -0.58635E+05
 0.60449997E+02 -0.37157E+05
 0.60499996E+02 -0.56310E+04
 0.60549995E+02  0.15882E+05
 0.60599995E+02  0.26660E+04
 0.60649998E+02 -0.33186E+05
 0.60699997E+02 -0.42800E+05
 0.60749996E+02 -0.19034E+05
 0.60799995E+02 -0.10705E+05
 0.60849995E+02 -0.50048E+05
 0.60899998E+02 -0.62678E+05
 0.60949997E+02 -0.29656E+05
 0.60999996E+02 -0.16029E+05
 0.61049995E+02 -0.12466E+05
 0.61099998E+02  0.54700E+03
 0.61149994E+02 -0.10510E+04
 0.61199997E+02 -0.28181E+05
 0.61249992E+02 -0.51755E+05
 0.61299995E+02 -0.48975E+05
 0.61349998E+02 -0.42678E+05
 0.61399994E+02 -0.54294E+05
 0.61449997E+02 -0.55175E+05
 0.61499992E+02 -0.30010E+05
 0.61549995E+02 -0.90820E+04
 0.61599998E+02 -0.83600E+03
 0.61649994E+02  0.98510E+04
 0.61699997E+02  0.17089E+05
 0.61749992E+02  0.43810E+04
 0.61799995E+02 -0.15176E+05
 0.61849998E+02 -0.23398E+05
 0.61899994E+02 -0.30435E+05
 0.61949997E+02 -0.54023E+05
 0.61999992E+02 -0.67178E+05
 0.62049995E+02 -0.47935E+05
 0.62099998E+02 -0.40488E+05
 0.62149994E+02 -0.37447E+05
 0.62199997E+02 -0.14876E+05
 0.62249992E+02  0.11120E+05
 0.62299995E+02  0.25194E+05
 0.62349998E+02 -0.67000E+04
 0.62399994E+02 -0.35664E+05
 0.62449997E+02 -0.21572E+05
 0.62499992E+02 -0.17541E+05
 0.62549995E+02 -0.24532E+05
 0.62599998E+02 -0.27285E+05
 0.62649994E+02 -0.43815E+05
 0.62699997E+02 -0.74385E+05
 0.62749992E+02 -0.77069E+05
 0.62799995E+02 -0.48935E+05
 0.62849998E+02 -0.22938E+05
 0.62899994E+02 -0.13830E+04
 0.62949997E+02 -0.14770E+04
 0.62999992E+02  0.86740E+04
 0.63049995E+02  0.42956E+05
 0.63099998E+02  0.32828E+05
 0.63149994E+02 -0.13893E+05
 0.63199997E+02 -0.53185E+05
 0.63249992E+02 -0.77491E+05
 0.63299995E+02 -0.83505E+05
 0.63349998E+02 -0.68847E+05
 0.63399994E+02 -0.46492E+05
 0.63449997E+02 -0.48556E+05
 0.63499992E+02 -0.42307E+05
 0.63549995E+02  0.55780E+04
 0.63599998E+02  0.35402E+05
 0.63649994E+02  0.25056E+05
 0.63699997E+02  0.11536E+05
 0.63749992E+02  0.66370E+04
 0.63799995E+02 -0.84580E+04
 0.63849998E+02 -0.39567E+05
 0.63899994E+02 -0.69737E+05
 0.63949997E+02 -0.92817E+05
 0.63999992E+02 -0.74465E+05
 0.64049995E+02 -0.28489E+05
 0.64099998E+02 -0.13541E+05
 0.64149994E+02 -0.13800E+04
 0.64199997E+02  0.88510E+04
 0.64249992E+02  0.21340E+04
 0.64299995E+02  0.15314E+05
 0.64349998E+02  0.27295E+05
 0.64399994E+02 -0.23380E+04
 0.64449997E+02 -0.46815E+05
 0.64499992E+02 -0.62008E+05
 0.64549995E+02 -0.54475E+05
 0.64599998E+02 -0.45307E+05
 0.64649994E+02 -0.38803E+05
 0.64699997E+02 -0.35569E+05
 0.64749992E+02 -0.42502E+05
 0.64799995E+02 -0.49319E+05
 0.64849998E+02 -0.23178E+05
 0.64899994E+02  0.84760E+04
 0.64949997E+02  0.25630E+04
 0.64999992E+02 -0.21536E+05
 0.65049995E+02 -0.36565E+05
 0.65099998E+02 -0.38628E+05
 0.65149994E+02 -0.30547E+05
 0.65199997E+02 -0.19302E+05
 0.65249992E+02 -0.18939E+05
 0.65299995E+02 -0.26523E+05
 0.65349998E+02 -0.35312E+05
 0.65399994E+02 -0.26406E+05
 0.65449997E+02  0.15520E+04
 0.65499992E+02 -0.73910E+04
 0.65549995E+02 -0.31253E+05
 0.65599998E+02 -0.21922E+05
 0.65649994E+02 -0.16241E+05
 0.65699997E+02 -0.32898E+05
 0.65749992E+02 -0.42026E+05
 0.65799995E+02 -0.20371E+05
 0.65849998E+02  0.51030E+04
 0.65899994E+02  0.13318E+05
 0.65949997E+02  0.13675E+05
 0.65999992E+02 -0.10072E+05
 0.66049995E+02 -0.44681E+05
 0.66099998E+02 -0.41972E+05
 0.66149994E+02 -0.25094E+05
 0.66199997E+02 -0.34141E+05
 0.66249992E+02 -0.44851E+05
 0.66299995E+02 -0.46880E+05
 0.66349998E+02 -0.44005E+05
 0.66399994E+02 -0.27542E+05
 0.66449997E+02 -0.23374E+05
 0.66499992E+02 -0.39361E+05
 0.66549995E+02 -0.46428E+05
 0.66599998E+02 -0.40612E+05
 0.66649994E+02 -0.20813E+05
 0.66699997E+02  0.23750E+04
 0.66749992E+02  0.52750E+04
 0.66799995E+02 -0.16169E+05
 0.66849998E+02 -0.39641E+05
 0.66899994E+02 -0.34822E+05
 0.66949997E+02 -0.12976E+05
 0.66999992E+02  0.12290E+04
 0.67049995E+02  0.41090E+04
 0.67099998E+02 -0.33740E+04
 0.67149994E+02 -0.36263E+05
 0.67199997E+02 -0.67578E+05
 0.67249992E+02 -0.51779E+05
 0.67299995E+02 -0.35800E+05
 0.67349998E+02 -0.55587E+05
 0.67399994E+02 -0.64245E+05
 0.67449997E+02 -0.33981E+05
 0.67499992E+02 -0.62970E+04
 0.67549995E+02 -0.10774E+05
 0.67599998E+02 -0.19706E+05
 0.67649994E+02 -0.20203E+05
 0.67699997E+02 -0.11584E+05
 0.67749992E+02  0.65400E+04
 0.67799995E+02  0.44300E+04
 0.67849998E+02 -0.13474E+05
 0.67899994E+02 -0.80490E+04
 0.67949997E+02 -0.15800E+05
 0.67999992E+02 -0.56668E+05
 0.68049995E+02 -0.54069E+05
 0.68099998E+02 -0.28361E+05
 0.68149994E+02 -0.43366E+05
 0.68199997E+02 -0.45507E+05
 0.68249992E+02 -0.29355E+05
 0.68299995E+02 -0.29942E+05
 0.68349998E+02 -0.26186E+05
 0.68399994E+02 -0.16030E+05
 0.68449997E+02 -0.20780E+04
 0.68499992E+02 -0.67100E+04
 0.68549995E+02 -0.32895E+05
 0.68599998E+02 -0.34814E+05
 0.68649994E+02 -0.25844E+05
 0.68699997E+02 -0.38366E+05
 0.68749992E+02 -0.40619E+05
 0.68799995E+02 -0.18080E+05
 0.68849998E+02 -0.18955E+05
 0.68899994E+02 -0.46263E+05
 0.68949997E+02 -0.47370E+05
 0.68999992E+02 -0.15823E+05
 0.69049995E+02 -0.43680E+04
 0.69099998E+02 -0.23375E+05
 0.69149994E+02 -0.37346E+05
 0.69199997E+02 -0.43663E+05
 0.69249992E+02 -0.36662E+05
 0.69299995E+02 -0.19618E+05
 0.69349998E+02 -0.14304E+05
 0.69399994E+02 -0.27456E+05
 0.69449997E+02 -0.44800E+05
 0.69499992E+02 -0.33662E+05
 0.69549995E+02 -0.33280E+04
 0.69599998E+02 -0.27760E+04
 0.69649994E+02 -0.32579E+05
 0.69699997E+02 -0.44792E+05
 0.69749992E+02 -0.40983E+05
 0.69799995E+02 -0.35983E+05
 0.69849998E+02 -0.21147E+05
 0.69899994E+02 -0.17271E+05
 0.69949997E+02 -0.23100E+05
 0.69999992E+02 -0.16363E+05
 0.70049995E+02 -0.15466E+05
 0.70099998E+02 -0.27158E+05
 0.70149994E+02 -0.16581E+05
 0.70199997E+02 -0.70510E+04
 0.70249992E+02 -0.20056E+05
 0.70299995E+02 -0.18996E+05
 0.70349998E+02 -0.63580E+04
 0.70399994E+02  0.21410E+04
 0.70449997E+02 -0.11239E+05
 0.70499992E+02 -0.45320E+05
 0.70549995E+02 -0.68396E+05
 0.70599998E+02 -0.74945E+05
 0.70649994E+02 -0.69433E+05
 0.70699997E+02 -0.45767E+05
 0.70749992E+02 -0.25325E+05
 0.70799995E+02 -0.25845E+05
 0.70849998E+02 -0.17675E+05
 0.70899994E+02 -0.10601E+05
 0.70949997E+02 -0.73830E+04
 0.70999992E+02  0.63050E+04
 0.71049995E+02  0.29240E+04
 0.71099998E+02 -0.12782E+05
 0.71149994E+02 -0.34626E+05
 0.71199997E+02 -0.38596E+05
 0.71249992E+02 -0.26234E+05
 0.71299995E+02 -0.42577E+05
 0.71349998E+02 -0.49826E+05
 0.71399994E+02 -0.30233E+05
 0.71449997E+02 -0.11991E+05
 0.71499992E+02  0.47730E+04
 0.71549995E+02  0.29582E+05
 0.71599998E+02  0.45466E+05
 0.71649994E+02  0.26019E+05
 0.71699997E+02  0.14178E+05
 0.71749992E+02  0.28692E+05
 0.71799995E+02  0.37740E+05
 0.71849998E+02  0.22704E+05
 0.71899994E+02 -0.15553E+05
 0.71949997E+02 -0.43490E+05
 0.71999992E+02 -0.62221E+05
 0.72049995E+02 -0.74473E+05
 0.72099998E+02 -0.64287E+05
 0.72149994E+02 -0.52403E+05
 0.72199997E+02 -0.45533E+05
 0.72249992E+02 -0.27476E+05
 0.72299995E+02  0.41780E+04
 0.72349998E+02  0.35169E+05
 0.72399994E+02  0.42392E+05
 0.72449997E+02  0.15110E+05
 0.72499992E+02 -0.15836E+05
 0.72549995E+02 -0.30850E+05
 0.72599998E+02 -0.45474E+05
 0.72649994E+02 -0.54893E+05
 0.72699997E+02 -0.65130E+05
 0.72749992E+02 -0.95865E+05
 0.72799995E+02 -0.12513E+06
 0.72849998E+02 -0.11537E+06
 0.72899994E+02 -0.80311E+05
 0.72949997E+02 -0.43782E+05
 0.72999992E+02 -0.97500E+04
 0.73049995E+02  0.48770E+04
 0.73099998E+02 -0.25100E+03
 0.73149994E+02 -0.44960E+04
 0.73199997E+02 -0.91940E+04
 0.73249992E+02 -0.26161E+05
 0.73299995E+02 -0.30629E+05
 0.73349998E+02 -0.29578E+05
 0.73399994E+02 -0.55280E+05
 0.73449997E+02 -0.84751E+05
 0.73499992E+02 -0.96953E+05
 0.73549995E+02 -0.91518E+05
 0.73599998E+02 -0.73766E+05
 0.73649994E+02 -0.51165E+05
 0.73699997E+02 -0.25428E+05
 0.73749992E+02  0.51530E+04
 0.73799995E+02  0.42085E+05
 0.73849998E+02  0.78587E+05
 0.73899994E+02  0.96556E+05
 0.73949997E+02  0.79504E+05
 0.73999992E+02  0.61043E+05
 0.74049995E+02  0.44279E+05
 0.74099998E+02 -0.51100E+04
 0.74149994E+02 -0.52393E+05
 0.74199997E+02 -0.79049E+05
 0.74249992E+02 -0.89764E+05
 0.74299995E+02 -0.89118E+05
 0.74349998E+02 -0.91814E+05
 0.74399994E+02 -0.78159E+05
 0.74449997E+02 -0.42763E+05
 0.74499992E+02  0.94930E+04
 0.74549995E+02  0.55024E+05
 0.74599998E+02  0.68748E+05
 0.74649994E+02  0.69198E+05
 0.74699997E+02  0.43998E+05
 0.74749992E+02 -0.13649E+05
 0.74799995E+02 -0.65615E+05
 0.74849998E+02 -0.85048E+05
 0.74899994E+02 -0.94615E+05
 0.74949997E+02 -0.11148E+06
 0.74999992E+02 -0.10167E+06
 0.75049995E+02 -0.98715E+05
 0.75099998E+02 -0.11253E+06
 0.75149994E+02 -0.75304E+05
 0.75199997E+02 -0.31040E+04
 0.75249992E+02  0.56594E+05
 0.75299995E+02  0.92272E+05
 0.75349998E+02  0.95333E+05
 0.75399994E+02  0.66024E+05
 0.75449997E+02  0.60280E+05
 0.75499992E+02  0.93793E+05
 0.75549995E+02  0.88973E+05
 0.75599998E+02  0.20863E+05
 0.75649994E+02 -0.56869E+05
 0.75699997E+02 -0.89363E+05
 0.75749992E+02 -0.97614E+05
 0.75799995E+02 -0.10697E+06
 0.75849998E+02 -0.97566E+05
 0.75899994E+02 -0.94877E+05
 0.75949997E+02 -0.10764E+06
 0.75999992E+02 -0.80504E+05
 0.76049995E+02  0.89300E+03
 0.76099998E+02  0.91551E+05
 0.76149994E+02  0.15124E+06
 0.76199997E+02  0.14842E+06
 0.76249992E+02  0.10979E+06
 0.76299995E+02  0.83798E+05
 0.76349998E+02  0.46085E+05
 0.76399994E+02 -0.19839E+05
 0.76449997E+02 -0.94804E+05
 0.76499992E+02 -0.16198E+06
 0.76549995E+02 -0.20788E+06
 0.76599998E+02 -0.23599E+06
 0.76649994E+02 -0.23678E+06
 0.76699997E+02 -0.17086E+06
 0.76749992E+02 -0.64786E+05
 0.76799995E+02  0.13630E+04
 0.76849998E+02  0.44900E+05
 0.76899994E+02  0.93810E+05
 0.76949997E+02  0.10992E+06
 0.76999992E+02  0.10527E+06
 0.77049995E+02  0.96416E+05
 0.77099998E+02  0.52990E+05
 0.77149994E+02 -0.42274E+05
 0.77199997E+02 -0.15626E+06
 0.77249992E+02 -0.22921E+06
 0.77299995E+02 -0.24875E+06
 0.77349998E+02 -0.22759E+06
 0.77399994E+02 -0.18935E+06
 0.77449997E+02 -0.14918E+06
 0.77499992E+02 -0.87487E+05
 0.77549995E+02 -0.17564E+05
 0.77599998E+02  0.50833E+05
 0.77649994E+02  0.11202E+06
 0.77699997E+02  0.12586E+06
 0.77749992E+02  0.93939E+05
 0.77799995E+02  0.75057E+05
 0.77849998E+02  0.62247E+05
 0.77899994E+02  0.82750E+04
 0.77949997E+02 -0.41595E+05
 0.77999992E+02 -0.80674E+05
 0.78049995E+02 -0.12432E+06
 0.78099998E+02 -0.13203E+06
 0.78149994E+02 -0.10585E+06
 0.78199997E+02 -0.61790E+05
 0.78249992E+02 -0.22322E+05
 0.78299995E+02  0.10169E+05
 0.78349998E+02  0.61906E+05
 0.78399994E+02  0.12087E+06
 0.78449997E+02  0.13410E+06
 0.78499992E+02  0.97816E+05
 0.78549995E+02  0.59343E+05
 0.78599998E+02  0.20751E+05
 0.78649994E+02 -0.16971E+05
 0.78699997E+02 -0.50549E+05
 0.78749992E+02 -0.69380E+05
 0.78799995E+02 -0.62534E+05
 0.78849998E+02 -0.66348E+05
 0.78899994E+02 -0.84870E+05
 0.78949997E+02 -0.86420E+05
 0.78999992E+02 -0.63135E+05
 0.79049995E+02 -0.36022E+05
 0.79099998E+02 -0.29825E+05
 0.79149994E+02 -0.49764E+05
 0.79199997E+02 -0.70164E+05
 0.79249992E+02 -0.54578E+05
 0.79299995E+02 -0.28509E+05
 0.79349998E+02 -0.41606E+05
 0.79399994E+02 -0.72111E+05
 0.79449997E+02 -0.86630E+05
 0.79499992E+02 -0.86035E+05
 0.79549995E+02 -0.75373E+05
 0.79599998E+02 -0.65544E+05
 0.79649994E+02 -0.57017E+05
 0.79699997E+02 -0.47383E+05
 0.79749992E+02 -0.40769E+05
 0.79799995E+02 -0.44225E+05
 0.79849998E+02 -0.50386E+05
 0.79899994E+02 -0.44327E+05
 0.79949997E+02 -0.43036E+05
 0.79999992E+02 -0.38934E+05
 0.80049995E+02 -0.13653E+05
 0.80099998E+02 -0.51450E+04
 0.80149994E+02 -0.23337E+05
 0.80199997E+02 -0.25250E+05
 0.80249992E+02 -0.21798E+05
 0.80299995E+02 -0.37395E+05
 0.80349998E+02 -0.33882E+05
 0.80399994E+02 -0.78120E+04
 0.80449997E+02  0.34170E+04
 0.80499992E+02  0.51020E+04
 0.80549995E+02  0.12985E+05
 0.80599998E+02  0.26933E+05
 0.80649994E+02  0.40051E+05
 0.80699997E+02  0.29424E+05
 0.80749992E+02  0.58510E+04
 0.80799995E+02 -0.12501E+05
 0.80849998E+02 -0.41343E+05
 0.80899994E+02 -0.46728E+05
 0.80949997E+02 -0.21891E+05
 0.80999992E+02 -0.11007E+05
 0.81049995E+02 -0.45990E+04
 0.81099998E+02 -0.31790E+04
 0.81149994E+02 -0.77380E+04
 0.81199997E+02 -0.70400E+04
 0.81249992E+02 -0.12891E+05
 0.81299995E+02 -0.10601E+05
 0.81349998E+02 -0.22850E+04
 0.81399994E+02 -0.14695E+05
 0.81449997E+02 -0.42198E+05
 0.81499992E+02 -0.60323E+05
 0.81549995E+02 -0.59729E+05
 0.81599998E+02 -0.60215E+05
 0.81649994E+02 -0.57381E+05
 0.81699997E+02 -0.29277E+05
 0.81749992E+02  0.25700E+03
 0.81799995E+02  0.11570E+05
 0.81849998E+02  0.12180E+05
 0.81899994E+02  0.12530E+05
 0.81949997E+02  0.30066E+05
 0.81999992E+02  0.52746E+05
 0.82049995E+02  0.44745E+05
 0.82099998E+02 -0.22380E+04
 0.82149994E+02 -0.63090E+05
 0.82199997E+02 -0.11884E+06
 0.82249992E+02 -0.14260E+06
 0.82299995E+02 -0.10580E+06
 0.82349998E+02 -0.56323E+05
 0.82399994E+02 -0.47766E+05
 0.82449997E+02 -0.52787E+05
 0.82499992E+02 -0.34499E+05
 0.82549995E+02  0.85630E+04
 0.82599998E+02  0.75975E+05
 0.82649994E+02  0.12968E+06
 0.82699997E+02  0.11595E+06
 0.82749992E+02  0.59986E+05
 0.82799995E+02  0.14870E+05
 0.82849998E+02 -0.15120E+04
 0.82899994E+02 -0.17550E+05
 0.82949997E+02 -0.52537E+05
 0.82999992E+02 -0.85798E+05
 0.83049995E+02 -0.11126E+06
 0.83099998E+02 -0.11397E+06
 0.83149994E+02 -0.82475E+05
 0.83199997E+02 -0.44040E+05
 0.83249992E+02 -0.29273E+05
 0.83299995E+02 -0.39895E+05
 0.83349998E+02 -0.40684E+05
 0.83399994E+02 -0.45970E+04
 0.83449997E+02  0.40362E+05
 0.83499992E+02  0.49903E+05
 0.83549995E+02  0.26936E+05
 0.83599998E+02  0.69110E+04
 0.83649994E+02  0.28670E+04
 0.83699997E+02 -0.26760E+04
 0.83749992E+02 -0.26481E+05
 0.83799995E+02 -0.47207E+05
 0.83849998E+02 -0.55882E+05
 0.83899994E+02 -0.75696E+05
 0.83949997E+02 -0.70194E+05
 0.83999992E+02 -0.28691E+05
 0.84049995E+02 -0.54640E+04
 0.84099998E+02  0.24200E+04
 0.84149994E+02  0.15543E+05
 0.84199997E+02  0.25543E+05
 0.84249992E+02  0.20622E+05
 0.84299995E+02  0.34670E+04
 0.84349998E+02 -0.78010E+04
 0.84399994E+02 -0.20594E+05
 0.84449997E+02 -0.40243E+05
 0.84499992E+02 -0.48809E+05
 0.84549995E+02 -0.50374E+05
 0.84599998E+02 -0.51303E+05
 0.84649994E+02 -0.41130E+05
 0.84699997E+02 -0.24860E+05
 0.84749992E+02 -0.29298E+05
 0.84799995E+02 -0.48914E+05
 0.84849998E+02 -0.46168E+05
 0.84899994E+02 -0.17938E+05
 0.84949997E+02  0.82110E+04
 0.84999992E+02  0.40380E+04
 0.85049995E+02 -0.28928E+05
 0.85099998E+02 -0.55575E+05
 0.85149994E+02 -0.50926E+05
 0.85199997E+02 -0.28584E+05
 0.85249992E+02 -0.14900E+05
 0.85299995E+02 -0.20608E+05
 0.85349998E+02 -0.32894E+05
 0.85399994E+02 -0.33943E+05
 0.85449997E+02 -0.30698E+05
 0.85499992E+02 -0.22060E+05
 0.85549995E+02 -0.10291E+05
 0.85599998E+02 -0.67960E+04
 0.85649994E+02 -0.93000E+04
 0.85699997E+02 -0.13129E+05
 0.85749992E+02 -0.61650E+04
 0.85799995E+02 -0.15590E+04
 0.85849998E+02 -0.17494E+05
 0.85899994E+02 -0.39746E+05
 0.85949997E+02 -0.55245E+05
 0.85999992E+02 -0.69663E+05
 0.86049995E+02 -0.84217E+05
 0.86099998E+02 -0.86258E+05
 0.86149994E+02 -0.76598E+05
 0.86199997E+02 -0.62088E+05
 0.86249992E+02 -0.54519E+05
 0.86299995E+02 -0.45025E+05
 0.86349998E+02 -0.25251E+05
 0.86399994E+02 -0.95470E+04
 0.86449997E+02  0.55410E+04
 0.86499992E+02  0.85780E+04
 0.86549995E+02  0.25180E+04
 0.86599991E+02 -0.24079E+05
 0.86649994E+02 -0.65934E+05
 0.86699997E+02 -0.72991E+05
 0.86749992E+02 -0.65226E+05
 0.86799995E+02 -0.53045E+05
 0.86849991E+02 -0.37363E+05
 0.86899994E+02 -0.34359E+05
 0.86949997E+02 -0.36278E+05
 0.86999992E+02 -0.31300E+05
 0.87049995E+02 -0.37400E+03
 0.87099991E+02  0.16575E+05
 0.87149994E+02 -0.73270E+04
 0.87199997E+02 -0.37273E+05
 0.87249992E+02 -0.52294E+05
 0.87299995E+02 -0.47598E+05
 0.87349991E+02 -0.42570E+05
 0.87399994E+02 -0.32793E+05
 0.87449997E+02 -0.11366E+05
 0.87499992E+02 -0.51150E+04
 0.87549995E+02 -0.80310E+04
 0.87599991E+02 -0.15752E+05
 0.87649994E+02 -0.30498E+05
 0.87699997E+02 -0.31805E+05
 0.87749992E+02 -0.17816E+05
 0.87799995E+02  0.15900E+03
 0.87849991E+02  0.93620E+04
 0.87899994E+02  0.11869E+05
 0.87949997E+02  0.10092E+05
 0.87999992E+02 -0.35150E+04
 0.88049995E+02 -0.13566E+05
 0.88099991E+02 -0.20573E+05
 0.88149994E+02 -0.25960E+05
 0.88199997E+02 -0.28932E+05
 0.88249992E+02 -0.45958E+05
 0.88299995E+02 -0.55300E+05
 0.88349991E+02 -0.51244E+05
 0.88399994E+02 -0.51702E+05
 0.88449997E+02 -0.45792E+05
 0.88499992E+02 -0.30577E+05
 0.88549995E+02 -0.45690E+04
 0.88599991E+02  0.17615E+05
 0.88649994E+02  0.17103E+05
 0.88699997E+02  0.16321E+05
 0.88749992E+02  0.11881E+05
 0.88799995E+02 -0.88320E+04
 0.88849991E+02 -0.24116E+05
 0.88899994E+02 -0.37465E+05
 0.88949997E+02 -0.58682E+05
 0.88999992E+02 -0.93506E+05
 0.89049995E+02 -0.12873E+06
 0.89099991E+02 -0.12317E+06
 0.89149994E+02 -0.87454E+05
 0.89199997E+02 -0.47672E+05
 0.89249992E+02 -0.13831E+05
 0.89299995E+02  0.71510E+04
 0.89349991E+02  0.24147E+05
 0.89399994E+02  0.31893E+05
 0.89449997E+02  0.32513E+05
 0.89499992E+02  0.23172E+05
 0.89549995E+02 -0.59550E+04
 0.89599991E+02 -0.38769E+05
 0.89649994E+02 -0.64365E+05
 0.89699997E+02 -0.69516E+05
 0.89749992E+02 -0.47372E+05
 0.89799995E+02 -0.26281E+05
 0.89849991E+02 -0.29572E+05
 0.89899994E+02 -0.38334E+05
 0.89949997E+02 -0.28893E+05
 0.89999992E+02 -0.20641E+05
 0.90049995E+02 -0.24401E+05
 0.90099991E+02 -0.19814E+05
 0.90149994E+02 -0.12460E+05
 0.90199997E+02 -0.13530E+05
 0.90249992E+02 -0.20121E+05
 0.90299995E+02 -0.28825E+05
 0.90349991E+02 -0.33664E+05
 0.90399994E+02 -0.33046E+05
 0.90449997E+02 -0.29862E+05
 0.90499992E+02 -0.37477E+05
 0.90549995E+02 -0.41928E+05
 0.90599991E+02 -0.23514E+05
 0.90649994E+02 -0.18525E+05
 0.90699997E+02 -0.26501E+05
 0.90749992E+02 -0.17643E+05
 0.90799995E+02 -0.12867E+05
 0.90849991E+02 -0.11167E+05
 0.90899994E+02 -0.12372E+05
 0.90949997E+02 -0.22497E+05
 0.90999992E+02 -0.28782E+05
 0.91049995E+02 -0.51654E+05
 0.91099991E+02 -0.70037E+05
 0.91149994E+02 -0.59347E+05
 0.91199997E+02 -0.49754E+05
 0.91249992E+02 -0.47319E+05
 0.91299995E+02 -0.48200E+05
 0.91349991E+02 -0.46056E+05
 0.91399994E+02 -0.33826E+05
 0.91449997E+02 -0.19976E+05
 0.91499992E+02 -0.13724E+05
 0.91549995E+02 -0.20810E+05
 0.91599991E+02 -0.31982E+05
 0.91649994E+02 -0.40252E+05
 0.91699997E+02 -0.44205E+05
 0.91749992E+02 -0.37692E+05
 0.91799995E+02 -0.38875E+05
 0.91849991E+02 -0.51235E+05
 0.91899994E+02 -0.49189E+05
 0.91949997E+02 -0.38578E+05
 0.91999992E+02 -0.32573E+05
 0.92049995E+02 -0.27214E+05
 0.92099991E+02 -0.20795E+05
 0.92149994E+02 -0.16841E+05
 0.92199997E+02 -0.13963E+05
 0.92249992E+02 -0.11514E+05
 0.92299995E+02 -0.22038E+05
 0.92349991E+02 -0.36983E+05
 0.92399994E+02 -0.35393E+05
 0.92449997E+02 -0.23187E+05
 0.92499992E+02 -0.17768E+05
 0.92549995E+02 -0.18587E+05
 0.92599991E+02 -0.18335E+05
 0.92649994E+02 -0.16156E+05
 0.92699997E+02 -0.81060E+04
 0.92749992E+02 -0.98070E+04
 0.92799995E+02 -0.16377E+05
 0.92849991E+02 -0.75810E+04
 0.92899994E+02 -0.28570E+04
 0.92949997E+02 -0.10170E+04
 0.92999992E+02  0.33000E+03
 0.93049995E+02 -0.93030E+04
 0.93099991E+02 -0.12492E+05
 0.93149994E+02 -0.44100E+04
 0.93199997E+02  0.26290E+04
 0.93249992E+02 -0.52470E+04
 0.93299995E+02 -0.24253E+05
 0.93349991E+02 -0.34382E+05
 0.93399994E+02 -0.33775E+05
 0.93449997E+02 -0.28971E+05
 0.93499992E+02 -0.26830E+05
 0.93549995E+02 -0.25193E+05
 0.93599991E+02 -0.17538E+05
 0.93649994E+02 -0.50760E+04
 0.93699997E+02  0.11273E+05
 0.93749992E+02  0.19468E+05
 0.93799995E+02  0.12812E+05
 0.93849991E+02 -0.23250E+04
 0.93899994E+02 -0.14262E+05
 0.93949997E+02 -0.16263E+05
 0.93999992E+02 -0.20985E+05
 0.94049995E+02 -0.30720E+05
 0.94099991E+02 -0.36288E+05
 0.94149994E+02 -0.34482E+05
 0.94199997E+02 -0.25922E+05
 0.94249992E+02 -0.10402E+05
 0.94299995E+02  0.87490E+04
 0.94349991E+02  0.16988E+05
 0.94399994E+02  0.12278E+05
 0.94449997E+02  0.56770E+04
 0.94499992E+02 -0.70400E+03
 0.94549995E+02 -0.70080E+04
 0.94599991E+02 -0.16166E+05
 0.94649994E+02 -0.27069E+05
 0.94699997E+02 -0.28145E+05
 0.94749992E+02 -0.26565E+05
 0.94799995E+02 -0.33888E+05
 0.94849991E+02 -0.41117E+05
 0.94899994E+02 -0.40612E+05
 0.94949997E+02 -0.31354E+05
 0.94999992E+02 -0.15906E+05
 0.95049995E+02 -0.65490E+04
 0.95099991E+02 -0.12906E+05
 0.95149994E+02 -0.21355E+05
 0.95199997E+02 -0.17037E+05
 0.95249992E+02 -0.12954E+05
 0.95299995E+02 -0.14374E+05
 0.95349991E+02 -0.13155E+05
 0.95399994E+02 -0.16686E+05
 0.95449997E+02 -0.22690E+05
 0.95499992E+02 -0.25724E+05
 0.95549995E+02 -0.32116E+05
 0.95599991E+02 -0.36515E+05
 0.95649994E+02 -0.39656E+05
 0.95699997E+02 -0.44572E+05
 0.95749992E+02 -0.47253E+05
 0.95799995E+02 -0.55093E+05
 0.95849991E+02 -0.56256E+05
 0.95899994E+02 -0.41396E+05
 0.95949997E+02 -0.31002E+05
 0.95999992E+02 -0.29051E+05
 0.96049995E+02 -0.29927E+05
 0.96099991E+02 -0.31702E+05
 0.96149994E+02 -0.29697E+05
 0.96199997E+02 -0.28164E+05
 0.96249992E+02 -0.28452E+05
 0.96299995E+02 -0.26758E+05
 0.96349991E+02 -0.25873E+05
 0.96399994E+02 -0.26921E+05
 0.96449997E+02 -0.26668E+05
 0.96499992E+02 -0.24343E+05
 0.96549995E+02 -0.22225E+05
 0.96599991E+02 -0.20682E+05
 0.96649994E+02 -0.15759E+05
 0.96699997E+02 -0.12642E+05
 0.96749992E+02 -0.21724E+05
 0.96799995E+02 -0.34693E+05
 0.96849991E+02 -0.39456E+05
 0.96899994E+02 -0.37568E+05
 0.96949997E+02 -0.36681E+05
 0.96999992E+02 -0.43959E+05
 0.97049995E+02 -0.51568E+05
 0.97099991E+02 -0.46541E+05
 0.97149994E+02 -0.28728E+05
 0.97199997E+02 -0.13505E+05
 0.97249992E+02 -0.13478E+05
 0.97299995E+02 -0.17924E+05
 0.97349991E+02 -0.17980E+05
 0.97399994E+02 -0.19118E+05
 0.97449997E+02 -0.28775E+05
 0.97499992E+02 -0.42278E+05
 0.97549995E+02 -0.53168E+05
 0.97599991E+02 -0.61912E+05
 0.97649994E+02 -0.59669E+05
 0.97699997E+02 -0.50627E+05
 0.97749992E+02 -0.49256E+05
 0.97799995E+02 -0.51441E+05
 0.97849991E+02 -0.42956E+05
 0.97899994E+02 -0.27915E+05
 0.97949997E+02 -0.20021E+05
 0.97999992E+02 -0.14698E+05
 0.98049995E+02 -0.10619E+05
 0.98099991E+02 -0.12211E+05
 0.98149994E+02 -0.18841E+05
 0.98199997E+02 -0.23850E+05
 0.98249992E+02 -0.22208E+05
 0.98299995E+02 -0.22765E+05
 0.98349991E+02 -0.24475E+05
 0.98399994E+02 -0.25714E+05
 0.98449997E+02 -0.31037E+05
 0.98499992E+02 -0.34305E+05
 0.98549995E+02 -0.32206E+05
 0.98599991E+02 -0.31168E+05
 0.98649994E+02 -0.36682E+05
 0.98699997E+02 -0.35194E+05
 0.98749992E+02 -0.18431E+05
 0.98799995E+02 -0.13150E+04
 0.98849991E+02  0.63990E+04
 0.98899994E+02 -0.92000E+02
 0.98949997E+02 -0.14151E+05
 0.98999992E+02 -0.22304E+05
 0.99049995E+02 -0.23559E+05
 0.99099991E+02 -0.21400E+05
 0.99149994E+02 -0.22130E+05
 0.99199997E+02 -0.23275E+05
 0.99249992E+02 -0.24253E+05
 0.99299995E+02 -0.26293E+05
 0.99349991E+02 -0.22287E+05
 0.99399994E+02 -0.15551E+05
 0.99449997E+02 -0.98090E+04
 0.99499992E+02 -0.12148E+05
 0.99549995E+02 -0.18347E+05
 0.99599991E+02 -0.14703E+05
 0.99649994E+02 -0.10576E+05
 0.99699997E+02 -0.14782E+05
 0.99749992E+02 -0.27545E+05
 0.99799995E+02 -0.39315E+05
 0.99849991E+02 -0.40409E+05
 0.99899994E+02 -0.38861E+05
 0.99949997E+02 -0.39950E+05
 0.99999992E+02 -0.41365E+05
 0.10005000E+03 -0.40478E+05
 0.10009999E+03 -0.42755E+05
 0.10014999E+03 -0.46971E+05
 0.10020000E+03 -0.44154E+05
 0.10024999E+03 -0.43016E+05
 0.10030000E+03 -0.43095E+05
 0.10034999E+03 -0.33691E+05
 0.10039999E+03 -0.20665E+05
 0.10045000E+03 -0.14382E+05
 0.10049999E+03 -0.13972E+05
 0.10055000E+03 -0.11083E+05
 0.10059999E+03 -0.80180E+04
 0.10064999E+03 -0.14232E+05
 0.10070000E+03 -0.29919E+05
 0.10074999E+03 -0.45400E+05
 0.10080000E+03 -0.49286E+05
 0.10084999E+03 -0.40673E+05
 0.10089999E+03 -0.31713E+05
 0.10095000E+03 -0.29897E+05
 0.10099999E+03 -0.33685E+05
 0.10105000E+03 -0.36711E+05
 0.10109999E+03 -0.29769E+05
 0.10114999E+03 -0.19530E+05
 0.10120000E+03 -0.16912E+05
 0.10124999E+03 -0.21836E+05
 0.10130000E+03 -0.32809E+05
 0.10134999E+03 -0.38361E+05
 0.10139999E+03 -0.29972E+05
 0.10145000E+03 -0.15085E+05
 0.10149999E+03 -0.37770E+04
 0.10155000E+03 -0.78610E+04
 0.10159999E+03 -0.26191E+05
 0.10164999E+03 -0.38151E+05
 0.10170000E+03 -0.30950E+05
 0.10174999E+03 -0.21323E+05
 0.10180000E+03 -0.29843E+05
 0.10184999E+03 -0.44905E+05
 0.10189999E+03 -0.46887E+05
 0.10195000E+03 -0.33826E+05
 0.10199999E+03 -0.17209E+05
 0.10205000E+03 -0.85490E+04
 0.10209999E+03 -0.10145E+05
 0.10214999E+03 -0.19936E+05
 0.10220000E+03 -0.27415E+05
 0.10224999E+03 -0.24740E+05
 0.10230000E+03 -0.15607E+05
 0.10234999E+03 -0.94600E+04
 0.10239999E+03 -0.16587E+05
 0.10245000E+03 -0.27936E+05
 0.10249999E+03 -0.29060E+05
 0.10255000E+03 -0.23514E+05
 0.10259999E+03 -0.15581E+05
 0.10264999E+03 -0.12462E+05
 0.10270000E+03 -0.19599E+05
 0.10274999E+03 -0.25594E+05
 0.10280000E+03 -0.26636E+05
 0.10284999E+03 -0.24220E+05
 0.10289999E+03 -0.17373E+05
 0.10295000E+03 -0.17065E+05
 0.10299999E+03 -0.24000E+05
 0.10305000E+03 -0.26616E+05
 0.10309999E+03 -0.23183E+05
 0.10314999E+03 -0.13728E+05
 0.10320000E+03 -0.36580E+04
 0.10324999E+03 -0.13640E+04
 0.10330000E+03 -0.62690E+04
 0.10334999E+03 -0.17026E+05
 0.10339999E+03 -0.24737E+05
 0.10345000E+03 -0.21998E+05
 0.10349999E+03 -0.16923E+05
 0.10355000E+03 -0.19017E+05
 0.10359999E+03 -0.26754E+05
 0.10364999E+03 -0.27795E+05
 0.10370000E+03 -0.17995E+05
 0.10374999E+03 -0.39410E+04
 0.10380000E+03  0.40400E+04
 0.10384999E+03 -0.42220E+04
 0.10389999E+03 -0.25294E+05
 0.10395000E+03 -0.41952E+05
 0.10399999E+03 -0.43023E+05
 0.10405000E+03 -0.35612E+05
 0.10409999E+03 -0.27462E+05
 0.10414999E+03 -0.25047E+05
 0.10420000E+03 -0.29567E+05
 0.10424999E+03 -0.29569E+05
 0.10430000E+03 -0.24020E+05
 0.10434999E+03 -0.14967E+05
 0.10439999E+03 -0.42100E+04
 0.10445000E+03 -0.63480E+04
 0.10449999E+03 -0.20967E+05
 0.10455000E+03 -0.30801E+05
 0.10459999E+03 -0.30934E+05
 0.10464999E+03 -0.26104E+05
 0.10470000E+03 -0.22244E+05
 0.10474999E+03 -0.22771E+05
 0.10480000E+03 -0.23949E+05
 0.10484999E+03 -0.21591E+05
 0.10489999E+03 -0.17825E+05
 0.10495000E+03 -0.14741E+05
 0.10499999E+03 -0.13521E+05
 0.10505000E+03 -0.20226E+05
 0.10509999E+03 -0.31486E+05
 0.10514999E+03 -0.33965E+05
 0.10520000E+03 -0.28383E+05
 0.10524999E+03 -0.26817E+05
 0.10530000E+03 -0.30892E+05
 0.10534999E+03 -0.32135E+05
 0.10539999E+03 -0.23703E+05
 0.10545000E+03 -0.11226E+05
 0.10549999E+03 -0.82120E+04
 0.10555000E+03 -0.14603E+05
 0.10559999E+03 -0.22835E+05
 0.10564999E+03 -0.30248E+05
 0.10570000E+03 -0.32223E+05
 0.10574999E+03 -0.26518E+05
 0.10580000E+03 -0.22152E+05
 0.10584999E+03 -0.24214E+05
 0.10589999E+03 -0.26113E+05
 0.10595000E+03 -0.24222E+05
 0.10599999E+03 -0.20339E+05
 0.10605000E+03 -0.16688E+05
 0.10609999E+03 -0.14712E+05
 0.10614999E+03 -0.19075E+05
 0.10620000E+03 -0.31002E+05
 0.10624999E+03 -0.43252E+05
 0.10630000E+03 -0.49926E+05
 0.10634999E+03 -0.51582E+05
 0.10639999E+03 -0.54118E+05
 0.10645000E+03 -0.57167E+05
 0.10649999E+03 -0.56712E+05
 0.10655000E+03 -0.48599E+05
 0.10659999E+03 -0.34948E+05
 0.10664999E+03 -0.29595E+05
 0.10670000E+03 -0.29366E+05
 0.10674999E+03 -0.26181E+05
 0.10680000E+03 -0.25445E+05
 0.10684999E+03 -0.27640E+05
 0.10689999E+03 -0.29767E+05
 0.10695000E+03 -0.33874E+05
 0.10699999E+03 -0.40927E+05
 0.10705000E+03 -0.42582E+05
 0.10709999E+03 -0.40941E+05
 0.10714999E+03 -0.42564E+05
 0.10720000E+03 -0.44926E+05
 0.10724999E+03 -0.45974E+05
 0.10730000E+03 -0.37901E+05
 0.10734999E+03 -0.24929E+05
 0.10739999E+03 -0.20315E+05
 0.10745000E+03 -0.22172E+05
 0.10749999E+03 -0.25101E+05
 0.10755000E+03 -0.28809E+05
 0.10759999E+03 -0.32555E+05
 0.10764999E+03 -0.36353E+05
 0.10770000E+03 -0.40708E+05
 0.10774999E+03 -0.41868E+05
 0.10780000E+03 -0.36862E+05
 0.10784999E+03 -0.29987E+05
 0.10789999E+03 -0.28417E+05
 0.10795000E+03 -0.31637E+05
 0.10799999E+03 -0.33173E+05
 0.10805000E+03 -0.31600E+05
 0.10809999E+03 -0.27585E+05
 0.10814999E+03 -0.19895E+05
 0.10820000E+03 -0.12048E+05
 0.10824999E+03 -0.85980E+04
 0.10830000E+03 -0.13619E+05
 0.10834999E+03 -0.25970E+05
 0.10839999E+03 -0.33783E+05
 0.10845000E+03 -0.34020E+05
 0.10849999E+03 -0.32309E+05
 0.10855000E+03 -0.30986E+05
 0.10859999E+03 -0.31375E+05
 0.10864999E+03 -0.33116E+05
 0.10870000E+03 -0.33770E+05
 0.10874999E+03 -0.30106E+05
 0.10880000E+03 -0.23684E+05
 0.10884999E+03 -0.19799E+05
 0.10889999E+03 -0.19174E+05
 0.10895000E+03 -0.15582E+05
 0.10899999E+03 -0.73940E+04
 0.10905000E+03 -0.47470E+04
 0.10909999E+03 -0.12777E+05
 0.10914999E+03 -0.26248E+05
 0.10920000E+03 -0.38877E+05
 0.10924999E+03 -0.43376E+05
 0.10930000E+03 -0.37989E+05
 0.10934999E+03 -0.31707E+05
 0.10939999E+03 -0.27726E+05
 0.10945000E+03 -0.20973E+05
 0.10949999E+03 -0.11667E+05
 0.10955000E+03 -0.38650E+04
 0.10959999E+03 -0.56700E+03
 0.10964999E+03 -0.23050E+04
 0.10970000E+03 -0.99710E+04
 0.10974999E+03 -0.20378E+05
 0.10980000E+03 -0.28407E+05
 0.10984999E+03 -0.31424E+05
 0.10989999E+03 -0.30833E+05
 0.10995000E+03 -0.33788E+05
 0.10999999E+03 -0.36801E+05
 0.11005000E+03 -0.35654E+05
 0.11009999E+03 -0.29762E+05
 0.11014999E+03 -0.17353E+05
 0.11020000E+03 -0.60000E+04
 0.11024999E+03 -0.15950E+04
 0.11030000E+03 -0.57620E+04
 0.11034999E+03 -0.13325E+05
 0.11039999E+03 -0.16602E+05
 0.11045000E+03 -0.17659E+05
 0.11049999E+03 -0.18780E+05
 0.11055000E+03 -0.19689E+05
 0.11059999E+03 -0.20886E+05
 0.11064999E+03 -0.19228E+05
 0.11070000E+03 -0.15253E+05
 0.11074999E+03 -0.14047E+05
 0.11080000E+03 -0.12639E+05
 0.11084999E+03 -0.92520E+04
 0.11089999E+03 -0.64060E+04
 0.11095000E+03 -0.68900E+04
 0.11099999E+03 -0.11223E+05
 0.11105000E+03 -0.14457E+05
 0.11109999E+03 -0.18174E+05
 0.11114999E+03 -0.23672E+05
 0.11120000E+03 -0.26315E+05
 0.11124999E+03 -0.27594E+05
 0.11130000E+03 -0.29705E+05
 0.11134999E+03 -0.31606E+05
 0.11139999E+03 -0.32682E+05
 0.11145000E+03 -0.30654E+05
 0.11149999E+03 -0.27525E+05
 0.11155000E+03 -0.24165E+05
 0.11159999E+03 -0.19894E+05
 0.11164999E+03 -0.20677E+05
 0.11170000E+03 -0.22970E+05
 0.11174999E+03 -0.19586E+05
 0.11180000E+03 -0.15356E+05
 0.11184999E+03 -0.15221E+05
 0.11189999E+03 -0.18776E+05
 0.11195000E+03 -0.25378E+05
 0.11199999E+03 -0.29824E+05
 0.11205000E+03 -0.29646E+05
 0.11209999E+03 -0.30738E+05
 0.11214999E+03 -0.31617E+05
 0.11220000E+03 -0.30636E+05
 0.11224999E+03 -0.29237E+05
 0.11230000E+03 -0.22622E+05
 0.11234999E+03 -0.11923E+05
 0.11239999E+03 -0.48180E+04
 0.11244999E+03 -0.28640E+04
 0.11249999E+03 -0.54890E+04
 0.11255000E+03 -0.12534E+05
 0.11259999E+03 -0.20431E+05
 0.11264999E+03 -0.26221E+05
 0.11269999E+03 -0.27478E+05
 0.11274999E+03 -0.27039E+05
 0.11280000E+03 -0.29674E+05
 0.11284999E+03 -0.32271E+05
 0.11289999E+03 -0.29326E+05
 0.11294999E+03 -0.22228E+05
 0.11299999E+03 -0.16893E+05
 0.11305000E+03 -0.13152E+05
 0.11309999E+03 -0.10127E+05
 0.11314999E+03 -0.88410E+04
 0.11319999E+03 -0.93560E+04
 0.11324999E+03 -0.12893E+05
 0.11330000E+03 -0.16601E+05
 0.11334999E+03 -0.17892E+05
 0.11339999E+03 -0.19406E+05
 0.11344999E+03 -0.22322E+05
 0.11349999E+03 -0.26972E+05
 0.11355000E+03 -0.31778E+05
 0.11359999E+03 -0.34283E+05
 0.11364999E+03 -0.34955E+05
 0.11369999E+03 -0.31966E+05
 0.11374999E+03 -0.26738E+05
 0.11380000E+03 -0.23212E+05
 0.11384999E+03 -0.22717E+05
 0.11389999E+03 -0.25477E+05
 0.11394999E+03 -0.28487E+05
 0.11399999E+03 -0.29678E+05
 0.11405000E+03 -0.29006E+05
 0.11409999E+03 -0.29480E+05
 0.11414999E+03 -0.31775E+05
 0.11419999E+03 -0.32274E+05
 0.11424999E+03 -0.32123E+05
 0.11430000E+03 -0.31697E+05
 0.11434999E+03 -0.30609E+05
 0.11439999E+03 -0.30995E+05
 0.11444999E+03 -0.30331E+05
 0.11449999E+03 -0.26654E+05
 0.11455000E+03 -0.23521E+05
 0.11459999E+03 -0.20766E+05
 0.11464999E+03 -0.19715E+05
 0.11469999E+03 -0.23276E+05
 0.11474999E+03 -0.25346E+05
 0.11480000E+03 -0.24162E+05
 0.11484999E+03 -0.24850E+05
 0.11489999E+03 -0.29643E+05
 0.11494999E+03 -0.37470E+05
 0.11499999E+03 -0.43962E+05
 0.11505000E+03 -0.44813E+05
 0.11509999E+03 -0.40664E+05
 0.11514999E+03 -0.35916E+05
 0.11519999E+03 -0.30748E+05
 0.11524999E+03 -0.25288E+05
 0.11530000E+03 -0.20992E+05
 0.11534999E+03 -0.16283E+05
 0.11539999E+03 -0.13934E+05
 0.11544999E+03 -0.17806E+05
 0.11549999E+03 -0.25281E+05
 0.11555000E+03 -0.31019E+05
 0.11559999E+03 -0.32308E+05
 0.11564999E+03 -0.30897E+05
 0.11569999E+03 -0.27654E+05
 0.11574999E+03 -0.22291E+05
 0.11580000E+03 -0.20462E+05
 0.11584999E+03 -0.22664E+05
 0.11589999E+03 -0.21013E+05
 0.11594999E+03 -0.16190E+05
 0.11599999E+03 -0.14543E+05
 0.11605000E+03 -0.18420E+05
 0.11609999E+03 -0.25472E+05
 0.11614999E+03 -0.32818E+05
 0.11619999E+03 -0.39066E+05
 0.11624999E+03 -0.40913E+05
 0.11630000E+03 -0.38061E+05
 0.11634999E+03 -0.36100E+05
 0.11639999E+03 -0.38744E+05
 0.11644999E+03 -0.41965E+05
 0.11649999E+03 -0.41327E+05
 0.11655000E+03 -0.37265E+05
 0.11659999E+03 -0.33258E+05
 0.11664999E+03 -0.31649E+05
 0.11669999E+03 -0.29187E+05
 0.11674999E+03 -0.25766E+05
 0.11680000E+03 -0.21620E+05
 0.11684999E+03 -0.14010E+05
 0.11689999E+03 -0.86800E+04
 0.11694999E+03 -0.10042E+05
 0.11699999E+03 -0.12017E+05
 0.11705000E+03 -0.10067E+05
 0.11709999E+03 -0.92270E+04
 0.11714999E+03 -0.15800E+05
 0.11719999E+03 -0.25834E+05
 0.11724999E+03 -0.34004E+05
 0.11730000E+03 -0.39730E+05
 0.11734999E+03 -0.40957E+05
 0.11739999E+03 -0.38447E+05
 0.11744999E+03 -0.33569E+05
 0.11749999E+03 -0.26449E+05
 0.11755000E+03 -0.20052E+05
 0.11759999E+03 -0.14087E+05
 0.11764999E+03 -0.69100E+04
 0.11769999E+03 -0.28450E+04
 0.11774999E+03 -0.49220E+04
 0.11780000E+03 -0.10666E+05
 0.11784999E+03 -0.17464E+05
 0.11789999E+03 -0.21823E+05
 0.11794999E+03 -0.24843E+05
 0.11799999E+03 -0.30572E+05
 0.11805000E+03 -0.35988E+05
 0.11809999E+03 -0.39237E+05
 0.11814999E+03 -0.41287E+05
 0.11819999E+03 -0.41125E+05
 0.11824999E+03 -0.39240E+05
 0.11830000E+03 -0.36613E+05
 0.11834999E+03 -0.33212E+05
 0.11839999E+03 -0.29479E+05
 0.11844999E+03 -0.25507E+05
 0.11849999E+03 -0.20299E+05
 0.11855000E+03 -0.15413E+05
 0.11859999E+03 -0.14180E+05
 0.11864999E+03 -0.16807E+05
 0.11869999E+03 -0.20447E+05
 0.11874999E+03 -0.23236E+05
 0.11880000E+03 -0.27305E+05
 0.11884999E+03 -0.33208E+05
 0.11889999E+03 -0.36282E+05
 0.11894999E+03 -0.34271E+05
 0.11899999E+03 -0.29035E+05
 0.11905000E+03 -0.22584E+05
 0.11909999E+03 -0.17953E+05
 0.11914999E+03 -0.16937E+05
 0.11919999E+03 -0.18845E+05
 0.11924999E+03 -0.22493E+05
 0.11930000E+03 -0.25079E+05
 0.11934999E+03 -0.25905E+05
 0.11939999E+03 -0.29460E+05
 0.11944999E+03 -0.35497E+05
 0.11949999E+03 -0.37393E+05
 0.11955000E+03 -0.36313E+05
 0.11959999E+03 -0.35126E+05
 0.11964999E+03 -0.29842E+05
 0.11969999E+03 -0.21406E+05
 0.11974999E+03 -0.14100E+05
 0.11980000E+03 -0.10419E+05
 0.11984999E+03 -0.11688E+05
 0.11989999E+03 -0.16905E+05
 0.11994999E+03 -0.23533E+05
 0.11999999E+03 -0.27076E+05
 0.12005000E+03 -0.27879E+05
 0.12009999E+03 -0.28150E+05
 0.12014999E+03 -0.26806E+05
 0.12019999E+03 -0.25434E+05
 0.12024999E+03 -0.23782E+05
 0.12030000E+03 -0.19801E+05
 0.12034999E+03 -0.15674E+05
 0.12039999E+03 -0.15435E+05
 0.12044999E+03 -0.19164E+05
 0.12049999E+03 -0.23804E+05
 0.12055000E+03 -0.28404E+05
 0.12059999E+03 -0.31461E+05
 0.12064999E+03 -0.31233E+05
 0.12069999E+03 -0.27679E+05
 0.12074999E+03 -0.23161E+05
 0.12080000E+03 -0.19204E+05
 0.12084999E+03 -0.13787E+05
 0.12089999E+03 -0.10622E+05
 0.12094999E+03 -0.13173E+05
 0.12099999E+03 -0.18984E+05
 0.12105000E+03 -0.27436E+05
 0.12109999E+03 -0.35295E+05
 0.12114999E+03 -0.38972E+05
 0.12119999E+03 -0.41281E+05
 0.12124999E+03 -0.44331E+05
 0.12130000E+03 -0.44248E+05
 0.12134999E+03 -0.36942E+05
 0.12139999E+03 -0.28256E+05
 0.12144999E+03 -0.26167E+05
 0.12149999E+03 -0.25795E+05
 0.12155000E+03 -0.21286E+05
 0.12159999E+03 -0.17282E+05
 0.12164999E+03 -0.19066E+05
 0.12169999E+03 -0.24839E+05
 0.12174999E+03 -0.30898E+05
 0.12180000E+03 -0.37120E+05
 0.12184999E+03 -0.42698E+05
 0.12189999E+03 -0.46461E+05
 0.12194999E+03 -0.47034E+05
 0.12199999E+03 -0.41407E+05
 0.12205000E+03 -0.32326E+05
 0.12209999E+03 -0.24722E+05
 0.12214999E+03 -0.19372E+05
 0.12219999E+03 -0.16271E+05
 0.12224999E+03 -0.14625E+05
 0.12230000E+03 -0.14440E+05
 0.12234999E+03 -0.15873E+05
 0.12239999E+03 -0.18817E+05
 0.12244999E+03 -0.24108E+05
 0.12249999E+03 -0.30338E+05
 0.12255000E+03 -0.36416E+05
 0.12259999E+03 -0.40378E+05
 0.12264999E+03 -0.40790E+05
 0.12269999E+03 -0.40560E+05
 0.12274999E+03 -0.39443E+05
 0.12280000E+03 -0.36321E+05
 0.12284999E+03 -0.31377E+05
 0.12289999E+03 -0.22527E+05
 0.12294999E+03 -0.12200E+05
 0.12299999E+03 -0.58290E+04
 0.12305000E+03 -0.50420E+04
 0.12309999E+03 -0.96960E+04
 0.12314999E+03 -0.15108E+05
 0.12319999E+03 -0.16720E+05
 0.12324999E+03 -0.20668E+05
 0.12330000E+03 -0.29088E+05
 0.12334999E+03 -0.34441E+05
 0.12339999E+03 -0.34755E+05
 0.12344999E+03 -0.32019E+05
 0.12349999E+03 -0.26504E+05
 0.12355000E+03 -0.18687E+05
 0.12359999E+03 -0.12556E+05
 0.12364999E+03 -0.10129E+05
 0.12369999E+03 -0.81320E+04
 0.12374999E+03 -0.65760E+04
 0.12380000E+03 -0.61360E+04
 0.12384999E+03 -0.78710E+04
 0.12389999E+03 -0.13959E+05
 0.12394999E+03 -0.20757E+05
 0.12399999E+03 -0.24519E+05
 0.12405000E+03 -0.25292E+05
 0.12409999E+03 -0.24306E+05
 0.12414999E+03 -0.22288E+05
 0.12419999E+03 -0.20805E+05
 0.12424999E+03 -0.21895E+05
 0.12430000E+03 -0.21665E+05
 0.12434999E+03 -0.17208E+05
 0.12439999E+03 -0.12211E+05
 0.12444999E+03 -0.11112E+05
 0.12449999E+03 -0.13580E+05
 0.12455000E+03 -0.16932E+05
 0.12459999E+03 -0.20641E+05
 0.12464999E+03 -0.22283E+05
 0.12469999E+03 -0.22059E+05
 0.12474999E+03 -0.22207E+05
 0.12480000E+03 -0.22388E+05
 0.12484999E+03 -0.21716E+05
 0.12489999E+03 -0.18107E+05
 0.12494999E+03 -0.13725E+05
 0.12499999E+03 -0.12520E+05
 0.12504999E+03 -0.16330E+05
 0.12509999E+03 -0.23850E+05
 0.12514999E+03 -0.30160E+05
 0.12520000E+03 -0.34136E+05
 0.12524998E+03 -0.36381E+05
 0.12529999E+03 -0.36998E+05
 0.12534999E+03 -0.34991E+05
 0.12539999E+03 -0.30445E+05
 0.12545000E+03 -0.27291E+05
 0.12549998E+03 -0.24376E+05
 0.12554999E+03 -0.18419E+05
 0.12559999E+03 -0.12230E+05
 0.12564999E+03 -0.99570E+04
 0.12570000E+03 -0.11573E+05
 0.12574998E+03 -0.14793E+05
 0.12579999E+03 -0.18804E+05
 0.12584999E+03 -0.24074E+05
 0.12589999E+03 -0.30107E+05
 0.12595000E+03 -0.36085E+05
 0.12599998E+03 -0.42161E+05
 0.12604999E+03 -0.46211E+05
 0.12609999E+03 -0.44712E+05
 0.12614999E+03 -0.38797E+05
 0.12620000E+03 -0.33621E+05
 0.12624998E+03 -0.32363E+05
 0.12629999E+03 -0.33628E+05
 0.12634999E+03 -0.33315E+05
 0.12639999E+03 -0.30600E+05
 0.12645000E+03 -0.28407E+05
 0.12649998E+03 -0.28431E+05
 0.12654999E+03 -0.29485E+05
 0.12659999E+03 -0.30752E+05
 0.12664999E+03 -0.34118E+05
 0.12670000E+03 -0.37259E+05
 0.12674998E+03 -0.36660E+05
 0.12679999E+03 -0.33888E+05
 0.12684999E+03 -0.31828E+05
 0.12689999E+03 -0.31330E+05
 0.12695000E+03 -0.29952E+05
 0.12699998E+03 -0.26669E+05
 0.12704999E+03 -0.22786E+05
 0.12709999E+03 -0.20543E+05
 0.12714999E+03 -0.20913E+05
 0.12720000E+03 -0.22101E+05
 0.12724998E+03 -0.23273E+05
 0.12729999E+03 -0.23859E+05
 0.12734999E+03 -0.24036E+05
 0.12739999E+03 -0.24940E+05
 0.12745000E+03 -0.28124E+05
 0.12749998E+03 -0.33137E+05
 0.12754999E+03 -0.35446E+05
 0.12759999E+03 -0.33742E+05
 0.12764999E+03 -0.29772E+05
 0.12770000E+03 -0.25880E+05
 0.12774998E+03 -0.24404E+05
 0.12779999E+03 -0.22560E+05
 0.12784999E+03 -0.18587E+05
 0.12789999E+03 -0.13735E+05
 0.12795000E+03 -0.10121E+05
 0.12799998E+03 -0.11932E+05
 0.12804999E+03 -0.18197E+05
 0.12809999E+03 -0.24152E+05
 0.12814999E+03 -0.26718E+05
 0.12820000E+03 -0.27783E+05
 0.12824998E+03 -0.31150E+05
 0.12829999E+03 -0.33646E+05
 0.12834999E+03 -0.33113E+05
 0.12839999E+03 -0.31445E+05
 0.12845000E+03 -0.28755E+05
 0.12849998E+03 -0.25832E+05
 0.12854999E+03 -0.23514E+05
 0.12859999E+03 -0.22689E+05
 0.12864999E+03 -0.23135E+05
 0.12870000E+03 -0.22694E+05
 0.12874998E+03 -0.22085E+05
 0.12879999E+03 -0.23213E+05
 0.12884999E+03 -0.25636E+05
 0.12889999E+03 -0.28098E+05
 0.12895000E+03 -0.28834E+05
 0.12899998E+03 -0.27653E+05
 0.12904999E+03 -0.26501E+05
 0.12909999E+03 -0.24987E+05
 0.12914999E+03 -0.21820E+05
 0.12920000E+03 -0.17524E+05
 0.12924998E+03 -0.14287E+05
 0.12929999E+03 -0.12553E+05
 0.12934999E+03 -0.11471E+05
 0.12939999E+03 -0.14583E+05
 0.12945000E+03 -0.21183E+05
 0.12949998E+03 -0.26392E+05
 0.12954999E+03 -0.30259E+05
 0.12959999E+03 -0.31578E+05
 0.12964999E+03 -0.28438E+05
 0.12970000E+03 -0.24228E+05
 0.12974998E+03 -0.22856E+05
 0.12979999E+03 -0.21642E+05
 0.12984999E+03 -0.18118E+05
 0.12989999E+03 -0.15080E+05
 0.12995000E+03 -0.13126E+05
 0.12999998E+03 -0.12149E+05
 0.13004999E+03 -0.13040E+05
 0.13009999E+03 -0.15650E+05
 0.13014999E+03 -0.18249E+05
 0.13020000E+03 -0.18590E+05
 0.13024998E+03 -0.17748E+05
 0.13029999E+03 -0.18299E+05
 0.13034999E+03 -0.20255E+05
 0.13039999E+03 -0.21488E+05
 0.13045000E+03 -0.22261E+05
 0.13049998E+03 -0.23320E+05
 0.13054999E+03 -0.24368E+05
 0.13059999E+03 -0.26192E+05
 0.13064999E+03 -0.27613E+05
 0.13070000E+03 -0.27641E+05
 0.13074998E+03 -0.26641E+05
 0.13079999E+03 -0.25243E+05
 0.13084999E+03 -0.24864E+05
 0.13089999E+03 -0.24089E+05
 0.13095000E+03 -0.21543E+05
 0.13099998E+03 -0.19801E+05
 0.13104999E+03 -0.20675E+05
 0.13109999E+03 -0.23684E+05
 0.13114999E+03 -0.28284E+05
 0.13120000E+03 -0.33370E+05
 0.13124998E+03 -0.36736E+05
 0.13129999E+03 -0.37616E+05
 0.13134999E+03 -0.37256E+05
 0.13139999E+03 -0.34754E+05
 0.13145000E+03 -0.29303E+05
 0.13149998E+03 -0.23907E+05
 0.13154999E+03 -0.20604E+05
 0.13159999E+03 -0.19366E+05
 0.13164999E+03 -0.20332E+05
 0.13170000E+03 -0.23365E+05
 0.13174998E+03 -0.27838E+05
 0.13179999E+03 -0.33149E+05
 0.13184999E+03 -0.39266E+05
 0.13189999E+03 -0.44380E+05
 0.13195000E+03 -0.45794E+05
 0.13199998E+03 -0.42828E+05
 0.13204999E+03 -0.37167E+05
 0.13209999E+03 -0.31246E+05
 0.13214999E+03 -0.25933E+05
 0.13220000E+03 -0.22146E+05
 0.13224998E+03 -0.19091E+05
 0.13229999E+03 -0.15603E+05
 0.13234999E+03 -0.13610E+05
 0.13239999E+03 -0.14968E+05
 0.13245000E+03 -0.20735E+05
 0.13249998E+03 -0.28680E+05
 0.13254999E+03 -0.33775E+05
 0.13259999E+03 -0.34434E+05
 0.13264999E+03 -0.33310E+05
 0.13270000E+03 -0.32943E+05
 0.13274998E+03 -0.33169E+05
 0.13279999E+03 -0.32690E+05
 0.13284999E+03 -0.30059E+05
 0.13289999E+03 -0.26489E+05
 0.13295000E+03 -0.25381E+05
 0.13299998E+03 -0.26760E+05
 0.13304999E+03 -0.28079E+05
 0.13309999E+03 -0.27905E+05
 0.13314999E+03 -0.27268E+05
 0.13320000E+03 -0.27268E+05
 0.13324998E+03 -0.27343E+05
 0.13329999E+03 -0.27346E+05
 0.13334999E+03 -0.27239E+05
 0.13339999E+03 -0.27880E+05
 0.13345000E+03 -0.30482E+05
 0.13349998E+03 -0.32780E+05
 0.13354999E+03 -0.32224E+05
 0.13359999E+03 -0.29454E+05
 0.13364999E+03 -0.26131E+05
 0.13370000E+03 -0.24399E+05
 0.13374998E+03 -0.24799E+05
 0.13379999E+03 -0.25796E+05
 0.13384999E+03 -0.25542E+05
 0.13389999E+03 -0.23302E+05
 0.13395000E+03 -0.21106E+05
 0.13399998E+03 -0.20058E+05
 0.13404999E+03 -0.20485E+05
 0.13409999E+03 -0.21688E+05
 0.13414999E+03 -0.22270E+05
 0.13420000E+03 -0.23285E+05
 0.13424998E+03 -0.24733E+05
 0.13429999E+03 -0.26675E+05
 0.13434999E+03 -0.27704E+05
 0.13439999E+03 -0.26338E+05
 0.13445000E+03 -0.24831E+05
 0.13449998E+03 -0.23773E+05
 0.13454999E+03 -0.23312E+05
 0.13459999E+03 -0.23324E+05
 0.13464999E+03 -0.23073E+05
 0.13470000E+03 -0.22271E+05
 0.13474998E+03 -0.20885E+05
 0.13479999E+03 -0.21300E+05
 0.13484999E+03 -0.23667E+05
 0.13489999E+03 -0.26456E+05
 0.13495000E+03 -0.29654E+05
 0.13499998E+03 -0.32320E+05
 0.13504999E+03 -0.33911E+05
 0.13509999E+03 -0.33681E+05
 0.13514999E+03 -0.31399E+05
 0.13520000E+03 -0.28870E+05
 0.13524998E+03 -0.26329E+05
 0.13529999E+03 -0.22676E+05
 0.13534999E+03 -0.18814E+05
 0.13539999E+03 -0.16180E+05
 0.13545000E+03 -0.14206E+05
 0.13549998E+03 -0.12947E+05
 0.13554999E+03 -0.13135E+05
 0.13559999E+03 -0.15064E+05
 0.13564999E+03 -0.19381E+05
 0.13570000E+03 -0.24388E+05
 0.13574998E+03 -0.28284E+05
 0.13579999E+03 -0.30703E+05
 0.13584999E+03 -0.31539E+05
 0.13589999E+03 -0.31456E+05
 0.13595000E+03 -0.29643E+05
 0.13599998E+03 -0.26020E+05
 0.13604999E+03 -0.21622E+05
 0.13609999E+03 -0.17178E+05
 0.13614999E+03 -0.14176E+05
 0.13620000E+03 -0.13765E+05
 0.13624998E+03 -0.16372E+05
 0.13629999E+03 -0.20029E+05
 0.13634999E+03 -0.22721E+05
 0.13639999E+03 -0.24610E+05
 0.13645000E+03 -0.25866E+05
 0.13649998E+03 -0.26690E+05
 0.13654999E+03 -0.26468E+05
 0.13659999E+03 -0.24766E+05
 0.13664999E+03 -0.21870E+05
 0.13670000E+03 -0.18922E+05
 0.13674998E+03 -0.18113E+05
 0.13679999E+03 -0.19296E+05
 0.13684999E+03 -0.21746E+05
 0.13689999E+03 -0.24321E+05
 0.13695000E+03 -0.25222E+05
 0.13699998E+03 -0.26054E+05
 0.13704999E+03 -0.26574E+05
 0.13709999E+03 -0.24793E+05
 0.13714999E+03 -0.22868E+05
 0.13720000E+03 -0.22899E+05
 0.13724998E+03 -0.23813E+05
 0.13729999E+03 -0.23809E+05
 0.13734999E+03 -0.23114E+05
 0.13739999E+03 -0.23364E+05
 0.13745000E+03 -0.26280E+05
 0.13749998E+03 -0.31590E+05
 0.13754999E+03 -0.36298E+05
 0.13759999E+03 -0.37198E+05
 0.13764999E+03 -0.33520E+05
 0.13770000E+03 -0.28535E+05
 0.13774998E+03 -0.24630E+05
 0.13779999E+03 -0.21536E+05
 0.13784999E+03 -0.18716E+05
 0.13789999E+03 -0.16331E+05
 0.13795000E+03 -0.15970E+05
 0.13799998E+03 -0.17318E+05
 0.13804999E+03 -0.19414E+05
 0.13809999E+03 -0.22365E+05
 0.13814999E+03 -0.24909E+05
 0.13820000E+03 -0.26681E+05
 0.13824998E+03 -0.28422E+05
 0.13829999E+03 -0.29997E+05
 0.13834999E+03 -0.30891E+05
 0.13839999E+03 -0.29304E+05
 0.13845000E+03 -0.24189E+05
 0.13849998E+03 -0.19237E+05
 0.13854999E+03 -0.18613E+05
 0.13859999E+03 -0.21237E+05
 0.13864999E+03 -0.23980E+05
 0.13870000E+03 -0.24138E+05
 0.13874998E+03 -0.20777E+05
 0.13879999E+03 -0.17981E+05
 0.13884999E+03 -0.19217E+05
 0.13889999E+03 -0.21802E+05
 0.13895000E+03 -0.22631E+05
 0.13899998E+03 -0.22223E+05
 0.13904999E+03 -0.22174E+05
 0.13909999E+03 -0.23547E+05
 0.13914999E+03 -0.26503E+05
 0.13920000E+03 -0.30138E+05
 0.13924998E+03 -0.32696E+05
 0.13929999E+03 -0.32062E+05
 0.13934999E+03 -0.28462E+05
 0.13939999E+03 -0.24952E+05
 0.13945000E+03 -0.22838E+05
 0.13949998E+03 -0.21323E+05
 0.13954999E+03 -0.19667E+05
 0.13959999E+03 -0.17723E+05
 0.13964999E+03 -0.17522E+05
 0.13970000E+03 -0.19613E+05
 0.13974998E+03 -0.22306E+05
 0.13979999E+03 -0.25538E+05
 0.13984999E+03 -0.28107E+05
 0.13989999E+03 -0.28384E+05
 0.13995000E+03 -0.27270E+05
 0.13999998E+03 -0.26207E+05
 0.14004999E+03 -0.26689E+05
 0.14009999E+03 -0.28286E+05
 0.14014999E+03 -0.28952E+05
 0.14020000E+03 -0.29317E+05
 0.14024998E+03 -0.29900E+05
 0.14029999E+03 -0.29735E+05
 0.14034999E+03 -0.29229E+05
 0.14039999E+03 -0.28665E+05
 0.14045000E+03 -0.28170E+05
 0.14049998E+03 -0.27996E+05
 0.14054999E+03 -0.27277E+05
 0.14059999E+03 -0.26384E+05
 0.14064999E+03 -0.26891E+05
 0.14070000E+03 -0.27417E+05
 0.14074998E+03 -0.26574E+05
 0.14079999E+03 -0.26963E+05
 0.14084999E+03 -0.29493E+05
 0.14089999E+03 -0.31302E+05
 0.14095000E+03 -0.31284E+05
 0.14099998E+03 -0.29722E+05
 0.14104999E+03 -0.26460E+05
 0.14109999E+03 -0.23847E+05
 0.14114999E+03 -0.24157E+05
 0.14120000E+03 -0.25225E+05
 0.14124998E+03 -0.25018E+05
 0.14129999E+03 -0.25123E+05
 0.14134999E+03 -0.26398E+05
 0.14139999E+03 -0.28559E+05
 0.14145000E+03 -0.31556E+05
 0.14149998E+03 -0.33011E+05
 0.14154999E+03 -0.30734E+05
 0.14159999E+03 -0.26071E+05
 0.14164999E+03 -0.21782E+05
 0.14170000E+03 -0.19912E+05
 0.14174998E+03 -0.20283E+05
 0.14179999E+03 -0.21004E+05
 0.14184999E+03 -0.21620E+05
 0.14189999E+03 -0.22625E+05
 0.14195000E+03 -0.24166E+05
 0.14199998E+03 -0.26429E+05
 0.14204999E+03 -0.29045E+05
 0.14209999E+03 -0.30708E+05
 0.14214999E+03 -0.29613E+05
 0.14220000E+03 -0.26774E+05
 0.14224998E+03 -0.24303E+05
 0.14229999E+03 -0.21852E+05
 0.14234999E+03 -0.19775E+05
 0.14239999E+03 -0.18569E+05
 0.14245000E+03 -0.18031E+05
 0.14249998E+03 -0.17827E+05
 0.14254999E+03 -0.18050E+05
 0.14259999E+03 -0.19716E+05
 0.14264999E+03 -0.20947E+05
 0.14270000E+03 -0.20704E+05
 0.14274998E+03 -0.20781E+05
 0.14279999E+03 -0.20678E+05
 0.14284999E+03 -0.20317E+05
 0.14289999E+03 -0.20858E+05
 0.14295000E+03 -0.21991E+05
 0.14299998E+03 -0.22718E+05
 0.14304999E+03 -0.22816E+05
 0.14309999E+03 -0.23477E+05
 0.14314999E+03 -0.25302E+05
 0.14320000E+03 -0.26987E+05
 0.14324998E+03 -0.27362E+05
 0.14329999E+03 -0.26223E+05
 0.14334999E+03 -0.24363E+05
 0.14339999E+03 -0.24030E+05
 0.14345000E+03 -0.25806E+05
 0.14349998E+03 -0.27897E+05
 0.14354999E+03 -0.29365E+05
 0.14359999E+03 -0.30128E+05
 0.14364999E+03 -0.30316E+05
 0.14370000E+03 -0.30035E+05
 0.14374998E+03 -0.29771E+05
 0.14379999E+03 -0.30283E+05
 0.14384999E+03 -0.30318E+05
 0.14389999E+03 -0.29028E+05
 0.14395000E+03 -0.27367E+05
 0.14399998E+03 -0.25881E+05
 0.14404999E+03 -0.26025E+05
 0.14409999E+03 -0.27496E+05
 0.14414999E+03 -0.27299E+05
 0.14420000E+03 -0.24941E+05
 0.14424998E+03 -0.22707E+05
 0.14429999E+03 -0.22057E+05
 0.14434999E+03 -0.21904E+05
 0.14439999E+03 -0.22361E+05
 0.14445000E+03 -0.24389E+05
 0.14449998E+03 -0.25939E+05
 0.14454999E+03 -0.25942E+05
 0.14459999E+03 -0.26193E+05
 0.14464999E+03 -0.27812E+05
 0.14470000E+03 -0.29465E+05
 0.14474998E+03 -0.28748E+05
 0.14479999E+03 -0.25403E+05
 0.14484999E+03 -0.22035E+05
 0.14489999E+03 -0.20586E+05
 0.14495000E+03 -0.20646E+05
 0.14499998E+03 -0.20823E+05
 0.14504999E+03 -0.20724E+05
 0.14509999E+03 -0.21833E+05
 0.14514999E+03 -0.24043E+05
 0.14520000E+03 -0.25330E+05
 0.14524998E+03 -0.25398E+05
 0.14529999E+03 -0.25601E+05
 0.14534999E+03 -0.26227E+05
 0.14539999E+03 -0.27029E+05
 0.14545000E+03 -0.28449E+05
 0.14549998E+03 -0.29300E+05
 0.14554999E+03 -0.27602E+05
 0.14559999E+03 -0.23685E+05
 0.14564999E+03 -0.20995E+05
 0.14570000E+03 -0.21963E+05
 0.14574998E+03 -0.24106E+05
 0.14579999E+03 -0.24546E+05
 0.14584999E+03 -0.23276E+05
 0.14589999E+03 -0.21910E+05
 0.14595000E+03 -0.22011E+05
 0.14599998E+03 -0.23716E+05
 0.14604999E+03 -0.25994E+05
 0.14609999E+03 -0.27364E+05
 0.14614999E+03 -0.27451E+05
 0.14620000E+03 -0.26807E+05
 0.14624998E+03 -0.25615E+05
 0.14629999E+03 -0.23706E+05
 0.14634999E+03 -0.21470E+05
 0.14639999E+03 -0.20091E+05
 0.14645000E+03 -0.19894E+05
 0.14649998E+03 -0.20365E+05
 0.14654999E+03 -0.21923E+05
 0.14659999E+03 -0.24806E+05
 0.14664999E+03 -0.27482E+05
 0.14670000E+03 -0.28948E+05
 0.14674998E+03 -0.29589E+05
 0.14679999E+03 -0.29683E+05
 0.14684999E+03 -0.28852E+05
 0.14689999E+03 -0.27365E+05
 0.14695000E+03 -0.25777E+05
 0.14699998E+03 -0.23763E+05
 0.14704999E+03 -0.22329E+05
 0.14709999E+03 -0.22461E+05
 0.14714999E+03 -0.23889E+05
 0.14720000E+03 -0.25596E+05
 0.14724998E+03 -0.26525E+05
 0.14729999E+03 -0.27435E+05
 0.14734999E+03 -0.28087E+05
 0.14739999E+03 -0.27619E+05
 0.14745000E+03 -0.26529E+05
 0.14749998E+03 -0.25290E+05
 0.14754999E+03 -0.23818E+05
 0.14759999E+03 -0.21596E+05
 0.14764999E+03 -0.20010E+05
 0.14770000E+03 -0.19862E+05
 0.14774998E+03 -0.19341E+05
 0.14779999E+03 -0.18502E+05
 0.14784999E+03 -0.18367E+05
 0.14789999E+03 -0.18261E+05
 0.14795000E+03 -0.17590E+05
 0.14799998E+03 -0.17939E+05
 0.14804999E+03 -0.20432E+05
 0.14809999E+03 -0.23223E+05
 0.14814999E+03 -0.25143E+05
 0.14820000E+03 -0.25978E+05
 0.14824998E+03 -0.25196E+05
 0.14829999E+03 -0.23954E+05
 0.14834999E+03 -0.23862E+05
 0.14839999E+03 -0.24090E+05
 0.14845000E+03 -0.23287E+05
 0.14849998E+03 -0.22573E+05
 0.14854999E+03 -0.22843E+05
 0.14859999E+03 -0.24027E+05
 0.14864999E+03 -0.26544E+05
 0.14870000E+03 -0.29887E+05
 0.14874998E+03 -0.32825E+05
 0.14879999E+03 -0.33363E+05
 0.14884999E+03 -0.31314E+05
 0.14889999E+03 -0.29480E+05
 0.14895000E+03 -0.28336E+05
 0.14899998E+03 -0.26754E+05
 0.14904999E+03 -0.25036E+05
 0.14909999E+03 -0.23772E+05
 0.14914999E+03 -0.23394E+05
 0.14920000E+03 -0.23650E+05
 0.14924998E+03 -0.24149E+05
 0.14929999E+03 -0.24818E+05
 0.14934999E+03 -0.25248E+05
 0.14939999E+03 -0.25113E+05
 0.14945000E+03 -0.24513E+05
 0.14949998E+03 -0.24154E+05
 0.14954999E+03 -0.24298E+05
 0.14959999E+03 -0.24335E+05
 0.14964999E+03 -0.24533E+05
 0.14970000E+03 -0.25341E+05
 0.14974998E+03 -0.26232E+05
 0.14979999E+03 -0.26369E+05
 0.14984999E+03 -0.25800E+05
 0.14989999E+03 -0.25703E+05
 0.14995000E+03 -0.26700E+05
