-0.29800000E+01  0.48996E+05
-0.29300001E+01  0.50506E+05
-0.28800001E+01  0.52198E+05
-0.28299999E+01  0.54954E+05
-0.27800000E+01  0.58238E+05
-0.27300000E+01  0.62139E+05
-0.26800001E+01  0.66362E+05
-0.26300001E+01  0.69105E+05
-0.25799999E+01  0.70073E+05
-0.25300000E+01  0.69955E+05
-0.24800000E+01  0.69010E+05
-0.24300001E+01  0.67232E+05
-0.23800001E+01  0.64854E+05
-0.23299999E+01  0.62659E+05
-0.22800000E+01  0.60681E+05
-0.22300000E+01  0.57828E+05
-0.21800001E+01  0.54420E+05
-0.21300001E+01  0.52282E+05
-0.20799999E+01  0.51017E+05
-0.20300000E+01  0.49006E+05
-0.19800000E+01  0.47115E+05
-0.19299999E+01  0.45525E+05
-0.18800000E+01  0.42551E+05
-0.18300000E+01  0.38382E+05
-0.17800000E+01  0.33746E+05
-0.17300000E+01  0.28666E+05
-0.16799999E+01  0.23399E+05
-0.16300000E+01  0.17853E+05
-0.15800000E+01  0.11545E+05
-0.15300000E+01  0.48100E+04
-0.14800000E+01 -0.10910E+04
-0.14299999E+01 -0.51570E+04
-0.13800000E+01 -0.83420E+04
-0.13300000E+01 -0.13034E+05
-0.12800000E+01 -0.18727E+05
-0.12300000E+01 -0.23328E+05
-0.11799999E+01 -0.26152E+05
-0.11300000E+01 -0.26593E+05
-0.10800000E+01 -0.25160E+05
-0.10300000E+01 -0.22826E+05
-0.98000002E+00 -0.21006E+05
-0.93000007E+00 -0.21165E+05
-0.87999988E+00 -0.22655E+05
-0.82999992E+00 -0.24120E+05
-0.77999997E+00 -0.24703E+05
-0.73000002E+00 -0.25049E+05
-0.68000007E+00 -0.25823E+05
-0.62999988E+00 -0.26490E+05
-0.57999992E+00 -0.27326E+05
-0.52999997E+00 -0.28820E+05
-0.48000002E+00 -0.29410E+05
-0.43000007E+00 -0.27775E+05
-0.37999988E+00 -0.25242E+05
-0.32999992E+00 -0.23942E+05
-0.27999997E+00 -0.24560E+05
-0.23000002E+00 -0.25961E+05
-0.18000007E+00 -0.27362E+05
-0.12999988E+00 -0.28758E+05
-0.79999924E-01 -0.30696E+05
-0.29999971E-01 -0.33783E+05
 0.19999981E-01 -0.37398E+05
 0.69999933E-01 -0.39753E+05
 0.12000012E+00 -0.40183E+05
 0.17000008E+00 -0.40680E+05
 0.22000003E+00 -0.42073E+05
 0.26999998E+00 -0.43578E+05
 0.31999993E+00 -0.45011E+05
 0.37000012E+00 -0.45727E+05
 0.42000008E+00 -0.45540E+05
 0.47000003E+00 -0.44742E+05
 0.51999998E+00 -0.42761E+05
 0.56999993E+00 -0.40462E+05
 0.62000012E+00 -0.39663E+05
 0.67000008E+00 -0.40589E+05
 0.72000003E+00 -0.43085E+05
 0.76999998E+00 -0.46291E+05
 0.81999993E+00 -0.48938E+05
 0.87000012E+00 -0.51008E+05
 0.92000008E+00 -0.52971E+05
 0.97000003E+00 -0.54322E+05
 0.10200000E+01 -0.54200E+05
 0.10700002E+01 -0.53303E+05
 0.11199999E+01 -0.52749E+05
 0.11700001E+01 -0.52607E+05
 0.12200003E+01 -0.51587E+05
 0.12700000E+01 -0.48508E+05
 0.13200002E+01 -0.43603E+05
 0.13699999E+01 -0.38047E+05
 0.14200001E+01 -0.33549E+05
 0.14700003E+01 -0.29543E+05
 0.15200000E+01 -0.24495E+05
 0.15700002E+01 -0.18270E+05
 0.16199999E+01 -0.10611E+05
 0.16700001E+01 -0.22160E+04
 0.17200003E+01  0.68480E+04
 0.17700000E+01  0.17229E+05
 0.18200002E+01  0.27631E+05
 0.18699999E+01  0.36413E+05
 0.19200001E+01  0.42526E+05
 0.19700003E+01  0.46145E+05
 0.20200000E+01  0.48802E+05
 0.20700002E+01  0.51336E+05
 0.21199999E+01  0.53500E+05
 0.21700001E+01  0.54760E+05
 0.22200003E+01  0.53491E+05
 0.22700000E+01  0.49375E+05
 0.23200002E+01  0.44883E+05
 0.23699999E+01  0.41729E+05
 0.24200001E+01  0.39888E+05
 0.24700003E+01  0.38477E+05
 0.25200000E+01  0.36716E+05
 0.25700002E+01  0.35227E+05
 0.26199999E+01  0.35647E+05
 0.26700001E+01  0.37497E+05
 0.27200003E+01  0.38445E+05
 0.27700000E+01  0.37897E+05
 0.28200002E+01  0.35808E+05
 0.28699999E+01  0.32146E+05
 0.29200001E+01  0.28884E+05
 0.29700003E+01  0.27603E+05
 0.30200000E+01  0.27591E+05
 0.30700002E+01  0.27500E+05
 0.31199999E+01  0.26284E+05
 0.31700001E+01  0.23507E+05
 0.32200003E+01  0.19955E+05
 0.32700000E+01  0.16664E+05
 0.33200002E+01  0.13920E+05
 0.33699999E+01  0.12603E+05
 0.34200001E+01  0.12430E+05
 0.34700003E+01  0.12224E+05
 0.35200000E+01  0.12238E+05
 0.35700002E+01  0.12624E+05
 0.36199999E+01  0.13075E+05
 0.36700001E+01  0.14276E+05
 0.37200003E+01  0.17080E+05
 0.37700000E+01  0.19635E+05
 0.38200002E+01  0.20262E+05
 0.38699999E+01  0.20121E+05
 0.39200001E+01  0.20289E+05
 0.39700003E+01  0.19804E+05
 0.40200000E+01  0.18228E+05
 0.40700002E+01  0.16892E+05
 0.41199999E+01  0.15449E+05
 0.41700001E+01  0.13499E+05
 0.42200003E+01  0.11566E+05
 0.42700000E+01  0.95430E+04
 0.43200002E+01  0.73000E+04
 0.43699999E+01  0.41690E+04
 0.44200001E+01  0.88000E+02
 0.44700003E+01 -0.43650E+04
 0.45200000E+01 -0.82230E+04
 0.45700002E+01 -0.10828E+05
 0.46199999E+01 -0.12876E+05
 0.46700001E+01 -0.14499E+05
 0.47200003E+01 -0.16267E+05
 0.47700000E+01 -0.18724E+05
 0.48200002E+01 -0.20096E+05
 0.48699999E+01 -0.19064E+05
 0.49200001E+01 -0.16969E+05
 0.49700003E+01 -0.15465E+05
 0.50200000E+01 -0.14746E+05
 0.50700002E+01 -0.14896E+05
 0.51200004E+01 -0.16518E+05
 0.51700006E+01 -0.19818E+05
 0.52199998E+01 -0.24141E+05
 0.52700000E+01 -0.28513E+05
 0.53200002E+01 -0.32008E+05
 0.53700004E+01 -0.33797E+05
 0.54200006E+01 -0.33733E+05
 0.54699998E+01 -0.32851E+05
 0.55200000E+01 -0.32060E+05
 0.55700002E+01 -0.31021E+05
 0.56200004E+01 -0.29178E+05
 0.56700006E+01 -0.26288E+05
 0.57199998E+01 -0.23621E+05
 0.57700000E+01 -0.22509E+05
 0.58200002E+01 -0.21976E+05
 0.58700004E+01 -0.21148E+05
 0.59200006E+01 -0.20146E+05
 0.59699998E+01 -0.19119E+05
 0.60200000E+01 -0.17846E+05
 0.60700002E+01 -0.16536E+05
 0.61200004E+01 -0.16451E+05
 0.61700006E+01 -0.17615E+05
 0.62199998E+01 -0.18565E+05
 0.62700000E+01 -0.19065E+05
 0.63200002E+01 -0.20089E+05
 0.63700004E+01 -0.21231E+05
 0.64200006E+01 -0.22534E+05
 0.64699998E+01 -0.25018E+05
 0.65200000E+01 -0.28022E+05
 0.65700002E+01 -0.30923E+05
 0.66200004E+01 -0.32975E+05
 0.66700006E+01 -0.33310E+05
 0.67199998E+01 -0.32507E+05
 0.67700000E+01 -0.31207E+05
 0.68200002E+01 -0.29318E+05
 0.68700004E+01 -0.26926E+05
 0.69200006E+01 -0.25176E+05
 0.69699998E+01 -0.24037E+05
 0.70200000E+01 -0.22389E+05
 0.70700002E+01 -0.19302E+05
 0.71200004E+01 -0.13258E+05
 0.71700006E+01 -0.49420E+04
 0.72199998E+01  0.30610E+04
 0.72700000E+01  0.95160E+04
 0.73200002E+01  0.14479E+05
 0.73700004E+01  0.19396E+05
 0.74200006E+01  0.25654E+05
 0.74699998E+01  0.32599E+05
 0.75200000E+01  0.38567E+05
 0.75700002E+01  0.42441E+05
 0.76200004E+01  0.44083E+05
 0.76700006E+01  0.43732E+05
 0.77199998E+01  0.43223E+05
 0.77700000E+01  0.43762E+05
 0.78200002E+01  0.43545E+05
 0.78700004E+01  0.42460E+05
 0.79200006E+01  0.41863E+05
 0.79699998E+01  0.42162E+05
 0.80200005E+01  0.43686E+05
 0.80699997E+01  0.46353E+05
 0.81200008E+01  0.50014E+05
 0.81700001E+01  0.54585E+05
 0.82199993E+01  0.59503E+05
 0.82700005E+01  0.63608E+05
 0.83199997E+01  0.65837E+05
 0.83700008E+01  0.66069E+05
 0.84200001E+01  0.64776E+05
 0.84699993E+01  0.62182E+05
 0.85200005E+01  0.58762E+05
 0.85699997E+01  0.54500E+05
 0.86200008E+01  0.48687E+05
 0.86700001E+01  0.42551E+05
 0.87199993E+01  0.37690E+05
 0.87700005E+01  0.33949E+05
 0.88199997E+01  0.30371E+05
 0.88700008E+01  0.25345E+05
 0.89200001E+01  0.17938E+05
 0.89699993E+01  0.90380E+04
 0.90200005E+01 -0.66000E+02
 0.90699997E+01 -0.83790E+04
 0.91200008E+01 -0.14838E+05
 0.91700001E+01 -0.19942E+05
 0.92199993E+01 -0.25076E+05
 0.92700005E+01 -0.30362E+05
 0.93199997E+01 -0.36056E+05
 0.93700008E+01 -0.42297E+05
 0.94200001E+01 -0.48411E+05
 0.94699993E+01 -0.53852E+05
 0.95200005E+01 -0.57747E+05
 0.95699997E+01 -0.59715E+05
 0.96200008E+01 -0.60481E+05
 0.96700001E+01 -0.60092E+05
 0.97199993E+01 -0.58183E+05
 0.97700005E+01 -0.55425E+05
 0.98199997E+01 -0.52533E+05
 0.98700008E+01 -0.49927E+05
 0.99200001E+01 -0.47372E+05
 0.99699993E+01 -0.43999E+05
 0.10020000E+02 -0.39444E+05
 0.10070000E+02 -0.33907E+05
 0.10120001E+02 -0.28799E+05
 0.10170000E+02 -0.24632E+05
 0.10219999E+02 -0.20408E+05
 0.10270000E+02 -0.16073E+05
 0.10320000E+02 -0.12558E+05
 0.10370001E+02 -0.10887E+05
 0.10420000E+02 -0.10090E+05
 0.10469999E+02 -0.86490E+04
 0.10520000E+02 -0.72420E+04
 0.10570000E+02 -0.73390E+04
 0.10620001E+02 -0.93010E+04
 0.10670000E+02 -0.11765E+05
 0.10719999E+02 -0.12766E+05
 0.10770000E+02 -0.11623E+05
 0.10820000E+02 -0.97510E+04
 0.10870001E+02 -0.90440E+04
 0.10920000E+02 -0.98580E+04
 0.10969999E+02 -0.11760E+05
 0.11020000E+02 -0.14313E+05
 0.11070000E+02 -0.17169E+05
 0.11120001E+02 -0.20596E+05
 0.11170000E+02 -0.24571E+05
 0.11219999E+02 -0.27823E+05
 0.11270000E+02 -0.28406E+05
 0.11320000E+02 -0.26018E+05
 0.11370001E+02 -0.22378E+05
 0.11420000E+02 -0.18559E+05
 0.11469999E+02 -0.15145E+05
 0.11520000E+02 -0.12794E+05
 0.11570000E+02 -0.11685E+05
 0.11620001E+02 -0.11903E+05
 0.11670000E+02 -0.12589E+05
 0.11719999E+02 -0.12778E+05
 0.11770000E+02 -0.12444E+05
 0.11820000E+02 -0.10797E+05
 0.11870001E+02 -0.70840E+04
 0.11920000E+02 -0.21730E+04
 0.11969999E+02  0.29540E+04
 0.12020000E+02  0.79620E+04
 0.12070000E+02  0.12344E+05
 0.12120001E+02  0.15643E+05
 0.12170000E+02  0.17443E+05
 0.12219999E+02  0.17286E+05
 0.12270000E+02  0.15782E+05
 0.12320000E+02  0.14002E+05
 0.12370001E+02  0.12489E+05
 0.12420000E+02  0.11682E+05
 0.12469999E+02  0.11244E+05
 0.12520000E+02  0.10205E+05
 0.12570000E+02  0.84140E+04
 0.12620001E+02  0.63650E+04
 0.12670000E+02  0.46870E+04
 0.12719999E+02  0.40000E+04
 0.12770000E+02  0.45990E+04
 0.12820000E+02  0.61060E+04
 0.12870001E+02  0.73410E+04
 0.12920000E+02  0.78330E+04
 0.12969999E+02  0.84210E+04
 0.13020000E+02  0.10109E+05
 0.13070002E+02  0.12768E+05
 0.13120001E+02  0.15722E+05
 0.13170000E+02  0.18944E+05
 0.13220001E+02  0.22167E+05
 0.13270000E+02  0.25976E+05
 0.13320002E+02  0.31212E+05
 0.13370001E+02  0.37240E+05
 0.13420000E+02  0.43413E+05
 0.13470001E+02  0.49133E+05
 0.13520000E+02  0.53347E+05
 0.13570002E+02  0.56052E+05
 0.13620001E+02  0.58201E+05
 0.13670000E+02  0.59351E+05
 0.13720001E+02  0.59173E+05
 0.13770000E+02  0.58758E+05
 0.13820002E+02  0.58230E+05
 0.13870001E+02  0.56771E+05
 0.13920000E+02  0.53974E+05
 0.13970001E+02  0.50304E+05
 0.14020000E+02  0.46578E+05
 0.14070002E+02  0.42756E+05
 0.14120001E+02  0.38559E+05
 0.14170000E+02  0.34236E+05
 0.14220001E+02  0.30008E+05
 0.14270000E+02  0.25833E+05
 0.14320002E+02  0.21360E+05
 0.14370001E+02  0.16388E+05
 0.14420000E+02  0.10739E+05
 0.14470001E+02  0.41400E+04
 0.14520000E+02 -0.27340E+04
 0.14570002E+02 -0.98730E+04
 0.14620001E+02 -0.17091E+05
 0.14670000E+02 -0.21804E+05
 0.14720001E+02 -0.23187E+05
 0.14770000E+02 -0.22501E+05
 0.14820002E+02 -0.20300E+05
 0.14870001E+02 -0.17121E+05
 0.14920000E+02 -0.13327E+05
 0.14970001E+02 -0.95300E+04
 0.15020000E+02 -0.69120E+04
 0.15070002E+02 -0.60760E+04
 0.15120001E+02 -0.64650E+04
 0.15170000E+02 -0.73220E+04
 0.15220001E+02 -0.82930E+04
 0.15270000E+02 -0.86190E+04
 0.15320002E+02 -0.81630E+04
 0.15370001E+02 -0.75800E+04
 0.15420000E+02 -0.67390E+04
 0.15470001E+02 -0.56150E+04
 0.15520000E+02 -0.44520E+04
 0.15570002E+02 -0.37590E+04
 0.15620001E+02 -0.40410E+04
 0.15670000E+02 -0.49000E+04
 0.15720001E+02 -0.63510E+04
 0.15770000E+02 -0.87730E+04
 0.15820002E+02 -0.12205E+05
 0.15870001E+02 -0.16652E+05
 0.15920000E+02 -0.22012E+05
 0.15970001E+02 -0.27833E+05
 0.16020000E+02 -0.34069E+05
 0.16070002E+02 -0.41009E+05
 0.16120001E+02 -0.48697E+05
 0.16170000E+02 -0.57160E+05
 0.16220001E+02 -0.65533E+05
 0.16270000E+02 -0.72976E+05
 0.16320002E+02 -0.79259E+05
 0.16370001E+02 -0.83788E+05
 0.16420000E+02 -0.86511E+05
 0.16470001E+02 -0.87988E+05
 0.16520000E+02 -0.88283E+05
 0.16570002E+02 -0.86926E+05
 0.16620001E+02 -0.83792E+05
 0.16670000E+02 -0.78948E+05
 0.16720001E+02 -0.72259E+05
 0.16770000E+02 -0.63932E+05
 0.16820002E+02 -0.54370E+05
 0.16870001E+02 -0.44676E+05
 0.16920000E+02 -0.36005E+05
 0.16970001E+02 -0.28268E+05
 0.17020000E+02 -0.20809E+05
 0.17070002E+02 -0.13370E+05
 0.17120001E+02 -0.62080E+04
 0.17170000E+02  0.81600E+03
 0.17220001E+02  0.67880E+04
 0.17270000E+02  0.98020E+04
 0.17320002E+02  0.94940E+04
 0.17370001E+02  0.70570E+04
 0.17420000E+02  0.39480E+04
 0.17470001E+02  0.42600E+03
 0.17520000E+02 -0.33580E+04
 0.17570002E+02 -0.66590E+04
 0.17620001E+02 -0.91690E+04
 0.17670000E+02 -0.10605E+05
 0.17720001E+02 -0.11004E+05
 0.17770000E+02 -0.10162E+05
 0.17820002E+02 -0.76010E+04
 0.17870001E+02 -0.40050E+04
 0.17920000E+02  0.28500E+03
 0.17970001E+02  0.53640E+04
 0.18020000E+02  0.11048E+05
 0.18070002E+02  0.17128E+05
 0.18120001E+02  0.22464E+05
 0.18170000E+02  0.26171E+05
 0.18220001E+02  0.28359E+05
 0.18270000E+02  0.30203E+05
 0.18320002E+02  0.32856E+05
 0.18370001E+02  0.36295E+05
 0.18420000E+02  0.40200E+05
 0.18470001E+02  0.43987E+05
 0.18520000E+02  0.46947E+05
 0.18570002E+02  0.48213E+05
 0.18620001E+02  0.47904E+05
 0.18670000E+02  0.47069E+05
 0.18720001E+02  0.46054E+05
 0.18770000E+02  0.44995E+05
 0.18820002E+02  0.43590E+05
 0.18870001E+02  0.41661E+05
 0.18920000E+02  0.40004E+05
 0.18970001E+02  0.38990E+05
 0.19020000E+02  0.38508E+05
 0.19070002E+02  0.38517E+05
 0.19120001E+02  0.38411E+05
 0.19170000E+02  0.37367E+05
 0.19220001E+02  0.35623E+05
 0.19270000E+02  0.33788E+05
 0.19320002E+02  0.31518E+05
 0.19370001E+02  0.28775E+05
 0.19420000E+02  0.26292E+05
 0.19470001E+02  0.24270E+05
 0.19520000E+02  0.22315E+05
 0.19570002E+02  0.19915E+05
 0.19620001E+02  0.17245E+05
 0.19670000E+02  0.15441E+05
 0.19720001E+02  0.14818E+05
 0.19770000E+02  0.14315E+05
 0.19820002E+02  0.13312E+05
 0.19870001E+02  0.12130E+05
 0.19920000E+02  0.11193E+05
 0.19970001E+02  0.10290E+05
 0.20020000E+02  0.90690E+04
 0.20070002E+02  0.75620E+04
 0.20120001E+02  0.53320E+04
 0.20170000E+02  0.22690E+04
 0.20220001E+02 -0.12300E+04
 0.20270000E+02 -0.59690E+04
 0.20320002E+02 -0.12666E+05
 0.20370001E+02 -0.19809E+05
 0.20420000E+02 -0.25481E+05
 0.20470001E+02 -0.29225E+05
 0.20520000E+02 -0.31173E+05
 0.20570002E+02 -0.32449E+05
 0.20620001E+02 -0.34611E+05
 0.20670000E+02 -0.37560E+05
 0.20720001E+02 -0.40626E+05
 0.20770000E+02 -0.43317E+05
 0.20820002E+02 -0.44941E+05
 0.20870001E+02 -0.45174E+05
 0.20920000E+02 -0.44010E+05
 0.20970001E+02 -0.42774E+05
 0.21020000E+02 -0.42777E+05
 0.21070002E+02 -0.43218E+05
 0.21120001E+02 -0.42806E+05
 0.21170000E+02 -0.40895E+05
 0.21220001E+02 -0.37669E+05
 0.21270000E+02 -0.33367E+05
 0.21320002E+02 -0.28215E+05
 0.21370001E+02 -0.22636E+05
 0.21420000E+02 -0.16753E+05
 0.21470001E+02 -0.11258E+05
 0.21520000E+02 -0.65610E+04
 0.21570002E+02 -0.23390E+04
 0.21620001E+02  0.15250E+04
 0.21670000E+02  0.48900E+04
 0.21720001E+02  0.73530E+04
 0.21770000E+02  0.93250E+04
 0.21820002E+02  0.11638E+05
 0.21870001E+02  0.14441E+05
 0.21920000E+02  0.17385E+05
 0.21970001E+02  0.19976E+05
 0.22020000E+02  0.22458E+05
 0.22070002E+02  0.25297E+05
 0.22120001E+02  0.28292E+05
 0.22170000E+02  0.30666E+05
 0.22220001E+02  0.32376E+05
 0.22270000E+02  0.34387E+05
 0.22320002E+02  0.37009E+05
 0.22370001E+02  0.39990E+05
 0.22420000E+02  0.42746E+05
 0.22470001E+02  0.44946E+05
 0.22520000E+02  0.46924E+05
 0.22570002E+02  0.48570E+05
 0.22620001E+02  0.49603E+05
 0.22670000E+02  0.50222E+05
 0.22720001E+02  0.50448E+05
 0.22770000E+02  0.49492E+05
 0.22820002E+02  0.47023E+05
 0.22870001E+02  0.43516E+05
 0.22920000E+02  0.39144E+05
 0.22970001E+02  0.34583E+05
 0.23020000E+02  0.30028E+05
 0.23070002E+02  0.24551E+05
 0.23120001E+02  0.17874E+05
 0.23170000E+02  0.10608E+05
 0.23220001E+02  0.33770E+04
 0.23270000E+02 -0.40710E+04
 0.23320002E+02 -0.11527E+05
 0.23370001E+02 -0.18286E+05
 0.23420000E+02 -0.24072E+05
 0.23470001E+02 -0.28273E+05
 0.23520000E+02 -0.30780E+05
 0.23570002E+02 -0.32669E+05
 0.23620001E+02 -0.34577E+05
 0.23670000E+02 -0.36111E+05
 0.23720001E+02 -0.37480E+05
 0.23770000E+02 -0.38631E+05
 0.23820002E+02 -0.39060E+05
 0.23870001E+02 -0.39059E+05
 0.23920000E+02 -0.38871E+05
 0.23970001E+02 -0.38636E+05
 0.24020000E+02 -0.38163E+05
 0.24070002E+02 -0.36918E+05
 0.24120001E+02 -0.35182E+05
 0.24170000E+02 -0.33437E+05
 0.24220001E+02 -0.31048E+05
 0.24270000E+02 -0.27109E+05
 0.24320002E+02 -0.21838E+05
 0.24370001E+02 -0.16355E+05
 0.24420000E+02 -0.11483E+05
 0.24470001E+02 -0.69750E+04
 0.24520000E+02 -0.27910E+04
 0.24570002E+02  0.32400E+03
 0.24620001E+02  0.25140E+04
 0.24670000E+02  0.42030E+04
 0.24720001E+02  0.52310E+04
 0.24770000E+02  0.54840E+04
 0.24820002E+02  0.50510E+04
 0.24870001E+02  0.36310E+04
 0.24920000E+02  0.73500E+03
 0.24970001E+02 -0.29990E+04
 0.25020000E+02 -0.63770E+04
 0.25070002E+02 -0.84900E+04
 0.25120001E+02 -0.89970E+04
 0.25170000E+02 -0.84990E+04
 0.25220001E+02 -0.78750E+04
 0.25270000E+02 -0.72990E+04
 0.25320002E+02 -0.70060E+04
 0.25370001E+02 -0.73930E+04
 0.25420000E+02 -0.80400E+04
 0.25470001E+02 -0.87290E+04
 0.25520000E+02 -0.96680E+04
 0.25570002E+02 -0.10844E+05
 0.25620001E+02 -0.11425E+05
 0.25670000E+02 -0.10564E+05
 0.25720001E+02 -0.93110E+04
 0.25770000E+02 -0.92390E+04
 0.25820002E+02 -0.10152E+05
 0.25870001E+02 -0.11160E+05
 0.25920000E+02 -0.11878E+05
 0.25970001E+02 -0.12263E+05
 0.26020000E+02 -0.12227E+05
 0.26070002E+02 -0.11319E+05
 0.26120001E+02 -0.96660E+04
 0.26170000E+02 -0.76890E+04
 0.26220001E+02 -0.54150E+04
 0.26270000E+02 -0.29180E+04
 0.26320002E+02 -0.52700E+03
 0.26370001E+02  0.16840E+04
 0.26420000E+02  0.36500E+04
 0.26470001E+02  0.46760E+04
 0.26520000E+02  0.45210E+04
 0.26570002E+02  0.38790E+04
 0.26620001E+02  0.33340E+04
 0.26670000E+02  0.27060E+04
 0.26720001E+02  0.19880E+04
 0.26770000E+02  0.16260E+04
 0.26820002E+02  0.19360E+04
 0.26870001E+02  0.31450E+04
 0.26920000E+02  0.50280E+04
 0.26970001E+02  0.70750E+04
 0.27020000E+02  0.88870E+04
 0.27070002E+02  0.10549E+05
 0.27120001E+02  0.12030E+05
 0.27170000E+02  0.12861E+05
 0.27220001E+02  0.13485E+05
 0.27270000E+02  0.14603E+05
 0.27320002E+02  0.16883E+05
 0.27370001E+02  0.20319E+05
 0.27420000E+02  0.23210E+05
 0.27470001E+02  0.24249E+05
 0.27520000E+02  0.23542E+05
 0.27570002E+02  0.22627E+05
 0.27620001E+02  0.22878E+05
 0.27670000E+02  0.24036E+05
 0.27720001E+02  0.25221E+05
 0.27770000E+02  0.25400E+05
 0.27820002E+02  0.24333E+05
 0.27870001E+02  0.22795E+05
 0.27920000E+02  0.22080E+05
 0.27970001E+02  0.22712E+05
 0.28020000E+02  0.23740E+05
 0.28070002E+02  0.24067E+05
 0.28120001E+02  0.23061E+05
 0.28170000E+02  0.20920E+05
 0.28220001E+02  0.17863E+05
 0.28270000E+02  0.14290E+05
 0.28320002E+02  0.11148E+05
 0.28370001E+02  0.84620E+04
 0.28420000E+02  0.57600E+04
 0.28470001E+02  0.32140E+04
 0.28520000E+02  0.11960E+04
 0.28570002E+02 -0.28400E+03
 0.28620001E+02 -0.13040E+04
 0.28670000E+02 -0.19740E+04
 0.28720001E+02 -0.23310E+04
 0.28770000E+02 -0.29460E+04
 0.28820002E+02 -0.44310E+04
 0.28870001E+02 -0.67050E+04
 0.28920000E+02 -0.95470E+04
 0.28970001E+02 -0.12151E+05
 0.29020000E+02 -0.13733E+05
 0.29070000E+02 -0.13912E+05
 0.29120003E+02 -0.12845E+05
 0.29170002E+02 -0.11171E+05
 0.29220001E+02 -0.94980E+04
 0.29270000E+02 -0.86730E+04
 0.29320000E+02 -0.90420E+04
 0.29370003E+02 -0.10175E+05
 0.29420002E+02 -0.11249E+05
 0.29470001E+02 -0.12149E+05
 0.29520000E+02 -0.13911E+05
 0.29570000E+02 -0.16703E+05
 0.29620003E+02 -0.19554E+05
 0.29670002E+02 -0.21780E+05
 0.29720001E+02 -0.23110E+05
 0.29770000E+02 -0.24079E+05
 0.29820000E+02 -0.25829E+05
 0.29870003E+02 -0.28199E+05
 0.29920002E+02 -0.30530E+05
 0.29970001E+02 -0.33187E+05
 0.30020000E+02 -0.36558E+05
 0.30070000E+02 -0.40232E+05
 0.30120003E+02 -0.43165E+05
 0.30170002E+02 -0.44726E+05
 0.30220001E+02 -0.45234E+05
 0.30270000E+02 -0.45388E+05
 0.30320000E+02 -0.45000E+05
 0.30370003E+02 -0.43611E+05
 0.30420002E+02 -0.41615E+05
 0.30470001E+02 -0.39339E+05
 0.30520000E+02 -0.36599E+05
 0.30570000E+02 -0.33119E+05
 0.30620003E+02 -0.29122E+05
 0.30670002E+02 -0.24808E+05
 0.30720001E+02 -0.19956E+05
 0.30770000E+02 -0.14552E+05
 0.30820000E+02 -0.95160E+04
 0.30870003E+02 -0.57760E+04
 0.30920002E+02 -0.32920E+04
 0.30970001E+02 -0.20230E+04
 0.31020000E+02 -0.17200E+04
 0.31070000E+02 -0.20300E+04
 0.31120003E+02 -0.29550E+04
 0.31170002E+02 -0.40860E+04
 0.31220001E+02 -0.47820E+04
 0.31270000E+02 -0.47760E+04
 0.31320000E+02 -0.46420E+04
 0.31370003E+02 -0.53910E+04
 0.31420002E+02 -0.65060E+04
 0.31470001E+02 -0.64290E+04
 0.31520000E+02 -0.49300E+04
 0.31570000E+02 -0.25580E+04
 0.31620003E+02  0.60400E+03
 0.31670002E+02  0.46370E+04
 0.31720001E+02  0.90580E+04
 0.31770000E+02  0.13355E+05
 0.31820000E+02  0.18087E+05
 0.31870003E+02  0.23615E+05
 0.31920002E+02  0.29290E+05
 0.31970001E+02  0.34588E+05
 0.32020000E+02  0.39294E+05
 0.32070000E+02  0.43616E+05
 0.32120003E+02  0.47863E+05
 0.32170002E+02  0.52171E+05
 0.32220001E+02  0.56582E+05
 0.32270000E+02  0.60031E+05
 0.32320000E+02  0.61473E+05
 0.32370003E+02  0.61370E+05
 0.32420002E+02  0.60626E+05
 0.32470001E+02  0.59198E+05
 0.32520000E+02  0.56071E+05
 0.32570000E+02  0.50753E+05
 0.32620003E+02  0.44171E+05
 0.32670002E+02  0.37873E+05
 0.32720001E+02  0.32551E+05
 0.32770000E+02  0.27861E+05
 0.32820000E+02  0.23355E+05
 0.32870003E+02  0.19220E+05
 0.32920002E+02  0.15947E+05
 0.32970001E+02  0.13339E+05
 0.33020000E+02  0.10553E+05
 0.33070000E+02  0.72090E+04
 0.33120003E+02  0.38130E+04
 0.33170002E+02  0.11040E+04
 0.33220001E+02 -0.11000E+02
 0.33270000E+02  0.48800E+03
 0.33320000E+02  0.13820E+04
 0.33370003E+02  0.18090E+04
 0.33420002E+02  0.13080E+04
 0.33470001E+02  0.38300E+03
 0.33520000E+02 -0.10100E+03
 0.33570000E+02 -0.54700E+03
 0.33620003E+02 -0.15990E+04
 0.33670002E+02 -0.32620E+04
 0.33720001E+02 -0.49900E+04
 0.33770000E+02 -0.64990E+04
 0.33820000E+02 -0.74030E+04
 0.33870003E+02 -0.73050E+04
 0.33920002E+02 -0.68700E+04
 0.33970001E+02 -0.64240E+04
 0.34020000E+02 -0.60430E+04
 0.34070000E+02 -0.60830E+04
 0.34120003E+02 -0.66320E+04
 0.34170002E+02 -0.80650E+04
 0.34220001E+02 -0.98750E+04
 0.34270000E+02 -0.10974E+05
 0.34320000E+02 -0.11495E+05
 0.34370003E+02 -0.11466E+05
 0.34420002E+02 -0.10835E+05
 0.34470001E+02 -0.10419E+05
 0.34520000E+02 -0.10614E+05
 0.34570000E+02 -0.11425E+05
 0.34620003E+02 -0.12776E+05
 0.34670002E+02 -0.14509E+05
 0.34720001E+02 -0.16379E+05
 0.34770000E+02 -0.17645E+05
 0.34820000E+02 -0.18065E+05
 0.34870003E+02 -0.18364E+05
 0.34920002E+02 -0.19142E+05
 0.34970001E+02 -0.20295E+05
 0.35020000E+02 -0.21558E+05
 0.35070000E+02 -0.22768E+05
 0.35120003E+02 -0.24082E+05
 0.35170002E+02 -0.25458E+05
 0.35220001E+02 -0.26529E+05
 0.35270000E+02 -0.27147E+05
 0.35320000E+02 -0.27320E+05
 0.35370003E+02 -0.27386E+05
 0.35420002E+02 -0.27332E+05
 0.35470001E+02 -0.26795E+05
 0.35520000E+02 -0.25510E+05
 0.35570000E+02 -0.23409E+05
 0.35620003E+02 -0.20863E+05
 0.35670002E+02 -0.18153E+05
 0.35720001E+02 -0.15463E+05
 0.35770000E+02 -0.12887E+05
 0.35820000E+02 -0.10237E+05
 0.35870003E+02 -0.75730E+04
 0.35920002E+02 -0.51120E+04
 0.35970001E+02 -0.30610E+04
 0.36020000E+02 -0.12140E+04
 0.36070000E+02  0.13010E+04
 0.36120003E+02  0.45550E+04
 0.36170002E+02  0.78030E+04
 0.36220001E+02  0.10122E+05
 0.36270000E+02  0.10861E+05
 0.36320000E+02  0.10435E+05
 0.36370003E+02  0.93530E+04
 0.36420002E+02  0.75030E+04
 0.36470001E+02  0.50540E+04
 0.36520000E+02  0.22680E+04
 0.36570000E+02 -0.83100E+03
 0.36620003E+02 -0.36690E+04
 0.36670002E+02 -0.55870E+04
 0.36720001E+02 -0.63490E+04
 0.36770000E+02 -0.64410E+04
 0.36820000E+02 -0.64800E+04
 0.36870003E+02 -0.65360E+04
 0.36920002E+02 -0.65500E+04
 0.36970001E+02 -0.64970E+04
 0.37020000E+02 -0.66620E+04
 0.37070000E+02 -0.69720E+04
 0.37120003E+02 -0.71090E+04
 0.37170002E+02 -0.69990E+04
 0.37220001E+02 -0.64230E+04
 0.37270000E+02 -0.55570E+04
 0.37320000E+02 -0.45960E+04
 0.37370003E+02 -0.33040E+04
 0.37420002E+02 -0.14120E+04
 0.37470001E+02  0.13400E+04
 0.37520000E+02  0.42090E+04
 0.37570000E+02  0.59210E+04
 0.37620003E+02  0.64830E+04
 0.37670002E+02  0.67420E+04
 0.37720001E+02  0.71230E+04
 0.37770000E+02  0.75830E+04
 0.37820000E+02  0.76230E+04
 0.37870003E+02  0.65100E+04
 0.37920002E+02  0.43360E+04
 0.37970001E+02  0.19270E+04
 0.38020000E+02 -0.17500E+03
 0.38070000E+02 -0.19040E+04
 0.38120003E+02 -0.34990E+04
 0.38170002E+02 -0.48420E+04
 0.38220001E+02 -0.54610E+04
 0.38270000E+02 -0.51740E+04
 0.38320000E+02 -0.40380E+04
 0.38370003E+02 -0.26780E+04
 0.38420002E+02 -0.12610E+04
 0.38470001E+02  0.33000E+03
 0.38520000E+02  0.18320E+04
 0.38570000E+02  0.34070E+04
 0.38620003E+02  0.50210E+04
 0.38670002E+02  0.67360E+04
 0.38720001E+02  0.83680E+04
 0.38770000E+02  0.95020E+04
 0.38820000E+02  0.10284E+05
 0.38870003E+02  0.10493E+05
 0.38920002E+02  0.97500E+04
 0.38970001E+02  0.81640E+04
 0.39020000E+02  0.62830E+04
 0.39070000E+02  0.45880E+04
 0.39120003E+02  0.28830E+04
 0.39170002E+02  0.11890E+04
 0.39220001E+02 -0.19700E+03
 0.39270000E+02 -0.12910E+04
 0.39320000E+02 -0.20210E+04
 0.39370003E+02 -0.28130E+04
 0.39420002E+02 -0.41260E+04
 0.39470001E+02 -0.55670E+04
 0.39520000E+02 -0.65870E+04
 0.39570000E+02 -0.70530E+04
 0.39620003E+02 -0.76030E+04
 0.39670002E+02 -0.89240E+04
 0.39720001E+02 -0.10652E+05
 0.39770000E+02 -0.11796E+05
 0.39820000E+02 -0.11701E+05
 0.39870003E+02 -0.10439E+05
 0.39920002E+02 -0.83480E+04
 0.39970001E+02 -0.56170E+04
 0.40020000E+02 -0.23250E+04
 0.40070000E+02  0.16160E+04
 0.40120003E+02  0.64140E+04
 0.40170002E+02  0.11929E+05
 0.40220001E+02  0.17742E+05
 0.40270000E+02  0.23563E+05
 0.40320000E+02  0.28881E+05
 0.40370003E+02  0.33328E+05
 0.40420002E+02  0.36458E+05
 0.40470001E+02  0.38275E+05
 0.40520000E+02  0.39686E+05
 0.40570000E+02  0.40836E+05
 0.40620003E+02  0.41394E+05
 0.40670002E+02  0.41205E+05
 0.40720001E+02  0.40477E+05
 0.40770000E+02  0.39806E+05
 0.40820000E+02  0.39385E+05
 0.40870003E+02  0.38837E+05
 0.40920002E+02  0.37702E+05
 0.40970001E+02  0.35776E+05
 0.41020000E+02  0.32953E+05
 0.41070000E+02  0.29411E+05
 0.41120003E+02  0.25511E+05
 0.41170002E+02  0.21480E+05
 0.41220001E+02  0.17121E+05
 0.41270000E+02  0.12183E+05
 0.41320000E+02  0.69320E+04
 0.41370003E+02  0.17140E+04
 0.41420002E+02 -0.36020E+04
 0.41470001E+02 -0.93330E+04
 0.41520000E+02 -0.15194E+05
 0.41570000E+02 -0.20298E+05
 0.41620003E+02 -0.24030E+05
 0.41670002E+02 -0.26332E+05
 0.41720001E+02 -0.27453E+05
 0.41770000E+02 -0.27811E+05
 0.41820000E+02 -0.27560E+05
 0.41870003E+02 -0.26857E+05
 0.41920002E+02 -0.25627E+05
 0.41970001E+02 -0.23851E+05
 0.42020000E+02 -0.21742E+05
 0.42070000E+02 -0.19115E+05
 0.42120003E+02 -0.16108E+05
 0.42170002E+02 -0.13239E+05
 0.42220001E+02 -0.11018E+05
 0.42270000E+02 -0.93040E+04
 0.42320000E+02 -0.77050E+04
 0.42370003E+02 -0.63510E+04
 0.42420002E+02 -0.52300E+04
 0.42470001E+02 -0.42690E+04
 0.42520000E+02 -0.34880E+04
 0.42570000E+02 -0.27710E+04
 0.42620003E+02 -0.22440E+04
 0.42670002E+02 -0.21010E+04
 0.42720001E+02 -0.20000E+04
 0.42770000E+02 -0.13920E+04
 0.42820000E+02 -0.46800E+03
 0.42870003E+02 -0.13600E+03
 0.42920002E+02 -0.71100E+03
 0.42970001E+02 -0.17820E+04
 0.43020000E+02 -0.28360E+04
 0.43070000E+02 -0.39520E+04
 0.43120003E+02 -0.55550E+04
 0.43170002E+02 -0.74940E+04
 0.43220001E+02 -0.94930E+04
 0.43270000E+02 -0.11495E+05
 0.43320000E+02 -0.13240E+05
 0.43370003E+02 -0.13886E+05
 0.43420002E+02 -0.13047E+05
 0.43470001E+02 -0.11075E+05
 0.43520000E+02 -0.85070E+04
 0.43570000E+02 -0.60150E+04
 0.43620003E+02 -0.38860E+04
 0.43670002E+02 -0.23590E+04
 0.43720001E+02 -0.14550E+04
 0.43770000E+02 -0.99600E+03
 0.43820000E+02 -0.10910E+04
 0.43870003E+02 -0.18630E+04
 0.43920002E+02 -0.30540E+04
 0.43970001E+02 -0.43450E+04
 0.44020000E+02 -0.62550E+04
 0.44070000E+02 -0.89570E+04
 0.44120003E+02 -0.11771E+05
 0.44170002E+02 -0.14279E+05
 0.44220001E+02 -0.16296E+05
 0.44270000E+02 -0.17746E+05
 0.44320000E+02 -0.18758E+05
 0.44370003E+02 -0.19360E+05
 0.44420002E+02 -0.19394E+05
 0.44470001E+02 -0.18961E+05
 0.44520000E+02 -0.18432E+05
 0.44570000E+02 -0.17947E+05
 0.44620003E+02 -0.17641E+05
 0.44670002E+02 -0.17616E+05
 0.44720001E+02 -0.17626E+05
 0.44770000E+02 -0.17248E+05
 0.44820000E+02 -0.16124E+05
 0.44870003E+02 -0.14784E+05
 0.44920002E+02 -0.13990E+05
 0.44970001E+02 -0.13718E+05
 0.45020000E+02 -0.13886E+05
 0.45070000E+02 -0.14832E+05
 0.45120003E+02 -0.16415E+05
 0.45170002E+02 -0.18013E+05
 0.45220001E+02 -0.19488E+05
 0.45270000E+02 -0.20827E+05
 0.45320000E+02 -0.21970E+05
 0.45370003E+02 -0.22517E+05
 0.45420002E+02 -0.22574E+05
 0.45470001E+02 -0.22670E+05
 0.45520000E+02 -0.22381E+05
 0.45570000E+02 -0.21642E+05
 0.45620003E+02 -0.20786E+05
 0.45670002E+02 -0.19596E+05
 0.45720001E+02 -0.17911E+05
 0.45770000E+02 -0.16044E+05
 0.45820000E+02 -0.14263E+05
 0.45870003E+02 -0.12843E+05
 0.45920002E+02 -0.11986E+05
 0.45970001E+02 -0.11307E+05
 0.46020000E+02 -0.10418E+05
 0.46070000E+02 -0.94610E+04
 0.46120003E+02 -0.84410E+04
 0.46170002E+02 -0.73990E+04
 0.46220001E+02 -0.56400E+04
 0.46270000E+02 -0.22710E+04
 0.46320000E+02  0.21860E+04
 0.46370003E+02  0.78440E+04
 0.46420002E+02  0.12880E+05
 0.46470001E+02  0.19095E+05
 0.46520000E+02  0.27899E+05
 0.46570000E+02  0.34428E+05
 0.46620003E+02  0.27680E+05
 0.46670002E+02  0.42850E+04
 0.46720001E+02 -0.11238E+05
 0.46770000E+02 -0.15700E+04
 0.46820000E+02  0.45050E+05
 0.46870003E+02  0.10734E+06
 0.46920002E+02  0.15528E+06
 0.46970001E+02  0.17068E+06
 0.47020000E+02  0.14303E+06
 0.47070000E+02  0.12940E+06
 0.47120003E+02  0.11884E+06
 0.47170002E+02  0.11471E+06
 0.47220001E+02  0.10952E+06
 0.47270000E+02  0.25691E+05
 0.47320000E+02 -0.50780E+05
 0.47370003E+02 -0.73113E+05
 0.47420002E+02 -0.66940E+05
 0.47470001E+02  0.15833E+05
 0.47520000E+02  0.96655E+05
 0.47570000E+02  0.11415E+06
 0.47620003E+02  0.12124E+06
 0.47670002E+02  0.93161E+05
 0.47720001E+02  0.44305E+05
 0.47770000E+02  0.24235E+05
 0.47820000E+02  0.91410E+04
 0.47870003E+02 -0.16460E+05
 0.47920002E+02  0.15630E+04
 0.47970001E+02  0.87500E+04
 0.48020000E+02 -0.20622E+05
 0.48070000E+02 -0.41860E+05
 0.48120003E+02 -0.49932E+05
 0.48170002E+02 -0.44890E+04
 0.48220001E+02 -0.31320E+04
 0.48270000E+02  0.19600E+03
 0.48320000E+02  0.34514E+05
 0.48370003E+02  0.28495E+05
 0.48420002E+02  0.11880E+05
 0.48470001E+02 -0.50384E+05
 0.48520000E+02 -0.62268E+05
 0.48570000E+02 -0.17977E+05
 0.48620003E+02 -0.23403E+05
 0.48670002E+02 -0.18733E+05
 0.48720001E+02  0.69260E+04
 0.48770000E+02  0.29171E+05
 0.48820000E+02  0.63449E+05
 0.48870003E+02  0.28992E+05
 0.48920002E+02  0.14271E+05
 0.48970001E+02  0.49433E+05
 0.49020000E+02  0.25886E+05
 0.49070000E+02  0.64276E+05
 0.49120003E+02  0.62249E+05
 0.49170002E+02  0.68990E+04
 0.49220001E+02  0.32210E+04
 0.49270000E+02 -0.26902E+05
 0.49320000E+02 -0.23876E+05
 0.49370003E+02 -0.23230E+04
 0.49420002E+02  0.22376E+05
 0.49470001E+02  0.41799E+05
 0.49520000E+02  0.34408E+05
 0.49570000E+02 -0.13985E+05
 0.49620003E+02 -0.76074E+05
 0.49670002E+02 -0.56110E+05
 0.49720001E+02 -0.29403E+05
 0.49770000E+02 -0.31900E+03
 0.49820000E+02  0.20194E+05
 0.49870003E+02 -0.16399E+05
 0.49920002E+02 -0.36687E+05
 0.49970001E+02 -0.65532E+05
 0.50020000E+02 -0.96990E+05
 0.50070000E+02 -0.85580E+05
 0.50120003E+02 -0.40279E+05
 0.50170002E+02  0.11870E+05
 0.50220001E+02  0.51055E+05
 0.50270000E+02  0.76765E+05
 0.50320000E+02  0.63058E+05
 0.50370003E+02  0.18140E+05
 0.50420002E+02 -0.19879E+05
 0.50470001E+02 -0.11314E+05
 0.50520000E+02 -0.52010E+04
 0.50570000E+02 -0.93200E+04
 0.50620003E+02  0.18728E+05
 0.50670002E+02  0.30749E+05
 0.50720001E+02  0.52969E+05
 0.50770000E+02  0.56593E+05
 0.50820000E+02  0.23892E+05
 0.50870003E+02  0.22191E+05
 0.50920002E+02  0.14686E+05
 0.50970001E+02  0.48860E+04
 0.51020000E+02 -0.57300E+03
 0.51070000E+02 -0.76530E+04
 0.51120003E+02  0.15670E+05
 0.51170002E+02  0.44768E+05
 0.51220001E+02  0.60623E+05
 0.51270000E+02  0.46616E+05
 0.51320000E+02  0.47668E+05
 0.51370003E+02  0.72204E+05
 0.51420002E+02  0.74666E+05
 0.51470001E+02  0.60545E+05
 0.51520000E+02  0.12475E+05
 0.51570000E+02 -0.28074E+05
 0.51620003E+02 -0.49166E+05
 0.51670002E+02 -0.43961E+05
 0.51720001E+02 -0.15512E+05
 0.51770000E+02  0.14243E+05
 0.51820000E+02  0.38138E+05
 0.51870003E+02  0.99510E+04
 0.51920002E+02 -0.29187E+05
 0.51970001E+02 -0.50065E+05
 0.52020000E+02 -0.47666E+05
 0.52070000E+02 -0.11803E+05
 0.52120003E+02  0.32742E+05
 0.52170002E+02  0.67784E+05
 0.52220001E+02  0.82530E+05
 0.52270000E+02  0.72166E+05
 0.52320000E+02  0.52528E+05
 0.52370003E+02  0.36720E+05
 0.52420002E+02  0.30176E+05
 0.52470001E+02  0.30472E+05
 0.52520000E+02  0.26223E+05
 0.52570000E+02  0.52007E+05
 0.52620003E+02  0.55601E+05
 0.52670002E+02  0.46415E+05
 0.52720001E+02  0.69070E+05
 0.52770000E+02  0.70967E+05
 0.52820000E+02  0.76736E+05
 0.52870003E+02  0.71355E+05
 0.52920002E+02  0.59358E+05
 0.52970001E+02  0.63977E+05
 0.53020000E+02  0.69715E+05
 0.53070000E+02  0.84682E+05
 0.53120003E+02  0.11216E+06
 0.53170002E+02  0.12454E+06
 0.53220001E+02  0.92951E+05
 0.53270000E+02  0.47584E+05
 0.53320000E+02  0.22211E+05
 0.53370003E+02  0.99370E+04
 0.53420002E+02 -0.41250E+04
 0.53470001E+02 -0.83900E+03
 0.53520000E+02  0.10354E+05
 0.53570000E+02  0.26647E+05
 0.53620003E+02  0.37946E+05
 0.53670002E+02  0.16944E+05
 0.53720001E+02  0.73200E+03
 0.53770000E+02 -0.61840E+04
 0.53820000E+02 -0.85160E+04
 0.53870003E+02  0.88410E+04
 0.53920002E+02  0.12821E+05
 0.53970001E+02  0.20320E+05
 0.54020000E+02  0.32999E+05
 0.54070000E+02  0.21997E+05
 0.54120003E+02  0.28767E+05
 0.54170002E+02  0.19821E+05
 0.54220001E+02 -0.15943E+05
 0.54270000E+02 -0.26649E+05
 0.54320000E+02 -0.26208E+05
 0.54370003E+02 -0.26190E+04
 0.54420002E+02  0.24101E+05
 0.54470001E+02  0.40270E+05
 0.54520000E+02  0.72397E+05
 0.54570000E+02  0.85203E+05
 0.54620003E+02  0.52703E+05
 0.54670002E+02 -0.38655E+05
 0.54720001E+02 -0.91552E+05
 0.54770000E+02 -0.17341E+05
 0.54820000E+02  0.72571E+05
 0.54870003E+02  0.76175E+05
 0.54920002E+02  0.18104E+05
 0.54970001E+02 -0.40670E+04
 0.55020000E+02  0.56900E+03
 0.55070000E+02  0.75880E+04
 0.55120003E+02  0.37420E+05
 0.55170002E+02  0.20555E+05
 0.55220001E+02  0.22690E+05
 0.55270000E+02  0.67582E+05
 0.55320000E+02  0.88806E+05
 0.55370003E+02  0.99589E+05
 0.55420002E+02  0.79468E+05
 0.55470001E+02  0.65812E+05
 0.55520000E+02  0.18043E+05
 0.55570000E+02 -0.47279E+05
 0.55620003E+02 -0.81883E+05
 0.55670002E+02 -0.14850E+06
 0.55720001E+02 -0.18452E+06
 0.55770000E+02 -0.17903E+06
 0.55820000E+02 -0.18302E+06
 0.55870003E+02 -0.16658E+06
 0.55920002E+02 -0.10261E+06
 0.55970001E+02 -0.11032E+05
 0.56020000E+02  0.93039E+05
 0.56070000E+02  0.15246E+06
 0.56120003E+02  0.14969E+06
 0.56170002E+02  0.12945E+06
 0.56220001E+02  0.45252E+05
 0.56270000E+02 -0.56003E+05
 0.56320000E+02 -0.93569E+05
 0.56370003E+02 -0.80673E+05
 0.56420002E+02 -0.31989E+05
 0.56470001E+02  0.22375E+05
 0.56520000E+02  0.69763E+05
 0.56570000E+02  0.75327E+05
 0.56620003E+02  0.58807E+05
 0.56670002E+02  0.36121E+05
 0.56720001E+02 -0.15557E+05
 0.56770000E+02 -0.39432E+05
 0.56820000E+02 -0.89087E+05
 0.56870003E+02 -0.13576E+06
 0.56920002E+02 -0.10578E+06
 0.56970001E+02 -0.50589E+05
 0.57020000E+02  0.29254E+05
 0.57070000E+02  0.99669E+05
 0.57120003E+02  0.18408E+06
 0.57170002E+02  0.20339E+06
 0.57220001E+02  0.96160E+05
 0.57270000E+02  0.65310E+04
 0.57320000E+02 -0.99239E+05
 0.57370003E+02 -0.17528E+06
 0.57420002E+02 -0.17174E+06
 0.57470001E+02 -0.17189E+06
 0.57520000E+02 -0.13671E+06
 0.57570000E+02 -0.16038E+06
 0.57620003E+02 -0.18990E+06
 0.57670002E+02 -0.15671E+06
 0.57720001E+02 -0.20864E+06
 0.57770000E+02 -0.20314E+06
 0.57820000E+02 -0.18906E+06
 0.57870003E+02 -0.18899E+06
 0.57920002E+02 -0.10756E+06
 0.57970001E+02 -0.14051E+06
 0.58020000E+02 -0.10734E+06
 0.58070000E+02 -0.78297E+05
 0.58120003E+02 -0.16153E+06
 0.58170002E+02 -0.11705E+06
 0.58220001E+02 -0.11705E+06
 0.58270000E+02 -0.15452E+06
 0.58320000E+02 -0.11561E+06
 0.58370003E+02 -0.13450E+06
 0.58420002E+02 -0.10704E+06
 0.58470001E+02  0.22964E+05
 0.58520000E+02  0.14559E+06
 0.58570000E+02  0.25369E+06
 0.58620003E+02  0.22445E+06
 0.58670002E+02  0.13985E+06
 0.58720001E+02  0.97300E+05
 0.58770000E+02 -0.50550E+04
 0.58820000E+02 -0.10349E+06
 0.58870003E+02 -0.15292E+06
 0.58920002E+02 -0.12954E+06
 0.58970001E+02 -0.91984E+05
 0.59020000E+02 -0.59292E+05
 0.59070000E+02  0.32993E+05
 0.59120003E+02  0.10029E+06
 0.59170002E+02  0.95882E+05
 0.59220001E+02  0.60039E+05
 0.59270000E+02  0.33524E+05
 0.59320000E+02  0.21741E+05
 0.59370003E+02  0.83860E+04
 0.59420002E+02  0.41320E+04
 0.59470001E+02 -0.32550E+05
 0.59520000E+02 -0.12596E+06
 0.59570000E+02 -0.17632E+06
 0.59620003E+02 -0.14389E+06
 0.59670002E+02 -0.11680E+06
 0.59720001E+02 -0.59057E+05
 0.59770000E+02  0.43396E+05
 0.59820000E+02  0.10090E+06
 0.59870003E+02  0.17579E+06
 0.59920002E+02  0.20195E+06
 0.59970001E+02  0.10283E+06
 0.60020000E+02 -0.23753E+05
 0.60070000E+02 -0.14542E+06
 0.60120003E+02 -0.16667E+06
 0.60170002E+02 -0.11278E+06
 0.60220001E+02 -0.21238E+05
 0.60270000E+02  0.10411E+06
 0.60320000E+02  0.13749E+06
 0.60370003E+02  0.18594E+06
 0.60420002E+02  0.28809E+06
 0.60470001E+02  0.38141E+06
 0.60520000E+02  0.46690E+06
 0.60570000E+02  0.51066E+06
 0.60620003E+02  0.51126E+06
 0.60670002E+02  0.40165E+06
 0.60720001E+02  0.22976E+06
 0.60770000E+02  0.51954E+05
 0.60820000E+02 -0.70333E+05
 0.60870003E+02 -0.68338E+05
 0.60920002E+02 -0.69410E+04
 0.60970001E+02  0.65537E+05
 0.61020000E+02  0.26910E+05
 0.61070004E+02 -0.71092E+05
 0.61119999E+02 -0.12734E+06
 0.61170002E+02 -0.16418E+06
 0.61220005E+02 -0.15026E+06
 0.61270000E+02 -0.13376E+06
 0.61320004E+02 -0.92579E+05
 0.61369999E+02 -0.61960E+05
 0.61420002E+02 -0.10461E+06
 0.61470005E+02 -0.19519E+06
 0.61520000E+02 -0.28152E+06
 0.61570004E+02 -0.28763E+06
 0.61619999E+02 -0.29244E+06
 0.61670002E+02 -0.25870E+06
 0.61720005E+02 -0.18151E+06
 0.61770000E+02 -0.18796E+06
 0.61820004E+02 -0.21231E+06
 0.61869999E+02 -0.19740E+06
 0.61920002E+02 -0.16832E+06
 0.61970005E+02 -0.14276E+06
 0.62020000E+02 -0.15774E+06
 0.62070004E+02 -0.17635E+06
 0.62119999E+02 -0.18119E+06
 0.62170002E+02 -0.22817E+06
 0.62220005E+02 -0.24891E+06
 0.62270000E+02 -0.22300E+06
 0.62320004E+02 -0.16696E+06
 0.62369999E+02 -0.78301E+05
 0.62420002E+02  0.15436E+05
 0.62470005E+02  0.79894E+05
 0.62520000E+02  0.63853E+05
 0.62570004E+02  0.36680E+05
 0.62619999E+02 -0.24730E+04
 0.62670002E+02 -0.43261E+05
 0.62720005E+02 -0.56727E+05
 0.62770000E+02 -0.24634E+05
 0.62820004E+02  0.11558E+06
 0.62869999E+02  0.26752E+06
 0.62920002E+02  0.33061E+06
 0.62970005E+02  0.23788E+06
 0.63020000E+02  0.85455E+05
 0.63070004E+02 -0.16480E+05
 0.63119999E+02 -0.82806E+05
 0.63170002E+02 -0.11490E+06
 0.63220005E+02 -0.19158E+06
 0.63270000E+02 -0.27310E+06
 0.63320004E+02 -0.32106E+06
 0.63369999E+02 -0.38939E+06
 0.63420002E+02 -0.42341E+06
 0.63470005E+02 -0.37113E+06
 0.63520000E+02 -0.27103E+06
 0.63570004E+02 -0.17896E+06
 0.63619999E+02 -0.14269E+06
 0.63670002E+02 -0.19144E+06
 0.63720005E+02 -0.23331E+06
 0.63770000E+02 -0.16639E+06
 0.63820004E+02 -0.50691E+05
 0.63869999E+02  0.34741E+05
 0.63920002E+02  0.62109E+05
 0.63970005E+02  0.49409E+05
 0.64019997E+02 -0.82480E+04
 0.64070000E+02 -0.15470E+06
 0.64119995E+02 -0.27660E+06
 0.64169998E+02 -0.31381E+06
 0.64220001E+02 -0.29375E+06
 0.64269997E+02 -0.22161E+06
 0.64320000E+02 -0.21563E+06
 0.64369995E+02 -0.24470E+06
 0.64419998E+02 -0.18343E+06
 0.64470001E+02 -0.84483E+05
 0.64519997E+02 -0.38689E+05
 0.64570000E+02 -0.33029E+05
 0.64619995E+02 -0.16042E+05
 0.64669998E+02 -0.13868E+05
 0.64720001E+02 -0.25812E+05
 0.64769997E+02 -0.13536E+05
 0.64820000E+02  0.34048E+05
 0.64869995E+02  0.59643E+05
 0.64919998E+02  0.14113E+05
 0.64970001E+02 -0.24880E+05
 0.65019997E+02 -0.35146E+05
 0.65070000E+02 -0.16980E+05
 0.65119995E+02  0.48933E+05
 0.65169998E+02  0.10044E+06
 0.65220001E+02  0.11340E+06
 0.65269997E+02  0.14089E+06
 0.65320000E+02  0.15226E+06
 0.65369995E+02  0.12718E+06
 0.65419998E+02  0.11242E+06
 0.65470001E+02  0.94186E+05
 0.65519997E+02  0.12232E+06
 0.65570000E+02  0.15124E+06
 0.65619995E+02  0.14263E+06
 0.65669998E+02  0.15811E+06
 0.65720001E+02  0.12518E+06
 0.65769997E+02  0.48809E+05
 0.65820000E+02  0.17774E+05
 0.65869995E+02  0.26297E+05
 0.65919998E+02  0.56689E+05
 0.65970001E+02  0.10812E+06
 0.66019997E+02  0.90880E+05
 0.66070000E+02  0.37487E+05
 0.66119995E+02 -0.72490E+04
 0.66169998E+02 -0.66384E+05
 0.66220001E+02 -0.72763E+05
 0.66269997E+02 -0.60109E+05
 0.66320000E+02 -0.29505E+05
 0.66369995E+02  0.25771E+05
 0.66419998E+02  0.32070E+05
 0.66470001E+02  0.12238E+05
 0.66519997E+02  0.40120E+05
 0.66570000E+02  0.89675E+05
 0.66619995E+02  0.86019E+05
 0.66669998E+02  0.27437E+05
 0.66720001E+02 -0.13970E+04
 0.66769997E+02  0.38567E+05
 0.66820000E+02  0.66102E+05
 0.66869995E+02  0.74859E+05
 0.66919998E+02  0.10100E+06
 0.66970001E+02  0.12551E+06
 0.67019997E+02  0.11887E+06
 0.67070000E+02  0.49182E+05
 0.67119995E+02 -0.71566E+05
 0.67169998E+02 -0.19527E+06
 0.67220001E+02 -0.25627E+06
 0.67269997E+02 -0.21764E+06
 0.67320000E+02 -0.11645E+06
 0.67369995E+02 -0.15009E+05
 0.67419998E+02  0.37630E+05
 0.67470001E+02  0.43267E+05
 0.67519997E+02  0.54297E+05
 0.67570000E+02  0.41794E+05
 0.67619995E+02 -0.21260E+05
 0.67669998E+02 -0.10575E+06
 0.67720001E+02 -0.16952E+06
 0.67769997E+02 -0.14650E+06
 0.67820000E+02 -0.10812E+06
 0.67869995E+02 -0.92950E+05
 0.67919998E+02 -0.52090E+05
 0.67970001E+02  0.91650E+04
 0.68019997E+02  0.81281E+05
 0.68070000E+02  0.11289E+06
 0.68119995E+02  0.68886E+05
 0.68169998E+02 -0.17033E+05
 0.68220001E+02 -0.69296E+05
 0.68269997E+02 -0.31497E+05
 0.68320000E+02  0.68923E+05
 0.68369995E+02  0.12773E+06
 0.68419998E+02  0.73194E+05
 0.68470001E+02 -0.31608E+05
 0.68519997E+02 -0.11889E+06
 0.68570000E+02 -0.18668E+06
 0.68619995E+02 -0.22369E+06
 0.68669998E+02 -0.22472E+06
 0.68720001E+02 -0.19923E+06
 0.68769997E+02 -0.14777E+06
 0.68820000E+02 -0.10021E+06
 0.68869995E+02 -0.95467E+05
 0.68919998E+02 -0.87112E+05
 0.68970001E+02 -0.39477E+05
 0.69019997E+02  0.95830E+04
 0.69070000E+02  0.38331E+05
 0.69119995E+02  0.36645E+05
 0.69169998E+02 -0.11430E+04
 0.69220001E+02 -0.33143E+05
 0.69269997E+02 -0.28964E+05
 0.69320000E+02  0.14983E+05
 0.69369995E+02  0.10230E+06
 0.69419998E+02  0.17144E+06
 0.69470001E+02  0.19684E+06
 0.69519997E+02  0.17236E+06
 0.69570000E+02  0.10681E+06
 0.69619995E+02  0.78663E+05
 0.69669998E+02  0.71243E+05
 0.69720001E+02  0.88009E+05
 0.69769997E+02  0.14059E+06
 0.69820000E+02  0.16491E+06
 0.69869995E+02  0.16980E+06
 0.69919998E+02  0.15770E+06
 0.69970001E+02  0.12536E+06
 0.70019997E+02  0.87904E+05
 0.70070000E+02  0.47254E+05
 0.70119995E+02  0.18919E+05
 0.70169998E+02  0.12745E+05
 0.70220001E+02  0.46444E+05
 0.70269997E+02  0.10122E+06
 0.70320000E+02  0.10856E+06
 0.70369995E+02  0.62036E+05
 0.70419998E+02  0.14967E+05
 0.70470001E+02 -0.30322E+05
 0.70519997E+02 -0.24377E+05
 0.70570000E+02  0.55545E+05
 0.70619995E+02  0.11944E+06
 0.70669998E+02  0.15013E+06
 0.70720001E+02  0.12104E+06
 0.70769997E+02  0.23997E+05
 0.70820000E+02 -0.79008E+05
 0.70869995E+02 -0.14213E+06
 0.70919998E+02 -0.14302E+06
 0.70970001E+02 -0.12547E+06
 0.71019997E+02 -0.97065E+05
 0.71070000E+02 -0.72048E+05
 0.71119995E+02 -0.76472E+05
 0.71169998E+02 -0.88836E+05
 0.71220001E+02 -0.10871E+06
 0.71269997E+02 -0.99779E+05
 0.71320000E+02 -0.69029E+05
 0.71369995E+02 -0.31587E+05
 0.71419998E+02  0.28959E+05
 0.71470001E+02  0.69750E+05
 0.71519997E+02  0.79162E+05
 0.71570000E+02  0.56373E+05
 0.71619995E+02  0.13238E+05
 0.71669998E+02  0.10169E+05
 0.71720001E+02  0.57478E+05
 0.71769997E+02  0.10925E+06
 0.71820000E+02  0.13464E+06
 0.71869995E+02  0.13630E+06
 0.71919998E+02  0.13200E+06
 0.71970001E+02  0.11846E+06
 0.72019997E+02  0.83670E+05
 0.72070000E+02  0.72407E+05
 0.72119995E+02  0.77421E+05
 0.72169998E+02  0.65537E+05
 0.72220001E+02  0.79757E+05
 0.72269997E+02  0.72542E+05
 0.72320000E+02  0.36132E+05
 0.72369995E+02  0.32311E+05
 0.72419998E+02  0.28134E+05
 0.72470001E+02  0.43533E+05
 0.72519997E+02  0.89316E+05
 0.72570000E+02  0.14681E+06
 0.72619995E+02  0.21212E+06
 0.72669998E+02  0.24076E+06
 0.72720001E+02  0.25979E+06
 0.72769997E+02  0.25951E+06
 0.72820000E+02  0.21294E+06
 0.72869995E+02  0.18213E+06
 0.72919998E+02  0.17176E+06
 0.72970001E+02  0.20083E+06
 0.73019997E+02  0.23914E+06
 0.73070000E+02  0.21103E+06
 0.73119995E+02  0.16177E+06
 0.73169998E+02  0.98232E+05
 0.73220001E+02  0.47334E+05
 0.73269997E+02  0.20272E+05
 0.73320000E+02 -0.35236E+05
 0.73369995E+02 -0.48141E+05
 0.73419998E+02 -0.35510E+04
 0.73470001E+02  0.54321E+05
 0.73519997E+02  0.94437E+05
 0.73570000E+02  0.99512E+05
 0.73619995E+02  0.76988E+05
 0.73669998E+02  0.89760E+04
 0.73720001E+02 -0.65650E+05
 0.73769997E+02 -0.14459E+06
 0.73820000E+02 -0.19860E+06
 0.73869995E+02 -0.18806E+06
 0.73919998E+02 -0.14835E+06
 0.73970001E+02 -0.96248E+05
 0.74019997E+02 -0.67956E+05
 0.74070000E+02 -0.44158E+05
 0.74119995E+02 -0.14466E+05
 0.74169998E+02  0.33127E+05
 0.74220001E+02  0.10867E+06
 0.74269997E+02  0.13703E+06
 0.74320000E+02  0.14853E+06
 0.74369995E+02  0.18407E+06
 0.74419998E+02  0.20596E+06
 0.74470001E+02  0.18875E+06
 0.74519997E+02  0.11398E+06
 0.74570000E+02  0.37480E+04
 0.74619995E+02 -0.73931E+05
 0.74669998E+02 -0.88272E+05
 0.74720001E+02 -0.50723E+05
 0.74769997E+02  0.47464E+05
 0.74820000E+02  0.14930E+06
 0.74869995E+02  0.20544E+06
 0.74919998E+02  0.21750E+06
 0.74970001E+02  0.18804E+06
 0.75019997E+02  0.18560E+06
 0.75070000E+02  0.18390E+06
 0.75119995E+02  0.13488E+06
 0.75169998E+02  0.10186E+06
 0.75220001E+02  0.90342E+05
 0.75269997E+02  0.86605E+05
 0.75320000E+02  0.87249E+05
 0.75369995E+02  0.40851E+05
 0.75419998E+02 -0.52389E+05
 0.75470001E+02 -0.11097E+06
 0.75519997E+02 -0.12861E+06
 0.75570000E+02 -0.15189E+06
 0.75619995E+02 -0.14666E+06
 0.75669998E+02 -0.11315E+06
 0.75720001E+02 -0.90496E+05
 0.75769997E+02 -0.70765E+05
 0.75820000E+02 -0.64882E+05
 0.75869995E+02 -0.61685E+05
 0.75919998E+02 -0.62212E+05
 0.75970001E+02 -0.73330E+05
 0.76019997E+02 -0.48088E+05
 0.76070000E+02 -0.97800E+04
 0.76119995E+02 -0.94490E+04
 0.76169998E+02 -0.27354E+05
 0.76220001E+02 -0.26579E+05
 0.76269997E+02 -0.36447E+05
 0.76320000E+02 -0.33953E+05
 0.76369995E+02  0.16591E+05
 0.76419998E+02  0.75726E+05
 0.76470001E+02  0.17002E+06
 0.76519997E+02  0.25523E+06
 0.76570000E+02  0.29440E+06
 0.76619995E+02  0.28774E+06
 0.76669998E+02  0.20331E+06
 0.76720001E+02  0.11899E+06
 0.76769997E+02  0.62803E+05
 0.76820000E+02  0.25240E+04
 0.76869995E+02 -0.58178E+05
 0.76919998E+02 -0.10657E+06
 0.76970001E+02 -0.13156E+06
 0.77019997E+02 -0.14330E+06
 0.77070000E+02 -0.13222E+06
 0.77119995E+02 -0.80062E+05
 0.77169998E+02 -0.36018E+05
 0.77220001E+02 -0.40644E+05
 0.77269997E+02 -0.76493E+05
 0.77320000E+02 -0.12272E+06
 0.77369995E+02 -0.13376E+06
 0.77419998E+02 -0.97995E+05
 0.77470001E+02 -0.46719E+05
 0.77519997E+02 -0.32474E+05
 0.77570000E+02 -0.58574E+05
 0.77619995E+02 -0.86407E+05
 0.77669998E+02 -0.12039E+06
 0.77720001E+02 -0.13361E+06
 0.77769997E+02 -0.10475E+06
 0.77820000E+02 -0.43145E+05
 0.77869995E+02  0.16510E+04
 0.77919998E+02  0.21522E+05
 0.77970001E+02  0.70898E+05
 0.78019997E+02  0.92764E+05
 0.78070000E+02  0.68068E+05
 0.78119995E+02  0.58055E+05
 0.78169998E+02  0.33631E+05
 0.78220001E+02 -0.45067E+05
 0.78269997E+02 -0.14933E+06
 0.78320000E+02 -0.21322E+06
 0.78369995E+02 -0.23405E+06
 0.78419998E+02 -0.22329E+06
 0.78470001E+02 -0.18129E+06
 0.78519997E+02 -0.14159E+06
 0.78570000E+02 -0.79394E+05
 0.78619995E+02 -0.45190E+04
 0.78669998E+02  0.38393E+05
 0.78720001E+02  0.25363E+05
 0.78769997E+02  0.15870E+04
 0.78820000E+02  0.19311E+05
 0.78869995E+02  0.51399E+05
 0.78919998E+02  0.81660E+05
 0.78970001E+02  0.63416E+05
 0.79019997E+02  0.51160E+04
 0.79070000E+02 -0.53546E+05
 0.79119995E+02 -0.66769E+05
 0.79169998E+02 -0.63149E+05
 0.79220001E+02 -0.99958E+05
 0.79269997E+02 -0.93166E+05
 0.79320000E+02 -0.49916E+05
 0.79369995E+02  0.88040E+04
 0.79419998E+02  0.11644E+06
 0.79470001E+02  0.23827E+06
 0.79519997E+02  0.31185E+06
 0.79570000E+02  0.33929E+06
 0.79619995E+02  0.32641E+06
 0.79669998E+02  0.26665E+06
 0.79720001E+02  0.18047E+06
 0.79769997E+02  0.44858E+05
 0.79820000E+02 -0.71881E+05
 0.79869995E+02 -0.14658E+06
 0.79919998E+02 -0.22379E+06
 0.79970001E+02 -0.26686E+06
 0.80019997E+02 -0.25083E+06
 0.80070000E+02 -0.16122E+06
 0.80119995E+02 -0.29132E+05
 0.80169998E+02  0.48898E+05
 0.80220001E+02  0.62362E+05
 0.80269997E+02  0.90653E+05
 0.80320000E+02  0.13338E+06
 0.80369995E+02  0.21783E+06
 0.80419998E+02  0.31296E+06
 0.80470001E+02  0.29715E+06
 0.80519997E+02  0.20397E+06
 0.80570000E+02  0.68529E+05
 0.80619995E+02 -0.72323E+05
 0.80669998E+02 -0.18400E+06
 0.80720001E+02 -0.30609E+06
 0.80769997E+02 -0.36449E+06
 0.80820000E+02 -0.29933E+06
 0.80869995E+02 -0.15070E+06
 0.80919998E+02 -0.41119E+05
 0.80970001E+02  0.26549E+05
 0.81019997E+02  0.17097E+06
 0.81070000E+02  0.20959E+06
 0.81119995E+02  0.13927E+06
 0.81169998E+02  0.63059E+05
 0.81220001E+02 -0.36233E+05
 0.81269997E+02 -0.24579E+05
 0.81320000E+02 -0.26908E+05
 0.81369995E+02 -0.13276E+06
 0.81419998E+02 -0.24998E+06
 0.81470001E+02 -0.29049E+06
 0.81519997E+02 -0.25090E+06
 0.81570000E+02 -0.22499E+06
 0.81619995E+02 -0.24614E+06
 0.81669998E+02 -0.30802E+06
 0.81720001E+02 -0.31216E+06
 0.81769997E+02 -0.25042E+06
 0.81820000E+02 -0.59796E+05
 0.81869995E+02  0.18395E+06
 0.81919998E+02  0.32258E+06
 0.81970001E+02  0.38068E+06
 0.82019997E+02  0.32136E+06
 0.82070000E+02  0.21760E+06
 0.82119995E+02  0.82534E+05
 0.82169998E+02 -0.24654E+05
 0.82220001E+02 -0.82119E+05
 0.82269997E+02 -0.17633E+06
 0.82320000E+02 -0.14164E+06
 0.82369995E+02  0.61560E+04
 0.82419998E+02  0.10608E+06
 0.82470001E+02  0.11258E+06
 0.82519997E+02 -0.34640E+04
 0.82570000E+02 -0.11567E+06
 0.82619995E+02 -0.10280E+06
 0.82669998E+02 -0.56847E+05
 0.82720001E+02 -0.42797E+05
 0.82769997E+02 -0.37047E+05
 0.82820000E+02  0.32153E+05
 0.82869995E+02  0.12900E+06
 0.82919998E+02  0.46322E+05
 0.82970001E+02 -0.12992E+06
 0.83019997E+02 -0.23784E+06
 0.83070000E+02 -0.26956E+06
 0.83119995E+02 -0.19749E+06
 0.83169998E+02 -0.98418E+05
 0.83220001E+02 -0.76800E+03
 0.83269997E+02  0.20601E+05
 0.83320000E+02 -0.85195E+05
 0.83369995E+02 -0.13218E+06
 0.83419998E+02 -0.12139E+06
 0.83470001E+02 -0.16972E+06
 0.83519997E+02 -0.23042E+06
 0.83570000E+02 -0.24924E+06
 0.83619995E+02 -0.21737E+06
 0.83669998E+02 -0.10713E+06
 0.83720001E+02  0.29197E+05
 0.83769997E+02  0.53720E+05
 0.83820000E+02  0.50941E+05
 0.83869995E+02  0.10691E+06
 0.83919998E+02  0.16945E+06
 0.83970001E+02  0.24545E+06
 0.84019997E+02  0.23843E+06
 0.84070000E+02  0.16007E+06
 0.84119995E+02  0.14630E+06
 0.84169998E+02  0.19033E+06
 0.84220001E+02  0.26493E+06
 0.84269997E+02  0.30307E+06
 0.84320000E+02  0.24654E+06
 0.84369995E+02  0.16375E+06
 0.84419998E+02  0.12840E+06
 0.84470001E+02  0.15392E+06
 0.84519997E+02  0.16982E+06
 0.84570000E+02  0.57854E+05
 0.84619995E+02 -0.10700E+06
 0.84669998E+02 -0.16817E+06
 0.84720001E+02 -0.21212E+06
 0.84769997E+02 -0.22842E+06
 0.84820000E+02 -0.13838E+06
 0.84869995E+02 -0.77302E+05
 0.84919998E+02 -0.86505E+05
 0.84970001E+02 -0.12245E+06
 0.85019997E+02 -0.18040E+06
 0.85070000E+02 -0.21100E+06
 0.85119995E+02 -0.17040E+06
 0.85169998E+02 -0.17659E+06
 0.85220001E+02 -0.19533E+06
 0.85269997E+02 -0.14601E+06
 0.85320000E+02 -0.13229E+06
 0.85369995E+02 -0.72215E+05
 0.85419998E+02 -0.45319E+05
 0.85470001E+02 -0.14653E+06
 0.85519997E+02 -0.19938E+06
 0.85570000E+02 -0.15370E+06
 0.85619995E+02 -0.12078E+06
 0.85669998E+02 -0.14790E+06
 0.85720001E+02 -0.10103E+06
 0.85769997E+02  0.10793E+05
 0.85820000E+02  0.79695E+05
 0.85869995E+02  0.10415E+06
 0.85919998E+02  0.10719E+06
 0.85970001E+02  0.10933E+06
 0.86019997E+02  0.85381E+05
 0.86070000E+02  0.69601E+05
 0.86119995E+02  0.66766E+05
 0.86169998E+02  0.71581E+05
 0.86220001E+02  0.11814E+06
 0.86269997E+02  0.16893E+06
 0.86320000E+02  0.21301E+06
 0.86369995E+02  0.24833E+06
 0.86419998E+02  0.25055E+06
 0.86470001E+02  0.25105E+06
 0.86519997E+02  0.26332E+06
 0.86570000E+02  0.23006E+06
 0.86619995E+02  0.17021E+06
 0.86669998E+02  0.91097E+05
 0.86720001E+02 -0.15733E+05
 0.86769997E+02 -0.74591E+05
 0.86820000E+02 -0.81910E+05
 0.86869995E+02 -0.98004E+05
 0.86919998E+02 -0.10373E+06
 0.86970001E+02 -0.72299E+05
 0.87019997E+02 -0.69971E+05
 0.87070000E+02 -0.12199E+06
 0.87119995E+02 -0.18866E+06
 0.87169998E+02 -0.24174E+06
 0.87220001E+02 -0.24542E+06
 0.87269997E+02 -0.20067E+06
 0.87320000E+02 -0.17197E+06
 0.87369995E+02 -0.18044E+06
 0.87419998E+02 -0.22250E+06
 0.87470001E+02 -0.22314E+06
 0.87519997E+02 -0.17476E+06
 0.87570000E+02 -0.18456E+06
 0.87619995E+02 -0.20368E+06
 0.87669998E+02 -0.17424E+06
 0.87720001E+02 -0.73728E+05
 0.87769997E+02  0.49791E+05
 0.87820000E+02  0.10243E+06
 0.87869995E+02  0.86963E+05
 0.87919998E+02  0.65287E+05
 0.87970001E+02  0.64013E+05
 0.88019997E+02  0.39218E+05
 0.88070000E+02  0.24676E+05
 0.88119995E+02  0.45001E+05
 0.88169998E+02  0.11660E+06
 0.88220001E+02  0.22134E+06
 0.88269997E+02  0.28672E+06
 0.88320000E+02  0.31082E+06
 0.88369995E+02  0.29081E+06
 0.88419998E+02  0.23157E+06
 0.88470001E+02  0.16358E+06
 0.88519997E+02  0.84671E+05
 0.88570000E+02 -0.24796E+05
 0.88619995E+02 -0.10612E+06
 0.88669998E+02 -0.11127E+06
 0.88720001E+02 -0.80249E+05
 0.88769997E+02 -0.38274E+05
 0.88820000E+02  0.41144E+05
 0.88869995E+02  0.11179E+06
 0.88919998E+02  0.12635E+06
 0.88970001E+02  0.96335E+05
 0.89019997E+02  0.34710E+05
 0.89070000E+02  0.14699E+05
 0.89119995E+02 -0.16182E+05
 0.89169998E+02 -0.78063E+05
 0.89220001E+02 -0.59550E+05
 0.89269997E+02  0.32486E+05
 0.89320000E+02  0.13467E+06
 0.89369995E+02  0.20621E+06
 0.89419998E+02  0.23627E+06
 0.89470001E+02  0.21394E+06
 0.89519997E+02  0.14255E+06
 0.89570000E+02  0.69175E+05
 0.89619995E+02  0.31099E+05
 0.89669998E+02  0.54730E+04
 0.89720001E+02 -0.20960E+04
 0.89769997E+02  0.72783E+05
 0.89820000E+02  0.19752E+06
 0.89869995E+02  0.27621E+06
 0.89919998E+02  0.30083E+06
 0.89970001E+02  0.30732E+06
 0.90019997E+02  0.26369E+06
 0.90070000E+02  0.15290E+06
 0.90119995E+02  0.87207E+05
 0.90169998E+02  0.64020E+05
 0.90220001E+02 -0.32876E+05
 0.90269997E+02 -0.10039E+06
 0.90320000E+02 -0.88791E+05
 0.90369995E+02 -0.64497E+05
 0.90419998E+02 -0.24126E+05
 0.90470001E+02 -0.44150E+04
 0.90519997E+02 -0.16714E+05
 0.90570000E+02 -0.53766E+05
 0.90619995E+02 -0.84138E+05
 0.90669998E+02 -0.87607E+05
 0.90720001E+02 -0.94026E+05
 0.90769997E+02 -0.10001E+06
 0.90820000E+02 -0.78905E+05
 0.90869995E+02 -0.15001E+05
 0.90919998E+02  0.73926E+05
 0.90970001E+02  0.16578E+06
 0.91019997E+02  0.20230E+06
 0.91070000E+02  0.11537E+06
 0.91119995E+02 -0.18451E+05
 0.91169998E+02 -0.12164E+06
 0.91220001E+02 -0.17076E+06
 0.91269997E+02 -0.13356E+06
 0.91320000E+02 -0.94305E+05
 0.91369995E+02 -0.10055E+06
 0.91419998E+02 -0.14691E+06
 0.91470001E+02 -0.19631E+06
 0.91519997E+02 -0.16703E+06
 0.91570000E+02 -0.83706E+05
 0.91619995E+02 -0.25042E+05
 0.91669998E+02 -0.40505E+05
 0.91720001E+02 -0.80698E+05
 0.91769997E+02 -0.12826E+06
 0.91820000E+02 -0.21035E+06
 0.91869995E+02 -0.27042E+06
 0.91919998E+02 -0.26245E+06
 0.91970001E+02 -0.20711E+06
 0.92019997E+02 -0.13571E+06
 0.92070000E+02 -0.66855E+05
 0.92119995E+02 -0.38703E+05
 0.92169998E+02 -0.21421E+05
 0.92220001E+02 -0.18816E+05
 0.92269997E+02 -0.21450E+05
 0.92320000E+02 -0.96600E+03
 0.92369995E+02 -0.21229E+05
 0.92419998E+02 -0.49681E+05
 0.92470001E+02 -0.84627E+05
 0.92519997E+02 -0.62690E+05
 0.92570000E+02  0.71504E+05
 0.92619995E+02  0.14105E+06
 0.92669998E+02  0.17026E+06
 0.92720001E+02  0.26100E+06
 0.92769997E+02  0.26751E+06
 0.92820000E+02  0.20498E+06
 0.92869995E+02  0.18789E+06
 0.92919998E+02  0.14750E+06
 0.92970001E+02  0.95647E+05
 0.93019997E+02  0.25387E+05
 0.93070000E+02 -0.85218E+05
 0.93119995E+02 -0.12480E+06
 0.93169998E+02 -0.98376E+05
 0.93220001E+02 -0.72504E+05
 0.93269997E+02 -0.53411E+05
 0.93320000E+02 -0.62517E+05
 0.93369995E+02 -0.10706E+06
 0.93419998E+02 -0.12823E+06
 0.93470001E+02 -0.12455E+06
 0.93519997E+02 -0.13835E+06
 0.93570000E+02 -0.15461E+06
 0.93619995E+02 -0.17469E+06
 0.93669998E+02 -0.18978E+06
 0.93720001E+02 -0.20162E+06
 0.93769997E+02 -0.21255E+06
 0.93820000E+02 -0.24442E+06
 0.93869995E+02 -0.33877E+06
 0.93919998E+02 -0.44802E+06
 0.93970001E+02 -0.49473E+06
 0.94019997E+02 -0.39534E+06
 0.94070000E+02 -0.20699E+06
 0.94119995E+02 -0.95308E+05
 0.94169998E+02 -0.53117E+05
 0.94220001E+02 -0.15544E+05
 0.94269997E+02 -0.10475E+05
 0.94320000E+02 -0.46769E+05
 0.94369995E+02 -0.97613E+05
 0.94419998E+02 -0.12205E+06
 0.94470001E+02 -0.77171E+05
 0.94519997E+02 -0.36340E+05
 0.94570000E+02  0.33870E+04
 0.94619995E+02  0.94021E+05
 0.94669998E+02  0.17569E+06
 0.94720001E+02  0.25414E+06
 0.94769997E+02  0.27514E+06
 0.94820000E+02  0.23541E+06
 0.94869995E+02  0.17655E+06
 0.94919998E+02  0.12977E+06
 0.94970001E+02  0.22047E+06
 0.95019997E+02  0.34125E+06
 0.95070000E+02  0.34538E+06
 0.95119995E+02  0.27232E+06
 0.95169998E+02  0.17104E+06
 0.95220001E+02  0.38073E+05
 0.95269997E+02 -0.10531E+06
 0.95320000E+02 -0.20446E+06
 0.95369995E+02 -0.26643E+06
 0.95419998E+02 -0.22809E+06
 0.95470001E+02 -0.11007E+06
 0.95519997E+02 -0.45099E+05
 0.95570000E+02 -0.50650E+05
 0.95619995E+02 -0.12839E+06
 0.95669998E+02 -0.23541E+06
 0.95720001E+02 -0.28166E+06
 0.95769997E+02 -0.26229E+06
 0.95820000E+02 -0.23501E+06
 0.95869995E+02 -0.17895E+06
 0.95919998E+02 -0.70261E+05
 0.95970001E+02  0.22203E+05
 0.96019997E+02  0.95597E+05
 0.96070000E+02  0.17536E+06
 0.96119995E+02  0.21539E+06
 0.96169998E+02  0.13810E+06
 0.96220001E+02  0.42457E+05
 0.96269997E+02  0.68589E+05
 0.96320000E+02  0.14950E+06
 0.96369995E+02  0.21452E+06
 0.96419998E+02  0.22861E+06
 0.96470001E+02  0.25520E+06
 0.96519997E+02  0.29264E+06
 0.96570000E+02  0.24271E+06
 0.96619995E+02  0.20760E+06
 0.96669998E+02  0.19922E+06
 0.96720001E+02  0.16293E+06
 0.96769997E+02  0.14508E+06
 0.96820000E+02  0.96193E+05
 0.96869995E+02  0.19014E+05
 0.96919998E+02 -0.11270E+05
 0.96970001E+02  0.17754E+05
 0.97019997E+02  0.11369E+06
 0.97070000E+02  0.22041E+06
 0.97119995E+02  0.25186E+06
 0.97169998E+02  0.22469E+06
 0.97220001E+02  0.17628E+06
 0.97269997E+02  0.10967E+06
 0.97320000E+02  0.25049E+05
 0.97369995E+02 -0.83310E+04
 0.97419998E+02  0.11591E+06
 0.97470001E+02  0.31466E+06
 0.97519997E+02  0.43334E+06
 0.97570000E+02  0.42772E+06
 0.97619995E+02  0.28750E+06
 0.97669998E+02  0.10012E+06
 0.97720001E+02 -0.29247E+05
 0.97769997E+02 -0.12554E+06
 0.97820000E+02 -0.20164E+06
 0.97869995E+02 -0.22394E+06
 0.97919998E+02 -0.19935E+06
 0.97970001E+02 -0.15956E+06
 0.98019997E+02 -0.17152E+06
 0.98070000E+02 -0.27801E+06
 0.98119995E+02 -0.40900E+06
 0.98169998E+02 -0.49908E+06
 0.98220001E+02 -0.50837E+06
 0.98269997E+02 -0.37714E+06
 0.98320000E+02 -0.12976E+06
 0.98369995E+02  0.11518E+06
 0.98419998E+02  0.24402E+06
 0.98470001E+02  0.28932E+06
 0.98519997E+02  0.33128E+06
 0.98570000E+02  0.36355E+06
 0.98619995E+02  0.38511E+06
 0.98669998E+02  0.41083E+06
 0.98720001E+02  0.41684E+06
 0.98769997E+02  0.37761E+06
 0.98820000E+02  0.33808E+06
 0.98869995E+02  0.29846E+06
 0.98919998E+02  0.19752E+06
 0.98970001E+02  0.76781E+05
 0.99019997E+02  0.28023E+05
 0.99070000E+02  0.32527E+05
 0.99119995E+02  0.30503E+05
 0.99169998E+02  0.81740E+04
 0.99220001E+02 -0.90496E+05
 0.99269997E+02 -0.24183E+06
 0.99320000E+02 -0.27826E+06
 0.99369995E+02 -0.19235E+06
 0.99419998E+02 -0.10489E+06
 0.99470001E+02 -0.40494E+05
 0.99519997E+02 -0.24149E+05
 0.99570000E+02 -0.62872E+05
 0.99619995E+02 -0.14206E+06
 0.99669998E+02 -0.23715E+06
 0.99720001E+02 -0.27370E+06
 0.99769997E+02 -0.25626E+06
 0.99820000E+02 -0.22052E+06
 0.99869995E+02 -0.16224E+06
 0.99919998E+02 -0.12643E+06
 0.99970001E+02 -0.14162E+06
 0.10002000E+03 -0.18392E+06
 0.10007000E+03 -0.26675E+06
 0.10012000E+03 -0.38604E+06
 0.10017000E+03 -0.49419E+06
 0.10022000E+03 -0.55890E+06
 0.10027000E+03 -0.55782E+06
 0.10032000E+03 -0.49227E+06
 0.10037000E+03 -0.41158E+06
 0.10042000E+03 -0.29283E+06
 0.10047000E+03 -0.84744E+05
 0.10052000E+03  0.10358E+06
 0.10057000E+03  0.17576E+06
 0.10062000E+03  0.16575E+06
 0.10067000E+03  0.13648E+06
 0.10072000E+03  0.13681E+06
 0.10077000E+03  0.18132E+06
 0.10082000E+03  0.24836E+06
 0.10087000E+03  0.26993E+06
 0.10092000E+03  0.25371E+06
 0.10097000E+03  0.27239E+06
 0.10102000E+03  0.30288E+06
 0.10107000E+03  0.33866E+06
 0.10112000E+03  0.38015E+06
 0.10117000E+03  0.34817E+06
 0.10122000E+03  0.30452E+06
 0.10127000E+03  0.33500E+06
 0.10132000E+03  0.38196E+06
 0.10137000E+03  0.42670E+06
 0.10142000E+03  0.41299E+06
 0.10147000E+03  0.31544E+06
 0.10152000E+03  0.22916E+06
 0.10157000E+03  0.20335E+06
 0.10162000E+03  0.21830E+06
 0.10167000E+03  0.21980E+06
 0.10172000E+03  0.20074E+06
 0.10177000E+03  0.20036E+06
 0.10182000E+03  0.19096E+06
 0.10187000E+03  0.72300E+05
 0.10192000E+03 -0.11338E+06
 0.10197000E+03 -0.21686E+06
 0.10202000E+03 -0.22608E+06
 0.10207000E+03 -0.18769E+06
 0.10212000E+03 -0.12243E+06
 0.10217000E+03 -0.41894E+05
 0.10222000E+03  0.92050E+04
 0.10227000E+03 -0.15404E+05
 0.10232000E+03 -0.93188E+05
 0.10237000E+03 -0.15688E+06
 0.10242000E+03 -0.14934E+06
 0.10247000E+03 -0.83712E+05
 0.10252000E+03 -0.15469E+05
 0.10257000E+03  0.14094E+05
 0.10262000E+03  0.30066E+05
 0.10267000E+03  0.35182E+05
 0.10272000E+03 -0.85600E+04
 0.10277000E+03 -0.88203E+05
 0.10282000E+03 -0.16640E+06
 0.10287000E+03 -0.16149E+06
 0.10292000E+03 -0.12325E+05
 0.10297000E+03  0.22520E+06
 0.10302000E+03  0.42728E+06
 0.10307000E+03  0.53799E+06
 0.10312000E+03  0.57255E+06
 0.10317000E+03  0.50612E+06
 0.10322000E+03  0.33074E+06
 0.10327000E+03  0.15554E+06
 0.10332000E+03  0.68957E+05
 0.10337000E+03  0.65081E+05
 0.10342000E+03  0.15391E+06
 0.10347000E+03  0.30890E+06
 0.10352000E+03  0.44337E+06
 0.10357000E+03  0.47020E+06
 0.10362000E+03  0.38470E+06
 0.10367000E+03  0.26083E+06
 0.10372000E+03  0.14201E+06
 0.10377000E+03  0.38543E+05
 0.10382000E+03 -0.47070E+04
 0.10387000E+03  0.73022E+05
 0.10392000E+03  0.23305E+06
 0.10397000E+03  0.39129E+06
 0.10402000E+03  0.50672E+06
 0.10407000E+03  0.55350E+06
 0.10412000E+03  0.49381E+06
 0.10417000E+03  0.35103E+06
 0.10422000E+03  0.19722E+06
 0.10427000E+03  0.73288E+05
 0.10432000E+03  0.60860E+04
 0.10437000E+03 -0.30203E+05
 0.10442000E+03 -0.56946E+05
 0.10447000E+03 -0.73250E+05
 0.10452000E+03 -0.11326E+06
 0.10457000E+03 -0.18170E+06
 0.10462000E+03 -0.23816E+06
 0.10467000E+03 -0.27820E+06
 0.10472000E+03 -0.33603E+06
 0.10477000E+03 -0.39702E+06
 0.10482000E+03 -0.41668E+06
 0.10487000E+03 -0.41669E+06
 0.10492000E+03 -0.41670E+06
 0.10497000E+03 -0.39878E+06
 0.10502000E+03 -0.37296E+06
 0.10507000E+03 -0.32907E+06
 0.10512000E+03 -0.29392E+06
 0.10517000E+03 -0.28440E+06
 0.10522000E+03 -0.25943E+06
 0.10527000E+03 -0.21314E+06
 0.10532000E+03 -0.15158E+06
 0.10537000E+03 -0.95618E+05
 0.10542000E+03 -0.21136E+05
 0.10547000E+03  0.73010E+05
 0.10552000E+03  0.10470E+06
 0.10557000E+03  0.12799E+05
 0.10562000E+03 -0.16019E+06
 0.10567000E+03 -0.27062E+06
 0.10572000E+03 -0.30125E+06
 0.10577000E+03 -0.30270E+06
 0.10582000E+03 -0.26137E+06
 0.10587000E+03 -0.16906E+06
 0.10592000E+03 -0.12666E+05
 0.10597000E+03  0.12086E+06
 0.10602000E+03  0.13703E+06
 0.10607000E+03  0.63962E+05
 0.10612000E+03 -0.62324E+05
 0.10617000E+03 -0.21288E+06
 0.10622000E+03 -0.33147E+06
 0.10627000E+03 -0.35410E+06
 0.10632000E+03 -0.27570E+06
 0.10637000E+03 -0.18447E+06
 0.10642000E+03 -0.17581E+06
 0.10647000E+03 -0.22934E+06
 0.10652000E+03 -0.25099E+06
 0.10657000E+03 -0.22053E+06
 0.10662000E+03 -0.16630E+06
 0.10667000E+03 -0.11408E+06
 0.10672000E+03 -0.84273E+05
 0.10677000E+03 -0.68865E+05
 0.10682000E+03 -0.64033E+05
 0.10687000E+03 -0.72683E+05
 0.10692000E+03 -0.96027E+05
 0.10697000E+03 -0.95159E+05
 0.10702000E+03 -0.18173E+05
 0.10707000E+03  0.10567E+06
 0.10712000E+03  0.20230E+06
 0.10717000E+03  0.23002E+06
 0.10722000E+03  0.22050E+06
 0.10727000E+03  0.22496E+06
 0.10732000E+03  0.25651E+06
 0.10737000E+03  0.29467E+06
 0.10742000E+03  0.29298E+06
 0.10747000E+03  0.24330E+06
 0.10752000E+03  0.18313E+06
 0.10757000E+03  0.12938E+06
 0.10762000E+03  0.10228E+06
 0.10767000E+03  0.16593E+06
 0.10772000E+03  0.35056E+06
 0.10777000E+03  0.53632E+06
 0.10782000E+03  0.61164E+06
 0.10787000E+03  0.61524E+06
 0.10792000E+03  0.58458E+06
 0.10797000E+03  0.56019E+06
 0.10802000E+03  0.55365E+06
 0.10807000E+03  0.51682E+06
 0.10812000E+03  0.45208E+06
 0.10817000E+03  0.37024E+06
 0.10822000E+03  0.29278E+06
 0.10827000E+03  0.23331E+06
 0.10832000E+03  0.18442E+06
 0.10837000E+03  0.13494E+06
 0.10842000E+03  0.40375E+05
 0.10847000E+03 -0.10455E+06
 0.10852000E+03 -0.23445E+06
 0.10857000E+03 -0.26255E+06
 0.10862000E+03 -0.20452E+06
 0.10867000E+03 -0.14157E+06
 0.10872000E+03 -0.93438E+05
 0.10877000E+03 -0.61777E+05
 0.10882000E+03 -0.54198E+05
 0.10887000E+03 -0.88386E+05
 0.10892000E+03 -0.14124E+06
 0.10897000E+03 -0.17206E+06
 0.10902000E+03 -0.18944E+06
 0.10907000E+03 -0.19060E+06
 0.10912000E+03 -0.17179E+06
 0.10917000E+03 -0.18197E+06
 0.10922000E+03 -0.22892E+06
 0.10927000E+03 -0.26094E+06
 0.10932000E+03 -0.29903E+06
 0.10937000E+03 -0.39335E+06
 0.10942000E+03 -0.53168E+06
 0.10947000E+03 -0.65234E+06
 0.10952000E+03 -0.69810E+06
 0.10957000E+03 -0.64312E+06
 0.10962000E+03 -0.49975E+06
 0.10967000E+03 -0.33521E+06
 0.10972000E+03 -0.23063E+06
 0.10977000E+03 -0.19420E+06
 0.10982000E+03 -0.16783E+06
 0.10987000E+03 -0.12444E+06
 0.10992000E+03 -0.58900E+05
 0.10997000E+03  0.38800E+04
 0.11002000E+03  0.34631E+05
 0.11007000E+03  0.47378E+05
 0.11012000E+03  0.38911E+05
 0.11017000E+03 -0.41570E+04
 0.11022000E+03 -0.50790E+05
 0.11027000E+03 -0.70235E+05
 0.11032000E+03 -0.94885E+05
 0.11037000E+03 -0.13496E+06
 0.11042000E+03 -0.20182E+06
 0.11047000E+03 -0.32415E+06
 0.11052000E+03 -0.42084E+06
 0.11057000E+03 -0.45267E+06
 0.11062000E+03 -0.47361E+06
 0.11067000E+03 -0.46922E+06
 0.11072000E+03 -0.41848E+06
 0.11077000E+03 -0.34794E+06
 0.11082000E+03 -0.29645E+06
 0.11087000E+03 -0.28446E+06
 0.11092000E+03 -0.29836E+06
 0.11097000E+03 -0.32211E+06
 0.11102000E+03 -0.37151E+06
 0.11107000E+03 -0.45014E+06
 0.11112000E+03 -0.49651E+06
 0.11117000E+03 -0.47312E+06
 0.11122000E+03 -0.40401E+06
 0.11127000E+03 -0.33759E+06
 0.11132000E+03 -0.30190E+06
 0.11137000E+03 -0.27372E+06
 0.11142000E+03 -0.23745E+06
 0.11147000E+03 -0.19036E+06
 0.11152000E+03 -0.14669E+06
 0.11157000E+03 -0.10571E+06
 0.11162000E+03 -0.55034E+05
 0.11167000E+03 -0.19802E+05
 0.11172000E+03 -0.46860E+04
 0.11177000E+03 -0.29930E+05
 0.11182000E+03 -0.87788E+05
 0.11187000E+03 -0.13340E+06
 0.11192000E+03 -0.17601E+06
 0.11197000E+03 -0.20501E+06
 0.11202000E+03 -0.17687E+06
 0.11207000E+03 -0.59488E+05
 0.11212000E+03  0.95714E+05
 0.11217000E+03  0.21682E+06
 0.11222000E+03  0.30848E+06
 0.11227000E+03  0.36660E+06
 0.11232000E+03  0.39123E+06
 0.11237000E+03  0.39308E+06
 0.11242000E+03  0.38408E+06
 0.11247000E+03  0.37853E+06
 0.11252000E+03  0.37010E+06
 0.11257000E+03  0.35324E+06
 0.11262000E+03  0.33275E+06
 0.11267000E+03  0.30679E+06
 0.11272000E+03  0.25931E+06
 0.11277000E+03  0.20894E+06
 0.11282000E+03  0.17344E+06
 0.11287000E+03  0.12499E+06
 0.11292000E+03  0.54664E+05
 0.11297000E+03 -0.19189E+05
 0.11302000E+03 -0.79596E+05
 0.11307000E+03 -0.93241E+05
 0.11312000E+03 -0.51433E+05
 0.11317000E+03 -0.43810E+04
 0.11322000E+03  0.16121E+05
 0.11327000E+03  0.79050E+04
 0.11332000E+03 -0.36832E+05
 0.11337000E+03 -0.10878E+06
 0.11342000E+03 -0.17281E+06
 0.11347000E+03 -0.19424E+06
 0.11352000E+03 -0.17259E+06
 0.11357000E+03 -0.14303E+06
 0.11362000E+03 -0.14218E+06
 0.11367000E+03 -0.18374E+06
 0.11372000E+03 -0.24689E+06
 0.11377000E+03 -0.28497E+06
 0.11382000E+03 -0.29368E+06
 0.11387000E+03 -0.28743E+06
 0.11392000E+03 -0.26811E+06
 0.11397000E+03 -0.23897E+06
 0.11402000E+03 -0.19515E+06
 0.11407000E+03 -0.15696E+06
 0.11412000E+03 -0.13254E+06
 0.11417000E+03 -0.12942E+06
 0.11422000E+03 -0.13833E+06
 0.11427000E+03 -0.11974E+06
 0.11432000E+03 -0.71576E+05
 0.11437000E+03 -0.99770E+04
 0.11442000E+03  0.49255E+05
 0.11447000E+03  0.11979E+06
 0.11452000E+03  0.19555E+06
 0.11457000E+03  0.22007E+06
 0.11462000E+03  0.16706E+06
 0.11467000E+03  0.68416E+05
 0.11472000E+03 -0.23728E+05
 0.11477000E+03 -0.80925E+05
 0.11482000E+03 -0.11230E+06
 0.11487000E+03 -0.15259E+06
 0.11492000E+03 -0.20835E+06
 0.11497000E+03 -0.27212E+06
 0.11502000E+03 -0.32096E+06
 0.11507000E+03 -0.32691E+06
 0.11512000E+03 -0.32649E+06
 0.11517000E+03 -0.34254E+06
 0.11522000E+03 -0.35464E+06
 0.11527000E+03 -0.34221E+06
 0.11532000E+03 -0.30498E+06
 0.11537000E+03 -0.25096E+06
 0.11542000E+03 -0.17302E+06
 0.11547000E+03 -0.90555E+05
 0.11552000E+03 -0.33742E+05
 0.11557000E+03 -0.19425E+05
 0.11562000E+03 -0.33385E+05
 0.11567000E+03 -0.49138E+05
 0.11572000E+03 -0.64111E+05
 0.11577000E+03 -0.78920E+05
 0.11582000E+03 -0.88162E+05
 0.11587000E+03 -0.86209E+05
 0.11592000E+03 -0.73534E+05
 0.11597000E+03 -0.49756E+05
 0.11602000E+03 -0.31263E+05
 0.11607000E+03 -0.14284E+05
 0.11612000E+03  0.30410E+05
 0.11617000E+03  0.91668E+05
 0.11622000E+03  0.13609E+06
 0.11627000E+03  0.13550E+06
 0.11632000E+03  0.91235E+05
 0.11637000E+03  0.29447E+05
 0.11642000E+03 -0.17316E+05
 0.11647000E+03 -0.30283E+05
 0.11652000E+03 -0.15232E+05
 0.11657000E+03  0.19961E+05
 0.11662000E+03  0.60341E+05
 0.11667000E+03  0.85016E+05
 0.11672000E+03  0.76053E+05
 0.11677000E+03  0.52415E+05
 0.11682000E+03  0.35550E+05
 0.11687000E+03  0.31528E+05
 0.11692000E+03  0.70276E+05
 0.11697000E+03  0.14043E+06
 0.11702000E+03  0.20200E+06
 0.11707000E+03  0.25836E+06
 0.11712000E+03  0.33541E+06
 0.11717000E+03  0.42881E+06
 0.11722000E+03  0.50851E+06
 0.11727000E+03  0.56305E+06
 0.11732000E+03  0.59012E+06
 0.11737000E+03  0.59428E+06
 0.11742000E+03  0.58715E+06
 0.11747000E+03  0.56034E+06
 0.11752000E+03  0.48139E+06
 0.11757000E+03  0.35282E+06
 0.11762000E+03  0.21790E+06
 0.11767000E+03  0.96252E+05
 0.11772000E+03  0.34070E+04
 0.11777000E+03 -0.46152E+05
 0.11782000E+03 -0.46056E+05
 0.11787000E+03 -0.14694E+05
 0.11792000E+03  0.22138E+05
 0.11797000E+03  0.62763E+05
 0.11802000E+03  0.94803E+05
 0.11807000E+03  0.12050E+06
 0.11812000E+03  0.11305E+06
 0.11817000E+03  0.43159E+05
 0.11822000E+03 -0.57827E+05
 0.11827000E+03 -0.16941E+06
 0.11832000E+03 -0.26214E+06
 0.11837000E+03 -0.30928E+06
 0.11842000E+03 -0.32598E+06
 0.11847000E+03 -0.32054E+06
 0.11852000E+03 -0.28258E+06
 0.11857000E+03 -0.22153E+06
 0.11862000E+03 -0.16437E+06
 0.11867000E+03 -0.11673E+06
 0.11872000E+03 -0.69391E+05
 0.11877000E+03 -0.19823E+05
 0.11882000E+03  0.16906E+05
 0.11887000E+03  0.41206E+05
 0.11892000E+03  0.62992E+05
 0.11897000E+03  0.83795E+05
 0.11902000E+03  0.11229E+06
 0.11907000E+03  0.14012E+06
 0.11912000E+03  0.16616E+06
 0.11917000E+03  0.18855E+06
 0.11922000E+03  0.20496E+06
 0.11927000E+03  0.21824E+06
 0.11932000E+03  0.22440E+06
 0.11937000E+03  0.23534E+06
 0.11942000E+03  0.25567E+06
 0.11947000E+03  0.29374E+06
 0.11952000E+03  0.36028E+06
 0.11957000E+03  0.44111E+06
 0.11962000E+03  0.48284E+06
 0.11967000E+03  0.46407E+06
 0.11972000E+03  0.42928E+06
 0.11977000E+03  0.38571E+06
 0.11982000E+03  0.33488E+06
 0.11987000E+03  0.30444E+06
 0.11992000E+03  0.31295E+06
 0.11997000E+03  0.36450E+06
 0.12002000E+03  0.43794E+06
 0.12007000E+03  0.50891E+06
 0.12012000E+03  0.54926E+06
 0.12017000E+03  0.53790E+06
 0.12022000E+03  0.48632E+06
 0.12027000E+03  0.42624E+06
 0.12032000E+03  0.36745E+06
 0.12037000E+03  0.30613E+06
 0.12042000E+03  0.24836E+06
 0.12047000E+03  0.19210E+06
 0.12052000E+03  0.15423E+06
 0.12057000E+03  0.13913E+06
 0.12062000E+03  0.13671E+06
 0.12067000E+03  0.15350E+06
 0.12072000E+03  0.16538E+06
 0.12077000E+03  0.15391E+06
 0.12082000E+03  0.13051E+06
 0.12087000E+03  0.10313E+06
 0.12092000E+03  0.77295E+05
 0.12097000E+03  0.53772E+05
 0.12102000E+03  0.25159E+05
 0.12107000E+03 -0.17268E+05
 0.12112000E+03 -0.58889E+05
 0.12117000E+03 -0.81363E+05
 0.12122000E+03 -0.89923E+05
 0.12127000E+03 -0.82228E+05
 0.12132000E+03 -0.58870E+05
 0.12137000E+03 -0.32084E+05
 0.12142000E+03 -0.92120E+04
 0.12147000E+03 -0.85300E+04
 0.12152000E+03 -0.46006E+05
 0.12157000E+03 -0.10148E+06
 0.12162000E+03 -0.13646E+06
 0.12167000E+03 -0.12723E+06
 0.12172000E+03 -0.74856E+05
 0.12177000E+03 -0.71500E+03
 0.12182000E+03  0.72519E+05
 0.12187000E+03  0.12465E+06
 0.12192000E+03  0.14950E+06
 0.12197000E+03  0.14961E+06
 0.12202000E+03  0.13172E+06
 0.12207000E+03  0.12875E+06
 0.12212000E+03  0.15618E+06
 0.12217000E+03  0.18971E+06
 0.12222000E+03  0.21547E+06
 0.12227000E+03  0.24068E+06
 0.12232000E+03  0.27067E+06
 0.12237000E+03  0.30540E+06
 0.12242000E+03  0.33522E+06
 0.12247000E+03  0.34578E+06
 0.12252000E+03  0.33698E+06
 0.12257000E+03  0.31104E+06
 0.12262000E+03  0.27487E+06
 0.12267000E+03  0.24186E+06
 0.12272000E+03  0.21058E+06
 0.12277000E+03  0.17452E+06
 0.12282000E+03  0.13822E+06
 0.12287000E+03  0.11255E+06
 0.12292000E+03  0.92391E+05
 0.12297000E+03  0.62100E+05
 0.12302000E+03  0.22438E+05
 0.12307000E+03 -0.16442E+05
 0.12312000E+03 -0.52104E+05
 0.12317000E+03 -0.84217E+05
 0.12322000E+03 -0.10712E+06
 0.12327000E+03 -0.12185E+06
 0.12332000E+03 -0.12795E+06
 0.12337000E+03 -0.13234E+06
 0.12342000E+03 -0.14729E+06
 0.12347000E+03 -0.15799E+06
 0.12352000E+03 -0.14880E+06
 0.12357000E+03 -0.12712E+06
 0.12362000E+03 -0.12012E+06
 0.12367000E+03 -0.14277E+06
 0.12372000E+03 -0.17202E+06
 0.12377000E+03 -0.17689E+06
 0.12382000E+03 -0.15934E+06
 0.12387000E+03 -0.13724E+06
 0.12392000E+03 -0.12066E+06
 0.12397000E+03 -0.12705E+06
 0.12402000E+03 -0.15526E+06
 0.12407000E+03 -0.19322E+06
 0.12412000E+03 -0.22709E+06
 0.12417000E+03 -0.23833E+06
 0.12422000E+03 -0.22934E+06
 0.12427000E+03 -0.21134E+06
 0.12432000E+03 -0.18902E+06
 0.12437000E+03 -0.15911E+06
 0.12442000E+03 -0.11757E+06
 0.12447000E+03 -0.69028E+05
 0.12452000E+03 -0.30453E+05
 0.12457000E+03 -0.18708E+05
 0.12462000E+03 -0.30086E+05
 0.12467000E+03 -0.38567E+05
 0.12472000E+03 -0.33090E+05
 0.12477000E+03 -0.73590E+04
 0.12482000E+03  0.45432E+05
 0.12487000E+03  0.10262E+06
 0.12492000E+03  0.15357E+06
 0.12497000E+03  0.19468E+06
 0.12502000E+03  0.21344E+06
 0.12507000E+03  0.20580E+06
 0.12512000E+03  0.19141E+06
 0.12517001E+03  0.19782E+06
 0.12521999E+03  0.22471E+06
 0.12527000E+03  0.26333E+06
 0.12532000E+03  0.29048E+06
 0.12537000E+03  0.29001E+06
 0.12542001E+03  0.26767E+06
 0.12546999E+03  0.22046E+06
 0.12552000E+03  0.14727E+06
 0.12557000E+03  0.44468E+05
 0.12562000E+03 -0.81016E+05
 0.12567001E+03 -0.19477E+06
 0.12571999E+03 -0.26322E+06
 0.12577000E+03 -0.28364E+06
 0.12582000E+03 -0.27794E+06
 0.12587000E+03 -0.26917E+06
 0.12592001E+03 -0.27743E+06
 0.12596999E+03 -0.29272E+06
 0.12602000E+03 -0.28721E+06
 0.12607000E+03 -0.25818E+06
 0.12612000E+03 -0.21648E+06
 0.12617001E+03 -0.17611E+06
 0.12621999E+03 -0.14428E+06
 0.12627000E+03 -0.12184E+06
 0.12632000E+03 -0.10974E+06
 0.12637000E+03 -0.10905E+06
 0.12642001E+03 -0.12403E+06
 0.12646999E+03 -0.15352E+06
 0.12652000E+03 -0.19181E+06
 0.12657000E+03 -0.22094E+06
 0.12662000E+03 -0.22298E+06
 0.12667001E+03 -0.19960E+06
 0.12671999E+03 -0.16635E+06
 0.12677000E+03 -0.14285E+06
 0.12682000E+03 -0.13663E+06
 0.12687000E+03 -0.14331E+06
 0.12692001E+03 -0.15087E+06
 0.12696999E+03 -0.14793E+06
 0.12702000E+03 -0.13529E+06
 0.12707000E+03 -0.11674E+06
 0.12712000E+03 -0.92682E+05
 0.12717001E+03 -0.71984E+05
 0.12721999E+03 -0.63080E+05
 0.12727000E+03 -0.61614E+05
 0.12732000E+03 -0.72510E+05
 0.12737000E+03 -0.99038E+05
 0.12742001E+03 -0.12658E+06
 0.12746999E+03 -0.14564E+06
 0.12752000E+03 -0.16333E+06
 0.12757000E+03 -0.19554E+06
 0.12762000E+03 -0.23707E+06
 0.12767001E+03 -0.26825E+06
 0.12771999E+03 -0.28297E+06
 0.12777000E+03 -0.28780E+06
 0.12782000E+03 -0.29148E+06
 0.12787000E+03 -0.29452E+06
 0.12792001E+03 -0.30568E+06
 0.12796999E+03 -0.32868E+06
 0.12802000E+03 -0.34984E+06
 0.12807001E+03 -0.35428E+06
 0.12812001E+03 -0.33989E+06
 0.12817001E+03 -0.33446E+06
 0.12822000E+03 -0.35696E+06
 0.12827000E+03 -0.38652E+06
 0.12832001E+03 -0.39702E+06
 0.12837001E+03 -0.38726E+06
 0.12842001E+03 -0.36188E+06
 0.12847000E+03 -0.32396E+06
 0.12852000E+03 -0.28150E+06
 0.12857001E+03 -0.23779E+06
 0.12862001E+03 -0.21733E+06
 0.12867001E+03 -0.23097E+06
 0.12872000E+03 -0.25170E+06
 0.12877000E+03 -0.26029E+06
 0.12882001E+03 -0.25057E+06
 0.12887001E+03 -0.24274E+06
 0.12892001E+03 -0.25009E+06
 0.12897000E+03 -0.25970E+06
 0.12902000E+03 -0.26400E+06
 0.12907001E+03 -0.25451E+06
 0.12912001E+03 -0.23062E+06
 0.12917001E+03 -0.20533E+06
 0.12922000E+03 -0.19541E+06
 0.12927000E+03 -0.19152E+06
 0.12932001E+03 -0.17216E+06
 0.12937001E+03 -0.14018E+06
 0.12942001E+03 -0.98001E+05
 0.12947000E+03 -0.43236E+05
 0.12952000E+03  0.11508E+05
 0.12957001E+03  0.45335E+05
 0.12962001E+03  0.60230E+05
 0.12967001E+03  0.62915E+05
 0.12972000E+03  0.58916E+05
 0.12977000E+03  0.58272E+05
 0.12982001E+03  0.50331E+05
 0.12987001E+03  0.29582E+05
 0.12992001E+03 -0.24120E+04
 0.12997000E+03 -0.42947E+05
 0.13002000E+03 -0.86642E+05
 0.13007001E+03 -0.13030E+06
 0.13012001E+03 -0.16471E+06
 0.13017001E+03 -0.18708E+06
 0.13022000E+03 -0.19291E+06
 0.13027000E+03 -0.17785E+06
 0.13032001E+03 -0.14998E+06
 0.13037001E+03 -0.11179E+06
 0.13042001E+03 -0.63936E+05
 0.13047000E+03 -0.13450E+05
 0.13052000E+03  0.42509E+05
 0.13057001E+03  0.10066E+06
 0.13062001E+03  0.13928E+06
 0.13067001E+03  0.14891E+06
 0.13072000E+03  0.13157E+06
 0.13077000E+03  0.10158E+06
 0.13082001E+03  0.86365E+05
 0.13087001E+03  0.89897E+05
 0.13092001E+03  0.98842E+05
 0.13097000E+03  0.10076E+06
 0.13102000E+03  0.90659E+05
 0.13107001E+03  0.82322E+05
 0.13112001E+03  0.86014E+05
 0.13117001E+03  0.98557E+05
 0.13122000E+03  0.10794E+06
 0.13127000E+03  0.10104E+06
 0.13132001E+03  0.90987E+05
 0.13137001E+03  0.95150E+05
 0.13142001E+03  0.10646E+06
 0.13147000E+03  0.11780E+06
 0.13152000E+03  0.12847E+06
 0.13157001E+03  0.13783E+06
 0.13162001E+03  0.15374E+06
 0.13167001E+03  0.17927E+06
 0.13172000E+03  0.20460E+06
 0.13177000E+03  0.21370E+06
 0.13182001E+03  0.19408E+06
 0.13187001E+03  0.15504E+06
 0.13192001E+03  0.10911E+06
 0.13197000E+03  0.64276E+05
 0.13202000E+03  0.35895E+05
 0.13207001E+03  0.30000E+05
 0.13212001E+03  0.40435E+05
 0.13217001E+03  0.65599E+05
 0.13222000E+03  0.10477E+06
 0.13227000E+03  0.14868E+06
 0.13232001E+03  0.18967E+06
 0.13237001E+03  0.22193E+06
 0.13242001E+03  0.24179E+06
 0.13247000E+03  0.24847E+06
 0.13252000E+03  0.24683E+06
 0.13257001E+03  0.23716E+06
 0.13262001E+03  0.21207E+06
 0.13267001E+03  0.18175E+06
 0.13272000E+03  0.16378E+06
 0.13277000E+03  0.16079E+06
 0.13282001E+03  0.16268E+06
 0.13287001E+03  0.15587E+06
 0.13292001E+03  0.12695E+06
 0.13297000E+03  0.82018E+05
 0.13302000E+03  0.45268E+05
 0.13307001E+03  0.33289E+05
 0.13312001E+03  0.43643E+05
 0.13317001E+03  0.61738E+05
 0.13322000E+03  0.78470E+05
 0.13327000E+03  0.85726E+05
 0.13332001E+03  0.82892E+05
 0.13337001E+03  0.74270E+05
 0.13342001E+03  0.67101E+05
 0.13347000E+03  0.79204E+05
 0.13352000E+03  0.11583E+06
 0.13357001E+03  0.15789E+06
 0.13362001E+03  0.18438E+06
 0.13367001E+03  0.19934E+06
 0.13372000E+03  0.21383E+06
 0.13377000E+03  0.21884E+06
 0.13382001E+03  0.20913E+06
 0.13387001E+03  0.19378E+06
 0.13392001E+03  0.18039E+06
 0.13397000E+03  0.17594E+06
 0.13402000E+03  0.17719E+06
 0.13407001E+03  0.18364E+06
 0.13412001E+03  0.19243E+06
 0.13417001E+03  0.19415E+06
 0.13422000E+03  0.19006E+06
 0.13427000E+03  0.17651E+06
 0.13432001E+03  0.16566E+06
 0.13437001E+03  0.17152E+06
 0.13442001E+03  0.19308E+06
 0.13447000E+03  0.22475E+06
 0.13452000E+03  0.25151E+06
 0.13457001E+03  0.26676E+06
 0.13462001E+03  0.26744E+06
 0.13467001E+03  0.25670E+06
 0.13472000E+03  0.24123E+06
 0.13477000E+03  0.21897E+06
 0.13482001E+03  0.19483E+06
 0.13487001E+03  0.17433E+06
 0.13492001E+03  0.15602E+06
 0.13497000E+03  0.14400E+06
 0.13502000E+03  0.14474E+06
 0.13507001E+03  0.15501E+06
 0.13512001E+03  0.16120E+06
 0.13517001E+03  0.15634E+06
 0.13522000E+03  0.13947E+06
 0.13527000E+03  0.11149E+06
 0.13532001E+03  0.85202E+05
 0.13537001E+03  0.64802E+05
 0.13542001E+03  0.48251E+05
 0.13547000E+03  0.37942E+05
 0.13552000E+03  0.26669E+05
 0.13557001E+03  0.14165E+05
 0.13562001E+03  0.20600E+04
 0.13567001E+03 -0.19704E+05
 0.13572000E+03 -0.58132E+05
 0.13577000E+03 -0.11515E+06
 0.13582001E+03 -0.17748E+06
 0.13587001E+03 -0.22086E+06
 0.13592001E+03 -0.23226E+06
 0.13597000E+03 -0.21684E+06
 0.13602000E+03 -0.19789E+06
 0.13607001E+03 -0.19303E+06
 0.13612001E+03 -0.19738E+06
 0.13617001E+03 -0.19938E+06
 0.13622000E+03 -0.18936E+06
 0.13627000E+03 -0.16644E+06
 0.13632001E+03 -0.13463E+06
 0.13637001E+03 -0.93605E+05
 0.13642001E+03 -0.46651E+05
 0.13647000E+03  0.39290E+04
 0.13652000E+03  0.53760E+05
 0.13657001E+03  0.10012E+06
 0.13662001E+03  0.14856E+06
 0.13667001E+03  0.19472E+06
 0.13672000E+03  0.22882E+06
 0.13677000E+03  0.25437E+06
 0.13682001E+03  0.27479E+06
 0.13687001E+03  0.28434E+06
 0.13692001E+03  0.27685E+06
 0.13697000E+03  0.24668E+06
 0.13702000E+03  0.19886E+06
 0.13707001E+03  0.14246E+06
 0.13712001E+03  0.83503E+05
 0.13717001E+03  0.26272E+05
 0.13722000E+03 -0.34562E+05
 0.13727000E+03 -0.99502E+05
 0.13732001E+03 -0.16111E+06
 0.13737001E+03 -0.21913E+06
 0.13742001E+03 -0.26806E+06
 0.13747000E+03 -0.29744E+06
 0.13752000E+03 -0.30079E+06
 0.13757001E+03 -0.27444E+06
 0.13762001E+03 -0.22961E+06
 0.13767001E+03 -0.17964E+06
 0.13772000E+03 -0.12759E+06
 0.13777000E+03 -0.75469E+05
 0.13782001E+03 -0.27418E+05
 0.13787001E+03  0.91510E+04
 0.13792001E+03  0.28126E+05
 0.13797000E+03  0.33031E+05
 0.13802000E+03  0.31993E+05
 0.13807001E+03  0.31379E+05
 0.13812001E+03  0.32705E+05
 0.13817001E+03  0.30972E+05
 0.13822000E+03  0.23307E+05
 0.13827000E+03  0.93830E+04
 0.13832001E+03 -0.11809E+05
 0.13837001E+03 -0.33610E+05
 0.13842001E+03 -0.45453E+05
 0.13847000E+03 -0.50019E+05
 0.13852000E+03 -0.54122E+05
 0.13857001E+03 -0.60498E+05
 0.13862001E+03 -0.69544E+05
 0.13867001E+03 -0.72838E+05
 0.13872000E+03 -0.66509E+05
 0.13877000E+03 -0.52117E+05
 0.13882001E+03 -0.33514E+05
 0.13887001E+03 -0.13903E+05
 0.13892001E+03  0.75460E+04
 0.13897000E+03  0.27824E+05
 0.13902000E+03  0.46621E+05
 0.13907001E+03  0.63527E+05
 0.13912001E+03  0.79923E+05
 0.13917001E+03  0.94349E+05
 0.13922000E+03  0.98283E+05
 0.13927000E+03  0.86718E+05
 0.13932001E+03  0.60013E+05
 0.13937001E+03  0.31948E+05
 0.13942001E+03  0.22033E+05
 0.13947000E+03  0.30712E+05
 0.13952000E+03  0.43282E+05
 0.13957001E+03  0.54813E+05
 0.13962001E+03  0.64383E+05
 0.13967001E+03  0.70385E+05
 0.13972000E+03  0.72760E+05
 0.13977000E+03  0.68698E+05
 0.13982001E+03  0.61343E+05
 0.13987001E+03  0.52726E+05
 0.13992001E+03  0.39061E+05
 0.13997000E+03  0.15362E+05
 0.14002000E+03 -0.15625E+05
 0.14007001E+03 -0.43388E+05
 0.14012001E+03 -0.68301E+05
 0.14017001E+03 -0.98857E+05
 0.14022000E+03 -0.13521E+06
 0.14027000E+03 -0.16986E+06
 0.14032001E+03 -0.19817E+06
 0.14037001E+03 -0.21680E+06
 0.14042001E+03 -0.22352E+06
 0.14047000E+03 -0.21711E+06
 0.14052000E+03 -0.19492E+06
 0.14057001E+03 -0.16177E+06
 0.14062001E+03 -0.12794E+06
 0.14067001E+03 -0.10168E+06
 0.14072000E+03 -0.89884E+05
 0.14077000E+03 -0.97239E+05
 0.14082001E+03 -0.11834E+06
 0.14087001E+03 -0.13974E+06
 0.14092001E+03 -0.15505E+06
 0.14097000E+03 -0.16595E+06
 0.14102000E+03 -0.16979E+06
 0.14107001E+03 -0.16335E+06
 0.14112001E+03 -0.15781E+06
 0.14117001E+03 -0.15750E+06
 0.14122000E+03 -0.15412E+06
 0.14127000E+03 -0.15086E+06
 0.14132001E+03 -0.15357E+06
 0.14137001E+03 -0.16696E+06
 0.14142001E+03 -0.19358E+06
 0.14147000E+03 -0.22706E+06
 0.14152000E+03 -0.25256E+06
 0.14157001E+03 -0.25270E+06
 0.14162001E+03 -0.22644E+06
 0.14167001E+03 -0.19199E+06
 0.14172000E+03 -0.16562E+06
 0.14177000E+03 -0.14842E+06
 0.14182001E+03 -0.13815E+06
 0.14187001E+03 -0.13436E+06
 0.14192001E+03 -0.12974E+06
 0.14197000E+03 -0.11729E+06
 0.14202000E+03 -0.10096E+06
 0.14207001E+03 -0.87664E+05
 0.14212001E+03 -0.82790E+05
 0.14217001E+03 -0.82128E+05
 0.14222000E+03 -0.74471E+05
 0.14227000E+03 -0.60576E+05
 0.14232001E+03 -0.41000E+05
 0.14237001E+03 -0.12668E+05
 0.14242001E+03  0.24720E+05
 0.14247000E+03  0.65505E+05
 0.14252000E+03  0.98501E+05
 0.14257001E+03  0.12017E+06
 0.14262001E+03  0.13051E+06
 0.14267001E+03  0.13574E+06
 0.14272000E+03  0.14186E+06
 0.14277000E+03  0.15046E+06
 0.14282001E+03  0.16388E+06
 0.14287001E+03  0.17802E+06
 0.14292001E+03  0.18874E+06
 0.14297000E+03  0.19525E+06
 0.14302000E+03  0.20215E+06
 0.14307001E+03  0.21375E+06
 0.14312001E+03  0.22440E+06
 0.14317001E+03  0.22474E+06
 0.14322000E+03  0.21316E+06
 0.14327000E+03  0.19475E+06
 0.14332001E+03  0.17425E+06
 0.14337001E+03  0.15530E+06
 0.14342001E+03  0.13756E+06
 0.14347000E+03  0.11724E+06
 0.14352000E+03  0.91760E+05
 0.14357001E+03  0.66302E+05
 0.14362001E+03  0.49206E+05
 0.14367001E+03  0.41279E+05
 0.14372000E+03  0.37790E+05
 0.14377000E+03  0.39526E+05
 0.14382001E+03  0.46946E+05
 0.14387001E+03  0.54883E+05
 0.14392001E+03  0.60235E+05
 0.14397000E+03  0.57218E+05
 0.14402000E+03  0.43681E+05
 0.14407001E+03  0.26022E+05
 0.14412001E+03  0.84400E+04
 0.14417001E+03 -0.10775E+05
 0.14422000E+03 -0.32416E+05
 0.14427000E+03 -0.50251E+05
 0.14432001E+03 -0.51288E+05
 0.14437001E+03 -0.32947E+05
 0.14442001E+03 -0.59320E+04
 0.14447000E+03  0.21876E+05
 0.14452000E+03  0.43968E+05
 0.14457001E+03  0.56812E+05
 0.14462001E+03  0.58665E+05
 0.14467001E+03  0.56831E+05
 0.14472000E+03  0.58298E+05
 0.14477000E+03  0.61046E+05
 0.14482001E+03  0.70790E+05
 0.14487001E+03  0.88798E+05
 0.14492001E+03  0.11232E+06
 0.14497000E+03  0.13888E+06
 0.14502000E+03  0.16209E+06
 0.14507001E+03  0.17852E+06
 0.14512001E+03  0.18594E+06
 0.14517001E+03  0.17846E+06
 0.14522000E+03  0.15278E+06
 0.14527000E+03  0.11839E+06
 0.14532001E+03  0.84799E+05
 0.14537001E+03  0.58799E+05
 0.14542001E+03  0.41528E+05
 0.14547000E+03  0.20057E+05
 0.14552000E+03 -0.10416E+05
 0.14557001E+03 -0.42802E+05
 0.14562001E+03 -0.74035E+05
 0.14567001E+03 -0.10099E+06
 0.14572000E+03 -0.11657E+06
 0.14577000E+03 -0.11987E+06
 0.14582001E+03 -0.11612E+06
 0.14587001E+03 -0.11280E+06
 0.14592001E+03 -0.11783E+06
 0.14597000E+03 -0.13271E+06
 0.14602000E+03 -0.15073E+06
 0.14607001E+03 -0.16189E+06
 0.14612001E+03 -0.16647E+06
 0.14617001E+03 -0.17488E+06
 0.14622000E+03 -0.19042E+06
 0.14627000E+03 -0.20699E+06
 0.14632001E+03 -0.22129E+06
 0.14637001E+03 -0.23749E+06
 0.14642001E+03 -0.25740E+06
 0.14647000E+03 -0.27597E+06
 0.14652000E+03 -0.28724E+06
 0.14657001E+03 -0.28471E+06
 0.14662001E+03 -0.27058E+06
 0.14667001E+03 -0.25709E+06
 0.14672000E+03 -0.25104E+06
 0.14677000E+03 -0.25338E+06
 0.14682001E+03 -0.26042E+06
 0.14687001E+03 -0.26041E+06
 0.14692001E+03 -0.24755E+06
 0.14697000E+03 -0.23147E+06
 0.14702000E+03 -0.22340E+06
 0.14707001E+03 -0.22438E+06
 0.14712001E+03 -0.22441E+06
 0.14717001E+03 -0.21373E+06
 0.14722000E+03 -0.19262E+06
 0.14727000E+03 -0.16680E+06
 0.14732001E+03 -0.14395E+06
 0.14737001E+03 -0.13222E+06
 0.14742001E+03 -0.13095E+06
 0.14747000E+03 -0.13314E+06
 0.14752000E+03 -0.13636E+06
 0.14757001E+03 -0.14143E+06
 0.14762001E+03 -0.14648E+06
 0.14767001E+03 -0.14738E+06
 0.14772000E+03 -0.14696E+06
 0.14777000E+03 -0.14741E+06
 0.14782001E+03 -0.14151E+06
 0.14787001E+03 -0.12260E+06
 0.14792001E+03 -0.93548E+05
 0.14797000E+03 -0.64324E+05
 0.14802000E+03 -0.38482E+05
 0.14807001E+03 -0.17387E+05
 0.14812001E+03 -0.81670E+04
 0.14817001E+03 -0.90830E+04
 0.14822000E+03 -0.12058E+05
 0.14827000E+03 -0.12978E+05
 0.14832001E+03 -0.84840E+04
 0.14837001E+03  0.86400E+03
 0.14842001E+03  0.12867E+05
 0.14847000E+03  0.24864E+05
 0.14852000E+03  0.31894E+05
 0.14857001E+03  0.32607E+05
 0.14862001E+03  0.28460E+05
 0.14867001E+03  0.19794E+05
 0.14872000E+03  0.92690E+04
 0.14877000E+03  0.32780E+04
 0.14882001E+03  0.79400E+04
 0.14887001E+03  0.23539E+05
 0.14892001E+03  0.46800E+05
 0.14897000E+03  0.74611E+05
 0.14902000E+03  0.99478E+05
 0.14907001E+03  0.11872E+06
 0.14912001E+03  0.13854E+06
 0.14917001E+03  0.16493E+06
 0.14922000E+03  0.19608E+06
 0.14927000E+03  0.22083E+06
 0.14932001E+03  0.23501E+06
 0.14937001E+03  0.24804E+06
 0.14942001E+03  0.26738E+06
 0.14947000E+03  0.29023E+06
 0.14952000E+03  0.31179E+06
 0.14957001E+03  0.32817E+06
 0.14962001E+03  0.33496E+06
 0.14967001E+03  0.33307E+06
 0.14972000E+03  0.32756E+06
 0.14977000E+03  0.32229E+06
 0.14982001E+03  0.32020E+06
 0.14987001E+03  0.32155E+06
 0.14992001E+03  0.32286E+06
 0.14997000E+03  0.32230E+06
