-0.29800000E+01 -0.15320E+06
-0.29300001E+01 -0.15566E+06
-0.28800001E+01 -0.15505E+06
-0.28299999E+01 -0.15148E+06
-0.27800000E+01 -0.14582E+06
-0.27300000E+01 -0.13904E+06
-0.26800001E+01 -0.13043E+06
-0.26300001E+01 -0.12080E+06
-0.25799999E+01 -0.11078E+06
-0.25300000E+01 -0.10029E+06
-0.24800000E+01 -0.89734E+05
-0.24300001E+01 -0.79623E+05
-0.23800001E+01 -0.70651E+05
-0.23299999E+01 -0.62393E+05
-0.22800000E+01 -0.55130E+05
-0.22300000E+01 -0.47760E+05
-0.21800001E+01 -0.39414E+05
-0.21300001E+01 -0.31352E+05
-0.20799999E+01 -0.23922E+05
-0.20300000E+01 -0.18150E+05
-0.19800000E+01 -0.14420E+05
-0.19299999E+01 -0.12092E+05
-0.18800000E+01 -0.10723E+05
-0.18300000E+01 -0.96460E+04
-0.17800000E+01 -0.83240E+04
-0.17300000E+01 -0.60930E+04
-0.16799999E+01 -0.24290E+04
-0.16300000E+01  0.29940E+04
-0.15800000E+01  0.10451E+05
-0.15300000E+01  0.20015E+05
-0.14800000E+01  0.31425E+05
-0.14299999E+01  0.44193E+05
-0.13800000E+01  0.57721E+05
-0.13300000E+01  0.71563E+05
-0.12800000E+01  0.85318E+05
-0.12300000E+01  0.99049E+05
-0.11799999E+01  0.11296E+06
-0.11300000E+01  0.12626E+06
-0.10800000E+01  0.13808E+06
-0.10300000E+01  0.14819E+06
-0.98000002E+00  0.15577E+06
-0.93000007E+00  0.16037E+06
-0.87999988E+00  0.16263E+06
-0.82999992E+00  0.16255E+06
-0.77999997E+00  0.16081E+06
-0.73000002E+00  0.15795E+06
-0.68000007E+00  0.15340E+06
-0.62999988E+00  0.14757E+06
-0.57999992E+00  0.14084E+06
-0.52999997E+00  0.13340E+06
-0.48000002E+00  0.12533E+06
-0.43000007E+00  0.11644E+06
-0.37999988E+00  0.10665E+06
-0.32999992E+00  0.96138E+05
-0.27999997E+00  0.85209E+05
-0.23000002E+00  0.74132E+05
-0.18000007E+00  0.63513E+05
-0.12999988E+00  0.54073E+05
-0.79999924E-01  0.46598E+05
-0.29999971E-01  0.40660E+05
 0.19999981E-01  0.35453E+05
 0.69999933E-01  0.30663E+05
 0.12000012E+00  0.25682E+05
 0.17000008E+00  0.20493E+05
 0.22000003E+00  0.15596E+05
 0.26999998E+00  0.11555E+05
 0.31999993E+00  0.82360E+04
 0.37000012E+00  0.55410E+04
 0.42000008E+00  0.30540E+04
 0.47000003E+00  0.68000E+02
 0.51999998E+00 -0.30070E+04
 0.56999993E+00 -0.63930E+04
 0.62000012E+00 -0.99100E+04
 0.67000008E+00 -0.13200E+05
 0.72000003E+00 -0.16647E+05
 0.76999998E+00 -0.19819E+05
 0.81999993E+00 -0.21930E+05
 0.87000012E+00 -0.22381E+05
 0.92000008E+00 -0.21045E+05
 0.97000003E+00 -0.17793E+05
 0.10200000E+01 -0.12807E+05
 0.10700002E+01 -0.60440E+04
 0.11199999E+01  0.30720E+04
 0.11700001E+01  0.14240E+05
 0.12200003E+01  0.26876E+05
 0.12700000E+01  0.40406E+05
 0.13200002E+01  0.54043E+05
 0.13699999E+01  0.67470E+05
 0.14200001E+01  0.80787E+05
 0.14700003E+01  0.93771E+05
 0.15200000E+01  0.10604E+06
 0.15700002E+01  0.11712E+06
 0.16199999E+01  0.12625E+06
 0.16700001E+01  0.13351E+06
 0.17200003E+01  0.13924E+06
 0.17700000E+01  0.14280E+06
 0.18200002E+01  0.14375E+06
 0.18699999E+01  0.14186E+06
 0.19200001E+01  0.13721E+06
 0.19700003E+01  0.13072E+06
 0.20200000E+01  0.12289E+06
 0.20700002E+01  0.11403E+06
 0.21199999E+01  0.10501E+06
 0.21700001E+01  0.96464E+05
 0.22200003E+01  0.88486E+05
 0.22700000E+01  0.80984E+05
 0.23200002E+01  0.73707E+05
 0.23699999E+01  0.66746E+05
 0.24200001E+01  0.59257E+05
 0.24700003E+01  0.50838E+05
 0.25200000E+01  0.42196E+05
 0.25700002E+01  0.33289E+05
 0.26199999E+01  0.24626E+05
 0.26700001E+01  0.16371E+05
 0.27200003E+01  0.84890E+04
 0.27700000E+01  0.15020E+04
 0.28200002E+01 -0.47380E+04
 0.28699999E+01 -0.98680E+04
 0.29200001E+01 -0.14016E+05
 0.29700003E+01 -0.18401E+05
 0.30200000E+01 -0.23349E+05
 0.30700002E+01 -0.28793E+05
 0.31199999E+01 -0.34938E+05
 0.31700001E+01 -0.41921E+05
 0.32200003E+01 -0.49422E+05
 0.32700000E+01 -0.56901E+05
 0.33200002E+01 -0.64419E+05
 0.33699999E+01 -0.71847E+05
 0.34200001E+01 -0.78929E+05
 0.34700003E+01 -0.85550E+05
 0.35200000E+01 -0.91393E+05
 0.35700002E+01 -0.96805E+05
 0.36199999E+01 -0.10124E+06
 0.36700001E+01 -0.10356E+06
 0.37200003E+01 -0.10382E+06
 0.37700000E+01 -0.10204E+06
 0.38200002E+01 -0.98496E+05
 0.38699999E+01 -0.93240E+05
 0.39200001E+01 -0.86144E+05
 0.39700003E+01 -0.78199E+05
 0.40200000E+01 -0.70243E+05
 0.40700002E+01 -0.62682E+05
 0.41199999E+01 -0.55592E+05
 0.41700001E+01 -0.49082E+05
 0.42200003E+01 -0.43515E+05
 0.42700000E+01 -0.39934E+05
 0.43200002E+01 -0.39536E+05
 0.43699999E+01 -0.41961E+05
 0.44200001E+01 -0.46629E+05
 0.44700003E+01 -0.53518E+05
 0.45200000E+01 -0.62079E+05
 0.45700002E+01 -0.71284E+05
 0.46199999E+01 -0.81167E+05
 0.46700001E+01 -0.91808E+05
 0.47200003E+01 -0.10274E+06
 0.47700000E+01 -0.11390E+06
 0.48200002E+01 -0.12500E+06
 0.48699999E+01 -0.13573E+06
 0.49200001E+01 -0.14511E+06
 0.49700003E+01 -0.15237E+06
 0.50200000E+01 -0.15707E+06
 0.50700002E+01 -0.15906E+06
 0.51200004E+01 -0.15904E+06
 0.51700006E+01 -0.15691E+06
 0.52199998E+01 -0.15262E+06
 0.52700000E+01 -0.14650E+06
 0.53200002E+01 -0.13828E+06
 0.53700004E+01 -0.12799E+06
 0.54200006E+01 -0.11629E+06
 0.54699998E+01 -0.10388E+06
 0.55200000E+01 -0.91470E+05
 0.55700002E+01 -0.79924E+05
 0.56200004E+01 -0.69639E+05
 0.56700006E+01 -0.60309E+05
 0.57199998E+01 -0.51338E+05
 0.57700000E+01 -0.42834E+05
 0.58200002E+01 -0.35296E+05
 0.58700004E+01 -0.28774E+05
 0.59200006E+01 -0.23003E+05
 0.59699998E+01 -0.17601E+05
 0.60200000E+01 -0.12583E+05
 0.60700002E+01 -0.76520E+04
 0.61200004E+01 -0.16850E+04
 0.61700006E+01  0.66590E+04
 0.62199998E+01  0.18035E+05
 0.62700000E+01  0.31741E+05
 0.63200002E+01  0.47149E+05
 0.63700004E+01  0.63596E+05
 0.64200006E+01  0.80174E+05
 0.64699998E+01  0.95917E+05
 0.65200000E+01  0.10945E+06
 0.65700002E+01  0.12038E+06
 0.66200004E+01  0.12867E+06
 0.66700006E+01  0.13340E+06
 0.67199998E+01  0.13419E+06
 0.67700000E+01  0.13123E+06
 0.68200002E+01  0.12423E+06
 0.68700004E+01  0.11335E+06
 0.69200006E+01  0.99197E+05
 0.69699998E+01  0.82821E+05
 0.70200000E+01  0.65180E+05
 0.70700002E+01  0.46723E+05
 0.71200004E+01  0.28157E+05
 0.71700006E+01  0.99630E+04
 0.72199998E+01 -0.74970E+04
 0.72700000E+01 -0.24149E+05
 0.73200002E+01 -0.39777E+05
 0.73700004E+01 -0.53778E+05
 0.74200006E+01 -0.65917E+05
 0.74699998E+01 -0.75940E+05
 0.75200000E+01 -0.83599E+05
 0.75700002E+01 -0.89195E+05
 0.76200004E+01 -0.92977E+05
 0.76700006E+01 -0.95256E+05
 0.77199998E+01 -0.96317E+05
 0.77700000E+01 -0.95758E+05
 0.78200002E+01 -0.93690E+05
 0.78700004E+01 -0.90029E+05
 0.79200006E+01 -0.84840E+05
 0.79699998E+01 -0.79038E+05
 0.80200005E+01 -0.72578E+05
 0.80699997E+01 -0.65052E+05
 0.81200008E+01 -0.56405E+05
 0.81700001E+01 -0.46451E+05
 0.82199993E+01 -0.35158E+05
 0.82700005E+01 -0.22507E+05
 0.83199997E+01 -0.86540E+04
 0.83700008E+01  0.61420E+04
 0.84200001E+01  0.21912E+05
 0.84699993E+01  0.38522E+05
 0.85200005E+01  0.56050E+05
 0.85699997E+01  0.73719E+05
 0.86200008E+01  0.89833E+05
 0.86700001E+01  0.10405E+06
 0.87199993E+01  0.11608E+06
 0.87700005E+01  0.12509E+06
 0.88199997E+01  0.13096E+06
 0.88700008E+01  0.13340E+06
 0.89200001E+01  0.13246E+06
 0.89699993E+01  0.12876E+06
 0.90200005E+01  0.12257E+06
 0.90699997E+01  0.11410E+06
 0.91200008E+01  0.10402E+06
 0.91700001E+01  0.92694E+05
 0.92199993E+01  0.80168E+05
 0.92700005E+01  0.67101E+05
 0.93199997E+01  0.54282E+05
 0.93700008E+01  0.42970E+05
 0.94200001E+01  0.33769E+05
 0.94699993E+01  0.26291E+05
 0.95200005E+01  0.20524E+05
 0.95699997E+01  0.16986E+05
 0.96200008E+01  0.16402E+05
 0.96700001E+01  0.18473E+05
 0.97199993E+01  0.22111E+05
 0.97700005E+01  0.26008E+05
 0.98199997E+01  0.29948E+05
 0.98700008E+01  0.34573E+05
 0.99200001E+01  0.40484E+05
 0.99699993E+01  0.48217E+05
 0.10020000E+02  0.57373E+05
 0.10070000E+02  0.67251E+05
 0.10120001E+02  0.76629E+05
 0.10170000E+02  0.84516E+05
 0.10219999E+02  0.91624E+05
 0.10270000E+02  0.97962E+05
 0.10320000E+02  0.10282E+06
 0.10370001E+02  0.10659E+06
 0.10420000E+02  0.10975E+06
 0.10469999E+02  0.11260E+06
 0.10520000E+02  0.11477E+06
 0.10570000E+02  0.11572E+06
 0.10620001E+02  0.11523E+06
 0.10670000E+02  0.11342E+06
 0.10719999E+02  0.11036E+06
 0.10770000E+02  0.10589E+06
 0.10820000E+02  0.10071E+06
 0.10870001E+02  0.95827E+05
 0.10920000E+02  0.91468E+05
 0.10969999E+02  0.87186E+05
 0.11020000E+02  0.83758E+05
 0.11070000E+02  0.81194E+05
 0.11120001E+02  0.78932E+05
 0.11170000E+02  0.77688E+05
 0.11219999E+02  0.76950E+05
 0.11270000E+02  0.76055E+05
 0.11320000E+02  0.75069E+05
 0.11370001E+02  0.73282E+05
 0.11420000E+02  0.70623E+05
 0.11469999E+02  0.67974E+05
 0.11520000E+02  0.64973E+05
 0.11570000E+02  0.61029E+05
 0.11620001E+02  0.56263E+05
 0.11670000E+02  0.50444E+05
 0.11719999E+02  0.44167E+05
 0.11770000E+02  0.37964E+05
 0.11820000E+02  0.31240E+05
 0.11870001E+02  0.24385E+05
 0.11920000E+02  0.17342E+05
 0.11969999E+02  0.98150E+04
 0.12020000E+02  0.23870E+04
 0.12070000E+02 -0.51280E+04
 0.12120001E+02 -0.11556E+05
 0.12170000E+02 -0.16245E+05
 0.12219999E+02 -0.20168E+05
 0.12270000E+02 -0.23955E+05
 0.12320000E+02 -0.28419E+05
 0.12370001E+02 -0.33080E+05
 0.12420000E+02 -0.37506E+05
 0.12469999E+02 -0.42179E+05
 0.12520000E+02 -0.47145E+05
 0.12570000E+02 -0.52747E+05
 0.12620001E+02 -0.58758E+05
 0.12670000E+02 -0.65070E+05
 0.12719999E+02 -0.72407E+05
 0.12770000E+02 -0.80054E+05
 0.12820000E+02 -0.87893E+05
 0.12870001E+02 -0.95614E+05
 0.12920000E+02 -0.10160E+06
 0.12969999E+02 -0.10548E+06
 0.13020000E+02 -0.10693E+06
 0.13070002E+02 -0.10523E+06
 0.13120001E+02 -0.10007E+06
 0.13170000E+02 -0.92162E+05
 0.13220001E+02 -0.82495E+05
 0.13270000E+02 -0.71808E+05
 0.13320002E+02 -0.60568E+05
 0.13370001E+02 -0.49242E+05
 0.13420000E+02 -0.38760E+05
 0.13470001E+02 -0.29826E+05
 0.13520000E+02 -0.22548E+05
 0.13570002E+02 -0.16705E+05
 0.13620001E+02 -0.12935E+05
 0.13670000E+02 -0.11170E+05
 0.13720001E+02 -0.10713E+05
 0.13770000E+02 -0.11604E+05
 0.13820002E+02 -0.14085E+05
 0.13870001E+02 -0.18564E+05
 0.13920000E+02 -0.24996E+05
 0.13970001E+02 -0.33147E+05
 0.14020000E+02 -0.43118E+05
 0.14070002E+02 -0.54552E+05
 0.14120001E+02 -0.66402E+05
 0.14170000E+02 -0.78433E+05
 0.14220001E+02 -0.90173E+05
 0.14270000E+02 -0.10139E+06
 0.14320002E+02 -0.11228E+06
 0.14370001E+02 -0.12165E+06
 0.14420000E+02 -0.12912E+06
 0.14470001E+02 -0.13450E+06
 0.14520000E+02 -0.13733E+06
 0.14570002E+02 -0.13720E+06
 0.14620001E+02 -0.13381E+06
 0.14670000E+02 -0.12847E+06
 0.14720001E+02 -0.12137E+06
 0.14770000E+02 -0.11210E+06
 0.14820002E+02 -0.10110E+06
 0.14870001E+02 -0.88838E+05
 0.14920000E+02 -0.76632E+05
 0.14970001E+02 -0.64843E+05
 0.15020000E+02 -0.53681E+05
 0.15070002E+02 -0.44182E+05
 0.15120001E+02 -0.35991E+05
 0.15170000E+02 -0.28834E+05
 0.15220001E+02 -0.23070E+05
 0.15270000E+02 -0.18446E+05
 0.15320002E+02 -0.14945E+05
 0.15370001E+02 -0.12176E+05
 0.15420000E+02 -0.97140E+04
 0.15470001E+02 -0.75820E+04
 0.15520000E+02 -0.53400E+04
 0.15570002E+02 -0.27820E+04
 0.15620001E+02  0.11700E+03
 0.15670000E+02  0.34080E+04
 0.15720001E+02  0.66430E+04
 0.15770000E+02  0.93890E+04
 0.15820002E+02  0.11539E+05
 0.15870001E+02  0.13091E+05
 0.15920000E+02  0.14050E+05
 0.15970001E+02  0.13987E+05
 0.16020000E+02  0.12726E+05
 0.16070002E+02  0.10848E+05
 0.16120001E+02  0.80910E+04
 0.16170000E+02  0.42520E+04
 0.16220001E+02  0.30600E+03
 0.16270000E+02 -0.32160E+04
 0.16320002E+02 -0.56170E+04
 0.16370001E+02 -0.59220E+04
 0.16420000E+02 -0.39990E+04
 0.16470001E+02  0.33000E+02
 0.16520000E+02  0.59190E+04
 0.16570002E+02  0.13479E+05
 0.16620001E+02  0.22529E+05
 0.16670000E+02  0.32440E+05
 0.16720001E+02  0.42650E+05
 0.16770000E+02  0.52385E+05
 0.16820002E+02  0.61590E+05
 0.16870001E+02  0.70282E+05
 0.16920000E+02  0.77228E+05
 0.16970001E+02  0.82146E+05
 0.17020000E+02  0.84464E+05
 0.17070002E+02  0.83770E+05
 0.17120001E+02  0.80838E+05
 0.17170000E+02  0.76032E+05
 0.17220001E+02  0.69927E+05
 0.17270000E+02  0.62780E+05
 0.17320002E+02  0.54762E+05
 0.17370001E+02  0.46139E+05
 0.17420000E+02  0.37496E+05
 0.17470001E+02  0.29722E+05
 0.17520000E+02  0.23448E+05
 0.17570002E+02  0.19068E+05
 0.17620001E+02  0.15576E+05
 0.17670000E+02  0.12743E+05
 0.17720001E+02  0.11267E+05
 0.17770000E+02  0.10501E+05
 0.17820002E+02  0.10027E+05
 0.17870001E+02  0.93040E+04
 0.17920000E+02  0.82440E+04
 0.17970001E+02  0.68320E+04
 0.18020000E+02  0.41960E+04
 0.18070002E+02  0.96600E+03
 0.18120001E+02 -0.27320E+04
 0.18170000E+02 -0.75170E+04
 0.18220001E+02 -0.12941E+05
 0.18270000E+02 -0.18220E+05
 0.18320002E+02 -0.22213E+05
 0.18370001E+02 -0.24517E+05
 0.18420000E+02 -0.25078E+05
 0.18470001E+02 -0.23783E+05
 0.18520000E+02 -0.20831E+05
 0.18570002E+02 -0.16213E+05
 0.18620001E+02 -0.10326E+05
 0.18670000E+02 -0.33620E+04
 0.18720001E+02  0.47660E+04
 0.18770000E+02  0.13437E+05
 0.18820002E+02  0.22011E+05
 0.18870001E+02  0.30513E+05
 0.18920000E+02  0.38749E+05
 0.18970001E+02  0.45926E+05
 0.19020000E+02  0.51428E+05
 0.19070002E+02  0.54539E+05
 0.19120001E+02  0.55066E+05
 0.19170000E+02  0.53746E+05
 0.19220001E+02  0.50809E+05
 0.19270000E+02  0.46840E+05
 0.19320002E+02  0.42017E+05
 0.19370001E+02  0.35416E+05
 0.19420000E+02  0.27305E+05
 0.19470001E+02  0.18662E+05
 0.19520000E+02  0.10068E+05
 0.19570002E+02  0.16770E+04
 0.19620001E+02 -0.59740E+04
 0.19670000E+02 -0.12767E+05
 0.19720001E+02 -0.19229E+05
 0.19770000E+02 -0.24942E+05
 0.19820002E+02 -0.29524E+05
 0.19870001E+02 -0.32921E+05
 0.19920000E+02 -0.35561E+05
 0.19970001E+02 -0.38025E+05
 0.20020000E+02 -0.40525E+05
 0.20070002E+02 -0.42952E+05
 0.20120001E+02 -0.44881E+05
 0.20170000E+02 -0.46109E+05
 0.20220001E+02 -0.46053E+05
 0.20270000E+02 -0.44634E+05
 0.20320002E+02 -0.42206E+05
 0.20370001E+02 -0.38771E+05
 0.20420000E+02 -0.34445E+05
 0.20470001E+02 -0.28808E+05
 0.20520000E+02 -0.21281E+05
 0.20570002E+02 -0.11272E+05
 0.20620001E+02  0.10350E+04
 0.20670000E+02  0.14569E+05
 0.20720001E+02  0.28534E+05
 0.20770000E+02  0.42117E+05
 0.20820002E+02  0.55260E+05
 0.20870001E+02  0.67458E+05
 0.20920000E+02  0.77851E+05
 0.20970001E+02  0.86313E+05
 0.21020000E+02  0.92607E+05
 0.21070002E+02  0.96658E+05
 0.21120001E+02  0.98086E+05
 0.21170000E+02  0.97437E+05
 0.21220001E+02  0.95212E+05
 0.21270000E+02  0.90865E+05
 0.21320002E+02  0.84433E+05
 0.21370001E+02  0.76641E+05
 0.21420000E+02  0.68302E+05
 0.21470001E+02  0.59164E+05
 0.21520000E+02  0.49369E+05
 0.21570002E+02  0.39590E+05
 0.21620001E+02  0.29436E+05
 0.21670000E+02  0.18901E+05
 0.21720001E+02  0.86470E+04
 0.21770000E+02 -0.99300E+03
 0.21820002E+02 -0.10136E+05
 0.21870001E+02 -0.19557E+05
 0.21920000E+02 -0.29509E+05
 0.21970001E+02 -0.39304E+05
 0.22020000E+02 -0.47786E+05
 0.22070002E+02 -0.54455E+05
 0.22120001E+02 -0.60158E+05
 0.22170000E+02 -0.65032E+05
 0.22220001E+02 -0.69107E+05
 0.22270000E+02 -0.72671E+05
 0.22320002E+02 -0.75371E+05
 0.22370001E+02 -0.76607E+05
 0.22420000E+02 -0.76259E+05
 0.22470001E+02 -0.74927E+05
 0.22520000E+02 -0.72933E+05
 0.22570002E+02 -0.70246E+05
 0.22620001E+02 -0.66795E+05
 0.22670000E+02 -0.62829E+05
 0.22720001E+02 -0.58141E+05
 0.22770000E+02 -0.53007E+05
 0.22820002E+02 -0.47553E+05
 0.22870001E+02 -0.41441E+05
 0.22920000E+02 -0.35329E+05
 0.22970001E+02 -0.29086E+05
 0.23020000E+02 -0.22972E+05
 0.23070002E+02 -0.16651E+05
 0.23120001E+02 -0.10022E+05
 0.23170000E+02 -0.37720E+04
 0.23220001E+02  0.28000E+04
 0.23270000E+02  0.96420E+04
 0.23320002E+02  0.16920E+05
 0.23370001E+02  0.24633E+05
 0.23420000E+02  0.32435E+05
 0.23470001E+02  0.40317E+05
 0.23520000E+02  0.48298E+05
 0.23570002E+02  0.56969E+05
 0.23620001E+02  0.66631E+05
 0.23670000E+02  0.77371E+05
 0.23720001E+02  0.88857E+05
 0.23770000E+02  0.10016E+06
 0.23820002E+02  0.11051E+06
 0.23870001E+02  0.11956E+06
 0.23920000E+02  0.12714E+06
 0.23970001E+02  0.13319E+06
 0.24020000E+02  0.13721E+06
 0.24070002E+02  0.13912E+06
 0.24120001E+02  0.13935E+06
 0.24170000E+02  0.13816E+06
 0.24220001E+02  0.13617E+06
 0.24270000E+02  0.13316E+06
 0.24320002E+02  0.12910E+06
 0.24370001E+02  0.12383E+06
 0.24420000E+02  0.11625E+06
 0.24470001E+02  0.10643E+06
 0.24520000E+02  0.94670E+05
 0.24570002E+02  0.81194E+05
 0.24620001E+02  0.66687E+05
 0.24670000E+02  0.51536E+05
 0.24720001E+02  0.35387E+05
 0.24770000E+02  0.18048E+05
 0.24820002E+02  0.23700E+03
 0.24870001E+02 -0.17538E+05
 0.24920000E+02 -0.34782E+05
 0.24970001E+02 -0.50798E+05
 0.25020000E+02 -0.64890E+05
 0.25070002E+02 -0.76389E+05
 0.25120001E+02 -0.85387E+05
 0.25170000E+02 -0.92327E+05
 0.25220001E+02 -0.97126E+05
 0.25270000E+02 -0.99471E+05
 0.25320002E+02 -0.99144E+05
 0.25370001E+02 -0.96293E+05
 0.25420000E+02 -0.91880E+05
 0.25470001E+02 -0.86150E+05
 0.25520000E+02 -0.78759E+05
 0.25570002E+02 -0.70576E+05
 0.25620001E+02 -0.62229E+05
 0.25670000E+02 -0.53288E+05
 0.25720001E+02 -0.43622E+05
 0.25770000E+02 -0.33464E+05
 0.25820002E+02 -0.23281E+05
 0.25870001E+02 -0.13340E+05
 0.25920000E+02 -0.36220E+04
 0.25970001E+02  0.51010E+04
 0.26020000E+02  0.12130E+05
 0.26070002E+02  0.17777E+05
 0.26120001E+02  0.22292E+05
 0.26170000E+02  0.26021E+05
 0.26220001E+02  0.29093E+05
 0.26270000E+02  0.31232E+05
 0.26320002E+02  0.32958E+05
 0.26370001E+02  0.34325E+05
 0.26420000E+02  0.35950E+05
 0.26470001E+02  0.38685E+05
 0.26520000E+02  0.41898E+05
 0.26570002E+02  0.45488E+05
 0.26620001E+02  0.48987E+05
 0.26670000E+02  0.51288E+05
 0.26720001E+02  0.52495E+05
 0.26770000E+02  0.53395E+05
 0.26820002E+02  0.54313E+05
 0.26870001E+02  0.55428E+05
 0.26920000E+02  0.55788E+05
 0.26970001E+02  0.54816E+05
 0.27020000E+02  0.53699E+05
 0.27070002E+02  0.52204E+05
 0.27120001E+02  0.49943E+05
 0.27170000E+02  0.47193E+05
 0.27220001E+02  0.44185E+05
 0.27270000E+02  0.41492E+05
 0.27320002E+02  0.38912E+05
 0.27370001E+02  0.36285E+05
 0.27420000E+02  0.33537E+05
 0.27470001E+02  0.30174E+05
 0.27520000E+02  0.26312E+05
 0.27570002E+02  0.22208E+05
 0.27620001E+02  0.17950E+05
 0.27670000E+02  0.13401E+05
 0.27720001E+02  0.82630E+04
 0.27770000E+02  0.28650E+04
 0.27820002E+02 -0.25800E+04
 0.27870001E+02 -0.85960E+04
 0.27920000E+02 -0.16043E+05
 0.27970001E+02 -0.24871E+05
 0.28020000E+02 -0.34436E+05
 0.28070002E+02 -0.44315E+05
 0.28120001E+02 -0.53797E+05
 0.28170000E+02 -0.62356E+05
 0.28220001E+02 -0.69538E+05
 0.28270000E+02 -0.75266E+05
 0.28320002E+02 -0.79617E+05
 0.28370001E+02 -0.82342E+05
 0.28420000E+02 -0.83871E+05
 0.28470001E+02 -0.84963E+05
 0.28520000E+02 -0.85844E+05
 0.28570002E+02 -0.86566E+05
 0.28620001E+02 -0.86748E+05
 0.28670000E+02 -0.85748E+05
 0.28720001E+02 -0.83711E+05
 0.28770000E+02 -0.80926E+05
 0.28820002E+02 -0.78060E+05
 0.28870001E+02 -0.75762E+05
 0.28920000E+02 -0.73826E+05
 0.28970001E+02 -0.72430E+05
 0.29020000E+02 -0.71643E+05
 0.29070000E+02 -0.70323E+05
 0.29120003E+02 -0.67638E+05
 0.29170002E+02 -0.63975E+05
 0.29220001E+02 -0.59812E+05
 0.29270000E+02 -0.55835E+05
 0.29320000E+02 -0.52073E+05
 0.29370003E+02 -0.47837E+05
 0.29420002E+02 -0.43401E+05
 0.29470001E+02 -0.39121E+05
 0.29520000E+02 -0.34104E+05
 0.29570000E+02 -0.27761E+05
 0.29620003E+02 -0.20642E+05
 0.29670002E+02 -0.12884E+05
 0.29720001E+02 -0.49900E+04
 0.29770000E+02  0.26950E+04
 0.29820000E+02  0.10642E+05
 0.29870003E+02  0.18548E+05
 0.29920002E+02  0.26274E+05
 0.29970001E+02  0.33607E+05
 0.30020000E+02  0.40316E+05
 0.30070000E+02  0.46574E+05
 0.30120003E+02  0.51131E+05
 0.30170002E+02  0.53439E+05
 0.30220001E+02  0.54164E+05
 0.30270000E+02  0.53764E+05
 0.30320000E+02  0.52451E+05
 0.30370003E+02  0.49692E+05
 0.30420002E+02  0.46492E+05
 0.30470001E+02  0.42973E+05
 0.30520000E+02  0.37949E+05
 0.30570000E+02  0.32100E+05
 0.30620003E+02  0.25403E+05
 0.30670002E+02  0.17641E+05
 0.30720001E+02  0.91960E+04
 0.30770000E+02 -0.26500E+03
 0.30820000E+02 -0.10946E+05
 0.30870003E+02 -0.21730E+05
 0.30920002E+02 -0.31364E+05
 0.30970001E+02 -0.39644E+05
 0.31020000E+02 -0.46431E+05
 0.31070000E+02 -0.52015E+05
 0.31120003E+02 -0.56931E+05
 0.31170002E+02 -0.61446E+05
 0.31220001E+02 -0.65681E+05
 0.31270000E+02 -0.69520E+05
 0.31320000E+02 -0.72630E+05
 0.31370003E+02 -0.75204E+05
 0.31420002E+02 -0.76996E+05
 0.31470001E+02 -0.76943E+05
 0.31520000E+02 -0.74892E+05
 0.31570000E+02 -0.71307E+05
 0.31620003E+02 -0.66896E+05
 0.31670002E+02 -0.61811E+05
 0.31720001E+02 -0.56292E+05
 0.31770000E+02 -0.51029E+05
 0.31820000E+02 -0.45229E+05
 0.31870003E+02 -0.37844E+05
 0.31920002E+02 -0.29293E+05
 0.31970001E+02 -0.19895E+05
 0.32020000E+02 -0.98530E+04
 0.32070000E+02  0.42000E+03
 0.32120003E+02  0.11446E+05
 0.32170002E+02  0.23480E+05
 0.32220001E+02  0.36419E+05
 0.32270000E+02  0.50049E+05
 0.32320000E+02  0.63178E+05
 0.32370003E+02  0.75762E+05
 0.32420002E+02  0.88249E+05
 0.32470001E+02  0.10062E+06
 0.32520000E+02  0.11345E+06
 0.32570000E+02  0.12624E+06
 0.32620003E+02  0.13827E+06
 0.32670002E+02  0.14862E+06
 0.32720001E+02  0.15710E+06
 0.32770000E+02  0.16416E+06
 0.32820000E+02  0.16954E+06
 0.32870003E+02  0.17374E+06
 0.32920002E+02  0.17633E+06
 0.32970001E+02  0.17697E+06
 0.33020000E+02  0.17608E+06
 0.33070000E+02  0.17305E+06
 0.33120003E+02  0.16730E+06
 0.33170002E+02  0.15939E+06
 0.33220001E+02  0.14932E+06
 0.33270000E+02  0.13671E+06
 0.33320000E+02  0.12225E+06
 0.33370003E+02  0.10664E+06
 0.33420002E+02  0.90389E+05
 0.33470001E+02  0.73827E+05
 0.33520000E+02  0.57333E+05
 0.33570000E+02  0.41041E+05
 0.33620003E+02  0.25114E+05
 0.33670002E+02  0.93670E+04
 0.33720001E+02 -0.62730E+04
 0.33770000E+02 -0.21064E+05
 0.33820000E+02 -0.34953E+05
 0.33870003E+02 -0.47491E+05
 0.33920002E+02 -0.57969E+05
 0.33970001E+02 -0.65815E+05
 0.34020000E+02 -0.70825E+05
 0.34070000E+02 -0.73239E+05
 0.34120003E+02 -0.72758E+05
 0.34170002E+02 -0.70530E+05
 0.34220001E+02 -0.67529E+05
 0.34270000E+02 -0.63831E+05
 0.34320000E+02 -0.59874E+05
 0.34370003E+02 -0.54668E+05
 0.34420002E+02 -0.48545E+05
 0.34470001E+02 -0.41530E+05
 0.34520000E+02 -0.32485E+05
 0.34570000E+02 -0.22644E+05
 0.34620003E+02 -0.13036E+05
 0.34670002E+02 -0.49790E+04
 0.34720001E+02  0.15490E+04
 0.34770000E+02  0.65920E+04
 0.34820000E+02  0.93330E+04
 0.34870003E+02  0.11432E+05
 0.34920002E+02  0.13498E+05
 0.34970001E+02  0.16018E+05
 0.35020000E+02  0.18638E+05
 0.35070000E+02  0.20675E+05
 0.35120003E+02  0.22579E+05
 0.35170002E+02  0.24113E+05
 0.35220001E+02  0.25645E+05
 0.35270000E+02  0.27679E+05
 0.35320000E+02  0.30159E+05
 0.35370003E+02  0.32761E+05
 0.35420002E+02  0.34272E+05
 0.35470001E+02  0.35158E+05
 0.35520000E+02  0.35992E+05
 0.35570000E+02  0.34047E+05
 0.35620003E+02  0.30326E+05
 0.35670002E+02  0.27347E+05
 0.35720001E+02  0.25064E+05
 0.35770000E+02  0.22079E+05
 0.35820000E+02  0.17573E+05
 0.35870003E+02  0.14120E+05
 0.35920002E+02  0.11164E+05
 0.35970001E+02  0.64600E+04
 0.36020000E+02  0.21580E+04
 0.36070000E+02 -0.39800E+03
 0.36120003E+02 -0.38170E+04
 0.36170002E+02 -0.92280E+04
 0.36220001E+02 -0.13916E+05
 0.36270000E+02 -0.17875E+05
 0.36320000E+02 -0.21615E+05
 0.36370003E+02 -0.23268E+05
 0.36420002E+02 -0.22412E+05
 0.36470001E+02 -0.18598E+05
 0.36520000E+02 -0.16103E+05
 0.36570000E+02 -0.17020E+05
 0.36620003E+02 -0.16779E+05
 0.36670002E+02 -0.15724E+05
 0.36720001E+02 -0.14301E+05
 0.36770000E+02 -0.13206E+05
 0.36820000E+02 -0.13061E+05
 0.36870003E+02 -0.11033E+05
 0.36920002E+02 -0.13361E+05
 0.36970001E+02 -0.21125E+05
 0.37020000E+02 -0.27584E+05
 0.37070000E+02 -0.36818E+05
 0.37120003E+02 -0.50465E+05
 0.37170002E+02 -0.63381E+05
 0.37220001E+02 -0.75358E+05
 0.37270000E+02 -0.89150E+05
 0.37320000E+02 -0.10190E+06
 0.37370003E+02 -0.11153E+06
 0.37420002E+02 -0.11801E+06
 0.37470001E+02 -0.12058E+06
 0.37520000E+02 -0.12161E+06
 0.37570000E+02 -0.12185E+06
 0.37620003E+02 -0.11964E+06
 0.37670002E+02 -0.11446E+06
 0.37720001E+02 -0.10491E+06
 0.37770000E+02 -0.90278E+05
 0.37820000E+02 -0.75954E+05
 0.37870003E+02 -0.60376E+05
 0.37920002E+02 -0.43586E+05
 0.37970001E+02 -0.32827E+05
 0.38020000E+02 -0.23338E+05
 0.38070000E+02 -0.93020E+04
 0.38120003E+02  0.60610E+04
 0.38170002E+02  0.20633E+05
 0.38220001E+02  0.33191E+05
 0.38270000E+02  0.44581E+05
 0.38320000E+02  0.62373E+05
 0.38370003E+02  0.77592E+05
 0.38420002E+02  0.86301E+05
 0.38470001E+02  0.10088E+06
 0.38520000E+02  0.11512E+06
 0.38570000E+02  0.12404E+06
 0.38620003E+02  0.13046E+06
 0.38670002E+02  0.13626E+06
 0.38720001E+02  0.14440E+06
 0.38770000E+02  0.14977E+06
 0.38820000E+02  0.14577E+06
 0.38870003E+02  0.14074E+06
 0.38920002E+02  0.13983E+06
 0.38970001E+02  0.13511E+06
 0.39020000E+02  0.12649E+06
 0.39070000E+02  0.11587E+06
 0.39120003E+02  0.10503E+06
 0.39170002E+02  0.94939E+05
 0.39220001E+02  0.84755E+05
 0.39270000E+02  0.74311E+05
 0.39320000E+02  0.65939E+05
 0.39370003E+02  0.56932E+05
 0.39420002E+02  0.45421E+05
 0.39470001E+02  0.36874E+05
 0.39520000E+02  0.26611E+05
 0.39570000E+02  0.17134E+05
 0.39620003E+02  0.82160E+04
 0.39670002E+02 -0.85430E+04
 0.39720001E+02 -0.20746E+05
 0.39770000E+02 -0.22939E+05
 0.39820000E+02 -0.28734E+05
 0.39870003E+02 -0.33685E+05
 0.39920002E+02 -0.33866E+05
 0.39970001E+02 -0.38948E+05
 0.40020000E+02 -0.51426E+05
 0.40070000E+02 -0.65197E+05
 0.40120003E+02 -0.60508E+05
 0.40170002E+02 -0.44893E+05
 0.40220001E+02 -0.46212E+05
 0.40270000E+02 -0.57595E+05
 0.40320000E+02 -0.70538E+05
 0.40370003E+02 -0.81002E+05
 0.40420002E+02 -0.83385E+05
 0.40470001E+02 -0.93326E+05
 0.40520000E+02 -0.99444E+05
 0.40570000E+02 -0.99865E+05
 0.40620003E+02 -0.11342E+06
 0.40670002E+02 -0.11964E+06
 0.40720001E+02 -0.12010E+06
 0.40770000E+02 -0.11974E+06
 0.40820000E+02 -0.11039E+06
 0.40870003E+02 -0.90821E+05
 0.40920002E+02 -0.58618E+05
 0.40970001E+02 -0.35645E+05
 0.41020000E+02 -0.23745E+05
 0.41070000E+02 -0.82350E+04
 0.41120003E+02  0.89050E+04
 0.41170002E+02  0.14381E+05
 0.41220001E+02  0.90410E+04
 0.41270000E+02  0.69240E+04
 0.41320000E+02 -0.81400E+03
 0.41370003E+02 -0.93340E+04
 0.41420002E+02 -0.70250E+04
 0.41470001E+02 -0.23800E+03
 0.41520000E+02  0.70090E+04
 0.41570000E+02  0.68810E+04
 0.41620003E+02  0.72280E+04
 0.41670002E+02  0.18177E+05
 0.41720001E+02  0.25371E+05
 0.41770000E+02  0.35214E+05
 0.41820000E+02  0.56375E+05
 0.41870003E+02  0.76836E+05
 0.41920002E+02  0.96676E+05
 0.41970001E+02  0.10417E+06
 0.42020000E+02  0.92204E+05
 0.42070000E+02  0.95865E+05
 0.42120003E+02  0.11477E+06
 0.42170002E+02  0.12042E+06
 0.42220001E+02  0.11500E+06
 0.42270000E+02  0.90983E+05
 0.42320000E+02  0.69145E+05
 0.42370003E+02  0.74515E+05
 0.42420002E+02  0.73321E+05
 0.42470001E+02  0.48084E+05
 0.42520000E+02  0.19045E+05
 0.42570000E+02 -0.13200E+05
 0.42620003E+02 -0.53501E+05
 0.42670002E+02 -0.89445E+05
 0.42720001E+02 -0.11272E+06
 0.42770000E+02 -0.10588E+06
 0.42820000E+02 -0.72531E+05
 0.42870003E+02 -0.41688E+05
 0.42920002E+02 -0.31258E+05
 0.42970001E+02 -0.64482E+05
 0.43020000E+02 -0.88503E+05
 0.43070000E+02 -0.48891E+05
 0.43120003E+02 -0.12723E+05
 0.43170002E+02  0.87080E+04
 0.43220001E+02  0.32063E+05
 0.43270000E+02  0.28926E+05
 0.43320000E+02  0.19182E+05
 0.43370003E+02  0.93680E+04
 0.43420002E+02  0.46700E+03
 0.43470001E+02  0.21796E+05
 0.43520000E+02  0.64675E+05
 0.43570000E+02  0.85474E+05
 0.43620003E+02  0.65401E+05
 0.43670002E+02  0.95850E+04
 0.43720001E+02 -0.46834E+05
 0.43770000E+02 -0.41507E+05
 0.43820000E+02  0.13745E+05
 0.43870003E+02  0.66944E+05
 0.43920002E+02  0.10602E+06
 0.43970001E+02  0.11382E+06
 0.44020000E+02  0.83588E+05
 0.44070000E+02  0.40348E+05
 0.44120003E+02  0.30570E+04
 0.44170002E+02 -0.32479E+05
 0.44220001E+02 -0.57531E+05
 0.44270000E+02 -0.34120E+05
 0.44320000E+02  0.30667E+05
 0.44370003E+02  0.63704E+05
 0.44420002E+02  0.39153E+05
 0.44470001E+02  0.83510E+04
 0.44520000E+02 -0.14032E+05
 0.44570000E+02 -0.15332E+05
 0.44620003E+02  0.18713E+05
 0.44670002E+02  0.41969E+05
 0.44720001E+02  0.59369E+05
 0.44770000E+02  0.89103E+05
 0.44820000E+02  0.87586E+05
 0.44870003E+02  0.39736E+05
 0.44920002E+02  0.91290E+04
 0.44970001E+02  0.43631E+05
 0.45020000E+02  0.71442E+05
 0.45070000E+02  0.34551E+05
 0.45120003E+02 -0.18215E+05
 0.45170002E+02 -0.43487E+05
 0.45220001E+02 -0.36427E+05
 0.45270000E+02  0.54060E+04
 0.45320000E+02  0.61033E+05
 0.45370003E+02  0.11934E+06
 0.45420002E+02  0.18370E+06
 0.45470001E+02  0.20326E+06
 0.45520000E+02  0.16382E+06
 0.45570000E+02  0.11136E+06
 0.45620003E+02  0.48454E+05
 0.45670002E+02 -0.11619E+05
 0.45720001E+02 -0.33694E+05
 0.45770000E+02 -0.30811E+05
 0.45820000E+02 -0.34268E+05
 0.45870003E+02 -0.40450E+05
 0.45920002E+02 -0.11564E+05
 0.45970001E+02  0.47187E+05
 0.46020000E+02  0.92932E+05
 0.46070000E+02  0.10628E+06
 0.46120003E+02  0.90234E+05
 0.46170002E+02  0.82951E+05
 0.46220001E+02  0.96801E+05
 0.46270000E+02  0.95227E+05
 0.46320000E+02  0.71605E+05
 0.46370003E+02  0.60660E+05
 0.46420002E+02  0.93339E+05
 0.46470001E+02  0.13154E+06
 0.46520000E+02  0.12000E+06
 0.46570000E+02  0.81187E+05
 0.46620003E+02  0.38317E+05
 0.46670002E+02 -0.11820E+05
 0.46720001E+02 -0.39251E+05
 0.46770000E+02 -0.34611E+05
 0.46820000E+02 -0.15005E+05
 0.46870003E+02  0.56260E+04
 0.46920002E+02 -0.83290E+04
 0.46970001E+02 -0.51445E+05
 0.47020000E+02 -0.10969E+06
 0.47070000E+02 -0.17697E+06
 0.47120003E+02 -0.19338E+06
 0.47170002E+02 -0.13768E+06
 0.47220001E+02 -0.64938E+05
 0.47270000E+02 -0.18268E+05
 0.47320000E+02  0.32886E+05
 0.47370003E+02  0.92056E+05
 0.47420002E+02  0.10182E+06
 0.47470001E+02  0.50320E+05
 0.47520000E+02 -0.13133E+05
 0.47570000E+02 -0.28335E+05
 0.47620003E+02 -0.23749E+05
 0.47670002E+02 -0.75740E+05
 0.47720001E+02 -0.19592E+06
 0.47770000E+02 -0.31270E+06
 0.47820000E+02 -0.35560E+06
 0.47870003E+02 -0.32717E+06
 0.47920002E+02 -0.23700E+06
 0.47970001E+02 -0.12066E+06
 0.48020000E+02  0.61000E+03
 0.48070000E+02  0.11238E+06
 0.48120003E+02  0.13905E+06
 0.48170002E+02  0.10879E+06
 0.48220001E+02  0.10951E+06
 0.48270000E+02  0.13008E+06
 0.48320000E+02  0.14763E+06
 0.48370003E+02  0.15863E+06
 0.48420002E+02  0.12876E+06
 0.48470001E+02  0.61144E+05
 0.48520000E+02 -0.20060E+04
 0.48570000E+02 -0.24006E+05
 0.48620003E+02  0.18824E+05
 0.48670002E+02  0.73515E+05
 0.48720001E+02  0.70222E+05
 0.48770000E+02 -0.43500E+04
 0.48820000E+02 -0.13137E+06
 0.48870003E+02 -0.25107E+06
 0.48920002E+02 -0.27927E+06
 0.48970001E+02 -0.20736E+06
 0.49020000E+02 -0.91863E+05
 0.49070000E+02  0.16108E+05
 0.49120003E+02  0.67986E+05
 0.49170002E+02  0.82163E+05
 0.49220001E+02  0.10223E+06
 0.49270000E+02  0.12579E+06
 0.49320000E+02  0.12839E+06
 0.49370003E+02  0.86300E+05
 0.49420002E+02 -0.26586E+05
 0.49470001E+02 -0.23312E+06
 0.49520000E+02 -0.44224E+06
 0.49570000E+02 -0.52958E+06
 0.49620003E+02 -0.49940E+06
 0.49670002E+02 -0.40352E+06
 0.49720001E+02 -0.26934E+06
 0.49770000E+02 -0.15110E+06
 0.49820000E+02 -0.76130E+05
 0.49870003E+02  0.61710E+04
 0.49920002E+02  0.11341E+06
 0.49970001E+02  0.24477E+06
 0.50020000E+02  0.38082E+06
 0.50070000E+02  0.43544E+06
 0.50120003E+02  0.38076E+06
 0.50170002E+02  0.25799E+06
 0.50220001E+02  0.13642E+06
 0.50270000E+02  0.44773E+05
 0.50320000E+02 -0.60794E+05
 0.50370003E+02 -0.16846E+06
 0.50420002E+02 -0.25110E+06
 0.50470001E+02 -0.27647E+06
 0.50520000E+02 -0.25606E+06
 0.50570000E+02 -0.27224E+06
 0.50620003E+02 -0.30398E+06
 0.50670002E+02 -0.30027E+06
 0.50720001E+02 -0.26248E+06
 0.50770000E+02 -0.20397E+06
 0.50820000E+02 -0.12374E+06
 0.50870003E+02 -0.21739E+05
 0.50920002E+02  0.79277E+05
 0.50970001E+02  0.16532E+06
 0.51020000E+02  0.21784E+06
 0.51070000E+02  0.24994E+06
 0.51120003E+02  0.26372E+06
 0.51170002E+02  0.23862E+06
 0.51220001E+02  0.19778E+06
 0.51270000E+02  0.15606E+06
 0.51320000E+02  0.99168E+05
 0.51370003E+02  0.38336E+05
 0.51420002E+02  0.20697E+05
 0.51470001E+02  0.52456E+05
 0.51520000E+02  0.91791E+05
 0.51570000E+02  0.10171E+06
 0.51620003E+02  0.50545E+05
 0.51670002E+02 -0.75314E+05
 0.51720001E+02 -0.22596E+06
 0.51770000E+02 -0.32853E+06
 0.51820000E+02 -0.36120E+06
 0.51870003E+02 -0.32998E+06
 0.51920002E+02 -0.23216E+06
 0.51970001E+02 -0.10361E+06
 0.52020000E+02 -0.25292E+05
 0.52070000E+02  0.81400E+03
 0.52120003E+02  0.18236E+05
 0.52170002E+02  0.16161E+05
 0.52220001E+02 -0.17799E+05
 0.52270000E+02 -0.40496E+05
 0.52320000E+02  0.88050E+04
 0.52370003E+02  0.13999E+06
 0.52420002E+02  0.30750E+06
 0.52470001E+02  0.43803E+06
 0.52520000E+02  0.51222E+06
 0.52570000E+02  0.54451E+06
 0.52620003E+02  0.52032E+06
 0.52670002E+02  0.43301E+06
 0.52720001E+02  0.27403E+06
 0.52770000E+02  0.65951E+05
 0.52820000E+02 -0.10833E+06
 0.52870003E+02 -0.20815E+06
 0.52920002E+02 -0.25761E+06
 0.52970001E+02 -0.26058E+06
 0.53020000E+02 -0.22928E+06
 0.53070000E+02 -0.18179E+06
 0.53120003E+02 -0.12235E+06
 0.53170002E+02 -0.10646E+06
 0.53220001E+02 -0.15643E+06
 0.53270000E+02 -0.20290E+06
 0.53320000E+02 -0.18867E+06
 0.53370003E+02 -0.11020E+06
 0.53420002E+02 -0.91100E+03
 0.53470001E+02  0.84116E+05
 0.53520000E+02  0.10297E+06
 0.53570000E+02  0.47158E+05
 0.53620003E+02 -0.52715E+05
 0.53670002E+02 -0.14514E+06
 0.53720001E+02 -0.19878E+06
 0.53770000E+02 -0.19843E+06
 0.53820000E+02 -0.13468E+06
 0.53870003E+02 -0.42149E+05
 0.53920002E+02  0.38184E+05
 0.53970001E+02  0.10655E+06
 0.54020000E+02  0.15767E+06
 0.54070000E+02  0.16080E+06
 0.54120003E+02  0.95879E+05
 0.54170002E+02  0.24400E+04
 0.54220001E+02 -0.70413E+05
 0.54270000E+02 -0.94498E+05
 0.54320000E+02 -0.53160E+05
 0.54370003E+02  0.11852E+05
 0.54420002E+02  0.56304E+05
 0.54470001E+02  0.82692E+05
 0.54520000E+02  0.10406E+06
 0.54570000E+02  0.11401E+06
 0.54620003E+02  0.87415E+05
 0.54670002E+02  0.36559E+05
 0.54720001E+02  0.53510E+04
 0.54770000E+02 -0.26190E+04
 0.54820000E+02  0.38010E+04
 0.54870003E+02  0.13717E+05
 0.54920002E+02 -0.11556E+05
 0.54970001E+02 -0.87415E+05
 0.55020000E+02 -0.18765E+06
 0.55070000E+02 -0.27349E+06
 0.55120003E+02 -0.33321E+06
 0.55170002E+02 -0.36534E+06
 0.55220001E+02 -0.36534E+06
 0.55270000E+02 -0.34649E+06
 0.55320000E+02 -0.32548E+06
 0.55370003E+02 -0.29739E+06
 0.55420002E+02 -0.22293E+06
 0.55470001E+02 -0.96555E+05
 0.55520000E+02  0.47720E+05
 0.55570000E+02  0.17528E+06
 0.55620003E+02  0.26380E+06
 0.55670002E+02  0.30476E+06
 0.55720001E+02  0.28253E+06
 0.55770000E+02  0.21880E+06
 0.55820000E+02  0.14987E+06
 0.55870003E+02  0.10447E+06
 0.55920002E+02  0.90683E+05
 0.55970001E+02  0.75757E+05
 0.56020000E+02  0.37542E+05
 0.56070000E+02 -0.38177E+05
 0.56120003E+02 -0.13842E+06
 0.56170002E+02 -0.23488E+06
 0.56220001E+02 -0.31351E+06
 0.56270000E+02 -0.33498E+06
 0.56320000E+02 -0.28899E+06
 0.56370003E+02 -0.24637E+06
 0.56420002E+02 -0.26014E+06
 0.56470001E+02 -0.29277E+06
 0.56520000E+02 -0.29077E+06
 0.56570000E+02 -0.23855E+06
 0.56620003E+02 -0.15968E+06
 0.56670002E+02 -0.98500E+05
 0.56720001E+02 -0.69685E+05
 0.56770000E+02 -0.48527E+05
 0.56820000E+02 -0.42650E+04
 0.56870003E+02  0.56883E+05
 0.56920002E+02  0.12068E+06
 0.56970001E+02  0.17109E+06
 0.57020000E+02  0.18439E+06
 0.57070000E+02  0.17713E+06
 0.57120003E+02  0.15653E+06
 0.57170002E+02  0.12993E+06
 0.57220001E+02  0.11081E+06
 0.57270000E+02  0.81837E+05
 0.57320000E+02  0.61949E+05
 0.57370003E+02  0.81246E+05
 0.57420002E+02  0.14705E+06
 0.57470001E+02  0.24626E+06
 0.57520000E+02  0.34482E+06
 0.57570000E+02  0.41174E+06
 0.57620003E+02  0.43516E+06
 0.57670002E+02  0.42570E+06
 0.57720001E+02  0.41522E+06
 0.57770000E+02  0.44113E+06
 0.57820000E+02  0.44759E+06
 0.57870003E+02  0.37744E+06
 0.57920002E+02  0.26752E+06
 0.57970001E+02  0.14307E+06
 0.58020000E+02  0.32034E+05
 0.58070000E+02 -0.36900E+05
 0.58120003E+02 -0.75511E+05
 0.58170002E+02 -0.11376E+06
 0.58220001E+02 -0.17277E+06
 0.58270000E+02 -0.22500E+06
 0.58320000E+02 -0.22074E+06
 0.58370003E+02 -0.15611E+06
 0.58420002E+02 -0.66490E+05
 0.58470001E+02  0.20444E+05
 0.58520000E+02  0.91766E+05
 0.58570000E+02  0.14038E+06
 0.58620003E+02  0.16508E+06
 0.58670002E+02  0.16518E+06
 0.58720001E+02  0.13850E+06
 0.58770000E+02  0.79720E+05
 0.58820000E+02 -0.19080E+04
 0.58870003E+02 -0.70395E+05
 0.58920002E+02 -0.95630E+05
 0.58970001E+02 -0.74302E+05
 0.59020000E+02 -0.34323E+05
 0.59070000E+02 -0.97330E+04
 0.59120003E+02 -0.11160E+05
 0.59170002E+02 -0.30891E+05
 0.59220001E+02 -0.50784E+05
 0.59270000E+02 -0.72297E+05
 0.59320000E+02 -0.84617E+05
 0.59370003E+02 -0.50960E+05
 0.59420002E+02  0.82900E+04
 0.59470001E+02  0.50259E+05
 0.59520000E+02  0.60094E+05
 0.59570000E+02  0.27110E+05
 0.59620003E+02 -0.35752E+05
 0.59670002E+02 -0.90045E+05
 0.59720001E+02 -0.11308E+06
 0.59770000E+02 -0.14053E+06
 0.59820000E+02 -0.18708E+06
 0.59870003E+02 -0.18476E+06
 0.59920002E+02 -0.11128E+06
 0.59970001E+02 -0.27892E+05
 0.60020000E+02  0.25710E+05
 0.60070000E+02  0.40419E+05
 0.60120003E+02  0.13791E+05
 0.60170002E+02 -0.88390E+04
 0.60220001E+02 -0.78300E+03
 0.60270000E+02  0.30814E+05
 0.60320000E+02  0.87903E+05
 0.60370003E+02  0.12566E+06
 0.60420002E+02  0.14548E+06
 0.60470001E+02  0.18614E+06
 0.60520000E+02  0.19231E+06
 0.60570000E+02  0.13037E+06
 0.60620003E+02  0.33330E+05
 0.60670002E+02 -0.69236E+05
 0.60720001E+02 -0.14692E+06
 0.60770000E+02 -0.19657E+06
 0.60820000E+02 -0.22313E+06
 0.60870003E+02 -0.24504E+06
 0.60920002E+02 -0.28899E+06
 0.60970001E+02 -0.33517E+06
 0.61020000E+02 -0.37344E+06
 0.61070004E+02 -0.40108E+06
 0.61119999E+02 -0.38594E+06
 0.61170002E+02 -0.30237E+06
 0.61220005E+02 -0.17845E+06
 0.61270000E+02 -0.74631E+05
 0.61320004E+02 -0.97200E+03
 0.61369999E+02  0.46874E+05
 0.61420002E+02  0.56753E+05
 0.61470005E+02  0.28325E+05
 0.61520000E+02 -0.14654E+05
 0.61570004E+02 -0.37600E+05
 0.61619999E+02 -0.35130E+05
 0.61670002E+02  0.10850E+05
 0.61720005E+02  0.78024E+05
 0.61770000E+02  0.97650E+05
 0.61820004E+02  0.88483E+05
 0.61869999E+02  0.94763E+05
 0.61920002E+02  0.11191E+06
 0.61970005E+02  0.92823E+05
 0.62020000E+02  0.79200E+04
 0.62070004E+02 -0.84439E+05
 0.62119999E+02 -0.13513E+06
 0.62170002E+02 -0.14779E+06
 0.62220005E+02 -0.14404E+06
 0.62270000E+02 -0.15216E+06
 0.62320004E+02 -0.18018E+06
 0.62369999E+02 -0.22284E+06
 0.62420002E+02 -0.27123E+06
 0.62470005E+02 -0.33584E+06
 0.62520000E+02 -0.41396E+06
 0.62570004E+02 -0.47436E+06
 0.62619999E+02 -0.51072E+06
 0.62670002E+02 -0.52082E+06
 0.62720005E+02 -0.49029E+06
 0.62770000E+02 -0.41560E+06
 0.62820004E+02 -0.32988E+06
 0.62869999E+02 -0.28104E+06
 0.62920002E+02 -0.29371E+06
 0.62970005E+02 -0.36173E+06
 0.63020000E+02 -0.42446E+06
 0.63070004E+02 -0.43979E+06
 0.63119999E+02 -0.43353E+06
 0.63170002E+02 -0.36821E+06
 0.63220005E+02 -0.22183E+06
 0.63270000E+02 -0.66218E+05
 0.63320004E+02  0.55918E+05
 0.63369999E+02  0.10753E+06
 0.63420002E+02  0.98150E+05
 0.63470005E+02  0.56985E+05
 0.63520000E+02 -0.16201E+05
 0.63570004E+02 -0.12129E+06
 0.63619999E+02 -0.23104E+06
 0.63670002E+02 -0.27976E+06
 0.63720005E+02 -0.28596E+06
 0.63770000E+02 -0.27317E+06
 0.63820004E+02 -0.24895E+06
 0.63869999E+02 -0.23093E+06
 0.63920002E+02 -0.17992E+06
 0.63970005E+02 -0.78554E+05
 0.64019997E+02  0.43816E+05
 0.64070000E+02  0.14379E+06
 0.64119995E+02  0.18193E+06
 0.64169998E+02  0.11367E+06
 0.64220001E+02  0.11030E+04
 0.64269997E+02 -0.57589E+05
 0.64320000E+02 -0.90576E+05
 0.64369995E+02 -0.10416E+06
 0.64419998E+02 -0.87465E+05
 0.64470001E+02 -0.49151E+05
 0.64519997E+02  0.23490E+04
 0.64570000E+02  0.13587E+05
 0.64619995E+02 -0.50909E+05
 0.64669998E+02 -0.13920E+06
 0.64720001E+02 -0.19587E+06
 0.64769997E+02 -0.25928E+06
 0.64820000E+02 -0.34852E+06
 0.64869995E+02 -0.47366E+06
 0.64919998E+02 -0.63730E+06
 0.64970001E+02 -0.77196E+06
 0.65019997E+02 -0.82753E+06
 0.65070000E+02 -0.78850E+06
 0.65119995E+02 -0.71102E+06
 0.65169998E+02 -0.65011E+06
 0.65220001E+02 -0.59059E+06
 0.65269997E+02 -0.50907E+06
 0.65320000E+02 -0.39756E+06
 0.65369995E+02 -0.28450E+06
 0.65419998E+02 -0.21556E+06
 0.65470001E+02 -0.21432E+06
 0.65519997E+02 -0.22832E+06
 0.65570000E+02 -0.22776E+06
 0.65619995E+02 -0.26062E+06
 0.65669998E+02 -0.30016E+06
 0.65720001E+02 -0.26372E+06
 0.65769997E+02 -0.15564E+06
 0.65820000E+02 -0.70445E+05
 0.65869995E+02 -0.39465E+05
 0.65919998E+02 -0.11470E+04
 0.65970001E+02  0.57233E+05
 0.66019997E+02  0.12188E+06
 0.66070000E+02  0.19017E+06
 0.66119995E+02  0.22889E+06
 0.66169998E+02  0.26094E+06
 0.66220001E+02  0.35792E+06
 0.66269997E+02  0.49141E+06
 0.66320000E+02  0.58512E+06
 0.66369995E+02  0.64294E+06
 0.66419998E+02  0.65289E+06
 0.66470001E+02  0.57403E+06
 0.66519997E+02  0.46846E+06
 0.66570000E+02  0.41208E+06
 0.66619995E+02  0.38382E+06
 0.66669998E+02  0.33426E+06
 0.66720001E+02  0.23921E+06
 0.66769997E+02  0.12060E+06
 0.66820000E+02  0.32135E+05
 0.66869995E+02  0.85800E+03
 0.66919998E+02  0.83500E+03
 0.66970001E+02 -0.14876E+05
 0.67019997E+02 -0.46511E+05
 0.67070000E+02 -0.47836E+05
 0.67119995E+02 -0.21910E+04
 0.67169998E+02  0.38295E+05
 0.67220001E+02  0.56761E+05
 0.67269997E+02  0.86718E+05
 0.67320000E+02  0.10443E+06
 0.67369995E+02  0.82297E+05
 0.67419998E+02  0.34957E+05
 0.67470001E+02  0.49400E+04
 0.67519997E+02  0.34001E+05
 0.67570000E+02  0.10682E+06
 0.67619995E+02  0.16815E+06
 0.67669998E+02  0.18960E+06
 0.67720001E+02  0.19898E+06
 0.67769997E+02  0.23556E+06
 0.67820000E+02  0.30744E+06
 0.67869995E+02  0.39372E+06
 0.67919998E+02  0.47630E+06
 0.67970001E+02  0.53970E+06
 0.68019997E+02  0.59268E+06
 0.68070000E+02  0.66355E+06
 0.68119995E+02  0.70928E+06
 0.68169998E+02  0.66373E+06
 0.68220001E+02  0.52949E+06
 0.68269997E+02  0.34762E+06
 0.68320000E+02  0.19241E+06
 0.68369995E+02  0.12880E+06
 0.68419998E+02  0.15276E+06
 0.68470001E+02  0.23171E+06
 0.68519997E+02  0.31988E+06
 0.68570000E+02  0.40356E+06
 0.68619995E+02  0.50381E+06
 0.68669998E+02  0.58971E+06
 0.68720001E+02  0.59543E+06
 0.68769997E+02  0.48498E+06
 0.68820000E+02  0.27970E+06
 0.68869995E+02  0.77226E+05
 0.68919998E+02 -0.35608E+05
 0.68970001E+02 -0.67964E+05
 0.69019997E+02 -0.42951E+05
 0.69070000E+02  0.24256E+05
 0.69119995E+02  0.10051E+06
 0.69169998E+02  0.15284E+06
 0.69220001E+02  0.17871E+06
 0.69269997E+02  0.19852E+06
 0.69320000E+02  0.20936E+06
 0.69369995E+02  0.21670E+06
 0.69419998E+02  0.18352E+06
 0.69470001E+02  0.79579E+05
 0.69519997E+02 -0.21842E+05
 0.69570000E+02 -0.87339E+05
 0.69619995E+02 -0.13754E+06
 0.69669998E+02 -0.17327E+06
 0.69720001E+02 -0.21305E+06
 0.69769997E+02 -0.26918E+06
 0.69820000E+02 -0.30748E+06
 0.69869995E+02 -0.31384E+06
 0.69919998E+02 -0.29830E+06
 0.69970001E+02 -0.28909E+06
 0.70019997E+02 -0.30222E+06
 0.70070000E+02 -0.25156E+06
 0.70119995E+02 -0.13835E+06
 0.70169998E+02 -0.90282E+05
 0.70220001E+02 -0.12003E+06
 0.70269997E+02 -0.13204E+06
 0.70320000E+02 -0.89906E+05
 0.70369995E+02 -0.48618E+05
 0.70419998E+02  0.26120E+04
 0.70470001E+02  0.11975E+06
 0.70519997E+02  0.27125E+06
 0.70570000E+02  0.42015E+06
 0.70619995E+02  0.55496E+06
 0.70669998E+02  0.62578E+06
 0.70720001E+02  0.54944E+06
 0.70769997E+02  0.33041E+06
 0.70820000E+02  0.89330E+05
 0.70869995E+02 -0.88432E+05
 0.70919998E+02 -0.20338E+06
 0.70970001E+02 -0.30534E+06
 0.71019997E+02 -0.38484E+06
 0.71070000E+02 -0.39384E+06
 0.71119995E+02 -0.35730E+06
 0.71169998E+02 -0.31318E+06
 0.71220001E+02 -0.29524E+06
 0.71269997E+02 -0.33046E+06
 0.71320000E+02 -0.39147E+06
 0.71369995E+02 -0.41363E+06
 0.71419998E+02 -0.38507E+06
 0.71470001E+02 -0.35765E+06
 0.71519997E+02 -0.33981E+06
 0.71570000E+02 -0.27016E+06
 0.71619995E+02 -0.11721E+06
 0.71669998E+02  0.88434E+05
 0.71720001E+02  0.29845E+06
 0.71769997E+02  0.44008E+06
 0.71820000E+02  0.48968E+06
 0.71869995E+02  0.48128E+06
 0.71919998E+02  0.42988E+06
 0.71970001E+02  0.35435E+06
 0.72019997E+02  0.30089E+06
 0.72070000E+02  0.33986E+06
 0.72119995E+02  0.49752E+06
 0.72169998E+02  0.71760E+06
 0.72220001E+02  0.91758E+06
 0.72269997E+02  0.10387E+07
 0.72320000E+02  0.10934E+07
 0.72369995E+02  0.11491E+07
 0.72419998E+02  0.12295E+07
 0.72470001E+02  0.13022E+07
 0.72519997E+02  0.13496E+07
 0.72570000E+02  0.13511E+07
 0.72619995E+02  0.12620E+07
 0.72669998E+02  0.10531E+07
 0.72720001E+02  0.75287E+06
 0.72769997E+02  0.47336E+06
 0.72820000E+02  0.30520E+06
 0.72869995E+02  0.22099E+06
 0.72919998E+02  0.13031E+06
 0.72970001E+02 -0.44964E+05
 0.73019997E+02 -0.30086E+06
 0.73070000E+02 -0.53893E+06
 0.73119995E+02 -0.67892E+06
 0.73169998E+02 -0.71238E+06
 0.73220001E+02 -0.63076E+06
 0.73269997E+02 -0.43166E+06
 0.73320000E+02 -0.18937E+06
 0.73369995E+02 -0.62900E+03
 0.73419998E+02  0.11183E+06
 0.73470001E+02  0.16566E+06
 0.73519997E+02  0.17619E+06
 0.73570000E+02  0.15024E+06
 0.73619995E+02  0.56900E+05
 0.73669998E+02 -0.10566E+06
 0.73720001E+02 -0.27623E+06
 0.73769997E+02 -0.41374E+06
 0.73820000E+02 -0.51258E+06
 0.73869995E+02 -0.59491E+06
 0.73919998E+02 -0.65646E+06
 0.73970001E+02 -0.66475E+06
 0.74019997E+02 -0.63570E+06
 0.74070000E+02 -0.59408E+06
 0.74119995E+02 -0.56892E+06
 0.74169998E+02 -0.56397E+06
 0.74220001E+02 -0.56582E+06
 0.74269997E+02 -0.60011E+06
 0.74320000E+02 -0.69375E+06
 0.74369995E+02 -0.84671E+06
 0.74419998E+02 -0.98373E+06
 0.74470001E+02 -0.10276E+07
 0.74519997E+02 -0.98943E+06
 0.74570000E+02 -0.95204E+06
 0.74619995E+02 -0.10096E+07
 0.74669998E+02 -0.11463E+07
 0.74720001E+02 -0.12603E+07
 0.74769997E+02 -0.12681E+07
 0.74820000E+02 -0.11359E+07
 0.74869995E+02 -0.88034E+06
 0.74919998E+02 -0.56105E+06
 0.74970001E+02 -0.29252E+06
 0.75019997E+02 -0.17731E+06
 0.75070000E+02 -0.19702E+06
 0.75119995E+02 -0.26203E+06
 0.75169998E+02 -0.29998E+06
 0.75220001E+02 -0.26767E+06
 0.75269997E+02 -0.17126E+06
 0.75320000E+02 -0.32210E+05
 0.75369995E+02  0.11530E+06
 0.75419998E+02  0.20914E+06
 0.75470001E+02  0.26476E+06
 0.75519997E+02  0.35629E+06
 0.75570000E+02  0.47649E+06
 0.75619995E+02  0.57973E+06
 0.75669998E+02  0.67318E+06
 0.75720001E+02  0.76821E+06
 0.75769997E+02  0.87015E+06
 0.75820000E+02  0.97847E+06
 0.75869995E+02  0.10698E+07
 0.75919998E+02  0.11420E+07
 0.75970001E+02  0.12070E+07
 0.76019997E+02  0.12561E+07
 0.76070000E+02  0.12506E+07
 0.76119995E+02  0.11794E+07
 0.76169998E+02  0.10682E+07
 0.76220001E+02  0.92883E+06
 0.76269997E+02  0.78799E+06
 0.76320000E+02  0.67062E+06
 0.76369995E+02  0.59774E+06
 0.76419998E+02  0.60299E+06
 0.76470001E+02  0.69086E+06
 0.76519997E+02  0.81476E+06
 0.76570000E+02  0.89440E+06
 0.76619995E+02  0.89815E+06
 0.76669998E+02  0.82594E+06
 0.76720001E+02  0.69158E+06
 0.76769997E+02  0.57480E+06
 0.76820000E+02  0.53121E+06
 0.76869995E+02  0.54135E+06
 0.76919998E+02  0.56447E+06
 0.76970001E+02  0.56635E+06
 0.77019997E+02  0.53092E+06
 0.77070000E+02  0.50101E+06
 0.77119995E+02  0.59120E+06
 0.77169998E+02  0.88399E+06
 0.77220001E+02  0.13521E+07
 0.77269997E+02  0.18776E+07
 0.77320000E+02  0.22890E+07
 0.77369995E+02  0.24619E+07
 0.77419998E+02  0.23996E+07
 0.77470001E+02  0.21500E+07
 0.77519997E+02  0.17555E+07
 0.77570000E+02  0.13094E+07
 0.77619995E+02  0.91233E+06
 0.77669998E+02  0.61232E+06
 0.77720001E+02  0.41577E+06
 0.77769997E+02  0.28166E+06
 0.77820000E+02  0.15918E+06
 0.77869995E+02  0.35926E+05
 0.77919998E+02 -0.10364E+06
 0.77970001E+02 -0.28652E+06
 0.78019997E+02 -0.49320E+06
 0.78070000E+02 -0.65625E+06
 0.78119995E+02 -0.72670E+06
 0.78169998E+02 -0.71820E+06
 0.78220001E+02 -0.67681E+06
 0.78269997E+02 -0.63989E+06
 0.78320000E+02 -0.63079E+06
 0.78369995E+02 -0.65176E+06
 0.78419998E+02 -0.70658E+06
 0.78470001E+02 -0.81137E+06
 0.78519997E+02 -0.91892E+06
 0.78570000E+02 -0.91279E+06
 0.78619995E+02 -0.73040E+06
 0.78669998E+02 -0.41543E+06
 0.78720001E+02 -0.54612E+05
 0.78769997E+02  0.26054E+06
 0.78820000E+02  0.45120E+06
 0.78869995E+02  0.51594E+06
 0.78919998E+02  0.48272E+06
 0.78970001E+02  0.32915E+06
 0.79019997E+02  0.74011E+05
 0.79070000E+02 -0.20468E+06
 0.79119995E+02 -0.43869E+06
 0.79169998E+02 -0.60212E+06
 0.79220001E+02 -0.70026E+06
 0.79269997E+02 -0.71068E+06
 0.79320000E+02 -0.62756E+06
 0.79369995E+02 -0.49342E+06
 0.79419998E+02 -0.35158E+06
 0.79470001E+02 -0.21057E+06
 0.79519997E+02 -0.62086E+05
 0.79570000E+02  0.62729E+05
 0.79619995E+02  0.12121E+06
 0.79669998E+02  0.84698E+05
 0.79720001E+02 -0.54672E+05
 0.79769997E+02 -0.25423E+06
 0.79820000E+02 -0.45178E+06
 0.79869995E+02 -0.61992E+06
 0.79919998E+02 -0.75030E+06
 0.79970001E+02 -0.82163E+06
 0.80019997E+02 -0.82490E+06
 0.80070000E+02 -0.77917E+06
 0.80119995E+02 -0.70020E+06
 0.80169998E+02 -0.58993E+06
 0.80220001E+02 -0.46376E+06
 0.80269997E+02 -0.35518E+06
 0.80320000E+02 -0.31272E+06
 0.80369995E+02 -0.35227E+06
 0.80419998E+02 -0.41955E+06
 0.80470001E+02 -0.44027E+06
 0.80519997E+02 -0.35892E+06
 0.80570000E+02 -0.14949E+06
 0.80619995E+02  0.15329E+06
 0.80669998E+02  0.44429E+06
 0.80720001E+02  0.60630E+06
 0.80769997E+02  0.57768E+06
 0.80820000E+02  0.39971E+06
 0.80869995E+02  0.17590E+06
 0.80919998E+02 -0.11520E+05
 0.80970001E+02 -0.11784E+06
 0.81019997E+02 -0.13508E+06
 0.81070000E+02 -0.72467E+05
 0.81119995E+02  0.54222E+05
 0.81169998E+02  0.21909E+06
 0.81220001E+02  0.40747E+06
 0.81269997E+02  0.60198E+06
 0.81320000E+02  0.75544E+06
 0.81369995E+02  0.82758E+06
 0.81419998E+02  0.82872E+06
 0.81470001E+02  0.79655E+06
 0.81519997E+02  0.75992E+06
 0.81570000E+02  0.74871E+06
 0.81619995E+02  0.80337E+06
 0.81669998E+02  0.92893E+06
 0.81720001E+02  0.10689E+07
 0.81769997E+02  0.11443E+07
 0.81820000E+02  0.10931E+07
 0.81869995E+02  0.90717E+06
 0.81919998E+02  0.62802E+06
 0.81970001E+02  0.30043E+06
 0.82019997E+02 -0.52376E+05
 0.82070000E+02 -0.40696E+06
 0.82119995E+02 -0.70954E+06
 0.82169998E+02 -0.90053E+06
 0.82220001E+02 -0.95844E+06
 0.82269997E+02 -0.91515E+06
 0.82320000E+02 -0.81063E+06
 0.82369995E+02 -0.65661E+06
 0.82419998E+02 -0.45796E+06
 0.82470001E+02 -0.23492E+06
 0.82519997E+02 -0.22777E+05
 0.82570000E+02  0.15607E+06
 0.82619995E+02  0.30462E+06
 0.82669998E+02  0.42724E+06
 0.82720001E+02  0.51153E+06
 0.82769997E+02  0.56367E+06
 0.82820000E+02  0.61529E+06
 0.82869995E+02  0.67990E+06
 0.82919998E+02  0.75631E+06
 0.82970001E+02  0.83837E+06
 0.83019997E+02  0.90524E+06
 0.83070000E+02  0.92657E+06
 0.83119995E+02  0.89741E+06
 0.83169998E+02  0.83946E+06
 0.83220001E+02  0.77730E+06
 0.83269997E+02  0.73624E+06
 0.83320000E+02  0.71371E+06
 0.83369995E+02  0.69030E+06
 0.83419998E+02  0.65672E+06
 0.83470001E+02  0.61060E+06
 0.83519997E+02  0.55066E+06
 0.83570000E+02  0.46356E+06
 0.83619995E+02  0.34548E+06
 0.83669998E+02  0.22069E+06
 0.83720001E+02  0.13794E+06
 0.83769997E+02  0.13696E+06
 0.83820000E+02  0.20834E+06
 0.83869995E+02  0.31648E+06
 0.83919998E+02  0.42002E+06
 0.83970001E+02  0.48294E+06
 0.84019997E+02  0.49379E+06
 0.84070000E+02  0.45036E+06
 0.84119995E+02  0.34703E+06
 0.84169998E+02  0.18368E+06
 0.84220001E+02 -0.25954E+05
 0.84269997E+02 -0.26799E+06
 0.84320000E+02 -0.53241E+06
 0.84369995E+02 -0.78898E+06
 0.84419998E+02 -0.10032E+07
 0.84470001E+02 -0.11625E+07
 0.84519997E+02 -0.12680E+07
 0.84570000E+02 -0.13329E+07
 0.84619995E+02 -0.13915E+07
 0.84669998E+02 -0.14839E+07
 0.84720001E+02 -0.16177E+07
 0.84769997E+02 -0.17638E+07
 0.84820000E+02 -0.18925E+07
 0.84869995E+02 -0.19862E+07
 0.84919998E+02 -0.20338E+07
 0.84970001E+02 -0.20179E+07
 0.85019997E+02 -0.19091E+07
 0.85070000E+02 -0.17038E+07
 0.85119995E+02 -0.14354E+07
 0.85169998E+02 -0.11524E+07
 0.85220001E+02 -0.88298E+06
 0.85269997E+02 -0.62486E+06
 0.85320000E+02 -0.38147E+06
 0.85369995E+02 -0.16532E+06
 0.85419998E+02  0.12243E+05
 0.85470001E+02  0.14859E+06
 0.85519997E+02  0.25664E+06
 0.85570000E+02  0.34294E+06
 0.85619995E+02  0.40899E+06
 0.85669998E+02  0.46463E+06
 0.85720001E+02  0.50373E+06
 0.85769997E+02  0.51853E+06
 0.85820000E+02  0.50888E+06
 0.85869995E+02  0.45427E+06
 0.85919998E+02  0.33500E+06
 0.85970001E+02  0.15853E+06
 0.86019997E+02 -0.45280E+05
 0.86070000E+02 -0.26546E+06
 0.86119995E+02 -0.51571E+06
 0.86169998E+02 -0.77814E+06
 0.86220001E+02 -0.10105E+07
 0.86269997E+02 -0.11801E+07
 0.86320000E+02 -0.12673E+07
 0.86369995E+02 -0.12668E+07
 0.86419998E+02 -0.11823E+07
 0.86470001E+02 -0.10306E+07
 0.86519997E+02 -0.84474E+06
 0.86570000E+02 -0.66883E+06
 0.86619995E+02 -0.52516E+06
 0.86669998E+02 -0.38242E+06
 0.86720001E+02 -0.19745E+06
 0.86769997E+02  0.35978E+05
 0.86820000E+02  0.27800E+06
 0.86869995E+02  0.47645E+06
 0.86919998E+02  0.60783E+06
 0.86970001E+02  0.67287E+06
 0.87019997E+02  0.68985E+06
 0.87070000E+02  0.68318E+06
 0.87119995E+02  0.66519E+06
 0.87169998E+02  0.63121E+06
 0.87220001E+02  0.55864E+06
 0.87269997E+02  0.42328E+06
 0.87320000E+02  0.21487E+06
 0.87369995E+02 -0.56300E+05
 0.87419998E+02 -0.35432E+06
 0.87470001E+02 -0.63888E+06
 0.87519997E+02 -0.89521E+06
 0.87570000E+02 -0.11327E+07
 0.87619995E+02 -0.13492E+07
 0.87669998E+02 -0.15194E+07
 0.87720001E+02 -0.16256E+07
 0.87769997E+02 -0.16715E+07
 0.87820000E+02 -0.16665E+07
 0.87869995E+02 -0.16143E+07
 0.87919998E+02 -0.15139E+07
 0.87970001E+02 -0.13768E+07
 0.88019997E+02 -0.12379E+07
 0.88070000E+02 -0.11258E+07
 0.88119995E+02 -0.10409E+07
 0.88169998E+02 -0.95866E+06
 0.88220001E+02 -0.85393E+06
 0.88269997E+02 -0.72880E+06
 0.88320000E+02 -0.59817E+06
 0.88369995E+02 -0.47220E+06
 0.88419998E+02 -0.34836E+06
 0.88470001E+02 -0.21051E+06
 0.88519997E+02 -0.51495E+05
 0.88570000E+02  0.11306E+06
 0.88619995E+02  0.26278E+06
 0.88669998E+02  0.38508E+06
 0.88720001E+02  0.47260E+06
 0.88769997E+02  0.52939E+06
 0.88820000E+02  0.55602E+06
 0.88869995E+02  0.54206E+06
 0.88919998E+02  0.47616E+06
 0.88970001E+02  0.35155E+06
 0.89019997E+02  0.17977E+06
 0.89070000E+02 -0.89240E+04
 0.89119995E+02 -0.18235E+06
 0.89169998E+02 -0.33106E+06
 0.89220001E+02 -0.46280E+06
 0.89269997E+02 -0.58179E+06
 0.89320000E+02 -0.68013E+06
 0.89369995E+02 -0.74036E+06
 0.89419998E+02 -0.76556E+06
 0.89470001E+02 -0.77343E+06
 0.89519997E+02 -0.78055E+06
 0.89570000E+02 -0.80444E+06
 0.89619995E+02 -0.84614E+06
 0.89669998E+02 -0.88784E+06
 0.89720001E+02 -0.90579E+06
 0.89769997E+02 -0.87773E+06
 0.89820000E+02 -0.79073E+06
 0.89869995E+02 -0.64994E+06
 0.89919998E+02 -0.46883E+06
 0.89970001E+02 -0.27228E+06
 0.90019997E+02 -0.10574E+06
 0.90070000E+02 -0.12311E+05
 0.90119995E+02 -0.72060E+04
 0.90169998E+02 -0.67547E+05
 0.90220001E+02 -0.15944E+06
 0.90269997E+02 -0.25500E+06
 0.90320000E+02 -0.32776E+06
 0.90369995E+02 -0.37139E+06
 0.90419998E+02 -0.39136E+06
 0.90470001E+02 -0.38438E+06
 0.90519997E+02 -0.35724E+06
 0.90570000E+02 -0.32612E+06
 0.90619995E+02 -0.29091E+06
 0.90669998E+02 -0.25686E+06
 0.90720001E+02 -0.25132E+06
 0.90769997E+02 -0.27966E+06
 0.90820000E+02 -0.30705E+06
 0.90869995E+02 -0.29618E+06
 0.90919998E+02 -0.22824E+06
 0.90970001E+02 -0.10636E+06
 0.91019997E+02  0.47138E+05
 0.91070000E+02  0.21336E+06
 0.91119995E+02  0.38596E+06
 0.91169998E+02  0.56254E+06
 0.91220001E+02  0.73952E+06
 0.91269997E+02  0.91099E+06
 0.91320000E+02  0.10653E+07
 0.91369995E+02  0.11912E+07
 0.91419998E+02  0.12893E+07
 0.91470001E+02  0.13644E+07
 0.91519997E+02  0.14179E+07
 0.91570000E+02  0.14438E+07
 0.91619995E+02  0.14287E+07
 0.91669998E+02  0.13735E+07
 0.91720001E+02  0.12939E+07
 0.91769997E+02  0.12052E+07
 0.91820000E+02  0.11222E+07
 0.91869995E+02  0.10519E+07
 0.91919998E+02  0.99229E+06
 0.91970001E+02  0.93235E+06
 0.92019997E+02  0.85526E+06
 0.92070000E+02  0.75541E+06
 0.92119995E+02  0.63735E+06
 0.92169998E+02  0.51016E+06
 0.92220001E+02  0.38736E+06
 0.92269997E+02  0.27914E+06
 0.92320000E+02  0.19026E+06
 0.92369995E+02  0.12352E+06
 0.92419998E+02  0.78266E+05
 0.92470001E+02  0.38147E+05
 0.92519997E+02 -0.21657E+05
 0.92570000E+02 -0.10927E+06
 0.92619995E+02 -0.21352E+06
 0.92669998E+02 -0.32194E+06
 0.92720001E+02 -0.42806E+06
 0.92769997E+02 -0.51966E+06
 0.92820000E+02 -0.59066E+06
 0.92869995E+02 -0.65023E+06
 0.92919998E+02 -0.69709E+06
 0.92970001E+02 -0.71556E+06
 0.93019997E+02 -0.69094E+06
 0.93070000E+02 -0.62094E+06
 0.93119995E+02 -0.51856E+06
 0.93169998E+02 -0.38961E+06
 0.93220001E+02 -0.23362E+06
 0.93269997E+02 -0.62760E+05
 0.93320000E+02  0.10999E+06
 0.93369995E+02  0.27624E+06
 0.93419998E+02  0.42666E+06
 0.93470001E+02  0.54526E+06
 0.93519997E+02  0.60928E+06
 0.93570000E+02  0.60788E+06
 0.93619995E+02  0.54535E+06
 0.93669998E+02  0.43583E+06
 0.93720001E+02  0.30137E+06
 0.93769997E+02  0.16106E+06
 0.93820000E+02  0.25626E+05
 0.93869995E+02 -0.10023E+06
 0.93919998E+02 -0.21270E+06
 0.93970001E+02 -0.31245E+06
 0.94019997E+02 -0.40380E+06
 0.94070000E+02 -0.49185E+06
 0.94119995E+02 -0.57822E+06
 0.94169998E+02 -0.64926E+06
 0.94220001E+02 -0.69359E+06
 0.94269997E+02 -0.71012E+06
 0.94320000E+02 -0.70168E+06
 0.94369995E+02 -0.67723E+06
 0.94419998E+02 -0.64057E+06
 0.94470001E+02 -0.58774E+06
 0.94519997E+02 -0.51075E+06
 0.94570000E+02 -0.40445E+06
 0.94619995E+02 -0.27745E+06
 0.94669998E+02 -0.14262E+06
 0.94720001E+02 -0.35760E+04
 0.94769997E+02  0.13276E+06
 0.94820000E+02  0.25535E+06
 0.94869995E+02  0.35599E+06
 0.94919998E+02  0.41366E+06
 0.94970001E+02  0.40723E+06
 0.95019997E+02  0.33985E+06
 0.95070000E+02  0.24060E+06
 0.95119995E+02  0.15491E+06
 0.95169998E+02  0.11500E+06
 0.95220001E+02  0.12558E+06
 0.95269997E+02  0.17624E+06
 0.95320000E+02  0.24847E+06
 0.95369995E+02  0.32533E+06
 0.95419998E+02  0.40029E+06
 0.95470001E+02  0.47122E+06
 0.95519997E+02  0.53781E+06
 0.95570000E+02  0.60787E+06
 0.95619995E+02  0.68508E+06
 0.95669998E+02  0.76151E+06
 0.95720001E+02  0.82449E+06
 0.95769997E+02  0.86168E+06
 0.95820000E+02  0.87489E+06
 0.95869995E+02  0.87490E+06
 0.95919998E+02  0.87281E+06
 0.95970001E+02  0.87833E+06
 0.96019997E+02  0.89131E+06
 0.96070000E+02  0.90705E+06
 0.96119995E+02  0.91847E+06
 0.96169998E+02  0.91037E+06
 0.96220001E+02  0.86731E+06
 0.96269997E+02  0.78430E+06
 0.96320000E+02  0.66756E+06
 0.96369995E+02  0.53224E+06
 0.96419998E+02  0.39058E+06
 0.96470001E+02  0.24185E+06
 0.96519997E+02  0.83788E+05
 0.96570000E+02 -0.79175E+05
 0.96619995E+02 -0.23845E+06
 0.96669998E+02 -0.38033E+06
 0.96720001E+02 -0.48763E+06
 0.96769997E+02 -0.54540E+06
 0.96820000E+02 -0.55280E+06
 0.96869995E+02 -0.52653E+06
 0.96919998E+02 -0.48071E+06
 0.96970001E+02 -0.41954E+06
 0.97019997E+02 -0.34922E+06
 0.97070000E+02 -0.27857E+06
 0.97119995E+02 -0.22228E+06
 0.97169998E+02 -0.19435E+06
 0.97220001E+02 -0.18748E+06
 0.97269997E+02 -0.18027E+06
 0.97320000E+02 -0.15417E+06
 0.97369995E+02 -0.10594E+06
 0.97419998E+02 -0.51809E+05
 0.97470001E+02 -0.24770E+04
 0.97519997E+02  0.46188E+05
 0.97570000E+02  0.10225E+06
 0.97619995E+02  0.17571E+06
 0.97669998E+02  0.26923E+06
 0.97720001E+02  0.37768E+06
 0.97769997E+02  0.49254E+06
 0.97820000E+02  0.60661E+06
 0.97869995E+02  0.71472E+06
 0.97919998E+02  0.80438E+06
 0.97970001E+02  0.85822E+06
 0.98019997E+02  0.86465E+06
 0.98070000E+02  0.82344E+06
 0.98119995E+02  0.73736E+06
 0.98169998E+02  0.60738E+06
 0.98220001E+02  0.44154E+06
 0.98269997E+02  0.25782E+06
 0.98320000E+02  0.73097E+05
 0.98369995E+02 -0.10552E+06
 0.98419998E+02 -0.28170E+06
 0.98470001E+02 -0.46061E+06
 0.98519997E+02 -0.63701E+06
 0.98570000E+02 -0.79885E+06
 0.98619995E+02 -0.93319E+06
 0.98669998E+02 -0.10300E+07
 0.98720001E+02 -0.10775E+07
 0.98769997E+02 -0.10646E+07
 0.98820000E+02 -0.98991E+06
 0.98869995E+02 -0.85885E+06
 0.98919998E+02 -0.67924E+06
 0.98970001E+02 -0.45856E+06
 0.99019997E+02 -0.20319E+06
 0.99070000E+02  0.88686E+05
 0.99119995E+02  0.41532E+06
 0.99169998E+02  0.74962E+06
 0.99220001E+02  0.10502E+07
 0.99269997E+02  0.12818E+07
 0.99320000E+02  0.14209E+07
 0.99369995E+02  0.14550E+07
 0.99419998E+02  0.13881E+07
 0.99470001E+02  0.12365E+07
 0.99519997E+02  0.10274E+07
 0.99570000E+02  0.79541E+06
 0.99619995E+02  0.56983E+06
 0.99669998E+02  0.36905E+06
 0.99720001E+02  0.19875E+06
 0.99769997E+02  0.51989E+05
 0.99820000E+02 -0.80124E+05
 0.99869995E+02 -0.19721E+06
 0.99919998E+02 -0.29225E+06
 0.99970001E+02 -0.35606E+06
 0.10002000E+03 -0.38084E+06
 0.10007000E+03 -0.36955E+06
 0.10012000E+03 -0.32887E+06
 0.10017000E+03 -0.26161E+06
 0.10022000E+03 -0.17827E+06
 0.10027000E+03 -0.97727E+05
 0.10032000E+03 -0.35745E+05
 0.10037000E+03 -0.71580E+04
 0.10042000E+03 -0.22105E+05
 0.10047000E+03 -0.77938E+05
 0.10052000E+03 -0.16375E+06
 0.10057000E+03 -0.26476E+06
 0.10062000E+03 -0.36936E+06
 0.10067000E+03 -0.46462E+06
 0.10072000E+03 -0.53073E+06
 0.10077000E+03 -0.55181E+06
 0.10082000E+03 -0.51907E+06
 0.10087000E+03 -0.42966E+06
 0.10092000E+03 -0.29036E+06
 0.10097000E+03 -0.11567E+06
 0.10102000E+03  0.78827E+05
 0.10107000E+03  0.27693E+06
 0.10112000E+03  0.45751E+06
 0.10117000E+03  0.59790E+06
 0.10122000E+03  0.67988E+06
 0.10127000E+03  0.69520E+06
 0.10132000E+03  0.65182E+06
 0.10137000E+03  0.56958E+06
 0.10142000E+03  0.47076E+06
 0.10147000E+03  0.37470E+06
 0.10152000E+03  0.29228E+06
 0.10157000E+03  0.23084E+06
 0.10162000E+03  0.19904E+06
 0.10167000E+03  0.19860E+06
 0.10172000E+03  0.22999E+06
 0.10177000E+03  0.29278E+06
 0.10182000E+03  0.37628E+06
 0.10187000E+03  0.46614E+06
 0.10192000E+03  0.54657E+06
 0.10197000E+03  0.60163E+06
 0.10202000E+03  0.62108E+06
 0.10207000E+03  0.60057E+06
 0.10212000E+03  0.54462E+06
 0.10217000E+03  0.46691E+06
 0.10222000E+03  0.38258E+06
 0.10227000E+03  0.30253E+06
 0.10232000E+03  0.22926E+06
 0.10237000E+03  0.16416E+06
 0.10242000E+03  0.10760E+06
 0.10247000E+03  0.45674E+05
 0.10252000E+03 -0.35138E+05
 0.10257000E+03 -0.13591E+06
 0.10262000E+03 -0.24644E+06
 0.10267000E+03 -0.34327E+06
 0.10272000E+03 -0.40472E+06
 0.10277000E+03 -0.42083E+06
 0.10282000E+03 -0.39122E+06
 0.10287000E+03 -0.32696E+06
 0.10292000E+03 -0.24373E+06
 0.10297000E+03 -0.15218E+06
 0.10302000E+03 -0.64520E+05
 0.10307000E+03  0.66530E+04
 0.10312000E+03  0.54473E+05
 0.10317000E+03  0.77598E+05
 0.10322000E+03  0.80935E+05
 0.10327000E+03  0.66900E+05
 0.10332000E+03  0.36479E+05
 0.10337000E+03 -0.80210E+04
 0.10342000E+03 -0.70138E+05
 0.10347000E+03 -0.15547E+06
 0.10352000E+03 -0.26563E+06
 0.10357000E+03 -0.39957E+06
 0.10362000E+03 -0.55125E+06
 0.10367000E+03 -0.71528E+06
 0.10372000E+03 -0.89376E+06
 0.10377000E+03 -0.10836E+07
 0.10382000E+03 -0.12739E+07
 0.10387000E+03 -0.14467E+07
 0.10392000E+03 -0.15773E+07
 0.10397000E+03 -0.16508E+07
 0.10402000E+03 -0.16688E+07
 0.10407000E+03 -0.16405E+07
 0.10412000E+03 -0.15737E+07
 0.10417000E+03 -0.14716E+07
 0.10422000E+03 -0.13412E+07
 0.10427000E+03 -0.11980E+07
 0.10432000E+03 -0.10611E+07
 0.10437000E+03 -0.94902E+06
 0.10442000E+03 -0.87561E+06
 0.10447000E+03 -0.83662E+06
 0.10452000E+03 -0.81273E+06
 0.10457000E+03 -0.78420E+06
 0.10462000E+03 -0.73974E+06
 0.10467000E+03 -0.67858E+06
 0.10472000E+03 -0.59973E+06
 0.10477000E+03 -0.49982E+06
 0.10482000E+03 -0.37580E+06
 0.10487000E+03 -0.22946E+06
 0.10492000E+03 -0.73833E+05
 0.10497000E+03  0.74435E+05
 0.10502000E+03  0.20044E+06
 0.10507000E+03  0.29216E+06
 0.10512000E+03  0.34710E+06
 0.10517000E+03  0.37450E+06
 0.10522000E+03  0.38544E+06
 0.10527000E+03  0.38390E+06
 0.10532000E+03  0.36742E+06
 0.10537000E+03  0.33283E+06
 0.10542000E+03  0.28201E+06
 0.10547000E+03  0.22054E+06
 0.10552000E+03  0.15275E+06
 0.10557000E+03  0.85901E+05
 0.10562000E+03  0.37351E+05
 0.10567000E+03  0.24179E+05
 0.10572000E+03  0.52544E+05
 0.10577000E+03  0.12129E+06
 0.10582000E+03  0.22282E+06
 0.10587000E+03  0.34508E+06
 0.10592000E+03  0.47246E+06
 0.10597000E+03  0.58909E+06
 0.10602000E+03  0.68661E+06
 0.10607000E+03  0.76570E+06
 0.10612000E+03  0.83440E+06
 0.10617000E+03  0.89918E+06
 0.10622000E+03  0.96321E+06
 0.10627000E+03  0.10349E+07
 0.10632000E+03  0.11222E+07
 0.10637000E+03  0.12229E+07
 0.10642000E+03  0.13288E+07
 0.10647000E+03  0.14273E+07
 0.10652000E+03  0.15048E+07
 0.10657000E+03  0.15517E+07
 0.10662000E+03  0.15619E+07
 0.10667000E+03  0.15382E+07
 0.10672000E+03  0.14942E+07
 0.10677000E+03  0.14429E+07
 0.10682000E+03  0.13900E+07
 0.10687000E+03  0.13361E+07
 0.10692000E+03  0.12777E+07
 0.10697000E+03  0.12076E+07
 0.10702000E+03  0.11203E+07
 0.10707000E+03  0.10131E+07
 0.10712000E+03  0.88489E+06
 0.10717000E+03  0.73652E+06
 0.10722000E+03  0.56994E+06
 0.10727000E+03  0.39035E+06
 0.10732000E+03  0.20633E+06
 0.10737000E+03  0.26743E+05
 0.10742000E+03 -0.13736E+06
 0.10747000E+03 -0.27942E+06
 0.10752000E+03 -0.40182E+06
 0.10757000E+03 -0.50325E+06
 0.10762000E+03 -0.57715E+06
 0.10767000E+03 -0.61934E+06
 0.10772000E+03 -0.62863E+06
 0.10777000E+03 -0.60832E+06
 0.10782000E+03 -0.56951E+06
 0.10787000E+03 -0.52482E+06
 0.10792000E+03 -0.47742E+06
 0.10797000E+03 -0.42662E+06
 0.10802000E+03 -0.37700E+06
 0.10807000E+03 -0.33571E+06
 0.10812000E+03 -0.30615E+06
 0.10817000E+03 -0.28888E+06
 0.10822000E+03 -0.28480E+06
 0.10827000E+03 -0.29334E+06
 0.10832000E+03 -0.31519E+06
 0.10837000E+03 -0.35377E+06
 0.10842000E+03 -0.41376E+06
 0.10847000E+03 -0.49778E+06
 0.10852000E+03 -0.60278E+06
 0.10857000E+03 -0.72146E+06
 0.10862000E+03 -0.84303E+06
 0.10867000E+03 -0.95390E+06
 0.10872000E+03 -0.10363E+07
 0.10877000E+03 -0.10727E+07
 0.10882000E+03 -0.10540E+07
 0.10887000E+03 -0.98002E+06
 0.10892000E+03 -0.86078E+06
 0.10897000E+03 -0.71028E+06
 0.10902000E+03 -0.54259E+06
 0.10907000E+03 -0.37005E+06
 0.10912000E+03 -0.20354E+06
 0.10917000E+03 -0.53511E+05
 0.10922000E+03  0.74585E+05
 0.10927000E+03  0.17952E+06
 0.10932000E+03  0.26267E+06
 0.10937000E+03  0.32923E+06
 0.10942000E+03  0.38914E+06
 0.10947000E+03  0.45038E+06
 0.10952000E+03  0.51736E+06
 0.10957000E+03  0.59884E+06
 0.10962000E+03  0.69926E+06
 0.10967000E+03  0.81180E+06
 0.10972000E+03  0.92271E+06
 0.10977000E+03  0.10174E+07
 0.10982000E+03  0.10874E+07
 0.10987000E+03  0.11290E+07
 0.10992000E+03  0.11406E+07
 0.10997000E+03  0.11195E+07
 0.11002000E+03  0.10639E+07
 0.11007000E+03  0.97830E+06
 0.11012000E+03  0.87072E+06
 0.11017000E+03  0.74798E+06
 0.11022000E+03  0.61447E+06
 0.11027000E+03  0.47145E+06
 0.11032000E+03  0.32237E+06
 0.11037000E+03  0.17694E+06
 0.11042000E+03  0.39529E+05
 0.11047000E+03 -0.87334E+05
 0.11052000E+03 -0.19472E+06
 0.11057000E+03 -0.27614E+06
 0.11062000E+03 -0.33226E+06
 0.11067000E+03 -0.36644E+06
 0.11072000E+03 -0.37718E+06
 0.11077000E+03 -0.35968E+06
 0.11082000E+03 -0.31563E+06
 0.11087000E+03 -0.25514E+06
 0.11092000E+03 -0.18918E+06
 0.11097000E+03 -0.12998E+06
 0.11102000E+03 -0.92552E+05
 0.11107000E+03 -0.85237E+05
 0.11112000E+03 -0.10817E+06
 0.11117000E+03 -0.15784E+06
 0.11122000E+03 -0.22778E+06
 0.11127000E+03 -0.30845E+06
 0.11132000E+03 -0.39531E+06
 0.11137000E+03 -0.49346E+06
 0.11142000E+03 -0.60873E+06
 0.11147000E+03 -0.73798E+06
 0.11152000E+03 -0.86384E+06
 0.11157000E+03 -0.96096E+06
 0.11162000E+03 -0.10090E+07
 0.11167000E+03 -0.99991E+06
 0.11172000E+03 -0.93596E+06
 0.11177000E+03 -0.82260E+06
 0.11182000E+03 -0.66826E+06
 0.11187000E+03 -0.48678E+06
 0.11192000E+03 -0.29570E+06
 0.11197000E+03 -0.11095E+06
 0.11202000E+03  0.53270E+05
 0.11207000E+03  0.18609E+06
 0.11212000E+03  0.28431E+06
 0.11217000E+03  0.34952E+06
 0.11222000E+03  0.38742E+06
 0.11227000E+03  0.40427E+06
 0.11232000E+03  0.40090E+06
 0.11237000E+03  0.37499E+06
 0.11242000E+03  0.32682E+06
 0.11247000E+03  0.26354E+06
 0.11252000E+03  0.19486E+06
 0.11257000E+03  0.12619E+06
 0.11262000E+03  0.61067E+05
 0.11267000E+03  0.63050E+04
 0.11272000E+03 -0.31622E+05
 0.11277000E+03 -0.50707E+05
 0.11282000E+03 -0.52638E+05
 0.11287000E+03 -0.42192E+05
 0.11292000E+03 -0.25002E+05
 0.11297000E+03 -0.63680E+04
 0.11302000E+03  0.97010E+04
 0.11307000E+03  0.18691E+05
 0.11312000E+03  0.12467E+05
 0.11317000E+03 -0.16090E+05
 0.11322000E+03 -0.67444E+05
 0.11327000E+03 -0.13501E+06
 0.11332000E+03 -0.20614E+06
 0.11337000E+03 -0.26498E+06
 0.11342000E+03 -0.30311E+06
 0.11347000E+03 -0.32480E+06
 0.11352000E+03 -0.33852E+06
 0.11357000E+03 -0.35092E+06
 0.11362000E+03 -0.36648E+06
 0.11367000E+03 -0.38710E+06
 0.11372000E+03 -0.41172E+06
 0.11377000E+03 -0.43652E+06
 0.11382000E+03 -0.45457E+06
 0.11387000E+03 -0.45703E+06
 0.11392000E+03 -0.43696E+06
 0.11397000E+03 -0.39143E+06
 0.11402000E+03 -0.32463E+06
 0.11407000E+03 -0.24753E+06
 0.11412000E+03 -0.16744E+06
 0.11417000E+03 -0.84697E+05
 0.11422000E+03  0.23000E+03
 0.11427000E+03  0.85812E+05
 0.11432000E+03  0.16948E+06
 0.11437000E+03  0.24732E+06
 0.11442000E+03  0.31950E+06
 0.11447000E+03  0.38759E+06
 0.11452000E+03  0.44626E+06
 0.11457000E+03  0.49221E+06
 0.11462000E+03  0.53036E+06
 0.11467000E+03  0.56588E+06
 0.11472000E+03  0.60231E+06
 0.11477000E+03  0.63855E+06
 0.11482000E+03  0.66775E+06
 0.11487000E+03  0.68162E+06
 0.11492000E+03  0.67590E+06
 0.11497000E+03  0.65279E+06
 0.11502000E+03  0.61848E+06
 0.11507000E+03  0.57961E+06
 0.11512000E+03  0.53465E+06
 0.11517000E+03  0.47703E+06
 0.11522000E+03  0.40579E+06
 0.11527000E+03  0.33001E+06
 0.11532000E+03  0.26509E+06
 0.11537000E+03  0.22012E+06
 0.11542000E+03  0.19306E+06
 0.11547000E+03  0.17871E+06
 0.11552000E+03  0.17296E+06
 0.11557000E+03  0.16994E+06
 0.11562000E+03  0.16570E+06
 0.11567000E+03  0.15873E+06
 0.11572000E+03  0.14735E+06
 0.11577000E+03  0.12996E+06
 0.11582000E+03  0.10323E+06
 0.11587000E+03  0.64770E+05
 0.11592000E+03  0.12531E+05
 0.11597000E+03 -0.55660E+05
 0.11602000E+03 -0.13466E+06
 0.11607000E+03 -0.21292E+06
 0.11612000E+03 -0.27933E+06
 0.11617000E+03 -0.32473E+06
 0.11622000E+03 -0.34446E+06
 0.11627000E+03 -0.34052E+06
 0.11632000E+03 -0.32030E+06
 0.11637000E+03 -0.29041E+06
 0.11642000E+03 -0.24871E+06
 0.11647000E+03 -0.18620E+06
 0.11652000E+03 -0.97835E+05
 0.11657000E+03  0.95060E+04
 0.11662000E+03  0.12440E+06
 0.11667000E+03  0.23658E+06
 0.11672000E+03  0.33373E+06
 0.11677000E+03  0.40657E+06
 0.11682000E+03  0.45081E+06
 0.11687000E+03  0.46496E+06
 0.11692000E+03  0.45370E+06
 0.11697000E+03  0.42682E+06
 0.11702000E+03  0.38943E+06
 0.11707000E+03  0.33824E+06
 0.11712000E+03  0.27182E+06
 0.11717000E+03  0.19412E+06
 0.11722000E+03  0.10840E+06
 0.11727000E+03  0.14687E+05
 0.11732000E+03 -0.88006E+05
 0.11737000E+03 -0.19417E+06
 0.11742000E+03 -0.29463E+06
 0.11747000E+03 -0.38473E+06
 0.11752000E+03 -0.46607E+06
 0.11757000E+03 -0.54264E+06
 0.11762000E+03 -0.61328E+06
 0.11767000E+03 -0.67613E+06
 0.11772000E+03 -0.73368E+06
 0.11777000E+03 -0.79096E+06
 0.11782000E+03 -0.85575E+06
 0.11787000E+03 -0.93365E+06
 0.11792000E+03 -0.10264E+07
 0.11797000E+03 -0.11339E+07
 0.11802000E+03 -0.12493E+07
 0.11807000E+03 -0.13603E+07
 0.11812000E+03 -0.14572E+07
 0.11817000E+03 -0.15344E+07
 0.11822000E+03 -0.15880E+07
 0.11827000E+03 -0.16166E+07
 0.11832000E+03 -0.16213E+07
 0.11837000E+03 -0.16067E+07
 0.11842000E+03 -0.15805E+07
 0.11847000E+03 -0.15481E+07
 0.11852000E+03 -0.15068E+07
 0.11857000E+03 -0.14486E+07
 0.11862000E+03 -0.13655E+07
 0.11867000E+03 -0.12535E+07
 0.11872000E+03 -0.11134E+07
 0.11877000E+03 -0.94720E+06
 0.11882000E+03 -0.76185E+06
 0.11887000E+03 -0.57042E+06
 0.11892000E+03 -0.38479E+06
 0.11897000E+03 -0.21474E+06
 0.11902000E+03 -0.66450E+05
 0.11907000E+03  0.56670E+05
 0.11912000E+03  0.15262E+06
 0.11917000E+03  0.22495E+06
 0.11922000E+03  0.27873E+06
 0.11927000E+03  0.31191E+06
 0.11932000E+03  0.31867E+06
 0.11937000E+03  0.29520E+06
 0.11942000E+03  0.24547E+06
 0.11947000E+03  0.18388E+06
 0.11952000E+03  0.12241E+06
 0.11957000E+03  0.63303E+05
 0.11962000E+03  0.65140E+04
 0.11967000E+03 -0.46994E+05
 0.11972000E+03 -0.95972E+05
 0.11977000E+03 -0.13736E+06
 0.11982000E+03 -0.16712E+06
 0.11987000E+03 -0.18254E+06
 0.11992000E+03 -0.18369E+06
 0.11997000E+03 -0.17253E+06
 0.12002000E+03 -0.15117E+06
 0.12007000E+03 -0.12092E+06
 0.12012000E+03 -0.80024E+05
 0.12017000E+03 -0.24656E+05
 0.12022000E+03  0.47165E+05
 0.12027000E+03  0.13063E+06
 0.12032000E+03  0.21555E+06
 0.12037000E+03  0.29452E+06
 0.12042000E+03  0.36497E+06
 0.12047000E+03  0.42477E+06
 0.12052000E+03  0.46906E+06
 0.12057000E+03  0.49473E+06
 0.12062000E+03  0.50349E+06
 0.12067000E+03  0.49983E+06
 0.12072000E+03  0.48666E+06
 0.12077000E+03  0.46271E+06
 0.12082000E+03  0.42802E+06
 0.12087000E+03  0.38580E+06
 0.12092000E+03  0.34219E+06
 0.12097000E+03  0.30413E+06
 0.12102000E+03  0.27462E+06
 0.12107000E+03  0.25598E+06
 0.12112000E+03  0.25090E+06
 0.12117000E+03  0.25918E+06
 0.12122000E+03  0.27882E+06
 0.12127000E+03  0.30271E+06
 0.12132000E+03  0.31904E+06
 0.12137000E+03  0.32000E+06
 0.12142000E+03  0.30337E+06
 0.12147000E+03  0.27038E+06
 0.12152000E+03  0.22461E+06
 0.12157000E+03  0.17255E+06
 0.12162000E+03  0.12338E+06
 0.12167000E+03  0.86280E+05
 0.12172000E+03  0.66950E+05
 0.12177000E+03  0.63458E+05
 0.12182000E+03  0.68955E+05
 0.12187000E+03  0.76361E+05
 0.12192000E+03  0.78912E+05
 0.12197000E+03  0.71902E+05
 0.12202000E+03  0.53932E+05
 0.12207000E+03  0.25712E+05
 0.12212000E+03 -0.11175E+05
 0.12217000E+03 -0.53060E+05
 0.12222000E+03 -0.95861E+05
 0.12227000E+03 -0.13828E+06
 0.12232000E+03 -0.17842E+06
 0.12237000E+03 -0.21452E+06
 0.12242000E+03 -0.24488E+06
 0.12247000E+03 -0.26590E+06
 0.12252000E+03 -0.27700E+06
 0.12257000E+03 -0.27781E+06
 0.12262000E+03 -0.26698E+06
 0.12267000E+03 -0.24481E+06
 0.12272000E+03 -0.21397E+06
 0.12277000E+03 -0.18055E+06
 0.12282000E+03 -0.14919E+06
 0.12287000E+03 -0.12054E+06
 0.12292000E+03 -0.93937E+05
 0.12297000E+03 -0.69267E+05
 0.12302000E+03 -0.47483E+05
 0.12307000E+03 -0.32384E+05
 0.12312000E+03 -0.26424E+05
 0.12317000E+03 -0.28235E+05
 0.12322000E+03 -0.34270E+05
 0.12327000E+03 -0.37855E+05
 0.12332000E+03 -0.34149E+05
 0.12337000E+03 -0.21069E+05
 0.12342000E+03  0.65100E+03
 0.12347000E+03  0.29959E+05
 0.12352000E+03  0.68261E+05
 0.12357000E+03  0.11301E+06
 0.12362000E+03  0.16138E+06
 0.12367000E+03  0.21487E+06
 0.12372000E+03  0.27588E+06
 0.12377000E+03  0.34558E+06
 0.12382000E+03  0.42484E+06
 0.12387000E+03  0.51619E+06
 0.12392000E+03  0.62099E+06
 0.12397000E+03  0.73833E+06
 0.12402000E+03  0.86194E+06
 0.12407000E+03  0.98203E+06
 0.12412000E+03  0.10936E+07
 0.12417000E+03  0.11947E+07
 0.12422000E+03  0.12838E+07
 0.12427000E+03  0.13596E+07
 0.12432000E+03  0.14191E+07
 0.12437000E+03  0.14615E+07
 0.12442000E+03  0.14856E+07
 0.12447000E+03  0.14904E+07
 0.12452000E+03  0.14777E+07
 0.12457000E+03  0.14526E+07
 0.12462000E+03  0.14224E+07
 0.12467000E+03  0.13926E+07
 0.12472000E+03  0.13624E+07
 0.12477000E+03  0.13284E+07
 0.12482000E+03  0.12886E+07
 0.12487000E+03  0.12406E+07
 0.12492000E+03  0.11808E+07
 0.12497000E+03  0.11068E+07
 0.12502000E+03  0.10179E+07
 0.12507000E+03  0.91480E+06
 0.12512000E+03  0.79796E+06
 0.12517001E+03  0.66718E+06
 0.12521999E+03  0.52448E+06
 0.12527000E+03  0.37741E+06
 0.12532000E+03  0.23587E+06
 0.12537000E+03  0.10731E+06
 0.12542001E+03 -0.91200E+03
 0.12546999E+03 -0.84680E+05
 0.12552000E+03 -0.14458E+06
 0.12557000E+03 -0.18367E+06
 0.12562000E+03 -0.20552E+06
 0.12567001E+03 -0.21212E+06
 0.12571999E+03 -0.20812E+06
 0.12577000E+03 -0.19836E+06
 0.12582000E+03 -0.18511E+06
 0.12587000E+03 -0.17010E+06
 0.12592001E+03 -0.15231E+06
 0.12596999E+03 -0.13138E+06
 0.12602000E+03 -0.11077E+06
 0.12607000E+03 -0.96200E+05
 0.12612000E+03 -0.92084E+05
 0.12617001E+03 -0.98283E+05
 0.12621999E+03 -0.11276E+06
 0.12627000E+03 -0.13429E+06
 0.12632000E+03 -0.16088E+06
 0.12637000E+03 -0.19214E+06
 0.12642001E+03 -0.22895E+06
 0.12646999E+03 -0.26939E+06
 0.12652000E+03 -0.31294E+06
 0.12657000E+03 -0.35870E+06
 0.12662000E+03 -0.40353E+06
 0.12667001E+03 -0.44629E+06
 0.12671999E+03 -0.48806E+06
 0.12677000E+03 -0.52968E+06
 0.12682000E+03 -0.57050E+06
 0.12687000E+03 -0.60938E+06
 0.12692001E+03 -0.64171E+06
 0.12696999E+03 -0.66244E+06
 0.12702000E+03 -0.67311E+06
 0.12707000E+03 -0.67890E+06
 0.12712000E+03 -0.68271E+06
 0.12717001E+03 -0.68339E+06
 0.12721999E+03 -0.67641E+06
 0.12727000E+03 -0.65387E+06
 0.12732000E+03 -0.60807E+06
 0.12737000E+03 -0.53578E+06
 0.12742001E+03 -0.43738E+06
 0.12746999E+03 -0.31663E+06
 0.12752000E+03 -0.18209E+06
 0.12757000E+03 -0.44681E+05
 0.12762000E+03  0.87214E+05
 0.12767001E+03  0.20918E+06
 0.12771999E+03  0.32013E+06
 0.12777000E+03  0.42042E+06
 0.12782000E+03  0.50891E+06
 0.12787000E+03  0.58304E+06
 0.12792001E+03  0.64257E+06
 0.12796999E+03  0.69140E+06
 0.12802000E+03  0.73189E+06
 0.12807001E+03  0.76458E+06
 0.12812001E+03  0.79103E+06
 0.12817001E+03  0.81015E+06
 0.12822000E+03  0.81953E+06
 0.12827000E+03  0.81660E+06
 0.12832001E+03  0.79968E+06
 0.12837001E+03  0.76863E+06
 0.12842001E+03  0.72486E+06
 0.12847000E+03  0.67231E+06
 0.12852000E+03  0.61243E+06
 0.12857001E+03  0.54398E+06
 0.12862001E+03  0.46366E+06
 0.12867001E+03  0.36725E+06
 0.12872000E+03  0.25458E+06
 0.12877000E+03  0.12990E+06
 0.12882001E+03  0.20940E+04
 0.12887001E+03 -0.11952E+06
 0.12892001E+03 -0.23112E+06
 0.12897000E+03 -0.33284E+06
 0.12902000E+03 -0.42361E+06
 0.12907001E+03 -0.50046E+06
 0.12912001E+03 -0.55872E+06
 0.12917001E+03 -0.59454E+06
 0.12922000E+03 -0.60925E+06
 0.12927000E+03 -0.60621E+06
 0.12932001E+03 -0.59068E+06
 0.12937001E+03 -0.56887E+06
 0.12942001E+03 -0.54234E+06
 0.12947000E+03 -0.51083E+06
 0.12952000E+03 -0.47725E+06
 0.12957001E+03 -0.44498E+06
 0.12962001E+03 -0.41699E+06
 0.12967001E+03 -0.39647E+06
 0.12972000E+03 -0.38252E+06
 0.12977000E+03 -0.37117E+06
 0.12982001E+03 -0.35970E+06
 0.12987001E+03 -0.34697E+06
 0.12992001E+03 -0.32964E+06
 0.12997000E+03 -0.30288E+06
 0.13002000E+03 -0.26543E+06
 0.13007001E+03 -0.21825E+06
 0.13012001E+03 -0.16250E+06
 0.13017001E+03 -0.10126E+06
 0.13022000E+03 -0.39361E+05
 0.13027000E+03  0.17578E+05
 0.13032001E+03  0.63409E+05
 0.13037001E+03  0.93600E+05
 0.13042001E+03  0.10557E+06
 0.13047000E+03  0.96306E+05
 0.13052000E+03  0.65091E+05
 0.13057001E+03  0.15452E+05
 0.13062001E+03 -0.47240E+05
 0.13067001E+03 -0.11798E+06
 0.13072000E+03 -0.19381E+06
 0.13077000E+03 -0.27198E+06
 0.13082001E+03 -0.34789E+06
 0.13087001E+03 -0.41564E+06
 0.13092001E+03 -0.47141E+06
 0.13097000E+03 -0.51361E+06
 0.13102000E+03 -0.54136E+06
 0.13107001E+03 -0.55705E+06
 0.13112001E+03 -0.56503E+06
 0.13117001E+03 -0.57100E+06
 0.13122000E+03 -0.57961E+06
 0.13127000E+03 -0.59342E+06
 0.13132001E+03 -0.61587E+06
 0.13137001E+03 -0.64851E+06
 0.13142001E+03 -0.68827E+06
 0.13147000E+03 -0.72786E+06
 0.13152000E+03 -0.76088E+06
 0.13157001E+03 -0.78359E+06
 0.13162001E+03 -0.79256E+06
 0.13167001E+03 -0.78576E+06
 0.13172000E+03 -0.76348E+06
 0.13177000E+03 -0.72722E+06
 0.13182001E+03 -0.67927E+06
 0.13187001E+03 -0.62401E+06
 0.13192001E+03 -0.56839E+06
 0.13197000E+03 -0.51828E+06
 0.13202000E+03 -0.47656E+06
 0.13207001E+03 -0.44505E+06
 0.13212001E+03 -0.42148E+06
 0.13217001E+03 -0.40165E+06
 0.13222000E+03 -0.38281E+06
 0.13227000E+03 -0.36339E+06
 0.13232001E+03 -0.34489E+06
 0.13237001E+03 -0.32616E+06
 0.13242001E+03 -0.30606E+06
 0.13247000E+03 -0.28818E+06
 0.13252000E+03 -0.27355E+06
 0.13257001E+03 -0.26206E+06
 0.13262001E+03 -0.25554E+06
 0.13267001E+03 -0.25597E+06
 0.13272000E+03 -0.26554E+06
 0.13277000E+03 -0.28643E+06
 0.13282001E+03 -0.31819E+06
 0.13287001E+03 -0.35827E+06
 0.13292001E+03 -0.40701E+06
 0.13297000E+03 -0.46446E+06
 0.13302000E+03 -0.52811E+06
 0.13307001E+03 -0.59471E+06
 0.13312001E+03 -0.65746E+06
 0.13317001E+03 -0.71199E+06
 0.13322000E+03 -0.75837E+06
 0.13327000E+03 -0.79425E+06
 0.13332001E+03 -0.81721E+06
 0.13337001E+03 -0.82679E+06
 0.13342001E+03 -0.82256E+06
 0.13347000E+03 -0.80106E+06
 0.13352000E+03 -0.75733E+06
 0.13357001E+03 -0.69045E+06
 0.13362001E+03 -0.60192E+06
 0.13367001E+03 -0.49801E+06
 0.13372000E+03 -0.38421E+06
 0.13377000E+03 -0.25901E+06
 0.13382001E+03 -0.12675E+06
 0.13387001E+03  0.39900E+04
 0.13392001E+03  0.12618E+06
 0.13397000E+03  0.23096E+06
 0.13402000E+03  0.31425E+06
 0.13407001E+03  0.37839E+06
 0.13412001E+03  0.42684E+06
 0.13417001E+03  0.46367E+06
 0.13422000E+03  0.49333E+06
 0.13427000E+03  0.51823E+06
 0.13432001E+03  0.53817E+06
 0.13437001E+03  0.54993E+06
 0.13442001E+03  0.55110E+06
 0.13447000E+03  0.54275E+06
 0.13452000E+03  0.52691E+06
 0.13457001E+03  0.50633E+06
 0.13462001E+03  0.48461E+06
 0.13467001E+03  0.46692E+06
 0.13472000E+03  0.45849E+06
 0.13477000E+03  0.46115E+06
 0.13482001E+03  0.47417E+06
 0.13487001E+03  0.49678E+06
 0.13492001E+03  0.52713E+06
 0.13497000E+03  0.56457E+06
 0.13502000E+03  0.60833E+06
 0.13507001E+03  0.65432E+06
 0.13512001E+03  0.69782E+06
 0.13517001E+03  0.73268E+06
 0.13522000E+03  0.75412E+06
 0.13527000E+03  0.76216E+06
 0.13532001E+03  0.75944E+06
 0.13537001E+03  0.75043E+06
 0.13542001E+03  0.74122E+06
 0.13547000E+03  0.73792E+06
 0.13552000E+03  0.74299E+06
 0.13557001E+03  0.75406E+06
 0.13562001E+03  0.76770E+06
 0.13567001E+03  0.78128E+06
 0.13572000E+03  0.79437E+06
 0.13577000E+03  0.80809E+06
 0.13582001E+03  0.82133E+06
 0.13587001E+03  0.83040E+06
 0.13592001E+03  0.82953E+06
 0.13597000E+03  0.81287E+06
 0.13602000E+03  0.77812E+06
 0.13607001E+03  0.72666E+06
 0.13612001E+03  0.66152E+06
 0.13617001E+03  0.58736E+06
 0.13622000E+03  0.51058E+06
 0.13627000E+03  0.43650E+06
 0.13632001E+03  0.37042E+06
 0.13637001E+03  0.31810E+06
 0.13642001E+03  0.28195E+06
 0.13647000E+03  0.26050E+06
 0.13652000E+03  0.24938E+06
 0.13657001E+03  0.24287E+06
 0.13662001E+03  0.23600E+06
 0.13667001E+03  0.22686E+06
 0.13672000E+03  0.21654E+06
 0.13677000E+03  0.20556E+06
 0.13682001E+03  0.19202E+06
 0.13687001E+03  0.17422E+06
 0.13692001E+03  0.15247E+06
 0.13697000E+03  0.12794E+06
 0.13702000E+03  0.10433E+06
 0.13707001E+03  0.86802E+05
 0.13712001E+03  0.78717E+05
 0.13717001E+03  0.80737E+05
 0.13722000E+03  0.90896E+05
 0.13727000E+03  0.10610E+06
 0.13732001E+03  0.12241E+06
 0.13737001E+03  0.13750E+06
 0.13742001E+03  0.14848E+06
 0.13747000E+03  0.14981E+06
 0.13752000E+03  0.13982E+06
 0.13757001E+03  0.12172E+06
 0.13762001E+03  0.99450E+05
 0.13767001E+03  0.77240E+05
 0.13772000E+03  0.58397E+05
 0.13777000E+03  0.41460E+05
 0.13782001E+03  0.23155E+05
 0.13787001E+03  0.16990E+04
 0.13792001E+03 -0.24836E+05
 0.13797000E+03 -0.57035E+05
 0.13802000E+03 -0.92221E+05
 0.13807001E+03 -0.12599E+06
 0.13812001E+03 -0.15415E+06
 0.13817001E+03 -0.17348E+06
 0.13822000E+03 -0.18210E+06
 0.13827000E+03 -0.17913E+06
 0.13832001E+03 -0.16632E+06
 0.13837001E+03 -0.14725E+06
 0.13842001E+03 -0.12428E+06
 0.13847000E+03 -0.97086E+05
 0.13852000E+03 -0.65126E+05
 0.13857001E+03 -0.29668E+05
 0.13862001E+03  0.78180E+04
 0.13867001E+03  0.44392E+05
 0.13872000E+03  0.74692E+05
 0.13877000E+03  0.93347E+05
 0.13882001E+03  0.96534E+05
 0.13887001E+03  0.83507E+05
 0.13892001E+03  0.58445E+05
 0.13897000E+03  0.26162E+05
 0.13902000E+03 -0.10261E+05
 0.13907001E+03 -0.48404E+05
 0.13912001E+03 -0.86870E+05
 0.13917001E+03 -0.12484E+06
 0.13922000E+03 -0.16370E+06
 0.13927000E+03 -0.20670E+06
 0.13932001E+03 -0.25684E+06
 0.13937001E+03 -0.31475E+06
 0.13942001E+03 -0.37871E+06
 0.13947000E+03 -0.44632E+06
 0.13952000E+03 -0.51384E+06
 0.13957001E+03 -0.57681E+06
 0.13962001E+03 -0.63121E+06
 0.13967001E+03 -0.67436E+06
 0.13972000E+03 -0.70523E+06
 0.13977000E+03 -0.72349E+06
 0.13982001E+03 -0.72932E+06
 0.13987001E+03 -0.72218E+06
 0.13992001E+03 -0.70297E+06
 0.13997000E+03 -0.67355E+06
 0.14002000E+03 -0.63533E+06
 0.14007001E+03 -0.59050E+06
 0.14012001E+03 -0.53990E+06
 0.14017001E+03 -0.48614E+06
 0.14022000E+03 -0.43375E+06
 0.14027000E+03 -0.38561E+06
 0.14032001E+03 -0.34471E+06
 0.14037001E+03 -0.31238E+06
 0.14042001E+03 -0.28744E+06
 0.14047000E+03 -0.26881E+06
 0.14052000E+03 -0.25578E+06
 0.14057001E+03 -0.24836E+06
 0.14062001E+03 -0.24653E+06
 0.14067001E+03 -0.24846E+06
 0.14072000E+03 -0.25341E+06
 0.14077000E+03 -0.26216E+06
 0.14082001E+03 -0.27469E+06
 0.14087001E+03 -0.29062E+06
 0.14092001E+03 -0.31062E+06
 0.14097000E+03 -0.33418E+06
 0.14102000E+03 -0.35774E+06
 0.14107001E+03 -0.37783E+06
 0.14112001E+03 -0.39230E+06
 0.14117001E+03 -0.39924E+06
 0.14122000E+03 -0.39607E+06
 0.14127000E+03 -0.38025E+06
 0.14132001E+03 -0.34942E+06
 0.14137001E+03 -0.30139E+06
 0.14142001E+03 -0.23593E+06
 0.14147000E+03 -0.15422E+06
 0.14152000E+03 -0.58464E+05
 0.14157001E+03  0.47948E+05
 0.14162001E+03  0.15910E+06
 0.14167001E+03  0.26606E+06
 0.14172000E+03  0.36028E+06
 0.14177000E+03  0.43586E+06
 0.14182001E+03  0.49030E+06
 0.14187001E+03  0.52352E+06
 0.14192001E+03  0.53611E+06
 0.14197000E+03  0.53130E+06
 0.14202000E+03  0.51343E+06
 0.14207001E+03  0.48445E+06
 0.14212001E+03  0.44385E+06
 0.14217001E+03  0.39269E+06
 0.14222000E+03  0.33650E+06
 0.14227000E+03  0.28112E+06
 0.14232001E+03  0.23033E+06
 0.14237001E+03  0.18629E+06
 0.14242001E+03  0.14973E+06
 0.14247000E+03  0.12019E+06
 0.14252000E+03  0.96011E+05
 0.14257001E+03  0.75273E+05
 0.14262001E+03  0.56532E+05
 0.14267001E+03  0.38141E+05
 0.14272000E+03  0.18052E+05
 0.14277000E+03 -0.39360E+04
 0.14282001E+03 -0.26156E+05
 0.14287001E+03 -0.47268E+05
 0.14292001E+03 -0.65593E+05
 0.14297000E+03 -0.77119E+05
 0.14302000E+03 -0.76695E+05
 0.14307001E+03 -0.61925E+05
 0.14312001E+03 -0.34905E+05
 0.14317001E+03  0.47000E+03
 0.14322000E+03  0.40493E+05
 0.14327000E+03  0.80799E+05
 0.14332001E+03  0.11651E+06
 0.14337001E+03  0.14449E+06
 0.14342001E+03  0.16485E+06
 0.14347000E+03  0.17944E+06
 0.14352000E+03  0.18872E+06
 0.14357001E+03  0.19200E+06
 0.14362001E+03  0.18957E+06
 0.14367001E+03  0.18208E+06
 0.14372000E+03  0.16988E+06
 0.14377000E+03  0.15433E+06
 0.14382001E+03  0.13686E+06
 0.14387001E+03  0.11896E+06
 0.14392001E+03  0.10400E+06
 0.14397000E+03  0.94777E+05
 0.14402000E+03  0.93324E+05
 0.14407001E+03  0.10146E+06
 0.14412001E+03  0.11803E+06
 0.14417001E+03  0.13952E+06
 0.14422000E+03  0.16162E+06
 0.14427000E+03  0.18138E+06
 0.14432001E+03  0.19639E+06
 0.14437001E+03  0.20505E+06
 0.14442001E+03  0.20869E+06
 0.14447000E+03  0.21074E+06
 0.14452000E+03  0.21502E+06
 0.14457001E+03  0.22372E+06
 0.14462001E+03  0.23832E+06
 0.14467001E+03  0.25940E+06
 0.14472000E+03  0.28652E+06
 0.14477000E+03  0.32047E+06
 0.14482001E+03  0.36383E+06
 0.14487001E+03  0.41790E+06
 0.14492001E+03  0.47986E+06
 0.14497000E+03  0.54515E+06
 0.14502000E+03  0.60794E+06
 0.14507001E+03  0.66246E+06
 0.14512001E+03  0.70500E+06
 0.14517001E+03  0.73238E+06
 0.14522000E+03  0.74241E+06
 0.14527000E+03  0.73383E+06
 0.14532001E+03  0.70843E+06
 0.14537001E+03  0.67102E+06
 0.14542001E+03  0.62540E+06
 0.14547000E+03  0.57410E+06
 0.14552000E+03  0.51774E+06
 0.14557001E+03  0.45824E+06
 0.14562001E+03  0.39950E+06
 0.14567001E+03  0.34309E+06
 0.14572000E+03  0.29029E+06
 0.14577000E+03  0.24140E+06
 0.14582001E+03  0.19718E+06
 0.14587001E+03  0.16028E+06
 0.14592001E+03  0.13245E+06
 0.14597000E+03  0.11539E+06
 0.14602000E+03  0.11122E+06
 0.14607001E+03  0.12025E+06
 0.14612001E+03  0.14004E+06
 0.14617001E+03  0.16623E+06
 0.14622000E+03  0.19378E+06
 0.14627000E+03  0.22044E+06
 0.14632001E+03  0.24355E+06
 0.14637001E+03  0.25994E+06
 0.14642001E+03  0.26901E+06
 0.14647000E+03  0.27018E+06
 0.14652000E+03  0.26300E+06
 0.14657001E+03  0.24486E+06
 0.14662001E+03  0.21264E+06
 0.14667001E+03  0.16412E+06
 0.14672000E+03  0.99551E+05
 0.14677000E+03  0.22582E+05
 0.14682001E+03 -0.63785E+05
 0.14687001E+03 -0.15587E+06
 0.14692001E+03 -0.25341E+06
 0.14697000E+03 -0.35531E+06
 0.14702000E+03 -0.45594E+06
 0.14707001E+03 -0.55272E+06
 0.14712001E+03 -0.64430E+06
 0.14717001E+03 -0.72759E+06
 0.14722000E+03 -0.79961E+06
 0.14727000E+03 -0.85878E+06
 0.14732001E+03 -0.90378E+06
 0.14737001E+03 -0.93329E+06
 0.14742001E+03 -0.94625E+06
 0.14747000E+03 -0.94244E+06
 0.14752000E+03 -0.92008E+06
 0.14757001E+03 -0.87724E+06
 0.14762001E+03 -0.81540E+06
 0.14767001E+03 -0.73785E+06
 0.14772000E+03 -0.64860E+06
 0.14777000E+03 -0.55166E+06
 0.14782001E+03 -0.45270E+06
 0.14787001E+03 -0.35514E+06
 0.14792001E+03 -0.25978E+06
 0.14797000E+03 -0.16642E+06
 0.14802000E+03 -0.75055E+05
 0.14807001E+03  0.12680E+05
 0.14812001E+03  0.95593E+05
 0.14817001E+03  0.17244E+06
 0.14822000E+03  0.24241E+06
 0.14827000E+03  0.30242E+06
 0.14832001E+03  0.35010E+06
 0.14837001E+03  0.38526E+06
 0.14842001E+03  0.40973E+06
 0.14847000E+03  0.42851E+06
 0.14852000E+03  0.44234E+06
 0.14857001E+03  0.44822E+06
 0.14862001E+03  0.44203E+06
 0.14867001E+03  0.42082E+06
 0.14872000E+03  0.38486E+06
 0.14877000E+03  0.33523E+06
 0.14882001E+03  0.27677E+06
 0.14887001E+03  0.21484E+06
 0.14892001E+03  0.15352E+06
 0.14897000E+03  0.97831E+05
 0.14902000E+03  0.49605E+05
 0.14907001E+03  0.81840E+04
 0.14912001E+03 -0.26152E+05
 0.14917001E+03 -0.51814E+05
 0.14922000E+03 -0.67540E+05
 0.14927000E+03 -0.73627E+05
 0.14932001E+03 -0.71309E+05
 0.14937001E+03 -0.63155E+05
 0.14942001E+03 -0.52362E+05
 0.14947000E+03 -0.43151E+05
 0.14952000E+03 -0.39501E+05
 0.14957001E+03 -0.42161E+05
 0.14962001E+03 -0.51371E+05
 0.14967001E+03 -0.67711E+05
 0.14972000E+03 -0.91027E+05
 0.14977000E+03 -0.12174E+06
 0.14982001E+03 -0.16045E+06
 0.14987001E+03 -0.20770E+06
 0.14992001E+03 -0.26356E+06
 0.14997000E+03 -0.32613E+06
