-0.30000000E+01  0.10839E+05
-0.29500000E+01  0.11485E+05
-0.29000001E+01  0.11730E+05
-0.28499999E+01  0.11603E+05
-0.28000000E+01  0.11228E+05
-0.27500000E+01  0.10889E+05
-0.27000000E+01  0.10526E+05
-0.26500001E+01  0.10063E+05
-0.25999999E+01  0.98450E+04
-0.25500000E+01  0.96900E+04
-0.25000000E+01  0.86080E+04
-0.24500000E+01  0.59130E+04
-0.24000001E+01  0.22200E+04
-0.23499999E+01 -0.14640E+04
-0.23000000E+01 -0.48340E+04
-0.22500000E+01 -0.72410E+04
-0.22000000E+01 -0.78120E+04
-0.21500001E+01 -0.67380E+04
-0.20999999E+01 -0.47480E+04
-0.20500000E+01 -0.26020E+04
-0.20000000E+01 -0.10320E+04
-0.19499999E+01 -0.22900E+03
-0.19000000E+01  0.21200E+03
-0.18500000E+01  0.68500E+03
-0.18000000E+01  0.12290E+04
-0.17500000E+01  0.17590E+04
-0.16999999E+01  0.18640E+04
-0.16500000E+01  0.91400E+03
-0.16000000E+01 -0.11710E+04
-0.15500000E+01 -0.41460E+04
-0.15000000E+01 -0.75120E+04
-0.14499999E+01 -0.10262E+05
-0.14000000E+01 -0.11963E+05
-0.13500000E+01 -0.13074E+05
-0.13000000E+01 -0.13894E+05
-0.12500000E+01 -0.14259E+05
-0.11999999E+01 -0.13998E+05
-0.11500000E+01 -0.13241E+05
-0.11000000E+01 -0.12236E+05
-0.10500000E+01 -0.11165E+05
-0.10000000E+01 -0.10150E+05
-0.95000005E+00 -0.94960E+04
-0.89999986E+00 -0.97180E+04
-0.84999990E+00 -0.10765E+05
-0.79999995E+00 -0.12038E+05
-0.75000000E+00 -0.12892E+05
-0.70000005E+00 -0.12580E+05
-0.64999986E+00 -0.10946E+05
-0.59999990E+00 -0.86790E+04
-0.54999995E+00 -0.63180E+04
-0.50000000E+00 -0.40400E+04
-0.45000005E+00 -0.20540E+04
-0.39999986E+00 -0.47900E+03
-0.34999990E+00  0.97800E+03
-0.29999995E+00  0.30180E+04
-0.25000000E+00  0.62600E+04
-0.20000005E+00  0.10369E+05
-0.14999986E+00  0.14152E+05
-0.99999905E-01  0.16792E+05
-0.49999952E-01  0.17961E+05
 0.00000000E+00  0.17375E+05
 0.49999952E-01  0.15145E+05
 0.10000014E+00  0.11671E+05
 0.15000010E+00  0.74370E+04
 0.20000005E+00  0.31990E+04
 0.25000000E+00 -0.23700E+03
 0.29999995E+00 -0.23320E+04
 0.35000014E+00 -0.31900E+04
 0.40000010E+00 -0.32940E+04
 0.45000005E+00 -0.29140E+04
 0.50000000E+00 -0.24810E+04
 0.54999995E+00 -0.23390E+04
 0.60000014E+00 -0.22550E+04
 0.65000010E+00 -0.18980E+04
 0.70000005E+00 -0.11080E+04
 0.75000000E+00  0.75000E+02
 0.79999995E+00  0.16220E+04
 0.85000014E+00  0.35370E+04
 0.90000010E+00  0.52520E+04
 0.95000005E+00  0.59250E+04
 0.10000000E+01  0.53500E+04
 0.10500002E+01  0.40190E+04
 0.10999999E+01  0.25950E+04
 0.11500001E+01  0.15510E+04
 0.12000003E+01  0.77900E+03
 0.12500000E+01 -0.28600E+03
 0.13000002E+01 -0.17420E+04
 0.13499999E+01 -0.32320E+04
 0.14000001E+01 -0.46150E+04
 0.14500003E+01 -0.60050E+04
 0.15000000E+01 -0.76420E+04
 0.15500002E+01 -0.94160E+04
 0.15999999E+01 -0.10673E+05
 0.16500001E+01 -0.10912E+05
 0.17000003E+01 -0.10058E+05
 0.17500000E+01 -0.83390E+04
 0.18000002E+01 -0.64120E+04
 0.18499999E+01 -0.50590E+04
 0.19000001E+01 -0.46120E+04
 0.19500003E+01 -0.46970E+04
 0.20000000E+01 -0.45400E+04
 0.20500002E+01 -0.35570E+04
 0.20999999E+01 -0.14950E+04
 0.21500001E+01  0.15210E+04
 0.22000003E+01  0.50180E+04
 0.22500000E+01  0.85280E+04
 0.23000002E+01  0.11734E+05
 0.23499999E+01  0.14437E+05
 0.24000001E+01  0.16432E+05
 0.24500003E+01  0.17721E+05
 0.25000000E+01  0.18702E+05
 0.25500002E+01  0.19559E+05
 0.25999999E+01  0.20167E+05
 0.26500001E+01  0.20451E+05
 0.27000003E+01  0.20427E+05
 0.27500000E+01  0.20211E+05
 0.28000002E+01  0.19904E+05
 0.28499999E+01  0.19775E+05
 0.29000001E+01  0.20250E+05
 0.29500003E+01  0.21205E+05
 0.30000000E+01  0.21932E+05
 0.30500002E+01  0.21918E+05
 0.30999999E+01  0.21129E+05
 0.31500001E+01  0.19815E+05
 0.32000003E+01  0.18287E+05
 0.32500000E+01  0.16812E+05
 0.33000002E+01  0.15279E+05
 0.33499999E+01  0.12779E+05
 0.34000001E+01  0.85460E+04
 0.34500003E+01  0.30960E+04
 0.35000000E+01 -0.25620E+04
 0.35500002E+01 -0.79730E+04
 0.35999999E+01 -0.12972E+05
 0.36500001E+01 -0.17367E+05
 0.37000003E+01 -0.21212E+05
 0.37500000E+01 -0.24708E+05
 0.38000002E+01 -0.27822E+05
 0.38499999E+01 -0.30278E+05
 0.39000001E+01 -0.31901E+05
 0.39500003E+01 -0.32619E+05
 0.40000000E+01 -0.32293E+05
 0.40500002E+01 -0.30870E+05
 0.40999999E+01 -0.28242E+05
 0.41500001E+01 -0.24520E+05
 0.42000003E+01 -0.20308E+05
 0.42500000E+01 -0.16171E+05
 0.43000002E+01 -0.12533E+05
 0.43499999E+01 -0.95080E+04
 0.44000001E+01 -0.68220E+04
 0.44500003E+01 -0.42980E+04
 0.45000000E+01 -0.19500E+04
 0.45500002E+01  0.26300E+03
 0.45999999E+01  0.23280E+04
 0.46500001E+01  0.40440E+04
 0.47000003E+01  0.53100E+04
 0.47500000E+01  0.60380E+04
 0.48000002E+01  0.62740E+04
 0.48499999E+01  0.64930E+04
 0.49000001E+01  0.69520E+04
 0.49500003E+01  0.74870E+04
 0.50000000E+01  0.80560E+04
 0.50500002E+01  0.87870E+04
 0.51000004E+01  0.96510E+04
 0.51500006E+01  0.10400E+05
 0.51999998E+01  0.10894E+05
 0.52500000E+01  0.11023E+05
 0.53000002E+01  0.10588E+05
 0.53500004E+01  0.97700E+04
 0.54000006E+01  0.88120E+04
 0.54499998E+01  0.75640E+04
 0.55000000E+01  0.60580E+04
 0.55500002E+01  0.46020E+04
 0.56000004E+01  0.34160E+04
 0.56500006E+01  0.26920E+04
 0.56999998E+01  0.27000E+04
 0.57500000E+01  0.34720E+04
 0.58000002E+01  0.44420E+04
 0.58500004E+01  0.51390E+04
 0.59000006E+01  0.56010E+04
 0.59499998E+01  0.59860E+04
 0.60000000E+01  0.65110E+04
 0.60500002E+01  0.69710E+04
 0.61000004E+01  0.70140E+04
 0.61500006E+01  0.68610E+04
 0.61999998E+01  0.65600E+04
 0.62500000E+01  0.57030E+04
 0.63000002E+01  0.43020E+04
 0.63500004E+01  0.29630E+04
 0.64000006E+01  0.21700E+04
 0.64499998E+01  0.18550E+04
 0.65000000E+01  0.16250E+04
 0.65500002E+01  0.11360E+04
 0.66000004E+01  0.21900E+03
 0.66500006E+01 -0.12000E+04
 0.66999998E+01 -0.29170E+04
 0.67500000E+01 -0.43060E+04
 0.68000002E+01 -0.48200E+04
 0.68500004E+01 -0.44320E+04
 0.69000006E+01 -0.34230E+04
 0.69499998E+01 -0.22550E+04
 0.70000000E+01 -0.16750E+04
 0.70500002E+01 -0.21870E+04
 0.71000004E+01 -0.37120E+04
 0.71500006E+01 -0.59130E+04
 0.71999998E+01 -0.81590E+04
 0.72500000E+01 -0.97560E+04
 0.73000002E+01 -0.10418E+05
 0.73500004E+01 -0.10280E+05
 0.74000006E+01 -0.97900E+04
 0.74499998E+01 -0.91860E+04
 0.75000000E+01 -0.83900E+04
 0.75500002E+01 -0.74170E+04
 0.76000004E+01 -0.63390E+04
 0.76500006E+01 -0.53080E+04
 0.76999998E+01 -0.44730E+04
 0.77500000E+01 -0.39420E+04
 0.78000002E+01 -0.37410E+04
 0.78500004E+01 -0.36350E+04
 0.79000006E+01 -0.35670E+04
 0.79499998E+01 -0.36350E+04
 0.80000000E+01 -0.37630E+04
 0.80500002E+01 -0.39590E+04
 0.81000004E+01 -0.40090E+04
 0.81500006E+01 -0.33850E+04
 0.81999998E+01 -0.19680E+04
 0.82500000E+01 -0.15600E+03
 0.83000002E+01  0.16080E+04
 0.83500004E+01  0.32250E+04
 0.84000006E+01  0.47630E+04
 0.84499998E+01  0.61660E+04
 0.85000000E+01  0.72290E+04
 0.85500002E+01  0.75440E+04
 0.86000004E+01  0.68330E+04
 0.86500006E+01  0.51410E+04
 0.86999998E+01  0.26330E+04
 0.87500000E+01 -0.47000E+03
 0.88000002E+01 -0.39070E+04
 0.88500004E+01 -0.72650E+04
 0.89000006E+01 -0.97910E+04
 0.89499998E+01 -0.10779E+05
 0.90000000E+01 -0.10146E+05
 0.90500002E+01 -0.81290E+04
 0.91000004E+01 -0.53380E+04
 0.91500006E+01 -0.28490E+04
 0.91999998E+01 -0.13090E+04
 0.92500000E+01 -0.97700E+03
 0.93000002E+01 -0.19110E+04
 0.93500004E+01 -0.35010E+04
 0.94000006E+01 -0.48740E+04
 0.94499998E+01 -0.55070E+04
 0.95000000E+01 -0.52730E+04
 0.95500002E+01 -0.43230E+04
 0.96000004E+01 -0.30630E+04
 0.96500006E+01 -0.20940E+04
 0.96999998E+01 -0.19580E+04
 0.97500000E+01 -0.28300E+04
 0.98000002E+01 -0.44380E+04
 0.98500004E+01 -0.62490E+04
 0.99000006E+01 -0.76700E+04
 0.99499998E+01 -0.84680E+04
 0.10000000E+02 -0.89190E+04
 0.10050000E+02 -0.92140E+04
 0.10100000E+02 -0.92180E+04
 0.10150001E+02 -0.88770E+04
 0.10200000E+02 -0.85530E+04
 0.10250000E+02 -0.88540E+04
 0.10300000E+02 -0.99530E+04
 0.10350000E+02 -0.11278E+05
 0.10400001E+02 -0.12178E+05
 0.10450000E+02 -0.12266E+05
 0.10500000E+02 -0.11298E+05
 0.10550000E+02 -0.94610E+04
 0.10600000E+02 -0.71560E+04
 0.10650001E+02 -0.47570E+04
 0.10700000E+02 -0.27780E+04
 0.10750000E+02 -0.14640E+04
 0.10800000E+02 -0.38500E+03
 0.10850000E+02  0.11970E+04
 0.10900001E+02  0.36910E+04
 0.10950000E+02  0.71810E+04
 0.11000000E+02  0.11496E+05
 0.11050000E+02  0.15974E+05
 0.11100000E+02  0.19914E+05
 0.11150001E+02  0.23108E+05
 0.11200000E+02  0.25656E+05
 0.11250000E+02  0.27893E+05
 0.11300000E+02  0.30233E+05
 0.11350000E+02  0.32645E+05
 0.11400001E+02  0.34833E+05
 0.11450000E+02  0.36712E+05
 0.11500000E+02  0.38099E+05
 0.11550000E+02  0.38441E+05
 0.11600000E+02  0.37275E+05
 0.11650001E+02  0.34545E+05
 0.11700000E+02  0.30445E+05
 0.11750000E+02  0.25349E+05
 0.11800000E+02  0.19786E+05
 0.11850000E+02  0.14249E+05
 0.11900001E+02  0.89350E+04
 0.11950000E+02  0.38490E+04
 0.12000000E+02 -0.86000E+03
 0.12050000E+02 -0.50400E+04
 0.12100000E+02 -0.87420E+04
 0.12150001E+02 -0.11952E+05
 0.12200000E+02 -0.14668E+05
 0.12250000E+02 -0.17165E+05
 0.12300000E+02 -0.19565E+05
 0.12350000E+02 -0.21567E+05
 0.12400001E+02 -0.22773E+05
 0.12450000E+02 -0.22895E+05
 0.12500000E+02 -0.21801E+05
 0.12550000E+02 -0.19524E+05
 0.12600000E+02 -0.16289E+05
 0.12650001E+02 -0.12450E+05
 0.12700000E+02 -0.83030E+04
 0.12750000E+02 -0.41650E+04
 0.12800000E+02 -0.49700E+03
 0.12850000E+02  0.25570E+04
 0.12900001E+02  0.53990E+04
 0.12950000E+02  0.82620E+04
 0.13000000E+02  0.11110E+05
 0.13050001E+02  0.13826E+05
 0.13100000E+02  0.16118E+05
 0.13150000E+02  0.17817E+05
 0.13200001E+02  0.18754E+05
 0.13250000E+02  0.18669E+05
 0.13300001E+02  0.17400E+05
 0.13350000E+02  0.15118E+05
 0.13400000E+02  0.12235E+05
 0.13450001E+02  0.87030E+04
 0.13500000E+02  0.42980E+04
 0.13550001E+02 -0.57700E+03
 0.13600000E+02 -0.50790E+04
 0.13650000E+02 -0.84590E+04
 0.13700001E+02 -0.10231E+05
 0.13750000E+02 -0.10171E+05
 0.13800001E+02 -0.84840E+04
 0.13850000E+02 -0.60250E+04
 0.13900000E+02 -0.39040E+04
 0.13950001E+02 -0.25630E+04
 0.14000000E+02 -0.15640E+04
 0.14050001E+02 -0.11900E+03
 0.14100000E+02  0.21920E+04
 0.14150000E+02  0.48320E+04
 0.14200001E+02  0.68490E+04
 0.14250000E+02  0.77800E+04
 0.14300001E+02  0.76860E+04
 0.14350000E+02  0.68170E+04
 0.14400000E+02  0.53000E+04
 0.14450001E+02  0.34660E+04
 0.14500000E+02  0.20960E+04
 0.14550001E+02  0.17320E+04
 0.14600000E+02  0.24030E+04
 0.14650000E+02  0.38240E+04
 0.14700001E+02  0.54350E+04
 0.14750000E+02  0.66340E+04
 0.14800001E+02  0.70590E+04
 0.14850000E+02  0.69500E+04
 0.14900000E+02  0.69380E+04
 0.14950001E+02  0.73550E+04
 0.15000000E+02  0.80250E+04
 0.15050001E+02  0.86340E+04
 0.15100000E+02  0.90940E+04
 0.15150000E+02  0.90340E+04
 0.15200001E+02  0.85030E+04
 0.15250000E+02  0.76850E+04
 0.15300001E+02  0.63960E+04
 0.15350000E+02  0.46240E+04
 0.15400000E+02  0.44430E+04
 0.15450001E+02  0.13097E+05
 0.15500000E+02  0.26404E+05
 0.15550001E+02  0.31147E+05
 0.15600000E+02  0.21253E+05
 0.15650000E+02 -0.13758E+05
 0.15700001E+02 -0.51093E+05
 0.15750000E+02 -0.41621E+05
 0.15800001E+02  0.70640E+04
 0.15850000E+02  0.66527E+05
 0.15900000E+02  0.13065E+06
 0.15950001E+02  0.16183E+06
 0.16000000E+02  0.12344E+06
 0.16050001E+02  0.26156E+05
 0.16100000E+02 -0.10063E+06
 0.16150000E+02 -0.17108E+06
 0.16200001E+02 -0.93928E+05
 0.16250000E+02  0.52817E+05
 0.16300001E+02  0.79085E+05
 0.16350000E+02  0.69040E+04
 0.16400000E+02  0.59663E+05
 0.16450001E+02  0.25332E+06
 0.16500000E+02  0.42735E+06
 0.16550001E+02  0.47676E+06
 0.16600000E+02  0.37552E+06
 0.16650000E+02  0.22299E+06
 0.16700001E+02  0.46854E+05
 0.16750000E+02 -0.14877E+06
 0.16800001E+02 -0.28569E+06
 0.16850000E+02 -0.43899E+06
 0.16900000E+02 -0.51915E+06
 0.16950001E+02 -0.48579E+06
 0.17000000E+02 -0.55089E+06
 0.17050001E+02 -0.44221E+06
 0.17100000E+02 -0.68282E+05
 0.17150000E+02  0.11434E+06
 0.17200001E+02  0.15900E+06
 0.17250000E+02  0.16292E+06
 0.17300001E+02 -0.60066E+05
 0.17350000E+02 -0.23835E+06
 0.17400000E+02 -0.14400E+06
 0.17450001E+02  0.86701E+05
 0.17500000E+02  0.44719E+06
 0.17550001E+02  0.61122E+06
 0.17600000E+02  0.14355E+06
 0.17650000E+02 -0.26711E+06
 0.17700001E+02  0.13368E+05
 0.17750000E+02  0.52106E+06
 0.17800001E+02  0.99043E+06
 0.17850000E+02  0.12311E+07
 0.17900000E+02  0.94359E+06
 0.17950001E+02  0.23637E+06
 0.18000000E+02 -0.44414E+06
 0.18050001E+02 -0.52134E+06
 0.18100000E+02 -0.17648E+06
 0.18150000E+02 -0.29182E+05
 0.18200001E+02 -0.16880E+06
 0.18250000E+02 -0.39648E+06
 0.18300001E+02 -0.52584E+06
 0.18350000E+02 -0.29688E+06
 0.18400000E+02  0.20846E+06
 0.18450001E+02  0.23250E+06
 0.18500000E+02 -0.17765E+06
 0.18550001E+02 -0.29826E+06
 0.18600000E+02 -0.30204E+06
 0.18650000E+02 -0.30997E+06
 0.18700001E+02 -0.22729E+06
 0.18750000E+02 -0.15028E+06
 0.18800001E+02 -0.30330E+04
 0.18850000E+02 -0.59036E+05
 0.18900000E+02 -0.40961E+06
 0.18950001E+02 -0.50613E+06
 0.19000000E+02  0.16640E+04
 0.19050001E+02  0.52980E+06
 0.19100000E+02  0.31632E+06
 0.19150000E+02 -0.23918E+06
 0.19200001E+02 -0.46685E+06
 0.19250000E+02 -0.39935E+06
 0.19300001E+02 -0.25796E+06
 0.19350000E+02  0.12411E+06
 0.19400000E+02  0.50274E+06
 0.19450001E+02  0.40207E+06
 0.19500000E+02  0.32053E+06
 0.19550001E+02  0.92935E+05
 0.19600000E+02 -0.27010E+06
 0.19650000E+02  0.10152E+06
 0.19700001E+02  0.60762E+06
 0.19750000E+02  0.79674E+06
 0.19800001E+02  0.85315E+06
 0.19850000E+02  0.72737E+06
 0.19900000E+02  0.66422E+06
 0.19950001E+02  0.56429E+06
 0.20000000E+02  0.46553E+06
 0.20050001E+02  0.28189E+06
 0.20100000E+02 -0.18993E+06
 0.20150000E+02 -0.65420E+06
 0.20200001E+02 -0.99682E+06
 0.20250000E+02 -0.87502E+06
 0.20300001E+02 -0.61220E+06
 0.20350000E+02 -0.74781E+06
 0.20400000E+02 -0.70744E+06
 0.20450001E+02 -0.66234E+06
 0.20500000E+02 -0.54341E+06
 0.20550001E+02  0.14406E+06
 0.20600000E+02  0.56051E+06
 0.20650000E+02  0.63672E+06
 0.20700001E+02  0.64102E+06
 0.20750000E+02  0.27362E+06
 0.20800001E+02 -0.33732E+05
 0.20850000E+02 -0.32841E+06
 0.20900000E+02 -0.38584E+06
 0.20950001E+02  0.34556E+05
 0.21000000E+02 -0.63429E+05
 0.21050001E+02 -0.47318E+06
 0.21100000E+02 -0.49314E+06
 0.21150000E+02 -0.38167E+06
 0.21200001E+02 -0.40320E+06
 0.21250000E+02 -0.39150E+06
 0.21300001E+02  0.16695E+06
 0.21350000E+02  0.94098E+06
 0.21400000E+02  0.10517E+07
 0.21450001E+02  0.64306E+06
 0.21500000E+02  0.57227E+06
 0.21550001E+02  0.74308E+06
 0.21600000E+02  0.42243E+06
 0.21650000E+02 -0.28000E+05
 0.21700001E+02 -0.30828E+05
 0.21750000E+02  0.19384E+06
 0.21800001E+02  0.38194E+06
 0.21850000E+02  0.48168E+06
 0.21900000E+02  0.39454E+06
 0.21950001E+02  0.30949E+05
 0.22000000E+02 -0.30093E+06
 0.22050001E+02 -0.31774E+06
 0.22100000E+02 -0.30050E+06
 0.22150000E+02 -0.36366E+06
 0.22200001E+02 -0.29459E+06
 0.22250000E+02 -0.43064E+05
 0.22300001E+02  0.17876E+06
 0.22350000E+02 -0.62790E+04
 0.22400000E+02 -0.29882E+06
 0.22450001E+02 -0.17920E+06
 0.22500000E+02 -0.84934E+05
 0.22550001E+02 -0.82955E+05
 0.22600000E+02  0.27126E+06
 0.22650000E+02  0.50714E+06
 0.22700001E+02  0.53341E+06
 0.22750000E+02  0.73900E+06
 0.22800001E+02  0.78817E+06
 0.22850000E+02  0.63565E+06
 0.22900000E+02  0.27614E+06
 0.22950001E+02 -0.49609E+06
 0.23000000E+02 -0.11473E+07
 0.23050001E+02 -0.13068E+07
 0.23100000E+02 -0.12354E+07
 0.23150000E+02 -0.10559E+07
 0.23200001E+02 -0.73802E+06
 0.23250000E+02 -0.33157E+06
 0.23300001E+02 -0.71320E+04
 0.23350000E+02  0.32810E+05
 0.23400000E+02 -0.21993E+06
 0.23450001E+02 -0.45272E+06
 0.23500000E+02 -0.33322E+06
 0.23550001E+02  0.24550E+06
 0.23600000E+02  0.98511E+06
 0.23650000E+02  0.10637E+07
 0.23700001E+02  0.49845E+06
 0.23750000E+02  0.75927E+05
 0.23800001E+02 -0.15594E+06
 0.23850000E+02 -0.29054E+06
 0.23900000E+02 -0.28446E+06
 0.23950001E+02 -0.27475E+06
 0.24000000E+02 -0.35874E+06
 0.24050001E+02 -0.51472E+06
 0.24100000E+02 -0.68364E+06
 0.24150000E+02 -0.76262E+06
 0.24200001E+02 -0.66970E+06
 0.24250000E+02 -0.45036E+06
 0.24300001E+02 -0.50497E+05
 0.24350000E+02  0.14150E+06
 0.24400000E+02 -0.13005E+06
 0.24450001E+02 -0.34291E+06
 0.24500000E+02 -0.33119E+06
 0.24550001E+02 -0.27279E+06
 0.24600000E+02 -0.21956E+06
 0.24650000E+02 -0.22500E+05
 0.24700001E+02  0.44029E+06
 0.24750000E+02  0.85269E+06
 0.24800001E+02  0.97597E+06
 0.24850000E+02  0.10621E+07
 0.24900000E+02  0.10231E+07
 0.24950001E+02  0.65525E+06
 0.25000000E+02  0.51741E+06
 0.25050001E+02  0.62579E+06
 0.25100000E+02  0.61944E+06
 0.25150000E+02  0.68253E+06
 0.25200001E+02  0.68063E+06
 0.25250000E+02  0.90101E+06
 0.25300001E+02  0.15766E+07
 0.25350000E+02  0.17667E+07
 0.25400000E+02  0.16373E+07
 0.25450001E+02  0.21098E+07
 0.25500000E+02  0.21970E+07
 0.25550001E+02  0.12961E+07
 0.25600000E+02  0.10221E+07
 0.25650000E+02  0.17206E+07
 0.25700001E+02  0.19076E+07
 0.25750000E+02  0.12576E+07
 0.25800001E+02  0.19790E+06
 0.25850000E+02 -0.98138E+06
 0.25900000E+02 -0.17996E+07
 0.25950001E+02 -0.23713E+07
 0.26000000E+02 -0.30460E+07
 0.26050001E+02 -0.34733E+07
 0.26100000E+02 -0.31726E+07
 0.26150000E+02 -0.25020E+07
 0.26200001E+02 -0.20039E+07
 0.26250000E+02 -0.14375E+07
 0.26300001E+02 -0.71330E+06
 0.26350000E+02 -0.15492E+06
 0.26400000E+02 -0.19873E+05
 0.26450001E+02 -0.13774E+06
 0.26500000E+02 -0.25760E+06
 0.26550001E+02 -0.58510E+06
 0.26600000E+02 -0.53955E+06
 0.26650000E+02 -0.58514E+05
 0.26700001E+02 -0.17506E+06
 0.26750000E+02 -0.34031E+06
 0.26800001E+02  0.65145E+06
 0.26850000E+02  0.25744E+07
 0.26900000E+02  0.37241E+07
 0.26950001E+02  0.31724E+07
 0.27000000E+02  0.23954E+07
 0.27050001E+02  0.22984E+07
 0.27100000E+02  0.23217E+07
 0.27150000E+02  0.21944E+07
 0.27200001E+02  0.13762E+07
 0.27250000E+02 -0.43863E+05
 0.27300001E+02 -0.12411E+07
 0.27350000E+02 -0.20936E+07
 0.27400000E+02 -0.20047E+07
 0.27450001E+02 -0.11979E+07
 0.27500000E+02 -0.10167E+07
 0.27550001E+02 -0.10858E+07
 0.27600000E+02 -0.66934E+06
 0.27650000E+02  0.23973E+05
 0.27700001E+02  0.11381E+07
 0.27750000E+02  0.24181E+07
 0.27800001E+02  0.26754E+07
 0.27850000E+02  0.18218E+07
 0.27900000E+02  0.56966E+06
 0.27950001E+02 -0.45396E+06
 0.28000000E+02 -0.36476E+06
 0.28050001E+02  0.94365E+05
 0.28100000E+02 -0.42132E+06
 0.28150000E+02 -0.14664E+07
 0.28200001E+02 -0.21797E+07
 0.28250000E+02 -0.20639E+07
 0.28300001E+02 -0.10540E+07
 0.28350000E+02 -0.12365E+06
 0.28400000E+02  0.29394E+06
 0.28450001E+02  0.13289E+07
 0.28500000E+02  0.27651E+07
 0.28550001E+02  0.27457E+07
 0.28600000E+02  0.17575E+07
 0.28650000E+02  0.13794E+07
 0.28700001E+02  0.83274E+06
 0.28750000E+02 -0.39845E+06
 0.28800001E+02 -0.12229E+07
 0.28850000E+02 -0.11406E+07
 0.28900000E+02 -0.27634E+06
 0.28950001E+02  0.58778E+06
 0.29000000E+02  0.32064E+06
 0.29049999E+02 -0.78563E+06
 0.29100002E+02 -0.16321E+07
 0.29150002E+02 -0.20798E+07
 0.29200001E+02 -0.24911E+07
 0.29250000E+02 -0.28615E+07
 0.29299999E+02 -0.26744E+07
 0.29350002E+02 -0.15996E+07
 0.29400002E+02 -0.16579E+06
 0.29450001E+02  0.96532E+06
 0.29500000E+02  0.11096E+07
 0.29549999E+02  0.27033E+06
 0.29600002E+02 -0.49387E+06
 0.29650002E+02 -0.76306E+06
 0.29700001E+02 -0.10713E+07
 0.29750000E+02 -0.19125E+07
 0.29799999E+02 -0.29250E+07
 0.29850002E+02 -0.33035E+07
 0.29900002E+02 -0.27527E+07
 0.29950001E+02 -0.14975E+07
 0.30000000E+02 -0.67834E+05
 0.30049999E+02  0.83964E+06
 0.30100002E+02  0.69775E+06
 0.30150002E+02 -0.49346E+05
 0.30200001E+02 -0.44146E+06
 0.30250000E+02 -0.49475E+06
 0.30299999E+02 -0.63005E+06
 0.30350002E+02 -0.56199E+06
 0.30400002E+02 -0.22262E+06
 0.30450001E+02  0.79774E+05
 0.30500000E+02  0.48540E+06
 0.30549999E+02  0.94942E+06
 0.30600002E+02  0.11768E+07
 0.30650002E+02  0.11431E+07
 0.30700001E+02  0.88821E+06
 0.30750000E+02  0.57106E+06
 0.30799999E+02  0.45215E+06
 0.30850002E+02  0.44866E+06
 0.30900002E+02  0.41953E+06
 0.30950001E+02  0.65514E+06
 0.31000000E+02  0.11646E+07
 0.31049999E+02  0.14011E+07
 0.31100002E+02  0.10076E+07
 0.31150002E+02  0.15863E+06
 0.31200001E+02 -0.98370E+06
 0.31250000E+02 -0.22799E+07
 0.31299999E+02 -0.30820E+07
 0.31350002E+02 -0.30841E+07
 0.31400002E+02 -0.24166E+07
 0.31450001E+02 -0.12576E+07
 0.31500000E+02 -0.12730E+06
 0.31549999E+02  0.66471E+06
 0.31600002E+02  0.11266E+07
 0.31650002E+02  0.14722E+07
 0.31700001E+02  0.17275E+07
 0.31750000E+02  0.12644E+07
 0.31799999E+02 -0.10134E+06
 0.31850002E+02 -0.12861E+07
 0.31900002E+02 -0.13321E+07
 0.31950001E+02 -0.10404E+07
 0.32000000E+02 -0.14316E+07
 0.32049999E+02 -0.20372E+07
 0.32100002E+02 -0.19871E+07
 0.32150002E+02 -0.98102E+06
 0.32200001E+02  0.46552E+06
 0.32250000E+02  0.11658E+07
 0.32299999E+02  0.58112E+06
 0.32350002E+02 -0.27512E+06
 0.32400002E+02 -0.57009E+06
 0.32450001E+02 -0.60524E+06
 0.32500000E+02 -0.63454E+06
 0.32549999E+02 -0.93020E+06
 0.32600002E+02 -0.13249E+07
 0.32650002E+02 -0.11975E+07
 0.32700001E+02 -0.78611E+06
 0.32750000E+02 -0.55340E+06
 0.32799999E+02 -0.59350E+06
 0.32850002E+02 -0.66531E+06
 0.32900002E+02 -0.51074E+06
 0.32950001E+02 -0.72008E+06
 0.33000000E+02 -0.13291E+07
 0.33049999E+02 -0.14054E+07
 0.33100002E+02 -0.11294E+07
 0.33150002E+02 -0.99522E+06
 0.33200001E+02 -0.60558E+06
 0.33250000E+02  0.88092E+05
 0.33299999E+02  0.85916E+06
 0.33350002E+02  0.16028E+07
 0.33400002E+02  0.19940E+07
 0.33450001E+02  0.20534E+07
 0.33500000E+02  0.20301E+07
 0.33549999E+02  0.19446E+07
 0.33600002E+02  0.17850E+07
 0.33650002E+02  0.15147E+07
 0.33700001E+02  0.11969E+07
 0.33750000E+02  0.10433E+07
 0.33799999E+02  0.10239E+07
 0.33850002E+02  0.94368E+06
 0.33900002E+02  0.87882E+06
 0.33950001E+02  0.75615E+06
 0.34000000E+02  0.40015E+06
 0.34049999E+02  0.29057E+06
 0.34100002E+02  0.74136E+06
 0.34150002E+02  0.11454E+07
 0.34200001E+02  0.10576E+07
 0.34250000E+02  0.51897E+06
 0.34299999E+02 -0.36488E+06
 0.34350002E+02 -0.11500E+07
 0.34400002E+02 -0.15162E+07
 0.34450001E+02 -0.15836E+07
 0.34500000E+02 -0.14058E+07
 0.34549999E+02 -0.92024E+06
 0.34600002E+02 -0.23700E+06
 0.34650002E+02  0.35206E+06
 0.34700001E+02  0.94432E+06
 0.34750000E+02  0.17785E+07
 0.34799999E+02  0.24162E+07
 0.34850002E+02  0.22759E+07
 0.34900002E+02  0.15191E+07
 0.34950001E+02  0.87675E+06
 0.35000000E+02  0.85675E+06
 0.35049999E+02  0.12687E+07
 0.35100002E+02  0.16596E+07
 0.35150002E+02  0.16103E+07
 0.35200001E+02  0.70361E+06
 0.35250000E+02 -0.64825E+06
 0.35299999E+02 -0.16668E+07
 0.35350002E+02 -0.22811E+07
 0.35400002E+02 -0.22113E+07
 0.35450001E+02 -0.12154E+07
 0.35500000E+02 -0.16407E+06
 0.35549999E+02  0.29717E+06
 0.35600002E+02  0.58193E+06
 0.35650002E+02  0.88494E+06
 0.35700001E+02  0.90519E+06
 0.35750000E+02  0.55706E+06
 0.35799999E+02 -0.11522E+06
 0.35850002E+02 -0.89810E+06
 0.35900002E+02 -0.12249E+07
 0.35950001E+02 -0.84000E+06
 0.36000000E+02 -0.61143E+05
 0.36049999E+02  0.49972E+06
 0.36100002E+02  0.28071E+06
 0.36150002E+02 -0.53068E+06
 0.36200001E+02 -0.12720E+07
 0.36250000E+02 -0.14297E+07
 0.36299999E+02 -0.95988E+06
 0.36350002E+02 -0.27712E+06
 0.36400002E+02  0.39623E+06
 0.36450001E+02  0.91805E+06
 0.36500000E+02  0.13377E+07
 0.36549999E+02  0.18226E+07
 0.36600002E+02  0.20957E+07
 0.36650002E+02  0.21186E+07
 0.36700001E+02  0.20166E+07
 0.36750000E+02  0.15905E+07
 0.36799999E+02  0.95196E+06
 0.36850002E+02  0.35741E+06
 0.36900002E+02 -0.28208E+06
 0.36950001E+02 -0.81827E+06
 0.37000000E+02 -0.94180E+06
 0.37049999E+02 -0.77415E+06
 0.37100002E+02 -0.55091E+06
 0.37150002E+02 -0.35703E+06
 0.37200001E+02 -0.16238E+06
 0.37250000E+02 -0.31108E+05
 0.37299999E+02 -0.17068E+06
 0.37350002E+02 -0.59312E+06
 0.37400002E+02 -0.10684E+07
 0.37450001E+02 -0.12510E+07
 0.37500000E+02 -0.84444E+06
 0.37549999E+02  0.59346E+05
 0.37600002E+02  0.95122E+06
 0.37650002E+02  0.16773E+07
 0.37700001E+02  0.22145E+07
 0.37750000E+02  0.20552E+07
 0.37799999E+02  0.13829E+07
 0.37850002E+02  0.95280E+06
 0.37900002E+02  0.81835E+06
 0.37950001E+02  0.61488E+06
 0.38000000E+02  0.19632E+05
 0.38049999E+02 -0.92334E+06
 0.38100002E+02 -0.18288E+07
 0.38150002E+02 -0.25519E+07
 0.38200001E+02 -0.30152E+07
 0.38250000E+02 -0.30021E+07
 0.38299999E+02 -0.25564E+07
 0.38350002E+02 -0.19403E+07
 0.38400002E+02 -0.13357E+07
 0.38450001E+02 -0.82944E+06
 0.38500000E+02 -0.42372E+06
 0.38549999E+02 -0.85359E+05
 0.38600002E+02  0.67249E+05
 0.38650002E+02  0.38839E+05
 0.38700001E+02  0.61668E+05
 0.38750000E+02  0.15083E+05
 0.38799999E+02 -0.19788E+06
 0.38850002E+02 -0.46346E+06
 0.38900002E+02 -0.82633E+06
 0.38950001E+02 -0.86759E+06
 0.39000000E+02 -0.31662E+06
 0.39049999E+02  0.26511E+06
 0.39100002E+02  0.61605E+06
 0.39150002E+02  0.68802E+06
 0.39200001E+02  0.31737E+06
 0.39250000E+02 -0.16586E+06
 0.39299999E+02 -0.40960E+06
 0.39350002E+02 -0.29741E+06
 0.39400002E+02  0.13128E+06
 0.39450001E+02  0.49507E+06
 0.39500000E+02  0.56499E+06
 0.39549999E+02  0.34636E+06
 0.39600002E+02  0.74790E+04
 0.39650002E+02 -0.17380E+06
 0.39700001E+02 -0.15772E+06
 0.39750000E+02  0.44542E+05
 0.39799999E+02  0.29148E+06
 0.39850002E+02  0.32004E+06
 0.39900002E+02  0.18222E+06
 0.39950001E+02  0.30111E+05
 0.40000000E+02 -0.20854E+06
 0.40049999E+02 -0.56496E+06
 0.40100002E+02 -0.81976E+06
 0.40150002E+02 -0.78863E+06
 0.40200001E+02 -0.41304E+06
 0.40250000E+02  0.21184E+06
 0.40299999E+02  0.74664E+06
 0.40350002E+02  0.95340E+06
 0.40400002E+02  0.82527E+06
 0.40450001E+02  0.53150E+06
 0.40500000E+02  0.31002E+06
 0.40549999E+02  0.26215E+06
 0.40600002E+02  0.36036E+06
 0.40650002E+02  0.35455E+06
 0.40700001E+02  0.18541E+06
 0.40750000E+02  0.14174E+06
 0.40799999E+02  0.19475E+06
 0.40850002E+02  0.21492E+06
 0.40900002E+02  0.17351E+06
 0.40950001E+02 -0.84210E+05
 0.41000000E+02 -0.49409E+06
 0.41049999E+02 -0.78917E+06
 0.41100002E+02 -0.78247E+06
 0.41150002E+02 -0.41517E+06
 0.41200001E+02  0.11202E+06
 0.41250000E+02  0.44279E+06
 0.41299999E+02  0.47996E+06
 0.41350002E+02  0.35069E+06
 0.41400002E+02  0.99012E+05
 0.41450001E+02 -0.11720E+06
 0.41500000E+02 -0.17489E+06
 0.41549999E+02 -0.26814E+06
 0.41600002E+02 -0.46384E+06
 0.41650002E+02 -0.58246E+06
 0.41700001E+02 -0.46405E+06
 0.41750000E+02 -0.13319E+06
 0.41799999E+02  0.23788E+06
 0.41850002E+02  0.56055E+06
 0.41900002E+02  0.74317E+06
 0.41950001E+02  0.70454E+06
 0.42000000E+02  0.53469E+06
 0.42049999E+02  0.34353E+06
 0.42100002E+02  0.24033E+06
 0.42150002E+02  0.30930E+06
 0.42200001E+02  0.45780E+06
 0.42250000E+02  0.57540E+06
 0.42299999E+02  0.58724E+06
 0.42350002E+02  0.48851E+06
 0.42400002E+02  0.38084E+06
 0.42450001E+02  0.22594E+06
 0.42500000E+02  0.60892E+05
 0.42549999E+02  0.98360E+04
 0.42600002E+02  0.92299E+05
 0.42650002E+02  0.39739E+06
 0.42700001E+02  0.80828E+06
 0.42750000E+02  0.10598E+07
 0.42799999E+02  0.10500E+07
 0.42850002E+02  0.79834E+06
 0.42900002E+02  0.43395E+06
 0.42950001E+02  0.22363E+05
 0.43000000E+02 -0.33668E+06
 0.43049999E+02 -0.51097E+06
 0.43100002E+02 -0.59464E+06
 0.43150002E+02 -0.64973E+06
 0.43200001E+02 -0.66695E+06
 0.43250000E+02 -0.72011E+06
 0.43299999E+02 -0.68245E+06
 0.43350002E+02 -0.41187E+06
 0.43400002E+02 -0.12461E+06
 0.43450001E+02  0.15643E+05
 0.43500000E+02  0.16177E+05
 0.43549999E+02 -0.18612E+06
 0.43600002E+02 -0.46428E+06
 0.43650002E+02 -0.66637E+06
 0.43700001E+02 -0.85186E+06
 0.43750000E+02 -0.96673E+06
 0.43799999E+02 -0.90016E+06
 0.43850002E+02 -0.66512E+06
 0.43900002E+02 -0.38295E+06
 0.43950001E+02 -0.16413E+06
 0.44000000E+02  0.43014E+05
 0.44049999E+02  0.23722E+06
 0.44100002E+02  0.29300E+06
 0.44150002E+02  0.14284E+06
 0.44200001E+02 -0.19604E+06
 0.44250000E+02 -0.66950E+06
 0.44299999E+02 -0.11556E+07
 0.44350002E+02 -0.14436E+07
 0.44400002E+02 -0.15332E+07
 0.44450001E+02 -0.15635E+07
 0.44500000E+02 -0.14433E+07
 0.44549999E+02 -0.11159E+07
 0.44600002E+02 -0.67376E+06
 0.44650002E+02 -0.11888E+06
 0.44700001E+02  0.50046E+06
 0.44750000E+02  0.98516E+06
 0.44799999E+02  0.11236E+07
 0.44850002E+02  0.85863E+06
 0.44900002E+02  0.44152E+06
 0.44950001E+02  0.20844E+06
 0.45000000E+02  0.21618E+06
 0.45049999E+02  0.29061E+06
 0.45100002E+02  0.34605E+06
 0.45150002E+02  0.43336E+06
 0.45200001E+02  0.47258E+06
 0.45250000E+02  0.40282E+06
 0.45299999E+02  0.33280E+06
 0.45350002E+02  0.26739E+06
 0.45400002E+02  0.14458E+06
 0.45450001E+02 -0.42304E+05
 0.45500000E+02 -0.26544E+06
 0.45549999E+02 -0.40117E+06
 0.45600002E+02 -0.33238E+06
 0.45650002E+02 -0.18617E+06
 0.45700001E+02 -0.21346E+06
 0.45750000E+02 -0.38245E+06
 0.45799999E+02 -0.41881E+06
 0.45850002E+02 -0.21060E+06
 0.45900002E+02  0.82730E+05
 0.45950001E+02  0.29098E+06
 0.46000000E+02  0.37199E+06
 0.46049999E+02  0.31637E+06
 0.46100002E+02  0.14817E+06
 0.46150002E+02 -0.56732E+05
 0.46200001E+02 -0.17078E+06
 0.46250000E+02 -0.94994E+05
 0.46299999E+02  0.96463E+05
 0.46350002E+02  0.23436E+06
 0.46400002E+02  0.21766E+06
 0.46450001E+02  0.12264E+06
 0.46500000E+02  0.90508E+05
 0.46549999E+02  0.90334E+05
 0.46600002E+02  0.81515E+05
 0.46650002E+02  0.18171E+06
 0.46700001E+02  0.40566E+06
 0.46750000E+02  0.57255E+06
 0.46799999E+02  0.60956E+06
 0.46850002E+02  0.63224E+06
 0.46900002E+02  0.63825E+06
 0.46950001E+02  0.56104E+06
 0.47000000E+02  0.50277E+06
 0.47049999E+02  0.45276E+06
 0.47100002E+02  0.31164E+06
 0.47150002E+02  0.15439E+06
 0.47200001E+02 -0.38415E+05
 0.47250000E+02 -0.30634E+06
 0.47299999E+02 -0.48608E+06
 0.47350002E+02 -0.53929E+06
 0.47400002E+02 -0.52108E+06
 0.47450001E+02 -0.41099E+06
 0.47500000E+02 -0.31567E+06
 0.47549999E+02 -0.32274E+06
 0.47600002E+02 -0.37021E+06
 0.47650002E+02 -0.39349E+06
 0.47700001E+02 -0.29111E+06
 0.47750000E+02  0.98530E+04
 0.47799999E+02  0.38793E+06
 0.47850002E+02  0.64869E+06
 0.47900002E+02  0.71294E+06
 0.47950001E+02  0.57062E+06
 0.48000000E+02  0.28480E+06
 0.48049999E+02  0.29420E+04
 0.48100002E+02 -0.18543E+06
 0.48150002E+02 -0.32115E+06
 0.48200001E+02 -0.43396E+06
 0.48250000E+02 -0.45586E+06
 0.48299999E+02 -0.42423E+06
 0.48350002E+02 -0.38733E+06
 0.48400002E+02 -0.31785E+06
 0.48450001E+02 -0.24102E+06
 0.48500000E+02 -0.14721E+06
 0.48549999E+02 -0.10430E+06
 0.48600002E+02 -0.14488E+06
 0.48650002E+02 -0.15868E+06
 0.48700001E+02 -0.15142E+06
 0.48750000E+02 -0.11817E+06
 0.48799999E+02  0.53950E+05
 0.48850002E+02  0.36534E+06
 0.48900002E+02  0.58929E+06
 0.48950001E+02  0.58824E+06
 0.49000000E+02  0.49769E+06
 0.49049999E+02  0.34496E+06
 0.49100002E+02  0.10941E+06
 0.49150002E+02 -0.75886E+05
 0.49200001E+02 -0.14643E+06
 0.49250000E+02 -0.10945E+06
 0.49299999E+02  0.11321E+05
 0.49350002E+02  0.16806E+06
 0.49400002E+02  0.36823E+06
 0.49450001E+02  0.59594E+06
 0.49500000E+02  0.74023E+06
 0.49549999E+02  0.67778E+06
 0.49600002E+02  0.40270E+06
 0.49650002E+02  0.33155E+05
 0.49700001E+02 -0.34652E+06
 0.49750000E+02 -0.63624E+06
 0.49799999E+02 -0.71395E+06
 0.49850002E+02 -0.59665E+06
 0.49900002E+02 -0.38401E+06
 0.49950001E+02 -0.20921E+06
 0.50000000E+02 -0.12479E+06
 0.50049999E+02 -0.58132E+05
 0.50100002E+02 -0.21324E+05
 0.50150002E+02 -0.68019E+05
 0.50200001E+02 -0.15763E+06
 0.50250000E+02 -0.22366E+06
 0.50299999E+02 -0.25677E+06
 0.50350002E+02 -0.26054E+06
 0.50400002E+02 -0.24806E+06
 0.50450001E+02 -0.30730E+06
 0.50500000E+02 -0.43208E+06
 0.50549999E+02 -0.50707E+06
 0.50600002E+02 -0.51618E+06
 0.50650002E+02 -0.50145E+06
 0.50700001E+02 -0.50251E+06
 0.50750000E+02 -0.50594E+06
 0.50799999E+02 -0.39932E+06
 0.50850002E+02 -0.15784E+06
 0.50900002E+02  0.85811E+05
 0.50950001E+02  0.28500E+06
 0.51000000E+02  0.48775E+06
 0.51049999E+02  0.59031E+06
 0.51100002E+02  0.51332E+06
 0.51150002E+02  0.38633E+06
 0.51200001E+02  0.29107E+06
 0.51250000E+02  0.19853E+06
 0.51299999E+02  0.88942E+05
 0.51350002E+02 -0.31976E+05
 0.51400002E+02 -0.12342E+06
 0.51450001E+02 -0.19616E+06
 0.51500000E+02 -0.28728E+06
 0.51549999E+02 -0.35857E+06
 0.51600002E+02 -0.42551E+06
 0.51650002E+02 -0.52309E+06
 0.51700001E+02 -0.54418E+06
 0.51750000E+02 -0.41787E+06
 0.51799999E+02 -0.26486E+06
 0.51850002E+02 -0.21359E+06
 0.51900002E+02 -0.24582E+06
 0.51950001E+02 -0.25928E+06
 0.52000000E+02 -0.16891E+06
 0.52049999E+02  0.11452E+05
 0.52100002E+02  0.19834E+06
 0.52150002E+02  0.35863E+06
 0.52200001E+02  0.48644E+06
 0.52250000E+02  0.54120E+06
 0.52299999E+02  0.47901E+06
 0.52350002E+02  0.32468E+06
 0.52400002E+02  0.17574E+06
 0.52450001E+02  0.91912E+05
 0.52500000E+02  0.97917E+05
 0.52549999E+02  0.20530E+06
 0.52600002E+02  0.36707E+06
 0.52650002E+02  0.49346E+06
 0.52700001E+02  0.45035E+06
 0.52750000E+02  0.20896E+06
 0.52799999E+02 -0.95337E+05
 0.52850002E+02 -0.35817E+06
 0.52900002E+02 -0.54263E+06
 0.52950001E+02 -0.70060E+06
 0.53000000E+02 -0.89947E+06
 0.53049999E+02 -0.10720E+07
 0.53100002E+02 -0.11179E+07
 0.53150002E+02 -0.99005E+06
 0.53200001E+02 -0.68903E+06
 0.53250000E+02 -0.30475E+06
 0.53299999E+02  0.32560E+04
 0.53350002E+02  0.19767E+06
 0.53400002E+02  0.38705E+06
 0.53450001E+02  0.59844E+06
 0.53500000E+02  0.75042E+06
 0.53549999E+02  0.76265E+06
 0.53600002E+02  0.63835E+06
 0.53650002E+02  0.44911E+06
 0.53700001E+02  0.24229E+06
 0.53750000E+02  0.84672E+05
 0.53799999E+02  0.49440E+05
 0.53850002E+02  0.60005E+05
 0.53900002E+02 -0.46821E+05
 0.53950001E+02 -0.26342E+06
 0.54000000E+02 -0.45021E+06
 0.54049999E+02 -0.56385E+06
 0.54100002E+02 -0.62002E+06
 0.54150002E+02 -0.61820E+06
 0.54200001E+02 -0.55988E+06
 0.54250000E+02 -0.44001E+06
 0.54299999E+02 -0.29331E+06
 0.54350002E+02 -0.16316E+06
 0.54400002E+02 -0.54644E+05
 0.54450001E+02  0.81610E+04
 0.54500000E+02  0.26809E+05
 0.54549999E+02  0.77096E+05
 0.54600002E+02  0.17665E+06
 0.54650002E+02  0.26824E+06
 0.54700001E+02  0.34168E+06
 0.54750000E+02  0.38501E+06
 0.54799999E+02  0.36396E+06
 0.54850002E+02  0.29163E+06
 0.54900002E+02  0.20041E+06
 0.54950001E+02  0.14090E+06
 0.55000000E+02  0.15360E+06
 0.55049999E+02  0.20102E+06
 0.55100002E+02  0.28648E+06
 0.55150002E+02  0.44234E+06
 0.55200001E+02  0.53585E+06
 0.55250000E+02  0.43673E+06
 0.55299999E+02  0.18448E+06
 0.55350002E+02 -0.14671E+06
 0.55400002E+02 -0.45456E+06
 0.55450001E+02 -0.62486E+06
 0.55500000E+02 -0.64976E+06
 0.55549999E+02 -0.58238E+06
 0.55600002E+02 -0.44070E+06
 0.55650002E+02 -0.21468E+06
 0.55700001E+02  0.50810E+05
 0.55750000E+02  0.25275E+06
 0.55799999E+02  0.32578E+06
 0.55850002E+02  0.25668E+06
 0.55900002E+02  0.12017E+06
 0.55950001E+02  0.44857E+05
 0.56000000E+02  0.58036E+05
 0.56049999E+02  0.12878E+06
 0.56100002E+02  0.22518E+06
 0.56150002E+02  0.28742E+06
 0.56200001E+02  0.27614E+06
 0.56250000E+02  0.18865E+06
 0.56299999E+02  0.64247E+05
 0.56350002E+02 -0.18480E+05
 0.56400002E+02 -0.13540E+04
 0.56450001E+02  0.11947E+06
 0.56500000E+02  0.30470E+06
 0.56549999E+02  0.48183E+06
 0.56600002E+02  0.58524E+06
 0.56650002E+02  0.60123E+06
 0.56700001E+02  0.54564E+06
 0.56750000E+02  0.44040E+06
 0.56799999E+02  0.29553E+06
 0.56850002E+02  0.12695E+06
 0.56900002E+02 -0.13888E+05
 0.56950001E+02 -0.11830E+06
 0.57000000E+02 -0.23553E+06
 0.57049999E+02 -0.36187E+06
 0.57100002E+02 -0.45777E+06
 0.57150002E+02 -0.53654E+06
 0.57200001E+02 -0.60251E+06
 0.57250000E+02 -0.63294E+06
 0.57299999E+02 -0.63482E+06
 0.57350002E+02 -0.61016E+06
 0.57400002E+02 -0.54137E+06
 0.57450001E+02 -0.42226E+06
 0.57500000E+02 -0.27938E+06
 0.57549999E+02 -0.11775E+06
 0.57600002E+02  0.75133E+05
 0.57650002E+02  0.25374E+06
 0.57700001E+02  0.38146E+06
 0.57750000E+02  0.46416E+06
 0.57799999E+02  0.52882E+06
 0.57850002E+02  0.58088E+06
 0.57900002E+02  0.56061E+06
 0.57950001E+02  0.45371E+06
 0.58000000E+02  0.29761E+06
 0.58049999E+02  0.11850E+06
 0.58100002E+02 -0.45108E+05
 0.58150002E+02 -0.18807E+06
 0.58200001E+02 -0.30424E+06
 0.58250000E+02 -0.34982E+06
 0.58299999E+02 -0.34889E+06
 0.58350002E+02 -0.38035E+06
 0.58400002E+02 -0.47362E+06
 0.58450001E+02 -0.60989E+06
 0.58500000E+02 -0.74207E+06
 0.58549999E+02 -0.80803E+06
 0.58600002E+02 -0.80203E+06
 0.58650002E+02 -0.74209E+06
 0.58700001E+02 -0.59389E+06
 0.58750000E+02 -0.37061E+06
 0.58799999E+02 -0.16641E+06
 0.58850002E+02 -0.50415E+05
 0.58900002E+02 -0.49078E+05
 0.58950001E+02 -0.14847E+06
 0.59000000E+02 -0.25751E+06
 0.59049999E+02 -0.24512E+06
 0.59100002E+02 -0.67757E+05
 0.59150002E+02  0.17600E+06
 0.59200001E+02  0.36308E+06
 0.59250000E+02  0.45253E+06
 0.59299999E+02  0.46676E+06
 0.59350002E+02  0.45008E+06
 0.59400002E+02  0.42184E+06
 0.59450001E+02  0.35750E+06
 0.59500000E+02  0.23701E+06
 0.59549999E+02  0.90172E+05
 0.59600002E+02 -0.21974E+05
 0.59650002E+02 -0.89560E+05
 0.59700001E+02 -0.14447E+06
 0.59750000E+02 -0.20890E+06
 0.59799999E+02 -0.29407E+06
 0.59850002E+02 -0.34226E+06
 0.59900002E+02 -0.28036E+06
 0.59950001E+02 -0.13039E+06
 0.60000000E+02  0.53728E+05
 0.60049999E+02  0.24715E+06
 0.60100002E+02  0.40532E+06
 0.60150002E+02  0.45901E+06
 0.60200001E+02  0.39411E+06
 0.60250000E+02  0.26084E+06
 0.60299999E+02  0.11672E+06
 0.60350002E+02 -0.22807E+05
 0.60400002E+02 -0.17214E+06
 0.60450001E+02 -0.28964E+06
 0.60500000E+02 -0.33516E+06
 0.60549999E+02 -0.34342E+06
 0.60600002E+02 -0.33255E+06
 0.60650002E+02 -0.27819E+06
 0.60700001E+02 -0.18512E+06
 0.60750000E+02 -0.11172E+06
 0.60799999E+02 -0.10196E+06
 0.60850002E+02 -0.13896E+06
 0.60900002E+02 -0.17720E+06
 0.60950001E+02 -0.19882E+06
 0.61000000E+02 -0.24055E+06
 0.61050003E+02 -0.32072E+06
 0.61099998E+02 -0.38561E+06
 0.61150002E+02 -0.36537E+06
 0.61200005E+02 -0.27005E+06
 0.61250000E+02 -0.15864E+06
 0.61300003E+02 -0.43000E+05
 0.61349998E+02  0.72420E+05
 0.61400002E+02  0.18117E+06
 0.61450005E+02  0.27474E+06
 0.61500000E+02  0.32309E+06
 0.61550003E+02  0.32701E+06
 0.61599998E+02  0.30340E+06
 0.61650002E+02  0.28350E+06
 0.61700005E+02  0.30322E+06
 0.61750000E+02  0.34702E+06
 0.61800003E+02  0.39230E+06
 0.61849998E+02  0.42073E+06
 0.61900002E+02  0.39500E+06
 0.61950005E+02  0.32235E+06
 0.62000000E+02  0.25003E+06
 0.62050003E+02  0.19278E+06
 0.62099998E+02  0.14485E+06
 0.62150002E+02  0.69200E+05
 0.62200005E+02 -0.69715E+05
 0.62250000E+02 -0.21590E+06
 0.62300003E+02 -0.31908E+06
 0.62349998E+02 -0.36938E+06
 0.62400002E+02 -0.35726E+06
 0.62450005E+02 -0.33409E+06
 0.62500000E+02 -0.34066E+06
 0.62550003E+02 -0.37047E+06
 0.62599998E+02 -0.42405E+06
 0.62650002E+02 -0.48227E+06
 0.62700005E+02 -0.51350E+06
 0.62750000E+02 -0.48695E+06
 0.62800003E+02 -0.37919E+06
 0.62849998E+02 -0.19386E+06
 0.62900002E+02  0.25499E+05
 0.62950005E+02  0.21566E+06
 0.63000000E+02  0.35080E+06
 0.63050003E+02  0.39956E+06
 0.63099998E+02  0.32644E+06
 0.63150002E+02  0.18813E+06
 0.63200005E+02  0.73693E+05
 0.63250000E+02  0.78760E+04
 0.63300003E+02 -0.42776E+05
 0.63349998E+02 -0.12887E+06
 0.63400002E+02 -0.25599E+06
 0.63450005E+02 -0.39958E+06
 0.63500000E+02 -0.53366E+06
 0.63550003E+02 -0.60062E+06
 0.63599998E+02 -0.57346E+06
 0.63650002E+02 -0.48565E+06
 0.63700005E+02 -0.36557E+06
 0.63750000E+02 -0.22592E+06
 0.63800003E+02 -0.76163E+05
 0.63849998E+02  0.69579E+05
 0.63900002E+02  0.19512E+06
 0.63950005E+02  0.27649E+06
 0.64000000E+02  0.29161E+06
 0.64050003E+02  0.26506E+06
 0.64099998E+02  0.23484E+06
 0.64150002E+02  0.19702E+06
 0.64200005E+02  0.12577E+06
 0.64250000E+02  0.14760E+05
 0.64300003E+02 -0.97581E+05
 0.64349998E+02 -0.14406E+06
 0.64400002E+02 -0.87965E+05
 0.64450005E+02  0.35726E+05
 0.64500000E+02  0.16335E+06
 0.64550003E+02  0.28314E+06
 0.64599998E+02  0.41060E+06
 0.64650002E+02  0.51028E+06
 0.64700005E+02  0.53788E+06
 0.64750000E+02  0.50910E+06
 0.64800003E+02  0.46588E+06
 0.64849998E+02  0.43682E+06
 0.64900002E+02  0.41565E+06
 0.64950005E+02  0.36540E+06
 0.65000000E+02  0.28854E+06
 0.65050003E+02  0.22005E+06
 0.65099998E+02  0.15554E+06
 0.65150002E+02  0.77281E+05
 0.65200005E+02 -0.28970E+04
 0.65250000E+02 -0.66781E+05
 0.65300003E+02 -0.12141E+06
 0.65349998E+02 -0.19090E+06
 0.65400002E+02 -0.29446E+06
 0.65450005E+02 -0.43362E+06
 0.65500000E+02 -0.55266E+06
 0.65550003E+02 -0.58545E+06
 0.65599998E+02 -0.54166E+06
 0.65650002E+02 -0.44928E+06
 0.65700005E+02 -0.31698E+06
 0.65750000E+02 -0.16581E+06
 0.65800003E+02 -0.27887E+05
 0.65849998E+02  0.48294E+05
 0.65900002E+02  0.35301E+05
 0.65950005E+02 -0.16514E+05
 0.66000000E+02 -0.23907E+05
 0.66050003E+02  0.42332E+05
 0.66099998E+02  0.14033E+06
 0.66150002E+02  0.21249E+06
 0.66200005E+02  0.22225E+06
 0.66250000E+02  0.16068E+06
 0.66300003E+02  0.55474E+05
 0.66349998E+02 -0.60073E+05
 0.66400002E+02 -0.13394E+06
 0.66450005E+02 -0.10844E+06
 0.66500000E+02  0.96000E+02
 0.66550003E+02  0.13291E+06
 0.66599998E+02  0.23681E+06
 0.66650002E+02  0.27979E+06
 0.66700005E+02  0.26330E+06
 0.66750000E+02  0.20568E+06
 0.66800003E+02  0.13973E+06
 0.66849998E+02  0.89258E+05
 0.66900002E+02  0.42762E+05
 0.66950005E+02 -0.25005E+05
 0.67000000E+02 -0.11665E+06
 0.67050003E+02 -0.21088E+06
 0.67099998E+02 -0.27708E+06
 0.67150002E+02 -0.29294E+06
 0.67200005E+02 -0.27151E+06
 0.67250000E+02 -0.24300E+06
 0.67300003E+02 -0.22519E+06
 0.67349998E+02 -0.22387E+06
 0.67400002E+02 -0.23575E+06
 0.67450005E+02 -0.26179E+06
 0.67500000E+02 -0.29048E+06
 0.67550003E+02 -0.26645E+06
 0.67599998E+02 -0.14682E+06
 0.67650002E+02  0.38688E+05
 0.67700005E+02  0.21312E+06
 0.67750000E+02  0.30786E+06
 0.67800003E+02  0.31755E+06
 0.67849998E+02  0.26955E+06
 0.67900002E+02  0.17097E+06
 0.67950005E+02  0.54123E+05
 0.68000000E+02 -0.27792E+05
 0.68050003E+02 -0.48481E+05
 0.68099998E+02 -0.20280E+04
 0.68150002E+02  0.98439E+05
 0.68200005E+02  0.21915E+06
 0.68250000E+02  0.31540E+06
 0.68300003E+02  0.35120E+06
 0.68349998E+02  0.30759E+06
 0.68400002E+02  0.20902E+06
 0.68450005E+02  0.13001E+06
 0.68500000E+02  0.90946E+05
 0.68550003E+02  0.48548E+05
 0.68599998E+02 -0.45670E+04
 0.68650002E+02 -0.49537E+05
 0.68700005E+02 -0.77387E+05
 0.68750000E+02 -0.97265E+05
 0.68800003E+02 -0.13461E+06
 0.68849998E+02 -0.18780E+06
 0.68900002E+02 -0.23044E+06
 0.68950005E+02 -0.25759E+06
 0.69000000E+02 -0.28063E+06
 0.69050003E+02 -0.28008E+06
 0.69099998E+02 -0.21353E+06
 0.69150002E+02 -0.97314E+05
 0.69200005E+02  0.60490E+04
 0.69250000E+02  0.70152E+05
 0.69300003E+02  0.96105E+05
 0.69349998E+02  0.89649E+05
 0.69400002E+02  0.60038E+05
 0.69450005E+02  0.17160E+05
 0.69500000E+02 -0.31219E+05
 0.69550003E+02 -0.91334E+05
 0.69599998E+02 -0.15611E+06
 0.69650002E+02 -0.18467E+06
 0.69700005E+02 -0.14420E+06
 0.69750000E+02 -0.44743E+05
 0.69800003E+02  0.81755E+05
 0.69849998E+02  0.20530E+06
 0.69900002E+02  0.29218E+06
 0.69950005E+02  0.31292E+06
 0.70000000E+02  0.26723E+06
 0.70050003E+02  0.19329E+06
 0.70099998E+02  0.14140E+06
 0.70150002E+02  0.13121E+06
 0.70200005E+02  0.15119E+06
 0.70250000E+02  0.18886E+06
 0.70300003E+02  0.22738E+06
 0.70349998E+02  0.23788E+06
 0.70400002E+02  0.20567E+06
 0.70450005E+02  0.13909E+06
 0.70500000E+02  0.59152E+05
 0.70550003E+02 -0.16900E+04
 0.70599998E+02 -0.25593E+05
 0.70650002E+02 -0.32263E+05
 0.70700005E+02 -0.57020E+05
 0.70750000E+02 -0.11635E+06
 0.70800003E+02 -0.18874E+06
 0.70849998E+02 -0.24688E+06
 0.70900002E+02 -0.29906E+06
 0.70950005E+02 -0.35888E+06
 0.71000000E+02 -0.40978E+06
 0.71050003E+02 -0.42853E+06
 0.71099998E+02 -0.40910E+06
 0.71150002E+02 -0.36124E+06
 0.71200005E+02 -0.30728E+06
 0.71250000E+02 -0.27280E+06
 0.71300003E+02 -0.28201E+06
 0.71349998E+02 -0.33909E+06
 0.71400002E+02 -0.40311E+06
 0.71450005E+02 -0.42658E+06
 0.71500000E+02 -0.39817E+06
 0.71550003E+02 -0.33283E+06
 0.71599998E+02 -0.26030E+06
 0.71650002E+02 -0.20181E+06
 0.71700005E+02 -0.14113E+06
 0.71750000E+02 -0.46503E+05
 0.71800003E+02  0.78357E+05
 0.71849998E+02  0.19116E+06
 0.71900002E+02  0.26065E+06
 0.71950005E+02  0.28820E+06
 0.72000000E+02  0.28557E+06
 0.72050003E+02  0.26006E+06
 0.72099998E+02  0.22357E+06
 0.72150002E+02  0.19215E+06
 0.72200005E+02  0.16235E+06
 0.72250000E+02  0.11533E+06
 0.72300003E+02  0.37130E+05
 0.72349998E+02 -0.73289E+05
 0.72400002E+02 -0.19355E+06
 0.72450005E+02 -0.29362E+06
 0.72500000E+02 -0.36279E+06
 0.72550003E+02 -0.40240E+06
 0.72599998E+02 -0.41930E+06
 0.72650002E+02 -0.43818E+06
 0.72700005E+02 -0.47142E+06
 0.72750000E+02 -0.48514E+06
 0.72800003E+02 -0.43857E+06
 0.72849998E+02 -0.33964E+06
 0.72900002E+02 -0.24667E+06
 0.72950005E+02 -0.19879E+06
 0.73000000E+02 -0.18189E+06
 0.73050003E+02 -0.18197E+06
 0.73099998E+02 -0.18975E+06
 0.73150002E+02 -0.18045E+06
 0.73200005E+02 -0.13531E+06
 0.73250000E+02 -0.65709E+05
 0.73300003E+02 -0.39140E+04
 0.73349998E+02  0.44235E+05
 0.73400002E+02  0.81127E+05
 0.73450005E+02  0.84064E+05
 0.73500000E+02  0.47151E+05
 0.73550003E+02 -0.10944E+05
 0.73599998E+02 -0.73777E+05
 0.73650002E+02 -0.11922E+06
 0.73700005E+02 -0.11282E+06
 0.73750000E+02 -0.43095E+05
 0.73800003E+02  0.60811E+05
 0.73849998E+02  0.16925E+06
 0.73900002E+02  0.27037E+06
 0.73950005E+02  0.35842E+06
 0.74000000E+02  0.42562E+06
 0.74050003E+02  0.45381E+06
 0.74099998E+02  0.42228E+06
 0.74150002E+02  0.32366E+06
 0.74200005E+02  0.18276E+06
 0.74250000E+02  0.59397E+05
 0.74300003E+02  0.13900E+03
 0.74349998E+02 -0.81370E+04
 0.74400002E+02 -0.77200E+04
 0.74450005E+02 -0.11436E+05
 0.74500000E+02 -0.80790E+04
 0.74550003E+02  0.61500E+03
 0.74599998E+02  0.13596E+05
 0.74650002E+02  0.54217E+05
 0.74700005E+02  0.12403E+06
 0.74750000E+02  0.18601E+06
 0.74800003E+02  0.21814E+06
 0.74849998E+02  0.21354E+06
 0.74900002E+02  0.15947E+06
 0.74950005E+02  0.63060E+05
 0.75000000E+02 -0.29472E+05
 0.75050003E+02 -0.75329E+05
 0.75099998E+02 -0.81588E+05
 0.75150002E+02 -0.82068E+05
 0.75200005E+02 -0.10328E+06
 0.75250000E+02 -0.14628E+06
 0.75300003E+02 -0.18105E+06
 0.75349998E+02 -0.17592E+06
 0.75400002E+02 -0.12234E+06
 0.75450005E+02 -0.32627E+05
 0.75500000E+02  0.66677E+05
 0.75550003E+02  0.15108E+06
 0.75599998E+02  0.21409E+06
 0.75650002E+02  0.25686E+06
 0.75700005E+02  0.28168E+06
 0.75750000E+02  0.29304E+06
 0.75800003E+02  0.28621E+06
 0.75849998E+02  0.26071E+06
 0.75900002E+02  0.23827E+06
 0.75950005E+02  0.22746E+06
 0.76000000E+02  0.19827E+06
 0.76050003E+02  0.12634E+06
 0.76099998E+02  0.22228E+05
 0.76150002E+02 -0.92978E+05
 0.76200005E+02 -0.18834E+06
 0.76250000E+02 -0.22356E+06
 0.76300003E+02 -0.18932E+06
 0.76349998E+02 -0.10499E+06
 0.76400002E+02  0.12370E+04
 0.76450005E+02  0.83956E+05
 0.76500000E+02  0.12553E+06
 0.76550003E+02  0.15816E+06
 0.76599998E+02  0.19068E+06
 0.76650002E+02  0.20002E+06
 0.76700005E+02  0.18101E+06
 0.76750000E+02  0.14391E+06
 0.76800003E+02  0.97551E+05
 0.76849998E+02  0.35806E+05
 0.76900002E+02 -0.48424E+05
 0.76950005E+02 -0.13726E+06
 0.77000000E+02 -0.20261E+06
 0.77050003E+02 -0.22956E+06
 0.77099998E+02 -0.22720E+06
 0.77150002E+02 -0.21546E+06
 0.77200005E+02 -0.20618E+06
 0.77250000E+02 -0.20244E+06
 0.77300003E+02 -0.19854E+06
 0.77349998E+02 -0.18748E+06
 0.77400002E+02 -0.17164E+06
 0.77450005E+02 -0.15820E+06
 0.77500000E+02 -0.14906E+06
 0.77550003E+02 -0.14119E+06
 0.77599998E+02 -0.13658E+06
 0.77650002E+02 -0.14532E+06
 0.77700005E+02 -0.16774E+06
 0.77750000E+02 -0.19551E+06
 0.77800003E+02 -0.23467E+06
 0.77849998E+02 -0.28796E+06
 0.77900002E+02 -0.33325E+06
 0.77950005E+02 -0.33678E+06
 0.78000000E+02 -0.28284E+06
 0.78050003E+02 -0.19675E+06
 0.78099998E+02 -0.10893E+06
 0.78150002E+02 -0.25573E+05
 0.78200005E+02  0.42760E+05
 0.78250000E+02  0.85316E+05
 0.78300003E+02  0.10700E+06
 0.78349998E+02  0.11366E+06
 0.78400002E+02  0.10333E+06
 0.78450005E+02  0.74176E+05
 0.78500000E+02  0.44478E+05
 0.78550003E+02  0.42278E+05
 0.78599998E+02  0.80801E+05
 0.78650002E+02  0.15350E+06
 0.78700005E+02  0.23916E+06
 0.78750000E+02  0.31909E+06
 0.78800003E+02  0.37888E+06
 0.78849998E+02  0.40583E+06
 0.78900002E+02  0.39661E+06
 0.78950005E+02  0.35278E+06
 0.79000000E+02  0.28000E+06
 0.79050003E+02  0.19619E+06
 0.79099998E+02  0.12776E+06
 0.79150002E+02  0.94431E+05
 0.79200005E+02  0.97456E+05
 0.79250000E+02  0.12500E+06
 0.79300003E+02  0.16437E+06
 0.79349998E+02  0.20137E+06
 0.79400002E+02  0.22640E+06
 0.79450005E+02  0.24209E+06
 0.79500000E+02  0.25122E+06
 0.79550003E+02  0.24511E+06
 0.79599998E+02  0.20458E+06
 0.79650002E+02  0.11696E+06
 0.79700005E+02 -0.11374E+05
 0.79750000E+02 -0.15118E+06
 0.79800003E+02 -0.26114E+06
 0.79849998E+02 -0.32273E+06
 0.79900002E+02 -0.34180E+06
 0.79950005E+02 -0.32407E+06
 0.80000000E+02 -0.27222E+06
 0.80050003E+02 -0.20592E+06
 0.80099998E+02 -0.16681E+06
 0.80150002E+02 -0.17610E+06
 0.80200005E+02 -0.21874E+06
 0.80250000E+02 -0.27012E+06
 0.80300003E+02 -0.30947E+06
 0.80349998E+02 -0.32529E+06
 0.80400002E+02 -0.31209E+06
 0.80450005E+02 -0.26714E+06
 0.80500000E+02 -0.19022E+06
 0.80550003E+02 -0.86363E+05
 0.80599998E+02  0.24509E+05
 0.80650002E+02  0.11265E+06
 0.80700005E+02  0.15753E+06
 0.80750000E+02  0.16212E+06
 0.80800003E+02  0.13447E+06
 0.80849998E+02  0.72179E+05
 0.80900002E+02 -0.13217E+05
 0.80950005E+02 -0.92708E+05
 0.81000000E+02 -0.13586E+06
 0.81050003E+02 -0.11876E+06
 0.81099998E+02 -0.44181E+05
 0.81150002E+02  0.49374E+05
 0.81200005E+02  0.11338E+06
 0.81250000E+02  0.12453E+06
 0.81300003E+02  0.97836E+05
 0.81349998E+02  0.62905E+05
 0.81400002E+02  0.26085E+05
 0.81450005E+02 -0.21762E+05
 0.81500000E+02 -0.72387E+05
 0.81550003E+02 -0.10901E+06
 0.81599998E+02 -0.13100E+06
 0.81650002E+02 -0.15013E+06
 0.81700005E+02 -0.17984E+06
 0.81750000E+02 -0.22315E+06
 0.81800003E+02 -0.26095E+06
 0.81849998E+02 -0.28371E+06
 0.81900002E+02 -0.29755E+06
 0.81950005E+02 -0.29063E+06
 0.82000000E+02 -0.25999E+06
 0.82050003E+02 -0.22365E+06
 0.82099998E+02 -0.18698E+06
 0.82150002E+02 -0.14643E+06
 0.82200005E+02 -0.10615E+06
 0.82250000E+02 -0.70521E+05
 0.82300003E+02 -0.32932E+05
 0.82349998E+02  0.15031E+05
 0.82400002E+02  0.67558E+05
 0.82450005E+02  0.11055E+06
 0.82500000E+02  0.14183E+06
 0.82550003E+02  0.16823E+06
 0.82599998E+02  0.18380E+06
 0.82650002E+02  0.17534E+06
 0.82700005E+02  0.14343E+06
 0.82750000E+02  0.95838E+05
 0.82800003E+02  0.30202E+05
 0.82849998E+02 -0.54591E+05
 0.82900002E+02 -0.13943E+06
 0.82950005E+02 -0.20410E+06
 0.83000000E+02 -0.24369E+06
 0.83050003E+02 -0.25329E+06
 0.83099998E+02 -0.23642E+06
 0.83150002E+02 -0.21416E+06
 0.83200005E+02 -0.20599E+06
 0.83250000E+02 -0.21209E+06
 0.83300003E+02 -0.20523E+06
 0.83349998E+02 -0.15803E+06
 0.83400002E+02 -0.75935E+05
 0.83450005E+02  0.67570E+04
 0.83500000E+02  0.49051E+05
 0.83550003E+02  0.37657E+05
 0.83599998E+02 -0.23270E+04
 0.83650002E+02 -0.30837E+05
 0.83700005E+02 -0.16951E+05
 0.83750000E+02  0.39973E+05
 0.83800003E+02  0.11652E+06
 0.83849998E+02  0.18863E+06
 0.83900002E+02  0.24114E+06
 0.83950005E+02  0.27474E+06
 0.84000000E+02  0.29831E+06
 0.84050003E+02  0.30544E+06
 0.84099998E+02  0.27767E+06
 0.84150002E+02  0.21810E+06
 0.84200005E+02  0.15320E+06
 0.84250000E+02  0.10521E+06
 0.84300003E+02  0.84947E+05
 0.84349998E+02  0.87460E+05
 0.84400002E+02  0.97126E+05
 0.84450005E+02  0.10889E+06
 0.84500000E+02  0.11995E+06
 0.84550003E+02  0.11837E+06
 0.84599998E+02  0.99047E+05
 0.84650002E+02  0.70032E+05
 0.84700005E+02  0.43433E+05
 0.84750000E+02  0.26195E+05
 0.84800003E+02  0.14034E+05
 0.84849998E+02 -0.49030E+04
 0.84900002E+02 -0.39544E+05
 0.84950005E+02 -0.83632E+05
 0.85000000E+02 -0.11859E+06
 0.85050003E+02 -0.12646E+06
 0.85099998E+02 -0.95795E+05
 0.85150002E+02 -0.32751E+05
 0.85200005E+02  0.37747E+05
 0.85250000E+02  0.87743E+05
 0.85300003E+02  0.96918E+05
 0.85349998E+02  0.61359E+05
 0.85400002E+02 -0.64600E+03
 0.85450005E+02 -0.62917E+05
 0.85500000E+02 -0.11153E+06
 0.85550003E+02 -0.14252E+06
 0.85599998E+02 -0.15119E+06
 0.85650002E+02 -0.13258E+06
 0.85700005E+02 -0.86485E+05
 0.85750000E+02 -0.18533E+05
 0.85800003E+02  0.61258E+05
 0.85849998E+02  0.13132E+06
 0.85900002E+02  0.15856E+06
 0.85950005E+02  0.12888E+06
 0.86000000E+02  0.56525E+05
 0.86050003E+02 -0.42508E+05
 0.86099998E+02 -0.15098E+06
 0.86150002E+02 -0.24176E+06
 0.86200005E+02 -0.28900E+06
 0.86250000E+02 -0.28828E+06
 0.86300003E+02 -0.26056E+06
 0.86349998E+02 -0.21909E+06
 0.86400002E+02 -0.16047E+06
 0.86450005E+02 -0.92613E+05
 0.86500000E+02 -0.28002E+05
 0.86550003E+02  0.33147E+05
 0.86599998E+02  0.94556E+05
 0.86650002E+02  0.15954E+06
 0.86700005E+02  0.22069E+06
 0.86750000E+02  0.25313E+06
 0.86800003E+02  0.24278E+06
 0.86849998E+02  0.20037E+06
 0.86900002E+02  0.14183E+06
 0.86950005E+02  0.85226E+05
 0.87000000E+02  0.52530E+05
 0.87050003E+02  0.52911E+05
 0.87099998E+02  0.79494E+05
 0.87150002E+02  0.11256E+06
 0.87200005E+02  0.12016E+06
 0.87250000E+02  0.90121E+05
 0.87300003E+02  0.46685E+05
 0.87349998E+02  0.12887E+05
 0.87400002E+02 -0.11085E+05
 0.87450005E+02 -0.34304E+05
 0.87500000E+02 -0.63547E+05
 0.87550003E+02 -0.99658E+05
 0.87599998E+02 -0.14036E+06
 0.87650002E+02 -0.18891E+06
 0.87700005E+02 -0.25598E+06
 0.87750000E+02 -0.34222E+06
 0.87800003E+02 -0.42992E+06
 0.87849998E+02 -0.50100E+06
 0.87900002E+02 -0.53975E+06
 0.87950005E+02 -0.53113E+06
 0.88000000E+02 -0.47584E+06
 0.88050003E+02 -0.38074E+06
 0.88099998E+02 -0.24636E+06
 0.88150002E+02 -0.85074E+05
 0.88200005E+02  0.66751E+05
 0.88250000E+02  0.16386E+06
 0.88300003E+02  0.18833E+06
 0.88349998E+02  0.16044E+06
 0.88400002E+02  0.10938E+06
 0.88450005E+02  0.53769E+05
 0.88500000E+02  0.52870E+04
 0.88550003E+02 -0.25786E+05
 0.88599998E+02 -0.36399E+05
 0.88650002E+02 -0.31276E+05
 0.88700005E+02 -0.14677E+05
 0.88750000E+02  0.12013E+05
 0.88800003E+02  0.49916E+05
 0.88849998E+02  0.94495E+05
 0.88900002E+02  0.13245E+06
 0.88950005E+02  0.15526E+06
 0.89000000E+02  0.16532E+06
 0.89050003E+02  0.16848E+06
 0.89099998E+02  0.17172E+06
 0.89150002E+02  0.18326E+06
 0.89200005E+02  0.20057E+06
 0.89250000E+02  0.20431E+06
 0.89300003E+02  0.17736E+06
 0.89349998E+02  0.11973E+06
 0.89400002E+02  0.44124E+05
 0.89450005E+02 -0.25823E+05
 0.89500000E+02 -0.68034E+05
 0.89550003E+02 -0.80461E+05
 0.89599998E+02 -0.74792E+05
 0.89650002E+02 -0.62428E+05
 0.89700005E+02 -0.49984E+05
 0.89750000E+02 -0.37066E+05
 0.89800003E+02 -0.21361E+05
 0.89849998E+02 -0.70120E+04
 0.89900002E+02  0.10010E+04
 0.89950005E+02  0.60200E+03
 0.90000000E+02 -0.10553E+05
 0.90050003E+02 -0.22534E+05
 0.90099998E+02 -0.19727E+05
 0.90150002E+02 -0.63730E+04
 0.90200005E+02  0.61620E+04
 0.90250000E+02  0.21483E+05
 0.90300003E+02  0.46421E+05
 0.90349998E+02  0.75279E+05
 0.90400002E+02  0.99211E+05
 0.90450005E+02  0.11254E+06
 0.90500000E+02  0.10879E+06
 0.90550003E+02  0.87482E+05
 0.90599998E+02  0.52491E+05
 0.90650002E+02  0.11439E+05
 0.90700005E+02 -0.18633E+05
 0.90750000E+02 -0.29105E+05
 0.90800003E+02 -0.34563E+05
 0.90849998E+02 -0.48963E+05
 0.90900002E+02 -0.64326E+05
 0.90950005E+02 -0.66248E+05
 0.91000000E+02 -0.54680E+05
 0.91050003E+02 -0.46286E+05
 0.91099998E+02 -0.54821E+05
 0.91150002E+02 -0.74438E+05
 0.91200005E+02 -0.86328E+05
 0.91250000E+02 -0.71347E+05
 0.91300003E+02 -0.28663E+05
 0.91349998E+02  0.19093E+05
 0.91400002E+02  0.48495E+05
 0.91450005E+02  0.53809E+05
 0.91500000E+02  0.46878E+05
 0.91550003E+02  0.43839E+05
 0.91599998E+02  0.54406E+05
 0.91650002E+02  0.78189E+05
 0.91700005E+02  0.10200E+06
 0.91750000E+02  0.11357E+06
 0.91800003E+02  0.11766E+06
 0.91849998E+02  0.12601E+06
 0.91900002E+02  0.14243E+06
 0.91950005E+02  0.16376E+06
 0.92000000E+02  0.18606E+06
 0.92050003E+02  0.20442E+06
 0.92099998E+02  0.20968E+06
 0.92150002E+02  0.19562E+06
 0.92200005E+02  0.16893E+06
 0.92250000E+02  0.14250E+06
 0.92300003E+02  0.11882E+06
 0.92349998E+02  0.91593E+05
 0.92400002E+02  0.60767E+05
 0.92450005E+02  0.27963E+05
 0.92500000E+02 -0.10623E+05
 0.92550003E+02 -0.52046E+05
 0.92599998E+02 -0.87312E+05
 0.92650002E+02 -0.11363E+06
 0.92700005E+02 -0.13030E+06
 0.92750000E+02 -0.13213E+06
 0.92800003E+02 -0.11448E+06
 0.92849998E+02 -0.83298E+05
 0.92900002E+02 -0.53835E+05
 0.92950005E+02 -0.37621E+05
 0.93000000E+02 -0.38555E+05
 0.93050003E+02 -0.54760E+05
 0.93099998E+02 -0.76447E+05
 0.93150002E+02 -0.88855E+05
 0.93200005E+02 -0.84576E+05
 0.93250000E+02 -0.68757E+05
 0.93300003E+02 -0.51112E+05
 0.93349998E+02 -0.38981E+05
 0.93400002E+02 -0.34463E+05
 0.93450005E+02 -0.37248E+05
 0.93500000E+02 -0.46768E+05
 0.93550003E+02 -0.57326E+05
 0.93599998E+02 -0.62165E+05
 0.93650002E+02 -0.59898E+05
 0.93700005E+02 -0.54384E+05
 0.93750000E+02 -0.50424E+05
 0.93800003E+02 -0.42535E+05
 0.93849998E+02 -0.25360E+05
 0.93900002E+02 -0.68880E+04
 0.93950005E+02  0.98550E+04
 0.94000000E+02  0.29930E+05
 0.94050003E+02  0.54470E+05
 0.94099998E+02  0.83064E+05
 0.94150002E+02  0.11190E+06
 0.94200005E+02  0.12995E+06
 0.94250000E+02  0.12560E+06
 0.94300003E+02  0.95630E+05
 0.94349998E+02  0.45789E+05
 0.94400002E+02 -0.10290E+05
 0.94450005E+02 -0.57070E+05
 0.94500000E+02 -0.88857E+05
 0.94550003E+02 -0.10216E+06
 0.94599998E+02 -0.89977E+05
 0.94650002E+02 -0.56334E+05
 0.94700005E+02 -0.19324E+05
 0.94750000E+02  0.34580E+04
 0.94800003E+02  0.10257E+05
 0.94849998E+02  0.96520E+04
 0.94900002E+02  0.14580E+04
 0.94950005E+02 -0.15009E+05
 0.95000000E+02 -0.32444E+05
 0.95050003E+02 -0.50803E+05
 0.95099998E+02 -0.74382E+05
 0.95150002E+02 -0.10682E+06
 0.95200005E+02 -0.15309E+06
 0.95250000E+02 -0.20035E+06
 0.95300003E+02 -0.21594E+06
 0.95349998E+02 -0.18161E+06
 0.95400002E+02 -0.11342E+06
 0.95450005E+02 -0.40442E+05
 0.95500000E+02  0.19838E+05
 0.95550003E+02  0.63313E+05
 0.95599998E+02  0.94691E+05
 0.95650002E+02  0.11972E+06
 0.95700005E+02  0.13692E+06
 0.95750000E+02  0.14175E+06
 0.95800003E+02  0.13693E+06
 0.95849998E+02  0.13344E+06
 0.95900002E+02  0.14004E+06
 0.95950005E+02  0.15174E+06
 0.96000000E+02  0.15607E+06
 0.96050003E+02  0.15024E+06
 0.96099998E+02  0.13810E+06
 0.96150002E+02  0.12116E+06
 0.96200005E+02  0.10023E+06
 0.96250000E+02  0.75040E+05
 0.96300003E+02  0.48576E+05
 0.96349998E+02  0.30320E+05
 0.96400002E+02  0.25340E+05
 0.96450005E+02  0.28250E+05
 0.96500000E+02  0.30260E+05
 0.96550003E+02  0.28197E+05
 0.96599998E+02  0.24652E+05
 0.96650002E+02  0.16555E+05
 0.96700005E+02 -0.22330E+04
 0.96750000E+02 -0.31191E+05
 0.96800003E+02 -0.71743E+05
 0.96849998E+02 -0.12145E+06
 0.96900002E+02 -0.16277E+06
 0.96950005E+02 -0.18375E+06
 0.97000000E+02 -0.18912E+06
 0.97050003E+02 -0.18671E+06
 0.97099998E+02 -0.17910E+06
 0.97150002E+02 -0.16382E+06
 0.97200005E+02 -0.14213E+06
 0.97250000E+02 -0.11713E+06
 0.97300003E+02 -0.83400E+05
 0.97349998E+02 -0.35941E+05
 0.97400002E+02  0.20180E+05
 0.97450005E+02  0.69989E+05
 0.97500000E+02  0.95875E+05
 0.97550003E+02  0.93175E+05
 0.97599998E+02  0.68057E+05
 0.97650002E+02  0.24280E+05
 0.97700005E+02 -0.29555E+05
 0.97750000E+02 -0.79655E+05
 0.97800003E+02 -0.12156E+06
 0.97849998E+02 -0.15257E+06
 0.97900002E+02 -0.17132E+06
 0.97950005E+02 -0.18782E+06
 0.98000000E+02 -0.20613E+06
 0.98050003E+02 -0.21867E+06
 0.98099998E+02 -0.21841E+06
 0.98150002E+02 -0.20124E+06
 0.98200005E+02 -0.17064E+06
 0.98250000E+02 -0.13507E+06
 0.98300003E+02 -0.10101E+06
 0.98349998E+02 -0.74009E+05
 0.98400002E+02 -0.55653E+05
 0.98450005E+02 -0.45135E+05
 0.98500000E+02 -0.44582E+05
 0.98550003E+02 -0.54381E+05
 0.98599998E+02 -0.66603E+05
 0.98650002E+02 -0.67227E+05
 0.98700005E+02 -0.48579E+05
 0.98750000E+02 -0.17468E+05
 0.98800003E+02  0.14133E+05
 0.98849998E+02  0.39166E+05
 0.98900002E+02  0.52544E+05
 0.98950005E+02  0.53370E+05
 0.99000000E+02  0.48738E+05
 0.99050003E+02  0.45248E+05
 0.99099998E+02  0.45978E+05
 0.99150002E+02  0.49550E+05
 0.99200005E+02  0.50082E+05
 0.99250000E+02  0.46752E+05
 0.99300003E+02  0.39473E+05
 0.99349998E+02  0.21422E+05
 0.99400002E+02 -0.88600E+04
 0.99450005E+02 -0.43311E+05
 0.99500000E+02 -0.73043E+05
 0.99550003E+02 -0.90748E+05
 0.99599998E+02 -0.90255E+05
 0.99650002E+02 -0.68650E+05
 0.99700005E+02 -0.31655E+05
 0.99750000E+02  0.90210E+04
 0.99800003E+02  0.47062E+05
 0.99849998E+02  0.85672E+05
 0.99900002E+02  0.12922E+06
 0.99950005E+02  0.17079E+06
 0.10000000E+03  0.19639E+06
 0.10005000E+03  0.19847E+06
 0.10010000E+03  0.17716E+06
 0.10015000E+03  0.13921E+06
 0.10020000E+03  0.97459E+05
 0.10025000E+03  0.63516E+05
 0.10030000E+03  0.42861E+05
 0.10035000E+03  0.34664E+05
 0.10040000E+03  0.34352E+05
 0.10045000E+03  0.36363E+05
 0.10050000E+03  0.35363E+05
 0.10055000E+03  0.31185E+05
 0.10060000E+03  0.28388E+05
 0.10065000E+03  0.27535E+05
 0.10070000E+03  0.22205E+05
 0.10075000E+03  0.88540E+04
 0.10080000E+03 -0.10139E+05
 0.10085000E+03 -0.38234E+05
 0.10090000E+03 -0.78745E+05
 0.10095000E+03 -0.12322E+06
 0.10100000E+03 -0.15688E+06
 0.10105000E+03 -0.16767E+06
 0.10110000E+03 -0.15609E+06
 0.10115000E+03 -0.13348E+06
 0.10120000E+03 -0.11024E+06
 0.10125000E+03 -0.87896E+05
 0.10130000E+03 -0.63288E+05
 0.10135000E+03 -0.39148E+05
 0.10140000E+03 -0.20959E+05
 0.10145000E+03 -0.12307E+05
 0.10150000E+03 -0.16319E+05
 0.10155000E+03 -0.35838E+05
 0.10160000E+03 -0.70032E+05
 0.10165000E+03 -0.10537E+06
 0.10170000E+03 -0.12471E+06
 0.10175000E+03 -0.12657E+06
 0.10180000E+03 -0.12108E+06
 0.10185000E+03 -0.11489E+06
 0.10190000E+03 -0.10695E+06
 0.10195000E+03 -0.95222E+05
 0.10200000E+03 -0.80314E+05
 0.10205000E+03 -0.64376E+05
 0.10210000E+03 -0.51853E+05
 0.10215000E+03 -0.44324E+05
 0.10220000E+03 -0.41197E+05
 0.10225000E+03 -0.41722E+05
 0.10230000E+03 -0.38213E+05
 0.10235000E+03 -0.22636E+05
 0.10240000E+03  0.70430E+04
 0.10245000E+03  0.47472E+05
 0.10250000E+03  0.88131E+05
 0.10255000E+03  0.12029E+06
 0.10260000E+03  0.14052E+06
 0.10265000E+03  0.14651E+06
 0.10270000E+03  0.14106E+06
 0.10275000E+03  0.13226E+06
 0.10280000E+03  0.12623E+06
 0.10285000E+03  0.12087E+06
 0.10290000E+03  0.10981E+06
 0.10295000E+03  0.93210E+05
 0.10300000E+03  0.74429E+05
 0.10305000E+03  0.54530E+05
 0.10310000E+03  0.35601E+05
 0.10315000E+03  0.18998E+05
 0.10320000E+03  0.47060E+04
 0.10325000E+03 -0.86350E+04
 0.10330000E+03 -0.25908E+05
 0.10335000E+03 -0.48735E+05
 0.10340000E+03 -0.71284E+05
 0.10345000E+03 -0.85216E+05
 0.10350000E+03 -0.84887E+05
 0.10355000E+03 -0.72536E+05
 0.10360000E+03 -0.55355E+05
 0.10365000E+03 -0.35635E+05
 0.10370000E+03 -0.13325E+05
 0.10375000E+03  0.34300E+04
 0.10380000E+03  0.43740E+04
 0.10385000E+03 -0.89840E+04
 0.10390000E+03 -0.27412E+05
 0.10395000E+03 -0.42109E+05
 0.10400000E+03 -0.46052E+05
 0.10405000E+03 -0.40344E+05
 0.10410000E+03 -0.32363E+05
 0.10415000E+03 -0.26333E+05
 0.10420000E+03 -0.26276E+05
 0.10425000E+03 -0.36307E+05
 0.10430000E+03 -0.51683E+05
 0.10435000E+03 -0.61725E+05
 0.10440000E+03 -0.60848E+05
 0.10445000E+03 -0.48030E+05
 0.10450000E+03 -0.23198E+05
 0.10455000E+03  0.74450E+04
 0.10460000E+03  0.35426E+05
 0.10465000E+03  0.59580E+05
 0.10470000E+03  0.80804E+05
 0.10475000E+03  0.97938E+05
 0.10480000E+03  0.11209E+06
 0.10485000E+03  0.12435E+06
 0.10490000E+03  0.13156E+06
 0.10495000E+03  0.12996E+06
 0.10500000E+03  0.11933E+06
 0.10505000E+03  0.10277E+06
 0.10510000E+03  0.84387E+05
 0.10515000E+03  0.64999E+05
 0.10520000E+03  0.42396E+05
 0.10525000E+03  0.17751E+05
 0.10530000E+03 -0.10050E+04
 0.10535000E+03 -0.32090E+04
 0.10540000E+03  0.14965E+05
 0.10545000E+03  0.45257E+05
 0.10550000E+03  0.74248E+05
 0.10555000E+03  0.91925E+05
 0.10560000E+03  0.93922E+05
 0.10565000E+03  0.83089E+05
 0.10570000E+03  0.69359E+05
 0.10575000E+03  0.63853E+05
 0.10580000E+03  0.67919E+05
 0.10585000E+03  0.72221E+05
 0.10590000E+03  0.71213E+05
 0.10595000E+03  0.66928E+05
 0.10600000E+03  0.60746E+05
 0.10605000E+03  0.49901E+05
 0.10610000E+03  0.30012E+05
 0.10615000E+03  0.10760E+04
 0.10620000E+03 -0.30219E+05
 0.10625000E+03 -0.55261E+05
 0.10630000E+03 -0.68918E+05
 0.10635000E+03 -0.67998E+05
 0.10640000E+03 -0.51827E+05
 0.10645000E+03 -0.27561E+05
 0.10650000E+03 -0.33930E+04
 0.10655000E+03  0.20280E+05
 0.10660000E+03  0.43794E+05
 0.10665000E+03  0.62133E+05
 0.10670000E+03  0.71334E+05
 0.10675000E+03  0.73740E+05
 0.10680000E+03  0.75573E+05
 0.10685000E+03  0.78997E+05
 0.10690000E+03  0.79554E+05
 0.10695000E+03  0.74976E+05
 0.10700000E+03  0.67646E+05
 0.10705000E+03  0.58949E+05
 0.10710000E+03  0.48593E+05
 0.10715000E+03  0.34347E+05
 0.10720000E+03  0.14123E+05
 0.10725000E+03 -0.87050E+04
 0.10730000E+03 -0.27823E+05
 0.10735000E+03 -0.40707E+05
 0.10740000E+03 -0.49549E+05
 0.10745000E+03 -0.56649E+05
 0.10750000E+03 -0.62074E+05
 0.10755000E+03 -0.63866E+05
 0.10760000E+03 -0.60937E+05
 0.10765000E+03 -0.55304E+05
 0.10770000E+03 -0.48577E+05
 0.10775000E+03 -0.47013E+05
 0.10780000E+03 -0.63254E+05
 0.10785000E+03 -0.10144E+06
 0.10790000E+03 -0.15225E+06
 0.10795000E+03 -0.20124E+06
 0.10800000E+03 -0.23312E+06
 0.10805000E+03 -0.23236E+06
 0.10810000E+03 -0.19161E+06
 0.10815000E+03 -0.12126E+06
 0.10820000E+03 -0.41532E+05
 0.10825000E+03  0.29885E+05
 0.10830000E+03  0.82650E+05
 0.10835000E+03  0.11514E+06
 0.10840000E+03  0.12964E+06
 0.10845000E+03  0.12973E+06
 0.10850000E+03  0.12082E+06
 0.10855000E+03  0.10690E+06
 0.10860000E+03  0.89469E+05
 0.10865000E+03  0.71190E+05
 0.10870000E+03  0.56497E+05
 0.10875000E+03  0.45540E+05
 0.10880000E+03  0.35308E+05
 0.10885000E+03  0.26328E+05
 0.10890000E+03  0.20844E+05
 0.10895000E+03  0.21180E+05
 0.10900000E+03  0.31679E+05
 0.10905000E+03  0.56232E+05
 0.10910000E+03  0.91327E+05
 0.10915000E+03  0.12481E+06
 0.10920000E+03  0.14654E+06
 0.10925000E+03  0.15316E+06
 0.10930000E+03  0.14262E+06
 0.10935000E+03  0.11793E+06
 0.10940000E+03  0.88283E+05
 0.10945000E+03  0.58991E+05
 0.10950000E+03  0.32050E+05
 0.10955000E+03  0.90900E+04
 0.10960000E+03 -0.96370E+04
 0.10965000E+03 -0.25399E+05
 0.10970000E+03 -0.41179E+05
 0.10975000E+03 -0.53850E+05
 0.10980000E+03 -0.55356E+05
 0.10985000E+03 -0.45616E+05
 0.10990000E+03 -0.31207E+05
 0.10995000E+03 -0.18654E+05
 0.11000000E+03 -0.14177E+05
 0.11005000E+03 -0.18300E+05
 0.11010000E+03 -0.24681E+05
 0.11015000E+03 -0.31531E+05
 0.11020000E+03 -0.42764E+05
 0.11025000E+03 -0.60054E+05
 0.11030000E+03 -0.82153E+05
 0.11035000E+03 -0.10631E+06
 0.11040000E+03 -0.12893E+06
 0.11045000E+03 -0.14600E+06
 0.11050000E+03 -0.15453E+06
 0.11055000E+03 -0.15286E+06
 0.11060000E+03 -0.13997E+06
 0.11065000E+03 -0.11941E+06
 0.11070000E+03 -0.99361E+05
 0.11075000E+03 -0.86775E+05
 0.11080000E+03 -0.83026E+05
 0.11085000E+03 -0.82359E+05
 0.11090000E+03 -0.76420E+05
 0.11095000E+03 -0.61642E+05
 0.11100000E+03 -0.39475E+05
 0.11105000E+03 -0.11235E+05
 0.11110000E+03  0.24820E+05
 0.11115000E+03  0.70089E+05
 0.11120000E+03  0.11540E+06
 0.11125000E+03  0.14160E+06
 0.11130000E+03  0.13833E+06
 0.11135000E+03  0.11323E+06
 0.11140000E+03  0.81572E+05
 0.11145000E+03  0.52336E+05
 0.11150000E+03  0.22377E+05
 0.11155000E+03 -0.14978E+05
 0.11160000E+03 -0.57409E+05
 0.11165000E+03 -0.93721E+05
 0.11170000E+03 -0.11539E+06
 0.11175000E+03 -0.12340E+06
 0.11180000E+03 -0.12278E+06
 0.11185000E+03 -0.11773E+06
 0.11190000E+03 -0.11189E+06
 0.11195000E+03 -0.10699E+06
 0.11200000E+03 -0.10073E+06
 0.11205000E+03 -0.87565E+05
 0.11210000E+03 -0.63884E+05
 0.11215000E+03 -0.31447E+05
 0.11220000E+03  0.43740E+04
 0.11225000E+03  0.36531E+05
 0.11230000E+03  0.57355E+05
 0.11235000E+03  0.61345E+05
 0.11240000E+03  0.49412E+05
 0.11245000E+03  0.27014E+05
 0.11250000E+03 -0.16360E+04
 0.11255000E+03 -0.33260E+05
 0.11260000E+03 -0.61693E+05
 0.11265000E+03 -0.77611E+05
 0.11270000E+03 -0.76924E+05
 0.11275000E+03 -0.66747E+05
 0.11280000E+03 -0.56106E+05
 0.11285000E+03 -0.47555E+05
 0.11290000E+03 -0.40694E+05
 0.11295000E+03 -0.34368E+05
 0.11300000E+03 -0.21969E+05
 0.11305000E+03  0.58890E+04
 0.11310000E+03  0.49836E+05
 0.11315000E+03  0.99057E+05
 0.11320000E+03  0.14002E+06
 0.11325000E+03  0.16463E+06
 0.11330000E+03  0.17282E+06
 0.11335000E+03  0.17100E+06
 0.11340000E+03  0.16459E+06
 0.11345000E+03  0.15290E+06
 0.11350000E+03  0.13485E+06
 0.11355000E+03  0.11265E+06
 0.11360000E+03  0.90937E+05
 0.11365000E+03  0.76104E+05
 0.11370000E+03  0.69494E+05
 0.11375000E+03  0.64843E+05
 0.11380000E+03  0.58921E+05
 0.11385000E+03  0.52606E+05
 0.11390000E+03  0.42836E+05
 0.11395000E+03  0.26030E+05
 0.11400000E+03  0.34220E+04
 0.11405000E+03 -0.20512E+05
 0.11410000E+03 -0.42321E+05
 0.11415000E+03 -0.60957E+05
 0.11420000E+03 -0.76138E+05
 0.11425000E+03 -0.87632E+05
 0.11430000E+03 -0.94141E+05
 0.11435000E+03 -0.93050E+05
 0.11440000E+03 -0.83046E+05
 0.11445000E+03 -0.71214E+05
 0.11450000E+03 -0.70128E+05
 0.11455000E+03 -0.82732E+05
 0.11460000E+03 -0.99817E+05
 0.11465000E+03 -0.11083E+06
 0.11470000E+03 -0.11176E+06
 0.11475000E+03 -0.10267E+06
 0.11480000E+03 -0.86310E+05
 0.11485000E+03 -0.72354E+05
 0.11490000E+03 -0.70637E+05
 0.11495000E+03 -0.79163E+05
 0.11500000E+03 -0.86459E+05
 0.11505000E+03 -0.83585E+05
 0.11510000E+03 -0.68986E+05
 0.11515000E+03 -0.44121E+05
 0.11520000E+03 -0.94090E+04
 0.11525000E+03  0.33104E+05
 0.11530000E+03  0.75489E+05
 0.11535000E+03  0.10802E+06
 0.11540000E+03  0.12453E+06
 0.11545000E+03  0.12505E+06
 0.11550000E+03  0.11757E+06
 0.11555000E+03  0.11042E+06
 0.11560000E+03  0.10606E+06
 0.11565000E+03  0.10512E+06
 0.11570000E+03  0.10835E+06
 0.11575000E+03  0.11365E+06
 0.11580000E+03  0.11612E+06
 0.11585000E+03  0.11116E+06
 0.11590000E+03  0.98792E+05
 0.11595000E+03  0.86635E+05
 0.11600000E+03  0.83021E+05
 0.11605000E+03  0.88167E+05
 0.11610000E+03  0.95216E+05
 0.11615000E+03  0.94306E+05
 0.11620000E+03  0.79880E+05
 0.11625000E+03  0.54701E+05
 0.11630000E+03  0.23808E+05
 0.11635000E+03 -0.11497E+05
 0.11640000E+03 -0.53435E+05
 0.11645000E+03 -0.99988E+05
 0.11650000E+03 -0.14022E+06
 0.11655000E+03 -0.16179E+06
 0.11660000E+03 -0.15980E+06
 0.11665000E+03 -0.13849E+06
 0.11670000E+03 -0.10878E+06
 0.11675000E+03 -0.81617E+05
 0.11680000E+03 -0.63060E+05
 0.11685000E+03 -0.57273E+05
 0.11690000E+03 -0.67449E+05
 0.11695000E+03 -0.91964E+05
 0.11700000E+03 -0.12072E+06
 0.11705000E+03 -0.13999E+06
 0.11710000E+03 -0.14396E+06
 0.11715000E+03 -0.13554E+06
 0.11720000E+03 -0.12051E+06
 0.11725000E+03 -0.10408E+06
 0.11730000E+03 -0.88181E+05
 0.11735000E+03 -0.71612E+05
 0.11740000E+03 -0.50643E+05
 0.11745000E+03 -0.22865E+05
 0.11750000E+03  0.83180E+04
 0.11755000E+03  0.36650E+05
 0.11760000E+03  0.57367E+05
 0.11765000E+03  0.66356E+05
 0.11770000E+03  0.57946E+05
 0.11775000E+03  0.29890E+05
 0.11780000E+03 -0.92880E+04
 0.11785000E+03 -0.45784E+05
 0.11790000E+03 -0.71524E+05
 0.11795000E+03 -0.84590E+05
 0.11800000E+03 -0.83327E+05
 0.11805000E+03 -0.65172E+05
 0.11810000E+03 -0.31356E+05
 0.11815000E+03  0.96900E+04
 0.11820000E+03  0.47165E+05
 0.11825000E+03  0.72647E+05
 0.11830000E+03  0.79309E+05
 0.11835000E+03  0.67245E+05
 0.11840000E+03  0.45958E+05
 0.11845000E+03  0.26790E+05
 0.11850000E+03  0.16726E+05
 0.11855000E+03  0.13662E+05
 0.11860000E+03  0.12850E+05
 0.11865000E+03  0.16193E+05
 0.11870000E+03  0.22561E+05
 0.11875000E+03  0.22804E+05
 0.11880000E+03  0.12619E+05
 0.11885000E+03 -0.46700E+03
 0.11890000E+03 -0.31020E+04
 0.11895000E+03  0.13789E+05
 0.11900000E+03  0.46762E+05
 0.11905000E+03  0.82449E+05
 0.11910000E+03  0.10947E+06
 0.11915000E+03  0.12266E+06
 0.11920000E+03  0.12091E+06
 0.11925000E+03  0.10599E+06
 0.11930000E+03  0.79978E+05
 0.11935000E+03  0.47639E+05
 0.11940000E+03  0.17577E+05
 0.11945000E+03 -0.43490E+04
 0.11950000E+03 -0.16330E+05
 0.11955000E+03 -0.16448E+05
 0.11960000E+03 -0.46510E+04
 0.11965000E+03  0.13368E+05
 0.11970000E+03  0.30303E+05
 0.11975000E+03  0.42012E+05
 0.11980000E+03  0.46651E+05
 0.11985000E+03  0.43692E+05
 0.11990000E+03  0.34680E+05
 0.11995000E+03  0.22455E+05
 0.12000000E+03  0.98070E+04
 0.12005000E+03  0.10540E+04
 0.12010000E+03  0.13380E+04
 0.12015000E+03  0.11838E+05
 0.12020000E+03  0.26897E+05
 0.12025000E+03  0.37628E+05
 0.12030000E+03  0.38283E+05
 0.12035000E+03  0.29246E+05
 0.12040000E+03  0.17555E+05
 0.12045000E+03  0.12601E+05
 0.12050000E+03  0.19240E+05
 0.12055000E+03  0.34412E+05
 0.12060000E+03  0.50463E+05
 0.12065000E+03  0.61815E+05
 0.12070000E+03  0.66185E+05
 0.12075000E+03  0.64753E+05
 0.12080000E+03  0.60511E+05
 0.12085000E+03  0.54399E+05
 0.12090000E+03  0.48182E+05
 0.12095000E+03  0.45128E+05
 0.12100000E+03  0.47381E+05
 0.12105000E+03  0.56435E+05
 0.12110000E+03  0.70941E+05
 0.12115000E+03  0.84745E+05
 0.12120000E+03  0.90064E+05
 0.12125000E+03  0.82836E+05
 0.12130000E+03  0.65744E+05
 0.12135000E+03  0.44706E+05
 0.12140000E+03  0.22667E+05
 0.12145000E+03  0.32700E+03
 0.12150000E+03 -0.19461E+05
 0.12155000E+03 -0.32555E+05
 0.12160000E+03 -0.37235E+05
 0.12165000E+03 -0.37377E+05
 0.12170000E+03 -0.41091E+05
 0.12175000E+03 -0.52690E+05
 0.12180000E+03 -0.70476E+05
 0.12185000E+03 -0.92476E+05
 0.12190000E+03 -0.11638E+06
 0.12195000E+03 -0.13808E+06
 0.12200000E+03 -0.15450E+06
 0.12205000E+03 -0.16415E+06
 0.12210000E+03 -0.16753E+06
 0.12215000E+03 -0.16606E+06
 0.12220000E+03 -0.15826E+06
 0.12225000E+03 -0.14186E+06
 0.12230000E+03 -0.11732E+06
 0.12235000E+03 -0.86386E+05
 0.12240000E+03 -0.51101E+05
 0.12245000E+03 -0.14552E+05
 0.12250000E+03  0.17962E+05
 0.12255000E+03  0.40642E+05
 0.12260000E+03  0.51168E+05
 0.12265000E+03  0.49894E+05
 0.12270000E+03  0.36905E+05
 0.12275000E+03  0.12754E+05
 0.12280000E+03 -0.17593E+05
 0.12285000E+03 -0.45073E+05
 0.12290000E+03 -0.63558E+05
 0.12295000E+03 -0.72562E+05
 0.12300000E+03 -0.76266E+05
 0.12305000E+03 -0.82307E+05
 0.12310000E+03 -0.94126E+05
 0.12315000E+03 -0.10621E+06
 0.12320000E+03 -0.11027E+06
 0.12325000E+03 -0.10193E+06
 0.12330000E+03 -0.82035E+05
 0.12335000E+03 -0.54513E+05
 0.12340000E+03 -0.23403E+05
 0.12345000E+03  0.89970E+04
 0.12350000E+03  0.40597E+05
 0.12355000E+03  0.66748E+05
 0.12360000E+03  0.81958E+05
 0.12365000E+03  0.83725E+05
 0.12370000E+03  0.74182E+05
 0.12375000E+03  0.58091E+05
 0.12380000E+03  0.40344E+05
 0.12385000E+03  0.26743E+05
 0.12390000E+03  0.21162E+05
 0.12395000E+03  0.21751E+05
 0.12400000E+03  0.23582E+05
 0.12405000E+03  0.21817E+05
 0.12410000E+03  0.13641E+05
 0.12415000E+03 -0.10050E+04
 0.12420000E+03 -0.19693E+05
 0.12425000E+03 -0.36014E+05
 0.12430000E+03 -0.41940E+05
 0.12435000E+03 -0.34057E+05
 0.12440000E+03 -0.15217E+05
 0.12445000E+03  0.10359E+05
 0.12450000E+03  0.39461E+05
 0.12455000E+03  0.66549E+05
 0.12460000E+03  0.85702E+05
 0.12465000E+03  0.93895E+05
 0.12470000E+03  0.91102E+05
 0.12475000E+03  0.82033E+05
 0.12480000E+03  0.72959E+05
 0.12485000E+03  0.67566E+05
 0.12490000E+03  0.67249E+05
 0.12495000E+03  0.69473E+05
 0.12500000E+03  0.67677E+05
 0.12505000E+03  0.55886E+05
 0.12510001E+03  0.32427E+05
 0.12515001E+03  0.62400E+03
 0.12520000E+03 -0.31975E+05
 0.12525000E+03 -0.56103E+05
 0.12530000E+03 -0.64439E+05
 0.12535001E+03 -0.55115E+05
 0.12540001E+03 -0.34264E+05
 0.12545000E+03 -0.12031E+05
 0.12550000E+03  0.52720E+04
 0.12555000E+03  0.15443E+05
 0.12560001E+03  0.17027E+05
 0.12565001E+03  0.11508E+05
 0.12570000E+03  0.42820E+04
 0.12575000E+03 -0.12040E+04
 0.12580000E+03 -0.57120E+04
 0.12585001E+03 -0.10174E+05
 0.12590001E+03 -0.14167E+05
 0.12595000E+03 -0.16005E+05
 0.12600000E+03 -0.14300E+05
 0.12605000E+03 -0.95940E+04
 0.12610001E+03 -0.26280E+04
 0.12615001E+03  0.49810E+04
 0.12620000E+03  0.10994E+05
 0.12625000E+03  0.15534E+05
 0.12630000E+03  0.20303E+05
 0.12635001E+03  0.24742E+05
 0.12640001E+03  0.25888E+05
 0.12645000E+03  0.24442E+05
 0.12650000E+03  0.24218E+05
 0.12655000E+03  0.26168E+05
 0.12660001E+03  0.29735E+05
 0.12665001E+03  0.34591E+05
 0.12670000E+03  0.39395E+05
 0.12675000E+03  0.41241E+05
 0.12680000E+03  0.35502E+05
 0.12685001E+03  0.20147E+05
 0.12690001E+03 -0.60600E+03
 0.12695000E+03 -0.21681E+05
 0.12700000E+03 -0.41202E+05
 0.12705000E+03 -0.57466E+05
 0.12710001E+03 -0.67820E+05
 0.12715001E+03 -0.71329E+05
 0.12720000E+03 -0.69083E+05
 0.12725000E+03 -0.63070E+05
 0.12730000E+03 -0.56634E+05
 0.12735001E+03 -0.50117E+05
 0.12740001E+03 -0.39064E+05
 0.12745000E+03 -0.22226E+05
 0.12750000E+03 -0.47050E+04
 0.12755000E+03  0.60400E+04
 0.12760001E+03  0.41300E+04
 0.12765001E+03 -0.11428E+05
 0.12770000E+03 -0.36513E+05
 0.12775000E+03 -0.62938E+05
 0.12780000E+03 -0.80904E+05
 0.12785001E+03 -0.85182E+05
 0.12790001E+03 -0.77998E+05
 0.12795000E+03 -0.65952E+05
 0.12800000E+03 -0.55100E+05
 0.12805000E+03 -0.48018E+05
 0.12810001E+03 -0.43904E+05
 0.12815001E+03 -0.39590E+05
 0.12820000E+03 -0.33214E+05
 0.12825000E+03 -0.26410E+05
 0.12830000E+03 -0.20882E+05
 0.12835001E+03 -0.15924E+05
 0.12840001E+03 -0.10143E+05
 0.12845000E+03 -0.49870E+04
 0.12850000E+03 -0.35050E+04
 0.12855000E+03 -0.45780E+04
 0.12860001E+03 -0.27660E+04
 0.12865001E+03  0.58500E+04
 0.12870000E+03  0.20563E+05
 0.12875000E+03  0.38618E+05
 0.12880000E+03  0.56931E+05
 0.12885001E+03  0.72001E+05
 0.12890001E+03  0.82530E+05
 0.12895000E+03  0.90415E+05
 0.12900000E+03  0.98545E+05
 0.12905000E+03  0.10780E+06
 0.12910001E+03  0.11540E+06
 0.12915001E+03  0.11782E+06
 0.12920000E+03  0.11436E+06
 0.12925000E+03  0.10774E+06
 0.12930000E+03  0.10185E+06
 0.12935001E+03  0.99467E+05
 0.12940001E+03  0.10179E+06
 0.12945000E+03  0.10637E+06
 0.12950000E+03  0.10886E+06
 0.12955000E+03  0.10822E+06
 0.12960001E+03  0.10701E+06
 0.12965001E+03  0.10829E+06
 0.12970000E+03  0.11241E+06
 0.12975000E+03  0.11682E+06
 0.12980000E+03  0.11882E+06
 0.12985001E+03  0.11753E+06
 0.12990001E+03  0.11436E+06
 0.12995000E+03  0.11097E+06
 0.13000000E+03  0.10692E+06
 0.13005000E+03  0.10026E+06
 0.13010001E+03  0.90641E+05
 0.13015001E+03  0.80486E+05
 0.13020000E+03  0.72621E+05
 0.13025000E+03  0.69022E+05
 0.13030000E+03  0.69131E+05
 0.13035001E+03  0.68711E+05
 0.13040001E+03  0.63611E+05
 0.13045000E+03  0.53286E+05
 0.13050000E+03  0.41366E+05
 0.13055000E+03  0.32603E+05
 0.13060001E+03  0.29994E+05
 0.13065001E+03  0.34681E+05
 0.13070000E+03  0.43185E+05
 0.13075000E+03  0.48832E+05
 0.13080000E+03  0.47246E+05
 0.13085001E+03  0.37301E+05
 0.13090001E+03  0.21091E+05
 0.13095000E+03  0.17020E+04
 0.13100000E+03 -0.20533E+05
 0.13105000E+03 -0.46314E+05
 0.13110001E+03 -0.73893E+05
 0.13115001E+03 -0.99970E+05
 0.13120000E+03 -0.12156E+06
 0.13125000E+03 -0.13714E+06
 0.13130000E+03 -0.14733E+06
 0.13135001E+03 -0.15118E+06
 0.13140001E+03 -0.14505E+06
 0.13145000E+03 -0.12912E+06
 0.13150000E+03 -0.10992E+06
 0.13155000E+03 -0.95350E+05
 0.13160001E+03 -0.89449E+05
 0.13165001E+03 -0.90322E+05
 0.13170000E+03 -0.93388E+05
 0.13175000E+03 -0.95601E+05
 0.13180000E+03 -0.95958E+05
 0.13185001E+03 -0.97335E+05
 0.13190001E+03 -0.10432E+06
 0.13195000E+03 -0.11670E+06
 0.13200000E+03 -0.13036E+06
 0.13205000E+03 -0.14082E+06
 0.13210001E+03 -0.14580E+06
 0.13215001E+03 -0.14597E+06
 0.13220000E+03 -0.14172E+06
 0.13225000E+03 -0.13344E+06
 0.13230000E+03 -0.12281E+06
 0.13235001E+03 -0.10969E+06
 0.13240001E+03 -0.93183E+05
 0.13245000E+03 -0.74770E+05
 0.13250000E+03 -0.56250E+05
 0.13255000E+03 -0.36536E+05
 0.13260001E+03 -0.14142E+05
 0.13265001E+03  0.81600E+04
 0.13270000E+03  0.25356E+05
 0.13275000E+03  0.34094E+05
 0.13280000E+03  0.31422E+05
 0.13285001E+03  0.17343E+05
 0.13290001E+03 -0.36100E+03
 0.13295000E+03 -0.11937E+05
 0.13300000E+03 -0.13699E+05
 0.13305000E+03 -0.80850E+04
 0.13310001E+03 -0.30100E+03
 0.13315001E+03  0.37430E+04
 0.13320000E+03 -0.19100E+03
 0.13325000E+03 -0.11623E+05
 0.13330000E+03 -0.26616E+05
 0.13335001E+03 -0.40981E+05
 0.13340001E+03 -0.51339E+05
 0.13345000E+03 -0.54608E+05
 0.13350000E+03 -0.47623E+05
 0.13355000E+03 -0.29963E+05
 0.13360001E+03 -0.68880E+04
 0.13365001E+03  0.13483E+05
 0.13370000E+03  0.25818E+05
 0.13375000E+03  0.29117E+05
 0.13380000E+03  0.25354E+05
 0.13385001E+03  0.18808E+05
 0.13390001E+03  0.14302E+05
 0.13395000E+03  0.15575E+05
 0.13400000E+03  0.24633E+05
 0.13405000E+03  0.39614E+05
 0.13410001E+03  0.54713E+05
 0.13415001E+03  0.63409E+05
 0.13420000E+03  0.61554E+05
 0.13425000E+03  0.48995E+05
 0.13430000E+03  0.28939E+05
 0.13435001E+03  0.64230E+04
 0.13440001E+03 -0.13358E+05
 0.13445000E+03 -0.25939E+05
 0.13450000E+03 -0.28828E+05
 0.13455000E+03 -0.23121E+05
 0.13460001E+03 -0.11365E+05
 0.13465001E+03  0.39900E+04
 0.13470000E+03  0.18956E+05
 0.13475000E+03  0.29399E+05
 0.13480000E+03  0.34592E+05
 0.13485001E+03  0.37157E+05
 0.13490001E+03  0.40034E+05
 0.13495000E+03  0.43972E+05
 0.13500000E+03  0.48531E+05
 0.13505000E+03  0.54250E+05
 0.13510001E+03  0.61203E+05
 0.13515001E+03  0.69493E+05
 0.13520000E+03  0.81249E+05
 0.13525000E+03  0.97014E+05
 0.13530000E+03  0.11370E+06
 0.13535001E+03  0.12815E+06
 0.13540001E+03  0.13841E+06
 0.13545000E+03  0.14219E+06
 0.13550000E+03  0.13805E+06
 0.13555000E+03  0.12778E+06
 0.13560001E+03  0.11437E+06
 0.13565001E+03  0.99902E+05
 0.13570000E+03  0.85728E+05
 0.13575000E+03  0.70497E+05
 0.13580000E+03  0.51084E+05
 0.13585001E+03  0.26391E+05
 0.13590001E+03 -0.17580E+04
 0.13595000E+03 -0.30069E+05
 0.13600000E+03 -0.55607E+05
 0.13605000E+03 -0.75823E+05
 0.13610001E+03 -0.88127E+05
 0.13615001E+03 -0.90827E+05
 0.13620000E+03 -0.84254E+05
 0.13625000E+03 -0.71111E+05
 0.13630000E+03 -0.55249E+05
 0.13635001E+03 -0.40977E+05
 0.13640001E+03 -0.33520E+05
 0.13645000E+03 -0.37570E+05
 0.13650000E+03 -0.53380E+05
 0.13655000E+03 -0.72641E+05
 0.13660001E+03 -0.81823E+05
 0.13665001E+03 -0.74371E+05
 0.13670000E+03 -0.55635E+05
 0.13675000E+03 -0.34914E+05
 0.13680000E+03 -0.18632E+05
 0.13685001E+03 -0.96670E+04
 0.13690001E+03 -0.76240E+04
 0.13695000E+03 -0.96750E+04
 0.13700000E+03 -0.12623E+05
 0.13705000E+03 -0.15097E+05
 0.13710001E+03 -0.18436E+05
 0.13715001E+03 -0.23915E+05
 0.13720000E+03 -0.29261E+05
 0.13725000E+03 -0.30092E+05
 0.13730000E+03 -0.23756E+05
 0.13735001E+03 -0.10298E+05
 0.13740001E+03  0.76860E+04
 0.13745000E+03  0.25212E+05
 0.13750000E+03  0.38013E+05
 0.13755000E+03  0.45431E+05
 0.13760001E+03  0.49165E+05
 0.13765001E+03  0.50393E+05
 0.13770000E+03  0.49240E+05
 0.13775000E+03  0.46959E+05
 0.13780000E+03  0.46875E+05
 0.13785001E+03  0.52410E+05
 0.13790001E+03  0.63829E+05
 0.13795000E+03  0.77191E+05
 0.13800000E+03  0.87098E+05
 0.13805000E+03  0.89428E+05
 0.13810001E+03  0.82307E+05
 0.13815001E+03  0.66332E+05
 0.13820000E+03  0.44662E+05
 0.13825000E+03  0.22184E+05
 0.13830000E+03  0.31820E+04
 0.13835001E+03 -0.94850E+04
 0.13840001E+03 -0.14401E+05
 0.13845000E+03 -0.12246E+05
 0.13850000E+03 -0.47720E+04
 0.13855000E+03  0.60450E+04
 0.13860001E+03  0.18215E+05
 0.13865001E+03  0.30474E+05
 0.13870000E+03  0.42448E+05
 0.13875000E+03  0.53568E+05
 0.13880000E+03  0.61189E+05
 0.13885001E+03  0.62596E+05
 0.13890001E+03  0.57734E+05
 0.13895000E+03  0.48316E+05
 0.13900000E+03  0.38478E+05
 0.13905000E+03  0.34115E+05
 0.13910001E+03  0.39119E+05
 0.13915001E+03  0.53015E+05
 0.13920000E+03  0.71080E+05
 0.13925000E+03  0.87871E+05
 0.13930000E+03  0.10041E+06
 0.13935001E+03  0.10806E+06
 0.13940001E+03  0.11106E+06
 0.13945000E+03  0.10826E+06
 0.13950000E+03  0.98154E+05
 0.13955000E+03  0.82226E+05
 0.13960001E+03  0.63159E+05
 0.13965001E+03  0.42200E+05
 0.13970000E+03  0.20180E+05
 0.13975000E+03 -0.16180E+04
 0.13980000E+03 -0.22058E+05
 0.13985001E+03 -0.41103E+05
 0.13990001E+03 -0.59014E+05
 0.13995000E+03 -0.75782E+05
 0.14000000E+03 -0.90804E+05
 0.14005000E+03 -0.10116E+06
 0.14010001E+03 -0.10330E+06
 0.14015001E+03 -0.96979E+05
 0.14020000E+03 -0.85673E+05
 0.14025000E+03 -0.74148E+05
 0.14030000E+03 -0.65304E+05
 0.14035001E+03 -0.59211E+05
 0.14040001E+03 -0.55056E+05
 0.14045000E+03 -0.51555E+05
 0.14050000E+03 -0.47475E+05
 0.14055000E+03 -0.43338E+05
 0.14060001E+03 -0.40834E+05
 0.14065001E+03 -0.41802E+05
 0.14070000E+03 -0.46827E+05
 0.14075000E+03 -0.54019E+05
 0.14080000E+03 -0.60839E+05
 0.14085001E+03 -0.65992E+05
 0.14090001E+03 -0.69231E+05
 0.14095000E+03 -0.70662E+05
 0.14100000E+03 -0.70565E+05
 0.14105000E+03 -0.69293E+05
 0.14110001E+03 -0.67117E+05
 0.14115001E+03 -0.64356E+05
 0.14120000E+03 -0.61322E+05
 0.14125000E+03 -0.58054E+05
 0.14130000E+03 -0.54348E+05
 0.14135001E+03 -0.50335E+05
 0.14140001E+03 -0.46385E+05
 0.14145000E+03 -0.43166E+05
 0.14150000E+03 -0.42201E+05
 0.14155000E+03 -0.44913E+05
 0.14160001E+03 -0.50837E+05
 0.14165001E+03 -0.57261E+05
 0.14170000E+03 -0.62035E+05
 0.14175000E+03 -0.64675E+05
 0.14180000E+03 -0.64737E+05
 0.14185001E+03 -0.62487E+05
 0.14190001E+03 -0.58991E+05
 0.14195000E+03 -0.55627E+05
 0.14200000E+03 -0.53708E+05
 0.14205000E+03 -0.52421E+05
 0.14210001E+03 -0.49765E+05
 0.14215001E+03 -0.45903E+05
 0.14220000E+03 -0.42603E+05
 0.14225000E+03 -0.39901E+05
 0.14230000E+03 -0.36245E+05
 0.14235001E+03 -0.30915E+05
 0.14240001E+03 -0.23603E+05
 0.14245000E+03 -0.13337E+05
 0.14250000E+03 -0.30200E+03
 0.14255000E+03  0.12683E+05
 0.14260001E+03  0.22472E+05
 0.14265001E+03  0.26896E+05
 0.14270000E+03  0.24642E+05
 0.14275000E+03  0.17221E+05
 0.14280000E+03  0.84290E+04
 0.14285001E+03  0.15750E+04
 0.14290001E+03 -0.70300E+03
 0.14295000E+03  0.39280E+04
 0.14300000E+03  0.15616E+05
 0.14305000E+03  0.31372E+05
 0.14310001E+03  0.47183E+05
 0.14315001E+03  0.60080E+05
 0.14320000E+03  0.69147E+05
 0.14325000E+03  0.73898E+05
 0.14330000E+03  0.72292E+05
 0.14335001E+03  0.63134E+05
 0.14340001E+03  0.48085E+05
 0.14345000E+03  0.30961E+05
 0.14350000E+03  0.16641E+05
 0.14355000E+03  0.89650E+04
 0.14360001E+03  0.94790E+04
 0.14365001E+03  0.17683E+05
 0.14370000E+03  0.30242E+05
 0.14375000E+03  0.41224E+05
 0.14380000E+03  0.45612E+05
 0.14385001E+03  0.41791E+05
 0.14390001E+03  0.31056E+05
 0.14395000E+03  0.15728E+05
 0.14400000E+03 -0.28240E+04
 0.14405000E+03 -0.24034E+05
 0.14410001E+03 -0.46976E+05
 0.14415001E+03 -0.70290E+05
 0.14420000E+03 -0.92099E+05
 0.14425000E+03 -0.10988E+06
 0.14430000E+03 -0.12052E+06
 0.14435001E+03 -0.12146E+06
 0.14440001E+03 -0.11322E+06
 0.14445000E+03 -0.98465E+05
 0.14450000E+03 -0.79930E+05
 0.14455000E+03 -0.60535E+05
 0.14460001E+03 -0.42700E+05
 0.14465001E+03 -0.27771E+05
 0.14470000E+03 -0.15961E+05
 0.14475000E+03 -0.61800E+04
 0.14480000E+03  0.27160E+04
 0.14485001E+03  0.11060E+05
 0.14490001E+03  0.18891E+05
 0.14495000E+03  0.26121E+05
 0.14500000E+03  0.31488E+05
 0.14505000E+03  0.32591E+05
 0.14510001E+03  0.28412E+05
 0.14515001E+03  0.21516E+05
 0.14520000E+03  0.16897E+05
 0.14525000E+03  0.18483E+05
 0.14530000E+03  0.27688E+05
 0.14535001E+03  0.43662E+05
 0.14540001E+03  0.63953E+05
 0.14545000E+03  0.85965E+05
 0.14550000E+03  0.10716E+06
 0.14555000E+03  0.12481E+06
 0.14560001E+03  0.13575E+06
 0.14565001E+03  0.13656E+06
 0.14570000E+03  0.12574E+06
 0.14575000E+03  0.10578E+06
 0.14580000E+03  0.83227E+05
 0.14585001E+03  0.65839E+05
 0.14590001E+03  0.57326E+05
 0.14595000E+03  0.56355E+05
 0.14600000E+03  0.60524E+05
 0.14605000E+03  0.68040E+05
 0.14610001E+03  0.77325E+05
 0.14615001E+03  0.87099E+05
 0.14620000E+03  0.96061E+05
 0.14625000E+03  0.10235E+06
 0.14630000E+03  0.10357E+06
 0.14635001E+03  0.98245E+05
 0.14640001E+03  0.87414E+05
 0.14645000E+03  0.73548E+05
 0.14650000E+03  0.58735E+05
 0.14655000E+03  0.44863E+05
 0.14660001E+03  0.32286E+05
 0.14665001E+03  0.18848E+05
 0.14670000E+03  0.33110E+04
 0.14675000E+03 -0.12808E+05
 0.14680000E+03 -0.27278E+05
 0.14685001E+03 -0.38755E+05
 0.14690001E+03 -0.46357E+05
 0.14695000E+03 -0.48729E+05
 0.14700000E+03 -0.45148E+05
 0.14705000E+03 -0.36692E+05
 0.14710001E+03 -0.25769E+05
 0.14715001E+03 -0.15177E+05
 0.14720000E+03 -0.65300E+04
 0.14725000E+03  0.31100E+03
 0.14730000E+03  0.60360E+04
 0.14735001E+03  0.10633E+05
 0.14740001E+03  0.14160E+05
 0.14745000E+03  0.18029E+05
 0.14750000E+03  0.22802E+05
 0.14755000E+03  0.25905E+05
 0.14760001E+03  0.23990E+05
 0.14765001E+03  0.16595E+05
 0.14770000E+03  0.58170E+04
 0.14775000E+03 -0.68680E+04
 0.14780000E+03 -0.21508E+05
 0.14785001E+03 -0.37097E+05
 0.14790001E+03 -0.50698E+05
 0.14795000E+03 -0.60996E+05
 0.14800000E+03 -0.69442E+05
 0.14805000E+03 -0.77392E+05
 0.14810001E+03 -0.84862E+05
 0.14815001E+03 -0.90506E+05
 0.14820000E+03 -0.93189E+05
 0.14825000E+03 -0.94293E+05
 0.14830000E+03 -0.95955E+05
 0.14835001E+03 -0.98272E+05
 0.14840001E+03 -0.99141E+05
 0.14845000E+03 -0.95412E+05
 0.14850000E+03 -0.84679E+05
 0.14855000E+03 -0.66312E+05
 0.14860001E+03 -0.42155E+05
 0.14865001E+03 -0.16797E+05
 0.14870000E+03  0.40950E+04
 0.14875000E+03  0.16416E+05
 0.14880000E+03  0.20091E+05
 0.14885001E+03  0.18886E+05
 0.14890001E+03  0.16885E+05
 0.14895000E+03  0.15321E+05
 0.14900000E+03  0.13315E+05
 0.14905000E+03  0.11051E+05
 0.14910001E+03  0.10344E+05
 0.14915001E+03  0.12999E+05
 0.14920000E+03  0.19531E+05
 0.14925000E+03  0.28795E+05
 0.14930000E+03  0.38961E+05
 0.14935001E+03  0.48874E+05
 0.14940001E+03  0.58736E+05
 0.14945000E+03  0.69845E+05
 0.14950000E+03  0.82424E+05
 0.14955000E+03  0.92886E+05
 0.14960001E+03  0.95675E+05
 0.14965001E+03  0.88132E+05
 0.14970000E+03  0.72827E+05
 0.14975000E+03  0.56342E+05
 0.14980000E+03  0.44896E+05
 0.14985001E+03  0.41080E+05
 0.14990001E+03  0.43875E+05
 0.14995000E+03  0.49334E+05
