-0.29800000E+01  0.92664E+05
-0.29300001E+01  0.78154E+05
-0.28800001E+01  0.63202E+05
-0.28299999E+01  0.48298E+05
-0.27800000E+01  0.34475E+05
-0.27300000E+01  0.22219E+05
-0.26800001E+01  0.11008E+05
-0.26300001E+01 -0.30100E+03
-0.25799999E+01 -0.12204E+05
-0.25300000E+01 -0.23979E+05
-0.24800000E+01 -0.34595E+05
-0.24300001E+01 -0.42553E+05
-0.23800001E+01 -0.46618E+05
-0.23299999E+01 -0.47322E+05
-0.22800000E+01 -0.46737E+05
-0.22300000E+01 -0.47099E+05
-0.21800001E+01 -0.48433E+05
-0.21300001E+01 -0.49589E+05
-0.20799999E+01 -0.49680E+05
-0.20300000E+01 -0.48339E+05
-0.19800000E+01 -0.46292E+05
-0.19299999E+01 -0.43772E+05
-0.18800000E+01 -0.40427E+05
-0.18300000E+01 -0.35400E+05
-0.17800000E+01 -0.29253E+05
-0.17300000E+01 -0.24331E+05
-0.16799999E+01 -0.21745E+05
-0.16300000E+01 -0.20983E+05
-0.15800000E+01 -0.20807E+05
-0.15300000E+01 -0.20803E+05
-0.14800000E+01 -0.20685E+05
-0.14299999E+01 -0.20425E+05
-0.13800000E+01 -0.20120E+05
-0.13300000E+01 -0.18833E+05
-0.12800000E+01 -0.15991E+05
-0.12300000E+01 -0.12016E+05
-0.11799999E+01 -0.79030E+04
-0.11300000E+01 -0.37480E+04
-0.10800000E+01  0.48000E+02
-0.10300000E+01  0.30820E+04
-0.98000002E+00  0.61910E+04
-0.93000007E+00  0.98210E+04
-0.87999988E+00  0.14129E+05
-0.82999992E+00  0.18601E+05
-0.77999997E+00  0.22994E+05
-0.73000002E+00  0.27487E+05
-0.68000007E+00  0.31266E+05
-0.62999988E+00  0.33002E+05
-0.57999992E+00  0.32479E+05
-0.52999997E+00  0.30618E+05
-0.48000002E+00  0.27876E+05
-0.43000007E+00  0.23902E+05
-0.37999988E+00  0.18568E+05
-0.32999992E+00  0.12697E+05
-0.27999997E+00  0.64790E+04
-0.23000002E+00  0.13300E+03
-0.18000007E+00 -0.58480E+04
-0.12999988E+00 -0.11041E+05
-0.79999924E-01 -0.14495E+05
-0.29999971E-01 -0.16576E+05
 0.19999981E-01 -0.17947E+05
 0.69999933E-01 -0.18616E+05
 0.12000012E+00 -0.18138E+05
 0.17000008E+00 -0.16220E+05
 0.22000003E+00 -0.13813E+05
 0.26999998E+00 -0.11335E+05
 0.31999993E+00 -0.87640E+04
 0.37000012E+00 -0.62790E+04
 0.42000008E+00 -0.39440E+04
 0.47000003E+00 -0.13100E+04
 0.51999998E+00  0.22440E+04
 0.56999993E+00  0.65750E+04
 0.62000012E+00  0.11010E+05
 0.67000008E+00  0.14710E+05
 0.72000003E+00  0.18279E+05
 0.76999998E+00  0.21872E+05
 0.81999993E+00  0.24881E+05
 0.87000012E+00  0.27464E+05
 0.92000008E+00  0.29074E+05
 0.97000003E+00  0.30406E+05
 0.10200000E+01  0.33057E+05
 0.10700002E+01  0.37434E+05
 0.11199999E+01  0.42255E+05
 0.11700001E+01  0.46519E+05
 0.12200003E+01  0.50828E+05
 0.12700000E+01  0.55008E+05
 0.13200002E+01  0.58762E+05
 0.13699999E+01  0.61694E+05
 0.14200001E+01  0.63440E+05
 0.14700003E+01  0.63701E+05
 0.15200000E+01  0.62598E+05
 0.15700002E+01  0.60349E+05
 0.16199999E+01  0.55753E+05
 0.16700001E+01  0.49233E+05
 0.17200003E+01  0.42159E+05
 0.17700000E+01  0.34698E+05
 0.18200002E+01  0.26619E+05
 0.18699999E+01  0.17949E+05
 0.19200001E+01  0.94240E+04
 0.19700003E+01  0.18790E+04
 0.20200000E+01 -0.49540E+04
 0.20700002E+01 -0.12722E+05
 0.21199999E+01 -0.21620E+05
 0.21700001E+01 -0.29496E+05
 0.22200003E+01 -0.34476E+05
 0.22700000E+01 -0.36066E+05
 0.23200002E+01 -0.34675E+05
 0.23699999E+01 -0.31237E+05
 0.24200001E+01 -0.27312E+05
 0.24700003E+01 -0.24067E+05
 0.25200000E+01 -0.21151E+05
 0.25700002E+01 -0.18339E+05
 0.26199999E+01 -0.15444E+05
 0.26700001E+01 -0.12101E+05
 0.27200003E+01 -0.91940E+04
 0.27700000E+01 -0.83490E+04
 0.28200002E+01 -0.96990E+04
 0.28699999E+01 -0.11604E+05
 0.29200001E+01 -0.12989E+05
 0.29700003E+01 -0.13187E+05
 0.30200000E+01 -0.12080E+05
 0.30700002E+01 -0.10462E+05
 0.31199999E+01 -0.92660E+04
 0.31700001E+01 -0.88340E+04
 0.32200003E+01 -0.91510E+04
 0.32700000E+01 -0.10452E+05
 0.33200002E+01 -0.11956E+05
 0.33699999E+01 -0.12810E+05
 0.34200001E+01 -0.13025E+05
 0.34700003E+01 -0.12748E+05
 0.35200000E+01 -0.12404E+05
 0.35700002E+01 -0.12451E+05
 0.36199999E+01 -0.13448E+05
 0.36700001E+01 -0.15757E+05
 0.37200003E+01 -0.19600E+05
 0.37700000E+01 -0.25280E+05
 0.38200002E+01 -0.31566E+05
 0.38699999E+01 -0.37724E+05
 0.39200001E+01 -0.43936E+05
 0.39700003E+01 -0.50511E+05
 0.40200000E+01 -0.57504E+05
 0.40700002E+01 -0.61892E+05
 0.41199999E+01 -0.63402E+05
 0.41700001E+01 -0.63256E+05
 0.42200003E+01 -0.60412E+05
 0.42700000E+01 -0.55749E+05
 0.43200002E+01 -0.50973E+05
 0.43699999E+01 -0.45599E+05
 0.44200001E+01 -0.39572E+05
 0.44700003E+01 -0.34578E+05
 0.45200000E+01 -0.30126E+05
 0.45700002E+01 -0.25668E+05
 0.46199999E+01 -0.20671E+05
 0.46700001E+01 -0.15051E+05
 0.47200003E+01 -0.96840E+04
 0.47700000E+01 -0.45140E+04
 0.48200002E+01  0.18700E+03
 0.48699999E+01  0.37330E+04
 0.49200001E+01  0.77900E+04
 0.49700003E+01  0.11983E+05
 0.50200000E+01  0.14410E+05
 0.50700002E+01  0.16670E+05
 0.51200004E+01  0.18264E+05
 0.51700006E+01  0.19752E+05
 0.52199998E+01  0.20114E+05
 0.52700000E+01  0.19801E+05
 0.53200002E+01  0.20711E+05
 0.53700004E+01  0.19631E+05
 0.54200006E+01  0.17536E+05
 0.54699998E+01  0.15157E+05
 0.55200000E+01  0.12186E+05
 0.55700002E+01  0.84010E+04
 0.56200004E+01  0.39440E+04
 0.56700006E+01  0.17800E+03
 0.57199998E+01 -0.29710E+04
 0.57700000E+01 -0.48730E+04
 0.58200002E+01 -0.69220E+04
 0.58700004E+01 -0.80040E+04
 0.59200006E+01 -0.77710E+04
 0.59699998E+01 -0.64310E+04
 0.60200000E+01 -0.29110E+04
 0.60700002E+01  0.14700E+03
 0.61200004E+01  0.22820E+04
 0.61700006E+01  0.45180E+04
 0.62199998E+01  0.85290E+04
 0.62700000E+01  0.13683E+05
 0.63200002E+01  0.18388E+05
 0.63700004E+01  0.23100E+05
 0.64200006E+01  0.27721E+05
 0.64699998E+01  0.32407E+05
 0.65200000E+01  0.35965E+05
 0.65700002E+01  0.38646E+05
 0.66200004E+01  0.41101E+05
 0.66700006E+01  0.43734E+05
 0.67199998E+01  0.47236E+05
 0.67700000E+01  0.51394E+05
 0.68200002E+01  0.55619E+05
 0.68700004E+01  0.57543E+05
 0.69200006E+01  0.56511E+05
 0.69699998E+01  0.53987E+05
 0.70200000E+01  0.50635E+05
 0.70700002E+01  0.48389E+05
 0.71200004E+01  0.49004E+05
 0.71700006E+01  0.49713E+05
 0.72199998E+01  0.51371E+05
 0.72700000E+01  0.51601E+05
 0.73200002E+01  0.49990E+05
 0.73700004E+01  0.46255E+05
 0.74200006E+01  0.38657E+05
 0.74699998E+01  0.33565E+05
 0.75200000E+01  0.25359E+05
 0.75700002E+01  0.22280E+05
 0.76200004E+01  0.28421E+05
 0.76700006E+01  0.83715E+05
 0.77199998E+01  0.14988E+06
 0.77700000E+01  0.19227E+06
 0.78200002E+01  0.22040E+06
 0.78700004E+01  0.55177E+05
 0.79200006E+01 -0.14424E+06
 0.79699998E+01 -0.27528E+06
 0.80200005E+01 -0.51175E+06
 0.80699997E+01 -0.68870E+06
 0.81200008E+01 -0.67197E+06
 0.81700001E+01 -0.38582E+06
 0.82199993E+01  0.20357E+05
 0.82700005E+01  0.40732E+06
 0.83199997E+01  0.64281E+06
 0.83700008E+01  0.31873E+06
 0.84200001E+01 -0.18738E+06
 0.84699993E+01 -0.42929E+06
 0.85200005E+01 -0.55109E+06
 0.85699997E+01 -0.44103E+06
 0.86200008E+01 -0.93107E+05
 0.86700001E+01  0.37466E+06
 0.87199993E+01  0.85953E+06
 0.87700005E+01  0.11588E+07
 0.88199997E+01  0.88894E+06
 0.88700008E+01 -0.50621E+05
 0.89200001E+01 -0.14344E+07
 0.89699993E+01 -0.21528E+07
 0.90200005E+01 -0.12493E+07
 0.90699997E+01 -0.90591E+06
 0.91200008E+01 -0.13963E+07
 0.91700001E+01 -0.81083E+06
 0.92199993E+01 -0.29891E+06
 0.92700005E+01 -0.75478E+06
 0.93199997E+01 -0.74078E+06
 0.93700008E+01 -0.29583E+05
 0.94200001E+01 -0.25395E+06
 0.94699993E+01 -0.17846E+06
 0.95200005E+01  0.71394E+06
 0.95699997E+01  0.85712E+06
 0.96200008E+01  0.57719E+06
 0.96700001E+01  0.14799E+06
 0.97199993E+01 -0.13935E+06
 0.97700005E+01 -0.95364E+06
 0.98199997E+01 -0.11879E+07
 0.98700008E+01 -0.10540E+06
 0.99200001E+01  0.48445E+06
 0.99699993E+01  0.48336E+06
 0.10020000E+02 -0.35196E+06
 0.10070000E+02 -0.71017E+06
 0.10120001E+02 -0.90916E+06
 0.10170000E+02 -0.11734E+07
 0.10219999E+02 -0.93697E+06
 0.10270000E+02 -0.18143E+07
 0.10320000E+02 -0.17342E+07
 0.10370001E+02 -0.10315E+07
 0.10420000E+02 -0.61101E+06
 0.10469999E+02 -0.48004E+06
 0.10520000E+02 -0.12235E+07
 0.10570000E+02 -0.12788E+07
 0.10620001E+02 -0.12846E+07
 0.10670000E+02 -0.12856E+07
 0.10719999E+02 -0.60366E+06
 0.10770000E+02  0.22452E+06
 0.10820000E+02  0.20723E+06
 0.10870001E+02  0.38838E+05
 0.10920000E+02 -0.58999E+05
 0.10969999E+02 -0.98604E+05
 0.11020000E+02  0.73966E+05
 0.11070000E+02 -0.10540E+07
 0.11120001E+02 -0.19388E+07
 0.11170000E+02 -0.18372E+07
 0.11219999E+02 -0.11331E+07
 0.11270000E+02  0.30033E+06
 0.11320000E+02  0.10541E+07
 0.11370001E+02  0.49846E+06
 0.11420000E+02 -0.60889E+06
 0.11469999E+02 -0.14425E+07
 0.11520000E+02 -0.24044E+07
 0.11570000E+02 -0.23588E+07
 0.11620001E+02 -0.13384E+07
 0.11670000E+02 -0.12701E+07
 0.11719999E+02 -0.10678E+07
 0.11770000E+02 -0.11478E+07
 0.11820000E+02 -0.13486E+07
 0.11870001E+02 -0.49922E+06
 0.11920000E+02 -0.45291E+06
 0.11969999E+02 -0.62946E+06
 0.12020000E+02 -0.50429E+06
 0.12070000E+02 -0.57736E+06
 0.12120001E+02 -0.77323E+06
 0.12170000E+02 -0.89398E+06
 0.12219999E+02  0.24603E+06
 0.12270000E+02  0.22260E+06
 0.12320000E+02 -0.16004E+07
 0.12370001E+02 -0.22787E+07
 0.12420000E+02 -0.25853E+07
 0.12469999E+02 -0.24796E+07
 0.12520000E+02 -0.18043E+07
 0.12570000E+02 -0.33137E+07
 0.12620001E+02 -0.35508E+07
 0.12670000E+02 -0.20649E+07
 0.12719999E+02 -0.11000E+07
 0.12770000E+02  0.79957E+06
 0.12820000E+02 -0.25338E+06
 0.12870001E+02 -0.18061E+07
 0.12920000E+02 -0.35296E+07
 0.12969999E+02 -0.38683E+07
 0.13020000E+02 -0.18350E+07
 0.13070002E+02 -0.99840E+06
 0.13120001E+02  0.28949E+07
 0.13170000E+02  0.28532E+07
 0.13220001E+02  0.19618E+07
 0.13270000E+02  0.29508E+07
 0.13320002E+02 -0.18375E+07
 0.13370001E+02 -0.44953E+07
 0.13420000E+02 -0.29376E+07
 0.13470001E+02 -0.26671E+07
 0.13520000E+02 -0.44742E+07
 0.13570002E+02 -0.40651E+07
 0.13620001E+02 -0.25028E+07
 0.13670000E+02 -0.40977E+07
 0.13720001E+02 -0.14728E+07
 0.13770000E+02 -0.65269E+05
 0.13820002E+02 -0.43800E+06
 0.13870001E+02  0.43563E+07
 0.13920000E+02  0.49824E+06
 0.13970001E+02  0.20199E+07
 0.14020000E+02  0.68850E+07
 0.14070002E+02  0.18302E+07
 0.14120001E+02  0.15082E+07
 0.14170000E+02 -0.68956E+06
 0.14220001E+02  0.57134E+06
 0.14270000E+02  0.27394E+07
 0.14320002E+02  0.36668E+07
 0.14370001E+02  0.10304E+08
 0.14420000E+02  0.69573E+07
 0.14470001E+02  0.70579E+06
 0.14520000E+02 -0.33561E+07
 0.14570002E+02 -0.68107E+07
 0.14620001E+02 -0.37288E+07
 0.14670000E+02  0.43583E+05
 0.14720001E+02  0.28897E+07
 0.14770000E+02  0.93881E+06
 0.14820002E+02 -0.28337E+07
 0.14870001E+02 -0.28002E+07
 0.14920000E+02 -0.51286E+06
 0.14970001E+02  0.49779E+07
 0.15020000E+02  0.47863E+07
 0.15070002E+02  0.33867E+07
 0.15120001E+02  0.29368E+07
 0.15170000E+02 -0.13986E+07
 0.15220001E+02 -0.96700E+06
 0.15270000E+02 -0.29939E+07
 0.15320002E+02 -0.62415E+07
 0.15370001E+02 -0.58038E+07
 0.15420000E+02 -0.47609E+07
 0.15470001E+02  0.16670E+07
 0.15520000E+02  0.81576E+07
 0.15570002E+02  0.12731E+08
 0.15620001E+02  0.99321E+07
 0.15670000E+02  0.59392E+06
 0.15720001E+02 -0.17633E+07
 0.15770000E+02 -0.36233E+07
 0.15820002E+02 -0.23183E+07
 0.15870001E+02  0.33673E+07
 0.15920000E+02  0.54717E+07
 0.15970001E+02  0.99175E+07
 0.16020000E+02  0.89659E+07
 0.16070002E+02  0.54468E+07
 0.16120001E+02  0.44592E+07
 0.16170000E+02  0.46929E+06
 0.16220001E+02  0.15849E+07
 0.16270000E+02  0.29197E+07
 0.16320002E+02  0.21338E+07
 0.16370001E+02 -0.69988E+06
 0.16420000E+02 -0.50294E+07
 0.16470001E+02 -0.45093E+07
 0.16520000E+02 -0.49739E+07
 0.16570002E+02 -0.30649E+07
 0.16620001E+02  0.18322E+06
 0.16670000E+02  0.29203E+07
 0.16720001E+02  0.67538E+07
 0.16770000E+02  0.56050E+07
 0.16820002E+02  0.37452E+07
 0.16870001E+02  0.25774E+07
 0.16920000E+02  0.22870E+07
 0.16970001E+02  0.12765E+07
 0.17020000E+02 -0.97248E+06
 0.17070002E+02  0.71054E+06
 0.17120001E+02  0.31819E+07
 0.17170000E+02  0.57222E+07
 0.17220001E+02  0.72480E+07
 0.17270000E+02  0.68055E+07
 0.17320002E+02  0.37505E+07
 0.17370001E+02  0.11748E+07
 0.17420000E+02  0.25446E+07
 0.17470001E+02  0.41299E+07
 0.17520000E+02  0.67906E+07
 0.17570002E+02  0.65565E+07
 0.17620001E+02  0.57433E+07
 0.17670000E+02  0.46707E+07
 0.17720001E+02 -0.16637E+07
 0.17770000E+02 -0.33626E+07
 0.17820002E+02 -0.17648E+07
 0.17870001E+02 -0.15462E+07
 0.17920000E+02  0.51866E+06
 0.17970001E+02  0.19452E+07
 0.18020000E+02  0.26568E+07
 0.18070002E+02  0.23826E+07
 0.18120001E+02 -0.51181E+06
 0.18170000E+02 -0.35932E+07
 0.18220001E+02 -0.50663E+07
 0.18270000E+02 -0.52281E+07
 0.18320002E+02 -0.19857E+07
 0.18370001E+02  0.39413E+06
 0.18420000E+02 -0.23188E+06
 0.18470001E+02  0.89758E+06
 0.18520000E+02 -0.14343E+06
 0.18570002E+02 -0.18290E+07
 0.18620001E+02 -0.98687E+06
 0.18670000E+02 -0.12840E+06
 0.18720001E+02  0.23807E+07
 0.18770000E+02  0.56709E+07
 0.18820002E+02  0.47124E+07
 0.18870001E+02  0.97516E+06
 0.18920000E+02  0.10608E+07
 0.18970001E+02  0.20597E+07
 0.19020000E+02  0.51086E+06
 0.19070002E+02  0.79214E+06
 0.19120001E+02  0.23027E+07
 0.19170000E+02  0.13233E+07
 0.19220001E+02 -0.81944E+06
 0.19270000E+02 -0.21549E+07
 0.19320002E+02 -0.20141E+07
 0.19370001E+02 -0.23596E+07
 0.19420000E+02 -0.39065E+07
 0.19470001E+02 -0.37506E+07
 0.19520000E+02 -0.21478E+07
 0.19570002E+02 -0.12086E+07
 0.19620001E+02 -0.20014E+07
 0.19670000E+02 -0.24044E+07
 0.19720001E+02 -0.22036E+07
 0.19770000E+02 -0.35516E+07
 0.19820002E+02 -0.54949E+07
 0.19870001E+02 -0.67233E+07
 0.19920000E+02 -0.69629E+07
 0.19970001E+02 -0.73179E+07
 0.20020000E+02 -0.76772E+07
 0.20070002E+02 -0.70625E+07
 0.20120001E+02 -0.48378E+07
 0.20170000E+02 -0.33328E+07
 0.20220001E+02 -0.49349E+07
 0.20270000E+02 -0.52662E+07
 0.20320002E+02 -0.28031E+07
 0.20370001E+02 -0.65461E+06
 0.20420000E+02 -0.16709E+06
 0.20470001E+02 -0.13094E+07
 0.20520000E+02 -0.15081E+07
 0.20570002E+02 -0.78311E+06
 0.20620001E+02 -0.14270E+07
 0.20670000E+02 -0.23409E+07
 0.20720001E+02 -0.14598E+07
 0.20770000E+02  0.11926E+07
 0.20820002E+02  0.27838E+07
 0.20870001E+02  0.40503E+07
 0.20920000E+02  0.52762E+07
 0.20970001E+02  0.49539E+07
 0.21020000E+02  0.55521E+07
 0.21070002E+02  0.59321E+07
 0.21120001E+02  0.35353E+07
 0.21170000E+02 -0.72393E+05
 0.21220001E+02 -0.23603E+07
 0.21270000E+02 -0.29455E+07
 0.21320002E+02 -0.26980E+07
 0.21370001E+02 -0.27070E+07
 0.21420000E+02 -0.18319E+07
 0.21470001E+02 -0.65538E+06
 0.21520000E+02 -0.15907E+07
 0.21570002E+02 -0.20053E+07
 0.21620001E+02 -0.19983E+07
 0.21670000E+02 -0.27929E+07
 0.21720001E+02 -0.30597E+07
 0.21770000E+02 -0.23056E+07
 0.21820002E+02  0.30982E+05
 0.21870001E+02  0.22357E+07
 0.21920000E+02  0.16841E+07
 0.21970001E+02 -0.69986E+06
 0.22020000E+02 -0.87528E+06
 0.22070002E+02  0.96141E+06
 0.22120001E+02  0.15924E+07
 0.22170000E+02  0.13454E+07
 0.22220001E+02  0.12433E+06
 0.22270000E+02 -0.17690E+07
 0.22320002E+02 -0.33752E+07
 0.22370001E+02 -0.40732E+07
 0.22420000E+02 -0.32957E+07
 0.22470001E+02 -0.27671E+07
 0.22520000E+02 -0.24264E+07
 0.22570002E+02 -0.20808E+07
 0.22620001E+02 -0.16022E+07
 0.22670000E+02 -0.11674E+07
 0.22720001E+02 -0.11770E+07
 0.22770000E+02 -0.91226E+06
 0.22820002E+02 -0.45498E+06
 0.22870001E+02  0.14625E+07
 0.22920000E+02  0.35174E+07
 0.22970001E+02  0.39010E+07
 0.23020000E+02  0.23471E+07
 0.23070002E+02  0.29478E+06
 0.23120001E+02  0.63257E+06
 0.23170000E+02  0.15869E+07
 0.23220001E+02  0.18245E+07
 0.23270000E+02  0.21521E+07
 0.23320002E+02  0.14243E+07
 0.23370001E+02  0.70532E+06
 0.23420000E+02  0.16675E+07
 0.23470001E+02  0.25934E+07
 0.23520000E+02  0.23325E+07
 0.23570002E+02  0.26725E+06
 0.23620001E+02 -0.20995E+07
 0.23670000E+02 -0.29634E+07
 0.23720001E+02 -0.38498E+07
 0.23770000E+02 -0.38976E+07
 0.23820002E+02 -0.33923E+07
 0.23870001E+02 -0.47074E+07
 0.23920000E+02 -0.51234E+07
 0.23970001E+02 -0.29564E+07
 0.24020000E+02 -0.10211E+07
 0.24070002E+02  0.41253E+05
 0.24120001E+02  0.29408E+06
 0.24170000E+02  0.31513E+06
 0.24220001E+02  0.98867E+06
 0.24270000E+02  0.20483E+07
 0.24320002E+02  0.34087E+07
 0.24370001E+02  0.34916E+07
 0.24420000E+02  0.33879E+07
 0.24470001E+02  0.34297E+07
 0.24520000E+02  0.31711E+07
 0.24570002E+02  0.41027E+07
 0.24620001E+02  0.46972E+07
 0.24670000E+02  0.50778E+07
 0.24720001E+02  0.51899E+07
 0.24770000E+02  0.44125E+07
 0.24820002E+02  0.33064E+07
 0.24870001E+02  0.15931E+07
 0.24920000E+02  0.85397E+06
 0.24970001E+02  0.96790E+06
 0.25020000E+02  0.44507E+06
 0.25070002E+02 -0.15094E+06
 0.25120001E+02 -0.22928E+06
 0.25170000E+02  0.35160E+06
 0.25220001E+02  0.25905E+06
 0.25270000E+02 -0.58674E+06
 0.25320002E+02 -0.82519E+06
 0.25370001E+02 -0.18871E+07
 0.25420000E+02 -0.28045E+07
 0.25470001E+02 -0.25898E+07
 0.25520000E+02 -0.29473E+07
 0.25570002E+02 -0.30589E+07
 0.25620001E+02 -0.26179E+07
 0.25670000E+02 -0.18630E+07
 0.25720001E+02 -0.11181E+07
 0.25770000E+02 -0.54449E+06
 0.25820002E+02  0.21520E+04
 0.25870001E+02  0.10654E+06
 0.25920000E+02  0.62009E+06
 0.25970001E+02  0.95296E+06
 0.26020000E+02  0.10147E+07
 0.26070002E+02  0.15957E+07
 0.26120001E+02  0.21550E+07
 0.26170000E+02  0.29122E+07
 0.26220001E+02  0.31914E+07
 0.26270000E+02  0.30562E+07
 0.26320002E+02  0.36075E+07
 0.26370001E+02  0.47183E+07
 0.26420000E+02  0.53787E+07
 0.26470001E+02  0.44077E+07
 0.26520000E+02  0.24598E+07
 0.26570002E+02  0.41911E+06
 0.26620001E+02 -0.88189E+06
 0.26670000E+02 -0.13971E+07
 0.26720001E+02 -0.14915E+07
 0.26770000E+02 -0.51838E+06
 0.26820002E+02  0.14614E+06
 0.26870001E+02  0.18748E+06
 0.26920000E+02  0.70269E+06
 0.26970001E+02  0.14047E+07
 0.27020000E+02  0.16564E+07
 0.27070002E+02  0.10598E+07
 0.27120001E+02  0.53930E+06
 0.27170000E+02  0.42920E+06
 0.27220001E+02 -0.85672E+05
 0.27270000E+02 -0.10237E+07
 0.27320002E+02 -0.15106E+07
 0.27370001E+02 -0.14007E+07
 0.27420000E+02 -0.10169E+07
 0.27470001E+02 -0.29466E+06
 0.27520000E+02 -0.31171E+06
 0.27570002E+02 -0.12790E+07
 0.27620001E+02 -0.26052E+07
 0.27670000E+02 -0.36317E+07
 0.27720001E+02 -0.32398E+07
 0.27770000E+02 -0.19151E+07
 0.27820002E+02 -0.67528E+06
 0.27870001E+02 -0.77741E+05
 0.27920000E+02  0.12213E+06
 0.27970001E+02 -0.13433E+06
 0.28020000E+02 -0.32957E+06
 0.28070002E+02  0.44595E+06
 0.28120001E+02  0.12419E+07
 0.28170000E+02  0.18233E+07
 0.28220001E+02  0.19043E+07
 0.28270000E+02  0.15720E+07
 0.28320002E+02  0.11653E+07
 0.28370001E+02  0.20624E+06
 0.28420000E+02 -0.41714E+06
 0.28470001E+02 -0.95573E+06
 0.28520000E+02 -0.13723E+07
 0.28570002E+02 -0.27586E+06
 0.28620001E+02  0.12061E+07
 0.28670000E+02  0.17638E+07
 0.28720001E+02  0.14716E+07
 0.28770000E+02  0.61320E+06
 0.28820002E+02  0.27838E+06
 0.28870001E+02  0.81590E+06
 0.28920000E+02  0.14995E+07
 0.28970001E+02  0.21287E+07
 0.29020000E+02  0.26950E+07
 0.29070000E+02  0.27818E+07
 0.29120003E+02  0.26353E+07
 0.29170002E+02  0.27483E+07
 0.29220001E+02  0.20633E+07
 0.29270000E+02  0.10125E+07
 0.29320000E+02  0.65300E+06
 0.29370003E+02  0.31217E+06
 0.29420002E+02  0.78165E+06
 0.29470001E+02  0.17507E+07
 0.29520000E+02  0.16275E+07
 0.29570000E+02  0.11601E+07
 0.29620003E+02  0.83926E+06
 0.29670002E+02  0.28421E+06
 0.29720001E+02 -0.66198E+05
 0.29770000E+02 -0.83630E+05
 0.29820000E+02 -0.93050E+05
 0.29870003E+02 -0.33625E+06
 0.29920002E+02 -0.10260E+07
 0.29970001E+02 -0.19200E+07
 0.30020000E+02 -0.23716E+07
 0.30070000E+02 -0.19450E+07
 0.30120003E+02 -0.78624E+06
 0.30170002E+02  0.32171E+06
 0.30220001E+02  0.44842E+06
 0.30270000E+02 -0.10823E+06
 0.30320000E+02 -0.53376E+06
 0.30370003E+02 -0.10285E+07
 0.30420002E+02 -0.11694E+07
 0.30470001E+02 -0.53714E+06
 0.30520000E+02 -0.21714E+06
 0.30570000E+02 -0.54872E+06
 0.30620003E+02 -0.11514E+07
 0.30670002E+02 -0.13911E+07
 0.30720001E+02 -0.11102E+07
 0.30770000E+02 -0.84043E+06
 0.30820000E+02 -0.45725E+06
 0.30870003E+02 -0.28674E+06
 0.30920002E+02 -0.45757E+06
 0.30970001E+02 -0.34663E+06
 0.31020000E+02 -0.22676E+06
 0.31070000E+02 -0.59341E+06
 0.31120003E+02 -0.89065E+06
 0.31170002E+02 -0.11592E+07
 0.31220001E+02 -0.13238E+07
 0.31270000E+02 -0.98003E+06
 0.31320000E+02 -0.95709E+06
 0.31370003E+02 -0.14623E+07
 0.31420002E+02 -0.24588E+07
 0.31470001E+02 -0.34178E+07
 0.31520000E+02 -0.33568E+07
 0.31570000E+02 -0.32067E+07
 0.31620003E+02 -0.32853E+07
 0.31670002E+02 -0.30077E+07
 0.31720001E+02 -0.27077E+07
 0.31770000E+02 -0.19538E+07
 0.31820000E+02 -0.72374E+06
 0.31870003E+02  0.13071E+06
 0.31920002E+02  0.49402E+06
 0.31970001E+02  0.61573E+06
 0.32020000E+02  0.58521E+06
 0.32070000E+02  0.67397E+06
 0.32120003E+02  0.12835E+07
 0.32170002E+02  0.20548E+07
 0.32220001E+02  0.25692E+07
 0.32270000E+02  0.26833E+07
 0.32320000E+02  0.24007E+07
 0.32370003E+02  0.20867E+07
 0.32420002E+02  0.18349E+07
 0.32470001E+02  0.17213E+07
 0.32520000E+02  0.13707E+07
 0.32570000E+02  0.62265E+06
 0.32620003E+02  0.35721E+06
 0.32670002E+02  0.49626E+06
 0.32720001E+02  0.63658E+06
 0.32770000E+02  0.55636E+06
 0.32820000E+02  0.22420E+05
 0.32870003E+02 -0.14602E+06
 0.32920002E+02  0.49839E+06
 0.32970001E+02  0.10247E+07
 0.33020000E+02  0.69577E+06
 0.33070000E+02  0.36119E+06
 0.33120003E+02 -0.18361E+06
 0.33170002E+02 -0.12901E+07
 0.33220001E+02 -0.17282E+07
 0.33270000E+02 -0.12641E+07
 0.33320000E+02 -0.31646E+05
 0.33370003E+02  0.48225E+06
 0.33420002E+02 -0.57688E+05
 0.33470001E+02  0.42497E+05
 0.33520000E+02  0.31080E+06
 0.33570000E+02  0.10116E+05
 0.33620003E+02 -0.43402E+06
 0.33670002E+02 -0.44512E+06
 0.33720001E+02 -0.53909E+06
 0.33770000E+02 -0.63525E+06
 0.33820000E+02 -0.10512E+06
 0.33870003E+02  0.25963E+06
 0.33920002E+02  0.31178E+06
 0.33970001E+02  0.36234E+06
 0.34020000E+02  0.48899E+06
 0.34070000E+02  0.75386E+06
 0.34120003E+02  0.11245E+07
 0.34170002E+02  0.13298E+07
 0.34220001E+02  0.12258E+07
 0.34270000E+02  0.83504E+06
 0.34320000E+02  0.80459E+05
 0.34370003E+02 -0.39757E+06
 0.34420002E+02 -0.37091E+06
 0.34470001E+02 -0.92160E+04
 0.34520000E+02  0.28324E+06
 0.34570000E+02  0.35330E+06
 0.34620003E+02  0.67712E+06
 0.34670002E+02  0.77605E+06
 0.34720001E+02  0.77492E+06
 0.34770000E+02  0.99763E+06
 0.34820000E+02  0.73643E+06
 0.34870003E+02  0.50050E+04
 0.34920002E+02 -0.50730E+06
 0.34970001E+02 -0.54474E+06
 0.35020000E+02 -0.26518E+06
 0.35070000E+02  0.33799E+05
 0.35120003E+02 -0.31061E+05
 0.35170002E+02 -0.33546E+06
 0.35220001E+02 -0.46289E+06
 0.35270000E+02 -0.47621E+06
 0.35320000E+02 -0.36266E+06
 0.35370003E+02  0.12028E+06
 0.35420002E+02  0.62348E+06
 0.35470001E+02  0.99812E+06
 0.35520000E+02  0.95744E+06
 0.35570000E+02  0.27255E+06
 0.35620003E+02 -0.94645E+05
 0.35670002E+02  0.18778E+05
 0.35720001E+02  0.23804E+06
 0.35770000E+02  0.49214E+06
 0.35820000E+02  0.74751E+06
 0.35870003E+02  0.99690E+06
 0.35920002E+02  0.78189E+06
 0.35970001E+02  0.37581E+06
 0.36020000E+02  0.44797E+06
 0.36070000E+02  0.84901E+06
 0.36120003E+02  0.12277E+07
 0.36170002E+02  0.14429E+07
 0.36220001E+02  0.13337E+07
 0.36270000E+02  0.10164E+07
 0.36320000E+02  0.52455E+06
 0.36370003E+02 -0.93429E+05
 0.36420002E+02 -0.11148E+06
 0.36470001E+02  0.33381E+06
 0.36520000E+02  0.67010E+06
 0.36570000E+02  0.86620E+06
 0.36620003E+02  0.91676E+06
 0.36670002E+02  0.88391E+06
 0.36720001E+02  0.77260E+06
 0.36770000E+02  0.69332E+06
 0.36820000E+02  0.53464E+06
 0.36870003E+02  0.31412E+06
 0.36920002E+02  0.48755E+05
 0.36970001E+02 -0.33950E+06
 0.37020000E+02 -0.71880E+06
 0.37070000E+02 -0.11025E+07
 0.37120003E+02 -0.13042E+07
 0.37170002E+02 -0.14973E+07
 0.37220001E+02 -0.19392E+07
 0.37270000E+02 -0.21030E+07
 0.37320000E+02 -0.17610E+07
 0.37370003E+02 -0.16042E+07
 0.37420002E+02 -0.18371E+07
 0.37470001E+02 -0.20135E+07
 0.37520000E+02 -0.21734E+07
 0.37570000E+02 -0.21263E+07
 0.37620003E+02 -0.20214E+07
 0.37670002E+02 -0.24646E+07
 0.37720001E+02 -0.28852E+07
 0.37770000E+02 -0.28810E+07
 0.37820000E+02 -0.26797E+07
 0.37870003E+02 -0.21778E+07
 0.37920002E+02 -0.13090E+07
 0.37970001E+02 -0.40023E+06
 0.38020000E+02  0.35395E+05
 0.38070000E+02  0.19297E+06
 0.38120003E+02  0.58287E+06
 0.38170002E+02  0.97757E+06
 0.38220001E+02  0.11379E+07
 0.38270000E+02  0.13268E+07
 0.38320000E+02  0.15156E+07
 0.38370003E+02  0.17052E+07
 0.38420002E+02  0.20778E+07
 0.38470001E+02  0.24536E+07
 0.38520000E+02  0.26277E+07
 0.38570000E+02  0.25440E+07
 0.38620003E+02  0.22583E+07
 0.38670002E+02  0.19690E+07
 0.38720001E+02  0.18344E+07
 0.38770000E+02  0.17062E+07
 0.38820000E+02  0.15298E+07
 0.38870003E+02  0.12715E+07
 0.38920002E+02  0.66840E+06
 0.38970001E+02  0.11469E+06
 0.39020000E+02  0.35573E+05
 0.39070000E+02  0.77292E+05
 0.39120003E+02 -0.44801E+05
 0.39170002E+02 -0.30195E+06
 0.39220001E+02 -0.39001E+06
 0.39270000E+02 -0.40960E+06
 0.39320000E+02 -0.87026E+06
 0.39370003E+02 -0.14686E+07
 0.39420002E+02 -0.18142E+07
 0.39470001E+02 -0.18861E+07
 0.39520000E+02 -0.18207E+07
 0.39570000E+02 -0.18455E+07
 0.39620003E+02 -0.18302E+07
 0.39670002E+02 -0.16042E+07
 0.39720001E+02 -0.11851E+07
 0.39770000E+02 -0.68576E+06
 0.39820000E+02 -0.24755E+06
 0.39870003E+02 -0.11879E+06
 0.39920002E+02 -0.47031E+06
 0.39970001E+02 -0.11469E+07
 0.40020000E+02 -0.16486E+07
 0.40070000E+02 -0.14674E+07
 0.40120003E+02 -0.64110E+06
 0.40170002E+02  0.30680E+06
 0.40220001E+02  0.86496E+06
 0.40270000E+02  0.97213E+06
 0.40320000E+02  0.10561E+07
 0.40370003E+02  0.14200E+07
 0.40420002E+02  0.19358E+07
 0.40470001E+02  0.24059E+07
 0.40520000E+02  0.24743E+07
 0.40570000E+02  0.21009E+07
 0.40620003E+02  0.17095E+07
 0.40670002E+02  0.13656E+07
 0.40720001E+02  0.12057E+07
 0.40770000E+02  0.13712E+07
 0.40820000E+02  0.12537E+07
 0.40870003E+02  0.85264E+06
 0.40920002E+02  0.72697E+06
 0.40970001E+02  0.72931E+06
 0.41020000E+02  0.70570E+06
 0.41070000E+02  0.65559E+06
 0.41120003E+02  0.63501E+06
 0.41170002E+02  0.51701E+06
 0.41220001E+02  0.22512E+06
 0.41270000E+02  0.21411E+05
 0.41320000E+02 -0.63807E+05
 0.41370003E+02 -0.22792E+06
 0.41420002E+02 -0.65331E+06
 0.41470001E+02 -0.10885E+07
 0.41520000E+02 -0.13871E+07
 0.41570000E+02 -0.15975E+07
 0.41620003E+02 -0.13573E+07
 0.41670002E+02 -0.67004E+06
 0.41720001E+02  0.10002E+05
 0.41770000E+02  0.27665E+06
 0.41820000E+02 -0.13135E+06
 0.41870003E+02 -0.69514E+06
 0.41920002E+02 -0.92413E+06
 0.41970001E+02 -0.90864E+06
 0.42020000E+02 -0.59598E+06
 0.42070000E+02 -0.16580E+06
 0.42120003E+02  0.15280E+06
 0.42170002E+02  0.28391E+06
 0.42220001E+02  0.26390E+06
 0.42270000E+02  0.29755E+06
 0.42320000E+02  0.42349E+06
 0.42370003E+02  0.58909E+06
 0.42420002E+02  0.85046E+06
 0.42470001E+02  0.10063E+07
 0.42520000E+02  0.81365E+06
 0.42570000E+02  0.42160E+06
 0.42620003E+02 -0.45323E+05
 0.42670002E+02 -0.21089E+06
 0.42720001E+02  0.43586E+05
 0.42770000E+02  0.16584E+06
 0.42820000E+02  0.71890E+04
 0.42870003E+02 -0.24794E+06
 0.42920002E+02 -0.74126E+06
 0.42970001E+02 -0.12204E+07
 0.43020000E+02 -0.12144E+07
 0.43070000E+02 -0.72785E+06
 0.43120003E+02  0.65890E+04
 0.43170002E+02  0.32544E+06
 0.43220001E+02  0.27487E+05
 0.43270000E+02 -0.46018E+06
 0.43320000E+02 -0.10174E+07
 0.43370003E+02 -0.15911E+07
 0.43420002E+02 -0.17505E+07
 0.43470001E+02 -0.13407E+07
 0.43520000E+02 -0.88938E+06
 0.43570000E+02 -0.65892E+06
 0.43620003E+02 -0.55472E+06
 0.43670002E+02 -0.43693E+06
 0.43720001E+02 -0.13053E+06
 0.43770000E+02  0.34738E+06
 0.43820000E+02  0.86288E+06
 0.43870003E+02  0.12473E+07
 0.43920002E+02  0.11827E+07
 0.43970001E+02  0.84261E+06
 0.44020000E+02  0.64692E+06
 0.44070000E+02  0.55831E+06
 0.44120003E+02  0.51227E+06
 0.44170002E+02  0.29908E+06
 0.44220001E+02 -0.93980E+04
 0.44270000E+02 -0.21184E+06
 0.44320000E+02 -0.35122E+06
 0.44370003E+02 -0.16505E+06
 0.44420002E+02  0.26925E+06
 0.44470001E+02  0.66809E+06
 0.44520000E+02  0.97857E+06
 0.44570000E+02  0.12315E+07
 0.44620003E+02  0.15090E+07
 0.44670002E+02  0.15390E+07
 0.44720001E+02  0.12322E+07
 0.44770000E+02  0.76036E+06
 0.44820000E+02  0.26687E+06
 0.44870003E+02 -0.45989E+05
 0.44920002E+02 -0.31823E+06
 0.44970001E+02 -0.58362E+06
 0.45020000E+02 -0.78549E+06
 0.45070000E+02 -0.92944E+06
 0.45120003E+02 -0.74539E+06
 0.45170002E+02 -0.30584E+06
 0.45220001E+02 -0.70611E+05
 0.45270000E+02 -0.31950E+06
 0.45320000E+02 -0.86403E+06
 0.45370003E+02 -0.14042E+07
 0.45420002E+02 -0.17753E+07
 0.45470001E+02 -0.17717E+07
 0.45520000E+02 -0.14270E+07
 0.45570000E+02 -0.96203E+06
 0.45620003E+02 -0.79815E+06
 0.45670002E+02 -0.94317E+06
 0.45720001E+02 -0.10108E+07
 0.45770000E+02 -0.10677E+07
 0.45820000E+02 -0.99051E+06
 0.45870003E+02 -0.78652E+06
 0.45920002E+02 -0.67612E+06
 0.45970001E+02 -0.58115E+06
 0.46020000E+02 -0.47300E+06
 0.46070000E+02 -0.32830E+06
 0.46120003E+02 -0.24332E+06
 0.46170002E+02 -0.29243E+06
 0.46220001E+02 -0.46601E+06
 0.46270000E+02 -0.69054E+06
 0.46320000E+02 -0.88883E+06
 0.46370003E+02 -0.10530E+07
 0.46420002E+02 -0.11015E+07
 0.46470001E+02 -0.97158E+06
 0.46520000E+02 -0.58086E+06
 0.46570000E+02  0.11326E+05
 0.46620003E+02  0.51031E+06
 0.46670002E+02  0.77324E+06
 0.46720001E+02  0.96933E+06
 0.46770000E+02  0.12235E+07
 0.46820000E+02  0.14630E+07
 0.46870003E+02  0.14530E+07
 0.46920002E+02  0.12206E+07
 0.46970001E+02  0.10184E+07
 0.47020000E+02  0.76505E+06
 0.47070000E+02  0.58422E+06
 0.47120003E+02  0.52698E+06
 0.47170002E+02  0.38281E+06
 0.47220001E+02  0.33313E+06
 0.47270000E+02  0.42640E+06
 0.47320000E+02  0.52451E+06
 0.47370003E+02  0.45967E+06
 0.47420002E+02  0.78468E+05
 0.47470001E+02 -0.42895E+06
 0.47520000E+02 -0.76008E+06
 0.47570000E+02 -0.87131E+06
 0.47620003E+02 -0.98764E+06
 0.47670002E+02 -0.11499E+07
 0.47720001E+02 -0.13622E+07
 0.47770000E+02 -0.16637E+07
 0.47820000E+02 -0.18987E+07
 0.47870003E+02 -0.19471E+07
 0.47920002E+02 -0.17875E+07
 0.47970001E+02 -0.16391E+07
 0.48020000E+02 -0.15866E+07
 0.48070000E+02 -0.13334E+07
 0.48120003E+02 -0.85794E+06
 0.48170002E+02 -0.46491E+06
 0.48220001E+02 -0.32207E+06
 0.48270000E+02 -0.35318E+06
 0.48320000E+02 -0.48650E+06
 0.48370003E+02 -0.63661E+06
 0.48420002E+02 -0.65001E+06
 0.48470001E+02 -0.54411E+06
 0.48520000E+02 -0.35779E+06
 0.48570000E+02 -0.11517E+06
 0.48620003E+02  0.14597E+06
 0.48670002E+02  0.38922E+06
 0.48720001E+02  0.52225E+06
 0.48770000E+02  0.45376E+06
 0.48820000E+02  0.22321E+06
 0.48870003E+02  0.14096E+06
 0.48920002E+02  0.29264E+06
 0.48970001E+02  0.49868E+06
 0.49020000E+02  0.64544E+06
 0.49070000E+02  0.62419E+06
 0.49120003E+02  0.50979E+06
 0.49170002E+02  0.44827E+06
 0.49220001E+02  0.52534E+06
 0.49270000E+02  0.75860E+06
 0.49320000E+02  0.10551E+07
 0.49370003E+02  0.12478E+07
 0.49420002E+02  0.11923E+07
 0.49470001E+02  0.99011E+06
 0.49520000E+02  0.86426E+06
 0.49570000E+02  0.97616E+06
 0.49620003E+02  0.11959E+07
 0.49670002E+02  0.12559E+07
 0.49720001E+02  0.11224E+07
 0.49770000E+02  0.80181E+06
 0.49820000E+02  0.45765E+06
 0.49870003E+02  0.30193E+06
 0.49920002E+02  0.26864E+06
 0.49970001E+02  0.20879E+06
 0.50020000E+02  0.82334E+05
 0.50070000E+02 -0.18224E+05
 0.50120003E+02  0.17019E+05
 0.50170002E+02  0.13947E+06
 0.50220001E+02  0.17709E+06
 0.50270000E+02  0.14892E+06
 0.50320000E+02  0.10873E+06
 0.50370003E+02  0.53699E+05
 0.50420002E+02  0.21604E+06
 0.50470001E+02  0.62665E+06
 0.50520000E+02  0.10263E+07
 0.50570000E+02  0.13812E+07
 0.50620003E+02  0.16399E+07
 0.50670002E+02  0.16842E+07
 0.50720001E+02  0.16315E+07
 0.50770000E+02  0.15223E+07
 0.50820000E+02  0.12107E+07
 0.50870003E+02  0.79025E+06
 0.50920002E+02  0.44544E+06
 0.50970001E+02  0.12077E+06
 0.51020000E+02 -0.14858E+06
 0.51070000E+02 -0.39496E+06
 0.51120003E+02 -0.69793E+06
 0.51170002E+02 -0.10318E+07
 0.51220001E+02 -0.14414E+07
 0.51270000E+02 -0.17854E+07
 0.51320000E+02 -0.19450E+07
 0.51370003E+02 -0.19275E+07
 0.51420002E+02 -0.17329E+07
 0.51470001E+02 -0.13559E+07
 0.51520000E+02 -0.89611E+06
 0.51570000E+02 -0.52122E+06
 0.51620003E+02 -0.19479E+06
 0.51670002E+02  0.92829E+05
 0.51720001E+02  0.21523E+06
 0.51770000E+02  0.22429E+06
 0.51820000E+02  0.32941E+06
 0.51870003E+02  0.49246E+06
 0.51920002E+02  0.57862E+06
 0.51970001E+02  0.61851E+06
 0.52020000E+02  0.64921E+06
 0.52070000E+02  0.65587E+06
 0.52120003E+02  0.67253E+06
 0.52170002E+02  0.72140E+06
 0.52220001E+02  0.79504E+06
 0.52270000E+02  0.92577E+06
 0.52320000E+02  0.10322E+07
 0.52370003E+02  0.10858E+07
 0.52420002E+02  0.11297E+07
 0.52470001E+02  0.11649E+07
 0.52520000E+02  0.11546E+07
 0.52570000E+02  0.10286E+07
 0.52620003E+02  0.84699E+06
 0.52670002E+02  0.62538E+06
 0.52720001E+02  0.29490E+06
 0.52770000E+02 -0.46880E+05
 0.52820000E+02 -0.27475E+06
 0.52870003E+02 -0.38737E+06
 0.52920002E+02 -0.41988E+06
 0.52970001E+02 -0.43422E+06
 0.53020000E+02 -0.34456E+06
 0.53070000E+02 -0.15039E+06
 0.53120003E+02 -0.44200E+05
 0.53170002E+02 -0.32058E+05
 0.53220001E+02 -0.12294E+06
 0.53270000E+02 -0.27652E+06
 0.53320000E+02 -0.35367E+06
 0.53370003E+02 -0.42091E+06
 0.53420002E+02 -0.52191E+06
 0.53470001E+02 -0.53553E+06
 0.53520000E+02 -0.51588E+06
 0.53570000E+02 -0.55074E+06
 0.53620003E+02 -0.58745E+06
 0.53670002E+02 -0.68442E+06
 0.53720001E+02 -0.78334E+06
 0.53770000E+02 -0.78900E+06
 0.53820000E+02 -0.68824E+06
 0.53870003E+02 -0.38109E+06
 0.53920002E+02 -0.10478E+05
 0.53970001E+02  0.18558E+06
 0.54020000E+02  0.12002E+06
 0.54070000E+02 -0.91573E+05
 0.54120003E+02 -0.24015E+06
 0.54170002E+02 -0.31306E+06
 0.54220001E+02 -0.27419E+06
 0.54270000E+02 -0.13518E+06
 0.54320000E+02 -0.29592E+05
 0.54370003E+02 -0.19909E+05
 0.54420002E+02 -0.94687E+05
 0.54470001E+02 -0.10967E+06
 0.54520000E+02  0.16788E+05
 0.54570000E+02  0.17937E+06
 0.54620003E+02  0.36380E+06
 0.54670002E+02  0.59507E+06
 0.54720001E+02  0.81680E+06
 0.54770000E+02  0.99610E+06
 0.54820000E+02  0.10691E+07
 0.54870003E+02  0.10770E+07
 0.54920002E+02  0.10882E+07
 0.54970001E+02  0.10380E+07
 0.55020000E+02  0.88296E+06
 0.55070000E+02  0.66036E+06
 0.55120003E+02  0.44181E+06
 0.55170002E+02  0.24505E+06
 0.55220001E+02  0.12256E+06
 0.55270000E+02  0.11944E+06
 0.55320000E+02  0.15716E+06
 0.55370003E+02  0.15527E+06
 0.55420002E+02  0.12122E+06
 0.55470001E+02  0.13651E+05
 0.55520000E+02 -0.23801E+06
 0.55570000E+02 -0.53659E+06
 0.55620003E+02 -0.74756E+06
 0.55670002E+02 -0.82785E+06
 0.55720001E+02 -0.84907E+06
 0.55770000E+02 -0.88563E+06
 0.55820000E+02 -0.98890E+06
 0.55870003E+02 -0.12253E+07
 0.55920002E+02 -0.14796E+07
 0.55970001E+02 -0.16073E+07
 0.56020000E+02 -0.16465E+07
 0.56070000E+02 -0.15937E+07
 0.56120003E+02 -0.14180E+07
 0.56170002E+02 -0.12089E+07
 0.56220001E+02 -0.10062E+07
 0.56270000E+02 -0.82469E+06
 0.56320000E+02 -0.61869E+06
 0.56370003E+02 -0.36745E+06
 0.56420002E+02 -0.24564E+06
 0.56470001E+02 -0.31956E+06
 0.56520000E+02 -0.43041E+06
 0.56570000E+02 -0.44156E+06
 0.56620003E+02 -0.42056E+06
 0.56670002E+02 -0.42051E+06
 0.56720001E+02 -0.47412E+06
 0.56770000E+02 -0.65766E+06
 0.56820000E+02 -0.76892E+06
 0.56870003E+02 -0.60055E+06
 0.56920002E+02 -0.29804E+06
 0.56970001E+02 -0.44538E+05
 0.57020000E+02  0.14206E+06
 0.57070000E+02  0.27211E+06
 0.57120003E+02  0.32646E+06
 0.57170002E+02  0.32553E+06
 0.57220001E+02  0.34361E+06
 0.57270000E+02  0.41156E+06
 0.57320000E+02  0.53652E+06
 0.57370003E+02  0.73636E+06
 0.57420002E+02  0.95984E+06
 0.57470001E+02  0.11411E+07
 0.57520000E+02  0.12121E+07
 0.57570000E+02  0.11254E+07
 0.57620003E+02  0.99264E+06
 0.57670002E+02  0.93372E+06
 0.57720001E+02  0.93965E+06
 0.57770000E+02  0.96709E+06
 0.57820000E+02  0.90915E+06
 0.57870003E+02  0.76455E+06
 0.57920002E+02  0.58587E+06
 0.57970001E+02  0.31967E+06
 0.58020000E+02  0.89900E+05
 0.58070000E+02  0.23557E+05
 0.58120003E+02  0.74527E+05
 0.58170002E+02  0.17215E+06
 0.58220001E+02  0.22944E+06
 0.58270000E+02  0.19541E+06
 0.58320000E+02  0.70686E+05
 0.58370003E+02 -0.93240E+05
 0.58420002E+02 -0.25618E+06
 0.58470001E+02 -0.40172E+06
 0.58520000E+02 -0.48000E+06
 0.58570000E+02 -0.49268E+06
 0.58620003E+02 -0.48462E+06
 0.58670002E+02 -0.47089E+06
 0.58720001E+02 -0.45489E+06
 0.58770000E+02 -0.45128E+06
 0.58820000E+02 -0.48762E+06
 0.58870003E+02 -0.50499E+06
 0.58920002E+02 -0.44225E+06
 0.58970001E+02 -0.30584E+06
 0.59020000E+02 -0.10742E+06
 0.59070000E+02  0.86186E+05
 0.59120003E+02  0.25496E+06
 0.59170002E+02  0.39897E+06
 0.59220001E+02  0.51277E+06
 0.59270000E+02  0.61414E+06
 0.59320000E+02  0.64579E+06
 0.59370003E+02  0.51577E+06
 0.59420002E+02  0.23499E+06
 0.59470001E+02  0.27727E+05
 0.59520000E+02 -0.24437E+05
 0.59570000E+02 -0.10911E+06
 0.59620003E+02 -0.27626E+06
 0.59670002E+02 -0.49021E+06
 0.59720001E+02 -0.69411E+06
 0.59770000E+02 -0.80577E+06
 0.59820000E+02 -0.83323E+06
 0.59870003E+02 -0.82273E+06
 0.59920002E+02 -0.81346E+06
 0.59970001E+02 -0.75291E+06
 0.60020000E+02 -0.60611E+06
 0.60070000E+02 -0.42629E+06
 0.60120003E+02 -0.27723E+06
 0.60170002E+02 -0.21675E+06
 0.60220001E+02 -0.20684E+06
 0.60270000E+02 -0.19986E+06
 0.60320000E+02 -0.17976E+06
 0.60370003E+02 -0.14367E+06
 0.60420002E+02 -0.12566E+06
 0.60470001E+02 -0.12561E+06
 0.60520000E+02 -0.10333E+06
 0.60570000E+02  0.42770E+04
 0.60620003E+02  0.23192E+06
 0.60670002E+02  0.48060E+06
 0.60720001E+02  0.60721E+06
 0.60770000E+02  0.61725E+06
 0.60820000E+02  0.58028E+06
 0.60870003E+02  0.54261E+06
 0.60920002E+02  0.50469E+06
 0.60970001E+02  0.36500E+06
 0.61020000E+02  0.12366E+06
 0.61070004E+02 -0.10486E+06
 0.61119999E+02 -0.28604E+06
 0.61170002E+02 -0.35841E+06
 0.61220005E+02 -0.29189E+06
 0.61270000E+02 -0.19332E+06
 0.61320004E+02 -0.17105E+06
 0.61369999E+02 -0.24438E+06
 0.61420002E+02 -0.34072E+06
 0.61470005E+02 -0.42164E+06
 0.61520000E+02 -0.48176E+06
 0.61570004E+02 -0.51056E+06
 0.61619999E+02 -0.55853E+06
 0.61670002E+02 -0.70598E+06
 0.61720005E+02 -0.88234E+06
 0.61770000E+02 -0.91728E+06
 0.61820004E+02 -0.80337E+06
 0.61869999E+02 -0.61774E+06
 0.61920002E+02 -0.38775E+06
 0.61970005E+02 -0.13401E+06
 0.62020000E+02  0.75934E+05
 0.62070004E+02  0.25884E+06
 0.62119999E+02  0.47092E+06
 0.62170002E+02  0.59009E+06
 0.62220005E+02  0.50680E+06
 0.62270000E+02  0.25742E+06
 0.62320004E+02 -0.78660E+04
 0.62369999E+02 -0.16028E+06
 0.62420002E+02 -0.22690E+06
 0.62470005E+02 -0.19636E+06
 0.62520000E+02 -0.96970E+05
 0.62570004E+02 -0.58679E+05
 0.62619999E+02 -0.46197E+05
 0.62670002E+02 -0.22165E+05
 0.62720005E+02 -0.18156E+05
 0.62770000E+02  0.67850E+04
 0.62820004E+02  0.70210E+04
 0.62869999E+02 -0.46827E+05
 0.62920002E+02 -0.82247E+05
 0.62970005E+02 -0.42417E+05
 0.63020000E+02  0.65429E+05
 0.63070004E+02  0.15261E+06
 0.63119999E+02  0.21433E+06
 0.63170002E+02  0.29022E+06
 0.63220005E+02  0.37411E+06
 0.63270000E+02  0.44960E+06
 0.63320004E+02  0.48505E+06
 0.63369999E+02  0.47476E+06
 0.63420002E+02  0.43215E+06
 0.63470005E+02  0.43080E+06
 0.63520000E+02  0.55621E+06
 0.63570004E+02  0.75821E+06
 0.63619999E+02  0.87174E+06
 0.63670002E+02  0.81333E+06
 0.63720005E+02  0.65346E+06
 0.63770000E+02  0.49736E+06
 0.63820004E+02  0.41654E+06
 0.63869999E+02  0.43336E+06
 0.63920002E+02  0.50737E+06
 0.63970005E+02  0.52559E+06
 0.64019997E+02  0.44983E+06
 0.64070000E+02  0.36412E+06
 0.64119995E+02  0.33310E+06
 0.64169998E+02  0.35721E+06
 0.64220001E+02  0.39136E+06
 0.64269997E+02  0.45049E+06
 0.64320000E+02  0.54409E+06
 0.64369995E+02  0.60006E+06
 0.64419998E+02  0.58559E+06
 0.64470001E+02  0.49702E+06
 0.64519997E+02  0.35966E+06
 0.64570000E+02  0.20406E+06
 0.64619995E+02  0.37367E+05
 0.64669998E+02 -0.74730E+05
 0.64720001E+02 -0.12226E+06
 0.64769997E+02 -0.16302E+06
 0.64820000E+02 -0.17871E+06
 0.64869995E+02 -0.16372E+06
 0.64919998E+02 -0.17826E+06
 0.64970001E+02 -0.26948E+06
 0.65019997E+02 -0.41996E+06
 0.65070000E+02 -0.58366E+06
 0.65119995E+02 -0.72693E+06
 0.65169998E+02 -0.80618E+06
 0.65220001E+02 -0.81935E+06
 0.65269997E+02 -0.82751E+06
 0.65320000E+02 -0.86850E+06
 0.65369995E+02 -0.91742E+06
 0.65419998E+02 -0.93442E+06
 0.65470001E+02 -0.91168E+06
 0.65519997E+02 -0.89520E+06
 0.65570000E+02 -0.89278E+06
 0.65619995E+02 -0.84811E+06
 0.65669998E+02 -0.76427E+06
 0.65720001E+02 -0.62271E+06
 0.65769997E+02 -0.41526E+06
 0.65820000E+02 -0.22739E+06
 0.65869995E+02 -0.93948E+05
 0.65919998E+02 -0.44010E+04
 0.65970001E+02  0.57011E+05
 0.66019997E+02  0.87320E+05
 0.66070000E+02  0.87695E+05
 0.66119995E+02  0.98469E+05
 0.66169998E+02  0.14339E+06
 0.66220001E+02  0.23460E+06
 0.66269997E+02  0.36666E+06
 0.66320000E+02  0.50161E+06
 0.66369995E+02  0.57052E+06
 0.66419998E+02  0.53263E+06
 0.66470001E+02  0.42630E+06
 0.66519997E+02  0.33769E+06
 0.66570000E+02  0.27484E+06
 0.66619995E+02  0.19550E+06
 0.66669998E+02  0.12232E+06
 0.66720001E+02  0.44044E+05
 0.66769997E+02 -0.24935E+05
 0.66820000E+02  0.25741E+05
 0.66869995E+02  0.19731E+06
 0.66919998E+02  0.34166E+06
 0.66970001E+02  0.38536E+06
 0.67019997E+02  0.37052E+06
 0.67070000E+02  0.36136E+06
 0.67119995E+02  0.38980E+06
 0.67169998E+02  0.46113E+06
 0.67220001E+02  0.55024E+06
 0.67269997E+02  0.57754E+06
 0.67320000E+02  0.50207E+06
 0.67369995E+02  0.35887E+06
 0.67419998E+02  0.25943E+06
 0.67470001E+02  0.26078E+06
 0.67519997E+02  0.32143E+06
 0.67570000E+02  0.37737E+06
 0.67619995E+02  0.35700E+06
 0.67669998E+02  0.27804E+06
 0.67720001E+02  0.19440E+06
 0.67769997E+02  0.95609E+05
 0.67820000E+02 -0.83939E+05
 0.67869995E+02 -0.28296E+06
 0.67919998E+02 -0.37958E+06
 0.67970001E+02 -0.40642E+06
 0.68019997E+02 -0.40500E+06
 0.68070000E+02 -0.40569E+06
 0.68119995E+02 -0.40888E+06
 0.68169998E+02 -0.39651E+06
 0.68220001E+02 -0.39970E+06
 0.68269997E+02 -0.43116E+06
 0.68320000E+02 -0.48835E+06
 0.68369995E+02 -0.51024E+06
 0.68419998E+02 -0.46470E+06
 0.68470001E+02 -0.37246E+06
 0.68519997E+02 -0.24938E+06
 0.68570000E+02 -0.17231E+06
 0.68619995E+02 -0.18915E+06
 0.68669998E+02 -0.26289E+06
 0.68720001E+02 -0.31257E+06
 0.68769997E+02 -0.31938E+06
 0.68820000E+02 -0.37601E+06
 0.68869995E+02 -0.52292E+06
 0.68919998E+02 -0.69963E+06
 0.68970001E+02 -0.86092E+06
 0.69019997E+02 -0.99881E+06
 0.69070000E+02 -0.10792E+07
 0.69119995E+02 -0.10881E+07
 0.69169998E+02 -0.10832E+07
 0.69220001E+02 -0.11169E+07
 0.69269997E+02 -0.11680E+07
 0.69320000E+02 -0.11879E+07
 0.69369995E+02 -0.11630E+07
 0.69419998E+02 -0.10771E+07
 0.69470001E+02 -0.93136E+06
 0.69519997E+02 -0.78710E+06
 0.69570000E+02 -0.67267E+06
 0.69619995E+02 -0.52943E+06
 0.69669998E+02 -0.31227E+06
 0.69720001E+02 -0.43851E+05
 0.69769997E+02  0.24015E+06
 0.69820000E+02  0.47606E+06
 0.69869995E+02  0.60084E+06
 0.69919998E+02  0.60880E+06
 0.69970001E+02  0.57105E+06
 0.70019997E+02  0.57928E+06
 0.70070000E+02  0.63576E+06
 0.70119995E+02  0.75498E+06
 0.70169998E+02  0.93124E+06
 0.70220001E+02  0.10807E+07
 0.70269997E+02  0.11699E+07
 0.70320000E+02  0.11908E+07
 0.70369995E+02  0.11596E+07
 0.70419998E+02  0.10975E+07
 0.70470001E+02  0.10147E+07
 0.70519997E+02  0.93938E+06
 0.70570000E+02  0.87942E+06
 0.70619995E+02  0.85708E+06
 0.70669998E+02  0.88520E+06
 0.70720001E+02  0.92375E+06
 0.70769997E+02  0.93041E+06
 0.70820000E+02  0.92541E+06
 0.70869995E+02  0.93896E+06
 0.70919998E+02  0.95599E+06
 0.70970001E+02  0.94983E+06
 0.71019997E+02  0.90492E+06
 0.71070000E+02  0.85644E+06
 0.71119995E+02  0.82739E+06
 0.71169998E+02  0.81221E+06
 0.71220001E+02  0.78739E+06
 0.71269997E+02  0.71985E+06
 0.71320000E+02  0.61401E+06
 0.71369995E+02  0.48425E+06
 0.71419998E+02  0.35584E+06
 0.71470001E+02  0.27522E+06
 0.71519997E+02  0.30721E+06
 0.71570000E+02  0.42924E+06
 0.71619995E+02  0.53961E+06
 0.71669998E+02  0.59447E+06
 0.71720001E+02  0.57835E+06
 0.71769997E+02  0.50963E+06
 0.71820000E+02  0.44262E+06
 0.71869995E+02  0.38683E+06
 0.71919998E+02  0.32702E+06
 0.71970001E+02  0.24500E+06
 0.72019997E+02  0.14388E+06
 0.72070000E+02  0.58584E+05
 0.72119995E+02 -0.72900E+03
 0.72169998E+02 -0.44912E+05
 0.72220001E+02 -0.65276E+05
 0.72269997E+02 -0.42810E+05
 0.72320000E+02 -0.31680E+05
 0.72369995E+02 -0.10172E+06
 0.72419998E+02 -0.27014E+06
 0.72470001E+02 -0.51606E+06
 0.72519997E+02 -0.75951E+06
 0.72570000E+02 -0.95500E+06
 0.72619995E+02 -0.10933E+07
 0.72669998E+02 -0.11436E+07
 0.72720001E+02 -0.11148E+07
 0.72769997E+02 -0.10502E+07
 0.72820000E+02 -0.10143E+07
 0.72869995E+02 -0.10381E+07
 0.72919998E+02 -0.10652E+07
 0.72970001E+02 -0.10604E+07
 0.73019997E+02 -0.98621E+06
 0.73070000E+02 -0.83239E+06
 0.73119995E+02 -0.67781E+06
 0.73169998E+02 -0.54994E+06
 0.73220001E+02 -0.43313E+06
 0.73269997E+02 -0.30653E+06
 0.73320000E+02 -0.16513E+06
 0.73369995E+02 -0.28519E+05
 0.73419998E+02  0.82826E+05
 0.73470001E+02  0.13995E+06
 0.73519997E+02  0.16224E+06
 0.73570000E+02  0.21096E+06
 0.73619995E+02  0.31710E+06
 0.73669998E+02  0.43358E+06
 0.73720001E+02  0.50935E+06
 0.73769997E+02  0.54845E+06
 0.73820000E+02  0.56854E+06
 0.73869995E+02  0.60108E+06
 0.73919998E+02  0.64917E+06
 0.73970001E+02  0.66950E+06
 0.74019997E+02  0.63383E+06
 0.74070000E+02  0.56151E+06
 0.74119995E+02  0.50531E+06
 0.74169998E+02  0.50221E+06
 0.74220001E+02  0.52820E+06
 0.74269997E+02  0.50310E+06
 0.74320000E+02  0.36668E+06
 0.74369995E+02  0.15744E+06
 0.74419998E+02 -0.36835E+05
 0.74470001E+02 -0.15867E+06
 0.74519997E+02 -0.20743E+06
 0.74570000E+02 -0.22483E+06
 0.74619995E+02 -0.24948E+06
 0.74669998E+02 -0.29782E+06
 0.74720001E+02 -0.35252E+06
 0.74769997E+02 -0.39132E+06
 0.74820000E+02 -0.40038E+06
 0.74869995E+02 -0.38690E+06
 0.74919998E+02 -0.36432E+06
 0.74970001E+02 -0.34284E+06
 0.75019997E+02 -0.34408E+06
 0.75070000E+02 -0.34227E+06
 0.75119995E+02 -0.32934E+06
 0.75169998E+02 -0.32058E+06
 0.75220001E+02 -0.30117E+06
 0.75269997E+02 -0.29196E+06
 0.75320000E+02 -0.31400E+06
 0.75369995E+02 -0.35385E+06
 0.75419998E+02 -0.39055E+06
 0.75470001E+02 -0.37988E+06
 0.75519997E+02 -0.29877E+06
 0.75570000E+02 -0.19372E+06
 0.75619995E+02 -0.11822E+06
 0.75669998E+02 -0.97782E+05
 0.75720001E+02 -0.11270E+06
 0.75769997E+02 -0.13200E+06
 0.75820000E+02 -0.16643E+06
 0.75869995E+02 -0.20147E+06
 0.75919998E+02 -0.22440E+06
 0.75970001E+02 -0.24805E+06
 0.76019997E+02 -0.23152E+06
 0.76070000E+02 -0.14966E+06
 0.76119995E+02 -0.34746E+05
 0.76169998E+02  0.70340E+05
 0.76220001E+02  0.12173E+06
 0.76269997E+02  0.12871E+06
 0.76320000E+02  0.12659E+06
 0.76369995E+02  0.11398E+06
 0.76419998E+02  0.62037E+05
 0.76470001E+02 -0.49357E+05
 0.76519997E+02 -0.18961E+06
 0.76570000E+02 -0.30860E+06
 0.76619995E+02 -0.38711E+06
 0.76669998E+02 -0.41581E+06
 0.76720001E+02 -0.38064E+06
 0.76769997E+02 -0.32289E+06
 0.76820000E+02 -0.31298E+06
 0.76869995E+02 -0.34314E+06
 0.76919998E+02 -0.37179E+06
 0.76970001E+02 -0.38631E+06
 0.77019997E+02 -0.39098E+06
 0.77070000E+02 -0.40238E+06
 0.77119995E+02 -0.40590E+06
 0.77169998E+02 -0.39539E+06
 0.77220001E+02 -0.38573E+06
 0.77269997E+02 -0.37929E+06
 0.77320000E+02 -0.38986E+06
 0.77369995E+02 -0.39871E+06
 0.77419998E+02 -0.36516E+06
 0.77470001E+02 -0.26885E+06
 0.77519997E+02 -0.12610E+06
 0.77570000E+02  0.14680E+04
 0.77619995E+02  0.56159E+05
 0.77669998E+02  0.39491E+05
 0.77720001E+02  0.15792E+05
 0.77769997E+02  0.41418E+05
 0.77820000E+02  0.12912E+06
 0.77869995E+02  0.24782E+06
 0.77919998E+02  0.33135E+06
 0.77970001E+02  0.32420E+06
 0.78019997E+02  0.20794E+06
 0.78070000E+02  0.10463E+05
 0.78119995E+02 -0.20454E+06
 0.78169998E+02 -0.36530E+06
 0.78220001E+02 -0.43476E+06
 0.78269997E+02 -0.44888E+06
 0.78320000E+02 -0.45487E+06
 0.78369995E+02 -0.45154E+06
 0.78419998E+02 -0.42984E+06
 0.78470001E+02 -0.39728E+06
 0.78519997E+02 -0.38803E+06
 0.78570000E+02 -0.41914E+06
 0.78619995E+02 -0.45920E+06
 0.78669998E+02 -0.48457E+06
 0.78720001E+02 -0.47289E+06
 0.78769997E+02 -0.42433E+06
 0.78820000E+02 -0.38908E+06
 0.78869995E+02 -0.38662E+06
 0.78919998E+02 -0.36128E+06
 0.78970001E+02 -0.27486E+06
 0.79019997E+02 -0.15880E+06
 0.79070000E+02 -0.47700E+05
 0.79119995E+02  0.54313E+05
 0.79169998E+02  0.14735E+06
 0.79220001E+02  0.20581E+06
 0.79269997E+02  0.25852E+06
 0.79320000E+02  0.36118E+06
 0.79369995E+02  0.51090E+06
 0.79419998E+02  0.67824E+06
 0.79470001E+02  0.80561E+06
 0.79519997E+02  0.89115E+06
 0.79570000E+02  0.96010E+06
 0.79619995E+02  0.10067E+07
 0.79669998E+02  0.10344E+07
 0.79720001E+02  0.10191E+07
 0.79769997E+02  0.97032E+06
 0.79820000E+02  0.92144E+06
 0.79869995E+02  0.88526E+06
 0.79919998E+02  0.87341E+06
 0.79970001E+02  0.85738E+06
 0.80019997E+02  0.81045E+06
 0.80070000E+02  0.74413E+06
 0.80119995E+02  0.68696E+06
 0.80169998E+02  0.65090E+06
 0.80220001E+02  0.62708E+06
 0.80269997E+02  0.61600E+06
 0.80320000E+02  0.61318E+06
 0.80369995E+02  0.59935E+06
 0.80419998E+02  0.55539E+06
 0.80470001E+02  0.50434E+06
 0.80519997E+02  0.48130E+06
 0.80570000E+02  0.47640E+06
 0.80619995E+02  0.45590E+06
 0.80669998E+02  0.38574E+06
 0.80720001E+02  0.28823E+06
 0.80769997E+02  0.21564E+06
 0.80820000E+02  0.17788E+06
 0.80869995E+02  0.16792E+06
 0.80919998E+02  0.15583E+06
 0.80970001E+02  0.12797E+06
 0.81019997E+02  0.11319E+06
 0.81070000E+02  0.11884E+06
 0.81119995E+02  0.13659E+06
 0.81169998E+02  0.15608E+06
 0.81220001E+02  0.17052E+06
 0.81269997E+02  0.16829E+06
 0.81320000E+02  0.12815E+06
 0.81369995E+02  0.59420E+05
 0.81419998E+02 -0.20648E+05
 0.81470001E+02 -0.11814E+06
 0.81519997E+02 -0.24416E+06
 0.81570000E+02 -0.37501E+06
 0.81619995E+02 -0.46858E+06
 0.81669998E+02 -0.51734E+06
 0.81720001E+02 -0.52358E+06
 0.81769997E+02 -0.50169E+06
 0.81820000E+02 -0.47226E+06
 0.81869995E+02 -0.43358E+06
 0.81919998E+02 -0.36912E+06
 0.81970001E+02 -0.26417E+06
 0.82019997E+02 -0.15856E+06
 0.82070000E+02 -0.81750E+05
 0.82119995E+02 -0.11176E+05
 0.82169998E+02  0.68275E+05
 0.82220001E+02  0.16516E+06
 0.82269997E+02  0.26088E+06
 0.82320000E+02  0.32848E+06
 0.82369995E+02  0.36073E+06
 0.82419998E+02  0.35878E+06
 0.82470001E+02  0.30675E+06
 0.82519997E+02  0.19622E+06
 0.82570000E+02  0.73278E+05
 0.82619995E+02 -0.18532E+05
 0.82669998E+02 -0.70142E+05
 0.82720001E+02 -0.10131E+06
 0.82769997E+02 -0.15240E+06
 0.82820000E+02 -0.24994E+06
 0.82869995E+02 -0.38409E+06
 0.82919998E+02 -0.51395E+06
 0.82970001E+02 -0.60924E+06
 0.83019997E+02 -0.66859E+06
 0.83070000E+02 -0.68474E+06
 0.83119995E+02 -0.66934E+06
 0.83169998E+02 -0.66457E+06
 0.83220001E+02 -0.68965E+06
 0.83269997E+02 -0.74378E+06
 0.83320000E+02 -0.81773E+06
 0.83369995E+02 -0.89964E+06
 0.83419998E+02 -0.96340E+06
 0.83470001E+02 -0.98975E+06
 0.83519997E+02 -0.99507E+06
 0.83570000E+02 -0.99412E+06
 0.83619995E+02 -0.98110E+06
 0.83669998E+02 -0.94928E+06
 0.83720001E+02 -0.91422E+06
 0.83769997E+02 -0.88288E+06
 0.83820000E+02 -0.83973E+06
 0.83869995E+02 -0.77736E+06
 0.83919998E+02 -0.69534E+06
 0.83970001E+02 -0.58493E+06
 0.84019997E+02 -0.44268E+06
 0.84070000E+02 -0.29178E+06
 0.84119995E+02 -0.17117E+06
 0.84169998E+02 -0.10533E+06
 0.84220001E+02 -0.78188E+05
 0.84269997E+02 -0.52961E+05
 0.84320000E+02 -0.50270E+04
 0.84369995E+02  0.67651E+05
 0.84419998E+02  0.15524E+06
 0.84470001E+02  0.23400E+06
 0.84519997E+02  0.25373E+06
 0.84570000E+02  0.20184E+06
 0.84619995E+02  0.12934E+06
 0.84669998E+02  0.92441E+05
 0.84720001E+02  0.10204E+06
 0.84769997E+02  0.13015E+06
 0.84820000E+02  0.16605E+06
 0.84869995E+02  0.20713E+06
 0.84919998E+02  0.25377E+06
 0.84970001E+02  0.30997E+06
 0.85019997E+02  0.37436E+06
 0.85070000E+02  0.45535E+06
 0.85119995E+02  0.54206E+06
 0.85169998E+02  0.62718E+06
 0.85220001E+02  0.71116E+06
 0.85269997E+02  0.77882E+06
 0.85320000E+02  0.81698E+06
 0.85369995E+02  0.81592E+06
 0.85419998E+02  0.79024E+06
 0.85470001E+02  0.75220E+06
 0.85519997E+02  0.68547E+06
 0.85570000E+02  0.59206E+06
 0.85619995E+02  0.48318E+06
 0.85669998E+02  0.36781E+06
 0.85720001E+02  0.26615E+06
 0.85769997E+02  0.17328E+06
 0.85820000E+02  0.80556E+05
 0.85869995E+02 -0.11991E+05
 0.85919998E+02 -0.10340E+06
 0.85970001E+02 -0.18783E+06
 0.86019997E+02 -0.27298E+06
 0.86070000E+02 -0.35532E+06
 0.86119995E+02 -0.42677E+06
 0.86169998E+02 -0.48778E+06
 0.86220001E+02 -0.54098E+06
 0.86269997E+02 -0.58073E+06
 0.86320000E+02 -0.59257E+06
 0.86369995E+02 -0.56607E+06
 0.86419998E+02 -0.49651E+06
 0.86470001E+02 -0.40959E+06
 0.86519997E+02 -0.33334E+06
 0.86570000E+02 -0.27609E+06
 0.86619995E+02 -0.23822E+06
 0.86669998E+02 -0.20075E+06
 0.86720001E+02 -0.16304E+06
 0.86769997E+02 -0.14443E+06
 0.86820000E+02 -0.13108E+06
 0.86869995E+02 -0.99225E+05
 0.86919998E+02 -0.51042E+05
 0.86970001E+02  0.59000E+02
 0.87019997E+02  0.27191E+05
 0.87070000E+02  0.14854E+05
 0.87119995E+02 -0.10658E+05
 0.87169998E+02 -0.13562E+05
 0.87220001E+02  0.24604E+05
 0.87269997E+02  0.86439E+05
 0.87320000E+02  0.14437E+06
 0.87369995E+02  0.20160E+06
 0.87419998E+02  0.25215E+06
 0.87470001E+02  0.26377E+06
 0.87519997E+02  0.22419E+06
 0.87570000E+02  0.15214E+06
 0.87619995E+02  0.68118E+05
 0.87669998E+02 -0.12770E+04
 0.87720001E+02 -0.25361E+05
 0.87769997E+02 -0.23000E+05
 0.87820000E+02 -0.31377E+05
 0.87869995E+02 -0.51559E+05
 0.87919998E+02 -0.81618E+05
 0.87970001E+02 -0.11462E+06
 0.88019997E+02 -0.13640E+06
 0.88070000E+02 -0.13711E+06
 0.88119995E+02 -0.10485E+06
 0.88169998E+02 -0.54588E+05
 0.88220001E+02 -0.28470E+04
 0.88269997E+02  0.63718E+05
 0.88320000E+02  0.13878E+06
 0.88369995E+02  0.20110E+06
 0.88419998E+02  0.23350E+06
 0.88470001E+02  0.23220E+06
 0.88519997E+02  0.23578E+06
 0.88570000E+02  0.28817E+06
 0.88619995E+02  0.39678E+06
 0.88669998E+02  0.51345E+06
 0.88720001E+02  0.57562E+06
 0.88769997E+02  0.57494E+06
 0.88820000E+02  0.54693E+06
 0.88869995E+02  0.53331E+06
 0.88919998E+02  0.54633E+06
 0.88970001E+02  0.56383E+06
 0.89019997E+02  0.57233E+06
 0.89070000E+02  0.59084E+06
 0.89119995E+02  0.63682E+06
 0.89169998E+02  0.69354E+06
 0.89220001E+02  0.72174E+06
 0.89269997E+02  0.69322E+06
 0.89320000E+02  0.63457E+06
 0.89369995E+02  0.59567E+06
 0.89419998E+02  0.58656E+06
 0.89470001E+02  0.58586E+06
 0.89519997E+02  0.56400E+06
 0.89570000E+02  0.50892E+06
 0.89619995E+02  0.42985E+06
 0.89669998E+02  0.34504E+06
 0.89720001E+02  0.27119E+06
 0.89769997E+02  0.22296E+06
 0.89820000E+02  0.19927E+06
 0.89869995E+02  0.18124E+06
 0.89919998E+02  0.14914E+06
 0.89970001E+02  0.78097E+05
 0.90019997E+02 -0.17160E+05
 0.90070000E+02 -0.10195E+06
 0.90119995E+02 -0.16666E+06
 0.90169998E+02 -0.21357E+06
 0.90220001E+02 -0.25853E+06
 0.90269997E+02 -0.30871E+06
 0.90320000E+02 -0.35968E+06
 0.90369995E+02 -0.40169E+06
 0.90419998E+02 -0.41709E+06
 0.90470001E+02 -0.40647E+06
 0.90519997E+02 -0.39972E+06
 0.90570000E+02 -0.42764E+06
 0.90619995E+02 -0.49023E+06
 0.90669998E+02 -0.55716E+06
 0.90720001E+02 -0.60842E+06
 0.90769997E+02 -0.65345E+06
 0.90820000E+02 -0.70349E+06
 0.90869995E+02 -0.76980E+06
 0.90919998E+02 -0.83579E+06
 0.90970001E+02 -0.86154E+06
 0.91019997E+02 -0.84345E+06
 0.91070000E+02 -0.79195E+06
 0.91119995E+02 -0.72619E+06
 0.91169998E+02 -0.65838E+06
 0.91220001E+02 -0.58464E+06
 0.91269997E+02 -0.51091E+06
 0.91320000E+02 -0.42525E+06
 0.91369995E+02 -0.32633E+06
 0.91419998E+02 -0.22707E+06
 0.91470001E+02 -0.14341E+06
 0.91519997E+02 -0.93889E+05
 0.91570000E+02 -0.62052E+05
 0.91619995E+02 -0.14750E+05
 0.91669998E+02  0.74231E+05
 0.91720001E+02  0.19552E+06
 0.91769997E+02  0.31000E+06
 0.91820000E+02  0.38796E+06
 0.91869995E+02  0.42732E+06
 0.91919998E+02  0.45193E+06
 0.91970001E+02  0.47264E+06
 0.92019997E+02  0.47573E+06
 0.92070000E+02  0.46124E+06
 0.92119995E+02  0.45583E+06
 0.92169998E+02  0.46349E+06
 0.92220001E+02  0.47327E+06
 0.92269997E+02  0.48341E+06
 0.92320000E+02  0.48370E+06
 0.92369995E+02  0.46988E+06
 0.92419998E+02  0.44708E+06
 0.92470001E+02  0.42858E+06
 0.92519997E+02  0.42895E+06
 0.92570000E+02  0.45094E+06
 0.92619995E+02  0.48792E+06
 0.92669998E+02  0.51755E+06
 0.92720001E+02  0.51015E+06
 0.92769997E+02  0.45394E+06
 0.92820000E+02  0.36724E+06
 0.92869995E+02  0.27604E+06
 0.92919998E+02  0.19655E+06
 0.92970001E+02  0.12839E+06
 0.93019997E+02  0.58435E+05
 0.93070000E+02 -0.97430E+04
 0.93119995E+02 -0.69241E+05
 0.93169998E+02 -0.12421E+06
 0.93220001E+02 -0.18465E+06
 0.93269997E+02 -0.25555E+06
 0.93320000E+02 -0.33417E+06
 0.93369995E+02 -0.41308E+06
 0.93419998E+02 -0.47539E+06
 0.93470001E+02 -0.51881E+06
 0.93519997E+02 -0.55546E+06
 0.93570000E+02 -0.58100E+06
 0.93619995E+02 -0.57928E+06
 0.93669998E+02 -0.56587E+06
 0.93720001E+02 -0.55421E+06
 0.93769997E+02 -0.53089E+06
 0.93820000E+02 -0.50996E+06
 0.93869995E+02 -0.49596E+06
 0.93919998E+02 -0.47283E+06
 0.93970001E+02 -0.43742E+06
 0.94019997E+02 -0.38886E+06
 0.94070000E+02 -0.33988E+06
 0.94119995E+02 -0.29482E+06
 0.94169998E+02 -0.24104E+06
 0.94220001E+02 -0.17487E+06
 0.94269997E+02 -0.10692E+06
 0.94320000E+02 -0.60705E+05
 0.94369995E+02 -0.45264E+05
 0.94419998E+02 -0.39958E+05
 0.94470001E+02 -0.27027E+05
 0.94519997E+02 -0.19179E+05
 0.94570000E+02 -0.27834E+05
 0.94619995E+02 -0.37918E+05
 0.94669998E+02 -0.40713E+05
 0.94720001E+02 -0.30851E+05
 0.94769997E+02 -0.17470E+04
 0.94820000E+02  0.31547E+05
 0.94869995E+02  0.50133E+05
 0.94919998E+02  0.41330E+05
 0.94970001E+02  0.10709E+05
 0.95019997E+02 -0.24780E+05
 0.95070000E+02 -0.55287E+05
 0.95119995E+02 -0.69278E+05
 0.95169998E+02 -0.63895E+05
 0.95220001E+02 -0.46194E+05
 0.95269997E+02 -0.31453E+05
 0.95320000E+02 -0.24578E+05
 0.95369995E+02 -0.13333E+05
 0.95419998E+02  0.36330E+04
 0.95470001E+02  0.18652E+05
 0.95519997E+02  0.26433E+05
 0.95570000E+02  0.17640E+05
 0.95619995E+02 -0.14321E+05
 0.95669998E+02 -0.61719E+05
 0.95720001E+02 -0.11820E+06
 0.95769997E+02 -0.16945E+06
 0.95820000E+02 -0.19839E+06
 0.95869995E+02 -0.20842E+06
 0.95919998E+02 -0.21001E+06
 0.95970001E+02 -0.21868E+06
 0.96019997E+02 -0.24480E+06
 0.96070000E+02 -0.28117E+06
 0.96119995E+02 -0.30830E+06
 0.96169998E+02 -0.30901E+06
 0.96220001E+02 -0.27643E+06
 0.96269997E+02 -0.20583E+06
 0.96320000E+02 -0.11050E+06
 0.96369995E+02 -0.15547E+05
 0.96419998E+02  0.73509E+05
 0.96470001E+02  0.15513E+06
 0.96519997E+02  0.22426E+06
 0.96570000E+02  0.29228E+06
 0.96619995E+02  0.37157E+06
 0.96669998E+02  0.45504E+06
 0.96720001E+02  0.52783E+06
 0.96769997E+02  0.57283E+06
 0.96820000E+02  0.57394E+06
 0.96869995E+02  0.53638E+06
 0.96919998E+02  0.48453E+06
 0.96970001E+02  0.44363E+06
 0.97019997E+02  0.42003E+06
 0.97070000E+02  0.40940E+06
 0.97119995E+02  0.41548E+06
 0.97169998E+02  0.42687E+06
 0.97220001E+02  0.42920E+06
 0.97269997E+02  0.43263E+06
 0.97320000E+02  0.44331E+06
 0.97369995E+02  0.44934E+06
 0.97419998E+02  0.43544E+06
 0.97470001E+02  0.39968E+06
 0.97519997E+02  0.35572E+06
 0.97570000E+02  0.30675E+06
 0.97619995E+02  0.24171E+06
 0.97669998E+02  0.15138E+06
 0.97720001E+02  0.39902E+05
 0.97769997E+02 -0.71207E+05
 0.97820000E+02 -0.16212E+06
 0.97869995E+02 -0.22701E+06
 0.97919998E+02 -0.26768E+06
 0.97970001E+02 -0.28896E+06
 0.98019997E+02 -0.29455E+06
 0.98070000E+02 -0.28146E+06
 0.98119995E+02 -0.25541E+06
 0.98169998E+02 -0.23898E+06
 0.98220001E+02 -0.24351E+06
 0.98269997E+02 -0.26654E+06
 0.98320000E+02 -0.30388E+06
 0.98369995E+02 -0.34020E+06
 0.98419998E+02 -0.36170E+06
 0.98470001E+02 -0.36645E+06
 0.98519997E+02 -0.34862E+06
 0.98570000E+02 -0.30740E+06
 0.98619995E+02 -0.25523E+06
 0.98669998E+02 -0.20272E+06
 0.98720001E+02 -0.15540E+06
 0.98769997E+02 -0.11209E+06
 0.98820000E+02 -0.80298E+05
 0.98869995E+02 -0.73470E+05
 0.98919998E+02 -0.84760E+05
 0.98970001E+02 -0.10214E+06
 0.99019997E+02 -0.11385E+06
 0.99070000E+02 -0.10572E+06
 0.99119995E+02 -0.73858E+05
 0.99169998E+02 -0.34796E+05
 0.99220001E+02 -0.34530E+04
 0.99269997E+02  0.21945E+05
 0.99320000E+02  0.36445E+05
 0.99369995E+02  0.44525E+05
 0.99419998E+02  0.43785E+05
 0.99470001E+02  0.22488E+05
 0.99519997E+02 -0.35800E+04
 0.99570000E+02 -0.15318E+05
 0.99619995E+02 -0.11720E+04
 0.99669998E+02  0.31190E+05
 0.99720001E+02  0.54334E+05
 0.99769997E+02  0.60345E+05
 0.99820000E+02  0.72661E+05
 0.99869995E+02  0.11140E+06
 0.99919998E+02  0.16402E+06
 0.99970001E+02  0.21136E+06
 0.10002000E+03  0.24773E+06
 0.10007000E+03  0.28926E+06
 0.10012000E+03  0.35834E+06
 0.10017000E+03  0.44413E+06
 0.10022000E+03  0.51178E+06
 0.10027000E+03  0.53339E+06
 0.10032000E+03  0.50818E+06
 0.10037000E+03  0.45650E+06
 0.10042000E+03  0.40251E+06
 0.10047000E+03  0.35657E+06
 0.10052000E+03  0.31285E+06
 0.10057000E+03  0.27171E+06
 0.10062000E+03  0.23824E+06
 0.10067000E+03  0.21275E+06
 0.10072000E+03  0.18672E+06
 0.10077000E+03  0.15206E+06
 0.10082000E+03  0.11747E+06
 0.10087000E+03  0.92796E+05
 0.10092000E+03  0.81666E+05
 0.10097000E+03  0.87656E+05
 0.10102000E+03  0.10273E+06
 0.10107000E+03  0.11523E+06
 0.10112000E+03  0.12532E+06
 0.10117000E+03  0.13189E+06
 0.10122000E+03  0.13391E+06
 0.10127000E+03  0.13518E+06
 0.10132000E+03  0.13614E+06
 0.10137000E+03  0.14440E+06
 0.10142000E+03  0.16107E+06
 0.10147000E+03  0.17109E+06
 0.10152000E+03  0.15579E+06
 0.10157000E+03  0.10133E+06
 0.10162000E+03  0.23410E+05
 0.10167000E+03 -0.42262E+05
 0.10172000E+03 -0.82364E+05
 0.10177000E+03 -0.11229E+06
 0.10182000E+03 -0.15215E+06
 0.10187000E+03 -0.20716E+06
 0.10192000E+03 -0.26234E+06
 0.10197000E+03 -0.30342E+06
 0.10202000E+03 -0.33160E+06
 0.10207000E+03 -0.35451E+06
 0.10212000E+03 -0.37151E+06
 0.10217000E+03 -0.37915E+06
 0.10222000E+03 -0.38543E+06
 0.10227000E+03 -0.39993E+06
 0.10232000E+03 -0.41384E+06
 0.10237000E+03 -0.40442E+06
 0.10242000E+03 -0.36824E+06
 0.10247000E+03 -0.32274E+06
 0.10252000E+03 -0.28918E+06
 0.10257000E+03 -0.27204E+06
 0.10262000E+03 -0.26360E+06
 0.10267000E+03 -0.26574E+06
 0.10272000E+03 -0.27713E+06
 0.10277000E+03 -0.29454E+06
 0.10282000E+03 -0.31279E+06
 0.10287000E+03 -0.32581E+06
 0.10292000E+03 -0.32862E+06
 0.10297000E+03 -0.32615E+06
 0.10302000E+03 -0.33353E+06
 0.10307000E+03 -0.34661E+06
 0.10312000E+03 -0.35920E+06
 0.10317000E+03 -0.36327E+06
 0.10322000E+03 -0.35196E+06
 0.10327000E+03 -0.32538E+06
 0.10332000E+03 -0.28033E+06
 0.10337000E+03 -0.23016E+06
 0.10342000E+03 -0.18334E+06
 0.10347000E+03 -0.14217E+06
 0.10352000E+03 -0.10294E+06
 0.10357000E+03 -0.73892E+05
 0.10362000E+03 -0.70934E+05
 0.10367000E+03 -0.73036E+05
 0.10372000E+03 -0.54643E+05
 0.10377000E+03 -0.11298E+05
 0.10382000E+03  0.24049E+05
 0.10387000E+03  0.21664E+05
 0.10392000E+03 -0.62510E+04
 0.10397000E+03 -0.45634E+05
 0.10402000E+03 -0.81831E+05
 0.10407000E+03 -0.10220E+06
 0.10412000E+03 -0.10807E+06
 0.10417000E+03 -0.10471E+06
 0.10422000E+03 -0.98701E+05
 0.10427000E+03 -0.95038E+05
 0.10432000E+03 -0.10246E+06
 0.10437000E+03 -0.11515E+06
 0.10442000E+03 -0.10945E+06
 0.10447000E+03 -0.79495E+05
 0.10452000E+03 -0.36498E+05
 0.10457000E+03  0.30900E+03
 0.10462000E+03  0.19326E+05
 0.10467000E+03  0.31296E+05
 0.10472000E+03  0.51129E+05
 0.10477000E+03  0.76846E+05
 0.10482000E+03  0.10347E+06
 0.10487000E+03  0.13393E+06
 0.10492000E+03  0.16898E+06
 0.10497000E+03  0.20593E+06
 0.10502000E+03  0.23651E+06
 0.10507000E+03  0.25698E+06
 0.10512000E+03  0.27114E+06
 0.10517000E+03  0.28697E+06
 0.10522000E+03  0.30603E+06
 0.10527000E+03  0.32266E+06
 0.10532000E+03  0.34132E+06
 0.10537000E+03  0.36056E+06
 0.10542000E+03  0.37490E+06
 0.10547000E+03  0.38886E+06
 0.10552000E+03  0.40000E+06
 0.10557000E+03  0.39730E+06
 0.10562000E+03  0.38221E+06
 0.10567000E+03  0.37821E+06
 0.10572000E+03  0.40094E+06
 0.10577000E+03  0.43100E+06
 0.10582000E+03  0.43140E+06
 0.10587000E+03  0.38806E+06
 0.10592000E+03  0.31656E+06
 0.10597000E+03  0.23759E+06
 0.10602000E+03  0.17008E+06
 0.10607000E+03  0.11515E+06
 0.10612000E+03  0.58304E+05
 0.10617000E+03 -0.67580E+04
 0.10622000E+03 -0.73070E+05
 0.10627000E+03 -0.13586E+06
 0.10632000E+03 -0.19789E+06
 0.10637000E+03 -0.25960E+06
 0.10642000E+03 -0.32682E+06
 0.10647000E+03 -0.40322E+06
 0.10652000E+03 -0.48826E+06
 0.10657000E+03 -0.57516E+06
 0.10662000E+03 -0.65240E+06
 0.10667000E+03 -0.71444E+06
 0.10672000E+03 -0.75291E+06
 0.10677000E+03 -0.76624E+06
 0.10682000E+03 -0.76187E+06
 0.10687000E+03 -0.74890E+06
 0.10692000E+03 -0.73244E+06
 0.10697000E+03 -0.70815E+06
 0.10702000E+03 -0.67573E+06
 0.10707000E+03 -0.63199E+06
 0.10712000E+03 -0.57769E+06
 0.10717000E+03 -0.52815E+06
 0.10722000E+03 -0.47951E+06
 0.10727000E+03 -0.41378E+06
 0.10732000E+03 -0.32491E+06
 0.10737000E+03 -0.21760E+06
 0.10742000E+03 -0.10628E+06
 0.10747000E+03 -0.99950E+04
 0.10752000E+03  0.63212E+05
 0.10757000E+03  0.12370E+06
 0.10762000E+03  0.18435E+06
 0.10767000E+03  0.25319E+06
 0.10772000E+03  0.33416E+06
 0.10777000E+03  0.42720E+06
 0.10782000E+03  0.52656E+06
 0.10787000E+03  0.61789E+06
 0.10792000E+03  0.69043E+06
 0.10797000E+03  0.74201E+06
 0.10802000E+03  0.77848E+06
 0.10807000E+03  0.81828E+06
 0.10812000E+03  0.87390E+06
 0.10817000E+03  0.92565E+06
 0.10822000E+03  0.94136E+06
 0.10827000E+03  0.90616E+06
 0.10832000E+03  0.82389E+06
 0.10837000E+03  0.71796E+06
 0.10842000E+03  0.62456E+06
 0.10847000E+03  0.56601E+06
 0.10852000E+03  0.53364E+06
 0.10857000E+03  0.49856E+06
 0.10862000E+03  0.44005E+06
 0.10867000E+03  0.36128E+06
 0.10872000E+03  0.27388E+06
 0.10877000E+03  0.18866E+06
 0.10882000E+03  0.11374E+06
 0.10887000E+03  0.46358E+05
 0.10892000E+03 -0.19832E+05
 0.10897000E+03 -0.91651E+05
 0.10902000E+03 -0.17580E+06
 0.10907000E+03 -0.26079E+06
 0.10912000E+03 -0.32606E+06
 0.10917000E+03 -0.35791E+06
 0.10922000E+03 -0.36097E+06
 0.10927000E+03 -0.36136E+06
 0.10932000E+03 -0.37883E+06
 0.10937000E+03 -0.41988E+06
 0.10942000E+03 -0.47678E+06
 0.10947000E+03 -0.52580E+06
 0.10952000E+03 -0.54676E+06
 0.10957000E+03 -0.53183E+06
 0.10962000E+03 -0.48395E+06
 0.10967000E+03 -0.42398E+06
 0.10972000E+03 -0.37746E+06
 0.10977000E+03 -0.34883E+06
 0.10982000E+03 -0.31851E+06
 0.10987000E+03 -0.26612E+06
 0.10992000E+03 -0.19459E+06
 0.10997000E+03 -0.11734E+06
 0.11002000E+03 -0.42677E+05
 0.11007000E+03  0.24233E+05
 0.11012000E+03  0.85001E+05
 0.11017000E+03  0.14470E+06
 0.11022000E+03  0.19675E+06
 0.11027000E+03  0.23313E+06
 0.11032000E+03  0.26011E+06
 0.11037000E+03  0.28582E+06
 0.11042000E+03  0.31383E+06
 0.11047000E+03  0.33901E+06
 0.11052000E+03  0.35548E+06
 0.11057000E+03  0.36903E+06
 0.11062000E+03  0.38047E+06
 0.11067000E+03  0.38200E+06
 0.11072000E+03  0.36737E+06
 0.11077000E+03  0.33732E+06
 0.11082000E+03  0.30187E+06
 0.11087000E+03  0.26720E+06
 0.11092000E+03  0.23065E+06
 0.11097000E+03  0.18576E+06
 0.11102000E+03  0.12574E+06
 0.11107000E+03  0.55998E+05
 0.11112000E+03 -0.10482E+05
 0.11117000E+03 -0.65013E+05
 0.11122000E+03 -0.10406E+06
 0.11127000E+03 -0.13166E+06
 0.11132000E+03 -0.14562E+06
 0.11137000E+03 -0.14102E+06
 0.11142000E+03 -0.12515E+06
 0.11147000E+03 -0.10649E+06
 0.11152000E+03 -0.89305E+05
 0.11157000E+03 -0.70146E+05
 0.11162000E+03 -0.45320E+05
 0.11167000E+03 -0.23547E+05
 0.11172000E+03 -0.87340E+04
 0.11177000E+03  0.84430E+04
 0.11182000E+03  0.35624E+05
 0.11187000E+03  0.75898E+05
 0.11192000E+03  0.12974E+06
 0.11197000E+03  0.19282E+06
 0.11202000E+03  0.25768E+06
 0.11207000E+03  0.31432E+06
 0.11212000E+03  0.35854E+06
 0.11217000E+03  0.39559E+06
 0.11222000E+03  0.42517E+06
 0.11227000E+03  0.44025E+06
 0.11232000E+03  0.44394E+06
 0.11237000E+03  0.44321E+06
 0.11242000E+03  0.43231E+06
 0.11247000E+03  0.40232E+06
 0.11252000E+03  0.34858E+06
 0.11257000E+03  0.27088E+06
 0.11262000E+03  0.17978E+06
 0.11267000E+03  0.90841E+05
 0.11272000E+03  0.10547E+05
 0.11277000E+03 -0.62251E+05
 0.11282000E+03 -0.13071E+06
 0.11287000E+03 -0.20087E+06
 0.11292000E+03 -0.26702E+06
 0.11297000E+03 -0.31794E+06
 0.11302000E+03 -0.35191E+06
 0.11307000E+03 -0.37183E+06
 0.11312000E+03 -0.38582E+06
 0.11317000E+03 -0.40196E+06
 0.11322000E+03 -0.42593E+06
 0.11327000E+03 -0.44630E+06
 0.11332000E+03 -0.44516E+06
 0.11337000E+03 -0.42904E+06
 0.11342000E+03 -0.41005E+06
 0.11347000E+03 -0.39566E+06
 0.11352000E+03 -0.38912E+06
 0.11357000E+03 -0.38411E+06
 0.11362000E+03 -0.36787E+06
 0.11367000E+03 -0.33492E+06
 0.11372000E+03 -0.29451E+06
 0.11377000E+03 -0.25680E+06
 0.11382000E+03 -0.22579E+06
 0.11387000E+03 -0.20082E+06
 0.11392000E+03 -0.18395E+06
 0.11397000E+03 -0.16892E+06
 0.11402000E+03 -0.14641E+06
 0.11407000E+03 -0.12231E+06
 0.11412000E+03 -0.10788E+06
 0.11417000E+03 -0.10773E+06
 0.11422000E+03 -0.11209E+06
 0.11427000E+03 -0.11019E+06
 0.11432000E+03 -0.98740E+05
 0.11437000E+03 -0.80685E+05
 0.11442000E+03 -0.67008E+05
 0.11447000E+03 -0.65412E+05
 0.11452000E+03 -0.74248E+05
 0.11457000E+03 -0.87143E+05
 0.11462000E+03 -0.10303E+06
 0.11467000E+03 -0.13600E+06
 0.11472000E+03 -0.19778E+06
 0.11477000E+03 -0.27622E+06
 0.11482000E+03 -0.35142E+06
 0.11487000E+03 -0.40516E+06
 0.11492000E+03 -0.42647E+06
 0.11497000E+03 -0.42419E+06
 0.11502000E+03 -0.40889E+06
 0.11507000E+03 -0.38486E+06
 0.11512000E+03 -0.35534E+06
 0.11517000E+03 -0.32244E+06
 0.11522000E+03 -0.28702E+06
 0.11527000E+03 -0.24113E+06
 0.11532000E+03 -0.17359E+06
 0.11537000E+03 -0.80229E+05
 0.11542000E+03  0.25753E+05
 0.11547000E+03  0.11897E+06
 0.11552000E+03  0.18528E+06
 0.11557000E+03  0.22873E+06
 0.11562000E+03  0.26314E+06
 0.11567000E+03  0.29816E+06
 0.11572000E+03  0.33388E+06
 0.11577000E+03  0.36649E+06
 0.11582000E+03  0.38845E+06
 0.11587000E+03  0.39201E+06
 0.11592000E+03  0.38101E+06
 0.11597000E+03  0.37171E+06
 0.11602000E+03  0.37210E+06
 0.11607000E+03  0.37492E+06
 0.11612000E+03  0.37384E+06
 0.11617000E+03  0.36275E+06
 0.11622000E+03  0.34017E+06
 0.11627000E+03  0.31417E+06
 0.11632000E+03  0.28921E+06
 0.11637000E+03  0.26740E+06
 0.11642000E+03  0.25120E+06
 0.11647000E+03  0.23907E+06
 0.11652000E+03  0.22974E+06
 0.11657000E+03  0.22072E+06
 0.11662000E+03  0.20584E+06
 0.11667000E+03  0.18235E+06
 0.11672000E+03  0.15368E+06
 0.11677000E+03  0.12470E+06
 0.11682000E+03  0.96943E+05
 0.11687000E+03  0.69686E+05
 0.11692000E+03  0.43629E+05
 0.11697000E+03  0.21309E+05
 0.11702000E+03 -0.15610E+04
 0.11707000E+03 -0.29088E+05
 0.11712000E+03 -0.54975E+05
 0.11717000E+03 -0.70426E+05
 0.11722000E+03 -0.69866E+05
 0.11727000E+03 -0.54583E+05
 0.11732000E+03 -0.28118E+05
 0.11737000E+03  0.75600E+03
 0.11742000E+03  0.20391E+05
 0.11747000E+03  0.27570E+05
 0.11752000E+03  0.25145E+05
 0.11757000E+03  0.18738E+05
 0.11762000E+03  0.16142E+05
 0.11767000E+03  0.21293E+05
 0.11772000E+03  0.32053E+05
 0.11777000E+03  0.50305E+05
 0.11782000E+03  0.81437E+05
 0.11787000E+03  0.12512E+06
 0.11792000E+03  0.16881E+06
 0.11797000E+03  0.19986E+06
 0.11802000E+03  0.21449E+06
 0.11807000E+03  0.21514E+06
 0.11812000E+03  0.21092E+06
 0.11817000E+03  0.20880E+06
 0.11822000E+03  0.21357E+06
 0.11827000E+03  0.22267E+06
 0.11832000E+03  0.22935E+06
 0.11837000E+03  0.22916E+06
 0.11842000E+03  0.21384E+06
 0.11847000E+03  0.18618E+06
 0.11852000E+03  0.15711E+06
 0.11857000E+03  0.12537E+06
 0.11862000E+03  0.87286E+05
 0.11867000E+03  0.50994E+05
 0.11872000E+03  0.26723E+05
 0.11877000E+03  0.14848E+05
 0.11882000E+03  0.97310E+04
 0.11887000E+03  0.11058E+05
 0.11892000E+03  0.22508E+05
 0.11897000E+03  0.37167E+05
 0.11902000E+03  0.43768E+05
 0.11907000E+03  0.33484E+05
 0.11912000E+03 -0.37460E+04
 0.11917000E+03 -0.64070E+05
 0.11922000E+03 -0.12991E+06
 0.11927000E+03 -0.18659E+06
 0.11932000E+03 -0.22767E+06
 0.11937000E+03 -0.25485E+06
 0.11942000E+03 -0.27395E+06
 0.11947000E+03 -0.29137E+06
 0.11952000E+03 -0.31118E+06
 0.11957000E+03 -0.33584E+06
 0.11962000E+03 -0.36151E+06
 0.11967000E+03 -0.37684E+06
 0.11972000E+03 -0.37881E+06
 0.11977000E+03 -0.37548E+06
 0.11982000E+03 -0.37065E+06
 0.11987000E+03 -0.35989E+06
 0.11992000E+03 -0.34126E+06
 0.11997000E+03 -0.31300E+06
 0.12002000E+03 -0.27038E+06
 0.12007000E+03 -0.21681E+06
 0.12012000E+03 -0.16232E+06
 0.12017000E+03 -0.11264E+06
 0.12022000E+03 -0.68130E+05
 0.12027000E+03 -0.31730E+05
 0.12032000E+03 -0.37140E+04
 0.12037000E+03  0.24509E+05
 0.12042000E+03  0.59169E+05
 0.12047000E+03  0.97579E+05
 0.12052000E+03  0.13477E+06
 0.12057000E+03  0.17060E+06
 0.12062000E+03  0.20167E+06
 0.12067000E+03  0.21846E+06
 0.12072000E+03  0.21504E+06
 0.12077000E+03  0.19632E+06
 0.12082000E+03  0.17841E+06
 0.12087000E+03  0.17374E+06
 0.12092000E+03  0.18036E+06
 0.12097000E+03  0.19040E+06
 0.12102000E+03  0.20118E+06
 0.12107000E+03  0.21475E+06
 0.12112000E+03  0.22915E+06
 0.12117000E+03  0.23758E+06
 0.12122000E+03  0.23803E+06
 0.12127000E+03  0.23442E+06
 0.12132000E+03  0.22853E+06
 0.12137000E+03  0.22332E+06
 0.12142000E+03  0.22217E+06
 0.12147000E+03  0.22427E+06
 0.12152000E+03  0.23164E+06
 0.12157000E+03  0.24651E+06
 0.12162000E+03  0.26350E+06
 0.12167000E+03  0.27018E+06
 0.12172000E+03  0.26154E+06
 0.12177000E+03  0.24930E+06
 0.12182000E+03  0.24352E+06
 0.12187000E+03  0.23837E+06
 0.12192000E+03  0.22094E+06
 0.12197000E+03  0.19217E+06
 0.12202000E+03  0.16620E+06
 0.12207000E+03  0.14922E+06
 0.12212000E+03  0.13800E+06
 0.12217000E+03  0.12526E+06
 0.12222000E+03  0.10298E+06
 0.12227000E+03  0.69889E+05
 0.12232000E+03  0.30042E+05
 0.12237000E+03 -0.10587E+05
 0.12242000E+03 -0.50022E+05
 0.12247000E+03 -0.93770E+05
 0.12252000E+03 -0.14101E+06
 0.12257000E+03 -0.18889E+06
 0.12262000E+03 -0.23651E+06
 0.12267000E+03 -0.27660E+06
 0.12272000E+03 -0.29995E+06
 0.12277000E+03 -0.30070E+06
 0.12282000E+03 -0.28913E+06
 0.12287000E+03 -0.27776E+06
 0.12292000E+03 -0.26700E+06
 0.12297000E+03 -0.25707E+06
 0.12302000E+03 -0.24767E+06
 0.12307000E+03 -0.23490E+06
 0.12312000E+03 -0.21638E+06
 0.12317000E+03 -0.19651E+06
 0.12322000E+03 -0.18040E+06
 0.12327000E+03 -0.16998E+06
 0.12332000E+03 -0.16427E+06
 0.12337000E+03 -0.16332E+06
 0.12342000E+03 -0.16479E+06
 0.12347000E+03 -0.16227E+06
 0.12352000E+03 -0.15573E+06
 0.12357000E+03 -0.14559E+06
 0.12362000E+03 -0.13555E+06
 0.12367000E+03 -0.13542E+06
 0.12372000E+03 -0.14908E+06
 0.12377000E+03 -0.17278E+06
 0.12382000E+03 -0.20045E+06
 0.12387000E+03 -0.23010E+06
 0.12392000E+03 -0.26018E+06
 0.12397000E+03 -0.28426E+06
 0.12402000E+03 -0.29660E+06
 0.12407000E+03 -0.29411E+06
 0.12412000E+03 -0.27731E+06
 0.12417000E+03 -0.24870E+06
 0.12422000E+03 -0.21182E+06
 0.12427000E+03 -0.17040E+06
 0.12432000E+03 -0.12417E+06
 0.12437000E+03 -0.80212E+05
 0.12442000E+03 -0.47947E+05
 0.12447000E+03 -0.25682E+05
 0.12452000E+03 -0.10075E+05
 0.12457000E+03 -0.31120E+04
 0.12462000E+03 -0.78280E+04
 0.12467000E+03 -0.21336E+05
 0.12472000E+03 -0.34674E+05
 0.12477000E+03 -0.36514E+05
 0.12482000E+03 -0.22800E+05
 0.12487000E+03  0.22210E+04
 0.12492000E+03  0.30270E+05
 0.12497000E+03  0.53696E+05
 0.12502000E+03  0.72005E+05
 0.12507000E+03  0.82884E+05
 0.12512000E+03  0.82042E+05
 0.12517001E+03  0.72681E+05
 0.12521999E+03  0.64070E+05
 0.12527000E+03  0.58455E+05
 0.12532000E+03  0.49408E+05
 0.12537000E+03  0.34897E+05
 0.12542001E+03  0.21009E+05
 0.12546999E+03  0.12915E+05
 0.12552000E+03  0.57940E+04
 0.12557000E+03 -0.50310E+04
 0.12562000E+03 -0.19471E+05
 0.12567001E+03 -0.37729E+05
 0.12571999E+03 -0.59076E+05
 0.12577000E+03 -0.82447E+05
 0.12582000E+03 -0.10785E+06
 0.12587000E+03 -0.13868E+06
 0.12592001E+03 -0.17634E+06
 0.12596999E+03 -0.21839E+06
 0.12602000E+03 -0.25699E+06
 0.12607000E+03 -0.28106E+06
 0.12612000E+03 -0.28790E+06
 0.12617001E+03 -0.28217E+06
 0.12621999E+03 -0.27416E+06
 0.12627000E+03 -0.26795E+06
 0.12632000E+03 -0.25723E+06
 0.12637000E+03 -0.24189E+06
 0.12642001E+03 -0.22367E+06
 0.12646999E+03 -0.20061E+06
 0.12652000E+03 -0.17213E+06
 0.12657000E+03 -0.13885E+06
 0.12662000E+03 -0.10213E+06
 0.12667001E+03 -0.63323E+05
 0.12671999E+03 -0.26850E+05
 0.12677000E+03  0.67100E+03
 0.12682000E+03  0.17699E+05
 0.12687000E+03  0.30952E+05
 0.12692001E+03  0.52397E+05
 0.12696999E+03  0.88722E+05
 0.12702000E+03  0.13517E+06
 0.12707000E+03  0.18235E+06
 0.12712000E+03  0.22920E+06
 0.12717001E+03  0.27487E+06
 0.12721999E+03  0.30638E+06
 0.12727000E+03  0.31599E+06
 0.12732000E+03  0.30762E+06
 0.12737000E+03  0.29131E+06
 0.12742001E+03  0.27911E+06
 0.12746999E+03  0.27153E+06
 0.12752000E+03  0.25950E+06
 0.12757000E+03  0.23860E+06
 0.12762000E+03  0.21050E+06
 0.12767001E+03  0.17907E+06
 0.12771999E+03  0.15166E+06
 0.12777000E+03  0.13051E+06
 0.12782000E+03  0.11042E+06
 0.12787000E+03  0.88543E+05
 0.12792001E+03  0.64914E+05
 0.12796999E+03  0.42055E+05
 0.12802000E+03  0.26593E+05
 0.12807001E+03  0.23443E+05
 0.12812001E+03  0.29372E+05
 0.12817001E+03  0.40929E+05
 0.12822000E+03  0.56413E+05
 0.12827000E+03  0.74996E+05
 0.12832001E+03  0.95572E+05
 0.12837001E+03  0.11216E+06
 0.12842001E+03  0.12368E+06
 0.12847000E+03  0.13257E+06
 0.12852000E+03  0.14148E+06
 0.12857001E+03  0.15396E+06
 0.12862001E+03  0.16910E+06
 0.12867001E+03  0.18013E+06
 0.12872000E+03  0.17721E+06
 0.12877000E+03  0.15911E+06
 0.12882001E+03  0.13299E+06
 0.12887001E+03  0.10490E+06
 0.12892001E+03  0.79517E+05
 0.12897000E+03  0.58459E+05
 0.12902000E+03  0.40838E+05
 0.12907001E+03  0.26988E+05
 0.12912001E+03  0.16864E+05
 0.12917001E+03  0.79320E+04
 0.12922000E+03 -0.42360E+04
 0.12927000E+03 -0.19629E+05
 0.12932001E+03 -0.34587E+05
 0.12937001E+03 -0.48670E+05
 0.12942001E+03 -0.59182E+05
 0.12947000E+03 -0.61857E+05
 0.12952000E+03 -0.58905E+05
 0.12957001E+03 -0.55922E+05
 0.12962001E+03 -0.57376E+05
 0.12967001E+03 -0.66501E+05
 0.12972000E+03 -0.79469E+05
 0.12977000E+03 -0.89675E+05
 0.12982001E+03 -0.10076E+06
 0.12987001E+03 -0.11787E+06
 0.12992001E+03 -0.13912E+06
 0.12997000E+03 -0.16177E+06
 0.13002000E+03 -0.18418E+06
 0.13007001E+03 -0.20454E+06
 0.13012001E+03 -0.22339E+06
 0.13017001E+03 -0.24396E+06
 0.13022000E+03 -0.26926E+06
 0.13027000E+03 -0.29752E+06
 0.13032001E+03 -0.32121E+06
 0.13037001E+03 -0.33538E+06
 0.13042001E+03 -0.33612E+06
 0.13047000E+03 -0.31968E+06
 0.13052000E+03 -0.28800E+06
 0.13057001E+03 -0.24511E+06
 0.13062001E+03 -0.19577E+06
 0.13067001E+03 -0.14554E+06
 0.13072000E+03 -0.98003E+05
 0.13077000E+03 -0.53580E+05
 0.13082001E+03 -0.13137E+05
 0.13087001E+03  0.22832E+05
 0.13092001E+03  0.57212E+05
 0.13097000E+03  0.92675E+05
 0.13102000E+03  0.12920E+06
 0.13107001E+03  0.16100E+06
 0.13112001E+03  0.18435E+06
 0.13117001E+03  0.20232E+06
 0.13122000E+03  0.21736E+06
 0.13127000E+03  0.23580E+06
 0.13132001E+03  0.26309E+06
 0.13137001E+03  0.29536E+06
 0.13142001E+03  0.32573E+06
 0.13147000E+03  0.35086E+06
 0.13152000E+03  0.37045E+06
 0.13157001E+03  0.38564E+06
 0.13162001E+03  0.39731E+06
 0.13167001E+03  0.40521E+06
 0.13172000E+03  0.41152E+06
 0.13177000E+03  0.41838E+06
 0.13182001E+03  0.42854E+06
 0.13187001E+03  0.44368E+06
 0.13192001E+03  0.45886E+06
 0.13197000E+03  0.47089E+06
 0.13202000E+03  0.47842E+06
 0.13207001E+03  0.47467E+06
 0.13212001E+03  0.45924E+06
 0.13217001E+03  0.44054E+06
 0.13222000E+03  0.42135E+06
 0.13227000E+03  0.39766E+06
 0.13232001E+03  0.36641E+06
 0.13237001E+03  0.32781E+06
 0.13242001E+03  0.28162E+06
 0.13247000E+03  0.23036E+06
 0.13252000E+03  0.17802E+06
 0.13257001E+03  0.12935E+06
 0.13262001E+03  0.84902E+05
 0.13267001E+03  0.37109E+05
 0.13272000E+03 -0.15550E+05
 0.13277000E+03 -0.67894E+05
 0.13282001E+03 -0.11286E+06
 0.13287001E+03 -0.14901E+06
 0.13292001E+03 -0.18222E+06
 0.13297000E+03 -0.21814E+06
 0.13302000E+03 -0.25751E+06
 0.13307001E+03 -0.28971E+06
 0.13312001E+03 -0.30378E+06
 0.13317001E+03 -0.29867E+06
 0.13322000E+03 -0.27997E+06
 0.13327000E+03 -0.25688E+06
 0.13332001E+03 -0.23725E+06
 0.13337001E+03 -0.22455E+06
 0.13342001E+03 -0.21812E+06
 0.13347000E+03 -0.21211E+06
 0.13352000E+03 -0.20188E+06
 0.13357001E+03 -0.18538E+06
 0.13362001E+03 -0.16153E+06
 0.13367001E+03 -0.13360E+06
 0.13372000E+03 -0.10424E+06
 0.13377000E+03 -0.75999E+05
 0.13382001E+03 -0.48916E+05
 0.13387001E+03 -0.19705E+05
 0.13392001E+03  0.97970E+04
 0.13397000E+03  0.35615E+05
 0.13402000E+03  0.54852E+05
 0.13407001E+03  0.68713E+05
 0.13412001E+03  0.82023E+05
 0.13417001E+03  0.95821E+05
 0.13422000E+03  0.10807E+06
 0.13427000E+03  0.11515E+06
 0.13432001E+03  0.11627E+06
 0.13437001E+03  0.11462E+06
 0.13442001E+03  0.11326E+06
 0.13447000E+03  0.11337E+06
 0.13452000E+03  0.11141E+06
 0.13457001E+03  0.10342E+06
 0.13462001E+03  0.85039E+05
 0.13467001E+03  0.55060E+05
 0.13472000E+03  0.18107E+05
 0.13477000E+03 -0.23904E+05
 0.13482001E+03 -0.68964E+05
 0.13487001E+03 -0.11288E+06
 0.13492001E+03 -0.14925E+06
 0.13497000E+03 -0.17370E+06
 0.13502000E+03 -0.18745E+06
 0.13507001E+03 -0.19175E+06
 0.13512001E+03 -0.19208E+06
 0.13517001E+03 -0.19491E+06
 0.13522000E+03 -0.20414E+06
 0.13527000E+03 -0.22190E+06
 0.13532001E+03 -0.24559E+06
 0.13537001E+03 -0.27134E+06
 0.13542001E+03 -0.28968E+06
 0.13547000E+03 -0.29169E+06
 0.13552000E+03 -0.27921E+06
 0.13557001E+03 -0.26001E+06
 0.13562001E+03 -0.24110E+06
 0.13567001E+03 -0.22363E+06
 0.13572000E+03 -0.20814E+06
 0.13577000E+03 -0.19702E+06
 0.13582001E+03 -0.18787E+06
 0.13587001E+03 -0.17335E+06
 0.13592001E+03 -0.14845E+06
 0.13597000E+03 -0.11539E+06
 0.13602000E+03 -0.79353E+05
 0.13607001E+03 -0.43653E+05
 0.13612001E+03 -0.98790E+04
 0.13617001E+03  0.23546E+05
 0.13622000E+03  0.58191E+05
 0.13627000E+03  0.93055E+05
 0.13632001E+03  0.12949E+06
 0.13637001E+03  0.16719E+06
 0.13642001E+03  0.20205E+06
 0.13647000E+03  0.23253E+06
 0.13652000E+03  0.26094E+06
 0.13657001E+03  0.29088E+06
 0.13662001E+03  0.32588E+06
 0.13667001E+03  0.36240E+06
 0.13672000E+03  0.39200E+06
 0.13677000E+03  0.41155E+06
 0.13682001E+03  0.42049E+06
 0.13687001E+03  0.42096E+06
 0.13692001E+03  0.41609E+06
 0.13697000E+03  0.40884E+06
 0.13702000E+03  0.40305E+06
 0.13707001E+03  0.40170E+06
 0.13712001E+03  0.40526E+06
 0.13717001E+03  0.40692E+06
 0.13722000E+03  0.40052E+06
 0.13727000E+03  0.38736E+06
 0.13732001E+03  0.37006E+06
 0.13737001E+03  0.35045E+06
 0.13742001E+03  0.32931E+06
 0.13747000E+03  0.30827E+06
 0.13752000E+03  0.28985E+06
 0.13757001E+03  0.27173E+06
 0.13762001E+03  0.25311E+06
 0.13767001E+03  0.23345E+06
 0.13772000E+03  0.20569E+06
 0.13777000E+03  0.16751E+06
 0.13782001E+03  0.12514E+06
 0.13787001E+03  0.85759E+05
 0.13792001E+03  0.51283E+05
 0.13797000E+03  0.16838E+05
 0.13802000E+03 -0.22244E+05
 0.13807001E+03 -0.66597E+05
 0.13812001E+03 -0.11625E+06
 0.13817001E+03 -0.17031E+06
 0.13822000E+03 -0.22648E+06
 0.13827000E+03 -0.27862E+06
 0.13832001E+03 -0.32073E+06
 0.13837001E+03 -0.35448E+06
 0.13842001E+03 -0.38688E+06
 0.13847000E+03 -0.42504E+06
 0.13852000E+03 -0.46757E+06
 0.13857001E+03 -0.50851E+06
 0.13862001E+03 -0.54297E+06
 0.13867001E+03 -0.56855E+06
 0.13872000E+03 -0.58591E+06
 0.13877000E+03 -0.59495E+06
 0.13882001E+03 -0.60031E+06
 0.13887001E+03 -0.60744E+06
 0.13892001E+03 -0.61705E+06
 0.13897000E+03 -0.62777E+06
 0.13902000E+03 -0.63364E+06
 0.13907001E+03 -0.62765E+06
 0.13912001E+03 -0.60928E+06
 0.13917001E+03 -0.58422E+06
 0.13922000E+03 -0.56190E+06
 0.13927000E+03 -0.54438E+06
 0.13932001E+03 -0.52140E+06
 0.13937001E+03 -0.48917E+06
 0.13942001E+03 -0.45027E+06
 0.13947000E+03 -0.40490E+06
 0.13952000E+03 -0.35515E+06
 0.13957001E+03 -0.30294E+06
 0.13962001E+03 -0.24974E+06
 0.13967001E+03 -0.19783E+06
 0.13972000E+03 -0.14833E+06
 0.13977000E+03 -0.10056E+06
 0.13982001E+03 -0.54967E+05
 0.13987001E+03 -0.13617E+05
 0.13992001E+03  0.22717E+05
 0.13997000E+03  0.55119E+05
 0.14002000E+03  0.87551E+05
 0.14007001E+03  0.12526E+06
 0.14012001E+03  0.17048E+06
 0.14017001E+03  0.21930E+06
 0.14022000E+03  0.26303E+06
 0.14027000E+03  0.29852E+06
 0.14032001E+03  0.33256E+06
 0.14037001E+03  0.36904E+06
 0.14042001E+03  0.40178E+06
 0.14047000E+03  0.42424E+06
 0.14052000E+03  0.43702E+06
 0.14057001E+03  0.44428E+06
 0.14062001E+03  0.44628E+06
 0.14067001E+03  0.44260E+06
 0.14072000E+03  0.43025E+06
 0.14077000E+03  0.40303E+06
 0.14082001E+03  0.36197E+06
 0.14087001E+03  0.31227E+06
 0.14092001E+03  0.26049E+06
 0.14097000E+03  0.21014E+06
 0.14102000E+03  0.16101E+06
 0.14107001E+03  0.11676E+06
 0.14112001E+03  0.79124E+05
 0.14117001E+03  0.45880E+05
 0.14122000E+03  0.17927E+05
 0.14127000E+03 -0.13860E+04
 0.14132001E+03 -0.12025E+05
 0.14137001E+03 -0.19625E+05
 0.14142001E+03 -0.29001E+05
 0.14147000E+03 -0.40421E+05
 0.14152000E+03 -0.55039E+05
 0.14157001E+03 -0.72702E+05
 0.14162001E+03 -0.92013E+05
 0.14167001E+03 -0.11177E+06
 0.14172000E+03 -0.13332E+06
 0.14177000E+03 -0.15971E+06
 0.14182001E+03 -0.19076E+06
 0.14187001E+03 -0.22387E+06
 0.14192001E+03 -0.25215E+06
 0.14197000E+03 -0.27324E+06
 0.14202000E+03 -0.29020E+06
 0.14207001E+03 -0.30645E+06
 0.14212001E+03 -0.32229E+06
 0.14217001E+03 -0.33136E+06
 0.14222000E+03 -0.33056E+06
 0.14227000E+03 -0.32174E+06
 0.14232001E+03 -0.30712E+06
 0.14237001E+03 -0.28539E+06
 0.14242001E+03 -0.25463E+06
 0.14247000E+03 -0.21786E+06
 0.14252000E+03 -0.17857E+06
 0.14257001E+03 -0.13826E+06
 0.14262001E+03 -0.97832E+05
 0.14267001E+03 -0.57517E+05
 0.14272000E+03 -0.17804E+05
 0.14277000E+03  0.19681E+05
 0.14282001E+03  0.54780E+05
 0.14287001E+03  0.89459E+05
 0.14292001E+03  0.12252E+06
 0.14297000E+03  0.14885E+06
 0.14302000E+03  0.16578E+06
 0.14307001E+03  0.17211E+06
 0.14312001E+03  0.16789E+06
 0.14317001E+03  0.16137E+06
 0.14322000E+03  0.16096E+06
 0.14327000E+03  0.16483E+06
 0.14332001E+03  0.16817E+06
 0.14337001E+03  0.16831E+06
 0.14342001E+03  0.16486E+06
 0.14347000E+03  0.16043E+06
 0.14352000E+03  0.15931E+06
 0.14357001E+03  0.16440E+06
 0.14362001E+03  0.17389E+06
 0.14367001E+03  0.18499E+06
 0.14372000E+03  0.19577E+06
 0.14377000E+03  0.20168E+06
 0.14382001E+03  0.20032E+06
 0.14387001E+03  0.19655E+06
 0.14392001E+03  0.19695E+06
 0.14397000E+03  0.20286E+06
 0.14402000E+03  0.20904E+06
 0.14407001E+03  0.20968E+06
 0.14412001E+03  0.20222E+06
 0.14417001E+03  0.18848E+06
 0.14422000E+03  0.17374E+06
 0.14427000E+03  0.16106E+06
 0.14432001E+03  0.15154E+06
 0.14437001E+03  0.14415E+06
 0.14442001E+03  0.13823E+06
 0.14447000E+03  0.13367E+06
 0.14452000E+03  0.12801E+06
 0.14457001E+03  0.12161E+06
 0.14462001E+03  0.11485E+06
 0.14467001E+03  0.10627E+06
 0.14472000E+03  0.98362E+05
 0.14477000E+03  0.93402E+05
 0.14482001E+03  0.87972E+05
 0.14487001E+03  0.78801E+05
 0.14492001E+03  0.67891E+05
 0.14497000E+03  0.59261E+05
 0.14502000E+03  0.54945E+05
 0.14507001E+03  0.52085E+05
 0.14512001E+03  0.47309E+05
 0.14517001E+03  0.40614E+05
 0.14522000E+03  0.31392E+05
 0.14527000E+03  0.16633E+05
 0.14532001E+03 -0.63030E+04
 0.14537001E+03 -0.35197E+05
 0.14542001E+03 -0.64837E+05
 0.14547000E+03 -0.89613E+05
 0.14552000E+03 -0.10682E+06
 0.14557001E+03 -0.11813E+06
 0.14562001E+03 -0.12338E+06
 0.14567001E+03 -0.12266E+06
 0.14572000E+03 -0.11360E+06
 0.14577000E+03 -0.89845E+05
 0.14582001E+03 -0.53934E+05
 0.14587001E+03 -0.14862E+05
 0.14592001E+03  0.21345E+05
 0.14597000E+03  0.51474E+05
 0.14602000E+03  0.72040E+05
 0.14607001E+03  0.78487E+05
 0.14612001E+03  0.71183E+05
 0.14617001E+03  0.58307E+05
 0.14622000E+03  0.47361E+05
 0.14627000E+03  0.40137E+05
 0.14632001E+03  0.37353E+05
 0.14637001E+03  0.37818E+05
 0.14642001E+03  0.38310E+05
 0.14647000E+03  0.35931E+05
 0.14652000E+03  0.28255E+05
 0.14657001E+03  0.16149E+05
 0.14662001E+03  0.35470E+04
 0.14667001E+03 -0.57520E+04
 0.14672000E+03 -0.11287E+05
 0.14677000E+03 -0.16296E+05
 0.14682001E+03 -0.22901E+05
 0.14687001E+03 -0.27738E+05
 0.14692001E+03 -0.28536E+05
 0.14697000E+03 -0.28432E+05
 0.14702000E+03 -0.28295E+05
 0.14707001E+03 -0.24226E+05
 0.14712001E+03 -0.16006E+05
 0.14717001E+03 -0.97120E+04
 0.14722000E+03 -0.77630E+04
 0.14727000E+03 -0.91260E+04
 0.14732001E+03 -0.11412E+05
 0.14737001E+03 -0.11265E+05
 0.14742001E+03 -0.67910E+04
 0.14747000E+03  0.18060E+04
 0.14752000E+03  0.10650E+05
 0.14757001E+03  0.20501E+05
 0.14762001E+03  0.32969E+05
 0.14767001E+03  0.44437E+05
 0.14772000E+03  0.54803E+05
 0.14777000E+03  0.65297E+05
 0.14782001E+03  0.74170E+05
 0.14787001E+03  0.78251E+05
 0.14792001E+03  0.76615E+05
 0.14797000E+03  0.72449E+05
 0.14802000E+03  0.65368E+05
 0.14807001E+03  0.53738E+05
 0.14812001E+03  0.41430E+05
 0.14817001E+03  0.30814E+05
 0.14822000E+03  0.19805E+05
 0.14827000E+03  0.83420E+04
 0.14832001E+03 -0.13790E+04
 0.14837001E+03 -0.10748E+05
 0.14842001E+03 -0.22438E+05
 0.14847000E+03 -0.35689E+05
 0.14852000E+03 -0.47885E+05
 0.14857001E+03 -0.57260E+05
 0.14862001E+03 -0.62157E+05
 0.14867001E+03 -0.62501E+05
 0.14872000E+03 -0.59331E+05
 0.14877000E+03 -0.53726E+05
 0.14882001E+03 -0.47703E+05
 0.14887001E+03 -0.41040E+05
 0.14892001E+03 -0.35445E+05
 0.14897000E+03 -0.33237E+05
 0.14902000E+03 -0.35261E+05
 0.14907001E+03 -0.43244E+05
 0.14912001E+03 -0.56256E+05
 0.14917001E+03 -0.70285E+05
 0.14922000E+03 -0.81878E+05
 0.14927000E+03 -0.90603E+05
 0.14932001E+03 -0.95822E+05
 0.14937001E+03 -0.99353E+05
 0.14942001E+03 -0.10393E+06
 0.14947000E+03 -0.10899E+06
 0.14952000E+03 -0.11265E+06
 0.14957001E+03 -0.11307E+06
 0.14962001E+03 -0.11266E+06
 0.14967001E+03 -0.11552E+06
 0.14972000E+03 -0.12489E+06
 0.14977000E+03 -0.14173E+06
 0.14982001E+03 -0.16346E+06
 0.14987001E+03 -0.18505E+06
 0.14992001E+03 -0.20050E+06
 0.14997000E+03 -0.20959E+06
