-0.29969940E+01 -0.49050E+04
-0.29469941E+01 -0.49290E+04
-0.28969941E+01 -0.49270E+04
-0.28469939E+01 -0.48420E+04
-0.27969940E+01 -0.48650E+04
-0.27469940E+01 -0.48580E+04
-0.26969941E+01 -0.47890E+04
-0.26469941E+01 -0.48150E+04
-0.25969939E+01 -0.48360E+04
-0.25469940E+01 -0.47800E+04
-0.24969940E+01 -0.47810E+04
-0.24469941E+01 -0.47740E+04
-0.23969941E+01 -0.47370E+04
-0.23469939E+01 -0.47140E+04
-0.22969942E+01 -0.46800E+04
-0.22469940E+01 -0.46670E+04
-0.21969941E+01 -0.46640E+04
-0.21469941E+01 -0.46400E+04
-0.20969939E+01 -0.46160E+04
-0.20469942E+01 -0.46140E+04
-0.19969940E+01 -0.45820E+04
-0.19469941E+01 -0.45660E+04
-0.18969941E+01 -0.45520E+04
-0.18469940E+01 -0.45370E+04
-0.17969941E+01 -0.45330E+04
-0.17469941E+01 -0.45320E+04
-0.16969941E+01 -0.45070E+04
-0.16469941E+01 -0.44740E+04
-0.15969942E+01 -0.44780E+04
-0.15469941E+01 -0.44780E+04
-0.14969941E+01 -0.44440E+04
-0.14469941E+01 -0.44290E+04
-0.13969941E+01 -0.44540E+04
-0.13469942E+01 -0.44140E+04
-0.12969941E+01 -0.44430E+04
-0.12469941E+01 -0.44280E+04
-0.11969941E+01 -0.43690E+04
-0.11469941E+01 -0.44220E+04
-0.10969942E+01 -0.43610E+04
-0.10469941E+01 -0.43570E+04
-0.99699414E+00 -0.44200E+04
-0.94699407E+00 -0.44180E+04
-0.89699411E+00 -0.44190E+04
-0.84699416E+00 -0.43970E+04
-0.79699421E+00 -0.44190E+04
-0.74699426E+00 -0.44320E+04
-0.69699407E+00 -0.44290E+04
-0.64699411E+00 -0.44210E+04
-0.59699416E+00 -0.44330E+04
-0.54699421E+00 -0.44510E+04
-0.49699426E+00 -0.44620E+04
-0.44699407E+00 -0.44840E+04
-0.39699411E+00 -0.44940E+04
-0.34699416E+00 -0.45140E+04
-0.29699421E+00 -0.45290E+04
-0.24699426E+00 -0.45670E+04
-0.19699430E+00 -0.45910E+04
-0.14699411E+00 -0.46000E+04
-0.96994162E-01 -0.45910E+04
-0.46994209E-01 -0.45760E+04
 0.30057430E-02 -0.45740E+04
 0.53005695E-01 -0.46020E+04
 0.10300589E+00 -0.46210E+04
 0.15300584E+00 -0.46530E+04
 0.20300579E+00 -0.46510E+04
 0.25300574E+00 -0.46260E+04
 0.30300570E+00 -0.46720E+04
 0.35300589E+00 -0.46510E+04
 0.40300584E+00 -0.46560E+04
 0.45300579E+00 -0.46680E+04
 0.50300574E+00 -0.46780E+04
 0.55300570E+00 -0.46760E+04
 0.60300589E+00 -0.46460E+04
 0.65300584E+00 -0.46580E+04
 0.70300579E+00 -0.46820E+04
 0.75300574E+00 -0.47200E+04
 0.80300570E+00 -0.47280E+04
 0.85300565E+00 -0.47510E+04
 0.90300584E+00 -0.47230E+04
 0.95300579E+00 -0.46960E+04
 0.10030057E+01 -0.47010E+04
 0.10530057E+01 -0.47140E+04
 0.11030059E+01 -0.47590E+04
 0.11530056E+01 -0.47360E+04
 0.12030058E+01 -0.47260E+04
 0.12530055E+01 -0.47040E+04
 0.13030057E+01 -0.47490E+04
 0.13530059E+01 -0.48090E+04
 0.14030056E+01 -0.47630E+04
 0.14530058E+01 -0.47710E+04
 0.15030055E+01 -0.47790E+04
 0.15530057E+01 -0.47830E+04
 0.16030059E+01 -0.47780E+04
 0.16530056E+01 -0.47710E+04
 0.17030058E+01 -0.47700E+04
 0.17530055E+01 -0.47800E+04
 0.18030057E+01 -0.48080E+04
 0.18530059E+01 -0.48010E+04
 0.19030056E+01 -0.47940E+04
 0.19530058E+01 -0.48030E+04
 0.20030055E+01 -0.48140E+04
 0.20530057E+01 -0.48340E+04
 0.21030059E+01 -0.48290E+04
 0.21530056E+01 -0.48040E+04
 0.22030058E+01 -0.48260E+04
 0.22530055E+01 -0.48350E+04
 0.23030057E+01 -0.48340E+04
 0.23530059E+01 -0.48590E+04
 0.24030056E+01 -0.48670E+04
 0.24530058E+01 -0.48560E+04
 0.25030055E+01 -0.48280E+04
 0.25530057E+01 -0.48560E+04
 0.26030054E+01 -0.48850E+04
 0.26530056E+01 -0.48990E+04
 0.27030058E+01 -0.49260E+04
 0.27530055E+01 -0.49090E+04
 0.28030057E+01 -0.49190E+04
 0.28530054E+01 -0.49520E+04
 0.29030056E+01 -0.49580E+04
 0.29530058E+01 -0.49590E+04
 0.30030055E+01 -0.49490E+04
 0.30530057E+01 -0.49550E+04
 0.31030054E+01 -0.49760E+04
 0.31530056E+01 -0.49940E+04
 0.32030058E+01 -0.50140E+04
 0.32530055E+01 -0.50230E+04
 0.33030057E+01 -0.50330E+04
 0.33530054E+01 -0.50480E+04
 0.34030056E+01 -0.50500E+04
 0.34530058E+01 -0.50580E+04
 0.35030055E+01 -0.50480E+04
 0.35530057E+01 -0.50840E+04
 0.36030054E+01 -0.51130E+04
 0.36530056E+01 -0.50970E+04
 0.37030058E+01 -0.51030E+04
 0.37530055E+01 -0.50910E+04
 0.38030057E+01 -0.51150E+04
 0.38530054E+01 -0.51150E+04
 0.39030056E+01 -0.51040E+04
 0.39530058E+01 -0.51130E+04
 0.40030055E+01 -0.50930E+04
 0.40530057E+01 -0.51070E+04
 0.41030054E+01 -0.51060E+04
 0.41530056E+01 -0.51040E+04
 0.42030058E+01 -0.51200E+04
 0.42530055E+01 -0.51080E+04
 0.43030057E+01 -0.51010E+04
 0.43530054E+01 -0.50870E+04
 0.44030056E+01 -0.50860E+04
 0.44530053E+01 -0.50960E+04
 0.45030055E+01 -0.51010E+04
 0.45530057E+01 -0.51170E+04
 0.46030054E+01 -0.50950E+04
 0.46530056E+01 -0.50730E+04
 0.47030053E+01 -0.50970E+04
 0.47530055E+01 -0.50980E+04
 0.48030057E+01 -0.50950E+04
 0.48530054E+01 -0.50860E+04
 0.49030056E+01 -0.50700E+04
 0.49530053E+01 -0.50880E+04
 0.50030055E+01 -0.50650E+04
 0.50530052E+01 -0.50530E+04
 0.51030054E+01 -0.50570E+04
 0.51530056E+01 -0.50570E+04
 0.52030058E+01 -0.50470E+04
 0.52530050E+01 -0.50410E+04
 0.53030052E+01 -0.50660E+04
 0.53530054E+01 -0.50360E+04
 0.54030056E+01 -0.50150E+04
 0.54530058E+01 -0.50180E+04
 0.55030050E+01 -0.50140E+04
 0.55530052E+01 -0.50270E+04
 0.56030054E+01 -0.50060E+04
 0.56530056E+01 -0.50200E+04
 0.57030058E+01 -0.50560E+04
 0.57530050E+01 -0.50380E+04
 0.58030052E+01 -0.50270E+04
 0.58530054E+01 -0.50040E+04
 0.59030056E+01 -0.49870E+04
 0.59530058E+01 -0.49910E+04
 0.60030050E+01 -0.49700E+04
 0.60530052E+01 -0.49840E+04
 0.61030054E+01 -0.49860E+04
 0.61530056E+01 -0.49610E+04
 0.62030058E+01 -0.49610E+04
 0.62530050E+01 -0.49310E+04
 0.63030052E+01 -0.49220E+04
 0.63530054E+01 -0.49180E+04
 0.64030056E+01 -0.48970E+04
 0.64530058E+01 -0.48940E+04
 0.65030050E+01 -0.48560E+04
 0.65530052E+01 -0.48480E+04
 0.66030054E+01 -0.48600E+04
 0.66530056E+01 -0.48430E+04
 0.67030058E+01 -0.48320E+04
 0.67530050E+01 -0.48030E+04
 0.68030052E+01 -0.47890E+04
 0.68530054E+01 -0.47790E+04
 0.69030056E+01 -0.47540E+04
 0.69530058E+01 -0.47410E+04
 0.70030050E+01 -0.47050E+04
 0.70530052E+01 -0.46790E+04
 0.71030054E+01 -0.46810E+04
 0.71530056E+01 -0.46670E+04
 0.72030058E+01 -0.46410E+04
 0.72530050E+01 -0.46190E+04
 0.73030052E+01 -0.46030E+04
 0.73530054E+01 -0.45750E+04
 0.74030056E+01 -0.45510E+04
 0.74530058E+01 -0.45330E+04
 0.75030050E+01 -0.45200E+04
 0.75530052E+01 -0.44970E+04
 0.76030054E+01 -0.44930E+04
 0.76530056E+01 -0.44790E+04
 0.77030058E+01 -0.44530E+04
 0.77530050E+01 -0.44390E+04
 0.78030052E+01 -0.43890E+04
 0.78530054E+01 -0.43850E+04
 0.79030056E+01 -0.43680E+04
 0.79530058E+01 -0.43660E+04
 0.80030050E+01 -0.43660E+04
 0.80530052E+01 -0.43450E+04
 0.81030054E+01 -0.43450E+04
 0.81530056E+01 -0.43320E+04
 0.82030048E+01 -0.43250E+04
 0.82530050E+01 -0.43110E+04
 0.83030052E+01 -0.43000E+04
 0.83530054E+01 -0.42990E+04
 0.84030056E+01 -0.42900E+04
 0.84530048E+01 -0.42960E+04
 0.85030050E+01 -0.42990E+04
 0.85530052E+01 -0.42990E+04
 0.86030054E+01 -0.42870E+04
 0.86530056E+01 -0.42710E+04
 0.87030048E+01 -0.43140E+04
 0.87530050E+01 -0.43260E+04
 0.88030052E+01 -0.42950E+04
 0.88530054E+01 -0.42900E+04
 0.89030056E+01 -0.42850E+04
 0.89530048E+01 -0.43090E+04
 0.90030050E+01 -0.42960E+04
 0.90530052E+01 -0.43020E+04
 0.91030054E+01 -0.43430E+04
 0.91530056E+01 -0.43310E+04
 0.92030048E+01 -0.43270E+04
 0.92530050E+01 -0.43430E+04
 0.93030052E+01 -0.43720E+04
 0.93530054E+01 -0.43880E+04
 0.94030056E+01 -0.43870E+04
 0.94530048E+01 -0.43910E+04
 0.95030050E+01 -0.44080E+04
 0.95530052E+01 -0.44220E+04
 0.96030054E+01 -0.44340E+04
 0.96530056E+01 -0.44450E+04
 0.97030048E+01 -0.44430E+04
 0.97530050E+01 -0.44480E+04
 0.98030052E+01 -0.44800E+04
 0.98530054E+01 -0.44920E+04
 0.99030056E+01 -0.45040E+04
 0.99530048E+01 -0.45160E+04
 0.10003005E+02 -0.45030E+04
 0.10053005E+02 -0.45240E+04
 0.10103005E+02 -0.45390E+04
 0.10153006E+02 -0.45160E+04
 0.10203005E+02 -0.45400E+04
 0.10253005E+02 -0.45690E+04
 0.10303005E+02 -0.45770E+04
 0.10353005E+02 -0.46020E+04
 0.10403006E+02 -0.45900E+04
 0.10453005E+02 -0.45950E+04
 0.10503005E+02 -0.46020E+04
 0.10553005E+02 -0.45800E+04
 0.10603005E+02 -0.46150E+04
 0.10653006E+02 -0.46160E+04
 0.10703005E+02 -0.46170E+04
 0.10753005E+02 -0.46230E+04
 0.10803005E+02 -0.46190E+04
 0.10853005E+02 -0.46760E+04
 0.10903006E+02 -0.46770E+04
 0.10953005E+02 -0.46700E+04
 0.11003005E+02 -0.46650E+04
 0.11053005E+02 -0.46730E+04
 0.11103005E+02 -0.47090E+04
 0.11153006E+02 -0.46980E+04
 0.11203005E+02 -0.47100E+04
 0.11253005E+02 -0.47340E+04
 0.11303005E+02 -0.47390E+04
 0.11353005E+02 -0.47470E+04
 0.11403006E+02 -0.47250E+04
 0.11453005E+02 -0.47170E+04
 0.11503005E+02 -0.47340E+04
 0.11553005E+02 -0.47270E+04
 0.11603005E+02 -0.47340E+04
 0.11653005E+02 -0.47290E+04
 0.11703005E+02 -0.47320E+04
 0.11753005E+02 -0.47560E+04
 0.11803005E+02 -0.47400E+04
 0.11853005E+02 -0.47450E+04
 0.11903005E+02 -0.47560E+04
 0.11953005E+02 -0.47490E+04
 0.12003005E+02 -0.47410E+04
 0.12053005E+02 -0.47440E+04
 0.12103005E+02 -0.47670E+04
 0.12153005E+02 -0.48010E+04
 0.12203005E+02 -0.48110E+04
 0.12253005E+02 -0.47910E+04
 0.12303005E+02 -0.47790E+04
 0.12353005E+02 -0.48010E+04
 0.12403005E+02 -0.48010E+04
 0.12453005E+02 -0.47960E+04
 0.12503005E+02 -0.48050E+04
 0.12553005E+02 -0.47900E+04
 0.12603005E+02 -0.47760E+04
 0.12653005E+02 -0.47630E+04
 0.12703005E+02 -0.47720E+04
 0.12753005E+02 -0.47840E+04
 0.12803005E+02 -0.47800E+04
 0.12853005E+02 -0.47680E+04
 0.12903005E+02 -0.47560E+04
 0.12953005E+02 -0.47930E+04
 0.13003005E+02 -0.47820E+04
 0.13053005E+02 -0.47750E+04
 0.13103004E+02 -0.47830E+04
 0.13153006E+02 -0.47390E+04
 0.13203005E+02 -0.47460E+04
 0.13253004E+02 -0.47770E+04
 0.13303005E+02 -0.48010E+04
 0.13353004E+02 -0.47950E+04
 0.13403006E+02 -0.47900E+04
 0.13453005E+02 -0.47720E+04
 0.13503004E+02 -0.47680E+04
 0.13553005E+02 -0.47750E+04
 0.13603004E+02 -0.47650E+04
 0.13653006E+02 -0.47490E+04
 0.13703005E+02 -0.47330E+04
 0.13753004E+02 -0.47370E+04
 0.13803005E+02 -0.47510E+04
 0.13853004E+02 -0.47600E+04
 0.13903006E+02 -0.47560E+04
 0.13953005E+02 -0.47580E+04
 0.14003004E+02 -0.47500E+04
 0.14053005E+02 -0.47580E+04
 0.14103004E+02 -0.47410E+04
 0.14153006E+02 -0.47620E+04
 0.14203005E+02 -0.47490E+04
 0.14253004E+02 -0.47270E+04
 0.14303005E+02 -0.47880E+04
 0.14353004E+02 -0.47570E+04
 0.14403006E+02 -0.47280E+04
 0.14453005E+02 -0.47480E+04
 0.14503004E+02 -0.47710E+04
 0.14553005E+02 -0.47800E+04
 0.14603004E+02 -0.47650E+04
 0.14653006E+02 -0.47660E+04
 0.14703005E+02 -0.47600E+04
 0.14753004E+02 -0.47330E+04
 0.14803005E+02 -0.47270E+04
 0.14853004E+02 -0.47560E+04
 0.14903006E+02 -0.47710E+04
 0.14953005E+02 -0.47650E+04
 0.15003004E+02 -0.47900E+04
 0.15053005E+02 -0.47760E+04
 0.15103004E+02 -0.47670E+04
 0.15153006E+02 -0.47710E+04
 0.15203005E+02 -0.47540E+04
 0.15253004E+02 -0.47540E+04
 0.15303005E+02 -0.47580E+04
 0.15353004E+02 -0.47660E+04
 0.15403006E+02 -0.47890E+04
 0.15453005E+02 -0.47820E+04
 0.15503004E+02 -0.47680E+04
 0.15553005E+02 -0.47780E+04
 0.15603004E+02 -0.47850E+04
 0.15653006E+02 -0.48210E+04
 0.15703005E+02 -0.47850E+04
 0.15753004E+02 -0.47720E+04
 0.15803005E+02 -0.48120E+04
 0.15853004E+02 -0.47940E+04
 0.15903006E+02 -0.48140E+04
 0.15953005E+02 -0.48090E+04
 0.16003004E+02 -0.48200E+04
 0.16053005E+02 -0.48200E+04
 0.16103004E+02 -0.48280E+04
 0.16153006E+02 -0.48620E+04
 0.16203005E+02 -0.48270E+04
 0.16253004E+02 -0.48870E+04
 0.16303005E+02 -0.49030E+04
 0.16353004E+02 -0.48660E+04
 0.16403006E+02 -0.48820E+04
 0.16453005E+02 -0.48760E+04
 0.16503004E+02 -0.49000E+04
 0.16553005E+02 -0.49180E+04
 0.16603004E+02 -0.49220E+04
 0.16653006E+02 -0.49340E+04
 0.16703005E+02 -0.49550E+04
 0.16753004E+02 -0.49550E+04
 0.16803005E+02 -0.49380E+04
 0.16853004E+02 -0.49540E+04
 0.16903006E+02 -0.49570E+04
 0.16953005E+02 -0.49370E+04
 0.17003004E+02 -0.49610E+04
 0.17053005E+02 -0.49890E+04
 0.17103004E+02 -0.49650E+04
 0.17153006E+02 -0.49690E+04
 0.17203005E+02 -0.49950E+04
 0.17253004E+02 -0.49930E+04
 0.17303005E+02 -0.49550E+04
 0.17353004E+02 -0.49410E+04
 0.17403006E+02 -0.49510E+04
 0.17453005E+02 -0.49490E+04
 0.17503004E+02 -0.49410E+04
 0.17553005E+02 -0.49330E+04
 0.17603004E+02 -0.49510E+04
 0.17653006E+02 -0.49240E+04
 0.17703005E+02 -0.49090E+04
 0.17753004E+02 -0.49150E+04
 0.17803005E+02 -0.49040E+04
 0.17853004E+02 -0.49120E+04
 0.17903006E+02 -0.48930E+04
 0.17953005E+02 -0.48800E+04
 0.18003004E+02 -0.48800E+04
 0.18053005E+02 -0.48590E+04
 0.18103004E+02 -0.48550E+04
 0.18153006E+02 -0.48480E+04
 0.18203005E+02 -0.48470E+04
 0.18253004E+02 -0.48510E+04
 0.18303005E+02 -0.48320E+04
 0.18353004E+02 -0.48270E+04
 0.18403006E+02 -0.48260E+04
 0.18453005E+02 -0.48210E+04
 0.18503004E+02 -0.48310E+04
 0.18553005E+02 -0.48080E+04
 0.18603004E+02 -0.47780E+04
 0.18653006E+02 -0.47640E+04
 0.18703005E+02 -0.47360E+04
 0.18753004E+02 -0.47170E+04
 0.18803005E+02 -0.47040E+04
 0.18853004E+02 -0.47000E+04
 0.18903006E+02 -0.46760E+04
 0.18953005E+02 -0.46400E+04
 0.19003004E+02 -0.46190E+04
 0.19053005E+02 -0.46170E+04
 0.19103004E+02 -0.46240E+04
 0.19153006E+02 -0.46290E+04
 0.19203005E+02 -0.46060E+04
 0.19253004E+02 -0.45420E+04
 0.19303005E+02 -0.45270E+04
 0.19353004E+02 -0.45310E+04
 0.19403004E+02 -0.45130E+04
 0.19453005E+02 -0.44900E+04
 0.19503004E+02 -0.44790E+04
 0.19553005E+02 -0.44810E+04
 0.19603004E+02 -0.44700E+04
 0.19653004E+02 -0.44390E+04
 0.19703005E+02 -0.44480E+04
 0.19753004E+02 -0.44840E+04
 0.19803005E+02 -0.44720E+04
 0.19853004E+02 -0.44700E+04
 0.19903004E+02 -0.44290E+04
 0.19953005E+02 -0.44150E+04
 0.20003004E+02 -0.44200E+04
 0.20053005E+02 -0.44110E+04
 0.20103004E+02 -0.44300E+04
 0.20153004E+02 -0.44020E+04
 0.20203005E+02 -0.44220E+04
 0.20253004E+02 -0.44500E+04
 0.20303005E+02 -0.44540E+04
 0.20353004E+02 -0.44700E+04
 0.20403004E+02 -0.44530E+04
 0.20453005E+02 -0.44420E+04
 0.20503004E+02 -0.44620E+04
 0.20553005E+02 -0.44720E+04
 0.20603004E+02 -0.44400E+04
 0.20653004E+02 -0.44420E+04
 0.20703005E+02 -0.44910E+04
 0.20753004E+02 -0.45020E+04
 0.20803005E+02 -0.44990E+04
 0.20853004E+02 -0.44750E+04
 0.20903004E+02 -0.44580E+04
 0.20953005E+02 -0.44770E+04
 0.21003004E+02 -0.44750E+04
 0.21053005E+02 -0.44770E+04
 0.21103004E+02 -0.44970E+04
 0.21153004E+02 -0.45190E+04
 0.21203005E+02 -0.45360E+04
 0.21253004E+02 -0.45250E+04
 0.21303005E+02 -0.45110E+04
 0.21353004E+02 -0.45390E+04
 0.21403004E+02 -0.45640E+04
 0.21453005E+02 -0.45660E+04
 0.21503004E+02 -0.45660E+04
 0.21553005E+02 -0.45600E+04
 0.21603004E+02 -0.45700E+04
 0.21653004E+02 -0.45750E+04
 0.21703005E+02 -0.45950E+04
 0.21753004E+02 -0.46210E+04
 0.21803005E+02 -0.46070E+04
 0.21853004E+02 -0.46260E+04
 0.21903004E+02 -0.46760E+04
 0.21953005E+02 -0.47020E+04
 0.22003004E+02 -0.47000E+04
 0.22053005E+02 -0.46790E+04
 0.22103004E+02 -0.46790E+04
 0.22153004E+02 -0.47220E+04
 0.22203005E+02 -0.47770E+04
 0.22253004E+02 -0.48070E+04
 0.22303005E+02 -0.48090E+04
 0.22353004E+02 -0.48280E+04
 0.22403004E+02 -0.48580E+04
 0.22453005E+02 -0.48580E+04
 0.22503004E+02 -0.48620E+04
 0.22553005E+02 -0.48930E+04
 0.22603004E+02 -0.49410E+04
 0.22653004E+02 -0.49610E+04
 0.22703005E+02 -0.49800E+04
 0.22753004E+02 -0.49940E+04
 0.22803005E+02 -0.49800E+04
 0.22853004E+02 -0.50150E+04
 0.22903004E+02 -0.50350E+04
 0.22953005E+02 -0.50300E+04
 0.23003004E+02 -0.50490E+04
 0.23053005E+02 -0.50660E+04
 0.23103004E+02 -0.50760E+04
 0.23153004E+02 -0.50710E+04
 0.23203005E+02 -0.50840E+04
 0.23253004E+02 -0.51070E+04
 0.23303005E+02 -0.51220E+04
 0.23353004E+02 -0.51360E+04
 0.23403004E+02 -0.51230E+04
 0.23453005E+02 -0.51140E+04
 0.23503004E+02 -0.51240E+04
 0.23553005E+02 -0.51210E+04
 0.23603004E+02 -0.51160E+04
 0.23653004E+02 -0.51150E+04
 0.23703005E+02 -0.51140E+04
 0.23753004E+02 -0.51060E+04
 0.23803005E+02 -0.50990E+04
 0.23853004E+02 -0.50850E+04
 0.23903004E+02 -0.51000E+04
 0.23953005E+02 -0.50960E+04
 0.24003004E+02 -0.50920E+04
 0.24053005E+02 -0.50950E+04
 0.24103004E+02 -0.50630E+04
 0.24153004E+02 -0.50590E+04
 0.24203005E+02 -0.50360E+04
 0.24253004E+02 -0.50440E+04
 0.24303005E+02 -0.50450E+04
 0.24353004E+02 -0.50080E+04
 0.24403004E+02 -0.50150E+04
 0.24453005E+02 -0.50050E+04
 0.24503004E+02 -0.49840E+04
 0.24553005E+02 -0.49630E+04
 0.24603004E+02 -0.49730E+04
 0.24653004E+02 -0.49760E+04
 0.24703005E+02 -0.49800E+04
 0.24753004E+02 -0.50050E+04
 0.24803005E+02 -0.49510E+04
 0.24853004E+02 -0.49570E+04
 0.24903004E+02 -0.49750E+04
 0.24953005E+02 -0.49530E+04
 0.25003004E+02 -0.49580E+04
 0.25053005E+02 -0.49410E+04
 0.25103004E+02 -0.49270E+04
 0.25153004E+02 -0.49340E+04
 0.25203005E+02 -0.49460E+04
 0.25253004E+02 -0.49220E+04
 0.25303005E+02 -0.48960E+04
 0.25353004E+02 -0.49000E+04
 0.25403004E+02 -0.49080E+04
 0.25453005E+02 -0.49050E+04
 0.25503004E+02 -0.49040E+04
 0.25553005E+02 -0.48830E+04
 0.25603004E+02 -0.48940E+04
 0.25653004E+02 -0.48830E+04
 0.25703005E+02 -0.48440E+04
 0.25753004E+02 -0.48390E+04
 0.25803005E+02 -0.48370E+04
 0.25853004E+02 -0.48770E+04
 0.25903004E+02 -0.48540E+04
 0.25953005E+02 -0.48700E+04
 0.26003004E+02 -0.48940E+04
 0.26053003E+02 -0.48680E+04
 0.26103004E+02 -0.48570E+04
 0.26153004E+02 -0.48240E+04
 0.26203005E+02 -0.48160E+04
 0.26253004E+02 -0.48170E+04
 0.26303003E+02 -0.47870E+04
 0.26353004E+02 -0.47490E+04
 0.26403004E+02 -0.47730E+04
 0.26453005E+02 -0.47800E+04
 0.26503004E+02 -0.47320E+04
 0.26553003E+02 -0.47330E+04
 0.26603004E+02 -0.47370E+04
 0.26653004E+02 -0.46920E+04
 0.26703005E+02 -0.46910E+04
 0.26753004E+02 -0.47060E+04
 0.26803003E+02 -0.46910E+04
 0.26853004E+02 -0.46720E+04
 0.26903004E+02 -0.46670E+04
 0.26953005E+02 -0.46410E+04
 0.27003004E+02 -0.46000E+04
 0.27053003E+02 -0.46220E+04
 0.27103004E+02 -0.46320E+04
 0.27153004E+02 -0.46180E+04
 0.27203005E+02 -0.45930E+04
 0.27253004E+02 -0.45580E+04
 0.27303003E+02 -0.45540E+04
 0.27353004E+02 -0.45540E+04
 0.27403004E+02 -0.45530E+04
 0.27453005E+02 -0.45350E+04
 0.27503004E+02 -0.45250E+04
 0.27553003E+02 -0.45350E+04
 0.27603004E+02 -0.44980E+04
 0.27653004E+02 -0.44660E+04
 0.27703005E+02 -0.44710E+04
 0.27753004E+02 -0.44880E+04
 0.27803003E+02 -0.44830E+04
 0.27853004E+02 -0.44660E+04
 0.27903004E+02 -0.44060E+04
 0.27953005E+02 -0.44010E+04
 0.28003004E+02 -0.44530E+04
 0.28053003E+02 -0.44320E+04
 0.28103004E+02 -0.44210E+04
 0.28153004E+02 -0.43950E+04
 0.28203005E+02 -0.43800E+04
 0.28253004E+02 -0.43990E+04
 0.28303003E+02 -0.43800E+04
 0.28353004E+02 -0.43830E+04
 0.28403004E+02 -0.43870E+04
 0.28453005E+02 -0.43660E+04
 0.28503004E+02 -0.43580E+04
 0.28553003E+02 -0.43670E+04
 0.28603004E+02 -0.43470E+04
 0.28653004E+02 -0.43460E+04
 0.28703005E+02 -0.43560E+04
 0.28753004E+02 -0.43320E+04
 0.28803003E+02 -0.43790E+04
 0.28853004E+02 -0.43770E+04
 0.28903004E+02 -0.43690E+04
 0.28953005E+02 -0.43850E+04
 0.29003004E+02 -0.43830E+04
 0.29053005E+02 -0.44120E+04
 0.29103004E+02 -0.44280E+04
 0.29153004E+02 -0.44290E+04
 0.29203003E+02 -0.44260E+04
 0.29253002E+02 -0.44430E+04
 0.29303005E+02 -0.44590E+04
 0.29353004E+02 -0.44890E+04
 0.29403004E+02 -0.45140E+04
 0.29453003E+02 -0.45240E+04
 0.29503002E+02 -0.45190E+04
 0.29553005E+02 -0.45280E+04
 0.29603004E+02 -0.45480E+04
 0.29653004E+02 -0.45740E+04
 0.29703003E+02 -0.46070E+04
 0.29753002E+02 -0.46050E+04
 0.29803005E+02 -0.45970E+04
 0.29853004E+02 -0.46150E+04
 0.29903004E+02 -0.46410E+04
 0.29953003E+02 -0.46330E+04
 0.30003002E+02 -0.46410E+04
 0.30053005E+02 -0.47020E+04
 0.30103004E+02 -0.47110E+04
 0.30153004E+02 -0.46630E+04
 0.30203003E+02 -0.46530E+04
 0.30253002E+02 -0.46980E+04
 0.30303005E+02 -0.47260E+04
 0.30353004E+02 -0.47560E+04
 0.30403004E+02 -0.47640E+04
 0.30453003E+02 -0.47210E+04
 0.30503002E+02 -0.47180E+04
 0.30553005E+02 -0.47620E+04
 0.30603004E+02 -0.47920E+04
 0.30653004E+02 -0.47730E+04
 0.30703003E+02 -0.47960E+04
 0.30753002E+02 -0.48510E+04
 0.30803005E+02 -0.48560E+04
 0.30853004E+02 -0.48660E+04
 0.30903004E+02 -0.48870E+04
 0.30953003E+02 -0.48690E+04
 0.31003002E+02 -0.48390E+04
 0.31053005E+02 -0.48520E+04
 0.31103004E+02 -0.48590E+04
 0.31153004E+02 -0.48710E+04
 0.31203003E+02 -0.48920E+04
 0.31253002E+02 -0.49060E+04
 0.31303005E+02 -0.49220E+04
 0.31353004E+02 -0.49210E+04
 0.31403004E+02 -0.49480E+04
 0.31453003E+02 -0.49300E+04
 0.31503002E+02 -0.48940E+04
 0.31553005E+02 -0.49180E+04
 0.31603004E+02 -0.49300E+04
 0.31653004E+02 -0.49220E+04
 0.31703003E+02 -0.48780E+04
 0.31753002E+02 -0.48680E+04
 0.31803005E+02 -0.49070E+04
 0.31853004E+02 -0.49010E+04
 0.31903004E+02 -0.48750E+04
 0.31953003E+02 -0.48680E+04
 0.32003002E+02 -0.48720E+04
 0.32053005E+02 -0.48920E+04
 0.32103004E+02 -0.48780E+04
 0.32153004E+02 -0.48350E+04
 0.32203003E+02 -0.48450E+04
 0.32253002E+02 -0.48630E+04
 0.32303005E+02 -0.48450E+04
 0.32353004E+02 -0.48180E+04
 0.32403004E+02 -0.48090E+04
 0.32453003E+02 -0.48220E+04
 0.32503002E+02 -0.48740E+04
 0.32553005E+02 -0.48430E+04
 0.32603004E+02 -0.47960E+04
 0.32653004E+02 -0.48110E+04
 0.32703003E+02 -0.47690E+04
 0.32753002E+02 -0.47580E+04
 0.32803005E+02 -0.47280E+04
 0.32853004E+02 -0.47690E+04
 0.32903004E+02 -0.47710E+04
 0.32953003E+02 -0.46970E+04
 0.33003002E+02 -0.47920E+04
 0.33053005E+02 -0.47380E+04
 0.33103004E+02 -0.46880E+04
 0.33153004E+02 -0.47500E+04
 0.33203003E+02 -0.47230E+04
 0.33253002E+02 -0.47000E+04
 0.33303005E+02 -0.47080E+04
 0.33353004E+02 -0.47090E+04
 0.33403004E+02 -0.46730E+04
 0.33453003E+02 -0.46680E+04
 0.33503002E+02 -0.46570E+04
 0.33553005E+02 -0.46910E+04
 0.33603004E+02 -0.46760E+04
 0.33653004E+02 -0.46340E+04
 0.33703003E+02 -0.46210E+04
 0.33753002E+02 -0.46100E+04
 0.33803005E+02 -0.46820E+04
 0.33853004E+02 -0.46780E+04
 0.33903004E+02 -0.46280E+04
 0.33953003E+02 -0.46150E+04
 0.34003002E+02 -0.46450E+04
 0.34053005E+02 -0.46570E+04
 0.34103004E+02 -0.46350E+04
 0.34153004E+02 -0.46730E+04
 0.34203003E+02 -0.46860E+04
 0.34253002E+02 -0.46770E+04
 0.34303005E+02 -0.47070E+04
 0.34353004E+02 -0.46790E+04
 0.34403004E+02 -0.46650E+04
 0.34453003E+02 -0.46990E+04
 0.34503002E+02 -0.47180E+04
 0.34553005E+02 -0.47080E+04
 0.34603004E+02 -0.46910E+04
 0.34653004E+02 -0.46920E+04
 0.34703003E+02 -0.46700E+04
 0.34753002E+02 -0.46720E+04
 0.34803005E+02 -0.47200E+04
 0.34853004E+02 -0.47540E+04
 0.34903004E+02 -0.47090E+04
 0.34953003E+02 -0.46370E+04
 0.35003002E+02 -0.46770E+04
 0.35053005E+02 -0.47240E+04
 0.35103004E+02 -0.47140E+04
 0.35153004E+02 -0.47020E+04
 0.35203003E+02 -0.46650E+04
 0.35253002E+02 -0.46710E+04
 0.35303005E+02 -0.46990E+04
 0.35353004E+02 -0.47420E+04
 0.35403004E+02 -0.47450E+04
 0.35453003E+02 -0.46840E+04
 0.35503002E+02 -0.47050E+04
 0.35553005E+02 -0.47230E+04
 0.35603004E+02 -0.47190E+04
 0.35653004E+02 -0.47120E+04
 0.35703003E+02 -0.47070E+04
 0.35753002E+02 -0.47020E+04
 0.35803005E+02 -0.47040E+04
 0.35853004E+02 -0.47290E+04
 0.35903004E+02 -0.47390E+04
 0.35953003E+02 -0.47530E+04
 0.36003002E+02 -0.47650E+04
 0.36053005E+02 -0.47820E+04
 0.36103004E+02 -0.47760E+04
 0.36153004E+02 -0.47880E+04
 0.36203003E+02 -0.47830E+04
 0.36253002E+02 -0.47730E+04
 0.36303005E+02 -0.48010E+04
 0.36353004E+02 -0.48330E+04
 0.36403004E+02 -0.48520E+04
 0.36453003E+02 -0.48260E+04
 0.36503002E+02 -0.48090E+04
 0.36553005E+02 -0.48050E+04
 0.36603004E+02 -0.48590E+04
 0.36653004E+02 -0.48810E+04
 0.36703003E+02 -0.48330E+04
 0.36753002E+02 -0.47920E+04
 0.36803005E+02 -0.48020E+04
 0.36853004E+02 -0.48260E+04
 0.36903004E+02 -0.47820E+04
 0.36953003E+02 -0.47890E+04
 0.37003002E+02 -0.47820E+04
 0.37053005E+02 -0.47680E+04
 0.37103004E+02 -0.47910E+04
 0.37153004E+02 -0.47620E+04
 0.37203003E+02 -0.47750E+04
 0.37253002E+02 -0.47680E+04
 0.37303005E+02 -0.47490E+04
 0.37353004E+02 -0.47520E+04
 0.37403004E+02 -0.47440E+04
 0.37453003E+02 -0.47530E+04
 0.37503002E+02 -0.47610E+04
 0.37553005E+02 -0.47540E+04
 0.37603004E+02 -0.47390E+04
 0.37653004E+02 -0.47360E+04
 0.37703003E+02 -0.47340E+04
 0.37753002E+02 -0.47100E+04
 0.37803005E+02 -0.47250E+04
 0.37853004E+02 -0.47710E+04
 0.37903004E+02 -0.47920E+04
 0.37953003E+02 -0.47720E+04
 0.38003002E+02 -0.47350E+04
 0.38053005E+02 -0.47240E+04
 0.38103004E+02 -0.47050E+04
 0.38153004E+02 -0.47270E+04
 0.38203003E+02 -0.47550E+04
 0.38253002E+02 -0.47550E+04
 0.38303005E+02 -0.47790E+04
 0.38353004E+02 -0.47760E+04
 0.38403004E+02 -0.47660E+04
 0.38453003E+02 -0.47720E+04
 0.38503002E+02 -0.47660E+04
 0.38553005E+02 -0.47820E+04
 0.38603004E+02 -0.47670E+04
 0.38653004E+02 -0.47300E+04
 0.38703003E+02 -0.47490E+04
 0.38753002E+02 -0.47610E+04
 0.38803005E+02 -0.47910E+04
 0.38853004E+02 -0.48160E+04
 0.38903004E+02 -0.47980E+04
 0.38953003E+02 -0.47970E+04
 0.39003002E+02 -0.47700E+04
 0.39053005E+02 -0.47710E+04
 0.39103004E+02 -0.48130E+04
 0.39153004E+02 -0.48090E+04
 0.39203003E+02 -0.48010E+04
 0.39253002E+02 -0.48250E+04
 0.39303005E+02 -0.48400E+04
 0.39353004E+02 -0.48170E+04
 0.39403004E+02 -0.48070E+04
 0.39453003E+02 -0.48490E+04
 0.39503002E+02 -0.48640E+04
 0.39553005E+02 -0.48550E+04
 0.39603004E+02 -0.48770E+04
 0.39653004E+02 -0.48940E+04
 0.39703003E+02 -0.48910E+04
 0.39753002E+02 -0.48540E+04
 0.39803005E+02 -0.48890E+04
 0.39853004E+02 -0.49530E+04
 0.39903004E+02 -0.49140E+04
 0.39953003E+02 -0.48600E+04
 0.40003002E+02 -0.48680E+04
 0.40053005E+02 -0.49290E+04
 0.40103004E+02 -0.49630E+04
 0.40153004E+02 -0.49610E+04
 0.40203003E+02 -0.49530E+04
 0.40253002E+02 -0.49710E+04
 0.40303005E+02 -0.49820E+04
 0.40353004E+02 -0.49650E+04
 0.40403004E+02 -0.49550E+04
 0.40453003E+02 -0.49520E+04
 0.40503002E+02 -0.49620E+04
 0.40553005E+02 -0.49430E+04
 0.40603004E+02 -0.49580E+04
 0.40653004E+02 -0.49950E+04
 0.40703003E+02 -0.50060E+04
 0.40753002E+02 -0.50020E+04
 0.40803005E+02 -0.49520E+04
 0.40853004E+02 -0.49300E+04
 0.40903004E+02 -0.49380E+04
 0.40953003E+02 -0.49450E+04
 0.41003002E+02 -0.49680E+04
 0.41053005E+02 -0.49560E+04
 0.41103004E+02 -0.49710E+04
 0.41153004E+02 -0.49750E+04
 0.41203003E+02 -0.49350E+04
 0.41253002E+02 -0.49080E+04
 0.41303005E+02 -0.49000E+04
 0.41353004E+02 -0.49500E+04
 0.41403004E+02 -0.49880E+04
 0.41453003E+02 -0.49640E+04
 0.41503002E+02 -0.49420E+04
 0.41553005E+02 -0.49070E+04
 0.41603004E+02 -0.49000E+04
 0.41653004E+02 -0.49220E+04
 0.41703003E+02 -0.49010E+04
 0.41753002E+02 -0.48990E+04
 0.41803001E+02 -0.48950E+04
 0.41853004E+02 -0.49090E+04
 0.41903004E+02 -0.49220E+04
 0.41953003E+02 -0.49050E+04
 0.42003002E+02 -0.49030E+04
 0.42053001E+02 -0.48780E+04
 0.42103004E+02 -0.48470E+04
 0.42153004E+02 -0.48060E+04
 0.42203003E+02 -0.48150E+04
 0.42253002E+02 -0.48650E+04
 0.42303001E+02 -0.48840E+04
 0.42353004E+02 -0.48720E+04
 0.42403004E+02 -0.48420E+04
 0.42453003E+02 -0.48190E+04
 0.42503002E+02 -0.47820E+04
 0.42553001E+02 -0.47620E+04
 0.42603004E+02 -0.47610E+04
 0.42653004E+02 -0.47580E+04
 0.42703003E+02 -0.47470E+04
 0.42753002E+02 -0.47270E+04
 0.42803001E+02 -0.47070E+04
 0.42853004E+02 -0.46850E+04
 0.42903004E+02 -0.46910E+04
 0.42953003E+02 -0.47020E+04
 0.43003002E+02 -0.46780E+04
 0.43053001E+02 -0.46820E+04
 0.43103004E+02 -0.46730E+04
 0.43153004E+02 -0.46560E+04
 0.43203003E+02 -0.46670E+04
 0.43253002E+02 -0.46450E+04
 0.43303001E+02 -0.46070E+04
 0.43353004E+02 -0.45830E+04
 0.43403004E+02 -0.46150E+04
 0.43453003E+02 -0.46440E+04
 0.43503002E+02 -0.46230E+04
 0.43553001E+02 -0.46050E+04
 0.43603004E+02 -0.45810E+04
 0.43653004E+02 -0.45800E+04
 0.43703003E+02 -0.45950E+04
 0.43753002E+02 -0.45790E+04
 0.43803001E+02 -0.45710E+04
 0.43853004E+02 -0.45740E+04
 0.43903004E+02 -0.45810E+04
 0.43953003E+02 -0.45950E+04
 0.44003002E+02 -0.45680E+04
 0.44053001E+02 -0.45560E+04
 0.44103004E+02 -0.46000E+04
 0.44153004E+02 -0.46100E+04
 0.44203003E+02 -0.45780E+04
 0.44253002E+02 -0.45410E+04
 0.44303001E+02 -0.45120E+04
 0.44353004E+02 -0.45130E+04
 0.44403004E+02 -0.45090E+04
 0.44453003E+02 -0.44920E+04
 0.44503002E+02 -0.44860E+04
 0.44553001E+02 -0.44900E+04
 0.44603004E+02 -0.44830E+04
 0.44653004E+02 -0.44530E+04
 0.44703003E+02 -0.44060E+04
 0.44753002E+02 -0.44260E+04
 0.44803001E+02 -0.44950E+04
 0.44853004E+02 -0.45200E+04
 0.44903004E+02 -0.44960E+04
 0.44953003E+02 -0.44170E+04
 0.45003002E+02 -0.44070E+04
 0.45053001E+02 -0.44420E+04
 0.45103004E+02 -0.44250E+04
 0.45153004E+02 -0.44510E+04
 0.45203003E+02 -0.44550E+04
 0.45253002E+02 -0.44450E+04
 0.45303001E+02 -0.44520E+04
 0.45353004E+02 -0.44660E+04
 0.45403004E+02 -0.44850E+04
 0.45453003E+02 -0.44890E+04
 0.45503002E+02 -0.45080E+04
 0.45553001E+02 -0.44870E+04
 0.45603004E+02 -0.45020E+04
 0.45653004E+02 -0.45560E+04
 0.45703003E+02 -0.45690E+04
 0.45753002E+02 -0.45790E+04
 0.45803001E+02 -0.46180E+04
 0.45853004E+02 -0.46210E+04
 0.45903004E+02 -0.45970E+04
 0.45953003E+02 -0.46210E+04
 0.46003002E+02 -0.46500E+04
 0.46053001E+02 -0.46910E+04
 0.46103004E+02 -0.47100E+04
 0.46153004E+02 -0.47130E+04
 0.46203003E+02 -0.47180E+04
 0.46253002E+02 -0.47430E+04
 0.46303001E+02 -0.47860E+04
 0.46353004E+02 -0.47870E+04
 0.46403004E+02 -0.47740E+04
 0.46453003E+02 -0.47670E+04
 0.46503002E+02 -0.47930E+04
 0.46553001E+02 -0.48330E+04
 0.46603004E+02 -0.48670E+04
 0.46653004E+02 -0.48570E+04
 0.46703003E+02 -0.48250E+04
 0.46753002E+02 -0.48680E+04
 0.46803001E+02 -0.48940E+04
 0.46853004E+02 -0.48930E+04
 0.46903004E+02 -0.48970E+04
 0.46953003E+02 -0.48900E+04
 0.47003002E+02 -0.48820E+04
 0.47053001E+02 -0.48610E+04
 0.47103004E+02 -0.48820E+04
 0.47153004E+02 -0.49390E+04
 0.47203003E+02 -0.49570E+04
 0.47253002E+02 -0.49440E+04
 0.47303001E+02 -0.49270E+04
 0.47353004E+02 -0.49460E+04
 0.47403004E+02 -0.49880E+04
 0.47453003E+02 -0.49900E+04
 0.47503002E+02 -0.49740E+04
 0.47553001E+02 -0.49870E+04
 0.47603004E+02 -0.49860E+04
 0.47653004E+02 -0.49760E+04
 0.47703003E+02 -0.49580E+04
 0.47753002E+02 -0.49470E+04
 0.47803001E+02 -0.50290E+04
 0.47853004E+02 -0.49930E+04
 0.47903004E+02 -0.50050E+04
 0.47953003E+02 -0.50340E+04
 0.48003002E+02 -0.49330E+04
 0.48053001E+02 -0.49400E+04
 0.48103004E+02 -0.49530E+04
 0.48153004E+02 -0.49510E+04
 0.48203003E+02 -0.49450E+04
 0.48253002E+02 -0.49550E+04
 0.48303001E+02 -0.49580E+04
 0.48353004E+02 -0.48990E+04
 0.48403004E+02 -0.48960E+04
 0.48453003E+02 -0.49340E+04
 0.48503002E+02 -0.49160E+04
 0.48553001E+02 -0.49060E+04
 0.48603004E+02 -0.48830E+04
 0.48653004E+02 -0.48540E+04
 0.48703003E+02 -0.48670E+04
 0.48753002E+02 -0.49120E+04
 0.48803001E+02 -0.49350E+04
 0.48853004E+02 -0.49070E+04
 0.48903004E+02 -0.48930E+04
 0.48953003E+02 -0.48590E+04
 0.49003002E+02 -0.48120E+04
 0.49053001E+02 -0.48260E+04
 0.49103004E+02 -0.49050E+04
 0.49153004E+02 -0.49200E+04
 0.49203003E+02 -0.49030E+04
 0.49253002E+02 -0.48990E+04
 0.49303001E+02 -0.48580E+04
 0.49353004E+02 -0.48450E+04
 0.49403004E+02 -0.48280E+04
 0.49453003E+02 -0.48240E+04
 0.49503002E+02 -0.48510E+04
 0.49553001E+02 -0.48720E+04
 0.49603004E+02 -0.48880E+04
 0.49653004E+02 -0.48600E+04
 0.49703003E+02 -0.48170E+04
 0.49753002E+02 -0.48150E+04
 0.49803001E+02 -0.48070E+04
 0.49853004E+02 -0.47940E+04
 0.49903004E+02 -0.48050E+04
 0.49953003E+02 -0.48110E+04
 0.50003002E+02 -0.48030E+04
 0.50053001E+02 -0.47890E+04
 0.50103004E+02 -0.47550E+04
 0.50153004E+02 -0.47360E+04
 0.50203003E+02 -0.47390E+04
 0.50253002E+02 -0.47930E+04
 0.50303001E+02 -0.48270E+04
 0.50353004E+02 -0.47940E+04
 0.50403004E+02 -0.47560E+04
 0.50453003E+02 -0.47050E+04
 0.50503002E+02 -0.46700E+04
 0.50553001E+02 -0.46720E+04
 0.50603004E+02 -0.47090E+04
 0.50653004E+02 -0.47590E+04
 0.50703003E+02 -0.47340E+04
 0.50753002E+02 -0.46490E+04
 0.50803001E+02 -0.46070E+04
 0.50853004E+02 -0.45720E+04
 0.50903004E+02 -0.45570E+04
 0.50953003E+02 -0.45990E+04
 0.51003002E+02 -0.46260E+04
 0.51053001E+02 -0.46120E+04
 0.51103004E+02 -0.45930E+04
 0.51153004E+02 -0.45950E+04
 0.51203003E+02 -0.45600E+04
 0.51253002E+02 -0.45630E+04
 0.51303001E+02 -0.46100E+04
 0.51353004E+02 -0.45850E+04
 0.51403004E+02 -0.45510E+04
 0.51453003E+02 -0.45660E+04
 0.51503002E+02 -0.45440E+04
 0.51553001E+02 -0.45000E+04
 0.51603004E+02 -0.44720E+04
 0.51653004E+02 -0.44810E+04
 0.51703003E+02 -0.44950E+04
 0.51753002E+02 -0.44570E+04
 0.51803001E+02 -0.44730E+04
 0.51853004E+02 -0.45130E+04
 0.51903004E+02 -0.45240E+04
 0.51953003E+02 -0.45330E+04
 0.52003002E+02 -0.44970E+04
 0.52053001E+02 -0.45060E+04
 0.52103004E+02 -0.45760E+04
 0.52153004E+02 -0.46350E+04
 0.52203003E+02 -0.46490E+04
 0.52253002E+02 -0.45980E+04
 0.52303001E+02 -0.45930E+04
 0.52353004E+02 -0.46040E+04
 0.52403004E+02 -0.46160E+04
 0.52453003E+02 -0.46340E+04
 0.52503002E+02 -0.46520E+04
 0.52553001E+02 -0.47050E+04
 0.52603004E+02 -0.47060E+04
 0.52653004E+02 -0.46980E+04
 0.52703003E+02 -0.46820E+04
 0.52753002E+02 -0.47020E+04
 0.52803001E+02 -0.47860E+04
 0.52853004E+02 -0.48110E+04
 0.52903004E+02 -0.47650E+04
 0.52953003E+02 -0.46960E+04
 0.53003002E+02 -0.47340E+04
 0.53053001E+02 -0.47860E+04
 0.53103004E+02 -0.48260E+04
 0.53153004E+02 -0.48850E+04
 0.53203003E+02 -0.48040E+04
 0.53253002E+02 -0.47440E+04
 0.53303001E+02 -0.47720E+04
 0.53353004E+02 -0.48180E+04
 0.53403004E+02 -0.48780E+04
 0.53453003E+02 -0.48950E+04
 0.53503002E+02 -0.48610E+04
 0.53553001E+02 -0.47930E+04
 0.53603004E+02 -0.48070E+04
 0.53653004E+02 -0.48670E+04
 0.53703003E+02 -0.48320E+04
 0.53753002E+02 -0.48530E+04
 0.53803001E+02 -0.48910E+04
 0.53853004E+02 -0.48260E+04
 0.53903004E+02 -0.48030E+04
 0.53953003E+02 -0.48380E+04
 0.54003002E+02 -0.48680E+04
 0.54053001E+02 -0.48620E+04
 0.54103004E+02 -0.48710E+04
 0.54153004E+02 -0.48800E+04
 0.54203003E+02 -0.48170E+04
 0.54253002E+02 -0.48040E+04
 0.54303001E+02 -0.48570E+04
 0.54353004E+02 -0.48750E+04
 0.54403004E+02 -0.48240E+04
 0.54453003E+02 -0.48020E+04
 0.54503002E+02 -0.48310E+04
 0.54553001E+02 -0.48540E+04
 0.54603004E+02 -0.48860E+04
 0.54653004E+02 -0.48650E+04
 0.54703003E+02 -0.48190E+04
 0.54753002E+02 -0.48300E+04
 0.54803001E+02 -0.48850E+04
 0.54853001E+02 -0.49190E+04
 0.54903004E+02 -0.48680E+04
 0.54953003E+02 -0.47960E+04
 0.55003002E+02 -0.47910E+04
 0.55053001E+02 -0.48160E+04
 0.55103001E+02 -0.48500E+04
 0.55153004E+02 -0.48880E+04
 0.55203003E+02 -0.48510E+04
 0.55253002E+02 -0.47860E+04
 0.55303001E+02 -0.47640E+04
 0.55353001E+02 -0.47480E+04
 0.55403004E+02 -0.47570E+04
 0.55453003E+02 -0.47770E+04
 0.55503002E+02 -0.47830E+04
 0.55553001E+02 -0.47650E+04
 0.55603001E+02 -0.47090E+04
 0.55653004E+02 -0.46960E+04
 0.55703003E+02 -0.47090E+04
 0.55753002E+02 -0.47060E+04
 0.55803001E+02 -0.46910E+04
 0.55853001E+02 -0.46580E+04
 0.55903004E+02 -0.46630E+04
 0.55953003E+02 -0.46830E+04
 0.56003002E+02 -0.46840E+04
 0.56053001E+02 -0.46550E+04
 0.56103001E+02 -0.46150E+04
 0.56153004E+02 -0.45810E+04
 0.56203003E+02 -0.46050E+04
 0.56253002E+02 -0.46400E+04
 0.56303001E+02 -0.46560E+04
 0.56353001E+02 -0.46240E+04
 0.56403004E+02 -0.45670E+04
 0.56453003E+02 -0.45890E+04
 0.56503002E+02 -0.45780E+04
 0.56553001E+02 -0.45850E+04
 0.56603001E+02 -0.45720E+04
 0.56653004E+02 -0.45300E+04
 0.56703003E+02 -0.45380E+04
 0.56753002E+02 -0.45190E+04
 0.56803001E+02 -0.45410E+04
 0.56853001E+02 -0.45900E+04
 0.56903004E+02 -0.46240E+04
 0.56953003E+02 -0.45940E+04
 0.57003002E+02 -0.45240E+04
 0.57053001E+02 -0.45100E+04
 0.57103001E+02 -0.45240E+04
 0.57153004E+02 -0.46000E+04
 0.57203003E+02 -0.46740E+04
 0.57253002E+02 -0.46300E+04
 0.57303001E+02 -0.45390E+04
 0.57353001E+02 -0.44730E+04
 0.57403004E+02 -0.45000E+04
 0.57453003E+02 -0.45850E+04
 0.57503002E+02 -0.46100E+04
 0.57553001E+02 -0.45860E+04
 0.57603001E+02 -0.45160E+04
 0.57653004E+02 -0.45080E+04
 0.57703003E+02 -0.45980E+04
 0.57753002E+02 -0.46190E+04
 0.57803001E+02 -0.46240E+04
 0.57853001E+02 -0.45950E+04
 0.57903004E+02 -0.45390E+04
 0.57953003E+02 -0.45490E+04
 0.58003002E+02 -0.45780E+04
 0.58053001E+02 -0.46080E+04
 0.58103001E+02 -0.46200E+04
 0.58153004E+02 -0.46300E+04
 0.58203003E+02 -0.46150E+04
 0.58253002E+02 -0.45770E+04
 0.58303001E+02 -0.45840E+04
 0.58353001E+02 -0.46390E+04
 0.58403004E+02 -0.46920E+04
 0.58453003E+02 -0.46400E+04
 0.58503002E+02 -0.45390E+04
 0.58553001E+02 -0.45110E+04
 0.58603001E+02 -0.45720E+04
 0.58653004E+02 -0.46530E+04
 0.58703003E+02 -0.46650E+04
 0.58753002E+02 -0.46480E+04
 0.58803001E+02 -0.46300E+04
 0.58853001E+02 -0.46240E+04
 0.58903004E+02 -0.46060E+04
 0.58953003E+02 -0.46210E+04
 0.59003002E+02 -0.46810E+04
 0.59053001E+02 -0.46850E+04
 0.59103001E+02 -0.46730E+04
 0.59153004E+02 -0.46100E+04
 0.59203003E+02 -0.45830E+04
 0.59253002E+02 -0.46350E+04
 0.59303001E+02 -0.46970E+04
 0.59353001E+02 -0.47070E+04
 0.59403004E+02 -0.46480E+04
 0.59453003E+02 -0.46270E+04
 0.59503002E+02 -0.46240E+04
 0.59553001E+02 -0.46460E+04
 0.59603001E+02 -0.46540E+04
 0.59653004E+02 -0.46480E+04
 0.59703003E+02 -0.47000E+04
 0.59753002E+02 -0.47240E+04
 0.59803001E+02 -0.46590E+04
 0.59853001E+02 -0.46140E+04
 0.59903004E+02 -0.46140E+04
 0.59953003E+02 -0.46570E+04
 0.60003002E+02 -0.47160E+04
 0.60053001E+02 -0.46840E+04
 0.60103001E+02 -0.46850E+04
 0.60153004E+02 -0.46800E+04
 0.60203003E+02 -0.46880E+04
 0.60253002E+02 -0.46970E+04
 0.60303001E+02 -0.46820E+04
 0.60353001E+02 -0.47050E+04
 0.60403004E+02 -0.46810E+04
 0.60453003E+02 -0.46260E+04
 0.60503002E+02 -0.45800E+04
 0.60553001E+02 -0.46010E+04
 0.60603001E+02 -0.46930E+04
 0.60653004E+02 -0.47450E+04
 0.60703003E+02 -0.47170E+04
 0.60753002E+02 -0.46860E+04
 0.60803001E+02 -0.46930E+04
 0.60853001E+02 -0.47740E+04
 0.60903004E+02 -0.47700E+04
 0.60953003E+02 -0.47080E+04
 0.61003002E+02 -0.47200E+04
 0.61053001E+02 -0.47320E+04
 0.61103004E+02 -0.47400E+04
 0.61153000E+02 -0.46340E+04
 0.61203003E+02 -0.46060E+04
 0.61252998E+02 -0.47530E+04
 0.61303001E+02 -0.48520E+04
 0.61353004E+02 -0.48690E+04
 0.61403000E+02 -0.47430E+04
 0.61453003E+02 -0.46650E+04
 0.61502998E+02 -0.47470E+04
 0.61553001E+02 -0.48380E+04
 0.61603004E+02 -0.49210E+04
 0.61653000E+02 -0.48830E+04
 0.61703003E+02 -0.47890E+04
 0.61752998E+02 -0.47730E+04
 0.61803001E+02 -0.47670E+04
 0.61853004E+02 -0.48120E+04
 0.61903000E+02 -0.48840E+04
 0.61953003E+02 -0.49970E+04
 0.62002998E+02 -0.49890E+04
 0.62053001E+02 -0.48080E+04
 0.62103004E+02 -0.47490E+04
 0.62153000E+02 -0.48260E+04
 0.62203003E+02 -0.49630E+04
 0.62252998E+02 -0.50210E+04
 0.62303001E+02 -0.49400E+04
 0.62353004E+02 -0.48420E+04
 0.62403000E+02 -0.48140E+04
 0.62453003E+02 -0.48190E+04
 0.62502998E+02 -0.48460E+04
 0.62553001E+02 -0.49170E+04
 0.62603004E+02 -0.49980E+04
 0.62653000E+02 -0.50180E+04
 0.62703003E+02 -0.48210E+04
 0.62752998E+02 -0.46670E+04
 0.62803001E+02 -0.47620E+04
 0.62853004E+02 -0.49120E+04
 0.62903000E+02 -0.49880E+04
 0.62953003E+02 -0.48830E+04
 0.63002998E+02 -0.47450E+04
 0.63053001E+02 -0.47220E+04
 0.63103004E+02 -0.47930E+04
 0.63153000E+02 -0.49040E+04
 0.63203003E+02 -0.49000E+04
 0.63252998E+02 -0.48340E+04
 0.63303001E+02 -0.47910E+04
 0.63353004E+02 -0.47280E+04
 0.63403000E+02 -0.46420E+04
 0.63453003E+02 -0.46810E+04
 0.63502998E+02 -0.48380E+04
 0.63553001E+02 -0.49120E+04
 0.63603004E+02 -0.48890E+04
 0.63653000E+02 -0.47620E+04
 0.63703003E+02 -0.46700E+04
 0.63752998E+02 -0.47170E+04
 0.63803001E+02 -0.48020E+04
 0.63853004E+02 -0.48670E+04
 0.63903000E+02 -0.48140E+04
 0.63953003E+02 -0.47450E+04
 0.64002998E+02 -0.47420E+04
 0.64053001E+02 -0.47260E+04
 0.64103004E+02 -0.47420E+04
 0.64153000E+02 -0.47870E+04
 0.64203003E+02 -0.48380E+04
 0.64252998E+02 -0.48110E+04
 0.64303001E+02 -0.47420E+04
 0.64353004E+02 -0.47200E+04
 0.64403000E+02 -0.46970E+04
 0.64453003E+02 -0.47440E+04
 0.64502998E+02 -0.48260E+04
 0.64553001E+02 -0.48270E+04
 0.64603004E+02 -0.47760E+04
 0.64653000E+02 -0.47260E+04
 0.64703003E+02 -0.47270E+04
 0.64752998E+02 -0.47770E+04
 0.64803001E+02 -0.48120E+04
 0.64853004E+02 -0.48100E+04
 0.64903000E+02 -0.47730E+04
 0.64953003E+02 -0.47500E+04
 0.65002998E+02 -0.47760E+04
 0.65053001E+02 -0.47930E+04
 0.65103004E+02 -0.47930E+04
 0.65153000E+02 -0.47860E+04
 0.65203003E+02 -0.48320E+04
 0.65252998E+02 -0.48260E+04
 0.65303001E+02 -0.47230E+04
 0.65353004E+02 -0.47360E+04
 0.65403000E+02 -0.48150E+04
 0.65453003E+02 -0.48040E+04
 0.65502998E+02 -0.47700E+04
 0.65553001E+02 -0.48520E+04
 0.65603004E+02 -0.48670E+04
 0.65653000E+02 -0.47810E+04
 0.65703003E+02 -0.47940E+04
 0.65752998E+02 -0.48600E+04
 0.65803001E+02 -0.48900E+04
 0.65853004E+02 -0.48880E+04
 0.65903000E+02 -0.48920E+04
 0.65953003E+02 -0.48820E+04
 0.66002998E+02 -0.48820E+04
 0.66053001E+02 -0.48790E+04
 0.66103004E+02 -0.48750E+04
 0.66153000E+02 -0.49130E+04
 0.66203003E+02 -0.49200E+04
 0.66252998E+02 -0.48820E+04
 0.66303001E+02 -0.48640E+04
 0.66353004E+02 -0.48690E+04
 0.66403000E+02 -0.48940E+04
 0.66453003E+02 -0.48940E+04
 0.66502998E+02 -0.48650E+04
 0.66553001E+02 -0.48510E+04
 0.66603004E+02 -0.48740E+04
 0.66653000E+02 -0.48910E+04
 0.66703003E+02 -0.48430E+04
 0.66752998E+02 -0.48000E+04
 0.66803001E+02 -0.48400E+04
 0.66853004E+02 -0.48540E+04
 0.66903000E+02 -0.48440E+04
 0.66953003E+02 -0.48680E+04
 0.67002998E+02 -0.48680E+04
 0.67053001E+02 -0.48230E+04
 0.67103004E+02 -0.48090E+04
 0.67153000E+02 -0.48040E+04
 0.67203003E+02 -0.47730E+04
 0.67252998E+02 -0.48170E+04
 0.67303001E+02 -0.48680E+04
 0.67353004E+02 -0.48670E+04
 0.67403000E+02 -0.48250E+04
 0.67453003E+02 -0.47870E+04
 0.67502998E+02 -0.47770E+04
 0.67553001E+02 -0.47810E+04
 0.67603004E+02 -0.48160E+04
 0.67653000E+02 -0.47780E+04
 0.67703003E+02 -0.47640E+04
 0.67752998E+02 -0.48290E+04
 0.67803001E+02 -0.47450E+04
 0.67853004E+02 -0.47520E+04
 0.67903000E+02 -0.47740E+04
 0.67953003E+02 -0.47210E+04
 0.68002998E+02 -0.47980E+04
 0.68053001E+02 -0.48140E+04
 0.68103004E+02 -0.47990E+04
 0.68153000E+02 -0.48240E+04
 0.68203003E+02 -0.47880E+04
 0.68252998E+02 -0.47180E+04
 0.68303001E+02 -0.47680E+04
 0.68353004E+02 -0.48380E+04
 0.68403000E+02 -0.48080E+04
 0.68453003E+02 -0.48580E+04
 0.68502998E+02 -0.48950E+04
 0.68553001E+02 -0.48280E+04
 0.68603004E+02 -0.48120E+04
 0.68653000E+02 -0.48990E+04
 0.68703003E+02 -0.49510E+04
 0.68752998E+02 -0.49160E+04
 0.68803001E+02 -0.48970E+04
 0.68853004E+02 -0.48790E+04
 0.68903000E+02 -0.48470E+04
 0.68953003E+02 -0.48810E+04
 0.69002998E+02 -0.49030E+04
 0.69053001E+02 -0.48630E+04
 0.69103004E+02 -0.48580E+04
 0.69153000E+02 -0.48900E+04
 0.69203003E+02 -0.48800E+04
 0.69252998E+02 -0.48560E+04
 0.69303001E+02 -0.48800E+04
 0.69353004E+02 -0.49070E+04
 0.69403000E+02 -0.48620E+04
 0.69453003E+02 -0.48060E+04
 0.69502998E+02 -0.48450E+04
 0.69553001E+02 -0.48640E+04
 0.69603004E+02 -0.48180E+04
 0.69653000E+02 -0.47650E+04
 0.69703003E+02 -0.47990E+04
 0.69752998E+02 -0.48230E+04
 0.69803001E+02 -0.47870E+04
 0.69853004E+02 -0.47460E+04
 0.69903000E+02 -0.46960E+04
 0.69953003E+02 -0.47270E+04
 0.70002998E+02 -0.47390E+04
 0.70053001E+02 -0.47370E+04
 0.70103004E+02 -0.47340E+04
 0.70153000E+02 -0.47220E+04
 0.70203003E+02 -0.46650E+04
 0.70252998E+02 -0.46140E+04
 0.70303001E+02 -0.46350E+04
 0.70353004E+02 -0.47020E+04
 0.70403000E+02 -0.47520E+04
 0.70453003E+02 -0.47110E+04
 0.70502998E+02 -0.46560E+04
 0.70553001E+02 -0.46070E+04
 0.70603004E+02 -0.45640E+04
 0.70653000E+02 -0.45800E+04
 0.70703003E+02 -0.45940E+04
 0.70752998E+02 -0.46160E+04
 0.70803001E+02 -0.46250E+04
 0.70853004E+02 -0.46130E+04
 0.70903000E+02 -0.45740E+04
 0.70953003E+02 -0.45000E+04
 0.71002998E+02 -0.45170E+04
 0.71053001E+02 -0.45180E+04
 0.71103004E+02 -0.45200E+04
 0.71153000E+02 -0.45510E+04
 0.71203003E+02 -0.45640E+04
 0.71252998E+02 -0.45420E+04
 0.71303001E+02 -0.44490E+04
 0.71353004E+02 -0.44030E+04
 0.71403000E+02 -0.44000E+04
 0.71453003E+02 -0.44750E+04
 0.71502998E+02 -0.45420E+04
 0.71553001E+02 -0.44870E+04
 0.71603004E+02 -0.44340E+04
 0.71653000E+02 -0.43740E+04
 0.71703003E+02 -0.43740E+04
 0.71752998E+02 -0.43660E+04
 0.71803001E+02 -0.43730E+04
 0.71853004E+02 -0.43950E+04
 0.71903000E+02 -0.43990E+04
 0.71953003E+02 -0.44790E+04
 0.72002998E+02 -0.44890E+04
 0.72053001E+02 -0.43880E+04
 0.72103004E+02 -0.43230E+04
 0.72153000E+02 -0.44170E+04
 0.72203003E+02 -0.44150E+04
 0.72252998E+02 -0.44100E+04
 0.72303001E+02 -0.44590E+04
 0.72353004E+02 -0.43960E+04
 0.72403000E+02 -0.43660E+04
 0.72453003E+02 -0.44020E+04
 0.72502998E+02 -0.44890E+04
 0.72553001E+02 -0.45130E+04
 0.72603004E+02 -0.44750E+04
 0.72653000E+02 -0.44250E+04
 0.72703003E+02 -0.44060E+04
 0.72752998E+02 -0.45080E+04
 0.72803001E+02 -0.46220E+04
 0.72853004E+02 -0.46070E+04
 0.72903000E+02 -0.44850E+04
 0.72953003E+02 -0.44860E+04
 0.73002998E+02 -0.45550E+04
 0.73053001E+02 -0.46130E+04
 0.73103004E+02 -0.46400E+04
 0.73153000E+02 -0.46370E+04
 0.73203003E+02 -0.46160E+04
 0.73252998E+02 -0.45600E+04
 0.73303001E+02 -0.45870E+04
 0.73353004E+02 -0.46300E+04
 0.73403000E+02 -0.47310E+04
 0.73453003E+02 -0.47400E+04
 0.73502998E+02 -0.47580E+04
 0.73553001E+02 -0.47630E+04
 0.73603004E+02 -0.47190E+04
 0.73653000E+02 -0.47940E+04
 0.73703003E+02 -0.48080E+04
 0.73752998E+02 -0.48370E+04
 0.73803001E+02 -0.47990E+04
 0.73853004E+02 -0.47990E+04
 0.73903000E+02 -0.48730E+04
 0.73953003E+02 -0.49300E+04
 0.74002998E+02 -0.49180E+04
 0.74053001E+02 -0.47710E+04
 0.74103004E+02 -0.47390E+04
 0.74153000E+02 -0.49040E+04
 0.74203003E+02 -0.49760E+04
 0.74252998E+02 -0.49740E+04
 0.74303001E+02 -0.49690E+04
 0.74353004E+02 -0.48960E+04
 0.74403000E+02 -0.48460E+04
 0.74453003E+02 -0.48680E+04
 0.74502998E+02 -0.49890E+04
 0.74553001E+02 -0.50240E+04
 0.74603004E+02 -0.49810E+04
 0.74653000E+02 -0.49510E+04
 0.74703003E+02 -0.48840E+04
 0.74752998E+02 -0.49190E+04
 0.74803001E+02 -0.50070E+04
 0.74853004E+02 -0.49590E+04
 0.74903000E+02 -0.49680E+04
 0.74953003E+02 -0.49560E+04
 0.75002998E+02 -0.49930E+04
 0.75053001E+02 -0.50040E+04
 0.75103004E+02 -0.49730E+04
 0.75153000E+02 -0.49900E+04
 0.75203003E+02 -0.49180E+04
 0.75252998E+02 -0.49840E+04
 0.75303001E+02 -0.50230E+04
 0.75353004E+02 -0.50360E+04
 0.75403000E+02 -0.50290E+04
 0.75453003E+02 -0.50030E+04
 0.75502998E+02 -0.49730E+04
 0.75553001E+02 -0.48740E+04
 0.75603004E+02 -0.48580E+04
 0.75653000E+02 -0.49800E+04
 0.75703003E+02 -0.50500E+04
 0.75752998E+02 -0.49870E+04
 0.75803001E+02 -0.49510E+04
 0.75853004E+02 -0.49010E+04
 0.75903000E+02 -0.49060E+04
 0.75953003E+02 -0.49860E+04
 0.76002998E+02 -0.50120E+04
 0.76053001E+02 -0.49350E+04
 0.76103004E+02 -0.48830E+04
 0.76153000E+02 -0.48740E+04
 0.76203003E+02 -0.49010E+04
 0.76252998E+02 -0.49700E+04
 0.76303001E+02 -0.49960E+04
 0.76353004E+02 -0.49150E+04
 0.76403000E+02 -0.48800E+04
 0.76453003E+02 -0.49380E+04
 0.76502998E+02 -0.49790E+04
 0.76553001E+02 -0.49920E+04
 0.76603004E+02 -0.49570E+04
 0.76653000E+02 -0.48180E+04
 0.76703003E+02 -0.46970E+04
 0.76752998E+02 -0.48340E+04
 0.76803001E+02 -0.49530E+04
 0.76853004E+02 -0.49470E+04
 0.76903000E+02 -0.49500E+04
 0.76953003E+02 -0.48570E+04
 0.77002998E+02 -0.47480E+04
 0.77053001E+02 -0.47810E+04
 0.77103004E+02 -0.48470E+04
 0.77153000E+02 -0.49340E+04
 0.77203003E+02 -0.48700E+04
 0.77252998E+02 -0.47360E+04
 0.77303001E+02 -0.47380E+04
 0.77353004E+02 -0.47540E+04
 0.77403000E+02 -0.48070E+04
 0.77453003E+02 -0.47960E+04
 0.77502998E+02 -0.47320E+04
 0.77553001E+02 -0.47840E+04
 0.77603004E+02 -0.47180E+04
 0.77653000E+02 -0.47450E+04
 0.77703003E+02 -0.48700E+04
 0.77752998E+02 -0.47400E+04
 0.77803001E+02 -0.47360E+04
 0.77853004E+02 -0.46000E+04
 0.77903000E+02 -0.45430E+04
 0.77953003E+02 -0.47030E+04
 0.78002998E+02 -0.48350E+04
 0.78053001E+02 -0.48160E+04
 0.78103004E+02 -0.46340E+04
 0.78153000E+02 -0.45650E+04
 0.78203003E+02 -0.45800E+04
 0.78252998E+02 -0.46360E+04
 0.78303001E+02 -0.46820E+04
 0.78353004E+02 -0.46310E+04
 0.78403000E+02 -0.46530E+04
 0.78453003E+02 -0.47840E+04
 0.78502998E+02 -0.45850E+04
 0.78553001E+02 -0.45620E+04
 0.78603004E+02 -0.45820E+04
 0.78653000E+02 -0.44830E+04
 0.78703003E+02 -0.46320E+04
 0.78752998E+02 -0.47200E+04
 0.78803001E+02 -0.46710E+04
 0.78853004E+02 -0.46710E+04
 0.78903000E+02 -0.45970E+04
 0.78953003E+02 -0.45140E+04
 0.79002998E+02 -0.44690E+04
 0.79053001E+02 -0.45240E+04
 0.79103004E+02 -0.47030E+04
 0.79153000E+02 -0.47390E+04
 0.79203003E+02 -0.46720E+04
 0.79252998E+02 -0.44590E+04
 0.79303001E+02 -0.44710E+04
 0.79353004E+02 -0.45900E+04
 0.79403000E+02 -0.45830E+04
 0.79453003E+02 -0.46660E+04
 0.79502998E+02 -0.46980E+04
 0.79553001E+02 -0.45170E+04
 0.79603004E+02 -0.45060E+04
 0.79653000E+02 -0.45730E+04
 0.79703003E+02 -0.46710E+04
 0.79752998E+02 -0.46550E+04
 0.79803001E+02 -0.45230E+04
 0.79853004E+02 -0.46190E+04
 0.79903000E+02 -0.46520E+04
 0.79953003E+02 -0.46400E+04
 0.80002998E+02 -0.45600E+04
 0.80053001E+02 -0.45550E+04
 0.80103004E+02 -0.45980E+04
 0.80153000E+02 -0.45600E+04
 0.80203003E+02 -0.45190E+04
 0.80252998E+02 -0.46290E+04
 0.80303001E+02 -0.45870E+04
 0.80353004E+02 -0.45150E+04
 0.80403000E+02 -0.46040E+04
 0.80453003E+02 -0.45560E+04
 0.80502998E+02 -0.45310E+04
 0.80553001E+02 -0.45270E+04
 0.80603004E+02 -0.46430E+04
 0.80653000E+02 -0.46420E+04
 0.80703003E+02 -0.44910E+04
 0.80752998E+02 -0.45250E+04
 0.80803001E+02 -0.46170E+04
 0.80853004E+02 -0.45580E+04
 0.80903000E+02 -0.45700E+04
 0.80953003E+02 -0.44820E+04
 0.81002998E+02 -0.44810E+04
 0.81053001E+02 -0.45860E+04
 0.81103004E+02 -0.45620E+04
 0.81153000E+02 -0.46200E+04
 0.81203003E+02 -0.46370E+04
 0.81252998E+02 -0.46290E+04
 0.81303001E+02 -0.45440E+04
 0.81353004E+02 -0.45370E+04
 0.81403000E+02 -0.45690E+04
 0.81453003E+02 -0.46010E+04
 0.81502998E+02 -0.45220E+04
 0.81553001E+02 -0.45440E+04
 0.81603004E+02 -0.46480E+04
 0.81653000E+02 -0.46410E+04
 0.81703003E+02 -0.46090E+04
 0.81752998E+02 -0.45850E+04
 0.81803001E+02 -0.46120E+04
 0.81853004E+02 -0.45880E+04
 0.81903000E+02 -0.47280E+04
 0.81953003E+02 -0.46720E+04
 0.82002998E+02 -0.45990E+04
 0.82053001E+02 -0.46580E+04
 0.82103004E+02 -0.46600E+04
 0.82153000E+02 -0.46340E+04
 0.82203003E+02 -0.46930E+04
 0.82252998E+02 -0.47490E+04
 0.82303001E+02 -0.46820E+04
 0.82353004E+02 -0.47000E+04
 0.82403000E+02 -0.46730E+04
 0.82453003E+02 -0.46730E+04
 0.82502998E+02 -0.47900E+04
 0.82553001E+02 -0.48480E+04
 0.82603004E+02 -0.47300E+04
 0.82653000E+02 -0.47990E+04
 0.82703003E+02 -0.47400E+04
 0.82752998E+02 -0.47320E+04
 0.82803001E+02 -0.48350E+04
 0.82853004E+02 -0.48150E+04
 0.82903000E+02 -0.47890E+04
 0.82953003E+02 -0.47540E+04
 0.83002998E+02 -0.48580E+04
 0.83053001E+02 -0.48410E+04
 0.83103004E+02 -0.48840E+04
 0.83153000E+02 -0.48280E+04
 0.83203003E+02 -0.47910E+04
 0.83252998E+02 -0.48310E+04
 0.83303001E+02 -0.49360E+04
 0.83353004E+02 -0.49660E+04
 0.83403000E+02 -0.48600E+04
 0.83453003E+02 -0.48540E+04
 0.83502998E+02 -0.48170E+04
 0.83553001E+02 -0.49470E+04
 0.83603004E+02 -0.49630E+04
 0.83653000E+02 -0.48670E+04
 0.83703003E+02 -0.49010E+04
 0.83752998E+02 -0.48870E+04
 0.83803001E+02 -0.49330E+04
 0.83853004E+02 -0.50110E+04
 0.83903000E+02 -0.49750E+04
 0.83953003E+02 -0.49910E+04
 0.84002998E+02 -0.48880E+04
 0.84053001E+02 -0.49390E+04
 0.84103004E+02 -0.50440E+04
 0.84153000E+02 -0.49590E+04
 0.84203003E+02 -0.49670E+04
 0.84252998E+02 -0.48760E+04
 0.84303001E+02 -0.49510E+04
 0.84353004E+02 -0.50040E+04
 0.84403000E+02 -0.50920E+04
 0.84453003E+02 -0.51180E+04
 0.84502998E+02 -0.50300E+04
 0.84553001E+02 -0.50000E+04
 0.84603004E+02 -0.49720E+04
 0.84653000E+02 -0.50340E+04
 0.84703003E+02 -0.51050E+04
 0.84752998E+02 -0.51710E+04
 0.84803001E+02 -0.50250E+04
 0.84853004E+02 -0.50760E+04
 0.84903000E+02 -0.51280E+04
 0.84953003E+02 -0.51420E+04
 0.85002998E+02 -0.51610E+04
 0.85053001E+02 -0.51290E+04
 0.85103004E+02 -0.51250E+04
 0.85153000E+02 -0.50800E+04
 0.85203003E+02 -0.50940E+04
 0.85252998E+02 -0.50950E+04
 0.85303001E+02 -0.51660E+04
 0.85353004E+02 -0.51920E+04
 0.85403000E+02 -0.52320E+04
 0.85453003E+02 -0.51980E+04
 0.85502998E+02 -0.51830E+04
 0.85553001E+02 -0.51410E+04
 0.85603004E+02 -0.50310E+04
 0.85653000E+02 -0.49890E+04
 0.85703003E+02 -0.50920E+04
 0.85752998E+02 -0.51820E+04
 0.85803001E+02 -0.52770E+04
 0.85853004E+02 -0.52390E+04
 0.85903000E+02 -0.51080E+04
 0.85953003E+02 -0.49880E+04
 0.86002998E+02 -0.49190E+04
 0.86053001E+02 -0.50950E+04
 0.86103004E+02 -0.51360E+04
 0.86153000E+02 -0.51740E+04
 0.86203003E+02 -0.51050E+04
 0.86252998E+02 -0.50560E+04
 0.86303001E+02 -0.50140E+04
 0.86353004E+02 -0.50060E+04
 0.86403000E+02 -0.50210E+04
 0.86453003E+02 -0.50410E+04
 0.86502998E+02 -0.50620E+04
 0.86553001E+02 -0.49830E+04
 0.86602997E+02 -0.49630E+04
 0.86653000E+02 -0.49280E+04
 0.86703003E+02 -0.49180E+04
 0.86752998E+02 -0.49030E+04
 0.86803001E+02 -0.48930E+04
 0.86852997E+02 -0.48960E+04
 0.86903000E+02 -0.49530E+04
 0.86953003E+02 -0.48980E+04
 0.87002998E+02 -0.48110E+04
 0.87053001E+02 -0.47520E+04
 0.87102997E+02 -0.47810E+04
 0.87153000E+02 -0.48600E+04
 0.87203003E+02 -0.48750E+04
 0.87252998E+02 -0.48480E+04
 0.87303001E+02 -0.47670E+04
 0.87352997E+02 -0.46950E+04
 0.87403000E+02 -0.46670E+04
 0.87453003E+02 -0.46470E+04
 0.87502998E+02 -0.46840E+04
 0.87553001E+02 -0.47150E+04
 0.87602997E+02 -0.46970E+04
 0.87653000E+02 -0.46950E+04
 0.87703003E+02 -0.45820E+04
 0.87752998E+02 -0.45390E+04
 0.87803001E+02 -0.45380E+04
 0.87852997E+02 -0.45560E+04
 0.87903000E+02 -0.46400E+04
 0.87953003E+02 -0.46060E+04
 0.88002998E+02 -0.45020E+04
 0.88053001E+02 -0.44250E+04
 0.88102997E+02 -0.43890E+04
 0.88153000E+02 -0.44250E+04
 0.88203003E+02 -0.44730E+04
 0.88252998E+02 -0.44450E+04
 0.88303001E+02 -0.44250E+04
 0.88352997E+02 -0.43960E+04
 0.88403000E+02 -0.43560E+04
 0.88453003E+02 -0.43240E+04
 0.88502998E+02 -0.43300E+04
 0.88553001E+02 -0.44130E+04
 0.88602997E+02 -0.43720E+04
 0.88653000E+02 -0.43110E+04
 0.88703003E+02 -0.43360E+04
 0.88752998E+02 -0.43560E+04
 0.88803001E+02 -0.44090E+04
 0.88852997E+02 -0.43530E+04
 0.88903000E+02 -0.43170E+04
 0.88953003E+02 -0.43400E+04
 0.89002998E+02 -0.42970E+04
 0.89053001E+02 -0.43530E+04
 0.89102997E+02 -0.43460E+04
 0.89153000E+02 -0.43740E+04
 0.89203003E+02 -0.43720E+04
 0.89252998E+02 -0.42890E+04
 0.89303001E+02 -0.43690E+04
 0.89352997E+02 -0.43630E+04
 0.89403000E+02 -0.43840E+04
 0.89453003E+02 -0.43820E+04
 0.89502998E+02 -0.43690E+04
 0.89553001E+02 -0.43660E+04
 0.89602997E+02 -0.43760E+04
 0.89653000E+02 -0.43790E+04
 0.89703003E+02 -0.43330E+04
 0.89752998E+02 -0.43810E+04
 0.89803001E+02 -0.43950E+04
 0.89852997E+02 -0.44680E+04
 0.89903000E+02 -0.44690E+04
 0.89953003E+02 -0.44050E+04
 0.90002998E+02 -0.43820E+04
 0.90053001E+02 -0.43460E+04
 0.90102997E+02 -0.43610E+04
 0.90153000E+02 -0.44710E+04
 0.90203003E+02 -0.45040E+04
 0.90252998E+02 -0.44520E+04
 0.90303001E+02 -0.44150E+04
 0.90352997E+02 -0.43870E+04
 0.90403000E+02 -0.44040E+04
 0.90453003E+02 -0.44460E+04
 0.90502998E+02 -0.44920E+04
 0.90553001E+02 -0.44840E+04
 0.90602997E+02 -0.44650E+04
 0.90653000E+02 -0.44230E+04
 0.90703003E+02 -0.44230E+04
 0.90752998E+02 -0.44480E+04
 0.90803001E+02 -0.44800E+04
 0.90852997E+02 -0.45240E+04
 0.90903000E+02 -0.44550E+04
 0.90953003E+02 -0.44220E+04
 0.91002998E+02 -0.44350E+04
 0.91053001E+02 -0.44590E+04
 0.91102997E+02 -0.44970E+04
 0.91153000E+02 -0.45050E+04
 0.91203003E+02 -0.44990E+04
 0.91252998E+02 -0.44810E+04
 0.91303001E+02 -0.44890E+04
 0.91352997E+02 -0.45060E+04
 0.91403000E+02 -0.45420E+04
 0.91453003E+02 -0.45330E+04
 0.91502998E+02 -0.45200E+04
 0.91553001E+02 -0.45030E+04
 0.91602997E+02 -0.45080E+04
 0.91653000E+02 -0.45460E+04
 0.91703003E+02 -0.45010E+04
 0.91752998E+02 -0.44520E+04
 0.91803001E+02 -0.44900E+04
 0.91852997E+02 -0.45640E+04
 0.91903000E+02 -0.45700E+04
 0.91953003E+02 -0.45840E+04
 0.92002998E+02 -0.45670E+04
 0.92053001E+02 -0.45500E+04
 0.92102997E+02 -0.45190E+04
 0.92153000E+02 -0.45110E+04
 0.92203003E+02 -0.45470E+04
 0.92252998E+02 -0.45530E+04
 0.92303001E+02 -0.45650E+04
 0.92352997E+02 -0.45700E+04
 0.92403000E+02 -0.45730E+04
 0.92453003E+02 -0.45210E+04
 0.92502998E+02 -0.45580E+04
 0.92553001E+02 -0.46080E+04
 0.92602997E+02 -0.46200E+04
 0.92653000E+02 -0.46510E+04
 0.92703003E+02 -0.46750E+04
 0.92752998E+02 -0.46350E+04
 0.92803001E+02 -0.46130E+04
 0.92852997E+02 -0.46820E+04
 0.92903000E+02 -0.46390E+04
 0.92953003E+02 -0.46410E+04
 0.93002998E+02 -0.47410E+04
 0.93053001E+02 -0.47410E+04
 0.93102997E+02 -0.46890E+04
 0.93153000E+02 -0.47480E+04
 0.93203003E+02 -0.47520E+04
 0.93252998E+02 -0.47110E+04
 0.93303001E+02 -0.47580E+04
 0.93352997E+02 -0.47860E+04
 0.93403000E+02 -0.47670E+04
 0.93453003E+02 -0.47640E+04
 0.93502998E+02 -0.47970E+04
 0.93553001E+02 -0.48250E+04
 0.93602997E+02 -0.48280E+04
 0.93653000E+02 -0.48370E+04
 0.93703003E+02 -0.48370E+04
 0.93752998E+02 -0.48270E+04
 0.93803001E+02 -0.49020E+04
 0.93852997E+02 -0.49170E+04
 0.93903000E+02 -0.48950E+04
 0.93953003E+02 -0.49040E+04
 0.94002998E+02 -0.48880E+04
 0.94053001E+02 -0.49240E+04
 0.94102997E+02 -0.49740E+04
 0.94153000E+02 -0.49580E+04
 0.94203003E+02 -0.49540E+04
 0.94252998E+02 -0.49720E+04
 0.94303001E+02 -0.49810E+04
 0.94352997E+02 -0.50370E+04
 0.94403000E+02 -0.50080E+04
 0.94453003E+02 -0.49760E+04
 0.94502998E+02 -0.50230E+04
 0.94553001E+02 -0.50240E+04
 0.94602997E+02 -0.50360E+04
 0.94653000E+02 -0.50880E+04
 0.94703003E+02 -0.50580E+04
 0.94752998E+02 -0.50020E+04
 0.94803001E+02 -0.50110E+04
 0.94852997E+02 -0.50660E+04
 0.94903000E+02 -0.50980E+04
 0.94953003E+02 -0.50800E+04
 0.95002998E+02 -0.50660E+04
 0.95053001E+02 -0.50570E+04
 0.95102997E+02 -0.50350E+04
 0.95153000E+02 -0.50370E+04
 0.95203003E+02 -0.50430E+04
 0.95252998E+02 -0.50300E+04
 0.95303001E+02 -0.50410E+04
 0.95352997E+02 -0.50340E+04
 0.95403000E+02 -0.50480E+04
 0.95453003E+02 -0.50070E+04
 0.95502998E+02 -0.50250E+04
 0.95553001E+02 -0.50710E+04
 0.95602997E+02 -0.49830E+04
 0.95653000E+02 -0.49950E+04
 0.95703003E+02 -0.50180E+04
 0.95752998E+02 -0.49520E+04
 0.95803001E+02 -0.49330E+04
 0.95852997E+02 -0.49680E+04
 0.95903000E+02 -0.49730E+04
 0.95953003E+02 -0.49400E+04
 0.96002998E+02 -0.50060E+04
 0.96053001E+02 -0.50340E+04
 0.96102997E+02 -0.49640E+04
 0.96153000E+02 -0.49580E+04
 0.96203003E+02 -0.49170E+04
 0.96252998E+02 -0.48880E+04
 0.96303001E+02 -0.48880E+04
 0.96352997E+02 -0.49130E+04
 0.96403000E+02 -0.49510E+04
 0.96453003E+02 -0.49210E+04
 0.96502998E+02 -0.49000E+04
 0.96553001E+02 -0.48790E+04
 0.96602997E+02 -0.48680E+04
 0.96653000E+02 -0.49140E+04
 0.96703003E+02 -0.49280E+04
 0.96752998E+02 -0.48890E+04
 0.96803001E+02 -0.48770E+04
 0.96852997E+02 -0.49030E+04
 0.96903000E+02 -0.48910E+04
 0.96953003E+02 -0.48280E+04
 0.97002998E+02 -0.48180E+04
 0.97053001E+02 -0.48640E+04
 0.97102997E+02 -0.48910E+04
 0.97153000E+02 -0.49160E+04
 0.97203003E+02 -0.49010E+04
 0.97252998E+02 -0.48490E+04
 0.97303001E+02 -0.48420E+04
 0.97352997E+02 -0.48530E+04
 0.97403000E+02 -0.48680E+04
 0.97453003E+02 -0.48470E+04
 0.97502998E+02 -0.48160E+04
 0.97553001E+02 -0.48400E+04
 0.97602997E+02 -0.48290E+04
 0.97653000E+02 -0.48140E+04
 0.97703003E+02 -0.47950E+04
 0.97752998E+02 -0.47780E+04
 0.97803001E+02 -0.48000E+04
 0.97852997E+02 -0.47930E+04
 0.97903000E+02 -0.47820E+04
 0.97953003E+02 -0.47830E+04
 0.98002998E+02 -0.47710E+04
 0.98053001E+02 -0.47600E+04
 0.98102997E+02 -0.47300E+04
 0.98153000E+02 -0.47050E+04
 0.98203003E+02 -0.47200E+04
 0.98252998E+02 -0.47340E+04
 0.98303001E+02 -0.47530E+04
 0.98352997E+02 -0.47760E+04
 0.98403000E+02 -0.47590E+04
 0.98453003E+02 -0.47420E+04
 0.98502998E+02 -0.47180E+04
 0.98553001E+02 -0.46600E+04
 0.98602997E+02 -0.46810E+04
 0.98653000E+02 -0.47460E+04
 0.98703003E+02 -0.47460E+04
 0.98752998E+02 -0.47680E+04
 0.98803001E+02 -0.47620E+04
 0.98852997E+02 -0.47020E+04
 0.98903000E+02 -0.46940E+04
 0.98953003E+02 -0.47400E+04
 0.99002998E+02 -0.47460E+04
 0.99053001E+02 -0.47090E+04
 0.99102997E+02 -0.47170E+04
 0.99153000E+02 -0.47320E+04
 0.99203003E+02 -0.46940E+04
 0.99252998E+02 -0.46880E+04
 0.99303001E+02 -0.47430E+04
 0.99352997E+02 -0.47570E+04
 0.99403000E+02 -0.47340E+04
 0.99453003E+02 -0.47080E+04
 0.99502998E+02 -0.47360E+04
 0.99553001E+02 -0.47610E+04
 0.99602997E+02 -0.47520E+04
 0.99653000E+02 -0.47600E+04
 0.99703003E+02 -0.47280E+04
 0.99752998E+02 -0.47240E+04
 0.99803001E+02 -0.47340E+04
 0.99852997E+02 -0.47320E+04
 0.99903000E+02 -0.47670E+04
 0.99953003E+02 -0.47680E+04
 0.10000300E+03 -0.47600E+04
 0.10005300E+03 -0.47560E+04
 0.10010300E+03 -0.47290E+04
 0.10015300E+03 -0.47370E+04
 0.10020300E+03 -0.47410E+04
 0.10025300E+03 -0.47160E+04
 0.10030300E+03 -0.47260E+04
 0.10035300E+03 -0.47240E+04
 0.10040300E+03 -0.47050E+04
 0.10045300E+03 -0.47010E+04
 0.10050300E+03 -0.47180E+04
 0.10055300E+03 -0.47230E+04
 0.10060300E+03 -0.46860E+04
 0.10065300E+03 -0.47190E+04
 0.10070300E+03 -0.47300E+04
 0.10075300E+03 -0.47030E+04
 0.10080300E+03 -0.47150E+04
 0.10085300E+03 -0.46970E+04
 0.10090300E+03 -0.46920E+04
 0.10095300E+03 -0.46840E+04
 0.10100300E+03 -0.46400E+04
 0.10105300E+03 -0.46630E+04
 0.10110300E+03 -0.46750E+04
 0.10115300E+03 -0.46530E+04
 0.10120300E+03 -0.46460E+04
 0.10125300E+03 -0.46330E+04
 0.10130300E+03 -0.46110E+04
 0.10135300E+03 -0.46280E+04
 0.10140300E+03 -0.46500E+04
 0.10145300E+03 -0.46090E+04
 0.10150300E+03 -0.45940E+04
 0.10155300E+03 -0.45910E+04
 0.10160300E+03 -0.45820E+04
 0.10165300E+03 -0.45920E+04
 0.10170300E+03 -0.46240E+04
 0.10175300E+03 -0.45950E+04
 0.10180300E+03 -0.45750E+04
 0.10185300E+03 -0.45990E+04
 0.10190300E+03 -0.45900E+04
 0.10195300E+03 -0.45620E+04
 0.10200300E+03 -0.45420E+04
 0.10205300E+03 -0.45640E+04
 0.10210300E+03 -0.45640E+04
 0.10215300E+03 -0.45460E+04
 0.10220300E+03 -0.45430E+04
 0.10225300E+03 -0.45630E+04
 0.10230300E+03 -0.45970E+04
 0.10235300E+03 -0.45790E+04
 0.10240300E+03 -0.45730E+04
 0.10245300E+03 -0.45940E+04
 0.10250300E+03 -0.45480E+04
 0.10255300E+03 -0.45230E+04
 0.10260300E+03 -0.45230E+04
 0.10265300E+03 -0.45420E+04
 0.10270300E+03 -0.46000E+04
 0.10275300E+03 -0.45830E+04
 0.10280300E+03 -0.45920E+04
 0.10285300E+03 -0.45900E+04
 0.10290300E+03 -0.45840E+04
 0.10295300E+03 -0.46000E+04
 0.10300300E+03 -0.45890E+04
 0.10305300E+03 -0.46430E+04
 0.10310300E+03 -0.46110E+04
 0.10315300E+03 -0.46020E+04
 0.10320300E+03 -0.46210E+04
 0.10325300E+03 -0.45880E+04
 0.10330300E+03 -0.45900E+04
 0.10335300E+03 -0.46120E+04
 0.10340300E+03 -0.46830E+04
 0.10345300E+03 -0.46690E+04
 0.10350300E+03 -0.46600E+04
 0.10355300E+03 -0.46870E+04
 0.10360300E+03 -0.46800E+04
 0.10365300E+03 -0.46700E+04
 0.10370300E+03 -0.46560E+04
 0.10375300E+03 -0.46820E+04
 0.10380300E+03 -0.47120E+04
 0.10385300E+03 -0.47170E+04
 0.10390300E+03 -0.47100E+04
 0.10395300E+03 -0.47080E+04
 0.10400300E+03 -0.46820E+04
 0.10405300E+03 -0.46970E+04
 0.10410300E+03 -0.47230E+04
 0.10415300E+03 -0.47390E+04
 0.10420300E+03 -0.47330E+04
 0.10425300E+03 -0.46870E+04
 0.10430300E+03 -0.47360E+04
 0.10435300E+03 -0.47770E+04
 0.10440300E+03 -0.47820E+04
 0.10445300E+03 -0.47370E+04
 0.10450300E+03 -0.46990E+04
 0.10455300E+03 -0.47290E+04
 0.10460300E+03 -0.47210E+04
 0.10465300E+03 -0.47740E+04
 0.10470300E+03 -0.48010E+04
 0.10475300E+03 -0.47770E+04
 0.10480300E+03 -0.47820E+04
 0.10485300E+03 -0.47640E+04
 0.10490300E+03 -0.47680E+04
 0.10495300E+03 -0.47470E+04
 0.10500300E+03 -0.47340E+04
 0.10505300E+03 -0.47400E+04
 0.10510300E+03 -0.47580E+04
 0.10515300E+03 -0.47720E+04
 0.10520300E+03 -0.47730E+04
 0.10525300E+03 -0.47880E+04
 0.10530300E+03 -0.47650E+04
 0.10535300E+03 -0.47800E+04
 0.10540300E+03 -0.47850E+04
 0.10545300E+03 -0.47500E+04
 0.10550300E+03 -0.47180E+04
 0.10555300E+03 -0.47030E+04
 0.10560300E+03 -0.47560E+04
 0.10565300E+03 -0.47930E+04
 0.10570300E+03 -0.47880E+04
 0.10575300E+03 -0.47700E+04
 0.10580300E+03 -0.47410E+04
 0.10585300E+03 -0.47270E+04
 0.10590300E+03 -0.47280E+04
 0.10595300E+03 -0.47370E+04
 0.10600300E+03 -0.47560E+04
 0.10605300E+03 -0.47610E+04
 0.10610300E+03 -0.47590E+04
 0.10615300E+03 -0.47550E+04
 0.10620300E+03 -0.47580E+04
 0.10625300E+03 -0.47490E+04
 0.10630300E+03 -0.47040E+04
 0.10635300E+03 -0.47050E+04
 0.10640300E+03 -0.46980E+04
 0.10645300E+03 -0.47050E+04
 0.10650300E+03 -0.47410E+04
 0.10655300E+03 -0.47540E+04
 0.10660300E+03 -0.47580E+04
 0.10665300E+03 -0.47610E+04
 0.10670300E+03 -0.47550E+04
 0.10675300E+03 -0.47220E+04
 0.10680300E+03 -0.47120E+04
 0.10685300E+03 -0.47220E+04
 0.10690300E+03 -0.47410E+04
 0.10695300E+03 -0.47260E+04
 0.10700300E+03 -0.47160E+04
 0.10705300E+03 -0.47340E+04
 0.10710300E+03 -0.47260E+04
 0.10715300E+03 -0.47010E+04
 0.10720300E+03 -0.46860E+04
 0.10725300E+03 -0.47060E+04
 0.10730300E+03 -0.47200E+04
 0.10735300E+03 -0.47050E+04
 0.10740300E+03 -0.46740E+04
 0.10745300E+03 -0.46680E+04
 0.10750300E+03 -0.46580E+04
 0.10755300E+03 -0.46420E+04
 0.10760300E+03 -0.46430E+04
 0.10765300E+03 -0.46710E+04
 0.10770300E+03 -0.47270E+04
 0.10775300E+03 -0.47590E+04
 0.10780300E+03 -0.47430E+04
 0.10785300E+03 -0.47250E+04
 0.10790300E+03 -0.47410E+04
 0.10795300E+03 -0.46890E+04
 0.10800300E+03 -0.46710E+04
 0.10805300E+03 -0.46780E+04
 0.10810300E+03 -0.47160E+04
 0.10815300E+03 -0.47640E+04
 0.10820300E+03 -0.47560E+04
 0.10825300E+03 -0.47710E+04
 0.10830300E+03 -0.47320E+04
 0.10835300E+03 -0.47030E+04
 0.10840300E+03 -0.47410E+04
 0.10845300E+03 -0.47520E+04
 0.10850300E+03 -0.47280E+04
 0.10855300E+03 -0.47390E+04
 0.10860300E+03 -0.47880E+04
 0.10865300E+03 -0.48130E+04
 0.10870300E+03 -0.47820E+04
 0.10875300E+03 -0.47720E+04
 0.10880300E+03 -0.47560E+04
 0.10885300E+03 -0.47150E+04
 0.10890300E+03 -0.47670E+04
 0.10895300E+03 -0.48110E+04
 0.10900300E+03 -0.48230E+04
 0.10905300E+03 -0.48140E+04
 0.10910300E+03 -0.47800E+04
 0.10915300E+03 -0.48130E+04
 0.10920300E+03 -0.48340E+04
 0.10925300E+03 -0.48030E+04
 0.10930300E+03 -0.47820E+04
 0.10935300E+03 -0.47960E+04
 0.10940300E+03 -0.48450E+04
 0.10945300E+03 -0.48670E+04
 0.10950300E+03 -0.48270E+04
 0.10955300E+03 -0.47770E+04
 0.10960300E+03 -0.47540E+04
 0.10965300E+03 -0.47660E+04
 0.10970300E+03 -0.48050E+04
 0.10975300E+03 -0.48310E+04
 0.10980300E+03 -0.48420E+04
 0.10985300E+03 -0.48630E+04
 0.10990300E+03 -0.48450E+04
 0.10995300E+03 -0.47860E+04
 0.11000300E+03 -0.47910E+04
 0.11005300E+03 -0.48060E+04
 0.11010300E+03 -0.48100E+04
 0.11015300E+03 -0.48540E+04
 0.11020300E+03 -0.48620E+04
 0.11025300E+03 -0.48430E+04
 0.11030300E+03 -0.48540E+04
 0.11035300E+03 -0.48650E+04
 0.11040300E+03 -0.48760E+04
 0.11045300E+03 -0.48800E+04
 0.11050300E+03 -0.48430E+04
 0.11055300E+03 -0.48290E+04
 0.11060300E+03 -0.48370E+04
 0.11065300E+03 -0.48840E+04
 0.11070300E+03 -0.49540E+04
 0.11075300E+03 -0.49550E+04
 0.11080300E+03 -0.49360E+04
 0.11085300E+03 -0.48890E+04
 0.11090300E+03 -0.48910E+04
 0.11095300E+03 -0.48970E+04
 0.11100300E+03 -0.49200E+04
 0.11105300E+03 -0.49620E+04
 0.11110300E+03 -0.49740E+04
 0.11115300E+03 -0.49660E+04
 0.11120300E+03 -0.48990E+04
 0.11125300E+03 -0.48980E+04
 0.11130300E+03 -0.49220E+04
 0.11135300E+03 -0.49820E+04
 0.11140300E+03 -0.50010E+04
 0.11145300E+03 -0.49650E+04
 0.11150300E+03 -0.49270E+04
 0.11155300E+03 -0.49610E+04
 0.11160300E+03 -0.50220E+04
 0.11165300E+03 -0.49570E+04
 0.11170300E+03 -0.49740E+04
 0.11175300E+03 -0.49690E+04
 0.11180300E+03 -0.49250E+04
 0.11185300E+03 -0.49640E+04
 0.11190300E+03 -0.49410E+04
 0.11195300E+03 -0.49370E+04
 0.11200300E+03 -0.49790E+04
 0.11205300E+03 -0.49830E+04
 0.11210300E+03 -0.49520E+04
 0.11215300E+03 -0.49360E+04
 0.11220300E+03 -0.49020E+04
 0.11225300E+03 -0.48920E+04
 0.11230300E+03 -0.49150E+04
 0.11235300E+03 -0.49220E+04
 0.11240300E+03 -0.49340E+04
 0.11245300E+03 -0.49000E+04
 0.11250300E+03 -0.48520E+04
 0.11255300E+03 -0.48140E+04
 0.11260300E+03 -0.47960E+04
 0.11265300E+03 -0.48180E+04
 0.11270300E+03 -0.48420E+04
 0.11275300E+03 -0.48120E+04
 0.11280300E+03 -0.47790E+04
 0.11285300E+03 -0.48330E+04
 0.11290300E+03 -0.47970E+04
 0.11295300E+03 -0.47560E+04
 0.11300300E+03 -0.47490E+04
 0.11305300E+03 -0.47150E+04
 0.11310300E+03 -0.47530E+04
 0.11315300E+03 -0.47400E+04
 0.11320300E+03 -0.47560E+04
 0.11325300E+03 -0.47730E+04
 0.11330300E+03 -0.47360E+04
 0.11335300E+03 -0.47350E+04
 0.11340300E+03 -0.47320E+04
 0.11345300E+03 -0.47420E+04
 0.11350300E+03 -0.47140E+04
 0.11355300E+03 -0.46870E+04
 0.11360300E+03 -0.46850E+04
 0.11365300E+03 -0.46770E+04
 0.11370300E+03 -0.46960E+04
 0.11375300E+03 -0.46710E+04
 0.11380300E+03 -0.45970E+04
 0.11385300E+03 -0.46050E+04
 0.11390300E+03 -0.46230E+04
 0.11395300E+03 -0.46070E+04
 0.11400300E+03 -0.46690E+04
 0.11405300E+03 -0.46690E+04
 0.11410300E+03 -0.46210E+04
 0.11415300E+03 -0.45990E+04
 0.11420300E+03 -0.45570E+04
 0.11425300E+03 -0.45530E+04
 0.11430300E+03 -0.45600E+04
 0.11435300E+03 -0.45840E+04
 0.11440300E+03 -0.45950E+04
 0.11445300E+03 -0.45800E+04
 0.11450300E+03 -0.45610E+04
 0.11455300E+03 -0.45240E+04
 0.11460300E+03 -0.45490E+04
 0.11465300E+03 -0.45730E+04
 0.11470300E+03 -0.45880E+04
 0.11475300E+03 -0.45840E+04
 0.11480300E+03 -0.45290E+04
 0.11485300E+03 -0.45280E+04
 0.11490300E+03 -0.45870E+04
 0.11495300E+03 -0.45970E+04
 0.11500300E+03 -0.46060E+04
 0.11505300E+03 -0.45550E+04
 0.11510300E+03 -0.45750E+04
 0.11515300E+03 -0.45770E+04
 0.11520300E+03 -0.46150E+04
 0.11525300E+03 -0.47970E+04
 0.11530300E+03 -0.46490E+04
 0.11535300E+03 -0.46040E+04
 0.11540300E+03 -0.46770E+04
 0.11545300E+03 -0.46770E+04
 0.11550300E+03 -0.46910E+04
 0.11555300E+03 -0.46450E+04
 0.11560300E+03 -0.46660E+04
 0.11565300E+03 -0.46800E+04
 0.11570300E+03 -0.46610E+04
 0.11575300E+03 -0.46510E+04
 0.11580300E+03 -0.46890E+04
 0.11585300E+03 -0.47130E+04
 0.11590300E+03 -0.46820E+04
 0.11595300E+03 -0.47090E+04
 0.11600300E+03 -0.47760E+04
 0.11605300E+03 -0.47680E+04
 0.11610300E+03 -0.47720E+04
 0.11615300E+03 -0.48120E+04
 0.11620300E+03 -0.47730E+04
 0.11625300E+03 -0.47360E+04
 0.11630300E+03 -0.47280E+04
 0.11635300E+03 -0.47200E+04
 0.11640300E+03 -0.47480E+04
 0.11645300E+03 -0.47460E+04
 0.11650300E+03 -0.47560E+04
 0.11655300E+03 -0.47870E+04
 0.11660300E+03 -0.47860E+04
 0.11665300E+03 -0.47910E+04
 0.11670300E+03 -0.47840E+04
 0.11675300E+03 -0.48000E+04
 0.11680300E+03 -0.47820E+04
 0.11685300E+03 -0.47500E+04
 0.11690300E+03 -0.47590E+04
 0.11695300E+03 -0.47680E+04
 0.11700300E+03 -0.48170E+04
 0.11705300E+03 -0.48510E+04
 0.11710300E+03 -0.48190E+04
 0.11715300E+03 -0.48220E+04
 0.11720300E+03 -0.48450E+04
 0.11725300E+03 -0.48170E+04
 0.11730300E+03 -0.48180E+04
 0.11735300E+03 -0.48620E+04
 0.11740300E+03 -0.48470E+04
 0.11745300E+03 -0.48170E+04
 0.11750300E+03 -0.48090E+04
 0.11755300E+03 -0.48000E+04
 0.11760300E+03 -0.48290E+04
 0.11765300E+03 -0.48350E+04
 0.11770300E+03 -0.48350E+04
 0.11775300E+03 -0.48180E+04
 0.11780300E+03 -0.48320E+04
 0.11785300E+03 -0.48430E+04
 0.11790300E+03 -0.48010E+04
 0.11795300E+03 -0.48360E+04
 0.11800300E+03 -0.48740E+04
 0.11805300E+03 -0.48780E+04
 0.11810300E+03 -0.48090E+04
 0.11815300E+03 -0.46790E+04
 0.11820300E+03 -0.46710E+04
 0.11825300E+03 -0.47890E+04
 0.11830300E+03 -0.48350E+04
 0.11835300E+03 -0.47830E+04
 0.11840300E+03 -0.47130E+04
 0.11845300E+03 -0.46860E+04
 0.11850300E+03 -0.47880E+04
 0.11855300E+03 -0.49080E+04
 0.11860300E+03 -0.49290E+04
 0.11865300E+03 -0.48940E+04
 0.11870300E+03 -0.48080E+04
 0.11875300E+03 -0.46670E+04
 0.11880300E+03 -0.45850E+04
 0.11885300E+03 -0.46550E+04
 0.11890300E+03 -0.47580E+04
 0.11895300E+03 -0.46860E+04
 0.11900300E+03 -0.45770E+04
 0.11905300E+03 -0.45970E+04
 0.11910300E+03 -0.46850E+04
 0.11915300E+03 -0.47650E+04
 0.11920300E+03 -0.47250E+04
 0.11925300E+03 -0.46670E+04
 0.11930300E+03 -0.46310E+04
 0.11935300E+03 -0.46780E+04
 0.11940300E+03 -0.47450E+04
 0.11945300E+03 -0.47610E+04
 0.11950300E+03 -0.47890E+04
 0.11955300E+03 -0.47420E+04
 0.11960300E+03 -0.46760E+04
 0.11965300E+03 -0.46260E+04
 0.11970300E+03 -0.46000E+04
 0.11975300E+03 -0.45530E+04
 0.11980300E+03 -0.44150E+04
 0.11985300E+03 -0.43600E+04
 0.11990300E+03 -0.44220E+04
 0.11995300E+03 -0.45910E+04
 0.12000300E+03 -0.48990E+04
 0.12005300E+03 -0.48850E+04
 0.12010300E+03 -0.45630E+04
 0.12015300E+03 -0.42380E+04
 0.12020300E+03 -0.41400E+04
 0.12025300E+03 -0.45460E+04
 0.12030300E+03 -0.49210E+04
 0.12035300E+03 -0.50530E+04
 0.12040300E+03 -0.50220E+04
 0.12045300E+03 -0.48840E+04
 0.12050300E+03 -0.47930E+04
 0.12055300E+03 -0.45910E+04
 0.12060300E+03 -0.42330E+04
 0.12065300E+03 -0.40620E+04
 0.12070300E+03 -0.40980E+04
 0.12075300E+03 -0.41840E+04
 0.12080300E+03 -0.44320E+04
 0.12085300E+03 -0.46960E+04
 0.12090300E+03 -0.48660E+04
 0.12095300E+03 -0.48690E+04
 0.12100300E+03 -0.49430E+04
 0.12105300E+03 -0.52530E+04
 0.12110300E+03 -0.53580E+04
 0.12115300E+03 -0.50840E+04
 0.12120300E+03 -0.42520E+04
 0.12125300E+03 -0.28770E+04
 0.12130300E+03 -0.17460E+04
 0.12135300E+03 -0.16260E+04
 0.12140300E+03 -0.27630E+04
 0.12145300E+03 -0.46660E+04
 0.12150300E+03 -0.68030E+04
 0.12155300E+03 -0.85220E+04
 0.12160300E+03 -0.89670E+04
 0.12165300E+03 -0.77510E+04
 0.12170300E+03 -0.53870E+04
 0.12175300E+03 -0.31370E+04
 0.12180300E+03 -0.18300E+04
 0.12185300E+03 -0.17920E+04
 0.12190300E+03 -0.23260E+04
 0.12195300E+03 -0.26470E+04
 0.12200300E+03 -0.32010E+04
 0.12205300E+03 -0.41790E+04
 0.12210300E+03 -0.55340E+04
 0.12215300E+03 -0.69020E+04
 0.12220300E+03 -0.77860E+04
 0.12225300E+03 -0.82080E+04
 0.12230300E+03 -0.79210E+04
 0.12235300E+03 -0.67850E+04
 0.12240300E+03 -0.49080E+04
 0.12245300E+03 -0.25250E+04
 0.12250300E+03 -0.62400E+03
 0.12255300E+03 -0.16800E+03
 0.12260300E+03 -0.12640E+04
 0.12265300E+03 -0.34920E+04
 0.12270300E+03 -0.61690E+04
 0.12275300E+03 -0.84710E+04
 0.12280300E+03 -0.89180E+04
 0.12285300E+03 -0.73440E+04
 0.12290300E+03 -0.53030E+04
 0.12295300E+03 -0.37770E+04
 0.12300300E+03 -0.29960E+04
 0.12305300E+03 -0.29640E+04
 0.12310300E+03 -0.34690E+04
 0.12315300E+03 -0.37620E+04
 0.12320300E+03 -0.38810E+04
 0.12325300E+03 -0.48170E+04
 0.12330300E+03 -0.65160E+04
 0.12335300E+03 -0.78510E+04
 0.12340300E+03 -0.80390E+04
 0.12345300E+03 -0.70490E+04
 0.12350300E+03 -0.54560E+04
 0.12355300E+03 -0.39530E+04
 0.12360300E+03 -0.28170E+04
 0.12365300E+03 -0.21240E+04
 0.12370300E+03 -0.21920E+04
 0.12375300E+03 -0.32590E+04
 0.12380300E+03 -0.47860E+04
 0.12385300E+03 -0.62650E+04
 0.12390300E+03 -0.75440E+04
 0.12395300E+03 -0.81040E+04
 0.12400300E+03 -0.77370E+04
 0.12405300E+03 -0.65590E+04
 0.12410300E+03 -0.46050E+04
 0.12415300E+03 -0.21600E+04
 0.12420300E+03 -0.36000E+03
 0.12425300E+03 -0.79400E+03
 0.12430300E+03 -0.27840E+04
 0.12435300E+03 -0.46580E+04
 0.12440300E+03 -0.62250E+04
 0.12445300E+03 -0.75850E+04
 0.12450300E+03 -0.81710E+04
 0.12455300E+03 -0.74240E+04
 0.12460300E+03 -0.58760E+04
 0.12465300E+03 -0.38650E+04
 0.12470300E+03 -0.21500E+04
 0.12475300E+03 -0.16990E+04
 0.12480300E+03 -0.25170E+04
 0.12485300E+03 -0.40270E+04
 0.12490300E+03 -0.49820E+04
 0.12495300E+03 -0.58130E+04
 0.12500300E+03 -0.65480E+04
 0.12505299E+03 -0.61740E+04
 0.12510300E+03 -0.57090E+04
 0.12515300E+03 -0.57240E+04
 0.12520300E+03 -0.59870E+04
 0.12525299E+03 -0.57320E+04
 0.12530299E+03 -0.44170E+04
 0.12535300E+03 -0.34280E+04
 0.12540300E+03 -0.35650E+04
 0.12545300E+03 -0.43290E+04
 0.12550299E+03 -0.44350E+04
 0.12555299E+03 -0.41540E+04
 0.12560300E+03 -0.45660E+04
 0.12565300E+03 -0.51380E+04
 0.12570300E+03 -0.52340E+04
 0.12575299E+03 -0.47610E+04
 0.12580299E+03 -0.42450E+04
 0.12585300E+03 -0.45060E+04
 0.12590300E+03 -0.54560E+04
 0.12595300E+03 -0.61980E+04
 0.12600299E+03 -0.59850E+04
 0.12605299E+03 -0.41990E+04
 0.12610300E+03 -0.13190E+04
 0.12615300E+03  0.17900E+03
 0.12620300E+03 -0.20340E+04
 0.12625299E+03 -0.64050E+04
 0.12630299E+03 -0.92570E+04
 0.12635300E+03 -0.88120E+04
 0.12640300E+03 -0.58350E+04
 0.12645300E+03 -0.28510E+04
 0.12650299E+03 -0.18340E+04
 0.12655299E+03 -0.29300E+04
 0.12660300E+03 -0.46560E+04
 0.12665300E+03 -0.50420E+04
 0.12670300E+03 -0.39840E+04
 0.12675299E+03 -0.33020E+04
 0.12680299E+03 -0.37740E+04
 0.12685300E+03 -0.44860E+04
 0.12690300E+03 -0.53930E+04
 0.12695300E+03 -0.65960E+04
 0.12700299E+03 -0.69480E+04
 0.12705299E+03 -0.63680E+04
 0.12710300E+03 -0.57220E+04
 0.12715300E+03 -0.55210E+04
 0.12720300E+03 -0.57190E+04
 0.12725299E+03 -0.51110E+04
 0.12730299E+03 -0.37700E+04
 0.12735300E+03 -0.29530E+04
 0.12740300E+03 -0.30050E+04
 0.12745300E+03 -0.38790E+04
 0.12750299E+03 -0.48820E+04
 0.12755299E+03 -0.47330E+04
 0.12760300E+03 -0.36500E+04
 0.12765300E+03 -0.34360E+04
 0.12770300E+03 -0.47440E+04
 0.12775299E+03 -0.64950E+04
 0.12780299E+03 -0.77040E+04
 0.12785300E+03 -0.81200E+04
 0.12790300E+03 -0.70910E+04
 0.12795300E+03 -0.48100E+04
 0.12800299E+03 -0.29960E+04
 0.12805299E+03 -0.23340E+04
 0.12810300E+03 -0.26710E+04
 0.12815300E+03 -0.33820E+04
 0.12820300E+03 -0.40600E+04
 0.12825299E+03 -0.50740E+04
 0.12830299E+03 -0.65760E+04
 0.12835300E+03 -0.80390E+04
 0.12840300E+03 -0.86240E+04
 0.12845300E+03 -0.74760E+04
 0.12850299E+03 -0.47030E+04
 0.12855299E+03 -0.21580E+04
 0.12860300E+03 -0.78100E+03
 0.12865300E+03 -0.78700E+03
 0.12870300E+03 -0.28590E+04
 0.12875299E+03 -0.64700E+04
 0.12880299E+03 -0.85160E+04
 0.12885300E+03 -0.72390E+04
 0.12890300E+03 -0.53030E+04
 0.12895300E+03 -0.52740E+04
 0.12900299E+03 -0.65570E+04
 0.12905299E+03 -0.71840E+04
 0.12910300E+03 -0.61000E+04
 0.12915300E+03 -0.38040E+04
 0.12920300E+03 -0.22480E+04
 0.12925299E+03 -0.22760E+04
 0.12930299E+03 -0.29700E+04
 0.12935300E+03 -0.38680E+04
 0.12940300E+03 -0.44610E+04
 0.12945300E+03 -0.41910E+04
 0.12950299E+03 -0.34840E+04
 0.12955299E+03 -0.26740E+04
 0.12960300E+03 -0.22070E+04
 0.12965300E+03 -0.26560E+04
 0.12970300E+03 -0.48000E+04
 0.12975299E+03 -0.69020E+04
 0.12980299E+03 -0.68540E+04
 0.12985300E+03 -0.68970E+04
 0.12990300E+03 -0.73870E+04
 0.12995300E+03 -0.63740E+04
 0.13000299E+03 -0.35320E+04
 0.13005299E+03 -0.16370E+04
 0.13010300E+03 -0.31020E+04
 0.13015300E+03 -0.56740E+04
 0.13020300E+03 -0.68370E+04
 0.13025299E+03 -0.58450E+04
 0.13030299E+03 -0.39970E+04
 0.13035300E+03 -0.36370E+04
 0.13040300E+03 -0.51080E+04
 0.13045300E+03 -0.63240E+04
 0.13050299E+03 -0.57970E+04
 0.13055299E+03 -0.50870E+04
 0.13060300E+03 -0.52450E+04
 0.13065300E+03 -0.60190E+04
 0.13070300E+03 -0.65600E+04
 0.13075299E+03 -0.60890E+04
 0.13080299E+03 -0.45600E+04
 0.13085300E+03 -0.26970E+04
 0.13090300E+03 -0.24630E+04
 0.13095300E+03 -0.40870E+04
 0.13100299E+03 -0.57890E+04
 0.13105299E+03 -0.52000E+04
 0.13110300E+03 -0.28520E+04
 0.13115300E+03 -0.21950E+04
 0.13120300E+03 -0.40400E+04
 0.13125299E+03 -0.60330E+04
 0.13130299E+03 -0.61360E+04
 0.13135300E+03 -0.44750E+04
 0.13140300E+03 -0.25140E+04
 0.13145300E+03 -0.20260E+04
 0.13150299E+03 -0.35020E+04
 0.13155299E+03 -0.57480E+04
 0.13160300E+03 -0.59890E+04
 0.13165300E+03 -0.43700E+04
 0.13170300E+03 -0.34900E+04
 0.13175299E+03 -0.30180E+04
 0.13180299E+03 -0.24970E+04
 0.13185300E+03 -0.30600E+04
 0.13190300E+03 -0.55830E+04
 0.13195300E+03 -0.79880E+04
 0.13200299E+03 -0.82530E+04
 0.13205299E+03 -0.65770E+04
 0.13210300E+03 -0.42230E+04
 0.13215300E+03 -0.32220E+04
 0.13220300E+03 -0.28450E+04
 0.13225299E+03 -0.19460E+04
 0.13230299E+03 -0.18780E+04
 0.13235300E+03 -0.36740E+04
 0.13240300E+03 -0.60170E+04
 0.13245300E+03 -0.61540E+04
 0.13250299E+03 -0.41470E+04
 0.13255299E+03 -0.30660E+04
 0.13260300E+03 -0.48050E+04
 0.13265300E+03 -0.78590E+04
 0.13270300E+03 -0.87910E+04
 0.13275299E+03 -0.69270E+04
 0.13280299E+03 -0.39910E+04
 0.13285300E+03 -0.14600E+04
 0.13290300E+03 -0.88400E+03
 0.13295300E+03 -0.23570E+04
 0.13300299E+03 -0.37480E+04
 0.13305299E+03 -0.41990E+04
 0.13310300E+03 -0.49460E+04
 0.13315300E+03 -0.52180E+04
 0.13320300E+03 -0.37930E+04
 0.13325299E+03 -0.24340E+04
 0.13330299E+03 -0.27220E+04
 0.13335300E+03 -0.43490E+04
 0.13340300E+03 -0.62740E+04
 0.13345300E+03 -0.73370E+04
 0.13350299E+03 -0.70770E+04
 0.13355299E+03 -0.54510E+04
 0.13360300E+03 -0.27150E+04
 0.13365300E+03 -0.97000E+02
 0.13370300E+03 -0.81000E+02
 0.13375299E+03 -0.29850E+04
 0.13380299E+03 -0.58000E+04
 0.13385300E+03 -0.70820E+04
 0.13390300E+03 -0.78600E+04
 0.13395300E+03 -0.81840E+04
 0.13400299E+03 -0.69550E+04
 0.13405299E+03 -0.48110E+04
 0.13410300E+03 -0.31520E+04
 0.13415300E+03 -0.24440E+04
 0.13420300E+03 -0.31540E+04
 0.13425299E+03 -0.50980E+04
 0.13430299E+03 -0.64300E+04
 0.13435300E+03 -0.61730E+04
 0.13440300E+03 -0.49090E+04
 0.13445300E+03 -0.40050E+04
 0.13450299E+03 -0.34060E+04
 0.13455299E+03 -0.19840E+04
 0.13460300E+03 -0.15570E+04
 0.13465300E+03 -0.31820E+04
 0.13470300E+03 -0.47220E+04
 0.13475299E+03 -0.51300E+04
 0.13480299E+03 -0.57210E+04
 0.13485300E+03 -0.65280E+04
 0.13490300E+03 -0.61350E+04
 0.13495300E+03 -0.40850E+04
 0.13500299E+03 -0.22440E+04
 0.13505299E+03 -0.26670E+04
 0.13510300E+03 -0.50300E+04
 0.13515300E+03 -0.74260E+04
 0.13520300E+03 -0.74640E+04
 0.13525299E+03 -0.55910E+04
 0.13530299E+03 -0.39230E+04
 0.13535300E+03 -0.34810E+04
 0.13540300E+03 -0.38820E+04
 0.13545300E+03 -0.40040E+04
 0.13550299E+03 -0.43170E+04
 0.13555299E+03 -0.53880E+04
 0.13560300E+03 -0.67970E+04
 0.13565300E+03 -0.71720E+04
 0.13570300E+03 -0.67650E+04
 0.13575299E+03 -0.68770E+04
 0.13580299E+03 -0.63450E+04
 0.13585300E+03 -0.51610E+04
 0.13590300E+03 -0.51620E+04
 0.13595300E+03 -0.57560E+04
 0.13600299E+03 -0.48200E+04
 0.13605299E+03 -0.23090E+04
 0.13610300E+03 -0.11000E+02
 0.13615300E+03  0.62100E+03
 0.13620300E+03 -0.30900E+03
 0.13625299E+03 -0.19000E+04
 0.13630299E+03 -0.34510E+04
 0.13635300E+03 -0.52180E+04
 0.13640300E+03 -0.71510E+04
 0.13645300E+03 -0.89820E+04
 0.13650299E+03 -0.10668E+05
 0.13655299E+03 -0.11058E+05
 0.13660300E+03 -0.98420E+04
 0.13665300E+03 -0.76950E+04
 0.13670300E+03 -0.49600E+04
 0.13675299E+03 -0.26230E+04
 0.13680299E+03 -0.14840E+04
 0.13685300E+03 -0.10160E+04
 0.13690300E+03 -0.89700E+03
 0.13695300E+03 -0.20930E+04
 0.13700299E+03 -0.46100E+04
 0.13705299E+03 -0.64000E+04
 0.13710300E+03 -0.72800E+04
 0.13715300E+03 -0.81340E+04
 0.13720300E+03 -0.79340E+04
 0.13725299E+03 -0.62040E+04
 0.13730299E+03 -0.45480E+04
 0.13735300E+03 -0.43890E+04
 0.13740300E+03 -0.53280E+04
 0.13745300E+03 -0.62700E+04
 0.13750299E+03 -0.65660E+04
 0.13755299E+03 -0.55700E+04
 0.13760300E+03 -0.29170E+04
 0.13765300E+03 -0.44800E+03
 0.13770300E+03 -0.55200E+03
 0.13775299E+03 -0.28860E+04
 0.13780299E+03 -0.54080E+04
 0.13785300E+03 -0.68680E+04
 0.13790300E+03 -0.70800E+04
 0.13795300E+03 -0.64700E+04
 0.13800299E+03 -0.57100E+04
 0.13805299E+03 -0.56290E+04
 0.13810300E+03 -0.60820E+04
 0.13815300E+03 -0.59410E+04
 0.13820300E+03 -0.51550E+04
 0.13825299E+03 -0.43840E+04
 0.13830299E+03 -0.37630E+04
 0.13835300E+03 -0.39690E+04
 0.13840300E+03 -0.49530E+04
 0.13845300E+03 -0.53920E+04
 0.13850299E+03 -0.54920E+04
 0.13855299E+03 -0.60150E+04
 0.13860300E+03 -0.61680E+04
 0.13865300E+03 -0.47680E+04
 0.13870300E+03 -0.22980E+04
 0.13875299E+03 -0.46100E+03
 0.13880299E+03 -0.59600E+03
 0.13885300E+03 -0.32790E+04
 0.13890300E+03 -0.71610E+04
 0.13895300E+03 -0.92190E+04
 0.13900299E+03 -0.83840E+04
 0.13905299E+03 -0.67020E+04
 0.13910300E+03 -0.66230E+04
 0.13915300E+03 -0.80750E+04
 0.13920300E+03 -0.81790E+04
 0.13925299E+03 -0.59580E+04
 0.13930299E+03 -0.34890E+04
 0.13935300E+03 -0.18100E+04
 0.13940300E+03 -0.15690E+04
 0.13945300E+03 -0.34810E+04
 0.13950299E+03 -0.63360E+04
 0.13955299E+03 -0.79560E+04
 0.13960300E+03 -0.71310E+04
 0.13965300E+03 -0.43730E+04
 0.13970300E+03 -0.12890E+04
 0.13975299E+03 -0.10260E+04
 0.13980299E+03 -0.38370E+04
 0.13985300E+03 -0.57540E+04
 0.13990300E+03 -0.59230E+04
 0.13995300E+03 -0.65390E+04
 0.14000299E+03 -0.86570E+04
 0.14005299E+03 -0.10330E+05
 0.14010300E+03 -0.90210E+04
 0.14015300E+03 -0.51920E+04
 0.14020300E+03 -0.14670E+04
 0.14025299E+03 -0.49200E+03
 0.14030299E+03 -0.18430E+04
 0.14035300E+03 -0.31820E+04
 0.14040300E+03 -0.41350E+04
 0.14045300E+03 -0.48640E+04
 0.14050299E+03 -0.56190E+04
 0.14055299E+03 -0.66440E+04
 0.14060300E+03 -0.67890E+04
 0.14065300E+03 -0.52690E+04
 0.14070300E+03 -0.35870E+04
 0.14075299E+03 -0.31830E+04
 0.14080299E+03 -0.35430E+04
 0.14085300E+03 -0.39400E+04
 0.14090300E+03 -0.48170E+04
 0.14095300E+03 -0.55980E+04
 0.14100299E+03 -0.44300E+04
 0.14105299E+03 -0.29970E+04
 0.14110300E+03 -0.35140E+04
 0.14115300E+03 -0.47340E+04
 0.14120300E+03 -0.51290E+04
 0.14125299E+03 -0.47670E+04
 0.14130299E+03 -0.42100E+04
 0.14135300E+03 -0.40950E+04
 0.14140300E+03 -0.45510E+04
 0.14145300E+03 -0.50050E+04
 0.14150299E+03 -0.54060E+04
 0.14155299E+03 -0.57850E+04
 0.14160300E+03 -0.56500E+04
 0.14165300E+03 -0.42790E+04
 0.14170300E+03 -0.19080E+04
 0.14175299E+03 -0.10310E+04
 0.14180299E+03 -0.34230E+04
 0.14185300E+03 -0.71520E+04
 0.14190300E+03 -0.92980E+04
 0.14195300E+03 -0.87900E+04
 0.14200299E+03 -0.67770E+04
 0.14205299E+03 -0.47630E+04
 0.14210300E+03 -0.31690E+04
 0.14215300E+03 -0.22470E+04
 0.14220300E+03 -0.17370E+04
 0.14225299E+03 -0.16010E+04
 0.14230299E+03 -0.23950E+04
 0.14235300E+03 -0.41940E+04
 0.14240300E+03 -0.65240E+04
 0.14245300E+03 -0.74800E+04
 0.14250299E+03 -0.69970E+04
 0.14255299E+03 -0.70560E+04
 0.14260300E+03 -0.70540E+04
 0.14265300E+03 -0.55090E+04
 0.14270300E+03 -0.40930E+04
 0.14275299E+03 -0.42280E+04
 0.14280299E+03 -0.41830E+04
 0.14285300E+03 -0.45120E+04
 0.14290300E+03 -0.70130E+04
 0.14295300E+03 -0.96780E+04
 0.14300299E+03 -0.97020E+04
 0.14305299E+03 -0.70770E+04
 0.14310300E+03 -0.31770E+04
 0.14315300E+03 -0.70400E+03
 0.14320300E+03 -0.17500E+04
 0.14325299E+03 -0.40780E+04
 0.14330299E+03 -0.43940E+04
 0.14335300E+03 -0.30350E+04
 0.14340300E+03 -0.17800E+04
 0.14345300E+03 -0.82800E+03
 0.14350299E+03 -0.88700E+03
 0.14355299E+03 -0.23390E+04
 0.14360300E+03 -0.42160E+04
 0.14365300E+03 -0.64570E+04
 0.14370300E+03 -0.82810E+04
 0.14375299E+03 -0.77460E+04
 0.14380299E+03 -0.49050E+04
 0.14385300E+03 -0.14110E+04
 0.14390300E+03  0.85700E+03
 0.14395300E+03 -0.10100E+03
 0.14400299E+03 -0.36470E+04
 0.14405299E+03 -0.71380E+04
 0.14410300E+03 -0.84210E+04
 0.14415300E+03 -0.79330E+04
 0.14420300E+03 -0.71230E+04
 0.14425299E+03 -0.60130E+04
 0.14430299E+03 -0.45260E+04
 0.14435300E+03 -0.31470E+04
 0.14440300E+03 -0.27490E+04
 0.14445300E+03 -0.32130E+04
 0.14450299E+03 -0.45900E+04
 0.14455299E+03 -0.67040E+04
 0.14460300E+03 -0.76180E+04
 0.14465300E+03 -0.63470E+04
 0.14470300E+03 -0.42040E+04
 0.14475299E+03 -0.24580E+04
 0.14480299E+03 -0.14250E+04
 0.14485300E+03 -0.14140E+04
 0.14490300E+03 -0.31310E+04
 0.14495300E+03 -0.57810E+04
 0.14500299E+03 -0.76000E+04
 0.14505299E+03 -0.81650E+04
 0.14510300E+03 -0.74500E+04
 0.14515300E+03 -0.58970E+04
 0.14520300E+03 -0.41840E+04
 0.14525299E+03 -0.23440E+04
 0.14530299E+03 -0.19180E+04
 0.14535300E+03 -0.29620E+04
 0.14540300E+03 -0.33870E+04
 0.14545300E+03 -0.32160E+04
 0.14550299E+03 -0.39050E+04
 0.14555299E+03 -0.60110E+04
 0.14560300E+03 -0.76260E+04
 0.14565300E+03 -0.73960E+04
 0.14570300E+03 -0.67730E+04
 0.14575299E+03 -0.65170E+04
 0.14580299E+03 -0.56570E+04
 0.14585300E+03 -0.42740E+04
 0.14590300E+03 -0.36370E+04
 0.14595300E+03 -0.42010E+04
 0.14600299E+03 -0.51420E+04
 0.14605299E+03 -0.55790E+04
 0.14610300E+03 -0.46200E+04
 0.14615300E+03 -0.25730E+04
 0.14620300E+03 -0.55800E+03
 0.14625299E+03  0.57900E+03
 0.14630299E+03 -0.23900E+03
 0.14635300E+03 -0.23500E+04
 0.14640300E+03 -0.45940E+04
 0.14645300E+03 -0.63070E+04
 0.14650299E+03 -0.64680E+04
 0.14655299E+03 -0.56150E+04
 0.14660300E+03 -0.51060E+04
 0.14665300E+03 -0.55430E+04
 0.14670300E+03 -0.66470E+04
 0.14675299E+03 -0.73050E+04
 0.14680299E+03 -0.63620E+04
 0.14685300E+03 -0.45180E+04
 0.14690300E+03 -0.32330E+04
 0.14695300E+03 -0.29590E+04
 0.14700299E+03 -0.39060E+04
 0.14705299E+03 -0.56970E+04
 0.14710300E+03 -0.75230E+04
 0.14715300E+03 -0.83240E+04
 0.14720300E+03 -0.72030E+04
 0.14725299E+03 -0.50370E+04
 0.14730299E+03 -0.33500E+04
 0.14735300E+03 -0.28610E+04
 0.14740300E+03 -0.35420E+04
 0.14745300E+03 -0.40660E+04
 0.14750299E+03 -0.37760E+04
 0.14755299E+03 -0.34800E+04
 0.14760300E+03 -0.33000E+04
 0.14765300E+03 -0.35330E+04
 0.14770300E+03 -0.49400E+04
 0.14775299E+03 -0.63470E+04
 0.14780299E+03 -0.64720E+04
 0.14785300E+03 -0.53690E+04
 0.14790300E+03 -0.40430E+04
 0.14795300E+03 -0.36260E+04
 0.14800299E+03 -0.37150E+04
 0.14805299E+03 -0.36660E+04
 0.14810300E+03 -0.36210E+04
 0.14815300E+03 -0.39680E+04
 0.14820300E+03 -0.44040E+04
 0.14825299E+03 -0.44840E+04
 0.14830299E+03 -0.40410E+04
 0.14835300E+03 -0.32700E+04
 0.14840300E+03 -0.26820E+04
 0.14845300E+03 -0.26470E+04
 0.14850299E+03 -0.37950E+04
 0.14855299E+03 -0.53520E+04
 0.14860300E+03 -0.60980E+04
 0.14865300E+03 -0.64320E+04
 0.14870300E+03 -0.65410E+04
 0.14875299E+03 -0.61760E+04
 0.14880299E+03 -0.56830E+04
 0.14885300E+03 -0.55260E+04
 0.14890300E+03 -0.60990E+04
 0.14895300E+03 -0.73100E+04
 0.14900299E+03 -0.77390E+04
 0.14905299E+03 -0.61690E+04
 0.14910300E+03 -0.37600E+04
 0.14915300E+03 -0.23270E+04
 0.14920300E+03 -0.21190E+04
 0.14925299E+03 -0.24710E+04
 0.14930299E+03 -0.29660E+04
 0.14935300E+03 -0.30870E+04
 0.14940300E+03 -0.26230E+04
 0.14945300E+03 -0.19360E+04
 0.14950299E+03 -0.14810E+04
 0.14955299E+03 -0.14220E+04
 0.14960300E+03 -0.19190E+04
 0.14965300E+03 -0.31520E+04
 0.14970300E+03 -0.46430E+04
 0.14975299E+03 -0.54940E+04
 0.14980299E+03 -0.54470E+04
 0.14985300E+03 -0.51700E+04
 0.14990300E+03 -0.48820E+04
 0.14995300E+03 -0.45440E+04
