-0.29779999E+01 -0.14822E+05
-0.29280000E+01 -0.15449E+05
-0.28780000E+01 -0.16043E+05
-0.28279998E+01 -0.16647E+05
-0.27779999E+01 -0.16944E+05
-0.27279999E+01 -0.16355E+05
-0.26780000E+01 -0.14678E+05
-0.26280000E+01 -0.12106E+05
-0.25779998E+01 -0.89730E+04
-0.25279999E+01 -0.56150E+04
-0.24779999E+01 -0.25340E+04
-0.24280000E+01 -0.26200E+03
-0.23779998E+01  0.13850E+04
-0.23279998E+01  0.30400E+04
-0.22779999E+01  0.50530E+04
-0.22279999E+01  0.76410E+04
-0.21780000E+01  0.11025E+05
-0.21279998E+01  0.14849E+05
-0.20779998E+01  0.18459E+05
-0.20279999E+01  0.21923E+05
-0.19779999E+01  0.25405E+05
-0.19279999E+01  0.28478E+05
-0.18779999E+01  0.30836E+05
-0.18279999E+01  0.32433E+05
-0.17779999E+01  0.33242E+05
-0.17279999E+01  0.33693E+05
-0.16779999E+01  0.34257E+05
-0.16279999E+01  0.34748E+05
-0.15779999E+01  0.34663E+05
-0.15279999E+01  0.33574E+05
-0.14779999E+01  0.31309E+05
-0.14279999E+01  0.28162E+05
-0.13779999E+01  0.24867E+05
-0.13279999E+01  0.21820E+05
-0.12779999E+01  0.18904E+05
-0.12279999E+01  0.16248E+05
-0.11779999E+01  0.14009E+05
-0.11279999E+01  0.11774E+05
-0.10779999E+01  0.87490E+04
-0.10279999E+01  0.46770E+04
-0.97799993E+00  0.22900E+03
-0.92799997E+00 -0.35960E+04
-0.87799978E+00 -0.60340E+04
-0.82799983E+00 -0.68910E+04
-0.77799988E+00 -0.64440E+04
-0.72799993E+00 -0.51810E+04
-0.67799997E+00 -0.37860E+04
-0.62799978E+00 -0.30140E+04
-0.57799983E+00 -0.34700E+04
-0.52799988E+00 -0.52870E+04
-0.47799993E+00 -0.79950E+04
-0.42799997E+00 -0.10817E+05
-0.37799978E+00 -0.12967E+05
-0.32799983E+00 -0.14140E+05
-0.27799988E+00 -0.14616E+05
-0.22799993E+00 -0.14488E+05
-0.17799997E+00 -0.13805E+05
-0.12799978E+00 -0.13246E+05
-0.77999830E-01 -0.13395E+05
-0.27999878E-01 -0.14066E+05
 0.22000074E-01 -0.14921E+05
 0.72000027E-01 -0.15872E+05
 0.12200022E+00 -0.16764E+05
 0.17200017E+00 -0.17077E+05
 0.22200012E+00 -0.16164E+05
 0.27200007E+00 -0.13750E+05
 0.32200003E+00 -0.10094E+05
 0.37200022E+00 -0.59340E+04
 0.42200017E+00 -0.21710E+04
 0.47200012E+00  0.53000E+03
 0.52200007E+00  0.18500E+04
 0.57200003E+00  0.18560E+04
 0.62200022E+00  0.10390E+04
 0.67200017E+00  0.92000E+02
 0.72200012E+00 -0.51600E+03
 0.77200007E+00 -0.78000E+03
 0.82200003E+00 -0.83400E+03
 0.87200022E+00 -0.77800E+03
 0.92200017E+00 -0.80300E+03
 0.97200012E+00 -0.10340E+04
 0.10220001E+01 -0.14170E+04
 0.10720003E+01 -0.16790E+04
 0.11220000E+01 -0.15960E+04
 0.11720002E+01 -0.12650E+04
 0.12220004E+01 -0.11470E+04
 0.12720001E+01 -0.18350E+04
 0.13220003E+01 -0.32740E+04
 0.13720000E+01 -0.47330E+04
 0.14220002E+01 -0.55620E+04
 0.14720004E+01 -0.54270E+04
 0.15220001E+01 -0.44170E+04
 0.15720003E+01 -0.28490E+04
 0.16220000E+01 -0.80300E+03
 0.16720002E+01  0.13880E+04
 0.17220004E+01  0.29560E+04
 0.17720001E+01  0.33090E+04
 0.18220003E+01  0.24070E+04
 0.18720000E+01  0.95700E+03
 0.19220002E+01 -0.39700E+03
 0.19720004E+01 -0.14850E+04
 0.20220001E+01 -0.18220E+04
 0.20720003E+01 -0.89400E+03
 0.21220000E+01  0.99200E+03
 0.21720002E+01  0.29850E+04
 0.22220004E+01  0.43670E+04
 0.22720001E+01  0.45140E+04
 0.23220003E+01  0.32060E+04
 0.23720000E+01  0.12500E+04
 0.24220002E+01 -0.30800E+03
 0.24720004E+01 -0.98400E+03
 0.25220001E+01 -0.71300E+03
 0.25720003E+01  0.26000E+02
 0.26220000E+01  0.46800E+03
 0.26720002E+01  0.51000E+02
 0.27220004E+01 -0.16140E+04
 0.27720001E+01 -0.45900E+04
 0.28220003E+01 -0.83530E+04
 0.28720000E+01 -0.11969E+05
 0.29220002E+01 -0.14809E+05
 0.29720004E+01 -0.16864E+05
 0.30220001E+01 -0.18131E+05
 0.30720003E+01 -0.18473E+05
 0.31220000E+01 -0.18284E+05
 0.31720002E+01 -0.18218E+05
 0.32220004E+01 -0.18126E+05
 0.32720001E+01 -0.17406E+05
 0.33220003E+01 -0.16023E+05
 0.33720000E+01 -0.14148E+05
 0.34220002E+01 -0.11711E+05
 0.34720004E+01 -0.86280E+04
 0.35220001E+01 -0.49800E+04
 0.35720003E+01 -0.10580E+04
 0.36220000E+01  0.27470E+04
 0.36720002E+01  0.58610E+04
 0.37220004E+01  0.77850E+04
 0.37720001E+01  0.87520E+04
 0.38220003E+01  0.95200E+04
 0.38720000E+01  0.10606E+05
 0.39220002E+01  0.11928E+05
 0.39720004E+01  0.13134E+05
 0.40220003E+01  0.14058E+05
 0.40720005E+01  0.14711E+05
 0.41219997E+01  0.14796E+05
 0.41719999E+01  0.13669E+05
 0.42220001E+01  0.11314E+05
 0.42720003E+01  0.86370E+04
 0.43220005E+01  0.66170E+04
 0.43719997E+01  0.56440E+04
 0.44219999E+01  0.53240E+04
 0.44720001E+01  0.49130E+04
 0.45220003E+01  0.38530E+04
 0.45720005E+01  0.18860E+04
 0.46219997E+01 -0.81200E+03
 0.46719999E+01 -0.37930E+04
 0.47220001E+01 -0.67210E+04
 0.47720003E+01 -0.92550E+04
 0.48220005E+01 -0.10848E+05
 0.48719997E+01 -0.11170E+05
 0.49219999E+01 -0.10520E+05
 0.49720001E+01 -0.96380E+04
 0.50220003E+01 -0.91670E+04
 0.50720005E+01 -0.91780E+04
 0.51220007E+01 -0.92580E+04
 0.51720009E+01 -0.90330E+04
 0.52220001E+01 -0.85790E+04
 0.52720003E+01 -0.81430E+04
 0.53220005E+01 -0.77090E+04
 0.53720007E+01 -0.71630E+04
 0.54220009E+01 -0.65100E+04
 0.54720001E+01 -0.57750E+04
 0.55220003E+01 -0.51190E+04
 0.55720005E+01 -0.49340E+04
 0.56220007E+01 -0.50900E+04
 0.56720009E+01 -0.48590E+04
 0.57220001E+01 -0.38510E+04
 0.57720003E+01 -0.23410E+04
 0.58220005E+01 -0.93700E+03
 0.58720007E+01  0.78000E+02
 0.59220009E+01  0.55600E+03
 0.59720001E+01  0.39200E+03
 0.60220003E+01  0.70000E+02
 0.60720005E+01  0.26300E+03
 0.61220007E+01  0.15170E+04
 0.61720009E+01  0.38800E+04
 0.62220001E+01  0.68560E+04
 0.62720003E+01  0.10001E+05
 0.63220005E+01  0.12846E+05
 0.63720007E+01  0.14970E+05
 0.64220009E+01  0.16139E+05
 0.64720001E+01  0.16397E+05
 0.65220003E+01  0.16116E+05
 0.65720005E+01  0.15572E+05
 0.66220007E+01  0.14918E+05
 0.66720009E+01  0.14038E+05
 0.67220001E+01  0.12583E+05
 0.67720003E+01  0.10627E+05
 0.68220005E+01  0.87350E+04
 0.68720007E+01  0.76460E+04
 0.69220009E+01  0.78040E+04
 0.69720001E+01  0.93280E+04
 0.70220003E+01  0.12060E+05
 0.70720005E+01  0.15047E+05
 0.71220007E+01  0.16856E+05
 0.71720009E+01  0.16719E+05
 0.72220001E+01  0.14962E+05
 0.72720003E+01  0.12486E+05
 0.73220005E+01  0.10209E+05
 0.73720007E+01  0.86850E+04
 0.74220009E+01  0.82910E+04
 0.74720001E+01  0.93970E+04
 0.75220003E+01  0.11650E+05
 0.75720005E+01  0.13954E+05
 0.76220007E+01  0.15253E+05
 0.76720009E+01  0.14996E+05
 0.77220001E+01  0.13130E+05
 0.77720003E+01  0.99040E+04
 0.78220005E+01  0.59260E+04
 0.78720007E+01  0.19390E+04
 0.79220009E+01 -0.14100E+04
 0.79720001E+01 -0.34960E+04
 0.80220003E+01 -0.41610E+04
 0.80720005E+01 -0.40470E+04
 0.81220007E+01 -0.39010E+04
 0.81720009E+01 -0.41860E+04
 0.82220001E+01 -0.53110E+04
 0.82720003E+01 -0.74400E+04
 0.83220005E+01 -0.10204E+05
 0.83720007E+01 -0.12929E+05
 0.84220009E+01 -0.15203E+05
 0.84720001E+01 -0.16843E+05
 0.85220003E+01 -0.17744E+05
 0.85720005E+01 -0.18107E+05
 0.86220007E+01 -0.18177E+05
 0.86720009E+01 -0.18268E+05
 0.87220001E+01 -0.18768E+05
 0.87720003E+01 -0.19758E+05
 0.88220005E+01 -0.21029E+05
 0.88720007E+01 -0.22227E+05
 0.89220009E+01 -0.22897E+05
 0.89720001E+01 -0.22564E+05
 0.90220003E+01 -0.21150E+05
 0.90720005E+01 -0.18810E+05
 0.91220007E+01 -0.15552E+05
 0.91720009E+01 -0.11741E+05
 0.92220001E+01 -0.80450E+04
 0.92720003E+01 -0.49830E+04
 0.93220005E+01 -0.27830E+04
 0.93720007E+01 -0.12090E+04
 0.94220009E+01  0.10100E+03
 0.94720001E+01  0.13610E+04
 0.95220003E+01  0.26320E+04
 0.95720005E+01  0.37240E+04
 0.96220007E+01  0.45910E+04
 0.96720009E+01  0.57400E+04
 0.97220001E+01  0.76000E+04
 0.97720003E+01  0.99410E+04
 0.98220005E+01  0.12372E+05
 0.98720007E+01  0.14511E+05
 0.99220009E+01  0.15791E+05
 0.99720001E+01  0.15740E+05
 0.10022000E+02  0.14380E+05
 0.10072001E+02  0.12274E+05
 0.10122001E+02  0.10201E+05
 0.10172001E+02  0.90300E+04
 0.10222000E+02  0.93280E+04
 0.10272000E+02  0.10831E+05
 0.10322001E+02  0.12649E+05
 0.10372001E+02  0.13876E+05
 0.10422001E+02  0.13989E+05
 0.10472000E+02  0.12752E+05
 0.10522000E+02  0.10272E+05
 0.10572001E+02  0.70360E+04
 0.10622001E+02  0.38220E+04
 0.10672001E+02  0.14340E+04
 0.10722000E+02  0.70000E+02
 0.10772000E+02 -0.48100E+03
 0.10822001E+02 -0.60100E+03
 0.10872001E+02 -0.11110E+04
 0.10922001E+02 -0.24700E+04
 0.10972000E+02 -0.43430E+04
 0.11022000E+02 -0.63830E+04
 0.11072001E+02 -0.82810E+04
 0.11122001E+02 -0.94930E+04
 0.11172001E+02 -0.98250E+04
 0.11222000E+02 -0.95440E+04
 0.11272000E+02 -0.90130E+04
 0.11322001E+02 -0.86800E+04
 0.11372001E+02 -0.88480E+04
 0.11422001E+02 -0.94710E+04
 0.11472000E+02 -0.10192E+05
 0.11522000E+02 -0.10690E+05
 0.11572001E+02 -0.10890E+05
 0.11622001E+02 -0.10869E+05
 0.11672001E+02 -0.10692E+05
 0.11722000E+02 -0.10271E+05
 0.11772000E+02 -0.97750E+04
 0.11822001E+02 -0.95390E+04
 0.11872001E+02 -0.95830E+04
 0.11922001E+02 -0.94900E+04
 0.11972000E+02 -0.87390E+04
 0.12022000E+02 -0.74700E+04
 0.12072001E+02 -0.62560E+04
 0.12122001E+02 -0.53920E+04
 0.12172001E+02 -0.49260E+04
 0.12222000E+02 -0.46980E+04
 0.12272000E+02 -0.44750E+04
 0.12322001E+02 -0.42950E+04
 0.12372001E+02 -0.41910E+04
 0.12422001E+02 -0.38260E+04
 0.12472000E+02 -0.28270E+04
 0.12522000E+02 -0.15740E+04
 0.12572001E+02 -0.93400E+03
 0.12622001E+02 -0.11060E+04
 0.12672001E+02 -0.17590E+04
 0.12722000E+02 -0.24410E+04
 0.12772000E+02 -0.25920E+04
 0.12822001E+02 -0.18730E+04
 0.12872001E+02 -0.35300E+03
 0.12922001E+02  0.14000E+04
 0.12972000E+02  0.27480E+04
 0.13022000E+02  0.34500E+04
 0.13072001E+02  0.34790E+04
 0.13122001E+02  0.29940E+04
 0.13172000E+02  0.23840E+04
 0.13222001E+02  0.20980E+04
 0.13272000E+02  0.23630E+04
 0.13322001E+02  0.31870E+04
 0.13372001E+02  0.45190E+04
 0.13422000E+02  0.62380E+04
 0.13472001E+02  0.82690E+04
 0.13522000E+02  0.10448E+05
 0.13572001E+02  0.12221E+05
 0.13622001E+02  0.13065E+05
 0.13672000E+02  0.12920E+05
 0.13722001E+02  0.11994E+05
 0.13772000E+02  0.10620E+05
 0.13822001E+02  0.91690E+04
 0.13872001E+02  0.79720E+04
 0.13922000E+02  0.71440E+04
 0.13972001E+02  0.63710E+04
 0.14022000E+02  0.53260E+04
 0.14072001E+02  0.41180E+04
 0.14122001E+02  0.30850E+04
 0.14172000E+02  0.23740E+04
 0.14222001E+02  0.18370E+04
 0.14272000E+02  0.13140E+04
 0.14322001E+02  0.70800E+03
 0.14372001E+02 -0.78000E+02
 0.14422000E+02 -0.98800E+03
 0.14472001E+02 -0.19200E+04
 0.14522000E+02 -0.27550E+04
 0.14572001E+02 -0.31420E+04
 0.14622001E+02 -0.30200E+04
 0.14672000E+02 -0.29650E+04
 0.14722001E+02 -0.32620E+04
 0.14772000E+02 -0.37120E+04
 0.14822001E+02 -0.40620E+04
 0.14872001E+02 -0.40000E+04
 0.14922000E+02 -0.33790E+04
 0.14972001E+02 -0.17250E+04
 0.15022000E+02  0.95900E+03
 0.15072001E+02  0.36450E+04
 0.15122001E+02  0.58080E+04
 0.15172000E+02  0.79210E+04
 0.15222001E+02  0.10058E+05
 0.15272000E+02  0.10410E+05
 0.15322001E+02  0.85310E+04
 0.15372001E+02  0.30210E+04
 0.15422000E+02 -0.68840E+04
 0.15472001E+02 -0.16392E+05
 0.15522000E+02 -0.25891E+05
 0.15572001E+02 -0.36259E+05
 0.15622001E+02 -0.46627E+05
 0.15672000E+02 -0.53163E+05
 0.15722001E+02 -0.37660E+05
 0.15772000E+02  0.31500E+04
 0.15822001E+02  0.27638E+05
 0.15872001E+02  0.11981E+05
 0.15922000E+02 -0.15930E+04
 0.15972001E+02 -0.46710E+04
 0.16021999E+02 -0.13205E+05
 0.16072001E+02 -0.36919E+05
 0.16122000E+02 -0.13099E+06
 0.16171999E+02 -0.26390E+06
 0.16222000E+02 -0.34475E+06
 0.16271999E+02 -0.36882E+06
 0.16322001E+02 -0.35143E+06
 0.16372000E+02 -0.28550E+06
 0.16421999E+02 -0.19782E+06
 0.16472000E+02 -0.95630E+05
 0.16521999E+02  0.20399E+05
 0.16572001E+02  0.43020E+05
 0.16622000E+02 -0.17685E+05
 0.16671999E+02 -0.70132E+05
 0.16722000E+02 -0.13354E+06
 0.16771999E+02 -0.23132E+06
 0.16822001E+02 -0.40409E+06
 0.16872000E+02 -0.55573E+06
 0.16921999E+02 -0.55891E+06
 0.16972000E+02 -0.43879E+06
 0.17021999E+02 -0.21639E+06
 0.17072001E+02  0.73561E+05
 0.17122000E+02  0.34326E+06
 0.17171999E+02  0.46719E+06
 0.17222000E+02  0.37032E+06
 0.17271999E+02  0.40591E+05
 0.17322001E+02 -0.28384E+06
 0.17372000E+02 -0.36136E+06
 0.17421999E+02 -0.37645E+06
 0.17472000E+02 -0.42093E+06
 0.17521999E+02 -0.47664E+06
 0.17572001E+02 -0.51862E+06
 0.17622000E+02 -0.38418E+06
 0.17671999E+02 -0.69017E+05
 0.17722000E+02  0.20044E+06
 0.17771999E+02  0.25251E+06
 0.17822001E+02  0.13218E+06
 0.17872000E+02 -0.11556E+06
 0.17921999E+02 -0.23689E+06
 0.17972000E+02 -0.24443E+06
 0.18021999E+02 -0.36237E+06
 0.18072001E+02 -0.28643E+06
 0.18122000E+02 -0.25679E+05
 0.18171999E+02  0.14369E+06
 0.18222000E+02  0.97666E+05
 0.18271999E+02 -0.16530E+06
 0.18322001E+02 -0.41807E+06
 0.18372000E+02 -0.46792E+06
 0.18421999E+02 -0.26642E+06
 0.18472000E+02  0.73717E+05
 0.18521999E+02  0.42738E+06
 0.18572001E+02  0.58708E+06
 0.18622000E+02  0.51278E+06
 0.18671999E+02  0.34927E+06
 0.18722000E+02  0.16818E+06
 0.18771999E+02 -0.57390E+05
 0.18822001E+02 -0.37552E+06
 0.18872000E+02 -0.58096E+06
 0.18921999E+02 -0.63948E+06
 0.18972000E+02 -0.55840E+06
 0.19021999E+02 -0.30140E+06
 0.19072001E+02 -0.74940E+04
 0.19122000E+02  0.24893E+06
 0.19171999E+02  0.46920E+06
 0.19222000E+02  0.65938E+06
 0.19271999E+02  0.59431E+06
 0.19322001E+02  0.22608E+06
 0.19372000E+02 -0.18720E+06
 0.19421999E+02 -0.41581E+06
 0.19472000E+02 -0.25817E+06
 0.19521999E+02  0.10956E+06
 0.19572001E+02  0.37946E+06
 0.19622000E+02  0.57759E+06
 0.19671999E+02  0.55924E+06
 0.19722000E+02  0.19942E+06
 0.19771999E+02 -0.12600E+06
 0.19822001E+02 -0.16285E+06
 0.19872000E+02  0.75647E+05
 0.19921999E+02  0.48661E+06
 0.19972000E+02  0.79882E+06
 0.20021999E+02  0.70837E+06
 0.20072001E+02  0.28569E+06
 0.20122000E+02 -0.50508E+05
 0.20171999E+02 -0.17034E+06
 0.20222000E+02 -0.32622E+06
 0.20271999E+02 -0.58931E+06
 0.20322001E+02 -0.49062E+06
 0.20372000E+02  0.56919E+05
 0.20421999E+02  0.62379E+06
 0.20472000E+02  0.10022E+07
 0.20521999E+02  0.95939E+06
 0.20572001E+02  0.63820E+06
 0.20622000E+02  0.33211E+06
 0.20671999E+02 -0.70279E+05
 0.20722000E+02 -0.49491E+06
 0.20771999E+02 -0.53646E+06
 0.20822001E+02 -0.88164E+05
 0.20872000E+02  0.38344E+06
 0.20921999E+02  0.73550E+06
 0.20972000E+02  0.95526E+06
 0.21021999E+02  0.84197E+06
 0.21072001E+02  0.48780E+06
 0.21122000E+02 -0.48209E+05
 0.21171999E+02 -0.52993E+06
 0.21222000E+02 -0.79772E+06
 0.21271999E+02 -0.72141E+06
 0.21322001E+02 -0.60144E+05
 0.21372000E+02  0.69814E+06
 0.21421999E+02  0.10361E+07
 0.21472000E+02  0.99271E+06
 0.21521999E+02  0.75540E+06
 0.21572001E+02  0.20768E+06
 0.21622000E+02 -0.71574E+06
 0.21671999E+02 -0.14188E+07
 0.21722000E+02 -0.14531E+07
 0.21771999E+02 -0.76463E+06
 0.21822001E+02  0.17578E+06
 0.21872000E+02  0.72525E+06
 0.21921999E+02  0.94484E+06
 0.21972000E+02  0.92014E+06
 0.22021999E+02  0.53509E+06
 0.22072001E+02 -0.10638E+06
 0.22122000E+02 -0.76922E+06
 0.22171999E+02 -0.11903E+07
 0.22222000E+02 -0.11124E+07
 0.22271999E+02 -0.71088E+06
 0.22322001E+02 -0.23546E+06
 0.22372000E+02  0.36808E+06
 0.22421999E+02  0.74878E+06
 0.22472000E+02  0.64700E+06
 0.22521999E+02  0.20381E+06
 0.22572001E+02 -0.40458E+06
 0.22622000E+02 -0.84933E+06
 0.22671999E+02 -0.87231E+06
 0.22722000E+02 -0.63557E+06
 0.22771999E+02 -0.52194E+06
 0.22822001E+02 -0.41086E+06
 0.22872000E+02 -0.94546E+05
 0.22921999E+02  0.16749E+06
 0.22972000E+02  0.24915E+06
 0.23021999E+02  0.17349E+06
 0.23072001E+02 -0.12924E+06
 0.23122000E+02 -0.56444E+06
 0.23171999E+02 -0.76857E+06
 0.23222000E+02 -0.58374E+06
 0.23271999E+02 -0.37826E+06
 0.23322001E+02 -0.33927E+06
 0.23372000E+02 -0.26689E+06
 0.23421999E+02 -0.16966E+06
 0.23472000E+02 -0.10447E+06
 0.23521999E+02 -0.25512E+05
 0.23572001E+02 -0.10212E+05
 0.23622000E+02  0.71741E+05
 0.23671999E+02  0.34559E+06
 0.23722000E+02  0.47928E+06
 0.23771999E+02  0.32195E+06
 0.23822001E+02  0.79184E+05
 0.23872000E+02  0.42336E+05
 0.23921999E+02  0.19636E+06
 0.23972000E+02  0.15859E+06
 0.24021999E+02  0.12449E+05
 0.24072001E+02  0.59040E+04
 0.24122000E+02  0.35509E+05
 0.24171999E+02  0.83806E+05
 0.24222000E+02  0.16981E+06
 0.24271999E+02  0.17768E+06
 0.24322001E+02  0.23599E+06
 0.24372000E+02  0.48673E+06
 0.24421999E+02  0.75386E+06
 0.24472000E+02  0.82418E+06
 0.24521999E+02  0.65656E+06
 0.24572001E+02  0.49572E+06
 0.24622000E+02  0.35143E+06
 0.24671999E+02 -0.10100E+06
 0.24722000E+02 -0.70280E+06
 0.24771999E+02 -0.90321E+06
 0.24822001E+02 -0.63495E+06
 0.24872000E+02 -0.22320E+06
 0.24921999E+02  0.18635E+06
 0.24972000E+02  0.62297E+06
 0.25021999E+02  0.10778E+07
 0.25072001E+02  0.12683E+07
 0.25122000E+02  0.10228E+07
 0.25171999E+02  0.57560E+06
 0.25222000E+02 -0.80123E+05
 0.25271999E+02 -0.10337E+07
 0.25322001E+02 -0.15595E+07
 0.25372000E+02 -0.12400E+07
 0.25421999E+02 -0.67599E+06
 0.25472000E+02 -0.19507E+06
 0.25521999E+02  0.64213E+05
 0.25572001E+02  0.14723E+06
 0.25622000E+02  0.28555E+06
 0.25671999E+02  0.51457E+06
 0.25722000E+02  0.78936E+06
 0.25771999E+02  0.46872E+06
 0.25822001E+02 -0.54424E+06
 0.25872000E+02 -0.12128E+07
 0.25921999E+02 -0.10431E+07
 0.25972000E+02 -0.66662E+06
 0.26021999E+02 -0.65991E+06
 0.26072001E+02 -0.39931E+06
 0.26122000E+02  0.38088E+06
 0.26171999E+02  0.71506E+06
 0.26222000E+02  0.47076E+06
 0.26271999E+02  0.20652E+06
 0.26322001E+02 -0.41501E+06
 0.26372000E+02 -0.99502E+06
 0.26421999E+02 -0.16284E+06
 0.26472000E+02  0.11058E+07
 0.26521999E+02  0.79063E+06
 0.26572001E+02 -0.23655E+06
 0.26622000E+02 -0.28634E+06
 0.26671999E+02  0.27335E+06
 0.26722000E+02  0.63872E+06
 0.26771999E+02  0.55288E+06
 0.26822001E+02  0.58810E+04
 0.26872000E+02 -0.91374E+06
 0.26921999E+02 -0.16386E+07
 0.26972000E+02 -0.17607E+07
 0.27021999E+02 -0.18484E+07
 0.27072001E+02 -0.14250E+07
 0.27122000E+02 -0.23071E+06
 0.27171999E+02  0.89938E+06
 0.27222000E+02  0.19030E+07
 0.27271999E+02  0.23726E+07
 0.27322001E+02  0.18518E+07
 0.27372000E+02  0.71950E+06
 0.27421999E+02 -0.24482E+06
 0.27472000E+02 -0.95716E+06
 0.27521999E+02 -0.17928E+07
 0.27572001E+02 -0.19745E+07
 0.27622000E+02 -0.15022E+07
 0.27671999E+02 -0.64273E+06
 0.27722000E+02  0.52937E+06
 0.27771999E+02  0.79688E+06
 0.27822001E+02  0.73790E+06
 0.27872000E+02  0.11096E+07
 0.27921999E+02  0.52450E+06
 0.27972000E+02 -0.11644E+07
 0.28021999E+02 -0.17716E+07
 0.28072001E+02 -0.43796E+06
 0.28122000E+02  0.13908E+07
 0.28171999E+02  0.28554E+07
 0.28222000E+02  0.29390E+07
 0.28271999E+02  0.14949E+07
 0.28322001E+02  0.39883E+06
 0.28372000E+02 -0.19262E+06
 0.28421999E+02 -0.11719E+07
 0.28472000E+02 -0.19234E+07
 0.28521999E+02 -0.23080E+07
 0.28572001E+02 -0.28150E+07
 0.28622000E+02 -0.31641E+07
 0.28671999E+02 -0.24526E+07
 0.28722000E+02 -0.40647E+05
 0.28771999E+02  0.20790E+07
 0.28822001E+02  0.18414E+07
 0.28872000E+02  0.37509E+06
 0.28921999E+02 -0.41019E+05
 0.28972000E+02  0.26815E+06
 0.29021999E+02 -0.13915E+07
 0.29071999E+02 -0.44112E+07
 0.29122002E+02 -0.63232E+07
 0.29172001E+02 -0.72805E+07
 0.29222000E+02 -0.73382E+07
 0.29271999E+02 -0.51142E+07
 0.29321999E+02 -0.19057E+07
 0.29372002E+02  0.40574E+06
 0.29422001E+02  0.23817E+07
 0.29472000E+02  0.18300E+07
 0.29521999E+02 -0.14264E+07
 0.29571999E+02 -0.42143E+07
 0.29622002E+02 -0.67394E+07
 0.29672001E+02 -0.71480E+07
 0.29722000E+02 -0.50767E+07
 0.29771999E+02 -0.42059E+07
 0.29821999E+02 -0.40125E+07
 0.29872002E+02 -0.19242E+07
 0.29922001E+02  0.12224E+07
 0.29972000E+02  0.10191E+07
 0.30021999E+02 -0.19630E+07
 0.30071999E+02 -0.32697E+07
 0.30122002E+02 -0.24773E+07
 0.30172001E+02 -0.10650E+07
 0.30222000E+02 -0.44682E+06
 0.30271999E+02  0.15101E+07
 0.30321999E+02  0.50613E+07
 0.30372002E+02  0.51395E+07
 0.30422001E+02  0.17297E+07
 0.30472000E+02 -0.12996E+07
 0.30521999E+02 -0.41806E+07
 0.30571999E+02 -0.67770E+07
 0.30622002E+02 -0.56224E+07
 0.30672001E+02 -0.21591E+07
 0.30722000E+02  0.17654E+06
 0.30771999E+02  0.20479E+07
 0.30821999E+02  0.39091E+07
 0.30872002E+02  0.44004E+07
 0.30922001E+02  0.21391E+07
 0.30972000E+02 -0.11018E+07
 0.31021999E+02 -0.34574E+07
 0.31071999E+02 -0.55177E+07
 0.31122002E+02 -0.61095E+07
 0.31172001E+02 -0.41387E+07
 0.31222000E+02 -0.13608E+07
 0.31271999E+02  0.80333E+05
 0.31321999E+02  0.11112E+07
 0.31372002E+02  0.23920E+07
 0.31422001E+02  0.18716E+07
 0.31472000E+02  0.51431E+06
 0.31521999E+02 -0.34160E+06
 0.31571999E+02 -0.13119E+07
 0.31622002E+02 -0.11720E+07
 0.31672001E+02 -0.79407E+05
 0.31722000E+02  0.56659E+06
 0.31771999E+02  0.64534E+06
 0.31821999E+02 -0.21127E+06
 0.31872002E+02 -0.16957E+07
 0.31922001E+02 -0.25904E+07
 0.31972000E+02 -0.24974E+07
 0.32021999E+02 -0.18975E+07
 0.32071999E+02 -0.90587E+06
 0.32122002E+02  0.38091E+06
 0.32172001E+02  0.13401E+07
 0.32222000E+02  0.16117E+07
 0.32271999E+02  0.11463E+07
 0.32321999E+02  0.37434E+06
 0.32372002E+02 -0.13906E+06
 0.32422001E+02 -0.26892E+06
 0.32472000E+02 -0.28448E+06
 0.32521999E+02 -0.68529E+06
 0.32571999E+02 -0.12340E+07
 0.32622002E+02 -0.13061E+07
 0.32672001E+02 -0.96430E+06
 0.32722000E+02 -0.52867E+06
 0.32771999E+02 -0.15327E+06
 0.32821999E+02  0.20080E+06
 0.32872002E+02  0.23470E+06
 0.32922001E+02 -0.50623E+06
 0.32972000E+02 -0.12070E+07
 0.33021999E+02 -0.10699E+07
 0.33071999E+02 -0.81822E+06
 0.33122002E+02 -0.10159E+07
 0.33172001E+02 -0.12775E+07
 0.33222000E+02 -0.12693E+07
 0.33271999E+02 -0.10974E+07
 0.33321999E+02 -0.58178E+06
 0.33372002E+02  0.28808E+06
 0.33422001E+02  0.54245E+06
 0.33472000E+02 -0.21044E+06
 0.33521999E+02 -0.13211E+07
 0.33571999E+02 -0.22850E+07
 0.33622002E+02 -0.30103E+07
 0.33672001E+02 -0.32630E+07
 0.33722000E+02 -0.24540E+07
 0.33771999E+02 -0.10239E+07
 0.33821999E+02 -0.17171E+05
 0.33872002E+02  0.58107E+06
 0.33922001E+02  0.75709E+06
 0.33972000E+02  0.54052E+05
 0.34021999E+02 -0.12775E+07
 0.34071999E+02 -0.24216E+07
 0.34122002E+02 -0.29222E+07
 0.34172001E+02 -0.27281E+07
 0.34222000E+02 -0.17965E+07
 0.34271999E+02 -0.70697E+06
 0.34321999E+02 -0.10223E+06
 0.34372002E+02  0.15608E+06
 0.34422001E+02 -0.99221E+05
 0.34472000E+02 -0.10251E+07
 0.34521999E+02 -0.20963E+07
 0.34571999E+02 -0.28699E+07
 0.34622002E+02 -0.34372E+07
 0.34672001E+02 -0.38932E+07
 0.34722000E+02 -0.37244E+07
 0.34771999E+02 -0.27640E+07
 0.34821999E+02 -0.16061E+07
 0.34872002E+02 -0.10523E+07
 0.34922001E+02 -0.15352E+07
 0.34972000E+02 -0.25401E+07
 0.35021999E+02 -0.31406E+07
 0.35071999E+02 -0.26281E+07
 0.35122002E+02 -0.12758E+07
 0.35172001E+02 -0.17593E+06
 0.35222000E+02  0.18174E+06
 0.35271999E+02  0.78189E+05
 0.35321999E+02 -0.19171E+06
 0.35372002E+02 -0.72351E+06
 0.35422001E+02 -0.14432E+07
 0.35472000E+02 -0.19345E+07
 0.35521999E+02 -0.19090E+07
 0.35571999E+02 -0.11613E+07
 0.35622002E+02 -0.13302E+05
 0.35672001E+02  0.75837E+06
 0.35722000E+02  0.82565E+06
 0.35771999E+02  0.42074E+06
 0.35821999E+02 -0.13688E+06
 0.35872002E+02 -0.71732E+06
 0.35922001E+02 -0.11656E+07
 0.35972000E+02 -0.12767E+07
 0.36021999E+02 -0.10294E+07
 0.36071999E+02 -0.69862E+06
 0.36122002E+02 -0.63721E+06
 0.36172001E+02 -0.89582E+06
 0.36222000E+02 -0.14275E+07
 0.36271999E+02 -0.20135E+07
 0.36321999E+02 -0.20467E+07
 0.36372002E+02 -0.12899E+07
 0.36422001E+02 -0.14939E+06
 0.36472000E+02  0.92292E+06
 0.36521999E+02  0.15760E+07
 0.36571999E+02  0.15961E+07
 0.36622002E+02  0.10796E+07
 0.36672001E+02  0.24865E+06
 0.36722000E+02 -0.68264E+06
 0.36771999E+02 -0.13878E+07
 0.36821999E+02 -0.16976E+07
 0.36872002E+02 -0.19138E+07
 0.36922001E+02 -0.21139E+07
 0.36972000E+02 -0.16840E+07
 0.37021999E+02 -0.55002E+06
 0.37071999E+02  0.50785E+06
 0.37122002E+02  0.10084E+07
 0.37172001E+02  0.79734E+06
 0.37222000E+02  0.24487E+05
 0.37271999E+02 -0.80247E+06
 0.37321999E+02 -0.13278E+07
 0.37372002E+02 -0.14727E+07
 0.37422001E+02 -0.15115E+07
 0.37472000E+02 -0.16064E+07
 0.37521999E+02 -0.15201E+07
 0.37571999E+02 -0.12244E+07
 0.37622002E+02 -0.98063E+06
 0.37672001E+02 -0.94769E+06
 0.37722000E+02 -0.10217E+07
 0.37771999E+02 -0.10697E+07
 0.37821999E+02 -0.98767E+06
 0.37872002E+02 -0.75533E+06
 0.37922001E+02 -0.63563E+06
 0.37972000E+02 -0.70133E+06
 0.38021999E+02 -0.64795E+06
 0.38071999E+02 -0.22530E+06
 0.38122002E+02  0.31840E+06
 0.38172001E+02  0.40251E+06
 0.38222000E+02 -0.12384E+06
 0.38271999E+02 -0.99756E+06
 0.38321999E+02 -0.17347E+07
 0.38372002E+02 -0.19707E+07
 0.38422001E+02 -0.19370E+07
 0.38472000E+02 -0.17385E+07
 0.38521999E+02 -0.10706E+07
 0.38571999E+02 -0.66627E+05
 0.38622002E+02  0.61083E+06
 0.38672001E+02  0.60347E+06
 0.38722000E+02  0.12074E+06
 0.38771999E+02 -0.55621E+06
 0.38821999E+02 -0.13622E+07
 0.38872002E+02 -0.22656E+07
 0.38922001E+02 -0.27634E+07
 0.38972000E+02 -0.22744E+07
 0.39021999E+02 -0.98596E+06
 0.39071999E+02  0.38279E+06
 0.39122002E+02  0.12680E+07
 0.39172001E+02  0.16323E+07
 0.39222000E+02  0.15416E+07
 0.39271999E+02  0.92415E+06
 0.39321999E+02  0.14226E+05
 0.39372002E+02 -0.78978E+06
 0.39422001E+02 -0.13822E+07
 0.39472000E+02 -0.18604E+07
 0.39521999E+02 -0.20087E+07
 0.39571999E+02 -0.15046E+07
 0.39622002E+02 -0.58733E+06
 0.39672001E+02  0.20824E+06
 0.39722000E+02  0.65317E+06
 0.39771999E+02  0.81502E+06
 0.39821999E+02  0.82724E+06
 0.39872002E+02  0.81085E+06
 0.39922001E+02  0.67802E+06
 0.39972000E+02  0.25708E+06
 0.40021999E+02 -0.34161E+06
 0.40071999E+02 -0.81094E+06
 0.40122002E+02 -0.92533E+06
 0.40172001E+02 -0.75245E+06
 0.40222000E+02 -0.43659E+06
 0.40271999E+02  0.20610E+05
 0.40321999E+02  0.43988E+06
 0.40372002E+02  0.50834E+06
 0.40422001E+02  0.17924E+06
 0.40472000E+02 -0.30774E+06
 0.40521999E+02 -0.68355E+06
 0.40571999E+02 -0.84898E+06
 0.40622002E+02 -0.86897E+06
 0.40672001E+02 -0.84248E+06
 0.40722000E+02 -0.66268E+06
 0.40771999E+02 -0.22232E+06
 0.40821999E+02  0.25592E+06
 0.40872002E+02  0.51955E+06
 0.40922001E+02  0.35927E+06
 0.40972000E+02 -0.28684E+06
 0.41021999E+02 -0.10168E+07
 0.41071999E+02 -0.14221E+07
 0.41122002E+02 -0.15050E+07
 0.41172001E+02 -0.14110E+07
 0.41222000E+02 -0.12575E+07
 0.41271999E+02 -0.10696E+07
 0.41321999E+02 -0.66357E+06
 0.41372002E+02 -0.16101E+05
 0.41422001E+02  0.40709E+06
 0.41472000E+02  0.34248E+06
 0.41521999E+02  0.13670E+06
 0.41571999E+02 -0.39291E+05
 0.41622002E+02 -0.42917E+06
 0.41672001E+02 -0.10938E+07
 0.41722000E+02 -0.16391E+07
 0.41771999E+02 -0.15648E+07
 0.41821999E+02 -0.93661E+06
 0.41872002E+02 -0.23236E+06
 0.41922001E+02  0.36259E+06
 0.41972000E+02  0.92774E+06
 0.42021999E+02  0.14526E+07
 0.42071999E+02  0.17186E+07
 0.42122002E+02  0.14697E+07
 0.42172001E+02  0.82426E+06
 0.42222000E+02  0.25071E+06
 0.42271999E+02 -0.95106E+05
 0.42321999E+02 -0.36122E+06
 0.42372002E+02 -0.48373E+06
 0.42422001E+02 -0.46206E+06
 0.42472000E+02 -0.40854E+06
 0.42521999E+02 -0.30916E+06
 0.42571999E+02 -0.27435E+06
 0.42622002E+02 -0.38508E+06
 0.42672001E+02 -0.54087E+06
 0.42722000E+02 -0.77429E+06
 0.42771999E+02 -0.11169E+07
 0.42821999E+02 -0.13423E+07
 0.42872002E+02 -0.12037E+07
 0.42922001E+02 -0.70246E+06
 0.42972000E+02 -0.10560E+06
 0.43021999E+02  0.25680E+06
 0.43071999E+02  0.25008E+06
 0.43122002E+02  0.56598E+05
 0.43172001E+02 -0.69196E+05
 0.43222000E+02 -0.19690E+06
 0.43271999E+02 -0.46445E+06
 0.43321999E+02 -0.78200E+06
 0.43372002E+02 -0.10204E+07
 0.43422001E+02 -0.10836E+07
 0.43472000E+02 -0.86013E+06
 0.43521999E+02 -0.46388E+06
 0.43571999E+02 -0.40848E+06
 0.43622002E+02 -0.72507E+06
 0.43672001E+02 -0.72827E+06
 0.43722000E+02 -0.31202E+06
 0.43771999E+02 -0.43611E+05
 0.43821999E+02 -0.80405E+05
 0.43872002E+02 -0.12869E+06
 0.43922001E+02 -0.17480E+06
 0.43972000E+02 -0.36250E+06
 0.44021999E+02 -0.59930E+06
 0.44071999E+02 -0.81263E+06
 0.44122002E+02 -0.94264E+06
 0.44172001E+02 -0.89715E+06
 0.44222000E+02 -0.73950E+06
 0.44271999E+02 -0.60368E+06
 0.44321999E+02 -0.46249E+06
 0.44372002E+02 -0.18885E+06
 0.44422001E+02  0.11101E+06
 0.44472000E+02  0.28650E+06
 0.44521999E+02  0.26566E+06
 0.44571999E+02 -0.21244E+05
 0.44622002E+02 -0.24762E+06
 0.44672001E+02 -0.10162E+06
 0.44722000E+02  0.15783E+06
 0.44771999E+02  0.33035E+06
 0.44821999E+02  0.51002E+06
 0.44872002E+02  0.67984E+06
 0.44922001E+02  0.71864E+06
 0.44972000E+02  0.58210E+06
 0.45021999E+02  0.36567E+06
 0.45071999E+02  0.14984E+06
 0.45122002E+02 -0.13227E+06
 0.45172001E+02 -0.41894E+06
 0.45222000E+02 -0.44335E+06
 0.45271999E+02 -0.12573E+06
 0.45321999E+02  0.31062E+06
 0.45372002E+02  0.63003E+06
 0.45422001E+02  0.82472E+06
 0.45472000E+02  0.97588E+06
 0.45521999E+02  0.10370E+07
 0.45571999E+02  0.93313E+06
 0.45622002E+02  0.61132E+06
 0.45672001E+02  0.11299E+06
 0.45722000E+02 -0.30031E+06
 0.45771999E+02 -0.36267E+06
 0.45821999E+02 -0.12484E+06
 0.45872002E+02  0.47955E+05
 0.45922001E+02 -0.95801E+05
 0.45972000E+02 -0.44022E+06
 0.46021999E+02 -0.73599E+06
 0.46071999E+02 -0.85655E+06
 0.46122002E+02 -0.86059E+06
 0.46172001E+02 -0.81481E+06
 0.46222000E+02 -0.56392E+06
 0.46271999E+02  0.12170E+05
 0.46321999E+02  0.59340E+06
 0.46372002E+02  0.77315E+06
 0.46422001E+02  0.45584E+06
 0.46472000E+02 -0.24535E+06
 0.46521999E+02 -0.10161E+07
 0.46571999E+02 -0.14989E+07
 0.46622002E+02 -0.15926E+07
 0.46672001E+02 -0.14401E+07
 0.46722000E+02 -0.11144E+07
 0.46771999E+02 -0.58939E+06
 0.46821999E+02 -0.48058E+05
 0.46872002E+02  0.26467E+06
 0.46922001E+02  0.29046E+06
 0.46972000E+02  0.12268E+06
 0.47021999E+02 -0.10062E+06
 0.47071999E+02 -0.25514E+06
 0.47122002E+02 -0.22138E+06
 0.47172001E+02 -0.49841E+05
 0.47222000E+02  0.93884E+05
 0.47271999E+02  0.17059E+06
 0.47321999E+02  0.19667E+06
 0.47372002E+02  0.10985E+06
 0.47422001E+02 -0.11237E+06
 0.47472000E+02 -0.28571E+06
 0.47521999E+02 -0.26930E+06
 0.47571999E+02 -0.10837E+06
 0.47622002E+02  0.13918E+06
 0.47672001E+02  0.37206E+06
 0.47722000E+02  0.50890E+06
 0.47771999E+02  0.56833E+06
 0.47821999E+02  0.59112E+06
 0.47872002E+02  0.53160E+06
 0.47922001E+02  0.29586E+06
 0.47972000E+02 -0.38062E+05
 0.48021999E+02 -0.24523E+06
 0.48071999E+02 -0.16276E+06
 0.48122002E+02  0.14078E+06
 0.48172001E+02  0.45277E+06
 0.48222000E+02  0.62103E+06
 0.48271999E+02  0.59987E+06
 0.48321999E+02  0.42330E+06
 0.48372002E+02  0.10305E+06
 0.48422001E+02 -0.27747E+06
 0.48472000E+02 -0.53392E+06
 0.48521999E+02 -0.58608E+06
 0.48571999E+02 -0.48188E+06
 0.48622002E+02 -0.29926E+06
 0.48672001E+02 -0.65923E+05
 0.48722000E+02  0.21105E+06
 0.48771999E+02  0.46526E+06
 0.48821999E+02  0.58788E+06
 0.48872002E+02  0.56009E+06
 0.48922001E+02  0.41417E+06
 0.48972000E+02  0.94440E+05
 0.49021999E+02 -0.34683E+06
 0.49071999E+02 -0.63368E+06
 0.49122002E+02 -0.58898E+06
 0.49172001E+02 -0.34786E+06
 0.49222000E+02 -0.81850E+05
 0.49271999E+02  0.15313E+06
 0.49321999E+02  0.30614E+06
 0.49372002E+02  0.34564E+06
 0.49422001E+02  0.22892E+06
 0.49472000E+02 -0.94913E+05
 0.49521999E+02 -0.52132E+06
 0.49571999E+02 -0.78401E+06
 0.49622002E+02 -0.76072E+06
 0.49672001E+02 -0.54177E+06
 0.49722000E+02 -0.23341E+06
 0.49771999E+02  0.10282E+06
 0.49821999E+02  0.46787E+06
 0.49872002E+02  0.85444E+06
 0.49922001E+02  0.11705E+07
 0.49972000E+02  0.11906E+07
 0.50021999E+02  0.75462E+06
 0.50071999E+02  0.93866E+05
 0.50122002E+02 -0.44020E+06
 0.50172001E+02 -0.78934E+06
 0.50222000E+02 -0.10471E+07
 0.50271999E+02 -0.11263E+07
 0.50321999E+02 -0.85177E+06
 0.50372002E+02 -0.30274E+06
 0.50422001E+02  0.24011E+06
 0.50472000E+02  0.56517E+06
 0.50521999E+02  0.59035E+06
 0.50571999E+02  0.33710E+06
 0.50622002E+02 -0.11047E+06
 0.50672001E+02 -0.64977E+06
 0.50722000E+02 -0.10794E+07
 0.50771999E+02 -0.11947E+07
 0.50821999E+02 -0.10261E+07
 0.50872002E+02 -0.71886E+06
 0.50922001E+02 -0.37620E+06
 0.50972000E+02 -0.11617E+06
 0.51021999E+02 -0.20324E+05
 0.51071999E+02 -0.41169E+05
 0.51122002E+02 -0.13770E+06
 0.51172001E+02 -0.32929E+06
 0.51222000E+02 -0.48291E+06
 0.51271999E+02 -0.49664E+06
 0.51321999E+02 -0.48278E+06
 0.51372002E+02 -0.43450E+06
 0.51422001E+02 -0.25621E+06
 0.51472000E+02 -0.23710E+04
 0.51521999E+02  0.25190E+06
 0.51571999E+02  0.44415E+06
 0.51622002E+02  0.41407E+06
 0.51672001E+02  0.97260E+05
 0.51722000E+02 -0.29995E+06
 0.51771999E+02 -0.55752E+06
 0.51821999E+02 -0.61549E+06
 0.51872002E+02 -0.49996E+06
 0.51922001E+02 -0.29020E+06
 0.51972000E+02 -0.63399E+05
 0.52021999E+02  0.82174E+05
 0.52071999E+02  0.32946E+05
 0.52122002E+02 -0.11394E+06
 0.52172001E+02 -0.81820E+05
 0.52222000E+02  0.21130E+06
 0.52271999E+02  0.54260E+06
 0.52321999E+02  0.68565E+06
 0.52372002E+02  0.64316E+06
 0.52422001E+02  0.56088E+06
 0.52472000E+02  0.56234E+06
 0.52521999E+02  0.66934E+06
 0.52571999E+02  0.79739E+06
 0.52622002E+02  0.80827E+06
 0.52672001E+02  0.69480E+06
 0.52722000E+02  0.61025E+06
 0.52771999E+02  0.62387E+06
 0.52821999E+02  0.67176E+06
 0.52872002E+02  0.66528E+06
 0.52922001E+02  0.58094E+06
 0.52972000E+02  0.45953E+06
 0.53021999E+02  0.35445E+06
 0.53071999E+02  0.32644E+06
 0.53122002E+02  0.37383E+06
 0.53172001E+02  0.43027E+06
 0.53222000E+02  0.45456E+06
 0.53271999E+02  0.49747E+06
 0.53321999E+02  0.62318E+06
 0.53372002E+02  0.75840E+06
 0.53422001E+02  0.76756E+06
 0.53472000E+02  0.60722E+06
 0.53521999E+02  0.34003E+06
 0.53571999E+02  0.63346E+05
 0.53622002E+02 -0.16110E+06
 0.53672001E+02 -0.31014E+06
 0.53722000E+02 -0.33695E+06
 0.53771999E+02 -0.16274E+06
 0.53821999E+02  0.17271E+06
 0.53872002E+02  0.46592E+06
 0.53922001E+02  0.51466E+06
 0.53972000E+02  0.32030E+06
 0.54021999E+02  0.81365E+05
 0.54071999E+02 -0.11871E+06
 0.54122002E+02 -0.31138E+06
 0.54172001E+02 -0.46996E+06
 0.54222000E+02 -0.57466E+06
 0.54271999E+02 -0.56817E+06
 0.54321999E+02 -0.35683E+06
 0.54372002E+02 -0.54780E+04
 0.54422001E+02  0.23235E+06
 0.54472000E+02  0.23047E+06
 0.54521999E+02  0.56920E+05
 0.54571999E+02 -0.27048E+06
 0.54622002E+02 -0.66292E+06
 0.54672001E+02 -0.92348E+06
 0.54722000E+02 -0.99478E+06
 0.54771999E+02 -0.91307E+06
 0.54821999E+02 -0.67965E+06
 0.54872002E+02 -0.34976E+06
 0.54922001E+02 -0.55431E+05
 0.54972000E+02  0.13501E+06
 0.55021999E+02  0.24310E+06
 0.55071999E+02  0.27177E+06
 0.55122002E+02  0.18799E+06
 0.55172001E+02  0.20709E+05
 0.55222000E+02 -0.94417E+05
 0.55271999E+02 -0.53241E+05
 0.55321999E+02  0.77681E+05
 0.55372002E+02  0.21977E+06
 0.55422001E+02  0.40923E+06
 0.55472000E+02  0.59420E+06
 0.55521999E+02  0.65405E+06
 0.55571999E+02  0.58710E+06
 0.55622002E+02  0.43523E+06
 0.55672001E+02  0.22960E+06
 0.55722000E+02  0.29008E+05
 0.55771999E+02 -0.76393E+05
 0.55821999E+02 -0.16346E+05
 0.55872002E+02  0.17192E+06
 0.55922001E+02  0.35776E+06
 0.55972000E+02  0.43203E+06
 0.56021999E+02  0.36161E+06
 0.56071999E+02  0.19452E+06
 0.56122002E+02  0.60731E+05
 0.56172001E+02  0.33613E+05
 0.56222000E+02  0.82562E+05
 0.56271999E+02  0.16595E+06
 0.56321999E+02  0.22529E+06
 0.56372002E+02  0.22112E+06
 0.56422001E+02  0.16433E+06
 0.56472000E+02  0.10027E+06
 0.56521999E+02  0.72673E+05
 0.56571999E+02  0.74182E+05
 0.56622002E+02  0.87063E+05
 0.56672001E+02  0.92078E+05
 0.56722000E+02  0.84089E+05
 0.56771999E+02  0.85897E+05
 0.56821999E+02  0.90460E+05
 0.56872002E+02  0.71297E+05
 0.56922001E+02  0.31715E+05
 0.56972000E+02  0.37230E+04
 0.57021999E+02 -0.21148E+05
 0.57071999E+02 -0.98919E+05
 0.57122002E+02 -0.21612E+06
 0.57172001E+02 -0.27412E+06
 0.57222000E+02 -0.23110E+06
 0.57271999E+02 -0.12841E+06
 0.57321999E+02 -0.18686E+05
 0.57372002E+02  0.33579E+05
 0.57422001E+02  0.16400E+05
 0.57472000E+02 -0.17702E+05
 0.57521999E+02 -0.35620E+05
 0.57571999E+02 -0.27240E+04
 0.57622002E+02  0.10821E+06
 0.57672001E+02  0.25829E+06
 0.57722000E+02  0.36471E+06
 0.57771999E+02  0.38412E+06
 0.57821999E+02  0.35675E+06
 0.57872002E+02  0.33412E+06
 0.57922001E+02  0.30872E+06
 0.57972000E+02  0.27840E+06
 0.58021999E+02  0.30964E+06
 0.58071999E+02  0.44760E+06
 0.58122002E+02  0.64281E+06
 0.58172001E+02  0.81587E+06
 0.58222000E+02  0.94592E+06
 0.58271999E+02  0.10336E+07
 0.58321999E+02  0.99418E+06
 0.58372002E+02  0.74667E+06
 0.58422001E+02  0.37400E+06
 0.58472000E+02  0.65209E+05
 0.58521999E+02 -0.45512E+05
 0.58571999E+02  0.56319E+05
 0.58622002E+02  0.29306E+06
 0.58672001E+02  0.53433E+06
 0.58722000E+02  0.65846E+06
 0.58771999E+02  0.60344E+06
 0.58821999E+02  0.36083E+06
 0.58872002E+02 -0.13751E+05
 0.58922001E+02 -0.37141E+06
 0.58972000E+02 -0.49925E+06
 0.59021999E+02 -0.29479E+06
 0.59071999E+02  0.11815E+06
 0.59122002E+02  0.55271E+06
 0.59172001E+02  0.87827E+06
 0.59222000E+02  0.10141E+07
 0.59271999E+02  0.96486E+06
 0.59321999E+02  0.77726E+06
 0.59372002E+02  0.48233E+06
 0.59422001E+02  0.13263E+06
 0.59472000E+02 -0.15461E+06
 0.59521999E+02 -0.23431E+06
 0.59571999E+02 -0.51387E+05
 0.59622002E+02  0.28885E+06
 0.59672001E+02  0.60965E+06
 0.59722000E+02  0.79321E+06
 0.59771999E+02  0.80429E+06
 0.59821999E+02  0.65936E+06
 0.59872002E+02  0.41588E+06
 0.59922001E+02  0.18061E+06
 0.59972000E+02  0.42629E+05
 0.60021999E+02  0.11609E+05
 0.60071999E+02  0.67325E+05
 0.60122002E+02  0.16250E+06
 0.60172001E+02  0.23188E+06
 0.60222000E+02  0.25792E+06
 0.60271999E+02  0.26256E+06
 0.60321999E+02  0.24875E+06
 0.60372002E+02  0.17580E+06
 0.60422001E+02  0.85650E+04
 0.60472000E+02 -0.19885E+06
 0.60521999E+02 -0.33615E+06
 0.60571999E+02 -0.35134E+06
 0.60622002E+02 -0.27357E+06
 0.60672001E+02 -0.18658E+06
 0.60722000E+02 -0.17028E+06
 0.60771999E+02 -0.20602E+06
 0.60821999E+02 -0.17609E+06
 0.60872002E+02 -0.47794E+05
 0.60922001E+02  0.49067E+05
 0.60972000E+02  0.25295E+05
 0.61021999E+02 -0.10826E+06
 0.61072002E+02 -0.30368E+06
 0.61121998E+02 -0.44426E+06
 0.61172001E+02 -0.41990E+06
 0.61222004E+02 -0.25408E+06
 0.61271999E+02 -0.52929E+05
 0.61322002E+02  0.14358E+06
 0.61371998E+02  0.33910E+06
 0.61422001E+02  0.47646E+06
 0.61472004E+02  0.49089E+06
 0.61521999E+02  0.37274E+06
 0.61572002E+02  0.15262E+06
 0.61621998E+02 -0.87336E+05
 0.61672001E+02 -0.24593E+06
 0.61722004E+02 -0.27481E+06
 0.61771999E+02 -0.18382E+06
 0.61822002E+02 -0.23401E+05
 0.61871998E+02  0.13536E+06
 0.61922001E+02  0.24142E+06
 0.61972004E+02  0.26375E+06
 0.62021999E+02  0.18291E+06
 0.62072002E+02  0.36056E+05
 0.62121998E+02 -0.92489E+05
 0.62172001E+02 -0.13786E+06
 0.62222004E+02 -0.71065E+05
 0.62271999E+02  0.10362E+06
 0.62322002E+02  0.33047E+06
 0.62371998E+02  0.50850E+06
 0.62422001E+02  0.57312E+06
 0.62472004E+02  0.54953E+06
 0.62521999E+02  0.48122E+06
 0.62572002E+02  0.39467E+06
 0.62621998E+02  0.33542E+06
 0.62672001E+02  0.32248E+06
 0.62722004E+02  0.30750E+06
 0.62771999E+02  0.27098E+06
 0.62822002E+02  0.27875E+06
 0.62871998E+02  0.35911E+06
 0.62922001E+02  0.43375E+06
 0.62972004E+02  0.42614E+06
 0.63021999E+02  0.34377E+06
 0.63072002E+02  0.26635E+06
 0.63121998E+02  0.27692E+06
 0.63172001E+02  0.35465E+06
 0.63222004E+02  0.41680E+06
 0.63271999E+02  0.44086E+06
 0.63322002E+02  0.41714E+06
 0.63371998E+02  0.31517E+06
 0.63422001E+02  0.15762E+06
 0.63472004E+02  0.19094E+05
 0.63521999E+02 -0.42945E+05
 0.63572002E+02 -0.23842E+05
 0.63621998E+02  0.39547E+05
 0.63672001E+02  0.10376E+06
 0.63722004E+02  0.14633E+06
 0.63771999E+02  0.16332E+06
 0.63822002E+02  0.16729E+06
 0.63871998E+02  0.17540E+06
 0.63922001E+02  0.18421E+06
 0.63972004E+02  0.16348E+06
 0.64022003E+02  0.91651E+05
 0.64072006E+02  0.48040E+04
 0.64122002E+02 -0.33552E+05
 0.64172005E+02 -0.49570E+04
 0.64222008E+02  0.65255E+05
 0.64272003E+02  0.13980E+06
 0.64322006E+02  0.18398E+06
 0.64372002E+02  0.19186E+06
 0.64422005E+02  0.17995E+06
 0.64472008E+02  0.17551E+06
 0.64522003E+02  0.21655E+06
 0.64572006E+02  0.31037E+06
 0.64622002E+02  0.41186E+06
 0.64672005E+02  0.48618E+06
 0.64722008E+02  0.55724E+06
 0.64772003E+02  0.63150E+06
 0.64822006E+02  0.65753E+06
 0.64872002E+02  0.60556E+06
 0.64922005E+02  0.51647E+06
 0.64972008E+02  0.46524E+06
 0.65022003E+02  0.49704E+06
 0.65072006E+02  0.59821E+06
 0.65122002E+02  0.69510E+06
 0.65172005E+02  0.72926E+06
 0.65222008E+02  0.72640E+06
 0.65272003E+02  0.71070E+06
 0.65322006E+02  0.64714E+06
 0.65372002E+02  0.51722E+06
 0.65422005E+02  0.36224E+06
 0.65472008E+02  0.24229E+06
 0.65522003E+02  0.21467E+06
 0.65572006E+02  0.30421E+06
 0.65622002E+02  0.45463E+06
 0.65672005E+02  0.57235E+06
 0.65722008E+02  0.60890E+06
 0.65772003E+02  0.56502E+06
 0.65822006E+02  0.44328E+06
 0.65872002E+02  0.27109E+06
 0.65922005E+02  0.12049E+06
 0.65972008E+02  0.34286E+05
 0.66022003E+02  0.58670E+04
 0.66072006E+02  0.35399E+05
 0.66122002E+02  0.12624E+06
 0.66172005E+02  0.24488E+06
 0.66222008E+02  0.36707E+06
 0.66272003E+02  0.48266E+06
 0.66322006E+02  0.53652E+06
 0.66372002E+02  0.49226E+06
 0.66422005E+02  0.38498E+06
 0.66472008E+02  0.27109E+06
 0.66522003E+02  0.18561E+06
 0.66572006E+02  0.13398E+06
 0.66622002E+02  0.12350E+06
 0.66672005E+02  0.16632E+06
 0.66722008E+02  0.25072E+06
 0.66772003E+02  0.35817E+06
 0.66822006E+02  0.45751E+06
 0.66872002E+02  0.49766E+06
 0.66922005E+02  0.45276E+06
 0.66972008E+02  0.33459E+06
 0.67022003E+02  0.19555E+06
 0.67072006E+02  0.10240E+06
 0.67122002E+02  0.67925E+05
 0.67172005E+02  0.70774E+05
 0.67222008E+02  0.94207E+05
 0.67272003E+02  0.10271E+06
 0.67322006E+02  0.82619E+05
 0.67372002E+02  0.81501E+05
 0.67422005E+02  0.12890E+06
 0.67472008E+02  0.19626E+06
 0.67522003E+02  0.24190E+06
 0.67572006E+02  0.24438E+06
 0.67622002E+02  0.21955E+06
 0.67672005E+02  0.19061E+06
 0.67722008E+02  0.15812E+06
 0.67772003E+02  0.13658E+06
 0.67822006E+02  0.16265E+06
 0.67872002E+02  0.24323E+06
 0.67922005E+02  0.33594E+06
 0.67972008E+02  0.39925E+06
 0.68022003E+02  0.42613E+06
 0.68072006E+02  0.39639E+06
 0.68122002E+02  0.29027E+06
 0.68172005E+02  0.16036E+06
 0.68222008E+02  0.77625E+05
 0.68272003E+02  0.58932E+05
 0.68322006E+02  0.88356E+05
 0.68372002E+02  0.15040E+06
 0.68422005E+02  0.21589E+06
 0.68472008E+02  0.22753E+06
 0.68522003E+02  0.16525E+06
 0.68572006E+02  0.67658E+05
 0.68622002E+02 -0.33926E+05
 0.68672005E+02 -0.12121E+06
 0.68722008E+02 -0.15170E+06
 0.68772003E+02 -0.86742E+05
 0.68822006E+02  0.60481E+05
 0.68872002E+02  0.23447E+06
 0.68922005E+02  0.36581E+06
 0.68972008E+02  0.41799E+06
 0.69022003E+02  0.40545E+06
 0.69072006E+02  0.35259E+06
 0.69122002E+02  0.27853E+06
 0.69172005E+02  0.20202E+06
 0.69222008E+02  0.14569E+06
 0.69272003E+02  0.13376E+06
 0.69322006E+02  0.18941E+06
 0.69372002E+02  0.31926E+06
 0.69422005E+02  0.47768E+06
 0.69472008E+02  0.61036E+06
 0.69522003E+02  0.71137E+06
 0.69572006E+02  0.76721E+06
 0.69622002E+02  0.73209E+06
 0.69672005E+02  0.60274E+06
 0.69722008E+02  0.44307E+06
 0.69772003E+02  0.34113E+06
 0.69822006E+02  0.34017E+06
 0.69872002E+02  0.40610E+06
 0.69922005E+02  0.49966E+06
 0.69972008E+02  0.61503E+06
 0.70022003E+02  0.72168E+06
 0.70072006E+02  0.74827E+06
 0.70122002E+02  0.66371E+06
 0.70172005E+02  0.50994E+06
 0.70222008E+02  0.33455E+06
 0.70272003E+02  0.18856E+06
 0.70322006E+02  0.14317E+06
 0.70372002E+02  0.21378E+06
 0.70422005E+02  0.32548E+06
 0.70472008E+02  0.39509E+06
 0.70522003E+02  0.39784E+06
 0.70572006E+02  0.34796E+06
 0.70622002E+02  0.26478E+06
 0.70672005E+02  0.16127E+06
 0.70722008E+02  0.47455E+05
 0.70772003E+02 -0.51541E+05
 0.70822006E+02 -0.90133E+05
 0.70872002E+02 -0.47384E+05
 0.70922005E+02  0.42063E+05
 0.70972008E+02  0.11604E+06
 0.71022003E+02  0.13042E+06
 0.71072006E+02  0.92546E+05
 0.71122002E+02  0.33293E+05
 0.71172005E+02 -0.26383E+05
 0.71222008E+02 -0.65751E+05
 0.71272003E+02 -0.76106E+05
 0.71322006E+02 -0.66610E+05
 0.71372002E+02 -0.45333E+05
 0.71422005E+02 -0.21309E+05
 0.71472008E+02 -0.87520E+04
 0.71522003E+02 -0.28106E+05
 0.71572006E+02 -0.86311E+05
 0.71622002E+02 -0.15266E+06
 0.71672005E+02 -0.19375E+06
 0.71722008E+02 -0.20688E+06
 0.71772003E+02 -0.22171E+06
 0.71822006E+02 -0.25980E+06
 0.71872002E+02 -0.28632E+06
 0.71922005E+02 -0.25312E+06
 0.71972008E+02 -0.15906E+06
 0.72022003E+02 -0.47450E+05
 0.72072006E+02  0.37269E+05
 0.72122002E+02  0.84269E+05
 0.72172005E+02  0.10174E+06
 0.72222008E+02  0.92761E+05
 0.72272003E+02  0.80881E+05
 0.72322006E+02  0.11693E+06
 0.72372002E+02  0.21788E+06
 0.72422005E+02  0.35776E+06
 0.72472008E+02  0.49839E+06
 0.72522003E+02  0.59770E+06
 0.72572006E+02  0.63893E+06
 0.72622002E+02  0.62949E+06
 0.72672005E+02  0.57714E+06
 0.72722008E+02  0.50902E+06
 0.72772003E+02  0.45641E+06
 0.72822006E+02  0.42287E+06
 0.72872002E+02  0.42208E+06
 0.72922005E+02  0.46972E+06
 0.72972008E+02  0.53369E+06
 0.73022003E+02  0.56283E+06
 0.73072006E+02  0.52463E+06
 0.73122002E+02  0.42509E+06
 0.73172005E+02  0.30447E+06
 0.73222008E+02  0.19507E+06
 0.73272003E+02  0.12072E+06
 0.73322006E+02  0.10795E+06
 0.73372002E+02  0.15741E+06
 0.73422005E+02  0.23830E+06
 0.73472008E+02  0.32113E+06
 0.73522003E+02  0.38298E+06
 0.73572006E+02  0.40795E+06
 0.73622002E+02  0.39568E+06
 0.73672005E+02  0.33352E+06
 0.73722008E+02  0.21010E+06
 0.73772003E+02  0.58921E+05
 0.73822006E+02 -0.52996E+05
 0.73872002E+02 -0.71187E+05
 0.73922005E+02 -0.33990E+04
 0.73972008E+02  0.98204E+05
 0.74022003E+02  0.19731E+06
 0.74072006E+02  0.26488E+06
 0.74122002E+02  0.26652E+06
 0.74172005E+02  0.21146E+06
 0.74222008E+02  0.14939E+06
 0.74272003E+02  0.10596E+06
 0.74322006E+02  0.81432E+05
 0.74372002E+02  0.83471E+05
 0.74422005E+02  0.12441E+06
 0.74472008E+02  0.21266E+06
 0.74522003E+02  0.33231E+06
 0.74572006E+02  0.43669E+06
 0.74622002E+02  0.49314E+06
 0.74672005E+02  0.49471E+06
 0.74722008E+02  0.45780E+06
 0.74772003E+02  0.43099E+06
 0.74822006E+02  0.43822E+06
 0.74872002E+02  0.45969E+06
 0.74922005E+02  0.48850E+06
 0.74972008E+02  0.53647E+06
 0.75022003E+02  0.59497E+06
 0.75072006E+02  0.63906E+06
 0.75122002E+02  0.65082E+06
 0.75172005E+02  0.61897E+06
 0.75222008E+02  0.55557E+06
 0.75272003E+02  0.49249E+06
 0.75322006E+02  0.44725E+06
 0.75372002E+02  0.41200E+06
 0.75422005E+02  0.38484E+06
 0.75472008E+02  0.38832E+06
 0.75522003E+02  0.42266E+06
 0.75572006E+02  0.44478E+06
 0.75622002E+02  0.41485E+06
 0.75672005E+02  0.35263E+06
 0.75722008E+02  0.31668E+06
 0.75772003E+02  0.33063E+06
 0.75822006E+02  0.37426E+06
 0.75872002E+02  0.41846E+06
 0.75922005E+02  0.44383E+06
 0.75972008E+02  0.43112E+06
 0.76022003E+02  0.36138E+06
 0.76072006E+02  0.23232E+06
 0.76122002E+02  0.76568E+05
 0.76172005E+02 -0.36911E+05
 0.76222008E+02 -0.47519E+05
 0.76272003E+02  0.52688E+05
 0.76322006E+02  0.20670E+06
 0.76372002E+02  0.34710E+06
 0.76422005E+02  0.44817E+06
 0.76472008E+02  0.48646E+06
 0.76522003E+02  0.42886E+06
 0.76572006E+02  0.28459E+06
 0.76622002E+02  0.11068E+06
 0.76672005E+02 -0.26664E+05
 0.76722008E+02 -0.71204E+05
 0.76772003E+02 -0.65760E+04
 0.76822006E+02  0.11527E+06
 0.76872002E+02  0.21406E+06
 0.76922005E+02  0.25566E+06
 0.76972008E+02  0.26770E+06
 0.77022003E+02  0.26878E+06
 0.77072006E+02  0.24107E+06
 0.77122002E+02  0.19026E+06
 0.77172005E+02  0.14626E+06
 0.77222008E+02  0.12242E+06
 0.77272003E+02  0.13240E+06
 0.77322006E+02  0.18232E+06
 0.77372002E+02  0.24740E+06
 0.77422005E+02  0.30646E+06
 0.77472008E+02  0.34382E+06
 0.77522003E+02  0.32577E+06
 0.77572006E+02  0.24193E+06
 0.77622002E+02  0.13266E+06
 0.77672005E+02  0.42288E+05
 0.77722008E+02 -0.49880E+04
 0.77772003E+02  0.49730E+04
 0.77822006E+02  0.65663E+05
 0.77872002E+02  0.15677E+06
 0.77922005E+02  0.25200E+06
 0.77972008E+02  0.30348E+06
 0.78022003E+02  0.27389E+06
 0.78072006E+02  0.18577E+06
 0.78122002E+02  0.89533E+05
 0.78172005E+02  0.18103E+05
 0.78222008E+02 -0.11849E+05
 0.78272003E+02  0.24930E+04
 0.78322006E+02  0.58097E+05
 0.78372002E+02  0.14161E+06
 0.78422005E+02  0.22046E+06
 0.78472008E+02  0.26574E+06
 0.78522003E+02  0.25722E+06
 0.78572006E+02  0.17745E+06
 0.78622002E+02  0.59169E+05
 0.78672005E+02 -0.21530E+04
 0.78722008E+02  0.55065E+05
 0.78772003E+02  0.19797E+06
 0.78822006E+02  0.34131E+06
 0.78872002E+02  0.40782E+06
 0.78922005E+02  0.36824E+06
 0.78972008E+02  0.25752E+06
 0.79022003E+02  0.14821E+06
 0.79072006E+02  0.88397E+05
 0.79122002E+02  0.87029E+05
 0.79172005E+02  0.14370E+06
 0.79222008E+02  0.24106E+06
 0.79272003E+02  0.33025E+06
 0.79322006E+02  0.36717E+06
 0.79372002E+02  0.34914E+06
 0.79422005E+02  0.29779E+06
 0.79472008E+02  0.23434E+06
 0.79522003E+02  0.17269E+06
 0.79572006E+02  0.12368E+06
 0.79622002E+02  0.10630E+06
 0.79672005E+02  0.14329E+06
 0.79722008E+02  0.24245E+06
 0.79772003E+02  0.37136E+06
 0.79822006E+02  0.46478E+06
 0.79872002E+02  0.48581E+06
 0.79922005E+02  0.44999E+06
 0.79972008E+02  0.37901E+06
 0.80022003E+02  0.29252E+06
 0.80072006E+02  0.23298E+06
 0.80122002E+02  0.23132E+06
 0.80172005E+02  0.27627E+06
 0.80222008E+02  0.34378E+06
 0.80272003E+02  0.40906E+06
 0.80322006E+02  0.43787E+06
 0.80372002E+02  0.41204E+06
 0.80422005E+02  0.34167E+06
 0.80472008E+02  0.24497E+06
 0.80522003E+02  0.14769E+06
 0.80572006E+02  0.86239E+05
 0.80622002E+02  0.84374E+05
 0.80672005E+02  0.13788E+06
 0.80722008E+02  0.22620E+06
 0.80772003E+02  0.31553E+06
 0.80822006E+02  0.36476E+06
 0.80872002E+02  0.35749E+06
 0.80922005E+02  0.30778E+06
 0.80972008E+02  0.22763E+06
 0.81022003E+02  0.13197E+06
 0.81072006E+02  0.62280E+05
 0.81122002E+02  0.53372E+05
 0.81172005E+02  0.10729E+06
 0.81222008E+02  0.20616E+06
 0.81272003E+02  0.31252E+06
 0.81322006E+02  0.37403E+06
 0.81372002E+02  0.35814E+06
 0.81422005E+02  0.28556E+06
 0.81472008E+02  0.21682E+06
 0.81522003E+02  0.20093E+06
 0.81572006E+02  0.23686E+06
 0.81622002E+02  0.29223E+06
 0.81672005E+02  0.34371E+06
 0.81722008E+02  0.37888E+06
 0.81772003E+02  0.39766E+06
 0.81822006E+02  0.41654E+06
 0.81872002E+02  0.43891E+06
 0.81922005E+02  0.44373E+06
 0.81972008E+02  0.41316E+06
 0.82022003E+02  0.34817E+06
 0.82072006E+02  0.26385E+06
 0.82122002E+02  0.18449E+06
 0.82172005E+02  0.13768E+06
 0.82222008E+02  0.13453E+06
 0.82272003E+02  0.15866E+06
 0.82322006E+02  0.18778E+06
 0.82372002E+02  0.21315E+06
 0.82422005E+02  0.23670E+06
 0.82472008E+02  0.25913E+06
 0.82522003E+02  0.27184E+06
 0.82572006E+02  0.25645E+06
 0.82622002E+02  0.19947E+06
 0.82672005E+02  0.11649E+06
 0.82722008E+02  0.42475E+05
 0.82772003E+02  0.60990E+04
 0.82822006E+02  0.19447E+05
 0.82872002E+02  0.69847E+05
 0.82922005E+02  0.12693E+06
 0.82972008E+02  0.16310E+06
 0.83022003E+02  0.17052E+06
 0.83072006E+02  0.15513E+06
 0.83122002E+02  0.12475E+06
 0.83172005E+02  0.95614E+05
 0.83222008E+02  0.82015E+05
 0.83272003E+02  0.82270E+05
 0.83322006E+02  0.85205E+05
 0.83372002E+02  0.84003E+05
 0.83422005E+02  0.83596E+05
 0.83472008E+02  0.88302E+05
 0.83522003E+02  0.95174E+05
 0.83572006E+02  0.10564E+06
 0.83622002E+02  0.12879E+06
 0.83672005E+02  0.16889E+06
 0.83722008E+02  0.21962E+06
 0.83772003E+02  0.26274E+06
 0.83822006E+02  0.27273E+06
 0.83872002E+02  0.24133E+06
 0.83922005E+02  0.18447E+06
 0.83972008E+02  0.12448E+06
 0.84022003E+02  0.80340E+05
 0.84072006E+02  0.73329E+05
 0.84122002E+02  0.11864E+06
 0.84172005E+02  0.19891E+06
 0.84222008E+02  0.27628E+06
 0.84272003E+02  0.32532E+06
 0.84322006E+02  0.33571E+06
 0.84372002E+02  0.31187E+06
 0.84422005E+02  0.27599E+06
 0.84472008E+02  0.24897E+06
 0.84522003E+02  0.23566E+06
 0.84572006E+02  0.23469E+06
 0.84622002E+02  0.24632E+06
 0.84672005E+02  0.26504E+06
 0.84722008E+02  0.27733E+06
 0.84772003E+02  0.27300E+06
 0.84822006E+02  0.24949E+06
 0.84872002E+02  0.21266E+06
 0.84922005E+02  0.18056E+06
 0.84972008E+02  0.16788E+06
 0.85022003E+02  0.17454E+06
 0.85072006E+02  0.20262E+06
 0.85122002E+02  0.25692E+06
 0.85172005E+02  0.32689E+06
 0.85222008E+02  0.39337E+06
 0.85272003E+02  0.43693E+06
 0.85322006E+02  0.43829E+06
 0.85372002E+02  0.39701E+06
 0.85422005E+02  0.33276E+06
 0.85472008E+02  0.26664E+06
 0.85522003E+02  0.21582E+06
 0.85572006E+02  0.19105E+06
 0.85622002E+02  0.19694E+06
 0.85672005E+02  0.22944E+06
 0.85722008E+02  0.26362E+06
 0.85772003E+02  0.26636E+06
 0.85822006E+02  0.23127E+06
 0.85872002E+02  0.17727E+06
 0.85922005E+02  0.12530E+06
 0.85972008E+02  0.10167E+06
 0.86022003E+02  0.12424E+06
 0.86072006E+02  0.17224E+06
 0.86122002E+02  0.20965E+06
 0.86172005E+02  0.22381E+06
 0.86222008E+02  0.21640E+06
 0.86272003E+02  0.18825E+06
 0.86322006E+02  0.15013E+06
 0.86372002E+02  0.12985E+06
 0.86422005E+02  0.15383E+06
 0.86472008E+02  0.21806E+06
 0.86522003E+02  0.28542E+06
 0.86572006E+02  0.31353E+06
 0.86622002E+02  0.28667E+06
 0.86672005E+02  0.22540E+06
 0.86722008E+02  0.16777E+06
 0.86772003E+02  0.14098E+06
 0.86822006E+02  0.14686E+06
 0.86872002E+02  0.17724E+06
 0.86922005E+02  0.21946E+06
 0.86972008E+02  0.25453E+06
 0.87022003E+02  0.27603E+06
 0.87072006E+02  0.28876E+06
 0.87122002E+02  0.29684E+06
 0.87172005E+02  0.29595E+06
 0.87222008E+02  0.27283E+06
 0.87272003E+02  0.23074E+06
 0.87322006E+02  0.20411E+06
 0.87372002E+02  0.22344E+06
 0.87422005E+02  0.28061E+06
 0.87472008E+02  0.34204E+06
 0.87522003E+02  0.36879E+06
 0.87572006E+02  0.33181E+06
 0.87622002E+02  0.23465E+06
 0.87672005E+02  0.11492E+06
 0.87722008E+02  0.20561E+05
 0.87772003E+02 -0.43420E+04
 0.87822006E+02  0.64196E+05
 0.87872002E+02  0.20152E+06
 0.87922005E+02  0.34662E+06
 0.87972008E+02  0.44424E+06
 0.88022003E+02  0.46314E+06
 0.88072006E+02  0.40108E+06
 0.88122002E+02  0.29178E+06
 0.88172005E+02  0.18216E+06
 0.88222008E+02  0.98849E+05
 0.88272003E+02  0.55236E+05
 0.88322006E+02  0.59622E+05
 0.88372002E+02  0.97980E+05
 0.88422005E+02  0.14196E+06
 0.88472008E+02  0.17446E+06
 0.88522003E+02  0.18568E+06
 0.88572006E+02  0.16567E+06
 0.88622002E+02  0.10823E+06
 0.88672005E+02  0.18982E+05
 0.88722008E+02 -0.71188E+05
 0.88772003E+02 -0.12582E+06
 0.88822006E+02 -0.13651E+06
 0.88872002E+02 -0.11593E+06
 0.88922005E+02 -0.70028E+05
 0.88972008E+02  0.20530E+04
 0.89022003E+02  0.79850E+05
 0.89072006E+02  0.12043E+06
 0.89122002E+02  0.10004E+06
 0.89172005E+02  0.36178E+05
 0.89222008E+02 -0.35616E+05
 0.89272003E+02 -0.84025E+05
 0.89322006E+02 -0.92712E+05
 0.89372002E+02 -0.63923E+05
 0.89422005E+02 -0.31010E+04
 0.89472008E+02  0.86758E+05
 0.89522003E+02  0.18862E+06
 0.89572006E+02  0.26618E+06
 0.89622002E+02  0.28831E+06
 0.89672005E+02  0.25594E+06
 0.89722008E+02  0.19726E+06
 0.89772003E+02  0.14485E+06
 0.89822006E+02  0.12476E+06
 0.89872002E+02  0.15278E+06
 0.89922005E+02  0.22370E+06
 0.89972008E+02  0.31089E+06
 0.90022003E+02  0.38161E+06
 0.90072006E+02  0.40684E+06
 0.90122002E+02  0.36996E+06
 0.90172005E+02  0.28499E+06
 0.90222008E+02  0.19862E+06
 0.90272003E+02  0.16004E+06
 0.90322006E+02  0.18472E+06
 0.90372002E+02  0.24736E+06
 0.90422005E+02  0.30679E+06
 0.90472008E+02  0.33238E+06
 0.90522003E+02  0.31163E+06
 0.90572006E+02  0.24616E+06
 0.90622002E+02  0.15370E+06
 0.90672005E+02  0.69274E+05
 0.90722008E+02  0.31733E+05
 0.90772003E+02  0.56697E+05
 0.90822006E+02  0.12186E+06
 0.90872002E+02  0.18925E+06
 0.90922005E+02  0.23480E+06
 0.90972008E+02  0.25808E+06
 0.91022003E+02  0.26815E+06
 0.91072006E+02  0.26742E+06
 0.91122002E+02  0.25512E+06
 0.91172005E+02  0.23475E+06
 0.91222008E+02  0.21641E+06
 0.91272003E+02  0.21033E+06
 0.91322006E+02  0.22352E+06
 0.91372002E+02  0.25535E+06
 0.91422005E+02  0.28419E+06
 0.91472008E+02  0.28064E+06
 0.91522003E+02  0.24026E+06
 0.91572006E+02  0.18732E+06
 0.91622002E+02  0.14757E+06
 0.91672005E+02  0.12562E+06
 0.91722008E+02  0.11258E+06
 0.91772003E+02  0.11000E+06
 0.91822006E+02  0.12370E+06
 0.91872002E+02  0.14158E+06
 0.91922005E+02  0.14421E+06
 0.91972008E+02  0.12464E+06
 0.92022003E+02  0.90628E+05
 0.92072006E+02  0.60309E+05
 0.92122002E+02  0.47554E+05
 0.92172005E+02  0.45210E+05
 0.92222008E+02  0.37303E+05
 0.92272003E+02  0.28749E+05
 0.92322006E+02  0.38466E+05
 0.92372002E+02  0.68687E+05
 0.92422005E+02  0.11093E+06
 0.92472008E+02  0.15947E+06
 0.92522003E+02  0.20526E+06
 0.92572006E+02  0.23792E+06
 0.92622002E+02  0.24873E+06
 0.92672005E+02  0.23511E+06
 0.92722008E+02  0.20785E+06
 0.92772003E+02  0.18957E+06
 0.92822006E+02  0.20011E+06
 0.92872002E+02  0.23740E+06
 0.92922005E+02  0.27746E+06
 0.92972008E+02  0.29445E+06
 0.93022003E+02  0.29062E+06
 0.93072006E+02  0.29286E+06
 0.93122002E+02  0.31363E+06
 0.93172005E+02  0.34329E+06
 0.93222008E+02  0.36799E+06
 0.93272003E+02  0.37472E+06
 0.93322006E+02  0.35631E+06
 0.93372002E+02  0.32240E+06
 0.93422005E+02  0.29372E+06
 0.93472008E+02  0.28103E+06
 0.93522003E+02  0.27402E+06
 0.93572006E+02  0.25421E+06
 0.93622002E+02  0.21402E+06
 0.93672005E+02  0.15749E+06
 0.93722008E+02  0.96599E+05
 0.93772003E+02  0.50649E+05
 0.93822006E+02  0.36775E+05
 0.93872002E+02  0.57421E+05
 0.93922005E+02  0.94655E+05
 0.93972008E+02  0.12201E+06
 0.94022003E+02  0.12263E+06
 0.94072006E+02  0.96464E+05
 0.94122002E+02  0.61922E+05
 0.94172005E+02  0.42182E+05
 0.94222008E+02  0.39675E+05
 0.94272003E+02  0.40921E+05
 0.94322006E+02  0.44984E+05
 0.94372002E+02  0.58672E+05
 0.94422005E+02  0.72367E+05
 0.94472008E+02  0.67794E+05
 0.94522003E+02  0.36926E+05
 0.94572006E+02 -0.14373E+05
 0.94622002E+02 -0.67486E+05
 0.94672005E+02 -0.99885E+05
 0.94722008E+02 -0.99721E+05
 0.94772003E+02 -0.77605E+05
 0.94822006E+02 -0.58056E+05
 0.94872002E+02 -0.50698E+05
 0.94922005E+02 -0.47919E+05
 0.94972008E+02 -0.41313E+05
 0.95022003E+02 -0.20719E+05
 0.95072006E+02  0.25605E+05
 0.95122002E+02  0.98564E+05
 0.95172005E+02  0.17934E+06
 0.95222008E+02  0.23606E+06
 0.95272003E+02  0.24788E+06
 0.95322006E+02  0.21838E+06
 0.95372002E+02  0.15895E+06
 0.95422005E+02  0.81987E+05
 0.95472008E+02  0.12225E+05
 0.95522003E+02 -0.21248E+05
 0.95572006E+02 -0.70160E+04
 0.95622002E+02  0.41351E+05
 0.95672005E+02  0.98151E+05
 0.95722008E+02  0.14325E+06
 0.95772003E+02  0.16866E+06
 0.95822006E+02  0.17280E+06
 0.95872002E+02  0.16310E+06
 0.95922005E+02  0.15746E+06
 0.95972008E+02  0.16262E+06
 0.96022003E+02  0.17130E+06
 0.96072006E+02  0.18251E+06
 0.96122002E+02  0.19511E+06
 0.96172005E+02  0.19819E+06
 0.96222008E+02  0.18934E+06
 0.96272003E+02  0.18212E+06
 0.96322006E+02  0.18721E+06
 0.96372002E+02  0.19843E+06
 0.96422005E+02  0.20134E+06
 0.96472008E+02  0.19281E+06
 0.96522003E+02  0.18284E+06
 0.96572006E+02  0.18120E+06
 0.96622002E+02  0.19491E+06
 0.96672005E+02  0.22529E+06
 0.96722008E+02  0.25987E+06
 0.96772003E+02  0.28339E+06
 0.96822006E+02  0.29386E+06
 0.96872002E+02  0.29576E+06
 0.96922005E+02  0.29314E+06
 0.96972008E+02  0.29184E+06
 0.97022003E+02  0.29456E+06
 0.97072006E+02  0.30025E+06
 0.97122002E+02  0.30757E+06
 0.97172005E+02  0.31383E+06
 0.97222008E+02  0.31307E+06
 0.97272003E+02  0.29700E+06
 0.97322006E+02  0.26138E+06
 0.97372002E+02  0.21277E+06
 0.97422005E+02  0.16643E+06
 0.97472008E+02  0.13781E+06
 0.97522003E+02  0.13620E+06
 0.97572006E+02  0.15617E+06
 0.97622002E+02  0.17779E+06
 0.97672005E+02  0.18794E+06
 0.97722008E+02  0.19117E+06
 0.97772003E+02  0.19186E+06
 0.97822006E+02  0.18056E+06
 0.97872002E+02  0.14735E+06
 0.97922005E+02  0.97001E+05
 0.97972008E+02  0.48193E+05
 0.98022003E+02  0.24279E+05
 0.98072006E+02  0.34637E+05
 0.98122002E+02  0.66110E+05
 0.98172005E+02  0.98432E+05
 0.98222008E+02  0.11838E+06
 0.98272003E+02  0.11832E+06
 0.98322006E+02  0.95515E+05
 0.98372002E+02  0.59492E+05
 0.98422005E+02  0.29778E+05
 0.98472008E+02  0.24546E+05
 0.98522003E+02  0.50726E+05
 0.98572006E+02  0.97474E+05
 0.98622002E+02  0.14131E+06
 0.98672005E+02  0.16381E+06
 0.98722008E+02  0.16091E+06
 0.98772003E+02  0.13516E+06
 0.98822006E+02  0.96664E+05
 0.98872002E+02  0.64676E+05
 0.98922005E+02  0.51883E+05
 0.98972008E+02  0.54862E+05
 0.99022003E+02  0.59375E+05
 0.99072006E+02  0.55113E+05
 0.99122002E+02  0.46755E+05
 0.99172005E+02  0.45107E+05
 0.99222008E+02  0.52517E+05
 0.99272003E+02  0.62045E+05
 0.99322006E+02  0.67460E+05
 0.99372002E+02  0.66953E+05
 0.99422005E+02  0.59290E+05
 0.99472008E+02  0.44198E+05
 0.99522003E+02  0.24344E+05
 0.99572006E+02  0.87430E+04
 0.99622002E+02  0.11113E+05
 0.99672005E+02  0.39413E+05
 0.99722008E+02  0.87947E+05
 0.99772003E+02  0.13653E+06
 0.99822006E+02  0.16439E+06
 0.99872002E+02  0.16611E+06
 0.99922005E+02  0.15125E+06
 0.99972008E+02  0.13419E+06
 0.10002200E+03  0.12241E+06
 0.10007201E+03  0.11879E+06
 0.10012200E+03  0.13037E+06
 0.10017200E+03  0.15962E+06
 0.10022201E+03  0.19211E+06
 0.10027200E+03  0.20839E+06
 0.10032201E+03  0.20286E+06
 0.10037200E+03  0.18196E+06
 0.10042200E+03  0.15693E+06
 0.10047201E+03  0.14023E+06
 0.10052200E+03  0.14176E+06
 0.10057201E+03  0.16422E+06
 0.10062200E+03  0.19892E+06
 0.10067200E+03  0.23583E+06
 0.10072201E+03  0.27355E+06
 0.10077200E+03  0.31108E+06
 0.10082201E+03  0.33614E+06
 0.10087200E+03  0.33017E+06
 0.10092200E+03  0.28606E+06
 0.10097201E+03  0.21628E+06
 0.10102200E+03  0.14561E+06
 0.10107201E+03  0.98346E+05
 0.10112200E+03  0.89491E+05
 0.10117200E+03  0.12237E+06
 0.10122201E+03  0.18927E+06
 0.10127200E+03  0.26965E+06
 0.10132201E+03  0.33093E+06
 0.10137200E+03  0.34298E+06
 0.10142200E+03  0.29731E+06
 0.10147201E+03  0.21384E+06
 0.10152200E+03  0.12874E+06
 0.10157201E+03  0.72252E+05
 0.10162200E+03  0.54590E+05
 0.10167200E+03  0.68032E+05
 0.10172201E+03  0.97266E+05
 0.10177200E+03  0.12891E+06
 0.10182201E+03  0.15690E+06
 0.10187200E+03  0.17729E+06
 0.10192200E+03  0.18370E+06
 0.10197201E+03  0.17369E+06
 0.10202200E+03  0.14827E+06
 0.10207201E+03  0.10953E+06
 0.10212200E+03  0.67303E+05
 0.10217200E+03  0.38325E+05
 0.10222201E+03  0.32225E+05
 0.10227200E+03  0.42316E+05
 0.10232201E+03  0.55073E+05
 0.10237200E+03  0.59512E+05
 0.10242200E+03  0.47033E+05
 0.10247201E+03  0.18232E+05
 0.10252200E+03 -0.18260E+05
 0.10257201E+03 -0.56732E+05
 0.10262200E+03 -0.92411E+05
 0.10267200E+03 -0.12114E+06
 0.10272201E+03 -0.14358E+06
 0.10277200E+03 -0.15928E+06
 0.10282201E+03 -0.16522E+06
 0.10287200E+03 -0.16056E+06
 0.10292200E+03 -0.14675E+06
 0.10297201E+03 -0.12798E+06
 0.10302200E+03 -0.10796E+06
 0.10307201E+03 -0.86354E+05
 0.10312200E+03 -0.66175E+05
 0.10317200E+03 -0.56884E+05
 0.10322201E+03 -0.58295E+05
 0.10327200E+03 -0.55532E+05
 0.10332201E+03 -0.40524E+05
 0.10337200E+03 -0.20604E+05
 0.10342200E+03 -0.16330E+04
 0.10347201E+03  0.21354E+05
 0.10352200E+03  0.52321E+05
 0.10357201E+03  0.81514E+05
 0.10362200E+03  0.91860E+05
 0.10367200E+03  0.81036E+05
 0.10372201E+03  0.65729E+05
 0.10377200E+03  0.60890E+05
 0.10382201E+03  0.73973E+05
 0.10387200E+03  0.10608E+06
 0.10392200E+03  0.14573E+06
 0.10397201E+03  0.17925E+06
 0.10402200E+03  0.20066E+06
 0.10407201E+03  0.20453E+06
 0.10412200E+03  0.18758E+06
 0.10417200E+03  0.16027E+06
 0.10422201E+03  0.13643E+06
 0.10427200E+03  0.11660E+06
 0.10432201E+03  0.98566E+05
 0.10437200E+03  0.87567E+05
 0.10442200E+03  0.86768E+05
 0.10447201E+03  0.91259E+05
 0.10452200E+03  0.95336E+05
 0.10457201E+03  0.98472E+05
 0.10462200E+03  0.10140E+06
 0.10467200E+03  0.10537E+06
 0.10472201E+03  0.11352E+06
 0.10477200E+03  0.12574E+06
 0.10482201E+03  0.13573E+06
 0.10487200E+03  0.13519E+06
 0.10492200E+03  0.12101E+06
 0.10497201E+03  0.97230E+05
 0.10502200E+03  0.74840E+05
 0.10507201E+03  0.67583E+05
 0.10512200E+03  0.78667E+05
 0.10517200E+03  0.10007E+06
 0.10522201E+03  0.12437E+06
 0.10527200E+03  0.15011E+06
 0.10532201E+03  0.17828E+06
 0.10537200E+03  0.20607E+06
 0.10542200E+03  0.22619E+06
 0.10547201E+03  0.23060E+06
 0.10552200E+03  0.21927E+06
 0.10557201E+03  0.20351E+06
 0.10562200E+03  0.19468E+06
 0.10567200E+03  0.19755E+06
 0.10572201E+03  0.21124E+06
 0.10577200E+03  0.22455E+06
 0.10582201E+03  0.22423E+06
 0.10587200E+03  0.21136E+06
 0.10592200E+03  0.19236E+06
 0.10597201E+03  0.16853E+06
 0.10602200E+03  0.14305E+06
 0.10607201E+03  0.12154E+06
 0.10612200E+03  0.10507E+06
 0.10617200E+03  0.91206E+05
 0.10622201E+03  0.81998E+05
 0.10627200E+03  0.83880E+05
 0.10632201E+03  0.98634E+05
 0.10637200E+03  0.11973E+06
 0.10642200E+03  0.13803E+06
 0.10647201E+03  0.14713E+06
 0.10652200E+03  0.14411E+06
 0.10657201E+03  0.13158E+06
 0.10662200E+03  0.11394E+06
 0.10667200E+03  0.90750E+05
 0.10672201E+03  0.64801E+05
 0.10677200E+03  0.46994E+05
 0.10682201E+03  0.44738E+05
 0.10687200E+03  0.54437E+05
 0.10692200E+03  0.67095E+05
 0.10697201E+03  0.75781E+05
 0.10702200E+03  0.78271E+05
 0.10707201E+03  0.76503E+05
 0.10712200E+03  0.71211E+05
 0.10717200E+03  0.61686E+05
 0.10722201E+03  0.52068E+05
 0.10727200E+03  0.48623E+05
 0.10732201E+03  0.52005E+05
 0.10737200E+03  0.54088E+05
 0.10742200E+03  0.44814E+05
 0.10747201E+03  0.24117E+05
 0.10752200E+03  0.83200E+03
 0.10757201E+03 -0.15866E+05
 0.10762200E+03 -0.19648E+05
 0.10767200E+03 -0.98080E+04
 0.10772201E+03  0.72040E+04
 0.10777200E+03  0.23261E+05
 0.10782201E+03  0.34324E+05
 0.10787200E+03  0.40056E+05
 0.10792200E+03  0.44315E+05
 0.10797201E+03  0.53189E+05
 0.10802200E+03  0.66250E+05
 0.10807201E+03  0.77474E+05
 0.10812200E+03  0.83406E+05
 0.10817200E+03  0.83019E+05
 0.10822201E+03  0.75574E+05
 0.10827200E+03  0.63197E+05
 0.10832201E+03  0.52284E+05
 0.10837200E+03  0.50092E+05
 0.10842200E+03  0.62528E+05
 0.10847201E+03  0.91158E+05
 0.10852200E+03  0.12828E+06
 0.10857201E+03  0.15879E+06
 0.10862200E+03  0.16772E+06
 0.10867200E+03  0.14991E+06
 0.10872201E+03  0.11469E+06
 0.10877200E+03  0.78531E+05
 0.10882201E+03  0.52628E+05
 0.10887200E+03  0.39979E+05
 0.10892200E+03  0.38440E+05
 0.10897201E+03  0.40629E+05
 0.10902200E+03  0.40910E+05
 0.10907201E+03  0.41555E+05
 0.10912200E+03  0.45353E+05
 0.10917200E+03  0.50984E+05
 0.10922201E+03  0.58604E+05
 0.10927200E+03  0.70357E+05
 0.10932201E+03  0.84411E+05
 0.10937200E+03  0.95754E+05
 0.10942200E+03  0.98313E+05
 0.10947201E+03  0.84531E+05
 0.10952200E+03  0.52192E+05
 0.10957201E+03  0.11677E+05
 0.10962200E+03 -0.19911E+05
 0.10967200E+03 -0.31691E+05
 0.10972201E+03 -0.23127E+05
 0.10977200E+03  0.67400E+03
 0.10982201E+03  0.33218E+05
 0.10987200E+03  0.67219E+05
 0.10992200E+03  0.92908E+05
 0.10997201E+03  0.10011E+06
 0.11002200E+03  0.85279E+05
 0.11007201E+03  0.54847E+05
 0.11012200E+03  0.19111E+05
 0.11017200E+03 -0.13727E+05
 0.11022201E+03 -0.36924E+05
 0.11027200E+03 -0.46069E+05
 0.11032201E+03 -0.40296E+05
 0.11037200E+03 -0.21825E+05
 0.11042200E+03  0.46180E+04
 0.11047201E+03  0.32552E+05
 0.11052200E+03  0.53759E+05
 0.11057201E+03  0.62823E+05
 0.11062200E+03  0.62014E+05
 0.11067200E+03  0.56644E+05
 0.11072201E+03  0.48840E+05
 0.11077200E+03  0.41778E+05
 0.11082201E+03  0.44143E+05
 0.11087200E+03  0.62628E+05
 0.11092200E+03  0.92645E+05
 0.11097201E+03  0.12057E+06
 0.11102200E+03  0.13662E+06
 0.11107201E+03  0.14051E+06
 0.11112200E+03  0.13591E+06
 0.11117200E+03  0.12865E+06
 0.11122201E+03  0.12513E+06
 0.11127200E+03  0.12723E+06
 0.11132201E+03  0.13236E+06
 0.11137200E+03  0.13558E+06
 0.11142200E+03  0.13171E+06
 0.11147201E+03  0.12039E+06
 0.11152200E+03  0.10821E+06
 0.11157201E+03  0.10277E+06
 0.11162200E+03  0.10462E+06
 0.11167200E+03  0.10835E+06
 0.11172201E+03  0.10898E+06
 0.11177200E+03  0.10191E+06
 0.11182201E+03  0.84449E+05
 0.11187200E+03  0.62968E+05
 0.11192200E+03  0.51708E+05
 0.11197201E+03  0.61734E+05
 0.11202200E+03  0.93849E+05
 0.11207201E+03  0.13985E+06
 0.11212200E+03  0.18523E+06
 0.11217200E+03  0.21218E+06
 0.11222201E+03  0.20806E+06
 0.11227200E+03  0.17731E+06
 0.11232201E+03  0.13956E+06
 0.11237200E+03  0.11331E+06
 0.11242200E+03  0.10626E+06
 0.11247201E+03  0.11605E+06
 0.11252200E+03  0.13537E+06
 0.11257201E+03  0.15781E+06
 0.11262200E+03  0.17993E+06
 0.11267200E+03  0.19757E+06
 0.11272201E+03  0.20390E+06
 0.11277200E+03  0.19715E+06
 0.11282201E+03  0.18495E+06
 0.11287200E+03  0.17375E+06
 0.11292200E+03  0.16152E+06
 0.11297201E+03  0.14361E+06
 0.11302200E+03  0.11820E+06
 0.11307201E+03  0.86839E+05
 0.11312200E+03  0.54897E+05
 0.11317200E+03  0.29741E+05
 0.11322201E+03  0.15025E+05
 0.11327200E+03  0.72690E+04
 0.11332201E+03 -0.17550E+04
 0.11337200E+03 -0.17967E+05
 0.11342200E+03 -0.40953E+05
 0.11347201E+03 -0.66609E+05
 0.11352200E+03 -0.92199E+05
 0.11357201E+03 -0.11851E+06
 0.11362200E+03 -0.14440E+06
 0.11367200E+03 -0.16313E+06
 0.11372201E+03 -0.16737E+06
 0.11377200E+03 -0.15579E+06
 0.11382201E+03 -0.13341E+06
 0.11387200E+03 -0.10713E+06
 0.11392200E+03 -0.84474E+05
 0.11397201E+03 -0.71806E+05
 0.11402200E+03 -0.70120E+05
 0.11407201E+03 -0.75606E+05
 0.11412200E+03 -0.81173E+05
 0.11417200E+03 -0.76466E+05
 0.11422201E+03 -0.54011E+05
 0.11427200E+03 -0.17170E+05
 0.11432201E+03  0.22298E+05
 0.11437200E+03  0.51132E+05
 0.11442200E+03  0.59663E+05
 0.11447201E+03  0.47242E+05
 0.11452200E+03  0.21305E+05
 0.11457201E+03 -0.86870E+04
 0.11462200E+03 -0.34647E+05
 0.11467200E+03 -0.50492E+05
 0.11472201E+03 -0.52269E+05
 0.11477200E+03 -0.38194E+05
 0.11482201E+03 -0.10322E+05
 0.11487200E+03  0.23570E+05
 0.11492200E+03  0.52957E+05
 0.11497201E+03  0.66249E+05
 0.11502200E+03  0.54404E+05
 0.11507201E+03  0.21133E+05
 0.11512200E+03 -0.15548E+05
 0.11517200E+03 -0.36217E+05
 0.11522201E+03 -0.32474E+05
 0.11527200E+03 -0.69840E+04
 0.11532201E+03  0.29813E+05
 0.11537200E+03  0.63164E+05
 0.11542200E+03  0.82607E+05
 0.11547201E+03  0.86040E+05
 0.11552200E+03  0.76930E+05
 0.11557201E+03  0.61948E+05
 0.11562200E+03  0.46295E+05
 0.11567200E+03  0.30133E+05
 0.11572201E+03  0.13925E+05
 0.11577200E+03  0.23890E+04
 0.11582201E+03 -0.21260E+04
 0.11587200E+03 -0.57060E+04
 0.11592200E+03 -0.15137E+05
 0.11597201E+03 -0.29105E+05
 0.11602200E+03 -0.39928E+05
 0.11607201E+03 -0.36005E+05
 0.11612200E+03 -0.83950E+04
 0.11617200E+03  0.40920E+05
 0.11622201E+03  0.99825E+05
 0.11627200E+03  0.15103E+06
 0.11632201E+03  0.17949E+06
 0.11637200E+03  0.18040E+06
 0.11642200E+03  0.15867E+06
 0.11647201E+03  0.12512E+06
 0.11652200E+03  0.96044E+05
 0.11657201E+03  0.84424E+05
 0.11662200E+03  0.91503E+05
 0.11667200E+03  0.11119E+06
 0.11672201E+03  0.13405E+06
 0.11677200E+03  0.15241E+06
 0.11682201E+03  0.16400E+06
 0.11687200E+03  0.16960E+06
 0.11692200E+03  0.17196E+06
 0.11697201E+03  0.17468E+06
 0.11702200E+03  0.17848E+06
 0.11707201E+03  0.18047E+06
 0.11712200E+03  0.17937E+06
 0.11717200E+03  0.17578E+06
 0.11722201E+03  0.17016E+06
 0.11727200E+03  0.16428E+06
 0.11732201E+03  0.15961E+06
 0.11737200E+03  0.15617E+06
 0.11742200E+03  0.14970E+06
 0.11747201E+03  0.13250E+06
 0.11752200E+03  0.10339E+06
 0.11757201E+03  0.72445E+05
 0.11762200E+03  0.53024E+05
 0.11767200E+03  0.47157E+05
 0.11772201E+03  0.45457E+05
 0.11777200E+03  0.42613E+05
 0.11782201E+03  0.37794E+05
 0.11787200E+03  0.27638E+05
 0.11792200E+03  0.10671E+05
 0.11797201E+03 -0.10750E+05
 0.11802200E+03 -0.33314E+05
 0.11807201E+03 -0.53088E+05
 0.11812200E+03 -0.65312E+05
 0.11817200E+03 -0.66960E+05
 0.11822201E+03 -0.59659E+05
 0.11827200E+03 -0.48737E+05
 0.11832201E+03 -0.42445E+05
 0.11837200E+03 -0.50345E+05
 0.11842200E+03 -0.75987E+05
 0.11847201E+03 -0.11184E+06
 0.11852200E+03 -0.14365E+06
 0.11857201E+03 -0.15882E+06
 0.11862200E+03 -0.15321E+06
 0.11867200E+03 -0.13200E+06
 0.11872201E+03 -0.10215E+06
 0.11877200E+03 -0.70139E+05
 0.11882201E+03 -0.43969E+05
 0.11887200E+03 -0.27385E+05
 0.11892200E+03 -0.21153E+05
 0.11897201E+03 -0.25776E+05
 0.11902200E+03 -0.37223E+05
 0.11907201E+03 -0.47846E+05
 0.11912200E+03 -0.51478E+05
 0.11917200E+03 -0.47896E+05
 0.11922201E+03 -0.38460E+05
 0.11927200E+03 -0.22025E+05
 0.11932201E+03  0.87500E+03
 0.11937200E+03  0.27098E+05
 0.11942200E+03  0.51876E+05
 0.11947201E+03  0.69600E+05
 0.11952200E+03  0.77241E+05
 0.11957201E+03  0.77430E+05
 0.11962200E+03  0.76444E+05
 0.11967200E+03  0.79775E+05
 0.11972201E+03  0.87831E+05
 0.11977200E+03  0.95480E+05
 0.11982201E+03  0.98199E+05
 0.11987200E+03  0.95028E+05
 0.11992200E+03  0.88285E+05
 0.11997201E+03  0.81057E+05
 0.12002200E+03  0.74677E+05
 0.12007201E+03  0.70296E+05
 0.12012200E+03  0.68459E+05
 0.12017200E+03  0.69583E+05
 0.12022201E+03  0.74317E+05
 0.12027200E+03  0.81317E+05
 0.12032201E+03  0.87820E+05
 0.12037200E+03  0.92120E+05
 0.12042200E+03  0.93966E+05
 0.12047201E+03  0.94836E+05
 0.12052200E+03  0.99389E+05
 0.12057201E+03  0.11091E+06
 0.12062200E+03  0.12525E+06
 0.12067200E+03  0.13354E+06
 0.12072201E+03  0.12912E+06
 0.12077200E+03  0.11169E+06
 0.12082201E+03  0.86826E+05
 0.12087200E+03  0.61517E+05
 0.12092200E+03  0.41228E+05
 0.12097201E+03  0.29935E+05
 0.12102200E+03  0.28595E+05
 0.12107201E+03  0.34879E+05
 0.12112200E+03  0.44009E+05
 0.12117200E+03  0.48535E+05
 0.12122201E+03  0.44405E+05
 0.12127200E+03  0.35256E+05
 0.12132201E+03  0.26022E+05
 0.12137200E+03  0.18592E+05
 0.12142200E+03  0.14348E+05
 0.12147201E+03  0.15752E+05
 0.12152200E+03  0.23399E+05
 0.12157201E+03  0.33298E+05
 0.12162200E+03  0.40789E+05
 0.12167200E+03  0.44723E+05
 0.12172201E+03  0.46093E+05
 0.12177200E+03  0.48404E+05
 0.12182201E+03  0.57103E+05
 0.12187200E+03  0.73667E+05
 0.12192200E+03  0.94208E+05
 0.12197201E+03  0.11184E+06
 0.12202200E+03  0.11771E+06
 0.12207201E+03  0.10683E+06
 0.12212200E+03  0.84269E+05
 0.12217200E+03  0.59442E+05
 0.12222201E+03  0.38233E+05
 0.12227200E+03  0.24108E+05
 0.12232201E+03  0.17664E+05
 0.12237200E+03  0.16150E+05
 0.12242200E+03  0.16075E+05
 0.12247201E+03  0.13167E+05
 0.12252200E+03  0.58540E+04
 0.12257201E+03 -0.27080E+04
 0.12262200E+03 -0.97280E+04
 0.12267200E+03 -0.15125E+05
 0.12272201E+03 -0.19500E+05
 0.12277200E+03 -0.23511E+05
 0.12282201E+03 -0.27882E+05
 0.12287200E+03 -0.32065E+05
 0.12292200E+03 -0.33610E+05
 0.12297201E+03 -0.28325E+05
 0.12302200E+03 -0.12519E+05
 0.12307201E+03  0.12774E+05
 0.12312200E+03  0.40946E+05
 0.12317200E+03  0.63856E+05
 0.12322201E+03  0.77072E+05
 0.12327200E+03  0.82351E+05
 0.12332201E+03  0.85431E+05
 0.12337200E+03  0.91197E+05
 0.12342200E+03  0.10180E+06
 0.12347201E+03  0.11645E+06
 0.12352200E+03  0.13001E+06
 0.12357201E+03  0.13455E+06
 0.12362200E+03  0.12363E+06
 0.12367200E+03  0.97466E+05
 0.12372201E+03  0.65558E+05
 0.12377200E+03  0.40937E+05
 0.12382201E+03  0.30912E+05
 0.12387200E+03  0.34060E+05
 0.12392200E+03  0.42888E+05
 0.12397201E+03  0.50121E+05
 0.12402200E+03  0.54620E+05
 0.12407201E+03  0.58167E+05
 0.12412200E+03  0.60713E+05
 0.12417200E+03  0.61612E+05
 0.12422201E+03  0.58853E+05
 0.12427200E+03  0.50224E+05
 0.12432201E+03  0.37876E+05
 0.12437200E+03  0.26826E+05
 0.12442200E+03  0.20612E+05
 0.12447201E+03  0.18588E+05
 0.12452200E+03  0.16563E+05
 0.12457201E+03  0.11792E+05
 0.12462200E+03  0.52450E+04
 0.12467200E+03 -0.19590E+04
 0.12472201E+03 -0.10545E+05
 0.12477200E+03 -0.19485E+05
 0.12482201E+03 -0.25368E+05
 0.12487200E+03 -0.26421E+05
 0.12492200E+03 -0.23157E+05
 0.12497201E+03 -0.17697E+05
 0.12502200E+03 -0.14118E+05
 0.12507201E+03 -0.15563E+05
 0.12512201E+03 -0.21654E+05
 0.12517201E+03 -0.30682E+05
 0.12522200E+03 -0.41347E+05
 0.12527200E+03 -0.51650E+05
 0.12532201E+03 -0.57815E+05
 0.12537201E+03 -0.56018E+05
 0.12542201E+03 -0.45850E+05
 0.12547200E+03 -0.30399E+05
 0.12552200E+03 -0.13760E+05
 0.12557201E+03  0.66400E+03
 0.12562201E+03  0.11605E+05
 0.12567201E+03  0.19608E+05
 0.12572200E+03  0.24047E+05
 0.12577200E+03  0.22100E+05
 0.12582201E+03  0.12219E+05
 0.12587201E+03 -0.28950E+04
 0.12592201E+03 -0.16817E+05
 0.12597200E+03 -0.21519E+05
 0.12602200E+03 -0.13609E+05
 0.12607201E+03  0.20730E+04
 0.12612201E+03  0.18978E+05
 0.12617201E+03  0.33876E+05
 0.12622200E+03  0.44806E+05
 0.12627200E+03  0.48673E+05
 0.12632201E+03  0.42690E+05
 0.12637201E+03  0.28276E+05
 0.12642201E+03  0.11504E+05
 0.12647200E+03 -0.14870E+04
 0.12652200E+03 -0.85350E+04
 0.12657201E+03 -0.11533E+05
 0.12662201E+03 -0.13036E+05
 0.12667201E+03 -0.14624E+05
 0.12672200E+03 -0.19370E+05
 0.12677200E+03 -0.30148E+05
 0.12682201E+03 -0.46767E+05
 0.12687201E+03 -0.66563E+05
 0.12692201E+03 -0.83514E+05
 0.12697200E+03 -0.91010E+05
 0.12702200E+03 -0.88401E+05
 0.12707201E+03 -0.81082E+05
 0.12712201E+03 -0.74371E+05
 0.12717201E+03 -0.71094E+05
 0.12722200E+03 -0.73303E+05
 0.12727200E+03 -0.80799E+05
 0.12732201E+03 -0.89629E+05
 0.12737201E+03 -0.94489E+05
 0.12742201E+03 -0.92323E+05
 0.12747200E+03 -0.84985E+05
 0.12752200E+03 -0.76952E+05
 0.12757201E+03 -0.70692E+05
 0.12762201E+03 -0.66637E+05
 0.12767201E+03 -0.64903E+05
 0.12772200E+03 -0.65307E+05
 0.12777200E+03 -0.67203E+05
 0.12782201E+03 -0.68299E+05
 0.12787201E+03 -0.65110E+05
 0.12792201E+03 -0.56947E+05
 0.12797200E+03 -0.45052E+05
 0.12802200E+03 -0.29915E+05
 0.12807201E+03 -0.14228E+05
 0.12812201E+03 -0.42900E+04
 0.12817201E+03 -0.55060E+04
 0.12822200E+03 -0.17181E+05
 0.12827200E+03 -0.33446E+05
 0.12832201E+03 -0.47949E+05
 0.12837201E+03 -0.57079E+05
 0.12842201E+03 -0.59873E+05
 0.12847200E+03 -0.54847E+05
 0.12852200E+03 -0.41097E+05
 0.12857201E+03 -0.22621E+05
 0.12862201E+03 -0.72690E+04
 0.12867201E+03 -0.60100E+03
 0.12872200E+03 -0.15410E+04
 0.12877200E+03 -0.51690E+04
 0.12882201E+03 -0.77760E+04
 0.12887201E+03 -0.78010E+04
 0.12892201E+03 -0.37310E+04
 0.12897200E+03  0.79590E+04
 0.12902200E+03  0.29830E+05
 0.12907201E+03  0.58369E+05
 0.12912201E+03  0.85337E+05
 0.12917201E+03  0.10264E+06
 0.12922200E+03  0.10688E+06
 0.12927200E+03  0.10198E+06
 0.12932201E+03  0.95062E+05
 0.12937201E+03  0.89513E+05
 0.12942201E+03  0.84222E+05
 0.12947200E+03  0.78686E+05
 0.12952200E+03  0.75214E+05
 0.12957201E+03  0.75479E+05
 0.12962201E+03  0.77288E+05
 0.12967201E+03  0.77933E+05
 0.12972200E+03  0.78300E+05
 0.12977200E+03  0.79823E+05
 0.12982201E+03  0.82268E+05
 0.12987201E+03  0.84745E+05
 0.12992201E+03  0.85556E+05
 0.12997200E+03  0.83503E+05
 0.13002200E+03  0.78957E+05
 0.13007201E+03  0.73322E+05
 0.13012201E+03  0.68693E+05
 0.13017201E+03  0.66858E+05
 0.13022200E+03  0.67876E+05
 0.13027200E+03  0.70356E+05
 0.13032201E+03  0.74140E+05
 0.13037201E+03  0.79757E+05
 0.13042201E+03  0.85285E+05
 0.13047200E+03  0.88087E+05
 0.13052200E+03  0.87993E+05
 0.13057201E+03  0.87563E+05
 0.13062201E+03  0.88852E+05
 0.13067201E+03  0.90264E+05
 0.13072200E+03  0.89614E+05
 0.13077200E+03  0.87065E+05
 0.13082201E+03  0.83857E+05
 0.13087201E+03  0.81469E+05
 0.13092201E+03  0.80015E+05
 0.13097200E+03  0.77936E+05
 0.13102200E+03  0.74301E+05
 0.13107201E+03  0.68327E+05
 0.13112201E+03  0.58550E+05
 0.13117201E+03  0.45394E+05
 0.13122200E+03  0.30167E+05
 0.13127200E+03  0.11371E+05
 0.13132201E+03 -0.12435E+05
 0.13137201E+03 -0.39133E+05
 0.13142201E+03 -0.64292E+05
 0.13147200E+03 -0.83919E+05
 0.13152200E+03 -0.96210E+05
 0.13157201E+03 -0.10175E+06
 0.13162201E+03 -0.10246E+06
 0.13167201E+03 -0.98788E+05
 0.13172200E+03 -0.91391E+05
 0.13177200E+03 -0.83580E+05
 0.13182201E+03 -0.77994E+05
 0.13187201E+03 -0.74815E+05
 0.13192201E+03 -0.72851E+05
 0.13197200E+03 -0.70389E+05
 0.13202200E+03 -0.66559E+05
 0.13207201E+03 -0.62656E+05
 0.13212201E+03 -0.61034E+05
 0.13217201E+03 -0.61765E+05
 0.13222200E+03 -0.61301E+05
 0.13227200E+03 -0.55839E+05
 0.13232201E+03 -0.45741E+05
 0.13237201E+03 -0.34100E+05
 0.13242201E+03 -0.23688E+05
 0.13247200E+03 -0.16680E+05
 0.13252200E+03 -0.13325E+05
 0.13257201E+03 -0.11489E+05
 0.13262201E+03 -0.81670E+04
 0.13267201E+03 -0.16460E+04
 0.13272200E+03  0.71180E+04
 0.13277200E+03  0.16994E+05
 0.13282201E+03  0.27933E+05
 0.13287201E+03  0.38074E+05
 0.13292201E+03  0.44702E+05
 0.13297200E+03  0.47919E+05
 0.13302200E+03  0.50130E+05
 0.13307201E+03  0.53646E+05
 0.13312201E+03  0.60184E+05
 0.13317201E+03  0.71078E+05
 0.13322200E+03  0.86038E+05
 0.13327200E+03  0.10236E+06
 0.13332201E+03  0.11633E+06
 0.13337201E+03  0.12556E+06
 0.13342201E+03  0.13009E+06
 0.13347200E+03  0.13200E+06
 0.13352200E+03  0.13392E+06
 0.13357201E+03  0.13715E+06
 0.13362201E+03  0.14142E+06
 0.13367201E+03  0.14525E+06
 0.13372200E+03  0.14612E+06
 0.13377200E+03  0.14129E+06
 0.13382201E+03  0.12840E+06
 0.13387201E+03  0.10737E+06
 0.13392201E+03  0.82826E+05
 0.13397200E+03  0.61541E+05
 0.13402200E+03  0.46765E+05
 0.13407201E+03  0.36814E+05
 0.13412201E+03  0.28913E+05
 0.13417201E+03  0.21925E+05
 0.13422200E+03  0.16244E+05
 0.13427200E+03  0.12237E+05
 0.13432201E+03  0.86850E+04
 0.13437201E+03  0.47140E+04
 0.13442201E+03  0.11470E+04
 0.13447200E+03 -0.18110E+04
 0.13452200E+03 -0.52560E+04
 0.13457201E+03 -0.97680E+04
 0.13462201E+03 -0.15384E+05
 0.13467201E+03 -0.22955E+05
 0.13472200E+03 -0.32907E+05
 0.13477200E+03 -0.43706E+05
 0.13482201E+03 -0.53089E+05
 0.13487201E+03 -0.59736E+05
 0.13492201E+03 -0.62461E+05
 0.13497200E+03 -0.60167E+05
 0.13502200E+03 -0.55032E+05
 0.13507201E+03 -0.51645E+05
 0.13512201E+03 -0.52286E+05
 0.13517201E+03 -0.57181E+05
 0.13522200E+03 -0.66283E+05
 0.13527200E+03 -0.76990E+05
 0.13532201E+03 -0.85446E+05
 0.13537201E+03 -0.90198E+05
 0.13542201E+03 -0.91091E+05
 0.13547200E+03 -0.89393E+05
 0.13552200E+03 -0.88433E+05
 0.13557201E+03 -0.90139E+05
 0.13562201E+03 -0.93599E+05
 0.13567201E+03 -0.96231E+05
 0.13572200E+03 -0.94678E+05
 0.13577200E+03 -0.87415E+05
 0.13582201E+03 -0.75580E+05
 0.13587201E+03 -0.61640E+05
 0.13592201E+03 -0.48791E+05
 0.13597200E+03 -0.38031E+05
 0.13602200E+03 -0.27300E+05
 0.13607201E+03 -0.15837E+05
 0.13612201E+03 -0.67480E+04
 0.13617201E+03 -0.45190E+04
 0.13622200E+03 -0.10799E+05
 0.13627200E+03 -0.23306E+05
 0.13632201E+03 -0.36744E+05
 0.13637201E+03 -0.45328E+05
 0.13642201E+03 -0.47758E+05
 0.13647200E+03 -0.47353E+05
 0.13652200E+03 -0.48039E+05
 0.13657201E+03 -0.51932E+05
 0.13662201E+03 -0.58095E+05
 0.13667201E+03 -0.63949E+05
 0.13672200E+03 -0.68211E+05
 0.13677200E+03 -0.71784E+05
 0.13682201E+03 -0.76042E+05
 0.13687201E+03 -0.81646E+05
 0.13692201E+03 -0.87957E+05
 0.13697200E+03 -0.92386E+05
 0.13702200E+03 -0.93158E+05
 0.13707201E+03 -0.91181E+05
 0.13712201E+03 -0.88055E+05
 0.13717201E+03 -0.83940E+05
 0.13722200E+03 -0.77382E+05
 0.13727200E+03 -0.67130E+05
 0.13732201E+03 -0.53620E+05
 0.13737201E+03 -0.38839E+05
 0.13742201E+03 -0.24855E+05
 0.13747200E+03 -0.14077E+05
 0.13752200E+03 -0.81380E+04
 0.13757201E+03 -0.42800E+04
 0.13762201E+03  0.20370E+04
 0.13767201E+03  0.12194E+05
 0.13772200E+03  0.24855E+05
 0.13777200E+03  0.38238E+05
 0.13782201E+03  0.50695E+05
 0.13787201E+03  0.60686E+05
 0.13792201E+03  0.66933E+05
 0.13797200E+03  0.69511E+05
 0.13802200E+03  0.70315E+05
 0.13807201E+03  0.71387E+05
 0.13812201E+03  0.73873E+05
 0.13817201E+03  0.77002E+05
 0.13822200E+03  0.78008E+05
 0.13827200E+03  0.75127E+05
 0.13832201E+03  0.70243E+05
 0.13837201E+03  0.67887E+05
 0.13842201E+03  0.71305E+05
 0.13847200E+03  0.79398E+05
 0.13852200E+03  0.87055E+05
 0.13857201E+03  0.88999E+05
 0.13862201E+03  0.83919E+05
 0.13867201E+03  0.74755E+05
 0.13872200E+03  0.65648E+05
 0.13877200E+03  0.59109E+05
 0.13882201E+03  0.55346E+05
 0.13887201E+03  0.53011E+05
 0.13892201E+03  0.50324E+05
 0.13897200E+03  0.46690E+05
 0.13902200E+03  0.42991E+05
 0.13907201E+03  0.39697E+05
 0.13912201E+03  0.36559E+05
 0.13917201E+03  0.34137E+05
 0.13922200E+03  0.33881E+05
 0.13927200E+03  0.36568E+05
 0.13932201E+03  0.40760E+05
 0.13937201E+03  0.43280E+05
 0.13942201E+03  0.41971E+05
 0.13947200E+03  0.37358E+05
 0.13952200E+03  0.31634E+05
 0.13957201E+03  0.26491E+05
 0.13962201E+03  0.21881E+05
 0.13967201E+03  0.17310E+05
 0.13972200E+03  0.12913E+05
 0.13977200E+03  0.90330E+04
 0.13982201E+03  0.64140E+04
 0.13987201E+03  0.62640E+04
 0.13992201E+03  0.91150E+04
 0.13997200E+03  0.13949E+05
 0.14002200E+03  0.19201E+05
 0.14007201E+03  0.23759E+05
 0.14012201E+03  0.26899E+05
 0.14017201E+03  0.28497E+05
 0.14022200E+03  0.29491E+05
 0.14027200E+03  0.30919E+05
 0.14032201E+03  0.31740E+05
 0.14037201E+03  0.29359E+05
 0.14042201E+03  0.21680E+05
 0.14047200E+03  0.80730E+04
 0.14052200E+03 -0.93340E+04
 0.14057201E+03 -0.26163E+05
 0.14062201E+03 -0.38415E+05
 0.14067201E+03 -0.43368E+05
 0.14072200E+03 -0.40113E+05
 0.14077200E+03 -0.31602E+05
 0.14082201E+03 -0.24228E+05
 0.14087201E+03 -0.23857E+05
 0.14092201E+03 -0.31940E+05
 0.14097200E+03 -0.45152E+05
 0.14102200E+03 -0.58885E+05
 0.14107201E+03 -0.70135E+05
 0.14112201E+03 -0.77655E+05
 0.14117201E+03 -0.80889E+05
 0.14122200E+03 -0.79522E+05
 0.14127200E+03 -0.74592E+05
 0.14132201E+03 -0.68705E+05
 0.14137201E+03 -0.64517E+05
 0.14142201E+03 -0.63197E+05
 0.14147200E+03 -0.63696E+05
 0.14152200E+03 -0.63655E+05
 0.14157201E+03 -0.60981E+05
 0.14162201E+03 -0.55149E+05
 0.14167201E+03 -0.47198E+05
 0.14172200E+03 -0.38032E+05
 0.14177200E+03 -0.26889E+05
 0.14182201E+03 -0.11283E+05
 0.14187201E+03  0.99330E+04
 0.14192201E+03  0.33883E+05
 0.14197200E+03  0.55075E+05
 0.14202200E+03  0.68193E+05
 0.14207201E+03  0.71269E+05
 0.14212201E+03  0.66692E+05
 0.14217201E+03  0.57910E+05
 0.14222200E+03  0.47463E+05
 0.14227200E+03  0.38314E+05
 0.14232201E+03  0.33935E+05
 0.14237201E+03  0.36318E+05
 0.14242201E+03  0.43937E+05
 0.14247200E+03  0.52673E+05
 0.14252200E+03  0.58498E+05
 0.14257201E+03  0.58439E+05
 0.14262201E+03  0.51444E+05
 0.14267201E+03  0.39155E+05
 0.14272200E+03  0.25199E+05
 0.14277200E+03  0.12650E+05
 0.14282201E+03  0.22390E+04
 0.14287201E+03 -0.65720E+04
 0.14292201E+03 -0.14520E+05
 0.14297200E+03 -0.22122E+05
 0.14302200E+03 -0.29942E+05
 0.14307201E+03 -0.39368E+05
 0.14312201E+03 -0.52369E+05
 0.14317201E+03 -0.70310E+05
 0.14322200E+03 -0.91491E+05
 0.14327200E+03 -0.11034E+06
 0.14332201E+03 -0.12179E+06
 0.14337201E+03 -0.12483E+06
 0.14342201E+03 -0.12020E+06
 0.14347200E+03 -0.10865E+06
 0.14352200E+03 -0.92170E+05
 0.14357201E+03 -0.73753E+05
 0.14362201E+03 -0.56712E+05
 0.14367201E+03 -0.44679E+05
 0.14372200E+03 -0.39057E+05
 0.14377200E+03 -0.37389E+05
 0.14382201E+03 -0.35430E+05
 0.14387201E+03 -0.29950E+05
 0.14392201E+03 -0.20546E+05
 0.14397200E+03 -0.88020E+04
 0.14402200E+03  0.30430E+04
 0.14407201E+03  0.12046E+05
 0.14412201E+03  0.15944E+05
 0.14417201E+03  0.14565E+05
 0.14422200E+03  0.93290E+04
 0.14427200E+03  0.28120E+04
 0.14432201E+03 -0.16860E+04
 0.14437201E+03 -0.18280E+04
 0.14442201E+03  0.24370E+04
 0.14447200E+03  0.95420E+04
 0.14452200E+03  0.17481E+05
 0.14457201E+03  0.24435E+05
 0.14462201E+03  0.28976E+05
 0.14467201E+03  0.30518E+05
 0.14472200E+03  0.29437E+05
 0.14477200E+03  0.26112E+05
 0.14482201E+03  0.20942E+05
 0.14487201E+03  0.14904E+05
 0.14492201E+03  0.88440E+04
 0.14497200E+03  0.27610E+04
 0.14502200E+03 -0.43700E+04
 0.14507201E+03 -0.13746E+05
 0.14512201E+03 -0.24925E+05
 0.14517201E+03 -0.36372E+05
 0.14522200E+03 -0.47470E+05
 0.14527200E+03 -0.57468E+05
 0.14532201E+03 -0.64399E+05
 0.14537201E+03 -0.67211E+05
 0.14542201E+03 -0.66320E+05
 0.14547200E+03 -0.61626E+05
 0.14552200E+03 -0.53172E+05
 0.14557201E+03 -0.43287E+05
 0.14562201E+03 -0.35191E+05
 0.14567201E+03 -0.29948E+05
 0.14572200E+03 -0.25871E+05
 0.14577200E+03 -0.20704E+05
 0.14582201E+03 -0.12983E+05
 0.14587201E+03 -0.16750E+04
 0.14592201E+03  0.12716E+05
 0.14597200E+03  0.28037E+05
 0.14602200E+03  0.42025E+05
 0.14607201E+03  0.52260E+05
 0.14612201E+03  0.57346E+05
 0.14617201E+03  0.59029E+05
 0.14622200E+03  0.60364E+05
 0.14627200E+03  0.62448E+05
 0.14632201E+03  0.64255E+05
 0.14637201E+03  0.64637E+05
 0.14642201E+03  0.64003E+05
 0.14647200E+03  0.63485E+05
 0.14652200E+03  0.63059E+05
 0.14657201E+03  0.61388E+05
 0.14662201E+03  0.57613E+05
 0.14667201E+03  0.53058E+05
 0.14672200E+03  0.49097E+05
 0.14677200E+03  0.44015E+05
 0.14682201E+03  0.34599E+05
 0.14687201E+03  0.19986E+05
 0.14692201E+03  0.26090E+04
 0.14697200E+03 -0.13336E+05
 0.14702200E+03 -0.23623E+05
 0.14707201E+03 -0.26220E+05
 0.14712201E+03 -0.22413E+05
 0.14717201E+03 -0.14864E+05
 0.14722200E+03 -0.67360E+04
 0.14727200E+03 -0.21560E+04
 0.14732201E+03 -0.38110E+04
 0.14737201E+03 -0.10676E+05
 0.14742201E+03 -0.18920E+05
 0.14747200E+03 -0.24845E+05
 0.14752200E+03 -0.27148E+05
 0.14757201E+03 -0.26689E+05
 0.14762201E+03 -0.25347E+05
 0.14767201E+03 -0.24796E+05
 0.14772200E+03 -0.25877E+05
 0.14777200E+03 -0.29009E+05
 0.14782201E+03 -0.34088E+05
 0.14787201E+03 -0.39750E+05
 0.14792201E+03 -0.44325E+05
 0.14797200E+03 -0.47372E+05
 0.14802200E+03 -0.48474E+05
 0.14807201E+03 -0.46667E+05
 0.14812201E+03 -0.42778E+05
 0.14817201E+03 -0.39602E+05
 0.14822200E+03 -0.39243E+05
 0.14827200E+03 -0.41557E+05
 0.14832201E+03 -0.43965E+05
 0.14837201E+03 -0.43053E+05
 0.14842201E+03 -0.37180E+05
 0.14847200E+03 -0.27444E+05
 0.14852200E+03 -0.17433E+05
 0.14857201E+03 -0.11781E+05
 0.14862201E+03 -0.13648E+05
 0.14867201E+03 -0.22398E+05
 0.14872200E+03 -0.33610E+05
 0.14877200E+03 -0.42069E+05
 0.14882201E+03 -0.44207E+05
 0.14887201E+03 -0.39059E+05
 0.14892201E+03 -0.28351E+05
 0.14897200E+03 -0.14986E+05
 0.14902200E+03 -0.20650E+04
 0.14907201E+03  0.66250E+04
 0.14912201E+03  0.82120E+04
 0.14917201E+03  0.38040E+04
 0.14922200E+03 -0.19460E+04
 0.14927200E+03 -0.44390E+04
 0.14932201E+03 -0.25120E+04
 0.14937201E+03  0.17840E+04
 0.14942201E+03  0.68490E+04
 0.14947200E+03  0.12729E+05
 0.14952200E+03  0.18979E+05
 0.14957201E+03  0.24159E+05
 0.14962201E+03  0.27315E+05
 0.14967201E+03  0.28616E+05
 0.14972200E+03  0.28987E+05
 0.14977200E+03  0.28999E+05
 0.14982201E+03  0.28018E+05
 0.14987201E+03  0.25519E+05
 0.14992201E+03  0.22386E+05
 0.14997200E+03  0.19527E+05
