-0.29800000E+01  0.72160E+04
-0.29300001E+01  0.12362E+05
-0.28800001E+01  0.15592E+05
-0.28299999E+01  0.18959E+05
-0.27800000E+01  0.23160E+05
-0.27300000E+01  0.26731E+05
-0.26800001E+01  0.27776E+05
-0.26300001E+01  0.25418E+05
-0.25799999E+01  0.16693E+05
-0.25300000E+01  0.99800E+03
-0.24800000E+01 -0.18401E+05
-0.24300001E+01 -0.38363E+05
-0.23800001E+01 -0.57562E+05
-0.23299999E+01 -0.73760E+05
-0.22800000E+01 -0.84509E+05
-0.22300000E+01 -0.88937E+05
-0.21800001E+01 -0.85231E+05
-0.21300001E+01 -0.72508E+05
-0.20799999E+01 -0.52975E+05
-0.20300000E+01 -0.32587E+05
-0.19800000E+01 -0.15219E+05
-0.19299999E+01  0.97900E+03
-0.18800000E+01  0.17649E+05
-0.18300000E+01  0.34117E+05
-0.17800000E+01  0.51743E+05
-0.17300000E+01  0.72201E+05
-0.16799999E+01  0.94309E+05
-0.16300000E+01  0.11789E+06
-0.15800000E+01  0.14093E+06
-0.15300000E+01  0.16013E+06
-0.14800000E+01  0.17450E+06
-0.14299999E+01  0.18328E+06
-0.13800000E+01  0.18799E+06
-0.13300000E+01  0.18968E+06
-0.12800000E+01  0.18674E+06
-0.12300000E+01  0.17851E+06
-0.11799999E+01  0.16819E+06
-0.11300000E+01  0.16027E+06
-0.10800000E+01  0.15402E+06
-0.10300000E+01  0.14626E+06
-0.98000002E+00  0.13692E+06
-0.93000007E+00  0.12791E+06
-0.87999988E+00  0.11642E+06
-0.82999992E+00  0.99062E+05
-0.77999997E+00  0.77783E+05
-0.73000002E+00  0.52073E+05
-0.68000007E+00  0.20704E+05
-0.62999988E+00 -0.15677E+05
-0.57999992E+00 -0.53470E+05
-0.52999997E+00 -0.85092E+05
-0.48000002E+00 -0.10886E+06
-0.43000007E+00 -0.12456E+06
-0.37999988E+00 -0.13111E+06
-0.32999992E+00 -0.13236E+06
-0.27999997E+00 -0.13326E+06
-0.23000002E+00 -0.13681E+06
-0.18000007E+00 -0.14187E+06
-0.12999988E+00 -0.14684E+06
-0.79999924E-01 -0.15169E+06
-0.29999971E-01 -0.15770E+06
 0.19999981E-01 -0.16404E+06
 0.69999933E-01 -0.16782E+06
 0.12000012E+00 -0.16826E+06
 0.17000008E+00 -0.16630E+06
 0.22000003E+00 -0.16487E+06
 0.26999998E+00 -0.16243E+06
 0.31999993E+00 -0.15752E+06
 0.37000012E+00 -0.14917E+06
 0.42000008E+00 -0.13512E+06
 0.47000003E+00 -0.11698E+06
 0.51999998E+00 -0.97059E+05
 0.56999993E+00 -0.77177E+05
 0.62000012E+00 -0.57272E+05
 0.67000008E+00 -0.37526E+05
 0.72000003E+00 -0.17357E+05
 0.76999998E+00  0.31440E+04
 0.81999993E+00  0.23361E+05
 0.87000012E+00  0.40530E+05
 0.92000008E+00  0.49833E+05
 0.97000003E+00  0.49864E+05
 0.10200000E+01  0.39293E+05
 0.10700002E+01  0.22753E+05
 0.11199999E+01  0.55800E+04
 0.11700001E+01 -0.10536E+05
 0.12200003E+01 -0.20852E+05
 0.12700000E+01 -0.23217E+05
 0.13200002E+01 -0.16745E+05
 0.13699999E+01 -0.39130E+04
 0.14200001E+01  0.10011E+05
 0.14700003E+01  0.24038E+05
 0.15200000E+01  0.38573E+05
 0.15700002E+01  0.53925E+05
 0.16199999E+01  0.65476E+05
 0.16700001E+01  0.68946E+05
 0.17200003E+01  0.67107E+05
 0.17700000E+01  0.62569E+05
 0.18200002E+01  0.55256E+05
 0.18699999E+01  0.46111E+05
 0.19200001E+01  0.41030E+05
 0.19700003E+01  0.41625E+05
 0.20200000E+01  0.42891E+05
 0.20700002E+01  0.43635E+05
 0.21199999E+01  0.43209E+05
 0.21700001E+01  0.42273E+05
 0.22200003E+01  0.41632E+05
 0.22700000E+01  0.40599E+05
 0.23200002E+01  0.43120E+05
 0.23699999E+01  0.47985E+05
 0.24200001E+01  0.50708E+05
 0.24700003E+01  0.51062E+05
 0.25200000E+01  0.49072E+05
 0.25700002E+01  0.46059E+05
 0.26199999E+01  0.42712E+05
 0.26700001E+01  0.38776E+05
 0.27200003E+01  0.33803E+05
 0.27700000E+01  0.26924E+05
 0.28200002E+01  0.19015E+05
 0.28699999E+01  0.13853E+05
 0.29200001E+01  0.12356E+05
 0.29700003E+01  0.10919E+05
 0.30200000E+01  0.97080E+04
 0.30700002E+01  0.99330E+04
 0.31199999E+01  0.12204E+05
 0.31700001E+01  0.15063E+05
 0.32200003E+01  0.15817E+05
 0.32700000E+01  0.17203E+05
 0.33200002E+01  0.19597E+05
 0.33699999E+01  0.22085E+05
 0.34200001E+01  0.24343E+05
 0.34700003E+01  0.24127E+05
 0.35200000E+01  0.20688E+05
 0.35700002E+01  0.13796E+05
 0.36199999E+01  0.40550E+04
 0.36700001E+01 -0.81140E+04
 0.37200003E+01 -0.21918E+05
 0.37700000E+01 -0.36430E+05
 0.38200002E+01 -0.52246E+05
 0.38699999E+01 -0.67361E+05
 0.39200001E+01 -0.80253E+05
 0.39700003E+01 -0.92999E+05
 0.40200000E+01 -0.10414E+06
 0.40700002E+01 -0.11366E+06
 0.41199999E+01 -0.12132E+06
 0.41700001E+01 -0.12270E+06
 0.42200003E+01 -0.11971E+06
 0.42700000E+01 -0.11419E+06
 0.43200002E+01 -0.10528E+06
 0.43699999E+01 -0.94909E+05
 0.44200001E+01 -0.82493E+05
 0.44700003E+01 -0.67321E+05
 0.45200000E+01 -0.49639E+05
 0.45700002E+01 -0.28450E+05
 0.46199999E+01 -0.53470E+04
 0.46700001E+01  0.18929E+05
 0.47200003E+01  0.43658E+05
 0.47700000E+01  0.66812E+05
 0.48200002E+01  0.87867E+05
 0.48699999E+01  0.10610E+06
 0.49200001E+01  0.12154E+06
 0.49700003E+01  0.13457E+06
 0.50200000E+01  0.14444E+06
 0.50700002E+01  0.14880E+06
 0.51200004E+01  0.14629E+06
 0.51700006E+01  0.13820E+06
 0.52199998E+01  0.12644E+06
 0.52700000E+01  0.11122E+06
 0.53200002E+01  0.93111E+05
 0.53700004E+01  0.75196E+05
 0.54200006E+01  0.59484E+05
 0.54699998E+01  0.45897E+05
 0.55200000E+01  0.33758E+05
 0.55700002E+01  0.22827E+05
 0.56200004E+01  0.12419E+05
 0.56700006E+01  0.17270E+04
 0.57199998E+01 -0.11212E+05
 0.57700000E+01 -0.26113E+05
 0.58200002E+01 -0.41262E+05
 0.58700004E+01 -0.55934E+05
 0.59200006E+01 -0.67713E+05
 0.59699998E+01 -0.76122E+05
 0.60200000E+01 -0.80618E+05
 0.60700002E+01 -0.83686E+05
 0.61200004E+01 -0.89224E+05
 0.61700006E+01 -0.95572E+05
 0.62199998E+01 -0.10107E+06
 0.62700000E+01 -0.10462E+06
 0.63200002E+01 -0.10563E+06
 0.63700004E+01 -0.10284E+06
 0.64200006E+01 -0.94315E+05
 0.64699998E+01 -0.82912E+05
 0.65200000E+01 -0.68671E+05
 0.65700002E+01 -0.50126E+05
 0.66200004E+01 -0.31192E+05
 0.66700006E+01 -0.12446E+05
 0.67199998E+01  0.65470E+04
 0.67700000E+01  0.27273E+05
 0.68200002E+01  0.52034E+05
 0.68700004E+01  0.76774E+05
 0.69200006E+01  0.97478E+05
 0.69699998E+01  0.11142E+06
 0.70200000E+01  0.11991E+06
 0.70700002E+01  0.12346E+06
 0.71200004E+01  0.11984E+06
 0.71700006E+01  0.11358E+06
 0.72199998E+01  0.10475E+06
 0.72700000E+01  0.92995E+05
 0.73200002E+01  0.78991E+05
 0.73700004E+01  0.58769E+05
 0.74200006E+01  0.32931E+05
 0.74699998E+01  0.19120E+04
 0.75200000E+01 -0.29111E+05
 0.75700002E+01 -0.53274E+05
 0.76200004E+01 -0.70313E+05
 0.76700006E+01 -0.79787E+05
 0.77199998E+01 -0.83966E+05
 0.77700000E+01 -0.83603E+05
 0.78200002E+01 -0.76496E+05
 0.78700004E+01 -0.64140E+05
 0.79200006E+01 -0.49607E+05
 0.79699998E+01 -0.37011E+05
 0.80200005E+01 -0.27675E+05
 0.80699997E+01 -0.19603E+05
 0.81200008E+01 -0.14146E+05
 0.81700001E+01 -0.11921E+05
 0.82199993E+01 -0.10918E+05
 0.82700005E+01 -0.11533E+05
 0.83199997E+01 -0.13872E+05
 0.83700008E+01 -0.16963E+05
 0.84200001E+01 -0.22087E+05
 0.84699993E+01 -0.31540E+05
 0.85200005E+01 -0.46544E+05
 0.85699997E+01 -0.62555E+05
 0.86200008E+01 -0.75568E+05
 0.86700001E+01 -0.84275E+05
 0.87199993E+01 -0.83094E+05
 0.87700005E+01 -0.73383E+05
 0.88199997E+01 -0.59167E+05
 0.88700008E+01 -0.41688E+05
 0.89200001E+01 -0.22650E+05
 0.89699993E+01  0.48700E+03
 0.90200005E+01  0.27922E+05
 0.90699997E+01  0.57763E+05
 0.91200008E+01  0.87433E+05
 0.91700001E+01  0.11131E+06
 0.92199993E+01  0.12644E+06
 0.92700005E+01  0.13273E+06
 0.93199997E+01  0.12985E+06
 0.93700008E+01  0.11867E+06
 0.94200001E+01  0.10100E+06
 0.94699993E+01  0.81504E+05
 0.95200005E+01  0.63943E+05
 0.95699997E+01  0.49492E+05
 0.96200008E+01  0.39650E+05
 0.96700001E+01  0.30819E+05
 0.97199993E+01  0.23455E+05
 0.97700005E+01  0.20555E+05
 0.98199997E+01  0.22619E+05
 0.98700008E+01  0.30723E+05
 0.99200001E+01  0.41213E+05
 0.99699993E+01  0.52974E+05
 0.10020000E+02  0.62632E+05
 0.10070000E+02  0.66998E+05
 0.10120001E+02  0.68523E+05
 0.10170000E+02  0.68908E+05
 0.10219999E+02  0.68574E+05
 0.10270000E+02  0.63891E+05
 0.10320000E+02  0.55590E+05
 0.10370001E+02  0.44209E+05
 0.10420000E+02  0.30118E+05
 0.10469999E+02  0.17087E+05
 0.10520000E+02  0.33050E+04
 0.10570000E+02 -0.10652E+05
 0.10620001E+02 -0.23644E+05
 0.10670000E+02 -0.34732E+05
 0.10719999E+02 -0.40383E+05
 0.10770000E+02 -0.42429E+05
 0.10820000E+02 -0.43045E+05
 0.10870001E+02 -0.44902E+05
 0.10920000E+02 -0.50029E+05
 0.10969999E+02 -0.54525E+05
 0.11020000E+02 -0.57916E+05
 0.11070000E+02 -0.61813E+05
 0.11120001E+02 -0.66041E+05
 0.11170000E+02 -0.71068E+05
 0.11219999E+02 -0.74549E+05
 0.11270000E+02 -0.75639E+05
 0.11320000E+02 -0.75543E+05
 0.11370001E+02 -0.72663E+05
 0.11420000E+02 -0.66263E+05
 0.11469999E+02 -0.56078E+05
 0.11520000E+02 -0.42238E+05
 0.11570000E+02 -0.27183E+05
 0.11620001E+02 -0.13138E+05
 0.11670000E+02 -0.27140E+04
 0.11719999E+02  0.20980E+04
 0.11770000E+02  0.26930E+04
 0.11820000E+02  0.63000E+03
 0.11870001E+02 -0.38210E+04
 0.11920000E+02 -0.11264E+05
 0.11969999E+02 -0.20628E+05
 0.12020000E+02 -0.28766E+05
 0.12070000E+02 -0.38202E+05
 0.12120001E+02 -0.51256E+05
 0.12170000E+02 -0.65222E+05
 0.12219999E+02 -0.77251E+05
 0.12270000E+02 -0.86302E+05
 0.12320000E+02 -0.93227E+05
 0.12370001E+02 -0.96146E+05
 0.12420000E+02 -0.94312E+05
 0.12469999E+02 -0.89566E+05
 0.12520000E+02 -0.83266E+05
 0.12570000E+02 -0.75563E+05
 0.12620001E+02 -0.67818E+05
 0.12670000E+02 -0.64039E+05
 0.12719999E+02 -0.63357E+05
 0.12770000E+02 -0.63060E+05
 0.12820000E+02 -0.60921E+05
 0.12870001E+02 -0.54423E+05
 0.12920000E+02 -0.42597E+05
 0.12969999E+02 -0.24370E+05
 0.13020000E+02 -0.37530E+04
 0.13070002E+02  0.15635E+05
 0.13120001E+02  0.33897E+05
 0.13170000E+02  0.50734E+05
 0.13220001E+02  0.66928E+05
 0.13270000E+02  0.79571E+05
 0.13320002E+02  0.87786E+05
 0.13370001E+02  0.92756E+05
 0.13420000E+02  0.95959E+05
 0.13470001E+02  0.10019E+06
 0.13520000E+02  0.10182E+06
 0.13570002E+02  0.10169E+06
 0.13620001E+02  0.10260E+06
 0.13670000E+02  0.10310E+06
 0.13720001E+02  0.10570E+06
 0.13770000E+02  0.11026E+06
 0.13820002E+02  0.11479E+06
 0.13870001E+02  0.11942E+06
 0.13920000E+02  0.12349E+06
 0.13970001E+02  0.12531E+06
 0.14020000E+02  0.12247E+06
 0.14070002E+02  0.11397E+06
 0.14120001E+02  0.10051E+06
 0.14170000E+02  0.85314E+05
 0.14220001E+02  0.71169E+05
 0.14270000E+02  0.58071E+05
 0.14320002E+02  0.43511E+05
 0.14370001E+02  0.25823E+05
 0.14420000E+02  0.87580E+04
 0.14470001E+02 -0.65230E+04
 0.14520000E+02 -0.19982E+05
 0.14570002E+02 -0.30157E+05
 0.14620001E+02 -0.37600E+05
 0.14670000E+02 -0.44449E+05
 0.14720001E+02 -0.52488E+05
 0.14770000E+02 -0.61043E+05
 0.14820002E+02 -0.71357E+05
 0.14870001E+02 -0.83806E+05
 0.14920000E+02 -0.98966E+05
 0.14970001E+02 -0.11643E+06
 0.15020000E+02 -0.13455E+06
 0.15070002E+02 -0.15367E+06
 0.15120001E+02 -0.17166E+06
 0.15170000E+02 -0.18856E+06
 0.15220001E+02 -0.20192E+06
 0.15270000E+02 -0.20820E+06
 0.15320002E+02 -0.21114E+06
 0.15370001E+02 -0.20938E+06
 0.15420000E+02 -0.19727E+06
 0.15470001E+02 -0.17644E+06
 0.15520000E+02 -0.15120E+06
 0.15570002E+02 -0.12438E+06
 0.15620001E+02 -0.95645E+05
 0.15670000E+02 -0.63122E+05
 0.15720001E+02 -0.29363E+05
 0.15770000E+02  0.32670E+04
 0.15820002E+02  0.34337E+05
 0.15870001E+02  0.63311E+05
 0.15920000E+02  0.88332E+05
 0.15970001E+02  0.10692E+06
 0.16020000E+02  0.11946E+06
 0.16070002E+02  0.12820E+06
 0.16120001E+02  0.13668E+06
 0.16170000E+02  0.14291E+06
 0.16220001E+02  0.14403E+06
 0.16270000E+02  0.14282E+06
 0.16320002E+02  0.14047E+06
 0.16370001E+02  0.13835E+06
 0.16420000E+02  0.13696E+06
 0.16470001E+02  0.13706E+06
 0.16520000E+02  0.14069E+06
 0.16570002E+02  0.14711E+06
 0.16620001E+02  0.15402E+06
 0.16670000E+02  0.16001E+06
 0.16720001E+02  0.16594E+06
 0.16770000E+02  0.17200E+06
 0.16820002E+02  0.17648E+06
 0.16870001E+02  0.17774E+06
 0.16920000E+02  0.17603E+06
 0.16970001E+02  0.16986E+06
 0.17020000E+02  0.15684E+06
 0.17070002E+02  0.13642E+06
 0.17120001E+02  0.10854E+06
 0.17170000E+02  0.75228E+05
 0.17220001E+02  0.38787E+05
 0.17270000E+02  0.23300E+04
 0.17320002E+02 -0.33412E+05
 0.17370001E+02 -0.68423E+05
 0.17420000E+02 -0.10135E+06
 0.17470001E+02 -0.13028E+06
 0.17520000E+02 -0.15061E+06
 0.17570002E+02 -0.16299E+06
 0.17620001E+02 -0.16903E+06
 0.17670000E+02 -0.16780E+06
 0.17720001E+02 -0.15997E+06
 0.17770000E+02 -0.14811E+06
 0.17820002E+02 -0.13580E+06
 0.17870001E+02 -0.12612E+06
 0.17920000E+02 -0.12014E+06
 0.17970001E+02 -0.11373E+06
 0.18020000E+02 -0.10585E+06
 0.18070002E+02 -0.96424E+05
 0.18120001E+02 -0.84626E+05
 0.18170000E+02 -0.73723E+05
 0.18220001E+02 -0.63591E+05
 0.18270000E+02 -0.49892E+05
 0.18320002E+02 -0.31583E+05
 0.18370001E+02 -0.11789E+05
 0.18420000E+02  0.88190E+04
 0.18470001E+02  0.29860E+05
 0.18520000E+02  0.49958E+05
 0.18570002E+02  0.67547E+05
 0.18620001E+02  0.80566E+05
 0.18670000E+02  0.89861E+05
 0.18720001E+02  0.94687E+05
 0.18770000E+02  0.93254E+05
 0.18820002E+02  0.86540E+05
 0.18870001E+02  0.74638E+05
 0.18920000E+02  0.59814E+05
 0.18970001E+02  0.43221E+05
 0.19020000E+02  0.22407E+05
 0.19070002E+02  0.78600E+03
 0.19120001E+02 -0.17632E+05
 0.19170000E+02 -0.32167E+05
 0.19220001E+02 -0.42678E+05
 0.19270000E+02 -0.49713E+05
 0.19320002E+02 -0.53064E+05
 0.19370001E+02 -0.52382E+05
 0.19420000E+02 -0.46627E+05
 0.19470001E+02 -0.36361E+05
 0.19520000E+02 -0.26527E+05
 0.19570002E+02 -0.20843E+05
 0.19620001E+02 -0.17163E+05
 0.19670000E+02 -0.16282E+05
 0.19720001E+02 -0.18808E+05
 0.19770000E+02 -0.20226E+05
 0.19820002E+02 -0.20138E+05
 0.19870001E+02 -0.20815E+05
 0.19920000E+02 -0.23076E+05
 0.19970001E+02 -0.26193E+05
 0.20020000E+02 -0.28912E+05
 0.20070002E+02 -0.31007E+05
 0.20120001E+02 -0.33238E+05
 0.20170000E+02 -0.32904E+05
 0.20220001E+02 -0.27457E+05
 0.20270000E+02 -0.17424E+05
 0.20320002E+02 -0.38420E+04
 0.20370001E+02  0.10400E+05
 0.20420000E+02  0.24704E+05
 0.20470001E+02  0.37941E+05
 0.20520000E+02  0.49733E+05
 0.20570002E+02  0.60692E+05
 0.20620001E+02  0.70422E+05
 0.20670000E+02  0.80043E+05
 0.20720001E+02  0.86696E+05
 0.20770000E+02  0.88014E+05
 0.20820002E+02  0.84321E+05
 0.20870001E+02  0.75311E+05
 0.20920000E+02  0.61648E+05
 0.20970001E+02  0.45471E+05
 0.21020000E+02  0.28963E+05
 0.21070002E+02  0.13527E+05
 0.21120001E+02 -0.72000E+03
 0.21170000E+02 -0.14184E+05
 0.21220001E+02 -0.23526E+05
 0.21270000E+02 -0.29259E+05
 0.21320002E+02 -0.33000E+05
 0.21370001E+02 -0.32379E+05
 0.21420000E+02 -0.29747E+05
 0.21470001E+02 -0.28372E+05
 0.21520000E+02 -0.29031E+05
 0.21570002E+02 -0.31912E+05
 0.21620001E+02 -0.34337E+05
 0.21670000E+02 -0.34210E+05
 0.21720001E+02 -0.35014E+05
 0.21770000E+02 -0.39509E+05
 0.21820002E+02 -0.48224E+05
 0.21870001E+02 -0.64916E+05
 0.21920000E+02 -0.96984E+05
 0.21970001E+02 -0.16509E+06
 0.22020000E+02 -0.31268E+06
 0.22070002E+02 -0.56348E+06
 0.22120001E+02 -0.85048E+06
 0.22170000E+02 -0.10028E+07
 0.22220001E+02 -0.86830E+06
 0.22270000E+02 -0.42926E+06
 0.22320002E+02  0.14376E+06
 0.22370001E+02  0.52997E+06
 0.22420000E+02  0.56381E+06
 0.22470001E+02  0.20323E+06
 0.22520000E+02 -0.55288E+06
 0.22570002E+02 -0.14093E+07
 0.22620001E+02 -0.20790E+07
 0.22670000E+02 -0.26948E+07
 0.22720001E+02 -0.33687E+07
 0.22770000E+02 -0.39355E+07
 0.22820002E+02 -0.41465E+07
 0.22870001E+02 -0.33951E+07
 0.22920000E+02 -0.21773E+07
 0.22970001E+02 -0.14807E+07
 0.23020000E+02 -0.37313E+06
 0.23070002E+02  0.12064E+07
 0.23120001E+02  0.22156E+07
 0.23170000E+02  0.28644E+07
 0.23220001E+02  0.30347E+07
 0.23270000E+02  0.25217E+07
 0.23320002E+02  0.24508E+07
 0.23370001E+02  0.26611E+07
 0.23420000E+02  0.21402E+07
 0.23470001E+02  0.21038E+07
 0.23520000E+02  0.22957E+07
 0.23570002E+02  0.14814E+07
 0.23620001E+02  0.87038E+06
 0.23670000E+02  0.90844E+06
 0.23720001E+02  0.14188E+07
 0.23770000E+02  0.21404E+07
 0.23820002E+02  0.19342E+07
 0.23870001E+02  0.13398E+07
 0.23920000E+02  0.13779E+07
 0.23970001E+02  0.14958E+07
 0.24020000E+02  0.70151E+06
 0.24070002E+02 -0.37481E+06
 0.24120001E+02  0.59412E+05
 0.24170000E+02  0.11835E+07
 0.24220001E+02  0.84887E+06
 0.24270000E+02 -0.81196E+06
 0.24320002E+02 -0.19722E+07
 0.24370001E+02 -0.23434E+07
 0.24420000E+02 -0.27895E+07
 0.24470001E+02 -0.29238E+07
 0.24520000E+02 -0.21269E+07
 0.24570002E+02 -0.51999E+06
 0.24620001E+02  0.40382E+06
 0.24670000E+02 -0.35999E+05
 0.24720001E+02 -0.91800E+06
 0.24770000E+02 -0.21605E+07
 0.24820002E+02 -0.25277E+07
 0.24870001E+02 -0.34794E+06
 0.24920000E+02  0.17577E+07
 0.24970001E+02  0.14302E+07
 0.25020000E+02  0.32819E+06
 0.25070002E+02 -0.37358E+06
 0.25120001E+02  0.43286E+06
 0.25170000E+02  0.15347E+07
 0.25220001E+02 -0.14068E+06
 0.25270000E+02 -0.25366E+07
 0.25320002E+02 -0.27809E+07
 0.25370001E+02 -0.13537E+07
 0.25420000E+02  0.29823E+06
 0.25470001E+02  0.65984E+06
 0.25520000E+02 -0.36421E+06
 0.25570002E+02 -0.65138E+06
 0.25620001E+02  0.96752E+06
 0.25670000E+02  0.15709E+07
 0.25720001E+02  0.34362E+06
 0.25770000E+02  0.23436E+06
 0.25820002E+02  0.52606E+06
 0.25870001E+02  0.35064E+06
 0.25920000E+02  0.89984E+06
 0.25970001E+02  0.14910E+07
 0.26020000E+02  0.11782E+07
 0.26070002E+02  0.35830E+06
 0.26120001E+02  0.25052E+05
 0.26170000E+02  0.18681E+06
 0.26220001E+02  0.35254E+06
 0.26270000E+02 -0.54561E+06
 0.26320002E+02 -0.15814E+07
 0.26370001E+02 -0.19009E+06
 0.26420000E+02  0.16465E+07
 0.26470001E+02  0.17113E+07
 0.26520000E+02  0.70120E+06
 0.26570002E+02 -0.23518E+06
 0.26620001E+02 -0.10595E+06
 0.26670000E+02  0.70965E+06
 0.26720001E+02  0.96128E+06
 0.26770000E+02  0.48425E+06
 0.26820002E+02  0.39534E+06
 0.26870001E+02  0.51180E+06
 0.26920000E+02  0.64562E+06
 0.26970001E+02  0.82140E+06
 0.27020000E+02  0.58566E+06
 0.27070002E+02  0.83106E+06
 0.27120001E+02  0.17921E+07
 0.27170000E+02  0.22228E+07
 0.27220001E+02  0.19548E+07
 0.27270000E+02  0.11342E+07
 0.27320002E+02  0.21160E+06
 0.27370001E+02  0.92507E+05
 0.27420000E+02 -0.53823E+06
 0.27470001E+02 -0.19853E+07
 0.27520000E+02 -0.26638E+07
 0.27570002E+02 -0.23594E+07
 0.27620001E+02 -0.23921E+07
 0.27670000E+02 -0.32056E+07
 0.27720001E+02 -0.33339E+07
 0.27770000E+02 -0.25920E+07
 0.27820002E+02 -0.25150E+07
 0.27870001E+02 -0.36951E+07
 0.27920000E+02 -0.42659E+07
 0.27970001E+02 -0.34250E+07
 0.28020000E+02 -0.28329E+07
 0.28070002E+02 -0.26489E+07
 0.28120001E+02 -0.26305E+07
 0.28170000E+02 -0.25878E+07
 0.28220001E+02 -0.15912E+07
 0.28270000E+02 -0.13901E+06
 0.28320002E+02  0.15000E+07
 0.28370001E+02  0.28971E+07
 0.28420000E+02  0.31908E+07
 0.28470001E+02  0.33261E+07
 0.28520000E+02  0.39860E+07
 0.28570002E+02  0.48900E+07
 0.28620001E+02  0.56235E+07
 0.28670000E+02  0.58096E+07
 0.28720001E+02  0.50073E+07
 0.28770000E+02  0.31068E+07
 0.28820002E+02  0.10893E+07
 0.28870001E+02 -0.69250E+04
 0.28920000E+02  0.45691E+06
 0.28970001E+02  0.11496E+07
 0.29020000E+02 -0.89803E+05
 0.29070000E+02 -0.15689E+07
 0.29120003E+02 -0.14741E+07
 0.29170002E+02 -0.15069E+07
 0.29220001E+02 -0.24632E+07
 0.29270000E+02 -0.31893E+07
 0.29320000E+02 -0.35057E+07
 0.29370003E+02 -0.36328E+07
 0.29420002E+02 -0.29014E+07
 0.29470001E+02 -0.16959E+07
 0.29520000E+02 -0.88423E+06
 0.29570000E+02 -0.67045E+05
 0.29620003E+02  0.89420E+06
 0.29670002E+02  0.20726E+07
 0.29720001E+02  0.37789E+07
 0.29770000E+02  0.44353E+07
 0.29820000E+02  0.35770E+07
 0.29870003E+02  0.35989E+07
 0.29920002E+02  0.51511E+07
 0.29970001E+02  0.64132E+07
 0.30020000E+02  0.60687E+07
 0.30070000E+02  0.46288E+07
 0.30120003E+02  0.34164E+07
 0.30170002E+02  0.31099E+07
 0.30220001E+02  0.32193E+07
 0.30270000E+02  0.30480E+07
 0.30320000E+02  0.29657E+07
 0.30370003E+02  0.29611E+07
 0.30420002E+02  0.24223E+07
 0.30470001E+02  0.20330E+07
 0.30520000E+02  0.19071E+07
 0.30570000E+02  0.79892E+06
 0.30620003E+02 -0.10224E+07
 0.30670002E+02 -0.18849E+07
 0.30720001E+02 -0.17367E+07
 0.30770000E+02 -0.22117E+07
 0.30820000E+02 -0.34645E+07
 0.30870003E+02 -0.39320E+07
 0.30920002E+02 -0.31237E+07
 0.30970001E+02 -0.17857E+07
 0.31020000E+02 -0.57096E+06
 0.31070000E+02 -0.16626E+06
 0.31120003E+02 -0.10704E+06
 0.31170002E+02  0.33448E+06
 0.31220001E+02  0.67738E+06
 0.31270000E+02  0.11202E+07
 0.31320000E+02  0.12922E+07
 0.31370003E+02  0.44722E+06
 0.31420002E+02  0.16935E+06
 0.31470001E+02  0.68212E+06
 0.31520000E+02  0.44880E+06
 0.31570000E+02  0.26552E+06
 0.31620003E+02  0.35816E+06
 0.31670002E+02  0.93457E+05
 0.31720001E+02  0.68962E+05
 0.31770000E+02 -0.25604E+05
 0.31820000E+02 -0.14413E+06
 0.31870003E+02  0.68067E+06
 0.31920002E+02  0.13637E+07
 0.31970001E+02  0.89931E+06
 0.32020000E+02  0.59714E+06
 0.32070000E+02  0.43503E+06
 0.32120003E+02  0.31315E+06
 0.32170002E+02  0.81008E+06
 0.32220001E+02  0.81753E+06
 0.32270000E+02  0.85493E+06
 0.32320000E+02  0.12513E+07
 0.32370003E+02  0.87071E+06
 0.32420002E+02  0.65266E+06
 0.32470001E+02  0.11106E+07
 0.32520000E+02  0.16147E+07
 0.32570000E+02  0.19276E+07
 0.32620003E+02  0.18077E+07
 0.32670002E+02  0.13991E+07
 0.32720001E+02  0.10814E+07
 0.32770000E+02  0.78651E+06
 0.32820000E+02 -0.85155E+05
 0.32870003E+02 -0.10405E+07
 0.32920002E+02 -0.14882E+07
 0.32970001E+02 -0.24491E+07
 0.33020000E+02 -0.32733E+07
 0.33070000E+02 -0.31132E+07
 0.33120003E+02 -0.32248E+07
 0.33170002E+02 -0.30649E+07
 0.33220001E+02 -0.21444E+07
 0.33270000E+02 -0.12699E+07
 0.33320000E+02 -0.44098E+06
 0.33370003E+02 -0.55303E+06
 0.33420002E+02 -0.12610E+07
 0.33470001E+02 -0.10949E+07
 0.33520000E+02 -0.77157E+06
 0.33570000E+02 -0.10352E+07
 0.33620003E+02 -0.15915E+07
 0.33670002E+02 -0.17929E+07
 0.33720001E+02 -0.13230E+07
 0.33770000E+02 -0.11030E+07
 0.33820000E+02 -0.15634E+07
 0.33870003E+02 -0.20381E+07
 0.33920002E+02 -0.20878E+07
 0.33970001E+02 -0.17107E+07
 0.34020000E+02 -0.11984E+07
 0.34070000E+02 -0.11278E+07
 0.34120003E+02 -0.17687E+07
 0.34170002E+02 -0.25267E+07
 0.34220001E+02 -0.30184E+07
 0.34270000E+02 -0.32457E+07
 0.34320000E+02 -0.33889E+07
 0.34370003E+02 -0.40256E+07
 0.34420002E+02 -0.46665E+07
 0.34470001E+02 -0.48212E+07
 0.34520000E+02 -0.46187E+07
 0.34570000E+02 -0.35990E+07
 0.34620003E+02 -0.22186E+07
 0.34670002E+02 -0.15088E+07
 0.34720001E+02 -0.13251E+07
 0.34770000E+02 -0.11069E+07
 0.34820000E+02 -0.72786E+06
 0.34870003E+02 -0.19419E+06
 0.34920002E+02  0.24667E+06
 0.34970001E+02  0.33350E+06
 0.35020000E+02  0.28066E+06
 0.35070000E+02  0.69476E+06
 0.35120003E+02  0.14172E+07
 0.35170002E+02  0.16370E+07
 0.35220001E+02  0.16580E+07
 0.35270000E+02  0.15466E+07
 0.35320000E+02  0.15414E+07
 0.35370003E+02  0.21541E+07
 0.35420002E+02  0.24193E+07
 0.35470001E+02  0.20083E+07
 0.35520000E+02  0.14816E+07
 0.35570000E+02  0.10169E+07
 0.35620003E+02  0.30498E+06
 0.35670002E+02 -0.58688E+06
 0.35720001E+02 -0.12273E+07
 0.35770000E+02 -0.17299E+07
 0.35820000E+02 -0.15699E+07
 0.35870003E+02 -0.59185E+06
 0.35920002E+02  0.26408E+06
 0.35970001E+02  0.62242E+06
 0.36020000E+02  0.66276E+06
 0.36070000E+02  0.54016E+06
 0.36120003E+02  0.30264E+06
 0.36170002E+02  0.47966E+06
 0.36220001E+02  0.13535E+07
 0.36270000E+02  0.19153E+07
 0.36320000E+02  0.13658E+07
 0.36370003E+02  0.32149E+06
 0.36420002E+02 -0.21519E+06
 0.36470001E+02 -0.53570E+06
 0.36520000E+02 -0.12660E+07
 0.36570000E+02 -0.13722E+07
 0.36620003E+02 -0.15338E+06
 0.36670002E+02  0.11883E+07
 0.36720001E+02  0.21131E+07
 0.36770000E+02  0.27774E+07
 0.36820000E+02  0.26716E+07
 0.36870003E+02  0.20595E+07
 0.36920002E+02  0.16104E+07
 0.36970001E+02  0.11468E+07
 0.37020000E+02  0.71985E+05
 0.37070000E+02 -0.15304E+07
 0.37120003E+02 -0.23345E+07
 0.37170002E+02 -0.19718E+07
 0.37220001E+02 -0.13094E+07
 0.37270000E+02 -0.74486E+06
 0.37320000E+02 -0.40028E+06
 0.37370003E+02  0.15055E+05
 0.37420002E+02 -0.81190E+04
 0.37470001E+02 -0.74361E+06
 0.37520000E+02 -0.10664E+07
 0.37570000E+02 -0.13059E+07
 0.37620003E+02 -0.20699E+07
 0.37670002E+02 -0.27469E+07
 0.37720001E+02 -0.32118E+07
 0.37770000E+02 -0.34968E+07
 0.37820000E+02 -0.31782E+07
 0.37870003E+02 -0.23401E+07
 0.37920002E+02 -0.12220E+07
 0.37970001E+02 -0.12664E+06
 0.38020000E+02  0.20940E+06
 0.38070000E+02  0.24984E+05
 0.38120003E+02 -0.22020E+06
 0.38170002E+02 -0.87898E+06
 0.38220001E+02 -0.15019E+07
 0.38270000E+02 -0.15083E+07
 0.38320000E+02 -0.12092E+07
 0.38370003E+02 -0.50391E+06
 0.38420002E+02  0.14229E+06
 0.38470001E+02  0.94233E+05
 0.38520000E+02  0.10099E+05
 0.38570000E+02  0.18914E+05
 0.38620003E+02 -0.22964E+06
 0.38670002E+02 -0.74224E+06
 0.38720001E+02 -0.13602E+07
 0.38770000E+02 -0.18856E+07
 0.38820000E+02 -0.20494E+07
 0.38870003E+02 -0.12032E+07
 0.38920002E+02  0.31868E+06
 0.38970001E+02  0.17307E+07
 0.39020000E+02  0.28915E+07
 0.39070000E+02  0.35875E+07
 0.39120003E+02  0.35589E+07
 0.39170002E+02  0.22564E+07
 0.39220001E+02  0.39541E+06
 0.39270000E+02 -0.37142E+06
 0.39320000E+02 -0.30294E+06
 0.39370003E+02 -0.49335E+06
 0.39420002E+02 -0.10124E+07
 0.39470001E+02 -0.12698E+07
 0.39520000E+02 -0.14934E+07
 0.39570000E+02 -0.15623E+07
 0.39620003E+02 -0.48697E+06
 0.39670002E+02  0.55120E+06
 0.39720001E+02  0.60277E+06
 0.39770000E+02  0.63502E+06
 0.39820000E+02  0.11528E+06
 0.39870003E+02 -0.13729E+07
 0.39920002E+02 -0.26992E+07
 0.39970001E+02 -0.30928E+07
 0.40020000E+02 -0.25954E+07
 0.40070000E+02 -0.21677E+07
 0.40120003E+02 -0.20462E+07
 0.40170002E+02 -0.16411E+07
 0.40220001E+02 -0.15049E+07
 0.40270000E+02 -0.18792E+07
 0.40320000E+02 -0.16135E+07
 0.40370003E+02  0.16366E+06
 0.40420002E+02  0.22559E+07
 0.40470001E+02  0.29795E+07
 0.40520000E+02  0.25301E+07
 0.40570000E+02  0.17954E+07
 0.40620003E+02  0.19589E+07
 0.40670002E+02  0.21752E+07
 0.40720001E+02  0.43196E+06
 0.40770000E+02 -0.18087E+07
 0.40820000E+02 -0.33478E+07
 0.40870003E+02 -0.48301E+07
 0.40920002E+02 -0.56460E+07
 0.40970001E+02 -0.46713E+07
 0.41020000E+02 -0.23781E+07
 0.41070000E+02 -0.70624E+06
 0.41120003E+02 -0.55165E+06
 0.41170002E+02 -0.16461E+07
 0.41220001E+02 -0.27885E+07
 0.41270000E+02 -0.22745E+07
 0.41320000E+02 -0.15441E+06
 0.41370003E+02  0.16415E+07
 0.41420002E+02  0.18332E+07
 0.41470001E+02  0.79891E+06
 0.41520000E+02 -0.85632E+06
 0.41570000E+02 -0.17656E+07
 0.41620003E+02 -0.30901E+06
 0.41670002E+02  0.31011E+07
 0.41720001E+02  0.61897E+07
 0.41770000E+02  0.75085E+07
 0.41820000E+02  0.80403E+07
 0.41870003E+02  0.88990E+07
 0.41920002E+02  0.96220E+07
 0.41970001E+02  0.93719E+07
 0.42020000E+02  0.82528E+07
 0.42070000E+02  0.61195E+07
 0.42120003E+02  0.21209E+07
 0.42170002E+02 -0.29020E+07
 0.42220001E+02 -0.62117E+07
 0.42270000E+02 -0.61780E+07
 0.42320000E+02 -0.36148E+07
 0.42370003E+02  0.22597E+06
 0.42420002E+02  0.39757E+07
 0.42470001E+02  0.56764E+07
 0.42520000E+02  0.50894E+07
 0.42570000E+02  0.38808E+07
 0.42620003E+02  0.29377E+07
 0.42670002E+02  0.17519E+07
 0.42720001E+02  0.12700E+06
 0.42770000E+02 -0.89604E+06
 0.42820000E+02 -0.10039E+07
 0.42870003E+02 -0.49289E+06
 0.42920002E+02  0.10388E+07
 0.42970001E+02  0.34101E+07
 0.43020000E+02  0.57723E+07
 0.43070000E+02  0.67937E+07
 0.43120003E+02  0.57779E+07
 0.43170002E+02  0.31525E+07
 0.43220001E+02  0.31382E+06
 0.43270000E+02 -0.12091E+07
 0.43320000E+02 -0.16860E+07
 0.43370003E+02 -0.12330E+07
 0.43420002E+02 -0.10956E+06
 0.43470001E+02  0.52094E+06
 0.43520000E+02  0.91454E+06
 0.43570000E+02  0.11196E+07
 0.43620003E+02  0.50828E+06
 0.43670002E+02 -0.57416E+06
 0.43720001E+02 -0.17853E+07
 0.43770000E+02 -0.24522E+07
 0.43820000E+02 -0.21508E+07
 0.43870003E+02 -0.16942E+07
 0.43920002E+02 -0.15832E+07
 0.43970001E+02 -0.16998E+07
 0.44020000E+02 -0.14627E+07
 0.44070000E+02 -0.11760E+07
 0.44120003E+02 -0.21767E+07
 0.44170002E+02 -0.41237E+07
 0.44220001E+02 -0.54318E+07
 0.44270000E+02 -0.55411E+07
 0.44320000E+02 -0.46408E+07
 0.44370003E+02 -0.30572E+07
 0.44420002E+02 -0.10289E+07
 0.44470001E+02  0.14120E+07
 0.44520000E+02  0.36138E+07
 0.44570000E+02  0.51535E+07
 0.44620003E+02  0.61323E+07
 0.44670002E+02  0.68758E+07
 0.44720001E+02  0.77221E+07
 0.44770000E+02  0.79058E+07
 0.44820000E+02  0.66771E+07
 0.44870003E+02  0.44591E+07
 0.44920002E+02  0.20885E+07
 0.44970001E+02  0.32061E+06
 0.45020000E+02 -0.41739E+06
 0.45070000E+02 -0.61483E+06
 0.45120003E+02 -0.46344E+06
 0.45170002E+02 -0.12092E+06
 0.45220001E+02 -0.13345E+06
 0.45270000E+02  0.42456E+06
 0.45320000E+02  0.16524E+07
 0.45370003E+02  0.22431E+07
 0.45420002E+02  0.20268E+07
 0.45470001E+02  0.15979E+07
 0.45520000E+02  0.14585E+07
 0.45570000E+02  0.16618E+07
 0.45620003E+02  0.22349E+07
 0.45670002E+02  0.30358E+07
 0.45720001E+02  0.34632E+07
 0.45770000E+02  0.32350E+07
 0.45820000E+02  0.26792E+07
 0.45870003E+02  0.21360E+07
 0.45920002E+02  0.11719E+07
 0.45970001E+02 -0.51767E+06
 0.46020000E+02 -0.24293E+07
 0.46070000E+02 -0.38105E+07
 0.46120003E+02 -0.39110E+07
 0.46170002E+02 -0.25203E+07
 0.46220001E+02 -0.47352E+06
 0.46270000E+02  0.13316E+07
 0.46320000E+02  0.31064E+07
 0.46370003E+02  0.42971E+07
 0.46420002E+02  0.36617E+07
 0.46470001E+02  0.18852E+07
 0.46520000E+02  0.31910E+06
 0.46570000E+02 -0.72004E+06
 0.46620003E+02 -0.97696E+06
 0.46670002E+02 -0.51914E+06
 0.46720001E+02 -0.40922E+06
 0.46770000E+02 -0.82642E+06
 0.46820000E+02 -0.13718E+07
 0.46870003E+02 -0.21272E+07
 0.46920002E+02 -0.31089E+07
 0.46970001E+02 -0.43328E+07
 0.47020000E+02 -0.50742E+07
 0.47070000E+02 -0.46039E+07
 0.47120003E+02 -0.31399E+07
 0.47170002E+02 -0.15112E+07
 0.47220001E+02 -0.20468E+06
 0.47270000E+02  0.13180E+07
 0.47320000E+02  0.31158E+07
 0.47370003E+02  0.47062E+07
 0.47420002E+02  0.56245E+07
 0.47470001E+02  0.53669E+07
 0.47520000E+02  0.43295E+07
 0.47570000E+02  0.30397E+07
 0.47620003E+02  0.13272E+07
 0.47670002E+02 -0.72603E+06
 0.47720001E+02 -0.23846E+07
 0.47770000E+02 -0.29463E+07
 0.47820000E+02 -0.24428E+07
 0.47870003E+02 -0.15621E+07
 0.47920002E+02 -0.11828E+07
 0.47970001E+02 -0.14359E+07
 0.48020000E+02 -0.19500E+07
 0.48070000E+02 -0.29854E+07
 0.48120003E+02 -0.43577E+07
 0.48170002E+02 -0.57635E+07
 0.48220001E+02 -0.76301E+07
 0.48270000E+02 -0.92262E+07
 0.48320000E+02 -0.98739E+07
 0.48370003E+02 -0.97386E+07
 0.48420002E+02 -0.85154E+07
 0.48470001E+02 -0.65278E+07
 0.48520000E+02 -0.41289E+07
 0.48570000E+02 -0.17031E+07
 0.48620003E+02  0.24070E+05
 0.48670002E+02  0.93961E+06
 0.48720001E+02  0.12516E+07
 0.48770000E+02  0.16309E+07
 0.48820000E+02  0.21606E+07
 0.48870003E+02  0.28721E+07
 0.48920002E+02  0.39117E+07
 0.48970001E+02  0.44247E+07
 0.49020000E+02  0.44019E+07
 0.49070000E+02  0.36955E+07
 0.49120003E+02  0.21945E+07
 0.49170002E+02  0.10787E+07
 0.49220001E+02  0.64916E+06
 0.49270000E+02  0.64983E+06
 0.49320000E+02  0.90950E+06
 0.49370003E+02  0.11988E+07
 0.49420002E+02  0.13604E+07
 0.49470001E+02  0.98882E+06
 0.49520000E+02 -0.24820E+06
 0.49570000E+02 -0.22123E+07
 0.49620003E+02 -0.44802E+07
 0.49670002E+02 -0.66806E+07
 0.49720001E+02 -0.79309E+07
 0.49770000E+02 -0.77076E+07
 0.49820000E+02 -0.70440E+07
 0.49870003E+02 -0.67689E+07
 0.49920002E+02 -0.69379E+07
 0.49970001E+02 -0.76072E+07
 0.50020000E+02 -0.83973E+07
 0.50070000E+02 -0.87468E+07
 0.50120003E+02 -0.80711E+07
 0.50170002E+02 -0.64041E+07
 0.50220001E+02 -0.46069E+07
 0.50270000E+02 -0.31103E+07
 0.50320000E+02 -0.18431E+07
 0.50370003E+02 -0.44073E+06
 0.50420002E+02  0.98476E+06
 0.50470001E+02  0.15915E+07
 0.50520000E+02  0.13580E+07
 0.50570000E+02  0.11316E+07
 0.50620003E+02  0.15119E+07
 0.50670002E+02  0.25824E+07
 0.50720001E+02  0.40187E+07
 0.50770000E+02  0.53782E+07
 0.50820000E+02  0.61342E+07
 0.50870003E+02  0.60826E+07
 0.50920002E+02  0.58912E+07
 0.50970001E+02  0.57559E+07
 0.51020000E+02  0.49841E+07
 0.51070000E+02  0.35738E+07
 0.51120003E+02  0.19478E+07
 0.51170002E+02  0.28640E+05
 0.51220001E+02 -0.21828E+07
 0.51270000E+02 -0.41299E+07
 0.51320000E+02 -0.50028E+07
 0.51370003E+02 -0.45937E+07
 0.51420002E+02 -0.34529E+07
 0.51470001E+02 -0.22571E+07
 0.51520000E+02 -0.15400E+07
 0.51570000E+02 -0.11870E+07
 0.51620003E+02 -0.98207E+06
 0.51670002E+02 -0.10427E+07
 0.51720001E+02 -0.11309E+07
 0.51770000E+02 -0.11031E+07
 0.51820000E+02 -0.10039E+07
 0.51870003E+02 -0.10378E+07
 0.51920002E+02 -0.16327E+07
 0.51970001E+02 -0.23226E+07
 0.52020000E+02 -0.20793E+07
 0.52070000E+02 -0.10420E+07
 0.52120003E+02 -0.23846E+06
 0.52170002E+02 -0.19698E+06
 0.52220001E+02 -0.78723E+06
 0.52270000E+02 -0.13494E+07
 0.52320000E+02 -0.13319E+07
 0.52370003E+02 -0.99736E+06
 0.52420002E+02 -0.47973E+06
 0.52470001E+02  0.40790E+06
 0.52520000E+02  0.15500E+07
 0.52570000E+02  0.26360E+07
 0.52620003E+02  0.33148E+07
 0.52670002E+02  0.36153E+07
 0.52720001E+02  0.37178E+07
 0.52770000E+02  0.37397E+07
 0.52820000E+02  0.36266E+07
 0.52870003E+02  0.33438E+07
 0.52920002E+02  0.32052E+07
 0.52970001E+02  0.32152E+07
 0.53020000E+02  0.34202E+07
 0.53070000E+02  0.40832E+07
 0.53120003E+02  0.51164E+07
 0.53170002E+02  0.60719E+07
 0.53220001E+02  0.65160E+07
 0.53270000E+02  0.64402E+07
 0.53320000E+02  0.58020E+07
 0.53370003E+02  0.45170E+07
 0.53420002E+02  0.28549E+07
 0.53470001E+02  0.83560E+06
 0.53520000E+02 -0.13417E+07
 0.53570000E+02 -0.27572E+07
 0.53620003E+02 -0.29376E+07
 0.53670002E+02 -0.23555E+07
 0.53720001E+02 -0.17043E+07
 0.53770000E+02 -0.15484E+07
 0.53820000E+02 -0.21710E+07
 0.53870003E+02 -0.31488E+07
 0.53920002E+02 -0.42498E+07
 0.53970001E+02 -0.55986E+07
 0.54020000E+02 -0.68252E+07
 0.54070000E+02 -0.75895E+07
 0.54120003E+02 -0.75747E+07
 0.54170002E+02 -0.66756E+07
 0.54220001E+02 -0.54192E+07
 0.54270000E+02 -0.41170E+07
 0.54320000E+02 -0.24286E+07
 0.54370003E+02 -0.11603E+05
 0.54420002E+02  0.29363E+07
 0.54470001E+02  0.59134E+07
 0.54520000E+02  0.83343E+07
 0.54570000E+02  0.96878E+07
 0.54620003E+02  0.97805E+07
 0.54670002E+02  0.84472E+07
 0.54720001E+02  0.58578E+07
 0.54770000E+02  0.29707E+07
 0.54820000E+02  0.90316E+06
 0.54870003E+02  0.23577E+05
 0.54920002E+02  0.39703E+05
 0.54970001E+02  0.79444E+06
 0.55020000E+02  0.18352E+07
 0.55070000E+02  0.25624E+07
 0.55120003E+02  0.27558E+07
 0.55170002E+02  0.27193E+07
 0.55220001E+02  0.33025E+07
 0.55270000E+02  0.42136E+07
 0.55320000E+02  0.42778E+07
 0.55370003E+02  0.30572E+07
 0.55420002E+02  0.78092E+06
 0.55470001E+02 -0.17086E+07
 0.55520000E+02 -0.35136E+07
 0.55570000E+02 -0.42881E+07
 0.55620003E+02 -0.40321E+07
 0.55670002E+02 -0.31895E+07
 0.55720001E+02 -0.22803E+07
 0.55770000E+02 -0.15080E+07
 0.55820000E+02 -0.95780E+06
 0.55870003E+02 -0.61706E+06
 0.55920002E+02 -0.75906E+06
 0.55970001E+02 -0.14608E+07
 0.56020000E+02 -0.23215E+07
 0.56070000E+02 -0.29843E+07
 0.56120003E+02 -0.31036E+07
 0.56170002E+02 -0.29416E+07
 0.56220001E+02 -0.29619E+07
 0.56270000E+02 -0.28902E+07
 0.56320000E+02 -0.22416E+07
 0.56370003E+02 -0.11108E+07
 0.56420002E+02  0.23736E+06
 0.56470001E+02  0.19985E+07
 0.56520000E+02  0.40184E+07
 0.56570000E+02  0.58351E+07
 0.56620003E+02  0.72053E+07
 0.56670002E+02  0.78092E+07
 0.56720001E+02  0.74515E+07
 0.56770000E+02  0.62152E+07
 0.56820000E+02  0.41780E+07
 0.56870003E+02  0.14426E+07
 0.56920002E+02 -0.15317E+07
 0.56970001E+02 -0.41115E+07
 0.57020000E+02 -0.57389E+07
 0.57070000E+02 -0.62692E+07
 0.57120003E+02 -0.60724E+07
 0.57170002E+02 -0.53787E+07
 0.57220001E+02 -0.43145E+07
 0.57270000E+02 -0.30542E+07
 0.57320000E+02 -0.15883E+07
 0.57370003E+02 -0.18883E+06
 0.57420002E+02  0.74161E+06
 0.57470001E+02  0.12809E+07
 0.57520000E+02  0.15954E+07
 0.57570000E+02  0.18403E+07
 0.57620003E+02  0.21012E+07
 0.57670002E+02  0.21925E+07
 0.57720001E+02  0.21461E+07
 0.57770000E+02  0.21449E+07
 0.57820000E+02  0.22356E+07
 0.57870003E+02  0.25574E+07
 0.57920002E+02  0.33308E+07
 0.57970001E+02  0.45952E+07
 0.58020000E+02  0.58332E+07
 0.58070000E+02  0.62782E+07
 0.58120003E+02  0.57816E+07
 0.58170002E+02  0.47557E+07
 0.58220001E+02  0.35639E+07
 0.58270000E+02  0.21978E+07
 0.58320000E+02  0.71501E+06
 0.58370003E+02 -0.51718E+06
 0.58420002E+02 -0.13684E+07
 0.58470001E+02 -0.17785E+07
 0.58520000E+02 -0.16882E+07
 0.58570000E+02 -0.12557E+07
 0.58620003E+02 -0.60002E+06
 0.58670002E+02  0.19379E+06
 0.58720001E+02  0.10014E+07
 0.58770000E+02  0.14603E+07
 0.58820000E+02  0.11029E+07
 0.58870003E+02 -0.12418E+06
 0.58920002E+02 -0.19274E+07
 0.58970001E+02 -0.37690E+07
 0.59020000E+02 -0.51202E+07
 0.59070000E+02 -0.57241E+07
 0.59120003E+02 -0.54973E+07
 0.59170002E+02 -0.45823E+07
 0.59220001E+02 -0.34298E+07
 0.59270000E+02 -0.26069E+07
 0.59320000E+02 -0.22497E+07
 0.59370003E+02 -0.21584E+07
 0.59420002E+02 -0.21603E+07
 0.59470001E+02 -0.20716E+07
 0.59520000E+02 -0.17044E+07
 0.59570000E+02 -0.78740E+06
 0.59620003E+02  0.66705E+06
 0.59670002E+02  0.21016E+07
 0.59720001E+02  0.30259E+07
 0.59770000E+02  0.32755E+07
 0.59820000E+02  0.29716E+07
 0.59870003E+02  0.24563E+07
 0.59920002E+02  0.18408E+07
 0.59970001E+02  0.12965E+07
 0.60020000E+02  0.10836E+07
 0.60070000E+02  0.11669E+07
 0.60120003E+02  0.14827E+07
 0.60170002E+02  0.18925E+07
 0.60220001E+02  0.23495E+07
 0.60270000E+02  0.27972E+07
 0.60320000E+02  0.28104E+07
 0.60370003E+02  0.23019E+07
 0.60420002E+02  0.17368E+07
 0.60470001E+02  0.12947E+07
 0.60520000E+02  0.83386E+06
 0.60570000E+02  0.33444E+06
 0.60620003E+02 -0.67653E+05
 0.60670002E+02 -0.19716E+06
 0.60720001E+02 -0.14227E+06
 0.60770000E+02 -0.12720E+06
 0.60820000E+02 -0.21106E+06
 0.60870003E+02 -0.53495E+06
 0.60920002E+02 -0.14632E+07
 0.60970001E+02 -0.30848E+07
 0.61020000E+02 -0.50011E+07
 0.61070004E+02 -0.66636E+07
 0.61119999E+02 -0.76795E+07
 0.61170002E+02 -0.79635E+07
 0.61220005E+02 -0.74903E+07
 0.61270000E+02 -0.62565E+07
 0.61320004E+02 -0.44433E+07
 0.61369999E+02 -0.23454E+07
 0.61420002E+02 -0.24736E+06
 0.61470005E+02  0.16100E+07
 0.61520000E+02  0.28405E+07
 0.61570004E+02  0.31476E+07
 0.61619999E+02  0.27808E+07
 0.61670002E+02  0.21865E+07
 0.61720005E+02  0.15413E+07
 0.61770000E+02  0.92197E+06
 0.61820004E+02  0.54060E+06
 0.61869999E+02  0.52108E+06
 0.61920002E+02  0.77094E+06
 0.61970005E+02  0.11294E+07
 0.62020000E+02  0.13375E+07
 0.62070004E+02  0.12962E+07
 0.62119999E+02  0.10054E+07
 0.62170002E+02  0.48994E+06
 0.62220005E+02 -0.72915E+05
 0.62270000E+02 -0.73658E+06
 0.62320004E+02 -0.14420E+07
 0.62369999E+02 -0.18387E+07
 0.62420002E+02 -0.19580E+07
 0.62470005E+02 -0.21320E+07
 0.62520000E+02 -0.24297E+07
 0.62570004E+02 -0.26290E+07
 0.62619999E+02 -0.25154E+07
 0.62670002E+02 -0.21840E+07
 0.62720005E+02 -0.18474E+07
 0.62770000E+02 -0.14712E+07
 0.62820004E+02 -0.11190E+07
 0.62869999E+02 -0.89500E+06
 0.62920002E+02 -0.59613E+06
 0.62970005E+02 -0.83414E+05
 0.63020000E+02  0.47323E+06
 0.63070004E+02  0.95534E+06
 0.63119999E+02  0.14959E+07
 0.63170002E+02  0.21308E+07
 0.63220005E+02  0.26744E+07
 0.63270000E+02  0.27735E+07
 0.63320004E+02  0.22050E+07
 0.63369999E+02  0.13286E+07
 0.63420002E+02  0.66247E+06
 0.63470005E+02  0.38342E+06
 0.63520000E+02  0.43906E+06
 0.63570004E+02  0.83020E+06
 0.63619999E+02  0.15543E+07
 0.63670002E+02  0.23210E+07
 0.63720005E+02  0.29632E+07
 0.63770000E+02  0.36097E+07
 0.63820004E+02  0.42083E+07
 0.63869999E+02  0.45511E+07
 0.63920002E+02  0.44996E+07
 0.63970005E+02  0.40863E+07
 0.64019997E+02  0.33653E+07
 0.64070000E+02  0.23706E+07
 0.64119995E+02  0.12994E+07
 0.64169998E+02  0.28236E+06
 0.64220001E+02 -0.67826E+06
 0.64269997E+02 -0.16421E+07
 0.64320000E+02 -0.26103E+07
 0.64369995E+02 -0.34171E+07
 0.64419998E+02 -0.39872E+07
 0.64470001E+02 -0.43275E+07
 0.64519997E+02 -0.44620E+07
 0.64570000E+02 -0.44645E+07
 0.64619995E+02 -0.43708E+07
 0.64669998E+02 -0.42487E+07
 0.64720001E+02 -0.41065E+07
 0.64769997E+02 -0.38043E+07
 0.64820000E+02 -0.33438E+07
 0.64869995E+02 -0.28400E+07
 0.64919998E+02 -0.23092E+07
 0.64970001E+02 -0.16438E+07
 0.65019997E+02 -0.81322E+06
 0.65070000E+02  0.12405E+05
 0.65119995E+02  0.78458E+06
 0.65169998E+02  0.13951E+07
 0.65220001E+02  0.15369E+07
 0.65269997E+02  0.13030E+07
 0.65320000E+02  0.11296E+07
 0.65369995E+02  0.12100E+07
 0.65419998E+02  0.14915E+07
 0.65470001E+02  0.17381E+07
 0.65519997E+02  0.15731E+07
 0.65570000E+02  0.90957E+06
 0.65619995E+02  0.14940E+06
 0.65669998E+02 -0.26611E+06
 0.65720001E+02 -0.36266E+06
 0.65769997E+02 -0.37696E+06
 0.65820000E+02 -0.34644E+06
 0.65869995E+02 -0.15013E+06
 0.65919998E+02  0.27880E+06
 0.65970001E+02  0.99484E+06
 0.66019997E+02  0.21089E+07
 0.66070000E+02  0.33830E+07
 0.66119995E+02  0.43669E+07
 0.66169998E+02  0.48793E+07
 0.66220001E+02  0.48445E+07
 0.66269997E+02  0.42522E+07
 0.66320000E+02  0.33132E+07
 0.66369995E+02  0.22968E+07
 0.66419998E+02  0.14174E+07
 0.66470001E+02  0.72563E+06
 0.66519997E+02  0.15158E+06
 0.66570000E+02 -0.33852E+06
 0.66619995E+02 -0.92327E+06
 0.66669998E+02 -0.17491E+07
 0.66720001E+02 -0.26677E+07
 0.66769997E+02 -0.34291E+07
 0.66820000E+02 -0.38576E+07
 0.66869995E+02 -0.38593E+07
 0.66919998E+02 -0.33697E+07
 0.66970001E+02 -0.24423E+07
 0.67019997E+02 -0.12733E+07
 0.67070000E+02 -0.21149E+06
 0.67119995E+02  0.43438E+06
 0.67169998E+02  0.77737E+06
 0.67220001E+02  0.10085E+07
 0.67269997E+02  0.95976E+06
 0.67320000E+02  0.47476E+06
 0.67369995E+02 -0.33546E+06
 0.67419998E+02 -0.12736E+07
 0.67470001E+02 -0.19875E+07
 0.67519997E+02 -0.23455E+07
 0.67570000E+02 -0.24827E+07
 0.67619995E+02 -0.23152E+07
 0.67669998E+02 -0.19798E+07
 0.67720001E+02 -0.16260E+07
 0.67769997E+02 -0.11480E+07
 0.67820000E+02 -0.56093E+06
 0.67869995E+02  0.17162E+06
 0.67919998E+02  0.10216E+07
 0.67970001E+02  0.18352E+07
 0.68019997E+02  0.24854E+07
 0.68070000E+02  0.29718E+07
 0.68119995E+02  0.33594E+07
 0.68169998E+02  0.35465E+07
 0.68220001E+02  0.34713E+07
 0.68269997E+02  0.31626E+07
 0.68320000E+02  0.26807E+07
 0.68369995E+02  0.20961E+07
 0.68419998E+02  0.14169E+07
 0.68470001E+02  0.84548E+06
 0.68519997E+02  0.63312E+06
 0.68570000E+02  0.74997E+06
 0.68619995E+02  0.95518E+06
 0.68669998E+02  0.97067E+06
 0.68720001E+02  0.71024E+06
 0.68769997E+02  0.22857E+06
 0.68820000E+02 -0.29599E+06
 0.68869995E+02 -0.70941E+06
 0.68919998E+02 -0.10256E+07
 0.68970001E+02 -0.11752E+07
 0.69019997E+02 -0.11712E+07
 0.69070000E+02 -0.10677E+07
 0.69119995E+02 -0.89454E+06
 0.69169998E+02 -0.78870E+06
 0.69220001E+02 -0.78774E+06
 0.69269997E+02 -0.90184E+06
 0.69320000E+02 -0.11125E+07
 0.69369995E+02 -0.12470E+07
 0.69419998E+02 -0.11828E+07
 0.69470001E+02 -0.11028E+07
 0.69519997E+02 -0.12440E+07
 0.69570000E+02 -0.14471E+07
 0.69619995E+02 -0.14400E+07
 0.69669998E+02 -0.12616E+07
 0.69720001E+02 -0.10716E+07
 0.69769997E+02 -0.84467E+06
 0.69820000E+02 -0.48174E+06
 0.69869995E+02 -0.85406E+05
 0.69919998E+02  0.21586E+06
 0.69970001E+02  0.52104E+06
 0.70019997E+02  0.84215E+06
 0.70070000E+02  0.10655E+07
 0.70119995E+02  0.11541E+07
 0.70169998E+02  0.10134E+07
 0.70220001E+02  0.69216E+06
 0.70269997E+02  0.39060E+06
 0.70320000E+02  0.15563E+06
 0.70369995E+02 -0.44326E+05
 0.70419998E+02 -0.18629E+06
 0.70470001E+02 -0.24484E+06
 0.70519997E+02 -0.23107E+06
 0.70570000E+02 -0.11208E+06
 0.70619995E+02  0.14141E+06
 0.70669998E+02  0.46656E+06
 0.70720001E+02  0.66618E+06
 0.70769997E+02  0.50846E+06
 0.70820000E+02 -0.14302E+05
 0.70869995E+02 -0.67506E+06
 0.70919998E+02 -0.11870E+07
 0.70970001E+02 -0.13961E+07
 0.71019997E+02 -0.13009E+07
 0.71070000E+02 -0.10021E+07
 0.71119995E+02 -0.62741E+06
 0.71169998E+02 -0.20497E+06
 0.71220001E+02  0.20816E+06
 0.71269997E+02  0.55161E+06
 0.71320000E+02  0.79043E+06
 0.71369995E+02  0.80516E+06
 0.71419998E+02  0.59248E+06
 0.71470001E+02  0.29806E+06
 0.71519997E+02 -0.28141E+05
 0.71570000E+02 -0.35951E+06
 0.71619995E+02 -0.55203E+06
 0.71669998E+02 -0.58596E+06
 0.71720001E+02 -0.57880E+06
 0.71769997E+02 -0.59538E+06
 0.71820000E+02 -0.71843E+06
 0.71869995E+02 -0.10020E+07
 0.71919998E+02 -0.14083E+07
 0.71970001E+02 -0.18745E+07
 0.72019997E+02 -0.22541E+07
 0.72070000E+02 -0.23720E+07
 0.72119995E+02 -0.22187E+07
 0.72169998E+02 -0.17495E+07
 0.72220001E+02 -0.85748E+06
 0.72269997E+02  0.21364E+06
 0.72320000E+02  0.11755E+07
 0.72369995E+02  0.19553E+07
 0.72419998E+02  0.24422E+07
 0.72470001E+02  0.25224E+07
 0.72519997E+02  0.21162E+07
 0.72570000E+02  0.14367E+07
 0.72619995E+02  0.80243E+06
 0.72669998E+02  0.28874E+06
 0.72720001E+02 -0.52558E+05
 0.72769997E+02 -0.20479E+06
 0.72820000E+02 -0.11408E+06
 0.72869995E+02  0.19001E+06
 0.72919998E+02  0.54509E+06
 0.72970001E+02  0.86469E+06
 0.73019997E+02  0.10764E+07
 0.73070000E+02  0.11298E+07
 0.73119995E+02  0.95607E+06
 0.73169998E+02  0.64040E+06
 0.73220001E+02  0.31427E+06
 0.73269997E+02 -0.13325E+06
 0.73320000E+02 -0.75726E+06
 0.73369995E+02 -0.14356E+07
 0.73419998E+02 -0.19868E+07
 0.73470001E+02 -0.22645E+07
 0.73519997E+02 -0.22227E+07
 0.73570000E+02 -0.18657E+07
 0.73619995E+02 -0.12262E+07
 0.73669998E+02 -0.38236E+06
 0.73720001E+02  0.50624E+06
 0.73769997E+02  0.12173E+07
 0.73820000E+02  0.15691E+07
 0.73869995E+02  0.14918E+07
 0.73919998E+02  0.10831E+07
 0.73970001E+02  0.56044E+06
 0.74019997E+02  0.56306E+05
 0.74070000E+02 -0.32964E+06
 0.74119995E+02 -0.45766E+06
 0.74169998E+02 -0.30243E+06
 0.74220001E+02  0.55965E+05
 0.74269997E+02  0.49526E+06
 0.74320000E+02  0.85731E+06
 0.74369995E+02  0.10077E+07
 0.74419998E+02  0.95814E+06
 0.74470001E+02  0.84964E+06
 0.74519997E+02  0.80600E+06
 0.74570000E+02  0.88730E+06
 0.74619995E+02  0.10583E+07
 0.74669998E+02  0.12361E+07
 0.74720001E+02  0.13719E+07
 0.74769997E+02  0.13996E+07
 0.74820000E+02  0.12604E+07
 0.74869995E+02  0.99732E+06
 0.74919998E+02  0.74741E+06
 0.74970001E+02  0.61357E+06
 0.75019997E+02  0.57156E+06
 0.75070000E+02  0.54462E+06
 0.75119995E+02  0.51022E+06
 0.75169998E+02  0.48801E+06
 0.75220001E+02  0.47140E+06
 0.75269997E+02  0.44180E+06
 0.75320000E+02  0.33040E+06
 0.75369995E+02  0.54334E+05
 0.75419998E+02 -0.31016E+06
 0.75470001E+02 -0.56129E+06
 0.75519997E+02 -0.59158E+06
 0.75570000E+02 -0.43554E+06
 0.75619995E+02 -0.12453E+06
 0.75669998E+02  0.26491E+06
 0.75720001E+02  0.61947E+06
 0.75769997E+02  0.82905E+06
 0.75820000E+02  0.72388E+06
 0.75869995E+02  0.29268E+06
 0.75919998E+02 -0.25551E+06
 0.75970001E+02 -0.71515E+06
 0.76019997E+02 -0.10119E+07
 0.76070000E+02 -0.11112E+07
 0.76119995E+02 -0.95917E+06
 0.76169998E+02 -0.63497E+06
 0.76220001E+02 -0.29354E+06
 0.76269997E+02 -0.81626E+05
 0.76320000E+02 -0.71782E+05
 0.76369995E+02 -0.17326E+06
 0.76419998E+02 -0.36967E+06
 0.76470001E+02 -0.68375E+06
 0.76519997E+02 -0.10186E+07
 0.76570000E+02 -0.13166E+07
 0.76619995E+02 -0.15439E+07
 0.76669998E+02 -0.16602E+07
 0.76720001E+02 -0.16302E+07
 0.76769997E+02 -0.14869E+07
 0.76820000E+02 -0.13840E+07
 0.76869995E+02 -0.13875E+07
 0.76919998E+02 -0.13878E+07
 0.76970001E+02 -0.12484E+07
 0.77019997E+02 -0.91688E+06
 0.77070000E+02 -0.37552E+06
 0.77119995E+02  0.34315E+06
 0.77169998E+02  0.11180E+07
 0.77220001E+02  0.18214E+07
 0.77269997E+02  0.22809E+07
 0.77320000E+02  0.23444E+07
 0.77369995E+02  0.20617E+07
 0.77419998E+02  0.15878E+07
 0.77470001E+02  0.10834E+07
 0.77519997E+02  0.66147E+06
 0.77570000E+02  0.35610E+06
 0.77619995E+02  0.19374E+06
 0.77669998E+02  0.18857E+06
 0.77720001E+02  0.32031E+06
 0.77769997E+02  0.49782E+06
 0.77820000E+02  0.54123E+06
 0.77869995E+02  0.32751E+06
 0.77919998E+02  0.14000E+03
 0.77970001E+02 -0.20172E+06
 0.78019997E+02 -0.22641E+06
 0.78070000E+02 -0.11360E+06
 0.78119995E+02  0.10262E+06
 0.78169998E+02  0.34432E+06
 0.78220001E+02  0.46338E+06
 0.78269997E+02  0.38986E+06
 0.78320000E+02  0.21663E+06
 0.78369995E+02  0.44680E+04
 0.78419998E+02 -0.30782E+06
 0.78470001E+02 -0.78223E+06
 0.78519997E+02 -0.13832E+07
 0.78570000E+02 -0.20417E+07
 0.78619995E+02 -0.27145E+07
 0.78669998E+02 -0.33029E+07
 0.78720001E+02 -0.36107E+07
 0.78769997E+02 -0.34808E+07
 0.78820000E+02 -0.29633E+07
 0.78869995E+02 -0.22871E+07
 0.78919998E+02 -0.15977E+07
 0.78970001E+02 -0.86650E+06
 0.79019997E+02 -0.11539E+06
 0.79070000E+02  0.57500E+06
 0.79119995E+02  0.10887E+07
 0.79169998E+02  0.13320E+07
 0.79220001E+02  0.13563E+07
 0.79269997E+02  0.11823E+07
 0.79320000E+02  0.87382E+06
 0.79369995E+02  0.64120E+06
 0.79419998E+02  0.53796E+06
 0.79470001E+02  0.46166E+06
 0.79519997E+02  0.41469E+06
 0.79570000E+02  0.42042E+06
 0.79619995E+02  0.44948E+06
 0.79669998E+02  0.46103E+06
 0.79720001E+02  0.47958E+06
 0.79769997E+02  0.65086E+06
 0.79820000E+02  0.10148E+07
 0.79869995E+02  0.15751E+07
 0.79919998E+02  0.23008E+07
 0.79970001E+02  0.29444E+07
 0.80019997E+02  0.32920E+07
 0.80070000E+02  0.32668E+07
 0.80119995E+02  0.28973E+07
 0.80169998E+02  0.22697E+07
 0.80220001E+02  0.14717E+07
 0.80269997E+02  0.69388E+06
 0.80320000E+02  0.11486E+06
 0.80369995E+02 -0.27338E+06
 0.80419998E+02 -0.54764E+06
 0.80470001E+02 -0.73045E+06
 0.80519997E+02 -0.86908E+06
 0.80570000E+02 -0.99430E+06
 0.80619995E+02 -0.10536E+07
 0.80669998E+02 -0.10484E+07
 0.80720001E+02 -0.11028E+07
 0.80769997E+02 -0.13166E+07
 0.80820000E+02 -0.16177E+07
 0.80869995E+02 -0.18974E+07
 0.80919998E+02 -0.21307E+07
 0.80970001E+02 -0.23131E+07
 0.81019997E+02 -0.24330E+07
 0.81070000E+02 -0.24692E+07
 0.81119995E+02 -0.24252E+07
 0.81169998E+02 -0.22942E+07
 0.81220001E+02 -0.20236E+07
 0.81269997E+02 -0.15883E+07
 0.81320000E+02 -0.98411E+06
 0.81369995E+02 -0.23313E+06
 0.81419998E+02  0.56652E+06
 0.81470001E+02  0.12886E+07
 0.81519997E+02  0.18446E+07
 0.81570000E+02  0.21505E+07
 0.81619995E+02  0.21233E+07
 0.81669998E+02  0.18380E+07
 0.81720001E+02  0.14470E+07
 0.81769997E+02  0.99142E+06
 0.81820000E+02  0.55212E+06
 0.81869995E+02  0.25817E+06
 0.81919998E+02  0.84389E+05
 0.81970001E+02 -0.54793E+05
 0.82019997E+02 -0.10159E+06
 0.82070000E+02  0.47595E+05
 0.82119995E+02  0.32901E+06
 0.82169998E+02  0.61500E+06
 0.82220001E+02  0.86003E+06
 0.82269997E+02  0.10054E+07
 0.82320000E+02  0.96598E+06
 0.82369995E+02  0.71943E+06
 0.82419998E+02  0.31386E+06
 0.82470001E+02 -0.18400E+06
 0.82519997E+02 -0.70227E+06
 0.82570000E+02 -0.11600E+07
 0.82619995E+02 -0.14844E+07
 0.82669998E+02 -0.16543E+07
 0.82720001E+02 -0.17122E+07
 0.82769997E+02 -0.16549E+07
 0.82820000E+02 -0.14493E+07
 0.82869995E+02 -0.11360E+07
 0.82919998E+02 -0.76358E+06
 0.82970001E+02 -0.32222E+06
 0.83019997E+02  0.13635E+06
 0.83070000E+02  0.48864E+06
 0.83119995E+02  0.69367E+06
 0.83169998E+02  0.73242E+06
 0.83220001E+02  0.59107E+06
 0.83269997E+02  0.33079E+06
 0.83320000E+02  0.86040E+04
 0.83369995E+02 -0.31993E+06
 0.83419998E+02 -0.57438E+06
 0.83470001E+02 -0.68941E+06
 0.83519997E+02 -0.61435E+06
 0.83570000E+02 -0.38372E+06
 0.83619995E+02 -0.74737E+05
 0.83669998E+02  0.35409E+06
 0.83720001E+02  0.89197E+06
 0.83769997E+02  0.13704E+07
 0.83820000E+02  0.16408E+07
 0.83869995E+02  0.16449E+07
 0.83919998E+02  0.14598E+07
 0.83970001E+02  0.12258E+07
 0.84019997E+02  0.10338E+07
 0.84070000E+02  0.96284E+06
 0.84119995E+02  0.10401E+07
 0.84169998E+02  0.11686E+07
 0.84220001E+02  0.12141E+07
 0.84269997E+02  0.11482E+07
 0.84320000E+02  0.10265E+07
 0.84369995E+02  0.88061E+06
 0.84419998E+02  0.71836E+06
 0.84470001E+02  0.58748E+06
 0.84519997E+02  0.56203E+06
 0.84570000E+02  0.68293E+06
 0.84619995E+02  0.88646E+06
 0.84669998E+02  0.10385E+07
 0.84720001E+02  0.10673E+07
 0.84769997E+02  0.93283E+06
 0.84820000E+02  0.60607E+06
 0.84869995E+02  0.12325E+06
 0.84919998E+02 -0.41289E+06
 0.84970001E+02 -0.89562E+06
 0.85019997E+02 -0.12919E+07
 0.85070000E+02 -0.15837E+07
 0.85119995E+02 -0.17010E+07
 0.85169998E+02 -0.16240E+07
 0.85220001E+02 -0.14486E+07
 0.85269997E+02 -0.12602E+07
 0.85320000E+02 -0.10680E+07
 0.85369995E+02 -0.86686E+06
 0.85419998E+02 -0.66263E+06
 0.85470001E+02 -0.46185E+06
 0.85519997E+02 -0.29746E+06
 0.85570000E+02 -0.17521E+06
 0.85619995E+02 -0.61323E+05
 0.85669998E+02  0.46283E+05
 0.85720001E+02  0.17889E+06
 0.85769997E+02  0.35476E+06
 0.85820000E+02  0.53765E+06
 0.85869995E+02  0.66988E+06
 0.85919998E+02  0.69358E+06
 0.85970001E+02  0.61552E+06
 0.86019997E+02  0.44226E+06
 0.86070000E+02  0.18299E+06
 0.86119995E+02 -0.58157E+05
 0.86169998E+02 -0.16396E+06
 0.86220001E+02 -0.13850E+06
 0.86269997E+02 -0.10464E+06
 0.86320000E+02 -0.16004E+06
 0.86369995E+02 -0.30507E+06
 0.86419998E+02 -0.50132E+06
 0.86470001E+02 -0.76257E+06
 0.86519997E+02 -0.11577E+07
 0.86570000E+02 -0.16481E+07
 0.86619995E+02 -0.21081E+07
 0.86669998E+02 -0.24266E+07
 0.86720001E+02 -0.25108E+07
 0.86769997E+02 -0.23450E+07
 0.86820000E+02 -0.19311E+07
 0.86869995E+02 -0.12990E+07
 0.86919998E+02 -0.56565E+06
 0.86970001E+02  0.16537E+06
 0.87019997E+02  0.86493E+06
 0.87070000E+02  0.15143E+07
 0.87119995E+02  0.20444E+07
 0.87169998E+02  0.24270E+07
 0.87220001E+02  0.26885E+07
 0.87269997E+02  0.28527E+07
 0.87320000E+02  0.29221E+07
 0.87369995E+02  0.28336E+07
 0.87419998E+02  0.25644E+07
 0.87470001E+02  0.21762E+07
 0.87519997E+02  0.16725E+07
 0.87570000E+02  0.10136E+07
 0.87619995E+02  0.23790E+06
 0.87669998E+02 -0.57020E+06
 0.87720001E+02 -0.13186E+07
 0.87769997E+02 -0.18647E+07
 0.87820000E+02 -0.20839E+07
 0.87869995E+02 -0.19707E+07
 0.87919998E+02 -0.16189E+07
 0.87970001E+02 -0.11365E+07
 0.88019997E+02 -0.58264E+06
 0.88070000E+02 -0.39383E+05
 0.88119995E+02  0.38924E+06
 0.88169998E+02  0.67171E+06
 0.88220001E+02  0.82323E+06
 0.88269997E+02  0.91442E+06
 0.88320000E+02  0.10051E+07
 0.88369995E+02  0.11199E+07
 0.88419998E+02  0.13038E+07
 0.88470001E+02  0.14949E+07
 0.88519997E+02  0.15662E+07
 0.88570000E+02  0.14978E+07
 0.88619995E+02  0.13359E+07
 0.88669998E+02  0.11071E+07
 0.88720001E+02  0.83548E+06
 0.88769997E+02  0.52332E+06
 0.88820000E+02  0.15434E+06
 0.88869995E+02 -0.29450E+06
 0.88919998E+02 -0.79369E+06
 0.88970001E+02 -0.12170E+07
 0.89019997E+02 -0.14792E+07
 0.89070000E+02 -0.15544E+07
 0.89119995E+02 -0.14667E+07
 0.89169998E+02 -0.12461E+07
 0.89220001E+02 -0.89284E+06
 0.89269997E+02 -0.49832E+06
 0.89320000E+02 -0.21181E+06
 0.89369995E+02 -0.13872E+06
 0.89419998E+02 -0.31499E+06
 0.89470001E+02 -0.71151E+06
 0.89519997E+02 -0.12108E+07
 0.89570000E+02 -0.16520E+07
 0.89619995E+02 -0.19285E+07
 0.89669998E+02 -0.20246E+07
 0.89720001E+02 -0.20216E+07
 0.89769997E+02 -0.19518E+07
 0.89820000E+02 -0.17473E+07
 0.89869995E+02 -0.13638E+07
 0.89919998E+02 -0.82494E+06
 0.89970001E+02 -0.25040E+06
 0.90019997E+02  0.24921E+06
 0.90070000E+02  0.65367E+06
 0.90119995E+02  0.90877E+06
 0.90169998E+02  0.98413E+06
 0.90220001E+02  0.93100E+06
 0.90269997E+02  0.80322E+06
 0.90320000E+02  0.66486E+06
 0.90369995E+02  0.53251E+06
 0.90419998E+02  0.43975E+06
 0.90470001E+02  0.45726E+06
 0.90519997E+02  0.52816E+06
 0.90570000E+02  0.59788E+06
 0.90619995E+02  0.70340E+06
 0.90669998E+02  0.83497E+06
 0.90720001E+02  0.93949E+06
 0.90769997E+02  0.96310E+06
 0.90820000E+02  0.90395E+06
 0.90869995E+02  0.82729E+06
 0.90919998E+02  0.74080E+06
 0.90970001E+02  0.59955E+06
 0.91019997E+02  0.38612E+06
 0.91070000E+02  0.10176E+06
 0.91119995E+02 -0.23178E+06
 0.91169998E+02 -0.57540E+06
 0.91220001E+02 -0.90871E+06
 0.91269997E+02 -0.12542E+07
 0.91320000E+02 -0.15900E+07
 0.91369995E+02 -0.18509E+07
 0.91419998E+02 -0.20413E+07
 0.91470001E+02 -0.21939E+07
 0.91519997E+02 -0.22962E+07
 0.91570000E+02 -0.23037E+07
 0.91619995E+02 -0.21862E+07
 0.91669998E+02 -0.19098E+07
 0.91720001E+02 -0.14118E+07
 0.91769997E+02 -0.70809E+06
 0.91820000E+02  0.65616E+05
 0.91869995E+02  0.76188E+06
 0.91919998E+02  0.12920E+07
 0.91970001E+02  0.16391E+07
 0.92019997E+02  0.18128E+07
 0.92070000E+02  0.18099E+07
 0.92119995E+02  0.16582E+07
 0.92169998E+02  0.14513E+07
 0.92220001E+02  0.13088E+07
 0.92269997E+02  0.12784E+07
 0.92320000E+02  0.12959E+07
 0.92369995E+02  0.12759E+07
 0.92419998E+02  0.12049E+07
 0.92470001E+02  0.11381E+07
 0.92519997E+02  0.11017E+07
 0.92570000E+02  0.10348E+07
 0.92619995E+02  0.90290E+06
 0.92669998E+02  0.68860E+06
 0.92720001E+02  0.34294E+06
 0.92769997E+02 -0.79154E+05
 0.92820000E+02 -0.50642E+06
 0.92869995E+02 -0.97930E+06
 0.92919998E+02 -0.15247E+07
 0.92970001E+02 -0.20342E+07
 0.93019997E+02 -0.23202E+07
 0.93070000E+02 -0.23047E+07
 0.93119995E+02 -0.20319E+07
 0.93169998E+02 -0.15656E+07
 0.93220001E+02 -0.10221E+07
 0.93269997E+02 -0.54224E+06
 0.93320000E+02 -0.16146E+06
 0.93369995E+02  0.13649E+06
 0.93419998E+02  0.35988E+06
 0.93470001E+02  0.54890E+06
 0.93519997E+02  0.72181E+06
 0.93570000E+02  0.84778E+06
 0.93619995E+02  0.89660E+06
 0.93669998E+02  0.87853E+06
 0.93720001E+02  0.79921E+06
 0.93769997E+02  0.65876E+06
 0.93820000E+02  0.48422E+06
 0.93869995E+02  0.27934E+06
 0.93919998E+02  0.83031E+05
 0.93970001E+02 -0.14299E+05
 0.94019997E+02  0.26140E+05
 0.94070000E+02  0.17793E+06
 0.94119995E+02  0.38032E+06
 0.94169998E+02  0.57738E+06
 0.94220001E+02  0.72647E+06
 0.94269997E+02  0.79203E+06
 0.94320000E+02  0.77207E+06
 0.94369995E+02  0.66940E+06
 0.94419998E+02  0.46685E+06
 0.94470001E+02  0.19308E+06
 0.94519997E+02 -0.46806E+05
 0.94570000E+02 -0.18243E+06
 0.94619995E+02 -0.25053E+06
 0.94669998E+02 -0.30553E+06
 0.94720001E+02 -0.36487E+06
 0.94769997E+02 -0.43515E+06
 0.94820000E+02 -0.51460E+06
 0.94869995E+02 -0.62408E+06
 0.94919998E+02 -0.75497E+06
 0.94970001E+02 -0.83441E+06
 0.95019997E+02 -0.84786E+06
 0.95070000E+02 -0.80748E+06
 0.95119995E+02 -0.71697E+06
 0.95169998E+02 -0.60662E+06
 0.95220001E+02 -0.48089E+06
 0.95269997E+02 -0.33785E+06
 0.95320000E+02 -0.21087E+06
 0.95369995E+02 -0.14654E+06
 0.95419998E+02 -0.15559E+06
 0.95470001E+02 -0.19496E+06
 0.95519997E+02 -0.20023E+06
 0.95570000E+02 -0.17219E+06
 0.95619995E+02 -0.18333E+06
 0.95669998E+02 -0.27180E+06
 0.95720001E+02 -0.41486E+06
 0.95769997E+02 -0.55103E+06
 0.95820000E+02 -0.63939E+06
 0.95869995E+02 -0.66841E+06
 0.95919998E+02 -0.61682E+06
 0.95970001E+02 -0.48822E+06
 0.96019997E+02 -0.26130E+06
 0.96070000E+02  0.88185E+05
 0.96119995E+02  0.49569E+06
 0.96169998E+02  0.88633E+06
 0.96220001E+02  0.12189E+07
 0.96269997E+02  0.14457E+07
 0.96320000E+02  0.15017E+07
 0.96369995E+02  0.13697E+07
 0.96419998E+02  0.11136E+07
 0.96470001E+02  0.79350E+06
 0.96519997E+02  0.44828E+06
 0.96570000E+02  0.10260E+06
 0.96619995E+02 -0.20410E+06
 0.96669998E+02 -0.43204E+06
 0.96720001E+02 -0.59229E+06
 0.96769997E+02 -0.64947E+06
 0.96820000E+02 -0.55359E+06
 0.96869995E+02 -0.32047E+06
 0.96919998E+02 -0.14310E+05
 0.96970001E+02  0.29612E+06
 0.97019997E+02  0.59435E+06
 0.97070000E+02  0.86148E+06
 0.97119995E+02  0.10633E+07
 0.97169998E+02  0.11622E+07
 0.97220001E+02  0.11378E+07
 0.97269997E+02  0.10075E+07
 0.97320000E+02  0.79005E+06
 0.97369995E+02  0.53335E+06
 0.97419998E+02  0.30752E+06
 0.97470001E+02  0.15699E+06
 0.97519997E+02  0.79212E+05
 0.97570000E+02  0.25357E+05
 0.97619995E+02 -0.38650E+05
 0.97669998E+02 -0.10286E+06
 0.97720001E+02 -0.15716E+06
 0.97769997E+02 -0.19934E+06
 0.97820000E+02 -0.18828E+06
 0.97869995E+02 -0.44115E+05
 0.97919998E+02  0.25703E+06
 0.97970001E+02  0.64636E+06
 0.98019997E+02  0.10105E+07
 0.98070000E+02  0.12313E+07
 0.98119995E+02  0.12753E+07
 0.98169998E+02  0.11736E+07
 0.98220001E+02  0.94017E+06
 0.98269997E+02  0.61572E+06
 0.98320000E+02  0.27373E+06
 0.98369995E+02 -0.16639E+05
 0.98419998E+02 -0.22143E+06
 0.98470001E+02 -0.34972E+06
 0.98519997E+02 -0.40884E+06
 0.98570000E+02 -0.38081E+06
 0.98619995E+02 -0.26862E+06
 0.98669998E+02 -0.12982E+06
 0.98720001E+02 -0.17440E+05
 0.98769997E+02  0.22476E+05
 0.98820000E+02 -0.36203E+05
 0.98869995E+02 -0.12896E+06
 0.98919998E+02 -0.20591E+06
 0.98970001E+02 -0.29717E+06
 0.99019997E+02 -0.41502E+06
 0.99070000E+02 -0.53306E+06
 0.99119995E+02 -0.61297E+06
 0.99169998E+02 -0.62580E+06
 0.99220001E+02 -0.58431E+06
 0.99269997E+02 -0.53687E+06
 0.99320000E+02 -0.53166E+06
 0.99369995E+02 -0.60483E+06
 0.99419998E+02 -0.72275E+06
 0.99470001E+02 -0.77129E+06
 0.99519997E+02 -0.68630E+06
 0.99570000E+02 -0.48744E+06
 0.99619995E+02 -0.22028E+06
 0.99669998E+02  0.61740E+05
 0.99720001E+02  0.29711E+06
 0.99769997E+02  0.43793E+06
 0.99820000E+02  0.49179E+06
 0.99869995E+02  0.51385E+06
 0.99919998E+02  0.52812E+06
 0.99970001E+02  0.49104E+06
 0.10002000E+03  0.38872E+06
 0.10007000E+03  0.26109E+06
 0.10012000E+03  0.13891E+06
 0.10017000E+03  0.52087E+05
 0.10022000E+03  0.20292E+05
 0.10027000E+03  0.58926E+05
 0.10032000E+03  0.16642E+06
 0.10037000E+03  0.27148E+06
 0.10042000E+03  0.30670E+06
 0.10047000E+03  0.28615E+06
 0.10052000E+03  0.26940E+06
 0.10057000E+03  0.30488E+06
 0.10062000E+03  0.37695E+06
 0.10067000E+03  0.39901E+06
 0.10072000E+03  0.29297E+06
 0.10077000E+03  0.41676E+05
 0.10082000E+03 -0.31083E+06
 0.10087000E+03 -0.68970E+06
 0.10092000E+03 -0.10543E+07
 0.10097000E+03 -0.13927E+07
 0.10102000E+03 -0.16990E+07
 0.10107000E+03 -0.19430E+07
 0.10112000E+03 -0.20596E+07
 0.10117000E+03 -0.20231E+07
 0.10122000E+03 -0.18716E+07
 0.10127000E+03 -0.16591E+07
 0.10132000E+03 -0.14088E+07
 0.10137000E+03 -0.11316E+07
 0.10142000E+03 -0.85401E+06
 0.10147000E+03 -0.58712E+06
 0.10152000E+03 -0.31490E+06
 0.10157000E+03 -0.41537E+05
 0.10162000E+03  0.21254E+06
 0.10167000E+03  0.43984E+06
 0.10172000E+03  0.65403E+06
 0.10177000E+03  0.86902E+06
 0.10182000E+03  0.10390E+07
 0.10187000E+03  0.11253E+07
 0.10192000E+03  0.11535E+07
 0.10197000E+03  0.11330E+07
 0.10202000E+03  0.10419E+07
 0.10207000E+03  0.85882E+06
 0.10212000E+03  0.59626E+06
 0.10217000E+03  0.32198E+06
 0.10222000E+03  0.11282E+06
 0.10227000E+03  0.13742E+05
 0.10232000E+03  0.20939E+05
 0.10237000E+03  0.89650E+05
 0.10242000E+03  0.16119E+06
 0.10247000E+03  0.19168E+06
 0.10252000E+03  0.19640E+06
 0.10257000E+03  0.21259E+06
 0.10262000E+03  0.24077E+06
 0.10267000E+03  0.27927E+06
 0.10272000E+03  0.31515E+06
 0.10277000E+03  0.28923E+06
 0.10282000E+03  0.18290E+06
 0.10287000E+03  0.50721E+05
 0.10292000E+03 -0.70644E+05
 0.10297000E+03 -0.15021E+06
 0.10302000E+03 -0.14167E+06
 0.10307000E+03 -0.41849E+05
 0.10312000E+03  0.12518E+06
 0.10317000E+03  0.32614E+06
 0.10322000E+03  0.51137E+06
 0.10327000E+03  0.65271E+06
 0.10332000E+03  0.73720E+06
 0.10337000E+03  0.75530E+06
 0.10342000E+03  0.71044E+06
 0.10347000E+03  0.62205E+06
 0.10352000E+03  0.52801E+06
 0.10357000E+03  0.43960E+06
 0.10362000E+03  0.33060E+06
 0.10367000E+03  0.17891E+06
 0.10372000E+03  0.10359E+05
 0.10377000E+03 -0.12052E+06
 0.10382000E+03 -0.19813E+06
 0.10387000E+03 -0.26650E+06
 0.10392000E+03 -0.37879E+06
 0.10397000E+03 -0.54058E+06
 0.10402000E+03 -0.72638E+06
 0.10407000E+03 -0.87957E+06
 0.10412000E+03 -0.95010E+06
 0.10417000E+03 -0.94835E+06
 0.10422000E+03 -0.89346E+06
 0.10427000E+03 -0.80112E+06
 0.10432000E+03 -0.69654E+06
 0.10437000E+03 -0.57068E+06
 0.10442000E+03 -0.37371E+06
 0.10447000E+03 -0.68124E+05
 0.10452000E+03  0.31915E+06
 0.10457000E+03  0.71542E+06
 0.10462000E+03  0.10587E+07
 0.10467000E+03  0.13235E+07
 0.10472000E+03  0.15172E+07
 0.10477000E+03  0.16570E+07
 0.10482000E+03  0.17473E+07
 0.10487000E+03  0.17766E+07
 0.10492000E+03  0.17476E+07
 0.10497000E+03  0.16497E+07
 0.10502000E+03  0.14379E+07
 0.10507000E+03  0.11172E+07
 0.10512000E+03  0.76471E+06
 0.10517000E+03  0.44671E+06
 0.10522000E+03  0.16729E+06
 0.10527000E+03 -0.98720E+05
 0.10532000E+03 -0.35321E+06
 0.10537000E+03 -0.56619E+06
 0.10542000E+03 -0.71658E+06
 0.10547000E+03 -0.84989E+06
 0.10552000E+03 -0.10286E+07
 0.10557000E+03 -0.12499E+07
 0.10562000E+03 -0.14435E+07
 0.10567000E+03 -0.15215E+07
 0.10572000E+03 -0.14780E+07
 0.10577000E+03 -0.13615E+07
 0.10582000E+03 -0.11701E+07
 0.10587000E+03 -0.90314E+06
 0.10592000E+03 -0.60977E+06
 0.10597000E+03 -0.30821E+06
 0.10602000E+03 -0.14090E+04
 0.10607000E+03  0.25084E+06
 0.10612000E+03  0.41482E+06
 0.10617000E+03  0.51391E+06
 0.10622000E+03  0.55940E+06
 0.10627000E+03  0.54693E+06
 0.10632000E+03  0.47157E+06
 0.10637000E+03  0.34096E+06
 0.10642000E+03  0.16274E+06
 0.10647000E+03 -0.60744E+05
 0.10652000E+03 -0.29847E+06
 0.10657000E+03 -0.52496E+06
 0.10662000E+03 -0.72850E+06
 0.10667000E+03 -0.87652E+06
 0.10672000E+03 -0.95634E+06
 0.10677000E+03 -0.99030E+06
 0.10682000E+03 -0.99778E+06
 0.10687000E+03 -0.97161E+06
 0.10692000E+03 -0.89549E+06
 0.10697000E+03 -0.77310E+06
 0.10702000E+03 -0.61306E+06
 0.10707000E+03 -0.42306E+06
 0.10712000E+03 -0.22202E+06
 0.10717000E+03 -0.17059E+05
 0.10722000E+03  0.19942E+06
 0.10727000E+03  0.42152E+06
 0.10732000E+03  0.62423E+06
 0.10737000E+03  0.77018E+06
 0.10742000E+03  0.82967E+06
 0.10747000E+03  0.81512E+06
 0.10752000E+03  0.76219E+06
 0.10757000E+03  0.66955E+06
 0.10762000E+03  0.51176E+06
 0.10767000E+03  0.30596E+06
 0.10772000E+03  0.11312E+06
 0.10777000E+03 -0.38845E+05
 0.10782000E+03 -0.16160E+06
 0.10787000E+03 -0.25468E+06
 0.10792000E+03 -0.32493E+06
 0.10797000E+03 -0.40391E+06
 0.10802000E+03 -0.51100E+06
 0.10807000E+03 -0.61296E+06
 0.10812000E+03 -0.66282E+06
 0.10817000E+03 -0.66539E+06
 0.10822000E+03 -0.65589E+06
 0.10827000E+03 -0.63644E+06
 0.10832000E+03 -0.58343E+06
 0.10837000E+03 -0.51436E+06
 0.10842000E+03 -0.45892E+06
 0.10847000E+03 -0.41312E+06
 0.10852000E+03 -0.38933E+06
 0.10857000E+03 -0.41255E+06
 0.10862000E+03 -0.45968E+06
 0.10867000E+03 -0.49889E+06
 0.10872000E+03 -0.54134E+06
 0.10877000E+03 -0.60314E+06
 0.10882000E+03 -0.66044E+06
 0.10887000E+03 -0.65943E+06
 0.10892000E+03 -0.58041E+06
 0.10897000E+03 -0.45978E+06
 0.10902000E+03 -0.33724E+06
 0.10907000E+03 -0.20718E+06
 0.10912000E+03 -0.45540E+05
 0.10917000E+03  0.13950E+06
 0.10922000E+03  0.32143E+06
 0.10927000E+03  0.47755E+06
 0.10932000E+03  0.60311E+06
 0.10937000E+03  0.71216E+06
 0.10942000E+03  0.81677E+06
 0.10947000E+03  0.92516E+06
 0.10952000E+03  0.10258E+07
 0.10957000E+03  0.10917E+07
 0.10962000E+03  0.11073E+07
 0.10967000E+03  0.10857E+07
 0.10972000E+03  0.10637E+07
 0.10977000E+03  0.10347E+07
 0.10982000E+03  0.95079E+06
 0.10987000E+03  0.79586E+06
 0.10992000E+03  0.58347E+06
 0.10997000E+03  0.34723E+06
 0.11002000E+03  0.13462E+06
 0.11007000E+03 -0.35069E+05
 0.11012000E+03 -0.16767E+06
 0.11017000E+03 -0.27081E+06
 0.11022000E+03 -0.35830E+06
 0.11027000E+03 -0.44163E+06
 0.11032000E+03 -0.53338E+06
 0.11037000E+03 -0.64102E+06
 0.11042000E+03 -0.74347E+06
 0.11047000E+03 -0.81597E+06
 0.11052000E+03 -0.85686E+06
 0.11057000E+03 -0.87249E+06
 0.11062000E+03 -0.86137E+06
 0.11067000E+03 -0.81152E+06
 0.11072000E+03 -0.70395E+06
 0.11077000E+03 -0.51519E+06
 0.11082000E+03 -0.23818E+06
 0.11087000E+03  0.77207E+05
 0.11092000E+03  0.35967E+06
 0.11097000E+03  0.58483E+06
 0.11102000E+03  0.74029E+06
 0.11107000E+03  0.80879E+06
 0.11112000E+03  0.80982E+06
 0.11117000E+03  0.76428E+06
 0.11122000E+03  0.67379E+06
 0.11127000E+03  0.56664E+06
 0.11132000E+03  0.47688E+06
 0.11137000E+03  0.40517E+06
 0.11142000E+03  0.34650E+06
 0.11147000E+03  0.30474E+06
 0.11152000E+03  0.27525E+06
 0.11157000E+03  0.24978E+06
 0.11162000E+03  0.22848E+06
 0.11167000E+03  0.21004E+06
 0.11172000E+03  0.19731E+06
 0.11177000E+03  0.16716E+06
 0.11182000E+03  0.63765E+05
 0.11187000E+03 -0.10963E+06
 0.11192000E+03 -0.30795E+06
 0.11197000E+03 -0.49013E+06
 0.11202000E+03 -0.61165E+06
 0.11207000E+03 -0.67579E+06
 0.11212000E+03 -0.71700E+06
 0.11217000E+03 -0.74554E+06
 0.11222000E+03 -0.74974E+06
 0.11227000E+03 -0.70762E+06
 0.11232000E+03 -0.59064E+06
 0.11237000E+03 -0.40186E+06
 0.11242000E+03 -0.19227E+06
 0.11247000E+03  0.13063E+05
 0.11252000E+03  0.22656E+06
 0.11257000E+03  0.43808E+06
 0.11262000E+03  0.60834E+06
 0.11267000E+03  0.70257E+06
 0.11272000E+03  0.73275E+06
 0.11277000E+03  0.74279E+06
 0.11282000E+03  0.75023E+06
 0.11287000E+03  0.77013E+06
 0.11292000E+03  0.80532E+06
 0.11297000E+03  0.80351E+06
 0.11302000E+03  0.73784E+06
 0.11307000E+03  0.62666E+06
 0.11312000E+03  0.49294E+06
 0.11317000E+03  0.37693E+06
 0.11322000E+03  0.31274E+06
 0.11327000E+03  0.29868E+06
 0.11332000E+03  0.30307E+06
 0.11337000E+03  0.28863E+06
 0.11342000E+03  0.23428E+06
 0.11347000E+03  0.14270E+06
 0.11352000E+03  0.33783E+05
 0.11357000E+03 -0.59835E+05
 0.11362000E+03 -0.11314E+06
 0.11367000E+03 -0.14591E+06
 0.11372000E+03 -0.18901E+06
 0.11377000E+03 -0.23534E+06
 0.11382000E+03 -0.27108E+06
 0.11387000E+03 -0.29142E+06
 0.11392000E+03 -0.26821E+06
 0.11397000E+03 -0.17285E+06
 0.11402000E+03 -0.10336E+05
 0.11407000E+03  0.20693E+06
 0.11412000E+03  0.47274E+06
 0.11417000E+03  0.75606E+06
 0.11422000E+03  0.10162E+07
 0.11427000E+03  0.12504E+07
 0.11432000E+03  0.14673E+07
 0.11437000E+03  0.16492E+07
 0.11442000E+03  0.17719E+07
 0.11447000E+03  0.18226E+07
 0.11452000E+03  0.17767E+07
 0.11457000E+03  0.15962E+07
 0.11462000E+03  0.12677E+07
 0.11467000E+03  0.80925E+06
 0.11472000E+03  0.25904E+06
 0.11477000E+03 -0.33697E+06
 0.11482000E+03 -0.91249E+06
 0.11487000E+03 -0.13895E+07
 0.11492000E+03 -0.17436E+07
 0.11497000E+03 -0.20006E+07
 0.11502000E+03 -0.21833E+07
 0.11507000E+03 -0.22872E+07
 0.11512000E+03 -0.22904E+07
 0.11517000E+03 -0.21855E+07
 0.11522000E+03 -0.19791E+07
 0.11527000E+03 -0.16937E+07
 0.11532000E+03 -0.13638E+07
 0.11537000E+03 -0.99855E+06
 0.11542000E+03 -0.59723E+06
 0.11547000E+03 -0.18216E+06
 0.11552000E+03  0.20905E+06
 0.11557000E+03  0.54298E+06
 0.11562000E+03  0.80202E+06
 0.11567000E+03  0.98354E+06
 0.11572000E+03  0.10961E+07
 0.11577000E+03  0.11547E+07
 0.11582000E+03  0.11761E+07
 0.11587000E+03  0.11831E+07
 0.11592000E+03  0.11867E+07
 0.11597000E+03  0.11658E+07
 0.11602000E+03  0.10936E+07
 0.11607000E+03  0.97350E+06
 0.11612000E+03  0.83651E+06
 0.11617000E+03  0.70349E+06
 0.11622000E+03  0.58534E+06
 0.11627000E+03  0.48747E+06
 0.11632000E+03  0.38256E+06
 0.11637000E+03  0.23223E+06
 0.11642000E+03  0.18648E+05
 0.11647000E+03 -0.25260E+06
 0.11652000E+03 -0.55315E+06
 0.11657000E+03 -0.83509E+06
 0.11662000E+03 -0.10621E+07
 0.11667000E+03 -0.12303E+07
 0.11672000E+03 -0.13363E+07
 0.11677000E+03 -0.13786E+07
 0.11682000E+03 -0.13699E+07
 0.11687000E+03 -0.13346E+07
 0.11692000E+03 -0.13044E+07
 0.11697000E+03 -0.12863E+07
 0.11702000E+03 -0.12689E+07
 0.11707000E+03 -0.12531E+07
 0.11712000E+03 -0.12413E+07
 0.11717000E+03 -0.12132E+07
 0.11722000E+03 -0.11484E+07
 0.11727000E+03 -0.10506E+07
 0.11732000E+03 -0.91779E+06
 0.11737000E+03 -0.73725E+06
 0.11742000E+03 -0.50752E+06
 0.11747000E+03 -0.23345E+06
 0.11752000E+03  0.74905E+05
 0.11757000E+03  0.38035E+06
 0.11762000E+03  0.63333E+06
 0.11767000E+03  0.80751E+06
 0.11772000E+03  0.90440E+06
 0.11777000E+03  0.95721E+06
 0.11782000E+03  0.98088E+06
 0.11787000E+03  0.95148E+06
 0.11792000E+03  0.85854E+06
 0.11797000E+03  0.70250E+06
 0.11802000E+03  0.48719E+06
 0.11807000E+03  0.22933E+06
 0.11812000E+03 -0.47963E+05
 0.11817000E+03 -0.31928E+06
 0.11822000E+03 -0.55937E+06
 0.11827000E+03 -0.74462E+06
 0.11832000E+03 -0.86927E+06
 0.11837000E+03 -0.95474E+06
 0.11842000E+03 -0.10036E+07
 0.11847000E+03 -0.98433E+06
 0.11852000E+03 -0.87390E+06
 0.11857000E+03 -0.68200E+06
 0.11862000E+03 -0.45732E+06
 0.11867000E+03 -0.23041E+06
 0.11872000E+03  0.30400E+04
 0.11877000E+03  0.21870E+06
 0.11882000E+03  0.38706E+06
 0.11887000E+03  0.51536E+06
 0.11892000E+03  0.62375E+06
 0.11897000E+03  0.70941E+06
 0.11902000E+03  0.75756E+06
 0.11907000E+03  0.78203E+06
 0.11912000E+03  0.80123E+06
 0.11917000E+03  0.80886E+06
 0.11922000E+03  0.78873E+06
 0.11927000E+03  0.72371E+06
 0.11932000E+03  0.61634E+06
 0.11937000E+03  0.49003E+06
 0.11942000E+03  0.36938E+06
 0.11947000E+03  0.28321E+06
 0.11952000E+03  0.25029E+06
 0.11957000E+03  0.26165E+06
 0.11962000E+03  0.29120E+06
 0.11967000E+03  0.30023E+06
 0.11972000E+03  0.25606E+06
 0.11977000E+03  0.15918E+06
 0.11982000E+03  0.19991E+05
 0.11987000E+03 -0.15977E+06
 0.11992000E+03 -0.36333E+06
 0.11997000E+03 -0.55858E+06
 0.12002000E+03 -0.73027E+06
 0.12007000E+03 -0.88376E+06
 0.12012000E+03 -0.10143E+07
 0.12017000E+03 -0.10897E+07
 0.12022000E+03 -0.10857E+07
 0.12027000E+03 -0.10256E+07
 0.12032000E+03 -0.93876E+06
 0.12037000E+03 -0.82724E+06
 0.12042000E+03 -0.69803E+06
 0.12047000E+03 -0.56472E+06
 0.12052000E+03 -0.42841E+06
 0.12057000E+03 -0.29041E+06
 0.12062000E+03 -0.17477E+06
 0.12067000E+03 -0.10126E+06
 0.12072000E+03 -0.47895E+05
 0.12077000E+03  0.11780E+05
 0.12082000E+03  0.74149E+05
 0.12087000E+03  0.13844E+06
 0.12092000E+03  0.21824E+06
 0.12097000E+03  0.31663E+06
 0.12102000E+03  0.42279E+06
 0.12107000E+03  0.51892E+06
 0.12112000E+03  0.58735E+06
 0.12117000E+03  0.60790E+06
 0.12122000E+03  0.57513E+06
 0.12127000E+03  0.50523E+06
 0.12132000E+03  0.40978E+06
 0.12137000E+03  0.31489E+06
 0.12142000E+03  0.25133E+06
 0.12147000E+03  0.21982E+06
 0.12152000E+03  0.21421E+06
 0.12157000E+03  0.23427E+06
 0.12162000E+03  0.28507E+06
 0.12167000E+03  0.38358E+06
 0.12172000E+03  0.52965E+06
 0.12177000E+03  0.67912E+06
 0.12182000E+03  0.77240E+06
 0.12187000E+03  0.78420E+06
 0.12192000E+03  0.73950E+06
 0.12197000E+03  0.66786E+06
 0.12202000E+03  0.56558E+06
 0.12207000E+03  0.42728E+06
 0.12212000E+03  0.27729E+06
 0.12217000E+03  0.14580E+06
 0.12222000E+03  0.44678E+05
 0.12227000E+03 -0.18000E+05
 0.12232000E+03 -0.29635E+05
 0.12237000E+03  0.11214E+05
 0.12242000E+03  0.77519E+05
 0.12247000E+03  0.13311E+06
 0.12252000E+03  0.15863E+06
 0.12257000E+03  0.16732E+06
 0.12262000E+03  0.19766E+06
 0.12267000E+03  0.25840E+06
 0.12272000E+03  0.33995E+06
 0.12277000E+03  0.43863E+06
 0.12282000E+03  0.54357E+06
 0.12287000E+03  0.63767E+06
 0.12292000E+03  0.69135E+06
 0.12297000E+03  0.68718E+06
 0.12302000E+03  0.62796E+06
 0.12307000E+03  0.50134E+06
 0.12312000E+03  0.28962E+06
 0.12317000E+03  0.98520E+04
 0.12322000E+03 -0.29514E+06
 0.12327000E+03 -0.57301E+06
 0.12332000E+03 -0.77636E+06
 0.12337000E+03 -0.88333E+06
 0.12342000E+03 -0.88790E+06
 0.12347000E+03 -0.80510E+06
 0.12352000E+03 -0.67297E+06
 0.12357000E+03 -0.52902E+06
 0.12362000E+03 -0.38587E+06
 0.12367000E+03 -0.22998E+06
 0.12372000E+03 -0.53819E+05
 0.12377000E+03  0.14592E+06
 0.12382000E+03  0.37567E+06
 0.12387000E+03  0.60087E+06
 0.12392000E+03  0.76914E+06
 0.12397000E+03  0.87929E+06
 0.12402000E+03  0.95661E+06
 0.12407000E+03  0.10233E+07
 0.12412000E+03  0.10944E+07
 0.12417000E+03  0.11462E+07
 0.12422000E+03  0.11336E+07
 0.12427000E+03  0.10451E+07
 0.12432000E+03  0.90762E+06
 0.12437000E+03  0.74541E+06
 0.12442000E+03  0.57200E+06
 0.12447000E+03  0.40232E+06
 0.12452000E+03  0.24746E+06
 0.12457000E+03  0.12338E+06
 0.12462000E+03  0.40521E+05
 0.12467000E+03 -0.15180E+05
 0.12472000E+03 -0.76705E+05
 0.12477000E+03 -0.17219E+06
 0.12482000E+03 -0.29821E+06
 0.12487000E+03 -0.44292E+06
 0.12492000E+03 -0.60061E+06
 0.12497000E+03 -0.75556E+06
 0.12502000E+03 -0.89308E+06
 0.12507000E+03 -0.99300E+06
 0.12512000E+03 -0.10309E+07
 0.12517001E+03 -0.10031E+07
 0.12521999E+03 -0.91726E+06
 0.12527000E+03 -0.79157E+06
 0.12532000E+03 -0.65344E+06
 0.12537000E+03 -0.52249E+06
 0.12542001E+03 -0.42375E+06
 0.12546999E+03 -0.37053E+06
 0.12552000E+03 -0.33532E+06
 0.12557000E+03 -0.29655E+06
 0.12562000E+03 -0.27450E+06
 0.12567001E+03 -0.29010E+06
 0.12571999E+03 -0.33752E+06
 0.12577000E+03 -0.39736E+06
 0.12582000E+03 -0.45659E+06
 0.12587000E+03 -0.50870E+06
 0.12592001E+03 -0.55567E+06
 0.12596999E+03 -0.61190E+06
 0.12602000E+03 -0.67087E+06
 0.12607000E+03 -0.70670E+06
 0.12612000E+03 -0.70342E+06
 0.12617001E+03 -0.65347E+06
 0.12621999E+03 -0.55480E+06
 0.12627000E+03 -0.41047E+06
 0.12632000E+03 -0.23946E+06
 0.12637000E+03 -0.76101E+05
 0.12642001E+03  0.53142E+05
 0.12646999E+03  0.13918E+06
 0.12652000E+03  0.19121E+06
 0.12657000E+03  0.22086E+06
 0.12662000E+03  0.22595E+06
 0.12667001E+03  0.20109E+06
 0.12671999E+03  0.15263E+06
 0.12677000E+03  0.98555E+05
 0.12682000E+03  0.54216E+05
 0.12687000E+03  0.19078E+05
 0.12692001E+03 -0.10438E+05
 0.12696999E+03 -0.18390E+05
 0.12702000E+03  0.10475E+05
 0.12707000E+03  0.67619E+05
 0.12712000E+03  0.13122E+06
 0.12717001E+03  0.17933E+06
 0.12721999E+03  0.20111E+06
 0.12727000E+03  0.21058E+06
 0.12732000E+03  0.22362E+06
 0.12737000E+03  0.21386E+06
 0.12742001E+03  0.15997E+06
 0.12746999E+03  0.81696E+05
 0.12752000E+03 -0.15755E+05
 0.12757000E+03 -0.15766E+06
 0.12762000E+03 -0.35003E+06
 0.12767001E+03 -0.54880E+06
 0.12771999E+03 -0.71576E+06
 0.12777000E+03 -0.84900E+06
 0.12782000E+03 -0.94855E+06
 0.12787000E+03 -0.10094E+07
 0.12792001E+03 -0.10342E+07
 0.12796999E+03 -0.10335E+07
 0.12802000E+03 -0.10040E+07
 0.12807001E+03 -0.93116E+06
 0.12812001E+03 -0.80098E+06
 0.12817001E+03 -0.60588E+06
 0.12822000E+03 -0.35099E+06
 0.12827000E+03 -0.71811E+05
 0.12832001E+03  0.16922E+06
 0.12837001E+03  0.34688E+06
 0.12842001E+03  0.47308E+06
 0.12847000E+03  0.55921E+06
 0.12852000E+03  0.61995E+06
 0.12857001E+03  0.66806E+06
 0.12862001E+03  0.71124E+06
 0.12867001E+03  0.73740E+06
 0.12872000E+03  0.72031E+06
 0.12877000E+03  0.65642E+06
 0.12882001E+03  0.55502E+06
 0.12887001E+03  0.42011E+06
 0.12892001E+03  0.26358E+06
 0.12897000E+03  0.11560E+06
 0.12902000E+03  0.91150E+04
 0.12907001E+03 -0.36719E+05
 0.12912001E+03 -0.10748E+05
 0.12917001E+03  0.81711E+05
 0.12922000E+03  0.22011E+06
 0.12927000E+03  0.38226E+06
 0.12932001E+03  0.54481E+06
 0.12937001E+03  0.68052E+06
 0.12942001E+03  0.75852E+06
 0.12947000E+03  0.76550E+06
 0.12952000E+03  0.71081E+06
 0.12957001E+03  0.61745E+06
 0.12962001E+03  0.51410E+06
 0.12967001E+03  0.41434E+06
 0.12972000E+03  0.31381E+06
 0.12977000E+03  0.21332E+06
 0.12982001E+03  0.12928E+06
 0.12987001E+03  0.78471E+05
 0.12992001E+03  0.62355E+05
 0.12997000E+03  0.65714E+05
 0.13002000E+03  0.73436E+05
 0.13007001E+03  0.81272E+05
 0.13012001E+03  0.90788E+05
 0.13017001E+03  0.93033E+05
 0.13022000E+03  0.69819E+05
 0.13027000E+03  0.20767E+05
 0.13032001E+03 -0.50702E+05
 0.13037001E+03 -0.14561E+06
 0.13042001E+03 -0.24872E+06
 0.13047000E+03 -0.34621E+06
 0.13052000E+03 -0.43430E+06
 0.13057001E+03 -0.51095E+06
 0.13062001E+03 -0.58022E+06
 0.13067001E+03 -0.65028E+06
 0.13072000E+03 -0.71678E+06
 0.13077000E+03 -0.74711E+06
 0.13082001E+03 -0.71536E+06
 0.13087001E+03 -0.61669E+06
 0.13092001E+03 -0.45220E+06
 0.13097000E+03 -0.25656E+06
 0.13102000E+03 -0.76688E+05
 0.13107001E+03  0.69103E+05
 0.13112001E+03  0.18461E+06
 0.13117001E+03  0.27789E+06
 0.13122000E+03  0.34568E+06
 0.13127000E+03  0.39192E+06
 0.13132001E+03  0.43254E+06
 0.13137001E+03  0.47194E+06
 0.13142001E+03  0.50412E+06
 0.13147000E+03  0.52524E+06
 0.13152000E+03  0.53384E+06
 0.13157001E+03  0.52795E+06
 0.13162001E+03  0.50658E+06
 0.13167001E+03  0.45951E+06
 0.13172000E+03  0.38544E+06
 0.13177000E+03  0.31091E+06
 0.13182001E+03  0.25894E+06
 0.13187001E+03  0.23636E+06
 0.13192001E+03  0.24033E+06
 0.13197000E+03  0.26228E+06
 0.13202000E+03  0.28603E+06
 0.13207001E+03  0.28530E+06
 0.13212001E+03  0.24158E+06
 0.13217001E+03  0.15100E+06
 0.13222000E+03  0.34330E+05
 0.13227000E+03 -0.70226E+05
 0.13232001E+03 -0.12807E+06
 0.13237001E+03 -0.12688E+06
 0.13242001E+03 -0.95897E+05
 0.13247000E+03 -0.74247E+05
 0.13252000E+03 -0.92492E+05
 0.13257001E+03 -0.15636E+06
 0.13262001E+03 -0.23672E+06
 0.13267001E+03 -0.30699E+06
 0.13272000E+03 -0.34661E+06
 0.13277000E+03 -0.34516E+06
 0.13282001E+03 -0.31215E+06
 0.13287001E+03 -0.25726E+06
 0.13292001E+03 -0.18102E+06
 0.13297000E+03 -0.70666E+05
 0.13302000E+03  0.84815E+05
 0.13307001E+03  0.26280E+06
 0.13312001E+03  0.42892E+06
 0.13317001E+03  0.56904E+06
 0.13322000E+03  0.67417E+06
 0.13327000E+03  0.72421E+06
 0.13332001E+03  0.70428E+06
 0.13337001E+03  0.63189E+06
 0.13342001E+03  0.52748E+06
 0.13347000E+03  0.39288E+06
 0.13352000E+03  0.25216E+06
 0.13357001E+03  0.13980E+06
 0.13362001E+03  0.53305E+05
 0.13367001E+03 -0.29079E+05
 0.13372000E+03 -0.11400E+06
 0.13377000E+03 -0.19297E+06
 0.13382001E+03 -0.25043E+06
 0.13387001E+03 -0.28399E+06
 0.13392001E+03 -0.31012E+06
 0.13397000E+03 -0.33595E+06
 0.13402000E+03 -0.36317E+06
 0.13407001E+03 -0.40910E+06
 0.13412001E+03 -0.48046E+06
 0.13417001E+03 -0.56038E+06
 0.13422000E+03 -0.63212E+06
 0.13427000E+03 -0.68298E+06
 0.13432001E+03 -0.70832E+06
 0.13437001E+03 -0.71129E+06
 0.13442001E+03 -0.69511E+06
 0.13447000E+03 -0.67157E+06
 0.13452000E+03 -0.64821E+06
 0.13457001E+03 -0.61247E+06
 0.13462001E+03 -0.55162E+06
 0.13467001E+03 -0.47341E+06
 0.13472000E+03 -0.39975E+06
 0.13477000E+03 -0.34364E+06
 0.13482001E+03 -0.29734E+06
 0.13487001E+03 -0.24791E+06
 0.13492001E+03 -0.19815E+06
 0.13497000E+03 -0.16307E+06
 0.13502000E+03 -0.14745E+06
 0.13507001E+03 -0.14332E+06
 0.13512001E+03 -0.14920E+06
 0.13517001E+03 -0.16031E+06
 0.13522000E+03 -0.16194E+06
 0.13527000E+03 -0.14744E+06
 0.13532001E+03 -0.11042E+06
 0.13537001E+03 -0.52496E+05
 0.13542001E+03  0.13411E+05
 0.13547000E+03  0.81380E+05
 0.13552000E+03  0.14368E+06
 0.13557001E+03  0.18424E+06
 0.13562001E+03  0.19325E+06
 0.13567001E+03  0.18578E+06
 0.13572000E+03  0.19373E+06
 0.13577000E+03  0.23808E+06
 0.13582001E+03  0.30916E+06
 0.13587001E+03  0.38650E+06
 0.13592001E+03  0.45776E+06
 0.13597000E+03  0.50768E+06
 0.13602000E+03  0.53009E+06
 0.13607001E+03  0.51933E+06
 0.13612001E+03  0.46904E+06
 0.13617001E+03  0.39436E+06
 0.13622000E+03  0.30944E+06
 0.13627000E+03  0.21590E+06
 0.13632001E+03  0.12037E+06
 0.13637001E+03  0.31133E+05
 0.13642001E+03 -0.49726E+05
 0.13647000E+03 -0.12083E+06
 0.13652000E+03 -0.17211E+06
 0.13657001E+03 -0.17949E+06
 0.13662001E+03 -0.12370E+06
 0.13667001E+03 -0.11488E+05
 0.13672000E+03  0.13356E+06
 0.13677000E+03  0.28752E+06
 0.13682001E+03  0.42973E+06
 0.13687001E+03  0.54305E+06
 0.13692001E+03  0.62033E+06
 0.13697000E+03  0.65988E+06
 0.13702000E+03  0.65911E+06
 0.13707001E+03  0.62628E+06
 0.13712001E+03  0.57685E+06
 0.13717001E+03  0.52227E+06
 0.13722000E+03  0.47139E+06
 0.13727000E+03  0.42918E+06
 0.13732001E+03  0.39717E+06
 0.13737001E+03  0.37541E+06
 0.13742001E+03  0.35717E+06
 0.13747000E+03  0.33007E+06
 0.13752000E+03  0.28118E+06
 0.13757001E+03  0.19917E+06
 0.13762001E+03  0.93966E+05
 0.13767001E+03 -0.14359E+05
 0.13772000E+03 -0.12393E+06
 0.13777000E+03 -0.23019E+06
 0.13782001E+03 -0.31583E+06
 0.13787001E+03 -0.36383E+06
 0.13792001E+03 -0.36384E+06
 0.13797000E+03 -0.32151E+06
 0.13802000E+03 -0.25743E+06
 0.13807001E+03 -0.19592E+06
 0.13812001E+03 -0.15451E+06
 0.13817001E+03 -0.14399E+06
 0.13822000E+03 -0.17071E+06
 0.13827000E+03 -0.22710E+06
 0.13832001E+03 -0.28614E+06
 0.13837001E+03 -0.32446E+06
 0.13842001E+03 -0.33637E+06
 0.13847000E+03 -0.31272E+06
 0.13852000E+03 -0.25043E+06
 0.13857001E+03 -0.16562E+06
 0.13862001E+03 -0.78406E+05
 0.13867001E+03 -0.89780E+04
 0.13872000E+03  0.33156E+05
 0.13877000E+03  0.54624E+05
 0.13882001E+03  0.58762E+05
 0.13887001E+03  0.37508E+05
 0.13892001E+03 -0.90830E+04
 0.13897000E+03 -0.74958E+05
 0.13902000E+03 -0.15979E+06
 0.13907001E+03 -0.26165E+06
 0.13912001E+03 -0.39176E+06
 0.13917001E+03 -0.56421E+06
 0.13922000E+03 -0.76927E+06
 0.13927000E+03 -0.98034E+06
 0.13932001E+03 -0.11610E+07
 0.13937001E+03 -0.12741E+07
 0.13942001E+03 -0.12957E+07
 0.13947000E+03 -0.12262E+07
 0.13952000E+03 -0.10851E+07
 0.13957001E+03 -0.89608E+06
 0.13962001E+03 -0.67959E+06
 0.13967001E+03 -0.45734E+06
 0.13972000E+03 -0.25186E+06
 0.13977000E+03 -0.78334E+05
 0.13982001E+03  0.63930E+05
 0.13987001E+03  0.19610E+06
 0.13992001E+03  0.33333E+06
 0.13997000E+03  0.47812E+06
 0.14002000E+03  0.63459E+06
 0.14007001E+03  0.80404E+06
 0.14012001E+03  0.97721E+06
 0.14017001E+03  0.11386E+07
 0.14022000E+03  0.12793E+07
 0.14027000E+03  0.13857E+07
 0.14032001E+03  0.14395E+07
 0.14037001E+03  0.14319E+07
 0.14042001E+03  0.13630E+07
 0.14047000E+03  0.12426E+07
 0.14052000E+03  0.10906E+07
 0.14057001E+03  0.92786E+06
 0.14062001E+03  0.76848E+06
 0.14067001E+03  0.62311E+06
 0.14072000E+03  0.48835E+06
 0.14077000E+03  0.34991E+06
 0.14082001E+03  0.19850E+06
 0.14087001E+03  0.28130E+05
 0.14092001E+03 -0.15453E+06
 0.14097000E+03 -0.33216E+06
 0.14102000E+03 -0.49445E+06
 0.14107001E+03 -0.63136E+06
 0.14112001E+03 -0.73349E+06
 0.14117001E+03 -0.80341E+06
 0.14122000E+03 -0.84718E+06
 0.14127000E+03 -0.87822E+06
 0.14132001E+03 -0.91618E+06
 0.14137001E+03 -0.96121E+06
 0.14142001E+03 -0.99227E+06
 0.14147000E+03 -0.99620E+06
 0.14152000E+03 -0.97346E+06
 0.14157001E+03 -0.91484E+06
 0.14162001E+03 -0.80307E+06
 0.14167001E+03 -0.63501E+06
 0.14172000E+03 -0.44199E+06
 0.14177000E+03 -0.26267E+06
 0.14182001E+03 -0.10776E+06
 0.14187001E+03  0.22805E+05
 0.14192001E+03  0.13289E+06
 0.14197000E+03  0.22285E+06
 0.14202000E+03  0.28407E+06
 0.14207001E+03  0.31126E+06
 0.14212001E+03  0.30983E+06
 0.14217001E+03  0.29660E+06
 0.14222000E+03  0.28544E+06
 0.14227000E+03  0.28494E+06
 0.14232001E+03  0.30275E+06
 0.14237001E+03  0.33395E+06
 0.14242001E+03  0.35753E+06
 0.14247000E+03  0.35583E+06
 0.14252000E+03  0.32615E+06
 0.14257001E+03  0.27755E+06
 0.14262001E+03  0.22017E+06
 0.14267001E+03  0.15632E+06
 0.14272000E+03  0.89951E+05
 0.14277000E+03  0.23126E+05
 0.14282001E+03 -0.46461E+05
 0.14287001E+03 -0.10527E+06
 0.14292001E+03 -0.13009E+06
 0.14297000E+03 -0.11571E+06
 0.14302000E+03 -0.77784E+05
 0.14307001E+03 -0.36102E+05
 0.14312001E+03 -0.65260E+04
 0.14317001E+03 -0.47000E+02
 0.14322000E+03 -0.15007E+05
 0.14327000E+03 -0.39443E+05
 0.14332001E+03 -0.62001E+05
 0.14337001E+03 -0.76248E+05
 0.14342001E+03 -0.80035E+05
 0.14347000E+03 -0.71184E+05
 0.14352000E+03 -0.41973E+05
 0.14357001E+03  0.18143E+05
 0.14362001E+03  0.10832E+06
 0.14367001E+03  0.21661E+06
 0.14372000E+03  0.33264E+06
 0.14377000E+03  0.44475E+06
 0.14382001E+03  0.53092E+06
 0.14387001E+03  0.57600E+06
 0.14392001E+03  0.58328E+06
 0.14397000E+03  0.55357E+06
 0.14402000E+03  0.48278E+06
 0.14407001E+03  0.37736E+06
 0.14412001E+03  0.25046E+06
 0.14417001E+03  0.11505E+06
 0.14422000E+03 -0.12540E+05
 0.14427000E+03 -0.12002E+06
 0.14432001E+03 -0.19977E+06
 0.14437001E+03 -0.24632E+06
 0.14442001E+03 -0.26006E+06
 0.14447000E+03 -0.24618E+06
 0.14452000E+03 -0.21856E+06
 0.14457001E+03 -0.18183E+06
 0.14462001E+03 -0.13400E+06
 0.14467001E+03 -0.88548E+05
 0.14472000E+03 -0.50269E+05
 0.14477000E+03 -0.11422E+05
 0.14482001E+03  0.24907E+05
 0.14487001E+03  0.49521E+05
 0.14492001E+03  0.62746E+05
 0.14497000E+03  0.82120E+05
 0.14502000E+03  0.12083E+06
 0.14507001E+03  0.16930E+06
 0.14512001E+03  0.20998E+06
 0.14517001E+03  0.23573E+06
 0.14522000E+03  0.24543E+06
 0.14527000E+03  0.23892E+06
 0.14532001E+03  0.22174E+06
 0.14537001E+03  0.19949E+06
 0.14542001E+03  0.18466E+06
 0.14547000E+03  0.18710E+06
 0.14552000E+03  0.20074E+06
 0.14557001E+03  0.21268E+06
 0.14562001E+03  0.21110E+06
 0.14567001E+03  0.19252E+06
 0.14572000E+03  0.15767E+06
 0.14577000E+03  0.10474E+06
 0.14582001E+03  0.33825E+05
 0.14587001E+03 -0.50004E+05
 0.14592001E+03 -0.14170E+06
 0.14597000E+03 -0.23509E+06
 0.14602000E+03 -0.32620E+06
 0.14607001E+03 -0.40957E+06
 0.14612001E+03 -0.47470E+06
 0.14617001E+03 -0.51304E+06
 0.14622000E+03 -0.52711E+06
 0.14627000E+03 -0.53020E+06
 0.14632001E+03 -0.52202E+06
 0.14637001E+03 -0.49421E+06
 0.14642001E+03 -0.45041E+06
 0.14647000E+03 -0.39603E+06
 0.14652000E+03 -0.33024E+06
 0.14657001E+03 -0.25731E+06
 0.14662001E+03 -0.18288E+06
 0.14667001E+03 -0.10033E+06
 0.14672000E+03 -0.52770E+04
 0.14677000E+03  0.91964E+05
 0.14682001E+03  0.17879E+06
 0.14687001E+03  0.24692E+06
 0.14692001E+03  0.29408E+06
 0.14697000E+03  0.32856E+06
 0.14702000E+03  0.35560E+06
 0.14707001E+03  0.36884E+06
 0.14712001E+03  0.36486E+06
 0.14717001E+03  0.34739E+06
 0.14722000E+03  0.31790E+06
 0.14727000E+03  0.27938E+06
 0.14732001E+03  0.23793E+06
 0.14737001E+03  0.19317E+06
 0.14742001E+03  0.14462E+06
 0.14747000E+03  0.91402E+05
 0.14752000E+03  0.24987E+05
 0.14757001E+03 -0.59272E+05
 0.14762001E+03 -0.15917E+06
 0.14767001E+03 -0.27100E+06
 0.14772000E+03 -0.38405E+06
 0.14777000E+03 -0.48246E+06
 0.14782001E+03 -0.55812E+06
 0.14787001E+03 -0.60991E+06
 0.14792001E+03 -0.62824E+06
 0.14797000E+03 -0.60224E+06
 0.14802000E+03 -0.54209E+06
 0.14807001E+03 -0.47385E+06
 0.14812001E+03 -0.41625E+06
 0.14817001E+03 -0.36889E+06
 0.14822000E+03 -0.31953E+06
 0.14827000E+03 -0.25806E+06
 0.14832001E+03 -0.18516E+06
 0.14837001E+03 -0.10687E+06
 0.14842001E+03 -0.29580E+05
 0.14847000E+03  0.38778E+05
 0.14852000E+03  0.92001E+05
 0.14857001E+03  0.12708E+06
 0.14862001E+03  0.14948E+06
 0.14867001E+03  0.16469E+06
 0.14872000E+03  0.17276E+06
 0.14877000E+03  0.17622E+06
 0.14882001E+03  0.17761E+06
 0.14887001E+03  0.18113E+06
 0.14892001E+03  0.19102E+06
 0.14897000E+03  0.20682E+06
 0.14902000E+03  0.22611E+06
 0.14907001E+03  0.24741E+06
 0.14912001E+03  0.26480E+06
 0.14917001E+03  0.26569E+06
 0.14922000E+03  0.23907E+06
 0.14927000E+03  0.17826E+06
 0.14932001E+03  0.87101E+05
 0.14937001E+03 -0.22952E+05
 0.14942001E+03 -0.13269E+06
 0.14947000E+03 -0.21840E+06
 0.14952000E+03 -0.27475E+06
 0.14957001E+03 -0.30497E+06
 0.14962001E+03 -0.31200E+06
 0.14967001E+03 -0.30241E+06
 0.14972000E+03 -0.28098E+06
 0.14977000E+03 -0.26344E+06
 0.14982001E+03 -0.27315E+06
 0.14987001E+03 -0.31472E+06
 0.14992001E+03 -0.36955E+06
 0.14997000E+03 -0.41808E+06
