-0.29800000E+01 -0.34670E+05
-0.29300001E+01 -0.22172E+05
-0.28800001E+01 -0.48790E+04
-0.28299999E+01  0.14711E+05
-0.27800000E+01  0.30952E+05
-0.27300000E+01  0.41325E+05
-0.26800001E+01  0.47327E+05
-0.26300001E+01  0.51089E+05
-0.25799999E+01  0.55555E+05
-0.25300000E+01  0.62782E+05
-0.24800000E+01  0.70733E+05
-0.24300001E+01  0.76428E+05
-0.23800001E+01  0.80843E+05
-0.23299999E+01  0.85379E+05
-0.22800000E+01  0.88863E+05
-0.22300000E+01  0.90413E+05
-0.21800001E+01  0.88535E+05
-0.21300001E+01  0.80708E+05
-0.20799999E+01  0.68221E+05
-0.20300000E+01  0.54232E+05
-0.19800000E+01  0.40234E+05
-0.19299999E+01  0.26814E+05
-0.18800000E+01  0.12624E+05
-0.18300000E+01 -0.33890E+04
-0.17800000E+01 -0.22654E+05
-0.17300000E+01 -0.44625E+05
-0.16799999E+01 -0.65005E+05
-0.16300000E+01 -0.83712E+05
-0.15800000E+01 -0.98855E+05
-0.15300000E+01 -0.10683E+06
-0.14800000E+01 -0.10728E+06
-0.14299999E+01 -0.10127E+06
-0.13800000E+01 -0.91622E+05
-0.13300000E+01 -0.79220E+05
-0.12800000E+01 -0.68739E+05
-0.12300000E+01 -0.63719E+05
-0.11799999E+01 -0.59796E+05
-0.11300000E+01 -0.52544E+05
-0.10800000E+01 -0.44006E+05
-0.10300000E+01 -0.37529E+05
-0.98000002E+00 -0.28374E+05
-0.93000007E+00 -0.14355E+05
-0.87999988E+00  0.56000E+03
-0.82999992E+00  0.14983E+05
-0.77999997E+00  0.31553E+05
-0.73000002E+00  0.49722E+05
-0.68000007E+00  0.64556E+05
-0.62999988E+00  0.76474E+05
-0.57999992E+00  0.85665E+05
-0.52999997E+00  0.90413E+05
-0.48000002E+00  0.91420E+05
-0.43000007E+00  0.90149E+05
-0.37999988E+00  0.89841E+05
-0.32999992E+00  0.90092E+05
-0.27999997E+00  0.90078E+05
-0.23000002E+00  0.92531E+05
-0.18000007E+00  0.97014E+05
-0.12999988E+00  0.10120E+06
-0.79999924E-01  0.10401E+06
-0.29999971E-01  0.10526E+06
 0.19999981E-01  0.10455E+06
 0.69999933E-01  0.10176E+06
 0.12000012E+00  0.97712E+05
 0.17000008E+00  0.93850E+05
 0.22000003E+00  0.89716E+05
 0.26999998E+00  0.82569E+05
 0.31999993E+00  0.72869E+05
 0.37000012E+00  0.62483E+05
 0.42000008E+00  0.51226E+05
 0.47000003E+00  0.38284E+05
 0.51999998E+00  0.24540E+05
 0.56999993E+00  0.11900E+05
 0.62000012E+00  0.29900E+03
 0.67000008E+00 -0.10389E+05
 0.72000003E+00 -0.18941E+05
 0.76999998E+00 -0.26789E+05
 0.81999993E+00 -0.33682E+05
 0.87000012E+00 -0.37644E+05
 0.92000008E+00 -0.40539E+05
 0.97000003E+00 -0.42897E+05
 0.10200000E+01 -0.44791E+05
 0.10700002E+01 -0.45227E+05
 0.11199999E+01 -0.44607E+05
 0.11700001E+01 -0.44866E+05
 0.12200003E+01 -0.45120E+05
 0.12700000E+01 -0.43634E+05
 0.13200002E+01 -0.41713E+05
 0.13699999E+01 -0.41699E+05
 0.14200001E+01 -0.39211E+05
 0.14700003E+01 -0.32536E+05
 0.15200000E+01 -0.23212E+05
 0.15700002E+01 -0.13165E+05
 0.16199999E+01 -0.55800E+04
 0.16700001E+01 -0.96500E+03
 0.17200003E+01  0.29690E+04
 0.17700000E+01  0.12209E+05
 0.18200002E+01  0.23612E+05
 0.18699999E+01  0.30785E+05
 0.19200001E+01  0.34959E+05
 0.19700003E+01  0.37705E+05
 0.20200000E+01  0.41197E+05
 0.20700002E+01  0.44513E+05
 0.21199999E+01  0.46007E+05
 0.21700001E+01  0.45217E+05
 0.22200003E+01  0.44598E+05
 0.22700000E+01  0.48172E+05
 0.23200002E+01  0.52703E+05
 0.23699999E+01  0.55696E+05
 0.24200001E+01  0.56981E+05
 0.24700003E+01  0.55816E+05
 0.25200000E+01  0.51839E+05
 0.25700002E+01  0.46720E+05
 0.26199999E+01  0.42437E+05
 0.26700001E+01  0.36747E+05
 0.27200003E+01  0.31960E+05
 0.27700000E+01  0.29039E+05
 0.28200002E+01  0.27079E+05
 0.28699999E+01  0.26752E+05
 0.29200001E+01  0.24778E+05
 0.29700003E+01  0.21111E+05
 0.30200000E+01  0.19188E+05
 0.30700002E+01  0.21844E+05
 0.31199999E+01  0.24521E+05
 0.31700001E+01  0.24029E+05
 0.32200003E+01  0.21729E+05
 0.32700000E+01  0.19571E+05
 0.33200002E+01  0.19688E+05
 0.33699999E+01  0.19384E+05
 0.34200001E+01  0.19098E+05
 0.34700003E+01  0.15085E+05
 0.35200000E+01  0.71070E+04
 0.35700002E+01 -0.16940E+04
 0.36199999E+01 -0.11247E+05
 0.36700001E+01 -0.17019E+05
 0.37200003E+01 -0.20718E+05
 0.37700000E+01 -0.24522E+05
 0.38200002E+01 -0.29286E+05
 0.38699999E+01 -0.31847E+05
 0.39200001E+01 -0.28971E+05
 0.39700003E+01 -0.25550E+05
 0.40200000E+01 -0.20008E+05
 0.40700002E+01 -0.10650E+05
 0.41199999E+01 -0.15370E+04
 0.41700001E+01  0.44290E+04
 0.42200003E+01  0.76600E+04
 0.42700000E+01  0.13036E+05
 0.43200002E+01  0.16803E+05
 0.43699999E+01  0.15068E+05
 0.44200001E+01  0.11203E+05
 0.44700003E+01  0.37270E+04
 0.45200000E+01 -0.62400E+04
 0.45700002E+01 -0.17180E+05
 0.46199999E+01 -0.27263E+05
 0.46700001E+01 -0.37569E+05
 0.47200003E+01 -0.50325E+05
 0.47700000E+01 -0.62516E+05
 0.48200002E+01 -0.73023E+05
 0.48699999E+01 -0.81468E+05
 0.49200001E+01 -0.90713E+05
 0.49700003E+01 -0.97512E+05
 0.50200000E+01 -0.99312E+05
 0.50700002E+01 -0.99144E+05
 0.51200004E+01 -0.94703E+05
 0.51700006E+01 -0.86372E+05
 0.52199998E+01 -0.74832E+05
 0.52700000E+01 -0.60667E+05
 0.53200002E+01 -0.48567E+05
 0.53700004E+01 -0.40075E+05
 0.54200006E+01 -0.31995E+05
 0.54699998E+01 -0.24115E+05
 0.55200000E+01 -0.14233E+05
 0.55700002E+01 -0.13160E+04
 0.56200004E+01  0.65390E+04
 0.56700006E+01  0.10780E+05
 0.57199998E+01  0.15141E+05
 0.57700000E+01  0.14963E+05
 0.58200002E+01  0.14823E+05
 0.58700004E+01  0.19074E+05
 0.59200006E+01  0.23146E+05
 0.59699998E+01  0.28629E+05
 0.60200000E+01  0.32847E+05
 0.60700002E+01  0.29635E+05
 0.61200004E+01  0.29044E+05
 0.61700006E+01  0.30738E+05
 0.62199998E+01  0.28562E+05
 0.62700000E+01  0.30993E+05
 0.63200002E+01  0.34470E+05
 0.63700004E+01  0.36555E+05
 0.64200006E+01  0.41029E+05
 0.64699998E+01  0.47062E+05
 0.65200000E+01  0.51801E+05
 0.65700002E+01  0.49695E+05
 0.66200004E+01  0.48327E+05
 0.66700006E+01  0.49678E+05
 0.67199998E+01  0.48857E+05
 0.67700000E+01  0.49392E+05
 0.68200002E+01  0.52858E+05
 0.68700004E+01  0.56920E+05
 0.69200006E+01  0.60860E+05
 0.69699998E+01  0.67782E+05
 0.70200000E+01  0.75291E+05
 0.70700002E+01  0.80706E+05
 0.71200004E+01  0.84288E+05
 0.71700006E+01  0.88887E+05
 0.72199998E+01  0.93891E+05
 0.72700000E+01  0.96490E+05
 0.73200002E+01  0.10124E+06
 0.73700004E+01  0.10453E+06
 0.74200006E+01  0.10507E+06
 0.74699998E+01  0.10779E+06
 0.75200000E+01  0.10919E+06
 0.75700002E+01  0.10701E+06
 0.76200004E+01  0.10307E+06
 0.76700006E+01  0.10323E+06
 0.77199998E+01  0.10785E+06
 0.77700000E+01  0.11024E+06
 0.78200002E+01  0.10798E+06
 0.78700004E+01  0.98945E+05
 0.79200006E+01  0.86222E+05
 0.79699998E+01  0.74511E+05
 0.80200005E+01  0.60022E+05
 0.80699997E+01  0.44165E+05
 0.81200008E+01  0.27748E+05
 0.81700001E+01  0.89650E+04
 0.82199993E+01 -0.12280E+05
 0.82700005E+01 -0.32994E+05
 0.83199997E+01 -0.46648E+05
 0.83700008E+01 -0.54689E+05
 0.84200001E+01 -0.65414E+05
 0.84699993E+01 -0.71280E+05
 0.85200005E+01 -0.96883E+05
 0.85699997E+01 -0.98891E+05
 0.86200008E+01 -0.21683E+06
 0.86700001E+01 -0.87438E+06
 0.87199993E+01 -0.10327E+07
 0.87700005E+01  0.52349E+06
 0.88199997E+01  0.14256E+07
 0.88700008E+01  0.33811E+05
 0.89200001E+01 -0.12074E+07
 0.89699993E+01 -0.16333E+07
 0.90200005E+01 -0.14912E+07
 0.90699997E+01 -0.62441E+06
 0.91200008E+01 -0.24698E+06
 0.91700001E+01  0.14530E+06
 0.92199993E+01 -0.47491E+06
 0.92700005E+01 -0.15206E+07
 0.93199997E+01 -0.33362E+06
 0.93700008E+01  0.52820E+06
 0.94200001E+01 -0.79565E+06
 0.94699993E+01 -0.19101E+07
 0.95200005E+01  0.32532E+06
 0.95699997E+01  0.13614E+06
 0.96200008E+01 -0.51221E+07
 0.96700001E+01 -0.28878E+07
 0.97199993E+01  0.40751E+07
 0.97700005E+01  0.62092E+07
 0.98199997E+01  0.17073E+07
 0.98700008E+01 -0.10243E+08
 0.99200001E+01 -0.79461E+07
 0.99699993E+01  0.55661E+07
 0.10020000E+02  0.47506E+07
 0.10070000E+02 -0.66864E+06
 0.10120001E+02  0.30731E+06
 0.10170000E+02  0.69123E+07
 0.10219999E+02  0.82140E+07
 0.10270000E+02  0.69706E+07
 0.10320000E+02  0.12278E+07
 0.10370001E+02 -0.10261E+08
 0.10420000E+02 -0.19639E+07
 0.10469999E+02  0.53908E+07
 0.10520000E+02  0.54321E+07
 0.10570000E+02  0.31794E+07
 0.10620001E+02 -0.10549E+07
 0.10670000E+02  0.38064E+07
 0.10719999E+02 -0.88957E+07
 0.10770000E+02 -0.91653E+07
 0.10820000E+02  0.34712E+07
 0.10870001E+02 -0.29988E+07
 0.10920000E+02 -0.41142E+07
 0.10969999E+02 -0.29734E+07
 0.11020000E+02  0.87149E+07
 0.11070000E+02  0.84705E+07
 0.11120001E+02 -0.12695E+08
 0.11170000E+02 -0.62428E+07
 0.11219999E+02  0.64242E+07
 0.11270000E+02 -0.37970E+07
 0.11320000E+02 -0.82737E+07
 0.11370001E+02  0.58891E+07
 0.11420000E+02  0.92584E+07
 0.11469999E+02 -0.22362E+07
 0.11520000E+02 -0.36921E+07
 0.11570000E+02  0.49611E+07
 0.11620001E+02 -0.66520E+06
 0.11670000E+02 -0.14559E+08
 0.11719999E+02 -0.75140E+07
 0.11770000E+02  0.83493E+07
 0.11820000E+02  0.10642E+08
 0.11870001E+02  0.29448E+07
 0.11920000E+02  0.29192E+07
 0.11969999E+02  0.44280E+07
 0.12020000E+02 -0.30237E+07
 0.12070000E+02 -0.63073E+07
 0.12120001E+02  0.25197E+07
 0.12170000E+02  0.98505E+07
 0.12219999E+02  0.15227E+07
 0.12270000E+02  0.90231E+06
 0.12320000E+02  0.77624E+07
 0.12370001E+02  0.48617E+07
 0.12420000E+02 -0.10693E+07
 0.12469999E+02 -0.48848E+07
 0.12520000E+02  0.12223E+07
 0.12570000E+02  0.69354E+07
 0.12620001E+02  0.39008E+07
 0.12670000E+02 -0.16465E+07
 0.12719999E+02 -0.40160E+07
 0.12770000E+02  0.18244E+07
 0.12820000E+02  0.15663E+07
 0.12870001E+02 -0.63289E+07
 0.12920000E+02 -0.55291E+07
 0.12969999E+02 -0.36056E+07
 0.13020000E+02  0.21317E+07
 0.13070002E+02  0.44337E+07
 0.13120001E+02  0.52105E+06
 0.13170000E+02  0.39600E+07
 0.13220001E+02 -0.52298E+07
 0.13270000E+02 -0.83610E+07
 0.13320002E+02  0.21493E+07
 0.13370001E+02  0.65728E+07
 0.13420000E+02  0.30939E+07
 0.13470001E+02 -0.38465E+07
 0.13520000E+02  0.44878E+07
 0.13570002E+02  0.94605E+06
 0.13620001E+02 -0.15511E+08
 0.13670000E+02 -0.17667E+08
 0.13720001E+02 -0.11060E+08
 0.13770000E+02  0.31083E+07
 0.13820002E+02  0.11349E+08
 0.13870001E+02  0.64957E+07
 0.13920000E+02 -0.31920E+07
 0.13970001E+02 -0.10596E+08
 0.14020000E+02 -0.15860E+08
 0.14070002E+02 -0.16746E+08
 0.14120001E+02 -0.16428E+08
 0.14170000E+02 -0.21951E+08
 0.14220001E+02 -0.27728E+08
 0.14270000E+02 -0.35231E+08
 0.14320002E+02 -0.38446E+08
 0.14370001E+02 -0.39464E+08
 0.14420000E+02 -0.27597E+08
 0.14470001E+02  0.11755E+07
 0.14520000E+02  0.13458E+08
 0.14570002E+02  0.22298E+08
 0.14620001E+02  0.21785E+08
 0.14670000E+02  0.51593E+07
 0.14720001E+02 -0.56578E+07
 0.14770000E+02 -0.13627E+07
 0.14820002E+02  0.18716E+08
 0.14870001E+02  0.14723E+08
 0.14920000E+02  0.85335E+07
 0.14970001E+02  0.24065E+08
 0.15020000E+02  0.32440E+08
 0.15070002E+02  0.19705E+08
 0.15120001E+02  0.13379E+08
 0.15170000E+02  0.25976E+08
 0.15220001E+02  0.24948E+08
 0.15270000E+02  0.21186E+08
 0.15320002E+02  0.63357E+07
 0.15370001E+02 -0.92190E+07
 0.15420000E+02 -0.56781E+07
 0.15470001E+02 -0.34968E+07
 0.15520000E+02 -0.78991E+07
 0.15570002E+02 -0.21401E+08
 0.15620001E+02 -0.22845E+08
 0.15670000E+02 -0.18117E+08
 0.15720001E+02 -0.20100E+08
 0.15770000E+02 -0.16673E+08
 0.15820002E+02 -0.16293E+08
 0.15870001E+02 -0.93915E+07
 0.15920000E+02 -0.73734E+07
 0.15970001E+02 -0.12388E+08
 0.16020000E+02 -0.18396E+08
 0.16070002E+02 -0.35931E+08
 0.16120001E+02 -0.39463E+08
 0.16170000E+02 -0.38785E+08
 0.16220001E+02 -0.32506E+08
 0.16270000E+02 -0.21668E+08
 0.16320002E+02 -0.22792E+08
 0.16370001E+02 -0.98793E+07
 0.16420000E+02  0.90048E+07
 0.16470001E+02  0.75784E+07
 0.16520000E+02 -0.34117E+07
 0.16570002E+02 -0.75530E+07
 0.16620001E+02 -0.35279E+07
 0.16670000E+02  0.15840E+08
 0.16720001E+02  0.35141E+08
 0.16770000E+02  0.38386E+08
 0.16820002E+02  0.37924E+08
 0.16870001E+02  0.40200E+08
 0.16920000E+02  0.32418E+08
 0.16970001E+02  0.25857E+08
 0.17020000E+02  0.37968E+08
 0.17070002E+02  0.37881E+08
 0.17120001E+02  0.35552E+08
 0.17170000E+02  0.38924E+08
 0.17220001E+02  0.31989E+08
 0.17270000E+02  0.27975E+08
 0.17320002E+02  0.28897E+08
 0.17370001E+02  0.36616E+08
 0.17420000E+02  0.34855E+08
 0.17470001E+02  0.33176E+08
 0.17520000E+02  0.40191E+08
 0.17570002E+02  0.37816E+08
 0.17620001E+02  0.38739E+08
 0.17670000E+02  0.38577E+08
 0.17720001E+02  0.33905E+08
 0.17770000E+02  0.34505E+08
 0.17820002E+02  0.36931E+08
 0.17870001E+02  0.32214E+08
 0.17920000E+02  0.27471E+08
 0.17970001E+02  0.33192E+08
 0.18020000E+02  0.35429E+08
 0.18070002E+02  0.31202E+08
 0.18120001E+02  0.31979E+08
 0.18170000E+02  0.37394E+08
 0.18220001E+02  0.34303E+08
 0.18270000E+02  0.29423E+08
 0.18320002E+02  0.29779E+08
 0.18370001E+02  0.28771E+08
 0.18420000E+02  0.28766E+08
 0.18470001E+02  0.28421E+08
 0.18520000E+02  0.28959E+08
 0.18570002E+02  0.28183E+08
 0.18620001E+02  0.32427E+08
 0.18670000E+02  0.38854E+08
 0.18720001E+02  0.39027E+08
 0.18770000E+02  0.38768E+08
 0.18820002E+02  0.33525E+08
 0.18870001E+02  0.23994E+08
 0.18920000E+02  0.14485E+08
 0.18970001E+02  0.12052E+08
 0.19020000E+02  0.14471E+08
 0.19070002E+02  0.11719E+08
 0.19120001E+02  0.19926E+07
 0.19170000E+02  0.24447E+07
 0.19220001E+02  0.21563E+08
 0.19270000E+02  0.29614E+08
 0.19320002E+02  0.24412E+08
 0.19370001E+02  0.14984E+08
 0.19420000E+02  0.11941E+08
 0.19470001E+02  0.22944E+08
 0.19520000E+02  0.27125E+08
 0.19570002E+02  0.28496E+08
 0.19620001E+02  0.27638E+08
 0.19670000E+02  0.22071E+08
 0.19720001E+02  0.23661E+08
 0.19770000E+02  0.27655E+08
 0.19820002E+02  0.29315E+08
 0.19870001E+02  0.33225E+08
 0.19920000E+02  0.33123E+08
 0.19970001E+02  0.30242E+08
 0.20020000E+02  0.36806E+08
 0.20070002E+02  0.39312E+08
 0.20120001E+02  0.38214E+08
 0.20170000E+02  0.37019E+08
 0.20220001E+02  0.26708E+08
 0.20270000E+02  0.15352E+08
 0.20320002E+02  0.84073E+07
 0.20370001E+02  0.90170E+07
 0.20420000E+02  0.12203E+08
 0.20470001E+02  0.11577E+08
 0.20520000E+02  0.71275E+07
 0.20570002E+02  0.60740E+07
 0.20620001E+02  0.17808E+08
 0.20670000E+02  0.27890E+08
 0.20720001E+02  0.24954E+08
 0.20770000E+02  0.20605E+08
 0.20820002E+02  0.22682E+08
 0.20870001E+02  0.25430E+08
 0.20920000E+02  0.23919E+08
 0.20970001E+02  0.17915E+08
 0.21020000E+02  0.10077E+08
 0.21070002E+02  0.11747E+08
 0.21120001E+02  0.15522E+08
 0.21170000E+02  0.74200E+07
 0.21220001E+02 -0.25861E+07
 0.21270000E+02 -0.10306E+08
 0.21320002E+02 -0.12593E+08
 0.21370001E+02 -0.39371E+07
 0.21420000E+02  0.18536E+07
 0.21470001E+02 -0.22882E+07
 0.21520000E+02 -0.76363E+07
 0.21570002E+02 -0.13309E+08
 0.21620001E+02 -0.15636E+08
 0.21670000E+02 -0.67520E+07
 0.21720001E+02  0.96378E+07
 0.21770000E+02  0.24410E+08
 0.21820002E+02  0.28239E+08
 0.21870001E+02  0.28045E+08
 0.21920000E+02  0.35003E+08
 0.21970001E+02  0.39340E+08
 0.22020000E+02  0.38327E+08
 0.22070002E+02  0.39232E+08
 0.22120001E+02  0.38277E+08
 0.22170000E+02  0.33659E+08
 0.22220001E+02  0.25278E+08
 0.22270000E+02  0.14023E+08
 0.22320002E+02  0.75304E+07
 0.22370001E+02  0.24195E+07
 0.22420000E+02 -0.90095E+06
 0.22470001E+02  0.25087E+07
 0.22520000E+02  0.57193E+07
 0.22570002E+02  0.56490E+07
 0.22620001E+02  0.37576E+07
 0.22670000E+02  0.21463E+07
 0.22720001E+02  0.37154E+07
 0.22770000E+02  0.98688E+07
 0.22820002E+02  0.14095E+08
 0.22870001E+02  0.13973E+08
 0.22920000E+02  0.16376E+08
 0.22970001E+02  0.18393E+08
 0.23020000E+02  0.16709E+08
 0.23070002E+02  0.14457E+08
 0.23120001E+02  0.11851E+08
 0.23170000E+02  0.83668E+07
 0.23220001E+02  0.80445E+07
 0.23270000E+02  0.13208E+08
 0.23320002E+02  0.17810E+08
 0.23370001E+02  0.20634E+08
 0.23420000E+02  0.21642E+08
 0.23470001E+02  0.17259E+08
 0.23520000E+02  0.14613E+08
 0.23570002E+02  0.16817E+08
 0.23620001E+02  0.14324E+08
 0.23670000E+02  0.12021E+08
 0.23720001E+02  0.15408E+08
 0.23770000E+02  0.16507E+08
 0.23820002E+02  0.17746E+08
 0.23870001E+02  0.18987E+08
 0.23920000E+02  0.21692E+08
 0.23970001E+02  0.25735E+08
 0.24020000E+02  0.22710E+08
 0.24070002E+02  0.16425E+08
 0.24120001E+02  0.13309E+08
 0.24170000E+02  0.12719E+08
 0.24220001E+02  0.71297E+07
 0.24270000E+02  0.21326E+07
 0.24320002E+02  0.42827E+07
 0.24370001E+02  0.10019E+08
 0.24420000E+02  0.14713E+08
 0.24470001E+02  0.12637E+08
 0.24520000E+02  0.11162E+08
 0.24570002E+02  0.13134E+08
 0.24620001E+02  0.15393E+08
 0.24670000E+02  0.16228E+08
 0.24720001E+02  0.17124E+08
 0.24770000E+02  0.20687E+08
 0.24820002E+02  0.21976E+08
 0.24870001E+02  0.21907E+08
 0.24920000E+02  0.21387E+08
 0.24970001E+02  0.18497E+08
 0.25020000E+02  0.14893E+08
 0.25070002E+02  0.14305E+08
 0.25120001E+02  0.15757E+08
 0.25170000E+02  0.15539E+08
 0.25220001E+02  0.15907E+08
 0.25270000E+02  0.14084E+08
 0.25320002E+02  0.77696E+07
 0.25370001E+02  0.28256E+07
 0.25420000E+02  0.20373E+07
 0.25470001E+02  0.31777E+07
 0.25520000E+02  0.38861E+07
 0.25570002E+02  0.52034E+07
 0.25620001E+02  0.78668E+07
 0.25670000E+02  0.11592E+08
 0.25720001E+02  0.17177E+08
 0.25770000E+02  0.23434E+08
 0.25820002E+02  0.27191E+08
 0.25870001E+02  0.26079E+08
 0.25920000E+02  0.22703E+08
 0.25970001E+02  0.18865E+08
 0.26020000E+02  0.14987E+08
 0.26070002E+02  0.11356E+08
 0.26120001E+02  0.75284E+07
 0.26170000E+02  0.70549E+07
 0.26220001E+02  0.60696E+07
 0.26270000E+02  0.34742E+07
 0.26320002E+02  0.43678E+07
 0.26370001E+02  0.52169E+07
 0.26420000E+02  0.58630E+07
 0.26470001E+02  0.46204E+07
 0.26520000E+02  0.16345E+07
 0.26570002E+02  0.53283E+07
 0.26620001E+02  0.10809E+08
 0.26670000E+02  0.11658E+08
 0.26720001E+02  0.11028E+08
 0.26770000E+02  0.10846E+08
 0.26820002E+02  0.12682E+08
 0.26870001E+02  0.14956E+08
 0.26920000E+02  0.17989E+08
 0.26970001E+02  0.22664E+08
 0.27020000E+02  0.24978E+08
 0.27070002E+02  0.25785E+08
 0.27120001E+02  0.25224E+08
 0.27170000E+02  0.19747E+08
 0.27220001E+02  0.12298E+08
 0.27270000E+02  0.66155E+07
 0.27320002E+02  0.42670E+07
 0.27370001E+02  0.57894E+07
 0.27420000E+02  0.80139E+07
 0.27470001E+02  0.80446E+07
 0.27520000E+02  0.53871E+07
 0.27570002E+02  0.29375E+07
 0.27620001E+02  0.13669E+07
 0.27670000E+02  0.14856E+07
 0.27720001E+02  0.49547E+07
 0.27770000E+02  0.77302E+07
 0.27820002E+02  0.96171E+07
 0.27870001E+02  0.12336E+08
 0.27920000E+02  0.15556E+08
 0.27970001E+02  0.18430E+08
 0.28020000E+02  0.20545E+08
 0.28070002E+02  0.21568E+08
 0.28120001E+02  0.20321E+08
 0.28170000E+02  0.19025E+08
 0.28220001E+02  0.17398E+08
 0.28270000E+02  0.14692E+08
 0.28320002E+02  0.12824E+08
 0.28370001E+02  0.13289E+08
 0.28420000E+02  0.13377E+08
 0.28470001E+02  0.11231E+08
 0.28520000E+02  0.10142E+08
 0.28570002E+02  0.98889E+07
 0.28620001E+02  0.98555E+07
 0.28670000E+02  0.94339E+07
 0.28720001E+02  0.97479E+07
 0.28770000E+02  0.10804E+08
 0.28820002E+02  0.11995E+08
 0.28870001E+02  0.13849E+08
 0.28920000E+02  0.13466E+08
 0.28970001E+02  0.10810E+08
 0.29020000E+02  0.81747E+07
 0.29070000E+02  0.73093E+07
 0.29120003E+02  0.75051E+07
 0.29170002E+02  0.97996E+07
 0.29220001E+02  0.11560E+08
 0.29270000E+02  0.96924E+07
 0.29320000E+02  0.89727E+07
 0.29370003E+02  0.10572E+08
 0.29420002E+02  0.12517E+08
 0.29470001E+02  0.13403E+08
 0.29520000E+02  0.13374E+08
 0.29570000E+02  0.14010E+08
 0.29620003E+02  0.14565E+08
 0.29670002E+02  0.12725E+08
 0.29720001E+02  0.93948E+07
 0.29770000E+02  0.68894E+07
 0.29820000E+02  0.54296E+07
 0.29870003E+02  0.39231E+07
 0.29920002E+02  0.27477E+07
 0.29970001E+02  0.32264E+07
 0.30020000E+02  0.51303E+07
 0.30070000E+02  0.76320E+07
 0.30120003E+02  0.93612E+07
 0.30170002E+02  0.10289E+08
 0.30220001E+02  0.10183E+08
 0.30270000E+02  0.90789E+07
 0.30320000E+02  0.95921E+07
 0.30370003E+02  0.12623E+08
 0.30420002E+02  0.15567E+08
 0.30470001E+02  0.17463E+08
 0.30520000E+02  0.18682E+08
 0.30570000E+02  0.19342E+08
 0.30620003E+02  0.20067E+08
 0.30670002E+02  0.19521E+08
 0.30720001E+02  0.17571E+08
 0.30770000E+02  0.14941E+08
 0.30820000E+02  0.11461E+08
 0.30870003E+02  0.75488E+07
 0.30920002E+02  0.40217E+07
 0.30970001E+02  0.22443E+07
 0.31020000E+02  0.30542E+06
 0.31070000E+02 -0.15037E+07
 0.31120003E+02  0.24602E+06
 0.31170002E+02  0.28696E+07
 0.31220001E+02  0.36490E+07
 0.31270000E+02  0.37552E+07
 0.31320000E+02  0.43155E+07
 0.31370003E+02  0.54871E+07
 0.31420002E+02  0.61552E+07
 0.31470001E+02  0.53577E+07
 0.31520000E+02  0.41674E+07
 0.31570000E+02  0.44900E+07
 0.31620003E+02  0.67561E+07
 0.31670002E+02  0.99172E+07
 0.31720001E+02  0.12374E+08
 0.31770000E+02  0.11220E+08
 0.31820000E+02  0.86361E+07
 0.31870003E+02  0.95582E+07
 0.31920002E+02  0.11196E+08
 0.31970001E+02  0.12935E+08
 0.32020000E+02  0.14842E+08
 0.32070000E+02  0.14749E+08
 0.32120003E+02  0.14557E+08
 0.32170002E+02  0.14796E+08
 0.32220001E+02  0.15655E+08
 0.32270000E+02  0.17072E+08
 0.32320000E+02  0.18245E+08
 0.32370003E+02  0.19779E+08
 0.32420002E+02  0.20407E+08
 0.32470001E+02  0.18904E+08
 0.32520000E+02  0.17667E+08
 0.32570000E+02  0.18579E+08
 0.32620003E+02  0.19650E+08
 0.32670002E+02  0.19713E+08
 0.32720001E+02  0.19259E+08
 0.32770000E+02  0.16586E+08
 0.32820000E+02  0.12257E+08
 0.32870003E+02  0.85557E+07
 0.32920002E+02  0.48185E+07
 0.32970001E+02  0.74526E+06
 0.33020000E+02 -0.30797E+07
 0.33070000E+02 -0.58503E+07
 0.33120003E+02 -0.62928E+07
 0.33170002E+02 -0.51466E+07
 0.33220001E+02 -0.37890E+07
 0.33270000E+02 -0.26083E+07
 0.33320000E+02 -0.12680E+07
 0.33370003E+02  0.70254E+06
 0.33420002E+02  0.28512E+07
 0.33470001E+02  0.51405E+07
 0.33520000E+02  0.74671E+07
 0.33570000E+02  0.85553E+07
 0.33620003E+02  0.76745E+07
 0.33670002E+02  0.70279E+07
 0.33720001E+02  0.84905E+07
 0.33770000E+02  0.11286E+08
 0.33820000E+02  0.13305E+08
 0.33870003E+02  0.13325E+08
 0.33920002E+02  0.13227E+08
 0.33970001E+02  0.13810E+08
 0.34020000E+02  0.14955E+08
 0.34070000E+02  0.15546E+08
 0.34120003E+02  0.15014E+08
 0.34170002E+02  0.14013E+08
 0.34220001E+02  0.11475E+08
 0.34270000E+02  0.88538E+07
 0.34320000E+02  0.79597E+07
 0.34370003E+02  0.81924E+07
 0.34420002E+02  0.79927E+07
 0.34470001E+02  0.69997E+07
 0.34520000E+02  0.64324E+07
 0.34570000E+02  0.69767E+07
 0.34620003E+02  0.84628E+07
 0.34670002E+02  0.10065E+08
 0.34720001E+02  0.11316E+08
 0.34770000E+02  0.12085E+08
 0.34820000E+02  0.12674E+08
 0.34870003E+02  0.12460E+08
 0.34920002E+02  0.10939E+08
 0.34970001E+02  0.95483E+07
 0.35020000E+02  0.84349E+07
 0.35070000E+02  0.75453E+07
 0.35120003E+02  0.67183E+07
 0.35170002E+02  0.47385E+07
 0.35220001E+02  0.23902E+07
 0.35270000E+02  0.69606E+06
 0.35320000E+02  0.16630E+07
 0.35370003E+02  0.45175E+07
 0.35420002E+02  0.53626E+07
 0.35470001E+02  0.51993E+07
 0.35520000E+02  0.47441E+07
 0.35570000E+02  0.46699E+07
 0.35620003E+02  0.65352E+07
 0.35670002E+02  0.81726E+07
 0.35720001E+02  0.82114E+07
 0.35770000E+02  0.80378E+07
 0.35820000E+02  0.87630E+07
 0.35870003E+02  0.85322E+07
 0.35920002E+02  0.75761E+07
 0.35970001E+02  0.80055E+07
 0.36020000E+02  0.97822E+07
 0.36070000E+02  0.12117E+08
 0.36120003E+02  0.12649E+08
 0.36170002E+02  0.11442E+08
 0.36220001E+02  0.10993E+08
 0.36270000E+02  0.12104E+08
 0.36320000E+02  0.13649E+08
 0.36370003E+02  0.14604E+08
 0.36420002E+02  0.14676E+08
 0.36470001E+02  0.13403E+08
 0.36520000E+02  0.11075E+08
 0.36570000E+02  0.89752E+07
 0.36620003E+02  0.75492E+07
 0.36670002E+02  0.63063E+07
 0.36720001E+02  0.49827E+07
 0.36770000E+02  0.41785E+07
 0.36820000E+02  0.46444E+07
 0.36870003E+02  0.47323E+07
 0.36920002E+02  0.42798E+07
 0.36970001E+02  0.39965E+07
 0.37020000E+02  0.33241E+07
 0.37070000E+02  0.31162E+07
 0.37120003E+02  0.33547E+07
 0.37170002E+02  0.26162E+07
 0.37220001E+02  0.17228E+07
 0.37270000E+02  0.23516E+07
 0.37320000E+02  0.23562E+07
 0.37370003E+02  0.12974E+07
 0.37420002E+02  0.15775E+07
 0.37470001E+02  0.31315E+07
 0.37520000E+02  0.43954E+07
 0.37570000E+02  0.53143E+07
 0.37620003E+02  0.72838E+07
 0.37670002E+02  0.88236E+07
 0.37720001E+02  0.88343E+07
 0.37770000E+02  0.83258E+07
 0.37820000E+02  0.74933E+07
 0.37870003E+02  0.73051E+07
 0.37920002E+02  0.82074E+07
 0.37970001E+02  0.90935E+07
 0.38020000E+02  0.10297E+08
 0.38070000E+02  0.11599E+08
 0.38120003E+02  0.10881E+08
 0.38170002E+02  0.90453E+07
 0.38220001E+02  0.81371E+07
 0.38270000E+02  0.85398E+07
 0.38320000E+02  0.86149E+07
 0.38370003E+02  0.82230E+07
 0.38420002E+02  0.86755E+07
 0.38470001E+02  0.83047E+07
 0.38520000E+02  0.69864E+07
 0.38570000E+02  0.46545E+07
 0.38620003E+02  0.26043E+07
 0.38670002E+02  0.32177E+07
 0.38720001E+02  0.36029E+07
 0.38770000E+02  0.28544E+07
 0.38820000E+02  0.20644E+07
 0.38870003E+02  0.48428E+06
 0.38920002E+02 -0.13294E+06
 0.38970001E+02  0.10177E+07
 0.39020000E+02  0.29226E+07
 0.39070000E+02  0.44976E+07
 0.39120003E+02  0.43945E+07
 0.39170002E+02  0.36865E+07
 0.39220001E+02  0.40924E+07
 0.39270000E+02  0.60809E+07
 0.39320000E+02  0.81509E+07
 0.39370003E+02  0.84866E+07
 0.39420002E+02  0.76534E+07
 0.39470001E+02  0.71898E+07
 0.39520000E+02  0.67032E+07
 0.39570000E+02  0.53559E+07
 0.39620003E+02  0.50902E+07
 0.39670002E+02  0.60043E+07
 0.39720001E+02  0.60666E+07
 0.39770000E+02  0.53399E+07
 0.39820000E+02  0.53152E+07
 0.39870003E+02  0.59515E+07
 0.39920002E+02  0.66114E+07
 0.39970001E+02  0.86415E+07
 0.40020000E+02  0.11194E+08
 0.40070000E+02  0.12466E+08
 0.40120003E+02  0.12784E+08
 0.40170002E+02  0.12699E+08
 0.40220001E+02  0.12604E+08
 0.40270000E+02  0.12753E+08
 0.40320000E+02  0.12470E+08
 0.40370003E+02  0.11073E+08
 0.40420002E+02  0.93976E+07
 0.40470001E+02  0.70814E+07
 0.40520000E+02  0.47839E+07
 0.40570000E+02  0.43193E+07
 0.40620003E+02  0.46672E+07
 0.40670002E+02  0.49611E+07
 0.40720001E+02  0.50786E+07
 0.40770000E+02  0.48641E+07
 0.40820000E+02  0.44988E+07
 0.40870003E+02  0.41169E+07
 0.40920002E+02  0.36777E+07
 0.40970001E+02  0.24378E+07
 0.41020000E+02  0.10048E+07
 0.41070000E+02  0.53447E+06
 0.41120003E+02 -0.10366E+06
 0.41170002E+02 -0.14888E+07
 0.41220001E+02 -0.21715E+07
 0.41270000E+02 -0.13812E+07
 0.41320000E+02  0.37510E+06
 0.41370003E+02  0.21822E+07
 0.41420002E+02  0.30733E+07
 0.41470001E+02  0.33356E+07
 0.41520000E+02  0.33675E+07
 0.41570000E+02  0.28535E+07
 0.41620003E+02  0.27974E+07
 0.41670002E+02  0.35241E+07
 0.41720001E+02  0.46193E+07
 0.41770000E+02  0.67713E+07
 0.41820000E+02  0.89056E+07
 0.41870003E+02  0.96974E+07
 0.41920002E+02  0.99786E+07
 0.41970001E+02  0.10177E+08
 0.42020000E+02  0.10506E+08
 0.42070000E+02  0.10573E+08
 0.42120003E+02  0.96931E+07
 0.42170002E+02  0.89024E+07
 0.42220001E+02  0.88798E+07
 0.42270000E+02  0.91895E+07
 0.42320000E+02  0.92950E+07
 0.42370003E+02  0.91338E+07
 0.42420002E+02  0.90554E+07
 0.42470001E+02  0.86119E+07
 0.42520000E+02  0.81873E+07
 0.42570000E+02  0.83795E+07
 0.42620003E+02  0.84320E+07
 0.42670002E+02  0.88722E+07
 0.42720001E+02  0.89362E+07
 0.42770000E+02  0.72433E+07
 0.42820000E+02  0.54251E+07
 0.42870003E+02  0.45692E+07
 0.42920002E+02  0.40512E+07
 0.42970001E+02  0.31851E+07
 0.43020000E+02  0.26135E+07
 0.43070000E+02  0.24419E+07
 0.43120003E+02  0.24842E+07
 0.43170002E+02  0.28871E+07
 0.43220001E+02  0.26554E+07
 0.43270000E+02  0.16804E+07
 0.43320000E+02  0.17673E+06
 0.43370003E+02 -0.11233E+07
 0.43420002E+02 -0.21658E+07
 0.43470001E+02 -0.27309E+07
 0.43520000E+02 -0.15903E+07
 0.43570000E+02  0.74805E+05
 0.43620003E+02  0.12318E+07
 0.43670002E+02  0.23868E+07
 0.43720001E+02  0.40741E+07
 0.43770000E+02  0.52454E+07
 0.43820000E+02  0.56446E+07
 0.43870003E+02  0.64618E+07
 0.43920002E+02  0.68664E+07
 0.43970001E+02  0.72883E+07
 0.44020000E+02  0.81343E+07
 0.44070000E+02  0.82773E+07
 0.44120003E+02  0.79527E+07
 0.44170002E+02  0.77410E+07
 0.44220001E+02  0.76125E+07
 0.44270000E+02  0.78062E+07
 0.44320000E+02  0.85603E+07
 0.44370003E+02  0.90553E+07
 0.44420002E+02  0.90275E+07
 0.44470001E+02  0.85490E+07
 0.44520000E+02  0.82416E+07
 0.44570000E+02  0.80124E+07
 0.44620003E+02  0.69055E+07
 0.44670002E+02  0.53959E+07
 0.44720001E+02  0.37737E+07
 0.44770000E+02  0.26644E+07
 0.44820000E+02  0.23932E+07
 0.44870003E+02  0.22860E+07
 0.44920002E+02  0.17054E+07
 0.44970001E+02  0.12722E+07
 0.45020000E+02  0.16095E+07
 0.45070000E+02  0.21499E+07
 0.45120003E+02  0.24545E+07
 0.45170002E+02  0.19318E+07
 0.45220001E+02  0.12576E+07
 0.45270000E+02  0.13689E+07
 0.45320000E+02  0.21538E+07
 0.45370003E+02  0.22753E+07
 0.45420002E+02  0.17044E+07
 0.45470001E+02  0.17169E+07
 0.45520000E+02  0.17455E+07
 0.45570000E+02  0.20246E+07
 0.45620003E+02  0.27812E+07
 0.45670002E+02  0.36268E+07
 0.45720001E+02  0.38720E+07
 0.45770000E+02  0.32424E+07
 0.45820000E+02  0.29387E+07
 0.45870003E+02  0.30077E+07
 0.45920002E+02  0.33162E+07
 0.45970001E+02  0.41575E+07
 0.46020000E+02  0.52862E+07
 0.46070000E+02  0.60877E+07
 0.46120003E+02  0.64972E+07
 0.46170002E+02  0.70362E+07
 0.46220001E+02  0.73690E+07
 0.46270000E+02  0.70062E+07
 0.46320000E+02  0.61339E+07
 0.46370003E+02  0.59041E+07
 0.46420002E+02  0.67415E+07
 0.46470001E+02  0.73364E+07
 0.46520000E+02  0.69454E+07
 0.46570000E+02  0.55860E+07
 0.46620003E+02  0.42414E+07
 0.46670002E+02  0.39894E+07
 0.46720001E+02  0.39442E+07
 0.46770000E+02  0.34685E+07
 0.46820000E+02  0.29464E+07
 0.46870003E+02  0.22353E+07
 0.46920002E+02  0.92205E+06
 0.46970001E+02 -0.38176E+06
 0.47020000E+02 -0.63972E+06
 0.47070000E+02  0.25222E+05
 0.47120003E+02  0.88119E+06
 0.47170002E+02  0.60156E+06
 0.47220001E+02 -0.61057E+06
 0.47270000E+02 -0.13897E+07
 0.47320000E+02 -0.17900E+07
 0.47370003E+02 -0.11760E+07
 0.47420002E+02  0.10678E+06
 0.47470001E+02  0.90088E+06
 0.47520000E+02  0.15476E+07
 0.47570000E+02  0.23199E+07
 0.47620003E+02  0.32514E+07
 0.47670002E+02  0.36910E+07
 0.47720001E+02  0.36346E+07
 0.47770000E+02  0.35246E+07
 0.47820000E+02  0.36131E+07
 0.47870003E+02  0.37573E+07
 0.47920002E+02  0.31274E+07
 0.47970001E+02  0.24480E+07
 0.48020000E+02  0.21695E+07
 0.48070000E+02  0.24672E+07
 0.48120003E+02  0.33214E+07
 0.48170002E+02  0.39739E+07
 0.48220001E+02  0.43349E+07
 0.48270000E+02  0.39899E+07
 0.48320000E+02  0.38286E+07
 0.48370003E+02  0.43210E+07
 0.48420002E+02  0.43740E+07
 0.48470001E+02  0.42459E+07
 0.48520000E+02  0.40429E+07
 0.48570000E+02  0.40715E+07
 0.48620003E+02  0.48101E+07
 0.48670002E+02  0.55629E+07
 0.48720001E+02  0.57382E+07
 0.48770000E+02  0.53189E+07
 0.48820000E+02  0.45706E+07
 0.48870003E+02  0.33568E+07
 0.48920002E+02  0.20796E+07
 0.48970001E+02  0.15949E+07
 0.49020000E+02  0.17197E+07
 0.49070000E+02  0.15870E+07
 0.49120003E+02  0.98026E+06
 0.49170002E+02  0.48974E+06
 0.49220001E+02  0.23121E+05
 0.49270000E+02 -0.39891E+06
 0.49320000E+02 -0.42650E+06
 0.49370003E+02 -0.28558E+06
 0.49420002E+02 -0.66040E+04
 0.49470001E+02  0.61112E+06
 0.49520000E+02  0.14125E+07
 0.49570000E+02  0.20495E+07
 0.49620003E+02  0.25627E+07
 0.49670002E+02  0.28396E+07
 0.49720001E+02  0.27996E+07
 0.49770000E+02  0.28324E+07
 0.49820000E+02  0.33769E+07
 0.49870003E+02  0.41646E+07
 0.49920002E+02  0.46938E+07
 0.49970001E+02  0.50809E+07
 0.50020000E+02  0.54280E+07
 0.50070000E+02  0.59343E+07
 0.50120003E+02  0.62127E+07
 0.50170002E+02  0.61965E+07
 0.50220001E+02  0.60425E+07
 0.50270000E+02  0.54523E+07
 0.50320000E+02  0.49303E+07
 0.50370003E+02  0.45104E+07
 0.50420002E+02  0.42060E+07
 0.50470001E+02  0.44328E+07
 0.50520000E+02  0.49939E+07
 0.50570000E+02  0.59316E+07
 0.50620003E+02  0.67817E+07
 0.50670002E+02  0.67009E+07
 0.50720001E+02  0.65312E+07
 0.50770000E+02  0.65449E+07
 0.50820000E+02  0.59324E+07
 0.50870003E+02  0.49104E+07
 0.50920002E+02  0.35972E+07
 0.50970001E+02  0.21712E+07
 0.51020000E+02  0.93666E+06
 0.51070000E+02  0.28616E+06
 0.51120003E+02  0.27235E+06
 0.51170002E+02  0.25328E+05
 0.51220001E+02 -0.40129E+06
 0.51270000E+02 -0.66272E+06
 0.51320000E+02 -0.53447E+06
 0.51370003E+02 -0.39728E+06
 0.51420002E+02 -0.11642E+07
 0.51470001E+02 -0.19374E+07
 0.51520000E+02 -0.23437E+07
 0.51570000E+02 -0.24184E+07
 0.51620003E+02 -0.17450E+07
 0.51670002E+02 -0.12016E+07
 0.51720001E+02 -0.78727E+06
 0.51770000E+02  0.18759E+06
 0.51820000E+02  0.12870E+07
 0.51870003E+02  0.17373E+07
 0.51920002E+02  0.18159E+07
 0.51970001E+02  0.20864E+07
 0.52020000E+02  0.24349E+07
 0.52070000E+02  0.27099E+07
 0.52120003E+02  0.26663E+07
 0.52170002E+02  0.25448E+07
 0.52220001E+02  0.28613E+07
 0.52270000E+02  0.32926E+07
 0.52320000E+02  0.36046E+07
 0.52370003E+02  0.39028E+07
 0.52420002E+02  0.40268E+07
 0.52470001E+02  0.41992E+07
 0.52520000E+02  0.44041E+07
 0.52570000E+02  0.42794E+07
 0.52620003E+02  0.39844E+07
 0.52670002E+02  0.39572E+07
 0.52720001E+02  0.43036E+07
 0.52770000E+02  0.46317E+07
 0.52820000E+02  0.48111E+07
 0.52870003E+02  0.51373E+07
 0.52920002E+02  0.55178E+07
 0.52970001E+02  0.57144E+07
 0.53020000E+02  0.55557E+07
 0.53070000E+02  0.47047E+07
 0.53120003E+02  0.34327E+07
 0.53170002E+02  0.24573E+07
 0.53220001E+02  0.18864E+07
 0.53270000E+02  0.11960E+07
 0.53320000E+02  0.28557E+06
 0.53370003E+02 -0.74094E+06
 0.53420002E+02 -0.16094E+07
 0.53470001E+02 -0.18619E+07
 0.53520000E+02 -0.16414E+07
 0.53570000E+02 -0.14107E+07
 0.53620003E+02 -0.14682E+07
 0.53670002E+02 -0.14008E+07
 0.53720001E+02 -0.10064E+07
 0.53770000E+02 -0.41285E+06
 0.53820000E+02  0.19532E+06
 0.53870003E+02  0.67741E+06
 0.53920002E+02  0.12977E+07
 0.53970001E+02  0.16480E+07
 0.54020000E+02  0.16184E+07
 0.54070000E+02  0.18554E+07
 0.54120003E+02  0.20511E+07
 0.54170002E+02  0.19130E+07
 0.54220001E+02  0.16558E+07
 0.54270000E+02  0.88430E+06
 0.54320000E+02  0.39828E+06
 0.54370003E+02  0.87610E+06
 0.54420002E+02  0.14765E+07
 0.54470001E+02  0.20603E+07
 0.54520000E+02  0.26497E+07
 0.54570000E+02  0.32650E+07
 0.54620003E+02  0.37024E+07
 0.54670002E+02  0.35683E+07
 0.54720001E+02  0.28615E+07
 0.54770000E+02  0.18838E+07
 0.54820000E+02  0.12329E+07
 0.54870003E+02  0.68359E+06
 0.54920002E+02  0.19780E+06
 0.54970001E+02  0.15247E+05
 0.55020000E+02 -0.13433E+06
 0.55070000E+02 -0.20904E+06
 0.55120003E+02 -0.16778E+06
 0.55170002E+02  0.67308E+05
 0.55220001E+02  0.48087E+05
 0.55270000E+02 -0.55439E+06
 0.55320000E+02 -0.10976E+07
 0.55370003E+02 -0.11404E+07
 0.55420002E+02 -0.80068E+06
 0.55470001E+02 -0.70145E+06
 0.55520000E+02 -0.65950E+06
 0.55570000E+02 -0.35415E+06
 0.55620003E+02 -0.40308E+06
 0.55670002E+02 -0.75361E+06
 0.55720001E+02 -0.88960E+06
 0.55770000E+02 -0.41688E+06
 0.55820000E+02  0.47048E+06
 0.55870003E+02  0.13905E+07
 0.55920002E+02  0.22767E+07
 0.55970001E+02  0.27608E+07
 0.56020000E+02  0.28988E+07
 0.56070000E+02  0.28371E+07
 0.56120003E+02  0.28423E+07
 0.56170002E+02  0.30647E+07
 0.56220001E+02  0.29639E+07
 0.56270000E+02  0.25532E+07
 0.56320000E+02  0.21731E+07
 0.56370003E+02  0.20881E+07
 0.56420002E+02  0.21324E+07
 0.56470001E+02  0.18876E+07
 0.56520000E+02  0.13997E+07
 0.56570000E+02  0.95119E+06
 0.56620003E+02  0.88180E+06
 0.56670002E+02  0.11477E+07
 0.56720001E+02  0.15003E+07
 0.56770000E+02  0.14499E+07
 0.56820000E+02  0.11217E+07
 0.56870003E+02  0.13105E+07
 0.56920002E+02  0.17492E+07
 0.56970001E+02  0.19245E+07
 0.57020000E+02  0.18650E+07
 0.57070000E+02  0.17754E+07
 0.57120003E+02  0.18319E+07
 0.57170002E+02  0.19247E+07
 0.57220001E+02  0.18217E+07
 0.57270000E+02  0.16193E+07
 0.57320000E+02  0.15013E+07
 0.57370003E+02  0.15295E+07
 0.57420002E+02  0.18500E+07
 0.57470001E+02  0.20643E+07
 0.57520000E+02  0.19961E+07
 0.57570000E+02  0.19813E+07
 0.57620003E+02  0.17078E+07
 0.57670002E+02  0.10456E+07
 0.57720001E+02  0.47862E+06
 0.57770000E+02  0.95101E+05
 0.57820000E+02 -0.35738E+06
 0.57870003E+02 -0.73387E+06
 0.57920002E+02 -0.84195E+06
 0.57970001E+02 -0.87631E+06
 0.58020000E+02 -0.10935E+07
 0.58070000E+02 -0.14533E+07
 0.58120003E+02 -0.15316E+07
 0.58170002E+02 -0.13147E+07
 0.58220001E+02 -0.12357E+07
 0.58270000E+02 -0.15807E+07
 0.58320000E+02 -0.20742E+07
 0.58370003E+02 -0.21801E+07
 0.58420002E+02 -0.20386E+07
 0.58470001E+02 -0.18245E+07
 0.58520000E+02 -0.17474E+07
 0.58570000E+02 -0.19269E+07
 0.58620003E+02 -0.18066E+07
 0.58670002E+02 -0.13111E+07
 0.58720001E+02 -0.90586E+06
 0.58770000E+02 -0.65905E+06
 0.58820000E+02 -0.31836E+06
 0.58870003E+02  0.95311E+05
 0.58920002E+02  0.40545E+06
 0.58970001E+02  0.58432E+06
 0.59020000E+02  0.87983E+06
 0.59070000E+02  0.12157E+07
 0.59120003E+02  0.12433E+07
 0.59170002E+02  0.12930E+07
 0.59220001E+02  0.13516E+07
 0.59270000E+02  0.11080E+07
 0.59320000E+02  0.65006E+06
 0.59370003E+02  0.32910E+06
 0.59420002E+02  0.42116E+06
 0.59470001E+02  0.56856E+06
 0.59520000E+02  0.45794E+06
 0.59570000E+02  0.17312E+06
 0.59620003E+02 -0.84612E+05
 0.59670002E+02 -0.35425E+05
 0.59720001E+02  0.46499E+06
 0.59770000E+02  0.90833E+06
 0.59820000E+02  0.98526E+06
 0.59870003E+02  0.10102E+07
 0.59920002E+02  0.82151E+06
 0.59970001E+02  0.32654E+06
 0.60020000E+02 -0.11019E+06
 0.60070000E+02 -0.52003E+06
 0.60120003E+02 -0.84416E+06
 0.60170002E+02 -0.78378E+06
 0.60220001E+02 -0.47269E+06
 0.60270000E+02  0.28103E+05
 0.60320000E+02  0.49252E+06
 0.60370003E+02  0.69056E+06
 0.60420002E+02  0.84262E+06
 0.60470001E+02  0.86537E+06
 0.60520000E+02  0.63537E+06
 0.60570000E+02  0.54798E+06
 0.60620003E+02  0.72235E+06
 0.60670002E+02  0.61053E+06
 0.60720001E+02  0.31189E+06
 0.60770000E+02  0.14060E+06
 0.60820000E+02  0.85903E+05
 0.60870003E+02  0.55347E+06
 0.60920002E+02  0.11673E+07
 0.60970001E+02  0.12271E+07
 0.61020000E+02  0.11476E+07
 0.61070004E+02  0.13258E+07
 0.61119999E+02  0.16386E+07
 0.61170002E+02  0.18892E+07
 0.61220005E+02  0.18675E+07
 0.61270000E+02  0.16576E+07
 0.61320004E+02  0.14661E+07
 0.61369999E+02  0.13181E+07
 0.61420002E+02  0.11683E+07
 0.61470005E+02  0.97236E+06
 0.61520000E+02  0.58538E+06
 0.61570004E+02 -0.73657E+05
 0.61619999E+02 -0.76029E+06
 0.61670002E+02 -0.14831E+07
 0.61720005E+02 -0.21884E+07
 0.61770000E+02 -0.24482E+07
 0.61820004E+02 -0.24107E+07
 0.61869999E+02 -0.24125E+07
 0.61920002E+02 -0.23818E+07
 0.61970005E+02 -0.22631E+07
 0.62020000E+02 -0.21488E+07
 0.62070004E+02 -0.20520E+07
 0.62119999E+02 -0.19130E+07
 0.62170002E+02 -0.18457E+07
 0.62220005E+02 -0.19500E+07
 0.62270000E+02 -0.20797E+07
 0.62320004E+02 -0.20294E+07
 0.62369999E+02 -0.18221E+07
 0.62420002E+02 -0.15924E+07
 0.62470005E+02 -0.13447E+07
 0.62520000E+02 -0.10915E+07
 0.62570004E+02 -0.65584E+06
 0.62619999E+02 -0.26234E+06
 0.62670002E+02 -0.44791E+06
 0.62720005E+02 -0.88349E+06
 0.62770000E+02 -0.93996E+06
 0.62820004E+02 -0.63248E+06
 0.62869999E+02 -0.37706E+06
 0.62920002E+02 -0.17242E+06
 0.62970005E+02  0.79833E+05
 0.63020000E+02  0.44812E+06
 0.63070004E+02  0.94128E+06
 0.63119999E+02  0.12704E+07
 0.63170002E+02  0.15392E+07
 0.63220005E+02  0.19317E+07
 0.63270000E+02  0.22971E+07
 0.63320004E+02  0.22519E+07
 0.63369999E+02  0.19424E+07
 0.63420002E+02  0.18855E+07
 0.63470005E+02  0.17871E+07
 0.63520000E+02  0.13894E+07
 0.63570004E+02  0.95477E+06
 0.63619999E+02  0.64588E+06
 0.63670002E+02  0.29056E+06
 0.63720005E+02 -0.15365E+06
 0.63770000E+02 -0.58745E+06
 0.63820004E+02 -0.10924E+07
 0.63869999E+02 -0.14637E+07
 0.63920002E+02 -0.16814E+07
 0.63970005E+02 -0.18644E+07
 0.64019997E+02 -0.19600E+07
 0.64070000E+02 -0.20735E+07
 0.64119995E+02 -0.22086E+07
 0.64169998E+02 -0.22374E+07
 0.64220001E+02 -0.22230E+07
 0.64269997E+02 -0.20605E+07
 0.64320000E+02 -0.14921E+07
 0.64369995E+02 -0.99187E+06
 0.64419998E+02 -0.86848E+06
 0.64470001E+02 -0.86579E+06
 0.64519997E+02 -0.94172E+06
 0.64570000E+02 -0.10805E+07
 0.64619995E+02 -0.12264E+07
 0.64669998E+02 -0.12637E+07
 0.64720001E+02 -0.10704E+07
 0.64769997E+02 -0.66166E+06
 0.64820000E+02 -0.37013E+06
 0.64869995E+02 -0.33726E+06
 0.64919998E+02 -0.22460E+06
 0.64970001E+02  0.12712E+06
 0.65019997E+02  0.59682E+06
 0.65070000E+02  0.83665E+06
 0.65119995E+02  0.74018E+06
 0.65169998E+02  0.58473E+06
 0.65220001E+02  0.63429E+06
 0.65269997E+02  0.86762E+06
 0.65320000E+02  0.95131E+06
 0.65369995E+02  0.82479E+06
 0.65419998E+02  0.56097E+06
 0.65470001E+02  0.28872E+06
 0.65519997E+02  0.20734E+06
 0.65570000E+02  0.14205E+06
 0.65619995E+02 -0.96301E+05
 0.65669998E+02 -0.34887E+06
 0.65720001E+02 -0.65124E+06
 0.65769997E+02 -0.11596E+07
 0.65820000E+02 -0.16725E+07
 0.65869995E+02 -0.20021E+07
 0.65919998E+02 -0.21513E+07
 0.65970001E+02 -0.22740E+07
 0.66019997E+02 -0.24659E+07
 0.66070000E+02 -0.26369E+07
 0.66119995E+02 -0.27025E+07
 0.66169998E+02 -0.27237E+07
 0.66220001E+02 -0.28867E+07
 0.66269997E+02 -0.30619E+07
 0.66320000E+02 -0.29722E+07
 0.66369995E+02 -0.27717E+07
 0.66419998E+02 -0.27249E+07
 0.66470001E+02 -0.27630E+07
 0.66519997E+02 -0.27179E+07
 0.66570000E+02 -0.24928E+07
 0.66619995E+02 -0.21736E+07
 0.66669998E+02 -0.19849E+07
 0.66720001E+02 -0.18488E+07
 0.66769997E+02 -0.16234E+07
 0.66820000E+02 -0.14497E+07
 0.66869995E+02 -0.14262E+07
 0.66919998E+02 -0.14750E+07
 0.66970001E+02 -0.14912E+07
 0.67019997E+02 -0.13451E+07
 0.67070000E+02 -0.92319E+06
 0.67119995E+02 -0.38358E+06
 0.67169998E+02  0.25184E+05
 0.67220001E+02  0.23116E+06
 0.67269997E+02  0.19620E+06
 0.67320000E+02  0.15312E+06
 0.67369995E+02  0.48194E+06
 0.67419998E+02  0.97141E+06
 0.67470001E+02  0.12080E+07
 0.67519997E+02  0.12096E+07
 0.67570000E+02  0.10515E+07
 0.67619995E+02  0.84667E+06
 0.67669998E+02  0.78602E+06
 0.67720001E+02  0.78398E+06
 0.67769997E+02  0.65136E+06
 0.67820000E+02  0.39432E+06
 0.67869995E+02 -0.59640E+04
 0.67919998E+02 -0.56825E+06
 0.67970001E+02 -0.11240E+07
 0.68019997E+02 -0.14930E+07
 0.68070000E+02 -0.17084E+07
 0.68119995E+02 -0.20064E+07
 0.68169998E+02 -0.22873E+07
 0.68220001E+02 -0.23191E+07
 0.68269997E+02 -0.22413E+07
 0.68320000E+02 -0.21942E+07
 0.68369995E+02 -0.22965E+07
 0.68419998E+02 -0.25160E+07
 0.68470001E+02 -0.25023E+07
 0.68519997E+02 -0.22876E+07
 0.68570000E+02 -0.21606E+07
 0.68619995E+02 -0.22050E+07
 0.68669998E+02 -0.23184E+07
 0.68720001E+02 -0.21909E+07
 0.68769997E+02 -0.17769E+07
 0.68820000E+02 -0.14231E+07
 0.68869995E+02 -0.12916E+07
 0.68919998E+02 -0.11860E+07
 0.68970001E+02 -0.10170E+07
 0.69019997E+02 -0.82648E+06
 0.69070000E+02 -0.78542E+06
 0.69119995E+02 -0.10337E+07
 0.69169998E+02 -0.13831E+07
 0.69220001E+02 -0.16004E+07
 0.69269997E+02 -0.16015E+07
 0.69320000E+02 -0.16261E+07
 0.69369995E+02 -0.19392E+07
 0.69419998E+02 -0.24293E+07
 0.69470001E+02 -0.28090E+07
 0.69519997E+02 -0.29859E+07
 0.69570000E+02 -0.30872E+07
 0.69619995E+02 -0.32831E+07
 0.69669998E+02 -0.35935E+07
 0.69720001E+02 -0.37781E+07
 0.69769997E+02 -0.37168E+07
 0.69820000E+02 -0.35358E+07
 0.69869995E+02 -0.32902E+07
 0.69919998E+02 -0.30655E+07
 0.69970001E+02 -0.29156E+07
 0.70019997E+02 -0.27196E+07
 0.70070000E+02 -0.25321E+07
 0.70119995E+02 -0.24068E+07
 0.70169998E+02 -0.23447E+07
 0.70220001E+02 -0.22705E+07
 0.70269997E+02 -0.20056E+07
 0.70320000E+02 -0.15861E+07
 0.70369995E+02 -0.10952E+07
 0.70419998E+02 -0.74876E+06
 0.70470001E+02 -0.64864E+06
 0.70519997E+02 -0.56160E+06
 0.70570000E+02 -0.38288E+06
 0.70619995E+02 -0.23995E+06
 0.70669998E+02 -0.20581E+06
 0.70720001E+02 -0.28698E+06
 0.70769997E+02 -0.53647E+06
 0.70820000E+02 -0.80770E+06
 0.70869995E+02 -0.96181E+06
 0.70919998E+02 -0.10641E+07
 0.70970001E+02 -0.12660E+07
 0.71019997E+02 -0.16185E+07
 0.71070000E+02 -0.18853E+07
 0.71119995E+02 -0.19644E+07
 0.71169998E+02 -0.19866E+07
 0.71220001E+02 -0.20082E+07
 0.71269997E+02 -0.20378E+07
 0.71320000E+02 -0.20941E+07
 0.71369995E+02 -0.22589E+07
 0.71419998E+02 -0.24453E+07
 0.71470001E+02 -0.23676E+07
 0.71519997E+02 -0.19953E+07
 0.71570000E+02 -0.15852E+07
 0.71619995E+02 -0.14108E+07
 0.71669998E+02 -0.13927E+07
 0.71720001E+02 -0.12497E+07
 0.71769997E+02 -0.10423E+07
 0.71820000E+02 -0.95530E+06
 0.71869995E+02 -0.10071E+07
 0.71919998E+02 -0.11540E+07
 0.71970001E+02 -0.13392E+07
 0.72019997E+02 -0.14858E+07
 0.72070000E+02 -0.15680E+07
 0.72119995E+02 -0.16278E+07
 0.72169998E+02 -0.16053E+07
 0.72220001E+02 -0.15459E+07
 0.72269997E+02 -0.15482E+07
 0.72320000E+02 -0.15983E+07
 0.72369995E+02 -0.18178E+07
 0.72419998E+02 -0.20574E+07
 0.72470001E+02 -0.21137E+07
 0.72519997E+02 -0.20838E+07
 0.72570000E+02 -0.19755E+07
 0.72619995E+02 -0.18643E+07
 0.72669998E+02 -0.18448E+07
 0.72720001E+02 -0.18902E+07
 0.72769997E+02 -0.19000E+07
 0.72820000E+02 -0.18153E+07
 0.72869995E+02 -0.17521E+07
 0.72919998E+02 -0.17572E+07
 0.72970001E+02 -0.18137E+07
 0.73019997E+02 -0.18899E+07
 0.73070000E+02 -0.19722E+07
 0.73119995E+02 -0.21375E+07
 0.73169998E+02 -0.23626E+07
 0.73220001E+02 -0.25698E+07
 0.73269997E+02 -0.27915E+07
 0.73320000E+02 -0.30779E+07
 0.73369995E+02 -0.33391E+07
 0.73419998E+02 -0.35003E+07
 0.73470001E+02 -0.35118E+07
 0.73519997E+02 -0.33507E+07
 0.73570000E+02 -0.30867E+07
 0.73619995E+02 -0.27409E+07
 0.73669998E+02 -0.24982E+07
 0.73720001E+02 -0.25023E+07
 0.73769997E+02 -0.27318E+07
 0.73820000E+02 -0.30895E+07
 0.73869995E+02 -0.33986E+07
 0.73919998E+02 -0.36352E+07
 0.73970001E+02 -0.37270E+07
 0.74019997E+02 -0.36470E+07
 0.74070000E+02 -0.34140E+07
 0.74119995E+02 -0.29669E+07
 0.74169998E+02 -0.24003E+07
 0.74220001E+02 -0.18948E+07
 0.74269997E+02 -0.15646E+07
 0.74320000E+02 -0.13566E+07
 0.74369995E+02 -0.12110E+07
 0.74419998E+02 -0.12354E+07
 0.74470001E+02 -0.14823E+07
 0.74519997E+02 -0.17374E+07
 0.74570000E+02 -0.18306E+07
 0.74619995E+02 -0.18716E+07
 0.74669998E+02 -0.19774E+07
 0.74720001E+02 -0.21236E+07
 0.74769997E+02 -0.22229E+07
 0.74820000E+02 -0.22999E+07
 0.74869995E+02 -0.24575E+07
 0.74919998E+02 -0.26265E+07
 0.74970001E+02 -0.26952E+07
 0.75019997E+02 -0.26871E+07
 0.75070000E+02 -0.25435E+07
 0.75119995E+02 -0.22628E+07
 0.75169998E+02 -0.20106E+07
 0.75220001E+02 -0.18256E+07
 0.75269997E+02 -0.16958E+07
 0.75320000E+02 -0.16512E+07
 0.75369995E+02 -0.17209E+07
 0.75419998E+02 -0.19380E+07
 0.75470001E+02 -0.21801E+07
 0.75519997E+02 -0.22840E+07
 0.75570000E+02 -0.22277E+07
 0.75619995E+02 -0.20571E+07
 0.75669998E+02 -0.18923E+07
 0.75720001E+02 -0.17368E+07
 0.75769997E+02 -0.15071E+07
 0.75820000E+02 -0.12370E+07
 0.75869995E+02 -0.10281E+07
 0.75919998E+02 -0.10304E+07
 0.75970001E+02 -0.12099E+07
 0.76019997E+02 -0.14338E+07
 0.76070000E+02 -0.17121E+07
 0.76119995E+02 -0.20649E+07
 0.76169998E+02 -0.24634E+07
 0.76220001E+02 -0.26926E+07
 0.76269997E+02 -0.25982E+07
 0.76320000E+02 -0.24995E+07
 0.76369995E+02 -0.27032E+07
 0.76419998E+02 -0.30876E+07
 0.76470001E+02 -0.34054E+07
 0.76519997E+02 -0.35083E+07
 0.76570000E+02 -0.34923E+07
 0.76619995E+02 -0.35098E+07
 0.76669998E+02 -0.34225E+07
 0.76720001E+02 -0.30200E+07
 0.76769997E+02 -0.24330E+07
 0.76820000E+02 -0.20446E+07
 0.76869995E+02 -0.19490E+07
 0.76919998E+02 -0.20584E+07
 0.76970001E+02 -0.23198E+07
 0.77019997E+02 -0.26080E+07
 0.77070000E+02 -0.28120E+07
 0.77119995E+02 -0.28222E+07
 0.77169998E+02 -0.26915E+07
 0.77220001E+02 -0.26516E+07
 0.77269997E+02 -0.27409E+07
 0.77320000E+02 -0.27633E+07
 0.77369995E+02 -0.26755E+07
 0.77419998E+02 -0.26586E+07
 0.77470001E+02 -0.27929E+07
 0.77519997E+02 -0.29448E+07
 0.77570000E+02 -0.29404E+07
 0.77619995E+02 -0.27778E+07
 0.77669998E+02 -0.26024E+07
 0.77720001E+02 -0.24884E+07
 0.77769997E+02 -0.23403E+07
 0.77820000E+02 -0.20524E+07
 0.77869995E+02 -0.17333E+07
 0.77919998E+02 -0.15260E+07
 0.77970001E+02 -0.14964E+07
 0.78019997E+02 -0.16302E+07
 0.78070000E+02 -0.17556E+07
 0.78119995E+02 -0.18963E+07
 0.78169998E+02 -0.21897E+07
 0.78220001E+02 -0.25481E+07
 0.78269997E+02 -0.27309E+07
 0.78320000E+02 -0.27378E+07
 0.78369995E+02 -0.27203E+07
 0.78419998E+02 -0.25985E+07
 0.78470001E+02 -0.25422E+07
 0.78519997E+02 -0.27030E+07
 0.78570000E+02 -0.29063E+07
 0.78619995E+02 -0.30369E+07
 0.78669998E+02 -0.30565E+07
 0.78720001E+02 -0.30864E+07
 0.78769997E+02 -0.31505E+07
 0.78820000E+02 -0.32065E+07
 0.78869995E+02 -0.33302E+07
 0.78919998E+02 -0.35144E+07
 0.78970001E+02 -0.36372E+07
 0.79019997E+02 -0.35824E+07
 0.79070000E+02 -0.34308E+07
 0.79119995E+02 -0.33572E+07
 0.79169998E+02 -0.33825E+07
 0.79220001E+02 -0.33585E+07
 0.79269997E+02 -0.32544E+07
 0.79320000E+02 -0.31251E+07
 0.79369995E+02 -0.29103E+07
 0.79419998E+02 -0.26728E+07
 0.79470001E+02 -0.25417E+07
 0.79519997E+02 -0.25381E+07
 0.79570000E+02 -0.26279E+07
 0.79619995E+02 -0.26789E+07
 0.79669998E+02 -0.25955E+07
 0.79720001E+02 -0.24769E+07
 0.79769997E+02 -0.24489E+07
 0.79820000E+02 -0.25370E+07
 0.79869995E+02 -0.27276E+07
 0.79919998E+02 -0.29793E+07
 0.79970001E+02 -0.31841E+07
 0.80019997E+02 -0.32741E+07
 0.80070000E+02 -0.33110E+07
 0.80119995E+02 -0.32901E+07
 0.80169998E+02 -0.32125E+07
 0.80220001E+02 -0.32132E+07
 0.80269997E+02 -0.32777E+07
 0.80320000E+02 -0.33720E+07
 0.80369995E+02 -0.35024E+07
 0.80419998E+02 -0.35733E+07
 0.80470001E+02 -0.35467E+07
 0.80519997E+02 -0.34713E+07
 0.80570000E+02 -0.34423E+07
 0.80619995E+02 -0.33680E+07
 0.80669998E+02 -0.30819E+07
 0.80720001E+02 -0.26794E+07
 0.80769997E+02 -0.23670E+07
 0.80820000E+02 -0.23060E+07
 0.80869995E+02 -0.24505E+07
 0.80919998E+02 -0.25016E+07
 0.80970001E+02 -0.23625E+07
 0.81019997E+02 -0.22308E+07
 0.81070000E+02 -0.21092E+07
 0.81119995E+02 -0.19273E+07
 0.81169998E+02 -0.17652E+07
 0.81220001E+02 -0.17108E+07
 0.81269997E+02 -0.17508E+07
 0.81320000E+02 -0.17236E+07
 0.81369995E+02 -0.15840E+07
 0.81419998E+02 -0.14672E+07
 0.81470001E+02 -0.14950E+07
 0.81519997E+02 -0.16058E+07
 0.81570000E+02 -0.17075E+07
 0.81619995E+02 -0.19184E+07
 0.81669998E+02 -0.22649E+07
 0.81720001E+02 -0.25320E+07
 0.81769997E+02 -0.26426E+07
 0.81820000E+02 -0.28051E+07
 0.81869995E+02 -0.31275E+07
 0.81919998E+02 -0.34490E+07
 0.81970001E+02 -0.35601E+07
 0.82019997E+02 -0.35410E+07
 0.82070000E+02 -0.35688E+07
 0.82119995E+02 -0.35752E+07
 0.82169998E+02 -0.35476E+07
 0.82220001E+02 -0.35407E+07
 0.82269997E+02 -0.36064E+07
 0.82320000E+02 -0.38027E+07
 0.82369995E+02 -0.40236E+07
 0.82419998E+02 -0.41139E+07
 0.82470001E+02 -0.41410E+07
 0.82519997E+02 -0.42469E+07
 0.82570000E+02 -0.42802E+07
 0.82619995E+02 -0.41403E+07
 0.82669998E+02 -0.39802E+07
 0.82720001E+02 -0.37944E+07
 0.82769997E+02 -0.35130E+07
 0.82820000E+02 -0.32272E+07
 0.82869995E+02 -0.30196E+07
 0.82919998E+02 -0.29426E+07
 0.82970001E+02 -0.29709E+07
 0.83019997E+02 -0.29454E+07
 0.83070000E+02 -0.28428E+07
 0.83119995E+02 -0.27606E+07
 0.83169998E+02 -0.26872E+07
 0.83220001E+02 -0.25162E+07
 0.83269997E+02 -0.23185E+07
 0.83320000E+02 -0.22671E+07
 0.83369995E+02 -0.23092E+07
 0.83419998E+02 -0.23892E+07
 0.83470001E+02 -0.24628E+07
 0.83519997E+02 -0.23908E+07
 0.83570000E+02 -0.22024E+07
 0.83619995E+02 -0.20599E+07
 0.83669998E+02 -0.20613E+07
 0.83720001E+02 -0.22838E+07
 0.83769997E+02 -0.27122E+07
 0.83820000E+02 -0.31088E+07
 0.83869995E+02 -0.33988E+07
 0.83919998E+02 -0.37043E+07
 0.83970001E+02 -0.39446E+07
 0.84019997E+02 -0.40444E+07
 0.84070000E+02 -0.40998E+07
 0.84119995E+02 -0.41354E+07
 0.84169998E+02 -0.40800E+07
 0.84220001E+02 -0.38990E+07
 0.84269997E+02 -0.36430E+07
 0.84320000E+02 -0.34939E+07
 0.84369995E+02 -0.35334E+07
 0.84419998E+02 -0.36240E+07
 0.84470001E+02 -0.35973E+07
 0.84519997E+02 -0.34507E+07
 0.84570000E+02 -0.33499E+07
 0.84619995E+02 -0.32215E+07
 0.84669998E+02 -0.30042E+07
 0.84720001E+02 -0.28478E+07
 0.84769997E+02 -0.27635E+07
 0.84820000E+02 -0.27422E+07
 0.84869995E+02 -0.27146E+07
 0.84919998E+02 -0.26268E+07
 0.84970001E+02 -0.25486E+07
 0.85019997E+02 -0.24839E+07
 0.85070000E+02 -0.24290E+07
 0.85119995E+02 -0.24570E+07
 0.85169998E+02 -0.25971E+07
 0.85220001E+02 -0.27423E+07
 0.85269997E+02 -0.27955E+07
 0.85320000E+02 -0.27521E+07
 0.85369995E+02 -0.27475E+07
 0.85419998E+02 -0.28392E+07
 0.85470001E+02 -0.28908E+07
 0.85519997E+02 -0.29151E+07
 0.85570000E+02 -0.29859E+07
 0.85619995E+02 -0.30666E+07
 0.85669998E+02 -0.30769E+07
 0.85720001E+02 -0.29637E+07
 0.85769997E+02 -0.28188E+07
 0.85820000E+02 -0.27529E+07
 0.85869995E+02 -0.27661E+07
 0.85919998E+02 -0.28521E+07
 0.85970001E+02 -0.29967E+07
 0.86019997E+02 -0.31518E+07
 0.86070000E+02 -0.33011E+07
 0.86119995E+02 -0.34228E+07
 0.86169998E+02 -0.34845E+07
 0.86220001E+02 -0.35349E+07
 0.86269997E+02 -0.36266E+07
 0.86320000E+02 -0.37555E+07
 0.86369995E+02 -0.38958E+07
 0.86419998E+02 -0.40358E+07
 0.86470001E+02 -0.41805E+07
 0.86519997E+02 -0.42760E+07
 0.86570000E+02 -0.43327E+07
 0.86619995E+02 -0.43645E+07
 0.86669998E+02 -0.43147E+07
 0.86720001E+02 -0.42192E+07
 0.86769997E+02 -0.40971E+07
 0.86820000E+02 -0.39585E+07
 0.86869995E+02 -0.38430E+07
 0.86919998E+02 -0.37576E+07
 0.86970001E+02 -0.36825E+07
 0.87019997E+02 -0.35696E+07
 0.87070000E+02 -0.34474E+07
 0.87119995E+02 -0.33602E+07
 0.87169998E+02 -0.33295E+07
 0.87220001E+02 -0.33256E+07
 0.87269997E+02 -0.32897E+07
 0.87320000E+02 -0.32254E+07
 0.87369995E+02 -0.31400E+07
 0.87419998E+02 -0.31317E+07
 0.87470001E+02 -0.32169E+07
 0.87519997E+02 -0.32603E+07
 0.87570000E+02 -0.32313E+07
 0.87619995E+02 -0.31858E+07
 0.87669998E+02 -0.31734E+07
 0.87720001E+02 -0.31652E+07
 0.87769997E+02 -0.31020E+07
 0.87820000E+02 -0.29794E+07
 0.87869995E+02 -0.28352E+07
 0.87919998E+02 -0.27934E+07
 0.87970001E+02 -0.28990E+07
 0.88019997E+02 -0.30355E+07
 0.88070000E+02 -0.32108E+07
 0.88119995E+02 -0.33965E+07
 0.88169998E+02 -0.34258E+07
 0.88220001E+02 -0.33150E+07
 0.88269997E+02 -0.31889E+07
 0.88320000E+02 -0.31238E+07
 0.88369995E+02 -0.31020E+07
 0.88419998E+02 -0.30631E+07
 0.88470001E+02 -0.30798E+07
 0.88519997E+02 -0.32382E+07
 0.88570000E+02 -0.33702E+07
 0.88619995E+02 -0.33118E+07
 0.88669998E+02 -0.31903E+07
 0.88720001E+02 -0.31153E+07
 0.88769997E+02 -0.30441E+07
 0.88820000E+02 -0.29997E+07
 0.88869995E+02 -0.30435E+07
 0.88919998E+02 -0.31322E+07
 0.88970001E+02 -0.31823E+07
 0.89019997E+02 -0.31578E+07
 0.89070000E+02 -0.31338E+07
 0.89119995E+02 -0.32224E+07
 0.89169998E+02 -0.33866E+07
 0.89220001E+02 -0.35078E+07
 0.89269997E+02 -0.35428E+07
 0.89320000E+02 -0.35088E+07
 0.89369995E+02 -0.34236E+07
 0.89419998E+02 -0.32993E+07
 0.89470001E+02 -0.31780E+07
 0.89519997E+02 -0.31361E+07
 0.89570000E+02 -0.31663E+07
 0.89619995E+02 -0.32688E+07
 0.89669998E+02 -0.34727E+07
 0.89720001E+02 -0.36715E+07
 0.89769997E+02 -0.37631E+07
 0.89820000E+02 -0.37683E+07
 0.89869995E+02 -0.38097E+07
 0.89919998E+02 -0.39081E+07
 0.89970001E+02 -0.39580E+07
 0.90019997E+02 -0.39727E+07
 0.90070000E+02 -0.40020E+07
 0.90119995E+02 -0.40325E+07
 0.90169998E+02 -0.40845E+07
 0.90220001E+02 -0.42088E+07
 0.90269997E+02 -0.43050E+07
 0.90320000E+02 -0.42022E+07
 0.90369995E+02 -0.39555E+07
 0.90419998E+02 -0.37392E+07
 0.90470001E+02 -0.36089E+07
 0.90519997E+02 -0.35302E+07
 0.90570000E+02 -0.34569E+07
 0.90619995E+02 -0.34076E+07
 0.90669998E+02 -0.34472E+07
 0.90720001E+02 -0.35696E+07
 0.90769997E+02 -0.37357E+07
 0.90820000E+02 -0.39083E+07
 0.90869995E+02 -0.40412E+07
 0.90919998E+02 -0.40834E+07
 0.90970001E+02 -0.40206E+07
 0.91019997E+02 -0.38556E+07
 0.91070000E+02 -0.36153E+07
 0.91119995E+02 -0.34794E+07
 0.91169998E+02 -0.35258E+07
 0.91220001E+02 -0.36162E+07
 0.91269997E+02 -0.36265E+07
 0.91320000E+02 -0.35325E+07
 0.91369995E+02 -0.33782E+07
 0.91419998E+02 -0.32120E+07
 0.91470001E+02 -0.31511E+07
 0.91519997E+02 -0.32218E+07
 0.91570000E+02 -0.33204E+07
 0.91619995E+02 -0.33730E+07
 0.91669998E+02 -0.33257E+07
 0.91720001E+02 -0.32368E+07
 0.91769997E+02 -0.31631E+07
 0.91820000E+02 -0.31310E+07
 0.91869995E+02 -0.31767E+07
 0.91919998E+02 -0.32302E+07
 0.91970001E+02 -0.32701E+07
 0.92019997E+02 -0.33106E+07
 0.92070000E+02 -0.33397E+07
 0.92119995E+02 -0.33842E+07
 0.92169998E+02 -0.34585E+07
 0.92220001E+02 -0.35224E+07
 0.92269997E+02 -0.35036E+07
 0.92320000E+02 -0.34463E+07
 0.92369995E+02 -0.34871E+07
 0.92419998E+02 -0.36259E+07
 0.92470001E+02 -0.37320E+07
 0.92519997E+02 -0.37171E+07
 0.92570000E+02 -0.35990E+07
 0.92619995E+02 -0.34915E+07
 0.92669998E+02 -0.34461E+07
 0.92720001E+02 -0.34285E+07
 0.92769997E+02 -0.34247E+07
 0.92820000E+02 -0.34393E+07
 0.92869995E+02 -0.34929E+07
 0.92919998E+02 -0.35089E+07
 0.92970001E+02 -0.33853E+07
 0.93019997E+02 -0.31875E+07
 0.93070000E+02 -0.30824E+07
 0.93119995E+02 -0.31050E+07
 0.93169998E+02 -0.31819E+07
 0.93220001E+02 -0.32915E+07
 0.93269997E+02 -0.34107E+07
 0.93320000E+02 -0.34910E+07
 0.93369995E+02 -0.34854E+07
 0.93419998E+02 -0.34358E+07
 0.93470001E+02 -0.34305E+07
 0.93519997E+02 -0.34707E+07
 0.93570000E+02 -0.34467E+07
 0.93619995E+02 -0.33347E+07
 0.93669998E+02 -0.32737E+07
 0.93720001E+02 -0.32615E+07
 0.93769997E+02 -0.32718E+07
 0.93820000E+02 -0.33675E+07
 0.93869995E+02 -0.34993E+07
 0.93919998E+02 -0.35996E+07
 0.93970001E+02 -0.36476E+07
 0.94019997E+02 -0.36350E+07
 0.94070000E+02 -0.35657E+07
 0.94119995E+02 -0.34933E+07
 0.94169998E+02 -0.35321E+07
 0.94220001E+02 -0.37026E+07
 0.94269997E+02 -0.38904E+07
 0.94320000E+02 -0.39965E+07
 0.94369995E+02 -0.40769E+07
 0.94419998E+02 -0.41745E+07
 0.94470001E+02 -0.42076E+07
 0.94519997E+02 -0.41374E+07
 0.94570000E+02 -0.40148E+07
 0.94619995E+02 -0.38803E+07
 0.94669998E+02 -0.37151E+07
 0.94720001E+02 -0.35431E+07
 0.94769997E+02 -0.33698E+07
 0.94820000E+02 -0.32629E+07
 0.94869995E+02 -0.33356E+07
 0.94919998E+02 -0.35309E+07
 0.94970001E+02 -0.37515E+07
 0.95019997E+02 -0.39408E+07
 0.95070000E+02 -0.40892E+07
 0.95119995E+02 -0.41894E+07
 0.95169998E+02 -0.41930E+07
 0.95220001E+02 -0.41034E+07
 0.95269997E+02 -0.39886E+07
 0.95320000E+02 -0.39170E+07
 0.95369995E+02 -0.39409E+07
 0.95419998E+02 -0.40477E+07
 0.95470001E+02 -0.41157E+07
 0.95519997E+02 -0.41021E+07
 0.95570000E+02 -0.40672E+07
 0.95619995E+02 -0.40178E+07
 0.95669998E+02 -0.39103E+07
 0.95720001E+02 -0.37495E+07
 0.95769997E+02 -0.35890E+07
 0.95820000E+02 -0.34060E+07
 0.95869995E+02 -0.32010E+07
 0.95919998E+02 -0.30667E+07
 0.95970001E+02 -0.30678E+07
 0.96019997E+02 -0.31868E+07
 0.96070000E+02 -0.33101E+07
 0.96119995E+02 -0.33530E+07
 0.96169998E+02 -0.33100E+07
 0.96220001E+02 -0.32011E+07
 0.96269997E+02 -0.31104E+07
 0.96320000E+02 -0.31016E+07
 0.96369995E+02 -0.31514E+07
 0.96419998E+02 -0.32331E+07
 0.96470001E+02 -0.33471E+07
 0.96519997E+02 -0.34752E+07
 0.96570000E+02 -0.35674E+07
 0.96619995E+02 -0.36608E+07
 0.96669998E+02 -0.37977E+07
 0.96720001E+02 -0.39221E+07
 0.96769997E+02 -0.40471E+07
 0.96820000E+02 -0.41698E+07
 0.96869995E+02 -0.42231E+07
 0.96919998E+02 -0.42000E+07
 0.96970001E+02 -0.41230E+07
 0.97019997E+02 -0.40057E+07
 0.97070000E+02 -0.38587E+07
 0.97119995E+02 -0.36812E+07
 0.97169998E+02 -0.34889E+07
 0.97220001E+02 -0.33877E+07
 0.97269997E+02 -0.34090E+07
 0.97320000E+02 -0.34651E+07
 0.97369995E+02 -0.34854E+07
 0.97419998E+02 -0.34751E+07
 0.97470001E+02 -0.35115E+07
 0.97519997E+02 -0.35869E+07
 0.97570000E+02 -0.36565E+07
 0.97619995E+02 -0.37011E+07
 0.97669998E+02 -0.37567E+07
 0.97720001E+02 -0.38782E+07
 0.97769997E+02 -0.40204E+07
 0.97820000E+02 -0.41284E+07
 0.97869995E+02 -0.41540E+07
 0.97919998E+02 -0.41253E+07
 0.97970001E+02 -0.41054E+07
 0.98019997E+02 -0.40798E+07
 0.98070000E+02 -0.40436E+07
 0.98119995E+02 -0.40283E+07
 0.98169998E+02 -0.40885E+07
 0.98220001E+02 -0.41808E+07
 0.98269997E+02 -0.42186E+07
 0.98320000E+02 -0.41953E+07
 0.98369995E+02 -0.41846E+07
 0.98419998E+02 -0.42602E+07
 0.98470001E+02 -0.43514E+07
 0.98519997E+02 -0.44035E+07
 0.98570000E+02 -0.44351E+07
 0.98619995E+02 -0.44709E+07
 0.98669998E+02 -0.45319E+07
 0.98720001E+02 -0.45729E+07
 0.98769997E+02 -0.45643E+07
 0.98820000E+02 -0.45452E+07
 0.98869995E+02 -0.45676E+07
 0.98919998E+02 -0.46335E+07
 0.98970001E+02 -0.47010E+07
 0.99019997E+02 -0.47592E+07
 0.99070000E+02 -0.47633E+07
 0.99119995E+02 -0.46280E+07
 0.99169998E+02 -0.43993E+07
 0.99220001E+02 -0.41879E+07
 0.99269997E+02 -0.40184E+07
 0.99320000E+02 -0.38664E+07
 0.99369995E+02 -0.37274E+07
 0.99419998E+02 -0.36139E+07
 0.99470001E+02 -0.35134E+07
 0.99519997E+02 -0.33916E+07
 0.99570000E+02 -0.32300E+07
 0.99619995E+02 -0.30431E+07
 0.99669998E+02 -0.28519E+07
 0.99720001E+02 -0.26846E+07
 0.99769997E+02 -0.25558E+07
 0.99820000E+02 -0.24653E+07
 0.99869995E+02 -0.24341E+07
 0.99919998E+02 -0.24815E+07
 0.99970001E+02 -0.25979E+07
 0.10002000E+03 -0.27151E+07
 0.10007000E+03 -0.27919E+07
 0.10012000E+03 -0.28762E+07
 0.10017000E+03 -0.29869E+07
 0.10022000E+03 -0.31051E+07
 0.10027000E+03 -0.32486E+07
 0.10032000E+03 -0.33997E+07
 0.10037000E+03 -0.35063E+07
 0.10042000E+03 -0.36343E+07
 0.10047000E+03 -0.38202E+07
 0.10052000E+03 -0.39431E+07
 0.10057000E+03 -0.39489E+07
 0.10062000E+03 -0.38823E+07
 0.10067000E+03 -0.38247E+07
 0.10072000E+03 -0.38169E+07
 0.10077000E+03 -0.38175E+07
 0.10082000E+03 -0.37863E+07
 0.10087000E+03 -0.37038E+07
 0.10092000E+03 -0.36150E+07
 0.10097000E+03 -0.35509E+07
 0.10102000E+03 -0.35064E+07
 0.10107000E+03 -0.34686E+07
 0.10112000E+03 -0.34389E+07
 0.10117000E+03 -0.34661E+07
 0.10122000E+03 -0.35444E+07
 0.10127000E+03 -0.36388E+07
 0.10132000E+03 -0.37188E+07
 0.10137000E+03 -0.37864E+07
 0.10142000E+03 -0.38419E+07
 0.10147000E+03 -0.38575E+07
 0.10152000E+03 -0.38251E+07
 0.10157000E+03 -0.37539E+07
 0.10162000E+03 -0.36985E+07
 0.10167000E+03 -0.36858E+07
 0.10172000E+03 -0.37373E+07
 0.10177000E+03 -0.38432E+07
 0.10182000E+03 -0.39150E+07
 0.10187000E+03 -0.39295E+07
 0.10192000E+03 -0.38989E+07
 0.10197000E+03 -0.38483E+07
 0.10202000E+03 -0.38204E+07
 0.10207000E+03 -0.38066E+07
 0.10212000E+03 -0.37951E+07
 0.10217000E+03 -0.38001E+07
 0.10222000E+03 -0.38078E+07
 0.10227000E+03 -0.37710E+07
 0.10232000E+03 -0.37042E+07
 0.10237000E+03 -0.36434E+07
 0.10242000E+03 -0.35916E+07
 0.10247000E+03 -0.35656E+07
 0.10252000E+03 -0.35568E+07
 0.10257000E+03 -0.35693E+07
 0.10262000E+03 -0.36245E+07
 0.10267000E+03 -0.36848E+07
 0.10272000E+03 -0.37180E+07
 0.10277000E+03 -0.37608E+07
 0.10282000E+03 -0.38384E+07
 0.10287000E+03 -0.39367E+07
 0.10292000E+03 -0.40003E+07
 0.10297000E+03 -0.39844E+07
 0.10302000E+03 -0.39167E+07
 0.10307000E+03 -0.38058E+07
 0.10312000E+03 -0.36834E+07
 0.10317000E+03 -0.35777E+07
 0.10322000E+03 -0.34690E+07
 0.10327000E+03 -0.33876E+07
 0.10332000E+03 -0.33599E+07
 0.10337000E+03 -0.33758E+07
 0.10342000E+03 -0.34004E+07
 0.10347000E+03 -0.34190E+07
 0.10352000E+03 -0.34658E+07
 0.10357000E+03 -0.35251E+07
 0.10362000E+03 -0.35721E+07
 0.10367000E+03 -0.36238E+07
 0.10372000E+03 -0.36880E+07
 0.10377000E+03 -0.37741E+07
 0.10382000E+03 -0.38767E+07
 0.10387000E+03 -0.39376E+07
 0.10392000E+03 -0.39126E+07
 0.10397000E+03 -0.38502E+07
 0.10402000E+03 -0.37923E+07
 0.10407000E+03 -0.37573E+07
 0.10412000E+03 -0.37400E+07
 0.10417000E+03 -0.37299E+07
 0.10422000E+03 -0.37832E+07
 0.10427000E+03 -0.38953E+07
 0.10432000E+03 -0.39958E+07
 0.10437000E+03 -0.40502E+07
 0.10442000E+03 -0.40849E+07
 0.10447000E+03 -0.40678E+07
 0.10452000E+03 -0.40260E+07
 0.10457000E+03 -0.40226E+07
 0.10462000E+03 -0.39965E+07
 0.10467000E+03 -0.39689E+07
 0.10472000E+03 -0.39728E+07
 0.10477000E+03 -0.40211E+07
 0.10482000E+03 -0.41142E+07
 0.10487000E+03 -0.41958E+07
 0.10492000E+03 -0.42178E+07
 0.10497000E+03 -0.42104E+07
 0.10502000E+03 -0.42019E+07
 0.10507000E+03 -0.41563E+07
 0.10512000E+03 -0.41189E+07
 0.10517000E+03 -0.41387E+07
 0.10522000E+03 -0.42066E+07
 0.10527000E+03 -0.42844E+07
 0.10532000E+03 -0.43161E+07
 0.10537000E+03 -0.42943E+07
 0.10542000E+03 -0.42621E+07
 0.10547000E+03 -0.42572E+07
 0.10552000E+03 -0.42923E+07
 0.10557000E+03 -0.43364E+07
 0.10562000E+03 -0.43444E+07
 0.10567000E+03 -0.43065E+07
 0.10572000E+03 -0.42310E+07
 0.10577000E+03 -0.41116E+07
 0.10582000E+03 -0.39549E+07
 0.10587000E+03 -0.38224E+07
 0.10592000E+03 -0.37451E+07
 0.10597000E+03 -0.37091E+07
 0.10602000E+03 -0.36672E+07
 0.10607000E+03 -0.35755E+07
 0.10612000E+03 -0.34645E+07
 0.10617000E+03 -0.33709E+07
 0.10622000E+03 -0.33032E+07
 0.10627000E+03 -0.32469E+07
 0.10632000E+03 -0.32002E+07
 0.10637000E+03 -0.31831E+07
 0.10642000E+03 -0.32015E+07
 0.10647000E+03 -0.32653E+07
 0.10652000E+03 -0.33377E+07
 0.10657000E+03 -0.33646E+07
 0.10662000E+03 -0.33436E+07
 0.10667000E+03 -0.33262E+07
 0.10672000E+03 -0.33702E+07
 0.10677000E+03 -0.34621E+07
 0.10682000E+03 -0.35579E+07
 0.10687000E+03 -0.36501E+07
 0.10692000E+03 -0.37344E+07
 0.10697000E+03 -0.37704E+07
 0.10702000E+03 -0.37648E+07
 0.10707000E+03 -0.37291E+07
 0.10712000E+03 -0.36582E+07
 0.10717000E+03 -0.35904E+07
 0.10722000E+03 -0.35343E+07
 0.10727000E+03 -0.34874E+07
 0.10732000E+03 -0.34373E+07
 0.10737000E+03 -0.33491E+07
 0.10742000E+03 -0.32441E+07
 0.10747000E+03 -0.31594E+07
 0.10752000E+03 -0.31066E+07
 0.10757000E+03 -0.30778E+07
 0.10762000E+03 -0.30171E+07
 0.10767000E+03 -0.29241E+07
 0.10772000E+03 -0.28681E+07
 0.10777000E+03 -0.29008E+07
 0.10782000E+03 -0.30124E+07
 0.10787000E+03 -0.31459E+07
 0.10792000E+03 -0.33009E+07
 0.10797000E+03 -0.34820E+07
 0.10802000E+03 -0.36426E+07
 0.10807000E+03 -0.37594E+07
 0.10812000E+03 -0.38381E+07
 0.10817000E+03 -0.38636E+07
 0.10822000E+03 -0.38716E+07
 0.10827000E+03 -0.39387E+07
 0.10832000E+03 -0.40604E+07
 0.10837000E+03 -0.42252E+07
 0.10842000E+03 -0.44361E+07
 0.10847000E+03 -0.46414E+07
 0.10852000E+03 -0.47928E+07
 0.10857000E+03 -0.48816E+07
 0.10862000E+03 -0.49063E+07
 0.10867000E+03 -0.48963E+07
 0.10872000E+03 -0.48985E+07
 0.10877000E+03 -0.49061E+07
 0.10882000E+03 -0.48903E+07
 0.10887000E+03 -0.48240E+07
 0.10892000E+03 -0.46958E+07
 0.10897000E+03 -0.45783E+07
 0.10902000E+03 -0.45062E+07
 0.10907000E+03 -0.44115E+07
 0.10912000E+03 -0.42537E+07
 0.10917000E+03 -0.40636E+07
 0.10922000E+03 -0.39060E+07
 0.10927000E+03 -0.38081E+07
 0.10932000E+03 -0.37264E+07
 0.10937000E+03 -0.36059E+07
 0.10942000E+03 -0.35004E+07
 0.10947000E+03 -0.34812E+07
 0.10952000E+03 -0.35151E+07
 0.10957000E+03 -0.35444E+07
 0.10962000E+03 -0.35402E+07
 0.10967000E+03 -0.35404E+07
 0.10972000E+03 -0.35528E+07
 0.10977000E+03 -0.35378E+07
 0.10982000E+03 -0.35119E+07
 0.10987000E+03 -0.34771E+07
 0.10992000E+03 -0.34382E+07
 0.10997000E+03 -0.34392E+07
 0.11002000E+03 -0.34825E+07
 0.11007000E+03 -0.35392E+07
 0.11012000E+03 -0.36184E+07
 0.11017000E+03 -0.37187E+07
 0.11022000E+03 -0.37722E+07
 0.11027000E+03 -0.37551E+07
 0.11032000E+03 -0.37090E+07
 0.11037000E+03 -0.36642E+07
 0.11042000E+03 -0.36275E+07
 0.11047000E+03 -0.35853E+07
 0.11052000E+03 -0.35450E+07
 0.11057000E+03 -0.35489E+07
 0.11062000E+03 -0.36040E+07
 0.11067000E+03 -0.36554E+07
 0.11072000E+03 -0.36798E+07
 0.11077000E+03 -0.37012E+07
 0.11082000E+03 -0.37411E+07
 0.11087000E+03 -0.38010E+07
 0.11092000E+03 -0.38387E+07
 0.11097000E+03 -0.38472E+07
 0.11102000E+03 -0.38688E+07
 0.11107000E+03 -0.39000E+07
 0.11112000E+03 -0.39011E+07
 0.11117000E+03 -0.38519E+07
 0.11122000E+03 -0.37638E+07
 0.11127000E+03 -0.36749E+07
 0.11132000E+03 -0.36251E+07
 0.11137000E+03 -0.36205E+07
 0.11142000E+03 -0.36409E+07
 0.11147000E+03 -0.36630E+07
 0.11152000E+03 -0.36701E+07
 0.11157000E+03 -0.36535E+07
 0.11162000E+03 -0.36304E+07
 0.11167000E+03 -0.36208E+07
 0.11172000E+03 -0.36091E+07
 0.11177000E+03 -0.35718E+07
 0.11182000E+03 -0.35491E+07
 0.11187000E+03 -0.35802E+07
 0.11192000E+03 -0.36211E+07
 0.11197000E+03 -0.36609E+07
 0.11202000E+03 -0.37174E+07
 0.11207000E+03 -0.37945E+07
 0.11212000E+03 -0.38959E+07
 0.11217000E+03 -0.39813E+07
 0.11222000E+03 -0.40281E+07
 0.11227000E+03 -0.40555E+07
 0.11232000E+03 -0.40806E+07
 0.11237000E+03 -0.40909E+07
 0.11242000E+03 -0.40395E+07
 0.11247000E+03 -0.39265E+07
 0.11252000E+03 -0.38098E+07
 0.11257000E+03 -0.37145E+07
 0.11262000E+03 -0.36148E+07
 0.11267000E+03 -0.35143E+07
 0.11272000E+03 -0.34537E+07
 0.11277000E+03 -0.34351E+07
 0.11282000E+03 -0.34512E+07
 0.11287000E+03 -0.35014E+07
 0.11292000E+03 -0.35434E+07
 0.11297000E+03 -0.35543E+07
 0.11302000E+03 -0.35485E+07
 0.11307000E+03 -0.35406E+07
 0.11312000E+03 -0.35497E+07
 0.11317000E+03 -0.35554E+07
 0.11322000E+03 -0.35446E+07
 0.11327000E+03 -0.35349E+07
 0.11332000E+03 -0.35341E+07
 0.11337000E+03 -0.35658E+07
 0.11342000E+03 -0.36295E+07
 0.11347000E+03 -0.37136E+07
 0.11352000E+03 -0.38135E+07
 0.11357000E+03 -0.39174E+07
 0.11362000E+03 -0.39872E+07
 0.11367000E+03 -0.39778E+07
 0.11372000E+03 -0.39160E+07
 0.11377000E+03 -0.38306E+07
 0.11382000E+03 -0.37254E+07
 0.11387000E+03 -0.36339E+07
 0.11392000E+03 -0.35917E+07
 0.11397000E+03 -0.35882E+07
 0.11402000E+03 -0.35903E+07
 0.11407000E+03 -0.35731E+07
 0.11412000E+03 -0.35216E+07
 0.11417000E+03 -0.34623E+07
 0.11422000E+03 -0.34276E+07
 0.11427000E+03 -0.34174E+07
 0.11432000E+03 -0.34228E+07
 0.11437000E+03 -0.34514E+07
 0.11442000E+03 -0.35100E+07
 0.11447000E+03 -0.35846E+07
 0.11452000E+03 -0.36710E+07
 0.11457000E+03 -0.37603E+07
 0.11462000E+03 -0.38317E+07
 0.11467000E+03 -0.38676E+07
 0.11472000E+03 -0.38646E+07
 0.11477000E+03 -0.38500E+07
 0.11482000E+03 -0.38275E+07
 0.11487000E+03 -0.37682E+07
 0.11492000E+03 -0.36977E+07
 0.11497000E+03 -0.36779E+07
 0.11502000E+03 -0.37000E+07
 0.11507000E+03 -0.37150E+07
 0.11512000E+03 -0.37154E+07
 0.11517000E+03 -0.37287E+07
 0.11522000E+03 -0.37563E+07
 0.11527000E+03 -0.37818E+07
 0.11532000E+03 -0.38224E+07
 0.11537000E+03 -0.38732E+07
 0.11542000E+03 -0.38950E+07
 0.11547000E+03 -0.38685E+07
 0.11552000E+03 -0.38045E+07
 0.11557000E+03 -0.37275E+07
 0.11562000E+03 -0.36546E+07
 0.11567000E+03 -0.35837E+07
 0.11572000E+03 -0.35458E+07
 0.11577000E+03 -0.35818E+07
 0.11582000E+03 -0.36506E+07
 0.11587000E+03 -0.37021E+07
 0.11592000E+03 -0.37256E+07
 0.11597000E+03 -0.37262E+07
 0.11602000E+03 -0.37042E+07
 0.11607000E+03 -0.36436E+07
 0.11612000E+03 -0.35541E+07
 0.11617000E+03 -0.34810E+07
 0.11622000E+03 -0.34500E+07
 0.11627000E+03 -0.34452E+07
 0.11632000E+03 -0.34577E+07
 0.11637000E+03 -0.34871E+07
 0.11642000E+03 -0.35270E+07
 0.11647000E+03 -0.35655E+07
 0.11652000E+03 -0.36062E+07
 0.11657000E+03 -0.36503E+07
 0.11662000E+03 -0.36834E+07
 0.11667000E+03 -0.37017E+07
 0.11672000E+03 -0.36975E+07
 0.11677000E+03 -0.36792E+07
 0.11682000E+03 -0.36713E+07
 0.11687000E+03 -0.36950E+07
 0.11692000E+03 -0.37372E+07
 0.11697000E+03 -0.37668E+07
 0.11702000E+03 -0.37893E+07
 0.11707000E+03 -0.38076E+07
 0.11712000E+03 -0.38072E+07
 0.11717000E+03 -0.37863E+07
 0.11722000E+03 -0.37767E+07
 0.11727000E+03 -0.37826E+07
 0.11732000E+03 -0.37662E+07
 0.11737000E+03 -0.37404E+07
 0.11742000E+03 -0.37186E+07
 0.11747000E+03 -0.36806E+07
 0.11752000E+03 -0.36388E+07
 0.11757000E+03 -0.36071E+07
 0.11762000E+03 -0.35750E+07
 0.11767000E+03 -0.35369E+07
 0.11772000E+03 -0.34900E+07
 0.11777000E+03 -0.34402E+07
 0.11782000E+03 -0.34120E+07
 0.11787000E+03 -0.34002E+07
 0.11792000E+03 -0.33572E+07
 0.11797000E+03 -0.32833E+07
 0.11802000E+03 -0.32288E+07
 0.11807000E+03 -0.32158E+07
 0.11812000E+03 -0.32379E+07
 0.11817000E+03 -0.32902E+07
 0.11822000E+03 -0.33767E+07
 0.11827000E+03 -0.34937E+07
 0.11832000E+03 -0.36166E+07
 0.11837000E+03 -0.37149E+07
 0.11842000E+03 -0.37729E+07
 0.11847000E+03 -0.37831E+07
 0.11852000E+03 -0.37485E+07
 0.11857000E+03 -0.36927E+07
 0.11862000E+03 -0.36458E+07
 0.11867000E+03 -0.36455E+07
 0.11872000E+03 -0.37016E+07
 0.11877000E+03 -0.37771E+07
 0.11882000E+03 -0.38515E+07
 0.11887000E+03 -0.39255E+07
 0.11892000E+03 -0.39865E+07
 0.11897000E+03 -0.40156E+07
 0.11902000E+03 -0.40136E+07
 0.11907000E+03 -0.40102E+07
 0.11912000E+03 -0.40320E+07
 0.11917000E+03 -0.40619E+07
 0.11922000E+03 -0.40643E+07
 0.11927000E+03 -0.40334E+07
 0.11932000E+03 -0.39924E+07
 0.11937000E+03 -0.39706E+07
 0.11942000E+03 -0.39461E+07
 0.11947000E+03 -0.38913E+07
 0.11952000E+03 -0.38293E+07
 0.11957000E+03 -0.37592E+07
 0.11962000E+03 -0.36871E+07
 0.11967000E+03 -0.36311E+07
 0.11972000E+03 -0.35762E+07
 0.11977000E+03 -0.35202E+07
 0.11982000E+03 -0.34719E+07
 0.11987000E+03 -0.34339E+07
 0.11992000E+03 -0.33996E+07
 0.11997000E+03 -0.33654E+07
 0.12002000E+03 -0.33467E+07
 0.12007000E+03 -0.33686E+07
 0.12012000E+03 -0.34364E+07
 0.12017000E+03 -0.35212E+07
 0.12022000E+03 -0.35816E+07
 0.12027000E+03 -0.35925E+07
 0.12032000E+03 -0.35738E+07
 0.12037000E+03 -0.35449E+07
 0.12042000E+03 -0.35197E+07
 0.12047000E+03 -0.35321E+07
 0.12052000E+03 -0.35849E+07
 0.12057000E+03 -0.36519E+07
 0.12062000E+03 -0.36952E+07
 0.12067000E+03 -0.36999E+07
 0.12072000E+03 -0.36897E+07
 0.12077000E+03 -0.36773E+07
 0.12082000E+03 -0.36728E+07
 0.12087000E+03 -0.36717E+07
 0.12092000E+03 -0.36567E+07
 0.12097000E+03 -0.36213E+07
 0.12102000E+03 -0.35681E+07
 0.12107000E+03 -0.35201E+07
 0.12112000E+03 -0.34902E+07
 0.12117000E+03 -0.34515E+07
 0.12122000E+03 -0.33924E+07
 0.12127000E+03 -0.33377E+07
 0.12132000E+03 -0.32936E+07
 0.12137000E+03 -0.32610E+07
 0.12142000E+03 -0.32332E+07
 0.12147000E+03 -0.31957E+07
 0.12152000E+03 -0.31565E+07
 0.12157000E+03 -0.31242E+07
 0.12162000E+03 -0.31042E+07
 0.12167000E+03 -0.30976E+07
 0.12172000E+03 -0.30976E+07
 0.12177000E+03 -0.31090E+07
 0.12182000E+03 -0.31382E+07
 0.12187000E+03 -0.31721E+07
 0.12192000E+03 -0.32054E+07
 0.12197000E+03 -0.32512E+07
 0.12202000E+03 -0.33150E+07
 0.12207000E+03 -0.33876E+07
 0.12212000E+03 -0.34510E+07
 0.12217000E+03 -0.34789E+07
 0.12222000E+03 -0.34689E+07
 0.12227000E+03 -0.34387E+07
 0.12232000E+03 -0.34023E+07
 0.12237000E+03 -0.33796E+07
 0.12242000E+03 -0.33654E+07
 0.12247000E+03 -0.33425E+07
 0.12252000E+03 -0.33127E+07
 0.12257000E+03 -0.32797E+07
 0.12262000E+03 -0.32343E+07
 0.12267000E+03 -0.31794E+07
 0.12272000E+03 -0.31487E+07
 0.12277000E+03 -0.31637E+07
 0.12282000E+03 -0.32216E+07
 0.12287000E+03 -0.32919E+07
 0.12292000E+03 -0.33450E+07
 0.12297000E+03 -0.33740E+07
 0.12302000E+03 -0.33704E+07
 0.12307000E+03 -0.33367E+07
 0.12312000E+03 -0.32874E+07
 0.12317000E+03 -0.32462E+07
 0.12322000E+03 -0.32124E+07
 0.12327000E+03 -0.31947E+07
 0.12332000E+03 -0.32146E+07
 0.12337000E+03 -0.32519E+07
 0.12342000E+03 -0.32855E+07
 0.12347000E+03 -0.33034E+07
 0.12352000E+03 -0.33215E+07
 0.12357000E+03 -0.33666E+07
 0.12362000E+03 -0.34237E+07
 0.12367000E+03 -0.34661E+07
 0.12372000E+03 -0.34833E+07
 0.12377000E+03 -0.34885E+07
 0.12382000E+03 -0.35035E+07
 0.12387000E+03 -0.35508E+07
 0.12392000E+03 -0.36338E+07
 0.12397000E+03 -0.37246E+07
 0.12402000E+03 -0.37926E+07
 0.12407000E+03 -0.38271E+07
 0.12412000E+03 -0.38418E+07
 0.12417000E+03 -0.38603E+07
 0.12422000E+03 -0.39029E+07
 0.12427000E+03 -0.39575E+07
 0.12432000E+03 -0.39988E+07
 0.12437000E+03 -0.40294E+07
 0.12442000E+03 -0.40576E+07
 0.12447000E+03 -0.40819E+07
 0.12452000E+03 -0.40926E+07
 0.12457000E+03 -0.40659E+07
 0.12462000E+03 -0.39887E+07
 0.12467000E+03 -0.38894E+07
 0.12472000E+03 -0.37958E+07
 0.12477000E+03 -0.37136E+07
 0.12482000E+03 -0.36524E+07
 0.12487000E+03 -0.36285E+07
 0.12492000E+03 -0.36290E+07
 0.12497000E+03 -0.36182E+07
 0.12502000E+03 -0.35819E+07
 0.12507000E+03 -0.35225E+07
 0.12512000E+03 -0.34732E+07
 0.12517001E+03 -0.34547E+07
 0.12521999E+03 -0.34477E+07
 0.12527000E+03 -0.34487E+07
 0.12532000E+03 -0.34502E+07
 0.12537000E+03 -0.34327E+07
 0.12542001E+03 -0.33984E+07
 0.12546999E+03 -0.33690E+07
 0.12552000E+03 -0.33442E+07
 0.12557000E+03 -0.33068E+07
 0.12562000E+03 -0.32588E+07
 0.12567001E+03 -0.32111E+07
 0.12571999E+03 -0.31782E+07
 0.12577000E+03 -0.31662E+07
 0.12582000E+03 -0.31621E+07
 0.12587000E+03 -0.31704E+07
 0.12592001E+03 -0.32008E+07
 0.12596999E+03 -0.32277E+07
 0.12602000E+03 -0.32336E+07
 0.12607000E+03 -0.32213E+07
 0.12612000E+03 -0.32021E+07
 0.12617001E+03 -0.32020E+07
 0.12621999E+03 -0.32324E+07
 0.12627000E+03 -0.32674E+07
 0.12632000E+03 -0.32631E+07
 0.12637000E+03 -0.32225E+07
 0.12642001E+03 -0.31716E+07
 0.12646999E+03 -0.31143E+07
 0.12652000E+03 -0.30604E+07
 0.12657000E+03 -0.30101E+07
 0.12662000E+03 -0.29583E+07
 0.12667001E+03 -0.29183E+07
 0.12671999E+03 -0.29035E+07
 0.12677000E+03 -0.29205E+07
 0.12682000E+03 -0.29726E+07
 0.12687000E+03 -0.30335E+07
 0.12692001E+03 -0.30435E+07
 0.12696999E+03 -0.29967E+07
 0.12702000E+03 -0.29458E+07
 0.12707000E+03 -0.29322E+07
 0.12712000E+03 -0.29693E+07
 0.12717001E+03 -0.30428E+07
 0.12721999E+03 -0.31479E+07
 0.12727000E+03 -0.32705E+07
 0.12732000E+03 -0.33775E+07
 0.12737000E+03 -0.34443E+07
 0.12742001E+03 -0.34553E+07
 0.12746999E+03 -0.34349E+07
 0.12752000E+03 -0.34265E+07
 0.12757000E+03 -0.34505E+07
 0.12762000E+03 -0.34892E+07
 0.12767001E+03 -0.35190E+07
 0.12771999E+03 -0.35462E+07
 0.12777000E+03 -0.35910E+07
 0.12782000E+03 -0.36591E+07
 0.12787000E+03 -0.37205E+07
 0.12792001E+03 -0.37489E+07
 0.12796999E+03 -0.37477E+07
 0.12802000E+03 -0.37375E+07
 0.12807001E+03 -0.37335E+07
 0.12812001E+03 -0.37320E+07
 0.12817001E+03 -0.37211E+07
 0.12822000E+03 -0.36969E+07
 0.12827000E+03 -0.36666E+07
 0.12832001E+03 -0.36184E+07
 0.12837001E+03 -0.35450E+07
 0.12842001E+03 -0.34633E+07
 0.12847000E+03 -0.33840E+07
 0.12852000E+03 -0.33180E+07
 0.12857001E+03 -0.32629E+07
 0.12862001E+03 -0.32049E+07
 0.12867001E+03 -0.31484E+07
 0.12872000E+03 -0.31099E+07
 0.12877000E+03 -0.30936E+07
 0.12882001E+03 -0.30773E+07
 0.12887001E+03 -0.30448E+07
 0.12892001E+03 -0.30197E+07
 0.12897000E+03 -0.30184E+07
 0.12902000E+03 -0.30201E+07
 0.12907001E+03 -0.30182E+07
 0.12912001E+03 -0.30283E+07
 0.12917001E+03 -0.30619E+07
 0.12922000E+03 -0.31090E+07
 0.12927000E+03 -0.31375E+07
 0.12932001E+03 -0.31361E+07
 0.12937001E+03 -0.31268E+07
 0.12942001E+03 -0.31161E+07
 0.12947000E+03 -0.30838E+07
 0.12952000E+03 -0.30355E+07
 0.12957001E+03 -0.30049E+07
 0.12962001E+03 -0.30079E+07
 0.12967001E+03 -0.30287E+07
 0.12972000E+03 -0.30437E+07
 0.12977000E+03 -0.30523E+07
 0.12982001E+03 -0.30731E+07
 0.12987001E+03 -0.31027E+07
 0.12992001E+03 -0.31228E+07
 0.12997000E+03 -0.31404E+07
 0.13002000E+03 -0.31749E+07
 0.13007001E+03 -0.32341E+07
 0.13012001E+03 -0.33073E+07
 0.13017001E+03 -0.33727E+07
 0.13022000E+03 -0.34144E+07
 0.13027000E+03 -0.34266E+07
 0.13032001E+03 -0.34170E+07
 0.13037001E+03 -0.33950E+07
 0.13042001E+03 -0.33605E+07
 0.13047000E+03 -0.33151E+07
 0.13052000E+03 -0.32803E+07
 0.13057001E+03 -0.32768E+07
 0.13062001E+03 -0.32853E+07
 0.13067001E+03 -0.32803E+07
 0.13072000E+03 -0.32546E+07
 0.13077000E+03 -0.32151E+07
 0.13082001E+03 -0.31734E+07
 0.13087001E+03 -0.31271E+07
 0.13092001E+03 -0.30916E+07
 0.13097000E+03 -0.30993E+07
 0.13102000E+03 -0.31529E+07
 0.13107001E+03 -0.32260E+07
 0.13112001E+03 -0.32886E+07
 0.13117001E+03 -0.33282E+07
 0.13122000E+03 -0.33399E+07
 0.13127000E+03 -0.33190E+07
 0.13132001E+03 -0.32787E+07
 0.13137001E+03 -0.32431E+07
 0.13142001E+03 -0.32284E+07
 0.13147000E+03 -0.32326E+07
 0.13152000E+03 -0.32423E+07
 0.13157001E+03 -0.32537E+07
 0.13162001E+03 -0.32717E+07
 0.13167001E+03 -0.32860E+07
 0.13172000E+03 -0.32853E+07
 0.13177000E+03 -0.32943E+07
 0.13182001E+03 -0.33317E+07
 0.13187001E+03 -0.33713E+07
 0.13192001E+03 -0.34013E+07
 0.13197000E+03 -0.34354E+07
 0.13202000E+03 -0.34794E+07
 0.13207001E+03 -0.35253E+07
 0.13212001E+03 -0.35431E+07
 0.13217001E+03 -0.35141E+07
 0.13222000E+03 -0.34550E+07
 0.13227000E+03 -0.34019E+07
 0.13232001E+03 -0.33739E+07
 0.13237001E+03 -0.33688E+07
 0.13242001E+03 -0.33912E+07
 0.13247000E+03 -0.34359E+07
 0.13252000E+03 -0.34807E+07
 0.13257001E+03 -0.34993E+07
 0.13262001E+03 -0.34854E+07
 0.13267001E+03 -0.34542E+07
 0.13272000E+03 -0.34113E+07
 0.13277000E+03 -0.33591E+07
 0.13282001E+03 -0.33019E+07
 0.13287001E+03 -0.32478E+07
 0.13292001E+03 -0.32029E+07
 0.13297000E+03 -0.31636E+07
 0.13302000E+03 -0.31237E+07
 0.13307001E+03 -0.30776E+07
 0.13312001E+03 -0.30228E+07
 0.13317001E+03 -0.29641E+07
 0.13322000E+03 -0.29179E+07
 0.13327000E+03 -0.28916E+07
 0.13332001E+03 -0.28769E+07
 0.13337001E+03 -0.28624E+07
 0.13342001E+03 -0.28439E+07
 0.13347000E+03 -0.28206E+07
 0.13352000E+03 -0.27967E+07
 0.13357001E+03 -0.27771E+07
 0.13362001E+03 -0.27569E+07
 0.13367001E+03 -0.27368E+07
 0.13372000E+03 -0.27203E+07
 0.13377000E+03 -0.27047E+07
 0.13382001E+03 -0.26857E+07
 0.13387001E+03 -0.26659E+07
 0.13392001E+03 -0.26534E+07
 0.13397000E+03 -0.26628E+07
 0.13402000E+03 -0.27021E+07
 0.13407001E+03 -0.27506E+07
 0.13412001E+03 -0.27953E+07
 0.13417001E+03 -0.28402E+07
 0.13422000E+03 -0.28907E+07
 0.13427000E+03 -0.29427E+07
 0.13432001E+03 -0.29884E+07
 0.13437001E+03 -0.30257E+07
 0.13442001E+03 -0.30479E+07
 0.13447000E+03 -0.30688E+07
 0.13452000E+03 -0.30983E+07
 0.13457001E+03 -0.31141E+07
 0.13462001E+03 -0.31090E+07
 0.13467001E+03 -0.31115E+07
 0.13472000E+03 -0.31312E+07
 0.13477000E+03 -0.31433E+07
 0.13482001E+03 -0.31394E+07
 0.13487001E+03 -0.31240E+07
 0.13492001E+03 -0.31003E+07
 0.13497000E+03 -0.30822E+07
 0.13502000E+03 -0.30819E+07
 0.13507001E+03 -0.30995E+07
 0.13512001E+03 -0.31237E+07
 0.13517001E+03 -0.31335E+07
 0.13522000E+03 -0.31182E+07
 0.13527000E+03 -0.30809E+07
 0.13532001E+03 -0.30289E+07
 0.13537001E+03 -0.29811E+07
 0.13542001E+03 -0.29604E+07
 0.13547000E+03 -0.29783E+07
 0.13552000E+03 -0.30202E+07
 0.13557001E+03 -0.30655E+07
 0.13562001E+03 -0.31101E+07
 0.13567001E+03 -0.31455E+07
 0.13572000E+03 -0.31693E+07
 0.13577000E+03 -0.31886E+07
 0.13582001E+03 -0.32063E+07
 0.13587001E+03 -0.32263E+07
 0.13592001E+03 -0.32483E+07
 0.13597000E+03 -0.32747E+07
 0.13602000E+03 -0.33055E+07
 0.13607001E+03 -0.33358E+07
 0.13612001E+03 -0.33586E+07
 0.13617001E+03 -0.33690E+07
 0.13622000E+03 -0.33662E+07
 0.13627000E+03 -0.33507E+07
 0.13632001E+03 -0.33336E+07
 0.13637001E+03 -0.33202E+07
 0.13642001E+03 -0.33049E+07
 0.13647000E+03 -0.32731E+07
 0.13652000E+03 -0.32148E+07
 0.13657001E+03 -0.31399E+07
 0.13662001E+03 -0.30680E+07
 0.13667001E+03 -0.30132E+07
 0.13672000E+03 -0.29799E+07
 0.13677000E+03 -0.29633E+07
 0.13682001E+03 -0.29521E+07
 0.13687001E+03 -0.29481E+07
 0.13692001E+03 -0.29530E+07
 0.13697000E+03 -0.29533E+07
 0.13702000E+03 -0.29411E+07
 0.13707001E+03 -0.29194E+07
 0.13712001E+03 -0.28866E+07
 0.13717001E+03 -0.28321E+07
 0.13722000E+03 -0.27612E+07
 0.13727000E+03 -0.26930E+07
 0.13732001E+03 -0.26436E+07
 0.13737001E+03 -0.26145E+07
 0.13742001E+03 -0.26054E+07
 0.13747000E+03 -0.26153E+07
 0.13752000E+03 -0.26218E+07
 0.13757001E+03 -0.26195E+07
 0.13762001E+03 -0.26117E+07
 0.13767001E+03 -0.25957E+07
 0.13772000E+03 -0.25835E+07
 0.13777000E+03 -0.25965E+07
 0.13782001E+03 -0.26399E+07
 0.13787001E+03 -0.26880E+07
 0.13792001E+03 -0.27322E+07
 0.13797000E+03 -0.27778E+07
 0.13802000E+03 -0.28150E+07
 0.13807001E+03 -0.28389E+07
 0.13812001E+03 -0.28476E+07
 0.13817001E+03 -0.28422E+07
 0.13822000E+03 -0.28238E+07
 0.13827000E+03 -0.27973E+07
 0.13832001E+03 -0.27758E+07
 0.13837001E+03 -0.27685E+07
 0.13842001E+03 -0.27757E+07
 0.13847000E+03 -0.27990E+07
 0.13852000E+03 -0.28335E+07
 0.13857001E+03 -0.28592E+07
 0.13862001E+03 -0.28739E+07
 0.13867001E+03 -0.28943E+07
 0.13872000E+03 -0.29276E+07
 0.13877000E+03 -0.29697E+07
 0.13882001E+03 -0.30165E+07
 0.13887001E+03 -0.30675E+07
 0.13892001E+03 -0.31078E+07
 0.13897000E+03 -0.31191E+07
 0.13902000E+03 -0.31050E+07
 0.13907001E+03 -0.30858E+07
 0.13912001E+03 -0.30849E+07
 0.13917001E+03 -0.31058E+07
 0.13922000E+03 -0.31268E+07
 0.13927000E+03 -0.31312E+07
 0.13932001E+03 -0.31223E+07
 0.13937001E+03 -0.30999E+07
 0.13942001E+03 -0.30696E+07
 0.13947000E+03 -0.30504E+07
 0.13952000E+03 -0.30378E+07
 0.13957001E+03 -0.30165E+07
 0.13962001E+03 -0.29810E+07
 0.13967001E+03 -0.29347E+07
 0.13972000E+03 -0.28821E+07
 0.13977000E+03 -0.28278E+07
 0.13982001E+03 -0.27845E+07
 0.13987001E+03 -0.27576E+07
 0.13992001E+03 -0.27426E+07
 0.13997000E+03 -0.27323E+07
 0.14002000E+03 -0.27199E+07
 0.14007001E+03 -0.27080E+07
 0.14012001E+03 -0.27007E+07
 0.14017001E+03 -0.27011E+07
 0.14022000E+03 -0.27142E+07
 0.14027000E+03 -0.27405E+07
 0.14032001E+03 -0.27659E+07
 0.14037001E+03 -0.27810E+07
 0.14042001E+03 -0.27918E+07
 0.14047000E+03 -0.27965E+07
 0.14052000E+03 -0.27955E+07
 0.14057001E+03 -0.27942E+07
 0.14062001E+03 -0.27902E+07
 0.14067001E+03 -0.27809E+07
 0.14072000E+03 -0.27647E+07
 0.14077000E+03 -0.27431E+07
 0.14082001E+03 -0.27144E+07
 0.14087001E+03 -0.26777E+07
 0.14092001E+03 -0.26494E+07
 0.14097000E+03 -0.26397E+07
 0.14102000E+03 -0.26454E+07
 0.14107001E+03 -0.26631E+07
 0.14112001E+03 -0.26915E+07
 0.14117001E+03 -0.27275E+07
 0.14122000E+03 -0.27587E+07
 0.14127000E+03 -0.27823E+07
 0.14132001E+03 -0.28038E+07
 0.14137001E+03 -0.28215E+07
 0.14142001E+03 -0.28339E+07
 0.14147000E+03 -0.28452E+07
 0.14152000E+03 -0.28607E+07
 0.14157001E+03 -0.28713E+07
 0.14162001E+03 -0.28706E+07
 0.14167001E+03 -0.28689E+07
 0.14172000E+03 -0.28759E+07
 0.14177000E+03 -0.28932E+07
 0.14182001E+03 -0.29162E+07
 0.14187001E+03 -0.29354E+07
 0.14192001E+03 -0.29361E+07
 0.14197000E+03 -0.29226E+07
 0.14202000E+03 -0.29104E+07
 0.14207001E+03 -0.28963E+07
 0.14212001E+03 -0.28722E+07
 0.14217001E+03 -0.28426E+07
 0.14222000E+03 -0.28108E+07
 0.14227000E+03 -0.27728E+07
 0.14232001E+03 -0.27321E+07
 0.14237001E+03 -0.26894E+07
 0.14242001E+03 -0.26462E+07
 0.14247000E+03 -0.26088E+07
 0.14252000E+03 -0.25750E+07
 0.14257001E+03 -0.25398E+07
 0.14262001E+03 -0.25143E+07
 0.14267001E+03 -0.25049E+07
 0.14272000E+03 -0.24982E+07
 0.14277000E+03 -0.24894E+07
 0.14282001E+03 -0.24750E+07
 0.14287001E+03 -0.24484E+07
 0.14292001E+03 -0.24088E+07
 0.14297000E+03 -0.23594E+07
 0.14302000E+03 -0.23098E+07
 0.14307001E+03 -0.22692E+07
 0.14312001E+03 -0.22492E+07
 0.14317001E+03 -0.22597E+07
 0.14322000E+03 -0.22991E+07
 0.14327000E+03 -0.23509E+07
 0.14332001E+03 -0.23961E+07
 0.14337001E+03 -0.24281E+07
 0.14342001E+03 -0.24570E+07
 0.14347000E+03 -0.24971E+07
 0.14352000E+03 -0.25483E+07
 0.14357001E+03 -0.26081E+07
 0.14362001E+03 -0.26758E+07
 0.14367001E+03 -0.27505E+07
 0.14372000E+03 -0.28278E+07
 0.14377000E+03 -0.28962E+07
 0.14382001E+03 -0.29486E+07
 0.14387001E+03 -0.29859E+07
 0.14392001E+03 -0.30106E+07
 0.14397000E+03 -0.30254E+07
 0.14402000E+03 -0.30324E+07
 0.14407001E+03 -0.30305E+07
 0.14412001E+03 -0.30226E+07
 0.14417001E+03 -0.30084E+07
 0.14422000E+03 -0.29846E+07
 0.14427000E+03 -0.29573E+07
 0.14432001E+03 -0.29356E+07
 0.14437001E+03 -0.29179E+07
 0.14442001E+03 -0.28962E+07
 0.14447000E+03 -0.28569E+07
 0.14452000E+03 -0.27834E+07
 0.14457001E+03 -0.26885E+07
 0.14462001E+03 -0.25982E+07
 0.14467001E+03 -0.25224E+07
 0.14472000E+03 -0.24684E+07
 0.14477000E+03 -0.24357E+07
 0.14482001E+03 -0.24111E+07
 0.14487001E+03 -0.23895E+07
 0.14492001E+03 -0.23851E+07
 0.14497000E+03 -0.24073E+07
 0.14502000E+03 -0.24471E+07
 0.14507001E+03 -0.24806E+07
 0.14512001E+03 -0.24989E+07
 0.14517001E+03 -0.25161E+07
 0.14522000E+03 -0.25308E+07
 0.14527000E+03 -0.25359E+07
 0.14532001E+03 -0.25368E+07
 0.14537001E+03 -0.25469E+07
 0.14542001E+03 -0.25731E+07
 0.14547000E+03 -0.26055E+07
 0.14552000E+03 -0.26281E+07
 0.14557001E+03 -0.26261E+07
 0.14562001E+03 -0.26020E+07
 0.14567001E+03 -0.25714E+07
 0.14572000E+03 -0.25443E+07
 0.14577000E+03 -0.25215E+07
 0.14582001E+03 -0.24986E+07
 0.14587001E+03 -0.24724E+07
 0.14592001E+03 -0.24504E+07
 0.14597000E+03 -0.24434E+07
 0.14602000E+03 -0.24489E+07
 0.14607001E+03 -0.24648E+07
 0.14612001E+03 -0.24964E+07
 0.14617001E+03 -0.25467E+07
 0.14622000E+03 -0.26114E+07
 0.14627000E+03 -0.26769E+07
 0.14632001E+03 -0.27296E+07
 0.14637001E+03 -0.27760E+07
 0.14642001E+03 -0.28234E+07
 0.14647000E+03 -0.28671E+07
 0.14652000E+03 -0.29026E+07
 0.14657001E+03 -0.29280E+07
 0.14662001E+03 -0.29437E+07
 0.14667001E+03 -0.29408E+07
 0.14672000E+03 -0.29251E+07
 0.14677000E+03 -0.29118E+07
 0.14682001E+03 -0.29015E+07
 0.14687001E+03 -0.28938E+07
 0.14692001E+03 -0.28904E+07
 0.14697000E+03 -0.28947E+07
 0.14702000E+03 -0.29026E+07
 0.14707001E+03 -0.29092E+07
 0.14712001E+03 -0.29142E+07
 0.14717001E+03 -0.29098E+07
 0.14722000E+03 -0.28923E+07
 0.14727000E+03 -0.28657E+07
 0.14732001E+03 -0.28352E+07
 0.14737001E+03 -0.28033E+07
 0.14742001E+03 -0.27804E+07
 0.14747000E+03 -0.27741E+07
 0.14752000E+03 -0.27740E+07
 0.14757001E+03 -0.27708E+07
 0.14762001E+03 -0.27586E+07
 0.14767001E+03 -0.27422E+07
 0.14772000E+03 -0.27239E+07
 0.14777000E+03 -0.27028E+07
 0.14782001E+03 -0.26830E+07
 0.14787001E+03 -0.26587E+07
 0.14792001E+03 -0.26269E+07
 0.14797000E+03 -0.25827E+07
 0.14802000E+03 -0.25245E+07
 0.14807001E+03 -0.24550E+07
 0.14812001E+03 -0.23745E+07
 0.14817001E+03 -0.22944E+07
 0.14822000E+03 -0.22262E+07
 0.14827000E+03 -0.21784E+07
 0.14832001E+03 -0.21450E+07
 0.14837001E+03 -0.21116E+07
 0.14842001E+03 -0.20783E+07
 0.14847000E+03 -0.20446E+07
 0.14852000E+03 -0.20120E+07
 0.14857001E+03 -0.19892E+07
 0.14862001E+03 -0.19856E+07
 0.14867001E+03 -0.20058E+07
 0.14872000E+03 -0.20471E+07
 0.14877000E+03 -0.21018E+07
 0.14882001E+03 -0.21590E+07
 0.14887001E+03 -0.22061E+07
 0.14892001E+03 -0.22327E+07
 0.14897000E+03 -0.22488E+07
 0.14902000E+03 -0.22693E+07
 0.14907001E+03 -0.22893E+07
 0.14912001E+03 -0.22948E+07
 0.14917001E+03 -0.22827E+07
 0.14922000E+03 -0.22681E+07
 0.14927000E+03 -0.22570E+07
 0.14932001E+03 -0.22506E+07
 0.14937001E+03 -0.22480E+07
 0.14942001E+03 -0.22461E+07
 0.14947000E+03 -0.22517E+07
 0.14952000E+03 -0.22617E+07
 0.14957001E+03 -0.22685E+07
 0.14962001E+03 -0.22713E+07
 0.14967001E+03 -0.22786E+07
 0.14972000E+03 -0.23021E+07
 0.14977000E+03 -0.23350E+07
 0.14982001E+03 -0.23721E+07
 0.14987001E+03 -0.24136E+07
 0.14992001E+03 -0.24528E+07
 0.14997000E+03 -0.24854E+07
