-0.29800000E+01  0.12960E+06
-0.29300001E+01  0.13069E+06
-0.28800001E+01  0.13161E+06
-0.28299999E+01  0.13264E+06
-0.27800000E+01  0.13339E+06
-0.27300000E+01  0.13310E+06
-0.26800001E+01  0.13225E+06
-0.26300001E+01  0.13060E+06
-0.25799999E+01  0.12648E+06
-0.25300000E+01  0.11920E+06
-0.24800000E+01  0.11065E+06
-0.24300001E+01  0.10169E+06
-0.23800001E+01  0.91549E+05
-0.23299999E+01  0.80888E+05
-0.22800000E+01  0.70582E+05
-0.22300000E+01  0.61127E+05
-0.21800001E+01  0.52279E+05
-0.21300001E+01  0.42541E+05
-0.20799999E+01  0.31284E+05
-0.20300000E+01  0.19447E+05
-0.19800000E+01  0.81340E+04
-0.19299999E+01 -0.75200E+03
-0.18800000E+01 -0.58750E+04
-0.18300000E+01 -0.88120E+04
-0.17800000E+01 -0.11023E+05
-0.17300000E+01 -0.12837E+05
-0.16799999E+01 -0.15205E+05
-0.16300000E+01 -0.19345E+05
-0.15800000E+01 -0.24938E+05
-0.15300000E+01 -0.30991E+05
-0.14800000E+01 -0.37378E+05
-0.14299999E+01 -0.42893E+05
-0.13800000E+01 -0.45885E+05
-0.13300000E+01 -0.46462E+05
-0.12800000E+01 -0.47263E+05
-0.12300000E+01 -0.50267E+05
-0.11799999E+01 -0.55007E+05
-0.11300000E+01 -0.61310E+05
-0.10800000E+01 -0.69223E+05
-0.10300000E+01 -0.79050E+05
-0.98000002E+00 -0.89473E+05
-0.93000007E+00 -0.99027E+05
-0.87999988E+00 -0.10822E+06
-0.82999992E+00 -0.11616E+06
-0.77999997E+00 -0.12227E+06
-0.73000002E+00 -0.12682E+06
-0.68000007E+00 -0.12915E+06
-0.62999988E+00 -0.12870E+06
-0.57999992E+00 -0.12522E+06
-0.52999997E+00 -0.11944E+06
-0.48000002E+00 -0.11243E+06
-0.43000007E+00 -0.10476E+06
-0.37999988E+00 -0.97357E+05
-0.32999992E+00 -0.90049E+05
-0.27999997E+00 -0.81388E+05
-0.23000002E+00 -0.71481E+05
-0.18000007E+00 -0.61325E+05
-0.12999988E+00 -0.52038E+05
-0.79999924E-01 -0.44111E+05
-0.29999971E-01 -0.36796E+05
 0.19999981E-01 -0.29621E+05
 0.69999933E-01 -0.24087E+05
 0.12000012E+00 -0.21861E+05
 0.17000008E+00 -0.21091E+05
 0.22000003E+00 -0.20400E+05
 0.26999998E+00 -0.20889E+05
 0.31999993E+00 -0.22477E+05
 0.37000012E+00 -0.24245E+05
 0.42000008E+00 -0.25392E+05
 0.47000003E+00 -0.26623E+05
 0.51999998E+00 -0.28299E+05
 0.56999993E+00 -0.29735E+05
 0.62000012E+00 -0.30823E+05
 0.67000008E+00 -0.31274E+05
 0.72000003E+00 -0.30964E+05
 0.76999998E+00 -0.29456E+05
 0.81999993E+00 -0.27206E+05
 0.87000012E+00 -0.24603E+05
 0.92000008E+00 -0.20697E+05
 0.97000003E+00 -0.15952E+05
 0.10200000E+01 -0.11704E+05
 0.10700002E+01 -0.85750E+04
 0.11199999E+01 -0.68740E+04
 0.11700001E+01 -0.59910E+04
 0.12200003E+01 -0.51760E+04
 0.12700000E+01 -0.43120E+04
 0.13200002E+01 -0.20940E+04
 0.13699999E+01  0.28710E+04
 0.14200001E+01  0.10121E+05
 0.14700003E+01  0.17463E+05
 0.15200000E+01  0.22938E+05
 0.15700002E+01  0.27028E+05
 0.16199999E+01  0.31198E+05
 0.16700001E+01  0.35345E+05
 0.17200003E+01  0.38214E+05
 0.17700000E+01  0.39517E+05
 0.18200002E+01  0.38965E+05
 0.18699999E+01  0.35871E+05
 0.19200001E+01  0.30759E+05
 0.19700003E+01  0.24365E+05
 0.20200000E+01  0.17176E+05
 0.20700002E+01  0.99950E+04
 0.21199999E+01  0.38240E+04
 0.21700001E+01 -0.66900E+03
 0.22200003E+01 -0.33860E+04
 0.22700000E+01 -0.44170E+04
 0.23200002E+01 -0.44620E+04
 0.23699999E+01 -0.37670E+04
 0.24200001E+01 -0.18040E+04
 0.24700003E+01  0.15090E+04
 0.25200000E+01  0.59170E+04
 0.25700002E+01  0.10257E+05
 0.26199999E+01  0.14093E+05
 0.26700001E+01  0.18885E+05
 0.27200003E+01  0.24682E+05
 0.27700000E+01  0.29313E+05
 0.28200002E+01  0.32402E+05
 0.28699999E+01  0.34878E+05
 0.29200001E+01  0.35982E+05
 0.29700003E+01  0.35199E+05
 0.30200000E+01  0.32458E+05
 0.30700002E+01  0.28311E+05
 0.31199999E+01  0.24268E+05
 0.31700001E+01  0.20619E+05
 0.32200003E+01  0.17234E+05
 0.32700000E+01  0.14256E+05
 0.33200002E+01  0.11382E+05
 0.33699999E+01  0.84230E+04
 0.34200001E+01  0.65120E+04
 0.34700003E+01  0.62370E+04
 0.35200000E+01  0.64630E+04
 0.35700002E+01  0.73020E+04
 0.36199999E+01  0.90780E+04
 0.36700001E+01  0.10508E+05
 0.37200003E+01  0.10247E+05
 0.37700000E+01  0.87950E+04
 0.38200002E+01  0.82250E+04
 0.38699999E+01  0.10325E+05
 0.39200001E+01  0.15364E+05
 0.39700003E+01  0.22284E+05
 0.40200000E+01  0.29883E+05
 0.40700002E+01  0.36179E+05
 0.41199999E+01  0.39847E+05
 0.41700001E+01  0.40851E+05
 0.42200003E+01  0.39419E+05
 0.42700000E+01  0.36139E+05
 0.43200002E+01  0.31992E+05
 0.43699999E+01  0.28312E+05
 0.44200001E+01  0.24655E+05
 0.44700003E+01  0.19332E+05
 0.45200000E+01  0.11901E+05
 0.45700002E+01  0.33640E+04
 0.46199999E+01 -0.51960E+04
 0.46700001E+01 -0.13583E+05
 0.47200003E+01 -0.21691E+05
 0.47700000E+01 -0.28866E+05
 0.48200002E+01 -0.33897E+05
 0.48699999E+01 -0.35774E+05
 0.49200001E+01 -0.34363E+05
 0.49700003E+01 -0.29796E+05
 0.50200000E+01 -0.23098E+05
 0.50700002E+01 -0.16277E+05
 0.51200004E+01 -0.10174E+05
 0.51700006E+01 -0.48470E+04
 0.52199998E+01 -0.37500E+03
 0.52700000E+01  0.32090E+04
 0.53200002E+01  0.55430E+04
 0.53700004E+01  0.65690E+04
 0.54200006E+01  0.70340E+04
 0.54699998E+01  0.78800E+04
 0.55200000E+01  0.93520E+04
 0.55700002E+01  0.11289E+05
 0.56200004E+01  0.13236E+05
 0.56700006E+01  0.14586E+05
 0.57199998E+01  0.15154E+05
 0.57700000E+01  0.15272E+05
 0.58200002E+01  0.15325E+05
 0.58700004E+01  0.15443E+05
 0.59200006E+01  0.15492E+05
 0.59699998E+01  0.15131E+05
 0.60200000E+01  0.14117E+05
 0.60700002E+01  0.12291E+05
 0.61200004E+01  0.10218E+05
 0.61700006E+01  0.86410E+04
 0.62199998E+01  0.72380E+04
 0.62700000E+01  0.58060E+04
 0.63200002E+01  0.41140E+04
 0.63700004E+01  0.13460E+04
 0.64200006E+01 -0.19450E+04
 0.64699998E+01 -0.46730E+04
 0.65200000E+01 -0.67240E+04
 0.65700002E+01 -0.84200E+04
 0.66200004E+01 -0.94170E+04
 0.66700006E+01 -0.92580E+04
 0.67199998E+01 -0.87020E+04
 0.67700000E+01 -0.75360E+04
 0.68200002E+01 -0.56140E+04
 0.68700004E+01 -0.32170E+04
 0.69200006E+01  0.45100E+03
 0.69699998E+01  0.45620E+04
 0.70200000E+01  0.81470E+04
 0.70700002E+01  0.12267E+05
 0.71200004E+01  0.17464E+05
 0.71700006E+01  0.23263E+05
 0.72199998E+01  0.29344E+05
 0.72700000E+01  0.34953E+05
 0.73200002E+01  0.38983E+05
 0.73700004E+01  0.41275E+05
 0.74200006E+01  0.41602E+05
 0.74699998E+01  0.38938E+05
 0.75200000E+01  0.34036E+05
 0.75700002E+01  0.28886E+05
 0.76200004E+01  0.24397E+05
 0.76700006E+01  0.20739E+05
 0.77199998E+01  0.17085E+05
 0.77700000E+01  0.12703E+05
 0.78200002E+01  0.88100E+04
 0.78700004E+01  0.64170E+04
 0.79200006E+01  0.44730E+04
 0.79699998E+01  0.28020E+04
 0.80200005E+01  0.25270E+04
 0.80699997E+01  0.37550E+04
 0.81200008E+01  0.58670E+04
 0.81700001E+01  0.75680E+04
 0.82199993E+01  0.77380E+04
 0.82700005E+01  0.68030E+04
 0.83199997E+01  0.54590E+04
 0.83700008E+01  0.28220E+04
 0.84200001E+01 -0.14100E+04
 0.84699993E+01 -0.64880E+04
 0.85200005E+01 -0.12315E+05
 0.85699997E+01 -0.18088E+05
 0.86200008E+01 -0.22850E+05
 0.86700001E+01 -0.26331E+05
 0.87199993E+01 -0.29472E+05
 0.87700005E+01 -0.33019E+05
 0.88199997E+01 -0.36245E+05
 0.88700008E+01 -0.38428E+05
 0.89200001E+01 -0.38750E+05
 0.89699993E+01 -0.37046E+05
 0.90200005E+01 -0.33902E+05
 0.90699997E+01 -0.29878E+05
 0.91200008E+01 -0.26099E+05
 0.91700001E+01 -0.23921E+05
 0.92199993E+01 -0.23318E+05
 0.92700005E+01 -0.23011E+05
 0.93199997E+01 -0.22987E+05
 0.93700008E+01 -0.24152E+05
 0.94200001E+01 -0.26044E+05
 0.94699993E+01 -0.28093E+05
 0.95200005E+01 -0.30075E+05
 0.95699997E+01 -0.32349E+05
 0.96200008E+01 -0.35597E+05
 0.96700001E+01 -0.39106E+05
 0.97199993E+01 -0.42069E+05
 0.97700005E+01 -0.43996E+05
 0.98199997E+01 -0.45566E+05
 0.98700008E+01 -0.48065E+05
 0.99200001E+01 -0.51212E+05
 0.99699993E+01 -0.54417E+05
 0.10020000E+02 -0.57261E+05
 0.10070000E+02 -0.58806E+05
 0.10120001E+02 -0.58195E+05
 0.10170000E+02 -0.55619E+05
 0.10219999E+02 -0.51898E+05
 0.10270000E+02 -0.47195E+05
 0.10320000E+02 -0.41141E+05
 0.10370001E+02 -0.33675E+05
 0.10420000E+02 -0.25111E+05
 0.10469999E+02 -0.15543E+05
 0.10520000E+02 -0.50860E+04
 0.10570000E+02  0.48940E+04
 0.10620001E+02  0.12968E+05
 0.10670000E+02  0.18781E+05
 0.10719999E+02  0.21914E+05
 0.10770000E+02  0.22861E+05
 0.10820000E+02  0.23424E+05
 0.10870001E+02  0.23966E+05
 0.10920000E+02  0.23374E+05
 0.10969999E+02  0.21929E+05
 0.11020000E+02  0.19647E+05
 0.11070000E+02  0.15541E+05
 0.11120001E+02  0.10461E+05
 0.11170000E+02  0.55000E+04
 0.11219999E+02  0.82600E+03
 0.11270000E+02 -0.37950E+04
 0.11320000E+02 -0.85900E+04
 0.11370001E+02 -0.12933E+05
 0.11420000E+02 -0.16052E+05
 0.11469999E+02 -0.17028E+05
 0.11520000E+02 -0.15325E+05
 0.11570000E+02 -0.11005E+05
 0.11620001E+02 -0.43750E+04
 0.11670000E+02  0.34170E+04
 0.11719999E+02  0.11566E+05
 0.11770000E+02  0.19393E+05
 0.11820000E+02  0.25604E+05
 0.11870001E+02  0.30329E+05
 0.11920000E+02  0.34281E+05
 0.11969999E+02  0.37686E+05
 0.12020000E+02  0.41500E+05
 0.12070000E+02  0.46086E+05
 0.12120001E+02  0.50665E+05
 0.12170000E+02  0.54507E+05
 0.12219999E+02  0.56818E+05
 0.12270000E+02  0.57267E+05
 0.12320000E+02  0.56380E+05
 0.12370001E+02  0.54035E+05
 0.12420000E+02  0.49883E+05
 0.12469999E+02  0.44446E+05
 0.12520000E+02  0.38338E+05
 0.12570000E+02  0.32046E+05
 0.12620001E+02  0.25782E+05
 0.12670000E+02  0.19806E+05
 0.12719999E+02  0.14640E+05
 0.12770000E+02  0.10792E+05
 0.12820000E+02  0.81620E+04
 0.12870001E+02  0.56790E+04
 0.12920000E+02  0.30690E+04
 0.12969999E+02  0.10200E+04
 0.13020000E+02  0.50000E+02
 0.13070002E+02  0.55400E+03
 0.13120001E+02  0.21230E+04
 0.13170000E+02  0.39040E+04
 0.13220001E+02  0.56460E+04
 0.13270000E+02  0.75190E+04
 0.13320002E+02  0.98140E+04
 0.13370001E+02  0.12779E+05
 0.13420000E+02  0.16485E+05
 0.13470001E+02  0.21053E+05
 0.13520000E+02  0.26364E+05
 0.13570002E+02  0.31298E+05
 0.13620001E+02  0.34791E+05
 0.13670000E+02  0.36862E+05
 0.13720001E+02  0.37760E+05
 0.13770000E+02  0.37632E+05
 0.13820002E+02  0.36607E+05
 0.13870001E+02  0.34608E+05
 0.13920000E+02  0.31890E+05
 0.13970001E+02  0.28716E+05
 0.14020000E+02  0.24724E+05
 0.14070002E+02  0.20364E+05
 0.14120001E+02  0.16420E+05
 0.14170000E+02  0.12907E+05
 0.14220001E+02  0.95150E+04
 0.14270000E+02  0.58220E+04
 0.14320002E+02  0.12340E+04
 0.14370001E+02 -0.52200E+04
 0.14420000E+02 -0.13020E+05
 0.14470001E+02 -0.20517E+05
 0.14520000E+02 -0.27183E+05
 0.14570002E+02 -0.32778E+05
 0.14620001E+02 -0.37011E+05
 0.14670000E+02 -0.40372E+05
 0.14720001E+02 -0.43195E+05
 0.14770000E+02 -0.45455E+05
 0.14820002E+02 -0.48117E+05
 0.14870001E+02 -0.52407E+05
 0.14920000E+02 -0.57850E+05
 0.14970001E+02 -0.63010E+05
 0.15020000E+02 -0.66909E+05
 0.15070002E+02 -0.68615E+05
 0.15120001E+02 -0.68288E+05
 0.15170000E+02 -0.66392E+05
 0.15220001E+02 -0.63350E+05
 0.15270000E+02 -0.60359E+05
 0.15320002E+02 -0.57372E+05
 0.15370001E+02 -0.54065E+05
 0.15420000E+02 -0.50968E+05
 0.15470001E+02 -0.48409E+05
 0.15520000E+02 -0.46055E+05
 0.15570002E+02 -0.43379E+05
 0.15620001E+02 -0.40114E+05
 0.15670000E+02 -0.36451E+05
 0.15720001E+02 -0.32814E+05
 0.15770000E+02 -0.29304E+05
 0.15820002E+02 -0.25740E+05
 0.15870001E+02 -0.21397E+05
 0.15920000E+02 -0.16372E+05
 0.15970001E+02 -0.11555E+05
 0.16020000E+02 -0.78030E+04
 0.16070002E+02 -0.52810E+04
 0.16120001E+02 -0.31980E+04
 0.16170000E+02 -0.93700E+03
 0.16220001E+02  0.24470E+04
 0.16270000E+02  0.62910E+04
 0.16320002E+02  0.92060E+04
 0.16370001E+02  0.11449E+05
 0.16420000E+02  0.13242E+05
 0.16470001E+02  0.14844E+05
 0.16520000E+02  0.16435E+05
 0.16570002E+02  0.17886E+05
 0.16620001E+02  0.19367E+05
 0.16670000E+02  0.21176E+05
 0.16720001E+02  0.23265E+05
 0.16770000E+02  0.25356E+05
 0.16820002E+02  0.27294E+05
 0.16870001E+02  0.28351E+05
 0.16920000E+02  0.28068E+05
 0.16970001E+02  0.27231E+05
 0.17020000E+02  0.26255E+05
 0.17070002E+02  0.24938E+05
 0.17120001E+02  0.22879E+05
 0.17170000E+02  0.20056E+05
 0.17220001E+02  0.17319E+05
 0.17270000E+02  0.15043E+05
 0.17320002E+02  0.13550E+05
 0.17370001E+02  0.13037E+05
 0.17420000E+02  0.12933E+05
 0.17470001E+02  0.12690E+05
 0.17520000E+02  0.12060E+05
 0.17570002E+02  0.11760E+05
 0.17620001E+02  0.12666E+05
 0.17670000E+02  0.14550E+05
 0.17720001E+02  0.17371E+05
 0.17770000E+02  0.21179E+05
 0.17820002E+02  0.25564E+05
 0.17870001E+02  0.30261E+05
 0.17920000E+02  0.34253E+05
 0.17970001E+02  0.36370E+05
 0.18020000E+02  0.36466E+05
 0.18070002E+02  0.35496E+05
 0.18120001E+02  0.34615E+05
 0.18170000E+02  0.34067E+05
 0.18220001E+02  0.33286E+05
 0.18270000E+02  0.31621E+05
 0.18320002E+02  0.29035E+05
 0.18370001E+02  0.25414E+05
 0.18420000E+02  0.20759E+05
 0.18470001E+02  0.15407E+05
 0.18520000E+02  0.97750E+04
 0.18570002E+02  0.42430E+04
 0.18620001E+02 -0.11740E+04
 0.18670000E+02 -0.64820E+04
 0.18720001E+02 -0.11618E+05
 0.18770000E+02 -0.15450E+05
 0.18820002E+02 -0.16851E+05
 0.18870001E+02 -0.16559E+05
 0.18920000E+02 -0.15374E+05
 0.18970001E+02 -0.13196E+05
 0.19020000E+02 -0.10079E+05
 0.19070002E+02 -0.62110E+04
 0.19120001E+02 -0.18570E+04
 0.19170000E+02  0.23620E+04
 0.19220001E+02  0.67040E+04
 0.19270000E+02  0.11708E+05
 0.19320002E+02  0.16849E+05
 0.19370001E+02  0.20864E+05
 0.19420000E+02  0.22474E+05
 0.19470001E+02  0.21263E+05
 0.19520000E+02  0.18324E+05
 0.19570002E+02  0.16112E+05
 0.19620001E+02  0.15606E+05
 0.19670000E+02  0.16573E+05
 0.19720001E+02  0.19041E+05
 0.19770000E+02  0.22367E+05
 0.19820002E+02  0.25914E+05
 0.19870001E+02  0.28772E+05
 0.19920000E+02  0.29575E+05
 0.19970001E+02  0.28082E+05
 0.20020000E+02  0.25582E+05
 0.20070002E+02  0.23369E+05
 0.20120001E+02  0.22116E+05
 0.20170000E+02  0.21989E+05
 0.20220001E+02  0.22876E+05
 0.20270000E+02  0.24096E+05
 0.20320002E+02  0.24495E+05
 0.20370001E+02  0.23557E+05
 0.20420000E+02  0.21299E+05
 0.20470001E+02  0.17733E+05
 0.20520000E+02  0.12802E+05
 0.20570002E+02  0.71300E+04
 0.20620001E+02  0.18260E+04
 0.20670000E+02 -0.21170E+04
 0.20720001E+02 -0.48030E+04
 0.20770000E+02 -0.69940E+04
 0.20820002E+02 -0.84960E+04
 0.20870001E+02 -0.94070E+04
 0.20920000E+02 -0.10111E+05
 0.20970001E+02 -0.10129E+05
 0.21020000E+02 -0.91280E+04
 0.21070002E+02 -0.74800E+04
 0.21120001E+02 -0.56670E+04
 0.21170000E+02 -0.36360E+04
 0.21220001E+02 -0.14270E+04
 0.21270000E+02  0.20700E+03
 0.21320002E+02  0.10660E+04
 0.21370001E+02  0.11170E+04
 0.21420000E+02 -0.32100E+03
 0.21470001E+02 -0.35290E+04
 0.21520000E+02 -0.81410E+04
 0.21570002E+02 -0.13699E+05
 0.21620001E+02 -0.19743E+05
 0.21670000E+02 -0.25713E+05
 0.21720001E+02 -0.30789E+05
 0.21770000E+02 -0.34448E+05
 0.21820002E+02 -0.37614E+05
 0.21870001E+02 -0.40873E+05
 0.21920000E+02 -0.43838E+05
 0.21970001E+02 -0.46433E+05
 0.22020000E+02 -0.48424E+05
 0.22070002E+02 -0.49884E+05
 0.22120001E+02 -0.50752E+05
 0.22170000E+02 -0.51310E+05
 0.22220001E+02 -0.52663E+05
 0.22270000E+02 -0.54734E+05
 0.22320002E+02 -0.56924E+05
 0.22370001E+02 -0.59443E+05
 0.22420000E+02 -0.62313E+05
 0.22470001E+02 -0.64511E+05
 0.22520000E+02 -0.66096E+05
 0.22570002E+02 -0.68083E+05
 0.22620001E+02 -0.69790E+05
 0.22670000E+02 -0.70634E+05
 0.22720001E+02 -0.70315E+05
 0.22770000E+02 -0.67824E+05
 0.22820002E+02 -0.63101E+05
 0.22870001E+02 -0.56346E+05
 0.22920000E+02 -0.47496E+05
 0.22970001E+02 -0.37014E+05
 0.23020000E+02 -0.25192E+05
 0.23070002E+02 -0.12083E+05
 0.23120001E+02  0.14370E+04
 0.23170000E+02  0.14382E+05
 0.23220001E+02  0.26547E+05
 0.23270000E+02  0.37708E+05
 0.23320002E+02  0.47909E+05
 0.23370001E+02  0.56565E+05
 0.23420000E+02  0.62455E+05
 0.23470001E+02  0.65841E+05
 0.23520000E+02  0.67296E+05
 0.23570002E+02  0.67197E+05
 0.23620001E+02  0.65934E+05
 0.23670000E+02  0.63583E+05
 0.23720001E+02  0.60374E+05
 0.23770000E+02  0.56585E+05
 0.23820002E+02  0.52506E+05
 0.23870001E+02  0.48491E+05
 0.23920000E+02  0.44717E+05
 0.23970001E+02  0.40675E+05
 0.24020000E+02  0.36338E+05
 0.24070002E+02  0.32587E+05
 0.24120001E+02  0.30013E+05
 0.24170000E+02  0.28433E+05
 0.24220001E+02  0.27230E+05
 0.24270000E+02  0.26083E+05
 0.24320002E+02  0.25269E+05
 0.24370001E+02  0.25333E+05
 0.24420000E+02  0.26015E+05
 0.24470001E+02  0.26914E+05
 0.24520000E+02  0.28283E+05
 0.24570002E+02  0.30289E+05
 0.24620001E+02  0.32310E+05
 0.24670000E+02  0.33072E+05
 0.24720001E+02  0.32243E+05
 0.24770000E+02  0.30129E+05
 0.24820002E+02  0.27030E+05
 0.24870001E+02  0.23959E+05
 0.24920000E+02  0.21485E+05
 0.24970001E+02  0.19522E+05
 0.25020000E+02  0.18041E+05
 0.25070002E+02  0.16677E+05
 0.25120001E+02  0.15058E+05
 0.25170000E+02  0.13364E+05
 0.25220001E+02  0.12025E+05
 0.25270000E+02  0.10540E+05
 0.25320002E+02  0.82400E+04
 0.25370001E+02  0.47280E+04
 0.25420000E+02  0.76000E+02
 0.25470001E+02 -0.46530E+04
 0.25520000E+02 -0.95800E+04
 0.25570002E+02 -0.14776E+05
 0.25620001E+02 -0.19524E+05
 0.25670000E+02 -0.23395E+05
 0.25720001E+02 -0.26168E+05
 0.25770000E+02 -0.28368E+05
 0.25820002E+02 -0.29626E+05
 0.25870001E+02 -0.29210E+05
 0.25920000E+02 -0.27298E+05
 0.25970001E+02 -0.24709E+05
 0.26020000E+02 -0.22482E+05
 0.26070002E+02 -0.20872E+05
 0.26120001E+02 -0.19949E+05
 0.26170000E+02 -0.19818E+05
 0.26220001E+02 -0.19990E+05
 0.26270000E+02 -0.19866E+05
 0.26320002E+02 -0.19800E+05
 0.26370001E+02 -0.20297E+05
 0.26420000E+02 -0.21229E+05
 0.26470001E+02 -0.22888E+05
 0.26520000E+02 -0.25522E+05
 0.26570002E+02 -0.28863E+05
 0.26620001E+02 -0.32482E+05
 0.26670000E+02 -0.35695E+05
 0.26720001E+02 -0.37860E+05
 0.26770000E+02 -0.38867E+05
 0.26820002E+02 -0.39120E+05
 0.26870001E+02 -0.38794E+05
 0.26920000E+02 -0.38172E+05
 0.26970001E+02 -0.37562E+05
 0.27020000E+02 -0.36300E+05
 0.27070002E+02 -0.33963E+05
 0.27120001E+02 -0.30909E+05
 0.27170000E+02 -0.27602E+05
 0.27220001E+02 -0.24230E+05
 0.27270000E+02 -0.20599E+05
 0.27320002E+02 -0.16604E+05
 0.27370001E+02 -0.11395E+05
 0.27420000E+02 -0.46520E+04
 0.27470001E+02  0.24330E+04
 0.27520000E+02  0.94280E+04
 0.27570002E+02  0.16482E+05
 0.27620001E+02  0.23129E+05
 0.27670000E+02  0.28633E+05
 0.27720001E+02  0.32624E+05
 0.27770000E+02  0.35271E+05
 0.27820002E+02  0.36673E+05
 0.27870001E+02  0.36428E+05
 0.27920000E+02  0.34638E+05
 0.27970001E+02  0.32128E+05
 0.28020000E+02  0.29367E+05
 0.28070002E+02  0.26257E+05
 0.28120001E+02  0.22631E+05
 0.28170000E+02  0.18678E+05
 0.28220001E+02  0.14295E+05
 0.28270000E+02  0.94200E+04
 0.28320002E+02  0.47210E+04
 0.28370001E+02  0.32400E+03
 0.28420000E+02 -0.36610E+04
 0.28470001E+02 -0.67530E+04
 0.28520000E+02 -0.90200E+04
 0.28570002E+02 -0.10483E+05
 0.28620001E+02 -0.11342E+05
 0.28670000E+02 -0.11857E+05
 0.28720001E+02 -0.11743E+05
 0.28770000E+02 -0.10744E+05
 0.28820002E+02 -0.93490E+04
 0.28870001E+02 -0.78990E+04
 0.28920000E+02 -0.58230E+04
 0.28970001E+02 -0.29640E+04
 0.29020000E+02  0.24600E+03
 0.29070000E+02  0.36560E+04
 0.29120003E+02  0.71700E+04
 0.29170002E+02  0.10248E+05
 0.29220001E+02  0.12451E+05
 0.29270000E+02  0.14137E+05
 0.29320000E+02  0.16067E+05
 0.29370003E+02  0.18457E+05
 0.29420002E+02  0.20655E+05
 0.29470001E+02  0.21805E+05
 0.29520000E+02  0.21888E+05
 0.29570000E+02  0.21201E+05
 0.29620003E+02  0.20001E+05
 0.29670002E+02  0.18927E+05
 0.29720001E+02  0.17794E+05
 0.29770000E+02  0.16320E+05
 0.29820000E+02  0.14850E+05
 0.29870003E+02  0.12865E+05
 0.29920002E+02  0.97460E+04
 0.29970001E+02  0.60310E+04
 0.30020000E+02  0.26250E+04
 0.30070000E+02 -0.15300E+03
 0.30120003E+02 -0.28710E+04
 0.30170002E+02 -0.60420E+04
 0.30220001E+02 -0.93490E+04
 0.30270000E+02 -0.12618E+05
 0.30320000E+02 -0.15938E+05
 0.30370003E+02 -0.18701E+05
 0.30420002E+02 -0.20434E+05
 0.30470001E+02 -0.21175E+05
 0.30520000E+02 -0.20831E+05
 0.30570000E+02 -0.19476E+05
 0.30620003E+02 -0.17052E+05
 0.30670002E+02 -0.14054E+05
 0.30720001E+02 -0.11379E+05
 0.30770000E+02 -0.88860E+04
 0.30820000E+02 -0.57960E+04
 0.30870003E+02 -0.17850E+04
 0.30920002E+02  0.26660E+04
 0.30970001E+02  0.66220E+04
 0.31020000E+02  0.92210E+04
 0.31070000E+02  0.11009E+05
 0.31120003E+02  0.13139E+05
 0.31170002E+02  0.15517E+05
 0.31220001E+02  0.17676E+05
 0.31270000E+02  0.19335E+05
 0.31320000E+02  0.20202E+05
 0.31370003E+02  0.20310E+05
 0.31420002E+02  0.19463E+05
 0.31470001E+02  0.17561E+05
 0.31520000E+02  0.14952E+05
 0.31570000E+02  0.11876E+05
 0.31620003E+02  0.87640E+04
 0.31670002E+02  0.57180E+04
 0.31720001E+02  0.29490E+04
 0.31770000E+02  0.61600E+03
 0.31820000E+02 -0.14430E+04
 0.31870003E+02 -0.30230E+04
 0.31920002E+02 -0.45920E+04
 0.31970001E+02 -0.62670E+04
 0.32020000E+02 -0.78960E+04
 0.32070000E+02 -0.98880E+04
 0.32120003E+02 -0.11888E+05
 0.32170002E+02 -0.13495E+05
 0.32220001E+02 -0.15030E+05
 0.32270000E+02 -0.16973E+05
 0.32320000E+02 -0.18906E+05
 0.32370003E+02 -0.20104E+05
 0.32420002E+02 -0.20921E+05
 0.32470001E+02 -0.21119E+05
 0.32520000E+02 -0.20301E+05
 0.32570000E+02 -0.18873E+05
 0.32620003E+02 -0.16990E+05
 0.32670002E+02 -0.14990E+05
 0.32720001E+02 -0.13239E+05
 0.32770000E+02 -0.11753E+05
 0.32820000E+02 -0.10159E+05
 0.32870003E+02 -0.86850E+04
 0.32920002E+02 -0.82080E+04
 0.32970001E+02 -0.87670E+04
 0.33020000E+02 -0.99400E+04
 0.33070000E+02 -0.11417E+05
 0.33120003E+02 -0.13262E+05
 0.33170002E+02 -0.15950E+05
 0.33220001E+02 -0.19745E+05
 0.33270000E+02 -0.24601E+05
 0.33320000E+02 -0.30047E+05
 0.33370003E+02 -0.35314E+05
 0.33420002E+02 -0.40056E+05
 0.33470001E+02 -0.44480E+05
 0.33520000E+02 -0.49244E+05
 0.33570000E+02 -0.53970E+05
 0.33620003E+02 -0.57538E+05
 0.33670002E+02 -0.59572E+05
 0.33720001E+02 -0.59386E+05
 0.33770000E+02 -0.56823E+05
 0.33820000E+02 -0.52318E+05
 0.33870003E+02 -0.46348E+05
 0.33920002E+02 -0.40113E+05
 0.33970001E+02 -0.34187E+05
 0.34020000E+02 -0.28589E+05
 0.34070000E+02 -0.23226E+05
 0.34120003E+02 -0.17634E+05
 0.34170002E+02 -0.11407E+05
 0.34220001E+02 -0.41620E+04
 0.34270000E+02  0.42980E+04
 0.34320000E+02  0.13535E+05
 0.34370003E+02  0.22125E+05
 0.34420002E+02  0.28958E+05
 0.34470001E+02  0.34148E+05
 0.34520000E+02  0.38544E+05
 0.34570000E+02  0.43140E+05
 0.34620003E+02  0.48092E+05
 0.34670002E+02  0.52807E+05
 0.34720001E+02  0.56826E+05
 0.34770000E+02  0.60120E+05
 0.34820000E+02  0.62755E+05
 0.34870003E+02  0.64694E+05
 0.34920002E+02  0.66008E+05
 0.34970001E+02  0.66798E+05
 0.35020000E+02  0.67147E+05
 0.35070000E+02  0.67097E+05
 0.35120003E+02  0.66617E+05
 0.35170002E+02  0.65857E+05
 0.35220001E+02  0.64516E+05
 0.35270000E+02  0.62219E+05
 0.35320000E+02  0.59152E+05
 0.35370003E+02  0.55512E+05
 0.35420002E+02  0.51898E+05
 0.35470001E+02  0.48927E+05
 0.35520000E+02  0.46715E+05
 0.35570000E+02  0.44908E+05
 0.35620003E+02  0.42800E+05
 0.35670002E+02  0.39987E+05
 0.35720001E+02  0.36522E+05
 0.35770000E+02  0.32690E+05
 0.35820000E+02  0.28298E+05
 0.35870003E+02  0.23242E+05
 0.35920002E+02  0.18351E+05
 0.35970001E+02  0.14189E+05
 0.36020000E+02  0.10473E+05
 0.36070000E+02  0.67670E+04
 0.36120003E+02  0.29020E+04
 0.36170002E+02 -0.13330E+04
 0.36220001E+02 -0.59680E+04
 0.36270000E+02 -0.10811E+05
 0.36320000E+02 -0.15585E+05
 0.36370003E+02 -0.20138E+05
 0.36420002E+02 -0.24786E+05
 0.36470001E+02 -0.29363E+05
 0.36520000E+02 -0.33317E+05
 0.36570000E+02 -0.36077E+05
 0.36620003E+02 -0.37507E+05
 0.36670002E+02 -0.38297E+05
 0.36720001E+02 -0.38806E+05
 0.36770000E+02 -0.38945E+05
 0.36820000E+02 -0.38733E+05
 0.36870003E+02 -0.38263E+05
 0.36920002E+02 -0.37408E+05
 0.36970001E+02 -0.35678E+05
 0.37020000E+02 -0.32655E+05
 0.37070000E+02 -0.28657E+05
 0.37120003E+02 -0.24218E+05
 0.37170002E+02 -0.19498E+05
 0.37220001E+02 -0.14468E+05
 0.37270000E+02 -0.91260E+04
 0.37320000E+02 -0.38930E+04
 0.37370003E+02  0.99800E+03
 0.37420002E+02  0.53110E+04
 0.37470001E+02  0.83960E+04
 0.37520000E+02  0.10260E+05
 0.37570000E+02  0.11252E+05
 0.37620003E+02  0.11332E+05
 0.37670002E+02  0.10553E+05
 0.37720001E+02  0.93220E+04
 0.37770000E+02  0.76300E+04
 0.37820000E+02  0.52280E+04
 0.37870003E+02  0.22590E+04
 0.37920002E+02 -0.10240E+04
 0.37970001E+02 -0.41260E+04
 0.38020000E+02 -0.68810E+04
 0.38070000E+02 -0.93090E+04
 0.38120003E+02 -0.11293E+05
 0.38170002E+02 -0.13050E+05
 0.38220001E+02 -0.14504E+05
 0.38270000E+02 -0.15307E+05
 0.38320000E+02 -0.15006E+05
 0.38370003E+02 -0.13445E+05
 0.38420002E+02 -0.10909E+05
 0.38470001E+02 -0.74870E+04
 0.38520000E+02 -0.35290E+04
 0.38570000E+02  0.68100E+03
 0.38620003E+02  0.50360E+04
 0.38670002E+02  0.92460E+04
 0.38720001E+02  0.13242E+05
 0.38770000E+02  0.16654E+05
 0.38820000E+02  0.19348E+05
 0.38870003E+02  0.21471E+05
 0.38920002E+02  0.23046E+05
 0.38970001E+02  0.24196E+05
 0.39020000E+02  0.24580E+05
 0.39070000E+02  0.23828E+05
 0.39120003E+02  0.21706E+05
 0.39170002E+02  0.17977E+05
 0.39220001E+02  0.12804E+05
 0.39270000E+02  0.70570E+04
 0.39320000E+02  0.17690E+04
 0.39370003E+02 -0.26750E+04
 0.39420002E+02 -0.62480E+04
 0.39470001E+02 -0.91400E+04
 0.39520000E+02 -0.11808E+05
 0.39570000E+02 -0.14334E+05
 0.39620003E+02 -0.16394E+05
 0.39670002E+02 -0.17595E+05
 0.39720001E+02 -0.17402E+05
 0.39770000E+02 -0.16175E+05
 0.39820000E+02 -0.14802E+05
 0.39870003E+02 -0.13535E+05
 0.39920002E+02 -0.12383E+05
 0.39970001E+02 -0.10852E+05
 0.40020000E+02 -0.82810E+04
 0.40070000E+02 -0.48780E+04
 0.40120003E+02 -0.13010E+04
 0.40170002E+02  0.18330E+04
 0.40220001E+02  0.45420E+04
 0.40270000E+02  0.73330E+04
 0.40320000E+02  0.10075E+05
 0.40370003E+02  0.12471E+05
 0.40420002E+02  0.14389E+05
 0.40470001E+02  0.15878E+05
 0.40520000E+02  0.17296E+05
 0.40570000E+02  0.18780E+05
 0.40620003E+02  0.20209E+05
 0.40670002E+02  0.21730E+05
 0.40720001E+02  0.23607E+05
 0.40770000E+02  0.26098E+05
 0.40820000E+02  0.29192E+05
 0.40870003E+02  0.32209E+05
 0.40920002E+02  0.34757E+05
 0.40970001E+02  0.36579E+05
 0.41020000E+02  0.37166E+05
 0.41070000E+02  0.36542E+05
 0.41120003E+02  0.34956E+05
 0.41170002E+02  0.32393E+05
 0.41220001E+02  0.28928E+05
 0.41270000E+02  0.24676E+05
 0.41320000E+02  0.19629E+05
 0.41370003E+02  0.13872E+05
 0.41420002E+02  0.77210E+04
 0.41470001E+02  0.17440E+04
 0.41520000E+02 -0.35300E+04
 0.41570000E+02 -0.79150E+04
 0.41620003E+02 -0.11853E+05
 0.41670002E+02 -0.15788E+05
 0.41720001E+02 -0.19525E+05
 0.41770000E+02 -0.23074E+05
 0.41820000E+02 -0.26426E+05
 0.41870003E+02 -0.29182E+05
 0.41920002E+02 -0.31139E+05
 0.41970001E+02 -0.32450E+05
 0.42020000E+02 -0.33479E+05
 0.42070000E+02 -0.34485E+05
 0.42120003E+02 -0.35795E+05
 0.42170002E+02 -0.37638E+05
 0.42220001E+02 -0.39701E+05
 0.42270000E+02 -0.41449E+05
 0.42320000E+02 -0.42488E+05
 0.42370003E+02 -0.43050E+05
 0.42420002E+02 -0.43411E+05
 0.42470001E+02 -0.43120E+05
 0.42520000E+02 -0.41925E+05
 0.42570000E+02 -0.40278E+05
 0.42620003E+02 -0.38606E+05
 0.42670002E+02 -0.36942E+05
 0.42720001E+02 -0.35522E+05
 0.42770000E+02 -0.34337E+05
 0.42820000E+02 -0.33041E+05
 0.42870003E+02 -0.31613E+05
 0.42920002E+02 -0.29975E+05
 0.42970001E+02 -0.28012E+05
 0.43020000E+02 -0.25382E+05
 0.43070000E+02 -0.22292E+05
 0.43120003E+02 -0.19276E+05
 0.43170002E+02 -0.15819E+05
 0.43220001E+02 -0.11648E+05
 0.43270000E+02 -0.72670E+04
 0.43320000E+02 -0.30150E+04
 0.43370003E+02  0.11440E+04
 0.43420002E+02  0.54100E+04
 0.43470001E+02  0.98950E+04
 0.43520000E+02  0.14208E+05
 0.43570000E+02  0.17929E+05
 0.43620003E+02  0.20967E+05
 0.43670002E+02  0.23072E+05
 0.43720001E+02  0.24332E+05
 0.43770000E+02  0.25237E+05
 0.43820000E+02  0.26024E+05
 0.43870003E+02  0.26915E+05
 0.43920002E+02  0.28319E+05
 0.43970001E+02  0.30025E+05
 0.44020000E+02  0.31620E+05
 0.44070000E+02  0.32486E+05
 0.44120003E+02  0.31752E+05
 0.44170002E+02  0.29743E+05
 0.44220001E+02  0.27350E+05
 0.44270000E+02  0.25044E+05
 0.44320000E+02  0.23145E+05
 0.44370003E+02  0.21564E+05
 0.44420002E+02  0.19933E+05
 0.44470001E+02  0.18682E+05
 0.44520000E+02  0.18257E+05
 0.44570000E+02  0.18828E+05
 0.44620003E+02  0.20621E+05
 0.44670002E+02  0.23088E+05
 0.44720001E+02  0.25719E+05
 0.44770000E+02  0.28265E+05
 0.44820000E+02  0.30775E+05
 0.44870003E+02  0.33571E+05
 0.44920002E+02  0.36305E+05
 0.44970001E+02  0.38650E+05
 0.45020000E+02  0.40619E+05
 0.45070000E+02  0.42265E+05
 0.45120003E+02  0.43465E+05
 0.45170002E+02  0.43390E+05
 0.45220001E+02  0.41268E+05
 0.45270000E+02  0.37565E+05
 0.45320000E+02  0.33352E+05
 0.45370003E+02  0.29154E+05
 0.45420002E+02  0.25201E+05
 0.45470001E+02  0.21472E+05
 0.45520000E+02  0.17441E+05
 0.45570000E+02  0.12878E+05
 0.45620003E+02  0.81750E+04
 0.45670002E+02  0.35230E+04
 0.45720001E+02 -0.11420E+04
 0.45770000E+02 -0.57720E+04
 0.45820000E+02 -0.10279E+05
 0.45870003E+02 -0.14351E+05
 0.45920002E+02 -0.17731E+05
 0.45970001E+02 -0.20338E+05
 0.46020000E+02 -0.22152E+05
 0.46070000E+02 -0.23308E+05
 0.46120003E+02 -0.24027E+05
 0.46170002E+02 -0.24242E+05
 0.46220001E+02 -0.23914E+05
 0.46270000E+02 -0.23516E+05
 0.46320000E+02 -0.22853E+05
 0.46370003E+02 -0.21997E+05
 0.46420002E+02 -0.21132E+05
 0.46470001E+02 -0.20487E+05
 0.46520000E+02 -0.20743E+05
 0.46570000E+02 -0.21122E+05
 0.46620003E+02 -0.19620E+05
 0.46670002E+02 -0.14691E+05
 0.46720001E+02 -0.96240E+04
 0.46770000E+02 -0.68220E+04
 0.46820000E+02 -0.84210E+04
 0.46870003E+02 -0.16612E+05
 0.46920002E+02 -0.28422E+05
 0.46970001E+02 -0.40539E+05
 0.47020000E+02 -0.45473E+05
 0.47070000E+02 -0.47227E+05
 0.47120003E+02 -0.44764E+05
 0.47170002E+02 -0.34760E+05
 0.47220001E+02 -0.31717E+05
 0.47270000E+02 -0.21875E+05
 0.47320000E+02 -0.78880E+04
 0.47370003E+02 -0.58550E+04
 0.47420002E+02  0.14680E+04
 0.47470001E+02  0.11860E+04
 0.47520000E+02 -0.15238E+05
 0.47570000E+02 -0.30415E+05
 0.47620003E+02 -0.45940E+05
 0.47670002E+02 -0.58416E+05
 0.47720001E+02 -0.52696E+05
 0.47770000E+02 -0.25922E+05
 0.47820000E+02 -0.14590E+04
 0.47870003E+02  0.90800E+04
 0.47920002E+02  0.76120E+04
 0.47970001E+02 -0.16730E+04
 0.48020000E+02 -0.42090E+04
 0.48070000E+02 -0.39660E+04
 0.48120003E+02 -0.99500E+03
 0.48170002E+02 -0.58940E+04
 0.48220001E+02 -0.17186E+05
 0.48270000E+02 -0.14440E+05
 0.48320000E+02 -0.19049E+05
 0.48370003E+02 -0.33137E+05
 0.48420002E+02 -0.25367E+05
 0.48470001E+02 -0.99490E+04
 0.48520000E+02 -0.58450E+04
 0.48570000E+02  0.29630E+04
 0.48620003E+02 -0.32110E+04
 0.48670002E+02 -0.19588E+05
 0.48720001E+02 -0.28180E+05
 0.48770000E+02 -0.40848E+05
 0.48820000E+02 -0.37428E+05
 0.48870003E+02 -0.17070E+05
 0.48920002E+02 -0.70780E+04
 0.48970001E+02 -0.10959E+05
 0.49020000E+02 -0.16584E+05
 0.49070000E+02 -0.15352E+05
 0.49120003E+02  0.39610E+04
 0.49170002E+02  0.11054E+05
 0.49220001E+02  0.10755E+05
 0.49270000E+02  0.28430E+05
 0.49320000E+02  0.37277E+05
 0.49370003E+02  0.36648E+05
 0.49420002E+02  0.28850E+05
 0.49470001E+02  0.21561E+05
 0.49520000E+02  0.16204E+05
 0.49570000E+02  0.16274E+05
 0.49620003E+02  0.17487E+05
 0.49670002E+02  0.24384E+05
 0.49720001E+02  0.39184E+05
 0.49770000E+02  0.32673E+05
 0.49820000E+02  0.99560E+04
 0.49870003E+02 -0.23300E+04
 0.49920002E+02  0.45800E+03
 0.49970001E+02  0.18700E+03
 0.50020000E+02  0.21948E+05
 0.50070000E+02  0.33076E+05
 0.50120003E+02  0.20566E+05
 0.50170002E+02  0.24759E+05
 0.50220001E+02  0.30500E+04
 0.50270000E+02 -0.32747E+05
 0.50320000E+02 -0.39288E+05
 0.50370003E+02 -0.25083E+05
 0.50420002E+02 -0.67920E+04
 0.50470001E+02  0.10700E+05
 0.50520000E+02  0.63230E+04
 0.50570000E+02 -0.85670E+04
 0.50620003E+02 -0.21447E+05
 0.50670002E+02 -0.38653E+05
 0.50720001E+02 -0.27935E+05
 0.50770000E+02 -0.22888E+05
 0.50820000E+02 -0.22086E+05
 0.50870003E+02  0.84210E+04
 0.50920002E+02  0.75540E+04
 0.50970001E+02 -0.16752E+05
 0.51020000E+02  0.42500E+03
 0.51070000E+02  0.15861E+05
 0.51120003E+02  0.49570E+04
 0.51170002E+02  0.18430E+04
 0.51220001E+02 -0.14792E+05
 0.51270000E+02 -0.25392E+05
 0.51320000E+02 -0.27225E+05
 0.51370003E+02 -0.30061E+05
 0.51420002E+02 -0.17743E+05
 0.51470001E+02 -0.14828E+05
 0.51520000E+02 -0.27760E+04
 0.51570000E+02  0.34460E+04
 0.51620003E+02  0.99560E+04
 0.51670002E+02  0.37652E+05
 0.51720001E+02  0.35785E+05
 0.51770000E+02  0.20967E+05
 0.51820000E+02  0.10188E+05
 0.51870003E+02 -0.12507E+05
 0.51920002E+02 -0.24847E+05
 0.51970001E+02 -0.14540E+05
 0.52020000E+02  0.93900E+04
 0.52070000E+02  0.23638E+05
 0.52120003E+02  0.14776E+05
 0.52170002E+02  0.41340E+04
 0.52220001E+02 -0.17032E+05
 0.52270000E+02 -0.25049E+05
 0.52320000E+02 -0.15350E+05
 0.52370003E+02 -0.24311E+05
 0.52420002E+02  0.16000E+02
 0.52470001E+02  0.13371E+05
 0.52520000E+02 -0.83780E+04
 0.52570000E+02 -0.13320E+05
 0.52620003E+02 -0.10985E+05
 0.52670002E+02 -0.15300E+04
 0.52720001E+02 -0.65040E+04
 0.52770000E+02  0.13930E+04
 0.52820000E+02  0.12505E+05
 0.52870003E+02  0.69080E+04
 0.52920002E+02  0.11010E+05
 0.52970001E+02  0.17571E+05
 0.53020000E+02  0.19482E+05
 0.53070000E+02 -0.75990E+04
 0.53120003E+02 -0.21554E+05
 0.53170002E+02 -0.16253E+05
 0.53220001E+02 -0.66730E+04
 0.53270000E+02  0.21511E+05
 0.53320000E+02  0.28257E+05
 0.53370003E+02  0.39024E+05
 0.53420002E+02  0.34607E+05
 0.53470001E+02  0.13474E+05
 0.53520000E+02  0.16993E+05
 0.53570000E+02 -0.23610E+04
 0.53620003E+02 -0.16351E+05
 0.53670002E+02  0.25260E+04
 0.53720001E+02  0.11187E+05
 0.53770000E+02  0.59880E+04
 0.53820000E+02 -0.11090E+04
 0.53870003E+02 -0.56620E+04
 0.53920002E+02  0.21740E+04
 0.53970001E+02  0.65610E+04
 0.54020000E+02  0.72190E+04
 0.54070000E+02  0.22738E+05
 0.54120003E+02  0.20834E+05
 0.54170002E+02 -0.11043E+05
 0.54220001E+02 -0.36580E+05
 0.54270000E+02 -0.36278E+05
 0.54320000E+02 -0.21892E+05
 0.54370003E+02 -0.75280E+04
 0.54420002E+02  0.26900E+03
 0.54470001E+02 -0.10724E+05
 0.54520000E+02 -0.23185E+05
 0.54570000E+02 -0.18901E+05
 0.54620003E+02 -0.28866E+05
 0.54670002E+02 -0.36226E+05
 0.54720001E+02 -0.72700E+04
 0.54770000E+02  0.21482E+05
 0.54820000E+02  0.28978E+05
 0.54870003E+02  0.33856E+05
 0.54920002E+02  0.29317E+05
 0.54970001E+02  0.22783E+05
 0.55020000E+02  0.32706E+05
 0.55070000E+02  0.30773E+05
 0.55120003E+02  0.23146E+05
 0.55170002E+02  0.44072E+05
 0.55220001E+02  0.58572E+05
 0.55270000E+02  0.43923E+05
 0.55320000E+02  0.34623E+05
 0.55370003E+02  0.16224E+05
 0.55420002E+02 -0.48870E+04
 0.55470001E+02 -0.20570E+04
 0.55520000E+02  0.14289E+05
 0.55570000E+02  0.47319E+05
 0.55620003E+02  0.79209E+05
 0.55670002E+02  0.99915E+05
 0.55720001E+02  0.11766E+06
 0.55770000E+02  0.12284E+06
 0.55820000E+02  0.11278E+06
 0.55870003E+02  0.11007E+06
 0.55920002E+02  0.84990E+05
 0.55970001E+02  0.25677E+05
 0.56020000E+02 -0.16112E+05
 0.56070000E+02 -0.55230E+05
 0.56120003E+02 -0.75155E+05
 0.56170002E+02 -0.69241E+05
 0.56220001E+02 -0.58463E+05
 0.56270000E+02 -0.12043E+05
 0.56320000E+02  0.18990E+05
 0.56370003E+02  0.19636E+05
 0.56420002E+02  0.11152E+05
 0.56470001E+02 -0.21944E+05
 0.56520000E+02 -0.38438E+05
 0.56570000E+02 -0.37010E+05
 0.56620003E+02 -0.37027E+05
 0.56670002E+02 -0.37403E+05
 0.56720001E+02 -0.22760E+05
 0.56770000E+02 -0.53770E+04
 0.56820000E+02 -0.80060E+04
 0.56870003E+02  0.19060E+04
 0.56920002E+02  0.86530E+04
 0.56970001E+02 -0.24400E+03
 0.57020000E+02 -0.32670E+04
 0.57070000E+02 -0.14686E+05
 0.57120003E+02 -0.52854E+05
 0.57170002E+02 -0.77822E+05
 0.57220001E+02 -0.51890E+05
 0.57270000E+02 -0.63490E+04
 0.57320000E+02  0.25778E+05
 0.57370003E+02  0.42692E+05
 0.57420002E+02  0.38076E+05
 0.57470001E+02  0.28890E+05
 0.57520000E+02  0.28986E+05
 0.57570000E+02  0.32978E+05
 0.57620003E+02  0.74130E+05
 0.57670002E+02  0.46194E+05
 0.57720001E+02 -0.18229E+05
 0.57770000E+02  0.36650E+04
 0.57820000E+02  0.25850E+04
 0.57870003E+02  0.10910E+04
 0.57920002E+02 -0.32471E+05
 0.57970001E+02 -0.72725E+05
 0.58020000E+02 -0.36602E+05
 0.58070000E+02 -0.19866E+05
 0.58120003E+02  0.28232E+05
 0.58170002E+02  0.64034E+05
 0.58220001E+02  0.32179E+05
 0.58270000E+02  0.45304E+05
 0.58320000E+02  0.40705E+05
 0.58370003E+02 -0.29530E+05
 0.58420002E+02 -0.32413E+05
 0.58470001E+02 -0.38318E+05
 0.58520000E+02 -0.66217E+05
 0.58570000E+02 -0.53568E+05
 0.58620003E+02 -0.80744E+05
 0.58670002E+02 -0.55734E+05
 0.58720001E+02 -0.42830E+04
 0.58770000E+02  0.20234E+05
 0.58820000E+02  0.45711E+05
 0.58870003E+02  0.61898E+05
 0.58920002E+02  0.10055E+06
 0.58970001E+02  0.88060E+05
 0.59020000E+02  0.57115E+05
 0.59070000E+02  0.40718E+05
 0.59120003E+02  0.11609E+05
 0.59170002E+02 -0.16380E+04
 0.59220001E+02 -0.11454E+05
 0.59270000E+02 -0.17843E+05
 0.59320000E+02 -0.18712E+05
 0.59370003E+02 -0.12588E+05
 0.59420002E+02  0.70450E+04
 0.59470001E+02  0.51948E+05
 0.59520000E+02  0.88007E+05
 0.59570000E+02  0.88301E+05
 0.59620003E+02  0.72549E+05
 0.59670002E+02  0.39721E+05
 0.59720001E+02  0.93140E+04
 0.59770000E+02 -0.32786E+05
 0.59820000E+02 -0.83320E+05
 0.59870003E+02 -0.95133E+05
 0.59920002E+02 -0.97022E+05
 0.59970001E+02 -0.73844E+05
 0.60020000E+02 -0.74400E+03
 0.60070000E+02  0.65505E+05
 0.60120003E+02  0.80550E+05
 0.60170002E+02  0.49276E+05
 0.60220001E+02  0.23347E+05
 0.60270000E+02 -0.11247E+05
 0.60320000E+02 -0.54390E+05
 0.60370003E+02 -0.67968E+05
 0.60420002E+02 -0.10427E+06
 0.60470001E+02 -0.14660E+06
 0.60520000E+02 -0.13167E+06
 0.60570000E+02 -0.12677E+06
 0.60620003E+02 -0.14540E+06
 0.60670002E+02 -0.12168E+06
 0.60720001E+02 -0.55728E+05
 0.60770000E+02  0.24855E+05
 0.60820000E+02  0.71760E+05
 0.60870003E+02  0.80210E+05
 0.60920002E+02  0.66934E+05
 0.60970001E+02  0.34172E+05
 0.61020000E+02  0.30900E+04
 0.61070004E+02 -0.89130E+04
 0.61119999E+02 -0.32980E+04
 0.61170002E+02 -0.18500E+04
 0.61220005E+02  0.20430E+04
 0.61270000E+02  0.32240E+05
 0.61320004E+02  0.59804E+05
 0.61369999E+02  0.60199E+05
 0.61420002E+02  0.53811E+05
 0.61470005E+02  0.51154E+05
 0.61520000E+02  0.37870E+05
 0.61570004E+02  0.26650E+04
 0.61619999E+02 -0.74690E+04
 0.61670002E+02  0.92440E+04
 0.61720005E+02  0.26954E+05
 0.61770000E+02  0.69696E+05
 0.61820004E+02  0.81421E+05
 0.61869999E+02  0.68913E+05
 0.61920002E+02  0.81159E+05
 0.61970005E+02  0.35197E+05
 0.62020000E+02 -0.24273E+05
 0.62070004E+02 -0.30889E+05
 0.62119999E+02 -0.36717E+05
 0.62170002E+02 -0.19112E+05
 0.62220005E+02  0.95830E+04
 0.62270000E+02  0.24062E+05
 0.62320004E+02  0.25026E+05
 0.62369999E+02  0.18035E+05
 0.62420002E+02  0.22703E+05
 0.62470005E+02  0.31049E+05
 0.62520000E+02  0.13995E+05
 0.62570004E+02 -0.24430E+05
 0.62619999E+02 -0.14489E+05
 0.62670002E+02  0.46070E+04
 0.62720005E+02  0.23105E+05
 0.62770000E+02  0.56360E+05
 0.62820004E+02  0.47673E+05
 0.62869999E+02  0.26626E+05
 0.62920002E+02 -0.22310E+04
 0.62970005E+02 -0.17995E+05
 0.63020000E+02  0.81280E+04
 0.63070004E+02  0.45759E+05
 0.63119999E+02  0.72243E+05
 0.63170002E+02  0.95675E+05
 0.63220005E+02  0.13240E+06
 0.63270000E+02  0.13575E+06
 0.63320004E+02  0.11290E+06
 0.63369999E+02  0.10142E+06
 0.63420002E+02  0.72422E+05
 0.63470005E+02  0.57019E+05
 0.63520000E+02  0.76296E+05
 0.63570004E+02  0.76975E+05
 0.63619999E+02  0.48057E+05
 0.63670002E+02  0.21926E+05
 0.63720005E+02  0.29214E+05
 0.63770000E+02  0.31206E+05
 0.63820004E+02  0.16946E+05
 0.63869999E+02  0.14799E+05
 0.63920002E+02  0.69740E+04
 0.63970005E+02  0.41330E+04
 0.64019997E+02 -0.96360E+04
 0.64070000E+02 -0.12076E+05
 0.64119995E+02  0.94400E+03
 0.64169998E+02  0.88950E+04
 0.64220001E+02  0.35406E+05
 0.64269997E+02  0.40778E+05
 0.64320000E+02  0.67012E+05
 0.64369995E+02  0.97370E+05
 0.64419998E+02  0.70824E+05
 0.64470001E+02  0.41373E+05
 0.64519997E+02  0.51680E+04
 0.64570000E+02 -0.29507E+05
 0.64619995E+02 -0.49496E+05
 0.64669998E+02 -0.47437E+05
 0.64720001E+02 -0.28514E+05
 0.64769997E+02 -0.30020E+04
 0.64820000E+02  0.52986E+05
 0.64869995E+02  0.90039E+05
 0.64919998E+02  0.10917E+06
 0.64970001E+02  0.12944E+06
 0.65019997E+02  0.11763E+06
 0.65070000E+02  0.76050E+05
 0.65119995E+02  0.20888E+05
 0.65169998E+02 -0.36553E+05
 0.65220001E+02 -0.97602E+05
 0.65269997E+02 -0.12824E+06
 0.65320000E+02 -0.11450E+06
 0.65369995E+02 -0.99422E+05
 0.65419998E+02 -0.99938E+05
 0.65470001E+02 -0.10407E+06
 0.65519997E+02 -0.95543E+05
 0.65570000E+02 -0.85088E+05
 0.65619995E+02 -0.86789E+05
 0.65669998E+02 -0.65940E+05
 0.65720001E+02 -0.37516E+05
 0.65769997E+02 -0.16695E+05
 0.65820000E+02 -0.13510E+04
 0.65869995E+02 -0.15577E+05
 0.65919998E+02 -0.16402E+05
 0.65970001E+02 -0.41550E+04
 0.66019997E+02  0.83160E+04
 0.66070000E+02  0.25691E+05
 0.66119995E+02  0.17766E+05
 0.66169998E+02 -0.14489E+05
 0.66220001E+02 -0.36876E+05
 0.66269997E+02 -0.26638E+05
 0.66320000E+02 -0.71650E+04
 0.66369995E+02 -0.27600E+04
 0.66419998E+02 -0.85220E+04
 0.66470001E+02 -0.16820E+04
 0.66519997E+02  0.13065E+05
 0.66570000E+02  0.95700E+04
 0.66619995E+02 -0.16651E+05
 0.66669998E+02 -0.16479E+05
 0.66720001E+02  0.14979E+05
 0.66769997E+02  0.20313E+05
 0.66820000E+02 -0.56880E+04
 0.66869995E+02 -0.40270E+05
 0.66919998E+02 -0.60190E+05
 0.66970001E+02 -0.82220E+05
 0.67019997E+02 -0.10070E+06
 0.67070000E+02 -0.88419E+05
 0.67119995E+02 -0.68618E+05
 0.67169998E+02 -0.54542E+05
 0.67220001E+02 -0.19903E+05
 0.67269997E+02  0.25564E+05
 0.67320000E+02  0.21804E+05
 0.67369995E+02 -0.93730E+04
 0.67419998E+02 -0.37063E+05
 0.67470001E+02 -0.69332E+05
 0.67519997E+02 -0.10412E+06
 0.67570000E+02 -0.11236E+06
 0.67619995E+02 -0.66122E+05
 0.67669998E+02 -0.25846E+05
 0.67720001E+02  0.23270E+04
 0.67769997E+02  0.33873E+05
 0.67820000E+02  0.49445E+05
 0.67869995E+02  0.70764E+05
 0.67919998E+02  0.86096E+05
 0.67970001E+02  0.69346E+05
 0.68019997E+02  0.20711E+05
 0.68070000E+02 -0.35675E+05
 0.68119995E+02 -0.72110E+05
 0.68169998E+02 -0.70190E+05
 0.68220001E+02 -0.26104E+05
 0.68269997E+02  0.22078E+05
 0.68320000E+02  0.44271E+05
 0.68369995E+02  0.55371E+05
 0.68419998E+02  0.57376E+05
 0.68470001E+02  0.55016E+05
 0.68519997E+02  0.69751E+05
 0.68570000E+02  0.89998E+05
 0.68619995E+02  0.99777E+05
 0.68669998E+02  0.98233E+05
 0.68720001E+02  0.90143E+05
 0.68769997E+02  0.69631E+05
 0.68820000E+02  0.47439E+05
 0.68869995E+02  0.27406E+05
 0.68919998E+02 -0.20130E+05
 0.68970001E+02 -0.66136E+05
 0.69019997E+02 -0.86257E+05
 0.69070000E+02 -0.78855E+05
 0.69119995E+02 -0.60294E+05
 0.69169998E+02 -0.63697E+05
 0.69220001E+02 -0.31159E+05
 0.69269997E+02  0.10694E+05
 0.69320000E+02 -0.32300E+04
 0.69369995E+02 -0.23751E+05
 0.69419998E+02 -0.28214E+05
 0.69470001E+02 -0.13696E+05
 0.69519997E+02 -0.11006E+05
 0.69570000E+02 -0.28950E+05
 0.69619995E+02 -0.37251E+05
 0.69669998E+02 -0.34704E+05
 0.69720001E+02 -0.19919E+05
 0.69769997E+02 -0.14200E+03
 0.69820000E+02  0.10825E+05
 0.69869995E+02 -0.13117E+05
 0.69919998E+02 -0.46599E+05
 0.69970001E+02 -0.61847E+05
 0.70019997E+02 -0.85997E+05
 0.70070000E+02 -0.11715E+06
 0.70119995E+02 -0.10193E+06
 0.70169998E+02 -0.55804E+05
 0.70220001E+02 -0.36789E+05
 0.70269997E+02 -0.29870E+05
 0.70320000E+02 -0.46605E+05
 0.70369995E+02 -0.81935E+05
 0.70419998E+02 -0.96189E+05
 0.70470001E+02 -0.75851E+05
 0.70519997E+02 -0.54324E+05
 0.70570000E+02 -0.48844E+05
 0.70619995E+02 -0.33479E+05
 0.70669998E+02 -0.19770E+05
 0.70720001E+02  0.10580E+04
 0.70769997E+02  0.12475E+05
 0.70820000E+02  0.26030E+05
 0.70869995E+02  0.59258E+05
 0.70919998E+02  0.74117E+05
 0.70970001E+02  0.88896E+05
 0.71019997E+02  0.94576E+05
 0.71070000E+02  0.83998E+05
 0.71119995E+02  0.67616E+05
 0.71169998E+02  0.41409E+05
 0.71220001E+02  0.24413E+05
 0.71269997E+02  0.11799E+05
 0.71320000E+02 -0.54200E+04
 0.71369995E+02 -0.31297E+05
 0.71419998E+02 -0.32987E+05
 0.71470001E+02 -0.28187E+05
 0.71519997E+02 -0.70000E+05
 0.71570000E+02 -0.86943E+05
 0.71619995E+02 -0.63523E+05
 0.71669998E+02 -0.52785E+05
 0.71720001E+02 -0.48727E+05
 0.71769997E+02 -0.61813E+05
 0.71820000E+02 -0.88751E+05
 0.71869995E+02 -0.97934E+05
 0.71919998E+02 -0.76282E+05
 0.71970001E+02 -0.30459E+05
 0.72019997E+02  0.87040E+04
 0.72070000E+02  0.17567E+05
 0.72119995E+02  0.59080E+04
 0.72169998E+02 -0.47250E+04
 0.72220001E+02 -0.13716E+05
 0.72269997E+02 -0.15397E+05
 0.72320000E+02  0.69200E+03
 0.72369995E+02  0.58810E+04
 0.72419998E+02  0.64910E+04
 0.72470001E+02  0.59520E+04
 0.72519997E+02 -0.18876E+05
 0.72570000E+02 -0.41148E+05
 0.72619995E+02 -0.41436E+05
 0.72669998E+02 -0.18161E+05
 0.72720001E+02  0.84230E+04
 0.72769997E+02  0.30401E+05
 0.72820000E+02  0.58251E+05
 0.72869995E+02  0.59372E+05
 0.72919998E+02  0.36725E+05
 0.72970001E+02  0.36210E+04
 0.73019997E+02 -0.52861E+05
 0.73070000E+02 -0.84899E+05
 0.73119995E+02 -0.78711E+05
 0.73169998E+02 -0.53414E+05
 0.73220001E+02 -0.99610E+04
 0.73269997E+02  0.34837E+05
 0.73320000E+02  0.85059E+05
 0.73369995E+02  0.85873E+05
 0.73419998E+02  0.61726E+05
 0.73470001E+02  0.56371E+05
 0.73519997E+02  0.17485E+05
 0.73570000E+02  0.22420E+04
 0.73619995E+02 -0.77610E+04
 0.73669998E+02 -0.23414E+05
 0.73720001E+02  0.82720E+04
 0.73769997E+02  0.26557E+05
 0.73820000E+02  0.35671E+05
 0.73869995E+02  0.46764E+05
 0.73919998E+02  0.51931E+05
 0.73970001E+02  0.70152E+05
 0.74019997E+02  0.87917E+05
 0.74070000E+02  0.90733E+05
 0.74119995E+02  0.70941E+05
 0.74169998E+02  0.28712E+05
 0.74220001E+02 -0.36522E+05
 0.74269997E+02 -0.86200E+05
 0.74320000E+02 -0.10668E+06
 0.74369995E+02 -0.13966E+06
 0.74419998E+02 -0.15305E+06
 0.74470001E+02 -0.13579E+06
 0.74519997E+02 -0.13388E+06
 0.74570000E+02 -0.11924E+06
 0.74619995E+02 -0.91177E+05
 0.74669998E+02 -0.70919E+05
 0.74720001E+02 -0.47416E+05
 0.74769997E+02 -0.25893E+05
 0.74820000E+02 -0.42100E+03
 0.74869995E+02  0.49010E+04
 0.74919998E+02 -0.15404E+05
 0.74970001E+02 -0.48780E+05
 0.75019997E+02 -0.78826E+05
 0.75070000E+02 -0.61855E+05
 0.75119995E+02 -0.27128E+05
 0.75169998E+02 -0.25156E+05
 0.75220001E+02 -0.15967E+05
 0.75269997E+02  0.41949E+05
 0.75320000E+02  0.66914E+05
 0.75369995E+02  0.35715E+05
 0.75419998E+02  0.33965E+05
 0.75470001E+02  0.54687E+05
 0.75519997E+02  0.59081E+05
 0.75570000E+02  0.55903E+05
 0.75619995E+02  0.63310E+05
 0.75669998E+02  0.57993E+05
 0.75720001E+02  0.15201E+05
 0.75769997E+02 -0.31234E+05
 0.75820000E+02 -0.20941E+05
 0.75869995E+02  0.29631E+05
 0.75919998E+02  0.37701E+05
 0.75970001E+02  0.30754E+05
 0.76019997E+02  0.30898E+05
 0.76070000E+02  0.81100E+04
 0.76119995E+02 -0.13532E+05
 0.76169998E+02 -0.28459E+05
 0.76220001E+02 -0.35473E+05
 0.76269997E+02 -0.14928E+05
 0.76320000E+02  0.58810E+04
 0.76369995E+02 -0.91130E+04
 0.76419998E+02 -0.27945E+05
 0.76470001E+02 -0.41863E+05
 0.76519997E+02 -0.75190E+05
 0.76570000E+02 -0.11485E+06
 0.76619995E+02 -0.12112E+06
 0.76669998E+02 -0.85555E+05
 0.76720001E+02 -0.52693E+05
 0.76769997E+02 -0.42242E+05
 0.76820000E+02 -0.19960E+05
 0.76869995E+02  0.29040E+05
 0.76919998E+02  0.79810E+05
 0.76970001E+02  0.12305E+06
 0.77019997E+02  0.13321E+06
 0.77070000E+02  0.13284E+06
 0.77119995E+02  0.12597E+06
 0.77169998E+02  0.89062E+05
 0.77220001E+02  0.46200E+05
 0.77269997E+02 -0.11976E+05
 0.77320000E+02 -0.40444E+05
 0.77369995E+02 -0.27012E+05
 0.77419998E+02 -0.25624E+05
 0.77470001E+02 -0.41739E+05
 0.77519997E+02 -0.25895E+05
 0.77570000E+02  0.23656E+05
 0.77619995E+02  0.44726E+05
 0.77669998E+02  0.47593E+05
 0.77720001E+02  0.57703E+05
 0.77769997E+02  0.50964E+05
 0.77820000E+02  0.23514E+05
 0.77869995E+02 -0.14388E+05
 0.77919998E+02 -0.68715E+05
 0.77970001E+02 -0.82581E+05
 0.78019997E+02 -0.48760E+05
 0.78070000E+02 -0.20004E+05
 0.78119995E+02 -0.23800E+04
 0.78169998E+02  0.29850E+04
 0.78220001E+02  0.15737E+05
 0.78269997E+02  0.42358E+05
 0.78320000E+02  0.47886E+05
 0.78369995E+02  0.34072E+05
 0.78419998E+02  0.27364E+05
 0.78470001E+02 -0.10409E+05
 0.78519997E+02 -0.43016E+05
 0.78570000E+02 -0.40680E+05
 0.78619995E+02 -0.55095E+05
 0.78669998E+02 -0.48050E+05
 0.78720001E+02 -0.38281E+05
 0.78769997E+02 -0.49096E+05
 0.78820000E+02 -0.31092E+05
 0.78869995E+02 -0.28560E+05
 0.78919998E+02 -0.52522E+05
 0.78970001E+02 -0.38089E+05
 0.79019997E+02  0.16340E+05
 0.79070000E+02  0.46242E+05
 0.79119995E+02  0.44236E+05
 0.79169998E+02  0.49983E+05
 0.79220001E+02  0.17650E+05
 0.79269997E+02 -0.27612E+05
 0.79320000E+02 -0.34671E+05
 0.79369995E+02 -0.51693E+05
 0.79419998E+02 -0.97977E+05
 0.79470001E+02 -0.14145E+06
 0.79519997E+02 -0.14887E+06
 0.79570000E+02 -0.15951E+06
 0.79619995E+02 -0.16934E+06
 0.79669998E+02 -0.14694E+06
 0.79720001E+02 -0.13241E+06
 0.79769997E+02 -0.12544E+06
 0.79820000E+02 -0.11529E+06
 0.79869995E+02 -0.11891E+06
 0.79919998E+02 -0.11539E+06
 0.79970001E+02 -0.77257E+05
 0.80019997E+02 -0.58750E+04
 0.80070000E+02  0.92386E+05
 0.80119995E+02  0.19587E+06
 0.80169998E+02  0.27577E+06
 0.80220001E+02  0.28575E+06
 0.80269997E+02  0.24517E+06
 0.80320000E+02  0.22364E+06
 0.80369995E+02  0.21743E+06
 0.80419998E+02  0.21885E+06
 0.80470001E+02  0.21180E+06
 0.80519997E+02  0.17657E+06
 0.80570000E+02  0.14980E+06
 0.80619995E+02  0.12562E+06
 0.80669998E+02  0.45257E+05
 0.80720001E+02 -0.51706E+05
 0.80769997E+02 -0.96304E+05
 0.80820000E+02 -0.11773E+06
 0.80869995E+02 -0.10192E+06
 0.80919998E+02 -0.50689E+05
 0.80970001E+02 -0.41086E+05
 0.81019997E+02 -0.67795E+05
 0.81070000E+02 -0.10166E+06
 0.81119995E+02 -0.12525E+06
 0.81169998E+02 -0.13109E+06
 0.81220001E+02 -0.12354E+06
 0.81269997E+02 -0.77946E+05
 0.81320000E+02 -0.71110E+04
 0.81369995E+02  0.28557E+05
 0.81419998E+02  0.43083E+05
 0.81470001E+02  0.38740E+05
 0.81519997E+02 -0.28070E+04
 0.81570000E+02 -0.30309E+05
 0.81619995E+02 -0.34621E+05
 0.81669998E+02 -0.20587E+05
 0.81720001E+02 -0.29142E+05
 0.81769997E+02 -0.76032E+05
 0.81820000E+02 -0.14089E+06
 0.81869995E+02 -0.17851E+06
 0.81919998E+02 -0.22295E+06
 0.81970001E+02 -0.31499E+06
 0.82019997E+02 -0.31929E+06
 0.82070000E+02 -0.28418E+06
 0.82119995E+02 -0.18985E+06
 0.82169998E+02  0.36384E+05
 0.82220001E+02  0.21641E+06
 0.82269997E+02  0.27959E+06
 0.82320000E+02  0.20975E+06
 0.82369995E+02  0.52940E+05
 0.82419998E+02 -0.30945E+05
 0.82470001E+02 -0.57988E+05
 0.82519997E+02 -0.75173E+05
 0.82570000E+02 -0.91008E+05
 0.82619995E+02 -0.76538E+05
 0.82669998E+02  0.63411E+05
 0.82720001E+02  0.21197E+06
 0.82769997E+02  0.30602E+06
 0.82820000E+02  0.33509E+06
 0.82869995E+02  0.32253E+06
 0.82919998E+02  0.35512E+06
 0.82970001E+02  0.30504E+06
 0.83019997E+02  0.20838E+06
 0.83070000E+02  0.11746E+06
 0.83119995E+02 -0.65470E+04
 0.83169998E+02 -0.81998E+05
 0.83220001E+02 -0.11348E+06
 0.83269997E+02 -0.11183E+06
 0.83320000E+02 -0.10534E+06
 0.83369995E+02 -0.11646E+06
 0.83419998E+02  0.80890E+04
 0.83470001E+02  0.22498E+06
 0.83519997E+02  0.27696E+06
 0.83570000E+02  0.17242E+06
 0.83619995E+02  0.52500E+03
 0.83669998E+02 -0.18218E+06
 0.83720001E+02 -0.27373E+06
 0.83769997E+02 -0.24004E+06
 0.83820000E+02 -0.15864E+06
 0.83869995E+02 -0.13634E+06
 0.83919998E+02 -0.11253E+06
 0.83970001E+02 -0.72720E+04
 0.84019997E+02  0.53279E+05
 0.84070000E+02  0.41830E+04
 0.84119995E+02 -0.10358E+05
 0.84169998E+02 -0.23377E+05
 0.84220001E+02 -0.57958E+05
 0.84269997E+02 -0.37116E+05
 0.84320000E+02 -0.31950E+05
 0.84369995E+02  0.45130E+04
 0.84419998E+02  0.25457E+05
 0.84470001E+02 -0.15539E+05
 0.84519997E+02 -0.17636E+05
 0.84570000E+02  0.46450E+04
 0.84619995E+02  0.28280E+05
 0.84669998E+02 -0.11114E+05
 0.84720001E+02 -0.42720E+05
 0.84769997E+02  0.11054E+05
 0.84820000E+02  0.26299E+05
 0.84869995E+02 -0.15707E+05
 0.84919998E+02 -0.77633E+05
 0.84970001E+02 -0.19054E+06
 0.85019997E+02 -0.24989E+06
 0.85070000E+02 -0.20230E+06
 0.85119995E+02 -0.11870E+06
 0.85169998E+02  0.13752E+05
 0.85220001E+02  0.41752E+05
 0.85269997E+02 -0.44609E+05
 0.85320000E+02 -0.91932E+05
 0.85369995E+02 -0.10975E+06
 0.85419998E+02 -0.11847E+06
 0.85470001E+02 -0.15365E+06
 0.85519997E+02 -0.21337E+06
 0.85570000E+02 -0.28911E+06
 0.85619995E+02 -0.28867E+06
 0.85669998E+02 -0.23610E+06
 0.85720001E+02 -0.21521E+06
 0.85769997E+02 -0.12916E+06
 0.85820000E+02 -0.90219E+05
 0.85869995E+02 -0.13942E+06
 0.85919998E+02 -0.13801E+06
 0.85970001E+02 -0.13904E+06
 0.86019997E+02 -0.18238E+06
 0.86070000E+02 -0.21447E+06
 0.86119995E+02 -0.21277E+06
 0.86169998E+02 -0.25291E+06
 0.86220001E+02 -0.34624E+06
 0.86269997E+02 -0.36877E+06
 0.86320000E+02 -0.32413E+06
 0.86369995E+02 -0.28363E+06
 0.86419998E+02 -0.22062E+06
 0.86470001E+02 -0.16398E+06
 0.86519997E+02 -0.16605E+06
 0.86570000E+02 -0.15564E+06
 0.86619995E+02 -0.14412E+06
 0.86669998E+02 -0.11828E+06
 0.86720001E+02 -0.48287E+05
 0.86769997E+02 -0.40660E+05
 0.86820000E+02 -0.50588E+05
 0.86869995E+02  0.59880E+04
 0.86919998E+02  0.70366E+05
 0.86970001E+02  0.10852E+06
 0.87019997E+02  0.13500E+06
 0.87070000E+02  0.14443E+06
 0.87119995E+02  0.13939E+06
 0.87169998E+02  0.12065E+06
 0.87220001E+02  0.95087E+05
 0.87269997E+02  0.64847E+05
 0.87320000E+02  0.45680E+04
 0.87369995E+02 -0.93509E+05
 0.87419998E+02 -0.16659E+06
 0.87470001E+02 -0.17114E+06
 0.87519997E+02 -0.15650E+06
 0.87570000E+02 -0.11671E+06
 0.87619995E+02 -0.89754E+05
 0.87669998E+02 -0.14104E+06
 0.87720001E+02 -0.20184E+06
 0.87769997E+02 -0.23468E+06
 0.87820000E+02 -0.24448E+06
 0.87869995E+02 -0.27174E+06
 0.87919998E+02 -0.31341E+06
 0.87970001E+02 -0.27956E+06
 0.88019997E+02 -0.17591E+06
 0.88070000E+02 -0.37346E+05
 0.88119995E+02  0.51439E+05
 0.88169998E+02  0.60203E+05
 0.88220001E+02  0.91051E+05
 0.88269997E+02  0.16562E+06
 0.88320000E+02  0.20585E+06
 0.88369995E+02  0.19743E+06
 0.88419998E+02  0.18686E+06
 0.88470001E+02  0.12430E+06
 0.88519997E+02  0.56380E+05
 0.88570000E+02  0.36641E+05
 0.88619995E+02  0.51685E+05
 0.88669998E+02  0.12303E+06
 0.88720001E+02  0.20367E+06
 0.88769997E+02  0.29190E+06
 0.88820000E+02  0.36114E+06
 0.88869995E+02  0.37699E+06
 0.88919998E+02  0.33448E+06
 0.88970001E+02  0.26337E+06
 0.89019997E+02  0.16708E+06
 0.89070000E+02  0.34753E+05
 0.89119995E+02 -0.68650E+04
 0.89169998E+02  0.33615E+05
 0.89220001E+02  0.58675E+05
 0.89269997E+02  0.55382E+05
 0.89320000E+02  0.12732E+05
 0.89369995E+02 -0.69018E+05
 0.89419998E+02 -0.14114E+06
 0.89470001E+02 -0.14686E+06
 0.89519997E+02 -0.76964E+05
 0.89570000E+02 -0.55670E+04
 0.89619995E+02  0.47670E+05
 0.89669998E+02  0.16551E+06
 0.89720001E+02  0.32939E+06
 0.89769997E+02  0.48377E+06
 0.89820000E+02  0.50345E+06
 0.89869995E+02  0.39444E+06
 0.89919998E+02  0.26995E+06
 0.89970001E+02  0.13944E+06
 0.90019997E+02  0.98205E+05
 0.90070000E+02  0.13686E+06
 0.90119995E+02  0.17873E+06
 0.90169998E+02  0.14508E+06
 0.90220001E+02  0.50492E+05
 0.90269997E+02 -0.40369E+05
 0.90320000E+02 -0.18260E+06
 0.90369995E+02 -0.32852E+06
 0.90419998E+02 -0.47248E+06
 0.90470001E+02 -0.60075E+06
 0.90519997E+02 -0.66954E+06
 0.90570000E+02 -0.74109E+06
 0.90619995E+02 -0.72874E+06
 0.90669998E+02 -0.49817E+06
 0.90720001E+02 -0.12925E+06
 0.90769997E+02  0.15653E+06
 0.90820000E+02  0.19474E+06
 0.90869995E+02  0.95106E+05
 0.90919998E+02  0.21451E+05
 0.90970001E+02 -0.61589E+05
 0.91019997E+02 -0.14511E+06
 0.91070000E+02 -0.13349E+06
 0.91119995E+02 -0.74070E+04
 0.91169998E+02  0.15931E+06
 0.91220001E+02  0.28052E+06
 0.91269997E+02  0.33884E+06
 0.91320000E+02  0.34068E+06
 0.91369995E+02  0.19661E+06
 0.91419998E+02 -0.74324E+05
 0.91470001E+02 -0.27083E+06
 0.91519997E+02 -0.30688E+06
 0.91570000E+02 -0.18452E+06
 0.91619995E+02  0.74615E+05
 0.91669998E+02  0.36168E+06
 0.91720001E+02  0.52040E+06
 0.91769997E+02  0.52262E+06
 0.91820000E+02  0.51285E+06
 0.91869995E+02  0.56601E+06
 0.91919998E+02  0.57824E+06
 0.91970001E+02  0.47843E+06
 0.92019997E+02  0.34966E+06
 0.92070000E+02  0.29636E+06
 0.92119995E+02  0.31747E+06
 0.92169998E+02  0.31308E+06
 0.92220001E+02  0.19192E+06
 0.92269997E+02 -0.16937E+05
 0.92320000E+02 -0.16368E+06
 0.92369995E+02 -0.27346E+06
 0.92419998E+02 -0.37330E+06
 0.92470001E+02 -0.28654E+06
 0.92519997E+02 -0.13443E+06
 0.92570000E+02 -0.11162E+06
 0.92619995E+02 -0.18946E+06
 0.92669998E+02 -0.39080E+06
 0.92720001E+02 -0.57681E+06
 0.92769997E+02 -0.53734E+06
 0.92820000E+02 -0.34452E+06
 0.92869995E+02 -0.10162E+06
 0.92919998E+02  0.98688E+05
 0.92970001E+02  0.22224E+06
 0.93019997E+02  0.30546E+06
 0.93070000E+02  0.23214E+06
 0.93119995E+02  0.16741E+06
 0.93169998E+02  0.23898E+06
 0.93220001E+02  0.26469E+06
 0.93269997E+02  0.28978E+06
 0.93320000E+02  0.33707E+06
 0.93369995E+02  0.43079E+06
 0.93419998E+02  0.55926E+06
 0.93470001E+02  0.53376E+06
 0.93519997E+02  0.34857E+06
 0.93570000E+02  0.17318E+06
 0.93619995E+02  0.10134E+06
 0.93669998E+02  0.90286E+05
 0.93720001E+02  0.43930E+05
 0.93769997E+02 -0.68505E+05
 0.93820000E+02 -0.88916E+05
 0.93869995E+02 -0.73615E+05
 0.93919998E+02 -0.20321E+06
 0.93970001E+02 -0.36239E+06
 0.94019997E+02 -0.48098E+06
 0.94070000E+02 -0.50904E+06
 0.94119995E+02 -0.42279E+06
 0.94169998E+02 -0.30649E+06
 0.94220001E+02 -0.17629E+06
 0.94269997E+02 -0.57232E+05
 0.94320000E+02  0.60936E+05
 0.94369995E+02  0.17114E+06
 0.94419998E+02  0.21336E+06
 0.94470001E+02  0.20531E+06
 0.94519997E+02  0.23672E+06
 0.94570000E+02  0.28099E+06
 0.94619995E+02  0.22331E+06
 0.94669998E+02  0.46474E+05
 0.94720001E+02 -0.18831E+06
 0.94769997E+02 -0.30452E+06
 0.94820000E+02 -0.25514E+06
 0.94869995E+02 -0.11915E+06
 0.94919998E+02  0.20051E+05
 0.94970001E+02  0.50800E+05
 0.95019997E+02  0.12250E+05
 0.95070000E+02 -0.72421E+05
 0.95119995E+02 -0.17973E+06
 0.95169998E+02 -0.23471E+06
 0.95220001E+02 -0.24602E+06
 0.95269997E+02 -0.21902E+06
 0.95320000E+02 -0.15862E+06
 0.95369995E+02 -0.11109E+06
 0.95419998E+02 -0.60286E+05
 0.95470001E+02 -0.74230E+04
 0.95519997E+02  0.93400E+03
 0.95570000E+02  0.68976E+05
 0.95619995E+02  0.23932E+06
 0.95669998E+02  0.40237E+06
 0.95720001E+02  0.46803E+06
 0.95769997E+02  0.50892E+06
 0.95820000E+02  0.66406E+06
 0.95869995E+02  0.77452E+06
 0.95919998E+02  0.72033E+06
 0.95970001E+02  0.62430E+06
 0.96019997E+02  0.52939E+06
 0.96070000E+02  0.45231E+06
 0.96119995E+02  0.45190E+06
 0.96169998E+02  0.56335E+06
 0.96220001E+02  0.67891E+06
 0.96269997E+02  0.63369E+06
 0.96320000E+02  0.43181E+06
 0.96369995E+02  0.19372E+06
 0.96419998E+02  0.52478E+05
 0.96470001E+02 -0.11527E+05
 0.96519997E+02 -0.73930E+05
 0.96570000E+02 -0.10085E+06
 0.96619995E+02 -0.72284E+05
 0.96669998E+02 -0.39360E+04
 0.96720001E+02  0.44106E+05
 0.96769997E+02  0.12906E+06
 0.96820000E+02  0.32428E+06
 0.96869995E+02  0.51432E+06
 0.96919998E+02  0.64175E+06
 0.96970001E+02  0.67085E+06
 0.97019997E+02  0.53033E+06
 0.97070000E+02  0.31647E+06
 0.97119995E+02  0.17175E+06
 0.97169998E+02  0.89311E+05
 0.97220001E+02  0.79121E+05
 0.97269997E+02  0.17885E+06
 0.97320000E+02  0.26359E+06
 0.97369995E+02  0.24669E+06
 0.97419998E+02  0.17263E+06
 0.97470001E+02  0.66920E+05
 0.97519997E+02 -0.33574E+05
 0.97570000E+02 -0.17852E+06
 0.97619995E+02 -0.39329E+06
 0.97669998E+02 -0.62528E+06
 0.97720001E+02 -0.83456E+06
 0.97769997E+02 -0.83660E+06
 0.97820000E+02 -0.62470E+06
 0.97869995E+02 -0.40857E+06
 0.97919998E+02 -0.28463E+06
 0.97970001E+02 -0.25637E+06
 0.98019997E+02 -0.20952E+06
 0.98070000E+02 -0.11747E+06
 0.98119995E+02 -0.98133E+05
 0.98169998E+02 -0.57499E+05
 0.98220001E+02  0.16451E+06
 0.98269997E+02  0.48909E+06
 0.98320000E+02  0.78151E+06
 0.98369995E+02  0.95862E+06
 0.98419998E+02  0.95676E+06
 0.98470001E+02  0.75378E+06
 0.98519997E+02  0.42433E+06
 0.98570000E+02  0.11618E+06
 0.98619995E+02 -0.11414E+06
 0.98669998E+02 -0.26612E+06
 0.98720001E+02 -0.30387E+06
 0.98769997E+02 -0.24906E+06
 0.98820000E+02 -0.20732E+06
 0.98869995E+02 -0.21246E+06
 0.98919998E+02 -0.21886E+06
 0.98970001E+02 -0.21211E+06
 0.99019997E+02 -0.16243E+06
 0.99070000E+02  0.55770E+04
 0.99119995E+02  0.23408E+06
 0.99169998E+02  0.37214E+06
 0.99220001E+02  0.38221E+06
 0.99269997E+02  0.29604E+06
 0.99320000E+02  0.23765E+06
 0.99369995E+02  0.28261E+06
 0.99419998E+02  0.34776E+06
 0.99470001E+02  0.32363E+06
 0.99519997E+02  0.20226E+06
 0.99570000E+02  0.13707E+06
 0.99619995E+02  0.11448E+06
 0.99669998E+02 -0.48394E+05
 0.99720001E+02 -0.28258E+06
 0.99769997E+02 -0.35795E+06
 0.99820000E+02 -0.21539E+06
 0.99869995E+02  0.90676E+05
 0.99919998E+02  0.43553E+06
 0.99970001E+02  0.59635E+06
 0.10002000E+03  0.56217E+06
 0.10007000E+03  0.45826E+06
 0.10012000E+03  0.28382E+06
 0.10017000E+03  0.54534E+05
 0.10022000E+03 -0.14901E+06
 0.10027000E+03 -0.20152E+06
 0.10032000E+03 -0.51833E+05
 0.10037000E+03  0.12226E+06
 0.10042000E+03  0.69474E+05
 0.10047000E+03 -0.21892E+06
 0.10052000E+03 -0.48013E+06
 0.10057000E+03 -0.55694E+06
 0.10062000E+03 -0.45199E+06
 0.10067000E+03 -0.14069E+06
 0.10072000E+03  0.25033E+06
 0.10077000E+03  0.50993E+06
 0.10082000E+03  0.60654E+06
 0.10087000E+03  0.58108E+06
 0.10092000E+03  0.45566E+06
 0.10097000E+03  0.33682E+06
 0.10102000E+03  0.37755E+06
 0.10107000E+03  0.51358E+06
 0.10112000E+03  0.59579E+06
 0.10117000E+03  0.64224E+06
 0.10122000E+03  0.66186E+06
 0.10127000E+03  0.70621E+06
 0.10132000E+03  0.72836E+06
 0.10137000E+03  0.55605E+06
 0.10142000E+03  0.30714E+06
 0.10147000E+03  0.15698E+06
 0.10152000E+03  0.12245E+06
 0.10157000E+03  0.13133E+06
 0.10162000E+03  0.10378E+06
 0.10167000E+03  0.54396E+05
 0.10172000E+03  0.19569E+05
 0.10177000E+03  0.73095E+05
 0.10182000E+03  0.22541E+06
 0.10187000E+03  0.41058E+06
 0.10192000E+03  0.56885E+06
 0.10197000E+03  0.66590E+06
 0.10202000E+03  0.73257E+06
 0.10207000E+03  0.72847E+06
 0.10212000E+03  0.62808E+06
 0.10217000E+03  0.53624E+06
 0.10222000E+03  0.43716E+06
 0.10227000E+03  0.22274E+06
 0.10232000E+03 -0.22456E+05
 0.10237000E+03 -0.17674E+06
 0.10242000E+03 -0.19057E+06
 0.10247000E+03 -0.27833E+05
 0.10252000E+03  0.15308E+06
 0.10257000E+03  0.17554E+06
 0.10262000E+03 -0.12166E+05
 0.10267000E+03 -0.43084E+06
 0.10272000E+03 -0.92594E+06
 0.10277000E+03 -0.12506E+07
 0.10282000E+03 -0.13184E+07
 0.10287000E+03 -0.12619E+07
 0.10292000E+03 -0.12120E+07
 0.10297000E+03 -0.11599E+07
 0.10302000E+03 -0.10557E+07
 0.10307000E+03 -0.86279E+06
 0.10312000E+03 -0.61189E+06
 0.10317000E+03 -0.40567E+06
 0.10322000E+03 -0.32898E+06
 0.10327000E+03 -0.33834E+06
 0.10332000E+03 -0.36001E+06
 0.10337000E+03 -0.35226E+06
 0.10342000E+03 -0.30595E+06
 0.10347000E+03 -0.28684E+06
 0.10352000E+03 -0.29121E+06
 0.10357000E+03 -0.26428E+06
 0.10362000E+03 -0.19186E+06
 0.10367000E+03 -0.82501E+05
 0.10372000E+03  0.53257E+05
 0.10377000E+03  0.23071E+06
 0.10382000E+03  0.38876E+06
 0.10387000E+03  0.44239E+06
 0.10392000E+03  0.41168E+06
 0.10397000E+03  0.34912E+06
 0.10402000E+03  0.31208E+06
 0.10407000E+03  0.30134E+06
 0.10412000E+03  0.29602E+06
 0.10417000E+03  0.29887E+06
 0.10422000E+03  0.28354E+06
 0.10427000E+03  0.25490E+06
 0.10432000E+03  0.25996E+06
 0.10437000E+03  0.27351E+06
 0.10442000E+03  0.16576E+06
 0.10447000E+03 -0.31898E+05
 0.10452000E+03 -0.17651E+06
 0.10457000E+03 -0.27462E+06
 0.10462000E+03 -0.41162E+06
 0.10467000E+03 -0.56883E+06
 0.10472000E+03 -0.65752E+06
 0.10477000E+03 -0.72348E+06
 0.10482000E+03 -0.82979E+06
 0.10487000E+03 -0.95209E+06
 0.10492000E+03 -0.10532E+07
 0.10497000E+03 -0.10796E+07
 0.10502000E+03 -0.95340E+06
 0.10507000E+03 -0.71389E+06
 0.10512000E+03 -0.49838E+06
 0.10517000E+03 -0.35517E+06
 0.10522000E+03 -0.31274E+06
 0.10527000E+03 -0.34990E+06
 0.10532000E+03 -0.36062E+06
 0.10537000E+03 -0.28061E+06
 0.10542000E+03 -0.13469E+06
 0.10547000E+03 -0.67150E+04
 0.10552000E+03  0.50883E+05
 0.10557000E+03  0.39596E+05
 0.10562000E+03 -0.69448E+05
 0.10567000E+03 -0.28130E+06
 0.10572000E+03 -0.50836E+06
 0.10577000E+03 -0.70892E+06
 0.10582000E+03 -0.84360E+06
 0.10587000E+03 -0.84512E+06
 0.10592000E+03 -0.72732E+06
 0.10597000E+03 -0.55878E+06
 0.10602000E+03 -0.45722E+06
 0.10607000E+03 -0.41358E+06
 0.10612000E+03 -0.32103E+06
 0.10617000E+03 -0.23650E+06
 0.10622000E+03 -0.23522E+06
 0.10627000E+03 -0.28300E+06
 0.10632000E+03 -0.28105E+06
 0.10637000E+03 -0.16407E+06
 0.10642000E+03  0.20543E+05
 0.10647000E+03  0.19714E+06
 0.10652000E+03  0.31064E+06
 0.10657000E+03  0.35862E+06
 0.10662000E+03  0.34682E+06
 0.10667000E+03  0.29234E+06
 0.10672000E+03  0.20804E+06
 0.10677000E+03  0.62244E+05
 0.10682000E+03 -0.97535E+05
 0.10687000E+03 -0.19797E+06
 0.10692000E+03 -0.19549E+06
 0.10697000E+03 -0.98152E+05
 0.10702000E+03 -0.14797E+05
 0.10707000E+03 -0.18488E+05
 0.10712000E+03 -0.82413E+05
 0.10717000E+03 -0.17181E+06
 0.10722000E+03 -0.25135E+06
 0.10727000E+03 -0.25231E+06
 0.10732000E+03 -0.16391E+06
 0.10737000E+03 -0.68329E+05
 0.10742000E+03 -0.28706E+05
 0.10747000E+03 -0.36785E+05
 0.10752000E+03 -0.75818E+05
 0.10757000E+03 -0.13689E+06
 0.10762000E+03 -0.19612E+06
 0.10767000E+03 -0.23148E+06
 0.10772000E+03 -0.19144E+06
 0.10777000E+03 -0.10701E+05
 0.10782000E+03  0.27145E+06
 0.10787000E+03  0.55710E+06
 0.10792000E+03  0.79179E+06
 0.10797000E+03  0.95390E+06
 0.10802000E+03  0.10129E+07
 0.10807000E+03  0.93339E+06
 0.10812000E+03  0.77440E+06
 0.10817000E+03  0.59363E+06
 0.10822000E+03  0.44098E+06
 0.10827000E+03  0.41813E+06
 0.10832000E+03  0.47892E+06
 0.10837000E+03  0.49748E+06
 0.10842000E+03  0.38768E+06
 0.10847000E+03  0.13772E+06
 0.10852000E+03 -0.17147E+06
 0.10857000E+03 -0.46205E+06
 0.10862000E+03 -0.64931E+06
 0.10867000E+03 -0.71876E+06
 0.10872000E+03 -0.70251E+06
 0.10877000E+03 -0.60169E+06
 0.10882000E+03 -0.45715E+06
 0.10887000E+03 -0.33280E+06
 0.10892000E+03 -0.25451E+06
 0.10897000E+03 -0.15869E+06
 0.10902000E+03 -0.32376E+05
 0.10907000E+03  0.37796E+05
 0.10912000E+03  0.27027E+05
 0.10917000E+03 -0.65182E+05
 0.10922000E+03 -0.24390E+06
 0.10927000E+03 -0.44661E+06
 0.10932000E+03 -0.59682E+06
 0.10937000E+03 -0.65418E+06
 0.10942000E+03 -0.60394E+06
 0.10947000E+03 -0.50222E+06
 0.10952000E+03 -0.40994E+06
 0.10957000E+03 -0.33201E+06
 0.10962000E+03 -0.29165E+06
 0.10967000E+03 -0.31189E+06
 0.10972000E+03 -0.33919E+06
 0.10977000E+03 -0.28464E+06
 0.10982000E+03 -0.15198E+06
 0.10987000E+03 -0.13666E+05
 0.10992000E+03  0.91573E+05
 0.10997000E+03  0.12466E+06
 0.11002000E+03  0.52840E+04
 0.11007000E+03 -0.29159E+06
 0.11012000E+03 -0.63777E+06
 0.11017000E+03 -0.89038E+06
 0.11022000E+03 -0.10299E+07
 0.11027000E+03 -0.10540E+07
 0.11032000E+03 -0.96168E+06
 0.11037000E+03 -0.81556E+06
 0.11042000E+03 -0.67380E+06
 0.11047000E+03 -0.55771E+06
 0.11052000E+03 -0.48287E+06
 0.11057000E+03 -0.48119E+06
 0.11062000E+03 -0.51891E+06
 0.11067000E+03 -0.49970E+06
 0.11072000E+03 -0.41480E+06
 0.11077000E+03 -0.31347E+06
 0.11082000E+03 -0.23635E+06
 0.11087000E+03 -0.18948E+06
 0.11092000E+03 -0.13384E+06
 0.11097000E+03 -0.44308E+05
 0.11102000E+03  0.55045E+05
 0.11107000E+03  0.12894E+06
 0.11112000E+03  0.15768E+06
 0.11117000E+03  0.12374E+06
 0.11122000E+03  0.40374E+05
 0.11127000E+03 -0.63208E+05
 0.11132000E+03 -0.14268E+06
 0.11137000E+03 -0.16534E+06
 0.11142000E+03 -0.14385E+06
 0.11147000E+03 -0.88696E+05
 0.11152000E+03 -0.78720E+04
 0.11157000E+03  0.10028E+06
 0.11162000E+03  0.23218E+06
 0.11167000E+03  0.35264E+06
 0.11172000E+03  0.41274E+06
 0.11177000E+03  0.37825E+06
 0.11182000E+03  0.26150E+06
 0.11187000E+03  0.93268E+05
 0.11192000E+03 -0.69143E+05
 0.11197000E+03 -0.15740E+06
 0.11202000E+03 -0.17106E+06
 0.11207000E+03 -0.13787E+06
 0.11212000E+03 -0.69252E+05
 0.11217000E+03  0.11557E+05
 0.11222000E+03  0.90456E+05
 0.11227000E+03  0.16416E+06
 0.11232000E+03  0.18232E+06
 0.11237000E+03  0.11492E+06
 0.11242000E+03  0.14904E+05
 0.11247000E+03 -0.49083E+05
 0.11252000E+03 -0.34629E+05
 0.11257000E+03  0.24120E+05
 0.11262000E+03  0.53390E+05
 0.11267000E+03  0.46866E+05
 0.11272000E+03  0.30068E+05
 0.11277000E+03  0.11305E+05
 0.11282000E+03  0.13160E+04
 0.11287000E+03  0.79460E+04
 0.11292000E+03  0.27153E+05
 0.11297000E+03  0.54798E+05
 0.11302000E+03  0.91814E+05
 0.11307000E+03  0.14333E+06
 0.11312000E+03  0.21850E+06
 0.11317000E+03  0.31476E+06
 0.11322000E+03  0.39669E+06
 0.11327000E+03  0.41546E+06
 0.11332000E+03  0.37643E+06
 0.11337000E+03  0.32728E+06
 0.11342000E+03  0.27835E+06
 0.11347000E+03  0.21801E+06
 0.11352000E+03  0.14796E+06
 0.11357000E+03  0.99330E+05
 0.11362000E+03  0.96557E+05
 0.11367000E+03  0.14408E+06
 0.11372000E+03  0.26200E+06
 0.11377000E+03  0.41381E+06
 0.11382000E+03  0.53489E+06
 0.11387000E+03  0.59922E+06
 0.11392000E+03  0.61668E+06
 0.11397000E+03  0.63712E+06
 0.11402000E+03  0.69844E+06
 0.11407000E+03  0.80758E+06
 0.11412000E+03  0.91644E+06
 0.11417000E+03  0.98117E+06
 0.11422000E+03  0.10307E+07
 0.11427000E+03  0.10703E+07
 0.11432000E+03  0.10742E+07
 0.11437000E+03  0.10400E+07
 0.11442000E+03  0.98436E+06
 0.11447000E+03  0.91187E+06
 0.11452000E+03  0.81147E+06
 0.11457000E+03  0.68746E+06
 0.11462000E+03  0.54946E+06
 0.11467000E+03  0.40740E+06
 0.11472000E+03  0.27318E+06
 0.11477000E+03  0.14807E+06
 0.11482000E+03  0.14458E+05
 0.11487000E+03 -0.11781E+06
 0.11492000E+03 -0.21777E+06
 0.11497000E+03 -0.26962E+06
 0.11502000E+03 -0.26008E+06
 0.11507000E+03 -0.21868E+06
 0.11512000E+03 -0.20902E+06
 0.11517000E+03 -0.24582E+06
 0.11522000E+03 -0.28558E+06
 0.11527000E+03 -0.28818E+06
 0.11532000E+03 -0.23679E+06
 0.11537000E+03 -0.14255E+06
 0.11542000E+03 -0.34032E+05
 0.11547000E+03  0.59571E+05
 0.11552000E+03  0.11240E+06
 0.11557000E+03  0.12048E+06
 0.11562000E+03  0.11078E+06
 0.11567000E+03  0.11210E+06
 0.11572000E+03  0.12262E+06
 0.11577000E+03  0.15022E+06
 0.11582000E+03  0.20648E+06
 0.11587000E+03  0.25907E+06
 0.11592000E+03  0.27722E+06
 0.11597000E+03  0.27035E+06
 0.11602000E+03  0.26668E+06
 0.11607000E+03  0.28485E+06
 0.11612000E+03  0.30206E+06
 0.11617000E+03  0.30684E+06
 0.11622000E+03  0.31100E+06
 0.11627000E+03  0.30350E+06
 0.11632000E+03  0.27343E+06
 0.11637000E+03  0.21850E+06
 0.11642000E+03  0.17427E+06
 0.11647000E+03  0.17891E+06
 0.11652000E+03  0.22398E+06
 0.11657000E+03  0.27112E+06
 0.11662000E+03  0.29118E+06
 0.11667000E+03  0.28370E+06
 0.11672000E+03  0.24117E+06
 0.11677000E+03  0.17934E+06
 0.11682000E+03  0.12349E+06
 0.11687000E+03  0.75293E+05
 0.11692000E+03  0.40061E+05
 0.11697000E+03  0.24710E+05
 0.11702000E+03  0.77715E+05
 0.11707000E+03  0.24103E+06
 0.11712000E+03  0.47818E+06
 0.11717000E+03  0.74287E+06
 0.11722000E+03  0.98118E+06
 0.11727000E+03  0.11251E+07
 0.11732000E+03  0.11578E+07
 0.11737000E+03  0.11086E+07
 0.11742000E+03  0.10192E+07
 0.11747000E+03  0.95862E+06
 0.11752000E+03  0.96614E+06
 0.11757000E+03  0.10041E+07
 0.11762000E+03  0.10204E+07
 0.11767000E+03  0.96118E+06
 0.11772000E+03  0.79916E+06
 0.11777000E+03  0.55926E+06
 0.11782000E+03  0.28098E+06
 0.11787000E+03  0.79390E+04
 0.11792000E+03 -0.23360E+06
 0.11797000E+03 -0.42219E+06
 0.11802000E+03 -0.53863E+06
 0.11807000E+03 -0.59029E+06
 0.11812000E+03 -0.59015E+06
 0.11817000E+03 -0.56735E+06
 0.11822000E+03 -0.56262E+06
 0.11827000E+03 -0.58563E+06
 0.11832000E+03 -0.61380E+06
 0.11837000E+03 -0.64239E+06
 0.11842000E+03 -0.66790E+06
 0.11847000E+03 -0.66255E+06
 0.11852000E+03 -0.62518E+06
 0.11857000E+03 -0.57308E+06
 0.11862000E+03 -0.51988E+06
 0.11867000E+03 -0.47620E+06
 0.11872000E+03 -0.43796E+06
 0.11877000E+03 -0.39584E+06
 0.11882000E+03 -0.34275E+06
 0.11887000E+03 -0.27024E+06
 0.11892000E+03 -0.19195E+06
 0.11897000E+03 -0.12305E+06
 0.11902000E+03 -0.55072E+05
 0.11907000E+03  0.12293E+05
 0.11912000E+03  0.72025E+05
 0.11917000E+03  0.10941E+06
 0.11922000E+03  0.11302E+06
 0.11927000E+03  0.92302E+05
 0.11932000E+03  0.67252E+05
 0.11937000E+03  0.47651E+05
 0.11942000E+03  0.30744E+05
 0.11947000E+03  0.27719E+05
 0.11952000E+03  0.32663E+05
 0.11957000E+03  0.15591E+05
 0.11962000E+03 -0.30358E+05
 0.11967000E+03 -0.85318E+05
 0.11972000E+03 -0.12634E+06
 0.11977000E+03 -0.14488E+06
 0.11982000E+03 -0.15209E+06
 0.11987000E+03 -0.14686E+06
 0.11992000E+03 -0.11372E+06
 0.11997000E+03 -0.66773E+05
 0.12002000E+03 -0.51440E+04
 0.12007000E+03  0.86316E+05
 0.12012000E+03  0.18349E+06
 0.12017000E+03  0.26789E+06
 0.12022000E+03  0.33530E+06
 0.12027000E+03  0.35808E+06
 0.12032000E+03  0.31250E+06
 0.12037000E+03  0.21712E+06
 0.12042000E+03  0.10817E+06
 0.12047000E+03  0.58530E+04
 0.12052000E+03 -0.75697E+05
 0.12057000E+03 -0.13668E+06
 0.12062000E+03 -0.18488E+06
 0.12067000E+03 -0.21816E+06
 0.12072000E+03 -0.23808E+06
 0.12077000E+03 -0.24090E+06
 0.12082000E+03 -0.24004E+06
 0.12087000E+03 -0.23646E+06
 0.12092000E+03 -0.20923E+06
 0.12097000E+03 -0.18160E+06
 0.12102000E+03 -0.17700E+06
 0.12107000E+03 -0.19484E+06
 0.12112000E+03 -0.22727E+06
 0.12117000E+03 -0.25254E+06
 0.12122000E+03 -0.24466E+06
 0.12127000E+03 -0.20096E+06
 0.12132000E+03 -0.14549E+06
 0.12137000E+03 -0.95632E+05
 0.12142000E+03 -0.70890E+05
 0.12147000E+03 -0.85736E+05
 0.12152000E+03 -0.14007E+06
 0.12157000E+03 -0.21923E+06
 0.12162000E+03 -0.27383E+06
 0.12167000E+03 -0.27514E+06
 0.12172000E+03 -0.25946E+06
 0.12177000E+03 -0.27155E+06
 0.12182000E+03 -0.32103E+06
 0.12187000E+03 -0.40047E+06
 0.12192000E+03 -0.49897E+06
 0.12197000E+03 -0.59140E+06
 0.12202000E+03 -0.65240E+06
 0.12207000E+03 -0.67252E+06
 0.12212000E+03 -0.65347E+06
 0.12217000E+03 -0.61730E+06
 0.12222000E+03 -0.59250E+06
 0.12227000E+03 -0.57730E+06
 0.12232000E+03 -0.55387E+06
 0.12237000E+03 -0.52081E+06
 0.12242000E+03 -0.50012E+06
 0.12247000E+03 -0.50782E+06
 0.12252000E+03 -0.52070E+06
 0.12257000E+03 -0.51087E+06
 0.12262000E+03 -0.46464E+06
 0.12267000E+03 -0.37963E+06
 0.12272000E+03 -0.27395E+06
 0.12277000E+03 -0.16998E+06
 0.12282000E+03 -0.97027E+05
 0.12287000E+03 -0.85863E+05
 0.12292000E+03 -0.14084E+06
 0.12297000E+03 -0.21986E+06
 0.12302000E+03 -0.27920E+06
 0.12307000E+03 -0.30481E+06
 0.12312000E+03 -0.29414E+06
 0.12317000E+03 -0.27033E+06
 0.12322000E+03 -0.25347E+06
 0.12327000E+03 -0.25036E+06
 0.12332000E+03 -0.24630E+06
 0.12337000E+03 -0.22803E+06
 0.12342000E+03 -0.21172E+06
 0.12347000E+03 -0.20168E+06
 0.12352000E+03 -0.22249E+06
 0.12357000E+03 -0.28545E+06
 0.12362000E+03 -0.36403E+06
 0.12367000E+03 -0.44125E+06
 0.12372000E+03 -0.49743E+06
 0.12377000E+03 -0.52986E+06
 0.12382000E+03 -0.55391E+06
 0.12387000E+03 -0.56972E+06
 0.12392000E+03 -0.56320E+06
 0.12397000E+03 -0.53207E+06
 0.12402000E+03 -0.47370E+06
 0.12407000E+03 -0.38633E+06
 0.12412000E+03 -0.29482E+06
 0.12417000E+03 -0.22643E+06
 0.12422000E+03 -0.19380E+06
 0.12427000E+03 -0.18192E+06
 0.12432000E+03 -0.17934E+06
 0.12437000E+03 -0.18299E+06
 0.12442000E+03 -0.17673E+06
 0.12447000E+03 -0.16457E+06
 0.12452000E+03 -0.14249E+06
 0.12457000E+03 -0.98051E+05
 0.12462000E+03 -0.43079E+05
 0.12467000E+03  0.31330E+04
 0.12472000E+03  0.26670E+05
 0.12477000E+03  0.39014E+05
 0.12482000E+03  0.59780E+05
 0.12487000E+03  0.86203E+05
 0.12492000E+03  0.10680E+06
 0.12497000E+03  0.10266E+06
 0.12502000E+03  0.66872E+05
 0.12507000E+03  0.19177E+05
 0.12512000E+03 -0.14660E+05
 0.12517001E+03 -0.21551E+05
 0.12521999E+03 -0.13384E+05
 0.12527000E+03 -0.25790E+04
 0.12532000E+03 -0.25420E+04
 0.12537000E+03 -0.18418E+05
 0.12542001E+03 -0.35331E+05
 0.12546999E+03 -0.44327E+05
 0.12552000E+03 -0.46654E+05
 0.12557000E+03 -0.46812E+05
 0.12562000E+03 -0.34742E+05
 0.12567001E+03 -0.85860E+04
 0.12571999E+03  0.23583E+05
 0.12577000E+03  0.59170E+05
 0.12582000E+03  0.88543E+05
 0.12587000E+03  0.12115E+06
 0.12592001E+03  0.17576E+06
 0.12596999E+03  0.23142E+06
 0.12602000E+03  0.25459E+06
 0.12607000E+03  0.24820E+06
 0.12612000E+03  0.21826E+06
 0.12617001E+03  0.17671E+06
 0.12621999E+03  0.15462E+06
 0.12627000E+03  0.15607E+06
 0.12632000E+03  0.17561E+06
 0.12637000E+03  0.20213E+06
 0.12642001E+03  0.21380E+06
 0.12646999E+03  0.21350E+06
 0.12652000E+03  0.20414E+06
 0.12657000E+03  0.19239E+06
 0.12662000E+03  0.19814E+06
 0.12667001E+03  0.22794E+06
 0.12671999E+03  0.26957E+06
 0.12677000E+03  0.29662E+06
 0.12682000E+03  0.30498E+06
 0.12687000E+03  0.30580E+06
 0.12692001E+03  0.31078E+06
 0.12696999E+03  0.31836E+06
 0.12702000E+03  0.31101E+06
 0.12707000E+03  0.29076E+06
 0.12712000E+03  0.27139E+06
 0.12717001E+03  0.26912E+06
 0.12721999E+03  0.27822E+06
 0.12727000E+03  0.28249E+06
 0.12732000E+03  0.28307E+06
 0.12737000E+03  0.28001E+06
 0.12742001E+03  0.27485E+06
 0.12746999E+03  0.26505E+06
 0.12752000E+03  0.25502E+06
 0.12757000E+03  0.25806E+06
 0.12762000E+03  0.26319E+06
 0.12767001E+03  0.25577E+06
 0.12771999E+03  0.24020E+06
 0.12777000E+03  0.21469E+06
 0.12782000E+03  0.17385E+06
 0.12787000E+03  0.13640E+06
 0.12792001E+03  0.12352E+06
 0.12796999E+03  0.13633E+06
 0.12802000E+03  0.16274E+06
 0.12807001E+03  0.17350E+06
 0.12812001E+03  0.14808E+06
 0.12817001E+03  0.98109E+05
 0.12822000E+03  0.43718E+05
 0.12827000E+03  0.23690E+04
 0.12832001E+03 -0.16417E+05
 0.12837001E+03 -0.12708E+05
 0.12842001E+03  0.21637E+05
 0.12847000E+03  0.93348E+05
 0.12852000E+03  0.18589E+06
 0.12857001E+03  0.25948E+06
 0.12862001E+03  0.28105E+06
 0.12867001E+03  0.25557E+06
 0.12872000E+03  0.20530E+06
 0.12877000E+03  0.15212E+06
 0.12882001E+03  0.12344E+06
 0.12887001E+03  0.13384E+06
 0.12892001E+03  0.16449E+06
 0.12897000E+03  0.18536E+06
 0.12902000E+03  0.19003E+06
 0.12907001E+03  0.17946E+06
 0.12912001E+03  0.14733E+06
 0.12917001E+03  0.98477E+05
 0.12922000E+03  0.62481E+05
 0.12927000E+03  0.60349E+05
 0.12932001E+03  0.86855E+05
 0.12937001E+03  0.14240E+06
 0.12942001E+03  0.22068E+06
 0.12947000E+03  0.30814E+06
 0.12952000E+03  0.38639E+06
 0.12957001E+03  0.43304E+06
 0.12962001E+03  0.45251E+06
 0.12967001E+03  0.46050E+06
 0.12972000E+03  0.47135E+06
 0.12977000E+03  0.50254E+06
 0.12982001E+03  0.54933E+06
 0.12987001E+03  0.57843E+06
 0.12992001E+03  0.57924E+06
 0.12997000E+03  0.56847E+06
 0.13002000E+03  0.54952E+06
 0.13007001E+03  0.51511E+06
 0.13012001E+03  0.46084E+06
 0.13017001E+03  0.40164E+06
 0.13022000E+03  0.34774E+06
 0.13027000E+03  0.30255E+06
 0.13032001E+03  0.26900E+06
 0.13037001E+03  0.23692E+06
 0.13042001E+03  0.21317E+06
 0.13047000E+03  0.20570E+06
 0.13052000E+03  0.21112E+06
 0.13057001E+03  0.22025E+06
 0.13062001E+03  0.21754E+06
 0.13067001E+03  0.19662E+06
 0.13072000E+03  0.16828E+06
 0.13077000E+03  0.14158E+06
 0.13082001E+03  0.11002E+06
 0.13087001E+03  0.76288E+05
 0.13092001E+03  0.49477E+05
 0.13097000E+03  0.35489E+05
 0.13102000E+03  0.28720E+05
 0.13107001E+03  0.15713E+05
 0.13112001E+03 -0.28300E+04
 0.13117001E+03 -0.22081E+05
 0.13122000E+03 -0.37301E+05
 0.13127000E+03 -0.45563E+05
 0.13132001E+03 -0.47356E+05
 0.13137001E+03 -0.37925E+05
 0.13142001E+03 -0.16263E+05
 0.13147000E+03  0.11936E+05
 0.13152000E+03  0.39305E+05
 0.13157001E+03  0.60071E+05
 0.13162001E+03  0.63748E+05
 0.13167001E+03  0.41339E+05
 0.13172000E+03  0.76700E+03
 0.13177000E+03 -0.41793E+05
 0.13182001E+03 -0.75152E+05
 0.13187001E+03 -0.10530E+06
 0.13192001E+03 -0.13163E+06
 0.13197000E+03 -0.14530E+06
 0.13202000E+03 -0.14785E+06
 0.13207001E+03 -0.13641E+06
 0.13212001E+03 -0.11218E+06
 0.13217001E+03 -0.82115E+05
 0.13222000E+03 -0.56760E+05
 0.13227000E+03 -0.44334E+05
 0.13232001E+03 -0.47282E+05
 0.13237001E+03 -0.73006E+05
 0.13242001E+03 -0.11678E+06
 0.13247000E+03 -0.15899E+06
 0.13252000E+03 -0.19399E+06
 0.13257001E+03 -0.21980E+06
 0.13262001E+03 -0.23201E+06
 0.13267001E+03 -0.23833E+06
 0.13272000E+03 -0.23420E+06
 0.13277000E+03 -0.22252E+06
 0.13282001E+03 -0.21581E+06
 0.13287001E+03 -0.21262E+06
 0.13292001E+03 -0.21920E+06
 0.13297000E+03 -0.23390E+06
 0.13302000E+03 -0.24742E+06
 0.13307001E+03 -0.26201E+06
 0.13312001E+03 -0.28381E+06
 0.13317001E+03 -0.31751E+06
 0.13322000E+03 -0.35715E+06
 0.13327000E+03 -0.39042E+06
 0.13332001E+03 -0.41028E+06
 0.13337001E+03 -0.41594E+06
 0.13342001E+03 -0.41433E+06
 0.13347000E+03 -0.41613E+06
 0.13352000E+03 -0.41551E+06
 0.13357001E+03 -0.39766E+06
 0.13362001E+03 -0.36996E+06
 0.13367001E+03 -0.34035E+06
 0.13372000E+03 -0.30027E+06
 0.13377000E+03 -0.24675E+06
 0.13382001E+03 -0.18950E+06
 0.13387001E+03 -0.14239E+06
 0.13392001E+03 -0.10987E+06
 0.13397000E+03 -0.92566E+05
 0.13402000E+03 -0.88130E+05
 0.13407001E+03 -0.94514E+05
 0.13412001E+03 -0.11822E+06
 0.13417001E+03 -0.15863E+06
 0.13422000E+03 -0.20244E+06
 0.13427000E+03 -0.23122E+06
 0.13432001E+03 -0.24270E+06
 0.13437001E+03 -0.24352E+06
 0.13442001E+03 -0.23802E+06
 0.13447000E+03 -0.23763E+06
 0.13452000E+03 -0.24780E+06
 0.13457001E+03 -0.27148E+06
 0.13462001E+03 -0.30387E+06
 0.13467001E+03 -0.33309E+06
 0.13472000E+03 -0.35015E+06
 0.13477000E+03 -0.34059E+06
 0.13482001E+03 -0.30608E+06
 0.13487001E+03 -0.26319E+06
 0.13492001E+03 -0.22276E+06
 0.13497000E+03 -0.19672E+06
 0.13502000E+03 -0.18760E+06
 0.13507001E+03 -0.19395E+06
 0.13512001E+03 -0.21475E+06
 0.13517001E+03 -0.23884E+06
 0.13522000E+03 -0.25596E+06
 0.13527000E+03 -0.25602E+06
 0.13532001E+03 -0.24891E+06
 0.13537001E+03 -0.24776E+06
 0.13542001E+03 -0.23700E+06
 0.13547000E+03 -0.21602E+06
 0.13552000E+03 -0.19497E+06
 0.13557001E+03 -0.16667E+06
 0.13562001E+03 -0.12126E+06
 0.13567001E+03 -0.66991E+05
 0.13572000E+03 -0.28117E+05
 0.13577000E+03 -0.12976E+05
 0.13582001E+03 -0.14091E+05
 0.13587001E+03 -0.20601E+05
 0.13592001E+03 -0.23271E+05
 0.13597000E+03 -0.20977E+05
 0.13602000E+03 -0.19959E+05
 0.13607001E+03 -0.27711E+05
 0.13612001E+03 -0.44376E+05
 0.13617001E+03 -0.65581E+05
 0.13622000E+03 -0.86435E+05
 0.13627000E+03 -0.10049E+06
 0.13632001E+03 -0.10238E+06
 0.13637001E+03 -0.92311E+05
 0.13642001E+03 -0.77266E+05
 0.13647000E+03 -0.62255E+05
 0.13652000E+03 -0.42070E+05
 0.13657001E+03 -0.18325E+05
 0.13662001E+03  0.36880E+04
 0.13667001E+03  0.31789E+05
 0.13672000E+03  0.64810E+05
 0.13677000E+03  0.89121E+05
 0.13682001E+03  0.99470E+05
 0.13687001E+03  0.95606E+05
 0.13692001E+03  0.82170E+05
 0.13697000E+03  0.76512E+05
 0.13702000E+03  0.84172E+05
 0.13707001E+03  0.92228E+05
 0.13712001E+03  0.94238E+05
 0.13717001E+03  0.87344E+05
 0.13722000E+03  0.70019E+05
 0.13727000E+03  0.46186E+05
 0.13732001E+03  0.20803E+05
 0.13737001E+03 -0.59930E+04
 0.13742001E+03 -0.42324E+05
 0.13747000E+03 -0.90660E+05
 0.13752000E+03 -0.14521E+06
 0.13757001E+03 -0.20191E+06
 0.13762001E+03 -0.25739E+06
 0.13767001E+03 -0.30249E+06
 0.13772000E+03 -0.32806E+06
 0.13777000E+03 -0.33849E+06
 0.13782001E+03 -0.33726E+06
 0.13787001E+03 -0.32031E+06
 0.13792001E+03 -0.28935E+06
 0.13797000E+03 -0.24659E+06
 0.13802000E+03 -0.19537E+06
 0.13807001E+03 -0.14523E+06
 0.13812001E+03 -0.10223E+06
 0.13817001E+03 -0.61558E+05
 0.13822000E+03 -0.17284E+05
 0.13827000E+03  0.29228E+05
 0.13832001E+03  0.75330E+05
 0.13837001E+03  0.12193E+06
 0.13842001E+03  0.17669E+06
 0.13847000E+03  0.24287E+06
 0.13852000E+03  0.31043E+06
 0.13857001E+03  0.36513E+06
 0.13862001E+03  0.40013E+06
 0.13867001E+03  0.42106E+06
 0.13872000E+03  0.44021E+06
 0.13877000E+03  0.46261E+06
 0.13882001E+03  0.47812E+06
 0.13887001E+03  0.48165E+06
 0.13892001E+03  0.47938E+06
 0.13897000E+03  0.47062E+06
 0.13902000E+03  0.45368E+06
 0.13907001E+03  0.43759E+06
 0.13912001E+03  0.42782E+06
 0.13917001E+03  0.41927E+06
 0.13922000E+03  0.40275E+06
 0.13927000E+03  0.37543E+06
 0.13932001E+03  0.34099E+06
 0.13937001E+03  0.30021E+06
 0.13942001E+03  0.25738E+06
 0.13947000E+03  0.21789E+06
 0.13952000E+03  0.18682E+06
 0.13957001E+03  0.16412E+06
 0.13962001E+03  0.14542E+06
 0.13967001E+03  0.12703E+06
 0.13972000E+03  0.10634E+06
 0.13977000E+03  0.89682E+05
 0.13982001E+03  0.75738E+05
 0.13987001E+03  0.55903E+05
 0.13992001E+03  0.31680E+05
 0.13997000E+03  0.79410E+04
 0.14002000E+03 -0.12784E+05
 0.14007001E+03 -0.24986E+05
 0.14012001E+03 -0.24127E+05
 0.14017001E+03 -0.15461E+05
 0.14022000E+03 -0.85720E+04
 0.14027000E+03  0.77800E+03
 0.14032001E+03  0.25179E+05
 0.14037001E+03  0.56429E+05
 0.14042001E+03  0.79779E+05
 0.14047000E+03  0.94415E+05
 0.14052000E+03  0.10204E+06
 0.14057001E+03  0.10807E+06
 0.14062001E+03  0.12214E+06
 0.14067001E+03  0.14980E+06
 0.14072000E+03  0.18902E+06
 0.14077000E+03  0.23480E+06
 0.14082001E+03  0.28810E+06
 0.14087001E+03  0.34084E+06
 0.14092001E+03  0.37722E+06
 0.14097000E+03  0.39222E+06
 0.14102000E+03  0.38606E+06
 0.14107001E+03  0.37730E+06
 0.14112001E+03  0.38117E+06
 0.14117001E+03  0.38391E+06
 0.14122000E+03  0.37944E+06
 0.14127000E+03  0.37286E+06
 0.14132001E+03  0.36825E+06
 0.14137001E+03  0.37014E+06
 0.14142001E+03  0.37825E+06
 0.14147000E+03  0.39039E+06
 0.14152000E+03  0.40266E+06
 0.14157001E+03  0.40791E+06
 0.14162001E+03  0.40133E+06
 0.14167001E+03  0.37758E+06
 0.14172000E+03  0.33872E+06
 0.14177000E+03  0.30358E+06
 0.14182001E+03  0.28221E+06
 0.14187001E+03  0.26961E+06
 0.14192001E+03  0.25706E+06
 0.14197000E+03  0.23886E+06
 0.14202000E+03  0.21469E+06
 0.14207001E+03  0.18245E+06
 0.14212001E+03  0.13542E+06
 0.14217001E+03  0.72201E+05
 0.14222000E+03  0.32330E+04
 0.14227000E+03 -0.67937E+05
 0.14232001E+03 -0.13464E+06
 0.14237001E+03 -0.18232E+06
 0.14242001E+03 -0.21330E+06
 0.14247000E+03 -0.23604E+06
 0.14252000E+03 -0.25017E+06
 0.14257001E+03 -0.25014E+06
 0.14262001E+03 -0.23736E+06
 0.14267001E+03 -0.22007E+06
 0.14272000E+03 -0.19818E+06
 0.14277000E+03 -0.17069E+06
 0.14282001E+03 -0.14230E+06
 0.14287001E+03 -0.11930E+06
 0.14292001E+03 -0.10660E+06
 0.14297000E+03 -0.10788E+06
 0.14302000E+03 -0.12081E+06
 0.14307001E+03 -0.13997E+06
 0.14312001E+03 -0.17089E+06
 0.14317001E+03 -0.20663E+06
 0.14322000E+03 -0.23297E+06
 0.14327000E+03 -0.24930E+06
 0.14332001E+03 -0.25519E+06
 0.14337001E+03 -0.25596E+06
 0.14342001E+03 -0.25570E+06
 0.14347000E+03 -0.25358E+06
 0.14352000E+03 -0.25169E+06
 0.14357001E+03 -0.25061E+06
 0.14362001E+03 -0.24702E+06
 0.14367001E+03 -0.23330E+06
 0.14372000E+03 -0.21331E+06
 0.14377000E+03 -0.19665E+06
 0.14382001E+03 -0.18596E+06
 0.14387001E+03 -0.18606E+06
 0.14392001E+03 -0.19687E+06
 0.14397000E+03 -0.21362E+06
 0.14402000E+03 -0.22970E+06
 0.14407001E+03 -0.24264E+06
 0.14412001E+03 -0.25706E+06
 0.14417001E+03 -0.26610E+06
 0.14422000E+03 -0.25876E+06
 0.14427000E+03 -0.23343E+06
 0.14432001E+03 -0.20133E+06
 0.14437001E+03 -0.17781E+06
 0.14442001E+03 -0.16558E+06
 0.14447000E+03 -0.16126E+06
 0.14452000E+03 -0.16247E+06
 0.14457001E+03 -0.16427E+06
 0.14462001E+03 -0.16326E+06
 0.14467001E+03 -0.16236E+06
 0.14472000E+03 -0.16435E+06
 0.14477000E+03 -0.17111E+06
 0.14482001E+03 -0.18399E+06
 0.14487001E+03 -0.20108E+06
 0.14492001E+03 -0.21937E+06
 0.14497000E+03 -0.23524E+06
 0.14502000E+03 -0.24272E+06
 0.14507001E+03 -0.24220E+06
 0.14512001E+03 -0.23501E+06
 0.14517001E+03 -0.21250E+06
 0.14522000E+03 -0.17604E+06
 0.14527000E+03 -0.13268E+06
 0.14532001E+03 -0.85691E+05
 0.14537001E+03 -0.44946E+05
 0.14542001E+03 -0.20567E+05
 0.14547000E+03 -0.93530E+04
 0.14552000E+03 -0.13660E+04
 0.14557001E+03  0.49050E+04
 0.14562001E+03  0.92280E+04
 0.14567001E+03  0.77150E+04
 0.14572000E+03 -0.65690E+04
 0.14577000E+03 -0.32170E+05
 0.14582001E+03 -0.63877E+05
 0.14587001E+03 -0.97496E+05
 0.14592001E+03 -0.13141E+06
 0.14597000E+03 -0.16688E+06
 0.14602000E+03 -0.20509E+06
 0.14607001E+03 -0.24592E+06
 0.14612001E+03 -0.28648E+06
 0.14617001E+03 -0.31946E+06
 0.14622000E+03 -0.33943E+06
 0.14627000E+03 -0.34760E+06
 0.14632001E+03 -0.35102E+06
 0.14637001E+03 -0.35451E+06
 0.14642001E+03 -0.35526E+06
 0.14647000E+03 -0.34880E+06
 0.14652000E+03 -0.33249E+06
 0.14657001E+03 -0.30668E+06
 0.14662001E+03 -0.26768E+06
 0.14667001E+03 -0.21341E+06
 0.14672000E+03 -0.15249E+06
 0.14677000E+03 -0.95310E+05
 0.14682001E+03 -0.45240E+05
 0.14687001E+03 -0.25350E+04
 0.14692001E+03  0.33285E+05
 0.14697000E+03  0.64866E+05
 0.14702000E+03  0.85326E+05
 0.14707001E+03  0.91719E+05
 0.14712001E+03  0.89525E+05
 0.14717001E+03  0.76472E+05
 0.14722000E+03  0.52374E+05
 0.14727000E+03  0.18265E+05
 0.14732001E+03 -0.21188E+05
 0.14737001E+03 -0.50761E+05
 0.14742001E+03 -0.60316E+05
 0.14747000E+03 -0.50349E+05
 0.14752000E+03 -0.25491E+05
 0.14757001E+03  0.77350E+04
 0.14762001E+03  0.42278E+05
 0.14767001E+03  0.73939E+05
 0.14772000E+03  0.10461E+06
 0.14777000E+03  0.13689E+06
 0.14782001E+03  0.17543E+06
 0.14787001E+03  0.22467E+06
 0.14792001E+03  0.27691E+06
 0.14797000E+03  0.31809E+06
 0.14802000E+03  0.33970E+06
 0.14807001E+03  0.33891E+06
 0.14812001E+03  0.31322E+06
 0.14817001E+03  0.26464E+06
 0.14822000E+03  0.20255E+06
 0.14827000E+03  0.14060E+06
 0.14832001E+03  0.89754E+05
 0.14837001E+03  0.51633E+05
 0.14842001E+03  0.21040E+05
 0.14847000E+03 -0.36940E+04
 0.14852000E+03 -0.19492E+05
 0.14857001E+03 -0.31450E+05
 0.14862001E+03 -0.42852E+05
 0.14867001E+03 -0.52319E+05
 0.14872000E+03 -0.58752E+05
 0.14877000E+03 -0.59112E+05
 0.14882001E+03 -0.53589E+05
 0.14887001E+03 -0.38901E+05
 0.14892001E+03 -0.14164E+05
 0.14897000E+03  0.17727E+05
 0.14902000E+03  0.58747E+05
 0.14907001E+03  0.10918E+06
 0.14912001E+03  0.16156E+06
 0.14917001E+03  0.20612E+06
 0.14922000E+03  0.24350E+06
 0.14927000E+03  0.27672E+06
 0.14932001E+03  0.30572E+06
 0.14937001E+03  0.33194E+06
 0.14942001E+03  0.35929E+06
 0.14947000E+03  0.39652E+06
 0.14952000E+03  0.44132E+06
 0.14957001E+03  0.48168E+06
 0.14962001E+03  0.50658E+06
 0.14967001E+03  0.50732E+06
 0.14972000E+03  0.48847E+06
 0.14977000E+03  0.45784E+06
 0.14982001E+03  0.41961E+06
 0.14987001E+03  0.38282E+06
 0.14992001E+03  0.35252E+06
 0.14997000E+03  0.32664E+06
