-0.29969940E+01  0.23456E+05
-0.29469941E+01  0.23460E+05
-0.28969941E+01  0.23456E+05
-0.28469939E+01  0.23456E+05
-0.27969940E+01  0.23457E+05
-0.27469940E+01  0.23463E+05
-0.26969941E+01  0.23465E+05
-0.26469941E+01  0.23461E+05
-0.25969939E+01  0.23465E+05
-0.25469940E+01  0.23462E+05
-0.24969940E+01  0.23464E+05
-0.24469941E+01  0.23470E+05
-0.23969941E+01  0.23466E+05
-0.23469939E+01  0.23469E+05
-0.22969942E+01  0.23467E+05
-0.22469940E+01  0.23465E+05
-0.21969941E+01  0.23467E+05
-0.21469941E+01  0.23464E+05
-0.20969939E+01  0.23466E+05
-0.20469942E+01  0.23467E+05
-0.19969940E+01  0.23463E+05
-0.19469941E+01  0.23470E+05
-0.18969941E+01  0.23467E+05
-0.18469940E+01  0.23465E+05
-0.17969941E+01  0.23469E+05
-0.17469941E+01  0.23466E+05
-0.16969941E+01  0.23472E+05
-0.16469941E+01  0.23469E+05
-0.15969942E+01  0.23470E+05
-0.15469941E+01  0.23467E+05
-0.14969941E+01  0.23466E+05
-0.14469941E+01  0.23471E+05
-0.13969941E+01  0.23466E+05
-0.13469942E+01  0.23472E+05
-0.12969941E+01  0.23475E+05
-0.12469941E+01  0.23470E+05
-0.11969941E+01  0.23472E+05
-0.11469941E+01  0.23473E+05
-0.10969942E+01  0.23471E+05
-0.10469941E+01  0.23474E+05
-0.99699414E+00  0.23473E+05
-0.94699407E+00  0.23466E+05
-0.89699411E+00  0.23473E+05
-0.84699416E+00  0.23473E+05
-0.79699421E+00  0.23471E+05
-0.74699426E+00  0.23473E+05
-0.69699407E+00  0.23469E+05
-0.64699411E+00  0.23475E+05
-0.59699416E+00  0.23472E+05
-0.54699421E+00  0.23468E+05
-0.49699426E+00  0.23473E+05
-0.44699407E+00  0.23472E+05
-0.39699411E+00  0.23475E+05
-0.34699416E+00  0.23479E+05
-0.29699421E+00  0.23482E+05
-0.24699426E+00  0.23482E+05
-0.19699430E+00  0.23486E+05
-0.14699411E+00  0.23490E+05
-0.96994162E-01  0.23495E+05
-0.46994209E-01  0.23504E+05
 0.30057430E-02  0.23510E+05
 0.53005695E-01  0.23512E+05
 0.10300589E+00  0.23512E+05
 0.15300584E+00  0.23515E+05
 0.20300579E+00  0.23515E+05
 0.25300574E+00  0.23519E+05
 0.30300570E+00  0.23520E+05
 0.35300589E+00  0.23522E+05
 0.40300584E+00  0.23527E+05
 0.45300579E+00  0.23527E+05
 0.50300574E+00  0.23528E+05
 0.55300570E+00  0.23527E+05
 0.60300589E+00  0.23530E+05
 0.65300584E+00  0.23532E+05
 0.70300579E+00  0.23529E+05
 0.75300574E+00  0.23531E+05
 0.80300570E+00  0.23536E+05
 0.85300565E+00  0.23533E+05
 0.90300584E+00  0.23534E+05
 0.95300579E+00  0.23536E+05
 0.10030057E+01  0.23537E+05
 0.10530057E+01  0.23537E+05
 0.11030059E+01  0.23540E+05
 0.11530056E+01  0.23543E+05
 0.12030058E+01  0.23541E+05
 0.12530055E+01  0.23544E+05
 0.13030057E+01  0.23546E+05
 0.13530059E+01  0.23545E+05
 0.14030056E+01  0.23543E+05
 0.14530058E+01  0.23547E+05
 0.15030055E+01  0.23541E+05
 0.15530057E+01  0.23539E+05
 0.16030059E+01  0.23542E+05
 0.16530056E+01  0.23544E+05
 0.17030058E+01  0.23545E+05
 0.17530055E+01  0.23537E+05
 0.18030057E+01  0.23540E+05
 0.18530059E+01  0.23532E+05
 0.19030056E+01  0.23531E+05
 0.19530058E+01  0.23531E+05
 0.20030055E+01  0.23520E+05
 0.20530057E+01  0.23523E+05
 0.21030059E+01  0.23525E+05
 0.21530056E+01  0.23521E+05
 0.22030058E+01  0.23514E+05
 0.22530055E+01  0.23516E+05
 0.23030057E+01  0.23515E+05
 0.23530059E+01  0.23513E+05
 0.24030056E+01  0.23515E+05
 0.24530058E+01  0.23514E+05
 0.25030055E+01  0.23512E+05
 0.25530057E+01  0.23511E+05
 0.26030054E+01  0.23510E+05
 0.26530056E+01  0.23503E+05
 0.27030058E+01  0.23501E+05
 0.27530055E+01  0.23500E+05
 0.28030057E+01  0.23492E+05
 0.28530054E+01  0.23493E+05
 0.29030056E+01  0.23494E+05
 0.29530058E+01  0.23494E+05
 0.30030055E+01  0.23492E+05
 0.30530057E+01  0.23495E+05
 0.31030054E+01  0.23498E+05
 0.31530056E+01  0.23498E+05
 0.32030058E+01  0.23499E+05
 0.32530055E+01  0.23497E+05
 0.33030057E+01  0.23493E+05
 0.33530054E+01  0.23494E+05
 0.34030056E+01  0.23495E+05
 0.34530058E+01  0.23491E+05
 0.35030055E+01  0.23494E+05
 0.35530057E+01  0.23485E+05
 0.36030054E+01  0.23486E+05
 0.36530056E+01  0.23483E+05
 0.37030058E+01  0.23478E+05
 0.37530055E+01  0.23484E+05
 0.38030057E+01  0.23476E+05
 0.38530054E+01  0.23479E+05
 0.39030056E+01  0.23480E+05
 0.39530058E+01  0.23476E+05
 0.40030055E+01  0.23477E+05
 0.40530057E+01  0.23477E+05
 0.41030054E+01  0.23477E+05
 0.41530056E+01  0.23477E+05
 0.42030058E+01  0.23473E+05
 0.42530055E+01  0.23476E+05
 0.43030057E+01  0.23479E+05
 0.43530054E+01  0.23476E+05
 0.44030056E+01  0.23476E+05
 0.44530053E+01  0.23481E+05
 0.45030055E+01  0.23479E+05
 0.45530057E+01  0.23477E+05
 0.46030054E+01  0.23480E+05
 0.46530056E+01  0.23478E+05
 0.47030053E+01  0.23471E+05
 0.47530055E+01  0.23475E+05
 0.48030057E+01  0.23473E+05
 0.48530054E+01  0.23469E+05
 0.49030056E+01  0.23468E+05
 0.49530053E+01  0.23466E+05
 0.50030055E+01  0.23464E+05
 0.50530052E+01  0.23456E+05
 0.51030054E+01  0.23453E+05
 0.51530056E+01  0.23454E+05
 0.52030058E+01  0.23448E+05
 0.52530050E+01  0.23445E+05
 0.53030052E+01  0.23444E+05
 0.53530054E+01  0.23442E+05
 0.54030056E+01  0.23440E+05
 0.54530058E+01  0.23437E+05
 0.55030050E+01  0.23435E+05
 0.55530052E+01  0.23433E+05
 0.56030054E+01  0.23429E+05
 0.56530056E+01  0.23428E+05
 0.57030058E+01  0.23421E+05
 0.57530050E+01  0.23421E+05
 0.58030052E+01  0.23423E+05
 0.58530054E+01  0.23415E+05
 0.59030056E+01  0.23416E+05
 0.59530058E+01  0.23417E+05
 0.60030050E+01  0.23410E+05
 0.60530052E+01  0.23413E+05
 0.61030054E+01  0.23411E+05
 0.61530056E+01  0.23405E+05
 0.62030058E+01  0.23410E+05
 0.62530050E+01  0.23405E+05
 0.63030052E+01  0.23406E+05
 0.63530054E+01  0.23411E+05
 0.64030056E+01  0.23409E+05
 0.64530058E+01  0.23408E+05
 0.65030050E+01  0.23405E+05
 0.65530052E+01  0.23409E+05
 0.66030054E+01  0.23408E+05
 0.66530056E+01  0.23404E+05
 0.67030058E+01  0.23410E+05
 0.67530050E+01  0.23415E+05
 0.68030052E+01  0.23414E+05
 0.68530054E+01  0.23416E+05
 0.69030056E+01  0.23414E+05
 0.69530058E+01  0.23416E+05
 0.70030050E+01  0.23423E+05
 0.70530052E+01  0.23418E+05
 0.71030054E+01  0.23419E+05
 0.71530056E+01  0.23424E+05
 0.72030058E+01  0.23427E+05
 0.72530050E+01  0.23433E+05
 0.73030052E+01  0.23435E+05
 0.73530054E+01  0.23441E+05
 0.74030056E+01  0.23443E+05
 0.74530058E+01  0.23445E+05
 0.75030050E+01  0.23449E+05
 0.75530052E+01  0.23451E+05
 0.76030054E+01  0.23459E+05
 0.76530056E+01  0.23462E+05
 0.77030058E+01  0.23464E+05
 0.77530050E+01  0.23466E+05
 0.78030052E+01  0.23468E+05
 0.78530054E+01  0.23474E+05
 0.79030056E+01  0.23475E+05
 0.79530058E+01  0.23482E+05
 0.80030050E+01  0.23482E+05
 0.80530052E+01  0.23479E+05
 0.81030054E+01  0.23488E+05
 0.81530056E+01  0.23492E+05
 0.82030048E+01  0.23491E+05
 0.82530050E+01  0.23492E+05
 0.83030052E+01  0.23493E+05
 0.83530054E+01  0.23498E+05
 0.84030056E+01  0.23498E+05
 0.84530048E+01  0.23502E+05
 0.85030050E+01  0.23508E+05
 0.85530052E+01  0.23512E+05
 0.86030054E+01  0.23511E+05
 0.86530056E+01  0.23512E+05
 0.87030048E+01  0.23519E+05
 0.87530050E+01  0.23521E+05
 0.88030052E+01  0.23523E+05
 0.88530054E+01  0.23528E+05
 0.89030056E+01  0.23534E+05
 0.89530048E+01  0.23538E+05
 0.90030050E+01  0.23537E+05
 0.90530052E+01  0.23544E+05
 0.91030054E+01  0.23546E+05
 0.91530056E+01  0.23543E+05
 0.92030048E+01  0.23544E+05
 0.92530050E+01  0.23544E+05
 0.93030052E+01  0.23548E+05
 0.93530054E+01  0.23550E+05
 0.94030056E+01  0.23552E+05
 0.94530048E+01  0.23549E+05
 0.95030050E+01  0.23548E+05
 0.95530052E+01  0.23549E+05
 0.96030054E+01  0.23549E+05
 0.96530056E+01  0.23555E+05
 0.97030048E+01  0.23557E+05
 0.97530050E+01  0.23558E+05
 0.98030052E+01  0.23553E+05
 0.98530054E+01  0.23555E+05
 0.99030056E+01  0.23558E+05
 0.99530048E+01  0.23556E+05
 0.10003005E+02  0.23559E+05
 0.10053005E+02  0.23558E+05
 0.10103005E+02  0.23560E+05
 0.10153006E+02  0.23557E+05
 0.10203005E+02  0.23561E+05
 0.10253005E+02  0.23558E+05
 0.10303005E+02  0.23554E+05
 0.10353005E+02  0.23559E+05
 0.10403006E+02  0.23548E+05
 0.10453005E+02  0.23549E+05
 0.10503005E+02  0.23546E+05
 0.10553005E+02  0.23538E+05
 0.10603005E+02  0.23535E+05
 0.10653006E+02  0.23524E+05
 0.10703005E+02  0.23518E+05
 0.10753005E+02  0.23518E+05
 0.10803005E+02  0.23510E+05
 0.10853005E+02  0.23504E+05
 0.10903006E+02  0.23503E+05
 0.10953005E+02  0.23493E+05
 0.11003005E+02  0.23485E+05
 0.11053005E+02  0.23483E+05
 0.11103005E+02  0.23479E+05
 0.11153006E+02  0.23473E+05
 0.11203005E+02  0.23468E+05
 0.11253005E+02  0.23467E+05
 0.11303005E+02  0.23465E+05
 0.11353005E+02  0.23465E+05
 0.11403006E+02  0.23461E+05
 0.11453005E+02  0.23457E+05
 0.11503005E+02  0.23458E+05
 0.11553005E+02  0.23457E+05
 0.11603005E+02  0.23456E+05
 0.11653005E+02  0.23452E+05
 0.11703005E+02  0.23451E+05
 0.11753005E+02  0.23451E+05
 0.11803005E+02  0.23448E+05
 0.11853005E+02  0.23445E+05
 0.11903005E+02  0.23446E+05
 0.11953005E+02  0.23442E+05
 0.12003005E+02  0.23444E+05
 0.12053005E+02  0.23447E+05
 0.12103005E+02  0.23443E+05
 0.12153005E+02  0.23445E+05
 0.12203005E+02  0.23444E+05
 0.12253005E+02  0.23443E+05
 0.12303005E+02  0.23440E+05
 0.12353005E+02  0.23445E+05
 0.12403005E+02  0.23445E+05
 0.12453005E+02  0.23445E+05
 0.12503005E+02  0.23445E+05
 0.12553005E+02  0.23442E+05
 0.12603005E+02  0.23451E+05
 0.12653005E+02  0.23446E+05
 0.12703005E+02  0.23449E+05
 0.12753005E+02  0.23457E+05
 0.12803005E+02  0.23455E+05
 0.12853005E+02  0.23460E+05
 0.12903005E+02  0.23458E+05
 0.12953005E+02  0.23457E+05
 0.13003005E+02  0.23464E+05
 0.13053005E+02  0.23460E+05
 0.13103004E+02  0.23467E+05
 0.13153006E+02  0.23470E+05
 0.13203005E+02  0.23472E+05
 0.13253004E+02  0.23482E+05
 0.13303005E+02  0.23481E+05
 0.13353004E+02  0.23485E+05
 0.13403006E+02  0.23486E+05
 0.13453005E+02  0.23487E+05
 0.13503004E+02  0.23490E+05
 0.13553005E+02  0.23487E+05
 0.13603004E+02  0.23494E+05
 0.13653006E+02  0.23488E+05
 0.13703005E+02  0.23485E+05
 0.13753004E+02  0.23490E+05
 0.13803005E+02  0.23488E+05
 0.13853004E+02  0.23492E+05
 0.13903006E+02  0.23491E+05
 0.13953005E+02  0.23489E+05
 0.14003004E+02  0.23495E+05
 0.14053005E+02  0.23496E+05
 0.14103004E+02  0.23495E+05
 0.14153006E+02  0.23500E+05
 0.14203005E+02  0.23499E+05
 0.14253004E+02  0.23498E+05
 0.14303005E+02  0.23494E+05
 0.14353004E+02  0.23494E+05
 0.14403006E+02  0.23494E+05
 0.14453005E+02  0.23492E+05
 0.14503004E+02  0.23496E+05
 0.14553005E+02  0.23492E+05
 0.14603004E+02  0.23494E+05
 0.14653006E+02  0.23495E+05
 0.14703005E+02  0.23489E+05
 0.14753004E+02  0.23493E+05
 0.14803005E+02  0.23491E+05
 0.14853004E+02  0.23487E+05
 0.14903006E+02  0.23490E+05
 0.14953005E+02  0.23484E+05
 0.15003004E+02  0.23483E+05
 0.15053005E+02  0.23488E+05
 0.15103004E+02  0.23486E+05
 0.15153006E+02  0.23485E+05
 0.15203005E+02  0.23483E+05
 0.15253004E+02  0.23480E+05
 0.15303005E+02  0.23481E+05
 0.15353004E+02  0.23480E+05
 0.15403006E+02  0.23481E+05
 0.15453005E+02  0.23480E+05
 0.15503004E+02  0.23483E+05
 0.15553005E+02  0.23480E+05
 0.15603004E+02  0.23478E+05
 0.15653006E+02  0.23480E+05
 0.15703005E+02  0.23476E+05
 0.15753004E+02  0.23471E+05
 0.15803005E+02  0.23477E+05
 0.15853004E+02  0.23479E+05
 0.15903006E+02  0.23475E+05
 0.15953005E+02  0.23477E+05
 0.16003004E+02  0.23472E+05
 0.16053005E+02  0.23469E+05
 0.16103004E+02  0.23476E+05
 0.16153006E+02  0.23467E+05
 0.16203005E+02  0.23464E+05
 0.16253004E+02  0.23470E+05
 0.16303005E+02  0.23463E+05
 0.16353004E+02  0.23462E+05
 0.16403006E+02  0.23463E+05
 0.16453005E+02  0.23465E+05
 0.16503004E+02  0.23465E+05
 0.16553005E+02  0.23463E+05
 0.16603004E+02  0.23460E+05
 0.16653006E+02  0.23458E+05
 0.16703005E+02  0.23456E+05
 0.16753004E+02  0.23460E+05
 0.16803005E+02  0.23458E+05
 0.16853004E+02  0.23457E+05
 0.16903006E+02  0.23457E+05
 0.16953005E+02  0.23453E+05
 0.17003004E+02  0.23460E+05
 0.17053005E+02  0.23462E+05
 0.17103004E+02  0.23462E+05
 0.17153006E+02  0.23461E+05
 0.17203005E+02  0.23463E+05
 0.17253004E+02  0.23463E+05
 0.17303005E+02  0.23465E+05
 0.17353004E+02  0.23463E+05
 0.17403006E+02  0.23461E+05
 0.17453005E+02  0.23460E+05
 0.17503004E+02  0.23458E+05
 0.17553005E+02  0.23457E+05
 0.17603004E+02  0.23453E+05
 0.17653006E+02  0.23458E+05
 0.17703005E+02  0.23458E+05
 0.17753004E+02  0.23458E+05
 0.17803005E+02  0.23461E+05
 0.17853004E+02  0.23456E+05
 0.17903006E+02  0.23462E+05
 0.17953005E+02  0.23457E+05
 0.18003004E+02  0.23456E+05
 0.18053005E+02  0.23458E+05
 0.18103004E+02  0.23458E+05
 0.18153006E+02  0.23464E+05
 0.18203005E+02  0.23461E+05
 0.18253004E+02  0.23464E+05
 0.18303005E+02  0.23463E+05
 0.18353004E+02  0.23464E+05
 0.18403006E+02  0.23464E+05
 0.18453005E+02  0.23467E+05
 0.18503004E+02  0.23467E+05
 0.18553005E+02  0.23457E+05
 0.18603004E+02  0.23463E+05
 0.18653006E+02  0.23462E+05
 0.18703005E+02  0.23458E+05
 0.18753004E+02  0.23464E+05
 0.18803005E+02  0.23459E+05
 0.18853004E+02  0.23461E+05
 0.18903006E+02  0.23464E+05
 0.18953005E+02  0.23460E+05
 0.19003004E+02  0.23461E+05
 0.19053005E+02  0.23464E+05
 0.19103004E+02  0.23465E+05
 0.19153006E+02  0.23472E+05
 0.19203005E+02  0.23472E+05
 0.19253004E+02  0.23476E+05
 0.19303005E+02  0.23487E+05
 0.19353004E+02  0.23478E+05
 0.19403004E+02  0.23478E+05
 0.19453005E+02  0.23479E+05
 0.19503004E+02  0.23476E+05
 0.19553005E+02  0.23480E+05
 0.19603004E+02  0.23487E+05
 0.19653004E+02  0.23481E+05
 0.19703005E+02  0.23485E+05
 0.19753004E+02  0.23488E+05
 0.19803005E+02  0.23487E+05
 0.19853004E+02  0.23493E+05
 0.19903004E+02  0.23492E+05
 0.19953005E+02  0.23501E+05
 0.20003004E+02  0.23501E+05
 0.20053005E+02  0.23502E+05
 0.20103004E+02  0.23508E+05
 0.20153004E+02  0.23511E+05
 0.20203005E+02  0.23507E+05
 0.20253004E+02  0.23509E+05
 0.20303005E+02  0.23516E+05
 0.20353004E+02  0.23514E+05
 0.20403004E+02  0.23515E+05
 0.20453005E+02  0.23515E+05
 0.20503004E+02  0.23518E+05
 0.20553005E+02  0.23516E+05
 0.20603004E+02  0.23519E+05
 0.20653004E+02  0.23519E+05
 0.20703005E+02  0.23518E+05
 0.20753004E+02  0.23527E+05
 0.20803005E+02  0.23523E+05
 0.20853004E+02  0.23520E+05
 0.20903004E+02  0.23521E+05
 0.20953005E+02  0.23518E+05
 0.21003004E+02  0.23519E+05
 0.21053005E+02  0.23517E+05
 0.21103004E+02  0.23521E+05
 0.21153004E+02  0.23521E+05
 0.21203005E+02  0.23518E+05
 0.21253004E+02  0.23522E+05
 0.21303005E+02  0.23521E+05
 0.21353004E+02  0.23520E+05
 0.21403004E+02  0.23521E+05
 0.21453005E+02  0.23521E+05
 0.21503004E+02  0.23522E+05
 0.21553005E+02  0.23527E+05
 0.21603004E+02  0.23528E+05
 0.21653004E+02  0.23532E+05
 0.21703005E+02  0.23534E+05
 0.21753004E+02  0.23537E+05
 0.21803005E+02  0.23547E+05
 0.21853004E+02  0.23546E+05
 0.21903004E+02  0.23548E+05
 0.21953005E+02  0.23554E+05
 0.22003004E+02  0.23558E+05
 0.22053005E+02  0.23557E+05
 0.22103004E+02  0.23560E+05
 0.22153004E+02  0.23564E+05
 0.22203005E+02  0.23561E+05
 0.22253004E+02  0.23562E+05
 0.22303005E+02  0.23567E+05
 0.22353004E+02  0.23568E+05
 0.22403004E+02  0.23560E+05
 0.22453005E+02  0.23570E+05
 0.22503004E+02  0.23570E+05
 0.22553005E+02  0.23564E+05
 0.22603004E+02  0.23565E+05
 0.22653004E+02  0.23565E+05
 0.22703005E+02  0.23562E+05
 0.22753004E+02  0.23556E+05
 0.22803005E+02  0.23561E+05
 0.22853004E+02  0.23556E+05
 0.22903004E+02  0.23552E+05
 0.22953005E+02  0.23554E+05
 0.23003004E+02  0.23552E+05
 0.23053005E+02  0.23553E+05
 0.23103004E+02  0.23549E+05
 0.23153004E+02  0.23545E+05
 0.23203005E+02  0.23536E+05
 0.23253004E+02  0.23535E+05
 0.23303005E+02  0.23531E+05
 0.23353004E+02  0.23530E+05
 0.23403004E+02  0.23531E+05
 0.23453005E+02  0.23526E+05
 0.23503004E+02  0.23524E+05
 0.23553005E+02  0.23522E+05
 0.23603004E+02  0.23521E+05
 0.23653004E+02  0.23518E+05
 0.23703005E+02  0.23513E+05
 0.23753004E+02  0.23513E+05
 0.23803005E+02  0.23512E+05
 0.23853004E+02  0.23504E+05
 0.23903004E+02  0.23501E+05
 0.23953005E+02  0.23502E+05
 0.24003004E+02  0.23497E+05
 0.24053005E+02  0.23493E+05
 0.24103004E+02  0.23487E+05
 0.24153004E+02  0.23489E+05
 0.24203005E+02  0.23487E+05
 0.24253004E+02  0.23488E+05
 0.24303005E+02  0.23490E+05
 0.24353004E+02  0.23483E+05
 0.24403004E+02  0.23483E+05
 0.24453005E+02  0.23480E+05
 0.24503004E+02  0.23480E+05
 0.24553005E+02  0.23472E+05
 0.24603004E+02  0.23469E+05
 0.24653004E+02  0.23477E+05
 0.24703005E+02  0.23470E+05
 0.24753004E+02  0.23474E+05
 0.24803005E+02  0.23479E+05
 0.24853004E+02  0.23478E+05
 0.24903004E+02  0.23486E+05
 0.24953005E+02  0.23485E+05
 0.25003004E+02  0.23485E+05
 0.25053005E+02  0.23485E+05
 0.25103004E+02  0.23485E+05
 0.25153004E+02  0.23491E+05
 0.25203005E+02  0.23486E+05
 0.25253004E+02  0.23486E+05
 0.25303005E+02  0.23485E+05
 0.25353004E+02  0.23484E+05
 0.25403004E+02  0.23485E+05
 0.25453005E+02  0.23479E+05
 0.25503004E+02  0.23482E+05
 0.25553005E+02  0.23483E+05
 0.25603004E+02  0.23477E+05
 0.25653004E+02  0.23475E+05
 0.25703005E+02  0.23474E+05
 0.25753004E+02  0.23470E+05
 0.25803005E+02  0.23470E+05
 0.25853004E+02  0.23469E+05
 0.25903004E+02  0.23463E+05
 0.25953005E+02  0.23465E+05
 0.26003004E+02  0.23466E+05
 0.26053003E+02  0.23464E+05
 0.26103004E+02  0.23461E+05
 0.26153004E+02  0.23459E+05
 0.26203005E+02  0.23460E+05
 0.26253004E+02  0.23458E+05
 0.26303003E+02  0.23453E+05
 0.26353004E+02  0.23447E+05
 0.26403004E+02  0.23445E+05
 0.26453005E+02  0.23447E+05
 0.26503004E+02  0.23451E+05
 0.26553003E+02  0.23450E+05
 0.26603004E+02  0.23447E+05
 0.26653004E+02  0.23450E+05
 0.26703005E+02  0.23445E+05
 0.26753004E+02  0.23444E+05
 0.26803003E+02  0.23444E+05
 0.26853004E+02  0.23437E+05
 0.26903004E+02  0.23440E+05
 0.26953005E+02  0.23438E+05
 0.27003004E+02  0.23434E+05
 0.27053003E+02  0.23437E+05
 0.27103004E+02  0.23438E+05
 0.27153004E+02  0.23438E+05
 0.27203005E+02  0.23435E+05
 0.27253004E+02  0.23438E+05
 0.27303003E+02  0.23436E+05
 0.27353004E+02  0.23430E+05
 0.27403004E+02  0.23429E+05
 0.27453005E+02  0.23424E+05
 0.27503004E+02  0.23428E+05
 0.27553003E+02  0.23426E+05
 0.27603004E+02  0.23430E+05
 0.27653004E+02  0.23428E+05
 0.27703005E+02  0.23421E+05
 0.27753004E+02  0.23427E+05
 0.27803003E+02  0.23428E+05
 0.27853004E+02  0.23429E+05
 0.27903004E+02  0.23427E+05
 0.27953005E+02  0.23426E+05
 0.28003004E+02  0.23425E+05
 0.28053003E+02  0.23424E+05
 0.28103004E+02  0.23427E+05
 0.28153004E+02  0.23425E+05
 0.28203005E+02  0.23426E+05
 0.28253004E+02  0.23428E+05
 0.28303003E+02  0.23427E+05
 0.28353004E+02  0.23430E+05
 0.28403004E+02  0.23433E+05
 0.28453005E+02  0.23432E+05
 0.28503004E+02  0.23436E+05
 0.28553003E+02  0.23440E+05
 0.28603004E+02  0.23439E+05
 0.28653004E+02  0.23443E+05
 0.28703005E+02  0.23444E+05
 0.28753004E+02  0.23445E+05
 0.28803003E+02  0.23452E+05
 0.28853004E+02  0.23456E+05
 0.28903004E+02  0.23453E+05
 0.28953005E+02  0.23453E+05
 0.29003004E+02  0.23457E+05
 0.29053005E+02  0.23456E+05
 0.29103004E+02  0.23463E+05
 0.29153004E+02  0.23464E+05
 0.29203003E+02  0.23465E+05
 0.29253002E+02  0.23466E+05
 0.29303005E+02  0.23464E+05
 0.29353004E+02  0.23465E+05
 0.29403004E+02  0.23461E+05
 0.29453003E+02  0.23463E+05
 0.29503002E+02  0.23468E+05
 0.29553005E+02  0.23469E+05
 0.29603004E+02  0.23469E+05
 0.29653004E+02  0.23472E+05
 0.29703003E+02  0.23470E+05
 0.29753002E+02  0.23472E+05
 0.29803005E+02  0.23479E+05
 0.29853004E+02  0.23478E+05
 0.29903004E+02  0.23478E+05
 0.29953003E+02  0.23474E+05
 0.30003002E+02  0.23477E+05
 0.30053005E+02  0.23481E+05
 0.30103004E+02  0.23472E+05
 0.30153004E+02  0.23476E+05
 0.30203003E+02  0.23479E+05
 0.30253002E+02  0.23480E+05
 0.30303005E+02  0.23482E+05
 0.30353004E+02  0.23486E+05
 0.30403004E+02  0.23489E+05
 0.30453003E+02  0.23485E+05
 0.30503002E+02  0.23489E+05
 0.30553005E+02  0.23482E+05
 0.30603004E+02  0.23481E+05
 0.30653004E+02  0.23486E+05
 0.30703003E+02  0.23481E+05
 0.30753002E+02  0.23482E+05
 0.30803005E+02  0.23487E+05
 0.30853004E+02  0.23483E+05
 0.30903004E+02  0.23481E+05
 0.30953003E+02  0.23480E+05
 0.31003002E+02  0.23489E+05
 0.31053005E+02  0.23486E+05
 0.31103004E+02  0.23488E+05
 0.31153004E+02  0.23494E+05
 0.31203003E+02  0.23490E+05
 0.31253002E+02  0.23496E+05
 0.31303005E+02  0.23489E+05
 0.31353004E+02  0.23491E+05
 0.31403004E+02  0.23493E+05
 0.31453003E+02  0.23491E+05
 0.31503002E+02  0.23499E+05
 0.31553005E+02  0.23500E+05
 0.31603004E+02  0.23502E+05
 0.31653004E+02  0.23501E+05
 0.31703003E+02  0.23503E+05
 0.31753002E+02  0.23507E+05
 0.31803005E+02  0.23508E+05
 0.31853004E+02  0.23512E+05
 0.31903004E+02  0.23508E+05
 0.31953003E+02  0.23510E+05
 0.32003002E+02  0.23509E+05
 0.32053005E+02  0.23511E+05
 0.32103004E+02  0.23515E+05
 0.32153004E+02  0.23509E+05
 0.32203003E+02  0.23512E+05
 0.32253002E+02  0.23517E+05
 0.32303005E+02  0.23510E+05
 0.32353004E+02  0.23508E+05
 0.32403004E+02  0.23512E+05
 0.32453003E+02  0.23507E+05
 0.32503002E+02  0.23507E+05
 0.32553005E+02  0.23504E+05
 0.32603004E+02  0.23502E+05
 0.32653004E+02  0.23496E+05
 0.32703003E+02  0.23491E+05
 0.32753002E+02  0.23496E+05
 0.32803005E+02  0.23490E+05
 0.32853004E+02  0.23487E+05
 0.32903004E+02  0.23487E+05
 0.32953003E+02  0.23484E+05
 0.33003002E+02  0.23482E+05
 0.33053005E+02  0.23479E+05
 0.33103004E+02  0.23478E+05
 0.33153004E+02  0.23472E+05
 0.33203003E+02  0.23470E+05
 0.33253002E+02  0.23470E+05
 0.33303005E+02  0.23467E+05
 0.33353004E+02  0.23462E+05
 0.33403004E+02  0.23456E+05
 0.33453003E+02  0.23454E+05
 0.33503002E+02  0.23449E+05
 0.33553005E+02  0.23450E+05
 0.33603004E+02  0.23451E+05
 0.33653004E+02  0.23443E+05
 0.33703003E+02  0.23440E+05
 0.33753002E+02  0.23442E+05
 0.33803005E+02  0.23442E+05
 0.33853004E+02  0.23441E+05
 0.33903004E+02  0.23440E+05
 0.33953003E+02  0.23440E+05
 0.34003002E+02  0.23442E+05
 0.34053005E+02  0.23440E+05
 0.34103004E+02  0.23441E+05
 0.34153004E+02  0.23453E+05
 0.34203003E+02  0.23452E+05
 0.34253002E+02  0.23451E+05
 0.34303005E+02  0.23457E+05
 0.34353004E+02  0.23454E+05
 0.34403004E+02  0.23462E+05
 0.34453003E+02  0.23462E+05
 0.34503002E+02  0.23461E+05
 0.34553005E+02  0.23461E+05
 0.34603004E+02  0.23463E+05
 0.34653004E+02  0.23470E+05
 0.34703003E+02  0.23472E+05
 0.34753002E+02  0.23474E+05
 0.34803005E+02  0.23471E+05
 0.34853004E+02  0.23474E+05
 0.34903004E+02  0.23475E+05
 0.34953003E+02  0.23476E+05
 0.35003002E+02  0.23478E+05
 0.35053005E+02  0.23480E+05
 0.35103004E+02  0.23477E+05
 0.35153004E+02  0.23482E+05
 0.35203003E+02  0.23482E+05
 0.35253002E+02  0.23479E+05
 0.35303005E+02  0.23487E+05
 0.35353004E+02  0.23485E+05
 0.35403004E+02  0.23493E+05
 0.35453003E+02  0.23492E+05
 0.35503002E+02  0.23490E+05
 0.35553005E+02  0.23493E+05
 0.35603004E+02  0.23488E+05
 0.35653004E+02  0.23490E+05
 0.35703003E+02  0.23489E+05
 0.35753002E+02  0.23487E+05
 0.35803005E+02  0.23490E+05
 0.35853004E+02  0.23491E+05
 0.35903004E+02  0.23492E+05
 0.35953003E+02  0.23491E+05
 0.36003002E+02  0.23495E+05
 0.36053005E+02  0.23493E+05
 0.36103004E+02  0.23491E+05
 0.36153004E+02  0.23496E+05
 0.36203003E+02  0.23489E+05
 0.36253002E+02  0.23490E+05
 0.36303005E+02  0.23492E+05
 0.36353004E+02  0.23491E+05
 0.36403004E+02  0.23492E+05
 0.36453003E+02  0.23489E+05
 0.36503002E+02  0.23486E+05
 0.36553005E+02  0.23490E+05
 0.36603004E+02  0.23493E+05
 0.36653004E+02  0.23497E+05
 0.36703003E+02  0.23497E+05
 0.36753002E+02  0.23494E+05
 0.36803005E+02  0.23495E+05
 0.36853004E+02  0.23492E+05
 0.36903004E+02  0.23493E+05
 0.36953003E+02  0.23496E+05
 0.37003002E+02  0.23496E+05
 0.37053005E+02  0.23497E+05
 0.37103004E+02  0.23499E+05
 0.37153004E+02  0.23500E+05
 0.37203003E+02  0.23497E+05
 0.37253002E+02  0.23501E+05
 0.37303005E+02  0.23501E+05
 0.37353004E+02  0.23497E+05
 0.37403004E+02  0.23494E+05
 0.37453003E+02  0.23495E+05
 0.37503002E+02  0.23499E+05
 0.37553005E+02  0.23489E+05
 0.37603004E+02  0.23490E+05
 0.37653004E+02  0.23490E+05
 0.37703003E+02  0.23484E+05
 0.37753002E+02  0.23480E+05
 0.37803005E+02  0.23477E+05
 0.37853004E+02  0.23476E+05
 0.37903004E+02  0.23473E+05
 0.37953003E+02  0.23464E+05
 0.38003002E+02  0.23465E+05
 0.38053005E+02  0.23466E+05
 0.38103004E+02  0.23463E+05
 0.38153004E+02  0.23465E+05
 0.38203003E+02  0.23465E+05
 0.38253002E+02  0.23467E+05
 0.38303005E+02  0.23466E+05
 0.38353004E+02  0.23469E+05
 0.38403004E+02  0.23471E+05
 0.38453003E+02  0.23470E+05
 0.38503002E+02  0.23475E+05
 0.38553005E+02  0.23476E+05
 0.38603004E+02  0.23471E+05
 0.38653004E+02  0.23476E+05
 0.38703003E+02  0.23480E+05
 0.38753002E+02  0.23479E+05
 0.38803005E+02  0.23482E+05
 0.38853004E+02  0.23483E+05
 0.38903004E+02  0.23488E+05
 0.38953003E+02  0.23488E+05
 0.39003002E+02  0.23495E+05
 0.39053005E+02  0.23505E+05
 0.39103004E+02  0.23503E+05
 0.39153004E+02  0.23509E+05
 0.39203003E+02  0.23513E+05
 0.39253002E+02  0.23514E+05
 0.39303005E+02  0.23518E+05
 0.39353004E+02  0.23523E+05
 0.39403004E+02  0.23524E+05
 0.39453003E+02  0.23529E+05
 0.39503002E+02  0.23534E+05
 0.39553005E+02  0.23528E+05
 0.39603004E+02  0.23537E+05
 0.39653004E+02  0.23538E+05
 0.39703003E+02  0.23532E+05
 0.39753002E+02  0.23532E+05
 0.39803005E+02  0.23529E+05
 0.39853004E+02  0.23528E+05
 0.39903004E+02  0.23528E+05
 0.39953003E+02  0.23526E+05
 0.40003002E+02  0.23524E+05
 0.40053005E+02  0.23524E+05
 0.40103004E+02  0.23523E+05
 0.40153004E+02  0.23525E+05
 0.40203003E+02  0.23522E+05
 0.40253002E+02  0.23524E+05
 0.40303005E+02  0.23527E+05
 0.40353004E+02  0.23528E+05
 0.40403004E+02  0.23527E+05
 0.40453003E+02  0.23524E+05
 0.40503002E+02  0.23528E+05
 0.40553005E+02  0.23526E+05
 0.40603004E+02  0.23525E+05
 0.40653004E+02  0.23536E+05
 0.40703003E+02  0.23535E+05
 0.40753002E+02  0.23535E+05
 0.40803005E+02  0.23531E+05
 0.40853004E+02  0.23533E+05
 0.40903004E+02  0.23536E+05
 0.40953003E+02  0.23533E+05
 0.41003002E+02  0.23539E+05
 0.41053005E+02  0.23536E+05
 0.41103004E+02  0.23541E+05
 0.41153004E+02  0.23542E+05
 0.41203003E+02  0.23541E+05
 0.41253002E+02  0.23543E+05
 0.41303005E+02  0.23539E+05
 0.41353004E+02  0.23544E+05
 0.41403004E+02  0.23543E+05
 0.41453003E+02  0.23544E+05
 0.41503002E+02  0.23541E+05
 0.41553005E+02  0.23541E+05
 0.41603004E+02  0.23536E+05
 0.41653004E+02  0.23533E+05
 0.41703003E+02  0.23534E+05
 0.41753002E+02  0.23527E+05
 0.41803001E+02  0.23525E+05
 0.41853004E+02  0.23521E+05
 0.41903004E+02  0.23523E+05
 0.41953003E+02  0.23521E+05
 0.42003002E+02  0.23518E+05
 0.42053001E+02  0.23516E+05
 0.42103004E+02  0.23514E+05
 0.42153004E+02  0.23518E+05
 0.42203003E+02  0.23511E+05
 0.42253002E+02  0.23512E+05
 0.42303001E+02  0.23515E+05
 0.42353004E+02  0.23512E+05
 0.42403004E+02  0.23512E+05
 0.42453003E+02  0.23513E+05
 0.42503002E+02  0.23514E+05
 0.42553001E+02  0.23513E+05
 0.42603004E+02  0.23510E+05
 0.42653004E+02  0.23514E+05
 0.42703003E+02  0.23511E+05
 0.42753002E+02  0.23507E+05
 0.42803001E+02  0.23509E+05
 0.42853004E+02  0.23505E+05
 0.42903004E+02  0.23504E+05
 0.42953003E+02  0.23498E+05
 0.43003002E+02  0.23499E+05
 0.43053001E+02  0.23498E+05
 0.43103004E+02  0.23491E+05
 0.43153004E+02  0.23497E+05
 0.43203003E+02  0.23491E+05
 0.43253002E+02  0.23489E+05
 0.43303001E+02  0.23492E+05
 0.43353004E+02  0.23485E+05
 0.43403004E+02  0.23482E+05
 0.43453003E+02  0.23480E+05
 0.43503002E+02  0.23478E+05
 0.43553001E+02  0.23479E+05
 0.43603004E+02  0.23481E+05
 0.43653004E+02  0.23475E+05
 0.43703003E+02  0.23476E+05
 0.43753002E+02  0.23476E+05
 0.43803001E+02  0.23475E+05
 0.43853004E+02  0.23477E+05
 0.43903004E+02  0.23471E+05
 0.43953003E+02  0.23475E+05
 0.44003002E+02  0.23480E+05
 0.44053001E+02  0.23478E+05
 0.44103004E+02  0.23482E+05
 0.44153004E+02  0.23482E+05
 0.44203003E+02  0.23483E+05
 0.44253002E+02  0.23485E+05
 0.44303001E+02  0.23480E+05
 0.44353004E+02  0.23485E+05
 0.44403004E+02  0.23484E+05
 0.44453003E+02  0.23484E+05
 0.44503002E+02  0.23483E+05
 0.44553001E+02  0.23479E+05
 0.44603004E+02  0.23478E+05
 0.44653004E+02  0.23473E+05
 0.44703003E+02  0.23472E+05
 0.44753002E+02  0.23473E+05
 0.44803001E+02  0.23467E+05
 0.44853004E+02  0.23467E+05
 0.44903004E+02  0.23462E+05
 0.44953003E+02  0.23462E+05
 0.45003002E+02  0.23464E+05
 0.45053001E+02  0.23452E+05
 0.45103004E+02  0.23452E+05
 0.45153004E+02  0.23451E+05
 0.45203003E+02  0.23448E+05
 0.45253002E+02  0.23445E+05
 0.45303001E+02  0.23443E+05
 0.45353004E+02  0.23447E+05
 0.45403004E+02  0.23445E+05
 0.45453003E+02  0.23446E+05
 0.45503002E+02  0.23446E+05
 0.45553001E+02  0.23443E+05
 0.45603004E+02  0.23447E+05
 0.45653004E+02  0.23447E+05
 0.45703003E+02  0.23441E+05
 0.45753002E+02  0.23446E+05
 0.45803001E+02  0.23448E+05
 0.45853004E+02  0.23442E+05
 0.45903004E+02  0.23445E+05
 0.45953003E+02  0.23447E+05
 0.46003002E+02  0.23445E+05
 0.46053001E+02  0.23444E+05
 0.46103004E+02  0.23446E+05
 0.46153004E+02  0.23446E+05
 0.46203003E+02  0.23442E+05
 0.46253002E+02  0.23444E+05
 0.46303001E+02  0.23449E+05
 0.46353004E+02  0.23444E+05
 0.46403004E+02  0.23441E+05
 0.46453003E+02  0.23444E+05
 0.46503002E+02  0.23445E+05
 0.46553001E+02  0.23440E+05
 0.46603004E+02  0.23441E+05
 0.46653004E+02  0.23441E+05
 0.46703003E+02  0.23434E+05
 0.46753002E+02  0.23431E+05
 0.46803001E+02  0.23437E+05
 0.46853004E+02  0.23438E+05
 0.46903004E+02  0.23436E+05
 0.46953003E+02  0.23440E+05
 0.47003002E+02  0.23440E+05
 0.47053001E+02  0.23444E+05
 0.47103004E+02  0.23444E+05
 0.47153004E+02  0.23441E+05
 0.47203003E+02  0.23443E+05
 0.47253002E+02  0.23443E+05
 0.47303001E+02  0.23448E+05
 0.47353004E+02  0.23448E+05
 0.47403004E+02  0.23448E+05
 0.47453003E+02  0.23455E+05
 0.47503002E+02  0.23463E+05
 0.47553001E+02  0.23461E+05
 0.47603004E+02  0.23462E+05
 0.47653004E+02  0.23465E+05
 0.47703003E+02  0.23463E+05
 0.47753002E+02  0.23464E+05
 0.47803001E+02  0.23463E+05
 0.47853004E+02  0.23462E+05
 0.47903004E+02  0.23463E+05
 0.47953003E+02  0.23461E+05
 0.48003002E+02  0.23465E+05
 0.48053001E+02  0.23462E+05
 0.48103004E+02  0.23461E+05
 0.48153004E+02  0.23464E+05
 0.48203003E+02  0.23459E+05
 0.48253002E+02  0.23456E+05
 0.48303001E+02  0.23459E+05
 0.48353004E+02  0.23459E+05
 0.48403004E+02  0.23452E+05
 0.48453003E+02  0.23455E+05
 0.48503002E+02  0.23455E+05
 0.48553001E+02  0.23452E+05
 0.48603004E+02  0.23457E+05
 0.48653004E+02  0.23451E+05
 0.48703003E+02  0.23450E+05
 0.48753002E+02  0.23447E+05
 0.48803001E+02  0.23448E+05
 0.48853004E+02  0.23449E+05
 0.48903004E+02  0.23444E+05
 0.48953003E+02  0.23444E+05
 0.49003002E+02  0.23442E+05
 0.49053001E+02  0.23447E+05
 0.49103004E+02  0.23449E+05
 0.49153004E+02  0.23447E+05
 0.49203003E+02  0.23452E+05
 0.49253002E+02  0.23446E+05
 0.49303001E+02  0.23446E+05
 0.49353004E+02  0.23452E+05
 0.49403004E+02  0.23448E+05
 0.49453003E+02  0.23450E+05
 0.49503002E+02  0.23453E+05
 0.49553001E+02  0.23456E+05
 0.49603004E+02  0.23458E+05
 0.49653004E+02  0.23459E+05
 0.49703003E+02  0.23463E+05
 0.49753002E+02  0.23466E+05
 0.49803001E+02  0.23467E+05
 0.49853004E+02  0.23471E+05
 0.49903004E+02  0.23473E+05
 0.49953003E+02  0.23471E+05
 0.50003002E+02  0.23472E+05
 0.50053001E+02  0.23471E+05
 0.50103004E+02  0.23478E+05
 0.50153004E+02  0.23479E+05
 0.50203003E+02  0.23480E+05
 0.50253002E+02  0.23480E+05
 0.50303001E+02  0.23475E+05
 0.50353004E+02  0.23479E+05
 0.50403004E+02  0.23474E+05
 0.50453003E+02  0.23478E+05
 0.50503002E+02  0.23481E+05
 0.50553001E+02  0.23476E+05
 0.50603004E+02  0.23477E+05
 0.50653004E+02  0.23476E+05
 0.50703003E+02  0.23476E+05
 0.50753002E+02  0.23480E+05
 0.50803001E+02  0.23469E+05
 0.50853004E+02  0.23470E+05
 0.50903004E+02  0.23472E+05
 0.50953003E+02  0.23469E+05
 0.51003002E+02  0.23473E+05
 0.51053001E+02  0.23473E+05
 0.51103004E+02  0.23468E+05
 0.51153004E+02  0.23466E+05
 0.51203003E+02  0.23468E+05
 0.51253002E+02  0.23470E+05
 0.51303001E+02  0.23470E+05
 0.51353004E+02  0.23471E+05
 0.51403004E+02  0.23471E+05
 0.51453003E+02  0.23466E+05
 0.51503002E+02  0.23474E+05
 0.51553001E+02  0.23471E+05
 0.51603004E+02  0.23470E+05
 0.51653004E+02  0.23476E+05
 0.51703003E+02  0.23473E+05
 0.51753002E+02  0.23474E+05
 0.51803001E+02  0.23475E+05
 0.51853004E+02  0.23481E+05
 0.51903004E+02  0.23478E+05
 0.51953003E+02  0.23476E+05
 0.52003002E+02  0.23480E+05
 0.52053001E+02  0.23482E+05
 0.52103004E+02  0.23483E+05
 0.52153004E+02  0.23479E+05
 0.52203003E+02  0.23480E+05
 0.52253002E+02  0.23480E+05
 0.52303001E+02  0.23476E+05
 0.52353004E+02  0.23477E+05
 0.52403004E+02  0.23476E+05
 0.52453003E+02  0.23475E+05
 0.52503002E+02  0.23474E+05
 0.52553001E+02  0.23473E+05
 0.52603004E+02  0.23468E+05
 0.52653004E+02  0.23467E+05
 0.52703003E+02  0.23469E+05
 0.52753002E+02  0.23471E+05
 0.52803001E+02  0.23474E+05
 0.52853004E+02  0.23475E+05
 0.52903004E+02  0.23475E+05
 0.52953003E+02  0.23469E+05
 0.53003002E+02  0.23473E+05
 0.53053001E+02  0.23473E+05
 0.53103004E+02  0.23473E+05
 0.53153004E+02  0.23469E+05
 0.53203003E+02  0.23470E+05
 0.53253002E+02  0.23471E+05
 0.53303001E+02  0.23468E+05
 0.53353004E+02  0.23474E+05
 0.53403004E+02  0.23472E+05
 0.53453003E+02  0.23478E+05
 0.53503002E+02  0.23475E+05
 0.53553001E+02  0.23480E+05
 0.53603004E+02  0.23484E+05
 0.53653004E+02  0.23484E+05
 0.53703003E+02  0.23486E+05
 0.53753002E+02  0.23484E+05
 0.53803001E+02  0.23485E+05
 0.53853004E+02  0.23488E+05
 0.53903004E+02  0.23496E+05
 0.53953003E+02  0.23489E+05
 0.54003002E+02  0.23486E+05
 0.54053001E+02  0.23491E+05
 0.54103004E+02  0.23488E+05
 0.54153004E+02  0.23488E+05
 0.54203003E+02  0.23489E+05
 0.54253002E+02  0.23485E+05
 0.54303001E+02  0.23483E+05
 0.54353004E+02  0.23484E+05
 0.54403004E+02  0.23481E+05
 0.54453003E+02  0.23480E+05
 0.54503002E+02  0.23479E+05
 0.54553001E+02  0.23477E+05
 0.54603004E+02  0.23482E+05
 0.54653004E+02  0.23477E+05
 0.54703003E+02  0.23479E+05
 0.54753002E+02  0.23482E+05
 0.54803001E+02  0.23480E+05
 0.54853001E+02  0.23484E+05
 0.54903004E+02  0.23480E+05
 0.54953003E+02  0.23483E+05
 0.55003002E+02  0.23490E+05
 0.55053001E+02  0.23488E+05
 0.55103001E+02  0.23492E+05
 0.55153004E+02  0.23492E+05
 0.55203003E+02  0.23495E+05
 0.55253002E+02  0.23501E+05
 0.55303001E+02  0.23501E+05
 0.55353001E+02  0.23505E+05
 0.55403004E+02  0.23505E+05
 0.55453003E+02  0.23505E+05
 0.55503002E+02  0.23512E+05
 0.55553001E+02  0.23516E+05
 0.55603001E+02  0.23512E+05
 0.55653004E+02  0.23520E+05
 0.55703003E+02  0.23521E+05
 0.55753002E+02  0.23520E+05
 0.55803001E+02  0.23529E+05
 0.55853001E+02  0.23522E+05
 0.55903004E+02  0.23528E+05
 0.55953003E+02  0.23534E+05
 0.56003002E+02  0.23531E+05
 0.56053001E+02  0.23534E+05
 0.56103001E+02  0.23537E+05
 0.56153004E+02  0.23537E+05
 0.56203003E+02  0.23534E+05
 0.56253002E+02  0.23537E+05
 0.56303001E+02  0.23536E+05
 0.56353001E+02  0.23544E+05
 0.56403004E+02  0.23546E+05
 0.56453003E+02  0.23539E+05
 0.56503002E+02  0.23541E+05
 0.56553001E+02  0.23543E+05
 0.56603001E+02  0.23542E+05
 0.56653004E+02  0.23537E+05
 0.56703003E+02  0.23537E+05
 0.56753002E+02  0.23533E+05
 0.56803001E+02  0.23533E+05
 0.56853001E+02  0.23534E+05
 0.56903004E+02  0.23535E+05
 0.56953003E+02  0.23535E+05
 0.57003002E+02  0.23530E+05
 0.57053001E+02  0.23527E+05
 0.57103001E+02  0.23528E+05
 0.57153004E+02  0.23525E+05
 0.57203003E+02  0.23521E+05
 0.57253002E+02  0.23529E+05
 0.57303001E+02  0.23527E+05
 0.57353001E+02  0.23521E+05
 0.57403004E+02  0.23524E+05
 0.57453003E+02  0.23528E+05
 0.57503002E+02  0.23525E+05
 0.57553001E+02  0.23524E+05
 0.57603001E+02  0.23528E+05
 0.57653004E+02  0.23526E+05
 0.57703003E+02  0.23530E+05
 0.57753002E+02  0.23528E+05
 0.57803001E+02  0.23531E+05
 0.57853001E+02  0.23534E+05
 0.57903004E+02  0.23526E+05
 0.57953003E+02  0.23528E+05
 0.58003002E+02  0.23529E+05
 0.58053001E+02  0.23525E+05
 0.58103001E+02  0.23523E+05
 0.58153004E+02  0.23522E+05
 0.58203003E+02  0.23525E+05
 0.58253002E+02  0.23519E+05
 0.58303001E+02  0.23517E+05
 0.58353001E+02  0.23519E+05
 0.58403004E+02  0.23517E+05
 0.58453003E+02  0.23518E+05
 0.58503002E+02  0.23516E+05
 0.58553001E+02  0.23520E+05
 0.58603001E+02  0.23514E+05
 0.58653004E+02  0.23510E+05
 0.58703003E+02  0.23509E+05
 0.58753002E+02  0.23507E+05
 0.58803001E+02  0.23507E+05
 0.58853001E+02  0.23506E+05
 0.58903004E+02  0.23512E+05
 0.58953003E+02  0.23508E+05
 0.59003002E+02  0.23506E+05
 0.59053001E+02  0.23507E+05
 0.59103001E+02  0.23504E+05
 0.59153004E+02  0.23507E+05
 0.59203003E+02  0.23507E+05
 0.59253002E+02  0.23506E+05
 0.59303001E+02  0.23500E+05
 0.59353001E+02  0.23502E+05
 0.59403004E+02  0.23502E+05
 0.59453003E+02  0.23490E+05
 0.59503002E+02  0.23492E+05
 0.59553001E+02  0.23487E+05
 0.59603001E+02  0.23485E+05
 0.59653004E+02  0.23482E+05
 0.59703003E+02  0.23476E+05
 0.59753002E+02  0.23473E+05
 0.59803001E+02  0.23469E+05
 0.59853001E+02  0.23471E+05
 0.59903004E+02  0.23463E+05
 0.59953003E+02  0.23465E+05
 0.60003002E+02  0.23465E+05
 0.60053001E+02  0.23458E+05
 0.60103001E+02  0.23461E+05
 0.60153004E+02  0.23459E+05
 0.60203003E+02  0.23459E+05
 0.60253002E+02  0.23457E+05
 0.60303001E+02  0.23453E+05
 0.60353001E+02  0.23458E+05
 0.60403004E+02  0.23455E+05
 0.60453003E+02  0.23456E+05
 0.60503002E+02  0.23459E+05
 0.60553001E+02  0.23457E+05
 0.60603001E+02  0.23460E+05
 0.60653004E+02  0.23458E+05
 0.60703003E+02  0.23459E+05
 0.60753002E+02  0.23461E+05
 0.60803001E+02  0.23462E+05
 0.60853001E+02  0.23463E+05
 0.60903004E+02  0.23463E+05
 0.60953003E+02  0.23461E+05
 0.61003002E+02  0.23462E+05
 0.61053001E+02  0.23467E+05
 0.61103004E+02  0.23464E+05
 0.61153000E+02  0.23465E+05
 0.61203003E+02  0.23471E+05
 0.61252998E+02  0.23469E+05
 0.61303001E+02  0.23466E+05
 0.61353004E+02  0.23470E+05
 0.61403000E+02  0.23469E+05
 0.61453003E+02  0.23469E+05
 0.61502998E+02  0.23472E+05
 0.61553001E+02  0.23476E+05
 0.61603004E+02  0.23477E+05
 0.61653000E+02  0.23476E+05
 0.61703003E+02  0.23480E+05
 0.61752998E+02  0.23476E+05
 0.61803001E+02  0.23478E+05
 0.61853004E+02  0.23483E+05
 0.61903000E+02  0.23473E+05
 0.61953003E+02  0.23476E+05
 0.62002998E+02  0.23478E+05
 0.62053001E+02  0.23477E+05
 0.62103004E+02  0.23479E+05
 0.62153000E+02  0.23477E+05
 0.62203003E+02  0.23480E+05
 0.62252998E+02  0.23474E+05
 0.62303001E+02  0.23477E+05
 0.62353004E+02  0.23479E+05
 0.62403000E+02  0.23470E+05
 0.62453003E+02  0.23475E+05
 0.62502998E+02  0.23470E+05
 0.62553001E+02  0.23466E+05
 0.62603004E+02  0.23470E+05
 0.62653000E+02  0.23468E+05
 0.62703003E+02  0.23471E+05
 0.62752998E+02  0.23475E+05
 0.62803001E+02  0.23468E+05
 0.62853004E+02  0.23464E+05
 0.62903000E+02  0.23472E+05
 0.62953003E+02  0.23463E+05
 0.63002998E+02  0.23461E+05
 0.63053001E+02  0.23459E+05
 0.63103004E+02  0.23458E+05
 0.63153000E+02  0.23463E+05
 0.63203003E+02  0.23455E+05
 0.63252998E+02  0.23463E+05
 0.63303001E+02  0.23461E+05
 0.63353004E+02  0.23454E+05
 0.63403000E+02  0.23453E+05
 0.63453003E+02  0.23450E+05
 0.63502998E+02  0.23452E+05
 0.63553001E+02  0.23451E+05
 0.63603004E+02  0.23445E+05
 0.63653000E+02  0.23444E+05
 0.63703003E+02  0.23450E+05
 0.63752998E+02  0.23446E+05
 0.63803001E+02  0.23445E+05
 0.63853004E+02  0.23449E+05
 0.63903000E+02  0.23446E+05
 0.63953003E+02  0.23449E+05
 0.64002998E+02  0.23451E+05
 0.64053001E+02  0.23453E+05
 0.64103004E+02  0.23461E+05
 0.64153000E+02  0.23457E+05
 0.64203003E+02  0.23457E+05
 0.64252998E+02  0.23463E+05
 0.64303001E+02  0.23463E+05
 0.64353004E+02  0.23467E+05
 0.64403000E+02  0.23471E+05
 0.64453003E+02  0.23470E+05
 0.64502998E+02  0.23473E+05
 0.64553001E+02  0.23477E+05
 0.64603004E+02  0.23476E+05
 0.64653000E+02  0.23475E+05
 0.64703003E+02  0.23476E+05
 0.64752998E+02  0.23479E+05
 0.64803001E+02  0.23475E+05
 0.64853004E+02  0.23481E+05
 0.64903000E+02  0.23484E+05
 0.64953003E+02  0.23474E+05
 0.65002998E+02  0.23477E+05
 0.65053001E+02  0.23479E+05
 0.65103004E+02  0.23481E+05
 0.65153000E+02  0.23479E+05
 0.65203003E+02  0.23476E+05
 0.65252998E+02  0.23477E+05
 0.65303001E+02  0.23476E+05
 0.65353004E+02  0.23476E+05
 0.65403000E+02  0.23471E+05
 0.65453003E+02  0.23472E+05
 0.65502998E+02  0.23480E+05
 0.65553001E+02  0.23479E+05
 0.65603004E+02  0.23482E+05
 0.65653000E+02  0.23485E+05
 0.65703003E+02  0.23485E+05
 0.65752998E+02  0.23482E+05
 0.65803001E+02  0.23481E+05
 0.65853004E+02  0.23482E+05
 0.65903000E+02  0.23479E+05
 0.65953003E+02  0.23477E+05
 0.66002998E+02  0.23475E+05
 0.66053001E+02  0.23469E+05
 0.66103004E+02  0.23469E+05
 0.66153000E+02  0.23467E+05
 0.66203003E+02  0.23463E+05
 0.66252998E+02  0.23463E+05
 0.66303001E+02  0.23458E+05
 0.66353004E+02  0.23452E+05
 0.66403000E+02  0.23452E+05
 0.66453003E+02  0.23446E+05
 0.66502998E+02  0.23446E+05
 0.66553001E+02  0.23448E+05
 0.66603004E+02  0.23444E+05
 0.66653000E+02  0.23441E+05
 0.66703003E+02  0.23445E+05
 0.66752998E+02  0.23445E+05
 0.66803001E+02  0.23443E+05
 0.66853004E+02  0.23449E+05
 0.66903000E+02  0.23448E+05
 0.66953003E+02  0.23446E+05
 0.67002998E+02  0.23446E+05
 0.67053001E+02  0.23452E+05
 0.67103004E+02  0.23455E+05
 0.67153000E+02  0.23455E+05
 0.67203003E+02  0.23459E+05
 0.67252998E+02  0.23462E+05
 0.67303001E+02  0.23461E+05
 0.67353004E+02  0.23465E+05
 0.67403000E+02  0.23469E+05
 0.67453003E+02  0.23467E+05
 0.67502998E+02  0.23479E+05
 0.67553001E+02  0.23480E+05
 0.67603004E+02  0.23481E+05
 0.67653000E+02  0.23488E+05
 0.67703003E+02  0.23486E+05
 0.67752998E+02  0.23492E+05
 0.67803001E+02  0.23495E+05
 0.67853004E+02  0.23497E+05
 0.67903000E+02  0.23498E+05
 0.67953003E+02  0.23501E+05
 0.68002998E+02  0.23499E+05
 0.68053001E+02  0.23498E+05
 0.68103004E+02  0.23504E+05
 0.68153000E+02  0.23504E+05
 0.68203003E+02  0.23501E+05
 0.68252998E+02  0.23498E+05
 0.68303001E+02  0.23499E+05
 0.68353004E+02  0.23501E+05
 0.68403000E+02  0.23503E+05
 0.68453003E+02  0.23502E+05
 0.68502998E+02  0.23500E+05
 0.68553001E+02  0.23499E+05
 0.68603004E+02  0.23502E+05
 0.68653000E+02  0.23500E+05
 0.68703003E+02  0.23498E+05
 0.68752998E+02  0.23498E+05
 0.68803001E+02  0.23500E+05
 0.68853004E+02  0.23501E+05
 0.68903000E+02  0.23495E+05
 0.68953003E+02  0.23498E+05
 0.69002998E+02  0.23498E+05
 0.69053001E+02  0.23493E+05
 0.69103004E+02  0.23495E+05
 0.69153000E+02  0.23497E+05
 0.69203003E+02  0.23497E+05
 0.69252998E+02  0.23494E+05
 0.69303001E+02  0.23494E+05
 0.69353004E+02  0.23496E+05
 0.69403000E+02  0.23494E+05
 0.69453003E+02  0.23494E+05
 0.69502998E+02  0.23493E+05
 0.69553001E+02  0.23501E+05
 0.69603004E+02  0.23494E+05
 0.69653000E+02  0.23490E+05
 0.69703003E+02  0.23494E+05
 0.69752998E+02  0.23489E+05
 0.69803001E+02  0.23495E+05
 0.69853004E+02  0.23493E+05
 0.69903000E+02  0.23494E+05
 0.69953003E+02  0.23499E+05
 0.70002998E+02  0.23495E+05
 0.70053001E+02  0.23496E+05
 0.70103004E+02  0.23496E+05
 0.70153000E+02  0.23495E+05
 0.70203003E+02  0.23493E+05
 0.70252998E+02  0.23491E+05
 0.70303001E+02  0.23490E+05
 0.70353004E+02  0.23485E+05
 0.70403000E+02  0.23482E+05
 0.70453003E+02  0.23478E+05
 0.70502998E+02  0.23477E+05
 0.70553001E+02  0.23474E+05
 0.70603004E+02  0.23469E+05
 0.70653000E+02  0.23471E+05
 0.70703003E+02  0.23467E+05
 0.70752998E+02  0.23465E+05
 0.70803001E+02  0.23465E+05
 0.70853004E+02  0.23465E+05
 0.70903000E+02  0.23464E+05
 0.70953003E+02  0.23462E+05
 0.71002998E+02  0.23463E+05
 0.71053001E+02  0.23465E+05
 0.71103004E+02  0.23462E+05
 0.71153000E+02  0.23463E+05
 0.71203003E+02  0.23471E+05
 0.71252998E+02  0.23471E+05
 0.71303001E+02  0.23475E+05
 0.71353004E+02  0.23476E+05
 0.71403000E+02  0.23477E+05
 0.71453003E+02  0.23477E+05
 0.71502998E+02  0.23479E+05
 0.71553001E+02  0.23482E+05
 0.71603004E+02  0.23478E+05
 0.71653000E+02  0.23474E+05
 0.71703003E+02  0.23478E+05
 0.71752998E+02  0.23481E+05
 0.71803001E+02  0.23480E+05
 0.71853004E+02  0.23478E+05
 0.71903000E+02  0.23476E+05
 0.71953003E+02  0.23481E+05
 0.72002998E+02  0.23475E+05
 0.72053001E+02  0.23472E+05
 0.72103004E+02  0.23473E+05
 0.72153000E+02  0.23470E+05
 0.72203003E+02  0.23471E+05
 0.72252998E+02  0.23470E+05
 0.72303001E+02  0.23469E+05
 0.72353004E+02  0.23470E+05
 0.72403000E+02  0.23466E+05
 0.72453003E+02  0.23467E+05
 0.72502998E+02  0.23466E+05
 0.72553001E+02  0.23462E+05
 0.72603004E+02  0.23462E+05
 0.72653000E+02  0.23460E+05
 0.72703003E+02  0.23463E+05
 0.72752998E+02  0.23460E+05
 0.72803001E+02  0.23464E+05
 0.72853004E+02  0.23469E+05
 0.72903000E+02  0.23465E+05
 0.72953003E+02  0.23466E+05
 0.73002998E+02  0.23471E+05
 0.73053001E+02  0.23471E+05
 0.73103004E+02  0.23472E+05
 0.73153000E+02  0.23475E+05
 0.73203003E+02  0.23471E+05
 0.73252998E+02  0.23476E+05
 0.73303001E+02  0.23477E+05
 0.73353004E+02  0.23477E+05
 0.73403000E+02  0.23478E+05
 0.73453003E+02  0.23476E+05
 0.73502998E+02  0.23483E+05
 0.73553001E+02  0.23481E+05
 0.73603004E+02  0.23483E+05
 0.73653000E+02  0.23489E+05
 0.73703003E+02  0.23491E+05
 0.73752998E+02  0.23493E+05
 0.73803001E+02  0.23495E+05
 0.73853004E+02  0.23499E+05
 0.73903000E+02  0.23499E+05
 0.73953003E+02  0.23501E+05
 0.74002998E+02  0.23505E+05
 0.74053001E+02  0.23508E+05
 0.74103004E+02  0.23509E+05
 0.74153000E+02  0.23508E+05
 0.74203003E+02  0.23514E+05
 0.74252998E+02  0.23509E+05
 0.74303001E+02  0.23509E+05
 0.74353004E+02  0.23511E+05
 0.74403000E+02  0.23506E+05
 0.74453003E+02  0.23507E+05
 0.74502998E+02  0.23512E+05
 0.74553001E+02  0.23512E+05
 0.74603004E+02  0.23511E+05
 0.74653000E+02  0.23512E+05
 0.74703003E+02  0.23515E+05
 0.74752998E+02  0.23518E+05
 0.74803001E+02  0.23516E+05
 0.74853004E+02  0.23516E+05
 0.74903000E+02  0.23518E+05
 0.74953003E+02  0.23518E+05
 0.75002998E+02  0.23515E+05
 0.75053001E+02  0.23515E+05
 0.75103004E+02  0.23518E+05
 0.75153000E+02  0.23513E+05
 0.75203003E+02  0.23513E+05
 0.75252998E+02  0.23517E+05
 0.75303001E+02  0.23509E+05
 0.75353004E+02  0.23507E+05
 0.75403000E+02  0.23508E+05
 0.75453003E+02  0.23503E+05
 0.75502998E+02  0.23507E+05
 0.75553001E+02  0.23508E+05
 0.75603004E+02  0.23501E+05
 0.75653000E+02  0.23495E+05
 0.75703003E+02  0.23489E+05
 0.75752998E+02  0.23490E+05
 0.75803001E+02  0.23489E+05
 0.75853004E+02  0.23487E+05
 0.75903000E+02  0.23488E+05
 0.75953003E+02  0.23487E+05
 0.76002998E+02  0.23488E+05
 0.76053001E+02  0.23487E+05
 0.76103004E+02  0.23488E+05
 0.76153000E+02  0.23485E+05
 0.76203003E+02  0.23482E+05
 0.76252998E+02  0.23485E+05
 0.76303001E+02  0.23479E+05
 0.76353004E+02  0.23479E+05
 0.76403000E+02  0.23474E+05
 0.76453003E+02  0.23469E+05
 0.76502998E+02  0.23469E+05
 0.76553001E+02  0.23466E+05
 0.76603004E+02  0.23469E+05
 0.76653000E+02  0.23471E+05
 0.76703003E+02  0.23464E+05
 0.76752998E+02  0.23462E+05
 0.76803001E+02  0.23464E+05
 0.76853004E+02  0.23460E+05
 0.76903000E+02  0.23465E+05
 0.76953003E+02  0.23461E+05
 0.77002998E+02  0.23457E+05
 0.77053001E+02  0.23459E+05
 0.77103004E+02  0.23459E+05
 0.77153000E+02  0.23454E+05
 0.77203003E+02  0.23457E+05
 0.77252998E+02  0.23464E+05
 0.77303001E+02  0.23457E+05
 0.77353004E+02  0.23458E+05
 0.77403000E+02  0.23456E+05
 0.77453003E+02  0.23462E+05
 0.77502998E+02  0.23465E+05
 0.77553001E+02  0.23465E+05
 0.77603004E+02  0.23460E+05
 0.77653000E+02  0.23461E+05
 0.77703003E+02  0.23468E+05
 0.77752998E+02  0.23460E+05
 0.77803001E+02  0.23466E+05
 0.77853004E+02  0.23469E+05
 0.77903000E+02  0.23464E+05
 0.77953003E+02  0.23464E+05
 0.78002998E+02  0.23468E+05
 0.78053001E+02  0.23466E+05
 0.78103004E+02  0.23459E+05
 0.78153000E+02  0.23465E+05
 0.78203003E+02  0.23457E+05
 0.78252998E+02  0.23455E+05
 0.78303001E+02  0.23460E+05
 0.78353004E+02  0.23455E+05
 0.78403000E+02  0.23456E+05
 0.78453003E+02  0.23457E+05
 0.78502998E+02  0.23455E+05
 0.78553001E+02  0.23456E+05
 0.78603004E+02  0.23461E+05
 0.78653000E+02  0.23457E+05
 0.78703003E+02  0.23461E+05
 0.78752998E+02  0.23461E+05
 0.78803001E+02  0.23455E+05
 0.78853004E+02  0.23460E+05
 0.78903000E+02  0.23464E+05
 0.78953003E+02  0.23459E+05
 0.79002998E+02  0.23461E+05
 0.79053001E+02  0.23465E+05
 0.79103004E+02  0.23460E+05
 0.79153000E+02  0.23465E+05
 0.79203003E+02  0.23469E+05
 0.79252998E+02  0.23467E+05
 0.79303001E+02  0.23472E+05
 0.79353004E+02  0.23474E+05
 0.79403000E+02  0.23472E+05
 0.79453003E+02  0.23474E+05
 0.79502998E+02  0.23481E+05
 0.79553001E+02  0.23482E+05
 0.79603004E+02  0.23483E+05
 0.79653000E+02  0.23488E+05
 0.79703003E+02  0.23484E+05
 0.79752998E+02  0.23488E+05
 0.79803001E+02  0.23492E+05
 0.79853004E+02  0.23494E+05
 0.79903000E+02  0.23495E+05
 0.79953003E+02  0.23488E+05
 0.80002998E+02  0.23499E+05
 0.80053001E+02  0.23499E+05
 0.80103004E+02  0.23494E+05
 0.80153000E+02  0.23500E+05
 0.80203003E+02  0.23500E+05
 0.80252998E+02  0.23506E+05
 0.80303001E+02  0.23501E+05
 0.80353004E+02  0.23502E+05
 0.80403000E+02  0.23507E+05
 0.80453003E+02  0.23500E+05
 0.80502998E+02  0.23505E+05
 0.80553001E+02  0.23502E+05
 0.80603004E+02  0.23501E+05
 0.80653000E+02  0.23504E+05
 0.80703003E+02  0.23501E+05
 0.80752998E+02  0.23502E+05
 0.80803001E+02  0.23503E+05
 0.80853004E+02  0.23502E+05
 0.80903000E+02  0.23501E+05
 0.80953003E+02  0.23506E+05
 0.81002998E+02  0.23506E+05
 0.81053001E+02  0.23504E+05
 0.81103004E+02  0.23500E+05
 0.81153000E+02  0.23498E+05
 0.81203003E+02  0.23501E+05
 0.81252998E+02  0.23499E+05
 0.81303001E+02  0.23494E+05
 0.81353004E+02  0.23493E+05
 0.81403000E+02  0.23496E+05
 0.81453003E+02  0.23495E+05
 0.81502998E+02  0.23500E+05
 0.81553001E+02  0.23499E+05
 0.81603004E+02  0.23501E+05
 0.81653000E+02  0.23504E+05
 0.81703003E+02  0.23494E+05
 0.81752998E+02  0.23501E+05
 0.81803001E+02  0.23502E+05
 0.81853004E+02  0.23502E+05
 0.81903000E+02  0.23506E+05
 0.81953003E+02  0.23502E+05
 0.82002998E+02  0.23509E+05
 0.82053001E+02  0.23510E+05
 0.82103004E+02  0.23510E+05
 0.82153000E+02  0.23512E+05
 0.82203003E+02  0.23511E+05
 0.82252998E+02  0.23507E+05
 0.82303001E+02  0.23502E+05
 0.82353004E+02  0.23505E+05
 0.82403000E+02  0.23501E+05
 0.82453003E+02  0.23499E+05
 0.82502998E+02  0.23501E+05
 0.82553001E+02  0.23494E+05
 0.82603004E+02  0.23495E+05
 0.82653000E+02  0.23495E+05
 0.82703003E+02  0.23490E+05
 0.82752998E+02  0.23487E+05
 0.82803001E+02  0.23485E+05
 0.82853004E+02  0.23483E+05
 0.82903000E+02  0.23480E+05
 0.82953003E+02  0.23480E+05
 0.83002998E+02  0.23476E+05
 0.83053001E+02  0.23472E+05
 0.83103004E+02  0.23474E+05
 0.83153000E+02  0.23471E+05
 0.83203003E+02  0.23473E+05
 0.83252998E+02  0.23473E+05
 0.83303001E+02  0.23468E+05
 0.83353004E+02  0.23466E+05
 0.83403000E+02  0.23466E+05
 0.83453003E+02  0.23465E+05
 0.83502998E+02  0.23462E+05
 0.83553001E+02  0.23457E+05
 0.83603004E+02  0.23455E+05
 0.83653000E+02  0.23456E+05
 0.83703003E+02  0.23460E+05
 0.83752998E+02  0.23457E+05
 0.83803001E+02  0.23452E+05
 0.83853004E+02  0.23448E+05
 0.83903000E+02  0.23444E+05
 0.83953003E+02  0.23445E+05
 0.84002998E+02  0.23442E+05
 0.84053001E+02  0.23439E+05
 0.84103004E+02  0.23434E+05
 0.84153000E+02  0.23430E+05
 0.84203003E+02  0.23428E+05
 0.84252998E+02  0.23432E+05
 0.84303001E+02  0.23429E+05
 0.84353004E+02  0.23431E+05
 0.84403000E+02  0.23430E+05
 0.84453003E+02  0.23424E+05
 0.84502998E+02  0.23429E+05
 0.84553001E+02  0.23422E+05
 0.84603004E+02  0.23425E+05
 0.84653000E+02  0.23426E+05
 0.84703003E+02  0.23426E+05
 0.84752998E+02  0.23427E+05
 0.84803001E+02  0.23426E+05
 0.84853004E+02  0.23429E+05
 0.84903000E+02  0.23425E+05
 0.84953003E+02  0.23431E+05
 0.85002998E+02  0.23431E+05
 0.85053001E+02  0.23430E+05
 0.85103004E+02  0.23434E+05
 0.85153000E+02  0.23432E+05
 0.85203003E+02  0.23433E+05
 0.85252998E+02  0.23428E+05
 0.85303001E+02  0.23433E+05
 0.85353004E+02  0.23436E+05
 0.85403000E+02  0.23432E+05
 0.85453003E+02  0.23435E+05
 0.85502998E+02  0.23432E+05
 0.85553001E+02  0.23436E+05
 0.85603004E+02  0.23435E+05
 0.85653000E+02  0.23428E+05
 0.85703003E+02  0.23435E+05
 0.85752998E+02  0.23432E+05
 0.85803001E+02  0.23428E+05
 0.85853004E+02  0.23430E+05
 0.85903000E+02  0.23432E+05
 0.85953003E+02  0.23433E+05
 0.86002998E+02  0.23429E+05
 0.86053001E+02  0.23432E+05
 0.86103004E+02  0.23432E+05
 0.86153000E+02  0.23434E+05
 0.86203003E+02  0.23429E+05
 0.86252998E+02  0.23428E+05
 0.86303001E+02  0.23435E+05
 0.86353004E+02  0.23432E+05
 0.86403000E+02  0.23440E+05
 0.86453003E+02  0.23441E+05
 0.86502998E+02  0.23437E+05
 0.86553001E+02  0.23440E+05
 0.86602997E+02  0.23440E+05
 0.86653000E+02  0.23441E+05
 0.86703003E+02  0.23443E+05
 0.86752998E+02  0.23446E+05
 0.86803001E+02  0.23443E+05
 0.86852997E+02  0.23446E+05
 0.86903000E+02  0.23444E+05
 0.86953003E+02  0.23445E+05
 0.87002998E+02  0.23448E+05
 0.87053001E+02  0.23447E+05
 0.87102997E+02  0.23449E+05
 0.87153000E+02  0.23449E+05
 0.87203003E+02  0.23454E+05
 0.87252998E+02  0.23458E+05
 0.87303001E+02  0.23462E+05
 0.87352997E+02  0.23466E+05
 0.87403000E+02  0.23466E+05
 0.87453003E+02  0.23470E+05
 0.87502998E+02  0.23476E+05
 0.87553001E+02  0.23476E+05
 0.87602997E+02  0.23485E+05
 0.87653000E+02  0.23482E+05
 0.87703003E+02  0.23486E+05
 0.87752998E+02  0.23493E+05
 0.87803001E+02  0.23492E+05
 0.87852997E+02  0.23495E+05
 0.87903000E+02  0.23497E+05
 0.87953003E+02  0.23492E+05
 0.88002998E+02  0.23488E+05
 0.88053001E+02  0.23495E+05
 0.88102997E+02  0.23501E+05
 0.88153000E+02  0.23504E+05
 0.88203003E+02  0.23502E+05
 0.88252998E+02  0.23503E+05
 0.88303001E+02  0.23508E+05
 0.88352997E+02  0.23507E+05
 0.88403000E+02  0.23503E+05
 0.88453003E+02  0.23506E+05
 0.88502998E+02  0.23510E+05
 0.88553001E+02  0.23509E+05
 0.88602997E+02  0.23511E+05
 0.88653000E+02  0.23517E+05
 0.88703003E+02  0.23516E+05
 0.88752998E+02  0.23519E+05
 0.88803001E+02  0.23516E+05
 0.88852997E+02  0.23511E+05
 0.88903000E+02  0.23514E+05
 0.88953003E+02  0.23514E+05
 0.89002998E+02  0.23512E+05
 0.89053001E+02  0.23511E+05
 0.89102997E+02  0.23510E+05
 0.89153000E+02  0.23504E+05
 0.89203003E+02  0.23508E+05
 0.89252998E+02  0.23507E+05
 0.89303001E+02  0.23510E+05
 0.89352997E+02  0.23520E+05
 0.89403000E+02  0.23523E+05
 0.89453003E+02  0.23530E+05
 0.89502998E+02  0.23535E+05
 0.89553001E+02  0.23543E+05
 0.89602997E+02  0.23549E+05
 0.89653000E+02  0.23551E+05
 0.89703003E+02  0.23553E+05
 0.89752998E+02  0.23549E+05
 0.89803001E+02  0.23543E+05
 0.89852997E+02  0.23543E+05
 0.89903000E+02  0.23543E+05
 0.89953003E+02  0.23541E+05
 0.90002998E+02  0.23538E+05
 0.90053001E+02  0.23535E+05
 0.90102997E+02  0.23544E+05
 0.90153000E+02  0.23543E+05
 0.90203003E+02  0.23550E+05
 0.90252998E+02  0.23564E+05
 0.90303001E+02  0.23566E+05
 0.90352997E+02  0.23569E+05
 0.90403000E+02  0.23571E+05
 0.90453003E+02  0.23573E+05
 0.90502998E+02  0.23564E+05
 0.90553001E+02  0.23546E+05
 0.90602997E+02  0.23540E+05
 0.90653000E+02  0.23519E+05
 0.90703003E+02  0.23502E+05
 0.90752998E+02  0.23490E+05
 0.90803001E+02  0.23467E+05
 0.90852997E+02  0.23457E+05
 0.90903000E+02  0.23442E+05
 0.90953003E+02  0.23442E+05
 0.91002998E+02  0.23447E+05
 0.91053001E+02  0.23461E+05
 0.91102997E+02  0.23483E+05
 0.91153000E+02  0.23497E+05
 0.91203003E+02  0.23506E+05
 0.91252998E+02  0.23519E+05
 0.91303001E+02  0.23525E+05
 0.91352997E+02  0.23519E+05
 0.91403000E+02  0.23504E+05
 0.91453003E+02  0.23486E+05
 0.91502998E+02  0.23464E+05
 0.91553001E+02  0.23431E+05
 0.91602997E+02  0.23405E+05
 0.91653000E+02  0.23381E+05
 0.91703003E+02  0.23367E+05
 0.91752998E+02  0.23370E+05
 0.91803001E+02  0.23379E+05
 0.91852997E+02  0.23403E+05
 0.91903000E+02  0.23428E+05
 0.91953003E+02  0.23461E+05
 0.92002998E+02  0.23495E+05
 0.92053001E+02  0.23527E+05
 0.92102997E+02  0.23566E+05
 0.92153000E+02  0.23599E+05
 0.92203003E+02  0.23624E+05
 0.92252998E+02  0.23631E+05
 0.92303001E+02  0.23623E+05
 0.92352997E+02  0.23598E+05
 0.92403000E+02  0.23561E+05
 0.92453003E+02  0.23531E+05
 0.92502998E+02  0.23519E+05
 0.92553001E+02  0.23525E+05
 0.92602997E+02  0.23535E+05
 0.92653000E+02  0.23546E+05
 0.92703003E+02  0.23555E+05
 0.92752998E+02  0.23571E+05
 0.92803001E+02  0.23576E+05
 0.92852997E+02  0.23594E+05
 0.92903000E+02  0.23643E+05
 0.92953003E+02  0.23683E+05
 0.93002998E+02  0.23722E+05
 0.93053001E+02  0.23742E+05
 0.93102997E+02  0.23743E+05
 0.93153000E+02  0.23759E+05
 0.93203003E+02  0.23797E+05
 0.93252998E+02  0.23850E+05
 0.93303001E+02  0.23880E+05
 0.93352997E+02  0.23852E+05
 0.93403000E+02  0.23776E+05
 0.93453003E+02  0.23687E+05
 0.93502998E+02  0.23604E+05
 0.93553001E+02  0.23524E+05
 0.93602997E+02  0.23416E+05
 0.93653000E+02  0.23278E+05
 0.93703003E+02  0.23161E+05
 0.93752998E+02  0.23059E+05
 0.93803001E+02  0.22952E+05
 0.93852997E+02  0.22845E+05
 0.93903000E+02  0.22738E+05
 0.93953003E+02  0.22688E+05
 0.94002998E+02  0.22718E+05
 0.94053001E+02  0.22804E+05
 0.94102997E+02  0.22927E+05
 0.94153000E+02  0.23049E+05
 0.94203003E+02  0.23174E+05
 0.94252998E+02  0.23256E+05
 0.94303001E+02  0.23232E+05
 0.94352997E+02  0.23116E+05
 0.94403000E+02  0.22954E+05
 0.94453003E+02  0.22845E+05
 0.94502998E+02  0.22840E+05
 0.94553001E+02  0.22916E+05
 0.94602997E+02  0.23036E+05
 0.94653000E+02  0.23160E+05
 0.94703003E+02  0.23259E+05
 0.94752998E+02  0.23322E+05
 0.94803001E+02  0.23415E+05
 0.94852997E+02  0.23623E+05
 0.94903000E+02  0.23949E+05
 0.94953003E+02  0.24309E+05
 0.95002998E+02  0.24581E+05
 0.95053001E+02  0.24714E+05
 0.95102997E+02  0.24683E+05
 0.95153000E+02  0.24433E+05
 0.95203003E+02  0.24026E+05
 0.95252998E+02  0.23612E+05
 0.95303001E+02  0.23326E+05
 0.95352997E+02  0.23189E+05
 0.95403000E+02  0.23114E+05
 0.95453003E+02  0.23056E+05
 0.95502998E+02  0.23031E+05
 0.95553001E+02  0.23147E+05
 0.95602997E+02  0.23435E+05
 0.95653000E+02  0.23823E+05
 0.95703003E+02  0.24211E+05
 0.95752998E+02  0.24479E+05
 0.95803001E+02  0.24613E+05
 0.95852997E+02  0.24679E+05
 0.95903000E+02  0.24736E+05
 0.95953003E+02  0.24808E+05
 0.96002998E+02  0.24854E+05
 0.96053001E+02  0.24848E+05
 0.96102997E+02  0.24874E+05
 0.96153000E+02  0.24966E+05
 0.96203003E+02  0.25088E+05
 0.96252998E+02  0.25236E+05
 0.96303001E+02  0.25438E+05
 0.96352997E+02  0.25694E+05
 0.96403000E+02  0.25843E+05
 0.96453003E+02  0.25715E+05
 0.96502998E+02  0.25326E+05
 0.96553001E+02  0.24839E+05
 0.96602997E+02  0.24468E+05
 0.96653000E+02  0.24255E+05
 0.96703003E+02  0.24115E+05
 0.96752998E+02  0.23875E+05
 0.96803001E+02  0.23423E+05
 0.96852997E+02  0.22906E+05
 0.96903000E+02  0.22431E+05
 0.96953003E+02  0.22101E+05
 0.97002998E+02  0.22015E+05
 0.97053001E+02  0.22122E+05
 0.97102997E+02  0.22315E+05
 0.97153000E+02  0.22414E+05
 0.97203003E+02  0.22293E+05
 0.97252998E+02  0.22002E+05
 0.97303001E+02  0.21619E+05
 0.97352997E+02  0.21176E+05
 0.97403000E+02  0.20689E+05
 0.97453003E+02  0.20234E+05
 0.97502998E+02  0.19943E+05
 0.97553001E+02  0.19905E+05
 0.97602997E+02  0.20134E+05
 0.97653000E+02  0.20544E+05
 0.97703003E+02  0.21010E+05
 0.97752998E+02  0.21508E+05
 0.97803001E+02  0.22030E+05
 0.97852997E+02  0.22384E+05
 0.97903000E+02  0.22387E+05
 0.97953003E+02  0.22259E+05
 0.98002998E+02  0.22263E+05
 0.98053001E+02  0.22268E+05
 0.98102997E+02  0.22080E+05
 0.98153000E+02  0.21771E+05
 0.98203003E+02  0.21547E+05
 0.98252998E+02  0.21423E+05
 0.98303001E+02  0.21355E+05
 0.98352997E+02  0.21432E+05
 0.98403000E+02  0.21675E+05
 0.98453003E+02  0.22047E+05
 0.98502998E+02  0.22499E+05
 0.98553001E+02  0.23212E+05
 0.98602997E+02  0.24404E+05
 0.98653000E+02  0.25903E+05
 0.98703003E+02  0.27286E+05
 0.98752998E+02  0.28056E+05
 0.98803001E+02  0.27916E+05
 0.98852997E+02  0.27102E+05
 0.98903000E+02  0.26195E+05
 0.98953003E+02  0.25618E+05
 0.99002998E+02  0.25412E+05
 0.99053001E+02  0.25469E+05
 0.99102997E+02  0.25788E+05
 0.99153000E+02  0.26188E+05
 0.99203003E+02  0.26333E+05
 0.99252998E+02  0.26117E+05
 0.99303001E+02  0.25773E+05
 0.99352997E+02  0.25502E+05
 0.99403000E+02  0.25155E+05
 0.99453003E+02  0.24550E+05
 0.99502998E+02  0.23935E+05
 0.99553001E+02  0.23750E+05
 0.99602997E+02  0.24023E+05
 0.99653000E+02  0.24340E+05
 0.99703003E+02  0.24437E+05
 0.99752998E+02  0.24483E+05
 0.99803001E+02  0.24695E+05
 0.99852997E+02  0.25009E+05
 0.99903000E+02  0.25139E+05
 0.99953003E+02  0.25069E+05
 0.10000300E+03  0.25081E+05
 0.10005300E+03  0.25256E+05
 0.10010300E+03  0.25378E+05
 0.10015300E+03  0.25239E+05
 0.10020300E+03  0.24945E+05
 0.10025300E+03  0.24639E+05
 0.10030300E+03  0.24219E+05
 0.10035300E+03  0.23598E+05
 0.10040300E+03  0.22925E+05
 0.10045300E+03  0.22488E+05
 0.10050300E+03  0.22415E+05
 0.10055300E+03  0.22556E+05
 0.10060300E+03  0.22634E+05
 0.10065300E+03  0.22344E+05
 0.10070300E+03  0.21516E+05
 0.10075300E+03  0.20330E+05
 0.10080300E+03  0.19148E+05
 0.10085300E+03  0.18265E+05
 0.10090300E+03  0.17869E+05
 0.10095300E+03  0.17988E+05
 0.10100300E+03  0.18455E+05
 0.10105300E+03  0.19049E+05
 0.10110300E+03  0.19641E+05
 0.10115300E+03  0.20159E+05
 0.10120300E+03  0.20577E+05
 0.10125300E+03  0.20944E+05
 0.10130300E+03  0.21350E+05
 0.10135300E+03  0.21824E+05
 0.10140300E+03  0.22346E+05
 0.10145300E+03  0.22872E+05
 0.10150300E+03  0.23309E+05
 0.10155300E+03  0.23607E+05
 0.10160300E+03  0.23716E+05
 0.10165300E+03  0.23633E+05
 0.10170300E+03  0.23475E+05
 0.10175300E+03  0.23389E+05
 0.10180300E+03  0.23421E+05
 0.10185300E+03  0.23611E+05
 0.10190300E+03  0.24036E+05
 0.10195300E+03  0.24612E+05
 0.10200300E+03  0.25028E+05
 0.10205300E+03  0.24995E+05
 0.10210300E+03  0.24515E+05
 0.10215300E+03  0.23924E+05
 0.10220300E+03  0.23686E+05
 0.10225300E+03  0.23947E+05
 0.10230300E+03  0.24598E+05
 0.10235300E+03  0.25447E+05
 0.10240300E+03  0.26163E+05
 0.10245300E+03  0.26481E+05
 0.10250300E+03  0.26387E+05
 0.10255300E+03  0.26216E+05
 0.10260300E+03  0.26411E+05
 0.10265300E+03  0.27032E+05
 0.10270300E+03  0.27759E+05
 0.10275300E+03  0.28217E+05
 0.10280300E+03  0.28142E+05
 0.10285300E+03  0.27440E+05
 0.10290300E+03  0.26292E+05
 0.10295300E+03  0.25085E+05
 0.10300300E+03  0.24214E+05
 0.10305300E+03  0.23786E+05
 0.10310300E+03  0.23457E+05
 0.10315300E+03  0.22799E+05
 0.10320300E+03  0.21756E+05
 0.10325300E+03  0.20651E+05
 0.10330300E+03  0.19947E+05
 0.10335300E+03  0.20008E+05
 0.10340300E+03  0.20614E+05
 0.10345300E+03  0.21065E+05
 0.10350300E+03  0.21017E+05
 0.10355300E+03  0.20673E+05
 0.10360300E+03  0.20536E+05
 0.10365300E+03  0.20989E+05
 0.10370300E+03  0.22021E+05
 0.10375300E+03  0.23290E+05
 0.10380300E+03  0.24404E+05
 0.10385300E+03  0.25244E+05
 0.10390300E+03  0.25863E+05
 0.10395300E+03  0.26297E+05
 0.10400300E+03  0.26441E+05
 0.10405300E+03  0.26157E+05
 0.10410300E+03  0.25238E+05
 0.10415300E+03  0.23499E+05
 0.10420300E+03  0.21202E+05
 0.10425300E+03  0.19006E+05
 0.10430300E+03  0.17687E+05
 0.10435300E+03  0.17619E+05
 0.10440300E+03  0.18624E+05
 0.10445300E+03  0.20217E+05
 0.10450300E+03  0.21957E+05
 0.10455300E+03  0.23610E+05
 0.10460300E+03  0.24827E+05
 0.10465300E+03  0.25395E+05
 0.10470300E+03  0.25494E+05
 0.10475300E+03  0.25404E+05
 0.10480300E+03  0.25377E+05
 0.10485300E+03  0.25468E+05
 0.10490300E+03  0.25471E+05
 0.10495300E+03  0.25300E+05
 0.10500300E+03  0.25084E+05
 0.10505300E+03  0.24958E+05
 0.10510300E+03  0.25057E+05
 0.10515300E+03  0.25334E+05
 0.10520300E+03  0.25596E+05
 0.10525300E+03  0.25739E+05
 0.10530300E+03  0.25738E+05
 0.10535300E+03  0.25621E+05
 0.10540300E+03  0.25326E+05
 0.10545300E+03  0.24690E+05
 0.10550300E+03  0.23625E+05
 0.10555300E+03  0.22212E+05
 0.10560300E+03  0.20779E+05
 0.10565300E+03  0.19796E+05
 0.10570300E+03  0.19679E+05
 0.10575300E+03  0.20474E+05
 0.10580300E+03  0.21881E+05
 0.10585300E+03  0.23599E+05
 0.10590300E+03  0.25308E+05
 0.10595300E+03  0.26586E+05
 0.10600300E+03  0.27105E+05
 0.10605300E+03  0.26973E+05
 0.10610300E+03  0.26636E+05
 0.10615300E+03  0.26442E+05
 0.10620300E+03  0.26364E+05
 0.10625300E+03  0.26150E+05
 0.10630300E+03  0.25745E+05
 0.10635300E+03  0.25227E+05
 0.10640300E+03  0.24677E+05
 0.10645300E+03  0.24093E+05
 0.10650300E+03  0.23381E+05
 0.10655300E+03  0.22504E+05
 0.10660300E+03  0.21610E+05
 0.10665300E+03  0.21007E+05
 0.10670300E+03  0.20857E+05
 0.10675300E+03  0.21016E+05
 0.10680300E+03  0.21194E+05
 0.10685300E+03  0.21226E+05
 0.10690300E+03  0.21002E+05
 0.10695300E+03  0.20532E+05
 0.10700300E+03  0.20081E+05
 0.10705300E+03  0.20022E+05
 0.10710300E+03  0.20616E+05
 0.10715300E+03  0.21778E+05
 0.10720300E+03  0.23211E+05
 0.10725300E+03  0.24582E+05
 0.10730300E+03  0.25650E+05
 0.10735300E+03  0.26304E+05
 0.10740300E+03  0.26450E+05
 0.10745300E+03  0.26181E+05
 0.10750300E+03  0.25795E+05
 0.10755300E+03  0.25547E+05
 0.10760300E+03  0.25430E+05
 0.10765300E+03  0.25313E+05
 0.10770300E+03  0.25048E+05
 0.10775300E+03  0.24523E+05
 0.10780300E+03  0.23857E+05
 0.10785300E+03  0.23230E+05
 0.10790300E+03  0.22661E+05
 0.10795300E+03  0.22201E+05
 0.10800300E+03  0.21928E+05
 0.10805300E+03  0.21721E+05
 0.10810300E+03  0.21359E+05
 0.10815300E+03  0.20756E+05
 0.10820300E+03  0.20152E+05
 0.10825300E+03  0.19898E+05
 0.10830300E+03  0.20090E+05
 0.10835300E+03  0.20700E+05
 0.10840300E+03  0.21770E+05
 0.10845300E+03  0.23282E+05
 0.10850300E+03  0.24916E+05
 0.10855300E+03  0.26300E+05
 0.10860300E+03  0.27305E+05
 0.10865300E+03  0.27827E+05
 0.10870300E+03  0.27752E+05
 0.10875300E+03  0.27120E+05
 0.10880300E+03  0.26231E+05
 0.10885300E+03  0.25383E+05
 0.10890300E+03  0.24643E+05
 0.10895300E+03  0.23932E+05
 0.10900300E+03  0.23085E+05
 0.10905300E+03  0.21960E+05
 0.10910300E+03  0.20512E+05
 0.10915300E+03  0.19032E+05
 0.10920300E+03  0.18086E+05
 0.10925300E+03  0.18082E+05
 0.10930300E+03  0.19066E+05
 0.10935300E+03  0.20717E+05
 0.10940300E+03  0.22728E+05
 0.10945300E+03  0.24813E+05
 0.10950300E+03  0.26433E+05
 0.10955300E+03  0.27185E+05
 0.10960300E+03  0.26995E+05
 0.10965300E+03  0.26032E+05
 0.10970300E+03  0.24534E+05
 0.10975300E+03  0.22786E+05
 0.10980300E+03  0.21229E+05
 0.10985300E+03  0.20251E+05
 0.10990300E+03  0.20031E+05
 0.10995300E+03  0.20394E+05
 0.11000300E+03  0.21033E+05
 0.11005300E+03  0.21808E+05
 0.11010300E+03  0.22550E+05
 0.11015300E+03  0.23151E+05
 0.11020300E+03  0.23633E+05
 0.11025300E+03  0.24031E+05
 0.11030300E+03  0.24383E+05
 0.11035300E+03  0.24841E+05
 0.11040300E+03  0.25570E+05
 0.11045300E+03  0.26499E+05
 0.11050300E+03  0.27325E+05
 0.11055300E+03  0.27736E+05
 0.11060300E+03  0.27491E+05
 0.11065300E+03  0.26492E+05
 0.11070300E+03  0.24987E+05
 0.11075300E+03  0.23551E+05
 0.11080300E+03  0.22774E+05
 0.11085300E+03  0.22709E+05
 0.11090300E+03  0.22847E+05
 0.11095300E+03  0.22795E+05
 0.11100300E+03  0.22576E+05
 0.11105300E+03  0.22211E+05
 0.11110300E+03  0.21542E+05
 0.11115300E+03  0.20586E+05
 0.11120300E+03  0.19621E+05
 0.11125300E+03  0.19015E+05
 0.11130300E+03  0.19011E+05
 0.11135300E+03  0.19753E+05
 0.11140300E+03  0.21249E+05
 0.11145300E+03  0.23107E+05
 0.11150300E+03  0.24819E+05
 0.11155300E+03  0.26105E+05
 0.11160300E+03  0.27067E+05
 0.11165300E+03  0.28004E+05
 0.11170300E+03  0.28871E+05
 0.11175300E+03  0.29316E+05
 0.11180300E+03  0.29212E+05
 0.11185300E+03  0.28589E+05
 0.11190300E+03  0.27518E+05
 0.11195300E+03  0.26178E+05
 0.11200300E+03  0.24732E+05
 0.11205300E+03  0.23310E+05
 0.11210300E+03  0.21902E+05
 0.11215300E+03  0.20538E+05
 0.11220300E+03  0.19386E+05
 0.11225300E+03  0.18562E+05
 0.11230300E+03  0.18104E+05
 0.11235300E+03  0.17992E+05
 0.11240300E+03  0.18228E+05
 0.11245300E+03  0.18815E+05
 0.11250300E+03  0.19590E+05
 0.11255300E+03  0.20271E+05
 0.11260300E+03  0.20791E+05
 0.11265300E+03  0.21306E+05
 0.11270300E+03  0.21903E+05
 0.11275300E+03  0.22608E+05
 0.11280300E+03  0.23267E+05
 0.11285300E+03  0.23596E+05
 0.11290300E+03  0.23522E+05
 0.11295300E+03  0.23190E+05
 0.11300300E+03  0.22892E+05
 0.11305300E+03  0.22815E+05
 0.11310300E+03  0.22912E+05
 0.11315300E+03  0.23090E+05
 0.11320300E+03  0.23349E+05
 0.11325300E+03  0.23838E+05
 0.11330300E+03  0.24467E+05
 0.11335300E+03  0.24881E+05
 0.11340300E+03  0.24837E+05
 0.11345300E+03  0.24217E+05
 0.11350300E+03  0.23269E+05
 0.11355300E+03  0.22581E+05
 0.11360300E+03  0.22683E+05
 0.11365300E+03  0.23745E+05
 0.11370300E+03  0.25349E+05
 0.11375300E+03  0.26953E+05
 0.11380300E+03  0.28216E+05
 0.11385300E+03  0.28876E+05
 0.11390300E+03  0.28948E+05
 0.11395300E+03  0.28757E+05
 0.11400300E+03  0.28574E+05
 0.11405300E+03  0.28409E+05
 0.11410300E+03  0.28219E+05
 0.11415300E+03  0.27970E+05
 0.11420300E+03  0.27487E+05
 0.11425300E+03  0.26614E+05
 0.11430300E+03  0.25417E+05
 0.11435300E+03  0.24110E+05
 0.11440300E+03  0.22870E+05
 0.11445300E+03  0.21783E+05
 0.11450300E+03  0.20987E+05
 0.11455300E+03  0.20701E+05
 0.11460300E+03  0.21125E+05
 0.11465300E+03  0.22215E+05
 0.11470300E+03  0.23609E+05
 0.11475300E+03  0.24861E+05
 0.11480300E+03  0.25467E+05
 0.11485300E+03  0.25079E+05
 0.11490300E+03  0.23807E+05
 0.11495300E+03  0.22036E+05
 0.11500300E+03  0.20160E+05
 0.11505300E+03  0.18476E+05
 0.11510300E+03  0.17227E+05
 0.11515300E+03  0.16526E+05
 0.11520300E+03  0.16252E+05
 0.11525300E+03  0.16163E+05
 0.11530300E+03  0.16160E+05
 0.11535300E+03  0.16426E+05
 0.11540300E+03  0.17173E+05
 0.11545300E+03  0.18407E+05
 0.11550300E+03  0.20001E+05
 0.11555300E+03  0.21840E+05
 0.11560300E+03  0.23803E+05
 0.11565300E+03  0.25679E+05
 0.11570300E+03  0.27187E+05
 0.11575300E+03  0.28060E+05
 0.11580300E+03  0.28126E+05
 0.11585300E+03  0.27582E+05
 0.11590300E+03  0.26828E+05
 0.11595300E+03  0.26032E+05
 0.11600300E+03  0.25291E+05
 0.11605300E+03  0.24751E+05
 0.11610300E+03  0.24610E+05
 0.11615300E+03  0.24979E+05
 0.11620300E+03  0.25519E+05
 0.11625300E+03  0.25744E+05
 0.11630300E+03  0.25526E+05
 0.11635300E+03  0.25048E+05
 0.11640300E+03  0.24444E+05
 0.11645300E+03  0.23579E+05
 0.11650300E+03  0.22585E+05
 0.11655300E+03  0.21913E+05
 0.11660300E+03  0.21984E+05
 0.11665300E+03  0.23036E+05
 0.11670300E+03  0.24683E+05
 0.11675300E+03  0.26220E+05
 0.11680300E+03  0.27203E+05
 0.11685300E+03  0.27473E+05
 0.11690300E+03  0.27375E+05
 0.11695300E+03  0.27412E+05
 0.11700300E+03  0.27609E+05
 0.11705300E+03  0.27758E+05
 0.11710300E+03  0.27678E+05
 0.11715300E+03  0.27284E+05
 0.11720300E+03  0.26634E+05
 0.11725300E+03  0.25771E+05
 0.11730300E+03  0.24724E+05
 0.11735300E+03  0.23645E+05
 0.11740300E+03  0.22745E+05
 0.11745300E+03  0.22092E+05
 0.11750300E+03  0.21634E+05
 0.11755300E+03  0.21496E+05
 0.11760300E+03  0.21895E+05
 0.11765300E+03  0.22708E+05
 0.11770300E+03  0.23568E+05
 0.11775300E+03  0.24083E+05
 0.11780300E+03  0.23938E+05
 0.11785300E+03  0.23146E+05
 0.11790300E+03  0.21927E+05
 0.11795300E+03  0.20606E+05
 0.11800300E+03  0.19587E+05
 0.11805300E+03  0.19087E+05
 0.11810300E+03  0.19152E+05
 0.11815300E+03  0.19774E+05
 0.11820300E+03  0.20972E+05
 0.11825300E+03  0.22761E+05
 0.11830300E+03  0.24763E+05
 0.11835300E+03  0.26272E+05
 0.11840300E+03  0.26731E+05
 0.11845300E+03  0.26024E+05
 0.11850300E+03  0.24504E+05
 0.11855300E+03  0.22666E+05
 0.11860300E+03  0.21029E+05
 0.11865300E+03  0.20004E+05
 0.11870300E+03  0.19732E+05
 0.11875300E+03  0.20029E+05
 0.11880300E+03  0.20530E+05
 0.11885300E+03  0.20996E+05
 0.11890300E+03  0.21229E+05
 0.11895300E+03  0.21043E+05
 0.11900300E+03  0.20338E+05
 0.11905300E+03  0.19267E+05
 0.11910300E+03  0.18408E+05
 0.11915300E+03  0.18261E+05
 0.11920300E+03  0.18966E+05
 0.11925300E+03  0.20507E+05
 0.11930300E+03  0.22710E+05
 0.11935300E+03  0.25109E+05
 0.11940300E+03  0.27133E+05
 0.11945300E+03  0.28513E+05
 0.11950300E+03  0.29079E+05
 0.11955300E+03  0.28716E+05
 0.11960300E+03  0.27664E+05
 0.11965300E+03  0.26270E+05
 0.11970300E+03  0.24659E+05
 0.11975300E+03  0.22737E+05
 0.11980300E+03  0.20625E+05
 0.11985300E+03  0.18757E+05
 0.11990300E+03  0.17729E+05
 0.11995300E+03  0.17889E+05
 0.12000300E+03  0.19051E+05
 0.12005300E+03  0.20901E+05
 0.12010300E+03  0.23064E+05
 0.12015300E+03  0.25162E+05
 0.12020300E+03  0.27121E+05
 0.12025300E+03  0.29085E+05
 0.12030300E+03  0.30966E+05
 0.12035300E+03  0.32421E+05
 0.12040300E+03  0.33012E+05
 0.12045300E+03  0.32433E+05
 0.12050300E+03  0.30740E+05
 0.12055300E+03  0.28329E+05
 0.12060300E+03  0.25831E+05
 0.12065300E+03  0.23797E+05
 0.12070300E+03  0.22416E+05
 0.12075300E+03  0.21633E+05
 0.12080300E+03  0.21386E+05
 0.12085300E+03  0.21567E+05
 0.12090300E+03  0.21939E+05
 0.12095300E+03  0.22290E+05
 0.12100300E+03  0.22597E+05
 0.12105300E+03  0.22932E+05
 0.12110300E+03  0.23389E+05
 0.12115300E+03  0.23848E+05
 0.12120300E+03  0.23948E+05
 0.12125300E+03  0.23451E+05
 0.12130300E+03  0.22316E+05
 0.12135300E+03  0.20696E+05
 0.12140300E+03  0.18908E+05
 0.12145300E+03  0.17346E+05
 0.12150300E+03  0.16391E+05
 0.12155300E+03  0.16154E+05
 0.12160300E+03  0.16568E+05
 0.12165300E+03  0.17586E+05
 0.12170300E+03  0.19076E+05
 0.12175300E+03  0.20813E+05
 0.12180300E+03  0.22625E+05
 0.12185300E+03  0.24380E+05
 0.12190300E+03  0.25844E+05
 0.12195300E+03  0.26648E+05
 0.12200300E+03  0.26638E+05
 0.12205300E+03  0.26065E+05
 0.12210300E+03  0.25292E+05
 0.12215300E+03  0.24622E+05
 0.12220300E+03  0.24361E+05
 0.12225300E+03  0.24733E+05
 0.12230300E+03  0.25700E+05
 0.12235300E+03  0.26968E+05
 0.12240300E+03  0.28093E+05
 0.12245300E+03  0.28772E+05
 0.12250300E+03  0.28920E+05
 0.12255300E+03  0.28517E+05
 0.12260300E+03  0.27560E+05
 0.12265300E+03  0.26222E+05
 0.12270300E+03  0.24830E+05
 0.12275300E+03  0.23618E+05
 0.12280300E+03  0.22702E+05
 0.12285300E+03  0.22060E+05
 0.12290300E+03  0.21630E+05
 0.12295300E+03  0.21402E+05
 0.12300300E+03  0.21281E+05
 0.12305300E+03  0.21133E+05
 0.12310300E+03  0.21059E+05
 0.12315300E+03  0.21303E+05
 0.12320300E+03  0.22002E+05
 0.12325300E+03  0.23140E+05
 0.12330300E+03  0.24497E+05
 0.12335300E+03  0.25658E+05
 0.12340300E+03  0.26112E+05
 0.12345300E+03  0.25516E+05
 0.12350300E+03  0.23903E+05
 0.12355300E+03  0.21618E+05
 0.12360300E+03  0.19340E+05
 0.12365300E+03  0.17897E+05
 0.12370300E+03  0.17628E+05
 0.12375300E+03  0.18233E+05
 0.12380300E+03  0.19267E+05
 0.12385300E+03  0.20396E+05
 0.12390300E+03  0.21423E+05
 0.12395300E+03  0.22328E+05
 0.12400300E+03  0.23197E+05
 0.12405300E+03  0.23978E+05
 0.12410300E+03  0.24495E+05
 0.12415300E+03  0.24771E+05
 0.12420300E+03  0.25135E+05
 0.12425300E+03  0.25868E+05
 0.12430300E+03  0.26806E+05
 0.12435300E+03  0.27715E+05
 0.12440300E+03  0.28630E+05
 0.12445300E+03  0.29695E+05
 0.12450300E+03  0.30752E+05
 0.12455300E+03  0.31188E+05
 0.12460300E+03  0.30516E+05
 0.12465300E+03  0.28839E+05
 0.12470300E+03  0.26572E+05
 0.12475300E+03  0.24149E+05
 0.12480300E+03  0.22039E+05
 0.12485300E+03  0.20568E+05
 0.12490300E+03  0.19781E+05
 0.12495300E+03  0.19413E+05
 0.12500300E+03  0.19099E+05
 0.12505299E+03  0.18700E+05
 0.12510300E+03  0.18305E+05
 0.12515300E+03  0.18152E+05
 0.12520300E+03  0.18355E+05
 0.12525299E+03  0.18921E+05
 0.12530299E+03  0.19877E+05
 0.12535300E+03  0.21027E+05
 0.12540300E+03  0.22130E+05
 0.12545300E+03  0.23042E+05
 0.12550299E+03  0.23617E+05
 0.12555299E+03  0.23825E+05
 0.12560300E+03  0.23871E+05
 0.12565300E+03  0.23928E+05
 0.12570300E+03  0.23936E+05
 0.12575299E+03  0.24004E+05
 0.12580299E+03  0.24337E+05
 0.12585300E+03  0.24936E+05
 0.12590300E+03  0.25546E+05
 0.12595300E+03  0.25917E+05
 0.12600299E+03  0.26002E+05
 0.12605299E+03  0.25888E+05
 0.12610300E+03  0.25724E+05
 0.12615300E+03  0.25613E+05
 0.12620300E+03  0.25681E+05
 0.12625299E+03  0.25938E+05
 0.12630299E+03  0.26168E+05
 0.12635300E+03  0.26187E+05
 0.12640300E+03  0.26045E+05
 0.12645300E+03  0.25841E+05
 0.12650299E+03  0.25611E+05
 0.12655299E+03  0.25287E+05
 0.12660300E+03  0.24650E+05
 0.12665300E+03  0.23641E+05
 0.12670300E+03  0.22465E+05
 0.12675299E+03  0.21522E+05
 0.12680299E+03  0.21252E+05
 0.12685300E+03  0.21721E+05
 0.12690300E+03  0.22571E+05
 0.12695300E+03  0.23392E+05
 0.12700299E+03  0.23964E+05
 0.12705299E+03  0.24154E+05
 0.12710300E+03  0.23872E+05
 0.12715300E+03  0.23321E+05
 0.12720300E+03  0.22764E+05
 0.12725299E+03  0.22194E+05
 0.12730299E+03  0.21634E+05
 0.12735300E+03  0.21218E+05
 0.12740300E+03  0.21097E+05
 0.12745300E+03  0.21277E+05
 0.12750299E+03  0.21573E+05
 0.12755299E+03  0.21891E+05
 0.12760300E+03  0.22312E+05
 0.12765300E+03  0.22917E+05
 0.12770300E+03  0.23674E+05
 0.12775299E+03  0.24518E+05
 0.12780299E+03  0.25277E+05
 0.12785300E+03  0.25642E+05
 0.12790300E+03  0.25433E+05
 0.12795300E+03  0.24680E+05
 0.12800299E+03  0.23554E+05
 0.12805299E+03  0.22401E+05
 0.12810300E+03  0.21593E+05
 0.12815300E+03  0.21184E+05
 0.12820300E+03  0.20945E+05
 0.12825299E+03  0.20814E+05
 0.12830299E+03  0.20869E+05
 0.12835300E+03  0.21107E+05
 0.12840300E+03  0.21501E+05
 0.12845300E+03  0.21901E+05
 0.12850299E+03  0.22148E+05
 0.12855299E+03  0.22267E+05
 0.12860300E+03  0.22286E+05
 0.12865300E+03  0.22305E+05
 0.12870300E+03  0.22445E+05
 0.12875299E+03  0.22570E+05
 0.12880299E+03  0.22577E+05
 0.12885300E+03  0.22623E+05
 0.12890300E+03  0.22906E+05
 0.12895300E+03  0.23427E+05
 0.12900299E+03  0.23945E+05
 0.12905299E+03  0.24283E+05
 0.12910300E+03  0.24478E+05
 0.12915300E+03  0.24677E+05
 0.12920300E+03  0.25049E+05
 0.12925299E+03  0.25553E+05
 0.12930299E+03  0.25993E+05
 0.12935300E+03  0.26306E+05
 0.12940300E+03  0.26584E+05
 0.12945300E+03  0.26965E+05
 0.12950299E+03  0.27569E+05
 0.12955299E+03  0.28283E+05
 0.12960300E+03  0.28790E+05
 0.12965300E+03  0.28747E+05
 0.12970300E+03  0.28039E+05
 0.12975299E+03  0.26911E+05
 0.12980299E+03  0.25643E+05
 0.12985300E+03  0.24519E+05
 0.12990300E+03  0.23618E+05
 0.12995300E+03  0.22823E+05
 0.13000299E+03  0.22058E+05
 0.13005299E+03  0.21351E+05
 0.13010300E+03  0.20932E+05
 0.13015300E+03  0.20889E+05
 0.13020300E+03  0.21058E+05
 0.13025299E+03  0.21380E+05
 0.13030299E+03  0.21901E+05
 0.13035300E+03  0.22442E+05
 0.13040300E+03  0.22845E+05
 0.13045300E+03  0.23079E+05
 0.13050299E+03  0.23193E+05
 0.13055299E+03  0.23255E+05
 0.13060300E+03  0.23097E+05
 0.13065300E+03  0.22688E+05
 0.13070300E+03  0.22254E+05
 0.13075299E+03  0.21958E+05
 0.13080299E+03  0.21779E+05
 0.13085300E+03  0.21617E+05
 0.13090300E+03  0.21490E+05
 0.13095300E+03  0.21598E+05
 0.13100299E+03  0.21939E+05
 0.13105299E+03  0.22229E+05
 0.13110300E+03  0.22365E+05
 0.13115300E+03  0.22450E+05
 0.13120300E+03  0.22663E+05
 0.13125299E+03  0.22938E+05
 0.13130299E+03  0.23074E+05
 0.13135300E+03  0.23201E+05
 0.13140300E+03  0.23537E+05
 0.13145300E+03  0.24104E+05
 0.13150299E+03  0.24641E+05
 0.13155299E+03  0.24859E+05
 0.13160300E+03  0.24782E+05
 0.13165300E+03  0.24531E+05
 0.13170300E+03  0.24217E+05
 0.13175299E+03  0.23954E+05
 0.13180299E+03  0.23863E+05
 0.13185300E+03  0.23960E+05
 0.13190300E+03  0.24046E+05
 0.13195300E+03  0.23971E+05
 0.13200299E+03  0.23758E+05
 0.13205299E+03  0.23714E+05
 0.13210300E+03  0.24126E+05
 0.13215300E+03  0.24922E+05
 0.13220300E+03  0.25899E+05
 0.13225299E+03  0.26818E+05
 0.13230299E+03  0.27398E+05
 0.13235300E+03  0.27394E+05
 0.13240300E+03  0.26759E+05
 0.13245300E+03  0.25721E+05
 0.13250299E+03  0.24502E+05
 0.13255299E+03  0.23185E+05
 0.13260300E+03  0.21932E+05
 0.13265300E+03  0.20993E+05
 0.13270300E+03  0.20630E+05
 0.13275299E+03  0.20951E+05
 0.13280299E+03  0.21747E+05
 0.13285300E+03  0.22653E+05
 0.13290300E+03  0.23419E+05
 0.13295300E+03  0.24045E+05
 0.13300299E+03  0.24539E+05
 0.13305299E+03  0.24784E+05
 0.13310300E+03  0.24665E+05
 0.13315300E+03  0.24271E+05
 0.13320300E+03  0.23728E+05
 0.13325299E+03  0.22973E+05
 0.13330299E+03  0.21933E+05
 0.13335300E+03  0.20776E+05
 0.13340300E+03  0.19721E+05
 0.13345300E+03  0.18767E+05
 0.13350299E+03  0.17944E+05
 0.13355299E+03  0.17368E+05
 0.13360300E+03  0.17174E+05
 0.13365300E+03  0.17453E+05
 0.13370300E+03  0.18247E+05
 0.13375299E+03  0.19671E+05
 0.13380299E+03  0.21626E+05
 0.13385300E+03  0.23728E+05
 0.13390300E+03  0.25596E+05
 0.13395300E+03  0.27000E+05
 0.13400299E+03  0.27841E+05
 0.13405299E+03  0.28051E+05
 0.13410300E+03  0.27715E+05
 0.13415300E+03  0.27052E+05
 0.13420300E+03  0.26277E+05
 0.13425299E+03  0.25639E+05
 0.13430299E+03  0.25258E+05
 0.13435300E+03  0.25015E+05
 0.13440300E+03  0.24713E+05
 0.13445300E+03  0.24165E+05
 0.13450299E+03  0.23408E+05
 0.13455299E+03  0.22688E+05
 0.13460300E+03  0.22021E+05
 0.13465300E+03  0.21282E+05
 0.13470300E+03  0.20559E+05
 0.13475299E+03  0.20047E+05
 0.13480299E+03  0.19781E+05
 0.13485300E+03  0.19747E+05
 0.13490300E+03  0.19976E+05
 0.13495300E+03  0.20494E+05
 0.13500299E+03  0.21258E+05
 0.13505299E+03  0.22183E+05
 0.13510300E+03  0.23292E+05
 0.13515300E+03  0.24585E+05
 0.13520300E+03  0.25972E+05
 0.13525299E+03  0.27317E+05
 0.13530299E+03  0.28478E+05
 0.13535300E+03  0.29287E+05
 0.13540300E+03  0.29632E+05
 0.13545300E+03  0.29560E+05
 0.13550299E+03  0.29177E+05
 0.13555299E+03  0.28568E+05
 0.13560300E+03  0.27817E+05
 0.13565300E+03  0.27066E+05
 0.13570300E+03  0.26324E+05
 0.13575299E+03  0.25399E+05
 0.13580299E+03  0.24254E+05
 0.13585300E+03  0.23070E+05
 0.13590300E+03  0.22088E+05
 0.13595300E+03  0.21376E+05
 0.13600299E+03  0.20887E+05
 0.13605299E+03  0.20756E+05
 0.13610300E+03  0.20955E+05
 0.13615300E+03  0.21139E+05
 0.13620300E+03  0.21027E+05
 0.13625299E+03  0.20545E+05
 0.13630299E+03  0.19780E+05
 0.13635300E+03  0.18975E+05
 0.13640300E+03  0.18300E+05
 0.13645300E+03  0.17798E+05
 0.13650299E+03  0.17601E+05
 0.13655299E+03  0.17759E+05
 0.13660300E+03  0.18149E+05
 0.13665300E+03  0.18590E+05
 0.13670300E+03  0.18939E+05
 0.13675299E+03  0.19140E+05
 0.13680299E+03  0.19175E+05
 0.13685300E+03  0.19130E+05
 0.13690300E+03  0.19238E+05
 0.13695300E+03  0.19752E+05
 0.13700299E+03  0.20898E+05
 0.13705299E+03  0.22710E+05
 0.13710300E+03  0.24939E+05
 0.13715300E+03  0.27040E+05
 0.13720300E+03  0.28346E+05
 0.13725299E+03  0.28537E+05
 0.13730299E+03  0.27822E+05
 0.13735300E+03  0.26661E+05
 0.13740300E+03  0.25444E+05
 0.13745300E+03  0.24369E+05
 0.13750299E+03  0.23520E+05
 0.13755299E+03  0.22988E+05
 0.13760300E+03  0.22773E+05
 0.13765300E+03  0.22817E+05
 0.13770300E+03  0.23117E+05
 0.13775299E+03  0.23723E+05
 0.13780299E+03  0.24499E+05
 0.13785300E+03  0.25118E+05
 0.13790300E+03  0.25471E+05
 0.13795300E+03  0.25739E+05
 0.13800299E+03  0.26116E+05
 0.13805299E+03  0.26678E+05
 0.13810300E+03  0.27375E+05
 0.13815300E+03  0.27980E+05
 0.13820300E+03  0.28191E+05
 0.13825299E+03  0.27799E+05
 0.13830299E+03  0.26858E+05
 0.13835300E+03  0.25616E+05
 0.13840300E+03  0.24259E+05
 0.13845300E+03  0.22874E+05
 0.13850299E+03  0.21597E+05
 0.13855299E+03  0.20617E+05
 0.13860300E+03  0.20059E+05
 0.13865300E+03  0.19870E+05
 0.13870300E+03  0.19874E+05
 0.13875299E+03  0.19963E+05
 0.13880299E+03  0.20020E+05
 0.13885300E+03  0.19967E+05
 0.13890300E+03  0.19870E+05
 0.13895300E+03  0.19869E+05
 0.13900299E+03  0.20137E+05
 0.13905299E+03  0.20672E+05
 0.13910300E+03  0.21284E+05
 0.13915300E+03  0.21870E+05
 0.13920300E+03  0.22449E+05
 0.13925299E+03  0.23052E+05
 0.13930299E+03  0.23587E+05
 0.13935300E+03  0.23783E+05
 0.13940300E+03  0.23526E+05
 0.13945300E+03  0.23080E+05
 0.13950299E+03  0.22749E+05
 0.13955299E+03  0.22622E+05
 0.13960300E+03  0.22653E+05
 0.13965300E+03  0.22752E+05
 0.13970300E+03  0.22881E+05
 0.13975299E+03  0.23020E+05
 0.13980299E+03  0.23184E+05
 0.13985300E+03  0.23325E+05
 0.13990300E+03  0.23298E+05
 0.13995300E+03  0.23094E+05
 0.14000299E+03  0.22773E+05
 0.14005299E+03  0.22426E+05
 0.14010300E+03  0.22120E+05
 0.14015300E+03  0.21934E+05
 0.14020300E+03  0.22065E+05
 0.14025299E+03  0.22531E+05
 0.14030299E+03  0.23227E+05
 0.14035300E+03  0.23987E+05
 0.14040300E+03  0.24628E+05
 0.14045300E+03  0.25084E+05
 0.14050299E+03  0.25298E+05
 0.14055299E+03  0.25272E+05
 0.14060300E+03  0.25045E+05
 0.14065300E+03  0.24582E+05
 0.14070300E+03  0.23762E+05
 0.14075299E+03  0.22667E+05
 0.14080299E+03  0.21534E+05
 0.14085300E+03  0.20467E+05
 0.14090300E+03  0.19585E+05
 0.14095300E+03  0.19038E+05
 0.14100299E+03  0.18860E+05
 0.14105299E+03  0.18945E+05
 0.14110300E+03  0.19194E+05
 0.14115300E+03  0.19574E+05
 0.14120300E+03  0.19970E+05
 0.14125299E+03  0.20258E+05
 0.14130299E+03  0.20506E+05
 0.14135300E+03  0.20882E+05
 0.14140300E+03  0.21546E+05
 0.14145300E+03  0.22486E+05
 0.14150299E+03  0.23580E+05
 0.14155299E+03  0.24772E+05
 0.14160300E+03  0.25878E+05
 0.14165300E+03  0.26625E+05
 0.14170300E+03  0.26919E+05
 0.14175299E+03  0.26819E+05
 0.14180299E+03  0.26363E+05
 0.14185300E+03  0.25598E+05
 0.14190300E+03  0.24684E+05
 0.14195300E+03  0.23888E+05
 0.14200299E+03  0.23399E+05
 0.14205299E+03  0.23197E+05
 0.14210300E+03  0.23134E+05
 0.14215300E+03  0.23085E+05
 0.14220300E+03  0.23082E+05
 0.14225299E+03  0.23145E+05
 0.14230299E+03  0.23230E+05
 0.14235300E+03  0.23340E+05
 0.14240300E+03  0.23418E+05
 0.14245300E+03  0.23351E+05
 0.14250299E+03  0.23050E+05
 0.14255299E+03  0.22524E+05
 0.14260300E+03  0.21852E+05
 0.14265300E+03  0.21279E+05
 0.14270300E+03  0.21175E+05
 0.14275299E+03  0.21682E+05
 0.14280299E+03  0.22639E+05
 0.14285300E+03  0.23601E+05
 0.14290300E+03  0.24141E+05
 0.14295300E+03  0.24201E+05
 0.14300299E+03  0.23937E+05
 0.14305299E+03  0.23544E+05
 0.14310300E+03  0.23179E+05
 0.14315300E+03  0.22988E+05
 0.14320300E+03  0.22992E+05
 0.14325299E+03  0.23040E+05
 0.14330299E+03  0.22967E+05
 0.14335300E+03  0.22683E+05
 0.14340300E+03  0.22201E+05
 0.14345300E+03  0.21598E+05
 0.14350299E+03  0.20977E+05
 0.14355299E+03  0.20448E+05
 0.14360300E+03  0.20095E+05
 0.14365300E+03  0.19916E+05
 0.14370300E+03  0.19850E+05
 0.14375299E+03  0.19882E+05
 0.14380299E+03  0.20040E+05
 0.14385300E+03  0.20390E+05
 0.14390300E+03  0.20948E+05
 0.14395300E+03  0.21753E+05
 0.14400299E+03  0.22828E+05
 0.14405299E+03  0.24022E+05
 0.14410300E+03  0.25022E+05
 0.14415300E+03  0.25539E+05
 0.14420300E+03  0.25487E+05
 0.14425299E+03  0.24933E+05
 0.14430299E+03  0.23977E+05
 0.14435300E+03  0.22636E+05
 0.14440300E+03  0.21065E+05
 0.14445300E+03  0.19563E+05
 0.14450299E+03  0.18285E+05
 0.14455299E+03  0.17188E+05
 0.14460300E+03  0.16057E+05
 0.14465300E+03  0.14745E+05
 0.14470300E+03  0.13197E+05
 0.14475299E+03  0.11441E+05
 0.14480299E+03  0.97040E+04
 0.14485300E+03  0.81780E+04
 0.14490300E+03  0.69790E+04
 0.14495300E+03  0.63330E+04
 0.14500299E+03  0.63900E+04
 0.14505299E+03  0.70440E+04
 0.14510300E+03  0.79690E+04
 0.14515300E+03  0.87250E+04
 0.14520300E+03  0.90150E+04
 0.14525299E+03  0.87330E+04
 0.14530299E+03  0.79000E+04
 0.14535300E+03  0.67390E+04
 0.14540300E+03  0.55610E+04
 0.14545300E+03  0.46090E+04
 0.14550299E+03  0.40220E+04
 0.14555299E+03  0.38810E+04
 0.14560300E+03  0.42940E+04
 0.14565300E+03  0.52880E+04
 0.14570300E+03  0.66930E+04
 0.14575299E+03  0.83010E+04
 0.14580299E+03  0.98110E+04
 0.14585300E+03  0.10980E+05
 0.14590300E+03  0.11946E+05
 0.14595300E+03  0.12995E+05
 0.14600299E+03  0.14307E+05
 0.14605299E+03  0.15839E+05
 0.14610300E+03  0.17467E+05
 0.14615300E+03  0.19099E+05
 0.14620300E+03  0.20677E+05
 0.14625299E+03  0.22068E+05
 0.14630299E+03  0.23146E+05
 0.14635300E+03  0.23967E+05
 0.14640300E+03  0.24769E+05
 0.14645300E+03  0.25858E+05
 0.14650299E+03  0.27476E+05
 0.14655299E+03  0.29746E+05
 0.14660300E+03  0.32563E+05
 0.14665300E+03  0.35694E+05
 0.14670300E+03  0.38851E+05
 0.14675299E+03  0.41800E+05
 0.14680299E+03  0.44445E+05
 0.14685300E+03  0.46655E+05
 0.14690300E+03  0.48330E+05
 0.14695300E+03  0.49469E+05
 0.14700299E+03  0.50123E+05
 0.14705299E+03  0.50273E+05
 0.14710300E+03  0.49911E+05
 0.14715300E+03  0.49119E+05
 0.14720300E+03  0.48010E+05
 0.14725299E+03  0.46805E+05
 0.14730299E+03  0.45625E+05
 0.14735300E+03  0.44443E+05
 0.14740300E+03  0.43312E+05
 0.14745300E+03  0.42446E+05
 0.14750299E+03  0.42091E+05
 0.14755299E+03  0.42342E+05
 0.14760300E+03  0.43071E+05
 0.14765300E+03  0.44002E+05
 0.14770300E+03  0.44825E+05
 0.14775299E+03  0.45212E+05
 0.14780299E+03  0.45059E+05
 0.14785300E+03  0.44542E+05
 0.14790300E+03  0.43985E+05
 0.14795300E+03  0.43812E+05
 0.14800299E+03  0.44351E+05
 0.14805299E+03  0.45827E+05
 0.14810300E+03  0.48171E+05
 0.14815300E+03  0.50960E+05
 0.14820300E+03  0.53661E+05
 0.14825299E+03  0.55915E+05
 0.14830299E+03  0.57675E+05
 0.14835300E+03  0.58993E+05
 0.14840300E+03  0.59842E+05
 0.14845300E+03  0.60082E+05
 0.14850299E+03  0.59595E+05
 0.14855299E+03  0.58456E+05
 0.14860300E+03  0.56825E+05
 0.14865300E+03  0.54756E+05
 0.14870300E+03  0.52360E+05
 0.14875299E+03  0.49793E+05
 0.14880299E+03  0.47169E+05
 0.14885300E+03  0.44598E+05
 0.14890300E+03  0.42219E+05
 0.14895300E+03  0.40228E+05
 0.14900299E+03  0.38816E+05
 0.14905299E+03  0.38012E+05
 0.14910300E+03  0.37801E+05
 0.14915300E+03  0.38224E+05
 0.14920300E+03  0.39127E+05
 0.14925299E+03  0.40322E+05
 0.14930299E+03  0.41613E+05
 0.14935300E+03  0.42665E+05
 0.14940300E+03  0.43075E+05
 0.14945300E+03  0.42372E+05
 0.14950299E+03  0.40292E+05
 0.14955299E+03  0.36908E+05
 0.14960300E+03  0.32530E+05
 0.14965300E+03  0.27583E+05
 0.14970300E+03  0.22360E+05
 0.14975299E+03  0.17041E+05
 0.14980299E+03  0.11577E+05
 0.14985300E+03  0.58700E+04
 0.14990300E+03 -0.83000E+02
 0.14995300E+03 -0.62330E+04
