-0.29800000E+01  0.15721E+07
-0.29300001E+01  0.15737E+07
-0.28800001E+01  0.15774E+07
-0.28299999E+01  0.15832E+07
-0.27800000E+01  0.15912E+07
-0.27300000E+01  0.16000E+07
-0.26800001E+01  0.16110E+07
-0.26300001E+01  0.16233E+07
-0.25799999E+01  0.16361E+07
-0.25300000E+01  0.16509E+07
-0.24800000E+01  0.16668E+07
-0.24300001E+01  0.16844E+07
-0.23800001E+01  0.17007E+07
-0.23299999E+01  0.17150E+07
-0.22800000E+01  0.17284E+07
-0.22300000E+01  0.17393E+07
-0.21800001E+01  0.17471E+07
-0.21300001E+01  0.17511E+07
-0.20799999E+01  0.17532E+07
-0.20300000E+01  0.17526E+07
-0.19800000E+01  0.17484E+07
-0.19299999E+01  0.17433E+07
-0.18800000E+01  0.17353E+07
-0.18300000E+01  0.17252E+07
-0.17800000E+01  0.17139E+07
-0.17300000E+01  0.17011E+07
-0.16799999E+01  0.16883E+07
-0.16300000E+01  0.16749E+07
-0.15800000E+01  0.16640E+07
-0.15300000E+01  0.16529E+07
-0.14800000E+01  0.16399E+07
-0.14299999E+01  0.16275E+07
-0.13800000E+01  0.16141E+07
-0.13300000E+01  0.16014E+07
-0.12800000E+01  0.15907E+07
-0.12300000E+01  0.15810E+07
-0.11799999E+01  0.15722E+07
-0.11300000E+01  0.15649E+07
-0.10800000E+01  0.15583E+07
-0.10300000E+01  0.15522E+07
-0.98000002E+00  0.15451E+07
-0.93000007E+00  0.15392E+07
-0.87999988E+00  0.15361E+07
-0.82999992E+00  0.15347E+07
-0.77999997E+00  0.15360E+07
-0.73000002E+00  0.15376E+07
-0.68000007E+00  0.15388E+07
-0.62999988E+00  0.15396E+07
-0.57999992E+00  0.15416E+07
-0.52999997E+00  0.15432E+07
-0.48000002E+00  0.15443E+07
-0.43000007E+00  0.15465E+07
-0.37999988E+00  0.15466E+07
-0.32999992E+00  0.15459E+07
-0.27999997E+00  0.15470E+07
-0.23000002E+00  0.15495E+07
-0.18000007E+00  0.15518E+07
-0.12999988E+00  0.15488E+07
-0.79999924E-01  0.15455E+07
-0.29999971E-01  0.15454E+07
 0.19999981E-01  0.15380E+07
 0.69999933E-01  0.15315E+07
 0.12000012E+00  0.15273E+07
 0.17000008E+00  0.15211E+07
 0.22000003E+00  0.15220E+07
 0.26999998E+00  0.15176E+07
 0.31999993E+00  0.15098E+07
 0.37000012E+00  0.15065E+07
 0.42000008E+00  0.15028E+07
 0.47000003E+00  0.14987E+07
 0.51999998E+00  0.14944E+07
 0.56999993E+00  0.14940E+07
 0.62000012E+00  0.14895E+07
 0.67000008E+00  0.14895E+07
 0.72000003E+00  0.14966E+07
 0.76999998E+00  0.14904E+07
 0.81999993E+00  0.14938E+07
 0.87000012E+00  0.14983E+07
 0.92000008E+00  0.14942E+07
 0.97000003E+00  0.15010E+07
 0.10200000E+01  0.15016E+07
 0.10700002E+01  0.15016E+07
 0.11199999E+01  0.15038E+07
 0.11700001E+01  0.15029E+07
 0.12200003E+01  0.15047E+07
 0.12700000E+01  0.15029E+07
 0.13200002E+01  0.14986E+07
 0.13699999E+01  0.14925E+07
 0.14200001E+01  0.14821E+07
 0.14700003E+01  0.14713E+07
 0.15200000E+01  0.14569E+07
 0.15700002E+01  0.14383E+07
 0.16199999E+01  0.14247E+07
 0.16700001E+01  0.14120E+07
 0.17200003E+01  0.13985E+07
 0.17700000E+01  0.13901E+07
 0.18200002E+01  0.13830E+07
 0.18699999E+01  0.13761E+07
 0.19200001E+01  0.13681E+07
 0.19700003E+01  0.13620E+07
 0.20200000E+01  0.13572E+07
 0.20700002E+01  0.13498E+07
 0.21199999E+01  0.13476E+07
 0.21700001E+01  0.13432E+07
 0.22200003E+01  0.13390E+07
 0.22700000E+01  0.13435E+07
 0.23200002E+01  0.13482E+07
 0.23699999E+01  0.13523E+07
 0.24200001E+01  0.13588E+07
 0.24700003E+01  0.13674E+07
 0.25200000E+01  0.13759E+07
 0.25700002E+01  0.13850E+07
 0.26199999E+01  0.13957E+07
 0.26700001E+01  0.14074E+07
 0.27200003E+01  0.14171E+07
 0.27700000E+01  0.14251E+07
 0.28200002E+01  0.14344E+07
 0.28699999E+01  0.14421E+07
 0.29200001E+01  0.14505E+07
 0.29700003E+01  0.14588E+07
 0.30200000E+01  0.14653E+07
 0.30700002E+01  0.14716E+07
 0.31199999E+01  0.14772E+07
 0.31700001E+01  0.14815E+07
 0.32200003E+01  0.14816E+07
 0.32700000E+01  0.14799E+07
 0.33200002E+01  0.14761E+07
 0.33699999E+01  0.14686E+07
 0.34200001E+01  0.14611E+07
 0.34700003E+01  0.14504E+07
 0.35200000E+01  0.14374E+07
 0.35700002E+01  0.14256E+07
 0.36199999E+01  0.14123E+07
 0.36700001E+01  0.13998E+07
 0.37200003E+01  0.13880E+07
 0.37700000E+01  0.13747E+07
 0.38200002E+01  0.13628E+07
 0.38699999E+01  0.13508E+07
 0.39200001E+01  0.13336E+07
 0.39700003E+01  0.13180E+07
 0.40200000E+01  0.13001E+07
 0.40700002E+01  0.12848E+07
 0.41199999E+01  0.12750E+07
 0.41700001E+01  0.12542E+07
 0.42200003E+01  0.12637E+07
 0.42700000E+01  0.12313E+07
 0.43200002E+01  0.12584E+07
 0.43699999E+01  0.12290E+07
 0.44200001E+01  0.12447E+07
 0.44700003E+01  0.12494E+07
 0.45200000E+01  0.12057E+07
 0.45700002E+01  0.13003E+07
 0.46199999E+01  0.11659E+07
 0.46700001E+01  0.13816E+07
 0.47200003E+01  0.11531E+07
 0.47700000E+01  0.13856E+07
 0.48200002E+01  0.11834E+07
 0.48699999E+01  0.11395E+07
 0.49200001E+01  0.23863E+06
 0.49700003E+01 -0.45164E+07
 0.50200000E+01 -0.72958E+07
 0.50700002E+01 -0.58715E+07
 0.51200004E+01 -0.11697E+07
 0.51700006E+01 -0.19639E+07
 0.52199998E+01 -0.52324E+07
 0.52700000E+01 -0.19584E+07
 0.53200002E+01 -0.18272E+07
 0.53700004E+01 -0.17656E+07
 0.54200006E+01  0.26112E+07
 0.54699998E+01  0.88171E+06
 0.55200000E+01 -0.25806E+07
 0.55700002E+01 -0.39068E+07
 0.56200004E+01 -0.47105E+07
 0.56700006E+01 -0.43903E+07
 0.57199998E+01 -0.78828E+07
 0.57700000E+01 -0.11212E+08
 0.58200002E+01 -0.18418E+08
 0.58700004E+01 -0.22721E+08
 0.59200006E+01 -0.21623E+08
 0.59699998E+01 -0.14047E+08
 0.60200000E+01  0.12672E+07
 0.60700002E+01 -0.37309E+07
 0.61200004E+01 -0.11296E+08
 0.61700006E+01 -0.11737E+08
 0.62199998E+01 -0.15408E+08
 0.62700000E+01 -0.10830E+08
 0.63200002E+01 -0.15763E+08
 0.63700004E+01 -0.12287E+08
 0.64200006E+01 -0.69206E+07
 0.64699998E+01 -0.18323E+08
 0.65200000E+01 -0.67542E+07
 0.65700002E+01 -0.14128E+07
 0.66200004E+01 -0.63617E+07
 0.66700006E+01 -0.20772E+07
 0.67199998E+01 -0.61432E+07
 0.67700000E+01 -0.70751E+07
 0.68200002E+01 -0.76203E+07
 0.68700004E+01 -0.63442E+07
 0.69200006E+01 -0.91000E+03
 0.69699998E+01  0.75080E+07
 0.70200000E+01 -0.47367E+07
 0.70700002E+01 -0.16573E+08
 0.71200004E+01 -0.14783E+08
 0.71700006E+01 -0.20006E+08
 0.72199998E+01 -0.76898E+07
 0.72700000E+01 -0.46660E+07
 0.73200002E+01 -0.16363E+08
 0.73700004E+01 -0.26596E+08
 0.74200006E+01 -0.25330E+08
 0.74699998E+01 -0.10458E+08
 0.75200000E+01 -0.17405E+08
 0.75700002E+01 -0.18260E+08
 0.76200004E+01 -0.19300E+08
 0.76700006E+01 -0.28580E+08
 0.77199998E+01 -0.22205E+08
 0.77700000E+01 -0.26466E+08
 0.78200002E+01 -0.25980E+08
 0.78700004E+01 -0.34002E+06
 0.79200006E+01  0.13124E+08
 0.79699998E+01  0.51260E+07
 0.80200005E+01  0.65865E+07
 0.80699997E+01  0.96841E+07
 0.81200008E+01  0.18337E+08
 0.81700001E+01  0.32816E+08
 0.82199993E+01  0.34544E+08
 0.82700005E+01  0.23633E+08
 0.83199997E+01  0.36605E+07
 0.83700008E+01  0.51601E+07
 0.84200001E+01  0.10975E+08
 0.84699993E+01  0.10841E+08
 0.85200005E+01  0.17480E+08
 0.85699997E+01  0.11500E+08
 0.86200008E+01  0.40538E+07
 0.86700001E+01  0.28624E+07
 0.87199993E+01 -0.21745E+07
 0.87700005E+01  0.20210E+07
 0.88199997E+01  0.22211E+08
 0.88700008E+01  0.32871E+08
 0.89200001E+01  0.29517E+08
 0.89699993E+01  0.23988E+08
 0.90200005E+01  0.25451E+08
 0.90699997E+01  0.32601E+08
 0.91200008E+01  0.31490E+08
 0.91700001E+01  0.30596E+08
 0.92199993E+01  0.28533E+08
 0.92700005E+01  0.32977E+08
 0.93199997E+01  0.33348E+08
 0.93700008E+01  0.22904E+08
 0.94200001E+01  0.26001E+08
 0.94699993E+01  0.21573E+08
 0.95200005E+01  0.20979E+08
 0.95699997E+01  0.31658E+08
 0.96200008E+01  0.34755E+08
 0.96700001E+01  0.33075E+08
 0.97199993E+01  0.28134E+08
 0.97700005E+01  0.28080E+08
 0.98199997E+01  0.28348E+08
 0.98700008E+01  0.28758E+08
 0.99200001E+01  0.29115E+08
 0.99699993E+01  0.29403E+08
 0.10020000E+02  0.32666E+08
 0.10070000E+02  0.27892E+08
 0.10120001E+02  0.27960E+08
 0.10170000E+02  0.31488E+08
 0.10219999E+02  0.24863E+08
 0.10270000E+02  0.27782E+08
 0.10320000E+02  0.35900E+08
 0.10370001E+02  0.39056E+08
 0.10420000E+02  0.35689E+08
 0.10469999E+02  0.28787E+08
 0.10520000E+02  0.26433E+08
 0.10570000E+02  0.32434E+08
 0.10620001E+02  0.35407E+08
 0.10670000E+02  0.29531E+08
 0.10719999E+02  0.31135E+08
 0.10770000E+02  0.30176E+08
 0.10820000E+02  0.27617E+08
 0.10870001E+02  0.28322E+08
 0.10920000E+02  0.31983E+08
 0.10969999E+02  0.32278E+08
 0.11020000E+02  0.27741E+08
 0.11070000E+02  0.28754E+08
 0.11120001E+02  0.30658E+08
 0.11170000E+02  0.35795E+08
 0.11219999E+02  0.35007E+08
 0.11270000E+02  0.38979E+08
 0.11320000E+02  0.38401E+08
 0.11370001E+02  0.26036E+08
 0.11420000E+02  0.23952E+08
 0.11469999E+02  0.12691E+08
 0.11520000E+02  0.57050E+07
 0.11570000E+02  0.79631E+07
 0.11620001E+02  0.51548E+07
 0.11670000E+02  0.66823E+07
 0.11719999E+02  0.57585E+07
 0.11770000E+02  0.60097E+07
 0.11820000E+02  0.60828E+07
 0.11870001E+02  0.54685E+07
 0.11920000E+02  0.62987E+07
 0.11969999E+02  0.49091E+07
 0.12020000E+02  0.65074E+07
 0.12070000E+02  0.42546E+07
 0.12120001E+02  0.77525E+07
 0.12170000E+02  0.13023E+08
 0.12219999E+02  0.93698E+07
 0.12270000E+02  0.16312E+08
 0.12320000E+02  0.25464E+08
 0.12370001E+02  0.23089E+08
 0.12420000E+02  0.18488E+08
 0.12469999E+02  0.18705E+08
 0.12520000E+02  0.17891E+08
 0.12570000E+02  0.21906E+08
 0.12620001E+02  0.19426E+08
 0.12670000E+02  0.68517E+07
 0.12719999E+02  0.61636E+07
 0.12770000E+02  0.97332E+07
 0.12820000E+02  0.20260E+08
 0.12870001E+02  0.25291E+08
 0.12920000E+02  0.21607E+08
 0.12969999E+02  0.31163E+08
 0.13020000E+02  0.36815E+08
 0.13070002E+02  0.34344E+08
 0.13120001E+02  0.33885E+08
 0.13170000E+02  0.33019E+08
 0.13220001E+02  0.21954E+08
 0.13270000E+02  0.38438E+07
 0.13320002E+02 -0.17673E+07
 0.13370001E+02  0.11304E+07
 0.13420000E+02  0.53650E+06
 0.13470001E+02 -0.37678E+06
 0.13520000E+02  0.21803E+07
 0.13570002E+02 -0.67421E+07
 0.13620001E+02 -0.77862E+07
 0.13670000E+02  0.48225E+07
 0.13720001E+02  0.13373E+08
 0.13770000E+02  0.13461E+08
 0.13820002E+02  0.52177E+07
 0.13870001E+02  0.87079E+07
 0.13920000E+02  0.23718E+07
 0.13970001E+02 -0.41476E+07
 0.14020000E+02 -0.16215E+07
 0.14070002E+02  0.22108E+07
 0.14120001E+02  0.14982E+08
 0.14170000E+02  0.15306E+08
 0.14220001E+02  0.13186E+08
 0.14270000E+02  0.13316E+08
 0.14320002E+02  0.12247E+08
 0.14370001E+02  0.10428E+08
 0.14420000E+02  0.22793E+06
 0.14470001E+02 -0.67382E+07
 0.14520000E+02 -0.43316E+07
 0.14570002E+02  0.12785E+07
 0.14620001E+02 -0.36155E+07
 0.14670000E+02 -0.13480E+08
 0.14720001E+02 -0.11418E+07
 0.14770000E+02  0.15005E+08
 0.14820002E+02  0.12656E+08
 0.14870001E+02  0.11828E+08
 0.14920000E+02  0.14273E+08
 0.14970001E+02  0.15396E+08
 0.15020000E+02  0.20032E+08
 0.15070002E+02  0.18088E+08
 0.15120001E+02  0.90596E+07
 0.15170000E+02  0.24704E+07
 0.15220001E+02 -0.78050E+06
 0.15270000E+02 -0.75024E+07
 0.15320002E+02 -0.83593E+07
 0.15370001E+02 -0.13501E+07
 0.15420000E+02  0.90044E+06
 0.15470001E+02  0.93659E+06
 0.15520000E+02  0.26047E+07
 0.15570002E+02  0.76843E+07
 0.15620001E+02  0.92985E+07
 0.15670000E+02  0.14913E+08
 0.15720001E+02  0.12174E+08
 0.15770000E+02 -0.11094E+07
 0.15820002E+02 -0.23972E+07
 0.15870001E+02  0.12672E+07
 0.15920000E+02  0.45184E+07
 0.15970001E+02  0.87609E+06
 0.16020000E+02  0.20258E+07
 0.16070002E+02  0.63792E+07
 0.16120001E+02  0.77306E+07
 0.16170000E+02  0.11635E+08
 0.16220001E+02  0.13989E+08
 0.16270000E+02  0.15673E+08
 0.16320002E+02  0.13999E+08
 0.16370001E+02  0.16243E+08
 0.16420000E+02  0.16142E+08
 0.16470001E+02  0.12682E+08
 0.16520000E+02  0.17400E+08
 0.16570002E+02  0.21759E+08
 0.16620001E+02  0.19064E+08
 0.16670000E+02  0.17368E+08
 0.16720001E+02  0.19884E+08
 0.16770000E+02  0.22766E+08
 0.16820002E+02  0.18794E+08
 0.16870001E+02  0.13527E+08
 0.16920000E+02  0.11950E+08
 0.16970001E+02  0.45050E+07
 0.17020000E+02  0.32603E+07
 0.17070002E+02  0.48862E+07
 0.17120001E+02  0.17684E+07
 0.17170000E+02 -0.13351E+07
 0.17220001E+02 -0.19431E+07
 0.17270000E+02  0.64426E+07
 0.17320002E+02  0.93022E+07
 0.17370001E+02  0.59886E+07
 0.17420000E+02  0.76680E+07
 0.17470001E+02  0.93123E+07
 0.17520000E+02  0.77568E+07
 0.17570002E+02  0.11831E+07
 0.17620001E+02  0.41219E+06
 0.17670000E+02  0.70177E+07
 0.17720001E+02  0.80230E+07
 0.17770000E+02  0.63089E+07
 0.17820002E+02  0.36002E+07
 0.17870001E+02  0.33630E+07
 0.17920000E+02  0.69032E+07
 0.17970001E+02  0.83315E+07
 0.18020000E+02  0.75203E+07
 0.18070002E+02  0.51180E+07
 0.18120001E+02  0.55763E+07
 0.18170000E+02  0.10749E+08
 0.18220001E+02  0.13971E+08
 0.18270000E+02  0.15540E+08
 0.18320002E+02  0.16054E+08
 0.18370001E+02  0.16376E+08
 0.18420000E+02  0.16928E+08
 0.18470001E+02  0.13639E+08
 0.18520000E+02  0.11469E+08
 0.18570002E+02  0.62956E+07
 0.18620001E+02  0.31259E+07
 0.18670000E+02  0.71295E+07
 0.18720001E+02  0.97198E+07
 0.18770000E+02  0.12205E+08
 0.18820002E+02  0.89261E+07
 0.18870001E+02  0.47912E+07
 0.18920000E+02  0.82374E+07
 0.18970001E+02  0.93249E+07
 0.19020000E+02  0.10244E+08
 0.19070002E+02  0.12860E+08
 0.19120001E+02  0.91647E+07
 0.19170000E+02  0.25971E+07
 0.19220001E+02  0.22320E+06
 0.19270000E+02  0.21424E+07
 0.19320002E+02  0.30559E+07
 0.19370001E+02  0.60847E+07
 0.19420000E+02  0.89653E+07
 0.19470001E+02  0.89895E+07
 0.19520000E+02  0.10125E+08
 0.19570002E+02  0.11046E+08
 0.19620001E+02  0.99073E+07
 0.19670000E+02  0.64085E+07
 0.19720001E+02  0.72360E+07
 0.19770000E+02  0.86529E+07
 0.19820002E+02  0.75304E+07
 0.19870001E+02  0.64943E+07
 0.19920000E+02  0.54085E+07
 0.19970001E+02  0.60802E+07
 0.20020000E+02  0.95609E+07
 0.20070002E+02  0.13294E+08
 0.20120001E+02  0.11620E+08
 0.20170000E+02  0.85085E+07
 0.20220001E+02  0.62578E+07
 0.20270000E+02  0.42702E+07
 0.20320002E+02  0.43785E+07
 0.20370001E+02  0.91089E+07
 0.20420000E+02  0.15687E+08
 0.20470001E+02  0.15639E+08
 0.20520000E+02  0.13997E+08
 0.20570002E+02  0.12594E+08
 0.20620001E+02  0.10356E+08
 0.20670000E+02  0.10366E+08
 0.20720001E+02  0.77762E+07
 0.20770000E+02  0.64539E+07
 0.20820002E+02  0.50646E+07
 0.20870001E+02  0.33927E+07
 0.20920000E+02  0.37147E+07
 0.20970001E+02  0.42423E+07
 0.21020000E+02  0.87304E+07
 0.21070002E+02  0.93123E+07
 0.21120001E+02  0.94646E+07
 0.21170000E+02  0.12719E+08
 0.21220001E+02  0.15979E+08
 0.21270000E+02  0.21243E+08
 0.21320002E+02  0.24371E+08
 0.21370001E+02  0.23260E+08
 0.21420000E+02  0.20043E+08
 0.21470001E+02  0.18050E+08
 0.21520000E+02  0.14666E+08
 0.21570002E+02  0.10317E+08
 0.21620001E+02  0.52360E+07
 0.21670000E+02  0.15257E+06
 0.21720001E+02  0.55675E+06
 0.21770000E+02  0.29416E+07
 0.21820002E+02  0.53542E+07
 0.21870001E+02  0.78761E+07
 0.21920000E+02  0.76143E+07
 0.21970001E+02  0.74291E+07
 0.22020000E+02  0.10974E+08
 0.22070002E+02  0.14337E+08
 0.22120001E+02  0.13177E+08
 0.22170000E+02  0.11839E+08
 0.22220001E+02  0.12842E+08
 0.22270000E+02  0.13711E+08
 0.22320002E+02  0.13056E+08
 0.22370001E+02  0.11908E+08
 0.22420000E+02  0.10494E+08
 0.22470001E+02  0.84888E+07
 0.22520000E+02  0.61399E+07
 0.22570002E+02  0.23327E+07
 0.22620001E+02 -0.50003E+06
 0.22670000E+02 -0.29103E+07
 0.22720001E+02 -0.35037E+07
 0.22770000E+02 -0.17714E+07
 0.22820002E+02 -0.28151E+07
 0.22870001E+02 -0.27584E+07
 0.22920000E+02 -0.87975E+05
 0.22970001E+02  0.21885E+07
 0.23020000E+02  0.31587E+07
 0.23070002E+02  0.14638E+07
 0.23120001E+02  0.66734E+05
 0.23170000E+02  0.56082E+06
 0.23220001E+02  0.62003E+06
 0.23270000E+02  0.69636E+06
 0.23320002E+02  0.17765E+07
 0.23370001E+02  0.30812E+07
 0.23420000E+02  0.45812E+07
 0.23470001E+02  0.74712E+07
 0.23520000E+02  0.95904E+07
 0.23570002E+02  0.86379E+07
 0.23620001E+02  0.79432E+07
 0.23670000E+02  0.84643E+07
 0.23720001E+02  0.95225E+07
 0.23770000E+02  0.10522E+08
 0.23820002E+02  0.12033E+08
 0.23870001E+02  0.13896E+08
 0.23920000E+02  0.14872E+08
 0.23970001E+02  0.17217E+08
 0.24020000E+02  0.17947E+08
 0.24070002E+02  0.16305E+08
 0.24120001E+02  0.15128E+08
 0.24170000E+02  0.13239E+08
 0.24220001E+02  0.11668E+08
 0.24270000E+02  0.11895E+08
 0.24320002E+02  0.12943E+08
 0.24370001E+02  0.12729E+08
 0.24420000E+02  0.11570E+08
 0.24470001E+02  0.99064E+07
 0.24520000E+02  0.70411E+07
 0.24570002E+02  0.56089E+07
 0.24620001E+02  0.51535E+07
 0.24670000E+02  0.45374E+07
 0.24720001E+02  0.52808E+07
 0.24770000E+02  0.68448E+07
 0.24820002E+02  0.79480E+07
 0.24870001E+02  0.85887E+07
 0.24920000E+02  0.86829E+07
 0.24970001E+02  0.62600E+07
 0.25020000E+02  0.37231E+07
 0.25070002E+02  0.30950E+07
 0.25120001E+02  0.20576E+07
 0.25170000E+02  0.21429E+07
 0.25220001E+02  0.47289E+07
 0.25270000E+02  0.54956E+07
 0.25320002E+02  0.48490E+07
 0.25370001E+02  0.64022E+07
 0.25420000E+02  0.77735E+07
 0.25470001E+02  0.84056E+07
 0.25520000E+02  0.89561E+07
 0.25570002E+02  0.91025E+07
 0.25620001E+02  0.83727E+07
 0.25670000E+02  0.70597E+07
 0.25720001E+02  0.67173E+07
 0.25770000E+02  0.61122E+07
 0.25820002E+02  0.51300E+07
 0.25870001E+02  0.48188E+07
 0.25920000E+02  0.55137E+07
 0.25970001E+02  0.61858E+07
 0.26020000E+02  0.53728E+07
 0.26070002E+02  0.50658E+07
 0.26120001E+02  0.51757E+07
 0.26170000E+02  0.43578E+07
 0.26220001E+02  0.40940E+07
 0.26270000E+02  0.45735E+07
 0.26320002E+02  0.52688E+07
 0.26370001E+02  0.65814E+07
 0.26420000E+02  0.70747E+07
 0.26470001E+02  0.61340E+07
 0.26520000E+02  0.57117E+07
 0.26570002E+02  0.53532E+07
 0.26620001E+02  0.57758E+07
 0.26670000E+02  0.67516E+07
 0.26720001E+02  0.79245E+07
 0.26770000E+02  0.92771E+07
 0.26820002E+02  0.90672E+07
 0.26870001E+02  0.99461E+07
 0.26920000E+02  0.10386E+08
 0.26970001E+02  0.89487E+07
 0.27020000E+02  0.88901E+07
 0.27070002E+02  0.10808E+08
 0.27120001E+02  0.12208E+08
 0.27170000E+02  0.11474E+08
 0.27220001E+02  0.10952E+08
 0.27270000E+02  0.95256E+07
 0.27320002E+02  0.72738E+07
 0.27370001E+02  0.61096E+07
 0.27420000E+02  0.49426E+07
 0.27470001E+02  0.38044E+07
 0.27520000E+02  0.35259E+07
 0.27570002E+02  0.42174E+07
 0.27620001E+02  0.46935E+07
 0.27670000E+02  0.44936E+07
 0.27720001E+02  0.54725E+07
 0.27770000E+02  0.78192E+07
 0.27820002E+02  0.77956E+07
 0.27870001E+02  0.73696E+07
 0.27920000E+02  0.87891E+07
 0.27970001E+02  0.90940E+07
 0.28020000E+02  0.87067E+07
 0.28070002E+02  0.87161E+07
 0.28120001E+02  0.88386E+07
 0.28170000E+02  0.86796E+07
 0.28220001E+02  0.81237E+07
 0.28270000E+02  0.75913E+07
 0.28320002E+02  0.70954E+07
 0.28370001E+02  0.64368E+07
 0.28420000E+02  0.59349E+07
 0.28470001E+02  0.56282E+07
 0.28520000E+02  0.52538E+07
 0.28570002E+02  0.55214E+07
 0.28620001E+02  0.73295E+07
 0.28670000E+02  0.80322E+07
 0.28720001E+02  0.73293E+07
 0.28770000E+02  0.70192E+07
 0.28820002E+02  0.67165E+07
 0.28870001E+02  0.72912E+07
 0.28920000E+02  0.71763E+07
 0.28970001E+02  0.63982E+07
 0.29020000E+02  0.63311E+07
 0.29070000E+02  0.55425E+07
 0.29120003E+02  0.46170E+07
 0.29170002E+02  0.54752E+07
 0.29220001E+02  0.66385E+07
 0.29270000E+02  0.69514E+07
 0.29320000E+02  0.68243E+07
 0.29370003E+02  0.60785E+07
 0.29420002E+02  0.55306E+07
 0.29470001E+02  0.48755E+07
 0.29520000E+02  0.52589E+07
 0.29570000E+02  0.67767E+07
 0.29620003E+02  0.78456E+07
 0.29670002E+02  0.82947E+07
 0.29720001E+02  0.78045E+07
 0.29770000E+02  0.78886E+07
 0.29820000E+02  0.85715E+07
 0.29870003E+02  0.81610E+07
 0.29920002E+02  0.72869E+07
 0.29970001E+02  0.67390E+07
 0.30020000E+02  0.60571E+07
 0.30070000E+02  0.57348E+07
 0.30120003E+02  0.56594E+07
 0.30170002E+02  0.58617E+07
 0.30220001E+02  0.63169E+07
 0.30270000E+02  0.51924E+07
 0.30320000E+02  0.35590E+07
 0.30370003E+02  0.38350E+07
 0.30420002E+02  0.54720E+07
 0.30470001E+02  0.57411E+07
 0.30520000E+02  0.55874E+07
 0.30570000E+02  0.62157E+07
 0.30620003E+02  0.56144E+07
 0.30670002E+02  0.51652E+07
 0.30720001E+02  0.52068E+07
 0.30770000E+02  0.46172E+07
 0.30820000E+02  0.51185E+07
 0.30870003E+02  0.60699E+07
 0.30920002E+02  0.58484E+07
 0.30970001E+02  0.57601E+07
 0.31020000E+02  0.59900E+07
 0.31070000E+02  0.56054E+07
 0.31120003E+02  0.45576E+07
 0.31170002E+02  0.35186E+07
 0.31220001E+02  0.34563E+07
 0.31270000E+02  0.35576E+07
 0.31320000E+02  0.33973E+07
 0.31370003E+02  0.42236E+07
 0.31420002E+02  0.52829E+07
 0.31470001E+02  0.56638E+07
 0.31520000E+02  0.55750E+07
 0.31570000E+02  0.52022E+07
 0.31620003E+02  0.43372E+07
 0.31670002E+02  0.32930E+07
 0.31720001E+02  0.40861E+07
 0.31770000E+02  0.49301E+07
 0.31820000E+02  0.46496E+07
 0.31870003E+02  0.54163E+07
 0.31920002E+02  0.60025E+07
 0.31970001E+02  0.54798E+07
 0.32020000E+02  0.57209E+07
 0.32070000E+02  0.63990E+07
 0.32120003E+02  0.65037E+07
 0.32170002E+02  0.70737E+07
 0.32220001E+02  0.75035E+07
 0.32270000E+02  0.76516E+07
 0.32320000E+02  0.78212E+07
 0.32370003E+02  0.74466E+07
 0.32420002E+02  0.72064E+07
 0.32470001E+02  0.62450E+07
 0.32520000E+02  0.50142E+07
 0.32570000E+02  0.54429E+07
 0.32620003E+02  0.61111E+07
 0.32670002E+02  0.56449E+07
 0.32720001E+02  0.48823E+07
 0.32770000E+02  0.43618E+07
 0.32820000E+02  0.38287E+07
 0.32870003E+02  0.38147E+07
 0.32920002E+02  0.47587E+07
 0.32970001E+02  0.56400E+07
 0.33020000E+02  0.69053E+07
 0.33070000E+02  0.80202E+07
 0.33120003E+02  0.74939E+07
 0.33170002E+02  0.82818E+07
 0.33220001E+02  0.95173E+07
 0.33270000E+02  0.92452E+07
 0.33320000E+02  0.98993E+07
 0.33370003E+02  0.97649E+07
 0.33420002E+02  0.87102E+07
 0.33470001E+02  0.86827E+07
 0.33520000E+02  0.87586E+07
 0.33570000E+02  0.81561E+07
 0.33620003E+02  0.71976E+07
 0.33670002E+02  0.64157E+07
 0.33720001E+02  0.51287E+07
 0.33770000E+02  0.39509E+07
 0.33820000E+02  0.37617E+07
 0.33870003E+02  0.44259E+07
 0.33920002E+02  0.53717E+07
 0.33970001E+02  0.57175E+07
 0.34020000E+02  0.62700E+07
 0.34070000E+02  0.69685E+07
 0.34120003E+02  0.65742E+07
 0.34170002E+02  0.59977E+07
 0.34220001E+02  0.55442E+07
 0.34270000E+02  0.44394E+07
 0.34320000E+02  0.34854E+07
 0.34370003E+02  0.33752E+07
 0.34420002E+02  0.36077E+07
 0.34470001E+02  0.39223E+07
 0.34520000E+02  0.43022E+07
 0.34570000E+02  0.41485E+07
 0.34620003E+02  0.39003E+07
 0.34670002E+02  0.31735E+07
 0.34720001E+02  0.23625E+07
 0.34770000E+02  0.26339E+07
 0.34820000E+02  0.35343E+07
 0.34870003E+02  0.47987E+07
 0.34920002E+02  0.51330E+07
 0.34970001E+02  0.46486E+07
 0.35020000E+02  0.41166E+07
 0.35070000E+02  0.39662E+07
 0.35120003E+02  0.36695E+07
 0.35170002E+02  0.31656E+07
 0.35220001E+02  0.30892E+07
 0.35270000E+02  0.21314E+07
 0.35320000E+02  0.98544E+06
 0.35370003E+02  0.47264E+06
 0.35420002E+02  0.65235E+06
 0.35470001E+02  0.13822E+07
 0.35520000E+02  0.25271E+07
 0.35570000E+02  0.36814E+07
 0.35620003E+02  0.39366E+07
 0.35670002E+02  0.39187E+07
 0.35720001E+02  0.38986E+07
 0.35770000E+02  0.36515E+07
 0.35820000E+02  0.36753E+07
 0.35870003E+02  0.42577E+07
 0.35920002E+02  0.44430E+07
 0.35970001E+02  0.41934E+07
 0.36020000E+02  0.37305E+07
 0.36070000E+02  0.36631E+07
 0.36120003E+02  0.39951E+07
 0.36170002E+02  0.42709E+07
 0.36220001E+02  0.46722E+07
 0.36270000E+02  0.44705E+07
 0.36320000E+02  0.45660E+07
 0.36370003E+02  0.38915E+07
 0.36420002E+02  0.26487E+07
 0.36470001E+02  0.21956E+07
 0.36520000E+02  0.17970E+07
 0.36570000E+02  0.16679E+07
 0.36620003E+02  0.16580E+07
 0.36670002E+02  0.24358E+07
 0.36720001E+02  0.25842E+07
 0.36770000E+02  0.19516E+07
 0.36820000E+02  0.16493E+07
 0.36870003E+02  0.17608E+07
 0.36920002E+02  0.30688E+07
 0.36970001E+02  0.42895E+07
 0.37020000E+02  0.53719E+07
 0.37070000E+02  0.63629E+07
 0.37120003E+02  0.71316E+07
 0.37170002E+02  0.79591E+07
 0.37220001E+02  0.84247E+07
 0.37270000E+02  0.86593E+07
 0.37320000E+02  0.88316E+07
 0.37370003E+02  0.91303E+07
 0.37420002E+02  0.88799E+07
 0.37470001E+02  0.84535E+07
 0.37520000E+02  0.83639E+07
 0.37570000E+02  0.77136E+07
 0.37620003E+02  0.64487E+07
 0.37670002E+02  0.54559E+07
 0.37720001E+02  0.47637E+07
 0.37770000E+02  0.38306E+07
 0.37820000E+02  0.27621E+07
 0.37870003E+02  0.17340E+07
 0.37920002E+02  0.11814E+07
 0.37970001E+02  0.12764E+07
 0.38020000E+02  0.15360E+07
 0.38070000E+02  0.22476E+07
 0.38120003E+02  0.36168E+07
 0.38170002E+02  0.44547E+07
 0.38220001E+02  0.48711E+07
 0.38270000E+02  0.53214E+07
 0.38320000E+02  0.54326E+07
 0.38370003E+02  0.53493E+07
 0.38420002E+02  0.49686E+07
 0.38470001E+02  0.46992E+07
 0.38520000E+02  0.48507E+07
 0.38570000E+02  0.51243E+07
 0.38620003E+02  0.54646E+07
 0.38670002E+02  0.55832E+07
 0.38720001E+02  0.56880E+07
 0.38770000E+02  0.61158E+07
 0.38820000E+02  0.62881E+07
 0.38870003E+02  0.58344E+07
 0.38920002E+02  0.50459E+07
 0.38970001E+02  0.41344E+07
 0.39020000E+02  0.32706E+07
 0.39070000E+02  0.31471E+07
 0.39120003E+02  0.28774E+07
 0.39170002E+02  0.24967E+07
 0.39220001E+02  0.28525E+07
 0.39270000E+02  0.26775E+07
 0.39320000E+02  0.22518E+07
 0.39370003E+02  0.18965E+07
 0.39420002E+02  0.17744E+07
 0.39470001E+02  0.21331E+07
 0.39520000E+02  0.24690E+07
 0.39570000E+02  0.26989E+07
 0.39620003E+02  0.30278E+07
 0.39670002E+02  0.38803E+07
 0.39720001E+02  0.41834E+07
 0.39770000E+02  0.41006E+07
 0.39820000E+02  0.46529E+07
 0.39870003E+02  0.49825E+07
 0.39920002E+02  0.45133E+07
 0.39970001E+02  0.35630E+07
 0.40020000E+02  0.28060E+07
 0.40070000E+02  0.23601E+07
 0.40120003E+02  0.23473E+07
 0.40170002E+02  0.26646E+07
 0.40220001E+02  0.31313E+07
 0.40270000E+02  0.38441E+07
 0.40320000E+02  0.40638E+07
 0.40370003E+02  0.38375E+07
 0.40420002E+02  0.39504E+07
 0.40470001E+02  0.42521E+07
 0.40520000E+02  0.46185E+07
 0.40570000E+02  0.55660E+07
 0.40620003E+02  0.65953E+07
 0.40670002E+02  0.67584E+07
 0.40720001E+02  0.63722E+07
 0.40770000E+02  0.57529E+07
 0.40820000E+02  0.48878E+07
 0.40870003E+02  0.40215E+07
 0.40920002E+02  0.34819E+07
 0.40970001E+02  0.32603E+07
 0.41020000E+02  0.30013E+07
 0.41070000E+02  0.31916E+07
 0.41120003E+02  0.39549E+07
 0.41170002E+02  0.44286E+07
 0.41220001E+02  0.47456E+07
 0.41270000E+02  0.51097E+07
 0.41320000E+02  0.49837E+07
 0.41370003E+02  0.46702E+07
 0.41420002E+02  0.45837E+07
 0.41470001E+02  0.43915E+07
 0.41520000E+02  0.40990E+07
 0.41570000E+02  0.39302E+07
 0.41620003E+02  0.37995E+07
 0.41670002E+02  0.36014E+07
 0.41720001E+02  0.32168E+07
 0.41770000E+02  0.29517E+07
 0.41820000E+02  0.30114E+07
 0.41870003E+02  0.29770E+07
 0.41920002E+02  0.28500E+07
 0.41970001E+02  0.28806E+07
 0.42020000E+02  0.28146E+07
 0.42070000E+02  0.26589E+07
 0.42120003E+02  0.31421E+07
 0.42170002E+02  0.41967E+07
 0.42220001E+02  0.53214E+07
 0.42270000E+02  0.62524E+07
 0.42320000E+02  0.63469E+07
 0.42370003E+02  0.55736E+07
 0.42420002E+02  0.49139E+07
 0.42470001E+02  0.46604E+07
 0.42520000E+02  0.43794E+07
 0.42570000E+02  0.43280E+07
 0.42620003E+02  0.43901E+07
 0.42670002E+02  0.41326E+07
 0.42720001E+02  0.37725E+07
 0.42770000E+02  0.33727E+07
 0.42820000E+02  0.30613E+07
 0.42870003E+02  0.29333E+07
 0.42920002E+02  0.30218E+07
 0.42970001E+02  0.28924E+07
 0.43020000E+02  0.22400E+07
 0.43070000E+02  0.19306E+07
 0.43120003E+02  0.17662E+07
 0.43170002E+02  0.15590E+07
 0.43220001E+02  0.14364E+07
 0.43270000E+02  0.13015E+07
 0.43320000E+02  0.16366E+07
 0.43370003E+02  0.20867E+07
 0.43420002E+02  0.23758E+07
 0.43470001E+02  0.25691E+07
 0.43520000E+02  0.27396E+07
 0.43570000E+02  0.28883E+07
 0.43620003E+02  0.28964E+07
 0.43670002E+02  0.30675E+07
 0.43720001E+02  0.33984E+07
 0.43770000E+02  0.38253E+07
 0.43820000E+02  0.44060E+07
 0.43870003E+02  0.49241E+07
 0.43920002E+02  0.50426E+07
 0.43970001E+02  0.48052E+07
 0.44020000E+02  0.46875E+07
 0.44070000E+02  0.45762E+07
 0.44120003E+02  0.44849E+07
 0.44170002E+02  0.44684E+07
 0.44220001E+02  0.43323E+07
 0.44270000E+02  0.42573E+07
 0.44320000E+02  0.39561E+07
 0.44370003E+02  0.34949E+07
 0.44420002E+02  0.30685E+07
 0.44470001E+02  0.25780E+07
 0.44520000E+02  0.21944E+07
 0.44570000E+02  0.19508E+07
 0.44620003E+02  0.20173E+07
 0.44670002E+02  0.24007E+07
 0.44720001E+02  0.25908E+07
 0.44770000E+02  0.25098E+07
 0.44820000E+02  0.24310E+07
 0.44870003E+02  0.23146E+07
 0.44920002E+02  0.23553E+07
 0.44970001E+02  0.26123E+07
 0.45020000E+02  0.28749E+07
 0.45070000E+02  0.30297E+07
 0.45120003E+02  0.31634E+07
 0.45170002E+02  0.30551E+07
 0.45220001E+02  0.24190E+07
 0.45270000E+02  0.18301E+07
 0.45320000E+02  0.17111E+07
 0.45370003E+02  0.19319E+07
 0.45420002E+02  0.22601E+07
 0.45470001E+02  0.26532E+07
 0.45520000E+02  0.28221E+07
 0.45570000E+02  0.26828E+07
 0.45620003E+02  0.27783E+07
 0.45670002E+02  0.30080E+07
 0.45720001E+02  0.31404E+07
 0.45770000E+02  0.33202E+07
 0.45820000E+02  0.34956E+07
 0.45870003E+02  0.35136E+07
 0.45920002E+02  0.35121E+07
 0.45970001E+02  0.35946E+07
 0.46020000E+02  0.36856E+07
 0.46070000E+02  0.38505E+07
 0.46120003E+02  0.38613E+07
 0.46170002E+02  0.34927E+07
 0.46220001E+02  0.29622E+07
 0.46270000E+02  0.27835E+07
 0.46320000E+02  0.28757E+07
 0.46370003E+02  0.28543E+07
 0.46420002E+02  0.29987E+07
 0.46470001E+02  0.32010E+07
 0.46520000E+02  0.31994E+07
 0.46570000E+02  0.30350E+07
 0.46620003E+02  0.27269E+07
 0.46670002E+02  0.24017E+07
 0.46720001E+02  0.20388E+07
 0.46770000E+02  0.16005E+07
 0.46820000E+02  0.12257E+07
 0.46870003E+02  0.99934E+06
 0.46920002E+02  0.10470E+07
 0.46970001E+02  0.14019E+07
 0.47020000E+02  0.17703E+07
 0.47070000E+02  0.21901E+07
 0.47120003E+02  0.27167E+07
 0.47170002E+02  0.29650E+07
 0.47220001E+02  0.30118E+07
 0.47270000E+02  0.30537E+07
 0.47320000E+02  0.26624E+07
 0.47370003E+02  0.18180E+07
 0.47420002E+02  0.11258E+07
 0.47470001E+02  0.65672E+06
 0.47520000E+02  0.34026E+06
 0.47570000E+02  0.47845E+06
 0.47620003E+02  0.80514E+06
 0.47670002E+02  0.11231E+07
 0.47720001E+02  0.16677E+07
 0.47770000E+02  0.19481E+07
 0.47820000E+02  0.19253E+07
 0.47870003E+02  0.18244E+07
 0.47920002E+02  0.14507E+07
 0.47970001E+02  0.13653E+07
 0.48020000E+02  0.17512E+07
 0.48070000E+02  0.21603E+07
 0.48120003E+02  0.24193E+07
 0.48170002E+02  0.25404E+07
 0.48220001E+02  0.25532E+07
 0.48270000E+02  0.25745E+07
 0.48320000E+02  0.27491E+07
 0.48370003E+02  0.26666E+07
 0.48420002E+02  0.23865E+07
 0.48470001E+02  0.22680E+07
 0.48520000E+02  0.21578E+07
 0.48570000E+02  0.20387E+07
 0.48620003E+02  0.19828E+07
 0.48670002E+02  0.20062E+07
 0.48720001E+02  0.19042E+07
 0.48770000E+02  0.20471E+07
 0.48820000E+02  0.24167E+07
 0.48870003E+02  0.26068E+07
 0.48920002E+02  0.29318E+07
 0.48970001E+02  0.29824E+07
 0.49020000E+02  0.26755E+07
 0.49070000E+02  0.24814E+07
 0.49120003E+02  0.22638E+07
 0.49170002E+02  0.19008E+07
 0.49220001E+02  0.15885E+07
 0.49270000E+02  0.15375E+07
 0.49320000E+02  0.15150E+07
 0.49370003E+02  0.14438E+07
 0.49420002E+02  0.13861E+07
 0.49470001E+02  0.13402E+07
 0.49520000E+02  0.14382E+07
 0.49570000E+02  0.14001E+07
 0.49620003E+02  0.12195E+07
 0.49670002E+02  0.10489E+07
 0.49720001E+02  0.86658E+06
 0.49770000E+02  0.68429E+06
 0.49820000E+02  0.65956E+06
 0.49870003E+02  0.96210E+06
 0.49920002E+02  0.14197E+07
 0.49970001E+02  0.19857E+07
 0.50020000E+02  0.21826E+07
 0.50070000E+02  0.21548E+07
 0.50120003E+02  0.25586E+07
 0.50170002E+02  0.30379E+07
 0.50220001E+02  0.33862E+07
 0.50270000E+02  0.36420E+07
 0.50320000E+02  0.36050E+07
 0.50370003E+02  0.34237E+07
 0.50420002E+02  0.33744E+07
 0.50470001E+02  0.32282E+07
 0.50520000E+02  0.31105E+07
 0.50570000E+02  0.33626E+07
 0.50620003E+02  0.36254E+07
 0.50670002E+02  0.37590E+07
 0.50720001E+02  0.38934E+07
 0.50770000E+02  0.39310E+07
 0.50820000E+02  0.38124E+07
 0.50870003E+02  0.36245E+07
 0.50920002E+02  0.36299E+07
 0.50970001E+02  0.37595E+07
 0.51020000E+02  0.37917E+07
 0.51070000E+02  0.36413E+07
 0.51120003E+02  0.32423E+07
 0.51170002E+02  0.27638E+07
 0.51220001E+02  0.23701E+07
 0.51270000E+02  0.21825E+07
 0.51320000E+02  0.21193E+07
 0.51370003E+02  0.21129E+07
 0.51420002E+02  0.21370E+07
 0.51470001E+02  0.20327E+07
 0.51520000E+02  0.18020E+07
 0.51570000E+02  0.15681E+07
 0.51620003E+02  0.16394E+07
 0.51670002E+02  0.19599E+07
 0.51720001E+02  0.22343E+07
 0.51770000E+02  0.25241E+07
 0.51820000E+02  0.28464E+07
 0.51870003E+02  0.30122E+07
 0.51920002E+02  0.29309E+07
 0.51970001E+02  0.27434E+07
 0.52020000E+02  0.24764E+07
 0.52070000E+02  0.21309E+07
 0.52120003E+02  0.18255E+07
 0.52170002E+02  0.16176E+07
 0.52220001E+02  0.16580E+07
 0.52270000E+02  0.19087E+07
 0.52320000E+02  0.19368E+07
 0.52370003E+02  0.17641E+07
 0.52420002E+02  0.16882E+07
 0.52470001E+02  0.14685E+07
 0.52520000E+02  0.12143E+07
 0.52570000E+02  0.11501E+07
 0.52620003E+02  0.10882E+07
 0.52670002E+02  0.10522E+07
 0.52720001E+02  0.12109E+07
 0.52770000E+02  0.14788E+07
 0.52820000E+02  0.14815E+07
 0.52870003E+02  0.14059E+07
 0.52920002E+02  0.15597E+07
 0.52970001E+02  0.18629E+07
 0.53020000E+02  0.22380E+07
 0.53070000E+02  0.25790E+07
 0.53120003E+02  0.29168E+07
 0.53170002E+02  0.30541E+07
 0.53220001E+02  0.28986E+07
 0.53270000E+02  0.27509E+07
 0.53320000E+02  0.25907E+07
 0.53370003E+02  0.23397E+07
 0.53420002E+02  0.20204E+07
 0.53470001E+02  0.17627E+07
 0.53520000E+02  0.17205E+07
 0.53570000E+02  0.16280E+07
 0.53620003E+02  0.14376E+07
 0.53670002E+02  0.13656E+07
 0.53720001E+02  0.15153E+07
 0.53770000E+02  0.17703E+07
 0.53820000E+02  0.18761E+07
 0.53870003E+02  0.19375E+07
 0.53920002E+02  0.20503E+07
 0.53970001E+02  0.20329E+07
 0.54020000E+02  0.19158E+07
 0.54070000E+02  0.18863E+07
 0.54120003E+02  0.18927E+07
 0.54170002E+02  0.19073E+07
 0.54220001E+02  0.18900E+07
 0.54270000E+02  0.16711E+07
 0.54320000E+02  0.13755E+07
 0.54370003E+02  0.11954E+07
 0.54420002E+02  0.10553E+07
 0.54470001E+02  0.94529E+06
 0.54520000E+02  0.86067E+06
 0.54570000E+02  0.85977E+06
 0.54620003E+02  0.99830E+06
 0.54670002E+02  0.11739E+07
 0.54720001E+02  0.13502E+07
 0.54770000E+02  0.12800E+07
 0.54820000E+02  0.10243E+07
 0.54870003E+02  0.81134E+06
 0.54920002E+02  0.62772E+06
 0.54970001E+02  0.71077E+06
 0.55020000E+02  0.10333E+07
 0.55070000E+02  0.12842E+07
 0.55120003E+02  0.14201E+07
 0.55170002E+02  0.15160E+07
 0.55220001E+02  0.14740E+07
 0.55270000E+02  0.11881E+07
 0.55320000E+02  0.97968E+06
 0.55370003E+02  0.95565E+06
 0.55420002E+02  0.85656E+06
 0.55470001E+02  0.85697E+06
 0.55520000E+02  0.84161E+06
 0.55570000E+02  0.59334E+06
 0.55620003E+02  0.46688E+06
 0.55670002E+02  0.54844E+06
 0.55720001E+02  0.65301E+06
 0.55770000E+02  0.69940E+06
 0.55820000E+02  0.79181E+06
 0.55870003E+02  0.97572E+06
 0.55920002E+02  0.11530E+07
 0.55970001E+02  0.14123E+07
 0.56020000E+02  0.17380E+07
 0.56070000E+02  0.19209E+07
 0.56120003E+02  0.18920E+07
 0.56170002E+02  0.18699E+07
 0.56220001E+02  0.18721E+07
 0.56270000E+02  0.18026E+07
 0.56320000E+02  0.18056E+07
 0.56370003E+02  0.17065E+07
 0.56420002E+02  0.14482E+07
 0.56470001E+02  0.12562E+07
 0.56520000E+02  0.11551E+07
 0.56570000E+02  0.11051E+07
 0.56620003E+02  0.10151E+07
 0.56670002E+02  0.87726E+06
 0.56720001E+02  0.70836E+06
 0.56770000E+02  0.58499E+06
 0.56820000E+02  0.45828E+06
 0.56870003E+02  0.22876E+06
 0.56920002E+02  0.96540E+05
 0.56970001E+02  0.34622E+05
 0.57020000E+02  0.49628E+05
 0.57070000E+02  0.23564E+06
 0.57120003E+02  0.47904E+06
 0.57170002E+02  0.61419E+06
 0.57220001E+02  0.52555E+06
 0.57270000E+02  0.40192E+06
 0.57320000E+02  0.38388E+06
 0.57370003E+02  0.44679E+06
 0.57420002E+02  0.59559E+06
 0.57470001E+02  0.79901E+06
 0.57520000E+02  0.10235E+07
 0.57570000E+02  0.12494E+07
 0.57620003E+02  0.13337E+07
 0.57670002E+02  0.12179E+07
 0.57720001E+02  0.11179E+07
 0.57770000E+02  0.11082E+07
 0.57820000E+02  0.11572E+07
 0.57870003E+02  0.12721E+07
 0.57920002E+02  0.14255E+07
 0.57970001E+02  0.15494E+07
 0.58020000E+02  0.15343E+07
 0.58070000E+02  0.14920E+07
 0.58120003E+02  0.15951E+07
 0.58170002E+02  0.17561E+07
 0.58220001E+02  0.19005E+07
 0.58270000E+02  0.20862E+07
 0.58320000E+02  0.22666E+07
 0.58370003E+02  0.23876E+07
 0.58420002E+02  0.24423E+07
 0.58470001E+02  0.24919E+07
 0.58520000E+02  0.24533E+07
 0.58570000E+02  0.21973E+07
 0.58620003E+02  0.20038E+07
 0.58670002E+02  0.18790E+07
 0.58720001E+02  0.17144E+07
 0.58770000E+02  0.16109E+07
 0.58820000E+02  0.14818E+07
 0.58870003E+02  0.14241E+07
 0.58920002E+02  0.15490E+07
 0.58970001E+02  0.17078E+07
 0.59020000E+02  0.16852E+07
 0.59070000E+02  0.14222E+07
 0.59120003E+02  0.10750E+07
 0.59170002E+02  0.79820E+06
 0.59220001E+02  0.64490E+06
 0.59270000E+02  0.61005E+06
 0.59320000E+02  0.71565E+06
 0.59370003E+02  0.83384E+06
 0.59420002E+02  0.89920E+06
 0.59470001E+02  0.93639E+06
 0.59520000E+02  0.80917E+06
 0.59570000E+02  0.67570E+06
 0.59620003E+02  0.66304E+06
 0.59670002E+02  0.67369E+06
 0.59720001E+02  0.72498E+06
 0.59770000E+02  0.76174E+06
 0.59820000E+02  0.71072E+06
 0.59870003E+02  0.70321E+06
 0.59920002E+02  0.95485E+06
 0.59970001E+02  0.13596E+07
 0.60020000E+02  0.17564E+07
 0.60070000E+02  0.19723E+07
 0.60120003E+02  0.18655E+07
 0.60170002E+02  0.16359E+07
 0.60220001E+02  0.14042E+07
 0.60270000E+02  0.12004E+07
 0.60320000E+02  0.11031E+07
 0.60370003E+02  0.11182E+07
 0.60420002E+02  0.10774E+07
 0.60470001E+02  0.83792E+06
 0.60520000E+02  0.48214E+06
 0.60570000E+02  0.17769E+06
 0.60620003E+02  0.56970E+05
 0.60670002E+02  0.12272E+06
 0.60720001E+02  0.26423E+06
 0.60770000E+02  0.36004E+06
 0.60820000E+02  0.43830E+06
 0.60870003E+02  0.45626E+06
 0.60920002E+02  0.33230E+06
 0.60970001E+02  0.10513E+06
 0.61020000E+02 -0.14793E+06
 0.61070004E+02 -0.33646E+06
 0.61119999E+02 -0.47090E+06
 0.61170002E+02 -0.50918E+06
 0.61220005E+02 -0.40606E+06
 0.61270000E+02 -0.20694E+06
 0.61320004E+02 -0.69188E+05
 0.61369999E+02 -0.55666E+05
 0.61420002E+02 -0.53470E+05
 0.61470005E+02 -0.12073E+05
 0.61520000E+02  0.69562E+05
 0.61570004E+02  0.20977E+06
 0.61619999E+02  0.39095E+06
 0.61670002E+02  0.50208E+06
 0.61720005E+02  0.62780E+06
 0.61770000E+02  0.77804E+06
 0.61820004E+02  0.87865E+06
 0.61869999E+02  0.10625E+07
 0.61920002E+02  0.13210E+07
 0.61970005E+02  0.14828E+07
 0.62020000E+02  0.14916E+07
 0.62070004E+02  0.14580E+07
 0.62119999E+02  0.14134E+07
 0.62170002E+02  0.14590E+07
 0.62220005E+02  0.15510E+07
 0.62270000E+02  0.15480E+07
 0.62320004E+02  0.16394E+07
 0.62369999E+02  0.18227E+07
 0.62420002E+02  0.19207E+07
 0.62470005E+02  0.18695E+07
 0.62520000E+02  0.17065E+07
 0.62570004E+02  0.14606E+07
 0.62619999E+02  0.12041E+07
 0.62670002E+02  0.10546E+07
 0.62720005E+02  0.92963E+06
 0.62770000E+02  0.80513E+06
 0.62820004E+02  0.65352E+06
 0.62869999E+02  0.44255E+06
 0.62920002E+02  0.22675E+06
 0.62970005E+02  0.31355E+05
 0.63020000E+02 -0.44986E+05
 0.63070004E+02 -0.65447E+05
 0.63119999E+02 -0.14293E+06
 0.63170002E+02 -0.19463E+06
 0.63220005E+02 -0.24433E+06
 0.63270000E+02 -0.31049E+06
 0.63320004E+02 -0.32890E+06
 0.63369999E+02 -0.34857E+06
 0.63420002E+02 -0.32471E+06
 0.63470005E+02 -0.17696E+06
 0.63520000E+02  0.28843E+05
 0.63570004E+02  0.22066E+06
 0.63619999E+02  0.34888E+06
 0.63670002E+02  0.43256E+06
 0.63720005E+02  0.52529E+06
 0.63770000E+02  0.62042E+06
 0.63820004E+02  0.65676E+06
 0.63869999E+02  0.59588E+06
 0.63920002E+02  0.44755E+06
 0.63970005E+02  0.25531E+06
 0.64019997E+02  0.15753E+06
 0.64070000E+02  0.12878E+06
 0.64119995E+02  0.74045E+05
 0.64169998E+02 -0.75472E+05
 0.64220001E+02 -0.26923E+06
 0.64269997E+02 -0.38620E+06
 0.64320000E+02 -0.53858E+06
 0.64369995E+02 -0.59375E+06
 0.64419998E+02 -0.44137E+06
 0.64470001E+02 -0.28244E+06
 0.64519997E+02 -0.19669E+06
 0.64570000E+02 -0.16721E+06
 0.64619995E+02 -0.22535E+06
 0.64669998E+02 -0.38231E+06
 0.64720001E+02 -0.44610E+06
 0.64769997E+02 -0.30468E+06
 0.64820000E+02 -0.82170E+05
 0.64869995E+02  0.12023E+06
 0.64919998E+02  0.22887E+06
 0.64970001E+02  0.29230E+06
 0.65019997E+02  0.45726E+06
 0.65070000E+02  0.70642E+06
 0.65119995E+02  0.92320E+06
 0.65169998E+02  0.11368E+07
 0.65220001E+02  0.13627E+07
 0.65269997E+02  0.15346E+07
 0.65320000E+02  0.17076E+07
 0.65369995E+02  0.17625E+07
 0.65419998E+02  0.16742E+07
 0.65470001E+02  0.16021E+07
 0.65519997E+02  0.14561E+07
 0.65570000E+02  0.12124E+07
 0.65619995E+02  0.93122E+06
 0.65669998E+02  0.62246E+06
 0.65720001E+02  0.32532E+06
 0.65769997E+02  0.16480E+06
 0.65820000E+02  0.20787E+06
 0.65869995E+02  0.33191E+06
 0.65919998E+02  0.45332E+06
 0.65970001E+02  0.59369E+06
 0.66019997E+02  0.70369E+06
 0.66070000E+02  0.68019E+06
 0.66119995E+02  0.60771E+06
 0.66169998E+02  0.61168E+06
 0.66220001E+02  0.62855E+06
 0.66269997E+02  0.57858E+06
 0.66320000E+02  0.48563E+06
 0.66369995E+02  0.38916E+06
 0.66419998E+02  0.39586E+06
 0.66470001E+02  0.52920E+06
 0.66519997E+02  0.64247E+06
 0.66570000E+02  0.75004E+06
 0.66619995E+02  0.87874E+06
 0.66669998E+02  0.90153E+06
 0.66720001E+02  0.78613E+06
 0.66769997E+02  0.63617E+06
 0.66820000E+02  0.49822E+06
 0.66869995E+02  0.38665E+06
 0.66919998E+02  0.36667E+06
 0.66970001E+02  0.36237E+06
 0.67019997E+02  0.27699E+06
 0.67070000E+02  0.16195E+06
 0.67119995E+02  0.75036E+05
 0.67169998E+02 -0.34880E+04
 0.67220001E+02 -0.79258E+05
 0.67269997E+02 -0.11599E+06
 0.67320000E+02 -0.15562E+06
 0.67369995E+02 -0.21897E+06
 0.67419998E+02 -0.26459E+06
 0.67470001E+02 -0.31099E+06
 0.67519997E+02 -0.36413E+06
 0.67570000E+02 -0.37889E+06
 0.67619995E+02 -0.39334E+06
 0.67669998E+02 -0.47947E+06
 0.67720001E+02 -0.54664E+06
 0.67769997E+02 -0.54254E+06
 0.67820000E+02 -0.55206E+06
 0.67869995E+02 -0.51155E+06
 0.67919998E+02 -0.33448E+06
 0.67970001E+02 -0.10964E+06
 0.68019997E+02  0.17660E+04
 0.68070000E+02  0.33139E+05
 0.68119995E+02  0.12292E+06
 0.68169998E+02  0.22910E+06
 0.68220001E+02  0.29792E+06
 0.68269997E+02  0.34834E+06
 0.68320000E+02  0.46053E+06
 0.68369995E+02  0.60121E+06
 0.68419998E+02  0.64374E+06
 0.68470001E+02  0.62206E+06
 0.68519997E+02  0.58786E+06
 0.68570000E+02  0.51355E+06
 0.68619995E+02  0.43275E+06
 0.68669998E+02  0.46811E+06
 0.68720001E+02  0.55987E+06
 0.68769997E+02  0.62687E+06
 0.68820000E+02  0.72832E+06
 0.68869995E+02  0.76733E+06
 0.68919998E+02  0.66058E+06
 0.68970001E+02  0.50365E+06
 0.69019997E+02  0.34629E+06
 0.69070000E+02  0.20713E+06
 0.69119995E+02  0.10111E+06
 0.69169998E+02 -0.32848E+05
 0.69220001E+02 -0.21908E+06
 0.69269997E+02 -0.44778E+06
 0.69320000E+02 -0.70818E+06
 0.69369995E+02 -0.93651E+06
 0.69419998E+02 -0.10814E+07
 0.69470001E+02 -0.11307E+07
 0.69519997E+02 -0.10746E+07
 0.69570000E+02 -0.98544E+06
 0.69619995E+02 -0.90967E+06
 0.69669998E+02 -0.89762E+06
 0.69720001E+02 -0.96190E+06
 0.69769997E+02 -0.10059E+07
 0.69820000E+02 -0.10323E+07
 0.69869995E+02 -0.10257E+07
 0.69919998E+02 -0.97204E+06
 0.69970001E+02 -0.88478E+06
 0.70019997E+02 -0.80836E+06
 0.70070000E+02 -0.76094E+06
 0.70119995E+02 -0.68279E+06
 0.70169998E+02 -0.63151E+06
 0.70220001E+02 -0.62552E+06
 0.70269997E+02 -0.58569E+06
 0.70320000E+02 -0.52034E+06
 0.70369995E+02 -0.46555E+06
 0.70419998E+02 -0.39456E+06
 0.70470001E+02 -0.32643E+06
 0.70519997E+02 -0.28934E+06
 0.70570000E+02 -0.18382E+06
 0.70619995E+02 -0.10515E+05
 0.70669998E+02  0.10065E+06
 0.70720001E+02  0.12750E+06
 0.70769997E+02  0.10828E+06
 0.70820000E+02  0.11159E+06
 0.70869995E+02  0.15816E+06
 0.70919998E+02  0.20481E+06
 0.70970001E+02  0.23102E+06
 0.71019997E+02  0.22401E+06
 0.71070000E+02  0.18757E+06
 0.71119995E+02  0.12078E+06
 0.71169998E+02  0.10232E+06
 0.71220001E+02  0.17525E+06
 0.71269997E+02  0.22560E+06
 0.71320000E+02  0.21405E+06
 0.71369995E+02  0.17690E+06
 0.71419998E+02  0.10626E+06
 0.71470001E+02  0.39380E+04
 0.71519997E+02 -0.75793E+05
 0.71570000E+02 -0.95237E+05
 0.71619995E+02 -0.69640E+05
 0.71669998E+02 -0.16822E+05
 0.71720001E+02 -0.37740E+04
 0.71769997E+02 -0.52091E+05
 0.71820000E+02 -0.97238E+05
 0.71869995E+02 -0.13362E+06
 0.71919998E+02 -0.18897E+06
 0.71970001E+02 -0.25069E+06
 0.72019997E+02 -0.29688E+06
 0.72070000E+02 -0.34120E+06
 0.72119995E+02 -0.35529E+06
 0.72169998E+02 -0.35833E+06
 0.72220001E+02 -0.43493E+06
 0.72269997E+02 -0.54498E+06
 0.72320000E+02 -0.57213E+06
 0.72369995E+02 -0.50713E+06
 0.72419998E+02 -0.40559E+06
 0.72470001E+02 -0.26622E+06
 0.72519997E+02 -0.12480E+06
 0.72570000E+02  0.19303E+05
 0.72619995E+02  0.12077E+06
 0.72669998E+02  0.13242E+06
 0.72720001E+02  0.13854E+06
 0.72769997E+02  0.10623E+06
 0.72820000E+02  0.21890E+05
 0.72869995E+02 -0.37358E+05
 0.72919998E+02 -0.64589E+05
 0.72970001E+02 -0.11138E+06
 0.73019997E+02 -0.17634E+06
 0.73070000E+02 -0.21224E+06
 0.73119995E+02 -0.20420E+06
 0.73169998E+02 -0.12342E+06
 0.73220001E+02 -0.21544E+05
 0.73269997E+02  0.31735E+05
 0.73320000E+02  0.95788E+05
 0.73369995E+02  0.15330E+06
 0.73419998E+02  0.14715E+06
 0.73470001E+02  0.14291E+06
 0.73519997E+02  0.12289E+06
 0.73570000E+02  0.44326E+05
 0.73619995E+02 -0.37215E+05
 0.73669998E+02 -0.45627E+05
 0.73720001E+02  0.14849E+05
 0.73769997E+02  0.58087E+05
 0.73820000E+02  0.12653E+05
 0.73869995E+02 -0.10932E+06
 0.73919998E+02 -0.18051E+06
 0.73970001E+02 -0.19600E+06
 0.74019997E+02 -0.23012E+06
 0.74070000E+02 -0.26177E+06
 0.74119995E+02 -0.28237E+06
 0.74169998E+02 -0.33895E+06
 0.74220001E+02 -0.43101E+06
 0.74269997E+02 -0.53064E+06
 0.74320000E+02 -0.65971E+06
 0.74369995E+02 -0.79183E+06
 0.74419998E+02 -0.92124E+06
 0.74470001E+02 -0.10377E+07
 0.74519997E+02 -0.10780E+07
 0.74570000E+02 -0.10120E+07
 0.74619995E+02 -0.91545E+06
 0.74669998E+02 -0.90209E+06
 0.74720001E+02 -0.93276E+06
 0.74769997E+02 -0.96158E+06
 0.74820000E+02 -0.99152E+06
 0.74869995E+02 -0.99209E+06
 0.74919998E+02 -0.97115E+06
 0.74970001E+02 -0.10019E+07
 0.75019997E+02 -0.11065E+07
 0.75070000E+02 -0.12119E+07
 0.75119995E+02 -0.12868E+07
 0.75169998E+02 -0.13477E+07
 0.75220001E+02 -0.14083E+07
 0.75269997E+02 -0.14407E+07
 0.75320000E+02 -0.14051E+07
 0.75369995E+02 -0.13119E+07
 0.75419998E+02 -0.11916E+07
 0.75470001E+02 -0.10502E+07
 0.75519997E+02 -0.85298E+06
 0.75570000E+02 -0.64550E+06
 0.75619995E+02 -0.50807E+06
 0.75669998E+02 -0.39731E+06
 0.75720001E+02 -0.28671E+06
 0.75769997E+02 -0.21427E+06
 0.75820000E+02 -0.17333E+06
 0.75869995E+02 -0.13856E+06
 0.75919998E+02 -0.88452E+05
 0.75970001E+02 -0.46992E+05
 0.76019997E+02 -0.10898E+06
 0.76070000E+02 -0.24670E+06
 0.76119995E+02 -0.29795E+06
 0.76169998E+02 -0.23826E+06
 0.76220001E+02 -0.12740E+06
 0.76269997E+02 -0.41588E+05
 0.76320000E+02 -0.43596E+05
 0.76369995E+02 -0.10462E+06
 0.76419998E+02 -0.16143E+06
 0.76470001E+02 -0.17755E+06
 0.76519997E+02 -0.19118E+06
 0.76570000E+02 -0.19971E+06
 0.76619995E+02 -0.20141E+06
 0.76669998E+02 -0.20310E+06
 0.76720001E+02 -0.21328E+06
 0.76769997E+02 -0.24674E+06
 0.76820000E+02 -0.28696E+06
 0.76869995E+02 -0.35745E+06
 0.76919998E+02 -0.42377E+06
 0.76970001E+02 -0.41830E+06
 0.77019997E+02 -0.30780E+06
 0.77070000E+02 -0.18216E+06
 0.77119995E+02 -0.11224E+06
 0.77169998E+02 -0.40794E+05
 0.77220001E+02 -0.36300E+04
 0.77269997E+02  0.19110E+04
 0.77320000E+02  0.13392E+05
 0.77369995E+02 -0.22298E+05
 0.77419998E+02 -0.88807E+05
 0.77470001E+02 -0.15773E+06
 0.77519997E+02 -0.27670E+06
 0.77570000E+02 -0.42954E+06
 0.77619995E+02 -0.58649E+06
 0.77669998E+02 -0.75415E+06
 0.77720001E+02 -0.92521E+06
 0.77769997E+02 -0.10709E+07
 0.77820000E+02 -0.11564E+07
 0.77869995E+02 -0.12337E+07
 0.77919998E+02 -0.13185E+07
 0.77970001E+02 -0.13818E+07
 0.78019997E+02 -0.14072E+07
 0.78070000E+02 -0.13805E+07
 0.78119995E+02 -0.13405E+07
 0.78169998E+02 -0.12446E+07
 0.78220001E+02 -0.10914E+07
 0.78269997E+02 -0.95448E+06
 0.78320000E+02 -0.83150E+06
 0.78369995E+02 -0.70960E+06
 0.78419998E+02 -0.59271E+06
 0.78470001E+02 -0.51314E+06
 0.78519997E+02 -0.46440E+06
 0.78570000E+02 -0.41268E+06
 0.78619995E+02 -0.37552E+06
 0.78669998E+02 -0.37407E+06
 0.78720001E+02 -0.40827E+06
 0.78769997E+02 -0.49713E+06
 0.78820000E+02 -0.64054E+06
 0.78869995E+02 -0.80818E+06
 0.78919998E+02 -0.96307E+06
 0.78970001E+02 -0.10583E+07
 0.79019997E+02 -0.11247E+07
 0.79070000E+02 -0.11959E+07
 0.79119995E+02 -0.12155E+07
 0.79169998E+02 -0.11742E+07
 0.79220001E+02 -0.11076E+07
 0.79269997E+02 -0.10566E+07
 0.79320000E+02 -0.10457E+07
 0.79369995E+02 -0.99645E+06
 0.79419998E+02 -0.88771E+06
 0.79470001E+02 -0.77704E+06
 0.79519997E+02 -0.68722E+06
 0.79570000E+02 -0.61704E+06
 0.79619995E+02 -0.56756E+06
 0.79669998E+02 -0.55451E+06
 0.79720001E+02 -0.55756E+06
 0.79769997E+02 -0.57155E+06
 0.79820000E+02 -0.56128E+06
 0.79869995E+02 -0.48766E+06
 0.79919998E+02 -0.38651E+06
 0.79970001E+02 -0.28498E+06
 0.80019997E+02 -0.20299E+06
 0.80070000E+02 -0.17076E+06
 0.80119995E+02 -0.20464E+06
 0.80169998E+02 -0.28738E+06
 0.80220001E+02 -0.38300E+06
 0.80269997E+02 -0.51647E+06
 0.80320000E+02 -0.68873E+06
 0.80369995E+02 -0.81730E+06
 0.80419998E+02 -0.86947E+06
 0.80470001E+02 -0.88134E+06
 0.80519997E+02 -0.89036E+06
 0.80570000E+02 -0.87454E+06
 0.80619995E+02 -0.85346E+06
 0.80669998E+02 -0.84658E+06
 0.80720001E+02 -0.83418E+06
 0.80769997E+02 -0.83591E+06
 0.80820000E+02 -0.83789E+06
 0.80869995E+02 -0.82874E+06
 0.80919998E+02 -0.80387E+06
 0.80970001E+02 -0.80550E+06
 0.81019997E+02 -0.88782E+06
 0.81070000E+02 -0.10144E+07
 0.81119995E+02 -0.11404E+07
 0.81169998E+02 -0.12451E+07
 0.81220001E+02 -0.13282E+07
 0.81269997E+02 -0.13968E+07
 0.81320000E+02 -0.14764E+07
 0.81369995E+02 -0.15853E+07
 0.81419998E+02 -0.16864E+07
 0.81470001E+02 -0.17604E+07
 0.81519997E+02 -0.18079E+07
 0.81570000E+02 -0.18620E+07
 0.81619995E+02 -0.18940E+07
 0.81669998E+02 -0.18301E+07
 0.81720001E+02 -0.17222E+07
 0.81769997E+02 -0.16144E+07
 0.81820000E+02 -0.15187E+07
 0.81869995E+02 -0.14603E+07
 0.81919998E+02 -0.14368E+07
 0.81970001E+02 -0.14084E+07
 0.82019997E+02 -0.13533E+07
 0.82070000E+02 -0.13075E+07
 0.82119995E+02 -0.12693E+07
 0.82169998E+02 -0.12201E+07
 0.82220001E+02 -0.11543E+07
 0.82269997E+02 -0.10664E+07
 0.82320000E+02 -0.93503E+06
 0.82369995E+02 -0.79465E+06
 0.82419998E+02 -0.70219E+06
 0.82470001E+02 -0.61057E+06
 0.82519997E+02 -0.52705E+06
 0.82570000E+02 -0.47571E+06
 0.82619995E+02 -0.43817E+06
 0.82669998E+02 -0.39173E+06
 0.82720001E+02 -0.33384E+06
 0.82769997E+02 -0.32244E+06
 0.82820000E+02 -0.34338E+06
 0.82869995E+02 -0.33995E+06
 0.82919998E+02 -0.27886E+06
 0.82970001E+02 -0.19985E+06
 0.83019997E+02 -0.15551E+06
 0.83070000E+02 -0.14555E+06
 0.83119995E+02 -0.15881E+06
 0.83169998E+02 -0.16383E+06
 0.83220001E+02 -0.18026E+06
 0.83269997E+02 -0.22646E+06
 0.83320000E+02 -0.28114E+06
 0.83369995E+02 -0.34757E+06
 0.83419998E+02 -0.45748E+06
 0.83470001E+02 -0.60160E+06
 0.83519997E+02 -0.72231E+06
 0.83570000E+02 -0.80017E+06
 0.83619995E+02 -0.85780E+06
 0.83669998E+02 -0.91019E+06
 0.83720001E+02 -0.91716E+06
 0.83769997E+02 -0.88758E+06
 0.83820000E+02 -0.89547E+06
 0.83869995E+02 -0.93415E+06
 0.83919998E+02 -0.93368E+06
 0.83970001E+02 -0.87179E+06
 0.84019997E+02 -0.78645E+06
 0.84070000E+02 -0.71509E+06
 0.84119995E+02 -0.68186E+06
 0.84169998E+02 -0.66616E+06
 0.84220001E+02 -0.64866E+06
 0.84269997E+02 -0.64855E+06
 0.84320000E+02 -0.64364E+06
 0.84369995E+02 -0.63419E+06
 0.84419998E+02 -0.65735E+06
 0.84470001E+02 -0.68496E+06
 0.84519997E+02 -0.70638E+06
 0.84570000E+02 -0.72540E+06
 0.84619995E+02 -0.73678E+06
 0.84669998E+02 -0.73386E+06
 0.84720001E+02 -0.69138E+06
 0.84769997E+02 -0.66195E+06
 0.84820000E+02 -0.67693E+06
 0.84869995E+02 -0.68331E+06
 0.84919998E+02 -0.65128E+06
 0.84970001E+02 -0.63098E+06
 0.85019997E+02 -0.67216E+06
 0.85070000E+02 -0.73587E+06
 0.85119995E+02 -0.77772E+06
 0.85169998E+02 -0.81425E+06
 0.85220001E+02 -0.87852E+06
 0.85269997E+02 -0.96366E+06
 0.85320000E+02 -0.10543E+07
 0.85369995E+02 -0.11678E+07
 0.85419998E+02 -0.12815E+07
 0.85470001E+02 -0.13209E+07
 0.85519997E+02 -0.12833E+07
 0.85570000E+02 -0.12198E+07
 0.85619995E+02 -0.11718E+07
 0.85669998E+02 -0.11482E+07
 0.85720001E+02 -0.11439E+07
 0.85769997E+02 -0.11633E+07
 0.85820000E+02 -0.11971E+07
 0.85869995E+02 -0.12417E+07
 0.85919998E+02 -0.12753E+07
 0.85970001E+02 -0.13125E+07
 0.86019997E+02 -0.13888E+07
 0.86070000E+02 -0.14917E+07
 0.86119995E+02 -0.15920E+07
 0.86169998E+02 -0.16529E+07
 0.86220001E+02 -0.16740E+07
 0.86269997E+02 -0.16658E+07
 0.86320000E+02 -0.16427E+07
 0.86369995E+02 -0.16125E+07
 0.86419998E+02 -0.15555E+07
 0.86470001E+02 -0.14947E+07
 0.86519997E+02 -0.14364E+07
 0.86570000E+02 -0.13564E+07
 0.86619995E+02 -0.12886E+07
 0.86669998E+02 -0.12795E+07
 0.86720001E+02 -0.13047E+07
 0.86769997E+02 -0.13335E+07
 0.86820000E+02 -0.13784E+07
 0.86869995E+02 -0.14430E+07
 0.86919998E+02 -0.15173E+07
 0.86970001E+02 -0.15773E+07
 0.87019997E+02 -0.15987E+07
 0.87070000E+02 -0.15818E+07
 0.87119995E+02 -0.15725E+07
 0.87169998E+02 -0.15798E+07
 0.87220001E+02 -0.15574E+07
 0.87269997E+02 -0.15138E+07
 0.87320000E+02 -0.14650E+07
 0.87369995E+02 -0.14133E+07
 0.87419998E+02 -0.13652E+07
 0.87470001E+02 -0.13115E+07
 0.87519997E+02 -0.12626E+07
 0.87570000E+02 -0.12459E+07
 0.87619995E+02 -0.12567E+07
 0.87669998E+02 -0.12627E+07
 0.87720001E+02 -0.12405E+07
 0.87769997E+02 -0.11647E+07
 0.87820000E+02 -0.10254E+07
 0.87869995E+02 -0.85307E+06
 0.87919998E+02 -0.70026E+06
 0.87970001E+02 -0.58389E+06
 0.88019997E+02 -0.48564E+06
 0.88070000E+02 -0.40219E+06
 0.88119995E+02 -0.34189E+06
 0.88169998E+02 -0.32156E+06
 0.88220001E+02 -0.35095E+06
 0.88269997E+02 -0.41960E+06
 0.88320000E+02 -0.49220E+06
 0.88369995E+02 -0.56004E+06
 0.88419998E+02 -0.62578E+06
 0.88470001E+02 -0.65914E+06
 0.88519997E+02 -0.66303E+06
 0.88570000E+02 -0.65560E+06
 0.88619995E+02 -0.65688E+06
 0.88669998E+02 -0.68535E+06
 0.88720001E+02 -0.73855E+06
 0.88769997E+02 -0.78788E+06
 0.88820000E+02 -0.81363E+06
 0.88869995E+02 -0.82606E+06
 0.88919998E+02 -0.84604E+06
 0.88970001E+02 -0.88540E+06
 0.89019997E+02 -0.90518E+06
 0.89070000E+02 -0.92325E+06
 0.89119995E+02 -0.97144E+06
 0.89169998E+02 -0.10305E+07
 0.89220001E+02 -0.10984E+07
 0.89269997E+02 -0.11661E+07
 0.89320000E+02 -0.12356E+07
 0.89369995E+02 -0.12897E+07
 0.89419998E+02 -0.13107E+07
 0.89470001E+02 -0.13353E+07
 0.89519997E+02 -0.13911E+07
 0.89570000E+02 -0.14639E+07
 0.89619995E+02 -0.15306E+07
 0.89669998E+02 -0.15803E+07
 0.89720001E+02 -0.16270E+07
 0.89769997E+02 -0.16822E+07
 0.89820000E+02 -0.17476E+07
 0.89869995E+02 -0.18283E+07
 0.89919998E+02 -0.19018E+07
 0.89970001E+02 -0.19589E+07
 0.90019997E+02 -0.19927E+07
 0.90070000E+02 -0.19766E+07
 0.90119995E+02 -0.18954E+07
 0.90169998E+02 -0.17689E+07
 0.90220001E+02 -0.16263E+07
 0.90269997E+02 -0.14922E+07
 0.90320000E+02 -0.14277E+07
 0.90369995E+02 -0.14316E+07
 0.90419998E+02 -0.14556E+07
 0.90470001E+02 -0.14736E+07
 0.90519997E+02 -0.14661E+07
 0.90570000E+02 -0.14470E+07
 0.90619995E+02 -0.14231E+07
 0.90669998E+02 -0.13844E+07
 0.90720001E+02 -0.13337E+07
 0.90769997E+02 -0.12890E+07
 0.90820000E+02 -0.12606E+07
 0.90869995E+02 -0.12369E+07
 0.90919998E+02 -0.12104E+07
 0.90970001E+02 -0.11731E+07
 0.91019997E+02 -0.11208E+07
 0.91070000E+02 -0.10537E+07
 0.91119995E+02 -0.97026E+06
 0.91169998E+02 -0.88310E+06
 0.91220001E+02 -0.82876E+06
 0.91269997E+02 -0.84230E+06
 0.91320000E+02 -0.88419E+06
 0.91369995E+02 -0.90607E+06
 0.91419998E+02 -0.91736E+06
 0.91470001E+02 -0.93145E+06
 0.91519997E+02 -0.94812E+06
 0.91570000E+02 -0.99518E+06
 0.91619995E+02 -0.10682E+07
 0.91669998E+02 -0.11232E+07
 0.91720001E+02 -0.12033E+07
 0.91769997E+02 -0.13146E+07
 0.91820000E+02 -0.13879E+07
 0.91869995E+02 -0.14139E+07
 0.91919998E+02 -0.14003E+07
 0.91970001E+02 -0.13549E+07
 0.92019997E+02 -0.13239E+07
 0.92070000E+02 -0.13328E+07
 0.92119995E+02 -0.13515E+07
 0.92169998E+02 -0.13697E+07
 0.92220001E+02 -0.14243E+07
 0.92269997E+02 -0.15231E+07
 0.92320000E+02 -0.16174E+07
 0.92369995E+02 -0.16558E+07
 0.92419998E+02 -0.16293E+07
 0.92470001E+02 -0.15757E+07
 0.92519997E+02 -0.15360E+07
 0.92570000E+02 -0.15296E+07
 0.92619995E+02 -0.15372E+07
 0.92669998E+02 -0.15231E+07
 0.92720001E+02 -0.14901E+07
 0.92769997E+02 -0.14487E+07
 0.92820000E+02 -0.14101E+07
 0.92869995E+02 -0.13938E+07
 0.92919998E+02 -0.13953E+07
 0.92970001E+02 -0.13912E+07
 0.93019997E+02 -0.13636E+07
 0.93070000E+02 -0.13159E+07
 0.93119995E+02 -0.12652E+07
 0.93169998E+02 -0.12221E+07
 0.93220001E+02 -0.11857E+07
 0.93269997E+02 -0.11598E+07
 0.93320000E+02 -0.11404E+07
 0.93369995E+02 -0.11133E+07
 0.93419998E+02 -0.10778E+07
 0.93470001E+02 -0.10452E+07
 0.93519997E+02 -0.10509E+07
 0.93570000E+02 -0.11004E+07
 0.93619995E+02 -0.11617E+07
 0.93669998E+02 -0.12266E+07
 0.93720001E+02 -0.12912E+07
 0.93769997E+02 -0.13479E+07
 0.93820000E+02 -0.13847E+07
 0.93869995E+02 -0.13808E+07
 0.93919998E+02 -0.13303E+07
 0.93970001E+02 -0.12797E+07
 0.94019997E+02 -0.12686E+07
 0.94070000E+02 -0.12607E+07
 0.94119995E+02 -0.12286E+07
 0.94169998E+02 -0.11806E+07
 0.94220001E+02 -0.11459E+07
 0.94269997E+02 -0.11540E+07
 0.94320000E+02 -0.11836E+07
 0.94369995E+02 -0.12280E+07
 0.94419998E+02 -0.12988E+07
 0.94470001E+02 -0.13648E+07
 0.94519997E+02 -0.14116E+07
 0.94570000E+02 -0.14478E+07
 0.94619995E+02 -0.14577E+07
 0.94669998E+02 -0.14401E+07
 0.94720001E+02 -0.14235E+07
 0.94769997E+02 -0.14209E+07
 0.94820000E+02 -0.14120E+07
 0.94869995E+02 -0.13874E+07
 0.94919998E+02 -0.13567E+07
 0.94970001E+02 -0.13309E+07
 0.95019997E+02 -0.13343E+07
 0.95070000E+02 -0.13797E+07
 0.95119995E+02 -0.14454E+07
 0.95169998E+02 -0.14852E+07
 0.95220001E+02 -0.14952E+07
 0.95269997E+02 -0.15103E+07
 0.95320000E+02 -0.15403E+07
 0.95369995E+02 -0.16132E+07
 0.95419998E+02 -0.16808E+07
 0.95470001E+02 -0.16753E+07
 0.95519997E+02 -0.16291E+07
 0.95570000E+02 -0.15821E+07
 0.95619995E+02 -0.15897E+07
 0.95669998E+02 -0.16560E+07
 0.95720001E+02 -0.17373E+07
 0.95769997E+02 -0.18010E+07
 0.95820000E+02 -0.18193E+07
 0.95869995E+02 -0.17884E+07
 0.95919998E+02 -0.17192E+07
 0.95970001E+02 -0.16467E+07
 0.96019997E+02 -0.15834E+07
 0.96070000E+02 -0.15304E+07
 0.96119995E+02 -0.14945E+07
 0.96169998E+02 -0.14553E+07
 0.96220001E+02 -0.13978E+07
 0.96269997E+02 -0.13090E+07
 0.96320000E+02 -0.11984E+07
 0.96369995E+02 -0.10836E+07
 0.96419998E+02 -0.96558E+06
 0.96470001E+02 -0.84603E+06
 0.96519997E+02 -0.73721E+06
 0.96570000E+02 -0.66316E+06
 0.96619995E+02 -0.61352E+06
 0.96669998E+02 -0.58459E+06
 0.96720001E+02 -0.57802E+06
 0.96769997E+02 -0.58810E+06
 0.96820000E+02 -0.62002E+06
 0.96869995E+02 -0.66395E+06
 0.96919998E+02 -0.70061E+06
 0.96970001E+02 -0.67603E+06
 0.97019997E+02 -0.65050E+06
 0.97070000E+02 -0.68576E+06
 0.97119995E+02 -0.70981E+06
 0.97169998E+02 -0.79796E+06
 0.97220001E+02 -0.91902E+06
 0.97269997E+02 -0.10058E+07
 0.97320000E+02 -0.11361E+07
 0.97369995E+02 -0.12425E+07
 0.97419998E+02 -0.13116E+07
 0.97470001E+02 -0.13746E+07
 0.97519997E+02 -0.13849E+07
 0.97570000E+02 -0.13664E+07
 0.97619995E+02 -0.13950E+07
 0.97669998E+02 -0.14314E+07
 0.97720001E+02 -0.14259E+07
 0.97769997E+02 -0.14547E+07
 0.97820000E+02 -0.15284E+07
 0.97869995E+02 -0.16126E+07
 0.97919998E+02 -0.17291E+07
 0.97970001E+02 -0.18419E+07
 0.98019997E+02 -0.19382E+07
 0.98070000E+02 -0.19966E+07
 0.98119995E+02 -0.19618E+07
 0.98169998E+02 -0.19102E+07
 0.98220001E+02 -0.18695E+07
 0.98269997E+02 -0.18539E+07
 0.98320000E+02 -0.19137E+07
 0.98369995E+02 -0.20042E+07
 0.98419998E+02 -0.21014E+07
 0.98470001E+02 -0.21860E+07
 0.98519997E+02 -0.22400E+07
 0.98570000E+02 -0.22620E+07
 0.98619995E+02 -0.22199E+07
 0.98669998E+02 -0.21283E+07
 0.98720001E+02 -0.20366E+07
 0.98769997E+02 -0.19457E+07
 0.98820000E+02 -0.18619E+07
 0.98869995E+02 -0.18027E+07
 0.98919998E+02 -0.17414E+07
 0.98970001E+02 -0.16822E+07
 0.99019997E+02 -0.16521E+07
 0.99070000E+02 -0.16503E+07
 0.99119995E+02 -0.16574E+07
 0.99169998E+02 -0.16492E+07
 0.99220001E+02 -0.16134E+07
 0.99269997E+02 -0.15583E+07
 0.99320000E+02 -0.14968E+07
 0.99369995E+02 -0.14455E+07
 0.99419998E+02 -0.14030E+07
 0.99470001E+02 -0.13590E+07
 0.99519997E+02 -0.13336E+07
 0.99570000E+02 -0.13164E+07
 0.99619995E+02 -0.13174E+07
 0.99669998E+02 -0.13460E+07
 0.99720001E+02 -0.13582E+07
 0.99769997E+02 -0.13248E+07
 0.99820000E+02 -0.12314E+07
 0.99869995E+02 -0.11004E+07
 0.99919998E+02 -0.97150E+06
 0.99970001E+02 -0.87258E+06
 0.10002000E+03 -0.83940E+06
 0.10007000E+03 -0.85914E+06
 0.10012000E+03 -0.87918E+06
 0.10017000E+03 -0.88594E+06
 0.10022000E+03 -0.87074E+06
 0.10027000E+03 -0.83606E+06
 0.10032000E+03 -0.79596E+06
 0.10037000E+03 -0.76784E+06
 0.10042000E+03 -0.77636E+06
 0.10047000E+03 -0.79507E+06
 0.10052000E+03 -0.81920E+06
 0.10057000E+03 -0.86781E+06
 0.10062000E+03 -0.91329E+06
 0.10067000E+03 -0.93966E+06
 0.10072000E+03 -0.95655E+06
 0.10077000E+03 -0.97430E+06
 0.10082000E+03 -0.10162E+07
 0.10087000E+03 -0.10879E+07
 0.10092000E+03 -0.11762E+07
 0.10097000E+03 -0.12649E+07
 0.10102000E+03 -0.13260E+07
 0.10107000E+03 -0.13635E+07
 0.10112000E+03 -0.13849E+07
 0.10117000E+03 -0.13802E+07
 0.10122000E+03 -0.13636E+07
 0.10127000E+03 -0.13496E+07
 0.10132000E+03 -0.13311E+07
 0.10137000E+03 -0.13133E+07
 0.10142000E+03 -0.13032E+07
 0.10147000E+03 -0.12894E+07
 0.10152000E+03 -0.12721E+07
 0.10157000E+03 -0.12487E+07
 0.10162000E+03 -0.12251E+07
 0.10167000E+03 -0.12224E+07
 0.10172000E+03 -0.12550E+07
 0.10177000E+03 -0.13085E+07
 0.10182000E+03 -0.13588E+07
 0.10187000E+03 -0.14189E+07
 0.10192000E+03 -0.14775E+07
 0.10197000E+03 -0.15199E+07
 0.10202000E+03 -0.15576E+07
 0.10207000E+03 -0.15822E+07
 0.10212000E+03 -0.16026E+07
 0.10217000E+03 -0.16179E+07
 0.10222000E+03 -0.16202E+07
 0.10227000E+03 -0.16440E+07
 0.10232000E+03 -0.17035E+07
 0.10237000E+03 -0.17617E+07
 0.10242000E+03 -0.17872E+07
 0.10247000E+03 -0.17935E+07
 0.10252000E+03 -0.17834E+07
 0.10257000E+03 -0.17524E+07
 0.10262000E+03 -0.17112E+07
 0.10267000E+03 -0.16809E+07
 0.10272000E+03 -0.16724E+07
 0.10277000E+03 -0.16601E+07
 0.10282000E+03 -0.16417E+07
 0.10287000E+03 -0.16245E+07
 0.10292000E+03 -0.16140E+07
 0.10297000E+03 -0.16133E+07
 0.10302000E+03 -0.16112E+07
 0.10307000E+03 -0.16172E+07
 0.10312000E+03 -0.16396E+07
 0.10317000E+03 -0.16569E+07
 0.10322000E+03 -0.16580E+07
 0.10327000E+03 -0.16585E+07
 0.10332000E+03 -0.16592E+07
 0.10337000E+03 -0.16657E+07
 0.10342000E+03 -0.16814E+07
 0.10347000E+03 -0.16945E+07
 0.10352000E+03 -0.16992E+07
 0.10357000E+03 -0.16946E+07
 0.10362000E+03 -0.17081E+07
 0.10367000E+03 -0.17628E+07
 0.10372000E+03 -0.18464E+07
 0.10377000E+03 -0.19256E+07
 0.10382000E+03 -0.19693E+07
 0.10387000E+03 -0.19763E+07
 0.10392000E+03 -0.19479E+07
 0.10397000E+03 -0.19029E+07
 0.10402000E+03 -0.18555E+07
 0.10407000E+03 -0.18046E+07
 0.10412000E+03 -0.17620E+07
 0.10417000E+03 -0.17127E+07
 0.10422000E+03 -0.16540E+07
 0.10427000E+03 -0.15911E+07
 0.10432000E+03 -0.15269E+07
 0.10437000E+03 -0.14825E+07
 0.10442000E+03 -0.14542E+07
 0.10447000E+03 -0.14312E+07
 0.10452000E+03 -0.14086E+07
 0.10457000E+03 -0.13930E+07
 0.10462000E+03 -0.14060E+07
 0.10467000E+03 -0.14283E+07
 0.10472000E+03 -0.14252E+07
 0.10477000E+03 -0.13929E+07
 0.10482000E+03 -0.13536E+07
 0.10487000E+03 -0.13312E+07
 0.10492000E+03 -0.13456E+07
 0.10497000E+03 -0.13887E+07
 0.10502000E+03 -0.14220E+07
 0.10507000E+03 -0.14323E+07
 0.10512000E+03 -0.14165E+07
 0.10517000E+03 -0.13972E+07
 0.10522000E+03 -0.13942E+07
 0.10527000E+03 -0.13988E+07
 0.10532000E+03 -0.14040E+07
 0.10537000E+03 -0.14057E+07
 0.10542000E+03 -0.14205E+07
 0.10547000E+03 -0.14356E+07
 0.10552000E+03 -0.14420E+07
 0.10557000E+03 -0.14604E+07
 0.10562000E+03 -0.14874E+07
 0.10567000E+03 -0.15187E+07
 0.10572000E+03 -0.15522E+07
 0.10577000E+03 -0.15807E+07
 0.10582000E+03 -0.16083E+07
 0.10587000E+03 -0.16531E+07
 0.10592000E+03 -0.17209E+07
 0.10597000E+03 -0.17978E+07
 0.10602000E+03 -0.18640E+07
 0.10607000E+03 -0.19129E+07
 0.10612000E+03 -0.19402E+07
 0.10617000E+03 -0.19425E+07
 0.10622000E+03 -0.19419E+07
 0.10627000E+03 -0.19425E+07
 0.10632000E+03 -0.19462E+07
 0.10637000E+03 -0.19578E+07
 0.10642000E+03 -0.19729E+07
 0.10647000E+03 -0.19928E+07
 0.10652000E+03 -0.20128E+07
 0.10657000E+03 -0.20295E+07
 0.10662000E+03 -0.20302E+07
 0.10667000E+03 -0.20107E+07
 0.10672000E+03 -0.19800E+07
 0.10677000E+03 -0.19471E+07
 0.10682000E+03 -0.19110E+07
 0.10687000E+03 -0.18616E+07
 0.10692000E+03 -0.17897E+07
 0.10697000E+03 -0.16957E+07
 0.10702000E+03 -0.15976E+07
 0.10707000E+03 -0.15113E+07
 0.10712000E+03 -0.14389E+07
 0.10717000E+03 -0.13616E+07
 0.10722000E+03 -0.12882E+07
 0.10727000E+03 -0.12413E+07
 0.10732000E+03 -0.12034E+07
 0.10737000E+03 -0.11675E+07
 0.10742000E+03 -0.11414E+07
 0.10747000E+03 -0.11143E+07
 0.10752000E+03 -0.10933E+07
 0.10757000E+03 -0.10985E+07
 0.10762000E+03 -0.11249E+07
 0.10767000E+03 -0.11611E+07
 0.10772000E+03 -0.11869E+07
 0.10777000E+03 -0.12019E+07
 0.10782000E+03 -0.12255E+07
 0.10787000E+03 -0.12572E+07
 0.10792000E+03 -0.12881E+07
 0.10797000E+03 -0.13060E+07
 0.10802000E+03 -0.13071E+07
 0.10807000E+03 -0.12956E+07
 0.10812000E+03 -0.12731E+07
 0.10817000E+03 -0.12368E+07
 0.10822000E+03 -0.11951E+07
 0.10827000E+03 -0.11641E+07
 0.10832000E+03 -0.11449E+07
 0.10837000E+03 -0.11443E+07
 0.10842000E+03 -0.11658E+07
 0.10847000E+03 -0.11973E+07
 0.10852000E+03 -0.12420E+07
 0.10857000E+03 -0.12947E+07
 0.10862000E+03 -0.13378E+07
 0.10867000E+03 -0.13713E+07
 0.10872000E+03 -0.13932E+07
 0.10877000E+03 -0.14036E+07
 0.10882000E+03 -0.14171E+07
 0.10887000E+03 -0.14356E+07
 0.10892000E+03 -0.14571E+07
 0.10897000E+03 -0.14941E+07
 0.10902000E+03 -0.15490E+07
 0.10907000E+03 -0.16109E+07
 0.10912000E+03 -0.16558E+07
 0.10917000E+03 -0.16504E+07
 0.10922000E+03 -0.16055E+07
 0.10927000E+03 -0.15549E+07
 0.10932000E+03 -0.15139E+07
 0.10937000E+03 -0.15007E+07
 0.10942000E+03 -0.15227E+07
 0.10947000E+03 -0.15645E+07
 0.10952000E+03 -0.16135E+07
 0.10957000E+03 -0.16576E+07
 0.10962000E+03 -0.16714E+07
 0.10967000E+03 -0.16646E+07
 0.10972000E+03 -0.16636E+07
 0.10977000E+03 -0.16732E+07
 0.10982000E+03 -0.16907E+07
 0.10987000E+03 -0.16995E+07
 0.10992000E+03 -0.16922E+07
 0.10997000E+03 -0.16688E+07
 0.11002000E+03 -0.16476E+07
 0.11007000E+03 -0.16464E+07
 0.11012000E+03 -0.16514E+07
 0.11017000E+03 -0.16513E+07
 0.11022000E+03 -0.16513E+07
 0.11027000E+03 -0.16606E+07
 0.11032000E+03 -0.16689E+07
 0.11037000E+03 -0.16691E+07
 0.11042000E+03 -0.16758E+07
 0.11047000E+03 -0.16981E+07
 0.11052000E+03 -0.17296E+07
 0.11057000E+03 -0.17498E+07
 0.11062000E+03 -0.17569E+07
 0.11067000E+03 -0.17699E+07
 0.11072000E+03 -0.17897E+07
 0.11077000E+03 -0.18162E+07
 0.11082000E+03 -0.18415E+07
 0.11087000E+03 -0.18475E+07
 0.11092000E+03 -0.18398E+07
 0.11097000E+03 -0.18307E+07
 0.11102000E+03 -0.18211E+07
 0.11107000E+03 -0.18055E+07
 0.11112000E+03 -0.17825E+07
 0.11117000E+03 -0.17603E+07
 0.11122000E+03 -0.17489E+07
 0.11127000E+03 -0.17526E+07
 0.11132000E+03 -0.17568E+07
 0.11137000E+03 -0.17531E+07
 0.11142000E+03 -0.17496E+07
 0.11147000E+03 -0.17435E+07
 0.11152000E+03 -0.17342E+07
 0.11157000E+03 -0.17210E+07
 0.11162000E+03 -0.16932E+07
 0.11167000E+03 -0.16472E+07
 0.11172000E+03 -0.15934E+07
 0.11177000E+03 -0.15438E+07
 0.11182000E+03 -0.15083E+07
 0.11187000E+03 -0.14928E+07
 0.11192000E+03 -0.14876E+07
 0.11197000E+03 -0.14799E+07
 0.11202000E+03 -0.14610E+07
 0.11207000E+03 -0.14263E+07
 0.11212000E+03 -0.13789E+07
 0.11217000E+03 -0.13248E+07
 0.11222000E+03 -0.12687E+07
 0.11227000E+03 -0.12223E+07
 0.11232000E+03 -0.11945E+07
 0.11237000E+03 -0.11711E+07
 0.11242000E+03 -0.11571E+07
 0.11247000E+03 -0.11652E+07
 0.11252000E+03 -0.11784E+07
 0.11257000E+03 -0.11889E+07
 0.11262000E+03 -0.11942E+07
 0.11267000E+03 -0.12166E+07
 0.11272000E+03 -0.12711E+07
 0.11277000E+03 -0.13469E+07
 0.11282000E+03 -0.14440E+07
 0.11287000E+03 -0.15331E+07
 0.11292000E+03 -0.15968E+07
 0.11297000E+03 -0.16449E+07
 0.11302000E+03 -0.16814E+07
 0.11307000E+03 -0.17090E+07
 0.11312000E+03 -0.17298E+07
 0.11317000E+03 -0.17425E+07
 0.11322000E+03 -0.17402E+07
 0.11327000E+03 -0.17243E+07
 0.11332000E+03 -0.16981E+07
 0.11337000E+03 -0.16699E+07
 0.11342000E+03 -0.16457E+07
 0.11347000E+03 -0.16152E+07
 0.11352000E+03 -0.15855E+07
 0.11357000E+03 -0.15683E+07
 0.11362000E+03 -0.15516E+07
 0.11367000E+03 -0.15389E+07
 0.11372000E+03 -0.15363E+07
 0.11377000E+03 -0.15296E+07
 0.11382000E+03 -0.15075E+07
 0.11387000E+03 -0.14727E+07
 0.11392000E+03 -0.14203E+07
 0.11397000E+03 -0.13529E+07
 0.11402000E+03 -0.12955E+07
 0.11407000E+03 -0.12506E+07
 0.11412000E+03 -0.12197E+07
 0.11417000E+03 -0.12068E+07
 0.11422000E+03 -0.12072E+07
 0.11427000E+03 -0.12130E+07
 0.11432000E+03 -0.12200E+07
 0.11437000E+03 -0.12253E+07
 0.11442000E+03 -0.12245E+07
 0.11447000E+03 -0.12377E+07
 0.11452000E+03 -0.12669E+07
 0.11457000E+03 -0.13070E+07
 0.11462000E+03 -0.13461E+07
 0.11467000E+03 -0.13694E+07
 0.11472000E+03 -0.13784E+07
 0.11477000E+03 -0.13803E+07
 0.11482000E+03 -0.13938E+07
 0.11487000E+03 -0.14065E+07
 0.11492000E+03 -0.14313E+07
 0.11497000E+03 -0.14719E+07
 0.11502000E+03 -0.15087E+07
 0.11507000E+03 -0.15584E+07
 0.11512000E+03 -0.15783E+07
 0.11517000E+03 -0.15725E+07
 0.11522000E+03 -0.15907E+07
 0.11527000E+03 -0.15891E+07
 0.11532000E+03 -0.15864E+07
 0.11537000E+03 -0.16047E+07
 0.11542000E+03 -0.16068E+07
 0.11547000E+03 -0.16259E+07
 0.11552000E+03 -0.16461E+07
 0.11557000E+03 -0.16418E+07
 0.11562000E+03 -0.16359E+07
 0.11567000E+03 -0.16208E+07
 0.11572000E+03 -0.16100E+07
 0.11577000E+03 -0.16033E+07
 0.11582000E+03 -0.15951E+07
 0.11587000E+03 -0.15918E+07
 0.11592000E+03 -0.15786E+07
 0.11597000E+03 -0.15783E+07
 0.11602000E+03 -0.15941E+07
 0.11607000E+03 -0.16034E+07
 0.11612000E+03 -0.16315E+07
 0.11617000E+03 -0.16706E+07
 0.11622000E+03 -0.16976E+07
 0.11627000E+03 -0.17232E+07
 0.11632000E+03 -0.17402E+07
 0.11637000E+03 -0.17512E+07
 0.11642000E+03 -0.17713E+07
 0.11647000E+03 -0.18000E+07
 0.11652000E+03 -0.18273E+07
 0.11657000E+03 -0.18445E+07
 0.11662000E+03 -0.18391E+07
 0.11667000E+03 -0.18066E+07
 0.11672000E+03 -0.17785E+07
 0.11677000E+03 -0.17656E+07
 0.11682000E+03 -0.17581E+07
 0.11687000E+03 -0.17628E+07
 0.11692000E+03 -0.17731E+07
 0.11697000E+03 -0.17650E+07
 0.11702000E+03 -0.17377E+07
 0.11707000E+03 -0.17109E+07
 0.11712000E+03 -0.16820E+07
 0.11717000E+03 -0.16459E+07
 0.11722000E+03 -0.15983E+07
 0.11727000E+03 -0.15428E+07
 0.11732000E+03 -0.14883E+07
 0.11737000E+03 -0.14345E+07
 0.11742000E+03 -0.13834E+07
 0.11747000E+03 -0.13474E+07
 0.11752000E+03 -0.13312E+07
 0.11757000E+03 -0.13152E+07
 0.11762000E+03 -0.12900E+07
 0.11767000E+03 -0.12619E+07
 0.11772000E+03 -0.12438E+07
 0.11777000E+03 -0.12373E+07
 0.11782000E+03 -0.12355E+07
 0.11787000E+03 -0.12351E+07
 0.11792000E+03 -0.12408E+07
 0.11797000E+03 -0.12550E+07
 0.11802000E+03 -0.12768E+07
 0.11807000E+03 -0.13039E+07
 0.11812000E+03 -0.13294E+07
 0.11817000E+03 -0.13611E+07
 0.11822000E+03 -0.13950E+07
 0.11827000E+03 -0.14295E+07
 0.11832000E+03 -0.14625E+07
 0.11837000E+03 -0.14920E+07
 0.11842000E+03 -0.15139E+07
 0.11847000E+03 -0.15185E+07
 0.11852000E+03 -0.15136E+07
 0.11857000E+03 -0.14950E+07
 0.11862000E+03 -0.14735E+07
 0.11867000E+03 -0.14605E+07
 0.11872000E+03 -0.14547E+07
 0.11877000E+03 -0.14580E+07
 0.11882000E+03 -0.14707E+07
 0.11887000E+03 -0.14907E+07
 0.11892000E+03 -0.15011E+07
 0.11897000E+03 -0.15007E+07
 0.11902000E+03 -0.15036E+07
 0.11907000E+03 -0.15229E+07
 0.11912000E+03 -0.15582E+07
 0.11917000E+03 -0.15951E+07
 0.11922000E+03 -0.16314E+07
 0.11927000E+03 -0.16625E+07
 0.11932000E+03 -0.16793E+07
 0.11937000E+03 -0.16958E+07
 0.11942000E+03 -0.17192E+07
 0.11947000E+03 -0.17412E+07
 0.11952000E+03 -0.17591E+07
 0.11957000E+03 -0.17722E+07
 0.11962000E+03 -0.17875E+07
 0.11967000E+03 -0.18113E+07
 0.11972000E+03 -0.18399E+07
 0.11977000E+03 -0.18590E+07
 0.11982000E+03 -0.18705E+07
 0.11987000E+03 -0.18884E+07
 0.11992000E+03 -0.19123E+07
 0.11997000E+03 -0.19334E+07
 0.12002000E+03 -0.19392E+07
 0.12007000E+03 -0.19339E+07
 0.12012000E+03 -0.19258E+07
 0.12017000E+03 -0.19111E+07
 0.12022000E+03 -0.18917E+07
 0.12027000E+03 -0.18657E+07
 0.12032000E+03 -0.18362E+07
 0.12037000E+03 -0.18109E+07
 0.12042000E+03 -0.17883E+07
 0.12047000E+03 -0.17605E+07
 0.12052000E+03 -0.17171E+07
 0.12057000E+03 -0.16580E+07
 0.12062000E+03 -0.15894E+07
 0.12067000E+03 -0.15181E+07
 0.12072000E+03 -0.14471E+07
 0.12077000E+03 -0.13856E+07
 0.12082000E+03 -0.13436E+07
 0.12087000E+03 -0.13073E+07
 0.12092000E+03 -0.12695E+07
 0.12097000E+03 -0.12358E+07
 0.12102000E+03 -0.12079E+07
 0.12107000E+03 -0.11879E+07
 0.12112000E+03 -0.11710E+07
 0.12117000E+03 -0.11521E+07
 0.12122000E+03 -0.11419E+07
 0.12127000E+03 -0.11512E+07
 0.12132000E+03 -0.11835E+07
 0.12137000E+03 -0.12337E+07
 0.12142000E+03 -0.12920E+07
 0.12147000E+03 -0.13555E+07
 0.12152000E+03 -0.14101E+07
 0.12157000E+03 -0.14420E+07
 0.12162000E+03 -0.14534E+07
 0.12167000E+03 -0.14513E+07
 0.12172000E+03 -0.14497E+07
 0.12177000E+03 -0.14563E+07
 0.12182000E+03 -0.14724E+07
 0.12187000E+03 -0.15068E+07
 0.12192000E+03 -0.15575E+07
 0.12197000E+03 -0.16149E+07
 0.12202000E+03 -0.16731E+07
 0.12207000E+03 -0.17214E+07
 0.12212000E+03 -0.17516E+07
 0.12217000E+03 -0.17618E+07
 0.12222000E+03 -0.17523E+07
 0.12227000E+03 -0.17343E+07
 0.12232000E+03 -0.17204E+07
 0.12237000E+03 -0.17153E+07
 0.12242000E+03 -0.17202E+07
 0.12247000E+03 -0.17245E+07
 0.12252000E+03 -0.17210E+07
 0.12257000E+03 -0.17071E+07
 0.12262000E+03 -0.16841E+07
 0.12267000E+03 -0.16570E+07
 0.12272000E+03 -0.16311E+07
 0.12277000E+03 -0.16171E+07
 0.12282000E+03 -0.16110E+07
 0.12287000E+03 -0.15986E+07
 0.12292000E+03 -0.15641E+07
 0.12297000E+03 -0.15219E+07
 0.12302000E+03 -0.14910E+07
 0.12307000E+03 -0.14650E+07
 0.12312000E+03 -0.14465E+07
 0.12317000E+03 -0.14384E+07
 0.12322000E+03 -0.14413E+07
 0.12327000E+03 -0.14375E+07
 0.12332000E+03 -0.14161E+07
 0.12337000E+03 -0.13808E+07
 0.12342000E+03 -0.13363E+07
 0.12347000E+03 -0.12945E+07
 0.12352000E+03 -0.12581E+07
 0.12357000E+03 -0.12343E+07
 0.12362000E+03 -0.12247E+07
 0.12367000E+03 -0.12256E+07
 0.12372000E+03 -0.12318E+07
 0.12377000E+03 -0.12364E+07
 0.12382000E+03 -0.12468E+07
 0.12387000E+03 -0.12677E+07
 0.12392000E+03 -0.12999E+07
 0.12397000E+03 -0.13447E+07
 0.12402000E+03 -0.13940E+07
 0.12407000E+03 -0.14344E+07
 0.12412000E+03 -0.14617E+07
 0.12417000E+03 -0.14790E+07
 0.12422000E+03 -0.14900E+07
 0.12427000E+03 -0.14936E+07
 0.12432000E+03 -0.14906E+07
 0.12437000E+03 -0.14884E+07
 0.12442000E+03 -0.15040E+07
 0.12447000E+03 -0.15470E+07
 0.12452000E+03 -0.16076E+07
 0.12457000E+03 -0.16735E+07
 0.12462000E+03 -0.17293E+07
 0.12467000E+03 -0.17667E+07
 0.12472000E+03 -0.17854E+07
 0.12477000E+03 -0.17861E+07
 0.12482000E+03 -0.17717E+07
 0.12487000E+03 -0.17495E+07
 0.12492000E+03 -0.17301E+07
 0.12497000E+03 -0.17148E+07
 0.12502000E+03 -0.16932E+07
 0.12507000E+03 -0.16557E+07
 0.12512000E+03 -0.16104E+07
 0.12517001E+03 -0.15721E+07
 0.12521999E+03 -0.15454E+07
 0.12527000E+03 -0.15325E+07
 0.12532000E+03 -0.15286E+07
 0.12537000E+03 -0.15199E+07
 0.12542001E+03 -0.15011E+07
 0.12546999E+03 -0.14758E+07
 0.12552000E+03 -0.14518E+07
 0.12557000E+03 -0.14281E+07
 0.12562000E+03 -0.13979E+07
 0.12567001E+03 -0.13690E+07
 0.12571999E+03 -0.13471E+07
 0.12577000E+03 -0.13350E+07
 0.12582000E+03 -0.13387E+07
 0.12587000E+03 -0.13611E+07
 0.12592001E+03 -0.14020E+07
 0.12596999E+03 -0.14544E+07
 0.12602000E+03 -0.15087E+07
 0.12607000E+03 -0.15530E+07
 0.12612000E+03 -0.15836E+07
 0.12617001E+03 -0.16049E+07
 0.12621999E+03 -0.16187E+07
 0.12627000E+03 -0.16266E+07
 0.12632000E+03 -0.16255E+07
 0.12637000E+03 -0.16131E+07
 0.12642001E+03 -0.15950E+07
 0.12646999E+03 -0.15745E+07
 0.12652000E+03 -0.15617E+07
 0.12657000E+03 -0.15599E+07
 0.12662000E+03 -0.15534E+07
 0.12667001E+03 -0.15365E+07
 0.12671999E+03 -0.15091E+07
 0.12677000E+03 -0.14732E+07
 0.12682000E+03 -0.14373E+07
 0.12687000E+03 -0.14036E+07
 0.12692001E+03 -0.13735E+07
 0.12696999E+03 -0.13489E+07
 0.12702000E+03 -0.13281E+07
 0.12707000E+03 -0.13088E+07
 0.12712000E+03 -0.12913E+07
 0.12717001E+03 -0.12741E+07
 0.12721999E+03 -0.12486E+07
 0.12727000E+03 -0.12151E+07
 0.12732000E+03 -0.11812E+07
 0.12737000E+03 -0.11514E+07
 0.12742001E+03 -0.11323E+07
 0.12746999E+03 -0.11185E+07
 0.12752000E+03 -0.11078E+07
 0.12757000E+03 -0.11066E+07
 0.12762000E+03 -0.11152E+07
 0.12767001E+03 -0.11297E+07
 0.12771999E+03 -0.11403E+07
 0.12777000E+03 -0.11467E+07
 0.12782000E+03 -0.11518E+07
 0.12787000E+03 -0.11563E+07
 0.12792001E+03 -0.11612E+07
 0.12796999E+03 -0.11694E+07
 0.12802000E+03 -0.11878E+07
 0.12807001E+03 -0.12134E+07
 0.12812001E+03 -0.12419E+07
 0.12817001E+03 -0.12748E+07
 0.12822000E+03 -0.13163E+07
 0.12827000E+03 -0.13608E+07
 0.12832001E+03 -0.13969E+07
 0.12837001E+03 -0.14255E+07
 0.12842001E+03 -0.14467E+07
 0.12847000E+03 -0.14618E+07
 0.12852000E+03 -0.14763E+07
 0.12857001E+03 -0.14929E+07
 0.12862001E+03 -0.15142E+07
 0.12867001E+03 -0.15366E+07
 0.12872000E+03 -0.15578E+07
 0.12877000E+03 -0.15776E+07
 0.12882001E+03 -0.15956E+07
 0.12887001E+03 -0.16140E+07
 0.12892001E+03 -0.16274E+07
 0.12897000E+03 -0.16342E+07
 0.12902000E+03 -0.16431E+07
 0.12907001E+03 -0.16608E+07
 0.12912001E+03 -0.16857E+07
 0.12917001E+03 -0.17083E+07
 0.12922000E+03 -0.17196E+07
 0.12927000E+03 -0.17176E+07
 0.12932001E+03 -0.17116E+07
 0.12937001E+03 -0.17122E+07
 0.12942001E+03 -0.17214E+07
 0.12947000E+03 -0.17343E+07
 0.12952000E+03 -0.17460E+07
 0.12957001E+03 -0.17570E+07
 0.12962001E+03 -0.17685E+07
 0.12967001E+03 -0.17817E+07
 0.12972000E+03 -0.17949E+07
 0.12977000E+03 -0.18018E+07
 0.12982001E+03 -0.18020E+07
 0.12987001E+03 -0.18017E+07
 0.12992001E+03 -0.18022E+07
 0.12997000E+03 -0.18042E+07
 0.13002000E+03 -0.18121E+07
 0.13007001E+03 -0.18257E+07
 0.13012001E+03 -0.18349E+07
 0.13017001E+03 -0.18323E+07
 0.13022000E+03 -0.18266E+07
 0.13027000E+03 -0.18247E+07
 0.13032001E+03 -0.18246E+07
 0.13037001E+03 -0.18275E+07
 0.13042001E+03 -0.18338E+07
 0.13047000E+03 -0.18397E+07
 0.13052000E+03 -0.18399E+07
 0.13057001E+03 -0.18285E+07
 0.13062001E+03 -0.18045E+07
 0.13067001E+03 -0.17757E+07
 0.13072000E+03 -0.17483E+07
 0.13077000E+03 -0.17212E+07
 0.13082001E+03 -0.16884E+07
 0.13087001E+03 -0.16477E+07
 0.13092001E+03 -0.16053E+07
 0.13097000E+03 -0.15621E+07
 0.13102000E+03 -0.15143E+07
 0.13107001E+03 -0.14640E+07
 0.13112001E+03 -0.14169E+07
 0.13117001E+03 -0.13788E+07
 0.13122000E+03 -0.13510E+07
 0.13127000E+03 -0.13324E+07
 0.13132001E+03 -0.13156E+07
 0.13137001E+03 -0.12873E+07
 0.13142001E+03 -0.12417E+07
 0.13147000E+03 -0.11769E+07
 0.13152000E+03 -0.10980E+07
 0.13157001E+03 -0.10219E+07
 0.13162001E+03 -0.96302E+06
 0.13167001E+03 -0.92479E+06
 0.13172000E+03 -0.90958E+06
 0.13177000E+03 -0.91077E+06
 0.13182001E+03 -0.91524E+06
 0.13187001E+03 -0.92124E+06
 0.13192001E+03 -0.92878E+06
 0.13197000E+03 -0.93871E+06
 0.13202000E+03 -0.95263E+06
 0.13207001E+03 -0.96728E+06
 0.13212001E+03 -0.98501E+06
 0.13217001E+03 -0.10100E+07
 0.13222000E+03 -0.10332E+07
 0.13227000E+03 -0.10427E+07
 0.13232001E+03 -0.10391E+07
 0.13237001E+03 -0.10340E+07
 0.13242001E+03 -0.10376E+07
 0.13247000E+03 -0.10488E+07
 0.13252000E+03 -0.10624E+07
 0.13257001E+03 -0.10788E+07
 0.13262001E+03 -0.11011E+07
 0.13267001E+03 -0.11242E+07
 0.13272000E+03 -0.11443E+07
 0.13277000E+03 -0.11583E+07
 0.13282001E+03 -0.11664E+07
 0.13287001E+03 -0.11798E+07
 0.13292001E+03 -0.12051E+07
 0.13297000E+03 -0.12404E+07
 0.13302000E+03 -0.12826E+07
 0.13307001E+03 -0.13234E+07
 0.13312001E+03 -0.13555E+07
 0.13317001E+03 -0.13764E+07
 0.13322000E+03 -0.13872E+07
 0.13327000E+03 -0.13926E+07
 0.13332001E+03 -0.13955E+07
 0.13337001E+03 -0.14025E+07
 0.13342001E+03 -0.14201E+07
 0.13347000E+03 -0.14493E+07
 0.13352000E+03 -0.14905E+07
 0.13357001E+03 -0.15342E+07
 0.13362001E+03 -0.15654E+07
 0.13367001E+03 -0.15802E+07
 0.13372000E+03 -0.15811E+07
 0.13377000E+03 -0.15671E+07
 0.13382001E+03 -0.15441E+07
 0.13387001E+03 -0.15207E+07
 0.13392001E+03 -0.14972E+07
 0.13397000E+03 -0.14735E+07
 0.13402000E+03 -0.14521E+07
 0.13407001E+03 -0.14348E+07
 0.13412001E+03 -0.14163E+07
 0.13417001E+03 -0.13937E+07
 0.13422000E+03 -0.13717E+07
 0.13427000E+03 -0.13513E+07
 0.13432001E+03 -0.13389E+07
 0.13437001E+03 -0.13394E+07
 0.13442001E+03 -0.13542E+07
 0.13447000E+03 -0.13782E+07
 0.13452000E+03 -0.14031E+07
 0.13457001E+03 -0.14266E+07
 0.13462001E+03 -0.14402E+07
 0.13467001E+03 -0.14432E+07
 0.13472000E+03 -0.14413E+07
 0.13477000E+03 -0.14364E+07
 0.13482001E+03 -0.14351E+07
 0.13487001E+03 -0.14410E+07
 0.13492001E+03 -0.14526E+07
 0.13497000E+03 -0.14621E+07
 0.13502000E+03 -0.14647E+07
 0.13507001E+03 -0.14605E+07
 0.13512001E+03 -0.14569E+07
 0.13517001E+03 -0.14611E+07
 0.13522000E+03 -0.14722E+07
 0.13527000E+03 -0.14888E+07
 0.13532001E+03 -0.15053E+07
 0.13537001E+03 -0.15175E+07
 0.13542001E+03 -0.15228E+07
 0.13547000E+03 -0.15212E+07
 0.13552000E+03 -0.15128E+07
 0.13557001E+03 -0.14972E+07
 0.13562001E+03 -0.14769E+07
 0.13567001E+03 -0.14551E+07
 0.13572000E+03 -0.14334E+07
 0.13577000E+03 -0.14101E+07
 0.13582001E+03 -0.13831E+07
 0.13587001E+03 -0.13503E+07
 0.13592001E+03 -0.13163E+07
 0.13597000E+03 -0.12812E+07
 0.13602000E+03 -0.12522E+07
 0.13607001E+03 -0.12406E+07
 0.13612001E+03 -0.12436E+07
 0.13617001E+03 -0.12527E+07
 0.13622000E+03 -0.12578E+07
 0.13627000E+03 -0.12593E+07
 0.13632001E+03 -0.12586E+07
 0.13637001E+03 -0.12574E+07
 0.13642001E+03 -0.12588E+07
 0.13647000E+03 -0.12642E+07
 0.13652000E+03 -0.12770E+07
 0.13657001E+03 -0.12973E+07
 0.13662001E+03 -0.13207E+07
 0.13667001E+03 -0.13382E+07
 0.13672000E+03 -0.13480E+07
 0.13677000E+03 -0.13544E+07
 0.13682001E+03 -0.13605E+07
 0.13687001E+03 -0.13682E+07
 0.13692001E+03 -0.13751E+07
 0.13697000E+03 -0.13776E+07
 0.13702000E+03 -0.13711E+07
 0.13707001E+03 -0.13587E+07
 0.13712001E+03 -0.13441E+07
 0.13717001E+03 -0.13252E+07
 0.13722000E+03 -0.13081E+07
 0.13727000E+03 -0.12975E+07
 0.13732001E+03 -0.12891E+07
 0.13737001E+03 -0.12837E+07
 0.13742001E+03 -0.12847E+07
 0.13747000E+03 -0.12905E+07
 0.13752000E+03 -0.13006E+07
 0.13757001E+03 -0.13139E+07
 0.13762001E+03 -0.13284E+07
 0.13767001E+03 -0.13468E+07
 0.13772000E+03 -0.13681E+07
 0.13777000E+03 -0.13817E+07
 0.13782001E+03 -0.13849E+07
 0.13787001E+03 -0.13780E+07
 0.13792001E+03 -0.13579E+07
 0.13797000E+03 -0.13306E+07
 0.13802000E+03 -0.13096E+07
 0.13807001E+03 -0.13008E+07
 0.13812001E+03 -0.12979E+07
 0.13817001E+03 -0.12983E+07
 0.13822000E+03 -0.13048E+07
 0.13827000E+03 -0.13115E+07
 0.13832001E+03 -0.13130E+07
 0.13837001E+03 -0.13106E+07
 0.13842001E+03 -0.13087E+07
 0.13847000E+03 -0.13136E+07
 0.13852000E+03 -0.13296E+07
 0.13857001E+03 -0.13509E+07
 0.13862001E+03 -0.13724E+07
 0.13867001E+03 -0.13964E+07
 0.13872000E+03 -0.14181E+07
 0.13877000E+03 -0.14304E+07
 0.13882001E+03 -0.14364E+07
 0.13887001E+03 -0.14379E+07
 0.13892001E+03 -0.14358E+07
 0.13897000E+03 -0.14373E+07
 0.13902000E+03 -0.14478E+07
 0.13907001E+03 -0.14659E+07
 0.13912001E+03 -0.14856E+07
 0.13917001E+03 -0.14959E+07
 0.13922000E+03 -0.14933E+07
 0.13927000E+03 -0.14817E+07
 0.13932001E+03 -0.14620E+07
 0.13937001E+03 -0.14424E+07
 0.13942001E+03 -0.14291E+07
 0.13947000E+03 -0.14167E+07
 0.13952000E+03 -0.14066E+07
 0.13957001E+03 -0.14003E+07
 0.13962001E+03 -0.13951E+07
 0.13967001E+03 -0.13918E+07
 0.13972000E+03 -0.13869E+07
 0.13977000E+03 -0.13762E+07
 0.13982001E+03 -0.13620E+07
 0.13987001E+03 -0.13501E+07
 0.13992001E+03 -0.13415E+07
 0.13997000E+03 -0.13367E+07
 0.14002000E+03 -0.13326E+07
 0.14007001E+03 -0.13240E+07
 0.14012001E+03 -0.13140E+07
 0.14017001E+03 -0.13017E+07
 0.14022000E+03 -0.12912E+07
 0.14027000E+03 -0.12925E+07
 0.14032001E+03 -0.13055E+07
 0.14037001E+03 -0.13227E+07
 0.14042001E+03 -0.13396E+07
 0.14047000E+03 -0.13480E+07
 0.14052000E+03 -0.13475E+07
 0.14057001E+03 -0.13438E+07
 0.14062001E+03 -0.13352E+07
 0.14067001E+03 -0.13233E+07
 0.14072000E+03 -0.13084E+07
 0.14077000E+03 -0.12926E+07
 0.14082001E+03 -0.12764E+07
 0.14087001E+03 -0.12565E+07
 0.14092001E+03 -0.12368E+07
 0.14097000E+03 -0.12183E+07
 0.14102000E+03 -0.11966E+07
 0.14107001E+03 -0.11787E+07
 0.14112001E+03 -0.11701E+07
 0.14117001E+03 -0.11672E+07
 0.14122000E+03 -0.11712E+07
 0.14127000E+03 -0.11827E+07
 0.14132001E+03 -0.11977E+07
 0.14137001E+03 -0.12176E+07
 0.14142001E+03 -0.12418E+07
 0.14147000E+03 -0.12675E+07
 0.14152000E+03 -0.12965E+07
 0.14157001E+03 -0.13258E+07
 0.14162001E+03 -0.13532E+07
 0.14167001E+03 -0.13811E+07
 0.14172000E+03 -0.14106E+07
 0.14177000E+03 -0.14408E+07
 0.14182001E+03 -0.14739E+07
 0.14187001E+03 -0.15104E+07
 0.14192001E+03 -0.15483E+07
 0.14197000E+03 -0.15854E+07
 0.14202000E+03 -0.16144E+07
 0.14207001E+03 -0.16360E+07
 0.14212001E+03 -0.16563E+07
 0.14217001E+03 -0.16759E+07
 0.14222000E+03 -0.16975E+07
 0.14227000E+03 -0.17236E+07
 0.14232001E+03 -0.17532E+07
 0.14237001E+03 -0.17777E+07
 0.14242001E+03 -0.17866E+07
 0.14247000E+03 -0.17745E+07
 0.14252000E+03 -0.17453E+07
 0.14257001E+03 -0.17046E+07
 0.14262001E+03 -0.16521E+07
 0.14267001E+03 -0.15918E+07
 0.14272000E+03 -0.15291E+07
 0.14277000E+03 -0.14638E+07
 0.14282001E+03 -0.14030E+07
 0.14287001E+03 -0.13456E+07
 0.14292001E+03 -0.12855E+07
 0.14297000E+03 -0.12288E+07
 0.14302000E+03 -0.11690E+07
 0.14307001E+03 -0.11120E+07
 0.14312001E+03 -0.10665E+07
 0.14317001E+03 -0.10228E+07
 0.14322000E+03 -0.98103E+06
 0.14327000E+03 -0.93977E+06
 0.14332001E+03 -0.90048E+06
 0.14337001E+03 -0.86418E+06
 0.14342001E+03 -0.83151E+06
 0.14347000E+03 -0.80791E+06
 0.14352000E+03 -0.79118E+06
 0.14357001E+03 -0.77634E+06
 0.14362001E+03 -0.76428E+06
 0.14367001E+03 -0.75602E+06
 0.14372000E+03 -0.75522E+06
 0.14377000E+03 -0.76714E+06
 0.14382001E+03 -0.79019E+06
 0.14387001E+03 -0.81622E+06
 0.14392001E+03 -0.83934E+06
 0.14397000E+03 -0.86365E+06
 0.14402000E+03 -0.89135E+06
 0.14407001E+03 -0.91870E+06
 0.14412001E+03 -0.94408E+06
 0.14417001E+03 -0.97074E+06
 0.14422000E+03 -0.99382E+06
 0.14427000E+03 -0.10126E+07
 0.14432001E+03 -0.10369E+07
 0.14437001E+03 -0.10647E+07
 0.14442001E+03 -0.10964E+07
 0.14447000E+03 -0.11332E+07
 0.14452000E+03 -0.11659E+07
 0.14457001E+03 -0.11946E+07
 0.14462001E+03 -0.12236E+07
 0.14467001E+03 -0.12530E+07
 0.14472000E+03 -0.12846E+07
 0.14477000E+03 -0.13134E+07
 0.14482001E+03 -0.13362E+07
 0.14487001E+03 -0.13539E+07
 0.14492001E+03 -0.13647E+07
 0.14497000E+03 -0.13669E+07
 0.14502000E+03 -0.13631E+07
 0.14507001E+03 -0.13612E+07
 0.14512001E+03 -0.13605E+07
 0.14517001E+03 -0.13580E+07
 0.14522000E+03 -0.13562E+07
 0.14527000E+03 -0.13572E+07
 0.14532001E+03 -0.13653E+07
 0.14537001E+03 -0.13757E+07
 0.14542001E+03 -0.13813E+07
 0.14547000E+03 -0.13825E+07
 0.14552000E+03 -0.13763E+07
 0.14557001E+03 -0.13596E+07
 0.14562001E+03 -0.13355E+07
 0.14567001E+03 -0.13111E+07
 0.14572000E+03 -0.12931E+07
 0.14577000E+03 -0.12847E+07
 0.14582001E+03 -0.12838E+07
 0.14587001E+03 -0.12899E+07
 0.14592001E+03 -0.12996E+07
 0.14597000E+03 -0.13063E+07
 0.14602000E+03 -0.13085E+07
 0.14607001E+03 -0.13048E+07
 0.14612001E+03 -0.13022E+07
 0.14617001E+03 -0.13050E+07
 0.14622000E+03 -0.13102E+07
 0.14627000E+03 -0.13139E+07
 0.14632001E+03 -0.13157E+07
 0.14637001E+03 -0.13221E+07
 0.14642001E+03 -0.13285E+07
 0.14647000E+03 -0.13320E+07
 0.14652000E+03 -0.13371E+07
 0.14657001E+03 -0.13393E+07
 0.14662001E+03 -0.13334E+07
 0.14667001E+03 -0.13198E+07
 0.14672000E+03 -0.12967E+07
 0.14677000E+03 -0.12674E+07
 0.14682001E+03 -0.12436E+07
 0.14687001E+03 -0.12222E+07
 0.14692001E+03 -0.11986E+07
 0.14697000E+03 -0.11766E+07
 0.14702000E+03 -0.11515E+07
 0.14707001E+03 -0.11214E+07
 0.14712001E+03 -0.10909E+07
 0.14717001E+03 -0.10598E+07
 0.14722000E+03 -0.10282E+07
 0.14727000E+03 -0.10014E+07
 0.14732001E+03 -0.97928E+06
 0.14737001E+03 -0.95801E+06
 0.14742001E+03 -0.93850E+06
 0.14747000E+03 -0.92184E+06
 0.14752000E+03 -0.90590E+06
 0.14757001E+03 -0.89053E+06
 0.14762001E+03 -0.87932E+06
 0.14767001E+03 -0.87457E+06
 0.14772000E+03 -0.87651E+06
 0.14777000E+03 -0.88248E+06
 0.14782001E+03 -0.88364E+06
 0.14787001E+03 -0.87653E+06
 0.14792001E+03 -0.86263E+06
 0.14797000E+03 -0.84837E+06
 0.14802000E+03 -0.84202E+06
 0.14807001E+03 -0.84175E+06
 0.14812001E+03 -0.84727E+06
 0.14817001E+03 -0.85919E+06
 0.14822000E+03 -0.87596E+06
 0.14827000E+03 -0.89607E+06
 0.14832001E+03 -0.91850E+06
 0.14837001E+03 -0.94266E+06
 0.14842001E+03 -0.96476E+06
 0.14847000E+03 -0.98455E+06
 0.14852000E+03 -0.10039E+07
 0.14857001E+03 -0.10233E+07
 0.14862001E+03 -0.10461E+07
 0.14867001E+03 -0.10751E+07
 0.14872000E+03 -0.11078E+07
 0.14877000E+03 -0.11394E+07
 0.14882001E+03 -0.11701E+07
 0.14887001E+03 -0.11993E+07
 0.14892001E+03 -0.12229E+07
 0.14897000E+03 -0.12439E+07
 0.14902000E+03 -0.12644E+07
 0.14907001E+03 -0.12869E+07
 0.14912001E+03 -0.13075E+07
 0.14917001E+03 -0.13167E+07
 0.14922000E+03 -0.13182E+07
 0.14927000E+03 -0.13170E+07
 0.14932001E+03 -0.13130E+07
 0.14937001E+03 -0.13114E+07
 0.14942001E+03 -0.13154E+07
 0.14947000E+03 -0.13253E+07
 0.14952000E+03 -0.13411E+07
 0.14957001E+03 -0.13536E+07
 0.14962001E+03 -0.13585E+07
 0.14967001E+03 -0.13557E+07
 0.14972000E+03 -0.13484E+07
 0.14977000E+03 -0.13362E+07
 0.14982001E+03 -0.13214E+07
 0.14987001E+03 -0.13040E+07
 0.14992001E+03 -0.12749E+07
 0.14997000E+03 -0.12421E+07
