-0.29800000E+01 -0.78599E+05
-0.29300001E+01 -0.72076E+05
-0.28800001E+01 -0.65073E+05
-0.28299999E+01 -0.58187E+05
-0.27800000E+01 -0.51597E+05
-0.27300000E+01 -0.45077E+05
-0.26800001E+01 -0.38410E+05
-0.26300001E+01 -0.30666E+05
-0.25799999E+01 -0.21502E+05
-0.25300000E+01 -0.11214E+05
-0.24800000E+01  0.49200E+03
-0.24300001E+01  0.13742E+05
-0.23800001E+01  0.27493E+05
-0.23299999E+01  0.40258E+05
-0.22800000E+01  0.52178E+05
-0.22300000E+01  0.63402E+05
-0.21800001E+01  0.72767E+05
-0.21300001E+01  0.80141E+05
-0.20799999E+01  0.85801E+05
-0.20300000E+01  0.88921E+05
-0.19800000E+01  0.89134E+05
-0.19299999E+01  0.87887E+05
-0.18800000E+01  0.86119E+05
-0.18300000E+01  0.84065E+05
-0.17800000E+01  0.81762E+05
-0.17300000E+01  0.78047E+05
-0.16799999E+01  0.72850E+05
-0.16300000E+01  0.66340E+05
-0.15800000E+01  0.58627E+05
-0.15300000E+01  0.51487E+05
-0.14800000E+01  0.46057E+05
-0.14299999E+01  0.41933E+05
-0.13800000E+01  0.38492E+05
-0.13300000E+01  0.35879E+05
-0.12800000E+01  0.34445E+05
-0.12300000E+01  0.33538E+05
-0.11799999E+01  0.32804E+05
-0.11300000E+01  0.33124E+05
-0.10800000E+01  0.35034E+05
-0.10300000E+01  0.38579E+05
-0.98000002E+00  0.43923E+05
-0.93000007E+00  0.50865E+05
-0.87999988E+00  0.58579E+05
-0.82999992E+00  0.66330E+05
-0.77999997E+00  0.73926E+05
-0.73000002E+00  0.81091E+05
-0.68000007E+00  0.86974E+05
-0.62999988E+00  0.90393E+05
-0.57999992E+00  0.91552E+05
-0.52999997E+00  0.91174E+05
-0.48000002E+00  0.88938E+05
-0.43000007E+00  0.85262E+05
-0.37999988E+00  0.81719E+05
-0.32999992E+00  0.78592E+05
-0.27999997E+00  0.75346E+05
-0.23000002E+00  0.72899E+05
-0.18000007E+00  0.71235E+05
-0.12999988E+00  0.69130E+05
-0.79999924E-01  0.65729E+05
-0.29999971E-01  0.60488E+05
 0.19999981E-01  0.54052E+05
 0.69999933E-01  0.46579E+05
 0.12000012E+00  0.37863E+05
 0.17000008E+00  0.28616E+05
 0.22000003E+00  0.18784E+05
 0.26999998E+00  0.81020E+04
 0.31999993E+00 -0.26590E+04
 0.37000012E+00 -0.12514E+05
 0.42000008E+00 -0.21336E+05
 0.47000003E+00 -0.29856E+05
 0.51999998E+00 -0.37806E+05
 0.56999993E+00 -0.44444E+05
 0.62000012E+00 -0.50238E+05
 0.67000008E+00 -0.55435E+05
 0.72000003E+00 -0.60496E+05
 0.76999998E+00 -0.66136E+05
 0.81999993E+00 -0.71941E+05
 0.87000012E+00 -0.77460E+05
 0.92000008E+00 -0.82616E+05
 0.97000003E+00 -0.87455E+05
 0.10200000E+01 -0.91701E+05
 0.10700002E+01 -0.95536E+05
 0.11199999E+01 -0.99069E+05
 0.11700001E+01 -0.10120E+06
 0.12200003E+01 -0.10186E+06
 0.12700000E+01 -0.10084E+06
 0.13200002E+01 -0.97461E+05
 0.13699999E+01 -0.92250E+05
 0.14200001E+01 -0.85370E+05
 0.14700003E+01 -0.76898E+05
 0.15200000E+01 -0.66133E+05
 0.15700002E+01 -0.52985E+05
 0.16199999E+01 -0.38703E+05
 0.16700001E+01 -0.23509E+05
 0.17200003E+01 -0.84410E+04
 0.17700000E+01  0.57030E+04
 0.18200002E+01  0.18868E+05
 0.18699999E+01  0.29909E+05
 0.19200001E+01  0.38581E+05
 0.19700003E+01  0.44966E+05
 0.20200000E+01  0.49056E+05
 0.20700002E+01  0.51395E+05
 0.21199999E+01  0.52225E+05
 0.21700001E+01  0.51744E+05
 0.22200003E+01  0.50147E+05
 0.22700000E+01  0.47453E+05
 0.23200002E+01  0.43032E+05
 0.23699999E+01  0.36483E+05
 0.24200001E+01  0.28998E+05
 0.24700003E+01  0.21867E+05
 0.25200000E+01  0.15705E+05
 0.25700002E+01  0.10565E+05
 0.26199999E+01  0.58870E+04
 0.26700001E+01  0.13830E+04
 0.27200003E+01 -0.30800E+04
 0.27700000E+01 -0.76250E+04
 0.28200002E+01 -0.12246E+05
 0.28699999E+01 -0.17073E+05
 0.29200001E+01 -0.21521E+05
 0.29700003E+01 -0.25140E+05
 0.30200000E+01 -0.28940E+05
 0.30700002E+01 -0.32768E+05
 0.31199999E+01 -0.35956E+05
 0.31700001E+01 -0.39435E+05
 0.32200003E+01 -0.43521E+05
 0.32700000E+01 -0.48218E+05
 0.33200002E+01 -0.54012E+05
 0.33699999E+01 -0.60566E+05
 0.34200001E+01 -0.67068E+05
 0.34700003E+01 -0.73282E+05
 0.35200000E+01 -0.78934E+05
 0.35700002E+01 -0.83369E+05
 0.36199999E+01 -0.86882E+05
 0.36700001E+01 -0.89691E+05
 0.37200003E+01 -0.90918E+05
 0.37700000E+01 -0.90483E+05
 0.38200002E+01 -0.89520E+05
 0.38699999E+01 -0.88942E+05
 0.39200001E+01 -0.88072E+05
 0.39700003E+01 -0.86109E+05
 0.40200000E+01 -0.83778E+05
 0.40700002E+01 -0.82086E+05
 0.41199999E+01 -0.81745E+05
 0.41700001E+01 -0.82322E+05
 0.42200003E+01 -0.82549E+05
 0.42700000E+01 -0.82051E+05
 0.43200002E+01 -0.80760E+05
 0.43699999E+01 -0.78388E+05
 0.44200001E+01 -0.74809E+05
 0.44700003E+01 -0.69068E+05
 0.45200000E+01 -0.60086E+05
 0.45700002E+01 -0.48996E+05
 0.46199999E+01 -0.37158E+05
 0.46700001E+01 -0.24304E+05
 0.47200003E+01 -0.10453E+05
 0.47700000E+01  0.39330E+04
 0.48200002E+01  0.18952E+05
 0.48699999E+01  0.34325E+05
 0.49200001E+01  0.48995E+05
 0.49700003E+01  0.62184E+05
 0.50200000E+01  0.73676E+05
 0.50700002E+01  0.83629E+05
 0.51200004E+01  0.92352E+05
 0.51700006E+01  0.10048E+06
 0.52199998E+01  0.10799E+06
 0.52700000E+01  0.11383E+06
 0.53200002E+01  0.11774E+06
 0.53700004E+01  0.12003E+06
 0.54200006E+01  0.12121E+06
 0.54699998E+01  0.12186E+06
 0.55200000E+01  0.12193E+06
 0.55700002E+01  0.12140E+06
 0.56200004E+01  0.12056E+06
 0.56700006E+01  0.11914E+06
 0.57199998E+01  0.11636E+06
 0.57700000E+01  0.11233E+06
 0.58200002E+01  0.10694E+06
 0.58700004E+01  0.10007E+06
 0.59200006E+01  0.92727E+05
 0.59699998E+01  0.85444E+05
 0.60200000E+01  0.77847E+05
 0.60700002E+01  0.69631E+05
 0.61200004E+01  0.61118E+05
 0.61700006E+01  0.53018E+05
 0.62199998E+01  0.45980E+05
 0.62700000E+01  0.40016E+05
 0.63200002E+01  0.34223E+05
 0.63700004E+01  0.28093E+05
 0.64200006E+01  0.21305E+05
 0.64699998E+01  0.13566E+05
 0.65200000E+01  0.49720E+04
 0.65700002E+01 -0.43950E+04
 0.66200004E+01 -0.14496E+05
 0.66700006E+01 -0.25686E+05
 0.67199998E+01 -0.38284E+05
 0.67700000E+01 -0.51405E+05
 0.68200002E+01 -0.64159E+05
 0.68700004E+01 -0.76687E+05
 0.69200006E+01 -0.88698E+05
 0.69699998E+01 -0.10014E+06
 0.70200000E+01 -0.11100E+06
 0.70700002E+01 -0.12021E+06
 0.71200004E+01 -0.12715E+06
 0.71700006E+01 -0.13122E+06
 0.72199998E+01 -0.13155E+06
 0.72700000E+01 -0.12811E+06
 0.73200002E+01 -0.12166E+06
 0.73700004E+01 -0.11236E+06
 0.74200006E+01 -0.10024E+06
 0.74699998E+01 -0.86311E+05
 0.75200000E+01 -0.71114E+05
 0.75700002E+01 -0.54440E+05
 0.76200004E+01 -0.36457E+05
 0.76700006E+01 -0.18228E+05
 0.77199998E+01 -0.79100E+03
 0.77700000E+01  0.15827E+05
 0.78200002E+01  0.31176E+05
 0.78700004E+01  0.45063E+05
 0.79200006E+01  0.58198E+05
 0.79699998E+01  0.70312E+05
 0.80200005E+01  0.80359E+05
 0.80699997E+01  0.88011E+05
 0.81200008E+01  0.93520E+05
 0.81700001E+01  0.97342E+05
 0.82199993E+01  0.10014E+06
 0.82700005E+01  0.10208E+06
 0.83199997E+01  0.10338E+06
 0.83700008E+01  0.10423E+06
 0.84200001E+01  0.10465E+06
 0.84699993E+01  0.10436E+06
 0.85200005E+01  0.10258E+06
 0.85699997E+01  0.99822E+05
 0.86200008E+01  0.96799E+05
 0.86700001E+01  0.93776E+05
 0.87199993E+01  0.90880E+05
 0.87700005E+01  0.88165E+05
 0.88199997E+01  0.85126E+05
 0.88700008E+01  0.80323E+05
 0.89200001E+01  0.73683E+05
 0.89699993E+01  0.65350E+05
 0.90200005E+01  0.55066E+05
 0.90699997E+01  0.43545E+05
 0.91200008E+01  0.31141E+05
 0.91700001E+01  0.17511E+05
 0.92199993E+01  0.24760E+04
 0.92700005E+01 -0.13251E+05
 0.93199997E+01 -0.28504E+05
 0.93700008E+01 -0.42681E+05
 0.94200001E+01 -0.55537E+05
 0.94699993E+01 -0.66712E+05
 0.95200005E+01 -0.76224E+05
 0.95699997E+01 -0.84320E+05
 0.96200008E+01 -0.90981E+05
 0.96700001E+01 -0.95743E+05
 0.97199993E+01 -0.97240E+05
 0.97700005E+01 -0.94696E+05
 0.98199997E+01 -0.88416E+05
 0.98700008E+01 -0.79587E+05
 0.99200001E+01 -0.69339E+05
 0.99699993E+01 -0.57637E+05
 0.10020000E+02 -0.45862E+05
 0.10070000E+02 -0.35352E+05
 0.10120001E+02 -0.26401E+05
 0.10170000E+02 -0.20137E+05
 0.10219999E+02 -0.16178E+05
 0.10270000E+02 -0.13116E+05
 0.10320000E+02 -0.10616E+05
 0.10370001E+02 -0.95000E+04
 0.10420000E+02 -0.10613E+05
 0.10469999E+02 -0.13088E+05
 0.10520000E+02 -0.16199E+05
 0.10570000E+02 -0.20047E+05
 0.10620001E+02 -0.24874E+05
 0.10670000E+02 -0.31073E+05
 0.10719999E+02 -0.38076E+05
 0.10770000E+02 -0.45334E+05
 0.10820000E+02 -0.52451E+05
 0.10870001E+02 -0.58912E+05
 0.10920000E+02 -0.64458E+05
 0.10969999E+02 -0.68139E+05
 0.11020000E+02 -0.69289E+05
 0.11070000E+02 -0.68019E+05
 0.11120001E+02 -0.64626E+05
 0.11170000E+02 -0.59814E+05
 0.11219999E+02 -0.54343E+05
 0.11270000E+02 -0.48843E+05
 0.11320000E+02 -0.43706E+05
 0.11370001E+02 -0.38609E+05
 0.11420000E+02 -0.32823E+05
 0.11469999E+02 -0.25742E+05
 0.11520000E+02 -0.17277E+05
 0.11570000E+02 -0.82030E+04
 0.11620001E+02  0.10060E+04
 0.11670000E+02  0.10939E+05
 0.11719999E+02  0.21978E+05
 0.11770000E+02  0.33639E+05
 0.11820000E+02  0.45068E+05
 0.11870001E+02  0.55609E+05
 0.11920000E+02  0.64484E+05
 0.11969999E+02  0.70879E+05
 0.12020000E+02  0.75396E+05
 0.12070000E+02  0.78594E+05
 0.12120001E+02  0.79573E+05
 0.12170000E+02  0.77740E+05
 0.12219999E+02  0.73085E+05
 0.12270000E+02  0.66360E+05
 0.12320000E+02  0.59046E+05
 0.12370001E+02  0.52185E+05
 0.12420000E+02  0.46338E+05
 0.12469999E+02  0.41168E+05
 0.12520000E+02  0.36318E+05
 0.12570000E+02  0.32438E+05
 0.12620001E+02  0.30011E+05
 0.12670000E+02  0.28738E+05
 0.12719999E+02  0.27296E+05
 0.12770000E+02  0.25430E+05
 0.12820000E+02  0.24608E+05
 0.12870001E+02  0.25039E+05
 0.12920000E+02  0.25748E+05
 0.12969999E+02  0.25751E+05
 0.13020000E+02  0.24398E+05
 0.13070002E+02  0.20996E+05
 0.13120001E+02  0.15036E+05
 0.13170000E+02  0.70390E+04
 0.13220001E+02 -0.25040E+04
 0.13270000E+02 -0.13322E+05
 0.13320002E+02 -0.24936E+05
 0.13370001E+02 -0.36489E+05
 0.13420000E+02 -0.47366E+05
 0.13470001E+02 -0.57872E+05
 0.13520000E+02 -0.67638E+05
 0.13570002E+02 -0.75808E+05
 0.13620001E+02 -0.81980E+05
 0.13670000E+02 -0.85780E+05
 0.13720001E+02 -0.87272E+05
 0.13770000E+02 -0.86088E+05
 0.13820002E+02 -0.81935E+05
 0.13870001E+02 -0.75057E+05
 0.13920000E+02 -0.65269E+05
 0.13970001E+02 -0.53281E+05
 0.14020000E+02 -0.40120E+05
 0.14070002E+02 -0.26789E+05
 0.14120001E+02 -0.13700E+05
 0.14170000E+02 -0.61700E+03
 0.14220001E+02  0.11509E+05
 0.14270000E+02  0.21893E+05
 0.14320002E+02  0.30059E+05
 0.14370001E+02  0.35870E+05
 0.14420000E+02  0.39775E+05
 0.14470001E+02  0.42011E+05
 0.14520000E+02  0.43341E+05
 0.14570002E+02  0.44567E+05
 0.14620001E+02  0.46322E+05
 0.14670000E+02  0.49409E+05
 0.14720001E+02  0.53553E+05
 0.14770000E+02  0.57607E+05
 0.14820002E+02  0.61322E+05
 0.14870001E+02  0.65058E+05
 0.14920000E+02  0.69016E+05
 0.14970001E+02  0.73054E+05
 0.15020000E+02  0.76752E+05
 0.15070002E+02  0.80150E+05
 0.15120001E+02  0.83346E+05
 0.15170000E+02  0.86389E+05
 0.15220001E+02  0.89066E+05
 0.15270000E+02  0.90943E+05
 0.15320002E+02  0.91454E+05
 0.15370001E+02  0.89680E+05
 0.15420000E+02  0.85251E+05
 0.15470001E+02  0.78011E+05
 0.15520000E+02  0.68594E+05
 0.15570002E+02  0.58115E+05
 0.15620001E+02  0.46640E+05
 0.15670000E+02  0.34808E+05
 0.15720001E+02  0.23359E+05
 0.15770000E+02  0.12455E+05
 0.15820002E+02  0.22170E+04
 0.15870001E+02 -0.74230E+04
 0.15920000E+02 -0.15857E+05
 0.15970001E+02 -0.22947E+05
 0.16020000E+02 -0.28356E+05
 0.16070002E+02 -0.30932E+05
 0.16120001E+02 -0.30945E+05
 0.16170000E+02 -0.28948E+05
 0.16220001E+02 -0.24452E+05
 0.16270000E+02 -0.17402E+05
 0.16320002E+02 -0.84080E+04
 0.16370001E+02  0.20190E+04
 0.16420000E+02  0.13661E+05
 0.16470001E+02  0.25982E+05
 0.16520000E+02  0.38042E+05
 0.16570002E+02  0.49415E+05
 0.16620001E+02  0.59343E+05
 0.16670000E+02  0.67168E+05
 0.16720001E+02  0.72908E+05
 0.16770000E+02  0.76266E+05
 0.16820002E+02  0.77237E+05
 0.16870001E+02  0.76164E+05
 0.16920000E+02  0.73563E+05
 0.16970001E+02  0.69319E+05
 0.17020000E+02  0.63017E+05
 0.17070002E+02  0.55330E+05
 0.17120001E+02  0.46904E+05
 0.17170000E+02  0.37851E+05
 0.17220001E+02  0.28261E+05
 0.17270000E+02  0.18327E+05
 0.17320002E+02  0.84730E+04
 0.17370001E+02 -0.70700E+03
 0.17420000E+02 -0.90430E+04
 0.17470001E+02 -0.16512E+05
 0.17520000E+02 -0.22963E+05
 0.17570002E+02 -0.28714E+05
 0.17620001E+02 -0.33624E+05
 0.17670000E+02 -0.37604E+05
 0.17720001E+02 -0.40790E+05
 0.17770000E+02 -0.42932E+05
 0.17820002E+02 -0.45033E+05
 0.17870001E+02 -0.47839E+05
 0.17920000E+02 -0.51198E+05
 0.17970001E+02 -0.55213E+05
 0.18020000E+02 -0.59840E+05
 0.18070002E+02 -0.65082E+05
 0.18120001E+02 -0.70205E+05
 0.18170000E+02 -0.74521E+05
 0.18220001E+02 -0.77854E+05
 0.18270000E+02 -0.80095E+05
 0.18320002E+02 -0.81619E+05
 0.18370001E+02 -0.82535E+05
 0.18420000E+02 -0.82719E+05
 0.18470001E+02 -0.82222E+05
 0.18520000E+02 -0.81100E+05
 0.18570002E+02 -0.79579E+05
 0.18620001E+02 -0.77972E+05
 0.18670000E+02 -0.75993E+05
 0.18720001E+02 -0.73450E+05
 0.18770000E+02 -0.70558E+05
 0.18820002E+02 -0.67210E+05
 0.18870001E+02 -0.63279E+05
 0.18920000E+02 -0.58618E+05
 0.18970001E+02 -0.53086E+05
 0.19020000E+02 -0.46676E+05
 0.19070002E+02 -0.39596E+05
 0.19120001E+02 -0.31862E+05
 0.19170000E+02 -0.22839E+05
 0.19220001E+02 -0.12579E+05
 0.19270000E+02 -0.20280E+04
 0.19320002E+02  0.83100E+04
 0.19370001E+02  0.18130E+05
 0.19420000E+02  0.26471E+05
 0.19470001E+02  0.32553E+05
 0.19520000E+02  0.36924E+05
 0.19570002E+02  0.39731E+05
 0.19620001E+02  0.39915E+05
 0.19670000E+02  0.38105E+05
 0.19720001E+02  0.35054E+05
 0.19770000E+02  0.29312E+05
 0.19820002E+02  0.20746E+05
 0.19870001E+02  0.10558E+05
 0.19920000E+02 -0.23200E+03
 0.19970001E+02 -0.11023E+05
 0.20020000E+02 -0.22018E+05
 0.20070002E+02 -0.32423E+05
 0.20120001E+02 -0.41943E+05
 0.20170000E+02 -0.50929E+05
 0.20220001E+02 -0.58614E+05
 0.20270000E+02 -0.64982E+05
 0.20320002E+02 -0.70364E+05
 0.20370001E+02 -0.74251E+05
 0.20420000E+02 -0.76447E+05
 0.20470001E+02 -0.77441E+05
 0.20520000E+02 -0.77725E+05
 0.20570002E+02 -0.77490E+05
 0.20620001E+02 -0.76925E+05
 0.20670000E+02 -0.75980E+05
 0.20720001E+02 -0.74618E+05
 0.20770000E+02 -0.73357E+05
 0.20820002E+02 -0.72177E+05
 0.20870001E+02 -0.70740E+05
 0.20920000E+02 -0.68276E+05
 0.20970001E+02 -0.63632E+05
 0.21020000E+02 -0.57456E+05
 0.21070002E+02 -0.50607E+05
 0.21120001E+02 -0.43043E+05
 0.21170000E+02 -0.35007E+05
 0.21220001E+02 -0.26747E+05
 0.21270000E+02 -0.18683E+05
 0.21320002E+02 -0.11004E+05
 0.21370001E+02 -0.37170E+04
 0.21420000E+02  0.31710E+04
 0.21470001E+02  0.97970E+04
 0.21520000E+02  0.16123E+05
 0.21570002E+02  0.22111E+05
 0.21620001E+02  0.27327E+05
 0.21670000E+02  0.31925E+05
 0.21720001E+02  0.36886E+05
 0.21770000E+02  0.41876E+05
 0.21820002E+02  0.46020E+05
 0.21870001E+02  0.49506E+05
 0.21920000E+02  0.53131E+05
 0.21970001E+02  0.57401E+05
 0.22020000E+02  0.62167E+05
 0.22070002E+02  0.67154E+05
 0.22120001E+02  0.71782E+05
 0.22170000E+02  0.75550E+05
 0.22220001E+02  0.78942E+05
 0.22270000E+02  0.82851E+05
 0.22320002E+02  0.87127E+05
 0.22370001E+02  0.90600E+05
 0.22420000E+02  0.93107E+05
 0.22470001E+02  0.95177E+05
 0.22520000E+02  0.96883E+05
 0.22570002E+02  0.98369E+05
 0.22620001E+02  0.99523E+05
 0.22670000E+02  0.99683E+05
 0.22720001E+02  0.98048E+05
 0.22770000E+02  0.94601E+05
 0.22820002E+02  0.89752E+05
 0.22870001E+02  0.83493E+05
 0.22920000E+02  0.76113E+05
 0.22970001E+02  0.67950E+05
 0.23020000E+02  0.58879E+05
 0.23070002E+02  0.48843E+05
 0.23120001E+02  0.38355E+05
 0.23170000E+02  0.27380E+05
 0.23220001E+02  0.15747E+05
 0.23270000E+02  0.46890E+04
 0.23320002E+02 -0.49890E+04
 0.23370001E+02 -0.13126E+05
 0.23420000E+02 -0.19508E+05
 0.23470001E+02 -0.24271E+05
 0.23520000E+02 -0.27660E+05
 0.23570002E+02 -0.29523E+05
 0.23620001E+02 -0.29061E+05
 0.23670000E+02 -0.27068E+05
 0.23720001E+02 -0.25237E+05
 0.23770000E+02 -0.23556E+05
 0.23820002E+02 -0.21719E+05
 0.23870001E+02 -0.19550E+05
 0.23920000E+02 -0.16715E+05
 0.23970001E+02 -0.13584E+05
 0.24020000E+02 -0.10423E+05
 0.24070002E+02 -0.71130E+04
 0.24120001E+02 -0.38950E+04
 0.24170000E+02 -0.85200E+03
 0.24220001E+02  0.16510E+04
 0.24270000E+02  0.28420E+04
 0.24320002E+02  0.27800E+04
 0.24370001E+02  0.19180E+04
 0.24420000E+02  0.27500E+03
 0.24470001E+02 -0.26610E+04
 0.24520000E+02 -0.64360E+04
 0.24570002E+02 -0.10062E+05
 0.24620001E+02 -0.13610E+05
 0.24670000E+02 -0.16606E+05
 0.24720001E+02 -0.18399E+05
 0.24770000E+02 -0.19073E+05
 0.24820002E+02 -0.18843E+05
 0.24870001E+02 -0.17547E+05
 0.24920000E+02 -0.14807E+05
 0.24970001E+02 -0.11163E+05
 0.25020000E+02 -0.70480E+04
 0.25070002E+02 -0.24780E+04
 0.25120001E+02  0.24070E+04
 0.25170000E+02  0.73760E+04
 0.25220001E+02  0.12120E+05
 0.25270000E+02  0.16682E+05
 0.25320002E+02  0.20802E+05
 0.25370001E+02  0.24149E+05
 0.25420000E+02  0.26000E+05
 0.25470001E+02  0.25897E+05
 0.25520000E+02  0.24286E+05
 0.25570002E+02  0.21766E+05
 0.25620001E+02  0.19028E+05
 0.25670000E+02  0.15744E+05
 0.25720001E+02  0.11955E+05
 0.25770000E+02  0.82060E+04
 0.25820002E+02  0.50270E+04
 0.25870001E+02  0.24740E+04
 0.25920000E+02  0.37800E+03
 0.25970001E+02 -0.49700E+03
 0.26020000E+02  0.16100E+03
 0.26070002E+02  0.16500E+04
 0.26120001E+02  0.21190E+04
 0.26170000E+02  0.24640E+04
 0.26220001E+02  0.30690E+04
 0.26270000E+02  0.17130E+04
 0.26320002E+02 -0.97100E+03
 0.26370001E+02 -0.30560E+04
 0.26420000E+02 -0.65460E+04
 0.26470001E+02 -0.12062E+05
 0.26520000E+02 -0.14908E+05
 0.26570002E+02 -0.18332E+05
 0.26620001E+02 -0.24000E+05
 0.26670000E+02 -0.25392E+05
 0.26720001E+02 -0.25033E+05
 0.26770000E+02 -0.25646E+05
 0.26820002E+02 -0.24287E+05
 0.26870001E+02 -0.25647E+05
 0.26920000E+02 -0.28334E+05
 0.26970001E+02 -0.21867E+05
 0.27020000E+02 -0.11486E+05
 0.27070002E+02 -0.74940E+04
 0.27120001E+02 -0.10431E+05
 0.27170000E+02 -0.16608E+05
 0.27220001E+02 -0.17155E+05
 0.27270000E+02 -0.20139E+05
 0.27320002E+02 -0.30205E+05
 0.27370001E+02 -0.28801E+05
 0.27420000E+02 -0.26736E+05
 0.27470001E+02 -0.32628E+05
 0.27520000E+02 -0.40144E+05
 0.27570002E+02 -0.53301E+05
 0.27620001E+02 -0.56307E+05
 0.27670000E+02 -0.49553E+05
 0.27720001E+02 -0.51581E+05
 0.27770000E+02 -0.60531E+05
 0.27820002E+02 -0.77804E+05
 0.27870001E+02 -0.98813E+05
 0.27920000E+02 -0.10182E+06
 0.27970001E+02 -0.90239E+05
 0.28020000E+02 -0.76344E+05
 0.28070002E+02 -0.62491E+05
 0.28120001E+02 -0.52382E+05
 0.28170000E+02 -0.40110E+05
 0.28220001E+02 -0.24050E+05
 0.28270000E+02 -0.16149E+05
 0.28320002E+02 -0.24360E+04
 0.28370001E+02  0.30831E+05
 0.28420000E+02  0.38862E+05
 0.28470001E+02  0.19353E+05
 0.28520000E+02  0.67280E+04
 0.28570002E+02  0.34242E+05
 0.28620001E+02  0.10598E+06
 0.28670000E+02  0.12278E+06
 0.28720001E+02  0.67833E+05
 0.28770000E+02  0.29334E+05
 0.28820002E+02  0.24403E+05
 0.28870001E+02  0.44654E+05
 0.28920000E+02  0.10701E+06
 0.28970001E+02  0.13028E+06
 0.29020000E+02  0.69788E+05
 0.29070000E+02  0.21716E+05
 0.29120003E+02 -0.50252E+05
 0.29170002E+02 -0.13186E+06
 0.29220001E+02 -0.89761E+05
 0.29270000E+02 -0.82840E+04
 0.29320000E+02  0.63216E+05
 0.29370003E+02  0.13015E+06
 0.29420002E+02  0.13524E+06
 0.29470001E+02  0.13360E+06
 0.29520000E+02  0.12532E+06
 0.29570000E+02  0.19705E+06
 0.29620003E+02  0.28466E+06
 0.29670002E+02  0.16676E+06
 0.29720001E+02 -0.50323E+05
 0.29770000E+02 -0.25956E+06
 0.29820000E+02 -0.32381E+06
 0.29870003E+02 -0.18071E+06
 0.29920002E+02  0.65260E+04
 0.29970001E+02  0.15471E+06
 0.30020000E+02  0.24161E+06
 0.30070000E+02  0.18353E+06
 0.30120003E+02  0.89123E+05
 0.30170002E+02  0.12415E+06
 0.30220001E+02  0.35065E+05
 0.30270000E+02 -0.16720E+06
 0.30320000E+02 -0.12850E+06
 0.30370003E+02  0.56227E+05
 0.30420002E+02  0.15309E+06
 0.30470001E+02  0.18599E+06
 0.30520000E+02  0.12664E+06
 0.30570000E+02 -0.60960E+04
 0.30620003E+02 -0.13390E+06
 0.30670002E+02 -0.15500E+06
 0.30720001E+02  0.35551E+05
 0.30770000E+02  0.14448E+06
 0.30820000E+02  0.54513E+05
 0.30870003E+02  0.14074E+05
 0.30920002E+02  0.12630E+06
 0.30970001E+02  0.13275E+06
 0.31020000E+02 -0.34072E+05
 0.31070000E+02  0.69774E+05
 0.31120003E+02  0.20743E+06
 0.31170002E+02  0.17600E+06
 0.31220001E+02  0.32760E+06
 0.31270000E+02  0.34916E+06
 0.31320000E+02  0.10480E+06
 0.31370003E+02 -0.90219E+05
 0.31420002E+02 -0.52680E+05
 0.31470001E+02  0.79572E+05
 0.31520000E+02  0.10952E+05
 0.31570000E+02  0.17223E+06
 0.31620003E+02  0.35568E+06
 0.31670002E+02  0.18971E+06
 0.31720001E+02  0.11899E+06
 0.31770000E+02 -0.45700E+05
 0.31820000E+02 -0.12178E+06
 0.31870003E+02 -0.10037E+06
 0.31920002E+02 -0.28485E+06
 0.31970001E+02 -0.24884E+06
 0.32020000E+02  0.92153E+05
 0.32070000E+02  0.30219E+06
 0.32120003E+02 -0.48856E+05
 0.32170002E+02 -0.28650E+06
 0.32220001E+02  0.84472E+05
 0.32270000E+02  0.23851E+06
 0.32320000E+02  0.25739E+05
 0.32370003E+02 -0.93680E+04
 0.32420002E+02 -0.20596E+05
 0.32470001E+02  0.46950E+04
 0.32520000E+02  0.32064E+06
 0.32570000E+02  0.37421E+06
 0.32620003E+02  0.57572E+05
 0.32670002E+02 -0.17431E+06
 0.32720001E+02  0.76734E+05
 0.32770000E+02  0.33974E+06
 0.32820000E+02 -0.12851E+06
 0.32870003E+02 -0.80542E+06
 0.32920002E+02 -0.10978E+07
 0.32970001E+02 -0.64419E+06
 0.33020000E+02  0.41201E+05
 0.33070000E+02  0.27948E+06
 0.33120003E+02  0.41635E+06
 0.33170002E+02  0.65607E+06
 0.33220001E+02  0.60371E+06
 0.33270000E+02  0.97379E+05
 0.33320000E+02 -0.21153E+06
 0.33370003E+02 -0.48076E+06
 0.33420002E+02 -0.96440E+06
 0.33470001E+02 -0.99722E+06
 0.33520000E+02 -0.28760E+06
 0.33570000E+02  0.30444E+06
 0.33620003E+02  0.13787E+06
 0.33670002E+02  0.13294E+06
 0.33720001E+02  0.47107E+05
 0.33770000E+02  0.68508E+05
 0.33820000E+02  0.40967E+06
 0.33870003E+02  0.14409E+06
 0.33920002E+02  0.18875E+06
 0.33970001E+02 -0.60662E+05
 0.34020000E+02 -0.78629E+06
 0.34070000E+02 -0.75662E+06
 0.34120003E+02 -0.27802E+06
 0.34170002E+02  0.15117E+06
 0.34220001E+02 -0.31051E+05
 0.34270000E+02 -0.27428E+06
 0.34320000E+02 -0.33383E+06
 0.34370003E+02 -0.79638E+06
 0.34420002E+02 -0.90904E+06
 0.34470001E+02 -0.39931E+06
 0.34520000E+02 -0.16607E+06
 0.34570000E+02 -0.17058E+06
 0.34620003E+02 -0.61056E+05
 0.34670002E+02  0.43684E+05
 0.34720001E+02 -0.16076E+06
 0.34770000E+02 -0.16357E+06
 0.34820000E+02  0.15129E+06
 0.34870003E+02 -0.64553E+05
 0.34920002E+02 -0.25988E+06
 0.34970001E+02 -0.14560E+06
 0.35020000E+02 -0.19324E+05
 0.35070000E+02 -0.20484E+05
 0.35120003E+02 -0.12621E+06
 0.35170002E+02 -0.12254E+06
 0.35220001E+02 -0.93956E+05
 0.35270000E+02 -0.44289E+05
 0.35320000E+02 -0.52188E+05
 0.35370003E+02 -0.34475E+05
 0.35420002E+02  0.26142E+06
 0.35470001E+02  0.47479E+06
 0.35520000E+02  0.14692E+06
 0.35570000E+02 -0.10376E+06
 0.35620003E+02  0.72710E+04
 0.35670002E+02  0.18547E+06
 0.35720001E+02  0.59837E+06
 0.35770000E+02  0.10617E+07
 0.35820000E+02  0.91988E+06
 0.35870003E+02  0.19094E+06
 0.35920002E+02 -0.20040E+06
 0.35970001E+02  0.16233E+06
 0.36020000E+02  0.47868E+06
 0.36070000E+02  0.47473E+06
 0.36120003E+02  0.52662E+06
 0.36170002E+02  0.27387E+06
 0.36220001E+02  0.12078E+06
 0.36270000E+02  0.28723E+06
 0.36320000E+02  0.22611E+06
 0.36370003E+02  0.37329E+05
 0.36420002E+02  0.55593E+05
 0.36470001E+02  0.43971E+06
 0.36520000E+02  0.74682E+06
 0.36570000E+02  0.81749E+06
 0.36620003E+02  0.32523E+06
 0.36670002E+02 -0.43343E+06
 0.36720001E+02 -0.53140E+06
 0.36770000E+02 -0.60152E+06
 0.36820000E+02 -0.84996E+06
 0.36870003E+02 -0.72653E+06
 0.36920002E+02 -0.59102E+06
 0.36970001E+02 -0.34777E+06
 0.37020000E+02 -0.14457E+05
 0.37070000E+02 -0.16888E+06
 0.37120003E+02 -0.35690E+06
 0.37170002E+02 -0.54434E+06
 0.37220001E+02 -0.56034E+06
 0.37270000E+02 -0.31132E+06
 0.37320000E+02 -0.21650E+06
 0.37370003E+02 -0.22881E+06
 0.37420002E+02 -0.55019E+06
 0.37470001E+02 -0.40484E+06
 0.37520000E+02 -0.12156E+05
 0.37570000E+02 -0.10682E+06
 0.37620003E+02  0.52901E+05
 0.37670002E+02  0.32544E+06
 0.37720001E+02  0.39710E+06
 0.37770000E+02  0.38636E+06
 0.37820000E+02  0.30995E+06
 0.37870003E+02  0.51263E+06
 0.37920002E+02  0.83911E+06
 0.37970001E+02  0.77235E+06
 0.38020000E+02  0.44338E+06
 0.38070000E+02  0.20311E+05
 0.38120003E+02 -0.48925E+06
 0.38170002E+02 -0.91001E+06
 0.38220001E+02 -0.89023E+06
 0.38270000E+02 -0.60011E+06
 0.38320000E+02 -0.72555E+06
 0.38370003E+02 -0.87733E+06
 0.38420002E+02 -0.61292E+06
 0.38470001E+02 -0.44084E+06
 0.38520000E+02 -0.49125E+06
 0.38570000E+02 -0.53099E+06
 0.38620003E+02 -0.52630E+06
 0.38670002E+02 -0.16363E+06
 0.38720001E+02  0.46885E+06
 0.38770000E+02  0.82764E+06
 0.38820000E+02  0.79530E+06
 0.38870003E+02  0.55968E+06
 0.38920002E+02  0.57385E+06
 0.38970001E+02  0.52236E+06
 0.39020000E+02  0.29524E+06
 0.39070000E+02  0.27367E+06
 0.39120003E+02  0.56915E+05
 0.39170002E+02 -0.31366E+06
 0.39220001E+02 -0.38489E+06
 0.39270000E+02 -0.58765E+05
 0.39320000E+02  0.35963E+06
 0.39370003E+02  0.62187E+06
 0.39420002E+02  0.60504E+06
 0.39470001E+02  0.23714E+06
 0.39520000E+02 -0.52353E+05
 0.39570000E+02 -0.10352E+06
 0.39620003E+02 -0.50331E+05
 0.39670002E+02  0.12002E+06
 0.39720001E+02  0.20430E+06
 0.39770000E+02  0.22049E+06
 0.39820000E+02  0.37655E+06
 0.39870003E+02  0.54989E+06
 0.39920002E+02  0.46023E+06
 0.39970001E+02  0.93200E+04
 0.40020000E+02 -0.34554E+06
 0.40070000E+02 -0.30123E+06
 0.40120003E+02 -0.20912E+06
 0.40170002E+02 -0.32746E+06
 0.40220001E+02 -0.55382E+06
 0.40270000E+02 -0.61716E+06
 0.40320000E+02 -0.35986E+06
 0.40370003E+02 -0.39480E+04
 0.40420002E+02  0.15588E+06
 0.40470001E+02  0.18500E+06
 0.40520000E+02  0.25694E+06
 0.40570000E+02  0.34543E+06
 0.40620003E+02  0.29478E+06
 0.40670002E+02  0.23823E+06
 0.40720001E+02  0.41703E+06
 0.40770000E+02  0.65686E+06
 0.40820000E+02  0.59609E+06
 0.40870003E+02  0.29042E+06
 0.40920002E+02  0.28768E+05
 0.40970001E+02 -0.65808E+05
 0.41020000E+02  0.15868E+05
 0.41070000E+02  0.12552E+06
 0.41120003E+02  0.29048E+06
 0.41170002E+02  0.33593E+06
 0.41220001E+02  0.13654E+06
 0.41270000E+02 -0.10194E+06
 0.41320000E+02 -0.32223E+06
 0.41370003E+02 -0.60555E+06
 0.41420002E+02 -0.82484E+06
 0.41470001E+02 -0.73947E+06
 0.41520000E+02 -0.64300E+06
 0.41570000E+02 -0.59932E+06
 0.41620003E+02 -0.53187E+06
 0.41670002E+02 -0.30042E+06
 0.41720001E+02  0.10300E+06
 0.41770000E+02  0.23818E+06
 0.41820000E+02  0.14097E+06
 0.41870003E+02 -0.46689E+05
 0.41920002E+02 -0.11769E+06
 0.41970001E+02 -0.41730E+05
 0.42020000E+02  0.56738E+05
 0.42070000E+02  0.21797E+06
 0.42120003E+02  0.23650E+06
 0.42170002E+02  0.18856E+06
 0.42220001E+02  0.17842E+06
 0.42270000E+02  0.61504E+05
 0.42320000E+02 -0.97917E+05
 0.42370003E+02 -0.25619E+06
 0.42420002E+02 -0.34458E+06
 0.42470001E+02 -0.26699E+06
 0.42520000E+02 -0.78779E+05
 0.42570000E+02  0.11258E+06
 0.42620003E+02  0.17202E+06
 0.42670002E+02  0.28630E+06
 0.42720001E+02  0.42508E+06
 0.42770000E+02  0.22622E+06
 0.42820000E+02 -0.10710E+05
 0.42870003E+02 -0.13810E+06
 0.42920002E+02 -0.28960E+06
 0.42970001E+02 -0.29161E+06
 0.43020000E+02 -0.30587E+06
 0.43070000E+02 -0.40199E+06
 0.43120003E+02 -0.44718E+06
 0.43170002E+02 -0.43075E+06
 0.43220001E+02 -0.15567E+06
 0.43270000E+02  0.13310E+06
 0.43320000E+02  0.93467E+05
 0.43370003E+02 -0.34541E+05
 0.43420002E+02 -0.17613E+06
 0.43470001E+02 -0.19870E+06
 0.43520000E+02  0.32854E+05
 0.43570000E+02  0.15183E+06
 0.43620003E+02  0.22697E+06
 0.43670002E+02  0.36574E+06
 0.43720001E+02  0.26186E+06
 0.43770000E+02  0.18358E+06
 0.43820000E+02  0.18012E+06
 0.43870003E+02  0.68434E+05
 0.43920002E+02  0.13667E+06
 0.43970001E+02  0.27006E+06
 0.44020000E+02  0.19228E+06
 0.44070000E+02 -0.31114E+05
 0.44120003E+02 -0.15089E+06
 0.44170002E+02 -0.50498E+05
 0.44220001E+02 -0.36700E+04
 0.44270000E+02 -0.17810E+06
 0.44320000E+02 -0.49565E+06
 0.44370003E+02 -0.60826E+06
 0.44420002E+02 -0.40094E+06
 0.44470001E+02 -0.24889E+06
 0.44520000E+02 -0.23807E+06
 0.44570000E+02 -0.27758E+06
 0.44620003E+02 -0.14792E+06
 0.44670002E+02  0.36198E+05
 0.44720001E+02  0.14671E+06
 0.44770000E+02  0.29664E+06
 0.44820000E+02  0.21113E+06
 0.44870003E+02  0.52259E+05
 0.44920002E+02 -0.69792E+05
 0.44970001E+02 -0.25387E+06
 0.45020000E+02 -0.29616E+06
 0.45070000E+02 -0.31276E+06
 0.45120003E+02 -0.51486E+06
 0.45170002E+02 -0.63389E+06
 0.45220001E+02 -0.47479E+06
 0.45270000E+02 -0.38572E+06
 0.45320000E+02 -0.38944E+06
 0.45370003E+02 -0.19270E+06
 0.45420002E+02  0.52954E+05
 0.45470001E+02  0.17215E+06
 0.45520000E+02  0.17503E+06
 0.45570000E+02  0.28000E+04
 0.45620003E+02 -0.12625E+06
 0.45670002E+02  0.39657E+05
 0.45720001E+02  0.32776E+06
 0.45770000E+02  0.53480E+06
 0.45820000E+02  0.64005E+06
 0.45870003E+02  0.56533E+06
 0.45920002E+02  0.36429E+06
 0.45970001E+02  0.16333E+06
 0.46020000E+02 -0.73435E+05
 0.46070000E+02 -0.32191E+06
 0.46120003E+02 -0.51226E+06
 0.46170002E+02 -0.55491E+06
 0.46220001E+02 -0.53733E+06
 0.46270000E+02 -0.56048E+06
 0.46320000E+02 -0.48416E+06
 0.46370003E+02 -0.22524E+06
 0.46420002E+02  0.18631E+06
 0.46470001E+02  0.40600E+06
 0.46520000E+02  0.28551E+06
 0.46570000E+02  0.11611E+06
 0.46620003E+02 -0.75549E+05
 0.46670002E+02 -0.19400E+06
 0.46720001E+02 -0.20628E+06
 0.46770000E+02 -0.24969E+06
 0.46820000E+02 -0.44062E+06
 0.46870003E+02 -0.61088E+06
 0.46920002E+02 -0.37850E+06
 0.46970001E+02 -0.74763E+05
 0.47020000E+02  0.96935E+05
 0.47070000E+02  0.21871E+06
 0.47120003E+02  0.27567E+06
 0.47170002E+02  0.33906E+06
 0.47220001E+02  0.22082E+06
 0.47270000E+02  0.39394E+05
 0.47320000E+02  0.45327E+05
 0.47370003E+02 -0.97350E+04
 0.47420002E+02 -0.28535E+06
 0.47470001E+02 -0.54546E+06
 0.47520000E+02 -0.68311E+06
 0.47570000E+02 -0.69279E+06
 0.47620003E+02 -0.67997E+06
 0.47670002E+02 -0.78595E+06
 0.47720001E+02 -0.80779E+06
 0.47770000E+02 -0.70826E+06
 0.47820000E+02 -0.59452E+06
 0.47870003E+02 -0.43451E+06
 0.47920002E+02 -0.14046E+06
 0.47970001E+02  0.25275E+06
 0.48020000E+02  0.54974E+06
 0.48070000E+02  0.77889E+06
 0.48120003E+02  0.96634E+06
 0.48170002E+02  0.11692E+07
 0.48220001E+02  0.15392E+07
 0.48270000E+02  0.18348E+07
 0.48320000E+02  0.18606E+07
 0.48370003E+02  0.17909E+07
 0.48420002E+02  0.17158E+07
 0.48470001E+02  0.17030E+07
 0.48520000E+02  0.16939E+07
 0.48570000E+02  0.16295E+07
 0.48620003E+02  0.16100E+07
 0.48670002E+02  0.14455E+07
 0.48720001E+02  0.95157E+06
 0.48770000E+02  0.59504E+06
 0.48820000E+02  0.80189E+06
 0.48870003E+02  0.10257E+07
 0.48920002E+02  0.99516E+06
 0.48970001E+02  0.78477E+06
 0.49020000E+02  0.26203E+06
 0.49070000E+02 -0.23665E+06
 0.49120003E+02 -0.47304E+06
 0.49170002E+02 -0.56597E+06
 0.49220001E+02 -0.62508E+06
 0.49270000E+02 -0.69241E+06
 0.49320000E+02 -0.73777E+06
 0.49370003E+02 -0.59445E+06
 0.49420002E+02 -0.48102E+06
 0.49470001E+02 -0.49124E+06
 0.49520000E+02 -0.43426E+06
 0.49570000E+02 -0.54863E+06
 0.49620003E+02 -0.77107E+06
 0.49670002E+02 -0.99532E+06
 0.49720001E+02 -0.12361E+07
 0.49770000E+02 -0.15885E+07
 0.49820000E+02 -0.18916E+07
 0.49870003E+02 -0.18679E+07
 0.49920002E+02 -0.18631E+07
 0.49970001E+02 -0.19105E+07
 0.50020000E+02 -0.18674E+07
 0.50070000E+02 -0.17344E+07
 0.50120003E+02 -0.14578E+07
 0.50170002E+02 -0.11385E+07
 0.50220001E+02 -0.77336E+06
 0.50270000E+02 -0.35639E+06
 0.50320000E+02 -0.57507E+05
 0.50370003E+02  0.26380E+06
 0.50420002E+02  0.69274E+06
 0.50470001E+02  0.93831E+06
 0.50520000E+02  0.96357E+06
 0.50570000E+02  0.86121E+06
 0.50620003E+02  0.61097E+06
 0.50670002E+02  0.42648E+06
 0.50720001E+02  0.56413E+06
 0.50770000E+02  0.54256E+06
 0.50820000E+02  0.13911E+06
 0.50870003E+02 -0.10048E+06
 0.50920002E+02 -0.37273E+05
 0.50970001E+02 -0.17082E+06
 0.51020000E+02 -0.90678E+06
 0.51070000E+02 -0.17171E+07
 0.51120003E+02 -0.21635E+07
 0.51170002E+02 -0.22225E+07
 0.51220001E+02 -0.18581E+07
 0.51270000E+02 -0.16252E+07
 0.51320000E+02 -0.17182E+07
 0.51370003E+02 -0.16714E+07
 0.51420002E+02 -0.13889E+07
 0.51470001E+02 -0.12038E+07
 0.51520000E+02 -0.12240E+07
 0.51570000E+02 -0.15128E+07
 0.51620003E+02 -0.21599E+07
 0.51670002E+02 -0.25703E+07
 0.51720001E+02 -0.24379E+07
 0.51770000E+02 -0.21728E+07
 0.51820000E+02 -0.19776E+07
 0.51870003E+02 -0.16427E+07
 0.51920002E+02 -0.12404E+07
 0.51970001E+02 -0.11424E+07
 0.52020000E+02 -0.93451E+06
 0.52070000E+02 -0.37495E+06
 0.52120003E+02  0.87000E+03
 0.52170002E+02 -0.99475E+05
 0.52220001E+02 -0.44003E+06
 0.52270000E+02 -0.70539E+06
 0.52320000E+02 -0.78179E+06
 0.52370003E+02 -0.50480E+06
 0.52420002E+02 -0.28388E+06
 0.52470001E+02 -0.34324E+06
 0.52520000E+02 -0.42992E+06
 0.52570000E+02 -0.58585E+06
 0.52620003E+02 -0.52920E+06
 0.52670002E+02 -0.43383E+06
 0.52720001E+02 -0.61414E+06
 0.52770000E+02 -0.42877E+06
 0.52820000E+02  0.65805E+06
 0.52870003E+02  0.19988E+07
 0.52920002E+02  0.27891E+07
 0.52970001E+02  0.30657E+07
 0.53020000E+02  0.27605E+07
 0.53070000E+02  0.21493E+07
 0.53120003E+02  0.16841E+07
 0.53170002E+02  0.11756E+07
 0.53220001E+02  0.70406E+06
 0.53270000E+02  0.24022E+06
 0.53320000E+02 -0.46347E+06
 0.53370003E+02 -0.11642E+07
 0.53420002E+02 -0.16156E+07
 0.53470001E+02 -0.18249E+07
 0.53520000E+02 -0.17531E+07
 0.53570000E+02 -0.16781E+07
 0.53620003E+02 -0.14897E+07
 0.53670002E+02 -0.57842E+06
 0.53720001E+02  0.63611E+06
 0.53770000E+02  0.16594E+07
 0.53820000E+02  0.24330E+07
 0.53870003E+02  0.29308E+07
 0.53920002E+02  0.35414E+07
 0.53970001E+02  0.44051E+07
 0.54020000E+02  0.51654E+07
 0.54070000E+02  0.55771E+07
 0.54120003E+02  0.58419E+07
 0.54170002E+02  0.59871E+07
 0.54220001E+02  0.56977E+07
 0.54270000E+02  0.50839E+07
 0.54320000E+02  0.42574E+07
 0.54370003E+02  0.33204E+07
 0.54420002E+02  0.27033E+07
 0.54470001E+02  0.24033E+07
 0.54520000E+02  0.23107E+07
 0.54570000E+02  0.23040E+07
 0.54620003E+02  0.21318E+07
 0.54670002E+02  0.17016E+07
 0.54720001E+02  0.10603E+07
 0.54770000E+02  0.78273E+06
 0.54820000E+02  0.92810E+06
 0.54870003E+02  0.90726E+06
 0.54920002E+02  0.88737E+06
 0.54970001E+02  0.12495E+07
 0.55020000E+02  0.18438E+07
 0.55070000E+02  0.23231E+07
 0.55120003E+02  0.26742E+07
 0.55170002E+02  0.29242E+07
 0.55220001E+02  0.30824E+07
 0.55270000E+02  0.33440E+07
 0.55320000E+02  0.34439E+07
 0.55370003E+02  0.33234E+07
 0.55420002E+02  0.30974E+07
 0.55470001E+02  0.26453E+07
 0.55520000E+02  0.23833E+07
 0.55570000E+02  0.26477E+07
 0.55620003E+02  0.30958E+07
 0.55670002E+02  0.31783E+07
 0.55720001E+02  0.29669E+07
 0.55770000E+02  0.28483E+07
 0.55820000E+02  0.29000E+07
 0.55870003E+02  0.30678E+07
 0.55920002E+02  0.30406E+07
 0.55970001E+02  0.26597E+07
 0.56020000E+02  0.20472E+07
 0.56070000E+02  0.13278E+07
 0.56120003E+02  0.55557E+06
 0.56170002E+02  0.93975E+05
 0.56220001E+02  0.39618E+06
 0.56270000E+02  0.69973E+06
 0.56320000E+02  0.37283E+06
 0.56370003E+02 -0.12561E+06
 0.56420002E+02 -0.49415E+06
 0.56470001E+02 -0.51659E+06
 0.56520000E+02 -0.39603E+06
 0.56570000E+02 -0.56944E+06
 0.56620003E+02 -0.10274E+07
 0.56670002E+02 -0.16468E+07
 0.56720001E+02 -0.21973E+07
 0.56770000E+02 -0.25584E+07
 0.56820000E+02 -0.27809E+07
 0.56870003E+02 -0.29743E+07
 0.56920002E+02 -0.31251E+07
 0.56970001E+02 -0.29842E+07
 0.57020000E+02 -0.25049E+07
 0.57070000E+02 -0.16893E+07
 0.57120003E+02 -0.77583E+06
 0.57170002E+02 -0.25238E+06
 0.57220001E+02 -0.99857E+05
 0.57270000E+02 -0.20557E+06
 0.57320000E+02 -0.50138E+06
 0.57370003E+02 -0.80923E+06
 0.57420002E+02 -0.10300E+07
 0.57470001E+02 -0.11902E+07
 0.57520000E+02 -0.13541E+07
 0.57570000E+02 -0.12681E+07
 0.57620003E+02 -0.84724E+06
 0.57670002E+02 -0.35084E+06
 0.57720001E+02  0.14294E+06
 0.57770000E+02  0.77178E+06
 0.57820000E+02  0.14458E+07
 0.57870003E+02  0.18316E+07
 0.57920002E+02  0.18886E+07
 0.57970001E+02  0.17492E+07
 0.58020000E+02  0.16440E+07
 0.58070000E+02  0.17169E+07
 0.58120003E+02  0.16434E+07
 0.58170002E+02  0.13300E+07
 0.58220001E+02  0.79009E+06
 0.58270000E+02 -0.41473E+05
 0.58320000E+02 -0.74488E+06
 0.58370003E+02 -0.10242E+07
 0.58420002E+02 -0.90326E+06
 0.58470001E+02 -0.77686E+06
 0.58520000E+02 -0.99299E+06
 0.58570000E+02 -0.13210E+07
 0.58620003E+02 -0.15840E+07
 0.58670002E+02 -0.17689E+07
 0.58720001E+02 -0.18404E+07
 0.58770000E+02 -0.17464E+07
 0.58820000E+02 -0.15681E+07
 0.58870003E+02 -0.14308E+07
 0.58920002E+02 -0.14162E+07
 0.58970001E+02 -0.14007E+07
 0.59020000E+02 -0.11832E+07
 0.59070000E+02 -0.84852E+06
 0.59120003E+02 -0.56948E+06
 0.59170002E+02 -0.48598E+06
 0.59220001E+02 -0.33057E+06
 0.59270000E+02  0.63420E+04
 0.59320000E+02  0.16241E+06
 0.59370003E+02  0.22634E+06
 0.59420002E+02  0.42794E+06
 0.59470001E+02  0.62607E+06
 0.59520000E+02  0.62072E+06
 0.59570000E+02  0.57085E+06
 0.59620003E+02  0.58104E+06
 0.59670002E+02  0.46478E+06
 0.59720001E+02  0.38834E+06
 0.59770000E+02  0.50843E+06
 0.59820000E+02  0.55999E+06
 0.59870003E+02  0.29186E+06
 0.59920002E+02 -0.30308E+06
 0.59970001E+02 -0.10993E+07
 0.60020000E+02 -0.19350E+07
 0.60070000E+02 -0.27224E+07
 0.60120003E+02 -0.35096E+07
 0.60170002E+02 -0.41666E+07
 0.60220001E+02 -0.44415E+07
 0.60270000E+02 -0.45116E+07
 0.60320000E+02 -0.47270E+07
 0.60370003E+02 -0.50822E+07
 0.60420002E+02 -0.53756E+07
 0.60470001E+02 -0.54589E+07
 0.60520000E+02 -0.52820E+07
 0.60570000E+02 -0.50030E+07
 0.60620003E+02 -0.49159E+07
 0.60670002E+02 -0.49911E+07
 0.60720001E+02 -0.50937E+07
 0.60770000E+02 -0.52432E+07
 0.60820000E+02 -0.53617E+07
 0.60870003E+02 -0.52604E+07
 0.60920002E+02 -0.49243E+07
 0.60970001E+02 -0.46335E+07
 0.61020000E+02 -0.44077E+07
 0.61070004E+02 -0.40831E+07
 0.61119999E+02 -0.37025E+07
 0.61170002E+02 -0.33943E+07
 0.61220005E+02 -0.33317E+07
 0.61270000E+02 -0.35372E+07
 0.61320004E+02 -0.38454E+07
 0.61369999E+02 -0.39703E+07
 0.61420002E+02 -0.37686E+07
 0.61470005E+02 -0.34913E+07
 0.61520000E+02 -0.32682E+07
 0.61570004E+02 -0.30169E+07
 0.61619999E+02 -0.27990E+07
 0.61670002E+02 -0.27087E+07
 0.61720005E+02 -0.26205E+07
 0.61770000E+02 -0.22888E+07
 0.61820004E+02 -0.18480E+07
 0.61869999E+02 -0.15524E+07
 0.61920002E+02 -0.13705E+07
 0.61970005E+02 -0.11727E+07
 0.62020000E+02 -0.87887E+06
 0.62070004E+02 -0.69678E+06
 0.62119999E+02 -0.83247E+06
 0.62170002E+02 -0.11999E+07
 0.62220005E+02 -0.15362E+07
 0.62270000E+02 -0.14994E+07
 0.62320004E+02 -0.94567E+06
 0.62369999E+02 -0.11915E+06
 0.62420002E+02  0.49267E+06
 0.62470005E+02  0.69926E+06
 0.62520000E+02  0.67138E+06
 0.62570004E+02  0.59691E+06
 0.62619999E+02  0.57367E+06
 0.62670002E+02  0.64000E+06
 0.62720005E+02  0.86583E+06
 0.62770000E+02  0.11933E+07
 0.62820004E+02  0.14963E+07
 0.62869999E+02  0.17034E+07
 0.62920002E+02  0.17347E+07
 0.62970005E+02  0.17033E+07
 0.63020000E+02  0.17673E+07
 0.63070004E+02  0.18323E+07
 0.63119999E+02  0.17851E+07
 0.63170002E+02  0.15522E+07
 0.63220005E+02  0.11418E+07
 0.63270000E+02  0.82300E+06
 0.63320004E+02  0.78098E+06
 0.63369999E+02  0.10066E+07
 0.63420002E+02  0.14004E+07
 0.63470005E+02  0.17924E+07
 0.63520000E+02  0.20795E+07
 0.63570004E+02  0.21936E+07
 0.63619999E+02  0.22638E+07
 0.63670002E+02  0.24180E+07
 0.63720005E+02  0.24874E+07
 0.63770000E+02  0.24047E+07
 0.63820004E+02  0.22452E+07
 0.63869999E+02  0.19775E+07
 0.63920002E+02  0.16225E+07
 0.63970005E+02  0.14359E+07
 0.64019997E+02  0.15873E+07
 0.64070000E+02  0.18507E+07
 0.64119995E+02  0.19786E+07
 0.64169998E+02  0.19840E+07
 0.64220001E+02  0.18957E+07
 0.64269997E+02  0.17759E+07
 0.64320000E+02  0.17583E+07
 0.64369995E+02  0.17522E+07
 0.64419998E+02  0.16326E+07
 0.64470001E+02  0.14448E+07
 0.64519997E+02  0.13389E+07
 0.64570000E+02  0.13285E+07
 0.64619995E+02  0.12900E+07
 0.64669998E+02  0.12625E+07
 0.64720001E+02  0.11316E+07
 0.64769997E+02  0.78490E+06
 0.64820000E+02  0.29717E+06
 0.64869995E+02 -0.21886E+06
 0.64919998E+02 -0.58644E+06
 0.64970001E+02 -0.77105E+06
 0.65019997E+02 -0.75782E+06
 0.65070000E+02 -0.59468E+06
 0.65119995E+02 -0.43294E+06
 0.65169998E+02 -0.32678E+06
 0.65220001E+02 -0.28477E+06
 0.65269997E+02 -0.20660E+06
 0.65320000E+02  0.33361E+05
 0.65369995E+02  0.44055E+06
 0.65419998E+02  0.10165E+07
 0.65470001E+02  0.16539E+07
 0.65519997E+02  0.21588E+07
 0.65570000E+02  0.24749E+07
 0.65619995E+02  0.25494E+07
 0.65669998E+02  0.23772E+07
 0.65720001E+02  0.20915E+07
 0.65769997E+02  0.18619E+07
 0.65820000E+02  0.18298E+07
 0.65869995E+02  0.19368E+07
 0.65919998E+02  0.20191E+07
 0.65970001E+02  0.20441E+07
 0.66019997E+02  0.20127E+07
 0.66070000E+02  0.18109E+07
 0.66119995E+02  0.14875E+07
 0.66169998E+02  0.12304E+07
 0.66220001E+02  0.97638E+06
 0.66269997E+02  0.68737E+06
 0.66320000E+02  0.43957E+06
 0.66369995E+02  0.23645E+06
 0.66419998E+02  0.12286E+06
 0.66470001E+02  0.13657E+06
 0.66519997E+02  0.29254E+06
 0.66570000E+02  0.51285E+06
 0.66619995E+02  0.64300E+06
 0.66669998E+02  0.66333E+06
 0.66720001E+02  0.65138E+06
 0.66769997E+02  0.64495E+06
 0.66820000E+02  0.58830E+06
 0.66869995E+02  0.45277E+06
 0.66919998E+02  0.29373E+06
 0.66970001E+02  0.12998E+06
 0.67019997E+02 -0.13065E+05
 0.67070000E+02 -0.15117E+06
 0.67119995E+02 -0.37999E+06
 0.67169998E+02 -0.64389E+06
 0.67220001E+02 -0.75829E+06
 0.67269997E+02 -0.68437E+06
 0.67320000E+02 -0.55149E+06
 0.67369995E+02 -0.51992E+06
 0.67419998E+02 -0.68471E+06
 0.67470001E+02 -0.98051E+06
 0.67519997E+02 -0.13103E+07
 0.67570000E+02 -0.15512E+07
 0.67619995E+02 -0.15403E+07
 0.67669998E+02 -0.12989E+07
 0.67720001E+02 -0.99823E+06
 0.67769997E+02 -0.78595E+06
 0.67820000E+02 -0.60347E+06
 0.67869995E+02 -0.38921E+06
 0.67919998E+02 -0.21401E+06
 0.67970001E+02 -0.12014E+06
 0.68019997E+02 -0.16515E+06
 0.68070000E+02 -0.29467E+06
 0.68119995E+02 -0.37144E+06
 0.68169998E+02 -0.38928E+06
 0.68220001E+02 -0.39478E+06
 0.68269997E+02 -0.35269E+06
 0.68320000E+02 -0.25512E+06
 0.68369995E+02 -0.15870E+06
 0.68419998E+02 -0.13646E+06
 0.68470001E+02 -0.20049E+06
 0.68519997E+02 -0.26636E+06
 0.68570000E+02 -0.30987E+06
 0.68619995E+02 -0.33799E+06
 0.68669998E+02 -0.35542E+06
 0.68720001E+02 -0.30373E+06
 0.68769997E+02 -0.16988E+06
 0.68820000E+02 -0.38785E+05
 0.68869995E+02  0.12130E+06
 0.68919998E+02  0.29584E+06
 0.68970001E+02  0.45804E+06
 0.69019997E+02  0.54234E+06
 0.69070000E+02  0.43310E+06
 0.69119995E+02  0.23912E+06
 0.69169998E+02  0.81851E+05
 0.69220001E+02 -0.23944E+05
 0.69269997E+02 -0.13996E+06
 0.69320000E+02 -0.29522E+06
 0.69369995E+02 -0.38458E+06
 0.69419998E+02 -0.33300E+06
 0.69470001E+02 -0.12708E+06
 0.69519997E+02  0.15515E+06
 0.69570000E+02  0.42727E+06
 0.69619995E+02  0.65988E+06
 0.69669998E+02  0.88462E+06
 0.69720001E+02  0.11628E+07
 0.69769997E+02  0.14540E+07
 0.69820000E+02  0.16965E+07
 0.69869995E+02  0.18486E+07
 0.69919998E+02  0.18635E+07
 0.69970001E+02  0.16878E+07
 0.70019997E+02  0.13601E+07
 0.70070000E+02  0.10145E+07
 0.70119995E+02  0.72382E+06
 0.70169998E+02  0.49578E+06
 0.70220001E+02  0.27387E+06
 0.70269997E+02  0.61380E+04
 0.70320000E+02 -0.28354E+06
 0.70369995E+02 -0.51262E+06
 0.70419998E+02 -0.63484E+06
 0.70470001E+02 -0.68037E+06
 0.70519997E+02 -0.60812E+06
 0.70570000E+02 -0.35707E+06
 0.70619995E+02  0.67995E+05
 0.70669998E+02  0.59416E+06
 0.70720001E+02  0.10351E+07
 0.70769997E+02  0.12819E+07
 0.70820000E+02  0.13322E+07
 0.70869995E+02  0.11977E+07
 0.70919998E+02  0.96758E+06
 0.70970001E+02  0.77367E+06
 0.71019997E+02  0.71603E+06
 0.71070000E+02  0.73108E+06
 0.71119995E+02  0.76525E+06
 0.71169998E+02  0.85190E+06
 0.71220001E+02  0.94175E+06
 0.71269997E+02  0.10219E+07
 0.71320000E+02  0.11055E+07
 0.71369995E+02  0.12313E+07
 0.71419998E+02  0.14628E+07
 0.71470001E+02  0.17672E+07
 0.71519997E+02  0.20559E+07
 0.71570000E+02  0.23077E+07
 0.71619995E+02  0.25460E+07
 0.71669998E+02  0.27374E+07
 0.71720001E+02  0.27832E+07
 0.71769997E+02  0.26482E+07
 0.71820000E+02  0.24586E+07
 0.71869995E+02  0.23541E+07
 0.71919998E+02  0.24021E+07
 0.71970001E+02  0.25111E+07
 0.72019997E+02  0.25156E+07
 0.72070000E+02  0.23812E+07
 0.72119995E+02  0.21488E+07
 0.72169998E+02  0.18948E+07
 0.72220001E+02  0.16479E+07
 0.72269997E+02  0.13910E+07
 0.72320000E+02  0.11306E+07
 0.72369995E+02  0.85655E+06
 0.72419998E+02  0.59735E+06
 0.72470001E+02  0.33251E+06
 0.72519997E+02 -0.29594E+05
 0.72570000E+02 -0.44621E+06
 0.72619995E+02 -0.84622E+06
 0.72669998E+02 -0.11999E+07
 0.72720001E+02 -0.14547E+07
 0.72769997E+02 -0.15827E+07
 0.72820000E+02 -0.15918E+07
 0.72869995E+02 -0.15419E+07
 0.72919998E+02 -0.14853E+07
 0.72970001E+02 -0.14206E+07
 0.73019997E+02 -0.13129E+07
 0.73070000E+02 -0.11183E+07
 0.73119995E+02 -0.83893E+06
 0.73169998E+02 -0.55830E+06
 0.73220001E+02 -0.36619E+06
 0.73269997E+02 -0.27391E+06
 0.73320000E+02 -0.22634E+06
 0.73369995E+02 -0.17149E+06
 0.73419998E+02 -0.12117E+06
 0.73470001E+02 -0.74110E+05
 0.73519997E+02 -0.17276E+05
 0.73570000E+02  0.16300E+05
 0.73619995E+02  0.14756E+05
 0.73669998E+02  0.25083E+05
 0.73720001E+02  0.87842E+05
 0.73769997E+02  0.14183E+06
 0.73820000E+02  0.13298E+06
 0.73869995E+02  0.55744E+05
 0.73919998E+02 -0.53977E+05
 0.73970001E+02 -0.93136E+05
 0.74019997E+02 -0.57124E+05
 0.74070000E+02 -0.13793E+05
 0.74119995E+02 -0.21955E+05
 0.74169998E+02 -0.77891E+05
 0.74220001E+02 -0.17914E+06
 0.74269997E+02 -0.36339E+06
 0.74320000E+02 -0.59178E+06
 0.74369995E+02 -0.83091E+06
 0.74419998E+02 -0.10079E+07
 0.74470001E+02 -0.10942E+07
 0.74519997E+02 -0.11439E+07
 0.74570000E+02 -0.11502E+07
 0.74619995E+02 -0.11145E+07
 0.74669998E+02 -0.10356E+07
 0.74720001E+02 -0.92210E+06
 0.74769997E+02 -0.77970E+06
 0.74820000E+02 -0.64073E+06
 0.74869995E+02 -0.61659E+06
 0.74919998E+02 -0.75926E+06
 0.74970001E+02 -0.99602E+06
 0.75019997E+02 -0.12302E+07
 0.75070000E+02 -0.14167E+07
 0.75119995E+02 -0.15233E+07
 0.75169998E+02 -0.15802E+07
 0.75220001E+02 -0.16223E+07
 0.75269997E+02 -0.16120E+07
 0.75320000E+02 -0.15475E+07
 0.75369995E+02 -0.14680E+07
 0.75419998E+02 -0.14067E+07
 0.75470001E+02 -0.13782E+07
 0.75519997E+02 -0.13799E+07
 0.75570000E+02 -0.13607E+07
 0.75619995E+02 -0.12880E+07
 0.75669998E+02 -0.12035E+07
 0.75720001E+02 -0.11049E+07
 0.75769997E+02 -0.96929E+06
 0.75820000E+02 -0.82142E+06
 0.75869995E+02 -0.67724E+06
 0.75919998E+02 -0.53735E+06
 0.75970001E+02 -0.45536E+06
 0.76019997E+02 -0.48164E+06
 0.76070000E+02 -0.59416E+06
 0.76119995E+02 -0.71776E+06
 0.76169998E+02 -0.78491E+06
 0.76220001E+02 -0.80815E+06
 0.76269997E+02 -0.81805E+06
 0.76320000E+02 -0.82945E+06
 0.76369995E+02 -0.84113E+06
 0.76419998E+02 -0.83697E+06
 0.76470001E+02 -0.83713E+06
 0.76519997E+02 -0.87922E+06
 0.76570000E+02 -0.98229E+06
 0.76619995E+02 -0.11306E+07
 0.76669998E+02 -0.12331E+07
 0.76720001E+02 -0.12117E+07
 0.76769997E+02 -0.11232E+07
 0.76820000E+02 -0.10624E+07
 0.76869995E+02 -0.10487E+07
 0.76919998E+02 -0.10398E+07
 0.76970001E+02 -0.10226E+07
 0.77019997E+02 -0.10023E+07
 0.77070000E+02 -0.96012E+06
 0.77119995E+02 -0.90655E+06
 0.77169998E+02 -0.87140E+06
 0.77220001E+02 -0.86292E+06
 0.77269997E+02 -0.87579E+06
 0.77320000E+02 -0.89050E+06
 0.77369995E+02 -0.87884E+06
 0.77419998E+02 -0.82470E+06
 0.77470001E+02 -0.69894E+06
 0.77519997E+02 -0.51828E+06
 0.77570000E+02 -0.31955E+06
 0.77619995E+02 -0.10074E+06
 0.77669998E+02  0.11579E+06
 0.77720001E+02  0.31870E+06
 0.77769997E+02  0.51910E+06
 0.77820000E+02  0.70994E+06
 0.77869995E+02  0.84812E+06
 0.77919998E+02  0.88366E+06
 0.77970001E+02  0.80913E+06
 0.78019997E+02  0.65123E+06
 0.78070000E+02  0.47093E+06
 0.78119995E+02  0.34313E+06
 0.78169998E+02  0.30527E+06
 0.78220001E+02  0.32900E+06
 0.78269997E+02  0.36615E+06
 0.78320000E+02  0.39249E+06
 0.78369995E+02  0.39841E+06
 0.78419998E+02  0.40708E+06
 0.78470001E+02  0.43167E+06
 0.78519997E+02  0.46807E+06
 0.78570000E+02  0.53283E+06
 0.78619995E+02  0.63216E+06
 0.78669998E+02  0.76885E+06
 0.78720001E+02  0.94703E+06
 0.78769997E+02  0.11326E+07
 0.78820000E+02  0.12823E+07
 0.78869995E+02  0.13701E+07
 0.78919998E+02  0.13620E+07
 0.78970001E+02  0.12985E+07
 0.79019997E+02  0.12393E+07
 0.79070000E+02  0.11650E+07
 0.79119995E+02  0.10680E+07
 0.79169998E+02  0.97508E+06
 0.79220001E+02  0.93375E+06
 0.79269997E+02  0.95817E+06
 0.79320000E+02  0.10050E+07
 0.79369995E+02  0.10176E+07
 0.79419998E+02  0.98162E+06
 0.79470001E+02  0.93411E+06
 0.79519997E+02  0.89132E+06
 0.79570000E+02  0.85537E+06
 0.79619995E+02  0.82693E+06
 0.79669998E+02  0.81670E+06
 0.79720001E+02  0.83021E+06
 0.79769997E+02  0.84715E+06
 0.79820000E+02  0.86452E+06
 0.79869995E+02  0.87855E+06
 0.79919998E+02  0.87314E+06
 0.79970001E+02  0.80422E+06
 0.80019997E+02  0.62835E+06
 0.80070000E+02  0.38527E+06
 0.80119995E+02  0.13858E+06
 0.80169998E+02 -0.83716E+05
 0.80220001E+02 -0.26977E+06
 0.80269997E+02 -0.42610E+06
 0.80320000E+02 -0.57583E+06
 0.80369995E+02 -0.72255E+06
 0.80419998E+02 -0.81652E+06
 0.80470001E+02 -0.81894E+06
 0.80519997E+02 -0.73708E+06
 0.80570000E+02 -0.59937E+06
 0.80619995E+02 -0.46505E+06
 0.80669998E+02 -0.36897E+06
 0.80720001E+02 -0.32429E+06
 0.80769997E+02 -0.31511E+06
 0.80820000E+02 -0.29662E+06
 0.80869995E+02 -0.26948E+06
 0.80919998E+02 -0.22640E+06
 0.80970001E+02 -0.17730E+06
 0.81019997E+02 -0.16984E+06
 0.81070000E+02 -0.22328E+06
 0.81119995E+02 -0.30847E+06
 0.81169998E+02 -0.36799E+06
 0.81220001E+02 -0.40532E+06
 0.81269997E+02 -0.44516E+06
 0.81320000E+02 -0.48832E+06
 0.81369995E+02 -0.54568E+06
 0.81419998E+02 -0.59584E+06
 0.81470001E+02 -0.61141E+06
 0.81519997E+02 -0.59061E+06
 0.81570000E+02 -0.55476E+06
 0.81619995E+02 -0.56108E+06
 0.81669998E+02 -0.63964E+06
 0.81720001E+02 -0.78919E+06
 0.81769997E+02 -0.10026E+07
 0.81820000E+02 -0.12500E+07
 0.81869995E+02 -0.14712E+07
 0.81919998E+02 -0.16123E+07
 0.81970001E+02 -0.16853E+07
 0.82019997E+02 -0.17196E+07
 0.82070000E+02 -0.17155E+07
 0.82119995E+02 -0.16741E+07
 0.82169998E+02 -0.16481E+07
 0.82220001E+02 -0.16517E+07
 0.82269997E+02 -0.16351E+07
 0.82320000E+02 -0.15875E+07
 0.82369995E+02 -0.14987E+07
 0.82419998E+02 -0.13883E+07
 0.82470001E+02 -0.12933E+07
 0.82519997E+02 -0.11977E+07
 0.82570000E+02 -0.10885E+07
 0.82619995E+02 -0.98276E+06
 0.82669998E+02 -0.89134E+06
 0.82720001E+02 -0.79631E+06
 0.82769997E+02 -0.67452E+06
 0.82820000E+02 -0.51437E+06
 0.82869995E+02 -0.33738E+06
 0.82919998E+02 -0.18061E+06
 0.82970001E+02 -0.40923E+05
 0.83019997E+02  0.83137E+05
 0.83070000E+02  0.18197E+06
 0.83119995E+02  0.29050E+06
 0.83169998E+02  0.42716E+06
 0.83220001E+02  0.56013E+06
 0.83269997E+02  0.65643E+06
 0.83320000E+02  0.69954E+06
 0.83369995E+02  0.74023E+06
 0.83419998E+02  0.84404E+06
 0.83470001E+02  0.10107E+07
 0.83519997E+02  0.12250E+07
 0.83570000E+02  0.14635E+07
 0.83619995E+02  0.16782E+07
 0.83669998E+02  0.18150E+07
 0.83720001E+02  0.18491E+07
 0.83769997E+02  0.17898E+07
 0.83820000E+02  0.16767E+07
 0.83869995E+02  0.15664E+07
 0.83919998E+02  0.14501E+07
 0.83970001E+02  0.12821E+07
 0.84019997E+02  0.10758E+07
 0.84070000E+02  0.87676E+06
 0.84119995E+02  0.70835E+06
 0.84169998E+02  0.57726E+06
 0.84220001E+02  0.49374E+06
 0.84269997E+02  0.47789E+06
 0.84320000E+02  0.54534E+06
 0.84369995E+02  0.66254E+06
 0.84419998E+02  0.75646E+06
 0.84470001E+02  0.79000E+06
 0.84519997E+02  0.77791E+06
 0.84570000E+02  0.74264E+06
 0.84619995E+02  0.68855E+06
 0.84669998E+02  0.61283E+06
 0.84720001E+02  0.55151E+06
 0.84769997E+02  0.55679E+06
 0.84820000E+02  0.62116E+06
 0.84869995E+02  0.70218E+06
 0.84919998E+02  0.77159E+06
 0.84970001E+02  0.82290E+06
 0.85019997E+02  0.85520E+06
 0.85070000E+02  0.86648E+06
 0.85119995E+02  0.87829E+06
 0.85169998E+02  0.90669E+06
 0.85220001E+02  0.93231E+06
 0.85269997E+02  0.95563E+06
 0.85320000E+02  0.99461E+06
 0.85369995E+02  0.10332E+07
 0.85419998E+02  0.10583E+07
 0.85470001E+02  0.10710E+07
 0.85519997E+02  0.10734E+07
 0.85570000E+02  0.10640E+07
 0.85619995E+02  0.10334E+07
 0.85669998E+02  0.98688E+06
 0.85720001E+02  0.91952E+06
 0.85769997E+02  0.82892E+06
 0.85820000E+02  0.73288E+06
 0.85869995E+02  0.63700E+06
 0.85919998E+02  0.54239E+06
 0.85970001E+02  0.44584E+06
 0.86019997E+02  0.35045E+06
 0.86070000E+02  0.27196E+06
 0.86119995E+02  0.22203E+06
 0.86169998E+02  0.19752E+06
 0.86220001E+02  0.18511E+06
 0.86269997E+02  0.17875E+06
 0.86320000E+02  0.15475E+06
 0.86369995E+02  0.91203E+05
 0.86419998E+02 -0.32490E+04
 0.86470001E+02 -0.11340E+06
 0.86519997E+02 -0.22220E+06
 0.86570000E+02 -0.31071E+06
 0.86619995E+02 -0.37330E+06
 0.86669998E+02 -0.42429E+06
 0.86720001E+02 -0.48603E+06
 0.86769997E+02 -0.57280E+06
 0.86820000E+02 -0.66802E+06
 0.86869995E+02 -0.76676E+06
 0.86919998E+02 -0.87488E+06
 0.86970001E+02 -0.98202E+06
 0.87019997E+02 -0.11087E+07
 0.87070000E+02 -0.12516E+07
 0.87119995E+02 -0.13728E+07
 0.87169998E+02 -0.14656E+07
 0.87220001E+02 -0.15198E+07
 0.87269997E+02 -0.15059E+07
 0.87320000E+02 -0.14278E+07
 0.87369995E+02 -0.13376E+07
 0.87419998E+02 -0.12752E+07
 0.87470001E+02 -0.12303E+07
 0.87519997E+02 -0.11764E+07
 0.87570000E+02 -0.10978E+07
 0.87619995E+02 -0.98831E+06
 0.87669998E+02 -0.86248E+06
 0.87720001E+02 -0.73399E+06
 0.87769997E+02 -0.59310E+06
 0.87820000E+02 -0.42817E+06
 0.87869995E+02 -0.25323E+06
 0.87919998E+02 -0.89228E+05
 0.87970001E+02  0.63961E+05
 0.88019997E+02  0.18343E+06
 0.88070000E+02  0.24380E+06
 0.88119995E+02  0.25843E+06
 0.88169998E+02  0.23146E+06
 0.88220001E+02  0.14987E+06
 0.88269997E+02 -0.52210E+04
 0.88320000E+02 -0.21437E+06
 0.88369995E+02 -0.38760E+06
 0.88419998E+02 -0.46197E+06
 0.88470001E+02 -0.44448E+06
 0.88519997E+02 -0.35563E+06
 0.88570000E+02 -0.22959E+06
 0.88619995E+02 -0.11431E+06
 0.88669998E+02 -0.12340E+05
 0.88720001E+02  0.10186E+06
 0.88769997E+02  0.23062E+06
 0.88820000E+02  0.36386E+06
 0.88869995E+02  0.49130E+06
 0.88919998E+02  0.60328E+06
 0.88970001E+02  0.70541E+06
 0.89019997E+02  0.82068E+06
 0.89070000E+02  0.93416E+06
 0.89119995E+02  0.10135E+07
 0.89169998E+02  0.10608E+07
 0.89220001E+02  0.11103E+07
 0.89269997E+02  0.11878E+07
 0.89320000E+02  0.12660E+07
 0.89369995E+02  0.13184E+07
 0.89419998E+02  0.13306E+07
 0.89470001E+02  0.12896E+07
 0.89519997E+02  0.11934E+07
 0.89570000E+02  0.10370E+07
 0.89619995E+02  0.84242E+06
 0.89669998E+02  0.64456E+06
 0.89720001E+02  0.46222E+06
 0.89769997E+02  0.30844E+06
 0.89820000E+02  0.17804E+06
 0.89869995E+02  0.77779E+05
 0.89919998E+02  0.36156E+05
 0.89970001E+02  0.51363E+05
 0.90019997E+02  0.91998E+05
 0.90070000E+02  0.13444E+06
 0.90119995E+02  0.17468E+06
 0.90169998E+02  0.20636E+06
 0.90220001E+02  0.22145E+06
 0.90269997E+02  0.21966E+06
 0.90320000E+02  0.21175E+06
 0.90369995E+02  0.20144E+06
 0.90419998E+02  0.16697E+06
 0.90470001E+02  0.11296E+06
 0.90519997E+02  0.59780E+05
 0.90570000E+02  0.98450E+04
 0.90619995E+02 -0.35316E+05
 0.90669998E+02 -0.85228E+05
 0.90720001E+02 -0.14334E+06
 0.90769997E+02 -0.21201E+06
 0.90820000E+02 -0.30321E+06
 0.90869995E+02 -0.41566E+06
 0.90919998E+02 -0.56558E+06
 0.90970001E+02 -0.77458E+06
 0.91019997E+02 -0.10142E+07
 0.91070000E+02 -0.12283E+07
 0.91119995E+02 -0.13799E+07
 0.91169998E+02 -0.14608E+07
 0.91220001E+02 -0.14843E+07
 0.91269997E+02 -0.14659E+07
 0.91320000E+02 -0.14117E+07
 0.91369995E+02 -0.13300E+07
 0.91419998E+02 -0.12297E+07
 0.91470001E+02 -0.11283E+07
 0.91519997E+02 -0.10412E+07
 0.91570000E+02 -0.95998E+06
 0.91619995E+02 -0.85858E+06
 0.91669998E+02 -0.72675E+06
 0.91720001E+02 -0.59992E+06
 0.91769997E+02 -0.51016E+06
 0.91820000E+02 -0.46626E+06
 0.91869995E+02 -0.45144E+06
 0.91919998E+02 -0.41493E+06
 0.91970001E+02 -0.33285E+06
 0.92019997E+02 -0.22044E+06
 0.92070000E+02 -0.95916E+05
 0.92119995E+02  0.35670E+05
 0.92169998E+02  0.17455E+06
 0.92220001E+02  0.32889E+06
 0.92269997E+02  0.51380E+06
 0.92320000E+02  0.72191E+06
 0.92369995E+02  0.93396E+06
 0.92419998E+02  0.11229E+07
 0.92470001E+02  0.12785E+07
 0.92519997E+02  0.14161E+07
 0.92570000E+02  0.15236E+07
 0.92619995E+02  0.15957E+07
 0.92669998E+02  0.16361E+07
 0.92720001E+02  0.16208E+07
 0.92769997E+02  0.15480E+07
 0.92820000E+02  0.14359E+07
 0.92869995E+02  0.12981E+07
 0.92919998E+02  0.11429E+07
 0.92970001E+02  0.96859E+06
 0.93019997E+02  0.78031E+06
 0.93070000E+02  0.57817E+06
 0.93119995E+02  0.35672E+06
 0.93169998E+02  0.11930E+06
 0.93220001E+02 -0.12924E+06
 0.93269997E+02 -0.37271E+06
 0.93320000E+02 -0.58378E+06
 0.93369995E+02 -0.74072E+06
 0.93419998E+02 -0.85806E+06
 0.93470001E+02 -0.97767E+06
 0.93519997E+02 -0.11056E+07
 0.93570000E+02 -0.12205E+07
 0.93619995E+02 -0.13104E+07
 0.93669998E+02 -0.13807E+07
 0.93720001E+02 -0.14574E+07
 0.93769997E+02 -0.15486E+07
 0.93820000E+02 -0.16409E+07
 0.93869995E+02 -0.17193E+07
 0.93919998E+02 -0.17795E+07
 0.93970001E+02 -0.18471E+07
 0.94019997E+02 -0.19325E+07
 0.94070000E+02 -0.20247E+07
 0.94119995E+02 -0.21116E+07
 0.94169998E+02 -0.21770E+07
 0.94220001E+02 -0.22157E+07
 0.94269997E+02 -0.22193E+07
 0.94320000E+02 -0.21781E+07
 0.94369995E+02 -0.20862E+07
 0.94419998E+02 -0.19419E+07
 0.94470001E+02 -0.17662E+07
 0.94519997E+02 -0.15958E+07
 0.94570000E+02 -0.14597E+07
 0.94619995E+02 -0.13683E+07
 0.94669998E+02 -0.13177E+07
 0.94720001E+02 -0.12740E+07
 0.94769997E+02 -0.11835E+07
 0.94820000E+02 -0.10321E+07
 0.94869995E+02 -0.84463E+06
 0.94919998E+02 -0.64477E+06
 0.94970001E+02 -0.44503E+06
 0.95019997E+02 -0.24126E+06
 0.95070000E+02 -0.27053E+05
 0.95119995E+02  0.18498E+06
 0.95169998E+02  0.37819E+06
 0.95220001E+02  0.55742E+06
 0.95269997E+02  0.73138E+06
 0.95320000E+02  0.89201E+06
 0.95369995E+02  0.10225E+07
 0.95419998E+02  0.11126E+07
 0.95470001E+02  0.11852E+07
 0.95519997E+02  0.12818E+07
 0.95570000E+02  0.14149E+07
 0.95619995E+02  0.15589E+07
 0.95669998E+02  0.16880E+07
 0.95720001E+02  0.17971E+07
 0.95769997E+02  0.18780E+07
 0.95820000E+02  0.19295E+07
 0.95869995E+02  0.19681E+07
 0.95919998E+02  0.20027E+07
 0.95970001E+02  0.20395E+07
 0.96019997E+02  0.20944E+07
 0.96070000E+02  0.21682E+07
 0.96119995E+02  0.22395E+07
 0.96169998E+02  0.22821E+07
 0.96220001E+02  0.22820E+07
 0.96269997E+02  0.22427E+07
 0.96320000E+02  0.21722E+07
 0.96369995E+02  0.20825E+07
 0.96419998E+02  0.19892E+07
 0.96470001E+02  0.18956E+07
 0.96519997E+02  0.17826E+07
 0.96570000E+02  0.16389E+07
 0.96619995E+02  0.14713E+07
 0.96669998E+02  0.12686E+07
 0.96720001E+02  0.10279E+07
 0.96769997E+02  0.77591E+06
 0.96820000E+02  0.53709E+06
 0.96869995E+02  0.32312E+06
 0.96919998E+02  0.13930E+06
 0.96970001E+02 -0.13668E+05
 0.97019997E+02 -0.12101E+06
 0.97070000E+02 -0.16532E+06
 0.97119995E+02 -0.16978E+06
 0.97169998E+02 -0.17008E+06
 0.97220001E+02 -0.18039E+06
 0.97269997E+02 -0.19382E+06
 0.97320000E+02 -0.19537E+06
 0.97369995E+02 -0.18910E+06
 0.97419998E+02 -0.17700E+06
 0.97470001E+02 -0.15644E+06
 0.97519997E+02 -0.13641E+06
 0.97570000E+02 -0.12131E+06
 0.97619995E+02 -0.11129E+06
 0.97669998E+02 -0.11019E+06
 0.97720001E+02 -0.13148E+06
 0.97769997E+02 -0.17080E+06
 0.97820000E+02 -0.19810E+06
 0.97869995E+02 -0.20193E+06
 0.97919998E+02 -0.18863E+06
 0.97970001E+02 -0.17968E+06
 0.98019997E+02 -0.20434E+06
 0.98070000E+02 -0.26571E+06
 0.98119995E+02 -0.35033E+06
 0.98169998E+02 -0.44084E+06
 0.98220001E+02 -0.53042E+06
 0.98269997E+02 -0.62832E+06
 0.98320000E+02 -0.72752E+06
 0.98369995E+02 -0.80880E+06
 0.98419998E+02 -0.85790E+06
 0.98470001E+02 -0.86098E+06
 0.98519997E+02 -0.80607E+06
 0.98570000E+02 -0.69540E+06
 0.98619995E+02 -0.55624E+06
 0.98669998E+02 -0.41381E+06
 0.98720001E+02 -0.27815E+06
 0.98769997E+02 -0.15769E+06
 0.98820000E+02 -0.59000E+05
 0.98869995E+02  0.45000E+03
 0.98919998E+02  0.72840E+04
 0.98970001E+02 -0.27050E+05
 0.99019997E+02 -0.74318E+05
 0.99070000E+02 -0.10584E+06
 0.99119995E+02 -0.11086E+06
 0.99169998E+02 -0.89611E+05
 0.99220001E+02 -0.68420E+05
 0.99269997E+02 -0.78301E+05
 0.99320000E+02 -0.11267E+06
 0.99369995E+02 -0.16391E+06
 0.99419998E+02 -0.23729E+06
 0.99470001E+02 -0.32129E+06
 0.99519997E+02 -0.38064E+06
 0.99570000E+02 -0.39754E+06
 0.99619995E+02 -0.38572E+06
 0.99669998E+02 -0.35352E+06
 0.99720001E+02 -0.30082E+06
 0.99769997E+02 -0.23602E+06
 0.99820000E+02 -0.16544E+06
 0.99869995E+02 -0.84920E+05
 0.99919998E+02 -0.61350E+04
 0.99970001E+02  0.56444E+05
 0.10002000E+03  0.10576E+06
 0.10007000E+03  0.14783E+06
 0.10012000E+03  0.18782E+06
 0.10017000E+03  0.22723E+06
 0.10022000E+03  0.26212E+06
 0.10027000E+03  0.27885E+06
 0.10032000E+03  0.27105E+06
 0.10037000E+03  0.25024E+06
 0.10042000E+03  0.22587E+06
 0.10047000E+03  0.20502E+06
 0.10052000E+03  0.19257E+06
 0.10057000E+03  0.18592E+06
 0.10062000E+03  0.17432E+06
 0.10067000E+03  0.14912E+06
 0.10072000E+03  0.11292E+06
 0.10077000E+03  0.64225E+05
 0.10082000E+03  0.29500E+04
 0.10087000E+03 -0.60478E+05
 0.10092000E+03 -0.10198E+06
 0.10097000E+03 -0.10256E+06
 0.10102000E+03 -0.66530E+05
 0.10107000E+03 -0.94640E+04
 0.10112000E+03  0.39818E+05
 0.10117000E+03  0.66210E+05
 0.10122000E+03  0.75043E+05
 0.10127000E+03  0.74376E+05
 0.10132000E+03  0.72992E+05
 0.10137000E+03  0.75970E+05
 0.10142000E+03  0.91334E+05
 0.10147000E+03  0.11210E+06
 0.10152000E+03  0.12420E+06
 0.10157000E+03  0.12682E+06
 0.10162000E+03  0.11392E+06
 0.10167000E+03  0.84704E+05
 0.10172000E+03  0.47020E+05
 0.10177000E+03 -0.12880E+04
 0.10182000E+03 -0.63923E+05
 0.10187000E+03 -0.13650E+06
 0.10192000E+03 -0.19799E+06
 0.10197000E+03 -0.22959E+06
 0.10202000E+03 -0.23658E+06
 0.10207000E+03 -0.22435E+06
 0.10212000E+03 -0.19495E+06
 0.10217000E+03 -0.15364E+06
 0.10222000E+03 -0.10944E+06
 0.10227000E+03 -0.72625E+05
 0.10232000E+03 -0.44454E+05
 0.10237000E+03 -0.28198E+05
 0.10242000E+03 -0.20884E+05
 0.10247000E+03 -0.10200E+05
 0.10252000E+03  0.10239E+05
 0.10257000E+03  0.40677E+05
 0.10262000E+03  0.81865E+05
 0.10267000E+03  0.13654E+06
 0.10272000E+03  0.19182E+06
 0.10277000E+03  0.22804E+06
 0.10282000E+03  0.24508E+06
 0.10287000E+03  0.25635E+06
 0.10292000E+03  0.26374E+06
 0.10297000E+03  0.24872E+06
 0.10302000E+03  0.18960E+06
 0.10307000E+03  0.74333E+05
 0.10312000E+03 -0.88605E+05
 0.10317000E+03 -0.27203E+06
 0.10322000E+03 -0.45062E+06
 0.10327000E+03 -0.60704E+06
 0.10332000E+03 -0.72980E+06
 0.10337000E+03 -0.81008E+06
 0.10342000E+03 -0.84469E+06
 0.10347000E+03 -0.84376E+06
 0.10352000E+03 -0.81582E+06
 0.10357000E+03 -0.76398E+06
 0.10362000E+03 -0.68870E+06
 0.10367000E+03 -0.58916E+06
 0.10372000E+03 -0.48237E+06
 0.10377000E+03 -0.38364E+06
 0.10382000E+03 -0.29153E+06
 0.10387000E+03 -0.20850E+06
 0.10392000E+03 -0.14028E+06
 0.10397000E+03 -0.88140E+05
 0.10402000E+03 -0.51406E+05
 0.10407000E+03 -0.33529E+05
 0.10412000E+03 -0.34972E+05
 0.10417000E+03 -0.37598E+05
 0.10422000E+03 -0.27685E+05
 0.10427000E+03 -0.18517E+05
 0.10432000E+03 -0.21152E+05
 0.10437000E+03 -0.38926E+05
 0.10442000E+03 -0.78216E+05
 0.10447000E+03 -0.14216E+06
 0.10452000E+03 -0.23518E+06
 0.10457000E+03 -0.35155E+06
 0.10462000E+03 -0.46179E+06
 0.10467000E+03 -0.53931E+06
 0.10472000E+03 -0.58844E+06
 0.10477000E+03 -0.61674E+06
 0.10482000E+03 -0.61576E+06
 0.10487000E+03 -0.58605E+06
 0.10492000E+03 -0.53493E+06
 0.10497000E+03 -0.46098E+06
 0.10502000E+03 -0.36834E+06
 0.10507000E+03 -0.27782E+06
 0.10512000E+03 -0.20518E+06
 0.10517000E+03 -0.14852E+06
 0.10522000E+03 -0.10189E+06
 0.10527000E+03 -0.51158E+05
 0.10532000E+03  0.16782E+05
 0.10537000E+03  0.95514E+05
 0.10542000E+03  0.17954E+06
 0.10547000E+03  0.26468E+06
 0.10552000E+03  0.34670E+06
 0.10557000E+03  0.43145E+06
 0.10562000E+03  0.51441E+06
 0.10567000E+03  0.58441E+06
 0.10572000E+03  0.63531E+06
 0.10577000E+03  0.66275E+06
 0.10582000E+03  0.66765E+06
 0.10587000E+03  0.65108E+06
 0.10592000E+03  0.61240E+06
 0.10597000E+03  0.56094E+06
 0.10602000E+03  0.51136E+06
 0.10607000E+03  0.47351E+06
 0.10612000E+03  0.46361E+06
 0.10617000E+03  0.48998E+06
 0.10622000E+03  0.53978E+06
 0.10627000E+03  0.59189E+06
 0.10632000E+03  0.63141E+06
 0.10637000E+03  0.65910E+06
 0.10642000E+03  0.67629E+06
 0.10647000E+03  0.69198E+06
 0.10652000E+03  0.71580E+06
 0.10657000E+03  0.74702E+06
 0.10662000E+03  0.78761E+06
 0.10667000E+03  0.83502E+06
 0.10672000E+03  0.88524E+06
 0.10677000E+03  0.92472E+06
 0.10682000E+03  0.94323E+06
 0.10687000E+03  0.94404E+06
 0.10692000E+03  0.92836E+06
 0.10697000E+03  0.90262E+06
 0.10702000E+03  0.86707E+06
 0.10707000E+03  0.81120E+06
 0.10712000E+03  0.73928E+06
 0.10717000E+03  0.67358E+06
 0.10722000E+03  0.62402E+06
 0.10727000E+03  0.58327E+06
 0.10732000E+03  0.54083E+06
 0.10737000E+03  0.48542E+06
 0.10742000E+03  0.41714E+06
 0.10747000E+03  0.34322E+06
 0.10752000E+03  0.26449E+06
 0.10757000E+03  0.17953E+06
 0.10762000E+03  0.88270E+05
 0.10767000E+03 -0.45810E+04
 0.10772000E+03 -0.93628E+05
 0.10777000E+03 -0.17933E+06
 0.10782000E+03 -0.26667E+06
 0.10787000E+03 -0.36038E+06
 0.10792000E+03 -0.45893E+06
 0.10797000E+03 -0.55911E+06
 0.10802000E+03 -0.65794E+06
 0.10807000E+03 -0.74685E+06
 0.10812000E+03 -0.81606E+06
 0.10817000E+03 -0.86886E+06
 0.10822000E+03 -0.91563E+06
 0.10827000E+03 -0.96341E+06
 0.10832000E+03 -0.10169E+07
 0.10837000E+03 -0.10724E+07
 0.10842000E+03 -0.11213E+07
 0.10847000E+03 -0.11533E+07
 0.10852000E+03 -0.11570E+07
 0.10857000E+03 -0.11190E+07
 0.10862000E+03 -0.10307E+07
 0.10867000E+03 -0.89631E+06
 0.10872000E+03 -0.72496E+06
 0.10877000E+03 -0.52951E+06
 0.10882000E+03 -0.32715E+06
 0.10887000E+03 -0.13161E+06
 0.10892000E+03  0.51703E+05
 0.10897000E+03  0.22105E+06
 0.10902000E+03  0.37413E+06
 0.10907000E+03  0.51135E+06
 0.10912000E+03  0.62653E+06
 0.10917000E+03  0.70635E+06
 0.10922000E+03  0.74228E+06
 0.10927000E+03  0.73485E+06
 0.10932000E+03  0.69357E+06
 0.10937000E+03  0.63222E+06
 0.10942000E+03  0.56282E+06
 0.10947000E+03  0.49709E+06
 0.10952000E+03  0.44833E+06
 0.10957000E+03  0.42390E+06
 0.10962000E+03  0.42099E+06
 0.10967000E+03  0.42525E+06
 0.10972000E+03  0.41906E+06
 0.10977000E+03  0.39098E+06
 0.10982000E+03  0.33779E+06
 0.10987000E+03  0.26464E+06
 0.10992000E+03  0.17949E+06
 0.10997000E+03  0.82140E+05
 0.11002000E+03 -0.37552E+05
 0.11007000E+03 -0.17998E+06
 0.11012000E+03 -0.33539E+06
 0.11017000E+03 -0.49454E+06
 0.11022000E+03 -0.65242E+06
 0.11027000E+03 -0.80392E+06
 0.11032000E+03 -0.93801E+06
 0.11037000E+03 -0.10498E+07
 0.11042000E+03 -0.11412E+07
 0.11047000E+03 -0.12124E+07
 0.11052000E+03 -0.12591E+07
 0.11057000E+03 -0.12784E+07
 0.11062000E+03 -0.12716E+07
 0.11067000E+03 -0.12476E+07
 0.11072000E+03 -0.12163E+07
 0.11077000E+03 -0.11778E+07
 0.11082000E+03 -0.11407E+07
 0.11087000E+03 -0.11168E+07
 0.11092000E+03 -0.10988E+07
 0.11097000E+03 -0.10715E+07
 0.11102000E+03 -0.10287E+07
 0.11107000E+03 -0.96726E+06
 0.11112000E+03 -0.88287E+06
 0.11117000E+03 -0.78089E+06
 0.11122000E+03 -0.66891E+06
 0.11127000E+03 -0.55546E+06
 0.11132000E+03 -0.45136E+06
 0.11137000E+03 -0.35772E+06
 0.11142000E+03 -0.27658E+06
 0.11147000E+03 -0.21086E+06
 0.11152000E+03 -0.15539E+06
 0.11157000E+03 -0.10773E+06
 0.11162000E+03 -0.63862E+05
 0.11167000E+03 -0.22618E+05
 0.11172000E+03  0.91610E+04
 0.11177000E+03  0.27613E+05
 0.11182000E+03  0.31856E+05
 0.11187000E+03  0.24940E+05
 0.11192000E+03  0.12585E+05
 0.11197000E+03  0.72760E+04
 0.11202000E+03  0.18345E+05
 0.11207000E+03  0.41320E+05
 0.11212000E+03  0.77569E+05
 0.11217000E+03  0.13268E+06
 0.11222000E+03  0.20582E+06
 0.11227000E+03  0.29546E+06
 0.11232000E+03  0.39838E+06
 0.11237000E+03  0.50384E+06
 0.11242000E+03  0.60346E+06
 0.11247000E+03  0.70081E+06
 0.11252000E+03  0.79550E+06
 0.11257000E+03  0.88342E+06
 0.11262000E+03  0.96572E+06
 0.11267000E+03  0.10346E+07
 0.11272000E+03  0.10712E+07
 0.11277000E+03  0.10688E+07
 0.11282000E+03  0.10374E+07
 0.11287000E+03  0.98551E+06
 0.11292000E+03  0.91721E+06
 0.11297000E+03  0.83565E+06
 0.11302000E+03  0.74626E+06
 0.11307000E+03  0.65206E+06
 0.11312000E+03  0.55266E+06
 0.11317000E+03  0.45013E+06
 0.11322000E+03  0.33853E+06
 0.11327000E+03  0.21577E+06
 0.11332000E+03  0.91978E+05
 0.11337000E+03 -0.22823E+05
 0.11342000E+03 -0.11941E+06
 0.11347000E+03 -0.20020E+06
 0.11352000E+03 -0.27852E+06
 0.11357000E+03 -0.36212E+06
 0.11362000E+03 -0.44731E+06
 0.11367000E+03 -0.52741E+06
 0.11372000E+03 -0.59634E+06
 0.11377000E+03 -0.64305E+06
 0.11382000E+03 -0.66158E+06
 0.11387000E+03 -0.64946E+06
 0.11392000E+03 -0.60579E+06
 0.11397000E+03 -0.53546E+06
 0.11402000E+03 -0.44602E+06
 0.11407000E+03 -0.34861E+06
 0.11412000E+03 -0.24954E+06
 0.11417000E+03 -0.15105E+06
 0.11422000E+03 -0.57041E+05
 0.11427000E+03  0.26533E+05
 0.11432000E+03  0.94139E+05
 0.11437000E+03  0.14212E+06
 0.11442000E+03  0.16745E+06
 0.11447000E+03  0.17277E+06
 0.11452000E+03  0.16204E+06
 0.11457000E+03  0.13713E+06
 0.11462000E+03  0.10293E+06
 0.11467000E+03  0.64656E+05
 0.11472000E+03  0.22480E+05
 0.11477000E+03 -0.23248E+05
 0.11482000E+03 -0.71589E+05
 0.11487000E+03 -0.11671E+06
 0.11492000E+03 -0.15299E+06
 0.11497000E+03 -0.18372E+06
 0.11502000E+03 -0.20265E+06
 0.11507000E+03 -0.19743E+06
 0.11512000E+03 -0.16108E+06
 0.11517000E+03 -0.95142E+05
 0.11522000E+03 -0.10202E+05
 0.11527000E+03  0.83028E+05
 0.11532000E+03  0.17724E+06
 0.11537000E+03  0.27418E+06
 0.11542000E+03  0.37856E+06
 0.11547000E+03  0.48486E+06
 0.11552000E+03  0.58539E+06
 0.11557000E+03  0.67909E+06
 0.11562000E+03  0.76434E+06
 0.11567000E+03  0.84182E+06
 0.11572000E+03  0.91166E+06
 0.11577000E+03  0.96556E+06
 0.11582000E+03  0.99637E+06
 0.11587000E+03  0.10044E+07
 0.11592000E+03  0.99782E+06
 0.11597000E+03  0.98775E+06
 0.11602000E+03  0.98130E+06
 0.11607000E+03  0.97770E+06
 0.11612000E+03  0.96920E+06
 0.11617000E+03  0.95052E+06
 0.11622000E+03  0.92205E+06
 0.11627000E+03  0.88254E+06
 0.11632000E+03  0.83050E+06
 0.11637000E+03  0.77070E+06
 0.11642000E+03  0.71138E+06
 0.11647000E+03  0.65420E+06
 0.11652000E+03  0.59264E+06
 0.11657000E+03  0.52632E+06
 0.11662000E+03  0.46143E+06
 0.11667000E+03  0.39969E+06
 0.11672000E+03  0.33367E+06
 0.11677000E+03  0.25342E+06
 0.11682000E+03  0.16056E+06
 0.11687000E+03  0.64876E+05
 0.11692000E+03 -0.25079E+05
 0.11697000E+03 -0.10467E+06
 0.11702000E+03 -0.17213E+06
 0.11707000E+03 -0.23396E+06
 0.11712000E+03 -0.29828E+06
 0.11717000E+03 -0.36473E+06
 0.11722000E+03 -0.43357E+06
 0.11727000E+03 -0.50182E+06
 0.11732000E+03 -0.56167E+06
 0.11737000E+03 -0.60131E+06
 0.11742000E+03 -0.61334E+06
 0.11747000E+03 -0.60723E+06
 0.11752000E+03 -0.59647E+06
 0.11757000E+03 -0.59554E+06
 0.11762000E+03 -0.60963E+06
 0.11767000E+03 -0.62876E+06
 0.11772000E+03 -0.64674E+06
 0.11777000E+03 -0.65777E+06
 0.11782000E+03 -0.65567E+06
 0.11787000E+03 -0.64372E+06
 0.11792000E+03 -0.63046E+06
 0.11797000E+03 -0.62514E+06
 0.11802000E+03 -0.63168E+06
 0.11807000E+03 -0.64733E+06
 0.11812000E+03 -0.66610E+06
 0.11817000E+03 -0.68246E+06
 0.11822000E+03 -0.69063E+06
 0.11827000E+03 -0.67850E+06
 0.11832000E+03 -0.63936E+06
 0.11837000E+03 -0.57955E+06
 0.11842000E+03 -0.50829E+06
 0.11847000E+03 -0.42832E+06
 0.11852000E+03 -0.33431E+06
 0.11857000E+03 -0.22144E+06
 0.11862000E+03 -0.90794E+05
 0.11867000E+03  0.49554E+05
 0.11872000E+03  0.18402E+06
 0.11877000E+03  0.30186E+06
 0.11882000E+03  0.40086E+06
 0.11887000E+03  0.47910E+06
 0.11892000E+03  0.54011E+06
 0.11897000E+03  0.58738E+06
 0.11902000E+03  0.61689E+06
 0.11907000E+03  0.62270E+06
 0.11912000E+03  0.60184E+06
 0.11917000E+03  0.56442E+06
 0.11922000E+03  0.52861E+06
 0.11927000E+03  0.50204E+06
 0.11932000E+03  0.47934E+06
 0.11937000E+03  0.45591E+06
 0.11942000E+03  0.42719E+06
 0.11947000E+03  0.38631E+06
 0.11952000E+03  0.33859E+06
 0.11957000E+03  0.29384E+06
 0.11962000E+03  0.25776E+06
 0.11967000E+03  0.23436E+06
 0.11972000E+03  0.22242E+06
 0.11977000E+03  0.21974E+06
 0.11982000E+03  0.22229E+06
 0.11987000E+03  0.22662E+06
 0.11992000E+03  0.23626E+06
 0.11997000E+03  0.25406E+06
 0.12002000E+03  0.27959E+06
 0.12007000E+03  0.31272E+06
 0.12012000E+03  0.34668E+06
 0.12017000E+03  0.36994E+06
 0.12022000E+03  0.37690E+06
 0.12027000E+03  0.36967E+06
 0.12032000E+03  0.35378E+06
 0.12037000E+03  0.33598E+06
 0.12042000E+03  0.32406E+06
 0.12047000E+03  0.32016E+06
 0.12052000E+03  0.32011E+06
 0.12057000E+03  0.31855E+06
 0.12062000E+03  0.31070E+06
 0.12067000E+03  0.29436E+06
 0.12072000E+03  0.26974E+06
 0.12077000E+03  0.23974E+06
 0.12082000E+03  0.21210E+06
 0.12087000E+03  0.19062E+06
 0.12092000E+03  0.16858E+06
 0.12097000E+03  0.14110E+06
 0.12102000E+03  0.11048E+06
 0.12107000E+03  0.84670E+05
 0.12112000E+03  0.76311E+05
 0.12117000E+03  0.88254E+05
 0.12122000E+03  0.10860E+06
 0.12127000E+03  0.12472E+06
 0.12132000E+03  0.12701E+06
 0.12137000E+03  0.11096E+06
 0.12142000E+03  0.81127E+05
 0.12147000E+03  0.46354E+05
 0.12152000E+03  0.13300E+05
 0.12157000E+03 -0.16697E+05
 0.12162000E+03 -0.47113E+05
 0.12167000E+03 -0.82263E+05
 0.12172000E+03 -0.11617E+06
 0.12177000E+03 -0.13916E+06
 0.12182000E+03 -0.14969E+06
 0.12187000E+03 -0.14873E+06
 0.12192000E+03 -0.13415E+06
 0.12197000E+03 -0.10201E+06
 0.12202000E+03 -0.55984E+05
 0.12207000E+03 -0.73590E+04
 0.12212000E+03  0.32971E+05
 0.12217000E+03  0.59367E+05
 0.12222000E+03  0.71923E+05
 0.12227000E+03  0.73009E+05
 0.12232000E+03  0.63736E+05
 0.12237000E+03  0.40444E+05
 0.12242000E+03  0.14780E+04
 0.12247000E+03 -0.47048E+05
 0.12252000E+03 -0.96917E+05
 0.12257000E+03 -0.14410E+06
 0.12262000E+03 -0.18744E+06
 0.12267000E+03 -0.22864E+06
 0.12272000E+03 -0.27327E+06
 0.12277000E+03 -0.32190E+06
 0.12282000E+03 -0.37148E+06
 0.12287000E+03 -0.42097E+06
 0.12292000E+03 -0.46718E+06
 0.12297000E+03 -0.50574E+06
 0.12302000E+03 -0.53862E+06
 0.12307000E+03 -0.57050E+06
 0.12312000E+03 -0.59875E+06
 0.12317000E+03 -0.62144E+06
 0.12322000E+03 -0.64047E+06
 0.12327000E+03 -0.65896E+06
 0.12332000E+03 -0.68142E+06
 0.12337000E+03 -0.70905E+06
 0.12342000E+03 -0.73846E+06
 0.12347000E+03 -0.76055E+06
 0.12352000E+03 -0.77056E+06
 0.12357000E+03 -0.77297E+06
 0.12362000E+03 -0.77222E+06
 0.12367000E+03 -0.76888E+06
 0.12372000E+03 -0.76047E+06
 0.12377000E+03 -0.74293E+06
 0.12382000E+03 -0.71181E+06
 0.12387000E+03 -0.66848E+06
 0.12392000E+03 -0.61923E+06
 0.12397000E+03 -0.56753E+06
 0.12402000E+03 -0.51427E+06
 0.12407000E+03 -0.45917E+06
 0.12412000E+03 -0.39922E+06
 0.12417000E+03 -0.33296E+06
 0.12422000E+03 -0.26342E+06
 0.12427000E+03 -0.19400E+06
 0.12432000E+03 -0.12374E+06
 0.12437000E+03 -0.51363E+05
 0.12442000E+03  0.17629E+05
 0.12447000E+03  0.75469E+05
 0.12452000E+03  0.11687E+06
 0.12457000E+03  0.14201E+06
 0.12462000E+03  0.15545E+06
 0.12467000E+03  0.16074E+06
 0.12472000E+03  0.16088E+06
 0.12477000E+03  0.16146E+06
 0.12482000E+03  0.17028E+06
 0.12487000E+03  0.18682E+06
 0.12492000E+03  0.19868E+06
 0.12497000E+03  0.19654E+06
 0.12502000E+03  0.17903E+06
 0.12507000E+03  0.14534E+06
 0.12512000E+03  0.98622E+05
 0.12517001E+03  0.44109E+05
 0.12521999E+03 -0.13149E+05
 0.12527000E+03 -0.67483E+05
 0.12532000E+03 -0.11980E+06
 0.12537000E+03 -0.17312E+06
 0.12542001E+03 -0.22939E+06
 0.12546999E+03 -0.29229E+06
 0.12552000E+03 -0.35872E+06
 0.12557000E+03 -0.41789E+06
 0.12562000E+03 -0.45978E+06
 0.12567001E+03 -0.48274E+06
 0.12571999E+03 -0.49253E+06
 0.12577000E+03 -0.49402E+06
 0.12582000E+03 -0.49304E+06
 0.12587000E+03 -0.49520E+06
 0.12592001E+03 -0.50230E+06
 0.12596999E+03 -0.51390E+06
 0.12602000E+03 -0.52498E+06
 0.12607000E+03 -0.53102E+06
 0.12612000E+03 -0.53033E+06
 0.12617001E+03 -0.51919E+06
 0.12621999E+03 -0.49688E+06
 0.12627000E+03 -0.46770E+06
 0.12632000E+03 -0.43483E+06
 0.12637000E+03 -0.39758E+06
 0.12642001E+03 -0.35459E+06
 0.12646999E+03 -0.30864E+06
 0.12652000E+03 -0.26258E+06
 0.12657000E+03 -0.21676E+06
 0.12662000E+03 -0.17314E+06
 0.12667001E+03 -0.13304E+06
 0.12671999E+03 -0.95151E+05
 0.12677000E+03 -0.59642E+05
 0.12682000E+03 -0.30344E+05
 0.12687000E+03 -0.81610E+04
 0.12692001E+03  0.92470E+04
 0.12696999E+03  0.22718E+05
 0.12702000E+03  0.32089E+05
 0.12707000E+03  0.38503E+05
 0.12712000E+03  0.48830E+05
 0.12717001E+03  0.68239E+05
 0.12721999E+03  0.95065E+05
 0.12727000E+03  0.12405E+06
 0.12732000E+03  0.15093E+06
 0.12737000E+03  0.17569E+06
 0.12742001E+03  0.19894E+06
 0.12746999E+03  0.22257E+06
 0.12752000E+03  0.24740E+06
 0.12757000E+03  0.27183E+06
 0.12762000E+03  0.29712E+06
 0.12767001E+03  0.32519E+06
 0.12771999E+03  0.35083E+06
 0.12777000E+03  0.36673E+06
 0.12782000E+03  0.37374E+06
 0.12787000E+03  0.37445E+06
 0.12792001E+03  0.37166E+06
 0.12796999E+03  0.37167E+06
 0.12802000E+03  0.37975E+06
 0.12807001E+03  0.40080E+06
 0.12812001E+03  0.43524E+06
 0.12817001E+03  0.47878E+06
 0.12822000E+03  0.52655E+06
 0.12827000E+03  0.57592E+06
 0.12832001E+03  0.62703E+06
 0.12837001E+03  0.67697E+06
 0.12842001E+03  0.72320E+06
 0.12847000E+03  0.76232E+06
 0.12852000E+03  0.79061E+06
 0.12857001E+03  0.80491E+06
 0.12862001E+03  0.80218E+06
 0.12867001E+03  0.78573E+06
 0.12872000E+03  0.76185E+06
 0.12877000E+03  0.73614E+06
 0.12882001E+03  0.71078E+06
 0.12887001E+03  0.68742E+06
 0.12892001E+03  0.67054E+06
 0.12897000E+03  0.66043E+06
 0.12902000E+03  0.65470E+06
 0.12907001E+03  0.65479E+06
 0.12912001E+03  0.66327E+06
 0.12917001E+03  0.67830E+06
 0.12922000E+03  0.68827E+06
 0.12927000E+03  0.68068E+06
 0.12932001E+03  0.65428E+06
 0.12937001E+03  0.61538E+06
 0.12942001E+03  0.57274E+06
 0.12947000E+03  0.53077E+06
 0.12952000E+03  0.48725E+06
 0.12957001E+03  0.43895E+06
 0.12962001E+03  0.38424E+06
 0.12967001E+03  0.32384E+06
 0.12972000E+03  0.25759E+06
 0.12977000E+03  0.18112E+06
 0.12982001E+03  0.92836E+05
 0.12987001E+03 -0.41680E+04
 0.12992001E+03 -0.10518E+06
 0.12997000E+03 -0.20284E+06
 0.13002000E+03 -0.29171E+06
 0.13007001E+03 -0.36704E+06
 0.13012001E+03 -0.42562E+06
 0.13017001E+03 -0.46835E+06
 0.13022000E+03 -0.49486E+06
 0.13027000E+03 -0.50533E+06
 0.13032001E+03 -0.50339E+06
 0.13037001E+03 -0.49387E+06
 0.13042001E+03 -0.48026E+06
 0.13047000E+03 -0.46466E+06
 0.13052000E+03 -0.44716E+06
 0.13057001E+03 -0.42285E+06
 0.13062001E+03 -0.38902E+06
 0.13067001E+03 -0.34880E+06
 0.13072000E+03 -0.30523E+06
 0.13077000E+03 -0.26082E+06
 0.13082001E+03 -0.21472E+06
 0.13087001E+03 -0.16370E+06
 0.13092001E+03 -0.10814E+06
 0.13097000E+03 -0.52758E+05
 0.13102000E+03 -0.27150E+04
 0.13107001E+03  0.40795E+05
 0.13112001E+03  0.76427E+05
 0.13117001E+03  0.10351E+06
 0.13122000E+03  0.12387E+06
 0.13127000E+03  0.13542E+06
 0.13132001E+03  0.13455E+06
 0.13137001E+03  0.12084E+06
 0.13142001E+03  0.93994E+05
 0.13147000E+03  0.54531E+05
 0.13152000E+03  0.73440E+04
 0.13157001E+03 -0.42937E+05
 0.13162001E+03 -0.93087E+05
 0.13167001E+03 -0.13982E+06
 0.13172000E+03 -0.18045E+06
 0.13177000E+03 -0.21018E+06
 0.13182001E+03 -0.22868E+06
 0.13187001E+03 -0.24309E+06
 0.13192001E+03 -0.25690E+06
 0.13197000E+03 -0.26620E+06
 0.13202000E+03 -0.26754E+06
 0.13207001E+03 -0.26107E+06
 0.13212001E+03 -0.24848E+06
 0.13217001E+03 -0.23218E+06
 0.13222000E+03 -0.21414E+06
 0.13227000E+03 -0.19494E+06
 0.13232001E+03 -0.17275E+06
 0.13237001E+03 -0.14739E+06
 0.13242001E+03 -0.12147E+06
 0.13247000E+03 -0.96118E+05
 0.13252000E+03 -0.70941E+05
 0.13257001E+03 -0.44916E+05
 0.13262001E+03 -0.17503E+05
 0.13267001E+03  0.10106E+05
 0.13272000E+03  0.38622E+05
 0.13277000E+03  0.71379E+05
 0.13282001E+03  0.11220E+06
 0.13287001E+03  0.16071E+06
 0.13292001E+03  0.21190E+06
 0.13297000E+03  0.26361E+06
 0.13302000E+03  0.31246E+06
 0.13307001E+03  0.35487E+06
 0.13312001E+03  0.38874E+06
 0.13317001E+03  0.41200E+06
 0.13322000E+03  0.42746E+06
 0.13327000E+03  0.43841E+06
 0.13332001E+03  0.44646E+06
 0.13337001E+03  0.45038E+06
 0.13342001E+03  0.44840E+06
 0.13347000E+03  0.44093E+06
 0.13352000E+03  0.42922E+06
 0.13357001E+03  0.41608E+06
 0.13362001E+03  0.40100E+06
 0.13367001E+03  0.38212E+06
 0.13372000E+03  0.36143E+06
 0.13377000E+03  0.34016E+06
 0.13382001E+03  0.31739E+06
 0.13387001E+03  0.29506E+06
 0.13392001E+03  0.27527E+06
 0.13397000E+03  0.25701E+06
 0.13402000E+03  0.23865E+06
 0.13407001E+03  0.21742E+06
 0.13412001E+03  0.18949E+06
 0.13417001E+03  0.15291E+06
 0.13422000E+03  0.11103E+06
 0.13427000E+03  0.66716E+05
 0.13432001E+03  0.17925E+05
 0.13437001E+03 -0.36653E+05
 0.13442001E+03 -0.94946E+05
 0.13447000E+03 -0.15379E+06
 0.13452000E+03 -0.20848E+06
 0.13457001E+03 -0.25610E+06
 0.13462001E+03 -0.30245E+06
 0.13467001E+03 -0.35278E+06
 0.13472000E+03 -0.40611E+06
 0.13477000E+03 -0.46098E+06
 0.13482001E+03 -0.51673E+06
 0.13487001E+03 -0.57319E+06
 0.13492001E+03 -0.62749E+06
 0.13497000E+03 -0.67344E+06
 0.13502000E+03 -0.70476E+06
 0.13507001E+03 -0.72144E+06
 0.13512001E+03 -0.72739E+06
 0.13517001E+03 -0.72268E+06
 0.13522000E+03 -0.70511E+06
 0.13527000E+03 -0.67390E+06
 0.13532001E+03 -0.63004E+06
 0.13537001E+03 -0.57620E+06
 0.13542001E+03 -0.51948E+06
 0.13547000E+03 -0.46310E+06
 0.13552000E+03 -0.40518E+06
 0.13557001E+03 -0.34545E+06
 0.13562001E+03 -0.28473E+06
 0.13567001E+03 -0.22651E+06
 0.13572000E+03 -0.17128E+06
 0.13577000E+03 -0.11866E+06
 0.13582001E+03 -0.70132E+05
 0.13587001E+03 -0.27643E+05
 0.13592001E+03  0.51350E+04
 0.13597000E+03  0.29719E+05
 0.13602000E+03  0.51834E+05
 0.13607001E+03  0.75677E+05
 0.13612001E+03  0.10188E+06
 0.13617001E+03  0.13012E+06
 0.13622000E+03  0.15924E+06
 0.13627000E+03  0.18458E+06
 0.13632001E+03  0.20287E+06
 0.13637001E+03  0.21234E+06
 0.13642001E+03  0.21242E+06
 0.13647000E+03  0.20510E+06
 0.13652000E+03  0.19296E+06
 0.13657001E+03  0.17972E+06
 0.13662001E+03  0.16739E+06
 0.13667001E+03  0.15638E+06
 0.13672000E+03  0.14792E+06
 0.13677000E+03  0.14146E+06
 0.13682001E+03  0.13648E+06
 0.13687001E+03  0.13270E+06
 0.13692001E+03  0.12835E+06
 0.13697000E+03  0.12320E+06
 0.13702000E+03  0.11823E+06
 0.13707001E+03  0.11540E+06
 0.13712001E+03  0.11812E+06
 0.13717001E+03  0.12720E+06
 0.13722000E+03  0.13911E+06
 0.13727000E+03  0.15060E+06
 0.13732001E+03  0.16200E+06
 0.13737001E+03  0.17130E+06
 0.13742001E+03  0.17341E+06
 0.13747000E+03  0.16783E+06
 0.13752000E+03  0.15709E+06
 0.13757001E+03  0.14428E+06
 0.13762001E+03  0.13179E+06
 0.13767001E+03  0.11977E+06
 0.13772000E+03  0.10667E+06
 0.13777000E+03  0.90809E+05
 0.13782001E+03  0.74220E+05
 0.13787001E+03  0.59132E+05
 0.13792001E+03  0.43352E+05
 0.13797000E+03  0.23613E+05
 0.13802000E+03 -0.56600E+03
 0.13807001E+03 -0.27571E+05
 0.13812001E+03 -0.56814E+05
 0.13817001E+03 -0.88947E+05
 0.13822000E+03 -0.12613E+06
 0.13827000E+03 -0.16997E+06
 0.13832001E+03 -0.21794E+06
 0.13837001E+03 -0.26601E+06
 0.13842001E+03 -0.31083E+06
 0.13847000E+03 -0.35150E+06
 0.13852000E+03 -0.38950E+06
 0.13857001E+03 -0.42656E+06
 0.13862001E+03 -0.46124E+06
 0.13867001E+03 -0.48771E+06
 0.13872000E+03 -0.50369E+06
 0.13877000E+03 -0.50878E+06
 0.13882001E+03 -0.50219E+06
 0.13887001E+03 -0.48560E+06
 0.13892001E+03 -0.45718E+06
 0.13897000E+03 -0.41505E+06
 0.13902000E+03 -0.36295E+06
 0.13907001E+03 -0.30682E+06
 0.13912001E+03 -0.24917E+06
 0.13917001E+03 -0.19269E+06
 0.13922000E+03 -0.14440E+06
 0.13927000E+03 -0.10815E+06
 0.13932001E+03 -0.82009E+05
 0.13937001E+03 -0.61390E+05
 0.13942001E+03 -0.42814E+05
 0.13947000E+03 -0.24072E+05
 0.13952000E+03 -0.38740E+04
 0.13957001E+03  0.16482E+05
 0.13962001E+03  0.37214E+05
 0.13967001E+03  0.60280E+05
 0.13972000E+03  0.87680E+05
 0.13977000E+03  0.12394E+06
 0.13982001E+03  0.17164E+06
 0.13987001E+03  0.22639E+06
 0.13992001E+03  0.28024E+06
 0.13997000E+03  0.32546E+06
 0.14002000E+03  0.35796E+06
 0.14007001E+03  0.37778E+06
 0.14012001E+03  0.38647E+06
 0.14017001E+03  0.38633E+06
 0.14022000E+03  0.37749E+06
 0.14027000E+03  0.35808E+06
 0.14032001E+03  0.32940E+06
 0.14037001E+03  0.29544E+06
 0.14042001E+03  0.25905E+06
 0.14047000E+03  0.22372E+06
 0.14052000E+03  0.19240E+06
 0.14057001E+03  0.16512E+06
 0.14062001E+03  0.14218E+06
 0.14067001E+03  0.12217E+06
 0.14072000E+03  0.10192E+06
 0.14077000E+03  0.82589E+05
 0.14082001E+03  0.69115E+05
 0.14087001E+03  0.65473E+05
 0.14092001E+03  0.73294E+05
 0.14097000E+03  0.92089E+05
 0.14102000E+03  0.11822E+06
 0.14107001E+03  0.14683E+06
 0.14112001E+03  0.17556E+06
 0.14117001E+03  0.20458E+06
 0.14122000E+03  0.23479E+06
 0.14127000E+03  0.26681E+06
 0.14132001E+03  0.30166E+06
 0.14137001E+03  0.34179E+06
 0.14142001E+03  0.38808E+06
 0.14147000E+03  0.43841E+06
 0.14152000E+03  0.49029E+06
 0.14157001E+03  0.54091E+06
 0.14162001E+03  0.58628E+06
 0.14167001E+03  0.62112E+06
 0.14172000E+03  0.64074E+06
 0.14177000E+03  0.64320E+06
 0.14182001E+03  0.62641E+06
 0.14187001E+03  0.59087E+06
 0.14192001E+03  0.54237E+06
 0.14197000E+03  0.48783E+06
 0.14202000E+03  0.43336E+06
 0.14207001E+03  0.38014E+06
 0.14212001E+03  0.32688E+06
 0.14217001E+03  0.27268E+06
 0.14222000E+03  0.21574E+06
 0.14227000E+03  0.15802E+06
 0.14232001E+03  0.10319E+06
 0.14237001E+03  0.54781E+05
 0.14242001E+03  0.15819E+05
 0.14247000E+03 -0.14519E+05
 0.14252000E+03 -0.40227E+05
 0.14257001E+03 -0.66570E+05
 0.14262001E+03 -0.96141E+05
 0.14267001E+03 -0.12898E+06
 0.14272000E+03 -0.16574E+06
 0.14277000E+03 -0.20870E+06
 0.14282001E+03 -0.25969E+06
 0.14287001E+03 -0.31747E+06
 0.14292001E+03 -0.38083E+06
 0.14297000E+03 -0.44808E+06
 0.14302000E+03 -0.51350E+06
 0.14307001E+03 -0.57069E+06
 0.14312001E+03 -0.61702E+06
 0.14317001E+03 -0.65169E+06
 0.14322000E+03 -0.67437E+06
 0.14327000E+03 -0.68556E+06
 0.14332001E+03 -0.68349E+06
 0.14337001E+03 -0.66590E+06
 0.14342001E+03 -0.63266E+06
 0.14347000E+03 -0.58543E+06
 0.14352000E+03 -0.52676E+06
 0.14357001E+03 -0.45767E+06
 0.14362001E+03 -0.37920E+06
 0.14367001E+03 -0.29480E+06
 0.14372000E+03 -0.21242E+06
 0.14377000E+03 -0.13902E+06
 0.14382001E+03 -0.76973E+05
 0.14387001E+03 -0.25553E+05
 0.14392001E+03  0.18972E+05
 0.14397000E+03  0.58500E+05
 0.14402000E+03  0.92102E+05
 0.14407001E+03  0.11711E+06
 0.14412001E+03  0.13128E+06
 0.14417001E+03  0.13255E+06
 0.14422000E+03  0.11960E+06
 0.14427000E+03  0.96221E+05
 0.14432001E+03  0.66515E+05
 0.14437001E+03  0.32417E+05
 0.14442001E+03 -0.23820E+04
 0.14447000E+03 -0.35619E+05
 0.14452000E+03 -0.67151E+05
 0.14457001E+03 -0.94291E+05
 0.14462001E+03 -0.11360E+06
 0.14467001E+03 -0.12307E+06
 0.14472000E+03 -0.12621E+06
 0.14477000E+03 -0.13017E+06
 0.14482001E+03 -0.13928E+06
 0.14487001E+03 -0.15581E+06
 0.14492001E+03 -0.17640E+06
 0.14497000E+03 -0.19676E+06
 0.14502000E+03 -0.21611E+06
 0.14507001E+03 -0.23300E+06
 0.14512001E+03 -0.24446E+06
 0.14517001E+03 -0.24751E+06
 0.14522000E+03 -0.24263E+06
 0.14527000E+03 -0.23085E+06
 0.14532001E+03 -0.21198E+06
 0.14537001E+03 -0.18500E+06
 0.14542001E+03 -0.14973E+06
 0.14547000E+03 -0.10872E+06
 0.14552000E+03 -0.63523E+05
 0.14557001E+03 -0.15018E+05
 0.14562001E+03  0.35956E+05
 0.14567001E+03  0.87842E+05
 0.14572000E+03  0.13946E+06
 0.14577000E+03  0.18992E+06
 0.14582001E+03  0.23600E+06
 0.14587001E+03  0.27629E+06
 0.14592001E+03  0.31294E+06
 0.14597000E+03  0.34562E+06
 0.14602000E+03  0.36873E+06
 0.14607001E+03  0.37968E+06
 0.14612001E+03  0.38049E+06
 0.14617001E+03  0.37333E+06
 0.14622000E+03  0.36168E+06
 0.14627000E+03  0.34786E+06
 0.14632001E+03  0.33151E+06
 0.14637001E+03  0.31139E+06
 0.14642001E+03  0.28800E+06
 0.14647000E+03  0.26540E+06
 0.14652000E+03  0.24842E+06
 0.14657001E+03  0.23886E+06
 0.14662001E+03  0.23667E+06
 0.14667001E+03  0.24092E+06
 0.14672000E+03  0.24966E+06
 0.14677000E+03  0.26280E+06
 0.14682001E+03  0.28155E+06
 0.14687001E+03  0.30551E+06
 0.14692001E+03  0.33030E+06
 0.14697000E+03  0.35008E+06
 0.14702000E+03  0.36212E+06
 0.14707001E+03  0.36645E+06
 0.14712001E+03  0.36382E+06
 0.14717001E+03  0.35424E+06
 0.14722000E+03  0.33789E+06
 0.14727000E+03  0.31472E+06
 0.14732001E+03  0.28364E+06
 0.14737001E+03  0.24474E+06
 0.14742001E+03  0.19950E+06
 0.14747000E+03  0.15104E+06
 0.14752000E+03  0.10300E+06
 0.14757001E+03  0.55645E+05
 0.14762001E+03  0.69400E+04
 0.14767001E+03 -0.44549E+05
 0.14772000E+03 -0.97537E+05
 0.14777000E+03 -0.14851E+06
 0.14782001E+03 -0.19541E+06
 0.14787001E+03 -0.23829E+06
 0.14792001E+03 -0.27826E+06
 0.14797000E+03 -0.31501E+06
 0.14802000E+03 -0.34693E+06
 0.14807001E+03 -0.37211E+06
 0.14812001E+03 -0.38872E+06
 0.14817001E+03 -0.39767E+06
 0.14822000E+03 -0.40133E+06
 0.14827000E+03 -0.40200E+06
 0.14832001E+03 -0.40089E+06
 0.14837001E+03 -0.39797E+06
 0.14842001E+03 -0.39378E+06
 0.14847000E+03 -0.38948E+06
 0.14852000E+03 -0.38605E+06
 0.14857001E+03 -0.38486E+06
 0.14862001E+03 -0.38576E+06
 0.14867001E+03 -0.38508E+06
 0.14872000E+03 -0.37996E+06
 0.14877000E+03 -0.37055E+06
 0.14882001E+03 -0.35943E+06
 0.14887001E+03 -0.34890E+06
 0.14892001E+03 -0.33818E+06
 0.14897000E+03 -0.32496E+06
 0.14902000E+03 -0.30732E+06
 0.14907001E+03 -0.28530E+06
 0.14912001E+03 -0.25907E+06
 0.14917001E+03 -0.22864E+06
 0.14922000E+03 -0.19580E+06
 0.14927000E+03 -0.16316E+06
 0.14932001E+03 -0.13282E+06
 0.14937001E+03 -0.10518E+06
 0.14942001E+03 -0.81639E+05
 0.14947000E+03 -0.63587E+05
 0.14952000E+03 -0.49605E+05
 0.14957001E+03 -0.38722E+05
 0.14962001E+03 -0.30400E+05
 0.14967001E+03 -0.23695E+05
 0.14972000E+03 -0.18697E+05
 0.14977000E+03 -0.17068E+05
 0.14982001E+03 -0.21850E+05
 0.14987001E+03 -0.33577E+05
 0.14992001E+03 -0.50309E+05
 0.14997000E+03 -0.70477E+05
