-0.29800000E+01 -0.22181E+05
-0.29300001E+01 -0.23291E+05
-0.28800001E+01 -0.19314E+05
-0.28299999E+01 -0.14226E+05
-0.27800000E+01 -0.12101E+05
-0.27300000E+01 -0.15557E+05
-0.26800001E+01 -0.24708E+05
-0.26300001E+01 -0.37038E+05
-0.25799999E+01 -0.49425E+05
-0.25300000E+01 -0.59708E+05
-0.24800000E+01 -0.67295E+05
-0.24300001E+01 -0.73024E+05
-0.23800001E+01 -0.77564E+05
-0.23299999E+01 -0.80508E+05
-0.22800000E+01 -0.81110E+05
-0.22300000E+01 -0.78505E+05
-0.21800001E+01 -0.72110E+05
-0.21300001E+01 -0.62078E+05
-0.20799999E+01 -0.49034E+05
-0.20300000E+01 -0.34120E+05
-0.19800000E+01 -0.19105E+05
-0.19299999E+01 -0.62190E+04
-0.18800000E+01  0.26720E+04
-0.18300000E+01  0.62350E+04
-0.17800000E+01  0.33350E+04
-0.17300000E+01 -0.59720E+04
-0.16799999E+01 -0.19523E+05
-0.16300000E+01 -0.34179E+05
-0.15800000E+01 -0.47775E+05
-0.15300000E+01 -0.59384E+05
-0.14800000E+01 -0.68623E+05
-0.14299999E+01 -0.75623E+05
-0.13800000E+01 -0.80560E+05
-0.13300000E+01 -0.82469E+05
-0.12800000E+01 -0.79749E+05
-0.12300000E+01 -0.71371E+05
-0.11799999E+01 -0.57532E+05
-0.11300000E+01 -0.40064E+05
-0.10800000E+01 -0.21774E+05
-0.10300000E+01 -0.51090E+04
-0.98000002E+00  0.87460E+04
-0.93000007E+00  0.19653E+05
-0.87999988E+00  0.27670E+05
-0.82999992E+00  0.32492E+05
-0.77999997E+00  0.33827E+05
-0.73000002E+00  0.31864E+05
-0.68000007E+00  0.27445E+05
-0.62999988E+00  0.21774E+05
-0.57999992E+00  0.16681E+05
-0.52999997E+00  0.14151E+05
-0.48000002E+00  0.14497E+05
-0.43000007E+00  0.17042E+05
-0.37999988E+00  0.21119E+05
-0.32999992E+00  0.26250E+05
-0.27999997E+00  0.32493E+05
-0.23000002E+00  0.39552E+05
-0.18000007E+00  0.46606E+05
-0.12999988E+00  0.52579E+05
-0.79999924E-01  0.56526E+05
-0.29999971E-01  0.58689E+05
 0.19999981E-01  0.59517E+05
 0.69999933E-01  0.58839E+05
 0.12000012E+00  0.56810E+05
 0.17000008E+00  0.53713E+05
 0.22000003E+00  0.49951E+05
 0.26999998E+00  0.45844E+05
 0.31999993E+00  0.41228E+05
 0.37000012E+00  0.36025E+05
 0.42000008E+00  0.30352E+05
 0.47000003E+00  0.24658E+05
 0.51999998E+00  0.19297E+05
 0.56999993E+00  0.14117E+05
 0.62000012E+00  0.87220E+04
 0.67000008E+00  0.28850E+04
 0.72000003E+00 -0.25350E+04
 0.76999998E+00 -0.68160E+04
 0.81999993E+00 -0.11232E+05
 0.87000012E+00 -0.17674E+05
 0.92000008E+00 -0.26129E+05
 0.97000003E+00 -0.34207E+05
 0.10200000E+01 -0.39528E+05
 0.10700002E+01 -0.41485E+05
 0.11199999E+01 -0.40847E+05
 0.11700001E+01 -0.38975E+05
 0.12200003E+01 -0.36923E+05
 0.12700000E+01 -0.35605E+05
 0.13200002E+01 -0.36192E+05
 0.13699999E+01 -0.38967E+05
 0.14200001E+01 -0.42496E+05
 0.14700003E+01 -0.44700E+05
 0.15200000E+01 -0.44313E+05
 0.15700002E+01 -0.41257E+05
 0.16199999E+01 -0.35956E+05
 0.16700001E+01 -0.29064E+05
 0.17200003E+01 -0.21703E+05
 0.17700000E+01 -0.15012E+05
 0.18200002E+01 -0.96850E+04
 0.18699999E+01 -0.56220E+04
 0.19200001E+01 -0.21750E+04
 0.19700003E+01  0.86000E+03
 0.20200000E+01  0.33650E+04
 0.20700002E+01  0.58500E+04
 0.21199999E+01  0.96630E+04
 0.21700001E+01  0.16124E+05
 0.22200003E+01  0.24915E+05
 0.22700000E+01  0.34357E+05
 0.23200002E+01  0.42904E+05
 0.23699999E+01  0.49745E+05
 0.24200001E+01  0.55046E+05
 0.24700003E+01  0.59438E+05
 0.25200000E+01  0.63876E+05
 0.25700002E+01  0.68962E+05
 0.26199999E+01  0.74309E+05
 0.26700001E+01  0.79852E+05
 0.27200003E+01  0.86045E+05
 0.27700000E+01  0.93037E+05
 0.28200002E+01  0.10036E+06
 0.28699999E+01  0.10700E+06
 0.29200001E+01  0.11121E+06
 0.29700003E+01  0.11056E+06
 0.30200000E+01  0.10380E+06
 0.30700002E+01  0.91421E+05
 0.31199999E+01  0.75471E+05
 0.31700001E+01  0.59020E+05
 0.32200003E+01  0.44148E+05
 0.32700000E+01  0.31365E+05
 0.33200002E+01  0.20342E+05
 0.33699999E+01  0.10284E+05
 0.34200001E+01  0.49700E+03
 0.34700003E+01 -0.87080E+04
 0.35200000E+01 -0.16180E+05
 0.35700002E+01 -0.21053E+05
 0.36199999E+01 -0.22963E+05
 0.36700001E+01 -0.21817E+05
 0.37200003E+01 -0.18066E+05
 0.37700000E+01 -0.13118E+05
 0.38200002E+01 -0.89030E+04
 0.38699999E+01 -0.64780E+04
 0.39200001E+01 -0.60560E+04
 0.39700003E+01 -0.75870E+04
 0.40200000E+01 -0.10129E+05
 0.40700002E+01 -0.12179E+05
 0.41199999E+01 -0.13105E+05
 0.41700001E+01 -0.13562E+05
 0.42200003E+01 -0.14710E+05
 0.42700000E+01 -0.17069E+05
 0.43200002E+01 -0.19346E+05
 0.43699999E+01 -0.20172E+05
 0.44200001E+01 -0.19811E+05
 0.44700003E+01 -0.18942E+05
 0.45200000E+01 -0.18180E+05
 0.45700002E+01 -0.17194E+05
 0.46199999E+01 -0.15534E+05
 0.46700001E+01 -0.14243E+05
 0.47200003E+01 -0.14873E+05
 0.47700000E+01 -0.18455E+05
 0.48200002E+01 -0.24297E+05
 0.48699999E+01 -0.30053E+05
 0.49200001E+01 -0.33415E+05
 0.49700003E+01 -0.33281E+05
 0.50200000E+01 -0.29916E+05
 0.50700002E+01 -0.24055E+05
 0.51200004E+01 -0.16302E+05
 0.51700006E+01 -0.76280E+04
 0.52199998E+01  0.40800E+03
 0.52700000E+01  0.63790E+04
 0.53200002E+01  0.96730E+04
 0.53700004E+01  0.10852E+05
 0.54200006E+01  0.10816E+05
 0.54699998E+01  0.10204E+05
 0.55200000E+01  0.93290E+04
 0.55700002E+01  0.79310E+04
 0.56200004E+01  0.61230E+04
 0.56700006E+01  0.45680E+04
 0.57199998E+01  0.41280E+04
 0.57700000E+01  0.47990E+04
 0.58200002E+01  0.45930E+04
 0.58700004E+01  0.14680E+04
 0.59200006E+01 -0.49720E+04
 0.59699998E+01 -0.13180E+05
 0.60200000E+01 -0.20431E+05
 0.60700002E+01 -0.24516E+05
 0.61200004E+01 -0.24812E+05
 0.61700006E+01 -0.22447E+05
 0.62199998E+01 -0.18731E+05
 0.62700000E+01 -0.14209E+05
 0.63200002E+01 -0.93060E+04
 0.63700004E+01 -0.47720E+04
 0.64200006E+01 -0.13420E+04
 0.64699998E+01  0.72400E+03
 0.65200000E+01  0.14240E+04
 0.65700002E+01  0.83400E+03
 0.66200004E+01 -0.11140E+04
 0.66700006E+01 -0.43680E+04
 0.67199998E+01 -0.86870E+04
 0.67700000E+01 -0.13675E+05
 0.68200002E+01 -0.18519E+05
 0.68700004E+01 -0.22829E+05
 0.69200006E+01 -0.26374E+05
 0.69699998E+01 -0.28640E+05
 0.70200000E+01 -0.29056E+05
 0.70700002E+01 -0.26984E+05
 0.71200004E+01 -0.22587E+05
 0.71700006E+01 -0.16700E+05
 0.72199998E+01 -0.10590E+05
 0.72700000E+01 -0.64170E+04
 0.73200002E+01 -0.63560E+04
 0.73700004E+01 -0.11472E+05
 0.74200006E+01 -0.21565E+05
 0.74699998E+01 -0.35121E+05
 0.75200000E+01 -0.49898E+05
 0.75700002E+01 -0.64113E+05
 0.76200004E+01 -0.76457E+05
 0.76700006E+01 -0.85814E+05
 0.77199998E+01 -0.91726E+05
 0.77700000E+01 -0.94364E+05
 0.78200002E+01 -0.94177E+05
 0.78700004E+01 -0.92337E+05
 0.79200006E+01 -0.90213E+05
 0.79699998E+01 -0.88929E+05
 0.80200005E+01 -0.89468E+05
 0.80699997E+01 -0.91671E+05
 0.81200008E+01 -0.94470E+05
 0.81700001E+01 -0.96427E+05
 0.82199993E+01 -0.96164E+05
 0.82700005E+01 -0.93255E+05
 0.83199997E+01 -0.88291E+05
 0.83700008E+01 -0.82539E+05
 0.84200001E+01 -0.76538E+05
 0.84699993E+01 -0.69714E+05
 0.85200005E+01 -0.61383E+05
 0.85699997E+01 -0.50900E+05
 0.86200008E+01 -0.38569E+05
 0.86700001E+01 -0.25629E+05
 0.87199993E+01 -0.13223E+05
 0.87700005E+01 -0.24470E+04
 0.88199997E+01  0.63940E+04
 0.88700008E+01  0.14063E+05
 0.89200001E+01  0.21250E+05
 0.89699993E+01  0.27966E+05
 0.90200005E+01  0.34002E+05
 0.90699997E+01  0.39464E+05
 0.91200008E+01  0.44452E+05
 0.91700001E+01  0.49216E+05
 0.92199993E+01  0.54604E+05
 0.92700005E+01  0.61491E+05
 0.93199997E+01  0.69794E+05
 0.93700008E+01  0.78026E+05
 0.94200001E+01  0.84390E+05
 0.94699993E+01  0.88159E+05
 0.95200005E+01  0.89544E+05
 0.95699997E+01  0.89078E+05
 0.96200008E+01  0.87819E+05
 0.96700001E+01  0.86922E+05
 0.97199993E+01  0.86675E+05
 0.97700005E+01  0.87262E+05
 0.98199997E+01  0.88735E+05
 0.98700008E+01  0.89750E+05
 0.99200001E+01  0.88441E+05
 0.99699993E+01  0.83878E+05
 0.10020000E+02  0.76666E+05
 0.10070000E+02  0.68249E+05
 0.10120001E+02  0.59734E+05
 0.10170000E+02  0.51548E+05
 0.10219999E+02  0.43518E+05
 0.10270000E+02  0.35694E+05
 0.10320000E+02  0.28187E+05
 0.10370001E+02  0.21002E+05
 0.10420000E+02  0.14855E+05
 0.10469999E+02  0.11040E+05
 0.10520000E+02  0.10409E+05
 0.10570000E+02  0.12463E+05
 0.10620001E+02  0.15882E+05
 0.10670000E+02  0.19621E+05
 0.10719999E+02  0.23053E+05
 0.10770000E+02  0.25988E+05
 0.10820000E+02  0.28255E+05
 0.10870001E+02  0.28735E+05
 0.10920000E+02  0.26246E+05
 0.10969999E+02  0.21276E+05
 0.11020000E+02  0.15436E+05
 0.11070000E+02  0.98020E+04
 0.11120001E+02  0.46490E+04
 0.11170000E+02 -0.34600E+03
 0.11219999E+02 -0.61810E+04
 0.11270000E+02 -0.13547E+05
 0.11320000E+02 -0.22025E+05
 0.11370001E+02 -0.30380E+05
 0.11420000E+02 -0.36889E+05
 0.11469999E+02 -0.40491E+05
 0.11520000E+02 -0.41883E+05
 0.11570000E+02 -0.42357E+05
 0.11620001E+02 -0.43330E+05
 0.11670000E+02 -0.45970E+05
 0.11719999E+02 -0.49567E+05
 0.11770000E+02 -0.52519E+05
 0.11820000E+02 -0.53489E+05
 0.11870001E+02 -0.51751E+05
 0.11920000E+02 -0.48143E+05
 0.11969999E+02 -0.44036E+05
 0.12020000E+02 -0.40779E+05
 0.12070000E+02 -0.39250E+05
 0.12120001E+02 -0.38756E+05
 0.12170000E+02 -0.38407E+05
 0.12219999E+02 -0.37090E+05
 0.12270000E+02 -0.33233E+05
 0.12320000E+02 -0.26454E+05
 0.12370001E+02 -0.17962E+05
 0.12420000E+02 -0.10728E+05
 0.12469999E+02 -0.75520E+04
 0.12520000E+02 -0.85810E+04
 0.12570000E+02 -0.11712E+05
 0.12620001E+02 -0.14164E+05
 0.12670000E+02 -0.14746E+05
 0.12719999E+02 -0.14397E+05
 0.12770000E+02 -0.14298E+05
 0.12820000E+02 -0.14685E+05
 0.12870001E+02 -0.14881E+05
 0.12920000E+02 -0.13860E+05
 0.12969999E+02 -0.10816E+05
 0.13020000E+02 -0.53220E+04
 0.13070002E+02  0.24180E+04
 0.13120001E+02  0.11461E+05
 0.13170000E+02  0.20631E+05
 0.13220001E+02  0.28744E+05
 0.13270000E+02  0.35291E+05
 0.13320002E+02  0.40365E+05
 0.13370001E+02  0.43779E+05
 0.13420000E+02  0.45311E+05
 0.13470001E+02  0.44570E+05
 0.13520000E+02  0.41550E+05
 0.13570002E+02  0.36867E+05
 0.13620001E+02  0.31134E+05
 0.13670000E+02  0.24967E+05
 0.13720001E+02  0.18169E+05
 0.13770000E+02  0.10287E+05
 0.13820002E+02  0.20760E+04
 0.13870001E+02 -0.48510E+04
 0.13920000E+02 -0.89610E+04
 0.13970001E+02 -0.97410E+04
 0.14020000E+02 -0.83060E+04
 0.14070002E+02 -0.59670E+04
 0.14120001E+02 -0.26250E+04
 0.14170000E+02  0.26340E+04
 0.14220001E+02  0.10427E+05
 0.14270000E+02  0.20615E+05
 0.14320002E+02  0.33090E+05
 0.14370001E+02  0.47282E+05
 0.14420000E+02  0.60936E+05
 0.14470001E+02  0.71262E+05
 0.14520000E+02  0.76283E+05
 0.14570002E+02  0.75697E+05
 0.14620001E+02  0.70701E+05
 0.14670000E+02  0.62938E+05
 0.14720001E+02  0.53848E+05
 0.14770000E+02  0.44468E+05
 0.14820002E+02  0.35721E+05
 0.14870001E+02  0.28118E+05
 0.14920000E+02  0.21411E+05
 0.14970001E+02  0.15114E+05
 0.15020000E+02  0.88690E+04
 0.15070002E+02  0.22500E+04
 0.15120001E+02 -0.50440E+04
 0.15170000E+02 -0.12711E+05
 0.15220001E+02 -0.19590E+05
 0.15270000E+02 -0.24240E+05
 0.15320002E+02 -0.26153E+05
 0.15370001E+02 -0.25943E+05
 0.15420000E+02 -0.24749E+05
 0.15470001E+02 -0.23188E+05
 0.15520000E+02 -0.21208E+05
 0.15570002E+02 -0.19076E+05
 0.15620001E+02 -0.17289E+05
 0.15670000E+02 -0.16232E+05
 0.15720001E+02 -0.16116E+05
 0.15770000E+02 -0.16839E+05
 0.15820002E+02 -0.17973E+05
 0.15870001E+02 -0.18737E+05
 0.15920000E+02 -0.18315E+05
 0.15970001E+02 -0.16409E+05
 0.16020000E+02 -0.13587E+05
 0.16070002E+02 -0.11197E+05
 0.16120001E+02 -0.10257E+05
 0.16170000E+02 -0.10708E+05
 0.16220001E+02 -0.11871E+05
 0.16270000E+02 -0.13041E+05
 0.16320002E+02 -0.14149E+05
 0.16370001E+02 -0.15857E+05
 0.16420000E+02 -0.18904E+05
 0.16470001E+02 -0.23431E+05
 0.16520000E+02 -0.29124E+05
 0.16570002E+02 -0.35574E+05
 0.16620001E+02 -0.42320E+05
 0.16670000E+02 -0.49004E+05
 0.16720001E+02 -0.54978E+05
 0.16770000E+02 -0.59389E+05
 0.16820002E+02 -0.61863E+05
 0.16870001E+02 -0.62971E+05
 0.16920000E+02 -0.63373E+05
 0.16970001E+02 -0.62836E+05
 0.17020000E+02 -0.60972E+05
 0.17070002E+02 -0.57307E+05
 0.17120001E+02 -0.51793E+05
 0.17170000E+02 -0.45009E+05
 0.17220001E+02 -0.37753E+05
 0.17270000E+02 -0.31231E+05
 0.17320002E+02 -0.25857E+05
 0.17370001E+02 -0.21508E+05
 0.17420000E+02 -0.18349E+05
 0.17470001E+02 -0.16551E+05
 0.17520000E+02 -0.16315E+05
 0.17570002E+02 -0.17398E+05
 0.17620001E+02 -0.19056E+05
 0.17670000E+02 -0.20048E+05
 0.17720001E+02 -0.19566E+05
 0.17770000E+02 -0.18214E+05
 0.17820002E+02 -0.16745E+05
 0.17870001E+02 -0.15344E+05
 0.17920000E+02 -0.14095E+05
 0.17970001E+02 -0.13014E+05
 0.18020000E+02 -0.12015E+05
 0.18070002E+02 -0.11041E+05
 0.18120001E+02 -0.95890E+04
 0.18170000E+02 -0.73760E+04
 0.18220001E+02 -0.52080E+04
 0.18270000E+02 -0.39060E+04
 0.18320002E+02 -0.38190E+04
 0.18370001E+02 -0.47480E+04
 0.18420000E+02 -0.61960E+04
 0.18470001E+02 -0.76850E+04
 0.18520000E+02 -0.84310E+04
 0.18570002E+02 -0.76630E+04
 0.18620001E+02 -0.49260E+04
 0.18670000E+02 -0.37600E+03
 0.18720001E+02  0.48730E+04
 0.18770000E+02  0.96980E+04
 0.18820002E+02  0.13719E+05
 0.18870001E+02  0.16984E+05
 0.18920000E+02  0.19757E+05
 0.18970001E+02  0.22265E+05
 0.19020000E+02  0.25577E+05
 0.19070002E+02  0.31371E+05
 0.19120001E+02  0.40813E+05
 0.19170000E+02  0.54575E+05
 0.19220001E+02  0.71340E+05
 0.19270000E+02  0.88839E+05
 0.19320002E+02  0.10541E+06
 0.19370001E+02  0.11782E+06
 0.19420000E+02  0.12357E+06
 0.19470001E+02  0.12172E+06
 0.19520000E+02  0.11054E+06
 0.19570002E+02  0.93802E+05
 0.19620001E+02  0.78389E+05
 0.19670000E+02  0.66613E+05
 0.19720001E+02  0.57008E+05
 0.19770000E+02  0.44580E+05
 0.19820002E+02  0.30559E+05
 0.19870001E+02  0.11670E+05
 0.19920000E+02 -0.88660E+04
 0.19970001E+02 -0.74380E+04
 0.20020000E+02 -0.20440E+04
 0.20070002E+02  0.46360E+04
 0.20120001E+02  0.66818E+05
 0.20170000E+02  0.14465E+06
 0.20220001E+02  0.19572E+06
 0.20270000E+02  0.25102E+06
 0.20320002E+02  0.22784E+06
 0.20370001E+02  0.13156E+06
 0.20420000E+02  0.71478E+05
 0.20470001E+02 -0.84580E+04
 0.20520000E+02 -0.89121E+05
 0.20570002E+02 -0.14688E+06
 0.20620001E+02 -0.22957E+06
 0.20670000E+02 -0.28919E+06
 0.20720001E+02 -0.37086E+06
 0.20770000E+02 -0.48562E+06
 0.20820002E+02 -0.54955E+06
 0.20870001E+02 -0.53664E+06
 0.20920000E+02 -0.40432E+06
 0.20970001E+02 -0.11907E+06
 0.21020000E+02  0.10161E+06
 0.21070002E+02  0.19492E+06
 0.21120001E+02  0.33884E+06
 0.21170000E+02  0.37664E+06
 0.21220001E+02  0.53093E+06
 0.21270000E+02  0.86352E+06
 0.21320002E+02  0.91220E+06
 0.21370001E+02  0.90607E+06
 0.21420000E+02  0.74279E+06
 0.21470001E+02  0.34759E+06
 0.21520000E+02  0.11637E+06
 0.21570002E+02 -0.13584E+06
 0.21620001E+02 -0.20279E+06
 0.21670000E+02 -0.60114E+05
 0.21720001E+02 -0.63642E+05
 0.21770000E+02 -0.96424E+05
 0.21820002E+02 -0.32494E+06
 0.21870001E+02 -0.64060E+06
 0.21920000E+02 -0.49204E+06
 0.21970001E+02 -0.15972E+06
 0.22020000E+02  0.85278E+05
 0.22070002E+02  0.34535E+06
 0.22120001E+02  0.24303E+06
 0.22170000E+02  0.44117E+05
 0.22220001E+02  0.12162E+05
 0.22270000E+02 -0.11657E+06
 0.22320002E+02 -0.12812E+06
 0.22370001E+02 -0.15806E+06
 0.22420000E+02 -0.12941E+06
 0.22470001E+02  0.18587E+05
 0.22520000E+02 -0.73598E+05
 0.22570002E+02 -0.95718E+05
 0.22620001E+02 -0.71170E+05
 0.22670000E+02 -0.54764E+05
 0.22720001E+02 -0.26988E+05
 0.22770000E+02 -0.11508E+06
 0.22820002E+02 -0.23407E+06
 0.22870001E+02 -0.18978E+06
 0.22920000E+02  0.13635E+06
 0.22970001E+02  0.21712E+06
 0.23020000E+02  0.14723E+06
 0.23070002E+02  0.93450E+04
 0.23120001E+02 -0.13120E+06
 0.23170000E+02  0.12770E+06
 0.23220001E+02  0.43018E+06
 0.23270000E+02  0.54244E+06
 0.23320002E+02  0.55156E+06
 0.23370001E+02  0.64182E+06
 0.23420000E+02  0.60611E+06
 0.23470001E+02  0.65162E+06
 0.23520000E+02  0.66497E+06
 0.23570002E+02  0.20884E+06
 0.23620001E+02  0.19344E+05
 0.23670000E+02 -0.25932E+06
 0.23720001E+02 -0.74296E+06
 0.23770000E+02 -0.81746E+06
 0.23820002E+02 -0.75697E+06
 0.23870001E+02 -0.53727E+06
 0.23920000E+02 -0.24553E+06
 0.23970001E+02 -0.39336E+06
 0.24020000E+02 -0.63319E+06
 0.24070002E+02 -0.63045E+06
 0.24120001E+02 -0.81591E+06
 0.24170000E+02 -0.28946E+06
 0.24220001E+02  0.20228E+06
 0.24270000E+02 -0.46662E+06
 0.24320002E+02 -0.26208E+06
 0.24370001E+02 -0.11391E+06
 0.24420000E+02 -0.44603E+06
 0.24470001E+02  0.39912E+06
 0.24520000E+02  0.83257E+06
 0.24570002E+02  0.76058E+06
 0.24620001E+02  0.55189E+06
 0.24670000E+02  0.40976E+05
 0.24720001E+02 -0.30440E+04
 0.24770000E+02  0.84537E+05
 0.24820002E+02  0.27990E+06
 0.24870001E+02  0.35023E+06
 0.24920000E+02 -0.48311E+05
 0.24970001E+02 -0.43800E+06
 0.25020000E+02 -0.78751E+06
 0.25070002E+02 -0.75679E+06
 0.25120001E+02 -0.31483E+05
 0.25170000E+02  0.29777E+06
 0.25220001E+02  0.64078E+05
 0.25270000E+02 -0.10030E+06
 0.25320002E+02 -0.15684E+06
 0.25370001E+02 -0.10151E+06
 0.25420000E+02  0.36738E+06
 0.25470001E+02  0.10427E+07
 0.25520000E+02  0.12520E+07
 0.25570002E+02  0.97655E+06
 0.25620001E+02  0.16523E+06
 0.25670000E+02 -0.35415E+06
 0.25720001E+02 -0.32505E+06
 0.25770000E+02 -0.21895E+06
 0.25820002E+02 -0.60329E+05
 0.25870001E+02 -0.25879E+06
 0.25920000E+02 -0.23579E+06
 0.25970001E+02  0.13498E+06
 0.26020000E+02  0.44930E+06
 0.26070002E+02  0.97435E+06
 0.26120001E+02  0.12153E+07
 0.26170000E+02  0.98506E+06
 0.26220001E+02  0.77369E+06
 0.26270000E+02  0.33583E+06
 0.26320002E+02  0.24777E+06
 0.26370001E+02  0.48211E+06
 0.26420000E+02  0.28902E+06
 0.26470001E+02  0.19522E+06
 0.26520000E+02 -0.36459E+06
 0.26570002E+02 -0.11085E+07
 0.26620001E+02 -0.13720E+07
 0.26670000E+02 -0.15465E+07
 0.26720001E+02 -0.13084E+07
 0.26770000E+02 -0.10993E+07
 0.26820002E+02 -0.12338E+07
 0.26870001E+02 -0.13901E+07
 0.26920000E+02 -0.10672E+07
 0.26970001E+02 -0.80259E+05
 0.27020000E+02  0.46522E+06
 0.27070002E+02  0.37999E+06
 0.27120001E+02  0.28099E+06
 0.27170000E+02  0.16299E+06
 0.27220001E+02  0.29977E+06
 0.27270000E+02  0.96873E+06
 0.27320002E+02  0.16900E+07
 0.27370001E+02  0.18783E+07
 0.27420000E+02  0.18316E+07
 0.27470001E+02  0.19008E+07
 0.27520000E+02  0.21174E+07
 0.27570002E+02  0.21236E+07
 0.27620001E+02  0.15561E+07
 0.27670000E+02  0.81645E+06
 0.27720001E+02 -0.14435E+06
 0.27770000E+02 -0.96162E+06
 0.27820002E+02 -0.10513E+07
 0.27870001E+02 -0.67052E+06
 0.27920000E+02 -0.91617E+05
 0.27970001E+02  0.15030E+06
 0.28020000E+02 -0.24846E+06
 0.28070002E+02 -0.96366E+06
 0.28120001E+02 -0.16461E+07
 0.28170000E+02 -0.19117E+07
 0.28220001E+02 -0.16418E+07
 0.28270000E+02 -0.14389E+07
 0.28320002E+02 -0.11801E+07
 0.28370001E+02 -0.75140E+06
 0.28420000E+02 -0.60201E+06
 0.28470001E+02 -0.12938E+06
 0.28520000E+02  0.77102E+06
 0.28570002E+02  0.15649E+07
 0.28620001E+02  0.19693E+07
 0.28670000E+02  0.17309E+07
 0.28720001E+02  0.10184E+07
 0.28770000E+02  0.41473E+06
 0.28820002E+02  0.19166E+06
 0.28870001E+02  0.12998E+06
 0.28920000E+02  0.48693E+06
 0.28970001E+02  0.84858E+06
 0.29020000E+02  0.64792E+06
 0.29070000E+02  0.56716E+06
 0.29120003E+02  0.74434E+06
 0.29170002E+02  0.92344E+06
 0.29220001E+02  0.10315E+07
 0.29270000E+02  0.10182E+07
 0.29320000E+02  0.10779E+07
 0.29370003E+02  0.10106E+07
 0.29420002E+02  0.67477E+06
 0.29470001E+02  0.29809E+06
 0.29520000E+02  0.10760E+06
 0.29570000E+02  0.37549E+06
 0.29620003E+02  0.71399E+06
 0.29670002E+02  0.62306E+06
 0.29720001E+02  0.17202E+06
 0.29770000E+02 -0.47906E+06
 0.29820000E+02 -0.90928E+06
 0.29870003E+02 -0.62056E+06
 0.29920002E+02  0.19931E+05
 0.29970001E+02  0.54917E+05
 0.30020000E+02 -0.34530E+06
 0.30070000E+02 -0.90186E+06
 0.30120003E+02 -0.13670E+07
 0.30170002E+02 -0.95407E+06
 0.30220001E+02 -0.10121E+06
 0.30270000E+02  0.64068E+06
 0.30320000E+02  0.89403E+06
 0.30370003E+02  0.39389E+06
 0.30420002E+02 -0.24490E+06
 0.30470001E+02 -0.71169E+06
 0.30520000E+02 -0.76900E+06
 0.30570000E+02 -0.45832E+06
 0.30620003E+02 -0.22265E+06
 0.30670002E+02 -0.22884E+06
 0.30720001E+02 -0.58804E+06
 0.30770000E+02 -0.95053E+06
 0.30820000E+02 -0.85578E+06
 0.30870003E+02 -0.49305E+06
 0.30920002E+02 -0.20093E+06
 0.30970001E+02  0.19329E+06
 0.31020000E+02  0.76810E+06
 0.31070000E+02  0.11470E+07
 0.31120003E+02  0.11531E+07
 0.31170002E+02  0.92437E+06
 0.31220001E+02  0.59772E+06
 0.31270000E+02  0.19579E+06
 0.31320000E+02 -0.29162E+06
 0.31370003E+02 -0.89931E+06
 0.31420002E+02 -0.14932E+07
 0.31470001E+02 -0.17729E+07
 0.31520000E+02 -0.16265E+07
 0.31570000E+02 -0.12711E+07
 0.31620003E+02 -0.76351E+06
 0.31670002E+02 -0.22821E+06
 0.31720001E+02  0.87680E+04
 0.31770000E+02 -0.11253E+06
 0.31820000E+02 -0.91630E+06
 0.31870003E+02 -0.21098E+07
 0.31920002E+02 -0.28163E+07
 0.31970001E+02 -0.30813E+07
 0.32020000E+02 -0.31074E+07
 0.32070000E+02 -0.32295E+07
 0.32120003E+02 -0.40818E+07
 0.32170002E+02 -0.51910E+07
 0.32220001E+02 -0.53956E+07
 0.32270000E+02 -0.42383E+07
 0.32320000E+02 -0.21689E+07
 0.32370003E+02 -0.24574E+06
 0.32420002E+02  0.26686E+06
 0.32470001E+02 -0.10364E+07
 0.32520000E+02 -0.30374E+07
 0.32570000E+02 -0.42112E+07
 0.32620003E+02 -0.34676E+07
 0.32670002E+02 -0.64389E+06
 0.32720001E+02  0.30497E+07
 0.32770000E+02  0.58051E+07
 0.32820000E+02  0.63155E+07
 0.32870003E+02  0.40623E+07
 0.32920002E+02 -0.59359E+06
 0.32970001E+02 -0.61170E+07
 0.33020000E+02 -0.99198E+07
 0.33070000E+02 -0.10117E+08
 0.33120003E+02 -0.78331E+07
 0.33170002E+02 -0.47169E+07
 0.33220001E+02 -0.19979E+07
 0.33270000E+02 -0.14072E+07
 0.33320000E+02 -0.25054E+07
 0.33370003E+02 -0.28517E+07
 0.33420002E+02 -0.47386E+06
 0.33470001E+02  0.29858E+07
 0.33520000E+02  0.57321E+07
 0.33570000E+02  0.88525E+07
 0.33620003E+02  0.11734E+08
 0.33670002E+02  0.13156E+08
 0.33720001E+02  0.13661E+08
 0.33770000E+02  0.12933E+08
 0.33820000E+02  0.94240E+07
 0.33870003E+02  0.34342E+07
 0.33920002E+02 -0.26901E+07
 0.33970001E+02 -0.50566E+07
 0.34020000E+02 -0.41748E+07
 0.34070000E+02 -0.35987E+07
 0.34120003E+02 -0.26768E+07
 0.34170002E+02 -0.33398E+07
 0.34220001E+02 -0.61435E+07
 0.34270000E+02 -0.73133E+07
 0.34320000E+02 -0.65273E+07
 0.34370003E+02 -0.47889E+07
 0.34420002E+02 -0.35239E+07
 0.34470001E+02 -0.45834E+07
 0.34520000E+02 -0.63445E+07
 0.34570000E+02 -0.64518E+07
 0.34620003E+02 -0.65000E+07
 0.34670002E+02 -0.61097E+07
 0.34720001E+02 -0.42708E+07
 0.34770000E+02 -0.25036E+07
 0.34820000E+02  0.21783E+06
 0.34870003E+02  0.37335E+07
 0.34920002E+02  0.65744E+07
 0.34970001E+02  0.67878E+07
 0.35020000E+02  0.40719E+07
 0.35070000E+02  0.78812E+06
 0.35120003E+02 -0.31893E+07
 0.35170002E+02 -0.56427E+07
 0.35220001E+02 -0.50540E+07
 0.35270000E+02 -0.35600E+07
 0.35320000E+02 -0.22883E+07
 0.35370003E+02 -0.24653E+07
 0.35420002E+02 -0.34732E+07
 0.35470001E+02 -0.35960E+07
 0.35520000E+02 -0.32536E+07
 0.35570000E+02 -0.34864E+07
 0.35620003E+02 -0.38247E+07
 0.35670002E+02 -0.37405E+07
 0.35720001E+02 -0.25106E+07
 0.35770000E+02  0.26091E+06
 0.35820000E+02  0.27604E+07
 0.35870003E+02  0.42836E+07
 0.35920002E+02  0.48242E+07
 0.35970001E+02  0.40589E+07
 0.36020000E+02  0.32068E+07
 0.36070000E+02  0.32167E+07
 0.36120003E+02  0.36102E+07
 0.36170002E+02  0.31635E+07
 0.36220001E+02  0.17702E+07
 0.36270000E+02  0.88776E+06
 0.36320000E+02  0.73829E+06
 0.36370003E+02  0.13568E+07
 0.36420002E+02  0.35023E+07
 0.36470001E+02  0.58432E+07
 0.36520000E+02  0.63573E+07
 0.36570000E+02  0.58263E+07
 0.36620003E+02  0.54636E+07
 0.36670002E+02  0.48461E+07
 0.36720001E+02  0.45252E+07
 0.36770000E+02  0.42850E+07
 0.36820000E+02  0.25752E+07
 0.36870003E+02 -0.41229E+06
 0.36920002E+02 -0.34665E+07
 0.36970001E+02 -0.59688E+07
 0.37020000E+02 -0.70463E+07
 0.37070000E+02 -0.57636E+07
 0.37120003E+02 -0.33630E+07
 0.37170002E+02 -0.13550E+07
 0.37220001E+02 -0.16387E+05
 0.37270000E+02  0.81260E+06
 0.37320000E+02  0.13482E+07
 0.37370003E+02  0.13866E+07
 0.37420002E+02  0.91841E+06
 0.37470001E+02 -0.66510E+06
 0.37520000E+02 -0.31112E+07
 0.37570000E+02 -0.48468E+07
 0.37620003E+02 -0.49529E+07
 0.37670002E+02 -0.20310E+07
 0.37720001E+02  0.32403E+07
 0.37770000E+02  0.77132E+07
 0.37820000E+02  0.98299E+07
 0.37870003E+02  0.91242E+07
 0.37920002E+02  0.61796E+07
 0.37970001E+02  0.24497E+07
 0.38020000E+02 -0.66536E+06
 0.38070000E+02 -0.21885E+07
 0.38120003E+02 -0.21925E+07
 0.38170002E+02 -0.76348E+06
 0.38220001E+02  0.14452E+07
 0.38270000E+02  0.25767E+07
 0.38320000E+02  0.17545E+07
 0.38370003E+02  0.39345E+05
 0.38420002E+02 -0.14497E+07
 0.38470001E+02 -0.22095E+07
 0.38520000E+02 -0.21097E+07
 0.38570000E+02 -0.15357E+07
 0.38620003E+02 -0.10905E+07
 0.38670002E+02 -0.96430E+06
 0.38720001E+02 -0.41293E+06
 0.38770000E+02  0.60024E+06
 0.38820000E+02  0.12357E+07
 0.38870003E+02  0.12054E+07
 0.38920002E+02  0.66341E+06
 0.38970001E+02  0.26274E+06
 0.39020000E+02  0.36757E+06
 0.39070000E+02  0.11434E+07
 0.39120003E+02  0.24965E+07
 0.39170002E+02  0.30048E+07
 0.39220001E+02  0.20412E+07
 0.39270000E+02  0.78736E+06
 0.39320000E+02  0.69408E+06
 0.39370003E+02  0.23884E+07
 0.39420002E+02  0.54462E+07
 0.39470001E+02  0.88375E+07
 0.39520000E+02  0.10447E+08
 0.39570000E+02  0.95688E+07
 0.39620003E+02  0.82447E+07
 0.39670002E+02  0.78123E+07
 0.39720001E+02  0.78798E+07
 0.39770000E+02  0.71407E+07
 0.39820000E+02  0.50199E+07
 0.39870003E+02  0.22709E+07
 0.39920002E+02 -0.13378E+06
 0.39970001E+02 -0.12598E+07
 0.40020000E+02 -0.11858E+07
 0.40070000E+02 -0.10925E+07
 0.40120003E+02 -0.20870E+07
 0.40170002E+02 -0.37255E+07
 0.40220001E+02 -0.44012E+07
 0.40270000E+02 -0.36949E+07
 0.40320000E+02 -0.23748E+07
 0.40370003E+02 -0.14519E+07
 0.40420002E+02 -0.15744E+07
 0.40470001E+02 -0.21818E+07
 0.40520000E+02 -0.21472E+07
 0.40570000E+02 -0.12548E+07
 0.40620003E+02  0.38761E+06
 0.40670002E+02  0.22549E+07
 0.40720001E+02  0.31014E+07
 0.40770000E+02  0.28079E+07
 0.40820000E+02  0.18149E+07
 0.40870003E+02  0.19208E+06
 0.40920002E+02 -0.19609E+07
 0.40970001E+02 -0.38901E+07
 0.41020000E+02 -0.44986E+07
 0.41070000E+02 -0.37640E+07
 0.41120003E+02 -0.21234E+07
 0.41170002E+02 -0.18103E+06
 0.41220001E+02  0.11285E+07
 0.41270000E+02  0.10606E+07
 0.41320000E+02 -0.45202E+06
 0.41370003E+02 -0.26536E+07
 0.41420002E+02 -0.47934E+07
 0.41470001E+02 -0.57358E+07
 0.41520000E+02 -0.41356E+07
 0.41570000E+02 -0.48342E+06
 0.41620003E+02  0.34783E+07
 0.41670002E+02  0.63879E+07
 0.41720001E+02  0.72764E+07
 0.41770000E+02  0.61916E+07
 0.41820000E+02  0.42447E+07
 0.41870003E+02  0.26611E+07
 0.41920002E+02  0.18078E+07
 0.41970001E+02  0.91886E+06
 0.42020000E+02 -0.43669E+06
 0.42070000E+02 -0.17218E+07
 0.42120003E+02 -0.25768E+07
 0.42170002E+02 -0.31756E+07
 0.42220001E+02 -0.34674E+07
 0.42270000E+02 -0.32741E+07
 0.42320000E+02 -0.28545E+07
 0.42370003E+02 -0.25138E+07
 0.42420002E+02 -0.19109E+07
 0.42470001E+02 -0.95844E+06
 0.42520000E+02 -0.30083E+06
 0.42570000E+02  0.19972E+06
 0.42620003E+02  0.84801E+06
 0.42670002E+02  0.15830E+07
 0.42720001E+02  0.30571E+07
 0.42770000E+02  0.53656E+07
 0.42820000E+02  0.70186E+07
 0.42870003E+02  0.66837E+07
 0.42920002E+02  0.46043E+07
 0.42970001E+02  0.15034E+07
 0.43020000E+02 -0.15701E+07
 0.43070000E+02 -0.31486E+07
 0.43120003E+02 -0.33228E+07
 0.43170002E+02 -0.31858E+07
 0.43220001E+02 -0.32174E+07
 0.43270000E+02 -0.31741E+07
 0.43320000E+02 -0.27099E+07
 0.43370003E+02 -0.17240E+07
 0.43420002E+02 -0.17943E+06
 0.43470001E+02  0.11638E+07
 0.43520000E+02  0.19336E+07
 0.43570000E+02  0.23908E+07
 0.43620003E+02  0.22194E+07
 0.43670002E+02  0.12118E+07
 0.43720001E+02 -0.74104E+06
 0.43770000E+02 -0.34092E+07
 0.43820000E+02 -0.58122E+07
 0.43870003E+02 -0.68410E+07
 0.43920002E+02 -0.62519E+07
 0.43970001E+02 -0.46462E+07
 0.44020000E+02 -0.27910E+07
 0.44070000E+02 -0.17013E+07
 0.44120003E+02 -0.17823E+07
 0.44170002E+02 -0.21754E+07
 0.44220001E+02 -0.23530E+07
 0.44270000E+02 -0.23078E+07
 0.44320000E+02 -0.15931E+07
 0.44370003E+02 -0.26054E+06
 0.44420002E+02  0.10681E+07
 0.44470001E+02  0.20135E+07
 0.44520000E+02  0.25258E+07
 0.44570000E+02  0.25184E+07
 0.44620003E+02  0.20994E+07
 0.44670002E+02  0.15925E+07
 0.44720001E+02  0.11315E+07
 0.44770000E+02  0.72142E+06
 0.44820000E+02  0.23356E+06
 0.44870003E+02 -0.16690E+06
 0.44920002E+02 -0.47102E+06
 0.44970001E+02 -0.76269E+06
 0.45020000E+02 -0.92199E+06
 0.45070000E+02 -0.98433E+06
 0.45120003E+02 -0.12046E+07
 0.45170002E+02 -0.19403E+07
 0.45220001E+02 -0.26161E+07
 0.45270000E+02 -0.28140E+07
 0.45320000E+02 -0.28730E+07
 0.45370003E+02 -0.29018E+07
 0.45420002E+02 -0.34460E+07
 0.45470001E+02 -0.44326E+07
 0.45520000E+02 -0.50999E+07
 0.45570000E+02 -0.51612E+07
 0.45620003E+02 -0.44407E+07
 0.45670002E+02 -0.33212E+07
 0.45720001E+02 -0.21265E+07
 0.45770000E+02 -0.61937E+06
 0.45820000E+02  0.13297E+07
 0.45870003E+02  0.36076E+07
 0.45920002E+02  0.57034E+07
 0.45970001E+02  0.69341E+07
 0.46020000E+02  0.71692E+07
 0.46070000E+02  0.67002E+07
 0.46120003E+02  0.54729E+07
 0.46170002E+02  0.36984E+07
 0.46220001E+02  0.17204E+07
 0.46270000E+02 -0.36527E+06
 0.46320000E+02 -0.18402E+07
 0.46370003E+02 -0.23906E+07
 0.46420002E+02 -0.26446E+07
 0.46470001E+02 -0.29283E+07
 0.46520000E+02 -0.32232E+07
 0.46570000E+02 -0.32728E+07
 0.46620003E+02 -0.25331E+07
 0.46670002E+02 -0.10663E+07
 0.46720001E+02  0.36868E+06
 0.46770000E+02  0.11377E+07
 0.46820000E+02  0.94622E+06
 0.46870003E+02  0.26123E+05
 0.46920002E+02 -0.11483E+07
 0.46970001E+02 -0.22615E+07
 0.47020000E+02 -0.28136E+07
 0.47070000E+02 -0.24806E+07
 0.47120003E+02 -0.15893E+07
 0.47170002E+02 -0.57468E+06
 0.47220001E+02  0.21910E+06
 0.47270000E+02  0.39202E+06
 0.47320000E+02 -0.17257E+05
 0.47370003E+02 -0.43510E+06
 0.47420002E+02 -0.47070E+06
 0.47470001E+02 -0.17692E+06
 0.47520000E+02  0.32724E+06
 0.47570000E+02  0.66611E+06
 0.47620003E+02  0.43267E+06
 0.47670002E+02 -0.36788E+06
 0.47720001E+02 -0.15354E+07
 0.47770000E+02 -0.25698E+07
 0.47820000E+02 -0.31447E+07
 0.47870003E+02 -0.29628E+07
 0.47920002E+02 -0.20094E+07
 0.47970001E+02 -0.11534E+07
 0.48020000E+02 -0.77348E+06
 0.48070000E+02 -0.75742E+06
 0.48120003E+02 -0.91044E+06
 0.48170002E+02 -0.72775E+06
 0.48220001E+02 -0.26636E+06
 0.48270000E+02  0.84408E+05
 0.48320000E+02  0.24957E+06
 0.48370003E+02  0.16658E+06
 0.48420002E+02  0.25731E+05
 0.48470001E+02  0.14161E+06
 0.48520000E+02  0.43752E+06
 0.48570000E+02  0.78942E+06
 0.48620003E+02  0.11605E+07
 0.48670002E+02  0.14963E+07
 0.48720001E+02  0.15586E+07
 0.48770000E+02  0.12652E+07
 0.48820000E+02  0.81442E+06
 0.48870003E+02  0.28177E+06
 0.48920002E+02  0.13195E+06
 0.48970001E+02  0.56920E+06
 0.49020000E+02  0.11623E+07
 0.49070000E+02  0.17117E+07
 0.49120003E+02  0.19443E+07
 0.49170002E+02  0.17974E+07
 0.49220001E+02  0.16244E+07
 0.49270000E+02  0.13195E+07
 0.49320000E+02  0.78966E+06
 0.49370003E+02  0.36087E+06
 0.49420002E+02  0.12320E+06
 0.49470001E+02  0.21277E+06
 0.49520000E+02  0.77845E+06
 0.49570000E+02  0.15013E+07
 0.49620003E+02  0.19234E+07
 0.49670002E+02  0.17276E+07
 0.49720001E+02  0.10076E+07
 0.49770000E+02  0.53390E+05
 0.49820000E+02 -0.10632E+07
 0.49870003E+02 -0.19987E+07
 0.49920002E+02 -0.23308E+07
 0.49970001E+02 -0.19868E+07
 0.50020000E+02 -0.10519E+07
 0.50070000E+02  0.50980E+04
 0.50120003E+02  0.62290E+06
 0.50170002E+02  0.45792E+06
 0.50220001E+02 -0.49659E+06
 0.50270000E+02 -0.16982E+07
 0.50320000E+02 -0.26180E+07
 0.50370003E+02 -0.30315E+07
 0.50420002E+02 -0.29519E+07
 0.50470001E+02 -0.25457E+07
 0.50520000E+02 -0.21558E+07
 0.50570000E+02 -0.21475E+07
 0.50620003E+02 -0.22085E+07
 0.50670002E+02 -0.18232E+07
 0.50720001E+02 -0.89399E+06
 0.50770000E+02  0.41720E+06
 0.50820000E+02  0.15184E+07
 0.50870003E+02  0.18663E+07
 0.50920002E+02  0.14009E+07
 0.50970001E+02  0.35172E+06
 0.51020000E+02 -0.82610E+06
 0.51070000E+02 -0.18338E+07
 0.51120003E+02 -0.26293E+07
 0.51170002E+02 -0.30610E+07
 0.51220001E+02 -0.27685E+07
 0.51270000E+02 -0.16803E+07
 0.51320000E+02 -0.11286E+06
 0.51370003E+02  0.15011E+07
 0.51420002E+02  0.24891E+07
 0.51470001E+02  0.25344E+07
 0.51520000E+02  0.17867E+07
 0.51570000E+02  0.62086E+06
 0.51620003E+02 -0.32161E+06
 0.51670002E+02 -0.69047E+06
 0.51720001E+02 -0.46475E+06
 0.51770000E+02  0.80102E+05
 0.51820000E+02  0.42306E+06
 0.51870003E+02  0.34054E+06
 0.51920002E+02 -0.22397E+05
 0.51970001E+02 -0.43518E+06
 0.52020000E+02 -0.77159E+06
 0.52070000E+02 -0.99066E+06
 0.52120003E+02 -0.10720E+07
 0.52170002E+02 -0.10100E+07
 0.52220001E+02 -0.78727E+06
 0.52270000E+02 -0.35732E+06
 0.52320000E+02  0.18901E+06
 0.52370003E+02  0.65910E+06
 0.52420002E+02  0.10432E+07
 0.52470001E+02  0.13215E+07
 0.52520000E+02  0.15380E+07
 0.52570000E+02  0.16834E+07
 0.52620003E+02  0.15306E+07
 0.52670002E+02  0.10441E+07
 0.52720001E+02  0.36932E+06
 0.52770000E+02 -0.20686E+06
 0.52820000E+02 -0.44555E+06
 0.52870003E+02 -0.33060E+06
 0.52920002E+02 -0.84166E+05
 0.52970001E+02 -0.30318E+05
 0.53020000E+02 -0.20735E+06
 0.53070000E+02 -0.58661E+06
 0.53120003E+02 -0.10766E+07
 0.53170002E+02 -0.13572E+07
 0.53220001E+02 -0.13884E+07
 0.53270000E+02 -0.12782E+07
 0.53320000E+02 -0.10224E+07
 0.53370003E+02 -0.82077E+06
 0.53420002E+02 -0.78551E+06
 0.53470001E+02 -0.90967E+06
 0.53520000E+02 -0.12326E+07
 0.53570000E+02 -0.15713E+07
 0.53620003E+02 -0.17665E+07
 0.53670002E+02 -0.17098E+07
 0.53720001E+02 -0.13295E+07
 0.53770000E+02 -0.83856E+06
 0.53820000E+02 -0.46723E+06
 0.53870003E+02 -0.30530E+06
 0.53920002E+02 -0.46002E+06
 0.53970001E+02 -0.92442E+06
 0.54020000E+02 -0.12870E+07
 0.54070000E+02 -0.12754E+07
 0.54120003E+02 -0.91779E+06
 0.54170002E+02 -0.19808E+06
 0.54220001E+02  0.56792E+06
 0.54270000E+02  0.10189E+07
 0.54320000E+02  0.11207E+07
 0.54370003E+02  0.90690E+06
 0.54420002E+02  0.41511E+06
 0.54470001E+02 -0.12585E+06
 0.54520000E+02 -0.49367E+06
 0.54570000E+02 -0.67525E+06
 0.54620003E+02 -0.57491E+06
 0.54670002E+02 -0.25221E+06
 0.54720001E+02  0.67081E+05
 0.54770000E+02  0.29916E+06
 0.54820000E+02  0.36265E+06
 0.54870003E+02  0.23563E+06
 0.54920002E+02  0.66700E+04
 0.54970001E+02 -0.14952E+06
 0.55020000E+02 -0.11322E+06
 0.55070000E+02  0.10670E+06
 0.55120003E+02  0.52699E+06
 0.55170002E+02  0.10071E+07
 0.55220001E+02  0.14000E+07
 0.55270000E+02  0.16702E+07
 0.55320000E+02  0.17229E+07
 0.55370003E+02  0.16350E+07
 0.55420002E+02  0.14684E+07
 0.55470001E+02  0.11931E+07
 0.55520000E+02  0.81812E+06
 0.55570000E+02  0.26447E+06
 0.55620003E+02 -0.38795E+06
 0.55670002E+02 -0.10554E+07
 0.55720001E+02 -0.18045E+07
 0.55770000E+02 -0.26032E+07
 0.55820000E+02 -0.34036E+07
 0.55870003E+02 -0.40332E+07
 0.55920002E+02 -0.42709E+07
 0.55970001E+02 -0.41042E+07
 0.56020000E+02 -0.35914E+07
 0.56070000E+02 -0.28658E+07
 0.56120003E+02 -0.21227E+07
 0.56170002E+02 -0.13847E+07
 0.56220001E+02 -0.66278E+06
 0.56270000E+02 -0.53197E+05
 0.56320000E+02  0.44255E+06
 0.56370003E+02  0.77765E+06
 0.56420002E+02  0.88273E+06
 0.56470001E+02  0.71370E+06
 0.56520000E+02  0.31815E+06
 0.56570000E+02 -0.58111E+05
 0.56620003E+02 -0.15244E+06
 0.56670002E+02  0.12257E+06
 0.56720001E+02  0.54895E+06
 0.56770000E+02  0.80648E+06
 0.56820000E+02  0.72565E+06
 0.56870003E+02  0.42376E+06
 0.56920002E+02  0.11724E+06
 0.56970001E+02 -0.98658E+05
 0.57020000E+02 -0.10460E+06
 0.57070000E+02  0.18398E+05
 0.57120003E+02  0.83207E+05
 0.57170002E+02  0.11620E+06
 0.57220001E+02  0.15742E+06
 0.57270000E+02  0.26113E+06
 0.57320000E+02  0.45538E+06
 0.57370003E+02  0.60564E+06
 0.57420002E+02  0.60560E+06
 0.57470001E+02  0.52680E+06
 0.57520000E+02  0.53091E+06
 0.57570000E+02  0.71612E+06
 0.57620003E+02  0.10720E+07
 0.57670002E+02  0.14508E+07
 0.57720001E+02  0.16608E+07
 0.57770000E+02  0.16360E+07
 0.57820000E+02  0.13951E+07
 0.57870003E+02  0.10261E+07
 0.57920002E+02  0.66669E+06
 0.57970001E+02  0.36761E+06
 0.58020000E+02  0.19630E+06
 0.58070000E+02  0.24055E+06
 0.58120003E+02  0.44367E+06
 0.58170002E+02  0.63630E+06
 0.58220001E+02  0.59420E+06
 0.58270000E+02  0.19384E+06
 0.58320000E+02 -0.50514E+06
 0.58370003E+02 -0.13492E+07
 0.58420002E+02 -0.21376E+07
 0.58470001E+02 -0.26687E+07
 0.58520000E+02 -0.28302E+07
 0.58570000E+02 -0.26371E+07
 0.58620003E+02 -0.21244E+07
 0.58670002E+02 -0.13792E+07
 0.58720001E+02 -0.64478E+06
 0.58770000E+02 -0.10942E+06
 0.58820000E+02  0.18601E+06
 0.58870003E+02  0.25776E+06
 0.58920002E+02  0.23793E+06
 0.58970001E+02  0.21345E+06
 0.59020000E+02  0.20088E+06
 0.59070000E+02  0.25770E+06
 0.59120003E+02  0.32767E+06
 0.59170002E+02  0.36524E+06
 0.59220001E+02  0.40313E+06
 0.59270000E+02  0.44356E+06
 0.59320000E+02  0.52113E+06
 0.59370003E+02  0.59315E+06
 0.59420002E+02  0.53507E+06
 0.59470001E+02  0.30555E+06
 0.59520000E+02 -0.12250E+05
 0.59570000E+02 -0.36942E+06
 0.59620003E+02 -0.82299E+06
 0.59670002E+02 -0.13027E+07
 0.59720001E+02 -0.17170E+07
 0.59770000E+02 -0.20623E+07
 0.59820000E+02 -0.22616E+07
 0.59870003E+02 -0.23429E+07
 0.59920002E+02 -0.24689E+07
 0.59970001E+02 -0.26331E+07
 0.60020000E+02 -0.27405E+07
 0.60070000E+02 -0.26986E+07
 0.60120003E+02 -0.23348E+07
 0.60170002E+02 -0.16754E+07
 0.60220001E+02 -0.88504E+06
 0.60270000E+02 -0.57202E+05
 0.60320000E+02  0.65296E+06
 0.60370003E+02  0.11365E+07
 0.60420002E+02  0.14292E+07
 0.60470001E+02  0.16076E+07
 0.60520000E+02  0.17188E+07
 0.60570000E+02  0.18463E+07
 0.60620003E+02  0.20123E+07
 0.60670002E+02  0.20866E+07
 0.60720001E+02  0.19681E+07
 0.60770000E+02  0.16297E+07
 0.60820000E+02  0.11256E+07
 0.60870003E+02  0.57766E+06
 0.60920002E+02  0.95144E+05
 0.60970001E+02 -0.30246E+06
 0.61020000E+02 -0.59209E+06
 0.61070004E+02 -0.74045E+06
 0.61119999E+02 -0.83343E+06
 0.61170002E+02 -0.88790E+06
 0.61220005E+02 -0.89934E+06
 0.61270000E+02 -0.96702E+06
 0.61320004E+02 -0.11282E+07
 0.61369999E+02 -0.12940E+07
 0.61420002E+02 -0.13237E+07
 0.61470005E+02 -0.11550E+07
 0.61520000E+02 -0.85161E+06
 0.61570004E+02 -0.60389E+06
 0.61619999E+02 -0.60685E+06
 0.61670002E+02 -0.88951E+06
 0.61720005E+02 -0.13309E+07
 0.61770000E+02 -0.16878E+07
 0.61820004E+02 -0.17332E+07
 0.61869999E+02 -0.14507E+07
 0.61920002E+02 -0.97970E+06
 0.61970005E+02 -0.44441E+06
 0.62020000E+02  0.59807E+05
 0.62070004E+02  0.43960E+06
 0.62119999E+02  0.70311E+06
 0.62170002E+02  0.91454E+06
 0.62220005E+02  0.10940E+07
 0.62270000E+02  0.12816E+07
 0.62320004E+02  0.15295E+07
 0.62369999E+02  0.18184E+07
 0.62420002E+02  0.20610E+07
 0.62470005E+02  0.21799E+07
 0.62520000E+02  0.21749E+07
 0.62570004E+02  0.20050E+07
 0.62619999E+02  0.15969E+07
 0.62670002E+02  0.10541E+07
 0.62720005E+02  0.49531E+06
 0.62770000E+02  0.38671E+05
 0.62820004E+02 -0.16660E+06
 0.62869999E+02 -0.19778E+06
 0.62920002E+02 -0.20645E+06
 0.62970005E+02 -0.32383E+06
 0.63020000E+02 -0.70911E+06
 0.63070004E+02 -0.13596E+07
 0.63119999E+02 -0.20013E+07
 0.63170002E+02 -0.22921E+07
 0.63220005E+02 -0.21675E+07
 0.63270000E+02 -0.17301E+07
 0.63320004E+02 -0.11601E+07
 0.63369999E+02 -0.71825E+06
 0.63420002E+02 -0.42389E+06
 0.63470005E+02 -0.18075E+06
 0.63520000E+02  0.13106E+05
 0.63570004E+02  0.13849E+06
 0.63619999E+02  0.13994E+06
 0.63670002E+02  0.20234E+05
 0.63720005E+02 -0.18372E+06
 0.63770000E+02 -0.45419E+06
 0.63820004E+02 -0.74443E+06
 0.63869999E+02 -0.10320E+07
 0.63920002E+02 -0.12730E+07
 0.63970005E+02 -0.14100E+07
 0.64019997E+02 -0.14536E+07
 0.64070000E+02 -0.14878E+07
 0.64119995E+02 -0.15307E+07
 0.64169998E+02 -0.15240E+07
 0.64220001E+02 -0.14737E+07
 0.64269997E+02 -0.13276E+07
 0.64320000E+02 -0.11028E+07
 0.64369995E+02 -0.93064E+06
 0.64419998E+02 -0.86208E+06
 0.64470001E+02 -0.88057E+06
 0.64519997E+02 -0.90020E+06
 0.64570000E+02 -0.87473E+06
 0.64619995E+02 -0.78082E+06
 0.64669998E+02 -0.62803E+06
 0.64720001E+02 -0.52391E+06
 0.64769997E+02 -0.49445E+06
 0.64820000E+02 -0.54048E+06
 0.64869995E+02 -0.70857E+06
 0.64919998E+02 -0.96221E+06
 0.64970001E+02 -0.11707E+07
 0.65019997E+02 -0.11821E+07
 0.65070000E+02 -0.95136E+06
 0.65119995E+02 -0.55624E+06
 0.65169998E+02 -0.15367E+06
 0.65220001E+02  0.94193E+05
 0.65269997E+02  0.15644E+06
 0.65320000E+02  0.12607E+06
 0.65369995E+02  0.10770E+06
 0.65419998E+02  0.16710E+06
 0.65470001E+02  0.31125E+06
 0.65519997E+02  0.43058E+06
 0.65570000E+02  0.48150E+06
 0.65619995E+02  0.52218E+06
 0.65669998E+02  0.60467E+06
 0.65720001E+02  0.84938E+06
 0.65769997E+02  0.12423E+07
 0.65820000E+02  0.16203E+07
 0.65869995E+02  0.18450E+07
 0.65919998E+02  0.18170E+07
 0.65970001E+02  0.15621E+07
 0.66019997E+02  0.12092E+07
 0.66070000E+02  0.85674E+06
 0.66119995E+02  0.50336E+06
 0.66169998E+02  0.14692E+06
 0.66220001E+02 -0.16435E+06
 0.66269997E+02 -0.40108E+06
 0.66320000E+02 -0.56500E+06
 0.66369995E+02 -0.64846E+06
 0.66419998E+02 -0.62937E+06
 0.66470001E+02 -0.53830E+06
 0.66519997E+02 -0.39156E+06
 0.66570000E+02 -0.20164E+06
 0.66619995E+02 -0.34740E+05
 0.66669998E+02  0.88832E+05
 0.66720001E+02  0.16551E+06
 0.66769997E+02  0.20400E+06
 0.66820000E+02  0.22000E+06
 0.66869995E+02  0.14955E+06
 0.66919998E+02 -0.11975E+06
 0.66970001E+02 -0.62842E+06
 0.67019997E+02 -0.12573E+07
 0.67070000E+02 -0.18426E+07
 0.67119995E+02 -0.22291E+07
 0.67169998E+02 -0.23195E+07
 0.67220001E+02 -0.22224E+07
 0.67269997E+02 -0.20709E+07
 0.67320000E+02 -0.19345E+07
 0.67369995E+02 -0.18688E+07
 0.67419998E+02 -0.18312E+07
 0.67470001E+02 -0.17640E+07
 0.67519997E+02 -0.16383E+07
 0.67570000E+02 -0.14332E+07
 0.67619995E+02 -0.11303E+07
 0.67669998E+02 -0.75499E+06
 0.67720001E+02 -0.41045E+06
 0.67769997E+02 -0.13878E+06
 0.67820000E+02  0.95402E+05
 0.67869995E+02  0.31558E+06
 0.67919998E+02  0.52745E+06
 0.67970001E+02  0.67795E+06
 0.68019997E+02  0.70238E+06
 0.68070000E+02  0.61421E+06
 0.68119995E+02  0.43071E+06
 0.68169998E+02  0.19706E+06
 0.68220001E+02 -0.39180E+04
 0.68269997E+02 -0.12177E+06
 0.68320000E+02 -0.86757E+05
 0.68369995E+02  0.13738E+06
 0.68419998E+02  0.45592E+06
 0.68470001E+02  0.69730E+06
 0.68519997E+02  0.77223E+06
 0.68570000E+02  0.71826E+06
 0.68619995E+02  0.57142E+06
 0.68669998E+02  0.35734E+06
 0.68720001E+02  0.16196E+06
 0.68769997E+02  0.31533E+05
 0.68820000E+02 -0.21546E+05
 0.68869995E+02  0.50767E+05
 0.68919998E+02  0.18416E+06
 0.68970001E+02  0.24378E+06
 0.69019997E+02  0.19192E+06
 0.69070000E+02  0.93883E+05
 0.69119995E+02  0.21069E+05
 0.69169998E+02 -0.21630E+04
 0.69220001E+02  0.56171E+05
 0.69269997E+02  0.17609E+06
 0.69320000E+02  0.28691E+06
 0.69369995E+02  0.34491E+06
 0.69419998E+02  0.33455E+06
 0.69470001E+02  0.27109E+06
 0.69519997E+02  0.18590E+06
 0.69570000E+02  0.12375E+06
 0.69619995E+02  0.10318E+06
 0.69669998E+02  0.83523E+05
 0.69720001E+02  0.13570E+05
 0.69769997E+02 -0.97175E+05
 0.69820000E+02 -0.17391E+06
 0.69869995E+02 -0.19140E+06
 0.69919998E+02 -0.19538E+06
 0.69970001E+02 -0.23546E+06
 0.70019997E+02 -0.33343E+06
 0.70070000E+02 -0.44192E+06
 0.70119995E+02 -0.48845E+06
 0.70169998E+02 -0.43586E+06
 0.70220001E+02 -0.32134E+06
 0.70269997E+02 -0.20998E+06
 0.70320000E+02 -0.12138E+06
 0.70369995E+02 -0.48259E+05
 0.70419998E+02  0.83060E+04
 0.70470001E+02 -0.18772E+05
 0.70519997E+02 -0.16653E+06
 0.70570000E+02 -0.34937E+06
 0.70619995E+02 -0.46785E+06
 0.70669998E+02 -0.48632E+06
 0.70720001E+02 -0.38780E+06
 0.70769997E+02 -0.18135E+06
 0.70820000E+02  0.44939E+05
 0.70869995E+02  0.21885E+06
 0.70919998E+02  0.32925E+06
 0.70970001E+02  0.34143E+06
 0.71019997E+02  0.22325E+06
 0.71070000E+02 -0.43750E+04
 0.71119995E+02 -0.30465E+06
 0.71169998E+02 -0.62777E+06
 0.71220001E+02 -0.91374E+06
 0.71269997E+02 -0.10970E+07
 0.71320000E+02 -0.11542E+07
 0.71369995E+02 -0.11422E+07
 0.71419998E+02 -0.11304E+07
 0.71470001E+02 -0.11728E+07
 0.71519997E+02 -0.12689E+07
 0.71570000E+02 -0.13648E+07
 0.71619995E+02 -0.13835E+07
 0.71669998E+02 -0.12908E+07
 0.71720001E+02 -0.11171E+07
 0.71769997E+02 -0.89961E+06
 0.71820000E+02 -0.71856E+06
 0.71869995E+02 -0.58926E+06
 0.71919998E+02 -0.50382E+06
 0.71970001E+02 -0.51160E+06
 0.72019997E+02 -0.56760E+06
 0.72070000E+02 -0.62000E+06
 0.72119995E+02 -0.64799E+06
 0.72169998E+02 -0.60214E+06
 0.72220001E+02 -0.48089E+06
 0.72269997E+02 -0.32192E+06
 0.72320000E+02 -0.18853E+06
 0.72369995E+02 -0.14511E+06
 0.72419998E+02 -0.18602E+06
 0.72470001E+02 -0.27075E+06
 0.72519997E+02 -0.35950E+06
 0.72570000E+02 -0.43010E+06
 0.72619995E+02 -0.48022E+06
 0.72669998E+02 -0.49778E+06
 0.72720001E+02 -0.48458E+06
 0.72769997E+02 -0.43249E+06
 0.72820000E+02 -0.31476E+06
 0.72869995E+02 -0.11474E+06
 0.72919998E+02  0.19194E+06
 0.72970001E+02  0.60140E+06
 0.73019997E+02  0.10538E+07
 0.73070000E+02  0.14431E+07
 0.73119995E+02  0.16525E+07
 0.73169998E+02  0.16393E+07
 0.73220001E+02  0.14324E+07
 0.73269997E+02  0.11086E+07
 0.73320000E+02  0.74977E+06
 0.73369995E+02  0.37706E+06
 0.73419998E+02 -0.26960E+04
 0.73470001E+02 -0.35806E+06
 0.73519997E+02 -0.65054E+06
 0.73570000E+02 -0.87272E+06
 0.73619995E+02 -0.10515E+07
 0.73669998E+02 -0.12023E+07
 0.73720001E+02 -0.13039E+07
 0.73769997E+02 -0.13166E+07
 0.73820000E+02 -0.12090E+07
 0.73869995E+02 -0.10227E+07
 0.73919998E+02 -0.90154E+06
 0.73970001E+02 -0.91840E+06
 0.74019997E+02 -0.98808E+06
 0.74070000E+02 -0.99927E+06
 0.74119995E+02 -0.89668E+06
 0.74169998E+02 -0.73236E+06
 0.74220001E+02 -0.63542E+06
 0.74269997E+02 -0.64762E+06
 0.74320000E+02 -0.69445E+06
 0.74369995E+02 -0.69061E+06
 0.74419998E+02 -0.57848E+06
 0.74470001E+02 -0.39404E+06
 0.74519997E+02 -0.25290E+06
 0.74570000E+02 -0.19528E+06
 0.74619995E+02 -0.20288E+06
 0.74669998E+02 -0.24193E+06
 0.74720001E+02 -0.24406E+06
 0.74769997E+02 -0.18619E+06
 0.74820000E+02 -0.10090E+06
 0.74869995E+02 -0.37610E+05
 0.74919998E+02 -0.14169E+05
 0.74970001E+02 -0.10700E+03
 0.75019997E+02  0.18262E+05
 0.75070000E+02  0.48412E+05
 0.75119995E+02  0.71863E+05
 0.75169998E+02  0.29561E+05
 0.75220001E+02 -0.10513E+06
 0.75269997E+02 -0.27866E+06
 0.75320000E+02 -0.37482E+06
 0.75369995E+02 -0.32038E+06
 0.75419998E+02 -0.11988E+06
 0.75470001E+02  0.17014E+06
 0.75519997E+02  0.44640E+06
 0.75570000E+02  0.61776E+06
 0.75619995E+02  0.66664E+06
 0.75669998E+02  0.64834E+06
 0.75720001E+02  0.63604E+06
 0.75769997E+02  0.66142E+06
 0.75820000E+02  0.68849E+06
 0.75869995E+02  0.66511E+06
 0.75919998E+02  0.58195E+06
 0.75970001E+02  0.43651E+06
 0.76019997E+02  0.24158E+06
 0.76070000E+02  0.49224E+05
 0.76119995E+02 -0.10725E+06
 0.76169998E+02 -0.21406E+06
 0.76220001E+02 -0.26051E+06
 0.76269997E+02 -0.26917E+06
 0.76320000E+02 -0.30372E+06
 0.76369995E+02 -0.41683E+06
 0.76419998E+02 -0.60723E+06
 0.76470001E+02 -0.85515E+06
 0.76519997E+02 -0.11371E+07
 0.76570000E+02 -0.14201E+07
 0.76619995E+02 -0.16599E+07
 0.76669998E+02 -0.18151E+07
 0.76720001E+02 -0.18418E+07
 0.76769997E+02 -0.16908E+07
 0.76820000E+02 -0.13732E+07
 0.76869995E+02 -0.93951E+06
 0.76919998E+02 -0.45219E+06
 0.76970001E+02  0.14689E+05
 0.77019997E+02  0.41160E+06
 0.77070000E+02  0.69563E+06
 0.77119995E+02  0.83147E+06
 0.77169998E+02  0.83914E+06
 0.77220001E+02  0.78750E+06
 0.77269997E+02  0.73180E+06
 0.77320000E+02  0.69018E+06
 0.77369995E+02  0.63139E+06
 0.77419998E+02  0.50585E+06
 0.77470001E+02  0.32087E+06
 0.77519997E+02  0.12923E+06
 0.77570000E+02 -0.57430E+04
 0.77619995E+02 -0.57100E+05
 0.77669998E+02 -0.62176E+05
 0.77720001E+02 -0.54045E+05
 0.77769997E+02 -0.51532E+05
 0.77820000E+02 -0.74049E+05
 0.77869995E+02 -0.10561E+06
 0.77919998E+02 -0.13492E+06
 0.77970001E+02 -0.16245E+06
 0.78019997E+02 -0.16312E+06
 0.78070000E+02 -0.11758E+06
 0.78119995E+02 -0.26861E+05
 0.78169998E+02  0.83454E+05
 0.78220001E+02  0.18023E+06
 0.78269997E+02  0.23059E+06
 0.78320000E+02  0.21250E+06
 0.78369995E+02  0.15811E+06
 0.78419998E+02  0.94502E+05
 0.78470001E+02  0.18640E+04
 0.78519997E+02 -0.16217E+06
 0.78570000E+02 -0.42279E+06
 0.78619995E+02 -0.74527E+06
 0.78669998E+02 -0.10344E+07
 0.78720001E+02 -0.11912E+07
 0.78769997E+02 -0.11896E+07
 0.78820000E+02 -0.10355E+07
 0.78869995E+02 -0.76621E+06
 0.78919998E+02 -0.44125E+06
 0.78970001E+02 -0.81607E+05
 0.79019997E+02  0.25921E+06
 0.79070000E+02  0.50750E+06
 0.79119995E+02  0.61579E+06
 0.79169998E+02  0.56497E+06
 0.79220001E+02  0.41318E+06
 0.79269997E+02  0.25241E+06
 0.79320000E+02  0.12824E+06
 0.79369995E+02  0.44266E+05
 0.79419998E+02 -0.20310E+05
 0.79470001E+02 -0.10752E+06
 0.79519997E+02 -0.24870E+06
 0.79570000E+02 -0.45643E+06
 0.79619995E+02 -0.73489E+06
 0.79669998E+02 -0.10490E+07
 0.79720001E+02 -0.13187E+07
 0.79769997E+02 -0.14559E+07
 0.79820000E+02 -0.13983E+07
 0.79869995E+02 -0.11679E+07
 0.79919998E+02 -0.86901E+06
 0.79970001E+02 -0.58268E+06
 0.80019997E+02 -0.34584E+06
 0.80070000E+02 -0.16867E+06
 0.80119995E+02 -0.13090E+05
 0.80169998E+02  0.15730E+06
 0.80220001E+02  0.33574E+06
 0.80269997E+02  0.50101E+06
 0.80320000E+02  0.64242E+06
 0.80369995E+02  0.73870E+06
 0.80419998E+02  0.75789E+06
 0.80470001E+02  0.67852E+06
 0.80519997E+02  0.48551E+06
 0.80570000E+02  0.18072E+06
 0.80619995E+02 -0.18156E+06
 0.80669998E+02 -0.50092E+06
 0.80720001E+02 -0.69950E+06
 0.80769997E+02 -0.72902E+06
 0.80820000E+02 -0.59353E+06
 0.80869995E+02 -0.35709E+06
 0.80919998E+02 -0.76399E+05
 0.80970001E+02  0.18322E+06
 0.81019997E+02  0.39686E+06
 0.81070000E+02  0.60938E+06
 0.81119995E+02  0.84710E+06
 0.81169998E+02  0.11042E+07
 0.81220001E+02  0.13083E+07
 0.81269997E+02  0.13498E+07
 0.81320000E+02  0.11869E+07
 0.81369995E+02  0.86644E+06
 0.81419998E+02  0.52066E+06
 0.81470001E+02  0.26255E+06
 0.81519997E+02  0.10326E+06
 0.81570000E+02  0.19908E+05
 0.81619995E+02 -0.23282E+05
 0.81669998E+02 -0.66331E+05
 0.81720001E+02 -0.11957E+06
 0.81769997E+02 -0.18905E+06
 0.81820000E+02 -0.27198E+06
 0.81869995E+02 -0.35609E+06
 0.81919998E+02 -0.44121E+06
 0.81970001E+02 -0.49922E+06
 0.82019997E+02 -0.49984E+06
 0.82070000E+02 -0.43956E+06
 0.82119995E+02 -0.32931E+06
 0.82169998E+02 -0.22376E+06
 0.82220001E+02 -0.19687E+06
 0.82269997E+02 -0.29920E+06
 0.82320000E+02 -0.52392E+06
 0.82369995E+02 -0.79096E+06
 0.82419998E+02 -0.99870E+06
 0.82470001E+02 -0.10861E+07
 0.82519997E+02 -0.10671E+07
 0.82570000E+02 -0.10210E+07
 0.82619995E+02 -0.10195E+07
 0.82669998E+02 -0.10749E+07
 0.82720001E+02 -0.11534E+07
 0.82769997E+02 -0.11960E+07
 0.82820000E+02 -0.11647E+07
 0.82869995E+02 -0.10651E+07
 0.82919998E+02 -0.92682E+06
 0.82970001E+02 -0.78635E+06
 0.83019997E+02 -0.67525E+06
 0.83070000E+02 -0.62278E+06
 0.83119995E+02 -0.63114E+06
 0.83169998E+02 -0.66144E+06
 0.83220001E+02 -0.66986E+06
 0.83269997E+02 -0.61450E+06
 0.83320000E+02 -0.47419E+06
 0.83369995E+02 -0.28318E+06
 0.83419998E+02 -0.98654E+05
 0.83470001E+02  0.23866E+05
 0.83519997E+02  0.65284E+05
 0.83570000E+02  0.66537E+05
 0.83619995E+02  0.71402E+05
 0.83669998E+02  0.99198E+05
 0.83720001E+02  0.13495E+06
 0.83769997E+02  0.14049E+06
 0.83820000E+02  0.99349E+05
 0.83869995E+02  0.34496E+05
 0.83919998E+02 -0.93290E+04
 0.83970001E+02 -0.66770E+04
 0.84019997E+02  0.35415E+05
 0.84070000E+02  0.81569E+05
 0.84119995E+02  0.10161E+06
 0.84169998E+02  0.90975E+05
 0.84220001E+02  0.42584E+05
 0.84269997E+02 -0.35113E+05
 0.84320000E+02 -0.11996E+06
 0.84369995E+02 -0.21724E+06
 0.84419998E+02 -0.32694E+06
 0.84470001E+02 -0.41735E+06
 0.84519997E+02 -0.45244E+06
 0.84570000E+02 -0.40704E+06
 0.84619995E+02 -0.28141E+06
 0.84669998E+02 -0.99349E+05
 0.84720001E+02  0.11533E+06
 0.84769997E+02  0.33797E+06
 0.84820000E+02  0.53165E+06
 0.84869995E+02  0.66672E+06
 0.84919998E+02  0.73627E+06
 0.84970001E+02  0.75908E+06
 0.85019997E+02  0.76886E+06
 0.85070000E+02  0.77006E+06
 0.85119995E+02  0.73214E+06
 0.85169998E+02  0.61071E+06
 0.85220001E+02  0.35590E+06
 0.85269997E+02 -0.39561E+05
 0.85320000E+02 -0.52219E+06
 0.85369995E+02 -0.10125E+07
 0.85419998E+02 -0.14217E+07
 0.85470001E+02 -0.16833E+07
 0.85519997E+02 -0.17653E+07
 0.85570000E+02 -0.16827E+07
 0.85619995E+02 -0.14912E+07
 0.85669998E+02 -0.12306E+07
 0.85720001E+02 -0.94096E+06
 0.85769997E+02 -0.65434E+06
 0.85820000E+02 -0.35964E+06
 0.85869995E+02 -0.57347E+05
 0.85919998E+02  0.23552E+06
 0.85970001E+02  0.49952E+06
 0.86019997E+02  0.69926E+06
 0.86070000E+02  0.82039E+06
 0.86119995E+02  0.88127E+06
 0.86169998E+02  0.90861E+06
 0.86220001E+02  0.91886E+06
 0.86269997E+02  0.89769E+06
 0.86320000E+02  0.80920E+06
 0.86369995E+02  0.63065E+06
 0.86419998E+02  0.37626E+06
 0.86470001E+02  0.93633E+05
 0.86519997E+02 -0.17671E+06
 0.86570000E+02 -0.40927E+06
 0.86619995E+02 -0.58234E+06
 0.86669998E+02 -0.68650E+06
 0.86720001E+02 -0.70236E+06
 0.86769997E+02 -0.61757E+06
 0.86820000E+02 -0.44984E+06
 0.86869995E+02 -0.24390E+06
 0.86919998E+02 -0.56953E+05
 0.86970001E+02  0.79704E+05
 0.87019997E+02  0.15558E+06
 0.87070000E+02  0.18784E+06
 0.87119995E+02  0.21766E+06
 0.87169998E+02  0.26470E+06
 0.87220001E+02  0.32483E+06
 0.87269997E+02  0.37797E+06
 0.87320000E+02  0.39488E+06
 0.87369995E+02  0.35920E+06
 0.87419998E+02  0.27063E+06
 0.87470001E+02  0.14126E+06
 0.87519997E+02 -0.16419E+05
 0.87570000E+02 -0.19543E+06
 0.87619995E+02 -0.37757E+06
 0.87669998E+02 -0.54279E+06
 0.87720001E+02 -0.67775E+06
 0.87769997E+02 -0.78307E+06
 0.87820000E+02 -0.87477E+06
 0.87869995E+02 -0.95255E+06
 0.87919998E+02 -0.10201E+07
 0.87970001E+02 -0.10779E+07
 0.88019997E+02 -0.10868E+07
 0.88070000E+02 -0.10135E+07
 0.88119995E+02 -0.86622E+06
 0.88169998E+02 -0.68896E+06
 0.88220001E+02 -0.53652E+06
 0.88269997E+02 -0.43773E+06
 0.88320000E+02 -0.37496E+06
 0.88369995E+02 -0.30669E+06
 0.88419998E+02 -0.22270E+06
 0.88470001E+02 -0.14818E+06
 0.88519997E+02 -0.11040E+06
 0.88570000E+02 -0.10628E+06
 0.88619995E+02 -0.98315E+05
 0.88669998E+02 -0.64367E+05
 0.88720001E+02 -0.23773E+05
 0.88769997E+02 -0.60220E+04
 0.88820000E+02 -0.29501E+05
 0.88869995E+02 -0.94209E+05
 0.88919998E+02 -0.17169E+06
 0.88970001E+02 -0.23398E+06
 0.89019997E+02 -0.26342E+06
 0.89070000E+02 -0.24291E+06
 0.89119995E+02 -0.17991E+06
 0.89169998E+02 -0.80776E+05
 0.89220001E+02  0.49743E+05
 0.89269997E+02  0.17843E+06
 0.89320000E+02  0.27572E+06
 0.89369995E+02  0.32731E+06
 0.89419998E+02  0.34279E+06
 0.89470001E+02  0.34008E+06
 0.89519997E+02  0.32045E+06
 0.89570000E+02  0.28276E+06
 0.89619995E+02  0.22021E+06
 0.89669998E+02  0.13785E+06
 0.89720001E+02  0.68125E+05
 0.89769997E+02  0.45772E+05
 0.89820000E+02  0.70563E+05
 0.89869995E+02  0.11289E+06
 0.89919998E+02  0.15382E+06
 0.89970001E+02  0.18690E+06
 0.90019997E+02  0.21139E+06
 0.90070000E+02  0.22178E+06
 0.90119995E+02  0.20050E+06
 0.90169998E+02  0.14476E+06
 0.90220001E+02  0.65673E+05
 0.90269997E+02 -0.18584E+05
 0.90320000E+02 -0.82268E+05
 0.90369995E+02 -0.12326E+06
 0.90419998E+02 -0.15752E+06
 0.90470001E+02 -0.19626E+06
 0.90519997E+02 -0.25286E+06
 0.90570000E+02 -0.34425E+06
 0.90619995E+02 -0.46088E+06
 0.90669998E+02 -0.56299E+06
 0.90720001E+02 -0.61428E+06
 0.90769997E+02 -0.58225E+06
 0.90820000E+02 -0.47226E+06
 0.90869995E+02 -0.33154E+06
 0.90919998E+02 -0.18864E+06
 0.90970001E+02 -0.61809E+05
 0.91019997E+02  0.28912E+05
 0.91070000E+02  0.73898E+05
 0.91119995E+02  0.72011E+05
 0.91169998E+02  0.49000E+05
 0.91220001E+02  0.48970E+05
 0.91269997E+02  0.96288E+05
 0.91320000E+02  0.18885E+06
 0.91369995E+02  0.29385E+06
 0.91419998E+02  0.37498E+06
 0.91470001E+02  0.42550E+06
 0.91519997E+02  0.44442E+06
 0.91570000E+02  0.43909E+06
 0.91619995E+02  0.42175E+06
 0.91669998E+02  0.39013E+06
 0.91720001E+02  0.35236E+06
 0.91769997E+02  0.33053E+06
 0.91820000E+02  0.34837E+06
 0.91869995E+02  0.42192E+06
 0.91919998E+02  0.53410E+06
 0.91970001E+02  0.64801E+06
 0.92019997E+02  0.72287E+06
 0.92070000E+02  0.71872E+06
 0.92119995E+02  0.63762E+06
 0.92169998E+02  0.52238E+06
 0.92220001E+02  0.40728E+06
 0.92269997E+02  0.29697E+06
 0.92320000E+02  0.18776E+06
 0.92369995E+02  0.74710E+05
 0.92419998E+02 -0.56051E+05
 0.92470001E+02 -0.20931E+06
 0.92519997E+02 -0.37836E+06
 0.92570000E+02 -0.54947E+06
 0.92619995E+02 -0.69386E+06
 0.92669998E+02 -0.76559E+06
 0.92720001E+02 -0.74179E+06
 0.92769997E+02 -0.65724E+06
 0.92820000E+02 -0.56478E+06
 0.92869995E+02 -0.50710E+06
 0.92919998E+02 -0.50667E+06
 0.92970001E+02 -0.55785E+06
 0.93019997E+02 -0.65261E+06
 0.93070000E+02 -0.77718E+06
 0.93119995E+02 -0.90239E+06
 0.93169998E+02 -0.10054E+07
 0.93220001E+02 -0.10597E+07
 0.93269997E+02 -0.10398E+07
 0.93320000E+02 -0.95601E+06
 0.93369995E+02 -0.84057E+06
 0.93419998E+02 -0.72594E+06
 0.93470001E+02 -0.63486E+06
 0.93519997E+02 -0.56502E+06
 0.93570000E+02 -0.48823E+06
 0.93619995E+02 -0.37410E+06
 0.93669998E+02 -0.22884E+06
 0.93720001E+02 -0.99816E+05
 0.93769997E+02 -0.27787E+05
 0.93820000E+02 -0.18019E+05
 0.93869995E+02 -0.61247E+05
 0.93919998E+02 -0.14396E+06
 0.93970001E+02 -0.25457E+06
 0.94019997E+02 -0.38900E+06
 0.94070000E+02 -0.53548E+06
 0.94119995E+02 -0.66686E+06
 0.94169998E+02 -0.75267E+06
 0.94220001E+02 -0.78409E+06
 0.94269997E+02 -0.76708E+06
 0.94320000E+02 -0.70071E+06
 0.94369995E+02 -0.59186E+06
 0.94419998E+02 -0.45419E+06
 0.94470001E+02 -0.29559E+06
 0.94519997E+02 -0.13394E+06
 0.94570000E+02  0.73630E+04
 0.94619995E+02  0.10877E+06
 0.94669998E+02  0.16987E+06
 0.94720001E+02  0.21202E+06
 0.94769997E+02  0.24606E+06
 0.94820000E+02  0.27077E+06
 0.94869995E+02  0.26779E+06
 0.94919998E+02  0.20683E+06
 0.94970001E+02  0.79829E+05
 0.95019997E+02 -0.95283E+05
 0.95070000E+02 -0.28080E+06
 0.95119995E+02 -0.42600E+06
 0.95169998E+02 -0.50249E+06
 0.95220001E+02 -0.52534E+06
 0.95269997E+02 -0.52289E+06
 0.95320000E+02 -0.49933E+06
 0.95369995E+02 -0.43902E+06
 0.95419998E+02 -0.33559E+06
 0.95470001E+02 -0.18729E+06
 0.95519997E+02 -0.12101E+05
 0.95570000E+02  0.14381E+06
 0.95619995E+02  0.25315E+06
 0.95669998E+02  0.31020E+06
 0.95720001E+02  0.31496E+06
 0.95769997E+02  0.27726E+06
 0.95820000E+02  0.21594E+06
 0.95869995E+02  0.15453E+06
 0.95919998E+02  0.11428E+06
 0.95970001E+02  0.10802E+06
 0.96019997E+02  0.12130E+06
 0.96070000E+02  0.11399E+06
 0.96119995E+02  0.62655E+05
 0.96169998E+02 -0.25290E+05
 0.96220001E+02 -0.12792E+06
 0.96269997E+02 -0.21026E+06
 0.96320000E+02 -0.23927E+06
 0.96369995E+02 -0.21398E+06
 0.96419998E+02 -0.16471E+06
 0.96470001E+02 -0.12851E+06
 0.96519997E+02 -0.13355E+06
 0.96570000E+02 -0.19460E+06
 0.96619995E+02 -0.30488E+06
 0.96669998E+02 -0.41736E+06
 0.96720001E+02 -0.48339E+06
 0.96769997E+02 -0.49102E+06
 0.96820000E+02 -0.45001E+06
 0.96869995E+02 -0.40049E+06
 0.96919998E+02 -0.37467E+06
 0.96970001E+02 -0.35984E+06
 0.97019997E+02 -0.33096E+06
 0.97070000E+02 -0.27555E+06
 0.97119995E+02 -0.19832E+06
 0.97169998E+02 -0.11027E+06
 0.97220001E+02 -0.17917E+05
 0.97269997E+02  0.74163E+05
 0.97320000E+02  0.16102E+06
 0.97369995E+02  0.24142E+06
 0.97419998E+02  0.30502E+06
 0.97470001E+02  0.33545E+06
 0.97519997E+02  0.32365E+06
 0.97570000E+02  0.27253E+06
 0.97619995E+02  0.20900E+06
 0.97669998E+02  0.16521E+06
 0.97720001E+02  0.16865E+06
 0.97769997E+02  0.23181E+06
 0.97820000E+02  0.33525E+06
 0.97869995E+02  0.43856E+06
 0.97919998E+02  0.50169E+06
 0.97970001E+02  0.50545E+06
 0.98019997E+02  0.45409E+06
 0.98070000E+02  0.38009E+06
 0.98119995E+02  0.31653E+06
 0.98169998E+02  0.26207E+06
 0.98220001E+02  0.19543E+06
 0.98269997E+02  0.10549E+06
 0.98320000E+02  0.30170E+04
 0.98369995E+02 -0.94339E+05
 0.98419998E+02 -0.16641E+06
 0.98470001E+02 -0.20822E+06
 0.98519997E+02 -0.23396E+06
 0.98570000E+02 -0.24521E+06
 0.98619995E+02 -0.23484E+06
 0.98669998E+02 -0.21471E+06
 0.98720001E+02 -0.20977E+06
 0.98769997E+02 -0.23260E+06
 0.98820000E+02 -0.28034E+06
 0.98869995E+02 -0.32230E+06
 0.98919998E+02 -0.31193E+06
 0.98970001E+02 -0.22991E+06
 0.99019997E+02 -0.94587E+05
 0.99070000E+02  0.56209E+05
 0.99119995E+02  0.18747E+06
 0.99169998E+02  0.27458E+06
 0.99220001E+02  0.31768E+06
 0.99269997E+02  0.34375E+06
 0.99320000E+02  0.38297E+06
 0.99369995E+02  0.44232E+06
 0.99419998E+02  0.49310E+06
 0.99470001E+02  0.49428E+06
 0.99519997E+02  0.42997E+06
 0.99570000E+02  0.32231E+06
 0.99619995E+02  0.21347E+06
 0.99669998E+02  0.14823E+06
 0.99720001E+02  0.14774E+06
 0.99769997E+02  0.18952E+06
 0.99820000E+02  0.22926E+06
 0.99869995E+02  0.23458E+06
 0.99919998E+02  0.19598E+06
 0.99970001E+02  0.12653E+06
 0.10002000E+03  0.56552E+05
 0.10007000E+03  0.87160E+04
 0.10012000E+03 -0.68980E+04
 0.10017000E+03  0.35230E+04
 0.10022000E+03  0.16405E+05
 0.10027000E+03  0.18536E+05
 0.10032000E+03  0.48060E+04
 0.10037000E+03 -0.28343E+05
 0.10042000E+03 -0.82807E+05
 0.10047000E+03 -0.16377E+06
 0.10052000E+03 -0.27373E+06
 0.10057000E+03 -0.41388E+06
 0.10062000E+03 -0.57887E+06
 0.10067000E+03 -0.74664E+06
 0.10072000E+03 -0.89407E+06
 0.10077000E+03 -0.10127E+07
 0.10082000E+03 -0.10983E+07
 0.10087000E+03 -0.11551E+07
 0.10092000E+03 -0.11922E+07
 0.10097000E+03 -0.12066E+07
 0.10102000E+03 -0.11879E+07
 0.10107000E+03 -0.11238E+07
 0.10112000E+03 -0.10101E+07
 0.10117000E+03 -0.85680E+06
 0.10122000E+03 -0.68677E+06
 0.10127000E+03 -0.52482E+06
 0.10132000E+03 -0.37948E+06
 0.10137000E+03 -0.24495E+06
 0.10142000E+03 -0.10834E+06
 0.10147000E+03  0.34587E+05
 0.10152000E+03  0.17279E+06
 0.10157000E+03  0.29128E+06
 0.10162000E+03  0.37068E+06
 0.10167000E+03  0.40220E+06
 0.10172000E+03  0.39932E+06
 0.10177000E+03  0.37804E+06
 0.10182000E+03  0.35556E+06
 0.10187000E+03  0.35368E+06
 0.10192000E+03  0.37422E+06
 0.10197000E+03  0.39424E+06
 0.10202000E+03  0.38759E+06
 0.10207000E+03  0.34448E+06
 0.10212000E+03  0.29160E+06
 0.10217000E+03  0.27395E+06
 0.10222000E+03  0.31543E+06
 0.10227000E+03  0.40627E+06
 0.10232000E+03  0.50382E+06
 0.10237000E+03  0.56770E+06
 0.10242000E+03  0.59164E+06
 0.10247000E+03  0.59311E+06
 0.10252000E+03  0.59647E+06
 0.10257000E+03  0.60925E+06
 0.10262000E+03  0.61221E+06
 0.10267000E+03  0.58058E+06
 0.10272000E+03  0.50740E+06
 0.10277000E+03  0.40182E+06
 0.10282000E+03  0.27390E+06
 0.10287000E+03  0.12799E+06
 0.10292000E+03 -0.40258E+05
 0.10297000E+03 -0.23071E+06
 0.10302000E+03 -0.41363E+06
 0.10307000E+03 -0.54839E+06
 0.10312000E+03 -0.61972E+06
 0.10317000E+03 -0.62988E+06
 0.10322000E+03 -0.59544E+06
 0.10327000E+03 -0.54384E+06
 0.10332000E+03 -0.48538E+06
 0.10337000E+03 -0.42235E+06
 0.10342000E+03 -0.36919E+06
 0.10347000E+03 -0.34508E+06
 0.10352000E+03 -0.36498E+06
 0.10357000E+03 -0.42302E+06
 0.10362000E+03 -0.48740E+06
 0.10367000E+03 -0.52632E+06
 0.10372000E+03 -0.52273E+06
 0.10377000E+03 -0.47008E+06
 0.10382000E+03 -0.37449E+06
 0.10387000E+03 -0.24975E+06
 0.10392000E+03 -0.11142E+06
 0.10397000E+03  0.19375E+05
 0.10402000E+03  0.12651E+06
 0.10407000E+03  0.21353E+06
 0.10412000E+03  0.29937E+06
 0.10417000E+03  0.39921E+06
 0.10422000E+03  0.50823E+06
 0.10427000E+03  0.59736E+06
 0.10432000E+03  0.63247E+06
 0.10437000E+03  0.60534E+06
 0.10442000E+03  0.52921E+06
 0.10447000E+03  0.42181E+06
 0.10452000E+03  0.30445E+06
 0.10457000E+03  0.18661E+06
 0.10462000E+03  0.65430E+05
 0.10467000E+03 -0.48987E+05
 0.10472000E+03 -0.13199E+06
 0.10477000E+03 -0.16394E+06
 0.10482000E+03 -0.15076E+06
 0.10487000E+03 -0.12771E+06
 0.10492000E+03 -0.13823E+06
 0.10497000E+03 -0.19335E+06
 0.10502000E+03 -0.25812E+06
 0.10507000E+03 -0.28965E+06
 0.10512000E+03 -0.26511E+06
 0.10517000E+03 -0.18845E+06
 0.10522000E+03 -0.84875E+05
 0.10527000E+03  0.24153E+05
 0.10532000E+03  0.12595E+06
 0.10537000E+03  0.20051E+06
 0.10542000E+03  0.22422E+06
 0.10547000E+03  0.18815E+06
 0.10552000E+03  0.11278E+06
 0.10557000E+03  0.39594E+05
 0.10562000E+03  0.30800E+04
 0.10567000E+03  0.12805E+05
 0.10572000E+03  0.55204E+05
 0.10577000E+03  0.11206E+06
 0.10582000E+03  0.16762E+06
 0.10587000E+03  0.20592E+06
 0.10592000E+03  0.21481E+06
 0.10597000E+03  0.18597E+06
 0.10602000E+03  0.11489E+06
 0.10607000E+03  0.57300E+04
 0.10612000E+03 -0.12451E+06
 0.10617000E+03 -0.25567E+06
 0.10622000E+03 -0.37214E+06
 0.10627000E+03 -0.46650E+06
 0.10632000E+03 -0.54401E+06
 0.10637000E+03 -0.61085E+06
 0.10642000E+03 -0.66810E+06
 0.10647000E+03 -0.70729E+06
 0.10652000E+03 -0.71114E+06
 0.10657000E+03 -0.66349E+06
 0.10662000E+03 -0.56036E+06
 0.10667000E+03 -0.42089E+06
 0.10672000E+03 -0.27193E+06
 0.10677000E+03 -0.14321E+06
 0.10682000E+03 -0.56503E+05
 0.10687000E+03 -0.13426E+05
 0.10692000E+03 -0.16436E+05
 0.10697000E+03 -0.62647E+05
 0.10702000E+03 -0.13407E+06
 0.10707000E+03 -0.20471E+06
 0.10712000E+03 -0.25182E+06
 0.10717000E+03 -0.26728E+06
 0.10722000E+03 -0.25570E+06
 0.10727000E+03 -0.23181E+06
 0.10732000E+03 -0.21084E+06
 0.10737000E+03 -0.19904E+06
 0.10742000E+03 -0.19537E+06
 0.10747000E+03 -0.19597E+06
 0.10752000E+03 -0.19701E+06
 0.10757000E+03 -0.19300E+06
 0.10762000E+03 -0.17901E+06
 0.10767000E+03 -0.15931E+06
 0.10772000E+03 -0.14066E+06
 0.10777000E+03 -0.12450E+06
 0.10782000E+03 -0.10500E+06
 0.10787000E+03 -0.62291E+05
 0.10792000E+03  0.19263E+05
 0.10797000E+03  0.12557E+06
 0.10802000E+03  0.22581E+06
 0.10807000E+03  0.29502E+06
 0.10812000E+03  0.32094E+06
 0.10817000E+03  0.31694E+06
 0.10822000E+03  0.31265E+06
 0.10827000E+03  0.32958E+06
 0.10832000E+03  0.37347E+06
 0.10837000E+03  0.43290E+06
 0.10842000E+03  0.49478E+06
 0.10847000E+03  0.54714E+06
 0.10852000E+03  0.57862E+06
 0.10857000E+03  0.58922E+06
 0.10862000E+03  0.58044E+06
 0.10867000E+03  0.55408E+06
 0.10872000E+03  0.51458E+06
 0.10877000E+03  0.45961E+06
 0.10882000E+03  0.37915E+06
 0.10887000E+03  0.26223E+06
 0.10892000E+03  0.11036E+06
 0.10897000E+03 -0.56573E+05
 0.10902000E+03 -0.20446E+06
 0.10907000E+03 -0.30404E+06
 0.10912000E+03 -0.34615E+06
 0.10917000E+03 -0.33873E+06
 0.10922000E+03 -0.30755E+06
 0.10927000E+03 -0.28049E+06
 0.10932000E+03 -0.27030E+06
 0.10937000E+03 -0.27536E+06
 0.10942000E+03 -0.28152E+06
 0.10947000E+03 -0.27156E+06
 0.10952000E+03 -0.23430E+06
 0.10957000E+03 -0.17086E+06
 0.10962000E+03 -0.10295E+06
 0.10967000E+03 -0.62150E+05
 0.10972000E+03 -0.65626E+05
 0.10977000E+03 -0.10504E+06
 0.10982000E+03 -0.15627E+06
 0.10987000E+03 -0.19700E+06
 0.10992000E+03 -0.21238E+06
 0.10997000E+03 -0.20162E+06
 0.11002000E+03 -0.17523E+06
 0.11007000E+03 -0.13756E+06
 0.11012000E+03 -0.82618E+05
 0.11017000E+03 -0.30940E+04
 0.11022000E+03  0.91375E+05
 0.11027000E+03  0.16998E+06
 0.11032000E+03  0.20018E+06
 0.11037000E+03  0.17196E+06
 0.11042000E+03  0.10063E+06
 0.11047000E+03  0.95660E+04
 0.11052000E+03 -0.79483E+05
 0.11057000E+03 -0.15752E+06
 0.11062000E+03 -0.22453E+06
 0.11067000E+03 -0.27494E+06
 0.11072000E+03 -0.31300E+06
 0.11077000E+03 -0.35520E+06
 0.11082000E+03 -0.40927E+06
 0.11087000E+03 -0.47023E+06
 0.11092000E+03 -0.52072E+06
 0.11097000E+03 -0.53755E+06
 0.11102000E+03 -0.50478E+06
 0.11107000E+03 -0.42596E+06
 0.11112000E+03 -0.32075E+06
 0.11117000E+03 -0.20185E+06
 0.11122000E+03 -0.73267E+05
 0.11127000E+03  0.59157E+05
 0.11132000E+03  0.18624E+06
 0.11137000E+03  0.29384E+06
 0.11142000E+03  0.36819E+06
 0.11147000E+03  0.40334E+06
 0.11152000E+03  0.40210E+06
 0.11157000E+03  0.36955E+06
 0.11162000E+03  0.31037E+06
 0.11167000E+03  0.23447E+06
 0.11172000E+03  0.15797E+06
 0.11177000E+03  0.97786E+05
 0.11182000E+03  0.68661E+05
 0.11187000E+03  0.79109E+05
 0.11192000E+03  0.12100E+06
 0.11197000E+03  0.17656E+06
 0.11202000E+03  0.22882E+06
 0.11207000E+03  0.26492E+06
 0.11212000E+03  0.28475E+06
 0.11217000E+03  0.29376E+06
 0.11222000E+03  0.29563E+06
 0.11227000E+03  0.29397E+06
 0.11232000E+03  0.29266E+06
 0.11237000E+03  0.29669E+06
 0.11242000E+03  0.31045E+06
 0.11247000E+03  0.32985E+06
 0.11252000E+03  0.34614E+06
 0.11257000E+03  0.35517E+06
 0.11262000E+03  0.34708E+06
 0.11267000E+03  0.31263E+06
 0.11272000E+03  0.25075E+06
 0.11277000E+03  0.16164E+06
 0.11282000E+03  0.53074E+05
 0.11287000E+03 -0.61820E+05
 0.11292000E+03 -0.16982E+06
 0.11297000E+03 -0.25362E+06
 0.11302000E+03 -0.30929E+06
 0.11307000E+03 -0.35866E+06
 0.11312000E+03 -0.42038E+06
 0.11317000E+03 -0.49728E+06
 0.11322000E+03 -0.58461E+06
 0.11327000E+03 -0.66648E+06
 0.11332000E+03 -0.72990E+06
 0.11337000E+03 -0.78107E+06
 0.11342000E+03 -0.83421E+06
 0.11347000E+03 -0.88949E+06
 0.11352000E+03 -0.93144E+06
 0.11357000E+03 -0.94033E+06
 0.11362000E+03 -0.89984E+06
 0.11367000E+03 -0.81128E+06
 0.11372000E+03 -0.69900E+06
 0.11377000E+03 -0.59626E+06
 0.11382000E+03 -0.52566E+06
 0.11387000E+03 -0.50022E+06
 0.11392000E+03 -0.52735E+06
 0.11397000E+03 -0.60014E+06
 0.11402000E+03 -0.69799E+06
 0.11407000E+03 -0.78775E+06
 0.11412000E+03 -0.83693E+06
 0.11417000E+03 -0.82830E+06
 0.11422000E+03 -0.76089E+06
 0.11427000E+03 -0.65484E+06
 0.11432000E+03 -0.53820E+06
 0.11437000E+03 -0.42910E+06
 0.11442000E+03 -0.33920E+06
 0.11447000E+03 -0.27139E+06
 0.11452000E+03 -0.21429E+06
 0.11457000E+03 -0.15127E+06
 0.11462000E+03 -0.68731E+05
 0.11467000E+03  0.32531E+05
 0.11472000E+03  0.13202E+06
 0.11477000E+03  0.20647E+06
 0.11482000E+03  0.24082E+06
 0.11487000E+03  0.23544E+06
 0.11492000E+03  0.20966E+06
 0.11497000E+03  0.18672E+06
 0.11502000E+03  0.17976E+06
 0.11507000E+03  0.18824E+06
 0.11512000E+03  0.20168E+06
 0.11517000E+03  0.20742E+06
 0.11522000E+03  0.19768E+06
 0.11527000E+03  0.17037E+06
 0.11532000E+03  0.13269E+06
 0.11537000E+03  0.10294E+06
 0.11542000E+03  0.96258E+05
 0.11547000E+03  0.11438E+06
 0.11552000E+03  0.15130E+06
 0.11557000E+03  0.20253E+06
 0.11562000E+03  0.26358E+06
 0.11567000E+03  0.32196E+06
 0.11572000E+03  0.36066E+06
 0.11577000E+03  0.37529E+06
 0.11582000E+03  0.37543E+06
 0.11587000E+03  0.37273E+06
 0.11592000E+03  0.37806E+06
 0.11597000E+03  0.39005E+06
 0.11602000E+03  0.39293E+06
 0.11607000E+03  0.37044E+06
 0.11612000E+03  0.31195E+06
 0.11617000E+03  0.21510E+06
 0.11622000E+03  0.93739E+05
 0.11627000E+03 -0.18562E+05
 0.11632000E+03 -0.87195E+05
 0.11637000E+03 -0.96702E+05
 0.11642000E+03 -0.59633E+05
 0.11647000E+03 -0.13350E+05
 0.11652000E+03  0.44500E+04
 0.11657000E+03 -0.23001E+05
 0.11662000E+03 -0.92706E+05
 0.11667000E+03 -0.18719E+06
 0.11672000E+03 -0.27547E+06
 0.11677000E+03 -0.32755E+06
 0.11682000E+03 -0.32789E+06
 0.11687000E+03 -0.28015E+06
 0.11692000E+03 -0.21445E+06
 0.11697000E+03 -0.17302E+06
 0.11702000E+03 -0.17673E+06
 0.11707000E+03 -0.20757E+06
 0.11712000E+03 -0.22334E+06
 0.11717000E+03 -0.18804E+06
 0.11722000E+03 -0.94681E+05
 0.11727000E+03  0.34900E+05
 0.11732000E+03  0.17365E+06
 0.11737000E+03  0.30308E+06
 0.11742000E+03  0.41069E+06
 0.11747000E+03  0.49039E+06
 0.11752000E+03  0.53622E+06
 0.11757000E+03  0.54341E+06
 0.11762000E+03  0.51841E+06
 0.11767000E+03  0.47722E+06
 0.11772000E+03  0.43792E+06
 0.11777000E+03  0.41417E+06
 0.11782000E+03  0.41227E+06
 0.11787000E+03  0.42310E+06
 0.11792000E+03  0.43237E+06
 0.11797000E+03  0.43610E+06
 0.11802000E+03  0.43284E+06
 0.11807000E+03  0.42464E+06
 0.11812000E+03  0.41724E+06
 0.11817000E+03  0.41339E+06
 0.11822000E+03  0.41154E+06
 0.11827000E+03  0.40664E+06
 0.11832000E+03  0.39560E+06
 0.11837000E+03  0.37838E+06
 0.11842000E+03  0.35068E+06
 0.11847000E+03  0.30510E+06
 0.11852000E+03  0.24072E+06
 0.11857000E+03  0.16580E+06
 0.11862000E+03  0.96888E+05
 0.11867000E+03  0.51877E+05
 0.11872000E+03  0.37253E+05
 0.11877000E+03  0.48641E+05
 0.11882000E+03  0.80261E+05
 0.11887000E+03  0.12408E+06
 0.11892000E+03  0.16809E+06
 0.11897000E+03  0.19898E+06
 0.11902000E+03  0.20513E+06
 0.11907000E+03  0.18184E+06
 0.11912000E+03  0.13444E+06
 0.11917000E+03  0.75868E+05
 0.11922000E+03  0.22473E+05
 0.11927000E+03 -0.10220E+05
 0.11932000E+03 -0.11644E+05
 0.11937000E+03  0.18453E+05
 0.11942000E+03  0.66274E+05
 0.11947000E+03  0.11416E+06
 0.11952000E+03  0.14948E+06
 0.11957000E+03  0.16717E+06
 0.11962000E+03  0.17274E+06
 0.11967000E+03  0.17509E+06
 0.11972000E+03  0.18273E+06
 0.11977000E+03  0.19828E+06
 0.11982000E+03  0.21420E+06
 0.11987000E+03  0.21787E+06
 0.11992000E+03  0.19428E+06
 0.11997000E+03  0.14266E+06
 0.12002000E+03  0.86440E+05
 0.12007000E+03  0.52218E+05
 0.12012000E+03  0.49394E+05
 0.12017000E+03  0.68410E+05
 0.12022000E+03  0.92235E+05
 0.12027000E+03  0.10565E+06
 0.12032000E+03  0.96649E+05
 0.12037000E+03  0.64414E+05
 0.12042000E+03  0.18850E+05
 0.12047000E+03 -0.29584E+05
 0.12052000E+03 -0.70252E+05
 0.12057000E+03 -0.97028E+05
 0.12062000E+03 -0.11486E+06
 0.12067000E+03 -0.13009E+06
 0.12072000E+03 -0.14582E+06
 0.12077000E+03 -0.16809E+06
 0.12082000E+03 -0.19960E+06
 0.12087000E+03 -0.23636E+06
 0.12092000E+03 -0.26994E+06
 0.12097000E+03 -0.28917E+06
 0.12102000E+03 -0.29253E+06
 0.12107000E+03 -0.28604E+06
 0.12112000E+03 -0.26616E+06
 0.12117000E+03 -0.21810E+06
 0.12122000E+03 -0.13219E+06
 0.12127000E+03 -0.12461E+05
 0.12132000E+03  0.12504E+06
 0.12137000E+03  0.25172E+06
 0.12142000E+03  0.34270E+06
 0.12147000E+03  0.38908E+06
 0.12152000E+03  0.39272E+06
 0.12157000E+03  0.36511E+06
 0.12162000E+03  0.31930E+06
 0.12167000E+03  0.26202E+06
 0.12172000E+03  0.20010E+06
 0.12177000E+03  0.14139E+06
 0.12182000E+03  0.92320E+05
 0.12187000E+03  0.57279E+05
 0.12192000E+03  0.32888E+05
 0.12197000E+03  0.12377E+05
 0.12202000E+03 -0.79840E+04
 0.12207000E+03 -0.32086E+05
 0.12212000E+03 -0.68023E+05
 0.12217000E+03 -0.12513E+06
 0.12222000E+03 -0.20567E+06
 0.12227000E+03 -0.30700E+06
 0.12232000E+03 -0.42077E+06
 0.12237000E+03 -0.53161E+06
 0.12242000E+03 -0.62576E+06
 0.12247000E+03 -0.69338E+06
 0.12252000E+03 -0.73085E+06
 0.12257000E+03 -0.74024E+06
 0.12262000E+03 -0.72872E+06
 0.12267000E+03 -0.70550E+06
 0.12272000E+03 -0.67884E+06
 0.12277000E+03 -0.65686E+06
 0.12282000E+03 -0.64057E+06
 0.12287000E+03 -0.62650E+06
 0.12292000E+03 -0.60910E+06
 0.12297000E+03 -0.58190E+06
 0.12302000E+03 -0.54497E+06
 0.12307000E+03 -0.50346E+06
 0.12312000E+03 -0.46345E+06
 0.12317000E+03 -0.42955E+06
 0.12322000E+03 -0.40487E+06
 0.12327000E+03 -0.38937E+06
 0.12332000E+03 -0.37836E+06
 0.12337000E+03 -0.36522E+06
 0.12342000E+03 -0.34403E+06
 0.12347000E+03 -0.30962E+06
 0.12352000E+03 -0.25884E+06
 0.12357000E+03 -0.19434E+06
 0.12362000E+03 -0.12409E+06
 0.12367000E+03 -0.61034E+05
 0.12372000E+03 -0.17799E+05
 0.12377000E+03  0.16200E+04
 0.12382000E+03  0.34540E+04
 0.12387000E+03  0.49010E+04
 0.12392000E+03  0.27604E+05
 0.12397000E+03  0.83489E+05
 0.12402000E+03  0.16199E+06
 0.12407000E+03  0.23526E+06
 0.12412000E+03  0.28084E+06
 0.12417000E+03  0.29306E+06
 0.12422000E+03  0.28546E+06
 0.12427000E+03  0.27998E+06
 0.12432000E+03  0.28750E+06
 0.12437000E+03  0.30708E+06
 0.12442000E+03  0.33324E+06
 0.12447000E+03  0.36376E+06
 0.12452000E+03  0.39991E+06
 0.12457000E+03  0.43737E+06
 0.12462000E+03  0.46920E+06
 0.12467000E+03  0.49086E+06
 0.12472000E+03  0.49691E+06
 0.12477000E+03  0.47901E+06
 0.12482000E+03  0.43311E+06
 0.12487000E+03  0.36967E+06
 0.12492000E+03  0.30721E+06
 0.12497000E+03  0.26362E+06
 0.12502000E+03  0.25336E+06
 0.12507000E+03  0.27278E+06
 0.12512000E+03  0.29735E+06
 0.12517001E+03  0.30233E+06
 0.12521999E+03  0.27799E+06
 0.12527000E+03  0.23254E+06
 0.12532000E+03  0.19053E+06
 0.12537000E+03  0.17707E+06
 0.12542001E+03  0.19635E+06
 0.12546999E+03  0.23524E+06
 0.12552000E+03  0.27095E+06
 0.12557000E+03  0.27708E+06
 0.12562000E+03  0.24248E+06
 0.12567001E+03  0.17694E+06
 0.12571999E+03  0.10410E+06
 0.12577000E+03  0.50391E+05
 0.12582000E+03  0.28951E+05
 0.12587000E+03  0.27856E+05
 0.12592001E+03  0.24245E+05
 0.12596999E+03  0.10780E+05
 0.12602000E+03 -0.50190E+04
 0.12607000E+03 -0.12535E+05
 0.12612000E+03 -0.74130E+04
 0.12617001E+03  0.46290E+04
 0.12621999E+03  0.81440E+04
 0.12627000E+03 -0.16434E+05
 0.12632000E+03 -0.77373E+05
 0.12637000E+03 -0.16734E+06
 0.12642001E+03 -0.26618E+06
 0.12646999E+03 -0.35221E+06
 0.12652000E+03 -0.41992E+06
 0.12657000E+03 -0.47645E+06
 0.12662000E+03 -0.52692E+06
 0.12667001E+03 -0.57031E+06
 0.12671999E+03 -0.59654E+06
 0.12677000E+03 -0.59164E+06
 0.12682000E+03 -0.55402E+06
 0.12687000E+03 -0.49366E+06
 0.12692001E+03 -0.42467E+06
 0.12696999E+03 -0.36261E+06
 0.12702000E+03 -0.31830E+06
 0.12707000E+03 -0.29218E+06
 0.12712000E+03 -0.27825E+06
 0.12717001E+03 -0.26998E+06
 0.12721999E+03 -0.25794E+06
 0.12727000E+03 -0.23616E+06
 0.12732000E+03 -0.20580E+06
 0.12737000E+03 -0.16682E+06
 0.12742001E+03 -0.11826E+06
 0.12746999E+03 -0.63655E+05
 0.12752000E+03 -0.14456E+05
 0.12757000E+03  0.13203E+05
 0.12762000E+03  0.10768E+05
 0.12767001E+03 -0.21021E+05
 0.12771999E+03 -0.75363E+05
 0.12777000E+03 -0.14009E+06
 0.12782000E+03 -0.19959E+06
 0.12787000E+03 -0.23957E+06
 0.12792001E+03 -0.25744E+06
 0.12796999E+03 -0.26009E+06
 0.12802000E+03 -0.25466E+06
 0.12807001E+03 -0.24219E+06
 0.12812001E+03 -0.21656E+06
 0.12817001E+03 -0.17071E+06
 0.12822000E+03 -0.10344E+06
 0.12827000E+03 -0.22903E+05
 0.12832001E+03  0.61616E+05
 0.12837001E+03  0.14055E+06
 0.12842001E+03  0.19879E+06
 0.12847000E+03  0.22383E+06
 0.12852000E+03  0.21344E+06
 0.12857001E+03  0.17623E+06
 0.12862001E+03  0.13087E+06
 0.12867001E+03  0.10061E+06
 0.12872000E+03  0.99854E+05
 0.12877000E+03  0.12621E+06
 0.12882001E+03  0.16805E+06
 0.12887001E+03  0.21468E+06
 0.12892001E+03  0.25891E+06
 0.12897000E+03  0.29767E+06
 0.12902000E+03  0.33588E+06
 0.12907001E+03  0.37966E+06
 0.12912001E+03  0.43058E+06
 0.12917001E+03  0.49320E+06
 0.12922000E+03  0.57000E+06
 0.12927000E+03  0.65349E+06
 0.12932001E+03  0.72868E+06
 0.12937001E+03  0.77444E+06
 0.12942001E+03  0.77277E+06
 0.12947000E+03  0.71675E+06
 0.12952000E+03  0.61059E+06
 0.12957001E+03  0.47306E+06
 0.12962001E+03  0.32982E+06
 0.12967001E+03  0.20049E+06
 0.12972000E+03  0.96538E+05
 0.12977000E+03  0.22470E+05
 0.12982001E+03 -0.25279E+05
 0.12987001E+03 -0.61351E+05
 0.12992001E+03 -0.10529E+06
 0.12997000E+03 -0.16964E+06
 0.13002000E+03 -0.25105E+06
 0.13007001E+03 -0.32928E+06
 0.13012001E+03 -0.38134E+06
 0.13017001E+03 -0.39676E+06
 0.13022000E+03 -0.38234E+06
 0.13027000E+03 -0.35597E+06
 0.13032001E+03 -0.33149E+06
 0.13037001E+03 -0.31251E+06
 0.13042001E+03 -0.29948E+06
 0.13047000E+03 -0.29087E+06
 0.13052000E+03 -0.28321E+06
 0.13057001E+03 -0.27304E+06
 0.13062001E+03 -0.25784E+06
 0.13067001E+03 -0.24052E+06
 0.13072000E+03 -0.22861E+06
 0.13077000E+03 -0.22829E+06
 0.13082001E+03 -0.23881E+06
 0.13087001E+03 -0.25331E+06
 0.13092001E+03 -0.26045E+06
 0.13097000E+03 -0.24936E+06
 0.13102000E+03 -0.21830E+06
 0.13107001E+03 -0.16850E+06
 0.13112001E+03 -0.99361E+05
 0.13117001E+03 -0.17523E+05
 0.13122000E+03  0.57054E+05
 0.13127000E+03  0.10346E+06
 0.13132001E+03  0.11391E+06
 0.13137001E+03  0.92440E+05
 0.13142001E+03  0.53267E+05
 0.13147000E+03  0.13003E+05
 0.13152000E+03 -0.15906E+05
 0.13157001E+03 -0.20482E+05
 0.13162001E+03  0.66150E+04
 0.13167001E+03  0.60584E+05
 0.13172000E+03  0.12926E+06
 0.13177000E+03  0.19837E+06
 0.13182001E+03  0.25884E+06
 0.13187001E+03  0.30684E+06
 0.13192001E+03  0.33845E+06
 0.13197000E+03  0.35006E+06
 0.13202000E+03  0.33890E+06
 0.13207001E+03  0.30922E+06
 0.13212001E+03  0.27442E+06
 0.13217001E+03  0.24700E+06
 0.13222000E+03  0.22981E+06
 0.13227000E+03  0.21323E+06
 0.13232001E+03  0.18706E+06
 0.13237001E+03  0.14926E+06
 0.13242001E+03  0.10346E+06
 0.13247000E+03  0.56675E+05
 0.13252000E+03  0.13303E+05
 0.13257001E+03 -0.20665E+05
 0.13262001E+03 -0.37555E+05
 0.13267001E+03 -0.32520E+05
 0.13272000E+03 -0.38190E+04
 0.13277000E+03  0.41979E+05
 0.13282001E+03  0.95976E+05
 0.13287001E+03  0.15017E+06
 0.13292001E+03  0.19633E+06
 0.13297000E+03  0.22744E+06
 0.13302000E+03  0.23429E+06
 0.13307001E+03  0.21036E+06
 0.13312001E+03  0.15745E+06
 0.13317001E+03  0.86484E+05
 0.13322000E+03  0.12274E+05
 0.13327000E+03 -0.53841E+05
 0.13332001E+03 -0.10631E+06
 0.13337001E+03 -0.14854E+06
 0.13342001E+03 -0.18804E+06
 0.13347000E+03 -0.22883E+06
 0.13352000E+03 -0.27188E+06
 0.13357001E+03 -0.31280E+06
 0.13362001E+03 -0.34290E+06
 0.13367001E+03 -0.35677E+06
 0.13372000E+03 -0.35164E+06
 0.13377000E+03 -0.32430E+06
 0.13382001E+03 -0.27471E+06
 0.13387001E+03 -0.20963E+06
 0.13392001E+03 -0.14064E+06
 0.13397000E+03 -0.81564E+05
 0.13402000E+03 -0.45534E+05
 0.13407001E+03 -0.35647E+05
 0.13412001E+03 -0.43778E+05
 0.13417001E+03 -0.59999E+05
 0.13422000E+03 -0.73380E+05
 0.13427000E+03 -0.74968E+05
 0.13432001E+03 -0.65814E+05
 0.13437001E+03 -0.54934E+05
 0.13442001E+03 -0.53402E+05
 0.13447000E+03 -0.66287E+05
 0.13452000E+03 -0.85300E+05
 0.13457001E+03 -0.91946E+05
 0.13462001E+03 -0.67855E+05
 0.13467001E+03 -0.60490E+04
 0.13472000E+03  0.82535E+05
 0.13477000E+03  0.17518E+06
 0.13482001E+03  0.25127E+06
 0.13487001E+03  0.29862E+06
 0.13492001E+03  0.31418E+06
 0.13497000E+03  0.30333E+06
 0.13502000E+03  0.27597E+06
 0.13507001E+03  0.24558E+06
 0.13512001E+03  0.22487E+06
 0.13517001E+03  0.21817E+06
 0.13522000E+03  0.21670E+06
 0.13527000E+03  0.20265E+06
 0.13532001E+03  0.16715E+06
 0.13537001E+03  0.11564E+06
 0.13542001E+03  0.64277E+05
 0.13547000E+03  0.36098E+05
 0.13552000E+03  0.44789E+05
 0.13557001E+03  0.87918E+05
 0.13562001E+03  0.15079E+06
 0.13567001E+03  0.21453E+06
 0.13572000E+03  0.26516E+06
 0.13577000E+03  0.29778E+06
 0.13582001E+03  0.31736E+06
 0.13587001E+03  0.32839E+06
 0.13592001E+03  0.32889E+06
 0.13597000E+03  0.31544E+06
 0.13602000E+03  0.28697E+06
 0.13607001E+03  0.24474E+06
 0.13612001E+03  0.19193E+06
 0.13617001E+03  0.13429E+06
 0.13622000E+03  0.74564E+05
 0.13627000E+03  0.10249E+05
 0.13632001E+03 -0.61085E+05
 0.13637001E+03 -0.13752E+06
 0.13642001E+03 -0.21065E+06
 0.13647000E+03 -0.27169E+06
 0.13652000E+03 -0.31814E+06
 0.13657001E+03 -0.35210E+06
 0.13662001E+03 -0.37785E+06
 0.13667001E+03 -0.39730E+06
 0.13672000E+03 -0.40750E+06
 0.13677000E+03 -0.40451E+06
 0.13682001E+03 -0.38240E+06
 0.13687001E+03 -0.33579E+06
 0.13692001E+03 -0.26776E+06
 0.13697000E+03 -0.18861E+06
 0.13702000E+03 -0.11343E+06
 0.13707001E+03 -0.57699E+05
 0.13712001E+03 -0.31798E+05
 0.13717001E+03 -0.40089E+05
 0.13722000E+03 -0.79833E+05
 0.13727000E+03 -0.14039E+06
 0.13732001E+03 -0.20332E+06
 0.13737001E+03 -0.25042E+06
 0.13742001E+03 -0.27306E+06
 0.13747000E+03 -0.27258E+06
 0.13752000E+03 -0.25971E+06
 0.13757001E+03 -0.24870E+06
 0.13762001E+03 -0.24965E+06
 0.13767001E+03 -0.26825E+06
 0.13772000E+03 -0.30084E+06
 0.13777000E+03 -0.33541E+06
 0.13782001E+03 -0.36223E+06
 0.13787001E+03 -0.37707E+06
 0.13792001E+03 -0.38385E+06
 0.13797000E+03 -0.39437E+06
 0.13802000E+03 -0.41924E+06
 0.13807001E+03 -0.45867E+06
 0.13812001E+03 -0.50284E+06
 0.13817001E+03 -0.53729E+06
 0.13822000E+03 -0.55052E+06
 0.13827000E+03 -0.54129E+06
 0.13832001E+03 -0.51250E+06
 0.13837001E+03 -0.46424E+06
 0.13842001E+03 -0.39565E+06
 0.13847000E+03 -0.30857E+06
 0.13852000E+03 -0.20709E+06
 0.13857001E+03 -0.98451E+05
 0.13862001E+03  0.71290E+04
 0.13867001E+03  0.10277E+06
 0.13872000E+03  0.18682E+06
 0.13877000E+03  0.26164E+06
 0.13882001E+03  0.32767E+06
 0.13887001E+03  0.38128E+06
 0.13892001E+03  0.41922E+06
 0.13897000E+03  0.44067E+06
 0.13902000E+03  0.45153E+06
 0.13907001E+03  0.46128E+06
 0.13912001E+03  0.47596E+06
 0.13917001E+03  0.49634E+06
 0.13922000E+03  0.51780E+06
 0.13927000E+03  0.53405E+06
 0.13932001E+03  0.53740E+06
 0.13937001E+03  0.52200E+06
 0.13942001E+03  0.48872E+06
 0.13947000E+03  0.44349E+06
 0.13952000E+03  0.39879E+06
 0.13957001E+03  0.36748E+06
 0.13962001E+03  0.35404E+06
 0.13967001E+03  0.35829E+06
 0.13972000E+03  0.37817E+06
 0.13977000E+03  0.40938E+06
 0.13982001E+03  0.44642E+06
 0.13987001E+03  0.48366E+06
 0.13992001E+03  0.51414E+06
 0.13997000E+03  0.52823E+06
 0.14002000E+03  0.51879E+06
 0.14007001E+03  0.48518E+06
 0.14012001E+03  0.43245E+06
 0.14017001E+03  0.37033E+06
 0.14022000E+03  0.31176E+06
 0.14027000E+03  0.26689E+06
 0.14032001E+03  0.23659E+06
 0.14037001E+03  0.21631E+06
 0.14042001E+03  0.20184E+06
 0.14047000E+03  0.18874E+06
 0.14052000E+03  0.17082E+06
 0.14057001E+03  0.14483E+06
 0.14062001E+03  0.11315E+06
 0.14067001E+03  0.76179E+05
 0.14072000E+03  0.32339E+05
 0.14077000E+03 -0.17132E+05
 0.14082001E+03 -0.69607E+05
 0.14087001E+03 -0.12038E+06
 0.14092001E+03 -0.16358E+06
 0.14097000E+03 -0.19468E+06
 0.14102000E+03 -0.20998E+06
 0.14107001E+03 -0.20940E+06
 0.14112001E+03 -0.20116E+06
 0.14117001E+03 -0.19708E+06
 0.14122000E+03 -0.20479E+06
 0.14127000E+03 -0.22592E+06
 0.14132001E+03 -0.25793E+06
 0.14137001E+03 -0.29485E+06
 0.14142001E+03 -0.32855E+06
 0.14147000E+03 -0.35270E+06
 0.14152000E+03 -0.36168E+06
 0.14157001E+03 -0.35194E+06
 0.14162001E+03 -0.32527E+06
 0.14167001E+03 -0.28520E+06
 0.14172000E+03 -0.23725E+06
 0.14177000E+03 -0.18903E+06
 0.14182001E+03 -0.14609E+06
 0.14187001E+03 -0.11034E+06
 0.14192001E+03 -0.78474E+05
 0.14197000E+03 -0.44008E+05
 0.14202000E+03 -0.45860E+04
 0.14207001E+03  0.32787E+05
 0.14212001E+03  0.52226E+05
 0.14217001E+03  0.38369E+05
 0.14222000E+03 -0.11301E+05
 0.14227000E+03 -0.84287E+05
 0.14232001E+03 -0.15986E+06
 0.14237001E+03 -0.21812E+06
 0.14242001E+03 -0.24821E+06
 0.14247000E+03 -0.24876E+06
 0.14252000E+03 -0.22557E+06
 0.14257001E+03 -0.18954E+06
 0.14262001E+03 -0.15231E+06
 0.14267001E+03 -0.12351E+06
 0.14272000E+03 -0.10799E+06
 0.14277000E+03 -0.10713E+06
 0.14282001E+03 -0.12064E+06
 0.14287001E+03 -0.14370E+06
 0.14292001E+03 -0.16541E+06
 0.14297000E+03 -0.17222E+06
 0.14302000E+03 -0.15576E+06
 0.14307001E+03 -0.11613E+06
 0.14312001E+03 -0.58700E+05
 0.14317001E+03  0.11230E+05
 0.14322000E+03  0.88949E+05
 0.14327000E+03  0.16680E+06
 0.14332001E+03  0.23480E+06
 0.14337001E+03  0.28305E+06
 0.14342001E+03  0.30542E+06
 0.14347000E+03  0.30513E+06
 0.14352000E+03  0.29354E+06
 0.14357001E+03  0.28365E+06
 0.14362001E+03  0.28586E+06
 0.14367001E+03  0.30325E+06
 0.14372000E+03  0.32976E+06
 0.14377000E+03  0.35215E+06
 0.14382001E+03  0.35431E+06
 0.14387001E+03  0.32769E+06
 0.14392001E+03  0.27638E+06
 0.14397000E+03  0.21262E+06
 0.14402000E+03  0.14900E+06
 0.14407001E+03  0.92370E+05
 0.14412001E+03  0.45159E+05
 0.14417001E+03  0.95270E+04
 0.14422000E+03 -0.10307E+05
 0.14427000E+03 -0.11741E+05
 0.14432001E+03  0.15260E+04
 0.14437001E+03  0.19801E+05
 0.14442001E+03  0.30956E+05
 0.14447000E+03  0.26008E+05
 0.14452000E+03  0.34670E+04
 0.14457001E+03 -0.28792E+05
 0.14462001E+03 -0.58380E+05
 0.14467001E+03 -0.74707E+05
 0.14472000E+03 -0.71521E+05
 0.14477000E+03 -0.49769E+05
 0.14482001E+03 -0.16888E+05
 0.14487001E+03  0.15802E+05
 0.14492001E+03  0.37910E+05
 0.14497000E+03  0.44087E+05
 0.14502000E+03  0.34996E+05
 0.14507001E+03  0.19685E+05
 0.14512001E+03  0.91960E+04
 0.14517001E+03  0.72560E+04
 0.14522000E+03  0.92950E+04
 0.14527000E+03  0.80390E+04
 0.14532001E+03  0.13340E+04
 0.14537001E+03 -0.82480E+04
 0.14542001E+03 -0.18722E+05
 0.14547000E+03 -0.30628E+05
 0.14552000E+03 -0.46268E+05
 0.14557001E+03 -0.66817E+05
 0.14562001E+03 -0.89997E+05
 0.14567001E+03 -0.11198E+06
 0.14572000E+03 -0.12829E+06
 0.14577000E+03 -0.13551E+06
 0.14582001E+03 -0.13338E+06
 0.14587001E+03 -0.12169E+06
 0.14592001E+03 -0.10060E+06
 0.14597000E+03 -0.69797E+05
 0.14602000E+03 -0.26885E+05
 0.14607001E+03  0.28923E+05
 0.14612001E+03  0.94058E+05
 0.14617001E+03  0.15980E+06
 0.14622000E+03  0.21726E+06
 0.14627000E+03  0.26299E+06
 0.14632001E+03  0.30017E+06
 0.14637001E+03  0.33614E+06
 0.14642001E+03  0.37347E+06
 0.14647000E+03  0.40763E+06
 0.14652000E+03  0.43135E+06
 0.14657001E+03  0.43805E+06
 0.14662001E+03  0.42754E+06
 0.14667001E+03  0.40605E+06
 0.14672000E+03  0.38002E+06
 0.14677000E+03  0.35139E+06
 0.14682001E+03  0.31705E+06
 0.14687001E+03  0.27133E+06
 0.14692001E+03  0.21125E+06
 0.14697000E+03  0.14160E+06
 0.14702000E+03  0.71179E+05
 0.14707001E+03  0.88810E+04
 0.14712001E+03 -0.40784E+05
 0.14717001E+03 -0.81309E+05
 0.14722000E+03 -0.11688E+06
 0.14727000E+03 -0.14923E+06
 0.14732001E+03 -0.17886E+06
 0.14737001E+03 -0.20450E+06
 0.14742001E+03 -0.22502E+06
 0.14747000E+03 -0.24078E+06
 0.14752000E+03 -0.25469E+06
 0.14757001E+03 -0.26977E+06
 0.14762001E+03 -0.28716E+06
 0.14767001E+03 -0.30594E+06
 0.14772000E+03 -0.32177E+06
 0.14777000E+03 -0.33148E+06
 0.14782001E+03 -0.33311E+06
 0.14787001E+03 -0.32385E+06
 0.14792001E+03 -0.30296E+06
 0.14797000E+03 -0.27040E+06
 0.14802000E+03 -0.22753E+06
 0.14807001E+03 -0.17832E+06
 0.14812001E+03 -0.12818E+06
 0.14817001E+03 -0.83368E+05
 0.14822000E+03 -0.47142E+05
 0.14827000E+03 -0.19163E+05
 0.14832001E+03  0.13600E+04
 0.14837001E+03  0.14382E+05
 0.14842001E+03  0.19243E+05
 0.14847000E+03  0.13854E+05
 0.14852000E+03 -0.58310E+04
 0.14857001E+03 -0.44283E+05
 0.14862001E+03 -0.10314E+06
 0.14867001E+03 -0.17945E+06
 0.14872000E+03 -0.26588E+06
 0.14877000E+03 -0.35120E+06
 0.14882001E+03 -0.42410E+06
 0.14887001E+03 -0.47740E+06
 0.14892001E+03 -0.50939E+06
 0.14897000E+03 -0.52310E+06
 0.14902000E+03 -0.52233E+06
 0.14907001E+03 -0.50760E+06
 0.14912001E+03 -0.47640E+06
 0.14917001E+03 -0.42616E+06
 0.14922000E+03 -0.35964E+06
 0.14927000E+03 -0.28782E+06
 0.14932001E+03 -0.22401E+06
 0.14937001E+03 -0.17552E+06
 0.14942001E+03 -0.14194E+06
 0.14947000E+03 -0.11686E+06
 0.14952000E+03 -0.89439E+05
 0.14957001E+03 -0.50193E+05
 0.14962001E+03  0.46890E+04
 0.14967001E+03  0.72150E+05
 0.14972000E+03  0.14132E+06
 0.14977000E+03  0.19951E+06
 0.14982001E+03  0.24080E+06
 0.14987001E+03  0.26848E+06
 0.14992001E+03  0.29117E+06
 0.14997000E+03  0.31709E+06
