-0.30000000E+01  0.19355E+05
-0.29500000E+01  0.19281E+05
-0.29000001E+01  0.19127E+05
-0.28499999E+01  0.18986E+05
-0.28000000E+01  0.18895E+05
-0.27500000E+01  0.18808E+05
-0.27000000E+01  0.18650E+05
-0.26500001E+01  0.18431E+05
-0.25999999E+01  0.18242E+05
-0.25500000E+01  0.18115E+05
-0.25000000E+01  0.17948E+05
-0.24500000E+01  0.17708E+05
-0.24000001E+01  0.17466E+05
-0.23499999E+01  0.17234E+05
-0.23000002E+01  0.17022E+05
-0.22500000E+01  0.16806E+05
-0.22000000E+01  0.16552E+05
-0.21500001E+01  0.16277E+05
-0.20999999E+01  0.15993E+05
-0.20500002E+01  0.15724E+05
-0.20000000E+01  0.15490E+05
-0.19500000E+01  0.15217E+05
-0.19000001E+01  0.14883E+05
-0.18500000E+01  0.14571E+05
-0.18000001E+01  0.14301E+05
-0.17500001E+01  0.14041E+05
-0.17000000E+01  0.13724E+05
-0.16500001E+01  0.13375E+05
-0.16000001E+01  0.13057E+05
-0.15500001E+01  0.12785E+05
-0.15000001E+01  0.12507E+05
-0.14500000E+01  0.12173E+05
-0.14000001E+01  0.11828E+05
-0.13500001E+01  0.11489E+05
-0.13000001E+01  0.11193E+05
-0.12500001E+01  0.10935E+05
-0.12000000E+01  0.10603E+05
-0.11500001E+01  0.10214E+05
-0.11000001E+01  0.98850E+04
-0.10500001E+01  0.96390E+04
-0.10000001E+01  0.93770E+04
-0.95000005E+00  0.89990E+04
-0.90000010E+00  0.86270E+04
-0.85000014E+00  0.83870E+04
-0.80000019E+00  0.81630E+04
-0.75000024E+00  0.78510E+04
-0.70000005E+00  0.74880E+04
-0.65000010E+00  0.71990E+04
-0.60000014E+00  0.69990E+04
-0.55000019E+00  0.67630E+04
-0.50000024E+00  0.64630E+04
-0.45000005E+00  0.61610E+04
-0.40000010E+00  0.59300E+04
-0.35000014E+00  0.57350E+04
-0.30000019E+00  0.55070E+04
-0.25000024E+00  0.52560E+04
-0.20000029E+00  0.50160E+04
-0.15000010E+00  0.48320E+04
-0.10000014E+00  0.46620E+04
-0.50000191E-01  0.44600E+04
-0.23841858E-06  0.42620E+04
 0.49999714E-01  0.40960E+04
 0.99999905E-01  0.39580E+04
 0.14999986E+00  0.38060E+04
 0.19999981E+00  0.36570E+04
 0.24999976E+00  0.35330E+04
 0.29999971E+00  0.34190E+04
 0.34999990E+00  0.33190E+04
 0.39999986E+00  0.32210E+04
 0.44999981E+00  0.31210E+04
 0.49999976E+00  0.30390E+04
 0.54999971E+00  0.29800E+04
 0.59999990E+00  0.29090E+04
 0.64999986E+00  0.28340E+04
 0.69999981E+00  0.27810E+04
 0.74999976E+00  0.27450E+04
 0.79999971E+00  0.27140E+04
 0.84999967E+00  0.26770E+04
 0.89999986E+00  0.26360E+04
 0.94999981E+00  0.26260E+04
 0.99999976E+00  0.26380E+04
 0.10499997E+01  0.26340E+04
 0.10999999E+01  0.26260E+04
 0.11499996E+01  0.26260E+04
 0.11999998E+01  0.26430E+04
 0.12499995E+01  0.26560E+04
 0.12999997E+01  0.26790E+04
 0.13499999E+01  0.26950E+04
 0.13999996E+01  0.27090E+04
 0.14499998E+01  0.27250E+04
 0.14999995E+01  0.27290E+04
 0.15499997E+01  0.27550E+04
 0.15999999E+01  0.27770E+04
 0.16499996E+01  0.27880E+04
 0.16999998E+01  0.27860E+04
 0.17499995E+01  0.27940E+04
 0.17999997E+01  0.28000E+04
 0.18499999E+01  0.27850E+04
 0.18999996E+01  0.27700E+04
 0.19499998E+01  0.27490E+04
 0.19999995E+01  0.27260E+04
 0.20499997E+01  0.27020E+04
 0.20999999E+01  0.26720E+04
 0.21499996E+01  0.26110E+04
 0.21999998E+01  0.25530E+04
 0.22499995E+01  0.25090E+04
 0.22999997E+01  0.24530E+04
 0.23499999E+01  0.23790E+04
 0.23999996E+01  0.22820E+04
 0.24499998E+01  0.21990E+04
 0.24999995E+01  0.21170E+04
 0.25499997E+01  0.20140E+04
 0.25999994E+01  0.19010E+04
 0.26499996E+01  0.17720E+04
 0.26999998E+01  0.16350E+04
 0.27499995E+01  0.15020E+04
 0.27999997E+01  0.13640E+04
 0.28499994E+01  0.12050E+04
 0.28999996E+01  0.10350E+04
 0.29499998E+01  0.88200E+03
 0.29999995E+01  0.73400E+03
 0.30499997E+01  0.56000E+03
 0.30999994E+01  0.36300E+03
 0.31499996E+01  0.18200E+03
 0.31999998E+01  0.20000E+02
 0.32499995E+01 -0.16200E+03
 0.32999997E+01 -0.36400E+03
 0.33499994E+01 -0.57000E+03
 0.33999996E+01 -0.76100E+03
 0.34499998E+01 -0.94300E+03
 0.34999995E+01 -0.11510E+04
 0.35499997E+01 -0.13720E+04
 0.35999994E+01 -0.15880E+04
 0.36499996E+01 -0.17970E+04
 0.36999998E+01 -0.20070E+04
 0.37499995E+01 -0.22330E+04
 0.37999997E+01 -0.24590E+04
 0.38499994E+01 -0.26790E+04
 0.38999996E+01 -0.28880E+04
 0.39499998E+01 -0.30960E+04
 0.39999995E+01 -0.33170E+04
 0.40499997E+01 -0.35280E+04
 0.40999994E+01 -0.37190E+04
 0.41499996E+01 -0.39090E+04
 0.41999998E+01 -0.41140E+04
 0.42499995E+01 -0.43020E+04
 0.42999997E+01 -0.44700E+04
 0.43499994E+01 -0.46430E+04
 0.43999996E+01 -0.48180E+04
 0.44499993E+01 -0.49890E+04
 0.44999995E+01 -0.51420E+04
 0.45499997E+01 -0.52910E+04
 0.45999994E+01 -0.54390E+04
 0.46499996E+01 -0.55870E+04
 0.46999993E+01 -0.57350E+04
 0.47499995E+01 -0.58610E+04
 0.47999997E+01 -0.59910E+04
 0.48499994E+01 -0.61290E+04
 0.48999996E+01 -0.62650E+04
 0.49499993E+01 -0.63880E+04
 0.49999995E+01 -0.65000E+04
 0.50499992E+01 -0.66220E+04
 0.50999994E+01 -0.67400E+04
 0.51499996E+01 -0.68450E+04
 0.51999998E+01 -0.69460E+04
 0.52499990E+01 -0.70410E+04
 0.52999992E+01 -0.71350E+04
 0.53499994E+01 -0.72220E+04
 0.53999996E+01 -0.73030E+04
 0.54499998E+01 -0.73830E+04
 0.54999990E+01 -0.74510E+04
 0.55499992E+01 -0.75130E+04
 0.55999994E+01 -0.75600E+04
 0.56499996E+01 -0.76030E+04
 0.56999998E+01 -0.76460E+04
 0.57499990E+01 -0.76700E+04
 0.57999992E+01 -0.76790E+04
 0.58499994E+01 -0.76830E+04
 0.58999996E+01 -0.76880E+04
 0.59499998E+01 -0.76760E+04
 0.59999990E+01 -0.76450E+04
 0.60499992E+01 -0.76120E+04
 0.60999994E+01 -0.75830E+04
 0.61499996E+01 -0.75500E+04
 0.61999998E+01 -0.74910E+04
 0.62499990E+01 -0.74180E+04
 0.62999992E+01 -0.73560E+04
 0.63499994E+01 -0.73040E+04
 0.63999996E+01 -0.72370E+04
 0.64499998E+01 -0.71380E+04
 0.64999990E+01 -0.70380E+04
 0.65499992E+01 -0.69550E+04
 0.65999994E+01 -0.68690E+04
 0.66499996E+01 -0.67690E+04
 0.66999998E+01 -0.66550E+04
 0.67499990E+01 -0.65350E+04
 0.67999992E+01 -0.64300E+04
 0.68499994E+01 -0.63290E+04
 0.68999996E+01 -0.62140E+04
 0.69499998E+01 -0.60900E+04
 0.69999990E+01 -0.59640E+04
 0.70499992E+01 -0.58530E+04
 0.70999994E+01 -0.57530E+04
 0.71499996E+01 -0.56500E+04
 0.71999998E+01 -0.55320E+04
 0.72499990E+01 -0.54160E+04
 0.72999992E+01 -0.53130E+04
 0.73499994E+01 -0.52120E+04
 0.73999996E+01 -0.51280E+04
 0.74499998E+01 -0.50380E+04
 0.74999990E+01 -0.49360E+04
 0.75499992E+01 -0.48440E+04
 0.75999994E+01 -0.47700E+04
 0.76499996E+01 -0.47150E+04
 0.76999998E+01 -0.46530E+04
 0.77499990E+01 -0.45820E+04
 0.77999992E+01 -0.45250E+04
 0.78499994E+01 -0.44910E+04
 0.78999996E+01 -0.44670E+04
 0.79499998E+01 -0.44370E+04
 0.79999990E+01 -0.44060E+04
 0.80499992E+01 -0.43980E+04
 0.80999994E+01 -0.44100E+04
 0.81499996E+01 -0.44230E+04
 0.81999989E+01 -0.44350E+04
 0.82499990E+01 -0.44470E+04
 0.82999992E+01 -0.44810E+04
 0.83499994E+01 -0.45270E+04
 0.83999996E+01 -0.45640E+04
 0.84499989E+01 -0.46020E+04
 0.84999990E+01 -0.46500E+04
 0.85499992E+01 -0.47150E+04
 0.85999994E+01 -0.47740E+04
 0.86499996E+01 -0.48260E+04
 0.86999989E+01 -0.48880E+04
 0.87499990E+01 -0.49600E+04
 0.87999992E+01 -0.50380E+04
 0.88499994E+01 -0.51120E+04
 0.88999996E+01 -0.51930E+04
 0.89499989E+01 -0.52780E+04
 0.89999990E+01 -0.53750E+04
 0.90499992E+01 -0.54850E+04
 0.90999994E+01 -0.55810E+04
 0.91499996E+01 -0.56820E+04
 0.91999989E+01 -0.58020E+04
 0.92499990E+01 -0.59290E+04
 0.92999992E+01 -0.60440E+04
 0.93499994E+01 -0.61600E+04
 0.93999996E+01 -0.62890E+04
 0.94499989E+01 -0.64180E+04
 0.94999990E+01 -0.65510E+04
 0.95499992E+01 -0.66720E+04
 0.95999994E+01 -0.67840E+04
 0.96499996E+01 -0.69080E+04
 0.96999989E+01 -0.70360E+04
 0.97499990E+01 -0.71620E+04
 0.97999992E+01 -0.72720E+04
 0.98499994E+01 -0.73780E+04
 0.98999996E+01 -0.75060E+04
 0.99499989E+01 -0.76380E+04
 0.99999990E+01 -0.77630E+04
 0.10049999E+02 -0.78760E+04
 0.10099999E+02 -0.80000E+04
 0.10150000E+02 -0.81440E+04
 0.10199999E+02 -0.82790E+04
 0.10249999E+02 -0.84130E+04
 0.10299999E+02 -0.85520E+04
 0.10349999E+02 -0.87030E+04
 0.10400000E+02 -0.88560E+04
 0.10449999E+02 -0.90040E+04
 0.10499999E+02 -0.91530E+04
 0.10549999E+02 -0.93080E+04
 0.10599999E+02 -0.94750E+04
 0.10650000E+02 -0.96360E+04
 0.10699999E+02 -0.97890E+04
 0.10749999E+02 -0.99360E+04
 0.10799999E+02 -0.10084E+05
 0.10849999E+02 -0.10234E+05
 0.10900000E+02 -0.10378E+05
 0.10949999E+02 -0.10509E+05
 0.10999999E+02 -0.10628E+05
 0.11049999E+02 -0.10746E+05
 0.11099999E+02 -0.10861E+05
 0.11150000E+02 -0.10966E+05
 0.11199999E+02 -0.11051E+05
 0.11249999E+02 -0.11128E+05
 0.11299999E+02 -0.11204E+05
 0.11349999E+02 -0.11262E+05
 0.11400000E+02 -0.11311E+05
 0.11449999E+02 -0.11347E+05
 0.11499999E+02 -0.11377E+05
 0.11549999E+02 -0.11398E+05
 0.11599999E+02 -0.11405E+05
 0.11649999E+02 -0.11410E+05
 0.11699999E+02 -0.11405E+05
 0.11749999E+02 -0.11385E+05
 0.11799999E+02 -0.11356E+05
 0.11849999E+02 -0.11331E+05
 0.11899999E+02 -0.11301E+05
 0.11949999E+02 -0.11248E+05
 0.11999999E+02 -0.11177E+05
 0.12049999E+02 -0.11113E+05
 0.12099999E+02 -0.11050E+05
 0.12149999E+02 -0.10969E+05
 0.12199999E+02 -0.10877E+05
 0.12249999E+02 -0.10763E+05
 0.12299999E+02 -0.10651E+05
 0.12349999E+02 -0.10547E+05
 0.12399999E+02 -0.10434E+05
 0.12449999E+02 -0.10300E+05
 0.12499999E+02 -0.10149E+05
 0.12549999E+02 -0.10014E+05
 0.12599999E+02 -0.98770E+04
 0.12649999E+02 -0.97290E+04
 0.12699999E+02 -0.95630E+04
 0.12749999E+02 -0.93920E+04
 0.12799999E+02 -0.92350E+04
 0.12849999E+02 -0.90730E+04
 0.12899999E+02 -0.89130E+04
 0.12949999E+02 -0.87360E+04
 0.12999999E+02 -0.85460E+04
 0.13049999E+02 -0.83710E+04
 0.13099998E+02 -0.82010E+04
 0.13150000E+02 -0.80260E+04
 0.13199999E+02 -0.78220E+04
 0.13249998E+02 -0.76260E+04
 0.13299999E+02 -0.74480E+04
 0.13349998E+02 -0.72510E+04
 0.13400000E+02 -0.70370E+04
 0.13449999E+02 -0.68230E+04
 0.13499998E+02 -0.66180E+04
 0.13549999E+02 -0.64080E+04
 0.13599998E+02 -0.61890E+04
 0.13650000E+02 -0.59520E+04
 0.13699999E+02 -0.57140E+04
 0.13749998E+02 -0.54890E+04
 0.13799999E+02 -0.52570E+04
 0.13849998E+02 -0.50220E+04
 0.13900000E+02 -0.47760E+04
 0.13949999E+02 -0.45350E+04
 0.13999998E+02 -0.43060E+04
 0.14049999E+02 -0.40760E+04
 0.14099998E+02 -0.38340E+04
 0.14150000E+02 -0.35750E+04
 0.14199999E+02 -0.33290E+04
 0.14249998E+02 -0.30940E+04
 0.14299999E+02 -0.28510E+04
 0.14349998E+02 -0.25870E+04
 0.14400000E+02 -0.23140E+04
 0.14449999E+02 -0.20550E+04
 0.14499998E+02 -0.18010E+04
 0.14549999E+02 -0.15490E+04
 0.14599998E+02 -0.12780E+04
 0.14650000E+02 -0.10010E+04
 0.14699999E+02 -0.74000E+03
 0.14749998E+02 -0.48800E+03
 0.14799999E+02 -0.24200E+03
 0.14849998E+02  0.18000E+02
 0.14900000E+02  0.27800E+03
 0.14949999E+02  0.52700E+03
 0.14999998E+02  0.77400E+03
 0.15049999E+02  0.10180E+04
 0.15099998E+02  0.12620E+04
 0.15150000E+02  0.15110E+04
 0.15199999E+02  0.17550E+04
 0.15249998E+02  0.19790E+04
 0.15299999E+02  0.22080E+04
 0.15349998E+02  0.24430E+04
 0.15400000E+02  0.26750E+04
 0.15449999E+02  0.28990E+04
 0.15499998E+02  0.31080E+04
 0.15549999E+02  0.33280E+04
 0.15599998E+02  0.35590E+04
 0.15650000E+02  0.37850E+04
 0.15699999E+02  0.39860E+04
 0.15749998E+02  0.41940E+04
 0.15799999E+02  0.44270E+04
 0.15849998E+02  0.46510E+04
 0.15900000E+02  0.48630E+04
 0.15949999E+02  0.50610E+04
 0.15999998E+02  0.52870E+04
 0.16049999E+02  0.55330E+04
 0.16099998E+02  0.57610E+04
 0.16150000E+02  0.59750E+04
 0.16199999E+02  0.61890E+04
 0.16249998E+02  0.64410E+04
 0.16299999E+02  0.66960E+04
 0.16349998E+02  0.69190E+04
 0.16400000E+02  0.71310E+04
 0.16449999E+02  0.73650E+04
 0.16499998E+02  0.76320E+04
 0.16549999E+02  0.78800E+04
 0.16599998E+02  0.81100E+04
 0.16650000E+02  0.83460E+04
 0.16699999E+02  0.86060E+04
 0.16749998E+02  0.88710E+04
 0.16799999E+02  0.91230E+04
 0.16849998E+02  0.93920E+04
 0.16900000E+02  0.96560E+04
 0.16949999E+02  0.99220E+04
 0.16999998E+02  0.10195E+05
 0.17049999E+02  0.10474E+05
 0.17099998E+02  0.10764E+05
 0.17150000E+02  0.11049E+05
 0.17199999E+02  0.11337E+05
 0.17249998E+02  0.11627E+05
 0.17299999E+02  0.11923E+05
 0.17349998E+02  0.12227E+05
 0.17400000E+02  0.12528E+05
 0.17449999E+02  0.12821E+05
 0.17499998E+02  0.13122E+05
 0.17549999E+02  0.13437E+05
 0.17599998E+02  0.13747E+05
 0.17650000E+02  0.14052E+05
 0.17699999E+02  0.14348E+05
 0.17749998E+02  0.14653E+05
 0.17799999E+02  0.14971E+05
 0.17849998E+02  0.15283E+05
 0.17900000E+02  0.15589E+05
 0.17949999E+02  0.15892E+05
 0.17999998E+02  0.16204E+05
 0.18049999E+02  0.16514E+05
 0.18099998E+02  0.16827E+05
 0.18150000E+02  0.17146E+05
 0.18199999E+02  0.17458E+05
 0.18249998E+02  0.17763E+05
 0.18299999E+02  0.18066E+05
 0.18349998E+02  0.18391E+05
 0.18400000E+02  0.18716E+05
 0.18449999E+02  0.19029E+05
 0.18499998E+02  0.19325E+05
 0.18549999E+02  0.19620E+05
 0.18599998E+02  0.19942E+05
 0.18650000E+02  0.20258E+05
 0.18699999E+02  0.20548E+05
 0.18749998E+02  0.20820E+05
 0.18799999E+02  0.21099E+05
 0.18849998E+02  0.21377E+05
 0.18900000E+02  0.21646E+05
 0.18949999E+02  0.21907E+05
 0.18999998E+02  0.22134E+05
 0.19049999E+02  0.22356E+05
 0.19099998E+02  0.22591E+05
 0.19150000E+02  0.22817E+05
 0.19199999E+02  0.23009E+05
 0.19249998E+02  0.23184E+05
 0.19299999E+02  0.23363E+05
 0.19349998E+02  0.23540E+05
 0.19399998E+02  0.23694E+05
 0.19449999E+02  0.23811E+05
 0.19499998E+02  0.23926E+05
 0.19549999E+02  0.24034E+05
 0.19599998E+02  0.24119E+05
 0.19649998E+02  0.24188E+05
 0.19699999E+02  0.24235E+05
 0.19749998E+02  0.24266E+05
 0.19799999E+02  0.24287E+05
 0.19849998E+02  0.24293E+05
 0.19899998E+02  0.24278E+05
 0.19949999E+02  0.24245E+05
 0.19999998E+02  0.24203E+05
 0.20049999E+02  0.24146E+05
 0.20099998E+02  0.24071E+05
 0.20149998E+02  0.23981E+05
 0.20199999E+02  0.23879E+05
 0.20249998E+02  0.23770E+05
 0.20299999E+02  0.23655E+05
 0.20349998E+02  0.23521E+05
 0.20399998E+02  0.23371E+05
 0.20449999E+02  0.23204E+05
 0.20499998E+02  0.23040E+05
 0.20549999E+02  0.22877E+05
 0.20599998E+02  0.22694E+05
 0.20649998E+02  0.22499E+05
 0.20699999E+02  0.22298E+05
 0.20749998E+02  0.22096E+05
 0.20799999E+02  0.21879E+05
 0.20849998E+02  0.21646E+05
 0.20899998E+02  0.21415E+05
 0.20949999E+02  0.21173E+05
 0.20999998E+02  0.20915E+05
 0.21049999E+02  0.20652E+05
 0.21099998E+02  0.20383E+05
 0.21149998E+02  0.20106E+05
 0.21199999E+02  0.19825E+05
 0.21249998E+02  0.19532E+05
 0.21299999E+02  0.19233E+05
 0.21349998E+02  0.18926E+05
 0.21399998E+02  0.18608E+05
 0.21449999E+02  0.18283E+05
 0.21499998E+02  0.17947E+05
 0.21549999E+02  0.17616E+05
 0.21599998E+02  0.17273E+05
 0.21649998E+02  0.16910E+05
 0.21699999E+02  0.16558E+05
 0.21749998E+02  0.16211E+05
 0.21799999E+02  0.15851E+05
 0.21849998E+02  0.15476E+05
 0.21899998E+02  0.15109E+05
 0.21949999E+02  0.14754E+05
 0.21999998E+02  0.14389E+05
 0.22049999E+02  0.14015E+05
 0.22099998E+02  0.13632E+05
 0.22149998E+02  0.13259E+05
 0.22199999E+02  0.12897E+05
 0.22249998E+02  0.12523E+05
 0.22299999E+02  0.12143E+05
 0.22349998E+02  0.11763E+05
 0.22399998E+02  0.11392E+05
 0.22449999E+02  0.11026E+05
 0.22499998E+02  0.10654E+05
 0.22549999E+02  0.10282E+05
 0.22599998E+02  0.99120E+04
 0.22649998E+02  0.95560E+04
 0.22699999E+02  0.92160E+04
 0.22749998E+02  0.88740E+04
 0.22799999E+02  0.85220E+04
 0.22849998E+02  0.81810E+04
 0.22899998E+02  0.78680E+04
 0.22949999E+02  0.75590E+04
 0.22999998E+02  0.72390E+04
 0.23049999E+02  0.69180E+04
 0.23099998E+02  0.66140E+04
 0.23149998E+02  0.63240E+04
 0.23199999E+02  0.60320E+04
 0.23249998E+02  0.57410E+04
 0.23299999E+02  0.54470E+04
 0.23349998E+02  0.51680E+04
 0.23399998E+02  0.49060E+04
 0.23449999E+02  0.46400E+04
 0.23499998E+02  0.43730E+04
 0.23549999E+02  0.41100E+04
 0.23599998E+02  0.38620E+04
 0.23649998E+02  0.36290E+04
 0.23699999E+02  0.33910E+04
 0.23749998E+02  0.31390E+04
 0.23799999E+02  0.29040E+04
 0.23849998E+02  0.26910E+04
 0.23899998E+02  0.24730E+04
 0.23949999E+02  0.22440E+04
 0.23999998E+02  0.20150E+04
 0.24049999E+02  0.18040E+04
 0.24099998E+02  0.16080E+04
 0.24149998E+02  0.14200E+04
 0.24199999E+02  0.12120E+04
 0.24249998E+02  0.99100E+03
 0.24299999E+02  0.81000E+03
 0.24349998E+02  0.65800E+03
 0.24399998E+02  0.48100E+03
 0.24449999E+02  0.27700E+03
 0.24499998E+02  0.96000E+02
 0.24549999E+02 -0.52000E+02
 0.24599998E+02 -0.19000E+03
 0.24649998E+02 -0.34900E+03
 0.24699999E+02 -0.52600E+03
 0.24749998E+02 -0.68000E+03
 0.24799999E+02 -0.79700E+03
 0.24849998E+02 -0.91300E+03
 0.24899998E+02 -0.10540E+04
 0.24949999E+02 -0.11920E+04
 0.24999998E+02 -0.12960E+04
 0.25049999E+02 -0.13820E+04
 0.25099998E+02 -0.14770E+04
 0.25149998E+02 -0.15900E+04
 0.25199999E+02 -0.16950E+04
 0.25249998E+02 -0.17670E+04
 0.25299999E+02 -0.18370E+04
 0.25349998E+02 -0.19350E+04
 0.25399998E+02 -0.20320E+04
 0.25449999E+02 -0.21060E+04
 0.25499998E+02 -0.21580E+04
 0.25549999E+02 -0.22280E+04
 0.25599998E+02 -0.23190E+04
 0.25649998E+02 -0.23890E+04
 0.25699999E+02 -0.24360E+04
 0.25749998E+02 -0.24720E+04
 0.25799999E+02 -0.25260E+04
 0.25849998E+02 -0.25860E+04
 0.25899998E+02 -0.26290E+04
 0.25949999E+02 -0.26550E+04
 0.25999998E+02 -0.26750E+04
 0.26049997E+02 -0.27070E+04
 0.26099998E+02 -0.27330E+04
 0.26149998E+02 -0.27470E+04
 0.26199999E+02 -0.27630E+04
 0.26249998E+02 -0.27810E+04
 0.26299997E+02 -0.27950E+04
 0.26349998E+02 -0.27840E+04
 0.26399998E+02 -0.27700E+04
 0.26449999E+02 -0.27720E+04
 0.26499998E+02 -0.27610E+04
 0.26549997E+02 -0.27350E+04
 0.26599998E+02 -0.27030E+04
 0.26649998E+02 -0.26650E+04
 0.26699999E+02 -0.26150E+04
 0.26749998E+02 -0.25650E+04
 0.26799997E+02 -0.25140E+04
 0.26849998E+02 -0.24470E+04
 0.26899998E+02 -0.23740E+04
 0.26949999E+02 -0.23050E+04
 0.26999998E+02 -0.22390E+04
 0.27049997E+02 -0.21600E+04
 0.27099998E+02 -0.20650E+04
 0.27149998E+02 -0.19730E+04
 0.27199999E+02 -0.18920E+04
 0.27249998E+02 -0.18080E+04
 0.27299997E+02 -0.16970E+04
 0.27349998E+02 -0.15740E+04
 0.27399998E+02 -0.14750E+04
 0.27449999E+02 -0.13710E+04
 0.27499998E+02 -0.12330E+04
 0.27549997E+02 -0.10990E+04
 0.27599998E+02 -0.99700E+03
 0.27649998E+02 -0.87700E+03
 0.27699999E+02 -0.71300E+03
 0.27749998E+02 -0.56200E+03
 0.27799997E+02 -0.44700E+03
 0.27849998E+02 -0.33600E+03
 0.27899998E+02 -0.20200E+03
 0.27949999E+02 -0.43000E+02
 0.27999998E+02  0.10000E+03
 0.28049997E+02  0.21200E+03
 0.28099998E+02  0.32700E+03
 0.28149998E+02  0.47200E+03
 0.28199999E+02  0.62500E+03
 0.28249998E+02  0.75900E+03
 0.28299997E+02  0.88400E+03
 0.28349998E+02  0.10180E+04
 0.28399998E+02  0.11730E+04
 0.28449999E+02  0.13310E+04
 0.28499998E+02  0.14680E+04
 0.28549997E+02  0.15990E+04
 0.28599998E+02  0.17590E+04
 0.28649998E+02  0.19320E+04
 0.28699999E+02  0.20810E+04
 0.28749998E+02  0.22210E+04
 0.28799997E+02  0.23650E+04
 0.28849998E+02  0.25380E+04
 0.28899998E+02  0.27160E+04
 0.28949999E+02  0.28620E+04
 0.28999998E+02  0.29990E+04
 0.29049999E+02  0.31550E+04
 0.29099998E+02  0.33310E+04
 0.29149998E+02  0.35000E+04
 0.29199997E+02  0.36520E+04
 0.29249996E+02  0.37880E+04
 0.29299999E+02  0.39400E+04
 0.29349998E+02  0.41110E+04
 0.29399998E+02  0.42750E+04
 0.29449997E+02  0.44230E+04
 0.29499996E+02  0.45560E+04
 0.29549999E+02  0.47090E+04
 0.29599998E+02  0.48710E+04
 0.29649998E+02  0.50240E+04
 0.29699997E+02  0.51600E+04
 0.29749996E+02  0.52820E+04
 0.29799999E+02  0.54190E+04
 0.29849998E+02  0.55580E+04
 0.29899998E+02  0.56810E+04
 0.29949997E+02  0.57860E+04
 0.29999996E+02  0.58940E+04
 0.30049999E+02  0.60170E+04
 0.30099998E+02  0.61390E+04
 0.30149998E+02  0.62480E+04
 0.30199997E+02  0.63450E+04
 0.30249996E+02  0.64560E+04
 0.30299999E+02  0.65790E+04
 0.30349998E+02  0.66930E+04
 0.30399998E+02  0.67890E+04
 0.30449997E+02  0.68800E+04
 0.30499996E+02  0.69920E+04
 0.30549999E+02  0.71060E+04
 0.30599998E+02  0.71930E+04
 0.30649998E+02  0.72720E+04
 0.30699997E+02  0.73640E+04
 0.30749996E+02  0.74630E+04
 0.30799999E+02  0.75450E+04
 0.30849998E+02  0.76180E+04
 0.30899998E+02  0.76960E+04
 0.30949997E+02  0.77650E+04
 0.30999996E+02  0.78420E+04
 0.31049999E+02  0.79230E+04
 0.31099998E+02  0.79930E+04
 0.31149998E+02  0.80670E+04
 0.31199997E+02  0.81480E+04
 0.31249996E+02  0.82330E+04
 0.31299999E+02  0.83140E+04
 0.31349998E+02  0.84000E+04
 0.31399998E+02  0.84880E+04
 0.31449997E+02  0.85770E+04
 0.31499996E+02  0.86690E+04
 0.31549999E+02  0.87620E+04
 0.31599998E+02  0.88630E+04
 0.31649998E+02  0.89470E+04
 0.31699997E+02  0.90310E+04
 0.31749996E+02  0.91350E+04
 0.31799999E+02  0.92310E+04
 0.31849998E+02  0.93200E+04
 0.31899998E+02  0.94120E+04
 0.31949997E+02  0.95160E+04
 0.31999996E+02  0.96280E+04
 0.32049999E+02  0.97420E+04
 0.32099998E+02  0.98680E+04
 0.32149998E+02  0.99870E+04
 0.32199997E+02  0.10108E+05
 0.32249996E+02  0.10243E+05
 0.32299999E+02  0.10399E+05
 0.32349998E+02  0.10559E+05
 0.32399998E+02  0.10702E+05
 0.32449997E+02  0.10859E+05
 0.32499996E+02  0.11037E+05
 0.32549999E+02  0.11225E+05
 0.32599998E+02  0.11413E+05
 0.32649998E+02  0.11597E+05
 0.32699997E+02  0.11800E+05
 0.32749996E+02  0.12010E+05
 0.32799999E+02  0.12216E+05
 0.32849998E+02  0.12434E+05
 0.32899998E+02  0.12666E+05
 0.32949997E+02  0.12904E+05
 0.32999996E+02  0.13123E+05
 0.33049999E+02  0.13348E+05
 0.33099998E+02  0.13601E+05
 0.33149998E+02  0.13854E+05
 0.33199997E+02  0.14097E+05
 0.33249996E+02  0.14325E+05
 0.33299999E+02  0.14554E+05
 0.33349998E+02  0.14802E+05
 0.33399998E+02  0.15068E+05
 0.33449997E+02  0.15325E+05
 0.33499996E+02  0.15551E+05
 0.33549999E+02  0.15769E+05
 0.33599998E+02  0.16010E+05
 0.33649998E+02  0.16276E+05
 0.33699997E+02  0.16521E+05
 0.33749996E+02  0.16732E+05
 0.33799999E+02  0.16938E+05
 0.33849998E+02  0.17171E+05
 0.33899998E+02  0.17415E+05
 0.33949997E+02  0.17624E+05
 0.33999996E+02  0.17810E+05
 0.34049999E+02  0.18014E+05
 0.34099998E+02  0.18243E+05
 0.34149998E+02  0.18451E+05
 0.34199997E+02  0.18617E+05
 0.34249996E+02  0.18797E+05
 0.34299999E+02  0.19014E+05
 0.34349998E+02  0.19221E+05
 0.34399998E+02  0.19384E+05
 0.34449997E+02  0.19522E+05
 0.34499996E+02  0.19706E+05
 0.34549999E+02  0.19916E+05
 0.34599998E+02  0.20066E+05
 0.34649998E+02  0.20187E+05
 0.34699997E+02  0.20325E+05
 0.34749996E+02  0.20484E+05
 0.34799999E+02  0.20613E+05
 0.34849998E+02  0.20726E+05
 0.34899998E+02  0.20843E+05
 0.34949997E+02  0.20943E+05
 0.34999996E+02  0.21046E+05
 0.35049999E+02  0.21120E+05
 0.35099998E+02  0.21201E+05
 0.35149998E+02  0.21284E+05
 0.35199997E+02  0.21332E+05
 0.35249996E+02  0.21388E+05
 0.35299999E+02  0.21442E+05
 0.35349998E+02  0.21481E+05
 0.35399998E+02  0.21506E+05
 0.35449997E+02  0.21522E+05
 0.35499996E+02  0.21530E+05
 0.35549999E+02  0.21511E+05
 0.35599998E+02  0.21489E+05
 0.35649998E+02  0.21486E+05
 0.35699997E+02  0.21450E+05
 0.35749996E+02  0.21369E+05
 0.35799999E+02  0.21279E+05
 0.35849998E+02  0.21206E+05
 0.35899998E+02  0.21132E+05
 0.35949997E+02  0.20991E+05
 0.35999996E+02  0.20860E+05
 0.36049999E+02  0.20742E+05
 0.36099998E+02  0.20584E+05
 0.36149998E+02  0.20417E+05
 0.36199997E+02  0.20251E+05
 0.36249996E+02  0.20074E+05
 0.36299999E+02  0.19872E+05
 0.36349998E+02  0.19702E+05
 0.36399998E+02  0.19534E+05
 0.36449997E+02  0.19296E+05
 0.36499996E+02  0.19065E+05
 0.36549999E+02  0.18884E+05
 0.36599998E+02  0.18687E+05
 0.36649998E+02  0.18435E+05
 0.36699997E+02  0.18166E+05
 0.36749996E+02  0.17950E+05
 0.36799999E+02  0.17774E+05
 0.36849998E+02  0.17553E+05
 0.36899998E+02  0.17258E+05
 0.36949997E+02  0.16961E+05
 0.36999996E+02  0.16769E+05
 0.37049999E+02  0.16594E+05
 0.37099998E+02  0.16302E+05
 0.37149998E+02  0.15959E+05
 0.37199997E+02  0.15713E+05
 0.37249996E+02  0.15549E+05
 0.37299999E+02  0.15305E+05
 0.37349998E+02  0.14951E+05
 0.37399998E+02  0.14599E+05
 0.37449997E+02  0.14386E+05
 0.37499996E+02  0.14201E+05
 0.37549999E+02  0.13885E+05
 0.37599998E+02  0.13528E+05
 0.37649998E+02  0.13214E+05
 0.37699997E+02  0.12968E+05
 0.37749996E+02  0.12715E+05
 0.37799999E+02  0.12402E+05
 0.37849998E+02  0.12077E+05
 0.37899998E+02  0.11753E+05
 0.37949997E+02  0.11447E+05
 0.37999996E+02  0.11162E+05
 0.38049999E+02  0.10869E+05
 0.38099998E+02  0.10552E+05
 0.38149998E+02  0.10192E+05
 0.38199997E+02  0.98330E+04
 0.38249996E+02  0.95460E+04
 0.38299999E+02  0.92680E+04
 0.38349998E+02  0.89210E+04
 0.38399998E+02  0.85260E+04
 0.38449997E+02  0.81880E+04
 0.38499996E+02  0.79040E+04
 0.38549999E+02  0.75510E+04
 0.38599998E+02  0.72030E+04
 0.38649998E+02  0.68630E+04
 0.38699997E+02  0.64850E+04
 0.38749996E+02  0.61570E+04
 0.38799999E+02  0.58210E+04
 0.38849998E+02  0.54620E+04
 0.38899998E+02  0.51030E+04
 0.38949997E+02  0.47620E+04
 0.38999996E+02  0.44080E+04
 0.39049999E+02  0.40010E+04
 0.39099998E+02  0.36500E+04
 0.39149998E+02  0.33530E+04
 0.39199997E+02  0.30360E+04
 0.39249996E+02  0.25970E+04
 0.39299999E+02  0.21790E+04
 0.39349998E+02  0.18870E+04
 0.39399998E+02  0.15220E+04
 0.39449997E+02  0.11180E+04
 0.39499996E+02  0.72700E+03
 0.39549999E+02  0.36600E+03
 0.39599998E+02 -0.26000E+02
 0.39649998E+02 -0.45800E+03
 0.39699997E+02 -0.82700E+03
 0.39749996E+02 -0.11700E+04
 0.39799999E+02 -0.15770E+04
 0.39849998E+02 -0.20640E+04
 0.39899998E+02 -0.24810E+04
 0.39949997E+02 -0.27980E+04
 0.39999996E+02 -0.31660E+04
 0.40049999E+02 -0.36360E+04
 0.40099998E+02 -0.40840E+04
 0.40149998E+02 -0.44490E+04
 0.40199997E+02 -0.47720E+04
 0.40249996E+02 -0.51690E+04
 0.40299999E+02 -0.56510E+04
 0.40349998E+02 -0.60360E+04
 0.40399998E+02 -0.63440E+04
 0.40449997E+02 -0.66630E+04
 0.40499996E+02 -0.70710E+04
 0.40549999E+02 -0.74980E+04
 0.40599998E+02 -0.78230E+04
 0.40649998E+02 -0.80930E+04
 0.40699997E+02 -0.83830E+04
 0.40749996E+02 -0.87750E+04
 0.40799999E+02 -0.91470E+04
 0.40849998E+02 -0.94070E+04
 0.40899998E+02 -0.96280E+04
 0.40949997E+02 -0.99280E+04
 0.40999996E+02 -0.10296E+05
 0.41049999E+02 -0.10565E+05
 0.41099998E+02 -0.10758E+05
 0.41149998E+02 -0.10985E+05
 0.41199997E+02 -0.11284E+05
 0.41249996E+02 -0.11578E+05
 0.41299999E+02 -0.11763E+05
 0.41349998E+02 -0.11928E+05
 0.41399998E+02 -0.12159E+05
 0.41449997E+02 -0.12402E+05
 0.41499996E+02 -0.12616E+05
 0.41549999E+02 -0.12787E+05
 0.41599998E+02 -0.12922E+05
 0.41649998E+02 -0.13099E+05
 0.41699997E+02 -0.13311E+05
 0.41749996E+02 -0.13494E+05
 0.41799995E+02 -0.13585E+05
 0.41849998E+02 -0.13680E+05
 0.41899998E+02 -0.13879E+05
 0.41949997E+02 -0.14030E+05
 0.41999996E+02 -0.14135E+05
 0.42049995E+02 -0.14240E+05
 0.42099998E+02 -0.14344E+05
 0.42149998E+02 -0.14444E+05
 0.42199997E+02 -0.14541E+05
 0.42249996E+02 -0.14679E+05
 0.42299995E+02 -0.14762E+05
 0.42349998E+02 -0.14850E+05
 0.42399998E+02 -0.14982E+05
 0.42449997E+02 -0.15035E+05
 0.42499996E+02 -0.15064E+05
 0.42549995E+02 -0.15212E+05
 0.42599998E+02 -0.15335E+05
 0.42649998E+02 -0.15328E+05
 0.42699997E+02 -0.15409E+05
 0.42749996E+02 -0.15503E+05
 0.42799995E+02 -0.15559E+05
 0.42849998E+02 -0.15602E+05
 0.42899998E+02 -0.15616E+05
 0.42949997E+02 -0.15653E+05
 0.42999996E+02 -0.15675E+05
 0.43049995E+02 -0.15746E+05
 0.43099998E+02 -0.15764E+05
 0.43149998E+02 -0.15746E+05
 0.43199997E+02 -0.15751E+05
 0.43249996E+02 -0.15761E+05
 0.43299995E+02 -0.15806E+05
 0.43349998E+02 -0.15807E+05
 0.43399998E+02 -0.15845E+05
 0.43449997E+02 -0.15845E+05
 0.43499996E+02 -0.15825E+05
 0.43549995E+02 -0.15885E+05
 0.43599998E+02 -0.15946E+05
 0.43649998E+02 -0.15976E+05
 0.43699997E+02 -0.15969E+05
 0.43749996E+02 -0.16015E+05
 0.43799995E+02 -0.16111E+05
 0.43849998E+02 -0.16149E+05
 0.43899998E+02 -0.16150E+05
 0.43949997E+02 -0.16228E+05
 0.43999996E+02 -0.16353E+05
 0.44049995E+02 -0.16437E+05
 0.44099998E+02 -0.16506E+05
 0.44149998E+02 -0.16557E+05
 0.44199997E+02 -0.16633E+05
 0.44249996E+02 -0.16768E+05
 0.44299995E+02 -0.16898E+05
 0.44349998E+02 -0.16982E+05
 0.44399998E+02 -0.17032E+05
 0.44449997E+02 -0.17123E+05
 0.44499996E+02 -0.17243E+05
 0.44549995E+02 -0.17367E+05
 0.44599998E+02 -0.17441E+05
 0.44649998E+02 -0.17473E+05
 0.44699997E+02 -0.17571E+05
 0.44749996E+02 -0.17686E+05
 0.44799995E+02 -0.17782E+05
 0.44849998E+02 -0.17793E+05
 0.44899998E+02 -0.17796E+05
 0.44949997E+02 -0.17913E+05
 0.44999996E+02 -0.18037E+05
 0.45049995E+02 -0.18069E+05
 0.45099998E+02 -0.18029E+05
 0.45149998E+02 -0.18057E+05
 0.45199997E+02 -0.18167E+05
 0.45249996E+02 -0.18271E+05
 0.45299995E+02 -0.18264E+05
 0.45349998E+02 -0.18203E+05
 0.45399998E+02 -0.18271E+05
 0.45449997E+02 -0.18411E+05
 0.45499996E+02 -0.18442E+05
 0.45549995E+02 -0.18383E+05
 0.45599998E+02 -0.18393E+05
 0.45649998E+02 -0.18502E+05
 0.45699997E+02 -0.18590E+05
 0.45749996E+02 -0.18575E+05
 0.45799995E+02 -0.18535E+05
 0.45849998E+02 -0.18612E+05
 0.45899998E+02 -0.18751E+05
 0.45949997E+02 -0.18757E+05
 0.45999996E+02 -0.18720E+05
 0.46049995E+02 -0.18778E+05
 0.46099998E+02 -0.18891E+05
 0.46149998E+02 -0.18980E+05
 0.46199997E+02 -0.18991E+05
 0.46249996E+02 -0.18991E+05
 0.46299995E+02 -0.19062E+05
 0.46349998E+02 -0.19181E+05
 0.46399998E+02 -0.19245E+05
 0.46449997E+02 -0.19259E+05
 0.46499996E+02 -0.19283E+05
 0.46549995E+02 -0.19340E+05
 0.46599998E+02 -0.19423E+05
 0.46649998E+02 -0.19468E+05
 0.46699997E+02 -0.19491E+05
 0.46749996E+02 -0.19529E+05
 0.46799995E+02 -0.19580E+05
 0.46849998E+02 -0.19624E+05
 0.46899998E+02 -0.19654E+05
 0.46949997E+02 -0.19682E+05
 0.46999996E+02 -0.19726E+05
 0.47049995E+02 -0.19756E+05
 0.47099998E+02 -0.19774E+05
 0.47149998E+02 -0.19824E+05
 0.47199997E+02 -0.19843E+05
 0.47249996E+02 -0.19853E+05
 0.47299995E+02 -0.19922E+05
 0.47349998E+02 -0.19969E+05
 0.47399998E+02 -0.19979E+05
 0.47449997E+02 -0.19984E+05
 0.47499996E+02 -0.20053E+05
 0.47549995E+02 -0.20165E+05
 0.47599998E+02 -0.20158E+05
 0.47649998E+02 -0.20127E+05
 0.47699997E+02 -0.20176E+05
 0.47749996E+02 -0.20280E+05
 0.47799995E+02 -0.20336E+05
 0.47849998E+02 -0.20306E+05
 0.47899998E+02 -0.20314E+05
 0.47949997E+02 -0.20373E+05
 0.47999996E+02 -0.20429E+05
 0.48049995E+02 -0.20440E+05
 0.48099998E+02 -0.20442E+05
 0.48149998E+02 -0.20443E+05
 0.48199997E+02 -0.20465E+05
 0.48249996E+02 -0.20509E+05
 0.48299995E+02 -0.20534E+05
 0.48349998E+02 -0.20536E+05
 0.48399998E+02 -0.20494E+05
 0.48449997E+02 -0.20502E+05
 0.48499996E+02 -0.20549E+05
 0.48549995E+02 -0.20574E+05
 0.48599998E+02 -0.20562E+05
 0.48649998E+02 -0.20524E+05
 0.48699997E+02 -0.20510E+05
 0.48749996E+02 -0.20524E+05
 0.48799995E+02 -0.20553E+05
 0.48849998E+02 -0.20545E+05
 0.48899998E+02 -0.20501E+05
 0.48949997E+02 -0.20458E+05
 0.48999996E+02 -0.20457E+05
 0.49049995E+02 -0.20466E+05
 0.49099998E+02 -0.20449E+05
 0.49149998E+02 -0.20408E+05
 0.49199997E+02 -0.20327E+05
 0.49249996E+02 -0.20300E+05
 0.49299995E+02 -0.20311E+05
 0.49349998E+02 -0.20266E+05
 0.49399998E+02 -0.20179E+05
 0.49449997E+02 -0.20103E+05
 0.49499996E+02 -0.20062E+05
 0.49549995E+02 -0.20020E+05
 0.49599998E+02 -0.19947E+05
 0.49649998E+02 -0.19840E+05
 0.49699997E+02 -0.19733E+05
 0.49749996E+02 -0.19637E+05
 0.49799995E+02 -0.19558E+05
 0.49849998E+02 -0.19452E+05
 0.49899998E+02 -0.19289E+05
 0.49949997E+02 -0.19131E+05
 0.49999996E+02 -0.18993E+05
 0.50049995E+02 -0.18857E+05
 0.50099998E+02 -0.18685E+05
 0.50149998E+02 -0.18491E+05
 0.50199997E+02 -0.18295E+05
 0.50249996E+02 -0.18092E+05
 0.50299995E+02 -0.17895E+05
 0.50349998E+02 -0.17672E+05
 0.50399998E+02 -0.17422E+05
 0.50449997E+02 -0.17167E+05
 0.50499996E+02 -0.16927E+05
 0.50549995E+02 -0.16695E+05
 0.50599998E+02 -0.16415E+05
 0.50649998E+02 -0.16118E+05
 0.50699997E+02 -0.15872E+05
 0.50749996E+02 -0.15609E+05
 0.50799995E+02 -0.15313E+05
 0.50849998E+02 -0.15018E+05
 0.50899998E+02 -0.14725E+05
 0.50949997E+02 -0.14460E+05
 0.50999996E+02 -0.14185E+05
 0.51049995E+02 -0.13846E+05
 0.51099998E+02 -0.13513E+05
 0.51149998E+02 -0.13268E+05
 0.51199997E+02 -0.13010E+05
 0.51249996E+02 -0.12677E+05
 0.51299995E+02 -0.12339E+05
 0.51349998E+02 -0.12075E+05
 0.51399998E+02 -0.11835E+05
 0.51449997E+02 -0.11498E+05
 0.51499996E+02 -0.11183E+05
 0.51549995E+02 -0.10939E+05
 0.51599998E+02 -0.10664E+05
 0.51649998E+02 -0.10347E+05
 0.51699997E+02 -0.10038E+05
 0.51749996E+02 -0.97570E+04
 0.51799995E+02 -0.94810E+04
 0.51849998E+02 -0.92250E+04
 0.51899998E+02 -0.89460E+04
 0.51949997E+02 -0.86580E+04
 0.51999996E+02 -0.83650E+04
 0.52049995E+02 -0.80900E+04
 0.52099998E+02 -0.78630E+04
 0.52149998E+02 -0.75830E+04
 0.52199997E+02 -0.72850E+04
 0.52249996E+02 -0.70240E+04
 0.52299995E+02 -0.67650E+04
 0.52349998E+02 -0.65020E+04
 0.52399998E+02 -0.62340E+04
 0.52449997E+02 -0.59430E+04
 0.52499996E+02 -0.56890E+04
 0.52549995E+02 -0.54590E+04
 0.52599998E+02 -0.51770E+04
 0.52649998E+02 -0.49040E+04
 0.52699997E+02 -0.46460E+04
 0.52749996E+02 -0.43800E+04
 0.52799995E+02 -0.41250E+04
 0.52849998E+02 -0.39040E+04
 0.52899998E+02 -0.36550E+04
 0.52949997E+02 -0.33960E+04
 0.52999996E+02 -0.31700E+04
 0.53049995E+02 -0.29180E+04
 0.53099998E+02 -0.27250E+04
 0.53149998E+02 -0.25460E+04
 0.53199997E+02 -0.23180E+04
 0.53249996E+02 -0.20800E+04
 0.53299995E+02 -0.19090E+04
 0.53349998E+02 -0.18130E+04
 0.53399998E+02 -0.16340E+04
 0.53449997E+02 -0.14260E+04
 0.53499996E+02 -0.12760E+04
 0.53549995E+02 -0.11800E+04
 0.53599998E+02 -0.10730E+04
 0.53649998E+02 -0.94000E+03
 0.53699997E+02 -0.82700E+03
 0.53749996E+02 -0.69500E+03
 0.53799995E+02 -0.60800E+03
 0.53849998E+02 -0.53800E+03
 0.53899998E+02 -0.46100E+03
 0.53949997E+02 -0.37400E+03
 0.53999996E+02 -0.27300E+03
 0.54049995E+02 -0.22200E+03
 0.54099998E+02 -0.17000E+03
 0.54149998E+02 -0.12600E+03
 0.54199997E+02 -0.76000E+02
 0.54249996E+02 -0.20000E+02
 0.54299995E+02  0.17000E+02
 0.54349998E+02  0.38000E+02
 0.54399998E+02  0.25000E+02
 0.54449997E+02  0.26000E+02
 0.54499996E+02  0.10000E+02
 0.54549995E+02  0.90000E+01
 0.54599998E+02  0.19000E+02
 0.54649998E+02 -0.57000E+02
 0.54699997E+02 -0.14900E+03
 0.54749996E+02 -0.20500E+03
 0.54799995E+02 -0.22900E+03
 0.54849995E+02 -0.26900E+03
 0.54899998E+02 -0.38300E+03
 0.54949997E+02 -0.54200E+03
 0.54999996E+02 -0.64600E+03
 0.55049995E+02 -0.72800E+03
 0.55099995E+02 -0.83900E+03
 0.55149998E+02 -0.98500E+03
 0.55199997E+02 -0.11550E+04
 0.55249996E+02 -0.12860E+04
 0.55299995E+02 -0.14490E+04
 0.55349995E+02 -0.16220E+04
 0.55399998E+02 -0.18150E+04
 0.55449997E+02 -0.20080E+04
 0.55499996E+02 -0.21710E+04
 0.55549995E+02 -0.23900E+04
 0.55599995E+02 -0.26300E+04
 0.55649998E+02 -0.28610E+04
 0.55699997E+02 -0.30500E+04
 0.55749996E+02 -0.32510E+04
 0.55799995E+02 -0.34990E+04
 0.55849995E+02 -0.37680E+04
 0.55899998E+02 -0.40120E+04
 0.55949997E+02 -0.42160E+04
 0.55999996E+02 -0.44390E+04
 0.56049995E+02 -0.46970E+04
 0.56099995E+02 -0.49760E+04
 0.56149998E+02 -0.52110E+04
 0.56199997E+02 -0.54160E+04
 0.56249996E+02 -0.56390E+04
 0.56299995E+02 -0.59080E+04
 0.56349995E+02 -0.61920E+04
 0.56399998E+02 -0.64100E+04
 0.56449997E+02 -0.65720E+04
 0.56499996E+02 -0.67720E+04
 0.56549995E+02 -0.70780E+04
 0.56599995E+02 -0.73300E+04
 0.56649998E+02 -0.74850E+04
 0.56699997E+02 -0.76470E+04
 0.56749996E+02 -0.78840E+04
 0.56799995E+02 -0.81620E+04
 0.56849995E+02 -0.83680E+04
 0.56899998E+02 -0.85260E+04
 0.56949997E+02 -0.87070E+04
 0.56999996E+02 -0.89490E+04
 0.57049995E+02 -0.92080E+04
 0.57099995E+02 -0.94180E+04
 0.57149998E+02 -0.95740E+04
 0.57199997E+02 -0.97460E+04
 0.57249996E+02 -0.99990E+04
 0.57299995E+02 -0.10254E+05
 0.57349995E+02 -0.10421E+05
 0.57399998E+02 -0.10545E+05
 0.57449997E+02 -0.10747E+05
 0.57499996E+02 -0.11002E+05
 0.57549995E+02 -0.11188E+05
 0.57599995E+02 -0.11335E+05
 0.57649998E+02 -0.11493E+05
 0.57699997E+02 -0.11688E+05
 0.57749996E+02 -0.11878E+05
 0.57799995E+02 -0.11999E+05
 0.57849995E+02 -0.12132E+05
 0.57899998E+02 -0.12267E+05
 0.57949997E+02 -0.12412E+05
 0.57999996E+02 -0.12548E+05
 0.58049995E+02 -0.12630E+05
 0.58099995E+02 -0.12735E+05
 0.58149998E+02 -0.12816E+05
 0.58199997E+02 -0.12914E+05
 0.58249996E+02 -0.13002E+05
 0.58299995E+02 -0.13043E+05
 0.58349995E+02 -0.13110E+05
 0.58399998E+02 -0.13131E+05
 0.58449997E+02 -0.13178E+05
 0.58499996E+02 -0.13248E+05
 0.58549995E+02 -0.13247E+05
 0.58599995E+02 -0.13223E+05
 0.58649998E+02 -0.13220E+05
 0.58699997E+02 -0.13249E+05
 0.58749996E+02 -0.13249E+05
 0.58799995E+02 -0.13182E+05
 0.58849995E+02 -0.13120E+05
 0.58899998E+02 -0.13082E+05
 0.58949997E+02 -0.13070E+05
 0.58999996E+02 -0.13003E+05
 0.59049995E+02 -0.12895E+05
 0.59099995E+02 -0.12867E+05
 0.59149998E+02 -0.12776E+05
 0.59199997E+02 -0.12637E+05
 0.59249996E+02 -0.12570E+05
 0.59299995E+02 -0.12507E+05
 0.59349995E+02 -0.12392E+05
 0.59399998E+02 -0.12273E+05
 0.59449997E+02 -0.12156E+05
 0.59499996E+02 -0.11998E+05
 0.59549995E+02 -0.11877E+05
 0.59599995E+02 -0.11800E+05
 0.59649998E+02 -0.11701E+05
 0.59699997E+02 -0.11520E+05
 0.59749996E+02 -0.11330E+05
 0.59799995E+02 -0.11203E+05
 0.59849995E+02 -0.11115E+05
 0.59899998E+02 -0.11008E+05
 0.59949997E+02 -0.10815E+05
 0.59999996E+02 -0.10611E+05
 0.60049995E+02 -0.10463E+05
 0.60099995E+02 -0.10378E+05
 0.60149998E+02 -0.10246E+05
 0.60199997E+02 -0.10025E+05
 0.60249996E+02 -0.98190E+04
 0.60299995E+02 -0.96980E+04
 0.60349995E+02 -0.95960E+04
 0.60399998E+02 -0.94180E+04
 0.60449997E+02 -0.92010E+04
 0.60499996E+02 -0.89980E+04
 0.60549995E+02 -0.88860E+04
 0.60599995E+02 -0.87870E+04
 0.60649998E+02 -0.85820E+04
 0.60699997E+02 -0.83630E+04
 0.60749996E+02 -0.82300E+04
 0.60799995E+02 -0.81040E+04
 0.60849995E+02 -0.79320E+04
 0.60899998E+02 -0.77650E+04
 0.60949997E+02 -0.75920E+04
 0.60999996E+02 -0.74180E+04
 0.61049995E+02 -0.72490E+04
 0.61099998E+02 -0.70730E+04
 0.61149994E+02 -0.69030E+04
 0.61199997E+02 -0.67390E+04
 0.61249992E+02 -0.65480E+04
 0.61299995E+02 -0.63160E+04
 0.61349998E+02 -0.61030E+04
 0.61399994E+02 -0.59580E+04
 0.61449997E+02 -0.57990E+04
 0.61499992E+02 -0.55460E+04
 0.61549995E+02 -0.53110E+04
 0.61599998E+02 -0.51200E+04
 0.61649994E+02 -0.49380E+04
 0.61699997E+02 -0.47320E+04
 0.61749992E+02 -0.45010E+04
 0.61799995E+02 -0.43330E+04
 0.61849998E+02 -0.41230E+04
 0.61899994E+02 -0.38450E+04
 0.61949997E+02 -0.36270E+04
 0.61999992E+02 -0.35100E+04
 0.62049995E+02 -0.33690E+04
 0.62099998E+02 -0.30920E+04
 0.62149994E+02 -0.28020E+04
 0.62199997E+02 -0.26290E+04
 0.62249992E+02 -0.25830E+04
 0.62299995E+02 -0.24430E+04
 0.62349998E+02 -0.21430E+04
 0.62399994E+02 -0.18760E+04
 0.62449997E+02 -0.17870E+04
 0.62499992E+02 -0.17850E+04
 0.62549995E+02 -0.15990E+04
 0.62599998E+02 -0.13000E+04
 0.62649994E+02 -0.11300E+04
 0.62699997E+02 -0.11180E+04
 0.62749992E+02 -0.10650E+04
 0.62799995E+02 -0.83300E+03
 0.62849998E+02 -0.55600E+03
 0.62899994E+02 -0.45900E+03
 0.62949997E+02 -0.47300E+03
 0.62999992E+02 -0.31600E+03
 0.63049995E+02 -0.29000E+02
 0.63099998E+02  0.16500E+03
 0.63149994E+02  0.21200E+03
 0.63199997E+02  0.29400E+03
 0.63249992E+02  0.52900E+03
 0.63299995E+02  0.79700E+03
 0.63349998E+02  0.94200E+03
 0.63399994E+02  0.99500E+03
 0.63449997E+02  0.11570E+04
 0.63499992E+02  0.14270E+04
 0.63549995E+02  0.16200E+04
 0.63599998E+02  0.16940E+04
 0.63649994E+02  0.18070E+04
 0.63699997E+02  0.20370E+04
 0.63749992E+02  0.22310E+04
 0.63799995E+02  0.23480E+04
 0.63849998E+02  0.24520E+04
 0.63899994E+02  0.25520E+04
 0.63949997E+02  0.27310E+04
 0.63999992E+02  0.29450E+04
 0.64049995E+02  0.30410E+04
 0.64099998E+02  0.30690E+04
 0.64149994E+02  0.31890E+04
 0.64199997E+02  0.33860E+04
 0.64249992E+02  0.35190E+04
 0.64299995E+02  0.35890E+04
 0.64349998E+02  0.36690E+04
 0.64399994E+02  0.37670E+04
 0.64449997E+02  0.38850E+04
 0.64499992E+02  0.40200E+04
 0.64549995E+02  0.41020E+04
 0.64599998E+02  0.41430E+04
 0.64649994E+02  0.42250E+04
 0.64699997E+02  0.43270E+04
 0.64749992E+02  0.44060E+04
 0.64799995E+02  0.44410E+04
 0.64849998E+02  0.44710E+04
 0.64899994E+02  0.45340E+04
 0.64949997E+02  0.46080E+04
 0.64999992E+02  0.46320E+04
 0.65049995E+02  0.46180E+04
 0.65099998E+02  0.46600E+04
 0.65149994E+02  0.47200E+04
 0.65199997E+02  0.47280E+04
 0.65249992E+02  0.47010E+04
 0.65299995E+02  0.47170E+04
 0.65349998E+02  0.47720E+04
 0.65399994E+02  0.47740E+04
 0.65449997E+02  0.47730E+04
 0.65499992E+02  0.47940E+04
 0.65549995E+02  0.47990E+04
 0.65599998E+02  0.48280E+04
 0.65649994E+02  0.48750E+04
 0.65699997E+02  0.48900E+04
 0.65749992E+02  0.49000E+04
 0.65799995E+02  0.49250E+04
 0.65849998E+02  0.49790E+04
 0.65899994E+02  0.50310E+04
 0.65949997E+02  0.50400E+04
 0.65999992E+02  0.50580E+04
 0.66049995E+02  0.50810E+04
 0.66099998E+02  0.51170E+04
 0.66149994E+02  0.51430E+04
 0.66199997E+02  0.51760E+04
 0.66249992E+02  0.52000E+04
 0.66299995E+02  0.51800E+04
 0.66349998E+02  0.52050E+04
 0.66399994E+02  0.52530E+04
 0.66449997E+02  0.52860E+04
 0.66499992E+02  0.52790E+04
 0.66549995E+02  0.52860E+04
 0.66599998E+02  0.53290E+04
 0.66649994E+02  0.53550E+04
 0.66699997E+02  0.53820E+04
 0.66749992E+02  0.54040E+04
 0.66799995E+02  0.54490E+04
 0.66849998E+02  0.54880E+04
 0.66899994E+02  0.55120E+04
 0.66949997E+02  0.55560E+04
 0.66999992E+02  0.56160E+04
 0.67049995E+02  0.56560E+04
 0.67099998E+02  0.57000E+04
 0.67149994E+02  0.57820E+04
 0.67199997E+02  0.58470E+04
 0.67249992E+02  0.59000E+04
 0.67299995E+02  0.59630E+04
 0.67349998E+02  0.60670E+04
 0.67399994E+02  0.61830E+04
 0.67449997E+02  0.62680E+04
 0.67499992E+02  0.63390E+04
 0.67549995E+02  0.64400E+04
 0.67599998E+02  0.66020E+04
 0.67649994E+02  0.67400E+04
 0.67699997E+02  0.68490E+04
 0.67749992E+02  0.69790E+04
 0.67799995E+02  0.71350E+04
 0.67849998E+02  0.72970E+04
 0.67899994E+02  0.74470E+04
 0.67949997E+02  0.76050E+04
 0.67999992E+02  0.77530E+04
 0.68049995E+02  0.79300E+04
 0.68099998E+02  0.81120E+04
 0.68149994E+02  0.82640E+04
 0.68199997E+02  0.84310E+04
 0.68249992E+02  0.86130E+04
 0.68299995E+02  0.88140E+04
 0.68349998E+02  0.89900E+04
 0.68399994E+02  0.91370E+04
 0.68449997E+02  0.93100E+04
 0.68499992E+02  0.95410E+04
 0.68549995E+02  0.97510E+04
 0.68599998E+02  0.98890E+04
 0.68649994E+02  0.10062E+05
 0.68699997E+02  0.10290E+05
 0.68749992E+02  0.10511E+05
 0.68799995E+02  0.10664E+05
 0.68849998E+02  0.10835E+05
 0.68899994E+02  0.11075E+05
 0.68949997E+02  0.11270E+05
 0.68999992E+02  0.11432E+05
 0.69049995E+02  0.11616E+05
 0.69099998E+02  0.11811E+05
 0.69149994E+02  0.12002E+05
 0.69199997E+02  0.12174E+05
 0.69249992E+02  0.12332E+05
 0.69299995E+02  0.12492E+05
 0.69349998E+02  0.12657E+05
 0.69399994E+02  0.12811E+05
 0.69449997E+02  0.12946E+05
 0.69499992E+02  0.13068E+05
 0.69549995E+02  0.13189E+05
 0.69599998E+02  0.13312E+05
 0.69649994E+02  0.13419E+05
 0.69699997E+02  0.13502E+05
 0.69749992E+02  0.13557E+05
 0.69799995E+02  0.13622E+05
 0.69849998E+02  0.13725E+05
 0.69899994E+02  0.13772E+05
 0.69949997E+02  0.13774E+05
 0.69999992E+02  0.13796E+05
 0.70049995E+02  0.13822E+05
 0.70099998E+02  0.13868E+05
 0.70149994E+02  0.13885E+05
 0.70199997E+02  0.13845E+05
 0.70249992E+02  0.13814E+05
 0.70299995E+02  0.13832E+05
 0.70349998E+02  0.13844E+05
 0.70399994E+02  0.13791E+05
 0.70449997E+02  0.13725E+05
 0.70499992E+02  0.13669E+05
 0.70549995E+02  0.13618E+05
 0.70599998E+02  0.13569E+05
 0.70649994E+02  0.13492E+05
 0.70699997E+02  0.13361E+05
 0.70749992E+02  0.13244E+05
 0.70799995E+02  0.13160E+05
 0.70849998E+02  0.13050E+05
 0.70899994E+02  0.12893E+05
 0.70949997E+02  0.12710E+05
 0.70999992E+02  0.12558E+05
 0.71049995E+02  0.12395E+05
 0.71099998E+02  0.12213E+05
 0.71149994E+02  0.12008E+05
 0.71199997E+02  0.11792E+05
 0.71249992E+02  0.11578E+05
 0.71299995E+02  0.11351E+05
 0.71349998E+02  0.11137E+05
 0.71399994E+02  0.10895E+05
 0.71449997E+02  0.10649E+05
 0.71499992E+02  0.10396E+05
 0.71549995E+02  0.10138E+05
 0.71599998E+02  0.98990E+04
 0.71649994E+02  0.96530E+04
 0.71699997E+02  0.94040E+04
 0.71749992E+02  0.91360E+04
 0.71799995E+02  0.88770E+04
 0.71849998E+02  0.86230E+04
 0.71899994E+02  0.83740E+04
 0.71949997E+02  0.81370E+04
 0.71999992E+02  0.78890E+04
 0.72049995E+02  0.76370E+04
 0.72099998E+02  0.73820E+04
 0.72149994E+02  0.71660E+04
 0.72199997E+02  0.69560E+04
 0.72249992E+02  0.67150E+04
 0.72299995E+02  0.64810E+04
 0.72349998E+02  0.62670E+04
 0.72399994E+02  0.60780E+04
 0.72449997E+02  0.58860E+04
 0.72499992E+02  0.56720E+04
 0.72549995E+02  0.54880E+04
 0.72599998E+02  0.53290E+04
 0.72649994E+02  0.51440E+04
 0.72699997E+02  0.49640E+04
 0.72749992E+02  0.48270E+04
 0.72799995E+02  0.46860E+04
 0.72849998E+02  0.45260E+04
 0.72899994E+02  0.43720E+04
 0.72949997E+02  0.42280E+04
 0.72999992E+02  0.41080E+04
 0.73049995E+02  0.39880E+04
 0.73099998E+02  0.38510E+04
 0.73149994E+02  0.37170E+04
 0.73199997E+02  0.36160E+04
 0.73249992E+02  0.34970E+04
 0.73299995E+02  0.33760E+04
 0.73349998E+02  0.33140E+04
 0.73399994E+02  0.32230E+04
 0.73449997E+02  0.31020E+04
 0.73499992E+02  0.30140E+04
 0.73549995E+02  0.29950E+04
 0.73599998E+02  0.29500E+04
 0.73649994E+02  0.28120E+04
 0.73699997E+02  0.27400E+04
 0.73749992E+02  0.27720E+04
 0.73799995E+02  0.27760E+04
 0.73849998E+02  0.27040E+04
 0.73899994E+02  0.26420E+04
 0.73949997E+02  0.26410E+04
 0.73999992E+02  0.26890E+04
 0.74049995E+02  0.26960E+04
 0.74099998E+02  0.26470E+04
 0.74149994E+02  0.26390E+04
 0.74199997E+02  0.26800E+04
 0.74249992E+02  0.27230E+04
 0.74299995E+02  0.27400E+04
 0.74349998E+02  0.27400E+04
 0.74399994E+02  0.27540E+04
 0.74449997E+02  0.28120E+04
 0.74499992E+02  0.28840E+04
 0.74549995E+02  0.29240E+04
 0.74599998E+02  0.29340E+04
 0.74649994E+02  0.29880E+04
 0.74699997E+02  0.30950E+04
 0.74749992E+02  0.31830E+04
 0.74799995E+02  0.32510E+04
 0.74849998E+02  0.33090E+04
 0.74899994E+02  0.34170E+04
 0.74949997E+02  0.35630E+04
 0.74999992E+02  0.36730E+04
 0.75049995E+02  0.37590E+04
 0.75099998E+02  0.38820E+04
 0.75149994E+02  0.40500E+04
 0.75199997E+02  0.42070E+04
 0.75249992E+02  0.43330E+04
 0.75299995E+02  0.44590E+04
 0.75349998E+02  0.46360E+04
 0.75399994E+02  0.48310E+04
 0.75449997E+02  0.50030E+04
 0.75499992E+02  0.51600E+04
 0.75549995E+02  0.53480E+04
 0.75599998E+02  0.55700E+04
 0.75649994E+02  0.57600E+04
 0.75699997E+02  0.59600E+04
 0.75749992E+02  0.61930E+04
 0.75799995E+02  0.64240E+04
 0.75849998E+02  0.66430E+04
 0.75899994E+02  0.68670E+04
 0.75949997E+02  0.71110E+04
 0.75999992E+02  0.73570E+04
 0.76049995E+02  0.76160E+04
 0.76099998E+02  0.78900E+04
 0.76149994E+02  0.81350E+04
 0.76199997E+02  0.83670E+04
 0.76249992E+02  0.86500E+04
 0.76299995E+02  0.89600E+04
 0.76349998E+02  0.92340E+04
 0.76399994E+02  0.94520E+04
 0.76449997E+02  0.96870E+04
 0.76499992E+02  0.99910E+04
 0.76549995E+02  0.10296E+05
 0.76599998E+02  0.10550E+05
 0.76649994E+02  0.10765E+05
 0.76699997E+02  0.11000E+05
 0.76749992E+02  0.11290E+05
 0.76799995E+02  0.11578E+05
 0.76849998E+02  0.11813E+05
 0.76899994E+02  0.12025E+05
 0.76949997E+02  0.12274E+05
 0.76999992E+02  0.12545E+05
 0.77049995E+02  0.12813E+05
 0.77099998E+02  0.13043E+05
 0.77149994E+02  0.13253E+05
 0.77199997E+02  0.13506E+05
 0.77249992E+02  0.13778E+05
 0.77299995E+02  0.14027E+05
 0.77349998E+02  0.14232E+05
 0.77399994E+02  0.14437E+05
 0.77449997E+02  0.14700E+05
 0.77499992E+02  0.14959E+05
 0.77549995E+02  0.15168E+05
 0.77599998E+02  0.15363E+05
 0.77649994E+02  0.15575E+05
 0.77699997E+02  0.15799E+05
 0.77749992E+02  0.16010E+05
 0.77799995E+02  0.16201E+05
 0.77849998E+02  0.16388E+05
 0.77899994E+02  0.16570E+05
 0.77949997E+02  0.16756E+05
 0.77999992E+02  0.16934E+05
 0.78049995E+02  0.17099E+05
 0.78099998E+02  0.17248E+05
 0.78149994E+02  0.17389E+05
 0.78199997E+02  0.17546E+05
 0.78249992E+02  0.17681E+05
 0.78299995E+02  0.17795E+05
 0.78349998E+02  0.17894E+05
 0.78399994E+02  0.17998E+05
 0.78449997E+02  0.18117E+05
 0.78499992E+02  0.18196E+05
 0.78549995E+02  0.18256E+05
 0.78599998E+02  0.18348E+05
 0.78649994E+02  0.18432E+05
 0.78699997E+02  0.18470E+05
 0.78749992E+02  0.18523E+05
 0.78799995E+02  0.18581E+05
 0.78849998E+02  0.18624E+05
 0.78899994E+02  0.18681E+05
 0.78949997E+02  0.18726E+05
 0.78999992E+02  0.18768E+05
 0.79049995E+02  0.18778E+05
 0.79099998E+02  0.18802E+05
 0.79149994E+02  0.18889E+05
 0.79199997E+02  0.18960E+05
 0.79249992E+02  0.18967E+05
 0.79299995E+02  0.18948E+05
 0.79349998E+02  0.19028E+05
 0.79399994E+02  0.19143E+05
 0.79449997E+02  0.19171E+05
 0.79499992E+02  0.19145E+05
 0.79549995E+02  0.19162E+05
 0.79599998E+02  0.19256E+05
 0.79649994E+02  0.19310E+05
 0.79699997E+02  0.19289E+05
 0.79749992E+02  0.19297E+05
 0.79799995E+02  0.19345E+05
 0.79849998E+02  0.19356E+05
 0.79899994E+02  0.19351E+05
 0.79949997E+02  0.19326E+05
 0.79999992E+02  0.19287E+05
 0.80049995E+02  0.19304E+05
 0.80099998E+02  0.19296E+05
 0.80149994E+02  0.19232E+05
 0.80199997E+02  0.19175E+05
 0.80249992E+02  0.19133E+05
 0.80299995E+02  0.19098E+05
 0.80349998E+02  0.19038E+05
 0.80399994E+02  0.18953E+05
 0.80449997E+02  0.18873E+05
 0.80499992E+02  0.18801E+05
 0.80549995E+02  0.18719E+05
 0.80599998E+02  0.18614E+05
 0.80649994E+02  0.18497E+05
 0.80699997E+02  0.18396E+05
 0.80749992E+02  0.18300E+05
 0.80799995E+02  0.18180E+05
 0.80849998E+02  0.18027E+05
 0.80899994E+02  0.17871E+05
 0.80949997E+02  0.17744E+05
 0.80999992E+02  0.17617E+05
 0.81049995E+02  0.17458E+05
 0.81099998E+02  0.17247E+05
 0.81149994E+02  0.17062E+05
 0.81199997E+02  0.16920E+05
 0.81249992E+02  0.16736E+05
 0.81299995E+02  0.16514E+05
 0.81349998E+02  0.16282E+05
 0.81399994E+02  0.16094E+05
 0.81449997E+02  0.15930E+05
 0.81499992E+02  0.15705E+05
 0.81549995E+02  0.15429E+05
 0.81599998E+02  0.15205E+05
 0.81649994E+02  0.15064E+05
 0.81699997E+02  0.14860E+05
 0.81749992E+02  0.14572E+05
 0.81799995E+02  0.14319E+05
 0.81849998E+02  0.14132E+05
 0.81899994E+02  0.13953E+05
 0.81949997E+02  0.13697E+05
 0.81999992E+02  0.13418E+05
 0.82049995E+02  0.13172E+05
 0.82099998E+02  0.12962E+05
 0.82149994E+02  0.12750E+05
 0.82199997E+02  0.12495E+05
 0.82249992E+02  0.12226E+05
 0.82299995E+02  0.11980E+05
 0.82349998E+02  0.11772E+05
 0.82399994E+02  0.11542E+05
 0.82449997E+02  0.11300E+05
 0.82499992E+02  0.11070E+05
 0.82549995E+02  0.10825E+05
 0.82599998E+02  0.10603E+05
 0.82649994E+02  0.10399E+05
 0.82699997E+02  0.10171E+05
 0.82749992E+02  0.99320E+04
 0.82799995E+02  0.97230E+04
 0.82849998E+02  0.95140E+04
 0.82899994E+02  0.92940E+04
 0.82949997E+02  0.90880E+04
 0.82999992E+02  0.88740E+04
 0.83049995E+02  0.86600E+04
 0.83099998E+02  0.84490E+04
 0.83149994E+02  0.82500E+04
 0.83199997E+02  0.80570E+04
 0.83249992E+02  0.78520E+04
 0.83299995E+02  0.76450E+04
 0.83349998E+02  0.74200E+04
 0.83399994E+02  0.72370E+04
 0.83449997E+02  0.70640E+04
 0.83499992E+02  0.68490E+04
 0.83549995E+02  0.66250E+04
 0.83599998E+02  0.63970E+04
 0.83649994E+02  0.62100E+04
 0.83699997E+02  0.60330E+04
 0.83749992E+02  0.58110E+04
 0.83799995E+02  0.55580E+04
 0.83849998E+02  0.53220E+04
 0.83899994E+02  0.50980E+04
 0.83949997E+02  0.49090E+04
 0.83999992E+02  0.47190E+04
 0.84049995E+02  0.44470E+04
 0.84099998E+02  0.41640E+04
 0.84149994E+02  0.39380E+04
 0.84199997E+02  0.37640E+04
 0.84249992E+02  0.35480E+04
 0.84299995E+02  0.32780E+04
 0.84349998E+02  0.29960E+04
 0.84399994E+02  0.27750E+04
 0.84449997E+02  0.25980E+04
 0.84499992E+02  0.23540E+04
 0.84549995E+02  0.20830E+04
 0.84599998E+02  0.18090E+04
 0.84649994E+02  0.15880E+04
 0.84699997E+02  0.13980E+04
 0.84749992E+02  0.11670E+04
 0.84799995E+02  0.89800E+03
 0.84849998E+02  0.62600E+03
 0.84899994E+02  0.41800E+03
 0.84949997E+02  0.22100E+03
 0.84999992E+02  0.50000E+01
 0.85049995E+02 -0.26300E+03
 0.85099998E+02 -0.51800E+03
 0.85149994E+02 -0.68100E+03
 0.85199997E+02 -0.84400E+03
 0.85249992E+02 -0.10890E+04
 0.85299995E+02 -0.13960E+04
 0.85349998E+02 -0.16070E+04
 0.85399994E+02 -0.17490E+04
 0.85449997E+02 -0.19250E+04
 0.85499992E+02 -0.21660E+04
 0.85549995E+02 -0.24480E+04
 0.85599998E+02 -0.26440E+04
 0.85649994E+02 -0.27760E+04
 0.85699997E+02 -0.29620E+04
 0.85749992E+02 -0.31980E+04
 0.85799995E+02 -0.34080E+04
 0.85849998E+02 -0.35720E+04
 0.85899994E+02 -0.37080E+04
 0.85949997E+02 -0.38850E+04
 0.85999992E+02 -0.40820E+04
 0.86049995E+02 -0.42390E+04
 0.86099998E+02 -0.43530E+04
 0.86149994E+02 -0.44730E+04
 0.86199997E+02 -0.46500E+04
 0.86249992E+02 -0.48070E+04
 0.86299995E+02 -0.49100E+04
 0.86349998E+02 -0.49960E+04
 0.86399994E+02 -0.51120E+04
 0.86449997E+02 -0.52480E+04
 0.86499992E+02 -0.53820E+04
 0.86549995E+02 -0.54790E+04
 0.86599991E+02 -0.55560E+04
 0.86649994E+02 -0.56520E+04
 0.86699997E+02 -0.57730E+04
 0.86749992E+02 -0.58890E+04
 0.86799995E+02 -0.59340E+04
 0.86849991E+02 -0.60140E+04
 0.86899994E+02 -0.61310E+04
 0.86949997E+02 -0.62420E+04
 0.86999992E+02 -0.63180E+04
 0.87049995E+02 -0.63410E+04
 0.87099991E+02 -0.64170E+04
 0.87149994E+02 -0.65390E+04
 0.87199997E+02 -0.66260E+04
 0.87249992E+02 -0.66400E+04
 0.87299995E+02 -0.66710E+04
 0.87349991E+02 -0.67630E+04
 0.87399994E+02 -0.68290E+04
 0.87449997E+02 -0.68660E+04
 0.87499992E+02 -0.68960E+04
 0.87549995E+02 -0.69300E+04
 0.87599991E+02 -0.69680E+04
 0.87649994E+02 -0.70040E+04
 0.87699997E+02 -0.70410E+04
 0.87749992E+02 -0.70670E+04
 0.87799995E+02 -0.70600E+04
 0.87849991E+02 -0.70440E+04
 0.87899994E+02 -0.70930E+04
 0.87949997E+02 -0.71830E+04
 0.87999992E+02 -0.71910E+04
 0.88049995E+02 -0.71200E+04
 0.88099991E+02 -0.71320E+04
 0.88149994E+02 -0.72340E+04
 0.88199997E+02 -0.72950E+04
 0.88249992E+02 -0.73050E+04
 0.88299995E+02 -0.72840E+04
 0.88349991E+02 -0.73010E+04
 0.88399994E+02 -0.73910E+04
 0.88449997E+02 -0.74840E+04
 0.88499992E+02 -0.74960E+04
 0.88549995E+02 -0.74590E+04
 0.88599991E+02 -0.75100E+04
 0.88649994E+02 -0.76130E+04
 0.88699997E+02 -0.76670E+04
 0.88749992E+02 -0.76530E+04
 0.88799995E+02 -0.76540E+04
 0.88849991E+02 -0.77400E+04
 0.88899994E+02 -0.78310E+04
 0.88949997E+02 -0.78590E+04
 0.88999992E+02 -0.78470E+04
 0.89049995E+02 -0.78830E+04
 0.89099991E+02 -0.79680E+04
 0.89149994E+02 -0.80420E+04
 0.89199997E+02 -0.80660E+04
 0.89249992E+02 -0.80710E+04
 0.89299995E+02 -0.81250E+04
 0.89349991E+02 -0.82090E+04
 0.89399994E+02 -0.82830E+04
 0.89449997E+02 -0.83130E+04
 0.89499992E+02 -0.83450E+04
 0.89549995E+02 -0.84280E+04
 0.89599991E+02 -0.85190E+04
 0.89649994E+02 -0.85720E+04
 0.89699997E+02 -0.86180E+04
 0.89749992E+02 -0.86950E+04
 0.89799995E+02 -0.87890E+04
 0.89849991E+02 -0.88710E+04
 0.89899994E+02 -0.89200E+04
 0.89949997E+02 -0.89610E+04
 0.89999992E+02 -0.90320E+04
 0.90049995E+02 -0.91080E+04
 0.90099991E+02 -0.91660E+04
 0.90149994E+02 -0.92020E+04
 0.90199997E+02 -0.92210E+04
 0.90249992E+02 -0.92730E+04
 0.90299995E+02 -0.93360E+04
 0.90349991E+02 -0.93640E+04
 0.90399994E+02 -0.93700E+04
 0.90449997E+02 -0.94430E+04
 0.90499992E+02 -0.95240E+04
 0.90549995E+02 -0.94970E+04
 0.90599991E+02 -0.94830E+04
 0.90649994E+02 -0.95770E+04
 0.90699997E+02 -0.96850E+04
 0.90749992E+02 -0.96830E+04
 0.90799995E+02 -0.96450E+04
 0.90849991E+02 -0.96930E+04
 0.90899994E+02 -0.98220E+04
 0.90949997E+02 -0.98820E+04
 0.90999992E+02 -0.98430E+04
 0.91049995E+02 -0.98650E+04
 0.91099991E+02 -0.99700E+04
 0.91149994E+02 -0.10066E+05
 0.91199997E+02 -0.10079E+05
 0.91249992E+02 -0.10072E+05
 0.91299995E+02 -0.10126E+05
 0.91349991E+02 -0.10223E+05
 0.91399994E+02 -0.10278E+05
 0.91449997E+02 -0.10289E+05
 0.91499992E+02 -0.10306E+05
 0.91549995E+02 -0.10343E+05
 0.91599991E+02 -0.10459E+05
 0.91649994E+02 -0.10534E+05
 0.91699997E+02 -0.10446E+05
 0.91749992E+02 -0.10390E+05
 0.91799995E+02 -0.10531E+05
 0.91849991E+02 -0.10664E+05
 0.91899994E+02 -0.10619E+05
 0.91949997E+02 -0.10511E+05
 0.91999992E+02 -0.10476E+05
 0.92049995E+02 -0.10570E+05
 0.92099991E+02 -0.10641E+05
 0.92149994E+02 -0.10561E+05
 0.92199997E+02 -0.10443E+05
 0.92249992E+02 -0.10428E+05
 0.92299995E+02 -0.10498E+05
 0.92349991E+02 -0.10510E+05
 0.92399994E+02 -0.10402E+05
 0.92449997E+02 -0.10304E+05
 0.92499992E+02 -0.10312E+05
 0.92549995E+02 -0.10342E+05
 0.92599991E+02 -0.10305E+05
 0.92649994E+02 -0.10213E+05
 0.92699997E+02 -0.10119E+05
 0.92749992E+02 -0.10074E+05
 0.92799995E+02 -0.10098E+05
 0.92849991E+02 -0.10061E+05
 0.92899994E+02 -0.99160E+04
 0.92949997E+02 -0.97940E+04
 0.92999992E+02 -0.97640E+04
 0.93049995E+02 -0.97500E+04
 0.93099991E+02 -0.96390E+04
 0.93149994E+02 -0.94900E+04
 0.93199997E+02 -0.93870E+04
 0.93249992E+02 -0.93440E+04
 0.93299995E+02 -0.92890E+04
 0.93349991E+02 -0.91320E+04
 0.93399994E+02 -0.89820E+04
 0.93449997E+02 -0.89140E+04
 0.93499992E+02 -0.88570E+04
 0.93549995E+02 -0.87450E+04
 0.93599991E+02 -0.85860E+04
 0.93649994E+02 -0.84570E+04
 0.93699997E+02 -0.83780E+04
 0.93749992E+02 -0.82950E+04
 0.93799995E+02 -0.81480E+04
 0.93849991E+02 -0.79890E+04
 0.93899994E+02 -0.78670E+04
 0.93949997E+02 -0.77610E+04
 0.93999992E+02 -0.76520E+04
 0.94049995E+02 -0.74950E+04
 0.94099991E+02 -0.73070E+04
 0.94149994E+02 -0.71470E+04
 0.94199997E+02 -0.70320E+04
 0.94249992E+02 -0.69100E+04
 0.94299995E+02 -0.67240E+04
 0.94349991E+02 -0.65060E+04
 0.94399994E+02 -0.63350E+04
 0.94449997E+02 -0.62060E+04
 0.94499992E+02 -0.60280E+04
 0.94549995E+02 -0.57940E+04
 0.94599991E+02 -0.55770E+04
 0.94649994E+02 -0.54180E+04
 0.94699997E+02 -0.52410E+04
 0.94749992E+02 -0.50160E+04
 0.94799995E+02 -0.47820E+04
 0.94849991E+02 -0.45640E+04
 0.94899994E+02 -0.43830E+04
 0.94949997E+02 -0.41790E+04
 0.94999992E+02 -0.39370E+04
 0.95049995E+02 -0.37070E+04
 0.95099991E+02 -0.35090E+04
 0.95149994E+02 -0.33260E+04
 0.95199997E+02 -0.31060E+04
 0.95249992E+02 -0.28610E+04
 0.95299995E+02 -0.26590E+04
 0.95349991E+02 -0.24930E+04
 0.95399994E+02 -0.22940E+04
 0.95449997E+02 -0.20450E+04
 0.95499992E+02 -0.18330E+04
 0.95549995E+02 -0.16680E+04
 0.95599991E+02 -0.14680E+04
 0.95649994E+02 -0.12390E+04
 0.95699997E+02 -0.10330E+04
 0.95749992E+02 -0.87100E+03
 0.95799995E+02 -0.70000E+03
 0.95849991E+02 -0.49200E+03
 0.95899994E+02 -0.28700E+03
 0.95949997E+02 -0.98000E+02
 0.95999992E+02  0.59000E+02
 0.96049995E+02  0.22800E+03
 0.96099991E+02  0.44000E+03
 0.96149994E+02  0.66100E+03
 0.96199997E+02  0.83600E+03
 0.96249992E+02  0.98200E+03
 0.96299995E+02  0.11770E+04
 0.96349991E+02  0.13920E+04
 0.96399994E+02  0.15870E+04
 0.96449997E+02  0.17490E+04
 0.96499992E+02  0.18900E+04
 0.96549995E+02  0.20610E+04
 0.96599991E+02  0.22700E+04
 0.96649994E+02  0.24660E+04
 0.96699997E+02  0.25930E+04
 0.96749992E+02  0.27150E+04
 0.96799995E+02  0.28730E+04
 0.96849991E+02  0.30530E+04
 0.96899994E+02  0.32030E+04
 0.96949997E+02  0.32970E+04
 0.96999992E+02  0.34030E+04
 0.97049995E+02  0.35360E+04
 0.97099991E+02  0.36680E+04
 0.97149994E+02  0.37580E+04
 0.97199997E+02  0.38280E+04
 0.97249992E+02  0.39080E+04
 0.97299995E+02  0.39910E+04
 0.97349991E+02  0.40700E+04
 0.97399994E+02  0.41230E+04
 0.97449997E+02  0.41720E+04
 0.97499992E+02  0.42170E+04
 0.97549995E+02  0.42610E+04
 0.97599991E+02  0.42920E+04
 0.97649994E+02  0.43140E+04
 0.97699997E+02  0.43470E+04
 0.97749992E+02  0.43500E+04
 0.97799995E+02  0.43450E+04
 0.97849991E+02  0.43630E+04
 0.97899994E+02  0.43810E+04
 0.97949997E+02  0.43670E+04
 0.97999992E+02  0.43340E+04
 0.98049995E+02  0.43230E+04
 0.98099991E+02  0.43040E+04
 0.98149994E+02  0.42810E+04
 0.98199997E+02  0.42450E+04
 0.98249992E+02  0.41880E+04
 0.98299995E+02  0.41420E+04
 0.98349991E+02  0.40900E+04
 0.98399994E+02  0.40440E+04
 0.98449997E+02  0.39880E+04
 0.98499992E+02  0.39050E+04
 0.98549995E+02  0.38340E+04
 0.98599991E+02  0.37790E+04
 0.98649994E+02  0.37220E+04
 0.98699997E+02  0.36390E+04
 0.98749992E+02  0.35470E+04
 0.98799995E+02  0.34650E+04
 0.98849991E+02  0.34050E+04
 0.98899994E+02  0.33380E+04
 0.98949997E+02  0.32470E+04
 0.98999992E+02  0.31520E+04
 0.99049995E+02  0.30600E+04
 0.99099991E+02  0.30040E+04
 0.99149994E+02  0.29420E+04
 0.99199997E+02  0.28560E+04
 0.99249992E+02  0.27560E+04
 0.99299995E+02  0.26770E+04
 0.99349991E+02  0.26520E+04
 0.99399994E+02  0.25950E+04
 0.99449997E+02  0.25050E+04
 0.99499992E+02  0.24290E+04
 0.99549995E+02  0.23890E+04
 0.99599991E+02  0.23600E+04
 0.99649994E+02  0.22950E+04
 0.99699997E+02  0.22220E+04
 0.99749992E+02  0.21680E+04
 0.99799995E+02  0.21380E+04
 0.99849991E+02  0.20940E+04
 0.99899994E+02  0.20270E+04
 0.99949997E+02  0.19660E+04
 0.99999992E+02  0.19130E+04
 0.10005000E+03  0.18750E+04
 0.10009999E+03  0.18220E+04
 0.10014999E+03  0.17670E+04
 0.10020000E+03  0.17160E+04
 0.10024999E+03  0.16530E+04
 0.10030000E+03  0.16040E+04
 0.10034999E+03  0.15560E+04
 0.10039999E+03  0.14990E+04
 0.10045000E+03  0.14410E+04
 0.10049999E+03  0.13940E+04
 0.10055000E+03  0.13580E+04
 0.10059999E+03  0.13220E+04
 0.10064999E+03  0.12740E+04
 0.10070000E+03  0.12230E+04
 0.10074999E+03  0.11950E+04
 0.10080000E+03  0.11830E+04
 0.10084999E+03  0.11610E+04
 0.10089999E+03  0.11310E+04
 0.10095000E+03  0.11160E+04
 0.10099999E+03  0.11100E+04
 0.10105000E+03  0.11120E+04
 0.10109999E+03  0.11140E+04
 0.10114999E+03  0.11100E+04
 0.10120000E+03  0.11110E+04
 0.10124999E+03  0.11130E+04
 0.10130000E+03  0.11360E+04
 0.10134999E+03  0.11560E+04
 0.10139999E+03  0.11460E+04
 0.10145000E+03  0.11390E+04
 0.10149999E+03  0.11610E+04
 0.10155000E+03  0.12050E+04
 0.10159999E+03  0.12190E+04
 0.10164999E+03  0.12030E+04
 0.10170000E+03  0.12010E+04
 0.10174999E+03  0.12380E+04
 0.10180000E+03  0.12830E+04
 0.10184999E+03  0.12910E+04
 0.10189999E+03  0.12760E+04
 0.10195000E+03  0.12870E+04
 0.10199999E+03  0.13440E+04
 0.10205000E+03  0.13810E+04
 0.10209999E+03  0.13790E+04
 0.10214999E+03  0.13870E+04
 0.10220000E+03  0.14180E+04
 0.10224999E+03  0.14640E+04
 0.10230000E+03  0.14920E+04
 0.10234999E+03  0.14870E+04
 0.10239999E+03  0.14990E+04
 0.10245000E+03  0.15460E+04
 0.10249999E+03  0.15820E+04
 0.10255000E+03  0.15920E+04
 0.10259999E+03  0.16020E+04
 0.10264999E+03  0.16310E+04
 0.10270000E+03  0.16610E+04
 0.10274999E+03  0.16840E+04
 0.10280000E+03  0.17050E+04
 0.10284999E+03  0.17040E+04
 0.10289999E+03  0.17060E+04
 0.10295000E+03  0.17390E+04
 0.10299999E+03  0.17650E+04
 0.10305000E+03  0.17600E+04
 0.10309999E+03  0.17480E+04
 0.10314999E+03  0.17610E+04
 0.10320000E+03  0.17790E+04
 0.10324999E+03  0.17710E+04
 0.10330000E+03  0.17570E+04
 0.10334999E+03  0.17440E+04
 0.10339999E+03  0.17410E+04
 0.10345000E+03  0.17400E+04
 0.10349999E+03  0.17320E+04
 0.10355000E+03  0.17210E+04
 0.10359999E+03  0.17060E+04
 0.10364999E+03  0.16990E+04
 0.10370000E+03  0.16890E+04
 0.10374999E+03  0.16870E+04
 0.10380000E+03  0.16750E+04
 0.10384999E+03  0.16500E+04
 0.10389999E+03  0.16400E+04
 0.10395000E+03  0.16390E+04
 0.10399999E+03  0.16370E+04
 0.10405000E+03  0.16230E+04
 0.10409999E+03  0.16090E+04
 0.10414999E+03  0.16090E+04
 0.10420000E+03  0.16090E+04
 0.10424999E+03  0.16050E+04
 0.10430000E+03  0.15950E+04
 0.10434999E+03  0.15860E+04
 0.10439999E+03  0.15900E+04
 0.10445000E+03  0.15970E+04
 0.10449999E+03  0.16040E+04
 0.10455000E+03  0.15930E+04
 0.10459999E+03  0.15860E+04
 0.10464999E+03  0.15950E+04
 0.10470000E+03  0.16120E+04
 0.10474999E+03  0.16250E+04
 0.10480000E+03  0.16110E+04
 0.10484999E+03  0.16140E+04
 0.10489999E+03  0.16350E+04
 0.10495000E+03  0.16730E+04
 0.10499999E+03  0.16900E+04
 0.10505000E+03  0.16860E+04
 0.10509999E+03  0.17130E+04
 0.10514999E+03  0.17530E+04
 0.10520000E+03  0.17850E+04
 0.10524999E+03  0.17940E+04
 0.10530000E+03  0.18150E+04
 0.10534999E+03  0.18470E+04
 0.10539999E+03  0.18650E+04
 0.10545000E+03  0.18860E+04
 0.10549999E+03  0.19010E+04
 0.10555000E+03  0.19140E+04
 0.10559999E+03  0.19280E+04
 0.10564999E+03  0.19490E+04
 0.10570000E+03  0.19580E+04
 0.10574999E+03  0.19610E+04
 0.10580000E+03  0.19920E+04
 0.10584999E+03  0.20090E+04
 0.10589999E+03  0.20120E+04
 0.10595000E+03  0.20200E+04
 0.10599999E+03  0.20510E+04
 0.10605000E+03  0.20950E+04
 0.10609999E+03  0.21080E+04
 0.10614999E+03  0.21000E+04
 0.10620000E+03  0.21140E+04
 0.10624999E+03  0.21670E+04
 0.10630000E+03  0.21910E+04
 0.10634999E+03  0.21690E+04
 0.10639999E+03  0.21750E+04
 0.10645000E+03  0.22210E+04
 0.10649999E+03  0.22490E+04
 0.10655000E+03  0.22330E+04
 0.10659999E+03  0.22210E+04
 0.10664999E+03  0.22430E+04
 0.10670000E+03  0.22680E+04
 0.10674999E+03  0.22610E+04
 0.10680000E+03  0.22380E+04
 0.10684999E+03  0.22190E+04
 0.10689999E+03  0.22220E+04
 0.10695000E+03  0.22230E+04
 0.10699999E+03  0.21920E+04
 0.10705000E+03  0.21590E+04
 0.10709999E+03  0.21380E+04
 0.10714999E+03  0.21250E+04
 0.10720000E+03  0.20970E+04
 0.10724999E+03  0.20620E+04
 0.10730000E+03  0.20180E+04
 0.10734999E+03  0.19800E+04
 0.10739999E+03  0.19580E+04
 0.10745000E+03  0.19240E+04
 0.10749999E+03  0.18740E+04
 0.10755000E+03  0.18190E+04
 0.10759999E+03  0.17830E+04
 0.10764999E+03  0.17530E+04
 0.10770000E+03  0.17080E+04
 0.10774999E+03  0.16560E+04
 0.10780000E+03  0.16130E+04
 0.10784999E+03  0.15850E+04
 0.10789999E+03  0.15600E+04
 0.10795000E+03  0.15340E+04
 0.10799999E+03  0.14960E+04
 0.10805000E+03  0.14710E+04
 0.10809999E+03  0.14790E+04
 0.10814999E+03  0.14880E+04
 0.10820000E+03  0.14850E+04
 0.10824999E+03  0.14660E+04
 0.10830000E+03  0.14780E+04
 0.10834999E+03  0.15290E+04
 0.10839999E+03  0.15620E+04
 0.10845000E+03  0.15760E+04
 0.10849999E+03  0.15880E+04
 0.10855000E+03  0.16380E+04
 0.10859999E+03  0.17060E+04
 0.10864999E+03  0.17400E+04
 0.10870000E+03  0.17680E+04
 0.10874999E+03  0.18290E+04
 0.10880000E+03  0.19030E+04
 0.10884999E+03  0.19610E+04
 0.10889999E+03  0.20130E+04
 0.10895000E+03  0.20680E+04
 0.10899999E+03  0.21410E+04
 0.10905000E+03  0.22370E+04
 0.10909999E+03  0.23170E+04
 0.10914999E+03  0.23750E+04
 0.10920000E+03  0.24520E+04
 0.10924999E+03  0.25670E+04
 0.10930000E+03  0.26880E+04
 0.10934999E+03  0.27780E+04
 0.10939999E+03  0.28630E+04
 0.10945000E+03  0.29850E+04
 0.10949999E+03  0.31310E+04
 0.10955000E+03  0.32610E+04
 0.10959999E+03  0.33610E+04
 0.10964999E+03  0.34760E+04
 0.10970000E+03  0.36110E+04
 0.10974999E+03  0.37520E+04
 0.10980000E+03  0.38900E+04
 0.10984999E+03  0.40040E+04
 0.10989999E+03  0.41210E+04
 0.10995000E+03  0.42520E+04
 0.10999999E+03  0.43910E+04
 0.11005000E+03  0.45300E+04
 0.11009999E+03  0.46460E+04
 0.11014999E+03  0.47490E+04
 0.11020000E+03  0.48730E+04
 0.11024999E+03  0.50090E+04
 0.11030000E+03  0.51260E+04
 0.11034999E+03  0.52230E+04
 0.11039999E+03  0.53170E+04
 0.11045000E+03  0.54400E+04
 0.11049999E+03  0.55590E+04
 0.11055000E+03  0.56490E+04
 0.11059999E+03  0.57330E+04
 0.11064999E+03  0.58310E+04
 0.11070000E+03  0.59410E+04
 0.11074999E+03  0.60340E+04
 0.11080000E+03  0.61270E+04
 0.11084999E+03  0.62230E+04
 0.11089999E+03  0.63230E+04
 0.11095000E+03  0.64240E+04
 0.11099999E+03  0.65050E+04
 0.11105000E+03  0.66020E+04
 0.11109999E+03  0.66920E+04
 0.11114999E+03  0.67820E+04
 0.11120000E+03  0.68750E+04
 0.11124999E+03  0.69470E+04
 0.11130000E+03  0.70430E+04
 0.11134999E+03  0.71270E+04
 0.11139999E+03  0.72070E+04
 0.11145000E+03  0.72690E+04
 0.11149999E+03  0.73110E+04
 0.11155000E+03  0.74190E+04
 0.11159999E+03  0.74990E+04
 0.11164999E+03  0.75170E+04
 0.11170000E+03  0.75470E+04
 0.11174999E+03  0.76190E+04
 0.11180000E+03  0.76890E+04
 0.11184999E+03  0.76990E+04
 0.11189999E+03  0.77000E+04
 0.11195000E+03  0.77340E+04
 0.11199999E+03  0.77900E+04
 0.11205000E+03  0.78080E+04
 0.11209999E+03  0.77850E+04
 0.11214999E+03  0.77790E+04
 0.11220000E+03  0.77980E+04
 0.11224999E+03  0.78340E+04
 0.11230000E+03  0.78290E+04
 0.11234999E+03  0.77920E+04
 0.11239999E+03  0.77860E+04
 0.11244999E+03  0.78220E+04
 0.11249999E+03  0.78330E+04
 0.11255000E+03  0.77930E+04
 0.11259999E+03  0.77780E+04
 0.11264999E+03  0.77890E+04
 0.11269999E+03  0.77980E+04
 0.11274999E+03  0.77870E+04
 0.11280000E+03  0.77730E+04
 0.11284999E+03  0.77580E+04
 0.11289999E+03  0.77190E+04
 0.11294999E+03  0.77090E+04
 0.11299999E+03  0.77310E+04
 0.11305000E+03  0.77240E+04
 0.11309999E+03  0.76460E+04
 0.11314999E+03  0.75930E+04
 0.11319999E+03  0.76080E+04
 0.11324999E+03  0.76000E+04
 0.11330000E+03  0.75510E+04
 0.11334999E+03  0.74700E+04
 0.11339999E+03  0.73980E+04
 0.11344999E+03  0.73540E+04
 0.11349999E+03  0.73420E+04
 0.11355000E+03  0.73060E+04
 0.11359999E+03  0.71790E+04
 0.11364999E+03  0.70560E+04
 0.11369999E+03  0.70390E+04
 0.11374999E+03  0.70310E+04
 0.11380000E+03  0.69250E+04
 0.11384999E+03  0.68000E+04
 0.11389999E+03  0.67320E+04
 0.11394999E+03  0.67160E+04
 0.11399999E+03  0.66590E+04
 0.11405000E+03  0.65420E+04
 0.11409999E+03  0.64340E+04
 0.11414999E+03  0.63800E+04
 0.11419999E+03  0.63690E+04
 0.11424999E+03  0.62400E+04
 0.11430000E+03  0.60940E+04
 0.11434999E+03  0.60690E+04
 0.11439999E+03  0.60370E+04
 0.11444999E+03  0.59350E+04
 0.11449999E+03  0.57520E+04
 0.11455000E+03  0.56300E+04
 0.11459999E+03  0.56180E+04
 0.11464999E+03  0.55500E+04
 0.11469999E+03  0.53880E+04
 0.11474999E+03  0.51890E+04
 0.11480000E+03  0.50660E+04
 0.11484999E+03  0.50150E+04
 0.11489999E+03  0.49200E+04
 0.11494999E+03  0.47390E+04
 0.11499999E+03  0.45210E+04
 0.11505000E+03  0.43530E+04
 0.11509999E+03  0.42890E+04
 0.11514999E+03  0.42490E+04
 0.11519999E+03  0.40410E+04
 0.11524999E+03  0.37730E+04
 0.11530000E+03  0.36430E+04
 0.11534999E+03  0.36230E+04
 0.11539999E+03  0.35200E+04
 0.11544999E+03  0.32300E+04
 0.11549999E+03  0.30300E+04
 0.11555000E+03  0.29770E+04
 0.11559999E+03  0.29190E+04
 0.11564999E+03  0.27400E+04
 0.11569999E+03  0.24490E+04
 0.11574999E+03  0.22960E+04
 0.11580000E+03  0.22650E+04
 0.11584999E+03  0.21290E+04
 0.11589999E+03  0.18710E+04
 0.11594999E+03  0.16760E+04
 0.11599999E+03  0.15570E+04
 0.11605000E+03  0.14290E+04
 0.11609999E+03  0.12410E+04
 0.11614999E+03  0.10100E+04
 0.11619999E+03  0.85800E+03
 0.11624999E+03  0.73400E+03
 0.11630000E+03  0.57400E+03
 0.11634999E+03  0.38900E+03
 0.11639999E+03  0.22100E+03
 0.11644999E+03  0.82000E+02
 0.11649999E+03 -0.98000E+02
 0.11655000E+03 -0.27300E+03
 0.11659999E+03 -0.42700E+03
 0.11664999E+03 -0.54600E+03
 0.11669999E+03 -0.67700E+03
 0.11674999E+03 -0.91300E+03
 0.11680000E+03 -0.10950E+04
 0.11684999E+03 -0.12150E+04
 0.11689999E+03 -0.13360E+04
 0.11694999E+03 -0.14930E+04
 0.11699999E+03 -0.16860E+04
 0.11705000E+03 -0.18350E+04
 0.11709999E+03 -0.20330E+04
 0.11714999E+03 -0.21570E+04
 0.11719999E+03 -0.22720E+04
 0.11724999E+03 -0.24910E+04
 0.11730000E+03 -0.26470E+04
 0.11734999E+03 -0.27970E+04
 0.11739999E+03 -0.29430E+04
 0.11744999E+03 -0.30920E+04
 0.11749999E+03 -0.32580E+04
 0.11755000E+03 -0.33970E+04
 0.11759999E+03 -0.35160E+04
 0.11764999E+03 -0.36380E+04
 0.11769999E+03 -0.37980E+04
 0.11774999E+03 -0.39520E+04
 0.11780000E+03 -0.40470E+04
 0.11784999E+03 -0.41130E+04
 0.11789999E+03 -0.42110E+04
 0.11794999E+03 -0.43520E+04
 0.11799999E+03 -0.44810E+04
 0.11805000E+03 -0.45340E+04
 0.11809999E+03 -0.45690E+04
 0.11814999E+03 -0.46540E+04
 0.11819999E+03 -0.47910E+04
 0.11824999E+03 -0.48950E+04
 0.11830000E+03 -0.48880E+04
 0.11834999E+03 -0.48960E+04
 0.11839999E+03 -0.50240E+04
 0.11844999E+03 -0.51700E+04
 0.11849999E+03 -0.51910E+04
 0.11855000E+03 -0.51740E+04
 0.11859999E+03 -0.52420E+04
 0.11864999E+03 -0.53680E+04
 0.11869999E+03 -0.54320E+04
 0.11874999E+03 -0.54220E+04
 0.11880000E+03 -0.54530E+04
 0.11884999E+03 -0.55040E+04
 0.11889999E+03 -0.55960E+04
 0.11894999E+03 -0.56360E+04
 0.11899999E+03 -0.56360E+04
 0.11905000E+03 -0.56760E+04
 0.11909999E+03 -0.56830E+04
 0.11914999E+03 -0.57130E+04
 0.11919999E+03 -0.57620E+04
 0.11924999E+03 -0.57990E+04
 0.11930000E+03 -0.57630E+04
 0.11934999E+03 -0.57450E+04
 0.11939999E+03 -0.58070E+04
 0.11944999E+03 -0.58280E+04
 0.11949999E+03 -0.58270E+04
 0.11955000E+03 -0.58230E+04
 0.11959999E+03 -0.58430E+04
 0.11964999E+03 -0.58320E+04
 0.11969999E+03 -0.58320E+04
 0.11974999E+03 -0.58610E+04
 0.11980000E+03 -0.58610E+04
 0.11984999E+03 -0.58600E+04
 0.11989999E+03 -0.58220E+04
 0.11994999E+03 -0.58250E+04
 0.11999999E+03 -0.58450E+04
 0.12005000E+03 -0.58870E+04
 0.12009999E+03 -0.58140E+04
 0.12014999E+03 -0.56830E+04
 0.12019999E+03 -0.58450E+04
 0.12024999E+03 -0.59360E+04
 0.12030000E+03 -0.58000E+04
 0.12034999E+03 -0.56550E+04
 0.12039999E+03 -0.57260E+04
 0.12044999E+03 -0.59160E+04
 0.12049999E+03 -0.58810E+04
 0.12055000E+03 -0.57700E+04
 0.12059999E+03 -0.57480E+04
 0.12064999E+03 -0.58890E+04
 0.12069999E+03 -0.59660E+04
 0.12074999E+03 -0.59390E+04
 0.12080000E+03 -0.59280E+04
 0.12084999E+03 -0.59530E+04
 0.12089999E+03 -0.61000E+04
 0.12094999E+03 -0.61620E+04
 0.12099999E+03 -0.61500E+04
 0.12105000E+03 -0.61570E+04
 0.12109999E+03 -0.62860E+04
 0.12114999E+03 -0.64470E+04
 0.12119999E+03 -0.64450E+04
 0.12124999E+03 -0.64430E+04
 0.12130000E+03 -0.65420E+04
 0.12134999E+03 -0.66980E+04
 0.12139999E+03 -0.67950E+04
 0.12144999E+03 -0.68060E+04
 0.12149999E+03 -0.68540E+04
 0.12155000E+03 -0.69700E+04
 0.12159999E+03 -0.70880E+04
 0.12164999E+03 -0.71630E+04
 0.12169999E+03 -0.71290E+04
 0.12174999E+03 -0.71530E+04
 0.12180000E+03 -0.73310E+04
 0.12184999E+03 -0.75580E+04
 0.12189999E+03 -0.75210E+04
 0.12194999E+03 -0.72110E+04
 0.12199999E+03 -0.73490E+04
 0.12205000E+03 -0.78440E+04
 0.12209999E+03 -0.79160E+04
 0.12214999E+03 -0.75980E+04
 0.12219999E+03 -0.75590E+04
 0.12224999E+03 -0.78260E+04
 0.12230000E+03 -0.80580E+04
 0.12234999E+03 -0.81320E+04
 0.12239999E+03 -0.79180E+04
 0.12244999E+03 -0.78020E+04
 0.12249999E+03 -0.81820E+04
 0.12255000E+03 -0.85610E+04
 0.12259999E+03 -0.84000E+04
 0.12264999E+03 -0.81230E+04
 0.12269999E+03 -0.82810E+04
 0.12274999E+03 -0.86910E+04
 0.12280000E+03 -0.88750E+04
 0.12284999E+03 -0.86840E+04
 0.12289999E+03 -0.84880E+04
 0.12294999E+03 -0.87880E+04
 0.12299999E+03 -0.92370E+04
 0.12305000E+03 -0.93060E+04
 0.12309999E+03 -0.90750E+04
 0.12314999E+03 -0.88680E+04
 0.12319999E+03 -0.92510E+04
 0.12324999E+03 -0.97730E+04
 0.12330000E+03 -0.97510E+04
 0.12334999E+03 -0.94380E+04
 0.12339999E+03 -0.93120E+04
 0.12344999E+03 -0.97650E+04
 0.12349999E+03 -0.10200E+05
 0.12355000E+03 -0.10003E+05
 0.12359999E+03 -0.96850E+04
 0.12364999E+03 -0.97850E+04
 0.12369999E+03 -0.10157E+05
 0.12374999E+03 -0.10333E+05
 0.12380000E+03 -0.10149E+05
 0.12384999E+03 -0.99490E+04
 0.12389999E+03 -0.10085E+05
 0.12394999E+03 -0.10358E+05
 0.12399999E+03 -0.10398E+05
 0.12405000E+03 -0.10182E+05
 0.12409999E+03 -0.10072E+05
 0.12414999E+03 -0.10232E+05
 0.12419999E+03 -0.10368E+05
 0.12424999E+03 -0.10331E+05
 0.12430000E+03 -0.10146E+05
 0.12434999E+03 -0.99910E+04
 0.12439999E+03 -0.10101E+05
 0.12444999E+03 -0.10261E+05
 0.12449999E+03 -0.10143E+05
 0.12455000E+03 -0.98560E+04
 0.12459999E+03 -0.97560E+04
 0.12464999E+03 -0.98850E+04
 0.12469999E+03 -0.99190E+04
 0.12474999E+03 -0.97070E+04
 0.12480000E+03 -0.93830E+04
 0.12484999E+03 -0.93170E+04
 0.12489999E+03 -0.95180E+04
 0.12494999E+03 -0.94320E+04
 0.12499999E+03 -0.90080E+04
 0.12504999E+03 -0.87630E+04
 0.12509999E+03 -0.88680E+04
 0.12514999E+03 -0.89230E+04
 0.12520000E+03 -0.86500E+04
 0.12524998E+03 -0.82830E+04
 0.12529999E+03 -0.81800E+04
 0.12534999E+03 -0.82480E+04
 0.12539999E+03 -0.81510E+04
 0.12545000E+03 -0.78180E+04
 0.12549998E+03 -0.75670E+04
 0.12554999E+03 -0.75390E+04
 0.12559999E+03 -0.74820E+04
 0.12564999E+03 -0.72870E+04
 0.12570000E+03 -0.70050E+04
 0.12574998E+03 -0.68840E+04
 0.12579999E+03 -0.68110E+04
 0.12584999E+03 -0.66150E+04
 0.12589999E+03 -0.64140E+04
 0.12595000E+03 -0.62170E+04
 0.12599998E+03 -0.61180E+04
 0.12604999E+03 -0.60180E+04
 0.12609999E+03 -0.58390E+04
 0.12614999E+03 -0.56280E+04
 0.12620000E+03 -0.54510E+04
 0.12624998E+03 -0.53330E+04
 0.12629999E+03 -0.52150E+04
 0.12634999E+03 -0.51240E+04
 0.12639999E+03 -0.49490E+04
 0.12645000E+03 -0.47150E+04
 0.12649998E+03 -0.45740E+04
 0.12654999E+03 -0.45430E+04
 0.12659999E+03 -0.44440E+04
 0.12664999E+03 -0.42040E+04
 0.12670000E+03 -0.39890E+04
 0.12674998E+03 -0.39080E+04
 0.12679999E+03 -0.39780E+04
 0.12684999E+03 -0.38360E+04
 0.12689999E+03 -0.34690E+04
 0.12695000E+03 -0.33260E+04
 0.12699998E+03 -0.34660E+04
 0.12704999E+03 -0.34860E+04
 0.12709999E+03 -0.32060E+04
 0.12714999E+03 -0.30190E+04
 0.12720000E+03 -0.29230E+04
 0.12724998E+03 -0.29760E+04
 0.12729999E+03 -0.30560E+04
 0.12734999E+03 -0.28310E+04
 0.12739999E+03 -0.25810E+04
 0.12745000E+03 -0.25350E+04
 0.12749998E+03 -0.26770E+04
 0.12754999E+03 -0.26370E+04
 0.12759999E+03 -0.23680E+04
 0.12764999E+03 -0.21780E+04
 0.12770000E+03 -0.22190E+04
 0.12774998E+03 -0.23490E+04
 0.12779999E+03 -0.22500E+04
 0.12784999E+03 -0.20260E+04
 0.12789999E+03 -0.18950E+04
 0.12795000E+03 -0.19260E+04
 0.12799998E+03 -0.19960E+04
 0.12804999E+03 -0.19610E+04
 0.12809999E+03 -0.18270E+04
 0.12814999E+03 -0.17310E+04
 0.12820000E+03 -0.17630E+04
 0.12824998E+03 -0.18020E+04
 0.12829999E+03 -0.18030E+04
 0.12834999E+03 -0.17550E+04
 0.12839999E+03 -0.17150E+04
 0.12845000E+03 -0.17930E+04
 0.12849998E+03 -0.18470E+04
 0.12854999E+03 -0.18140E+04
 0.12859999E+03 -0.18420E+04
 0.12864999E+03 -0.19090E+04
 0.12870000E+03 -0.19660E+04
 0.12874998E+03 -0.20410E+04
 0.12879999E+03 -0.20950E+04
 0.12884999E+03 -0.21490E+04
 0.12889999E+03 -0.22310E+04
 0.12895000E+03 -0.23350E+04
 0.12899998E+03 -0.24660E+04
 0.12904999E+03 -0.25360E+04
 0.12909999E+03 -0.25970E+04
 0.12914999E+03 -0.27370E+04
 0.12920000E+03 -0.29040E+04
 0.12924998E+03 -0.29950E+04
 0.12929999E+03 -0.30290E+04
 0.12934999E+03 -0.31570E+04
 0.12939999E+03 -0.33560E+04
 0.12945000E+03 -0.35220E+04
 0.12949998E+03 -0.35500E+04
 0.12954999E+03 -0.35870E+04
 0.12959999E+03 -0.37440E+04
 0.12964999E+03 -0.39480E+04
 0.12970000E+03 -0.41030E+04
 0.12974998E+03 -0.41110E+04
 0.12979999E+03 -0.41420E+04
 0.12984999E+03 -0.42760E+04
 0.12989999E+03 -0.44690E+04
 0.12995000E+03 -0.46010E+04
 0.12999998E+03 -0.46170E+04
 0.13004999E+03 -0.46390E+04
 0.13009999E+03 -0.47600E+04
 0.13014999E+03 -0.49200E+04
 0.13020000E+03 -0.50000E+04
 0.13024998E+03 -0.50250E+04
 0.13029999E+03 -0.50510E+04
 0.13034999E+03 -0.51710E+04
 0.13039999E+03 -0.52820E+04
 0.13045000E+03 -0.52850E+04
 0.13049998E+03 -0.52560E+04
 0.13054999E+03 -0.52960E+04
 0.13059999E+03 -0.54350E+04
 0.13064999E+03 -0.54990E+04
 0.13070000E+03 -0.54140E+04
 0.13074998E+03 -0.53360E+04
 0.13079999E+03 -0.54320E+04
 0.13084999E+03 -0.55620E+04
 0.13089999E+03 -0.55190E+04
 0.13095000E+03 -0.53780E+04
 0.13099998E+03 -0.53510E+04
 0.13104999E+03 -0.54640E+04
 0.13109999E+03 -0.55250E+04
 0.13114999E+03 -0.54000E+04
 0.13120000E+03 -0.52280E+04
 0.13124998E+03 -0.52410E+04
 0.13129999E+03 -0.53490E+04
 0.13134999E+03 -0.52990E+04
 0.13139999E+03 -0.51100E+04
 0.13145000E+03 -0.49880E+04
 0.13149998E+03 -0.50040E+04
 0.13154999E+03 -0.50470E+04
 0.13159999E+03 -0.49230E+04
 0.13164999E+03 -0.46970E+04
 0.13170000E+03 -0.45890E+04
 0.13174998E+03 -0.45920E+04
 0.13179999E+03 -0.45620E+04
 0.13184999E+03 -0.43770E+04
 0.13189999E+03 -0.41500E+04
 0.13195000E+03 -0.40360E+04
 0.13199998E+03 -0.39900E+04
 0.13204999E+03 -0.39040E+04
 0.13209999E+03 -0.36920E+04
 0.13214999E+03 -0.34560E+04
 0.13220000E+03 -0.33540E+04
 0.13224998E+03 -0.32880E+04
 0.13229999E+03 -0.31230E+04
 0.13234999E+03 -0.28930E+04
 0.13239999E+03 -0.26930E+04
 0.13245000E+03 -0.25750E+04
 0.13249998E+03 -0.24590E+04
 0.13254999E+03 -0.22480E+04
 0.13259999E+03 -0.19920E+04
 0.13264999E+03 -0.17980E+04
 0.13270000E+03 -0.16720E+04
 0.13274998E+03 -0.15050E+04
 0.13279999E+03 -0.12370E+04
 0.13284999E+03 -0.96200E+03
 0.13289999E+03 -0.76800E+03
 0.13295000E+03 -0.62000E+03
 0.13299998E+03 -0.41300E+03
 0.13304999E+03 -0.10700E+03
 0.13309999E+03  0.18600E+03
 0.13314999E+03  0.38100E+03
 0.13320000E+03  0.56100E+03
 0.13324998E+03  0.84000E+03
 0.13329999E+03  0.11820E+04
 0.13334999E+03  0.14600E+04
 0.13339999E+03  0.16670E+04
 0.13345000E+03  0.19080E+04
 0.13349998E+03  0.22240E+04
 0.13354999E+03  0.25620E+04
 0.13359999E+03  0.28470E+04
 0.13364999E+03  0.30680E+04
 0.13370000E+03  0.33270E+04
 0.13374998E+03  0.36600E+04
 0.13379999E+03  0.39990E+04
 0.13384999E+03  0.42850E+04
 0.13389999E+03  0.45280E+04
 0.13395000E+03  0.48120E+04
 0.13399998E+03  0.51580E+04
 0.13404999E+03  0.55010E+04
 0.13409999E+03  0.57760E+04
 0.13414999E+03  0.60310E+04
 0.13420000E+03  0.63460E+04
 0.13424998E+03  0.67170E+04
 0.13429999E+03  0.70280E+04
 0.13434999E+03  0.72490E+04
 0.13439999E+03  0.75350E+04
 0.13445000E+03  0.78860E+04
 0.13449998E+03  0.81880E+04
 0.13454999E+03  0.84260E+04
 0.13459999E+03  0.86690E+04
 0.13464999E+03  0.89620E+04
 0.13470000E+03  0.92740E+04
 0.13474998E+03  0.95420E+04
 0.13479999E+03  0.97640E+04
 0.13484999E+03  0.99960E+04
 0.13489999E+03  0.10261E+05
 0.13495000E+03  0.10541E+05
 0.13499998E+03  0.10783E+05
 0.13504999E+03  0.10999E+05
 0.13509999E+03  0.11218E+05
 0.13514999E+03  0.11453E+05
 0.13520000E+03  0.11696E+05
 0.13524998E+03  0.11895E+05
 0.13529999E+03  0.12071E+05
 0.13534999E+03  0.12265E+05
 0.13539999E+03  0.12477E+05
 0.13545000E+03  0.12671E+05
 0.13549998E+03  0.12814E+05
 0.13554999E+03  0.12944E+05
 0.13559999E+03  0.13095E+05
 0.13564999E+03  0.13275E+05
 0.13570000E+03  0.13435E+05
 0.13574998E+03  0.13528E+05
 0.13579999E+03  0.13609E+05
 0.13584999E+03  0.13726E+05
 0.13589999E+03  0.13874E+05
 0.13595000E+03  0.13974E+05
 0.13599998E+03  0.14012E+05
 0.13604999E+03  0.14058E+05
 0.13609999E+03  0.14144E+05
 0.13614999E+03  0.14234E+05
 0.13620000E+03  0.14264E+05
 0.13624998E+03  0.14254E+05
 0.13629999E+03  0.14261E+05
 0.13634999E+03  0.14310E+05
 0.13639999E+03  0.14331E+05
 0.13645000E+03  0.14308E+05
 0.13649998E+03  0.14269E+05
 0.13654999E+03  0.14240E+05
 0.13659999E+03  0.14230E+05
 0.13664999E+03  0.14179E+05
 0.13670000E+03  0.14116E+05
 0.13674998E+03  0.14062E+05
 0.13679999E+03  0.14002E+05
 0.13684999E+03  0.13933E+05
 0.13689999E+03  0.13845E+05
 0.13695000E+03  0.13755E+05
 0.13699998E+03  0.13663E+05
 0.13704999E+03  0.13571E+05
 0.13709999E+03  0.13481E+05
 0.13714999E+03  0.13371E+05
 0.13720000E+03  0.13227E+05
 0.13724998E+03  0.13093E+05
 0.13729999E+03  0.12990E+05
 0.13734999E+03  0.12878E+05
 0.13739999E+03  0.12728E+05
 0.13745000E+03  0.12563E+05
 0.13749998E+03  0.12425E+05
 0.13754999E+03  0.12302E+05
 0.13759999E+03  0.12165E+05
 0.13764999E+03  0.12008E+05
 0.13770000E+03  0.11843E+05
 0.13774998E+03  0.11697E+05
 0.13779999E+03  0.11556E+05
 0.13784999E+03  0.11407E+05
 0.13789999E+03  0.11243E+05
 0.13795000E+03  0.11075E+05
 0.13799998E+03  0.10909E+05
 0.13804999E+03  0.10735E+05
 0.13809999E+03  0.10567E+05
 0.13814999E+03  0.10396E+05
 0.13820000E+03  0.10221E+05
 0.13824998E+03  0.10017E+05
 0.13829999E+03  0.98330E+04
 0.13834999E+03  0.97030E+04
 0.13839999E+03  0.95160E+04
 0.13845000E+03  0.92900E+04
 0.13849998E+03  0.91060E+04
 0.13854999E+03  0.89520E+04
 0.13859999E+03  0.88040E+04
 0.13864999E+03  0.86070E+04
 0.13870000E+03  0.83860E+04
 0.13874998E+03  0.82190E+04
 0.13879999E+03  0.80630E+04
 0.13884999E+03  0.78900E+04
 0.13889999E+03  0.76820E+04
 0.13895000E+03  0.74710E+04
 0.13899998E+03  0.73190E+04
 0.13904999E+03  0.71610E+04
 0.13909999E+03  0.69590E+04
 0.13914999E+03  0.67580E+04
 0.13920000E+03  0.65720E+04
 0.13924998E+03  0.63730E+04
 0.13929999E+03  0.62190E+04
 0.13934999E+03  0.60380E+04
 0.13939999E+03  0.57760E+04
 0.13945000E+03  0.55720E+04
 0.13949998E+03  0.54260E+04
 0.13954999E+03  0.52620E+04
 0.13959999E+03  0.50300E+04
 0.13964999E+03  0.47630E+04
 0.13970000E+03  0.45620E+04
 0.13974998E+03  0.44530E+04
 0.13979999E+03  0.43010E+04
 0.13984999E+03  0.40340E+04
 0.13989999E+03  0.37820E+04
 0.13995000E+03  0.36330E+04
 0.13999998E+03  0.35160E+04
 0.14004999E+03  0.33170E+04
 0.14009999E+03  0.30870E+04
 0.14014999E+03  0.29080E+04
 0.14020000E+03  0.27870E+04
 0.14024998E+03  0.26490E+04
 0.14029999E+03  0.24520E+04
 0.14034999E+03  0.22620E+04
 0.14039999E+03  0.21140E+04
 0.14045000E+03  0.20070E+04
 0.14049998E+03  0.18710E+04
 0.14054999E+03  0.16850E+04
 0.14059999E+03  0.15060E+04
 0.14064999E+03  0.13690E+04
 0.14070000E+03  0.12700E+04
 0.14074998E+03  0.11250E+04
 0.14079999E+03  0.93700E+03
 0.14084999E+03  0.77800E+03
 0.14089999E+03  0.66700E+03
 0.14095000E+03  0.56600E+03
 0.14099998E+03  0.41200E+03
 0.14104999E+03  0.23300E+03
 0.14109999E+03  0.11400E+03
 0.14114999E+03  0.32000E+02
 0.14120000E+03 -0.82000E+02
 0.14124998E+03 -0.23500E+03
 0.14129999E+03 -0.37500E+03
 0.14134999E+03 -0.46200E+03
 0.14139999E+03 -0.53800E+03
 0.14145000E+03 -0.65600E+03
 0.14149998E+03 -0.79100E+03
 0.14154999E+03 -0.89300E+03
 0.14159999E+03 -0.96600E+03
 0.14164999E+03 -0.10560E+04
 0.14170000E+03 -0.11820E+04
 0.14174998E+03 -0.12960E+04
 0.14179999E+03 -0.13800E+04
 0.14184999E+03 -0.14620E+04
 0.14189999E+03 -0.15680E+04
 0.14195000E+03 -0.17010E+04
 0.14199998E+03 -0.18070E+04
 0.14204999E+03 -0.18790E+04
 0.14209999E+03 -0.19730E+04
 0.14214999E+03 -0.20910E+04
 0.14220000E+03 -0.22050E+04
 0.14224998E+03 -0.22930E+04
 0.14229999E+03 -0.23690E+04
 0.14234999E+03 -0.24670E+04
 0.14239999E+03 -0.25580E+04
 0.14245000E+03 -0.26340E+04
 0.14249998E+03 -0.27120E+04
 0.14254999E+03 -0.27900E+04
 0.14259999E+03 -0.28590E+04
 0.14264999E+03 -0.29210E+04
 0.14270000E+03 -0.29830E+04
 0.14274998E+03 -0.30420E+04
 0.14279999E+03 -0.30940E+04
 0.14284999E+03 -0.31350E+04
 0.14289999E+03 -0.31790E+04
 0.14295000E+03 -0.32270E+04
 0.14299998E+03 -0.32620E+04
 0.14304999E+03 -0.32820E+04
 0.14309999E+03 -0.33030E+04
 0.14314999E+03 -0.33240E+04
 0.14320000E+03 -0.33430E+04
 0.14324998E+03 -0.33630E+04
 0.14329999E+03 -0.33710E+04
 0.14334999E+03 -0.33730E+04
 0.14339999E+03 -0.33660E+04
 0.14345000E+03 -0.33650E+04
 0.14349998E+03 -0.33740E+04
 0.14354999E+03 -0.33640E+04
 0.14359999E+03 -0.33390E+04
 0.14364999E+03 -0.33230E+04
 0.14370000E+03 -0.33220E+04
 0.14374998E+03 -0.33040E+04
 0.14379999E+03 -0.32720E+04
 0.14384999E+03 -0.32480E+04
 0.14389999E+03 -0.32250E+04
 0.14395000E+03 -0.31980E+04
 0.14399998E+03 -0.31740E+04
 0.14404999E+03 -0.31530E+04
 0.14409999E+03 -0.31250E+04
 0.14414999E+03 -0.30970E+04
 0.14420000E+03 -0.30710E+04
 0.14424998E+03 -0.30510E+04
 0.14429999E+03 -0.30400E+04
 0.14434999E+03 -0.30220E+04
 0.14439999E+03 -0.30070E+04
 0.14445000E+03 -0.29970E+04
 0.14449998E+03 -0.29920E+04
 0.14454999E+03 -0.29940E+04
 0.14459999E+03 -0.29950E+04
 0.14464999E+03 -0.30040E+04
 0.14470000E+03 -0.30180E+04
 0.14474998E+03 -0.30360E+04
 0.14479999E+03 -0.30540E+04
 0.14484999E+03 -0.30800E+04
 0.14489999E+03 -0.31130E+04
 0.14495000E+03 -0.31440E+04
 0.14499998E+03 -0.31800E+04
 0.14504999E+03 -0.32140E+04
 0.14509999E+03 -0.32620E+04
 0.14514999E+03 -0.33150E+04
 0.14520000E+03 -0.33580E+04
 0.14524998E+03 -0.34080E+04
 0.14529999E+03 -0.34640E+04
 0.14534999E+03 -0.35300E+04
 0.14539999E+03 -0.35900E+04
 0.14545000E+03 -0.36410E+04
 0.14549998E+03 -0.37060E+04
 0.14554999E+03 -0.37750E+04
 0.14559999E+03 -0.38470E+04
 0.14564999E+03 -0.39150E+04
 0.14570000E+03 -0.39800E+04
 0.14574998E+03 -0.40610E+04
 0.14579999E+03 -0.41470E+04
 0.14584999E+03 -0.42220E+04
 0.14589999E+03 -0.42900E+04
 0.14595000E+03 -0.43730E+04
 0.14599998E+03 -0.44690E+04
 0.14604999E+03 -0.45620E+04
 0.14609999E+03 -0.46460E+04
 0.14614999E+03 -0.47220E+04
 0.14620000E+03 -0.48190E+04
 0.14624998E+03 -0.49300E+04
 0.14629999E+03 -0.50270E+04
 0.14634999E+03 -0.51130E+04
 0.14639999E+03 -0.52090E+04
 0.14645000E+03 -0.53230E+04
 0.14649998E+03 -0.54330E+04
 0.14654999E+03 -0.55300E+04
 0.14659999E+03 -0.56230E+04
 0.14664999E+03 -0.57290E+04
 0.14670000E+03 -0.58450E+04
 0.14674998E+03 -0.59440E+04
 0.14679999E+03 -0.60290E+04
 0.14684999E+03 -0.61210E+04
 0.14689999E+03 -0.62240E+04
 0.14695000E+03 -0.63270E+04
 0.14699998E+03 -0.64020E+04
 0.14704999E+03 -0.64740E+04
 0.14709999E+03 -0.65560E+04
 0.14714999E+03 -0.66420E+04
 0.14720000E+03 -0.67240E+04
 0.14724998E+03 -0.67860E+04
 0.14729999E+03 -0.68410E+04
 0.14734999E+03 -0.69050E+04
 0.14739999E+03 -0.69760E+04
 0.14745000E+03 -0.70300E+04
 0.14749998E+03 -0.70660E+04
 0.14754999E+03 -0.71080E+04
 0.14759999E+03 -0.71590E+04
 0.14764999E+03 -0.72080E+04
 0.14770000E+03 -0.72360E+04
 0.14774998E+03 -0.72530E+04
 0.14779999E+03 -0.72900E+04
 0.14784999E+03 -0.73280E+04
 0.14789999E+03 -0.73380E+04
 0.14795000E+03 -0.73380E+04
 0.14799998E+03 -0.73430E+04
 0.14804999E+03 -0.73540E+04
 0.14809999E+03 -0.73510E+04
 0.14814999E+03 -0.73290E+04
 0.14820000E+03 -0.72960E+04
 0.14824998E+03 -0.72660E+04
 0.14829999E+03 -0.72380E+04
 0.14834999E+03 -0.71840E+04
 0.14839999E+03 -0.71180E+04
 0.14845000E+03 -0.70620E+04
 0.14849998E+03 -0.70010E+04
 0.14854999E+03 -0.69230E+04
 0.14859999E+03 -0.68400E+04
 0.14864999E+03 -0.67510E+04
 0.14870000E+03 -0.66600E+04
 0.14874998E+03 -0.65750E+04
 0.14879999E+03 -0.64770E+04
 0.14884999E+03 -0.63730E+04
 0.14889999E+03 -0.62660E+04
 0.14895000E+03 -0.61630E+04
 0.14899998E+03 -0.60500E+04
 0.14904999E+03 -0.59260E+04
 0.14909999E+03 -0.58100E+04
 0.14914999E+03 -0.56810E+04
 0.14920000E+03 -0.55520E+04
 0.14924998E+03 -0.54090E+04
 0.14929999E+03 -0.52500E+04
 0.14934999E+03 -0.51030E+04
 0.14939999E+03 -0.49500E+04
 0.14945000E+03 -0.47850E+04
 0.14949998E+03 -0.46040E+04
 0.14954999E+03 -0.44190E+04
 0.14959999E+03 -0.42320E+04
 0.14964999E+03 -0.40430E+04
 0.14970000E+03 -0.38510E+04
 0.14974998E+03 -0.36360E+04
 0.14979999E+03 -0.34130E+04
 0.14984999E+03 -0.31970E+04
 0.14989999E+03 -0.29930E+04
 0.14995000E+03 -0.27740E+04
