-0.30000000E+01  0.49981E+05
-0.29500000E+01  0.41378E+05
-0.29000001E+01  0.30730E+05
-0.28499999E+01  0.18255E+05
-0.28000000E+01  0.45340E+04
-0.27500000E+01 -0.10411E+05
-0.27000000E+01 -0.25693E+05
-0.26500001E+01 -0.40576E+05
-0.25999999E+01 -0.54684E+05
-0.25500000E+01 -0.67900E+05
-0.25000000E+01 -0.80026E+05
-0.24500000E+01 -0.90458E+05
-0.24000001E+01 -0.98922E+05
-0.23499999E+01 -0.10487E+06
-0.23000000E+01 -0.10787E+06
-0.22500000E+01 -0.10814E+06
-0.22000000E+01 -0.10588E+06
-0.21500001E+01 -0.10120E+06
-0.20999999E+01 -0.94290E+05
-0.20500000E+01 -0.85498E+05
-0.20000000E+01 -0.75415E+05
-0.19499999E+01 -0.64789E+05
-0.19000000E+01 -0.54171E+05
-0.18500000E+01 -0.43643E+05
-0.18000000E+01 -0.33112E+05
-0.17500000E+01 -0.22890E+05
-0.16999999E+01 -0.13487E+05
-0.16500000E+01 -0.44210E+04
-0.16000000E+01  0.46350E+04
-0.15500000E+01  0.13306E+05
-0.15000000E+01  0.22128E+05
-0.14499999E+01  0.30704E+05
-0.14000000E+01  0.39070E+05
-0.13500000E+01  0.47536E+05
-0.13000000E+01  0.55331E+05
-0.12500000E+01  0.62433E+05
-0.11999999E+01  0.68744E+05
-0.11500000E+01  0.74621E+05
-0.11000000E+01  0.79680E+05
-0.10500000E+01  0.83569E+05
-0.10000000E+01  0.85769E+05
-0.95000005E+00  0.85424E+05
-0.89999986E+00  0.82705E+05
-0.84999990E+00  0.77130E+05
-0.79999995E+00  0.68925E+05
-0.75000000E+00  0.58105E+05
-0.70000005E+00  0.45278E+05
-0.64999986E+00  0.31387E+05
-0.59999990E+00  0.16464E+05
-0.54999995E+00  0.15630E+04
-0.50000000E+00 -0.13069E+05
-0.45000005E+00 -0.27464E+05
-0.39999986E+00 -0.40501E+05
-0.34999990E+00 -0.50706E+05
-0.29999995E+00 -0.57536E+05
-0.25000000E+00 -0.60610E+05
-0.20000005E+00 -0.59263E+05
-0.14999986E+00 -0.54297E+05
-0.99999905E-01 -0.46111E+05
-0.49999952E-01 -0.35417E+05
 0.00000000E+00 -0.22981E+05
 0.49999952E-01 -0.89150E+04
 0.10000014E+00  0.60850E+04
 0.15000010E+00  0.21202E+05
 0.20000005E+00  0.34988E+05
 0.25000000E+00  0.46996E+05
 0.29999995E+00  0.56565E+05
 0.35000014E+00  0.63499E+05
 0.40000010E+00  0.67528E+05
 0.45000005E+00  0.68497E+05
 0.50000000E+00  0.66604E+05
 0.54999995E+00  0.61742E+05
 0.60000014E+00  0.54401E+05
 0.65000010E+00  0.44245E+05
 0.70000005E+00  0.33062E+05
 0.75000000E+00  0.20944E+05
 0.79999995E+00  0.86920E+04
 0.85000014E+00 -0.29540E+04
 0.90000010E+00 -0.14729E+05
 0.95000005E+00 -0.24618E+05
 0.10000000E+01 -0.33224E+05
 0.10500002E+01 -0.40397E+05
 0.10999999E+01 -0.46204E+05
 0.11500001E+01 -0.51398E+05
 0.12000003E+01 -0.55845E+05
 0.12500000E+01 -0.60170E+05
 0.13000002E+01 -0.64202E+05
 0.13499999E+01 -0.68422E+05
 0.14000001E+01 -0.72316E+05
 0.14500003E+01 -0.75450E+05
 0.15000000E+01 -0.78094E+05
 0.15500002E+01 -0.79565E+05
 0.15999999E+01 -0.79731E+05
 0.16500001E+01 -0.78601E+05
 0.17000003E+01 -0.76081E+05
 0.17500000E+01 -0.72016E+05
 0.18000002E+01 -0.66457E+05
 0.18499999E+01 -0.59798E+05
 0.19000001E+01 -0.51896E+05
 0.19500003E+01 -0.42820E+05
 0.20000000E+01 -0.32854E+05
 0.20500002E+01 -0.22358E+05
 0.20999999E+01 -0.10997E+05
 0.21500001E+01  0.10360E+04
 0.22000003E+01  0.12778E+05
 0.22500000E+01  0.24450E+05
 0.23000002E+01  0.35538E+05
 0.23499999E+01  0.45910E+05
 0.24000001E+01  0.55459E+05
 0.24500003E+01  0.63695E+05
 0.25000000E+01  0.70974E+05
 0.25500002E+01  0.77110E+05
 0.25999999E+01  0.82378E+05
 0.26500001E+01  0.86495E+05
 0.27000003E+01  0.89541E+05
 0.27500000E+01  0.91442E+05
 0.28000002E+01  0.91697E+05
 0.28499999E+01  0.91166E+05
 0.29000001E+01  0.89385E+05
 0.29500003E+01  0.86426E+05
 0.30000000E+01  0.82789E+05
 0.30500002E+01  0.77993E+05
 0.30999999E+01  0.71688E+05
 0.31500001E+01  0.63540E+05
 0.32000003E+01  0.53347E+05
 0.32500000E+01  0.41440E+05
 0.33000002E+01  0.28293E+05
 0.33499999E+01  0.14210E+05
 0.34000001E+01 -0.31200E+03
 0.34500003E+01 -0.14445E+05
 0.35000000E+01 -0.27364E+05
 0.35500002E+01 -0.39588E+05
 0.35999999E+01 -0.50065E+05
 0.36500001E+01 -0.59082E+05
 0.37000003E+01 -0.66607E+05
 0.37500000E+01 -0.71530E+05
 0.38000002E+01 -0.74539E+05
 0.38499999E+01 -0.74887E+05
 0.39000001E+01 -0.73707E+05
 0.39500003E+01 -0.70469E+05
 0.40000000E+01 -0.65597E+05
 0.40500002E+01 -0.60142E+05
 0.40999999E+01 -0.53621E+05
 0.41500001E+01 -0.46720E+05
 0.42000003E+01 -0.38747E+05
 0.42500000E+01 -0.30804E+05
 0.43000002E+01 -0.22937E+05
 0.43499999E+01 -0.15673E+05
 0.44000001E+01 -0.99220E+04
 0.44500003E+01 -0.53520E+04
 0.45000000E+01 -0.23050E+04
 0.45500002E+01 -0.50300E+03
 0.45999999E+01 -0.12900E+03
 0.46500001E+01 -0.54300E+03
 0.47000003E+01 -0.17630E+04
 0.47500000E+01 -0.39530E+04
 0.48000002E+01 -0.64520E+04
 0.48499999E+01 -0.86410E+04
 0.49000001E+01 -0.10242E+05
 0.49500003E+01 -0.11847E+05
 0.50000000E+01 -0.12950E+05
 0.50500002E+01 -0.13570E+05
 0.51000004E+01 -0.13679E+05
 0.51500006E+01 -0.12584E+05
 0.51999998E+01 -0.11024E+05
 0.52500000E+01 -0.90220E+04
 0.53000002E+01 -0.60800E+04
 0.53500004E+01 -0.21580E+04
 0.54000006E+01  0.23650E+04
 0.54499998E+01  0.74350E+04
 0.55000000E+01  0.12739E+05
 0.55500002E+01  0.17759E+05
 0.56000004E+01  0.22487E+05
 0.56500006E+01  0.26029E+05
 0.56999998E+01  0.28561E+05
 0.57500000E+01  0.29736E+05
 0.58000002E+01  0.29450E+05
 0.58500004E+01  0.27929E+05
 0.59000006E+01  0.24711E+05
 0.59499998E+01  0.20557E+05
 0.60000000E+01  0.15699E+05
 0.60500002E+01  0.10580E+05
 0.61000004E+01  0.54000E+04
 0.61500006E+01  0.44000E+02
 0.61999998E+01 -0.56360E+04
 0.62500000E+01 -0.10888E+05
 0.63000002E+01 -0.15468E+05
 0.63500004E+01 -0.19781E+05
 0.64000006E+01 -0.22968E+05
 0.64499998E+01 -0.25401E+05
 0.65000000E+01 -0.26652E+05
 0.65500002E+01 -0.26557E+05
 0.66000004E+01 -0.24585E+05
 0.66500006E+01 -0.20453E+05
 0.66999998E+01 -0.15179E+05
 0.67500000E+01 -0.79300E+04
 0.68000002E+01  0.73500E+03
 0.68500004E+01  0.10815E+05
 0.69000006E+01  0.22016E+05
 0.69499998E+01  0.33566E+05
 0.70000000E+01  0.45102E+05
 0.70500002E+01  0.55984E+05
 0.71000004E+01  0.66045E+05
 0.71500006E+01  0.74564E+05
 0.71999998E+01  0.81852E+05
 0.72500000E+01  0.86374E+05
 0.73000002E+01  0.89414E+05
 0.73500004E+01  0.90132E+05
 0.74000006E+01  0.87186E+05
 0.74499998E+01  0.82633E+05
 0.75000000E+01  0.75068E+05
 0.75500002E+01  0.65352E+05
 0.76000004E+01  0.53869E+05
 0.76500006E+01  0.40981E+05
 0.76999998E+01  0.26353E+05
 0.77500000E+01  0.12126E+05
 0.78000002E+01 -0.23100E+04
 0.78500004E+01 -0.17773E+05
 0.79000006E+01 -0.30467E+05
 0.79499998E+01 -0.42281E+05
 0.80000000E+01 -0.51733E+05
 0.80500002E+01 -0.58367E+05
 0.81000004E+01 -0.63056E+05
 0.81500006E+01 -0.65606E+05
 0.81999998E+01 -0.65157E+05
 0.82500000E+01 -0.62480E+05
 0.83000002E+01 -0.59702E+05
 0.83500004E+01 -0.54673E+05
 0.84000006E+01 -0.49157E+05
 0.84499998E+01 -0.43315E+05
 0.85000000E+01 -0.36823E+05
 0.85500002E+01 -0.30874E+05
 0.86000004E+01 -0.25071E+05
 0.86500006E+01 -0.20457E+05
 0.86999998E+01 -0.17418E+05
 0.87500000E+01 -0.16143E+05
 0.88000002E+01 -0.16555E+05
 0.88500004E+01 -0.18469E+05
 0.89000006E+01 -0.21976E+05
 0.89499998E+01 -0.26328E+05
 0.90000000E+01 -0.31058E+05
 0.90500002E+01 -0.35997E+05
 0.91000004E+01 -0.40213E+05
 0.91500006E+01 -0.43378E+05
 0.91999998E+01 -0.45378E+05
 0.92500000E+01 -0.45872E+05
 0.93000002E+01 -0.44820E+05
 0.93500004E+01 -0.41780E+05
 0.94000006E+01 -0.37024E+05
 0.94499998E+01 -0.30896E+05
 0.95000000E+01 -0.23229E+05
 0.95500002E+01 -0.14357E+05
 0.96000004E+01 -0.41250E+04
 0.96500006E+01  0.66140E+04
 0.96999998E+01  0.17563E+05
 0.97500000E+01  0.28626E+05
 0.98000002E+01  0.39031E+05
 0.98500004E+01  0.48872E+05
 0.99000006E+01  0.57302E+05
 0.99499998E+01  0.64234E+05
 0.10000000E+02  0.69055E+05
 0.10050000E+02  0.71382E+05
 0.10100000E+02  0.71370E+05
 0.10150001E+02  0.69238E+05
 0.10200000E+02  0.64786E+05
 0.10250000E+02  0.57692E+05
 0.10300000E+02  0.49107E+05
 0.10350000E+02  0.38920E+05
 0.10400001E+02  0.28246E+05
 0.10450000E+02  0.17456E+05
 0.10500000E+02  0.66710E+04
 0.10550000E+02 -0.34800E+04
 0.10600000E+02 -0.12877E+05
 0.10650001E+02 -0.21091E+05
 0.10700000E+02 -0.28157E+05
 0.10750000E+02 -0.32818E+05
 0.10800000E+02 -0.35372E+05
 0.10850000E+02 -0.35677E+05
 0.10900001E+02 -0.33855E+05
 0.10950000E+02 -0.30758E+05
 0.11000000E+02 -0.25964E+05
 0.11050000E+02 -0.20023E+05
 0.11100000E+02 -0.13634E+05
 0.11150001E+02 -0.74880E+04
 0.11200000E+02 -0.18920E+04
 0.11250000E+02  0.24850E+04
 0.11300000E+02  0.57200E+04
 0.11350000E+02  0.78040E+04
 0.11400001E+02  0.88730E+04
 0.11450000E+02  0.98220E+04
 0.11500000E+02  0.10179E+05
 0.11550000E+02  0.10061E+05
 0.11600000E+02  0.96310E+04
 0.11650001E+02  0.87670E+04
 0.11700000E+02  0.72530E+04
 0.11750000E+02  0.56180E+04
 0.11800000E+02  0.42260E+04
 0.11850000E+02  0.28680E+04
 0.11900001E+02  0.17340E+04
 0.11950000E+02  0.31000E+03
 0.12000000E+02 -0.13370E+04
 0.12050000E+02 -0.31570E+04
 0.12100000E+02 -0.53100E+04
 0.12150001E+02 -0.79170E+04
 0.12200000E+02 -0.10170E+05
 0.12250000E+02 -0.11628E+05
 0.12300000E+02 -0.12440E+05
 0.12350000E+02 -0.12385E+05
 0.12400001E+02 -0.11276E+05
 0.12450000E+02 -0.87860E+04
 0.12500000E+02 -0.50680E+04
 0.12550000E+02 -0.21300E+03
 0.12600000E+02  0.50930E+04
 0.12650001E+02  0.11263E+05
 0.12700000E+02  0.17265E+05
 0.12750000E+02  0.22279E+05
 0.12800000E+02  0.27272E+05
 0.12850000E+02  0.31445E+05
 0.12900001E+02  0.34121E+05
 0.12950000E+02  0.34895E+05
 0.13000000E+02  0.33911E+05
 0.13050001E+02  0.30608E+05
 0.13100000E+02  0.24839E+05
 0.13150000E+02  0.16837E+05
 0.13200001E+02  0.65440E+04
 0.13250000E+02 -0.54400E+04
 0.13300001E+02 -0.18855E+05
 0.13350000E+02 -0.32720E+05
 0.13400000E+02 -0.46178E+05
 0.13450001E+02 -0.58638E+05
 0.13500000E+02 -0.69840E+05
 0.13550001E+02 -0.79571E+05
 0.13600000E+02 -0.87208E+05
 0.13650000E+02 -0.92163E+05
 0.13700001E+02 -0.93921E+05
 0.13750000E+02 -0.92463E+05
 0.13800001E+02 -0.87169E+05
 0.13850000E+02 -0.78057E+05
 0.13900000E+02 -0.65652E+05
 0.13950001E+02 -0.50210E+05
 0.14000000E+02 -0.32359E+05
 0.14050001E+02 -0.12886E+05
 0.14100000E+02  0.74040E+04
 0.14150000E+02  0.28100E+05
 0.14200001E+02  0.48336E+05
 0.14250000E+02  0.67725E+05
 0.14300001E+02  0.85055E+05
 0.14350000E+02  0.99762E+05
 0.14400000E+02  0.11173E+06
 0.14450001E+02  0.12021E+06
 0.14500000E+02  0.12626E+06
 0.14550001E+02  0.12927E+06
 0.14600000E+02  0.12878E+06
 0.14650000E+02  0.12516E+06
 0.14700001E+02  0.11853E+06
 0.14750000E+02  0.10911E+06
 0.14800001E+02  0.96953E+05
 0.14850000E+02  0.83048E+05
 0.14900000E+02  0.67782E+05
 0.14950001E+02  0.52180E+05
 0.15000000E+02  0.36804E+05
 0.15050001E+02  0.21675E+05
 0.15100000E+02  0.77930E+04
 0.15150000E+02 -0.46350E+04
 0.15200001E+02 -0.15606E+05
 0.15250000E+02 -0.24769E+05
 0.15300001E+02 -0.32248E+05
 0.15350000E+02 -0.38124E+05
 0.15400000E+02 -0.42450E+05
 0.15450001E+02 -0.45249E+05
 0.15500000E+02 -0.46582E+05
 0.15550001E+02 -0.46758E+05
 0.15600000E+02 -0.45635E+05
 0.15650000E+02 -0.43872E+05
 0.15700001E+02 -0.41760E+05
 0.15750000E+02 -0.39550E+05
 0.15800001E+02 -0.37762E+05
 0.15850000E+02 -0.36324E+05
 0.15900000E+02 -0.35793E+05
 0.15950001E+02 -0.36036E+05
 0.16000000E+02 -0.36949E+05
 0.16050001E+02 -0.38268E+05
 0.16100000E+02 -0.39738E+05
 0.16150000E+02 -0.41605E+05
 0.16200001E+02 -0.43717E+05
 0.16250000E+02 -0.45682E+05
 0.16300001E+02 -0.47330E+05
 0.16350000E+02 -0.48810E+05
 0.16400000E+02 -0.49740E+05
 0.16450001E+02 -0.50017E+05
 0.16500000E+02 -0.49610E+05
 0.16550001E+02 -0.48205E+05
 0.16600000E+02 -0.45539E+05
 0.16650000E+02 -0.41426E+05
 0.16700001E+02 -0.35737E+05
 0.16750000E+02 -0.28885E+05
 0.16800001E+02 -0.21187E+05
 0.16850000E+02 -0.12753E+05
 0.16900000E+02 -0.39090E+04
 0.16950001E+02  0.49870E+04
 0.17000000E+02  0.13379E+05
 0.17050001E+02  0.20825E+05
 0.17100000E+02  0.26720E+05
 0.17150000E+02  0.30891E+05
 0.17200001E+02  0.32773E+05
 0.17250000E+02  0.32504E+05
 0.17300001E+02  0.30188E+05
 0.17350000E+02  0.25749E+05
 0.17400000E+02  0.20189E+05
 0.17450001E+02  0.13930E+05
 0.17500000E+02  0.75880E+04
 0.17550001E+02  0.16260E+04
 0.17600000E+02 -0.38810E+04
 0.17650000E+02 -0.88750E+04
 0.17700001E+02 -0.12752E+05
 0.17750000E+02 -0.15542E+05
 0.17800001E+02 -0.17132E+05
 0.17850000E+02 -0.17144E+05
 0.17900000E+02 -0.15908E+05
 0.17950001E+02 -0.13096E+05
 0.18000000E+02 -0.89320E+04
 0.18050001E+02 -0.36160E+04
 0.18100000E+02  0.26490E+04
 0.18150000E+02  0.94250E+04
 0.18200001E+02  0.16087E+05
 0.18250000E+02  0.22343E+05
 0.18300001E+02  0.27901E+05
 0.18350000E+02  0.32590E+05
 0.18400000E+02  0.36848E+05
 0.18450001E+02  0.39821E+05
 0.18500000E+02  0.41205E+05
 0.18550001E+02  0.41500E+05
 0.18600000E+02  0.40767E+05
 0.18650000E+02  0.39048E+05
 0.18700001E+02  0.36685E+05
 0.18750000E+02  0.33549E+05
 0.18800001E+02  0.29246E+05
 0.18850000E+02  0.23863E+05
 0.18900000E+02  0.17463E+05
 0.18950001E+02  0.10475E+05
 0.19000000E+02  0.28830E+04
 0.19050001E+02 -0.50030E+04
 0.19100000E+02 -0.12877E+05
 0.19150000E+02 -0.20296E+05
 0.19200001E+02 -0.27086E+05
 0.19250000E+02 -0.33487E+05
 0.19300001E+02 -0.38722E+05
 0.19350000E+02 -0.42898E+05
 0.19400000E+02 -0.45568E+05
 0.19450001E+02 -0.46292E+05
 0.19500000E+02 -0.45238E+05
 0.19550001E+02 -0.42291E+05
 0.19600000E+02 -0.37318E+05
 0.19650000E+02 -0.30175E+05
 0.19700001E+02 -0.21303E+05
 0.19750000E+02 -0.10668E+05
 0.19800001E+02  0.11730E+04
 0.19850000E+02  0.13689E+05
 0.19900000E+02  0.26149E+05
 0.19950001E+02  0.37727E+05
 0.20000000E+02  0.48463E+05
 0.20050001E+02  0.57696E+05
 0.20100000E+02  0.65231E+05
 0.20150000E+02  0.70967E+05
 0.20200001E+02  0.74343E+05
 0.20250000E+02  0.75563E+05
 0.20300001E+02  0.74557E+05
 0.20350000E+02  0.70895E+05
 0.20400000E+02  0.65166E+05
 0.20450001E+02  0.57165E+05
 0.20500000E+02  0.47000E+05
 0.20550001E+02  0.35290E+05
 0.20600000E+02  0.23029E+05
 0.20650000E+02  0.10308E+05
 0.20700001E+02 -0.21550E+04
 0.20750000E+02 -0.13391E+05
 0.20800001E+02 -0.24663E+05
 0.20850000E+02 -0.33826E+05
 0.20900000E+02 -0.43089E+05
 0.20950001E+02 -0.50488E+05
 0.21000000E+02 -0.60596E+05
 0.21050001E+02 -0.78472E+05
 0.21100000E+02 -0.10440E+06
 0.21150000E+02 -0.13276E+06
 0.21200001E+02 -0.15836E+06
 0.21250000E+02 -0.17013E+06
 0.21300001E+02 -0.14541E+06
 0.21350000E+02 -0.11620E+06
 0.21400000E+02 -0.10092E+06
 0.21450001E+02 -0.91345E+05
 0.21500000E+02 -0.10749E+06
 0.21550001E+02 -0.19816E+06
 0.21600000E+02 -0.21227E+06
 0.21650000E+02 -0.21830E+06
 0.21700001E+02 -0.34736E+06
 0.21750000E+02 -0.33247E+06
 0.21800001E+02 -0.50593E+06
 0.21850000E+02 -0.60703E+06
 0.21900000E+02 -0.30107E+06
 0.21950001E+02 -0.36134E+06
 0.22000000E+02 -0.12026E+06
 0.22050001E+02  0.35407E+06
 0.22100000E+02  0.41236E+05
 0.22150000E+02  0.57100E+05
 0.22200001E+02  0.23147E+06
 0.22250000E+02  0.80753E+05
 0.22300001E+02  0.20948E+06
 0.22350000E+02  0.34120E+06
 0.22400000E+02  0.47973E+06
 0.22450001E+02  0.29006E+06
 0.22500000E+02  0.17623E+06
 0.22550001E+02  0.23990E+06
 0.22600000E+02  0.11067E+06
 0.22650000E+02  0.27077E+06
 0.22700001E+02  0.31794E+06
 0.22750000E+02  0.24666E+06
 0.22800001E+02  0.28576E+06
 0.22850000E+02  0.10205E+06
 0.22900000E+02 -0.78800E+03
 0.22950001E+02  0.14107E+06
 0.23000000E+02  0.43041E+05
 0.23050001E+02  0.36543E+05
 0.23100000E+02 -0.74437E+05
 0.23150000E+02 -0.17281E+06
 0.23200001E+02 -0.11641E+06
 0.23250000E+02 -0.12760E+06
 0.23300001E+02  0.18992E+06
 0.23350000E+02  0.10375E+06
 0.23400000E+02  0.31841E+06
 0.23450001E+02  0.45171E+06
 0.23500000E+02  0.12802E+06
 0.23550001E+02  0.40194E+06
 0.23600000E+02  0.96929E+05
 0.23650000E+02 -0.30245E+06
 0.23700001E+02 -0.28410E+06
 0.23750000E+02 -0.59203E+06
 0.23800001E+02 -0.83749E+06
 0.23850000E+02 -0.55582E+06
 0.23900000E+02 -0.21300E+06
 0.23950001E+02 -0.18120E+06
 0.24000000E+02  0.28026E+06
 0.24050001E+02  0.45087E+06
 0.24100000E+02  0.21046E+06
 0.24150000E+02  0.35075E+06
 0.24200001E+02  0.10798E+06
 0.24250000E+02  0.18587E+05
 0.24300001E+02  0.23697E+06
 0.24350000E+02  0.24274E+05
 0.24400000E+02  0.20625E+06
 0.24450001E+02  0.25906E+06
 0.24500000E+02  0.64400E+04
 0.24550001E+02  0.15890E+06
 0.24600000E+02 -0.19816E+06
 0.24650000E+02 -0.13172E+06
 0.24700001E+02  0.10106E+06
 0.24750000E+02 -0.24204E+06
 0.24800001E+02  0.79230E+05
 0.24850000E+02  0.55199E+05
 0.24900000E+02  0.78590E+04
 0.24950001E+02  0.20884E+06
 0.25000000E+02 -0.54484E+05
 0.25050001E+02  0.28530E+05
 0.25100000E+02 -0.53087E+05
 0.25150000E+02 -0.19327E+06
 0.25200001E+02  0.35283E+05
 0.25250000E+02  0.78523E+05
 0.25300001E+02  0.11511E+06
 0.25350000E+02  0.23578E+06
 0.25400000E+02  0.15718E+06
 0.25450001E+02  0.97042E+05
 0.25500000E+02  0.20640E+06
 0.25550001E+02  0.78330E+05
 0.25600000E+02 -0.11692E+06
 0.25650000E+02 -0.12011E+06
 0.25700001E+02 -0.25716E+06
 0.25750000E+02 -0.47126E+06
 0.25800001E+02 -0.33801E+06
 0.25850000E+02 -0.21128E+06
 0.25900000E+02 -0.22364E+06
 0.25950001E+02 -0.62090E+04
 0.26000000E+02 -0.16151E+05
 0.26050001E+02 -0.74479E+05
 0.26100000E+02  0.15720E+05
 0.26150000E+02 -0.96790E+04
 0.26200001E+02  0.76177E+05
 0.26250000E+02  0.19523E+06
 0.26300001E+02  0.15073E+06
 0.26350000E+02  0.50902E+05
 0.26400000E+02  0.61887E+05
 0.26450001E+02 -0.36626E+05
 0.26500000E+02 -0.17197E+06
 0.26550001E+02 -0.13221E+06
 0.26600000E+02 -0.15960E+06
 0.26650000E+02 -0.11984E+06
 0.26700001E+02  0.48682E+05
 0.26750000E+02  0.53486E+05
 0.26800001E+02  0.57398E+05
 0.26850000E+02  0.82693E+05
 0.26900000E+02  0.47700E+04
 0.26950001E+02 -0.76149E+05
 0.27000000E+02 -0.12554E+06
 0.27050001E+02 -0.23265E+05
 0.27100000E+02  0.69053E+05
 0.27150000E+02  0.14259E+06
 0.27200001E+02  0.32874E+06
 0.27250000E+02  0.40112E+06
 0.27300001E+02  0.30164E+06
 0.27350000E+02  0.18598E+06
 0.27400000E+02  0.96604E+05
 0.27450001E+02 -0.22721E+05
 0.27500000E+02 -0.12123E+05
 0.27550001E+02 -0.19640E+04
 0.27600000E+02 -0.90061E+05
 0.27650000E+02 -0.37031E+05
 0.27700001E+02 -0.19249E+06
 0.27750000E+02 -0.31036E+06
 0.27800001E+02 -0.29806E+06
 0.27850000E+02 -0.46819E+06
 0.27900000E+02 -0.33211E+06
 0.27950001E+02 -0.31959E+06
 0.28000000E+02 -0.40425E+06
 0.28050001E+02 -0.25599E+06
 0.28100000E+02 -0.25915E+06
 0.28150000E+02 -0.22137E+06
 0.28200001E+02 -0.13852E+06
 0.28250000E+02 -0.34159E+05
 0.28300001E+02 -0.26290E+05
 0.28350000E+02 -0.66386E+05
 0.28400000E+02  0.75742E+05
 0.28450001E+02  0.17055E+06
 0.28500000E+02  0.37795E+06
 0.28550001E+02  0.68065E+06
 0.28600000E+02  0.82736E+06
 0.28650000E+02  0.91707E+06
 0.28700001E+02  0.85687E+06
 0.28750000E+02  0.64225E+06
 0.28800001E+02  0.38137E+06
 0.28850000E+02  0.19152E+06
 0.28900000E+02  0.70603E+05
 0.28950001E+02  0.13380E+04
 0.29000000E+02  0.25787E+05
 0.29049999E+02  0.30109E+05
 0.29100002E+02  0.43780E+05
 0.29150002E+02  0.60868E+05
 0.29200001E+02  0.94774E+05
 0.29250000E+02  0.66605E+05
 0.29299999E+02  0.65648E+05
 0.29350002E+02  0.11432E+06
 0.29400002E+02  0.41392E+05
 0.29450001E+02  0.84733E+05
 0.29500000E+02  0.22050E+06
 0.29549999E+02  0.28265E+06
 0.29600002E+02  0.38824E+06
 0.29650002E+02  0.43904E+06
 0.29700001E+02  0.28571E+06
 0.29750000E+02  0.21149E+06
 0.29799999E+02  0.13761E+06
 0.29850002E+02  0.82514E+05
 0.29900002E+02  0.18143E+06
 0.29950001E+02  0.12222E+06
 0.30000000E+02  0.12363E+06
 0.30049999E+02  0.18408E+06
 0.30100002E+02  0.22179E+06
 0.30150002E+02  0.20793E+06
 0.30200001E+02  0.76831E+05
 0.30250000E+02 -0.12240E+05
 0.30299999E+02 -0.26032E+06
 0.30350002E+02 -0.42315E+06
 0.30400002E+02 -0.45564E+06
 0.30450001E+02 -0.55168E+06
 0.30500000E+02 -0.42974E+06
 0.30549999E+02 -0.31252E+06
 0.30600002E+02 -0.30173E+06
 0.30650002E+02 -0.20123E+06
 0.30700001E+02 -0.29830E+06
 0.30750000E+02 -0.52398E+06
 0.30799999E+02 -0.56350E+06
 0.30850002E+02 -0.55018E+06
 0.30900002E+02 -0.43757E+06
 0.30950001E+02 -0.22565E+06
 0.31000000E+02 -0.10928E+06
 0.31049999E+02  0.25397E+05
 0.31100002E+02  0.18600E+06
 0.31150002E+02  0.27263E+06
 0.31200001E+02  0.32230E+06
 0.31250000E+02  0.27698E+06
 0.31299999E+02  0.20145E+06
 0.31350002E+02  0.21495E+06
 0.31400002E+02  0.24666E+06
 0.31450001E+02  0.27973E+06
 0.31500000E+02  0.34380E+06
 0.31549999E+02  0.35065E+06
 0.31600002E+02  0.25942E+06
 0.31650002E+02  0.11244E+06
 0.31700001E+02 -0.10550E+04
 0.31750000E+02 -0.91606E+05
 0.31799999E+02 -0.23669E+06
 0.31850002E+02 -0.24319E+06
 0.31900002E+02 -0.23798E+06
 0.31950001E+02 -0.33279E+06
 0.32000000E+02 -0.28479E+06
 0.32049999E+02 -0.27905E+06
 0.32100002E+02 -0.35814E+06
 0.32150002E+02 -0.28589E+06
 0.32200001E+02 -0.16120E+06
 0.32250000E+02 -0.13064E+06
 0.32299999E+02 -0.10040E+06
 0.32350002E+02 -0.32517E+05
 0.32400002E+02  0.41830E+05
 0.32450001E+02  0.20316E+06
 0.32500000E+02  0.29555E+06
 0.32549999E+02  0.32258E+06
 0.32600002E+02  0.39779E+06
 0.32650002E+02  0.25877E+06
 0.32700001E+02  0.11177E+06
 0.32750000E+02  0.67417E+05
 0.32799999E+02 -0.66842E+05
 0.32850002E+02 -0.16201E+06
 0.32900002E+02 -0.23444E+06
 0.32950001E+02 -0.20670E+06
 0.33000000E+02 -0.72567E+05
 0.33049999E+02  0.12756E+06
 0.33100002E+02  0.35701E+06
 0.33150002E+02  0.45137E+06
 0.33200001E+02  0.44891E+06
 0.33250000E+02  0.34032E+06
 0.33299999E+02  0.22005E+06
 0.33350002E+02  0.11314E+06
 0.33400002E+02 -0.12216E+06
 0.33450001E+02 -0.23030E+06
 0.33500000E+02 -0.25782E+06
 0.33549999E+02 -0.38322E+06
 0.33600002E+02 -0.34362E+06
 0.33650002E+02 -0.32516E+06
 0.33700001E+02 -0.36529E+06
 0.33750000E+02 -0.34351E+06
 0.33799999E+02 -0.34160E+06
 0.33850002E+02 -0.18274E+06
 0.33900002E+02 -0.21990E+05
 0.33950001E+02  0.68857E+05
 0.34000000E+02  0.11791E+06
 0.34049999E+02  0.37343E+05
 0.34100002E+02 -0.20694E+05
 0.34150002E+02  0.21526E+05
 0.34200001E+02  0.17678E+06
 0.34250000E+02  0.30699E+06
 0.34299999E+02  0.29423E+06
 0.34350002E+02  0.20715E+06
 0.34400002E+02  0.92936E+05
 0.34450001E+02  0.13615E+05
 0.34500000E+02  0.23774E+05
 0.34549999E+02  0.63554E+05
 0.34600002E+02 -0.59728E+05
 0.34650002E+02 -0.19820E+06
 0.34700001E+02 -0.21411E+06
 0.34750000E+02 -0.22680E+06
 0.34799999E+02 -0.63045E+05
 0.34850002E+02  0.73944E+05
 0.34900002E+02  0.38143E+05
 0.34950001E+02  0.11707E+05
 0.35000000E+02 -0.22071E+06
 0.35049999E+02 -0.55970E+06
 0.35100002E+02 -0.88074E+06
 0.35150002E+02 -0.10787E+07
 0.35200001E+02 -0.10132E+07
 0.35250000E+02 -0.87495E+06
 0.35299999E+02 -0.50128E+06
 0.35350002E+02 -0.10264E+06
 0.35400002E+02  0.12070E+05
 0.35450001E+02 -0.56070E+05
 0.35500000E+02 -0.22798E+06
 0.35549999E+02 -0.20671E+06
 0.35600002E+02 -0.27740E+05
 0.35650002E+02  0.25512E+06
 0.35700001E+02  0.60623E+06
 0.35750000E+02  0.79944E+06
 0.35799999E+02  0.84345E+06
 0.35850002E+02  0.79100E+06
 0.35900002E+02  0.66351E+06
 0.35950001E+02  0.54453E+06
 0.36000000E+02  0.44195E+06
 0.36049999E+02  0.25271E+06
 0.36100002E+02  0.13128E+06
 0.36150002E+02  0.55889E+05
 0.36200001E+02 -0.30610E+05
 0.36250000E+02 -0.17858E+05
 0.36299999E+02 -0.14381E+05
 0.36350002E+02 -0.25190E+04
 0.36400002E+02 -0.66833E+05
 0.36450001E+02 -0.28673E+06
 0.36500000E+02 -0.59113E+06
 0.36549999E+02 -0.92096E+06
 0.36600002E+02 -0.12159E+07
 0.36650002E+02 -0.12886E+07
 0.36700001E+02 -0.11278E+07
 0.36750000E+02 -0.90693E+06
 0.36799999E+02 -0.45433E+06
 0.36850002E+02 -0.16322E+06
 0.36900002E+02 -0.25126E+06
 0.36950001E+02 -0.49891E+06
 0.37000000E+02 -0.86121E+06
 0.37049999E+02 -0.99495E+06
 0.37100002E+02 -0.97935E+06
 0.37150002E+02 -0.78321E+06
 0.37200001E+02 -0.46125E+06
 0.37250000E+02 -0.25798E+06
 0.37299999E+02 -0.23332E+05
 0.37350002E+02  0.19247E+06
 0.37400002E+02  0.42895E+06
 0.37450001E+02  0.51539E+06
 0.37500000E+02  0.33122E+06
 0.37549999E+02  0.15757E+06
 0.37600002E+02  0.17062E+06
 0.37650002E+02  0.43908E+06
 0.37700001E+02  0.57997E+06
 0.37750000E+02  0.41977E+06
 0.37799999E+02  0.19943E+06
 0.37850002E+02 -0.66398E+05
 0.37900002E+02 -0.19101E+06
 0.37950001E+02 -0.61684E+05
 0.38000000E+02  0.51032E+05
 0.38049999E+02 -0.73049E+05
 0.38100002E+02 -0.18172E+06
 0.38150002E+02 -0.16625E+06
 0.38200001E+02 -0.13388E+06
 0.38250000E+02  0.13276E+06
 0.38299999E+02  0.32522E+06
 0.38350002E+02  0.58554E+05
 0.38400002E+02 -0.31088E+06
 0.38450001E+02 -0.30409E+06
 0.38500000E+02 -0.64004E+05
 0.38549999E+02  0.15436E+06
 0.38600002E+02  0.25984E+06
 0.38650002E+02  0.26981E+05
 0.38700001E+02 -0.20144E+06
 0.38750000E+02 -0.24782E+06
 0.38799999E+02 -0.24737E+06
 0.38850002E+02 -0.24070E+06
 0.38900002E+02 -0.35316E+06
 0.38950001E+02 -0.44519E+06
 0.39000000E+02 -0.40102E+06
 0.39049999E+02 -0.16768E+05
 0.39100002E+02  0.54832E+06
 0.39150002E+02  0.86308E+06
 0.39200001E+02  0.93268E+06
 0.39250000E+02  0.84799E+06
 0.39299999E+02  0.74522E+06
 0.39350002E+02  0.63790E+06
 0.39400002E+02  0.56565E+06
 0.39450001E+02  0.63894E+06
 0.39500000E+02  0.67000E+06
 0.39549999E+02  0.55573E+06
 0.39600002E+02  0.57552E+06
 0.39650002E+02  0.73647E+06
 0.39700001E+02  0.67776E+06
 0.39750000E+02  0.40317E+06
 0.39799999E+02  0.17313E+06
 0.39850002E+02  0.14676E+06
 0.39900002E+02  0.24224E+06
 0.39950001E+02  0.35892E+06
 0.40000000E+02  0.44736E+06
 0.40049999E+02  0.39217E+06
 0.40100002E+02  0.32050E+06
 0.40150002E+02  0.36514E+06
 0.40200001E+02  0.51297E+06
 0.40250000E+02  0.81974E+06
 0.40299999E+02  0.98852E+06
 0.40350002E+02  0.72910E+06
 0.40400002E+02  0.42611E+06
 0.40450001E+02  0.29506E+06
 0.40500000E+02  0.22909E+06
 0.40549999E+02  0.14051E+06
 0.40600002E+02  0.14304E+06
 0.40650002E+02  0.19484E+06
 0.40700001E+02  0.25381E+05
 0.40750000E+02  0.21600E+04
 0.40799999E+02 -0.20021E+05
 0.40850002E+02 -0.12561E+06
 0.40900002E+02  0.41887E+05
 0.40950001E+02  0.15810E+06
 0.41000000E+02  0.34328E+06
 0.41049999E+02  0.55589E+06
 0.41100002E+02  0.61062E+06
 0.41150002E+02  0.69854E+06
 0.41200001E+02  0.64817E+06
 0.41250000E+02  0.54140E+06
 0.41299999E+02  0.53128E+06
 0.41350002E+02  0.44555E+06
 0.41400002E+02  0.98221E+05
 0.41450001E+02 -0.40384E+06
 0.41500000E+02 -0.80504E+06
 0.41549999E+02 -0.10275E+07
 0.41600002E+02 -0.95508E+06
 0.41650002E+02 -0.63033E+06
 0.41700001E+02 -0.23856E+06
 0.41750000E+02  0.29519E+05
 0.41799999E+02  0.80130E+04
 0.41850002E+02 -0.24841E+06
 0.41900002E+02 -0.60419E+06
 0.41950001E+02 -0.82813E+06
 0.42000000E+02 -0.85237E+06
 0.42049999E+02 -0.74416E+06
 0.42100002E+02 -0.45291E+06
 0.42150002E+02 -0.10630E+06
 0.42200001E+02  0.16134E+06
 0.42250000E+02  0.22197E+06
 0.42299999E+02  0.13667E+06
 0.42350002E+02  0.13765E+06
 0.42400002E+02  0.20243E+06
 0.42450001E+02  0.25850E+06
 0.42500000E+02  0.12206E+06
 0.42549999E+02 -0.63972E+05
 0.42600002E+02  0.46027E+05
 0.42650002E+02  0.25200E+06
 0.42700001E+02  0.29716E+06
 0.42750000E+02  0.19371E+06
 0.42799999E+02 -0.18420E+04
 0.42850002E+02 -0.20993E+06
 0.42900002E+02 -0.31997E+06
 0.42950001E+02 -0.31817E+06
 0.43000000E+02 -0.21348E+06
 0.43049999E+02  0.22450E+04
 0.43100002E+02  0.16799E+06
 0.43150002E+02  0.19581E+06
 0.43200001E+02  0.16854E+06
 0.43250000E+02  0.33063E+05
 0.43299999E+02 -0.16652E+06
 0.43350002E+02 -0.32081E+06
 0.43400002E+02 -0.39617E+06
 0.43450001E+02 -0.33756E+06
 0.43500000E+02 -0.20637E+06
 0.43549999E+02 -0.41260E+05
 0.43600002E+02  0.13512E+06
 0.43650002E+02  0.26529E+06
 0.43700001E+02  0.32172E+06
 0.43750000E+02  0.25056E+06
 0.43799999E+02  0.35887E+05
 0.43850002E+02 -0.23321E+06
 0.43900002E+02 -0.41447E+06
 0.43950001E+02 -0.42164E+06
 0.44000000E+02 -0.33228E+06
 0.44049999E+02 -0.28811E+06
 0.44100002E+02 -0.37051E+06
 0.44150002E+02 -0.41574E+06
 0.44200001E+02 -0.27687E+06
 0.44250000E+02 -0.46047E+05
 0.44299999E+02  0.22242E+06
 0.44350002E+02  0.41410E+06
 0.44400002E+02  0.51598E+06
 0.44450001E+02  0.46559E+06
 0.44500000E+02  0.29224E+06
 0.44549999E+02  0.20317E+06
 0.44600002E+02  0.11954E+06
 0.44650002E+02  0.62721E+05
 0.44700001E+02  0.10471E+06
 0.44750000E+02  0.12104E+06
 0.44799999E+02  0.13157E+06
 0.44850002E+02  0.27279E+06
 0.44900002E+02  0.38764E+06
 0.44950001E+02  0.37016E+06
 0.45000000E+02  0.26840E+06
 0.45049999E+02 -0.22836E+05
 0.45100002E+02 -0.37693E+06
 0.45150002E+02 -0.59544E+06
 0.45200001E+02 -0.57951E+06
 0.45250000E+02 -0.33082E+06
 0.45299999E+02 -0.21345E+05
 0.45350002E+02  0.28119E+06
 0.45400002E+02  0.41172E+06
 0.45450001E+02  0.36620E+06
 0.45500000E+02  0.39318E+06
 0.45549999E+02  0.36669E+06
 0.45600002E+02  0.21432E+06
 0.45650002E+02  0.74180E+04
 0.45700001E+02 -0.27596E+06
 0.45750000E+02 -0.44790E+06
 0.45799999E+02 -0.37196E+06
 0.45850002E+02 -0.15909E+06
 0.45900002E+02  0.14044E+05
 0.45950001E+02  0.11311E+06
 0.46000000E+02  0.17179E+06
 0.46049999E+02  0.15518E+06
 0.46100002E+02  0.10312E+06
 0.46150002E+02  0.77673E+05
 0.46200001E+02  0.86319E+05
 0.46250000E+02  0.51371E+05
 0.46299999E+02 -0.72900E+05
 0.46350002E+02 -0.21984E+06
 0.46400002E+02 -0.35730E+06
 0.46450001E+02 -0.45819E+06
 0.46500000E+02 -0.56513E+06
 0.46549999E+02 -0.62835E+06
 0.46600002E+02 -0.53286E+06
 0.46650002E+02 -0.33929E+06
 0.46700001E+02 -0.83296E+05
 0.46750000E+02  0.19258E+06
 0.46799999E+02  0.38075E+06
 0.46850002E+02  0.41831E+06
 0.46900002E+02  0.31243E+06
 0.46950001E+02  0.14367E+06
 0.47000000E+02  0.78406E+05
 0.47049999E+02  0.75200E+05
 0.47100002E+02  0.43651E+05
 0.47150002E+02 -0.18028E+05
 0.47200001E+02 -0.15367E+06
 0.47250000E+02 -0.24172E+06
 0.47299999E+02 -0.35665E+06
 0.47350002E+02 -0.48477E+06
 0.47400002E+02 -0.53930E+06
 0.47450001E+02 -0.59031E+06
 0.47500000E+02 -0.53027E+06
 0.47549999E+02 -0.43169E+06
 0.47600002E+02 -0.40442E+06
 0.47650002E+02 -0.36448E+06
 0.47700001E+02 -0.29076E+06
 0.47750000E+02 -0.25356E+06
 0.47799999E+02 -0.21970E+06
 0.47850002E+02 -0.12505E+06
 0.47900002E+02 -0.14101E+05
 0.47950001E+02  0.52251E+05
 0.48000000E+02  0.13014E+06
 0.48049999E+02  0.18788E+06
 0.48100002E+02  0.11594E+06
 0.48150002E+02  0.11656E+05
 0.48200001E+02 -0.90596E+05
 0.48250000E+02 -0.15891E+06
 0.48299999E+02 -0.19098E+06
 0.48350002E+02 -0.23596E+06
 0.48400002E+02 -0.22165E+06
 0.48450001E+02 -0.18283E+06
 0.48500000E+02 -0.16874E+06
 0.48549999E+02 -0.13559E+06
 0.48600002E+02 -0.48056E+05
 0.48650002E+02  0.97407E+05
 0.48700001E+02  0.23353E+06
 0.48750000E+02  0.27562E+06
 0.48799999E+02  0.22212E+06
 0.48850002E+02  0.14198E+06
 0.48900002E+02  0.60901E+05
 0.48950001E+02 -0.51288E+05
 0.49000000E+02 -0.17658E+06
 0.49049999E+02 -0.31816E+06
 0.49100002E+02 -0.42210E+06
 0.49150002E+02 -0.43625E+06
 0.49200001E+02 -0.44100E+06
 0.49250000E+02 -0.45561E+06
 0.49299999E+02 -0.50869E+06
 0.49350002E+02 -0.63408E+06
 0.49400002E+02 -0.74135E+06
 0.49450001E+02 -0.73410E+06
 0.49500000E+02 -0.60022E+06
 0.49549999E+02 -0.33462E+06
 0.49600002E+02 -0.97688E+05
 0.49650002E+02 -0.39336E+05
 0.49700001E+02 -0.78157E+05
 0.49750000E+02 -0.14991E+06
 0.49799999E+02 -0.14977E+06
 0.49850002E+02 -0.14167E+06
 0.49900002E+02 -0.17278E+06
 0.49950001E+02 -0.16147E+06
 0.50000000E+02 -0.14108E+06
 0.50049999E+02 -0.12177E+06
 0.50100002E+02 -0.18716E+06
 0.50150002E+02 -0.30641E+06
 0.50200001E+02 -0.44130E+06
 0.50250000E+02 -0.56725E+06
 0.50299999E+02 -0.61930E+06
 0.50350002E+02 -0.62327E+06
 0.50400002E+02 -0.53059E+06
 0.50450001E+02 -0.39384E+06
 0.50500000E+02 -0.23242E+06
 0.50549999E+02 -0.69716E+05
 0.50600002E+02  0.19031E+05
 0.50650002E+02  0.83802E+05
 0.50700001E+02  0.92377E+05
 0.50750000E+02  0.72481E+05
 0.50799999E+02  0.10020E+06
 0.50850002E+02  0.16688E+06
 0.50900002E+02  0.23055E+06
 0.50950001E+02  0.27201E+06
 0.51000000E+02  0.30652E+06
 0.51049999E+02  0.27841E+06
 0.51100002E+02  0.26286E+06
 0.51150002E+02  0.29168E+06
 0.51200001E+02  0.29520E+06
 0.51250000E+02  0.31200E+06
 0.51299999E+02  0.27670E+06
 0.51350002E+02  0.20367E+06
 0.51400002E+02  0.14503E+06
 0.51450001E+02  0.10120E+06
 0.51500000E+02  0.92700E+05
 0.51549999E+02  0.60031E+05
 0.51600002E+02  0.49508E+05
 0.51650002E+02  0.51805E+05
 0.51700001E+02  0.54310E+04
 0.51750000E+02 -0.13243E+05
 0.51799999E+02  0.39905E+05
 0.51850002E+02  0.18038E+06
 0.51900002E+02  0.38886E+06
 0.51950001E+02  0.55818E+06
 0.52000000E+02  0.61910E+06
 0.52049999E+02  0.57456E+06
 0.52100002E+02  0.39495E+06
 0.52150002E+02  0.15681E+06
 0.52200001E+02  0.26982E+05
 0.52250000E+02  0.15154E+05
 0.52299999E+02  0.83577E+05
 0.52350002E+02  0.21146E+06
 0.52400002E+02  0.32234E+06
 0.52450001E+02  0.38490E+06
 0.52500000E+02  0.42787E+06
 0.52549999E+02  0.43470E+06
 0.52600002E+02  0.40199E+06
 0.52650002E+02  0.40428E+06
 0.52700001E+02  0.49526E+06
 0.52750000E+02  0.67649E+06
 0.52799999E+02  0.87522E+06
 0.52850002E+02  0.98620E+06
 0.52900002E+02  0.93844E+06
 0.52950001E+02  0.76520E+06
 0.53000000E+02  0.57991E+06
 0.53049999E+02  0.37499E+06
 0.53100002E+02  0.21869E+06
 0.53150002E+02  0.14286E+06
 0.53200001E+02  0.73915E+05
 0.53250000E+02  0.12984E+06
 0.53299999E+02  0.25838E+06
 0.53350002E+02  0.34790E+06
 0.53400002E+02  0.38906E+06
 0.53450001E+02  0.31708E+06
 0.53500000E+02  0.20715E+06
 0.53549999E+02  0.99701E+05
 0.53600002E+02  0.44600E+03
 0.53650002E+02 -0.68559E+05
 0.53700001E+02 -0.15356E+06
 0.53750000E+02 -0.22612E+06
 0.53799999E+02 -0.28641E+06
 0.53850002E+02 -0.36352E+06
 0.53900002E+02 -0.48011E+06
 0.53950001E+02 -0.62144E+06
 0.54000000E+02 -0.74516E+06
 0.54049999E+02 -0.84779E+06
 0.54100002E+02 -0.84172E+06
 0.54150002E+02 -0.70309E+06
 0.54200001E+02 -0.47313E+06
 0.54250000E+02 -0.27497E+06
 0.54299999E+02 -0.22113E+06
 0.54350002E+02 -0.22603E+06
 0.54400002E+02 -0.27792E+06
 0.54450001E+02 -0.30200E+06
 0.54500000E+02 -0.18671E+06
 0.54549999E+02 -0.22168E+05
 0.54600002E+02  0.15098E+06
 0.54650002E+02  0.34245E+06
 0.54700001E+02  0.49373E+06
 0.54750000E+02  0.56158E+06
 0.54799999E+02  0.53763E+06
 0.54850002E+02  0.47218E+06
 0.54900002E+02  0.40366E+06
 0.54950001E+02  0.30301E+06
 0.55000000E+02  0.18584E+06
 0.55049999E+02  0.91898E+05
 0.55100002E+02  0.44232E+05
 0.55150002E+02  0.31877E+05
 0.55200001E+02  0.35801E+05
 0.55250000E+02  0.41111E+05
 0.55299999E+02  0.27865E+05
 0.55350002E+02  0.25617E+05
 0.55400002E+02  0.21950E+05
 0.55450001E+02  0.22717E+05
 0.55500000E+02  0.82685E+05
 0.55549999E+02  0.18018E+06
 0.55600002E+02  0.27998E+06
 0.55650002E+02  0.39510E+06
 0.55700001E+02  0.49073E+06
 0.55750000E+02  0.53522E+06
 0.55799999E+02  0.55886E+06
 0.55850002E+02  0.51609E+06
 0.55900002E+02  0.41884E+06
 0.55950001E+02  0.34534E+06
 0.56000000E+02  0.33943E+06
 0.56049999E+02  0.37786E+06
 0.56100002E+02  0.38283E+06
 0.56150002E+02  0.36123E+06
 0.56200001E+02  0.31839E+06
 0.56250000E+02  0.26358E+06
 0.56299999E+02  0.19991E+06
 0.56350002E+02  0.13232E+06
 0.56400002E+02  0.56209E+05
 0.56450001E+02 -0.65692E+05
 0.56500000E+02 -0.15443E+06
 0.56549999E+02 -0.15216E+06
 0.56600002E+02 -0.10804E+06
 0.56650002E+02 -0.73351E+05
 0.56700001E+02 -0.67481E+05
 0.56750000E+02 -0.74772E+05
 0.56799999E+02 -0.76877E+05
 0.56850002E+02 -0.81282E+05
 0.56900002E+02 -0.11643E+06
 0.56950001E+02 -0.17897E+06
 0.57000000E+02 -0.22518E+06
 0.57049999E+02 -0.25930E+06
 0.57100002E+02 -0.30069E+06
 0.57150002E+02 -0.30859E+06
 0.57200001E+02 -0.30055E+06
 0.57250000E+02 -0.34033E+06
 0.57299999E+02 -0.38741E+06
 0.57350002E+02 -0.42075E+06
 0.57400002E+02 -0.45560E+06
 0.57450001E+02 -0.43487E+06
 0.57500000E+02 -0.38455E+06
 0.57549999E+02 -0.31108E+06
 0.57600002E+02 -0.19299E+06
 0.57650002E+02 -0.10175E+06
 0.57700001E+02 -0.34502E+05
 0.57750000E+02  0.12747E+05
 0.57799999E+02  0.32954E+05
 0.57850002E+02  0.52820E+05
 0.57900002E+02  0.37238E+05
 0.57950001E+02 -0.25756E+05
 0.58000000E+02 -0.10842E+06
 0.58049999E+02 -0.19887E+06
 0.58100002E+02 -0.27882E+06
 0.58150002E+02 -0.35088E+06
 0.58200001E+02 -0.39822E+06
 0.58250000E+02 -0.41253E+06
 0.58299999E+02 -0.39886E+06
 0.58350002E+02 -0.34852E+06
 0.58400002E+02 -0.28351E+06
 0.58450001E+02 -0.20328E+06
 0.58500000E+02 -0.14664E+06
 0.58549999E+02 -0.12097E+06
 0.58600002E+02 -0.11807E+06
 0.58650002E+02 -0.16506E+06
 0.58700001E+02 -0.24742E+06
 0.58750000E+02 -0.34839E+06
 0.58799999E+02 -0.39108E+06
 0.58850002E+02 -0.39342E+06
 0.58900002E+02 -0.40680E+06
 0.58950001E+02 -0.37162E+06
 0.59000000E+02 -0.29047E+06
 0.59049999E+02 -0.16315E+06
 0.59100002E+02 -0.11628E+05
 0.59150002E+02  0.11647E+06
 0.59200001E+02  0.20820E+06
 0.59250000E+02  0.23106E+06
 0.59299999E+02  0.23601E+06
 0.59350002E+02  0.25610E+06
 0.59400002E+02  0.30540E+06
 0.59450001E+02  0.41161E+06
 0.59500000E+02  0.54352E+06
 0.59549999E+02  0.71085E+06
 0.59600002E+02  0.87281E+06
 0.59650002E+02  0.98792E+06
 0.59700001E+02  0.10467E+07
 0.59750000E+02  0.10545E+07
 0.59799999E+02  0.10690E+07
 0.59850002E+02  0.10651E+07
 0.59900002E+02  0.10159E+07
 0.59950001E+02  0.93637E+06
 0.60000000E+02  0.84452E+06
 0.60049999E+02  0.75809E+06
 0.60100002E+02  0.65970E+06
 0.60150002E+02  0.53818E+06
 0.60200001E+02  0.39644E+06
 0.60250000E+02  0.24490E+06
 0.60299999E+02  0.79104E+05
 0.60350002E+02 -0.70051E+05
 0.60400002E+02 -0.17479E+06
 0.60450001E+02 -0.25850E+06
 0.60500000E+02 -0.28983E+06
 0.60549999E+02 -0.28112E+06
 0.60600002E+02 -0.28514E+06
 0.60650002E+02 -0.28684E+06
 0.60700001E+02 -0.25303E+06
 0.60750000E+02 -0.19482E+06
 0.60799999E+02 -0.12342E+06
 0.60850002E+02 -0.49415E+05
 0.60900002E+02 -0.43560E+05
 0.60950001E+02 -0.93066E+05
 0.61000000E+02 -0.16163E+06
 0.61050003E+02 -0.21306E+06
 0.61099998E+02 -0.18505E+06
 0.61150002E+02 -0.12245E+06
 0.61200005E+02 -0.61158E+05
 0.61250000E+02 -0.45414E+05
 0.61300003E+02 -0.12121E+06
 0.61349998E+02 -0.24686E+06
 0.61400002E+02 -0.37407E+06
 0.61450005E+02 -0.47406E+06
 0.61500000E+02 -0.53794E+06
 0.61550003E+02 -0.56579E+06
 0.61599998E+02 -0.57606E+06
 0.61650002E+02 -0.57635E+06
 0.61700005E+02 -0.57133E+06
 0.61750000E+02 -0.56344E+06
 0.61800003E+02 -0.55174E+06
 0.61849998E+02 -0.58662E+06
 0.61900002E+02 -0.67264E+06
 0.61950005E+02 -0.77281E+06
 0.62000000E+02 -0.88461E+06
 0.62050003E+02 -0.10026E+07
 0.62099998E+02 -0.10936E+07
 0.62150002E+02 -0.11428E+07
 0.62200005E+02 -0.11544E+07
 0.62250000E+02 -0.11358E+07
 0.62300003E+02 -0.11397E+07
 0.62349998E+02 -0.11904E+07
 0.62400002E+02 -0.12879E+07
 0.62450005E+02 -0.14130E+07
 0.62500000E+02 -0.15163E+07
 0.62550003E+02 -0.15552E+07
 0.62599998E+02 -0.15018E+07
 0.62650002E+02 -0.13976E+07
 0.62700005E+02 -0.12844E+07
 0.62750000E+02 -0.11840E+07
 0.62800003E+02 -0.10943E+07
 0.62849998E+02 -0.98714E+06
 0.62900002E+02 -0.85078E+06
 0.62950005E+02 -0.67594E+06
 0.63000000E+02 -0.45728E+06
 0.63050003E+02 -0.18178E+06
 0.63099998E+02  0.14340E+06
 0.63150002E+02  0.50142E+06
 0.63200005E+02  0.84900E+06
 0.63250000E+02  0.11253E+07
 0.63300003E+02  0.13042E+07
 0.63349998E+02  0.14183E+07
 0.63400002E+02  0.15372E+07
 0.63450005E+02  0.16718E+07
 0.63500000E+02  0.18256E+07
 0.63550003E+02  0.19757E+07
 0.63599998E+02  0.20619E+07
 0.63650002E+02  0.20569E+07
 0.63700005E+02  0.19539E+07
 0.63750000E+02  0.18028E+07
 0.63800003E+02  0.16299E+07
 0.63849998E+02  0.14627E+07
 0.63900002E+02  0.13565E+07
 0.63950005E+02  0.12937E+07
 0.64000000E+02  0.12838E+07
 0.64050003E+02  0.12968E+07
 0.64099998E+02  0.12752E+07
 0.64150002E+02  0.12384E+07
 0.64200005E+02  0.11811E+07
 0.64250000E+02  0.11081E+07
 0.64300003E+02  0.10068E+07
 0.64349998E+02  0.88368E+06
 0.64400002E+02  0.78778E+06
 0.64450005E+02  0.70196E+06
 0.64500000E+02  0.61521E+06
 0.64550003E+02  0.52757E+06
 0.64599998E+02  0.42699E+06
 0.64650002E+02  0.32389E+06
 0.64700005E+02  0.25169E+06
 0.64750000E+02  0.22123E+06
 0.64800003E+02  0.20103E+06
 0.64849998E+02  0.16214E+06
 0.64900002E+02  0.10063E+06
 0.64950005E+02  0.41211E+05
 0.65000000E+02 -0.48110E+04
 0.65050003E+02 -0.51189E+05
 0.65099998E+02 -0.11242E+06
 0.65150002E+02 -0.20295E+06
 0.65200005E+02 -0.30475E+06
 0.65250000E+02 -0.39227E+06
 0.65300003E+02 -0.49003E+06
 0.65349998E+02 -0.59783E+06
 0.65400002E+02 -0.70330E+06
 0.65450005E+02 -0.81898E+06
 0.65500000E+02 -0.92257E+06
 0.65550003E+02 -0.10037E+07
 0.65599998E+02 -0.10543E+07
 0.65650002E+02 -0.10742E+07
 0.65700005E+02 -0.10784E+07
 0.65750000E+02 -0.10521E+07
 0.65800003E+02 -0.99872E+06
 0.65849998E+02 -0.90713E+06
 0.65900002E+02 -0.76722E+06
 0.65950005E+02 -0.61509E+06
 0.66000000E+02 -0.46618E+06
 0.66050003E+02 -0.32603E+06
 0.66099998E+02 -0.21291E+06
 0.66150002E+02 -0.13068E+06
 0.66200005E+02 -0.84832E+05
 0.66250000E+02 -0.72603E+05
 0.66300003E+02 -0.68402E+05
 0.66349998E+02 -0.62401E+05
 0.66400002E+02 -0.52703E+05
 0.66450005E+02 -0.58872E+05
 0.66500000E+02 -0.11043E+06
 0.66550003E+02 -0.20651E+06
 0.66599998E+02 -0.32850E+06
 0.66650002E+02 -0.43026E+06
 0.66700005E+02 -0.49648E+06
 0.66750000E+02 -0.54088E+06
 0.66800003E+02 -0.56009E+06
 0.66849998E+02 -0.56297E+06
 0.66900002E+02 -0.54987E+06
 0.66950005E+02 -0.54418E+06
 0.67000000E+02 -0.56735E+06
 0.67050003E+02 -0.60061E+06
 0.67099998E+02 -0.63521E+06
 0.67150002E+02 -0.65995E+06
 0.67200005E+02 -0.67806E+06
 0.67250000E+02 -0.68725E+06
 0.67300003E+02 -0.68048E+06
 0.67349998E+02 -0.65842E+06
 0.67400002E+02 -0.61046E+06
 0.67450005E+02 -0.53586E+06
 0.67500000E+02 -0.42788E+06
 0.67550003E+02 -0.30894E+06
 0.67599998E+02 -0.20314E+06
 0.67650002E+02 -0.10373E+06
 0.67700005E+02 -0.20790E+04
 0.67750000E+02  0.12283E+06
 0.67800003E+02  0.25638E+06
 0.67849998E+02  0.38154E+06
 0.67900002E+02  0.50683E+06
 0.67950005E+02  0.60415E+06
 0.68000000E+02  0.67770E+06
 0.68050003E+02  0.74796E+06
 0.68099998E+02  0.79360E+06
 0.68150002E+02  0.82318E+06
 0.68200005E+02  0.82896E+06
 0.68250000E+02  0.80407E+06
 0.68300003E+02  0.77602E+06
 0.68349998E+02  0.73300E+06
 0.68400002E+02  0.68603E+06
 0.68450005E+02  0.63697E+06
 0.68500000E+02  0.56034E+06
 0.68550003E+02  0.48635E+06
 0.68599998E+02  0.41533E+06
 0.68650002E+02  0.33639E+06
 0.68700005E+02  0.26858E+06
 0.68750000E+02  0.21385E+06
 0.68800003E+02  0.17619E+06
 0.68849998E+02  0.13053E+06
 0.68900002E+02  0.58318E+05
 0.68950005E+02 -0.33168E+05
 0.69000000E+02 -0.15843E+06
 0.69050003E+02 -0.30450E+06
 0.69099998E+02 -0.44363E+06
 0.69150002E+02 -0.57313E+06
 0.69200005E+02 -0.68402E+06
 0.69250000E+02 -0.77169E+06
 0.69300003E+02 -0.83979E+06
 0.69349998E+02 -0.89179E+06
 0.69400002E+02 -0.93649E+06
 0.69450005E+02 -0.97146E+06
 0.69500000E+02 -0.99436E+06
 0.69550003E+02 -0.96957E+06
 0.69599998E+02 -0.85681E+06
 0.69650002E+02 -0.67456E+06
 0.69700005E+02 -0.45070E+06
 0.69750000E+02 -0.22282E+06
 0.69800003E+02 -0.23205E+05
 0.69849998E+02  0.13392E+06
 0.69900002E+02  0.25333E+06
 0.69950005E+02  0.35516E+06
 0.70000000E+02  0.45340E+06
 0.70050003E+02  0.57346E+06
 0.70099998E+02  0.70471E+06
 0.70150002E+02  0.83607E+06
 0.70200005E+02  0.98492E+06
 0.70250000E+02  0.11459E+07
 0.70300003E+02  0.12975E+07
 0.70349998E+02  0.14361E+07
 0.70400002E+02  0.15763E+07
 0.70450005E+02  0.16966E+07
 0.70500000E+02  0.17846E+07
 0.70550003E+02  0.18339E+07
 0.70599998E+02  0.18314E+07
 0.70650002E+02  0.17908E+07
 0.70700005E+02  0.16924E+07
 0.70750000E+02  0.15103E+07
 0.70800003E+02  0.12435E+07
 0.70849998E+02  0.90532E+06
 0.70900002E+02  0.54558E+06
 0.70950005E+02  0.21636E+06
 0.71000000E+02 -0.72153E+05
 0.71050003E+02 -0.32853E+06
 0.71099998E+02 -0.56048E+06
 0.71150002E+02 -0.77418E+06
 0.71200005E+02 -0.96818E+06
 0.71250000E+02 -0.11470E+07
 0.71300003E+02 -0.12965E+07
 0.71349998E+02 -0.14075E+07
 0.71400002E+02 -0.14898E+07
 0.71450005E+02 -0.15217E+07
 0.71500000E+02 -0.15023E+07
 0.71550003E+02 -0.14317E+07
 0.71599998E+02 -0.12978E+07
 0.71650002E+02 -0.11225E+07
 0.71700005E+02 -0.91530E+06
 0.71750000E+02 -0.69291E+06
 0.71800003E+02 -0.46230E+06
 0.71849998E+02 -0.21752E+06
 0.71900002E+02  0.42198E+05
 0.71950005E+02  0.31690E+06
 0.72000000E+02  0.57314E+06
 0.72050003E+02  0.78830E+06
 0.72099998E+02  0.94614E+06
 0.72150002E+02  0.10402E+07
 0.72200005E+02  0.10891E+07
 0.72250000E+02  0.11085E+07
 0.72300003E+02  0.11052E+07
 0.72349998E+02  0.10628E+07
 0.72400002E+02  0.97036E+06
 0.72450005E+02  0.82651E+06
 0.72500000E+02  0.64534E+06
 0.72550003E+02  0.44244E+06
 0.72599998E+02  0.21126E+06
 0.72650002E+02 -0.33015E+05
 0.72700005E+02 -0.28300E+06
 0.72750000E+02 -0.53720E+06
 0.72800003E+02 -0.78863E+06
 0.72849998E+02 -0.10371E+07
 0.72900002E+02 -0.12530E+07
 0.72950005E+02 -0.14049E+07
 0.73000000E+02 -0.14745E+07
 0.73050003E+02 -0.14753E+07
 0.73099998E+02 -0.14337E+07
 0.73150002E+02 -0.13507E+07
 0.73200005E+02 -0.12473E+07
 0.73250000E+02 -0.11331E+07
 0.73300003E+02 -0.99406E+06
 0.73349998E+02 -0.82278E+06
 0.73400002E+02 -0.61919E+06
 0.73450005E+02 -0.38441E+06
 0.73500000E+02 -0.12157E+06
 0.73550003E+02  0.13192E+06
 0.73599998E+02  0.34778E+06
 0.73650002E+02  0.51037E+06
 0.73700005E+02  0.61030E+06
 0.73750000E+02  0.66775E+06
 0.73800003E+02  0.69248E+06
 0.73849998E+02  0.69456E+06
 0.73900002E+02  0.67320E+06
 0.73950005E+02  0.62118E+06
 0.74000000E+02  0.56211E+06
 0.74050003E+02  0.51216E+06
 0.74099998E+02  0.45837E+06
 0.74150002E+02  0.38187E+06
 0.74200005E+02  0.28542E+06
 0.74250000E+02  0.18048E+06
 0.74300003E+02  0.63224E+05
 0.74349998E+02 -0.78183E+05
 0.74400002E+02 -0.24435E+06
 0.74450005E+02 -0.40904E+06
 0.74500000E+02 -0.55483E+06
 0.74550003E+02 -0.67936E+06
 0.74599998E+02 -0.76857E+06
 0.74650002E+02 -0.81259E+06
 0.74700005E+02 -0.80904E+06
 0.74750000E+02 -0.76264E+06
 0.74800003E+02 -0.69270E+06
 0.74849998E+02 -0.63017E+06
 0.74900002E+02 -0.58120E+06
 0.74950005E+02 -0.52487E+06
 0.75000000E+02 -0.44439E+06
 0.75050003E+02 -0.31910E+06
 0.75099998E+02 -0.14527E+06
 0.75150002E+02  0.55466E+05
 0.75200005E+02  0.25845E+06
 0.75250000E+02  0.44537E+06
 0.75300003E+02  0.60671E+06
 0.75349998E+02  0.73834E+06
 0.75400002E+02  0.85343E+06
 0.75450005E+02  0.97601E+06
 0.75500000E+02  0.11180E+07
 0.75550003E+02  0.12670E+07
 0.75599998E+02  0.13980E+07
 0.75650002E+02  0.14902E+07
 0.75700005E+02  0.15283E+07
 0.75750000E+02  0.15125E+07
 0.75800003E+02  0.14440E+07
 0.75849998E+02  0.13247E+07
 0.75900002E+02  0.11728E+07
 0.75950005E+02  0.10086E+07
 0.76000000E+02  0.83638E+06
 0.76050003E+02  0.64805E+06
 0.76099998E+02  0.45361E+06
 0.76150002E+02  0.26590E+06
 0.76200005E+02  0.95099E+05
 0.76250000E+02 -0.50367E+05
 0.76300003E+02 -0.17096E+06
 0.76349998E+02 -0.26969E+06
 0.76400002E+02 -0.35382E+06
 0.76450005E+02 -0.42496E+06
 0.76500000E+02 -0.49368E+06
 0.76550003E+02 -0.57385E+06
 0.76599998E+02 -0.66744E+06
 0.76650002E+02 -0.77312E+06
 0.76700005E+02 -0.88366E+06
 0.76750000E+02 -0.99785E+06
 0.76800003E+02 -0.11170E+07
 0.76849998E+02 -0.12244E+07
 0.76900002E+02 -0.13052E+07
 0.76950005E+02 -0.13593E+07
 0.77000000E+02 -0.13847E+07
 0.77050003E+02 -0.13776E+07
 0.77099998E+02 -0.13453E+07
 0.77150002E+02 -0.13168E+07
 0.77200005E+02 -0.13102E+07
 0.77250000E+02 -0.13156E+07
 0.77300003E+02 -0.13218E+07
 0.77349998E+02 -0.12995E+07
 0.77400002E+02 -0.12177E+07
 0.77450005E+02 -0.10825E+07
 0.77500000E+02 -0.89628E+06
 0.77550003E+02 -0.66560E+06
 0.77599998E+02 -0.41327E+06
 0.77650002E+02 -0.14073E+06
 0.77700005E+02  0.15001E+06
 0.77750000E+02  0.44874E+06
 0.77800003E+02  0.75565E+06
 0.77849998E+02  0.10601E+07
 0.77900002E+02  0.13362E+07
 0.77950005E+02  0.15646E+07
 0.78000000E+02  0.17239E+07
 0.78050003E+02  0.18007E+07
 0.78099998E+02  0.18116E+07
 0.78150002E+02  0.17698E+07
 0.78200005E+02  0.16897E+07
 0.78250000E+02  0.15818E+07
 0.78300003E+02  0.14373E+07
 0.78349998E+02  0.12564E+07
 0.78400002E+02  0.10428E+07
 0.78450005E+02  0.80953E+06
 0.78500000E+02  0.58312E+06
 0.78550003E+02  0.38556E+06
 0.78599998E+02  0.22572E+06
 0.78650002E+02  0.96436E+05
 0.78700005E+02 -0.17497E+05
 0.78750000E+02 -0.12613E+06
 0.78800003E+02 -0.21848E+06
 0.78849998E+02 -0.28714E+06
 0.78900002E+02 -0.32814E+06
 0.78950005E+02 -0.33750E+06
 0.79000000E+02 -0.32836E+06
 0.79050003E+02 -0.29822E+06
 0.79099998E+02 -0.26399E+06
 0.79150002E+02 -0.25440E+06
 0.79200005E+02 -0.26127E+06
 0.79250000E+02 -0.27588E+06
 0.79300003E+02 -0.29322E+06
 0.79349998E+02 -0.31574E+06
 0.79400002E+02 -0.36446E+06
 0.79450005E+02 -0.44720E+06
 0.79500000E+02 -0.53352E+06
 0.79550003E+02 -0.58816E+06
 0.79599998E+02 -0.60409E+06
 0.79650002E+02 -0.58641E+06
 0.79700005E+02 -0.54511E+06
 0.79750000E+02 -0.48926E+06
 0.79800003E+02 -0.41634E+06
 0.79849998E+02 -0.32990E+06
 0.79900002E+02 -0.23616E+06
 0.79950005E+02 -0.13292E+06
 0.80000000E+02 -0.29552E+05
 0.80050003E+02  0.76106E+05
 0.80099998E+02  0.19021E+06
 0.80150002E+02  0.29504E+06
 0.80200005E+02  0.37484E+06
 0.80250000E+02  0.41356E+06
 0.80300003E+02  0.40138E+06
 0.80349998E+02  0.34828E+06
 0.80400002E+02  0.28421E+06
 0.80450005E+02  0.24062E+06
 0.80500000E+02  0.22613E+06
 0.80550003E+02  0.23847E+06
 0.80599998E+02  0.25407E+06
 0.80650002E+02  0.24178E+06
 0.80700005E+02  0.19451E+06
 0.80750000E+02  0.12244E+06
 0.80800003E+02  0.43698E+05
 0.80849998E+02 -0.31021E+05
 0.80900002E+02 -0.98988E+05
 0.80950005E+02 -0.15299E+06
 0.81000000E+02 -0.18929E+06
 0.81050003E+02 -0.21634E+06
 0.81099998E+02 -0.23907E+06
 0.81150002E+02 -0.25222E+06
 0.81200005E+02 -0.25220E+06
 0.81250000E+02 -0.24694E+06
 0.81300003E+02 -0.24446E+06
 0.81349998E+02 -0.25178E+06
 0.81400002E+02 -0.27680E+06
 0.81450005E+02 -0.31042E+06
 0.81500000E+02 -0.34806E+06
 0.81550003E+02 -0.38876E+06
 0.81599998E+02 -0.42475E+06
 0.81650002E+02 -0.44191E+06
 0.81700005E+02 -0.42436E+06
 0.81750000E+02 -0.38271E+06
 0.81800003E+02 -0.32390E+06
 0.81849998E+02 -0.24830E+06
 0.81900002E+02 -0.16892E+06
 0.81950005E+02 -0.88280E+05
 0.82000000E+02 -0.14057E+05
 0.82050003E+02  0.42076E+05
 0.82099998E+02  0.86839E+05
 0.82150002E+02  0.12897E+06
 0.82200005E+02  0.16928E+06
 0.82250000E+02  0.20700E+06
 0.82300003E+02  0.23406E+06
 0.82349998E+02  0.23658E+06
 0.82400002E+02  0.22012E+06
 0.82450005E+02  0.19534E+06
 0.82500000E+02  0.16757E+06
 0.82550003E+02  0.14494E+06
 0.82599998E+02  0.12386E+06
 0.82650002E+02  0.10551E+06
 0.82700005E+02  0.86765E+05
 0.82750000E+02  0.58152E+05
 0.82800003E+02  0.17478E+05
 0.82849998E+02 -0.34454E+05
 0.82900002E+02 -0.89901E+05
 0.82950005E+02 -0.15018E+06
 0.83000000E+02 -0.21242E+06
 0.83050003E+02 -0.26008E+06
 0.83099998E+02 -0.28217E+06
 0.83150002E+02 -0.27238E+06
 0.83200005E+02 -0.23018E+06
 0.83250000E+02 -0.16515E+06
 0.83300003E+02 -0.81330E+05
 0.83349998E+02  0.17823E+05
 0.83400002E+02  0.12170E+06
 0.83450005E+02  0.22688E+06
 0.83500000E+02  0.32812E+06
 0.83550003E+02  0.42112E+06
 0.83599998E+02  0.51000E+06
 0.83650002E+02  0.59814E+06
 0.83700005E+02  0.68117E+06
 0.83750000E+02  0.74888E+06
 0.83800003E+02  0.78906E+06
 0.83849998E+02  0.80123E+06
 0.83900002E+02  0.79731E+06
 0.83950005E+02  0.78069E+06
 0.84000000E+02  0.75986E+06
 0.84050003E+02  0.74063E+06
 0.84099998E+02  0.72515E+06
 0.84150002E+02  0.72264E+06
 0.84200005E+02  0.72074E+06
 0.84250000E+02  0.69958E+06
 0.84300003E+02  0.64984E+06
 0.84349998E+02  0.56766E+06
 0.84400002E+02  0.45857E+06
 0.84450005E+02  0.32760E+06
 0.84500000E+02  0.18465E+06
 0.84550003E+02  0.45761E+05
 0.84599998E+02 -0.79806E+05
 0.84650002E+02 -0.18920E+06
 0.84700005E+02 -0.28712E+06
 0.84750000E+02 -0.38008E+06
 0.84800003E+02 -0.48188E+06
 0.84849998E+02 -0.61039E+06
 0.84900002E+02 -0.76465E+06
 0.84950005E+02 -0.93069E+06
 0.85000000E+02 -0.10920E+07
 0.85050003E+02 -0.12337E+07
 0.85099998E+02 -0.13544E+07
 0.85150002E+02 -0.14471E+07
 0.85200005E+02 -0.15004E+07
 0.85250000E+02 -0.15199E+07
 0.85300003E+02 -0.15044E+07
 0.85349998E+02 -0.14536E+07
 0.85400002E+02 -0.13758E+07
 0.85450005E+02 -0.12756E+07
 0.85500000E+02 -0.11496E+07
 0.85550003E+02 -0.99626E+06
 0.85599998E+02 -0.82869E+06
 0.85650002E+02 -0.65421E+06
 0.85700005E+02 -0.48706E+06
 0.85750000E+02 -0.33718E+06
 0.85800003E+02 -0.19872E+06
 0.85849998E+02 -0.71467E+05
 0.85900002E+02  0.46417E+05
 0.85950005E+02  0.15277E+06
 0.86000000E+02  0.24352E+06
 0.86050003E+02  0.31678E+06
 0.86099998E+02  0.37328E+06
 0.86150002E+02  0.42073E+06
 0.86200005E+02  0.47315E+06
 0.86250000E+02  0.53781E+06
 0.86300003E+02  0.61262E+06
 0.86349998E+02  0.69294E+06
 0.86400002E+02  0.77152E+06
 0.86450005E+02  0.84357E+06
 0.86500000E+02  0.89786E+06
 0.86550003E+02  0.92889E+06
 0.86599998E+02  0.94372E+06
 0.86650002E+02  0.95754E+06
 0.86700005E+02  0.98345E+06
 0.86750000E+02  0.10109E+07
 0.86800003E+02  0.10213E+07
 0.86849998E+02  0.99768E+06
 0.86900002E+02  0.93140E+06
 0.86950005E+02  0.83197E+06
 0.87000000E+02  0.70999E+06
 0.87050003E+02  0.57325E+06
 0.87099998E+02  0.43120E+06
 0.87150002E+02  0.28762E+06
 0.87200005E+02  0.14889E+06
 0.87250000E+02  0.24793E+05
 0.87300003E+02 -0.82182E+05
 0.87349998E+02 -0.17202E+06
 0.87400002E+02 -0.24667E+06
 0.87450005E+02 -0.30787E+06
 0.87500000E+02 -0.36346E+06
 0.87550003E+02 -0.41263E+06
 0.87599998E+02 -0.43862E+06
 0.87650002E+02 -0.44118E+06
 0.87700005E+02 -0.42249E+06
 0.87750000E+02 -0.38531E+06
 0.87800003E+02 -0.33699E+06
 0.87849998E+02 -0.27829E+06
 0.87900002E+02 -0.21462E+06
 0.87950005E+02 -0.15610E+06
 0.88000000E+02 -0.11913E+06
 0.88050003E+02 -0.10000E+06
 0.88099998E+02 -0.87709E+05
 0.88150002E+02 -0.76659E+05
 0.88200005E+02 -0.48793E+05
 0.88250000E+02 -0.26400E+03
 0.88300003E+02  0.62505E+05
 0.88349998E+02  0.13370E+06
 0.88400002E+02  0.20718E+06
 0.88450005E+02  0.27813E+06
 0.88500000E+02  0.34540E+06
 0.88550003E+02  0.39905E+06
 0.88599998E+02  0.43020E+06
 0.88650002E+02  0.44317E+06
 0.88700005E+02  0.43559E+06
 0.88750000E+02  0.41988E+06
 0.88800003E+02  0.41237E+06
 0.88849998E+02  0.42477E+06
 0.88900002E+02  0.46243E+06
 0.88950005E+02  0.50920E+06
 0.89000000E+02  0.54380E+06
 0.89050003E+02  0.54530E+06
 0.89099998E+02  0.50524E+06
 0.89150002E+02  0.42637E+06
 0.89200005E+02  0.31648E+06
 0.89250000E+02  0.18244E+06
 0.89300003E+02  0.29186E+05
 0.89349998E+02 -0.13718E+06
 0.89400002E+02 -0.31531E+06
 0.89450005E+02 -0.50409E+06
 0.89500000E+02 -0.70079E+06
 0.89550003E+02 -0.89768E+06
 0.89599998E+02 -0.10896E+07
 0.89650002E+02 -0.12725E+07
 0.89700005E+02 -0.14367E+07
 0.89750000E+02 -0.15732E+07
 0.89800003E+02 -0.16697E+07
 0.89849998E+02 -0.17231E+07
 0.89900002E+02 -0.17410E+07
 0.89950005E+02 -0.17211E+07
 0.90000000E+02 -0.16651E+07
 0.90050003E+02 -0.15771E+07
 0.90099998E+02 -0.14585E+07
 0.90150002E+02 -0.13205E+07
 0.90200005E+02 -0.11727E+07
 0.90250000E+02 -0.10208E+07
 0.90300003E+02 -0.86428E+06
 0.90349998E+02 -0.69799E+06
 0.90400002E+02 -0.51804E+06
 0.90450005E+02 -0.31609E+06
 0.90500000E+02 -0.94699E+05
 0.90550003E+02  0.14145E+06
 0.90599998E+02  0.38980E+06
 0.90650002E+02  0.64072E+06
 0.90700005E+02  0.89064E+06
 0.90750000E+02  0.11295E+07
 0.90800003E+02  0.13526E+07
 0.90849998E+02  0.15630E+07
 0.90900002E+02  0.17532E+07
 0.90950005E+02  0.19164E+07
 0.91000000E+02  0.20465E+07
 0.91050003E+02  0.21371E+07
 0.91099998E+02  0.21859E+07
 0.91150002E+02  0.21981E+07
 0.91200005E+02  0.21718E+07
 0.91250000E+02  0.21042E+07
 0.91300003E+02  0.20030E+07
 0.91349998E+02  0.18754E+07
 0.91400002E+02  0.17347E+07
 0.91450005E+02  0.15916E+07
 0.91500000E+02  0.14434E+07
 0.91550003E+02  0.12841E+07
 0.91599998E+02  0.11059E+07
 0.91650002E+02  0.90567E+06
 0.91700005E+02  0.68280E+06
 0.91750000E+02  0.43825E+06
 0.91800003E+02  0.17615E+06
 0.91849998E+02 -0.10249E+06
 0.91900002E+02 -0.38943E+06
 0.91950005E+02 -0.66840E+06
 0.92000000E+02 -0.93105E+06
 0.92050003E+02 -0.11793E+07
 0.92099998E+02 -0.14164E+07
 0.92150002E+02 -0.16415E+07
 0.92200005E+02 -0.18499E+07
 0.92250000E+02 -0.20349E+07
 0.92300003E+02 -0.21905E+07
 0.92349998E+02 -0.23052E+07
 0.92400002E+02 -0.23673E+07
 0.92450005E+02 -0.23755E+07
 0.92500000E+02 -0.23339E+07
 0.92550003E+02 -0.22455E+07
 0.92599998E+02 -0.21090E+07
 0.92650002E+02 -0.19246E+07
 0.92700005E+02 -0.16998E+07
 0.92750000E+02 -0.14417E+07
 0.92800003E+02 -0.11603E+07
 0.92849998E+02 -0.86457E+06
 0.92900002E+02 -0.55989E+06
 0.92950005E+02 -0.26000E+06
 0.93000000E+02  0.28539E+05
 0.93050003E+02  0.31016E+06
 0.93099998E+02  0.58190E+06
 0.93150002E+02  0.83634E+06
 0.93200005E+02  0.10654E+07
 0.93250000E+02  0.12629E+07
 0.93300003E+02  0.14183E+07
 0.93349998E+02  0.15234E+07
 0.93400002E+02  0.15795E+07
 0.93450005E+02  0.15920E+07
 0.93500000E+02  0.15717E+07
 0.93550003E+02  0.15252E+07
 0.93599998E+02  0.14585E+07
 0.93650002E+02  0.13755E+07
 0.93700005E+02  0.12734E+07
 0.93750000E+02  0.11567E+07
 0.93800003E+02  0.10290E+07
 0.93849998E+02  0.89677E+06
 0.93900002E+02  0.76841E+06
 0.93950005E+02  0.64859E+06
 0.94000000E+02  0.54070E+06
 0.94050003E+02  0.44178E+06
 0.94099998E+02  0.34190E+06
 0.94150002E+02  0.22675E+06
 0.94200005E+02  0.91161E+05
 0.94250000E+02 -0.64421E+05
 0.94300003E+02 -0.23186E+06
 0.94349998E+02 -0.38932E+06
 0.94400002E+02 -0.52654E+06
 0.94450005E+02 -0.64080E+06
 0.94500000E+02 -0.73164E+06
 0.94550003E+02 -0.80911E+06
 0.94599998E+02 -0.87665E+06
 0.94650002E+02 -0.93310E+06
 0.94700005E+02 -0.97961E+06
 0.94750000E+02 -0.10113E+07
 0.94800003E+02 -0.10236E+07
 0.94849998E+02 -0.10174E+07
 0.94900002E+02 -0.99136E+06
 0.94950005E+02 -0.94442E+06
 0.95000000E+02 -0.87846E+06
 0.95050003E+02 -0.79095E+06
 0.95099998E+02 -0.67934E+06
 0.95150002E+02 -0.54498E+06
 0.95200005E+02 -0.39082E+06
 0.95250000E+02 -0.23054E+06
 0.95300003E+02 -0.80859E+05
 0.95349998E+02  0.56278E+05
 0.95400002E+02  0.18645E+06
 0.95450005E+02  0.31469E+06
 0.95500000E+02  0.44553E+06
 0.95550003E+02  0.57310E+06
 0.95599998E+02  0.68718E+06
 0.95650002E+02  0.78430E+06
 0.95700005E+02  0.85635E+06
 0.95750000E+02  0.89968E+06
 0.95800003E+02  0.91830E+06
 0.95849998E+02  0.91217E+06
 0.95900002E+02  0.88739E+06
 0.95950005E+02  0.85226E+06
 0.96000000E+02  0.80991E+06
 0.96050003E+02  0.75838E+06
 0.96099998E+02  0.68691E+06
 0.96150002E+02  0.58522E+06
 0.96200005E+02  0.45509E+06
 0.96250000E+02  0.30099E+06
 0.96300003E+02  0.12927E+06
 0.96349998E+02 -0.46002E+05
 0.96400002E+02 -0.21438E+06
 0.96450005E+02 -0.36973E+06
 0.96500000E+02 -0.51341E+06
 0.96550003E+02 -0.65007E+06
 0.96599998E+02 -0.77641E+06
 0.96650002E+02 -0.88389E+06
 0.96700005E+02 -0.96076E+06
 0.96750000E+02 -0.99718E+06
 0.96800003E+02 -0.98927E+06
 0.96849998E+02 -0.93995E+06
 0.96900002E+02 -0.85122E+06
 0.96950005E+02 -0.72786E+06
 0.97000000E+02 -0.58327E+06
 0.97050003E+02 -0.42506E+06
 0.97099998E+02 -0.26259E+06
 0.97150002E+02 -0.10209E+06
 0.97200005E+02  0.60198E+05
 0.97250000E+02  0.22252E+06
 0.97300003E+02  0.38517E+06
 0.97349998E+02  0.53926E+06
 0.97400002E+02  0.66721E+06
 0.97450005E+02  0.75890E+06
 0.97500000E+02  0.80712E+06
 0.97550003E+02  0.81121E+06
 0.97599998E+02  0.77560E+06
 0.97650002E+02  0.70808E+06
 0.97700005E+02  0.61637E+06
 0.97750000E+02  0.50746E+06
 0.97800003E+02  0.38463E+06
 0.97849998E+02  0.24898E+06
 0.97900002E+02  0.10547E+06
 0.97950005E+02 -0.43932E+05
 0.98000000E+02 -0.19390E+06
 0.98050003E+02 -0.33669E+06
 0.98099998E+02 -0.46904E+06
 0.98150002E+02 -0.58475E+06
 0.98200005E+02 -0.68098E+06
 0.98250000E+02 -0.75510E+06
 0.98300003E+02 -0.79668E+06
 0.98349998E+02 -0.80293E+06
 0.98400002E+02 -0.77438E+06
 0.98450005E+02 -0.71158E+06
 0.98500000E+02 -0.61906E+06
 0.98550003E+02 -0.50092E+06
 0.98599998E+02 -0.36566E+06
 0.98650002E+02 -0.21820E+06
 0.98700005E+02 -0.62440E+05
 0.98750000E+02  0.96974E+05
 0.98800003E+02  0.25528E+06
 0.98849998E+02  0.40188E+06
 0.98900002E+02  0.52961E+06
 0.98950005E+02  0.63149E+06
 0.99000000E+02  0.70404E+06
 0.99050003E+02  0.74610E+06
 0.99099998E+02  0.75442E+06
 0.99150002E+02  0.72954E+06
 0.99200005E+02  0.67141E+06
 0.99250000E+02  0.58457E+06
 0.99300003E+02  0.47379E+06
 0.99349998E+02  0.34222E+06
 0.99400002E+02  0.19500E+06
 0.99450005E+02  0.37220E+05
 0.99500000E+02 -0.12459E+06
 0.99550003E+02 -0.28423E+06
 0.99599998E+02 -0.43588E+06
 0.99650002E+02 -0.57598E+06
 0.99700005E+02 -0.69846E+06
 0.99750000E+02 -0.79999E+06
 0.99800003E+02 -0.87953E+06
 0.99849998E+02 -0.93187E+06
 0.99900002E+02 -0.95565E+06
 0.99950005E+02 -0.94631E+06
 0.10000000E+03 -0.89711E+06
 0.10005000E+03 -0.80718E+06
 0.10010000E+03 -0.67818E+06
 0.10015000E+03 -0.51368E+06
 0.10020000E+03 -0.32426E+06
 0.10025000E+03 -0.12097E+06
 0.10030000E+03  0.86965E+05
 0.10035000E+03  0.28870E+06
 0.10040000E+03  0.48029E+06
 0.10045000E+03  0.65049E+06
 0.10050000E+03  0.78727E+06
 0.10055000E+03  0.88802E+06
 0.10060000E+03  0.94579E+06
 0.10065000E+03  0.95949E+06
 0.10070000E+03  0.92742E+06
 0.10075000E+03  0.84491E+06
 0.10080000E+03  0.72052E+06
 0.10085000E+03  0.56667E+06
 0.10090000E+03  0.39409E+06
 0.10095000E+03  0.21437E+06
 0.10100000E+03  0.36688E+05
 0.10105000E+03 -0.12749E+06
 0.10110000E+03 -0.26459E+06
 0.10115000E+03 -0.36573E+06
 0.10120000E+03 -0.42853E+06
 0.10125000E+03 -0.45194E+06
 0.10130000E+03 -0.43255E+06
 0.10135000E+03 -0.36901E+06
 0.10140000E+03 -0.26360E+06
 0.10145000E+03 -0.12087E+06
 0.10150000E+03  0.51649E+05
 0.10155000E+03  0.24301E+06
 0.10160000E+03  0.44148E+06
 0.10165000E+03  0.63107E+06
 0.10170000E+03  0.79492E+06
 0.10175000E+03  0.91972E+06
 0.10180000E+03  0.99354E+06
 0.10185000E+03  0.10097E+07
 0.10190000E+03  0.96269E+06
 0.10195000E+03  0.85239E+06
 0.10200000E+03  0.69185E+06
 0.10205000E+03  0.50318E+06
 0.10210000E+03  0.30900E+06
 0.10215000E+03  0.12509E+06
 0.10220000E+03 -0.37329E+05
 0.10225000E+03 -0.17238E+06
 0.10230000E+03 -0.27854E+06
 0.10235000E+03 -0.35887E+06
 0.10240000E+03 -0.41934E+06
 0.10245000E+03 -0.46286E+06
 0.10250000E+03 -0.48766E+06
 0.10255000E+03 -0.49250E+06
 0.10260000E+03 -0.47756E+06
 0.10265000E+03 -0.44336E+06
 0.10270000E+03 -0.39944E+06
 0.10275000E+03 -0.35552E+06
 0.10280000E+03 -0.32212E+06
 0.10285000E+03 -0.31179E+06
 0.10290000E+03 -0.32697E+06
 0.10295000E+03 -0.36411E+06
 0.10300000E+03 -0.41377E+06
 0.10305000E+03 -0.46445E+06
 0.10310000E+03 -0.51123E+06
 0.10315000E+03 -0.55498E+06
 0.10320000E+03 -0.59533E+06
 0.10325000E+03 -0.63558E+06
 0.10330000E+03 -0.67559E+06
 0.10335000E+03 -0.70448E+06
 0.10340000E+03 -0.71506E+06
 0.10345000E+03 -0.69964E+06
 0.10350000E+03 -0.65431E+06
 0.10355000E+03 -0.58005E+06
 0.10360000E+03 -0.47918E+06
 0.10365000E+03 -0.35696E+06
 0.10370000E+03 -0.21870E+06
 0.10375000E+03 -0.72825E+05
 0.10380000E+03  0.72519E+05
 0.10385000E+03  0.20847E+06
 0.10390000E+03  0.33431E+06
 0.10395000E+03  0.45357E+06
 0.10400000E+03  0.56248E+06
 0.10405000E+03  0.66143E+06
 0.10410000E+03  0.75275E+06
 0.10415000E+03  0.83328E+06
 0.10420000E+03  0.90128E+06
 0.10425000E+03  0.95494E+06
 0.10430000E+03  0.99280E+06
 0.10435000E+03  0.10205E+07
 0.10440000E+03  0.10398E+07
 0.10445000E+03  0.10461E+07
 0.10450000E+03  0.10303E+07
 0.10455000E+03  0.98571E+06
 0.10460000E+03  0.91131E+06
 0.10465000E+03  0.80852E+06
 0.10470000E+03  0.68379E+06
 0.10475000E+03  0.54156E+06
 0.10480000E+03  0.38667E+06
 0.10485000E+03  0.22109E+06
 0.10490000E+03  0.40536E+05
 0.10495000E+03 -0.15559E+06
 0.10500000E+03 -0.36336E+06
 0.10505000E+03 -0.57800E+06
 0.10510000E+03 -0.79578E+06
 0.10515000E+03 -0.10113E+07
 0.10520000E+03 -0.12157E+07
 0.10525000E+03 -0.13927E+07
 0.10530000E+03 -0.15277E+07
 0.10535000E+03 -0.16124E+07
 0.10540000E+03 -0.16396E+07
 0.10545000E+03 -0.16124E+07
 0.10550000E+03 -0.15355E+07
 0.10555000E+03 -0.14133E+07
 0.10560000E+03 -0.12545E+07
 0.10565000E+03 -0.10607E+07
 0.10570000E+03 -0.83810E+06
 0.10575000E+03 -0.59691E+06
 0.10580000E+03 -0.34227E+06
 0.10585000E+03 -0.85323E+05
 0.10590000E+03  0.16215E+06
 0.10595000E+03  0.39225E+06
 0.10600000E+03  0.60049E+06
 0.10605000E+03  0.78667E+06
 0.10610000E+03  0.95142E+06
 0.10615000E+03  0.10948E+07
 0.10620000E+03  0.12149E+07
 0.10625000E+03  0.13103E+07
 0.10630000E+03  0.13785E+07
 0.10635000E+03  0.14125E+07
 0.10640000E+03  0.14075E+07
 0.10645000E+03  0.13641E+07
 0.10650000E+03  0.12856E+07
 0.10655000E+03  0.11789E+07
 0.10660000E+03  0.10513E+07
 0.10665000E+03  0.90798E+06
 0.10670000E+03  0.75198E+06
 0.10675000E+03  0.58558E+06
 0.10680000E+03  0.41142E+06
 0.10685000E+03  0.23603E+06
 0.10690000E+03  0.69800E+05
 0.10695000E+03 -0.84646E+05
 0.10700000E+03 -0.22847E+06
 0.10705000E+03 -0.36312E+06
 0.10710000E+03 -0.49542E+06
 0.10715000E+03 -0.62767E+06
 0.10720000E+03 -0.76119E+06
 0.10725000E+03 -0.89609E+06
 0.10730000E+03 -0.10250E+07
 0.10735000E+03 -0.11403E+07
 0.10740000E+03 -0.12343E+07
 0.10745000E+03 -0.13026E+07
 0.10750000E+03 -0.13405E+07
 0.10755000E+03 -0.13426E+07
 0.10760000E+03 -0.13064E+07
 0.10765000E+03 -0.12324E+07
 0.10770000E+03 -0.11247E+07
 0.10775000E+03 -0.98542E+06
 0.10780000E+03 -0.81488E+06
 0.10785000E+03 -0.61575E+06
 0.10790000E+03 -0.39585E+06
 0.10795000E+03 -0.16650E+06
 0.10800000E+03  0.62889E+05
 0.10805000E+03  0.28287E+06
 0.10810000E+03  0.48571E+06
 0.10815000E+03  0.66415E+06
 0.10820000E+03  0.81282E+06
 0.10825000E+03  0.92704E+06
 0.10830000E+03  0.10006E+07
 0.10835000E+03  0.10314E+07
 0.10840000E+03  0.10156E+07
 0.10845000E+03  0.95296E+06
 0.10850000E+03  0.84955E+06
 0.10855000E+03  0.71126E+06
 0.10860000E+03  0.55541E+06
 0.10865000E+03  0.40245E+06
 0.10870000E+03  0.26609E+06
 0.10875000E+03  0.15844E+06
 0.10880000E+03  0.82994E+05
 0.10885000E+03  0.38381E+05
 0.10890000E+03  0.21145E+05
 0.10895000E+03  0.26904E+05
 0.10900000E+03  0.52034E+05
 0.10905000E+03  0.90738E+05
 0.10910000E+03  0.13826E+06
 0.10915000E+03  0.18832E+06
 0.10920000E+03  0.23270E+06
 0.10925000E+03  0.26507E+06
 0.10930000E+03  0.28181E+06
 0.10935000E+03  0.28187E+06
 0.10940000E+03  0.26505E+06
 0.10945000E+03  0.23145E+06
 0.10950000E+03  0.18208E+06
 0.10955000E+03  0.11816E+06
 0.10960000E+03  0.41072E+05
 0.10965000E+03 -0.45572E+05
 0.10970000E+03 -0.13604E+06
 0.10975000E+03 -0.22303E+06
 0.10980000E+03 -0.30110E+06
 0.10985000E+03 -0.36621E+06
 0.10990000E+03 -0.41612E+06
 0.10995000E+03 -0.45230E+06
 0.11000000E+03 -0.47588E+06
 0.11005000E+03 -0.48998E+06
 0.11010000E+03 -0.49554E+06
 0.11015000E+03 -0.48999E+06
 0.11020000E+03 -0.47336E+06
 0.11025000E+03 -0.44759E+06
 0.11030000E+03 -0.41790E+06
 0.11035000E+03 -0.38845E+06
 0.11040000E+03 -0.36080E+06
 0.11045000E+03 -0.33327E+06
 0.11050000E+03 -0.30063E+06
 0.11055000E+03 -0.25932E+06
 0.11060000E+03 -0.20812E+06
 0.11065000E+03 -0.14944E+06
 0.11070000E+03 -0.84934E+05
 0.11075000E+03 -0.13997E+05
 0.11080000E+03  0.61474E+05
 0.11085000E+03  0.14008E+06
 0.11090000E+03  0.22031E+06
 0.11095000E+03  0.29857E+06
 0.11100000E+03  0.37201E+06
 0.11105000E+03  0.43537E+06
 0.11110000E+03  0.47985E+06
 0.11115000E+03  0.50115E+06
 0.11120000E+03  0.50201E+06
 0.11125000E+03  0.48480E+06
 0.11130000E+03  0.45210E+06
 0.11135000E+03  0.41056E+06
 0.11140000E+03  0.36174E+06
 0.11145000E+03  0.30519E+06
 0.11150000E+03  0.24509E+06
 0.11155000E+03  0.18306E+06
 0.11160000E+03  0.11907E+06
 0.11165000E+03  0.56661E+05
 0.11170000E+03  0.23720E+04
 0.11175000E+03 -0.39382E+05
 0.11180000E+03 -0.67047E+05
 0.11185000E+03 -0.82432E+05
 0.11190000E+03 -0.87110E+05
 0.11195000E+03 -0.78789E+05
 0.11200000E+03 -0.55772E+05
 0.11205000E+03 -0.20233E+05
 0.11210000E+03  0.20811E+05
 0.11215000E+03  0.61964E+05
 0.11220000E+03  0.99583E+05
 0.11225000E+03  0.12720E+06
 0.11230000E+03  0.13765E+06
 0.11235000E+03  0.12668E+06
 0.11240000E+03  0.93025E+05
 0.11245000E+03  0.38679E+05
 0.11250000E+03 -0.29543E+05
 0.11255000E+03 -0.10472E+06
 0.11260000E+03 -0.17984E+06
 0.11265000E+03 -0.24912E+06
 0.11270000E+03 -0.31165E+06
 0.11275000E+03 -0.36552E+06
 0.11280000E+03 -0.40585E+06
 0.11285000E+03 -0.42966E+06
 0.11290000E+03 -0.43450E+06
 0.11295000E+03 -0.42027E+06
 0.11300000E+03 -0.39122E+06
 0.11305000E+03 -0.35222E+06
 0.11310000E+03 -0.30766E+06
 0.11315000E+03 -0.25850E+06
 0.11320000E+03 -0.20369E+06
 0.11325000E+03 -0.14447E+06
 0.11330000E+03 -0.83273E+05
 0.11335000E+03 -0.25425E+05
 0.11340000E+03  0.22778E+05
 0.11345000E+03  0.59632E+05
 0.11350000E+03  0.85457E+05
 0.11355000E+03  0.10019E+06
 0.11360000E+03  0.10500E+06
 0.11365000E+03  0.10466E+06
 0.11370000E+03  0.10702E+06
 0.11375000E+03  0.11384E+06
 0.11380000E+03  0.12113E+06
 0.11385000E+03  0.12643E+06
 0.11390000E+03  0.12699E+06
 0.11395000E+03  0.12246E+06
 0.11400000E+03  0.11653E+06
 0.11405000E+03  0.10987E+06
 0.11410000E+03  0.10002E+06
 0.11415000E+03  0.85518E+05
 0.11420000E+03  0.64707E+05
 0.11425000E+03  0.37290E+05
 0.11430000E+03  0.48880E+04
 0.11435000E+03 -0.32385E+05
 0.11440000E+03 -0.71620E+05
 0.11445000E+03 -0.10560E+06
 0.11450000E+03 -0.12679E+06
 0.11455000E+03 -0.13029E+06
 0.11460000E+03 -0.11454E+06
 0.11465000E+03 -0.80218E+05
 0.11470000E+03 -0.30532E+05
 0.11475000E+03  0.29674E+05
 0.11480000E+03  0.93097E+05
 0.11485000E+03  0.15308E+06
 0.11490000E+03  0.20719E+06
 0.11495000E+03  0.25319E+06
 0.11500000E+03  0.28614E+06
 0.11505000E+03  0.30162E+06
 0.11510000E+03  0.29813E+06
 0.11515000E+03  0.27743E+06
 0.11520000E+03  0.24349E+06
 0.11525000E+03  0.19866E+06
 0.11530000E+03  0.14452E+06
 0.11535000E+03  0.82110E+05
 0.11540000E+03  0.16070E+05
 0.11545000E+03 -0.47756E+05
 0.11550000E+03 -0.10777E+06
 0.11555000E+03 -0.16064E+06
 0.11560000E+03 -0.20141E+06
 0.11565000E+03 -0.22634E+06
 0.11570000E+03 -0.23645E+06
 0.11575000E+03 -0.23427E+06
 0.11580000E+03 -0.22157E+06
 0.11585000E+03 -0.20179E+06
 0.11590000E+03 -0.17843E+06
 0.11595000E+03 -0.15600E+06
 0.11600000E+03 -0.13525E+06
 0.11605000E+03 -0.11549E+06
 0.11610000E+03 -0.99803E+05
 0.11615000E+03 -0.90017E+05
 0.11620000E+03 -0.82399E+05
 0.11625000E+03 -0.70721E+05
 0.11630000E+03 -0.51083E+05
 0.11635000E+03 -0.17288E+05
 0.11640000E+03  0.33314E+05
 0.11645000E+03  0.95312E+05
 0.11650000E+03  0.16435E+06
 0.11655000E+03  0.23472E+06
 0.11660000E+03  0.30238E+06
 0.11665000E+03  0.36598E+06
 0.11670000E+03  0.42101E+06
 0.11675000E+03  0.46270E+06
 0.11680000E+03  0.48646E+06
 0.11685000E+03  0.48639E+06
 0.11690000E+03  0.45504E+06
 0.11695000E+03  0.38870E+06
 0.11700000E+03  0.28846E+06
 0.11705000E+03  0.16083E+06
 0.11710000E+03  0.16435E+05
 0.11715000E+03 -0.13696E+06
 0.11720000E+03 -0.29152E+06
 0.11725000E+03 -0.43964E+06
 0.11730000E+03 -0.57364E+06
 0.11735000E+03 -0.68606E+06
 0.11740000E+03 -0.77169E+06
 0.11745000E+03 -0.82612E+06
 0.11750000E+03 -0.84854E+06
 0.11755000E+03 -0.84031E+06
 0.11760000E+03 -0.80384E+06
 0.11765000E+03 -0.74148E+06
 0.11770000E+03 -0.65410E+06
 0.11775000E+03 -0.54219E+06
 0.11780000E+03 -0.40711E+06
 0.11785000E+03 -0.25499E+06
 0.11790000E+03 -0.95575E+05
 0.11795000E+03  0.61543E+05
 0.11800000E+03  0.20912E+06
 0.11805000E+03  0.34126E+06
 0.11810000E+03  0.45321E+06
 0.11815000E+03  0.54312E+06
 0.11820000E+03  0.60992E+06
 0.11825000E+03  0.65540E+06
 0.11830000E+03  0.68302E+06
 0.11835000E+03  0.69477E+06
 0.11840000E+03  0.69294E+06
 0.11845000E+03  0.67897E+06
 0.11850000E+03  0.65503E+06
 0.11855000E+03  0.62346E+06
 0.11860000E+03  0.58398E+06
 0.11865000E+03  0.53719E+06
 0.11870000E+03  0.48345E+06
 0.11875000E+03  0.42257E+06
 0.11880000E+03  0.35569E+06
 0.11885000E+03  0.28304E+06
 0.11890000E+03  0.20466E+06
 0.11895000E+03  0.11935E+06
 0.11900000E+03  0.26054E+05
 0.11905000E+03 -0.73864E+05
 0.11910000E+03 -0.17754E+06
 0.11915000E+03 -0.28118E+06
 0.11920000E+03 -0.38246E+06
 0.11925000E+03 -0.48024E+06
 0.11930000E+03 -0.57370E+06
 0.11935000E+03 -0.65967E+06
 0.11940000E+03 -0.73411E+06
 0.11945000E+03 -0.79424E+06
 0.11950000E+03 -0.83498E+06
 0.11955000E+03 -0.85217E+06
 0.11960000E+03 -0.84441E+06
 0.11965000E+03 -0.81058E+06
 0.11970000E+03 -0.75120E+06
 0.11975000E+03 -0.66951E+06
 0.11980000E+03 -0.56805E+06
 0.11985000E+03 -0.45008E+06
 0.11990000E+03 -0.32085E+06
 0.11995000E+03 -0.18458E+06
 0.12000000E+03 -0.47014E+05
 0.12005000E+03  0.85922E+05
 0.12010000E+03  0.20876E+06
 0.12015000E+03  0.31698E+06
 0.12020000E+03  0.40731E+06
 0.12025000E+03  0.47597E+06
 0.12030000E+03  0.52321E+06
 0.12035000E+03  0.55042E+06
 0.12040000E+03  0.55763E+06
 0.12045000E+03  0.54674E+06
 0.12050000E+03  0.52098E+06
 0.12055000E+03  0.48441E+06
 0.12060000E+03  0.44177E+06
 0.12065000E+03  0.39767E+06
 0.12070000E+03  0.35489E+06
 0.12075000E+03  0.31654E+06
 0.12080000E+03  0.28275E+06
 0.12085000E+03  0.25002E+06
 0.12090000E+03  0.21730E+06
 0.12095000E+03  0.18438E+06
 0.12100000E+03  0.15388E+06
 0.12105000E+03  0.12797E+06
 0.12110000E+03  0.10688E+06
 0.12115000E+03  0.94854E+05
 0.12120000E+03  0.94324E+05
 0.12125000E+03  0.10484E+06
 0.12130000E+03  0.12492E+06
 0.12135000E+03  0.14809E+06
 0.12140000E+03  0.16542E+06
 0.12145000E+03  0.17012E+06
 0.12150000E+03  0.15951E+06
 0.12155000E+03  0.13485E+06
 0.12160000E+03  0.10063E+06
 0.12165000E+03  0.64239E+05
 0.12170000E+03  0.31957E+05
 0.12175000E+03  0.69120E+04
 0.12180000E+03 -0.10078E+05
 0.12185000E+03 -0.18301E+05
 0.12190000E+03 -0.16461E+05
 0.12195000E+03 -0.65050E+04
 0.12200000E+03  0.84560E+04
 0.12205000E+03  0.25597E+05
 0.12210000E+03  0.42334E+05
 0.12215000E+03  0.56689E+05
 0.12220000E+03  0.64972E+05
 0.12225000E+03  0.63916E+05
 0.12230000E+03  0.51602E+05
 0.12235000E+03  0.27026E+05
 0.12240000E+03 -0.90220E+04
 0.12245000E+03 -0.54205E+05
 0.12250000E+03 -0.10608E+06
 0.12255000E+03 -0.16243E+06
 0.12260000E+03 -0.22067E+06
 0.12265000E+03 -0.27896E+06
 0.12270000E+03 -0.33460E+06
 0.12275000E+03 -0.38343E+06
 0.12280000E+03 -0.42013E+06
 0.12285000E+03 -0.43835E+06
 0.12290000E+03 -0.43371E+06
 0.12295000E+03 -0.40483E+06
 0.12300000E+03 -0.35340E+06
 0.12305000E+03 -0.28373E+06
 0.12310000E+03 -0.20099E+06
 0.12315000E+03 -0.10979E+06
 0.12320000E+03 -0.14914E+05
 0.12325000E+03  0.78957E+05
 0.12330000E+03  0.16683E+06
 0.12335000E+03  0.24286E+06
 0.12340000E+03  0.30256E+06
 0.12345000E+03  0.34379E+06
 0.12350000E+03  0.36636E+06
 0.12355000E+03  0.36996E+06
 0.12360000E+03  0.35327E+06
 0.12365000E+03  0.31378E+06
 0.12370000E+03  0.25240E+06
 0.12375000E+03  0.17568E+06
 0.12380000E+03  0.90741E+05
 0.12385000E+03  0.34400E+04
 0.12390000E+03 -0.82320E+05
 0.12395000E+03 -0.16416E+06
 0.12400000E+03 -0.24026E+06
 0.12405000E+03 -0.30738E+06
 0.12410000E+03 -0.36428E+06
 0.12415000E+03 -0.41225E+06
 0.12420000E+03 -0.45052E+06
 0.12425000E+03 -0.47909E+06
 0.12430000E+03 -0.49695E+06
 0.12435000E+03 -0.50274E+06
 0.12440000E+03 -0.49636E+06
 0.12445000E+03 -0.47704E+06
 0.12450000E+03 -0.44628E+06
 0.12455000E+03 -0.40612E+06
 0.12460000E+03 -0.35870E+06
 0.12465000E+03 -0.30563E+06
 0.12470000E+03 -0.24866E+06
 0.12475000E+03 -0.19208E+06
 0.12480000E+03 -0.13852E+06
 0.12485000E+03 -0.89519E+05
 0.12490000E+03 -0.45265E+05
 0.12495000E+03 -0.51320E+04
 0.12500000E+03  0.31303E+05
 0.12505000E+03  0.64412E+05
 0.12510001E+03  0.92974E+05
 0.12515001E+03  0.11578E+06
 0.12520000E+03  0.13177E+06
 0.12525000E+03  0.14109E+06
 0.12530000E+03  0.14533E+06
 0.12535001E+03  0.14831E+06
 0.12540001E+03  0.15322E+06
 0.12545000E+03  0.16246E+06
 0.12550000E+03  0.17868E+06
 0.12555000E+03  0.20052E+06
 0.12560001E+03  0.22721E+06
 0.12565001E+03  0.25651E+06
 0.12570000E+03  0.28455E+06
 0.12575000E+03  0.30846E+06
 0.12580000E+03  0.32475E+06
 0.12585001E+03  0.33364E+06
 0.12590001E+03  0.33672E+06
 0.12595000E+03  0.33582E+06
 0.12600000E+03  0.33307E+06
 0.12605000E+03  0.32971E+06
 0.12610001E+03  0.32764E+06
 0.12615001E+03  0.32726E+06
 0.12620000E+03  0.32789E+06
 0.12625000E+03  0.32864E+06
 0.12630000E+03  0.32926E+06
 0.12635001E+03  0.32898E+06
 0.12640001E+03  0.32511E+06
 0.12645000E+03  0.31688E+06
 0.12650000E+03  0.30378E+06
 0.12655000E+03  0.28508E+06
 0.12660001E+03  0.25999E+06
 0.12665001E+03  0.22797E+06
 0.12670000E+03  0.18919E+06
 0.12675000E+03  0.14191E+06
 0.12680000E+03  0.85658E+05
 0.12685001E+03  0.20480E+05
 0.12690001E+03 -0.51931E+05
 0.12695000E+03 -0.12768E+06
 0.12700000E+03 -0.20481E+06
 0.12705000E+03 -0.27975E+06
 0.12710001E+03 -0.34877E+06
 0.12715001E+03 -0.41047E+06
 0.12720000E+03 -0.46209E+06
 0.12725000E+03 -0.50161E+06
 0.12730000E+03 -0.52792E+06
 0.12735001E+03 -0.53771E+06
 0.12740001E+03 -0.52975E+06
 0.12745000E+03 -0.50495E+06
 0.12750000E+03 -0.46405E+06
 0.12755000E+03 -0.40944E+06
 0.12760001E+03 -0.34408E+06
 0.12765001E+03 -0.26992E+06
 0.12770000E+03 -0.18809E+06
 0.12775000E+03 -0.10084E+06
 0.12780000E+03 -0.10012E+05
 0.12785001E+03  0.82248E+05
 0.12790001E+03  0.17165E+06
 0.12795000E+03  0.25415E+06
 0.12800000E+03  0.32410E+06
 0.12805000E+03  0.37668E+06
 0.12810001E+03  0.40971E+06
 0.12815001E+03  0.41956E+06
 0.12820000E+03  0.40411E+06
 0.12825000E+03  0.36555E+06
 0.12830000E+03  0.30668E+06
 0.12835001E+03  0.23157E+06
 0.12840001E+03  0.14671E+06
 0.12845000E+03  0.57528E+05
 0.12850000E+03 -0.31043E+05
 0.12855000E+03 -0.11614E+06
 0.12860001E+03 -0.19431E+06
 0.12865001E+03 -0.26108E+06
 0.12870000E+03 -0.31437E+06
 0.12875000E+03 -0.34975E+06
 0.12880000E+03 -0.36431E+06
 0.12885001E+03 -0.35848E+06
 0.12890001E+03 -0.33399E+06
 0.12895000E+03 -0.29590E+06
 0.12900000E+03 -0.25137E+06
 0.12905000E+03 -0.20794E+06
 0.12910001E+03 -0.16961E+06
 0.12915001E+03 -0.13644E+06
 0.12920000E+03 -0.10878E+06
 0.12925000E+03 -0.86448E+05
 0.12930000E+03 -0.69602E+05
 0.12935001E+03 -0.59403E+05
 0.12940001E+03 -0.53469E+05
 0.12945000E+03 -0.48528E+05
 0.12950000E+03 -0.42490E+05
 0.12955000E+03 -0.33246E+05
 0.12960001E+03 -0.20241E+05
 0.12965001E+03 -0.34380E+04
 0.12970000E+03  0.15683E+05
 0.12975000E+03  0.35541E+05
 0.12980000E+03  0.56838E+05
 0.12985001E+03  0.79307E+05
 0.12990001E+03  0.10311E+06
 0.12995000E+03  0.12914E+06
 0.13000000E+03  0.15622E+06
 0.13005000E+03  0.18176E+06
 0.13010001E+03  0.20224E+06
 0.13015001E+03  0.21535E+06
 0.13020000E+03  0.21980E+06
 0.13025000E+03  0.21756E+06
 0.13030000E+03  0.21190E+06
 0.13035001E+03  0.20377E+06
 0.13040001E+03  0.19614E+06
 0.13045000E+03  0.18967E+06
 0.13050000E+03  0.18216E+06
 0.13055000E+03  0.16979E+06
 0.13060001E+03  0.14859E+06
 0.13065001E+03  0.11915E+06
 0.13070000E+03  0.82659E+05
 0.13075000E+03  0.41900E+05
 0.13080000E+03 -0.33900E+03
 0.13085001E+03 -0.42271E+05
 0.13090001E+03 -0.82792E+05
 0.13095000E+03 -0.12259E+06
 0.13100000E+03 -0.15988E+06
 0.13105000E+03 -0.19250E+06
 0.13110001E+03 -0.21787E+06
 0.13115001E+03 -0.23148E+06
 0.13120000E+03 -0.22888E+06
 0.13125000E+03 -0.20817E+06
 0.13130000E+03 -0.17009E+06
 0.13135001E+03 -0.11706E+06
 0.13140001E+03 -0.53377E+05
 0.13145000E+03  0.15690E+05
 0.13150000E+03  0.86364E+05
 0.13155000E+03  0.15643E+06
 0.13160001E+03  0.22455E+06
 0.13165001E+03  0.29238E+06
 0.13170000E+03  0.35804E+06
 0.13175000E+03  0.41834E+06
 0.13180000E+03  0.47150E+06
 0.13185001E+03  0.51406E+06
 0.13190001E+03  0.54432E+06
 0.13195000E+03  0.56008E+06
 0.13200000E+03  0.55936E+06
 0.13205000E+03  0.54064E+06
 0.13210001E+03  0.50334E+06
 0.13215001E+03  0.45006E+06
 0.13220000E+03  0.38240E+06
 0.13225000E+03  0.30108E+06
 0.13230000E+03  0.21024E+06
 0.13235001E+03  0.11448E+06
 0.13240001E+03  0.18360E+05
 0.13245000E+03 -0.74197E+05
 0.13250000E+03 -0.16214E+06
 0.13255000E+03 -0.24380E+06
 0.13260001E+03 -0.31943E+06
 0.13265001E+03 -0.38946E+06
 0.13270000E+03 -0.45359E+06
 0.13275000E+03 -0.51283E+06
 0.13280000E+03 -0.56554E+06
 0.13285001E+03 -0.60996E+06
 0.13290001E+03 -0.64609E+06
 0.13295000E+03 -0.67419E+06
 0.13300000E+03 -0.69525E+06
 0.13305000E+03 -0.70890E+06
 0.13310001E+03 -0.71318E+06
 0.13315001E+03 -0.70589E+06
 0.13320000E+03 -0.68417E+06
 0.13325000E+03 -0.64726E+06
 0.13330000E+03 -0.59714E+06
 0.13335001E+03 -0.53801E+06
 0.13340001E+03 -0.47484E+06
 0.13345000E+03 -0.40990E+06
 0.13350000E+03 -0.34472E+06
 0.13355000E+03 -0.28010E+06
 0.13360001E+03 -0.21714E+06
 0.13365001E+03 -0.15891E+06
 0.13370000E+03 -0.10811E+06
 0.13375000E+03 -0.66143E+05
 0.13380000E+03 -0.32413E+05
 0.13385001E+03 -0.53000E+04
 0.13390001E+03  0.17012E+05
 0.13395000E+03  0.36537E+05
 0.13400000E+03  0.54152E+05
 0.13405000E+03  0.71265E+05
 0.13410001E+03  0.89862E+05
 0.13415001E+03  0.11238E+06
 0.13420000E+03  0.14090E+06
 0.13425000E+03  0.17612E+06
 0.13430000E+03  0.21865E+06
 0.13435001E+03  0.26632E+06
 0.13440001E+03  0.31612E+06
 0.13445000E+03  0.36597E+06
 0.13450000E+03  0.41143E+06
 0.13455000E+03  0.44772E+06
 0.13460001E+03  0.47223E+06
 0.13465001E+03  0.48355E+06
 0.13470000E+03  0.48438E+06
 0.13475000E+03  0.47896E+06
 0.13480000E+03  0.46941E+06
 0.13485001E+03  0.45868E+06
 0.13490001E+03  0.44875E+06
 0.13495000E+03  0.44135E+06
 0.13500000E+03  0.43612E+06
 0.13505000E+03  0.43273E+06
 0.13510001E+03  0.43163E+06
 0.13515001E+03  0.43020E+06
 0.13520000E+03  0.42696E+06
 0.13525000E+03  0.42076E+06
 0.13530000E+03  0.41055E+06
 0.13535001E+03  0.39525E+06
 0.13540001E+03  0.37451E+06
 0.13545000E+03  0.34942E+06
 0.13550000E+03  0.31985E+06
 0.13555000E+03  0.28618E+06
 0.13560001E+03  0.25027E+06
 0.13565001E+03  0.21389E+06
 0.13570000E+03  0.17755E+06
 0.13575000E+03  0.14060E+06
 0.13580000E+03  0.10287E+06
 0.13585001E+03  0.64866E+05
 0.13590001E+03  0.27252E+05
 0.13595000E+03 -0.84650E+04
 0.13600000E+03 -0.41180E+05
 0.13605000E+03 -0.72192E+05
 0.13610001E+03 -0.10459E+06
 0.13615001E+03 -0.14004E+06
 0.13620000E+03 -0.17838E+06
 0.13625000E+03 -0.21897E+06
 0.13630000E+03 -0.25986E+06
 0.13635001E+03 -0.29877E+06
 0.13640001E+03 -0.33511E+06
 0.13645000E+03 -0.36774E+06
 0.13650000E+03 -0.39276E+06
 0.13655000E+03 -0.40748E+06
 0.13660001E+03 -0.41256E+06
 0.13665001E+03 -0.41191E+06
 0.13670000E+03 -0.40835E+06
 0.13675000E+03 -0.40355E+06
 0.13680000E+03 -0.40034E+06
 0.13685001E+03 -0.39755E+06
 0.13690001E+03 -0.39277E+06
 0.13695000E+03 -0.38473E+06
 0.13700000E+03 -0.37382E+06
 0.13705000E+03 -0.36024E+06
 0.13710001E+03 -0.34330E+06
 0.13715001E+03 -0.32562E+06
 0.13720000E+03 -0.30887E+06
 0.13725000E+03 -0.29506E+06
 0.13730000E+03 -0.28533E+06
 0.13735001E+03 -0.28108E+06
 0.13740001E+03 -0.28310E+06
 0.13745000E+03 -0.28975E+06
 0.13750000E+03 -0.29953E+06
 0.13755000E+03 -0.30657E+06
 0.13760001E+03 -0.30884E+06
 0.13765001E+03 -0.30086E+06
 0.13770000E+03 -0.27930E+06
 0.13775000E+03 -0.24818E+06
 0.13780000E+03 -0.20899E+06
 0.13785001E+03 -0.16727E+06
 0.13790001E+03 -0.12053E+06
 0.13795000E+03 -0.68596E+05
 0.13800000E+03 -0.14119E+05
 0.13805000E+03  0.45348E+05
 0.13810001E+03  0.10756E+06
 0.13815001E+03  0.17253E+06
 0.13820000E+03  0.23664E+06
 0.13825000E+03  0.29923E+06
 0.13830000E+03  0.36013E+06
 0.13835001E+03  0.41475E+06
 0.13840001E+03  0.46458E+06
 0.13845000E+03  0.50740E+06
 0.13850000E+03  0.54074E+06
 0.13855000E+03  0.56385E+06
 0.13860001E+03  0.57555E+06
 0.13865001E+03  0.57790E+06
 0.13870000E+03  0.56941E+06
 0.13875000E+03  0.55155E+06
 0.13880000E+03  0.52831E+06
 0.13885001E+03  0.49830E+06
 0.13890001E+03  0.46143E+06
 0.13895000E+03  0.41890E+06
 0.13900000E+03  0.37105E+06
 0.13905000E+03  0.31776E+06
 0.13910001E+03  0.25882E+06
 0.13915001E+03  0.19634E+06
 0.13920000E+03  0.13238E+06
 0.13925000E+03  0.67697E+05
 0.13930000E+03  0.38400E+04
 0.13935001E+03 -0.57285E+05
 0.13940001E+03 -0.11404E+06
 0.13945000E+03 -0.16580E+06
 0.13950000E+03 -0.21336E+06
 0.13955000E+03 -0.25681E+06
 0.13960001E+03 -0.29491E+06
 0.13965001E+03 -0.32647E+06
 0.13970000E+03 -0.34973E+06
 0.13975000E+03 -0.36208E+06
 0.13980000E+03 -0.36313E+06
 0.13985001E+03 -0.35474E+06
 0.13990001E+03 -0.33936E+06
 0.13995000E+03 -0.31754E+06
 0.14000000E+03 -0.28934E+06
 0.14005000E+03 -0.25646E+06
 0.14010001E+03 -0.21908E+06
 0.14015001E+03 -0.17704E+06
 0.14020000E+03 -0.12999E+06
 0.14025000E+03 -0.78899E+05
 0.14030000E+03 -0.25396E+05
 0.14035001E+03  0.28597E+05
 0.14040001E+03  0.79039E+05
 0.14045000E+03  0.12367E+06
 0.14050000E+03  0.16052E+06
 0.14055000E+03  0.18777E+06
 0.14060001E+03  0.20359E+06
 0.14065001E+03  0.20738E+06
 0.14070000E+03  0.19881E+06
 0.14075000E+03  0.17663E+06
 0.14080000E+03  0.14369E+06
 0.14085001E+03  0.10081E+06
 0.14090001E+03  0.49013E+05
 0.14095000E+03 -0.69330E+04
 0.14100000E+03 -0.63673E+05
 0.14105000E+03 -0.11654E+06
 0.14110001E+03 -0.16152E+06
 0.14115001E+03 -0.19487E+06
 0.14120000E+03 -0.21239E+06
 0.14125000E+03 -0.21217E+06
 0.14130000E+03 -0.19461E+06
 0.14135001E+03 -0.16252E+06
 0.14140001E+03 -0.11813E+06
 0.14145000E+03 -0.64579E+05
 0.14150000E+03 -0.60350E+04
 0.14155000E+03  0.53106E+05
 0.14160001E+03  0.10783E+06
 0.14165001E+03  0.15604E+06
 0.14170000E+03  0.19643E+06
 0.14175000E+03  0.22890E+06
 0.14180000E+03  0.25315E+06
 0.14185001E+03  0.26672E+06
 0.14190001E+03  0.27091E+06
 0.14195000E+03  0.26634E+06
 0.14200000E+03  0.25330E+06
 0.14205000E+03  0.23272E+06
 0.14210001E+03  0.20385E+06
 0.14215001E+03  0.16773E+06
 0.14220000E+03  0.12598E+06
 0.14225000E+03  0.81540E+05
 0.14230000E+03  0.36242E+05
 0.14235001E+03 -0.90800E+04
 0.14240001E+03 -0.54206E+05
 0.14245000E+03 -0.99164E+05
 0.14250000E+03 -0.14413E+06
 0.14255000E+03 -0.19086E+06
 0.14260001E+03 -0.23817E+06
 0.14265001E+03 -0.28511E+06
 0.14270000E+03 -0.33124E+06
 0.14275000E+03 -0.37585E+06
 0.14280000E+03 -0.41826E+06
 0.14285001E+03 -0.45770E+06
 0.14290001E+03 -0.49368E+06
 0.14295000E+03 -0.52352E+06
 0.14300000E+03 -0.54500E+06
 0.14305000E+03 -0.55715E+06
 0.14310001E+03 -0.55778E+06
 0.14315001E+03 -0.54425E+06
 0.14320000E+03 -0.51495E+06
 0.14325000E+03 -0.46971E+06
 0.14330000E+03 -0.41110E+06
 0.14335001E+03 -0.34030E+06
 0.14340001E+03 -0.25918E+06
 0.14345000E+03 -0.17016E+06
 0.14350000E+03 -0.75142E+05
 0.14355000E+03  0.21881E+05
 0.14360001E+03  0.12023E+06
 0.14365001E+03  0.21671E+06
 0.14370000E+03  0.30752E+06
 0.14375000E+03  0.39047E+06
 0.14380000E+03  0.46334E+06
 0.14385001E+03  0.52687E+06
 0.14390001E+03  0.58015E+06
 0.14395000E+03  0.62354E+06
 0.14400000E+03  0.65487E+06
 0.14405000E+03  0.67014E+06
 0.14410001E+03  0.67007E+06
 0.14415001E+03  0.65571E+06
 0.14420000E+03  0.62760E+06
 0.14425000E+03  0.58765E+06
 0.14430000E+03  0.53956E+06
 0.14435001E+03  0.48661E+06
 0.14440001E+03  0.43123E+06
 0.14445000E+03  0.37557E+06
 0.14450000E+03  0.32156E+06
 0.14455000E+03  0.27046E+06
 0.14460001E+03  0.22377E+06
 0.14465001E+03  0.18259E+06
 0.14470000E+03  0.14709E+06
 0.14475000E+03  0.11854E+06
 0.14480000E+03  0.95865E+05
 0.14485001E+03  0.76790E+05
 0.14490001E+03  0.58802E+05
 0.14495000E+03  0.37097E+05
 0.14500000E+03  0.80590E+04
 0.14505000E+03 -0.30196E+05
 0.14510001E+03 -0.77851E+05
 0.14515001E+03 -0.13414E+06
 0.14520000E+03 -0.19858E+06
 0.14525000E+03 -0.26973E+06
 0.14530000E+03 -0.34470E+06
 0.14535001E+03 -0.42004E+06
 0.14540001E+03 -0.49107E+06
 0.14545000E+03 -0.55388E+06
 0.14550000E+03 -0.60666E+06
 0.14555000E+03 -0.64622E+06
 0.14560001E+03 -0.67170E+06
 0.14565001E+03 -0.68312E+06
 0.14570000E+03 -0.67809E+06
 0.14575000E+03 -0.65509E+06
 0.14580000E+03 -0.61250E+06
 0.14585001E+03 -0.55100E+06
 0.14590001E+03 -0.47357E+06
 0.14595000E+03 -0.38306E+06
 0.14600000E+03 -0.28404E+06
 0.14605000E+03 -0.18194E+06
 0.14610001E+03 -0.81271E+05
 0.14615001E+03  0.13809E+05
 0.14620000E+03  0.98271E+05
 0.14625000E+03  0.16867E+06
 0.14630000E+03  0.22572E+06
 0.14635001E+03  0.26963E+06
 0.14640001E+03  0.30031E+06
 0.14645000E+03  0.31937E+06
 0.14650000E+03  0.32683E+06
 0.14655000E+03  0.32382E+06
 0.14660001E+03  0.31311E+06
 0.14665001E+03  0.29624E+06
 0.14670000E+03  0.27562E+06
 0.14675000E+03  0.25379E+06
 0.14680000E+03  0.23169E+06
 0.14685001E+03  0.21074E+06
 0.14690001E+03  0.19195E+06
 0.14695000E+03  0.17608E+06
 0.14700000E+03  0.16252E+06
 0.14705000E+03  0.15166E+06
 0.14710001E+03  0.14482E+06
 0.14715001E+03  0.14205E+06
 0.14720000E+03  0.14430E+06
 0.14725000E+03  0.14911E+06
 0.14730000E+03  0.15482E+06
 0.14735001E+03  0.15850E+06
 0.14740001E+03  0.15548E+06
 0.14745000E+03  0.14583E+06
 0.14750000E+03  0.12973E+06
 0.14755000E+03  0.10896E+06
 0.14760001E+03  0.86574E+05
 0.14765001E+03  0.66234E+05
 0.14770000E+03  0.50225E+05
 0.14775000E+03  0.38892E+05
 0.14780000E+03  0.32614E+05
 0.14785001E+03  0.30654E+05
 0.14790001E+03  0.32381E+05
 0.14795000E+03  0.36788E+05
 0.14800000E+03  0.42947E+05
 0.14805000E+03  0.48680E+05
 0.14810001E+03  0.52798E+05
 0.14815001E+03  0.54067E+05
 0.14820000E+03  0.50389E+05
 0.14825000E+03  0.42335E+05
 0.14830000E+03  0.29396E+05
 0.14835001E+03  0.11506E+05
 0.14840001E+03 -0.10981E+05
 0.14845000E+03 -0.37573E+05
 0.14850000E+03 -0.66354E+05
 0.14855000E+03 -0.96598E+05
 0.14860001E+03 -0.12712E+06
 0.14865001E+03 -0.15639E+06
 0.14870000E+03 -0.18376E+06
 0.14875000E+03 -0.20834E+06
 0.14880000E+03 -0.22866E+06
 0.14885001E+03 -0.24372E+06
 0.14890001E+03 -0.25187E+06
 0.14895000E+03 -0.25170E+06
 0.14900000E+03 -0.24439E+06
 0.14905000E+03 -0.23284E+06
 0.14910001E+03 -0.21980E+06
 0.14915001E+03 -0.20633E+06
 0.14920000E+03 -0.19346E+06
 0.14925000E+03 -0.18113E+06
 0.14930000E+03 -0.16820E+06
 0.14935001E+03 -0.15375E+06
 0.14940001E+03 -0.13659E+06
 0.14945000E+03 -0.11652E+06
 0.14950000E+03 -0.95328E+05
 0.14955000E+03 -0.73834E+05
 0.14960001E+03 -0.51438E+05
 0.14965001E+03 -0.27750E+05
 0.14970000E+03 -0.16280E+04
 0.14975000E+03  0.25868E+05
 0.14980000E+03  0.54504E+05
 0.14985001E+03  0.84416E+05
 0.14990001E+03  0.11315E+06
 0.14995000E+03  0.13809E+06
